Time(ms),Raw_ADC,ENV_Value,RMS,MDF,MW_Amp,MW_Area,MW_Latency,MW_Valid,Marker
0,1864.2,17.6,0.0,0.0,0.0,0.0,0.0,0,
100,1857.5,14.7,0.0,0.0,0.0,0.0,0.0,0,
200,1857.6,18.1,0.0,0.0,0.0,0.0,0.0,0,
300,1858.9,16.5,0.0,0.0,0.0,0.0,0.0,0,
400,1860.9,15.6,0.0,0.0,0.0,0.0,0.0,0,
500,1862.1,15.6,0.0,217.7,0.0,0.0,0.0,0,
600,1860.6,161.0,0.0,229.6,0.0,0.0,0.0,0,
700,1853.0,232.1,0.0,92.8,0.0,0.0,0.0,0,
800,1876.8,181.9,0.0,88.0,0.0,0.0,0.0,0,
900,1853.4,150.6,0.0,93.5,434.0,2317.0,9.0,1,
1000,1866.6,79.4,0.0,100.4,1183.0,2771.0,28.0,0,
1100,1866.3,216.6,0.0,93.7,436.0,2179.0,2.0,0,
1200,1844.5,58.4,0.0,44.0,518.0,1902.0,2.0,0,
1300,1860.8,21.5,0.0,37.9,518.0,1902.0,2.0,0,
1400,1857.7,16.8,0.0,36.9,518.0,1902.0,2.0,0,
1500,1858.0,17.4,0.0,69.9,518.0,1902.0,2.0,0,
1600,1857.1,17.7,173.4,245.1,518.0,1902.0,2.0,0,
1700,1862.1,15.8,173.3,214.9,518.0,1902.0,2.0,0,
1800,1860.3,15.9,173.4,205.2,518.0,1902.0,2.0,0,
1900,1860.1,14.9,173.3,216.3,518.0,1902.0,2.0,0,
2000,1861.8,15.1,173.3,212.0,518.0,1902.0,2.0,0,
2100,1861.2,13.4,173.3,221.2,518.0,1902.0,2.0,0,
2200,1858.1,11.8,173.3,259.2,518.0,1902.0,2.0,0,
2300,1858.0,114.5,153.0,262.2,1316.0,4300.0,2.0,0,
2400,1855.2,116.6,142.8,92.0,443.0,2298.0,9.0,1,
2600,1847.7,170.7,124.5,37.8,516.0,2466.0,20.0,1,
2700,1851.5,126.6,124.0,41.3,1383.0,2904.0,28.0,0,
2800,1871.2,218.0,108.1,38.1,460.0,2018.0,2.0,0,
2900,1856.1,27.4,117.4,37.7,389.0,1944.0,19.0,1,
3000,1858.4,16.5,117.4,46.5,389.0,1944.0,19.0,1,
3100,1860.0,16.6,117.4,44.2,389.0,1944.0,19.0,1,
3200,1855.6,17.4,117.4,45.3,389.0,1944.0,19.0,1,
3300,1859.6,18.9,117.3,153.1,389.0,1944.0,19.0,1,
3400,1858.9,16.0,117.3,228.2,389.0,1944.0,19.0,1,
3600,1862.0,15.3,117.4,206.6,389.0,1944.0,19.0,1,
3700,1863.4,15.3,117.4,230.0,389.0,1944.0,19.0,1,
3800,1860.8,17.5,117.4,238.4,389.0,1944.0,19.0,1,
3900,1880.5,106.2,124.1,199.9,931.0,4510.0,28.0,0,
4000,1846.0,188.6,127.2,48.8,754.0,2872.0,2.0,0,
4100,1851.3,115.5,132.0,38.0,408.0,2124.0,28.0,0,
4200,1854.5,170.4,128.4,37.2,1300.0,2670.0,28.0,0,
4300,1871.7,89.6,128.7,37.2,355.0,2065.0,19.0,1,
4400,1859.2,159.3,128.7,39.5,1016.0,2339.0,28.0,0,
4600,1862.3,23.8,125.8,39.0,1016.0,2339.0,28.0,0,
4700,1854.8,16.4,125.8,44.0,1016.0,2339.0,28.0,0,
4800,1857.8,20.9,125.8,102.2,1016.0,2339.0,28.0,0,
4900,1855.5,16.5,125.9,187.5,1016.0,2339.0,28.0,0,
5000,1857.9,18.0,125.9,201.3,1016.0,2339.0,28.0,0,
5100,1861.6,18.3,125.9,204.3,1016.0,2339.0,28.0,0,
5200,1861.5,16.4,125.9,231.7,1016.0,2339.0,28.0,0,
5300,1861.5,20.8,125.9,240.1,1016.0,2339.0,28.0,0,
5400,1860.0,18.6,126.0,251.8,1016.0,2339.0,28.0,0,
5600,1849.8,58.6,114.7,239.0,546.0,2318.0,28.0,0,
5700,1864.7,96.7,102.9,109.2,1328.0,2934.0,28.0,0,
5800,1869.0,74.0,100.6,81.0,316.0,1443.0,28.0,0,
5900,1847.2,126.7,87.0,195.7,968.0,2236.0,28.0,0,
6000,1867.0,101.2,87.6,198.1,209.0,1382.0,24.0,1,
6100,1855.4,28.0,79.4,123.4,207.0,1395.0,21.0,1,
6200,1863.8,17.6,79.5,91.2,207.0,1395.0,21.0,1,
6300,1857.6,19.0,79.4,48.8,207.0,1395.0,21.0,1,
6400,1857.3,19.8,79.4,42.3,207.0,1395.0,21.0,1,
6600,1857.0,19.2,79.4,239.8,207.0,1395.0,21.0,1,
6700,1859.1,19.7,79.5,240.2,207.0,1395.0,21.0,1,
6800,1868.9,19.2,79.5,245.1,207.0,1395.0,21.0,1,
6900,1860.7,17.3,79.5,238.8,207.0,1395.0,21.0,1,
7000,1861.7,19.3,79.4,237.9,207.0,1395.0,21.0,1,
7100,1857.5,98.3,79.5,240.1,1118.0,4957.0,2.0,0,
7200,1870.2,156.8,89.0,88.9,1425.0,3760.0,28.0,0,
7300,1861.9,149.8,102.7,42.1,404.0,2386.0,9.0,1,
7400,1842.1,116.5,103.3,47.7,740.0,2645.0,28.0,0,
7600,1861.5,41.2,116.4,101.5,371.0,1806.0,28.0,0,
7700,1872.1,53.7,114.5,143.0,257.0,1957.0,22.0,1,
7800,1857.8,18.2,115.8,91.5,257.0,1957.0,22.0,1,
7900,1860.5,16.0,115.7,51.1,257.0,1957.0,22.0,1,
8000,1863.9,18.0,115.7,87.7,257.0,1957.0,22.0,1,
8100,1860.2,16.1,115.6,104.5,257.0,1957.0,22.0,1,
8200,1858.5,15.2,115.6,210.8,257.0,1957.0,22.0,1,
8300,1864.7,14.2,115.5,236.4,257.0,1957.0,22.0,1,
8400,1863.2,14.5,115.5,235.7,257.0,1957.0,22.0,1,
8600,1866.5,13.8,115.4,216.1,257.0,1957.0,22.0,1,
8700,1863.3,36.3,115.3,229.2,1773.0,7246.0,4.0,1,
8800,1869.4,163.7,109.9,212.3,1756.0,6280.0,3.0,1,
8900,1851.2,88.4,104.6,56.2,1427.0,4185.0,2.0,0,
9000,1869.1,72.5,99.0,35.2,1241.0,3786.0,3.0,1,
9100,1860.3,70.0,99.3,29.5,1124.0,3018.0,2.0,0,
9200,1865.5,37.9,84.6,29.2,997.0,3499.0,3.0,1,
9300,1852.5,79.3,82.9,34.2,1197.0,3243.0,2.0,0,
9400,1864.3,24.2,83.4,34.8,1197.0,3243.0,2.0,0,
9600,1860.6,16.0,83.5,37.8,1197.0,3243.0,2.0,0,
9700,1859.9,15.3,83.5,52.4,1197.0,3243.0,2.0,0,
9800,1859.5,17.0,83.5,156.5,1197.0,3243.0,2.0,0,
9900,1859.2,13.7,83.5,209.0,1197.0,3243.0,2.0,0,
10000,1863.9,19.7,83.5,232.0,1197.0,3243.0,2.0,0,
10100,1860.9,16.2,83.5,248.9,1197.0,3243.0,2.0,0,
10200,1862.5,16.0,83.4,239.5,1197.0,3243.0,2.0,0,
10300,1860.6,155.5,83.4,207.5,1197.0,3243.0,2.0,0,
10400,1854.7,89.0,95.5,141.5,1506.0,5388.0,28.0,0,
10600,1845.6,99.1,108.9,66.1,790.0,2374.0,28.0,0,
10700,1867.8,148.0,111.3,68.1,220.0,1785.0,10.0,1,
10800,1856.4,128.2,116.4,40.5,306.0,1951.0,6.0,1,
10900,1862.4,106.9,125.6,92.3,464.0,2102.0,28.0,0,
11000,1867.9,23.0,123.9,88.5,334.0,2085.0,9.0,1,
11100,1857.5,14.8,123.9,92.9,334.0,2085.0,9.0,1,
11200,1859.8,20.8,123.9,225.6,334.0,2085.0,9.0,1,
11300,1855.2,20.1,123.9,231.7,334.0,2085.0,9.0,1,
11400,1858.8,19.6,123.9,178.7,334.0,2085.0,9.0,1,
11600,1858.5,14.6,124.0,212.0,334.0,2085.0,9.0,1,
11700,1863.7,17.0,123.9,244.1,334.0,2085.0,9.0,1,
11800,1863.1,17.0,124.0,245.4,334.0,2085.0,9.0,1,
11900,1857.7,43.2,124.0,247.4,334.0,2085.0,9.0,1,
12000,1856.6,43.9,118.6,216.6,1597.0,6369.0,3.0,1,
12100,1854.1,110.0,111.3,51.8,1289.0,4241.0,2.0,0,
12200,1869.4,62.9,106.2,44.3,1157.0,3397.0,3.0,1,
12300,1841.3,70.8,100.7,51.1,1146.0,3744.0,2.0,0,
12400,1873.9,50.1,88.5,47.9,1065.0,3342.0,3.0,1,
12600,1862.4,24.6,74.7,46.3,1107.0,3415.0,2.0,0,
12700,1859.8,17.8,74.7,37.3,1107.0,3415.0,2.0,0,
12800,1859.4,18.9,74.8,35.8,1107.0,3415.0,2.0,0,
12900,1858.1,17.3,74.7,41.0,1107.0,3415.0,2.0,0,
13000,1857.0,19.1,74.7,171.2,1107.0,3415.0,2.0,0,
13100,1860.7,16.3,74.7,220.6,1107.0,3415.0,2.0,0,
13200,1859.6,16.1,74.7,234.4,1107.0,3415.0,2.0,0,
13300,1859.2,14.7,74.8,200.7,1107.0,3415.0,2.0,0,
13400,1857.5,14.9,74.8,213.3,1107.0,3415.0,2.0,0,
13600,1857.3,57.4,72.4,245.9,2064.0,8062.0,4.0,1,
13700,1868.7,47.9,75.7,141.0,1473.0,4599.0,3.0,1,
13800,1870.7,104.4,75.1,43.9,1129.0,2977.0,28.0,0,
13900,1865.4,214.2,83.7,39.5,390.0,2637.0,24.0,1,
14000,1846.3,121.1,103.1,72.6,352.0,1915.0,28.0,0,
14100,1866.4,109.5,108.6,113.3,382.0,1947.0,28.0,0,
14200,1864.3,44.2,116.5,39.9,292.0,1886.0,21.0,1,
14300,1857.8,18.8,116.6,68.5,292.0,1886.0,21.0,1,
14400,1861.0,18.2,116.5,106.3,292.0,1886.0,21.0,1,
14600,1861.6,17.3,116.5,133.1,292.0,1886.0,21.0,1,
14700,1857.6,17.8,116.5,265.9,292.0,1886.0,21.0,1,
14800,1860.0,17.3,116.5,238.8,292.0,1886.0,21.0,1,
14900,1861.6,17.4,116.5,234.9,292.0,1886.0,21.0,1,rest_end
15000,1860.6,17.6,116.5,238.3,292.0,1886.0,21.0,1,
15100,1857.8,15.5,116.6,226.1,292.0,1886.0,21.0,1,
15200,1886.6,148.4,116.4,227.9,1743.0,5846.0,2.0,0,
15300,1828.0,88.7,123.9,136.5,1254.0,3919.0,28.0,0,
15400,1863.3,177.3,124.8,81.2,693.0,2644.0,2.0,0,
15600,1872.6,101.5,123.1,104.8,238.0,1537.0,26.0,0,
15700,1858.3,125.1,122.8,75.2,579.0,2499.0,28.0,0,
15800,1870.5,32.8,120.5,133.1,320.0,1981.0,9.0,1,
15900,1857.8,19.5,117.9,88.7,320.0,1981.0,9.0,1,
16000,1854.0,15.0,117.9,131.1,320.0,1981.0,9.0,1,
16100,1862.3,14.3,117.9,249.3,320.0,1981.0,9.0,1,
16200,1866.1,15.2,117.9,264.6,320.0,1981.0,9.0,1,
16300,1863.3,17.0,117.8,227.1,320.0,1981.0,9.0,1,
16400,1862.9,15.6,117.8,242.1,320.0,1981.0,9.0,1,
16600,1863.2,15.5,117.8,240.8,320.0,1981.0,9.0,1,
16700,1861.2,20.0,117.8,239.6,320.0,1981.0,9.0,1,
16800,1855.7,25.9,117.8,249.2,2084.0,7544.0,4.0,1,
16900,1862.7,38.2,109.7,249.9,1641.0,5270.0,3.0,1,
17000,1847.3,50.7,105.9,75.3,1167.0,3876.0,3.0,1,
17100,1882.1,50.5,94.1,36.3,1477.0,4359.0,3.0,1,
17200,1848.5,73.4,90.6,37.6,1137.0,3668.0,2.0,0,
17300,1868.5,66.6,80.9,41.6,1084.0,3382.0,3.0,1,
17400,1850.4,67.9,71.8,38.0,1290.0,3183.0,2.0,0,
17600,1862.7,17.3,74.0,37.3,1290.0,3183.0,2.0,0,
17700,1860.7,16.3,74.0,37.2,1290.0,3183.0,2.0,0,
17800,1857.5,18.4,74.0,41.1,1290.0,3183.0,2.0,0,
17900,1854.2,14.5,74.0,229.8,1290.0,3183.0,2.0,0,
18000,1860.7,22.8,73.9,237.5,1290.0,3183.0,2.0,0,
18100,1857.1,13.4,73.9,200.4,1290.0,3183.0,2.0,0,
18200,1859.8,14.9,73.9,212.7,1290.0,3183.0,2.0,0,
18300,1861.0,15.9,73.9,242.5,1290.0,3183.0,2.0,0,
18400,1861.3,70.3,73.8,240.1,1290.0,3183.0,2.0,0,
18600,1856.2,114.1,78.2,51.2,1403.0,4193.0,3.0,1,
18700,1845.6,96.7,81.4,29.6,1277.0,3829.0,2.0,0,
18800,1866.4,52.1,93.0,30.1,1048.0,3520.0,3.0,1,
18900,1847.4,133.6,86.9,28.2,1199.0,3750.0,2.0,0,
19000,1877.8,53.7,93.1,34.5,1081.0,3414.0,3.0,1,
19100,1851.1,18.5,86.5,36.1,1081.0,3414.0,3.0,1,
19200,1861.4,17.3,86.6,36.3,1081.0,3414.0,3.0,1,
19300,1865.8,15.7,86.5,41.0,1081.0,3414.0,3.0,1,
19400,1857.5,14.8,86.5,130.6,1081.0,3414.0,3.0,1,
19600,1866.1,14.0,86.4,221.3,1081.0,3414.0,3.0,1,
19700,1863.5,15.1,86.2,200.0,1081.0,3414.0,3.0,1,
19800,1862.2,15.0,86.2,204.0,1081.0,3414.0,3.0,1,
19900,1857.8,17.7,86.2,216.3,1081.0,3414.0,3.0,1,
20000,1859.9,14.2,86.2,220.8,1081.0,3414.0,3.0,1,
20100,1848.8,112.3,90.5,201.3,977.0,4186.0,2.0,0,
20200,1861.1,89.0,91.9,83.9,989.0,3490.0,28.0,0,
20300,1863.5,158.5,99.4,73.7,332.0,2556.0,10.0,1,
20400,1870.3,105.8,106.2,92.8,797.0,2664.0,28.0,0,
20600,1842.4,98.2,115.5,37.0,955.0,3642.0,28.0,0,
20700,1866.8,26.7,118.4,36.7,637.0,2654.0,9.0,1,
20800,1862.3,16.2,118.4,37.2,637.0,2654.0,9.0,1,
20900,1858.9,15.5,118.4,83.9,637.0,2654.0,9.0,1,
21000,1859.8,18.0,118.4,205.0,637.0,2654.0,9.0,1,
21100,1855.5,15.8,118.4,242.0,637.0,2654.0,9.0,1,
21200,1858.6,16.3,118.4,240.9,637.0,2654.0,9.0,1,
21300,1855.9,17.4,118.5,227.9,637.0,2654.0,9.0,1,
21400,1861.5,16.3,118.5,226.6,637.0,2654.0,9.0,1,
21600,1857.5,14.1,118.5,250.5,637.0,2654.0,9.0,1,
21700,1863.1,111.0,118.4,254.5,1936.0,7525.0,4.0,1,
21800,1864.2,104.5,117.1,89.7,675.0,3078.0,28.0,0,
21900,1854.4,196.9,113.7,37.3,756.0,2708.0,28.0,0,
22000,1856.9,183.9,115.4,36.9,431.0,2557.0,8.0,1,
22100,1850.9,140.5,117.2,37.6,1173.0,3187.0,28.0,0,
22200,1874.7,187.2,116.9,37.2,503.0,3504.0,25.0,0,
22300,1851.3,28.8,121.8,36.8,497.0,2648.0,8.0,1,
22400,1860.8,17.6,121.7,36.7,497.0,2648.0,8.0,1,
22600,1857.5,17.3,121.7,37.6,497.0,2648.0,8.0,1,
22700,1860.8,17.4,121.7,157.0,497.0,2648.0,8.0,1,
22800,1862.0,15.9,121.7,229.7,497.0,2648.0,8.0,1,
22900,1857.8,18.6,121.7,228.3,497.0,2648.0,8.0,1,
23000,1862.7,15.8,121.8,226.0,497.0,2648.0,8.0,1,
23100,1860.7,17.8,121.8,210.3,497.0,2648.0,8.0,1,
23200,1857.4,18.6,121.8,199.5,497.0,2648.0,8.0,1,
23300,1866.6,92.5,122.3,209.0,1190.0,4692.0,2.0,0,
23400,1860.9,80.7,120.5,195.9,504.0,3115.0,27.0,0,
23600,1859.9,124.3,114.7,130.6,1259.0,3546.0,28.0,0,
23700,1866.6,78.6,110.0,92.6,429.0,2701.0,9.0,1,
23800,1854.3,155.8,103.7,48.1,1124.0,3939.0,28.0,0,
23900,1863.5,34.1,95.9,37.9,514.0,2706.0,8.0,1,
24000,1864.4,16.6,95.9,37.3,514.0,2706.0,8.0,1,
24100,1860.9,17.5,95.9,69.8,514.0,2706.0,8.0,1,
24200,1860.4,14.4,95.9,124.1,514.0,2706.0,8.0,1,
24300,1862.1,15.9,95.9,194.7,514.0,2706.0,8.0,1,
24400,1855.8,15.3,95.9,230.2,514.0,2706.0,8.0,1,
24600,1857.8,17.8,95.9,216.0,514.0,2706.0,8.0,1,
24700,1858.5,18.0,95.9,183.4,514.0,2706.0,8.0,1,
24800,1858.1,15.4,95.9,205.7,514.0,2706.0,8.0,1,
24900,1860.7,55.8,95.9,238.9,1353.0,5422.0,2.0,0,
25000,1850.9,79.4,95.6,233.6,557.0,3279.0,28.0,0,
25100,1866.9,125.4,92.2,171.4,539.0,2621.0,9.0,1,
25200,1858.5,101.1,97.8,71.4,528.0,2785.0,8.0,1,
25300,1851.8,122.0,91.5,75.7,1182.0,3535.0,28.0,0,
25400,1872.1,99.6,100.6,80.1,520.0,2901.0,8.0,1,
25600,1854.1,20.4,93.4,54.4,520.0,2901.0,8.0,1,
25700,1857.6,17.8,93.4,39.5,520.0,2901.0,8.0,1,
25800,1860.7,21.7,93.5,37.5,520.0,2901.0,8.0,1,
25900,1861.1,18.4,93.6,130.6,520.0,2901.0,8.0,1,
26000,1864.1,17.1,93.6,209.8,520.0,2901.0,8.0,1,
26100,1860.8,15.3,93.7,210.0,520.0,2901.0,8.0,1,
26200,1860.8,20.7,93.7,230.8,520.0,2901.0,8.0,1,
26300,1862.7,17.9,93.8,235.1,520.0,2901.0,8.0,1,
26400,1858.3,18.6,93.7,212.8,520.0,2901.0,8.0,1,
26600,1872.3,127.5,98.0,215.7,449.0,2691.0,10.0,1,
26700,1846.3,82.1,101.2,226.1,482.0,2606.0,28.0,0,
26800,1857.6,125.0,89.1,189.7,982.0,3908.0,27.0,0,
26900,1866.5,84.4,104.3,93.5,546.0,2866.0,8.0,1,
27000,1859.0,123.4,97.6,50.3,1136.0,4012.0,28.0,0,
27100,1869.6,65.4,97.7,46.9,533.0,3081.0,8.0,1,
27200,1854.4,20.9,96.7,40.5,533.0,3081.0,8.0,1,
27300,1865.5,19.7,96.8,123.7,533.0,3081.0,8.0,1,
27400,1859.6,19.4,96.8,146.1,533.0,3081.0,8.0,1,
27600,1863.8,17.7,96.8,152.8,533.0,3081.0,8.0,1,
27700,1862.7,15.9,96.8,173.9,533.0,3081.0,8.0,1,
27800,1862.1,17.4,96.9,231.0,533.0,3081.0,8.0,1,
27900,1861.3,18.9,96.9,240.8,533.0,3081.0,8.0,1,
28000,1859.9,18.9,96.9,242.5,533.0,3081.0,8.0,1,
28100,1860.7,68.3,96.9,236.1,533.0,3081.0,8.0,1,
28200,1856.0,85.7,98.4,236.5,587.0,3426.0,28.0,0,
28300,1870.4,128.3,93.3,82.2,1399.0,3632.0,28.0,0,
28400,1867.2,60.2,98.9,66.9,463.0,2808.0,9.0,1,
28600,1868.6,56.7,85.4,163.9,333.0,1964.0,10.0,1,
28700,1849.6,150.6,77.6,137.4,638.0,2901.0,28.0,0,
28800,1864.8,25.1,83.7,159.1,396.0,1768.0,9.0,1,
28900,1864.2,17.8,83.6,73.4,396.0,1768.0,9.0,1,
29000,1860.4,18.6,83.6,38.1,396.0,1768.0,9.0,1,
29100,1861.3,18.3,83.6,41.5,396.0,1768.0,9.0,1,
29200,1861.0,17.1,83.5,194.6,396.0,1768.0,9.0,1,
29300,1863.5,19.4,83.5,203.2,396.0,1768.0,9.0,1,
29400,1861.8,20.1,83.5,229.7,396.0,1768.0,9.0,1,
29600,1863.1,20.2,83.5,246.5,396.0,1768.0,9.0,1,
29700,1860.5,21.7,83.5,235.8,396.0,1768.0,9.0,1,
29800,1880.8,93.7,93.9,229.2,945.0,4009.0,2.0,0,
29900,1846.6,75.8,94.0,87.6,490.0,3001.0,10.0,1,
30000,1851.5,143.0,86.4,84.7,1069.0,2950.0,27.0,0,
30100,1873.5,68.5,99.7,89.0,521.0,2593.0,8.0,1,
30200,1861.3,173.2,95.6,88.5,671.0,3464.0,28.0,0,
30300,1867.1,62.6,112.7,141.0,415.0,2105.0,9.0,1,
30400,1852.4,20.9,106.6,73.0,377.0,2051.0,10.0,1,
30600,1858.8,18.3,106.7,87.1,377.0,2051.0,10.0,1,
30700,1861.6,19.5,106.7,153.2,377.0,2051.0,10.0,1,
30800,1864.0,20.6,106.6,226.5,377.0,2051.0,10.0,1,
30900,1861.0,15.5,106.7,239.7,377.0,2051.0,10.0,1,
31000,1861.7,14.9,106.6,260.2,377.0,2051.0,10.0,1,
31100,1861.6,15.4,106.6,261.1,377.0,2051.0,10.0,1,
31200,1859.2,16.4,106.6,240.3,377.0,2051.0,10.0,1,
31300,1861.0,20.1,106.5,232.4,377.0,2051.0,10.0,1,
31400,1859.4,36.0,99.4,238.3,882.0,3075.0,2.0,0,
31600,1880.5,161.2,102.7,196.5,689.0,3544.0,8.0,1,
31700,1854.6,130.2,102.4,144.0,1012.0,4422.0,28.0,0,
31800,1874.1,219.5,108.3,75.8,668.0,3524.0,9.0,1,
31900,1846.4,116.1,106.3,36.5,700.0,4178.0,9.0,1,
32000,1856.9,31.8,106.5,36.3,740.0,4177.0,8.0,1,
32100,1866.0,19.1,106.4,36.6,740.0,4177.0,8.0,1,
32200,1865.7,17.2,106.5,37.9,740.0,4177.0,8.0,1,
32300,1862.0,14.5,106.5,88.7,740.0,4177.0,8.0,1,
32400,1859.9,17.6,106.4,188.5,740.0,4177.0,8.0,1,
32600,1856.9,16.0,106.5,280.0,740.0,4177.0,8.0,1,
32700,1858.8,17.6,106.4,233.5,740.0,4177.0,8.0,1,
32800,1862.8,18.1,106.5,216.6,740.0,4177.0,8.0,1,
32900,1861.2,16.2,106.6,235.9,740.0,4177.0,8.0,1,
33000,1861.0,53.2,106.5,233.1,1540.0,6829.0,4.0,1,
33100,1870.7,148.1,111.4,173.5,1226.0,4834.0,2.0,0,
33200,1862.9,104.4,110.8,39.6,1112.0,4425.0,28.0,0,
33300,1861.3,232.2,104.2,36.1,774.0,4004.0,9.0,1,
33400,1850.6,96.5,114.6,37.0,797.0,4057.0,8.0,1,
33600,1839.1,68.2,118.2,37.0,795.0,4208.0,8.0,1,
33700,1864.3,20.4,120.7,37.2,795.0,4208.0,8.0,1,
33800,1861.0,19.1,120.6,39.1,795.0,4208.0,8.0,1,
33900,1855.3,16.1,120.6,41.2,795.0,4208.0,8.0,1,
34000,1863.2,14.6,120.6,51.3,795.0,4208.0,8.0,1,
34100,1860.5,12.8,120.5,177.9,795.0,4208.0,8.0,1,
34200,1860.8,15.9,120.5,238.3,795.0,4208.0,8.0,1,
34300,1865.1,16.7,120.6,260.1,795.0,4208.0,8.0,1,
34400,1861.2,15.5,120.6,276.4,795.0,4208.0,8.0,1,
34600,1863.0,206.0,120.5,240.7,1331.0,5127.0,2.0,0,
34700,1853.2,113.1,134.0,91.8,1169.0,5779.0,28.0,0,
34800,1870.3,173.4,130.8,36.4,978.0,4615.0,9.0,1,
34900,1863.3,161.4,137.1,36.0,842.0,4162.0,9.0,1,
35000,1854.9,126.1,133.3,36.4,770.0,4360.0,9.0,1,
35100,1873.5,209.3,134.4,36.0,826.0,4570.0,8.0,1,
35200,1845.7,63.5,131.3,37.2,910.0,4473.0,9.0,1,
35300,1863.5,18.0,127.8,37.9,910.0,4473.0,9.0,1,
35400,1863.5,18.3,127.9,37.2,910.0,4473.0,9.0,1,
35600,1859.9,21.9,127.9,186.8,910.0,4473.0,9.0,1,
35700,1862.4,19.6,128.0,252.2,910.0,4473.0,9.0,1,
35800,1859.9,23.0,128.1,274.9,910.0,4473.0,9.0,1,
35900,1857.5,20.6,128.1,268.3,910.0,4473.0,9.0,1,
36000,1864.9,16.1,128.2,237.7,910.0,4473.0,9.0,1,
36100,1863.7,19.0,128.3,228.1,910.0,4473.0,9.0,1,
36200,1861.1,38.2,128.3,239.0,910.0,4473.0,9.0,1,
36300,1882.0,57.0,115.4,229.9,1656.0,6751.0,3.0,1,
36400,1844.1,139.3,116.2,136.0,836.0,4355.0,8.0,1,
36600,1850.8,183.3,108.0,46.9,860.0,4081.0,8.0,1,
36700,1850.4,92.7,109.6,69.2,1374.0,5342.0,28.0,0,
36800,1878.2,158.7,100.9,69.1,993.0,4441.0,8.0,1,
36900,1853.2,26.1,107.3,57.4,993.0,4441.0,8.0,1,
37000,1867.5,18.5,107.3,132.0,993.0,4441.0,8.0,1,
37100,1857.3,20.1,107.3,89.6,993.0,4441.0,8.0,1,
37200,1857.2,14.5,107.3,70.0,993.0,4441.0,8.0,1,
37300,1857.4,20.5,107.2,155.0,993.0,4441.0,8.0,1,
37400,1862.8,15.3,107.2,235.7,993.0,4441.0,8.0,1,
37600,1859.0,14.9,107.0,248.4,993.0,4441.0,8.0,1,
37700,1857.5,13.4,106.9,239.8,993.0,4441.0,8.0,1,
37800,1863.7,17.1,106.8,235.9,993.0,4441.0,8.0,1,
37900,1863.8,100.3,110.1,208.8,1429.0,6307.0,9.0,1,
38000,1868.3,119.7,111.6,99.0,995.0,5123.0,9.0,1,
38100,1850.2,154.1,110.2,92.6,1037.0,4844.0,8.0,1,
38200,1883.6,120.4,115.3,153.9,884.0,4492.0,8.0,1,
38300,1854.4,171.3,112.2,99.1,942.0,4915.0,8.0,1,
38400,1868.8,103.4,114.3,68.9,1396.0,5972.0,28.0,0,
38600,1863.8,16.9,111.5,91.7,1396.0,5972.0,28.0,0,
38700,1858.4,19.9,111.5,198.7,1396.0,5972.0,28.0,0,
38800,1858.3,15.4,111.5,291.5,1396.0,5972.0,28.0,0,
38900,1859.5,14.2,111.5,270.5,1396.0,5972.0,28.0,0,
39000,1856.7,14.8,111.4,234.5,1396.0,5972.0,28.0,0,
39100,1862.7,18.6,111.5,229.7,1396.0,5972.0,28.0,0,
39200,1862.2,14.7,111.5,227.5,1396.0,5972.0,28.0,0,
39300,1862.6,17.3,111.5,226.6,1396.0,5972.0,28.0,0,
39400,1858.7,19.9,111.6,215.0,1396.0,5972.0,28.0,0,
39600,1865.0,141.2,105.0,74.6,1425.0,5529.0,28.0,0,
39700,1861.5,133.6,109.3,55.1,927.0,4697.0,9.0,1,
39800,1863.0,154.3,113.9,93.5,941.0,4659.0,9.0,1,
39900,1853.4,109.0,114.2,157.5,1015.0,4385.0,9.0,1,
40000,1865.7,196.5,114.0,67.9,995.0,5031.0,8.0,1,
40100,1857.9,34.6,120.7,70.6,1060.0,4990.0,9.0,1,
40200,1863.8,16.5,120.7,101.1,1060.0,4990.0,9.0,1,
40300,1860.2,18.9,120.7,39.2,1060.0,4990.0,9.0,1,
40400,1855.6,16.5,120.6,39.1,1060.0,4990.0,9.0,1,
40600,1863.2,16.8,120.7,262.0,1060.0,4990.0,9.0,1,
40700,1860.8,14.7,120.7,261.6,1060.0,4990.0,9.0,1,
40800,1864.6,18.6,120.6,249.3,1060.0,4990.0,9.0,1,
40900,1862.0,16.0,120.6,245.4,1060.0,4990.0,9.0,1,
41000,1858.3,20.3,120.6,244.2,1060.0,4990.0,9.0,1,
41100,1879.7,44.1,120.5,239.5,2008.0,8112.0,4.0,1,
41200,1853.8,43.8,120.0,103.8,2083.0,7896.0,3.0,1,
41300,1846.2,61.2,114.0,40.2,1659.0,6625.0,2.0,0,
41400,1867.2,64.3,106.1,45.4,1598.0,6558.0,3.0,1,
41600,1860.4,148.7,95.1,52.0,1051.0,4941.0,9.0,1,
41700,1864.5,49.7,90.3,93.6,1261.0,5839.0,9.0,1,
41800,1852.6,18.0,89.9,157.7,1261.0,5839.0,9.0,1,
41900,1859.2,17.7,89.8,220.7,1261.0,5839.0,9.0,1,
42000,1858.7,13.7,89.8,165.1,1261.0,5839.0,9.0,1,
42100,1859.6,16.2,89.7,145.3,1261.0,5839.0,9.0,1,
42200,1860.1,16.9,89.7,177.4,1261.0,5839.0,9.0,1,
42300,1857.0,15.7,89.7,210.9,1261.0,5839.0,9.0,1,
42400,1861.4,15.7,89.7,243.4,1261.0,5839.0,9.0,1,
42600,1853.5,16.3,89.6,226.9,1261.0,5839.0,9.0,1,
42700,1862.5,156.7,89.6,231.2,2097.0,8224.0,3.0,1,
42800,1860.2,108.8,96.5,205.1,1296.0,6298.0,2.0,0,
42900,1872.8,195.7,104.8,88.7,1083.0,5366.0,9.0,1,
43000,1838.6,129.4,119.2,93.4,1671.0,5596.0,28.0,0,
43100,1882.6,160.4,126.9,73.4,1074.0,5129.0,9.0,1,
43200,1842.7,155.2,126.5,38.7,1030.0,5961.0,9.0,1,
43300,1868.4,54.2,124.2,86.7,1122.0,5322.0,9.0,1,
43400,1867.0,15.8,123.3,70.9,1122.0,5322.0,9.0,1,
43600,1858.4,18.3,123.2,228.4,1122.0,5322.0,9.0,1,
43700,1856.4,15.0,123.3,254.4,1122.0,5322.0,9.0,1,
43800,1858.4,16.1,123.3,237.2,1122.0,5322.0,9.0,1,
43900,1860.0,15.1,123.3,251.8,1122.0,5322.0,9.0,1,
44000,1862.0,16.8,123.3,251.4,1122.0,5322.0,9.0,1,
44100,1860.8,14.3,123.3,244.4,1122.0,5322.0,9.0,1,
44200,1858.9,16.8,123.3,251.4,1122.0,5322.0,9.0,1,
44300,1865.0,58.2,123.3,259.6,1995.0,8187.0,3.0,1,
44400,1845.5,155.2,117.9,245.9,1278.0,6423.0,9.0,1,
44600,1857.2,223.2,113.0,87.9,1170.0,5438.0,2.0,0,
44700,1853.3,118.3,116.1,107.6,1526.0,7015.0,28.0,0,
44800,1885.1,179.6,118.1,104.9,1128.0,5536.0,9.0,1,
44900,1842.7,101.8,124.1,50.1,1241.0,5687.0,8.0,1,
45000,1867.0,18.2,124.7,69.0,1241.0,5687.0,8.0,1,
45100,1864.9,17.8,124.6,41.4,1241.0,5687.0,8.0,1,
45200,1860.7,19.4,124.7,38.8,1241.0,5687.0,8.0,1,
45300,1856.3,20.0,124.7,52.9,1241.0,5687.0,8.0,1,
45400,1858.1,15.5,124.7,195.7,1241.0,5687.0,8.0,1,
45600,1860.8,19.9,124.8,206.3,1241.0,5687.0,8.0,1,
45700,1857.6,15.2,124.7,237.6,1241.0,5687.0,8.0,1,
45800,1862.1,15.5,124.8,274.6,1241.0,5687.0,8.0,1,
45900,1859.5,32.7,124.8,263.9,1241.0,5687.0,8.0,1,
46000,1867.8,75.3,124.2,249.1,1878.0,8127.0,3.0,1,
46100,1851.5,153.3,121.0,102.3,1195.0,5183.0,9.0,1,
46200,1883.8,95.4,126.2,39.4,1076.0,5462.0,9.0,1,
46300,1832.7,185.7,120.4,50.1,1187.0,5347.0,8.0,1,
46400,1867.6,116.1,121.3,102.0,1504.0,6060.0,28.0,0,
46600,1857.4,27.9,117.5,45.6,1150.0,5229.0,8.0,1,
46700,1863.0,14.9,117.5,103.4,1150.0,5229.0,8.0,1,
46800,1859.6,18.9,117.5,84.9,1150.0,5229.0,8.0,1,
46900,1862.8,15.7,117.5,57.0,1150.0,5229.0,8.0,1,
47000,1863.9,17.4,117.5,115.4,1150.0,5229.0,8.0,1,
47100,1862.4,17.5,117.5,202.7,1150.0,5229.0,8.0,1,
47200,1857.7,14.6,117.5,210.8,1150.0,5229.0,8.0,1,
47300,1859.9,17.6,117.5,229.0,1150.0,5229.0,8.0,1,
47400,1859.0,15.4,117.5,226.6,1150.0,5229.0,8.0,1,
47600,1869.1,144.6,121.3,240.7,1780.0,7591.0,28.0,0,
47700,1859.4,181.1,126.7,80.3,1421.0,6006.0,2.0,0,
47800,1874.4,136.3,132.8,78.9,1081.0,5395.0,9.0,1,
47900,1859.2,136.5,133.4,89.9,1178.0,5502.0,9.0,1,
48000,1855.1,217.8,135.7,46.2,1123.0,6382.0,8.0,1,
48100,1872.4,121.1,141.4,84.4,1202.0,5405.0,9.0,1,
48200,1854.3,25.9,138.4,70.7,1097.0,5402.0,9.0,1,
48300,1863.6,17.4,138.5,44.7,1097.0,5402.0,9.0,1,
48400,1854.1,19.7,138.5,189.4,1097.0,5402.0,9.0,1,
48600,1859.3,15.4,138.6,237.3,1097.0,5402.0,9.0,1,
48700,1861.8,17.1,138.6,214.7,1097.0,5402.0,9.0,1,
48800,1860.7,14.3,138.6,237.7,1097.0,5402.0,9.0,1,
48900,1857.2,15.3,138.6,248.1,1097.0,5402.0,9.0,1,
49000,1858.6,16.8,138.5,231.3,1097.0,5402.0,9.0,1,
49100,1860.2,16.1,138.6,219.2,1097.0,5402.0,9.0,1,
49200,1857.0,28.6,136.8,233.7,2347.0,9125.0,3.0,1,
49300,1857.6,104.3,131.2,203.4,1569.0,6793.0,28.0,0,
49400,1868.8,124.4,124.8,100.2,1210.0,5698.0,2.0,0,
49600,1848.1,134.5,124.4,190.4,1199.0,5675.0,9.0,1,
49700,1871.6,156.3,118.2,91.4,1215.0,5429.0,9.0,1,
49800,1843.4,40.9,117.2,82.9,1276.0,6529.0,9.0,1,
49900,1863.4,17.9,117.5,70.0,1276.0,6529.0,9.0,1,
50000,1859.5,17.6,117.4,52.7,1276.0,6529.0,9.0,1,
50100,1857.7,15.1,117.4,91.6,1276.0,6529.0,9.0,1,
50200,1857.6,19.0,117.4,114.4,1276.0,6529.0,9.0,1,
50300,1860.8,14.3,117.4,239.5,1276.0,6529.0,9.0,1,
50400,1859.7,17.6,117.3,239.6,1276.0,6529.0,9.0,1,
50600,1860.0,18.7,117.4,227.0,1276.0,6529.0,9.0,1,
50700,1855.8,15.3,117.4,246.0,1276.0,6529.0,9.0,1,
50800,1864.0,37.9,117.4,246.5,1920.0,7620.0,4.0,1,
50900,1877.7,77.1,119.6,229.0,2046.0,8537.0,3.0,1,
51000,1839.4,128.4,117.7,78.9,1710.0,6778.0,28.0,0,
51100,1891.5,238.6,117.4,43.3,1398.0,6456.0,9.0,1,
51200,1839.3,156.2,125.9,90.8,1274.0,6684.0,9.0,1,
51300,1869.9,139.2,124.2,103.1,1257.0,5783.0,9.0,1,
51400,1863.4,77.1,122.3,47.1,1313.0,5926.0,9.0,1,
51600,1861.3,16.7,125.3,86.5,1313.0,5926.0,9.0,1,
51700,1861.0,18.8,125.3,49.5,1313.0,5926.0,9.0,1,
51800,1860.6,16.0,125.3,51.4,1313.0,5926.0,9.0,1,
51900,1859.7,18.4,125.3,201.2,1313.0,5926.0,9.0,1,
52000,1860.7,18.3,125.4,215.7,1313.0,5926.0,9.0,1,
52100,1858.5,17.8,125.4,234.6,1313.0,5926.0,9.0,1,
52200,1863.6,16.6,125.4,239.0,1313.0,5926.0,9.0,1,
52300,1857.7,18.4,125.4,240.3,1313.0,5926.0,9.0,1,
52400,1858.0,30.1,125.4,240.9,2099.0,8409.0,4.0,1,
52600,1857.4,72.5,123.7,67.0,1807.0,7422.0,3.0,1,
52700,1846.9,76.1,119.1,37.7,1644.0,7116.0,2.0,0,
52800,1882.9,73.9,104.1,45.9,1859.0,7817.0,3.0,1,
52900,1832.6,130.6,97.3,52.0,1360.0,6161.0,28.0,0,
53000,1886.2,91.0,98.2,44.4,1047.0,5663.0,9.0,1,
53100,1848.4,18.9,93.9,103.8,1047.0,5663.0,9.0,1,
53200,1863.0,14.9,93.9,220.5,1047.0,5663.0,9.0,1,
53300,1859.6,19.9,93.8,263.6,1047.0,5663.0,9.0,1,
53400,1862.9,19.4,93.8,261.1,1047.0,5663.0,9.0,1,
53600,1861.6,16.6,93.9,239.5,1047.0,5663.0,9.0,1,
53700,1865.7,13.2,93.9,217.7,1047.0,5663.0,9.0,1,
53800,1861.2,17.0,93.7,232.5,1047.0,5663.0,9.0,1,
53900,1861.9,17.3,93.8,238.6,1047.0,5663.0,9.0,1,
54000,1860.3,17.5,93.8,237.8,1047.0,5663.0,9.0,1,
54100,1851.1,134.4,94.2,216.8,1866.0,8036.0,3.0,1,
54200,1885.8,153.6,94.7,89.8,1905.0,7859.0,3.0,1,
54300,1835.8,111.2,101.3,36.9,1986.0,7487.0,3.0,1,
54400,1874.6,122.0,104.5,35.4,1419.0,6879.0,28.0,0,
54600,1849.5,115.0,117.3,91.3,1287.0,6167.0,28.0,0,
54700,1871.0,23.7,114.3,130.7,1242.0,5832.0,9.0,1,
54800,1864.9,16.9,114.3,87.7,1242.0,5832.0,9.0,1,
54900,1865.1,17.8,114.4,92.8,1242.0,5832.0,9.0,1,
55000,1857.6,17.9,114.4,154.6,1242.0,5832.0,9.0,1,
55100,1860.7,19.1,114.4,207.3,1242.0,5832.0,9.0,1,
55200,1860.4,18.4,114.4,261.7,1242.0,5832.0,9.0,1,
55300,1857.1,17.2,114.4,251.9,1242.0,5832.0,9.0,1,
55400,1864.4,16.2,114.4,231.3,1242.0,5832.0,9.0,1,
55600,1863.2,14.8,114.4,243.0,1242.0,5832.0,9.0,1,
55700,1870.2,69.2,118.3,215.1,1967.0,8386.0,3.0,1,
55800,1856.0,163.0,113.4,39.6,1960.0,8138.0,2.0,0,
55900,1863.0,73.7,111.6,35.5,2093.0,8710.0,4.0,1,
56000,1856.3,139.3,108.8,37.1,2205.0,7704.0,3.0,1,
56100,1885.8,126.8,108.5,52.1,1161.0,6173.0,10.0,1,
56200,1841.7,215.6,105.1,89.7,1285.0,5685.0,9.0,1,
56300,1859.8,34.6,112.5,189.8,1245.0,5305.0,9.0,1,
56400,1862.4,19.0,112.5,186.3,1245.0,5305.0,9.0,1,
56600,1859.8,14.8,112.5,39.7,1245.0,5305.0,9.0,1,
56700,1861.7,17.3,112.5,93.9,1245.0,5305.0,9.0,1,
56800,1859.6,15.7,112.4,212.4,1245.0,5305.0,9.0,1,
56900,1858.6,18.0,112.4,238.5,1245.0,5305.0,9.0,1,
57000,1860.4,16.4,112.4,240.7,1245.0,5305.0,9.0,1,
57100,1859.4,16.3,112.4,237.1,1245.0,5305.0,9.0,1,
57200,1862.1,18.2,112.4,235.2,1245.0,5305.0,9.0,1,
57300,1861.6,102.3,112.4,245.7,2517.0,9661.0,3.0,1,
57400,1875.6,72.1,117.9,67.3,2021.0,8534.0,3.0,1,
57600,1854.4,90.0,128.1,36.9,1904.0,7626.0,3.0,1,
57700,1867.5,157.1,125.2,47.0,1158.0,5593.0,9.0,1,
57800,1863.1,125.4,124.1,46.7,1169.0,6179.0,10.0,1,
57900,1855.1,40.4,119.6,82.0,1421.0,6223.0,2.0,0,
58000,1865.6,17.9,119.6,210.9,1421.0,6223.0,2.0,0,
58100,1863.1,18.6,119.5,250.7,1421.0,6223.0,2.0,0,
58200,1856.9,19.9,119.5,240.6,1421.0,6223.0,2.0,0,
58300,1860.7,17.3,119.6,225.9,1421.0,6223.0,2.0,0,
58400,1860.5,11.6,119.6,226.3,1421.0,6223.0,2.0,0,
58600,1862.8,15.4,119.5,217.1,1421.0,6223.0,2.0,0,
58700,1861.3,18.4,119.5,214.0,1421.0,6223.0,2.0,0,
58800,1860.2,16.9,119.6,215.1,1421.0,6223.0,2.0,0,
58900,1866.8,68.4,119.5,220.4,2011.0,8678.0,3.0,1,
59000,1840.1,118.3,114.8,190.3,1541.0,7425.0,2.0,0,
59100,1887.6,244.9,127.5,94.0,1376.0,7093.0,9.0,1,
59200,1846.9,111.3,133.1,156.5,1282.0,5834.0,28.0,0,
59300,1864.6,162.0,132.6,124.6,1576.0,5671.0,2.0,0,
59400,1867.2,185.6,140.3,42.1,1406.0,6671.0,28.0,0,
59600,1860.0,19.2,140.8,38.3,1406.0,6671.0,28.0,0,
59700,1863.1,18.9,140.8,91.1,1406.0,6671.0,28.0,0,
59800,1865.9,15.6,140.8,253.7,1406.0,6671.0,28.0,0,
59900,1858.5,18.4,140.8,284.6,1406.0,6671.0,28.0,0,
60000,1861.2,17.3,140.8,252.4,1406.0,6671.0,28.0,0,
60100,1857.5,16.0,140.8,272.0,1406.0,6671.0,28.0,0,
60200,1862.3,15.4,140.9,266.6,1406.0,6671.0,28.0,0,
60300,1863.5,15.7,140.9,265.7,1406.0,6671.0,28.0,0,
60400,1860.8,18.4,140.8,279.3,1406.0,6671.0,28.0,0,
60600,1852.5,113.1,142.1,78.7,1990.0,9130.0,3.0,1,
60700,1861.1,87.3,139.7,36.6,2216.0,9243.0,4.0,1,
60800,1877.7,60.8,119.6,37.8,2146.0,8738.0,3.0,1,
60900,1827.1,133.6,110.2,38.7,1988.0,8665.0,2.0,0,
61000,1888.2,82.6,104.7,37.4,2279.0,9757.0,3.0,1,
61100,1842.8,64.2,95.8,37.3,1979.0,8736.0,2.0,0,
61200,1864.6,18.9,92.5,35.1,1979.0,8736.0,2.0,0,
61300,1862.3,15.7,92.5,35.8,1979.0,8736.0,2.0,0,
61400,1858.8,14.1,92.5,67.1,1979.0,8736.0,2.0,0,
61600,1855.2,13.1,92.5,244.4,1979.0,8736.0,2.0,0,
61700,1862.2,15.7,92.5,241.8,1979.0,8736.0,2.0,0,
61800,1859.2,18.7,92.4,240.0,1979.0,8736.0,2.0,0,
61900,1861.3,18.5,92.5,216.6,1979.0,8736.0,2.0,0,
62000,1857.9,17.7,92.5,206.4,1979.0,8736.0,2.0,0,
62100,1862.1,69.9,92.5,213.2,1979.0,8736.0,2.0,0,
62200,1878.5,47.0,86.5,198.9,2261.0,9976.0,3.0,1,
62300,1824.7,131.9,81.4,70.1,1616.0,7667.0,9.0,1,
62400,1894.6,110.0,88.9,67.7,1556.0,7859.0,9.0,1,
62600,1854.6,112.0,106.8,202.3,1954.0,8268.0,28.0,0,
62700,1887.6,191.7,114.7,135.1,1591.0,7009.0,9.0,1,
62800,1841.8,27.7,124.9,84.1,1591.0,7009.0,9.0,1,
62900,1861.9,16.0,124.9,150.0,1591.0,7009.0,9.0,1,
63000,1857.5,15.9,125.0,89.3,1591.0,7009.0,9.0,1,
63100,1862.4,16.9,125.0,51.8,1591.0,7009.0,9.0,1,
63200,1862.8,17.1,124.9,134.9,1591.0,7009.0,9.0,1,
63300,1862.1,17.9,125.0,261.9,1591.0,7009.0,9.0,1,
63400,1860.4,17.7,125.0,228.7,1591.0,7009.0,9.0,1,
63600,1860.6,18.7,125.0,243.9,1591.0,7009.0,9.0,1,
63700,1856.0,18.2,125.0,252.3,1591.0,7009.0,9.0,1,
63800,1859.8,32.9,124.3,231.2,2085.0,9666.0,3.0,1,
63900,1869.7,64.0,124.6,195.1,2305.0,9786.0,3.0,1,
64000,1849.3,124.7,120.5,101.0,2400.0,9809.0,3.0,1,
64100,1891.5,120.6,117.7,84.8,1475.0,7045.0,9.0,1,
64200,1827.4,225.7,112.2,153.6,1519.0,7276.0,9.0,1,
64300,1877.6,110.2,117.2,230.4,1541.0,7790.0,9.0,1,
64400,1863.0,21.7,109.7,194.9,1513.0,7478.0,9.0,1,
64600,1859.7,17.3,109.7,189.6,1513.0,7478.0,9.0,1,
64700,1858.9,18.3,109.7,292.3,1513.0,7478.0,9.0,1,
64800,1858.7,17.7,109.7,266.1,1513.0,7478.0,9.0,1,
64900,1859.6,18.3,109.7,267.0,1513.0,7478.0,9.0,1,
65000,1859.1,19.1,109.7,259.8,1513.0,7478.0,9.0,1,
65100,1860.5,17.8,109.7,252.1,1513.0,7478.0,9.0,1,
65200,1861.3,15.5,109.8,261.9,1513.0,7478.0,9.0,1,
65300,1861.6,14.5,109.8,263.9,1513.0,7478.0,9.0,1,
65400,1854.2,82.3,111.5,221.5,2139.0,9409.0,3.0,1,
65600,1841.6,124.0,122.8,39.2,1838.0,7734.0,2.0,0,
65700,1872.0,206.0,133.5,78.6,1567.0,6924.0,9.0,1,
65800,1855.6,90.6,133.3,183.3,1563.0,7786.0,2.0,0,
65900,1857.6,237.1,126.8,94.2,1558.0,7681.0,9.0,1,
66000,1856.0,38.9,137.9,82.4,1445.0,6986.0,9.0,1,
66100,1865.7,17.5,137.9,99.9,1445.0,6986.0,9.0,1,
66200,1861.7,15.7,137.8,38.0,1445.0,6986.0,9.0,1,
66300,1857.6,17.8,137.8,37.3,1445.0,6986.0,9.0,1,
66400,1863.1,18.5,137.8,74.3,1445.0,6986.0,9.0,1,
66600,1857.6,13.5,137.9,231.3,1445.0,6986.0,9.0,1,
66700,1860.3,13.6,137.8,248.5,1445.0,6986.0,9.0,1,
66800,1864.2,17.0,137.8,233.9,1445.0,6986.0,9.0,1,
66900,1861.1,16.0,137.8,242.1,1445.0,6986.0,9.0,1,
67000,1866.3,97.9,137.5,259.1,2149.0,9450.0,4.0,1,
67100,1869.0,39.0,138.3,188.6,2393.0,10485.0,3.0,1,
67200,1848.3,86.9,130.9,56.0,2256.0,10672.0,3.0,1,
67300,1863.4,72.6,130.3,47.4,2378.0,10201.0,3.0,1,
67400,1870.4,72.4,112.3,50.9,2344.0,10047.0,2.0,0,
67600,1865.7,29.8,75.9,48.2,2478.0,9853.0,3.0,1,
67700,1852.0,16.2,75.4,76.8,2478.0,9853.0,3.0,1,
67800,1860.5,14.3,75.3,76.1,2478.0,9853.0,3.0,1,
67900,1863.4,15.7,75.4,67.8,2478.0,9853.0,3.0,1,
68000,1859.2,16.0,75.3,158.5,2478.0,9853.0,3.0,1,
68100,1862.9,18.4,75.2,235.1,2478.0,9853.0,3.0,1,
68200,1856.5,18.0,75.3,238.0,2478.0,9853.0,3.0,1,
68300,1858.7,16.3,75.4,270.6,2478.0,9853.0,3.0,1,
68400,1860.7,15.3,75.5,262.3,2478.0,9853.0,3.0,1,
68600,1860.9,167.0,75.4,233.7,1635.0,6689.0,2.0,0,
68700,1862.4,90.4,84.7,154.3,1968.0,8850.0,10.0,1,
68800,1878.0,203.5,100.9,92.7,1816.0,8313.0,9.0,1,
68900,1822.9,125.1,107.6,155.3,1701.0,8806.0,9.0,1,
69000,1889.4,229.8,116.1,164.1,1907.0,8080.0,2.0,0,
69100,1845.6,158.5,128.4,87.4,1955.0,8721.0,28.0,0,
69200,1876.8,58.5,136.7,133.3,1671.0,8437.0,2.0,0,
69300,1860.6,14.4,139.1,87.6,1671.0,8437.0,2.0,0,
69400,1860.0,18.2,139.1,166.0,1671.0,8437.0,2.0,0,
69600,1859.6,14.7,139.1,260.8,1671.0,8437.0,2.0,0,
69700,1857.5,17.5,139.1,217.4,1671.0,8437.0,2.0,0,
69800,1860.8,17.3,139.1,231.2,1671.0,8437.0,2.0,0,
69900,1858.0,15.3,139.1,244.6,1671.0,8437.0,2.0,0,
70000,1860.5,12.7,139.1,245.8,1671.0,8437.0,2.0,0,
70100,1861.3,15.7,139.0,250.5,1671.0,8437.0,2.0,0,
70200,1856.9,37.9,139.0,252.8,1968.0,8838.0,3.0,1,
70300,1829.2,151.4,134.0,189.9,1985.0,9109.0,9.0,1,
70400,1902.2,129.2,134.0,70.3,1933.0,8561.0,2.0,0,
70600,1862.5,107.3,135.6,134.9,1649.0,8300.0,9.0,1,
70700,1872.7,228.0,136.0,91.6,1705.0,7973.0,9.0,1,
70800,1840.8,98.3,141.8,91.8,1680.0,8364.0,9.0,1,
70900,1873.1,21.7,142.9,102.2,1680.0,8364.0,9.0,1,
71000,1859.7,20.2,142.9,72.6,1680.0,8364.0,9.0,1,
71100,1856.5,17.4,142.9,131.2,1680.0,8364.0,9.0,1,
71200,1861.7,16.3,142.9,260.1,1680.0,8364.0,9.0,1,
71300,1860.3,19.6,143.0,234.0,1680.0,8364.0,9.0,1,
71400,1859.6,18.1,143.0,210.5,1680.0,8364.0,9.0,1,
71600,1856.7,18.6,143.0,232.8,1680.0,8364.0,9.0,1,
71700,1862.7,17.5,143.1,245.3,1680.0,8364.0,9.0,1,
71800,1859.8,90.0,143.1,266.2,1680.0,8364.0,9.0,1,
71900,1858.2,52.5,144.7,226.4,1921.0,9672.0,3.0,1,
72000,1848.1,130.6,140.6,65.9,2127.0,9994.0,28.0,0,
72100,1887.8,201.2,141.4,67.3,1381.0,7251.0,9.0,1,
72200,1816.6,164.7,144.9,155.5,1672.0,8435.0,9.0,1,
72300,1891.4,153.5,142.7,195.6,1779.0,8498.0,9.0,1,
72400,1842.2,180.8,140.7,93.4,1761.0,7672.0,9.0,1,
72600,1859.4,16.8,141.3,88.8,1761.0,7672.0,9.0,1,
72700,1861.2,14.0,141.2,38.1,1761.0,7672.0,9.0,1,
72800,1856.8,18.0,141.3,37.9,1761.0,7672.0,9.0,1,
72900,1857.5,20.1,141.2,147.3,1761.0,7672.0,9.0,1,
73000,1859.6,15.7,141.3,233.4,1761.0,7672.0,9.0,1,
73100,1856.1,16.3,141.3,238.7,1761.0,7672.0,9.0,1,
73200,1862.1,16.0,141.2,242.2,1761.0,7672.0,9.0,1,
73300,1859.7,16.5,141.2,239.1,1761.0,7672.0,9.0,1,
73400,1860.0,17.0,141.2,238.2,1761.0,7672.0,9.0,1,
73600,1823.6,54.2,141.6,87.8,2516.0,11402.0,3.0,1,
73700,1891.1,134.7,131.7,36.3,2236.0,10731.0,4.0,1,
73800,1858.2,60.0,116.3,35.5,2254.0,10176.0,3.0,1,
73900,1848.8,130.8,111.8,45.6,1899.0,9139.0,28.0,0,
74000,1879.8,191.1,110.1,76.0,1700.0,8375.0,10.0,1,
74100,1841.5,40.6,108.0,152.3,1682.0,7601.0,9.0,1,
74200,1862.5,17.7,108.0,217.1,1682.0,7601.0,9.0,1,
74300,1856.9,14.5,107.9,132.5,1682.0,7601.0,9.0,1,
74400,1863.0,17.0,108.0,72.6,1682.0,7601.0,9.0,1,
74600,1858.5,19.5,107.9,220.9,1682.0,7601.0,9.0,1,
74700,1860.9,20.4,107.9,226.6,1682.0,7601.0,9.0,1,
74800,1859.7,15.5,108.0,219.0,1682.0,7601.0,9.0,1,
74900,1856.8,14.9,108.0,216.7,1682.0,7601.0,9.0,1,
75000,1862.1,17.1,108.0,209.7,1682.0,7601.0,9.0,1,
75100,1863.1,83.6,108.2,230.9,2042.0,9844.0,3.0,1,
75200,1869.6,66.3,104.6,203.7,2272.0,10108.0,3.0,1,
75300,1844.3,163.6,104.5,94.6,2215.0,11549.0,3.0,1,
75400,1885.5,139.6,114.3,87.6,1911.0,8726.0,2.0,0,
75600,1881.2,118.8,133.3,194.6,1675.0,8383.0,9.0,1,
75700,1855.1,39.8,129.6,130.2,1788.0,8363.0,2.0,0,
75800,1859.6,18.2,129.3,70.6,1788.0,8363.0,2.0,0,
75900,1859.7,15.7,129.3,168.6,1788.0,8363.0,2.0,0,
76000,1859.8,18.1,129.3,244.2,1788.0,8363.0,2.0,0,
76100,1857.3,20.0,129.3,225.8,1788.0,8363.0,2.0,0,
76200,1862.0,17.9,129.3,233.8,1788.0,8363.0,2.0,0,
76300,1862.3,16.0,129.4,239.4,1788.0,8363.0,2.0,0,
76400,1860.5,14.5,129.3,228.6,1788.0,8363.0,2.0,0,
76600,1857.1,19.6,129.3,211.5,1788.0,8363.0,2.0,0,
76700,1866.2,53.9,129.3,189.9,1888.0,8214.0,4.0,1,
76800,1866.2,112.3,128.1,197.2,2179.0,11242.0,4.0,1,
76900,1836.3,76.9,132.6,82.0,2398.0,10721.0,3.0,1,
77000,1872.4,136.2,126.5,44.7,2334.0,10654.0,2.0,0,
77100,1865.4,83.7,117.2,43.2,2340.0,10561.0,3.0,1,
77200,1845.5,171.7,94.8,51.3,2411.0,10487.0,3.0,1,
77300,1882.5,43.3,84.7,45.2,2167.0,10331.0,4.0,1,
77400,1850.8,17.7,83.5,36.1,2167.0,10331.0,4.0,1,
77600,1858.1,18.9,83.5,66.2,2167.0,10331.0,4.0,1,
77700,1857.9,19.9,83.6,86.5,2167.0,10331.0,4.0,1,
77800,1859.0,15.1,83.6,194.4,2167.0,10331.0,4.0,1,
77900,1862.4,17.2,83.5,238.3,2167.0,10331.0,4.0,1,
78000,1861.0,16.6,83.6,240.4,2167.0,10331.0,4.0,1,
78100,1862.7,16.3,83.6,247.5,2167.0,10331.0,4.0,1,
78200,1861.5,16.3,83.6,246.6,2167.0,10331.0,4.0,1,
78300,1857.8,43.2,83.5,240.3,2011.0,8661.0,4.0,1,
78400,1856.3,48.1,84.1,239.9,2269.0,10896.0,3.0,1,
78600,1862.6,63.3,87.1,67.1,2362.0,10138.0,3.0,1,
78700,1863.7,189.3,85.2,38.4,2157.0,10030.0,3.0,1,
78800,1845.2,86.8,102.7,34.8,2278.0,9861.0,3.0,1,
78900,1868.3,94.1,98.7,36.2,1644.0,7750.0,9.0,1,
79000,1850.3,23.2,102.8,40.0,1644.0,7750.0,9.0,1,
79100,1860.8,17.2,102.8,42.8,1644.0,7750.0,9.0,1,
79200,1857.0,17.8,102.8,41.9,1644.0,7750.0,9.0,1,
79300,1856.4,18.1,102.8,42.8,1644.0,7750.0,9.0,1,
79400,1858.3,17.9,102.8,212.5,1644.0,7750.0,9.0,1,
79600,1862.6,18.8,102.8,231.1,1644.0,7750.0,9.0,1,
79700,1858.3,17.2,102.8,236.2,1644.0,7750.0,9.0,1,
79800,1862.8,16.9,102.8,254.6,1644.0,7750.0,9.0,1,
79900,1861.0,63.1,102.8,268.8,1644.0,7750.0,9.0,1,
80000,1867.9,99.0,103.7,230.8,1862.0,9133.0,3.0,1,
80100,1869.8,82.7,109.5,47.0,2377.0,10753.0,3.0,1,
80200,1832.6,117.6,106.2,35.3,1687.0,8212.0,9.0,1,
80300,1884.5,246.8,117.7,43.2,1601.0,7697.0,9.0,1,
80400,1840.7,129.2,125.4,195.7,1909.0,8702.0,28.0,0,
80600,1855.3,31.0,139.0,91.9,1653.0,7520.0,9.0,1,
80700,1863.0,13.3,139.0,132.6,1653.0,7520.0,9.0,1,
80800,1859.3,17.9,139.0,93.8,1653.0,7520.0,9.0,1,
80900,1856.2,18.3,139.0,49.5,1653.0,7520.0,9.0,1,
81000,1862.7,14.3,139.0,125.5,1653.0,7520.0,9.0,1,
81100,1861.9,16.5,138.9,240.2,1653.0,7520.0,9.0,1,
81200,1862.8,15.8,139.0,241.0,1653.0,7520.0,9.0,1,
81300,1861.1,18.3,138.9,240.7,1653.0,7520.0,9.0,1,
81400,1863.6,17.9,138.9,239.7,1653.0,7520.0,9.0,1,
81600,1847.1,157.7,141.3,219.6,1853.0,8758.0,28.0,0,
81700,1893.8,140.8,146.1,104.4,1948.0,8550.0,2.0,0,
81800,1845.9,217.9,158.7,103.9,1642.0,8376.0,9.0,1,
81900,1861.4,95.0,159.8,195.3,1656.0,8039.0,10.0,1,
82000,1876.6,207.7,155.5,101.8,1696.0,8269.0,9.0,1,
82100,1835.3,128.7,158.1,76.6,1584.0,8098.0,9.0,1,
82200,1880.2,25.2,149.2,155.9,1649.0,8052.0,10.0,1,
82300,1862.8,18.2,149.2,100.9,1649.0,8052.0,10.0,1,
82400,1860.1,17.9,149.3,188.9,1649.0,8052.0,10.0,1,
82600,1858.4,17.9,149.2,242.4,1649.0,8052.0,10.0,1,
82700,1861.3,14.7,149.3,240.3,1649.0,8052.0,10.0,1,
82800,1859.4,13.5,149.3,240.8,1649.0,8052.0,10.0,1,
82900,1860.8,19.4,149.3,241.0,1649.0,8052.0,10.0,1,
83000,1858.0,14.1,149.3,230.0,1649.0,8052.0,10.0,1,
83100,1860.3,13.9,149.2,221.2,1649.0,8052.0,10.0,1,
83200,1855.2,52.9,149.3,237.9,2203.0,9483.0,3.0,1,
83300,1850.1,85.0,139.2,165.5,2025.0,9644.0,3.0,1,
83400,1896.7,72.8,130.7,75.9,2390.0,9638.0,3.0,1,
83600,1892.2,79.5,110.3,47.2,2243.0,9479.0,3.0,1,
83700,1847.5,171.5,93.7,37.9,2286.0,10074.0,3.0,1,
83800,1855.8,34.1,90.7,37.6,1441.0,7353.0,10.0,1,
83900,1868.2,14.2,90.7,48.4,1441.0,7353.0,10.0,1,
84000,1863.1,13.1,90.6,100.3,1441.0,7353.0,10.0,1,
84100,1859.5,17.3,90.6,98.9,1441.0,7353.0,10.0,1,
84200,1858.2,18.0,90.5,132.7,1441.0,7353.0,10.0,1,
84300,1861.6,18.2,90.6,238.0,1441.0,7353.0,10.0,1,
84400,1858.0,18.0,90.5,253.2,1441.0,7353.0,10.0,1,
84600,1858.3,15.8,90.6,231.9,1441.0,7353.0,10.0,1,
84700,1859.5,16.7,90.6,237.7,1441.0,7353.0,10.0,1,
84800,1876.4,53.4,90.6,239.5,1886.0,8849.0,4.0,1,
84900,1822.7,50.0,91.8,153.2,1695.0,8889.0,3.0,1,
85000,1877.9,95.7,96.3,98.8,2453.0,10168.0,3.0,1,
85100,1868.0,57.7,97.3,73.3,2354.0,9732.0,3.0,1,
85200,1843.9,174.3,85.4,48.7,2261.0,9485.0,2.0,0,
85300,1896.0,70.3,95.6,44.9,2217.0,9489.0,3.0,1,
85400,1823.8,37.6,86.7,44.2,2208.0,9407.0,3.0,1,
85600,1856.8,14.9,86.7,55.1,2208.0,9407.0,3.0,1,
85700,1861.9,15.4,86.7,70.9,2208.0,9407.0,3.0,1,
85800,1862.7,14.4,86.7,143.0,2208.0,9407.0,3.0,1,
85900,1861.3,15.8,86.6,240.7,2208.0,9407.0,3.0,1,
86000,1864.2,17.4,86.6,242.3,2208.0,9407.0,3.0,1,
86100,1860.7,17.7,86.6,240.7,2208.0,9407.0,3.0,1,
86200,1858.9,20.5,86.7,238.5,2208.0,9407.0,3.0,1,
86300,1860.5,18.6,86.7,237.4,2208.0,9407.0,3.0,1,
86400,1862.8,54.2,86.8,229.0,2238.0,9459.0,4.0,1,
86600,1855.9,59.2,85.0,87.8,2289.0,9872.0,3.0,1,
86700,1876.0,94.9,82.9,66.9,2186.0,8782.0,4.0,1,
86800,1838.6,66.7,86.3,45.3,2173.0,9445.0,3.0,1,
86900,1867.5,89.0,72.3,37.6,2025.0,9063.0,3.0,1,
87000,1871.7,53.1,76.6,37.8,2270.0,9214.0,3.0,1,
87100,1860.5,18.7,76.5,39.5,2270.0,9214.0,3.0,1,
87200,1863.2,16.5,76.5,41.1,2270.0,9214.0,3.0,1,
87300,1861.5,17.2,76.5,51.5,2270.0,9214.0,3.0,1,
87400,1860.8,17.5,76.5,89.1,2270.0,9214.0,3.0,1,
87600,1861.8,16.5,76.6,206.6,2270.0,9214.0,3.0,1,
87700,1860.3,14.9,76.6,239.5,2270.0,9214.0,3.0,1,
87800,1864.5,16.3,76.5,240.0,2270.0,9214.0,3.0,1,
87900,1862.7,18.6,76.4,211.5,2270.0,9214.0,3.0,1,
88000,1860.3,36.7,76.4,196.5,2270.0,9214.0,3.0,1,
88100,1860.7,127.6,76.5,183.3,1817.0,8523.0,2.0,0,
88200,1854.7,86.2,84.2,94.6,2297.0,9298.0,3.0,1,
88300,1875.8,168.4,78.0,65.5,2227.0,10412.0,3.0,1,
88400,1856.7,106.4,83.1,39.8,1680.0,7281.0,2.0,0,
88600,1872.2,136.7,121.4,171.5,1609.0,7452.0,2.0,0,
88700,1856.0,27.4,127.4,153.8,1609.0,7452.0,2.0,0,
88800,1859.7,18.3,127.4,94.4,1609.0,7452.0,2.0,0,
88900,1862.4,18.8,127.4,156.3,1609.0,7452.0,2.0,0,
89000,1858.5,16.2,127.5,187.1,1609.0,7452.0,2.0,0,
89100,1860.3,17.4,127.5,208.9,1609.0,7452.0,2.0,0,
89200,1856.0,15.2,127.5,245.3,1609.0,7452.0,2.0,0,
89300,1861.4,15.9,127.4,250.6,1609.0,7452.0,2.0,0,
89400,1862.9,17.7,127.5,269.8,1609.0,7452.0,2.0,0,
89600,1858.7,22.0,127.5,229.0,1609.0,7452.0,2.0,0,
89700,1859.6,39.2,127.6,238.5,2061.0,8860.0,3.0,1,
89800,1848.0,176.0,121.6,158.2,2293.0,9183.0,3.0,1,
89900,1876.1,89.4,126.9,67.4,2319.0,8993.0,3.0,1,
90000,1865.9,138.2,122.4,55.5,2118.0,8841.0,2.0,0,
90100,1844.7,143.2,113.5,50.6,2255.0,9174.0,3.0,1,
90200,1865.1,70.3,92.2,43.6,2181.0,9114.0,3.0,1,
90300,1847.3,20.2,80.2,44.0,2070.0,8919.0,3.0,1,
90400,1857.3,16.9,80.2,53.6,2070.0,8919.0,3.0,1,
90600,1861.2,18.4,80.1,91.4,2070.0,8919.0,3.0,1,
90700,1855.4,16.8,80.2,144.6,2070.0,8919.0,3.0,1,
90800,1859.9,15.1,80.2,212.9,2070.0,8919.0,3.0,1,
90900,1862.5,18.6,80.3,240.9,2070.0,8919.0,3.0,1,
91000,1859.0,16.3,80.3,244.5,2070.0,8919.0,3.0,1,
91100,1858.1,15.0,80.2,259.0,2070.0,8919.0,3.0,1,
91200,1862.6,16.0,80.1,252.9,2070.0,8919.0,3.0,1,
91300,1855.4,71.7,86.3,237.8,2249.0,9611.0,4.0,1,
91400,1890.0,50.8,87.6,48.8,2297.0,9235.0,3.0,1,
91600,1888.6,58.1,77.3,36.9,2449.0,9587.0,3.0,1,
91700,1844.3,152.5,70.1,37.9,1405.0,6918.0,10.0,1,
91800,1872.6,116.7,83.6,65.5,1576.0,6969.0,2.0,0,
91900,1850.3,41.6,108.9,140.3,1454.0,6704.0,9.0,1,
92000,1867.6,21.1,108.9,217.0,1454.0,6704.0,9.0,1,
92100,1861.8,16.6,108.9,164.0,1454.0,6704.0,9.0,1,
92200,1858.8,18.1,108.9,94.5,1454.0,6704.0,9.0,1,
92300,1859.0,18.5,108.9,73.9,1454.0,6704.0,9.0,1,
92400,1860.9,16.3,108.9,240.6,1454.0,6704.0,9.0,1,
92600,1858.1,16.1,108.9,239.2,1454.0,6704.0,9.0,1,
92700,1859.9,14.8,108.8,240.0,1454.0,6704.0,9.0,1,
92800,1862.9,16.7,108.8,240.1,1454.0,6704.0,9.0,1,
92900,1867.8,82.0,106.4,244.4,2206.0,9405.0,4.0,1,
93000,1863.6,122.1,104.7,229.4,2450.0,10300.0,4.0,1,
93100,1857.3,62.4,107.3,93.0,2434.0,9992.0,3.0,1,
93200,1850.2,156.3,112.7,66.5,2286.0,10341.0,3.0,1,
93300,1890.6,59.7,116.3,37.8,2366.0,9786.0,3.0,1,
93400,1824.5,59.4,104.0,36.2,2116.0,9360.0,2.0,0,
93600,1853.8,21.7,77.3,34.8,2116.0,9360.0,2.0,0,
93700,1859.6,16.9,77.2,68.4,2116.0,9360.0,2.0,0,
93800,1862.0,16.3,77.2,65.5,2116.0,9360.0,2.0,0,
93900,1860.4,17.0,77.2,132.3,2116.0,9360.0,2.0,0,
94000,1861.4,16.5,77.2,238.1,2116.0,9360.0,2.0,0,
94100,1855.4,17.0,77.2,239.3,2116.0,9360.0,2.0,0,
94200,1859.7,19.3,77.3,240.8,2116.0,9360.0,2.0,0,
94300,1862.0,19.7,77.3,242.5,2116.0,9360.0,2.0,0,
94400,1860.6,19.3,77.4,239.3,2116.0,9360.0,2.0,0,
94600,1844.6,123.5,75.4,215.5,2134.0,10082.0,4.0,1,
94700,1891.4,110.3,75.9,102.3,2466.0,9840.0,3.0,1,
94800,1820.9,58.3,75.6,81.0,2324.0,9614.0,3.0,1,
94900,1877.2,164.5,66.2,66.2,2327.0,9452.0,4.0,1,
95000,1860.7,60.4,73.3,47.1,2314.0,9706.0,3.0,1,
95100,1844.4,58.0,74.3,67.2,2246.0,9732.0,3.0,1,
95200,1872.4,18.6,75.0,45.5,2246.0,9732.0,3.0,1,
95300,1857.3,18.3,75.0,65.6,2246.0,9732.0,3.0,1,
95400,1856.7,18.1,75.0,66.1,2246.0,9732.0,3.0,1,
95600,1860.1,19.4,75.1,247.1,2246.0,9732.0,3.0,1,
95700,1858.3,17.2,75.2,245.0,2246.0,9732.0,3.0,1,
95800,1861.5,16.2,75.1,226.4,2246.0,9732.0,3.0,1,
95900,1861.7,16.8,75.1,235.1,2246.0,9732.0,3.0,1,
96000,1860.3,17.8,75.0,269.4,2246.0,9732.0,3.0,1,
96100,1859.6,144.5,74.9,260.5,2266.0,9271.0,3.0,1,
96200,1856.6,50.5,90.4,101.2,2110.0,9149.0,3.0,1,
96300,1860.5,198.7,87.1,30.2,2308.0,9504.0,3.0,1,
96400,1871.4,61.2,93.4,34.7,2349.0,9189.0,3.0,1,
96600,1886.1,66.1,87.7,40.9,2161.0,9058.0,4.0,1,
96700,1833.1,54.3,88.3,48.9,2079.0,8975.0,3.0,1,
96800,1871.8,18.8,85.8,84.0,2079.0,8975.0,3.0,1,
96900,1864.1,17.9,85.7,67.3,2079.0,8975.0,3.0,1,
97000,1858.0,14.8,85.8,75.3,2079.0,8975.0,3.0,1,
97100,1863.0,13.5,85.7,99.5,2079.0,8975.0,3.0,1,
97200,1863.2,15.5,85.5,226.6,2079.0,8975.0,3.0,1,
97300,1860.6,16.5,85.5,237.8,2079.0,8975.0,3.0,1,
97400,1860.0,16.5,85.5,232.4,2079.0,8975.0,3.0,1,
97600,1859.3,17.9,85.5,208.4,2079.0,8975.0,3.0,1,
97700,1861.1,12.6,85.4,240.0,2079.0,8975.0,3.0,1,
97800,1860.3,118.0,75.1,249.8,2064.0,8884.0,3.0,1,
97900,1871.8,68.1,84.5,100.5,2318.0,8908.0,3.0,1,
98000,1867.8,89.7,72.5,79.8,2095.0,8460.0,3.0,1,
98100,1851.9,43.4,73.4,52.2,2166.0,8536.0,3.0,1,
98200,1859.1,103.8,71.6,50.3,2154.0,8415.0,3.0,1,
98300,1862.1,84.6,72.5,52.6,2088.0,7626.0,3.0,1,
98400,1864.2,21.0,78.6,38.7,2269.0,8486.0,3.0,1,
98600,1860.4,17.2,78.5,36.5,2269.0,8486.0,3.0,1,
98700,1859.3,18.5,78.6,39.1,2269.0,8486.0,3.0,1,
98800,1862.1,16.6,78.7,171.7,2269.0,8486.0,3.0,1,
98900,1860.0,16.7,78.7,208.4,2269.0,8486.0,3.0,1,
99000,1857.1,15.8,78.7,215.1,2269.0,8486.0,3.0,1,
99100,1861.3,16.0,78.8,229.9,2269.0,8486.0,3.0,1,
99200,1859.8,17.2,78.8,239.5,2269.0,8486.0,3.0,1,
99300,1862.6,20.0,78.8,239.8,2269.0,8486.0,3.0,1,
99400,1865.9,68.4,79.1,237.5,2093.0,8922.0,4.0,1,
99600,1885.0,59.2,78.4,42.0,2358.0,8701.0,3.0,1,
99700,1849.6,217.8,76.1,36.7,2217.0,8373.0,3.0,1,
99800,1870.2,61.8,91.0,29.0,2131.0,8480.0,3.0,1,
99900,1860.8,118.6,89.1,28.1,1998.0,8472.0,3.0,1,
100000,1854.4,37.0,93.7,28.2,2070.0,8339.0,3.0,1,
100100,1861.4,18.5,93.8,36.8,2070.0,8339.0,3.0,1,
100200,1859.7,20.9,93.8,37.0,2070.0,8339.0,3.0,1,
100300,1861.2,19.4,93.9,36.2,2070.0,8339.0,3.0,1,
100400,1858.2,17.6,93.9,67.2,2070.0,8339.0,3.0,1,
100600,1860.4,19.5,93.9,230.2,2070.0,8339.0,3.0,1,
100700,1859.8,18.1,94.0,217.9,2070.0,8339.0,3.0,1,
100800,1862.1,16.3,93.9,214.0,2070.0,8339.0,3.0,1,
100900,1859.4,18.4,93.9,217.6,2070.0,8339.0,3.0,1,
101000,1868.3,78.5,94.0,239.6,2058.0,8614.0,3.0,1,
101100,1848.5,89.3,95.8,141.8,2231.0,8676.0,3.0,1,
101200,1857.7,199.1,94.4,35.7,2390.0,9004.0,4.0,1,
101300,1891.8,102.2,106.2,30.2,2280.0,9411.0,3.0,1,
101400,1825.7,79.6,104.3,28.8,2177.0,8562.0,4.0,1,
101600,1841.2,40.0,101.6,30.2,2175.0,8393.0,3.0,1,
101700,1861.3,17.6,101.7,39.3,2175.0,8393.0,3.0,1,
101800,1860.6,18.3,101.7,48.4,2175.0,8393.0,3.0,1,
101900,1855.7,17.7,101.7,65.9,2175.0,8393.0,3.0,1,
102000,1856.3,19.6,101.7,109.7,2175.0,8393.0,3.0,1,
102100,1858.2,15.8,101.6,246.0,2175.0,8393.0,3.0,1,
102200,1862.8,20.6,101.6,260.7,2175.0,8393.0,3.0,1,
102300,1861.4,15.9,101.6,219.5,2175.0,8393.0,3.0,1,
102400,1860.3,16.8,101.6,216.1,2175.0,8393.0,3.0,1,
102600,1861.3,142.5,101.5,238.2,2410.0,9792.0,4.0,1,
102700,1889.0,120.0,113.5,157.0,1996.0,6832.0,2.0,0,
102800,1822.6,253.3,130.8,144.9,1475.0,6588.0,2.0,0,
102900,1877.2,132.8,137.7,225.8,1671.0,6534.0,2.0,0,
103000,1861.1,280.4,148.7,163.5,1600.0,6937.0,2.0,0,
103100,1852.7,131.2,165.5,123.2,1894.0,7165.0,28.0,0,
103200,1888.1,52.9,176.0,155.6,1621.0,6531.0,2.0,0,
103300,1850.5,21.0,176.0,101.0,1621.0,6531.0,2.0,0,
103400,1859.9,15.5,176.1,197.7,1621.0,6531.0,2.0,0,
103600,1856.4,22.3,176.1,237.7,1621.0,6531.0,2.0,0,
103700,1859.9,16.3,176.1,206.6,1621.0,6531.0,2.0,0,
103800,1859.3,19.9,176.1,205.9,1621.0,6531.0,2.0,0,
103900,1856.9,18.4,176.1,207.9,1621.0,6531.0,2.0,0,
104000,1858.0,20.3,176.2,236.6,1621.0,6531.0,2.0,0,
104100,1861.1,19.4,176.2,237.1,1621.0,6531.0,2.0,0,
104200,1860.5,36.8,176.2,241.2,2183.0,9228.0,4.0,1,
104300,1856.6,133.6,173.0,233.8,1906.0,7496.0,28.0,0,
104400,1870.1,231.4,171.3,112.9,2277.0,7635.0,2.0,0,
104600,1905.0,157.4,169.5,226.0,1824.0,6565.0,2.0,0,
104700,1814.8,247.3,173.0,134.0,1327.0,5635.0,2.0,0,
104800,1881.9,77.1,176.4,133.7,1670.0,6448.0,2.0,0,
104900,1866.7,21.5,175.0,130.2,1670.0,6448.0,2.0,0,
105000,1858.8,18.5,175.1,99.0,1670.0,6448.0,2.0,0,
105100,1859.6,17.3,175.0,217.1,1670.0,6448.0,2.0,0,
105200,1855.6,17.1,175.1,295.7,1670.0,6448.0,2.0,0,
105300,1857.8,19.6,175.0,240.7,1670.0,6448.0,2.0,0,
105400,1858.4,20.1,175.0,204.9,1670.0,6448.0,2.0,0,
105600,1857.8,18.1,175.0,239.7,1670.0,6448.0,2.0,0,
105700,1860.2,17.9,175.0,241.0,1670.0,6448.0,2.0,0,
105800,1858.5,33.1,175.0,240.8,1670.0,6448.0,2.0,0,
105900,1848.9,56.9,175.0,240.8,2102.0,8822.0,4.0,1,
106000,1884.6,83.0,169.7,93.4,2379.0,8702.0,4.0,1,
106100,1829.6,54.6,151.9,38.5,2256.0,8682.0,3.0,1,
106200,1863.9,49.9,139.6,37.9,2177.0,8405.0,3.0,1,
106300,1870.1,88.5,114.9,37.5,2614.0,9664.0,3.0,1,
106400,1834.2,145.2,86.4,38.3,2199.0,8534.0,3.0,1,
106600,1858.3,16.2,82.0,30.1,2199.0,8534.0,3.0,1,
106700,1860.3,17.0,81.9,37.3,2199.0,8534.0,3.0,1,
106800,1860.4,17.6,81.9,50.2,2199.0,8534.0,3.0,1,
106900,1859.7,18.2,81.9,185.8,2199.0,8534.0,3.0,1,
107000,1857.5,21.1,81.9,238.4,2199.0,8534.0,3.0,1,
107100,1857.8,19.1,81.9,240.1,2199.0,8534.0,3.0,1,
107200,1858.6,18.0,81.9,240.5,2199.0,8534.0,3.0,1,
107300,1860.4,17.5,81.8,233.7,2199.0,8534.0,3.0,1,
107400,1863.2,16.5,81.8,219.0,2199.0,8534.0,3.0,1,
107600,1852.0,179.2,79.1,42.0,2164.0,8952.0,4.0,1,
107700,1868.3,90.4,82.8,34.6,2289.0,8625.0,3.0,1,
107800,1849.4,56.9,90.6,34.2,2260.0,8406.0,3.0,1,
107900,1882.7,121.7,103.0,34.5,2078.0,7908.0,4.0,1,
108000,1829.2,56.9,106.4,29.2,2150.0,8130.0,3.0,1,
108100,1858.9,35.9,100.4,36.3,2161.0,8229.0,3.0,1,
108200,1858.2,18.6,100.6,35.7,2161.0,8229.0,3.0,1,
108300,1857.6,18.3,100.6,40.8,2161.0,8229.0,3.0,1,
108400,1860.1,16.5,100.6,66.4,2161.0,8229.0,3.0,1,
108600,1861.0,17.6,100.5,216.6,2161.0,8229.0,3.0,1,
108700,1861.5,17.2,100.4,245.4,2161.0,8229.0,3.0,1,
108800,1860.5,17.6,100.5,238.4,2161.0,8229.0,3.0,1,
108900,1861.4,18.5,100.4,229.8,2161.0,8229.0,3.0,1,
109000,1860.7,16.9,100.5,232.9,2161.0,8229.0,3.0,1,
109100,1853.4,70.4,100.9,244.0,2435.0,9862.0,3.0,1,
109200,1881.0,68.3,104.2,158.4,2274.0,8663.0,3.0,1,
109300,1866.3,142.8,97.3,54.6,2151.0,8081.0,3.0,1,
109400,1854.8,108.7,99.6,35.8,2223.0,7973.0,3.0,1,
109600,1856.2,218.6,84.1,36.4,2038.0,7840.0,4.0,1,
109700,1869.8,31.6,99.0,34.7,2063.0,7852.0,3.0,1,
109800,1867.5,18.1,98.8,28.3,2063.0,7852.0,3.0,1,
109900,1865.0,15.2,98.8,29.3,2063.0,7852.0,3.0,1,
110000,1863.3,23.2,98.8,34.4,2063.0,7852.0,3.0,1,
110100,1857.4,20.3,98.9,78.5,2063.0,7852.0,3.0,1,
110200,1857.5,19.3,98.9,213.5,2063.0,7852.0,3.0,1,
110300,1860.7,18.6,99.0,232.4,2063.0,7852.0,3.0,1,
110400,1861.5,19.2,99.0,243.5,2063.0,7852.0,3.0,1,
110600,1858.3,19.2,99.0,232.7,2063.0,7852.0,3.0,1,
110700,1880.3,45.0,99.0,231.1,2285.0,9527.0,3.0,1,
110800,1829.6,72.4,101.0,168.9,2169.0,8638.0,4.0,1,
110900,1889.3,56.8,100.9,56.7,2373.0,8645.0,3.0,1,
111000,1839.8,119.9,92.3,38.4,2101.0,8584.0,3.0,1,
111100,1873.7,86.9,90.3,36.4,2191.0,8252.0,3.0,1,
111200,1858.5,89.7,95.8,35.0,2172.0,8180.0,3.0,1,
111300,1852.1,43.5,82.5,28.3,1994.0,8115.0,4.0,1,
111400,1870.2,20.4,82.9,29.9,1994.0,8115.0,4.0,1,
111600,1862.2,15.5,83.0,67.3,1994.0,8115.0,4.0,1,
111700,1859.6,19.1,82.8,100.0,1994.0,8115.0,4.0,1,
111800,1860.0,20.3,82.8,184.8,1994.0,8115.0,4.0,1,
111900,1857.9,17.5,82.8,237.1,1994.0,8115.0,4.0,1,
112000,1857.5,18.2,82.8,238.8,1994.0,8115.0,4.0,1,
112100,1864.2,18.3,82.8,240.5,1994.0,8115.0,4.0,1,
112200,1859.0,16.0,82.7,244.3,1994.0,8115.0,4.0,1,
112300,1859.1,91.4,82.7,249.0,2067.0,9029.0,4.0,1,
112400,1860.8,59.8,84.5,212.4,2119.0,8762.0,3.0,1,
112600,1900.3,83.3,80.7,39.3,2266.0,8589.0,3.0,1,
112700,1815.5,57.7,78.6,40.4,2324.0,9392.0,3.0,1,
112800,1892.5,73.8,86.2,30.1,2047.0,8357.0,3.0,1,
112900,1841.4,41.4,81.0,34.4,1986.0,7983.0,3.0,1,
113000,1859.7,18.9,80.6,37.4,1986.0,7983.0,3.0,1,
113100,1860.5,20.7,80.4,36.5,1986.0,7983.0,3.0,1,
113200,1857.5,20.0,80.5,49.8,1986.0,7983.0,3.0,1,
113300,1855.2,17.5,80.7,104.0,1986.0,7983.0,3.0,1,
113400,1862.8,18.9,80.6,230.1,1986.0,7983.0,3.0,1,
113600,1860.5,17.0,80.5,229.0,1986.0,7983.0,3.0,1,
113700,1863.3,20.3,80.5,240.3,1986.0,7983.0,3.0,1,
113800,1860.9,16.7,80.5,238.2,1986.0,7983.0,3.0,1,
113900,1859.8,35.3,80.5,216.4,1986.0,7983.0,3.0,1,
114000,1893.4,45.7,79.0,215.2,2231.0,8891.0,4.0,1,
114100,1830.5,87.4,79.4,100.5,2564.0,10007.0,3.0,1,
114200,1865.3,48.6,75.8,66.7,2157.0,8676.0,4.0,1,
114300,1867.1,66.4,76.1,44.0,2255.0,8519.0,3.0,1,
114400,1839.1,72.4,74.6,37.0,2059.0,8152.0,4.0,1,
114600,1844.8,24.9,61.4,36.5,2059.0,8152.0,4.0,1,
114700,1856.5,17.6,61.5,42.9,2059.0,8152.0,4.0,1,
114800,1860.2,16.5,61.4,45.5,2059.0,8152.0,4.0,1,
114900,1859.0,17.8,61.4,76.7,2059.0,8152.0,4.0,1,
115000,1860.1,18.1,61.4,264.2,2059.0,8152.0,4.0,1,
115100,1862.5,17.0,61.3,266.5,2059.0,8152.0,4.0,1,
115200,1861.5,15.5,61.4,240.4,2059.0,8152.0,4.0,1,
115300,1861.3,19.7,61.4,241.1,2059.0,8152.0,4.0,1,
115400,1860.1,21.1,61.5,243.8,2059.0,8152.0,4.0,1,
115600,1848.7,55.3,61.1,238.5,2172.0,9221.0,4.0,1,
115700,1866.4,156.1,62.0,157.0,2624.0,10557.0,4.0,1,
115800,1866.6,132.3,65.8,71.9,2327.0,9494.0,3.0,1,
115900,1878.0,95.0,70.5,37.2,2219.0,8128.0,4.0,1,
116000,1840.4,58.2,73.1,30.1,2279.0,8378.0,3.0,1,
116100,1863.0,61.2,72.0,28.3,1990.0,7880.0,3.0,1,
116200,1878.2,22.8,71.5,26.3,2074.0,8320.0,4.0,1,
116300,1856.6,24.6,71.3,29.7,2074.0,8320.0,4.0,1,
116400,1861.2,18.2,71.4,57.0,2074.0,8320.0,4.0,1,
116600,1860.3,16.2,71.4,207.3,2074.0,8320.0,4.0,1,
116700,1862.6,16.4,71.4,239.9,2074.0,8320.0,4.0,1,
116800,1863.1,21.3,71.4,241.4,2074.0,8320.0,4.0,1,
116900,1856.7,22.3,71.4,241.0,2074.0,8320.0,4.0,1,
117000,1860.2,18.7,71.5,240.5,2074.0,8320.0,4.0,1,
117100,1861.5,17.7,71.4,240.6,2074.0,8320.0,4.0,1,
117200,1862.2,144.4,71.7,260.7,2386.0,10367.0,3.0,1,
117300,1879.0,74.9,81.3,67.7,2295.0,9317.0,4.0,1,
117400,1848.8,133.7,75.5,35.8,2313.0,8581.0,3.0,1,
117600,1852.5,108.8,85.4,40.4,1939.0,7912.0,3.0,1,
117700,1850.7,56.3,92.7,35.7,2123.0,8254.0,3.0,1,
117800,1867.6,27.6,91.5,35.4,2106.0,8101.0,3.0,1,
117900,1867.8,20.1,91.5,38.6,2106.0,8101.0,3.0,1,
118000,1856.8,19.3,91.5,54.5,2106.0,8101.0,3.0,1,
118100,1858.6,18.3,91.6,88.2,2106.0,8101.0,3.0,1,
118200,1859.4,18.4,91.6,228.5,2106.0,8101.0,3.0,1,
118300,1859.3,20.5,91.7,229.9,2106.0,8101.0,3.0,1,
118400,1859.1,17.0,91.8,215.2,2106.0,8101.0,3.0,1,
118600,1859.3,17.7,91.7,244.3,2106.0,8101.0,3.0,1,
118700,1858.5,16.7,91.7,242.8,2106.0,8101.0,3.0,1,
118800,1867.5,26.0,91.7,240.5,2133.0,8664.0,3.0,1,
118900,1872.4,153.7,92.9,176.5,2298.0,9805.0,3.0,1,
119000,1841.0,168.2,94.4,55.9,2423.0,10377.0,3.0,1,
119100,1878.5,132.3,86.9,36.1,2175.0,8947.0,4.0,1,
119200,1871.2,51.9,92.2,36.5,2051.0,8389.0,3.0,1,
119300,1831.0,101.6,82.5,47.2,2211.0,8596.0,4.0,1,
119400,1880.6,29.3,84.9,40.8,2050.0,8373.0,3.0,1,
119600,1859.1,18.2,84.6,46.8,2050.0,8373.0,3.0,1,
119700,1858.0,19.6,84.5,53.1,2050.0,8373.0,3.0,1,
119800,1860.8,24.0,84.5,139.5,2050.0,8373.0,3.0,1,
119900,1862.6,16.2,84.6,208.8,2050.0,8373.0,3.0,1,
120000,1859.8,19.5,84.5,210.3,2050.0,8373.0,3.0,1,
120100,1863.4,17.1,84.5,213.1,2050.0,8373.0,3.0,1,
120200,1860.9,21.5,84.5,240.8,2050.0,8373.0,3.0,1,
120300,1863.8,20.2,84.6,229.1,2050.0,8373.0,3.0,1,
120400,1859.6,49.7,84.6,184.3,3213.0,13176.0,4.0,1,
120600,1920.2,74.5,103.7,50.4,3384.0,12489.0,3.0,1,
120700,1804.8,218.8,97.9,34.2,3121.0,11852.0,4.0,1,
120800,1904.8,130.6,111.7,29.3,3346.0,12513.0,3.0,1,
120900,1855.7,60.7,120.5,28.3,2841.0,10850.0,3.0,1,
121000,1862.0,43.8,119.4,36.6,2807.0,10695.0,4.0,1,
121100,1881.2,18.5,119.6,35.7,2807.0,10695.0,4.0,1,
121200,1859.4,20.6,119.6,46.0,2807.0,10695.0,4.0,1,
121300,1859.2,16.8,119.6,66.7,2807.0,10695.0,4.0,1,
121400,1856.9,19.8,119.7,108.5,2807.0,10695.0,4.0,1,
121600,1859.3,16.7,119.7,227.3,2807.0,10695.0,4.0,1,
121700,1861.4,20.5,119.7,240.0,2807.0,10695.0,4.0,1,
121800,1858.8,20.1,119.8,240.4,2807.0,10695.0,4.0,1,
121900,1863.7,23.1,119.7,238.1,2807.0,10695.0,4.0,1,
122000,1855.6,143.8,119.8,241.0,2806.0,11990.0,4.0,1,
122100,1846.9,57.0,127.8,91.1,2578.0,11477.0,4.0,1,
122200,1874.9,149.2,110.6,34.6,2515.0,9552.0,2.0,0,
122300,1878.5,261.6,126.9,38.0,2591.0,8942.0,2.0,0,
122400,1840.6,164.2,146.5,225.9,2411.0,8713.0,2.0,0,
122600,1808.5,165.9,194.7,131.0,2015.0,7532.0,2.0,0,
122700,1879.3,26.8,199.0,133.2,2015.0,7532.0,2.0,0,
122800,1859.5,17.3,199.0,100.9,2015.0,7532.0,2.0,0,
122900,1857.5,19.0,199.0,80.8,2015.0,7532.0,2.0,0,
123000,1857.5,21.0,199.1,44.2,2015.0,7532.0,2.0,0,
123100,1856.8,18.2,199.1,145.6,2015.0,7532.0,2.0,0,
123200,1858.0,15.8,199.1,240.3,2015.0,7532.0,2.0,0,
123300,1858.8,16.6,199.1,240.1,2015.0,7532.0,2.0,0,
123400,1858.9,19.1,199.1,240.1,2015.0,7532.0,2.0,0,
123600,1855.8,78.4,199.0,239.5,2015.0,7532.0,2.0,0,
123700,1872.1,86.8,195.1,239.7,2340.0,10686.0,3.0,1,
123800,1851.7,57.9,196.2,65.8,2611.0,11155.0,4.0,1,
123900,1900.7,140.0,183.7,36.9,2526.0,10536.0,3.0,1,
124000,1815.3,44.3,164.7,36.6,2710.0,10425.0,3.0,1,
124100,1871.3,122.4,156.3,37.3,2553.0,9942.0,4.0,1,
124200,1880.8,71.3,110.9,30.1,2562.0,9954.0,3.0,1,
124300,1856.6,22.8,85.8,34.6,2592.0,9791.0,3.0,1,
124400,1858.4,20.8,85.8,46.7,2592.0,9791.0,3.0,1,
124600,1859.7,22.3,85.8,68.3,2592.0,9791.0,3.0,1,
124700,1863.2,20.3,85.8,236.6,2592.0,9791.0,3.0,1,
124800,1861.1,20.6,85.8,260.9,2592.0,9791.0,3.0,1,
124900,1859.1,22.4,85.8,241.0,2592.0,9791.0,3.0,1,
125000,1862.1,18.0,85.9,237.3,2592.0,9791.0,3.0,1,
125100,1863.7,18.8,85.9,240.3,2592.0,9791.0,3.0,1,
125200,1859.9,20.5,85.9,240.6,2592.0,9791.0,3.0,1,
125300,1882.7,60.9,84.2,240.3,2559.0,11255.0,4.0,1,
125400,1839.5,57.1,81.3,142.1,2795.0,10911.0,3.0,1,
125600,1869.0,74.4,75.7,67.2,2913.0,11551.0,4.0,1,
125700,1839.1,74.2,77.7,35.6,2396.0,10043.0,4.0,1,
125800,1910.8,66.5,66.8,29.8,2457.0,9863.0,4.0,1,
125900,1850.8,28.6,67.8,40.4,2477.0,9602.0,3.0,1,
126000,1861.4,20.1,67.9,72.6,2477.0,9602.0,3.0,1,
126100,1857.6,21.3,68.0,67.1,2477.0,9602.0,3.0,1,
126200,1854.8,20.1,68.1,67.1,2477.0,9602.0,3.0,1,
126300,1859.8,20.8,68.0,151.5,2477.0,9602.0,3.0,1,
126400,1859.0,17.5,68.0,243.6,2477.0,9602.0,3.0,1,
126600,1856.9,21.8,68.0,240.6,2477.0,9602.0,3.0,1,
126700,1858.6,20.5,68.1,239.7,2477.0,9602.0,3.0,1,
126800,1853.4,20.0,68.2,238.5,2477.0,9602.0,3.0,1,
126900,1848.5,58.6,68.5,231.1,2178.0,9170.0,3.0,1,
127000,1853.1,219.4,71.0,167.9,2655.0,10398.0,4.0,1,
127100,1875.8,66.8,85.3,91.2,2905.0,11059.0,3.0,1,
127200,1874.2,101.3,81.4,37.1,2721.0,10366.0,3.0,1,
127300,1835.1,68.3,83.1,29.6,2670.0,9876.0,3.0,1,
127400,1860.4,109.8,82.7,29.6,2823.0,11411.0,4.0,1,
127600,1863.0,18.8,83.6,42.8,2823.0,11411.0,4.0,1,
127700,1859.7,19.4,83.5,66.0,2823.0,11411.0,4.0,1,
127800,1862.2,19.0,83.5,69.0,2823.0,11411.0,4.0,1,
127900,1858.9,18.9,83.5,142.1,2823.0,11411.0,4.0,1,
128000,1861.1,19.7,83.5,215.9,2823.0,11411.0,4.0,1,
128100,1859.8,19.6,83.5,238.5,2823.0,11411.0,4.0,1,
128200,1859.0,19.6,83.5,238.9,2823.0,11411.0,4.0,1,
128300,1860.1,18.9,83.4,238.4,2823.0,11411.0,4.0,1,
128400,1857.8,18.4,83.4,227.1,2823.0,11411.0,4.0,1,
128600,1864.9,47.9,82.3,217.7,2575.0,10687.0,4.0,1,
128700,1835.6,94.6,62.7,99.8,2758.0,10370.0,3.0,1,
128800,1873.8,54.1,72.6,72.6,2644.0,10268.0,3.0,1,
128900,1855.1,247.5,72.0,43.1,2350.0,9763.0,4.0,1,
129000,1855.1,66.1,91.6,36.7,2430.0,9527.0,3.0,1,
129100,1890.3,55.3,91.4,36.9,2304.0,9109.0,3.0,1,
129200,1846.4,16.4,93.4,34.2,2304.0,9109.0,3.0,1,
129300,1861.6,14.3,93.4,29.9,2304.0,9109.0,3.0,1,
129400,1857.7,19.0,93.3,40.8,2304.0,9109.0,3.0,1,
129600,1860.9,16.9,93.3,226.5,2304.0,9109.0,3.0,1,
129700,1854.8,20.4,93.4,239.5,2304.0,9109.0,3.0,1,
129800,1859.9,20.1,93.4,239.0,2304.0,9109.0,3.0,1,
129900,1858.6,19.1,93.5,187.5,2304.0,9109.0,3.0,1,
130000,1857.7,17.6,93.4,219.9,2304.0,9109.0,3.0,1,
130100,1858.9,71.6,93.4,242.3,2585.0,10638.0,3.0,1,
130200,1874.8,53.2,100.2,199.0,2605.0,11208.0,3.0,1,
130300,1845.9,112.1,99.9,37.7,2877.0,11535.0,4.0,1,
130400,1878.2,90.0,96.4,30.3,2697.0,10465.0,3.0,1,
130600,1835.4,80.9,91.3,34.3,2463.0,9938.0,4.0,1,
130700,1877.1,68.4,93.9,29.3,2480.0,10152.0,3.0,1,
130800,1856.3,20.3,90.1,35.8,2480.0,10152.0,3.0,1,
130900,1860.1,20.3,90.2,39.5,2480.0,10152.0,3.0,1,
131000,1858.0,19.8,90.3,53.6,2480.0,10152.0,3.0,1,
131100,1859.0,16.1,90.2,69.0,2480.0,10152.0,3.0,1,
131200,1861.5,19.8,90.2,229.4,2480.0,10152.0,3.0,1,
131300,1858.7,17.9,90.2,254.5,2480.0,10152.0,3.0,1,
131400,1856.3,15.8,90.2,240.7,2480.0,10152.0,3.0,1,
131600,1859.1,18.9,90.0,240.7,2480.0,10152.0,3.0,1,
131700,1860.9,27.5,90.1,238.8,2480.0,10152.0,3.0,1,
131800,1852.1,70.6,88.1,215.7,2507.0,10734.0,3.0,1,
131900,1903.0,65.2,88.3,122.1,2723.0,10716.0,3.0,1,
132000,1804.8,87.2,86.7,65.6,2570.0,10144.0,3.0,1,
132100,1902.0,86.2,95.4,40.2,2748.0,10247.0,3.0,1,
132200,1845.7,244.0,91.2,37.3,2498.0,9677.0,3.0,1,
132300,1860.9,156.6,113.0,28.3,2560.0,9855.0,3.0,1,
132400,1884.6,30.0,115.3,29.0,2560.0,9855.0,3.0,1,
132600,1861.5,19.7,115.3,44.4,2560.0,9855.0,3.0,1,
132700,1858.1,20.0,115.3,51.5,2560.0,9855.0,3.0,1,
132800,1861.6,18.1,115.3,186.3,2560.0,9855.0,3.0,1,
132900,1861.5,18.7,115.3,239.3,2560.0,9855.0,3.0,1,
133000,1863.8,20.1,115.3,239.5,2560.0,9855.0,3.0,1,
133100,1859.1,20.0,115.3,239.8,2560.0,9855.0,3.0,1,
133200,1861.0,20.9,115.4,240.1,2560.0,9855.0,3.0,1,
133300,1860.1,21.4,115.4,240.7,2560.0,9855.0,3.0,1,
133400,1837.9,53.8,115.8,230.3,2530.0,10978.0,4.0,1,
133600,1872.4,60.7,125.7,66.7,2769.0,10494.0,3.0,1,
133700,1852.9,78.0,122.3,41.3,2742.0,10823.0,4.0,1,
133800,1909.3,69.7,124.3,35.9,2561.0,9919.0,3.0,1,
133900,1808.3,105.3,100.1,37.4,2465.0,9429.0,3.0,1,
134000,1892.0,27.2,97.4,35.0,2485.0,9853.0,4.0,1,
134100,1861.7,21.7,97.4,29.8,2485.0,9853.0,4.0,1,
134200,1859.4,20.4,97.4,37.5,2485.0,9853.0,4.0,1,
134300,1859.3,18.7,97.4,52.5,2485.0,9853.0,4.0,1,
134400,1862.5,18.3,97.3,155.7,2485.0,9853.0,4.0,1,
134600,1859.0,17.8,97.4,240.5,2485.0,9853.0,4.0,1,
134700,1860.4,20.6,97.4,241.4,2485.0,9853.0,4.0,1,
134800,1860.3,19.2,97.4,240.4,2485.0,9853.0,4.0,1,
134900,1856.9,16.5,97.4,242.6,2485.0,9853.0,4.0,1,
135000,1862.1,84.0,109.9,215.9,2556.0,11226.0,3.0,1,
135100,1851.4,70.3,109.5,30.1,2587.0,10822.0,4.0,1,
135200,1905.0,152.4,98.3,29.1,2725.0,10678.0,3.0,1,
135300,1812.3,56.8,106.0,29.6,2509.0,10003.0,4.0,1,
135400,1875.1,181.4,95.7,44.5,2538.0,9814.0,4.0,1,
135600,1849.4,25.3,96.1,37.8,2443.0,9424.0,4.0,1,
135700,1864.7,20.8,96.1,36.6,2443.0,9424.0,4.0,1,
135800,1860.2,19.2,96.2,38.0,2443.0,9424.0,4.0,1,
135900,1865.3,20.7,96.0,73.9,2443.0,9424.0,4.0,1,
136000,1857.3,18.2,96.1,201.8,2443.0,9424.0,4.0,1,
136100,1858.4,20.3,96.2,239.4,2443.0,9424.0,4.0,1,
136200,1858.7,19.8,96.2,239.8,2443.0,9424.0,4.0,1,
136300,1854.5,18.1,96.3,242.7,2443.0,9424.0,4.0,1,
136400,1859.3,16.2,96.3,242.5,2443.0,9424.0,4.0,1,
136600,1889.0,156.4,93.8,241.0,2659.0,10921.0,3.0,1,
136700,1842.3,71.1,100.6,47.6,2639.0,10840.0,3.0,1,
136800,1863.2,72.4,98.0,35.0,2827.0,11141.0,4.0,1,
136900,1871.2,64.3,90.2,35.4,3104.0,11870.0,4.0,1,
137000,1843.5,55.6,91.0,46.2,2494.0,9908.0,3.0,1,
137100,1904.1,215.2,93.2,77.7,2506.0,9772.0,3.0,1,
137200,1820.8,42.0,111.4,38.0,2481.0,9592.0,3.0,1,
137300,1875.5,17.3,111.4,30.3,2481.0,9592.0,3.0,1,
137400,1862.5,19.4,111.3,29.2,2481.0,9592.0,3.0,1,
137600,1861.3,19.4,111.4,78.2,2481.0,9592.0,3.0,1,
137700,1859.2,21.5,111.4,239.6,2481.0,9592.0,3.0,1,
137800,1859.6,20.7,111.4,240.1,2481.0,9592.0,3.0,1,
137900,1861.4,22.8,111.3,240.1,2481.0,9592.0,3.0,1,
138000,1857.8,22.6,111.3,240.3,2481.0,9592.0,3.0,1,
138100,1862.5,18.7,111.4,239.7,2481.0,9592.0,3.0,1,
138200,1859.8,31.2,111.4,239.2,2711.0,11852.0,4.0,1,
138300,1847.8,100.5,97.1,234.9,2777.0,11722.0,3.0,1,
138400,1889.2,87.6,108.7,80.2,2823.0,11285.0,3.0,1,
138600,1845.6,126.1,127.9,37.1,2780.0,10925.0,3.0,1,
138700,1863.4,241.2,124.8,29.8,2347.0,9984.0,4.0,1,
138800,1870.9,68.4,121.5,28.8,2436.0,9596.0,4.0,1,
138900,1870.6,22.0,122.6,29.6,2436.0,9596.0,4.0,1,
139000,1861.5,18.6,122.6,35.1,2436.0,9596.0,4.0,1,
139100,1857.8,23.6,122.6,41.7,2436.0,9596.0,4.0,1,
139200,1855.5,23.0,122.6,68.6,2436.0,9596.0,4.0,1,
139300,1860.8,19.9,122.6,237.4,2436.0,9596.0,4.0,1,
139400,1854.2,21.4,122.7,240.4,2436.0,9596.0,4.0,1,
139600,1857.2,23.1,122.7,239.7,2436.0,9596.0,4.0,1,
139700,1854.3,17.5,122.8,239.4,2436.0,9596.0,4.0,1,
139800,1861.5,166.3,122.8,238.7,2436.0,9596.0,4.0,1,
139900,1870.0,75.9,131.3,139.6,2129.0,10789.0,3.0,1,
140000,1806.5,223.0,133.7,29.5,2330.0,9580.0,4.0,1,
140100,1899.5,75.3,141.5,29.5,2529.0,10944.0,3.0,1,
140200,1838.5,135.5,128.7,29.8,2365.0,10423.0,3.0,1,
140300,1862.0,120.5,134.6,28.7,2250.0,9822.0,3.0,1,
140400,1868.0,87.6,129.7,29.6,2048.0,9194.0,4.0,1,
140600,1858.7,20.6,130.0,44.4,2048.0,9194.0,4.0,1,
140700,1862.6,20.0,129.9,50.8,2048.0,9194.0,4.0,1,
140800,1857.8,17.8,129.9,66.1,2048.0,9194.0,4.0,1,
140900,1865.1,18.8,129.9,196.9,2048.0,9194.0,4.0,1,
141000,1861.0,18.7,129.8,226.2,2048.0,9194.0,4.0,1,
141100,1864.3,21.4,129.8,239.4,2048.0,9194.0,4.0,1,
141200,1857.7,20.5,129.7,242.8,2048.0,9194.0,4.0,1,
141300,1856.7,20.4,129.7,248.7,2048.0,9194.0,4.0,1,
141400,1857.1,19.0,129.7,240.7,2048.0,9194.0,4.0,1,
141600,1857.9,110.7,128.8,44.8,2375.0,11882.0,3.0,1,
141700,1843.1,92.2,109.1,38.9,2208.0,10450.0,4.0,1,
141800,1886.5,78.8,110.0,43.1,2160.0,10039.0,3.0,1,
141900,1815.7,100.3,93.3,55.2,1975.0,9202.0,3.0,1,
142000,1902.8,109.2,97.9,51.7,2031.0,9202.0,3.0,1,
142100,1853.9,26.5,97.0,44.5,2036.0,9094.0,3.0,1,
142200,1859.5,20.7,97.1,41.8,2036.0,9094.0,3.0,1,
142300,1861.5,18.2,97.0,41.3,2036.0,9094.0,3.0,1,
142400,1857.8,20.7,97.0,49.9,2036.0,9094.0,3.0,1,
142600,1862.4,20.1,97.0,237.5,2036.0,9094.0,3.0,1,
142700,1857.8,18.1,97.2,238.4,2036.0,9094.0,3.0,1,
142800,1858.6,19.6,97.2,239.6,2036.0,9094.0,3.0,1,
142900,1866.5,21.5,97.1,237.8,2036.0,9094.0,3.0,1,
143000,1857.9,19.2,97.2,234.4,2036.0,9094.0,3.0,1,
143100,1842.3,203.5,97.2,194.4,2500.0,12181.0,4.0,1,
143200,1898.6,115.3,111.9,79.7,2587.0,11362.0,3.0,1,
143300,1809.1,70.1,112.8,43.2,2337.0,10853.0,3.0,1,
143400,1886.1,235.6,111.6,43.0,2288.0,11227.0,4.0,1,
143600,1834.4,153.6,121.6,45.2,2065.0,9678.0,4.0,1,
143700,1895.9,34.6,124.8,35.2,2104.0,9542.0,4.0,1,
143800,1865.1,18.4,124.7,34.2,2104.0,9542.0,4.0,1,
143900,1861.7,18.1,124.8,39.3,2104.0,9542.0,4.0,1,
144000,1860.0,17.2,124.8,65.8,2104.0,9542.0,4.0,1,
144100,1860.7,21.3,124.8,99.6,2104.0,9542.0,4.0,1,
144200,1861.7,20.6,124.8,213.1,2104.0,9542.0,4.0,1,
144300,1858.2,19.8,124.8,239.9,2104.0,9542.0,4.0,1,
144400,1862.9,19.1,124.8,262.1,2104.0,9542.0,4.0,1,
144600,1861.4,17.1,124.7,238.7,2104.0,9542.0,4.0,1,
144700,1844.4,70.6,126.4,241.8,1989.0,10451.0,4.0,1,
144800,1859.4,246.4,107.3,80.5,2333.0,11757.0,4.0,1,
144900,1870.0,88.8,116.3,30.2,2238.0,10963.0,4.0,1,
145000,1837.5,104.9,116.9,36.8,2247.0,10691.0,3.0,1,
145100,1888.7,114.2,120.1,65.7,2219.0,9991.0,4.0,1,
145200,1832.4,92.8,120.5,43.6,2187.0,9770.0,3.0,1,
145300,1869.6,40.5,112.7,36.6,2147.0,9770.0,4.0,1,
145400,1864.0,21.6,112.0,65.5,2147.0,9770.0,4.0,1,
145600,1863.0,19.2,112.1,65.9,2147.0,9770.0,4.0,1,
145700,1859.5,20.4,112.1,91.5,2147.0,9770.0,4.0,1,
145800,1861.3,23.2,112.1,227.8,2147.0,9770.0,4.0,1,
145900,1860.6,22.4,112.1,238.4,2147.0,9770.0,4.0,1,
146000,1861.1,20.5,112.1,240.9,2147.0,9770.0,4.0,1,
146100,1860.2,21.0,112.1,242.5,2147.0,9770.0,4.0,1,
146200,1862.7,18.5,112.1,247.7,2147.0,9770.0,4.0,1,
146300,1862.9,59.4,112.1,240.4,2021.0,9965.0,4.0,1,
146400,1876.3,92.0,110.3,214.1,2254.0,11433.0,3.0,1,
146600,1836.6,137.2,105.7,94.0,2422.0,10991.0,3.0,1,
146700,1877.6,105.2,97.6,85.6,2309.0,10472.0,3.0,1,
146800,1851.3,157.8,113.2,48.5,2245.0,10184.0,4.0,1,
146900,1850.2,58.5,114.0,34.8,2185.0,9989.0,3.0,1,
147000,1881.5,20.9,114.1,34.8,2185.0,9989.0,3.0,1,
147100,1862.5,16.2,114.1,41.4,2185.0,9989.0,3.0,1,
147200,1859.9,17.9,114.1,66.3,2185.0,9989.0,3.0,1,
147300,1860.7,21.7,114.1,72.6,2185.0,9989.0,3.0,1,
147400,1859.4,18.8,114.1,238.9,2185.0,9989.0,3.0,1,
147600,1859.9,18.7,114.0,268.8,2185.0,9989.0,3.0,1,
147700,1860.3,16.5,114.0,265.1,2185.0,9989.0,3.0,1,
147800,1860.1,19.1,113.9,241.2,2185.0,9989.0,3.0,1,
147900,1859.6,35.4,114.0,241.0,2284.0,10395.0,4.0,1,
148000,1824.5,105.4,113.6,240.8,2321.0,11523.0,3.0,1,
148100,1910.2,65.0,117.4,117.1,2683.0,12256.0,3.0,1,
148200,1840.5,100.8,110.5,66.5,2436.0,11074.0,4.0,1,
148300,1861.5,129.8,117.9,47.8,2342.0,10454.0,3.0,1,
148400,1877.1,197.1,114.0,52.3,2273.0,10407.0,3.0,1,
148600,1893.3,22.8,119.9,34.7,2273.0,10407.0,3.0,1,
148700,1862.1,18.5,119.9,35.2,2273.0,10407.0,3.0,1,
148800,1861.9,20.2,120.0,37.3,2273.0,10407.0,3.0,1,
148900,1859.8,20.5,120.0,55.9,2273.0,10407.0,3.0,1,
149000,1859.0,18.6,120.0,171.1,2273.0,10407.0,3.0,1,
149100,1859.3,17.7,119.9,217.4,2273.0,10407.0,3.0,1,
149200,1859.4,21.3,120.0,218.2,2273.0,10407.0,3.0,1,
149300,1863.0,18.7,120.0,239.4,2273.0,10407.0,3.0,1,
149400,1857.9,22.0,120.1,241.2,2273.0,10407.0,3.0,1,
149600,1846.2,83.6,120.6,241.2,2304.0,11305.0,4.0,1,
149700,1849.8,90.4,117.0,106.9,2553.0,11179.0,4.0,1,
149800,1903.5,77.2,129.2,67.6,2480.0,10971.0,3.0,1,
149900,1809.5,64.9,120.5,37.9,2470.0,10728.0,4.0,1,
150000,1903.2,95.8,116.6,28.1,2301.0,10700.0,3.0,1,
150100,1847.3,148.7,98.1,29.6,2142.0,9837.0,4.0,1,
150200,1859.4,25.6,98.0,69.7,2187.0,9831.0,3.0,1,
150300,1860.8,19.2,98.0,66.3,2187.0,9831.0,3.0,1,
150400,1860.7,15.8,98.1,42.6,2187.0,9831.0,3.0,1,
150600,1863.8,15.6,97.9,164.8,2187.0,9831.0,3.0,1,
150700,1857.7,21.6,97.9,238.6,2187.0,9831.0,3.0,1,
150800,1858.8,22.1,97.9,219.7,2187.0,9831.0,3.0,1,
150900,1859.1,17.2,98.0,206.0,2187.0,9831.0,3.0,1,
151000,1861.5,22.2,97.9,205.9,2187.0,9831.0,3.0,1,
151100,1860.2,18.4,97.9,208.4,2187.0,9831.0,3.0,1,
151200,1897.6,97.0,103.3,201.9,2408.0,11310.0,3.0,1,
151300,1805.9,76.5,104.4,44.5,2583.0,11422.0,4.0,1,
151400,1887.6,102.2,89.6,35.4,2705.0,12172.0,4.0,1,
151600,1821.7,137.6,93.2,84.4,2337.0,10234.0,4.0,1,
151700,1915.7,112.6,104.3,86.0,2211.0,9986.0,3.0,1,
151800,1839.8,30.8,103.5,65.5,2259.0,9625.0,3.0,1,
151900,1863.6,22.5,103.6,66.2,2259.0,9625.0,3.0,1,
152000,1859.5,20.7,103.6,66.0,2259.0,9625.0,3.0,1,
152100,1858.3,20.9,103.6,65.6,2259.0,9625.0,3.0,1,
152200,1864.1,20.3,103.7,122.1,2259.0,9625.0,3.0,1,
152300,1860.6,19.7,103.7,241.1,2259.0,9625.0,3.0,1,
152400,1859.2,20.1,103.7,209.4,2259.0,9625.0,3.0,1,
152600,1861.7,17.1,103.6,241.1,2259.0,9625.0,3.0,1,
152700,1863.0,20.2,103.6,241.2,2259.0,9625.0,3.0,1,
152800,1852.2,175.5,98.4,248.0,2433.0,11276.0,4.0,1,
152900,1871.8,96.0,109.0,146.8,2262.0,9690.0,2.0,0,
153000,1840.7,237.7,137.0,157.4,2249.0,10147.0,2.0,0,
153100,1894.3,172.5,159.3,226.6,2004.0,8601.0,2.0,0,
153200,1832.3,305.2,173.2,195.5,2206.0,9208.0,2.0,0,
153300,1869.8,149.6,190.2,124.1,1915.0,8405.0,28.0,0,
153400,1877.1,41.1,197.0,134.8,1994.0,8022.0,2.0,0,
153600,1859.9,18.4,197.1,158.1,1994.0,8022.0,2.0,0,
153700,1861.1,17.2,197.1,251.9,1994.0,8022.0,2.0,0,
153800,1863.6,19.6,197.0,230.7,1994.0,8022.0,2.0,0,
153900,1861.5,22.8,197.0,178.3,1994.0,8022.0,2.0,0,
154000,1860.3,21.4,197.0,177.7,1994.0,8022.0,2.0,0,
154100,1861.5,20.7,197.0,183.1,1994.0,8022.0,2.0,0,
154200,1860.6,23.0,197.1,190.2,1994.0,8022.0,2.0,0,
154300,1862.5,23.1,197.1,233.7,1994.0,8022.0,2.0,0,
154400,1859.2,51.3,197.1,240.3,2392.0,11213.0,4.0,1,
154600,1837.2,99.8,180.3,100.1,2672.0,11391.0,3.0,1,
154700,1868.1,95.2,157.4,79.7,2340.0,10177.0,3.0,1,
154800,1849.4,179.3,152.6,51.9,2278.0,9749.0,4.0,1,
154900,1844.8,96.7,119.6,35.7,2182.0,9416.0,3.0,1,
155000,1876.0,77.2,104.3,34.3,2099.0,9273.0,3.0,1,
155100,1857.3,23.1,108.3,28.8,2099.0,9273.0,3.0,1,
155200,1861.9,18.5,108.3,29.9,2099.0,9273.0,3.0,1,
155300,1858.7,22.0,108.3,36.1,2099.0,9273.0,3.0,1,
155400,1857.4,21.4,108.5,50.4,2099.0,9273.0,3.0,1,
155600,1861.7,17.0,108.4,210.9,2099.0,9273.0,3.0,1,
155700,1858.2,20.2,108.4,238.7,2099.0,9273.0,3.0,1,
155800,1862.0,16.6,108.4,239.8,2099.0,9273.0,3.0,1,
155900,1857.7,20.0,108.3,227.5,2099.0,9273.0,3.0,1,
156000,1862.8,42.3,108.3,208.8,2690.0,12004.0,3.0,1,
156100,1879.1,93.3,110.6,173.6,2558.0,11059.0,3.0,1,
156200,1838.0,235.7,102.7,69.4,2848.0,12106.0,4.0,1,
156300,1867.4,134.0,114.3,40.5,2771.0,10981.0,3.0,1,
156400,1878.2,146.2,116.0,28.7,2337.0,10243.0,3.0,1,
156600,1890.4,81.0,119.8,28.7,2238.0,9557.0,3.0,1,
156700,1861.0,21.9,112.7,35.3,2238.0,9557.0,3.0,1,
156800,1859.6,22.8,112.7,41.0,2238.0,9557.0,3.0,1,
156900,1856.4,23.0,112.7,45.2,2238.0,9557.0,3.0,1,
157000,1861.5,21.2,112.7,54.6,2238.0,9557.0,3.0,1,
157100,1859.9,21.1,112.7,195.2,2238.0,9557.0,3.0,1,
157200,1862.7,18.7,112.7,206.0,2238.0,9557.0,3.0,1,
157300,1860.1,16.6,112.7,221.0,2238.0,9557.0,3.0,1,
157400,1862.9,16.5,112.7,240.5,2238.0,9557.0,3.0,1,
157600,1860.2,39.8,112.6,240.8,2238.0,9557.0,3.0,1,
157700,1841.2,199.8,112.8,238.3,2630.0,11253.0,3.0,1,
157800,1908.1,66.6,123.4,85.0,2496.0,10761.0,3.0,1,
157900,1802.7,170.9,110.4,45.2,2171.0,9883.0,3.0,1,
158000,1905.3,93.5,121.9,35.9,2266.0,9800.0,3.0,1,
158100,1847.2,114.9,111.0,35.5,2062.0,8966.0,3.0,1,
158200,1853.2,164.4,109.1,39.3,1970.0,8805.0,3.0,1,
158300,1878.3,29.5,114.0,51.2,1970.0,8805.0,3.0,1,
158400,1861.0,17.9,114.0,53.3,1970.0,8805.0,3.0,1,
158600,1857.0,21.3,113.9,41.1,1970.0,8805.0,3.0,1,
158700,1857.5,21.8,113.9,94.2,1970.0,8805.0,3.0,1,
158800,1859.5,18.7,113.9,230.8,1970.0,8805.0,3.0,1,
158900,1857.5,18.8,113.9,217.3,1970.0,8805.0,3.0,1,
159000,1862.4,21.7,113.9,188.2,1970.0,8805.0,3.0,1,
159100,1862.6,21.3,114.0,207.0,1970.0,8805.0,3.0,1,
159200,1858.8,45.8,114.0,239.8,1970.0,8805.0,3.0,1,
159300,1833.3,58.7,115.5,239.9,2301.0,11209.0,3.0,1,
159400,1874.8,99.8,102.7,54.5,2452.0,10696.0,3.0,1,
159600,1826.2,223.2,87.1,66.1,2121.0,9168.0,3.0,1,
159700,1906.0,90.6,108.4,37.6,1926.0,8386.0,3.0,1,
159800,1824.0,261.9,107.9,29.9,1910.0,8552.0,3.0,1,
159900,1875.1,37.2,120.6,42.4,1907.0,8499.0,3.0,1,
160000,1864.3,19.6,120.6,44.5,1907.0,8499.0,3.0,1,
160100,1858.4,19.6,120.6,35.1,1907.0,8499.0,3.0,1,
160200,1860.0,21.5,120.6,36.8,1907.0,8499.0,3.0,1,
160300,1857.8,21.9,120.6,72.0,1907.0,8499.0,3.0,1,
160400,1857.5,22.4,120.6,233.1,1907.0,8499.0,3.0,1,
160600,1862.9,21.5,120.6,239.6,1907.0,8499.0,3.0,1,
160700,1856.6,19.4,120.6,236.0,1907.0,8499.0,3.0,1,
160800,1859.6,20.8,120.7,214.7,1907.0,8499.0,3.0,1,
160900,1862.2,66.4,118.8,227.8,2219.0,10738.0,4.0,1,
161000,1860.4,72.6,119.5,187.2,2325.0,10678.0,4.0,1,
161100,1883.4,67.5,117.6,99.5,2208.0,9798.0,4.0,1,
161200,1843.1,74.8,117.0,93.1,2323.0,9562.0,3.0,1,
161300,1858.8,194.3,97.5,93.9,2030.0,9015.0,3.0,1,
161400,1867.7,132.7,103.1,99.3,2010.0,8698.0,3.0,1,
161600,1864.1,19.9,84.7,39.1,2010.0,8698.0,3.0,1,
161700,1860.3,22.3,84.7,40.5,2010.0,8698.0,3.0,1,
161800,1859.7,21.3,84.8,42.1,2010.0,8698.0,3.0,1,
161900,1856.9,19.9,84.8,100.1,2010.0,8698.0,3.0,1,
162000,1858.8,19.3,84.7,239.6,2010.0,8698.0,3.0,1,
162100,1854.8,19.6,84.8,239.9,2010.0,8698.0,3.0,1,
162200,1862.2,22.3,84.8,240.1,2010.0,8698.0,3.0,1,
162300,1861.9,19.4,84.8,240.1,2010.0,8698.0,3.0,1,
162400,1864.2,19.3,84.8,240.3,2010.0,8698.0,3.0,1,
162600,1810.8,251.1,87.8,194.7,2490.0,11342.0,4.0,1,
162700,1895.7,87.7,105.7,73.1,2585.0,10965.0,3.0,1,
162800,1844.7,220.2,105.4,47.6,2257.0,9821.0,3.0,1,
162900,1865.9,87.6,115.9,36.0,2293.0,9462.0,3.0,1,
163000,1868.6,108.1,110.6,35.7,1959.0,8906.0,4.0,1,
163100,1856.0,54.1,109.9,44.0,2076.0,8757.0,4.0,1,
163200,1879.7,21.6,109.8,45.4,2076.0,8757.0,4.0,1,
163300,1855.7,19.3,109.9,47.8,2076.0,8757.0,4.0,1,
163400,1861.6,18.7,109.9,46.9,2076.0,8757.0,4.0,1,
163600,1857.8,21.1,109.9,240.8,2076.0,8757.0,4.0,1,
163700,1862.9,21.5,109.8,254.4,2076.0,8757.0,4.0,1,
163800,1861.9,17.1,109.8,209.0,2076.0,8757.0,4.0,1,
163900,1862.9,19.7,109.8,185.1,2076.0,8757.0,4.0,1,
164000,1858.5,22.0,109.8,184.8,2076.0,8757.0,4.0,1,
164100,1862.5,148.0,109.9,221.5,1962.0,9551.0,4.0,1,
164200,1861.1,83.2,113.4,198.7,2421.0,11230.0,4.0,1,
164300,1835.4,104.3,95.4,47.8,2452.0,10410.0,4.0,1,
164400,1906.0,77.2,101.0,38.6,2051.0,8973.0,3.0,1,
164600,1896.8,134.4,104.5,73.6,2223.0,9040.0,3.0,1,
164700,1849.5,61.9,104.0,44.0,1822.0,8340.0,3.0,1,
164800,1856.9,22.8,103.5,45.8,1822.0,8340.0,3.0,1,
164900,1859.3,19.2,103.5,47.4,1822.0,8340.0,3.0,1,
165000,1857.3,21.4,103.5,43.2,1822.0,8340.0,3.0,1,
165100,1860.0,19.3,103.6,57.5,1822.0,8340.0,3.0,1,
165200,1862.4,19.1,103.5,216.3,1822.0,8340.0,3.0,1,
165300,1861.6,20.9,103.4,219.9,1822.0,8340.0,3.0,1,
165400,1856.3,19.1,103.4,239.5,1822.0,8340.0,3.0,1,
165600,1859.4,19.1,103.4,242.5,1822.0,8340.0,3.0,1,
165700,1862.5,61.3,103.3,238.4,2562.0,12073.0,4.0,1,
165800,1897.2,144.4,116.4,171.7,2290.0,8848.0,2.0,0,
165900,1816.8,297.5,143.9,92.1,2040.0,9021.0,2.0,0,
166000,1868.9,111.1,164.2,155.4,1743.0,6472.0,2.0,0,
166100,1872.2,312.9,175.5,132.7,2308.0,8379.0,2.0,0,
166200,1826.9,178.2,198.3,94.5,1589.0,7053.0,2.0,0,
166300,1901.0,214.2,205.9,130.1,1509.0,6311.0,2.0,0,
166400,1859.3,28.9,217.3,99.4,1509.0,6311.0,2.0,0,
166600,1860.5,18.2,217.3,137.5,1509.0,6311.0,2.0,0,
166700,1858.0,21.2,217.3,100.1,1509.0,6311.0,2.0,0,
166800,1861.9,19.3,217.3,137.5,1509.0,6311.0,2.0,0,
166900,1860.8,19.9,217.3,239.6,1509.0,6311.0,2.0,0,
167000,1859.8,17.5,217.3,240.2,1509.0,6311.0,2.0,0,
167100,1858.4,20.1,217.3,235.5,1509.0,6311.0,2.0,0,
167200,1860.1,20.7,217.3,221.0,1509.0,6311.0,2.0,0,
167300,1861.1,13.9,217.3,239.4,1509.0,6311.0,2.0,0,
167400,1846.0,236.0,212.8,239.8,2434.0,10868.0,4.0,1,
167600,1851.2,73.4,181.5,42.4,2182.0,9593.0,3.0,1,
167700,1876.3,157.9,171.7,37.2,2186.0,9151.0,4.0,1,
167800,1848.6,85.1,143.0,35.6,2128.0,9055.0,3.0,1,
167900,1858.2,170.4,133.2,29.9,2143.0,8972.0,3.0,1,
168000,1879.5,32.8,118.0,28.1,1935.0,8475.0,4.0,1,
168100,1859.7,19.2,118.0,29.8,1935.0,8475.0,4.0,1,
168200,1861.3,19.9,118.0,36.6,1935.0,8475.0,4.0,1,
168300,1860.4,18.1,118.0,39.3,1935.0,8475.0,4.0,1,
168400,1863.1,18.9,118.0,73.8,1935.0,8475.0,4.0,1,
168600,1866.0,19.1,118.0,209.4,1935.0,8475.0,4.0,1,
168700,1863.0,19.2,118.0,231.0,1935.0,8475.0,4.0,1,
168800,1864.0,18.0,118.0,239.8,1935.0,8475.0,4.0,1,
168900,1861.2,19.8,118.0,239.7,1935.0,8475.0,4.0,1,
169000,1860.8,85.7,118.6,229.8,2461.0,11254.0,4.0,1,
169100,1889.9,169.5,109.2,106.5,2514.0,11181.0,4.0,1,
169200,1839.3,114.9,124.1,49.8,2450.0,9960.0,4.0,1,
169300,1878.4,82.3,125.2,35.6,2248.0,9560.0,3.0,1,
169400,1843.2,123.4,112.5,36.6,2077.0,8917.0,3.0,1,
169600,1862.8,28.4,105.3,42.9,2023.0,8683.0,3.0,1,
169700,1862.0,18.1,104.7,43.0,2023.0,8683.0,3.0,1,
169800,1861.6,18.8,104.8,38.0,2023.0,8683.0,3.0,1,
169900,1858.7,21.6,104.7,41.7,2023.0,8683.0,3.0,1,
170000,1858.6,19.2,104.8,130.2,2023.0,8683.0,3.0,1,
170100,1858.9,20.1,104.9,215.1,2023.0,8683.0,3.0,1,
170200,1861.2,19.7,104.9,232.4,2023.0,8683.0,3.0,1,
170300,1860.2,15.8,105.0,240.9,2023.0,8683.0,3.0,1,
170400,1860.6,19.2,104.9,237.4,2023.0,8683.0,3.0,1,
170600,1843.7,154.8,105.0,235.4,2441.0,11276.0,4.0,1,
170700,1887.6,107.3,109.2,123.5,2479.0,11303.0,3.0,1,
170800,1840.6,76.5,89.1,65.8,2301.0,10554.0,3.0,1,
170900,1857.7,172.4,89.3,42.6,2177.0,9247.0,3.0,1,
171000,1874.1,86.5,97.9,42.9,2021.0,9132.0,3.0,1,
171100,1840.0,303.0,96.4,38.1,1972.0,9015.0,3.0,1,
171200,1887.9,52.9,116.3,28.8,1951.0,8542.0,3.0,1,
171300,1862.7,21.8,116.0,28.2,1951.0,8542.0,3.0,1,
171400,1861.1,22.9,116.1,27.7,1951.0,8542.0,3.0,1,
171600,1858.8,25.8,116.0,40.7,1951.0,8542.0,3.0,1,
171700,1858.6,19.4,116.0,239.9,1951.0,8542.0,3.0,1,
171800,1862.5,20.7,116.0,244.4,1951.0,8542.0,3.0,1,
171900,1864.5,16.9,115.9,240.1,1951.0,8542.0,3.0,1,
172000,1860.8,25.0,115.9,239.3,1951.0,8542.0,3.0,1,
172100,1858.8,17.8,116.0,239.3,1951.0,8542.0,3.0,1,
172200,1861.6,58.2,116.0,234.4,2206.0,10437.0,4.0,1,
172300,1819.4,66.0,110.5,215.0,2519.0,10752.0,3.0,1,
172400,1914.9,93.6,112.8,99.6,2491.0,10221.0,3.0,1,
172600,1881.3,146.2,117.1,39.2,2131.0,8980.0,4.0,1,
172700,1870.4,98.8,116.1,36.6,1947.0,8664.0,3.0,1,
172800,1844.1,67.8,93.9,37.3,1776.0,8242.0,3.0,1,
172900,1865.9,21.5,95.9,34.6,1776.0,8242.0,3.0,1,
173000,1864.5,21.4,95.9,34.2,1776.0,8242.0,3.0,1,
173100,1861.3,21.9,95.9,37.7,1776.0,8242.0,3.0,1,
173200,1860.6,17.6,95.9,55.5,1776.0,8242.0,3.0,1,
173300,1856.3,23.4,95.9,212.8,1776.0,8242.0,3.0,1,
173400,1861.7,18.6,96.0,260.1,1776.0,8242.0,3.0,1,
173600,1860.0,18.5,96.0,175.7,1776.0,8242.0,3.0,1,
173700,1861.1,18.5,95.9,210.2,1776.0,8242.0,3.0,1,
173800,1860.2,133.8,96.0,220.9,2553.0,10973.0,3.0,1,
173900,1863.3,70.5,114.2,89.2,2507.0,10458.0,3.0,1,
174000,1861.0,77.0,114.5,37.2,2529.0,10185.0,4.0,1,
174100,1858.4,93.6,108.0,34.4,2243.0,9176.0,4.0,1,
174200,1853.9,79.9,108.0,29.1,2137.0,9029.0,3.0,1,
174300,1872.8,186.6,96.1,41.1,2064.0,8601.0,4.0,1,
174400,1864.1,81.1,110.3,45.1,1885.0,8310.0,3.0,1,
174600,1860.7,21.5,107.6,36.5,1885.0,8310.0,3.0,1,
174700,1860.2,17.0,107.6,29.9,1885.0,8310.0,3.0,1,
174800,1862.0,21.6,107.6,41.4,1885.0,8310.0,3.0,1,
174900,1859.9,18.5,107.6,203.3,1885.0,8310.0,3.0,1,
175000,1862.4,21.7,107.5,236.5,1885.0,8310.0,3.0,1,
175100,1862.1,23.8,107.6,206.5,1885.0,8310.0,3.0,1,
175200,1862.5,20.5,107.5,238.8,1885.0,8310.0,3.0,1,
175300,1865.7,24.4,107.5,239.4,1885.0,8310.0,3.0,1,
175400,1863.3,24.2,107.6,237.7,1885.0,8310.0,3.0,1,
175600,1874.6,91.3,91.4,122.6,2476.0,9992.0,3.0,1,
175700,1867.7,65.1,94.1,66.3,2108.0,9173.0,4.0,1,
175800,1852.6,81.9,102.9,36.9,2113.0,8698.0,4.0,1,
175900,1874.5,120.3,103.8,36.7,1949.0,8642.0,3.0,1,
176000,1845.5,127.6,90.0,37.3,1808.0,8174.0,3.0,1,
176100,1883.3,27.3,96.0,34.2,1952.0,8153.0,4.0,1,
176200,1860.5,18.1,96.0,36.2,1952.0,8153.0,4.0,1,
176300,1860.8,20.1,96.0,36.6,1952.0,8153.0,4.0,1,
176400,1861.1,18.6,96.0,40.1,1952.0,8153.0,4.0,1,
176600,1857.2,20.4,96.1,233.4,1952.0,8153.0,4.0,1,
176700,1864.5,20.9,96.1,239.1,1952.0,8153.0,4.0,1,
176800,1863.2,25.9,96.1,238.7,1952.0,8153.0,4.0,1,
176900,1865.0,17.4,96.2,236.6,1952.0,8153.0,4.0,1,
177000,1864.7,20.0,96.1,237.5,1952.0,8153.0,4.0,1,
177100,1897.9,71.0,96.5,234.9,2341.0,11111.0,3.0,1,
177200,1805.8,169.8,93.6,111.3,2543.0,10588.0,4.0,1,
177300,1892.2,154.3,100.1,66.5,2429.0,10030.0,3.0,1,
177400,1847.2,84.2,105.2,37.5,2050.0,8926.0,3.0,1,
177600,1870.8,298.0,130.5,38.9,2101.0,7676.0,2.0,0,
177700,1859.4,38.9,152.6,194.5,1338.0,6187.0,2.0,0,
177800,1860.2,21.8,152.6,194.7,1338.0,6187.0,2.0,0,
177900,1856.0,22.4,152.6,132.0,1338.0,6187.0,2.0,0,
178000,1861.0,23.1,152.6,102.5,1338.0,6187.0,2.0,0,
178100,1860.1,19.4,152.7,132.0,1338.0,6187.0,2.0,0,
178200,1860.7,22.5,152.6,239.5,1338.0,6187.0,2.0,0,
178300,1864.2,21.7,152.5,239.5,1338.0,6187.0,2.0,0,
178400,1861.3,21.3,152.6,238.4,1338.0,6187.0,2.0,0,
178600,1863.2,19.4,152.6,226.8,1338.0,6187.0,2.0,0,
178700,1853.9,61.4,152.7,217.8,2309.0,10959.0,4.0,1,
178800,1877.8,101.0,153.4,165.5,2332.0,10542.0,3.0,1,
178900,1836.7,91.0,149.3,92.4,2123.0,9704.0,4.0,1,
179000,1897.7,163.6,146.3,67.2,2073.0,9023.0,3.0,1,
179100,1840.9,91.6,150.3,66.8,1908.0,8636.0,3.0,1,
179200,1866.8,163.5,139.5,47.5,1830.0,8450.0,3.0,1,
179300,1876.0,34.1,100.7,35.3,1735.0,7793.0,3.0,1,
179400,1864.6,22.0,100.6,35.4,1735.0,7793.0,3.0,1,
179600,1861.0,20.0,100.6,40.6,1735.0,7793.0,3.0,1,
179700,1860.2,20.4,100.6,110.8,1735.0,7793.0,3.0,1,
179800,1862.3,20.0,100.7,240.0,1735.0,7793.0,3.0,1,
179900,1859.4,20.5,100.7,241.0,1735.0,7793.0,3.0,1,
180000,1863.5,19.3,100.6,240.7,1735.0,7793.0,3.0,1,
180100,1863.2,21.9,100.6,253.9,1735.0,7793.0,3.0,1,
180200,1860.5,16.5,100.7,247.7,1735.0,7793.0,3.0,1,
180300,1843.7,53.4,100.7,238.8,2373.0,11363.0,4.0,1,
180400,1874.3,57.9,100.0,207.1,2318.0,10586.0,4.0,1,
180600,1864.3,91.9,97.4,94.0,2143.0,9319.0,3.0,1,
180700,1865.0,149.4,91.0,93.1,2172.0,8929.0,4.0,1,
180800,1857.3,114.5,92.6,80.4,1910.0,8728.0,3.0,1,
180900,1855.6,68.2,90.5,50.3,1664.0,8076.0,3.0,1,
181000,1877.4,21.7,92.8,34.7,1664.0,8076.0,3.0,1,
181100,1863.3,18.8,92.7,30.1,1664.0,8076.0,3.0,1,
181200,1860.3,21.3,92.7,35.4,1664.0,8076.0,3.0,1,
181300,1859.1,20.2,92.7,40.7,1664.0,8076.0,3.0,1,
181400,1861.3,25.3,92.7,234.2,1664.0,8076.0,3.0,1,
181600,1863.2,22.0,92.7,239.9,1664.0,8076.0,3.0,1,
181700,1861.5,19.2,92.7,228.6,1664.0,8076.0,3.0,1,
181800,1863.5,22.8,92.6,239.7,1664.0,8076.0,3.0,1,
181900,1858.5,38.7,92.7,244.0,2346.0,11031.0,3.0,1,
182000,1880.5,94.0,97.7,215.6,2365.0,11044.0,3.0,1,
182100,1837.4,106.6,97.8,69.2,2722.0,11798.0,4.0,1,
182200,1874.4,132.8,106.9,65.6,2334.0,9598.0,3.0,1,
182300,1852.2,77.4,114.4,40.5,2027.0,8819.0,3.0,1,
182400,1856.0,135.4,111.4,30.0,1912.0,8180.0,4.0,1,
182600,1856.5,24.2,104.8,36.7,1912.0,8180.0,4.0,1,
182700,1864.4,19.2,104.8,56.3,1912.0,8180.0,4.0,1,
182800,1860.3,19.6,104.8,42.2,1912.0,8180.0,4.0,1,
182900,1858.8,24.4,104.8,55.5,1912.0,8180.0,4.0,1,
183000,1860.9,17.5,104.8,233.3,1912.0,8180.0,4.0,1,
183100,1860.6,22.7,104.7,239.6,1912.0,8180.0,4.0,1,
183200,1858.9,22.7,104.8,239.4,1912.0,8180.0,4.0,1,
183300,1860.9,24.7,104.9,240.5,1912.0,8180.0,4.0,1,
183400,1854.7,18.4,105.1,262.8,1912.0,8180.0,4.0,1,
183600,1834.6,117.8,104.8,233.0,2487.0,10569.0,3.0,1,
183700,1903.7,142.9,118.9,93.6,2696.0,11055.0,3.0,1,
183800,1834.9,74.4,118.9,39.3,2199.0,9852.0,3.0,1,
183900,1873.5,184.6,109.2,29.6,2060.0,9189.0,4.0,1,
184000,1868.5,93.0,111.0,29.2,2014.0,8506.0,3.0,1,
184100,1853.8,125.5,111.3,37.9,1801.0,8090.0,4.0,1,
184200,1864.6,24.0,115.8,39.4,1801.0,8090.0,4.0,1,
184300,1861.3,17.8,115.8,30.2,1801.0,8090.0,4.0,1,
184400,1862.5,19.3,115.8,35.6,1801.0,8090.0,4.0,1,
184600,1857.7,21.6,115.8,176.6,1801.0,8090.0,4.0,1,
184700,1862.1,19.9,115.8,240.9,1801.0,8090.0,4.0,1,
184800,1861.2,18.8,115.7,240.3,1801.0,8090.0,4.0,1,
184900,1864.8,18.9,115.6,239.6,1801.0,8090.0,4.0,1,
185000,1859.3,22.9,115.5,238.9,1801.0,8090.0,4.0,1,
185100,1862.5,15.6,115.6,240.1,1801.0,8090.0,4.0,1,
185200,1870.3,70.7,115.4,239.6,2432.0,11184.0,4.0,1,
185300,1863.8,66.3,104.0,144.8,2379.0,10469.0,4.0,1,
185400,1849.1,186.6,91.0,68.3,2327.0,9552.0,4.0,1,
185600,1850.8,153.1,95.8,40.2,1647.0,6985.0,28.0,0,
185700,1870.4,359.2,124.6,38.3,2273.0,7767.0,2.0,0,
185800,1862.9,36.5,148.5,132.7,1323.0,6062.0,2.0,0,
185900,1861.4,21.0,148.5,163.5,1323.0,6062.0,2.0,0,
186000,1858.2,19.3,148.5,130.0,1323.0,6062.0,2.0,0,
186100,1858.2,17.8,148.5,100.5,1323.0,6062.0,2.0,0,
186200,1861.6,19.8,148.5,118.2,1323.0,6062.0,2.0,0,
186300,1862.3,19.0,148.4,235.6,1323.0,6062.0,2.0,0,
186400,1864.4,19.6,148.4,237.9,1323.0,6062.0,2.0,0,
186600,1865.1,19.2,148.4,240.1,1323.0,6062.0,2.0,0,
186700,1866.8,19.7,148.3,240.6,1323.0,6062.0,2.0,0,
186800,1845.8,62.4,148.4,240.0,2631.0,11927.0,4.0,1,
186900,1873.3,171.2,149.0,164.3,2778.0,11832.0,3.0,1,
187000,1860.6,58.7,153.8,74.0,2289.0,9662.0,3.0,1,
187100,1844.5,69.9,148.6,46.7,2208.0,9209.0,4.0,1,
187200,1895.9,122.3,150.3,36.8,1737.0,7270.0,3.0,1,
187300,1841.2,90.7,141.5,37.1,1865.0,8141.0,4.0,1,
187400,1872.7,31.2,86.7,49.2,1813.0,8202.0,4.0,1,
187600,1863.0,21.4,86.7,40.6,1813.0,8202.0,4.0,1,
187700,1859.2,20.6,86.7,44.0,1813.0,8202.0,4.0,1,
187800,1859.0,18.0,86.8,103.5,1813.0,8202.0,4.0,1,
187900,1861.4,18.3,86.8,240.8,1813.0,8202.0,4.0,1,
188000,1860.0,17.6,86.9,240.3,1813.0,8202.0,4.0,1,
188100,1859.2,21.3,86.8,240.0,1813.0,8202.0,4.0,1,
188200,1861.6,15.0,86.8,240.3,1813.0,8202.0,4.0,1,
188300,1863.0,18.4,86.8,229.3,1813.0,8202.0,4.0,1,
188400,1895.8,123.5,86.8,203.1,2635.0,11878.0,4.0,1,
188600,1860.4,269.4,81.4,37.9,2347.0,9784.0,4.0,1,
188700,1879.4,88.8,100.8,37.2,2262.0,9257.0,3.0,1,
188800,1850.1,153.2,100.2,37.4,1912.0,8256.0,3.0,1,
188900,1863.3,123.0,110.5,30.2,1694.0,6686.0,3.0,1,
189000,1851.7,39.4,113.4,30.0,1809.0,8365.0,3.0,1,
189100,1873.6,20.8,112.9,35.1,1809.0,8365.0,3.0,1,
189200,1860.4,16.7,112.9,36.7,1809.0,8365.0,3.0,1,
189300,1858.0,17.8,112.9,38.7,1809.0,8365.0,3.0,1,
189400,1861.3,19.8,112.9,81.7,1809.0,8365.0,3.0,1,
189600,1859.3,21.2,112.9,228.5,1809.0,8365.0,3.0,1,
189700,1857.0,19.9,113.0,236.0,1809.0,8365.0,3.0,1,
189800,1862.8,14.9,113.0,239.4,1809.0,8365.0,3.0,1,
189900,1861.9,17.7,113.0,232.6,1809.0,8365.0,3.0,1,
190000,1862.2,48.8,113.0,218.3,2697.0,12157.0,4.0,1,
190100,1848.1,84.6,119.1,166.1,2562.0,10935.0,4.0,1,
190200,1880.6,80.2,119.6,71.7,2338.0,10375.0,3.0,1,
190300,1841.9,147.3,104.3,44.5,2229.0,9333.0,3.0,1,
190400,1886.7,66.4,115.0,46.8,2028.0,8429.0,3.0,1,
190600,1873.5,100.4,116.3,35.7,1870.0,8020.0,3.0,1,
190700,1863.7,24.3,123.7,29.7,1870.0,8020.0,3.0,1,
190800,1860.8,20.3,123.6,29.8,1870.0,8020.0,3.0,1,
190900,1859.1,18.9,123.7,34.7,1870.0,8020.0,3.0,1,
191000,1859.2,19.8,123.7,37.1,1870.0,8020.0,3.0,1,
191100,1859.2,18.9,123.6,204.6,1870.0,8020.0,3.0,1,
191200,1855.8,16.6,123.6,241.2,1870.0,8020.0,3.0,1,
191300,1863.7,16.0,123.5,240.3,1870.0,8020.0,3.0,1,
191400,1859.7,21.3,123.5,238.2,1870.0,8020.0,3.0,1,
191600,1860.7,107.3,123.6,238.7,2382.0,11009.0,3.0,1,
191700,1860.3,59.3,122.5,173.0,2444.0,10729.0,4.0,1,
191800,1837.4,131.4,125.9,29.6,2498.0,10103.0,3.0,1,
191900,1889.5,127.6,130.7,29.4,2400.0,9577.0,3.0,1,
192000,1838.1,97.4,122.9,40.5,2157.0,9510.0,4.0,1,
192100,1889.9,98.5,123.4,45.2,2075.0,8816.0,3.0,1,
192200,1825.0,72.3,108.2,38.1,1879.0,8499.0,4.0,1,
192300,1874.3,19.7,99.9,44.4,1879.0,8499.0,4.0,1,
192400,1861.3,18.0,99.8,36.5,1879.0,8499.0,4.0,1,
192600,1861.5,17.1,99.8,43.3,1879.0,8499.0,4.0,1,
192700,1859.8,20.6,99.7,219.1,1879.0,8499.0,4.0,1,
192800,1862.2,17.9,99.6,238.7,1879.0,8499.0,4.0,1,
192900,1858.7,21.6,99.7,237.7,1879.0,8499.0,4.0,1,
193000,1862.4,18.1,99.8,229.6,1879.0,8499.0,4.0,1,
193100,1862.1,19.3,99.7,231.9,1879.0,8499.0,4.0,1,
193200,1863.2,20.1,99.7,240.0,1879.0,8499.0,4.0,1,
193300,1860.1,113.7,110.4,225.8,2468.0,11113.0,3.0,1,
193400,1880.4,102.4,116.8,49.0,2488.0,10711.0,4.0,1,
193600,1856.6,85.2,102.9,41.2,2297.0,9422.0,3.0,1,
193700,1843.5,77.8,103.9,46.7,2082.0,9139.0,3.0,1,
193800,1873.6,113.2,101.7,47.2,1935.0,8565.0,4.0,1,
193900,1873.5,22.4,102.0,37.2,2130.0,9127.0,3.0,1,
194000,1859.1,17.7,102.0,43.3,2130.0,9127.0,3.0,1,
194100,1857.8,17.2,102.0,52.1,2130.0,9127.0,3.0,1,
194200,1859.3,17.6,102.1,65.5,2130.0,9127.0,3.0,1,
194300,1859.9,20.9,102.1,175.4,2130.0,9127.0,3.0,1,
194400,1860.9,21.1,102.2,229.1,2130.0,9127.0,3.0,1,
194600,1861.3,18.1,102.2,240.6,2130.0,9127.0,3.0,1,
194700,1860.0,17.6,102.3,239.7,2130.0,9127.0,3.0,1,
194800,1860.0,16.5,102.3,239.6,2130.0,9127.0,3.0,1,
194900,1855.5,57.1,101.4,238.3,2655.0,11207.0,4.0,1,
195000,1845.7,46.0,80.7,125.8,2593.0,9739.0,3.0,1,
195100,1888.3,113.7,96.0,84.0,2586.0,10853.0,3.0,1,
195200,1850.5,249.8,95.8,43.4,2225.0,9260.0,4.0,1,
195300,1865.1,166.1,117.3,28.1,2232.0,8950.0,4.0,1,
195400,1881.9,75.1,119.3,28.5,1920.0,8748.0,3.0,1,
195600,1862.9,20.9,118.1,44.4,1920.0,8748.0,3.0,1,
195700,1859.2,17.6,118.1,36.5,1920.0,8748.0,3.0,1,
195800,1859.9,17.0,118.1,37.2,1920.0,8748.0,3.0,1,
195900,1860.8,16.1,118.0,190.0,1920.0,8748.0,3.0,1,
196000,1861.6,17.6,118.0,240.3,1920.0,8748.0,3.0,1,
196100,1862.4,16.8,117.9,239.6,1920.0,8748.0,3.0,1,
196200,1860.4,20.8,117.9,236.3,1920.0,8748.0,3.0,1,
196300,1860.1,18.3,117.9,240.3,1920.0,8748.0,3.0,1,
196400,1864.0,22.0,117.8,242.4,1920.0,8748.0,3.0,1,
196600,1897.2,107.7,131.0,184.1,2512.0,10842.0,3.0,1,
196700,1836.7,80.7,131.7,45.9,2705.0,11464.0,4.0,1,
196800,1903.8,87.6,118.4,35.7,2289.0,9441.0,3.0,1,
196900,1823.1,68.4,99.2,34.4,1946.0,8588.0,3.0,1,
197000,1863.0,258.2,91.1,48.6,2163.0,9236.0,4.0,1,
197100,1882.4,38.1,103.7,66.6,1855.0,8437.0,3.0,1,
197200,1861.6,16.8,103.7,43.4,1855.0,8437.0,3.0,1,
197300,1856.3,15.0,103.6,40.1,1855.0,8437.0,3.0,1,
197400,1857.7,19.6,103.7,35.3,1855.0,8437.0,3.0,1,
197600,1859.2,18.2,103.7,238.1,1855.0,8437.0,3.0,1,
197700,1860.2,16.4,103.8,239.5,1855.0,8437.0,3.0,1,
197800,1861.4,19.5,103.7,211.3,1855.0,8437.0,3.0,1,
197900,1863.2,21.6,103.7,238.5,1855.0,8437.0,3.0,1,
198000,1859.7,17.9,103.8,239.7,1855.0,8437.0,3.0,1,
198100,1861.8,68.1,103.8,239.6,2619.0,11771.0,4.0,1,
198200,1850.5,145.2,102.2,209.2,2621.0,10847.0,3.0,1,
198300,1863.3,96.2,107.1,78.9,2620.0,10954.0,3.0,1,
198400,1856.3,46.7,107.7,49.4,2397.0,10087.0,4.0,1,
198600,1873.2,88.6,111.2,37.6,2055.0,9013.0,3.0,1,
198700,1865.5,72.4,101.9,42.9,1936.0,8499.0,3.0,1,
198800,1844.3,19.3,104.3,30.1,1936.0,8499.0,3.0,1,
198900,1864.3,18.0,104.2,29.8,1936.0,8499.0,3.0,1,
199000,1860.5,19.6,104.2,30.1,1936.0,8499.0,3.0,1,
199100,1856.2,21.8,104.3,44.7,1936.0,8499.0,3.0,1,
199200,1859.8,17.3,104.4,228.3,1936.0,8499.0,3.0,1,
199300,1863.1,19.5,104.3,239.5,1936.0,8499.0,3.0,1,
199400,1859.8,21.9,104.3,240.4,1936.0,8499.0,3.0,1,
199600,1863.6,17.2,104.4,239.9,1936.0,8499.0,3.0,1,
199700,1862.1,68.2,104.4,231.5,2547.0,11761.0,3.0,1,
199800,1879.8,61.2,106.6,196.7,2564.0,11198.0,3.0,1,
199900,1855.6,77.6,85.9,81.4,2493.0,10628.0,4.0,1,
200000,1864.7,105.8,97.6,70.7,2463.0,9679.0,4.0,1,
200100,1880.0,86.1,97.3,66.8,1974.0,8498.0,3.0,1,
200200,1814.7,204.5,106.8,37.8,1990.0,8440.0,4.0,1,
200300,1879.8,68.6,117.0,29.8,1886.0,8383.0,3.0,1,
200400,1868.2,20.2,113.1,29.1,1886.0,8383.0,3.0,1,
200600,1859.2,17.3,113.2,27.3,1886.0,8383.0,3.0,1,
200700,1858.9,17.8,113.1,39.3,1886.0,8383.0,3.0,1,
200800,1862.7,19.2,113.0,206.5,1886.0,8383.0,3.0,1,
200900,1859.4,19.4,113.0,240.9,1886.0,8383.0,3.0,1,
201000,1860.6,17.0,113.1,244.6,1886.0,8383.0,3.0,1,
201100,1861.4,16.8,113.0,240.3,1886.0,8383.0,3.0,1,
201200,1860.8,16.0,113.0,239.8,1886.0,8383.0,3.0,1,
201300,1865.7,50.1,112.9,239.4,1886.0,8383.0,3.0,1,
201400,1839.0,169.1,111.5,239.3,2567.0,11581.0,4.0,1,
201600,1817.4,61.3,114.1,43.9,2256.0,9732.0,4.0,1,
201700,1874.7,176.9,109.3,41.0,2215.0,9196.0,4.0,1,
201800,1877.7,97.1,112.3,41.2,2099.0,8880.0,3.0,1,
201900,1836.3,261.7,88.2,50.8,1876.0,8500.0,3.0,1,
202000,1882.5,30.6,116.6,36.1,1956.0,8561.0,3.0,1,
202100,1857.6,16.5,116.6,29.9,1956.0,8561.0,3.0,1,
202200,1858.8,19.6,116.6,36.8,1956.0,8561.0,3.0,1,
202300,1862.1,17.8,116.6,40.1,1956.0,8561.0,3.0,1,
202400,1862.1,17.0,116.6,154.0,1956.0,8561.0,3.0,1,
202600,1858.4,19.5,116.6,235.9,1956.0,8561.0,3.0,1,
202700,1860.8,20.7,116.6,233.9,1956.0,8561.0,3.0,1,
202800,1862.7,20.3,116.7,237.8,1956.0,8561.0,3.0,1,
202900,1861.8,48.9,116.7,216.5,1956.0,8561.0,3.0,1,
203000,1887.3,94.4,121.8,202.8,2657.0,11785.0,4.0,1,
203100,1849.3,52.2,115.4,41.8,2875.0,11517.0,4.0,1,
203200,1862.4,274.3,114.0,34.5,2719.0,10522.0,4.0,1,
203300,1876.2,96.5,129.1,42.0,2377.0,9715.0,3.0,1,
203400,1866.8,141.2,126.1,36.9,2022.0,8724.0,3.0,1,
203600,1872.7,24.4,108.2,30.0,2054.0,8839.0,3.0,1,
203700,1863.7,18.2,108.2,34.3,2054.0,8839.0,3.0,1,
203800,1860.0,17.2,108.2,35.1,2054.0,8839.0,3.0,1,
203900,1862.4,22.0,108.2,40.1,2054.0,8839.0,3.0,1,
204000,1860.7,18.5,108.2,163.8,2054.0,8839.0,3.0,1,
204100,1862.2,20.8,108.2,241.2,2054.0,8839.0,3.0,1,
204200,1862.9,19.5,108.1,240.4,2054.0,8839.0,3.0,1,
204300,1863.4,21.8,108.1,240.3,2054.0,8839.0,3.0,1,
204400,1858.6,20.8,108.1,240.6,2054.0,8839.0,3.0,1,
204600,1852.1,56.3,102.8,236.4,2788.0,13172.0,4.0,1,
204700,1860.5,267.2,110.3,137.5,2531.0,10845.0,3.0,1,
204800,1893.7,68.8,127.8,37.6,2356.0,9718.0,3.0,1,
204900,1814.9,164.1,112.5,28.0,2059.0,8562.0,3.0,1,
205000,1893.9,66.1,124.9,28.7,1964.0,8155.0,3.0,1,
205100,1854.7,92.2,118.3,29.8,1967.0,8250.0,3.0,1,
205200,1861.1,45.8,121.3,35.4,1860.0,8176.0,3.0,1,
205300,1862.7,19.3,121.5,37.9,1860.0,8176.0,3.0,1,
205400,1860.9,23.0,121.5,37.4,1860.0,8176.0,3.0,1,
205600,1862.8,17.7,121.6,101.3,1860.0,8176.0,3.0,1,
205700,1862.7,16.7,121.6,240.0,1860.0,8176.0,3.0,1,
205800,1860.4,20.5,121.6,238.0,1860.0,8176.0,3.0,1,
205900,1865.1,19.3,121.6,239.4,1860.0,8176.0,3.0,1,
206000,1863.7,17.0,121.5,240.1,1860.0,8176.0,3.0,1,
206100,1862.6,20.5,121.5,240.2,1860.0,8176.0,3.0,1,
206200,1892.2,47.4,121.5,239.8,2787.0,12381.0,5.0,1,
206300,1837.7,55.8,117.4,205.9,2588.0,11008.0,3.0,1,
206400,1858.0,347.3,94.6,70.5,2456.0,10053.0,3.0,1,
206600,1836.4,87.9,117.0,45.1,2060.0,9396.0,4.0,1,
206700,1903.6,218.4,125.0,44.3,2061.0,8859.0,3.0,1,
206800,1827.0,50.1,133.3,36.8,1912.0,8394.0,3.0,1,
206900,1882.5,22.3,131.5,28.9,1912.0,8394.0,3.0,1,
207000,1858.4,17.3,131.5,28.2,1912.0,8394.0,3.0,1,
207100,1863.4,22.6,131.4,29.1,1912.0,8394.0,3.0,1,
207200,1859.9,20.3,131.4,54.2,1912.0,8394.0,3.0,1,
207300,1863.7,20.7,131.4,221.2,1912.0,8394.0,3.0,1,
207400,1864.8,18.3,131.5,239.7,1912.0,8394.0,3.0,1,
207600,1862.5,17.0,131.4,247.2,1912.0,8394.0,3.0,1,
207700,1863.1,21.3,131.4,240.9,1912.0,8394.0,3.0,1,
207800,1862.6,38.1,131.4,216.2,2941.0,12739.0,4.0,1,
207900,1851.2,63.7,130.9,198.4,2474.0,10660.0,4.0,1,
208000,1882.2,90.4,130.8,100.3,2627.0,10681.0,4.0,1,
208100,1872.1,56.7,101.2,80.9,2182.0,9126.0,3.0,1,
208200,1824.0,156.4,97.3,93.3,2030.0,8777.0,4.0,1,
208300,1885.1,77.9,97.1,84.2,2072.0,8642.0,3.0,1,
208400,1849.5,72.1,73.1,40.9,1811.0,8186.0,3.0,1,
208600,1862.2,17.7,76.0,29.9,1811.0,8186.0,3.0,1,
208700,1860.3,18.5,76.0,30.1,1811.0,8186.0,3.0,1,
208800,1859.2,18.4,76.0,37.3,1811.0,8186.0,3.0,1,
208900,1862.2,21.9,76.0,238.3,1811.0,8186.0,3.0,1,
209000,1857.7,17.2,76.0,240.8,1811.0,8186.0,3.0,1,
209100,1863.2,17.3,76.0,240.3,1811.0,8186.0,3.0,1,
209200,1859.2,22.1,76.1,240.1,1811.0,8186.0,3.0,1,
209300,1861.9,18.5,76.1,240.6,1811.0,8186.0,3.0,1,
209400,1863.0,186.0,76.1,239.5,1811.0,8186.0,3.0,1,
209600,1812.3,54.5,95.4,39.3,2486.0,10387.0,4.0,1,
209700,1878.0,180.2,95.5,38.9,2355.0,9717.0,4.0,1,
209800,1873.9,100.9,101.5,39.9,2167.0,9044.0,3.0,1,
209900,1830.3,192.3,96.9,46.8,1949.0,8275.0,3.0,1,
210000,1905.3,76.3,108.4,30.2,1974.0,8417.0,3.0,1,
210100,1843.9,19.7,106.4,29.4,1974.0,8417.0,3.0,1,
210200,1857.0,17.6,106.5,34.5,1974.0,8417.0,3.0,1,
210300,1861.5,18.8,106.5,29.9,1974.0,8417.0,3.0,1,
210400,1863.1,18.6,106.5,38.9,1974.0,8417.0,3.0,1,
210600,1859.0,19.6,106.5,241.3,1974.0,8417.0,3.0,1,
210700,1863.5,20.4,106.5,239.5,1974.0,8417.0,3.0,1,
210800,1858.5,18.4,106.5,211.7,1974.0,8417.0,3.0,1,
210900,1860.5,21.7,106.5,211.1,1974.0,8417.0,3.0,1,
211000,1862.0,15.1,106.5,227.2,1974.0,8417.0,3.0,1,
211100,1842.4,57.7,90.4,238.7,2492.0,11264.0,4.0,1,
211200,1871.2,91.9,90.7,135.6,2731.0,11383.0,4.0,1,
211300,1845.6,87.7,91.6,87.1,2253.0,9755.0,3.0,1,
211400,1889.0,238.1,86.5,67.4,2024.0,8947.0,3.0,1,
211600,1858.4,266.0,98.5,35.8,1741.0,8442.0,3.0,1,
211700,1876.5,36.2,110.9,29.2,1714.0,7809.0,3.0,1,
211800,1860.5,18.0,111.0,29.6,1714.0,7809.0,3.0,1,
211900,1863.8,16.6,110.9,35.8,1714.0,7809.0,3.0,1,
212000,1861.6,19.6,110.9,37.0,1714.0,7809.0,3.0,1,
212100,1865.4,21.7,110.9,155.5,1714.0,7809.0,3.0,1,
212200,1863.0,16.8,110.8,240.0,1714.0,7809.0,3.0,1,
212300,1860.4,18.7,110.8,237.4,1714.0,7809.0,3.0,1,
212400,1862.4,22.0,110.7,236.9,1714.0,7809.0,3.0,1,
212600,1856.2,19.4,110.8,240.9,1714.0,7809.0,3.0,1,
212700,1874.9,103.6,111.1,240.0,2140.0,10775.0,5.0,1,
212800,1876.1,66.3,112.3,105.6,2346.0,10442.0,4.0,1,
212900,1822.6,236.0,115.3,68.3,2123.0,9572.0,4.0,1,
213000,1892.3,112.8,127.2,66.4,1764.0,7548.0,3.0,1,
213100,1847.0,155.0,111.5,38.0,1808.0,8462.0,4.0,1,
213200,1857.8,87.1,113.0,28.1,1801.0,8436.0,3.0,1,
213300,1862.5,23.9,100.3,28.9,1823.0,8108.0,3.0,1,
213400,1862.8,16.2,100.2,37.1,1823.0,8108.0,3.0,1,
213600,1859.7,15.0,100.2,37.7,1823.0,8108.0,3.0,1,
213700,1861.2,18.4,100.2,125.9,1823.0,8108.0,3.0,1,
213800,1858.6,16.0,100.2,234.2,1823.0,8108.0,3.0,1,
213900,1864.5,17.3,100.2,239.7,1823.0,8108.0,3.0,1,
214000,1864.7,13.8,100.1,240.3,1823.0,8108.0,3.0,1,
214100,1862.5,17.1,100.0,238.6,1823.0,8108.0,3.0,1,
214200,1861.1,15.8,99.9,215.4,1823.0,8108.0,3.0,1,
214300,1848.7,43.5,99.8,218.2,2161.0,10826.0,4.0,1,
214400,1868.6,94.9,114.1,116.8,2318.0,10259.0,4.0,1,
214600,1826.1,134.0,98.2,40.6,2017.0,9281.0,3.0,1,
214700,1904.0,123.1,111.3,41.4,1943.0,8591.0,3.0,1,
214800,1815.2,98.1,111.9,37.5,1845.0,8514.0,3.0,1,
214900,1879.3,33.0,112.2,28.1,1718.0,7925.0,4.0,1,
215000,1870.7,15.3,111.7,29.1,1718.0,7925.0,4.0,1,
215100,1864.5,17.3,111.7,30.1,1718.0,7925.0,4.0,1,
215200,1861.9,18.3,111.7,35.8,1718.0,7925.0,4.0,1,
215300,1861.1,17.0,111.7,70.8,1718.0,7925.0,4.0,1,
215400,1862.6,19.5,111.7,241.0,1718.0,7925.0,4.0,1,
215600,1863.8,16.5,111.7,273.3,1718.0,7925.0,4.0,1,
215700,1860.8,14.6,111.8,272.0,1718.0,7925.0,4.0,1,
215800,1865.3,18.1,111.7,262.5,1718.0,7925.0,4.0,1,
215900,1862.3,61.9,111.8,238.0,2186.0,10469.0,4.0,1,
216000,1855.4,87.1,114.0,157.9,2017.0,10079.0,4.0,1,
216100,1883.6,94.1,99.4,67.9,2218.0,10221.0,3.0,1,
216200,1838.5,90.8,103.0,65.7,2045.0,9634.0,3.0,1,
216300,1857.6,137.6,94.3,66.3,1863.0,9291.0,4.0,1,
216400,1869.2,181.3,89.4,66.6,1836.0,8796.0,4.0,1,
216600,1875.9,19.1,95.3,39.5,1836.0,8796.0,4.0,1,
216700,1856.9,18.7,95.5,37.8,1836.0,8796.0,4.0,1,
216800,1860.8,19.6,95.6,34.2,1836.0,8796.0,4.0,1,
216900,1859.8,17.3,95.6,39.5,1836.0,8796.0,4.0,1,
217000,1861.6,17.4,95.6,227.6,1836.0,8796.0,4.0,1,
217100,1859.8,19.0,95.6,244.8,1836.0,8796.0,4.0,1,
217200,1864.6,17.0,95.6,270.1,1836.0,8796.0,4.0,1,
217300,1862.3,16.6,95.6,246.5,1836.0,8796.0,4.0,1,
217400,1861.9,18.6,95.7,239.9,1836.0,8796.0,4.0,1,
217600,1829.7,74.4,93.6,211.9,2154.0,10654.0,3.0,1,
217700,1911.7,88.6,95.6,91.9,2000.0,10041.0,3.0,1,
217800,1844.6,119.0,95.3,74.4,1861.0,9591.0,4.0,1,
217900,1853.5,201.1,95.4,83.1,1923.0,9318.0,3.0,1,
218000,1884.4,100.7,101.3,81.1,1694.0,8610.0,3.0,1,
218100,1821.1,74.4,98.1,65.7,1863.0,9494.0,4.0,1,
218200,1894.2,20.2,97.5,37.3,1863.0,9494.0,4.0,1,
218300,1857.8,20.2,97.5,30.1,1863.0,9494.0,4.0,1,
218400,1860.7,18.9,97.5,34.8,1863.0,9494.0,4.0,1,
218600,1858.0,17.6,97.4,201.0,1863.0,9494.0,4.0,1,
218700,1863.4,18.3,97.4,239.6,1863.0,9494.0,4.0,1,
218800,1861.7,18.1,97.4,233.3,1863.0,9494.0,4.0,1,
218900,1860.3,21.1,97.4,231.1,1863.0,9494.0,4.0,1,
219000,1863.8,14.0,97.5,239.1,1863.0,9494.0,4.0,1,
219100,1862.1,25.4,97.4,239.4,1863.0,9494.0,4.0,1,
219200,1875.8,70.7,97.7,235.9,1874.0,9120.0,4.0,1,
219300,1826.0,75.2,94.8,103.8,2080.0,9723.0,4.0,1,
219400,1900.2,137.4,93.3,90.8,1967.0,8878.0,3.0,1,
219600,1869.0,122.0,87.6,42.1,1991.0,9130.0,3.0,1,
219700,1890.3,104.6,100.0,30.2,1830.0,8506.0,3.0,1,
219800,1851.1,20.2,99.0,36.5,1947.0,8628.0,3.0,1,
219900,1864.8,16.4,98.9,44.7,1947.0,8628.0,3.0,1,
220000,1859.0,21.0,98.9,38.6,1947.0,8628.0,3.0,1,
220100,1860.9,17.2,99.0,38.9,1947.0,8628.0,3.0,1,
220200,1857.8,18.7,99.0,173.9,1947.0,8628.0,3.0,1,
220300,1861.6,19.8,99.1,208.6,1947.0,8628.0,3.0,1,
220400,1860.5,19.4,99.1,246.6,1947.0,8628.0,3.0,1,
220600,1860.5,19.8,99.2,240.1,1947.0,8628.0,3.0,1,
220700,1860.7,19.4,99.3,228.5,1947.0,8628.0,3.0,1,
220800,1867.5,128.4,99.5,239.0,2009.0,9883.0,4.0,1,
220900,1830.5,115.2,108.5,92.9,2347.0,10944.0,4.0,1,
221000,1880.7,88.9,109.9,66.2,2053.0,9408.0,3.0,1,
221100,1840.8,115.6,104.2,65.7,1930.0,8762.0,3.0,1,
221200,1863.3,95.0,106.1,65.7,1772.0,8250.0,3.0,1,
221300,1855.5,174.4,97.4,66.2,1651.0,7498.0,3.0,1,
221400,1876.8,30.8,108.0,47.5,1612.0,7860.0,4.0,1,
221600,1857.6,16.7,108.0,30.2,1612.0,7860.0,4.0,1,
221700,1862.8,17.1,108.0,35.8,1612.0,7860.0,4.0,1,
221800,1857.7,21.5,108.0,103.2,1612.0,7860.0,4.0,1,
221900,1855.9,15.8,108.0,239.9,1612.0,7860.0,4.0,1,
222000,1862.3,15.5,107.9,240.8,1612.0,7860.0,4.0,1,
222100,1862.3,17.1,107.9,248.5,1612.0,7860.0,4.0,1,
222200,1865.1,16.5,107.8,241.1,1612.0,7860.0,4.0,1,
222300,1860.3,19.4,107.8,242.1,1612.0,7860.0,4.0,1,
222400,1873.0,75.6,108.1,241.0,2104.0,10425.0,5.0,1,
222600,1843.3,101.8,98.3,70.0,2070.0,9183.0,4.0,1,
222700,1899.2,92.1,110.4,86.8,1962.0,8916.0,3.0,1,
222800,1818.9,244.5,108.4,66.9,1695.0,8008.0,4.0,1,
222900,1893.8,116.1,119.6,36.1,1759.0,8039.0,3.0,1,
223000,1853.5,28.9,105.4,29.7,1730.0,7897.0,3.0,1,
223100,1862.5,16.6,105.4,37.8,1730.0,7897.0,3.0,1,
223200,1860.2,19.1,105.4,42.4,1730.0,7897.0,3.0,1,
223300,1858.3,20.1,105.4,39.9,1730.0,7897.0,3.0,1,
223400,1857.9,20.2,105.4,139.4,1730.0,7897.0,3.0,1,
223600,1861.8,21.9,105.3,252.0,1730.0,7897.0,3.0,1,
223700,1859.4,18.5,105.4,266.7,1730.0,7897.0,3.0,1,
223800,1861.7,18.7,105.5,241.4,1730.0,7897.0,3.0,1,
223900,1862.7,16.9,105.5,239.5,1730.0,7897.0,3.0,1,
224000,1841.9,55.0,105.5,227.5,2138.0,10726.0,4.0,1,
224100,1878.5,95.5,109.7,142.9,2261.0,9890.0,4.0,1,
224200,1848.9,69.0,113.9,67.8,2260.0,10060.0,3.0,1,
224300,1858.0,138.6,104.1,65.4,1928.0,8938.0,3.0,1,
224400,1873.5,144.0,105.1,66.4,1817.0,8211.0,3.0,1,
224600,1862.9,60.0,100.5,38.1,1645.0,7851.0,3.0,1,
224700,1864.7,17.6,101.9,29.4,1645.0,7851.0,3.0,1,
224800,1861.3,18.5,101.9,34.6,1645.0,7851.0,3.0,1,
224900,1860.5,19.0,101.9,36.8,1645.0,7851.0,3.0,1,
225000,1859.2,19.6,101.9,78.2,1645.0,7851.0,3.0,1,
225100,1861.4,19.6,101.9,237.0,1645.0,7851.0,3.0,1,
225200,1860.8,20.6,101.9,227.5,1645.0,7851.0,3.0,1,
225300,1859.1,19.5,101.9,240.7,1645.0,7851.0,3.0,1,
225400,1864.9,18.1,102.0,263.2,1645.0,7851.0,3.0,1,
225600,1862.9,34.2,102.0,241.5,2612.0,12031.0,4.0,1,
225700,1877.7,89.3,111.4,185.8,2200.0,9923.0,3.0,1,
225800,1840.8,93.8,101.8,49.6,2270.0,9917.0,4.0,1,
225900,1876.8,135.8,103.3,37.2,1706.0,7843.0,3.0,1,
226000,1864.7,62.2,102.8,36.9,1765.0,8134.0,3.0,1,
226100,1832.6,100.2,95.0,49.1,1771.0,8044.0,3.0,1,
226200,1895.6,59.4,98.1,42.8,1750.0,7873.0,3.0,1,
226300,1861.3,21.6,93.8,38.0,1750.0,7873.0,3.0,1,
226400,1861.8,19.0,93.9,51.0,1750.0,7873.0,3.0,1,
226600,1861.2,16.2,93.8,81.8,1750.0,7873.0,3.0,1,
226700,1858.8,21.3,93.9,237.8,1750.0,7873.0,3.0,1,
226800,1860.8,20.8,93.9,239.6,1750.0,7873.0,3.0,1,
226900,1860.1,23.5,93.9,239.2,1750.0,7873.0,3.0,1,
227000,1859.1,18.7,94.0,205.7,1750.0,7873.0,3.0,1,
227100,1862.6,17.9,94.0,212.8,1750.0,7873.0,3.0,1,
227200,1863.1,45.4,93.9,240.0,1750.0,7873.0,3.0,1,
227300,1828.6,75.1,93.5,238.2,2422.0,10568.0,4.0,1,
227400,1905.8,126.7,110.9,85.5,2493.0,10009.0,4.0,1,
227600,1858.7,96.5,109.4,35.7,2044.0,8717.0,3.0,1,
227700,1879.7,84.4,112.8,36.8,2107.0,9180.0,3.0,1,
227800,1854.3,145.1,108.3,44.3,1935.0,8463.0,3.0,1,
227900,1853.8,28.1,113.6,42.1,1935.0,8463.0,3.0,1,
228000,1858.2,18.4,113.6,29.5,1935.0,8463.0,3.0,1,
228100,1861.5,23.1,113.6,29.5,1935.0,8463.0,3.0,1,
228200,1856.5,20.1,113.7,34.4,1935.0,8463.0,3.0,1,
228300,1859.6,20.5,113.7,123.0,1935.0,8463.0,3.0,1,
228400,1858.4,18.7,113.7,216.6,1935.0,8463.0,3.0,1,
228600,1861.3,17.9,113.6,239.3,1935.0,8463.0,3.0,1,
228700,1867.3,19.3,113.6,239.4,1935.0,8463.0,3.0,1,
228800,1861.6,122.5,113.6,239.1,1935.0,8463.0,3.0,1,
228900,1862.6,213.4,136.2,137.4,2439.0,10888.0,5.0,1,
229000,1884.3,84.7,128.3,45.1,2567.0,11385.0,3.0,1,
229100,1844.6,277.3,115.7,44.5,2123.0,8842.0,3.0,1,
229200,1883.6,85.4,138.8,44.5,1866.0,7867.0,3.0,1,
229300,1840.7,92.8,136.1,38.1,1710.0,7875.0,4.0,1,
229400,1872.5,116.3,136.7,39.0,1735.0,7924.0,3.0,1,
229600,1862.0,21.4,138.2,29.5,1735.0,7924.0,3.0,1,
229700,1860.5,20.7,138.2,28.3,1735.0,7924.0,3.0,1,
229800,1858.1,19.1,138.2,38.1,1735.0,7924.0,3.0,1,
229900,1859.3,15.7,138.1,236.9,1735.0,7924.0,3.0,1,
230000,1861.7,17.4,138.1,240.0,1735.0,7924.0,3.0,1,
230100,1861.0,14.7,138.0,239.3,1735.0,7924.0,3.0,1,
230200,1863.2,17.9,138.0,239.3,1735.0,7924.0,3.0,1,
230300,1861.5,18.3,138.0,241.1,1735.0,7924.0,3.0,1,
230400,1862.0,17.4,138.0,240.1,1735.0,7924.0,3.0,1,
230600,1847.0,116.4,112.5,125.9,2232.0,9784.0,4.0,1,
230700,1888.9,79.8,119.2,66.5,2013.0,9180.0,3.0,1,
230800,1836.8,95.2,94.5,65.6,1904.0,8592.0,4.0,1,
230900,1893.0,145.8,95.8,65.5,1795.0,8199.0,3.0,1,
231000,1855.8,77.9,105.2,45.9,1776.0,8011.0,3.0,1,
231100,1855.5,42.5,112.4,41.9,1668.0,7974.0,3.0,1,
231200,1864.5,16.9,112.3,29.9,1668.0,7974.0,3.0,1,
231300,1861.8,15.5,112.3,29.4,1668.0,7974.0,3.0,1,
231400,1858.4,19.7,112.2,29.7,1668.0,7974.0,3.0,1,
231600,1861.2,17.6,112.3,249.1,1668.0,7974.0,3.0,1,
231700,1860.5,16.7,112.3,241.1,1668.0,7974.0,3.0,1,
231800,1861.7,16.3,112.3,239.4,1668.0,7974.0,3.0,1,
231900,1859.6,16.1,112.3,238.2,1668.0,7974.0,3.0,1,
232000,1856.5,16.9,112.4,238.7,1668.0,7974.0,3.0,1,
232100,1902.5,46.2,112.3,232.8,2546.0,11666.0,4.0,1,
232200,1837.6,69.8,114.3,152.7,2374.0,9965.0,3.0,1,
232300,1856.4,73.7,104.0,66.6,2477.0,9956.0,4.0,1,
232400,1878.0,106.2,100.3,46.6,2345.0,9435.0,3.0,1,
232600,1847.3,83.5,94.7,42.3,2052.0,8936.0,4.0,1,
232700,1853.7,30.6,77.2,34.6,1911.0,8530.0,3.0,1,
232800,1877.2,16.5,74.0,30.1,1911.0,8530.0,3.0,1,
232900,1857.6,16.7,74.1,47.6,1911.0,8530.0,3.0,1,
233000,1860.3,13.7,74.1,80.7,1911.0,8530.0,3.0,1,
233100,1861.5,16.6,74.0,184.0,1911.0,8530.0,3.0,1,
233200,1859.5,13.4,73.9,239.8,1911.0,8530.0,3.0,1,
233300,1860.2,17.2,73.8,227.2,1911.0,8530.0,3.0,1,
233400,1864.8,16.5,73.8,218.1,1911.0,8530.0,3.0,1,
233600,1863.4,15.4,73.5,236.1,1911.0,8530.0,3.0,1,
233700,1862.8,42.4,73.5,269.4,2832.0,12208.0,4.0,1,
233800,1839.5,112.3,72.5,251.2,2384.0,10159.0,4.0,1,
233900,1898.5,63.8,72.7,93.2,2391.0,9631.0,3.0,1,
234000,1837.4,87.8,72.8,67.0,2078.0,8486.0,3.0,1,
234100,1853.0,231.7,64.0,67.1,1884.0,8006.0,4.0,1,
234200,1882.8,63.4,79.9,38.0,1797.0,7752.0,3.0,1,
234300,1847.4,69.4,78.7,29.5,1667.0,7621.0,3.0,1,
234400,1865.6,17.1,85.6,28.3,1667.0,7621.0,3.0,1,
234600,1859.6,17.3,85.6,29.4,1667.0,7621.0,3.0,1,
234700,1861.5,13.6,85.6,34.7,1667.0,7621.0,3.0,1,
234800,1863.7,14.9,85.6,189.8,1667.0,7621.0,3.0,1,
234900,1861.0,15.1,85.6,251.3,1667.0,7621.0,3.0,1,
235000,1860.8,16.7,85.7,253.5,1667.0,7621.0,3.0,1,
235100,1858.4,16.3,85.7,281.6,1667.0,7621.0,3.0,1,
235200,1862.5,14.7,85.7,266.3,1667.0,7621.0,3.0,1,
235300,1858.2,41.4,85.7,249.4,2746.0,11889.0,4.0,1,
235400,1891.1,101.6,91.2,236.2,2502.0,10392.0,3.0,1,
235600,1867.2,162.7,97.2,35.8,2358.0,9755.0,4.0,1,
235700,1873.9,46.6,99.3,34.7,2038.0,8477.0,3.0,1,
235800,1872.4,90.7,89.2,30.1,1994.0,8779.0,4.0,1,
235900,1861.2,66.0,101.4,28.2,1956.0,8437.0,3.0,1,
236000,1861.0,20.8,95.9,29.3,1956.0,8437.0,3.0,1,
236100,1861.7,15.9,95.9,30.0,1956.0,8437.0,3.0,1,
236200,1860.3,18.2,95.9,36.8,1956.0,8437.0,3.0,1,
236300,1856.8,15.5,95.9,92.1,1956.0,8437.0,3.0,1,
236400,1859.3,15.5,96.0,239.6,1956.0,8437.0,3.0,1,
236600,1860.3,14.6,96.0,216.5,1956.0,8437.0,3.0,1,
236700,1863.8,15.5,95.9,241.7,1956.0,8437.0,3.0,1,
236800,1862.8,15.7,95.9,243.5,1956.0,8437.0,3.0,1,
236900,1859.6,13.5,95.9,244.0,1956.0,8437.0,3.0,1,
237000,1843.4,42.3,90.7,227.5,2271.0,9580.0,4.0,1,
237100,1862.8,183.8,89.2,110.2,2288.0,8569.0,4.0,1,
237200,1881.2,40.5,100.3,66.0,2003.0,7851.0,3.0,1,
237300,1841.4,181.2,92.9,36.3,1927.0,7618.0,4.0,1,
237400,1872.2,59.2,107.6,34.3,1831.0,7400.0,3.0,1,
237600,1875.4,22.8,93.5,27.8,1722.0,7519.0,3.0,1,
237700,1860.5,17.9,93.5,27.7,1722.0,7519.0,3.0,1,
237800,1858.6,17.5,93.5,36.6,1722.0,7519.0,3.0,1,
237900,1864.0,19.1,93.4,53.7,1722.0,7519.0,3.0,1,
238000,1861.3,15.8,93.4,190.2,1722.0,7519.0,3.0,1,
238100,1858.3,16.4,93.5,239.4,1722.0,7519.0,3.0,1,
238200,1858.7,19.6,93.5,249.7,1722.0,7519.0,3.0,1,
238300,1859.1,14.4,93.6,249.9,1722.0,7519.0,3.0,1,
238400,1858.3,15.6,93.7,238.8,1722.0,7519.0,3.0,1,
238600,1883.8,179.0,96.1,239.3,2390.0,10260.0,4.0,1,
238700,1857.6,59.4,108.3,47.8,2702.0,11096.0,3.0,1,
238800,1850.4,51.5,105.6,35.5,2227.0,8744.0,4.0,1,
238900,1888.4,62.2,106.3,30.2,1950.0,7962.0,3.0,1,
239000,1844.5,174.4,90.4,30.2,1755.0,7681.0,3.0,1,
239100,1896.4,85.6,104.8,37.3,1751.0,7552.0,3.0,1,
239200,1835.8,21.9,104.3,29.0,1762.0,7685.0,3.0,1,
239300,1864.1,15.4,104.3,28.0,1762.0,7685.0,3.0,1,
239400,1859.3,14.2,104.3,27.1,1762.0,7685.0,3.0,1,
239600,1860.0,16.5,104.3,187.8,1762.0,7685.0,3.0,1,
239700,1857.4,14.8,104.3,232.1,1762.0,7685.0,3.0,1,
239800,1859.5,16.7,104.3,239.3,1762.0,7685.0,3.0,1,
239900,1858.6,19.4,104.3,239.3,1762.0,7685.0,3.0,1,
240000,1860.4,15.8,104.3,229.5,1762.0,7685.0,3.0,1,
240100,1861.8,15.5,104.4,228.2,1762.0,7685.0,3.0,1,
240200,1850.0,25.1,102.2,214.4,2483.0,11113.0,4.0,1,
240300,1855.2,75.7,86.0,200.8,2449.0,9409.0,3.0,1,
240400,1887.0,98.4,104.9,67.6,2444.0,9640.0,3.0,1,
240600,1854.9,93.7,109.4,28.7,1860.0,7782.0,3.0,1,
240700,1846.1,45.6,102.3,29.2,1788.0,7870.0,3.0,1,
240800,1867.2,29.8,96.0,35.7,1733.0,7744.0,3.0,1,
240900,1867.2,17.7,95.9,38.1,1733.0,7744.0,3.0,1,
241000,1862.7,16.2,95.9,29.9,1733.0,7744.0,3.0,1,
241100,1862.5,15.4,95.9,34.9,1733.0,7744.0,3.0,1,
241200,1863.8,18.4,95.9,111.2,1733.0,7744.0,3.0,1,
241300,1858.7,14.8,95.8,237.4,1733.0,7744.0,3.0,1,
241400,1864.6,15.6,95.8,234.8,1733.0,7744.0,3.0,1,
241600,1863.7,15.7,95.6,237.5,1733.0,7744.0,3.0,1,
241700,1863.3,18.0,95.6,238.9,1733.0,7744.0,3.0,1,
241800,1858.5,38.4,95.6,238.0,2746.0,12209.0,4.0,1,
241900,1897.1,81.4,109.9,141.5,2338.0,9364.0,3.0,1,
242000,1826.5,125.8,101.7,37.0,2345.0,9564.0,4.0,1,
242100,1873.3,128.3,100.2,34.4,2061.0,8102.0,3.0,1,
242200,1863.6,52.5,102.7,29.9,2000.0,8607.0,3.0,1,
242300,1853.8,74.5,118.2,28.8,1824.0,7759.0,4.0,1,
242400,1895.7,40.0,123.0,28.6,1766.0,7323.0,3.0,1,
242600,1862.8,14.2,122.2,34.8,1766.0,7323.0,3.0,1,
242700,1860.1,13.0,122.3,37.6,1766.0,7323.0,3.0,1,
242800,1862.0,14.5,122.3,78.7,1766.0,7323.0,3.0,1,
242900,1861.5,16.5,122.2,234.8,1766.0,7323.0,3.0,1,
243000,1861.2,16.4,122.3,238.3,1766.0,7323.0,3.0,1,
243100,1864.5,15.8,122.3,247.8,1766.0,7323.0,3.0,1,
243200,1859.6,16.4,122.3,269.7,1766.0,7323.0,3.0,1,
243300,1864.2,15.2,122.3,261.2,1766.0,7323.0,3.0,1,
243400,1862.3,33.6,122.3,246.3,2710.0,11653.0,4.0,1,
243600,1878.3,131.5,114.0,91.9,2541.0,10107.0,4.0,1,
243700,1863.3,63.4,110.8,47.7,2181.0,9117.0,3.0,1,
243800,1869.6,98.6,99.2,45.7,1912.0,8227.0,4.0,1,
243900,1844.4,60.3,92.4,37.7,1818.0,7846.0,3.0,1,
244000,1850.2,123.1,76.5,30.1,1706.0,7366.0,3.0,1,
244100,1876.0,19.3,93.9,37.4,1706.0,7366.0,3.0,1,
244200,1859.5,15.6,94.0,29.7,1706.0,7366.0,3.0,1,
244300,1862.9,16.8,94.0,29.7,1706.0,7366.0,3.0,1,
244400,1858.6,15.1,94.0,34.4,1706.0,7366.0,3.0,1,
244600,1866.3,16.8,94.0,236.2,1706.0,7366.0,3.0,1,
244700,1859.1,19.3,94.0,220.9,1706.0,7366.0,3.0,1,
244800,1861.7,16.2,94.1,200.2,1706.0,7366.0,3.0,1,
244900,1861.5,16.1,94.1,200.7,1706.0,7366.0,3.0,1,
245000,1860.9,198.1,94.1,188.9,1706.0,7366.0,3.0,1,
245100,1866.9,122.4,110.1,85.2,2241.0,9341.0,4.0,1,
245200,1889.4,46.3,106.6,39.8,2447.0,9563.0,4.0,1,
245300,1826.5,176.1,109.6,39.2,2262.0,8871.0,4.0,1,
245400,1868.4,40.1,118.0,36.6,2148.0,8707.0,3.0,1,
245600,1866.5,98.2,110.6,27.7,1939.0,8307.0,3.0,1,
245700,1874.3,18.9,101.4,28.7,1939.0,8307.0,3.0,1,
245800,1860.1,15.9,101.4,30.1,1939.0,8307.0,3.0,1,
245900,1860.0,16.5,101.3,36.5,1939.0,8307.0,3.0,1,
246000,1860.2,18.3,101.3,44.5,1939.0,8307.0,3.0,1,
246100,1860.4,15.1,101.4,178.2,1939.0,8307.0,3.0,1,
246200,1860.9,14.8,101.4,240.3,1939.0,8307.0,3.0,1,
246300,1862.9,17.8,101.4,241.8,1939.0,8307.0,3.0,1,
246400,1862.3,16.9,101.4,239.9,1939.0,8307.0,3.0,1,
246600,1860.8,13.0,101.4,235.4,1939.0,8307.0,3.0,1,
246700,1845.0,37.0,84.3,239.0,2433.0,10532.0,4.0,1,
246800,1857.2,66.5,86.0,124.3,2410.0,9549.0,4.0,1,
246900,1877.2,66.1,87.1,65.8,2402.0,10053.0,3.0,1,
247000,1845.0,106.9,66.9,36.9,1875.0,7609.0,4.0,1,
247100,1907.8,62.3,83.5,36.6,1816.0,7546.0,3.0,1,
247200,1809.9,67.8,84.0,29.9,1729.0,7793.0,3.0,1,
247300,1874.8,24.6,76.7,34.5,1695.0,7437.0,3.0,1,
247400,1858.8,14.5,76.7,36.8,1695.0,7437.0,3.0,1,
247600,1861.1,16.7,76.7,36.3,1695.0,7437.0,3.0,1,
247700,1859.6,14.7,76.7,185.9,1695.0,7437.0,3.0,1,
247800,1858.4,16.4,76.6,261.9,1695.0,7437.0,3.0,1,
247900,1863.7,19.1,76.7,252.6,1695.0,7437.0,3.0,1,
248000,1858.5,17.5,76.7,239.9,1695.0,7437.0,3.0,1,
248100,1860.2,16.4,76.7,238.6,1695.0,7437.0,3.0,1,
248200,1859.4,16.9,76.8,241.9,1695.0,7437.0,3.0,1,
248300,1863.9,164.7,77.3,240.1,2403.0,11108.0,4.0,1,
248400,1869.3,66.1,85.5,155.5,2348.0,10333.0,3.0,1,
248600,1847.2,76.9,95.8,36.9,2032.0,8676.0,3.0,1,
248700,1854.4,56.3,84.4,35.5,1983.0,8773.0,4.0,1,
248800,1886.8,94.4,86.0,40.3,1867.0,8065.0,4.0,1,
248900,1854.9,28.4,87.7,39.4,1879.0,8839.0,3.0,1,
249000,1863.0,16.2,87.7,35.1,1879.0,8839.0,3.0,1,
249100,1858.2,17.2,87.7,35.9,1879.0,8839.0,3.0,1,
249200,1859.2,14.1,87.7,39.1,1879.0,8839.0,3.0,1,
249300,1859.3,16.0,87.7,111.4,1879.0,8839.0,3.0,1,
249400,1861.5,13.3,87.7,240.0,1879.0,8839.0,3.0,1,
249600,1861.6,17.1,87.5,215.7,1879.0,8839.0,3.0,1,
249700,1858.3,18.6,87.5,240.7,1879.0,8839.0,3.0,1,
249800,1860.5,18.4,87.6,239.9,1879.0,8839.0,3.0,1,
249900,1864.8,90.0,87.6,237.1,1526.0,9512.0,4.0,1,
250000,1822.1,166.5,94.5,134.3,1683.0,9489.0,3.0,1,
250100,1898.7,102.7,106.8,83.1,1978.0,9871.0,3.0,1,
250200,1846.2,246.5,101.4,79.4,1968.0,9885.0,4.0,1,
250300,1863.8,167.4,114.3,72.7,1849.0,8906.0,3.0,1,
250400,1863.5,186.0,125.8,36.2,1700.0,8444.0,3.0,1,
250600,1886.8,18.2,138.4,29.4,1700.0,8444.0,3.0,1,
250700,1860.5,15.9,138.4,29.8,1700.0,8444.0,3.0,1,
250800,1859.6,14.8,138.4,34.7,1700.0,8444.0,3.0,1,
250900,1859.6,15.7,138.4,38.1,1700.0,8444.0,3.0,1,
251000,1858.8,14.8,138.4,239.4,1700.0,8444.0,3.0,1,
251100,1862.5,18.8,138.4,239.6,1700.0,8444.0,3.0,1,
251200,1861.2,14.9,138.5,238.8,1700.0,8444.0,3.0,1,
251300,1861.9,16.2,138.4,231.7,1700.0,8444.0,3.0,1,
251400,1864.4,14.5,138.4,206.6,1700.0,8444.0,3.0,1,
251600,1880.9,101.7,137.9,168.4,1975.0,10417.0,4.0,1,
251700,1829.2,109.8,129.0,69.0,2128.0,10367.0,4.0,1,
251800,1907.4,97.7,128.2,68.0,1900.0,9261.0,3.0,1,
251900,1814.6,260.7,120.7,92.8,1812.0,8781.0,3.0,1,
252000,1884.0,120.0,126.3,93.2,1818.0,8716.0,4.0,1,
252100,1867.2,50.3,113.5,30.2,1739.0,8539.0,3.0,1,
252200,1854.7,16.9,113.1,30.1,1739.0,8539.0,3.0,1,
252300,1862.5,16.9,113.1,37.1,1739.0,8539.0,3.0,1,
252400,1859.8,16.4,113.1,38.7,1739.0,8539.0,3.0,1,
252600,1861.2,15.4,113.2,241.0,1739.0,8539.0,3.0,1,
252700,1863.0,16.7,113.2,239.9,1739.0,8539.0,3.0,1,
252800,1861.0,16.4,113.1,253.4,1739.0,8539.0,3.0,1,
252900,1862.5,16.2,113.1,265.9,1739.0,8539.0,3.0,1,
253000,1858.8,17.9,113.2,242.8,1739.0,8539.0,3.0,1,
253100,1861.0,61.8,113.2,240.8,1739.0,8539.0,3.0,1,
253200,1853.2,109.4,112.2,207.0,2002.0,10658.0,3.0,1,
253300,1850.0,63.1,113.1,89.6,2171.0,10069.0,3.0,1,
253400,1873.8,104.5,113.6,82.9,2018.0,9707.0,3.0,1,
253600,1851.4,112.3,103.5,94.0,1844.0,8658.0,3.0,1,
253700,1872.7,167.9,105.5,39.6,1684.0,8116.0,3.0,1,
253800,1864.2,20.4,112.9,29.2,1684.0,8116.0,3.0,1,
253900,1863.4,13.8,112.9,29.9,1684.0,8116.0,3.0,1,
254000,1861.3,14.7,112.8,37.8,1684.0,8116.0,3.0,1,
254100,1865.3,15.0,112.8,55.2,1684.0,8116.0,3.0,1,
254200,1864.4,14.7,112.7,230.9,1684.0,8116.0,3.0,1,
254300,1861.4,15.8,112.7,246.8,1684.0,8116.0,3.0,1,
254400,1862.1,17.1,112.7,238.1,1684.0,8116.0,3.0,1,
254600,1862.4,14.8,112.7,242.0,1684.0,8116.0,3.0,1,
254700,1862.3,18.7,112.7,240.8,1684.0,8116.0,3.0,1,
254800,1883.8,86.0,114.8,214.5,2059.0,10977.0,4.0,1,
254900,1849.2,96.7,112.0,79.8,2119.0,10525.0,3.0,1,
255000,1851.8,207.1,112.2,68.7,2043.0,9546.0,3.0,1,
255100,1877.7,109.1,118.6,68.4,2003.0,9068.0,3.0,1,
255200,1817.4,99.4,111.0,65.6,1657.0,8115.0,2.0,0,
255300,1899.1,95.3,119.8,35.5,1695.0,7926.0,3.0,1,
255400,1855.1,20.7,109.8,34.2,1758.0,8162.0,3.0,1,
255600,1860.7,15.3,109.9,37.0,1758.0,8162.0,3.0,1,
255700,1862.3,16.9,109.9,36.5,1758.0,8162.0,3.0,1,
255800,1860.0,14.6,110.0,147.8,1758.0,8162.0,3.0,1,
255900,1861.2,15.8,110.0,237.6,1758.0,8162.0,3.0,1,
256000,1864.3,20.3,110.0,239.4,1758.0,8162.0,3.0,1,
256100,1863.1,16.3,110.0,240.0,1758.0,8162.0,3.0,1,
256200,1863.5,15.6,109.9,207.0,1758.0,8162.0,3.0,1,
256300,1861.1,20.6,110.0,177.8,1758.0,8162.0,3.0,1,
256400,1832.3,82.9,109.8,187.6,2167.0,10956.0,4.0,1,
256600,1831.4,90.2,110.2,71.2,2049.0,9531.0,3.0,1,
256700,1870.5,121.3,104.1,77.6,1901.0,9407.0,3.0,1,
256800,1880.3,119.8,106.3,93.1,1787.0,8625.0,3.0,1,
256900,1827.9,240.4,104.8,66.3,1644.0,8192.0,2.0,0,
257000,1884.4,50.2,121.6,41.5,1578.0,7826.0,3.0,1,
257100,1861.7,17.2,121.7,29.6,1578.0,7826.0,3.0,1,
257200,1856.2,15.6,121.7,30.2,1578.0,7826.0,3.0,1,
257300,1858.7,13.2,121.7,37.4,1578.0,7826.0,3.0,1,
257400,1860.8,15.7,121.7,71.3,1578.0,7826.0,3.0,1,
257600,1857.1,16.2,121.7,239.1,1578.0,7826.0,3.0,1,
257700,1862.7,16.7,121.7,233.6,1578.0,7826.0,3.0,1,
257800,1859.3,17.7,121.8,233.0,1578.0,7826.0,3.0,1,
257900,1859.4,16.0,121.8,241.1,1578.0,7826.0,3.0,1,
258000,1852.3,120.2,121.7,240.7,1978.0,10585.0,5.0,1,
258100,1883.8,89.3,122.6,117.6,2133.0,10422.0,3.0,1,
258200,1839.6,213.5,121.3,68.3,2053.0,9936.0,4.0,1,
258300,1860.9,120.9,127.6,66.9,1903.0,9002.0,3.0,1,
258400,1865.4,149.5,126.7,66.5,1749.0,8282.0,3.0,1,
258600,1867.1,31.7,109.6,30.1,1633.0,7699.0,3.0,1,
258700,1868.4,17.5,109.1,30.1,1633.0,7699.0,3.0,1,
258800,1861.1,17.7,109.1,35.5,1633.0,7699.0,3.0,1,
258900,1858.9,15.3,109.1,38.3,1633.0,7699.0,3.0,1,
259000,1861.1,17.2,109.2,75.9,1633.0,7699.0,3.0,1,
259100,1860.8,18.3,109.2,230.0,1633.0,7699.0,3.0,1,
259200,1859.8,15.7,109.2,231.8,1633.0,7699.0,3.0,1,
259300,1863.3,16.1,109.1,240.0,1633.0,7699.0,3.0,1,
259400,1860.4,18.8,109.1,239.9,1633.0,7699.0,3.0,1,
259600,1858.2,69.9,109.3,239.8,2122.0,10617.0,4.0,1,
259700,1826.8,135.2,107.0,157.3,2224.0,10316.0,3.0,1,
259800,1910.8,98.2,109.9,69.2,2256.0,10099.0,3.0,1,
259900,1814.9,105.0,102.5,67.0,1888.0,9102.0,3.0,1,
260000,1879.4,176.2,103.8,65.9,1757.0,8042.0,4.0,1,
260100,1867.5,90.4,97.1,35.9,1638.0,7723.0,3.0,1,
260200,1848.3,46.0,92.6,44.5,1669.0,7728.0,3.0,1,
260300,1862.8,20.4,92.8,46.0,1669.0,7728.0,3.0,1,
260400,1861.4,16.6,92.8,30.2,1669.0,7728.0,3.0,1,
260600,1861.5,19.7,92.8,52.0,1669.0,7728.0,3.0,1,
260700,1861.3,20.4,92.8,225.7,1669.0,7728.0,3.0,1,
260800,1862.7,16.8,92.8,240.7,1669.0,7728.0,3.0,1,
260900,1862.3,18.9,92.8,240.5,1669.0,7728.0,3.0,1,
261000,1864.6,16.8,92.8,240.4,1669.0,7728.0,3.0,1,
