Time(ms),Raw_ADC
0,1858
1,1884
2,1867
3,1855
4,1871
5,1853
6,1802
7,1851
8,1871
9,1872
10,1853
11,1905
12,1809
13,1849
14,1873
15,1846
16,1862
17,1881
18,1872
19,1901
20,1888
21,1809
22,1872
23,1862
24,1840
25,1840
26,1845
27,1847
28,1855
29,1904
30,1872
31,1915
32,1884
33,1841
34,1841
35,1847
36,1875
37,1817
38,1851
39,1879
40,1898
41,1852
42,1858
43,1872
44,1877
45,1878
46,1873
47,1837
48,1879
49,1863
50,1870
51,1867
52,1875
53,1887
54,1923
55,1857
56,1886
57,1847
58,1851
59,1850
60,1849
61,1860
62,1853
63,1797
64,1850
65,1850
66,1860
67,1873
68,1856
69,1871
70,1915
71,1904
72,1877
73,1867
74,1854
75,1870
76,1859
77,1891
78,1859
79,1807
80,1872
81,1909
82,1851
83,1862
84,1877
85,1854
86,1850
87,1888
88,1856
89,1857
90,1907
91,1863
92,1856
93,1848
94,1902
95,1854
96,1857
97,1907
98,1847
99,1863
100,1866
101,1891
102,1801
103,1849
104,1895
105,1838
106,1840
107,1859
108,1858
109,1851
110,1862
111,1845
112,1902
113,1865
114,1860
115,1869
116,1856
117,1870
118,1873
119,1873
120,1857
121,1902
122,1841
123,1850
124,1867
125,1869
126,1845
127,1857
128,1818
129,1872
130,1833
131,1883
132,1858
133,1853
134,1872
135,1869
136,1879
137,1856
138,1843
139,1843
140,1873
141,1835
142,1855
143,1872
144,1842
145,1862
146,1842
147,1857
148,1793
149,1841
150,1879
151,1887
152,1837
153,1796
154,1850
155,1842
156,1886
157,1872
158,1865
159,1850
160,1867
161,1872
162,1822
163,1872
164,1853
165,1904
166,1871
167,1862
168,1856
169,1843
170,1849
171,1910
172,1854
173,1858
174,1833
175,1837
176,1842
177,1833
178,1856
179,1840
180,1855
181,1860
182,1877
183,1863
184,1867
185,1879
186,1857
187,1854
188,1904
189,1830
190,1867
191,1831
192,1855
193,1859
194,1900
195,1867
196,1857
197,1823
198,1833
199,1849
200,1870
201,1847
202,1845
203,1872
204,1869
205,1889
206,1872
207,1862
208,1865
209,1863
210,1841
211,1862
212,1812
213,1840
214,1793
215,1847
216,1859
217,1871
218,1879
219,1840
220,1861
221,1858
222,1895
223,1879
224,1850
225,1855
226,1858
227,1856
228,1855
229,1861
230,1907
231,1904
232,1865
233,1852
234,1871
235,1791
236,1885
237,1863
238,1855
239,1853
240,1846
241,1872
242,1871
243,1857
244,1867
245,1855
246,1872
247,1879
248,1806
249,1857
250,1867
251,1872
252,1843
253,1869
254,1877
255,1854
256,1863
257,1859
258,1835
259,1875
260,1872
261,1855
262,1863
263,1891
264,1836
265,1835
266,1840
267,1843
268,1863
269,1850
270,1808
271,1865
272,1856
273,1891
274,1853
275,1852
276,1858
277,1881
278,1867
279,1858
280,1815
281,1887
282,1872
283,1865
284,1866
285,1919
286,1857
287,1857
288,1834
289,1846
290,1824
291,1841
292,1883
293,1875
294,1890
295,1825
296,1814
297,1799
298,1841
299,1842
300,1855
301,1868
302,1852
303,1904
304,1830
305,1872
306,1908
307,1878
308,1839
309,1865
310,1851
311,1881
312,1849
313,1795
314,1897
315,1871
316,1875
317,1849
318,1878
319,1815
320,1856
321,1914
322,1856
323,1897
324,1853
325,1851
326,1841
327,1874
328,1850
329,1845
330,1836
331,1830
332,1858
333,1861
334,1863
335,1843
336,1840
337,1825
338,1863
339,1872
340,1859
341,1847
342,1841
343,1867
344,1862
345,1866
346,1882
347,1873
348,1875
349,1872
350,1863
351,1882
352,1889
353,1843
354,1803
355,1852
356,1829
357,1822
358,1856
359,1855
360,1855
361,1795
362,1859
363,1845
364,1851
365,1911
366,1854
367,1887
368,1869
369,1872
370,1914
371,1847
372,1858
373,1861
374,1846
375,1844
376,1853
377,1886
378,1854
379,1808
380,1828
381,1849
382,1859
383,1871
384,1873
385,1895
386,1859
387,1855
388,1895
389,1867
390,1839
391,1865
392,1866
393,1866
394,1899
395,1841
396,1840
397,1874
398,1796
399,1885
400,1829
401,1872
402,1882
403,1854
404,1872
405,1852
406,1899
407,1866
408,1862
409,1869
410,1861
411,1865
412,1889
413,1915
414,1874
415,1872
416,1855
417,1875
418,1871
419,1840
420,1805
421,1856
422,1863
423,1855
424,1870
425,1859
426,1870
427,1872
428,1796
429,1850
430,1855
431,1885
432,1874
433,1873
434,1865
435,1870
436,1917
437,1858
438,1840
439,1879
440,1869
441,1856
442,1843
443,1859
444,1864
445,1873
446,1833
447,1793
448,1854
449,1853
450,1856
451,1871
452,1851
453,1888
454,1847
455,1837
456,1855
457,1840
458,1841
459,1854
460,1853
461,1859
462,1889
463,1856
464,1843
465,1882
466,1852
467,1899
468,1873
469,1854
470,1863
471,1906
472,1922
473,1843
474,1855
475,1859
476,1843
477,1899
478,1890
479,1861
480,1834
481,1878
482,1856
483,1863
484,1878
485,1886
486,1839
487,1857
488,1893
489,1797
490,1851
491,1849
492,1847
493,1855
494,1824
495,1856
496,1825
497,1872
498,1863
499,1847
500,1863
501,1872
502,1847
503,1819
504,1862
505,1838
506,1860
507,1846
508,1861
509,1870
510,1852
511,1861
512,1863
513,1915
514,1839
515,1934
516,1874
517,1847
518,1852
519,1863
520,1876
521,1891
522,1887
523,1872
524,1847
525,1853
526,1871
527,1873
528,1860
529,1869
530,1871
531,1853
532,1871
533,1866
534,1863
535,1855
536,1867
537,1891
538,1863
539,1826
540,1827
541,1855
542,1847
543,1851
544,1867
545,1866
546,1805
547,1857
548,1886
549,1850
550,1875
551,1872
552,1858
553,1918
554,1863
555,1888
556,1856
557,1873
558,1840
559,1873
560,1858
561,1826
562,1836
563,1887
564,1855
565,1866
566,1863
567,1847
568,1858
569,1808
570,1858
571,1920
572,1869
573,1791
574,1875
575,1872
576,1857
577,1844
578,1850
579,1849
580,1906
581,1859
582,1845
583,1870
584,1874
585,1904
586,1866
587,1904
588,1889
589,1859
590,1825
591,1856
592,1858
593,1853
594,1831
595,1842
596,1865
597,1893
598,1871
599,1862
600,1874
601,1861
602,1874
603,1859
604,1897
605,1898
606,1867
607,1837
608,1872
609,1840
610,1855
611,1884
612,1904
613,1840
614,1869
615,1920
616,1861
617,1861
618,1863
619,1855
620,1883
621,1841
622,1881
623,1907
624,1853
625,1856
626,1863
627,1848
628,1808
629,1843
630,1868
631,1890
632,1856
633,1875
634,1850
635,1851
636,1878
637,1850
638,1849
639,1871
640,1869
641,1843
642,1869
643,1843
644,1872
645,1889
646,1862
647,1872
648,1829
649,1866
650,1868
651,1884
652,1872
653,1847
654,1865
655,1857
656,1807
657,1843
658,1856
659,1851
660,1849
661,1865
662,1837
663,1866
664,1838
665,1887
666,1873
667,1849
668,1855
669,1866
670,1868
671,1833
672,1905
673,1846
674,1847
675,1861
676,1855
677,1891
678,1798
679,1898
680,1808
681,1905
682,1872
683,1843
684,1871
685,1857
686,1824
687,1866
688,1888
689,1815
690,1841
691,1851
692,1847
693,1861
694,1815
695,1872
696,1871
697,1870
698,1860
699,1863
700,1871
701,1856
702,1859
703,1847
704,1876
705,1846
706,1877
707,1821
708,1849
709,1855
710,1851
711,1801
712,1851
713,1851
714,1865
715,1845
716,1856
717,1872
718,1872
719,1843
720,1854
721,1853
722,1874
723,1870
724,1854
725,1854
726,1405
727,1725
728,2377
729,2768
730,2839
731,2622
732,2341
733,2055
734,1846
735,1303
736,880
737,1005
738,1360
739,1601
740,1787
741,1893
742,1802
743,1670
744,1663
745,1709
746,1763
747,1822
748,1808
749,1831
750,1846
751,1871
752,1863
753,1889
754,1894
755,1882
756,1933
757,1535
758,1594
759,2315
760,2833
761,2853
762,2601
763,2139
764,1931
765,1535
766,976
767,1023
768,1107
769,1309
770,1950
771,2124
772,1939
773,1845
774,1777
775,1785
776,1812
777,1792
778,1814
779,1853
780,1850
781,1847
782,1887
783,1873
784,1904
785,1921
786,1906
787,1925
788,1730
789,1563
790,2124
791,2672
792,2641
793,2298
794,1777
795,1600
796,1579
797,1423
798,1376
799,1690
800,2008
801,2109
802,1936
803,1821
804,1748
805,1712
806,1747
807,1794
808,1763
809,1821
810,1845
811,1819
812,1926
813,1885
814,1925
815,1772
816,1845
817,1878
818,1889
819,1963
820,1454
821,1973
822,2761
823,2691
824,2173
825,1680
826,1494
827,1477
828,1411
829,1590
830,1835
831,2068
832,2062
833,1922
834,1837
835,1752
836,1814
837,1759
838,1744
839,1776
840,1808
841,1760
842,1804
843,1822
844,1866
845,1856
846,1927
847,1927
848,1891
849,1917
850,2595
851,1267
852,1907
853,2774
854,2647
855,2116
856,1665
857,1451
858,1635
859,1492
860,1712
861,1889
862,2053
863,2027
864,1941
865,1810
866,1707
867,1734
868,1739
869,1774
870,1823
871,1839
872,1851
873,1874
874,1871
875,1844
876,1867
877,1873
878,1885
879,1887
880,1920
881,2640
882,1264
883,1761
884,2736
885,2715
886,2096
887,1731
888,1503
889,1686
890,1614
891,1680
892,1834
893,1997
894,2007
895,1936
896,1805
897,1728
898,1693
899,1728
900,1767
901,1809
902,1855
903,1790
904,1860
905,1861
906,1873
907,1893
908,1867
909,1895
910,1875
911,1897
912,2200
913,1290
914,1707
915,2651
916,2761
917,2128
918,1832
919,1494
920,1678
921,1654
922,1600
923,1710
924,1936
925,1967
926,1886
927,1762
928,1674
929,1711
930,1693
931,1781
932,1816
933,1862
934,1869
935,1869
936,1929
937,1822
938,1869
939,1859
940,1915
941,1867
942,1901
943,1902
944,1316
945,1675
946,2485
947,2809
948,2181
949,1914
950,1535
951,1710
952,1634
953,1453
954,1681
955,1918
956,1978
957,1869
958,1754
959,1719
960,1727
961,1753
962,1788
963,1866
964,1829
965,1888
966,1891
967,1895
968,1889
969,1849
970,1891
971,1921
972,1856
973,1889
974,1876
975,1418
976,1535
977,2382
978,2944
979,2242
980,1936
981,1581
982,1634
983,1670
984,1488
985,1520
986,1887
987,1918
988,1901
989,1749
990,1695
991,1737
992,1753
993,1808
994,1835
995,1853
996,1872
997,1916
998,1931
999,1859
1000,1840
1001,1863
1002,1894
1003,1872
1004,1914
1005,1857
1006,1523
1007,1485
1008,2175
1009,2925
1010,2255
1011,1901
1012,1665
1013,1654
1014,1783
1015,1618
1016,1535
1017,1879
1018,1969
1019,1877
1020,1714
1021,1725
1022,1709
1023,1757
1024,1786
1025,1827
1026,1869
1027,1872
1028,1820
1029,1891
1030,1872
1031,1860
1032,1866
1033,1904
1034,1918
1035,1909
1036,1931
1037,1750
1038,1314
1039,1984
1040,2846
1041,2243
1042,1846
1043,1703
1044,1677
1045,1799
1046,1664
1047,1497
1048,1852
1049,1941
1050,1910
1051,1781
1052,1781
1053,1687
1054,1779
1055,1794
1056,1821
1057,1845
1058,1878
1059,1888
1060,1887
1061,1931
1062,1872
1063,1857
1064,1856
1065,1887
1066,1903
1067,1904
1068,2104
1069,1296
1070,1865
1071,2871
1072,2431
1073,1892
1074,1745
1075,1612
1076,1725
1077,1689
1078,1461
1079,1770
1080,1968
1081,1897
1082,1796
1083,1762
1084,1770
1085,1763
1086,1819
1087,1855
1088,1856
1089,1883
1090,1861
1091,1871
1092,1917
1093,1886
1094,1827
1095,1853
1096,1927
1097,1878
1098,1837
1099,2879
1100,1248
1101,1803
1102,2867
1103,2559
1104,1902
1105,1930
1106,1638
1107,1690
1108,1680
1109,1376
1110,1748
1111,1927
1112,1915
1113,1787
1114,1770
1115,1767
1116,1776
1117,1795
1118,1841
1119,1852
1120,1872
1121,1849
1122,1905
1123,1870
1124,1882
1125,1854
1126,1879
1127,1889
1128,1920
1129,1842
1130,2559
1131,1232
1132,1766
1133,2800
1134,2701
1135,1936
1136,1837
1137,1592
1138,1710
1139,1695
1140,1419
1141,1692
1142,1909
1143,1911
1144,1847
1145,1751
1146,1739
1147,1712
1148,1809
1149,1840
1150,1858
1151,1874
1152,1872
1153,1862
1154,1859
1155,1926
1156,1947
1157,1885
1158,1888
1159,1885
1160,1877
1161,1889
1162,1315
1163,1619
1164,2496
1165,2743
1166,1973
1167,1920
1168,1531
1169,1743
1170,1714
1171,1497
1172,1651
1173,1908
1174,1936
1175,1829
1176,1751
1177,1731
1178,1743
1179,1776
1180,1835
1181,1816
1182,1889
1183,1868
1184,1872
1185,1872
1186,1892
1187,1857
1188,1893
1189,1887
1190,1899
1191,1871
1192,1873
1193,1406
1194,1508
1195,2367
1196,2773
1197,2095
1198,1984
1199,1585
1200,1677
1201,1751
1202,1582
1203,1602
1204,1863
1205,1903
1206,1825
1207,1767
1208,1749
1209,1735
1210,1749
1211,1808
1212,1868
1213,1847
1214,1903
1215,1904
1216,1873
1217,1871
1218,1870
1219,1940
1220,1882
1221,1889
1222,1872
1223,1922
1224,1479
1225,1456
1226,2267
1227,2882
1228,2125
1229,1946
1230,1618
1231,1675
1232,1728
1233,1510
1234,1535
1235,1856
1236,1917
1237,1830
1238,1814
1239,1759
1240,1792
1241,1778
1242,1815
1243,1840
1244,1846
1245,1884
1246,1862
1247,1898
1248,1885
1249,1843
1250,1862
1251,1890
1252,1825
1253,1883
1254,1856
1255,1686
1256,1438
1257,2112
1258,2870
1259,2214
1260,1895
1261,1680
1262,1701
1263,1721
1264,1601
1265,1595
1266,1826
1267,1877
1268,1840
1269,1787
1270,1785
1271,1789
1272,1727
1273,1823
1274,1840
1275,1856
1276,1886
1277,1918
1278,1949
1279,1820
1280,1778
1281,1852
1282,1850
1283,1885
1284,1869
1285,1865
1286,2098
1287,1332
1288,1936
1289,2813
1290,2403
1291,1883
1292,1702
1293,1694
1294,1761
1295,1664
1296,1507
1297,1801
1298,1851
1299,1861
1300,1769
1301,1779
1302,1776
1303,1840
1304,1818
1305,1853
1306,1879
1307,1904
1308,1874
1309,1891
1310,1887
1311,1841
1312,1893
1313,1839
1314,1874
1315,1822
1316,1872
1317,2489
1318,1253
1319,1813
1320,2803
1321,2512
1322,1936
1323,1834
1324,1687
1325,1695
1326,1654
1327,1418
1328,1775
1329,1859
1330,1853
1331,1807
1332,1776
1333,1767
1334,1773
1335,1792
1336,1826
1337,1853
1338,1874
1339,1906
1340,1860
1341,1877
1342,1891
1343,1875
1344,1895
1345,1905
1346,1854
1347,1894
1348,1898
1349,1847
1350,1889
1351,1854
1352,1858
1353,1867
1354,1920
1355,1889
1356,1889
1357,1882
1358,1855
1359,1861
1360,1834
1361,1907
1362,1840
1363,1808
1364,1866
1365,1798
1366,1870
1367,1856
1368,1839
1369,1856
1370,1851
1371,1852
1372,1892
1373,1810
1374,1840
1375,1847
1376,1866
1377,1840
1378,1919
1379,1859
1380,1837
1381,1879
1382,1877
1383,1848
1384,1856
1385,1840
1386,1797
1387,1887
1388,1817
1389,1879
1390,1855
1391,1851
1392,1863
1393,1862
1394,1844
1395,1893
1396,1873
1397,1869
1398,1836
1399,1840
1400,1861
1401,1856
1402,1873
1403,1861
1404,1839
1405,1841
1406,1803
1407,1821
1408,1830
1409,1856
1410,1855
1411,1827
1412,1873
1413,1872
1414,1835
1415,1917
1416,1868
1417,1859
1418,1859
1419,1854
1420,1840
1421,1839
1422,1863
1423,1906
1424,1881
1425,1850
1426,1851
1427,1840
1428,1885
1429,1845
1430,1813
1431,1924
1432,1910
1433,1861
1434,1881
1435,1842
1436,1856
1437,1888
1438,1825
1439,1891
1440,1887
1441,1840
1442,1840
1443,1851
1444,1870
1445,1872
1446,1890
1447,1904
1448,1894
1449,1857
1450,1872
1451,1867
1452,1842
1453,1863
1454,1847
1455,1820
1456,1854
1457,1840
1458,1856
1459,1850
1460,1872
1461,1872
1462,1847
1463,1873
1464,1845
1465,1881
1466,1842
1467,1862
1468,1851
1469,1899
1470,1883
1471,1829
1472,1860
1473,1874
1474,1857
1475,1829
1476,1847
1477,1843
1478,1867
1479,1797
1480,1878
1481,1847
1482,1861
1483,1857
1484,1869
1485,1868
1486,1856
1487,1824
1488,1821
1489,1825
1490,1835
1491,1850
1492,1855
1493,1868
1494,1830
1495,1869
1496,1850
1497,1879
1498,1858
1499,1871
1500,1856
1501,1859
1502,1902
1503,1842
1504,1882
1505,1847
1506,1837
1507,1859
1508,1854
1509,1851
1510,1862
1511,1840
1512,1840
1513,1856
1514,1849
1515,1816
1516,1879
1517,1863
1518,1849
1519,1872
1520,1840
1521,1878
1522,1843
1523,1850
1524,1855
1525,1826
1526,1840
1527,1851
1528,1855
1529,1903
1530,1867
1531,1867
1532,1912
1533,1870
1534,1861
1535,1876
1536,1888
1537,1826
1538,1872
1539,1856
1540,1887
1541,1857
1542,1840
1543,1840
1544,1873
1545,1852
1546,1805
1547,1851
1548,1870
1549,1875
1550,1862
1551,1865
1552,1827
1553,1872
1554,1853
1555,1856
1556,1829
1557,1872
1558,1844
1559,1838
1560,1841
1561,1899
1562,1857
1563,1867
1564,1889
1565,1810
1566,1863
1567,1863
1568,1872
1569,1872
1570,1913
1571,1872
1572,1911
1573,1872
1574,1871
1575,1862
1576,1872
1577,1861
1578,1890
1579,1862
1580,1811
1581,1805
1582,1871
1583,1872
1584,1872
1585,1840
1586,1824
1587,1853
1588,1857
1589,1866
1590,1815
1591,1851
1592,1856
1593,1863
1594,1889
1595,1799
1596,1852
1597,1834
1598,1857
1599,1877
1600,1861
1601,1867
1602,1840
1603,1858
1604,1892
1605,1867
1606,1904
1607,1869
1608,1856
1609,1843
1610,1871
1611,1856
1612,1855
1613,1811
1614,1870
1615,1836
1616,1859
1617,1859
1618,1861
1619,1841
1620,1888
1621,1887
1622,1888
1623,1873
1624,1834
1625,1867
1626,1856
1627,1863
1628,1914
1629,1879
1630,1846
1631,1854
1632,1872
1633,1861
1634,1883
1635,1863
1636,1808
1637,1856
1638,1863
1639,1811
1640,1811
1641,1861
1642,1838
1643,1858
1644,1904
1645,1865
1646,1844
1647,1840
1648,1901
1649,1840
1650,1860
1651,1863
1652,1872
1653,1842
1654,1795
1655,1855
1656,1867
1657,1867
1658,1865
1659,1845
1660,1849
1661,1867
1662,1807
1663,1859
1664,1840
1665,1872
1666,1837
1667,1857
1668,1853
1669,1850
1670,1837
1671,1838
1672,1871
1673,1872
1674,1845
1675,1855
1676,1840
1677,1843
1678,1857
1679,1847
1680,1846
1681,1872
1682,1877
1683,1838
1684,1878
1685,1860
1686,1858
1687,1858
1688,1873
1689,1878
1690,1889
1691,1856
1692,1853
1693,1872
1694,1823
1695,1808
1696,1855
1697,1859
1698,1883
1699,1845
1700,1871
1701,1846
1702,1841
1703,1823
1704,1857
1705,1873
1706,1854
1707,1866
1708,1857
1709,1852
1710,1872
1711,1872
1712,1872
1713,1866
1714,1893
1715,1860
1716,1845
1717,1866
1718,1872
1719,1910
1720,1875
1721,1817
1722,1877
1723,1919
1724,1835
1725,1854
1726,1848
1727,1858
1728,1798
1729,1858
1730,1866
1731,1888
1732,1872
1733,1861
1734,1862
1735,1843
1736,1803
1737,1872
1738,1885
1739,1865
1740,1853
1741,1857
1742,1856
1743,1851
1744,1847
1745,1868
1746,1869
1747,1872
1748,1911
1749,1873
1750,1858
1751,1854
1752,1862
1753,1820
1754,1925
1755,1866
1756,1887
1757,1895
1758,1849
1759,1840
1760,1873
1761,1862
1762,1845
1763,1856
1764,1825
1765,1844
1766,1846
1767,1835
1768,1840
1769,1865
1770,1842
1771,1874
1772,1893
1773,1856
1774,1871
1775,1840
1776,1838
1777,1867
1778,1846
1779,1849
1780,1857
1781,1891
1782,1823
1783,1844
1784,1858
1785,1872
1786,1871
1787,1867
1788,1886
1789,1894
1790,1872
1791,1863
1792,1854
1793,1865
1794,1914
1795,1872
1796,1850
1797,1901
1798,1877
1799,1874
1800,1853
1801,1837
1802,1840
1803,1884
1804,1902
1805,1874
1806,1854
1807,1872
1808,1857
1809,1870
1810,1859
1811,1865
1812,1854
1813,1837
1814,1878
1815,1861
1816,1861
1817,1875
1818,1879
1819,1851
1820,1807
1821,1845
1822,1826
1823,1872
1824,1895
1825,1859
1826,1851
1827,1859
1828,1842
1829,1852
1830,1871
1831,1888
1832,1814
1833,1881
1834,1859
1835,1859
1836,1845
1837,1873
1838,1877
1839,1887
1840,1895
1841,1861
1842,1837
1843,1859
1844,1874
1845,1886
1846,1913
1847,1850
1848,1863
1849,1847
1850,1861
1851,1867
1852,1847
1853,1857
1854,1856
1855,1815
1856,1897
1857,1862
1858,1849
1859,1858
1860,1883
1861,1917
1862,1862
1863,1793
1864,1821
1865,1867
1866,1856
1867,1873
1868,1855
1869,1868
1870,1859
1871,1886
1872,1866
1873,1902
1874,1866
1875,1854
1876,1852
1877,1873
1878,1808
1879,1840
1880,1892
1881,1809
1882,1808
1883,1877
1884,1855
1885,1855
1886,1888
1887,1798
1888,1810
1889,1861
1890,1871
1891,1849
1892,1858
1893,1871
1894,1904
1895,1872
1896,1863
1897,1855
1898,1869
1899,1884
1900,1856
1901,1862
1902,1870
1903,1827
1904,1874
1905,1852
1906,1835
1907,1845
1908,1846
1909,1861
1910,1845
1911,1870
1912,1849
1913,1844
1914,1832
1915,1859
1916,1867
1917,1866
1918,1847
1919,1840
1920,1837
1921,1914
1922,1840
1923,1871
1924,1853
1925,1862
1926,1869
1927,1858
1928,1865
1929,1877
1930,1834
1931,1901
1932,1881
1933,1853
1934,1863
1935,1855
1936,1900
1937,1872
1938,1853
1939,1840
1940,1835
1941,1856
1942,1869
1943,1873
1944,1876
1945,1797
1946,1851
1947,1842
1948,1872
1949,1840
1950,1875
1951,1865
1952,1872
1953,1855
1954,1894
1955,1853
1956,1890
1957,1851
1958,1871
1959,1866
1960,1858
1961,1835
1962,1863
1963,1887
1964,1853
1965,1884
1966,1866
1967,1840
1968,1857
1969,1915
1970,1867
1971,1856
1972,1873
1973,1867
1974,1851
1975,1840
1976,1866
1977,1858
1978,1896
1979,1872
1980,1867
1981,1808
1982,1870
1983,1875
1984,1872
1985,1861
1986,1850
1987,1857
1988,1838
1989,1868
1990,1879
1991,1869
1992,1849
1993,1859
1994,1813
1995,1873
1996,1881
1997,1878
1998,1814
1999,1877
2000,1858
2001,1859
2002,1863
2003,1861
2004,1856
2005,1872
2006,1868
2007,1823
2008,1845
2009,1840
2010,1868
2011,1877
2012,1902
2013,1853
2014,1875
2015,1865
2016,1872
2017,1845
2018,1879
2019,1904
2020,1903
2021,1826
2022,1863
2023,1866
2024,1840
2025,1842
2026,1871
2027,1873
2028,1859
2029,1869
2030,1885
2031,1866
2032,1865
2033,1865
2034,1866
2035,1867
2036,1907
2037,1835
2038,1872
2039,1890
2040,1844
2041,1826
2042,1863
2043,1867
2044,1852
2045,1870
2046,1878
2047,1855
2048,1856
2049,1870
2050,1870
2051,1840
2052,1856
2053,1884
2054,1872
2055,1904
2056,1840
2057,1854
2058,1846
2059,1853
2060,1853
2061,1858
2062,1815
2063,1837
2064,1887
2065,1882
2066,1850
2067,1861
2068,1871
2069,1856
2070,1854
2071,1823
2072,1826
2073,1887
2074,1867
2075,1849
2076,1854
2077,1863
2078,1915
2079,1795
2080,1863
2081,1920
2082,1901
2083,1853
2084,1846
2085,1867
2086,1817
2087,1824
2088,1876
2089,1888
2090,1855
2091,1876
2092,1840
2093,1849
2094,1877
2095,1877
2096,1900
2097,1871
2098,1811
2099,1851
2100,1863
2101,1841
2102,1877
2103,1846
2104,1867
2105,1878
2106,1831
2107,1916
2108,1831
2109,1858
2110,1840
2111,1863
2112,1902
2113,1872
2114,1860
2115,1856
2116,1856
2117,1861
2118,1863
2119,1847
2120,1847
2121,1835
2122,1855
2123,1871
2124,1832
2125,1842
2126,1851
2127,1860
2128,1841
2129,1889
2130,1845
2131,1850
2132,1907
2133,1856
2134,1863
2135,1872
2136,1885
2137,1857
2138,1866
2139,1895
2140,1870
2141,1851
2142,1843
2143,1842
2144,1835
2145,1877
2146,1838
2147,1885
2148,1904
2149,1859
2150,1859
2151,1882
2152,1872
2153,1859
2154,1872
2155,1842
2156,1856
2157,1857
2158,1854
2159,1862
2160,1837
2161,1871
2162,1851
2163,1849
2164,1830
2165,1855
2166,1872
2167,1863
2168,1866
2169,1840
2170,1901
2171,1828
2172,1854
2173,1892
2174,1856
2175,1854
2176,1861
2177,1854
2178,1872
2179,1867
2180,1903
2181,1872
2182,1847
2183,1868
2184,1873
2185,1854
2186,1856
2187,1855
2188,1901
2189,1848
2190,1791
2191,1861
2192,1862
2193,1856
2194,1874
2195,1855
2196,1888
2197,1859
2198,1863
2199,1894
2200,1861
2201,1867
2202,1876
2203,1869
2204,1860
2205,1863
2206,1866
2207,1856
2208,1850
2209,1853
2210,1866
2211,1857
2212,1875
2213,1872
2214,1866
2215,1857
2216,1834
2217,1840
2218,1847
2219,1799
2220,1814
2221,1870
2222,1799
2223,1880
2224,1810
2225,1847
2226,1861
2227,1863
2228,1857
2229,1841
2230,1847
2231,1898
2232,1862
2233,1871
2234,1867
2235,1872
2236,1863
2237,1867
2238,1854
2239,1851
2240,1855
2241,1874
2242,1853
2243,1862
2244,1869
2245,1863
2246,1856
2247,1872
2248,1840
2249,1901
2250,1851
2251,1872
2252,1855
2253,1854
2254,1869
2255,1840
2256,1825
2257,1860
2258,1851
2259,1869
2260,1852
2261,1874
2262,1840
2263,1904
2264,1879
2265,1901
2266,1870
2267,1867
2268,1862
2269,1813
2270,1859
2271,1839
2272,1870
2273,1911
2274,1817
2275,1847
2276,1846
2277,1866
2278,1867
2279,1857
2280,1853
2281,1791
2282,1860
2283,1872
2284,1867
2285,1870
2286,1911
2287,1827
2288,1829
2289,1909
2290,1887
2291,1858
2292,1856
2293,1863
2294,1853
2295,1863
2296,1840
2297,1867
2298,1797
2299,1881
2300,1846
2301,1878
2302,1856
2303,1867
2304,1905
2305,1889
2306,1854
2307,1845
2308,1845
2309,1858
2310,1854
2311,1843
2312,1856
2313,1863
2314,1856
2315,1856
2316,1866
2317,1862
2318,1851
2319,1820
2320,1801
2321,1846
2322,1840
2323,1866
2324,1850
2325,1831
2326,1854
2327,1847
2328,1872
2329,1790
2330,1852
2331,1855
2332,1867
2333,1838
2334,1863
2335,1867
2336,1863
2337,1852
2338,1856
2339,1833
2340,1827
2341,1852
2342,1845
2343,1857
2344,2533
2345,1360
2346,1891
2347,2658
2348,2833
2349,2660
2350,2433
2351,2171
2352,2027
2353,1729
2354,1077
2355,1049
2356,1175
2357,1431
2358,1721
2359,1840
2360,1771
2361,1670
2362,1579
2363,1590
2364,1607
2365,1728
2366,1773
2367,1837
2368,1861
2369,1873
2370,1899
2371,1906
2372,1823
2373,1861
2374,1851
2375,2669
2376,1459
2377,1849
2378,2608
2379,2878
2380,2694
2381,2352
2382,2039
2383,1802
2384,1249
2385,1083
2386,1141
2387,1305
2388,1639
2389,2079
2390,1925
2391,1843
2392,1789
2393,1778
2394,1788
2395,1808
2396,1843
2397,1838
2398,1789
2399,1840
2400,1872
2401,1855
2402,1887
2403,1904
2404,1913
2405,1911
2406,2002
2407,1466
2408,1767
2409,2510
2410,2816
2411,2651
2412,2102
2413,1648
2414,1408
2415,1460
2416,1335
2417,1502
2418,1802
2419,2041
2420,2023
2421,1933
2422,1810
2423,1763
2424,1652
2425,1712
2426,1749
2427,1808
2428,1872
2429,1858
2430,1851
2431,1838
2432,1839
2433,1847
2434,1874
2435,1857
2436,1875
2437,1910
2438,1511
2439,1654
2440,2467
2441,2867
2442,2543
2443,1918
2444,1507
2445,1582
2446,1535
2447,1398
2448,1535
2449,1840
2450,2000
2451,1942
2452,1853
2453,1767
2454,1680
2455,1659
2456,1736
2457,1823
2458,1822
2459,1856
2460,1884
2461,1903
2462,1904
2463,1795
2464,1839
2465,1849
2466,1918
2467,1866
2468,1904
2469,1488
2470,1583
2471,2306
2472,2945
2473,2559
2474,1898
2475,1450
2476,1535
2477,1488
2478,1418
2479,1519
2480,1847
2481,1981
2482,1985
2483,1900
2484,1791
2485,1712
2486,1723
2487,1786
2488,1791
2489,1802
2490,1856
2491,1837
2492,1858
2493,1856
2494,1881
2495,1872
2496,1863
2497,1891
2498,1894
2499,1922
2500,1616
2501,1476
2502,2151
2503,2941
2504,2465
2505,1851
2506,1505
2507,1590
2508,1635
2509,1618
2510,1554
2511,1877
2512,1948
2513,1894
2514,1904
2515,1746
2516,1737
2517,1758
2518,1760
2519,1862
2520,1856
2521,1886
2522,1883
2523,1858
2524,1871
2525,1856
2526,1872
2527,1872
2528,1911
2529,1914
2530,1893
2531,1827
2532,1424
2533,2007
2534,3024
2535,2624
2536,1893
2537,1623
2538,1649
2539,1676
2540,1516
2541,1370
2542,1746
2543,1903
2544,1927
2545,1855
2546,1749
2547,1769
2548,1722
2549,1701
2550,1821
2551,1856
2552,1883
2553,1839
2554,1795
2555,1903
2556,1879
2557,1898
2558,1881
2559,1879
2560,1884
2561,1912
2562,2337
2563,1349
2564,1855
2565,2931
2566,2745
2567,1939
2568,1712
2569,1603
2570,1719
2571,1652
2572,1414
2573,1743
2574,1849
2575,1920
2576,1811
2577,1736
2578,1729
2579,1715
2580,1789
2581,1811
2582,1858
2583,1878
2584,1893
2585,1902
2586,1895
2587,1857
2588,1851
2589,1881
2590,1875
2591,1887
2592,1883
2593,2819
2594,1360
2595,1733
2596,2768
2597,2675
2598,1937
2599,1730
2600,1631
2601,1799
2602,1744
2603,1439
2604,1654
2605,1855
2606,1909
2607,1843
2608,1766
2609,1730
2610,1754
2611,1712
2612,1821
2613,1822
2614,1871
2615,1875
2616,1903
2617,1865
2618,1875
2619,1858
2620,1883
2621,1877
2622,1829
2623,1907
2624,2559
2625,1392
2626,1715
2627,2780
2628,2725
2629,1930
2630,1805
2631,1581
2632,1792
2633,1718
2634,1328
2635,1646
2636,1936
2637,1940
2638,1855
2639,1714
2640,1719
2641,1787
2642,1770
2643,1817
2644,1847
2645,1887
2646,1839
2647,1838
2648,1866
2649,1902
2650,1889
2651,1897
2652,1873
2653,1950
2654,1826
2655,1923
2656,1473
2657,1630
2658,2476
2659,2814
2660,2032
2661,1898
2662,1571
2663,1743
2664,1687
2665,1408
2666,1579
2667,1814
2668,1909
2669,1835
2670,1761
2671,1744
2672,1787
2673,1762
2674,1857
2675,1831
2676,1859
2677,1883
2678,1894
2679,1909
2680,1906
2681,1873
2682,1876
2683,1856
2684,1895
2685,1883
2686,1930
2687,1535
2688,1580
2689,2331
2690,2881
2691,2125
2692,1898
2693,1584
2694,1771
2695,1710
2696,1424
2697,1535
2698,1808
2699,1946
2700,1870
2701,1766
2702,1733
2703,1785
2704,1799
2705,1835
2706,1825
2707,1878
2708,1855
2709,1893
2710,1893
2711,1872
2712,1873
2713,1920
2714,1860
2715,1831
2716,1877
2717,1857
2718,1644
2719,1475
2720,2187
2721,2885
2722,2239
2723,1872
2724,1603
2725,1735
2726,1721
2727,1429
2728,1486
2729,1803
2730,1921
2731,1811
2732,1826
2733,1771
2734,1754
2735,1770
2736,1859
2737,1839
2738,1915
2739,1936
2740,1937
2741,1945
2742,1877
2743,1882
2744,1849
2745,1862
2746,1878
2747,1872
2748,1821
2749,1664
2750,1383
2751,2032
2752,3001
2753,2355
2754,1875
2755,1562
2756,1755
2757,1773
2758,1454
2759,1419
2760,1829
2761,1825
2762,1882
2763,1792
2764,1763
2765,1794
2766,1792
2767,1798
2768,1837
2769,1875
2770,1855
2771,1925
2772,1840
2773,1920
2774,1886
2775,1883
2776,1883
2777,1901
2778,1877
2779,1870
2780,2147
2781,1425
2782,1914
2783,2929
2784,2493
2785,1869
2786,1674
2787,1639
2788,1700
2789,1639
2790,1471
2791,1839
2792,1892
2793,1885
2794,1797
2795,1794
2796,1755
2797,1781
2798,1748
2799,1831
2800,1840
2801,1875
2802,1879
2803,1875
2804,1914
2805,1968
2806,1913
2807,1939
2808,1872
2809,1886
2810,1883
2811,2491
2812,1349
2813,1737
2814,2815
2815,2438
2816,1809
2817,1746
2818,1625
2819,1715
2820,1680
2821,1446
2822,1821
2823,1858
2824,1869
2825,1808
2826,1785
2827,1770
2828,1831
2829,1792
2830,1814
2831,1819
2832,1842
2833,1904
2834,1925
2835,1940
2836,1909
2837,1877
2838,1883
2839,1872
2840,1840
2841,1861
2842,2829
2843,1359
2844,1740
2845,2779
2846,2647
2847,1846
2848,1706
2849,1654
2850,1673
2851,1694
2852,1442
2853,1804
2854,1919
2855,1902
2856,1839
2857,1712
2858,1767
2859,1749
2860,1807
2861,1856
2862,1850
2863,1897
2864,1887
2865,1917
2866,1913
2867,1872
2868,1883
2869,1824
2870,1883
2871,1881
2872,1899
2873,2014
2874,1398
2875,1648
2876,2612
2877,2769
2878,1924
2879,1761
2880,1616
2881,1742
2882,1680
2883,1458
2884,1699
2885,1872
2886,1921
2887,1857
2888,1746
2889,1719
2890,1756
2891,1761
2892,1808
2893,1856
2894,1867
2895,1906
2896,1903
2897,1850
2898,1946
2899,1887
2900,1893
2901,1909
2902,1882
2903,1942
2904,1866
2905,1445
2906,1535
2907,2458
2908,2797
2909,1943
2910,1849
2911,1666
2912,1682
2913,1734
2914,1483
2915,1659
2916,1858
2917,1875
2918,1813
2919,1758
2920,1777
2921,1758
2922,1810
2923,1814
2924,1870
2925,1875
2926,1916
2927,1899
2928,1872
2929,1937
2930,1907
2931,1904
2932,1914
2933,1872
2934,1840
2935,1873
2936,1579
2937,1527
2938,2239
2939,2778
2940,2000
2941,1849
2942,1613
2943,1708
2944,1743
2945,1535
2946,1706
2947,1798
2948,1873
2949,1824
2950,1773
2951,1762
2952,1776
2953,1845
2954,1807
2955,1840
2956,1907
2957,1898
2958,1924
2959,1915
2960,1887
2961,1894
2962,1785
2963,1845
2964,1878
2965,1895
2966,1904
2967,1868
2968,1901
2969,1920
2970,1843
2971,1847
2972,1866
2973,1811
2974,1840
2975,1847
2976,1872
2977,1868
2978,1891
2979,1861
2980,1856
2981,1879
2982,1842
2983,1874
2984,1857
2985,1856
2986,1857
2987,1875
2988,1863
2989,1859
2990,1863
2991,1853
2992,1843
2993,1863
2994,1872
2995,1875
2996,1872
2997,1850
2998,1830
2999,1847
3000,1843
3001,1872
3002,1872
3003,1871
3004,1885
3005,1890
3006,1847
3007,1871
3008,1850
3009,1830
3010,1876
3011,1893
3012,1911
3013,1858
3014,1801
3015,1847
3016,1867
3017,1859
3018,1857
3019,1842
3020,1849
3021,1871
3022,1825
3023,1847
3024,1859
3025,1851
3026,1856
3027,1837
3028,1840
3029,1840
3030,1891
3031,1868
3032,1845
3033,1857
3034,1873
3035,1864
3036,1887
3037,1827
3038,1893
3039,1872
3040,1857
3041,1885
3042,1857
3043,1855
3044,1833
3045,1824
3046,1842
3047,1869
3048,1855
3049,1873
3050,1869
3051,1851
3052,1842
3053,1856
3054,1840
3055,1907
3056,1821
3057,1859
3058,1821
3059,1850
3060,1872
3061,1918
3062,1863
3063,1840
3064,1860
3065,1852
3066,1852
3067,1856
3068,1859
3069,1873
3070,1863
3071,1808
3072,1879
3073,1840
3074,1798
3075,1862
3076,1856
3077,1871
3078,1891
3079,1850
3080,1859
3081,1872
3082,1868
3083,1870
3084,1849
3085,1853
3086,1830
3087,1856
3088,1877
3089,1872
3090,1856
3091,1872
3092,1841
3093,1861
3094,1879
3095,1917
3096,1805
3097,1871
3098,1852
3099,1856
3100,1855
3101,1885
3102,1847
3103,1855
3104,1902
3105,1867
3106,1791
3107,1846
3108,1839
3109,1851
3110,1861
3111,1856
3112,1842
3113,1883
3114,1873
3115,1846
3116,1828
3117,1840
3118,1845
3119,1836
3120,1883
3121,1871
3122,1916
3123,1862
3124,1875
3125,1831
3126,1857
3127,1855
3128,1904
3129,1899
3130,1856
3131,1847
3132,1867
3133,1859
3134,1858
3135,1859
3136,1867
3137,1808
3138,1861
3139,1872
3140,1877
3141,1839
3142,1840
3143,1840
3144,1853
3145,1857
3146,1844
3147,1892
3148,1870
3149,1843
3150,1859
3151,1872
3152,1866
3153,1877
3154,1834
3155,1872
3156,1883
3157,1866
3158,1831
3159,1858
3160,1841
3161,1907
3162,1853
3163,1868
3164,1867
3165,1855
3166,1843
3167,1870
3168,1860
3169,1840
3170,1890
3171,1911
3172,1858
3173,1914
3174,1891
3175,1842
3176,1838
3177,1837
3178,1899
3179,1856
3180,1894
3181,1848
3182,1867
3183,1847
3184,1863
3185,1859
3186,1861
3187,1822
3188,1840
3189,1862
3190,1895
3191,1863
3192,1856
3193,1850
3194,1839
3195,1861
3196,1895
3197,1805
3198,1835
3199,1872
3200,1872
3201,1876
3202,1867
3203,1852
3204,1853
3205,1845
3206,1853
3207,1862
3208,1872
3209,1858
3210,1868
3211,1866
3212,1887
3213,1824
3214,1827
3215,1857
3216,1862
3217,1867
3218,1856
3219,1857
3220,1839
3221,1858
3222,1855
3223,1854
3224,1841
3225,1845
3226,1840
3227,1841
3228,1861
3229,1872
3230,1855
3231,1840
3232,1876
3233,1862
3234,1855
3235,1856
3236,1819
3237,1894
3238,1853
3239,1898
3240,1825
3241,1857
3242,1856
3243,1841
3244,1863
3245,1894
3246,1830
3247,1822
3248,1870
3249,1872
3250,1856
3251,1870
3252,1859
3253,1898
3254,1910
3255,1859
3256,1863
3257,1910
3258,1846
3259,1864
3260,1847
3261,1847
3262,1843
3263,1840
3264,1830
3265,1853
3266,1855
3267,1845
3268,1834
3269,1858
3270,1858
3271,1838
3272,1883
3273,1840
3274,1914
3275,1842
3276,1840
3277,1842
3278,1815
3279,1836
3280,1890
3281,1840
3282,1840
3283,1872
3284,1850
3285,1854
3286,1851
3287,1801
3288,1905
3289,1875
3290,1874
3291,1834
3292,1840
3293,1854
3294,1871
3295,1856
3296,1839
3297,1811
3298,1842
3299,1840
3300,1849
3301,1840
3302,1863
3303,1877
3304,1835
3305,1867
3306,1805
3307,1878
3308,1856
3309,1860
3310,1862
3311,1840
3312,1830
3313,1803
3314,1851
3315,1855
3316,1885
3317,1877
3318,1841
3319,1856
3320,1824
3321,1882
3322,1805
3323,1856
3324,1868
3325,1855
3326,1853
3327,1856
3328,1849
3329,1867
3330,1817
3331,1883
3332,1906
3333,1895
3334,1872
3335,1841
3336,1860
3337,1847
3338,1847
3339,1875
3340,1827
3341,1887
3342,1859
3343,1846
3344,1842
3345,1872
3346,1894
3347,1909
3348,1872
3349,1872
3350,1863
3351,1869
3352,1861
3353,1887
3354,1858
3355,1869
3356,1831
3357,1854
3358,1846
3359,1849
3360,1840
3361,1857
3362,1831
3363,1899
3364,1904
3365,1827
3366,1872
3367,1856
3368,1878
3369,1877
3370,1873
3371,1867
3372,1911
3373,1889
3374,1857
3375,1856
3376,1858
3377,1860
3378,1841
3379,1827
3380,1838
3381,1846
3382,1872
3383,1856
3384,1883
3385,1854
3386,1872
3387,1899
3388,1863
3389,1858
3390,1867
3391,1859
3392,1857
3393,1859
3394,1859
3395,1872
3396,1835
3397,1852
3398,1872
3399,1856
3400,1872
3401,1841
3402,1850
3403,1855
3404,1871
3405,1856
3406,1858
3407,1838
3408,1831
3409,1863
3410,1861
3411,1866
3412,1879
3413,1825
3414,1838
3415,1841
3416,1867
3417,1848
3418,1846
3419,1866
3420,1865
3421,1845
3422,1852
3423,1815
3424,1890
3425,1843
3426,1843
3427,1870
3428,1885
3429,1893
3430,1897
3431,1830
3432,1851
3433,1850
3434,1863
3435,1845
3436,1863
3437,1874
3438,1872
3439,1863
3440,1904
3441,1799
3442,1839
3443,1862
3444,1846
3445,1857
3446,1865
3447,1791
3448,1807
3449,1793
3450,1859
3451,1870
3452,1878
3453,1878
3454,1866
3455,1865
3456,1872
3457,1808
3458,1840
3459,1855
3460,1854
3461,1843
3462,1918
3463,1834
3464,1862
3465,1865
3466,1869
3467,1872
3468,1866
3469,1894
3470,1887
3471,1894
3472,1862
3473,1894
3474,1839
3475,1843
3476,1847
3477,1872
3478,1888
3479,1842
3480,1893
3481,1850
3482,1859
3483,1887
3484,1864
3485,1871
3486,1869
3487,1893
3488,1831
3489,1856
3490,1821
3491,1856
3492,1875
3493,1863
3494,1852
3495,1878
3496,1867
3497,1871
3498,1890
3499,1861
3500,1842
3501,1869
3502,1859
3503,1827
3504,1871
3505,1916
3506,1838
3507,1921
3508,1847
3509,1852
3510,1853
3511,1873
3512,1887
3513,1871
3514,1861
3515,1874
3516,1899
3517,1862
3518,1855
3519,1871
3520,1887
3521,1847
3522,1853
3523,1859
3524,1843
3525,1851
3526,1854
3527,1850
3528,1842
3529,1855
3530,1808
3531,1871
3532,1848
3533,1872
3534,1849
3535,1853
3536,1896
3537,1920
3538,1859
3539,1862
3540,1906
3541,1875
3542,1854
3543,1849
3544,1863
3545,1867
3546,1874
3547,1901
3548,1856
3549,1877
3550,1860
3551,1876
3552,1852
3553,1873
3554,1856
3555,1907
3556,1871
3557,1843
3558,1843
3559,1872
3560,1843
3561,1840
3562,1847
3563,1847
3564,1901
3565,1899
3566,1862
3567,1855
3568,1862
3569,1862
3570,1856
3571,1817
3572,1907
3573,1862
3574,1867
3575,1850
3576,1856
3577,1863
3578,1886
3579,1878
3580,1830
3581,1797
3582,1873
3583,1846
3584,1847
3585,1858
3586,1899
3587,1828
3588,1839
3589,1856
3590,1904
3591,1871
3592,1843
3593,1870
3594,1872
3595,1842
3596,1847
3597,1861
3598,1863
3599,1833
3600,1861
3601,1855
3602,1867
3603,1856
3604,1870
3605,1878
3606,1910
3607,1858
3608,1841
3609,1843
3610,1871
3611,1875
3612,1870
3613,1866
3614,1841
3615,1861
3616,1877
3617,1856
3618,1875
3619,1871
3620,1866
3621,1863
3622,1845
3623,1887
3624,1847
3625,1830
3626,1857
3627,1853
3628,1889
3629,1808
3630,1830
3631,1868
3632,1862
3633,1865
3634,1858
3635,1879
3636,1838
3637,1863
3638,1849
3639,1877
3640,1918
3641,1856
3642,1872
3643,1851
3644,1872
3645,1872
3646,1855
3647,1849
3648,1888
3649,1865
3650,1851
3651,1851
3652,1849
3653,1847
3654,1846
3655,1844
3656,1840
3657,1867
3658,1824
3659,1857
3660,1851
3661,1854
3662,1855
3663,1901
3664,1872
3665,1921
3666,1866
3667,1873
3668,1873
3669,1873
3670,1885
3671,1854
3672,1904
3673,1869
3674,1859
3675,1854
3676,1861
3677,1849
3678,1865
3679,1918
3680,1846
3681,1809
3682,1858
3683,1852
3684,1875
3685,1863
3686,1886
3687,1856
3688,1815
3689,1845
3690,1866
3691,1843
3692,1845
3693,1861
3694,1872
3695,1869
3696,1837
3697,1872
3698,1873
3699,1890
3700,1869
3701,1877
3702,1851
3703,1866
3704,1872
3705,1874
3706,1896
3707,1881
3708,1830
3709,1842
3710,1852
3711,1873
3712,1856
3713,1859
3714,1864
3715,1882
3716,1840
3717,1859
3718,1834
3719,1868
3720,1904
3721,1871
3722,1873
3723,1917
3724,1843
3725,1840
3726,1853
3727,1872
3728,1877
3729,1883
3730,1898
3731,1870
3732,1863
3733,1872
3734,1857
3735,1872
3736,1873
3737,1904
3738,1843
3739,1885
3740,1892
3741,1860
3742,1864
3743,1852
3744,1867
3745,1837
3746,1854
3747,1830
3748,1858
3749,1857
3750,1883
3751,1840
3752,1867
3753,1862
3754,1888
3755,1887
3756,1858
3757,1847
3758,1857
3759,1836
3760,1857
3761,1843
3762,1875
3763,1847
3764,1844
3765,1878
3766,1911
3767,1870
3768,1843
3769,1868
3770,1862
3771,1808
3772,1863
3773,1844
3774,1858
3775,1839
3776,1863
3777,1855
3778,1872
3779,1856
3780,1840
3781,1855
3782,1870
3783,1869
3784,1863
3785,1863
3786,1901
3787,1842
3788,1883
3789,1885
3790,1881
3791,1910
3792,1850
3793,1862
3794,1861
3795,1874
3796,1810
3797,1853
3798,1792
3799,1905
3800,1866
3801,1859
3802,1867
3803,1867
3804,1858
3805,1877
3806,1845
3807,1907
3808,1858
3809,1838
3810,1856
3811,1858
3812,1840
3813,1851
3814,1835
3815,1854
3816,1857
3817,1851
3818,1831
3819,1850
3820,1907
3821,1894
3822,1873
3823,1904
3824,1861
3825,1838
3826,1840
3827,1843
3828,1871
3829,1893
3830,1873
3831,1805
3832,1856
3833,1847
3834,1863
3835,1866
3836,1850
3837,1874
3838,1889
3839,1856
3840,1885
3841,1846
3842,1849
3843,1840
3844,1853
3845,1910
3846,1856
3847,1871
3848,1852
3849,1863
3850,1862
3851,1873
3852,1863
3853,1865
3854,1812
3855,1855
3856,1892
3857,1856
3858,1865
3859,1858
3860,1846
3861,1841
3862,1871
3863,1872
3864,1870
3865,1855
3866,1850
3867,1854
3868,1851
3869,1846
3870,1872
3871,1806
3872,1886
3873,1874
3874,1798
3875,1852
3876,1855
3877,1859
3878,1886
3879,1863
3880,1904
3881,1858
3882,1872
3883,1867
3884,1870
3885,1865
3886,1869
3887,1883
3888,1865
3889,1819
3890,1851
3891,1872
3892,1841
3893,1841
3894,1872
3895,1894
3896,1825
3897,1886
3898,1900
3899,1867
3900,1860
3901,1861
3902,1877
3903,1902
3904,1913
3905,1867
3906,1905
3907,1873
3908,1866
3909,1867
3910,1872
3911,1858
3912,1852
3913,1861
3914,1873
3915,1853
3916,1851
3917,1858
3918,1856
3919,1858
3920,1911
3921,1851
3922,1872
3923,1835
3924,1888
3925,1860
3926,1856
3927,1853
3928,1906
3929,1863
3930,1814
3931,1873
3932,1856
3933,1888
3934,1873
3935,1867
3936,1812
3937,1915
3938,1894
3939,1869
3940,1862
3941,1873
3942,1853
3943,1862
3944,1871
3945,1855
3946,1810
3947,1843
3948,1868
3949,1870
3950,1839
3951,1872
3952,1873
3953,1882
3954,1831
3955,1876
3956,1857
3957,1894
3958,1824
3959,1846
3960,1856
3961,1871
3962,1909
3963,1709
3964,1517
3965,2220
3966,2733
3967,2703
3968,2493
3969,2231
3970,2074
3971,1846
3972,1389
3973,1123
3974,1232
3975,1391
3976,1715
3977,1915
3978,1851
3979,1723
3980,1664
3981,1613
3982,1621
3983,1669
3984,1719
3985,1761
3986,1821
3987,1903
3988,1873
3989,1934
3990,1902
3991,1873
3992,1871
3993,1871
3994,1903
3995,1597
3996,2111
3997,2689
3998,2768
3999,2489
4000,2110
4001,1884
4002,1525
4003,1232
4004,1378
4005,1369
4006,1488
4007,1526
4008,1663
4009,1919
4010,1872
4011,1819
4012,1819
4013,1820
4014,1851
4015,1887
4016,1837
4017,1857
4018,1883
4019,1906
4020,1887
4021,1890
4022,1891
4023,1906
4024,1913
4025,2110
4026,1559
4027,1907
4028,2734
4029,2743
4030,2282
4031,1691
4032,1485
4033,1488
4034,1447
4035,1442
4036,1651
4037,1990
4038,2096
4039,1974
4040,1872
4041,1701
4042,1648
4043,1669
4044,1712
4045,1712
4046,1759
4047,1833
4048,1867
4049,1862
4050,1873
4051,1894
4052,1880
4053,1823
4054,1869
4055,1847
4056,2373
4057,1506
4058,1745
4059,2816
4060,2768
4061,2255
4062,1728
4063,1453
4064,1609
4065,1437
4066,1500
4067,1648
4068,1981
4069,1958
4070,1941
4071,1857
4072,1665
4073,1735
4074,1728
4075,1745
4076,1786
4077,1813
4078,1904
4079,1875
4080,1847
4081,1872
4082,1822
4083,1882
4084,1889
4085,1890
4086,1902
4087,2874
4088,1584
4089,1669
4090,2757
4091,2896
4092,2256
4093,1705
4094,1371
4095,1584
4096,1414
4097,1491
4098,1613
4099,1903
4100,1967
4101,1954
4102,1836
4103,1772
4104,1681
4105,1732
4106,1754
4107,1791
4108,1825
4109,1826
4110,1867
4111,1883
4112,1885
4113,1892
4114,1855
4115,1861
4116,1893
4117,1872
4118,2256
4119,1581
4120,1578
4121,2535
4122,2758
4123,2214
4124,1707
4125,1460
4126,1744
4127,1630
4128,1495
4129,1725
4130,1879
4131,1907
4132,1982
4133,1840
4134,1718
4135,1739
4136,1787
4137,1771
4138,1776
4139,1798
4140,1856
4141,1825
4142,1866
4143,1855
4144,1859
4145,1919
4146,1915
4147,1883
4148,1859
4149,1993
4150,1621
4151,1535
4152,2482
4153,2917
4154,2203
4155,1808
4156,1522
4157,1666
4158,1670
4159,1483
4160,1582
4161,1851
4162,1909
4163,1910
4164,1805
4165,1750
4166,1726
4167,1751
4168,1789
4169,1818
4170,1856
4171,1833
4172,1840
4173,1886
4174,1906
4175,1907
4176,1920
4177,1879
4178,1891
4179,1855
4180,1839
4181,1682
4182,1523
4183,2288
4184,2867
4185,2214
4186,1744
4187,1520
4188,1734
4189,1744
4190,1559
4191,1524
4192,1793
4193,1932
4194,1904
4195,1831
4196,1734
4197,1748
4198,1770
4199,1757
4200,1831
4201,1812
4202,1859
4203,1847
4204,1877
4205,1905
4206,1909
4207,1856
4208,1893
4209,1876
4210,1873
4211,1891
4212,1822
4213,1584
4214,2023
4215,2810
4216,2210
4217,1744
4218,1564
4219,1776
4220,1851
4221,1691
4222,1558
4223,1779
4224,1909
4225,1888
4226,1778
4227,1724
4228,1705
4229,1787
4230,1728
4231,1806
4232,1875
4233,1886
4234,1877
4235,1897
4236,1856
4237,1843
4238,1845
4239,1936
4240,1873
4241,1880
4242,1862
4243,1966
4244,1535
4245,1765
4246,2749
4247,2245
4248,1776
4249,1616
4250,1761
4251,1840
4252,1739
4253,1562
4254,1806
4255,1904
4256,1917
4257,1779
4258,1712
4259,1710
4260,1762
4261,1753
4262,1840
4263,1839
4264,1859
4265,1922
4266,1929
4267,1895
4268,1885
4269,1895
4270,1872
4271,1850
4272,1857
4273,1868
4274,2239
4275,1569
4276,1631
4277,2810
4278,2416
4279,1779
4280,1738
4281,1711
4282,1803
4283,1733
4284,1503
4285,1761
4286,1886
4287,1858
4288,1795
4289,1703
4290,1663
4291,1775
4292,1772
4293,1815
4294,1855
4295,1904
4296,1920
4297,1821
4298,1904
4299,1887
4300,1872
4301,1825
4302,1846
4303,1883
4304,1878
4305,2710
4306,1607
4307,1668
4308,2717
4309,2451
4310,1727
4311,1750
4312,1727
4313,1872
4314,1779
4315,1522
4316,1754
4317,1872
4318,1849
4319,1772
4320,1772
4321,1743
4322,1759
4323,1793
4324,1815
4325,1842
4326,1859
4327,1867
4328,1836
4329,1847
4330,1879
4331,1873
4332,1937
4333,1904
4334,1881
4335,1875
4336,2822
4337,1584
4338,1602
4339,2688
4340,2491
4341,1739
4342,1808
4343,1706
4344,1792
4345,1803
4346,1488
4347,1735
4348,1895
4349,1898
4350,1782
4351,1728
4352,1723
4353,1756
4354,1777
4355,1862
4356,1821
4357,1865
4358,1902
4359,1904
4360,1875
4361,1853
4362,1845
4363,1875
4364,1873
4365,1907
4366,1885
4367,2015
4368,1655
4369,1607
4370,2387
4371,2650
4372,1872
4373,1855
4374,1643
4375,1754
4376,1836
4377,1565
4378,1664
4379,1870
4380,1887
4381,1807
4382,1728
4383,1803
4384,1771
4385,1777
4386,1810
4387,1854
4388,1862
4389,1887
4390,1951
4391,1894
4392,1899
4393,1860
4394,1886
4395,1923
4396,1874
4397,1827
4398,1935
4399,1713
4400,1615
4401,2210
4402,2741
4403,1936
4404,1763
4405,1653
4406,1847
4407,1802
4408,1555
4409,1621
4410,1839
4411,1872
4412,1784
4413,1723
4414,1720
4415,1747
4416,1761
4417,1783
4418,1802
4419,1840
4420,1889
4421,1910
4422,1895
4423,1898
4424,1894
4425,1855
4426,1865
4427,1886
4428,1811
4429,1899
4430,1795
4431,1619
4432,1892
4433,2738
4434,2028
4435,1845
4436,1696
4437,1819
4438,1796
4439,1581
4440,1630
4441,1847
4442,1829
4443,1803
4444,1735
4445,1754
4446,1733
4447,1782
4448,1759
4449,1872
4450,1875
4451,1852
4452,1897
4453,1921
4454,1893
4455,1923
4456,1886
4457,1885
4458,1823
4459,1779
4460,1734
4461,1918
4462,1663
4463,1955
4464,2899
4465,2255
4466,1807
4467,1711
4468,1791
4469,1712
4470,1633
4471,1616
4472,1917
4473,1895
4474,1872
4475,1706
4476,1693
4477,1722
4478,1779
4479,1791
4480,1823
4481,1872
4482,1958
4483,1923
4484,1894
4485,1868
4486,1878
4487,1899
4488,1840
4489,1900
4490,1871
4491,1831
4492,2101
4493,1622
4494,1675
4495,2757
4496,2208
4497,1703
4498,1792
4499,1735
4500,1776
4501,1730
4502,1584
4503,1837
4504,1855
4505,1791
4506,1749
4507,1664
4508,1776
4509,1759
4510,1791
4511,1835
4512,1843
4513,1855
4514,1891
4515,1854
4516,1885
4517,1904
4518,1920
4519,1940
4520,1929
4521,1830
4522,1888
4523,2291
4524,1600
4525,1645
4526,2432
4527,2301
4528,1743
4529,1841
4530,1827
4531,1792
4532,1778
4533,1637
4534,1831
4535,1875
4536,1815
4537,1787
4538,1738
4539,1754
4540,1758
4541,1739
4542,1829
4543,1851
4544,1834
4545,1860
4546,1863
4547,1872
4548,1907
4549,1923
4550,1921
4551,1920
4552,1898
4553,1887
4554,2653
4555,1643
4556,1603
4557,2187
4558,2385
4559,1777
4560,1841
4561,1791
4562,1817
4563,1791
4564,1607
4565,1871
4566,1934
4567,1855
4568,1763
4569,1719
4570,1739
4571,1778
4572,1791
4573,1808
4574,1874
4575,1867
4576,1879
4577,1889
4578,1856
4579,1863
4580,1880
4581,1877
4582,1930
4583,1889
4584,1894
4585,1851
4586,1869
4587,1893
4588,1886
4589,1874
4590,1873
4591,1845
4592,1867
4593,1865
4594,1870
4595,1887
4596,1913
4597,1872
4598,1825
4599,1914
4600,1872
4601,1869
4602,1903
4603,1891
4604,1884
4605,1833
4606,1846
4607,1856
4608,1861
4609,1829
4610,1872
4611,1851
4612,1861
4613,1823
4614,1853
4615,1860
4616,1872
4617,1910
4618,1890
4619,1860
4620,1851
4621,1871
4622,1857
4623,1865
4624,1912
4625,1836
4626,1853
4627,1874
4628,1904
4629,1869
4630,1865
4631,1872
4632,1890
4633,1873
4634,1843
4635,1856
4636,1866
4637,1838
4638,1847
4639,1861
4640,1883
4641,1841
4642,1863
4643,1869
4644,1872
4645,1872
4646,1863
4647,1837
4648,1798
4649,1850
4650,1898
4651,1861
4652,1872
4653,1865
4654,1866
4655,1871
4656,1889
4657,1883
4658,1834
4659,1860
4660,1854
4661,1857
4662,1873
4663,1863
4664,1863
4665,1866
4666,1841
4667,1840
4668,1850
4669,1889
4670,1889
4671,1855
4672,1894
4673,1872
4674,1853
4675,1851
4676,1841
4677,1838
4678,1823
4679,1831
4680,1900
4681,1873
4682,1871
4683,1904
4684,1841
4685,1865
4686,1849
4687,1888
4688,1861
4689,1850
4690,1839
4691,1877
4692,1827
4693,1842
4694,1829
4695,1791
4696,1906
4697,1856
4698,1847
4699,1922
4700,1858
4701,1859
4702,1863
4703,1883
4704,1849
4705,1868
4706,1829
4707,1883
4708,1806
4709,1841
4710,1820
4711,1861
4712,1869
4713,1803
4714,1853
4715,1869
4716,1805
4717,1823
4718,1840
4719,1840
4720,1818
4721,1842
4722,1871
4723,1836
4724,1856
4725,1845
4726,1849
4727,1855
4728,1851
4729,1849
4730,1854
4731,1846
4732,1883
4733,1917
4734,1844
4735,1859
4736,1842
4737,1866
4738,1936
4739,1817
4740,1826
4741,1869
4742,1843
4743,1867
4744,1854
4745,1899
4746,1840
4747,1909
4748,1877
4749,1920
4750,1870
4751,1841
4752,1840
4753,1820
4754,1857
4755,1880
4756,1856
4757,1795
4758,1878
4759,1843
4760,1854
4761,1837
4762,1862
4763,1841
4764,1872
4765,1829
4766,1855
4767,1856
4768,1860
4769,1851
4770,1826
4771,1867
4772,1843
4773,1914
4774,1877
4775,1857
4776,1859
4777,1872
4778,1863
4779,1863
4780,1791
4781,1839
4782,1873
4783,1872
4784,1837
4785,1836
4786,1870
4787,1879
4788,1885
4789,1900
4790,1874
4791,1897
4792,1822
4793,1845
4794,1835
4795,1850
4796,1825
4797,1904
4798,1779
4799,1872
4800,1876
4801,1840
4802,1863
4803,1874
4804,1865
4805,1862
4806,1872
4807,1834
4808,1876
4809,1859
4810,1857
4811,1853
4812,1850
4813,1847
4814,1883
4815,1837
4816,1863
4817,1861
4818,1825
4819,1853
4820,1901
4821,1856
4822,1860
4823,1829
4824,1872
4825,1855
4826,1852
4827,1844
4828,1840
4829,1839
4830,1839
4831,1906
4832,1917
4833,1863
4834,1848
4835,1863
4836,1847
4837,1869
4838,1887
4839,1855
4840,1844
4841,1858
4842,1836
4843,1830
4844,1865
4845,1868
4846,1866
4847,1886
4848,1859
4849,1849
4850,1873
4851,1839
4852,1859
4853,1840
4854,1872
4855,1840
4856,1856
4857,1843
4858,1843
4859,1847
4860,1846
4861,1840
4862,1897
4863,1849
4864,1863
4865,1808
4866,1846
4867,1842
4868,1856
4869,1872
4870,1897
4871,1889
4872,1888
4873,1843
4874,1833
4875,1867
4876,1856
4877,1873
4878,1859
4879,1831
4880,1905
4881,1853
4882,1870
4883,1867
4884,1834
4885,1847
4886,1821
4887,1821
4888,1854
4889,1884
4890,1867
4891,1869
4892,1853
4893,1849
4894,1841
4895,1841
4896,1863
4897,1832
4898,1887
4899,1906
4900,1925
4901,1861
4902,1859
4903,1853
4904,1870
4905,1926
4906,1825
4907,1859
4908,1793
4909,1824
4910,1840
4911,1855
4912,1897
4913,1860
4914,1867
4915,1895
4916,1851
4917,1840
4918,1839
4919,1847
4920,1847
4921,1808
4922,1857
4923,1814
4924,1799
4925,1842
4926,1849
4927,1849
4928,1863
4929,1927
4930,1869
4931,1824
4932,1812
4933,1872
4934,1837
4935,1879
4936,1878
4937,1921
4938,1857
4939,1872
4940,1870
4941,1851
4942,1843
4943,1849
4944,1835
4945,1840
4946,1840
4947,1826
4948,1904
4949,1865
4950,1866
4951,1862
4952,1842
4953,1877
4954,1840
4955,1889
4956,1898
4957,1895
4958,1868
4959,1862
4960,1841
4961,1865
4962,1919
4963,1861
4964,1863
4965,1834
4966,1868
4967,1867
4968,1833
4969,1828
4970,1871
4971,1851
4972,1863
4973,1842
4974,1809
4975,1871
4976,1825
4977,1843
4978,1850
4979,1852
4980,1847
4981,1792
4982,1840
4983,1859
4984,1862
4985,1840
4986,1841
4987,1862
4988,1888
4989,1850
4990,1877
4991,1822
4992,1855
4993,1839
4994,1847
4995,1875
4996,1879
4997,1815
4998,1862
4999,1859
5000,1920
5001,1856
5002,1846
5003,1874
5004,1891
5005,1830
5006,1886
5007,1871
5008,1842
5009,1856
5010,1850
5011,1861
5012,1843
5013,1906
5014,1808
5015,1865
5016,1888
5017,1846
5018,1875
5019,1853
5020,1872
5021,1860
5022,1917
5023,1872
5024,1874
5025,1856
5026,1843
5027,1856
5028,1863
5029,1856
5030,1871
5031,1839
5032,1856
5033,1842
5034,1844
5035,1855
5036,1856
5037,1872
5038,1873
5039,1796
5040,1855
5041,1893
5042,1852
5043,1831
5044,1860
5045,1830
5046,1918
5047,1863
5048,1871
5049,1841
5050,1861
5051,1840
5052,1856
5053,1850
5054,1869
5055,1883
5056,1856
5057,1873
5058,1863
5059,1837
5060,1850
5061,1842
5062,1871
5063,1809
5064,1854
5065,1836
5066,1888
5067,1858
5068,1827
5069,1839
5070,1871
5071,1901
5072,1878
5073,1841
5074,1856
5075,1867
5076,1835
5077,1840
5078,1859
5079,1872
5080,1865
5081,1846
5082,1854
5083,1856
5084,1861
5085,1851
5086,1840
5087,1805
5088,1821
5089,1883
5090,1907
5091,1875
5092,1872
5093,1861
5094,1842
5095,1824
5096,1841
5097,1870
5098,1853
5099,1831
5100,1883
5101,1860
5102,1841
5103,1914
5104,1870
5105,1870
5106,1894
5107,1840
5108,1870
5109,1843
5110,1856
5111,1849
5112,1859
5113,1865
5114,1857
5115,1860
5116,1842
5117,1862
5118,1837
5119,1865
5120,1889
5121,1869
5122,1871
5123,1871
5124,1874
5125,1842
5126,1851
5127,1828
5128,1840
5129,1892
5130,1875
5131,1853
5132,1866
5133,1862
5134,1861
5135,1840
5136,1839
5137,1888
5138,1930
5139,1883
5140,1825
5141,1878
5142,1855
5143,1851
5144,1856
5145,1882
5146,1904
5147,1834
5148,1859
5149,1872
5150,1887
5151,1861
5152,1830
5153,1843
5154,1892
5155,1858
5156,1869
5157,1853
5158,1904
5159,1838
5160,1840
5161,1840
5162,1861
5163,1855
5164,1877
5165,1865
5166,1882
5167,1858
5168,1858
5169,1847
5170,1893
5171,1887
5172,1872
5173,1873
5174,1859
5175,1889
5176,1841
5177,1856
5178,1840
5179,1792
5180,1869
5181,1821
5182,1827
5183,1889
5184,1835
5185,1841
5186,1827
5187,1841
5188,1881
5189,1872
5190,1904
5191,1891
5192,1837
5193,1853
5194,1841
5195,1845
5196,1837
5197,1885
5198,1859
5199,1905
5200,1835
5201,1862
5202,1852
5203,1844
5204,1849
5205,1898
5206,1883
5207,1917
5208,1874
5209,1855
5210,1847
5211,1861
5212,1847
5213,1904
5214,1834
5215,1861
5216,1861
5217,1843
5218,1853
5219,1863
5220,1856
5221,1915
5222,1893
5223,1872
5224,1894
5225,1867
5226,1842
5227,1842
5228,1856
5229,1878
5230,1913
5231,1873
5232,1873
5233,1928
5234,1859
5235,1844
5236,1842
5237,1870
5238,1919
5239,1808
5240,1855
5241,1874
5242,1869
5243,1839
5244,1839
5245,1857
5246,1856
5247,1840
5248,1856
5249,1873
5250,1840
5251,1845
5252,1853
5253,1856
5254,1839
5255,1870
5256,1871
5257,1875
5258,1904
5259,1856
5260,1845
5261,1841
5262,1862
5263,1874
5264,1866
5265,1840
5266,1830
5267,1872
5268,1854
5269,1850
5270,1856
5271,1866
5272,1859
5273,1873
5274,1835
5275,1870
5276,1846
5277,1855
5278,1862
5279,1840
5280,1904
5281,1856
5282,1917
5283,1883
5284,1843
5285,1821
5286,1850
5287,1856
5288,1861
5289,1872
5290,1859
5291,1818
5292,1878
5293,1843
5294,1851
5295,1846
5296,1834
5297,1877
5298,1825
5299,1902
5300,1866
5301,1858
5302,1847
5303,1904
5304,1795
5305,1888
5306,1872
5307,1869
5308,1878
5309,1867
5310,1858
5311,1850
5312,1893
5313,1809
5314,1855
5315,1868
5316,1874
5317,1871
5318,1872
5319,1830
5320,1859
5321,1887
5322,1882
5323,1884
5324,1928
5325,1867
5326,1856
5327,1831
5328,1860
5329,1856
5330,1886
5331,1900
5332,1872
5333,1859
5334,1878
5335,1865
5336,1857
5337,1852
5338,1846
5339,1841
5340,1931
5341,1845
5342,1853
5343,1856
5344,1840
5345,1870
5346,1871
5347,1856
5348,1881
5349,1836
5350,1872
5351,1865
5352,1859
5353,1907
5354,1851
5355,1854
5356,1853
5357,1893
5358,1867
5359,1857
5360,1856
5361,1840
5362,1870
5363,1879
5364,1837
5365,1873
5366,1872
5367,1872
5368,1825
5369,1855
5370,1858
5371,1863
5372,1901
5373,1811
5374,1871
5375,1861
5376,1843
5377,1845
5378,1824
5379,1865
5380,1830
5381,1824
5382,1872
5383,1904
5384,1854
5385,1869
5386,1849
5387,1825
5388,1850
5389,1843
5390,1885
5391,1885
5392,1885
5393,1851
5394,1844
5395,1863
5396,1837
5397,1875
5398,1871
5399,1809
5400,1872
5401,1859
5402,1855
5403,1842
5404,1853
5405,1857
5406,1894
5407,1885
5408,1916
5409,1870
5410,1824
5411,1835
5412,1866
5413,1851
5414,1808
5415,1883
5416,1925
5417,1865
5418,1847
5419,1846
5420,1841
5421,1861
5422,1821
5423,1908
5424,1900
5425,1877
5426,1842
5427,1870
5428,1843
5429,1862
5430,1881
5431,1861
5432,1871
5433,1930
5434,1872
5435,1834
5436,1846
5437,1860
5438,1892
5439,1858
5440,1833
5441,1910
5442,1867
5443,1851
5444,1854
5445,1806
5446,1856
5447,1860
5448,1862
5449,1875
5450,1880
5451,1843
5452,1861
5453,1834
5454,1856
5455,1875
5456,1930
5457,1840
5458,1802
5459,1847
5460,1835
5461,1837
5462,1853
5463,1875
5464,1870
5465,1896
5466,1864
5467,1872
5468,1839
5469,1840
5470,1865
5471,1876
5472,1871
5473,1883
5474,1870
5475,1856
5476,1856
5477,1847
5478,1843
5479,1850
5480,1827
5481,1831
5482,1840
5483,1877
5484,1854
5485,1855
5486,1843
5487,1855
5488,1840
5489,1858
5490,1901
5491,1887
5492,1838
5493,1846
5494,1850
5495,1904
5496,1793
5497,1849
5498,1861
5499,1873
5500,1921
5501,1867
5502,1856
5503,1845
5504,1840
5505,1907
5506,1857
5507,1849
5508,1881
5509,1863
5510,1853
5511,1844
5512,1801
5513,1911
5514,1870
5515,1856
5516,1824
5517,1883
5518,1837
5519,1869
5520,1874
5521,1845
5522,1844
5523,1860
5524,1830
5525,1869
5526,1863
5527,1846
5528,1844
5529,1843
5530,1862
5531,1856
5532,1840
5533,1872
5534,1861
5535,1854
5536,1840
5537,1888
5538,1902
5539,1872
5540,1906
5541,1840
5542,1851
5543,1835
5544,1850
5545,1890
5546,1858
5547,1867
5548,1909
5549,1879
5550,1878
5551,1872
5552,1840
5553,1843
5554,1855
5555,1853
5556,1871
5557,1914
5558,1889
5559,1869
5560,1856
5561,1856
5562,1869
5563,1811
5564,1865
5565,1872
5566,1885
5567,1877
5568,1854
5569,1855
5570,1906
5571,1911
5572,1837
5573,1871
5574,1889
5575,1867
5576,1863
5577,1848
5578,1834
5579,1914
5580,1835
5581,2657
5582,1784
5583,1793
5584,1917
5585,2695
5586,2624
5587,2352
5588,1984
5589,1896
5590,1553
5591,1564
5592,1535
5593,1584
5594,1649
5595,1671
5596,1718
5597,1723
5598,1686
5599,1815
5600,1804
5601,1782
5602,1788
5603,1788
5604,1791
5605,1811
5606,1834
5607,1872
5608,1820
5609,1854
5610,1838
5611,1842
5612,2271
5613,1842
5614,1830
5615,1825
5616,2608
5617,2672
5618,2270
5619,1947
5620,1758
5621,1509
5622,1585
5623,1645
5624,1651
5625,1680
5626,1689
5627,1743
5628,1750
5629,1771
5630,1783
5631,1801
5632,1776
5633,1837
5634,1807
5635,1862
5636,1820
5637,1839
5638,1813
5639,1840
5640,1814
5641,1827
5642,1856
5643,1847
5644,1872
5645,1781
5646,1957
5647,2624
5648,2527
5649,1984
5650,1595
5651,1599
5652,1642
5653,1648
5654,1702
5655,1759
5656,1766
5657,1755
5658,1797
5659,1788
5660,1805
5661,1789
5662,1799
5663,1813
5664,1823
5665,1827
5666,1839
5667,1826
5668,1843
5669,1842
5670,1844
5671,1872
5672,1872
5673,1861
5674,1873
5675,1877
5676,1810
5677,1831
5678,2719
5679,2593
5680,1959
5681,1629
5682,1608
5683,1655
5684,1706
5685,1681
5686,1738
5687,1757
5688,1711
5689,1790
5690,1826
5691,1801
5692,1805
5693,1811
5694,1799
5695,1823
5696,1801
5697,1855
5698,1837
5699,1840
5700,1847
5701,1831
5702,1854
5703,1857
5704,1855
5705,1911
5706,1974
5707,1795
5708,1808
5709,2641
5710,2523
5711,1871
5712,1602
5713,1686
5714,1599
5715,1711
5716,1698
5717,1731
5718,1753
5719,1814
5720,1935
5721,1814
5722,1763
5723,1794
5724,1760
5725,1839
5726,1822
5727,1819
5728,1826
5729,1766
5730,1850
5731,1840
5732,1854
5733,1872
5734,1856
5735,1885
5736,1847
5737,2145
5738,1798
5739,1778
5740,2448
5741,2425
5742,1839
5743,1653
5744,1685
5745,1720
5746,1739
5747,1799
5748,1775
5749,1767
5750,1852
5751,1891
5752,1805
5753,1792
5754,1840
5755,1751
5756,1839
5757,1835
5758,1812
5759,1839
5760,1841
5761,1819
5762,1901
5763,1877
5764,1808
5765,1863
5766,1881
5767,1883
5768,2279
5769,1776
5770,1791
5771,2639
5772,2587
5773,1871
5774,1646
5775,1679
5776,1687
5777,1679
5778,1695
5779,1725
5780,1712
5781,1714
5782,1871
5783,1810
5784,1805
5785,1808
5786,1803
5787,1808
5788,1827
5789,1830
5790,1835
5791,1869
5792,1846
5793,1874
5794,1861
5795,1895
5796,1915
5797,1863
5798,1868
5799,2394
5800,1767
5801,1775
5802,2411
5803,2507
5804,1841
5805,1584
5806,1655
5807,1791
5808,1677
5809,1683
5810,1738
5811,1755
5812,1706
5813,1782
5814,1806
5815,1793
5816,1813
5817,1776
5818,1840
5819,1811
5820,1852
5821,1863
5822,1808
5823,1872
5824,1890
5825,1872
5826,1858
5827,1861
5828,1839
5829,1864
5830,2912
5831,1808
5832,1783
5833,2041
5834,2466
5835,1872
5836,1722
5837,1746
5838,1837
5839,1811
5840,1740
5841,1779
5842,1806
5843,1899
5844,1837
5845,1795
5846,1757
5847,1770
5848,1811
5849,1787
5850,1824
5851,1847
5852,1840
5853,1830
5854,1882
5855,1861
5856,1876
5857,1838
5858,1886
5859,1843
5860,1871
5861,2403
5862,1849
5863,1731
5864,1874
5865,2511
5866,1947
5867,1815
5868,1669
5869,1759
5870,1776
5871,1757
5872,1762
5873,1837
5874,1859
5875,1842
5876,1792
5877,1783
5878,1793
5879,1795
5880,1809
5881,1775
5882,1847
5883,1813
5884,1840
5885,1810
5886,1847
5887,1843
5888,1885
5889,1925
5890,1955
5891,1940
5892,1847
5893,1856
5894,1756
5895,1984
5896,2655
5897,2055
5898,1776
5899,1665
5900,1782
5901,1693
5902,1669
5903,1711
5904,1746
5905,1754
5906,1882
5907,1831
5908,1752
5909,1776
5910,1812
5911,1809
5912,1827
5913,1756
5914,1783
5915,1834
5916,1867
5917,1809
5918,1843
5919,1854
5920,1930
5921,1953
5922,1915
5923,1916
5924,1938
5925,1804
5926,1754
5927,2641
5928,2037
5929,1789
5930,1728
5931,1847
5932,1701
5933,1774
5934,1718
5935,1755
5936,1840
5937,1840
5938,1771
5939,1846
5940,1794
5941,1821
5942,1840
5943,1794
5944,1827
5945,1833
5946,1847
5947,1861
5948,1904
5949,1852
5950,1814
5951,1864
5952,1880
5953,1856
5954,1872
5955,2017
5956,1783
5957,1753
5958,2559
5959,2145
5960,1779
5961,1703
5962,1811
5963,1738
5964,1716
5965,1741
5966,1747
5967,1840
5968,1839
5969,1781
5970,1781
5971,1754
5972,1803
5973,1808
5974,1847
5975,1825
5976,1840
5977,1856
5978,1851
5979,1881
5980,1876
5981,1885
5982,1859
5983,1903
5984,1884
5985,1871
5986,2174
5987,1727
5988,1787
5989,2688
5990,2253
5991,1737
5992,1648
5993,1667
5994,1721
5995,1734
5996,1648
5997,1783
5998,1846
5999,1882
6000,1792
6001,1783
6002,1751
6003,1792
6004,1808
6005,1778
6006,1840
6007,1850
6008,1890
6009,1845
6010,1859
6011,1856
6012,1825
6013,1897
6014,1845
6015,1893
6016,1884
6017,2387
6018,1776
6019,1765
6020,2559
6021,2398
6022,1776
6023,1702
6024,1799
6025,1776
6026,1747
6027,1719
6028,1726
6029,1771
6030,1827
6031,1821
6032,1789
6033,1792
6034,1807
6035,1792
6036,1827
6037,1833
6038,1870
6039,1862
6040,1920
6041,1831
6042,1868
6043,1858
6044,1863
6045,1845
6046,1868
6047,1871
6048,2670
6049,1808
6050,1783
6051,2124
6052,2429
6053,1747
6054,1726
6055,1818
6056,1779
6057,1776
6058,1664
6059,1786
6060,1842
6061,1818
6062,1809
6063,1792
6064,1788
6065,1791
6066,1823
6067,1820
6068,1822
6069,1813
6070,1780
6071,1872
6072,1926
6073,1922
6074,1911
6075,1920
6076,1867
6077,1847
6078,1840
6079,2582
6080,1815
6081,1788
6082,1991
6083,2495
6084,1834
6085,1789
6086,1712
6087,1821
6088,1814
6089,1759
6090,1798
6091,1810
6092,1841
6093,1776
6094,1754
6095,1766
6096,1772
6097,1818
6098,1807
6099,1813
6100,1887
6101,1834
6102,1820
6103,1840
6104,1814
6105,1885
6106,1934
6107,1961
6108,1889
6109,1841
6110,2109
6111,1813
6112,1780
6113,2192
6114,2485
6115,1811
6116,1846
6117,1783
6118,1747
6119,1735
6120,1741
6121,1709
6122,1840
6123,1861
6124,1797
6125,1829
6126,1770
6127,1791
6128,1783
6129,1867
6130,1808
6131,1794
6132,1823
6133,1910
6134,1898
6135,1868
6136,1838
6137,1863
6138,1918
6139,1872
6140,1882
6141,1882
6142,1841
6143,1749
6144,1898
6145,2559
6146,1937
6147,1733
6148,1691
6149,1799
6150,1854
6151,1733
6152,1744
6153,1790
6154,1824
6155,1813
6156,1773
6157,1808
6158,1849
6159,1791
6160,1798
6161,1830
6162,1756
6163,1815
6164,1834
6165,1861
6166,1904
6167,1917
6168,1895
6169,1894
6170,1904
6171,1889
6172,1885
6173,1968
6174,1748
6175,1785
6176,2448
6177,1987
6178,1697
6179,1744
6180,1811
6181,1781
6182,1803
6183,1814
6184,1898
6185,1861
6186,1793
6187,1737
6188,1775
6189,1775
6190,1754
6191,1808
6192,1843
6193,1808
6194,1839
6195,1855
6196,1895
6197,1904
6198,1813
6199,1876
6200,1865
6201,1895
6202,1847
6203,1849
6204,1863
6205,1904
6206,1902
6207,1872
6208,1867
6209,1866
6210,1841
6211,1863
6212,1850
6213,1858
6214,1879
6215,1856
6216,1821
6217,1847
6218,1874
6219,1872
6220,1858
6221,1872
6222,1854
6223,1861
6224,1901
6225,1872
6226,1854
6227,1870
6228,1878
6229,1904
6230,1917
6231,1889
6232,1813
6233,1895
6234,1851
6235,1873
6236,1863
6237,1855
6238,1861
6239,1885
6240,1870
6241,1861
6242,1859
6243,1814
6244,1836
6245,1843
6246,1870
6247,1904
6248,1854
6249,1872
6250,1920
6251,1856
6252,1856
6253,1876
6254,1867
6255,1811
6256,1863
6257,1893
6258,1920
6259,1833
6260,1840
6261,1828
6262,1872
6263,1889
6264,1899
6265,1920
6266,1819
6267,1862
6268,1850
6269,1834
6270,1821
6271,1818
6272,1882
6273,1868
6274,1841
6275,1840
6276,1866
6277,1834
6278,1850
6279,1861
6280,1910
6281,1919
6282,1870
6283,1824
6284,1899
6285,1867
6286,1850
6287,1916
6288,1858
6289,1869
6290,1913
6291,1851
6292,1815
6293,1840
6294,1867
6295,1861
6296,1863
6297,1872
6298,1774
6299,1855
6300,1839
6301,1858
6302,1851
6303,1869
6304,1843
6305,1888
6306,1898
6307,1905
6308,1819
6309,1861
6310,1815
6311,1826
6312,1891
6313,1843
6314,1856
6315,1830
6316,1904
6317,1859
6318,1849
6319,1861
6320,1849
6321,1893
6322,1903
6323,1873
6324,1866
6325,1839
6326,1845
6327,1846
6328,1840
6329,1873
6330,1851
6331,1887
6332,1823
6333,1852
6334,1869
6335,1846
6336,1840
6337,1851
6338,1849
6339,1826
6340,1851
6341,1871
6342,1849
6343,1856
6344,1843
6345,1859
6346,1881
6347,1855
6348,1886
6349,1867
6350,1845
6351,1893
6352,1878
6353,1839
6354,1856
6355,1856
6356,1851
6357,1845
6358,1847
6359,1862
6360,1842
6361,1843
6362,1829
6363,1839
6364,1889
6365,1858
6366,1865
6367,1872
6368,1850
6369,1860
6370,1843
6371,1910
6372,1851
6373,1862
6374,1785
6375,1840
6376,1837
6377,1817
6378,1840
6379,1872
6380,1890
6381,1858
6382,1839
6383,1847
6384,1854
6385,1855
6386,1876
6387,1838
6388,1829
6389,1926
6390,1876
6391,1887
6392,1872
6393,1843
6394,1836
6395,1854
6396,1856
6397,1874
6398,1877
6399,1893
6400,1870
6401,1859
6402,1855
6403,1841
6404,1873
6405,1907
6406,1872
6407,1838
6408,1917
6409,1834
6410,1830
6411,1843
6412,1811
6413,1920
6414,1856
6415,1862
6416,1872
6417,1870
6418,1849
6419,1837
6420,1842
6421,1877
6422,1861
6423,1835
6424,1850
6425,1878
6426,1847
6427,1847
6428,1844
6429,1873
6430,1872
6431,1803
6432,1845
6433,1854
6434,1867
6435,1835
6436,1840
6437,1804
6438,1854
6439,1873
6440,1913
6441,1917
6442,1844
6443,1847
6444,1846
6445,1856
6446,1902
6447,1849
6448,1844
6449,1825
6450,1841
6451,1835
6452,1858
6453,1860
6454,1875
6455,1858
6456,1856
6457,1831
6458,1867
6459,1866
6460,1850
6461,1855
6462,1807
6463,1887
6464,1825
6465,1877
6466,1928
6467,1895
6468,1856
6469,1847
6470,1902
6471,1852
6472,1883
6473,1840
6474,1848
6475,1899
6476,1846
6477,1851
6478,1850
6479,1803
6480,1808
6481,1867
6482,1860
6483,1850
6484,1879
6485,1826
6486,1847
6487,1854
6488,1856
6489,1808
6490,1851
6491,1883
6492,1862
6493,1837
6494,1827
6495,1870
6496,1895
6497,1876
6498,1867
6499,1901
6500,1919
6501,1862
6502,1859
6503,1870
6504,1877
6505,1907
6506,1840
6507,1875
6508,1865
6509,1850
6510,1859
6511,1854
6512,1872
6513,1810
6514,1856
6515,1872
6516,1885
6517,1859
6518,1867
6519,1854
6520,1879
6521,1879
6522,1920
6523,1875
6524,1850
6525,1871
6526,1849
6527,1853
6528,1873
6529,1803
6530,1894
6531,1872
6532,1814
6533,1845
6534,1891
6535,1852
6536,1842
6537,1847
6538,1805
6539,1849
6540,1878
6541,1884
6542,1839
6543,1840
6544,1830
6545,1855
6546,1856
6547,1911
6548,1812
6549,1902
6550,1867
6551,1875
6552,1876
6553,1856
6554,1868
6555,1865
6556,1857
6557,1872
6558,1911
6559,1871
6560,1851
6561,1858
6562,1797
6563,1854
6564,1872
6565,1859
6566,1873
6567,1861
6568,1846
6569,1841
6570,1889
6571,1857
6572,1893
6573,1811
6574,1903
6575,1877
6576,1839
6577,1827
6578,1853
6579,1843
6580,1824
6581,1843
6582,1885
6583,1843
6584,1886
6585,1871
6586,1856
6587,1863
6588,1917
6589,1873
6590,1878
6591,1839
6592,1854
6593,1822
6594,1855
6595,1843
6596,1873
6597,1888
6598,1847
6599,1929
6600,1868
6601,1872
6602,1871
6603,1871
6604,1849
6605,1871
6606,1793
6607,1786
6608,1872
6609,1829
6610,1821
6611,1838
6612,1839
6613,1884
6614,1856
6615,1839
6616,1866
6617,1849
6618,1856
6619,1854
6620,1843
6621,1901
6622,1856
6623,1869
6624,1872
6625,1837
6626,1850
6627,1855
6628,1823
6629,1859
6630,1872
6631,1881
6632,1824
6633,1901
6634,1865
6635,1837
6636,1866
6637,1831
6638,1872
6639,1877
6640,1872
6641,1863
6642,1865
6643,1847
6644,1845
6645,1866
6646,1849
6647,1870
6648,1855
6649,1871
6650,1863
6651,1845
6652,1840
6653,1867
6654,1808
6655,1855
6656,1890
6657,1866
6658,1858
6659,1853
6660,1840
6661,1846
6662,1859
6663,1851
6664,1885
6665,1866
6666,1898
6667,1872
6668,1833
6669,1855
6670,1858
6671,1846
6672,1878
6673,1904
6674,1922
6675,1849
6676,1856
6677,1833
6678,1852
6679,1865
6680,1906
6681,1873
6682,1808
6683,1895
6684,1883
6685,1852
6686,1851
6687,1803
6688,1846
6689,1842
6690,1825
6691,1868
6692,1871
6693,1837
6694,1855
6695,1855
6696,1830
6697,1858
6698,1879
6699,1872
6700,1885
6701,1855
6702,1835
6703,1853
6704,1886
6705,1811
6706,1883
6707,1907
6708,1871
6709,1866
6710,1843
6711,1840
6712,1872
6713,1878
6714,1868
6715,1887
6716,1863
6717,1817
6718,1861
6719,1858
6720,1842
6721,1883
6722,1862
6723,1881
6724,1814
6725,1798
6726,1855
6727,1841
6728,1851
6729,1871
6730,1873
6731,1879
6732,1808
6733,1807
6734,1862
6735,1839
6736,1826
6737,1840
6738,1865
6739,1845
6740,1855
6741,1889
6742,1866
6743,1855
6744,1841
6745,1850
6746,1855
6747,1878
6748,1855
6749,1859
6750,1825
6751,1855
6752,1845
6753,1833
6754,1840
6755,1893
6756,1902
6757,1863
6758,1904
6759,1855
6760,1849
6761,1852
6762,1853
6763,1869
6764,1881
6765,1915
6766,1873
6767,1877
6768,1840
6769,1835
6770,1850
6771,1881
6772,1861
6773,1879
6774,1882
6775,1904
6776,1835
6777,1823
6778,1827
6779,1815
6780,1853
6781,1857
6782,1857
6783,1923
6784,1857
6785,1867
6786,1842
6787,1851
6788,1867
6789,1805
6790,1922
6791,1899
6792,1875
6793,1841
6794,1842
6795,1835
6796,1890
6797,1864
6798,1875
6799,1887
6800,1856
6801,1840
6802,1851
6803,1840
6804,1874
6805,1859
6806,1842
6807,1929
6808,1869
6809,1839
6810,1833
6811,1835
6812,1839
6813,1849
6814,1829
6815,1872
6816,1923
6817,1872
6818,1847
6819,1856
6820,1871
6821,1859
6822,1856
6823,1865
6824,1867
6825,1889
6826,1836
6827,1840
6828,1840
6829,1875
6830,1854
6831,1874
6832,1891
6833,1909
6834,1895
6835,1872
6836,1865
6837,1890
6838,1872
6839,1878
6840,1920
6841,1883
6842,1875
6843,1865
6844,1864
6845,1869
6846,1875
6847,1870
6848,1876
6849,1920
6850,1886
6851,1862
6852,1875
6853,1882
6854,1871
6855,1882
6856,1878
6857,1805
6858,1847
6859,1837
6860,1847
6861,1871
6862,1903
6863,1870
6864,1855
6865,1885
6866,1871
6867,1866
6868,1874
6869,1861
6870,1891
6871,1886
6872,1853
6873,1872
6874,1904
6875,1843
6876,1851
6877,1840
6878,1865
6879,1920
6880,1838
6881,1826
6882,1877
6883,1891
6884,1878
6885,1863
6886,1862
6887,1930
6888,1858
6889,1920
6890,1842
6891,1874
6892,1881
6893,1853
6894,1856
6895,1847
6896,1871
6897,1904
6898,1868
6899,1925
6900,1881
6901,1854
6902,1856
6903,1840
6904,1872
6905,1870
6906,1851
6907,1894
6908,1915
6909,1861
6910,1843
6911,1840
6912,1857
6913,1821
6914,1839
6915,1869
6916,1862
6917,1881
6918,1878
6919,1870
6920,1854
6921,1883
6922,1872
6923,1866
6924,1840
6925,1855
6926,1824
6927,1847
6928,1854
6929,1866
6930,1863
6931,1822
6932,1915
6933,1884
6934,1863
6935,1850
6936,1862
6937,1856
6938,1858
6939,1893
6940,1865
6941,1904
6942,1886
6943,1840
6944,1863
6945,1872
6946,1884
6947,1859
6948,1843
6949,1833
6950,1849
6951,1874
6952,1856
6953,1847
6954,1885
6955,1822
6956,1823
6957,1895
6958,1808
6959,1859
6960,1875
6961,1863
6962,1861
6963,1879
6964,1808
6965,1857
6966,1856
6967,1856
6968,1858
6969,1867
6970,1868
6971,1868
6972,1883
6973,1808
6974,1873
6975,1843
6976,1841
6977,1867
6978,1840
6979,1906
6980,1851
6981,1873
6982,1904
6983,1861
6984,1862
6985,1857
6986,1856
6987,1858
6988,1881
6989,1872
6990,1856
6991,1840
6992,1905
6993,1842
6994,1859
6995,1853
6996,1881
6997,1866
6998,1830
6999,1842
7000,1817
7001,1878
7002,1872
7003,1856
7004,1881
7005,1839
7006,1862
7007,1888
7008,1866
7009,1878
7010,1868
7011,1850
7012,1871
7013,1851
7014,1871
7015,1874
7016,1850
7017,1897
7018,1835
7019,1852
7020,1855
7021,1848
7022,1808
7023,1877
7024,1904
7025,1862
7026,1866
7027,1859
7028,1857
7029,1856
7030,1867
7031,1834
7032,1890
7033,1861
7034,1877
7035,1859
7036,1871
7037,1897
7038,1865
7039,1870
7040,1867
7041,1868
7042,1809
7043,1853
7044,1840
7045,1834
7046,1856
7047,1803
7048,1875
7049,1876
7050,1882
7051,1873
7052,1870
7053,1856
7054,1906
7055,1821
7056,1881
7057,1871
7058,1856
7059,1838
7060,1856
7061,1869
7062,1853
7063,1887
7064,1884
7065,1913
7066,1877
7067,1885
7068,1841
7069,1872
7070,1862
7071,1883
7072,1855
7073,1875
7074,1805
7075,1808
7076,1825
7077,1856
7078,1851
7079,1882
7080,1904
7081,1822
7082,1900
7083,1879
7084,1831
7085,1846
7086,1867
7087,1879
7088,1853
7089,1851
7090,1899
7091,1845
7092,1871
7093,1847
7094,1858
7095,1855
7096,1871
7097,1838
7098,1854
7099,1889
7100,1819
7101,1852
7102,1872
7103,1869
7104,1883
7105,1881
7106,1874
7107,1809
7108,1851
7109,1866
7110,1857
7111,1839
7112,1853
7113,1876
7114,1887
7115,1823
7116,1817
7117,1866
7118,1845
7119,1851
7120,1862
7121,1877
7122,1861
7123,1918
7124,1844
7125,1873
7126,1838
7127,1862
7128,1851
7129,1885
7130,1795
7131,1804
7132,1878
7133,1867
7134,1874
7135,1840
7136,1856
7137,1797
7138,1886
7139,1926
7140,1872
7141,1856
7142,1856
7143,1846
7144,1856
7145,1847
7146,1875
7147,1872
7148,1845
7149,1793
7150,1887
7151,1863
7152,1834
7153,1853
7154,1878
7155,1872
7156,1839
7157,1841
7158,1856
7159,1869
7160,1841
7161,1858
7162,1866
7163,1881
7164,1824
7165,1856
7166,1843
7167,1872
7168,1840
7169,1837
7170,1855
7171,1904
7172,1889
7173,1862
7174,1857
7175,1843
7176,1843
7177,1863
7178,1839
7179,1859
7180,1841
7181,1859
7182,1863
7183,1840
7184,1866
7185,1847
7186,1867
7187,1866
7188,1889
7189,1870
7190,1920
7191,1922
7192,1879
7193,1825
7194,1855
7195,1856
7196,1843
7197,1844
7198,1827
7199,1841
7200,1759
7201,1641
7202,2207
7203,2797
7204,2708
7205,2453
7206,2070
7207,1728
7208,1493
7209,1335
7210,1391
7211,1485
7212,1491
7213,1577
7214,1954
7215,1968
7216,1889
7217,1694
7218,1644
7219,1675
7220,1685
7221,1747
7222,1780
7223,1758
7224,1779
7225,1917
7226,1946
7227,1885
7228,1845
7229,1840
7230,1840
7231,1904
7232,1681
7233,1966
7234,2740
7235,2738
7236,2405
7237,1934
7238,1639
7239,1405
7240,1422
7241,1412
7242,1569
7243,1593
7244,1721
7245,1957
7246,1862
7247,1791
7248,1737
7249,1648
7250,1741
7251,1821
7252,1831
7253,1894
7254,1900
7255,1825
7256,1900
7257,1832
7258,1861
7259,1827
7260,1857
7261,1882
7262,2054
7263,1723
7264,1859
7265,2731
7266,2677
7267,2173
7268,1563
7269,1450
7270,1469
7271,1571
7272,1566
7273,1728
7274,2062
7275,2129
7276,1977
7277,1868
7278,1735
7279,1710
7280,1691
7281,1757
7282,1774
7283,1818
7284,1785
7285,1843
7286,1815
7287,1799
7288,1795
7289,1879
7290,1855
7291,1899
7292,1849
7293,2315
7294,1667
7295,1658
7296,2832
7297,2855
7298,2225
7299,1589
7300,1488
7301,1510
7302,1563
7303,1601
7304,1604
7305,1968
7306,1949
7307,2023
7308,1883
7309,1771
7310,1727
7311,1749
7312,1744
7313,1787
7314,1825
7315,1875
7316,1917
7317,1874
7318,1855
7319,1879
7320,1855
7321,1898
7322,1914
7323,1840
7324,2703
7325,1654
7326,1646
7327,2400
7328,2796
7329,2195
7330,1610
7331,1438
7332,1590
7333,1618
7334,1750
7335,1895
7336,1951
7337,1965
7338,1987
7339,1889
7340,1792
7341,1712
7342,1724
7343,1765
7344,1773
7345,1802
7346,1842
7347,1872
7348,1897
7349,1847
7350,1821
7351,1848
7352,1862
7353,1862
7354,1856
7355,2863
7356,1673
7357,1633
7358,2121
7359,2642
7360,2003
7361,1611
7362,1535
7363,1634
7364,1682
7365,1728
7366,1882
7367,1981
7368,1991
7369,1949
7370,1857
7371,1808
7372,1793
7373,1776
7374,1780
7375,1858
7376,1823
7377,1799
7378,1811
7379,1808
7380,1885
7381,1906
7382,1887
7383,1882
7384,1904
7385,1884
7386,1939
7387,1723
7388,1664
7389,2455
7390,2817
7391,2141
7392,1584
7393,1450
7394,1616
7395,1672
7396,1662
7397,1751
7398,1903
7399,1962
7400,1887
7401,1791
7402,1708
7403,1742
7404,1748
7405,1783
7406,1780
7407,1809
7408,1813
7409,1810
7410,1829
7411,1855
7412,1883
7413,1867
7414,1877
7415,1866
7416,1873
7417,1889
7418,1738
7419,1652
7420,2119
7421,2818
7422,2167
7423,1659
7424,1534
7425,1685
7426,1728
7427,1674
7428,1663
7429,1936
7430,1938
7431,1916
7432,1856
7433,1799
7434,1681
7435,1735
7436,1744
7437,1784
7438,1850
7439,1836
7440,1872
7441,1904
7442,1898
7443,1859
7444,1850
7445,1881
7446,1936
7447,1926
7448,1887
7449,1805
7450,1642
7451,1664
7452,2639
7453,2255
7454,1701
7455,1591
7456,1763
7457,1787
7458,1702
7459,1723
7460,1890
7461,1936
7462,1904
7463,1823
7464,1757
7465,1776
7466,1680
7467,1775
7468,1791
7469,1813
7470,1836
7471,1894
7472,1822
7473,1917
7474,1810
7475,1891
7476,1849
7477,1872
7478,1853
7479,1866
7480,1888
7481,1643
7482,1714
7483,2654
7484,2397
7485,1776
7486,1559
7487,1670
7488,1781
7489,1718
7490,1695
7491,1929
7492,1937
7493,1862
7494,1746
7495,1736
7496,1739
7497,1757
7498,1797
7499,1851
7500,1856
7501,1845
7502,1874
7503,1872
7504,1878
7505,1895
7506,1893
7507,1894
7508,1889
7509,1839
7510,1848
7511,2193
7512,1671
7513,1856
7514,2822
7515,2434
7516,1776
7517,1594
7518,1711
7519,1691
7520,1727
7521,1635
7522,1839
7523,1886
7524,1867
7525,1786
7526,1729
7527,1706
7528,1710
7529,1744
7530,1806
7531,1841
7532,1875
7533,1935
7534,1890
7535,1849
7536,1873
7537,1875
7538,1949
7539,1887
7540,1896
7541,1936
7542,2334
7543,1674
7544,1677
7545,2763
7546,2429
7547,1715
7548,1653
7549,1650
7550,1783
7551,1806
7552,1615
7553,1851
7554,1878
7555,1952
7556,1794
7557,1789
7558,1736
7559,1750
7560,1770
7561,1802
7562,1860
7563,1941
7564,1930
7565,1891
7566,1878
7567,1953
7568,1890
7569,1829
7570,1833
7571,1840
7572,1936
7573,2957
7574,1669
7575,1613
7576,2198
7577,2559
7578,1777
7579,1683
7580,1713
7581,1806
7582,1867
7583,1733
7584,1827
7585,1883
7586,1875
7587,1808
7588,1786
7589,1766
7590,1705
7591,1756
7592,1823
7593,1832
7594,1841
7595,1860
7596,1925
7597,1890
7598,1872
7599,1866
7600,1934
7601,1891
7602,1872
7603,1872
7604,2431
7605,1712
7606,1687
7607,2506
7608,2620
7609,1811
7610,1713
7611,1601
7612,1714
7613,1815
7614,1609
7615,1750
7616,1917
7617,1862
7618,1790
7619,1721
7620,1703
7621,1791
7622,1805
7623,1827
7624,1831
7625,1852
7626,1851
7627,1872
7628,1883
7629,1925
7630,1936
7631,1910
7632,1881
7633,1859
7634,1906
7635,1872
7636,1719
7637,1698
7638,2259
7639,2783
7640,1963
7641,1617
7642,1617
7643,1708
7644,1793
7645,1649
7646,1736
7647,1896
7648,1859
7649,1856
7650,1814
7651,1743
7652,1744
7653,1762
7654,1773
7655,1824
7656,1869
7657,1897
7658,1902
7659,1877
7660,1901
7661,1874
7662,1876
7663,1883
7664,1863
7665,1899
7666,1935
7667,1787
7668,1639
7669,1819
7670,2783
7671,2113
7672,1677
7673,1612
7674,1742
7675,1835
7676,1718
7677,1719
7678,1934
7679,1886
7680,1827
7681,1669
7682,1728
7683,1791
7684,1777
7685,1789
7686,1819
7687,1874
7688,1872
7689,1897
7690,1954
7691,1911
7692,1917
7693,1848
7694,1862
7695,1871
7696,1943
7697,1904
7698,1845
7699,1667
7700,1844
7701,2790
7702,2118
7703,1662
7704,1611
7705,1787
7706,1805
7707,1803
7708,1721
7709,1870
7710,1861
7711,1791
7712,1733
7713,1728
7714,1735
7715,1785
7716,1843
7717,1795
7718,1860
7719,1886
7720,1875
7721,1872
7722,1905
7723,1929
7724,1904
7725,1877
7726,1879
7727,1872
7728,1889
7729,1982
7730,1596
7731,1837
7732,2800
7733,2260
7734,1649
7735,1621
7736,1728
7737,1663
7738,1823
7739,1695
7740,1904
7741,1903
7742,1818
7743,1709
7744,1696
7745,1730
7746,1746
7747,1799
7748,1824
7749,1831
7750,1887
7751,1875
7752,1856
7753,1875
7754,1872
7755,1881
7756,1861
7757,1970
7758,1931
7759,1870
7760,2067
7761,1619
7762,1665
7763,2770
7764,2381
7765,1651
7766,1648
7767,1733
7768,1742
7769,1822
7770,1650
7771,1934
7772,1919
7773,1840
7774,1683
7775,1727
7776,1738
7777,1723
7778,1751
7779,1858
7780,1852
7781,1913
7782,1899
7783,1851
7784,1892
7785,1889
7786,1872
7787,1872
7788,1929
7789,1881
7790,1889
7791,2726
7792,1616
7793,1629
7794,2739
7795,2498
7796,1727
7797,1693
7798,1660
7799,1744
7800,1817
7801,1699
7802,1890
7803,1904
7804,1795
7805,1678
7806,1710
7807,1703
7808,1734
7809,1775
7810,1779
7811,1834
7812,1865
7813,1867
7814,1869
7815,1871
7816,1917
7817,1862
7818,1887
7819,1869
7820,1872
7821,1901
7822,1869
7823,1926
7824,1894
7825,1887
7826,1854
7827,1854
7828,1852
7829,1876
7830,1827
7831,1831
7832,1904
7833,1853
7834,1826
7835,1875
7836,1863
7837,1877
7838,1845
7839,1919
7840,1933
7841,1907
7842,1867
7843,1837
7844,1863
7845,1872
7846,1863
7847,1872
7848,1857
7849,1860
7850,1904
7851,1866
7852,1847
7853,1849
7854,1886
7855,1829
7856,1911
7857,1841
7858,1782
7859,1878
7860,1872
7861,1856
7862,1871
7863,1887
7864,1872
7865,1833
7866,1897
7867,1872
7868,1853
7869,1859
7870,1870
7871,1885
7872,1863
7873,1858
7874,1857
7875,1833
7876,1847
7877,1855
7878,1865
7879,1894
7880,1898
7881,1840
7882,1911
7883,1852
7884,1851
7885,1863
7886,1877
7887,1872
7888,1892
7889,1935
7890,1906
7891,1850
7892,1884
7893,1826
7894,1834
7895,1836
7896,1890
7897,1855
7898,1883
7899,1870
7900,1878
7901,1869
7902,1861
7903,1859
7904,1846
7905,1877
7906,1903
7907,1877
7908,1873
7909,1890
7910,1865
7911,1859
7912,1847
7913,1881
7914,1840
7915,1879
7916,1858
7917,1847
7918,1830
7919,1840
7920,1823
7921,1872
7922,1873
7923,1877
7924,1855
7925,1840
7926,1851
7927,1871
7928,1884
7929,1872
7930,1879
7931,1908
7932,1831
7933,1856
7934,1853
7935,1843
7936,1840
7937,1847
7938,1861
7939,1858
7940,1901
7941,1864
7942,1890
7943,1835
7944,1857
7945,1846
7946,1841
7947,1862
7948,1842
7949,1846
7950,1879
7951,1871
7952,1865
7953,1838
7954,1843
7955,1846
7956,1862
7957,1873
7958,1907
7959,1868
7960,1853
7961,1840
7962,1857
7963,1886
7964,1883
7965,1866
7966,1875
7967,1843
7968,1847
7969,1841
7970,1870
7971,1871
7972,1846
7973,1829
7974,1796
7975,1838
7976,1869
7977,1847
7978,1840
7979,1864
7980,1879
7981,1868
7982,1867
7983,1845
7984,1846
7985,1855
7986,1901
7987,1889
7988,1815
7989,1882
7990,1850
7991,1871
7992,1840
7993,1840
7994,1840
7995,1853
7996,1861
7997,1903
7998,1857
7999,1914
8000,1848
8001,1887
8002,1883
8003,1871
8004,1879
8005,1869
8006,1904
8007,1868
8008,1856
8009,1859
8010,1847
8011,1849
8012,1859
8013,1858
8014,1851
8015,1879
8016,1850
8017,1855
8018,1843
8019,1887
8020,1870
8021,1859
8022,1870
8023,1887
8024,1870
8025,1889
8026,1859
8027,1856
8028,1850
8029,1904
8030,1856
8031,1871
8032,1903
8033,1862
8034,1879
8035,1854
8036,1874
8037,1870
8038,1853
8039,1866
8040,1895
8041,1911
8042,1898
8043,1851
8044,1854
8045,1854
8046,1886
8047,1833
8048,1872
8049,1837
8050,1861
8051,1887
8052,1878
8053,1885
8054,1858
8055,1841
8056,1853
8057,1831
8058,1864
8059,1867
8060,1859
8061,1876
8062,1859
8063,1837
8064,1840
8065,1903
8066,1871
8067,1868
8068,1843
8069,1834
8070,1861
8071,1882
8072,1858
8073,1856
8074,1872
8075,1885
8076,1842
8077,1862
8078,1850
8079,1801
8080,1879
8081,1841
8082,1806
8083,1866
8084,1866
8085,1871
8086,1840
8087,1875
8088,1883
8089,1871
8090,1804
8091,1859
8092,1857
8093,1856
8094,1854
8095,1840
8096,1872
8097,1904
8098,1858
8099,1909
8100,1904
8101,1871
8102,1859
8103,1867
8104,1888
8105,1860
8106,1904
8107,1825
8108,1839
8109,1904
8110,1867
8111,1872
8112,1850
8113,1867
8114,1855
8115,1891
8116,1909
8117,1856
8118,1872
8119,1839
8120,1847
8121,1865
8122,1826
8123,1879
8124,1881
8125,1851
8126,1835
8127,1840
8128,1869
8129,1817
8130,1854
8131,1861
8132,1880
8133,1847
8134,1821
8135,1867
8136,1903
8137,1869
8138,1902
8139,1850
8140,1879
8141,1853
8142,1870
8143,1847
8144,1846
8145,1838
8146,1872
8147,1854
8148,1870
8149,1794
8150,1869
8151,1872
8152,1865
8153,1850
8154,1819
8155,1857
8156,1906
8157,1873
8158,1854
8159,1870
8160,1866
8161,1870
8162,1859
8163,1821
8164,1859
8165,1900
8166,1819
8167,1891
8168,1867
8169,1872
8170,1872
8171,1861
8172,1881
8173,1863
8174,1827
8175,1830
8176,1839
8177,1855
8178,1838
8179,1863
8180,1856
8181,1810
8182,1866
8183,1895
8184,1839
8185,1841
8186,1856
8187,1862
8188,1856
8189,1870
8190,1840
8191,1849
8192,1856
8193,1855
8194,1857
8195,1856
8196,1875
8197,1888
8198,1881
8199,1841
8200,1901
8201,1847
8202,1857
8203,1855
8204,1867
8205,1877
8206,1858
8207,1893
8208,1847
8209,1815
8210,1851
8211,1866
8212,1847
8213,1857
8214,1875
8215,1861
8216,1856
8217,1849
8218,1837
8219,1860
8220,1833
8221,1865
8222,1846
8223,1817
8224,1890
8225,1850
8226,1835
8227,1840
8228,1857
8229,1891
8230,1804
8231,1853
8232,1913
8233,1858
8234,1872
8235,1870
8236,1861
8237,1884
8238,1866
8239,1862
8240,1872
8241,1861
8242,1862
8243,1872
8244,1860
8245,1856
8246,1872
8247,1859
8248,1861
8249,1845
8250,1808
8251,1877
8252,1879
8253,1856
8254,1827
8255,1840
8256,1903
8257,1872
8258,1851
8259,1840
8260,1825
8261,1877
8262,1850
8263,1881
8264,1833
8265,1904
8266,1830
8267,1872
8268,1840
8269,1853
8270,1877
8271,1878
8272,1885
8273,1861
8274,1872
8275,1861
8276,1867
8277,1839
8278,1857
8279,1841
8280,1817
8281,1854
8282,1869
8283,1862
8284,1884
8285,1857
8286,1848
8287,1850
8288,1849
8289,1873
8290,1847
8291,1872
8292,1865
8293,1856
8294,1841
8295,1861
8296,1877
8297,1846
8298,1860
8299,1845
8300,1855
8301,1849
8302,1872
8303,1873
8304,1874
8305,1883
8306,1846
8307,1872
8308,1822
8309,1862
8310,1834
8311,1855
8312,1872
8313,1891
8314,1889
8315,1867
8316,1862
8317,1870
8318,1872
8319,1850
8320,1853
8321,1872
8322,1841
8323,1837
8324,1849
8325,1844
8326,1866
8327,1869
8328,1860
8329,1841
8330,1887
8331,1851
8332,1849
8333,1872
8334,1865
8335,1870
8336,1841
8337,1848
8338,1873
8339,1890
8340,1901
8341,1872
8342,1873
8343,1860
8344,1866
8345,1858
8346,1904
8347,1840
8348,1878
8349,1856
8350,1872
8351,1857
8352,1862
8353,1879
8354,1875
8355,1894
8356,1856
8357,1900
8358,1858
8359,1908
8360,1861
8361,1843
8362,1856
8363,1873
8364,1890
8365,1863
8366,1857
8367,1871
8368,1843
8369,1862
8370,1856
8371,1863
8372,1878
8373,1889
8374,1920
8375,1852
8376,1872
8377,1871
8378,1863
8379,1842
8380,1840
8381,1853
8382,1858
8383,1859
8384,1839
8385,1857
8386,1901
8387,1874
8388,1876
8389,1858
8390,1860
8391,1870
8392,1883
8393,1857
8394,1861
8395,1840
8396,1876
8397,1875
8398,1837
8399,1854
8400,1903
8401,1935
8402,1869
8403,1875
8404,1863
8405,1859
8406,1886
8407,1867
8408,1854
8409,1857
8410,1859
8411,1857
8412,1875
8413,1847
8414,1900
8415,1872
8416,1855
8417,1828
8418,1870
8419,1872
8420,1872
8421,1874
8422,1855
8423,1905
8424,1872
8425,1856
8426,1847
8427,1846
8428,1855
8429,1855
8430,1854
8431,1885
8432,1861
8433,1854
8434,1857
8435,1870
8436,1874
8437,1872
8438,1807
8439,1858
8440,1877
8441,1905
8442,1909
8443,1856
8444,1856
8445,1856
8446,1862
8447,1840
8448,1875
8449,1840
8450,1877
8451,1843
8452,1867
8453,1847
8454,1870
8455,1867
8456,1869
8457,1851
8458,1851
8459,1839
8460,1829
8461,1850
8462,1864
8463,1793
8464,1876
8465,1877
8466,1838
8467,1840
8468,1858
8469,1862
8470,1868
8471,1877
8472,1831
8473,1867
8474,1861
8475,1902
8476,1872
8477,1867
8478,1860
8479,1869
8480,1840
8481,1872
8482,1833
8483,1854
8484,1882
8485,1857
8486,1872
8487,1869
8488,1866
8489,1855
8490,1825
8491,1858
8492,1871
8493,1854
8494,1855
8495,1873
8496,1889
8497,1914
8498,1862
8499,1869
8500,1862
8501,1867
8502,1873
8503,1855
8504,1903
8505,1881
8506,1894
8507,1867
8508,1867
8509,1906
8510,1841
8511,1858
8512,1843
8513,1841
8514,1843
8515,1847
8516,1872
8517,1847
8518,1867
8519,1863
8520,1862
8521,1877
8522,1847
8523,1893
8524,1865
8525,1871
8526,1845
8527,1840
8528,1864
8529,1845
8530,1866
8531,1856
8532,1879
8533,1867
8534,1857
8535,1873
8536,1887
8537,1861
8538,1891
8539,1851
8540,1872
8541,1856
8542,1885
8543,1839
8544,1839
8545,1845
8546,1844
8547,1827
8548,1883
8549,1842
8550,1863
8551,1886
8552,1843
8553,1860
8554,1875
8555,1869
8556,1856
8557,1838
8558,1886
8559,1857
8560,1852
8561,1847
8562,1866
8563,1888
8564,1803
8565,1852
8566,1843
8567,1898
8568,1847
8569,1863
8570,1856
8571,1863
8572,1885
8573,1838
8574,1839
8575,1874
8576,1833
8577,1850
8578,1857
8579,1843
8580,1847
8581,1861
8582,1903
8583,1911
8584,1856
8585,1867
8586,1855
8587,1865
8588,1837
8589,1891
8590,1836
8591,1861
8592,1863
8593,1859
8594,1838
8595,1863
8596,1859
8597,1854
8598,1831
8599,1840
8600,1886
8601,1857
8602,1875
8603,1879
8604,1874
8605,1866
8606,1853
8607,1853
8608,1803
8609,1884
8610,1874
8611,1866
8612,1881
8613,1880
8614,1914
8615,1819
8616,1871
8617,1884
8618,1845
8619,1861
8620,1844
8621,1850
8622,1819
8623,1840
8624,1876
8625,1829
8626,1859
8627,1840
8628,1854
8629,1838
8630,1840
8631,1856
8632,1801
8633,1858
8634,1872
8635,1878
8636,1870
8637,1875
8638,1901
8639,1851
8640,1894
8641,1882
8642,1909
8643,1904
8644,1882
8645,1877
8646,1879
8647,1890
8648,1901
8649,1863
8650,1808
8651,1881
8652,1903
8653,1869
8654,1922
8655,1882
8656,1856
8657,1872
8658,1929
8659,1869
8660,1859
8661,1872
8662,1885
8663,1890
8664,1806
8665,1859
8666,1841
8667,1867
8668,1872
8669,1877
8670,1869
8671,1859
8672,1909
8673,1926
8674,1858
8675,1871
8676,1865
8677,1861
8678,1870
8679,1876
8680,1855
8681,1875
8682,1867
8683,1856
8684,1841
8685,1857
8686,1890
8687,1884
8688,1840
8689,1857
8690,1849
8691,1868
8692,1856
8693,1872
8694,1865
8695,1867
8696,1869
8697,1817
8698,1840
8699,1882
8700,1865
8701,1881
8702,1871
8703,1865
8704,1856
8705,1863
8706,1909
8707,1878
8708,1916
8709,1868
8710,1837
8711,1866
8712,1871
8713,1897
8714,1840
8715,1840
8716,1872
8717,1839
8718,1836
8719,1865
8720,1872
8721,1864
8722,1862
8723,1851
8724,1847
8725,1886
8726,1856
8727,1854
8728,1859
8729,1861
8730,1873
8731,1865
8732,1834
8733,1850
8734,1840
8735,1847
8736,1872
8737,1869
8738,1870
8739,1862
8740,1840
8741,1867
8742,1857
8743,1858
8744,1855
8745,1878
8746,1865
8747,1867
8748,1872
8749,1840
8750,1845
8751,1872
8752,1873
8753,1888
8754,1904
8755,1892
8756,1859
8757,1881
8758,1864
8759,1855
8760,1878
8761,1849
8762,1868
8763,1873
8764,1840
8765,1870
8766,1872
8767,1855
8768,1887
8769,1874
8770,1855
8771,1904
8772,1861
8773,1878
8774,1850
8775,1856
8776,1858
8777,1850
8778,1857
8779,1871
8780,1868
8781,1836
8782,1857
8783,1891
8784,1859
8785,1875
8786,1877
8787,1865
8788,1870
8789,1835
8790,1868
8791,1838
8792,1839
8793,1866
8794,1857
8795,1857
8796,1850
8797,1877
8798,1865
8799,1808
8800,1859
8801,1845
8802,1866
8803,1877
8804,1871
8805,1846
8806,1807
8807,1909
8808,1904
8809,1840
8810,1853
8811,1870
8812,1862
8813,1843
8814,1856
8815,1872
8816,1901
8817,1904
8818,2638
8819,1303
8820,1900
8821,2677
8822,2806
8823,2624
8824,2256
8825,1840
8826,1695
8827,1360
8828,1033
8829,1096
8830,1389
8831,1958
8832,2143
8833,2082
8834,1935
8835,1787
8836,1712
8837,1698
8838,1730
8839,1729
8840,1790
8841,1807
8842,1826
8843,1841
8844,1873
8845,1856
8846,1871
8847,1862
8848,1893
8849,2559
8850,1272
8851,1830
8852,2675
8853,2912
8854,2654
8855,2224
8856,1739
8857,1425
8858,1082
8859,1088
8860,1216
8861,1774
8862,2105
8863,2147
8864,1949
8865,1842
8866,1771
8867,1680
8868,1724
8869,1755
8870,1798
8871,1837
8872,1853
8873,1838
8874,1842
8875,1834
8876,1847
8877,1856
8878,1875
8879,1857
8880,1983
8881,1398
8882,1726
8883,2530
8884,2876
8885,2585
8886,1889
8887,1399
8888,1291
8889,1382
8890,1371
8891,1781
8892,2147
8893,2169
8894,2072
8895,1959
8896,1764
8897,1693
8898,1727
8899,1744
8900,1748
8901,1793
8902,1815
8903,1841
8904,1899
8905,1857
8906,1902
8907,1895
8908,1842
8909,1812
8910,1759
8911,1763
8912,1399
8913,1554
8914,2426
8915,3065
8916,2734
8917,1989
8918,1338
8919,1399
8920,1401
8921,1309
8922,1730
8923,2074
8924,2087
8925,2047
8926,1949
8927,1809
8928,1719
8929,1744
8930,1751
8931,1810
8932,1872
8933,1792
8934,1909
8935,1854
8936,1856
8937,1855
8938,1841
8939,1856
8940,1842
8941,1872
8942,1879
8943,1554
8944,1408
8945,2177
8946,3079
8947,2592
8948,1855
8949,1344
8950,1447
8951,1481
8952,1609
8953,1802
8954,1974
8955,1979
8956,1963
8957,1948
8958,1838
8959,1719
8960,1717
8961,1754
8962,1776
8963,1773
8964,1831
8965,1823
8966,1870
8967,1883
8968,1859
8969,1855
8970,1867
8971,1877
8972,1879
8973,1840
8974,1603
8975,1443
8976,2023
8977,2938
8978,2506
8979,1808
8980,1529
8981,1535
8982,1618
8983,1730
8984,1710
8985,1898
8986,1936
8987,1947
8988,1924
8989,1792
8990,1740
8991,1729
8992,1756
8993,1774
8994,1812
8995,1842
8996,1894
8997,1817
8998,1862
8999,1889
9000,1895
9001,1855
9002,1872
9003,1897
9004,1872
9005,1945
9006,1354
9007,1907
9008,2947
9009,2610
9010,1837
9011,1520
9012,1520
9013,1708
9014,1743
9015,1609
9016,1846
9017,1974
9018,1968
9019,1883
9020,1787
9021,1759
9022,1717
9023,1751
9024,1760
9025,1793
9026,1803
9027,1856
9028,1872
9029,1900
9030,1883
9031,1861
9032,1879
9033,1856
9034,1763
9035,1760
9036,2479
9037,1296
9038,1847
9039,2955
9040,2749
9041,1942
9042,1616
9043,1535
9044,1712
9045,1730
9046,1635
9047,1858
9048,1920
9049,1949
9050,1839
9051,1755
9052,1719
9053,1738
9054,1764
9055,1791
9056,1827
9057,1828
9058,1840
9059,1875
9060,1867
9061,1897
9062,1883
9063,1936
9064,1872
9065,1890
9066,1859
9067,2653
9068,1245
9069,1713
9070,2736
9071,2703
9072,1855
9073,1658
9074,1520
9075,1777
9076,1895
9077,1718
9078,1870
9079,1955
9080,1924
9081,1776
9082,1680
9083,1712
9084,1747
9085,1738
9086,1787
9087,1787
9088,1853
9089,1915
9090,1843
9091,1869
9092,1888
9093,1873
9094,1882
9095,1894
9096,1896
9097,1875
9098,2224
9099,1283
9100,1708
9101,2598
9102,2768
9103,1922
9104,1673
9105,1565
9106,1728
9107,1842
9108,1659
9109,1719
9110,1878
9111,1920
9112,1843
9113,1741
9114,1728
9115,1729
9116,1776
9117,1808
9118,1795
9119,1835
9120,1853
9121,1888
9122,1930
9123,1873
9124,1878
9125,1881
9126,1870
9127,1863
9128,1874
9129,1880
9130,1346
9131,1646
9132,2448
9133,2811
9134,2057
9135,1670
9136,1570
9137,1786
9138,1862
9139,1686
9140,1774
9141,1933
9142,1939
9143,1863
9144,1723
9145,1695
9146,1729
9147,1763
9148,1781
9149,1803
9150,1855
9151,1870
9152,1840
9153,1857
9154,1833
9155,1963
9156,2004
9157,1934
9158,1881
9159,1862
9160,1829
9161,1377
9162,1481
9163,2256
9164,2832
9165,2124
9166,1648
9167,1581
9168,1706
9169,1815
9170,1765
9171,1758
9172,1841
9173,1927
9174,1884
9175,1712
9176,1744
9177,1734
9178,1731
9179,1773
9180,1812
9181,1873
9182,1816
9183,1927
9184,1861
9185,1904
9186,1869
9187,1872
9188,1897
9189,1863
9190,1868
9191,1921
9192,1535
9193,1424
9194,2141
9195,2934
9196,2212
9197,1667
9198,1600
9199,1710
9200,1791
9201,1831
9202,1697
9203,1902
9204,1870
9205,1861
9206,1693
9207,1684
9208,1767
9209,1712
9210,1763
9211,1799
9212,1853
9213,1837
9214,1856
9215,1838
9216,1937
9217,1940
9218,2009
9219,1983
9220,1917
9221,1850
9222,1853
9223,1807
9224,1269
9225,1909
9226,2790
9227,2293
9228,1676
9229,1718
9230,1734
9231,1807
9232,1831
9233,1666
9234,1909
9235,1895
9236,1858
9237,1764
9238,1779
9239,1712
9240,1761
9241,1798
9242,1818
9243,1807
9244,1843
9245,1883
9246,1904
9247,1883
9248,1917
9249,1888
9250,1835
9251,1872
9252,1881
9253,1898
9254,2285
9255,1206
9256,1824
9257,2814
9258,2473
9259,1781
9260,1682
9261,1693
9262,1743
9263,1893
9264,1663
9265,1872
9266,1874
9267,1839
9268,1747
9269,1716
9270,1713
9271,1770
9272,1840
9273,1808
9274,1833
9275,1863
9276,1836
9277,1876
9278,1879
9279,1922
9280,1939
9281,1946
9282,1910
9283,1919
9284,1893
9285,2682
9286,1173
9287,1790
9288,2755
9289,2476
9290,1726
9291,1726
9292,1728
9293,1792
9294,1911
9295,1631
9296,1879
9297,1920
9298,1858
9299,1801
9300,1713
9301,1711
9302,1757
9303,1787
9304,1806
9305,1835
9306,1874
9307,1936
9308,1917
9309,1885
9310,1854
9311,1854
9312,1872
9313,1871
9314,1851
9315,1922
9316,2559
9317,1251
9318,1728
9319,2656
9320,2625
9321,1791
9322,1735
9323,1748
9324,1741
9325,1878
9326,1666
9327,1809
9328,1922
9329,1862
9330,1798
9331,1659
9332,1744
9333,1765
9334,1786
9335,1796
9336,1829
9337,1911
9338,1879
9339,1947
9340,1922
9341,1895
9342,1831
9343,1777
9344,1829
9345,1871
9346,1877
9347,1873
9348,1287
9349,1567
9350,2427
9351,2752
9352,1925
9353,1751
9354,1664
9355,1763
9356,1831
9357,1740
9358,1791
9359,1968
9360,1872
9361,1805
9362,1703
9363,1759
9364,1695
9365,1718
9366,1798
9367,1820
9368,1885
9369,1866
9370,1811
9371,1814
9372,1856
9373,1867
9374,2000
9375,1939
9376,1913
9377,1919
9378,1910
9379,1339
9380,1535
9381,2316
9382,2799
9383,2063
9384,1719
9385,1653
9386,1751
9387,1755
9388,1776
9389,1801
9390,1937
9391,1877
9392,1808
9393,1712
9394,1724
9395,1707
9396,1686
9397,1774
9398,1865
9399,1831
9400,1853
9401,1873
9402,1901
9403,1904
9404,1872
9405,1914
9406,1840
9407,1915
9408,1911
9409,1968
9410,1529
9411,1362
9412,2109
9413,2825
9414,2139
9415,1628
9416,1744
9417,1824
9418,1767
9419,1808
9420,1739
9421,2003
9422,1933
9423,1829
9424,1693
9425,1666
9426,1726
9427,1737
9428,1747
9429,1799
9430,1869
9431,1860
9432,1858
9433,1922
9434,1903
9435,1891
9436,1919
9437,1903
9438,1871
9439,1904
9440,1874
9441,1904
9442,1920
9443,1873
9444,1875
9445,1873
9446,1840
9447,1899
9448,1883
9449,1907
9450,1885
9451,1895
9452,1874
9453,1883
9454,1843
9455,1850
9456,1808
9457,1829
9458,1834
9459,1858
9460,1889
9461,1875
9462,1858
9463,1898
9464,1866
9465,1877
9466,1837
9467,1792
9468,1857
9469,1846
9470,1881
9471,1871
9472,1901
9473,1933
9474,1813
9475,1805
9476,1831
9477,1860
9478,1855
9479,1856
9480,1856
9481,1826
9482,1873
9483,1853
9484,1927
9485,1875
9486,1872
9487,1868
9488,1873
9489,1875
9490,1869
9491,1905
9492,1914
9493,1847
9494,1842
9495,1843
9496,1881
9497,1874
9498,1872
9499,1815
9500,1920
9501,1859
9502,1844
9503,1876
9504,1858
9505,1895
9506,1899
9507,1790
9508,1853
9509,1883
9510,1872
9511,1859
9512,1878
9513,1862
9514,1851
9515,1863
9516,1904
9517,1905
9518,1840
9519,1872
9520,1857
9521,1867
9522,1844
9523,1857
9524,1854
9525,1881
9526,1875
9527,1859
9528,1860
9529,1872
9530,1904
9531,1846
9532,1797
9533,1818
9534,1874
9535,1845
9536,1856
9537,1862
9538,1877
9539,1871
9540,1884
9541,1831
9542,1863
9543,1851
9544,1903
9545,1890
9546,1870
9547,1824
9548,1883
9549,1866
9550,1848
9551,1904
9552,1891
9553,1859
9554,1871
9555,1878
9556,1872
9557,1794
9558,1832
9559,1904
9560,1857
9561,1853
9562,1843
9563,1798
9564,1847
9565,1826
9566,1853
9567,1854
9568,1876
9569,1881
9570,1890
9571,1846
9572,1915
9573,1840
9574,1779
9575,1810
9576,1815
9577,1866
9578,1872
9579,1905
9580,1904
9581,1875
9582,1863
9583,1835
9584,1791
9585,1833
9586,1843
9587,1863
9588,1831
9589,1826
9590,1808
9591,1876
9592,1866
9593,1858
9594,1856
9595,1842
9596,1911
9597,1848
9598,1895
9599,1856
9600,1808
9601,1829
9602,1839
9603,1843
9604,1856
9605,1869
9606,1869
9607,1904
9608,1869
9609,1907
9610,1838
9611,1840
9612,1847
9613,1897
9614,1872
9615,1835
9616,1843
9617,1858
9618,1834
9619,1863
9620,1887
9621,1871
9622,1841
9623,1877
9624,1861
9625,1861
9626,1861
9627,1859
9628,1851
9629,1840
9630,1846
9631,1900
9632,1906
9633,1868
9634,1867
9635,1877
9636,1872
9637,1850
9638,1891
9639,1872
9640,1879
9641,1861
9642,1913
9643,1866
9644,1851
9645,1836
9646,1868
9647,1806
9648,1890
9649,1873
9650,1862
9651,1868
9652,1866
9653,1878
9654,1871
9655,1834
9656,1845
9657,1858
9658,1841
9659,1822
9660,1852
9661,1856
9662,1867
9663,1898
9664,1851
9665,1853
9666,1869
9667,1841
9668,1883
9669,1872
9670,1867
9671,1862
9672,1854
9673,1859
9674,1861
9675,1875
9676,1873
9677,1854
9678,1850
9679,1855
9680,1845
9681,1858
9682,1862
9683,1926
9684,1872
9685,1835
9686,1855
9687,1853
9688,1846
9689,1850
9690,1858
9691,1796
9692,1825
9693,1855
9694,1856
9695,1849
9696,1895
9697,1890
9698,1856
9699,1856
9700,1847
9701,1873
9702,1876
9703,1843
9704,1851
9705,1879
9706,1859
9707,1876
9708,1847
9709,1887
9710,1852
9711,1840
9712,1840
9713,1869
9714,1872
9715,1897
9716,1854
9717,1821
9718,1854
9719,1841
9720,1878
9721,1895
9722,1835
9723,1828
9724,1865
9725,1840
9726,1831
9727,1866
9728,1861
9729,1855
9730,1842
9731,1913
9732,1830
9733,1853
9734,1826
9735,1857
9736,1872
9737,1869
9738,1848
9739,1929
9740,1873
9741,1844
9742,1857
9743,1857
9744,1852
9745,1858
9746,1868
9747,1842
9748,1867
9749,1873
9750,1883
9751,1910
9752,1879
9753,1891
9754,1866
9755,1867
9756,1872
9757,1855
9758,1872
9759,1867
9760,1861
9761,1851
9762,1872
9763,1883
9764,1913
9765,1873
9766,1808
9767,1856
9768,1870
9769,1845
9770,1832
9771,1831
9772,1850
9773,1843
9774,1872
9775,1802
9776,1917
9777,1856
9778,1853
9779,1862
9780,1831
9781,1851
9782,1842
9783,1809
9784,1856
9785,1857
9786,1889
9787,1875
9788,1879
9789,1856
9790,1833
9791,1910
9792,1917
9793,1846
9794,1857
9795,1845
9796,1841
9797,1791
9798,1867
9799,1861
9800,1903
9801,1857
9802,1854
9803,1840
9804,1866
9805,1802
9806,1840
9807,1895
9808,1857
9809,1859
9810,1857
9811,1863
9812,1857
9813,1856
9814,1889
9815,1863
9816,1851
9817,1842
9818,1863
9819,1857
9820,1882
9821,1884
9822,1866
9823,1840
9824,1872
9825,1853
9826,1875
9827,1831
9828,1860
9829,1870
9830,1861
9831,1873
9832,1858
9833,1802
9834,1872
9835,1862
9836,1841
9837,1872
9838,1872
9839,1872
9840,1831
9841,1860
9842,1863
9843,1839
9844,1851
9845,1868
9846,1915
9847,1861
9848,1855
9849,1876
9850,1872
9851,1885
9852,1872
9853,1869
9854,1850
9855,1814
9856,1872
9857,1873
9858,1868
9859,1849
9860,1840
9861,1867
9862,1869
9863,1871
9864,1840
9865,1849
9866,1856
9867,1806
9868,1879
9869,1840
9870,1856
9871,1805
9872,1869
9873,1871
9874,1829
9875,1808
9876,1860
9877,1865
9878,1871
9879,1851
9880,1876
9881,1872
9882,1855
9883,1899
9884,1885
9885,1844
9886,1857
9887,1850
9888,1890
9889,1889
9890,1887
9891,1837
9892,1892
9893,1823
9894,1839
9895,1843
9896,1849
9897,1888
9898,1903
9899,1840
9900,1853
9901,1856
9902,1862
9903,1865
9904,1867
9905,1871
9906,1833
9907,1883
9908,1853
9909,1871
9910,1855
9911,1869
9912,1869
9913,1872
9914,1834
9915,1857
9916,1833
9917,1893
9918,1840
9919,1867
9920,1847
9921,1859
9922,1914
9923,1842
9924,1906
9925,1833
9926,1824
9927,1847
9928,1862
9929,1872
9930,1856
9931,1834
9932,1839
9933,1854
9934,1881
9935,1841
9936,1877
9937,1885
9938,1808
9939,1874
9940,1863
9941,1837
9942,1845
9943,1840
9944,1830
9945,1861
9946,1860
9947,1840
9948,1892
9949,1858
9950,1882
9951,1863
9952,1866
9953,1856
9954,1886
9955,1872
9956,1857
9957,1881
9958,1839
9959,1885
9960,1843
9961,1861
9962,1859
9963,1862
9964,1875
9965,1830
9966,1850
9967,1857
9968,1871
9969,1856
9970,1874
9971,1845
9972,1857
9973,1851
9974,1886
9975,1862
9976,1842
9977,1841
9978,1872
9979,1846
9980,1890
9981,1843
9982,1894
9983,1865
9984,1859
9985,1843
9986,1870
9987,1875
9988,1850
9989,1826
9990,1843
9991,1844
9992,1856
9993,1849
9994,1872
9995,1865
9996,1845
9997,1891
9998,1872
9999,1859
10000,1872
10001,1862
10002,1855
10003,1873
10004,1874
10005,1889
10006,1897
10007,1869
10008,1830
10009,1847
10010,1857
10011,1877
10012,1877
10013,1861
10014,1884
10015,1859
10016,1867
10017,1837
10018,1872
10019,1856
10020,1863
10021,1842
10022,1899
10023,1878
10024,1867
10025,1857
10026,1874
10027,1859
10028,1883
10029,1883
10030,1844
10031,1845
10032,1872
10033,1865
10034,1857
10035,1872
10036,1866
10037,1875
10038,1914
10039,1862
10040,1857
10041,1849
10042,1863
10043,1858
10044,1849
10045,1866
10046,1856
10047,1866
10048,1841
10049,1829
10050,1872
10051,1870
10052,1874
10053,1888
10054,1879
10055,1877
10056,1872
10057,1845
10058,1846
10059,1840
10060,1856
10061,1869
10062,1875
10063,1842
10064,1872
10065,1868
10066,1834
10067,1908
10068,1847
10069,1867
10070,1885
10071,1824
10072,1888
10073,1878
10074,1858
10075,1857
10076,1840
10077,1837
10078,1855
10079,1861
10080,1845
10081,1840
10082,1859
10083,1885
10084,1898
10085,1875
10086,1843
10087,1872
10088,1882
10089,1850
10090,1875
10091,1879
10092,1840
10093,1856
10094,1854
10095,1877
10096,1874
10097,1904
10098,1840
10099,1834
10100,1857
10101,1857
10102,1856
10103,1845
10104,1854
10105,1847
10106,1815
10107,1855
10108,1835
10109,1855
10110,1843
10111,1845
10112,1866
10113,1893
10114,1842
10115,1856
10116,1851
10117,1840
10118,1841
10119,1887
10120,1872
10121,1872
10122,1829
10123,1869
10124,1855
10125,1856
10126,1835
10127,1843
10128,1847
10129,1879
10130,1866
10131,1854
10132,1903
10133,1857
10134,1894
10135,1854
10136,1877
10137,1859
10138,1851
10139,1879
10140,1904
10141,1808
10142,1871
10143,1858
10144,1870
10145,1868
10146,1871
10147,1905
10148,1843
10149,1851
10150,1910
10151,1891
10152,1872
10153,1882
10154,1870
10155,1831
10156,1821
10157,1901
10158,1897
10159,1878
10160,1851
10161,1854
10162,1855
10163,1904
10164,1874
10165,1851
10166,1865
10167,1862
10168,1873
10169,1853
10170,1839
10171,1863
10172,1881
10173,1852
10174,1910
10175,1808
10176,1840
10177,1837
10178,1866
10179,1884
10180,1857
10181,1877
10182,1853
10183,1898
10184,1875
10185,1872
10186,1867
10187,1874
10188,1866
10189,1845
10190,1797
10191,1856
10192,1859
10193,1841
10194,1868
10195,1867
10196,1840
10197,1867
10198,1859
10199,1841
10200,1840
10201,1866
10202,1879
10203,1872
10204,1873
10205,1821
10206,1854
10207,1904
10208,1881
10209,1876
10210,1843
10211,1871
10212,1861
10213,1905
10214,1845
10215,1857
10216,1872
10217,1867
10218,1875
10219,1872
10220,1856
10221,1889
10222,1904
10223,1904
10224,1869
10225,1856
10226,1840
10227,1845
10228,1860
10229,1873
10230,1886
10231,1845
10232,1861
10233,1915
10234,1827
10235,1835
10236,1869
10237,1851
10238,1871
10239,1854
10240,1859
10241,1890
10242,1863
10243,1856
10244,1857
10245,1842
10246,1861
10247,1861
10248,1852
10249,1907
10250,1906
10251,1921
10252,1861
10253,1869
10254,1854
10255,1839
10256,1849
10257,1856
10258,1873
10259,1856
10260,1858
10261,1870
10262,1840
10263,1853
10264,1859
10265,1837
10266,1869
10267,1846
10268,1829
10269,1861
10270,1856
10271,1863
10272,1842
10273,1920
10274,1871
10275,1872
10276,1861
10277,1856
10278,1875
10279,1872
10280,1872
10281,1859
10282,1799
10283,1855
10284,1867
10285,1850
10286,1842
10287,1869
10288,1827
10289,1875
10290,1856
10291,1858
10292,1854
10293,1837
10294,1857
10295,1872
10296,1856
10297,1858
10298,1855
10299,1843
10300,1885
10301,1862
10302,1869
10303,1870
10304,1859
10305,1840
10306,1872
10307,1845
10308,1806
10309,1850
10310,1868
10311,1872
10312,1851
10313,1863
10314,1855
10315,1861
10316,1840
10317,1786
10318,1872
10319,1872
10320,1865
10321,1907
10322,1882
10323,1840
10324,1876
10325,1805
10326,1852
10327,1871
10328,1863
10329,1865
10330,1860
10331,1872
10332,1847
10333,1895
10334,1875
10335,1851
10336,1867
10337,1849
10338,1920
10339,1902
10340,1863
10341,1850
10342,1826
10343,1869
10344,1855
10345,1840
10346,1872
10347,1874
10348,1870
10349,1843
10350,1877
10351,1818
10352,1874
10353,1841
10354,1859
10355,1857
10356,1843
10357,1877
10358,1887
10359,1863
10360,1834
10361,1867
10362,1855
10363,1889
10364,1905
10365,1854
10366,1875
10367,1856
10368,1876
10369,1851
10370,1888
10371,1884
10372,1866
10373,1883
10374,1866
10375,1825
10376,1871
10377,1848
10378,1863
10379,1847
10380,1813
10381,1853
10382,1840
10383,1810
10384,1833
10385,1866
10386,1887
10387,1866
10388,1840
10389,1863
10390,1877
10391,1886
10392,1861
10393,1845
10394,1871
10395,1852
10396,1872
10397,1854
10398,1876
10399,1875
10400,1856
10401,1837
10402,1872
10403,1847
10404,1884
10405,1856
10406,1838
10407,1890
10408,1823
10409,1817
10410,1840
10411,1870
10412,1851
10413,1840
10414,1858
10415,1907
10416,1872
10417,1904
10418,1823
10419,1883
10420,1871
10421,1895
10422,1832
10423,1847
10424,1872
10425,1850
10426,1859
10427,1837
10428,1861
10429,1861
10430,1842
10431,1788
10432,1857
10433,1839
10434,1873
10435,1838
10436,1845
10437,1486
10438,1535
10439,2203
10440,2866
10441,2795
10442,2467
10443,2150
10444,1840
10445,1623
10446,1166
10447,933
10448,1131
10449,1651
10450,2005
10451,2086
10452,2003
10453,1871
10454,1738
10455,1674
10456,1713
10457,1739
10458,1781
10459,1753
10460,1805
10461,1837
10462,1870
10463,1898
10464,1851
10465,1867
10466,1865
10467,1909
10468,1874
10469,1381
10470,2103
10471,2939
10472,2909
10473,2553
10474,2103
10475,1657
10476,1275
10477,944
10478,944
10479,1343
10480,2001
10481,2185
10482,2091
10483,1937
10484,1842
10485,1729
10486,1734
10487,1730
10488,1843
10489,1819
10490,1842
10491,1831
10492,1837
10493,1840
10494,1872
10495,1870
10496,1877
10497,1872
10498,1830
10499,2112
10500,1360
10501,1966
10502,2797
10503,2883
10504,2386
10505,1666
10506,1222
10507,1298
10508,1387
10509,1503
10510,1872
10511,2191
10512,2141
10513,2081
10514,1901
10515,1746
10516,1712
10517,1715
10518,1746
10519,1776
10520,1765
10521,1870
10522,1776
10523,1879
10524,1861
10525,1887
10526,1868
10527,1850
10528,1881
10529,1860
10530,2728
10531,1157
10532,1843
10533,2845
10534,2864
10535,2343
10536,1632
10537,1272
10538,1494
10539,1357
10540,1511
10541,1851
10542,2057
10543,2014
10544,1999
10545,1920
10546,1803
10547,1728
10548,1747
10549,1781
10550,1748
10551,1856
10552,1751
10553,1742
10554,1776
10555,1829
10556,1947
10557,1967
10558,2000
10559,1884
10560,1888
10561,2457
10562,1143
10563,1782
10564,2727
10565,2928
10566,2224
10567,1617
10568,1312
10569,1535
10570,1423
10571,1718
10572,1913
10573,1980
10574,1974
10575,1986
10576,1868
10577,1727
10578,1719
10579,1735
10580,1773
10581,1791
10582,1841
10583,1877
10584,1876
10585,1871
10586,1870
10587,1883
10588,1850
10589,1839
10590,1872
10591,1870
10592,1933
10593,1183
10594,1653
10595,2559
10596,2925
10597,2314
10598,1722
10599,1443
10600,1639
10601,1592
10602,1662
10603,1797
10604,1961
10605,1982
10606,1958
10607,1807
10608,1744
10609,1776
10610,1712
10611,1770
10612,1798
10613,1792
10614,1851
10615,1935
10616,1923
10617,1952
10618,1856
10619,1828
10620,1822
10621,1839
10622,1808
10623,1883
10624,1244
10625,1619
10626,2323
10627,2906
10628,2261
10629,1730
10630,1535
10631,1632
10632,1659
10633,1699
10634,1712
10635,1923
10636,1949
10637,1936
10638,1797
10639,1793
10640,1744
10641,1710
10642,1744
10643,1793
10644,1836
10645,1841
10646,1845
10647,1861
10648,1840
10649,1872
10650,1875
10651,1876
10652,1875
10653,1854
10654,1882
10655,1403
10656,1486
10657,2185
10658,2894
10659,2317
10660,1735
10661,1581
10662,1648
10663,1687
10664,1742
10665,1679
10666,1931
10667,1939
10668,1927
10669,1789
10670,1711
10671,1765
10672,1779
10673,1789
10674,1837
10675,1740
10676,1855
10677,1840
10678,1873
10679,1872
10680,1856
10681,1911
10682,1881
10683,1879
10684,1890
10685,1879
10686,1690
10687,1332
10688,2011
10689,2910
10690,2335
10691,1755
10692,1664
10693,1651
10694,1734
10695,1856
10696,1723
10697,1840
10698,1949
10699,1955
10700,1829
10701,1794
10702,1776
10703,1791
10704,1771
10705,1770
10706,1827
10707,1835
10708,1824
10709,1813
10710,1836
10711,1872
10712,1915
10713,1923
10714,1905
10715,1879
10716,1878
10717,1907
10718,1268
10719,1985
10720,2928
10721,2498
10722,1815
10723,1713
10724,1641
10725,1712
10726,1820
10727,1639
10728,1857
10729,1909
10730,1879
10731,1749
10732,1741
10733,1754
10734,1756
10735,1751
10736,1814
10737,1840
10738,1796
10739,1862
10740,1848
10741,1861
10742,1914
10743,1870
10744,1889
10745,1886
10746,1885
10747,1924
10748,2429
10749,1139
10750,1870
10751,2794
10752,2496
10753,1775
10754,1739
10755,1669
10756,1779
10757,1877
10758,1707
10759,1872
10760,1924
10761,1886
10762,1799
10763,1727
10764,1761
10765,1744
10766,1739
10767,1841
10768,1839
10769,1855
10770,1881
10771,1895
10772,1922
10773,1894
10774,1856
10775,1878
10776,1899
10777,1867
10778,1883
10779,2846
10780,1055
10781,1791
10782,2711
10783,2559
10784,1827
10785,1744
10786,1635
10787,1718
10788,1967
10789,1773
10790,1834
10791,1939
10792,1909
10793,1790
10794,1678
10795,1698
10796,1707
10797,1772
10798,1787
10799,1851
10800,1871
10801,1898
10802,1866
10803,1863
10804,1904
10805,1920
10806,1877
10807,1936
10808,1873
10809,1883
10810,2077
10811,1130
10812,1741
10813,2656
10814,2715
10815,1809
10816,1712
10817,1705
10818,1776
10819,1919
10820,1751
10821,1813
10822,1923
10823,1925
10824,1847
10825,1719
10826,1751
10827,1735
10828,1728
10829,1782
10830,1808
10831,1897
10832,1837
10833,1850
10834,1838
10835,1889
10836,1870
10837,1914
10838,1896
10839,1838
10840,1898
10841,1919
10842,1217
10843,1645
10844,2417
10845,2751
10846,1890
10847,1656
10848,1648
10849,1713
10850,1890
10851,1819
10852,1808
10853,1954
10854,1911
10855,1801
10856,1721
10857,1661
10858,1744
10859,1730
10860,1782
10861,1824
10862,1850
10863,1834
10864,1899
10865,1936
10866,1883
10867,1861
10868,1895
10869,1906
10870,1919
10871,1937
10872,1921
10873,1332
10874,1476
10875,2149
10876,2836
10877,2095
10878,1648
10879,1648
10880,1735
10881,1841
10882,1887
10883,1781
10884,1967
10885,1895
10886,1839
10887,1717
10888,1694
10889,1750
10890,1684
10891,1789
10892,1802
10893,1828
10894,1874
10895,1901
10896,1875
10897,1911
10898,1823
10899,1879
10900,1941
10901,1917
10902,1872
10903,1873
10904,1530
10905,1457
10906,2080
10907,2816
10908,2197
10909,1659
10910,1718
10911,1733
10912,1807
10913,1965
10914,1763
10915,1921
10916,1867
10917,1817
10918,1764
10919,1718
10920,1718
10921,1712
10922,1776
10923,1791
10924,1839
10925,1881
10926,1883
10927,1878
10928,1887
10929,1882
10930,1841
10931,1867
10932,1849
10933,1933
10934,1915
10935,1733
10936,1277
10937,2010
10938,2834
10939,2267
10940,1652
10941,1805
10942,1786
10943,1749
10944,1927
10945,1763
10946,1946
10947,1906
10948,1797
10949,1771
10950,1710
10951,1677
10952,1737
10953,1765
10954,1814
10955,1875
10956,1854
10957,1838
10958,1913
10959,1857
10960,1941
10961,1979
10962,1957
10963,1907
10964,1900
10965,1891
10966,2368
10967,1117
10968,1898
10969,2756
10970,2325
10971,1567
10972,1729
10973,1751
10974,1817
10975,2029
10976,1790
10977,1919
10978,1957
10979,1867
10980,1732
10981,1666
10982,1653
10983,1733
10984,1763
10985,1802
10986,1837
10987,1862
10988,1817
10989,1856
10990,1888
10991,1924
10992,1906
10993,1911
10994,1918
10995,1837
10996,1792
10997,2643
10998,1097
10999,1808
11000,2811
11001,2631
11002,1775
11003,1836
11004,1797
11005,1671
11006,1774
11007,1712
11008,1950
11009,1973
11010,1885
11011,1776
11012,1674
11013,1747
11014,1691
11015,1714
11016,1797
11017,1825
11018,1833
11019,1849
11020,1895
11021,1898
11022,1881
11023,1881
11024,1855
11025,1857
11026,1843
11027,1872
11028,2135
11029,1094
11030,1667
11031,2592
11032,2591
11033,1787
11034,1728
11035,1680
11036,1709
11037,1926
11038,1890
11039,1903
11040,1993
11041,1842
11042,1766
11043,1659
11044,1693
11045,1735
11046,1759
11047,1742
11048,1805
11049,1869
11050,1808
11051,1888
11052,1877
11053,1913
11054,1938
11055,1904
11056,1890
11057,1878
11058,1871
11059,1920
11060,1873
11061,1884
11062,1861
11063,1865
11064,1858
11065,1856
11066,1858
11067,1851
11068,1844
11069,1838
11070,1841
11071,1855
11072,1835
11073,1870
11074,1873
11075,1854
11076,1878
11077,1871
11078,1870
11079,1899
11080,1889
11081,1858
11082,1844
11083,1870
11084,1872
11085,1869
11086,1900
11087,1872
11088,1882
11089,1886
11090,1905
11091,1868
11092,1862
11093,1861
11094,1865
11095,1868
11096,1861
11097,1822
11098,1879
11099,1869
11100,1856
11101,1856
11102,1874
11103,1882
11104,1863
11105,1861
11106,1840
11107,1849
11108,1810
11109,1819
11110,1883
11111,1887
11112,1876
11113,1849
11114,1829
11115,1882
11116,1839
11117,1851
11118,1878
11119,1886
11120,1885
11121,1869
11122,1874
11123,1879
11124,1902
11125,1849
11126,1877
11127,1835
11128,1867
11129,1852
11130,1862
11131,1872
11132,1856
11133,1887
11134,1913
11135,1825
11136,1842
11137,1856
11138,1857
11139,1843
11140,1856
11141,1829
11142,1847
11143,1851
11144,1850
11145,1882
11146,1878
11147,1883
11148,1862
11149,1857
11150,1818
11151,1887
11152,1862
11153,1853
11154,1865
11155,1904
11156,1874
11157,1857
11158,1845
11159,1770
11160,1814
11161,1843
11162,1850
11163,1822
11164,1830
11165,1799
11166,1864
11167,1863
11168,1914
11169,1849
11170,1849
11171,1856
11172,1861
11173,1849
11174,1899
11175,1799
11176,1876
11177,1856
11178,1865
11179,1875
11180,1838
11181,1877
11182,1844
11183,1860
11184,1895
11185,1845
11186,1859
11187,1854
11188,1811
11189,1865
11190,1886
11191,1812
11192,1854
11193,1840
11194,1839
11195,1859
11196,1856
11197,1918
11198,1856
11199,1846
11200,1895
11201,1847
11202,1878
11203,1881
11204,1875
11205,1842
11206,1860
11207,1847
11208,1846
11209,1845
11210,1857
11211,1845
11212,1871
11213,1883
11214,1877
11215,1847
11216,1841
11217,1910
11218,1821
11219,1856
11220,1872
11221,1875
11222,1871
11223,1822
11224,1796
11225,1823
11226,1857
11227,1859
11228,1871
11229,1858
11230,1859
11231,1875
11232,1839
11233,1847
11234,1862
11235,1843
11236,1857
11237,1873
11238,1840
11239,1856
11240,1855
11241,1871
11242,1856
11243,1857
11244,1869
11245,1857
11246,1874
11247,1859
11248,1850
11249,1824
11250,1863
11251,1872
11252,1859
11253,1889
11254,1871
11255,1904
11256,1860
11257,1867
11258,1877
11259,1860
11260,1884
11261,1869
11262,1873
11263,1791
11264,1857
11265,1875
11266,1857
11267,1831
11268,1869
11269,1867
11270,1883
11271,1873
11272,1854
11273,1897
11274,1870
11275,1859
11276,1865
11277,1855
11278,1850
11279,1844
11280,1856
11281,1844
11282,1841
11283,1861
11284,1859
11285,1853
11286,1885
11287,1877
11288,1919
11289,1879
11290,1846
11291,1808
11292,1853
11293,1808
11294,1871
11295,1859
11296,1867
11297,1904
11298,1827
11299,1867
11300,1881
11301,1888
11302,1882
11303,1869
11304,1850
11305,1822
11306,1811
11307,1773
11308,1799
11309,1842
11310,1829
11311,1855
11312,1872
11313,1856
11314,1886
11315,1894
11316,1861
11317,1899
11318,1888
11319,1885
11320,1867
11321,1866
11322,1856
11323,1818
11324,1862
11325,1863
11326,1865
11327,1851
11328,1872
11329,1863
11330,1873
11331,1859
11332,1840
11333,1842
11334,1884
11335,1856
11336,1877
11337,1862
11338,1850
11339,1853
11340,1878
11341,1925
11342,1911
11343,1850
11344,1827
11345,1828
11346,1841
11347,1837
11348,1855
11349,1823
11350,1833
11351,1821
11352,1859
11353,1882
11354,1857
11355,1805
11356,1863
11357,1840
11358,1808
11359,1861
11360,1849
11361,1856
11362,1843
11363,1883
11364,1845
11365,1855
11366,1844
11367,1857
11368,1849
11369,1859
11370,1878
11371,1887
11372,1891
11373,1855
11374,1872
11375,1840
11376,1837
11377,1856
11378,1871
11379,1859
11380,1871
11381,1887
11382,1854
11383,1872
11384,1840
11385,1872
11386,1850
11387,1873
11388,1860
11389,1794
11390,1872
11391,1782
11392,1857
11393,1867
11394,1873
11395,1845
11396,1847
11397,1855
11398,1801
11399,1840
11400,1862
11401,1860
11402,1858
11403,1854
11404,1872
11405,1834
11406,1886
11407,1895
11408,1866
11409,1871
11410,1837
11411,1877
11412,1873
11413,1909
11414,1893
11415,1814
11416,1867
11417,1869
11418,1849
11419,1857
11420,1887
11421,1898
11422,1815
11423,1912
11424,1876
11425,1827
11426,1840
11427,1811
11428,1833
11429,1840
11430,1847
11431,1830
11432,1846
11433,1899
11434,1877
11435,1855
11436,1863
11437,1866
11438,1888
11439,1861
11440,1901
11441,1813
11442,1854
11443,1844
11444,1860
11445,1857
11446,1868
11447,1881
11448,1885
11449,1840
11450,1847
11451,1868
11452,1858
11453,1871
11454,1877
11455,1835
11456,1913
11457,1859
11458,1843
11459,1808
11460,1819
11461,1856
11462,1856
11463,1840
11464,1843
11465,1823
11466,1840
11467,1875
11468,1858
11469,1846
11470,1858
11471,1852
11472,1867
11473,1860
11474,1811
11475,1819
11476,1843
11477,1854
11478,1845
11479,1862
11480,1861
11481,1840
11482,1894
11483,1883
11484,1851
11485,1857
11486,1867
11487,1865
11488,1822
11489,1887
11490,1867
11491,1808
11492,1869
11493,1876
11494,1858
11495,1854
11496,1863
11497,1895
11498,1901
11499,1881
11500,1874
11501,1901
11502,1826
11503,1854
11504,1872
11505,1908
11506,1838
11507,1834
11508,1863
11509,1835
11510,1844
11511,1851
11512,1865
11513,1847
11514,1849
11515,1878
11516,1815
11517,1855
11518,1870
11519,1840
11520,1856
11521,1856
11522,1834
11523,1879
11524,1833
11525,1862
11526,1835
11527,1850
11528,1872
11529,1877
11530,1887
11531,1902
11532,1910
11533,1889
11534,1888
11535,1879
11536,1875
11537,1847
11538,1823
11539,1851
11540,1877
11541,1825
11542,1884
11543,1854
11544,1855
11545,1860
11546,1847
11547,1870
11548,1817
11549,1898
11550,1861
11551,1879
11552,1863
11553,1887
11554,1866
11555,1892
11556,1920
11557,1877
11558,1853
11559,1838
11560,1855
11561,1870
11562,1859
11563,1873
11564,1865
11565,1868
11566,1790
11567,1851
11568,1885
11569,1879
11570,1850
11571,1853
11572,1891
11573,1875
11574,1862
11575,1818
11576,1862
11577,1839
11578,1867
11579,1856
11580,1867
11581,1862
11582,1851
11583,1870
11584,1872
11585,1855
11586,1855
11587,1886
11588,1878
11589,1856
11590,1891
11591,1845
11592,1887
11593,1875
11594,1856
11595,1872
11596,1840
11597,1874
11598,1838
11599,1890
11600,1887
11601,1862
11602,1861
11603,1835
11604,1894
11605,1857
11606,1790
11607,1845
11608,1872
11609,1877
11610,1827
11611,1846
11612,1864
11613,1872
11614,1839
11615,1858
11616,1856
11617,1863
11618,1861
11619,1857
11620,1847
11621,1874
11622,1862
11623,1862
11624,1853
11625,1856
11626,1849
11627,1840
11628,1876
11629,1865
11630,1904
11631,1856
11632,1893
11633,1847
11634,1862
11635,1856
11636,1867
11637,1840
11638,1883
11639,1865
11640,1862
11641,1863
11642,1841
11643,1850
11644,1838
11645,1869
11646,1867
11647,1856
11648,1854
11649,1843
11650,1855
11651,1847
11652,1871
11653,1858
11654,1879
11655,1870
11656,1796
11657,1860
11658,1814
11659,1840
11660,1839
11661,1851
11662,1855
11663,1863
11664,1866
11665,1825
11666,1875
11667,1840
11668,1910
11669,1867
11670,1873
11671,1849
11672,1848
11673,1888
11674,1866
11675,1856
11676,1846
11677,1861
11678,1882
11679,1851
11680,1887
11681,1847
11682,1857
11683,1849
11684,1861
11685,1872
11686,1857
11687,1865
11688,1831
11689,1857
11690,1819
11691,1857
11692,1868
11693,1909
11694,1865
11695,1874
11696,1871
11697,1871
11698,1874
11699,1832
11700,1871
11701,1877
11702,1867
11703,1891
11704,1867
11705,1870
11706,1839
11707,1867
11708,1855
11709,1859
11710,1850
11711,1845
11712,1842
11713,1847
11714,1859
11715,1871
11716,1877
11717,1868
11718,1914
11719,1872
11720,1852
11721,1866
11722,1875
11723,1909
11724,1850
11725,1826
11726,1864
11727,1849
11728,1870
11729,1851
11730,1871
11731,1844
11732,1840
11733,1851
11734,1859
11735,1863
11736,1870
11737,1872
11738,1879
11739,1875
11740,1855
11741,1808
11742,1886
11743,1870
11744,1862
11745,1862
11746,1869
11747,1914
11748,1807
11749,1872
11750,1849
11751,1855
11752,1856
11753,1852
11754,1854
11755,1869
11756,1890
11757,1853
11758,1856
11759,1878
11760,1855
11761,1872
11762,1847
11763,1877
11764,1870
11765,1856
11766,1872
11767,1851
11768,1870
11769,1861
11770,1862
11771,1872
11772,1873
11773,1865
11774,1845
11775,1904
11776,1852
11777,1857
11778,1869
11779,1874
11780,1847
11781,1837
11782,1895
11783,1847
11784,1872
11785,1851
11786,1863
11787,1862
11788,1862
11789,1851
11790,1828
11791,1901
11792,1842
11793,1859
11794,1858
11795,1867
11796,1880
11797,1920
11798,1887
11799,1874
11800,1808
11801,1865
11802,1871
11803,1853
11804,1885
11805,1815
11806,1814
11807,1821
11808,1907
11809,1843
11810,1828
11811,1853
11812,1858
11813,1845
11814,1910
11815,1862
11816,1853
11817,1818
11818,1870
11819,1840
11820,1857
11821,1861
11822,1824
11823,1872
11824,1882
11825,1856
11826,1883
11827,1873
11828,1867
11829,1872
11830,1880
11831,1851
11832,1818
11833,1840
11834,1885
11835,1874
11836,1884
11837,1879
11838,1872
11839,1867
11840,1911
11841,1854
11842,1859
11843,1855
11844,1856
11845,1856
11846,1845
11847,1877
11848,1852
11849,1851
11850,1821
11851,1893
11852,1851
11853,1883
11854,1884
11855,1873
11856,1858
11857,1874
11858,1883
11859,1881
11860,1832
11861,1860
11862,1867
11863,1866
11864,1858
11865,1885
11866,1806
11867,1879
11868,1922
11869,1867
11870,1867
11871,1903
11872,1893
11873,1875
11874,1883
11875,1884
11876,1833
11877,1814
11878,1854
11879,1837
11880,1905
11881,1839
11882,1854
11883,1870
11884,1875
11885,1857
11886,1873
11887,1870
11888,1895
11889,1846
11890,1859
11891,1868
11892,1879
11893,1883
11894,1872
11895,1886
11896,1874
11897,1867
11898,1861
11899,1858
11900,1842
11901,1863
11902,1872
11903,1856
11904,1855
11905,1875
11906,1878
11907,1907
11908,1821
11909,1871
11910,1861
11911,1840
11912,1859
11913,1893
11914,1851
11915,1855
11916,1814
11917,1809
