Time(ms),Raw_ADC,ENV_Value,RMS,MDF,MW_Amp,MW_Area,MW_Latency,MW_Valid,Marker
0,1859.3,209.9,0.0,0.0,0.0,0.0,0.0,0,
100,1857.1,208.6,0.0,0.0,0.0,0.0,0.0,0,
200,1830.8,267.9,0.0,0.0,0.0,0.0,0.0,0,
300,1869.7,160.7,0.0,0.0,0.0,0.0,0.0,0,
400,1869.5,24.6,0.0,0.0,0.0,0.0,0.0,0,
500,1855.2,21.2,0.0,64.5,0.0,0.0,0.0,0,
600,1858.7,14.9,0.0,64.5,0.0,0.0,0.0,0,
700,1859.3,15.4,0.0,64.5,0.0,0.0,0.0,0,
800,1858.5,17.5,0.0,70.3,0.0,0.0,0.0,0,
900,1858.6,15.2,216.8,68.4,0.0,0.0,0.0,0,
1000,1858.7,14.8,198.0,78.1,0.0,0.0,0.0,0,
1100,1859.8,19.4,170.1,80.1,0.0,0.0,0.0,0,
1200,1859.5,12.9,130.1,93.8,0.0,0.0,0.0,0,
1300,1859.4,166.3,69.1,78.1,0.0,0.0,0.0,0,
1400,1875.5,201.5,84.5,62.5,0.0,0.0,0.0,0,
1500,1852.0,194.2,124.9,62.5,0.0,0.0,0.0,0,
1600,1859.4,240.5,154.6,62.5,0.0,0.0,0.0,0,
1700,1853.0,257.1,182.9,64.5,0.0,0.0,0.0,0,
1900,1868.3,198.3,228.5,64.5,0.0,0.0,0.0,0,
2000,1846.8,23.8,236.4,64.5,0.0,0.0,0.0,0,
2100,1856.2,15.9,236.4,64.5,0.0,0.0,0.0,0,
2200,1858.7,14.1,236.3,64.5,0.0,0.0,0.0,0,
2300,1860.1,13.1,236.3,64.5,0.0,0.0,0.0,0,
2400,1859.9,11.6,221.7,62.5,0.0,0.0,0.0,0,
2500,1859.9,18.2,201.6,66.4,0.0,0.0,0.0,0,
2600,1859.8,13.3,179.7,95.7,0.0,0.0,0.0,0,
2700,1860.0,12.8,150.9,99.6,0.0,0.0,0.0,0,
2900,1859.9,37.5,63.0,89.8,0.0,0.0,0.0,0,
3000,1851.0,206.1,65.7,62.5,0.0,0.0,0.0,0,
3100,1859.8,239.2,108.3,54.7,0.0,0.0,0.0,0,
3200,1889.6,214.5,143.1,62.5,0.0,0.0,0.0,0,
3300,1853.2,189.0,175.5,62.5,0.0,0.0,0.0,0,
3400,1835.7,237.5,198.2,64.5,0.0,0.0,0.0,0,
3500,1854.5,245.2,218.7,64.5,0.0,0.0,0.0,0,
3600,1863.8,30.5,231.8,64.5,0.0,0.0,0.0,0,
3700,1858.0,21.5,231.9,64.5,0.0,0.0,0.0,0,
3900,1859.0,15.5,232.0,62.5,0.0,0.0,0.0,0,
4000,1860.7,16.2,223.2,74.2,0.0,0.0,0.0,0,
4100,1860.5,13.0,205.9,101.6,0.0,0.0,0.0,0,
4200,1860.7,14.2,183.4,99.6,0.0,0.0,0.0,0,
4300,1860.6,14.3,152.7,84.0,0.0,0.0,0.0,0,
4400,1859.3,17.0,121.8,105.5,0.0,0.0,0.0,0,
4500,1859.2,14.1,79.3,97.7,0.0,0.0,0.0,0,
4600,1880.0,199.6,72.1,62.5,0.0,0.0,0.0,0,
4700,1828.7,165.7,118.0,56.6,0.0,0.0,0.0,0,
4900,1868.1,329.0,182.0,62.5,0.0,0.0,0.0,0,
5000,1886.3,282.4,219.6,64.5,0.0,0.0,0.0,0,
5100,1854.1,245.9,248.7,64.5,0.0,0.0,0.0,0,
5200,1839.8,45.8,265.9,64.5,0.0,0.0,0.0,0,
5300,1857.9,15.7,265.9,62.5,0.0,0.0,0.0,0,
5400,1861.0,14.2,265.9,62.5,0.0,0.0,0.0,0,
5500,1860.8,12.2,265.9,48.8,0.0,0.0,0.0,0,
5600,1860.8,12.6,256.7,44.9,0.0,0.0,0.0,0,
5700,1860.4,14.3,239.0,84.0,0.0,0.0,0.0,0,
5900,1860.0,13.3,194.6,84.0,0.0,0.0,0.0,0,
6000,1860.1,11.9,150.9,72.3,0.0,0.0,0.0,0,
6100,1860.3,14.1,95.6,70.3,0.0,0.0,0.0,0,
6200,1851.1,291.9,71.8,52.7,0.0,0.0,0.0,0,
6300,1851.4,313.8,135.7,39.1,0.0,0.0,0.0,0,
6400,1889.0,275.0,181.4,37.1,0.0,0.0,0.0,0,
6500,1836.2,285.0,216.9,35.2,0.0,0.0,0.0,0,
6600,1853.7,353.1,246.5,33.2,1373.0,7489.0,5.0,0,
6700,1859.3,345.1,279.4,33.2,1262.0,6264.0,30.0,0,
6900,1862.8,15.9,300.8,62.5,1262.0,6264.0,30.0,0,
7000,1859.0,14.4,300.8,62.5,1262.0,6264.0,30.0,0,
7100,1860.9,17.6,300.8,41.0,1262.0,6264.0,30.0,0,
7200,1859.9,15.4,292.6,39.1,1262.0,6264.0,30.0,0,
7300,1860.0,17.0,269.0,76.2,1262.0,6264.0,30.0,0,
7400,1861.2,15.1,240.6,64.5,1262.0,6264.0,30.0,0,
7500,1859.7,16.9,209.1,62.5,1262.0,6264.0,30.0,0,
7600,1861.0,15.7,173.3,64.5,1262.0,6264.0,30.0,0,
7700,1859.6,13.7,112.8,62.5,1262.0,6264.0,30.0,0,
7900,1844.0,206.2,104.2,64.5,1001.0,5166.0,30.0,0,
8000,1843.2,228.6,138.7,62.5,601.0,4476.0,30.0,0,
8100,1855.9,267.1,158.6,62.5,1152.0,6068.0,23.0,1,
8200,1884.8,265.4,187.7,62.5,1296.0,7212.0,23.0,1,
8300,1859.1,243.5,218.7,50.8,1233.0,7211.0,20.0,1,
8400,1843.9,86.6,243.7,33.2,392.0,2422.0,16.0,1,
8500,1867.6,15.8,244.0,35.2,392.0,2422.0,16.0,1,
8600,1858.4,12.8,243.9,37.1,392.0,2422.0,16.0,1,
8700,1860.2,16.4,243.9,37.1,392.0,2422.0,16.0,1,
8900,1858.9,13.6,221.2,66.4,392.0,2422.0,16.0,1,
9000,1860.3,17.5,201.5,68.4,392.0,2422.0,16.0,1,
9100,1860.7,15.0,186.4,66.4,392.0,2422.0,16.0,1,
9200,1860.3,13.1,157.0,66.4,392.0,2422.0,16.0,1,
9300,1860.5,14.1,109.7,66.4,392.0,2422.0,16.0,1,
9400,1859.5,190.4,21.0,78.1,960.0,5147.0,27.0,0,
9500,1867.5,226.4,85.9,50.8,908.0,4904.0,6.0,1,
9600,1896.6,211.1,131.8,62.5,1114.0,5783.0,26.0,0,
9700,1823.9,190.7,167.6,62.5,1251.0,6338.0,23.0,1,
9900,1860.0,307.0,219.1,62.5,1343.0,7025.0,5.0,0,
10000,1895.9,133.0,246.7,33.2,1327.0,7050.0,6.0,1,
10100,1846.1,19.7,251.5,33.2,1327.0,7050.0,6.0,1,
10200,1858.5,13.1,251.5,35.2,1327.0,7050.0,6.0,1,
10300,1860.3,13.9,251.5,37.1,1327.0,7050.0,6.0,1,
10400,1860.4,13.6,251.5,37.1,1327.0,7050.0,6.0,1,
10500,1861.0,16.1,237.1,56.6,1327.0,7050.0,6.0,1,
10600,1859.8,13.0,214.8,64.5,1327.0,7050.0,6.0,1,
10700,1860.0,12.4,188.5,64.5,1327.0,7050.0,6.0,1,
10900,1860.3,14.1,124.7,87.9,1327.0,7050.0,6.0,1,
11000,1860.0,128.7,52.1,103.5,1327.0,7050.0,6.0,1,
11100,1855.2,230.1,89.4,41.0,1059.0,5722.0,6.0,1,
11200,1860.3,292.5,135.8,39.1,1412.0,7508.0,6.0,1,
11300,1874.3,310.4,173.7,35.2,816.0,5433.0,30.0,0,
11400,1887.0,280.2,203.6,35.2,772.0,5408.0,30.0,0,
11500,1831.1,249.5,230.9,33.2,736.0,5494.0,28.0,0,
11600,1841.6,208.2,256.6,33.2,1326.0,6993.0,5.0,0,
11700,1872.7,25.2,265.5,33.2,451.0,3062.0,21.0,1,
11900,1859.2,13.3,265.5,35.2,451.0,3062.0,21.0,1,
12000,1859.8,22.4,265.5,37.1,451.0,3062.0,21.0,1,
12100,1861.5,16.0,250.7,46.9,451.0,3062.0,21.0,1,
12200,1859.7,14.5,228.9,82.0,451.0,3062.0,21.0,1,
12300,1860.3,16.3,201.7,82.0,451.0,3062.0,21.0,1,
12400,1860.7,15.5,171.4,80.1,451.0,3062.0,21.0,1,
12500,1860.0,18.3,132.5,85.9,451.0,3062.0,21.0,1,
12600,1859.8,108.8,70.6,93.8,451.0,3062.0,21.0,1,
12700,1853.1,185.2,75.7,50.8,931.0,5363.0,23.0,1,
12900,1835.8,263.9,164.9,35.2,1257.0,6735.0,6.0,1,
13000,1861.9,279.9,197.9,35.2,790.0,5516.0,5.0,0,
13100,1856.2,312.0,223.3,33.2,769.0,5460.0,30.0,0,
13200,1883.9,273.6,246.9,35.2,614.0,5308.0,28.0,0,
13300,1833.2,28.2,258.6,33.2,331.0,2429.0,17.0,1,
13400,1857.4,14.6,258.6,33.2,331.0,2429.0,17.0,1,
13500,1860.0,14.2,258.6,35.2,331.0,2429.0,17.0,1,
13600,1859.7,14.8,258.6,35.2,331.0,2429.0,17.0,1,
13700,1860.3,13.1,248.0,39.1,331.0,2429.0,17.0,1,
13900,1860.4,14.4,200.3,84.0,331.0,2429.0,17.0,1,
14000,1859.8,14.0,167.8,70.3,331.0,2429.0,17.0,1,
14100,1859.8,19.4,132.1,62.5,331.0,2429.0,17.0,1,
14200,1860.6,14.7,79.4,62.5,331.0,2429.0,17.0,1,
14300,1853.3,243.0,83.7,56.6,1156.0,7045.0,23.0,1,
14400,1841.0,284.7,139.4,37.1,1488.0,7993.0,24.0,1,
14500,1860.9,266.6,182.2,35.2,1427.0,7755.0,24.0,1,
14600,1900.7,272.5,221.8,33.2,1442.0,8227.0,24.0,1,
14700,1845.0,230.3,257.0,33.2,838.0,5738.0,5.0,0,
14900,1865.5,39.7,290.1,35.2,332.0,2438.0,19.0,1,
15000,1856.5,15.1,290.1,41.0,332.0,2438.0,19.0,1,
15100,1859.4,13.7,290.1,37.1,332.0,2438.0,19.0,1,
15200,1861.8,15.6,290.1,37.1,332.0,2438.0,19.0,1,
15300,1860.2,14.1,278.6,37.1,332.0,2438.0,19.0,1,
15400,1859.7,13.2,255.5,72.3,332.0,2438.0,19.0,1,
15500,1859.7,14.8,227.1,62.5,332.0,2438.0,19.0,1,
15600,1860.1,13.6,188.5,80.1,332.0,2438.0,19.0,1,
15700,1860.3,16.0,136.6,68.4,332.0,2438.0,19.0,1,
15900,1874.2,281.9,73.2,54.7,1326.0,7324.0,18.0,1,
16000,1891.6,260.5,133.4,37.1,1128.0,7213.0,24.0,1,
16100,1823.0,269.9,178.3,35.2,1378.0,7647.0,24.0,1,
16200,1842.2,260.1,211.5,33.2,1468.0,7762.0,24.0,1,
16300,1861.1,312.6,240.2,33.2,1438.0,7802.0,24.0,1,
16400,1907.4,272.2,274.1,33.2,1350.0,7989.0,19.0,1,
16500,1836.2,53.5,293.2,33.2,453.0,3156.0,24.0,1,
16600,1859.0,16.4,293.2,33.2,453.0,3156.0,24.0,1,
16700,1858.4,13.4,293.2,35.2,453.0,3156.0,24.0,1,
16900,1860.3,12.5,284.3,37.1,453.0,3156.0,24.0,1,
17000,1859.2,15.5,261.4,95.7,453.0,3156.0,24.0,1,
17100,1860.9,14.8,233.3,95.7,453.0,3156.0,24.0,1,
17200,1859.3,13.3,203.8,76.2,453.0,3156.0,24.0,1,
17300,1860.0,14.2,168.7,74.2,453.0,3156.0,24.0,1,
17400,1860.5,14.1,105.3,101.6,453.0,3156.0,24.0,1,
17500,1859.3,300.8,59.4,56.6,1108.0,7366.0,5.0,0,
17600,1848.2,351.2,126.8,37.1,1288.0,8010.0,19.0,1,
17700,1892.5,305.3,178.2,35.2,1253.0,7234.0,24.0,1,
17900,1824.8,234.4,239.9,33.2,1318.0,7044.0,23.0,1,
18000,1844.5,269.3,260.3,33.2,1334.0,7262.0,24.0,1,
18100,1862.5,71.6,284.0,33.2,340.0,2490.0,17.0,1,
18200,1869.4,16.5,284.1,33.2,340.0,2490.0,17.0,1,
18300,1859.0,15.8,284.1,35.2,340.0,2490.0,17.0,1,
18400,1860.8,18.5,284.1,37.1,340.0,2490.0,17.0,1,
18500,1860.1,12.8,278.4,37.1,340.0,2490.0,17.0,1,
18600,1859.9,13.9,255.0,84.0,340.0,2490.0,17.0,1,
18700,1860.4,14.7,222.0,84.0,340.0,2490.0,17.0,1,
18900,1859.6,14.5,153.5,93.8,340.0,2490.0,17.0,1,
19000,1860.3,14.2,115.3,85.9,340.0,2490.0,17.0,1,
19100,1880.4,249.5,21.7,84.0,1245.0,7230.0,5.0,0,
19200,1851.5,276.2,117.0,39.1,1083.0,6219.0,5.0,0,
19300,1831.0,336.3,173.4,35.2,1358.0,7871.0,5.0,0,
19400,1860.2,367.9,210.6,35.2,1286.0,8425.0,26.0,0,
19500,1879.2,333.3,248.8,33.2,1306.0,7651.0,26.0,0,
19600,1886.2,280.8,278.7,33.2,1497.0,7787.0,24.0,1,
19700,1824.2,110.0,302.9,43.0,349.0,2584.0,17.0,1,
19900,1857.5,12.3,303.8,43.0,349.0,2584.0,17.0,1,
20000,1860.1,14.4,303.8,35.2,349.0,2584.0,17.0,1,
20100,1861.2,13.6,303.6,37.1,349.0,2584.0,17.0,1,
20200,1860.7,16.2,281.1,70.3,349.0,2584.0,17.0,1,
20300,1860.5,13.6,250.3,87.9,349.0,2584.0,17.0,1,
20400,1860.4,17.3,219.9,80.1,349.0,2584.0,17.0,1,
20500,1861.0,13.4,175.6,74.2,349.0,2584.0,17.0,1,
20600,1859.5,13.0,122.7,74.2,349.0,2584.0,17.0,1,
20700,1860.1,234.9,28.7,64.5,1074.0,7808.0,7.0,1,
20900,1876.2,260.0,146.7,35.2,635.0,4652.0,30.0,0,
21000,1851.1,232.3,175.5,35.2,714.0,4803.0,28.0,0,
21100,1838.5,310.5,208.3,33.2,1264.0,6898.0,6.0,1,
21200,1863.9,313.6,235.9,33.2,1326.0,6922.0,26.0,0,
21300,1862.1,140.9,257.9,35.2,556.0,4867.0,5.0,0,
21400,1869.2,19.0,265.8,62.5,556.0,4867.0,5.0,0,
21500,1856.8,16.8,265.8,52.7,556.0,4867.0,5.0,0,
21600,1860.0,14.3,265.8,48.8,556.0,4867.0,5.0,0,
21700,1861.6,13.2,265.8,46.9,556.0,4867.0,5.0,0,
21900,1860.3,15.6,222.6,91.8,556.0,4867.0,5.0,0,
22000,1860.6,12.9,200.8,70.3,556.0,4867.0,5.0,0,
22100,1860.6,18.1,166.5,68.4,556.0,4867.0,5.0,0,
22200,1860.5,15.5,124.3,80.1,556.0,4867.0,5.0,0,
22300,1859.9,143.1,66.7,76.2,556.0,4867.0,5.0,0,
22400,1877.5,210.3,99.4,48.8,1116.0,6635.0,5.0,0,
22500,1851.7,262.9,143.6,37.1,846.0,4965.0,30.0,0,
22600,1850.6,281.1,175.0,35.2,721.0,4679.0,30.0,0,
22700,1868.6,249.9,200.8,35.2,619.0,4582.0,28.0,0,
22900,1852.0,186.6,251.0,41.0,1271.0,6635.0,6.0,1,
23000,1865.6,24.4,257.1,48.8,1271.0,6635.0,6.0,1,
23100,1856.0,15.7,257.1,62.5,1271.0,6635.0,6.0,1,
23200,1860.1,14.8,257.1,62.5,1271.0,6635.0,6.0,1,
23300,1859.7,15.0,257.1,52.7,1271.0,6635.0,6.0,1,
23400,1861.0,17.5,237.8,62.5,1271.0,6635.0,6.0,1,
23500,1860.9,15.9,214.2,66.4,1271.0,6635.0,6.0,1,
23600,1860.5,16.2,189.6,70.3,1271.0,6635.0,6.0,1,
23700,1860.6,20.0,162.1,95.7,1271.0,6635.0,6.0,1,
23900,1859.8,87.3,59.1,93.8,1271.0,6635.0,6.0,1,
24000,1855.3,253.9,73.8,54.7,832.0,5085.0,28.0,0,
24100,1896.3,215.9,123.1,39.1,1046.0,6389.0,5.0,0,
24200,1854.3,194.0,153.2,39.1,676.0,4231.0,30.0,0,
24300,1834.7,236.9,177.7,35.2,456.0,4362.0,30.0,0,
24400,1850.0,163.1,191.2,33.2,431.0,3892.0,28.0,0,
24500,1863.9,226.4,206.2,33.2,864.0,4402.0,28.0,0,
24600,1867.1,27.4,215.1,33.2,864.0,4402.0,28.0,0,
24700,1856.8,14.4,215.1,35.2,864.0,4402.0,28.0,0,
24900,1860.1,17.2,215.0,37.1,864.0,4402.0,28.0,0,
25000,1861.3,14.4,203.0,41.0,864.0,4402.0,28.0,0,
25100,1860.0,17.4,177.7,84.0,864.0,4402.0,28.0,0,
25200,1860.3,13.3,152.7,78.1,864.0,4402.0,28.0,0,
25300,1860.3,13.7,123.4,70.3,864.0,4402.0,28.0,0,
25400,1860.4,13.1,101.1,78.1,864.0,4402.0,28.0,0,
25500,1860.5,15.1,64.4,99.6,864.0,4402.0,28.0,0,
25600,1862.8,193.3,68.9,64.5,1040.0,5781.0,24.0,1,
25700,1840.1,200.5,118.2,37.1,1120.0,6715.0,23.0,1,
25900,1895.7,233.9,186.6,35.2,940.0,6373.0,25.0,0,
26000,1854.9,188.2,204.2,33.2,512.0,4191.0,30.0,0,
26100,1833.5,197.0,219.9,33.2,421.0,3933.0,28.0,0,
26200,1860.0,32.7,227.0,33.2,421.0,3933.0,28.0,0,
26300,1857.5,15.0,226.9,33.2,421.0,3933.0,28.0,0,
26400,1859.9,14.9,226.9,35.2,421.0,3933.0,28.0,0,
26500,1860.1,13.9,226.9,37.1,421.0,3933.0,28.0,0,
26600,1860.9,13.0,217.1,41.0,421.0,3933.0,28.0,0,
26700,1859.8,19.0,195.0,74.2,421.0,3933.0,28.0,0,
26900,1860.6,16.5,131.0,80.1,421.0,3933.0,28.0,0,
27000,1859.5,16.5,101.5,82.0,421.0,3933.0,28.0,0,
27100,1860.3,14.4,59.6,82.0,421.0,3933.0,28.0,0,
27200,1859.6,215.2,52.7,64.5,948.0,6456.0,7.0,1,
27300,1885.8,213.9,101.9,41.0,567.0,4312.0,30.0,0,
27400,1836.3,154.2,131.5,37.1,581.0,3974.0,5.0,0,
27500,1839.2,185.3,150.7,35.2,699.0,4975.0,28.0,0,
27600,1854.6,286.8,176.1,33.2,1206.0,6843.0,5.0,0,
27700,1892.7,255.7,207.8,33.2,1097.0,6656.0,5.0,0,
27900,1861.2,15.6,223.3,33.2,1097.0,6656.0,5.0,0,
28000,1859.4,12.9,223.3,33.2,1097.0,6656.0,5.0,0,
28100,1859.9,13.4,223.2,33.2,1097.0,6656.0,5.0,0,
28200,1860.5,14.3,217.7,35.2,1097.0,6656.0,5.0,0,
28300,1860.7,14.9,199.6,93.8,1097.0,6656.0,5.0,0,
28400,1861.0,14.3,181.9,107.4,1097.0,6656.0,5.0,0,
28500,1860.4,14.5,166.3,117.2,1097.0,6656.0,5.0,0,
28600,1860.9,14.3,138.7,97.7,1097.0,6656.0,5.0,0,
28700,1860.5,14.2,84.0,80.1,1097.0,6656.0,5.0,0,
28900,1844.8,344.8,146.1,35.2,1309.0,8582.0,24.0,1,
29000,1868.1,330.0,188.9,35.2,1184.0,7140.0,23.0,1,
29100,1889.8,290.4,224.9,33.2,1322.0,7142.0,22.0,1,
29200,1839.5,260.3,251.2,33.2,1303.0,7346.0,22.0,1,
29300,1837.8,285.0,274.6,33.2,1214.0,7462.0,23.0,1,
29400,1861.4,83.6,297.8,33.2,443.0,2751.0,23.0,1,
29500,1870.3,17.4,298.1,33.2,443.0,2751.0,23.0,1,
29600,1859.6,14.2,298.1,35.2,443.0,2751.0,23.0,1,
29700,1860.7,14.9,298.1,35.2,443.0,2751.0,23.0,1,
29900,1861.4,17.1,260.5,62.5,443.0,2751.0,23.0,1,
30000,1861.6,16.7,231.5,91.8,443.0,2751.0,23.0,1,
30100,1860.5,20.7,196.7,62.5,443.0,2751.0,23.0,1,
30200,1859.7,16.9,161.8,62.5,443.0,2751.0,23.0,1,
30300,1859.8,13.7,117.3,62.5,443.0,2751.0,23.0,1,
30400,1861.3,257.7,22.0,62.5,1346.0,8159.0,5.0,0,
30500,1886.0,273.5,115.7,39.1,999.0,6377.0,5.0,0,
30600,1831.8,310.7,174.7,35.2,1499.0,8656.0,5.0,0,
30700,1860.4,326.0,215.1,33.2,1367.0,8289.0,5.0,0,
30900,1882.7,279.5,269.3,33.2,1105.0,6775.0,23.0,1,
31000,1855.6,119.3,288.5,33.2,428.0,2893.0,22.0,1,
31100,1837.4,21.3,290.5,33.2,428.0,2893.0,22.0,1,
31200,1859.1,14.9,290.4,33.2,428.0,2893.0,22.0,1,
31300,1860.6,13.6,290.4,33.2,428.0,2893.0,22.0,1,
31400,1861.3,13.9,290.3,35.2,428.0,2893.0,22.0,1,
31500,1860.5,17.2,267.2,46.9,428.0,2893.0,22.0,1,
31600,1860.5,13.3,233.1,76.2,428.0,2893.0,22.0,1,
31700,1860.3,16.0,196.5,64.5,428.0,2893.0,22.0,1,
31900,1860.3,14.4,111.1,66.4,428.0,2893.0,22.0,1,
32000,1860.6,225.0,38.8,66.4,1408.0,8207.0,5.0,0,
32100,1841.0,267.3,112.3,37.1,911.0,5685.0,5.0,0,
32200,1850.5,286.6,149.7,35.2,961.0,6029.0,5.0,0,
32300,1897.8,272.9,186.3,33.2,1246.0,7333.0,6.0,1,
32400,1851.4,266.4,220.7,33.2,1349.0,7877.0,6.0,1,
32500,1851.9,283.0,246.2,33.2,697.0,4955.0,30.0,0,
32600,1845.1,172.4,263.8,33.2,398.0,2794.0,21.0,1,
32700,1872.6,22.8,271.8,33.2,398.0,2794.0,21.0,1,
32900,1860.5,14.6,271.8,33.2,398.0,2794.0,21.0,1,
33000,1861.3,14.1,271.8,33.2,398.0,2794.0,21.0,1,
33100,1860.8,12.7,248.3,37.1,398.0,2794.0,21.0,1,
33200,1860.6,16.7,227.8,76.2,398.0,2794.0,21.0,1,
33300,1860.2,13.8,199.0,66.4,398.0,2794.0,21.0,1,
33400,1860.1,13.6,159.9,64.5,398.0,2794.0,21.0,1,
33500,1860.5,14.1,116.7,66.4,398.0,2794.0,21.0,1,
33600,1860.5,195.6,67.2,66.4,398.0,2794.0,21.0,1,
33700,1906.4,255.9,108.1,37.1,1400.0,8611.0,16.0,1,
33900,1838.1,272.9,187.2,33.2,737.0,5391.0,5.0,0,
34000,1850.3,276.5,213.7,33.2,751.0,5373.0,28.0,0,
34100,1898.8,267.9,240.1,33.2,1302.0,7076.0,6.0,1,
34200,1858.1,216.1,265.2,33.2,1301.0,7131.0,6.0,1,
34300,1856.5,26.4,272.7,33.2,1301.0,7131.0,6.0,1,
34400,1858.3,16.1,272.7,33.2,1301.0,7131.0,6.0,1,
34500,1861.0,15.0,272.7,35.2,1301.0,7131.0,6.0,1,
34600,1861.7,13.4,272.7,35.2,1301.0,7131.0,6.0,1,
34700,1860.0,14.2,250.6,64.5,1301.0,7131.0,6.0,1,
34900,1860.9,12.6,199.2,97.7,1301.0,7131.0,6.0,1,
35000,1860.0,15.4,170.6,66.4,1301.0,7131.0,6.0,1,
35100,1860.8,14.9,130.8,64.5,1301.0,7131.0,6.0,1,
35200,1860.2,40.6,66.3,82.0,1301.0,7131.0,6.0,1,
35300,1842.6,260.7,89.8,41.0,1156.0,8177.0,23.0,1,
35400,1874.3,314.6,144.3,35.2,1213.0,8352.0,24.0,1,
35500,1904.5,266.7,197.4,35.2,1414.0,8493.0,18.0,1,
35600,1831.9,252.6,230.7,33.2,806.0,5541.0,5.0,0,
35700,1836.2,265.7,253.2,33.2,726.0,5323.0,5.0,0,
35900,1872.7,31.6,276.8,33.2,808.0,5140.0,5.0,0,
36000,1857.8,13.8,276.7,33.2,808.0,5140.0,5.0,0,
36100,1861.6,13.1,276.7,33.2,808.0,5140.0,5.0,0,
36200,1861.8,14.1,276.7,35.2,808.0,5140.0,5.0,0,
36300,1860.7,14.6,262.6,35.2,808.0,5140.0,5.0,0,
36400,1859.9,13.1,237.1,85.9,808.0,5140.0,5.0,0,
36500,1859.8,16.5,194.8,62.5,808.0,5140.0,5.0,0,
36600,1860.2,14.6,154.3,70.3,808.0,5140.0,5.0,0,
36700,1860.9,15.4,114.1,70.3,808.0,5140.0,5.0,0,
36900,1880.4,232.1,73.1,56.6,1068.0,6972.0,20.0,1,
37000,1821.6,201.4,122.0,35.2,1064.0,6239.0,23.0,1,
37100,1843.5,245.1,152.8,33.2,767.0,5100.0,28.0,0,
37200,1869.4,261.5,177.9,33.2,1140.0,6861.0,6.0,1,
37300,1911.0,252.8,211.6,33.2,1106.0,6980.0,6.0,1,
37400,1840.7,186.0,231.4,33.2,475.0,4246.0,5.0,0,
37500,1844.4,44.2,240.9,33.2,475.0,4246.0,5.0,0,
37600,1859.1,15.3,240.9,33.2,475.0,4246.0,5.0,0,
37700,1859.5,14.5,240.9,33.2,475.0,4246.0,5.0,0,
37900,1860.3,14.9,230.1,33.2,475.0,4246.0,5.0,0,
38000,1860.5,15.6,208.8,85.9,475.0,4246.0,5.0,0,
38100,1860.6,15.2,187.7,68.4,475.0,4246.0,5.0,0,
38200,1861.6,13.5,164.0,97.7,475.0,4246.0,5.0,0,
38300,1860.4,15.0,117.3,91.8,475.0,4246.0,5.0,0,
38400,1860.4,13.9,70.2,85.9,475.0,4246.0,5.0,0,
38500,1848.0,304.9,62.0,52.7,1198.0,8118.0,15.0,1,
38600,1901.5,256.9,131.2,35.2,1011.0,6839.0,7.0,1,
38700,1868.9,221.5,160.0,33.2,592.0,4780.0,5.0,0,
38900,1840.2,188.6,199.6,33.2,670.0,4940.0,5.0,0,
39000,1857.1,279.2,220.2,33.2,1229.0,7137.0,6.0,1,
39100,1873.0,54.7,242.0,33.2,1220.0,6853.0,6.0,1,
39200,1868.0,16.3,242.1,33.2,1220.0,6853.0,6.0,1,
39300,1859.8,14.3,242.1,33.2,1220.0,6853.0,6.0,1,
39400,1861.2,13.3,242.2,33.2,1220.0,6853.0,6.0,1,
39500,1860.8,14.1,234.9,35.2,1220.0,6853.0,6.0,1,
39600,1860.7,12.7,204.1,91.8,1220.0,6853.0,6.0,1,
39700,1860.8,16.0,182.7,68.4,1220.0,6853.0,6.0,1,
39900,1859.6,13.3,138.7,62.5,1220.0,6853.0,6.0,1,
40000,1860.8,13.4,102.5,62.5,1220.0,6853.0,6.0,1,
40100,1889.1,225.7,45.9,62.5,932.0,6916.0,5.0,0,
40200,1821.1,239.8,111.3,35.2,851.0,5289.0,5.0,0,
40300,1850.7,277.7,142.7,33.2,966.0,6567.0,6.0,1,
40400,1898.7,296.9,179.3,33.2,1169.0,7341.0,21.0,1,
40500,1877.7,203.0,206.2,33.2,646.0,4685.0,5.0,0,
40600,1831.2,210.5,221.7,33.2,696.0,5024.0,5.0,0,
40700,1839.2,84.1,241.0,33.2,732.0,5172.0,5.0,0,
40900,1859.4,13.6,241.5,33.2,732.0,5172.0,5.0,0,
41000,1860.8,13.8,241.4,33.2,732.0,5172.0,5.0,0,
41100,1861.8,13.9,237.5,33.2,732.0,5172.0,5.0,0,
41200,1861.1,12.7,215.3,62.5,732.0,5172.0,5.0,0,
41300,1861.5,13.8,196.0,142.6,732.0,5172.0,5.0,0,
41400,1859.3,12.9,163.1,117.2,732.0,5172.0,5.0,0,
41500,1861.1,13.3,127.4,95.7,732.0,5172.0,5.0,0,
41600,1860.8,13.1,97.8,87.9,732.0,5172.0,5.0,0,
41700,1856.3,272.8,21.9,68.4,1221.0,8279.0,5.0,0,
41900,1857.5,284.5,160.4,35.2,1130.0,7039.0,5.0,0,
42000,1829.4,362.7,205.3,33.2,1297.0,9029.0,5.0,0,
42100,1859.8,331.5,238.0,33.2,1222.0,8564.0,7.0,1,
42200,1873.6,306.9,265.8,33.2,1103.0,7140.0,21.0,1,
42300,1881.4,131.5,287.0,33.2,840.0,5541.0,5.0,0,
42400,1833.7,19.4,289.2,33.2,840.0,5541.0,5.0,0,
42500,1857.9,13.8,289.2,33.2,840.0,5541.0,5.0,0,
42600,1860.6,12.3,289.2,33.2,840.0,5541.0,5.0,0,
42700,1861.2,13.3,289.1,33.2,840.0,5541.0,5.0,0,
42900,1861.4,12.7,241.5,107.4,840.0,5541.0,5.0,0,
43000,1862.0,15.6,204.7,85.9,840.0,5541.0,5.0,0,
43100,1858.6,14.2,165.5,70.3,840.0,5541.0,5.0,0,
43200,1861.8,13.5,115.6,62.5,840.0,5541.0,5.0,0,
43300,1859.9,205.8,40.1,62.5,1040.0,8662.0,8.0,1,
43400,1870.3,277.7,118.2,35.2,981.0,7069.0,7.0,1,
43500,1851.9,236.6,145.6,35.2,636.0,5117.0,30.0,0,
43600,1875.5,273.0,173.6,33.2,878.0,5367.0,5.0,0,
43700,1860.2,232.7,199.9,33.2,808.0,5490.0,5.0,0,
43900,1863.0,166.2,247.2,33.2,1099.0,6593.0,6.0,1,
44000,1875.8,21.9,254.0,33.2,1099.0,6593.0,6.0,1,
44100,1857.7,14.6,254.0,33.2,1099.0,6593.0,6.0,1,
44200,1860.5,14.4,254.0,33.2,1099.0,6593.0,6.0,1,
44300,1860.6,13.8,254.0,33.2,1099.0,6593.0,6.0,1,
44400,1860.1,14.8,225.3,39.1,1099.0,6593.0,6.0,1,
44500,1860.5,13.7,208.8,78.1,1099.0,6593.0,6.0,1,
44600,1860.7,13.6,186.3,66.4,1099.0,6593.0,6.0,1,
44700,1860.7,13.3,157.9,70.3,1099.0,6593.0,6.0,1,
44900,1860.3,165.5,60.3,66.4,1099.0,6593.0,6.0,1,
45000,1882.0,238.5,96.2,35.2,967.0,7124.0,21.0,1,
45100,1855.0,221.4,129.5,33.2,946.0,6593.0,7.0,1,
45200,1851.5,256.5,167.1,33.2,609.0,4691.0,5.0,0,
45300,1848.3,193.3,183.3,33.2,478.0,4136.0,30.0,0,
45400,1868.9,218.1,200.0,33.2,543.0,4374.0,5.0,0,
45500,1867.6,177.2,216.2,33.2,524.0,4282.0,5.0,0,
45600,1844.5,23.8,219.6,33.2,480.0,3658.0,5.0,0,
45700,1858.5,14.8,219.5,48.8,480.0,3658.0,5.0,0,
45900,1860.7,12.8,219.5,52.7,480.0,3658.0,5.0,0,
46000,1861.7,12.7,197.9,62.5,480.0,3658.0,5.0,0,
46100,1859.5,14.4,178.2,97.7,480.0,3658.0,5.0,0,
46200,1859.7,14.1,143.7,93.8,480.0,3658.0,5.0,0,
46300,1860.6,13.7,122.8,97.7,480.0,3658.0,5.0,0,
46400,1859.5,13.7,93.3,91.8,480.0,3658.0,5.0,0,
46500,1860.0,54.5,43.7,85.9,480.0,3658.0,5.0,0,
46600,1843.7,221.1,84.2,37.1,1004.0,7048.0,22.0,1,
46700,1849.7,279.7,123.1,35.2,759.0,5254.0,5.0,0,
46900,1860.0,223.7,183.2,33.2,989.0,6480.0,7.0,1,
47000,1851.1,258.2,210.2,33.2,561.0,4569.0,5.0,0,
47100,1840.4,161.5,222.1,33.2,485.0,4103.0,5.0,0,
47200,1869.9,27.3,229.7,33.2,459.0,3734.0,5.0,0,
47300,1858.3,14.1,229.7,33.2,459.0,3734.0,5.0,0,
47400,1860.1,13.2,229.7,33.2,459.0,3734.0,5.0,0,
47500,1861.4,13.7,229.7,33.2,459.0,3734.0,5.0,0,
47600,1860.4,13.7,214.6,33.2,459.0,3734.0,5.0,0,
47700,1860.1,13.3,195.2,99.6,459.0,3734.0,5.0,0,
47900,1859.9,13.9,140.3,72.3,459.0,3734.0,5.0,0,
48000,1860.0,12.7,95.2,68.4,459.0,3734.0,5.0,0,
48100,1860.1,13.4,61.3,66.4,459.0,3734.0,5.0,0,
48200,1904.3,366.2,99.6,37.1,1442.0,10547.0,21.0,1,
48300,1842.3,318.8,166.2,35.2,1073.0,7479.0,5.0,0,
48400,1823.3,326.3,203.9,33.2,1082.0,6914.0,5.0,0,
48500,1848.7,333.0,232.1,33.2,1111.0,8304.0,22.0,1,
48600,1891.1,319.0,261.3,33.2,1147.0,8272.0,21.0,1,
48700,1876.0,261.9,286.2,33.2,1036.0,7393.0,6.0,1,
48900,1861.7,14.2,300.5,33.2,1036.0,7393.0,6.0,1,
49000,1860.8,13.5,300.5,33.2,1036.0,7393.0,6.0,1,
49100,1860.8,14.1,300.5,33.2,1036.0,7393.0,6.0,1,
49200,1860.9,13.3,283.7,33.2,1036.0,7393.0,6.0,1,
49300,1860.6,14.4,250.8,70.3,1036.0,7393.0,6.0,1,
49400,1859.7,14.3,221.4,66.4,1036.0,7393.0,6.0,1,
49500,1860.9,13.0,191.7,82.0,1036.0,7393.0,6.0,1,
49600,1861.0,13.2,149.5,78.1,1036.0,7393.0,6.0,1,
49700,1859.5,13.2,93.1,78.1,1036.0,7393.0,6.0,1,
49900,1859.3,260.5,123.0,37.1,919.0,6472.0,5.0,0,
50000,1907.2,297.4,171.9,35.2,1218.0,8900.0,16.0,1,
50100,1850.5,290.2,211.0,33.2,996.0,6867.0,5.0,0,
50200,1826.3,314.9,242.4,33.2,1048.0,6391.0,5.0,0,
50300,1843.4,281.6,264.1,33.2,988.0,6205.0,5.0,0,
50400,1858.3,65.1,278.5,33.2,968.0,5659.0,5.0,0,
50500,1874.7,16.9,278.8,33.2,968.0,5659.0,5.0,0,
50600,1860.3,14.3,278.8,33.2,968.0,5659.0,5.0,0,
50700,1860.6,12.9,278.8,33.2,968.0,5659.0,5.0,0,
50900,1859.8,13.9,251.0,76.2,968.0,5659.0,5.0,0,
51000,1859.3,13.4,220.4,68.4,968.0,5659.0,5.0,0,
51100,1859.9,14.4,183.4,66.4,968.0,5659.0,5.0,0,
51200,1861.0,14.1,139.5,66.4,968.0,5659.0,5.0,0,
51300,1860.6,14.1,91.7,70.3,968.0,5659.0,5.0,0,
51400,1914.5,335.0,58.0,56.6,1397.0,11514.0,9.0,1,
51500,1807.3,345.5,157.3,33.2,1190.0,7531.0,5.0,0,
51600,1828.4,314.1,202.2,33.2,1188.0,7098.0,5.0,0,
51700,1853.4,313.8,231.3,33.2,1082.0,7065.0,5.0,0,
51900,1870.4,261.8,281.1,33.2,1032.0,7832.0,7.0,1,
52000,1833.5,101.0,297.2,33.2,712.0,5440.0,5.0,0,
52100,1863.2,17.0,297.9,33.2,712.0,5440.0,5.0,0,
52200,1859.7,13.9,297.9,33.2,712.0,5440.0,5.0,0,
52300,1861.4,14.0,297.9,33.2,712.0,5440.0,5.0,0,
52400,1860.7,12.9,292.5,33.2,712.0,5440.0,5.0,0,
52500,1860.7,13.0,253.4,62.5,712.0,5440.0,5.0,0,
52600,1860.3,14.6,219.5,91.8,712.0,5440.0,5.0,0,
52700,1860.3,13.3,188.7,115.2,712.0,5440.0,5.0,0,
52900,1860.3,15.5,100.4,66.4,712.0,5440.0,5.0,0,
53000,1859.8,280.3,26.4,72.3,1300.0,10030.0,7.0,1,
53100,1859.8,305.9,120.2,37.1,1030.0,6941.0,5.0,0,
53200,1899.6,284.5,167.3,35.2,1253.0,8441.0,7.0,1,
53300,1842.3,261.0,200.8,33.2,785.0,5912.0,5.0,0,
53400,1832.9,252.0,224.6,33.2,818.0,5398.0,5.0,0,
53500,1843.9,194.4,238.0,33.2,786.0,5273.0,5.0,0,
53600,1892.5,124.7,253.6,33.2,718.0,4506.0,5.0,0,
53700,1844.3,18.9,255.3,33.2,718.0,4506.0,5.0,0,
53900,1861.3,14.0,255.3,33.2,718.0,4506.0,5.0,0,
54000,1860.8,12.8,255.3,35.2,718.0,4506.0,5.0,0,
54100,1861.0,15.0,226.1,66.4,718.0,4506.0,5.0,0,
54200,1859.9,13.5,193.8,85.9,718.0,4506.0,5.0,0,
54300,1859.5,13.2,159.1,85.9,718.0,4506.0,5.0,0,
54400,1859.7,14.9,123.7,82.0,718.0,4506.0,5.0,0,
54500,1858.7,15.7,95.2,78.1,718.0,4506.0,5.0,0,
54600,1860.3,173.6,35.0,85.9,1027.0,8083.0,7.0,1,
54700,1854.7,232.5,90.7,37.1,830.0,5452.0,5.0,0,
54900,1860.5,258.7,153.5,33.2,835.0,5901.0,5.0,0,
55000,1899.6,264.2,188.2,33.2,1097.0,7159.0,6.0,1,
55100,1859.1,232.5,213.1,33.2,541.0,4493.0,5.0,0,
55200,1835.5,162.5,225.3,33.2,577.0,4373.0,5.0,0,
55300,1866.0,23.6,231.9,33.2,577.0,4373.0,5.0,0,
55400,1858.1,13.8,231.9,33.2,577.0,4373.0,5.0,0,
55500,1861.5,13.0,231.9,33.2,577.0,4373.0,5.0,0,
55600,1860.8,15.0,231.8,33.2,577.0,4373.0,5.0,0,
55700,1860.9,13.9,214.2,35.2,577.0,4373.0,5.0,0,
55900,1859.8,15.5,174.9,66.4,577.0,4373.0,5.0,0,
56000,1859.4,13.7,137.0,87.9,577.0,4373.0,5.0,0,
56100,1859.9,14.5,93.6,105.5,577.0,4373.0,5.0,0,
56200,1860.1,172.3,56.8,101.6,577.0,4373.0,5.0,0,
56300,1880.5,335.4,117.3,35.2,1187.0,9769.0,21.0,1,
56400,1886.2,286.9,175.5,33.2,1238.0,8874.0,22.0,1,
56500,1827.0,329.5,212.6,33.2,883.0,6370.0,5.0,0,
56600,1834.9,204.8,233.3,33.2,897.0,6090.0,5.0,0,
56700,1853.8,249.8,252.4,33.2,767.0,5552.0,5.0,0,
56900,1843.8,30.2,278.0,33.2,1086.0,7130.0,5.0,0,
57000,1858.6,15.5,278.0,33.2,1086.0,7130.0,5.0,0,
57100,1861.5,14.3,278.0,33.2,1086.0,7130.0,5.0,0,
57200,1860.9,13.0,278.0,33.2,1086.0,7130.0,5.0,0,
57300,1862.0,13.2,252.3,33.2,1086.0,7130.0,5.0,0,
57400,1860.6,14.7,215.7,103.5,1086.0,7130.0,5.0,0,
57500,1860.7,13.7,179.9,99.6,1086.0,7130.0,5.0,0,
57600,1860.5,12.1,152.6,103.5,1086.0,7130.0,5.0,0,
57700,1862.1,14.4,118.3,107.4,1086.0,7130.0,5.0,0,
57900,1841.3,339.4,113.5,39.1,1460.0,9991.0,22.0,1,
58000,1842.7,276.8,175.1,35.2,1282.0,8724.0,20.0,1,
58100,1884.7,301.4,213.3,33.2,1101.0,7704.0,18.0,1,
58200,1885.2,285.9,240.1,33.2,1009.0,7850.0,6.0,1,
58300,1853.6,256.5,258.7,33.2,692.0,5935.0,5.0,0,
58400,1831.0,238.9,273.9,33.2,665.0,5194.0,5.0,0,
58500,1865.8,34.7,281.4,33.2,665.0,5194.0,5.0,0,
58600,1858.5,14.1,281.4,33.2,665.0,5194.0,5.0,0,
58700,1860.6,13.1,281.4,33.2,665.0,5194.0,5.0,0,
58900,1861.4,13.9,258.1,33.2,665.0,5194.0,5.0,0,
59000,1860.5,12.1,221.2,99.6,665.0,5194.0,5.0,0,
59100,1860.1,11.8,184.6,93.8,665.0,5194.0,5.0,0,
59200,1862.0,18.8,148.2,93.8,665.0,5194.0,5.0,0,
59300,1858.8,13.5,112.5,103.5,665.0,5194.0,5.0,0,
59400,1860.5,15.3,66.8,64.5,665.0,5194.0,5.0,0,
59500,1900.9,395.4,101.3,39.1,1372.0,11668.0,21.0,1,
59600,1860.2,302.4,173.5,33.2,1052.0,7053.0,5.0,0,
59700,1823.1,232.0,206.6,33.2,622.0,5520.0,5.0,0,
59900,1867.4,202.0,239.6,33.2,652.0,5156.0,5.0,0,
60000,1885.4,226.1,253.8,33.2,907.0,5818.0,5.0,0,
60100,1851.2,46.6,264.8,33.2,866.0,5616.0,5.0,0,
60200,1865.2,13.3,264.9,33.2,866.0,5616.0,5.0,0,
60300,1860.8,13.8,264.8,33.2,866.0,5616.0,5.0,0,
60400,1860.6,14.5,264.8,33.2,866.0,5616.0,5.0,0,
60500,1861.4,12.9,245.0,33.2,866.0,5616.0,5.0,0,
60600,1859.6,13.7,200.4,70.3,866.0,5616.0,5.0,0,
60700,1861.6,14.2,166.7,91.8,866.0,5616.0,5.0,0,
60900,1861.1,17.6,114.7,70.3,866.0,5616.0,5.0,0,
61000,1861.1,14.4,78.1,62.5,866.0,5616.0,5.0,0,
61100,1853.8,225.7,54.3,62.5,1000.0,7030.0,5.0,0,
61200,1843.7,236.3,104.9,37.1,958.0,5479.0,6.0,1,
61300,1894.8,215.2,139.3,35.2,783.0,5138.0,28.0,0,
61400,1871.4,229.3,165.7,33.2,937.0,5929.0,7.0,1,
61500,1844.0,249.2,188.3,33.2,618.0,4071.0,30.0,0,
61600,1840.9,149.2,201.0,33.2,547.0,3838.0,5.0,0,
61700,1853.2,54.5,214.2,33.2,600.0,3822.0,5.0,0,
61900,1861.7,14.7,214.4,33.2,600.0,3822.0,5.0,0,
62000,1862.2,13.0,214.3,35.2,600.0,3822.0,5.0,0,
62100,1861.2,14.7,208.3,35.2,600.0,3822.0,5.0,0,
62200,1860.8,13.6,188.1,93.8,600.0,3822.0,5.0,0,
62300,1860.0,13.4,164.4,95.7,600.0,3822.0,5.0,0,
62400,1860.6,14.6,137.8,66.4,600.0,3822.0,5.0,0,
62500,1861.6,14.6,104.8,68.4,600.0,3822.0,5.0,0,
62600,1860.5,12.5,77.0,68.4,600.0,3822.0,5.0,0,
62700,1899.3,201.2,43.0,66.4,942.0,7325.0,7.0,1,
62900,1834.7,217.7,126.9,35.2,698.0,5022.0,5.0,0,
63000,1844.3,216.5,155.4,33.2,719.0,4872.0,5.0,0,
63100,1881.6,196.3,176.3,33.2,650.0,4599.0,5.0,0,
63200,1872.9,209.2,193.6,33.2,930.0,5822.0,6.0,1,
63300,1863.5,91.5,212.3,33.2,871.0,5319.0,6.0,1,
63400,1854.8,19.6,213.8,33.2,871.0,5319.0,6.0,1,
63500,1859.9,13.8,213.8,33.2,871.0,5319.0,6.0,1,
63600,1861.8,13.5,213.8,33.2,871.0,5319.0,6.0,1,
63700,1861.9,14.3,209.9,33.2,871.0,5319.0,6.0,1,
63900,1859.4,13.6,173.1,74.2,871.0,5319.0,6.0,1,
64000,1860.0,14.1,148.1,64.5,871.0,5319.0,6.0,1,
64100,1860.8,13.7,122.6,66.4,871.0,5319.0,6.0,1,
64200,1860.5,14.4,92.4,70.3,871.0,5319.0,6.0,1,
64300,1860.8,242.2,30.2,68.4,1054.0,7645.0,6.0,1,
64400,1843.9,235.2,105.9,50.8,933.0,5449.0,5.0,0,
64500,1894.2,249.2,147.7,39.1,1071.0,6837.0,5.0,0,
64600,1863.8,261.5,177.2,33.2,1054.0,6940.0,7.0,1,
64700,1839.2,266.0,201.8,33.2,595.0,5187.0,30.0,0,
64900,1870.0,111.5,228.9,33.2,491.0,3703.0,5.0,0,
65000,1857.2,17.5,230.7,33.2,491.0,3703.0,5.0,0,
65100,1859.0,13.4,230.7,33.2,491.0,3703.0,5.0,0,
65200,1861.4,14.2,230.7,33.2,491.0,3703.0,5.0,0,
65300,1861.9,12.9,230.7,33.2,491.0,3703.0,5.0,0,
65400,1859.9,13.3,205.9,44.9,491.0,3703.0,5.0,0,
65500,1861.1,16.2,178.2,66.4,491.0,3703.0,5.0,0,
65600,1860.6,13.1,149.1,87.9,491.0,3703.0,5.0,0,
65700,1859.3,13.3,113.7,87.9,491.0,3703.0,5.0,0,
65900,1859.9,246.3,33.5,68.4,1448.0,11568.0,8.0,1,
66000,1877.7,313.9,140.1,35.2,1129.0,8413.0,18.0,1,
66100,1824.0,302.9,184.2,33.2,1256.0,8925.0,19.0,1,
66200,1847.6,251.8,218.5,33.2,1063.0,7443.0,19.0,1,
66300,1894.9,259.5,240.7,33.2,810.0,5673.0,5.0,0,
66400,1860.3,251.4,258.2,33.2,947.0,6212.0,6.0,1,
66500,1858.8,179.9,273.6,33.2,938.0,5859.0,5.0,0,
66600,1862.7,23.7,279.8,33.2,938.0,5859.0,5.0,0,
66700,1858.3,14.8,279.8,33.2,938.0,5859.0,5.0,0,
66900,1861.7,13.7,279.8,33.2,938.0,5859.0,5.0,0,
67000,1861.9,14.8,242.5,33.2,938.0,5859.0,5.0,0,
67100,1859.1,13.0,211.5,66.4,938.0,5859.0,5.0,0,
67200,1859.0,14.3,175.9,72.3,938.0,5859.0,5.0,0,
67300,1860.1,15.6,144.1,99.6,938.0,5859.0,5.0,0,
67400,1860.2,13.6,109.6,76.2,938.0,5859.0,5.0,0,
67500,1860.2,165.3,61.1,62.5,938.0,5859.0,5.0,0,
67600,1854.7,254.2,103.7,50.8,1049.0,7515.0,20.0,1,
67700,1882.4,253.1,143.3,39.1,1001.0,6698.0,6.0,1,
67900,1847.1,238.1,202.9,33.2,758.0,5532.0,5.0,0,
68000,1841.2,222.1,222.1,33.2,896.0,5051.0,5.0,0,
68100,1888.3,183.3,239.7,33.2,897.0,4799.0,5.0,0,
68200,1845.7,24.6,244.0,33.2,880.0,4817.0,5.0,0,
68300,1858.7,16.3,243.9,33.2,880.0,4817.0,5.0,0,
68400,1861.0,13.5,243.9,35.2,880.0,4817.0,5.0,0,
68500,1860.9,14.2,243.9,33.2,880.0,4817.0,5.0,0,
68600,1860.6,13.0,221.7,35.2,880.0,4817.0,5.0,0,
68700,1860.2,14.0,198.4,95.7,880.0,4817.0,5.0,0,
68900,1860.3,14.0,137.1,68.4,880.0,4817.0,5.0,0,
69000,1860.4,14.7,102.9,74.2,880.0,4817.0,5.0,0,
69100,1860.9,28.6,49.5,78.1,880.0,4817.0,5.0,0,
69200,1855.0,408.4,112.2,33.2,1312.0,10764.0,28.0,0,
69300,1828.1,360.3,171.3,33.2,1272.0,8456.0,5.0,0,
69400,1864.8,311.4,210.8,33.2,1054.0,7742.0,19.0,1,
69500,1889.3,267.2,238.8,33.2,992.0,6422.0,5.0,0,
69600,1863.3,271.3,258.5,33.2,1003.0,6924.0,7.0,1,
69700,1845.6,246.8,275.5,33.2,619.0,4600.0,5.0,0,
69900,1860.0,17.8,283.2,33.2,619.0,4600.0,5.0,0,
70000,1859.8,13.5,283.3,33.2,619.0,4600.0,5.0,0,
70100,1860.6,13.4,283.3,33.2,619.0,4600.0,5.0,0,
70200,1861.6,13.3,260.5,33.2,619.0,4600.0,5.0,0,
70300,1862.1,12.4,226.4,68.4,619.0,4600.0,5.0,0,
70400,1860.2,13.4,190.1,62.5,619.0,4600.0,5.0,0,
70500,1861.1,13.9,153.4,76.2,619.0,4600.0,5.0,0,
70600,1860.1,12.7,117.2,103.5,619.0,4600.0,5.0,0,
70700,1859.7,13.1,68.2,82.0,619.0,4600.0,5.0,0,
70900,1880.7,290.2,138.7,35.2,1186.0,8294.0,7.0,1,
71000,1847.6,319.3,181.2,33.2,761.0,5967.0,5.0,0,
71100,1833.4,211.8,203.5,33.2,720.0,5439.0,5.0,0,
71200,1852.3,202.2,220.9,33.2,735.0,4669.0,5.0,0,
71300,1883.8,172.7,234.3,33.2,695.0,4246.0,5.0,0,
71400,1839.6,46.7,242.2,33.2,729.0,4356.0,5.0,0,
71500,1866.6,15.4,242.3,33.2,729.0,4356.0,5.0,0,
71600,1861.5,13.1,242.4,33.2,729.0,4356.0,5.0,0,
71700,1861.2,14.2,242.4,33.2,729.0,4356.0,5.0,0,
71900,1860.7,13.2,199.6,68.4,729.0,4356.0,5.0,0,
72000,1859.8,13.3,162.1,82.0,729.0,4356.0,5.0,0,
72100,1860.3,13.7,133.3,76.2,729.0,4356.0,5.0,0,
72200,1860.0,11.8,102.0,62.5,729.0,4356.0,5.0,0,
72300,1860.3,15.5,64.9,68.4,729.0,4356.0,5.0,0,
72400,1851.7,383.8,76.9,50.8,1411.0,11030.0,7.0,1,
72500,1835.5,344.1,152.8,35.2,1280.0,8793.0,20.0,1,
72600,1875.0,302.5,198.7,33.2,1010.0,7015.0,17.0,1,
72700,1878.7,279.3,224.5,33.2,909.0,7394.0,16.0,1,
72900,1839.0,206.3,264.8,33.2,898.0,6077.0,14.0,1,
73000,1843.1,76.3,276.9,33.2,679.0,5106.0,5.0,0,
73100,1878.0,16.4,277.3,33.2,679.0,5106.0,5.0,0,
73200,1859.5,14.5,277.3,31.3,679.0,5106.0,5.0,0,
73300,1863.3,13.9,277.3,31.3,679.0,5106.0,5.0,0,
73400,1862.0,12.8,267.1,31.3,679.0,5106.0,5.0,0,
73500,1860.6,14.1,232.4,62.5,679.0,5106.0,5.0,0,
73600,1861.8,12.2,194.5,91.8,679.0,5106.0,5.0,0,
73700,1860.6,13.9,164.0,70.3,679.0,5106.0,5.0,0,
73900,1860.9,19.8,84.2,97.7,679.0,5106.0,5.0,0,
74000,1906.4,356.5,53.9,80.1,1589.0,12853.0,7.0,1,
74100,1852.4,344.5,159.8,33.2,1366.0,10387.0,8.0,1,
74200,1839.8,356.5,204.9,33.2,1157.0,8541.0,7.0,1,
74300,1836.3,216.7,231.1,33.2,903.0,6081.0,5.0,0,
74400,1866.8,229.0,248.7,33.2,850.0,5304.0,5.0,0,
74500,1879.8,225.6,263.9,33.2,828.0,5221.0,5.0,0,
74600,1859.6,104.0,276.6,33.2,914.0,5919.0,7.0,1,
74700,1849.5,20.4,278.0,33.2,914.0,5919.0,7.0,1,
74900,1862.2,14.6,278.0,33.2,914.0,5919.0,7.0,1,
75000,1863.2,14.2,273.2,31.3,914.0,5919.0,7.0,1,
75100,1862.7,12.7,228.0,62.5,914.0,5919.0,7.0,1,
75200,1861.1,13.9,188.7,125.0,914.0,5919.0,7.0,1,
75300,1860.8,15.2,155.7,123.0,914.0,5919.0,7.0,1,
75400,1860.9,13.7,125.7,89.8,914.0,5919.0,7.0,1,
75500,1861.0,14.1,89.3,84.0,914.0,5919.0,7.0,1,
75600,1860.8,304.9,33.0,91.8,1345.0,10922.0,8.0,1,
75700,1829.3,290.4,125.1,35.2,1040.0,6532.0,5.0,0,
75900,1870.6,279.4,188.2,33.2,985.0,7202.0,7.0,1,
76000,1859.2,257.2,209.9,33.2,681.0,5638.0,5.0,0,
76100,1833.1,220.0,227.9,33.2,680.0,4581.0,5.0,0,
76200,1854.8,142.1,240.9,33.2,849.0,5082.0,5.0,0,
76300,1872.6,19.0,244.6,33.2,849.0,5082.0,5.0,0,
76400,1860.4,13.6,244.6,33.2,849.0,5082.0,5.0,0,
76500,1861.8,13.9,244.6,33.2,849.0,5082.0,5.0,0,
76600,1862.9,12.9,244.6,33.2,849.0,5082.0,5.0,0,
76700,1861.8,13.4,211.0,37.1,849.0,5082.0,5.0,0,
76900,1862.1,13.5,157.4,132.8,849.0,5082.0,5.0,0,
77000,1861.4,13.3,127.2,89.8,849.0,5082.0,5.0,0,
77100,1860.5,15.9,90.9,80.1,849.0,5082.0,5.0,0,
77200,1860.8,236.8,44.6,89.8,849.0,5082.0,5.0,0,
77300,1891.3,305.5,121.4,33.2,1014.0,7139.0,6.0,1,
77400,1834.2,279.7,156.7,33.2,999.0,6218.0,6.0,1,
77500,1835.0,248.7,185.0,33.2,958.0,6172.0,5.0,0,
77600,1876.9,200.8,207.2,33.2,906.0,5667.0,5.0,0,
77700,1871.3,202.9,220.4,33.2,849.0,5051.0,5.0,0,
77900,1857.8,23.9,238.5,33.2,849.0,5051.0,5.0,0,
78000,1859.0,15.3,238.5,33.2,849.0,5051.0,5.0,0,
78100,1862.4,14.0,238.5,33.2,849.0,5051.0,5.0,0,
78200,1862.3,13.8,238.5,33.2,849.0,5051.0,5.0,0,
78300,1862.8,14.3,205.7,33.2,849.0,5051.0,5.0,0,
78400,1861.5,13.1,180.5,68.4,849.0,5051.0,5.0,0,
78500,1861.0,13.8,151.7,89.8,849.0,5051.0,5.0,0,
78600,1860.5,15.0,119.4,85.9,849.0,5051.0,5.0,0,
78700,1860.3,13.0,92.8,68.4,849.0,5051.0,5.0,0,
78900,1833.3,418.5,140.3,33.2,1309.0,9677.0,19.0,1,
79000,1897.9,340.7,199.5,33.2,1179.0,8380.0,17.0,1,
79100,1866.1,357.7,231.4,33.2,1181.0,7826.0,9.0,1,
79200,1849.6,329.6,258.2,33.2,962.0,7008.0,14.0,1,
79300,1835.3,242.9,276.7,33.2,792.0,6138.0,5.0,0,
79400,1859.7,205.6,290.2,31.3,807.0,6220.0,6.0,1,
79500,1864.6,37.0,296.3,31.3,821.0,5444.0,5.0,0,
79600,1858.9,15.7,296.3,33.2,821.0,5444.0,5.0,0,
79700,1861.2,12.7,296.3,33.2,821.0,5444.0,5.0,0,
79900,1862.6,13.8,261.5,33.2,821.0,5444.0,5.0,0,
80000,1860.5,14.5,219.7,130.9,821.0,5444.0,5.0,0,
80100,1860.6,13.7,185.6,125.0,821.0,5444.0,5.0,0,
80200,1859.6,12.2,146.0,95.7,821.0,5444.0,5.0,0,
80300,1859.3,14.8,107.3,64.5,821.0,5444.0,5.0,0,
80400,1860.6,15.3,62.1,62.5,821.0,5444.0,5.0,0,
80500,1877.6,388.1,119.9,35.2,1283.0,10675.0,30.0,0,
80600,1822.3,394.0,177.0,33.2,1183.0,10687.0,28.0,0,
80700,1839.0,326.2,219.7,33.2,1124.0,8177.0,6.0,1,
80900,1867.2,246.5,268.9,33.2,1131.0,7008.0,5.0,0,
81000,1855.6,288.1,288.5,33.2,924.0,5851.0,6.0,1,
81100,1855.0,38.8,298.5,33.2,924.0,5851.0,6.0,1,
81200,1859.5,15.8,298.6,33.2,924.0,5851.0,6.0,1,
81300,1860.6,15.4,298.6,33.2,924.0,5851.0,6.0,1,
81400,1862.1,13.9,298.6,33.2,924.0,5851.0,6.0,1,
81500,1861.0,14.0,273.7,33.2,924.0,5851.0,6.0,1,
81600,1861.7,13.3,240.9,74.2,924.0,5851.0,6.0,1,
81700,1860.6,11.8,202.7,89.8,924.0,5851.0,6.0,1,
81900,1859.9,14.8,130.7,103.5,924.0,5851.0,6.0,1,
82000,1858.9,11.3,78.2,115.2,924.0,5851.0,6.0,1,
82100,1859.8,298.8,75.8,70.3,1216.0,7590.0,19.0,1,
82200,1886.3,253.5,136.1,41.0,951.0,6730.0,6.0,1,
82300,1858.8,242.1,174.7,35.2,1100.0,7470.0,7.0,1,
82400,1841.7,255.6,201.7,33.2,932.0,5539.0,5.0,0,
82500,1838.6,225.6,220.7,33.2,1012.0,5464.0,5.0,0,
82600,1889.0,217.9,239.5,33.2,928.0,5047.0,5.0,0,
82700,1839.5,46.0,249.7,33.2,937.0,4765.0,5.0,0,
82900,1861.2,13.0,249.8,33.2,937.0,4765.0,5.0,0,
83000,1860.7,14.0,249.9,33.2,937.0,4765.0,5.0,0,
83100,1861.1,14.0,238.8,33.2,937.0,4765.0,5.0,0,
83200,1861.2,13.0,210.1,87.9,937.0,4765.0,5.0,0,
83300,1861.6,13.0,179.6,107.4,937.0,4765.0,5.0,0,
83400,1861.1,14.4,148.8,109.4,937.0,4765.0,5.0,0,
83500,1860.7,14.0,118.6,107.4,937.0,4765.0,5.0,0,
83600,1859.4,14.7,73.3,89.8,937.0,4765.0,5.0,0,
83700,1865.9,363.6,75.7,41.0,1325.0,10242.0,6.0,1,
83900,1857.8,317.3,197.8,33.2,1296.0,7577.0,16.0,1,
84000,1882.7,229.7,228.5,33.2,1079.0,6402.0,5.0,0,
84100,1856.6,236.3,246.0,33.2,943.0,6151.0,5.0,0,
84200,1860.5,251.0,263.9,33.2,912.0,4967.0,5.0,0,
84300,1843.5,67.9,276.2,33.2,882.0,4961.0,5.0,0,
84400,1874.1,17.0,276.5,33.2,882.0,4961.0,5.0,0,
84500,1861.1,13.7,276.5,33.2,882.0,4961.0,5.0,0,
84600,1863.5,14.6,276.5,33.2,882.0,4961.0,5.0,0,
84700,1860.9,12.0,266.4,33.2,882.0,4961.0,5.0,0,
84900,1860.4,15.7,193.9,99.6,882.0,4961.0,5.0,0,
85000,1860.5,13.4,156.6,89.8,882.0,4961.0,5.0,0,
85100,1859.0,16.7,127.3,66.4,882.0,4961.0,5.0,0,
85200,1861.0,13.8,83.9,82.0,882.0,4961.0,5.0,0,
85300,1887.8,417.0,44.2,85.9,1491.0,12127.0,8.0,1,
85400,1862.0,401.4,177.9,33.2,1594.0,11350.0,5.0,0,
85500,1831.1,404.8,235.4,33.2,1359.0,9954.0,5.0,0,
85600,1846.2,339.0,269.3,33.2,1103.0,7844.0,5.0,0,
85700,1849.8,321.7,293.9,33.2,913.0,7382.0,5.0,0,
85900,1856.0,120.5,329.7,33.2,843.0,5854.0,5.0,0,
86000,1842.6,20.6,331.6,33.2,843.0,5854.0,5.0,0,
86100,1858.6,13.3,331.6,33.2,843.0,5854.0,5.0,0,
86200,1860.2,12.7,331.6,31.3,843.0,5854.0,5.0,0,
86300,1860.5,14.1,329.0,31.3,843.0,5854.0,5.0,0,
86400,1860.4,14.1,279.9,37.1,843.0,5854.0,5.0,0,
86500,1860.7,20.6,233.9,72.3,843.0,5854.0,5.0,0,
86600,1861.2,13.7,194.2,64.5,843.0,5854.0,5.0,0,
86700,1861.8,13.8,154.8,62.5,843.0,5854.0,5.0,0,
86900,1861.0,369.3,40.2,62.5,1506.0,12167.0,7.0,1,
87000,1830.0,400.7,162.6,33.2,1470.0,11041.0,16.0,1,
87100,1881.0,381.6,220.3,33.2,1244.0,9726.0,19.0,1,
87200,1877.5,292.3,256.2,33.2,1227.0,8962.0,16.0,1,
87300,1843.0,350.2,280.2,33.2,1028.0,8277.0,5.0,0,
87400,1847.2,307.1,302.6,33.2,903.0,6773.0,5.0,0,
87500,1852.7,179.4,317.6,33.2,979.0,6879.0,5.0,0,
87600,1882.7,24.0,322.4,33.2,979.0,6879.0,5.0,0,
87700,1858.0,13.1,322.4,33.2,979.0,6879.0,5.0,0,
87900,1859.5,14.2,322.4,31.3,979.0,6879.0,5.0,0,
88000,1860.9,13.6,279.0,33.2,979.0,6879.0,5.0,0,
88100,1860.3,13.5,236.2,85.9,979.0,6879.0,5.0,0,
88200,1859.4,15.9,196.6,68.4,979.0,6879.0,5.0,0,
88300,1860.7,13.4,160.7,87.9,979.0,6879.0,5.0,0,
88400,1859.8,14.0,113.0,64.5,979.0,6879.0,5.0,0,
88500,1860.3,291.6,57.9,62.5,979.0,6879.0,5.0,0,
88600,1889.4,370.6,142.7,41.0,1388.0,10714.0,6.0,1,
88700,1831.1,409.3,202.4,35.2,1324.0,10074.0,6.0,1,
88900,1868.5,314.8,265.1,33.2,1057.0,7942.0,5.0,0,
89000,1874.5,275.0,287.4,33.2,998.0,6831.0,5.0,0,
89100,1847.7,215.6,302.3,33.2,910.0,5746.0,5.0,0,
89200,1847.7,26.8,309.2,33.2,910.0,5746.0,5.0,0,
89300,1858.2,15.2,309.2,33.2,910.0,5746.0,5.0,0,
89400,1861.1,14.0,309.2,33.2,910.0,5746.0,5.0,0,
89500,1862.0,12.9,309.2,31.3,910.0,5746.0,5.0,0,
89600,1861.5,13.2,274.7,31.3,910.0,5746.0,5.0,0,
89700,1860.9,14.2,234.3,87.9,910.0,5746.0,5.0,0,
89900,1860.2,13.7,160.3,70.3,910.0,5746.0,5.0,0,
90000,1860.8,14.1,115.5,70.3,910.0,5746.0,5.0,0,
90100,1861.1,176.8,66.8,70.3,910.0,5746.0,5.0,0,
90200,1832.6,407.1,128.4,31.3,1370.0,12146.0,28.0,0,
90300,1894.5,355.2,191.1,33.2,1204.0,8658.0,19.0,1,
90400,1855.3,277.1,224.0,33.2,1139.0,8121.0,15.0,1,
90500,1840.6,331.6,247.9,33.2,991.0,7561.0,6.0,1,
90600,1853.5,273.2,270.5,33.2,946.0,6103.0,5.0,0,
90700,1870.3,226.9,285.9,33.2,856.0,5953.0,5.0,0,
90900,1859.5,15.3,292.8,33.2,856.0,5953.0,5.0,0,
91000,1863.0,12.9,292.8,33.2,856.0,5953.0,5.0,0,
91100,1861.2,13.5,292.8,31.3,856.0,5953.0,5.0,0,
91200,1861.0,13.7,263.6,33.2,856.0,5953.0,5.0,0,
91300,1860.5,12.8,222.2,95.7,856.0,5953.0,5.0,0,
91400,1860.8,14.5,189.2,99.6,856.0,5953.0,5.0,0,
91500,1861.2,13.4,156.8,66.4,856.0,5953.0,5.0,0,
91600,1860.8,13.3,113.2,66.4,856.0,5953.0,5.0,0,
91700,1860.3,14.0,65.4,66.4,856.0,5953.0,5.0,0,
91900,1839.2,465.3,195.1,35.2,1392.0,11992.0,27.0,0,
92000,1848.0,359.0,245.4,33.2,1116.0,8448.0,5.0,0,
92100,1886.0,334.1,275.0,33.2,1110.0,8246.0,5.0,0,
92200,1868.9,299.2,297.1,33.2,1028.0,7481.0,5.0,0,
92300,1844.5,308.3,314.5,33.2,993.0,6498.0,5.0,0,
92400,1853.5,46.4,326.5,33.2,927.0,6722.0,5.0,0,
92500,1860.9,15.9,326.5,33.2,927.0,6722.0,5.0,0,
92600,1860.6,13.6,326.5,33.2,927.0,6722.0,5.0,0,
92700,1861.1,13.9,326.5,31.3,927.0,6722.0,5.0,0,
92900,1860.7,13.7,262.3,85.9,927.0,6722.0,5.0,0,
93000,1860.5,13.3,215.9,85.9,927.0,6722.0,5.0,0,
93100,1861.0,13.4,176.9,93.8,927.0,6722.0,5.0,0,
93200,1860.2,14.7,136.6,97.7,927.0,6722.0,5.0,0,
93300,1860.0,15.3,89.0,68.4,927.0,6722.0,5.0,0,
93400,1841.1,405.4,83.6,43.0,1249.0,11133.0,29.0,0,
93500,1897.0,371.7,170.9,33.2,1261.0,9878.0,6.0,1,
93600,1841.4,353.3,214.4,33.2,1201.0,9606.0,6.0,1,
93700,1839.2,400.9,249.6,33.2,1218.0,9881.0,21.0,1,
93900,1874.2,265.6,298.9,33.2,968.0,7236.0,5.0,0,
94000,1843.9,62.3,311.5,33.2,892.0,6939.0,5.0,0,
94100,1878.9,17.9,311.8,33.2,892.0,6939.0,5.0,0,
94200,1872.3,17.0,311.8,33.2,892.0,6939.0,5.0,0,
94300,1875.5,17.1,311.9,33.2,892.0,6939.0,5.0,0,
94400,1878.8,21.3,301.0,33.2,892.0,6939.0,5.0,0,
94500,1886.7,19.3,261.6,64.5,892.0,6939.0,5.0,0,
94600,1875.7,15.0,227.3,62.5,892.0,6939.0,5.0,0,
94700,1870.0,15.2,187.8,64.5,892.0,6939.0,5.0,0,
94900,1865.7,13.8,90.7,66.4,892.0,6939.0,5.0,0,
95000,1896.6,460.4,79.5,44.9,1467.0,12709.0,7.0,1,
95100,1839.9,397.7,183.3,33.2,1239.0,9601.0,7.0,1,
95200,1843.0,379.7,228.9,33.2,1203.0,9282.0,5.0,0,
95300,1889.2,304.0,270.6,33.2,1066.0,8232.0,5.0,0,
95400,1843.9,275.3,292.7,33.2,1037.0,7678.0,5.0,0,
95500,1844.6,305.7,313.5,33.2,932.0,6575.0,5.0,0,
95600,1870.6,83.6,327.0,33.2,971.0,6743.0,5.0,0,
95700,1881.7,16.3,327.3,33.2,971.0,6743.0,5.0,0,
95900,1865.7,14.3,327.3,33.2,971.0,6743.0,5.0,0,
96000,1865.8,12.7,317.9,31.3,971.0,6743.0,5.0,0,
96100,1865.4,13.9,271.5,62.5,971.0,6743.0,5.0,0,
96200,1863.8,14.6,234.6,68.4,971.0,6743.0,5.0,0,
96300,1862.5,12.8,185.0,74.2,971.0,6743.0,5.0,0,
96400,1862.4,13.0,147.7,70.3,971.0,6743.0,5.0,0,
96500,1861.3,15.0,95.6,68.4,971.0,6743.0,5.0,0,
96600,1873.3,460.5,29.8,158.2,1536.0,13161.0,8.0,1,
96700,1868.4,343.1,185.8,33.2,1971.0,10834.0,18.0,1,
96900,1843.0,350.7,263.6,33.2,1105.0,8149.0,5.0,0,
97000,1863.8,272.5,285.8,33.2,1024.0,7257.0,5.0,0,
97100,1891.7,292.7,308.2,33.2,964.0,6979.0,5.0,0,
97200,1856.1,127.3,329.3,33.2,923.0,6446.0,5.0,0,
97300,1846.0,18.7,330.7,33.2,923.0,6446.0,5.0,0,
97400,1858.7,14.0,330.6,33.2,923.0,6446.0,5.0,0,
97500,1863.5,12.9,330.7,35.2,923.0,6446.0,5.0,0,
97600,1862.4,13.1,329.9,35.2,923.0,6446.0,5.0,0,
97700,1862.6,13.3,273.8,37.1,923.0,6446.0,5.0,0,
97900,1862.6,13.5,200.4,82.0,923.0,6446.0,5.0,0,
98000,1862.7,14.1,167.2,123.0,923.0,6446.0,5.0,0,
98100,1862.4,13.5,121.0,87.9,923.0,6446.0,5.0,0,
98200,1861.8,373.0,34.6,68.4,1498.0,12938.0,7.0,1,
98300,1862.6,342.0,160.7,33.2,1448.0,10337.0,18.0,1,
98400,1870.1,323.5,211.5,33.2,1721.0,9960.0,16.0,1,
98500,1880.3,298.0,244.3,33.2,988.0,6965.0,5.0,0,
98600,1832.6,331.1,272.4,33.2,1017.0,7151.0,5.0,0,
98700,1818.7,267.9,293.1,33.2,986.0,7198.0,5.0,0,
98900,1886.8,22.8,312.8,33.2,986.0,7198.0,5.0,0,
99000,1852.9,14.3,312.8,33.2,986.0,7198.0,5.0,0,
99100,1857.8,13.8,312.8,33.2,986.0,7198.0,5.0,0,
99200,1860.3,13.0,312.8,33.2,986.0,7198.0,5.0,0,
99300,1859.7,12.9,268.7,35.2,986.0,7198.0,5.0,0,
99400,1860.3,14.0,230.9,68.4,986.0,7198.0,5.0,0,
99500,1860.2,14.2,195.8,76.2,986.0,7198.0,5.0,0,
99600,1859.3,13.5,154.7,64.5,986.0,7198.0,5.0,0,
99700,1858.8,14.0,110.6,72.3,986.0,7198.0,5.0,0,
99900,1883.6,368.1,160.0,35.2,2008.0,10755.0,18.0,1,
100000,1817.4,397.3,214.1,33.2,1195.0,9300.0,5.0,0,
100100,1847.0,338.1,244.0,33.2,1071.0,8014.0,6.0,1,
100200,1886.5,263.0,272.4,33.2,1590.0,6863.0,5.0,0,
100300,1881.7,273.8,293.4,33.2,930.0,6728.0,5.0,0,
100400,1845.4,201.7,313.6,33.2,920.0,5859.0,5.0,0,
100500,1837.7,25.0,318.0,33.2,920.0,5859.0,5.0,0,
100600,1856.0,14.9,318.0,33.2,920.0,5859.0,5.0,0,
100700,1859.8,13.3,318.0,33.2,920.0,5859.0,5.0,0,
100900,1861.7,14.2,275.1,33.2,920.0,5859.0,5.0,0,
101000,1862.4,13.8,235.7,87.9,920.0,5859.0,5.0,0,
101100,1862.2,12.9,204.7,101.6,920.0,5859.0,5.0,0,
101200,1863.5,13.8,165.0,101.6,920.0,5859.0,5.0,0,
101300,1862.3,14.2,124.0,97.7,920.0,5859.0,5.0,0,
101400,1862.3,196.5,55.9,76.2,920.0,5859.0,5.0,0,
101500,1860.8,432.3,141.5,31.3,1406.0,13227.0,27.0,0,
101600,1890.6,374.4,205.8,33.2,1839.0,9628.0,16.0,1,
101700,1864.8,313.6,245.0,33.2,1055.0,7621.0,5.0,0,
101900,1822.4,287.9,294.0,33.2,939.0,6762.0,5.0,0,
102000,1871.4,240.9,309.4,33.2,941.0,6510.0,5.0,0,
102100,1887.7,32.6,317.5,33.2,901.0,6376.0,5.0,0,
102200,1856.2,14.7,317.5,33.2,901.0,6376.0,5.0,0,
102300,1857.0,13.9,317.5,33.2,901.0,6376.0,5.0,0,
102400,1856.5,13.5,317.5,33.2,901.0,6376.0,5.0,0,
102500,1858.7,14.1,284.5,33.2,901.0,6376.0,5.0,0,
102600,1858.4,13.4,242.0,97.7,901.0,6376.0,5.0,0,
102700,1860.8,14.5,202.3,68.4,901.0,6376.0,5.0,0,
102900,1860.8,13.3,120.9,87.9,901.0,6376.0,5.0,0,
103000,1860.9,14.1,73.2,62.5,901.0,6376.0,5.0,0,
103100,1882.6,400.9,121.7,35.2,1938.0,12133.0,28.0,0,
103200,1812.4,429.0,186.4,33.2,1181.0,8863.0,7.0,1,
103300,1835.9,335.4,229.8,33.2,1205.0,9041.0,5.0,0,
103400,1905.5,295.7,263.8,33.2,999.0,7335.0,5.0,0,
103500,1884.5,276.9,284.6,33.2,914.0,6791.0,5.0,0,
103600,1841.4,313.2,305.9,33.2,909.0,6090.0,5.0,0,
103700,1834.8,43.9,319.0,33.2,909.0,6090.0,5.0,0,
103900,1857.9,13.4,319.0,35.2,909.0,6090.0,5.0,0,
104000,1858.9,13.7,319.0,37.1,909.0,6090.0,5.0,0,
104100,1859.5,13.1,295.3,37.1,909.0,6090.0,5.0,0,
104200,1859.8,13.9,259.4,85.9,909.0,6090.0,5.0,0,
104300,1859.6,14.7,221.8,99.6,909.0,6090.0,5.0,0,
104400,1860.1,13.2,180.1,93.8,909.0,6090.0,5.0,0,
104500,1860.0,13.7,144.9,62.5,909.0,6090.0,5.0,0,
104600,1860.4,13.1,92.2,66.4,909.0,6090.0,5.0,0,
104700,1851.1,374.0,79.2,41.0,1325.0,10659.0,6.0,1,
104900,1851.1,261.5,197.0,33.2,1022.0,7130.0,6.0,1,
105000,1828.9,309.3,229.4,33.2,896.0,6228.0,5.0,0,
105100,1831.0,228.2,248.6,33.2,880.0,6200.0,5.0,0,
105200,1865.9,223.6,267.2,33.2,844.0,5359.0,5.0,0,
105300,1866.9,54.6,279.8,33.2,806.0,5220.0,5.0,0,
105400,1868.0,16.9,279.9,33.2,806.0,5220.0,5.0,0,
105500,1860.3,14.8,279.9,33.2,806.0,5220.0,5.0,0,
105600,1862.6,13.7,279.9,33.2,806.0,5220.0,5.0,0,
105700,1863.5,14.0,269.0,31.3,806.0,5220.0,5.0,0,
105900,1862.1,13.3,199.5,66.4,806.0,5220.0,5.0,0,
106000,1862.7,14.2,161.3,68.4,806.0,5220.0,5.0,0,
106100,1862.5,14.7,129.7,105.5,806.0,5220.0,5.0,0,
106200,1861.4,14.6,84.6,105.5,806.0,5220.0,5.0,0,
106300,1892.0,365.9,63.2,62.5,1348.0,11017.0,8.0,1,
106400,1808.8,296.1,153.5,35.2,1144.0,7753.0,7.0,1,
106500,1826.7,263.8,194.6,35.2,994.0,6442.0,5.0,0,
106600,1910.5,235.5,221.2,33.2,939.0,6151.0,5.0,0,
106700,1885.6,228.4,238.4,33.2,856.0,5331.0,6.0,1,
106900,1833.5,68.9,273.4,33.2,747.0,4644.0,5.0,0,
107000,1865.3,17.2,273.6,41.0,747.0,4644.0,5.0,0,
107100,1860.8,13.2,273.6,64.5,747.0,4644.0,5.0,0,
107200,1864.1,14.9,273.6,62.5,747.0,4644.0,5.0,0,
107300,1865.2,14.1,266.8,35.2,747.0,4644.0,5.0,0,
107400,1864.2,13.3,227.3,62.5,747.0,4644.0,5.0,0,
107500,1863.3,15.6,193.3,93.8,747.0,4644.0,5.0,0,
107600,1861.7,16.8,162.3,127.0,747.0,4644.0,5.0,0,
107700,1861.4,13.7,135.8,76.2,747.0,4644.0,5.0,0,
107900,1863.5,276.6,20.8,76.2,1144.0,9551.0,8.0,1,
108000,1886.8,238.9,121.9,35.2,959.0,6563.0,6.0,1,
108100,1870.5,252.4,156.8,33.2,1049.0,6410.0,5.0,0,
108200,1839.9,282.3,191.4,33.2,911.0,5220.0,6.0,1,
108300,1822.6,193.7,218.2,33.2,906.0,5814.0,6.0,1,
108400,1875.3,221.2,239.8,33.2,818.0,5112.0,5.0,0,
108500,1862.3,99.6,256.1,46.9,785.0,5032.0,5.0,0,
108600,1846.2,17.7,256.9,62.5,785.0,5032.0,5.0,0,
108700,1859.3,14.9,256.9,48.8,785.0,5032.0,5.0,0,
108900,1861.1,12.7,256.9,37.1,785.0,5032.0,5.0,0,
109000,1862.7,14.3,226.8,62.5,785.0,5032.0,5.0,0,
109100,1863.3,14.5,204.3,99.6,785.0,5032.0,5.0,0,
109200,1863.0,14.9,172.4,99.6,785.0,5032.0,5.0,0,
109300,1862.7,15.2,136.9,74.2,785.0,5032.0,5.0,0,
109400,1863.0,14.0,94.0,76.2,785.0,5032.0,5.0,0,
109500,1863.4,296.3,27.3,70.3,1167.0,9273.0,7.0,1,
109600,1855.9,221.5,113.8,33.2,1055.0,6956.0,7.0,1,
109700,1843.5,249.0,153.7,33.2,961.0,5547.0,6.0,1,
109900,1852.2,208.6,213.3,33.2,942.0,5545.0,5.0,0,
110000,1864.7,270.4,232.2,62.5,851.0,4967.0,5.0,0,
110100,1863.1,128.4,247.6,33.2,814.0,4565.0,6.0,1,
110200,1871.6,20.6,254.5,33.2,814.0,4565.0,6.0,1,
110300,1858.0,14.9,254.5,33.2,814.0,4565.0,6.0,1,
110400,1862.0,13.4,254.5,41.0,814.0,4565.0,6.0,1,
110500,1862.0,14.9,254.5,62.5,814.0,4565.0,6.0,1,
110600,1862.3,12.4,228.3,62.5,814.0,4565.0,6.0,1,
110700,1861.6,15.5,203.6,70.3,814.0,4565.0,6.0,1,
110900,1859.0,13.3,139.9,66.4,814.0,4565.0,6.0,1,
111000,1858.2,17.7,105.6,70.3,814.0,4565.0,6.0,1,
111100,1858.9,206.8,61.8,68.4,814.0,4565.0,6.0,1,
111200,1871.0,274.8,119.6,39.1,1272.0,8046.0,7.0,1,
111300,1827.8,327.7,169.1,35.2,1154.0,6194.0,5.0,0,
111400,1860.3,231.8,196.6,35.2,1095.0,6126.0,5.0,0,
111500,1872.3,242.9,223.7,33.2,1008.0,5123.0,5.0,0,
111600,1999.5,221.0,283.2,33.2,694.0,5877.0,21.0,1,
111700,1901.3,13.6,289.4,62.5,694.0,5877.0,21.0,1,
111900,1860.9,4.1,289.3,35.2,694.0,5877.0,21.0,1,
112000,1860.8,4.4,289.2,35.2,694.0,5877.0,21.0,1,
112100,1860.8,3.5,289.0,35.2,694.0,5877.0,21.0,1,
112200,1860.3,4.0,263.8,134.8,694.0,5877.0,21.0,1,
112300,1860.5,4.1,234.9,156.3,694.0,5877.0,21.0,1,
112400,1860.6,17.6,211.9,154.3,694.0,5877.0,21.0,1,
112500,1840.7,24.6,183.4,130.9,694.0,5877.0,21.0,1,
112600,1837.9,22.2,61.6,64.5,694.0,5877.0,21.0,1,
112700,1841.7,96.0,14.2,62.5,694.0,5877.0,21.0,1,
112900,1872.8,316.6,176.7,35.2,1942.0,9566.0,15.0,1,
113000,1861.8,293.6,214.0,33.2,1073.0,7479.0,6.0,1,
113100,1826.7,330.9,245.7,33.2,1014.0,6493.0,5.0,0,
113200,1816.7,261.6,267.4,33.2,982.0,6524.0,5.0,0,
113300,1848.4,243.9,286.4,33.2,926.0,5747.0,5.0,0,
113400,1889.4,35.2,296.6,33.2,926.0,5747.0,5.0,0,
113500,1851.8,17.3,296.6,33.2,926.0,5747.0,5.0,0,
113600,1855.8,15.5,296.6,33.2,926.0,5747.0,5.0,0,
113700,1856.2,13.7,296.6,33.2,926.0,5747.0,5.0,0,
113900,1856.3,14.6,238.8,85.9,926.0,5747.0,5.0,0,
114000,1855.4,14.6,206.1,91.8,926.0,5747.0,5.0,0,
114100,1855.9,17.6,167.1,68.4,926.0,5747.0,5.0,0,
114200,1855.3,14.3,129.2,66.4,926.0,5747.0,5.0,0,
114300,1855.1,14.5,78.4,84.0,926.0,5747.0,5.0,0,
114400,1881.1,310.5,115.8,41.0,2081.0,10211.0,20.0,1,
114500,1810.9,375.5,179.6,35.2,1150.0,7741.0,5.0,0,
114600,1837.1,245.0,211.2,35.2,1037.0,6929.0,5.0,0,
114700,1888.2,273.4,236.2,33.2,1116.0,6732.0,5.0,0,
114900,1841.8,224.9,277.8,33.2,890.0,4995.0,5.0,0,
115000,1837.4,37.7,290.4,33.2,925.0,5013.0,5.0,0,
115100,1858.5,15.2,290.5,33.2,925.0,5013.0,5.0,0,
115200,1859.2,14.0,290.5,52.7,925.0,5013.0,5.0,0,
115300,1860.5,14.4,290.5,37.1,925.0,5013.0,5.0,0,
115400,1860.3,14.9,266.9,35.2,925.0,5013.0,5.0,0,
115500,1859.2,13.0,229.1,117.2,925.0,5013.0,5.0,0,
115600,1860.0,15.9,200.3,109.4,925.0,5013.0,5.0,0,
115700,1857.6,14.3,170.1,68.4,925.0,5013.0,5.0,0,
115900,1859.0,14.2,86.9,64.5,925.0,5013.0,5.0,0,
116000,1829.9,410.5,91.6,39.1,1333.0,11950.0,26.0,0,
116100,1912.4,378.3,181.8,33.2,1713.0,10492.0,16.0,1,
116200,1882.0,296.0,226.1,33.2,1932.0,8853.0,14.0,1,
116300,1829.7,344.9,257.0,33.2,1039.0,6865.0,5.0,0,
116400,1831.3,234.2,277.4,33.2,987.0,6600.0,5.0,0,
116500,1855.1,241.3,296.7,33.2,938.0,5412.0,5.0,0,
116600,1854.0,52.3,309.3,33.2,900.0,5545.0,5.0,0,
116700,1866.5,16.1,309.4,33.2,900.0,5545.0,5.0,0,
116900,1859.8,14.5,309.4,33.2,900.0,5545.0,5.0,0,
117000,1860.4,14.1,296.1,33.2,900.0,5545.0,5.0,0,
117100,1861.3,16.5,250.8,99.6,900.0,5545.0,5.0,0,
117200,1860.2,15.1,211.7,99.6,900.0,5545.0,5.0,0,
117300,1859.9,13.7,173.1,76.2,900.0,5545.0,5.0,0,
117400,1859.4,16.7,138.2,66.4,900.0,5545.0,5.0,0,
117500,1858.8,13.7,89.4,62.5,900.0,5545.0,5.0,0,
117600,1900.3,391.8,65.6,62.5,1383.0,11326.0,8.0,1,
117700,1820.1,303.4,158.6,33.2,1189.0,8277.0,6.0,1,
117900,1887.3,247.7,232.8,33.2,1022.0,6451.0,5.0,0,
118000,1863.3,240.6,251.2,33.2,935.0,6424.0,5.0,0,
118100,1851.5,304.3,268.5,33.2,962.0,5965.0,5.0,0,
118200,1858.8,79.7,285.4,33.2,878.0,5363.0,5.0,0,
118300,1867.5,19.2,285.7,33.2,878.0,5363.0,5.0,0,
118400,1860.4,14.1,285.7,33.2,878.0,5363.0,5.0,0,
118500,1862.5,14.1,285.7,33.2,878.0,5363.0,5.0,0,
118600,1861.2,15.7,278.5,33.2,878.0,5363.0,5.0,0,
118700,1860.4,14.7,238.2,62.5,878.0,5363.0,5.0,0,
118900,1859.8,16.2,166.6,91.8,878.0,5363.0,5.0,0,
119000,1859.5,19.3,137.2,85.9,878.0,5363.0,5.0,0,
119100,1858.0,15.3,99.0,89.8,878.0,5363.0,5.0,0,
119200,1857.3,299.6,21.4,85.9,1221.0,9748.0,7.0,1,
119300,1877.5,274.7,140.9,35.2,1254.0,8367.0,7.0,1,
119400,1842.2,239.4,177.6,35.2,1240.0,7540.0,5.0,0,
119500,1842.0,304.0,207.9,33.2,1036.0,6528.0,5.0,0,
119600,1861.2,210.3,230.4,33.2,925.0,5492.0,5.0,0,
119700,1871.3,228.5,252.5,33.2,934.0,5174.0,5.0,0,
119900,1843.5,20.9,271.2,33.2,934.0,5174.0,5.0,0,
120000,1859.2,14.6,271.2,46.9,934.0,5174.0,5.0,0,
120100,1863.2,15.3,271.2,46.9,934.0,5174.0,5.0,0,
120200,1861.8,14.7,271.2,37.1,934.0,5174.0,5.0,0,
120300,1861.3,13.5,232.4,44.9,934.0,5174.0,5.0,0,
120400,1861.7,15.9,205.9,99.6,934.0,5174.0,5.0,0,
120500,1861.2,13.7,175.3,93.8,934.0,5174.0,5.0,0,
120600,1861.0,14.8,144.4,128.9,934.0,5174.0,5.0,0,
120700,1859.8,15.4,100.7,87.9,934.0,5174.0,5.0,0,
120900,1858.2,346.0,137.7,41.0,1229.0,8493.0,7.0,1,
121000,1871.0,263.3,185.1,35.2,1226.0,7856.0,5.0,0,
121100,1890.1,253.5,218.6,33.2,1011.0,6000.0,5.0,0,
121200,1850.7,241.6,242.6,33.2,977.0,5531.0,5.0,0,
121300,1840.4,261.4,258.7,33.2,984.0,5451.0,5.0,0,
121400,1846.0,125.7,277.2,33.2,874.0,4501.0,5.0,0,
121500,1875.0,19.7,279.9,50.8,874.0,4501.0,5.0,0,
121600,1860.3,17.7,279.9,62.5,874.0,4501.0,5.0,0,
121700,1866.6,15.5,279.9,52.7,874.0,4501.0,5.0,0,
121900,1865.4,17.0,244.6,44.9,874.0,4501.0,5.0,0,
122000,1863.7,17.6,211.0,93.8,874.0,4501.0,5.0,0,
122100,1861.6,17.8,176.1,85.9,874.0,4501.0,5.0,0,
122200,1861.3,19.5,141.4,74.2,874.0,4501.0,5.0,0,
122300,1860.4,16.8,108.9,76.2,874.0,4501.0,5.0,0,
122400,1859.5,364.5,42.7,62.5,1720.0,11762.0,17.0,1,
122500,2055.6,190.4,178.1,62.5,1045.0,6679.0,12.0,1,
122600,1866.6,13.2,186.8,62.5,1045.0,6679.0,12.0,1,
122700,1860.0,5.2,186.8,56.6,1045.0,6679.0,12.0,1,
122900,1860.3,3.6,186.8,54.7,1045.0,6679.0,12.0,1,
123000,1860.2,4.5,186.8,48.8,1045.0,6679.0,12.0,1,
123100,1859.7,3.9,186.7,187.5,1045.0,6679.0,12.0,1,
123200,1860.2,3.4,186.6,175.8,1045.0,6679.0,12.0,1,
123300,1850.3,25.9,186.7,162.1,1045.0,6679.0,12.0,1,
123400,1835.4,24.9,187.1,85.9,1045.0,6679.0,12.0,1,
123500,1838.1,21.5,59.1,76.2,1045.0,6679.0,12.0,1,
123600,1841.2,20.9,16.5,76.2,1045.0,6679.0,12.0,1,
123700,1840.8,270.8,18.6,76.2,1135.0,8451.0,5.0,0,
123900,1825.5,179.5,147.2,35.2,950.0,5348.0,6.0,1,
124000,1823.2,139.4,173.9,35.2,895.0,5163.0,6.0,1,
124100,1851.2,27.8,178.9,62.5,895.0,5163.0,6.0,1,
124200,1848.3,21.2,179.0,64.5,895.0,5163.0,6.0,1,
124300,1853.8,24.7,179.1,64.5,895.0,5163.0,6.0,1,
124400,1855.5,14.2,179.3,62.5,895.0,5163.0,6.0,1,
124500,1914.5,582.0,198.0,72.3,2073.0,13137.0,17.0,1,
124600,1919.6,449.0,297.2,62.5,1621.0,12384.0,25.0,0,
124700,1822.6,603.5,353.6,62.5,2740.0,21152.0,11.0,1,
124900,1755.5,38.5,429.2,64.5,2740.0,21152.0,11.0,1,
125000,1851.8,116.0,419.1,62.5,2740.0,21152.0,11.0,1,
125100,1885.9,208.7,424.1,62.5,769.0,4416.0,6.0,1,
125200,1865.8,141.9,432.8,62.5,893.0,4412.0,6.0,1,
125300,1834.7,166.5,439.4,39.1,973.0,4570.0,6.0,1,
125400,1837.5,234.9,450.0,64.5,994.0,4702.0,6.0,1,
125500,1841.3,163.5,449.4,66.4,910.0,4486.0,6.0,1,
125600,1909.6,178.6,399.8,82.0,914.0,4399.0,6.0,1,
125700,1849.4,24.0,355.5,66.4,914.0,4399.0,6.0,1,
125900,1859.8,13.9,214.4,66.4,914.0,4399.0,6.0,1,
126000,1860.6,13.6,214.4,68.4,914.0,4399.0,6.0,1,
126100,1860.2,22.5,199.9,74.2,914.0,4399.0,6.0,1,
126200,1877.6,18.8,180.4,85.9,914.0,4399.0,6.0,1,
126300,1870.8,15.9,163.5,99.6,914.0,4399.0,6.0,1,
126400,1866.7,15.0,131.3,99.6,914.0,4399.0,6.0,1,
126500,1863.6,14.9,103.1,87.9,914.0,4399.0,6.0,1,
126600,1855.7,15.3,60.8,97.7,914.0,4399.0,6.0,1,
126700,1851.3,352.3,110.9,39.1,1921.0,10306.0,20.0,1,
126900,1855.9,337.4,233.0,33.2,1379.0,9522.0,17.0,1,
127000,1895.7,303.4,268.4,33.2,1326.0,9232.0,17.0,1,
127100,1865.4,341.3,294.8,33.2,1069.0,7353.0,5.0,0,
127200,1833.5,291.6,313.8,33.2,991.0,6731.0,5.0,0,
127300,1855.8,39.1,326.4,33.2,999.0,6836.0,5.0,0,
127400,1856.7,14.8,326.3,33.2,999.0,6836.0,5.0,0,
127500,1862.9,14.1,326.3,33.2,999.0,6836.0,5.0,0,
127600,1865.4,17.3,326.4,33.2,999.0,6836.0,5.0,0,
127700,1866.7,16.3,307.6,33.2,999.0,6836.0,5.0,0,
127900,1860.1,16.4,229.5,74.2,999.0,6836.0,5.0,0,
128000,1858.8,14.4,186.9,74.2,999.0,6836.0,5.0,0,
128100,1859.8,16.1,141.5,72.3,999.0,6836.0,5.0,0,
128200,1859.4,20.8,91.8,68.4,999.0,6836.0,5.0,0,
128300,1872.6,395.8,93.3,46.9,1590.0,11473.0,28.0,0,
128400,1864.8,327.4,172.9,35.2,1290.0,9371.0,7.0,1,
128500,1840.5,331.0,214.8,33.2,1177.0,8277.0,5.0,0,
128600,1859.0,314.3,249.2,33.2,1097.0,7625.0,5.0,0,
128700,1847.1,283.1,275.1,33.2,1038.0,6837.0,5.0,0,
128900,1828.2,53.0,310.1,33.2,965.0,6618.0,5.0,0,
129000,1861.2,16.1,310.1,33.2,965.0,6618.0,5.0,0,
129100,1860.5,14.8,310.1,33.2,965.0,6618.0,5.0,0,
129200,1861.1,14.0,310.1,33.2,965.0,6618.0,5.0,0,
129300,1861.5,14.8,296.2,33.2,965.0,6618.0,5.0,0,
129400,1863.0,17.8,257.9,84.0,965.0,6618.0,5.0,0,
129500,1863.8,16.6,224.4,95.7,965.0,6618.0,5.0,0,
129600,1863.3,15.5,185.6,99.6,965.0,6618.0,5.0,0,
129700,1862.5,13.7,144.5,89.8,965.0,6618.0,5.0,0,
129900,1868.1,322.0,59.3,54.7,1144.0,7712.0,5.0,0,
130000,1870.6,246.9,128.5,35.2,1033.0,6786.0,6.0,1,
130100,1897.6,235.6,165.6,35.2,889.0,5278.0,5.0,0,
130200,1855.9,190.4,191.9,33.2,847.0,4833.0,6.0,1,
130300,1842.4,214.3,209.3,33.2,867.0,5008.0,6.0,1,
130400,1842.4,229.5,231.4,64.5,905.0,4836.0,6.0,1,
130500,1855.5,47.8,244.4,64.5,867.0,4800.0,6.0,1,
130600,1867.9,16.7,244.5,64.5,867.0,4800.0,6.0,1,
130700,1863.5,15.4,244.5,64.5,867.0,4800.0,6.0,1,
130900,1864.0,16.3,237.9,62.5,867.0,4800.0,6.0,1,
131000,1863.0,14.1,208.9,91.8,867.0,4800.0,6.0,1,
131100,1863.3,15.2,180.8,84.0,867.0,4800.0,6.0,1,
131200,1865.1,19.9,152.7,76.2,867.0,4800.0,6.0,1,
131300,1860.5,14.6,127.9,68.4,867.0,4800.0,6.0,1,
131400,1861.8,16.2,81.2,62.5,867.0,4800.0,6.0,1,
131500,1909.1,208.7,46.4,62.5,1024.0,7323.0,7.0,1,
131600,1834.4,42.1,91.7,37.1,919.0,5560.0,7.0,1,
131700,1852.4,24.1,91.9,35.2,919.0,5560.0,7.0,1,
131900,1861.9,19.0,92.3,35.2,919.0,5560.0,7.0,1,
132000,1854.4,17.1,92.4,35.2,919.0,5560.0,7.0,1,
132100,1852.4,15.5,92.5,52.7,919.0,5560.0,7.0,1,
132200,1851.8,13.8,92.4,66.4,919.0,5560.0,7.0,1,
132300,1853.7,14.0,92.3,70.3,919.0,5560.0,7.0,1,
132400,1855.0,17.2,92.3,84.0,919.0,5560.0,7.0,1,
132500,1857.4,11.9,81.6,87.9,919.0,5560.0,7.0,1,
132600,1861.9,361.6,66.7,48.8,1132.0,9732.0,8.0,1,
132700,1827.8,236.1,138.8,35.2,1167.0,7441.0,7.0,1,
132900,1879.4,227.4,210.7,33.2,1105.0,6684.0,5.0,0,
133000,1837.5,227.2,230.3,33.2,999.0,5615.0,6.0,1,
133100,1831.4,74.9,250.6,33.2,923.0,4942.0,6.0,1,
133200,1861.3,18.9,250.9,33.2,923.0,4942.0,6.0,1,
133300,1859.3,15.7,250.9,33.2,923.0,4942.0,6.0,1,
133400,1862.2,14.0,251.0,35.2,923.0,4942.0,6.0,1,
133500,1863.2,15.0,251.0,35.2,923.0,4942.0,6.0,1,
133600,1863.7,16.1,242.9,62.5,923.0,4942.0,6.0,1,
133700,1863.1,17.7,210.1,91.8,923.0,4942.0,6.0,1,
133900,1861.9,16.4,137.8,74.2,923.0,4942.0,6.0,1,
134000,1861.4,14.7,101.3,62.5,923.0,4942.0,6.0,1,
134100,1854.5,320.6,21.3,80.1,1453.0,11317.0,8.0,1,
134200,1895.3,309.6,144.6,35.2,1275.0,7315.0,6.0,1,
134300,1856.7,250.5,187.8,33.2,1197.0,7590.0,5.0,0,
134400,1846.1,285.5,220.2,33.2,1063.0,5751.0,5.0,0,
134500,1839.3,199.6,239.0,33.2,955.0,5470.0,5.0,0,
134600,1864.0,219.8,258.6,33.2,980.0,5266.0,5.0,0,
134700,1866.7,114.5,276.3,33.2,958.0,5277.0,6.0,1,
134900,1857.6,14.2,277.3,35.2,958.0,5277.0,6.0,1,
135000,1860.7,14.4,277.3,35.2,958.0,5277.0,6.0,1,
135100,1863.0,16.4,277.2,37.1,958.0,5277.0,6.0,1,
135200,1863.3,14.4,237.3,62.5,958.0,5277.0,6.0,1,
135300,1862.6,15.1,205.0,105.5,958.0,5277.0,6.0,1,
135400,1862.2,17.5,169.7,66.4,958.0,5277.0,6.0,1,
135500,1862.2,14.1,142.1,68.4,958.0,5277.0,6.0,1,
135600,1860.2,14.1,102.1,91.8,958.0,5277.0,6.0,1,
135700,1860.9,302.7,30.6,80.1,1373.0,10954.0,8.0,1,
135900,1831.6,225.2,176.7,35.2,1166.0,6702.0,6.0,1,
136000,1891.0,242.8,206.4,33.2,993.0,5653.0,5.0,0,
136100,1852.9,206.1,227.0,33.2,890.0,4888.0,5.0,0,
136200,1847.8,231.5,238.9,33.2,846.0,4220.0,5.0,0,
136300,1856.7,129.6,255.9,33.2,773.0,4522.0,5.0,0,
136400,1871.2,19.1,258.8,33.2,773.0,4522.0,5.0,0,
136500,1856.9,16.2,258.8,35.2,773.0,4522.0,5.0,0,
136600,1863.2,15.4,258.8,35.2,773.0,4522.0,5.0,0,
136700,1861.9,14.3,258.8,33.2,773.0,4522.0,5.0,0,
136900,1860.3,15.1,190.0,99.6,773.0,4522.0,5.0,0,
137000,1860.3,14.6,157.2,99.6,773.0,4522.0,5.0,0,
137100,1860.6,13.8,125.6,66.4,773.0,4522.0,5.0,0,
137200,1859.8,16.5,100.9,62.5,773.0,4522.0,5.0,0,
137300,1858.6,231.6,42.3,70.3,773.0,4522.0,5.0,0,
137400,1891.9,308.4,142.0,37.1,1758.0,10704.0,22.0,1,
137500,1828.9,305.9,192.7,35.2,1139.0,6776.0,6.0,1,
137600,1838.6,233.5,217.5,33.2,1040.0,5466.0,5.0,0,
137700,1862.6,228.2,239.7,33.2,910.0,5305.0,6.0,1,
137900,1846.8,163.4,271.6,39.1,777.0,3998.0,5.0,0,
138000,1845.6,22.8,276.9,64.5,777.0,3998.0,5.0,0,
138100,1855.5,15.1,276.9,64.5,777.0,3998.0,5.0,0,
138200,1862.4,13.9,276.9,66.4,777.0,3998.0,5.0,0,
138300,1862.3,13.8,276.9,66.4,777.0,3998.0,5.0,0,
138400,1862.5,14.4,238.2,64.5,777.0,3998.0,5.0,0,
138500,1861.1,13.7,199.7,68.4,777.0,3998.0,5.0,0,
138600,1860.8,13.7,172.4,70.3,777.0,3998.0,5.0,0,
138700,1861.5,15.3,139.8,78.1,777.0,3998.0,5.0,0,
138900,1860.1,113.8,56.6,62.5,777.0,3998.0,5.0,0,
139000,1850.4,337.5,112.6,39.1,1227.0,8002.0,6.0,1,
139100,1874.0,237.0,163.7,37.1,1189.0,6867.0,5.0,0,
139200,1894.8,213.4,196.3,35.2,982.0,4910.0,5.0,0,
139300,1845.0,217.7,216.7,33.2,901.0,4270.0,5.0,0,
139400,1842.4,185.4,230.7,46.9,896.0,4394.0,5.0,0,
139500,1842.7,194.6,246.7,64.5,839.0,4135.0,5.0,0,
139600,1871.8,25.7,254.6,64.5,839.0,4135.0,5.0,0,
139700,1855.4,14.6,254.6,64.5,839.0,4135.0,5.0,0,
139900,1861.3,15.3,254.6,66.4,839.0,4135.0,5.0,0,
140000,1860.9,14.0,229.1,64.5,839.0,4135.0,5.0,0,
140100,1860.5,15.7,195.9,62.5,839.0,4135.0,5.0,0,
140200,1861.8,14.9,163.1,62.5,839.0,4135.0,5.0,0,
140300,1861.1,13.7,134.9,62.5,839.0,4135.0,5.0,0,
140400,1860.4,15.5,109.1,66.4,839.0,4135.0,5.0,0,
140500,1860.6,16.2,65.2,74.2,839.0,4135.0,5.0,0,
140600,1909.8,324.5,114.9,35.2,1667.0,11000.0,29.0,0,
140700,1824.2,350.4,174.5,35.2,1092.0,7187.0,6.0,1,
140900,1848.9,208.8,225.2,33.2,868.0,4877.0,5.0,0,
141000,1886.7,175.8,245.1,33.2,878.0,4798.0,5.0,0,
141100,1859.7,177.3,257.8,64.5,832.0,4743.0,5.0,0,
141200,1861.7,34.0,268.6,64.5,868.0,4920.0,5.0,0,
141300,1858.4,15.6,268.6,64.5,868.0,4920.0,5.0,0,
141400,1862.0,15.3,268.6,64.5,868.0,4920.0,5.0,0,
141500,1862.3,13.7,268.6,64.5,868.0,4920.0,5.0,0,
141600,1862.3,28.1,243.0,62.5,868.0,4920.0,5.0,0,
141700,1883.2,18.4,205.2,97.7,868.0,4920.0,5.0,0,
141900,1861.9,15.9,148.1,62.5,868.0,4920.0,5.0,0,
142000,1862.2,14.5,112.0,62.5,868.0,4920.0,5.0,0,
142100,1861.1,13.7,78.3,62.5,868.0,4920.0,5.0,0,
142200,1844.0,409.5,85.8,44.9,1940.0,11485.0,23.0,1,
142300,1867.2,363.4,181.1,35.2,1682.0,9451.0,15.0,1,
142400,1855.9,254.9,221.0,35.2,1239.0,7711.0,5.0,0,
142500,1843.0,289.0,240.3,33.2,994.0,6076.0,5.0,0,
142600,1851.0,270.4,262.9,33.2,972.0,6400.0,5.0,0,
142700,1845.6,199.1,280.1,33.2,902.0,5779.0,5.0,0,
142900,1866.0,17.1,293.4,33.2,902.0,5779.0,5.0,0,
143000,1861.0,14.7,293.4,35.2,902.0,5779.0,5.0,0,
143100,1861.3,15.8,293.3,37.1,902.0,5779.0,5.0,0,
143200,1860.8,14.5,281.4,37.1,902.0,5779.0,5.0,0,
143300,1859.0,14.5,231.8,95.7,902.0,5779.0,5.0,0,
143400,1858.1,15.1,194.3,70.3,902.0,5779.0,5.0,0,
143500,1859.5,15.0,170.1,99.6,902.0,5779.0,5.0,0,
143600,1858.4,15.4,132.5,82.0,902.0,5779.0,5.0,0,
143700,1859.8,15.0,89.5,82.0,902.0,5779.0,5.0,0,
143900,1803.4,433.0,194.1,33.2,1261.0,9315.0,5.0,0,
144000,1853.0,314.6,236.0,33.2,1174.0,8132.0,5.0,0,
144100,1888.3,248.4,262.3,33.2,1030.0,6717.0,5.0,0,
144200,1864.7,241.0,279.5,33.2,928.0,6124.0,5.0,0,
144300,1841.2,270.5,294.4,33.2,819.0,4943.0,5.0,0,
144400,1838.9,72.3,305.0,33.2,815.0,4683.0,5.0,0,
144500,1861.1,18.0,305.4,33.2,815.0,4683.0,5.0,0,
144600,1859.8,15.2,305.4,33.2,815.0,4683.0,5.0,0,
144700,1863.4,14.8,305.4,35.2,815.0,4683.0,5.0,0,
144900,1859.9,14.9,236.4,62.5,815.0,4683.0,5.0,0,
145000,1860.5,15.5,194.7,62.5,815.0,4683.0,5.0,0,
145100,1860.3,15.6,157.5,82.0,815.0,4683.0,5.0,0,
145200,1860.5,15.3,124.7,74.2,815.0,4683.0,5.0,0,
145300,1860.5,19.0,83.8,68.4,815.0,4683.0,5.0,0,
145400,1862.5,409.6,24.0,70.3,1450.0,12649.0,6.0,1,
145500,1905.2,320.7,168.8,33.2,1351.0,9144.0,16.0,1,
145600,1845.6,246.5,203.1,33.2,1049.0,7115.0,5.0,0,
145700,1837.4,280.7,227.1,33.2,905.0,5560.0,5.0,0,
145900,1872.4,212.3,259.5,33.2,782.0,4747.0,5.0,0,
146000,1888.0,98.0,276.6,50.8,861.0,5334.0,5.0,0,
146100,1831.6,22.0,277.3,64.5,861.0,5334.0,5.0,0,
146200,1857.1,38.8,277.3,62.5,861.0,5334.0,5.0,0,
146300,1813.6,24.3,277.5,62.5,861.0,5334.0,5.0,0,
146400,1870.8,16.0,277.6,62.5,861.0,5334.0,5.0,0,
146500,1849.5,10.4,220.4,43.0,861.0,5334.0,5.0,0,
146600,1858.0,3.9,189.8,31.3,861.0,5334.0,5.0,0,
146700,1860.5,3.5,160.5,62.5,861.0,5334.0,5.0,0,
146900,1860.4,11.5,100.2,109.4,861.0,5334.0,5.0,0,
147000,1863.1,234.3,29.9,168.0,1556.0,9325.0,5.0,0,
147100,1861.4,271.5,122.2,35.2,766.0,5114.0,5.0,0,
147200,1851.0,186.5,147.5,33.2,571.0,4618.0,5.0,0,
147300,1888.3,190.4,167.0,33.2,539.0,3653.0,27.0,0,
147400,1859.5,194.1,183.6,33.2,815.0,5399.0,6.0,1,
147500,1865.6,186.3,198.2,33.2,728.0,4671.0,5.0,0,
147600,1850.6,108.0,209.5,33.2,272.0,3255.0,5.0,0,
147700,1862.0,20.2,210.9,33.2,272.0,3255.0,5.0,0,
147900,1877.8,23.7,211.4,35.2,272.0,3255.0,5.0,0,
148000,1850.6,14.6,211.3,35.2,272.0,3255.0,5.0,0,
148100,1858.7,14.6,173.8,29.3,272.0,3255.0,5.0,0,
148200,1859.2,14.8,152.9,31.3,272.0,3255.0,5.0,0,
148300,1859.8,15.7,130.7,52.7,272.0,3255.0,5.0,0,
148400,1855.3,15.0,106.0,85.9,272.0,3255.0,5.0,0,
148500,1862.0,16.6,75.0,62.5,272.0,3255.0,5.0,0,
148600,1861.6,250.9,31.8,62.5,272.0,3255.0,5.0,0,
148700,1909.2,302.5,127.9,35.2,1288.0,9004.0,23.0,1,
148900,1841.7,188.6,192.2,33.2,714.0,5085.0,7.0,1,
149000,1856.0,62.6,199.5,33.2,714.0,5085.0,7.0,1,
149100,1852.7,12.1,200.3,33.2,714.0,5085.0,7.0,1,
149200,1855.9,9.8,200.3,33.2,714.0,5085.0,7.0,1,
149300,1859.9,3.8,200.3,35.2,714.0,5085.0,7.0,1,
149400,1860.1,3.6,200.2,68.4,714.0,5085.0,7.0,1,
149500,1860.1,3.4,200.2,220.7,714.0,5085.0,7.0,1,
149600,1860.3,3.6,200.1,224.6,714.0,5085.0,7.0,1,
149700,1860.3,3.6,154.9,201.2,714.0,5085.0,7.0,1,
149900,1860.7,3.6,57.4,209.0,714.0,5085.0,7.0,1,
150000,1859.8,3.7,20.2,214.8,714.0,5085.0,7.0,1,
150100,1861.2,3.6,8.6,189.5,714.0,5085.0,7.0,1,
150200,1859.9,10.8,6.3,197.3,714.0,5085.0,7.0,1,
150300,1861.6,17.3,11.9,218.8,714.0,5085.0,7.0,1,
150400,1869.1,12.0,24.5,228.5,714.0,5085.0,7.0,1,
150500,1858.2,7.1,25.5,226.6,714.0,5085.0,7.0,1,
150600,1856.5,12.3,25.8,226.6,714.0,5085.0,7.0,1,
150700,1857.4,14.5,26.4,224.6,714.0,5085.0,7.0,1,
150900,1860.4,4.4,31.0,224.6,714.0,5085.0,7.0,1,
151000,1860.8,3.3,31.0,226.6,714.0,5085.0,7.0,1,
151100,1861.3,3.9,31.0,228.5,714.0,5085.0,7.0,1,
151200,1860.3,3.0,31.0,232.4,714.0,5085.0,7.0,1,
151300,1860.5,3.4,28.9,234.4,714.0,5085.0,7.0,1,
151400,1860.8,3.5,19.4,226.6,714.0,5085.0,7.0,1,
151500,1860.0,3.9,18.0,226.6,714.0,5085.0,7.0,1,
151600,1860.6,3.8,17.6,232.4,714.0,5085.0,7.0,1,
151700,1860.4,2.9,16.8,193.4,714.0,5085.0,7.0,1,
151900,1860.1,7.7,7.1,214.8,714.0,5085.0,7.0,1,
152000,1856.0,12.3,7.8,216.8,714.0,5085.0,7.0,1,
152100,1857.7,14.9,10.0,205.1,714.0,5085.0,7.0,1,
152200,1863.3,16.7,18.1,195.3,714.0,5085.0,7.0,1,
152300,1868.3,9.4,28.8,224.6,27.0,174.0,26.0,0,
152400,1862.2,11.1,30.3,226.6,28.0,173.0,29.0,0,
152500,1856.9,3.6,30.5,226.6,28.0,173.0,29.0,0,
152600,1861.1,3.4,30.5,226.6,28.0,173.0,29.0,0,
152700,1861.2,3.2,30.5,209.0,28.0,173.0,29.0,0,
152900,1860.7,3.6,29.9,189.5,28.0,173.0,29.0,0,
153000,1860.3,3.6,29.8,205.1,28.0,173.0,29.0,0,
153100,1861.8,3.4,29.1,236.3,28.0,173.0,29.0,0,
153200,1861.6,3.2,24.9,238.3,28.0,173.0,29.0,0,
153300,1860.5,3.5,10.9,228.5,28.0,173.0,29.0,0,
153400,1861.6,3.4,5.1,236.3,28.0,173.0,29.0,0,
153500,1861.4,10.7,6.1,228.5,28.0,173.0,29.0,0,
153600,1861.2,13.8,14.2,224.6,28.0,173.0,29.0,0,
153700,1867.2,17.9,24.6,226.6,19.0,156.0,21.0,0,
153900,1855.3,11.0,28.6,226.6,19.0,156.0,21.0,0,
154000,1856.5,10.7,29.1,224.6,19.0,156.0,21.0,0,
154100,1857.8,4.4,29.8,224.6,19.0,156.0,21.0,0,
154200,1860.5,4.0,29.8,224.6,19.0,156.0,21.0,0,
154300,1860.8,3.3,29.8,226.6,19.0,156.0,21.0,0,
154400,1861.4,3.6,29.8,234.4,19.0,156.0,21.0,0,
154500,1860.2,3.5,29.4,234.4,19.0,156.0,21.0,0,
154600,1860.8,3.4,26.5,238.3,19.0,156.0,21.0,0,
154700,1860.3,3.6,17.1,253.9,19.0,156.0,21.0,0,
154900,1860.4,3.1,9.3,218.8,19.0,156.0,21.0,0,
155000,1861.0,3.5,7.5,230.5,19.0,156.0,21.0,0,
155100,1861.5,10.0,9.9,222.7,19.0,156.0,21.0,0,
155200,1866.5,14.2,18.2,228.5,27.0,148.0,23.0,0,
155300,1858.9,8.4,19.8,226.6,27.0,148.0,23.0,0,
155400,1856.1,9.2,20.2,226.6,27.0,148.0,23.0,0,
155500,1857.7,9.3,21.2,222.7,27.0,148.0,23.0,0,
155600,1861.3,21.8,24.0,195.3,27.0,148.0,23.0,0,
155700,1865.6,4.7,28.1,224.6,21.0,148.0,16.0,0,
155900,1861.2,3.3,28.1,226.6,21.0,148.0,16.0,0,
156000,1860.8,3.4,28.1,228.5,21.0,148.0,16.0,0,
156100,1861.3,3.7,26.6,222.7,21.0,148.0,16.0,0,
156200,1860.6,3.7,21.8,189.5,21.0,148.0,16.0,0,
156300,1860.3,3.4,20.4,240.2,21.0,148.0,16.0,0,
156400,1861.4,3.7,20.0,230.5,21.0,148.0,16.0,0,
156500,1860.8,3.7,19.0,205.1,21.0,148.0,16.0,0,
156600,1860.4,3.1,15.2,203.1,21.0,148.0,16.0,0,
156700,1861.0,12.3,4.2,205.1,21.0,148.0,16.0,0,
156900,1856.1,19.3,11.3,185.5,21.0,148.0,16.0,0,
157000,1861.1,24.1,18.4,191.4,21.0,148.0,16.0,0,
157100,1865.9,13.9,24.6,224.6,32.0,201.0,12.0,0,
157200,1868.7,10.4,33.9,226.6,26.0,198.0,30.0,0,
157300,1854.0,5.4,34.1,226.6,26.0,198.0,30.0,0,
157400,1859.7,3.7,34.1,226.6,26.0,198.0,30.0,0,
157500,1860.6,3.3,34.1,224.6,26.0,198.0,30.0,0,
157600,1860.8,4.2,34.1,207.0,26.0,198.0,30.0,0,
157700,1860.7,3.4,34.0,234.4,26.0,198.0,30.0,0,
157900,1861.0,3.9,32.4,209.0,26.0,198.0,30.0,0,
158000,1860.5,3.6,28.9,201.2,26.0,198.0,30.0,0,
158100,1859.9,3.8,23.9,191.4,26.0,198.0,30.0,0,
158200,1861.8,3.7,5.5,191.4,26.0,198.0,30.0,0,
158300,1860.5,12.7,4.1,205.1,26.0,198.0,30.0,0,
158400,1859.0,17.3,9.4,218.8,26.0,198.0,30.0,0,
158500,1867.8,17.0,18.9,226.6,27.0,175.0,30.0,0,
158600,1869.0,13.2,29.1,226.6,24.0,174.0,25.0,0,
158700,1860.1,9.4,31.0,226.6,24.0,174.0,25.0,0,
158900,1857.4,6.7,31.6,224.6,24.0,174.0,25.0,0,
159000,1859.8,3.9,31.9,209.0,24.0,174.0,25.0,0,
159100,1860.4,3.2,31.9,205.1,24.0,174.0,25.0,0,
159200,1861.1,3.4,31.9,224.6,24.0,174.0,25.0,0,
159300,1860.9,4.1,31.9,220.7,24.0,174.0,25.0,0,
159400,1860.1,3.5,30.8,209.0,24.0,174.0,25.0,0,
159500,1861.6,3.9,26.0,210.9,24.0,174.0,25.0,0,
159600,1860.0,3.3,13.7,205.1,24.0,174.0,25.0,0,
159700,1861.0,3.8,8.7,195.3,24.0,174.0,25.0,0,
159900,1860.0,9.7,5.9,228.5,24.0,174.0,25.0,0,
160000,1864.7,15.5,18.1,230.5,24.0,174.0,25.0,0,
160100,1868.4,25.6,28.1,228.5,28.0,170.0,15.0,0,
160200,1862.0,12.6,33.1,226.6,28.0,170.0,15.0,0,
160300,1855.2,11.5,33.4,226.6,28.0,170.0,15.0,0,
160400,1855.3,12.8,34.2,224.6,28.0,170.0,15.0,0,
160500,1858.3,12.6,36.5,224.6,28.0,170.0,15.0,0,
160600,1861.2,4.6,37.8,224.6,28.0,170.0,15.0,0,
160700,1860.0,3.0,37.8,226.6,28.0,170.0,15.0,0,
160900,1861.0,3.8,37.8,230.5,28.0,170.0,15.0,0,
161000,1861.7,3.5,33.4,220.7,28.0,170.0,15.0,0,
161100,1861.3,4.0,25.6,201.2,28.0,170.0,15.0,0,
161200,1861.0,3.5,18.7,210.9,28.0,170.0,15.0,0,
161300,1861.0,2.8,18.1,201.2,28.0,170.0,15.0,0,
161400,1860.1,2.9,16.5,199.2,28.0,170.0,15.0,0,
161500,1860.7,4.6,10.5,199.2,28.0,170.0,15.0,0,
161600,1865.8,14.0,16.1,168.0,240.0,800.0,11.0,1,
161700,1859.1,6.9,18.8,193.4,240.0,800.0,11.0,1,
161900,1856.7,13.2,19.5,201.2,240.0,800.0,11.0,1,
162000,1859.3,16.6,21.3,212.9,240.0,800.0,11.0,1,
162100,1867.3,10.9,28.8,224.6,240.0,800.0,11.0,1,
162200,1861.0,3.7,28.8,226.6,24.0,159.0,30.0,0,
162300,1859.3,3.8,28.8,226.6,24.0,159.0,30.0,0,
162400,1859.8,3.3,28.8,226.6,24.0,159.0,30.0,0,
162500,1860.4,2.8,28.8,224.6,24.0,159.0,30.0,0,
162600,1859.8,3.4,24.2,166.0,24.0,159.0,30.0,0,
162700,1859.8,3.5,22.1,132.8,24.0,159.0,30.0,0,
162900,1859.6,4.1,21.5,132.8,24.0,159.0,30.0,0,
163000,1860.0,3.9,19.8,142.6,24.0,159.0,30.0,0,
163100,1860.9,4.1,4.2,187.5,24.0,159.0,30.0,0,
163200,1855.8,9.1,4.9,193.4,24.0,159.0,30.0,0,
163300,1855.8,14.4,6.3,136.7,24.0,159.0,30.0,0,
163400,1856.9,12.8,8.8,127.0,24.0,159.0,30.0,0,
163500,1861.3,13.6,14.9,162.1,24.0,159.0,30.0,0,
163600,1864.5,15.0,19.9,209.0,16.0,181.0,22.0,0,
163700,1867.0,13.0,28.0,226.6,27.0,160.0,28.0,0,
163900,1859.8,3.8,28.5,226.6,27.0,160.0,28.0,0,
164000,1860.7,3.9,28.4,224.6,27.0,160.0,28.0,0,
164100,1859.3,3.8,28.4,205.1,27.0,160.0,28.0,0,
164200,1860.1,3.9,28.3,218.8,27.0,160.0,28.0,0,
164300,1859.7,3.9,28.0,220.7,27.0,160.0,28.0,0,
164400,1859.7,3.8,27.3,199.2,27.0,160.0,28.0,0,
164500,1860.7,3.9,24.6,220.7,27.0,160.0,28.0,0,
164600,1860.8,3.2,20.7,224.6,27.0,160.0,28.0,0,
164700,1860.4,3.1,6.5,205.1,27.0,160.0,28.0,0,
164900,1857.7,14.0,10.3,214.8,27.0,160.0,28.0,0,
165000,1859.9,13.2,17.8,224.6,27.0,160.0,28.0,0,
165100,1868.3,20.9,28.5,226.6,34.0,223.0,29.0,0,
165200,1864.7,12.4,31.3,226.6,34.0,223.0,29.0,0,
165300,1855.0,10.9,31.6,226.6,34.0,223.0,29.0,0,
165400,1855.0,5.3,31.9,224.6,34.0,223.0,29.0,0,
165500,1861.1,3.8,31.9,222.7,34.0,223.0,29.0,0,
165600,1860.7,4.0,31.9,195.3,34.0,223.0,29.0,0,
165700,1860.9,4.2,31.9,199.2,34.0,223.0,29.0,0,
165900,1860.3,3.5,30.5,191.4,34.0,223.0,29.0,0,
166000,1861.1,3.3,26.8,201.2,34.0,223.0,29.0,0,
166100,1861.3,3.6,15.0,203.1,34.0,223.0,29.0,0,
166200,1860.2,3.2,7.6,193.4,34.0,223.0,29.0,0,
166300,1860.7,3.8,6.2,177.7,34.0,223.0,29.0,0,
166400,1861.1,21.6,8.5,216.8,34.0,223.0,29.0,0,
166500,1864.6,12.1,17.1,232.4,27.0,182.0,26.0,0,
166600,1867.1,13.4,25.2,228.5,23.0,164.0,22.0,0,
166700,1854.5,10.6,26.1,226.6,23.0,164.0,22.0,0,
166900,1857.0,22.2,28.2,222.7,23.0,164.0,22.0,0,
167000,1862.6,6.7,33.3,195.3,23.0,164.0,22.0,0,
167100,1860.5,3.8,33.3,224.6,23.0,164.0,22.0,0,
167200,1861.1,3.9,33.3,226.6,23.0,164.0,22.0,0,
167300,1861.0,3.4,33.4,230.5,23.0,164.0,22.0,0,
167400,1861.0,3.5,32.5,238.3,23.0,164.0,22.0,0,
167500,1861.4,3.4,28.9,238.3,23.0,164.0,22.0,0,
167600,1860.9,3.9,22.3,230.5,23.0,164.0,22.0,0,
167700,1860.0,3.4,21.2,199.2,23.0,164.0,22.0,0,
167900,1860.3,3.3,18.3,183.6,23.0,164.0,22.0,0,
168000,1863.9,13.1,12.6,212.9,23.0,164.0,22.0,0,
168100,1855.3,9.1,14.3,224.6,23.0,164.0,22.0,0,
168200,1854.0,15.9,15.1,224.6,23.0,164.0,22.0,0,
168300,1855.6,20.4,17.3,220.7,23.0,164.0,22.0,0,
168400,1860.3,22.8,22.6,212.9,23.0,164.0,22.0,0,
168500,1870.3,13.0,35.3,224.6,35.0,224.0,25.0,0,
168600,1868.3,8.2,41.3,226.6,38.0,220.0,24.0,0,
168700,1860.3,4.3,41.3,226.6,38.0,220.0,24.0,0,
168900,1860.6,3.8,41.3,224.6,38.0,220.0,24.0,0,
169000,1860.8,3.7,39.6,224.6,38.0,220.0,24.0,0,
169100,1860.9,3.4,39.1,199.2,38.0,220.0,24.0,0,
169200,1860.9,3.6,38.8,189.5,38.0,220.0,24.0,0,
169300,1860.6,4.0,37.8,199.2,38.0,220.0,24.0,0,
169400,1860.8,3.4,34.8,191.4,38.0,220.0,24.0,0,
169500,1860.1,3.7,21.9,201.2,38.0,220.0,24.0,0,
169600,1861.0,10.7,4.3,199.2,38.0,220.0,24.0,0,
169700,1854.2,13.1,6.1,164.1,38.0,220.0,24.0,0,
169900,1858.6,16.6,17.9,193.4,38.0,220.0,24.0,0,
170000,1864.0,29.7,26.2,226.6,26.0,219.0,30.0,0,
170100,1871.1,23.5,34.1,226.6,25.0,215.0,27.0,0,
170200,1861.4,8.0,38.3,226.6,25.0,215.0,27.0,0,
170300,1858.1,4.1,38.4,226.6,25.0,215.0,27.0,0,
170400,1860.1,3.3,38.4,224.6,25.0,215.0,27.0,0,
170500,1860.5,3.4,38.4,207.0,25.0,215.0,27.0,0,
170600,1860.5,3.5,38.4,191.4,25.0,215.0,27.0,0,
170700,1860.5,3.5,38.2,191.4,25.0,215.0,27.0,0,
170900,1860.2,4.0,34.3,234.4,25.0,215.0,27.0,0,
171000,1859.5,3.9,28.4,234.4,25.0,215.0,27.0,0,
171100,1860.6,4.6,18.1,197.3,25.0,215.0,27.0,0,
171200,1860.6,9.3,5.0,152.3,25.0,215.0,27.0,0,
171300,1854.4,12.3,8.4,169.9,25.0,215.0,27.0,0,
171400,1857.7,26.4,14.4,197.3,25.0,215.0,27.0,0,
171500,1862.5,15.0,21.3,224.6,25.0,195.0,26.0,0,
171600,1877.4,17.8,35.3,224.6,24.0,201.0,22.0,0,
171700,1857.8,11.3,38.2,226.6,24.0,201.0,22.0,0,
171900,1857.8,3.7,38.5,224.6,24.0,201.0,22.0,0,
172000,1860.4,3.6,38.5,214.8,24.0,201.0,22.0,0,
172100,1861.4,3.6,38.5,193.4,24.0,201.0,22.0,0,
172200,1860.5,3.6,38.5,191.4,24.0,201.0,22.0,0,
172300,1860.8,3.8,37.9,201.2,24.0,201.0,22.0,0,
172400,1861.1,3.0,36.0,210.9,24.0,201.0,22.0,0,
172500,1859.9,3.3,32.4,212.9,24.0,201.0,22.0,0,
172600,1860.3,3.9,16.2,212.9,24.0,201.0,22.0,0,
172700,1860.7,4.2,7.1,169.9,24.0,201.0,22.0,0,
172900,1861.5,73.2,38.9,84.0,516.0,2275.0,22.0,1,
173000,1867.4,61.3,49.4,84.0,195.0,781.0,9.0,1,
173100,1882.8,48.8,67.3,95.7,486.0,1987.0,8.0,1,
173200,1852.8,26.4,69.7,97.7,302.0,1163.0,8.0,1,
173300,1852.6,32.1,70.8,128.9,302.0,1163.0,8.0,1,
173400,1854.7,34.3,71.8,128.9,302.0,1163.0,8.0,1,
173500,1856.6,6.1,72.6,123.0,302.0,1163.0,8.0,1,
173600,1860.6,3.7,72.6,111.3,302.0,1163.0,8.0,1,
173700,1860.1,3.9,72.6,128.9,302.0,1163.0,8.0,1,
173900,1859.9,4.2,61.5,175.8,302.0,1163.0,8.0,1,
174000,1859.6,3.7,53.4,203.1,302.0,1163.0,8.0,1,
174100,1861.2,3.3,27.5,197.3,302.0,1163.0,8.0,1,
174200,1861.2,3.7,20.9,187.5,302.0,1163.0,8.0,1,
174300,1860.7,3.5,16.8,197.3,302.0,1163.0,8.0,1,
174400,1861.2,4.1,11.6,197.3,302.0,1163.0,8.0,1,
174500,1890.1,160.8,62.0,41.0,766.0,4378.0,8.0,1,
174600,1852.9,142.8,87.8,37.1,639.0,3349.0,7.0,1,
174700,1862.7,127.7,107.3,37.1,548.0,2577.0,30.0,0,
174900,1866.8,94.0,127.9,48.8,548.0,2577.0,30.0,0,
175000,1849.6,85.1,133.8,33.2,548.0,2577.0,30.0,0,
175100,1850.5,12.4,137.6,37.1,548.0,2577.0,30.0,0,
175200,1859.8,3.6,137.6,62.5,548.0,2577.0,30.0,0,
175300,1860.1,4.8,137.6,62.5,548.0,2577.0,30.0,0,
175400,1860.1,4.3,137.6,50.8,548.0,2577.0,30.0,0,
175500,1860.3,3.3,122.9,52.7,548.0,2577.0,30.0,0,
175600,1860.1,4.1,106.1,203.1,548.0,2577.0,30.0,0,
175700,1860.6,3.7,86.3,205.1,548.0,2577.0,30.0,0,
175900,1860.4,3.7,51.0,209.0,548.0,2577.0,30.0,0,
176000,1860.6,3.1,32.7,228.5,548.0,2577.0,30.0,0,
176100,1872.2,232.9,60.4,43.0,963.0,6113.0,29.0,0,
176200,1880.3,187.5,109.6,35.2,874.0,5388.0,8.0,1,
176300,1872.4,133.3,128.7,35.2,433.0,3108.0,30.0,0,
176400,1834.8,121.9,139.3,33.2,433.0,3108.0,30.0,0,
176500,1848.0,117.9,146.2,33.2,433.0,3108.0,30.0,0,
176600,1856.2,110.4,152.5,33.2,433.0,3108.0,30.0,0,
176700,1857.5,20.7,158.0,33.2,433.0,3108.0,30.0,0,
176900,1860.0,4.0,158.0,33.2,433.0,3108.0,30.0,0,
177000,1859.5,3.1,158.0,35.2,433.0,3108.0,30.0,0,
177100,1860.6,4.4,146.1,39.1,433.0,3108.0,30.0,0,
177200,1860.5,3.9,113.8,222.7,433.0,3108.0,30.0,0,
177300,1860.3,3.6,91.7,240.2,433.0,3108.0,30.0,0,
177400,1860.8,4.3,74.8,236.3,433.0,3108.0,30.0,0,
177500,1862.0,3.6,60.2,222.7,433.0,3108.0,30.0,0,
177600,1860.4,4.1,41.8,218.8,433.0,3108.0,30.0,0,
177700,1907.8,260.0,60.6,56.6,1381.0,10177.0,9.0,1,
177900,1850.4,172.3,144.6,35.2,656.0,3575.0,30.0,0,
178000,1857.7,138.4,156.7,33.2,656.0,3575.0,30.0,0,
178100,1865.9,128.9,165.4,33.2,656.0,3575.0,30.0,0,
178200,1848.2,121.4,172.0,33.2,656.0,3575.0,30.0,0,
178300,1857.3,32.9,178.7,33.2,479.0,3162.0,7.0,1,
178400,1856.8,5.2,178.8,33.2,479.0,3162.0,7.0,1,
178500,1859.8,3.2,178.8,33.2,479.0,3162.0,7.0,1,
178600,1860.8,4.0,178.8,35.2,479.0,3162.0,7.0,1,
178700,1860.4,3.7,168.1,39.1,479.0,3162.0,7.0,1,
178900,1860.2,4.2,105.2,207.0,479.0,3162.0,7.0,1,
179000,1860.5,3.0,86.1,205.1,479.0,3162.0,7.0,1,
179100,1859.8,3.8,68.0,222.7,479.0,3162.0,7.0,1,
179200,1860.8,4.3,49.0,189.5,479.0,3162.0,7.0,1,
179300,1868.0,296.0,5.3,175.8,1334.0,9623.0,9.0,1,
179400,1898.3,200.3,116.8,35.2,946.0,6232.0,8.0,1,
179500,1846.3,149.1,136.9,35.2,680.0,3485.0,30.0,0,
179600,1837.0,139.4,148.8,33.2,599.0,3194.0,30.0,0,
179700,1849.9,124.8,156.3,33.2,599.0,3194.0,30.0,0,
179900,1879.8,45.3,170.7,33.2,506.0,3198.0,7.0,1,
180000,1841.8,5.2,171.3,33.2,506.0,3198.0,7.0,1,
180100,1861.1,3.6,171.3,33.2,506.0,3198.0,7.0,1,
180200,1861.1,3.4,171.3,35.2,506.0,3198.0,7.0,1,
180300,1860.3,3.4,171.3,35.2,506.0,3198.0,7.0,1,
180400,1860.5,4.4,125.2,66.4,506.0,3198.0,7.0,1,
180500,1860.4,3.8,102.9,191.4,506.0,3198.0,7.0,1,
180600,1860.2,3.9,85.0,183.6,506.0,3198.0,7.0,1,
180700,1859.2,3.9,70.2,177.7,506.0,3198.0,7.0,1,
180900,1859.7,166.9,14.1,195.3,1061.0,5981.0,5.0,0,
181000,1863.2,190.4,83.2,35.2,708.0,3951.0,30.0,0,
181100,1847.7,164.4,109.3,33.2,592.0,3156.0,30.0,0,
181200,1867.3,140.6,125.2,33.2,497.0,3133.0,30.0,0,
181300,1860.6,129.8,135.0,33.2,497.0,3133.0,30.0,0,
181400,1855.3,128.4,143.1,33.2,515.0,3179.0,7.0,1,
181500,1864.2,71.5,151.7,33.2,471.0,3216.0,7.0,1,
181600,1860.3,12.1,153.5,33.2,471.0,3216.0,7.0,1,
181700,1862.4,14.6,153.6,33.2,471.0,3216.0,7.0,1,
181900,1861.1,13.6,153.8,35.2,471.0,3216.0,7.0,1,
182000,1860.1,13.5,129.5,62.5,471.0,3216.0,7.0,1,
182100,1860.2,15.8,108.5,62.5,471.0,3216.0,7.0,1,
182200,1860.2,15.1,89.8,103.5,471.0,3216.0,7.0,1,
182300,1858.3,14.0,74.6,76.2,471.0,3216.0,7.0,1,
182400,1858.7,14.0,57.7,62.5,471.0,3216.0,7.0,1,
182500,1860.2,176.5,28.4,74.2,471.0,3216.0,7.0,1,
182600,1889.1,191.9,91.2,35.2,1012.0,5853.0,20.0,1,
182700,1838.1,188.1,115.4,33.2,689.0,4329.0,30.0,0,
182900,1861.8,137.3,146.1,33.2,644.0,4431.0,6.0,1,
183000,1888.5,139.1,157.9,33.2,567.0,3594.0,6.0,1,
183100,1864.9,117.8,166.5,33.2,567.0,3594.0,6.0,1,
183200,1844.1,20.0,169.3,33.2,567.0,3594.0,6.0,1,
183300,1860.0,13.5,169.3,33.2,567.0,3594.0,6.0,1,
183400,1860.9,13.1,169.3,33.2,567.0,3594.0,6.0,1,
183500,1860.9,13.2,169.3,33.2,567.0,3594.0,6.0,1,
183600,1860.2,15.1,143.5,48.8,567.0,3594.0,6.0,1,
183700,1860.1,14.8,124.9,85.9,567.0,3594.0,6.0,1,
183900,1860.2,14.3,87.0,62.5,567.0,3594.0,6.0,1,
184000,1860.2,13.8,63.2,68.4,567.0,3594.0,6.0,1,
184100,1860.2,92.2,34.9,66.4,567.0,3594.0,6.0,1,
184200,1853.3,215.6,84.4,35.2,1029.0,6256.0,19.0,1,
184300,1858.5,214.5,119.8,33.2,759.0,4253.0,30.0,0,
184400,1876.3,175.6,141.8,33.2,614.0,4261.0,30.0,0,
184500,1855.8,167.2,154.1,33.2,680.0,4567.0,7.0,1,
184600,1860.0,161.2,167.3,33.2,624.0,4005.0,6.0,1,
184700,1858.9,128.9,175.8,33.2,624.0,4005.0,6.0,1,
184900,1859.7,13.2,180.4,33.2,624.0,4005.0,6.0,1,
185000,1860.1,13.0,180.4,33.2,624.0,4005.0,6.0,1,
185100,1860.5,13.6,180.4,33.2,624.0,4005.0,6.0,1,
185200,1860.9,14.0,160.4,37.1,624.0,4005.0,6.0,1,
185300,1860.2,12.8,136.0,78.1,624.0,4005.0,6.0,1,
185400,1859.0,14.9,112.8,91.8,624.0,4005.0,6.0,1,
185500,1860.1,14.9,95.5,80.1,624.0,4005.0,6.0,1,
185600,1859.9,13.9,69.8,82.0,624.0,4005.0,6.0,1,
185700,1859.5,15.1,43.9,64.5,624.0,4005.0,6.0,1,
185900,1830.3,212.2,116.0,33.2,611.0,3627.0,27.0,0,
186000,1843.2,188.4,134.6,33.2,813.0,4614.0,26.0,0,
186100,1879.7,177.0,153.4,33.2,708.0,4567.0,6.0,1,
186200,1888.7,167.1,169.5,33.2,698.0,4346.0,5.0,0,
186300,1849.1,159.3,179.4,33.2,582.0,3299.0,30.0,0,
186400,1841.7,31.6,185.6,33.2,582.0,3299.0,30.0,0,
186500,1861.3,14.2,185.5,33.2,582.0,3299.0,30.0,0,
186600,1860.7,13.5,185.5,33.2,582.0,3299.0,30.0,0,
186700,1860.6,13.2,185.5,33.2,582.0,3299.0,30.0,0,
186900,1859.6,14.1,145.8,95.7,582.0,3299.0,30.0,0,
187000,1859.6,13.8,128.8,74.2,582.0,3299.0,30.0,0,
187100,1859.2,13.6,105.7,62.5,582.0,3299.0,30.0,0,
187200,1859.6,14.7,77.3,70.3,582.0,3299.0,30.0,0,
187300,1859.3,13.4,50.4,85.9,582.0,3299.0,30.0,0,
187400,1852.9,260.8,64.4,43.0,1008.0,6573.0,20.0,1,
187500,1879.2,223.0,119.7,33.2,775.0,5311.0,30.0,0,
187600,1867.5,207.4,142.9,33.2,915.0,6063.0,7.0,1,
187700,1859.9,202.8,162.7,33.2,702.0,4805.0,7.0,1,
187900,1850.4,129.7,184.4,33.2,643.0,3624.0,30.0,0,
188000,1846.2,44.7,192.0,33.2,330.0,2583.0,5.0,0,
188100,1868.3,17.6,192.3,33.2,330.0,2583.0,5.0,0,
188200,1860.7,14.3,192.3,33.2,330.0,2583.0,5.0,0,
188300,1859.9,14.9,192.3,33.2,330.0,2583.0,5.0,0,
188400,1858.9,15.0,181.9,33.2,330.0,2583.0,5.0,0,
188500,1859.8,13.3,151.3,62.5,330.0,2583.0,5.0,0,
188600,1859.1,16.7,129.7,70.3,330.0,2583.0,5.0,0,
188700,1859.7,15.3,104.0,93.8,330.0,2583.0,5.0,0,
188900,1859.8,14.9,57.0,74.2,330.0,2583.0,5.0,0,
189000,1900.6,221.3,46.9,62.5,1098.0,7046.0,5.0,0,
189100,1827.9,230.2,107.9,33.2,993.0,6567.0,8.0,1,
189200,1872.3,203.2,136.8,33.2,852.0,5691.0,7.0,1,
189300,1870.9,176.5,155.9,33.2,650.0,3740.0,30.0,0,
189400,1860.5,150.7,167.5,33.2,659.0,3760.0,30.0,0,
189500,1843.8,161.6,176.2,33.2,659.0,3760.0,30.0,0,
189600,1844.5,53.3,183.8,33.2,659.0,3760.0,30.0,0,
189700,1860.4,15.3,184.0,33.2,659.0,3760.0,30.0,0,
189900,1859.7,14.5,184.0,33.2,659.0,3760.0,30.0,0,
190000,1860.5,14.1,178.9,35.2,659.0,3760.0,30.0,0,
190100,1859.5,17.4,150.0,70.3,659.0,3760.0,30.0,0,
190200,1860.3,14.5,124.2,89.8,659.0,3760.0,30.0,0,
190300,1860.5,15.5,99.2,89.8,659.0,3760.0,30.0,0,
190400,1861.2,17.0,78.2,87.9,659.0,3760.0,30.0,0,
190500,1858.3,16.1,55.9,97.7,659.0,3760.0,30.0,0,
190600,1867.4,311.5,20.1,62.5,1361.0,10146.0,9.0,1,
190700,1897.7,235.1,126.9,35.2,1146.0,6188.0,11.0,1,
190900,1835.6,183.0,165.5,33.2,654.0,3550.0,30.0,0,
191000,1846.5,156.3,176.4,33.2,654.0,3550.0,30.0,0,
191100,1866.0,137.8,186.0,33.2,654.0,3550.0,30.0,0,
191200,1867.6,77.6,194.2,33.2,268.0,2294.0,5.0,0,
191300,1845.9,17.9,195.0,33.2,268.0,2294.0,5.0,0,
191400,1860.7,16.7,195.0,33.2,268.0,2294.0,5.0,0,
191500,1860.1,15.2,195.0,33.2,268.0,2294.0,5.0,0,
191600,1861.3,15.8,194.9,33.2,268.0,2294.0,5.0,0,
191700,1860.5,16.7,148.9,62.5,268.0,2294.0,5.0,0,
191900,1859.0,17.7,104.5,76.2,268.0,2294.0,5.0,0,
192000,1860.4,16.8,84.9,68.4,268.0,2294.0,5.0,0,
192100,1860.7,17.1,61.2,84.0,268.0,2294.0,5.0,0,
192200,1860.4,247.2,24.5,62.5,1297.0,10251.0,9.0,1,
192300,1870.3,250.0,119.5,35.2,1041.0,6822.0,19.0,1,
192400,1849.0,231.5,149.5,33.2,785.0,4984.0,30.0,0,
192500,1881.2,177.7,171.3,33.2,760.0,4302.0,30.0,0,
192600,1852.1,179.4,181.6,33.2,563.0,3991.0,5.0,0,
192700,1841.8,206.2,195.4,33.2,687.0,3967.0,30.0,0,
192900,1864.4,23.2,211.4,33.2,687.0,3967.0,30.0,0,
193000,1860.3,15.8,211.4,33.2,687.0,3967.0,30.0,0,
193100,1861.2,17.2,211.4,33.2,687.0,3967.0,30.0,0,
193200,1860.3,16.2,211.4,33.2,687.0,3967.0,30.0,0,
193300,1860.0,16.1,175.2,52.7,687.0,3967.0,30.0,0,
193400,1859.2,17.1,150.6,82.0,687.0,3967.0,30.0,0,
193500,1859.7,16.8,125.2,91.8,687.0,3967.0,30.0,0,
193600,1860.5,15.4,109.8,82.0,687.0,3967.0,30.0,0,
193700,1860.2,15.8,82.8,76.2,687.0,3967.0,30.0,0,
193900,1898.9,262.5,106.4,33.2,1000.0,6739.0,19.0,1,
194000,1830.7,227.7,141.9,33.2,709.0,4963.0,5.0,0,
194100,1834.9,201.6,161.4,33.2,726.0,4518.0,30.0,0,
194200,1851.1,197.1,176.9,33.2,628.0,4681.0,30.0,0,
194300,1887.1,180.1,193.1,33.2,792.0,4843.0,24.0,1,
194400,1869.9,166.1,204.3,33.2,646.0,4545.0,7.0,1,
194500,1854.8,24.2,209.5,33.2,646.0,4545.0,7.0,1,
194600,1859.1,17.4,209.5,33.2,646.0,4545.0,7.0,1,
194700,1861.4,16.0,209.5,33.2,646.0,4545.0,7.0,1,
194900,1860.5,16.5,181.2,35.2,646.0,4545.0,7.0,1,
195000,1860.5,16.3,155.1,85.9,646.0,4545.0,7.0,1,
195100,1860.7,17.0,134.9,82.0,646.0,4545.0,7.0,1,
195200,1859.9,17.0,113.8,70.3,646.0,4545.0,7.0,1,
195300,1860.5,18.2,83.3,62.5,646.0,4545.0,7.0,1,
195400,1861.3,107.0,50.1,66.4,646.0,4545.0,7.0,1,
195500,1846.0,222.4,73.8,35.2,753.0,5185.0,30.0,0,
195600,1865.0,221.4,111.8,33.2,695.0,5068.0,30.0,0,
195700,1868.7,191.8,135.5,33.2,663.0,4747.0,30.0,0,
195900,1850.1,170.4,165.6,33.2,670.0,4337.0,6.0,1,
196000,1870.6,146.2,178.3,33.2,550.0,3377.0,30.0,0,
196100,1866.4,24.7,184.2,33.2,550.0,3377.0,30.0,0,
196200,1859.0,19.2,184.2,33.2,550.0,3377.0,30.0,0,
196300,1861.7,14.1,184.2,33.2,550.0,3377.0,30.0,0,
196400,1861.5,16.7,184.1,33.2,550.0,3377.0,30.0,0,
196500,1861.3,15.9,169.8,35.2,550.0,3377.0,30.0,0,
196600,1861.0,16.2,147.5,99.6,550.0,3377.0,30.0,0,
196700,1860.6,17.3,126.1,74.2,550.0,3377.0,30.0,0,
196900,1859.6,15.0,82.7,80.1,550.0,3377.0,30.0,0,
197000,1860.1,17.1,49.6,70.3,550.0,3377.0,30.0,0,
197100,1878.6,202.5,65.3,37.1,776.0,6113.0,30.0,0,
197200,1837.3,224.2,100.9,33.2,679.0,4610.0,30.0,0,
197300,1837.0,189.3,124.5,33.2,550.0,4521.0,27.0,0,
197400,1876.3,172.4,143.3,33.2,645.0,4432.0,26.0,0,
197500,1885.7,178.0,158.4,33.2,712.0,4357.0,6.0,1,
197600,1863.8,180.3,171.8,33.2,575.0,3585.0,30.0,0,
197700,1844.1,35.4,178.8,33.2,575.0,3585.0,30.0,0,
197900,1860.8,16.4,178.8,33.2,575.0,3585.0,30.0,0,
198000,1860.6,17.0,178.8,33.2,575.0,3585.0,30.0,0,
198100,1861.0,14.4,167.4,35.2,575.0,3585.0,30.0,0,
198200,1860.2,15.9,148.8,66.4,575.0,3585.0,30.0,0,
198300,1859.6,18.6,129.6,62.5,575.0,3585.0,30.0,0,
198400,1860.7,17.1,108.5,62.5,575.0,3585.0,30.0,0,
198500,1860.4,17.3,85.0,80.1,575.0,3585.0,30.0,0,
198600,1860.1,16.8,52.9,76.2,575.0,3585.0,30.0,0,
198700,1844.5,201.8,52.9,50.8,745.0,5889.0,30.0,0,
198900,1865.1,194.9,115.9,33.2,652.0,3909.0,30.0,0,
199000,1857.2,184.4,135.2,33.2,718.0,4336.0,6.0,1,
199100,1857.5,173.5,153.9,33.2,603.0,3519.0,30.0,0,
199200,1866.9,166.4,168.3,33.2,549.0,3387.0,30.0,0,
199300,1846.7,41.2,177.6,33.2,634.0,3483.0,30.0,0,
199400,1866.2,18.6,177.7,33.2,634.0,3483.0,30.0,0,
199500,1860.7,17.1,177.6,33.2,634.0,3483.0,30.0,0,
199600,1861.3,15.5,177.6,33.2,634.0,3483.0,30.0,0,
199700,1861.2,16.9,170.6,35.2,634.0,3483.0,30.0,0,
199900,1860.5,17.2,135.9,68.4,634.0,3483.0,30.0,0,
200000,1859.8,18.4,116.7,70.3,634.0,3483.0,30.0,0,
200100,1859.5,18.9,90.6,78.1,634.0,3483.0,30.0,0,
200200,1860.6,18.1,59.9,74.2,634.0,3483.0,30.0,0,
200300,1884.1,200.1,40.4,62.5,684.0,5536.0,30.0,0,
200400,1831.0,208.8,87.3,33.2,750.0,5039.0,30.0,0,
200500,1859.4,196.3,114.7,33.2,826.0,4818.0,7.0,1,
200600,1898.3,202.1,142.7,33.2,845.0,5659.0,7.0,1,
200700,1857.9,181.4,159.0,33.2,596.0,4027.0,30.0,0,
200900,1842.1,57.1,184.1,33.2,651.0,3808.0,30.0,0,
201000,1864.0,19.4,184.2,33.2,651.0,3808.0,30.0,0,
201100,1860.8,15.4,184.2,33.2,651.0,3808.0,30.0,0,
201200,1861.2,15.9,184.2,33.2,651.0,3808.0,30.0,0,
201300,1861.4,16.7,180.7,33.2,651.0,3808.0,30.0,0,
201400,1860.8,16.5,163.3,72.3,651.0,3808.0,30.0,0,
201500,1860.1,17.3,145.4,99.6,651.0,3808.0,30.0,0,
201600,1859.9,16.5,118.0,64.5,651.0,3808.0,30.0,0,
201700,1859.8,16.3,95.0,66.4,651.0,3808.0,30.0,0,
201900,1865.4,228.2,29.1,93.8,782.0,6759.0,30.0,0,
202000,1882.9,235.5,99.7,33.2,941.0,6855.0,8.0,1,
202100,1868.8,243.8,137.4,33.2,1026.0,7455.0,7.0,1,
202200,1840.5,236.3,164.1,33.2,657.0,4850.0,5.0,0,
202300,1841.3,170.0,179.3,33.2,584.0,4518.0,5.0,0,
202400,1882.3,182.9,195.1,33.2,675.0,3897.0,30.0,0,
202500,1859.1,83.3,205.1,33.2,502.0,3491.0,5.0,0,
202600,1844.3,21.4,206.1,33.2,502.0,3491.0,5.0,0,
202700,1860.2,16.8,206.1,33.2,502.0,3491.0,5.0,0,
202900,1862.3,15.5,204.9,33.2,502.0,3491.0,5.0,0,
203000,1860.3,17.5,181.2,62.5,502.0,3491.0,5.0,0,
203100,1860.1,17.5,154.7,62.5,502.0,3491.0,5.0,0,
203200,1861.7,16.6,126.4,62.5,502.0,3491.0,5.0,0,
203300,1859.3,17.6,103.7,66.4,502.0,3491.0,5.0,0,
203400,1859.2,16.6,69.6,62.5,502.0,3491.0,5.0,0,
203500,1859.2,292.0,28.2,62.5,1214.0,9704.0,5.0,0,
203600,1853.0,369.2,119.1,33.2,1105.0,8716.0,8.0,1,
203700,1882.1,268.4,168.8,33.2,988.0,7273.0,17.0,1,
203900,1845.7,220.4,210.0,33.2,657.0,4560.0,30.0,0,
204000,1840.0,204.3,222.8,33.2,649.0,4599.0,30.0,0,
204100,1847.1,117.4,233.4,33.2,712.0,3964.0,30.0,0,
204200,1868.8,21.6,236.3,33.2,712.0,3964.0,30.0,0,
204300,1859.5,16.7,236.3,33.2,712.0,3964.0,30.0,0,
204400,1861.6,14.8,236.3,33.2,712.0,3964.0,30.0,0,
204500,1860.7,16.3,236.3,33.2,712.0,3964.0,30.0,0,
204600,1861.4,16.8,205.0,43.0,712.0,3964.0,30.0,0,
204700,1860.3,16.4,166.4,85.9,712.0,3964.0,30.0,0,
204900,1859.8,16.3,110.0,62.5,712.0,3964.0,30.0,0,
205000,1860.7,16.6,81.1,64.5,712.0,3964.0,30.0,0,
205100,1859.6,203.1,41.6,91.8,712.0,3964.0,30.0,0,
205200,1905.7,317.5,115.0,35.2,1191.0,8565.0,9.0,1,
205300,1847.0,292.1,156.6,33.2,773.0,5891.0,5.0,0,
205400,1833.1,220.2,180.7,33.2,766.0,5143.0,30.0,0,
205500,1854.6,217.4,197.9,33.2,602.0,4761.0,5.0,0,
205600,1880.0,191.2,212.4,33.2,628.0,4341.0,30.0,0,
205700,1854.5,164.6,222.9,33.2,623.0,4190.0,27.0,0,
205900,1859.6,16.1,227.3,33.2,623.0,4190.0,27.0,0,
206000,1861.7,16.7,227.3,33.2,623.0,4190.0,27.0,0,
206100,1861.0,15.4,227.3,33.2,623.0,4190.0,27.0,0,
206200,1859.7,14.9,196.5,37.1,623.0,4190.0,27.0,0,
206300,1859.8,17.9,165.6,89.8,623.0,4190.0,27.0,0,
206400,1858.9,15.2,139.0,99.6,623.0,4190.0,27.0,0,
206500,1860.9,15.8,113.1,66.4,623.0,4190.0,27.0,0,
206600,1860.3,16.0,82.8,62.5,623.0,4190.0,27.0,0,
206700,1859.7,156.4,47.6,70.3,623.0,4190.0,27.0,0,
206900,1883.0,312.5,186.6,33.2,936.0,7183.0,18.0,1,
207000,1859.4,227.5,211.0,33.2,818.0,6073.0,30.0,0,
207100,1839.7,233.7,224.2,33.2,648.0,4750.0,30.0,0,
207200,1835.1,191.6,236.5,31.3,606.0,4173.0,30.0,0,
207300,1862.0,174.4,246.2,33.2,631.0,4696.0,6.0,1,
207400,1869.0,27.3,251.4,33.2,631.0,4696.0,6.0,1,
207500,1858.0,14.6,251.4,33.2,631.0,4696.0,6.0,1,
207600,1860.0,15.6,251.4,33.2,631.0,4696.0,6.0,1,
207700,1861.0,14.6,251.4,33.2,631.0,4696.0,6.0,1,
207900,1859.7,14.7,169.2,84.0,631.0,4696.0,6.0,1,
208000,1859.8,11.3,137.7,95.7,631.0,4696.0,6.0,1,
208100,1859.8,14.5,114.9,89.8,631.0,4696.0,6.0,1,
208200,1860.2,16.6,86.7,89.8,631.0,4696.0,6.0,1,
208300,1860.5,14.7,53.4,85.9,631.0,4696.0,6.0,1,
208400,1904.5,270.1,103.1,35.2,1193.0,8085.0,29.0,0,
208500,1826.7,245.3,143.5,33.2,772.0,5699.0,5.0,0,
208600,1841.2,177.7,163.2,33.2,689.0,4574.0,30.0,0,
208700,1861.6,144.3,174.7,33.2,689.0,4574.0,30.0,0,
208900,1855.7,113.7,185.3,33.2,404.0,2629.0,7.0,1,
209000,1857.7,12.7,188.8,33.2,404.0,2629.0,7.0,1,
209100,1860.2,3.9,188.7,33.2,404.0,2629.0,7.0,1,
209200,1861.0,3.8,188.6,91.8,404.0,2629.0,7.0,1,
209300,1860.9,3.5,188.6,113.3,404.0,2629.0,7.0,1,
209400,1860.9,3.6,158.5,125.0,404.0,2629.0,7.0,1,
209500,1860.7,3.5,123.2,226.6,404.0,2629.0,7.0,1,
209600,1860.6,3.0,95.5,214.8,404.0,2629.0,7.0,1,
209700,1860.5,3.3,72.3,212.9,404.0,2629.0,7.0,1,
209900,1860.7,12.4,36.5,193.4,404.0,2629.0,7.0,1,
210000,1877.2,294.3,76.3,41.0,1131.0,7517.0,29.0,0,
210100,1881.9,211.3,132.7,35.2,786.0,4633.0,30.0,0,
210200,1849.0,152.3,148.8,33.2,555.0,3975.0,5.0,0,
210300,1835.8,153.1,159.6,33.2,555.0,3975.0,5.0,0,
210400,1852.0,118.6,167.2,33.2,555.0,3975.0,5.0,0,
210500,1864.4,102.6,173.1,33.2,402.0,2518.0,6.0,1,
210600,1857.5,15.6,176.2,33.2,341.0,1950.0,6.0,1,
210700,1860.4,4.2,176.2,33.2,341.0,1950.0,6.0,1,
210900,1860.8,8.6,176.2,35.2,341.0,1950.0,6.0,1,
211000,1863.6,13.5,158.9,37.1,341.0,1950.0,6.0,1,
211100,1862.0,14.1,115.9,62.5,341.0,1950.0,6.0,1,
211200,1860.6,15.0,94.7,62.5,341.0,1950.0,6.0,1,
211300,1862.2,13.8,75.5,62.5,341.0,1950.0,6.0,1,
211400,1861.1,15.3,57.0,62.5,341.0,1950.0,6.0,1,
211500,1861.3,15.1,35.3,70.3,341.0,1950.0,6.0,1,
211600,1900.0,328.5,65.0,50.8,1356.0,10582.0,9.0,1,
211700,1838.0,225.4,136.7,33.2,690.0,4896.0,5.0,0,
211900,1870.8,160.2,169.6,33.2,685.0,4493.0,30.0,0,
212000,1854.3,126.2,177.8,33.2,685.0,4493.0,30.0,0,
212100,1849.0,108.8,183.2,33.2,454.0,2729.0,6.0,1,
212200,1863.8,26.3,188.6,33.2,394.0,2306.0,6.0,1,
212300,1857.3,4.8,188.6,33.2,394.0,2306.0,6.0,1,
212400,1860.0,3.4,188.5,80.1,394.0,2306.0,6.0,1,
212500,1860.1,9.2,188.4,128.9,394.0,2306.0,6.0,1,
212600,1862.7,14.5,177.3,148.4,394.0,2306.0,6.0,1,
212700,1860.5,15.5,130.4,64.5,394.0,2306.0,6.0,1,
212900,1860.6,15.5,83.8,62.5,394.0,2306.0,6.0,1,
213000,1860.9,15.5,64.8,87.9,394.0,2306.0,6.0,1,
213100,1861.0,14.0,47.1,97.7,394.0,2306.0,6.0,1,
213200,1884.9,325.8,32.5,93.8,1415.0,11274.0,9.0,1,
213300,1870.2,199.9,129.7,33.2,885.0,5959.0,19.0,1,
213400,1831.8,212.5,149.6,33.2,649.0,4606.0,30.0,0,
213500,1838.5,176.1,166.5,33.2,650.0,4439.0,30.0,0,
213600,1852.9,143.5,176.4,33.2,650.0,4439.0,30.0,0,
213700,1878.9,127.7,185.4,33.2,523.0,3693.0,6.0,1,
213900,1845.2,5.3,191.9,33.2,523.0,3693.0,6.0,1,
214000,1861.3,12.1,191.8,33.2,523.0,3693.0,6.0,1,
214100,1867.8,14.7,191.8,48.8,523.0,3693.0,6.0,1,
214200,1861.8,14.5,189.5,56.6,523.0,3693.0,6.0,1,
214300,1861.6,14.5,141.8,64.5,523.0,3693.0,6.0,1,
214400,1860.9,22.1,121.1,62.5,523.0,3693.0,6.0,1,
214500,1860.3,14.2,96.8,95.7,523.0,3693.0,6.0,1,
214600,1860.9,13.9,77.3,66.4,523.0,3693.0,6.0,1,
214700,1860.7,14.6,52.1,62.5,523.0,3693.0,6.0,1,
214900,1853.0,234.3,112.3,33.2,899.0,5507.0,5.0,0,
215000,1864.3,228.5,141.2,33.2,802.0,4976.0,30.0,0,
215100,1864.3,189.0,161.9,33.2,711.0,4602.0,30.0,0,
215200,1853.2,178.0,174.5,33.2,658.0,3930.0,30.0,0,
215300,1850.7,154.4,184.8,33.2,568.0,3530.0,6.0,1,
215400,1873.9,85.7,193.2,33.2,554.0,3301.0,6.0,1,
215500,1862.3,19.8,194.9,33.2,554.0,3301.0,6.0,1,
215600,1860.8,14.3,194.9,33.2,554.0,3301.0,6.0,1,
215700,1861.4,14.0,195.0,41.0,554.0,3301.0,6.0,1,
215900,1862.5,14.4,160.3,68.4,554.0,3301.0,6.0,1,
216000,1862.8,13.6,135.6,87.9,554.0,3301.0,6.0,1,
216100,1864.2,14.8,110.0,80.1,554.0,3301.0,6.0,1,
216200,1861.8,19.4,88.7,70.3,554.0,3301.0,6.0,1,
216300,1861.4,20.2,64.7,62.5,554.0,3301.0,6.0,1,
216400,1861.3,229.7,32.0,44.9,554.0,3301.0,6.0,1,
216500,1882.0,257.7,107.6,35.2,1164.0,7785.0,19.0,1,
216600,1825.8,236.6,140.8,33.2,652.0,5482.0,5.0,0,
216700,1838.8,201.4,164.2,33.2,632.0,4629.0,27.0,0,
216900,1888.6,183.2,193.9,33.2,623.0,4148.0,6.0,1,
217000,1863.6,142.7,205.0,33.2,605.0,3484.0,30.0,0,
217100,1846.8,26.1,208.8,33.2,605.0,3484.0,30.0,0,
217200,1858.5,14.3,208.8,33.2,605.0,3484.0,30.0,0,
217300,1860.3,14.3,208.7,33.2,605.0,3484.0,30.0,0,
217400,1862.3,14.6,208.7,33.2,605.0,3484.0,30.0,0,
217500,1863.1,13.2,179.6,35.2,605.0,3484.0,30.0,0,
217600,1861.8,14.0,155.2,101.6,605.0,3484.0,30.0,0,
217700,1860.0,14.7,130.1,113.3,605.0,3484.0,30.0,0,
217900,1860.2,13.8,79.4,113.3,605.0,3484.0,30.0,0,
218000,1860.7,141.2,43.4,76.2,605.0,3484.0,30.0,0,
218100,1832.2,274.8,105.0,35.2,1259.0,8436.0,19.0,1,
218200,1884.9,273.9,153.1,33.2,953.0,6612.0,16.0,1,
218300,1858.1,230.2,176.1,33.2,747.0,5253.0,14.0,1,
218400,1855.2,208.6,191.2,33.2,724.0,4961.0,6.0,1,
218500,1856.7,162.8,204.8,33.2,625.0,3975.0,6.0,1,
218600,1870.4,144.9,214.1,33.2,625.0,3975.0,6.0,1,
218700,1855.4,26.1,218.0,33.2,625.0,3975.0,6.0,1,
218900,1863.0,15.2,218.0,33.2,625.0,3975.0,6.0,1,
219000,1863.7,14.2,218.1,33.2,625.0,3975.0,6.0,1,
219100,1861.4,13.9,191.9,35.2,625.0,3975.0,6.0,1,
219200,1859.9,14.8,156.2,80.1,625.0,3975.0,6.0,1,
219300,1859.3,13.2,129.8,74.2,625.0,3975.0,6.0,1,
219400,1860.0,16.6,106.3,87.9,625.0,3975.0,6.0,1,
219500,1860.1,15.3,76.9,78.1,625.0,3975.0,6.0,1,
219600,1858.8,13.2,44.6,78.1,625.0,3975.0,6.0,1,
219700,1880.1,309.7,92.9,39.1,1155.0,8556.0,19.0,1,
219900,1849.8,222.8,172.7,33.2,816.0,5768.0,13.0,1,
220000,1892.5,212.3,193.2,33.2,740.0,5607.0,7.0,1,
220100,1880.0,177.0,207.5,33.2,685.0,5098.0,7.0,1,
220200,1849.2,186.2,217.0,33.2,487.0,3768.0,30.0,0,
220300,1843.8,32.0,222.7,33.2,487.0,3768.0,30.0,0,
220400,1859.6,17.0,222.7,33.2,487.0,3768.0,30.0,0,
220500,1862.7,13.0,222.7,33.2,487.0,3768.0,30.0,0,
220600,1864.1,14.9,222.7,33.2,487.0,3768.0,30.0,0,
220700,1862.2,14.2,203.2,33.2,487.0,3768.0,30.0,0,
220900,1860.7,14.6,141.7,70.3,487.0,3768.0,30.0,0,
221000,1858.9,17.3,112.4,76.2,487.0,3768.0,30.0,0,
221100,1859.7,14.7,83.1,76.2,487.0,3768.0,30.0,0,
221200,1859.4,15.4,53.6,76.2,487.0,3768.0,30.0,0,
221300,1852.6,295.5,72.6,43.0,1095.0,7572.0,18.0,1,
221400,1880.1,258.6,128.0,33.2,984.0,6362.0,14.0,1,
221500,1853.4,268.9,156.6,33.2,900.0,6638.0,7.0,1,
221600,1852.7,214.5,178.3,33.2,749.0,5510.0,6.0,1,
221700,1860.3,160.9,192.9,33.2,513.0,3535.0,30.0,0,
221900,1837.2,37.0,209.5,33.2,513.0,3535.0,30.0,0,
222000,1861.3,15.0,209.6,33.2,513.0,3535.0,30.0,0,
222100,1858.6,13.3,209.5,33.2,513.0,3535.0,30.0,0,
222200,1860.5,14.0,209.5,33.2,513.0,3535.0,30.0,0,
222300,1863.2,13.9,197.5,35.2,513.0,3535.0,30.0,0,
222400,1862.3,14.5,166.9,97.7,513.0,3535.0,30.0,0,
222500,1862.1,13.8,140.5,74.2,513.0,3535.0,30.0,0,
222600,1862.1,13.2,111.7,99.6,513.0,3535.0,30.0,0,
222700,1861.7,14.9,83.9,93.8,513.0,3535.0,30.0,0,
222900,1877.5,300.0,57.9,52.7,1224.0,8149.0,5.0,0,
223000,1825.4,245.1,116.5,33.2,761.0,6027.0,5.0,0,
223100,1869.8,212.7,147.7,33.2,813.0,5448.0,26.0,0,
223200,1888.0,200.3,168.6,33.2,804.0,5350.0,7.0,1,
223300,1870.6,181.8,184.7,33.2,502.0,3362.0,30.0,0,
223400,1837.2,156.9,194.0,33.2,430.0,3387.0,30.0,0,
223500,1839.9,49.9,201.9,33.2,449.0,3233.0,30.0,0,
223600,1861.4,16.5,202.0,33.2,449.0,3233.0,30.0,0,
223700,1856.2,7.9,202.0,33.2,449.0,3233.0,30.0,0,
223900,1859.9,4.1,194.2,35.2,449.0,3233.0,30.0,0,
224000,1860.5,3.6,165.9,62.5,449.0,3233.0,30.0,0,
224100,1860.9,4.1,138.7,134.8,449.0,3233.0,30.0,0,
224200,1860.0,3.6,112.3,187.5,449.0,3233.0,30.0,0,
224300,1860.7,3.6,83.0,195.3,449.0,3233.0,30.0,0,
224400,1860.9,3.6,57.7,197.3,449.0,3233.0,30.0,0,
224500,1901.2,258.6,31.3,82.0,1324.0,7957.0,5.0,0,
224600,1852.6,248.1,113.7,35.2,981.0,6237.0,5.0,0,
224700,1831.1,259.0,153.0,33.2,807.0,5282.0,5.0,0,
224900,2005.7,641.5,237.9,33.2,2639.0,9932.0,30.0,0,
225000,2076.5,60.2,325.7,33.2,1639.0,13030.0,20.0,1,
225100,1862.5,6.2,325.7,33.2,1639.0,13030.0,20.0,1,
225200,1861.0,3.1,325.7,33.2,1639.0,13030.0,20.0,1,
225300,1861.1,3.0,325.7,33.2,1639.0,13030.0,20.0,1,
225400,1861.5,2.7,325.7,35.2,1639.0,13030.0,20.0,1,hard
225500,1860.5,3.3,324.5,80.1,1639.0,13030.0,20.0,1,
225600,1831.4,47.2,305.7,66.4,1639.0,13030.0,20.0,1,
225700,1815.9,39.9,288.2,48.8,1639.0,13030.0,20.0,1,
225900,1831.6,27.2,224.8,62.5,1639.0,13030.0,20.0,1,
226000,1837.2,23.7,24.2,72.3,1639.0,13030.0,20.0,1,
226100,1840.3,420.4,24.2,76.2,1480.0,12451.0,8.0,1,
226200,1800.4,386.3,172.6,33.2,1679.0,11196.0,17.0,1,
226300,1895.6,329.5,229.6,33.2,1409.0,9902.0,18.0,1,
226400,1867.5,330.3,259.2,33.2,1282.0,9043.0,5.0,0,
226500,1875.7,448.5,286.0,33.2,1819.0,13427.0,23.0,1,
226600,2049.3,25.9,325.2,33.2,882.0,6517.0,11.0,1,
226700,1860.1,3.7,324.8,33.2,882.0,6517.0,11.0,1,
226900,1843.6,93.5,324.8,37.1,882.0,6517.0,11.0,1,
227000,1800.7,51.1,326.6,56.6,65.0,1396.0,11.0,0,
227100,1817.9,35.9,326.8,68.4,65.0,1396.0,11.0,0,
227200,1829.6,30.0,278.6,70.3,65.0,1396.0,11.0,0,
227300,1835.1,24.8,234.2,72.3,65.0,1396.0,11.0,0,
227400,1840.0,20.6,201.0,99.6,65.0,1396.0,11.0,0,
227500,1845.3,19.6,160.0,68.4,65.0,1396.0,11.0,0,
227600,1846.6,17.2,40.4,62.5,65.0,1396.0,11.0,0,
227700,1850.0,254.4,40.4,62.5,65.0,1396.0,11.0,0,
227900,1817.4,337.7,197.9,33.2,1408.0,8973.0,17.0,1,
228000,1852.3,219.0,225.7,33.2,1214.0,7153.0,12.0,1,
228100,1879.3,252.0,245.1,33.2,827.0,6359.0,5.0,0,
228200,1860.1,210.4,259.9,33.2,679.0,4895.0,5.0,0,
228300,1844.0,155.2,268.8,33.2,662.0,4566.0,5.0,0,
228400,1848.3,23.3,273.0,33.2,662.0,4566.0,5.0,0,
228500,1859.1,15.8,273.0,33.2,662.0,4566.0,5.0,0,
228600,1861.5,15.4,273.1,33.2,662.0,4566.0,5.0,0,
228700,1861.3,15.3,273.1,33.2,662.0,4566.0,5.0,0,
228900,1858.3,14.9,192.0,66.4,662.0,4566.0,5.0,0,
229000,1858.8,15.1,155.3,99.6,662.0,4566.0,5.0,0,
229100,1859.3,15.2,122.0,74.2,662.0,4566.0,5.0,0,
229200,1858.5,15.6,86.1,82.0,662.0,4566.0,5.0,0,
229300,1859.5,149.5,51.2,93.8,662.0,4566.0,5.0,0,
229400,1840.8,382.3,132.4,33.2,1281.0,9542.0,19.0,1,
229500,1897.6,331.7,189.5,33.2,966.0,7992.0,18.0,1,
229600,1870.7,268.2,215.1,33.2,898.0,6558.0,12.0,1,
229700,1838.4,265.7,233.3,33.2,780.0,6052.0,7.0,1,
229900,1871.4,180.3,259.2,33.2,622.0,4535.0,6.0,1,
230000,1856.3,24.7,263.6,33.2,622.0,4535.0,6.0,1,
230100,1858.7,14.5,263.6,33.2,622.0,4535.0,6.0,1,
230200,1862.0,16.0,263.6,33.2,622.0,4535.0,6.0,1,
230300,1861.1,14.3,263.6,35.2,622.0,4535.0,6.0,1,
230400,1859.7,14.9,228.6,37.1,622.0,4535.0,6.0,1,
230500,1859.8,15.6,183.8,99.6,622.0,4535.0,6.0,1,
230600,1858.5,10.8,153.0,78.1,622.0,4535.0,6.0,1,
230700,1858.6,14.4,123.8,66.4,622.0,4535.0,6.0,1,
230900,1859.0,19.6,50.8,91.8,622.0,4535.0,6.0,1,
231000,1877.6,395.2,107.5,37.1,1353.0,11432.0,28.0,0,
231100,1838.0,328.4,166.5,33.2,1199.0,9171.0,8.0,1,
231200,1862.4,226.5,194.1,33.2,754.0,5519.0,5.0,0,
231300,1877.3,216.5,213.4,33.2,751.0,5241.0,30.0,0,
231400,1852.5,199.9,226.2,33.2,753.0,3976.0,30.0,0,
231500,1847.5,151.0,235.3,33.2,639.0,3816.0,5.0,0,
231600,1853.9,28.6,240.1,33.2,518.0,3590.0,5.0,0,
231700,1862.7,18.4,240.1,33.2,518.0,3590.0,5.0,0,
231900,1861.6,14.4,240.1,33.2,518.0,3590.0,5.0,0,
232000,1859.9,15.3,215.4,33.2,518.0,3590.0,5.0,0,
232100,1859.3,14.3,174.0,91.8,518.0,3590.0,5.0,0,
232200,1859.4,15.2,142.5,123.0,518.0,3590.0,5.0,0,
232300,1858.5,15.8,111.5,89.8,518.0,3590.0,5.0,0,
232400,1859.5,14.8,82.5,66.4,518.0,3590.0,5.0,0,
232500,1858.7,15.4,50.9,66.4,518.0,3590.0,5.0,0,
232600,1872.4,335.2,87.2,35.2,1170.0,8860.0,19.0,1,
232700,1891.2,303.0,146.7,33.2,1066.0,7885.0,9.0,1,
232900,1829.9,234.0,194.4,33.2,731.0,5309.0,30.0,0,
233000,1847.8,164.9,208.9,33.2,699.0,3940.0,30.0,0,
233100,1879.7,150.6,221.7,33.2,824.0,4218.0,30.0,0,
233200,1844.5,39.1,227.0,33.2,575.0,3865.0,5.0,0,
233300,1865.1,16.6,227.0,33.2,575.0,3865.0,5.0,0,
233400,1862.3,13.9,227.0,33.2,575.0,3865.0,5.0,0,
233500,1861.5,17.1,227.0,33.2,575.0,3865.0,5.0,0,
233600,1860.0,16.0,210.4,33.2,575.0,3865.0,5.0,0,
233700,1859.5,15.2,174.2,99.6,575.0,3865.0,5.0,0,
233900,1859.9,16.1,118.8,99.6,575.0,3865.0,5.0,0,
234000,1859.2,14.9,90.9,66.4,575.0,3865.0,5.0,0,
234100,1859.6,15.5,52.1,64.5,575.0,3865.0,5.0,0,
234200,1875.1,400.6,76.5,43.0,1305.0,10104.0,29.0,0,
234300,1839.0,272.3,154.3,33.2,814.0,6543.0,5.0,0,
234400,1855.7,247.7,180.2,33.2,766.0,5969.0,30.0,0,
234500,1870.9,222.0,200.5,33.2,755.0,5485.0,30.0,0,
234600,1853.5,232.3,214.1,33.2,622.0,4610.0,30.0,0,
234700,1844.8,214.2,227.6,33.2,682.0,4848.0,6.0,1,
234900,1870.1,17.9,237.6,33.2,682.0,4848.0,6.0,1,
235000,1867.8,17.5,237.6,33.2,682.0,4848.0,6.0,1,
235100,1858.6,16.2,237.6,33.2,682.0,4848.0,6.0,1,
235200,1860.7,15.7,225.8,33.2,682.0,4848.0,6.0,1,
235300,1860.1,16.8,181.7,62.5,682.0,4848.0,6.0,1,
235400,1859.0,16.5,156.0,66.4,682.0,4848.0,6.0,1,
235500,1859.0,16.0,128.9,97.7,682.0,4848.0,6.0,1,
235600,1859.7,18.2,104.8,66.4,682.0,4848.0,6.0,1,
235700,1859.7,15.6,71.0,62.5,682.0,4848.0,6.0,1,
235900,1845.5,275.7,145.9,31.3,1037.0,6905.0,5.0,0,
236000,1824.5,256.6,174.4,31.3,680.0,4948.0,30.0,0,
236100,1833.0,202.4,192.3,33.2,705.0,5164.0,29.0,0,
236200,1871.5,189.0,206.7,33.2,595.0,4152.0,30.0,0,
236300,1882.8,178.2,219.2,33.2,615.0,4611.0,6.0,1,
236400,1868.7,72.7,229.7,33.2,581.0,4422.0,6.0,1,
236500,1849.2,18.7,230.3,33.2,581.0,4422.0,6.0,1,
236600,1861.9,16.2,230.3,33.2,581.0,4422.0,6.0,1,
236700,1860.0,16.2,230.3,35.2,581.0,4422.0,6.0,1,
236900,1859.2,16.7,179.0,62.5,581.0,4422.0,6.0,1,
237000,1859.4,17.0,151.7,66.4,581.0,4422.0,6.0,1,
237100,1859.6,17.9,128.2,66.4,581.0,4422.0,6.0,1,
237200,1859.6,17.3,103.5,62.5,581.0,4422.0,6.0,1,
237300,1859.4,16.1,73.4,64.5,581.0,4422.0,6.0,1,
237400,1860.6,324.4,26.3,66.4,1214.0,10402.0,9.0,1,
237500,1832.7,251.0,123.3,33.2,964.0,6967.0,18.0,1,
237600,1880.4,231.4,156.5,33.2,709.0,5036.0,30.0,0,
237700,1858.6,213.9,174.4,33.2,703.0,4930.0,30.0,0,
237900,1859.7,184.5,205.2,33.2,638.0,4410.0,5.0,0,
238000,1872.2,105.3,216.5,33.2,603.0,3833.0,5.0,0,
238100,1858.9,19.7,218.4,33.2,603.0,3833.0,5.0,0,
238200,1859.4,16.1,218.4,33.2,603.0,3833.0,5.0,0,
238300,1860.9,17.8,218.4,35.2,603.0,3833.0,5.0,0,
238400,1860.3,16.5,218.4,35.2,603.0,3833.0,5.0,0,
238500,1858.2,16.5,181.3,62.5,603.0,3833.0,5.0,0,
238600,1859.1,17.9,153.5,85.9,603.0,3833.0,5.0,0,
238700,1858.8,17.0,132.8,62.5,603.0,3833.0,5.0,0,
238900,1859.5,20.9,77.2,68.4,603.0,3833.0,5.0,0,
239000,1857.6,218.6,35.1,87.9,603.0,3833.0,5.0,0,
239100,1873.4,289.0,105.5,41.0,1082.0,7459.0,5.0,0,
239200,1828.5,266.7,150.3,35.2,898.0,5921.0,5.0,0,
239300,1851.0,174.7,169.5,33.2,710.0,4490.0,30.0,0,
239400,1898.0,194.0,185.8,33.2,699.0,4820.0,5.0,0,
239500,1872.9,188.2,199.9,33.2,629.0,4991.0,6.0,1,
239600,1844.2,132.9,209.9,33.2,660.0,3651.0,5.0,0,
239700,1855.3,21.6,214.1,33.2,660.0,3651.0,5.0,0,
239900,1859.9,16.5,214.1,37.1,660.0,3651.0,5.0,0,
240000,1860.3,15.9,214.1,39.1,660.0,3651.0,5.0,0,
240100,1859.4,17.9,187.3,52.7,660.0,3651.0,5.0,0,
240200,1859.3,16.1,153.9,62.5,660.0,3651.0,5.0,0,
240300,1859.6,16.2,132.2,66.4,660.0,3651.0,5.0,0,
240400,1860.0,18.1,108.2,78.1,660.0,3651.0,5.0,0,
240500,1859.6,20.7,79.3,80.1,660.0,3651.0,5.0,0,
240600,1859.6,139.2,46.7,70.3,660.0,3651.0,5.0,0,
240700,1856.2,261.2,85.6,56.6,930.0,5945.0,5.0,0,
240900,1851.8,220.6,151.0,33.2,788.0,5264.0,27.0,0,
241000,1858.0,205.9,170.8,33.2,648.0,4549.0,6.0,1,
241100,1850.0,166.1,184.8,33.2,768.0,3984.0,30.0,0,
241200,1875.9,147.9,197.6,33.2,744.0,3572.0,5.0,0,
241300,1846.9,24.7,201.5,33.2,744.0,3572.0,5.0,0,
241400,1859.2,16.5,201.5,62.5,744.0,3572.0,5.0,0,
241500,1863.2,18.2,201.6,62.5,744.0,3572.0,5.0,0,
241600,1861.3,17.9,201.5,62.5,744.0,3572.0,5.0,0,
241700,1860.0,16.5,183.7,64.5,744.0,3572.0,5.0,0,
241900,1859.2,15.8,135.2,68.4,744.0,3572.0,5.0,0,
242000,1860.0,16.4,109.0,68.4,744.0,3572.0,5.0,0,
242100,1859.4,15.0,83.0,80.1,744.0,3572.0,5.0,0,
242200,1860.6,45.9,44.5,82.0,744.0,3572.0,5.0,0,
242300,1864.1,295.6,83.3,56.6,858.0,6220.0,5.0,0,
242400,1840.5,226.8,122.6,39.1,878.0,5818.0,5.0,0,
242500,1868.8,221.0,152.0,35.2,825.0,5136.0,27.0,0,
242600,1893.5,186.6,174.8,33.2,698.0,5446.0,7.0,1,
242700,1857.0,207.8,188.6,33.2,801.0,4298.0,30.0,0,
242900,1854.6,31.2,208.8,33.2,801.0,4298.0,30.0,0,
243000,1859.7,16.8,208.8,33.2,801.0,4298.0,30.0,0,
243100,1863.1,16.6,208.8,35.2,801.0,4298.0,30.0,0,
243200,1860.2,16.2,208.8,35.2,801.0,4298.0,30.0,0,
243300,1860.8,17.2,192.5,37.1,801.0,4298.0,30.0,0,
243400,1859.7,17.1,170.2,66.4,801.0,4298.0,30.0,0,
243500,1859.2,16.4,144.6,62.5,801.0,4298.0,30.0,0,
243600,1859.6,17.7,115.9,62.5,801.0,4298.0,30.0,0,
243700,1859.6,18.0,91.7,113.3,801.0,4298.0,30.0,0,
243900,1871.3,309.4,85.9,48.8,997.0,7907.0,18.0,1,
244000,1862.6,256.7,135.7,37.1,1017.0,6664.0,5.0,0,
244100,1844.2,233.6,160.6,33.2,773.0,5293.0,30.0,0,
244200,1851.1,197.5,178.2,33.2,649.0,4700.0,5.0,0,
244300,1879.6,149.2,192.0,33.2,666.0,4141.0,5.0,0,
244400,1873.4,157.9,203.8,33.2,769.0,3763.0,5.0,0,
244500,1838.4,37.1,210.7,33.2,497.0,3220.0,5.0,0,
244600,1862.7,19.4,210.7,62.5,497.0,3220.0,5.0,0,
244700,1862.4,17.9,210.7,62.5,497.0,3220.0,5.0,0,
244900,1860.6,16.4,193.5,68.4,497.0,3220.0,5.0,0,
245000,1860.2,16.0,162.5,62.5,497.0,3220.0,5.0,0,
245100,1859.8,16.6,138.1,66.4,497.0,3220.0,5.0,0,
245200,1860.7,17.6,114.5,66.4,497.0,3220.0,5.0,0,
245300,1859.1,16.6,89.4,62.5,497.0,3220.0,5.0,0,
245400,1860.4,16.5,57.6,84.0,497.0,3220.0,5.0,0,
245500,1862.6,289.4,69.0,56.6,1087.0,9526.0,7.0,1,
245600,1835.5,247.5,122.9,39.1,922.0,5820.0,5.0,0,
245700,1886.5,213.2,155.5,35.2,765.0,5257.0,5.0,0,
245900,1864.8,227.4,190.9,33.2,640.0,4056.0,5.0,0,
246000,1847.4,184.4,201.1,33.2,693.0,3663.0,5.0,0,
246100,1849.0,47.2,211.4,33.2,735.0,3841.0,5.0,0,
246200,1867.6,16.0,211.6,62.5,735.0,3841.0,5.0,0,
246300,1860.1,15.4,211.6,62.5,735.0,3841.0,5.0,0,
246400,1863.3,17.3,211.6,62.5,735.0,3841.0,5.0,0,
246500,1860.7,16.3,201.1,62.5,735.0,3841.0,5.0,0,
246600,1861.2,19.6,173.6,72.3,735.0,3841.0,5.0,0,
246700,1862.7,19.0,145.1,62.5,735.0,3841.0,5.0,0,
246900,1860.5,22.8,93.8,62.5,735.0,3841.0,5.0,0,
247000,1860.3,18.3,69.5,62.5,735.0,3841.0,5.0,0,
247100,1894.7,270.1,54.3,64.5,996.0,8433.0,7.0,1,
247200,1835.6,265.6,118.9,43.0,964.0,6739.0,5.0,0,
