Time(ms),Raw_ADC,ENV_Value,RMS,MDF,MW_Amp,MW_Area,MW_Latency,MW_Valid,Marker
0,1844.4,129.5,0.0,66.6,0.0,0.0,0.0,0,
100,1866.1,107.0,0.0,66.6,0.0,0.0,0.0,0,
200,1862.2,43.6,0.0,66.6,0.0,0.0,0.0,0,
300,1860.9,16.0,0.0,66.6,0.0,0.0,0.0,0,
400,1862.4,20.9,0.0,66.6,0.0,0.0,0.0,0,
511,1861.9,16.3,0.0,73.2,0.0,0.0,0.0,0,
611,1861.9,12.8,0.0,93.1,0.0,0.0,0.0,0,
711,1861.0,14.1,0.0,102.7,0.0,0.0,0.0,0,
811,1861.1,12.0,0.0,105.0,0.0,0.0,0.0,0,
911,1861.2,12.7,0.0,103.8,0.0,0.0,0.0,0,
1011,1861.4,12.7,0.0,116.4,0.0,0.0,0.0,0,
1111,1861.7,14.3,0.0,142.6,0.0,0.0,0.0,0,
1211,1857.8,135.6,0.0,70.0,0.0,0.0,0.0,0,
1311,1871.8,150.4,0.0,66.2,0.0,0.0,0.0,0,
1411,1860.4,126.4,0.0,66.3,0.0,0.0,0.0,0,
1511,1851.4,121.5,0.0,66.5,0.0,0.0,0.0,0,
1612,1873.1,151.8,114.5,66.8,0.0,0.0,0.0,0,
1712,1848.1,132.5,116.2,67.3,0.0,0.0,0.0,0,
1812,1867.4,72.4,118.5,93.6,0.0,0.0,0.0,0,
1912,1864.2,22.9,118.6,93.8,0.0,0.0,0.0,0,
2012,1862.0,24.7,118.8,68.8,0.0,0.0,0.0,0,
2112,1862.5,19.5,118.9,69.0,0.0,0.0,0.0,0,
2212,1861.8,17.3,118.9,78.8,0.0,0.0,0.0,0,
2312,1862.1,20.8,119.0,82.2,0.0,0.0,0.0,0,
2512,1861.8,14.2,119.0,77.7,0.0,0.0,0.0,0,
2612,1861.8,13.3,119.0,75.0,0.0,0.0,0.0,0,
2712,1861.6,14.2,119.0,100.8,0.0,0.0,0.0,0,
2812,1880.6,88.1,119.5,71.0,0.0,0.0,0.0,0,
2912,1834.9,119.5,119.7,65.6,0.0,0.0,0.0,0,
3012,1869.5,172.9,121.6,66.2,0.0,0.0,0.0,0,
3112,1861.8,150.1,121.0,66.5,0.0,0.0,0.0,0,
3212,1867.4,142.9,123.8,66.6,0.0,0.0,0.0,0,
3312,1855.5,107.8,123.8,67.1,0.0,0.0,0.0,0,
3512,1859.7,20.3,124.2,74.1,0.0,0.0,0.0,0,
3612,1861.9,15.0,124.0,92.9,0.0,0.0,0.0,0,
3712,1863.0,18.8,123.9,92.1,0.0,0.0,0.0,0,
3812,1862.0,15.4,123.9,78.5,0.0,0.0,0.0,0,
3912,1861.4,12.7,123.9,71.1,0.0,0.0,0.0,0,
4012,1861.8,14.8,123.8,76.6,0.0,0.0,0.0,0,
4112,1860.9,14.5,123.8,85.3,0.0,0.0,0.0,0,
4212,1861.7,14.1,123.9,101.2,0.0,0.0,0.0,0,
4312,1862.1,15.0,123.9,92.7,0.0,0.0,0.0,0,
4512,1863.4,155.9,124.2,56.1,0.0,0.0,0.0,0,
4612,1863.4,160.4,123.0,65.9,0.0,0.0,0.0,0,
4712,1860.4,117.0,124.3,66.3,0.0,0.0,0.0,0,
4812,1858.2,153.1,119.6,66.8,0.0,0.0,0.0,0,
4912,1861.2,165.8,120.8,67.0,0.0,0.0,0.0,0,
5012,1860.6,143.2,120.4,68.2,0.0,0.0,0.0,0,
5112,1862.4,29.1,119.6,79.9,0.0,0.0,0.0,0,
5212,1861.3,16.9,119.7,67.1,0.0,0.0,0.0,0,
5312,1862.3,11.7,119.7,67.4,0.0,0.0,0.0,0,
5512,1861.8,16.4,119.7,87.0,0.0,0.0,0.0,0,
5612,1861.1,13.7,119.7,88.5,0.0,0.0,0.0,0,
5712,1861.1,12.3,119.7,88.5,0.0,0.0,0.0,0,
5812,1862.0,19.8,119.7,93.5,0.0,0.0,0.0,0,
5912,1860.0,13.6,119.7,93.3,0.0,0.0,0.0,0,
6012,1861.2,13.3,119.7,80.4,0.0,0.0,0.0,0,
6112,1874.9,124.5,120.3,67.2,0.0,0.0,0.0,0,
6212,1847.0,128.0,119.3,66.3,0.0,0.0,0.0,0,
6312,1860.3,182.3,119.2,66.3,0.0,0.0,0.0,0,
6512,1876.1,137.2,120.5,67.2,0.0,0.0,0.0,0,
6612,1847.3,119.7,121.1,67.3,0.0,0.0,0.0,0,
6712,1863.9,30.3,121.2,93.5,0.0,0.0,0.0,0,
6812,1861.2,16.7,121.1,86.6,0.0,0.0,0.0,0,
6912,1861.6,12.5,121.0,69.2,0.0,0.0,0.0,0,
7012,1862.1,14.4,121.0,69.1,0.0,0.0,0.0,0,
7112,1860.4,15.3,121.0,74.4,0.0,0.0,0.0,0,
7212,1861.2,13.5,121.0,93.9,0.0,0.0,0.0,0,
7312,1861.8,14.1,121.0,102.4,0.0,0.0,0.0,0,
7512,1861.8,13.3,121.0,135.5,0.0,0.0,0.0,0,
7612,1862.5,14.3,121.0,134.2,0.0,0.0,0.0,0,
7712,1857.0,150.7,122.3,55.6,0.0,0.0,0.0,0,
7812,1860.3,167.9,123.7,57.3,0.0,0.0,0.0,0,
7912,1880.7,161.8,126.2,66.2,0.0,0.0,0.0,0,
8012,1844.5,118.5,127.7,66.5,0.0,0.0,0.0,0,
8112,1863.1,147.1,129.5,66.8,0.0,0.0,0.0,0,
8212,1865.0,170.7,128.7,93.2,0.0,0.0,0.0,0,
8312,1852.0,40.0,129.3,67.7,0.0,0.0,0.0,0,
8512,1861.3,24.2,129.5,94.2,0.0,0.0,0.0,0,
8612,1863.5,28.4,129.6,93.3,0.0,0.0,0.0,0,
8712,1859.8,14.6,129.7,78.3,0.0,0.0,0.0,0,
8812,1861.6,19.6,129.8,78.1,0.0,0.0,0.0,0,
8912,1861.7,13.1,129.7,77.1,0.0,0.0,0.0,0,
9012,1861.5,13.0,129.7,70.4,0.0,0.0,0.0,0,
9112,1860.8,14.2,129.7,68.9,0.0,0.0,0.0,0,
9212,1861.2,14.2,129.8,72.1,0.0,0.0,0.0,0,
9312,1868.1,161.0,130.6,55.3,0.0,0.0,0.0,0,
9512,1841.0,162.5,135.6,65.9,0.0,0.0,0.0,0,
9612,1871.2,173.5,138.6,66.4,0.0,0.0,0.0,0,
9712,1849.8,176.8,139.8,66.7,0.0,0.0,0.0,0,
9812,1884.4,149.7,143.6,66.9,0.0,0.0,0.0,0,
9912,1843.6,58.9,143.3,69.0,0.0,0.0,0.0,0,
10012,1863.4,25.2,143.4,67.1,0.0,0.0,0.0,0,
10112,1860.0,14.4,143.4,67.2,0.0,0.0,0.0,0,
10212,1860.5,14.2,143.3,69.9,0.0,0.0,0.0,0,
10312,1862.1,13.2,143.2,74.0,0.0,0.0,0.0,0,
10512,1860.9,19.7,143.2,67.6,0.0,0.0,0.0,0,
10612,1860.9,15.2,143.2,67.2,0.0,0.0,0.0,0,
10712,1861.3,15.6,143.3,78.6,0.0,0.0,0.0,0,
10812,1861.3,15.9,143.3,78.9,0.0,0.0,0.0,0,
10912,1859.8,102.7,144.1,78.3,0.0,0.0,0.0,0,
11012,1861.7,164.5,143.1,65.8,0.0,0.0,0.0,0,
11112,1862.8,189.9,141.8,66.0,0.0,0.0,0.0,0,
11212,1871.7,166.2,141.8,66.2,0.0,0.0,0.0,0,
11313,1855.2,120.6,142.2,66.7,0.0,0.0,0.0,0,
11513,1870.1,94.2,147.2,67.1,0.0,0.0,0.0,0,
11613,1863.3,29.8,147.0,67.4,0.0,0.0,0.0,0,
11713,1859.0,16.4,147.0,67.1,0.0,0.0,0.0,0,
11813,1861.3,15.6,147.1,67.3,0.0,0.0,0.0,0,
11913,1861.2,16.2,147.1,69.2,0.0,0.0,0.0,0,
12013,1863.0,15.2,147.1,77.1,0.0,0.0,0.0,0,
12113,1861.4,13.9,147.1,79.2,0.0,0.0,0.0,0,
12213,1861.2,13.8,147.0,83.0,0.0,0.0,0.0,0,
12313,1861.4,12.6,147.0,83.4,0.0,0.0,0.0,0,
12513,1861.4,111.9,147.0,80.8,0.0,0.0,0.0,0,
12613,1862.2,155.9,146.2,56.8,0.0,0.0,0.0,0,
12713,1868.5,126.7,145.9,66.0,0.0,0.0,0.0,0,
12813,1846.1,183.6,144.8,66.4,0.0,0.0,0.0,0,
12913,1863.1,195.7,146.0,66.6,0.0,0.0,0.0,0,
13013,1865.7,175.6,144.6,67.1,0.0,0.0,0.0,0,
13113,1872.9,143.5,145.2,67.1,0.0,0.0,0.0,0,
13213,1842.5,20.4,143.3,67.0,0.0,0.0,0.0,0,
13313,1862.8,17.0,143.3,67.4,0.0,0.0,0.0,0,
13513,1861.5,14.1,143.2,69.3,0.0,0.0,0.0,0,
13613,1862.5,15.0,143.2,79.0,0.0,0.0,0.0,0,
13713,1861.4,13.1,143.2,86.7,0.0,0.0,0.0,0,
13813,1861.8,13.1,143.2,86.7,0.0,0.0,0.0,0,
13913,1862.0,13.5,143.1,115.4,0.0,0.0,0.0,0,
14013,1861.6,13.0,143.1,141.2,0.0,0.0,0.0,0,
14113,1861.3,13.5,143.1,130.8,0.0,0.0,0.0,0,
14213,1859.6,146.2,143.3,51.2,0.0,0.0,0.0,0,
14313,1858.0,183.6,143.3,56.7,0.0,0.0,0.0,0,
14513,1874.2,158.5,144.5,66.5,0.0,0.0,0.0,0,
14613,1847.8,121.3,144.8,66.6,0.0,0.0,0.0,0,
14713,1861.2,170.5,141.5,67.0,0.0,0.0,0.0,0,
14813,1860.3,25.4,141.9,67.1,0.0,0.0,0.0,0,
14913,1861.3,18.2,141.8,67.0,0.0,0.0,0.0,0,rest_end
15013,1861.8,24.5,142.0,68.7,0.0,0.0,0.0,0,
15113,1862.7,20.3,142.1,71.6,0.0,0.0,0.0,0,
15213,1863.1,28.7,142.2,78.9,0.0,0.0,0.0,0,
15313,1860.3,15.7,142.3,79.5,0.0,0.0,0.0,0,
15513,1860.9,13.0,142.3,87.5,0.0,0.0,0.0,0,
15613,1861.3,16.2,142.4,78.1,0.0,0.0,0.0,0,
15713,1862.0,18.4,142.4,77.8,0.0,0.0,0.0,0,
15813,1861.6,165.6,141.0,67.4,0.0,0.0,0.0,0,
15913,1872.8,145.5,140.3,66.1,0.0,0.0,0.0,0,
16013,1851.7,125.7,139.7,66.2,0.0,0.0,0.0,0,
16113,1855.1,159.5,136.5,66.4,0.0,0.0,0.0,0,
16213,1860.3,179.7,134.2,66.7,0.0,0.0,0.0,0,
16313,1861.3,167.7,134.0,66.8,0.0,0.0,0.0,0,
16513,1861.1,22.6,133.9,66.7,0.0,0.0,0.0,0,
16613,1862.4,13.1,133.8,66.3,0.0,0.0,0.0,0,
16713,1862.4,18.0,133.6,66.1,0.0,0.0,0.0,0,
16813,1861.1,13.5,133.5,55.2,0.0,0.0,0.0,0,
16913,1861.5,15.4,133.4,73.7,0.0,0.0,0.0,0,
17013,1860.2,15.7,133.4,83.6,0.0,0.0,0.0,0,
17113,1860.4,14.0,133.4,85.1,0.0,0.0,0.0,0,
17213,1861.2,11.9,133.4,71.6,0.0,0.0,0.0,0,
17313,1860.9,12.7,133.3,77.2,0.0,0.0,0.0,0,
17513,1840.0,164.5,137.6,55.2,0.0,0.0,0.0,0,
17613,1864.3,189.0,140.0,65.8,0.0,0.0,0.0,0,
17713,1858.5,194.4,141.5,66.2,0.0,0.0,0.0,0,
17813,1884.0,159.4,144.8,66.5,0.0,0.0,0.0,0,
17913,1840.6,130.5,146.3,66.7,0.0,0.0,0.0,0,
18013,1860.4,55.6,147.0,66.6,0.0,0.0,0.0,0,
18113,1863.8,44.4,147.1,66.8,0.0,0.0,0.0,0,
18213,1859.5,14.4,147.2,66.6,0.0,0.0,0.0,0,
18313,1861.6,14.8,147.2,66.6,0.0,0.0,0.0,0,
18513,1862.2,12.0,147.2,87.3,0.0,0.0,0.0,0,
18613,1861.6,14.0,147.2,79.9,0.0,0.0,0.0,0,
18713,1861.5,12.8,147.2,78.9,0.0,0.0,0.0,0,
18813,1861.9,16.0,147.2,80.4,0.0,0.0,0.0,0,
18913,1861.2,14.3,147.3,80.0,0.0,0.0,0.0,0,
19013,1860.2,111.9,146.7,67.6,0.0,0.0,0.0,0,
19113,1855.3,193.2,145.5,57.0,0.0,0.0,0.0,0,
19213,1877.1,165.2,145.9,65.9,0.0,0.0,0.0,0,
19313,1856.7,129.3,144.9,66.3,0.0,0.0,0.0,0,
19513,1867.7,181.5,143.7,66.7,0.0,0.0,0.0,0,
19613,1854.4,83.8,142.7,66.7,0.0,0.0,0.0,0,
19713,1865.3,33.9,142.7,66.6,0.0,0.0,0.0,0,
19813,1858.5,20.1,142.5,66.8,0.0,0.0,0.0,0,
19913,1860.9,13.4,142.5,67.0,0.0,0.0,0.0,0,
20013,1861.4,15.5,142.5,67.1,0.0,0.0,0.0,0,
20113,1862.7,12.3,142.5,68.9,0.0,0.0,0.0,0,
20213,1861.7,11.9,142.5,69.5,0.0,0.0,0.0,0,
20313,1861.6,13.8,142.5,80.6,0.0,0.0,0.0,0,
20513,1862.3,15.9,142.5,101.2,0.0,0.0,0.0,0,
20613,1869.1,101.8,142.8,98.9,0.0,0.0,0.0,0,
20713,1871.7,130.6,143.0,52.4,0.0,0.0,0.0,0,
20813,1833.8,168.7,143.3,65.5,0.0,0.0,0.0,0,
20913,1867.4,198.9,144.5,66.1,0.0,0.0,0.0,0,
21013,1861.7,197.5,144.7,66.5,0.0,0.0,0.0,0,
21113,1878.1,157.7,146.6,66.6,0.0,0.0,0.0,0,
21213,1849.0,130.9,147.5,66.7,0.0,0.0,0.0,0,
21313,1865.6,45.9,145.8,66.6,0.0,0.0,0.0,0,
21513,1861.8,20.4,146.2,65.6,0.0,0.0,0.0,0,
21613,1862.3,14.7,146.2,53.4,0.0,0.0,0.0,0,
21713,1861.1,16.6,146.2,54.8,0.0,0.0,0.0,0,
21813,1862.9,12.9,146.2,72.3,0.0,0.0,0.0,0,
21913,1860.0,17.0,146.2,76.6,0.0,0.0,0.0,0,
22013,1862.5,16.6,146.2,70.2,0.0,0.0,0.0,0,
22113,1861.1,15.0,146.2,80.8,0.0,0.0,0.0,0,
22213,1861.2,39.4,146.2,99.0,0.0,0.0,0.0,0,
22313,1857.8,159.6,146.7,66.2,0.0,0.0,0.0,0,
22513,1869.9,166.3,147.0,66.2,0.0,0.0,0.0,0,
22613,1860.5,138.3,146.2,66.3,0.0,0.0,0.0,0,
22713,1849.1,169.7,143.6,66.6,0.0,0.0,0.0,0,
22813,1864.9,196.1,142.8,66.6,0.0,0.0,0.0,0,
22913,1864.3,27.4,142.6,66.7,0.0,0.0,0.0,0,
23013,1861.1,18.1,142.1,66.5,0.0,0.0,0.0,0,
23113,1862.9,14.2,142.0,66.2,0.0,0.0,0.0,0,
23213,1862.3,21.8,142.0,65.9,0.0,0.0,0.0,0,
23313,1861.8,14.6,142.0,65.7,0.0,0.0,0.0,0,
23513,1861.5,13.7,142.1,70.7,0.0,0.0,0.0,0,
23613,1861.7,15.6,142.1,81.4,0.0,0.0,0.0,0,
23713,1861.3,15.2,142.1,84.2,0.0,0.0,0.0,0,
23813,1861.6,14.3,142.1,82.3,0.0,0.0,0.0,0,
23913,1863.4,149.6,142.1,57.6,0.0,0.0,0.0,0,
24013,1869.6,139.9,140.8,66.0,0.0,0.0,0.0,0,
24113,1845.8,164.9,140.5,66.3,0.0,0.0,0.0,0,
24213,1857.5,199.3,140.4,66.4,0.0,0.0,0.0,0,
24313,1866.9,189.8,141.6,66.5,0.0,0.0,0.0,0,
24513,1844.8,31.8,142.2,66.7,0.0,0.0,0.0,0,
24613,1860.4,23.3,142.3,66.7,0.0,0.0,0.0,0,
24713,1861.9,19.5,142.3,66.4,0.0,0.0,0.0,0,
24813,1861.8,20.0,142.3,65.7,0.0,0.0,0.0,0,
24913,1860.7,14.7,142.3,66.2,0.0,0.0,0.0,0,
25013,1862.0,14.3,142.2,83.2,0.0,0.0,0.0,0,
25113,1861.6,15.0,142.2,83.5,0.0,0.0,0.0,0,
25213,1862.7,15.6,142.2,91.2,0.0,0.0,0.0,0,
25313,1861.0,16.6,142.2,85.2,0.0,0.0,0.0,0,
25513,1859.9,134.1,144.1,53.7,0.0,0.0,0.0,0,
25613,1858.6,191.3,145.4,51.9,0.0,0.0,0.0,0,
25713,1860.5,218.7,147.2,65.8,0.0,0.0,0.0,0,
25813,1879.4,158.3,150.5,66.4,0.0,0.0,0.0,0,
25913,1846.3,145.5,151.5,66.6,0.0,0.0,0.0,0,
26013,1859.3,166.6,151.7,66.7,0.0,0.0,0.0,0,
26113,1862.8,42.7,151.4,66.9,0.0,0.0,0.0,0,
26213,1861.8,23.0,151.3,66.6,0.0,0.0,0.0,0,
26313,1861.5,19.0,151.3,66.7,0.0,0.0,0.0,0,
26513,1860.4,22.2,151.3,68.1,0.0,0.0,0.0,0,
26613,1862.2,15.9,151.3,68.3,0.0,0.0,0.0,0,
26713,1861.2,17.1,151.3,68.5,0.0,0.0,0.0,0,
26813,1862.2,22.3,151.3,74.0,0.0,0.0,0.0,0,
26913,1860.7,15.2,151.4,73.6,0.0,0.0,0.0,0,
27013,1861.7,16.7,151.4,66.6,0.0,0.0,0.0,0,
27113,1859.6,174.5,151.1,57.3,0.0,0.0,0.0,0,
27213,1875.5,149.8,150.2,65.4,0.0,0.0,0.0,0,
27313,1853.8,141.8,146.9,65.7,0.0,0.0,0.0,0,
27513,1863.9,182.6,138.9,66.7,0.0,0.0,0.0,0,
27613,1857.8,178.7,136.4,66.8,0.0,0.0,0.0,0,
27713,1866.5,64.0,135.4,67.0,0.0,0.0,0.0,0,
27813,1861.9,24.7,135.6,66.9,0.0,0.0,0.0,0,
27913,1862.1,12.5,135.5,66.5,0.0,0.0,0.0,0,
28013,1862.3,14.9,135.5,66.6,0.0,0.0,0.0,0,
28113,1861.4,18.1,135.5,68.1,0.0,0.0,0.0,0,
28213,1861.5,13.7,135.5,71.1,0.0,0.0,0.0,0,
28313,1862.2,13.7,135.5,71.7,0.0,0.0,0.0,0,
28513,1861.8,15.1,135.4,56.0,0.0,0.0,0.0,0,
28613,1861.0,15.3,135.4,66.6,0.0,0.0,0.0,0,
28713,1880.1,99.1,135.6,67.6,0.0,0.0,0.0,0,
28813,1836.2,154.1,137.5,65.6,0.0,0.0,0.0,0,
28913,1866.5,187.0,138.6,65.9,0.0,0.0,0.0,0,
29013,1852.8,204.0,139.1,66.2,0.0,0.0,0.0,0,
29113,1881.7,148.2,141.4,66.5,0.0,0.0,0.0,0,
29213,1845.6,135.5,142.0,66.7,0.0,0.0,0.0,0,
29313,1858.3,104.8,141.2,66.7,0.0,0.0,0.0,0,
29513,1859.3,20.8,141.5,66.5,0.0,0.0,0.0,0,
29613,1861.2,28.9,141.6,66.2,0.0,0.0,0.0,0,
29713,1862.0,14.7,141.6,70.2,0.0,0.0,0.0,0,
29813,1862.5,13.0,141.6,80.9,0.0,0.0,0.0,0,
29913,1860.9,14.1,141.6,74.1,0.0,0.0,0.0,0,
30013,1861.9,13.9,141.6,68.8,0.0,0.0,0.0,0,
30113,1861.5,14.7,141.6,72.5,0.0,0.0,0.0,0,
30213,1861.7,16.2,141.6,66.9,0.0,0.0,0.0,0,
30313,1861.4,64.8,141.6,67.0,0.0,0.0,0.0,0,
30513,1874.7,157.1,140.9,65.8,0.0,0.0,0.0,0,
30613,1860.4,144.2,139.8,66.2,0.0,0.0,0.0,0,
30713,1845.1,160.7,138.4,66.5,0.0,0.0,0.0,0,
30813,1868.9,185.3,138.4,66.6,0.0,0.0,0.0,0,
30913,1853.7,176.5,137.9,66.8,0.0,0.0,0.0,0,
31013,1869.1,36.8,138.0,66.6,0.0,0.0,0.0,0,
31113,1856.3,14.3,137.7,66.6,0.0,0.0,0.0,0,
31213,1861.5,14.2,137.7,66.6,0.0,0.0,0.0,0,
31313,1862.8,14.6,137.6,67.0,0.0,0.0,0.0,0,
31513,1860.9,15.7,137.6,69.4,0.0,0.0,0.0,0,
31613,1860.9,14.4,137.6,57.0,0.0,0.0,0.0,0,
31713,1861.7,15.1,137.6,86.3,0.0,0.0,0.0,0,
31813,1860.7,15.1,137.5,88.6,0.0,0.0,0.0,0,
31913,1861.9,14.0,137.6,88.6,0.0,0.0,0.0,0,
32013,1881.4,134.9,137.7,54.6,0.0,0.0,0.0,0,
32113,1835.2,157.1,137.7,54.7,0.0,0.0,0.0,0,
32213,1863.9,188.9,137.6,65.9,0.0,0.0,0.0,0,
32313,1864.2,185.2,137.8,66.5,0.0,0.0,0.0,0,
32513,1852.6,138.7,140.0,66.8,0.0,0.0,0.0,0,
32613,1858.1,30.7,138.6,66.8,0.0,0.0,0.0,0,
32713,1860.6,17.0,138.4,66.4,0.0,0.0,0.0,0,
32813,1862.2,15.2,138.4,66.1,0.0,0.0,0.0,0,
32913,1860.7,14.2,138.4,66.0,0.0,0.0,0.0,0,
33013,1861.6,13.5,138.4,68.9,0.0,0.0,0.0,0,
33113,1861.5,12.6,138.3,77.3,0.0,0.0,0.0,0,
33213,1862.0,14.9,138.3,87.1,0.0,0.0,0.0,0,
33313,1861.8,15.7,138.3,98.8,0.0,0.0,0.0,0,
33513,1860.9,14.8,138.3,116.3,0.0,0.0,0.0,0,
33613,1855.9,147.5,138.1,56.8,0.0,0.0,0.0,0,
33713,1867.2,191.3,138.4,55.3,0.0,0.0,0.0,0,
33813,1870.4,155.5,139.0,65.7,0.0,0.0,0.0,0,
33913,1857.8,148.0,140.2,66.1,0.0,0.0,0.0,0,
34013,1852.3,159.5,139.1,66.6,0.0,0.0,0.0,0,
34113,1858.8,196.0,138.8,66.7,0.0,0.0,0.0,0,
34213,1867.2,42.0,139.3,66.8,0.0,0.0,0.0,0,
34313,1860.8,20.6,139.3,66.7,0.0,0.0,0.0,0,
34513,1860.9,15.1,139.3,57.5,0.0,0.0,0.0,0,
34614,1861.4,13.8,139.3,56.0,0.0,0.0,0.0,0,
34714,1861.4,13.3,139.3,83.5,0.0,0.0,0.0,0,
34814,1861.8,14.4,139.3,88.2,0.0,0.0,0.0,0,
34914,1861.3,14.5,139.3,85.3,0.0,0.0,0.0,0,
35014,1861.4,14.0,139.3,88.8,0.0,0.0,0.0,0,
35114,1862.0,14.4,139.3,108.1,0.0,0.0,0.0,0,
35214,1868.3,127.3,139.3,66.6,0.0,0.0,0.0,0,
35314,1863.9,146.7,139.8,65.6,0.0,0.0,0.0,0,
35514,1858.8,209.3,141.6,66.3,0.0,0.0,0.0,0,
35614,1862.0,189.0,142.5,66.4,0.0,0.0,0.0,0,
35714,1880.2,143.2,143.7,66.7,0.0,0.0,0.0,0,
35814,1841.1,60.1,144.2,66.7,0.0,0.0,0.0,0,
35914,1861.9,21.7,144.2,66.6,0.0,0.0,0.0,0,
36014,1861.9,14.5,144.2,66.6,0.0,0.0,0.0,0,
36114,1861.0,15.3,144.2,66.5,0.0,0.0,0.0,0,
36214,1861.8,13.3,144.2,66.5,0.0,0.0,0.0,0,
36314,1861.2,15.2,144.2,86.0,0.0,0.0,0.0,0,
36514,1861.0,15.4,144.2,137.2,0.0,0.0,0.0,0,
36614,1860.9,14.8,144.2,138.4,0.0,0.0,0.0,0,
36714,1860.9,12.9,144.2,134.4,0.0,0.0,0.0,0,
36814,1864.1,117.7,145.6,66.8,0.0,0.0,0.0,0,
36914,1860.4,187.5,145.7,44.9,0.0,0.0,0.0,0,
37014,1855.1,195.0,145.0,47.6,0.0,0.0,0.0,0,
37114,1879.4,153.8,145.2,65.9,0.0,0.0,0.0,0,
37214,1849.6,149.9,144.4,66.5,0.0,0.0,0.0,0,
37314,1853.3,161.5,143.1,66.6,0.0,0.0,0.0,0,
37514,1862.4,31.5,140.8,66.5,0.0,0.0,0.0,0,
37614,1861.0,14.4,140.9,66.1,0.0,0.0,0.0,0,
37714,1861.6,13.3,140.9,65.9,0.0,0.0,0.0,0,
37814,1861.4,14.8,140.9,57.4,0.0,0.0,0.0,0,
37914,1861.5,12.9,140.9,67.9,0.0,0.0,0.0,0,
38014,1862.0,12.6,140.9,140.6,0.0,0.0,0.0,0,
38114,1860.5,14.8,140.9,156.6,0.0,0.0,0.0,0,
38214,1861.2,13.5,140.9,147.4,0.0,0.0,0.0,0,
38314,1859.9,11.8,140.9,147.0,0.0,0.0,0.0,0,
38514,1871.7,149.9,141.3,56.9,0.0,0.0,0.0,0,
38614,1863.9,149.6,139.9,65.6,0.0,0.0,0.0,0,
38714,1840.3,167.9,139.6,65.8,0.0,0.0,0.0,0,
38814,1869.9,201.4,139.1,66.3,0.0,0.0,0.0,0,
38914,1854.2,172.7,138.4,66.7,0.0,0.0,0.0,0,
39014,1885.7,140.8,138.8,66.6,0.0,0.0,0.0,0,
39114,1844.6,21.9,137.6,66.7,0.0,0.0,0.0,0,
39214,1861.4,14.4,137.6,66.2,0.0,0.0,0.0,0,
39314,1861.7,14.6,137.6,65.8,0.0,0.0,0.0,0,
39514,1862.2,15.3,137.6,68.8,0.0,0.0,0.0,0,
39614,1860.9,15.9,137.6,125.0,0.0,0.0,0.0,0,
39714,1861.3,13.4,137.6,158.3,0.0,0.0,0.0,0,
39814,1862.0,12.9,137.6,157.4,0.0,0.0,0.0,0,
39914,1861.2,14.8,137.6,133.6,0.0,0.0,0.0,0,
40014,1861.8,19.4,137.6,113.4,0.0,0.0,0.0,0,
40114,1855.8,158.2,138.0,49.0,0.0,0.0,0.0,0,
40214,1864.3,214.7,140.0,55.7,0.0,0.0,0.0,0,
40314,1865.1,204.2,142.8,66.0,0.0,0.0,0.0,0,
40514,1853.3,149.3,149.0,66.5,0.0,0.0,0.0,0,
40614,1845.9,167.7,150.0,66.8,0.0,0.0,0.0,0,
40714,1867.7,23.2,150.2,66.7,0.0,0.0,0.0,0,
40814,1861.7,20.3,150.4,66.5,0.0,0.0,0.0,0,
40914,1861.9,14.7,150.4,66.5,0.0,0.0,0.0,0,
41014,1860.7,14.2,150.4,66.5,0.0,0.0,0.0,0,
41114,1861.9,15.8,150.4,67.2,0.0,0.0,0.0,0,
41214,1862.1,13.3,150.4,71.1,0.0,0.0,0.0,0,
41314,1861.6,12.6,150.4,104.4,0.0,0.0,0.0,0,
41514,1861.3,12.9,150.4,154.2,0.0,0.0,0.0,0,
41614,1861.2,15.3,150.4,176.3,0.0,0.0,0.0,0,
41714,1862.3,185.1,151.2,48.8,0.0,0.0,0.0,0,
41814,1871.7,174.9,152.1,45.9,0.0,0.0,0.0,0,
41914,1860.1,165.1,152.6,65.5,0.0,0.0,0.0,0,
42014,1846.3,172.9,151.1,66.3,0.0,0.0,0.0,0,
42114,1860.2,216.2,150.7,66.6,0.0,0.0,0.0,0,
42214,1865.8,171.9,151.3,66.6,0.0,0.0,0.0,0,
42314,1860.8,38.5,150.6,66.8,0.0,0.0,0.0,0,
42514,1861.9,15.1,150.5,66.2,0.0,0.0,0.0,0,
42614,1861.2,14.6,150.4,66.3,0.0,0.0,0.0,0,
42714,1862.2,14.4,150.4,66.7,0.0,0.0,0.0,0,
42814,1861.8,14.1,150.4,73.2,0.0,0.0,0.0,0,
42914,1861.9,13.7,150.5,92.6,0.0,0.0,0.0,0,
43014,1861.9,14.1,150.5,147.4,0.0,0.0,0.0,0,
43114,1860.8,12.1,150.5,176.7,0.0,0.0,0.0,0,
43214,1861.1,14.5,150.5,166.9,0.0,0.0,0.0,0,
43314,1879.6,130.1,150.5,67.0,0.0,0.0,0.0,0,
43514,1858.5,232.9,150.2,65.7,0.0,0.0,0.0,0,
43614,1864.2,198.9,151.9,66.1,0.0,0.0,0.0,0,
43714,1880.0,165.1,152.4,66.6,0.0,0.0,0.0,0,
43814,1847.0,153.4,153.1,66.7,0.0,0.0,0.0,0,
43914,1861.1,49.7,152.4,66.8,0.0,0.0,0.0,0,
44014,1859.8,24.6,152.5,66.6,0.0,0.0,0.0,0,
44114,1861.9,14.5,152.4,66.0,0.0,0.0,0.0,0,
44214,1861.0,13.7,152.4,65.6,0.0,0.0,0.0,0,
44314,1862.2,14.3,152.4,66.2,0.0,0.0,0.0,0,
44514,1861.2,12.6,152.4,87.7,0.0,0.0,0.0,0,
44614,1861.0,11.7,152.4,94.2,0.0,0.0,0.0,0,
44714,1861.0,12.4,152.4,117.5,0.0,0.0,0.0,0,
44814,1861.1,12.9,152.4,88.9,0.0,0.0,0.0,0,
44914,1861.7,149.9,151.8,53.6,0.0,0.0,0.0,0,
45014,1854.5,191.2,152.4,54.6,0.0,0.0,0.0,0,
45114,1884.4,178.5,152.0,66.0,0.0,0.0,0.0,0,
45214,1846.7,167.7,151.4,66.3,0.0,0.0,0.0,0,
45314,1856.2,166.4,150.6,66.5,0.0,0.0,0.0,0,
45514,1860.3,80.3,150.1,66.8,0.0,0.0,0.0,0,
45614,1867.6,34.6,150.2,66.9,0.0,0.0,0.0,0,
45714,1856.3,14.9,150.3,66.5,0.0,0.0,0.0,0,
45814,1861.8,14.4,150.3,65.9,0.0,0.0,0.0,0,
45914,1860.9,13.7,150.3,65.9,0.0,0.0,0.0,0,
46014,1860.7,12.8,150.3,88.7,0.0,0.0,0.0,0,
46114,1860.3,13.2,150.3,108.6,0.0,0.0,0.0,0,
46214,1860.3,14.5,150.3,111.9,0.0,0.0,0.0,0,
46314,1859.8,14.1,150.3,105.0,0.0,0.0,0.0,0,
46514,1870.1,96.2,150.8,113.7,0.0,0.0,0.0,0,
46614,1863.1,142.9,150.1,44.0,0.0,0.0,0.0,0,
46714,1840.7,171.8,148.8,54.4,0.0,0.0,0.0,0,
46814,1865.5,215.7,147.7,66.1,0.0,0.0,0.0,0,
46914,1854.8,172.0,146.3,66.5,0.0,0.0,0.0,0,
47014,1883.6,152.6,146.1,66.7,0.0,0.0,0.0,0,
47114,1838.0,123.8,145.0,66.9,0.0,0.0,0.0,0,
47214,1857.8,22.3,143.7,66.8,0.0,0.0,0.0,0,
47314,1860.9,14.2,143.5,66.7,0.0,0.0,0.0,0,
47514,1860.2,12.4,143.4,67.1,0.0,0.0,0.0,0,
47614,1859.8,13.2,143.4,74.5,0.0,0.0,0.0,0,
47714,1860.3,13.8,143.4,105.4,0.0,0.0,0.0,0,
47814,1860.0,13.4,143.4,109.7,0.0,0.0,0.0,0,
47914,1859.9,13.0,143.4,137.7,0.0,0.0,0.0,0,
48014,1860.0,12.1,143.4,151.8,0.0,0.0,0.0,0,
48114,1860.0,57.8,143.5,100.4,0.0,0.0,0.0,0,
48214,1862.4,175.9,142.4,47.0,0.0,0.0,0.0,0,
48314,1854.8,200.9,143.3,46.6,0.0,0.0,0.0,0,
48514,1848.9,161.0,146.5,66.5,0.0,0.0,0.0,0,
48614,1849.0,170.6,146.1,66.6,0.0,0.0,0.0,0,
48714,1866.4,203.4,146.8,66.7,0.0,0.0,0.0,0,
48814,1858.6,20.7,147.1,66.8,0.0,0.0,0.0,0,
48914,1860.4,15.1,147.1,66.3,0.0,0.0,0.0,0,
49014,1861.3,14.4,147.2,66.1,0.0,0.0,0.0,0,
49114,1860.0,11.9,147.2,66.1,0.0,0.0,0.0,0,
49214,1860.3,14.0,147.2,73.4,0.0,0.0,0.0,0,
49314,1860.5,14.3,147.2,116.3,0.0,0.0,0.0,0,
49514,1860.1,11.9,147.2,156.5,0.0,0.0,0.0,0,
49614,1859.6,13.8,147.2,182.8,0.0,0.0,0.0,0,
49714,1860.8,14.4,147.2,166.7,0.0,0.0,0.0,0,
49814,1870.5,146.2,147.9,56.7,0.0,0.0,0.0,0,
49914,1865.3,146.9,147.0,55.8,0.0,0.0,0.0,0,
50014,1835.7,176.7,145.4,65.8,0.0,0.0,0.0,0,
50114,1869.2,201.1,144.1,66.3,0.0,0.0,0.0,0,
50214,1850.4,163.1,143.0,66.7,0.0,0.0,0.0,0,
50314,1884.2,147.2,142.4,66.7,0.0,0.0,0.0,0,
50514,1860.2,21.9,141.1,66.6,0.0,0.0,0.0,0,
50614,1860.6,15.1,141.1,66.1,0.0,0.0,0.0,0,
50714,1859.9,15.3,141.1,65.8,0.0,0.0,0.0,0,
50814,1861.0,13.7,141.1,56.9,0.0,0.0,0.0,0,
50914,1859.9,12.3,141.1,68.1,0.0,0.0,0.0,0,
51014,1860.3,14.7,141.1,91.3,0.0,0.0,0.0,0,
51114,1859.7,12.2,141.1,90.5,0.0,0.0,0.0,0,
51214,1859.3,13.9,141.1,114.8,0.0,0.0,0.0,0,
51314,1859.9,16.5,141.1,99.2,0.0,0.0,0.0,0,
51514,1863.8,196.3,139.5,65.5,0.0,0.0,0.0,0,
51614,1861.7,183.3,138.9,66.1,0.0,0.0,0.0,0,
51714,1874.1,164.8,139.5,66.3,0.0,0.0,0.0,0,
51814,1852.8,131.2,140.8,66.6,0.0,0.0,0.0,0,
51914,1845.6,164.9,139.3,66.8,0.0,0.0,0.0,0,
52014,1867.2,44.7,140.4,66.7,0.0,0.0,0.0,0,
52114,1859.2,16.2,140.0,66.7,0.0,0.0,0.0,0,
52214,1861.8,14.7,140.0,66.4,0.0,0.0,0.0,0,
52314,1859.6,14.0,140.0,65.8,0.0,0.0,0.0,0,
52514,1860.6,13.2,140.0,74.6,0.0,0.0,0.0,0,
52614,1859.7,13.5,140.0,82.3,0.0,0.0,0.0,0,
52714,1860.0,12.4,140.0,102.9,0.0,0.0,0.0,0,
52814,1860.0,12.9,140.0,104.3,0.0,0.0,0.0,0,
52914,1860.7,14.2,140.0,108.2,0.0,0.0,0.0,0,
53014,1860.3,143.5,140.4,55.3,0.0,0.0,0.0,0,
53114,1865.8,161.8,142.1,53.8,0.0,0.0,0.0,0,
53214,1863.6,149.3,143.9,65.9,0.0,0.0,0.0,0,
53314,1843.9,177.0,142.5,66.4,0.0,0.0,0.0,0,
53514,1861.1,162.7,143.4,66.6,0.0,0.0,0.0,0,
53614,1853.0,67.7,142.6,66.7,0.0,0.0,0.0,0,
53714,1861.3,29.6,142.7,66.5,0.0,0.0,0.0,0,
53814,1859.9,14.3,142.7,66.7,0.0,0.0,0.0,0,
53914,1860.0,14.4,142.7,67.2,0.0,0.0,0.0,0,
54014,1859.6,13.4,142.7,68.8,0.0,0.0,0.0,0,
54114,1859.8,13.5,142.7,78.2,0.0,0.0,0.0,0,
54214,1859.9,13.6,142.7,115.9,0.0,0.0,0.0,0,
54314,1859.8,14.8,142.7,141.9,0.0,0.0,0.0,0,
54514,1860.5,13.8,142.7,112.6,0.0,0.0,0.0,0,
54614,1880.1,91.7,142.9,88.5,0.0,0.0,0.0,0,
54714,1840.6,151.3,142.3,46.9,0.0,0.0,0.0,0,
54814,1856.3,218.3,141.9,65.4,0.0,0.0,0.0,0,
54914,1859.8,187.5,143.3,66.1,0.0,0.0,0.0,0,
55014,1877.0,165.7,143.8,66.5,0.0,0.0,0.0,0,
55114,1848.3,143.1,145.1,66.6,0.0,0.0,0.0,0,
55214,1854.8,104.9,143.9,66.7,0.0,0.0,0.0,0,
55314,1864.3,22.3,143.9,66.6,0.0,0.0,0.0,0,
55514,1860.5,14.7,143.8,65.6,0.0,0.0,0.0,0,
55614,1859.7,13.8,143.8,55.8,0.0,0.0,0.0,0,
55714,1859.0,12.3,143.8,71.3,0.0,0.0,0.0,0,
55814,1859.9,13.4,143.8,99.7,0.0,0.0,0.0,0,
55914,1859.9,14.4,143.8,93.1,0.0,0.0,0.0,0,
56014,1859.9,13.1,143.8,103.0,0.0,0.0,0.0,0,
56114,1859.9,14.0,143.8,105.6,0.0,0.0,0.0,0,
56214,1859.9,82.1,143.8,102.7,0.0,0.0,0.0,0,
56314,1855.1,179.0,144.8,65.8,0.0,0.0,0.0,0,
56514,1847.3,151.5,144.4,66.1,0.0,0.0,0.0,0,
56614,1853.7,167.2,143.0,66.3,0.0,0.0,0.0,0,
56714,1860.1,205.9,142.2,66.7,0.0,0.0,0.0,0,
56814,1863.6,174.7,141.9,66.7,0.0,0.0,0.0,0,
56914,1859.3,24.6,142.5,66.7,0.0,0.0,0.0,0,
57014,1860.2,17.7,142.5,66.4,0.0,0.0,0.0,0,
57114,1861.0,14.2,142.5,66.0,0.0,0.0,0.0,0,
57214,1859.2,12.4,142.5,66.1,0.0,0.0,0.0,0,
57314,1859.9,13.0,142.5,68.6,0.0,0.0,0.0,0,
57514,1859.5,13.5,142.5,107.9,0.0,0.0,0.0,0,
57614,1859.5,13.3,142.5,113.1,0.0,0.0,0.0,0,
57714,1860.4,13.5,142.5,110.0,0.0,0.0,0.0,0,
57814,1860.3,13.8,142.5,112.6,0.0,0.0,0.0,0,
57914,1873.0,140.0,143.4,48.6,0.0,0.0,0.0,0,
58014,1839.4,177.4,143.9,55.5,0.0,0.0,0.0,0,
58114,1862.7,207.8,145.1,66.0,0.0,0.0,0.0,0,
58214,1854.1,170.3,145.0,66.3,0.0,0.0,0.0,0,
58314,1883.2,160.9,146.2,66.6,0.0,0.0,0.0,0,
58514,1857.9,24.9,145.1,66.6,0.0,0.0,0.0,0,
58614,1860.4,16.1,145.0,66.5,0.0,0.0,0.0,0,
58714,1860.4,12.8,145.0,66.4,0.0,0.0,0.0,0,
58814,1859.6,13.3,145.0,66.1,0.0,0.0,0.0,0,
58914,1859.3,13.4,145.0,66.5,0.0,0.0,0.0,0,
59014,1859.5,12.5,145.0,123.9,0.0,0.0,0.0,0,
59114,1859.3,13.5,145.0,125.8,0.0,0.0,0.0,0,
59214,1860.2,14.6,145.0,124.7,0.0,0.0,0.0,0,
59314,1858.9,13.6,145.0,150.2,0.0,0.0,0.0,0,
59514,1861.0,176.5,145.5,55.4,0.0,0.0,0.0,0,
59614,1858.8,191.7,145.5,55.8,0.0,0.0,0.0,0,
59714,1876.5,180.5,146.7,65.9,0.0,0.0,0.0,0,
59814,1850.6,152.0,147.9,66.3,0.0,0.0,0.0,0,
59914,1843.2,180.8,147.3,66.6,0.0,0.0,0.0,0,
60014,1868.5,196.9,147.9,66.7,0.0,0.0,0.0,0,
60114,1859.0,37.9,147.3,66.9,0.0,0.0,0.0,0,
60214,1858.4,21.1,147.4,66.5,0.0,0.0,0.0,0,
60314,1861.1,13.6,147.4,66.4,0.0,0.0,0.0,0,
60514,1859.3,12.5,147.4,69.5,0.0,0.0,0.0,0,
60614,1860.5,13.6,147.4,86.7,0.0,0.0,0.0,0,
60714,1859.0,12.5,147.4,123.8,0.0,0.0,0.0,0,
60814,1859.2,11.4,147.4,139.0,0.0,0.0,0.0,0,
60914,1859.6,15.2,147.4,147.0,0.0,0.0,0.0,0,
61014,1860.5,16.0,147.4,106.4,0.0,0.0,0.0,0,
61114,1865.6,135.4,147.7,72.6,0.0,0.0,0.0,0,
61214,1870.8,139.1,145.9,66.3,0.0,0.0,0.0,0,
61314,1838.1,184.2,143.7,66.1,0.0,0.0,0.0,0,
61514,1860.5,172.5,142.7,66.6,0.0,0.0,0.0,0,
61614,1879.8,164.4,142.9,66.7,0.0,0.0,0.0,0,
61714,1843.1,53.6,142.6,66.8,0.0,0.0,0.0,0,
61814,1860.8,18.0,142.5,66.7,0.0,0.0,0.0,0,
61914,1860.0,14.1,142.5,66.1,0.0,0.0,0.0,0,
62014,1860.6,11.8,142.5,65.5,0.0,0.0,0.0,0,
62114,1859.9,12.7,142.5,57.1,0.0,0.0,0.0,0,
62214,1860.3,13.7,142.5,106.2,0.0,0.0,0.0,0,
62314,1860.0,12.9,142.5,132.4,0.0,0.0,0.0,0,
62514,1860.1,13.9,142.5,172.5,0.0,0.0,0.0,0,
62614,1860.2,11.9,142.5,132.4,0.0,0.0,0.0,0,
62714,1861.4,113.6,142.6,67.4,0.0,0.0,0.0,0,
62814,1853.7,184.3,142.6,65.6,0.0,0.0,0.0,0,
62914,1865.6,170.7,141.8,66.2,0.0,0.0,0.0,0,
63014,1871.3,167.1,140.5,66.4,0.0,0.0,0.0,0,
63114,1855.5,127.1,140.7,66.5,0.0,0.0,0.0,0,
63214,1849.3,180.6,137.5,66.8,0.0,0.0,0.0,0,
63314,1862.9,87.6,137.4,66.7,0.0,0.0,0.0,0,
63514,1860.6,13.1,137.4,66.4,0.0,0.0,0.0,0,
63614,1859.9,13.1,137.4,65.9,0.0,0.0,0.0,0,
63714,1860.4,14.0,137.4,65.5,0.0,0.0,0.0,0,
63814,1859.7,13.7,137.4,99.5,0.0,0.0,0.0,0,
63914,1860.2,11.8,137.4,137.7,0.0,0.0,0.0,0,
64014,1860.6,13.8,137.4,144.9,0.0,0.0,0.0,0,
64114,1859.5,13.1,137.4,164.1,0.0,0.0,0.0,0,
64214,1860.4,12.6,137.4,153.3,0.0,0.0,0.0,0,
64314,1860.5,99.1,137.4,107.3,0.0,0.0,0.0,0,
64514,1857.3,152.4,141.2,65.5,0.0,0.0,0.0,0,
64614,1849.8,178.3,142.5,66.3,0.0,0.0,0.0,0,
64714,1854.5,211.4,144.4,66.6,0.0,0.0,0.0,0,
64814,1867.1,175.0,147.1,66.7,0.0,0.0,0.0,0,
64914,1872.6,165.1,148.3,66.9,0.0,0.0,0.0,0,
65014,1840.1,22.1,147.9,66.6,0.0,0.0,0.0,0,
65114,1859.8,17.0,148.0,66.6,0.0,0.0,0.0,0,
65214,1860.8,13.5,148.1,66.9,0.0,0.0,0.0,0,
65314,1860.3,12.9,148.1,67.4,0.0,0.0,0.0,0,
65514,1861.0,14.9,148.1,98.9,0.0,0.0,0.0,0,
65614,1859.8,14.9,148.1,140.8,0.0,0.0,0.0,0,
65714,1860.3,12.3,148.1,142.7,0.0,0.0,0.0,0,
65814,1861.0,14.0,148.1,122.1,0.0,0.0,0.0,0,
65914,1859.6,14.2,148.1,109.0,0.0,0.0,0.0,0,
66014,1862.9,149.8,147.9,51.3,0.0,0.0,0.0,0,
66114,1857.6,198.1,146.1,56.4,0.0,0.0,0.0,0,
66214,1859.5,184.3,144.7,65.9,0.0,0.0,0.0,0,
66314,1880.4,164.5,145.0,66.5,0.0,0.0,0.0,0,
66514,1857.6,166.7,142.8,66.7,0.0,0.0,0.0,0,
66614,1863.6,23.8,141.7,66.9,0.0,0.0,0.0,0,
66714,1860.3,16.7,141.6,66.2,0.0,0.0,0.0,0,
66814,1860.3,14.3,141.6,65.8,0.0,0.0,0.0,0,
66914,1858.9,12.1,141.6,57.5,0.0,0.0,0.0,0,
67014,1860.0,14.4,141.6,57.3,0.0,0.0,0.0,0,
67114,1859.6,14.2,141.6,109.1,0.0,0.0,0.0,0,
67214,1860.8,13.0,141.6,132.9,0.0,0.0,0.0,0,
67314,1859.6,14.2,141.6,132.0,0.0,0.0,0.0,0,
67514,1860.0,14.5,141.6,122.1,0.0,0.0,0.0,0,
67614,1855.6,156.3,141.5,66.1,0.0,0.0,0.0,0,
67714,1881.3,168.1,142.4,66.2,0.0,0.0,0.0,0,
67814,1844.8,144.9,142.9,66.2,0.0,0.0,0.0,0,
67914,1856.1,178.2,140.6,66.4,0.0,0.0,0.0,0,
68014,1861.4,204.3,140.6,66.9,0.0,0.0,0.0,0,
68114,1860.8,169.8,140.1,66.9,0.0,0.0,0.0,0,
68214,1861.8,34.3,140.6,67.0,0.0,0.0,0.0,0,
68314,1859.0,13.7,140.5,66.7,0.0,0.0,0.0,0,
68514,1860.1,14.3,140.5,65.6,0.0,0.0,0.0,0,
68614,1859.6,12.4,140.5,56.6,0.0,0.0,0.0,0,
68714,1859.9,13.0,140.5,99.2,0.0,0.0,0.0,0,
68814,1860.8,13.3,140.5,158.5,0.0,0.0,0.0,0,
68914,1859.8,13.5,140.5,142.5,0.0,0.0,0.0,0,
69014,1860.0,12.9,140.5,138.9,0.0,0.0,0.0,0,
69114,1860.4,12.4,140.5,144.4,0.0,0.0,0.0,0,
69214,1875.9,111.9,140.9,56.3,0.0,0.0,0.0,0,
69314,1836.0,172.0,141.6,49.8,0.0,0.0,0.0,0,
69514,1853.1,179.1,142.6,66.3,0.0,0.0,0.0,0,
69614,1886.3,161.8,144.4,66.6,0.0,0.0,0.0,0,
69714,1839.9,132.1,144.0,66.9,0.0,0.0,0.0,0,
69814,1857.1,51.0,142.2,66.8,0.0,0.0,0.0,0,
69914,1860.1,14.2,142.2,66.6,0.0,0.0,0.0,0,
70014,1861.2,15.1,142.2,66.4,0.0,0.0,0.0,0,
70114,1859.6,14.4,142.2,65.9,0.0,0.0,0.0,0,
70214,1859.9,12.5,142.2,57.1,0.0,0.0,0.0,0,
70314,1860.2,13.6,142.2,106.8,0.0,0.0,0.0,0,
70514,1860.1,11.9,142.2,111.0,0.0,0.0,0.0,0,
70614,1860.8,13.3,142.2,98.9,0.0,0.0,0.0,0,
70714,1860.0,15.1,142.2,112.7,0.0,0.0,0.0,0,
70814,1862.9,131.1,141.8,65.5,0.0,0.0,0.0,0,
70914,1859.2,170.8,140.7,45.3,0.0,0.0,0.0,0,
71014,1873.7,172.3,141.6,54.5,0.0,0.0,0.0,0,
71114,1853.0,130.2,140.8,66.2,0.0,0.0,0.0,0,
71214,1844.2,181.8,140.2,66.6,0.0,0.0,0.0,0,
71314,1866.3,186.3,140.5,66.7,0.0,0.0,0.0,0,
71514,1860.6,19.3,139.7,66.6,0.0,0.0,0.0,0,
71614,1860.1,13.1,139.8,66.4,0.0,0.0,0.0,0,
71714,1859.6,12.6,139.7,66.5,0.0,0.0,0.0,0,
71814,1860.0,13.5,139.7,67.2,0.0,0.0,0.0,0,
71914,1860.0,13.2,139.7,103.9,0.0,0.0,0.0,0,
72014,1859.8,12.4,139.7,146.5,0.0,0.0,0.0,0,
72114,1860.0,13.5,139.7,140.6,0.0,0.0,0.0,0,
72214,1859.7,13.5,139.7,147.5,0.0,0.0,0.0,0,
72314,1859.9,12.1,139.7,186.7,0.0,0.0,0.0,0,
72514,1867.5,128.2,141.7,66.3,0.0,0.0,0.0,0,
72614,1841.4,190.3,140.0,66.0,0.0,0.0,0.0,0,
72714,1860.5,210.3,141.7,66.1,0.0,0.0,0.0,0,
72814,1862.1,162.9,140.9,66.6,0.0,0.0,0.0,0,
72914,1874.4,143.3,142.2,66.7,0.0,0.0,0.0,0,
73014,1848.2,116.5,143.0,66.9,0.0,0.0,0.0,0,
73114,1858.2,26.5,141.9,67.0,0.0,0.0,0.0,0,
73214,1859.9,14.1,142.0,66.3,0.0,0.0,0.0,0,
73314,1859.9,13.6,142.0,66.0,0.0,0.0,0.0,0,
73514,1859.3,12.2,142.0,74.7,0.0,0.0,0.0,0,
73614,1860.7,12.8,142.0,84.9,0.0,0.0,0.0,0,
73714,1859.9,13.8,142.0,106.7,0.0,0.0,0.0,0,
73814,1860.9,11.7,142.0,134.9,0.0,0.0,0.0,0,
73914,1860.5,14.2,142.0,151.6,0.0,0.0,0.0,0,
74014,1860.5,49.5,142.0,155.8,0.0,0.0,0.0,0,
74114,1854.3,180.1,142.5,52.9,0.0,0.0,0.0,0,
74214,1863.5,199.0,143.8,65.8,0.0,0.0,0.0,0,
74314,1873.2,168.0,144.4,66.2,0.0,0.0,0.0,0,
74514,1855.5,181.2,143.7,66.9,0.0,0.0,0.0,0,
74614,1855.1,190.0,144.6,67.0,0.0,0.0,0.0,0,
74714,1862.3,21.4,144.7,67.0,0.0,0.0,0.0,0,
74814,1859.7,13.1,144.6,66.9,0.0,0.0,0.0,0,
74914,1860.1,12.3,144.6,66.6,0.0,0.0,0.0,0,
75014,1860.0,11.9,144.6,66.0,0.0,0.0,0.0,0,
75114,1859.8,13.5,144.6,67.3,0.0,0.0,0.0,0,
75214,1860.6,13.5,144.6,157.0,0.0,0.0,0.0,0,
75314,1859.5,13.0,144.6,123.8,0.0,0.0,0.0,0,
75514,1859.1,15.1,144.6,115.3,0.0,0.0,0.0,0,
75614,1859.2,18.6,144.6,102.2,0.0,0.0,0.0,0,
75714,1873.8,152.7,145.3,55.8,0.0,0.0,0.0,0,
75814,1854.0,158.4,146.5,48.9,0.0,0.0,0.0,0,
75914,1849.5,192.6,147.1,65.9,0.0,0.0,0.0,0,
76014,1858.9,204.3,147.3,66.5,0.0,0.0,0.0,0,
76114,1864.2,183.4,147.4,66.6,0.0,0.0,0.0,0,
76214,1877.2,138.9,146.7,66.9,0.0,0.0,0.0,0,
76314,1837.0,27.9,145.6,66.9,0.0,0.0,0.0,0,
76514,1859.3,12.1,145.8,66.8,0.0,0.0,0.0,0,
76614,1859.9,13.7,145.8,67.9,0.0,0.0,0.0,0,
76714,1860.6,12.4,145.8,72.7,0.0,0.0,0.0,0,
76814,1860.0,11.7,145.8,94.1,0.0,0.0,0.0,0,
76914,1860.5,13.2,145.8,134.1,0.0,0.0,0.0,0,
77014,1860.4,11.8,145.8,125.8,0.0,0.0,0.0,0,
77114,1860.0,13.5,145.8,132.2,0.0,0.0,0.0,0,
77214,1860.0,13.1,145.8,112.8,0.0,0.0,0.0,0,
77314,1859.7,155.3,146.7,54.9,0.0,0.0,0.0,0,
77514,1850.9,200.5,147.0,65.6,0.0,0.0,0.0,0,
77614,1887.4,168.7,148.7,66.2,0.0,0.0,0.0,0,
77714,1839.2,146.5,148.7,66.8,0.0,0.0,0.0,0,
77814,1859.0,170.8,148.3,66.7,0.0,0.0,0.0,0,
77914,1866.6,41.8,148.3,67.0,0.0,0.0,0.0,0,
78014,1859.2,14.8,148.1,66.5,0.0,0.0,0.0,0,
78114,1861.3,13.6,148.1,65.8,0.0,0.0,0.0,0,
78214,1859.3,12.4,148.1,56.9,0.0,0.0,0.0,0,
78314,1860.2,13.0,148.1,56.8,0.0,0.0,0.0,0,
78514,1859.8,13.9,148.1,133.3,0.0,0.0,0.0,0,
78614,1860.1,11.6,148.1,108.0,0.0,0.0,0.0,0,
78714,1860.3,13.6,148.1,106.7,0.0,0.0,0.0,0,
78814,1859.9,13.8,148.1,111.2,0.0,0.0,0.0,0,
78914,1858.0,151.0,147.4,67.4,0.0,0.0,0.0,0,
79014,1873.5,167.1,147.9,55.1,0.0,0.0,0.0,0,
79114,1858.5,138.1,146.3,65.9,0.0,0.0,0.0,0,
79214,1842.8,180.9,143.9,66.3,0.0,0.0,0.0,0,
79314,1868.5,188.6,143.5,66.6,0.0,0.0,0.0,0,
79514,1861.0,63.2,141.3,66.7,0.0,0.0,0.0,0,
79614,1860.8,14.1,141.3,66.7,0.0,0.0,0.0,0,
79714,1860.4,12.9,141.3,66.4,0.0,0.0,0.0,0,
79814,1859.4,12.4,141.3,66.0,0.0,0.0,0.0,0,
79914,1860.4,12.6,141.3,65.7,0.0,0.0,0.0,0,
80014,1860.1,13.0,141.3,169.2,0.0,0.0,0.0,0,
80114,1859.9,12.6,141.3,177.6,0.0,0.0,0.0,0,
80214,1860.3,13.4,141.3,166.0,0.0,0.0,0.0,0,
80314,1859.8,11.9,141.3,102.6,0.0,0.0,0.0,0,
80514,1879.7,88.8,141.4,73.4,0.0,0.0,0.0,0,
80614,1835.1,174.1,139.3,54.1,0.0,0.0,0.0,0,
80714,1862.0,200.2,139.2,65.7,0.0,0.0,0.0,0,
80814,1860.6,187.7,138.5,66.3,0.0,0.0,0.0,0,
80914,1877.0,148.2,139.9,66.6,0.0,0.0,0.0,0,
81014,1848.2,138.0,141.1,66.6,0.0,0.0,0.0,0,
81114,1847.1,107.7,139.8,66.9,0.0,0.0,0.0,0,
81214,1861.9,18.1,139.8,66.6,0.0,0.0,0.0,0,
81314,1860.4,12.2,139.8,66.5,0.0,0.0,0.0,0,
81514,1859.0,12.2,139.8,66.6,0.0,0.0,0.0,0,
81614,1859.7,12.3,139.9,66.9,0.0,0.0,0.0,0,
81714,1859.9,13.4,139.8,112.2,0.0,0.0,0.0,0,
81814,1860.1,14.1,139.8,122.2,0.0,0.0,0.0,0,
81914,1859.7,11.1,139.8,139.8,0.0,0.0,0.0,0,
82014,1859.9,17.9,139.9,149.2,0.0,0.0,0.0,0,
82114,1860.5,80.3,139.9,106.0,0.0,0.0,0.0,0,
82214,1863.9,178.5,140.6,39.3,0.0,0.0,0.0,0,
82314,1871.6,164.4,142.0,39.0,0.0,0.0,0.0,0,
82514,1850.3,178.0,141.7,66.5,0.0,0.0,0.0,0,
82614,1860.2,187.9,142.6,66.7,0.0,0.0,0.0,0,
82714,1865.4,171.7,142.2,66.7,0.0,0.0,0.0,0,
82814,1858.1,19.1,141.9,66.7,0.0,0.0,0.0,0,
82914,1860.0,14.4,141.9,66.1,0.0,0.0,0.0,0,
83014,1860.7,11.6,141.9,65.6,0.0,0.0,0.0,0,
83114,1860.6,12.4,141.9,56.3,0.0,0.0,0.0,0,
83214,1860.7,13.7,141.9,66.5,0.0,0.0,0.0,0,
83314,1860.3,13.3,141.9,152.0,0.0,0.0,0.0,0,
83514,1860.1,13.6,141.9,107.8,0.0,0.0,0.0,0,
83614,1860.4,13.8,141.9,123.0,0.0,0.0,0.0,0,
83714,1860.6,13.3,141.9,101.0,0.0,0.0,0.0,0,
83814,1867.9,131.5,142.7,66.0,0.0,0.0,0.0,0,
83914,1848.6,179.9,142.2,66.0,0.0,0.0,0.0,0,
84014,1857.8,201.3,141.7,66.2,0.0,0.0,0.0,0,
84114,1865.8,189.9,142.0,66.4,0.0,0.0,0.0,0,
84214,1874.4,147.5,142.5,66.8,0.0,0.0,0.0,0,
84314,1843.0,132.9,142.4,66.8,0.0,0.0,0.0,0,
84514,1857.8,14.0,141.2,66.7,0.0,0.0,0.0,0,
84614,1859.8,12.6,141.2,66.0,0.0,0.0,0.0,0,
84714,1860.2,14.0,141.2,56.3,0.0,0.0,0.0,0,
84814,1859.8,13.1,141.2,66.8,0.0,0.0,0.0,0,
84914,1860.3,12.8,141.2,122.2,0.0,0.0,0.0,0,
85014,1859.8,12.5,141.2,132.4,0.0,0.0,0.0,0,
85114,1859.7,13.3,141.2,117.5,0.0,0.0,0.0,0,
85214,1859.7,12.9,141.2,110.2,0.0,0.0,0.0,0,
85314,1860.5,12.6,141.2,109.8,0.0,0.0,0.0,0,
85514,1857.3,189.4,139.8,55.7,0.0,0.0,0.0,0,
85614,1886.0,154.7,140.6,66.1,0.0,0.0,0.0,0,
85714,1839.0,149.8,140.8,66.5,0.0,0.0,0.0,0,
85814,1860.0,165.9,139.3,66.7,0.0,0.0,0.0,0,
85914,1858.2,190.6,137.8,66.8,0.0,0.0,0.0,0,
86014,1859.3,42.2,138.1,66.8,0.0,0.0,0.0,0,
86114,1859.5,14.9,138.1,66.8,0.0,0.0,0.0,0,
86214,1861.3,13.3,138.1,66.7,0.0,0.0,0.0,0,
86314,1860.2,13.7,138.1,66.4,0.0,0.0,0.0,0,
86514,1860.8,13.0,138.1,112.5,0.0,0.0,0.0,0,
86614,1859.8,13.4,138.1,198.2,0.0,0.0,0.0,0,
86714,1860.0,11.9,138.1,171.4,0.0,0.0,0.0,0,
86814,1860.3,14.7,138.1,149.7,0.0,0.0,0.0,0,
86914,1860.3,12.3,138.1,105.3,0.0,0.0,0.0,0,
87014,1876.6,124.0,138.8,56.9,0.0,0.0,0.0,0,
87114,1859.4,143.3,138.0,44.0,0.0,0.0,0.0,0,
87214,1842.8,181.0,138.0,54.5,0.0,0.0,0.0,0,
87314,1866.0,190.4,137.6,66.1,0.0,0.0,0.0,0,
87514,1881.0,126.9,138.1,66.7,0.0,0.0,0.0,0,
87614,1839.1,51.8,136.1,66.9,0.0,0.0,0.0,0,
87714,1859.8,15.9,136.0,66.5,0.0,0.0,0.0,0,
87814,1860.4,13.3,136.0,65.9,0.0,0.0,0.0,0,
87914,1859.7,11.8,136.0,65.7,0.0,0.0,0.0,0,
88014,1859.6,13.1,136.0,57.0,0.0,0.0,0.0,0,
88114,1860.0,13.6,136.0,151.5,0.0,0.0,0.0,0,
88214,1859.5,12.2,136.0,156.1,0.0,0.0,0.0,0,
88314,1859.7,12.6,136.0,89.1,0.0,0.0,0.0,0,
88514,1859.5,12.5,136.0,158.7,0.0,0.0,0.0,0,
88614,1859.2,124.2,136.8,67.1,0.0,0.0,0.0,0,
88714,1860.0,176.5,136.5,65.9,0.0,0.0,0.0,0,
88814,1857.6,189.3,135.7,66.1,0.0,0.0,0.0,0,
88914,1882.4,153.7,137.9,66.2,0.0,0.0,0.0,0,
89014,1845.9,143.1,137.8,66.7,0.0,0.0,0.0,0,
89114,1847.8,167.1,138.0,66.9,0.0,0.0,0.0,0,
89214,1867.6,81.8,139.6,66.9,0.0,0.0,0.0,0,
89314,1860.7,15.9,139.6,66.9,0.0,0.0,0.0,0,
89514,1860.5,11.9,139.6,65.7,0.0,0.0,0.0,0,
89614,1859.8,13.1,139.6,56.4,0.0,0.0,0.0,0,
89714,1859.8,12.4,139.6,122.1,0.0,0.0,0.0,0,
89814,1859.8,13.1,139.6,168.9,0.0,0.0,0.0,0,
89914,1859.5,13.1,139.6,166.2,0.0,0.0,0.0,0,
90014,1859.6,12.3,139.6,195.0,0.0,0.0,0.0,0,
90114,1859.6,13.4,139.6,177.5,0.0,0.0,0.0,0,
90214,1860.1,110.7,139.6,204.0,0.0,0.0,0.0,0,
90314,1869.4,151.3,141.5,50.7,0.0,0.0,0.0,0,
90514,1846.3,180.9,140.9,66.2,0.0,0.0,0.0,0,
90614,1863.4,191.2,140.0,66.5,0.0,0.0,0.0,0,
90714,1863.4,183.6,139.8,66.8,0.0,0.0,0.0,0,
90814,1876.5,138.2,139.6,66.9,0.0,0.0,0.0,0,
90914,1841.5,19.6,138.9,66.7,0.0,0.0,0.0,0,
91014,1860.7,13.3,138.9,66.5,0.0,0.0,0.0,0,
91114,1860.0,12.4,138.9,66.2,0.0,0.0,0.0,0,
91214,1859.7,13.0,138.9,65.7,0.0,0.0,0.0,0,
91314,1859.5,12.3,138.9,67.5,0.0,0.0,0.0,0,
91514,1859.8,12.6,138.9,172.4,0.0,0.0,0.0,0,
91614,1860.2,12.7,138.9,117.9,0.0,0.0,0.0,0,
91714,1859.7,12.8,138.9,113.9,0.0,0.0,0.0,0,
91814,1859.3,22.3,138.9,122.9,0.0,0.0,0.0,0,
91914,1860.8,159.0,138.8,49.7,0.0,0.0,0.0,0,
92014,1854.4,199.9,138.7,53.9,0.0,0.0,0.0,0,
92114,1866.0,195.4,139.4,66.0,0.0,0.0,0.0,0,
92214,1870.4,157.4,141.8,66.6,0.0,0.0,0.0,0,
92314,1849.6,156.0,143.2,66.8,0.0,0.0,0.0,0,
92514,1857.0,23.1,142.4,66.9,0.0,0.0,0.0,0,
92614,1860.0,12.6,142.4,66.5,0.0,0.0,0.0,0,
92714,1859.6,12.8,142.4,66.7,0.0,0.0,0.0,0,
92814,1860.2,12.5,142.4,67.1,0.0,0.0,0.0,0,
92914,1860.0,13.4,142.4,69.5,0.0,0.0,0.0,0,
93014,1859.8,13.7,142.4,178.0,0.0,0.0,0.0,0,
93114,1859.9,12.1,142.4,139.1,0.0,0.0,0.0,0,
93214,1859.7,14.0,142.4,137.4,0.0,0.0,0.0,0,
93314,1860.0,13.6,142.4,187.0,0.0,0.0,0.0,0,
93514,1858.4,163.7,142.1,65.5,0.0,0.0,0.0,0,
93614,1880.8,138.5,141.4,65.7,0.0,0.0,0.0,0,
93714,1844.7,150.1,140.7,65.9,0.0,0.0,0.0,0,
93814,1856.2,164.0,138.9,66.4,0.0,0.0,0.0,0,
93914,1854.2,192.2,137.7,67.0,0.0,0.0,0.0,0,
94014,1869.9,177.6,137.2,66.8,0.0,0.0,0.0,0,
94114,1859.1,30.7,137.1,67.0,0.0,0.0,0.0,0,
94214,1858.6,17.0,137.1,66.5,0.0,0.0,0.0,0,
94314,1860.8,14.2,137.1,66.0,0.0,0.0,0.0,0,
94514,1859.5,11.9,137.1,57.0,0.0,0.0,0.0,0,
94614,1860.5,12.6,137.1,122.7,0.0,0.0,0.0,0,
94714,1859.6,12.9,137.1,133.8,0.0,0.0,0.0,0,
94814,1859.5,13.6,137.1,131.4,0.0,0.0,0.0,0,
94914,1860.0,13.7,137.1,133.5,0.0,0.0,0.0,0,
95014,1860.4,13.7,137.1,117.1,0.0,0.0,0.0,0,
95114,1867.5,126.8,137.6,69.6,0.0,0.0,0.0,0,
95214,1849.2,162.6,136.4,66.6,0.0,0.0,0.0,0,
95314,1862.3,188.8,135.2,66.6,0.0,0.0,0.0,0,
95514,1882.1,127.4,134.9,66.9,0.0,0.0,0.0,0,
95614,1834.2,152.5,135.3,67.1,0.0,0.0,0.0,0,
95714,1863.8,48.6,134.3,67.1,0.0,0.0,0.0,0,
95814,1858.9,19.9,134.4,66.9,0.0,0.0,0.0,0,
95914,1860.4,14.0,134.4,66.3,0.0,0.0,0.0,0,
96014,1859.5,12.9,134.4,65.5,0.0,0.0,0.0,0,
96114,1860.0,11.8,134.4,65.5,0.0,0.0,0.0,0,
96214,1860.1,12.7,134.4,88.4,0.0,0.0,0.0,0,
96314,1860.2,12.8,134.4,110.7,0.0,0.0,0.0,0,
96514,1860.6,14.5,134.4,140.6,0.0,0.0,0.0,0,
96614,1860.3,13.6,134.4,122.5,0.0,0.0,0.0,0,
96714,1863.3,129.8,134.3,56.9,0.0,0.0,0.0,0,
96814,1848.8,172.0,133.4,52.7,0.0,0.0,0.0,0,
96914,1888.0,141.9,135.6,65.9,0.0,0.0,0.0,0,
97014,1843.8,165.4,135.3,66.5,0.0,0.0,0.0,0,
97114,1854.0,156.8,134.4,66.8,0.0,0.0,0.0,0,
97214,1866.6,195.8,133.8,67.2,0.0,0.0,0.0,0,
97314,1850.9,74.2,134.2,67.3,0.0,0.0,0.0,0,
97514,1860.0,13.2,134.1,66.8,0.0,0.0,0.0,0,
97614,1860.1,12.9,134.1,66.7,0.0,0.0,0.0,0,
97714,1859.7,14.7,134.1,66.9,0.0,0.0,0.0,0,
97814,1860.2,14.2,134.1,100.9,0.0,0.0,0.0,0,
97914,1860.3,12.5,134.1,102.1,0.0,0.0,0.0,0,
98014,1859.7,13.4,134.1,100.1,0.0,0.0,0.0,0,
98114,1860.3,12.3,134.1,100.0,0.0,0.0,0.0,0,
98214,1860.9,12.9,134.1,136.9,0.0,0.0,0.0,0,
98314,1873.7,79.1,134.7,116.6,0.0,0.0,0.0,0,
98514,1839.3,172.5,136.0,56.3,0.0,0.0,0.0,0,
98614,1870.6,201.3,136.4,66.1,0.0,0.0,0.0,0,
98714,1852.8,174.8,135.8,66.7,0.0,0.0,0.0,0,
98814,1883.6,140.8,135.8,66.9,0.0,0.0,0.0,0,
98914,1839.9,126.1,135.1,67.2,0.0,0.0,0.0,0,
99014,1858.9,18.6,134.3,67.0,0.0,0.0,0.0,0,
99114,1859.9,12.3,134.3,66.6,0.0,0.0,0.0,0,
99214,1860.3,13.1,134.3,66.7,0.0,0.0,0.0,0,
99314,1860.3,12.9,134.3,67.3,0.0,0.0,0.0,0,
99514,1859.7,13.4,134.3,117.9,0.0,0.0,0.0,0,
99614,1859.5,12.9,134.3,114.4,0.0,0.0,0.0,0,
99714,1859.8,12.8,134.3,117.0,0.0,0.0,0.0,0,
99814,1859.6,14.2,134.3,125.8,0.0,0.0,0.0,0,
99914,1860.3,60.1,134.3,143.1,0.0,0.0,0.0,0,
100014,1859.8,174.6,134.8,65.5,0.0,0.0,0.0,0,
100114,1860.4,180.4,134.6,65.8,0.0,0.0,0.0,0,
100214,1879.0,146.8,135.3,65.9,0.0,0.0,0.0,0,
100314,1849.6,142.1,134.9,66.4,0.0,0.0,0.0,0,
100514,1867.6,197.8,133.4,67.0,0.0,0.0,0.0,0,
100614,1861.3,22.7,134.3,67.6,0.0,0.0,0.0,0,
100714,1860.0,14.0,134.3,66.6,0.0,0.0,0.0,0,
100814,1860.8,14.2,134.3,65.9,0.0,0.0,0.0,0,
100914,1860.0,12.7,134.3,57.3,0.0,0.0,0.0,0,
101014,1859.7,13.3,134.3,66.0,0.0,0.0,0.0,0,
101114,1860.2,12.4,134.3,164.8,0.0,0.0,0.0,0,
101214,1859.6,12.1,134.3,169.4,0.0,0.0,0.0,0,
101314,1859.8,13.1,134.3,136.3,0.0,0.0,0.0,0,
101514,1859.2,14.0,134.3,146.1,0.0,0.0,0.0,0,
101614,1866.0,122.7,134.3,65.5,0.0,0.0,0.0,0,
101714,1861.3,144.6,133.8,66.1,0.0,0.0,0.0,0,
101814,1847.8,176.9,132.7,66.4,0.0,0.0,0.0,0,
101914,1856.8,194.4,132.8,66.5,0.0,0.0,0.0,0,
102014,1867.6,165.1,133.4,66.9,0.0,0.0,0.0,0,
102114,1871.8,139.7,133.6,67.2,0.0,0.0,0.0,0,
102214,1843.1,28.1,131.9,67.0,0.0,0.0,0.0,0,
102314,1858.6,13.6,131.9,66.8,0.0,0.0,0.0,0,
102514,1859.5,13.5,131.8,66.2,0.0,0.0,0.0,0,
102614,1859.8,13.8,131.8,65.7,0.0,0.0,0.0,0,
102714,1859.7,12.6,131.8,168.3,0.0,0.0,0.0,0,
102814,1860.4,13.7,131.9,149.8,0.0,0.0,0.0,0,
102914,1859.7,13.9,131.9,149.6,0.0,0.0,0.0,0,
103014,1860.3,13.2,131.9,144.2,0.0,0.0,0.0,0,
103114,1859.3,12.0,131.9,133.0,0.0,0.0,0.0,0,
103214,1861.8,137.7,132.8,46.1,0.0,0.0,0.0,0,
103314,1852.2,215.0,133.7,39.7,0.0,0.0,0.0,0,
103514,1874.9,155.9,138.0,66.4,0.0,0.0,0.0,0,
103614,1843.3,152.5,140.4,66.8,0.0,0.0,0.0,0,
103714,1860.5,161.8,139.7,67.2,0.0,0.0,0.0,0,
103814,1853.2,40.2,140.2,67.2,0.0,0.0,0.0,0,
103914,1859.5,13.1,140.2,66.9,0.0,0.0,0.0,0,
104014,1859.8,12.5,140.2,67.2,0.0,0.0,0.0,0,
104114,1859.8,13.9,140.2,68.5,0.0,0.0,0.0,0,
104214,1860.4,14.2,140.2,69.5,0.0,0.0,0.0,0,
104314,1859.0,13.9,140.2,148.3,0.0,0.0,0.0,0,
104514,1860.0,12.8,140.2,194.8,0.0,0.0,0.0,0,
104614,1859.6,13.5,140.2,154.6,0.0,0.0,0.0,0,
104714,1858.6,19.4,140.2,153.3,0.0,0.0,0.0,0,
104814,1862.7,144.3,140.5,54.6,0.0,0.0,0.0,0,
104914,1880.4,126.7,139.6,45.7,0.0,0.0,0.0,0,
105014,1840.8,146.6,136.0,55.1,0.0,0.0,0.0,0,
105114,1860.8,154.4,133.8,66.1,0.0,0.0,0.0,0,
105214,1857.1,189.3,129.3,66.9,0.0,0.0,0.0,0,
105314,1864.3,166.1,129.0,66.9,0.0,0.0,0.0,0,
105514,1861.0,16.4,126.9,66.9,0.0,0.0,0.0,0,
105614,1860.2,13.8,126.9,66.3,0.0,0.0,0.0,0,
105714,1859.9,12.2,126.9,66.2,0.0,0.0,0.0,0,
105814,1859.5,12.4,126.9,66.2,0.0,0.0,0.0,0,
105914,1860.7,13.1,126.9,153.3,0.0,0.0,0.0,0,
106014,1859.6,13.6,126.9,135.5,0.0,0.0,0.0,0,
106114,1859.7,13.3,126.8,103.6,0.0,0.0,0.0,0,
106214,1860.3,13.4,126.8,138.7,0.0,0.0,0.0,0,
106314,1860.3,14.0,126.8,158.7,0.0,0.0,0.0,0,
106514,1846.2,151.6,127.2,66.7,0.0,0.0,0.0,0,
106614,1865.5,192.9,126.9,66.3,0.0,0.0,0.0,0,
106714,1857.0,170.0,128.5,66.3,0.0,0.0,0.0,0,
106814,1883.8,133.7,129.9,66.8,0.0,0.0,0.0,0,
106914,1833.3,152.5,131.6,67.1,0.0,0.0,0.0,0,
107014,1866.3,89.1,131.7,67.1,0.0,0.0,0.0,0,
107114,1859.3,16.2,131.7,67.2,0.0,0.0,0.0,0,
107214,1860.0,12.8,131.7,66.7,0.0,0.0,0.0,0,
107314,1860.2,13.8,131.7,66.4,0.0,0.0,0.0,0,
107514,1859.3,12.4,131.7,84.5,0.0,0.0,0.0,0,
107614,1859.9,14.0,131.7,132.7,0.0,0.0,0.0,0,
107714,1860.0,14.3,131.7,185.5,0.0,0.0,0.0,0,
107814,1861.0,14.3,131.7,177.7,0.0,0.0,0.0,0,
107914,1859.6,10.9,131.7,144.2,0.0,0.0,0.0,0,
108014,1860.1,88.4,131.7,116.4,0.0,0.0,0.0,0,
108114,1854.3,169.4,133.0,45.2,0.0,0.0,0.0,0,
108214,1886.0,144.2,134.7,65.5,0.0,0.0,0.0,0,
108314,1844.3,161.8,133.1,66.3,0.0,0.0,0.0,0,
108514,1865.8,184.3,131.2,66.9,0.0,0.0,0.0,0,
108614,1852.7,148.9,131.3,67.0,0.0,0.0,0.0,0,
108714,1858.0,19.9,131.0,66.9,0.0,0.0,0.0,0,
108814,1859.5,15.8,131.0,67.1,0.0,0.0,0.0,0,
108914,1860.4,14.2,131.0,67.4,0.0,0.0,0.0,0,
109014,1861.2,12.6,131.0,68.0,0.0,0.0,0.0,0,
109114,1858.9,13.0,131.0,72.6,0.0,0.0,0.0,0,
109214,1860.4,15.3,131.0,101.9,0.0,0.0,0.0,0,
109314,1860.3,11.9,131.0,123.7,0.0,0.0,0.0,0,
109514,1859.5,18.5,131.0,194.9,0.0,0.0,0.0,0,
109614,1863.1,25.6,131.1,101.3,0.0,0.0,0.0,0,
109714,1872.6,120.0,130.7,66.8,0.0,0.0,0.0,0,
109814,1842.4,150.8,128.7,56.9,0.0,0.0,0.0,0,
109914,1867.6,194.6,127.9,66.0,0.0,0.0,0.0,0,
110014,1857.3,159.7,128.5,66.7,0.0,0.0,0.0,0,
110114,1879.4,147.8,127.5,67.0,0.0,0.0,0.0,0,
110214,1844.6,146.3,127.5,67.2,0.0,0.0,0.0,0,
110314,1855.8,30.0,126.9,67.1,0.0,0.0,0.0,0,
110514,1860.3,13.0,126.9,66.8,0.0,0.0,0.0,0,
110614,1859.5,13.9,126.9,67.7,0.0,0.0,0.0,0,
110714,1860.2,14.3,126.9,71.1,0.0,0.0,0.0,0,
110814,1859.9,13.0,126.9,173.2,0.0,0.0,0.0,0,
110914,1859.9,14.0,126.9,151.3,0.0,0.0,0.0,0,
111014,1859.6,14.6,126.9,144.8,0.0,0.0,0.0,0,
111114,1859.9,13.1,126.9,151.5,0.0,0.0,0.0,0,
111214,1859.3,12.3,126.8,155.8,0.0,0.0,0.0,0,
111314,1855.4,172.9,127.3,67.1,0.0,0.0,0.0,0,
111514,1868.9,148.0,131.5,65.9,0.0,0.0,0.0,0,
111614,1848.5,140.6,133.0,66.3,0.0,0.0,0.0,0,
111714,1855.4,173.3,133.0,67.1,0.0,0.0,0.0,0,
111814,1860.8,194.5,133.3,67.1,0.0,0.0,0.0,0,
111914,1864.7,38.9,134.8,67.4,0.0,0.0,0.0,0,
112014,1858.8,12.0,134.8,67.0,0.0,0.0,0.0,0,
112114,1860.8,12.8,134.8,66.5,0.0,0.0,0.0,0,
112214,1859.7,13.7,134.8,66.4,0.0,0.0,0.0,0,
112314,1861.3,12.5,134.8,67.3,0.0,0.0,0.0,0,
112514,1859.9,14.0,134.8,156.2,0.0,0.0,0.0,0,
112614,1859.8,13.0,134.8,164.6,0.0,0.0,0.0,0,
112714,1859.5,13.3,134.8,166.2,0.0,0.0,0.0,0,
112814,1860.3,13.7,134.8,166.4,0.0,0.0,0.0,0,
112914,1872.7,111.4,135.2,65.7,0.0,0.0,0.0,0,
113014,1853.6,138.7,135.6,56.3,0.0,0.0,0.0,0,
113114,1857.6,167.5,136.6,66.1,0.0,0.0,0.0,0,
113214,1852.5,203.3,137.6,66.3,0.0,0.0,0.0,0,
113314,1868.8,159.4,139.1,66.6,0.0,0.0,0.0,0,
113514,1844.7,59.3,137.5,67.0,0.0,0.0,0.0,0,
113614,1860.3,16.6,137.5,67.0,0.0,0.0,0.0,0,
113714,1860.7,15.2,137.5,66.9,0.0,0.0,0.0,0,
113814,1860.4,13.2,137.5,66.7,0.0,0.0,0.0,0,
113914,1860.1,14.0,137.5,67.2,0.0,0.0,0.0,0,
114014,1859.6,14.6,137.5,124.8,0.0,0.0,0.0,0,
114114,1860.2,13.0,137.5,172.7,0.0,0.0,0.0,0,
114214,1860.1,13.0,137.5,155.8,0.0,0.0,0.0,0,
114314,1860.7,13.9,137.5,154.9,0.0,0.0,0.0,0,
114514,1862.7,110.6,137.8,57.5,0.0,0.0,0.0,0,
114614,1857.5,199.8,137.2,41.8,0.0,0.0,0.0,0,
114714,1861.6,168.5,138.0,54.9,0.0,0.0,0.0,0,
114814,1880.6,141.7,136.0,66.3,0.0,0.0,0.0,0,
114914,1833.3,152.0,137.8,66.8,0.0,0.0,0.0,0,
115014,1865.9,153.8,136.8,67.2,0.0,0.0,0.0,0,
115114,1850.8,93.6,136.4,93.7,0.0,0.0,0.0,0,
115214,1859.0,20.1,136.4,67.1,0.0,0.0,0.0,0,
115314,1859.7,13.6,136.4,67.2,0.0,0.0,0.0,0,
115514,1859.9,14.0,136.4,69.3,0.0,0.0,0.0,0,
115614,1860.5,13.8,136.4,112.8,0.0,0.0,0.0,0,
115714,1859.4,13.6,136.4,167.4,0.0,0.0,0.0,0,
115814,1859.9,15.0,136.4,170.0,0.0,0.0,0.0,0,
115914,1861.2,14.1,136.4,167.7,0.0,0.0,0.0,0,
116014,1860.1,13.5,136.4,167.7,0.0,0.0,0.0,0,
116114,1857.2,102.6,136.7,146.2,0.0,0.0,0.0,0,
116214,1883.1,134.7,136.9,66.3,0.0,0.0,0.0,0,
116314,1846.0,158.1,134.5,65.9,0.0,0.0,0.0,0,
116514,1868.3,201.9,132.3,66.7,0.0,0.0,0.0,0,
116614,1854.7,158.9,134.3,67.0,0.0,0.0,0.0,0,
116714,1884.4,145.4,134.3,67.1,0.0,0.0,0.0,0,
116814,1841.5,19.0,133.7,67.2,0.0,0.0,0.0,0,
116914,1859.9,14.1,133.7,66.7,0.0,0.0,0.0,0,
117014,1861.0,13.9,133.7,66.5,0.0,0.0,0.0,0,
117114,1861.1,15.2,133.7,66.6,0.0,0.0,0.0,0,
117214,1860.3,14.9,133.7,68.8,0.0,0.0,0.0,0,
117314,1860.9,15.3,133.7,144.5,0.0,0.0,0.0,0,
117514,1860.6,14.0,133.8,114.4,0.0,0.0,0.0,0,
117614,1860.7,14.9,133.8,116.2,0.0,0.0,0.0,0,
117714,1860.8,19.6,133.7,117.8,0.0,0.0,0.0,0,
117814,1854.4,148.5,134.2,57.1,0.0,0.0,0.0,0,
117914,1866.5,213.9,136.4,66.0,0.0,0.0,0.0,0,
118014,1858.4,181.1,137.5,66.3,0.0,0.0,0.0,0,
118114,1882.7,157.3,139.0,66.4,0.0,0.0,0.0,0,
118214,1842.5,157.3,138.3,67.0,0.0,0.0,0.0,0,
118314,1856.7,179.5,138.8,67.1,0.0,0.0,0.0,0,
118514,1858.8,14.6,139.0,67.0,0.0,0.0,0.0,0,
118614,1860.9,12.5,139.0,66.9,0.0,0.0,0.0,0,
118714,1860.0,12.9,139.0,66.8,0.0,0.0,0.0,0,
118814,1860.2,14.0,139.0,66.7,0.0,0.0,0.0,0,
118914,1861.4,13.6,139.0,187.8,0.0,0.0,0.0,0,
119014,1860.8,13.8,139.0,200.9,0.0,0.0,0.0,0,
119114,1861.0,14.2,139.0,189.2,0.0,0.0,0.0,0,
119214,1860.3,14.2,139.0,215.5,0.0,0.0,0.0,0,
119314,1860.7,13.3,139.0,201.1,0.0,0.0,0.0,0,
119514,1877.6,155.5,139.3,49.8,0.0,0.0,0.0,0,
119614,1848.4,149.8,139.6,66.0,0.0,0.0,0.0,0,
119714,1846.6,183.6,137.8,66.5,0.0,0.0,0.0,0,
119814,1866.5,199.0,138.9,66.7,0.0,0.0,0.0,0,
119914,1858.4,152.8,138.1,67.2,0.0,0.0,0.0,0,
120014,1855.2,31.3,137.1,67.0,0.0,0.0,0.0,0,
120114,1859.9,12.6,137.1,67.0,0.0,0.0,0.0,0,
120214,1860.1,13.5,137.1,67.4,0.0,0.0,0.0,0,
120314,1859.3,14.3,137.1,68.4,0.0,0.0,0.0,0,
120514,1860.1,14.1,137.1,168.2,0.0,0.0,0.0,0,
120614,1859.8,14.2,137.1,185.5,0.0,0.0,0.0,0,
120714,1860.2,13.0,137.1,194.8,0.0,0.0,0.0,0,
120814,1859.6,13.2,137.1,204.4,0.0,0.0,0.0,0,
120914,1859.6,16.0,137.1,202.3,0.0,0.0,0.0,0,
121014,1872.8,110.9,138.0,66.9,0.0,0.0,0.0,0,
121114,1848.3,147.5,135.2,65.4,0.0,0.0,0.0,0,
121214,1857.2,190.4,132.7,65.9,0.0,0.0,0.0,0,
121314,1865.7,160.8,131.6,66.4,0.0,0.0,0.0,0,
121514,1847.8,140.0,129.5,66.8,0.0,0.0,0.0,0,
121614,1859.7,49.1,127.3,67.0,0.0,0.0,0.0,0,
121714,1859.2,13.9,127.3,66.7,0.0,0.0,0.0,0,
121814,1859.8,13.6,127.3,66.5,0.0,0.0,0.0,0,
121914,1860.5,13.0,127.3,66.7,0.0,0.0,0.0,0,
122014,1858.9,12.7,127.3,67.3,0.0,0.0,0.0,0,
122114,1859.9,13.9,127.3,107.7,0.0,0.0,0.0,0,
122214,1859.6,12.7,127.2,138.2,0.0,0.0,0.0,0,
122314,1859.9,13.5,127.3,140.6,0.0,0.0,0.0,0,
122514,1859.5,12.1,127.3,144.1,0.0,0.0,0.0,0,
122614,1857.1,149.7,127.5,68.6,0.0,0.0,0.0,0,
122714,1866.1,147.3,128.5,65.5,0.0,0.0,0.0,0,
122814,1878.7,147.0,128.2,65.8,0.0,0.0,0.0,0,
122914,1839.6,146.4,130.7,66.1,0.0,0.0,0.0,0,
123014,1866.3,160.1,128.0,66.7,0.0,0.0,0.0,0,
123114,1850.1,180.1,128.0,66.9,0.0,0.0,0.0,0,
123214,1863.9,70.8,128.1,67.0,0.0,0.0,0.0,0,
123314,1861.9,17.2,128.1,67.1,0.0,0.0,0.0,0,
123514,1861.3,13.3,128.1,66.7,0.0,0.0,0.0,0,
123614,1861.0,15.4,128.1,67.2,0.0,0.0,0.0,0,
123714,1861.1,13.3,128.1,170.1,0.0,0.0,0.0,0,
123814,1860.9,12.3,128.1,183.6,0.0,0.0,0.0,0,
123914,1861.7,12.7,128.1,152.3,0.0,0.0,0.0,0,
124014,1861.9,13.8,128.1,135.7,0.0,0.0,0.0,0,
124114,1859.3,12.5,128.1,136.5,0.0,0.0,0.0,0,
124214,1875.0,83.0,128.6,90.1,0.0,0.0,0.0,0,
124314,1848.7,132.8,129.3,43.8,0.0,0.0,0.0,0,
124514,1864.2,210.4,129.0,66.4,0.0,0.0,0.0,0,
124614,1862.4,160.1,132.0,66.7,0.0,0.0,0.0,0,
124714,1880.1,148.7,131.1,67.1,0.0,0.0,0.0,0,
124814,1837.9,112.6,133.4,67.0,0.0,0.0,0.0,0,
124914,1859.6,16.6,133.0,67.0,0.0,0.0,0.0,0,
125014,1860.4,13.3,133.0,67.1,0.0,0.0,0.0,0,
125114,1861.1,14.3,133.1,67.1,0.0,0.0,0.0,0,
125214,1861.4,13.0,133.0,67.0,0.0,0.0,0.0,0,
125314,1860.6,12.8,133.0,81.4,0.0,0.0,0.0,0,
125514,1860.9,12.6,133.0,168.5,0.0,0.0,0.0,0,
125614,1861.6,12.9,133.0,158.7,0.0,0.0,0.0,0,
125714,1860.2,13.5,133.1,154.3,0.0,0.0,0.0,0,
125814,1860.9,63.0,133.1,149.3,0.0,0.0,0.0,0,
125914,1861.3,173.8,133.4,38.8,0.0,0.0,0.0,0,
126014,1856.3,168.5,134.6,38.7,0.0,0.0,0.0,0,
126114,1888.0,151.7,135.1,65.7,0.0,0.0,0.0,0,
126214,1832.6,145.8,135.7,66.7,0.0,0.0,0.0,0,
126314,1864.0,168.0,136.3,66.9,0.0,0.0,0.0,0,
126514,1856.3,20.1,136.8,67.0,0.0,0.0,0.0,0,
126614,1860.5,14.4,136.8,66.7,0.0,0.0,0.0,0,
126714,1861.5,12.7,136.8,67.1,0.0,0.0,0.0,0,
126814,1860.7,11.3,136.8,68.6,0.0,0.0,0.0,0,
126914,1861.8,14.3,136.8,75.5,0.0,0.0,0.0,0,
127014,1862.1,13.6,136.8,133.5,0.0,0.0,0.0,0,
127114,1861.6,13.6,136.8,164.1,0.0,0.0,0.0,0,
127214,1860.9,14.1,136.8,135.3,0.0,0.0,0.0,0,
127314,1860.3,14.4,136.8,166.9,0.0,0.0,0.0,0,
127514,1878.7,123.8,136.6,66.8,0.0,0.0,0.0,0,
127614,1855.4,125.2,134.5,66.2,0.0,0.0,0.0,0,
127714,1848.8,164.1,132.5,66.2,0.0,0.0,0.0,0,
127814,1870.3,186.1,132.4,66.6,0.0,0.0,0.0,0,
127914,1854.5,157.1,131.9,67.0,0.0,0.0,0.0,0,
128014,1884.6,145.1,130.5,66.9,0.0,0.0,0.0,0,
128114,1843.9,29.0,128.8,67.1,0.0,0.0,0.0,0,
128214,1861.1,14.3,128.8,66.8,0.0,0.0,0.0,0,
128314,1862.0,13.4,128.8,66.5,0.0,0.0,0.0,0,
128514,1862.1,13.3,128.8,68.2,0.0,0.0,0.0,0,
128614,1861.5,12.9,128.8,124.6,0.0,0.0,0.0,0,
128714,1861.5,14.9,128.8,137.6,0.0,0.0,0.0,0,
128814,1861.5,15.1,128.8,149.9,0.0,0.0,0.0,0,
128914,1861.2,14.7,128.8,173.2,0.0,0.0,0.0,0,
129014,1862.1,19.2,128.8,125.1,0.0,0.0,0.0,0,
129114,1857.5,140.1,129.0,56.5,0.0,0.0,0.0,0,
129214,1864.3,190.3,130.9,65.7,0.0,0.0,0.0,0,
129314,1864.4,161.7,131.4,66.4,0.0,0.0,0.0,0,
129514,1848.1,143.7,132.0,67.0,0.0,0.0,0.0,0,
129614,1852.6,166.1,131.5,67.2,0.0,0.0,0.0,0,
129714,1864.0,43.8,131.9,67.1,0.0,0.0,0.0,0,
129814,1860.2,14.6,131.9,67.0,0.0,0.0,0.0,0,
129914,1860.6,13.1,131.9,66.7,0.0,0.0,0.0,0,
130014,1862.1,12.4,131.9,66.4,0.0,0.0,0.0,0,
130114,1861.1,12.9,131.9,66.5,0.0,0.0,0.0,0,
130214,1861.1,12.7,131.9,144.9,0.0,0.0,0.0,0,
130314,1862.3,13.6,131.9,149.3,0.0,0.0,0.0,0,
130514,1862.0,15.2,131.9,151.9,0.0,0.0,0.0,0,
130614,1861.8,14.7,131.9,136.8,0.0,0.0,0.0,0,
130714,1864.7,132.1,132.0,66.7,0.0,0.0,0.0,0,
130814,1871.6,134.1,131.5,55.7,0.0,0.0,0.0,0,
130914,1855.7,135.4,132.2,65.9,0.0,0.0,0.0,0,
131014,1857.4,171.5,128.6,66.5,0.0,0.0,0.0,0,
131114,1859.4,188.2,129.5,66.8,0.0,0.0,0.0,0,
131214,1869.6,146.5,129.6,67.2,0.0,0.0,0.0,0,
131314,1849.7,67.8,129.8,67.2,0.0,0.0,0.0,0,
131514,1860.8,13.5,129.8,67.4,0.0,0.0,0.0,0,
131614,1862.0,12.7,129.8,69.1,0.0,0.0,0.0,0,
131714,1860.3,13.6,129.8,69.7,0.0,0.0,0.0,0,
131814,1861.5,13.2,129.8,144.1,0.0,0.0,0.0,0,
131914,1861.6,13.7,129.8,177.7,0.0,0.0,0.0,0,
132014,1861.1,13.9,129.8,186.7,0.0,0.0,0.0,0,
132114,1861.5,12.9,129.8,173.7,0.0,0.0,0.0,0,
132214,1861.8,13.1,129.8,148.7,0.0,0.0,0.0,0,
132314,1877.3,83.1,130.2,93.8,0.0,0.0,0.0,0,
132514,1855.9,184.3,128.5,42.1,0.0,0.0,0.0,0,
132614,1872.2,150.9,129.8,65.9,0.0,0.0,0.0,0,
132714,1873.7,147.5,127.4,66.8,0.0,0.0,0.0,0,
132814,1845.3,144.7,127.1,66.9,0.0,0.0,0.0,0,
132914,1866.3,96.1,124.3,67.2,0.0,0.0,0.0,0,
133014,1859.0,16.5,124.3,67.0,0.0,0.0,0.0,0,
133114,1861.5,14.0,124.3,66.7,0.0,0.0,0.0,0,
133214,1861.5,13.4,124.3,66.8,0.0,0.0,0.0,0,
133314,1861.1,12.8,124.3,67.2,0.0,0.0,0.0,0,
133514,1862.4,14.4,124.3,184.4,0.0,0.0,0.0,0,
133614,1861.0,13.9,124.3,183.0,0.0,0.0,0.0,0,
133714,1861.8,12.9,124.3,156.6,0.0,0.0,0.0,0,
133814,1861.7,13.2,124.3,137.4,0.0,0.0,0.0,0,
133914,1861.5,90.9,124.3,140.8,0.0,0.0,0.0,0,
134014,1862.5,142.8,125.2,65.7,0.0,0.0,0.0,0,
134114,1886.8,145.3,126.4,66.1,0.0,0.0,0.0,0,
134214,1835.3,144.1,128.3,66.3,0.0,0.0,0.0,0,
134314,1866.3,162.9,129.3,66.6,0.0,0.0,0.0,0,
134514,1869.0,149.9,132.9,67.2,0.0,0.0,0.0,0,
134614,1856.5,19.3,132.9,67.3,0.0,0.0,0.0,0,
134714,1862.0,12.9,132.9,66.8,0.0,0.0,0.0,0,
134814,1861.8,13.3,132.9,66.1,0.0,0.0,0.0,0,
134914,1861.0,12.8,132.9,65.5,0.0,0.0,0.0,0,
135014,1860.6,14.2,132.9,66.8,0.0,0.0,0.0,0,
135114,1861.0,12.2,132.9,124.3,0.0,0.0,0.0,0,
135214,1860.3,12.7,132.9,99.6,0.0,0.0,0.0,0,
135314,1861.4,12.4,132.9,100.1,0.0,0.0,0.0,0,
135514,1861.9,16.3,132.9,148.9,0.0,0.0,0.0,0,
135614,1868.9,111.3,132.8,40.8,0.0,0.0,0.0,0,
135714,1850.1,158.3,131.2,39.9,0.0,0.0,0.0,0,
135814,1868.9,197.9,130.8,65.9,0.0,0.0,0.0,0,
135914,1854.9,150.0,129.8,66.6,0.0,0.0,0.0,0,
136014,1884.7,147.2,128.7,66.8,0.0,0.0,0.0,0,
136114,1838.5,146.0,126.4,67.2,0.0,0.0,0.0,0,
136214,1858.2,25.5,125.5,67.0,0.0,0.0,0.0,0,
136314,1860.4,12.5,125.5,67.0,0.0,0.0,0.0,0,
136514,1860.7,13.8,125.5,68.3,0.0,0.0,0.0,0,
136614,1861.3,12.5,125.5,70.5,0.0,0.0,0.0,0,
136714,1860.2,13.2,125.5,149.1,0.0,0.0,0.0,0,
136814,1860.9,13.1,125.5,186.2,0.0,0.0,0.0,0,
136914,1860.3,12.5,125.5,203.5,0.0,0.0,0.0,0,
137014,1861.0,11.8,125.5,173.7,0.0,0.0,0.0,0,
137114,1861.3,17.0,125.5,134.0,0.0,0.0,0.0,0,
137214,1863.1,168.1,126.6,48.3,0.0,0.0,0.0,0,
137314,1867.1,153.4,128.0,46.1,0.0,0.0,0.0,0,
137514,1846.7,132.1,130.5,66.4,0.0,0.0,0.0,0,
137614,1850.6,165.0,130.4,67.0,0.0,0.0,0.0,0,
137714,1868.3,162.6,131.5,67.0,0.0,0.0,0.0,0,
137814,1865.1,29.6,130.2,67.4,0.0,0.0,0.0,0,
137914,1860.0,12.7,130.2,66.7,0.0,0.0,0.0,0,
138014,1861.2,13.3,130.2,66.0,0.0,0.0,0.0,0,
138114,1861.8,13.1,130.2,65.5,0.0,0.0,0.0,0,
138214,1860.8,12.0,130.2,65.6,0.0,0.0,0.0,0,
138314,1861.1,12.4,130.2,146.3,0.0,0.0,0.0,0,
138514,1860.8,12.5,130.2,148.3,0.0,0.0,0.0,0,
138614,1862.0,12.9,130.2,141.6,0.0,0.0,0.0,0,
138714,1861.3,12.5,130.1,137.0,0.0,0.0,0.0,0,
138814,1873.4,113.2,130.4,68.0,0.0,0.0,0.0,0,
138914,1855.2,128.1,130.4,65.5,0.0,0.0,0.0,0,
139014,1858.0,167.3,128.0,66.1,0.0,0.0,0.0,0,
139114,1858.0,190.9,128.3,66.3,0.0,0.0,0.0,0,
139214,1870.6,150.3,128.3,66.7,0.0,0.0,0.0,0,
139314,1865.5,148.0,128.2,67.1,0.0,0.0,0.0,0,
139514,1862.6,16.7,129.5,67.2,0.0,0.0,0.0,0,
139614,1861.5,13.2,129.5,66.9,0.0,0.0,0.0,0,
139714,1860.8,12.6,129.5,66.8,0.0,0.0,0.0,0,
139814,1861.6,12.9,129.5,67.0,0.0,0.0,0.0,0,
139914,1861.4,13.2,129.5,145.6,0.0,0.0,0.0,0,
140014,1861.6,12.9,129.5,153.0,0.0,0.0,0.0,0,
140114,1861.3,12.9,129.5,139.5,0.0,0.0,0.0,0,
140214,1862.1,13.4,129.5,136.5,0.0,0.0,0.0,0,
140314,1861.6,11.8,129.5,154.0,0.0,0.0,0.0,0,
140514,1852.9,170.5,128.3,41.2,0.0,0.0,0.0,0,
140614,1869.3,144.4,128.1,53.1,0.0,0.0,0.0,0,
140714,1875.4,139.9,126.6,66.4,0.0,0.0,0.0,0,
140814,1838.4,134.0,127.1,66.8,0.0,0.0,0.0,0,
140914,1867.3,167.6,124.4,67.2,0.0,0.0,0.0,0,
141014,1851.2,76.6,123.6,81.0,0.0,0.0,0.0,0,
141114,1862.3,15.9,123.6,67.1,0.0,0.0,0.0,0,
141214,1860.8,12.5,123.6,67.1,0.0,0.0,0.0,0,
141314,1860.7,13.4,123.6,67.6,0.0,0.0,0.0,0,
141514,1860.4,12.1,123.6,136.6,0.0,0.0,0.0,0,
141614,1861.3,13.1,123.6,185.7,0.0,0.0,0.0,0,
141714,1862.3,13.5,123.5,197.1,0.0,0.0,0.0,0,
141814,1861.1,13.1,123.5,183.1,0.0,0.0,0.0,0,
141914,1862.2,13.8,123.6,183.7,0.0,0.0,0.0,0,
142014,1865.0,89.2,123.8,153.5,0.0,0.0,0.0,0,
142114,1881.2,124.9,124.1,41.9,0.0,0.0,0.0,0,
142214,1839.0,135.3,125.3,41.4,0.0,0.0,0.0,0,
142314,1864.8,160.0,123.8,65.8,0.0,0.0,0.0,0,
142514,1864.9,153.8,125.7,67.1,0.0,0.0,0.0,0,
142614,1875.1,142.1,126.2,67.2,0.0,0.0,0.0,0,
142714,1845.0,19.5,126.4,67.0,0.0,0.0,0.0,0,
142814,1860.7,14.4,126.4,66.6,0.0,0.0,0.0,0,
142914,1861.3,13.2,126.4,66.8,0.0,0.0,0.0,0,
143014,1860.7,11.7,126.4,67.7,0.0,0.0,0.0,0,
143114,1861.5,13.2,126.4,74.5,0.0,0.0,0.0,0,
143214,1861.2,13.1,126.4,133.5,0.0,0.0,0.0,0,
143314,1861.6,12.2,126.4,136.4,0.0,0.0,0.0,0,
143514,1861.2,13.1,126.4,133.3,0.0,0.0,0.0,0,
143614,1860.3,29.2,126.4,142.7,0.0,0.0,0.0,0,
143714,1858.2,156.0,127.0,66.5,0.0,0.0,0.0,0,
143814,1866.8,195.1,129.5,66.2,0.0,0.0,0.0,0,
143914,1855.5,167.5,131.5,66.2,0.0,0.0,0.0,0,
144014,1884.6,161.1,133.7,66.6,0.0,0.0,0.0,0,
144114,1835.8,167.8,133.8,69.0,0.0,0.0,0.0,0,
144214,1864.7,196.5,134.5,67.2,0.0,0.0,0.0,0,
144314,1858.7,27.0,135.2,67.3,0.0,0.0,0.0,0,
144514,1860.8,13.4,135.2,66.8,0.0,0.0,0.0,0,
144614,1860.2,13.3,135.2,67.1,0.0,0.0,0.0,0,
144714,1862.1,13.4,135.2,69.2,0.0,0.0,0.0,0,
144814,1860.3,13.5,135.2,115.7,0.0,0.0,0.0,0,
144914,1861.9,14.5,135.2,178.2,0.0,0.0,0.0,0,
145014,1861.5,13.9,135.2,150.0,0.0,0.0,0.0,0,
145114,1861.0,11.5,135.2,144.5,0.0,0.0,0.0,0,
145214,1861.1,15.5,135.2,116.0,0.0,0.0,0.0,0,
145314,1860.0,147.9,135.7,42.6,0.0,0.0,0.0,0,
145514,1845.1,148.6,136.7,65.9,0.0,0.0,0.0,0,
145614,1848.9,194.5,136.6,66.4,0.0,0.0,0.0,0,
145714,1868.7,191.7,138.6,66.8,0.0,0.0,0.0,0,
145814,1856.9,162.7,138.6,67.2,0.0,0.0,0.0,0,
145914,1857.9,33.0,137.2,67.0,0.0,0.0,0.0,0,
146014,1860.4,14.4,137.2,67.0,0.0,0.0,0.0,0,
146114,1861.4,13.7,137.2,67.1,0.0,0.0,0.0,0,
146214,1860.5,13.0,137.2,67.3,0.0,0.0,0.0,0,
146314,1861.2,12.5,137.2,68.5,0.0,0.0,0.0,0,
146514,1861.4,13.4,137.2,163.5,0.0,0.0,0.0,0,
146614,1861.1,12.5,137.2,178.1,0.0,0.0,0.0,0,
146714,1862.3,14.0,137.2,164.1,0.0,0.0,0.0,0,
146814,1861.9,15.3,137.2,156.1,0.0,0.0,0.0,0,
146914,1871.8,110.3,138.2,65.7,0.0,0.0,0.0,0,
147014,1856.7,154.9,134.2,54.0,0.0,0.0,0.0,0,
147114,1859.7,197.4,133.1,65.7,0.0,0.0,0.0,0,
147214,1868.3,147.5,131.8,66.5,0.0,0.0,0.0,0,
147314,1872.0,157.2,130.1,67.0,0.0,0.0,0.0,0,
147514,1858.4,46.6,127.7,67.3,0.0,0.0,0.0,0,
147614,1861.0,14.0,127.7,66.8,0.0,0.0,0.0,0,
147714,1861.7,13.0,127.7,66.8,0.0,0.0,0.0,0,
147814,1861.3,11.7,127.6,67.3,0.0,0.0,0.0,0,
147914,1861.4,13.6,127.6,68.9,0.0,0.0,0.0,0,
148014,1861.5,12.6,127.6,117.2,0.0,0.0,0.0,0,
148114,1861.9,14.1,127.7,138.0,0.0,0.0,0.0,0,
148214,1860.9,12.9,127.7,146.2,0.0,0.0,0.0,0,
148314,1861.4,12.4,127.7,166.3,0.0,0.0,0.0,0,
148514,1859.4,138.5,127.7,73.5,0.0,0.0,0.0,0,
148614,1870.9,143.8,128.8,66.2,0.0,0.0,0.0,0,
148714,1874.0,147.8,128.8,65.9,0.0,0.0,0.0,0,
148814,1844.4,134.0,128.6,66.1,0.0,0.0,0.0,0,
148914,1865.1,182.4,126.6,67.0,0.0,0.0,0.0,0,
149014,1852.8,183.3,126.8,67.3,0.0,0.0,0.0,0,
149114,1866.8,64.7,127.4,67.3,0.0,0.0,0.0,0,
149214,1862.8,16.3,127.4,67.1,0.0,0.0,0.0,0,
149314,1861.7,13.5,127.4,66.6,0.0,0.0,0.0,0,
149514,1861.7,13.1,127.4,66.8,0.0,0.0,0.0,0,
149614,1861.2,13.2,127.4,149.9,0.0,0.0,0.0,0,
149714,1861.8,13.4,127.4,149.1,0.0,0.0,0.0,0,
149814,1861.8,13.7,127.4,133.5,0.0,0.0,0.0,0,
149914,1860.5,11.9,127.4,132.8,0.0,0.0,0.0,0,
150014,1861.1,15.1,127.4,136.7,0.0,0.0,0.0,0,
150114,1875.9,80.7,127.6,84.8,0.0,0.0,0.0,0,
150214,1847.2,122.0,127.7,41.3,0.0,0.0,0.0,0,
150314,1864.1,159.1,126.2,45.8,0.0,0.0,0.0,0,
150514,1867.6,147.2,128.4,66.7,0.0,0.0,0.0,0,
150614,1870.8,135.7,126.8,68.4,0.0,0.0,0.0,0,
150714,1843.9,98.1,127.2,82.1,0.0,0.0,0.0,0,
150814,1862.1,17.3,127.0,67.9,0.0,0.0,0.0,0,
150914,1861.3,14.0,126.9,67.1,0.0,0.0,0.0,0,
151014,1861.6,13.2,126.9,66.8,0.0,0.0,0.0,0,
151114,1860.8,12.0,126.9,66.6,0.0,0.0,0.0,0,
151214,1860.8,13.5,126.9,84.7,0.0,0.0,0.0,0,
151314,1861.5,12.8,126.9,139.0,0.0,0.0,0.0,0,
151514,1861.5,13.2,126.9,145.2,0.0,0.0,0.0,0,
151614,1862.1,12.2,126.9,168.3,0.0,0.0,0.0,0,
151714,1861.7,64.6,126.9,174.6,0.0,0.0,0.0,0,
151814,1864.2,165.0,127.4,42.0,0.0,0.0,0.0,0,
151914,1861.0,157.0,129.5,45.2,0.0,0.0,0.0,0,
152014,1884.3,148.8,129.5,66.1,0.0,0.0,0.0,0,
152114,1830.8,147.3,129.7,66.7,0.0,0.0,0.0,0,
152214,1869.1,176.7,129.3,66.9,0.0,0.0,0.0,0,
152314,1858.9,180.0,129.4,93.2,0.0,0.0,0.0,0,
152514,1861.0,13.7,130.3,67.3,0.0,0.0,0.0,0,
152614,1862.4,13.7,130.3,71.1,0.0,0.0,0.0,0,
152714,1861.0,15.0,130.3,72.6,0.0,0.0,0.0,0,
152814,1860.4,12.9,130.4,79.4,0.0,0.0,0.0,0,
152914,1861.1,13.4,130.4,132.3,0.0,0.0,0.0,0,
153014,1860.6,13.4,130.3,143.7,0.0,0.0,0.0,0,
153114,1862.3,13.5,130.4,167.4,0.0,0.0,0.0,0,
153214,1860.6,12.8,130.4,146.7,0.0,0.0,0.0,0,
153314,1860.9,16.3,130.4,140.4,0.0,0.0,0.0,0,
153514,1847.1,143.7,131.5,38.2,0.0,0.0,0.0,0,
153614,1854.5,169.8,129.9,38.9,0.0,0.0,0.0,0,
153714,1869.3,187.9,129.7,66.5,0.0,0.0,0.0,0,
153814,1855.9,150.7,130.0,67.2,0.0,0.0,0.0,0,
153914,1879.6,150.5,130.2,67.2,0.0,0.0,0.0,0,
154014,1847.9,32.4,129.2,67.3,0.0,0.0,0.0,0,
154114,1859.5,13.8,129.1,66.8,0.0,0.0,0.0,0,
154214,1862.2,14.6,129.2,66.6,0.0,0.0,0.0,0,
154314,1861.4,13.0,129.2,66.9,0.0,0.0,0.0,0,
154514,1862.1,14.2,129.2,150.2,0.0,0.0,0.0,0,
154614,1861.8,14.4,129.1,148.5,0.0,0.0,0.0,0,
154714,1860.9,13.8,129.2,150.4,0.0,0.0,0.0,0,
154814,1861.7,14.4,129.1,165.3,0.0,0.0,0.0,0,
154914,1861.5,15.5,129.2,148.1,0.0,0.0,0.0,0,
155014,1855.9,137.2,128.7,66.4,0.0,0.0,0.0,0,
155114,1866.5,193.1,130.0,65.9,0.0,0.0,0.0,0,
155214,1861.8,165.0,131.8,66.2,0.0,0.0,0.0,0,
155314,1879.2,144.9,132.1,66.3,0.0,0.0,0.0,0,
155514,1854.4,189.2,132.1,67.2,0.0,0.0,0.0,0,
155614,1865.2,49.1,133.5,67.2,0.0,0.0,0.0,0,
155714,1859.8,14.9,133.5,67.1,0.0,0.0,0.0,0,
155814,1861.5,12.3,133.5,66.8,0.0,0.0,0.0,0,
155914,1860.9,12.7,133.5,66.6,0.0,0.0,0.0,0,
156014,1861.0,14.2,133.5,66.9,0.0,0.0,0.0,0,
156114,1861.5,13.1,133.5,174.8,0.0,0.0,0.0,0,
156214,1860.8,12.6,133.5,158.5,0.0,0.0,0.0,0,
156314,1861.1,15.3,133.5,147.2,0.0,0.0,0.0,0,
156514,1861.4,11.2,133.5,157.1,0.0,0.0,0.0,0,
156614,1865.2,120.1,133.6,56.9,0.0,0.0,0.0,0,
156714,1876.3,141.0,132.9,41.3,0.0,0.0,0.0,0,
156814,1851.1,142.2,133.8,65.6,0.0,0.0,0.0,0,
156914,1852.1,189.1,131.4,66.4,0.0,0.0,0.0,0,
157014,1861.7,173.4,132.7,66.7,0.0,0.0,0.0,0,
157114,1865.6,144.5,132.3,69.3,0.0,0.0,0.0,0,
157214,1853.4,73.9,131.2,70.9,0.0,0.0,0.0,0,
157314,1862.0,15.7,131.2,69.5,0.0,0.0,0.0,0,
157514,1861.4,14.7,131.2,67.7,0.0,0.0,0.0,0,
157614,1862.3,14.0,131.2,67.8,0.0,0.0,0.0,0,
157714,1860.7,13.5,131.2,146.0,0.0,0.0,0.0,0,
157814,1860.4,12.8,131.2,122.6,0.0,0.0,0.0,0,
157914,1862.1,13.2,131.2,133.9,0.0,0.0,0.0,0,
158014,1861.9,13.2,131.2,169.3,0.0,0.0,0.0,0,
158114,1861.2,13.7,131.2,171.7,0.0,0.0,0.0,0,
158214,1874.2,89.1,132.0,80.0,0.0,0.0,0.0,0,
158314,1852.3,148.8,131.0,38.6,0.0,0.0,0.0,0,
158514,1875.1,146.7,131.7,66.1,0.0,0.0,0.0,0,
158614,1865.3,154.8,129.3,67.0,0.0,0.0,0.0,0,
158714,1853.6,145.6,130.4,67.2,0.0,0.0,0.0,0,
158814,1862.0,105.7,127.9,68.1,0.0,0.0,0.0,0,
158914,1857.5,19.0,127.7,67.0,0.0,0.0,0.0,0,
159014,1860.8,14.1,127.7,67.1,0.0,0.0,0.0,0,
159114,1861.3,13.6,127.7,69.3,0.0,0.0,0.0,0,
159214,1860.8,13.3,127.7,71.4,0.0,0.0,0.0,0,
159314,1861.7,15.2,127.7,107.0,0.0,0.0,0.0,0,
159514,1861.1,13.9,127.7,148.9,0.0,0.0,0.0,0,
159614,1862.0,14.7,127.7,115.8,0.0,0.0,0.0,0,
159714,1861.4,12.5,127.7,158.6,0.0,0.0,0.0,0,
159814,1861.0,101.0,127.7,176.8,0.0,0.0,0.0,0,
159914,1864.9,133.6,128.4,66.8,0.0,0.0,0.0,0,
160014,1882.7,139.5,125.9,66.3,0.0,0.0,0.0,0,
160114,1836.5,148.3,128.0,66.4,0.0,0.0,0.0,0,
160214,1870.4,172.4,127.4,67.0,0.0,0.0,0.0,0,
160314,1850.5,194.5,129.0,67.3,0.0,0.0,0.0,0,
160514,1854.1,21.0,129.8,67.2,0.0,0.0,0.0,0,
160614,1861.7,11.8,129.8,66.8,0.0,0.0,0.0,0,
160714,1861.7,14.0,129.8,66.6,0.0,0.0,0.0,0,
160814,1861.5,14.1,129.8,66.7,0.0,0.0,0.0,0,
160914,1861.8,14.2,129.8,68.4,0.0,0.0,0.0,0,
161014,1861.9,14.8,129.8,152.1,0.0,0.0,0.0,0,
161114,1861.3,14.5,129.8,155.1,0.0,0.0,0.0,0,
161214,1862.0,13.2,129.8,150.5,0.0,0.0,0.0,0,
161314,1861.2,14.9,129.8,206.2,0.0,0.0,0.0,0,
161514,1861.2,128.0,131.6,50.8,0.0,0.0,0.0,0,
161614,1861.0,168.5,132.8,65.6,0.0,0.0,0.0,0,
161714,1864.0,205.0,131.9,66.2,0.0,0.0,0.0,0,
161814,1863.6,156.5,135.5,66.5,0.0,0.0,0.0,0,
161914,1875.9,148.6,133.8,67.2,0.0,0.0,0.0,0,
162014,1838.7,155.4,134.5,67.2,0.0,0.0,0.0,0,
162114,1864.2,26.0,134.3,67.2,0.0,0.0,0.0,0,
162214,1860.1,14.5,134.3,67.4,0.0,0.0,0.0,0,
162314,1861.2,15.3,134.3,67.3,0.0,0.0,0.0,0,
162514,1860.7,15.9,134.3,70.4,0.0,0.0,0.0,0,
162614,1861.8,14.8,134.4,108.7,0.0,0.0,0.0,0,
162714,1861.2,13.2,134.3,136.2,0.0,0.0,0.0,0,
162814,1861.7,13.7,134.3,152.6,0.0,0.0,0.0,0,
162914,1860.4,10.8,134.3,172.1,0.0,0.0,0.0,0,
163014,1861.9,18.8,134.4,105.4,0.0,0.0,0.0,0,
163114,1864.7,166.1,134.4,53.6,0.0,0.0,0.0,0,
163214,1858.7,157.5,135.3,42.0,0.0,0.0,0.0,0,
163314,1887.3,148.0,134.3,65.7,0.0,0.0,0.0,0,
163514,1865.1,180.6,132.2,67.0,0.0,0.0,0.0,0,
163614,1863.4,182.1,131.2,67.1,0.0,0.0,0.0,0,
163714,1853.0,40.6,133.0,67.3,0.0,0.0,0.0,0,
163814,1861.2,17.4,133.0,67.2,0.0,0.0,0.0,0,
163914,1862.3,13.3,133.0,70.6,0.0,0.0,0.0,0,
164014,1861.0,12.4,133.0,73.2,0.0,0.0,0.0,0,
164114,1861.5,13.6,133.0,76.4,0.0,0.0,0.0,0,
164214,1861.9,13.2,133.0,116.7,0.0,0.0,0.0,0,
164314,1862.3,13.3,133.0,175.6,0.0,0.0,0.0,0,
164514,1862.2,11.9,133.0,177.6,0.0,0.0,0.0,0,
164614,1861.9,13.1,133.0,157.6,0.0,0.0,0.0,0,
164714,1879.2,112.1,133.0,66.2,0.0,0.0,0.0,0,
164814,1854.2,122.7,131.8,65.6,0.0,0.0,0.0,0,
164914,1850.5,175.0,130.6,65.8,0.0,0.0,0.0,0,
165014,1867.3,176.1,130.6,66.5,0.0,0.0,0.0,0,
165114,1860.6,152.9,130.8,70.1,0.0,0.0,0.0,0,
165214,1868.9,147.2,130.6,67.4,0.0,0.0,0.0,0,
165314,1854.1,52.8,127.7,99.1,0.0,0.0,0.0,0,
165514,1861.6,13.0,127.7,67.0,0.0,0.0,0.0,0,
165614,1861.7,14.4,127.7,67.1,0.0,0.0,0.0,0,
165714,1861.0,12.9,127.7,68.5,0.0,0.0,0.0,0,
165814,1861.3,13.9,127.7,207.4,0.0,0.0,0.0,0,
165914,1861.4,14.2,127.7,234.2,0.0,0.0,0.0,0,
166014,1861.7,13.4,127.7,232.2,0.0,0.0,0.0,0,
166114,1861.0,13.1,127.7,219.8,0.0,0.0,0.0,0,
166214,1861.7,15.3,127.7,171.5,0.0,0.0,0.0,0,
166314,1865.0,106.2,127.2,66.7,0.0,0.0,0.0,0,
166514,1876.2,145.1,128.3,66.1,0.0,0.0,0.0,0,
166614,1863.9,138.9,126.4,66.5,0.0,0.0,0.0,0,
166714,1855.0,144.0,127.1,66.9,0.0,0.0,0.0,0,
166814,1856.6,182.2,124.6,68.5,0.0,0.0,0.0,0,
166914,1859.1,84.1,125.9,67.3,0.0,0.0,0.0,0,
167014,1862.0,17.4,125.9,69.1,0.0,0.0,0.0,0,
167114,1861.1,13.6,125.9,67.3,0.0,0.0,0.0,0,
167214,1862.0,12.6,125.9,67.0,0.0,0.0,0.0,0,
167314,1860.5,13.1,125.9,67.2,0.0,0.0,0.0,0,
167514,1861.1,12.5,125.9,143.9,0.0,0.0,0.0,0,
167614,1861.1,13.6,125.9,142.5,0.0,0.0,0.0,0,
167714,1861.7,15.1,125.9,142.9,0.0,0.0,0.0,0,
167814,1862.1,12.3,125.9,130.6,0.0,0.0,0.0,0,
167914,1864.7,84.2,126.1,143.2,0.0,0.0,0.0,0,
168014,1876.8,123.5,126.4,47.4,0.0,0.0,0.0,0,
168114,1843.6,141.7,129.4,65.5,0.0,0.0,0.0,0,
168214,1865.0,168.6,128.5,66.4,0.0,0.0,0.0,0,
168314,1850.3,184.4,131.3,66.8,0.0,0.0,0.0,0,
168514,1856.8,138.7,131.3,99.0,0.0,0.0,0.0,0,
168614,1849.1,20.0,130.7,67.3,0.0,0.0,0.0,0,
168714,1861.5,13.4,130.7,67.4,0.0,0.0,0.0,0,
168814,1861.2,14.7,130.7,69.5,0.0,0.0,0.0,0,
168914,1861.0,12.9,130.7,69.7,0.0,0.0,0.0,0,
169014,1861.4,13.2,130.7,77.9,0.0,0.0,0.0,0,
169114,1861.6,13.6,130.7,147.4,0.0,0.0,0.0,0,
169214,1861.1,14.3,130.7,156.7,0.0,0.0,0.0,0,
169314,1861.7,13.2,130.7,153.7,0.0,0.0,0.0,0,
169514,1861.0,29.1,130.7,148.2,0.0,0.0,0.0,0,
169614,1866.8,142.8,131.5,44.9,0.0,0.0,0.0,0,
169714,1862.4,204.6,130.1,44.6,0.0,0.0,0.0,0,
169814,1862.4,149.4,131.9,65.7,0.0,0.0,0.0,0,
169914,1876.9,148.7,128.3,66.8,0.0,0.0,0.0,0,
170014,1838.1,154.4,129.8,91.9,0.0,0.0,0.0,0,
170114,1872.9,178.8,129.5,76.5,0.0,0.0,0.0,0,
170214,1857.8,24.2,129.1,67.4,0.0,0.0,0.0,0,
170314,1861.3,13.4,129.1,66.9,0.0,0.0,0.0,0,
170514,1860.7,13.1,129.1,66.9,0.0,0.0,0.0,0,
170614,1860.8,13.8,129.1,68.4,0.0,0.0,0.0,0,
170714,1861.8,14.4,129.1,146.8,0.0,0.0,0.0,0,
170814,1861.5,13.4,129.1,130.8,0.0,0.0,0.0,0,
170914,1861.8,13.7,129.1,151.9,0.0,0.0,0.0,0,
171014,1861.8,15.6,129.1,154.4,0.0,0.0,0.0,0,
171114,1860.6,12.6,129.1,122.7,0.0,0.0,0.0,0,
171214,1857.9,142.0,129.9,55.3,0.0,0.0,0.0,0,
171314,1889.1,156.3,130.5,65.8,0.0,0.0,0.0,0,
171514,1855.9,189.2,133.1,66.6,0.0,0.0,0.0,0,
171614,1866.5,176.4,132.6,67.1,0.0,0.0,0.0,0,
171714,1859.2,156.7,135.9,71.6,0.0,0.0,0.0,0,
171814,1859.2,36.2,136.0,67.4,0.0,0.0,0.0,0,
171914,1860.0,15.9,136.0,68.1,0.0,0.0,0.0,0,
172014,1861.3,12.5,136.0,67.4,0.0,0.0,0.0,0,
172114,1861.7,14.9,136.0,67.3,0.0,0.0,0.0,0,
172214,1861.3,12.8,136.0,67.5,0.0,0.0,0.0,0,
172314,1861.5,12.6,136.0,102.5,0.0,0.0,0.0,0,
172514,1861.2,13.3,136.0,106.2,0.0,0.0,0.0,0,
172614,1861.4,12.3,136.0,112.0,0.0,0.0,0.0,0,
172714,1861.3,18.7,136.0,103.7,0.0,0.0,0.0,0,
172814,1870.4,109.0,137.4,47.6,0.0,0.0,0.0,0,
172914,1855.6,173.7,134.9,40.5,0.0,0.0,0.0,0,
173014,1861.0,197.8,135.8,54.2,0.0,0.0,0.0,0,
173114,1869.4,151.7,134.6,66.6,0.0,0.0,0.0,0,
173214,1866.2,156.4,134.6,66.9,0.0,0.0,0.0,0,
173314,1856.3,151.2,132.3,67.0,0.0,0.0,0.0,0,
173514,1860.5,13.8,131.7,67.0,0.0,0.0,0.0,0,
173614,1860.7,13.1,131.7,67.4,0.0,0.0,0.0,0,
173714,1860.8,14.1,131.7,69.8,0.0,0.0,0.0,0,
173814,1861.0,12.8,131.7,70.8,0.0,0.0,0.0,0,
173914,1861.3,14.0,131.7,130.8,0.0,0.0,0.0,0,
174014,1860.7,14.7,131.7,169.0,0.0,0.0,0.0,0,
174114,1861.2,12.6,131.7,140.2,0.0,0.0,0.0,0,
174214,1861.8,13.5,131.7,138.0,0.0,0.0,0.0,0,
174314,1861.2,13.8,131.7,173.3,0.0,0.0,0.0,0,
174514,1874.1,135.8,132.8,66.2,0.0,0.0,0.0,0,
174614,1870.9,141.5,129.4,66.1,0.0,0.0,0.0,0,
174714,1842.7,151.9,129.6,66.3,0.0,0.0,0.0,0,
174814,1870.0,178.8,127.0,67.4,0.0,0.0,0.0,0,
174914,1847.6,177.5,127.7,69.0,0.0,0.0,0.0,0,
175014,1871.0,65.8,127.7,68.5,0.0,0.0,0.0,0,
175114,1862.0,16.6,127.7,67.3,0.0,0.0,0.0,0,
175214,1860.8,14.2,127.7,66.7,0.0,0.0,0.0,0,
175314,1860.7,13.0,127.7,66.4,0.0,0.0,0.0,0,
175514,1861.7,12.3,127.7,150.5,0.0,0.0,0.0,0,
175614,1861.4,12.2,127.7,155.1,0.0,0.0,0.0,0,
175714,1861.6,14.5,127.7,136.0,0.0,0.0,0.0,0,
175814,1861.3,13.3,127.7,125.5,0.0,0.0,0.0,0,
175914,1862.0,13.7,127.7,141.6,0.0,0.0,0.0,0,
176014,1881.0,79.5,127.9,90.7,0.0,0.0,0.0,0,
176114,1839.3,147.9,129.0,41.6,0.0,0.0,0.0,0,
176214,1864.4,179.6,131.3,56.7,0.0,0.0,0.0,0,
176314,1863.3,198.1,130.9,66.4,0.0,0.0,0.0,0,
176514,1872.7,153.2,135.0,67.1,0.0,0.0,0.0,0,
176614,1840.7,119.3,136.3,67.2,0.0,0.0,0.0,0,
176714,1859.5,20.4,136.4,66.9,0.0,0.0,0.0,0,
176814,1861.8,13.7,136.4,67.2,0.0,0.0,0.0,0,
176914,1861.0,13.0,136.4,68.0,0.0,0.0,0.0,0,
177014,1861.4,16.0,136.4,68.2,0.0,0.0,0.0,0,
177114,1862.1,13.9,136.4,86.1,0.0,0.0,0.0,0,
177214,1861.0,14.0,136.4,130.3,0.0,0.0,0.0,0,
177314,1861.5,13.9,136.4,107.0,0.0,0.0,0.0,0,
177514,1861.1,13.8,136.4,124.1,0.0,0.0,0.0,0,
177614,1861.7,64.8,136.4,135.4,0.0,0.0,0.0,0,
177714,1867.2,163.6,136.3,39.9,0.0,0.0,0.0,0,
177814,1862.8,151.2,134.8,39.8,0.0,0.0,0.0,0,
177914,1875.6,150.2,133.5,65.5,0.0,0.0,0.0,0,
178014,1846.2,161.2,129.8,66.9,0.0,0.0,0.0,0,
178114,1859.2,180.7,127.9,67.1,0.0,0.0,0.0,0,
178214,1864.7,154.6,126.4,67.2,0.0,0.0,0.0,0,
178314,1863.6,20.1,125.8,67.2,0.0,0.0,0.0,0,
178514,1862.2,14.0,125.8,66.5,0.0,0.0,0.0,0,
178614,1861.8,12.9,125.8,66.8,0.0,0.0,0.0,0,
178714,1861.4,13.2,125.8,75.0,0.0,0.0,0.0,0,
178814,1860.9,13.8,125.8,166.4,0.0,0.0,0.0,0,
178914,1861.7,13.1,125.8,144.7,0.0,0.0,0.0,0,
179014,1861.6,13.8,125.8,166.5,0.0,0.0,0.0,0,
179114,1861.0,13.7,125.8,194.8,0.0,0.0,0.0,0,
179214,1861.7,12.7,125.8,144.5,0.0,0.0,0.0,0,
179314,1874.4,117.5,125.5,55.7,0.0,0.0,0.0,0,
179514,1860.1,171.4,124.6,66.1,0.0,0.0,0.0,0,
179614,1857.2,168.3,126.2,66.4,0.0,0.0,0.0,0,
179714,1878.3,124.6,125.4,67.0,0.0,0.0,0.0,0,
179814,1854.4,125.5,126.1,67.3,0.0,0.0,0.0,0,
179914,1853.9,26.0,126.1,67.9,0.0,0.0,0.0,0,
180014,1861.2,14.7,126.1,67.6,0.0,0.0,0.0,0,
180114,1861.5,11.9,126.1,66.9,0.0,0.0,0.0,0,
180214,1861.2,13.4,126.1,66.4,0.0,0.0,0.0,0,
180314,1861.1,13.6,126.1,67.6,0.0,0.0,0.0,0,
180514,1860.8,13.2,126.1,156.0,0.0,0.0,0.0,0,
180614,1861.7,14.3,126.1,166.3,0.0,0.0,0.0,0,
180714,1861.4,13.3,126.1,137.6,0.0,0.0,0.0,0,
180814,1861.9,13.5,126.1,132.8,0.0,0.0,0.0,0,
180914,1867.3,135.3,126.4,44.2,0.0,0.0,0.0,0,
181014,1857.8,192.4,125.7,39.6,0.0,0.0,0.0,0,
181114,1869.6,140.1,127.4,55.1,0.0,0.0,0.0,0,
181214,1871.0,146.4,125.8,66.6,0.0,0.0,0.0,0,
181314,1840.4,157.2,126.9,67.1,0.0,0.0,0.0,0,
181514,1856.5,42.3,125.8,67.3,0.0,0.0,0.0,0,
181614,1860.7,13.4,125.8,66.8,0.0,0.0,0.0,0,
181714,1860.9,13.7,125.8,66.7,0.0,0.0,0.0,0,
181814,1860.5,13.6,125.8,67.2,0.0,0.0,0.0,0,
181914,1861.5,12.5,125.8,69.1,0.0,0.0,0.0,0,
182014,1861.0,13.2,125.8,198.8,0.0,0.0,0.0,0,
182114,1860.9,13.9,125.8,198.8,0.0,0.0,0.0,0,
182214,1861.3,14.3,125.8,141.5,0.0,0.0,0.0,0,
182314,1861.1,14.7,125.8,124.8,0.0,0.0,0.0,0,
182514,1862.2,119.9,126.4,70.8,0.0,0.0,0.0,0,
182614,1878.8,131.5,127.3,66.3,0.0,0.0,0.0,0,
182714,1842.3,164.6,128.0,66.5,0.0,0.0,0.0,0,
182814,1856.7,198.3,129.5,66.4,0.0,0.0,0.0,0,
182914,1864.4,164.1,131.1,66.8,0.0,0.0,0.0,0,
183014,1865.0,157.6,132.6,67.2,0.0,0.0,0.0,0,
183114,1855.5,67.4,133.4,67.1,0.0,0.0,0.0,0,
183214,1860.6,16.6,133.4,67.3,0.0,0.0,0.0,0,
183314,1860.9,14.0,133.4,67.1,0.0,0.0,0.0,0,
183514,1860.2,13.7,133.4,67.9,0.0,0.0,0.0,0,
183614,1860.3,14.6,133.4,177.9,0.0,0.0,0.0,0,
183714,1860.8,13.2,133.5,168.0,0.0,0.0,0.0,0,
183814,1861.2,13.4,133.5,170.5,0.0,0.0,0.0,0,
183914,1861.0,14.2,133.4,148.7,0.0,0.0,0.0,0,
184014,1861.7,13.5,133.4,174.5,0.0,0.0,0.0,0,
184114,1869.6,103.5,134.3,73.9,0.0,0.0,0.0,0,
184214,1858.6,157.6,132.6,43.7,0.0,0.0,0.0,0,
184314,1851.8,179.6,132.6,43.0,0.0,0.0,0.0,0,
184514,1851.4,147.9,130.0,67.0,0.0,0.0,0.0,0,
184614,1861.0,153.4,128.8,67.1,0.0,0.0,0.0,0,
184714,1859.3,107.3,127.2,67.3,0.0,0.0,0.0,0,
184814,1856.9,18.4,127.2,67.0,0.0,0.0,0.0,0,
184914,1861.6,13.7,127.2,67.2,0.0,0.0,0.0,0,
185014,1860.7,12.8,127.2,69.1,0.0,0.0,0.0,0,
185114,1860.8,14.0,127.2,70.5,0.0,0.0,0.0,0,
185214,1861.0,12.9,127.2,105.1,0.0,0.0,0.0,0,
185314,1860.5,13.5,127.2,151.0,0.0,0.0,0.0,0,
185514,1861.7,13.3,127.2,166.7,0.0,0.0,0.0,0,
185614,1861.8,12.5,127.2,158.3,0.0,0.0,0.0,0,
185714,1861.0,104.5,127.2,142.1,0.0,0.0,0.0,0,
185814,1868.7,136.4,129.3,67.6,0.0,0.0,0.0,0,
185914,1874.9,154.7,128.1,66.6,0.0,0.0,0.0,0,
186014,1837.3,161.5,130.3,66.3,0.0,0.0,0.0,0,
186114,1872.9,194.0,129.8,66.6,0.0,0.0,0.0,0,
186214,1849.2,174.1,130.7,67.0,0.0,0.0,0.0,0,
186314,1882.8,146.9,131.7,66.9,0.0,0.0,0.0,0,
186514,1861.4,14.7,130.5,66.9,0.0,0.0,0.0,0,
186614,1861.2,13.6,130.5,66.8,0.0,0.0,0.0,0,
186714,1861.5,14.0,130.5,66.9,0.0,0.0,0.0,0,
186814,1860.4,13.1,130.5,70.5,0.0,0.0,0.0,0,
186914,1861.1,13.7,130.5,150.1,0.0,0.0,0.0,0,
187014,1861.6,12.1,130.5,186.5,0.0,0.0,0.0,0,
187114,1861.3,13.7,130.5,155.1,0.0,0.0,0.0,0,
187214,1861.5,18.3,130.5,153.1,0.0,0.0,0.0,0,
187314,1861.3,13.6,130.5,110.8,0.0,0.0,0.0,0,
187514,1854.1,182.7,128.8,56.5,0.0,0.0,0.0,0,
187614,1865.7,180.4,129.9,66.5,0.0,0.0,0.0,0,
187714,1865.5,157.3,131.3,67.0,0.0,0.0,0.0,0,
187814,1866.3,153.0,131.1,66.9,0.0,0.0,0.0,0,
187914,1848.6,174.0,130.8,67.2,0.0,0.0,0.0,0,
188014,1857.4,26.9,131.0,67.1,0.0,0.0,0.0,0,
188114,1859.8,15.1,131.0,67.3,0.0,0.0,0.0,0,
188214,1861.4,12.6,131.0,69.1,0.0,0.0,0.0,0,
188314,1860.9,13.2,131.0,69.1,0.0,0.0,0.0,0,
188514,1861.5,13.4,131.0,123.4,0.0,0.0,0.0,0,
188614,1861.3,13.0,131.0,123.7,0.0,0.0,0.0,0,
188714,1861.3,14.2,131.0,156.1,0.0,0.0,0.0,0,
188814,1861.5,14.6,131.0,195.6,0.0,0.0,0.0,0,
188914,1862.0,17.3,131.0,178.3,0.0,0.0,0.0,0,
189014,1863.2,148.5,130.9,54.2,0.0,0.0,0.0,0,
189114,1874.3,139.4,130.7,44.1,0.0,0.0,0.0,0,
189214,1860.4,148.4,130.2,65.6,0.0,0.0,0.0,0,
189314,1855.3,151.8,127.0,66.5,0.0,0.0,0.0,0,
189514,1863.9,152.1,127.4,67.1,0.0,0.0,0.0,0,
189614,1865.2,33.2,124.9,67.3,0.0,0.0,0.0,0,
189714,1860.5,15.4,124.9,66.9,0.0,0.0,0.0,0,
189814,1860.7,13.5,124.9,66.6,0.0,0.0,0.0,0,
189914,1861.2,13.4,124.9,66.9,0.0,0.0,0.0,0,
190014,1861.4,12.7,124.9,67.6,0.0,0.0,0.0,0,
190114,1861.0,14.3,124.9,150.0,0.0,0.0,0.0,0,
190214,1861.4,14.4,124.9,147.0,0.0,0.0,0.0,0,
190314,1861.5,13.3,124.9,135.5,0.0,0.0,0.0,0,
190514,1860.6,13.5,124.9,154.4,0.0,0.0,0.0,0,
190614,1877.9,111.4,125.3,67.6,0.0,0.0,0.0,0,
190714,1843.6,156.4,127.1,65.7,0.0,0.0,0.0,0,
190814,1869.5,198.7,126.8,66.5,0.0,0.0,0.0,0,
190914,1847.5,169.8,129.8,66.5,0.0,0.0,0.0,0,
191014,1885.2,155.0,130.4,66.7,0.0,0.0,0.0,0,
191114,1844.2,164.0,131.8,67.1,0.0,0.0,0.0,0,
191214,1861.2,49.6,132.0,67.1,0.0,0.0,0.0,0,
191314,1860.3,14.6,132.0,67.3,0.0,0.0,0.0,0,
191514,1861.3,12.6,132.0,67.4,0.0,0.0,0.0,0,
191614,1861.2,13.0,132.0,67.6,0.0,0.0,0.0,0,
191714,1860.9,13.3,132.0,138.1,0.0,0.0,0.0,0,
191814,1862.0,12.3,132.0,146.8,0.0,0.0,0.0,0,
191914,1860.8,13.1,132.0,197.8,0.0,0.0,0.0,0,
192014,1861.3,13.8,132.0,171.4,0.0,0.0,0.0,0,
192114,1861.6,13.4,132.0,158.1,0.0,0.0,0.0,0,
192214,1861.3,135.0,132.2,65.5,0.0,0.0,0.0,0,
192314,1865.2,176.4,132.0,39.0,0.0,0.0,0.0,0,
192514,1864.1,145.8,132.5,66.4,0.0,0.0,0.0,0,
192614,1844.0,163.2,131.7,67.3,0.0,0.0,0.0,0,
192714,1870.6,188.2,133.0,67.5,0.0,0.0,0.0,0,
192814,1853.2,83.1,132.1,72.7,0.0,0.0,0.0,0,
192914,1862.6,17.8,132.1,67.1,0.0,0.0,0.0,0,
193014,1861.0,12.6,132.1,67.2,0.0,0.0,0.0,0,
193114,1862.0,12.9,132.1,70.2,0.0,0.0,0.0,0,
193214,1861.8,13.4,132.1,71.2,0.0,0.0,0.0,0,
193314,1861.4,12.8,132.1,154.5,0.0,0.0,0.0,0,
193514,1860.8,13.6,132.1,232.3,0.0,0.0,0.0,0,
193614,1860.9,13.3,132.1,212.2,0.0,0.0,0.0,0,
193714,1861.4,18.2,132.1,149.8,0.0,0.0,0.0,0,
193814,1865.6,82.6,132.6,116.4,0.0,0.0,0.0,0,
193914,1869.2,117.3,132.1,68.7,0.0,0.0,0.0,0,
194014,1851.0,143.9,127.4,67.3,0.0,0.0,0.0,0,
194114,1853.9,190.8,127.7,66.8,0.0,0.0,0.0,0,
194214,1867.4,154.7,127.0,67.3,0.0,0.0,0.0,0,
194314,1868.0,139.8,126.7,68.6,0.0,0.0,0.0,0,
194514,1857.2,17.4,125.6,98.7,0.0,0.0,0.0,0,
194614,1861.2,12.1,125.6,67.2,0.0,0.0,0.0,0,
194714,1861.3,13.7,125.6,66.8,0.0,0.0,0.0,0,
194814,1861.5,12.9,125.6,66.9,0.0,0.0,0.0,0,
194914,1861.3,12.2,125.6,75.4,0.0,0.0,0.0,0,
195014,1861.2,13.2,125.6,134.9,0.0,0.0,0.0,0,
195114,1861.6,12.9,125.6,138.2,0.0,0.0,0.0,0,
195214,1860.5,12.2,125.6,166.6,0.0,0.0,0.0,0,
195314,1861.0,13.8,125.6,170.9,0.0,0.0,0.0,0,
195514,1863.4,167.0,124.3,46.6,0.0,0.0,0.0,0,
195614,1857.7,186.7,127.5,65.4,0.0,0.0,0.0,0,
195714,1882.2,144.6,128.2,66.3,0.0,0.0,0.0,0,
195814,1851.0,161.4,130.2,66.5,0.0,0.0,0.0,0,
195914,1860.3,154.7,129.4,66.8,0.0,0.0,0.0,0,
196014,1855.3,195.4,130.0,67.3,0.0,0.0,0.0,0,
196114,1859.5,23.6,130.6,67.1,0.0,0.0,0.0,0,
196214,1859.8,13.4,130.6,67.2,0.0,0.0,0.0,0,
196314,1861.7,12.4,130.6,67.6,0.0,0.0,0.0,0,
196514,1860.9,13.6,130.6,71.2,0.0,0.0,0.0,0,
196614,1861.4,13.1,130.6,184.5,0.0,0.0,0.0,0,
196714,1860.8,11.7,130.6,144.1,0.0,0.0,0.0,0,
196814,1861.7,13.8,130.6,141.5,0.0,0.0,0.0,0,
196914,1861.0,12.3,130.6,143.9,0.0,0.0,0.0,0,
197014,1861.0,12.2,130.6,138.3,0.0,0.0,0.0,0,
197114,1877.9,121.4,131.8,49.3,0.0,0.0,0.0,0,
197214,1861.2,143.1,130.2,46.7,0.0,0.0,0.0,0,
197314,1846.2,179.2,132.0,65.7,0.0,0.0,0.0,0,
197514,1843.2,173.9,136.0,67.0,0.0,0.0,0.0,0,
197614,1889.9,161.1,137.6,67.1,0.0,0.0,0.0,0,
197714,1844.2,33.2,136.7,77.7,0.0,0.0,0.0,0,
197814,1859.8,15.1,136.7,66.9,0.0,0.0,0.0,0,
197914,1861.9,13.3,136.7,66.7,0.0,0.0,0.0,0,
198014,1860.9,14.3,136.7,67.0,0.0,0.0,0.0,0,
198114,1861.8,13.3,136.7,69.0,0.0,0.0,0.0,0,
198214,1861.4,13.9,136.7,168.9,0.0,0.0,0.0,0,
198314,1861.2,13.5,136.7,151.0,0.0,0.0,0.0,0,
198514,1861.4,12.9,136.7,208.2,0.0,0.0,0.0,0,
198614,1862.5,14.5,136.7,209.1,0.0,0.0,0.0,0,
198714,1858.2,127.7,137.2,65.5,0.0,0.0,0.0,0,
198814,1866.0,199.2,138.4,65.9,0.0,0.0,0.0,0,
198914,1862.9,176.3,138.3,66.3,0.0,0.0,0.0,0,
199014,1873.4,166.3,139.1,66.4,0.0,0.0,0.0,0,
199114,1858.1,148.3,136.4,66.7,0.0,0.0,0.0,0,
199214,1850.0,167.8,135.5,67.0,0.0,0.0,0.0,0,
199314,1865.0,47.6,135.2,67.0,0.0,0.0,0.0,0,
199514,1861.6,15.0,135.2,67.0,0.0,0.0,0.0,0,
199614,1860.9,13.1,135.2,66.9,0.0,0.0,0.0,0,
199714,1860.2,12.3,135.2,67.4,0.0,0.0,0.0,0,
199814,1860.9,14.4,135.2,169.4,0.0,0.0,0.0,0,
199914,1861.2,13.3,135.2,194.8,0.0,0.0,0.0,0,
200014,1860.8,13.3,135.2,157.2,0.0,0.0,0.0,0,
200114,1861.2,15.3,135.2,133.8,0.0,0.0,0.0,0,
200214,1861.2,13.4,135.2,140.7,0.0,0.0,0.0,0,
200314,1863.4,141.0,135.7,56.6,0.0,0.0,0.0,0,
200514,1859.0,180.9,137.0,65.5,0.0,0.0,0.0,0,
200614,1855.0,171.0,136.0,66.4,0.0,0.0,0.0,0,
200714,1854.1,219.5,136.6,66.7,0.0,0.0,0.0,0,
200814,1867.2,161.2,137.8,67.0,0.0,0.0,0.0,0,
200914,1853.9,72.4,137.5,67.3,0.0,0.0,0.0,0,
201014,1863.2,16.8,137.5,66.9,0.0,0.0,0.0,0,
201114,1861.7,13.3,137.5,67.1,0.0,0.0,0.0,0,
201214,1861.0,13.0,137.5,69.1,0.0,0.0,0.0,0,
201314,1861.1,15.1,137.5,70.8,0.0,0.0,0.0,0,
201514,1860.7,13.4,137.5,201.9,0.0,0.0,0.0,0,
201614,1861.4,15.0,137.5,158.8,0.0,0.0,0.0,0,
201714,1861.7,13.9,137.5,153.3,0.0,0.0,0.0,0,
201814,1861.7,13.7,137.5,154.7,0.0,0.0,0.0,0,
201914,1877.6,99.2,137.8,94.7,0.0,0.0,0.0,0,
202014,1842.0,155.7,139.6,66.4,0.0,0.0,0.0,0,
202114,1867.8,211.0,139.0,66.4,0.0,0.0,0.0,0,
202214,1849.7,188.2,139.8,66.4,0.0,0.0,0.0,0,
202314,1890.5,159.6,140.5,66.7,0.0,0.0,0.0,0,
202514,1870.2,108.9,140.6,67.1,0.0,0.0,0.0,0,
202614,1858.5,17.8,140.4,68.0,0.0,0.0,0.0,0,
202714,1861.0,13.5,140.4,67.1,0.0,0.0,0.0,0,
202814,1861.5,15.0,140.4,66.8,0.0,0.0,0.0,0,
202914,1861.7,13.4,140.4,67.0,0.0,0.0,0.0,0,
203014,1861.0,13.7,140.4,80.7,0.0,0.0,0.0,0,
203114,1861.1,15.0,140.4,135.5,0.0,0.0,0.0,0,
203214,1861.7,14.1,140.4,133.7,0.0,0.0,0.0,0,
203314,1861.8,13.7,140.4,165.6,0.0,0.0,0.0,0,
203514,1862.0,82.1,140.4,144.8,0.0,0.0,0.0,0,
203614,1862.0,151.5,139.4,43.2,0.0,0.0,0.0,0,
203714,1879.0,149.3,139.0,46.7,0.0,0.0,0.0,0,
203814,1858.3,150.3,136.5,66.0,0.0,0.0,0.0,0,
203914,1844.5,171.9,135.3,66.6,0.0,0.0,0.0,0,
204014,1871.1,205.9,135.3,66.8,0.0,0.0,0.0,0,
204114,1853.5,168.2,136.2,67.4,0.0,0.0,0.0,0,
204214,1858.9,21.2,135.4,67.1,0.0,0.0,0.0,0,
204314,1860.6,14.6,135.4,67.3,0.0,0.0,0.0,0,
204514,1860.1,13.8,135.4,74.4,0.0,0.0,0.0,0,
204614,1861.1,13.5,135.4,80.9,0.0,0.0,0.0,0,
204714,1861.8,12.8,135.4,187.1,0.0,0.0,0.0,0,
204814,1861.5,13.4,135.4,168.6,0.0,0.0,0.0,0,
204914,1861.4,14.4,135.4,169.2,0.0,0.0,0.0,0,
205014,1861.2,13.4,135.4,168.7,0.0,0.0,0.0,0,
205114,1861.0,16.9,135.4,177.6,0.0,0.0,0.0,0,
205214,1875.7,142.2,136.4,66.0,0.0,0.0,0.0,0,
205314,1851.3,179.8,138.4,65.7,0.0,0.0,0.0,0,
205514,1868.5,160.9,139.4,66.6,0.0,0.0,0.0,0,
205614,1870.6,156.6,139.2,67.0,0.0,0.0,0.0,0,
205714,1853.5,148.4,139.7,67.2,0.0,0.0,0.0,0,
205814,1860.4,27.9,137.9,69.2,0.0,0.0,0.0,0,
205914,1859.5,13.3,137.9,66.9,0.0,0.0,0.0,0,
206014,1860.6,14.1,137.9,66.6,0.0,0.0,0.0,0,
206114,1861.0,14.4,137.9,66.5,0.0,0.0,0.0,0,
206214,1861.3,13.5,137.9,67.6,0.0,0.0,0.0,0,
206314,1860.3,14.0,138.0,144.1,0.0,0.0,0.0,0,
206514,1862.3,13.2,138.0,187.4,0.0,0.0,0.0,0,
206614,1861.4,14.6,138.0,214.3,0.0,0.0,0.0,0,
206714,1860.7,14.6,138.0,177.8,0.0,0.0,0.0,0,
206814,1861.2,160.2,136.7,54.9,0.0,0.0,0.0,0,
206914,1857.9,170.1,136.2,65.5,0.0,0.0,0.0,0,
207014,1886.6,147.9,135.0,66.3,0.0,0.0,0.0,0,
207114,1839.9,154.4,135.3,66.5,0.0,0.0,0.0,0,
207214,1866.2,155.6,133.4,66.8,0.0,0.0,0.0,0,
207314,1855.5,207.0,131.9,67.5,0.0,0.0,0.0,0,
207514,1860.4,14.8,132.7,67.2,0.0,0.0,0.0,0,
207614,1862.1,14.8,132.7,67.2,0.0,0.0,0.0,0,
207714,1861.2,12.9,132.7,67.1,0.0,0.0,0.0,0,
207814,1860.6,13.9,132.7,67.3,0.0,0.0,0.0,0,
207914,1861.1,13.7,132.7,168.8,0.0,0.0,0.0,0,
208014,1861.4,12.7,132.7,158.7,0.0,0.0,0.0,0,
208114,1861.8,14.1,132.7,167.0,0.0,0.0,0.0,0,
208214,1860.8,14.0,132.7,164.0,0.0,0.0,0.0,0,
208314,1861.7,15.1,132.7,163.3,0.0,0.0,0.0,0,
208514,1856.6,149.2,133.7,39.0,0.0,0.0,0.0,0,
208614,1847.8,169.7,134.1,43.4,0.0,0.0,0.0,0,
208714,1869.6,205.7,132.3,66.3,0.0,0.0,0.0,0,
208814,1851.0,161.9,134.9,67.0,0.0,0.0,0.0,0,
208914,1885.5,155.8,134.8,67.0,0.0,0.0,0.0,0,
209014,1837.3,62.1,133.8,67.2,0.0,0.0,0.0,0,
209114,1861.5,14.5,133.8,66.9,0.0,0.0,0.0,0,
209214,1861.6,13.8,133.8,67.0,0.0,0.0,0.0,0,
209314,1861.3,13.5,133.8,68.2,0.0,0.0,0.0,0,
209514,1861.2,13.1,133.8,155.8,0.0,0.0,0.0,0,
209614,1860.5,13.7,133.8,167.1,0.0,0.0,0.0,0,
209714,1861.1,13.6,133.8,167.7,0.0,0.0,0.0,0,
209814,1862.5,13.0,133.8,174.5,0.0,0.0,0.0,0,
209914,1861.6,12.9,133.8,168.9,0.0,0.0,0.0,0,
210014,1861.1,130.7,134.7,75.0,0.0,0.0,0.0,0,
210114,1862.2,183.3,135.1,67.4,0.0,0.0,0.0,0,
210214,1858.6,194.2,134.7,66.8,0.0,0.0,0.0,0,
210314,1881.6,153.2,137.8,66.6,0.0,0.0,0.0,0,
210514,1849.8,166.2,137.0,67.2,0.0,0.0,0.0,0,
210614,1869.1,98.8,137.8,67.1,0.0,0.0,0.0,0,
210714,1860.5,17.4,137.7,67.2,0.0,0.0,0.0,0,
210814,1861.2,14.8,137.8,66.8,0.0,0.0,0.0,0,
210914,1861.7,13.8,137.8,66.7,0.0,0.0,0.0,0,
211014,1862.4,12.7,137.8,67.0,0.0,0.0,0.0,0,
211114,1861.2,13.3,137.7,129.9,0.0,0.0,0.0,0,
211214,1861.4,15.1,137.7,147.5,0.0,0.0,0.0,0,
211314,1861.3,12.8,137.8,146.3,0.0,0.0,0.0,0,
211514,1860.8,13.7,137.7,166.3,0.0,0.0,0.0,0,
211614,1861.4,94.6,137.7,157.0,0.0,0.0,0.0,0,
211714,1868.8,137.4,137.4,51.8,0.0,0.0,0.0,0,
211814,1860.2,168.8,140.2,65.8,0.0,0.0,0.0,0,
211914,1852.7,181.2,136.5,66.4,0.0,0.0,0.0,0,
212014,1858.3,224.1,137.4,66.5,0.0,0.0,0.0,0,
212114,1866.7,158.6,137.9,66.9,0.0,0.0,0.0,0,
212214,1872.9,158.3,137.8,67.0,0.0,0.0,0.0,0,
212314,1841.9,21.1,137.0,66.9,0.0,0.0,0.0,0,
212514,1860.9,13.0,137.0,67.4,0.0,0.0,0.0,0,
212614,1861.7,14.0,137.0,67.9,0.0,0.0,0.0,0,
212714,1860.7,14.1,137.0,73.5,0.0,0.0,0.0,0,
212814,1861.3,13.4,137.0,174.3,0.0,0.0,0.0,0,
212914,1861.2,13.6,137.0,171.8,0.0,0.0,0.0,0,
213014,1861.4,15.3,137.0,166.7,0.0,0.0,0.0,0,
213114,1861.7,13.5,137.0,154.4,0.0,0.0,0.0,0,
213214,1861.8,25.2,137.0,141.6,0.0,0.0,0.0,0,
213314,1865.5,135.2,136.8,41.8,0.0,0.0,0.0,0,
213514,1864.9,168.7,135.5,65.7,0.0,0.0,0.0,0,
213614,1879.1,140.6,134.3,66.6,0.0,0.0,0.0,0,
213714,1839.3,162.7,134.5,66.9,0.0,0.0,0.0,0,
213814,1868.3,160.6,132.8,67.2,0.0,0.0,0.0,0,
213914,1855.8,27.0,132.1,67.2,0.0,0.0,0.0,0,
214014,1860.2,13.5,132.1,66.9,0.0,0.0,0.0,0,
214114,1861.8,13.6,132.1,66.9,0.0,0.0,0.0,0,
214214,1861.0,13.8,132.1,67.4,0.0,0.0,0.0,0,
214314,1861.8,13.7,132.2,71.3,0.0,0.0,0.0,0,
214514,1861.8,14.4,132.2,144.5,0.0,0.0,0.0,0,
214614,1861.6,13.7,132.2,171.9,0.0,0.0,0.0,0,
214714,1861.0,13.9,132.1,173.0,0.0,0.0,0.0,0,
214814,1862.0,15.1,132.2,149.5,0.0,0.0,0.0,0,
214914,1856.6,133.3,132.4,66.4,0.0,0.0,0.0,0,
215014,1886.3,146.3,132.2,66.4,0.0,0.0,0.0,0,
215114,1841.4,183.9,131.5,66.4,0.0,0.0,0.0,0,
215214,1864.7,172.1,131.0,66.5,0.0,0.0,0.0,0,
215314,1860.5,204.7,129.5,66.8,0.0,0.0,0.0,0,
215514,1864.2,35.7,131.7,67.0,0.0,0.0,0.0,0,
215614,1859.2,17.3,131.8,67.1,0.0,0.0,0.0,0,
215714,1860.6,14.3,131.8,67.1,0.0,0.0,0.0,0,
215814,1861.8,14.1,131.8,67.4,0.0,0.0,0.0,0,
215914,1861.3,14.6,131.8,69.3,0.0,0.0,0.0,0,
216014,1861.1,13.8,131.8,138.3,0.0,0.0,0.0,0,
216114,1861.2,12.4,131.8,196.4,0.0,0.0,0.0,0,
216214,1860.6,15.1,131.8,198.0,0.0,0.0,0.0,0,
216314,1861.1,14.4,131.8,214.1,0.0,0.0,0.0,0,
216514,1873.5,115.6,132.3,66.2,0.0,0.0,0.0,0,
216614,1844.5,149.0,133.2,51.3,0.0,0.0,0.0,0,
216714,1868.8,207.8,132.0,66.0,0.0,0.0,0.0,0,
216814,1856.2,172.9,132.0,66.5,0.0,0.0,0.0,0,
216914,1879.0,156.7,131.8,66.7,0.0,0.0,0.0,0,
217014,1848.3,166.7,129.3,66.9,0.0,0.0,0.0,0,
217114,1851.7,53.0,129.6,67.0,0.0,0.0,0.0,0,
217214,1860.5,22.2,129.6,67.0,0.0,0.0,0.0,0,
217314,1861.3,12.9,129.6,68.8,0.0,0.0,0.0,0,
217514,1861.7,14.1,129.6,74.0,0.0,0.0,0.0,0,
217614,1861.7,13.1,129.6,85.6,0.0,0.0,0.0,0,
217714,1860.9,14.8,129.6,84.0,0.0,0.0,0.0,0,
217814,1860.8,14.1,129.6,108.0,0.0,0.0,0.0,0,
217914,1862.0,12.6,129.6,133.9,0.0,0.0,0.0,0,
218014,1860.6,15.4,129.6,133.5,0.0,0.0,0.0,0,
218114,1864.4,138.6,129.2,67.3,0.0,0.0,0.0,0,
218214,1863.5,153.1,128.9,54.4,0.0,0.0,0.0,0,
218314,1874.2,136.5,131.0,65.6,0.0,0.0,0.0,0,
218514,1858.0,160.6,129.5,66.7,0.0,0.0,0.0,0,
218614,1857.2,183.5,129.1,66.8,0.0,0.0,0.0,0,
218714,1863.9,72.0,128.0,67.2,0.0,0.0,0.0,0,
218814,1863.5,18.3,128.0,67.0,0.0,0.0,0.0,0,
218914,1861.0,14.0,128.0,66.7,0.0,0.0,0.0,0,
219014,1862.3,13.1,128.0,66.9,0.0,0.0,0.0,0,
219114,1862.2,14.2,128.0,68.4,0.0,0.0,0.0,0,
219214,1861.4,12.7,128.0,149.9,0.0,0.0,0.0,0,
219314,1861.2,14.2,128.0,152.3,0.0,0.0,0.0,0,
219514,1860.9,15.8,127.9,177.6,0.0,0.0,0.0,0,
219614,1861.9,12.9,128.0,199.6,0.0,0.0,0.0,0,
219714,1872.4,79.4,128.7,115.7,0.0,0.0,0.0,0,
219814,1858.0,125.6,129.3,67.0,0.0,0.0,0.0,0,
219914,1857.2,149.8,128.0,66.5,0.0,0.0,0.0,0,
220014,1857.4,190.9,126.4,66.4,0.0,0.0,0.0,0,
220114,1868.0,157.7,126.8,66.6,0.0,0.0,0.0,0,
220214,1868.8,161.5,126.4,66.9,0.0,0.0,0.0,0,
220314,1851.9,140.8,126.6,66.9,0.0,0.0,0.0,0,
220514,1860.6,13.9,126.5,67.0,0.0,0.0,0.0,0,
220614,1862.5,12.2,126.5,67.2,0.0,0.0,0.0,0,
220714,1862.0,13.8,126.5,68.3,0.0,0.0,0.0,0,
220814,1862.0,13.2,126.5,82.3,0.0,0.0,0.0,0,
220914,1861.5,12.7,126.6,148.8,0.0,0.0,0.0,0,
221014,1861.3,13.7,126.6,147.9,0.0,0.0,0.0,0,
221114,1862.7,13.7,126.6,156.9,0.0,0.0,0.0,0,
221214,1861.7,13.3,126.5,155.2,0.0,0.0,0.0,0,
221314,1861.3,52.7,126.5,145.5,0.0,0.0,0.0,0,
221514,1866.3,179.6,129.2,65.8,0.0,0.0,0.0,0,
221614,1879.6,134.0,130.0,66.3,0.0,0.0,0.0,0,
221714,1840.0,153.0,130.8,66.4,0.0,0.0,0.0,0,
221814,1868.0,147.2,130.8,66.8,0.0,0.0,0.0,0,
221914,1848.0,185.9,130.4,67.1,0.0,0.0,0.0,0,
222014,1863.5,22.4,130.3,67.0,0.0,0.0,0.0,0,
222114,1860.3,13.3,130.3,67.2,0.0,0.0,0.0,0,
222214,1861.8,14.2,130.3,67.7,0.0,0.0,0.0,0,
222314,1861.9,12.3,130.3,68.0,0.0,0.0,0.0,0,
222514,1861.5,13.9,130.3,132.1,0.0,0.0,0.0,0,
222614,1861.3,13.2,130.3,131.0,0.0,0.0,0.0,0,
222714,1862.1,13.2,130.3,138.8,0.0,0.0,0.0,0,
222814,1861.4,14.9,130.3,194.6,0.0,0.0,0.0,0,
222914,1861.8,13.7,130.3,234.3,0.0,0.0,0.0,0,
223014,1881.3,110.6,131.3,46.7,0.0,0.0,0.0,0,
223114,1846.8,160.4,130.6,41.9,0.0,0.0,0.0,0,
223214,1859.0,158.5,130.5,65.6,0.0,0.0,0.0,0,
223314,1866.0,197.8,130.3,66.5,0.0,0.0,0.0,0,
223514,1881.6,150.5,131.5,66.9,0.0,0.0,0.0,0,
223614,1842.3,32.5,131.1,67.0,0.0,0.0,0.0,0,
223714,1860.6,13.9,131.1,66.8,0.0,0.0,0.0,0,
223814,1861.9,12.9,131.1,67.2,0.0,0.0,0.0,0,
223914,1862.3,14.3,131.1,68.7,0.0,0.0,0.0,0,
224014,1861.6,13.9,131.1,70.0,0.0,0.0,0.0,0,
224114,1862.2,14.1,131.1,163.2,0.0,0.0,0.0,0,
224214,1861.7,13.0,131.1,135.7,0.0,0.0,0.0,0,
224314,1862.2,14.5,131.1,125.4,0.0,0.0,0.0,0,
224514,1862.2,13.7,131.2,175.1,0.0,0.0,0.0,0,
224614,1857.9,143.5,132.3,67.5,0.0,0.0,0.0,0,
224714,1869.6,174.5,131.7,66.5,0.0,0.0,0.0,0,
224814,1855.0,186.8,131.5,66.3,0.0,0.0,0.0,0,
224914,1882.6,129.9,131.4,66.4,0.0,0.0,0.0,0,
225014,1843.9,151.6,128.9,66.8,0.0,0.0,0.0,0,
225114,1860.7,154.9,129.3,66.9,0.0,0.0,0.0,0,
225214,1862.9,39.8,128.4,67.1,0.0,0.0,0.0,0,
225314,1860.3,13.9,128.4,67.0,0.0,0.0,0.0,0,
225514,1861.0,13.9,128.4,67.1,0.0,0.0,0.0,0,
225614,1861.7,13.3,128.4,68.7,0.0,0.0,0.0,0,
225714,1862.7,12.9,128.4,117.1,0.0,0.0,0.0,0,
225814,1861.8,15.0,128.4,134.9,0.0,0.0,0.0,0,
225914,1862.1,14.2,128.4,149.5,0.0,0.0,0.0,0,
226014,1862.0,13.4,128.4,141.1,0.0,0.0,0.0,0,
226114,1861.0,12.2,128.4,109.3,0.0,0.0,0.0,0,
226214,1861.7,131.7,128.1,56.2,0.0,0.0,0.0,0,
226314,1874.3,122.7,128.8,51.3,0.0,0.0,0.0,0,
226514,1855.5,168.4,127.7,66.4,0.0,0.0,0.0,0,
226614,1861.4,181.6,128.6,66.6,0.0,0.0,0.0,0,
226714,1868.2,146.3,128.8,67.2,0.0,0.0,0.0,0,
226814,1850.5,58.7,129.1,67.2,0.0,0.0,0.0,0,
226914,1861.7,15.0,129.1,67.0,0.0,0.0,0.0,0,
227014,1861.0,14.1,129.1,68.6,0.0,0.0,0.0,0,
227114,1861.6,12.8,129.1,70.5,0.0,0.0,0.0,0,
227214,1861.8,12.5,129.1,71.5,0.0,0.0,0.0,0,
227314,1861.0,14.1,129.1,189.1,0.0,0.0,0.0,0,
227514,1861.8,13.3,129.1,183.6,0.0,0.0,0.0,0,
227614,1861.5,12.2,129.1,175.8,0.0,0.0,0.0,0,
227714,1860.1,13.0,129.1,196.8,0.0,0.0,0.0,0,
227814,1872.9,84.3,129.7,85.9,0.0,0.0,0.0,0,
227914,1855.0,151.7,129.7,44.5,0.0,0.0,0.0,0,
228014,1858.8,196.8,128.9,47.2,0.0,0.0,0.0,0,
228114,1864.6,182.6,131.8,65.9,0.0,0.0,0.0,0,
228214,1880.3,124.8,131.9,66.7,0.0,0.0,0.0,0,
228314,1838.6,157.2,133.2,66.9,0.0,0.0,0.0,0,
228514,1857.0,17.7,133.4,67.0,0.0,0.0,0.0,0,
228614,1861.5,12.1,133.4,66.7,0.0,0.0,0.0,0,
228714,1861.7,12.8,133.4,66.8,0.0,0.0,0.0,0,
228814,1861.3,14.1,133.4,67.3,0.0,0.0,0.0,0,
228914,1861.1,12.7,133.4,94.4,0.0,0.0,0.0,0,
229014,1861.7,11.1,133.4,188.3,0.0,0.0,0.0,0,
229114,1861.3,13.3,133.4,172.2,0.0,0.0,0.0,0,
229214,1861.4,12.1,133.4,141.8,0.0,0.0,0.0,0,
229314,1860.5,11.7,133.4,151.6,0.0,0.0,0.0,0,
229514,1856.2,151.8,133.5,55.6,0.0,0.0,0.0,0,
229614,1889.4,150.5,133.8,66.0,0.0,0.0,0.0,0,
229714,1839.7,187.2,134.5,66.4,0.0,0.0,0.0,0,
229814,1860.5,183.0,135.4,66.4,0.0,0.0,0.0,0,
229914,1863.6,184.6,135.7,66.7,0.0,0.0,0.0,0,
230014,1856.9,160.3,136.9,66.9,0.0,0.0,0.0,0,
230114,1857.5,21.1,136.7,66.8,0.0,0.0,0.0,0,
230214,1860.6,12.9,136.7,67.2,0.0,0.0,0.0,0,
230314,1861.0,13.8,136.7,67.9,0.0,0.0,0.0,0,
230514,1861.4,11.7,136.7,71.3,0.0,0.0,0.0,0,
230614,1861.0,12.4,136.7,150.7,0.0,0.0,0.0,0,
230714,1861.2,12.4,136.7,226.4,0.0,0.0,0.0,0,
230814,1861.5,11.9,136.7,238.2,0.0,0.0,0.0,0,
230914,1860.9,13.5,136.7,198.5,0.0,0.0,0.0,0,
231014,1861.3,13.2,136.7,187.5,0.0,0.0,0.0,0,
231114,1873.3,121.7,137.7,50.9,0.0,0.0,0.0,0,
231214,1853.3,172.5,138.3,53.5,0.0,0.0,0.0,0,
231314,1857.6,195.2,136.8,65.9,0.0,0.0,0.0,0,
231514,1868.1,149.6,134.2,66.9,0.0,0.0,0.0,0,
231614,1853.4,173.8,133.3,67.0,0.0,0.0,0.0,0,
231714,1860.8,29.1,133.5,67.1,0.0,0.0,0.0,0,
231814,1860.7,13.8,133.5,66.9,0.0,0.0,0.0,0,
231914,1860.8,13.7,133.5,67.0,0.0,0.0,0.0,0,
232014,1861.6,12.2,133.5,68.0,0.0,0.0,0.0,0,
232114,1860.9,13.5,133.5,71.8,0.0,0.0,0.0,0,
232214,1860.9,12.2,133.5,72.8,0.0,0.0,0.0,0,
232314,1860.4,12.0,133.5,92.3,0.0,0.0,0.0,0,
232514,1860.8,12.2,133.5,164.3,0.0,0.0,0.0,0,
232614,1861.4,12.2,133.5,169.8,0.0,0.0,0.0,0,
232714,1858.2,154.2,132.9,66.5,0.0,0.0,0.0,0,
232814,1868.2,181.4,133.4,66.4,0.0,0.0,0.0,0,
232914,1879.1,139.2,133.3,66.4,0.0,0.0,0.0,0,
233014,1837.6,174.9,133.6,66.4,0.0,0.0,0.0,0,
233114,1873.9,192.7,134.8,66.8,0.0,0.0,0.0,0,
233214,1844.6,197.5,135.8,67.0,0.0,0.0,0.0,0,
233314,1865.7,42.4,136.9,66.9,0.0,0.0,0.0,0,
233514,1861.9,12.9,136.8,67.2,0.0,0.0,0.0,0,
233614,1860.9,13.3,136.8,67.8,0.0,0.0,0.0,0,
233714,1861.3,10.6,136.9,69.7,0.0,0.0,0.0,0,
233814,1861.0,12.2,136.8,117.5,0.0,0.0,0.0,0,
233914,1862.0,12.0,136.8,135.2,0.0,0.0,0.0,0,
234014,1861.3,12.7,136.8,135.5,0.0,0.0,0.0,0,
234114,1862.1,12.2,136.8,142.9,0.0,0.0,0.0,0,
234214,1861.8,12.4,136.8,155.3,0.0,0.0,0.0,0,
234314,1881.1,103.1,137.5,56.0,0.0,0.0,0.0,0,
234514,1857.7,169.6,137.5,66.0,0.0,0.0,0.0,0,
234614,1866.9,187.6,136.6,66.5,0.0,0.0,0.0,0,
234714,1858.7,166.7,137.0,66.7,0.0,0.0,0.0,0,
234814,1876.9,150.6,135.8,66.9,0.0,0.0,0.0,0,
234914,1840.1,62.4,133.9,67.1,0.0,0.0,0.0,0,
235014,1862.1,15.2,133.9,66.8,0.0,0.0,0.0,0,
235114,1860.3,12.0,133.8,67.2,0.0,0.0,0.0,0,
235214,1861.1,11.7,133.8,69.6,0.0,0.0,0.0,0,
235314,1860.7,12.9,133.8,71.6,0.0,0.0,0.0,0,
235514,1860.7,10.6,133.8,148.1,0.0,0.0,0.0,0,
235614,1861.5,12.5,133.8,196.8,0.0,0.0,0.0,0,
235714,1861.3,12.4,133.8,200.5,0.0,0.0,0.0,0,
235814,1861.4,12.4,133.8,165.0,0.0,0.0,0.0,0,
235914,1860.8,116.8,134.4,66.9,0.0,0.0,0.0,0,
236014,1864.9,191.7,135.0,66.1,0.0,0.0,0.0,0,
236114,1860.4,174.2,135.8,66.1,0.0,0.0,0.0,0,
236214,1882.8,146.2,137.4,66.3,0.0,0.0,0.0,0,
236314,1843.4,178.4,136.9,66.7,0.0,0.0,0.0,0,
236514,1860.9,98.6,137.9,66.9,0.0,0.0,0.0,0,
236614,1862.3,16.8,137.7,67.0,0.0,0.0,0.0,0,
236714,1860.7,12.9,137.7,66.8,0.0,0.0,0.0,0,
236814,1861.8,14.1,137.7,67.0,0.0,0.0,0.0,0,
236914,1861.3,13.2,137.7,68.1,0.0,0.0,0.0,0,
237014,1861.0,13.5,137.7,100.2,0.0,0.0,0.0,0,
237114,1861.8,12.4,137.7,171.2,0.0,0.0,0.0,0,
237214,1861.6,13.2,137.7,152.8,0.0,0.0,0.0,0,
237314,1861.6,11.0,137.7,124.9,0.0,0.0,0.0,0,
237514,1860.3,94.1,137.8,70.2,0.0,0.0,0.0,0,
237614,1877.1,118.6,138.0,56.7,0.0,0.0,0.0,0,
237714,1849.1,154.1,137.0,66.0,0.0,0.0,0.0,0,
237814,1856.0,182.4,134.8,66.3,0.0,0.0,0.0,0,
237914,1862.2,189.7,134.0,66.5,0.0,0.0,0.0,0,
238014,1867.9,158.0,133.1,66.9,0.0,0.0,0.0,0,
238114,1868.8,144.4,133.9,66.9,0.0,0.0,0.0,0,
238214,1848.1,18.8,133.0,67.0,0.0,0.0,0.0,0,
238314,1861.6,13.2,133.0,67.1,0.0,0.0,0.0,0,
238514,1861.1,12.8,133.0,67.6,0.0,0.0,0.0,0,
238614,1861.4,11.6,133.0,75.7,0.0,0.0,0.0,0,
238714,1861.0,13.0,133.0,166.3,0.0,0.0,0.0,0,
238814,1861.7,11.6,133.0,124.7,0.0,0.0,0.0,0,
238914,1861.0,11.9,133.0,104.6,0.0,0.0,0.0,0,
239014,1862.0,12.6,133.0,105.3,0.0,0.0,0.0,0,
239114,1860.8,27.3,133.0,134.4,0.0,0.0,0.0,0,
239214,1865.6,134.7,132.7,56.8,0.0,0.0,0.0,0,
239314,1852.9,189.4,132.0,66.0,0.0,0.0,0.0,0,
239514,1870.8,133.7,132.2,66.6,0.0,0.0,0.0,0,
239614,1847.8,163.4,131.0,66.6,0.0,0.0,0.0,0,
239714,1866.2,175.5,129.5,66.9,0.0,0.0,0.0,0,
239814,1853.3,23.2,128.7,66.9,0.0,0.0,0.0,0,
239914,1860.6,13.6,128.7,66.9,0.0,0.0,0.0,0,
240014,1860.9,12.1,128.7,67.6,0.0,0.0,0.0,0,
240114,1861.5,13.1,128.7,69.2,0.0,0.0,0.0,0,
240214,1861.5,12.9,128.7,75.6,0.0,0.0,0.0,0,
240314,1861.4,11.2,128.7,148.9,0.0,0.0,0.0,0,
240514,1861.4,12.1,128.7,144.4,0.0,0.0,0.0,0,
240614,1860.6,12.0,128.7,156.2,0.0,0.0,0.0,0,
240714,1860.8,12.1,128.7,173.1,0.0,0.0,0.0,0,
240814,1864.7,142.4,128.7,66.3,0.0,0.0,0.0,0,
240914,1886.4,134.2,130.4,65.9,0.0,0.0,0.0,0,
241014,1833.2,154.6,130.5,66.1,0.0,0.0,0.0,0,
241114,1868.5,165.5,131.0,66.4,0.0,0.0,0.0,0,
241214,1854.4,182.4,129.9,66.7,0.0,0.0,0.0,0,
241314,1870.8,154.0,131.9,66.7,0.0,0.0,0.0,0,
241514,1859.3,14.6,131.2,66.8,0.0,0.0,0.0,0,
241614,1862.5,14.2,131.2,66.7,0.0,0.0,0.0,0,
241714,1862.3,11.2,131.2,67.1,0.0,0.0,0.0,0,
241814,1861.4,12.5,131.2,69.9,0.0,0.0,0.0,0,
241914,1861.8,13.5,131.2,117.0,0.0,0.0,0.0,0,
242014,1861.6,12.4,131.2,124.3,0.0,0.0,0.0,0,
242114,1860.6,11.8,131.2,134.5,0.0,0.0,0.0,0,
242214,1861.1,14.3,131.2,146.9,0.0,0.0,0.0,0,
242314,1861.6,13.9,131.2,140.3,0.0,0.0,0.0,0,
242514,1854.3,151.6,131.2,56.8,0.0,0.0,0.0,0,
242614,1864.8,182.2,130.0,66.1,0.0,0.0,0.0,0,
242714,1859.1,154.9,129.0,66.4,0.0,0.0,0.0,0,
242814,1879.2,117.6,129.6,66.6,0.0,0.0,0.0,0,
242914,1841.7,155.9,127.3,67.1,0.0,0.0,0.0,0,
243014,1859.7,41.2,127.6,67.0,0.0,0.0,0.0,0,
243114,1860.4,14.6,127.6,66.8,0.0,0.0,0.0,0,
243214,1861.3,13.0,127.6,66.9,0.0,0.0,0.0,0,
243314,1861.4,11.7,127.6,66.8,0.0,0.0,0.0,0,
243514,1861.2,12.8,127.6,204.0,0.0,0.0,0.0,0,
243614,1860.9,12.6,127.6,210.0,0.0,0.0,0.0,0,
243714,1861.7,12.9,127.6,164.3,0.0,0.0,0.0,0,
243814,1861.1,13.5,127.6,132.8,0.0,0.0,0.0,0,
243914,1861.4,12.5,127.6,141.1,0.0,0.0,0.0,0,
244014,1866.6,130.3,127.5,53.9,0.0,0.0,0.0,0,
244114,1861.1,164.1,126.9,45.8,0.0,0.0,0.0,0,
244214,1880.3,140.0,128.9,65.7,0.0,0.0,0.0,0,
244314,1845.3,156.3,129.8,66.4,0.0,0.0,0.0,0,
244514,1862.5,179.4,130.6,66.6,0.0,0.0,0.0,0,
244614,1858.4,76.4,131.1,67.0,0.0,0.0,0.0,0,
244714,1863.0,15.5,131.1,66.8,0.0,0.0,0.0,0,
244814,1861.7,12.3,131.1,66.9,0.0,0.0,0.0,0,
244914,1861.7,13.8,131.1,67.5,0.0,0.0,0.0,0,
245014,1861.2,11.9,131.1,69.4,0.0,0.0,0.0,0,
245114,1861.1,12.3,131.1,130.3,0.0,0.0,0.0,0,
245214,1861.2,11.5,131.1,155.8,0.0,0.0,0.0,0,
245314,1861.2,12.9,131.1,168.4,0.0,0.0,0.0,0,
245514,1862.2,10.7,131.1,197.9,0.0,0.0,0.0,0,
245614,1877.1,75.7,131.6,102.3,0.0,0.0,0.0,0,
245714,1849.9,134.9,132.0,66.1,0.0,0.0,0.0,0,
245814,1858.3,167.7,131.6,66.1,0.0,0.0,0.0,0,
245914,1855.3,184.1,130.1,66.2,0.0,0.0,0.0,0,
246014,1873.3,147.0,129.9,66.5,0.0,0.0,0.0,0,
246114,1866.1,118.7,129.8,66.8,0.0,0.0,0.0,0,
246214,1853.7,109.4,128.9,66.7,0.0,0.0,0.0,0,
246314,1859.6,17.2,128.7,66.8,0.0,0.0,0.0,0,
246514,1861.6,12.3,128.8,66.5,0.0,0.0,0.0,0,
246614,1860.7,12.3,128.8,66.9,0.0,0.0,0.0,0,
246714,1861.8,12.6,128.8,82.8,0.0,0.0,0.0,0,
246814,1861.2,12.7,128.8,150.4,0.0,0.0,0.0,0,
246914,1862.0,11.8,128.8,151.0,0.0,0.0,0.0,0,
247014,1861.7,12.4,128.8,163.7,0.0,0.0,0.0,0,
247114,1861.3,13.1,128.8,155.7,0.0,0.0,0.0,0,
247214,1861.2,63.4,128.8,202.8,0.0,0.0,0.0,0,
247314,1857.8,164.6,129.0,55.6,0.0,0.0,0.0,0,
247514,1875.9,124.7,129.7,66.3,0.0,0.0,0.0,0,
247614,1840.6,159.0,129.8,66.4,0.0,0.0,0.0,0,
247714,1867.0,162.3,130.5,66.7,0.0,0.0,0.0,0,
247814,1851.6,179.3,130.1,66.8,0.0,0.0,0.0,0,
247914,1864.8,23.7,130.8,66.7,0.0,0.0,0.0,0,
248014,1861.3,13.3,130.7,66.8,0.0,0.0,0.0,0,
248114,1862.7,13.4,130.7,66.9,0.0,0.0,0.0,0,
248214,1861.3,12.6,130.7,67.2,0.0,0.0,0.0,0,
248314,1860.8,11.7,130.7,70.6,0.0,0.0,0.0,0,
248514,1861.5,13.2,130.7,185.5,0.0,0.0,0.0,0,
248614,1862.2,14.1,130.7,188.4,0.0,0.0,0.0,0,
248714,1861.5,12.1,130.7,104.8,0.0,0.0,0.0,0,
248814,1862.9,13.7,130.7,105.8,0.0,0.0,0.0,0,
248914,1882.0,106.1,131.0,56.2,0.0,0.0,0.0,0,
249014,1838.3,162.1,130.5,65.7,0.0,0.0,0.0,0,
249114,1861.0,181.5,132.3,66.2,0.0,0.0,0.0,0,
249214,1864.1,186.5,133.8,66.6,0.0,0.0,0.0,0,
249314,1863.7,158.4,135.3,66.6,0.0,0.0,0.0,0,
249514,1847.6,29.4,134.7,66.8,0.0,0.0,0.0,0,
249614,1860.4,15.1,134.7,66.6,0.0,0.0,0.0,0,
249714,1862.0,12.5,134.7,67.0,0.0,0.0,0.0,0,
249814,1860.3,12.4,134.7,68.6,0.0,0.0,0.0,0,
249914,1861.2,11.8,134.7,73.1,0.0,0.0,0.0,0,
250014,1861.3,13.9,134.7,88.4,0.0,0.0,0.0,0,
250114,1861.4,11.2,134.7,117.1,0.0,0.0,0.0,0,
250214,1861.6,11.3,134.7,140.1,0.0,0.0,0.0,0,
250314,1861.5,13.7,134.7,110.4,0.0,0.0,0.0,0,
250514,1860.9,140.0,135.6,66.4,0.0,0.0,0.0,0,
250614,1865.3,184.1,136.2,66.1,0.0,0.0,0.0,0,
250714,1862.1,170.9,134.9,66.2,0.0,0.0,0.0,0,
250814,1878.9,130.1,133.9,66.4,0.0,0.0,0.0,0,
250914,1844.4,170.5,130.8,66.9,0.0,0.0,0.0,0,
251014,1862.0,169.3,130.5,66.9,0.0,0.0,0.0,0,
251114,1863.2,35.1,130.0,66.9,0.0,0.0,0.0,0,
251214,1860.9,13.8,130.0,66.8,0.0,0.0,0.0,0,
251314,1861.2,11.8,130.0,66.6,0.0,0.0,0.0,0,
251514,1861.8,13.3,130.0,68.7,0.0,0.0,0.0,0,
251614,1862.1,12.7,130.0,178.4,0.0,0.0,0.0,0,
251714,1862.2,12.6,130.0,154.7,0.0,0.0,0.0,0,
251814,1862.5,13.6,130.0,149.2,0.0,0.0,0.0,0,
251914,1861.9,11.7,130.0,153.1,0.0,0.0,0.0,0,
252014,1861.6,15.2,129.9,151.6,0.0,0.0,0.0,0,
252114,1864.8,135.3,129.7,66.9,0.0,0.0,0.0,0,
252214,1873.7,117.9,130.8,65.5,0.0,0.0,0.0,0,
252314,1847.9,151.4,129.8,66.1,0.0,0.0,0.0,0,
252514,1866.3,175.0,130.5,66.7,0.0,0.0,0.0,0,
252614,1868.2,154.9,132.1,67.0,0.0,0.0,0.0,0,
252714,1850.8,55.9,132.4,66.9,0.0,0.0,0.0,0,
252814,1861.9,14.5,132.4,66.9,0.0,0.0,0.0,0,
252914,1861.0,11.2,132.4,67.0,0.0,0.0,0.0,0,
253014,1860.2,12.2,132.4,67.0,0.0,0.0,0.0,0,
253114,1861.9,12.6,132.4,67.5,0.0,0.0,0.0,0,
253214,1862.5,12.5,132.4,146.4,0.0,0.0,0.0,0,
253314,1861.5,13.2,132.4,147.8,0.0,0.0,0.0,0,
253514,1861.5,11.4,132.4,176.6,0.0,0.0,0.0,0,
253614,1861.5,15.4,132.4,136.4,0.0,0.0,0.0,0,
253714,1870.7,89.7,133.1,75.7,0.0,0.0,0.0,0,
253814,1855.8,162.8,132.4,45.3,0.0,0.0,0.0,0,
253914,1855.3,180.2,134.2,56.8,0.0,0.0,0.0,0,
254014,1877.5,166.6,134.5,66.2,0.0,0.0,0.0,0,
254114,1857.4,125.3,135.2,66.8,0.0,0.0,0.0,0,
254214,1853.6,152.6,134.9,67.0,0.0,0.0,0.0,0,
254314,1858.0,80.5,133.8,67.4,0.0,0.0,0.0,0,
254514,1861.1,13.3,133.7,66.7,0.0,0.0,0.0,0,
254614,1862.1,12.6,133.8,67.3,0.0,0.0,0.0,0,
254714,1861.7,11.8,133.8,68.8,0.0,0.0,0.0,0,
254814,1861.4,13.1,133.8,138.1,0.0,0.0,0.0,0,
254914,1861.9,13.4,133.8,183.5,0.0,0.0,0.0,0,
255014,1861.5,12.2,133.8,209.8,0.0,0.0,0.0,0,
255114,1861.8,12.9,133.8,233.7,0.0,0.0,0.0,0,
255214,1861.5,12.3,133.8,210.7,0.0,0.0,0.0,0,
255314,1861.5,95.7,133.7,204.2,0.0,0.0,0.0,0,
255514,1880.0,137.9,132.9,65.9,0.0,0.0,0.0,0,
255614,1838.8,165.1,132.9,66.1,0.0,0.0,0.0,0,
255714,1869.9,175.0,132.0,66.5,0.0,0.0,0.0,0,
255814,1850.6,169.6,130.8,66.8,0.0,0.0,0.0,0,
255914,1878.1,136.4,130.1,66.8,0.0,0.0,0.0,0,
256014,1852.8,18.9,129.5,66.9,0.0,0.0,0.0,0,
256114,1861.3,14.0,129.5,66.7,0.0,0.0,0.0,0,
256214,1861.2,12.6,129.5,66.8,0.0,0.0,0.0,0,
256314,1861.5,13.9,129.5,67.3,0.0,0.0,0.0,0,
256514,1862.0,12.1,129.5,167.2,0.0,0.0,0.0,0,
256614,1861.7,12.9,129.5,166.1,0.0,0.0,0.0,0,
256714,1861.2,13.6,129.5,138.2,0.0,0.0,0.0,0,
256814,1861.0,13.4,129.5,152.0,0.0,0.0,0.0,0,
256914,1862.0,14.5,129.5,124.8,0.0,0.0,0.0,0,
257014,1860.4,137.2,130.5,49.9,0.0,0.0,0.0,0,
257114,1863.1,174.4,130.2,57.0,0.0,0.0,0.0,0,
257214,1864.3,181.5,129.5,66.1,0.0,0.0,0.0,0,
257314,1867.4,157.9,131.4,66.4,0.0,0.0,0.0,0,
257514,1841.9,162.4,132.1,67.0,0.0,0.0,0.0,0,
257614,1864.1,23.8,132.6,67.0,0.0,0.0,0.0,0,
257714,1861.7,13.6,132.6,66.9,0.0,0.0,0.0,0,
257814,1862.1,14.0,132.6,66.8,0.0,0.0,0.0,0,
257914,1861.3,12.6,132.6,66.6,0.0,0.0,0.0,0,
258014,1861.3,12.5,132.6,70.1,0.0,0.0,0.0,0,
258114,1861.1,13.9,132.6,168.1,0.0,0.0,0.0,0,
258214,1861.7,13.0,132.6,174.1,0.0,0.0,0.0,0,
258314,1860.7,12.1,132.6,178.1,0.0,0.0,0.0,0,
258514,1861.1,12.1,132.6,151.7,0.0,0.0,0.0,0,
258614,1862.9,157.1,133.0,55.0,0.0,0.0,0.0,0,
258714,1861.3,173.6,133.7,53.2,0.0,0.0,0.0,0,
258814,1877.4,132.2,134.7,65.9,0.0,0.0,0.0,0,
258914,1841.5,185.2,133.2,66.6,0.0,0.0,0.0,0,
259014,1864.6,186.6,134.1,66.7,0.0,0.0,0.0,0,
259114,1859.4,167.9,133.8,66.9,0.0,0.0,0.0,0,
259214,1856.8,36.6,133.8,66.9,0.0,0.0,0.0,0,
259314,1860.5,14.9,133.8,66.9,0.0,0.0,0.0,0,
259514,1861.5,12.1,133.8,70.3,0.0,0.0,0.0,0,
259614,1861.6,12.9,133.8,71.7,0.0,0.0,0.0,0,
259714,1860.5,11.9,133.8,164.6,0.0,0.0,0.0,0,
259814,1861.5,12.3,133.8,166.3,0.0,0.0,0.0,0,
259914,1861.2,13.9,133.8,166.9,0.0,0.0,0.0,0,
260014,1861.7,14.1,133.8,150.5,0.0,0.0,0.0,0,
260114,1861.4,13.5,133.8,156.6,0.0,0.0,0.0,0,
260214,1882.8,105.8,134.0,69.1,0.0,0.0,0.0,0,
260314,1846.2,138.1,132.6,65.9,0.0,0.0,0.0,0,
260514,1865.6,184.3,132.9,66.3,0.0,0.0,0.0,0,
260614,1865.4,166.6,133.7,66.7,0.0,0.0,0.0,0,
260714,1864.4,139.6,135.2,66.8,0.0,0.0,0.0,0,
260814,1856.1,50.0,133.3,66.9,0.0,0.0,0.0,0,
260914,1860.5,14.1,133.3,66.9,0.0,0.0,0.0,0,
261014,1861.7,11.4,133.3,66.8,0.0,0.0,0.0,0,
261114,1861.2,14.0,133.3,67.0,0.0,0.0,0.0,0,
261214,1860.7,12.6,133.3,67.7,0.0,0.0,0.0,0,
261314,1861.8,12.4,133.3,187.7,0.0,0.0,0.0,0,
261514,1861.6,12.5,133.3,143.0,0.0,0.0,0.0,0,
261614,1862.4,12.6,133.3,141.1,0.0,0.0,0.0,0,
261714,1862.9,14.4,133.3,138.4,0.0,0.0,0.0,0,
261814,1859.8,120.3,133.6,68.3,0.0,0.0,0.0,0,
261914,1858.2,158.3,133.8,65.4,0.0,0.0,0.0,0,
262014,1874.3,163.9,132.4,66.2,0.0,0.0,0.0,0,
262114,1864.7,129.9,132.7,66.4,0.0,0.0,0.0,0,
262214,1851.1,168.7,130.4,66.6,0.0,0.0,0.0,0,
262314,1860.6,175.7,129.6,66.9,0.0,0.0,0.0,0,
262514,1861.5,15.4,128.8,66.8,0.0,0.0,0.0,0,
262614,1861.3,13.4,128.7,66.8,0.0,0.0,0.0,0,
262714,1861.2,12.1,128.7,66.8,0.0,0.0,0.0,0,
262814,1861.3,12.0,128.8,67.1,0.0,0.0,0.0,0,
262914,1861.5,12.8,128.7,158.2,0.0,0.0,0.0,0,
263014,1861.4,12.3,128.7,173.0,0.0,0.0,0.0,0,
263114,1861.6,11.7,128.8,169.5,0.0,0.0,0.0,0,
263214,1861.8,13.6,128.8,152.0,0.0,0.0,0.0,0,
263314,1861.4,12.4,128.8,166.6,0.0,0.0,0.0,0,
263514,1874.1,112.2,128.3,43.3,0.0,0.0,0.0,0,
263614,1844.2,160.7,128.2,55.0,0.0,0.0,0.0,0,
263714,1867.0,187.8,128.3,66.2,0.0,0.0,0.0,0,
263814,1851.0,171.3,129.8,66.6,0.0,0.0,0.0,0,
263914,1881.1,149.4,130.3,67.1,0.0,0.0,0.0,0,
264014,1852.7,112.4,131.6,93.3,0.0,0.0,0.0,0,
264114,1851.8,19.2,130.9,67.2,0.0,0.0,0.0,0,
264214,1860.5,12.7,130.9,67.2,0.0,0.0,0.0,0,
264314,1861.9,13.6,130.9,67.9,0.0,0.0,0.0,0,
264514,1861.6,12.5,130.9,77.1,0.0,0.0,0.0,0,
264614,1861.5,13.2,130.9,124.4,0.0,0.0,0.0,0,
264714,1861.9,12.9,130.9,131.8,0.0,0.0,0.0,0,
264814,1860.5,13.8,130.9,140.4,0.0,0.0,0.0,0,
264914,1861.5,12.5,130.9,130.5,0.0,0.0,0.0,0,
265014,1861.8,37.3,130.9,131.9,0.0,0.0,0.0,0,
265114,1866.2,145.0,131.9,50.9,0.0,0.0,0.0,0,
265214,1857.4,185.7,131.6,57.1,0.0,0.0,0.0,0,
265314,1872.8,168.8,133.8,66.1,0.0,0.0,0.0,0,
265514,1847.3,166.4,132.5,66.7,0.0,0.0,0.0,0,
265614,1867.8,181.6,133.4,67.0,0.0,0.0,0.0,0,
265714,1857.4,27.5,133.4,67.1,0.0,0.0,0.0,0,
265814,1861.5,13.9,133.4,66.8,0.0,0.0,0.0,0,
265914,1862.8,13.7,133.4,66.9,0.0,0.0,0.0,0,
266014,1861.5,12.5,133.4,67.5,0.0,0.0,0.0,0,
266114,1862.2,12.1,133.4,74.8,0.0,0.0,0.0,0,
266214,1861.9,13.3,133.4,142.6,0.0,0.0,0.0,0,
266314,1861.6,12.4,133.4,164.9,0.0,0.0,0.0,0,
266514,1861.8,14.5,133.4,159.0,0.0,0.0,0.0,0,
266614,1861.3,21.1,133.5,154.0,0.0,0.0,0.0,0,
266714,1862.6,141.1,133.9,65.7,0.0,0.0,0.0,0,
266814,1883.6,127.1,135.6,65.8,0.0,0.0,0.0,0,
266914,1836.0,160.2,133.8,66.2,0.0,0.0,0.0,0,
267014,1865.9,181.5,134.4,66.4,0.0,0.0,0.0,0,
267114,1861.5,164.8,133.1,66.9,0.0,0.0,0.0,0,
267214,1871.8,145.8,134.7,67.0,0.0,0.0,0.0,0,
267314,1852.4,26.8,134.2,67.0,0.0,0.0,0.0,0,
267514,1862.3,12.9,134.1,66.6,0.0,0.0,0.0,0,
267614,1861.3,13.1,134.1,66.5,0.0,0.0,0.0,0,
267714,1862.1,14.6,134.1,67.9,0.0,0.0,0.0,0,
267814,1862.0,12.2,134.1,200.2,0.0,0.0,0.0,0,
267914,1860.9,12.4,134.1,189.3,0.0,0.0,0.0,0,
268014,1861.6,13.2,134.1,156.1,0.0,0.0,0.0,0,
268114,1861.7,12.6,134.1,151.4,0.0,0.0,0.0,0,
268214,1861.8,12.6,134.1,134.6,0.0,0.0,0.0,0,
268314,1865.5,106.5,133.7,56.4,0.0,0.0,0.0,0,
268514,1866.4,177.7,133.1,65.9,0.0,0.0,0.0,0,
268614,1866.8,170.2,134.3,66.4,0.0,0.0,0.0,0,
268714,1868.9,122.7,135.9,66.7,0.0,0.0,0.0,0,
268814,1849.3,167.1,133.8,67.2,0.0,0.0,0.0,0,
268914,1857.2,44.4,134.1,67.0,0.0,0.0,0.0,0,
269014,1860.5,13.8,134.1,66.9,0.0,0.0,0.0,0,
269114,1862.4,12.4,134.1,67.1,0.0,0.0,0.0,0,
269214,1861.0,13.2,134.1,67.5,0.0,0.0,0.0,0,
269314,1861.7,12.1,134.1,68.8,0.0,0.0,0.0,0,
269514,1861.6,14.3,134.1,211.7,0.0,0.0,0.0,0,
269614,1861.5,13.3,134.1,202.8,0.0,0.0,0.0,0,
269714,1861.6,13.2,134.1,185.9,0.0,0.0,0.0,0,
269814,1861.5,12.6,134.1,123.2,0.0,0.0,0.0,0,
269914,1864.0,134.6,134.2,65.9,0.0,0.0,0.0,0,
270014,1870.3,149.0,134.6,49.7,0.0,0.0,0.0,0,
270114,1867.5,130.7,134.2,65.5,0.0,0.0,0.0,0,
270214,1848.5,169.8,134.8,66.3,0.0,0.0,0.0,0,
270314,1857.8,181.6,133.9,66.8,0.0,0.0,0.0,0,
270514,1863.3,64.7,133.3,67.0,0.0,0.0,0.0,0,
270614,1862.2,14.9,133.3,66.8,0.0,0.0,0.0,0,
270714,1861.6,12.0,133.2,66.5,0.0,0.0,0.0,0,
270814,1861.6,12.0,133.2,66.7,0.0,0.0,0.0,0,
270914,1861.5,12.3,133.2,67.9,0.0,0.0,0.0,0,
271014,1861.9,13.0,133.2,173.3,0.0,0.0,0.0,0,
271114,1861.0,13.0,133.2,167.3,0.0,0.0,0.0,0,
271214,1861.7,12.6,133.2,143.8,0.0,0.0,0.0,0,
271314,1861.1,14.4,133.2,132.7,0.0,0.0,0.0,0,
271514,1878.4,80.1,133.8,92.5,0.0,0.0,0.0,0,
271614,1845.5,148.5,134.8,66.3,0.0,0.0,0.0,0,
271714,1862.6,189.0,134.9,66.3,0.0,0.0,0.0,0,
271814,1855.6,182.8,134.2,66.3,0.0,0.0,0.0,0,
271914,1879.1,151.7,135.3,66.7,0.0,0.0,0.0,0,
272014,1854.5,117.8,136.3,67.0,0.0,0.0,0.0,0,
272114,1857.7,104.3,136.1,66.9,0.0,0.0,0.0,0,
272214,1861.6,17.5,136.1,67.1,0.0,0.0,0.0,0,
272314,1861.3,12.8,136.1,66.6,0.0,0.0,0.0,0,
272514,1861.0,13.6,136.1,66.1,0.0,0.0,0.0,0,
272614,1861.4,13.1,136.1,101.7,0.0,0.0,0.0,0,
272714,1860.9,13.6,136.1,141.8,0.0,0.0,0.0,0,
272814,1862.3,13.5,136.1,125.7,0.0,0.0,0.0,0,
272914,1861.0,12.0,136.1,124.6,0.0,0.0,0.0,0,
273014,1861.0,12.1,136.1,118.2,0.0,0.0,0.0,0,
273114,1862.2,66.7,136.1,114.5,0.0,0.0,0.0,0,
273214,1855.4,160.4,135.5,65.8,0.0,0.0,0.0,0,
273314,1875.3,178.4,136.1,66.1,0.0,0.0,0.0,0,
273514,1841.6,173.5,135.9,66.5,0.0,0.0,0.0,0,
273614,1866.4,176.2,136.6,67.0,0.0,0.0,0.0,0,
273714,1855.4,167.8,136.3,67.0,0.0,0.0,0.0,0,
273814,1863.6,19.7,136.2,66.8,0.0,0.0,0.0,0,
273914,1860.8,13.7,136.2,66.7,0.0,0.0,0.0,0,
274014,1862.0,10.5,136.2,66.2,0.0,0.0,0.0,0,
274114,1861.2,11.7,136.2,65.7,0.0,0.0,0.0,0,
274214,1860.4,10.7,136.2,71.6,0.0,0.0,0.0,0,
274314,1860.7,13.3,136.2,94.2,0.0,0.0,0.0,0,
274514,1860.9,11.7,136.2,138.8,0.0,0.0,0.0,0,
274614,1861.5,12.2,136.2,125.9,0.0,0.0,0.0,0,
274714,1861.0,14.1,136.2,135.2,0.0,0.0,0.0,0,
274814,1880.9,103.8,136.2,47.2,0.0,0.0,0.0,0,
274914,1837.8,164.6,136.0,49.8,0.0,0.0,0.0,0,
275014,1866.0,167.2,135.0,65.9,0.0,0.0,0.0,0,
275114,1857.9,176.7,131.6,66.4,0.0,0.0,0.0,0,
275214,1875.9,144.5,131.4,66.6,0.0,0.0,0.0,0,
275314,1858.7,114.1,129.3,66.9,0.0,0.0,0.0,0,
275514,1860.7,13.1,127.3,66.8,0.0,0.0,0.0,0,
275614,1860.3,13.5,127.3,67.2,0.0,0.0,0.0,0,
275714,1860.7,12.3,127.3,68.9,0.0,0.0,0.0,0,
275814,1861.0,12.8,127.3,71.7,0.0,0.0,0.0,0,
275914,1861.9,12.6,127.3,176.4,0.0,0.0,0.0,0,
276014,1861.7,11.9,127.3,214.9,0.0,0.0,0.0,0,
276114,1861.8,13.3,127.3,209.9,0.0,0.0,0.0,0,
276214,1861.2,11.8,127.3,221.0,0.0,0.0,0.0,0,
276314,1860.8,12.7,127.3,190.1,0.0,0.0,0.0,0,
276514,1865.0,183.5,128.1,65.5,0.0,0.0,0.0,0,
276614,1864.5,168.3,128.7,65.9,0.0,0.0,0.0,0,
276714,1872.1,122.4,132.0,66.3,0.0,0.0,0.0,0,
276814,1841.9,167.7,131.1,66.8,0.0,0.0,0.0,0,
276914,1866.3,174.0,132.9,66.8,0.0,0.0,0.0,0,
277014,1864.5,35.2,133.5,67.1,0.0,0.0,0.0,0,
277114,1860.1,13.7,133.5,66.7,0.0,0.0,0.0,0,
277214,1861.2,12.6,133.5,66.3,0.0,0.0,0.0,0,
277314,1861.4,13.7,133.5,66.3,0.0,0.0,0.0,0,
277514,1861.5,11.9,133.5,125.1,0.0,0.0,0.0,0,
277614,1862.5,13.2,133.5,130.4,0.0,0.0,0.0,0,
277714,1861.4,12.1,133.5,166.4,0.0,0.0,0.0,0,
277814,1861.4,12.2,133.5,206.5,0.0,0.0,0.0,0,
277914,1861.2,13.1,133.5,206.2,0.0,0.0,0.0,0,
278014,1860.9,135.4,134.1,68.9,0.0,0.0,0.0,0,
278114,1878.8,119.3,134.0,66.3,0.0,0.0,0.0,0,
278214,1844.4,174.5,133.0,66.4,0.0,0.0,0.0,0,
278314,1857.4,175.9,132.0,66.4,0.0,0.0,0.0,0,
278514,1867.8,153.1,132.5,66.8,0.0,0.0,0.0,0,
278614,1851.3,51.7,132.1,66.9,0.0,0.0,0.0,0,
278714,1860.4,15.0,132.1,66.9,0.0,0.0,0.0,0,
278814,1861.1,13.7,132.1,66.6,0.0,0.0,0.0,0,
278914,1862.1,13.7,132.1,66.2,0.0,0.0,0.0,0,
279014,1861.4,12.1,132.1,66.1,0.0,0.0,0.0,0,
279114,1861.2,12.7,132.1,146.2,0.0,0.0,0.0,0,
279214,1860.0,12.8,132.1,167.0,0.0,0.0,0.0,0,
279314,1861.3,12.2,132.1,185.1,0.0,0.0,0.0,0,
279514,1860.6,14.5,132.1,141.2,0.0,0.0,0.0,0,
279614,1866.9,97.1,132.8,69.0,0.0,0.0,0.0,0,
279714,1855.6,154.6,132.2,42.3,0.0,0.0,0.0,0,
279814,1859.4,178.9,133.3,56.8,0.0,0.0,0.0,0,
279914,1876.3,153.9,131.7,66.2,0.0,0.0,0.0,0,
280014,1857.9,122.4,133.2,66.5,0.0,0.0,0.0,0,
280114,1854.4,164.9,132.4,66.6,0.0,0.0,0.0,0,
280214,1856.5,81.6,132.3,66.8,0.0,0.0,0.0,0,
280314,1860.7,14.9,132.2,66.7,0.0,0.0,0.0,0,
280514,1862.1,11.4,132.2,67.3,0.0,0.0,0.0,0,
280614,1862.3,14.0,132.2,68.5,0.0,0.0,0.0,0,
280714,1861.6,12.5,132.2,140.5,0.0,0.0,0.0,0,
280814,1861.2,11.5,132.2,152.6,0.0,0.0,0.0,0,
280914,1861.7,13.3,132.2,167.3,0.0,0.0,0.0,0,
281014,1861.2,12.8,132.2,190.4,0.0,0.0,0.0,0,
281114,1860.6,13.1,132.3,177.1,0.0,0.0,0.0,0,
281214,1861.8,96.5,132.2,158.8,0.0,0.0,0.0,0,
281314,1873.3,138.6,132.4,57.4,0.0,0.0,0.0,0,
281514,1840.2,164.0,132.2,66.1,0.0,0.0,0.0,0,
281614,1867.1,173.0,131.5,66.5,0.0,0.0,0.0,0,
281714,1851.0,171.3,131.0,66.7,0.0,0.0,0.0,0,
281814,1884.2,128.2,132.4,66.7,0.0,0.0,0.0,0,
281914,1846.8,17.8,131.1,66.8,0.0,0.0,0.0,0,
282014,1861.2,13.4,131.1,66.6,0.0,0.0,0.0,0,
282114,1861.3,13.2,131.1,66.4,0.0,0.0,0.0,0,
282214,1861.2,13.0,131.1,66.6,0.0,0.0,0.0,0,
282314,1861.7,11.8,131.1,74.6,0.0,0.0,0.0,0,
282514,1861.6,12.3,131.1,150.0,0.0,0.0,0.0,0,
282614,1861.3,11.5,131.1,143.0,0.0,0.0,0.0,0,
282714,1861.8,11.8,131.1,124.2,0.0,0.0,0.0,0,
282814,1862.1,10.7,131.1,110.2,0.0,0.0,0.0,0,
282914,1859.1,145.1,131.2,53.9,0.0,0.0,0.0,0,
283014,1862.5,176.3,132.2,65.9,0.0,0.0,0.0,0,
283114,1863.8,180.6,131.5,66.3,0.0,0.0,0.0,0,
283214,1871.4,154.0,134.1,66.5,0.0,0.0,0.0,0,
283314,1861.3,129.1,134.8,66.7,0.0,0.0,0.0,0,
283514,1863.7,25.1,135.1,66.8,0.0,0.0,0.0,0,
283614,1860.7,12.6,135.1,66.6,0.0,0.0,0.0,0,
283714,1861.0,13.0,135.1,66.3,0.0,0.0,0.0,0,
283814,1862.2,12.0,135.1,65.7,0.0,0.0,0.0,0,
283914,1862.5,12.1,135.1,66.3,0.0,0.0,0.0,0,
284014,1860.9,13.1,135.1,147.5,0.0,0.0,0.0,0,
284114,1861.3,11.9,135.1,149.0,0.0,0.0,0.0,0,
284214,1861.8,13.2,135.1,152.8,0.0,0.0,0.0,0,
284314,1861.2,13.3,135.1,151.7,0.0,0.0,0.0,0,
284514,1865.0,150.3,135.4,46.6,0.0,0.0,0.0,0,
284614,1869.2,153.1,134.1,45.2,0.0,0.0,0.0,0,
284714,1865.6,136.1,134.6,65.7,0.0,0.0,0.0,0,
284814,1849.7,169.1,133.7,66.4,0.0,0.0,0.0,0,
284914,1859.3,184.6,133.1,66.6,0.0,0.0,0.0,0,
285014,1861.9,173.3,132.8,66.7,0.0,0.0,0.0,0,
285114,1862.9,36.3,131.8,66.9,0.0,0.0,0.0,0,
285214,1860.9,13.3,131.8,66.7,0.0,0.0,0.0,0,
285314,1861.2,11.7,131.8,66.8,0.0,0.0,0.0,0,
285514,1861.0,12.9,131.8,69.9,0.0,0.0,0.0,0,
285614,1860.7,11.7,131.8,145.7,0.0,0.0,0.0,0,
285714,1861.3,12.8,131.8,147.6,0.0,0.0,0.0,0,
285814,1861.4,12.6,131.8,133.4,0.0,0.0,0.0,0,
285914,1861.8,13.7,131.8,151.0,0.0,0.0,0.0,0,
286014,1863.0,12.4,131.8,174.2,0.0,0.0,0.0,0,
286114,1875.9,99.3,131.9,69.1,0.0,0.0,0.0,0,
286214,1847.0,168.4,132.9,66.3,0.0,0.0,0.0,0,
286314,1860.7,190.4,133.2,66.3,0.0,0.0,0.0,0,
286514,1882.0,141.4,134.2,66.6,0.0,0.0,0.0,0,
286614,1849.6,131.1,134.7,66.8,0.0,0.0,0.0,0,
286714,1857.3,46.0,133.6,66.9,0.0,0.0,0.0,0,
286814,1861.3,13.5,133.6,67.0,0.0,0.0,0.0,0,
286914,1861.5,12.9,133.6,66.6,0.0,0.0,0.0,0,
287014,1860.9,13.4,133.6,66.2,0.0,0.0,0.0,0,
287114,1861.3,11.8,133.6,66.8,0.0,0.0,0.0,0,
287214,1862.2,13.0,133.6,142.6,0.0,0.0,0.0,0,
287314,1862.0,12.5,133.6,146.1,0.0,0.0,0.0,0,
287514,1862.2,12.6,133.6,137.9,0.0,0.0,0.0,0,
287614,1862.1,11.8,133.6,146.8,0.0,0.0,0.0,0,
287714,1863.7,111.4,133.5,66.3,0.0,0.0,0.0,0,
287814,1855.0,181.4,132.9,56.7,0.0,0.0,0.0,0,
287914,1876.0,148.4,135.2,66.1,0.0,0.0,0.0,0,
288014,1859.3,140.6,134.7,66.5,0.0,0.0,0.0,0,
288114,1850.3,175.2,134.5,66.6,0.0,0.0,0.0,0,
288214,1866.7,170.3,133.7,66.8,0.0,0.0,0.0,0,
288314,1852.7,73.0,133.6,66.9,0.0,0.0,0.0,0,
288514,1861.1,13.5,133.6,67.3,0.0,0.0,0.0,0,
288614,1861.0,12.5,133.6,70.2,0.0,0.0,0.0,0,
288714,1861.4,11.8,133.6,73.0,0.0,0.0,0.0,0,
288814,1861.8,12.9,133.6,123.9,0.0,0.0,0.0,0,
288914,1860.5,13.7,133.6,166.1,0.0,0.0,0.0,0,
289014,1861.6,12.3,133.6,149.0,0.0,0.0,0.0,0,
289114,1861.0,12.8,133.6,166.8,0.0,0.0,0.0,0,
289214,1861.5,13.1,133.6,172.9,0.0,0.0,0.0,0,
289314,1866.5,84.8,134.0,183.8,0.0,0.0,0.0,0,
289514,1844.5,171.4,133.0,65.9,0.0,0.0,0.0,0,
289614,1861.3,187.9,132.9,66.2,0.0,0.0,0.0,0,
289714,1865.3,162.5,132.1,66.6,0.0,0.0,0.0,0,
289814,1873.0,135.8,133.1,66.8,0.0,0.0,0.0,0,
289914,1854.5,121.3,133.7,66.9,0.0,0.0,0.0,0,
290014,1855.8,17.0,132.8,67.1,0.0,0.0,0.0,0,
290114,1861.0,12.7,132.8,66.7,0.0,0.0,0.0,0,
290214,1860.7,11.2,132.7,66.6,0.0,0.0,0.0,0,
290314,1860.9,12.4,132.7,67.1,0.0,0.0,0.0,0,
290514,1862.0,12.2,132.7,176.6,0.0,0.0,0.0,0,
290614,1861.5,12.9,132.7,148.4,0.0,0.0,0.0,0,
290714,1861.3,12.8,132.7,124.1,0.0,0.0,0.0,0,
290814,1861.9,11.9,132.7,116.3,0.0,0.0,0.0,0,
290914,1862.0,41.2,132.7,168.2,0.0,0.0,0.0,0,
291014,1859.2,153.5,132.9,50.9,0.0,0.0,0.0,0,
291114,1860.0,189.5,133.0,65.7,0.0,0.0,0.0,0,
291214,1880.4,136.1,132.8,66.3,0.0,0.0,0.0,0,
291314,1851.1,146.5,133.4,66.5,0.0,0.0,0.0,0,
291514,1854.4,177.9,131.4,67.1,0.0,0.0,0.0,0,
291614,1864.0,26.5,131.2,66.9,0.0,0.0,0.0,0,
291714,1859.7,13.6,131.3,67.0,0.0,0.0,0.0,0,
291814,1861.1,12.6,131.3,67.2,0.0,0.0,0.0,0,
291914,1861.3,11.2,131.3,67.7,0.0,0.0,0.0,0,
292014,1862.0,12.1,131.3,69.9,0.0,0.0,0.0,0,
292114,1862.1,12.6,131.3,83.2,0.0,0.0,0.0,0,
292214,1861.8,13.9,131.3,123.7,0.0,0.0,0.0,0,
292314,1861.2,13.0,131.3,167.9,0.0,0.0,0.0,0,
292514,1861.0,12.4,131.3,85.1,0.0,0.0,0.0,0,
292614,1873.0,117.9,131.8,54.3,0.0,0.0,0.0,0,
292714,1862.2,129.2,130.9,56.9,0.0,0.0,0.0,0,
292814,1850.5,170.5,131.7,66.1,0.0,0.0,0.0,0,
292914,1866.3,183.3,131.2,66.5,0.0,0.0,0.0,0,
293014,1856.0,178.5,130.3,66.6,0.0,0.0,0.0,0,
293114,1884.7,125.1,132.1,66.8,0.0,0.0,0.0,0,
293214,1841.8,26.5,130.7,67.0,0.0,0.0,0.0,0,
293314,1860.3,13.8,130.6,66.5,0.0,0.0,0.0,0,
293514,1861.5,12.9,130.6,67.0,0.0,0.0,0.0,0,
293614,1861.3,13.3,130.6,68.6,0.0,0.0,0.0,0,
293714,1861.3,12.7,130.6,123.6,0.0,0.0,0.0,0,
293814,1862.0,14.0,130.7,118.0,0.0,0.0,0.0,0,
293914,1860.9,13.3,130.6,115.1,0.0,0.0,0.0,0,
294014,1861.1,13.0,130.7,134.3,0.0,0.0,0.0,0,
294114,1861.8,14.0,130.7,166.0,0.0,0.0,0.0,0,
