Time(ms),Raw_ADC,ENV_Value,RMS,MDF,MW_Amp,MW_Area,MW_Latency,MW_Valid,Marker
0,1859.9,2.5,0.0,0.0,0.0,0.0,0.0,0,
100,1859.9,2.2,0.0,0.0,0.0,0.0,0.0,0,
200,1859.6,2.6,0.0,0.0,0.0,0.0,0.0,0,
300,1859.3,3.0,0.0,0.0,0.0,0.0,0.0,0,
400,1859.3,2.7,0.0,0.0,0.0,0.0,0.0,0,
500,1858.9,3.0,0.0,68.4,0.0,0.0,0.0,0,
600,1858.6,3.2,0.0,93.8,0.0,0.0,0.0,0,
700,1858.8,2.8,0.0,113.3,0.0,0.0,0.0,0,
800,1859.1,2.8,0.0,99.6,0.0,0.0,0.0,0,
900,1859.0,3.0,2.3,99.6,0.0,0.0,0.0,0,
1000,1859.3,2.7,2.3,101.6,0.0,0.0,0.0,0,
1100,1859.1,2.8,2.3,85.9,0.0,0.0,0.0,0,
1200,1858.8,2.8,2.3,70.3,0.0,0.0,0.0,0,
1300,1859.0,2.4,2.3,84.0,0.0,0.0,0.0,0,
1400,1859.2,421.4,2.3,70.3,1182.0,8446.0,12.0,1,
1500,1871.9,38.3,253.6,43.0,1182.0,8446.0,12.0,1,
1600,1848.2,6.3,253.8,41.0,1182.0,8446.0,12.0,1,
1700,1858.8,601.0,253.8,41.0,1182.0,8446.0,12.0,1,
1900,1577.2,89.9,356.6,35.2,1776.0,20871.0,30.0,0,
2000,2135.4,515.1,408.7,29.3,3985.0,32195.0,16.0,1,
2100,1862.7,322.2,470.6,37.1,3985.0,32195.0,16.0,1,
2200,1785.9,375.0,483.7,41.0,1118.0,7666.0,18.0,1,
2300,1774.4,57.1,516.7,44.9,2129.0,18373.0,10.0,1,
2400,1813.4,6.6,518.4,46.9,2129.0,18373.0,10.0,1,
2500,1859.4,4.2,451.9,56.6,2129.0,18373.0,10.0,1,
2600,1859.8,3.9,451.7,54.7,2129.0,18373.0,10.0,1,
2700,1859.4,3.6,451.7,52.7,2129.0,18373.0,10.0,1,
2900,1859.7,3.9,376.4,197.3,2129.0,18373.0,10.0,1,
3000,1859.5,4.9,318.0,209.0,2129.0,18373.0,10.0,1,
3100,1859.1,3.9,213.9,232.4,2129.0,18373.0,10.0,1,
3200,1859.9,4.6,184.5,232.4,2129.0,18373.0,10.0,1,
3300,1859.4,4.2,39.3,218.8,2129.0,18373.0,10.0,1,
3400,1860.1,4.6,4.6,220.7,2129.0,18373.0,10.0,1,
3500,1860.0,4.2,4.6,218.8,2129.0,18373.0,10.0,1,
3600,1860.2,4.6,4.7,197.3,2129.0,18373.0,10.0,1,
3700,1859.6,3.8,4.7,216.8,2129.0,18373.0,10.0,1,
3900,1859.2,4.5,4.8,224.6,2129.0,18373.0,10.0,1,
4000,1860.0,4.7,4.8,222.7,2129.0,18373.0,10.0,1,
4100,1859.8,4.3,4.9,216.8,2129.0,18373.0,10.0,1,
4200,1859.3,4.0,5.0,212.9,2129.0,18373.0,10.0,1,
4300,1860.3,4.7,5.1,214.8,2129.0,18373.0,10.0,1,
4400,1860.1,4.6,5.1,228.5,2129.0,18373.0,10.0,1,
4500,1860.5,4.6,5.1,230.5,2129.0,18373.0,10.0,1,
4600,1859.4,4.4,5.2,236.3,2129.0,18373.0,10.0,1,
4700,1860.7,4.5,5.2,224.6,2129.0,18373.0,10.0,1,
4900,1861.1,4.8,5.3,185.5,2129.0,18373.0,10.0,1,
5000,1859.7,3.7,5.3,201.2,2129.0,18373.0,10.0,1,
5100,1859.1,4.3,5.3,203.1,2129.0,18373.0,10.0,1,
5200,1861.0,4.7,5.2,222.7,2129.0,18373.0,10.0,1,
5300,1860.3,4.4,5.3,228.5,2129.0,18373.0,10.0,1,
5400,1860.1,4.5,5.4,201.2,2129.0,18373.0,10.0,1,
5500,1860.2,4.1,5.4,203.1,2129.0,18373.0,10.0,1,
5600,1860.0,4.1,5.3,209.0,2129.0,18373.0,10.0,1,
5700,1860.6,5.3,5.4,209.0,2129.0,18373.0,10.0,1,
5900,1860.8,4.4,5.5,193.4,2129.0,18373.0,10.0,1,
6000,1859.2,4.4,5.5,203.1,2129.0,18373.0,10.0,1,
6100,1859.9,4.9,5.5,224.6,2129.0,18373.0,10.0,1,
6200,1860.0,4.5,5.6,252.0,2129.0,18373.0,10.0,1,
6300,1859.4,4.6,5.5,263.7,2129.0,18373.0,10.0,1,
6400,1858.9,4.3,5.4,240.2,2129.0,18373.0,10.0,0,
6500,1859.8,4.5,5.4,244.1,2129.0,18373.0,10.0,0,
6600,1858.6,4.8,5.5,238.3,2129.0,18373.0,10.0,0,
6700,1859.9,4.3,5.5,214.8,2129.0,18373.0,10.0,0,
6900,1859.3,4.2,5.3,234.4,2129.0,18373.0,10.0,0,
7000,1860.3,4.1,5.2,209.0,2129.0,18373.0,10.0,0,
7100,1860.7,4.4,5.2,164.1,2129.0,18373.0,10.0,0,
7200,1859.0,4.9,5.2,183.6,2129.0,18373.0,10.0,0,
7300,1859.8,377.7,5.2,199.2,2129.0,18373.0,10.0,0,
7400,2169.8,1144.9,168.6,46.9,4095.0,41419.0,22.0,1,
7500,1667.5,74.6,375.0,48.8,514.0,3770.0,30.0,0,
7600,1853.7,1028.3,379.2,50.8,4095.0,37650.0,8.0,1,
7700,1755.9,387.1,573.5,52.7,2166.0,20684.0,5.0,0,
7900,1598.7,7.9,619.5,64.5,2166.0,20684.0,5.0,0,
8000,1859.1,4.6,619.5,62.5,2166.0,20684.0,5.0,0,
8100,1859.6,4.2,619.5,54.7,2166.0,20684.0,5.0,0,
8200,1860.9,4.6,619.5,39.1,2166.0,20684.0,5.0,0,
8300,1860.4,4.1,619.5,41.0,2166.0,20684.0,5.0,0,
8400,1859.7,4.0,594.7,212.9,2166.0,20684.0,5.0,0,
8500,1861.0,4.5,492.6,212.9,2166.0,20684.0,5.0,0,
8600,1859.7,4.5,489.8,214.8,2166.0,20684.0,5.0,0,
8700,1859.9,4.5,234.1,197.3,2166.0,20684.0,5.0,0,
8900,1859.6,4.1,5.0,189.5,2166.0,20684.0,5.0,0,
9000,1859.4,4.9,5.0,185.5,2166.0,20684.0,5.0,0,
9100,1859.0,4.9,5.0,175.8,2166.0,20684.0,5.0,0,
9200,1859.8,5.0,5.0,201.2,2166.0,20684.0,5.0,0,
9300,1859.6,4.9,5.0,207.0,2166.0,20684.0,5.0,0,
9400,1859.5,4.5,5.1,207.0,2166.0,20684.0,5.0,0,
9500,1859.1,5.1,5.0,234.4,2166.0,20684.0,5.0,0,
9600,1859.3,5.1,5.1,228.5,2166.0,20684.0,5.0,0,
9700,1860.4,4.2,5.2,199.2,2166.0,20684.0,5.0,0,
9900,2229.5,441.1,218.2,31.3,2166.0,20684.0,5.0,0,
10000,1549.6,546.3,277.1,31.3,3148.0,12666.0,29.0,0,
10100,1844.9,1714.5,358.1,31.3,4095.0,47023.0,6.0,1,
10200,2087.2,1753.0,679.2,54.7,4095.0,43220.0,16.0,1,
10300,2095.9,1532.4,873.6,62.5,4095.0,44096.0,17.0,1,
10400,2064.4,265.1,1031.0,62.5,680.0,4980.0,30.0,0,
10500,1773.8,16.8,1070.2,84.0,680.0,4980.0,30.0,0,
10600,1859.1,4.5,1070.2,68.4,680.0,4980.0,30.0,0,
10700,1859.9,4.6,1070.2,68.4,680.0,4980.0,30.0,0,
10900,1859.6,4.7,1048.5,78.1,680.0,4980.0,30.0,0,
11000,1859.0,4.7,1034.0,209.0,680.0,4980.0,30.0,0,
11100,1859.4,4.7,1007.6,201.2,680.0,4980.0,30.0,0,
11200,1860.1,4.2,827.6,209.0,680.0,4980.0,30.0,0,
11300,1860.0,4.2,618.0,201.2,680.0,4980.0,30.0,0,
11400,1859.6,4.6,284.5,189.5,680.0,4980.0,30.0,0,
11500,1859.7,4.6,5.0,187.5,680.0,4980.0,30.0,0,
11600,1859.8,4.5,5.1,168.0,680.0,4980.0,30.0,0,
11700,1860.0,4.2,5.1,193.4,680.0,4980.0,30.0,0,
11900,1860.1,4.1,5.1,207.0,680.0,4980.0,30.0,0,
12000,1859.9,5.4,5.2,216.8,680.0,4980.0,30.0,0,
12100,1860.4,4.5,5.2,263.7,680.0,4980.0,30.0,0,
12200,1859.6,4.2,5.4,244.1,680.0,4980.0,30.0,0,
12300,1859.6,4.2,5.3,224.6,680.0,4980.0,30.0,0,
12400,1860.3,4.7,5.3,222.7,680.0,4980.0,30.0,0,
12500,1859.1,4.5,5.4,218.8,680.0,4980.0,30.0,0,
12600,1858.5,4.8,5.4,210.9,680.0,4980.0,30.0,0,
12700,1859.7,4.5,5.3,236.3,680.0,4980.0,30.0,0,
12900,1859.6,4.6,5.4,197.3,680.0,4980.0,30.0,0,
13000,1860.3,2.5,5.5,205.1,680.0,4980.0,30.0,0,
13100,1860.0,2.3,5.2,236.3,680.0,4980.0,30.0,0,
13200,1859.5,2.7,4.9,277.3,680.0,4980.0,30.0,0,
13300,1860.0,2.4,4.7,267.6,680.0,4980.0,30.0,0,
13400,1859.6,2.2,4.5,142.6,680.0,4980.0,30.0,0,
13500,1859.7,73.0,4.2,87.9,2164.0,19150.0,5.0,0,
13600,2175.0,6.1,171.3,37.1,2164.0,19150.0,5.0,0,
13700,1860.5,3.9,171.2,37.1,2164.0,19150.0,5.0,0,
13900,1860.1,3.1,171.2,37.1,2164.0,19150.0,5.0,0,
14000,1859.9,3.5,171.2,37.1,2164.0,19150.0,5.0,0,
14100,1859.8,3.5,171.2,101.6,2164.0,19150.0,5.0,0,
14200,1860.1,3.6,171.2,97.7,2164.0,19150.0,5.0,0,
14300,1859.3,3.6,171.2,111.3,2164.0,19150.0,5.0,0,
14400,1860.3,2.6,171.2,150.4,2164.0,19150.0,5.0,0,
14500,1860.2,2.6,171.2,150.4,2164.0,19150.0,5.0,0,
14600,1859.6,3.6,3.8,132.8,2164.0,19150.0,5.0,0,
14700,1859.7,3.2,3.8,99.6,2164.0,19150.0,5.0,0,
14900,1859.7,3.2,3.7,125.0,2164.0,19150.0,5.0,0,
15000,1859.6,2.8,3.6,158.2,2164.0,19150.0,5.0,0,
15100,1860.1,2.8,3.6,132.8,2164.0,19150.0,5.0,0,
15200,1859.7,3.7,3.6,109.4,2164.0,19150.0,5.0,0,
15300,1859.6,3.2,3.5,99.6,2164.0,19150.0,5.0,0,
15400,1859.9,2.8,3.5,95.7,2164.0,19150.0,5.0,0,
15500,1859.2,2.3,3.5,99.6,2164.0,19150.0,5.0,0,
15600,1860.0,2.7,3.5,103.5,2164.0,19150.0,5.0,0,
15700,1859.6,1.8,3.4,99.6,2164.0,19150.0,5.0,0,
15900,1859.1,2.9,3.2,66.4,2164.0,19150.0,5.0,0,
16000,1860.3,2.9,3.2,66.4,2164.0,19150.0,5.0,0,
16100,1859.5,3.4,3.3,68.4,2164.0,19150.0,5.0,0,
16200,1859.8,3.2,3.3,93.8,2164.0,19150.0,5.0,0,
16300,1860.0,3.2,3.3,99.6,2164.0,19150.0,5.0,0,
16400,1858.9,3.1,3.3,113.3,2164.0,19150.0,5.0,0,
16500,1859.6,2.2,3.3,123.0,2164.0,19150.0,5.0,0,
16600,1859.9,2.3,3.3,99.6,2164.0,19150.0,5.0,0,
16700,1859.1,2.5,3.3,66.4,2164.0,19150.0,5.0,0,
16900,1859.6,2.1,3.3,66.4,2164.0,19150.0,5.0,0,
17000,1859.0,2.5,3.2,66.4,2164.0,19150.0,5.0,0,
17100,1859.6,2.4,3.1,66.4,2164.0,19150.0,5.0,0,
17200,1859.5,2.1,3.0,66.4,2164.0,19150.0,5.0,0,
17300,1859.3,2.5,2.9,64.5,2164.0,19150.0,5.0,0,
17400,1859.8,2.7,2.7,66.4,2164.0,19150.0,5.0,0,
17500,1859.7,2.1,2.7,66.4,2164.0,19150.0,5.0,0,
17600,1859.2,2.4,2.7,66.4,2164.0,19150.0,5.0,0,
17700,1859.6,2.5,2.7,66.4,2164.0,19150.0,5.0,0,
17900,1859.0,2.4,2.7,66.4,2164.0,19150.0,5.0,0,
18000,1859.9,2.6,2.6,66.4,2164.0,19150.0,5.0,0,
18100,1859.9,2.1,2.6,68.4,2164.0,19150.0,5.0,0,
18200,1859.5,2.6,2.6,68.4,2164.0,19150.0,5.0,0,
18300,1859.5,2.7,2.6,66.4,2164.0,19150.0,5.0,0,
18400,1859.7,2.4,2.6,66.4,2164.0,19150.0,5.0,0,
18500,1858.8,502.9,2.7,66.4,2164.0,19150.0,5.0,0,
18600,1837.6,1467.6,245.3,78.1,4095.0,38295.0,16.0,1,
18700,1936.7,1758.4,551.0,64.5,4095.0,47342.0,5.0,0,
18900,1687.0,18.6,838.1,62.5,4095.0,47342.0,5.0,0,
19000,1859.3,5.4,838.1,62.5,4095.0,47342.0,5.0,0,
19100,1858.0,4.1,838.1,62.5,4095.0,47342.0,5.0,0,
19200,1859.8,4.2,838.1,62.5,4095.0,47342.0,5.0,0,
19300,1859.3,4.7,838.1,64.5,4095.0,47342.0,5.0,0,
19400,1859.3,5.0,838.1,216.8,4095.0,47342.0,5.0,0,
19500,1859.2,4.4,838.1,216.8,4095.0,47342.0,5.0,0,
19600,1858.7,4.4,801.4,226.6,4095.0,47342.0,5.0,0,
19700,1859.4,5.2,631.2,234.4,4095.0,47342.0,5.0,0,
19900,1859.3,4.8,5.4,203.1,4095.0,47342.0,5.0,0,
20000,1858.7,4.5,5.3,209.0,4095.0,47342.0,5.0,0,
20100,1859.2,4.7,5.3,220.7,4095.0,47342.0,5.0,0,
20200,1859.7,4.3,5.3,263.7,4095.0,47342.0,5.0,0,
20300,1859.6,5.0,5.3,275.4,4095.0,47342.0,5.0,0,
20400,1858.3,4.6,5.3,242.2,4095.0,47342.0,5.0,0,
20500,1860.0,5.0,5.3,230.5,4095.0,47342.0,5.0,0,
20600,1859.2,6.0,5.3,212.9,4095.0,47342.0,5.0,0,
20700,1869.3,39.4,16.1,162.1,4095.0,47342.0,5.0,0,
20900,1857.2,6.7,36.2,68.4,4095.0,47342.0,5.0,0,
21000,1862.9,7.5,36.3,68.4,4095.0,47342.0,5.0,0,
21100,1860.8,8.0,36.3,70.3,4095.0,47342.0,5.0,0,
21200,1858.1,48.0,36.4,95.7,4095.0,47342.0,5.0,0,
21300,1843.2,6.4,46.5,68.4,4095.0,47342.0,5.0,0,
21400,1860.6,4.7,46.5,64.5,4095.0,47342.0,5.0,0,
21500,1860.2,4.1,46.5,64.5,4095.0,47342.0,5.0,0,
21600,1859.3,4.9,46.5,66.4,4095.0,47342.0,5.0,0,
21700,1860.6,5.1,43.9,72.3,4095.0,47342.0,5.0,0,
21900,1859.7,4.3,29.6,193.4,4095.0,47342.0,5.0,0,
22000,1861.1,5.0,29.5,195.3,4095.0,47342.0,5.0,0,
22100,1860.5,5.2,29.4,197.3,4095.0,47342.0,5.0,0,
22200,1859.4,4.6,29.3,185.5,4095.0,47342.0,5.0,0,
22300,1860.5,5.0,5.5,209.0,4095.0,47342.0,5.0,0,
22400,1858.9,5.0,5.6,230.5,4095.0,47342.0,5.0,0,
22500,1857.7,5.1,5.6,240.2,4095.0,47342.0,5.0,0,
22600,1859.4,4.7,5.6,232.4,4095.0,47342.0,5.0,0,
22700,1859.3,4.2,5.6,242.2,4095.0,47342.0,5.0,0,
22900,1860.3,4.7,5.5,214.8,4095.0,47342.0,5.0,0,
23000,1860.2,4.1,5.5,185.5,4095.0,47342.0,5.0,0,
23100,1859.5,4.7,5.4,195.3,4095.0,47342.0,5.0,0,
23200,1860.0,5.1,5.4,230.5,4095.0,47342.0,5.0,0,
23300,1858.8,4.5,5.4,252.0,4095.0,47342.0,5.0,0,
23400,1859.6,4.2,5.4,234.4,4095.0,47342.0,5.0,0,
23500,1859.7,4.5,5.3,218.8,4095.0,47342.0,5.0,0,
23600,1859.7,4.6,5.4,193.4,4095.0,47342.0,5.0,0,
23700,1859.0,5.0,5.3,162.1,4095.0,47342.0,5.0,0,
23900,1859.4,4.9,5.4,203.1,4095.0,47342.0,5.0,0,
24000,1859.5,4.5,5.4,220.7,4095.0,47342.0,5.0,0,
24100,1859.9,5.3,5.4,214.8,4095.0,47342.0,5.0,0,
24200,1859.5,5.1,5.6,203.1,4095.0,47342.0,5.0,0,
24300,1860.6,5.0,5.6,199.2,4095.0,47342.0,5.0,0,
24400,1859.5,4.0,5.6,203.1,4095.0,47342.0,5.0,0,
24500,1860.1,151.3,5.6,212.9,2173.0,18541.0,5.0,0,
24600,2111.1,236.2,171.3,41.0,2173.0,18541.0,5.0,0,
24700,1893.7,1246.5,192.1,41.0,4095.0,36546.0,16.0,1,
24900,1945.6,307.9,596.7,62.5,1756.0,10066.0,5.0,0,
25000,1868.4,292.5,614.4,62.5,1539.0,8114.0,21.0,1,
25100,1851.3,113.0,631.0,62.5,428.0,3197.0,26.0,0,
25200,1587.3,9.8,666.5,72.3,428.0,3197.0,26.0,0,
25300,1859.1,4.9,666.5,70.3,428.0,3197.0,26.0,0,
25400,1859.4,4.1,666.5,62.5,428.0,3197.0,26.0,0,
25500,1859.0,4.5,666.5,50.8,428.0,3197.0,26.0,0,
25600,1859.3,4.4,645.0,46.9,428.0,3197.0,26.0,0,
25700,1859.2,4.1,639.2,189.5,428.0,3197.0,26.0,0,
25900,1860.3,4.1,292.5,216.8,428.0,3197.0,26.0,0,
26000,1859.0,4.3,251.2,183.6,428.0,3197.0,26.0,0,
26100,1858.9,3.2,203.5,173.8,428.0,3197.0,26.0,0,
26200,1859.4,3.1,4.7,177.7,428.0,3197.0,26.0,0,
26300,1859.4,3.1,4.5,175.8,428.0,3197.0,26.0,0,
26400,1859.9,3.9,4.4,207.0,428.0,3197.0,26.0,0,
26500,1859.4,3.8,4.3,218.8,428.0,3197.0,26.0,0,
26600,1858.9,3.9,4.2,212.9,428.0,3197.0,26.0,0,
26700,1859.5,4.6,4.2,212.9,428.0,3197.0,26.0,0,
26900,1859.3,4.3,4.2,218.8,428.0,3197.0,26.0,0,
27000,1859.0,5.2,4.2,199.2,428.0,3197.0,26.0,0,
27100,1858.6,3.9,4.3,201.2,428.0,3197.0,26.0,0,
27200,1859.9,4.3,4.4,209.0,428.0,3197.0,26.0,0,
27300,1859.3,4.1,4.5,214.8,428.0,3197.0,26.0,0,
27400,1859.9,3.7,4.5,205.1,428.0,3197.0,26.0,0,
27500,1860.2,4.1,4.6,195.3,428.0,3197.0,26.0,0,
27600,1859.8,4.0,4.7,173.8,428.0,3197.0,26.0,0,
27700,1860.4,5.0,4.7,195.3,428.0,3197.0,26.0,0,
27900,1859.8,4.8,4.7,195.3,428.0,3197.0,26.0,0,
28000,1859.9,3.5,4.8,195.3,428.0,3197.0,26.0,0,
28100,1859.6,4.3,4.7,224.6,428.0,3197.0,26.0,0,
28200,1859.8,3.5,4.7,238.3,428.0,3197.0,26.0,0,
28300,1860.2,4.8,4.7,205.1,428.0,3197.0,26.0,0,
28400,1858.8,4.3,4.8,166.0,428.0,3197.0,26.0,0,
28500,1860.1,4.5,4.9,168.0,428.0,3197.0,26.0,0,
28600,1860.0,4.7,4.9,199.2,428.0,3197.0,26.0,0,
28700,1860.2,4.4,5.0,201.2,428.0,3197.0,26.0,0,
28900,1859.5,4.4,5.0,218.8,428.0,3197.0,26.0,0,
29000,1859.7,4.2,5.0,205.1,428.0,3197.0,26.0,0,
29100,1859.2,4.2,5.0,203.1,428.0,3197.0,26.0,0,
29200,1859.9,4.0,5.1,193.4,428.0,3197.0,26.0,0,
29300,1859.7,4.3,5.1,193.4,428.0,3197.0,26.0,0,
29400,1859.4,4.2,5.0,216.8,428.0,3197.0,26.0,0,
29500,1860.7,4.7,5.0,232.4,428.0,3197.0,26.0,0,
29600,1859.0,4.5,5.1,214.8,428.0,3197.0,26.0,0,
29700,1859.4,4.5,5.0,187.5,428.0,3197.0,26.0,0,
29900,1859.3,5.0,4.9,193.4,428.0,3197.0,26.0,0,
30000,1858.7,4.5,5.0,224.6,428.0,3197.0,26.0,0,
30100,1860.5,4.9,5.1,212.9,428.0,3197.0,26.0,0,
30200,1859.2,4.5,5.2,185.5,428.0,3197.0,26.0,0,
30300,1860.1,4.0,5.2,201.2,428.0,3197.0,26.0,0,
30400,1859.9,4.0,5.3,210.9,428.0,3197.0,26.0,0,
30500,1860.0,4.3,5.3,212.9,428.0,3197.0,26.0,0,
30600,1859.6,4.3,5.2,242.2,428.0,3197.0,26.0,0,
30700,1860.1,3.9,5.2,244.1,428.0,3197.0,26.0,0,
30900,1860.5,5.0,5.2,238.3,428.0,3197.0,26.0,0,
31000,1860.5,4.7,5.2,248.0,428.0,3197.0,26.0,0,
31100,1860.0,5.0,5.2,250.0,428.0,3197.0,26.0,0,
31200,1859.7,4.3,5.2,244.1,428.0,3197.0,26.0,0,
31300,1860.5,4.2,5.2,242.2,428.0,3197.0,26.0,0,
31400,1859.5,4.3,5.1,228.5,428.0,3197.0,26.0,0,
31500,1859.7,4.7,5.1,238.3,428.0,3197.0,26.0,0,
31600,1860.1,4.1,5.1,238.3,428.0,3197.0,26.0,0,
31700,1860.7,4.3,5.1,222.7,428.0,3197.0,26.0,0,
31900,1860.7,4.3,5.2,197.3,428.0,3197.0,26.0,0,
32000,1860.0,4.3,5.1,207.0,428.0,3197.0,26.0,0,
32100,1859.4,4.2,5.1,201.2,428.0,3197.0,26.0,0,
32200,1860.3,4.5,5.0,191.4,428.0,3197.0,26.0,0,
32300,1858.8,4.8,5.1,158.2,428.0,3197.0,26.0,0,
32400,1859.7,4.4,5.2,166.0,428.0,3197.0,26.0,0,
32500,1859.0,3.9,5.1,199.2,428.0,3197.0,26.0,0,
32600,1859.5,4.4,5.1,214.8,428.0,3197.0,26.0,0,
32700,1859.1,4.3,5.1,216.8,428.0,3197.0,26.0,0,
32900,1860.8,3.4,5.0,187.5,428.0,3197.0,26.0,0,
33000,1860.2,3.9,5.0,169.9,428.0,3197.0,26.0,0,
33100,1861.0,4.3,5.0,168.0,428.0,3197.0,26.0,0,
33200,1860.5,4.7,5.1,199.2,428.0,3197.0,26.0,0,
33300,1858.8,4.4,5.0,201.2,428.0,3197.0,26.0,0,
33400,1859.6,4.2,5.0,201.2,428.0,3197.0,26.0,0,
33500,1859.2,4.5,5.0,191.4,428.0,3197.0,26.0,0,
33600,1858.8,4.7,4.9,203.1,428.0,3197.0,26.0,0,
33700,1859.5,4.6,4.9,228.5,428.0,3197.0,26.0,0,
33900,1859.8,4.6,4.9,242.2,428.0,3197.0,26.0,0,
34000,1860.4,5.0,5.0,218.8,428.0,3197.0,26.0,0,
34100,1859.3,4.5,5.0,171.9,428.0,3197.0,26.0,0,
34200,1859.6,4.7,5.0,210.9,428.0,3197.0,26.0,0,
34300,1859.3,4.5,5.0,250.0,428.0,3197.0,26.0,0,
34400,1858.7,4.6,5.0,250.0,428.0,3197.0,26.0,0,
34500,1858.7,4.5,5.1,240.2,428.0,3197.0,26.0,0,
34600,1859.9,4.4,5.1,255.9,428.0,3197.0,26.0,0,
34700,1859.9,5.2,5.2,252.0,428.0,3197.0,26.0,0,
34900,1860.2,4.1,5.3,232.4,428.0,3197.0,26.0,0,
35000,1860.0,4.6,5.3,228.5,428.0,3197.0,26.0,0,
35100,1859.4,4.8,5.4,210.9,428.0,3197.0,26.0,0,
35200,1860.0,4.5,5.3,210.9,428.0,3197.0,26.0,0,
35300,1860.7,4.5,5.3,232.4,428.0,3197.0,26.0,0,
35400,1860.1,4.7,5.3,214.8,428.0,3197.0,26.0,0,
35500,1859.6,4.4,5.3,216.8,428.0,3197.0,26.0,0,
35600,1860.4,4.6,5.4,230.5,428.0,3197.0,26.0,0,
35700,1860.0,4.2,5.3,222.7,428.0,3197.0,26.0,0,
35900,1859.4,3.9,5.2,238.3,428.0,3197.0,26.0,0,
36000,1859.7,4.9,5.2,232.4,428.0,3197.0,26.0,0,
36100,1861.3,4.4,5.2,230.5,428.0,3197.0,26.0,0,
36200,1860.7,4.3,5.2,232.4,428.0,3197.0,26.0,0,
36300,1860.1,5.2,5.2,230.5,428.0,3197.0,26.0,0,
36400,1861.1,4.7,5.3,232.4,428.0,3197.0,26.0,0,
36500,1859.5,4.8,5.3,226.6,428.0,3197.0,26.0,0,
36600,1858.8,4.5,5.3,209.0,428.0,3197.0,26.0,0,
36700,1860.4,4.3,5.3,207.0,428.0,3197.0,26.0,0,
36900,1859.9,4.6,5.4,238.3,428.0,3197.0,26.0,0,
37000,1859.9,4.5,5.4,238.3,428.0,3197.0,26.0,0,
37100,1860.3,4.5,5.4,234.4,428.0,3197.0,26.0,0,
37200,1860.2,4.2,5.4,232.4,428.0,3197.0,26.0,0,
37300,1861.8,4.2,5.4,220.7,428.0,3197.0,26.0,0,
37400,1860.5,4.1,5.3,209.0,428.0,3197.0,26.0,0,
37500,1859.8,4.5,5.2,191.4,428.0,3197.0,26.0,0,
37600,1859.8,5.2,5.3,187.5,428.0,3197.0,26.0,0,
37700,1860.2,4.7,5.3,187.5,428.0,3197.0,26.0,0,
37900,1860.0,4.5,5.2,212.9,428.0,3197.0,26.0,0,
38000,1860.5,4.2,5.2,210.9,428.0,3197.0,26.0,0,
38100,1860.5,4.7,5.1,189.5,428.0,3197.0,26.0,0,
38200,1861.2,4.6,5.2,207.0,428.0,3197.0,26.0,0,
38300,1859.5,4.2,5.2,228.5,428.0,3197.0,26.0,0,
38400,1860.4,4.6,5.2,203.1,428.0,3197.0,26.0,0,
38500,1860.8,3.7,5.3,201.2,428.0,3197.0,26.0,0,
38600,1860.7,3.5,5.2,228.5,428.0,3197.0,26.0,0,
38700,1859.8,4.3,5.1,210.9,428.0,3197.0,26.0,0,
38900,1860.0,4.7,5.1,240.2,428.0,3197.0,26.0,0,
39000,1858.8,4.5,5.1,234.4,428.0,3197.0,26.0,0,
39100,1861.3,4.1,5.2,209.0,428.0,3197.0,26.0,0,
39200,1859.4,4.5,5.1,187.5,428.0,3197.0,26.0,0,
39300,1859.8,5.0,5.1,193.4,428.0,3197.0,26.0,0,
39400,1861.0,4.4,5.1,191.4,428.0,3197.0,26.0,0,
39500,1860.2,4.3,5.1,212.9,428.0,3197.0,26.0,0,
39600,1860.3,4.1,5.2,199.2,428.0,3197.0,26.0,0,
39700,1860.3,4.2,5.3,203.1,428.0,3197.0,26.0,0,
39900,1859.0,4.1,5.3,240.2,428.0,3197.0,26.0,0,
40000,1860.8,4.4,5.2,238.3,428.0,3197.0,26.0,0,
40100,1859.9,4.5,5.2,230.5,428.0,3197.0,26.0,0,
40200,1859.9,4.8,5.3,201.2,428.0,3197.0,26.0,0,
40300,1859.3,4.5,5.2,197.3,428.0,3197.0,26.0,0,
40400,1859.7,5.0,5.3,209.0,428.0,3197.0,26.0,0,
40500,1859.0,4.8,5.3,189.5,428.0,3197.0,26.0,0,
40600,1859.8,4.0,5.2,150.4,428.0,3197.0,26.0,0,
40700,1860.8,4.9,5.2,168.0,428.0,3197.0,26.0,0,
40900,1860.6,4.9,5.3,216.8,428.0,3197.0,26.0,0,
41000,1859.4,4.7,5.4,195.3,428.0,3197.0,26.0,0,
41100,1860.3,4.0,5.4,212.9,428.0,3197.0,26.0,0,
41200,1860.9,4.4,5.4,222.7,428.0,3197.0,26.0,0,
41300,1859.8,4.5,5.4,248.0,428.0,3197.0,26.0,0,
41400,1859.7,4.3,5.3,259.8,428.0,3197.0,26.0,0,
41500,1860.6,4.3,5.3,230.5,428.0,3197.0,26.0,0,
41600,1860.0,4.5,5.3,205.1,428.0,3197.0,26.0,0,
41700,1859.3,4.4,5.3,199.2,428.0,3197.0,26.0,0,
41900,1860.1,4.6,5.3,207.0,428.0,3197.0,26.0,0,
42000,1858.6,4.2,5.2,175.8,428.0,3197.0,26.0,0,
42100,1859.7,4.2,5.2,232.4,428.0,3197.0,26.0,0,
42200,1859.4,4.3,5.2,257.8,428.0,3197.0,26.0,0,
42300,1859.7,4.5,5.2,232.4,428.0,3197.0,26.0,0,
42400,1859.8,4.1,5.2,220.7,428.0,3197.0,26.0,0,
42500,1861.0,4.9,5.2,220.7,428.0,3197.0,26.0,0,
42600,1860.1,5.0,5.3,210.9,428.0,3197.0,26.0,0,
42700,1859.9,4.6,5.3,201.2,428.0,3197.0,26.0,0,
42900,1859.8,5.5,5.3,203.1,428.0,3197.0,26.0,0,
43000,1858.8,4.7,5.4,230.5,428.0,3197.0,26.0,0,
43100,1859.4,4.7,5.4,230.5,428.0,3197.0,26.0,0,
43200,1860.0,4.6,5.4,214.8,428.0,3197.0,26.0,0,
43300,1859.3,6.2,5.4,214.8,428.0,3197.0,26.0,0,
43400,1861.5,9.7,5.6,232.4,428.0,3197.0,26.0,0,
43500,1862.3,10.5,6.6,199.2,428.0,3197.0,26.0,0,
43600,1861.6,8.3,7.4,97.7,428.0,3197.0,26.0,0,
43700,1860.2,7.5,7.9,95.7,428.0,3197.0,26.0,0,
43900,1856.2,14.8,9.0,148.4,428.0,3197.0,26.0,0,
44000,1856.1,5.0,10.6,134.8,428.0,3197.0,26.0,0,
44100,1859.6,4.6,10.6,89.8,428.0,3197.0,26.0,0,
44200,1859.8,3.6,10.6,82.0,428.0,3197.0,26.0,0,
44300,1860.4,4.1,10.5,84.0,428.0,3197.0,26.0,0,
44400,1859.2,4.0,10.4,144.5,428.0,3197.0,26.0,0,
44500,1860.6,4.0,9.8,189.5,428.0,3197.0,26.0,0,
44600,1859.6,4.6,9.2,203.1,428.0,3197.0,26.0,0,
44700,1860.4,4.5,8.7,203.1,428.0,3197.0,26.0,0,
44900,1860.2,4.9,7.6,220.7,428.0,3197.0,26.0,0,
45000,1859.5,4.1,5.2,216.8,428.0,3197.0,26.0,0,
45100,1860.0,4.7,5.2,199.2,428.0,3197.0,26.0,0,
45200,1859.4,4.4,5.3,197.3,428.0,3197.0,26.0,0,
45300,1859.6,4.7,5.4,214.8,428.0,3197.0,26.0,0,
45400,1860.1,5.2,5.5,218.8,428.0,3197.0,26.0,0,
45500,1859.2,4.2,5.5,209.0,428.0,3197.0,26.0,0,
45600,1860.4,4.3,5.5,187.5,428.0,3197.0,26.0,0,
45700,1860.8,8.7,5.6,203.1,428.0,3197.0,26.0,0,
45900,1861.2,9.8,6.8,162.1,428.0,3197.0,26.0,0,
46000,1862.0,8.2,7.5,70.3,428.0,3197.0,26.0,0,
46100,1860.8,8.1,7.9,80.1,428.0,3197.0,26.0,0,
46200,1862.7,9.0,8.3,99.6,428.0,3197.0,26.0,0,
46300,1862.2,19.5,8.8,107.4,428.0,3197.0,26.0,0,
46400,1861.1,18.8,11.4,99.6,428.0,3197.0,26.0,0,
46500,1863.7,18.3,13.5,80.1,428.0,3197.0,26.0,0,
46600,1862.5,13.2,14.7,80.1,428.0,3197.0,26.0,0,
46700,1860.1,14.1,15.6,82.0,428.0,3197.0,26.0,0,
46900,1861.3,7.5,16.5,93.8,428.0,3197.0,26.0,0,
47000,1859.5,7.8,16.5,80.1,428.0,3197.0,26.0,0,
47100,1861.3,8.5,16.5,64.5,428.0,3197.0,26.0,0,
47200,1859.7,9.1,16.6,74.2,428.0,3197.0,26.0,0,
47300,1860.3,6.8,16.6,89.8,428.0,3197.0,26.0,0,
47400,1860.7,16.4,14.9,111.3,428.0,3197.0,26.0,0,
47500,1861.9,20.4,14.6,132.8,428.0,3197.0,26.0,0,
47600,1861.2,19.4,15.7,95.7,428.0,3197.0,26.0,0,
47700,1859.4,14.1,16.3,87.9,428.0,3197.0,26.0,0,
47900,1860.6,14.5,16.5,87.9,428.0,3197.0,26.0,0,
48000,1861.8,13.5,16.9,82.0,428.0,3197.0,26.0,0,
48100,1860.3,9.4,17.2,87.9,428.0,3197.0,26.0,0,
48200,1859.8,7.5,17.4,85.9,428.0,3197.0,26.0,0,
48300,1860.8,7.8,17.2,72.3,428.0,3197.0,26.0,0,
48400,1860.8,7.7,17.4,72.3,428.0,3197.0,26.0,0,
48500,1860.6,7.1,16.2,95.7,428.0,3197.0,26.0,0,
48600,1861.3,11.3,14.3,113.3,428.0,3197.0,26.0,0,
48700,1859.8,16.2,13.4,103.5,428.0,3197.0,26.0,0,
48900,1861.8,14.9,14.3,82.0,428.0,3197.0,26.0,0,
49000,1860.3,8.5,14.4,82.0,428.0,3197.0,26.0,0,
49100,1859.0,12.4,14.1,85.9,428.0,3197.0,26.0,0,
49200,1862.2,8.4,14.8,93.8,428.0,3197.0,26.0,0,
49300,1860.1,7.5,15.0,87.9,428.0,3197.0,26.0,0,
49400,1858.9,8.2,14.9,78.1,428.0,3197.0,26.0,0,
49500,1860.8,8.5,15.1,87.9,428.0,3197.0,26.0,0,
49600,1861.0,10.8,15.2,97.7,428.0,3197.0,26.0,0,
49700,1860.3,16.0,14.9,101.6,428.0,3197.0,26.0,0,
49900,1860.6,10.9,14.9,85.9,428.0,3197.0,26.0,0,
50000,1859.2,9.3,14.9,87.9,428.0,3197.0,26.0,0,
50100,1860.3,10.6,14.9,87.9,428.0,3197.0,26.0,0,
50200,1861.9,11.2,14.1,85.9,428.0,3197.0,26.0,0,
50300,1859.9,8.1,14.4,97.7,428.0,3197.0,26.0,0,
50400,1861.1,8.1,14.4,125.0,428.0,3197.0,26.0,0,
50500,1860.3,8.4,14.3,113.3,428.0,3197.0,26.0,0,
50600,1860.3,7.8,14.2,123.0,428.0,3197.0,26.0,0,
50700,1861.0,10.7,14.0,148.4,428.0,3197.0,26.0,0,
50900,1862.4,13.0,12.8,113.3,428.0,3197.0,26.0,0,
51000,1860.7,19.6,12.7,91.8,428.0,3197.0,26.0,0,
51100,1860.4,18.5,14.1,93.8,428.0,3197.0,26.0,0,
51200,1862.3,11.0,14.9,87.9,428.0,3197.0,26.0,0,
51300,1861.0,18.8,14.9,76.2,428.0,3197.0,26.0,0,
51400,1861.6,12.8,16.1,78.1,428.0,3197.0,26.0,0,
51500,1857.8,12.4,17.0,80.1,428.0,3197.0,26.0,0,
51600,1859.3,12.7,17.7,80.1,428.0,3197.0,26.0,0,
51700,1861.8,10.0,17.9,76.2,428.0,3197.0,26.0,0,
51900,1860.0,19.1,17.4,68.4,428.0,3197.0,26.0,0,
52000,1860.8,14.8,18.5,85.9,428.0,3197.0,26.0,0,
52100,1861.6,16.4,18.0,82.0,428.0,3197.0,26.0,0,
52200,1859.6,13.5,18.0,76.2,428.0,3197.0,26.0,0,
52300,1858.6,9.1,18.4,74.2,428.0,3197.0,26.0,0,
52400,1859.8,13.1,17.3,72.3,428.0,3197.0,26.0,0,
52500,1860.5,8.8,16.8,72.3,428.0,3197.0,26.0,0,
52600,1860.9,9.5,16.3,84.0,428.0,3197.0,26.0,0,
52700,1860.3,9.8,16.1,78.1,428.0,3197.0,26.0,0,
52900,1859.8,10.6,15.8,109.4,428.0,3197.0,26.0,0,
53000,1861.0,14.1,14.5,107.4,428.0,3197.0,26.0,0,
53100,1859.8,12.3,14.8,105.5,428.0,3197.0,26.0,0,
53200,1859.1,15.6,14.7,105.5,428.0,3197.0,26.0,0,
53300,1859.9,13.3,14.7,87.9,428.0,3197.0,26.0,0,
53400,1860.7,9.9,15.2,72.3,428.0,3197.0,26.0,0,
53500,1857.0,16.3,15.1,76.2,428.0,3197.0,26.0,0,
53600,1859.3,11.8,16.2,87.9,428.0,3197.0,26.0,0,
53700,1858.5,10.3,16.3,76.2,428.0,3197.0,26.0,0,
53900,1861.8,8.9,16.4,76.2,428.0,3197.0,26.0,0,
54000,1860.4,11.9,16.1,85.9,428.0,3197.0,26.0,0,
54100,1861.4,10.1,15.9,87.9,428.0,3197.0,26.0,0,
54200,1860.4,10.3,15.3,72.3,428.0,3197.0,26.0,0,
54300,1861.8,8.6,14.6,62.5,428.0,3197.0,26.0,0,
54400,1860.9,8.3,14.2,105.5,428.0,3197.0,26.0,0,
54500,1859.5,10.7,13.9,103.5,428.0,3197.0,26.0,0,
54600,1859.4,9.1,12.6,97.7,428.0,3197.0,26.0,0,
54700,1861.0,9.8,12.4,132.8,428.0,3197.0,26.0,0,
54900,1860.4,18.3,12.0,128.9,428.0,3197.0,26.0,0,
55000,1861.4,20.0,13.5,130.9,428.0,3197.0,26.0,0,
55100,1859.9,15.5,14.2,93.8,428.0,3197.0,26.0,0,
55200,1860.1,13.0,15.2,68.4,428.0,3197.0,26.0,0,
55300,1861.8,15.9,15.5,70.3,428.0,3197.0,26.0,0,
55400,1859.2,11.5,15.9,70.3,428.0,3197.0,26.0,0,
55500,1859.3,22.3,16.0,70.3,428.0,3197.0,26.0,0,
55600,1861.4,10.7,17.5,70.3,428.0,3197.0,26.0,0,
55700,1857.9,12.2,17.6,56.6,428.0,3197.0,26.0,0,
55900,1860.2,9.3,18.0,54.7,428.0,3197.0,26.0,0,
56000,1859.1,9.4,16.9,74.2,428.0,3197.0,26.0,0,
56100,1859.6,8.0,15.7,128.9,428.0,3197.0,26.0,0,
56200,1861.0,9.1,14.6,154.3,428.0,3197.0,26.0,0,
56300,1860.4,8.8,14.2,117.2,428.0,3197.0,26.0,0,
56400,1860.6,8.7,13.6,140.6,428.0,3197.0,26.0,0,
56500,1859.3,9.1,13.5,193.4,428.0,3197.0,26.0,0,
56600,1857.5,15.8,11.4,195.3,428.0,3197.0,26.0,0,
56700,1862.2,19.9,12.1,173.8,428.0,3197.0,26.0,0,
56900,1858.0,12.5,13.4,66.4,428.0,3197.0,26.0,0,
57000,1861.0,11.9,14.0,70.3,428.0,3197.0,26.0,0,
57100,1861.1,10.3,14.3,72.3,428.0,3197.0,26.0,0,
57200,1859.1,14.7,14.4,74.2,428.0,3197.0,26.0,0,
57300,1858.5,11.5,15.5,78.1,428.0,3197.0,26.0,0,
57400,1861.8,10.3,16.7,74.2,428.0,3197.0,26.0,0,
57500,1860.1,11.5,16.8,54.7,428.0,3197.0,26.0,0,
57600,1859.8,8.2,17.0,52.7,428.0,3197.0,26.0,0,
57700,1860.3,10.5,16.5,54.7,428.0,3197.0,26.0,0,
57900,1858.1,10.6,16.1,103.5,428.0,3197.0,26.0,0,
58000,1860.0,12.2,16.3,85.9,428.0,3197.0,26.0,0,
58100,1862.4,14.8,16.6,84.0,428.0,3197.0,26.0,0,
58200,1861.3,11.4,17.2,84.0,428.0,3197.0,26.0,0,
58300,1860.0,16.9,16.2,68.4,428.0,3197.0,26.0,0,
58400,1861.6,9.5,15.7,68.4,428.0,3197.0,26.0,0,
58500,1857.8,9.8,15.7,76.2,428.0,3197.0,26.0,0,
58600,1860.5,9.5,15.6,70.3,428.0,3197.0,26.0,0,
58700,1859.2,9.8,15.6,68.4,428.0,3197.0,26.0,0,
58900,1860.8,18.5,16.0,107.4,428.0,3197.0,26.0,0,
59000,1856.9,14.9,16.0,74.2,428.0,3197.0,26.0,0,
59100,1862.7,13.2,16.2,62.5,428.0,3197.0,26.0,0,
59200,1860.5,10.1,16.0,62.5,428.0,3197.0,26.0,0,
59300,1861.7,9.7,15.9,62.5,428.0,3197.0,26.0,0,
59400,1860.2,10.1,15.3,64.5,428.0,3197.0,26.0,0,
59500,1860.8,18.8,15.4,78.1,428.0,3197.0,26.0,0,
59600,1861.2,11.8,16.1,87.9,428.0,3197.0,26.0,0,
59700,1858.9,11.4,16.3,82.0,428.0,3197.0,26.0,0,
59900,1860.5,12.7,15.1,76.2,428.0,3197.0,26.0,0,
60000,1860.6,12.3,14.8,76.2,428.0,3197.0,26.0,0,
60100,1858.2,11.0,14.2,64.5,428.0,3197.0,26.0,0,
60200,1862.5,13.1,14.6,64.5,428.0,3197.0,26.0,0,
60300,1862.4,11.2,14.9,74.2,428.0,3197.0,26.0,0,
60400,1860.3,10.6,15.2,74.2,428.0,3197.0,26.0,0,
60500,1861.8,9.4,15.3,74.2,428.0,3197.0,26.0,0,
60600,1861.0,10.0,14.3,74.2,428.0,3197.0,26.0,0,
60700,1860.5,11.5,14.4,91.8,428.0,3197.0,26.0,0,
60900,1858.3,8.9,14.3,97.7,428.0,3197.0,26.0,0,
61000,1861.4,13.6,13.8,101.6,428.0,3197.0,26.0,0,
61100,1859.3,13.0,14.3,99.6,428.0,3197.0,26.0,0,
61200,1857.2,17.6,13.7,84.0,428.0,3197.0,26.0,0,
61300,1862.2,13.5,14.9,74.2,428.0,3197.0,26.0,0,
61400,1860.7,10.8,15.3,72.3,428.0,3197.0,26.0,0,
61500,1861.8,13.2,15.3,68.4,428.0,3197.0,26.0,0,
61600,1860.5,17.0,15.5,66.4,428.0,3197.0,26.0,0,
61700,1860.7,10.8,16.6,72.3,428.0,3197.0,26.0,0,
61900,1861.1,9.8,16.6,48.8,428.0,3197.0,26.0,0,
62000,1858.9,15.4,16.6,54.7,428.0,3197.0,26.0,0,
62100,1860.6,19.6,16.6,78.1,428.0,3197.0,26.0,0,
62200,1859.0,13.5,18.1,74.2,428.0,3197.0,26.0,0,
62300,1857.9,16.1,17.4,62.5,428.0,3197.0,26.0,0,
62400,1863.5,17.5,17.3,62.5,428.0,3197.0,26.0,0,
62500,1861.8,10.0,18.0,66.4,428.0,3197.0,26.0,0,
62600,1860.6,11.4,17.9,76.2,428.0,3197.0,26.0,0,
62700,1860.0,8.9,16.8,78.1,428.0,3197.0,26.0,0,
62900,1858.6,9.9,16.7,72.3,428.0,3197.0,26.0,0,
63000,1860.6,9.6,16.7,72.3,428.0,3197.0,26.0,0,
63100,1860.8,12.5,16.2,97.7,428.0,3197.0,26.0,0,
63200,1859.0,17.7,14.7,107.4,428.0,3197.0,26.0,0,
63300,1858.1,18.2,14.9,97.7,428.0,3197.0,26.0,0,
63400,1860.0,11.4,15.7,85.9,428.0,3197.0,26.0,0,
63500,1859.3,10.2,15.3,66.4,428.0,3197.0,26.0,0,
63600,1859.8,9.7,15.4,56.6,428.0,3197.0,26.0,0,
63700,1859.9,9.3,15.2,54.7,428.0,3197.0,26.0,0,
63900,1860.4,10.7,15.5,107.4,428.0,3197.0,26.0,0,
64000,1857.6,9.6,15.4,97.7,428.0,3197.0,26.0,0,
64100,1858.0,18.4,15.4,62.5,428.0,3197.0,26.0,0,
64200,1859.8,13.8,15.8,62.5,428.0,3197.0,26.0,0,
64300,1857.0,16.8,15.4,84.0,428.0,3197.0,26.0,0,
64400,1857.5,15.7,15.1,80.1,428.0,3197.0,26.0,0,
64500,1859.8,11.4,15.4,80.1,428.0,3197.0,26.0,0,
64600,1858.5,10.8,15.5,85.9,428.0,3197.0,26.0,0,
64700,1861.0,10.2,15.8,82.0,428.0,3197.0,26.0,0,
64900,1860.3,11.7,15.8,76.2,428.0,3197.0,26.0,0,
65000,1857.7,10.5,16.2,87.9,428.0,3197.0,26.0,0,
65100,1859.5,9.9,16.2,56.6,428.0,3197.0,26.0,0,
65200,1860.1,14.2,15.4,56.6,428.0,3197.0,26.0,0,
65300,1858.5,17.9,15.8,68.4,428.0,3197.0,26.0,0,
65400,1859.8,13.2,15.4,80.1,428.0,3197.0,26.0,0,
65500,1860.2,17.5,15.1,70.3,428.0,3197.0,26.0,0,
65600,1859.2,11.5,15.8,54.7,428.0,3197.0,26.0,0,
65700,1859.2,10.9,15.7,54.7,428.0,3197.0,26.0,0,
65900,1855.4,10.4,16.1,64.5,428.0,3197.0,26.0,0,
66000,1861.4,8.4,16.0,70.3,428.0,3197.0,26.0,0,
66100,1858.7,8.2,15.9,72.3,428.0,3197.0,26.0,0,
66200,1859.1,15.4,15.9,72.3,428.0,3197.0,26.0,0,
66300,1857.8,9.2,15.7,85.9,428.0,3197.0,26.0,0,
66400,1859.8,21.9,15.0,66.4,428.0,3197.0,26.0,0,
66500,1859.9,15.3,16.5,52.7,428.0,3197.0,26.0,0,
66600,1858.5,9.4,16.3,56.6,428.0,3197.0,26.0,0,
66700,1858.8,11.9,16.2,56.6,428.0,3197.0,26.0,0,
66900,1858.6,9.2,15.6,70.3,428.0,3197.0,26.0,0,
67000,1860.1,8.0,15.2,91.8,428.0,3197.0,26.0,0,
67100,1857.0,9.2,15.2,105.5,428.0,3197.0,26.0,0,
67200,1858.4,10.0,15.2,109.4,428.0,3197.0,26.0,0,
67300,1858.7,14.3,14.8,111.3,428.0,3197.0,26.0,0,
67400,1855.5,18.2,15.9,107.4,428.0,3197.0,26.0,0,
67500,1857.1,10.5,14.4,66.4,428.0,3197.0,26.0,0,
67600,1860.2,13.8,14.5,66.4,428.0,3197.0,26.0,0,
67700,1857.0,8.9,15.5,72.3,428.0,3197.0,26.0,0,
67900,1859.6,10.3,15.3,68.4,428.0,3197.0,26.0,0,
68000,1857.6,8.7,15.4,93.8,428.0,3197.0,26.0,0,
68100,1859.0,9.7,15.4,117.2,428.0,3197.0,26.0,0,
68200,1858.8,11.0,15.4,134.8,428.0,3197.0,26.0,0,
68300,1857.5,11.9,15.4,160.2,428.0,3197.0,26.0,0,
68400,1858.9,11.4,14.4,95.7,428.0,3197.0,26.0,0,
68500,1857.8,15.6,14.1,80.1,428.0,3197.0,26.0,0,
68600,1859.3,12.2,13.7,82.0,428.0,3197.0,26.0,0,
68700,1858.1,12.7,12.9,80.1,428.0,3197.0,26.0,0,
68900,1859.4,11.2,13.3,70.3,428.0,3197.0,26.0,0,
69000,1859.0,8.1,13.6,84.0,428.0,3197.0,26.0,0,
69100,1859.0,9.1,13.6,91.8,428.0,3197.0,26.0,0,
69200,1859.9,10.0,13.7,85.9,428.0,3197.0,26.0,0,
69300,1857.9,13.3,13.7,97.7,428.0,3197.0,26.0,0,
69400,1857.3,17.4,13.9,99.6,428.0,3197.0,26.0,0,
69500,1858.8,11.2,15.0,87.9,428.0,3197.0,26.0,0,
69600,1859.9,9.6,14.8,76.2,428.0,3197.0,26.0,0,
69700,1859.7,11.5,14.6,76.2,428.0,3197.0,26.0,0,
69900,1859.0,10.7,14.5,91.8,428.0,3197.0,26.0,0,
70000,1859.3,9.2,14.2,109.4,428.0,3197.0,26.0,0,
70100,1858.8,8.9,14.4,101.6,428.0,3197.0,26.0,0,
70200,1858.9,11.4,14.3,107.4,428.0,3197.0,26.0,0,
70300,1858.3,9.6,14.6,127.0,428.0,3197.0,26.0,0,
70400,1857.6,8.0,14.4,74.2,428.0,3197.0,26.0,0,
70500,1859.3,8.7,13.0,64.5,428.0,3197.0,26.0,0,
70600,1859.3,9.8,12.4,64.5,428.0,3197.0,26.0,0,
70700,1858.4,9.3,12.2,72.3,428.0,3197.0,26.0,0,
70900,1852.3,8.3,12.2,142.6,428.0,3197.0,26.0,0,
71000,1858.6,8.9,12.0,187.5,428.0,3197.0,26.0,0,
71100,1860.1,10.5,12.0,195.3,428.0,3197.0,26.0,0,
71200,1857.9,12.2,12.0,150.4,428.0,3197.0,26.0,0,
71300,1853.2,11.4,11.7,171.9,428.0,3197.0,26.0,0,
71400,1856.2,12.8,11.5,162.1,428.0,3197.0,26.0,0,
71500,1857.6,11.2,11.7,144.5,428.0,3197.0,26.0,0,
71600,1858.5,11.4,12.1,148.4,428.0,3197.0,26.0,0,
71700,1856.4,13.2,12.4,117.2,428.0,3197.0,26.0,0,
71900,1859.1,16.0,13.4,123.0,428.0,3197.0,26.0,0,
72000,1854.8,16.4,14.2,111.3,428.0,3197.0,26.0,0,
72100,1857.2,15.2,14.9,64.5,428.0,3197.0,26.0,0,
72200,1857.2,12.5,15.6,72.3,428.0,3197.0,26.0,0,
72300,1863.8,14.0,16.0,101.6,428.0,3197.0,26.0,0,
72400,1861.5,12.7,16.1,127.0,428.0,3197.0,26.0,0,
72500,1860.4,13.7,16.3,189.5,428.0,3197.0,26.0,0,
72600,1860.7,14.4,16.5,166.0,428.0,3197.0,26.0,0,
72700,1860.0,13.1,16.6,148.4,428.0,3197.0,26.0,0,
72900,1859.4,14.3,16.6,142.6,428.0,3197.0,26.0,0,
73000,1858.8,12.5,16.3,101.6,428.0,3197.0,26.0,0,
73100,1857.9,13.2,16.0,101.6,428.0,3197.0,26.0,0,
73200,1858.9,13.3,15.6,89.8,428.0,3197.0,26.0,0,
