Time(ms),Raw_ADC,ENV_Value,RMS,MDF,MW_Amp,MW_Area,MW_Latency,Marker
0,1860.0,16.8,0.0,0.0,0.0,0.0,0.0,
100,1857.9,16.2,0.0,0.0,0.0,0.0,0.0,
200,1863.3,16.9,0.0,0.0,0.0,0.0,0.0,
300,1867.3,15.0,0.0,0.0,0.0,0.0,0.0,
400,1861.0,16.4,0.0,0.0,0.0,0.0,0.0,
500,1861.0,68.5,0.0,199.2,0.0,0.0,0.0,
600,1873.5,79.9,0.0,144.5,0.0,0.0,0.0,
700,1877.6,85.9,0.0,68.4,0.0,0.0,0.0,
800,1869.2,130.6,0.0,66.4,441.0,1426.0,5.0,
900,1833.8,84.0,105.9,66.4,414.0,1219.0,5.0,
1000,1870.8,75.3,111.5,130.9,414.0,1219.0,5.0,
1100,1877.8,69.5,116.7,191.4,414.0,1219.0,5.0,
1200,1866.3,39.8,119.5,160.2,414.0,1219.0,5.0,
1300,1863.6,26.8,120.1,95.7,414.0,1219.0,5.0,
1400,1861.2,20.4,120.4,66.4,414.0,1219.0,5.0,
1500,1863.3,22.1,120.5,72.3,414.0,1219.0,5.0,
1600,1865.2,22.5,114.7,91.8,414.0,1219.0,5.0,
1700,1858.5,20.8,109.1,128.9,414.0,1219.0,5.0,
1900,1863.6,19.4,62.3,199.2,414.0,1219.0,5.0,
2000,1860.5,23.5,51.6,166.0,414.0,1219.0,5.0,
2100,1862.6,80.7,39.0,144.5,414.0,1219.0,5.0,
2200,1861.2,114.1,59.6,132.8,520.0,1838.0,5.0,
2300,1841.6,66.9,93.6,162.1,466.0,1473.0,5.0,
2400,1873.5,71.7,99.7,191.4,466.0,1473.0,5.0,
2500,1880.3,106.7,105.7,191.4,466.0,1473.0,5.0,
2600,1838.8,101.3,124.9,130.9,403.0,1366.0,5.0,
2700,1849.9,60.7,139.4,128.9,403.0,1366.0,5.0,
2900,1862.0,22.0,141.7,195.3,403.0,1366.0,5.0,
3000,1859.1,27.5,141.8,160.2,403.0,1366.0,5.0,
3100,1865.0,18.7,141.8,99.6,403.0,1366.0,5.0,
3200,1861.9,26.8,132.0,111.3,403.0,1366.0,5.0,
3300,1866.2,22.2,110.0,123.0,403.0,1366.0,5.0,
3400,1861.3,16.4,104.5,121.1,403.0,1366.0,5.0,
3500,1863.8,20.4,98.3,119.1,403.0,1366.0,5.0,
3600,1863.3,19.1,72.5,125.0,403.0,1366.0,5.0,
3700,1860.6,42.6,37.3,138.7,403.0,1366.0,5.0,
3900,1872.6,92.0,58.9,66.4,403.0,1366.0,5.0,
4000,1853.7,87.2,84.0,64.5,384.0,1277.0,5.0,
4100,1846.1,73.5,106.6,68.4,416.0,1383.0,5.0,
4200,1878.2,86.7,112.3,162.1,416.0,1383.0,5.0,
4300,1869.9,103.4,117.5,164.1,416.0,1383.0,5.0,
4400,1853.6,23.1,128.0,121.1,443.0,1268.0,5.0,
4500,1862.8,22.1,128.7,97.7,443.0,1268.0,5.0,
4600,1859.0,21.1,128.6,158.2,443.0,1268.0,5.0,
4700,1861.7,17.2,128.7,158.2,443.0,1268.0,5.0,
4900,1862.2,16.9,117.4,113.3,443.0,1268.0,5.0,
5000,1860.4,17.7,100.9,125.0,443.0,1268.0,5.0,
5100,1863.3,20.8,76.4,138.7,443.0,1268.0,5.0,
5200,1856.2,22.8,67.6,160.2,443.0,1268.0,5.0,
5300,1863.1,20.4,58.1,158.2,443.0,1268.0,5.0,
5400,1852.8,111.9,67.4,150.4,534.0,2073.0,5.0,
5500,1857.3,94.1,85.0,168.0,534.0,2073.0,5.0,
5600,1874.2,75.4,90.9,134.8,534.0,2073.0,5.0,
5700,1873.7,90.6,98.3,99.6,444.0,1482.0,5.0,
5900,1872.0,90.1,135.0,158.2,444.0,1482.0,5.0,
6000,1867.7,21.5,137.7,191.4,444.0,1482.0,5.0,
6100,1864.2,19.9,137.8,130.9,444.0,1482.0,5.0,
6200,1860.5,18.1,138.0,91.8,444.0,1482.0,5.0,
6300,1863.5,18.3,137.9,68.4,444.0,1482.0,5.0,
6400,1863.8,20.1,123.6,119.1,444.0,1482.0,5.0,
6500,1859.0,19.3,111.5,127.0,444.0,1482.0,5.0,
6600,1864.0,19.1,106.7,119.1,444.0,1482.0,5.0,
6700,1865.1,18.7,99.9,166.0,444.0,1482.0,5.0,
6900,1862.2,16.2,37.8,195.3,444.0,1482.0,5.0,
7000,1868.3,90.0,35.8,193.4,444.0,1482.0,5.0,
7100,1860.4,134.5,79.7,70.3,464.0,1538.0,5.0,
7200,1845.9,102.0,105.5,95.7,464.0,1538.0,5.0,
7300,1865.9,91.0,112.3,128.9,464.0,1538.0,5.0,
7400,1879.0,83.0,118.7,158.2,464.0,1538.0,5.0,
7500,1846.2,121.9,138.3,99.6,538.0,1657.0,5.0,
7600,1852.3,25.0,152.8,97.7,538.0,1657.0,5.0,
7700,1861.2,22.6,152.9,132.8,538.0,1657.0,5.0,
7900,1861.9,20.3,153.1,158.2,538.0,1657.0,5.0,
8000,1866.9,19.5,151.2,130.9,538.0,1657.0,5.0,
8100,1863.0,19.5,133.3,138.7,538.0,1657.0,5.0,
8200,1858.8,14.2,113.9,162.1,538.0,1657.0,5.0,
8300,1861.1,23.4,107.2,185.5,538.0,1657.0,5.0,
8400,1860.8,20.2,100.0,183.6,538.0,1657.0,5.0,
8500,1858.6,22.4,70.5,148.4,538.0,1657.0,5.0,
8600,1865.4,103.0,41.5,134.8,538.0,1657.0,5.0,
8700,1867.8,85.0,62.2,101.6,538.0,1657.0,5.0,
8900,1844.2,130.0,105.2,68.4,533.0,1860.0,5.0,
9000,1847.7,92.4,122.5,95.7,533.0,1860.0,5.0,
9100,1872.4,78.9,128.1,130.9,533.0,1860.0,5.0,
9200,1877.5,28.2,134.1,144.5,533.0,1860.0,5.0,
9300,1862.8,19.8,134.2,97.7,533.0,1860.0,5.0,
9400,1863.5,18.1,134.2,66.4,533.0,1860.0,5.0,
9500,1860.2,21.6,134.3,68.4,533.0,1860.0,5.0,
9600,1862.7,19.5,130.5,95.7,533.0,1860.0,5.0,
9700,1861.6,20.6,121.9,121.1,533.0,1860.0,5.0,
9900,1868.1,22.5,87.4,160.2,533.0,1860.0,5.0,
10000,1863.6,19.3,60.8,171.9,533.0,1860.0,5.0,
10100,1861.8,17.6,47.7,152.3,533.0,1860.0,5.0,
10200,1863.2,156.9,37.7,138.7,533.0,1860.0,5.0,
10300,1840.3,105.6,86.6,119.1,543.0,1634.0,5.0,
10400,1855.0,76.2,103.1,128.9,543.0,1634.0,5.0,
10500,1881.6,91.0,109.9,130.9,543.0,1634.0,5.0,
10600,1867.5,137.2,119.6,128.9,504.0,1852.0,5.0,
10700,1838.9,96.2,140.6,97.7,504.0,1852.0,5.0,
10900,1858.1,21.0,147.8,160.2,504.0,1852.0,5.0,
11000,1861.3,24.7,147.8,158.2,504.0,1852.0,5.0,
11100,1864.6,21.4,148.0,125.0,504.0,1852.0,5.0,
11200,1863.2,15.9,145.6,115.2,504.0,1852.0,5.0,
11300,1861.4,19.2,122.9,103.5,504.0,1852.0,5.0,
11400,1862.8,18.4,109.3,101.6,504.0,1852.0,5.0,
11500,1862.7,21.1,102.4,119.1,504.0,1852.0,5.0,
11600,1863.4,22.0,91.0,148.4,504.0,1852.0,5.0,
11700,1862.6,23.6,53.4,199.2,504.0,1852.0,5.0,
11900,1861.6,125.6,54.4,97.7,504.0,1852.0,5.0,
12000,1856.3,102.3,78.4,66.4,414.0,1367.0,5.0,
12100,1848.7,76.3,103.6,68.4,414.0,1367.0,5.0,
12200,1874.0,81.2,110.6,130.9,414.0,1367.0,5.0,
12300,1873.2,119.6,116.6,162.1,414.0,1367.0,5.0,
12400,1845.1,33.0,134.0,128.9,487.0,1558.0,5.0,
12500,1862.9,18.4,134.1,97.7,487.0,1558.0,5.0,
12600,1860.4,23.8,134.0,156.3,487.0,1558.0,5.0,
12700,1860.0,22.8,134.0,164.1,487.0,1558.0,5.0,
12900,1861.0,17.6,125.5,121.1,487.0,1558.0,5.0,
13000,1860.9,17.2,112.0,154.3,487.0,1558.0,5.0,
13100,1861.8,19.5,88.8,187.5,487.0,1558.0,5.0,
13200,1858.5,20.6,79.8,179.7,487.0,1558.0,5.0,
13300,1867.4,15.6,70.9,148.4,487.0,1558.0,5.0,
13400,1866.3,78.2,25.4,168.0,487.0,1558.0,5.0,
13500,1872.3,98.6,59.4,142.6,487.0,1558.0,5.0,
13600,1861.4,106.4,71.5,99.6,487.0,1558.0,5.0,
13700,1866.6,111.6,84.4,95.7,489.0,1668.0,5.0,
13900,1868.5,72.8,120.4,128.9,489.0,1668.0,5.0,
14000,1875.9,32.2,125.9,162.1,489.0,1668.0,5.0,
14100,1859.9,29.1,126.1,130.9,489.0,1668.0,5.0,
14200,1866.5,19.1,126.2,95.7,489.0,1668.0,5.0,
14300,1862.7,23.7,126.3,68.4,489.0,1668.0,5.0,
14400,1863.6,22.0,126.5,103.5,489.0,1668.0,5.0,
14500,1858.7,21.8,114.5,125.0,489.0,1668.0,5.0,
14600,1862.1,21.0,107.4,134.8,489.0,1668.0,5.0,
14700,1861.8,20.5,97.6,179.7,489.0,1668.0,5.0,
14900,1863.2,25.6,46.5,132.8,489.0,1668.0,5.0,
15000,1862.2,89.6,28.7,121.1,489.0,1668.0,5.0,
15100,1856.9,100.2,61.2,121.1,558.0,2256.0,5.0,
15200,1848.1,85.3,95.1,128.9,558.0,2256.0,5.0,
15300,1863.5,96.3,100.7,130.9,558.0,2256.0,5.0,
15400,1873.8,97.7,105.9,130.9,558.0,2256.0,5.0,
15500,1845.5,85.9,122.7,97.7,386.0,1434.0,5.0,
15600,1850.0,34.1,137.9,123.0,386.0,1434.0,5.0,
15700,1858.5,23.6,138.8,164.1,386.0,1434.0,5.0,
15900,1864.9,21.9,138.9,160.2,386.0,1434.0,5.0,
16000,1860.8,21.9,138.9,130.9,386.0,1434.0,5.0,
16100,1862.2,19.0,128.1,119.1,386.0,1434.0,5.0,
16200,1863.1,22.5,105.1,119.1,386.0,1434.0,5.0,
16300,1865.1,20.5,99.7,121.1,386.0,1434.0,5.0,
16400,1864.5,20.6,94.0,128.9,386.0,1434.0,5.0,
16500,1862.6,18.2,70.8,132.8,386.0,1434.0,5.0,
16600,1862.1,95.2,32.0,121.1,386.0,1434.0,5.0,
16700,1871.5,89.7,48.3,101.6,386.0,1434.0,5.0,
16900,1850.5,90.1,96.0,66.4,398.0,1493.0,5.0,
17000,1862.5,87.7,102.3,111.3,398.0,1493.0,5.0,
17100,1872.0,87.6,107.2,162.1,398.0,1493.0,5.0,
17200,1851.4,50.5,121.1,130.9,441.0,1515.0,5.0,
17300,1850.6,21.4,129.5,123.0,441.0,1515.0,5.0,
17400,1859.9,25.0,129.5,166.0,441.0,1515.0,5.0,
17500,1859.9,25.0,129.5,216.8,441.0,1515.0,5.0,
17600,1859.6,20.7,129.7,175.8,441.0,1515.0,5.0,
17700,1864.8,20.9,123.4,119.1,441.0,1515.0,5.0,
17900,1859.3,24.7,91.2,121.1,441.0,1515.0,5.0,
18000,1859.2,18.6,84.0,121.1,441.0,1515.0,5.0,
18100,1865.2,20.4,77.5,125.0,441.0,1515.0,5.0,
18200,1861.8,105.0,53.2,130.9,476.0,1919.0,5.0,
18300,1849.7,100.6,64.1,169.9,476.0,1919.0,5.0,
18400,1869.5,77.4,73.2,162.1,476.0,1919.0,5.0,
18500,1876.9,81.8,80.6,127.0,476.0,1919.0,5.0,
18600,1843.7,103.8,111.0,97.7,414.0,1458.0,5.0,
18700,1849.9,96.7,118.8,128.9,414.0,1458.0,5.0,
18900,1867.0,25.3,125.3,160.2,414.0,1458.0,5.0,
19000,1862.5,21.5,125.5,97.7,414.0,1458.0,5.0,
19100,1862.4,20.1,125.4,95.7,414.0,1458.0,5.0,
19200,1859.9,22.0,125.5,103.5,414.0,1458.0,5.0,
19300,1866.6,20.2,111.3,119.1,414.0,1458.0,5.0,
19400,1862.6,19.0,105.4,130.9,414.0,1458.0,5.0,
19500,1860.1,23.7,99.8,168.0,414.0,1458.0,5.0,
19600,1858.2,18.3,64.2,187.5,414.0,1458.0,5.0,
19700,1859.0,17.1,48.2,144.5,414.0,1458.0,5.0,
19900,1862.0,129.4,66.5,140.6,525.0,1915.0,5.0,
20000,1838.7,92.1,87.8,130.9,525.0,1915.0,5.0,
20100,1874.3,78.3,93.4,132.8,525.0,1915.0,5.0,
20200,1875.3,80.7,100.0,130.9,525.0,1915.0,5.0,
20300,1851.6,100.3,122.3,97.7,501.0,1344.0,5.0,
20400,1850.0,55.4,130.5,128.9,501.0,1344.0,5.0,
20500,1862.2,24.0,132.2,162.1,501.0,1344.0,5.0,
20600,1861.4,26.7,132.3,160.2,501.0,1344.0,5.0,
20700,1860.7,28.3,132.5,119.1,501.0,1344.0,5.0,
20900,1862.4,22.6,118.0,105.5,501.0,1344.0,5.0,
21000,1863.6,18.9,103.0,119.1,501.0,1344.0,5.0,
21100,1862.0,18.9,97.9,119.1,501.0,1344.0,5.0,
21200,1864.7,24.5,91.0,121.1,501.0,1344.0,5.0,
21300,1859.3,17.9,57.7,134.8,501.0,1344.0,5.0,
21400,1864.5,58.7,35.5,181.6,501.0,1344.0,5.0,
21500,1868.0,90.5,42.3,168.0,501.0,1344.0,5.0,
21600,1871.7,130.0,68.3,66.4,464.0,1570.0,5.0,
21700,1830.6,100.2,96.2,66.4,464.0,1570.0,5.0,
21900,1880.9,69.1,107.3,158.2,464.0,1570.0,5.0,
22000,1859.9,72.3,124.6,128.9,355.0,1387.0,5.0,
22100,1845.3,27.9,131.4,97.7,355.0,1387.0,5.0,
22200,1862.6,22.2,131.6,162.1,355.0,1387.0,5.0,
22300,1860.8,21.5,131.7,222.7,355.0,1387.0,5.0,
22400,1862.3,21.0,131.7,212.9,355.0,1387.0,5.0,
22500,1862.1,22.7,127.9,152.3,355.0,1387.0,5.0,
22600,1861.8,19.2,116.0,136.7,355.0,1387.0,5.0,
22700,1862.6,19.1,93.9,142.6,355.0,1387.0,5.0,
22900,1861.0,20.5,80.3,121.1,355.0,1387.0,5.0,
23000,1860.9,76.8,49.1,152.3,355.0,1387.0,5.0,
23100,1867.6,88.5,44.8,166.0,355.0,1387.0,5.0,
23200,1873.6,76.5,59.1,109.4,355.0,1387.0,5.0,
23300,1880.7,146.4,75.9,68.4,355.0,1387.0,5.0,
23400,1832.4,115.4,105.4,66.4,676.0,2153.0,5.0,
23500,1863.1,85.1,113.4,97.7,676.0,2153.0,5.0,
23600,1875.0,75.7,118.8,130.9,676.0,2153.0,5.0,
23700,1868.3,23.3,123.2,128.9,676.0,2153.0,5.0,
23900,1862.0,23.3,123.4,87.9,676.0,2153.0,5.0,
24000,1862.5,26.4,123.4,99.6,676.0,2153.0,5.0,
24100,1858.6,22.3,118.2,146.5,676.0,2153.0,5.0,
24200,1868.1,21.4,111.4,140.6,676.0,2153.0,5.0,
24300,1862.1,16.4,100.8,128.9,676.0,2153.0,5.0,
24400,1861.3,21.2,69.2,127.0,676.0,2153.0,5.0,
24500,1863.0,21.3,55.2,140.6,676.0,2153.0,5.0,
24600,1856.4,71.4,42.4,150.4,676.0,2153.0,5.0,
24700,1860.9,134.5,47.9,140.6,676.0,2153.0,5.0,
24900,1865.3,60.0,95.1,130.9,676.0,2153.0,5.0,
25000,1886.8,106.8,102.3,132.8,676.0,2153.0,5.0,
25100,1851.7,116.9,114.4,130.9,436.0,1473.0,5.0,
25200,1843.7,77.6,130.7,97.7,436.0,1473.0,5.0,
25300,1863.6,29.2,133.2,160.2,436.0,1473.0,5.0,
25400,1858.2,24.8,133.4,162.1,436.0,1473.0,5.0,
25500,1864.5,27.2,133.5,130.9,436.0,1473.0,5.0,
25600,1859.5,24.7,133.7,119.1,436.0,1473.0,5.0,
25700,1863.3,22.7,127.8,121.1,436.0,1473.0,5.0,
25900,1861.3,22.8,97.7,142.6,436.0,1473.0,5.0,
26000,1863.4,26.2,90.2,146.5,436.0,1473.0,5.0,
26100,1866.1,21.7,74.2,146.5,436.0,1473.0,5.0,
26200,1858.3,28.9,38.9,148.4,436.0,1473.0,5.0,
26300,1876.3,104.1,41.0,138.7,436.0,1473.0,5.0,
26400,1864.3,98.6,59.8,68.4,436.0,1473.0,5.0,
26500,1857.2,102.0,76.7,66.4,531.0,1736.0,5.0,
26600,1845.4,67.5,99.3,66.4,531.0,1736.0,5.0,
26700,1877.7,87.9,106.7,130.9,531.0,1736.0,5.0,
26900,1858.2,29.0,120.8,101.6,531.0,1736.0,5.0,
27000,1856.5,26.5,120.8,97.7,531.0,1736.0,5.0,
27100,1862.9,26.5,120.9,128.9,531.0,1736.0,5.0,
27200,1858.4,24.4,121.0,140.6,531.0,1736.0,5.0,
27300,1862.2,26.7,117.6,121.1,531.0,1736.0,5.0,
27400,1857.7,25.3,109.3,121.1,531.0,1736.0,5.0,
27500,1863.5,22.9,98.1,121.1,531.0,1736.0,5.0,
27600,1861.2,26.2,75.0,121.1,531.0,1736.0,5.0,
27700,1863.8,24.1,64.0,121.1,531.0,1736.0,5.0,
27900,1849.1,99.8,58.7,121.1,572.0,2193.0,5.0,
28000,1865.2,108.7,75.2,158.2,572.0,2193.0,5.0,
28100,1867.5,105.8,86.4,134.8,572.0,2193.0,5.0,
28200,1875.5,97.2,96.7,121.1,572.0,2193.0,5.0,
28300,1844.5,79.5,114.5,95.7,488.0,1803.0,5.0,
28400,1868.1,101.8,125.0,97.7,488.0,1803.0,5.0,
28500,1859.8,28.0,129.6,132.8,488.0,1803.0,5.0,
28600,1860.1,27.1,129.6,128.9,488.0,1803.0,5.0,
28700,1859.7,31.3,129.8,97.7,488.0,1803.0,5.0,
28900,1861.9,22.9,120.0,119.1,488.0,1803.0,5.0,
29000,1865.4,31.6,110.3,119.1,488.0,1803.0,5.0,
29100,1863.3,26.9,102.0,119.1,488.0,1803.0,5.0,
29200,1858.9,26.4,92.2,121.1,488.0,1803.0,5.0,
29300,1860.7,21.7,68.9,121.1,488.0,1803.0,5.0,
29400,1865.2,26.9,47.0,121.1,488.0,1803.0,5.0,
29500,1865.3,92.9,40.8,123.0,488.0,1803.0,5.0,
29600,1860.8,123.3,70.8,105.5,488.0,1803.0,5.0,
29700,1850.5,99.9,93.1,93.8,488.0,1803.0,5.0,
29900,1876.3,90.8,108.4,130.9,488.0,1803.0,5.0,
30000,1857.2,86.0,120.0,97.7,488.0,1803.0,5.0,
30100,1850.1,29.9,131.3,97.7,488.0,1803.0,5.0,
30200,1862.6,27.1,131.2,128.9,488.0,1803.0,5.0,
30300,1856.0,25.7,131.4,128.9,488.0,1803.0,5.0,
30400,1856.9,22.0,131.5,121.1,488.0,1803.0,5.0,
30500,1862.1,20.8,129.0,121.1,488.0,1803.0,5.0,
30600,1860.7,24.6,115.3,121.1,488.0,1803.0,5.0,
30700,1860.8,24.6,98.0,121.1,488.0,1803.0,5.0,
30900,1857.9,24.9,80.4,128.9,488.0,1803.0,5.0,
31000,1859.8,23.5,61.8,130.9,488.0,1803.0,5.0,
31100,1861.7,114.5,37.6,125.0,488.0,1803.0,5.0,
31200,1872.4,93.0,59.7,107.4,488.0,1803.0,5.0,
31300,1867.6,130.9,77.8,66.4,488.0,1803.0,5.0,
31400,1847.1,105.8,102.7,66.4,573.0,1816.0,5.0,
31500,1858.5,98.1,109.8,97.7,573.0,1816.0,5.0,
31600,1876.4,95.7,118.1,128.9,573.0,1816.0,5.0,
31700,1865.2,33.2,127.5,119.1,573.0,1816.0,5.0,
31900,1865.1,24.8,127.5,97.7,573.0,1816.0,5.0,
32000,1860.4,25.0,127.6,119.1,573.0,1816.0,5.0,
32100,1861.6,21.8,125.9,121.1,573.0,1816.0,5.0,
32200,1864.3,25.2,117.0,121.1,573.0,1816.0,5.0,
32300,1862.4,29.5,105.5,121.1,573.0,1816.0,5.0,
32400,1860.5,24.0,81.6,121.1,573.0,1816.0,5.0,
32500,1861.2,21.2,71.7,121.1,573.0,1816.0,5.0,
32600,1863.2,23.0,56.9,121.1,573.0,1816.0,5.0,
32700,1867.2,132.4,42.6,121.1,573.0,1816.0,5.0,
32900,1865.9,86.0,84.8,195.3,573.0,1816.0,5.0,
33000,1881.7,107.9,95.9,132.8,573.0,1816.0,5.0,
33100,1856.0,125.7,111.8,97.7,573.0,1816.0,5.0,
33200,1841.8,104.9,123.6,97.7,573.0,1816.0,5.0,
33300,1873.8,34.8,130.0,130.9,573.0,1816.0,5.0,
33400,1860.1,27.5,129.9,130.9,573.0,1816.0,5.0,
33500,1857.3,25.6,130.1,99.6,573.0,1816.0,5.0,
33600,1860.3,21.6,130.2,95.7,573.0,1816.0,5.0,
33700,1862.1,26.4,126.8,119.1,573.0,1816.0,5.0,
33900,1860.9,22.0,103.5,121.1,573.0,1816.0,5.0,
34000,1860.3,25.5,93.3,119.1,573.0,1816.0,5.0,
34100,1859.1,21.7,73.5,121.1,573.0,1816.0,5.0,
34200,1861.5,23.4,51.2,121.1,573.0,1816.0,5.0,
34300,1865.8,83.2,35.4,121.1,573.0,1816.0,5.0,
34400,1870.3,123.7,58.4,121.1,573.0,1816.0,5.0,
34500,1845.4,84.7,81.2,70.3,573.0,1816.0,5.0,
34600,1861.3,71.6,87.8,121.1,573.0,1816.0,5.0,
34700,1873.2,93.7,96.9,164.1,573.0,1816.0,5.0,
34900,1839.2,40.5,120.3,97.7,573.0,1816.0,5.0,
35000,1861.0,26.2,120.4,132.8,573.0,1816.0,5.0,
35100,1858.8,26.9,120.3,193.4,573.0,1816.0,5.0,
35200,1858.8,29.6,120.5,160.2,573.0,1816.0,5.0,
35300,1863.2,26.7,119.6,121.1,573.0,1816.0,5.0,
35400,1857.3,28.0,110.3,121.1,573.0,1816.0,5.0,
35500,1863.9,24.8,94.7,121.1,573.0,1816.0,5.0,
35600,1863.0,24.6,88.7,121.1,573.0,1816.0,5.0,
35700,1866.5,26.7,78.9,121.1,573.0,1816.0,5.0,
35900,1858.7,69.4,33.7,119.1,573.0,1816.0,5.0,
36000,1876.2,89.2,53.4,119.1,573.0,1816.0,5.0,
36100,1874.9,122.3,71.2,66.4,573.0,1816.0,5.0,
36200,1847.6,97.0,90.1,66.4,573.0,1816.0,5.0,
36300,1852.6,78.8,101.8,97.7,573.0,1816.0,5.0,
36400,1877.9,88.6,109.6,162.1,573.0,1816.0,5.0,
36500,1869.1,44.6,119.4,132.8,573.0,1816.0,5.0,
36600,1854.3,25.4,119.8,97.7,573.0,1816.0,5.0,
36700,1861.7,26.9,119.8,97.7,573.0,1816.0,5.0,
36900,1857.7,29.7,119.9,121.1,573.0,1816.0,5.0,
37000,1861.2,30.5,112.5,121.1,573.0,1816.0,5.0,
37100,1857.0,24.5,102.2,121.1,573.0,1816.0,5.0,
37200,1866.4,25.3,85.9,121.1,573.0,1816.0,5.0,
37300,1863.8,23.7,71.5,121.1,573.0,1816.0,5.0,
37400,1860.7,27.7,58.4,121.1,573.0,1816.0,5.0,
37500,1858.4,93.3,34.4,121.1,573.0,1816.0,5.0,
37600,1852.0,87.6,62.5,128.9,573.0,1816.0,5.0,
37700,1857.2,82.3,75.4,220.7,573.0,1816.0,5.0,
37900,1868.1,99.4,95.1,125.0,573.0,1816.0,5.0,
38000,1842.7,69.6,109.5,97.7,573.0,1816.0,5.0,
38100,1862.8,40.3,115.4,128.9,573.0,1816.0,5.0,
38200,1861.7,25.6,116.8,164.1,573.0,1816.0,5.0,
38300,1861.5,31.4,117.0,127.0,573.0,1816.0,5.0,
38400,1862.0,26.7,117.2,99.6,573.0,1816.0,5.0,
38500,1861.0,24.3,117.2,119.1,573.0,1816.0,5.0,
38600,1860.1,29.3,104.5,121.1,573.0,1816.0,5.0,
38700,1861.3,28.1,95.8,121.1,573.0,1816.0,5.0,
38900,1861.3,30.6,76.2,121.1,573.0,1816.0,5.0,
39000,1860.3,29.6,53.7,121.1,573.0,1816.0,5.0,
39100,1866.0,108.6,39.4,121.1,573.0,1816.0,5.0,
39200,1869.9,98.5,56.3,121.1,573.0,1816.0,5.0,
39300,1866.8,95.0,73.2,101.6,573.0,1816.0,5.0,
39400,1844.9,83.7,92.2,95.7,573.0,1816.0,5.0,
39500,1871.1,107.5,100.2,158.2,573.0,1816.0,5.0,
39600,1868.9,103.7,109.6,162.1,573.0,1816.0,5.0,
39700,1858.8,57.2,120.4,99.6,573.0,1816.0,5.0,
39900,1863.3,31.7,125.0,162.1,573.0,1816.0,5.0,
40000,1862.3,32.7,125.0,222.7,573.0,1816.0,5.0,
40100,1859.0,31.2,125.2,130.9,573.0,1816.0,5.0,
40200,1865.9,30.5,117.4,121.1,573.0,1816.0,5.0,
40300,1863.5,26.5,107.7,121.1,573.0,1816.0,5.0,
40400,1865.4,30.0,91.9,121.1,573.0,1816.0,5.0,
40500,1862.6,28.9,83.1,121.1,573.0,1816.0,5.0,
40600,1861.2,25.7,70.3,121.1,573.0,1816.0,5.0,
40700,1862.3,81.5,49.4,121.1,573.0,1816.0,5.0,
40900,1868.1,91.1,71.1,121.1,573.0,1816.0,5.0,
41000,1874.3,88.9,82.5,99.6,573.0,1816.0,5.0,
41100,1847.8,70.8,98.4,97.7,573.0,1816.0,5.0,
41200,1861.8,108.5,104.8,99.6,573.0,1816.0,5.0,
41300,1871.5,57.0,113.4,128.9,573.0,1816.0,5.0,
41400,1868.0,34.0,116.2,119.1,573.0,1816.0,5.0,
41500,1863.0,34.2,116.3,97.7,573.0,1816.0,5.0,
41600,1863.1,37.3,116.7,97.7,573.0,1816.0,5.0,
41700,1859.0,31.3,117.0,119.1,573.0,1816.0,5.0,
41900,1859.4,28.1,99.8,119.1,573.0,1816.0,5.0,
42000,1861.3,36.3,90.5,121.1,573.0,1816.0,5.0,
42100,1860.3,31.5,73.0,121.1,573.0,1816.0,5.0,
42200,1865.9,30.5,63.6,121.1,573.0,1816.0,5.0,
42300,1865.5,71.9,46.2,121.1,573.0,1816.0,5.0,
42400,1857.0,111.1,61.2,121.1,573.0,1816.0,5.0,
42500,1840.9,105.8,79.0,134.8,573.0,1816.0,5.0,
42600,1872.1,89.7,87.7,191.4,573.0,1816.0,5.0,
42700,1867.5,84.4,96.9,130.9,573.0,1816.0,5.0,
42900,1846.3,62.1,119.1,119.1,573.0,1816.0,5.0,
43000,1861.5,35.1,121.3,158.2,573.0,1816.0,5.0,
43100,1862.4,38.1,121.3,130.9,573.0,1816.0,5.0,
43200,1862.6,38.2,121.7,119.1,573.0,1816.0,5.0,
43300,1861.8,34.0,121.9,119.1,573.0,1816.0,5.0,
43400,1864.4,34.0,112.6,121.1,573.0,1816.0,5.0,
43500,1863.8,33.1,100.7,121.1,573.0,1816.0,5.0,
43600,1863.4,32.6,92.9,121.1,573.0,1816.0,5.0,
43700,1855.3,29.3,83.2,121.1,573.0,1816.0,5.0,
43900,1860.9,65.0,46.4,121.1,573.0,1816.0,5.0,
44000,1871.3,87.3,54.3,121.1,573.0,1816.0,5.0,
44100,1875.7,102.9,73.1,119.1,573.0,1816.0,5.0,
44200,1842.8,100.0,89.0,97.7,573.0,1816.0,5.0,
44300,1859.4,88.4,96.1,121.1,573.0,1816.0,5.0,
44400,1874.9,83.5,105.0,164.1,573.0,1816.0,5.0,
44500,1864.9,78.0,115.9,127.0,573.0,1816.0,5.0,
44600,1849.6,43.8,120.6,119.1,573.0,1816.0,5.0,
44700,1859.0,40.6,120.8,128.9,573.0,1816.0,5.0,
44900,1863.6,33.0,121.0,121.1,573.0,1816.0,5.0,
45000,1860.0,39.2,115.6,121.1,573.0,1816.0,5.0,
45100,1859.9,32.2,104.9,121.1,573.0,1816.0,5.0,
45200,1864.0,35.9,91.5,121.1,573.0,1816.0,5.0,
45300,1862.3,34.1,83.8,121.1,573.0,1816.0,5.0,
45400,1862.3,34.3,72.4,121.1,573.0,1816.0,5.0,
45500,1861.5,68.4,53.4,121.1,573.0,1816.0,5.0,
45600,1854.6,89.4,51.0,121.1,573.0,1816.0,5.0,
45700,1872.0,85.4,65.1,121.1,573.0,1816.0,5.0,
45900,1836.0,87.6,95.2,97.7,573.0,1816.0,5.0,
46000,1859.4,92.3,100.8,121.1,573.0,1816.0,5.0,
46100,1877.4,86.0,108.5,158.2,573.0,1816.0,5.0,
46200,1864.5,42.6,113.6,121.1,573.0,1816.0,5.0,
46300,1861.6,47.5,113.9,99.6,573.0,1816.0,5.0,
46400,1863.0,46.2,114.5,119.1,573.0,1816.0,5.0,
46500,1859.7,42.8,114.9,119.1,573.0,1816.0,5.0,
46600,1862.8,37.9,111.5,121.1,573.0,1816.0,5.0,
46700,1863.3,37.8,103.8,121.1,573.0,1816.0,5.0,
46900,1862.4,37.0,77.7,119.1,573.0,1816.0,5.0,
47000,1861.7,33.0,70.5,121.1,573.0,1816.0,5.0,
47100,1862.5,76.6,57.7,121.1,573.0,1816.0,5.0,
47200,1852.9,108.7,63.7,121.1,573.0,1816.0,5.0,
47300,1857.3,89.4,72.8,132.8,573.0,1816.0,5.0,
47400,1876.4,86.0,83.6,134.8,573.0,1816.0,5.0,
47500,1869.0,110.5,95.1,119.1,573.0,1816.0,5.0,
47600,1840.8,104.4,107.5,119.1,573.0,1816.0,5.0,
47700,1860.2,94.9,113.8,121.1,573.0,1816.0,5.0,
47900,1858.4,41.1,119.2,119.1,573.0,1816.0,5.0,
48000,1862.2,38.0,119.4,119.1,573.0,1816.0,5.0,
48100,1861.5,40.6,119.4,119.1,573.0,1816.0,5.0,
48200,1865.2,40.9,111.6,119.1,573.0,1816.0,5.0,
48300,1861.0,39.4,105.9,119.1,573.0,1816.0,5.0,
48400,1863.5,36.5,97.3,121.1,573.0,1816.0,5.0,
48500,1860.8,38.2,85.9,121.1,573.0,1816.0,5.0,
48600,1861.5,40.2,69.9,119.1,573.0,1816.0,5.0,
48700,1860.8,40.9,59.6,119.1,573.0,1816.0,5.0,
48900,1840.2,108.6,77.9,121.1,573.0,1816.0,5.0,
49000,1854.6,96.2,88.0,121.1,573.0,1816.0,5.0,
49100,1869.8,83.0,97.1,121.1,573.0,1816.0,5.0,
49200,1875.6,104.8,108.7,119.1,573.0,1816.0,5.0,
49300,1838.1,96.5,120.9,97.7,573.0,1816.0,5.0,
49400,1859.1,44.1,124.2,119.1,573.0,1816.0,5.0,
49500,1863.6,52.7,124.4,127.0,573.0,1816.0,5.0,
49600,1858.2,46.2,124.9,121.1,573.0,1816.0,5.0,
49700,1856.2,46.6,125.1,119.1,573.0,1816.0,5.0,
49900,1860.8,37.1,109.1,121.1,573.0,1816.0,5.0,
50000,1865.9,43.8,101.1,121.1,573.0,1816.0,5.0,
50100,1861.1,44.0,92.6,121.1,573.0,1816.0,5.0,
50200,1860.3,44.0,79.2,121.1,573.0,1816.0,5.0,
50300,1859.4,39.0,59.0,121.1,573.0,1816.0,5.0,
50400,1864.7,86.3,57.7,121.1,573.0,1816.0,5.0,
50500,1885.0,113.4,76.0,119.1,573.0,1816.0,5.0,
50600,1848.1,110.8,90.5,119.1,573.0,1816.0,5.0,
50700,1849.3,98.3,100.4,119.1,573.0,1816.0,5.0,
50900,1875.8,119.3,119.3,119.1,573.0,1816.0,5.0,
51000,1846.3,53.7,126.7,105.5,573.0,1816.0,5.0,
51100,1861.6,45.5,126.9,119.1,573.0,1816.0,5.0,
51200,1865.9,45.2,126.8,119.1,573.0,1816.0,5.0,
51300,1857.3,46.6,126.8,121.1,573.0,1816.0,5.0,
51400,1862.4,42.2,124.5,121.1,573.0,1816.0,5.0,
51500,1862.2,42.0,114.0,121.1,573.0,1816.0,5.0,
51600,1863.8,41.7,102.4,121.1,573.0,1816.0,5.0,
51700,1865.1,48.4,92.5,121.1,573.0,1816.0,5.0,
51900,1864.7,47.4,67.2,121.1,573.0,1816.0,5.0,
52000,1854.4,95.3,59.2,121.1,573.0,1816.0,5.0,
52100,1862.2,82.6,71.0,121.1,573.0,1816.0,5.0,
52200,1884.8,106.4,87.2,121.1,573.0,1816.0,5.0,
52300,1849.0,120.9,99.2,119.1,573.0,1816.0,5.0,
52400,1845.0,94.8,110.1,99.6,573.0,1816.0,5.0,
52500,1865.0,89.4,116.5,119.1,573.0,1816.0,5.0,
52600,1873.9,60.0,124.9,119.1,573.0,1816.0,5.0,
52700,1858.4,49.8,125.3,119.1,573.0,1816.0,5.0,
52900,1863.5,45.7,125.2,119.1,573.0,1816.0,5.0,
53000,1863.3,44.2,122.4,119.1,573.0,1816.0,5.0,
53100,1865.8,48.8,115.8,119.1,573.0,1816.0,5.0,
53200,1859.8,43.9,104.4,121.1,573.0,1816.0,5.0,
53300,1862.1,48.0,93.1,121.1,573.0,1816.0,5.0,
53400,1861.3,45.5,79.8,121.1,573.0,1816.0,5.0,
53500,1861.2,51.2,70.5,121.1,573.0,1816.0,5.0,
53600,1866.1,114.2,61.5,119.1,573.0,1816.0,5.0,
53700,1854.7,112.3,75.9,121.1,573.0,1816.0,5.0,
53900,1883.0,107.5,98.7,119.1,573.0,1816.0,5.0,
54000,1858.6,130.0,108.2,99.6,573.0,1816.0,5.0,
54100,1854.3,101.4,118.9,97.7,573.0,1816.0,5.0,
54200,1855.9,65.0,125.5,119.1,573.0,1816.0,5.0,
54300,1861.5,54.8,125.9,119.1,573.0,1816.0,5.0,
54400,1863.2,56.7,126.4,119.1,573.0,1816.0,5.0,
54500,1859.4,51.4,126.7,119.1,573.0,1816.0,5.0,
54600,1865.3,52.8,123.6,119.1,573.0,1816.0,5.0,
54700,1860.0,48.4,115.3,119.1,573.0,1816.0,5.0,
54900,1864.2,52.5,96.7,121.1,573.0,1816.0,5.0,
55000,1861.8,50.6,86.0,121.1,573.0,1816.0,5.0,
55100,1864.1,47.1,70.9,121.1,573.0,1816.0,5.0,
55200,1876.4,108.3,62.2,121.1,573.0,1816.0,5.0,
55300,1860.5,121.6,79.2,121.1,573.0,1816.0,5.0,
55400,1860.0,115.6,90.6,119.1,573.0,1816.0,5.0,
55500,1846.0,88.6,101.6,119.1,573.0,1816.0,5.0,
55600,1878.0,107.8,111.0,121.1,573.0,1816.0,5.0,
55700,1863.6,127.2,120.2,119.1,573.0,1816.0,5.0,
55900,1861.2,56.7,129.6,119.1,573.0,1816.0,5.0,
56000,1858.9,61.6,130.0,119.1,573.0,1816.0,5.0,
56100,1859.3,53.9,130.4,119.1,573.0,1816.0,5.0,
56200,1862.1,52.6,129.0,119.1,573.0,1816.0,5.0,
56300,1863.0,55.1,119.1,119.1,573.0,1816.0,5.0,
56400,1863.7,55.1,110.5,119.1,573.0,1816.0,5.0,
56500,1862.2,49.6,100.6,121.1,573.0,1816.0,5.0,
56600,1865.0,52.2,90.4,121.1,573.0,1816.0,5.0,
56700,1860.5,53.6,78.0,121.1,573.0,1816.0,5.0,
56900,1867.7,111.2,74.0,121.1,573.0,1816.0,5.0,
57000,1858.1,110.4,87.4,121.1,573.0,1816.0,5.0,
57100,1865.6,116.6,96.7,119.1,573.0,1816.0,5.0,
57200,1839.1,98.4,107.7,119.1,573.0,1816.0,5.0,
57300,1874.6,108.6,115.5,121.1,573.0,1816.0,5.0,
57400,1860.2,68.6,124.4,121.1,573.0,1816.0,5.0,
57500,1862.4,57.9,124.8,119.1,573.0,1816.0,5.0,
57600,1859.2,56.4,125.2,119.1,573.0,1816.0,5.0,
57700,1861.9,60.3,125.4,119.1,573.0,1816.0,5.0,
57900,1863.3,51.2,119.4,119.1,573.0,1816.0,5.0,
58000,1864.7,51.9,109.6,119.1,573.0,1816.0,5.0,
58100,1860.5,51.6,101.2,119.1,573.0,1816.0,5.0,
58200,1862.8,51.2,89.4,121.1,573.0,1816.0,5.0,
58300,1864.9,53.6,79.3,121.1,573.0,1816.0,5.0,
58400,1867.9,97.1,65.1,119.1,573.0,1816.0,5.0,
58500,1841.3,99.7,80.3,121.1,573.0,1816.0,5.0,
58600,1872.4,107.2,90.3,121.1,573.0,1816.0,5.0,
58700,1862.1,111.3,101.1,121.1,573.0,1816.0,5.0,
58900,1846.5,100.7,118.9,119.1,573.0,1816.0,5.0,
59000,1873.7,68.5,129.0,119.1,573.0,1816.0,5.0,
59100,1854.2,62.9,129.9,119.1,573.0,1816.0,5.0,
59200,1860.5,65.4,130.4,119.1,573.0,1816.0,5.0,
59300,1856.7,59.0,130.9,119.1,573.0,1816.0,5.0,
59400,1859.4,62.5,131.1,119.1,573.0,1816.0,5.0,
59500,1859.0,58.7,122.2,121.1,573.0,1816.0,5.0,
59600,1862.5,57.4,115.0,121.1,573.0,1816.0,5.0,
59700,1864.1,56.2,105.5,121.1,573.0,1816.0,5.0,
59900,1861.0,59.5,84.5,121.1,573.0,1816.0,5.0,
60000,1861.5,99.2,68.6,119.1,573.0,1816.0,5.0,
60100,1866.8,103.4,80.9,121.1,573.0,1816.0,5.0,
60200,1846.2,99.5,93.1,121.1,573.0,1816.0,5.0,
60300,1870.2,116.3,101.2,121.1,573.0,1816.0,5.0,
60400,1857.6,105.9,111.5,119.1,573.0,1816.0,5.0,
60500,1863.0,110.7,120.2,119.1,573.0,1816.0,5.0,
60600,1844.3,73.3,127.8,119.1,573.0,1816.0,5.0,
60700,1864.4,67.5,129.9,119.1,573.0,1816.0,5.0,
60900,1860.1,55.3,131.1,119.1,573.0,1816.0,5.0,
61000,1859.4,56.7,131.3,121.1,573.0,1816.0,5.0,
61100,1862.0,55.8,123.3,121.1,573.0,1816.0,5.0,
61200,1863.4,54.2,113.8,119.1,573.0,1816.0,5.0,
61300,1862.8,58.2,106.4,119.1,573.0,1816.0,5.0,
61400,1861.9,63.7,95.4,119.1,573.0,1816.0,5.0,
61500,1862.8,60.1,84.3,119.1,573.0,1816.0,5.0,
61600,1861.9,105.2,72.7,121.1,573.0,1816.0,5.0,
61700,1873.3,119.8,81.9,121.1,573.0,1816.0,5.0,
61900,1844.3,99.6,105.3,121.1,573.0,1816.0,5.0,
62000,1866.5,123.9,113.3,119.1,573.0,1816.0,5.0,
62100,1863.4,121.3,123.6,119.1,573.0,1816.0,5.0,
62200,1862.6,92.9,132.3,119.1,573.0,1816.0,5.0,
62300,1854.4,69.6,136.6,119.1,573.0,1816.0,5.0,
62400,1861.4,67.1,137.1,119.1,573.0,1816.0,5.0,
62500,1861.5,66.8,137.5,119.1,573.0,1816.0,5.0,
62600,1861.2,62.1,137.7,119.1,573.0,1816.0,5.0,
62700,1862.6,60.3,130.9,121.1,573.0,1816.0,5.0,
62900,1861.2,63.6,112.1,121.1,573.0,1816.0,5.0,
63000,1861.1,58.3,104.5,121.1,573.0,1816.0,5.0,
63100,1858.5,60.3,92.5,121.1,573.0,1816.0,5.0,
63200,1865.8,104.0,80.2,121.1,573.0,1816.0,5.0,
63300,1855.2,120.0,85.2,119.1,573.0,1816.0,5.0,
63400,1857.5,118.6,93.5,121.1,573.0,1816.0,5.0,
63500,1876.4,106.0,105.9,121.1,573.0,1816.0,5.0,
63600,1853.5,109.3,116.0,119.1,573.0,1816.0,5.0,
63700,1858.9,122.8,124.4,119.1,573.0,1816.0,5.0,
63900,1864.0,76.8,136.4,119.1,573.0,1816.0,5.0,
64000,1862.2,63.3,136.8,119.1,573.0,1816.0,5.0,
64100,1858.8,67.2,137.1,119.1,573.0,1816.0,5.0,
64200,1859.8,67.9,137.3,119.1,573.0,1816.0,5.0,
64300,1861.2,69.4,130.5,119.1,573.0,1816.0,5.0,
64400,1859.9,64.9,124.5,119.1,573.0,1816.0,5.0,
64500,1864.7,63.8,114.1,119.1,573.0,1816.0,5.0,
64600,1864.6,60.4,103.6,119.1,573.0,1816.0,5.0,
64700,1863.8,66.9,93.5,119.1,573.0,1816.0,5.0,
64900,1868.7,121.8,86.5,121.1,573.0,1816.0,5.0,
65000,1847.1,115.0,97.3,121.1,573.0,1816.0,5.0,
65100,1855.9,115.8,103.7,121.1,573.0,1816.0,5.0,
65200,1876.3,104.6,113.6,119.1,573.0,1816.0,5.0,
65300,1861.7,116.8,123.2,119.1,573.0,1816.0,5.0,
65400,1853.3,95.7,131.7,119.1,573.0,1816.0,5.0,
65500,1852.1,81.0,134.7,119.1,573.0,1816.0,5.0,
65600,1861.6,73.5,135.3,119.1,573.0,1816.0,5.0,
65700,1861.0,71.2,135.7,119.1,573.0,1816.0,5.0,
65900,1862.2,74.0,129.6,119.1,573.0,1816.0,5.0,
66000,1861.4,65.0,121.6,119.1,573.0,1816.0,5.0,
66100,1861.7,67.5,116.1,121.1,573.0,1816.0,5.0,
66200,1858.3,66.3,106.8,121.1,573.0,1816.0,5.0,
66300,1860.4,67.0,95.6,119.1,573.0,1816.0,5.0,
66400,1864.6,101.9,83.4,119.1,573.0,1816.0,5.0,
66500,1864.4,100.9,87.3,119.1,573.0,1816.0,5.0,
66600,1876.6,119.4,99.7,121.1,573.0,1816.0,5.0,
66700,1853.0,120.8,109.0,121.1,573.0,1816.0,5.0,
66900,1872.1,105.2,123.7,121.1,573.0,1816.0,5.0,
67000,1857.9,103.6,131.8,119.1,573.0,1816.0,5.0,
67100,1856.1,81.0,136.6,119.1,573.0,1816.0,5.0,
67200,1855.4,77.9,137.1,119.1,573.0,1816.0,5.0,
67300,1858.6,74.9,137.8,121.1,573.0,1816.0,5.0,
67400,1858.8,64.6,138.3,119.1,573.0,1816.0,5.0,
67500,1862.2,68.6,133.1,119.1,573.0,1816.0,5.0,
67600,1864.0,67.5,123.8,121.1,573.0,1816.0,5.0,
67700,1861.5,71.5,115.7,119.1,573.0,1816.0,5.0,
67900,1862.9,73.2,100.4,121.1,573.0,1816.0,5.0,
68000,1862.9,108.6,89.6,121.1,573.0,1816.0,5.0,
68100,1850.8,118.0,86.9,119.1,573.0,1816.0,5.0,
68200,1871.0,115.2,95.5,121.1,573.0,1816.0,5.0,
68300,1878.2,128.2,107.9,121.1,573.0,1816.0,5.0,
68400,1851.9,132.4,117.2,119.1,573.0,1816.0,5.0,
68500,1843.4,122.1,124.7,119.1,573.0,1816.0,5.0,
68600,1871.6,111.7,133.1,119.1,573.0,1816.0,5.0,
68700,1865.6,84.1,138.9,119.1,573.0,1816.0,5.0,
68900,1858.4,85.3,140.0,119.1,573.0,1816.0,5.0,
69000,1860.1,75.8,140.6,119.1,573.0,1816.0,5.0,
69100,1856.4,79.1,138.1,121.1,573.0,1816.0,5.0,
69200,1858.9,68.0,132.4,121.1,573.0,1816.0,5.0,
69300,1861.0,78.1,121.9,119.1,573.0,1816.0,5.0,
69400,1855.9,70.2,113.0,121.1,573.0,1816.0,5.0,
69500,1862.1,68.5,104.9,121.1,573.0,1816.0,5.0,
69600,1861.7,91.5,94.2,119.1,573.0,1816.0,5.0,
69700,1863.2,135.5,92.1,121.1,573.0,1816.0,5.0,
69900,1871.0,122.5,110.4,121.1,573.0,1816.0,5.0,
70000,1876.2,130.3,122.9,119.1,573.0,1816.0,5.0,
70100,1858.1,144.3,131.2,119.1,573.0,1816.0,5.0,
70200,1838.3,131.3,139.1,119.1,573.0,1816.0,5.0,
70300,1862.8,82.8,143.7,119.1,573.0,1816.0,5.0,
70400,1862.3,85.8,144.2,119.1,573.0,1816.0,5.0,
70500,1860.8,77.0,144.9,119.1,573.0,1816.0,5.0,
70600,1857.7,77.8,145.3,119.1,573.0,1816.0,5.0,
70700,1856.2,74.2,141.5,121.1,573.0,1816.0,5.0,
70900,1861.7,81.4,127.0,119.1,573.0,1816.0,5.0,
71000,1857.9,73.1,114.9,119.1,573.0,1816.0,5.0,
71100,1866.6,73.4,105.2,119.1,573.0,1816.0,5.0,
71200,1864.4,75.5,94.1,121.1,573.0,1816.0,5.0,
71300,1872.2,130.7,92.6,121.1,573.0,1816.0,5.0,
71400,1866.0,129.7,105.3,121.1,573.0,1816.0,5.0,
71500,1850.2,131.0,113.8,121.1,573.0,1816.0,5.0,
71600,1854.7,127.6,121.3,121.1,573.0,1816.0,5.0,
71700,1878.6,127.9,133.6,119.1,573.0,1816.0,5.0,
71900,1848.5,89.1,148.3,119.1,573.0,1816.0,5.0,
72000,1861.3,91.0,148.7,119.1,573.0,1816.0,5.0,
72100,1855.9,84.6,149.8,119.1,573.0,1816.0,5.0,
72200,1858.8,84.5,150.5,119.1,573.0,1816.0,5.0,
72300,1855.9,79.4,147.9,119.1,573.0,1816.0,5.0,
72400,1865.8,79.8,138.9,119.1,573.0,1816.0,5.0,
72500,1859.4,70.9,131.8,121.1,573.0,1816.0,5.0,
72600,1862.8,77.3,124.7,121.1,573.0,1816.0,5.0,
72700,1859.6,79.0,111.4,119.1,573.0,1816.0,5.0,
72900,1854.7,111.2,93.1,121.1,573.0,1816.0,5.0,
73000,1876.1,143.5,104.1,119.1,573.0,1816.0,5.0,
73100,1866.1,130.2,117.0,119.1,573.0,1816.0,5.0,
73200,1855.1,137.9,125.3,119.1,573.0,1816.0,5.0,
73300,1855.9,125.8,131.4,119.1,573.0,1816.0,5.0,
73400,1872.2,143.4,142.1,119.1,573.0,1816.0,5.0,
73500,1858.5,88.5,149.7,119.1,573.0,1816.0,5.0,
73600,1862.8,93.7,150.6,119.1,573.0,1816.0,5.0,
73700,1855.5,89.4,151.7,119.1,573.0,1816.0,5.0,
73900,1862.7,78.9,151.2,119.1,573.0,1816.0,5.0,
74000,1864.3,82.6,143.6,119.1,573.0,1816.0,5.0,
74100,1861.4,79.5,132.6,119.1,573.0,1816.0,5.0,
74200,1865.9,85.7,124.7,119.1,573.0,1816.0,5.0,
74300,1856.6,84.2,118.3,119.1,573.0,1816.0,5.0,
74400,1861.7,85.6,105.6,119.1,573.0,1816.0,5.0,
74500,1862.7,117.4,98.4,121.1,573.0,1816.0,5.0,
74600,1854.2,113.6,106.9,121.1,573.0,1816.0,5.0,
74700,1864.1,134.6,112.7,121.1,573.0,1816.0,5.0,
74900,1860.1,137.6,134.6,119.1,573.0,1816.0,5.0,
75000,1848.6,125.9,141.9,119.1,573.0,1816.0,5.0,
75100,1862.0,88.5,148.5,119.1,573.0,1816.0,5.0,
75200,1862.6,87.8,149.0,119.1,573.0,1816.0,5.0,
75300,1863.7,92.2,149.0,119.1,573.0,1816.0,5.0,
75400,1853.6,83.1,149.9,119.1,573.0,1816.0,5.0,
75500,1865.6,80.4,147.6,119.1,573.0,1816.0,5.0,
75600,1860.8,85.8,141.3,121.1,573.0,1816.0,5.0,
75700,1861.8,85.1,135.9,121.1,573.0,1816.0,5.0,
75900,1863.7,82.8,114.5,119.1,573.0,1816.0,5.0,
76000,1861.7,84.9,105.7,119.1,573.0,1816.0,5.0,
76100,1866.4,134.3,100.2,121.1,573.0,1816.0,5.0,
76200,1865.5,119.1,112.4,121.1,573.0,1816.0,5.0,
76300,1857.6,113.7,119.3,121.1,573.0,1816.0,5.0,
76400,1857.5,149.8,126.0,121.1,573.0,1816.0,5.0,
76500,1867.8,139.2,137.9,119.1,573.0,1816.0,5.0,
76600,1856.0,142.3,146.7,119.1,573.0,1816.0,5.0,
76700,1854.1,100.8,153.8,119.1,573.0,1816.0,5.0,
76900,1859.1,89.1,155.0,119.1,573.0,1816.0,5.0,
77000,1861.8,92.9,155.4,119.1,573.0,1816.0,5.0,
77100,1855.1,86.0,153.4,119.1,573.0,1816.0,5.0,
77200,1864.3,79.6,144.3,119.1,573.0,1816.0,5.0,
77300,1866.5,86.7,138.3,119.1,573.0,1816.0,5.0,
77400,1859.0,90.0,131.4,121.1,573.0,1816.0,5.0,
77500,1862.5,87.3,119.1,119.1,573.0,1816.0,5.0,
77600,1864.2,84.5,108.6,119.1,573.0,1816.0,5.0,
77700,1874.3,123.2,98.9,121.1,573.0,1816.0,5.0,
77900,1870.1,128.7,121.0,119.1,573.0,1816.0,5.0,
78000,1862.0,130.6,129.3,119.1,573.0,1816.0,5.0,
78100,1851.6,150.1,136.5,119.1,573.0,1816.0,5.0,
78200,1865.6,138.7,146.8,119.1,573.0,1816.0,5.0,
78300,1865.1,105.5,155.6,119.1,573.0,1816.0,5.0,
78400,1858.8,98.9,156.4,119.1,573.0,1816.0,5.0,
78500,1860.8,95.1,157.4,119.1,573.0,1816.0,5.0,
78600,1856.5,90.1,157.7,119.1,573.0,1816.0,5.0,
78700,1859.8,84.7,157.9,119.1,573.0,1816.0,5.0,
78900,1864.3,91.3,140.8,121.1,573.0,1816.0,5.0,
79000,1859.8,88.8,133.3,121.1,573.0,1816.0,5.0,
79100,1862.8,91.0,125.8,119.1,573.0,1816.0,5.0,
79200,1864.8,86.3,113.7,119.1,573.0,1816.0,5.0,
79300,1860.5,107.5,101.6,119.1,573.0,1816.0,5.0,
79400,1856.0,132.9,110.4,121.1,573.0,1816.0,5.0,
79500,1862.2,140.5,118.2,121.1,573.0,1816.0,5.0,
79600,1870.1,142.1,129.1,119.1,573.0,1816.0,5.0,
79700,1857.3,134.6,137.8,119.1,573.0,1816.0,5.0,
79900,1861.3,106.5,156.9,119.1,573.0,1816.0,5.0,
80000,1857.8,104.5,157.6,119.1,573.0,1816.0,5.0,
80100,1862.1,94.5,158.4,119.1,573.0,1816.0,5.0,
80200,1857.0,94.5,159.2,121.1,573.0,1816.0,5.0,
80300,1858.6,91.0,159.6,121.1,573.0,1816.0,5.0,
80400,1863.7,85.9,153.3,121.1,573.0,1816.0,5.0,
80500,1860.3,94.1,146.5,119.1,573.0,1816.0,5.0,
80600,1864.0,91.8,137.2,119.1,573.0,1816.0,5.0,
80700,1861.6,94.7,128.5,119.1,573.0,1816.0,5.0,
80900,1861.8,129.1,105.1,119.1,573.0,1816.0,5.0,
81000,1869.7,129.6,117.3,121.1,573.0,1816.0,5.0,
81100,1861.6,133.4,127.9,121.1,573.0,1816.0,5.0,
81200,1845.4,156.0,135.7,119.1,573.0,1816.0,5.0,
81300,1868.3,144.9,147.0,119.1,573.0,1816.0,5.0,
81400,1863.5,135.7,156.3,119.1,573.0,1816.0,5.0,
81500,1852.1,117.2,163.8,119.1,573.0,1816.0,5.0,
81600,1854.7,105.7,166.6,119.1,573.0,1816.0,5.0,
81700,1861.1,107.2,167.3,119.1,573.0,1816.0,5.0,
81900,1858.6,96.0,167.8,119.1,573.0,1816.0,5.0,
82000,1861.5,96.0,159.2,119.1,573.0,1816.0,5.0,
82100,1859.4,94.4,150.3,119.1,573.0,1816.0,5.0,
82200,1861.4,94.4,142.9,119.1,573.0,1816.0,5.0,
82300,1861.3,91.9,131.4,121.1,573.0,1816.0,5.0,
82400,1861.5,100.6,120.2,121.1,573.0,1816.0,5.0,
82500,1862.8,160.8,110.5,121.1,573.0,1816.0,5.0,
82600,1869.8,143.9,118.3,121.1,573.0,1816.0,5.0,
82700,1872.4,135.2,129.3,119.1,573.0,1816.0,5.0,
82900,1842.0,159.5,146.4,119.1,573.0,1816.0,5.0,
83000,1869.9,150.2,157.1,119.1,573.0,1816.0,5.0,
83100,1867.0,122.4,166.3,119.1,573.0,1816.0,5.0,
83200,1857.5,112.9,169.3,119.1,573.0,1816.0,5.0,
83300,1861.2,108.3,170.5,119.1,573.0,1816.0,5.0,
83400,1862.0,102.7,171.2,119.1,573.0,1816.0,5.0,
83500,1862.4,100.2,171.5,119.1,573.0,1816.0,5.0,
83600,1865.8,102.4,163.4,121.1,573.0,1816.0,5.0,
83700,1858.4,99.6,154.8,121.1,573.0,1816.0,5.0,
83900,1865.0,97.5,139.0,121.1,573.0,1816.0,5.0,
84000,1861.0,97.0,127.1,119.1,573.0,1816.0,5.0,
84100,1866.1,136.2,114.7,119.1,573.0,1816.0,5.0,
84200,1848.1,178.9,118.4,121.1,573.0,1816.0,5.0,
84300,1865.3,156.3,130.6,119.1,573.0,1816.0,5.0,
84400,1865.5,142.9,141.9,119.1,573.0,1816.0,5.0,
84500,1856.1,139.7,152.3,119.1,573.0,1816.0,5.0,
84600,1846.3,171.3,159.3,119.1,573.0,1816.0,5.0,
84700,1870.8,123.0,170.4,119.1,573.0,1816.0,5.0,
84900,1861.9,108.4,174.9,119.1,573.0,1816.0,5.0,
85000,1858.2,108.3,175.4,119.1,573.0,1816.0,5.0,
85100,1860.2,107.0,176.0,119.1,573.0,1816.0,5.0,
85200,1853.8,106.7,171.4,119.1,573.0,1816.0,5.0,
85300,1859.5,103.1,162.0,119.1,573.0,1816.0,5.0,
85400,1863.4,102.8,152.0,119.1,573.0,1816.0,5.0,
85500,1862.7,103.0,141.9,119.1,573.0,1816.0,5.0,
85600,1861.9,104.2,134.5,121.1,573.0,1816.0,5.0,
85700,1860.5,131.4,120.4,121.1,573.0,1816.0,5.0,
85900,1831.1,170.0,131.7,119.1,573.0,1816.0,5.0,
86000,1867.5,152.0,141.6,119.1,573.0,1816.0,5.0,
86100,1871.5,150.3,150.6,119.1,573.0,1816.0,5.0,
86200,1862.1,143.3,160.9,119.1,573.0,1816.0,5.0,
86300,1847.4,130.2,166.6,119.1,573.0,1816.0,5.0,
86400,1868.2,122.3,170.4,119.1,573.0,1816.0,5.0,
86500,1859.5,121.4,171.5,119.1,573.0,1816.0,5.0,
86600,1858.3,113.3,172.5,119.1,573.0,1816.0,5.0,
86700,1861.3,113.3,173.0,119.1,573.0,1816.0,5.0,
86900,1862.8,107.2,161.1,119.1,573.0,1816.0,5.0,
87000,1863.7,102.7,152.4,119.1,573.0,1816.0,5.0,
87100,1861.2,98.2,143.2,121.1,573.0,1816.0,5.0,
87200,1866.5,90.3,130.3,121.1,573.0,1816.0,5.0,
87300,1858.5,133.2,121.7,121.1,573.0,1816.0,5.0,
87400,1864.0,135.3,124.1,119.1,573.0,1816.0,5.0,
87500,1863.5,222.0,131.9,119.1,573.0,1816.0,5.0,
87600,1934.5,171.5,142.9,119.1,573.0,1816.0,5.0,
87700,1825.3,170.3,150.3,119.1,573.0,1816.0,5.0,
87900,1846.3,111.0,164.9,119.1,573.0,1816.0,5.0,
88000,1858.8,79.2,165.7,119.1,573.0,1816.0,5.0,
88100,1862.2,95.2,164.8,119.1,573.0,1816.0,5.0,
88200,1853.7,90.7,165.0,119.1,573.0,1816.0,5.0,
88300,1861.5,90.2,165.0,119.1,573.0,1816.0,5.0,
88400,1864.0,92.1,158.5,121.1,573.0,1816.0,5.0,
88500,1866.2,91.1,149.9,121.1,573.0,1816.0,5.0,
88600,1854.7,94.7,137.2,119.1,573.0,1816.0,5.0,
88700,1918.2,39.0,127.1,121.1,573.0,1816.0,5.0,
88900,1857.5,64.0,94.9,121.1,573.0,1816.0,5.0,
89000,1890.7,154.6,93.7,119.1,573.0,1816.0,5.0,
89100,2015.8,125.9,110.1,66.4,573.0,1816.0,5.0,
89200,1915.9,31.4,113.9,66.4,573.0,1816.0,5.0,
89300,1858.2,95.7,110.3,68.4,573.0,1816.0,5.0,
89400,1860.3,138.6,112.2,95.7,573.0,1816.0,5.0,
89500,1768.7,112.0,120.1,97.7,573.0,1816.0,5.0,
89600,1796.3,39.2,127.5,68.4,573.0,1816.0,5.0,
89700,1834.7,28.4,124.0,93.8,573.0,1816.0,5.0,
89900,1860.3,24.9,123.9,119.1,573.0,1816.0,5.0,
90000,1843.0,22.7,118.9,175.8,573.0,1816.0,5.0,
90100,1853.4,20.9,99.6,189.5,573.0,1816.0,5.0,
90200,1857.4,17.9,89.4,197.3,573.0,1816.0,5.0,
90300,1858.9,17.6,88.5,199.2,573.0,1816.0,5.0,
90400,1859.1,19.5,80.3,199.2,573.0,1816.0,5.0,
90500,1863.1,60.5,60.2,199.2,573.0,1816.0,5.0,
90600,1855.0,90.8,42.9,179.7,573.0,1816.0,5.0,
90700,1870.3,83.7,57.5,125.0,573.0,1816.0,5.0,
90900,1856.3,96.9,89.3,66.4,573.0,1816.0,5.0,
91000,1852.5,106.6,98.1,95.7,573.0,1816.0,5.0,
91100,1873.3,93.3,106.8,97.7,573.0,1816.0,5.0,
91200,1869.8,21.8,112.1,95.7,573.0,1816.0,5.0,
91300,1862.8,21.7,112.0,66.4,573.0,1816.0,5.0,
91400,1861.8,23.9,112.1,66.4,573.0,1816.0,5.0,
91500,1857.7,18.7,112.3,68.4,573.0,1816.0,5.0,
91600,1865.0,23.5,107.8,119.1,573.0,1816.0,5.0,
91700,1860.5,22.0,100.5,119.1,573.0,1816.0,5.0,
91900,1863.0,18.5,72.8,179.7,573.0,1816.0,5.0,
92000,1863.3,18.5,60.1,169.9,573.0,1816.0,5.0,
92100,1865.2,53.3,42.4,181.6,573.0,1816.0,5.0,
92200,1856.6,109.4,53.2,162.1,573.0,1816.0,5.0,
92300,1852.5,101.3,70.4,134.8,573.0,1816.0,5.0,
92400,1879.7,86.4,82.8,99.6,573.0,1816.0,5.0,
92500,1856.7,106.1,96.8,97.7,573.0,1816.0,5.0,
92600,1856.5,97.3,111.7,66.4,573.0,1816.0,5.0,
92700,1858.5,110.8,120.3,97.7,573.0,1816.0,5.0,
92900,1860.8,18.9,125.9,84.0,573.0,1816.0,5.0,
93000,1861.0,17.8,125.9,66.4,573.0,1816.0,5.0,
93100,1861.0,21.6,126.0,66.4,573.0,1816.0,5.0,
93200,1859.6,18.6,117.0,130.9,573.0,1816.0,5.0,
93300,1858.6,22.5,107.6,140.6,573.0,1816.0,5.0,
93400,1859.8,20.5,98.4,138.7,573.0,1816.0,5.0,
93500,1863.9,20.4,84.7,175.8,573.0,1816.0,5.0,
93600,1860.1,21.3,63.7,179.7,573.0,1816.0,5.0,
93700,1861.7,18.0,45.3,173.8,573.0,1816.0,5.0,
93900,1853.3,114.1,68.2,127.0,573.0,1816.0,5.0,
94000,1840.0,102.7,83.2,121.1,573.0,1816.0,5.0,
94100,1873.4,89.2,93.4,128.9,573.0,1816.0,5.0,
94200,1866.5,119.4,105.8,97.7,573.0,1816.0,5.0,
94300,1859.9,102.6,122.9,66.4,573.0,1816.0,5.0,
94400,1855.6,25.2,128.6,95.7,573.0,1816.0,5.0,
94500,1860.6,21.9,128.5,97.7,573.0,1816.0,5.0,
94600,1859.3,21.1,128.5,97.7,573.0,1816.0,5.0,
94700,1862.2,22.0,128.5,74.2,573.0,1816.0,5.0,
94900,1864.6,17.4,112.1,146.5,573.0,1816.0,5.0,
95000,1867.3,21.3,101.5,148.4,573.0,1816.0,5.0,
95100,1866.1,22.4,92.1,148.4,573.0,1816.0,5.0,
95200,1860.5,19.3,77.5,134.8,573.0,1816.0,5.0,
95300,1865.4,21.8,46.0,123.0,573.0,1816.0,5.0,
95400,1864.4,92.5,34.6,128.9,573.0,1816.0,5.0,
95500,1879.8,90.9,59.6,70.3,573.0,1816.0,5.0,
95600,1864.1,120.7,77.4,66.4,573.0,1816.0,5.0,
95700,1838.2,99.7,94.6,66.4,573.0,1816.0,5.0,
95900,1874.0,103.1,111.4,97.7,573.0,1816.0,5.0,
96000,1850.7,26.6,122.0,95.7,573.0,1816.0,5.0,
96100,1863.3,21.7,121.9,66.4,573.0,1816.0,5.0,
96200,1860.7,17.0,122.0,97.7,573.0,1816.0,5.0,
96300,1862.3,20.1,121.9,119.1,573.0,1816.0,5.0,
96400,1863.1,20.5,119.8,168.0,573.0,1816.0,5.0,
96500,1864.0,17.1,109.6,134.8,573.0,1816.0,5.0,
96600,1864.2,23.0,97.7,160.2,573.0,1816.0,5.0,
96700,1858.1,18.9,81.3,179.7,573.0,1816.0,5.0,
96900,1863.7,21.4,55.9,173.8,573.0,1816.0,5.0,
97000,1856.3,101.6,43.8,179.7,573.0,1816.0,5.0,
97100,1854.0,76.0,60.8,189.5,573.0,1816.0,5.0,
97200,1882.8,83.6,72.7,119.1,573.0,1816.0,5.0,
97300,1868.7,125.5,84.6,97.7,573.0,1816.0,5.0,
97400,1844.6,92.3,100.7,66.4,573.0,1816.0,5.0,
97500,1865.7,81.7,107.4,95.7,573.0,1816.0,5.0,
97600,1881.3,25.1,114.3,97.7,573.0,1816.0,5.0,
97700,1867.5,20.0,114.1,95.7,573.0,1816.0,5.0,
97900,1869.8,21.4,114.2,66.4,573.0,1816.0,5.0,
98000,1869.3,21.9,108.6,119.1,573.0,1816.0,5.0,
98100,1864.2,19.1,100.1,121.1,573.0,1816.0,5.0,
98200,1860.6,26.9,91.9,134.8,573.0,1816.0,5.0,
98300,1862.4,22.7,81.3,127.0,573.0,1816.0,5.0,
98400,1860.8,20.9,60.3,121.1,573.0,1816.0,5.0,
98500,1860.3,23.3,47.2,119.1,573.0,1816.0,5.0,
98600,1866.2,119.4,34.4,121.1,573.0,1816.0,5.0,
98700,1843.0,93.1,63.1,121.1,573.0,1816.0,5.0,
98900,1873.8,104.9,85.6,99.6,573.0,1816.0,5.0,
99000,1854.3,143.5,103.9,95.7,573.0,1816.0,5.0,
99100,1834.0,116.5,120.2,66.4,573.0,1816.0,5.0,
99200,1874.5,37.9,128.4,97.7,573.0,1816.0,5.0,
99300,1862.0,25.4,128.3,97.7,573.0,1816.0,5.0,
99400,1861.4,24.5,128.4,87.9,573.0,1816.0,5.0,
99500,1861.7,23.1,128.5,66.4,573.0,1816.0,5.0,
99600,1861.5,22.7,126.7,119.1,573.0,1816.0,5.0,
99700,1864.7,23.1,115.3,173.8,573.0,1816.0,5.0,
99900,1859.1,17.7,99.8,121.1,573.0,1816.0,5.0,
100000,1862.6,22.0,80.7,125.0,573.0,1816.0,5.0,
100100,1862.6,20.8,53.3,128.9,573.0,1816.0,5.0,
100200,1869.1,89.7,32.2,130.9,573.0,1816.0,5.0,
100300,1860.7,143.8,60.9,119.1,543.0,1963.0,5.0,
100400,1840.8,102.2,88.7,66.4,543.0,1963.0,5.0,
100500,1864.2,96.2,98.4,97.7,543.0,1963.0,5.0,
100600,1879.0,119.3,108.8,97.7,543.0,1963.0,5.0,
100700,1852.7,131.0,127.5,95.7,543.0,1963.0,5.0,
100900,1865.7,23.4,138.4,97.7,543.0,1963.0,5.0,
101000,1857.8,25.4,138.5,97.7,543.0,1963.0,5.0,
101100,1860.4,19.5,138.5,97.7,543.0,1963.0,5.0,
101200,1858.0,22.2,137.7,119.1,543.0,1963.0,5.0,
101300,1860.5,24.6,127.6,121.1,543.0,1963.0,5.0,
101400,1856.8,23.4,110.1,121.1,543.0,1963.0,5.0,
101500,1863.2,21.2,101.5,121.1,543.0,1963.0,5.0,
101600,1862.8,23.8,90.2,128.9,543.0,1963.0,5.0,
101700,1859.9,17.0,60.9,138.7,543.0,1963.0,5.0,
101900,1881.2,94.6,54.5,119.1,543.0,1963.0,5.0,
102000,1855.0,137.5,74.5,66.4,543.0,1963.0,5.0,
102100,1844.6,96.2,94.6,66.4,543.0,1963.0,5.0,
102200,1869.3,91.2,103.1,97.7,543.0,1963.0,5.0,
102300,1872.7,108.8,112.2,97.7,543.0,1963.0,5.0,
102400,1851.4,44.3,126.6,95.7,543.0,1963.0,5.0,
102500,1854.5,24.4,127.4,66.4,543.0,1963.0,5.0,
102600,1861.7,22.1,127.4,95.7,543.0,1963.0,5.0,
102700,1861.2,21.4,127.4,103.5,543.0,1963.0,5.0,
102900,1862.6,21.9,118.6,121.1,543.0,1963.0,5.0,
103000,1861.7,24.9,107.2,121.1,543.0,1963.0,5.0,
103100,1860.7,24.0,90.0,121.1,543.0,1963.0,5.0,
103200,1862.1,22.5,80.2,121.1,543.0,1963.0,5.0,
103300,1864.1,20.8,66.9,142.6,543.0,1963.0,5.0,
103400,1863.1,88.9,31.6,179.7,543.0,1963.0,5.0,
103500,1855.0,81.9,50.3,121.1,543.0,1963.0,5.0,
103600,1884.1,92.1,65.6,95.7,543.0,1963.0,5.0,
103700,1860.3,139.3,82.0,66.4,543.0,1963.0,5.0,
103900,1863.6,89.8,109.0,97.7,543.0,1963.0,5.0,
104000,1878.6,44.7,117.8,97.7,543.0,1963.0,5.0,
104100,1862.5,22.3,119.4,95.7,543.0,1963.0,5.0,
104200,1863.5,21.2,119.3,66.4,543.0,1963.0,5.0,
104300,1858.9,21.0,119.4,66.4,543.0,1963.0,5.0,
104400,1862.9,23.0,119.4,93.8,543.0,1963.0,5.0,
104500,1859.5,24.2,111.9,128.9,543.0,1963.0,5.0,
104600,1861.0,20.7,103.7,121.1,543.0,1963.0,5.0,
104700,1861.6,22.9,91.3,121.1,543.0,1963.0,5.0,
104900,1858.6,18.5,56.3,148.4,543.0,1963.0,5.0,
105000,1865.3,117.3,34.3,128.9,543.0,1963.0,5.0,
