Time(ms),Raw_ADC,ENV_Value,RMS,MDF,MW_Amp,MW_Area,MW_Latency,Marker
0,1856.6,28.9,0.0,0.0,0.0,0.0,0.0,
100,1867.3,29.8,0.0,0.0,0.0,0.0,0.0,
200,1861.2,32.0,0.0,0.0,0.0,0.0,0.0,
300,1865.1,29.4,0.0,0.0,0.0,0.0,0.0,
400,1859.2,28.4,0.0,0.0,0.0,0.0,0.0,
500,1862.1,30.2,0.0,119.1,0.0,0.0,0.0,
600,1862.3,36.2,0.0,119.1,0.0,0.0,0.0,
700,1868.3,50.0,0.0,119.1,0.0,0.0,0.0,
800,1866.4,91.2,0.0,119.1,271.0,1383.0,14.0,
900,1843.5,71.0,79.1,142.6,271.0,1383.0,14.0,
1000,1869.8,85.0,83.0,224.6,271.0,1383.0,14.0,
1100,1861.4,83.7,94.5,226.6,284.0,1577.0,12.0,
1200,1852.0,67.5,107.7,189.5,284.0,1577.0,12.0,
1300,1863.7,56.5,110.1,193.4,284.0,1577.0,12.0,
1400,1855.6,33.7,110.9,193.4,284.0,1577.0,12.0,
1500,1859.1,36.6,111.1,97.7,284.0,1577.0,12.0,
1600,1860.9,39.9,111.6,66.4,284.0,1577.0,12.0,
1700,1867.5,41.9,111.3,68.4,284.0,1577.0,12.0,
1900,1859.9,47.8,89.4,66.4,284.0,1577.0,12.0,
2000,1861.7,43.8,86.7,60.5,284.0,1577.0,12.0,
2100,1864.9,34.6,75.0,60.5,284.0,1577.0,12.0,
2200,1860.0,44.6,54.9,60.5,284.0,1577.0,12.0,
2300,1862.9,72.4,52.3,66.4,284.0,1577.0,12.0,
2400,1878.2,113.1,58.4,82.0,284.0,1577.0,12.0,
2500,1848.5,78.6,81.9,97.7,304.0,2127.0,15.0,
2600,1859.9,80.3,88.9,158.2,304.0,2127.0,15.0,
2700,1869.8,102.6,92.6,222.7,304.0,2127.0,15.0,
2900,1854.1,41.3,114.1,127.0,304.0,2127.0,15.0,
3000,1859.4,43.2,114.8,195.3,304.0,2127.0,15.0,
3100,1864.9,42.5,115.1,193.4,304.0,2127.0,15.0,
3200,1858.8,50.3,115.6,97.7,304.0,2127.0,15.0,
3300,1859.0,43.2,115.4,74.2,304.0,2127.0,15.0,
3400,1862.1,39.8,113.0,68.4,304.0,2127.0,15.0,
3500,1864.3,43.5,97.7,66.4,304.0,2127.0,15.0,
3600,1858.7,39.8,91.3,62.5,304.0,2127.0,15.0,
3700,1860.0,46.9,87.6,68.4,304.0,2127.0,15.0,
3900,1854.2,64.8,70.9,76.2,181.0,1020.0,18.0,
4000,1865.0,50.6,72.1,125.0,181.0,1020.0,18.0,
4100,1872.8,103.5,76.1,216.8,286.0,1629.0,13.0,
4200,1848.5,76.7,92.5,189.5,286.0,1629.0,13.0,
4300,1871.8,90.8,97.9,193.4,286.0,1629.0,13.0,
4400,1858.2,87.6,105.8,191.4,394.0,1946.0,13.0,
4500,1848.0,46.2,117.7,99.6,394.0,1946.0,13.0,
4600,1863.6,46.3,118.6,162.1,394.0,1946.0,13.0,
4700,1859.7,40.0,118.9,224.6,394.0,1946.0,13.0,
4900,1862.1,38.6,110.2,87.9,394.0,1946.0,13.0,
5000,1860.5,45.9,108.6,91.8,394.0,1946.0,13.0,
5100,1863.5,56.5,105.3,70.3,394.0,1946.0,13.0,
5200,1858.2,40.8,91.8,70.3,394.0,1946.0,13.0,
5300,1861.3,43.6,85.7,68.4,394.0,1946.0,13.0,
5400,1861.0,70.4,74.1,74.2,394.0,1946.0,13.0,
5500,1845.7,101.2,73.6,91.8,202.0,1167.0,23.0,
5600,1856.1,96.0,82.5,162.1,202.0,1167.0,23.0,
5700,1879.6,78.0,86.1,257.8,202.0,1167.0,23.0,
5900,1854.0,96.4,113.0,158.2,202.0,1167.0,23.0,
6000,1869.5,106.2,117.7,193.4,202.0,1167.0,23.0,
6100,1847.6,30.7,126.8,162.1,268.0,1552.0,13.0,
6200,1862.9,47.0,125.7,97.7,268.0,1552.0,13.0,
6300,1857.9,37.0,125.7,152.3,268.0,1552.0,13.0,
6400,1855.7,37.8,125.5,162.1,268.0,1552.0,13.0,
6500,1857.2,36.9,114.6,97.7,268.0,1552.0,13.0,
6600,1870.2,31.7,107.3,82.0,268.0,1552.0,13.0,
6700,1858.3,37.9,103.8,80.1,268.0,1552.0,13.0,
6900,1866.7,36.1,73.6,70.3,268.0,1552.0,13.0,
7000,1858.9,40.8,65.8,80.1,268.0,1552.0,13.0,
7100,1865.3,128.0,47.5,74.2,464.0,2905.0,15.0,
7200,1840.9,56.8,85.6,95.7,464.0,2905.0,15.0,
7300,1865.8,97.6,88.7,222.7,464.0,2905.0,15.0,
7400,1879.7,88.9,96.9,226.6,464.0,2905.0,15.0,
7500,1841.1,68.0,115.2,164.1,355.0,1691.0,14.0,
7600,1865.8,75.6,118.1,125.0,355.0,1691.0,14.0,
7700,1867.5,41.2,122.1,189.5,355.0,1691.0,14.0,
7900,1859.9,42.7,122.4,97.7,355.0,1691.0,14.0,
8000,1859.5,51.2,123.2,87.9,355.0,1691.0,14.0,
8100,1858.6,40.8,123.0,78.1,355.0,1691.0,14.0,
8200,1861.5,56.1,101.6,68.4,355.0,1691.0,14.0,
8300,1858.9,53.0,100.0,64.5,355.0,1691.0,14.0,
8400,1863.0,53.3,93.6,58.6,355.0,1691.0,14.0,
8500,1867.7,41.4,73.3,70.3,355.0,1691.0,14.0,
8600,1854.7,50.1,69.5,72.3,355.0,1691.0,14.0,
8700,1873.8,51.4,66.6,62.5,355.0,1691.0,14.0,
8900,1844.2,83.7,96.9,93.8,355.0,1691.0,14.0,
9000,1868.6,108.5,100.5,193.4,355.0,1691.0,14.0,
9100,1851.7,102.6,118.4,195.3,390.0,1861.0,13.0,
9200,1858.8,94.4,127.8,125.0,390.0,1861.0,13.0,
9300,1873.8,55.9,131.9,156.3,390.0,1861.0,13.0,
9400,1860.9,47.9,132.1,99.6,390.0,1861.0,13.0,
9500,1860.6,49.5,131.0,68.4,390.0,1861.0,13.0,
9600,1860.4,57.9,130.8,68.4,390.0,1861.0,13.0,
9700,1856.5,40.0,129.5,82.0,390.0,1861.0,13.0,
9900,1858.7,48.0,108.5,70.3,390.0,1861.0,13.0,
10000,1859.5,59.3,104.4,66.4,390.0,1861.0,13.0,
10100,1862.3,42.2,83.8,74.2,390.0,1861.0,13.0,
10200,1862.6,35.0,67.4,74.2,390.0,1861.0,13.0,
10300,1856.2,64.6,58.4,66.4,390.0,1861.0,13.0,
10400,1869.0,81.4,67.6,74.2,247.0,1365.0,16.0,
10500,1847.6,74.1,83.9,119.1,247.0,1365.0,16.0,
10600,1874.5,84.6,86.6,222.7,247.0,1365.0,16.0,
10700,1849.2,99.0,99.6,226.6,264.0,1620.0,14.0,
10900,1870.8,41.8,116.0,191.4,264.0,1620.0,14.0,
11000,1860.7,37.5,115.6,158.2,264.0,1620.0,14.0,
11100,1860.1,26.7,114.7,78.1,264.0,1620.0,14.0,
11200,1861.7,31.3,114.1,64.5,264.0,1620.0,14.0,
11300,1861.7,28.7,113.0,68.4,264.0,1620.0,14.0,
11400,1859.3,27.4,105.9,119.1,264.0,1620.0,14.0,
11500,1863.0,29.9,92.0,119.1,264.0,1620.0,14.0,
11600,1860.7,32.5,88.6,119.1,264.0,1620.0,14.0,
11700,1859.7,28.4,71.8,119.1,264.0,1620.0,14.0,
11900,1861.4,57.2,37.9,119.1,264.0,1620.0,14.0,
12000,1872.8,86.1,44.0,119.1,264.0,1620.0,14.0,
12100,1848.1,76.8,77.6,128.9,343.0,1702.0,13.0,
12200,1866.8,77.7,83.4,222.7,343.0,1702.0,13.0,
12300,1867.2,104.4,93.0,222.7,319.0,1841.0,15.0,
12400,1843.3,68.5,108.7,132.8,319.0,1841.0,15.0,
12500,1875.4,29.2,111.6,160.2,319.0,1841.0,15.0,
12600,1859.3,27.1,111.6,197.3,319.0,1841.0,15.0,
12700,1854.4,30.4,111.5,128.9,319.0,1841.0,15.0,
12900,1859.9,33.0,111.3,119.1,319.0,1841.0,15.0,
13000,1866.9,25.4,108.9,119.1,319.0,1841.0,15.0,
13100,1862.6,26.6,87.5,119.1,319.0,1841.0,15.0,
13200,1862.9,27.7,81.9,119.1,319.0,1841.0,15.0,
13300,1860.6,27.1,70.4,119.1,319.0,1841.0,15.0,
13400,1862.3,23.3,42.3,119.1,319.0,1841.0,15.0,
13500,1864.9,42.4,34.4,119.1,319.0,1841.0,15.0,
13600,1873.0,80.3,40.4,119.1,319.0,1841.0,15.0,
13700,1848.6,69.8,73.5,134.8,207.0,1155.0,15.0,
13900,1872.6,99.4,86.3,255.9,180.0,986.0,13.0,
14000,1839.3,81.8,108.0,195.3,180.0,986.0,13.0,
14100,1868.3,33.2,112.1,138.7,180.0,986.0,13.0,
14200,1867.7,27.8,112.6,195.3,180.0,986.0,13.0,
14300,1859.4,25.0,112.7,128.9,180.0,986.0,13.0,
14400,1860.0,26.8,112.6,89.8,180.0,986.0,13.0,
14500,1858.5,25.9,112.4,119.1,180.0,986.0,13.0,
14600,1858.3,22.7,110.5,119.1,180.0,986.0,13.0,
14700,1858.7,27.0,91.6,119.1,180.0,986.0,13.0,
14900,1863.8,24.0,79.7,121.1,180.0,986.0,13.0,
15000,1858.0,28.5,45.9,121.1,180.0,986.0,13.0,
15100,1860.5,47.9,34.8,119.1,180.0,986.0,13.0,
15200,1881.1,90.3,38.8,119.1,180.0,986.0,13.0,
15300,1844.4,82.0,69.9,119.1,245.0,1246.0,13.0,
15400,1862.9,70.8,79.2,189.5,245.0,1246.0,13.0,
15500,1878.5,111.9,84.9,226.6,245.0,1246.0,13.0,
15600,1838.5,61.5,106.5,193.4,363.0,1959.0,14.0,
15700,1869.7,38.0,109.9,121.1,363.0,1959.0,14.0,
15900,1861.3,24.9,110.3,187.5,363.0,1959.0,14.0,
16000,1860.8,24.5,110.3,99.6,363.0,1959.0,14.0,
16100,1862.1,25.8,110.4,119.1,363.0,1959.0,14.0,
16200,1860.2,26.0,108.7,119.1,363.0,1959.0,14.0,
16300,1859.8,29.6,91.6,119.1,363.0,1959.0,14.0,
16400,1862.1,34.9,84.0,119.1,363.0,1959.0,14.0,
16500,1863.4,36.2,79.2,119.1,363.0,1959.0,14.0,
16600,1860.8,40.3,46.6,113.3,363.0,1959.0,14.0,
16700,1858.3,40.8,39.1,89.8,363.0,1959.0,14.0,
16900,1851.8,100.2,70.7,119.1,419.0,1914.0,15.0,
17000,1854.3,72.7,80.0,189.5,419.0,1914.0,15.0,
17100,1880.3,78.6,85.0,224.6,419.0,1914.0,15.0,
17200,1845.5,72.9,103.3,164.1,343.0,1755.0,15.0,
17300,1861.4,39.6,110.0,128.9,343.0,1755.0,15.0,
17400,1857.9,31.4,110.9,193.4,343.0,1755.0,15.0,
17500,1860.4,30.1,110.4,162.1,343.0,1755.0,15.0,
17600,1860.9,30.6,110.3,97.7,343.0,1755.0,15.0,
17700,1864.9,25.8,110.0,97.7,343.0,1755.0,15.0,
17900,1862.4,28.3,92.4,119.1,343.0,1755.0,15.0,
18000,1860.8,30.4,84.8,119.1,343.0,1755.0,15.0,
18100,1865.5,25.4,80.0,119.1,343.0,1755.0,15.0,
18200,1860.0,30.8,54.1,119.1,343.0,1755.0,15.0,
18300,1864.1,45.0,39.1,119.1,343.0,1755.0,15.0,
18400,1879.7,96.0,40.8,119.1,343.0,1755.0,15.0,
18500,1860.3,91.7,58.1,121.1,390.0,2173.0,15.0,
18600,1848.0,101.5,82.2,160.2,390.0,2173.0,15.0,
18700,1870.1,93.1,89.8,224.6,390.0,2173.0,15.0,
18900,1859.0,35.4,114.7,99.6,390.0,2173.0,15.0,
19000,1863.8,27.4,115.2,168.0,390.0,2173.0,15.0,
19100,1858.9,23.9,114.9,189.5,390.0,2173.0,15.0,
19200,1862.3,27.1,115.1,119.1,390.0,2173.0,15.0,
19300,1860.8,26.9,115.0,119.1,390.0,2173.0,15.0,
19400,1862.9,26.2,113.4,119.1,390.0,2173.0,15.0,
19500,1860.7,22.7,105.4,119.1,390.0,2173.0,15.0,
19600,1857.6,24.7,87.7,119.1,390.0,2173.0,15.0,
19700,1858.0,28.0,79.6,121.1,390.0,2173.0,15.0,
19900,1859.2,45.1,35.0,87.9,390.0,2173.0,15.0,
20000,1870.5,54.4,37.0,85.9,390.0,2173.0,15.0,
20100,1873.3,100.5,47.8,119.1,340.0,2111.0,15.0,
20200,1843.2,56.4,76.1,132.8,340.0,2111.0,15.0,
20300,1873.9,90.3,80.4,195.3,340.0,2111.0,15.0,
20400,1855.1,82.7,93.1,195.3,215.0,1231.0,14.0,
20500,1853.3,39.3,106.9,132.8,215.0,1231.0,14.0,
20600,1863.3,24.4,107.9,193.4,215.0,1231.0,14.0,
20700,1862.2,23.6,107.9,220.7,215.0,1231.0,14.0,
20900,1865.2,24.6,107.8,103.5,215.0,1231.0,14.0,
21000,1861.6,26.8,106.4,119.1,215.0,1231.0,14.0,
21100,1865.3,22.0,102.0,119.1,215.0,1231.0,14.0,
21200,1862.6,25.1,82.7,119.1,215.0,1231.0,14.0,
21300,1859.9,31.7,78.4,119.1,215.0,1231.0,14.0,
21400,1857.9,30.4,62.8,121.1,215.0,1231.0,14.0,
21500,1865.3,51.9,34.5,119.1,215.0,1231.0,14.0,
21600,1865.4,79.7,39.4,119.1,215.0,1231.0,14.0,
21700,1875.6,84.8,49.5,121.1,215.0,1231.0,14.0,
21900,1860.7,69.9,86.4,136.7,215.0,1231.0,14.0,
22000,1878.4,102.2,92.3,218.8,412.0,1802.0,14.0,
22100,1841.0,45.0,111.9,191.4,412.0,1802.0,14.0,
22200,1864.5,28.9,113.5,185.5,412.0,1802.0,14.0,
22300,1861.4,28.1,113.6,224.6,412.0,1802.0,14.0,
22400,1862.3,24.8,113.6,226.6,412.0,1802.0,14.0,
22500,1861.1,23.9,113.6,127.0,412.0,1802.0,14.0,
22600,1861.8,25.7,111.0,119.1,412.0,1802.0,14.0,
22700,1859.8,29.2,106.9,119.1,412.0,1802.0,14.0,
22900,1861.7,23.9,80.0,119.1,412.0,1802.0,14.0,
23000,1861.4,24.9,73.0,119.1,412.0,1802.0,14.0,
23100,1862.1,60.2,36.8,121.1,171.0,871.0,19.0,
23200,1852.5,69.3,50.8,121.1,171.0,871.0,19.0,
23300,1871.1,88.1,56.1,242.2,171.0,871.0,19.0,
23400,1860.2,85.6,77.7,230.5,419.0,1992.0,15.0,
23500,1853.6,62.6,90.9,168.0,419.0,1992.0,15.0,
23600,1873.5,98.1,94.3,193.4,419.0,1992.0,15.0,
23700,1837.7,49.8,113.1,191.4,289.0,1791.0,13.0,
23900,1863.0,23.0,115.9,224.6,289.0,1791.0,13.0,
24000,1861.0,26.8,115.8,226.6,289.0,1791.0,13.0,
24100,1868.2,26.4,115.8,179.7,289.0,1791.0,13.0,
24200,1858.5,24.7,108.7,119.1,289.0,1791.0,13.0,
24300,1863.4,21.0,106.0,119.1,289.0,1791.0,13.0,
24400,1861.1,21.6,91.1,121.1,289.0,1791.0,13.0,
24500,1857.3,24.4,78.0,121.1,289.0,1791.0,13.0,
24600,1862.3,24.9,73.8,121.1,289.0,1791.0,13.0,
24700,1861.7,64.8,39.2,121.1,182.0,845.0,15.0,
24900,1872.0,89.0,59.8,242.2,182.0,845.0,15.0,
25000,1855.2,87.4,75.8,240.2,206.0,1275.0,14.0,
25100,1855.1,57.8,93.2,189.5,206.0,1275.0,14.0,
25200,1870.8,89.3,96.1,193.4,206.0,1275.0,14.0,
25300,1850.3,58.7,112.6,199.2,371.0,1693.0,14.0,
25400,1853.9,28.1,118.0,164.1,371.0,1693.0,14.0,
25500,1862.0,29.0,118.1,199.2,371.0,1693.0,14.0,
25600,1863.5,28.8,118.2,224.6,371.0,1693.0,14.0,
25700,1858.0,24.3,118.2,201.2,371.0,1693.0,14.0,
25900,1859.1,28.9,106.1,121.1,371.0,1693.0,14.0,
26000,1861.8,26.1,95.4,121.1,371.0,1693.0,14.0,
26100,1860.1,25.7,78.4,119.1,371.0,1693.0,14.0,
26200,1861.3,24.8,74.9,119.1,371.0,1693.0,14.0,
26300,1861.4,48.9,46.6,119.1,371.0,1693.0,14.0,
26400,1850.5,60.2,57.3,121.1,172.0,828.0,17.0,
26500,1867.5,64.9,62.0,257.8,172.0,828.0,17.0,
26600,1865.7,107.2,74.4,257.8,351.0,1763.0,14.0,
26700,1844.7,62.8,93.5,222.7,351.0,1763.0,14.0,
26900,1862.0,63.9,106.1,222.7,274.0,1521.0,16.0,
27000,1845.8,29.1,118.8,166.0,274.0,1521.0,16.0,
27100,1859.8,23.7,118.8,199.2,274.0,1521.0,16.0,
27200,1860.3,22.5,118.8,226.6,274.0,1521.0,16.0,
27300,1860.2,24.3,118.8,201.2,274.0,1521.0,16.0,
27400,1857.2,24.1,108.6,121.1,274.0,1521.0,16.0,
27500,1863.7,22.8,105.8,119.1,274.0,1521.0,16.0,
27600,1860.3,19.0,97.3,121.1,274.0,1521.0,16.0,
27700,1856.9,27.5,79.0,121.1,274.0,1521.0,16.0,
27900,1859.6,50.2,61.5,121.1,274.0,1521.0,16.0,
28000,1848.3,51.0,58.1,121.1,107.0,631.0,19.0,
28100,1866.6,61.1,63.3,252.0,107.0,631.0,19.0,
28200,1870.3,102.1,67.7,259.8,334.0,1679.0,14.0,
28300,1838.4,79.6,93.9,226.6,334.0,1679.0,14.0,
28400,1868.6,74.7,98.8,195.3,334.0,1679.0,14.0,
28500,1871.8,87.7,105.6,222.7,404.0,2321.0,14.0,
28600,1841.3,27.2,119.8,162.1,404.0,2321.0,14.0,
28700,1858.9,23.2,119.9,162.1,404.0,2321.0,14.0,
28900,1858.7,28.2,119.7,203.1,404.0,2321.0,14.0,
29000,1860.9,25.5,109.0,121.1,404.0,2321.0,14.0,
29100,1862.5,23.6,106.0,119.1,404.0,2321.0,14.0,
29200,1859.9,24.7,103.2,119.1,404.0,2321.0,14.0,
29300,1861.5,21.7,80.2,119.1,404.0,2321.0,14.0,
29400,1861.9,24.4,73.9,121.1,404.0,2321.0,14.0,
29500,1860.3,57.9,64.0,121.1,404.0,2321.0,14.0,
29600,1841.3,55.3,61.0,121.1,132.0,925.0,14.0,
29700,1864.3,57.6,66.2,253.9,132.0,925.0,14.0,
29900,1837.7,72.9,95.9,255.9,132.0,925.0,14.0,
30000,1870.4,82.0,100.0,193.4,132.0,925.0,14.0,
30100,1869.3,89.3,107.4,195.3,357.0,1652.0,14.0,
30200,1845.5,31.4,122.2,162.1,357.0,1652.0,14.0,
30300,1862.7,25.9,122.2,166.0,357.0,1652.0,14.0,
30400,1860.8,23.5,122.3,226.6,357.0,1652.0,14.0,
30500,1861.9,25.5,122.4,228.5,357.0,1652.0,14.0,
30600,1863.2,23.8,110.4,121.1,357.0,1652.0,14.0,
30700,1859.3,24.0,107.3,119.1,357.0,1652.0,14.0,
30900,1864.2,26.5,81.8,121.1,357.0,1652.0,14.0,
31000,1863.2,26.1,76.6,121.1,357.0,1652.0,14.0,
31100,1860.3,61.8,66.2,121.1,357.0,1652.0,14.0,
31200,1850.5,51.3,57.3,121.1,113.0,671.0,22.0,
31300,1863.5,37.7,63.6,255.9,113.0,671.0,22.0,
31400,1878.2,62.8,65.7,273.4,113.0,671.0,22.0,
31500,1849.4,52.9,86.5,259.8,242.0,1298.0,15.0,
31600,1866.0,72.9,91.0,253.9,242.0,1298.0,15.0,
31700,1864.0,98.7,97.4,255.9,332.0,1852.0,15.0,
31900,1862.2,19.5,112.9,191.4,332.0,1852.0,15.0,
32000,1861.5,26.6,112.9,222.7,332.0,1852.0,15.0,
32100,1855.2,23.9,112.8,222.7,332.0,1852.0,15.0,
32200,1862.2,24.1,102.2,121.1,332.0,1852.0,15.0,
32300,1861.1,21.5,98.2,119.1,332.0,1852.0,15.0,
32400,1858.8,26.4,96.7,119.1,332.0,1852.0,15.0,
32500,1860.3,25.4,78.6,121.1,332.0,1852.0,15.0,
32600,1859.2,23.4,73.3,121.1,332.0,1852.0,15.0,
32700,1861.6,63.3,64.7,119.1,332.0,1852.0,15.0,
32900,1858.9,76.2,63.6,255.9,332.0,1852.0,15.0,
33000,1869.1,90.5,69.8,261.7,332.0,1852.0,15.0,
33100,1854.5,67.4,90.5,238.3,302.0,1652.0,15.0,
33200,1866.7,65.5,96.7,185.5,302.0,1652.0,15.0,
33300,1869.7,106.6,102.6,195.3,413.0,1893.0,14.0,
33400,1844.4,30.2,117.9,164.1,413.0,1893.0,14.0,
33500,1860.8,22.4,117.8,166.0,413.0,1893.0,14.0,
33600,1857.3,22.3,117.7,224.6,413.0,1893.0,14.0,
33700,1864.3,23.7,117.7,226.6,413.0,1893.0,14.0,
33900,1863.0,22.9,103.5,121.1,413.0,1893.0,14.0,
34000,1860.0,20.2,99.4,121.1,413.0,1893.0,14.0,
34100,1860.7,24.2,80.8,119.1,413.0,1893.0,14.0,
34200,1859.7,24.2,73.2,119.1,413.0,1893.0,14.0,
34300,1859.2,27.3,64.6,119.1,413.0,1893.0,14.0,
34400,1852.7,58.2,49.1,121.1,175.0,900.0,14.0,
34500,1853.4,76.5,66.4,253.9,175.0,900.0,14.0,
34600,1874.2,105.2,72.3,277.3,175.0,900.0,14.0,
34700,1839.6,71.4,94.5,257.8,307.0,1716.0,14.0,
34900,1871.5,103.9,104.3,193.4,248.0,1445.0,14.0,
35000,1841.8,31.5,121.1,189.5,248.0,1445.0,14.0,
35100,1860.6,25.7,121.2,162.1,248.0,1445.0,14.0,
35200,1861.4,24.4,121.3,222.7,248.0,1445.0,14.0,
35300,1859.9,29.0,121.4,226.6,248.0,1445.0,14.0,
35400,1861.3,27.1,114.8,121.1,248.0,1445.0,14.0,
35500,1860.4,27.0,105.8,119.1,248.0,1445.0,14.0,
35600,1860.2,28.4,102.0,119.1,248.0,1445.0,14.0,
35700,1864.6,25.4,82.0,121.1,248.0,1445.0,14.0,
35900,1862.2,27.4,69.2,119.1,248.0,1445.0,14.0,
36000,1849.5,68.5,48.2,119.1,114.0,664.0,14.0,
36100,1853.9,59.8,67.1,232.4,114.0,664.0,14.0,
36200,1872.3,107.2,71.2,261.7,114.0,664.0,14.0,
36300,1847.7,82.8,93.9,252.0,462.0,2609.0,14.0,
36400,1866.6,81.5,99.8,166.0,462.0,2609.0,14.0,
36500,1877.0,111.1,104.9,193.4,269.0,1464.0,14.0,
36600,1846.0,30.8,121.6,164.1,269.0,1464.0,14.0,
36700,1858.0,26.7,121.6,132.8,269.0,1464.0,14.0,
36900,1861.4,27.3,121.6,222.7,269.0,1464.0,14.0,
37000,1861.7,28.9,116.1,121.1,269.0,1464.0,14.0,
37100,1858.3,31.0,106.4,119.1,269.0,1464.0,14.0,
37200,1862.8,24.9,103.8,119.1,269.0,1464.0,14.0,
37300,1863.9,23.3,83.9,119.1,269.0,1464.0,14.0,
37400,1859.4,25.7,76.6,119.1,269.0,1464.0,14.0,
37500,1862.3,26.3,69.7,119.1,269.0,1464.0,14.0,
37600,1846.2,57.6,51.4,119.1,172.0,912.0,17.0,
37700,1859.4,54.9,68.8,205.1,172.0,912.0,17.0,
37900,1844.9,76.7,96.7,230.5,226.0,1369.0,15.0,
38000,1857.2,75.9,102.9,193.4,226.0,1369.0,15.0,
38100,1880.9,93.5,107.1,224.6,226.0,1369.0,15.0,
38200,1849.8,33.0,123.1,195.3,402.0,2130.0,15.0,
38300,1857.9,28.6,123.1,156.3,402.0,2130.0,15.0,
38400,1860.8,29.7,123.2,193.4,402.0,2130.0,15.0,
38500,1864.3,26.7,123.2,218.8,402.0,2130.0,15.0,
38600,1861.3,29.8,116.7,121.1,402.0,2130.0,15.0,
38700,1860.3,28.8,107.5,119.1,402.0,2130.0,15.0,
38900,1859.1,24.7,83.6,119.1,402.0,2130.0,15.0,
39000,1860.6,28.6,75.7,119.1,402.0,2130.0,15.0,
39100,1861.3,26.6,69.4,119.1,402.0,2130.0,15.0,
39200,1857.5,78.8,43.7,119.1,176.0,983.0,14.0,
39300,1842.2,69.1,70.1,191.4,176.0,983.0,14.0,
39400,1879.8,77.1,74.7,285.2,176.0,983.0,14.0,
39500,1862.8,97.4,87.1,259.8,358.0,1760.0,14.0,
39600,1845.7,71.9,106.7,195.3,358.0,1760.0,14.0,
39700,1869.5,81.9,110.3,193.4,358.0,1760.0,14.0,
39900,1859.2,26.1,120.1,158.2,358.0,1760.0,14.0,
40000,1860.5,27.4,120.1,189.5,358.0,1760.0,14.0,
40100,1857.5,29.6,120.2,205.1,358.0,1760.0,14.0,
40200,1859.6,26.7,116.9,152.3,358.0,1760.0,14.0,
40300,1860.6,33.1,103.2,121.1,358.0,1760.0,14.0,
40400,1865.9,25.9,99.8,119.1,358.0,1760.0,14.0,
40500,1859.1,25.1,89.2,119.1,358.0,1760.0,14.0,
40600,1863.1,26.5,64.4,121.1,358.0,1760.0,14.0,
40700,1857.0,28.1,57.7,121.1,358.0,1760.0,14.0,
40900,1846.4,76.7,66.8,121.1,174.0,1029.0,15.0,
41000,1863.4,72.6,71.8,255.9,174.0,1029.0,15.0,
41100,1877.9,130.5,78.5,259.8,401.0,2326.0,16.0,
41200,1846.0,72.3,102.5,226.6,401.0,2326.0,16.0,
41300,1863.6,82.9,108.2,189.5,401.0,2326.0,16.0,
41400,1861.2,36.4,114.9,193.4,401.0,2326.0,16.0,
41500,1866.6,26.9,115.5,128.9,401.0,2326.0,16.0,
41600,1861.7,23.2,115.6,97.7,401.0,2326.0,16.0,
41700,1858.5,28.2,115.6,119.1,401.0,2326.0,16.0,
41900,1861.9,28.0,99.9,121.1,401.0,2326.0,16.0,
42000,1860.4,29.0,96.5,121.1,401.0,2326.0,16.0,
42100,1862.7,27.8,91.2,119.1,401.0,2326.0,16.0,
42200,1861.9,28.8,62.9,119.1,401.0,2326.0,16.0,
42300,1863.3,25.7,53.1,119.1,401.0,2326.0,16.0,
42400,1862.8,88.4,35.9,119.1,401.0,2326.0,16.0,
42500,1858.4,81.5,60.6,121.1,206.0,995.0,14.0,
42600,1857.0,82.1,77.0,252.0,206.0,995.0,14.0,
42700,1871.3,101.0,82.6,259.8,206.0,995.0,14.0,
42900,1855.1,80.7,109.7,134.8,206.0,995.0,14.0,
43000,1872.0,38.4,115.4,191.4,206.0,995.0,14.0,
43100,1861.3,32.7,116.3,162.1,206.0,995.0,14.0,
43200,1858.1,30.9,116.4,95.7,206.0,995.0,14.0,
43300,1863.4,29.1,116.2,85.9,206.0,995.0,14.0,
43400,1858.2,34.6,116.3,119.1,206.0,995.0,14.0,
43500,1863.2,29.0,105.0,119.1,206.0,995.0,14.0,
43600,1862.5,32.2,93.7,119.1,206.0,995.0,14.0,
43700,1864.1,27.8,89.1,119.1,206.0,995.0,14.0,
43900,1859.9,28.0,51.8,119.1,206.0,995.0,14.0,
44000,1868.4,42.8,37.6,119.1,206.0,995.0,14.0,
44100,1870.0,83.4,51.8,119.1,319.0,1484.0,13.0,
44200,1844.1,74.5,79.6,187.5,319.0,1484.0,13.0,
44300,1875.5,92.2,84.7,226.6,319.0,1484.0,13.0,
44400,1860.0,87.6,99.1,224.6,301.0,1564.0,14.0,
44500,1857.4,74.0,110.2,158.2,301.0,1564.0,14.0,
44600,1870.6,41.9,114.0,173.8,301.0,1564.0,14.0,
44700,1866.5,26.9,115.5,166.0,301.0,1564.0,14.0,
44900,1860.9,24.2,115.5,72.3,301.0,1564.0,14.0,
45000,1861.7,27.9,115.4,119.1,301.0,1564.0,14.0,
45100,1860.0,26.9,108.8,119.1,301.0,1564.0,14.0,
45200,1860.3,27.3,90.4,121.1,301.0,1564.0,14.0,
45300,1866.0,26.4,85.6,121.1,301.0,1564.0,14.0,
45400,1860.3,25.0,68.3,121.1,301.0,1564.0,14.0,
45500,1862.3,31.9,48.0,119.1,301.0,1564.0,14.0,
45600,1864.7,58.1,38.4,119.1,301.0,1564.0,14.0,
45700,1865.8,62.2,48.9,119.1,238.0,1099.0,14.0,
45900,1874.7,91.2,74.5,253.9,238.0,1099.0,14.0,
46000,1848.9,93.5,93.5,253.9,351.0,1817.0,14.0,
46100,1864.5,81.5,104.2,162.1,351.0,1817.0,14.0,
46200,1877.0,40.1,109.2,162.1,351.0,1817.0,14.0,
46300,1860.0,29.1,110.6,132.8,351.0,1817.0,14.0,
46400,1864.0,31.0,110.6,95.7,351.0,1817.0,14.0,
46500,1859.7,28.4,110.8,89.8,351.0,1817.0,14.0,
46600,1860.6,26.0,110.8,105.5,351.0,1817.0,14.0,
46700,1862.5,21.7,104.8,119.1,351.0,1817.0,14.0,
46900,1858.5,36.2,88.2,119.1,351.0,1817.0,14.0,
47000,1863.1,32.0,68.2,119.1,351.0,1817.0,14.0,
47100,1863.0,31.2,51.3,119.1,351.0,1817.0,14.0,
47200,1859.1,69.1,40.0,95.7,351.0,1817.0,14.0,
47300,1856.9,79.5,59.5,101.6,261.0,1671.0,15.0,
47400,1857.1,44.5,76.0,185.5,261.0,1671.0,15.0,
47500,1871.4,86.0,78.3,253.9,261.0,1671.0,15.0,
47600,1849.8,91.6,97.1,253.9,348.0,1820.0,14.0,
47700,1849.2,96.0,104.3,197.3,348.0,1820.0,14.0,
47900,1858.7,29.7,114.3,187.5,348.0,1820.0,14.0,
48000,1862.9,27.4,114.0,70.3,348.0,1820.0,14.0,
48100,1858.4,24.7,113.6,66.4,348.0,1820.0,14.0,
48200,1861.2,25.7,113.3,95.7,348.0,1820.0,14.0,
48300,1858.0,27.0,102.8,121.1,348.0,1820.0,14.0,
48400,1863.2,19.8,91.2,121.1,348.0,1820.0,14.0,
48500,1858.4,30.0,88.9,121.1,348.0,1820.0,14.0,
48600,1860.3,25.9,67.8,121.1,348.0,1820.0,14.0,
48700,1862.1,27.6,56.1,121.1,348.0,1820.0,14.0,
48900,1847.2,69.1,64.0,121.1,145.0,674.0,16.0,
49000,1858.4,82.1,69.3,255.9,145.0,674.0,16.0,
49100,1882.6,111.4,76.4,259.8,308.0,1627.0,14.0,
49200,1848.6,70.6,95.9,226.6,308.0,1627.0,14.0,
49300,1857.8,80.0,103.9,127.0,308.0,1627.0,14.0,
49400,1868.5,57.4,108.4,189.5,308.0,1627.0,14.0,
49500,1858.9,31.9,115.0,162.1,308.0,1627.0,14.0,
49600,1861.0,26.0,115.0,107.4,308.0,1627.0,14.0,
49700,1861.0,28.1,115.0,173.8,308.0,1627.0,14.0,
49900,1860.0,29.3,100.5,119.1,308.0,1627.0,14.0,
50000,1865.0,26.9,97.1,119.1,308.0,1627.0,14.0,
50100,1860.5,26.0,91.7,119.1,308.0,1627.0,14.0,
50200,1863.8,25.8,71.2,119.1,308.0,1627.0,14.0,
50300,1860.2,32.7,59.1,119.1,308.0,1627.0,14.0,
50400,1861.0,84.5,50.6,119.1,308.0,1627.0,14.0,
50500,1846.5,68.1,62.5,119.1,256.0,1176.0,16.0,
50600,1865.9,71.7,68.5,253.9,256.0,1176.0,16.0,
50700,1875.5,101.0,73.8,259.8,365.0,2120.0,15.0,
50900,1863.4,88.7,106.1,189.5,365.0,2120.0,15.0,
51000,1866.9,58.4,114.5,195.3,255.0,1499.0,14.0,
51100,1853.2,26.5,121.9,162.1,255.0,1499.0,14.0,
51200,1860.2,24.8,121.8,136.7,255.0,1499.0,14.0,
51300,1860.7,23.8,121.8,195.3,255.0,1499.0,14.0,
51400,1858.5,21.8,121.6,195.3,255.0,1499.0,14.0,
51500,1857.4,22.2,109.5,121.1,255.0,1499.0,14.0,
51600,1861.4,28.8,105.7,121.1,255.0,1499.0,14.0,
51700,1861.6,24.1,102.0,121.1,255.0,1499.0,14.0,
51900,1862.6,28.7,67.5,119.1,255.0,1499.0,14.0,
52000,1866.3,52.2,52.1,121.1,255.0,1499.0,14.0,
52100,1845.0,59.4,57.9,121.1,144.0,969.0,16.0,
52200,1860.9,63.2,70.6,252.0,144.0,969.0,16.0,
52300,1877.2,106.5,76.8,259.8,144.0,969.0,16.0,
52400,1851.3,79.1,100.8,224.6,424.0,1854.0,15.0,
52500,1864.6,84.5,106.1,160.2,424.0,1854.0,15.0,
52600,1863.6,72.0,113.1,191.4,420.0,1867.0,15.0,
52700,1855.6,29.7,122.3,128.9,420.0,1867.0,15.0,
52900,1864.8,28.0,122.6,189.5,420.0,1867.0,15.0,
53000,1862.9,28.1,122.6,162.1,420.0,1867.0,15.0,
53100,1862.4,27.7,112.5,121.1,420.0,1867.0,15.0,
53200,1861.2,26.0,105.1,119.1,420.0,1867.0,15.0,
53300,1860.3,22.5,100.6,119.1,420.0,1867.0,15.0,
53400,1862.2,25.0,76.5,119.1,420.0,1867.0,15.0,
53500,1860.2,27.8,69.2,119.1,420.0,1867.0,15.0,
53600,1859.3,62.4,57.3,119.1,420.0,1867.0,15.0,
53700,1849.5,47.6,63.2,119.1,207.0,1407.0,17.0,
53900,1880.5,121.6,77.6,261.7,439.0,2454.0,15.0,
54000,1837.1,76.8,102.8,228.5,439.0,2454.0,15.0,
54100,1878.8,69.2,106.8,162.1,439.0,2454.0,15.0,
54200,1870.4,73.9,112.9,166.0,328.0,1814.0,13.0,
54300,1844.1,28.2,125.8,127.0,328.0,1814.0,13.0,
54400,1859.1,28.5,125.8,160.2,328.0,1814.0,13.0,
54500,1856.9,27.1,125.9,222.7,328.0,1814.0,13.0,
54600,1864.8,27.7,125.8,220.7,328.0,1814.0,13.0,
54700,1860.0,25.5,113.7,121.1,328.0,1814.0,13.0,
54900,1863.8,27.6,104.1,121.1,328.0,1814.0,13.0,
55000,1860.9,29.3,79.2,121.1,328.0,1814.0,13.0,
55100,1862.1,29.6,73.4,121.1,328.0,1814.0,13.0,
55200,1859.5,59.9,63.6,121.1,328.0,1814.0,13.0,
55300,1843.3,69.5,55.5,121.1,176.0,947.0,13.0,
55400,1876.7,101.3,61.6,238.3,176.0,947.0,13.0,
55500,1861.7,98.1,74.4,236.3,391.0,1952.0,14.0,
55600,1841.3,74.7,97.3,166.0,391.0,1952.0,14.0,
55700,1869.2,86.0,100.5,193.4,391.0,1952.0,14.0,
55900,1847.3,28.5,124.4,162.1,391.0,1952.0,14.0,
56000,1863.1,30.5,124.5,195.3,391.0,1952.0,14.0,
56100,1858.8,26.2,124.6,224.6,391.0,1952.0,14.0,
56200,1862.2,30.5,124.6,193.4,391.0,1952.0,14.0,
56300,1861.9,31.3,116.0,119.1,391.0,1952.0,14.0,
56400,1861.3,33.2,113.1,119.1,391.0,1952.0,14.0,
56500,1865.3,29.6,105.1,119.1,391.0,1952.0,14.0,
56600,1859.6,29.1,84.5,119.1,391.0,1952.0,14.0,
56700,1863.2,29.6,80.8,119.1,391.0,1952.0,14.0,
56900,1851.6,45.3,48.8,119.1,391.0,1952.0,14.0,
57000,1871.3,77.5,52.8,201.2,391.0,1952.0,14.0,
57100,1871.1,86.4,66.9,230.5,238.0,1406.0,17.0,
57200,1845.3,81.3,88.2,189.5,238.0,1406.0,17.0,
57300,1875.6,108.5,94.4,193.4,238.0,1406.0,17.0,
57400,1851.5,91.1,111.7,189.5,317.0,1594.0,15.0,
57500,1860.1,30.9,118.8,101.6,317.0,1594.0,15.0,
57600,1858.9,27.6,118.8,169.9,317.0,1594.0,15.0,
57700,1860.1,28.1,118.8,197.3,317.0,1594.0,15.0,
57900,1860.7,26.1,113.6,121.1,317.0,1594.0,15.0,
58000,1861.1,28.8,111.7,119.1,317.0,1594.0,15.0,
58100,1861.5,24.6,103.8,121.1,317.0,1594.0,15.0,
58200,1864.4,27.2,86.5,119.1,317.0,1594.0,15.0,
58300,1864.2,29.7,79.5,119.1,317.0,1594.0,15.0,
58400,1865.0,57.7,52.5,119.1,317.0,1594.0,15.0,
58500,1860.5,57.7,42.8,119.1,317.0,1594.0,15.0,
58600,1875.6,78.1,48.7,177.7,317.0,1594.0,15.0,
58700,1860.7,93.5,68.9,207.0,313.0,1901.0,14.0,
58900,1872.8,97.4,95.0,197.3,313.0,1901.0,14.0,
59000,1847.1,96.6,113.7,193.4,372.0,1746.0,13.0,
59100,1860.9,30.1,120.8,119.1,372.0,1746.0,13.0,
59200,1859.0,27.5,120.7,191.4,372.0,1746.0,13.0,
59300,1859.7,29.4,120.7,210.9,372.0,1746.0,13.0,
59400,1862.4,25.6,120.8,130.9,372.0,1746.0,13.0,
59500,1860.0,25.9,117.6,119.1,372.0,1746.0,13.0,
59600,1861.4,32.3,115.2,119.1,372.0,1746.0,13.0,
59700,1862.1,25.8,104.5,119.1,372.0,1746.0,13.0,
59900,1860.3,26.0,81.5,119.1,372.0,1746.0,13.0,
60000,1857.5,25.6,52.4,119.1,372.0,1746.0,13.0,
60100,1867.3,47.1,33.8,119.1,372.0,1746.0,13.0,
60200,1875.5,93.8,39.4,119.1,372.0,1746.0,13.0,
60300,1834.9,92.3,74.4,121.1,290.0,1829.0,16.0,
60400,1877.9,67.9,84.4,193.4,290.0,1829.0,16.0,
60500,1877.5,110.2,89.0,222.7,373.0,1823.0,14.0,
60600,1844.8,75.4,110.0,164.1,373.0,1823.0,14.0,
60700,1868.3,32.8,113.7,130.9,373.0,1823.0,14.0,
60900,1863.1,26.7,113.7,125.0,373.0,1823.0,14.0,
61000,1863.7,30.6,113.6,84.0,373.0,1823.0,14.0,
61100,1859.4,31.7,113.5,119.1,373.0,1823.0,14.0,
61200,1865.3,25.3,111.7,119.1,373.0,1823.0,14.0,
61300,1864.5,31.2,92.2,119.1,373.0,1823.0,14.0,
61400,1860.1,25.0,83.2,119.1,373.0,1823.0,14.0,
61500,1861.6,30.1,78.3,119.1,373.0,1823.0,14.0,
61600,1857.8,25.4,44.4,119.1,373.0,1823.0,14.0,
61700,1859.8,43.0,34.8,119.1,373.0,1823.0,14.0,
61900,1840.7,93.1,78.4,121.1,373.0,1823.0,14.0,
62000,1865.8,84.2,84.6,224.6,373.0,1823.0,14.0,
62100,1876.3,88.6,95.9,226.6,400.0,2093.0,14.0,
62200,1844.6,71.7,112.4,158.2,400.0,2093.0,14.0,
62300,1870.3,31.2,115.8,132.8,400.0,2093.0,14.0,
62400,1865.1,33.0,115.7,193.4,400.0,2093.0,14.0,
62500,1863.4,27.6,115.8,121.1,400.0,2093.0,14.0,
62600,1862.0,26.6,115.7,95.7,400.0,2093.0,14.0,
62700,1858.0,26.2,115.3,119.1,400.0,2093.0,14.0,
62900,1859.3,30.1,91.7,119.1,400.0,2093.0,14.0,
63000,1864.9,32.2,86.1,119.1,400.0,2093.0,14.0,
63100,1858.8,25.9,73.3,119.1,400.0,2093.0,14.0,
63200,1860.7,23.7,43.5,119.1,400.0,2093.0,14.0,
63300,1864.3,68.5,35.9,119.1,400.0,2093.0,14.0,
63400,1871.6,87.3,51.1,119.1,289.0,1607.0,16.0,
63500,1845.9,88.7,77.4,158.2,289.0,1607.0,16.0,
63600,1877.7,107.0,85.2,224.6,289.0,1607.0,16.0,
63700,1846.0,92.9,104.9,195.3,411.0,1884.0,13.0,
63900,1874.2,30.5,116.8,162.1,411.0,1884.0,13.0,
64000,1863.0,24.6,116.7,166.0,411.0,1884.0,13.0,
64100,1863.4,32.6,116.5,97.7,411.0,1884.0,13.0,
64200,1858.6,25.1,116.7,93.8,411.0,1884.0,13.0,
64300,1862.2,23.8,116.1,119.1,411.0,1884.0,13.0,
64400,1861.0,31.3,110.2,119.1,411.0,1884.0,13.0,
64500,1863.5,25.2,93.5,119.1,411.0,1884.0,13.0,
64600,1861.7,26.7,86.5,119.1,411.0,1884.0,13.0,
64700,1860.6,27.1,61.2,119.1,411.0,1884.0,13.0,
64900,1864.1,80.1,35.1,119.1,411.0,1884.0,13.0,
65000,1855.4,84.5,65.9,121.1,372.0,1906.0,15.0,
65100,1861.9,70.9,76.1,201.2,372.0,1906.0,15.0,
65200,1871.0,111.7,82.5,222.7,395.0,1867.0,14.0,
65300,1845.8,79.4,105.8,158.2,395.0,1867.0,14.0,
65400,1870.8,77.9,109.7,119.1,395.0,1867.0,14.0,
65500,1873.6,29.0,115.1,191.4,395.0,1867.0,14.0,
65600,1857.2,27.6,115.0,128.9,395.0,1867.0,14.0,
65700,1860.7,23.5,115.0,93.8,395.0,1867.0,14.0,
65900,1858.4,25.3,114.2,119.1,395.0,1867.0,14.0,
66000,1862.4,30.5,99.6,121.1,395.0,1867.0,14.0,
66100,1863.2,24.7,92.1,121.1,395.0,1867.0,14.0,
66200,1858.8,24.1,86.2,121.1,395.0,1867.0,14.0,
66300,1863.2,33.5,54.9,119.1,395.0,1867.0,14.0,
66400,1860.5,27.7,47.0,119.1,395.0,1867.0,14.0,
66500,1863.5,84.0,33.7,119.1,395.0,1867.0,14.0,
66600,1838.2,66.1,70.2,121.1,178.0,954.0,17.0,
66700,1870.8,91.2,76.1,257.8,178.0,954.0,17.0,
66900,1840.0,78.7,107.3,195.3,178.0,954.0,17.0,
67000,1868.9,85.5,111.6,99.6,178.0,954.0,17.0,
67100,1868.4,32.5,121.7,132.8,258.0,1287.0,13.0,
67200,1859.9,29.1,121.7,107.4,258.0,1287.0,13.0,
67300,1860.8,29.5,121.8,130.9,258.0,1287.0,13.0,
67400,1864.1,27.9,121.8,193.4,258.0,1287.0,13.0,
67500,1859.8,27.1,121.3,125.0,258.0,1287.0,13.0,
67600,1861.0,27.6,104.8,119.1,258.0,1287.0,13.0,
67700,1862.5,28.9,100.6,119.1,258.0,1287.0,13.0,
67900,1859.4,28.4,66.6,119.1,258.0,1287.0,13.0,
68000,1863.4,28.0,59.4,119.1,258.0,1287.0,13.0,
68100,1861.9,72.4,34.7,119.1,155.0,922.0,15.0,
68200,1843.5,78.3,66.6,158.2,155.0,922.0,15.0,
68300,1875.8,91.2,71.8,259.8,155.0,922.0,15.0,
68400,1869.3,98.9,87.6,257.8,474.0,2511.0,13.0,
68500,1850.3,78.4,104.9,162.1,474.0,2511.0,13.0,
68600,1875.9,111.0,109.1,156.3,474.0,2511.0,13.0,
68700,1840.5,41.3,125.7,158.2,315.0,1785.0,15.0,
68900,1862.9,26.6,126.1,195.3,315.0,1785.0,15.0,
69000,1865.0,23.1,126.1,226.6,315.0,1785.0,15.0,
69100,1858.2,21.5,126.0,169.9,315.0,1785.0,15.0,
69200,1860.5,28.1,112.3,119.1,315.0,1785.0,15.0,
69300,1864.9,24.6,109.0,119.1,315.0,1785.0,15.0,
69400,1860.3,26.6,96.7,119.1,315.0,1785.0,15.0,
69500,1860.5,28.9,77.4,119.1,315.0,1785.0,15.0,
69600,1862.0,30.1,71.0,121.1,315.0,1785.0,15.0,
69700,1862.1,86.4,33.9,121.1,184.0,1019.0,17.0,
69900,1874.7,107.1,73.0,255.9,184.0,1019.0,17.0,
70000,1857.2,102.3,93.8,238.3,439.0,1958.0,14.0,
70100,1865.0,78.5,108.0,156.3,439.0,1958.0,14.0,
70200,1869.6,114.5,112.1,160.2,439.0,1958.0,14.0,
70300,1851.7,44.1,129.9,160.2,395.0,2033.0,13.0,
70400,1863.8,29.8,130.8,119.1,395.0,2033.0,13.0,
70500,1859.4,30.5,130.9,193.4,395.0,2033.0,13.0,
70600,1862.7,29.6,131.1,220.7,395.0,2033.0,13.0,
70700,1861.3,29.5,131.0,156.3,395.0,2033.0,13.0,
70900,1861.1,30.9,113.6,119.1,395.0,2033.0,13.0,
71000,1860.7,26.3,97.0,119.1,395.0,2033.0,13.0,
71100,1860.6,26.5,80.9,119.1,395.0,2033.0,13.0,
71200,1862.3,26.0,75.4,119.1,395.0,2033.0,13.0,
71300,1860.0,76.5,36.6,119.1,196.0,1071.0,17.0,
71400,1851.3,61.1,65.6,181.6,196.0,1071.0,17.0,
71500,1872.3,102.6,70.2,257.8,196.0,1071.0,17.0,
71600,1852.3,94.1,91.3,232.4,304.0,1674.0,14.0,
71700,1854.6,77.5,102.6,162.1,304.0,1674.0,14.0,
71900,1850.7,46.8,122.0,191.4,315.0,1786.0,13.0,
72000,1853.8,29.5,128.1,128.9,315.0,1786.0,13.0,
72100,1861.2,24.8,128.1,199.2,315.0,1786.0,13.0,
72200,1860.1,25.3,128.0,228.5,315.0,1786.0,13.0,
72300,1863.6,25.7,128.1,199.2,315.0,1786.0,13.0,
72400,1859.6,28.8,115.0,121.1,315.0,1786.0,13.0,
72500,1864.5,26.0,112.2,121.1,315.0,1786.0,13.0,
72600,1861.0,24.4,95.6,119.1,315.0,1786.0,13.0,
72700,1859.7,24.6,83.1,119.1,315.0,1786.0,13.0,
72900,1857.5,70.0,49.9,121.1,156.0,920.0,15.0,
73000,1851.3,57.0,59.4,136.7,156.0,920.0,15.0,
73100,1872.6,89.9,64.3,232.4,156.0,920.0,15.0,
73200,1858.0,99.7,84.1,224.6,403.0,2334.0,14.0,
73300,1847.9,74.6,98.0,125.0,403.0,2334.0,14.0,
73400,1882.5,87.4,102.2,158.2,403.0,2334.0,14.0,
73500,1857.2,46.4,116.7,164.1,248.0,1349.0,15.0,
73600,1853.2,28.7,123.3,127.0,248.0,1349.0,15.0,
73700,1863.1,28.3,123.3,199.2,248.0,1349.0,15.0,
73900,1860.0,29.2,123.5,201.2,248.0,1349.0,15.0,
74000,1861.6,27.5,112.6,119.1,248.0,1349.0,15.0,
74100,1865.6,28.0,110.3,119.1,248.0,1349.0,15.0,
74200,1861.8,29.3,96.2,119.1,248.0,1349.0,15.0,
74300,1860.9,28.5,82.5,119.1,248.0,1349.0,15.0,
74400,1861.5,27.3,77.2,119.1,248.0,1349.0,15.0,
74500,1858.2,77.1,52.6,119.1,170.0,1064.0,18.0,
74600,1844.2,71.8,67.5,121.1,170.0,1064.0,18.0,
74700,1879.6,68.6,72.8,255.9,170.0,1064.0,18.0,
74900,1842.7,98.5,105.0,166.0,170.0,1064.0,18.0,
75000,1870.2,100.1,110.4,162.1,170.0,1064.0,18.0,
75100,1862.0,55.5,123.7,166.0,346.0,2301.0,13.0,
75200,1848.9,28.8,129.3,101.6,346.0,2301.0,13.0,
75300,1861.9,32.6,129.0,191.4,346.0,2301.0,13.0,
75400,1863.3,30.5,129.0,224.6,346.0,2301.0,13.0,
75500,1860.1,28.5,129.0,177.7,346.0,2301.0,13.0,
75600,1859.3,25.9,115.3,119.1,346.0,2301.0,13.0,
75700,1862.1,29.6,112.0,119.1,346.0,2301.0,13.0,
75900,1863.1,28.3,82.9,119.1,346.0,2301.0,13.0,
76000,1858.1,30.7,75.6,119.1,346.0,2301.0,13.0,
76100,1860.2,82.8,50.4,119.1,278.0,1578.0,16.0,
76200,1852.3,81.9,61.1,121.1,278.0,1578.0,16.0,
76300,1867.8,88.7,68.2,224.6,278.0,1578.0,16.0,
76400,1878.7,94.2,80.7,195.3,327.0,1946.0,14.0,
76500,1841.3,86.0,99.4,101.6,327.0,1946.0,14.0,
76600,1872.0,113.3,105.2,158.2,327.0,1946.0,14.0,
76700,1846.4,56.1,120.9,189.5,347.0,1692.0,14.0,
76900,1863.4,29.9,126.8,191.4,347.0,1692.0,14.0,
77000,1863.3,25.2,126.8,224.6,347.0,1692.0,14.0,
77100,1862.9,26.2,126.7,191.4,347.0,1692.0,14.0,
77200,1858.4,26.9,115.9,119.1,347.0,1692.0,14.0,
77300,1865.3,28.6,112.0,119.1,347.0,1692.0,14.0,
77400,1863.7,28.4,103.4,121.1,347.0,1692.0,14.0,
77500,1859.9,24.3,85.6,119.1,347.0,1692.0,14.0,
77600,1863.4,26.9,78.1,119.1,347.0,1692.0,14.0,
77700,1863.3,83.6,50.5,119.1,307.0,1476.0,14.0,
77900,1868.1,100.9,69.7,238.3,307.0,1476.0,14.0,
78000,1858.1,109.9,85.8,224.6,366.0,1939.0,15.0,
78100,1853.9,73.7,105.4,119.1,366.0,1939.0,15.0,
78200,1870.5,113.6,109.3,127.0,366.0,1939.0,15.0,
78300,1856.8,66.9,125.5,160.2,371.0,1936.0,14.0,
78400,1860.0,27.7,130.3,119.1,371.0,1936.0,14.0,
78500,1861.0,28.0,130.2,166.0,371.0,1936.0,14.0,
78600,1863.0,27.5,130.3,199.2,371.0,1936.0,14.0,
78700,1864.1,27.3,130.3,191.4,371.0,1936.0,14.0,
78900,1858.9,27.2,115.1,119.1,371.0,1936.0,14.0,
79000,1865.4,26.9,103.7,119.1,371.0,1936.0,14.0,
79100,1861.3,23.8,83.5,119.1,371.0,1936.0,14.0,
79200,1863.2,30.5,78.5,119.1,371.0,1936.0,14.0,
79300,1859.3,62.1,48.8,119.1,371.0,1936.0,14.0,
79400,1850.4,68.0,53.5,119.1,371.0,1936.0,14.0,
79500,1868.6,99.9,60.0,232.4,371.0,1936.0,14.0,
79600,1859.0,106.6,82.1,230.5,383.0,2161.0,14.0,
79700,1856.2,81.9,100.4,119.1,383.0,2161.0,14.0,
79900,1856.2,85.0,116.6,132.8,418.0,2340.0,14.0,
80000,1848.2,30.7,128.6,99.6,418.0,2340.0,14.0,
80100,1860.1,23.1,128.7,166.0,418.0,2340.0,14.0,
80200,1863.4,22.2,128.5,195.3,418.0,2340.0,14.0,
80300,1858.0,27.4,128.4,158.2,418.0,2340.0,14.0,
80400,1858.3,31.7,121.5,121.1,418.0,2340.0,14.0,
80500,1861.0,27.5,118.6,119.1,418.0,2340.0,14.0,
80600,1859.2,27.4,104.6,119.1,418.0,2340.0,14.0,
80700,1864.5,31.0,87.1,119.1,418.0,2340.0,14.0,
80900,1858.1,77.6,63.8,121.1,418.0,2340.0,14.0,
81000,1856.4,76.7,58.8,121.1,297.0,1806.0,16.0,
81100,1865.2,90.5,67.7,240.2,297.0,1806.0,16.0,
81200,1868.5,119.4,82.5,228.5,475.0,2474.0,14.0,
81300,1841.0,85.4,103.9,109.4,475.0,2474.0,14.0,
81400,1881.3,79.4,108.7,117.2,475.0,2474.0,14.0,
81500,1870.6,82.3,116.9,158.2,383.0,2092.0,13.0,
81600,1845.2,37.7,130.2,99.6,383.0,2092.0,13.0,
81700,1863.2,23.8,130.3,156.3,383.0,2092.0,13.0,
81900,1857.2,28.3,130.1,191.4,383.0,2092.0,13.0,
82000,1858.4,24.3,120.9,121.1,383.0,2092.0,13.0,
82100,1858.2,30.1,116.1,119.1,383.0,2092.0,13.0,
82200,1864.6,22.3,106.3,121.1,383.0,2092.0,13.0,
82300,1860.4,27.3,85.4,121.1,383.0,2092.0,13.0,
82400,1859.9,26.7,79.0,119.1,383.0,2092.0,13.0,
82500,1862.6,71.8,66.3,119.1,383.0,2092.0,13.0,
82600,1844.7,76.8,61.8,119.1,249.0,1488.0,18.0,
82700,1875.0,84.1,70.6,230.5,249.0,1488.0,18.0,
82900,1836.8,96.2,105.6,121.1,249.0,1488.0,18.0,
83000,1863.8,93.9,110.5,97.7,249.0,1488.0,18.0,
83100,1875.8,96.2,118.2,160.2,448.0,2124.0,13.0,
83200,1841.8,29.5,132.1,121.1,448.0,2124.0,13.0,
83300,1860.7,26.8,132.1,134.8,448.0,2124.0,13.0,
83400,1858.2,26.0,132.1,199.2,448.0,2124.0,13.0,
83500,1860.4,26.9,132.0,209.0,448.0,2124.0,13.0,
83600,1861.5,29.1,121.3,121.1,448.0,2124.0,13.0,
83700,1861.2,27.1,116.3,121.1,448.0,2124.0,13.0,
83900,1863.0,25.8,85.9,121.1,448.0,2124.0,13.0,
84000,1858.9,23.6,79.2,119.1,448.0,2124.0,13.0,
84100,1859.2,75.5,67.2,119.1,448.0,2124.0,13.0,
84200,1845.1,129.8,63.7,121.1,416.0,2312.0,15.0,
84300,1861.5,107.8,81.2,199.2,416.0,2312.0,15.0,
84400,1882.9,134.7,92.0,193.4,433.0,2437.0,13.0,
84500,1843.9,101.4,113.6,99.6,433.0,2437.0,13.0,
84600,1860.5,116.7,122.2,97.7,433.0,2437.0,13.0,
84700,1863.5,120.6,130.0,119.1,466.0,2428.0,13.0,
84900,1862.2,22.6,143.9,97.7,466.0,2428.0,13.0,
85000,1863.8,31.5,143.9,166.0,466.0,2428.0,13.0,
85100,1863.3,25.7,144.0,189.5,466.0,2428.0,13.0,
85200,1858.8,27.9,132.9,121.1,466.0,2428.0,13.0,
85300,1864.8,26.5,123.1,121.1,466.0,2428.0,13.0,
85400,1861.3,26.0,115.3,119.1,466.0,2428.0,13.0,
85500,1859.8,32.2,94.3,119.1,466.0,2428.0,13.0,
85600,1861.4,28.7,82.8,121.1,466.0,2428.0,13.0,
85700,1862.0,64.8,70.0,121.1,466.0,2428.0,13.0,
85900,1859.0,90.5,82.8,201.2,466.0,2428.0,13.0,
86000,1875.7,102.3,90.7,197.3,466.0,2428.0,13.0,
86100,1857.0,89.5,110.4,127.0,459.0,2319.0,14.0,
86200,1855.6,92.2,119.4,97.7,459.0,2319.0,14.0,
86300,1873.7,119.2,126.0,162.1,459.0,2319.0,14.0,
86400,1850.1,29.3,138.1,154.3,415.0,1896.0,14.0,
86500,1859.8,26.4,138.1,117.2,415.0,1896.0,14.0,
86600,1863.6,29.8,138.0,193.4,415.0,1896.0,14.0,
86700,1864.3,24.2,138.0,220.7,415.0,1896.0,14.0,
86900,1861.9,26.3,115.3,121.1,415.0,1896.0,14.0,
87000,1863.0,26.6,109.1,121.1,415.0,1896.0,14.0,
87100,1862.1,26.8,89.1,121.1,415.0,1896.0,14.0,
87200,1863.4,27.8,76.7,121.1,415.0,1896.0,14.0,
87300,1865.7,26.8,65.2,121.1,415.0,1896.0,14.0,
87400,1862.6,125.9,39.3,121.1,551.0,2643.0,14.0,
87500,1840.1,96.3,82.7,185.5,551.0,2643.0,14.0,
87600,1866.0,94.6,91.6,195.3,551.0,2643.0,14.0,
87700,1879.1,105.6,102.5,162.1,445.0,2219.0,13.0,
87900,1871.8,103.4,124.3,119.1,445.0,2219.0,13.0,
88000,1869.7,35.3,132.6,158.2,445.0,2219.0,13.0,
88100,1858.8,30.7,132.6,97.7,445.0,2219.0,13.0,
88200,1858.7,35.8,132.8,95.7,445.0,2219.0,13.0,
88300,1860.9,33.6,133.0,99.6,445.0,2219.0,13.0,
88400,1862.3,31.0,131.2,119.1,445.0,2219.0,13.0,
88500,1856.6,31.7,109.5,119.1,445.0,2219.0,13.0,
88600,1862.2,31.1,102.3,119.1,445.0,2219.0,13.0,
88700,1864.8,28.0,91.7,119.1,445.0,2219.0,13.0,
88900,1859.1,29.6,59.1,119.1,445.0,2219.0,13.0,
89000,1860.0,106.3,48.8,119.1,482.0,2320.0,15.0,
89100,1844.5,95.8,82.6,146.5,482.0,2320.0,15.0,
89200,1872.0,117.7,91.9,226.6,482.0,2320.0,15.0,
89300,1849.5,119.9,106.7,195.3,516.0,2326.0,13.0,hard
89400,1861.9,93.9,123.3,97.7,516.0,2326.0,13.0,
89500,1874.8,117.0,128.1,97.7,516.0,2326.0,13.0,
89600,1857.6,31.0,138.6,101.6,516.0,2326.0,13.0,
89700,1862.6,24.3,138.4,97.7,516.0,2326.0,13.0,
89900,1859.8,29.0,138.0,128.9,516.0,2326.0,13.0,
90000,1859.0,26.7,134.4,121.1,516.0,2326.0,13.0,
90100,1859.0,25.8,116.6,119.1,516.0,2326.0,13.0,
90200,1860.7,27.7,109.2,121.1,516.0,2326.0,13.0,
90300,1863.6,24.9,94.3,121.1,516.0,2326.0,13.0,
90400,1860.2,28.8,71.0,121.1,516.0,2326.0,13.0,
90500,1862.2,26.6,61.6,119.1,516.0,2326.0,13.0,
90600,1856.8,121.1,34.1,121.1,516.0,2326.0,13.0,
90700,1853.1,93.4,80.7,121.1,479.0,2783.0,14.0,
90900,1873.5,132.6,101.1,154.3,408.0,2389.0,12.0,
91000,1836.7,90.4,119.6,97.7,408.0,2389.0,12.0,
91100,1875.7,74.7,125.0,97.7,408.0,2389.0,12.0,
91200,1874.9,33.8,131.3,128.9,408.0,2389.0,12.0,
91300,1857.3,28.7,131.3,97.7,408.0,2389.0,12.0,
91400,1861.0,24.6,131.4,95.7,408.0,2389.0,12.0,
91500,1865.0,26.6,131.3,99.6,408.0,2389.0,12.0,
91600,1863.7,23.6,130.5,121.1,408.0,2389.0,12.0,
91700,1860.0,24.0,107.9,121.1,408.0,2389.0,12.0,
91900,1862.5,24.9,89.2,121.1,408.0,2389.0,12.0,
92000,1862.2,22.9,61.9,121.1,408.0,2389.0,12.0,
92100,1861.3,22.4,50.0,121.1,408.0,2389.0,12.0,
92200,1863.8,126.0,32.7,121.1,408.0,2389.0,12.0,
92300,1852.8,109.4,74.2,119.1,527.0,2310.0,13.0,
92400,1863.0,86.7,88.7,125.0,527.0,2310.0,13.0,
92500,1875.2,133.9,95.9,156.3,411.0,2421.0,14.0,
92600,1841.2,102.1,121.8,99.6,474.0,2448.0,13.0,
92700,1860.3,96.2,127.9,97.7,474.0,2448.0,13.0,
92900,1853.5,28.6,133.8,128.9,474.0,2448.0,13.0,
93000,1863.0,27.6,133.9,93.8,474.0,2448.0,13.0,
93100,1863.8,28.6,134.1,70.3,474.0,2448.0,13.0,
93200,1861.6,29.9,133.6,119.1,474.0,2448.0,13.0,
93300,1861.4,27.7,115.8,119.1,474.0,2448.0,13.0,
93400,1861.4,35.1,105.2,119.1,474.0,2448.0,13.0,
93500,1862.6,28.4,99.3,119.1,474.0,2448.0,13.0,
93600,1862.0,28.8,65.2,119.1,474.0,2448.0,13.0,
93700,1859.2,25.1,52.4,119.1,474.0,2448.0,13.0,
93900,1858.5,138.8,69.7,119.1,607.0,2997.0,14.0,
94000,1858.0,99.9,94.7,91.8,607.0,2997.0,14.0,
94100,1878.9,112.8,102.8,97.7,607.0,2997.0,14.0,
94200,1864.0,112.6,114.4,97.7,514.0,2193.0,13.0,
94300,1844.8,102.1,128.6,95.7,514.0,2193.0,13.0,
94400,1879.6,35.6,134.3,97.7,514.0,2193.0,13.0,
94500,1861.5,23.4,134.2,119.1,514.0,2193.0,13.0,
94600,1859.0,26.7,134.1,95.7,514.0,2193.0,13.0,
94700,1858.7,25.1,134.0,68.4,514.0,2193.0,13.0,
94900,1861.2,24.0,119.7,121.1,514.0,2193.0,13.0,
95000,1858.7,26.8,101.0,121.1,514.0,2193.0,13.0,
95100,1858.8,26.4,92.6,119.1,514.0,2193.0,13.0,
95200,1862.5,24.1,77.7,119.1,514.0,2193.0,13.0,
95300,1861.7,27.7,50.5,119.1,514.0,2193.0,13.0,
95400,1863.9,90.5,32.3,121.1,514.0,2193.0,13.0,
95500,1874.5,144.6,60.8,121.1,562.0,2856.0,14.0,
95600,1835.2,96.2,91.5,97.7,562.0,2856.0,14.0,
95700,1884.2,92.4,99.0,107.4,562.0,2856.0,14.0,
95900,1838.8,95.8,128.6,97.7,562.0,2856.0,14.0,
96000,1871.8,39.3,134.1,125.0,562.0,2856.0,14.0,
96100,1868.0,29.1,135.2,160.2,562.0,2856.0,14.0,
96200,1862.0,27.9,135.2,97.7,562.0,2856.0,14.0,
96300,1864.2,24.4,135.2,66.4,562.0,2856.0,14.0,
96400,1860.2,28.1,135.2,97.7,562.0,2856.0,14.0,
96500,1858.7,31.7,124.7,121.1,562.0,2856.0,14.0,
96600,1858.4,25.4,104.6,119.1,562.0,2856.0,14.0,
96700,1860.9,25.1,97.6,119.1,562.0,2856.0,14.0,
96900,1862.4,27.1,53.2,119.1,562.0,2856.0,14.0,
97000,1860.3,79.1,37.5,119.1,562.0,2856.0,14.0,
97100,1884.0,144.2,51.9,119.1,586.0,3095.0,13.0,
97200,1839.2,114.0,91.2,70.3,586.0,3095.0,13.0,
97300,1860.8,93.9,100.0,97.7,586.0,3095.0,13.0,
97400,1884.8,113.6,109.0,121.1,473.0,2521.0,14.0,
97500,1843.7,77.2,129.1,97.7,473.0,2521.0,14.0,
97600,1876.4,41.4,133.9,97.7,473.0,2521.0,14.0,
97700,1859.4,27.9,135.3,132.8,473.0,2521.0,14.0,
97900,1860.5,30.6,135.3,74.2,473.0,2521.0,14.0,
98000,1865.2,25.7,135.3,105.5,473.0,2521.0,14.0,
98100,1859.3,26.4,129.2,121.1,473.0,2521.0,14.0,
98200,1861.0,23.5,105.2,121.1,473.0,2521.0,14.0,
98300,1858.1,26.7,96.8,121.1,473.0,2521.0,14.0,
98400,1863.2,27.8,86.4,121.1,473.0,2521.0,14.0,
98500,1859.6,28.8,51.6,121.1,473.0,2521.0,14.0,
98600,1861.7,91.6,36.8,121.1,473.0,2521.0,14.0,
98700,1884.2,143.7,51.8,119.1,473.0,2521.0,14.0,
