Time(ms),Raw_ADC
0,1826
1,1833
2,1842
3,1840
4,1869
5,1869
6,1878
7,1882
8,1882
9,1878
10,1891
11,1894
12,1874
13,1856
14,1842
15,1824
16,1818
17,1827
18,1825
19,1838
20,1856
21,1861
22,1867
23,1880
24,1877
25,1875
26,1882
27,1885
28,1881
29,1857
30,1857
31,1843
32,1830
33,1823
34,1829
35,1839
36,1847
37,1859
38,1872
39,1872
40,1889
41,1886
42,1879
43,1889
44,1894
45,1869
46,1867
47,1845
48,1841
49,1827
50,1827
51,1831
52,1842
53,1840
54,1861
55,1870
56,1877
57,1878
58,1887
59,1877
60,1901
61,1899
62,1877
63,1863
64,1853
65,1830
66,1826
67,1824
68,1839
69,1837
70,1853
71,1859
72,1870
73,1890
74,1894
75,1883
76,1887
77,1899
78,1881
79,1870
80,1845
81,1840
82,1833
83,1814
84,1818
85,1834
86,1845
87,1853
88,1857
89,1863
90,1883
91,1888
92,1887
93,1900
94,1893
95,1877
96,1858
97,1844
98,1829
99,1826
100,1827
101,1829
102,1841
103,1854
104,1862
105,1869
106,1875
107,1886
108,1886
109,1887
110,1903
111,1883
112,1880
113,1854
114,1843
115,1814
116,1818
117,1821
118,1826
119,1840
120,1851
121,1861
122,1872
123,1871
124,1883
125,1889
126,1891
127,1902
128,1874
129,1868
130,1857
131,1840
132,1829
133,1823
134,1826
135,1840
136,1845
137,1855
138,1868
139,1885
140,1889
141,1882
142,1885
143,1885
144,1895
145,1884
146,1862
147,1843
148,1835
149,1827
150,1824
151,1839
152,1837
153,1851
154,1867
155,1872
156,1878
157,1893
158,1888
159,1889
160,1904
161,1894
162,1868
163,1865
164,1854
165,1825
166,1827
167,1826
168,1840
169,1850
170,1856
171,1862
172,1877
173,1870
174,1882
175,1878
176,1878
177,1891
178,1884
179,1872
180,1851
181,1835
182,1833
183,1823
184,1829
185,1831
186,1840
187,1854
188,1876
189,1872
190,1886
191,1889
192,1890
193,1893
194,1896
195,1873
196,1862
197,1854
198,1845
199,1827
200,1823
201,1827
202,1840
203,1853
204,1860
205,1874
206,1874
207,1878
208,1882
209,1885
210,1890
211,1899
212,1872
213,1858
214,1849
215,1837
216,1828
217,1823
218,1833
219,1841
220,1861
221,1858
222,1873
223,1888
224,1887
225,1881
226,1879
227,1898
228,1882
229,1872
230,1860
231,1842
232,1830
233,1814
234,1821
235,1826
236,1841
237,1859
238,1872
239,1874
240,1882
241,1878
242,1885
243,1891
244,1894
245,1877
246,1856
247,1843
248,1833
249,1825
250,1830
251,1839
252,1846
253,1857
254,1857
255,1871
256,1875
257,1883
258,1884
259,1888
260,1902
261,1879
262,1866
263,1855
264,1843
265,1821
266,1827
267,1829
268,1849
269,1845
270,1853
271,1863
272,1871
273,1872
274,1886
275,1881
276,1883
277,1890
278,1879
279,1872
280,1854
281,1840
282,1837
283,1834
284,1835
285,1849
286,1845
287,1856
288,1862
289,1870
290,1888
291,1878
292,1877
293,1879
294,1879
295,1873
296,1856
297,1847
298,1834
299,1840
300,1834
301,1833
302,1843
303,1847
304,1857
305,1870
306,1872
307,1877
308,1889
309,1887
310,1898
311,1879
312,1856
313,1851
314,1840
315,1834
316,1829
317,1831
318,1831
319,1846
320,1862
321,1861
322,1863
323,1879
324,1878
325,1873
326,1873
327,1887
328,1873
329,1863
330,1847
331,1837
332,1840
333,1837
334,1837
335,1842
336,1843
337,1858
338,1872
339,1874
340,1882
341,1887
342,1881
343,1894
344,1889
345,1881
346,1866
347,1860
348,1845
349,1843
350,1838
351,1839
352,1843
353,1833
354,1855
355,1859
356,1869
357,1882
358,1874
359,1884
360,1884
361,1894
362,1858
363,1851
364,1842
365,1837
366,1835
367,1834
368,1840
369,1847
370,1851
371,1871
372,1865
373,1883
374,1887
375,1883
376,1872
377,1889
378,1875
379,1873
380,1856
381,1837
382,1829
383,1826
384,1829
385,1840
386,1847
387,1859
388,1865
389,1872
390,1872
391,1879
392,1879
393,1883
394,1886
395,1867
396,1869
397,1856
398,1844
399,1830
400,1835
401,1835
402,1840
403,1852
404,1866
405,1877
406,1872
407,1883
408,1875
409,1878
410,1887
411,1879
412,1859
413,1855
414,1841
415,1824
416,1830
417,1831
418,1839
419,1840
420,1852
421,1861
422,1872
423,1879
424,1878
425,1878
426,1875
427,1887
428,1876
429,1859
430,1845
431,1848
432,1836
433,1834
434,1836
435,1841
436,1850
437,1855
438,1865
439,1873
440,1872
441,1887
442,1878
443,1872
444,1878
445,1874
446,1861
447,1849
448,1854
449,1842
450,1830
451,1840
452,1841
453,1853
454,1856
455,1872
456,1872
457,1886
458,1887
459,1876
460,1895
461,1883
462,1873
463,1850
464,1848
465,1837
466,1838
467,1834
468,1834
469,1849
470,1854
471,1855
472,1873
473,1877
474,1878
475,1872
476,1875
477,1878
478,1881
479,1857
480,1850
481,1854
482,1838
483,1837
484,1837
485,1830
486,1846
487,1071
488,2462
489,1930
490,1987
491,2080
492,2127
493,2160
494,2158
495,2131
496,2130
497,2107
498,1871
499,1643
500,1670
501,1777
502,1857
503,1873
504,1876
505,1860
506,1809
507,1731
508,1648
509,1587
510,1535
511,1514
512,1513
513,1531
514,1553
515,1571
516,1651
517,1727
518,1744
519,2599
520,1939
521,1957
522,2055
523,2133
524,2191
525,2205
526,2197
527,2240
528,2192
529,1920
530,1673
531,1645
532,1763
533,1872
534,1938
535,1956
536,1934
537,1853
538,1746
539,1618
540,1507
541,1434
542,1425
543,1485
544,1579
545,1642
546,1698
547,1769
548,1807
549,1844
550,2706
551,2002
552,1930
553,2080
554,2176
555,2224
556,2237
557,2229
558,2241
559,2195
560,1979
561,1747
562,1650
563,1743
564,1875
565,1945
566,1949
567,1914
568,1819
569,1699
570,1535
571,1441
572,1407
573,1406
574,1481
575,1578
576,1661
577,1758
578,1812
579,1846
580,1882
581,2629
582,2065
583,1904
584,2043
585,2155
586,2214
587,2251
588,2224
589,2201
590,2149
591,2047
592,1866
593,1751
594,1833
595,1950
596,1987
597,1971
598,1907
599,1810
600,1668
601,1503
602,1405
603,1364
604,1407
605,1457
606,1507
607,1599
608,1707
609,1796
610,1884
611,1904
612,2336
613,2214
614,1845
615,1955
616,2031
617,2112
618,2112
619,2034
620,1954
621,1941
622,2211
623,2176
624,2032
625,2065
626,2094
627,2093
628,2030
629,1943
630,1798
631,1622
632,1450
633,1330
634,1308
635,1354
636,1437
637,1563
638,1648
639,1740
640,1829
641,1874
642,1905
643,1937
644,2320
645,1860
646,1909
647,1987
648,2081
649,2061
650,1911
651,1726
652,1874
653,2362
654,2204
655,2145
656,2159
657,2153
658,2122
659,2059
660,1968
661,1825
662,1648
663,1456
664,1349
665,1328
666,1339
667,1404
668,1509
669,1620
670,1687
671,1763
672,1824
673,1861
674,1296
675,2430
676,1862
677,1873
678,1923
679,1969
680,1909
681,1707
682,1491
683,2125
684,2593
685,2437
686,2288
687,2231
688,2202
689,2160
690,2087
691,1977
692,1822
693,1651
694,1489
695,1376
696,1307
697,1329
698,1391
699,1477
700,1591
701,1678
702,1757
703,1822
704,1861
705,1395
706,2541
707,1905
708,1776
709,1791
710,1861
711,1772
712,1570
713,1506
714,2474
715,2754
716,2515
717,2305
718,2224
719,2191
720,2139
721,2096
722,1999
723,1870
724,1700
725,1527
726,1415
727,1374
728,1374
729,1389
730,1440
731,1569
732,1666
733,1725
734,1778
735,1830
736,1939
737,2559
738,1942
739,1715
740,1716
741,1775
742,1654
743,1520
744,1709
745,2736
746,2801
747,2544
748,2307
749,2180
750,2139
751,2119
752,2087
753,1983
754,1859
755,1707
756,1535
757,1429
758,1366
759,1359
760,1414
761,1533
762,1612
763,1669
764,1723
765,1762
766,1806
767,1831
768,2529
769,1994
770,1664
771,1600
772,1623
773,1493
774,1462
775,1876
776,2970
777,2929
778,2599
779,2330
780,2205
781,2155
782,2112
783,2058
784,1977
785,1868
786,1701
787,1535
788,1403
789,1329
790,1311
791,1347
792,1467
793,1633
794,1758
795,1808
796,1830
797,1838
798,1840
799,2393
800,2090
801,1652
802,1564
803,1563
804,1434
805,1424
806,1930
807,3018
808,2915
809,2583
810,2305
811,2221
812,2189
813,2165
814,2113
815,2018
816,1877
817,1711
818,1535
819,1391
820,1305
821,1293
822,1335
823,1445
824,1575
825,1668
826,1744
827,1822
828,1856
829,1866
830,2067
831,2199
832,1680
833,1530
834,1507
835,1384
836,1361
837,1984
838,2994
839,2887
840,2558
841,2290
842,2211
843,2205
844,2203
845,2159
846,2067
847,1927
848,1761
849,1569
850,1419
851,1316
852,1280
853,1287
854,1405
855,1523
856,1631
857,1727
858,1793
859,1840
860,1886
861,1719
862,2316
863,1715
864,1528
865,1477
866,1355
867,1341
868,2059
869,2953
870,2846
871,2527
872,2289
873,2214
874,2224
875,2196
876,2151
877,2095
878,1991
879,1795
880,1616
881,1466
882,1359
883,1296
884,1296
885,1362
886,1472
887,1603
888,1685
889,1766
890,1823
891,1867
892,1093
893,2449
894,1831
895,1612
896,1521
897,1413
898,1329
899,1936
900,2874
901,2821
902,2517
903,2267
904,2192
905,2191
906,2183
907,2162
908,2105
909,2006
910,1872
911,1703
912,1523
913,1408
914,1319
915,1279
916,1331
917,1433
918,1532
919,1631
920,1713
921,1777
922,1830
923,1315
924,2519
925,1853
926,1586
927,1509
928,1443
929,1371
930,2001
931,2915
932,2832
933,2515
934,2256
935,2142
936,2144
937,2160
938,2146
939,2113
940,2007
941,1891
942,1728
943,1581
944,1466
945,1361
946,1323
947,1325
948,1424
949,1518
950,1600
951,1677
952,1743
953,1786
954,1923
955,2606
956,1937
957,1600
958,1516
959,1456
960,1375
961,1927
962,2926
963,2906
964,2559
965,2279
966,2143
967,2119
968,2131
969,2128
970,2096
971,2019
972,1979
973,1896
974,1766
975,1648
976,1535
977,1184
978,1067
979,1309
980,1473
981,1581
982,1655
983,1703
984,1748
985,1793
986,2559
987,2010
988,1584
989,1487
990,1470
991,1363
992,1814
993,2821
994,2933
995,2624
996,2315
997,2161
998,2150
999,2151
1000,2128
1001,2096
1002,2019
1003,1917
1004,1778
1005,1646
1006,1503
1007,1399
1008,1353
1009,1357
1010,1424
1011,1523
1012,1612
1013,1668
1014,1711
1015,1761
1016,1787
1017,2453
1018,2069
1019,1584
1020,1414
1021,1383
1022,1298
1023,1754
1024,2886
1025,2961
1026,2635
1027,2359
1028,2209
1029,2169
1030,2181
1031,2171
1032,2122
1033,2058
1034,1936
1035,1791
1036,1629
1037,1498
1038,1408
1039,1363
1040,1339
1041,1400
1042,1489
1043,1584
1044,1690
1045,1741
1046,1785
1047,1797
1048,2112
1049,2170
1050,1589
1051,1406
1052,1398
1053,1298
1054,1659
1055,2757
1056,2973
1057,2663
1058,2361
1059,2191
1060,2179
1061,2209
1062,2214
1063,2167
1064,2099
1065,1983
1066,1830
1067,1663
1068,1516
1069,1392
1070,1312
1071,1307
1072,1361
1073,1437
1074,1564
1075,1650
1076,1722
1077,1782
1078,1843
1079,1328
1080,2363
1081,1695
1082,1446
1083,1378
1084,1303
1085,1505
1086,2541
1087,2924
1088,2673
1089,2367
1090,2203
1091,2179
1092,2202
1093,2211
1094,2222
1095,2151
1096,2028
1097,1891
1098,1757
1099,1585
1100,1423
1101,1335
1102,1302
1103,1327
1104,1409
1105,1503
1106,1618
1107,1691
1108,1760
1109,1810
1110,1862
1111,1889
1112,1904
1113,1902
1114,1904
1115,1899
1116,1892
1117,1890
1118,1891
1119,1901
1120,1898
1121,1919
1122,1920
1123,1936
1124,1947
1125,1943
1126,1931
1127,1925
1128,1922
1129,1891
1130,1870
1131,1856
1132,1840
1133,1835
1134,1827
1135,1836
1136,1846
1137,1859
1138,1867
1139,1895
1140,1887
1141,1904
1142,1897
1143,1891
1144,1909
1145,1904
1146,1872
1147,1859
1148,1850
1149,1827
1150,1821
1151,1825
1152,1840
1153,1847
1154,1866
1155,1871
1156,1882
1157,1885
1158,1894
1159,1895
1160,1895
1161,1903
1162,1872
1163,1847
1164,1847
1165,1821
1166,1822
1167,1817
1168,1838
1169,1841
1170,1843
1171,1858
1172,1884
1173,1879
1174,1882
1175,1887
1176,1887
1177,1902
1178,1903
1179,1874
1180,1861
1181,1847
1182,1837
1183,1815
1184,1821
1185,1818
1186,1840
1187,1854
1188,1882
1189,1891
1190,1906
1191,1918
1192,1902
1193,1883
1194,1873
1195,1845
1196,1836
1197,1841
1198,1821
1199,1837
1200,1841
1201,1825
1202,1840
1203,1840
1204,1838
1205,1841
1206,1868
1207,1873
1208,1890
1209,1889
1210,1883
1211,1901
1212,1893
1213,1861
1214,1857
1215,1840
1216,1828
1217,1824
1218,1818
1219,1837
1220,1846
1221,1867
1222,1872
1223,1888
1224,1897
1225,1872
1226,1869
1227,1874
1228,1872
1229,1876
1230,1871
1231,1851
1232,1841
1233,1823
1234,1827
1235,1830
1236,1847
1237,1847
1238,1861
1239,1866
1240,1888
1241,1883
1242,1885
1243,1886
1244,1903
1245,1884
1246,1874
1247,1843
1248,1841
1249,1821
1250,1819
1251,1825
1252,1830
1253,1840
1254,1861
1255,1858
1256,1868
1257,1879
1258,1882
1259,1881
1260,1883
1261,1888
1262,1882
1263,1856
1264,1854
1265,1844
1266,1838
1267,1827
1268,1839
1269,1841
1270,1849
1271,1851
1272,1857
1273,1863
1274,1897
1275,1882
1276,1878
1277,1886
1278,1893
1279,1866
1280,1857
1281,1840
1282,1827
1283,1823
1284,1815
1285,1815
1286,1838
1287,1846
1288,1865
1289,1868
1290,1880
1291,1878
1292,1879
1293,1886
1294,1898
1295,1885
1296,1866
1297,1854
1298,1845
1299,1830
1300,1815
1301,1821
1302,1826
1303,1840
1304,1863
1305,1859
1306,1873
1307,1872
1308,1884
1309,1881
1310,1884
1311,1891
1312,1877
1313,1856
1314,1835
1315,1822
1316,1816
1317,1812
1318,1817
1319,1835
1320,1843
1321,1856
1322,1863
1323,1872
1324,1871
1325,1878
1326,1879
1327,1881
1328,1893
1329,1862
1330,1860
1331,1842
1332,1830
1333,1823
1334,1818
1335,1824
1336,1838
1337,1840
1338,1861
1339,1863
1340,1872
1341,1881
1342,1883
1343,1871
1344,1890
1345,1890
1346,1863
1347,1843
1348,1840
1349,1823
1350,1819
1351,1819
1352,1838
1353,1835
1354,1841
1355,1857
1356,1862
1357,1872
1358,1883
1359,1875
1360,1882
1361,1894
1362,1869
1363,1862
1364,1837
1365,1824
1366,1826
1367,1823
1368,1822
1369,1834
1370,1836
1371,1853
1372,1859
1373,1853
1374,1865
1375,1872
1376,1872
1377,1876
1378,1887
1379,1865
1380,1846
1381,1839
1382,1837
1383,1819
1384,1821
1385,1825
1386,1835
1387,1833
1388,1857
1389,1871
1390,1873
1391,1882
1392,1879
1393,1881
1394,1894
1395,1893
1396,1856
1397,1839
1398,1830
1399,1834
1400,1822
1401,1819
1402,1829
1403,1823
1404,1843
1405,1851
1406,1859
1407,1873
1408,1876
1409,1874
1410,1885
1411,1892
1412,1879
1413,1857
1414,1836
1415,1840
1416,1821
1417,1818
1418,1819
1419,1827
1420,1851
1421,1852
1422,1867
1423,1863
1424,1872
1425,1879
1426,1881
1427,1887
1428,1888
1429,1867
1430,1847
1431,1840
1432,1834
1433,1808
1434,1811
1435,1814
1436,1827
1437,1837
1438,1843
1439,1863
1440,1869
1441,1878
1442,1876
1443,1882
1444,1893
1445,1894
1446,1862
1447,1858
1448,1840
1449,1815
1450,1818
1451,1821
1452,1829
1453,1839
1454,1858
1455,1847
1456,1867
1457,1872
1458,1878
1459,1875
1460,1875
1461,1895
1462,1887
1463,1856
1464,1840
1465,1822
1466,1814
1467,1811
1468,1824
1469,1828
1470,1843
1471,1851
1472,1860
1473,1872
1474,1877
1475,1884
1476,1879
1477,1891
1478,1899
1479,1870
1480,1864
1481,1847
1482,1847
1483,1828
1484,1822
1485,1823
1486,1835
1487,1838
1488,1861
1489,1873
1490,1881
1491,1895
1492,1882
1493,1875
1494,1889
1495,1902
1496,1870
1497,1853
1498,1840
1499,1833
1500,1810
1501,1799
1502,1807
1503,1823
1504,1841
1505,1859
1506,1874
1507,1882
1508,1867
1509,1872
1510,1872
1511,1892
1512,1882
1513,1871
1514,1842
1515,1839
1516,1826
1517,1821
1518,1819
1519,1828
1520,1834
1521,1853
1522,1855
1523,1868
1524,1872
1525,1872
1526,1877
1527,1882
1528,1891
1529,1873
1530,1861
1531,1842
1532,1838
1533,1826
1534,1823
1535,1835
1536,1840
1537,1840
1538,1856
1539,1872
1540,1881
1541,1879
1542,1887
1543,1885
1544,1898
1545,1898
1546,1870
1547,1854
1548,1842
1549,1827
1550,1830
1551,1824
1552,1831
1553,1840
1554,1847
1555,1857
1556,1872
1557,1863
1558,1887
1559,1886
1560,1889
1561,1897
1562,1895
1563,1870
1564,1845
1565,1838
1566,1829
1567,1829
1568,1818
1569,1836
1570,1851
1571,1858
1572,1863
1573,1875
1574,1881
1575,1878
1576,1889
1577,1895
1578,1895
1579,1873
1580,1852
1581,1842
1582,1818
1583,1819
1584,1815
1585,1825
1586,1836
1587,1840
1588,1847
1589,1862
1590,1872
1591,1878
1592,1888
1593,1885
1594,1887
1595,1899
1596,1871
1597,1857
1598,1840
1599,1834
1600,1827
1601,1825
1602,1834
1603,1844
1604,1856
1605,1855
1606,1874
1607,1872
1608,1890
1609,1883
1610,1888
1611,1899
1612,1885
1613,1869
1614,1845
1615,1833
1616,1817
1617,1820
1618,1826
1619,1840
1620,1851
1621,1857
1622,1866
1623,1872
1624,1887
1625,1883
1626,1887
1627,1898
1628,1903
1629,1876
1630,1859
1631,1841
1632,1844
1633,1825
1634,1824
1635,1823
1636,1840
1637,1845
1638,1858
1639,1871
1640,1878
1641,1887
1642,1887
1643,1879
1644,1897
1645,1886
1646,1863
1647,1853
1648,1839
1649,1840
1650,1830
1651,1826
1652,1834
1653,1834
1654,1858
1655,1862
1656,1869
1657,1886
1658,1883
1659,1886
1660,1886
1661,1898
1662,1887
1663,1867
1664,1846
1665,1843
1666,1826
1667,1820
1668,1822
1669,1841
1670,1839
1671,1858
1672,1856
1673,1862
1674,1876
1675,1873
1676,1883
1677,1894
1678,1900
1679,1867
1680,1872
1681,1854
1682,1837
1683,1825
1684,1826
1685,1825
1686,1840
1687,1849
1688,1862
1689,1866
1690,1882
1691,1884
1692,1888
1693,1887
1694,1900
1695,1899
1696,1870
1697,1865
1698,1847
1699,1823
1700,1825
1701,1826
1702,1835
1703,1834
1704,1841
1705,1857
1706,1857
1707,1872
1708,1882
1709,1887
1710,1883
1711,1895
1712,1882
1713,1859
1714,1853
1715,1843
1716,1837
1717,1829
1718,1820
1719,1835
1720,1847
1721,1861
1722,1861
1723,1870
1724,1885
1725,1889
1726,1884
1727,1889
1728,1895
1729,1872
1730,1872
1731,1845
1732,1839
1733,1820
1734,1819
1735,1818
1736,1837
1737,1851
1738,1846
1739,1869
1740,1877
1741,1882
1742,1887
1743,1887
1744,1892
1745,1903
1746,1879
1747,1855
1748,1838
1749,1834
1750,1821
1751,1824
1752,1824
1753,1842
1754,1859
1755,1870
1756,1872
1757,1877
1758,1884
1759,1882
1760,1890
1761,1899
1762,1881
1763,1869
1764,1850
1765,1835
1766,1822
1767,1816
1768,1830
1769,1840
1770,1840
1771,1855
1772,1868
1773,1872
1774,1876
1775,1886
1776,1884
1777,1889
1778,1903
1779,1879
1780,1863
1781,1855
1782,1837
1783,1821
1784,1821
1785,1821
1786,1840
1787,1853
1788,1851
1789,1872
1790,1869
1791,1887
1792,1886
1793,1875
1794,1893
1795,1890
1796,1859
1797,1858
1798,1850
1799,1831
1800,1827
1801,1830
1802,1825
1803,1840
1804,1847
1805,1867
1806,1867
1807,1872
1808,1886
1809,1886
1810,1882
1811,1899
1812,1889
1813,1863
1814,1858
1815,1845
1816,1827
1817,1819
1818,1819
1819,1831
1820,1840
1821,1855
1822,1854
1823,1865
1824,1859
1825,1876
1826,1878
1827,1887
1828,1886
1829,1872
1830,1861
1831,1850
1832,1827
1833,1822
1834,1827
1835,1823
1836,1840
1837,1850
1838,1865
1839,1859
1840,1875
1841,1878
1842,1884
1843,1887
1844,1898
1845,1893
1846,1869
1847,1854
1848,1840
1849,1836
1850,1822
1851,1825
1852,1833
1853,1836
1854,1845
1855,1859
1856,1867
1857,1882
1858,1887
1859,1886
1860,1886
1861,1899
1862,1885
1863,1863
1864,1856
1865,1840
1866,1823
1867,1827
1868,1822
1869,1836
1870,1850
1871,1851
1872,1862
1873,1872
1874,1886
1875,1894
1876,1886
1877,1893
1878,1901
1879,1889
1880,1859
1881,1854
1882,1840
1883,1819
1884,1821
1885,1815
1886,1836
1887,1831
1888,1856
1889,1870
1890,1873
1891,1882
1892,1885
1893,1885
1894,1906
1895,1902
1896,1875
1897,1863
1898,1854
1899,1839
1900,1826
1901,1823
1902,1830
1903,1840
1904,1861
1905,1872
1906,1872
1907,1873
1908,1884
1909,1885
1910,1891
1911,1903
1912,1885
1913,1872
1914,1852
1915,1847
1916,1822
1917,1819
1918,1828
1919,1838
1920,1847
1921,1862
1922,1867
1923,1873
1924,1883
1925,1883
1926,1882
1927,1895
1928,1891
1929,1886
1930,1866
1931,1861
1932,1840
1933,1830
1934,1823
1935,1824
1936,1839
1937,1840
1938,1871
1939,1876
1940,1882
1941,1879
1942,1887
1943,1881
1944,1897
1945,1893
1946,1861
1947,1854
1948,1840
1949,1823
1950,1827
1951,1825
1952,1833
1953,1843
1954,1854
1955,1862
1956,1866
1957,1874
1958,1887
1959,1893
1960,1886
1961,1905
1962,1893
1963,1877
1964,1861
1965,1853
1966,1835
1967,1829
1968,1825
1969,1840
1970,1839
1971,1853
1972,1859
1973,1865
1974,1883
1975,1873
1976,1879
1977,1885
1978,1901
1979,1879
1980,1859
1981,1855
1982,1845
1983,1823
1984,1826
1985,1823
1986,1835
1987,1854
1988,1869
1989,1874
1990,1879
1991,1885
1992,1887
1993,1888
1994,1904
1995,1891
1996,1872
1997,1866
1998,1849
1999,1842
2000,1827
2001,1825
2002,1824
2003,1840
2004,1840
2005,1863
2006,1866
2007,1875
2008,1890
2009,1886
2010,1895
2011,1905
2012,1904
2013,1871
2014,1857
2015,1840
2016,1820
2017,1821
2018,1814
2019,1849
2020,1854
2021,1863
2022,1856
2023,1857
2024,1863
2025,1877
2026,1879
2027,1892
2028,1894
2029,1877
2030,1872
2031,1851
2032,1840
2033,1824
2034,1817
2035,1825
2036,1840
2037,1839
2038,1860
2039,1881
2040,1877
2041,1892
2042,1885
2043,1885
2044,1895
2045,1891
2046,1875
2047,1869
2048,1855
2049,1826
2050,1824
2051,1826
2052,1830
2053,1840
2054,1856
2055,1856
2056,1865
2057,1872
2058,1882
2059,1894
2060,1883
2061,1901
2062,1895
2063,1861
2064,1840
2065,1836
2066,1821
2067,1822
2068,1826
2069,1826
2070,1840
2071,1861
2072,1869
2073,1872
2074,1891
2075,1886
2076,1887
2077,1887
2078,1902
2079,1883
2080,1870
2081,1855
2082,1847
2083,1831
2084,1823
2085,1827
2086,1839
2087,1847
2088,1854
2089,1870
2090,1877
2091,1885
2092,1881
2093,1877
2094,1897
2095,1893
2096,1879
2097,1858
2098,1851
2099,1825
2100,1822
2101,1823
2102,1835
2103,1840
2104,1858
2105,1872
2106,1881
2107,2650
2108,2067
2109,1945
2110,2054
2111,2121
2112,2150
2113,2133
2114,2112
2115,2112
2116,2110
2117,1919
2118,1680
2119,1663
2120,1799
2121,1886
2122,1931
2123,1911
2124,1873
2125,1823
2126,1742
2127,1658
2128,1591
2129,1520
2130,1463
2131,1472
2132,1487
2133,1535
2134,1594
2135,1661
2136,1729
2137,1795
2138,2522
2139,2121
2140,1930
2141,2076
2142,2144
2143,2195
2144,2223
2145,2224
2146,2219
2147,2177
2148,1965
2149,1698
2150,1612
2151,1734
2152,1890
2153,1966
2154,1988
2155,1968
2156,1909
2157,1801
2158,1678
2159,1535
2160,1449
2161,1438
2162,1469
2163,1514
2164,1583
2165,1657
2166,1719
2167,1776
2168,1815
2169,2215
2170,2240
2171,1907
2172,2043
2173,2176
2174,2270
2175,2302
2176,2288
2177,2269
2178,2234
2179,2063
2180,1824
2181,1680
2182,1694
2183,1827
2184,1904
2185,1929
2186,1905
2187,1831
2188,1727
2189,1600
2190,1472
2191,1395
2192,1394
2193,1451
2194,1535
2195,1635
2196,1717
2197,1775
2198,1809
2199,1831
2200,1529
2201,2355
2202,1872
2203,1994
2204,2142
2205,2224
2206,2246
2207,2211
2208,2170
2209,2155
2210,2148
2211,1982
2212,1741
2213,1805
2214,1936
2215,1977
2216,1966
2217,1906
2218,1821
2219,1697
2220,1535
2221,1428
2222,1370
2223,1387
2224,1447
2225,1530
2226,1629
2227,1733
2228,1813
2229,1854
2230,1875
2231,1135
2232,2512
2233,1877
2234,1907
2235,2031
2236,2116
2237,2122
2238,2068
2239,1942
2240,1918
2241,2229
2242,2156
2243,2042
2244,2112
2245,2145
2246,2093
2247,2037
2248,1944
2249,1815
2250,1671
2251,1488
2252,1359
2253,1305
2254,1313
2255,1387
2256,1488
2257,1615
2258,1726
2259,1798
2260,1855
2261,1914
2262,1360
2263,2624
2264,1927
2265,1892
2266,1999
2267,2071
2268,2069
2269,1946
2270,1705
2271,1806
2272,2339
2273,2251
2274,2213
2275,2211
2276,2188
2277,2138
2278,2087
2279,1984
2280,1842
2281,1680
2282,1495
2283,1360
2284,1294
2285,1287
2286,1360
2287,1445
2288,1583
2289,1680
2290,1766
2291,1826
2292,1871
2293,1971
2294,2739
2295,2004
2296,1829
2297,1892
2298,1920
2299,1911
2300,1714
2301,1425
2302,2013
2303,2608
2304,2471
2305,2319
2306,2254
2307,2226
2308,2173
2309,2118
2310,2016
2311,1909
2312,1744
2313,1530
2314,1392
2315,1298
2316,1264
2317,1333
2318,1424
2319,1535
2320,1648
2321,1743
2322,1808
2323,1863
2324,1907
2325,2663
2326,2099
2327,1775
2328,1792
2329,1807
2330,1738
2331,1535
2332,1477
2333,2427
2334,2749
2335,2506
2336,2306
2337,2207
2338,2197
2339,2151
2340,2107
2341,2027
2342,1917
2343,1759
2344,1601
2345,1466
2346,1360
2347,1330
2348,1364
2349,1442
2350,1530
2351,1625
2352,1712
2353,1767
2354,1828
2355,1872
2356,2403
2357,2176
2358,1733
2359,1638
2360,1642
2361,1583
2362,1418
2363,1627
2364,2800
2365,2882
2366,2541
2367,2320
2368,2228
2369,2192
2370,2146
2371,2110
2372,2038
2373,1936
2374,1793
2375,1614
2376,1459
2377,1376
2378,1364
2379,1377
2380,1439
2381,1509
2382,1602
2383,1675
2384,1734
2385,1783
2386,1839
2387,2125
2388,2234
2389,1710
2390,1590
2391,1599
2392,1499
2393,1407
2394,1947
2395,3007
2396,2917
2397,2535
2398,2286
2399,2192
2400,2154
2401,2122
2402,2106
2403,2036
2404,1927
2405,1792
2406,1612
2407,1445
2408,1343
2409,1296
2410,1332
2411,1433
2412,1562
2413,1644
2414,1703
2415,1751
2416,1775
2417,1819
2418,1292
2419,2379
2420,1729
2421,1535
2422,1497
2423,1444
2424,1392
2425,1968
2426,3022
2427,2884
2428,2527
2429,2324
2430,2212
2431,2192
2432,2179
2433,2142
2434,2068
2435,1946
2436,1797
2437,1622
2438,1457
2439,1329
2440,1285
2441,1311
2442,1387
2443,1499
2444,1616
2445,1718
2446,1771
2447,1798
2448,1824
2449,1056
2450,2439
2451,1762
2452,1511
2453,1433
2454,1377
2455,1370
2456,2090
2457,3008
2458,2852
2459,2479
2460,2295
2461,2243
2462,2243
2463,2208
2464,2165
2465,2096
2466,1983
2467,1823
2468,1631
2469,1456
2470,1344
2471,1290
2472,1306
2473,1370
2474,1491
2475,1605
2476,1697
2477,1774
2478,1841
2479,1865
2480,1802
2481,2599
2482,1872
2483,1535
2484,1456
2485,1375
2486,1309
2487,1955
2488,2943
2489,2831
2490,2448
2491,2255
2492,2185
2493,2191
2494,2215
2495,2223
2496,2160
2497,2037
2498,1903
2499,1690
2500,1511
2501,1366
2502,1286
2503,1271
2504,1307
2505,1415
2506,1526
2507,1637
2508,1740
2509,1794
2510,1833
2511,1971
2512,2651
2513,1949
2514,1589
2515,1483
2516,1409
2517,1335
2518,2039
2519,2991
2520,2806
2521,2417
2522,2192
2523,2131
2524,2150
2525,2192
2526,2206
2527,2166
2528,2081
2529,1891
2530,1693
2531,1526
2532,1394
2533,1315
2534,1314
2535,1335
2536,1409
2537,1520
2538,1611
2539,1690
2540,1751
2541,1811
2542,1848
2543,2601
2544,2046
2545,1616
2546,1463
2547,1426
2548,1325
2549,2000
2550,2935
2551,2753
2552,2413
2553,2208
2554,2153
2555,2162
2556,2210
2557,2197
2558,2191
2559,2100
2560,1977
2561,1826
2562,1654
2563,1485
2564,1360
2565,1301
2566,1285
2567,1347
2568,1455
2569,1581
2570,1655
2571,1721
2572,1793
2573,1823
2574,2289
2575,2181
2576,1643
2577,1457
2578,1445
2579,1362
2580,1875
2581,2903
2582,2821
2583,2443
2584,2203
2585,2125
2586,2134
2587,2176
2588,2201
2589,2175
2590,2115
2591,2018
2592,1855
2593,1683
2594,1523
2595,1421
2596,1331
2597,1299
2598,1351
2599,1442
2600,1535
2601,1616
2602,1669
2603,1727
2604,1779
2605,1715
2606,2288
2607,1680
2608,1485
2609,1436
2610,1387
2611,1801
2612,2890
2613,2841
2614,2490
2615,2231
2616,2115
2617,2112
2618,2151
2619,2167
2620,2167
2621,2118
2622,2023
2623,1867
2624,1718
2625,1579
2626,1442
2627,1359
2628,1354
2629,1353
2630,1419
2631,1520
2632,1614
2633,1677
2634,1729
2635,1759
2636,1270
2637,2319
2638,1709
2639,1456
2640,1419
2641,1390
2642,1782
2643,2896
2644,2912
2645,2558
2646,2266
2647,2160
2648,2118
2649,2129
2650,2141
2651,2127
2652,2074
2653,1978
2654,1840
2655,1681
2656,1555
2657,1456
2658,1423
2659,1393
2660,1405
2661,1483
2662,1563
2663,1616
2664,1676
2665,1717
2666,1750
2667,1230
2668,2447
2669,1744
2670,1424
2671,1345
2672,1316
2673,1584
2674,2746
2675,2979
2676,2598
2677,2314
2678,2189
2679,2160
2680,2189
2681,2208
2682,2186
2683,2138
2684,2033
2685,1904
2686,1749
2687,1616
2688,1473
2689,1389
2690,1338
2691,1357
2692,1407
2693,1488
2694,1583
2695,1683
2696,1728
2697,1777
2698,1856
2699,2524
2700,1842
2701,1434
2702,1327
2703,1322
2704,1488
2705,2607
2706,2947
2707,2602
2708,2346
2709,2192
2710,2154
2711,2192
2712,2224
2713,2210
2714,2164
2715,2071
2716,1929
2717,1766
2718,1629
2719,1499
2720,1397
2721,1333
2722,1328
2723,1378
2724,1456
2725,1563
2726,1648
2727,1712
2728,1782
2729,1837
2730,1842
2731,1866
2732,1874
2733,1876
2734,1878
2735,1891
2736,1909
2737,1926
2738,1943
2739,1939
2740,1930
2741,1937
2742,1933
2743,1921
2744,1917
2745,1927
2746,1917
2747,1904
2748,1881
2749,1859
2750,1852
2751,1845
2752,1847
2753,1841
2754,1855
2755,1871
2756,1878
2757,1889
2758,1903
2759,1905
2760,1887
2761,1891
2762,1897
2763,1874
2764,1867
2765,1846
2766,1841
2767,1829
2768,1831
2769,1841
2770,1849
2771,1851
2772,1859
2773,1872
2774,1875
2775,1882
2776,1879
2777,1878
2778,1899
2779,1889
2780,1868
2781,1861
2782,1845
2783,1820
2784,1829
2785,1824
2786,1818
2787,1839
2788,1853
2789,1872
2790,1869
2791,1873
2792,1883
2793,1889
2794,1889
2795,1903
2796,1881
2797,1860
2798,1850
2799,1839
2800,1831
2801,1823
2802,1826
2803,1839
2804,1846
2805,1855
2806,1903
2807,1907
2808,1909
2809,1895
2810,1863
2811,1861
2812,1882
2813,1847
2814,1852
2815,1840
2816,1813
2817,1808
2818,1819
2819,1826
2820,1836
2821,1851
2822,1859
2823,1871
2824,1870
2825,1887
2826,1882
2827,1884
2828,1890
2829,1899
2830,1858
2831,1855
2832,1844
2833,1825
2834,1827
2835,1823
2836,1836
2837,1843
2838,1849
2839,1870
2840,1872
2841,1870
2842,1888
2843,1878
2844,1884
2845,1895
2846,1872
2847,1866
2848,1840
2849,1834
2850,1823
2851,1824
2852,1823
2853,1840
2854,1845
2855,1857
2856,1858
2857,1872
2858,1887
2859,1885
2860,1885
2861,1887
2862,1892
2863,1872
2864,1854
2865,1840
2866,1843
2867,1830
2868,1823
2869,1822
2870,1840
2871,1850
2872,1866
2873,1870
2874,1872
2875,1872
2876,1882
2877,1886
2878,1903
2879,1889
2880,1867
2881,1851
2882,1840
2883,1837
2884,1823
2885,1824
2886,1829
2887,1840
2888,1850
2889,1870
2890,1869
2891,1878
2892,1885
2893,1882
2894,1884
2895,1891
2896,1877
2897,1859
2898,1840
2899,1843
2900,1830
2901,1812
2902,1819
2903,1818
2904,1819
2905,1842
2906,1867
2907,1866
2908,1890
2909,1884
2910,1881
2911,1887
2912,1901
2913,1874
2914,1856
2915,1847
2916,1825
2917,1815
2918,1822
2919,1817
2920,1829
2921,1840
2922,1858
2923,1871
2924,1866
2925,1883
2926,1883
2927,1883
2928,1898
2929,1879
2930,1869
2931,1853
2932,1839
2933,1822
2934,1809
2935,1808
2936,1813
2937,1829
2938,1847
2939,1857
2940,1872
2941,1891
2942,1883
2943,1882
2944,1878
2945,1897
2946,1878
2947,1853
2948,1840
2949,1838
2950,1820
2951,1808
2952,1815
2953,1831
2954,1840
2955,1847
2956,1868
2957,1875
2958,1872
2959,1874
2960,1878
2961,1888
2962,1897
2963,1867
2964,1856
2965,1843
2966,1821
2967,1811
2968,1813
2969,1822
2970,1829
2971,1840
2972,1847
2973,1870
2974,1863
2975,1887
2976,1878
2977,1876
2978,1887
2979,1889
2980,1859
2981,1847
2982,1837
2983,1817
2984,1813
2985,1815
2986,1821
2987,1834
2988,1847
2989,1860
2990,1869
2991,1863
2992,1877
2993,1872
2994,1874
2995,1882
2996,1878
2997,1858
2998,1841
2999,1828
3000,1818
3001,1811
3002,1818
3003,1822
3004,1827
3005,1846
3006,1865
3007,1871
3008,1886
3009,1878
3010,1875
3011,1879
3012,1889
3013,1873
3014,1846
3015,1840
3016,1833
3017,1815
3018,1810
3019,1809
3020,1825
3021,1840
3022,1851
3023,1855
3024,1870
3025,1871
3026,1872
3027,1872
3028,1887
3029,1888
3030,1869
3031,1847
3032,1839
3033,1818
3034,1820
3035,1815
3036,1826
3037,1838
3038,1850
3039,1861
3040,1865
3041,1872
3042,1882
3043,1876
3044,1874
3045,1891
3046,1883
3047,1851
3048,1840
3049,1840
3050,1830
3051,1819
3052,1818
3053,1826
3054,1835
3055,1851
3056,1855
3057,1870
3058,1882
3059,1877
3060,1874
3061,1883
3062,1891
3063,1866
3064,1867
3065,1838
3066,1838
3067,1817
3068,1815
3069,1821
3070,1825
3071,1840
3072,1855
3073,1865
3074,1872
3075,1882
3076,1874
3077,1883
3078,1894
3079,1879
3080,1872
3081,1850
3082,1835
3083,1808
3084,1808
3085,1810
3086,1818
3087,1829
3088,1842
3089,1856
3090,1875
3091,1879
3092,1883
3093,1876
3094,1879
3095,1890
3096,1888
3097,1856
3098,1851
3099,1838
3100,1821
3101,1814
3102,1814
3103,1820
3104,1837
3105,1856
3106,1856
3107,1866
3108,1869
3109,1872
3110,1879
3111,1891
3112,1888
3113,1873
3114,1855
3115,1833
3116,1826
3117,1810
3118,1817
3119,1831
3120,1834
3121,1839
3122,1847
3123,1872
3124,1873
3125,1879
3126,1875
3127,1877
3128,1893
3129,1898
3130,1871
3131,1858
3132,1840
3133,1840
3134,1815
3135,1823
3136,1829
3137,1840
3138,1847
3139,1865
3140,1867
3141,1874
3142,1882
3143,1874
3144,1875
3145,1892
3146,1873
3147,1855
3148,1847
3149,1841
3150,1822
3151,1822
3152,1823
3153,1840
3154,1840
3155,1862
3156,1865
3157,1871
3158,1878
3159,1875
3160,1882
3161,1891
3162,1892
3163,1885
3164,1854
3165,1855
3166,1837
3167,1821
3168,1815
3169,1827
3170,1840
3171,1850
3172,1861
3173,1870
3174,1873
3175,1872
3176,1881
3177,1885
3178,1904
3179,1887
3180,1877
3181,1867
3182,1854
3183,1825
3184,1815
3185,1823
3186,1830
3187,1840
3188,1851
3189,1872
3190,1875
3191,1886
3192,1878
3193,1884
3194,1890
3195,1904
3196,1895
3197,1876
3198,1851
3199,1840
3200,1821
3201,1826
3202,1824
3203,1834
3204,1830
3205,1855
3206,1854
3207,1862
3208,1875
3209,1887
3210,1884
3211,1885
3212,1900
3213,1885
3214,1869
3215,1855
3216,1851
3217,1835
3218,1829
3219,1819
3220,1834
3221,1838
3222,1859
3223,1863
3224,1873
3225,1895
3226,1885
3227,1890
3228,1904
3229,1899
3230,1872
3231,1867
3232,1853
3233,1818
3234,1824
3235,1817
3236,1825
3237,1836
3238,1854
3239,1862
3240,1872
3241,1879
3242,1891
3243,1883
3244,1887
3245,1902
3246,1890
3247,1874
3248,1860
3249,1850
3250,1840
3251,1827
3252,1825
3253,1836
3254,1842
3255,1863
3256,1858
3257,1871
3258,1895
3259,1891
3260,1879
3261,1889
3262,1893
3263,1869
3264,1857
3265,1843
3266,1839
3267,1829
3268,1825
3269,1833
3270,1839
3271,1849
3272,1855
3273,1863
3274,1872
3275,1881
3276,1888
3277,1886
3278,1904
3279,1903
3280,1873
3281,1865
3282,1853
3283,1841
3284,1828
3285,1823
3286,1829
3287,1840
3288,1840
3289,1856
3290,1870
3291,1874
3292,1890
3293,1879
3294,1878
3295,1898
3296,1893
3297,1867
3298,1855
3299,1851
3300,1840
3301,1823
3302,1823
3303,1839
3304,1842
3305,1854
3306,1876
3307,1881
3308,1883
3309,1883
3310,1883
3311,1887
3312,1901
3313,1893
3314,1859
3315,1854
3316,1841
3317,1823
3318,1821
3319,1819
3320,1829
3321,1838
3322,1860
3323,1872
3324,1873
3325,1890
3326,1885
3327,1878
3328,1885
3329,1903
3330,1886
3331,1858
3332,1847
3333,1826
3334,1829
3335,1827
3336,1830
3337,1842
3338,1856
3339,1868
3340,1879
3341,1889
3342,1887
3343,1887
3344,1889
3345,1904
3346,1902
3347,1860
3348,1849
3349,1838
3350,1839
3351,1823
3352,1827
3353,1823
3354,1831
3355,1855
3356,1867
3357,1878
3358,1895
3359,1892
3360,1887
3361,1899
3362,1901
3363,1889
3364,1867
3365,1846
3366,1839
3367,1825
3368,1826
3369,1824
3370,1841
3371,1839
3372,1856
3373,1867
3374,1879
3375,1897
3376,1882
3377,1889
3378,1899
3379,1893
3380,1871
3381,1855
3382,1840
3383,1834
3384,1823
3385,1823
3386,1830
3387,1839
3388,1855
3389,1865
3390,1872
3391,1885
3392,1887
3393,1883
3394,1887
3395,1902
3396,1897
3397,1866
3398,1856
3399,1849
3400,1831
3401,1827
3402,1823
3403,1841
3404,1847
3405,1850
3406,1862
3407,1886
3408,1877
3409,1883
3410,1882
3411,1882
3412,1901
3413,1879
3414,1863
3415,1842
3416,1841
3417,1815
3418,1821
3419,1825
3420,1840
3421,1840
3422,1866
3423,1870
3424,1872
3425,1895
3426,1882
3427,1887
3428,1898
3429,1893
3430,1885
3431,1856
3432,1845
3433,1827
3434,1825
3435,1823
3436,1835
3437,1839
3438,1851
3439,1863
3440,1875
3441,1886
3442,1886
3443,1875
3444,1883
3445,1891
3446,1892
3447,1872
3448,1850
3449,1844
3450,1829
3451,1826
3452,1826
3453,1831
3454,1838
3455,1851
3456,1870
3457,1873
3458,1877
3459,1883
3460,1885
3461,1892
3462,1900
3463,1886
3464,1856
3465,1845
3466,1842
3467,1831
3468,1823
3469,1823
3470,1835
3471,1835
3472,1863
3473,1859
3474,1875
3475,1881
3476,1883
3477,1887
3478,1888
3479,1893
3480,1872
3481,1863
3482,1854
3483,1834
3484,1825
3485,1828
3486,1828
3487,1838
3488,1847
3489,1862
3490,1874
3491,1873
3492,1888
3493,1885
3494,1884
3495,1904
3496,1899
3497,1869
3498,1860
3499,1843
3500,1820
3501,1828
3502,1826
3503,1823
3504,1833
3505,1840
3506,1854
3507,1859
3508,1872
3509,1889
3510,1886
3511,1885
3512,1898
3513,1874
3514,1863
3515,1853
3516,1831
3517,1821
3518,1813
3519,1823
3520,1830
3521,1829
3522,1856
3523,1871
3524,1872
3525,1874
3526,1886
3527,1888
3528,1893
3529,1902
3530,1873
3531,1870
3532,1846
3533,1821
3534,1822
3535,1821
3536,1817
3537,1840
3538,1840
3539,1854
3540,1866
3541,1879
3542,1885
3543,1882
3544,1886
3545,1903
3546,1903
3547,1881
3548,1858
3549,1840
3550,1824
3551,1828
3552,1826
3553,1824
3554,1843
3555,1842
3556,1858
3557,1873
3558,1877
3559,1886
3560,1882
3561,1884
3562,1897
3563,1874
3564,1859
3565,1840
3566,1842
3567,1829
3568,1829
3569,1829
3570,1839
3571,1847
3572,1863
3573,1872
3574,1881
3575,1891
3576,1876
3577,1885
3578,1888
3579,1901
3580,1881
3581,1863
3582,1856
3583,1830
3584,1823
3585,1821
3586,1827
3587,1838
3588,1849
3589,1861
3590,1872
3591,1871
3592,1888
3593,1874
3594,1878
3595,1891
3596,1890
3597,1875
3598,1855
3599,1840
3600,1835
3601,1822
3602,1825
3603,1827
3604,1843
3605,1849
3606,1871
3607,1872
3608,1875
3609,1884
3610,1887
3611,1885
3612,1899
3613,1885
3614,1867
3615,1855
3616,1835
3617,1825
3618,1817
3619,1815
3620,1827
3621,1835
3622,1844
3623,1856
3624,1861
3625,1887
3626,1887
3627,1879
3628,1882
3629,1895
3630,1882
3631,1856
3632,1843
3633,1831
3634,1827
3635,1823
3636,1831
3637,1839
3638,1858
3639,1860
3640,1873
3641,1872
3642,1894
3643,1885
3644,1882
3645,1893
3646,1902
3647,1875
3648,1859
3649,1855
3650,1840
3651,1830
3652,1826
3653,1830
3654,1839
3655,1856
3656,1856
3657,1874
3658,1882
3659,1887
3660,1883
3661,1879
3662,1899
3663,1882
3664,1867
3665,1854
3666,1849
3667,1836
3668,1827
3669,1827
3670,1830
3671,1845
3672,1857
3673,1869
3674,1872
3675,1893
3676,1879
3677,1887
3678,1897
3679,1895
3680,1881
3681,1863
3682,1841
3683,1826
3684,1818
3685,1821
3686,1824
3687,1837
3688,1840
3689,1861
3690,1866
3691,1881
3692,1881
3693,1885
3694,1887
3695,1895
3696,1904
3697,1877
3698,1853
3699,1840
3700,1830
3701,1828
3702,1825
3703,1831
3704,1841
3705,1843
3706,1864
3707,1865
3708,1872
3709,1893
3710,1883
3711,1884
3712,1902
3713,1873
3714,1857
3715,1845
3716,1838
3717,1825
3718,1822
3719,1825
3720,1825
3721,1840
3722,1851
3723,1869
3724,1872
3725,1872
3726,2257
3727,2208
3728,1942
3729,2041
3730,2086
3731,2101
3732,2103
3733,2091
3734,2085
3735,2100
3736,2003
3737,1757
3738,1664
3739,1765
3740,1872
3741,1938
3742,1957
3743,1927
3744,1886
3745,1805
3746,1718
3747,1586
3748,1499
3749,1429
3750,1409
3751,1435
3752,1511
3753,1575
3754,1647
3755,1719
3756,1788
3757,1488
3758,2316
3759,1913
3760,2031
3761,2111
3762,2192
3763,2214
3764,2211
3765,2215
3766,2209
3767,2061
3768,1769
3769,1584
3770,1651
3771,1808
3772,1945
3773,2001
3774,2017
3775,1963
3776,1853
3777,1721
3778,1585
3779,1477
3780,1406
3781,1395
3782,1453
3783,1523
3784,1607
3785,1687
3786,1754
3787,1815
3788,1266
3789,2448
3790,1943
3791,2045
3792,2189
3793,2273
3794,2319
3795,2339
3796,2320
3797,2246
3798,2064
3799,1795
3800,1582
3801,1535
3802,1711
3803,1870
3804,1951
3805,1971
3806,1904
3807,1808
3808,1666
3809,1530
3810,1424
3811,1398
3812,1440
3813,1516
3814,1584
3815,1657
3816,1737
3817,1786
3818,1814
3819,1642
3820,2551
3821,1952
3822,1989
3823,2133
3824,2235
3825,2318
3826,2336
3827,2313
3828,2313
3829,2228
3830,2020
3831,1677
3832,1601
3833,1753
3834,1883
3835,1923
3836,1914
3837,1853
3838,1743
3839,1619
3840,1473
3841,1403
3842,1383
3843,1411
3844,1490
3845,1601
3846,1712
3847,1767
3848,1812
3849,1850
3850,1957
3851,2623
3852,1950
3853,1903
3854,2054
3855,2137
3856,2199
3857,2192
3858,2138
3859,2064
3860,2147
3861,2160
3862,1927
3863,1954
3864,2034
3865,2074
3866,2042
3867,1984
3868,1891
3869,1744
3870,1559
3871,1407
3872,1325
3873,1297
3874,1354
3875,1457
3876,1587
3877,1685
3878,1775
3879,1851
3880,1889
3881,1893
3882,2640
3883,2064
3884,1886
3885,2055
3886,2142
3887,2209
3888,2150
3889,1975
3890,1749
3891,2064
3892,2170
3893,1995
3894,2068
3895,2141
3896,2128
3897,2059
3898,1969
3899,1876
3900,1721
3901,1571
3902,1434
3903,1346
3904,1330
3905,1361
3906,1449
3907,1535
3908,1654
3909,1744
3910,1810
3911,1862
3912,1905
3913,2416
3914,2184
3915,1842
3916,1945
3917,1996
3918,2034
3919,1962
3920,1746
3921,1584
3922,2227
3923,2337
3924,2281
3925,2231
3926,2224
3927,2186
3928,2133
3929,2081
3930,1967
3931,1788
3932,1591
3933,1419
3934,1325
3935,1278
3936,1302
3937,1394
3938,1517
3939,1646
3940,1728
3941,1802
3942,1846
3943,1883
3944,2110
3945,2256
3946,1856
3947,1867
3948,1887
3949,1904
3950,1775
3951,1521
3952,1699
3953,2512
3954,2533
3955,2359
3956,2250
3957,2255
3958,2195
3959,2163
3960,2079
3961,1982
3962,1856
3963,1669
3964,1487
3965,1363
3966,1297
3967,1296
3968,1362
3969,1483
3970,1594
3971,1690
3972,1774
3973,1826
3974,1870
3975,1501
3976,2346
3977,1827
3978,1799
3979,1815
3980,1802
3981,1634
3982,1433
3983,2074
3984,2739
3985,2598
3986,2347
3987,2231
3988,2195
3989,2176
3990,2154
3991,2096
3992,1991
3993,1857
3994,1692
3995,1534
3996,1409
3997,1338
3998,1335
3999,1383
4000,1464
4001,1559
4002,1654
4003,1712
4004,1785
4005,1841
4006,1200
4007,2464
4008,1861
4009,1717
4010,1664
4011,1639
4012,1502
4013,1438
4014,2303
4015,2891
4016,2651
4017,2371
4018,2240
4019,2209
4020,2183
4021,2159
4022,2101
4023,2011
4024,1901
4025,1729
4026,1579
4027,1439
4028,1343
4029,1346
4030,1395
4031,1466
4032,1535
4033,1639
4034,1711
4035,1747
4036,1787
4037,1763
4038,2513
4039,1883
4040,1663
4041,1618
4042,1600
4043,1440
4044,1475
4045,2481
4046,3055
4047,2708
4048,2366
4049,2229
4050,2189
4051,2159
4052,2128
4053,2081
4054,2003
4055,1898
4056,1733
4057,1583
4058,1451
4059,1376
4060,1339
4061,1365
4062,1485
4063,1596
4064,1662
4065,1700
4066,1758
4067,1794
4068,1851
4069,2501
4070,1936
4071,1615
4072,1535
4073,1523
4074,1382
4075,1535
4076,2622
4077,3031
4078,2666
4079,2387
4080,2244
4081,2202
4082,2172
4083,2141
4084,2082
4085,2000
4086,1898
4087,1755
4088,1600
4089,1475
4090,1378
4091,1328
4092,1365
4093,1431
4094,1535
4095,1643
4096,1726
4097,1776
4098,1805
4099,1847
4100,2430
4101,1994
4102,1584
4103,1489
4104,1479
4105,1343
4106,1535
4107,2643
4108,2975
4109,2627
4110,2352
4111,2224
4112,2222
4113,2218
4114,2170
4115,2129
4116,2045
4117,1930
4118,1783
4119,1630
4120,1479
4121,1371
4122,1319
4123,1342
4124,1408
4125,1503
4126,1623
4127,1705
4128,1759
4129,1814
4130,1854
4131,2178
4132,2112
4133,1633
4134,1514
4135,1459
4136,1327
4137,1535
4138,2599
4139,2947
4140,2623
4141,2338
4142,2227
4143,2193
4144,2190
4145,2187
4146,2166
4147,2084
4148,1974
4149,1834
4150,1667
4151,1520
4152,1394
4153,1326
4154,1307
4155,1369
4156,1471
4157,1584
4158,1679
4159,1759
4160,1794
4161,1840
4162,1929
4163,2207
4164,1680
4165,1529
4166,1458
4167,1310
4168,1535
4169,2591
4170,2900
4171,2584
4172,2295
4173,2183
4174,2169
4175,2176
4176,2181
4177,2162
4178,2113
4179,2033
4180,1903
4181,1742
4182,1578
4183,1427
4184,1328
4185,1280
4186,1328
4187,1415
4188,1534
4189,1656
4190,1719
4191,1789
4192,1827
4193,1213
4194,2323
4195,1771
4196,1535
4197,1460
4198,1342
4199,1485
4200,2519
4201,2970
4202,2625
4203,2305
4204,2167
4205,2144
4206,2169
4207,2164
4208,2163
4209,2119
4210,2039
4211,1936
4212,1815
4213,1647
4214,1502
4215,1383
4216,1318
4217,1307
4218,1389
4219,1480
4220,1584
4221,1662
4222,1739
4223,1796
4224,1145
4225,2368
4226,1795
4227,1531
4228,1457
4229,1377
4230,1502
4231,2496
4232,2950
4233,2638
4234,2299
4235,2134
4236,2108
4237,2128
4238,2128
4239,2146
4240,2109
4241,2038
4242,1959
4243,1826
4244,1679
4245,1535
4246,1447
4247,1377
4248,1357
4249,1397
4250,1465
4251,1557
4252,1638
4253,1691
4254,1756
4255,1826
4256,2429
4257,1877
4258,1556
4259,1459
4260,1376
4261,1445
4262,2457
4263,2991
4264,2705
4265,2367
4266,2173
4267,2096
4268,2096
4269,2100
4270,2112
4271,2096
4272,2062
4273,1959
4274,1843
4275,1687
4276,1580
4277,1462
4278,1423
4279,1425
4280,1431
4281,1490
4282,1565
4283,1626
4284,1665
4285,1712
4286,1761
4287,2394
4288,1905
4289,1530
4290,1411
4291,1336
4292,1388
4293,2329
4294,2982
4295,2743
4296,2433
4297,2213
4298,2149
4299,2137
4300,2143
4301,2122
4302,2096
4303,2035
4304,1967
4305,1861
4306,1759
4307,1642
4308,1485
4309,1395
4310,1379
4311,1405
4312,1487
4313,1559
4314,1616
4315,1674
4316,1726
4317,1765
4318,2251
4319,1979
4320,1535
4321,1399
4322,1371
4323,1351
4324,2162
4325,2928
4326,2767
4327,2448
4328,2240
4329,2192
4330,2166
4331,2154
4332,2134
4333,2121
4334,2065
4335,1977
4336,1871
4337,1746
4338,1619
4339,1502
4340,1392
4341,1360
4342,1392
4343,1456
4344,1533
4345,1628
4346,1706
4347,1743
4348,1789
4349,1806
4350,1835
4351,1840
4352,1859
4353,1868
4354,1891
4355,1906
4356,1920
4357,1923
4358,1936
4359,1936
4360,1939
4361,1943
4362,1944
4363,1936
4364,1921
4365,1887
4366,1872
4367,1853
4368,1842
4369,1840
4370,1853
4371,1858
4372,1873
4373,1875
4374,1883
4375,1893
4376,1901
4377,1890
4378,1893
4379,1906
4380,1903
4381,1870
4382,1856
4383,1846
4384,1835
4385,1823
4386,1833
4387,1840
4388,1844
4389,1853
4390,1870
4391,1875
4392,1881
4393,1888
4394,1887
4395,1889
4396,1888
4397,1879
4398,1862
4399,1847
4400,1836
4401,1825
4402,1823
4403,1821
4404,1837
4405,1847
4406,1857
4407,1872
4408,1870
4409,1888
4410,1888
4411,1886
4412,1891
4413,1893
4414,1872
4415,1854
4416,1845
4417,1838
4418,1817
4419,1813
4420,1826
4421,1838
4422,1847
4423,1857
4424,1879
4425,1884
4426,1887
4427,1882
4428,1881
4429,1903
4430,1885
4431,1870
4432,1852
4433,1846
4434,1837
4435,1825
4436,1823
4437,1821
4438,1835
4439,1862
4440,1868
4441,1881
4442,1881
4443,1884
4444,1878
4445,1893
4446,1903
4447,1885
4448,1859
4449,1847
4450,1845
4451,1827
4452,1818
4453,1814
4454,1831
4455,1850
4456,1862
4457,1867
4458,1881
4459,1877
4460,1879
4461,1883
4462,1901
4463,1888
4464,1865
4465,1849
4466,1835
4467,1839
4468,1831
4469,1831
4470,1830
4471,1844
4472,1847
4473,1868
4474,1865
4475,1877
4476,1883
4477,1883
4478,1872
4479,1899
4480,1877
4481,1867
4482,1855
4483,1831
4484,1833
4485,1818
4486,1825
4487,1834
4488,1828
4489,1845
4490,1866
4491,1884
4492,1887
4493,1889
4494,1889
4495,1891
4496,1903
4497,1872
4498,1857
4499,1835
4500,1831
4501,1826
4502,1819
4503,1826
4504,1837
4505,1840
4506,1857
4507,1859
4508,1875
4509,1883
4510,1889
4511,1885
4512,1895
4513,1891
4514,1873
4515,1855
4516,1843
4517,1836
4518,1815
4519,1811
4520,1820
4521,1825
4522,1829
4523,1855
4524,1865
4525,1871
4526,1883
4527,1877
4528,1878
4529,1894
4530,1883
4531,1866
4532,1854
4533,1841
4534,1831
4535,1822
4536,1821
4537,1822
4538,1834
4539,1853
4540,1866
4541,1866
4542,1884
4543,1889
4544,1882
4545,1878
4546,1902
4547,1873
4548,1851
4549,1844
4550,1840
4551,1825
4552,1823
4553,1817
4554,1815
4555,1835
4556,1840
4557,1856
4558,1879
4559,1887
4560,1874
4561,1877
4562,1883
4563,1893
4564,1872
4565,1853
4566,1838
4567,1838
4568,1824
4569,1819
4570,1824
4571,1837
4572,1841
4573,1861
4574,1861
4575,1872
4576,1875
4577,1880
4578,1875
4579,1899
4580,1882
4581,1862
4582,1850
4583,1827
4584,1808
4585,1810
4586,1814
4587,1821
4588,1825
4589,1856
4590,1855
4591,1874
4592,1882
4593,1876
4594,1878
4595,1887
4596,1888
4597,1881
4598,1867
4599,1841
4600,1831
4601,1825
4602,1819
4603,1821
4604,1831
4605,1842
4606,1851
4607,1861
4608,1861
4609,1873
4610,1883
4611,1882
4612,1897
4613,1877
4614,1862
4615,1846
4616,1835
4617,1838
4618,1823
4619,1814
4620,1819
4621,1831
4622,1845
4623,1855
4624,1861
4625,1862
4626,1879
4627,1878
4628,1882
4629,1895
4630,1877
4631,1866
4632,1856
4633,1842
4634,1818
4635,1814
4636,1815
4637,1826
4638,1829
4639,1849
4640,1856
4641,1867
4642,1870
4643,1872
4644,1872
4645,1873
4646,1879
4647,1858
4648,1856
4649,1839
4650,1825
4651,1819
4652,1813
4653,1817
4654,1829
4655,1835
4656,1855
4657,1855
4658,1857
4659,1882
4660,1879
4661,1874
4662,1887
4663,1889
4664,1863
4665,1847
4666,1834
4667,1830
4668,1819
4669,1811
4670,1823
4671,1830
4672,1840
4673,1841
4674,1866
4675,1874
4676,1872
4677,1875
4678,1882
4679,1893
4680,1898
4681,1868
4682,1855
4683,1832
4684,1822
4685,1825
4686,1818
4687,1819
4688,1839
4689,1856
4690,1862
4691,1876
4692,1877
4693,1877
4694,1877
4695,1876
4696,1897
4697,1874
4698,1863
4699,1847
4700,1838
4701,1827
4702,1823
4703,1815
4704,1823
4705,1837
4706,1845
4707,1861
4708,1862
4709,1889
4710,1883
4711,1882
4712,1879
4713,1895
4714,1863
4715,1850
4716,1847
4717,1833
4718,1808
4719,1817
4720,1823
4721,1839
4722,1855
4723,1856
4724,1859
4725,1872
4726,1877
4727,1879
4728,1879
4729,1900
4730,1889
4731,1871
4732,1853
4733,1835
4734,1819
4735,1813
4736,1819
4737,1821
4738,1823
4739,1842
4740,1860
4741,1872
4742,1869
4743,1882
4744,1885
4745,1875
4746,1890
4747,1874
4748,1867
4749,1847
4750,1830
4751,1824
4752,1825
4753,1819
4754,1831
4755,1844
4756,1842
4757,1869
4758,1874
4759,1876
4760,1883
4761,1882
4762,1879
4763,1887
4764,1867
4765,1851
4766,1839
4767,1831
4768,1823
4769,1821
4770,1817
4771,1840
4772,1831
4773,1859
4774,1872
4775,1872
4776,1878
4777,1885
4778,1879
4779,1891
4780,1877
4781,1873
4782,1844
4783,1840
4784,1840
4785,1827
4786,1824
4787,1826
4788,1840
4789,1850
4790,1852
4791,1868
4792,1876
4793,1878
4794,1878
4795,1879
4796,1894
4797,1873
4798,1869
4799,1846
4800,1828
4801,1824
4802,1825
4803,1829
4804,1838
4805,1838
4806,1847
4807,1872
4808,1872
4809,1885
4810,1882
4811,1879
4812,1890
4813,1894
4814,1877
4815,1858
4816,1847
4817,1829
4818,1817
4819,1815
4820,1822
4821,1836
4822,1840
4823,1856
4824,1869
4825,1875
4826,1874
4827,1878
4828,1877
4829,1902
4830,1903
4831,1876
4832,1856
4833,1841
4834,1837
4835,1825
4836,1823
4837,1826
4838,1841
4839,1852
4840,1855
4841,1873
4842,1872
4843,1888
4844,1888
4845,1885
4846,1899
4847,1876
4848,1866
4849,1849
4850,1842
4851,1837
4852,1825
4853,1822
4854,1835
4855,1835
4856,1846
4857,1866
4858,1872
4859,1878
4860,1884
4861,1887
4862,1895
4863,1902
4864,1871
4865,1859
4866,1849
4867,1840
4868,1826
4869,1823
4870,1827
4871,1838
4872,1853
4873,1859
4874,1869
4875,1879
4876,1892
4877,1885
4878,1886
4879,1904
4880,1900
4881,1866
4882,1856
4883,1840
4884,1818
4885,1815
4886,1818
4887,1825
4888,1838
4889,1859
4890,1859
4891,1872
4892,1877
4893,1885
4894,1881
4895,1887
4896,1901
4897,1884
4898,1872
4899,1855
4900,1849
4901,1827
4902,1823
4903,1822
4904,1824
4905,1837
4906,1847
4907,1870
4908,1873
4909,1885
4910,1887
4911,1883
4912,1895
4913,1885
4914,1870
4915,1863
4916,1845
4917,1827
4918,1831
4919,1821
4920,1831
4921,1842
4922,1843
4923,1859
4924,1866
4925,1879
4926,1888
4927,1886
4928,1887
4929,1904
4930,1906
4931,1874
4932,1866
4933,1849
4934,1840
4935,1823
4936,1825
4937,1837
4938,1841
4939,1856
4940,1859
4941,1878
4942,1886
4943,1882
4944,1882
4945,1883
4946,1898
4947,1883
4948,1866
4949,1853
4950,1840
4951,1826
4952,1825
4953,1823
4954,1824
4955,1839
4956,1853
4957,1872
4958,1875
4959,1895
4960,1889
4961,1885
4962,1891
4963,1901
4964,1881
4965,1861
4966,1849
4967,1830
4968,1829
4969,1827
4970,1835
4971,1841
4972,1846
4973,1855
4974,1861
4975,1877
4976,1879
4977,1882
4978,1891
4979,1898
4980,1905
4981,1875
4982,1854
4983,1844
4984,1829
4985,1826
4986,1829
4987,1829
4988,1840
4989,1846
4990,1862
4991,1872
4992,1882
4993,1883
4994,1886
4995,1888
4996,1902
4997,1879
4998,1866
4999,1855
5000,1841
5001,1821
5002,1834
5003,1819
5004,1821
5005,1838
5006,1857
5007,1854
5008,1871
5009,1893
5010,1895
5011,1887
5012,1886
5013,1900
5014,1889
5015,1871
5016,1853
5017,1835
5018,1825
5019,1826
5020,1831
5021,1841
5022,1844
5023,1860
5024,1873
5025,1872
5026,1883
5027,1883
5028,1889
5029,1897
5030,1898
5031,1871
5032,1865
5033,1847
5034,1829
5035,1822
5036,1823
5037,1827
5038,1839
5039,1859
5040,1871
5041,1872
5042,1883
5043,1890
5044,1888
5045,1886
5046,1904
5047,1895
5048,1871
5049,1856
5050,1839
5051,1835
5052,1826
5053,1829
5054,1839
5055,1840
5056,1863
5057,1872
5058,1881
5059,1894
5060,1891
5061,1889
5062,1894
5063,1892
5064,1872
5065,1858
5066,1849
5067,1836
5068,1830
5069,1825
5070,1824
5071,1841
5072,1843
5073,1863
5074,1874
5075,1886
5076,1891
5077,1889
5078,1891
5079,1904
5080,1904
5081,1887
5082,1865
5083,1852
5084,1840
5085,1834
5086,1825
5087,1831
5088,1839
5089,1849
5090,1865
5091,1878
5092,1897
5093,1878
5094,1875
5095,1874
5096,1898
5097,1874
5098,1866
5099,1861
5100,1854
5101,1833
5102,1819
5103,1828
5104,1839
5105,1843
5106,1855
5107,1869
5108,1872
5109,1890
5110,1886
5111,1879
5112,1890
5113,1899
5114,1878
5115,1871
5116,1858
5117,1838
5118,1830
5119,1817
5120,1822
5121,1836
5122,1834
5123,1857
5124,1857
5125,1876
5126,1893
5127,1881
5128,1882
5129,1899
5130,1895
5131,1882
5132,1866
5133,1850
5134,1840
5135,1830
5136,1826
5137,1829
5138,1843
5139,1842
5140,1870
5141,1872
5142,1883
5143,1889
5144,1887
5145,1891
5146,1902
5147,1882
5148,1872
5149,1849
5150,1841
5151,1833
5152,1823
5153,1819
5154,1829
5155,1831
5156,1845
5157,1867
5158,1879
5159,1886
5160,1888
5161,1886
5162,1891
5163,1902
5164,1890
5165,1862
5166,1857
5167,1835
5168,1834
5169,1829
5170,1830
5171,1840
5172,1841
5173,1866
5174,1877
5175,1874
5176,1887
5177,1887
5178,1891
5179,1904
5180,1904
5181,1872
5182,1856
5183,1840
5184,1826
5185,1822
5186,1824
5187,1824
5188,1840
5189,1857
5190,1869
5191,1875
5192,1885
5193,1890
5194,1890
5195,1893
5196,1904
5197,1895
5198,1875
5199,1851
5200,1841
5201,1829
5202,1829
5203,1827
5204,1830
5205,1837
5206,1862
5207,1862
5208,1877
5209,1881
5210,1886
5211,1888
5212,1893
5213,1887
5214,1872
5215,1854
5216,1850
5217,1830
5218,1829
5219,1825
5220,1828
5221,1840
5222,1837
5223,1853
5224,1867
5225,1877
5226,1888
5227,1879
5228,1888
5229,1895
5230,1903
5231,1885
5232,1858
5233,1852
5234,1829
5235,1824
5236,1824
5237,1838
5238,1842
5239,1859
5240,1858
5241,1878
5242,1877
5243,1887
5244,1885
5245,1885
5246,1901
5247,1891
5248,1870
5249,1860
5250,1846
5251,1835
5252,1826
5253,1827
5254,1830
5255,1837
5256,1851
5257,1871
5258,1874
5259,1873
5260,1885
5261,1887
5262,1890
5263,1899
5264,1890
5265,1861
5266,1858
5267,1841
5268,1831
5269,1819
5270,1823
5271,1839
5272,1847
5273,1845
5274,1866
5275,1867
5276,1875
5277,1886
5278,1887
5279,1900
5280,1903
5281,1873
5282,1862
5283,1851
5284,1825
5285,1833
5286,1833
5287,1831
5288,1843
5289,1845
5290,1869
5291,1875
5292,1888
5293,1889
5294,1887
5295,1887
5296,1904
5297,1891
5298,1875
5299,1856
5300,1846
5301,1829
5302,1822
5303,1822
5304,1824
5305,1831
5306,1860
5307,1872
5308,1878
5309,1888
5310,1889
5311,1883
5312,1890
5313,1902
5314,1890
5315,1872
5316,1843
5317,1843
5318,1825
5319,1821
5320,1828
5321,1842
5322,1845
5323,1859
5324,1877
5325,1881
5326,1882
5327,1883
5328,1883
5329,1900
5330,1904
5331,1884
5332,1869
5333,1843
5334,1825
5335,1826
5336,1821
5337,1823
5338,1838
5339,1855
5340,1869
5341,1872
5342,1882
5343,1894
5344,1889
5345,1378
5346,2394
5347,1952
5348,1999
5349,2060
5350,2096
5351,2087
5352,2085
5353,2094
5354,2111
5355,2046
5356,1823
5357,1667
5358,1731
5359,1859
5360,1927
5361,1952
5362,1943
5363,1936
5364,1879
5365,1783
5366,1676
5367,1559
5368,1467
5369,1408
5370,1402
5371,1438
5372,1491
5373,1584
5374,1679
5375,1772
5376,1365
5377,2496
5378,1942
5379,2021
5380,2146
5381,2207
5382,2219
5383,2214
5384,2205
5385,2167
5386,2064
5387,1793
5388,1610
5389,1625
5390,1792
5391,1938
5392,2014
5393,2029
5394,1986
5395,1899
5396,1792
5397,1653
5398,1489
5399,1413
5400,1399
5401,1434
5402,1491
5403,1583
5404,1673
5405,1759
5406,1828
5407,1919
5408,2638
5409,2012
5410,2014
5411,2161
5412,2257
5413,2317
5414,2314
5415,2271
5416,2217
5417,2122
5418,1840
5419,1639
5420,1563
5421,1675
5422,1869
5423,1981
5424,2011
5425,1974
5426,1873
5427,1744
5428,1585
5429,1461
5430,1399
5431,1397
5432,1457
5433,1523
5434,1614
5435,1681
5436,1758
5437,1796
5438,1851
5439,2623
5440,2057
5441,1946
5442,2096
5443,2207
5444,2263
5445,2270
5446,2265
5447,2224
5448,2160
5449,2078
5450,1789
5451,1661
5452,1797
5453,1931
5454,1991
5455,1983
5456,1934
5457,1831
5458,1703
5459,1535
5460,1433
5461,1383
5462,1404
5463,1488
5464,1569
5465,1649
5466,1714
5467,1776
5468,1808
5469,1839
5470,2513
5471,2115
5472,1863
5473,2024
5474,2119
5475,2187
5476,2195
5477,2100
5478,1985
5479,2093
5480,2246
5481,2018
5482,1966
5483,2029
5484,2065
5485,2032
5486,2000
5487,1920
5488,1809
5489,1662
5490,1506
5491,1395
5492,1364
5493,1382
5494,1438
5495,1519
5496,1619
5497,1705
5498,1760
5499,1807
5500,1842
5501,2339
5502,2169
5503,1826
5504,1956
5505,2057
5506,2123
5507,2119
5508,1979
5509,1751
5510,2081
5511,2271
5512,2139
5513,2157
5514,2163
5515,2127
5516,2077
5517,2021
5518,1913
5519,1787
5520,1635
5521,1474
5522,1377
5523,1342
5524,1358
5525,1426
5526,1535
5527,1642
5528,1727
5529,1798
5530,1861
5531,1878
5532,1598
5533,2310
5534,1823
5535,1904
5536,1975
5537,2029
5538,1993
5539,1793
5540,1559
5541,2160
5542,2378
5543,2295
5544,2217
5545,2192
5546,2208
5547,2158
5548,2087
5549,1975
5550,1840
5551,1670
5552,1479
5553,1355
5554,1301
5555,1325
5556,1411
5557,1503
5558,1616
5559,1712
5560,1787
5561,1833
5562,1871
5563,1200
5564,2422
5565,1862
5566,1819
5567,1854
5568,1858
5569,1757
5570,1535
5571,1535
5572,2480
5573,2640
5574,2430
5575,2267
5576,2234
5577,2217
5578,2181
5579,2144
5580,2057
5581,1901
5582,1727
5583,1523
5584,1382
5585,1297
5586,1287
5587,1342
5588,1453
5589,1574
5590,1678
5591,1745
5592,1817
5593,1863
5594,1296
5595,2467
5596,1904
5597,1765
5598,1719
5599,1714
5600,1603
5601,1431
5602,1867
5603,2715
5604,2699
5605,2432
5606,2286
5607,2231
5608,2230
5609,2213
5610,2165
5611,2066
5612,1920
5613,1761
5614,1569
5615,1410
5616,1334
5617,1314
5618,1346
5619,1431
5620,1518
5621,1616
5622,1696
5623,1776
5624,1821
5625,1842
5626,2539
5627,1925
5628,1703
5629,1685
5630,1693
5631,1578
5632,1487
5633,2102
5634,2814
5635,2658
5636,2397
5637,2225
5638,2192
5639,2186
5640,2181
5641,2160
5642,2055
5643,1938
5644,1776
5645,1611
5646,1481
5647,1378
5648,1328
5649,1343
5650,1419
5651,1513
5652,1601
5653,1669
5654,1742
5655,1789
5656,1847
5657,2506
5658,2030
5659,1702
5660,1629
5661,1615
5662,1490
5663,1503
5664,2199
5665,2909
5666,2746
5667,2431
5668,2235
5669,2174
5670,2163
5671,2150
5672,2126
5673,2075
5674,1955
5675,1808
5676,1651
5677,1486
5678,1375
5679,1338
5680,1365
5681,1420
5682,1511
5683,1604
5684,1665
5685,1723
5686,1773
5687,1808
5688,2393
5689,2053
5690,1654
5691,1584
5692,1563
5693,1445
5694,1490
5695,2303
5696,3017
5697,2754
5698,2399
5699,2230
5700,2176
5701,2153
5702,2142
5703,2119
5704,2046
5705,1943
5706,1819
5707,1663
5708,1533
5709,1419
5710,1363
5711,1359
5712,1419
5713,1535
5714,1622
5715,1683
5716,1716
5717,1762
5718,1792
5719,2033
5720,2089
5721,1626
5722,1488
5723,1497
5724,1399
5725,1515
5726,2378
5727,2992
5728,2734
5729,2433
5730,2286
5731,2224
5732,2205
5733,2171
5734,2121
5735,2042
5736,1942
5737,1817
5738,1665
5739,1520
5740,1408
5741,1371
5742,1355
5743,1420
5744,1504
5745,1600
5746,1702
5747,1762
5748,1793
5749,1815
5750,1409
5751,2238
5752,1681
5753,1475
5754,1438
5755,1347
5756,1429
5757,2296
5758,3024
5759,2759
5760,2448
5761,2256
5762,2199
5763,2218
5764,2198
5765,2155
5766,2096
5767,1986
5768,1860
5769,1726
5770,1581
5771,1451
5772,1341
5773,1328
5774,1361
5775,1456
5776,1563
5777,1644
5778,1722
5779,1779
5780,1837
5781,1163
5782,2304
5783,1719
5784,1469
5785,1389
5786,1293
5787,1392
5788,2296
5789,3018
5790,2749
5791,2437
5792,2243
5793,2185
5794,2183
5795,2191
5796,2191
5797,2135
5798,2036
5799,1915
5800,1778
5801,1635
5802,1487
5803,1329
5804,1294
5805,1323
5806,1413
5807,1523
5808,1622
5809,1712
5810,1776
5811,1817
5812,1325
5813,2384
5814,1828
5815,1522
5816,1415
5817,1328
5818,1408
5819,2274
5820,2959
5821,2734
5822,2411
5823,2243
5824,2160
5825,2159
5826,2166
5827,2173
5828,2149
5829,2084
5830,1969
5831,1811
5832,1651
5833,1519
5834,1406
5835,1327
5836,1330
5837,1391
5838,1479
5839,1588
5840,1680
5841,1739
5842,1793
5843,1949
5844,2436
5845,1919
5846,1555
5847,1438
5848,1361
5849,1393
5850,2162
5851,2960
5852,2736
5853,2414
5854,2208
5855,2128
5856,2134
5857,2170
5858,2160
5859,2147
5860,2094
5861,1994
5862,1862
5863,1744
5864,1611
5865,1466
5866,1371
5867,1318
5868,1358
5869,1446
5870,1533
5871,1616
5872,1693
5873,1758
5874,1809
5875,2368
5876,1985
5877,1584
5878,1449
5879,1407
5880,1422
5881,2117
5882,2893
5883,2725
5884,2417
5885,2192
5886,2093
5887,2095
5888,2115
5889,2132
5890,2134
5891,2112
5892,2027
5893,1919
5894,1767
5895,1639
5896,1531
5897,1434
5898,1376
5899,1386
5900,1433
5901,1502
5902,1581
5903,1651
5904,1714
5905,1765
5906,2151
5907,2047
5908,1598
5909,1471
5910,1445
5911,1422
5912,2033
5913,2870
5914,2791
5915,2485
5916,2243
5917,2116
5918,2096
5919,2109
5920,2121
5921,2123
5922,2075
5923,1998
5924,1903
5925,1776
5926,1665
5927,1556
5928,1447
5929,1391
5930,1399
5931,1443
5932,1513
5933,1584
5934,1651
5935,1702
5936,1743
5937,1763
5938,2101
5939,1619
5940,1444
5941,1395
5942,1355
5943,1892
5944,2815
5945,2837
5946,2550
5947,2295
5948,2167
5949,2122
5950,2131
5951,2126
5952,2124
5953,2091
5954,2015
5955,1915
5956,1790
5957,1671
5958,1535
5959,1440
5960,1414
5961,1404
5962,1442
5963,1518
5964,1600
5965,1659
5966,1710
5967,1747
5968,1778
5969,1799
5970,1830
5971,1855
5972,1884
5973,1910
5974,1931
5975,1941
5976,1943
5977,1946
5978,1939
5979,1950
5980,1946
5981,1938
5982,1920
5983,1904
5984,1878
5985,1870
5986,1849
5987,1853
5988,1856
5989,1861
5990,1883
5991,1885
5992,1888
5993,1891
5994,1890
5995,1893
5996,1895
5997,1903
5998,1875
5999,1863
6000,1854
6001,1851
6002,1837
6003,1830
6004,1838
6005,1840
6006,1857
6007,1867
6008,1885
6009,1887
6010,1887
6011,1885
6012,1889
6013,1904
6014,1889
6015,1865
6016,1849
6017,1842
6018,1829
6019,1834
6020,1847
6021,1851
6022,1849
6023,1854
6024,1851
6025,1906
6026,1945
6027,1952
6028,1872
6029,1829
6030,1872
6031,1827
6032,1846
6033,1860
6034,1867
6035,1849
6036,1799
6037,1806
6038,1798
6039,1811
6040,1844
6041,1845
6042,1854
6043,1890
6044,1899
6045,1898
6046,1906
6047,1902
6048,1883
6049,1858
6050,1853
6051,1846
6052,1844
6053,1812
6054,1811
6055,1825
6056,1844
6057,1871
6058,1870
6059,1869
6060,1877
6061,1875
6062,1874
6063,1886
6064,1891
6065,1861
6066,1863
6067,1850
6068,1817
6069,1813
6070,1831
6071,1859
6072,1888
6073,1909
6074,1853
6075,1829
6076,1857
6077,1863
6078,1881
6079,1921
6080,1918
6081,1897
6082,1884
6083,1845
6084,1818
6085,1826
6086,1825
6087,1827
6088,1831
6089,1838
6090,1854
6091,1857
6092,1878
6093,1903
6094,1920
6095,1923
6096,1919
6097,1897
6098,1836
6099,1829
6100,1847
6101,1868
6102,1851
6103,1831
6104,1821
6105,1835
6106,1821
6107,1840
6108,1869
6109,1873
6110,1891
6111,1889
6112,1885
6113,1891
6114,1886
6115,1873
6116,1851
6117,1840
6118,1834
6119,1821
6120,1823
6121,1827
6122,1840
6123,1859
6124,1871
6125,1878
6126,1894
6127,1886
6128,1883
6129,1893
6130,1902
6131,1895
6132,1877
6133,1860
6134,1840
6135,1835
6136,1827
6137,1826
6138,1846
6139,1847
6140,1864
6141,1872
6142,1884
6143,1884
6144,1872
6145,1875
6146,1883
6147,1888
6148,1873
6149,1866
6150,1854
6151,1825
6152,1827
6153,1823
6154,1834
6155,1841
6156,1856
6157,1853
6158,1859
6159,1888
6160,1890
6161,1888
6162,1885
6163,1893
6164,1905
6165,1870
6166,1861
6167,1843
6168,1833
6169,1825
6170,1824
6171,1825
6172,1841
6173,1842
6174,1859
6175,1858
6176,1873
6177,1878
6178,1883
6179,1889
6180,1901
6181,1890
6182,1866
6183,1855
6184,1839
6185,1823
6186,1820
6187,1825
6188,1835
6189,1846
6190,1853
6191,1858
6192,1870
6193,1881
6194,1882
6195,1882
6196,1888
6197,1889
6198,1880
6199,1859
6200,1841
6201,1828
6202,1822
6203,1811
6204,1820
6205,1825
6206,1842
6207,1854
6208,1865
6209,1873
6210,1886
6211,1883
6212,1886
6213,1908
6214,1887
6215,1867
6216,1846
6217,1840
6218,1813
6219,1818
6220,1818
6221,1838
6222,1835
6223,1859
6224,1854
6225,1872
6226,1871
6227,1883
6228,1881
6229,1889
6230,1899
6231,1886
6232,1857
6233,1840
6234,1835
6235,1821
6236,1815
6237,1817
6238,1820
6239,1838
6240,1850
6241,1857
6242,1869
6243,1883
6244,1890
6245,1877
6246,1884
6247,1897
6248,1866
6249,1861
6250,1842
6251,1831
6252,1823
6253,1819
6254,1829
6255,1833
6256,1842
6257,1856
6258,1867
6259,1879
6260,1881
6261,1883
6262,1882
6263,1895
6264,1878
6265,1859
6266,1855
6267,1840
6268,1818
6269,1826
6270,1819
6271,1823
6272,1840
6273,1854
6274,1853
6275,1877
6276,1875
6277,1877
6278,1875
6279,1875
6280,1891
6281,1886
6282,1856
6283,1847
6284,1835
6285,1831
6286,1820
6287,1822
6288,1833
6289,1840
6290,1845
6291,1868
6292,1874
6293,1869
6294,1873
6295,1873
6296,1875
6297,1887
6298,1872
6299,1856
6300,1837
6301,1831
6302,1825
6303,1817
6304,1824
6305,1829
6306,1837
6307,1851
6308,1869
6309,1868
6310,1878
6311,1873
6312,1878
6313,1887
6314,1885
6315,1872
6316,1843
6317,1839
6318,1814
6319,1812
6320,1811
6321,1810
6322,1832
6323,1845
6324,1856
6325,1853
6326,1857
6327,1873
6328,1872
6329,1882
6330,1899
6331,1890
6332,1854
6333,1851
6334,1840
6335,1825
6336,1811
6337,1814
6338,1838
6339,1837
6340,1843
6341,1859
6342,1871
6343,1872
6344,1881
6345,1872
6346,1879
6347,1886
6348,1870
6349,1859
6350,1848
6351,1830
6352,1821
6353,1810
6354,1821
6355,1833
6356,1833
6357,1852
6358,1871
6359,1877
6360,1879
6361,1878
6362,1881
6363,1899
6364,1894
6365,1863
6366,1854
6367,1844
6368,1839
6369,1822
6370,1818
6371,1825
6372,1830
6373,1851
6374,1856
6375,1874
6376,1872
6377,1883
6378,1879
6379,1875
6380,1894
6381,1890
6382,1870
6383,1837
6384,1834
6385,1808
6386,1814
6387,1814
6388,1829
6389,1840
6390,1858
6391,1862
6392,1875
6393,1872
6394,1875
6395,1885
6396,1886
6397,1891
6398,1871
6399,1865
6400,1845
6401,1839
6402,1819
6403,1819
6404,1815
6405,1835
6406,1843
6407,1863
6408,1866
6409,1879
6410,1877
6411,1879
6412,1878
6413,1874
6414,1877
6415,1856
6416,1849
6417,1839
6418,1831
6419,1815
6420,1818
6421,1827
6422,1840
6423,1851
6424,1861
6425,1870
6426,1880
6427,1884
6428,1883
6429,1888
6430,1893
6431,1877
6432,1856
6433,1853
6434,1840
6435,1822
6436,1819
6437,1819
6438,1823
6439,1840
6440,1853
6441,1870
6442,1879
6443,1883
6444,1878
6445,1879
6446,1886
6447,1883
6448,1875
6449,1859
6450,1841
6451,1833
6452,1830
6453,1823
6454,1821
6455,1838
6456,1843
6457,1857
6458,1859
6459,1877
6460,1878
6461,1883
6462,1883
6463,1904
6464,1889
6465,1862
6466,1855
6467,1838
6468,1821
6469,1819
6470,1821
6471,1829
6472,1841
6473,1845
6474,1856
6475,1856
6476,1875
6477,1887
6478,1886
6479,1888
6480,1899
6481,1892
6482,1862
6483,1846
6484,1851
6485,1840
6486,1828
6487,1824
6488,1829
6489,1837
6490,1851
6491,1869
6492,1872
6493,1893
6494,1889
6495,1882
6496,1889
6497,1895
6498,1872
6499,1862
6500,1854
6501,1836
6502,1827
6503,1821
6504,1815
6505,1833
6506,1835
6507,1856
6508,1869
6509,1872
6510,1878
6511,1881
6512,1883
6513,1889
6514,1901
6515,1871
6516,1859
6517,1842
6518,1836
6519,1829
6520,1826
6521,1831
6522,1842
6523,1858
6524,1861
6525,1876
6526,1883
6527,1887
6528,1890
6529,1891
6530,1904
6531,1897
6532,1872
6533,1846
6534,1840
6535,1819
6536,1814
6537,1824
6538,1818
6539,1845
6540,1871
6541,1869
6542,1882
6543,1883
6544,1884
6545,1887
6546,1894
6547,1903
6548,1889
6549,1859
6550,1856
6551,1847
6552,1825
6553,1826
6554,1826
6555,1840
6556,1837
6557,1856
6558,1872
6559,1883
6560,1890
6561,1885
6562,1891
6563,1886
6564,1891
6565,1872
6566,1856
6567,1852
6568,1838
6569,1826
6570,1826
6571,1826
6572,1847
6573,1857
6574,1858
6575,1866
6576,1872
6577,1887
6578,1888
6579,1883
6580,1904
6581,1901
6582,1861
6583,1855
6584,1850
6585,1840
6586,1826
6587,1822
6588,1830
6589,1839
6590,1862
6591,1868
6592,1872
6593,1889
6594,1885
6595,1877
6596,1874
6597,1889
6598,1883
6599,1871
6600,1844
6601,1840
6602,1831
6603,1826
6604,1830
6605,1838
6606,1846
6607,1851
6608,1871
6609,1885
6610,1882
6611,1889
6612,1887
6613,1904
6614,1903
6615,1877
6616,1854
6617,1854
6618,1833
6619,1823
6620,1819
6621,1823
6622,1834
6623,1843
6624,1859
6625,1867
6626,1875
6627,1878
6628,1876
6629,1889
6630,1899
6631,1901
6632,1874
6633,1861
6634,1849
6635,1837
6636,1821
6637,1825
6638,1829
6639,1841
6640,1856
6641,1870
6642,1882
6643,1887
6644,1888
6645,1887
6646,1892
6647,1897
6648,1883
6649,1858
6650,1850
6651,1851
6652,1829
6653,1814
6654,1820
6655,1837
6656,1844
6657,1857
6658,1856
6659,1872
6660,1877
6661,1886
6662,1887
6663,1891
6664,1890
6665,1877
6666,1866
6667,1853
6668,1831
6669,1826
6670,1823
6671,1826
6672,1842
6673,1846
6674,1866
6675,1873
6676,1879
6677,1887
6678,1888
6679,1884
6680,1904
6681,1898
6682,1862
6683,1850
6684,1841
6685,1829
6686,1815
6687,1820
6688,1819
6689,1831
6690,1852
6691,1856
6692,1871
6693,1890
6694,1885
6695,1888
6696,1889
6697,1897
6698,1883
6699,1872
6700,1840
6701,1840
6702,1823
6703,1821
6704,1823
6705,1838
6706,1843
6707,1863
6708,1862
6709,1875
6710,1893
6711,1883
6712,1884
6713,1894
6714,1893
6715,1877
6716,1852
6717,1840
6718,1819
6719,1825
6720,1823
6721,1827
6722,1840
6723,1853
6724,1855
6725,1865
6726,1877
6727,1891
6728,1889
6729,1887
6730,1897
6731,1890
6732,1876
6733,1854
6734,1840
6735,1835
6736,1823
6737,1826
6738,1837
6739,1842
6740,1849
6741,1873
6742,1878
6743,1884
6744,1879
6745,1874
6746,1887
6747,1891
6748,1875
6749,1870
6750,1855
6751,1837
6752,1829
6753,1820
6754,1824
6755,1840
6756,1831
6757,1871
6758,1872
6759,1879
6760,1882
6761,1879
6762,1885
6763,1899
6764,1895
6765,1870
6766,1866
6767,1841
6768,1840
6769,1819
6770,1823
6771,1831
6772,1841
6773,1842
6774,1845
6775,1859
6776,1873
6777,1889
6778,1885
6779,1888
6780,1898
6781,1891
6782,1874
6783,1847
6784,1839
6785,1834
6786,1826
6787,1823
6788,1830
6789,1840
6790,1853
6791,1870
6792,1872
6793,1885
6794,1885
6795,1886
6796,1889
6797,1895
6798,1877
6799,1874
6800,1857
6801,1840
6802,1823
6803,1809
6804,1822
6805,1824
6806,1834
6807,1857
6808,1856
6809,1874
6810,1886
6811,1877
6812,1888
6813,1900
6814,1899
6815,1871
6816,1857
6817,1850
6818,1829
6819,1818
6820,1827
6821,1823
6822,1839
6823,1850
6824,1856
6825,1862
6826,1875
6827,1887
6828,1887
6829,1887
6830,1894
6831,1895
6832,1878
6833,1849
6834,1848
6835,1819
6836,1818
6837,1814
6838,1820
6839,1840
6840,1843
6841,1855
6842,1877
6843,1872
6844,1885
6845,1885
6846,1887
6847,1904
6848,1880
6849,1874
6850,1856
6851,1833
6852,1830
6853,1824
6854,1827
6855,1840
6856,1840
6857,1863
6858,1872
6859,1877
6860,1881
6861,1885
6862,1886
6863,1887
6864,1883
6865,1876
6866,1858
6867,1846
6868,1834
6869,1827
6870,1828
6871,1831
6872,1840
6873,1843
6874,1854
6875,1872
6876,1883
6877,1893
6878,1887
6879,1886
6880,1893
6881,1899
6882,1879
6883,1861
6884,1840
6885,1839
6886,1825
6887,1826
6888,1830
6889,1842
6890,1851
6891,1859
6892,1881
6893,1881
6894,1878
6895,1879
6896,1882
6897,1895
6898,1893
6899,1873
6900,1851
6901,1840
6902,1821
6903,1819
6904,1826
6905,1824
6906,1844
6907,1869
6908,1866
6909,1867
6910,1872
6911,1877
6912,1887
6913,1902
6914,1905
6915,1901
6916,1878
6917,1858
6918,1848
6919,1828
6920,1815
6921,1823
6922,1823
6923,1831
6924,1843
6925,1859
6926,1856
6927,1877
6928,1883
6929,1898
6930,1904
6931,1913
6932,1895
6933,1878
6934,1838
6935,1787
6936,1793
6937,1819
6938,1826
6939,1831
6940,1837
6941,1827
6942,1859
6943,1873
6944,1883
6945,1886
6946,1883
6947,1900
6948,1896
6949,1875
6950,1855
6951,1845
6952,1837
6953,1815
6954,1824
6955,1835
6956,1840
6957,1854
6958,1875
6959,1885
6960,1877
6961,1892
6962,1885
6963,1893
6964,1168
6965,2499
6966,1920
6967,1934
6968,1975
6969,2007
6970,2026
6971,2031
6972,2039
6973,2082
6974,2092
6975,1917
6976,1742
6977,1808
6978,1926
6979,1984
6980,2000
6981,1969
6982,1919
6983,1819
6984,1726
6985,1622
6986,1535
6987,1473
6988,1441
6989,1456
6990,1494
6991,1535
6992,1600
6993,1665
6994,1755
6995,1862
6996,2629
6997,1979
6998,1967
6999,2073
7000,2128
7001,2146
7002,2132
7003,2128
7004,2139
7005,2112
7006,1866
7007,1680
7008,1695
7009,1841
7010,1974
7011,2035
7012,2047
7013,2000
7014,1911
7015,1776
7016,1645
7017,1499
7018,1411
7019,1377
7020,1401
7021,1471
7022,1535
7023,1650
7024,1744
7025,1824
7026,1866
7027,2749
7028,2078
7029,1977
7030,2147
7031,2241
7032,2287
7033,2269
7034,2233
7035,2183
7036,2097
7037,1868
7038,1685
7039,1611
7040,1728
7041,1894
7042,2002
7043,2038
7044,2003
7045,1916
7046,1794
7047,1664
7048,1504
7049,1405
7050,1382
7051,1413
7052,1457
7053,1535
7054,1646
7055,1738
7056,1801
7057,1849
7058,2583
7059,2154
7060,1955
7061,2112
7062,2217
7063,2277
7064,2291
7065,2235
7066,2186
7067,2090
7068,1946
7069,1786
7070,1674
7071,1758
7072,1922
7073,1998
7074,2014
7075,1991
7076,1898
7077,1790
7078,1623
7079,1472
7080,1391
7081,1389
7082,1424
7083,1485
7084,1574
7085,1650
7086,1723
7087,1781
7088,1829
7089,2226
7090,2226
7091,1869
7092,1985
7093,2091
7094,2172
7095,2177
7096,2108
7097,2053
7098,2007
7099,2201
7100,2073
7101,1942
7102,1998
7103,2055
7104,2047
7105,2027
7106,1978
7107,1892
7108,1738
7109,1566
7110,1423
7111,1360
7112,1351
7113,1401
7114,1517
7115,1607
7116,1682
7117,1746
7118,1784
7119,1819
7120,1871
7121,2262
7122,1807
7123,1909
7124,2007
7125,2109
7126,2097
7127,1979
7128,1765
7129,1913
7130,2375
7131,2244
7132,2211
7133,2192
7134,2186
7135,2103
7136,2038
7137,1958
7138,1836
7139,1694
7140,1527
7141,1402
7142,1335
7143,1354
7144,1406
7145,1474
7146,1585
7147,1701
7148,1771
7149,1808
7150,1843
7151,1263
7152,2380
7153,1796
7154,1791
7155,1841
7156,1891
7157,1841
7158,1685
7159,1473
7160,2188
7161,2689
7162,2559
7163,2386
7164,2301
7165,2239
7166,2176
7167,2117
7168,2000
7169,1863
7170,1707
7171,1528
7172,1398
7173,1327
7174,1333
7175,1357
7176,1413
7177,1535
7178,1667
7179,1744
7180,1811
7181,1872
7182,1241
7183,2442
7184,1822
7185,1663
7186,1650
7187,1665
7188,1562
7189,1456
7190,1695
7191,2803
7192,2867
7193,2602
7194,2367
7195,2267
7196,2231
7197,2207
7198,2150
7199,2047
7200,1917
7201,1760
7202,1563
7203,1412
7204,1309
7205,1260
7206,1300
7207,1403
7208,1520
7209,1653
7210,1742
7211,1805
7212,1846
7213,1985
7214,2559
7215,1943
7216,1647
7217,1575
7218,1535
7219,1387
7220,1375
7221,2013
7222,3015
7223,2816
7224,2541
7225,2320
7226,2214
7227,2195
7228,2182
7229,2150
7230,2090
7231,1988
7232,1810
7233,1598
7234,1427
7235,1327
7236,1296
7237,1323
7238,1414
7239,1520
7240,1603
7241,1703
7242,1773
7243,1831
7244,1870
7245,2527
7246,2032
7247,1661
7248,1523
7249,1478
7250,1294
7251,1385
7252,2308
7253,3095
7254,2803
7255,2480
7256,2250
7257,2190
7258,2181
7259,2173
7260,2170
7261,2096
7262,1970
7263,1821
7264,1667
7265,1492
7266,1380
7267,1330
7268,1323
7269,1380
7270,1461
7271,1579
7272,1667
7273,1735
7274,1793
7275,1851
7276,2480
7277,2082
7278,1647
7279,1488
7280,1441
7281,1280
7282,1466
7283,2615
7284,3102
7285,2749
7286,2414
7287,2205
7288,2150
7289,2176
7290,2171
7291,2150
7292,2080
7293,1973
7294,1840
7295,1669
7296,1529
7297,1449
7298,1375
7299,1346
7300,1387
7301,1473
7302,1568
7303,1633
7304,1697
7305,1758
7306,1808
7307,2194
7308,2160
7309,1665
7310,1511
7311,1447
7312,1277
7313,1486
7314,2618
7315,3090
7316,2765
7317,2413
7318,2199
7319,2131
7320,2129
7321,2125
7322,2114
7323,2065
7324,1981
7325,1867
7326,1725
7327,1567
7328,1458
7329,1391
7330,1328
7331,1366
7332,1459
7333,1558
7334,1632
7335,1693
7336,1734
7337,1776
7338,1473
7339,2285
7340,1698
7341,1488
7342,1417
7343,1264
7344,1422
7345,2555
7346,3109
7347,2793
7348,2453
7349,2234
7350,2159
7351,2160
7352,2154
7353,2126
7354,2082
7355,2000
7356,1875
7357,1726
7358,1570
7359,1446
7360,1378
7361,1343
7362,1361
7363,1442
7364,1556
7365,1635
7366,1698
7367,1747
7368,1770
7369,1166
7370,2325
7371,1695
7372,1467
7373,1383
7374,1277
7375,1418
7376,2559
7377,3111
7378,2750
7379,2437
7380,2246
7381,2176
7382,2192
7383,2178
7384,2151
7385,2101
7386,2002
7387,1870
7388,1714
7389,1577
7390,1453
7391,1355
7392,1326
7393,1344
7394,1424
7395,1523
7396,1625
7397,1712
7398,1781
7399,1803
7400,1232
7401,2463
7402,1758
7403,1446
7404,1323
7405,1194
7406,1296
7407,2467
7408,3085
7409,2767
7410,2481
7411,2271
7412,2180
7413,2211
7414,2228
7415,2192
7416,2137
7417,2041
7418,1926
7419,1747
7420,1584
7421,1437
7422,1313
7423,1275
7424,1348
7425,1443
7426,1535
7427,1626
7428,1701
7429,1755
7430,1803
7431,1954
7432,2587
7433,1886
7434,1503
7435,1322
7436,1193
7437,1215
7438,2297
7439,3071
7440,2770
7441,2494
7442,2267
7443,2185
7444,2193
7445,2211
7446,2199
7447,2189
7448,2118
7449,2000
7450,1840
7451,1646
7452,1486
7453,1366
7454,1295
7455,1266
7456,1317
7457,1413
7458,1527
7459,1645
7460,1721
7461,1785
7462,1836
7463,2607
7464,1975
7465,1535
7466,1340
7467,1215
7468,1203
7469,2239
7470,3120
7471,2766
7472,2464
7473,2224
7474,2146
7475,2159
7476,2194
7477,2211
7478,2191
7479,2128
7480,2034
7481,1898
7482,1724
7483,1557
7484,1424
7485,1328
7486,1296
7487,1303
7488,1371
7489,1488
7490,1590
7491,1674
7492,1750
7493,1795
7494,2461
7495,2105
7496,1579
7497,1391
7498,1327
7499,1264
7500,2064
7501,3095
7502,2811
7503,2480
7504,2217
7505,2106
7506,2112
7507,2167
7508,2182
7509,2187
7510,2160
7511,2069
7512,1936
7513,1782
7514,1642
7515,1488
7516,1363
7517,1314
7518,1317
7519,1345
7520,1431
7521,1530
7522,1629
7523,1709
7524,1767
7525,2266
7526,2178
7527,1595
7528,1385
7529,1335
7530,1282
7531,2017
7532,3161
7533,2821
7534,2474
7535,2221
7536,2083
7537,2080
7538,2123
7539,2141
7540,2147
7541,2133
7542,2057
7543,1942
7544,1808
7545,1677
7546,1525
7547,1431
7548,1378
7549,1339
7550,1375
7551,1441
7552,1523
7553,1611
7554,1670
7555,1728
7556,1413
7557,2304
7558,1648
7559,1408
7560,1328
7561,1206
7562,1733
7563,3022
7564,2973
7565,2608
7566,2309
7567,2135
7568,2112
7569,2128
7570,2146
7571,2149
7572,2117
7573,2064
7574,1951
7575,1830
7576,1714
7577,1583
7578,1463
7579,1370
7580,1365
7581,1403
7582,1452
7583,1521
7584,1603
7585,1648
7586,1701
7587,1747
7588,1790
7589,1839
7590,1875
7591,1904
7592,1922
7593,1943
7594,1942
7595,1952
7596,1961
7597,1968
7598,1975
7599,1935
7600,1914
7601,1887
7602,1875
7603,1856
7604,1867
7605,1867
7606,1869
7607,1873
7608,1884
7609,1903
7610,1895
7611,1895
7612,1904
7613,1891
7614,1905
7615,1895
7616,1870
7617,1851
7618,1841
7619,1841
7620,1840
7621,1835
7622,1840
7623,1839
7624,1869
7625,1859
7626,1877
7627,1890
7628,1889
7629,1890
7630,1902
7631,1907
7632,1885
7633,1859
7634,1840
7635,1827
7636,1822
7637,1823
7638,1830
7639,1840
7640,1857
7641,1858
7642,1873
7643,1871
7644,1882
7645,1882
7646,1882
7647,1906
7648,1897
7649,1866
7650,1858
7651,1854
7652,1841
7653,1819
7654,1824
7655,1835
7656,1840
7657,1857
7658,1855
7659,1874
7660,1873
7661,1883
7662,1882
7663,1883
7664,1901
7665,1889
7666,1866
7667,1858
7668,1850
7669,1827
7670,1819
7671,1826
7672,1840
7673,1847
7674,1859
7675,1851
7676,1872
7677,1879
7678,1882
7679,1887
7680,1896
7681,1905
7682,1885
7683,1852
7684,1849
7685,1841
7686,1835
7687,1837
7688,1834
7689,1846
7690,1825
7691,1845
7692,1872
7693,1865
7694,1872
7695,1877
7696,1879
7697,1886
7698,1906
7699,1874
7700,1858
7701,1847
7702,1828
7703,1819
7704,1819
7705,1828
7706,1836
7707,1840
7708,1861
7709,1871
7710,1885
7711,1897
7712,1904
7713,1907
7714,1933
7715,1920
7716,1870
7717,1819
7718,1815
7719,1817
7720,1801
7721,1823
7722,1840
7723,1837
7724,1870
7725,1873
7726,1882
7727,1856
7728,1873
7729,1874
7730,1878
7731,1895
7732,1890
7733,1863
7734,1839
7735,1842
7736,1819
7737,1814
7738,1817
7739,1843
7740,1863
7741,1862
7742,1872
7743,1873
7744,1879
7745,1885
7746,1885
7747,1884
7748,1890
7749,1861
7750,1859
7751,1853
7752,1832
7753,1827
7754,1825
7755,1837
7756,1846
7757,1853
7758,1867
7759,1875
7760,1881
7761,1879
7762,1879
7763,1874
7764,1902
7765,1872
7766,1853
7767,1856
7768,1842
7769,1829
7770,1823
7771,1826
7772,1838
7773,1840
7774,1841
7775,1867
7776,1878
7777,1888
7778,1887
7779,1883
7780,1888
7781,1893
7782,1885
7783,1871
7784,1854
7785,1844
7786,1825
7787,1819
7788,1822
7789,1831
7790,1835
7791,1856
7792,1872
7793,1872
7794,1872
7795,1873
7796,1873
7797,1900
7798,1885
7799,1869
7800,1854
7801,1840
7802,1831
7803,1821
7804,1818
7805,1824
7806,1839
7807,1843
7808,1857
7809,1868
7810,1867
7811,1885
7812,1886
7813,1879
7814,1902
7815,1886
7816,1859
7817,1851
7818,1840
7819,1821
7820,1814
7821,1815
7822,1835
7823,1828
7824,1847
7825,1856
7826,1867
7827,1865
7828,1872
7829,1879
7830,1887
7831,1892
7832,1871
7833,1860
7834,1851
7835,1830
7836,1815
7837,1822
7838,1814
7839,1835
7840,1838
7841,1856
7842,1865
7843,1867
7844,1885
7845,1878
7846,1882
7847,1888
7848,1903
7849,1877
7850,1853
7851,1835
7852,1822
7853,1808
7854,1811
7855,1811
7856,1827
7857,1839
7858,1862
7859,1872
7860,1879
7861,1872
7862,1882
7863,1877
7864,1899
7865,1890
7866,1873
7867,1856
7868,1849
7869,1830
7870,1818
7871,1824
7872,1837
7873,1840
7874,1840
7875,1850
7876,1862
7877,1871
7878,1875
7879,1879
7880,1887
7881,1894
7882,1869
7883,1846
7884,1844
7885,1822
7886,1808
7887,1810
7888,1807
7889,1826
7890,1840
7891,1861
7892,1867
7893,1868
7894,1885
7895,1873
7896,1883
7897,1892
7898,1887
7899,1872
7900,1850
7901,1847
7902,1827
7903,1817
7904,1819
7905,1818
7906,1835
7907,1845
7908,1861
7909,1865
7910,1874
7911,1882
7912,1876
7913,1870
7914,1886
7915,1878
7916,1859
7917,1855
7918,1827
7919,1823
7920,1810
7921,1818
7922,1825
7923,1839
7924,1854
7925,1862
7926,1870
7927,1886
7928,1881
7929,1879
7930,1889
7931,1891
7932,1886
7933,1865
7934,1840
7935,1823
7936,1818
7937,1811
7938,1818
7939,1823
7940,1829
7941,1844
7942,1862
7943,1870
7944,1872
7945,1871
7946,1872
7947,1874
7948,1879
7949,1871
7950,1854
7951,1841
7952,1817
7953,1815
7954,1818
7955,1821
7956,1835
7957,1834
7958,1850
7959,1857
7960,1861
7961,1873
7962,1878
7963,1877
7964,1890
7965,1877
7966,1856
7967,1845
7968,1835
7969,1825
7970,1818
7971,1811
7972,1825
7973,1823
7974,1846
7975,1843
7976,1858
7977,1867
7978,1879
7979,1878
7980,1877
7981,1883
7982,1872
7983,1863
7984,1844
7985,1835
7986,1825
7987,1815
7988,1814
7989,1830
7990,1831
7991,1862
7992,1856
7993,1872
7994,1881
7995,1878
7996,1875
7997,1901
7998,1901
7999,1882
8000,1851
8001,1835
8002,1825
8003,1810
8004,1809
8005,1813
8006,1828
8007,1840
8008,1844
8009,1866
8010,1872
8011,1874
8012,1877
8013,1879
8014,1902
8015,1894
8016,1857
8017,1846
8018,1839
8019,1821
8020,1825
8021,1822
8022,1830
8023,1830
8024,1851
8025,1857
8026,1872
8027,1877
8028,1885
8029,1875
8030,1879
8031,1895
8032,1872
8033,1856
8034,1843
8035,1827
8036,1821
8037,1810
8038,1819
8039,1840
8040,1838
8041,1857
8042,1862
8043,1876
8044,1878
8045,1882
8046,1881
8047,1882
8048,1891
8049,1883
8050,1861
8051,1853
8052,1827
8053,1827
8054,1819
8055,1827
8056,1839
8057,1841
8058,1855
8059,1871
8060,1874
8061,1879
8062,1875
8063,1882
8064,1892
8065,1879
8066,1871
8067,1858
8068,1849
8069,1840
8070,1822
8071,1825
8072,1830
8073,1838
8074,1851
8075,1861
8076,1878
8077,1877
8078,1881
8079,1885
8080,1879
8081,1898
8082,1884
8083,1872
8084,1851
8085,1835
8086,1827
8087,1825
8088,1824
8089,1835
8090,1837
8091,1847
8092,1859
8093,1867
8094,1886
8095,1881
8096,1879
8097,1885
8098,1889
8099,1881
8100,1870
8101,1847
8102,1836
8103,1829
8104,1823
8105,1830
8106,1841
8107,1840
8108,1865
8109,1879
8110,1877
8111,1892
8112,1891
8113,1894
8114,1906
8115,1899
8116,1875
8117,1865
8118,1840
8119,1830
8120,1821
8121,1821
8122,1822
8123,1839
8124,1855
8125,1862
8126,1865
8127,1872
8128,1883
8129,1886
8130,1891
8131,1901
8132,1885
8133,1872
8134,1856
8135,1840
8136,1833
8137,1825
8138,1827
8139,1839
8140,1840
8141,1869
8142,1872
8143,1872
8144,1898
8145,1884
8146,1887
8147,1890
8148,1897
8149,1889
8150,1861
8151,1844
8152,1838
8153,1825
8154,1815
8155,1819
8156,1839
8157,1856
8158,1856
8159,1872
8160,1873
8161,1886
8162,1885
8163,1891
8164,1898
8165,1904
8166,1871
8167,1857
8168,1840
8169,1834
8170,1825
8171,1827
8172,1837
8173,1845
8174,1863
8175,1866
8176,1879
8177,1898
8178,1887
8179,1885
8180,1886
8181,1904
8182,1891
8183,1867
8184,1841
8185,1849
8186,1822
8187,1812
8188,1823
8189,1833
8190,1839
8191,1857
8192,1867
8193,1877
8194,1891
8195,1891
8196,1885
8197,1889
8198,1902
8199,1872
8200,1867
8201,1854
8202,1845
8203,1827
8204,1827
8205,1826
8206,1839
8207,1843
8208,1856
8209,1873
8210,1871
8211,1879
8212,1883
8213,1881
8214,1882
8215,1889
8216,1869
8217,1863
8218,1852
8219,1824
8220,1823
8221,1823
8222,1825
8223,1840
8224,1844
8225,1867
8226,1867
8227,1877
8228,1886
8229,1885
8230,1883
8231,1903
8232,1892
8233,1873
8234,1852
8235,1840
8236,1838
8237,1822
8238,1824
8239,1835
8240,1851
8241,1866
8242,1863
8243,1867
8244,1869
8245,1883
8246,1874
8247,1890
8248,1895
8249,1884
8250,1869
8251,1859
8252,1846
8253,1828
8254,1829
8255,1828
8256,1842
8257,1849
8258,1856
8259,1872
8260,1872
8261,1883
8262,1885
8263,1888
8264,1897
8265,1901
8266,1872
8267,1857
8268,1855
8269,1837
8270,1823
8271,1826
8272,1840
8273,1836
8274,1842
8275,1854
8276,1874
8277,1884
8278,1882
8279,1884
8280,1887
8281,1904
8282,1903
8283,1882
8284,1849
8285,1839
8286,1833
8287,1818
8288,1823
8289,1826
8290,1843
8291,1862
8292,1863
8293,1873
8294,1883
8295,1889
8296,1885
8297,1897
8298,1898
8299,1882
8300,1868
8301,1848
8302,1840
8303,1822
8304,1813
8305,1824
8306,1834
8307,1840
8308,1855
8309,1872
8310,1878
8311,1891
8312,1885
8313,1885
8314,1892
8315,1903
8316,1884
8317,1853
8318,1842
8319,1831
8320,1818
8321,1825
8322,1833
8323,1840
8324,1857
8325,1856
8326,1875
8327,1872
8328,1889
8329,1885
8330,1889
8331,1904
8332,1897
8333,1861
8334,1851
8335,1835
8336,1827
8337,1814
8338,1821
8339,1833
8340,1841
8341,1863
8342,1869
8343,1876
8344,1872
8345,1886
8346,1888
8347,1890
8348,1902
8349,1885
8350,1860
8351,1850
8352,1839
8353,1828
8354,1824
8355,1831
8356,1837
8357,1839
8358,1853
8359,1872
8360,1875
8361,1894
8362,1884
8363,1882
8364,1898
8365,1899
8366,1865
8367,1856
8368,1843
8369,1833
8370,1830
8371,1827
8372,1825
8373,1838
8374,1841
8375,1869
8376,1866
8377,1886
8378,1887
8379,1882
8380,1879
8381,1901
8382,1892
8383,1874
8384,1855
8385,1840
8386,1831
8387,1827
8388,1827
8389,1840
8390,1843
8391,1856
8392,1872
8393,1872
8394,1883
8395,1877
8396,1875
8397,1887
8398,1889
8399,1883
8400,1863
8401,1850
8402,1825
8403,1826
8404,1831
8405,1826
8406,1839
8407,1847
8408,1850
8409,1871
8410,1871
8411,1903
8412,1890
8413,1887
8414,1904
8415,1890
8416,1879
8417,1861
8418,1838
8419,1825
8420,1812
8421,1818
8422,1830
8423,1840
8424,1854
8425,1855
8426,1862
8427,1873
8428,1875
8429,1890
8430,1886
8431,1904
8432,1893
8433,1874
8434,1855
8435,1845
8436,1840
8437,1825
8438,1822
8439,1841
8440,1837
8441,1853
8442,1872
8443,1874
8444,1894
8445,1883
8446,1889
8447,1891
8448,1901
8449,1886
8450,1871
8451,1847
8452,1839
8453,1815
8454,1821
8455,1815
8456,1836
8457,1850
8458,1856
8459,1869
8460,1876
8461,1885
8462,1890
8463,1886
8464,1891
8465,1897
8466,1878
8467,1859
8468,1841
8469,1834
8470,1825
8471,1825
8472,1825
8473,1840
8474,1857
8475,1860
8476,1876
8477,1879
8478,1885
8479,1889
8480,1894
8481,1904
8482,1902
8483,1862
8484,1852
8485,1840
8486,1822
8487,1813
8488,1818
8489,1835
8490,1842
8491,1852
8492,1858
8493,1872
8494,1888
8495,1888
8496,1883
8497,1893
8498,1901
8499,1894
8500,1857
8501,1863
8502,1847
8503,1830
8504,1822
8505,1828
8506,1840
8507,1840
8508,1856
8509,1871
8510,1883
8511,1889
8512,1884
8513,1874
8514,1885
8515,1894
8516,1863
8517,1858
8518,1846
8519,1835
8520,1824
8521,1822
8522,1837
8523,1840
8524,1857
8525,1855
8526,1877
8527,1873
8528,1885
8529,1882
8530,1885
8531,1902
8532,1889
8533,1872
8534,1854
8535,1853
8536,1826
8537,1823
8538,1823
8539,1827
8540,1840
8541,1860
8542,1867
8543,1873
8544,1871
8545,1878
8546,1875
8547,1883
8548,1891
8549,1878
8550,1871
8551,1851
8552,1837
8553,1827
8554,1821
8555,1830
8556,1840
8557,1840
8558,1862
8559,1867
8560,1875
8561,1890
8562,1891
8563,1885
8564,1895
8565,1890
8566,1872
8567,1859
8568,1855
8569,1847
8570,1830
8571,1825
8572,1827
8573,1832
8574,1851
8575,1855
8576,1871
8577,1870
8578,1889
8579,1887
8580,1892
8581,1904
8582,1905
8583,1941
8584,2626
8585,1957
8586,1885
8587,1965
8588,2010
8589,2064
8590,2095
8591,2122
8592,2160
8593,2178
8594,1984
8595,1755
8596,1733
8597,1840
8598,1923
8599,1947
8600,1937
8601,1914
8602,1870
8603,1752
8604,1657
8605,1555
8606,1479
8607,1430
8608,1425
8609,1465
8610,1511
8611,1535
8612,1618
8613,1715
8614,1806
8615,2687
8616,2000
8617,1917
8618,2005
8619,2081
8620,2125
8621,2161
8622,2181
8623,2198
8624,2189
8625,1954
8626,1740
8627,1671
8628,1772
8629,1936
8630,2043
8631,2107
8632,2071
8633,1961
8634,1818
8635,1650
8636,1456
8637,1355
8638,1317
8639,1345
8640,1429
8641,1520
8642,1642
8643,1740
8644,1798
8645,1867
8646,2667
8647,2137
8648,1965
8649,2110
8650,2183
8651,2240
8652,2267
8653,2235
8654,2197
8655,2171
8656,1974
8657,1744
8658,1597
8659,1668
8660,1871
8661,2026
8662,2071
8663,2038
8664,1957
8665,1830
8666,1643
8667,1463
8668,1350
8669,1311
8670,1347
8671,1431
8672,1531
8673,1648
8674,1730
8675,1806
8676,1872
8677,2206
8678,2291
8679,1939
8680,2066
8681,2194
8682,2269
8683,2299
8684,2273
8685,2221
8686,2162
8687,2031
8688,1851
8689,1654
8690,1707
8691,1910
8692,2018
8693,2046
8694,2018
8695,1923
8696,1789
8697,1616
8698,1469
8699,1381
8700,1343
8701,1365
8702,1452
8703,1526
8704,1626
8705,1714
8706,1783
8707,1842
8708,1558
8709,2377
8710,1890
8711,1971
8712,2079
8713,2160
8714,2222
8715,2194
8716,2114
8717,2009
8718,2113
8719,2064
8720,1874
8721,1933
8722,2033
8723,2075
8724,2070
8725,2014
8726,1919
8727,1762
8728,1585
8729,1439
8730,1362
8731,1360
8732,1402
8733,1461
8734,1535
8735,1638
8736,1711
8737,1770
8738,1817
8739,1200
8740,2438
8741,1861
8742,1904
8743,2009
8744,2113
8745,2157
8746,2060
8747,1883
8748,1870
8749,2256
8750,2214
8751,2145
8752,2166
8753,2150
8754,2113
8755,2066
8756,2001
8757,1874
8758,1743
8759,1573
8760,1425
8761,1350
8762,1330
8763,1365
8764,1456
8765,1584
8766,1669
8767,1728
8768,1779
8769,1822
8770,1328
8771,2518
8772,1861
8773,1801
8774,1874
8775,1943
8776,1954
8777,1836
8778,1607
8779,1891
8780,2541
8781,2522
8782,2407
8783,2285
8784,2234
8785,2166
8786,2110
8787,2010
8788,1873
8789,1719
8790,1533
8791,1402
8792,1346
8793,1341
8794,1392
8795,1456
8796,1554
8797,1646
8798,1744
8799,1808
8800,1834
8801,1968
8802,2647
8803,1949
8804,1713
8805,1741
8806,1785
8807,1744
8808,1600
8809,1449
8810,2340
8811,2780
8812,2586
8813,2343
8814,2241
8815,2215
8816,2181
8817,2121
8818,2039
8819,1923
8820,1776
8821,1616
8822,1481
8823,1364
8824,1307
8825,1337
8826,1398
8827,1517
8828,1629
8829,1709
8830,1776
8831,1830
8832,1872
8833,2544
8834,2019
8835,1650
8836,1571
8837,1581
8838,1486
8839,1370
8840,1666
8841,2832
8842,2947
8843,2605
8844,2372
8845,2259
8846,2221
8847,2183
8848,2161
8849,2096
8850,1969
8851,1810
8852,1631
8853,1471
8854,1354
8855,1319
8856,1303
8857,1374
8858,1516
8859,1616
8860,1697
8861,1765
8862,1818
8863,1859
8864,2335
8865,2160
8866,1675
8867,1559
8868,1520
8869,1379
8870,1324
8871,1875
8872,2991
8873,2881
8874,2558
8875,2319
8876,2206
8877,2187
8878,2176
8879,2153
8880,2094
8881,2002
8882,1872
8883,1666
8884,1516
8885,1383
8886,1328
8887,1307
8888,1359
8889,1456
8890,1572
8891,1659
8892,1732
8893,1797
8894,1847
8895,2134
8896,2209
8897,1689
8898,1556
8899,1501
8900,1344
8901,1360
8902,2127
8903,3046
8904,2838
8905,2491
8906,2229
8907,2153
8908,2165
8909,2163
8910,2160
8911,2112
8912,2000
8913,1872
8914,1712
8915,1555
8916,1423
8917,1332
8918,1332
8919,1367
8920,1431
8921,1532
8922,1621
8923,1696
8924,1759
8925,1827
8926,1578
8927,2324
8928,1739
8929,1506
8930,1443
8931,1360
8932,1394
8933,2240
8934,3070
8935,2822
8936,2479
8937,2226
8938,2135
8939,2140
8940,2149
8941,2134
8942,2107
8943,2026
8944,1911
8945,1760
8946,1607
8947,1487
8948,1414
8949,1342
8950,1360
8951,1413
8952,1516
8953,1600
8954,1662
8955,1724
8956,1776
8957,1069
8958,2471
8959,1788
8960,1524
8961,1467
8962,1376
8963,1396
8964,2262
8965,3056
8966,2839
8967,2497
8968,2243
8969,2134
8970,2109
8971,2114
8972,2103
8973,2070
8974,1997
8975,1889
8976,1746
8977,1604
8978,1495
8979,1424
8980,1415
8981,1434
8982,1488
8983,1529
8984,1607
8985,1655
8986,1687
8987,1735
8988,1585
8989,2530
8990,1805
8991,1482
8992,1392
8993,1326
8994,1318
8995,2179
8996,3086
8997,2873
8998,2526
8999,2282
9000,2173
9001,2149
9002,2149
9003,2141
9004,2097
9005,2032
9006,1930
9007,1771
9008,1622
9009,1497
9010,1401
9011,1361
9012,1372
9013,1405
9014,1501
9015,1610
9016,1671
9017,1712
9018,1745
9019,1844
9020,2602
9021,1878
9022,1458
9023,1331
9024,1259
9025,1235
9026,2088
9027,3099
9028,2957
9029,2559
9030,2315
9031,2210
9032,2191
9033,2186
9034,2166
9035,2113
9036,2019
9037,1905
9038,1773
9039,1651
9040,1535
9041,1454
9042,1392
9043,1335
9044,1402
9045,1491
9046,1584
9047,1664
9048,1742
9049,1776
9050,1803
9051,2559
9052,1987
9053,1450
9054,1260
9055,1178
9056,1136
9057,1999
9058,3101
9059,2931
9060,2601
9061,2322
9062,2214
9063,2192
9064,2209
9065,2222
9066,2192
9067,2119
9068,1994
9069,1855
9070,1712
9071,1567
9072,1424
9073,1344
9074,1299
9075,1344
9076,1414
9077,1520
9078,1616
9079,1697
9080,1765
9081,1819
9082,2379
9083,2099
9084,1533
9085,1338
9086,1266
9087,1191
9088,1896
9089,3029
9090,2871
9091,2550
9092,2299
9093,2167
9094,2165
9095,2185
9096,2203
9097,2183
9098,2146
9099,2043
9100,1905
9101,1734
9102,1587
9103,1450
9104,1353
9105,1311
9106,1346
9107,1408
9108,1487
9109,1589
9110,1677
9111,1746
9112,1799
9113,1903
9114,2242
9115,1639
9116,1360
9117,1297
9118,1217
9119,1781
9120,2901
9121,2894
9122,2556
9123,2294
9124,2141
9125,2128
9126,2160
9127,2187
9128,2175
9129,2135
9130,2065
9131,1966
9132,1840
9133,1687
9134,1523
9135,1390
9136,1322
9137,1298
9138,1344
9139,1419
9140,1520
9141,1615
9142,1699
9143,1775
9144,1459
9145,2314
9146,1649
9147,1382
9148,1326
9149,1233
9150,1739
9151,2890
9152,2889
9153,2559
9154,2288
9155,2129
9156,2107
9157,2125
9158,2157
9159,2171
9160,2149
9161,2085
9162,1981
9163,1841
9164,1712
9165,1603
9166,1478
9167,1378
9168,1359
9169,1363
9170,1418
9171,1488
9172,1583
9173,1659
9174,1713
9175,1091
9176,2450
9177,1747
9178,1427
9179,1330
9180,1250
9181,1600
9182,2845
9183,2951
9184,2624
9185,2327
9186,2150
9187,2094
9188,2099
9189,2124
9190,2133
9191,2128
9192,2070
9193,1984
9194,1863
9195,1744
9196,1616
9197,1509
9198,1442
9199,1397
9200,1379
9201,1418
9202,1486
9203,1557
9204,1627
9205,1687
9206,1744
9207,1805
9208,1849
9209,1879
9210,1917
9211,1936
9212,1940
9213,1936
9214,1938
9215,1955
9216,1950
9217,1926
9218,1904
9219,1889
9220,1871
9221,1861
9222,1862
9223,1872
9224,1881
9225,1894
9226,1904
9227,1903
9228,1911
9229,1920
9230,1909
9231,1922
9232,1917
9233,1883
9234,1872
9235,1851
9236,1840
9237,1836
9238,1828
9239,1837
9240,1851
9241,1849
9242,1863
9243,1879
9244,1883
9245,1898
9246,1885
9247,1886
9248,1897
9249,1893
9250,1868
9251,1861
9252,1840
9253,1837
9254,1833
9255,1829
9256,1826
9257,1838
9258,1854
9259,1862
9260,1871
9261,1875
9262,1887
9263,1883
9264,1879
9265,1890
9266,1881
9267,1874
9268,1847
9269,1841
9270,1838
9271,1833
9272,1829
9273,1840
9274,1851
9275,1859
9276,1872
9277,1891
9278,1884
9279,1879
9280,1873
9281,1889
9282,1897
9283,1873
9284,1869
9285,1839
9286,1839
9287,1833
9288,1827
9289,1831
9290,1839
9291,1840
9292,1867
9293,1867
9294,1865
9295,1876
9296,1875
9297,1872
9298,1891
9299,1897
9300,1867
9301,1857
9302,1846
9303,1836
9304,1823
9305,1829
9306,1834
9307,1841
9308,1856
9309,1866
9310,1879
9311,1883
9312,1890
9313,1879
9314,1885
9315,1897
9316,1886
9317,1868
9318,1840
9319,1840
9320,1825
9321,1815
9322,1824
9323,1837
9324,1839
9325,1857
9326,1851
9327,1856
9328,1872
9329,1886
9330,1887
9331,1899
9332,1902
9333,1872
9334,1862
9335,1849
9336,1838
9337,1823
9338,1825
9339,1823
9340,1841
9341,1863
9342,1863
9343,1872
9344,1873
9345,1898
9346,1886
9347,1886
9348,1893
9349,1888
9350,1877
9351,1850
9352,1833
9353,1825
9354,1821
9355,1825
9356,1838
9357,1837
9358,1854
9359,1876
9360,1868
9361,1870
9362,1882
9363,1883
9364,1882
9365,1898
9366,1888
9367,1861
9368,1842
9369,1842
9370,1830
9371,1824
9372,1821
9373,1827
9374,1835
9375,1851
9376,1872
9377,1872
9378,1887
9379,1881
9380,1882
9381,1897
9382,1894
9383,1865
9384,1860
9385,1832
9386,1825
9387,1812
9388,1810
9389,1833
9390,1836
9391,1853
9392,1862
9393,1868
9394,1882
9395,1889
9396,1890
9397,1881
9398,1905
9399,1903
9400,1875
9401,1851
9402,1835
9403,1825
9404,1821
9405,1819
9406,1839
9407,1839
9408,1856
9409,1863
9410,1869
9411,1873
9412,1890
9413,1875
9414,1878
9415,1887
9416,1872
9417,1856
9418,1841
9419,1844
9420,1837
9421,1825
9422,1826
9423,1825
9424,1834
9425,1855
9426,1861
9427,1873
9428,1894
9429,1883
9430,1877
9431,1886
9432,1890
9433,1870
9434,1853
9435,1840
9436,1840
9437,1830
9438,1827
9439,1828
9440,1836
9441,1838
9442,1859
9443,1857
9444,1865
9445,1872
9446,1876
9447,1875
9448,1887
9449,1902
9450,1865
9451,1847
9452,1835
9453,1830
9454,1826
9455,1819
9456,1833
9457,1842
9458,1853
9459,1858
9460,1873
9461,1868
9462,1882
9463,1878
9464,1881
9465,1893
9466,1883
9467,1858
9468,1841
9469,1842
9470,1833
9471,1815
9472,1818
9473,1819
9474,1838
9475,1840
9476,1856
9477,1866
9478,1872
9479,1883
9480,1881
9481,1883
9482,1891
9483,1872
9484,1856
9485,1839
9486,1825
9487,1819
9488,1814
9489,1819
9490,1837
9491,1835
9492,1850
9493,1860
9494,1875
9495,1883
9496,1877
9497,1876
9498,1893
9499,1887
9500,1860
9501,1846
9502,1831
9503,1822
9504,1809
9505,1815
9506,1823
9507,1826
9508,1836
9509,1858
9510,1865
9511,1867
9512,1879
9513,1872
9514,1881
9515,1887
9516,1872
9517,1853
9518,1833
9519,1819
9520,1808
9521,1811
9522,1817
9523,1817
9524,1831
9525,1837
9526,1859
9527,1869
9528,1879
9529,1882
9530,1877
9531,1887
9532,1887
9533,1871
9534,1841
9535,1837
9536,1823
9537,1819
9538,1808
9539,1819
9540,1830
9541,1847
9542,1856
9543,1856
9544,1880
9545,1879
9546,1875
9547,1875
9548,1890
9549,1885
9550,1855
9551,1855
9552,1847
9553,1825
9554,1809
9555,1817
9556,1828
9557,1839
9558,1854
9559,1856
9560,1873
9561,1877
9562,1883
9563,1871
9564,1871
9565,1887
9566,1872
9567,1863
9568,1849
9569,1841
9570,1819
9571,1818
9572,1818
9573,1834
9574,1827
9575,1851
9576,1853
9577,1862
9578,1883
9579,1873
9580,1878
9581,1886
9582,1886
9583,1870
9584,1850
9585,1843
9586,1840
9587,1822
9588,1823
9589,1818
9590,1831
9591,1844
9592,1854
9593,1856
9594,1872
9595,1882
9596,1874
9597,1876
9598,1886
9599,1890
9600,1863
9601,1860
9602,1843
9603,1831
9604,1816
9605,1818
9606,1823
9607,1839
9608,1857
9609,1863
9610,1866
9611,1873
9612,1886
9613,1879
9614,1879
9615,1899
9616,1889
9617,1863
9618,1847
9619,1829
9620,1825
9621,1822
9622,1819
9623,1831
9624,1837
9625,1857
9626,1862
9627,1873
9628,1887
9629,1891
9630,1887
9631,1887
9632,1898
9633,1891
9634,1863
9635,1843
9636,1841
9637,1831
9638,1834
9639,1836
9640,1843
9641,1851
9642,1854
9643,1879
9644,1872
9645,1884
9646,1893
9647,1890
9648,1893
9649,1901
9650,1876
9651,1855
9652,1843
9653,1830
9654,1824
9655,1824
9656,1830
9657,1843
9658,1860
9659,1861
9660,1872
9661,1872
9662,1889
9663,1889
9664,1883
9665,1901
9666,1893
9667,1865
9668,1861
9669,1851
9670,1835
9671,1827
9672,1831
9673,1842
9674,1845
9675,1859
9676,1872
9677,1876
9678,1890
9679,1887
9680,1887
9681,1889
9682,1901
9683,1872
9684,1857
9685,1840
9686,1840
9687,1823
9688,1818
9689,1835
9690,1839
9691,1842
9692,1860
9693,1870
9694,1876
9695,1900
9696,1892
9697,1889
9698,1906
9699,1905
9700,1872
9701,1865
9702,1852
9703,1833
9704,1830
9705,1830
9706,1837
9707,1841
9708,1858
9709,1857
9710,1887
9711,1877
9712,1885
9713,1885
9714,1878
9715,1894
9716,1877
9717,1875
9718,1856
9719,1848
9720,1831
9721,1826
9722,1830
9723,1840
9724,1847
9725,1869
9726,1872
9727,1872
9728,1883
9729,1883
9730,1887
9731,1894
9732,1901
9733,1879
9734,1861
9735,1856
9736,1842
9737,1830
9738,1824
9739,1833
9740,1840
9741,1849
9742,1855
9743,1872
9744,1868
9745,1886
9746,1879
9747,1882
9748,1892
9749,1891
9750,1876
9751,1872
9752,1854
9753,1827
9754,1822
9755,1826
9756,1837
9757,1841
9758,1845
9759,1861
9760,1882
9761,1874
9762,1888
9763,1889
9764,1889
9765,1904
9766,1894
9767,1870
9768,1859
9769,1841
9770,1828
9771,1825
9772,1823
9773,1829
9774,1835
9775,1851
9776,1858
9777,1879
9778,1888
9779,1892
9780,1888
9781,1894
9782,1902
9783,1882
9784,1872
9785,1849
9786,1845
9787,1829
9788,1824
9789,1834
9790,1837
9791,1840
9792,1856
9793,1872
9794,1883
9795,1883
9796,1886
9797,1887
9798,1902
9799,1904
9800,1872
9801,1865
9802,1842
9803,1833
9804,1823
9805,1821
9806,1825
9807,1839
9808,1842
9809,1855
9810,1879
9811,1872
9812,1884
9813,1887
9814,1882
9815,1900
9816,1894
9817,1872
9818,1844
9819,1845
9820,1840
9821,1827
9822,1829
9823,1839
9824,1838
9825,1863
9826,1869
9827,1876
9828,1878
9829,1885
9830,1885
9831,1888
9832,1899
9833,1872
9834,1865
9835,1839
9836,1825
9837,1827
9838,1818
9839,1829
9840,1838
9841,1840
9842,1863
9843,1875
9844,1873
9845,1879
9846,1879
9847,1888
9848,1898
9849,1889
9850,1873
9851,1855
9852,1843
9853,1830
9854,1824
9855,1825
9856,1827
9857,1840
9858,1845
9859,1871
9860,1885
9861,1882
9862,1885
9863,1877
9864,1880
9865,1900
9866,1897
9867,1872
9868,1849
9869,1838
9870,1826
9871,1824
9872,1825
9873,1833
9874,1841
9875,1842
9876,1870
9877,1868
9878,1871
9879,1889
9880,1888
9881,1885
9882,1894
9883,1874
9884,1862
9885,1840
9886,1833
9887,1827
9888,1827
9889,1831
9890,1837
9891,1846
9892,1853
9893,1870
9894,1872
9895,1871
9896,1878
9897,1874
9898,1888
9899,1902
9900,1879
9901,1863
9902,1850
9903,1825
9904,1824
9905,1824
9906,1831
9907,1840
9908,1846
9909,1857
9910,1866
9911,1871
9912,1881
9913,1882
9914,1885
9915,1900
9916,1890
9917,1861
9918,1841
9919,1840
9920,1828
9921,1818
9922,1817
9923,1823
9924,1840
9925,1856
9926,1861
9927,1863
9928,1879
9929,1881
9930,1886
9931,1879
9932,1895
9933,1875
9934,1858
9935,1846
9936,1843
9937,1827
9938,1824
9939,1823
9940,1837
9941,1847
9942,1855
9943,1871
9944,1868
9945,1888
9946,1884
9947,1883
9948,1893
9949,1894
9950,1874
9951,1863
9952,1849
9953,1833
9954,1814
9955,1815
9956,1815
9957,1839
9958,1840
9959,1860
9960,1863
9961,1872
9962,1890
9963,1882
9964,1882
9965,1901
9966,1892
9967,1871
9968,1859
9969,1846
9970,1840
9971,1826
9972,1827
9973,1837
9974,1834
9975,1845
9976,1863
9977,1882
9978,1881
9979,1886
9980,1885
9981,1885
9982,1896
9983,1877
9984,1855
9985,1847
9986,1834
9987,1822
9988,1811
9989,1824
9990,1837
9991,1833
9992,1854
9993,1874
9994,1873
9995,1883
9996,1878
9997,1887
9998,1891
9999,1895
10000,1872
10001,1868
10002,1855
10003,1846
10004,1822
10005,1825
10006,1827
10007,1840
10008,1839
10009,1870
10010,1872
10011,1872
10012,1886
10013,1877
10014,1880
10015,1889
10016,1895
10017,1866
10018,1862
10019,1850
10020,1829
10021,1823
10022,1825
10023,1825
10024,1838
10025,1851
10026,1871
10027,1875
10028,1889
10029,1885
10030,1886
10031,1884
10032,1903
10033,1895
10034,1867
10035,1843
10036,1846
10037,1825
10038,1823
10039,1822
10040,1841
10041,1840
10042,1850
10043,1858
10044,1872
10045,1874
10046,1882
10047,1875
10048,1883
10049,1891
10050,1873
10051,1862
10052,1854
10053,1834
10054,1827
10055,1819
10056,1829
10057,1841
10058,1854
10059,1866
10060,1872
10061,1878
10062,1885
10063,1885
10064,1885
10065,1893
10066,1897
10067,1875
10068,1853
10069,1845
10070,1834
10071,1826
10072,1826
10073,1829
10074,1839
10075,1847
10076,1861
10077,1867
10078,1888
10079,1886
10080,1875
10081,1887
10082,1901
10083,1877
10084,1874
10085,1836
10086,1847
10087,1830
10088,1822
10089,1826
10090,1841
10091,1850
10092,1870
10093,1875
10094,1881
10095,1890
10096,1875
10097,1883
10098,1893
10099,1901
10100,1886
10101,1856
10102,1841
10103,1834
10104,1811
10105,1821
10106,1820
10107,1836
10108,1834
10109,1869
10110,1869
10111,1875
10112,1878
10113,1890
10114,1891
10115,1904
10116,1901
10117,1871
10118,1841
10119,1843
10120,1819
10121,1821
10122,1827
10123,1829
10124,1829
10125,1841
10126,1859
10127,1879
10128,1872
10129,1886
10130,1885
10131,1885
10132,1900
10133,1875
10134,1865
10135,1846
10136,1837
10137,1817
10138,1815
10139,1826
10140,1840
10141,1840
10142,1858
10143,1867
10144,1869
10145,1884
10146,1889
10147,1886
10148,1891
10149,1893
10150,1872
10151,1856
10152,1845
10153,1842
10154,1821
10155,1824
10156,1826
10157,1840
10158,1847
10159,1856
10160,1873
10161,1869
10162,1886
10163,1883
10164,1882
10165,1887
10166,1897
10167,1874
10168,1855
10169,1840
10170,1826
10171,1826
10172,1825
10173,1835
10174,1833
10175,1852
10176,1858
10177,1877
10178,1885
10179,1888
10180,1882
10181,1883
10182,1899
10183,1889
10184,1872
10185,1845
10186,1843
10187,1837
10188,1826
10189,1822
10190,1830
10191,1841
10192,1864
10193,1870
10194,1871
10195,1883
10196,1873
10197,1875
10198,1881
10199,1894
10200,1874
10201,1867
10202,1844
10203,2542
10204,2021
10205,1871
10206,1965
10207,2023
10208,2064
10209,2095
10210,2099
10211,2143
10212,2171
10213,2021
10214,1781
10215,1743
10216,1847
10217,1914
10218,1921
10219,1906
10220,1883
10221,1839
10222,1764
10223,1680
10224,1609
10225,1535
10226,1505
10227,1492
10228,1521
10229,1574
10230,1584
10231,1613
10232,1712
10233,1776
10234,2256
10235,2128
10236,1879
10237,2005
10238,2071
10239,2118
10240,2135
10241,2143
10242,2161
10243,2183
10244,2006
10245,1773
10246,1659
10247,1730
10248,1886
10249,2003
10250,2034
10251,2011
10252,1938
10253,1823
10254,1681
10255,1535
10256,1444
10257,1399
10258,1414
10259,1479
10260,1581
10261,1663
10262,1741
10263,1809
10264,1855
10265,1792
10266,2316
10267,1930
10268,2038
10269,2138
10270,2186
10271,2209
10272,2210
10273,2197
10274,2194
10275,2069
10276,1854
10277,1690
10278,1665
10279,1809
10280,1965
10281,2031
10282,2045
10283,1963
10284,1847
10285,1699
10286,1535
10287,1395
10288,1348
10289,1365
10290,1426
10291,1511
10292,1636
10293,1717
10294,1803
10295,1866
10296,1269
10297,2415
10298,1954
10299,2071
10300,2194
10301,2265
10302,2270
10303,2256
10304,2171
10305,2128
10306,2030
10307,1892
10308,1655
10309,1680
10310,1855
10311,1981
10312,2021
10313,2011
10314,1942
10315,1847
10316,1710
10317,1535
10318,1422
10319,1371
10320,1365
10321,1434
10322,1511
10323,1615
10324,1709
10325,1779
10326,1840
10327,1344
10328,2530
10329,1957
10330,1969
10331,2112
10332,2197
10333,2224
10334,2161
10335,2023
10336,1933
10337,2073
10338,2113
10339,1922
10340,1933
10341,2019
10342,2070
10343,2071
10344,2028
10345,1962
10346,1834
10347,1683
10348,1535
10349,1443
10350,1372
10351,1374
10352,1406
10353,1472
10354,1584
10355,1683
10356,1745
10357,1811
10358,1898
10359,2605
10360,1981
10361,1862
10362,1983
10363,2054
10364,2104
10365,2038
10366,1857
10367,1762
10368,2251
10369,2293
10370,2190
10371,2160
10372,2133
10373,2112
10374,2082
10375,2039
10376,1942
10377,1840
10378,1678
10379,1525
10380,1418
10381,1375
10382,1392
10383,1437
10384,1504
10385,1600
10386,1674
10387,1733
10388,1783
10389,1872
10390,2551
10391,1959
10392,1826
10393,1931
10394,2003
10395,2022
10396,1871
10397,1584
10398,1735
10399,2496
10400,2512
10401,2339
10402,2205
10403,2172
10404,2119
10405,2076
10406,2018
10407,1922
10408,1795
10409,1674
10410,1534
10411,1431
10412,1381
10413,1376
10414,1411
10415,1523
10416,1643
10417,1703
10418,1749
10419,1790
10420,1824
10421,2386
10422,2045
10423,1739
10424,1786
10425,1840
10426,1822
10427,1648
10428,1442
10429,2089
10430,2797
10431,2655
10432,2402
10433,2247
10434,2177
10435,2144
10436,2111
10437,2021
10438,1932
10439,1809
10440,1655
10441,1513
10442,1435
10443,1418
10444,1437
10445,1446
10446,1475
10447,1590
10448,1690
10449,1776
10450,1809
10451,1845
10452,2000
10453,2128
10454,1711
10455,1652
10456,1661
10457,1632
10458,1459
10459,1510
10460,2466
10461,2885
10462,2678
10463,2417
10464,2259
10465,2211
10466,2165
10467,2142
10468,2075
10469,1979
10470,1840
10471,1675
10472,1517
10473,1405
10474,1363
10475,1360
10476,1408
10477,1490
10478,1603
10479,1686
10480,1754
10481,1809
10482,1872
10483,1769
10484,2269
10485,1723
10486,1584
10487,1558
10488,1484
10489,1326
10490,1535
10491,2633
10492,2985
10493,2683
10494,2409
10495,2271
10496,2208
10497,2177
10498,2160
10499,2122
10500,2012
10501,1889
10502,1742
10503,1579
10504,1429
10505,1346
10506,1310
10507,1334
10508,1421
10509,1535
10510,1658
10511,1739
10512,1782
10513,1840
10514,1147
10515,2401
10516,1795
10517,1575
10518,1511
10519,1447
10520,1295
10521,1600
10522,2757
10523,2955
10524,2646
10525,2358
10526,2208
10527,2182
10528,2162
10529,2171
10530,2132
10531,2033
10532,1941
10533,1807
10534,1634
10535,1472
10536,1370
10537,1309
10538,1308
10539,1375
10540,1473
10541,1597
10542,1684
10543,1745
10544,1808
10545,1394
10546,2494
10547,1846
10548,1583
10549,1535
10550,1472
10551,1328
10552,1690
10553,2802
10554,2930
10555,2631
10556,2323
10557,2178
10558,2155
10559,2158
10560,2155
10561,2113
10562,2047
10563,1957
10564,1822
10565,1711
10566,1567
10567,1424
10568,1336
10569,1277
10570,1332
10571,1435
10572,1535
10573,1638
10574,1717
10575,1782
10576,1757
10577,2551
10578,1878
10579,1593
10580,1527
10581,1499
10582,1389
10583,1798
10584,2835
10585,2881
10586,2559
10587,2294
10588,2143
10589,2127
10590,2141
10591,2123
10592,2111
10593,2063
10594,1969
10595,1851
10596,1711
10597,1571
10598,1439
10599,1360
10600,1359
10601,1390
10602,1456
10603,1535
10604,1621
10605,1680
10606,1735
10607,1795
10608,2598
10609,1968
10610,1600
10611,1520
10612,1509
10613,1328
10614,1649
10615,2741
10616,2994
10617,2672
10618,2355
10619,2178
10620,2127
10621,2128
10622,2123
10623,2094
10624,2053
10625,1979
10626,1857
10627,1703
10628,1535
10629,1435
10630,1359
10631,1350
10632,1439
10633,1509
10634,1578
10635,1629
10636,1682
10637,1735
10638,1776
10639,2452
10640,2047
10641,1597
10642,1490
10643,1462
10644,1296
10645,1622
10646,2691
10647,2981
10648,2672
10649,2384
10650,2202
10651,2159
10652,2147
10653,2128
10654,2112
10655,2071
10656,1968
10657,1853
10658,1695
10659,1574
10660,1455
10661,1366
10662,1351
10663,1408
10664,1471
10665,1535
10666,1648
10667,1695
10668,1746
10669,1793
10670,2312
10671,2135
10672,1583
10673,1447
10674,1423
10675,1293
10676,1582
10677,2683
10678,2990
10679,2658
10680,2333
10681,2149
10682,2124
10683,2149
10684,2147
10685,2135
10686,2099
10687,2031
10688,1882
10689,1727
10690,1587
10691,1487
10692,1399
10693,1417
10694,1435
10695,1453
10696,1513
10697,1597
10698,1666
10699,1744
10700,1776
10701,1568
10702,2277
10703,1613
10704,1416
10705,1387
10706,1280
10707,1451
10708,2512
10709,2980
10710,2704
10711,2406
10712,2226
10713,2165
10714,2192
10715,2215
10716,2195
10717,2130
10718,2074
10719,1951
10720,1793
10721,1630
10722,1498
10723,1402
10724,1319
10725,1324
10726,1359
10727,1454
10728,1535
10729,1653
10730,1728
10731,1780
10732,1218
10733,2403
10734,1703
10735,1471
10736,1427
10737,1330
10738,1441
10739,2432
10740,2893
10741,2674
10742,2373
10743,2191
10744,2123
10745,2159
10746,2193
10747,2196
10748,2178
10749,2128
10750,2011
10751,1854
10752,1680
10753,1529
10754,1408
10755,1327
10756,1296
10757,1328
10758,1418
10759,1506
10760,1616
10761,1699
10762,1776
10763,1392
10764,2583
10765,1810
10766,1485
10767,1414
10768,1354
10769,1385
10770,2268
10771,2907
10772,2699
10773,2403
10774,2186
10775,2109
10776,2151
10777,2188
10778,2201
10779,2181
10780,2137
10781,2047
10782,1921
10783,1789
10784,1643
10785,1488
10786,1370
10787,1296
10788,1301
10789,1357
10790,1431
10791,1535
10792,1647
10793,1712
10794,1859
10795,2639
10796,1878
10797,1488
10798,1382
10799,1353
10800,1342
10801,2240
10802,2946
10803,2763
10804,2436
10805,2207
10806,2103
10807,2103
10808,2128
10809,2157
10810,2162
10811,2128
10812,2057
10813,1937
10814,1805
10815,1687
10816,1571
10817,1441
10818,1353
10819,1325
10820,1363
10821,1423
10822,1504
10823,1597
10824,1666
10825,1740
10826,1787
10827,1838
10828,1873
10829,1915
10830,1931
10831,1939
10832,1958
10833,1955
10834,1932
10835,1919
10836,1919
10837,1911
10838,1887
10839,1879
10840,1886
10841,1898
10842,1908
10843,1920
10844,1917
10845,1904
10846,1915
10847,1918
10848,1905
10849,1898
10850,1886
10851,1887
10852,1867
10853,1854
10854,1831
10855,1830
10856,1827
10857,1851
10858,1856
10859,1872
10860,1901
10861,1888
10862,1887
10863,1874
10864,1885
10865,1892
10866,1897
10867,1884
10868,1870
10869,1854
10870,1834
10871,1831
10872,1829
10873,1824
10874,1840
10875,1851
10876,1847
10877,1865
10878,1882
10879,1889
10880,1884
10881,1891
10882,1911
10883,1904
10884,1865
10885,1857
10886,1845
10887,1830
10888,1823
10889,1829
10890,1835
10891,1837
10892,1855
10893,1864
10894,1872
10895,1886
10896,1887
10897,1889
10898,1885
10899,1903
10900,1890
10901,1862
10902,1849
10903,1838
10904,1831
10905,1831
10906,1827
10907,1842
10908,1844
10909,1872
10910,1870
10911,1863
10912,1876
10913,1878
10914,1872
10915,1885
10916,1888
10917,1871
10918,1858
10919,1850
10920,1835
10921,1823
10922,1826
10923,1821
10924,1839
10925,1847
10926,1855
10927,1876
10928,1874
10929,1887
10930,1891
10931,1887
10932,1898
10933,1883
10934,1872
10935,1857
10936,1840
10937,1840
10938,1826
10939,1829
10940,1831
10941,1842
10942,1854
10943,1868
10944,1859
10945,1876
10946,1885
10947,1885
10948,1873
10949,1899
10950,1887
10951,1862
10952,1850
10953,1841
10954,1830
10955,1824
10956,1824
10957,1833
10958,1840
10959,1853
10960,1872
10961,1883
10962,1874
10963,1878
10964,1884
10965,1888
10966,1894
10967,1873
10968,1871
10969,1843
10970,1840
10971,1833
10972,1825
10973,1824
10974,1834
10975,1847
10976,1861
10977,1872
10978,1876
10979,1875
10980,1890
10981,1891
10982,1918
10983,1906
10984,1867
10985,1847
10986,1840
10987,1835
10988,1827
10989,1826
10990,1831
10991,1843
10992,1845
10993,1862
10994,1872
10995,1879
10996,1884
10997,1884
10998,1890
10999,1901
11000,1895
11001,1872
11002,1847
11003,1843
11004,1814
11005,1821
11006,1823
11007,1826
11008,1827
11009,1855
11010,1872
11011,1883
11012,1891
11013,1879
11014,1885
11015,1887
11016,1882
11017,1869
11018,1862
11019,1847
11020,1830
11021,1825
11022,1822
11023,1826
11024,1837
11025,1840
11026,1866
11027,1872
11028,1873
11029,1873
11030,1886
11031,1881
11032,1890
11033,1899
11034,1856
11035,1853
11036,1840
11037,1829
11038,1823
11039,1820
11040,1826
11041,1838
11042,1851
11043,1869
11044,1871
11045,1872
11046,1881
11047,1882
11048,1885
11049,1903
11050,1887
11051,1872
11052,1843
11053,1841
11054,1837
11055,1826
11056,1826
11057,1828
11058,1841
11059,1861
11060,1863
11061,1874
11062,1887
11063,1872
11064,1878
11065,1877
11066,1888
11067,1860
11068,1858
11069,1844
11070,1823
11071,1824
11072,1819
11073,1822
11074,1833
11075,1839
11076,1859
11077,1866
11078,1877
11079,1887
11080,1877
11081,1886
11082,1898
11083,1898
11084,1867
11085,1840
11086,1846
11087,1824
11088,1814
11089,1818
11090,1814
11091,1831
11092,1852
11093,1845
11094,1872
11095,1867
11096,1873
11097,1872
11098,1877
11099,1895
11100,1879
11101,1857
11102,1849
11103,1840
11104,1829
11105,1814
11106,1820
11107,1837
11108,1837
11109,1840
11110,1850
11111,1856
11112,1882
11113,1878
11114,1876
11115,1887
11116,1883
11117,1872
11118,1842
11119,1830
11120,1837
11121,1817
11122,1809
11123,1810
11124,1824
11125,1838
11126,1857
11127,1856
11128,1875
11129,1885
11130,1874
11131,1872
11132,1887
11133,1897
11134,1871
11135,1860
11136,1840
11137,1831
11138,1815
11139,1817
11140,1828
11141,1836
11142,1851
11143,1855
11144,1869
11145,1866
11146,1877
11147,1875
11148,1874
11149,1890
11150,1877
11151,1857
11152,1835
11153,1831
11154,1822
11155,1808
11156,1809
11157,1824
11158,1831
11159,1851
11160,1858
11161,1869
11162,1872
11163,1883
11164,1873
11165,1889
11166,1890
11167,1866
11168,1859
11169,1839
11170,1829
11171,1824
11172,1818
11173,1819
11174,1827
11175,1841
11176,1851
11177,1868
11178,1859
11179,1882
11180,1878
11181,1878
11182,1889
11183,1887
11184,1851
11185,1856
11186,1837
11187,1811
11188,1810
11189,1821
11190,1827
11191,1841
11192,1855
11193,1855
11194,1869
11195,1866
11196,1885
11197,1879
11198,1876
11199,1895
11200,1889
11201,1859
11202,1843
11203,1833
11204,1825
11205,1817
11206,1822
11207,1831
11208,1838
11209,1853
11210,1870
11211,1872
11212,1877
11213,1872
11214,1872
11215,1881
11216,1887
11217,1868
11218,1872
11219,1842
11220,1835
11221,1819
11222,1818
11223,1825
11224,1831
11225,1843
11226,1856
11227,1867
11228,1871
11229,1878
11230,1878
11231,1882
11232,1890
11233,1895
11234,1873
11235,1867
11236,1853
11237,1829
11238,1824
11239,1818
11240,1823
11241,1843
11242,1837
11243,1861
11244,1861
11245,1876
11246,1875
11247,1878
11248,1874
11249,1904
11250,1897
11251,1873
11252,1855
11253,1840
11254,1826
11255,1819
11256,1823
11257,1838
11258,1837
11259,1860
11260,1859
11261,1872
11262,1893
11263,1885
11264,1886
11265,1883
11266,1894
11267,1878
11268,1872
11269,1842
11270,1837
11271,1825
11272,1829
11273,1814
11274,1825
11275,1840
11276,1851
11277,1872
11278,1875
11279,1893
11280,1883
11281,1885
11282,1889
11283,1899
11284,1873
11285,1849
11286,1847
11287,1834
11288,1824
11289,1829
11290,1829
11291,1838
11292,1846
11293,1867
11294,1870
11295,1879
11296,1885
11297,1886
11298,1889
11299,1902
11300,1902
11301,1874
11302,1856
11303,1840
11304,1824
11305,1819
11306,1818
11307,1825
11308,1831
11309,1858
11310,1868
11311,1877
11312,1890
11313,1888
11314,1884
11315,1887
11316,1893
11317,1887
11318,1871
11319,1840
11320,1838
11321,1827
11322,1821
11323,1827
11324,1836
11325,1840
11326,1866
11327,1875
11328,1872
11329,1893
11330,1887
11331,1883
11332,1899
11333,1889
11334,1867
11335,1847
11336,1837
11337,1825
11338,1821
11339,1824
11340,1833
11341,1839
11342,1855
11343,1854
11344,1879
11345,1879
11346,1887
11347,1887
11348,1885
11349,1901
11350,1891
11351,1872
11352,1856
11353,1843
11354,1819
11355,1826
11356,1822
11357,1826
11358,1837
11359,1855
11360,1866
11361,1873
11362,1875
11363,1879
11364,1879
11365,1882
11366,1893
11367,1871
11368,1872
11369,1842
11370,1837
11371,1825
11372,1824
11373,1827
11374,1835
11375,1840
11376,1854
11377,1863
11378,1876
11379,1885
11380,1885
11381,1890
11382,1904
11383,1893
11384,1872
11385,1861
11386,1855
11387,1834
11388,1827
11389,1827
11390,1825
11391,1835
11392,1854
11393,1857
11394,1873
11395,1877
11396,1881
11397,1875
11398,1875
11399,1899
11400,1903
11401,1863
11402,1860
11403,1846
11404,1828
11405,1821
11406,1826
11407,1833
11408,1841
11409,1855
11410,1866
11411,1874
11412,1875
11413,1886
11414,1885
11415,1883
11416,1891
11417,1878
11418,1855
11419,1840
11420,1837
11421,1822
11422,1821
11423,1820
11424,1826
11425,1831
11426,1839
11427,1867
11428,1877
11429,1892
11430,1885
11431,1885
11432,1901
11433,1901
11434,1876
11435,1856
11436,1840
11437,1834
11438,1825
11439,1830
11440,1829
11441,1840
11442,1847
11443,1861
11444,1877
11445,1876
11446,1886
11447,1883
11448,1886
11449,1902
11450,1896
11451,1867
11452,1861
11453,1840
11454,1839
11455,1821
11456,1822
11457,1826
11458,1842
11459,1855
11460,1868
11461,1872
11462,1875
11463,1888
11464,1882
11465,1883
11466,1902
11467,1876
11468,1867
11469,1844
11470,1849
11471,1831
11472,1825
11473,1824
11474,1837
11475,1840
11476,1866
11477,1869
11478,1872
11479,1881
11480,1887
11481,1883
11482,1886
11483,1885
11484,1872
11485,1860
11486,1851
11487,1833
11488,1813
11489,1826
11490,1831
11491,1841
11492,1854
11493,1856
11494,1867
11495,1879
11496,1889
11497,1892
11498,1891
11499,1904
11500,1903
11501,1866
11502,1855
11503,1840
11504,1840
11505,1823
11506,1825
11507,1840
11508,1840
11509,1859
11510,1855
11511,1878
11512,1879
11513,1875
11514,1873
11515,1886
11516,1893
11517,1872
11518,1866
11519,1856
11520,1839
11521,1833
11522,1824
11523,1823
11524,1840
11525,1837
11526,1865
11527,1866
11528,1876
11529,1875
11530,1885
11531,1885
11532,1894
11533,1891
11534,1884
11535,1859
11536,1841
11537,1835
11538,1821
11539,1829
11540,1831
11541,1840
11542,1840
11543,1861
11544,1872
11545,1872
11546,1879
11547,1879
11548,1883
11549,1894
11550,1890
11551,1878
11552,1853
11553,1839
11554,1833
11555,1827
11556,1827
11557,1827
11558,1839
11559,1852
11560,1857
11561,1872
11562,1872
11563,1890
11564,1887
11565,1884
11566,1898
11567,1890
11568,1872
11569,1854
11570,1840
11571,1825
11572,1822
11573,1820
11574,1823
11575,1840
11576,1852
11577,1867
11578,1871
11579,1886
11580,1883
11581,1889
11582,1893
11583,1901
11584,1889
11585,1868
11586,1839
11587,1839
11588,1825
11589,1830
11590,1830
11591,1838
11592,1843
11593,1851
11594,1864
11595,1875
11596,1892
11597,1888
11598,1886
11599,1891
11600,1904
11601,1873
11602,1857
11603,1835
11604,1822
11605,1819
11606,1821
11607,1831
11608,1835
11609,1847
11610,1858
11611,1873
11612,1872
11613,1886
11614,1885
11615,1887
11616,1902
11617,1887
11618,1855
11619,1846
11620,1846
11621,1831
11622,1825
11623,1831
11624,1829
11625,1840
11626,1855
11627,1869
11628,1871
11629,1893
11630,1886
11631,1881
11632,1898
11633,1897
11634,1875
11635,1867
11636,1849
11637,1829
11638,1822
11639,1824
11640,1835
11641,1840
11642,1851
11643,1855
11644,1868
11645,1883
11646,1886
11647,1890
11648,1884
11649,1893
11650,1903
11651,1872
11652,1858
11653,1845
11654,1821
11655,1818
11656,1826
11657,1834
11658,1842
11659,1847
11660,1857
11661,1878
11662,1877
11663,1886
11664,1879
11665,1886
11666,1895
11667,1885
11668,1868
11669,1853
11670,1854
11671,1834
11672,1827
11673,1825
11674,1840
11675,1840
11676,1849
11677,1861
11678,1873
11679,1887
11680,1879
11681,1883
11682,1888
11683,1901
11684,1872
11685,1854
11686,1851
11687,1830
11688,1818
11689,1825
11690,1834
11691,1838
11692,1842
11693,1843
11694,1863
11695,1868
11696,1883
11697,1877
11698,1875
11699,1899
11700,1901
11701,1865
11702,1853
11703,1838
11704,1823
11705,1825
11706,1824
11707,1828
11708,1843
11709,1861
11710,1853
11711,1870
11712,1890
11713,1885
11714,1889
11715,1883
11716,1899
11717,1887
11718,1859
11719,1855
11720,1830
11721,1818
11722,1820
11723,1814
11724,1827
11725,1833
11726,1845
11727,1863
11728,1874
11729,1877
11730,1889
11731,1883
11732,1898
11733,1900
11734,1888
11735,1854
11736,1840
11737,1825
11738,1824
11739,1825
11740,1833
11741,1841
11742,1840
11743,1855
11744,1871
11745,1878
11746,1889
11747,1887
11748,1885
11749,1893
11750,1898
11751,1874
11752,1863
11753,1835
11754,1830
11755,1820
11756,1824
11757,1823
11758,1840
11759,1855
11760,1870
11761,1874
11762,1872
11763,1883
11764,1888
11765,1883
11766,1903
11767,1883
11768,1867
11769,1853
11770,1849
11771,1821
11772,1827
11773,1823
11774,1825
11775,1830
11776,1856
11777,1872
11778,1876
11779,1886
11780,1886
11781,1887
11782,1889
11783,1892
11784,1872
11785,1858
11786,1840
11787,1823
11788,1820
11789,1827
11790,1827
11791,1840
11792,1840
11793,1856
11794,1874
11795,1872
11796,1874
11797,1888
11798,1886
11799,1904
11800,1887
11801,1872
11802,1859
11803,1843
11804,1838
11805,1823
11806,1827
11807,1826
11808,1842
11809,1846
11810,1856
11811,1875
11812,1888
11813,1878
11814,1878
11815,1879
11816,1894
11817,1883
11818,1872
11819,1853
11820,1838
11821,1823
11822,2308
11823,2160
11824,1843
11825,1948
11826,2035
11827,2103
11828,2131
11829,2144
11830,2153
11831,2167
11832,2093
11833,1833
11834,1690
11835,1749
11836,1842
11837,1899
11838,1919
11839,1889
11840,1843
11841,1776
11842,1667
11843,1591
11844,1520
11845,1474
11846,1455
11847,1472
11848,1530
11849,1626
11850,1687
11851,1719
11852,1773
11853,1773
11854,2251
11855,1816
11856,1937
11857,2043
11858,2136
11859,2189
11860,2192
11861,2192
11862,2204
11863,2086
11864,1841
11865,1680
11866,1735
11867,1900
11868,1983
11869,2011
11870,1991
11871,1925
11872,1825
11873,1705
11874,1584
11875,1456
11876,1401
11877,1407
11878,1451
11879,1535
11880,1611
11881,1702
11882,1792
11883,1859
11884,1161
11885,2522
11886,1906
11887,1939
11888,2083
11889,2192
11890,2244
11891,2244
11892,2198
11893,2182
11894,2096
11895,1874
11896,1721
11897,1705
11898,1810
11899,1968
11900,2021
11901,2007
11902,1951
11903,1840
11904,1689
11905,1535
11906,1432
11907,1360
11908,1365
11909,1425
11910,1507
11911,1610
11912,1703
11913,1791
11914,1841
11915,1635
11916,2699
