Time(ms),Raw_ADC,ENV_Value,RMS,MDF,MW_Amp,MW_Area,MW_Latency,Marker
0,1858.2,36.6,0.0,0.0,0.0,0.0,0.0,
100,1858.1,66.4,0.0,0.0,0.0,0.0,0.0,
200,1848.8,84.0,0.0,0.0,0.0,0.0,0.0,
300,1846.1,68.3,0.0,0.0,0.0,0.0,0.0,
400,1834.9,91.9,0.0,0.0,0.0,0.0,0.0,
500,1845.3,93.1,0.0,162.1,0.0,0.0,0.0,
600,1856.4,103.2,0.0,160.2,0.0,0.0,0.0,
700,1856.0,37.9,0.0,128.9,0.0,0.0,0.0,
800,1859.5,38.7,0.0,97.7,0.0,0.0,0.0,
900,1858.1,22.9,131.7,78.1,0.0,0.0,0.0,
1000,1859.5,30.1,131.3,76.2,0.0,0.0,0.0,
1100,1862.0,30.7,128.4,89.8,0.0,0.0,0.0,
1200,1860.2,23.5,120.4,107.4,0.0,0.0,0.0,
1300,1860.4,23.7,107.1,105.5,0.0,0.0,0.0,
1400,1856.4,36.3,88.5,105.5,0.0,0.0,0.0,
1500,1860.5,48.6,71.2,113.3,0.0,0.0,0.0,
1600,1859.3,41.4,55.1,87.9,0.0,0.0,0.0,
1700,1856.8,81.4,41.7,82.0,119.0,777.0,9.0,
1900,1847.8,62.7,87.9,160.2,119.0,777.0,9.0,
2000,1856.7,91.7,93.3,162.1,119.0,777.0,9.0,
2100,1868.0,102.2,102.9,156.3,119.0,777.0,9.0,
2200,1886.3,127.1,123.2,128.9,119.0,777.0,9.0,
2300,1876.8,49.2,136.8,193.4,119.0,777.0,9.0,
2400,1861.5,21.3,137.9,228.5,119.0,777.0,9.0,
2500,1858.5,27.5,137.5,226.6,119.0,777.0,9.0,
2600,1856.7,22.2,136.9,164.1,119.0,777.0,9.0,
2700,1859.3,21.5,136.4,99.6,119.0,777.0,9.0,
2900,1858.5,23.8,111.2,99.6,119.0,777.0,9.0,
3000,1860.3,25.6,106.5,95.7,119.0,777.0,9.0,
3100,1861.7,27.2,97.1,97.7,119.0,777.0,9.0,
3200,1858.0,22.1,69.0,101.6,119.0,777.0,9.0,
3300,1860.6,61.0,35.8,91.8,119.0,777.0,9.0,
3400,1873.0,71.1,51.3,103.5,119.0,777.0,9.0,
3500,1880.0,87.9,73.7,228.5,119.0,777.0,9.0,
3600,1867.5,94.9,94.1,289.1,119.0,777.0,9.0,
3700,1859.8,82.0,107.2,291.0,119.0,777.0,9.0,
3900,1845.9,46.9,134.5,193.4,294.0,1448.0,6.0,
4000,1852.3,26.7,139.6,185.5,294.0,1448.0,6.0,
4100,1862.6,31.0,139.7,162.1,294.0,1448.0,6.0,
4200,1859.5,28.9,140.2,136.7,294.0,1448.0,6.0,
4300,1859.6,26.3,140.3,115.2,294.0,1448.0,6.0,
4400,1859.3,21.5,134.3,82.0,294.0,1448.0,6.0,
4500,1858.5,22.1,123.6,68.4,294.0,1448.0,6.0,
4600,1859.1,23.2,108.6,68.4,294.0,1448.0,6.0,
4700,1856.7,25.9,95.7,82.0,294.0,1448.0,6.0,
4900,1857.4,66.2,50.8,103.5,294.0,1448.0,6.0,
5000,1855.2,71.1,54.9,101.6,294.0,1448.0,6.0,
5100,1849.6,62.2,71.0,185.5,294.0,1448.0,6.0,
5200,1845.0,67.1,85.6,193.4,294.0,1448.0,6.0,
5300,1847.6,126.5,98.4,164.1,294.0,1448.0,6.0,
5400,1836.6,103.9,115.0,162.1,294.0,1448.0,6.0,
5500,1857.0,46.9,122.7,160.2,294.0,1448.0,6.0,
5600,1851.4,36.4,124.1,130.9,294.0,1448.0,6.0,
5700,1862.4,39.7,124.5,128.9,294.0,1448.0,6.0,
5900,1857.9,29.8,125.3,119.1,294.0,1448.0,6.0,
6000,1854.9,27.4,118.2,115.2,294.0,1448.0,6.0,
6100,1855.9,28.1,109.5,115.2,294.0,1448.0,6.0,
6200,1866.3,55.6,98.6,113.3,294.0,1448.0,6.0,
6300,1854.8,52.2,88.1,91.8,294.0,1448.0,6.0,
6400,1854.6,39.7,67.6,56.6,294.0,1448.0,6.0,
6500,1856.3,80.0,55.0,52.7,294.0,1448.0,6.0,
6600,1853.6,65.7,66.6,62.5,294.0,1448.0,6.0,
6700,1845.5,95.9,82.1,91.8,294.0,1448.0,6.0,
6900,1854.4,61.7,91.6,97.7,294.0,1448.0,6.0,
7000,1868.0,75.6,96.5,97.7,294.0,1448.0,6.0,
7100,1880.8,69.0,105.4,97.7,294.0,1448.0,6.0,
7200,1869.2,55.4,113.0,224.6,294.0,1448.0,6.0,
7300,1858.1,72.6,112.1,257.8,294.0,1448.0,6.0,
7400,1856.6,48.5,113.1,253.9,294.0,1448.0,6.0,
7500,1858.1,47.9,113.1,101.6,294.0,1448.0,6.0,
7600,1862.8,68.8,106.9,68.4,294.0,1448.0,6.0,
7700,1851.3,33.6,98.1,72.3,294.0,1448.0,6.0,
7900,1854.5,34.4,90.1,64.5,294.0,1448.0,6.0,
8000,1863.3,52.3,85.0,64.5,294.0,1448.0,6.0,
8100,1861.4,84.0,76.0,74.2,294.0,1448.0,6.0,
8200,1850.8,78.3,73.3,74.2,294.0,1448.0,6.0,
8300,1854.7,64.3,78.4,80.1,294.0,1448.0,6.0,
8400,1868.3,73.3,81.6,97.7,294.0,1448.0,6.0,
8500,1879.9,134.9,98.1,121.1,294.0,1448.0,6.0,
8600,1888.1,133.8,114.9,191.4,294.0,1448.0,6.0,
8700,1864.2,126.6,127.6,226.6,294.0,1448.0,6.0,
8900,1854.7,25.2,137.8,193.4,294.0,1448.0,6.0,
9000,1861.6,39.5,137.5,117.2,294.0,1448.0,6.0,
9100,1856.3,24.1,136.4,93.8,294.0,1448.0,6.0,
9200,1860.0,34.6,131.2,66.4,294.0,1448.0,6.0,
9300,1861.4,33.5,127.3,60.5,294.0,1448.0,6.0,
9400,1857.6,26.8,123.2,76.2,294.0,1448.0,6.0,
9500,1859.0,25.1,109.3,87.9,294.0,1448.0,6.0,
9600,1859.8,51.8,89.8,87.9,294.0,1448.0,6.0,
9700,1859.6,35.6,68.5,91.8,294.0,1448.0,6.0,
9900,1878.8,110.5,76.2,93.8,294.0,1448.0,6.0,
10000,1870.8,69.5,92.6,257.8,294.0,1448.0,6.0,
10100,1851.7,66.4,102.6,289.1,294.0,1448.0,6.0,
10200,1848.3,64.3,117.0,257.8,285.0,1736.0,6.0,
10300,1837.5,98.4,133.0,195.3,250.0,1065.0,5.0,
10400,1848.9,44.6,142.7,193.4,250.0,1065.0,5.0,
10500,1858.8,102.6,144.7,191.4,250.0,1065.0,5.0,
10600,1864.6,41.8,147.2,164.1,250.0,1065.0,5.0,
10700,1856.0,28.5,146.7,103.5,250.0,1065.0,5.0,
10900,1855.8,25.2,132.0,76.2,250.0,1065.0,5.0,
11000,1857.1,28.2,121.4,74.2,250.0,1065.0,5.0,
11100,1858.9,24.1,112.7,78.1,250.0,1065.0,5.0,
11200,1857.1,39.8,97.7,87.9,250.0,1065.0,5.0,
11300,1863.7,46.1,75.1,82.0,250.0,1065.0,5.0,
11400,1858.1,68.8,61.6,66.4,250.0,1065.0,5.0,
11500,1855.0,75.2,73.3,93.8,250.0,1065.0,5.0,
11600,1848.6,107.9,88.3,175.8,250.0,1065.0,5.0,
11700,1846.5,99.4,105.1,191.4,342.0,1562.0,7.0,
11900,1842.7,78.2,130.1,160.2,342.0,1562.0,7.0,
12000,1850.0,58.6,140.4,128.9,342.0,1562.0,7.0,
12100,1858.0,36.9,141.0,107.4,342.0,1562.0,7.0,
12200,1861.6,35.8,141.4,97.7,342.0,1562.0,7.0,
12300,1859.2,31.3,141.1,87.9,342.0,1562.0,7.0,
12400,1860.3,36.6,138.1,74.2,342.0,1562.0,7.0,
12500,1856.3,33.2,130.6,74.2,342.0,1562.0,7.0,
12600,1861.1,30.1,117.9,70.3,342.0,1562.0,7.0,
12700,1860.9,41.9,102.9,60.5,342.0,1562.0,7.0,
12900,1858.3,28.2,70.0,60.5,342.0,1562.0,7.0,
13000,1850.2,93.3,55.2,60.5,342.0,1562.0,7.0,
13100,1848.4,94.4,78.1,95.7,283.0,1708.0,7.0,
13200,1842.5,86.0,97.4,162.1,316.0,1633.0,8.0,
13300,1843.3,135.0,115.3,162.1,578.0,3190.0,8.0,
13400,1836.9,111.9,137.5,130.9,578.0,3190.0,8.0,
13500,1868.7,139.8,146.5,97.7,578.0,3190.0,8.0,
13600,1876.6,61.0,159.3,66.4,578.0,3190.0,8.0,
13700,1858.1,26.4,159.7,66.4,578.0,3190.0,8.0,
13900,1854.4,28.4,159.2,95.7,578.0,3190.0,8.0,
14000,1859.7,34.0,156.2,93.8,578.0,3190.0,8.0,
14100,1857.2,27.0,145.6,66.4,578.0,3190.0,8.0,
14200,1858.1,28.8,133.3,64.5,578.0,3190.0,8.0,
14300,1858.6,28.6,118.2,82.0,578.0,3190.0,8.0,
14400,1858.9,35.3,91.2,87.9,578.0,3190.0,8.0,
14500,1859.8,38.2,75.4,87.9,578.0,3190.0,8.0,
14600,1858.9,103.1,42.6,87.9,377.0,2594.0,5.0,
14700,1846.2,98.2,74.9,95.7,377.0,2594.0,5.0,
14900,1869.8,127.1,96.1,103.5,377.0,2594.0,5.0,
15000,1879.2,117.2,114.5,113.3,377.0,2594.0,5.0,
15100,1880.3,106.0,132.0,160.2,377.0,2594.0,5.0,
15200,1873.3,64.9,149.8,226.6,377.0,2594.0,5.0,
15300,1860.6,44.9,151.3,228.5,377.0,2594.0,5.0,
15400,1857.9,27.7,151.9,224.6,377.0,2594.0,5.0,
15500,1859.7,21.2,151.9,130.9,377.0,2594.0,5.0,
15600,1859.6,37.9,151.6,89.8,377.0,2594.0,5.0,
15700,1857.0,27.5,138.0,78.1,377.0,2594.0,5.0,
15900,1857.9,37.9,123.7,72.3,377.0,2594.0,5.0,
16000,1859.9,31.5,107.1,70.3,377.0,2594.0,5.0,
16100,1857.0,38.5,84.5,66.4,377.0,2594.0,5.0,
16200,1859.6,80.1,45.9,76.2,377.0,2594.0,5.0,
16300,1864.7,84.7,53.3,82.0,377.0,2594.0,5.0,
16400,1871.4,80.8,69.6,95.7,377.0,2594.0,5.0,
16500,1888.3,127.1,92.7,128.9,377.0,2594.0,5.0,
16600,1874.2,130.0,116.2,257.8,377.0,2594.0,5.0,
16700,1863.9,139.0,132.1,289.1,510.0,2917.0,7.0,
16900,1857.5,49.6,154.0,160.2,510.0,2917.0,7.0,
17000,1856.0,39.0,154.3,107.4,510.0,2917.0,7.0,
17100,1859.1,31.6,154.6,95.7,510.0,2917.0,7.0,
17200,1859.6,36.3,154.6,76.2,510.0,2917.0,7.0,
17300,1856.2,30.0,150.7,68.4,510.0,2917.0,7.0,
17400,1859.6,34.1,143.5,66.4,510.0,2917.0,7.0,
17500,1856.9,37.3,130.2,78.1,510.0,2917.0,7.0,
17600,1861.7,33.1,110.2,78.1,510.0,2917.0,7.0,
17700,1863.2,34.8,90.1,78.1,510.0,2917.0,7.0,
17900,1874.9,108.8,67.1,74.2,510.0,2917.0,7.0,
18000,1884.5,93.3,87.2,226.6,510.0,2917.0,7.0,
18100,1865.3,91.9,100.0,291.0,510.0,2917.0,7.0,
18200,1853.7,69.9,111.5,291.0,510.0,2917.0,7.0,
18300,1851.1,109.0,123.5,257.8,323.0,1795.0,7.0,
18400,1838.3,64.8,141.5,193.4,469.0,2319.0,7.0,
18500,1852.5,34.8,145.6,160.2,469.0,2319.0,7.0,
18600,1859.1,31.3,145.5,130.9,469.0,2319.0,7.0,
18700,1859.1,30.9,145.3,128.9,469.0,2319.0,7.0,
18900,1859.0,24.2,136.3,87.9,469.0,2319.0,7.0,
19000,1854.5,38.5,123.7,76.2,469.0,2319.0,7.0,
19100,1858.2,26.9,113.5,78.1,469.0,2319.0,7.0,
19200,1862.6,22.1,102.1,80.1,469.0,2319.0,7.0,
19300,1855.5,23.2,86.7,80.1,469.0,2319.0,7.0,
19400,1858.0,71.7,52.0,76.2,469.0,2319.0,7.0,
19500,1870.0,72.5,60.4,82.0,469.0,2319.0,7.0,
19600,1864.9,58.3,76.8,261.7,469.0,2319.0,7.0,
19700,1844.7,97.8,95.2,291.0,469.0,2319.0,7.0,
19900,1840.0,92.9,127.1,193.4,314.0,1620.0,7.0,
20000,1846.6,79.3,139.8,162.1,320.0,1717.0,7.0,
20100,1851.2,27.0,147.3,130.9,320.0,1717.0,7.0,
20200,1856.3,27.6,147.2,130.9,320.0,1717.0,7.0,
20300,1858.7,27.2,147.6,128.9,320.0,1717.0,7.0,
20400,1859.9,28.9,147.6,99.6,320.0,1717.0,7.0,
20500,1862.3,28.4,139.8,70.3,320.0,1717.0,7.0,
20600,1857.6,39.9,131.2,70.3,320.0,1717.0,7.0,
20700,1857.7,33.5,118.9,70.3,320.0,1717.0,7.0,
20900,1858.2,27.6,84.5,84.0,320.0,1717.0,7.0,
21000,1860.1,60.9,61.3,78.1,320.0,1717.0,7.0,
21100,1848.8,96.0,62.8,72.3,297.0,1443.0,7.0,
21200,1844.5,90.5,85.5,121.1,297.0,1443.0,7.0,
21300,1843.1,72.9,101.7,164.1,217.0,1273.0,7.0,
21400,1845.7,87.5,115.8,162.1,217.0,1273.0,7.0,
21500,1842.0,94.0,126.2,160.2,217.0,1273.0,7.0,
21600,1860.2,85.7,132.2,128.9,217.0,1273.0,7.0,
21700,1864.2,31.2,135.3,128.9,217.0,1273.0,7.0,
21900,1860.0,20.7,134.6,128.9,217.0,1273.0,7.0,
22000,1859.2,21.1,134.4,123.0,217.0,1273.0,7.0,
22100,1857.3,20.8,124.8,76.2,217.0,1273.0,7.0,
22200,1859.0,23.3,110.3,76.2,217.0,1273.0,7.0,
22300,1859.7,25.5,95.1,78.1,217.0,1273.0,7.0,
22400,1854.7,31.5,77.4,78.1,217.0,1273.0,7.0,
22500,1857.9,30.4,59.0,84.0,217.0,1273.0,7.0,
22600,1859.2,19.4,44.6,66.4,217.0,1273.0,7.0,
22700,1847.5,70.3,46.8,60.5,261.0,1492.0,7.0,
22900,1857.0,92.0,88.9,158.2,261.0,1492.0,7.0,
23000,1860.6,65.7,95.1,160.2,261.0,1492.0,7.0,
23100,1871.3,87.1,101.6,128.9,261.0,1492.0,7.0,
23200,1888.4,106.2,116.0,127.0,261.0,1492.0,7.0,
23300,1878.0,26.4,128.8,226.6,261.0,1492.0,7.0,
23400,1858.7,28.7,128.7,289.1,261.0,1492.0,7.0,
23500,1856.3,25.1,128.8,291.0,261.0,1492.0,7.0,
23600,1861.7,28.2,128.5,281.3,261.0,1492.0,7.0,
23700,1859.2,24.6,124.1,85.9,261.0,1492.0,7.0,
23900,1858.4,26.5,98.4,70.3,261.0,1492.0,7.0,
24000,1858.1,28.0,92.8,72.3,261.0,1492.0,7.0,
24100,1859.8,24.8,85.9,72.3,261.0,1492.0,7.0,
24200,1856.1,24.0,65.7,78.1,261.0,1492.0,7.0,
24300,1857.4,74.6,44.5,87.9,261.0,1492.0,7.0,
24400,1859.6,79.9,58.0,93.8,261.0,1492.0,7.0,
24500,1870.4,69.0,68.2,103.5,261.0,1492.0,7.0,
24600,1881.8,95.7,88.9,121.1,261.0,1492.0,7.0,
24700,1886.1,98.7,104.6,191.4,261.0,1492.0,7.0,
24900,1852.4,26.8,125.7,291.0,261.0,1492.0,7.0,
25000,1858.7,30.5,125.4,257.8,261.0,1492.0,7.0,
25100,1861.2,24.2,125.4,195.3,261.0,1492.0,7.0,
25200,1857.3,25.2,125.1,166.0,261.0,1492.0,7.0,
25300,1858.6,25.7,122.2,103.5,261.0,1492.0,7.0,
25400,1856.7,33.1,116.4,87.9,261.0,1492.0,7.0,
25500,1857.4,29.0,110.7,91.8,261.0,1492.0,7.0,
25600,1860.0,22.9,94.8,91.8,261.0,1492.0,7.0,
25700,1855.6,29.4,76.7,84.0,261.0,1492.0,7.0,
25900,1859.5,93.1,31.9,93.8,261.0,1492.0,7.0,
26000,1885.4,99.8,62.7,119.1,261.0,1492.0,7.0,
26100,1883.4,80.7,81.8,257.8,261.0,1492.0,7.0,
26200,1868.8,68.8,95.7,289.1,261.0,1492.0,7.0,
26300,1859.8,70.3,105.6,289.1,261.0,1492.0,7.0,
26400,1842.3,89.0,119.6,259.8,261.0,1492.0,7.0,
26500,1854.6,38.6,131.8,195.3,261.0,1492.0,7.0,
26600,1852.0,31.4,132.0,160.2,261.0,1492.0,7.0,
26700,1861.0,30.3,132.4,128.9,261.0,1492.0,7.0,
26900,1860.8,39.3,133.5,97.7,261.0,1492.0,7.0,
27000,1861.1,39.1,122.5,80.1,261.0,1492.0,7.0,
27100,1861.3,31.0,111.3,64.5,261.0,1492.0,7.0,
27200,1859.4,38.9,99.8,62.5,261.0,1492.0,7.0,
27300,1855.3,29.9,89.7,68.4,261.0,1492.0,7.0,
27400,1859.0,27.4,70.7,80.1,261.0,1492.0,7.0,
27500,1859.5,85.4,44.6,99.6,261.0,1492.0,7.0,
27600,1879.8,79.4,72.2,105.5,261.0,1492.0,7.0,
27700,1867.5,102.1,89.0,261.7,261.0,1492.0,7.0,
27900,1848.7,105.9,126.0,226.6,352.0,1470.0,7.0,
28000,1840.7,117.7,141.2,193.4,410.0,1863.0,7.0,
28100,1844.9,44.1,157.4,130.9,269.0,1588.0,6.0,
28200,1852.0,55.2,161.7,130.9,269.0,1588.0,6.0,
28300,1861.8,24.0,162.1,128.9,269.0,1588.0,6.0,
28400,1858.0,25.9,161.8,128.9,269.0,1588.0,6.0,
28500,1860.8,29.1,161.7,95.7,269.0,1588.0,6.0,
28600,1856.2,24.1,151.4,82.0,269.0,1588.0,6.0,
28700,1859.8,29.4,142.1,82.0,269.0,1588.0,6.0,
28900,1860.0,64.3,109.8,87.9,269.0,1588.0,6.0,
29000,1857.6,41.2,91.3,87.9,269.0,1588.0,6.0,
29100,1859.1,97.4,59.3,74.2,336.0,1617.0,5.0,
29200,1854.5,93.3,74.2,70.3,336.0,1617.0,5.0,
29300,1843.1,122.0,91.9,97.7,336.0,1617.0,5.0,
29400,1850.8,83.9,112.8,160.2,452.0,2136.0,7.0,
29500,1832.9,129.5,131.9,162.1,452.0,2136.0,7.0,
29600,1847.0,130.8,148.3,160.2,452.0,2136.0,7.0,
29700,1856.3,58.0,157.8,128.9,452.0,2136.0,7.0,
29900,1855.1,23.9,159.9,91.8,452.0,2136.0,7.0,
30000,1857.9,27.9,158.5,66.4,452.0,2136.0,7.0,
30100,1856.3,26.6,158.2,68.4,452.0,2136.0,7.0,
30200,1860.0,25.3,147.2,80.1,452.0,2136.0,7.0,
30300,1856.5,21.7,135.9,97.7,452.0,2136.0,7.0,
30400,1860.1,29.3,119.2,91.8,452.0,2136.0,7.0,
30500,1861.8,22.6,97.7,84.0,452.0,2136.0,7.0,
30600,1856.3,19.2,70.1,80.1,452.0,2136.0,7.0,
30700,1859.2,58.6,44.0,72.3,452.0,2136.0,7.0,
30900,1836.8,97.9,86.8,162.1,452.0,2136.0,7.0,
31000,1854.3,102.7,99.4,162.1,452.0,2136.0,7.0,
31100,1848.2,92.8,107.6,160.2,452.0,2136.0,7.0,
31200,1867.4,86.7,114.1,127.0,452.0,2136.0,7.0,
31300,1884.7,88.7,130.8,95.7,452.0,2136.0,7.0,
31400,1873.8,36.5,137.7,97.7,452.0,2136.0,7.0,
31500,1856.2,25.8,137.7,222.7,452.0,2136.0,7.0,
31600,1859.5,27.8,137.6,226.6,452.0,2136.0,7.0,
31700,1858.1,35.4,138.0,168.0,452.0,2136.0,7.0,
31900,1859.0,26.5,113.0,78.1,452.0,2136.0,7.0,
32000,1861.3,25.7,102.1,80.1,452.0,2136.0,7.0,
32100,1858.0,26.2,93.2,95.7,452.0,2136.0,7.0,
32200,1860.4,27.4,84.8,87.9,452.0,2136.0,7.0,
32300,1856.0,93.3,56.4,84.0,452.0,2136.0,7.0,
32400,1848.5,79.2,63.8,89.8,485.0,2705.0,6.0,
32500,1852.9,72.2,74.2,99.6,485.0,2705.0,6.0,
32600,1863.2,94.0,83.2,107.4,485.0,2705.0,6.0,
32700,1877.9,128.2,97.6,99.6,485.0,2705.0,6.0,
32900,1871.0,129.2,132.6,226.6,485.0,2705.0,6.0,
33000,1865.2,28.3,141.5,257.8,485.0,2705.0,6.0,
33100,1856.9,29.9,141.4,255.9,485.0,2705.0,6.0,
33200,1856.7,32.6,141.7,193.4,485.0,2705.0,6.0,
33300,1856.2,27.6,141.7,97.7,485.0,2705.0,6.0,
33400,1858.6,20.7,131.5,68.4,485.0,2705.0,6.0,
33500,1855.8,20.3,125.9,76.2,485.0,2705.0,6.0,
33600,1858.2,26.6,120.1,85.9,485.0,2705.0,6.0,
33700,1858.2,28.7,108.3,70.3,485.0,2705.0,6.0,
33900,1858.0,28.4,60.5,78.1,485.0,2705.0,6.0,
34000,1856.5,64.2,41.1,80.1,485.0,2705.0,6.0,
34100,1882.3,101.4,56.6,93.8,485.0,2705.0,6.0,
34200,1879.4,103.8,80.5,179.7,485.0,2705.0,6.0,
34300,1880.1,108.7,101.8,257.8,485.0,2705.0,6.0,
34400,1867.5,117.1,118.3,289.1,485.0,2705.0,6.0,
34500,1842.3,160.0,136.7,257.8,480.0,2400.0,7.0,
34600,1857.9,38.1,150.9,193.4,476.0,2558.0,7.0,
34700,1859.6,21.9,150.8,107.4,476.0,2558.0,7.0,
34900,1862.6,29.3,150.4,78.1,476.0,2558.0,7.0,
35000,1858.4,23.7,148.9,80.1,476.0,2558.0,7.0,
35100,1858.0,28.4,143.8,68.4,476.0,2558.0,7.0,
35200,1857.1,26.1,131.7,76.2,476.0,2558.0,7.0,
35300,1858.8,23.7,116.0,87.9,476.0,2558.0,7.0,
35400,1862.8,35.1,99.1,78.1,476.0,2558.0,7.0,
35500,1860.8,24.0,71.7,66.4,476.0,2558.0,7.0,
35600,1864.7,84.3,48.2,66.4,476.0,2558.0,7.0,
35700,1879.8,90.3,73.9,195.3,476.0,2558.0,7.0,
35900,1858.9,117.4,115.3,265.6,327.0,2018.0,7.0,
36000,1846.7,108.8,130.4,224.6,485.0,2317.0,6.0,
36100,1842.9,104.7,144.9,130.9,366.0,1741.0,7.0,
36200,1845.6,33.9,160.7,128.9,476.0,2107.0,7.0,
36300,1859.2,28.9,160.6,130.9,476.0,2107.0,7.0,
36400,1860.2,31.0,160.9,128.9,476.0,2107.0,7.0,
36500,1860.3,21.6,160.8,125.0,476.0,2107.0,7.0,
36600,1860.6,37.7,157.1,78.1,476.0,2107.0,7.0,
36700,1862.5,25.5,147.0,70.3,476.0,2107.0,7.0,
36900,1859.3,23.2,118.1,74.2,476.0,2107.0,7.0,
37000,1861.8,26.3,101.2,82.0,476.0,2107.0,7.0,
37100,1856.4,28.9,79.1,80.1,476.0,2107.0,7.0,
37200,1867.6,97.1,48.6,74.2,476.0,2107.0,7.0,
37300,1866.7,106.9,70.1,132.8,476.0,2107.0,7.0,
37400,1847.7,144.1,92.6,257.8,714.0,3160.0,8.0,
37500,1846.6,158.9,121.2,222.7,801.0,3927.0,8.0,
37600,1835.5,174.9,153.2,128.9,712.0,3222.0,8.0,
37700,1860.6,202.5,177.4,74.2,839.0,4373.0,8.0,
37900,1860.3,28.9,201.3,66.4,839.0,4373.0,8.0,
38000,1860.2,23.3,201.3,66.4,839.0,4373.0,8.0,
38100,1857.7,27.2,201.3,66.4,839.0,4373.0,8.0,
38200,1858.6,43.0,199.0,68.4,839.0,4373.0,8.0,
38300,1855.3,38.8,192.9,76.2,839.0,4373.0,8.0,
38400,1860.3,34.6,183.1,80.1,839.0,4373.0,8.0,
38500,1860.8,32.8,165.9,78.1,839.0,4373.0,8.0,
38600,1861.2,37.4,136.9,78.1,839.0,4373.0,8.0,
38700,1857.7,23.5,104.1,70.3,839.0,4373.0,8.0,
38900,1845.0,110.2,74.7,85.9,839.0,4373.0,8.0,
39000,1849.2,109.0,97.6,168.0,456.0,1864.0,8.0,
39100,1846.3,121.8,117.5,191.4,450.0,2194.0,7.0,
39200,1837.6,132.8,135.2,162.1,553.0,2460.0,8.0,
39300,1847.3,139.7,152.2,130.9,701.0,2927.0,8.0,
39400,1838.8,46.3,166.9,128.9,701.0,2927.0,8.0,
39500,1868.5,26.5,168.0,97.7,701.0,2927.0,8.0,
39600,1858.3,20.8,167.9,76.2,701.0,2927.0,8.0,
39700,1861.0,33.3,167.3,74.2,701.0,2927.0,8.0,
39900,1859.4,24.5,155.8,72.3,701.0,2927.0,8.0,
40000,1857.9,33.1,142.6,70.3,701.0,2927.0,8.0,
40100,1858.7,40.3,126.9,72.3,701.0,2927.0,8.0,
40200,1857.9,32.0,108.1,74.2,701.0,2927.0,8.0,
40300,1860.8,29.5,81.7,76.2,701.0,2927.0,8.0,
40400,1861.6,75.6,44.0,76.2,267.0,1516.0,7.0,
40500,1840.4,85.8,74.6,85.9,303.0,1646.0,6.0,
40600,1842.0,102.1,97.3,160.2,354.0,1637.0,8.0,
40700,1834.9,101.9,118.3,162.1,354.0,1637.0,8.0,
40900,1875.8,160.4,140.9,97.7,354.0,1637.0,8.0,
41000,1879.1,80.8,157.7,89.8,354.0,1637.0,8.0,
41100,1871.6,30.9,164.6,89.8,354.0,1637.0,8.0,
41200,1861.9,40.5,165.0,97.7,354.0,1637.0,8.0,
41300,1861.4,32.8,165.2,128.9,354.0,1637.0,8.0,
41400,1859.4,32.9,165.3,87.9,354.0,1637.0,8.0,
41500,1854.4,28.2,152.7,72.3,354.0,1637.0,8.0,
41600,1861.9,37.2,139.2,72.3,354.0,1637.0,8.0,
41700,1859.7,21.2,122.3,84.0,354.0,1637.0,8.0,
41900,1862.2,51.2,95.1,70.3,354.0,1637.0,8.0,
42000,1859.9,89.0,66.4,64.5,354.0,1637.0,8.0,
42100,1854.7,84.7,59.8,60.5,354.0,1637.0,8.0,
42200,1878.0,121.7,69.0,91.8,354.0,1637.0,8.0,
42300,1878.2,159.3,91.9,107.4,354.0,1637.0,8.0,
42400,1884.1,158.7,117.0,164.1,354.0,1637.0,8.0,
42500,1869.8,172.5,145.8,224.6,354.0,1637.0,8.0,
42600,1869.0,122.2,165.2,162.1,876.0,3985.0,8.0,
42700,1854.4,50.1,174.9,97.7,876.0,3985.0,8.0,
42900,1860.8,32.8,175.0,66.4,876.0,3985.0,8.0,
43000,1864.2,27.7,174.0,68.4,876.0,3985.0,8.0,
43100,1855.6,26.4,170.0,78.1,876.0,3985.0,8.0,
43200,1860.0,24.1,165.9,68.4,876.0,3985.0,8.0,
43300,1860.7,23.7,154.0,62.5,876.0,3985.0,8.0,
43400,1860.8,19.5,135.5,60.5,876.0,3985.0,8.0,
43500,1856.8,22.5,103.7,62.5,876.0,3985.0,8.0,
43600,1858.6,65.8,68.7,68.4,876.0,3985.0,8.0,
43700,1875.0,91.2,58.0,87.9,876.0,3985.0,8.0,
43900,1860.7,153.4,110.5,277.3,876.0,3985.0,8.0,
44000,1875.5,181.1,131.9,257.8,703.0,3455.0,8.0,
44100,1829.3,164.7,155.3,193.4,800.0,4001.0,8.0,
44200,1850.2,113.2,176.0,95.7,561.0,2464.0,8.0,
44300,1850.8,42.6,185.8,66.4,561.0,2464.0,8.0,
44400,1859.3,32.0,186.3,95.7,561.0,2464.0,8.0,
44500,1861.1,23.1,186.4,99.6,561.0,2464.0,8.0,
44600,1860.7,26.7,186.5,82.0,561.0,2464.0,8.0,
44700,1862.5,21.3,181.1,68.4,561.0,2464.0,8.0,
44900,1862.5,30.2,154.3,64.5,561.0,2464.0,8.0,
45000,1855.0,32.5,136.4,66.4,561.0,2464.0,8.0,
45100,1860.1,23.3,108.9,68.4,561.0,2464.0,8.0,
45200,1862.5,83.0,70.7,72.3,561.0,2464.0,8.0,
45300,1863.0,90.0,59.0,85.9,561.0,2464.0,8.0,
45400,1849.8,82.0,76.8,175.8,561.0,2464.0,8.0,
45500,1846.8,113.0,95.5,205.1,441.0,2152.0,8.0,
45600,1850.3,146.7,118.5,193.4,674.0,2983.0,8.0,
45700,1836.8,166.7,144.0,160.2,632.0,2945.0,7.0,
45900,1846.6,60.8,170.8,127.0,632.0,2945.0,7.0,
46000,1858.8,32.6,171.2,97.7,632.0,2945.0,7.0,
46100,1862.8,21.2,171.4,87.9,632.0,2945.0,7.0,
46200,1858.2,28.0,171.6,74.2,632.0,2945.0,7.0,
46300,1861.9,32.7,165.5,72.3,632.0,2945.0,7.0,
46400,1859.3,25.0,157.6,72.3,632.0,2945.0,7.0,
46500,1859.3,22.4,146.6,70.3,632.0,2945.0,7.0,
46600,1861.1,21.1,128.6,68.4,632.0,2945.0,7.0,
46700,1863.1,23.5,98.9,60.5,632.0,2945.0,7.0,
46900,1855.4,69.6,51.8,84.0,321.0,1678.0,7.0,
47000,1831.9,118.7,86.9,128.9,310.0,1814.0,5.0,
47100,1855.8,138.1,108.4,158.2,366.0,1929.0,8.0,
47200,1845.5,205.9,128.4,130.9,366.0,1929.0,8.0,
47300,1857.2,171.1,148.6,127.0,366.0,1929.0,8.0,
47400,1871.9,178.1,167.8,66.4,366.0,1929.0,8.0,
47500,1882.1,40.1,184.5,64.5,366.0,1929.0,8.0,
47600,1860.7,32.7,184.7,64.5,366.0,1929.0,8.0,
47700,1865.3,31.3,185.0,66.4,366.0,1929.0,8.0,
47900,1859.6,20.5,181.5,66.4,366.0,1929.0,8.0,
48000,1861.5,26.8,167.0,68.4,366.0,1929.0,8.0,
48100,1861.0,20.1,153.5,70.3,366.0,1929.0,8.0,
48200,1859.6,25.4,136.8,97.7,366.0,1929.0,8.0,
48300,1864.2,22.8,114.7,97.7,366.0,1929.0,8.0,
48400,1857.4,24.4,83.9,82.0,366.0,1929.0,8.0,
48500,1856.2,93.0,49.8,78.1,252.0,1362.0,7.0,
48600,1844.8,105.6,75.2,121.1,252.0,1362.0,7.0,
48700,1856.4,162.3,92.8,152.3,252.0,1362.0,7.0,
48900,1905.9,211.6,147.6,64.5,252.0,1362.0,7.0,
49000,1865.3,211.8,173.6,64.5,252.0,1362.0,7.0,
49100,1865.8,49.1,193.7,66.4,924.0,4281.0,7.0,
49200,1864.2,27.3,194.2,93.8,924.0,4281.0,7.0,
49300,1865.9,26.2,194.1,68.4,924.0,4281.0,7.0,
49400,1859.0,26.1,194.2,66.4,924.0,4281.0,7.0,
49500,1859.2,38.3,190.8,70.3,924.0,4281.0,7.0,
49600,1856.8,34.0,182.6,74.2,924.0,4281.0,7.0,
49700,1862.2,21.5,174.0,72.3,924.0,4281.0,7.0,
49900,1862.0,23.8,130.3,72.3,924.0,4281.0,7.0,
50000,1858.3,25.9,92.9,87.9,924.0,4281.0,7.0,
50100,1855.5,94.7,40.4,87.9,924.0,4281.0,7.0,
50200,1890.7,133.8,65.9,107.4,924.0,4281.0,7.0,
50300,1891.6,209.2,95.0,253.9,924.0,4281.0,7.0,
50400,1862.3,158.2,123.8,257.8,924.0,4281.0,7.0,
50500,1853.8,174.2,147.0,193.4,874.0,4025.0,7.0,
50600,1839.2,177.8,171.2,95.7,850.0,3833.0,7.0,
50700,1863.7,48.8,192.6,66.4,865.0,3909.0,7.0,
50900,1863.3,20.5,194.2,66.4,865.0,3909.0,7.0,
51000,1858.9,25.1,194.2,66.4,865.0,3909.0,7.0,
51100,1860.9,16.2,193.4,68.4,865.0,3909.0,7.0,
51200,1861.3,25.0,185.9,87.9,865.0,3909.0,7.0,
51300,1859.9,33.4,173.0,85.9,865.0,3909.0,7.0,
51400,1861.9,28.3,153.8,76.2,865.0,3909.0,7.0,
51500,1854.5,20.5,132.0,72.3,865.0,3909.0,7.0,
51600,1861.0,29.9,97.6,70.3,865.0,3909.0,7.0,
51700,1862.4,75.7,42.2,76.2,865.0,3909.0,7.0,
51900,1837.9,142.9,100.3,193.4,712.0,3661.0,7.0,
52000,1857.1,194.3,130.9,191.4,979.0,4239.0,7.0,
52100,1842.0,226.3,160.0,128.9,899.0,4664.0,7.0,
52200,1834.7,189.5,187.7,95.7,1055.0,4840.0,7.0,
52300,1853.5,77.5,207.3,66.4,1055.0,4840.0,7.0,
52400,1860.1,26.2,212.4,66.4,1055.0,4840.0,7.0,
52500,1860.6,21.8,212.3,66.4,1055.0,4840.0,7.0,
52600,1861.4,30.3,212.3,64.5,1055.0,4840.0,7.0,
52700,1863.5,30.7,212.2,66.4,1055.0,4840.0,7.0,
52900,1860.1,26.8,190.7,72.3,1055.0,4840.0,7.0,
53000,1860.3,28.1,171.1,84.0,1055.0,4840.0,7.0,
53100,1862.5,41.3,144.1,78.1,1055.0,4840.0,7.0,
53200,1858.3,24.8,106.5,64.5,1055.0,4840.0,7.0,
53300,1856.7,98.8,59.4,64.5,276.0,1433.0,7.0,
53400,1843.9,110.5,78.1,76.2,326.0,1539.0,7.0,
53500,1837.0,138.4,108.1,162.1,514.0,2328.0,7.0,
53600,1842.6,182.5,131.2,162.1,514.0,2328.0,7.0,
53700,1839.5,155.6,158.7,128.9,514.0,2328.0,7.0,
53900,1879.8,103.7,191.1,64.5,514.0,2328.0,7.0,
54000,1871.4,22.4,197.1,64.5,514.0,2328.0,7.0,
54100,1859.7,21.5,196.9,66.4,514.0,2328.0,7.0,
54200,1860.5,28.2,196.4,68.4,514.0,2328.0,7.0,
54300,1863.3,43.5,196.5,76.2,514.0,2328.0,7.0,
54400,1859.3,32.7,184.5,95.7,514.0,2328.0,7.0,
54500,1858.0,25.9,168.8,62.5,514.0,2328.0,7.0,
54600,1861.2,20.6,151.6,62.5,514.0,2328.0,7.0,
54700,1858.9,23.9,122.4,64.5,514.0,2328.0,7.0,
54900,1857.1,56.8,59.4,74.2,514.0,2328.0,7.0,
55000,1852.0,73.9,55.0,74.2,514.0,2328.0,7.0,
55100,1846.2,90.9,68.8,125.0,514.0,2328.0,7.0,
55200,1873.5,96.8,78.0,130.9,514.0,2328.0,7.0,
55300,1882.0,148.3,95.0,128.9,514.0,2328.0,7.0,
55400,1884.8,114.2,120.6,185.5,514.0,2328.0,7.0,
55500,1871.9,102.2,139.6,226.6,514.0,2328.0,7.0,
55600,1867.3,40.9,145.5,224.6,514.0,2328.0,7.0,
55700,1859.2,22.2,145.7,164.1,514.0,2328.0,7.0,
55900,1857.2,33.5,146.6,78.1,514.0,2328.0,7.0,
56000,1866.5,26.7,140.8,62.5,514.0,2328.0,7.0,
56100,1862.1,24.4,134.7,60.5,514.0,2328.0,7.0,
56200,1859.5,26.5,129.7,76.2,514.0,2328.0,7.0,
56300,1861.7,21.1,117.7,85.9,514.0,2328.0,7.0,
56400,1861.0,25.2,90.2,74.2,514.0,2328.0,7.0,
56500,1859.4,58.1,55.9,66.4,514.0,2328.0,7.0,
56600,1873.4,86.9,48.3,70.3,514.0,2328.0,7.0,
56700,1880.9,78.2,75.3,220.7,514.0,2328.0,7.0,
56900,1848.0,125.0,110.4,289.1,514.0,2328.0,7.0,
57000,1855.0,130.2,127.4,257.8,513.0,2422.0,8.0,
57100,1836.7,119.0,144.1,193.4,445.0,1872.0,8.0,
57200,1853.7,40.7,154.8,128.9,548.0,2460.0,8.0,
57300,1856.1,32.8,155.2,128.9,548.0,2460.0,8.0,
57400,1863.0,30.1,155.5,121.1,548.0,2460.0,8.0,
57500,1860.2,37.7,155.7,97.7,548.0,2460.0,8.0,
57600,1858.8,37.2,153.2,76.2,548.0,2460.0,8.0,
57700,1860.8,50.0,142.1,70.3,548.0,2460.0,8.0,
57900,1860.8,25.1,116.7,58.6,548.0,2460.0,8.0,
58000,1855.6,41.3,97.5,58.6,548.0,2460.0,8.0,
58100,1859.2,31.5,70.9,60.5,548.0,2460.0,8.0,
58200,1849.2,103.1,62.1,66.4,188.0,1082.0,7.0,
58300,1855.6,123.4,87.6,117.2,409.0,2172.0,8.0,
58400,1837.3,156.5,111.3,162.1,484.0,2130.0,8.0,
58500,1846.4,124.4,135.4,162.1,658.0,3095.0,8.0,
58600,1846.6,122.9,152.2,128.9,658.0,3095.0,8.0,
58700,1859.2,133.2,162.0,95.7,658.0,3095.0,8.0,
58900,1857.4,23.5,167.7,66.4,658.0,3095.0,8.0,
59000,1861.5,31.3,167.5,66.4,658.0,3095.0,8.0,
59100,1856.6,31.4,167.7,66.4,658.0,3095.0,8.0,
59200,1858.7,24.5,161.6,66.4,658.0,3095.0,8.0,
59300,1860.8,27.7,148.9,60.5,658.0,3095.0,8.0,
59400,1856.8,22.3,131.9,60.5,658.0,3095.0,8.0,
59500,1860.3,30.7,106.7,82.0,658.0,3095.0,8.0,
59600,1861.5,21.4,80.5,91.8,658.0,3095.0,8.0,
59700,1860.4,28.4,57.5,85.9,658.0,3095.0,8.0,
59900,1848.6,77.0,73.9,125.0,658.0,3095.0,8.0,
60000,1856.8,91.3,85.3,160.2,658.0,3095.0,8.0,
60100,1881.2,152.5,95.6,130.9,658.0,3095.0,8.0,
60200,1875.7,152.6,118.8,127.0,658.0,3095.0,8.0,
60300,1882.0,152.1,139.4,127.0,658.0,3095.0,8.0,
60400,1864.7,55.5,156.7,128.9,658.0,3095.0,8.0,
60500,1862.8,40.6,157.1,99.6,658.0,3095.0,8.0,
60600,1858.3,22.4,157.4,95.7,658.0,3095.0,8.0,
60700,1859.2,25.8,157.4,66.4,658.0,3095.0,8.0,
60900,1860.2,29.8,143.5,72.3,658.0,3095.0,8.0,
61000,1861.6,23.6,137.1,66.4,658.0,3095.0,8.0,
61100,1859.4,27.5,129.5,56.6,658.0,3095.0,8.0,
61200,1859.4,27.8,108.3,68.4,658.0,3095.0,8.0,
61300,1858.2,21.3,80.3,70.3,658.0,3095.0,8.0,
61400,1869.5,107.5,49.4,76.2,658.0,3095.0,8.0,
61500,1886.3,157.0,78.6,189.5,658.0,3095.0,8.0,
61600,1861.4,152.6,103.3,291.0,658.0,3095.0,8.0,
61700,1856.8,138.6,127.4,257.8,500.0,2205.0,7.0,
61900,1859.4,182.5,173.8,95.7,791.0,3645.0,7.0,
62000,1836.1,44.3,191.6,97.7,791.0,3645.0,7.0,
62100,1861.0,33.4,191.8,95.7,791.0,3645.0,7.0,
62200,1861.3,30.2,192.1,85.9,791.0,3645.0,7.0,
62300,1857.9,31.1,192.1,70.3,791.0,3645.0,7.0,
62400,1859.6,24.4,189.3,78.1,791.0,3645.0,7.0,
62500,1859.1,22.6,178.8,68.4,791.0,3645.0,7.0,
62600,1863.3,24.0,165.3,64.5,791.0,3645.0,7.0,
62700,1859.4,27.3,147.6,66.4,791.0,3645.0,7.0,
62900,1858.8,23.6,88.0,101.6,791.0,3645.0,7.0,
63000,1859.5,74.8,34.9,91.8,309.0,1717.0,7.0,
63100,1831.5,115.0,84.7,117.2,435.0,1914.0,7.0,
63200,1851.6,166.8,110.8,162.1,800.0,3656.0,7.0,
63300,1847.7,154.2,136.5,160.2,657.0,3027.0,7.0,
63400,1846.8,125.2,152.2,128.9,657.0,3027.0,7.0,
63500,1862.8,171.9,162.8,87.9,657.0,3027.0,7.0,
63600,1882.2,58.2,180.8,66.4,657.0,3027.0,7.0,
63700,1867.2,29.6,183.9,66.4,657.0,3027.0,7.0,
63900,1860.2,29.8,183.8,93.8,657.0,3027.0,7.0,
64000,1860.5,22.6,183.8,85.9,657.0,3027.0,7.0,
64100,1862.9,28.5,166.8,78.1,657.0,3027.0,7.0,
64200,1855.8,22.6,150.4,76.2,657.0,3027.0,7.0,
64300,1861.6,21.5,127.6,68.4,657.0,3027.0,7.0,
64400,1861.7,19.5,108.1,70.3,657.0,3027.0,7.0,
64500,1859.9,21.9,91.5,64.5,657.0,3027.0,7.0,
64600,1859.5,105.1,46.9,70.3,480.0,2751.0,7.0,
64700,1849.7,89.3,69.3,84.0,480.0,2751.0,7.0,
64900,1874.6,145.9,103.5,95.7,480.0,2751.0,7.0,
65000,1898.0,160.9,126.9,78.1,480.0,2751.0,7.0,
65100,1867.0,136.0,144.6,95.7,480.0,2751.0,7.0,
65200,1852.9,66.9,157.2,162.1,480.0,2751.0,7.0,
65300,1857.2,28.7,161.9,130.9,480.0,2751.0,7.0,
65400,1864.0,22.3,162.1,97.7,480.0,2751.0,7.0,
65500,1858.6,28.1,162.2,97.7,480.0,2751.0,7.0,
65600,1861.0,32.2,162.2,76.2,480.0,2751.0,7.0,
65700,1858.0,25.1,150.4,60.5,480.0,2751.0,7.0,
65900,1857.8,17.6,129.3,60.5,480.0,2751.0,7.0,
66000,1859.7,18.8,106.5,62.5,480.0,2751.0,7.0,
66100,1862.5,24.0,80.1,62.5,480.0,2751.0,7.0,
66200,1858.5,104.6,51.4,72.3,480.0,2751.0,7.0,
66300,1883.5,144.4,63.4,101.6,480.0,2751.0,7.0,
66400,1901.6,190.6,93.6,255.9,480.0,2751.0,7.0,
66500,1855.7,145.8,122.8,257.8,480.0,2751.0,7.0,
66600,1861.4,131.4,141.5,224.6,845.0,3676.0,6.0,
66700,1839.5,142.1,165.7,99.6,722.0,3118.0,7.0,
66900,1848.8,34.5,190.4,95.7,722.0,3118.0,7.0,
67000,1859.0,38.4,190.6,95.7,722.0,3118.0,7.0,
67100,1862.5,33.4,191.2,93.8,722.0,3118.0,7.0,
67200,1863.5,25.7,191.3,87.9,722.0,3118.0,7.0,
67300,1856.6,30.2,183.5,60.5,722.0,3118.0,7.0,
67400,1860.1,37.2,170.2,60.5,722.0,3118.0,7.0,
67500,1862.4,33.3,150.6,62.5,722.0,3118.0,7.0,
67600,1860.1,31.8,133.5,64.5,722.0,3118.0,7.0,
67700,1860.2,24.5,101.7,70.3,722.0,3118.0,7.0,
67900,1869.8,95.3,64.4,82.0,722.0,3118.0,7.0,
68000,1864.9,158.9,86.8,234.4,728.0,3522.0,7.0,
68100,1840.1,172.0,120.3,226.6,754.0,2949.0,7.0,
68200,1858.2,156.6,145.8,132.8,707.0,3422.0,7.0,
68300,1832.4,134.0,166.1,97.7,698.0,2913.0,7.0,
68400,1844.1,120.6,182.8,95.7,724.0,2811.0,7.0,
68500,1851.8,29.2,193.9,95.7,694.0,2831.0,7.0,
68600,1859.7,24.2,193.7,95.7,694.0,2831.0,7.0,
68700,1861.7,32.1,193.6,93.8,694.0,2831.0,7.0,
68900,1859.8,26.4,186.9,78.1,694.0,2831.0,7.0,
69000,1857.2,16.2,177.4,80.1,694.0,2831.0,7.0,
69100,1858.2,18.9,155.9,76.2,694.0,2831.0,7.0,
69200,1859.1,24.0,132.1,80.1,694.0,2831.0,7.0,
69300,1861.0,31.0,105.5,80.1,694.0,2831.0,7.0,
69400,1857.8,65.3,72.6,64.5,694.0,2831.0,7.0,
69500,1854.9,107.9,57.0,68.4,303.0,1545.0,7.0,
69600,1848.8,214.0,87.3,130.9,733.0,4681.0,7.0,
69700,1844.5,107.6,121.8,160.2,531.0,2150.0,7.0,
69900,1851.6,161.7,166.5,91.8,568.0,3149.0,7.0,
70000,1853.4,161.6,181.9,95.7,569.0,2484.0,7.0,
70100,1849.7,30.1,190.7,95.7,569.0,2484.0,7.0,
70200,1858.9,27.6,190.9,78.1,569.0,2484.0,7.0,
70300,1860.0,28.1,190.9,66.4,569.0,2484.0,7.0,
70400,1858.7,33.0,190.8,66.4,569.0,2484.0,7.0,
70500,1863.6,32.5,185.1,70.3,569.0,2484.0,7.0,
70600,1856.8,23.0,173.0,82.0,569.0,2484.0,7.0,
70700,1860.7,20.3,150.7,76.2,569.0,2484.0,7.0,
70900,1860.9,23.8,98.5,82.0,569.0,2484.0,7.0,
71000,1858.9,24.3,65.8,113.3,569.0,2484.0,7.0,
71100,1858.1,119.9,49.8,109.4,420.0,1974.0,7.0,
71200,1832.1,159.8,92.8,128.9,521.0,2473.0,7.0,
71300,1853.6,123.7,121.3,158.2,539.0,2035.0,7.0,
71400,1835.2,147.9,140.7,130.9,571.0,2580.0,7.0,
71500,1844.5,137.5,157.6,128.9,571.0,2580.0,7.0,
71600,1854.1,140.4,172.5,97.7,571.0,2580.0,7.0,
71700,1881.6,33.6,182.7,66.4,571.0,2580.0,7.0,
71900,1861.2,23.7,182.9,66.4,571.0,2580.0,7.0,
72000,1859.3,21.4,182.9,68.4,571.0,2580.0,7.0,
72100,1859.8,21.3,179.0,89.8,571.0,2580.0,7.0,
72200,1854.9,23.0,160.9,89.8,571.0,2580.0,7.0,
72300,1864.4,20.3,140.6,76.2,571.0,2580.0,7.0,
72400,1859.4,19.3,121.0,78.1,571.0,2580.0,7.0,
72500,1859.3,31.7,97.6,76.2,571.0,2580.0,7.0,
72600,1858.2,42.0,68.3,68.4,571.0,2580.0,7.0,
72700,1860.0,88.1,49.7,68.4,234.0,1220.0,8.0,
72900,1846.5,121.0,107.8,160.2,234.0,1220.0,8.0,
73000,1851.3,121.8,122.8,130.9,234.0,1220.0,8.0,
73100,1887.1,149.7,135.7,95.7,234.0,1220.0,8.0,
73200,1879.1,139.9,153.4,66.4,234.0,1220.0,8.0,
73300,1885.8,34.8,169.1,95.7,234.0,1220.0,8.0,
73400,1863.6,25.2,169.1,164.1,234.0,1220.0,8.0,
73500,1861.7,16.8,169.1,224.6,234.0,1220.0,8.0,
73600,1859.8,26.9,168.8,218.8,234.0,1220.0,8.0,
73700,1858.4,16.6,164.6,119.1,234.0,1220.0,8.0,
73900,1858.8,16.7,133.6,74.2,234.0,1220.0,8.0,
74000,1861.6,13.6,119.8,84.0,234.0,1220.0,8.0,
74100,1859.5,25.5,104.6,105.5,234.0,1220.0,8.0,
74200,1860.0,24.5,76.3,97.7,234.0,1220.0,8.0,
74300,1847.9,108.9,41.4,66.4,234.0,1220.0,8.0,
74400,1857.5,141.9,68.9,97.7,234.0,1220.0,8.0,
74500,1862.8,141.9,88.5,103.5,234.0,1220.0,8.0,
74600,1874.6,120.9,105.0,97.7,234.0,1220.0,8.0,
74700,1888.5,139.3,125.9,70.3,234.0,1220.0,8.0,
74900,1869.5,37.2,161.8,226.6,234.0,1220.0,8.0,
75000,1852.3,20.2,162.4,226.6,234.0,1220.0,8.0,
75100,1860.7,30.1,162.5,160.2,234.0,1220.0,8.0,
75200,1858.5,30.3,162.5,97.7,234.0,1220.0,8.0,
75300,1860.8,17.3,159.4,91.8,234.0,1220.0,8.0,
75400,1861.5,19.6,149.5,68.4,234.0,1220.0,8.0,
75500,1860.2,17.8,138.7,60.5,234.0,1220.0,8.0,
75600,1859.2,22.4,126.7,76.2,234.0,1220.0,8.0,
75700,1858.4,22.0,105.9,91.8,234.0,1220.0,8.0,
75900,1858.9,63.4,31.3,62.5,234.0,1220.0,8.0,
76000,1869.3,74.0,46.0,76.2,234.0,1220.0,8.0,
76100,1881.7,150.4,76.4,101.6,234.0,1220.0,8.0,
76200,1896.0,138.8,104.9,193.4,234.0,1220.0,8.0,
76300,1871.3,161.0,123.2,226.6,234.0,1220.0,8.0,
76400,1852.1,126.4,144.3,224.6,757.0,3766.0,7.0,
76500,1852.9,51.6,161.7,162.1,609.0,2785.0,7.0,
76600,1859.7,29.7,168.3,97.7,609.0,2785.0,7.0,
76700,1854.2,20.0,168.5,97.7,609.0,2785.0,7.0,
76900,1859.3,24.7,168.5,80.1,609.0,2785.0,7.0,
77000,1859.0,20.7,164.6,68.4,609.0,2785.0,7.0,
77100,1858.7,17.1,153.0,60.5,609.0,2785.0,7.0,
77200,1859.8,18.1,134.8,60.5,609.0,2785.0,7.0,
77300,1859.5,25.2,118.2,60.5,609.0,2785.0,7.0,
77400,1859.7,24.6,91.8,60.5,609.0,2785.0,7.0,
77500,1864.3,109.9,56.9,60.5,609.0,2785.0,7.0,
77600,1881.7,113.2,70.6,91.8,609.0,2785.0,7.0,
77700,1861.7,147.1,92.5,259.8,502.0,2895.0,7.0,
77900,1835.4,146.2,148.3,193.4,627.0,3082.0,7.0,
78000,1863.1,172.0,169.4,97.7,832.0,4037.0,7.0,
78100,1834.9,71.5,190.0,66.4,552.0,2739.0,7.0,
78200,1852.7,36.9,195.1,89.8,552.0,2739.0,7.0,
78300,1861.6,24.9,195.4,95.7,552.0,2739.0,7.0,
78400,1858.9,18.9,195.2,93.8,552.0,2739.0,7.0,
78500,1861.4,20.8,194.9,70.3,552.0,2739.0,7.0,
78600,1855.9,19.6,184.6,70.3,552.0,2739.0,7.0,
78700,1859.3,15.3,174.1,85.9,552.0,2739.0,7.0,
78900,1858.9,13.0,129.5,119.1,552.0,2739.0,7.0,
79000,1857.1,23.1,100.1,117.2,552.0,2739.0,7.0,
79100,1856.8,54.3,51.1,85.9,552.0,2739.0,7.0,
79200,1844.1,118.3,56.4,105.5,552.0,2739.0,7.0,
79300,1854.6,108.0,83.2,162.1,500.0,2898.0,8.0,
79400,1851.7,114.1,104.2,134.8,350.0,2281.0,7.0,
79500,1846.8,85.0,125.7,128.9,317.0,1764.0,8.0,
79600,1842.6,82.2,137.6,128.9,317.0,1764.0,8.0,
79700,1841.2,56.6,148.1,128.9,317.0,1764.0,8.0,
79900,1860.8,18.3,150.2,107.4,317.0,1764.0,8.0,
80000,1859.2,12.9,150.1,93.8,317.0,1764.0,8.0,
80100,1860.4,16.4,150.1,74.2,317.0,1764.0,8.0,
80200,1856.4,15.7,141.4,80.1,317.0,1764.0,8.0,
80300,1855.6,36.9,127.0,89.8,317.0,1764.0,8.0,
80400,1860.2,24.9,111.1,74.2,317.0,1764.0,8.0,
80500,1858.7,30.5,86.4,70.3,317.0,1764.0,8.0,
80600,1860.8,41.9,66.8,68.4,317.0,1764.0,8.0,
80700,1863.7,92.0,42.5,62.5,317.0,1764.0,8.0,
80900,1845.7,102.5,87.4,87.9,286.0,1503.0,8.0,
81000,1838.7,95.6,107.0,132.8,286.0,1503.0,8.0,
81100,1864.9,99.3,114.8,160.2,286.0,1503.0,8.0,
81200,1873.3,97.2,121.9,128.9,286.0,1503.0,8.0,
81300,1885.5,113.8,133.3,128.9,286.0,1503.0,8.0,
81400,1873.2,24.3,144.0,191.4,286.0,1503.0,8.0,
81500,1858.3,14.9,143.9,257.8,286.0,1503.0,8.0,
81600,1857.6,16.3,143.3,257.8,286.0,1503.0,8.0,
81700,1862.6,14.4,142.1,230.5,286.0,1503.0,8.0,
81900,1858.8,18.0,117.2,119.1,286.0,1503.0,8.0,
82000,1860.8,18.1,99.6,119.1,286.0,1503.0,8.0,
82100,1861.1,13.9,90.6,119.1,286.0,1503.0,8.0,
82200,1859.3,33.9,80.7,113.3,286.0,1503.0,8.0,
82300,1859.7,57.8,60.7,97.7,286.0,1503.0,8.0,
82400,1853.1,71.7,46.9,60.5,286.0,1503.0,8.0,
82500,1854.6,123.7,64.5,107.4,286.0,1503.0,8.0,
82600,1872.8,106.5,79.1,127.0,286.0,1503.0,8.0,
82700,1883.3,96.0,95.5,97.7,286.0,1503.0,8.0,
82900,1881.4,129.8,138.9,224.6,286.0,1503.0,8.0,
83000,1853.9,38.7,148.2,257.8,286.0,1503.0,8.0,
83100,1860.7,16.0,148.7,195.3,286.0,1503.0,8.0,
83200,1862.1,18.5,148.7,132.8,286.0,1503.0,8.0,
83300,1861.5,15.7,148.4,121.1,286.0,1503.0,8.0,
83400,1859.6,16.4,142.6,101.6,286.0,1503.0,8.0,
83500,1860.4,13.8,135.4,119.1,286.0,1503.0,8.0,
83600,1859.4,14.2,127.4,119.1,286.0,1503.0,8.0,
83700,1859.0,15.1,115.6,119.1,286.0,1503.0,8.0,
83900,1862.5,18.6,56.7,121.1,286.0,1503.0,8.0,
84000,1860.0,68.4,28.1,121.1,286.0,1503.0,8.0,
84100,1881.8,124.6,54.9,158.2,286.0,1503.0,8.0,
84200,1888.0,134.2,91.2,257.8,286.0,1503.0,8.0,
84300,1886.3,135.0,112.5,289.1,419.0,2418.0,7.0,
84400,1853.7,142.7,133.0,259.8,753.0,3407.0,7.0,
84500,1849.9,133.0,150.6,195.3,511.0,2699.0,7.0,
84600,1845.8,35.2,171.6,128.9,672.0,2841.0,7.0,
84700,1859.7,15.5,171.8,97.7,672.0,2841.0,7.0,
84900,1859.0,13.7,171.8,85.9,672.0,2841.0,7.0,
85000,1858.7,14.7,171.0,80.1,672.0,2841.0,7.0,
85100,1861.8,14.1,163.9,119.1,672.0,2841.0,7.0,
85200,1860.5,16.0,146.8,121.1,672.0,2841.0,7.0,
85300,1860.3,13.4,131.1,121.1,672.0,2841.0,7.0,
85400,1860.6,16.7,110.3,121.1,672.0,2841.0,7.0,
85500,1860.4,26.8,84.7,119.1,672.0,2841.0,7.0,
85600,1871.4,111.2,39.1,121.1,672.0,2841.0,7.0,
85700,1880.8,116.5,70.9,261.7,672.0,2841.0,7.0,
85900,1852.4,122.8,107.5,259.8,265.0,1254.0,7.0,
86000,1834.0,113.3,132.7,193.4,331.0,1364.0,7.0,
86100,1850.8,114.5,150.4,130.9,395.0,1651.0,7.0,
86200,1846.9,27.9,164.2,128.9,407.0,1653.0,7.0,
86300,1858.3,17.5,164.3,128.9,407.0,1653.0,7.0,
86400,1859.9,15.0,164.3,125.0,407.0,1653.0,7.0,
86500,1858.3,15.3,164.3,107.4,407.0,1653.0,7.0,
86600,1858.8,13.8,160.9,101.6,407.0,1653.0,7.0,
86700,1860.8,15.3,149.3,119.1,407.0,1653.0,7.0,
86900,1857.8,13.8,125.5,121.1,407.0,1653.0,7.0,
87000,1860.1,14.0,98.5,119.1,407.0,1653.0,7.0,
87100,1860.8,14.2,68.6,119.1,407.0,1653.0,7.0,
87200,1861.2,41.9,19.5,121.1,407.0,1653.0,7.0,
87300,1846.8,87.9,51.9,171.9,407.0,1653.0,7.0,
87400,1851.1,98.0,73.4,191.4,407.0,1653.0,7.0,
87500,1856.4,100.7,93.4,191.4,284.0,1889.0,7.0,
87600,1837.7,68.0,111.9,162.1,284.0,1889.0,7.0,
87700,1835.9,101.6,127.4,130.9,284.0,1889.0,7.0,
87900,1863.4,21.1,137.3,128.9,284.0,1889.0,7.0,
88000,1860.5,14.9,137.4,97.7,284.0,1889.0,7.0,
88100,1860.0,13.7,137.4,93.8,284.0,1889.0,7.0,
88200,1860.2,13.3,137.3,68.4,284.0,1889.0,7.0,
88300,1861.2,14.2,128.5,115.2,284.0,1889.0,7.0,
88400,1860.0,13.0,117.5,119.1,284.0,1889.0,7.0,
88500,1859.5,13.7,102.3,119.1,284.0,1889.0,7.0,
88600,1860.2,17.8,81.6,119.1,284.0,1889.0,7.0,
88700,1859.2,11.3,54.3,119.1,284.0,1889.0,7.0,
88900,1847.9,154.0,70.4,156.3,324.0,1842.0,6.0,
89000,1843.6,163.4,109.8,162.1,367.0,2340.0,8.0,
89100,1829.8,202.7,142.4,130.9,773.0,5420.0,11.0,
89200,1865.6,197.9,163.7,127.0,773.0,5420.0,11.0,
89300,1848.5,154.3,182.1,74.2,773.0,5420.0,11.0,
89400,1866.2,72.4,190.8,66.4,773.0,5420.0,11.0,
89500,1867.8,17.8,194.9,64.5,773.0,5420.0,11.0,
89600,1859.1,12.7,194.9,64.5,773.0,5420.0,11.0,
89700,1861.0,12.6,194.9,66.4,773.0,5420.0,11.0,
89900,1856.9,13.7,182.7,109.4,773.0,5420.0,11.0,
90000,1858.5,16.1,162.0,119.1,773.0,5420.0,11.0,
90100,1862.6,15.6,134.4,121.1,773.0,5420.0,11.0,
90200,1860.5,15.6,107.3,121.1,773.0,5420.0,11.0,
90300,1860.0,14.9,71.8,119.1,773.0,5420.0,11.0,
90400,1862.4,101.6,44.0,119.1,328.0,2212.0,8.0,
90500,1845.2,121.9,70.0,128.9,202.0,1273.0,8.0,
90600,1848.8,171.1,101.2,160.2,681.0,3246.0,8.0,
90700,1845.6,174.6,126.4,158.2,460.0,3627.0,8.0,
90900,1853.9,147.5,160.6,66.4,460.0,3627.0,8.0,
91000,1891.4,89.3,174.6,64.5,460.0,3627.0,8.0,
91100,1859.5,20.1,180.3,64.5,460.0,3627.0,8.0,
91200,1858.6,16.8,180.3,64.5,460.0,3627.0,8.0,
91300,1859.7,15.2,180.3,66.4,460.0,3627.0,8.0,
91400,1859.2,12.8,180.3,84.0,460.0,3627.0,8.0,
91500,1859.3,16.1,167.2,119.1,460.0,3627.0,8.0,
91600,1860.8,14.0,150.4,121.1,460.0,3627.0,8.0,
91700,1859.3,13.8,129.9,119.1,460.0,3627.0,8.0,
91900,1858.6,16.2,84.0,119.1,460.0,3627.0,8.0,
92000,1863.6,55.3,49.1,119.1,460.0,3627.0,8.0,
92100,1849.5,95.7,55.7,156.3,278.0,1263.0,7.0,
92200,1830.4,146.3,96.9,189.5,479.0,2595.0,7.0,
92300,1854.4,161.9,125.2,162.1,504.0,2542.0,7.0,
92400,1845.8,179.6,147.0,128.9,504.0,2542.0,7.0,
92500,1861.3,148.2,162.3,127.0,504.0,2542.0,7.0,
92600,1873.6,135.3,175.8,87.9,504.0,2542.0,7.0,
92700,1877.6,20.2,187.5,64.5,504.0,2542.0,7.0,
92900,1858.7,14.6,187.5,66.4,504.0,2542.0,7.0,
93000,1859.1,14.2,187.4,74.2,504.0,2542.0,7.0,
93100,1860.7,17.4,180.0,109.4,504.0,2542.0,7.0,
93200,1860.2,13.1,161.6,121.1,504.0,2542.0,7.0,
93300,1859.9,19.1,140.7,121.1,504.0,2542.0,7.0,
93400,1862.0,22.9,117.9,119.1,504.0,2542.0,7.0,
93500,1861.9,33.7,96.0,119.1,504.0,2542.0,7.0,
93600,1863.8,88.1,69.4,113.3,504.0,2542.0,7.0,
93700,1854.8,116.4,58.8,74.2,268.0,1801.0,8.0,
93900,1850.2,108.3,107.2,160.2,376.0,1994.0,13.0,
94000,1846.5,102.3,122.0,130.9,376.0,1994.0,13.0,
94100,1895.6,155.6,133.4,127.0,376.0,1994.0,13.0,
94200,1883.7,152.2,153.3,95.7,376.0,1994.0,13.0,
94300,1875.4,34.5,164.1,127.0,376.0,1994.0,13.0,
94400,1856.1,14.7,164.3,168.0,376.0,1994.0,13.0,
94500,1862.6,17.1,164.2,195.3,376.0,1994.0,13.0,
94600,1859.3,17.3,163.8,162.1,376.0,1994.0,13.0,
94700,1860.4,14.6,154.8,103.5,376.0,1994.0,13.0,
94900,1863.7,19.5,126.2,84.0,376.0,1994.0,13.0,
95000,1857.8,14.9,112.1,93.8,376.0,1994.0,13.0,
95100,1855.3,18.5,98.3,97.7,376.0,1994.0,13.0,
95200,1865.0,24.6,62.9,74.2,376.0,1994.0,13.0,
95300,1850.0,115.0,51.2,113.3,376.0,1994.0,13.0,
95400,1852.5,97.3,72.4,130.9,376.0,1994.0,13.0,
95500,1874.9,99.6,85.1,128.9,376.0,1994.0,13.0,
95600,1880.0,95.8,99.7,125.0,376.0,1994.0,13.0,
95700,1889.1,94.3,116.7,121.1,376.0,1994.0,13.0,
95900,1865.7,16.7,142.3,289.1,376.0,1994.0,13.0,
96000,1858.6,11.4,142.2,257.8,376.0,1994.0,13.0,
96100,1858.9,12.7,142.2,224.6,376.0,1994.0,13.0,
96200,1860.8,15.9,142.1,195.3,376.0,1994.0,13.0,
96300,1862.3,13.2,134.6,144.5,376.0,1994.0,13.0,
96400,1857.9,12.9,124.1,119.1,376.0,1994.0,13.0,
96500,1859.8,13.3,115.8,117.2,376.0,1994.0,13.0,
96600,1861.7,16.0,103.3,119.1,376.0,1994.0,13.0,
96700,1860.3,24.1,83.4,121.1,376.0,1994.0,13.0,
96900,1860.5,70.0,31.3,85.9,376.0,1994.0,13.0,
97000,1867.3,77.9,46.9,85.9,376.0,1994.0,13.0,
97100,1872.3,158.6,70.3,101.6,376.0,1994.0,13.0,
97200,1901.3,154.8,101.8,158.2,376.0,1994.0,13.0,
97300,1870.5,129.7,124.7,195.3,678.0,3125.0,30.0,
97400,1855.6,130.4,141.0,195.3,611.0,3290.0,8.0,
97500,1848.5,29.7,159.7,162.1,615.0,2794.0,8.0,
97600,1861.5,18.0,159.7,128.9,615.0,2794.0,8.0,
97700,1857.3,13.1,159.7,128.9,615.0,2794.0,8.0,
97900,1859.8,14.6,157.6,111.3,615.0,2794.0,8.0,
98000,1860.0,13.4,153.7,119.1,615.0,2794.0,8.0,
98100,1860.7,12.3,144.6,121.1,615.0,2794.0,8.0,
98200,1860.5,14.8,124.4,121.1,615.0,2794.0,8.0,
98300,1860.9,17.8,101.4,119.1,615.0,2794.0,8.0,
98400,1860.3,30.3,77.6,119.1,615.0,2794.0,8.0,
98500,1861.4,100.0,32.8,76.2,615.0,2794.0,8.0,
98600,1888.0,128.3,60.1,78.1,615.0,2794.0,8.0,
98700,1885.2,140.4,90.6,160.2,615.0,2794.0,8.0,
98900,1853.7,166.5,140.2,228.5,838.0,4590.0,8.0,
99000,1864.8,179.6,162.4,193.4,763.0,3512.0,8.0,
99100,1844.9,43.0,184.5,97.7,754.0,3387.0,8.0,
99200,1861.0,16.2,185.0,66.4,754.0,3387.0,8.0,
99300,1859.8,15.0,185.0,76.2,754.0,3387.0,8.0,
99400,1857.5,12.1,184.9,80.1,754.0,3387.0,8.0,
99500,1859.0,13.3,183.0,80.1,754.0,3387.0,8.0,
99600,1858.5,13.7,175.9,109.4,754.0,3387.0,8.0,
99700,1859.6,12.5,162.3,119.1,754.0,3387.0,8.0,
99900,1862.7,15.7,122.2,119.1,754.0,3387.0,8.0,
100000,1858.0,12.1,90.6,119.1,754.0,3387.0,8.0,
100100,1860.4,70.5,23.2,119.1,754.0,3387.0,8.0,
100200,1888.3,121.5,60.6,230.5,754.0,3387.0,8.0,
100300,1876.7,144.1,93.1,293.0,754.0,3387.0,8.0,
100400,1867.9,126.2,114.0,291.0,388.0,2126.0,6.0,
100500,1855.2,122.4,130.5,257.8,614.0,3038.0,8.0,
100600,1841.5,127.4,150.2,193.4,450.0,2724.0,7.0,
100700,1832.2,51.2,174.9,130.9,427.0,2147.0,8.0,
100900,1861.2,11.5,175.8,128.9,427.0,2147.0,8.0,
101000,1859.0,12.4,175.7,128.9,427.0,2147.0,8.0,
101100,1859.0,10.9,175.8,127.0,427.0,2147.0,8.0,
101200,1858.3,13.6,166.0,121.1,427.0,2147.0,8.0,
101300,1860.3,13.6,150.2,121.1,427.0,2147.0,8.0,
101400,1861.7,19.9,135.0,119.1,427.0,2147.0,8.0,
101500,1859.5,19.3,119.4,119.1,427.0,2147.0,8.0,
101600,1863.2,18.9,93.5,76.2,427.0,2147.0,8.0,
101700,1859.8,88.7,27.8,78.1,427.0,2147.0,8.0,
101900,1874.5,127.4,83.4,291.0,427.0,2147.0,8.0,
102000,1845.7,157.1,113.2,289.1,520.0,3269.0,8.0,
102100,1839.7,151.9,141.1,195.3,484.0,2408.0,8.0,
102200,1855.6,154.5,160.3,127.0,619.0,3058.0,8.0,
102300,1833.9,50.5,179.1,128.9,444.0,2046.0,8.0,
102400,1854.1,20.7,182.4,128.9,444.0,2046.0,8.0,
102500,1861.6,11.6,182.4,128.9,444.0,2046.0,8.0,
102600,1860.8,12.1,182.2,128.9,444.0,2046.0,8.0,
102700,1858.5,13.2,182.1,127.0,444.0,2046.0,8.0,
102900,1863.2,14.9,163.3,119.1,444.0,2046.0,8.0,
103000,1860.2,12.9,144.2,121.1,444.0,2046.0,8.0,
103100,1858.0,16.5,117.1,119.1,444.0,2046.0,8.0,
103200,1861.0,28.6,89.2,119.1,444.0,2046.0,8.0,
103300,1863.7,57.3,40.6,99.6,444.0,2046.0,8.0,
103400,1851.6,100.4,59.2,113.3,138.0,1206.0,28.0,
103500,1859.3,110.5,90.7,179.7,374.0,2206.0,8.0,
103600,1849.0,135.0,113.1,162.1,393.0,2604.0,12.0,
103700,1845.3,110.4,134.0,160.2,413.0,2328.0,8.0,
103900,1846.1,61.6,173.0,130.9,446.0,1993.0,8.0,
104000,1856.6,18.1,177.2,128.9,446.0,1993.0,8.0,
104100,1859.9,14.5,177.2,128.9,446.0,1993.0,8.0,
104200,1860.0,12.8,177.1,128.9,446.0,1993.0,8.0,
104300,1860.8,13.1,177.0,127.0,446.0,1993.0,8.0,
104400,1860.3,12.9,168.0,119.1,446.0,1993.0,8.0,
104500,1862.1,13.7,153.3,119.1,446.0,1993.0,8.0,
104600,1861.0,13.4,137.6,121.1,446.0,1993.0,8.0,
104700,1861.0,15.2,117.4,121.1,446.0,1993.0,8.0,
104900,1862.8,61.7,42.7,121.1,446.0,1993.0,8.0,
105000,1860.6,80.6,47.6,121.1,446.0,1993.0,8.0,
105100,1858.3,159.1,75.4,164.1,443.0,3262.0,6.0,
105200,1838.5,140.7,110.0,162.1,420.0,2496.0,8.0,
105300,1846.9,120.2,134.0,128.9,258.0,1504.0,7.0,
105400,1840.9,105.4,151.1,97.7,413.0,1940.0,8.0,
105500,1844.8,92.1,166.7,128.9,382.0,1748.0,8.0,
105600,1851.7,18.0,175.7,128.9,415.0,1857.0,8.0,
105700,1857.9,13.9,175.7,128.9,415.0,1857.0,8.0,
105900,1859.6,13.9,175.7,127.0,415.0,1857.0,8.0,
106000,1860.9,14.2,170.1,119.1,415.0,1857.0,8.0,
106100,1862.2,13.8,159.8,119.1,415.0,1857.0,8.0,
106200,1860.3,13.7,138.2,121.1,415.0,1857.0,8.0,
106300,1861.3,14.3,115.1,119.1,415.0,1857.0,8.0,
106400,1862.5,15.7,91.6,119.1,415.0,1857.0,8.0,
106500,1862.4,62.1,58.7,119.1,415.0,1857.0,8.0,
106600,1867.9,96.2,48.0,121.1,415.0,1857.0,8.0,
106700,1867.0,130.4,74.3,203.1,415.0,1857.0,8.0,
106900,1847.6,95.0,114.1,160.2,170.0,999.0,7.0,
107000,1833.6,97.1,135.5,128.9,352.0,1458.0,7.0,
107100,1848.9,93.0,148.9,130.9,215.0,1103.0,6.0,
107200,1847.2,18.2,156.4,160.2,215.0,1103.0,6.0,
107300,1854.8,16.5,156.5,160.2,215.0,1103.0,6.0,
107400,1860.8,13.6,156.5,130.9,215.0,1103.0,6.0,
107500,1859.8,14.4,156.5,128.9,215.0,1103.0,6.0,
107600,1859.6,14.8,150.1,119.1,215.0,1103.0,6.0,
107700,1859.4,13.4,139.0,119.1,215.0,1103.0,6.0,
107900,1859.8,15.3,108.7,121.1,215.0,1103.0,6.0,
108000,1860.4,16.1,80.5,121.1,215.0,1103.0,6.0,
108100,1859.4,14.9,51.7,119.1,215.0,1103.0,6.0,
108200,1863.0,60.7,35.5,121.1,215.0,1103.0,6.0,
108300,1846.3,126.2,64.3,187.5,215.0,1103.0,6.0,
108400,1860.6,121.4,91.5,191.4,385.0,2259.0,6.0,
108500,1847.9,93.6,112.7,162.1,284.0,1747.0,7.0,
108600,1839.9,78.3,127.9,128.9,223.0,1391.0,8.0,
108700,1846.5,95.3,140.0,128.9,223.0,1391.0,8.0,
108900,1856.8,15.8,147.9,128.9,223.0,1391.0,8.0,
109000,1857.4,14.0,147.9,127.0,223.0,1391.0,8.0,
109100,1860.3,12.9,147.9,101.6,223.0,1391.0,8.0,
109200,1859.8,13.2,144.8,99.6,223.0,1391.0,8.0,
109300,1861.0,11.6,134.4,119.1,223.0,1391.0,8.0,
109400,1859.2,13.7,117.6,121.1,223.0,1391.0,8.0,
109500,1859.3,15.4,97.4,121.1,223.0,1391.0,8.0,
109600,1861.1,17.9,76.4,119.1,223.0,1391.0,8.0,
109700,1860.2,30.3,51.1,119.1,223.0,1391.0,8.0,
109900,1848.2,83.4,67.2,154.3,263.0,1239.0,7.0,
110000,1842.9,96.5,90.1,162.1,328.0,1950.0,8.0,
110100,1833.7,126.5,115.8,162.1,421.0,2373.0,7.0,
110200,1859.0,134.9,132.4,160.2,421.0,2373.0,7.0,
110300,1845.7,103.0,145.9,128.9,421.0,2373.0,7.0,
110400,1866.1,25.4,153.9,97.7,421.0,2373.0,7.0,
110500,1862.0,15.2,154.0,97.7,421.0,2373.0,7.0,
110600,1860.3,15.0,153.9,95.7,421.0,2373.0,7.0,
110700,1860.1,12.0,153.9,95.7,421.0,2373.0,7.0,
110900,1859.5,14.0,139.6,127.0,421.0,2373.0,7.0,
111000,1862.9,13.8,126.1,121.1,421.0,2373.0,7.0,
111100,1862.3,17.5,103.0,121.1,421.0,2373.0,7.0,
111200,1860.7,21.4,80.6,121.1,421.0,2373.0,7.0,
111300,1860.6,18.4,52.9,119.1,421.0,2373.0,7.0,
111400,1847.5,96.4,41.0,93.8,271.0,1517.0,6.0,
111500,1854.5,105.8,73.1,130.9,218.0,1327.0,6.0,
111600,1853.1,115.8,98.2,164.1,354.0,1609.0,6.0,
111700,1836.4,94.7,119.9,162.1,256.0,1972.0,13.0,
111900,1847.9,102.8,148.4,128.9,256.0,1972.0,13.0,
112000,1876.3,26.5,154.8,128.9,256.0,1972.0,13.0,
112100,1858.7,14.6,155.0,99.6,256.0,1972.0,13.0,
112200,1857.0,15.2,155.0,97.7,256.0,1972.0,13.0,
112300,1858.5,14.3,154.9,111.3,256.0,1972.0,13.0,
112400,1859.9,14.0,150.6,119.1,256.0,1972.0,13.0,
112500,1860.2,13.2,138.0,119.1,256.0,1972.0,13.0,
112600,1860.5,15.0,121.4,119.1,256.0,1972.0,13.0,
112700,1858.5,15.3,100.0,119.1,256.0,1972.0,13.0,
112900,1862.2,37.6,48.9,119.1,256.0,1972.0,13.0,
113000,1863.0,75.9,25.2,89.8,139.0,836.0,27.0,
113100,1843.7,115.4,69.4,97.7,431.0,2511.0,15.0,
113200,1838.4,127.1,107.6,160.2,393.0,2523.0,13.0,
113300,1848.2,130.9,126.4,136.7,472.0,2334.0,8.0,
113400,1845.3,88.9,142.6,128.9,472.0,2334.0,8.0,
113500,1849.0,65.7,152.3,128.9,472.0,2334.0,8.0,
113600,1859.0,30.8,157.3,128.9,472.0,2334.0,8.0,
113700,1865.1,15.9,158.5,128.9,472.0,2334.0,8.0,
113900,1860.8,13.1,158.3,119.1,472.0,2334.0,8.0,
114000,1861.9,13.8,157.7,121.1,472.0,2334.0,8.0,
114100,1858.2,14.5,143.6,119.1,472.0,2334.0,8.0,
114200,1858.5,12.2,117.8,119.1,472.0,2334.0,8.0,
114300,1858.9,13.6,97.3,121.1,472.0,2334.0,8.0,
114400,1861.7,13.0,71.3,119.1,472.0,2334.0,8.0,
114500,1861.4,17.3,47.4,119.1,472.0,2334.0,8.0,
114600,1858.5,98.9,27.6,119.1,472.0,2334.0,8.0,
114700,1855.3,98.2,63.2,119.1,240.0,1257.0,7.0,
114900,1842.1,88.1,108.9,162.1,320.0,2096.0,7.0,
115000,1838.2,147.6,130.4,162.1,320.0,2096.0,7.0,
115100,1870.6,143.6,146.7,160.2,320.0,2096.0,7.0,
115200,1858.8,61.0,154.8,128.9,320.0,2096.0,7.0,
115300,1863.2,18.5,157.1,76.2,320.0,2096.0,7.0,
115400,1859.0,15.5,157.1,66.4,320.0,2096.0,7.0,
115500,1859.0,14.5,157.1,95.7,320.0,2096.0,7.0,
115600,1857.8,14.3,156.9,121.1,320.0,2096.0,7.0,
115700,1859.1,14.7,144.9,99.6,320.0,2096.0,7.0,
115900,1861.5,15.1,114.7,121.1,320.0,2096.0,7.0,
116000,1860.9,13.3,89.5,119.1,320.0,2096.0,7.0,
116100,1859.3,12.9,59.1,119.1,320.0,2096.0,7.0,
116200,1859.4,49.4,32.4,119.1,320.0,2096.0,7.0,
116300,1853.0,93.4,50.1,136.7,213.0,1209.0,7.0,
116400,1838.1,100.1,81.5,162.1,268.0,1340.0,7.0,
116500,1851.5,114.3,101.5,162.1,268.0,1340.0,7.0,
116600,1845.0,82.3,116.6,160.2,268.0,1340.0,7.0,
116700,1849.0,86.8,127.4,128.9,268.0,1340.0,7.0,
116900,1876.5,37.1,141.8,70.3,268.0,1340.0,7.0,
117000,1859.6,16.5,142.2,66.4,268.0,1340.0,7.0,
117100,1856.2,13.6,142.3,82.0,268.0,1340.0,7.0,
117200,1858.3,14.3,142.3,76.2,268.0,1340.0,7.0,
117300,1858.8,15.3,134.5,74.2,268.0,1340.0,7.0,
117400,1862.2,12.9,118.0,119.1,268.0,1340.0,7.0,
117500,1859.5,14.3,101.3,119.1,268.0,1340.0,7.0,
117600,1859.7,13.9,83.6,119.1,268.0,1340.0,7.0,
117700,1862.2,14.0,65.8,121.1,268.0,1340.0,7.0,
117900,1854.1,76.8,52.3,128.9,175.0,1008.0,8.0,
118000,1846.1,67.0,79.5,183.6,204.0,1182.0,5.0,
118100,1834.1,94.9,101.0,177.7,253.0,1231.0,7.0,
118200,1851.7,95.2,112.8,162.1,253.0,1231.0,7.0,
118300,1864.3,84.4,121.0,162.1,253.0,1231.0,7.0,
118400,1867.0,127.9,129.2,128.9,253.0,1231.0,7.0,
118500,1879.4,47.2,138.5,105.5,253.0,1231.0,7.0,
118600,1860.5,19.7,139.1,97.7,253.0,1231.0,7.0,
118700,1859.5,14.8,139.2,101.6,253.0,1231.0,7.0,
118900,1860.2,14.2,130.8,74.2,253.0,1231.0,7.0,
119000,1859.0,12.9,115.8,72.3,253.0,1231.0,7.0,
119100,1858.3,12.8,97.5,119.1,253.0,1231.0,7.0,
119200,1859.7,14.7,83.6,119.1,253.0,1231.0,7.0,
119300,1860.7,19.0,71.2,119.1,253.0,1231.0,7.0,
119400,1861.8,46.4,55.3,119.1,253.0,1231.0,7.0,
119500,1846.4,97.7,51.5,101.6,199.0,1048.0,6.0,
119600,1850.6,97.2,76.2,152.3,199.0,1048.0,6.0,
119700,1851.2,150.0,92.1,162.1,199.0,1048.0,6.0,
119900,1860.8,125.3,120.5,99.6,199.0,1048.0,6.0,
120000,1888.0,129.1,134.7,93.8,199.0,1048.0,6.0,
120100,1877.1,34.8,145.4,95.7,199.0,1048.0,6.0,
120200,1857.1,13.8,145.7,191.4,199.0,1048.0,6.0,
120300,1857.8,14.4,145.6,234.4,199.0,1048.0,6.0,
120400,1859.0,16.5,145.5,232.4,199.0,1048.0,6.0,
120500,1862.5,15.3,138.2,127.0,199.0,1048.0,6.0,
120600,1861.2,14.2,125.6,121.1,199.0,1048.0,6.0,
120700,1859.5,14.9,114.3,119.1,199.0,1048.0,6.0,
120900,1858.4,23.2,83.9,93.8,199.0,1048.0,6.0,
121000,1863.0,18.4,58.8,80.1,199.0,1048.0,6.0,
121100,1854.9,77.0,42.6,87.9,225.0,1199.0,6.0,
121200,1846.0,107.5,70.4,148.4,225.0,1199.0,6.0,
121300,1842.8,101.4,91.0,160.2,225.0,1199.0,6.0,
121400,1873.6,108.0,102.6,128.9,225.0,1199.0,6.0,
121500,1875.4,122.9,113.2,125.0,225.0,1199.0,6.0,
121600,1882.6,102.3,129.9,95.7,225.0,1199.0,6.0,
121700,1889.1,27.4,146.3,128.9,225.0,1199.0,6.0,
121900,1856.6,13.7,146.6,228.5,225.0,1199.0,6.0,
122000,1858.4,13.9,146.5,232.4,225.0,1199.0,6.0,
122100,1860.1,13.7,141.8,179.7,225.0,1199.0,6.0,
122200,1859.2,14.3,129.9,119.1,225.0,1199.0,6.0,
122300,1861.0,15.2,116.4,121.1,225.0,1199.0,6.0,
122400,1861.7,14.9,106.4,119.1,225.0,1199.0,6.0,
122500,1859.1,18.4,94.9,119.1,225.0,1199.0,6.0,
122600,1863.5,16.2,70.3,119.1,225.0,1199.0,6.0,
122700,1856.6,77.6,41.6,119.1,275.0,1783.0,5.0,
122900,1845.0,107.7,86.8,152.3,275.0,1783.0,5.0,
123000,1856.9,95.8,104.5,128.9,275.0,1783.0,5.0,
123100,1872.7,125.2,114.9,97.7,275.0,1783.0,5.0,
123200,1879.1,115.2,127.8,95.7,275.0,1783.0,5.0,
123300,1877.7,30.1,141.5,95.7,275.0,1783.0,5.0,
123400,1860.8,16.9,141.6,128.9,275.0,1783.0,5.0,
123500,1859.2,15.7,141.7,226.6,275.0,1783.0,5.0,
123600,1861.3,16.0,141.7,252.0,275.0,1783.0,5.0,
123700,1858.3,15.9,136.9,193.4,275.0,1783.0,5.0,
123900,1861.2,13.1,113.5,121.1,275.0,1783.0,5.0,
124000,1862.0,15.2,97.4,119.1,275.0,1783.0,5.0,
124100,1859.2,24.3,84.9,119.1,275.0,1783.0,5.0,
124200,1860.0,16.9,64.3,119.1,275.0,1783.0,5.0,
124300,1861.2,55.8,21.7,70.3,275.0,1783.0,5.0,
124400,1833.3,118.3,68.7,101.6,360.0,1743.0,5.0,
124500,1850.4,102.8,90.7,158.2,360.0,1743.0,5.0,
124600,1853.9,105.4,104.0,160.2,360.0,1743.0,5.0,
124700,1851.0,72.6,116.5,128.9,360.0,1743.0,5.0,
124900,1885.8,33.6,137.5,89.8,360.0,1743.0,5.0,
125000,1858.9,15.6,138.0,128.9,360.0,1743.0,5.0,
125100,1860.5,14.7,138.0,230.5,360.0,1743.0,5.0,
125200,1859.2,14.9,137.8,257.8,360.0,1743.0,5.0,
125300,1861.6,13.9,137.7,238.3,360.0,1743.0,5.0,
125400,1860.0,15.0,121.2,121.1,360.0,1743.0,5.0,
125500,1859.1,12.9,105.6,119.1,360.0,1743.0,5.0,
125600,1860.5,18.0,92.5,119.1,360.0,1743.0,5.0,
125700,1860.6,16.1,76.3,119.1,360.0,1743.0,5.0,
125900,1860.0,71.4,22.0,87.9,360.0,1743.0,5.0,
126000,1848.8,74.6,55.9,127.0,360.0,1743.0,5.0,
126100,1844.8,136.1,76.9,160.2,360.0,1743.0,5.0,
126200,1846.3,121.8,94.2,152.3,360.0,1743.0,5.0,
126300,1872.3,89.0,104.2,99.6,360.0,1743.0,5.0,
126400,1868.4,92.3,112.7,93.8,360.0,1743.0,5.0,
126500,1886.4,44.0,125.8,68.4,360.0,1743.0,5.0,
126600,1867.9,13.8,130.9,164.1,360.0,1743.0,5.0,
126700,1858.7,14.8,130.9,257.8,360.0,1743.0,5.0,
126900,1860.8,11.9,130.8,263.7,360.0,1743.0,5.0,
127000,1861.0,14.2,119.7,121.1,360.0,1743.0,5.0,
127100,1859.8,14.6,107.4,119.1,360.0,1743.0,5.0,
127200,1861.3,14.2,92.6,121.1,360.0,1743.0,5.0,
127300,1861.0,14.3,81.1,121.1,360.0,1743.0,5.0,
127400,1859.5,14.4,68.8,121.1,360.0,1743.0,5.0,
127500,1858.1,78.7,40.5,119.1,360.0,1743.0,5.0,
127600,1848.3,80.8,54.7,154.3,360.0,1743.0,5.0,
127700,1845.0,83.1,70.1,162.1,360.0,1743.0,5.0,
127900,1868.3,111.7,90.0,130.9,360.0,1743.0,5.0,
128000,1874.4,139.2,106.4,127.0,360.0,1743.0,5.0,
128100,1887.7,57.6,121.5,127.0,360.0,1743.0,5.0,
128200,1863.9,17.6,126.0,144.5,360.0,1743.0,5.0,
128300,1858.1,14.4,126.0,226.6,360.0,1743.0,5.0,
128400,1856.3,15.8,126.1,257.8,360.0,1743.0,5.0,
128500,1860.6,15.3,126.0,253.9,360.0,1743.0,5.0,
128600,1861.7,14.4,115.0,128.9,360.0,1743.0,5.0,
128700,1860.3,12.4,106.3,121.1,360.0,1743.0,5.0,
128900,1859.8,13.5,90.0,119.1,360.0,1743.0,5.0,
129000,1857.6,13.3,69.9,119.1,360.0,1743.0,5.0,
129100,1860.3,54.8,37.9,119.1,360.0,1743.0,5.0,
129200,1853.0,70.4,45.6,121.1,360.0,1743.0,5.0,
129300,1841.2,97.1,64.1,136.7,360.0,1743.0,5.0,
129400,1869.6,106.5,74.9,128.9,360.0,1743.0,5.0,
129500,1874.6,138.2,88.6,99.6,360.0,1743.0,5.0,
129600,1878.1,98.0,109.0,95.7,360.0,1743.0,5.0,
129700,1887.6,83.1,125.7,128.9,360.0,1743.0,5.0,
129900,1857.5,13.2,134.5,257.8,360.0,1743.0,5.0,
130000,1857.3,13.6,134.5,255.9,360.0,1743.0,5.0,
130100,1858.7,15.7,134.6,193.4,360.0,1743.0,5.0,
130200,1860.0,13.3,127.9,119.1,360.0,1743.0,5.0,
130300,1860.2,14.8,119.6,119.1,360.0,1743.0,5.0,
130400,1859.7,14.8,113.2,121.1,360.0,1743.0,5.0,
130500,1860.7,14.7,102.8,119.1,360.0,1743.0,5.0,
130600,1860.5,12.9,80.9,119.1,360.0,1743.0,5.0,
130700,1860.6,70.3,51.3,121.1,360.0,1743.0,5.0,
130900,1853.9,73.5,64.2,123.0,360.0,1743.0,5.0,
131000,1856.8,102.8,76.3,99.6,360.0,1743.0,5.0,
131100,1874.3,169.3,93.6,97.7,360.0,1743.0,5.0,
131200,1896.1,144.2,117.1,95.7,360.0,1743.0,5.0,
131300,1870.8,118.4,133.3,127.0,360.0,1743.0,5.0,
131400,1865.7,25.8,142.4,193.4,360.0,1743.0,5.0,
131500,1857.2,14.8,142.5,224.6,360.0,1743.0,5.0,
131600,1860.1,15.8,142.5,195.3,360.0,1743.0,5.0,
131700,1855.7,12.8,142.5,130.9,360.0,1743.0,5.0,
131900,1859.6,14.8,128.5,121.1,360.0,1743.0,5.0,
132000,1859.2,13.6,121.7,119.1,360.0,1743.0,5.0,
132100,1859.9,14.4,108.9,119.1,360.0,1743.0,5.0,
132200,1857.9,19.6,83.0,119.1,360.0,1743.0,5.0,
132300,1864.4,20.2,53.9,121.1,360.0,1743.0,5.0,
132400,1852.3,68.6,37.8,119.1,360.0,1743.0,5.0,
132500,1855.7,87.0,52.5,119.1,360.0,1743.0,5.0,
132600,1870.9,94.5,66.0,127.0,360.0,1743.0,5.0,
132700,1882.1,117.1,84.5,119.1,360.0,1743.0,5.0,
132900,1867.4,100.4,122.9,255.9,360.0,1743.0,5.0,
133000,1865.7,25.4,131.4,255.9,360.0,1743.0,5.0,
133100,1858.4,15.3,131.7,212.9,360.0,1743.0,5.0,
133200,1858.4,13.5,131.7,166.0,360.0,1743.0,5.0,
133300,1857.9,13.4,131.6,132.8,360.0,1743.0,5.0,
133400,1859.1,12.7,127.6,119.1,360.0,1743.0,5.0,
133500,1859.4,11.6,122.0,119.1,360.0,1743.0,5.0,
133600,1861.3,15.5,115.3,119.1,360.0,1743.0,5.0,
133700,1859.0,16.0,102.5,119.1,360.0,1743.0,5.0,
133900,1859.5,14.5,50.5,121.1,360.0,1743.0,5.0,
134000,1859.5,75.8,32.2,121.1,360.0,1743.0,5.0,
134100,1849.4,51.7,53.2,125.0,360.0,1743.0,5.0,
134200,1863.7,90.8,62.4,121.1,360.0,1743.0,5.0,
134300,1883.6,123.6,77.9,99.6,360.0,1743.0,5.0,
134400,1890.9,95.9,97.7,128.9,360.0,1743.0,5.0,
134500,1884.2,120.1,112.9,257.8,360.0,1743.0,5.0,
134600,1868.3,70.0,125.0,289.1,360.0,1743.0,5.0,
134700,1856.8,21.6,129.0,259.8,360.0,1743.0,5.0,
134900,1860.0,17.2,129.1,70.3,360.0,1743.0,5.0,
135000,1855.6,14.3,126.6,58.6,360.0,1743.0,5.0,
135100,1859.4,17.8,118.9,68.4,360.0,1743.0,5.0,
135200,1859.9,31.7,114.5,121.1,360.0,1743.0,5.0,
135300,1859.7,21.2,105.1,119.1,360.0,1743.0,5.0,
135400,1858.6,35.6,87.4,78.1,360.0,1743.0,5.0,
135500,1859.1,26.1,67.6,78.1,360.0,1743.0,5.0,
135600,1855.9,76.6,48.9,76.2,360.0,1743.0,5.0,
135700,1857.5,56.6,52.6,76.2,360.0,1743.0,5.0,
135900,1872.2,107.6,80.2,99.6,360.0,1743.0,5.0,
136000,1884.6,120.1,107.7,128.9,360.0,1743.0,5.0,
136100,1884.0,92.5,122.9,193.4,360.0,1743.0,5.0,
136200,1855.9,25.2,133.0,255.9,360.0,1743.0,5.0,
136300,1856.1,17.3,132.8,257.8,360.0,1743.0,5.0,
136400,1858.8,15.2,132.6,226.6,360.0,1743.0,5.0,
136500,1858.2,17.0,132.1,195.3,360.0,1743.0,5.0,
136600,1858.3,13.6,129.5,125.0,360.0,1743.0,5.0,
136700,1860.7,21.0,123.9,119.1,360.0,1743.0,5.0,
136900,1858.7,17.8,108.3,119.1,360.0,1743.0,5.0,
137000,1862.0,17.2,81.3,70.3,360.0,1743.0,5.0,
137100,1861.3,24.2,55.8,70.3,360.0,1743.0,5.0,
137200,1858.4,64.3,23.0,70.3,360.0,1743.0,5.0,
137300,1854.1,65.2,49.4,91.8,360.0,1743.0,5.0,
137400,1855.5,103.0,61.9,105.5,360.0,1743.0,5.0,
137500,1887.9,122.7,77.9,127.0,360.0,1743.0,5.0,
137600,1879.6,100.7,99.0,127.0,360.0,1743.0,5.0,
137700,1884.5,71.9,116.2,128.9,360.0,1743.0,5.0,
137900,1864.8,16.0,130.3,257.8,360.0,1743.0,5.0,
138000,1856.4,13.2,130.1,259.8,360.0,1743.0,5.0,
138100,1861.2,13.8,130.0,257.8,360.0,1743.0,5.0,
138200,1858.7,15.0,129.9,220.7,360.0,1743.0,5.0,
138300,1862.8,11.6,122.1,119.1,360.0,1743.0,5.0,
138400,1861.2,12.7,116.2,119.1,360.0,1743.0,5.0,
138500,1860.2,16.3,106.1,121.1,360.0,1743.0,5.0,
138600,1860.7,13.4,87.2,121.1,360.0,1743.0,5.0,
138700,1860.7,23.6,62.4,82.0,360.0,1743.0,5.0,
138900,1857.3,90.7,65.1,97.7,492.0,3215.0,13.0,
139000,1849.5,72.7,80.6,127.0,492.0,3215.0,13.0,
139100,1850.3,101.1,91.2,125.0,492.0,3215.0,13.0,
139200,1877.7,115.9,104.0,97.7,492.0,3215.0,13.0,
139300,1885.8,108.9,118.9,97.7,492.0,3215.0,13.0,
139400,1880.0,51.9,132.5,146.5,492.0,3215.0,13.0,
139500,1865.0,18.5,137.6,257.8,492.0,3215.0,13.0,
139600,1860.0,13.1,137.3,259.8,492.0,3215.0,13.0,
139700,1858.6,13.6,137.3,257.8,492.0,3215.0,13.0,
139900,1864.6,14.1,122.4,121.1,492.0,3215.0,13.0,
140000,1861.0,17.9,112.9,119.1,492.0,3215.0,13.0,
140100,1861.2,15.1,104.7,121.1,492.0,3215.0,13.0,
140200,1860.0,24.0,91.9,119.1,492.0,3215.0,13.0,
140300,1859.1,39.9,72.9,115.2,492.0,3215.0,13.0,
140400,1861.5,115.0,46.3,82.0,492.0,3215.0,13.0,
140500,1841.0,125.8,62.8,70.3,492.0,3215.0,13.0,
140600,1866.2,93.1,81.9,93.8,492.0,3215.0,13.0,
140700,1863.8,107.0,93.9,95.7,492.0,3215.0,13.0,
140900,1885.6,123.1,131.8,97.7,492.0,3215.0,13.0,
141000,1878.7,60.5,146.7,160.2,492.0,3215.0,13.0,
141100,1858.0,21.6,150.6,228.5,492.0,3215.0,13.0,
141200,1857.9,16.9,150.7,226.6,492.0,3215.0,13.0,
141300,1861.0,15.4,150.1,220.7,492.0,3215.0,13.0,
141400,1861.4,13.1,149.3,144.5,492.0,3215.0,13.0,
141500,1860.2,12.9,138.3,119.1,492.0,3215.0,13.0,
141600,1861.4,16.1,127.9,119.1,492.0,3215.0,13.0,
141700,1862.3,13.7,119.4,121.1,492.0,3215.0,13.0,
141900,1860.3,16.2,75.5,121.1,492.0,3215.0,13.0,
142000,1860.8,66.1,39.4,119.1,492.0,3215.0,13.0,
142100,1848.7,82.5,45.4,121.1,492.0,3215.0,13.0,
142200,1858.3,115.4,66.3,128.9,492.0,3215.0,13.0,
142300,1861.5,139.2,82.2,113.3,492.0,3215.0,13.0,
142400,1883.5,126.8,101.3,95.7,492.0,3215.0,13.0,
142500,1882.5,128.1,119.2,95.7,492.0,3215.0,13.0,
142600,1885.7,84.2,138.1,128.9,492.0,3215.0,13.0,
142700,1866.7,21.9,146.6,255.9,492.0,3215.0,13.0,
142900,1857.6,11.9,146.6,255.9,492.0,3215.0,13.0,
143000,1857.0,15.4,146.6,226.6,492.0,3215.0,13.0,
143100,1859.0,13.9,140.7,123.0,492.0,3215.0,13.0,
143200,1859.5,15.5,132.1,119.1,492.0,3215.0,13.0,
143300,1858.5,12.2,122.7,121.1,492.0,3215.0,13.0,
143400,1859.1,13.7,107.5,121.1,492.0,3215.0,13.0,
143500,1858.1,15.9,87.2,119.1,492.0,3215.0,13.0,
143600,1857.5,62.2,52.6,119.1,492.0,3215.0,13.0,
143700,1852.5,91.0,50.0,119.1,492.0,3215.0,13.0,
143900,1853.0,85.7,86.6,127.0,492.0,3215.0,13.0,
144000,1855.5,113.4,97.4,97.7,492.0,3215.0,13.0,
144100,1881.3,150.4,111.8,95.7,492.0,3215.0,13.0,
144200,1885.2,133.7,130.7,95.7,492.0,3215.0,13.0,
144300,1875.1,20.3,141.6,95.7,492.0,3215.0,13.0,
144400,1857.2,17.2,141.7,160.2,492.0,3215.0,13.0,
144500,1857.9,14.1,141.7,224.6,492.0,3215.0,13.0,
144600,1855.2,14.8,141.7,228.5,492.0,3215.0,13.0,
144700,1859.7,14.5,133.9,123.0,492.0,3215.0,13.0,
144900,1859.4,15.1,113.6,101.6,492.0,3215.0,13.0,
145000,1858.2,12.8,104.5,117.2,492.0,3215.0,13.0,
145100,1859.3,12.9,88.8,119.1,492.0,3215.0,13.0,
145200,1859.7,13.4,57.6,119.1,492.0,3215.0,13.0,
145300,1853.5,85.5,36.6,121.1,492.0,3215.0,13.0,
145400,1836.0,88.5,66.2,134.8,492.0,3215.0,13.0,
145500,1850.8,95.6,79.3,130.9,492.0,3215.0,13.0,
145600,1861.9,109.9,91.9,130.9,492.0,3215.0,13.0,
145700,1859.8,148.6,105.1,128.9,492.0,3215.0,13.0,
145900,1872.0,31.4,138.3,74.2,492.0,3215.0,13.0,
146000,1858.4,16.1,138.6,128.9,492.0,3215.0,13.0,
146100,1860.1,14.0,138.6,228.5,492.0,3215.0,13.0,
146200,1858.1,13.8,138.6,253.9,492.0,3215.0,13.0,
146300,1858.8,15.0,135.0,121.1,492.0,3215.0,13.0,
146400,1860.1,12.4,123.1,119.1,492.0,3215.0,13.0,
146500,1858.7,13.7,115.1,119.1,492.0,3215.0,13.0,
146600,1860.2,14.3,105.3,121.1,492.0,3215.0,13.0,
146700,1858.4,14.7,92.2,121.1,492.0,3215.0,13.0,
146900,1854.8,72.0,35.7,119.1,492.0,3215.0,13.0,
147000,1843.8,106.4,60.1,150.4,492.0,3215.0,13.0,
147100,1843.3,106.6,84.4,158.2,492.0,3215.0,13.0,
147200,1862.6,164.5,100.4,127.0,492.0,3215.0,13.0,
147300,1896.4,196.6,129.4,95.7,492.0,3215.0,13.0,
147400,1879.7,179.3,154.6,95.7,492.0,3215.0,13.0,
147500,1876.8,35.6,175.1,97.7,492.0,3215.0,13.0,
147600,1854.9,16.5,175.2,128.9,492.0,3215.0,13.0,
147700,1859.1,13.5,175.3,130.9,492.0,3215.0,13.0,
147900,1860.3,16.3,172.8,130.9,492.0,3215.0,13.0,
148000,1859.5,12.6,165.7,119.1,492.0,3215.0,13.0,
148100,1860.4,14.4,154.7,121.1,492.0,3215.0,13.0,
148200,1860.1,13.4,144.8,119.1,492.0,3215.0,13.0,
148300,1860.4,16.3,119.6,119.1,492.0,3215.0,13.0,
148400,1858.2,13.0,84.6,121.1,492.0,3215.0,13.0,
148500,1848.3,98.5,35.0,119.1,492.0,3215.0,13.0,
148600,1868.5,162.6,65.0,125.0,492.0,3215.0,13.0,
148700,1846.5,156.5,95.9,127.0,492.0,3215.0,13.0,
148900,1879.4,205.8,144.4,127.0,492.0,3215.0,13.0,
149000,1886.5,197.2,173.0,128.9,492.0,3215.0,13.0,
149100,1873.2,43.3,196.1,130.9,492.0,3215.0,13.0,
149200,1862.1,19.9,196.2,160.2,492.0,3215.0,13.0,
149300,1857.7,15.0,196.3,160.2,492.0,3215.0,13.0,
149400,1856.9,14.4,196.2,136.7,492.0,3215.0,13.0,
149500,1857.4,14.6,194.2,130.9,492.0,3215.0,13.0,
149600,1859.5,12.9,186.2,119.1,492.0,3215.0,13.0,
149700,1858.5,28.0,172.3,121.1,492.0,3215.0,13.0,
149900,1860.9,20.3,134.6,66.4,492.0,3215.0,13.0,
150000,1854.5,28.3,95.5,60.5,492.0,3215.0,13.0,
150100,1860.6,89.6,26.6,60.5,492.0,3215.0,13.0,
150200,1843.3,149.2,67.3,82.0,492.0,3215.0,13.0,
150300,1849.8,130.7,99.7,99.6,492.0,3215.0,13.0,
150400,1887.2,194.6,125.5,101.6,492.0,3215.0,13.0,
150500,1874.0,197.1,151.8,127.0,492.0,3215.0,13.0,
150600,1883.3,152.4,174.9,128.9,492.0,3215.0,13.0,
150700,1875.4,49.1,194.3,128.9,492.0,3215.0,13.0,
150900,1854.9,13.5,199.1,158.2,492.0,3215.0,13.0,
151000,1858.5,13.1,198.8,142.6,492.0,3215.0,13.0,
151100,1856.6,14.3,198.6,140.6,492.0,3215.0,13.0,
151200,1859.3,13.9,188.6,119.1,492.0,3215.0,13.0,
151300,1859.0,14.3,173.6,121.1,492.0,3215.0,13.0,
151400,1859.0,14.5,156.0,121.1,492.0,3215.0,13.0,
151500,1858.8,17.0,130.6,119.1,492.0,3215.0,13.0,
151600,1857.3,27.3,97.6,119.1,492.0,3215.0,13.0,
151700,1858.8,91.1,49.4,99.6,492.0,3215.0,13.0,
151900,1851.3,153.8,98.2,99.6,492.0,3215.0,13.0,
152000,1861.2,113.5,121.1,97.7,492.0,3215.0,13.0,
152100,1873.6,194.1,143.4,99.6,492.0,3215.0,13.0,
152200,1891.9,196.8,172.3,128.9,492.0,3215.0,13.0,
152300,1876.8,87.9,192.4,128.9,492.0,3215.0,13.0,
152400,1861.0,34.7,198.4,160.2,492.0,3215.0,13.0,
152500,1859.2,18.6,198.6,160.2,492.0,3215.0,13.0,
152600,1860.2,13.2,198.6,150.4,492.0,3215.0,13.0,
152700,1857.1,12.6,198.4,132.8,492.0,3215.0,13.0,
152900,1859.2,14.8,173.8,119.1,492.0,3215.0,13.0,
153000,1859.5,14.4,158.7,119.1,492.0,3215.0,13.0,
153100,1860.6,14.6,138.9,121.1,492.0,3215.0,13.0,
153200,1860.2,15.5,100.8,121.1,492.0,3215.0,13.0,
153300,1859.1,58.8,53.2,119.1,492.0,3215.0,13.0,
153400,1841.4,124.6,58.4,119.1,492.0,3215.0,13.0,
153500,1856.7,173.2,86.4,109.4,492.0,3215.0,13.0,
153600,1860.8,166.5,112.0,97.7,492.0,3215.0,13.0,
153700,1873.5,169.3,132.9,97.7,492.0,3215.0,13.0,
153900,1875.3,109.9,181.5,128.9,492.0,3215.0,13.0,
154000,1869.2,28.6,190.4,128.9,492.0,3215.0,13.0,
154100,1854.9,12.9,190.5,130.9,492.0,3215.0,13.0,
154200,1857.0,12.8,190.5,152.3,492.0,3215.0,13.0,
154300,1860.8,12.7,190.5,134.8,492.0,3215.0,13.0,
154400,1860.4,12.8,182.6,121.1,492.0,3215.0,13.0,
154500,1857.3,13.5,170.8,119.1,492.0,3215.0,13.0,
154600,1858.6,15.2,155.2,121.1,492.0,3215.0,13.0,
154700,1861.0,14.3,137.7,119.1,492.0,3215.0,13.0,
154900,1860.8,99.9,61.2,119.1,492.0,3215.0,13.0,
155000,1852.4,145.6,51.8,97.7,492.0,3215.0,13.0,
155100,1845.5,119.8,87.0,121.1,492.0,3215.0,13.0,
155200,1846.8,155.7,110.2,99.6,492.0,3215.0,13.0,
155300,1888.0,219.3,136.4,97.7,492.0,3215.0,13.0,
155400,1876.1,167.8,162.0,107.4,492.0,3215.0,13.0,
155500,1883.5,127.2,182.9,128.9,492.0,3215.0,13.0,
155600,1871.5,20.0,195.3,130.9,492.0,3215.0,13.0,
155700,1856.4,16.6,195.3,160.2,492.0,3215.0,13.0,
155900,1859.3,15.3,195.1,158.2,492.0,3215.0,13.0,
156000,1859.1,13.6,189.2,130.9,492.0,3215.0,13.0,
156100,1861.2,15.0,175.7,119.1,492.0,3215.0,13.0,
156200,1858.6,17.0,162.2,119.1,492.0,3215.0,13.0,
156300,1860.0,16.9,141.0,121.1,492.0,3215.0,13.0,
156400,1857.8,16.5,110.6,119.1,492.0,3215.0,13.0,
156500,1861.3,45.8,71.2,85.9,492.0,3215.0,13.0,
156600,1850.7,152.5,43.2,91.8,492.0,3215.0,13.0,
156700,1855.3,170.3,77.7,97.7,492.0,3215.0,13.0,
156900,1876.1,162.6,131.5,97.7,492.0,3215.0,13.0,
157000,1882.8,149.6,159.2,128.9,492.0,3215.0,13.0,
157100,1872.6,166.8,182.0,128.9,492.0,3215.0,13.0,
157200,1852.4,22.3,193.9,160.2,492.0,3215.0,13.0,
157300,1856.7,16.3,193.8,130.9,492.0,3215.0,13.0,
157400,1859.7,11.9,193.8,130.9,492.0,3215.0,13.0,
157500,1857.9,12.5,193.7,130.9,492.0,3215.0,13.0,
157600,1861.1,14.4,189.9,128.9,492.0,3215.0,13.0,
157700,1859.3,13.7,178.5,119.1,492.0,3215.0,13.0,
157900,1859.2,22.8,143.7,91.8,492.0,3215.0,13.0,
158000,1859.6,22.1,112.4,119.1,492.0,3215.0,13.0,
158100,1858.2,52.1,70.1,85.9,492.0,3215.0,13.0,
158200,1857.2,107.3,36.9,82.0,492.0,3215.0,13.0,
158300,1867.9,184.6,65.3,93.8,492.0,3215.0,13.0,
158400,1882.8,202.9,106.4,97.7,492.0,3215.0,13.0,
158500,1886.3,221.2,142.7,119.1,492.0,3215.0,13.0,
158600,1875.0,160.1,169.6,128.9,492.0,3215.0,13.0,
158700,1859.0,122.5,188.3,130.9,492.0,3215.0,13.0,
158900,1859.1,16.2,206.9,130.9,492.0,3215.0,13.0,
159000,1858.1,14.5,206.8,128.9,492.0,3215.0,13.0,
159100,1857.6,11.3,206.7,128.9,492.0,3215.0,13.0,
159200,1859.4,12.9,204.4,127.0,492.0,3215.0,13.0,
159300,1858.4,13.0,197.2,119.1,492.0,3215.0,13.0,
159400,1859.3,13.0,178.4,119.1,492.0,3215.0,13.0,
159500,1857.8,17.4,151.0,119.1,492.0,3215.0,13.0,
159600,1858.4,18.3,120.0,119.1,492.0,3215.0,13.0,
159700,1859.8,16.4,88.0,113.3,492.0,3215.0,13.0,
159900,1857.4,148.0,47.8,84.0,492.0,3215.0,13.0,
160000,1877.0,155.7,88.4,97.7,492.0,3215.0,13.0,
160100,1890.2,176.3,123.2,127.0,492.0,3215.0,13.0,
160200,1888.2,207.0,155.4,128.9,492.0,3215.0,13.0,
160300,1860.0,188.2,178.9,130.9,492.0,3215.0,13.0,
160400,1849.9,48.1,199.0,130.9,492.0,3215.0,13.0,
160500,1864.2,16.7,199.4,128.9,492.0,3215.0,13.0,
160600,1858.4,13.9,199.3,128.9,492.0,3215.0,13.0,
160700,1857.3,11.7,199.3,128.9,492.0,3215.0,13.0,
160900,1859.1,12.9,194.4,121.1,492.0,3215.0,13.0,
161000,1860.5,12.4,179.6,121.1,492.0,3215.0,13.0,
161100,1861.1,13.6,157.7,119.1,492.0,3215.0,13.0,
161200,1860.1,13.7,126.1,119.1,492.0,3215.0,13.0,
161300,1862.8,12.2,89.8,119.1,492.0,3215.0,13.0,
161400,1858.9,67.2,21.7,121.1,492.0,3215.0,13.0,
161500,1853.9,132.9,45.0,121.1,492.0,3215.0,13.0,
161600,1874.7,111.8,73.3,121.1,492.0,3215.0,13.0,
161700,1892.3,118.3,94.1,127.0,492.0,3215.0,13.0,
161900,1863.2,195.3,134.1,224.6,492.0,3215.0,13.0,
162000,1885.3,78.8,171.6,195.3,492.0,3215.0,13.0,
162100,1840.5,25.6,176.5,95.7,492.0,3215.0,13.0,
162200,1855.5,13.1,176.6,95.7,492.0,3215.0,13.0,
162300,1856.5,13.8,176.6,93.8,492.0,3215.0,13.0,
162400,1856.5,12.9,176.6,87.9,492.0,3215.0,13.0,
162500,1857.9,12.3,171.7,68.4,492.0,3215.0,13.0,
162600,1859.3,12.4,161.6,119.1,492.0,3215.0,13.0,
162700,1860.0,12.5,150.4,119.1,492.0,3215.0,13.0,
162900,1859.9,21.2,116.4,119.1,492.0,3215.0,13.0,
163000,1859.4,57.5,46.2,78.1,492.0,3215.0,13.0,
163100,1864.4,70.8,37.5,78.1,492.0,3215.0,13.0,
163200,1890.0,165.4,58.1,125.0,492.0,3215.0,13.0,
163300,1877.2,198.7,96.3,191.4,492.0,3215.0,13.0,
163400,1886.5,256.7,125.3,193.4,492.0,3215.0,13.0,
163500,1850.0,240.8,159.4,128.9,492.0,3215.0,13.0,
163600,1858.0,86.8,188.1,95.7,492.0,3215.0,13.0,
163700,1861.2,19.0,194.4,66.4,492.0,3215.0,13.0,
163900,1854.2,13.2,194.3,68.4,492.0,3215.0,13.0,
164000,1858.0,12.8,194.3,74.2,492.0,3215.0,13.0,
164100,1860.5,14.0,191.7,105.5,492.0,3215.0,13.0,
164200,1859.2,14.6,186.4,121.1,492.0,3215.0,13.0,
164300,1857.3,15.4,169.8,121.1,492.0,3215.0,13.0,
164400,1860.3,22.9,149.7,134.8,492.0,3215.0,13.0,
164500,1858.5,16.5,112.8,119.1,492.0,3215.0,13.0,
164600,1860.1,54.7,52.9,85.9,492.0,3215.0,13.0,
164700,1862.3,86.9,33.1,87.9,492.0,3215.0,13.0,
164900,1875.9,157.9,96.7,160.2,492.0,3215.0,13.0,
165000,1880.9,166.7,123.4,158.2,492.0,3215.0,13.0,
165100,1870.0,174.1,149.6,128.9,492.0,3215.0,13.0,
165200,1858.2,98.4,169.4,128.9,492.0,3215.0,13.0,
165300,1853.4,41.5,175.4,97.7,492.0,3215.0,13.0,
165400,1857.3,14.1,176.1,97.7,492.0,3215.0,13.0,
165500,1857.0,15.4,176.0,97.7,492.0,3215.0,13.0,
165600,1858.3,12.5,176.0,93.8,492.0,3215.0,13.0,
165700,1858.2,13.1,174.0,76.2,492.0,3215.0,13.0,
165900,1860.0,11.8,148.3,119.1,492.0,3215.0,13.0,
166000,1860.0,17.1,127.0,119.1,492.0,3215.0,13.0,
166100,1861.5,13.7,94.8,119.1,492.0,3215.0,13.0,
166200,1861.5,44.4,51.8,121.1,492.0,3215.0,13.0,
166300,1858.7,84.2,38.2,119.1,492.0,3215.0,13.0,
166400,1852.1,173.7,62.7,121.1,492.0,3215.0,13.0,
166500,1892.6,226.9,109.1,99.6,492.0,3215.0,13.0,
166600,1873.4,176.6,140.5,97.7,492.0,3215.0,13.0,
166700,1883.4,160.6,166.5,128.9,492.0,3215.0,13.0,
166900,1853.5,49.6,197.8,130.9,492.0,3215.0,13.0,
167000,1859.2,17.1,198.3,128.9,492.0,3215.0,13.0,
167100,1859.8,13.5,198.3,128.9,492.0,3215.0,13.0,
167200,1857.1,15.4,198.3,121.1,492.0,3215.0,13.0,
167300,1860.4,12.9,196.1,87.9,492.0,3215.0,13.0,
167400,1861.3,11.7,189.1,119.1,492.0,3215.0,13.0,
167500,1861.4,11.6,166.6,119.1,492.0,3215.0,13.0,
167600,1858.9,14.1,141.1,119.1,492.0,3215.0,13.0,
167700,1859.3,15.5,109.2,121.1,492.0,3215.0,13.0,
167900,1859.0,158.3,48.8,121.1,492.0,3215.0,13.0,
168000,1846.4,159.6,90.1,123.0,492.0,3215.0,13.0,
168100,1859.0,137.8,116.2,97.7,492.0,3215.0,13.0,
168200,1855.2,192.4,141.1,97.7,985.0,2819.0,30.0,
168300,1884.5,224.9,168.1,99.6,985.0,2819.0,30.0,
168400,1877.2,179.1,190.7,128.9,985.0,2819.0,30.0,
168500,1881.5,34.8,204.9,128.9,985.0,2819.0,30.0,
168600,1857.9,19.8,205.1,130.9,985.0,2819.0,30.0,
168700,1860.1,15.5,205.1,156.3,985.0,2819.0,30.0,
168900,1861.0,14.5,200.6,130.9,985.0,2819.0,30.0,
169000,1859.8,14.0,185.2,119.1,985.0,2819.0,30.0,
169100,1861.2,13.6,170.0,119.1,985.0,2819.0,30.0,
169200,1858.3,13.5,149.9,121.1,985.0,2819.0,30.0,
169300,1860.3,13.6,118.8,121.1,985.0,2819.0,30.0,
169400,1863.2,16.6,77.7,121.1,985.0,2819.0,30.0,
169500,1844.2,138.0,50.0,121.1,985.0,2819.0,30.0,
169600,1860.1,222.7,95.0,128.9,1244.0,3634.0,7.0,
169700,1839.3,180.5,132.9,125.0,1244.0,3634.0,7.0,
169900,1852.6,175.7,180.0,127.0,1244.0,3634.0,7.0,
170000,1864.3,184.4,201.8,128.9,1086.0,3933.0,30.0,
170100,1878.0,43.8,217.1,128.9,1086.0,3933.0,30.0,
170200,1863.2,32.4,217.4,127.0,1086.0,3933.0,30.0,
170300,1855.6,14.6,217.8,128.9,1086.0,3933.0,30.0,
170400,1859.4,12.8,217.8,128.9,1086.0,3933.0,30.0,
170500,1859.5,13.9,212.9,93.8,1086.0,3933.0,30.0,
170600,1859.4,12.8,196.8,72.3,1086.0,3933.0,30.0,
170700,1862.7,15.2,173.5,121.1,1086.0,3933.0,30.0,
170900,1858.4,14.2,123.9,121.1,1086.0,3933.0,30.0,
171000,1862.4,13.5,83.9,121.1,1086.0,3933.0,30.0,
171100,1860.1,100.2,39.7,119.1,1086.0,3933.0,30.0,
171200,1846.2,119.3,74.8,128.9,1086.0,3933.0,30.0,
171300,1835.7,176.2,116.7,127.0,1191.0,4330.0,6.0,
171400,1857.6,221.4,155.3,127.0,1545.0,4930.0,6.0,
171500,1845.7,217.9,180.6,128.9,1344.0,4283.0,6.0,
171600,1845.2,148.3,205.2,128.9,1294.0,4318.0,30.0,
171700,1858.6,40.0,221.0,128.9,1294.0,4318.0,30.0,
171900,1859.0,15.1,221.2,127.0,1294.0,4318.0,30.0,
172000,1858.7,12.9,221.2,127.0,1294.0,4318.0,30.0,
172100,1858.0,15.9,219.0,125.0,1294.0,4318.0,30.0,
172200,1862.9,14.2,209.3,119.1,1294.0,4318.0,30.0,
172300,1860.1,13.7,188.7,121.1,1294.0,4318.0,30.0,
172400,1858.8,14.3,158.5,121.1,1294.0,4318.0,30.0,
172500,1859.7,14.9,128.8,121.1,1294.0,4318.0,30.0,
172600,1859.8,17.9,84.5,121.1,1294.0,4318.0,30.0,
172700,1856.6,154.5,35.5,121.1,1294.0,4318.0,30.0,
172900,1845.5,195.4,124.9,99.6,1294.0,4318.0,30.0,
173000,1851.1,152.7,154.9,99.6,1294.0,4318.0,30.0,
173100,1832.8,202.5,183.2,128.9,1381.0,4069.0,6.0,
173200,1853.7,227.1,207.2,128.9,1381.0,4069.0,6.0,
173300,1865.9,49.3,224.8,128.9,1381.0,4069.0,6.0,
173400,1856.2,22.7,225.4,128.9,1381.0,4069.0,6.0,
173500,1858.0,15.4,225.5,128.9,1381.0,4069.0,6.0,
173600,1860.2,13.9,225.5,127.0,1381.0,4069.0,6.0,
173700,1857.1,12.5,223.5,115.2,1381.0,4069.0,6.0,
173900,1859.2,13.9,188.4,121.1,1381.0,4069.0,6.0,
174000,1859.1,14.5,164.7,119.1,1381.0,4069.0,6.0,
174100,1861.5,17.5,132.5,121.1,1381.0,4069.0,6.0,
174200,1858.9,15.6,90.8,119.1,1381.0,4069.0,6.0,
174300,1861.2,114.7,24.8,99.6,1381.0,4069.0,6.0,
174400,1837.6,182.7,84.4,101.6,1340.0,4375.0,7.0,
174500,1859.6,215.0,129.3,101.6,1260.0,3904.0,7.0,
174600,1837.7,196.5,160.4,99.6,1253.0,3795.0,6.0,
174700,1835.8,176.2,188.5,127.0,1253.0,3795.0,6.0,
174900,1847.9,52.7,224.1,128.9,1253.0,3795.0,6.0,
175000,1866.9,16.8,227.9,128.9,1253.0,3795.0,6.0,
175100,1858.3,13.8,228.0,128.9,1253.0,3795.0,6.0,
175200,1857.5,14.7,227.9,128.9,1253.0,3795.0,6.0,
175300,1861.1,14.4,227.9,130.9,1253.0,3795.0,6.0,
175400,1859.8,12.6,212.6,128.9,1253.0,3795.0,6.0,
175500,1861.3,12.5,188.5,121.1,1253.0,3795.0,6.0,
175600,1862.0,14.6,162.9,121.1,1253.0,3795.0,6.0,
175700,1858.4,16.7,129.4,121.1,1253.0,3795.0,6.0,
175900,1857.7,154.2,45.7,121.1,1253.0,3795.0,6.0,
176000,1849.1,158.6,77.1,109.4,1253.0,3795.0,6.0,
176100,1843.8,162.9,118.6,99.6,1253.0,3795.0,6.0,
176200,1833.7,166.3,152.5,99.6,1253.0,3795.0,6.0,
176300,1858.0,242.3,178.9,128.9,1253.0,3795.0,6.0,
176400,1853.0,226.0,202.6,128.9,1253.0,3795.0,6.0,
176500,1852.4,91.1,223.2,128.9,1253.0,3795.0,6.0,
176600,1865.4,27.1,228.3,128.9,1253.0,3795.0,6.0,
176700,1857.9,17.1,228.4,127.0,1253.0,3795.0,6.0,
176900,1857.5,12.9,228.4,125.0,1253.0,3795.0,6.0,
177000,1857.8,12.5,215.8,74.2,1253.0,3795.0,6.0,
177100,1858.0,16.6,196.0,117.2,1253.0,3795.0,6.0,
177200,1860.1,18.7,171.1,119.1,1253.0,3795.0,6.0,
177300,1861.0,13.4,143.3,119.1,1253.0,3795.0,6.0,
177400,1859.3,20.2,107.2,105.5,1253.0,3795.0,6.0,
177500,1859.8,103.9,52.3,115.2,771.0,3090.0,7.0,
177600,1847.8,185.9,72.5,117.2,1090.0,3645.0,7.0,
177700,1848.7,213.6,116.3,103.5,1171.0,3663.0,7.0,
177900,1844.2,175.1,179.1,125.0,1171.0,3663.0,7.0,
178000,1839.7,162.6,202.2,127.0,1171.0,3663.0,7.0,
178100,1878.9,111.8,222.5,97.7,1171.0,3663.0,7.0,
178200,1856.1,20.0,229.0,97.7,1171.0,3663.0,7.0,
178300,1859.2,14.2,229.0,97.7,1171.0,3663.0,7.0,
178400,1857.7,15.2,229.0,99.6,1171.0,3663.0,7.0,
178500,1861.0,13.5,228.9,125.0,1171.0,3663.0,7.0,
178600,1861.4,12.5,218.2,119.1,1171.0,3663.0,7.0,
178700,1862.4,12.7,198.2,119.1,1171.0,3663.0,7.0,
178900,1861.2,15.7,143.9,121.1,1171.0,3663.0,7.0,
179000,1861.2,15.2,109.1,121.1,1171.0,3663.0,7.0,
179100,1861.3,133.9,57.4,119.1,1171.0,3663.0,7.0,
179200,1846.2,144.6,76.4,101.6,1222.0,3937.0,7.0,
179300,1850.9,172.9,118.1,97.7,1296.0,4301.0,7.0,
179400,1835.8,221.4,151.5,97.7,1296.0,4301.0,7.0,
179500,1847.8,219.7,177.9,97.7,1296.0,4301.0,7.0,
179600,1865.3,192.7,197.2,97.7,1296.0,4301.0,7.0,
179700,1870.9,150.7,216.8,97.7,1254.0,4000.0,30.0,
179900,1857.7,17.0,230.2,125.0,1254.0,4000.0,30.0,
180000,1862.0,13.8,230.1,125.0,1254.0,4000.0,30.0,
180100,1858.1,15.8,230.1,95.7,1254.0,4000.0,30.0,
180200,1860.8,13.1,217.9,60.5,1254.0,4000.0,30.0,
180300,1861.2,15.3,198.3,119.1,1254.0,4000.0,30.0,
180400,1859.7,12.1,174.2,121.1,1254.0,4000.0,30.0,
180500,1860.3,14.5,147.0,121.1,1254.0,4000.0,30.0,
180600,1859.3,16.0,120.0,119.1,1254.0,4000.0,30.0,
180700,1859.2,61.7,79.4,119.1,1254.0,4000.0,30.0,
180900,1831.9,184.4,111.8,99.6,1254.0,4000.0,30.0,
181000,1839.8,171.7,144.8,97.7,1309.0,4157.0,7.0,
181100,1837.2,221.4,174.1,97.7,1307.0,4566.0,7.0,
181200,1865.4,207.7,203.3,127.0,1307.0,4566.0,7.0,
181300,1856.6,178.3,220.2,128.9,1316.0,3352.0,30.0,
181400,1871.9,51.8,231.2,127.0,1316.0,3352.0,30.0,
181500,1861.5,21.3,231.7,127.0,1316.0,3352.0,30.0,
181600,1859.1,13.7,231.7,127.0,1316.0,3352.0,30.0,
181700,1857.0,13.5,231.7,125.0,1316.0,3352.0,30.0,
181900,1860.2,13.9,203.6,119.1,1316.0,3352.0,30.0,
182000,1861.9,13.1,181.6,121.1,1316.0,3352.0,30.0,
182100,1858.1,15.3,153.8,121.1,1316.0,3352.0,30.0,
182200,1860.4,13.3,112.5,121.1,1316.0,3352.0,30.0,
182300,1861.8,14.0,74.1,121.1,1316.0,3352.0,30.0,
182400,1854.1,152.0,52.6,119.1,1172.0,3676.0,8.0,
182500,1838.3,195.3,105.0,99.6,1095.0,4504.0,8.0,
182600,1860.4,209.1,141.3,97.7,975.0,4644.0,8.0,
182700,1840.3,213.0,164.5,97.7,975.0,4644.0,8.0,
182900,1857.9,150.2,202.6,95.7,975.0,4644.0,8.0,
183000,1882.9,31.3,216.6,66.4,975.0,4644.0,8.0,
183100,1858.3,14.3,216.7,66.4,975.0,4644.0,8.0,
183200,1859.3,14.1,216.7,89.8,975.0,4644.0,8.0,
183300,1856.1,14.1,216.6,93.8,975.0,4644.0,8.0,
183400,1858.2,14.7,211.5,93.8,975.0,4644.0,8.0,
183500,1860.4,14.9,190.4,119.1,975.0,4644.0,8.0,
183600,1862.0,12.1,165.1,119.1,975.0,4644.0,8.0,
183700,1859.5,13.5,142.1,119.1,975.0,4644.0,8.0,
183900,1856.3,16.1,78.8,121.1,975.0,4644.0,8.0,
184000,1858.7,206.4,52.0,119.1,924.0,4100.0,9.0,
184100,1835.7,218.1,111.1,97.7,1250.0,5646.0,8.0,
184200,1843.8,203.9,154.4,97.7,1295.0,4935.0,7.0,
184300,1842.4,260.8,188.8,95.7,1051.0,5634.0,30.0,
184400,1880.2,228.2,218.2,95.7,1051.0,5634.0,30.0,
184500,1854.0,229.9,239.9,66.4,1051.0,5634.0,30.0,
184600,1896.6,67.7,263.5,64.5,1051.0,5634.0,30.0,
184700,1863.4,20.3,264.0,66.4,1051.0,5634.0,30.0,
184900,1859.5,14.8,263.9,93.8,1051.0,5634.0,30.0,
185000,1858.8,14.8,259.4,78.1,1051.0,5634.0,30.0,
185100,1862.9,14.5,240.1,99.6,1051.0,5634.0,30.0,
185200,1859.0,14.3,214.8,119.1,1051.0,5634.0,30.0,
185300,1857.2,14.1,185.3,119.1,1051.0,5634.0,30.0,
185400,1859.2,15.0,149.6,121.1,1051.0,5634.0,30.0,
185500,1857.2,12.2,111.4,119.1,1051.0,5634.0,30.0,
185600,1850.0,194.5,42.8,121.1,989.0,4124.0,8.0,
185700,1864.9,233.1,114.8,97.7,1390.0,5055.0,7.0,
185900,1849.5,202.4,178.6,95.7,1456.0,5839.0,30.0,
186000,1863.2,157.5,202.1,97.7,1456.0,5839.0,30.0,
186100,1879.1,237.6,224.6,97.7,1278.0,3496.0,30.0,
186200,1903.7,104.8,247.7,97.7,1485.0,4487.0,24.0,
186300,1845.3,99.5,250.8,127.0,1485.0,4487.0,24.0,
186400,1863.8,45.0,254.1,127.0,1485.0,4487.0,24.0,
186500,1864.3,17.6,254.7,95.7,1485.0,4487.0,24.0,
186600,1857.4,14.9,252.1,58.6,1485.0,4487.0,24.0,
186700,1858.8,17.9,228.0,54.7,1485.0,4487.0,24.0,
186900,1860.6,14.6,182.4,119.1,1485.0,4487.0,24.0,
187000,1859.4,16.6,155.9,121.1,1485.0,4487.0,24.0,
187100,1859.4,20.2,121.4,121.1,1485.0,4487.0,24.0,
187200,1858.8,137.2,61.8,119.1,784.0,3290.0,7.0,
187300,1842.3,133.2,98.2,101.6,1226.0,3872.0,7.0,
187400,1835.5,191.5,128.8,99.6,1226.0,3872.0,7.0,
187500,1853.0,205.3,161.4,99.6,1226.0,3872.0,7.0,
187600,1861.9,198.5,182.8,127.0,1226.0,3872.0,7.0,
187700,1865.8,152.5,204.9,128.9,1110.0,3883.0,30.0,
187900,1854.1,25.5,231.4,127.0,1110.0,3883.0,30.0,
188000,1859.7,15.6,231.5,128.9,1110.0,3883.0,30.0,
188100,1856.9,14.6,231.5,128.9,1110.0,3883.0,30.0,
188200,1857.9,13.2,231.4,128.9,1110.0,3883.0,30.0,
188300,1860.0,14.3,215.0,119.1,1110.0,3883.0,30.0,
188400,1860.7,19.5,194.0,121.1,1110.0,3883.0,30.0,
188500,1859.7,12.1,167.0,119.1,1110.0,3883.0,30.0,
188600,1860.3,15.6,143.3,82.0,1110.0,3883.0,30.0,
188700,1861.3,18.2,109.3,78.1,1110.0,3883.0,30.0,
188900,1846.2,178.7,60.6,121.1,1110.0,3883.0,30.0,
189000,1844.3,192.7,105.8,128.9,1180.0,3735.0,7.0,
189100,1852.0,203.8,138.6,127.0,1180.0,3735.0,7.0,
189200,1851.2,187.5,173.9,99.6,996.0,3136.0,30.0,
189300,1886.0,220.2,198.0,97.7,996.0,3136.0,30.0,
189400,1879.0,105.8,218.4,97.7,996.0,3136.0,30.0,
189500,1869.5,24.3,226.3,97.7,996.0,3136.0,30.0,
189600,1861.0,13.0,226.4,128.9,996.0,3136.0,30.0,
189700,1859.0,13.7,226.3,128.9,996.0,3136.0,30.0,
189900,1859.4,13.7,218.9,119.1,996.0,3136.0,30.0,
190000,1860.4,15.4,200.9,119.1,996.0,3136.0,30.0,
190100,1859.9,25.0,179.9,119.1,996.0,3136.0,30.0,
190200,1860.6,20.7,146.2,101.6,996.0,3136.0,30.0,
190300,1861.2,21.3,111.8,74.2,996.0,3136.0,30.0,
190400,1860.6,102.4,63.4,72.3,996.0,3136.0,30.0,
190500,1837.2,178.8,70.6,91.8,1277.0,4260.0,7.0,
190600,1860.4,249.3,125.5,97.7,1277.0,4260.0,7.0,
190700,1840.6,228.5,160.1,97.7,1277.0,4260.0,7.0,
190900,1866.2,189.1,202.8,97.7,1277.0,4260.0,7.0,
191000,1877.4,145.0,225.2,97.7,1277.0,4260.0,7.0,
191100,1882.6,36.0,237.1,97.7,1277.0,4260.0,7.0,
191200,1859.1,17.1,237.2,127.0,1277.0,4260.0,7.0,
191300,1857.7,16.0,237.1,128.9,1277.0,4260.0,7.0,
191400,1856.2,14.0,237.0,128.9,1277.0,4260.0,7.0,
191500,1858.3,14.2,227.3,115.2,1277.0,4260.0,7.0,
191600,1860.3,16.0,202.2,119.1,1277.0,4260.0,7.0,
191700,1861.3,12.8,176.1,121.1,1277.0,4260.0,7.0,
191900,1860.9,19.9,124.5,121.1,1277.0,4260.0,7.0,
192000,1860.1,91.1,77.2,121.1,1277.0,4260.0,7.0,
192100,1848.9,168.3,72.0,101.6,1220.0,4671.0,7.0,
192200,1845.0,159.2,119.8,99.6,1431.0,5563.0,7.0,
192300,1835.5,178.2,154.6,97.7,1473.0,4958.0,7.0,
192400,1865.1,206.3,181.3,97.7,1473.0,4958.0,7.0,
192500,1849.2,191.7,198.5,97.7,1473.0,4958.0,7.0,
192600,1868.2,169.4,215.5,97.7,1473.0,4958.0,7.0,
192700,1875.5,28.3,227.6,97.7,1473.0,4958.0,7.0,
192900,1859.2,14.8,227.8,97.7,1473.0,4958.0,7.0,
193000,1855.9,13.9,227.7,97.7,1473.0,4958.0,7.0,
193100,1859.5,13.7,217.0,103.5,1473.0,4958.0,7.0,
193200,1861.8,12.4,194.5,119.1,1473.0,4958.0,7.0,
193300,1861.4,13.7,168.2,119.1,1473.0,4958.0,7.0,
193400,1861.2,17.9,138.9,119.1,1473.0,4958.0,7.0,
193500,1862.8,13.2,113.1,119.1,1473.0,4958.0,7.0,
193600,1861.4,71.8,75.7,119.1,1473.0,4958.0,7.0,
193700,1857.2,206.9,67.7,119.1,1258.0,4285.0,7.0,
193900,1836.3,206.5,156.3,99.6,1370.0,4559.0,7.0,
194000,1858.4,174.6,186.2,97.7,1370.0,4559.0,7.0,
194100,1835.1,176.1,208.6,97.7,1370.0,4559.0,7.0,
194200,1891.8,224.2,231.4,97.7,1164.0,4333.0,30.0,
194300,1862.3,43.3,246.5,95.7,1164.0,4333.0,30.0,
194400,1860.4,15.3,246.7,95.7,1164.0,4333.0,30.0,
194500,1861.0,12.4,246.7,70.3,1164.0,4333.0,30.0,
194600,1856.2,12.9,246.7,72.3,1164.0,4333.0,30.0,
194700,1861.4,12.7,237.9,78.1,1164.0,4333.0,30.0,
194900,1858.0,12.8,191.6,121.1,1164.0,4333.0,30.0,
195000,1861.6,16.4,162.6,121.1,1164.0,4333.0,30.0,
195100,1860.4,20.2,132.8,121.1,1164.0,4333.0,30.0,
195200,1860.2,14.7,87.4,119.1,1164.0,4333.0,30.0,
195300,1851.9,165.3,60.4,95.7,1128.0,4549.0,8.0,
195400,1832.1,214.0,119.2,97.7,1441.0,5048.0,7.0,
195500,1869.2,297.0,176.4,97.7,1628.0,7006.0,7.0,
195600,1836.9,303.3,217.2,97.7,1634.0,5648.0,30.0,
195700,1833.4,252.5,249.9,95.7,1305.0,5147.0,30.0,
195900,1888.2,173.8,299.7,64.5,1320.0,5925.0,30.0,
196000,1859.0,29.8,303.8,64.5,1320.0,5925.0,30.0,
196100,1863.1,15.3,303.8,64.5,1320.0,5925.0,30.0,
196200,1859.4,14.3,303.7,64.5,1320.0,5925.0,30.0,
196300,1860.6,14.0,298.4,54.7,1320.0,5925.0,30.0,
196400,1862.3,14.6,280.0,60.5,1320.0,5925.0,30.0,
196500,1862.4,12.6,248.0,119.1,1320.0,5925.0,30.0,
196600,1861.3,13.3,213.1,121.1,1320.0,5925.0,30.0,
196700,1859.0,14.8,173.7,121.1,1320.0,5925.0,30.0,
196900,1868.1,237.6,69.2,119.1,865.0,4167.0,9.0,
197000,1825.5,256.1,112.1,95.7,1245.0,5587.0,8.0,
197100,1840.0,242.4,160.1,89.8,1499.0,7135.0,8.0,
197200,1840.2,234.9,205.1,66.4,1681.0,6690.0,8.0,
197300,1875.2,260.3,238.4,64.5,1681.0,6690.0,8.0,
197400,1856.5,321.5,263.0,64.5,1681.0,6690.0,8.0,
197500,1883.5,53.2,288.0,64.5,1681.0,6690.0,8.0,
197600,1867.8,14.0,288.1,64.5,1681.0,6690.0,8.0,
197700,1857.6,12.1,288.1,64.5,1681.0,6690.0,8.0,
197900,1859.0,14.1,284.5,66.4,1681.0,6690.0,8.0,
198000,1859.1,13.1,266.0,119.1,1681.0,6690.0,8.0,
198100,1858.8,13.0,240.1,121.1,1681.0,6690.0,8.0,
198200,1859.5,16.3,203.0,121.1,1681.0,6690.0,8.0,
198300,1861.7,13.0,162.7,121.1,1681.0,6690.0,8.0,
198400,1857.8,15.0,118.8,121.1,1681.0,6690.0,8.0,
198500,1861.3,106.2,18.4,121.1,1681.0,6690.0,8.0,
198600,1842.9,211.3,78.4,162.1,1034.0,4317.0,7.0,
198700,1848.0,188.6,124.0,127.0,1034.0,4317.0,7.0,
198900,1848.3,174.1,180.1,97.7,1034.0,4317.0,7.0,
199000,1845.7,179.9,202.2,97.7,1034.0,4317.0,7.0,
199100,1899.9,64.4,224.8,97.7,1034.0,4317.0,7.0,
199200,1848.4,15.7,226.0,95.7,1034.0,4317.0,7.0,
199300,1859.8,14.8,226.0,95.7,1034.0,4317.0,7.0,
199400,1858.8,15.1,226.0,93.8,1034.0,4317.0,7.0,
199500,1861.5,13.7,226.0,93.8,1034.0,4317.0,7.0,
199600,1860.6,11.9,212.6,121.1,1034.0,4317.0,7.0,
199700,1860.3,14.6,189.7,121.1,1034.0,4317.0,7.0,
199900,1861.8,20.3,137.9,107.4,1034.0,4317.0,7.0,
200000,1858.6,16.0,103.2,87.9,1034.0,4317.0,7.0,
200100,1858.3,167.7,31.6,87.9,989.0,4083.0,7.0,
200200,1840.4,216.4,94.5,97.7,1131.0,5242.0,7.0,
200300,1853.2,177.8,139.1,97.7,1266.0,5881.0,7.0,
200400,1843.1,259.7,173.9,97.7,1520.0,5739.0,7.0,
200500,1845.0,228.2,212.4,97.7,1396.0,5181.0,7.0,
200600,1840.5,210.5,233.2,97.7,1396.0,5181.0,7.0,
200700,1859.1,109.5,250.1,95.7,1396.0,5181.0,7.0,
200900,1861.5,11.8,255.2,95.7,1396.0,5181.0,7.0,
201000,1857.1,15.5,255.1,93.8,1396.0,5181.0,7.0,
201100,1858.6,14.1,255.0,82.0,1396.0,5181.0,7.0,
201200,1860.8,14.0,237.9,80.1,1396.0,5181.0,7.0,
201300,1858.9,13.1,214.9,119.1,1396.0,5181.0,7.0,
201400,1861.6,15.4,187.8,121.1,1396.0,5181.0,7.0,
201500,1857.6,13.2,142.8,121.1,1396.0,5181.0,7.0,
201600,1862.3,15.8,105.6,119.1,1396.0,5181.0,7.0,
201700,1860.7,142.6,54.9,119.1,1396.0,5181.0,7.0,
201900,1837.5,229.6,126.1,97.7,1332.0,3969.0,7.0,
202000,1839.5,213.0,165.0,97.7,1206.0,4548.0,7.0,
202100,1834.6,197.1,198.1,97.7,1167.0,4521.0,7.0,
202200,1858.6,271.7,227.8,95.7,1362.0,6095.0,7.0,
202300,1840.9,138.5,256.2,95.7,1346.0,5543.0,30.0,
202400,1853.1,23.7,265.4,95.7,1346.0,5543.0,30.0,
202500,1858.1,16.6,265.4,68.4,1346.0,5543.0,30.0,
202600,1860.5,12.8,265.4,66.4,1346.0,5543.0,30.0,
202700,1857.6,14.8,265.3,66.4,1346.0,5543.0,30.0,
202900,1857.8,12.6,234.2,121.1,1346.0,5543.0,30.0,
203000,1861.1,14.4,208.6,121.1,1346.0,5543.0,30.0,
203100,1860.1,22.6,177.5,121.1,1346.0,5543.0,30.0,
203200,1860.8,16.2,137.4,119.1,1346.0,5543.0,30.0,
203300,1859.3,113.2,71.8,72.3,1346.0,5543.0,30.0,
203400,1850.2,169.9,69.6,70.3,1346.0,5543.0,30.0,
203500,1840.9,202.0,112.0,78.1,812.0,4354.0,8.0,
203600,1868.4,255.8,147.1,93.8,1087.0,5905.0,8.0,
203700,1835.1,251.6,178.7,95.7,888.0,5026.0,8.0,
203900,1837.9,151.9,232.1,66.4,1149.0,5105.0,8.0,
204000,1871.2,25.8,241.1,66.4,1149.0,5105.0,8.0,
204100,1859.7,12.0,241.2,66.4,1149.0,5105.0,8.0,
204200,1858.8,14.2,241.1,66.4,1149.0,5105.0,8.0,
204300,1859.1,13.4,241.0,66.4,1149.0,5105.0,8.0,
204400,1862.9,14.1,231.6,68.4,1149.0,5105.0,8.0,
204500,1860.0,11.0,214.2,119.1,1149.0,5105.0,8.0,
204600,1857.0,13.8,191.8,121.1,1149.0,5105.0,8.0,
204700,1859.5,13.1,162.8,121.1,1149.0,5105.0,8.0,
204900,1862.8,88.2,67.7,177.7,1149.0,5105.0,8.0,
205000,1849.5,210.0,65.8,121.1,1080.0,4373.0,8.0,
205100,1840.9,205.3,118.4,97.7,1487.0,6802.0,7.0,
205200,1843.1,281.5,161.3,95.7,1470.0,7242.0,7.0,
205300,1831.1,317.8,209.2,95.7,1503.0,7579.0,7.0,
205400,1862.4,337.4,251.4,66.4,1441.0,7765.0,7.0,
205500,1820.9,292.3,285.5,64.5,1668.0,7823.0,7.0,
205600,1872.4,28.0,301.5,64.5,1668.0,7823.0,7.0,
205700,1857.4,13.3,301.5,64.5,1668.0,7823.0,7.0,
205900,1857.3,13.9,301.4,64.5,1668.0,7823.0,7.0,
206000,1859.5,13.5,294.7,66.4,1668.0,7823.0,7.0,
206100,1860.7,13.2,277.8,119.1,1668.0,7823.0,7.0,
206200,1859.0,14.5,255.3,119.1,1668.0,7823.0,7.0,
206300,1858.1,12.7,217.7,121.1,1668.0,7823.0,7.0,
206400,1858.8,14.1,167.3,121.1,1668.0,7823.0,7.0,
206500,1860.0,18.7,98.2,119.1,1668.0,7823.0,7.0,
206600,1850.0,181.9,52.9,121.1,1668.0,7823.0,7.0,
206700,1874.3,245.7,115.0,97.7,1240.0,6775.0,7.0,
206900,1843.7,279.7,206.2,74.2,1524.0,6332.0,7.0,
207000,1845.3,311.9,251.9,64.5,1590.0,6380.0,7.0,
207100,1835.2,287.4,288.5,64.5,1564.0,7753.0,8.0,
207200,1861.4,59.6,308.7,64.5,1564.0,7753.0,8.0,
207300,1857.9,15.7,309.0,64.5,1564.0,7753.0,8.0,
207400,1858.2,12.1,309.0,64.5,1564.0,7753.0,8.0,
207500,1860.0,12.7,309.0,64.5,1564.0,7753.0,8.0,
207600,1857.7,13.7,304.9,64.5,1564.0,7753.0,8.0,
207700,1861.6,14.1,287.3,119.1,1564.0,7753.0,8.0,
207900,1859.5,13.5,230.8,121.1,1564.0,7753.0,8.0,
208000,1860.2,12.9,179.9,119.1,1564.0,7753.0,8.0,
208100,1860.4,13.2,112.1,119.1,1564.0,7753.0,8.0,
208200,1858.2,173.2,45.0,119.1,1564.0,7753.0,8.0,
208300,1851.6,175.0,103.6,95.7,1286.0,5550.0,7.0,
208400,1836.3,233.0,148.5,95.7,1425.0,5684.0,7.0,
208500,1871.9,252.9,189.2,95.7,1420.0,6555.0,7.0,
208600,1815.8,254.5,222.5,95.7,1296.0,5832.0,7.0,
208700,1842.3,277.8,249.3,95.7,1357.0,6459.0,7.0,
208900,1864.6,22.9,279.8,66.4,1357.0,6459.0,7.0,
209000,1860.9,13.5,279.9,66.4,1357.0,6459.0,7.0,
209100,1859.1,13.2,279.9,66.4,1357.0,6459.0,7.0,
209200,1859.1,14.7,277.1,66.4,1357.0,6459.0,7.0,
209300,1858.6,14.3,260.5,93.8,1357.0,6459.0,7.0,
209400,1861.3,12.8,237.8,119.1,1357.0,6459.0,7.0,
209500,1861.3,12.5,206.9,119.1,1357.0,6459.0,7.0,
209600,1859.3,15.4,170.6,119.1,1357.0,6459.0,7.0,
209700,1859.8,23.3,128.4,119.1,1357.0,6459.0,7.0,
209900,1849.4,234.3,105.2,97.7,1205.0,6114.0,7.0,
210000,1839.7,223.0,145.8,95.7,1396.0,5857.0,7.0,
210100,1847.6,224.9,184.6,95.7,839.0,4132.0,7.0,
210200,1828.9,236.7,219.0,95.7,1445.0,6675.0,8.0,
210300,1875.5,262.1,247.7,66.4,1308.0,6252.0,8.0,
210400,1824.4,69.5,268.4,64.5,1308.0,6252.0,8.0,
210500,1869.7,16.8,268.6,64.5,1308.0,6252.0,8.0,
210600,1860.6,13.5,268.6,66.4,1308.0,6252.0,8.0,
210700,1856.8,13.4,268.6,66.4,1308.0,6252.0,8.0,
210900,1860.2,11.9,247.9,119.1,1308.0,6252.0,8.0,
211000,1858.7,13.0,226.3,121.1,1308.0,6252.0,8.0,
211100,1858.0,15.2,195.9,123.0,1308.0,6252.0,8.0,
211200,1859.7,25.9,156.5,138.7,1308.0,6252.0,8.0,
211300,1862.3,34.1,105.7,121.1,1308.0,6252.0,8.0,
211400,1858.7,158.8,25.7,78.1,1308.0,6252.0,8.0,
211500,1840.9,170.3,99.7,95.7,1103.0,3855.0,7.0,
211600,1866.3,247.2,150.6,97.7,1246.0,6147.0,7.0,
211700,1831.7,331.2,193.4,97.7,1703.0,7633.0,7.0,
211900,1846.0,278.4,277.8,64.5,1737.0,8882.0,8.0,
212000,1838.0,93.2,305.7,64.5,1737.0,8882.0,8.0,
212100,1875.6,18.5,311.8,64.5,1737.0,8882.0,8.0,
212200,1858.3,13.6,311.8,64.5,1737.0,8882.0,8.0,
212300,1858.5,14.0,311.7,64.5,1737.0,8882.0,8.0,
212400,1858.2,12.0,311.4,62.5,1737.0,8882.0,8.0,
212500,1862.4,13.6,295.9,76.2,1737.0,8882.0,8.0,
212600,1858.9,13.6,273.5,136.7,1737.0,8882.0,8.0,
212700,1860.3,14.5,245.2,121.1,1737.0,8882.0,8.0,
212900,1858.9,20.6,142.7,121.1,1737.0,8882.0,8.0,
213000,1859.3,83.1,64.5,125.0,1737.0,8882.0,8.0,
213100,1854.8,158.6,59.6,121.1,960.0,3636.0,7.0,
213200,1845.3,169.9,102.0,119.1,918.0,4343.0,8.0,
213300,1832.7,187.6,143.3,97.7,953.0,5000.0,7.0,
213400,1866.4,230.0,174.1,95.7,940.0,4427.0,8.0,
213500,1829.4,237.9,198.8,95.7,980.0,4554.0,8.0,
213600,1838.8,102.2,221.4,95.7,980.0,4554.0,8.0,
213700,1861.7,31.5,227.7,66.4,980.0,4554.0,8.0,
213900,1858.8,13.7,227.9,64.5,980.0,4554.0,8.0,
214000,1856.8,12.9,227.7,64.5,980.0,4554.0,8.0,
214100,1857.4,15.1,220.6,74.2,980.0,4554.0,8.0,
214200,1862.6,14.3,204.5,121.1,980.0,4554.0,8.0,
214300,1861.9,13.1,178.0,121.1,980.0,4554.0,8.0,
214400,1861.3,12.6,148.1,119.1,980.0,4554.0,8.0,
214500,1860.8,14.0,112.7,119.1,980.0,4554.0,8.0,
214600,1862.8,77.6,56.7,119.1,980.0,4554.0,8.0,
214700,1858.7,187.4,60.4,123.0,980.0,4554.0,8.0,
214900,1838.1,173.2,146.4,95.7,898.0,4036.0,7.0,
215000,1845.9,188.2,171.1,95.7,928.0,4313.0,7.0,
215100,1832.7,200.0,196.5,95.7,1085.0,5698.0,7.0,
215200,1877.9,132.4,222.8,95.7,1085.0,5698.0,7.0,
215300,1843.5,20.2,231.2,95.7,1085.0,5698.0,7.0,
215400,1858.4,14.2,231.2,84.0,1085.0,5698.0,7.0,
215500,1860.3,14.2,231.2,66.4,1085.0,5698.0,7.0,
215600,1860.8,12.7,231.1,66.4,1085.0,5698.0,7.0,
215700,1860.9,14.9,224.0,78.1,1085.0,5698.0,7.0,
215900,1859.8,16.8,179.7,121.1,1085.0,5698.0,7.0,
216000,1858.5,34.1,156.4,121.1,1085.0,5698.0,7.0,
216100,1863.4,41.2,123.6,119.1,1085.0,5698.0,7.0,
216200,1860.7,179.7,66.4,60.5,1085.0,5698.0,7.0,
216300,1847.8,173.2,81.2,60.5,732.0,4235.0,8.0,
216400,1830.7,186.6,126.3,70.3,975.0,4805.0,8.0,
216500,1852.5,265.6,161.6,78.1,1070.0,5405.0,8.0,
216600,1856.5,328.2,198.7,85.9,1417.0,7069.0,8.0,
216700,1825.2,296.9,235.0,64.5,1417.0,7069.0,8.0,
216900,1864.8,56.1,278.3,64.5,1417.0,7069.0,8.0,
217000,1862.4,15.9,279.0,64.5,1417.0,7069.0,8.0,
217100,1858.3,14.1,278.8,64.5,1417.0,7069.0,8.0,
217200,1859.8,14.1,278.5,64.5,1417.0,7069.0,8.0,
217300,1861.0,12.4,267.5,62.5,1417.0,7069.0,8.0,
217400,1860.6,13.7,249.4,119.1,1417.0,7069.0,8.0,
217500,1863.5,15.3,228.1,119.1,1417.0,7069.0,8.0,
217600,1858.3,12.0,196.7,119.1,1417.0,7069.0,8.0,
217700,1860.3,12.0,151.4,121.1,1417.0,7069.0,8.0,
217900,1869.0,214.2,65.1,119.1,883.0,4486.0,9.0,
218000,1827.2,237.2,112.0,93.8,915.0,5159.0,8.0,
218100,1839.1,269.1,154.9,68.4,1108.0,5652.0,9.0,
218200,1834.7,260.0,192.9,64.5,1359.0,7900.0,10.0,
218300,1858.8,259.6,227.2,64.5,1359.0,7900.0,10.0,
218400,1858.7,282.0,249.5,64.5,1359.0,7900.0,10.0,
218500,1855.3,27.7,263.9,64.5,1359.0,7900.0,10.0,
218600,1859.3,14.4,263.9,64.5,1359.0,7900.0,10.0,
218700,1859.1,12.4,263.9,64.5,1359.0,7900.0,10.0,
218900,1858.5,14.6,257.1,64.5,1359.0,7900.0,10.0,
219000,1860.7,14.9,239.5,121.1,1359.0,7900.0,10.0,
219100,1860.6,14.1,214.3,121.1,1359.0,7900.0,10.0,
219200,1858.9,13.7,180.8,121.1,1359.0,7900.0,10.0,
219300,1859.2,14.1,135.2,119.1,1359.0,7900.0,10.0,
219400,1858.8,32.0,87.6,132.8,1359.0,7900.0,10.0,
219500,1860.8,148.7,37.4,138.7,1359.0,7900.0,10.0,
219600,1835.8,247.2,97.8,99.6,1034.0,4847.0,8.0,
219700,1858.7,215.6,141.0,95.7,937.0,5011.0,8.0,
219900,1848.9,204.6,187.8,66.4,937.0,5011.0,8.0,
220000,1845.8,163.6,208.9,64.5,937.0,5011.0,8.0,
220100,1871.1,45.3,222.5,64.5,937.0,5011.0,8.0,
220200,1859.8,16.0,222.7,64.5,937.0,5011.0,8.0,
220300,1861.8,15.3,222.8,64.5,937.0,5011.0,8.0,
220400,1859.7,13.6,222.7,64.5,937.0,5011.0,8.0,
220500,1858.6,13.9,220.2,64.5,937.0,5011.0,8.0,
220600,1861.1,13.3,200.9,121.1,937.0,5011.0,8.0,
220700,1860.9,14.5,173.2,121.1,937.0,5011.0,8.0,
220900,1858.6,23.7,121.0,121.1,937.0,5011.0,8.0,
221000,1862.7,28.7,79.9,119.1,937.0,5011.0,8.0,
221100,1856.0,174.6,50.4,76.2,937.0,5011.0,8.0,
221200,1845.9,173.5,92.9,95.7,846.0,4252.0,8.0,
221300,1843.8,207.5,121.9,95.7,763.0,4728.0,8.0,
221400,1838.4,237.3,154.3,95.7,904.0,5268.0,7.0,
221500,1862.6,199.4,179.6,85.9,904.0,5268.0,7.0,
221600,1836.5,178.6,196.1,64.5,904.0,5268.0,7.0,
221700,1873.1,50.6,210.3,64.5,904.0,5268.0,7.0,
221900,1860.8,12.1,210.6,64.5,904.0,5268.0,7.0,
222000,1857.8,15.1,210.3,64.5,904.0,5268.0,7.0,
222100,1860.0,12.4,205.5,64.5,904.0,5268.0,7.0,
222200,1859.2,13.3,189.7,117.2,904.0,5268.0,7.0,
222300,1860.9,16.7,172.6,121.1,904.0,5268.0,7.0,
222400,1861.4,14.9,144.4,169.9,904.0,5268.0,7.0,
222500,1863.6,13.4,111.3,121.1,904.0,5268.0,7.0,
222600,1860.3,14.3,78.7,119.1,904.0,5268.0,7.0,
222700,1854.6,111.8,36.2,121.1,904.0,5268.0,7.0,
222900,1829.3,204.5,124.3,97.7,804.0,4298.0,7.0,
223000,1841.9,165.1,153.1,95.7,804.0,4298.0,7.0,
223100,1846.9,184.1,177.4,95.7,804.0,4298.0,7.0,
223200,1852.9,200.2,199.0,95.7,804.0,4298.0,7.0,
223300,1872.3,111.8,214.1,84.0,804.0,4298.0,7.0,
223400,1849.9,23.1,217.2,66.4,804.0,4298.0,7.0,
223500,1861.8,14.2,217.2,64.5,804.0,4298.0,7.0,
223600,1858.6,12.9,217.2,62.5,804.0,4298.0,7.0,
223700,1859.0,13.7,215.1,52.7,804.0,4298.0,7.0,
223900,1858.8,13.6,179.0,119.1,804.0,4298.0,7.0,
224000,1862.3,15.2,155.0,121.1,804.0,4298.0,7.0,
224100,1859.9,13.5,126.4,119.1,804.0,4298.0,7.0,
224200,1860.3,14.7,88.8,121.1,804.0,4298.0,7.0,
224300,1860.0,101.4,40.7,121.1,804.0,4298.0,7.0,
224400,1853.7,183.5,70.4,130.9,984.0,3970.0,8.0,
224500,1835.8,183.2,117.6,97.7,1016.0,4369.0,7.0,
224600,1857.8,200.3,148.2,95.7,1016.0,4369.0,7.0,
224700,1833.0,181.6,170.1,95.7,1016.0,4369.0,7.0,
224900,1843.9,108.0,213.7,95.7,1016.0,4369.0,7.0,
225000,1874.8,20.2,220.7,64.5,1016.0,4369.0,7.0,
225100,1858.1,13.9,220.8,64.5,1016.0,4369.0,7.0,
225200,1858.5,11.7,220.7,64.5,1016.0,4369.0,7.0,
225300,1858.1,14.1,220.7,62.5,1016.0,4369.0,7.0,
225400,1858.9,13.4,209.9,70.3,1016.0,4369.0,7.0,
225500,1859.0,15.1,187.5,119.1,1016.0,4369.0,7.0,hard
225600,1861.7,13.9,164.4,119.1,1016.0,4369.0,7.0,
225700,1856.7,14.9,141.7,119.1,1016.0,4369.0,7.0,
225900,1861.1,132.0,58.2,121.1,1016.0,4369.0,7.0,
226000,1863.7,179.8,70.6,119.1,1016.0,4369.0,7.0,
226100,1857.5,156.6,105.9,97.7,1016.0,4369.0,7.0,
226200,1847.8,218.9,136.5,93.8,919.0,5915.0,7.0,
226300,1844.5,214.9,167.9,66.4,917.0,5652.0,8.0,
226400,1864.6,204.6,191.9,64.5,901.0,4613.0,8.0,
226500,1828.8,99.1,212.2,64.5,958.0,5151.0,8.0,
226600,1855.4,17.9,219.1,66.4,958.0,5151.0,8.0,
226700,1856.2,14.9,219.1,66.4,958.0,5151.0,8.0,
226900,1862.5,13.6,219.0,64.5,958.0,5151.0,8.0,
227000,1860.8,14.4,208.1,76.2,958.0,5151.0,8.0,
227100,1862.3,13.2,192.5,121.1,958.0,5151.0,8.0,
227200,1859.8,13.3,172.2,121.1,958.0,5151.0,8.0,
227300,1861.2,13.4,141.7,119.1,958.0,5151.0,8.0,
227400,1861.8,24.2,107.0,121.1,958.0,5151.0,8.0,
227500,1860.9,71.3,57.9,119.1,958.0,5151.0,8.0,
227600,1880.5,141.6,60.5,130.9,958.0,5151.0,8.0,
227700,1881.9,191.7,94.2,255.9,958.0,5151.0,8.0,
227900,1848.3,169.3,147.8,97.7,807.0,4707.0,8.0,
228000,1855.9,209.5,172.9,95.7,896.0,5063.0,7.0,
228100,1834.6,136.6,201.4,95.7,692.0,3944.0,8.0,
228200,1860.7,22.2,209.6,66.4,692.0,3944.0,8.0,
228300,1858.9,16.0,209.6,66.4,692.0,3944.0,8.0,
228400,1860.2,13.7,209.7,66.4,692.0,3944.0,8.0,
228500,1856.5,18.3,209.4,66.4,692.0,3944.0,8.0,
228600,1861.6,15.7,201.5,87.9,692.0,3944.0,8.0,
228700,1862.2,14.4,188.1,119.1,692.0,3944.0,8.0,
228900,1857.4,21.1,149.7,101.6,692.0,3944.0,8.0,
229000,1853.4,20.0,120.1,113.3,692.0,3944.0,8.0,
229100,1857.9,64.1,61.6,115.2,692.0,3944.0,8.0,
229200,1879.9,135.3,47.7,109.4,692.0,3944.0,8.0,
229300,1881.5,149.0,87.9,252.0,692.0,3944.0,8.0,
229400,1867.6,126.7,119.0,197.3,692.0,3944.0,8.0,
229500,1869.4,94.4,132.7,125.0,296.0,1385.0,6.0,
229600,1844.1,126.7,146.2,97.7,443.0,2033.0,7.0,
229700,1847.0,162.3,164.2,128.9,443.0,2033.0,7.0,
229900,1858.6,16.5,179.0,95.7,443.0,2033.0,7.0,
230000,1861.8,20.9,179.0,85.9,443.0,2033.0,7.0,
230100,1859.9,19.3,179.1,70.3,443.0,2033.0,7.0,
230200,1860.2,36.3,173.9,70.3,443.0,2033.0,7.0,
230300,1856.5,25.8,158.1,72.3,443.0,2033.0,7.0,
230400,1861.6,23.4,136.5,84.0,443.0,2033.0,7.0,
230500,1859.6,30.8,123.7,82.0,443.0,2033.0,7.0,
230600,1865.2,28.4,107.7,72.3,443.0,2033.0,7.0,
230700,1858.9,68.3,78.2,70.3,443.0,2033.0,7.0,
230900,1873.3,112.4,65.6,76.2,443.0,2033.0,7.0,
231000,1881.2,114.5,88.3,105.5,443.0,2033.0,7.0,
231100,1876.6,113.1,104.2,195.3,443.0,2033.0,7.0,
231200,1866.7,95.8,118.1,224.6,443.0,2033.0,7.0,
231300,1853.5,99.8,128.9,195.3,443.0,2033.0,7.0,
231400,1853.2,21.5,136.4,193.4,443.0,2033.0,7.0,
231500,1858.2,14.2,136.0,132.8,443.0,2033.0,7.0,
231600,1857.5,12.3,135.7,128.9,443.0,2033.0,7.0,
231700,1858.1,14.4,135.4,127.0,443.0,2033.0,7.0,
231900,1859.5,17.2,122.6,121.1,443.0,2033.0,7.0,
232000,1857.1,17.3,107.5,121.1,443.0,2033.0,7.0,
232100,1857.9,14.6,91.9,119.1,443.0,2033.0,7.0,
232200,1858.6,15.3,73.1,93.8,443.0,2033.0,7.0,
232300,1858.5,16.1,49.7,99.6,443.0,2033.0,7.0,
232400,1858.0,53.2,27.8,113.3,443.0,2033.0,7.0,
232500,1859.8,95.2,44.7,107.4,443.0,2033.0,7.0,
232600,1885.5,138.9,66.2,101.6,443.0,2033.0,7.0,
232700,1883.8,164.1,89.8,128.9,443.0,2033.0,7.0,
232900,1883.2,118.3,128.7,228.5,443.0,2033.0,7.0,
233000,1853.3,37.7,138.8,195.3,443.0,2033.0,7.0,
233100,1856.4,15.4,139.2,128.9,443.0,2033.0,7.0,
233200,1860.0,16.1,139.2,105.5,443.0,2033.0,7.0,
233300,1857.4,17.1,139.1,105.5,443.0,2033.0,7.0,
233400,1859.8,17.0,137.9,101.6,443.0,2033.0,7.0,
233500,1859.3,16.6,133.4,119.1,443.0,2033.0,7.0,
233600,1857.6,15.1,124.3,111.3,443.0,2033.0,7.0,
233700,1859.8,15.3,108.4,105.5,443.0,2033.0,7.0,
233900,1858.3,14.1,57.0,103.5,443.0,2033.0,7.0,
234000,1860.8,79.3,34.8,115.2,443.0,2033.0,7.0,
234100,1850.5,78.4,52.5,101.6,443.0,2033.0,7.0,
234200,1869.0,94.4,61.5,97.7,443.0,2033.0,7.0,
234300,1872.3,139.1,80.1,97.7,443.0,2033.0,7.0,
234400,1888.0,163.2,102.6,97.7,443.0,2033.0,7.0,
234500,1882.4,108.1,120.5,193.4,443.0,2033.0,7.0,
234600,1863.4,76.5,133.1,224.6,443.0,2033.0,7.0,
234700,1860.7,17.2,136.5,164.1,443.0,2033.0,7.0,
234900,1858.1,13.5,136.4,93.8,443.0,2033.0,7.0,
235000,1860.9,14.8,133.8,66.4,443.0,2033.0,7.0,
235100,1861.6,11.7,127.5,74.2,443.0,2033.0,7.0,
235200,1859.9,14.0,123.4,119.1,443.0,2033.0,7.0,
235300,1860.8,11.0,112.2,119.1,443.0,2033.0,7.0,
235400,1859.7,13.1,92.0,121.1,443.0,2033.0,7.0,
235500,1858.2,15.3,66.7,121.1,443.0,2033.0,7.0,
235600,1850.9,75.2,42.7,123.0,443.0,2033.0,7.0,
235700,1856.8,101.5,52.9,119.1,443.0,2033.0,7.0,
235900,1862.8,120.9,81.6,99.6,443.0,2033.0,7.0,
236000,1880.3,124.8,96.7,97.7,443.0,2033.0,7.0,
236100,1884.4,154.1,118.3,97.7,443.0,2033.0,7.0,
236200,1884.4,34.0,134.2,101.6,443.0,2033.0,7.0,
236300,1859.7,14.1,134.7,193.4,443.0,2033.0,7.0,
236400,1856.6,15.3,134.8,197.3,443.0,2033.0,7.0,
236500,1860.1,14.0,134.7,195.3,443.0,2033.0,7.0,
236600,1860.4,13.3,132.5,132.8,443.0,2033.0,7.0,
236700,1861.4,15.5,125.2,119.1,443.0,2033.0,7.0,
236900,1860.9,12.0,108.8,121.1,443.0,2033.0,7.0,
237000,1861.3,11.8,95.5,121.1,443.0,2033.0,7.0,
237100,1860.0,17.4,66.8,121.1,443.0,2033.0,7.0,
237200,1865.7,71.2,22.2,121.1,443.0,2033.0,7.0,
237300,1844.3,78.4,51.8,119.1,443.0,2033.0,7.0,
237400,1843.0,96.1,70.9,156.3,443.0,2033.0,7.0,
237500,1868.1,162.5,83.5,130.9,443.0,2033.0,7.0,
237600,1866.7,127.4,103.5,97.7,443.0,2033.0,7.0,
237700,1878.0,121.1,118.9,95.7,443.0,2033.0,7.0,
237900,1868.2,21.8,141.3,97.7,443.0,2033.0,7.0,
238000,1861.3,16.0,141.4,132.8,443.0,2033.0,7.0,
238100,1858.5,13.5,141.4,128.9,443.0,2033.0,7.0,
238200,1860.2,12.4,141.3,95.7,443.0,2033.0,7.0,
238300,1861.9,14.0,132.8,119.1,443.0,2033.0,7.0,
238400,1860.3,13.8,123.6,121.1,443.0,2033.0,7.0,
238500,1863.7,14.8,115.4,119.1,443.0,2033.0,7.0,
238600,1863.4,12.7,97.9,119.1,443.0,2033.0,7.0,
238700,1859.0,15.0,78.5,119.1,443.0,2033.0,7.0,
238900,1849.3,90.8,51.4,136.7,443.0,2033.0,7.0,
239000,1845.0,92.9,69.0,162.1,443.0,2033.0,7.0,
239100,1856.0,115.4,80.2,160.2,443.0,2033.0,7.0,
239200,1870.0,122.1,93.3,103.5,443.0,2033.0,7.0,
239300,1885.3,165.4,109.0,95.7,443.0,2033.0,7.0,
239400,1873.0,64.9,127.1,95.7,443.0,2033.0,7.0,
239500,1869.5,22.1,132.0,128.9,443.0,2033.0,7.0,
239600,1856.0,12.6,132.2,193.4,443.0,2033.0,7.0,
239700,1858.9,14.5,132.2,195.3,443.0,2033.0,7.0,
239900,1857.8,15.3,123.1,105.5,443.0,2033.0,7.0,
240000,1860.0,12.6,114.1,119.1,443.0,2033.0,7.0,
240100,1860.2,16.1,106.6,119.1,443.0,2033.0,7.0,
240200,1861.3,13.3,95.3,121.1,443.0,2033.0,7.0,
240300,1860.0,25.9,76.9,119.1,443.0,2033.0,7.0,
240400,1860.9,95.3,41.4,119.1,443.0,2033.0,7.0,
240500,1856.6,100.0,47.7,103.5,443.0,2033.0,7.0,
240600,1838.5,140.6,69.6,97.7,443.0,2033.0,7.0,
240700,1852.9,151.9,94.5,97.7,443.0,2033.0,7.0,
240900,1859.5,120.5,121.4,95.7,443.0,2033.0,7.0,
241000,1875.9,121.9,135.1,95.7,443.0,2033.0,7.0,
241100,1875.3,29.7,142.2,95.7,443.0,2033.0,7.0,
241200,1858.0,15.5,142.5,97.7,443.0,2033.0,7.0,
241300,1860.0,12.5,142.5,107.4,443.0,2033.0,7.0,
241400,1857.6,12.4,142.2,91.8,443.0,2033.0,7.0,
241500,1861.5,13.6,135.6,84.0,443.0,2033.0,7.0,
241600,1859.9,15.1,125.6,119.1,443.0,2033.0,7.0,
241700,1858.5,13.7,108.2,119.1,443.0,2033.0,7.0,
241900,1859.5,13.7,76.9,119.1,443.0,2033.0,7.0,
242000,1862.1,75.9,48.7,121.1,443.0,2033.0,7.0,
242100,1851.7,85.6,46.5,119.1,443.0,2033.0,7.0,
242200,1846.6,88.8,65.4,97.7,443.0,2033.0,7.0,
242300,1842.1,118.5,83.2,97.7,443.0,2033.0,7.0,
242400,1857.0,113.0,103.1,125.0,443.0,2033.0,7.0,
242500,1850.5,96.6,113.9,103.5,443.0,2033.0,7.0,
242600,1862.5,95.5,119.9,97.7,443.0,2033.0,7.0,
242700,1863.0,22.4,125.1,97.7,443.0,2033.0,7.0,
242900,1859.0,13.1,125.1,95.7,443.0,2033.0,7.0,
243000,1858.3,13.2,125.1,93.8,443.0,2033.0,7.0,
243100,1859.7,13.1,117.8,101.6,443.0,2033.0,7.0,
243200,1861.3,11.8,108.1,121.1,443.0,2033.0,7.0,
243300,1860.0,11.2,95.1,121.1,443.0,2033.0,7.0,
243400,1860.6,24.5,73.1,121.1,443.0,2033.0,7.0,
243500,1861.2,46.9,55.3,121.1,443.0,2033.0,7.0,
243600,1862.0,70.3,43.7,64.5,443.0,2033.0,7.0,
243700,1852.8,113.1,54.1,58.6,443.0,2033.0,7.0,
243900,1851.0,144.4,99.1,99.6,520.0,3875.0,15.0,
244000,1834.4,102.2,120.9,128.9,414.0,2942.0,15.0,
244100,1839.4,113.2,141.5,103.5,506.0,2144.0,5.0,
244200,1857.1,111.6,151.5,97.7,506.0,2144.0,5.0,
244300,1857.3,24.7,156.3,97.7,506.0,2144.0,5.0,
244400,1858.8,16.6,156.4,97.7,506.0,2144.0,5.0,
244500,1858.8,13.5,156.2,95.7,506.0,2144.0,5.0,
244600,1859.3,13.2,155.4,93.8,506.0,2144.0,5.0,
244700,1862.4,13.2,147.9,95.7,506.0,2144.0,5.0,
244900,1861.7,14.3,122.3,119.1,506.0,2144.0,5.0,
245000,1859.9,13.9,100.9,119.1,506.0,2144.0,5.0,
245100,1859.2,17.9,69.0,119.1,506.0,2144.0,5.0,
245200,1859.3,18.2,43.1,119.1,506.0,2144.0,5.0,
245300,1860.9,62.7,32.4,119.1,506.0,2144.0,5.0,
245400,1853.6,93.4,58.7,164.1,506.0,2144.0,5.0,
245500,1841.3,121.6,85.3,162.1,506.0,2144.0,5.0,
245600,1849.0,130.2,106.7,130.9,506.0,2144.0,5.0,
245700,1843.4,168.5,120.4,109.4,506.0,2144.0,5.0,
245900,1857.7,35.5,155.5,97.7,506.0,2144.0,5.0,
246000,1857.6,12.8,155.6,95.7,506.0,2144.0,5.0,
246100,1853.5,12.5,155.6,95.7,506.0,2144.0,5.0,
246200,1859.0,12.2,155.6,93.8,506.0,2144.0,5.0,
246300,1861.9,13.8,153.4,91.8,506.0,2144.0,5.0,
246400,1861.5,14.6,145.3,121.1,506.0,2144.0,5.0,
246500,1860.6,10.4,131.4,121.1,506.0,2144.0,5.0,
246600,1860.6,13.5,114.7,121.1,506.0,2144.0,5.0,
246700,1862.5,12.9,100.2,121.1,506.0,2144.0,5.0,
246900,1863.5,74.7,29.8,121.1,506.0,2144.0,5.0,
247000,1859.6,92.9,51.7,222.7,506.0,2144.0,5.0,
247100,1847.5,88.0,70.5,224.6,506.0,2144.0,5.0,
247200,1854.2,146.9,89.6,191.4,506.0,2144.0,5.0,
247300,1844.0,187.1,120.8,158.2,821.0,4846.0,8.0,
247400,1852.9,236.1,142.4,97.7,821.0,4846.0,8.0,
247500,1825.3,67.0,168.8,95.7,905.0,4080.0,8.0,
247600,1874.5,16.5,169.9,85.9,905.0,4080.0,8.0,
247700,1858.2,12.2,169.9,66.4,905.0,4080.0,8.0,
247900,1860.6,12.9,168.4,64.5,905.0,4080.0,8.0,
248000,1862.1,13.4,162.8,119.1,905.0,4080.0,8.0,
248100,1860.9,11.6,155.6,121.1,905.0,4080.0,8.0,
248200,1857.7,14.2,145.4,121.1,905.0,4080.0,8.0,
248300,1858.9,12.8,120.8,119.1,905.0,4080.0,8.0,
248400,1858.0,19.8,94.2,119.1,905.0,4080.0,8.0,
248500,1862.8,81.1,26.2,113.3,905.0,4080.0,8.0,
248600,1881.4,95.7,60.9,259.8,905.0,4080.0,8.0,
248700,1862.9,87.3,77.9,291.0,905.0,4080.0,8.0,
248900,1851.2,98.8,111.1,195.3,523.0,3062.0,6.0,
249000,1840.0,118.0,128.4,113.3,523.0,3062.0,6.0,
249100,1857.1,60.8,143.3,97.7,523.0,3062.0,6.0,
249200,1855.7,23.7,145.2,97.7,523.0,3062.0,6.0,
249300,1860.8,14.1,145.4,97.7,523.0,3062.0,6.0,
249400,1859.6,13.0,145.4,93.8,523.0,3062.0,6.0,
249500,1861.0,13.3,145.3,66.4,523.0,3062.0,6.0,
249600,1861.7,13.2,133.1,99.6,523.0,3062.0,6.0,
249700,1858.7,12.0,124.0,121.1,523.0,3062.0,6.0,
249900,1859.2,14.2,95.4,121.1,523.0,3062.0,6.0,
250000,1859.4,14.6,70.3,121.1,523.0,3062.0,6.0,
250100,1860.6,70.7,30.2,121.1,523.0,3062.0,6.0,
250200,1872.3,89.4,44.2,168.0,523.0,3062.0,6.0,
250300,1875.5,142.0,66.2,255.9,523.0,3062.0,6.0,
250400,1886.9,158.7,94.2,257.8,523.0,3062.0,6.0,
250500,1867.3,112.2,112.7,226.6,523.0,3062.0,6.0,
250600,1865.2,106.4,122.8,191.4,523.0,3062.0,6.0,
250700,1853.2,59.7,133.2,127.0,523.0,3062.0,6.0,
250900,1855.2,13.4,137.6,99.6,523.0,3062.0,6.0,
251000,1855.5,11.7,137.6,99.6,523.0,3062.0,6.0,
251100,1857.6,14.7,137.6,97.7,523.0,3062.0,6.0,
251200,1860.5,13.9,131.7,119.1,523.0,3062.0,6.0,
251300,1860.8,11.9,121.9,121.1,523.0,3062.0,6.0,
251400,1858.2,12.5,101.8,121.1,523.0,3062.0,6.0,
251500,1861.4,13.0,80.9,121.1,523.0,3062.0,6.0,
251600,1858.8,16.6,64.5,121.1,523.0,3062.0,6.0,
251700,1860.4,67.3,38.7,121.1,523.0,3062.0,6.0,
251900,1863.9,104.0,47.3,99.6,523.0,3062.0,6.0,
252000,1882.1,113.3,71.2,97.7,523.0,3062.0,6.0,
252100,1881.4,118.2,94.1,160.2,523.0,3062.0,6.0,
252200,1872.8,112.6,108.6,212.9,523.0,3062.0,6.0,
252300,1857.7,62.9,120.2,195.3,523.0,3062.0,6.0,
252400,1860.3,26.2,124.1,193.4,523.0,3062.0,6.0,
252500,1859.1,14.5,124.3,128.9,523.0,3062.0,6.0,
252600,1856.6,13.3,124.3,97.7,523.0,3062.0,6.0,
252700,1858.8,13.6,124.2,93.8,523.0,3062.0,6.0,
252900,1860.5,12.2,116.3,121.1,523.0,3062.0,6.0,
253000,1860.5,14.2,103.4,121.1,523.0,3062.0,6.0,
253100,1860.3,15.2,83.1,121.1,523.0,3062.0,6.0,
253200,1862.7,14.3,63.2,119.1,523.0,3062.0,6.0,
253300,1858.6,79.3,36.8,119.1,523.0,3062.0,6.0,
253400,1858.5,102.3,46.8,95.7,523.0,3062.0,6.0,
253500,1848.1,127.8,64.4,95.7,523.0,3062.0,6.0,
253600,1881.0,110.0,80.9,95.7,523.0,3062.0,6.0,
253700,1883.3,122.1,97.2,93.8,523.0,3062.0,6.0,
253900,1868.7,104.0,133.4,193.4,523.0,3062.0,6.0,
254000,1862.9,18.2,139.4,226.6,523.0,3062.0,6.0,
254100,1856.7,13.4,139.4,195.3,523.0,3062.0,6.0,
254200,1858.8,14.5,139.3,130.9,523.0,3062.0,6.0,
254300,1861.2,12.6,139.3,99.6,523.0,3062.0,6.0,
254400,1860.0,14.2,132.7,119.1,523.0,3062.0,6.0,
254500,1860.0,12.1,124.9,119.1,523.0,3062.0,6.0,
254600,1862.0,17.2,115.0,121.1,523.0,3062.0,6.0,
254700,1861.8,15.9,101.6,119.1,523.0,3062.0,6.0,
254900,1860.6,68.8,44.6,93.8,523.0,3062.0,6.0,
255000,1854.9,91.5,49.5,119.1,523.0,3062.0,6.0,
255100,1851.7,109.8,70.2,101.6,523.0,3062.0,6.0,
255200,1841.7,139.6,93.4,97.7,523.0,3062.0,6.0,
255300,1856.8,139.0,113.3,97.7,523.0,3062.0,6.0,
255400,1885.5,206.8,129.8,95.7,523.0,3062.0,6.0,
255500,1859.7,221.2,156.1,95.7,523.0,3062.0,6.0,
255600,1879.1,35.0,173.5,93.8,523.0,3062.0,6.0,
255700,1861.5,13.3,173.5,66.4,523.0,3062.0,6.0,
255900,1857.0,13.5,173.5,78.1,523.0,3062.0,6.0,
256000,1861.7,13.4,167.3,85.9,523.0,3062.0,6.0,
256100,1861.6,14.0,159.7,119.1,523.0,3062.0,6.0,
256200,1861.0,12.5,147.4,119.1,523.0,3062.0,6.0,
256300,1859.1,12.4,132.7,121.1,523.0,3062.0,6.0,
256400,1859.2,13.9,116.6,121.1,523.0,3062.0,6.0,
256500,1862.0,13.9,78.0,121.1,523.0,3062.0,6.0,
256600,1849.2,89.8,41.7,146.5,523.0,3062.0,6.0,
256700,1857.3,131.6,66.1,160.2,523.0,3062.0,6.0,
256900,1852.8,111.8,110.5,99.6,523.0,3062.0,6.0,
257000,1835.8,150.8,124.8,97.7,523.0,3062.0,6.0,
257100,1864.5,142.4,138.7,97.7,523.0,3062.0,6.0,
257200,1862.2,26.1,147.5,95.7,523.0,3062.0,6.0,
257300,1861.7,15.3,147.6,93.8,523.0,3062.0,6.0,
257400,1854.4,12.5,147.6,93.8,523.0,3062.0,6.0,
257500,1858.4,13.8,147.6,95.7,523.0,3062.0,6.0,
257600,1862.1,13.7,142.8,99.6,523.0,3062.0,6.0,
257700,1859.7,15.5,133.1,119.1,523.0,3062.0,6.0,
257900,1859.3,12.1,99.5,119.1,523.0,3062.0,6.0,
258000,1859.9,15.1,80.9,105.5,523.0,3062.0,6.0,
258100,1861.7,20.3,53.5,101.6,523.0,3062.0,6.0,
258200,1861.3,73.0,33.5,115.2,523.0,3062.0,6.0,
258300,1850.6,79.6,58.9,158.2,523.0,3062.0,6.0,
258400,1841.5,154.6,89.0,162.1,446.0,2940.0,5.0,
258500,1857.4,169.1,115.6,162.1,616.0,3516.0,8.0,
258600,1840.5,171.9,137.6,97.7,616.0,3516.0,8.0,
258700,1840.1,132.0,154.4,95.7,616.0,3516.0,8.0,
258900,1855.4,14.4,166.6,95.7,616.0,3516.0,8.0,
259000,1858.5,14.6,166.6,95.7,616.0,3516.0,8.0,
259100,1862.4,12.9,166.6,95.7,616.0,3516.0,8.0,
259200,1861.1,13.1,164.2,95.7,616.0,3516.0,8.0,
259300,1863.6,12.3,156.8,121.1,616.0,3516.0,8.0,
259400,1860.5,14.2,141.9,121.1,616.0,3516.0,8.0,
259500,1859.8,16.1,121.2,121.1,616.0,3516.0,8.0,
259600,1860.9,20.9,95.6,121.1,616.0,3516.0,8.0,
259700,1860.0,22.3,65.5,121.1,616.0,3516.0,8.0,
259900,1869.3,109.3,55.6,173.8,616.0,3516.0,8.0,
260000,1853.0,111.0,81.4,257.8,616.0,3516.0,8.0,
260100,1853.0,125.8,96.5,187.5,616.0,3516.0,8.0,
260200,1848.2,133.2,115.2,97.7,616.0,3516.0,8.0,
260300,1855.8,123.1,130.5,95.7,616.0,3516.0,8.0,
260400,1842.3,72.8,142.0,95.7,616.0,3516.0,8.0,
260500,1860.7,17.0,144.7,97.7,616.0,3516.0,8.0,
260600,1860.2,16.4,144.6,97.7,616.0,3516.0,8.0,
260700,1859.6,14.3,144.5,95.7,616.0,3516.0,8.0,
260900,1861.2,13.3,134.8,119.1,616.0,3516.0,8.0,
261000,1861.5,17.9,120.9,119.1,616.0,3516.0,8.0,
261100,1861.3,13.8,109.2,119.1,616.0,3516.0,8.0,
261200,1860.5,16.3,89.4,121.1,616.0,3516.0,8.0,
261300,1863.5,18.0,65.2,119.1,616.0,3516.0,8.0,
261400,1863.0,64.1,34.0,119.1,616.0,3516.0,8.0,
261500,1884.8,121.0,61.5,175.8,616.0,3516.0,8.0,
261600,1886.6,119.0,86.9,261.7,616.0,3516.0,8.0,
261700,1873.4,132.9,103.1,289.1,616.0,3516.0,8.0,
261900,1844.0,162.3,137.8,164.1,616.0,3516.0,8.0,
262000,1850.7,79.9,158.8,97.7,616.0,3516.0,8.0,
262100,1867.5,32.4,162.8,95.7,616.0,3516.0,8.0,
262200,1859.3,16.2,163.2,66.4,616.0,3516.0,8.0,
262300,1856.9,15.2,163.2,66.4,616.0,3516.0,8.0,
262400,1858.1,12.9,163.1,62.5,616.0,3516.0,8.0,
262500,1857.7,13.4,152.3,60.5,616.0,3516.0,8.0,
262600,1859.2,13.2,139.4,119.1,616.0,3516.0,8.0,
262700,1857.0,14.6,127.7,121.1,616.0,3516.0,8.0,
262900,1860.2,27.3,89.3,119.1,616.0,3516.0,8.0,
263000,1863.5,61.2,42.8,68.4,616.0,3516.0,8.0,
263100,1872.8,99.1,41.9,68.4,616.0,3516.0,8.0,
263200,1874.0,111.7,64.9,127.0,616.0,3516.0,8.0,
263300,1883.8,179.6,96.5,193.4,616.0,3516.0,8.0,
263400,1880.9,107.2,117.1,224.6,616.0,3516.0,8.0,
263500,1863.6,125.9,129.5,193.4,616.0,3516.0,8.0,
263600,1854.1,59.8,141.4,128.9,616.0,3516.0,8.0,
263700,1855.5,19.1,145.5,109.4,616.0,3516.0,8.0,
263900,1855.8,15.1,145.5,99.6,616.0,3516.0,8.0,
264000,1860.0,16.0,145.2,99.6,616.0,3516.0,8.0,
264100,1860.3,14.9,141.0,119.1,616.0,3516.0,8.0,
264200,1861.0,13.8,131.5,121.1,616.0,3516.0,8.0,
264300,1858.9,14.9,110.4,119.1,616.0,3516.0,8.0,
264400,1859.2,15.1,88.2,119.1,616.0,3516.0,8.0,
264500,1859.8,20.6,68.7,117.2,616.0,3516.0,8.0,
264600,1863.5,135.3,39.5,119.1,616.0,3516.0,8.0,
264700,1848.3,138.1,63.9,64.5,616.0,3516.0,8.0,
264900,1861.2,150.0,100.2,64.5,616.0,3516.0,8.0,
265000,1864.7,134.8,117.5,66.4,616.0,3516.0,8.0,
265100,1891.2,161.1,133.3,58.6,616.0,3516.0,8.0,
265200,1890.7,72.2,149.2,58.6,616.0,3516.0,8.0,
265300,1863.2,20.8,153.1,91.8,616.0,3516.0,8.0,
265400,1859.3,15.2,153.1,130.9,616.0,3516.0,8.0,
265500,1853.9,14.7,153.1,166.0,616.0,3516.0,8.0,
265600,1861.6,14.8,153.0,123.0,616.0,3516.0,8.0,
