Time(ms),Raw_ADC,ENV_Value,RMS,MDF,MW_Amp,MW_Area,MW_Latency,Marker
0,1852.5,30.9,0.0,0.0,0.0,0.0,0.0,
100,1859.7,20.8,0.0,0.0,0.0,0.0,0.0,
200,1860.7,18.6,0.0,0.0,0.0,0.0,0.0,
300,1861.9,22.0,0.0,0.0,0.0,0.0,0.0,
400,1862.1,20.7,0.0,0.0,0.0,0.0,0.0,
500,1861.1,19.6,0.0,121.1,0.0,0.0,0.0,
600,1858.9,26.4,0.0,121.1,0.0,0.0,0.0,
700,1863.0,30.8,0.0,121.1,0.0,0.0,0.0,
800,1856.1,40.9,0.0,119.1,0.0,0.0,0.0,
900,1862.9,46.4,103.6,91.8,0.0,0.0,0.0,
1000,1863.5,99.6,35.2,76.2,0.0,0.0,0.0,
1100,1859.3,99.9,61.3,70.3,0.0,0.0,0.0,
1200,1856.9,125.2,75.4,76.2,0.0,0.0,0.0,
1300,1864.7,96.1,87.7,78.1,0.0,0.0,0.0,
1400,1860.8,90.6,97.5,66.4,0.0,0.0,0.0,
1500,1867.2,70.3,105.9,64.5,0.0,0.0,0.0,
1600,1852.8,25.1,111.2,64.5,0.0,0.0,0.0,
1700,1860.0,21.8,110.9,64.5,0.0,0.0,0.0,
1900,1863.1,18.2,109.8,66.4,0.0,0.0,0.0,
2000,1861.9,19.3,108.3,119.1,0.0,0.0,0.0,
2100,1865.3,22.4,95.9,121.1,0.0,0.0,0.0,
2200,1862.8,20.0,85.3,119.1,0.0,0.0,0.0,
2300,1858.8,25.5,72.7,119.1,0.0,0.0,0.0,
2400,1861.0,23.5,59.4,119.1,0.0,0.0,0.0,
2500,1862.5,21.7,42.6,119.1,0.0,0.0,0.0,
2600,1860.9,111.9,26.4,119.1,0.0,0.0,0.0,
2700,1857.4,129.4,44.1,103.5,0.0,0.0,0.0,
2900,1863.2,78.3,78.3,64.5,0.0,0.0,0.0,
3000,1853.5,61.7,85.1,64.5,0.0,0.0,0.0,
3100,1865.0,57.7,89.6,64.5,0.0,0.0,0.0,
3200,1871.3,34.9,95.2,76.2,0.0,0.0,0.0,
3300,1859.4,20.9,95.7,119.1,0.0,0.0,0.0,
3400,1861.6,20.1,95.5,158.2,0.0,0.0,0.0,
3500,1868.5,20.4,95.4,136.7,0.0,0.0,0.0,
3600,1871.7,18.9,95.3,121.1,0.0,0.0,0.0,
3700,1873.0,19.8,88.4,121.1,0.0,0.0,0.0,
3900,1865.2,16.0,60.1,121.1,0.0,0.0,0.0,
4000,1863.4,21.5,49.7,121.1,0.0,0.0,0.0,
4100,1866.7,29.7,41.2,121.1,0.0,0.0,0.0,
4200,1863.0,94.2,26.6,119.1,0.0,0.0,0.0,
4300,1863.3,110.2,46.5,107.4,0.0,0.0,0.0,
4400,1866.5,107.3,63.2,66.4,0.0,0.0,0.0,
4500,1857.3,113.8,75.7,64.5,0.0,0.0,0.0,
4600,1865.8,106.8,85.8,64.5,0.0,0.0,0.0,
4700,1858.3,122.2,94.9,66.4,0.0,0.0,0.0,
4900,1863.7,16.7,106.6,95.7,0.0,0.0,0.0,
5000,1862.3,17.5,106.6,97.7,0.0,0.0,0.0,
5100,1862.7,19.1,106.5,99.6,0.0,0.0,0.0,
5200,1861.3,17.3,106.2,119.1,0.0,0.0,0.0,
5300,1857.9,14.1,98.5,121.1,0.0,0.0,0.0,
5400,1857.3,20.1,88.5,121.1,0.0,0.0,0.0,
5500,1856.6,23.7,78.1,121.1,0.0,0.0,0.0,
5600,1855.3,34.8,67.4,121.1,0.0,0.0,0.0,
5700,1855.6,44.0,55.4,119.1,0.0,0.0,0.0,
5900,1866.3,83.2,44.0,70.3,0.0,0.0,0.0,
6000,1856.4,95.2,56.1,72.3,0.0,0.0,0.0,
6100,1859.1,104.1,65.9,72.3,0.0,0.0,0.0,
6200,1861.0,80.5,77.4,95.7,0.0,0.0,0.0,
6300,1870.8,66.7,85.1,113.3,0.0,0.0,0.0,
6400,1864.7,29.7,90.6,103.5,0.0,0.0,0.0,
6500,1852.2,19.8,92.5,113.3,0.0,0.0,0.0,
6600,1863.4,16.3,92.0,128.9,0.0,0.0,0.0,
6700,1862.0,23.1,91.1,127.0,0.0,0.0,0.0,
6900,1863.0,21.9,84.4,121.1,0.0,0.0,0.0,
7000,1860.0,20.2,77.1,119.1,0.0,0.0,0.0,
7100,1858.4,17.1,69.2,119.1,0.0,0.0,0.0,
7200,1857.6,27.9,56.1,119.1,0.0,0.0,0.0,
7300,1860.6,19.6,44.5,119.1,0.0,0.0,0.0,
7400,1859.5,61.3,32.5,119.1,0.0,0.0,0.0,
7500,1859.9,87.9,33.4,101.6,0.0,0.0,0.0,
7600,1857.5,85.2,45.1,87.9,0.0,0.0,0.0,
7700,1866.5,64.8,57.5,74.2,0.0,0.0,0.0,
7900,1859.5,73.8,71.4,91.8,0.0,0.0,0.0,
8000,1859.8,46.1,75.6,93.8,0.0,0.0,0.0,
8100,1861.0,26.4,78.0,95.7,0.0,0.0,0.0,
8200,1860.8,15.9,79.1,95.7,0.0,0.0,0.0,
8300,1860.6,17.0,78.6,95.7,0.0,0.0,0.0,
8400,1861.7,17.6,78.4,95.7,0.0,0.0,0.0,
8500,1858.1,17.5,75.6,119.1,0.0,0.0,0.0,
8600,1857.2,18.3,69.3,121.1,0.0,0.0,0.0,
8700,1858.7,18.0,59.4,121.1,0.0,0.0,0.0,
8900,1859.3,19.3,41.5,121.1,0.0,0.0,0.0,
9000,1858.0,89.9,32.7,121.1,0.0,0.0,0.0,
9100,1862.9,101.8,47.3,119.1,0.0,0.0,0.0,
9200,1858.8,107.1,59.7,62.5,0.0,0.0,0.0,
9300,1865.8,97.4,72.7,62.5,0.0,0.0,0.0,
9400,1865.7,103.9,83.1,64.5,0.0,0.0,0.0,
9500,1864.3,130.0,94.5,64.5,0.0,0.0,0.0,
9600,1854.0,76.9,108.2,66.4,0.0,0.0,0.0,
9700,1864.8,39.4,119.0,89.8,0.0,0.0,0.0,
9900,1859.6,18.4,119.9,95.7,0.0,0.0,0.0,
10000,1860.5,18.2,119.9,95.7,0.0,0.0,0.0,
10100,1860.8,16.0,113.1,107.4,0.0,0.0,0.0,
10200,1861.4,18.2,106.3,121.1,0.0,0.0,0.0,
10300,1860.8,17.9,97.9,121.1,0.0,0.0,0.0,
10400,1860.5,20.2,89.3,121.1,0.0,0.0,0.0,
10500,1861.8,18.4,77.2,121.1,0.0,0.0,0.0,
10600,1860.2,65.3,56.5,121.1,0.0,0.0,0.0,
10700,1864.7,74.5,34.7,121.1,0.0,0.0,0.0,
10900,1856.0,108.7,55.3,64.5,0.0,0.0,0.0,
11000,1868.0,99.9,69.9,64.5,0.0,0.0,0.0,
11100,1866.1,96.6,81.4,64.5,0.0,0.0,0.0,
11200,1876.8,79.5,90.9,68.4,0.0,0.0,0.0,
11300,1861.4,38.5,98.6,93.8,0.0,0.0,0.0,
11400,1858.3,22.2,99.2,95.7,0.0,0.0,0.0,
11500,1861.3,22.9,99.2,95.7,0.0,0.0,0.0,
11600,1859.0,20.5,99.3,95.7,0.0,0.0,0.0,
11700,1862.5,18.9,96.9,119.1,0.0,0.0,0.0,
11900,1858.3,18.6,85.5,121.1,0.0,0.0,0.0,
12000,1858.8,19.4,74.0,121.1,0.0,0.0,0.0,
12100,1861.1,25.1,61.3,121.1,0.0,0.0,0.0,
12200,1862.1,50.9,46.7,119.1,0.0,0.0,0.0,
12300,1859.7,84.1,33.1,119.1,0.0,0.0,0.0,
12400,1861.0,73.6,44.8,95.7,0.0,0.0,0.0,
12500,1866.5,90.1,56.1,66.4,0.0,0.0,0.0,
12600,1860.0,81.9,68.0,64.5,0.0,0.0,0.0,
12700,1851.3,114.8,76.3,64.5,0.0,0.0,0.0,
12900,1860.2,60.5,96.1,66.4,0.0,0.0,0.0,
13000,1862.3,25.4,98.1,89.8,0.0,0.0,0.0,
13100,1856.5,21.7,98.6,95.7,0.0,0.0,0.0,
13200,1860.2,22.0,98.4,93.8,0.0,0.0,0.0,
13300,1862.0,19.7,96.5,80.1,0.0,0.0,0.0,
13400,1861.1,18.4,91.1,119.1,0.0,0.0,0.0,
13500,1860.4,19.8,84.4,121.1,0.0,0.0,0.0,
13600,1859.8,20.7,75.2,121.1,0.0,0.0,0.0,
13700,1860.4,20.7,66.7,119.1,0.0,0.0,0.0,
13900,1864.9,84.9,36.8,121.1,0.0,0.0,0.0,
14000,1845.2,79.1,49.1,119.1,0.0,0.0,0.0,
14100,1856.0,113.2,57.8,64.5,0.0,0.0,0.0,
14200,1854.6,80.4,71.6,64.5,0.0,0.0,0.0,
14300,1865.7,83.3,79.4,64.5,0.0,0.0,0.0,
14400,1849.4,93.2,85.8,64.5,0.0,0.0,0.0,
14500,1858.0,30.6,91.9,66.4,0.0,0.0,0.0,
14600,1862.3,20.4,92.1,95.7,0.0,0.0,0.0,
14700,1861.2,20.5,92.1,103.5,0.0,0.0,0.0,
14900,1861.8,20.6,90.3,119.1,0.0,0.0,0.0,
15000,1862.5,20.4,82.1,121.1,0.0,0.0,0.0,
15100,1859.0,19.3,75.5,121.1,0.0,0.0,0.0,
15200,1857.4,24.7,62.6,121.1,0.0,0.0,0.0,
15300,1859.4,54.5,52.6,121.1,0.0,0.0,0.0,
15400,1862.9,36.0,45.4,119.1,0.0,0.0,0.0,
15500,1855.1,93.1,36.2,105.5,0.0,0.0,0.0,
15600,1860.3,82.0,55.3,87.9,0.0,0.0,0.0,
15700,1849.0,116.3,66.6,66.4,0.0,0.0,0.0,
15900,1855.5,69.7,88.9,64.5,0.0,0.0,0.0,
16000,1860.6,62.3,94.6,64.5,0.0,0.0,0.0,
16100,1857.7,26.7,98.4,66.4,0.0,0.0,0.0,
16200,1856.9,18.6,98.7,95.7,0.0,0.0,0.0,
16300,1861.4,20.3,98.6,119.1,0.0,0.0,0.0,
16400,1861.4,18.4,96.8,119.1,0.0,0.0,0.0,
16500,1860.8,21.7,95.1,119.1,0.0,0.0,0.0,
16600,1858.8,19.9,85.2,121.1,0.0,0.0,0.0,
16700,1859.3,20.7,76.7,121.1,0.0,0.0,0.0,
16900,1858.5,21.6,49.3,121.1,0.0,0.0,0.0,
17000,1857.2,27.6,37.1,121.1,0.0,0.0,0.0,
17100,1860.3,85.9,26.0,121.1,0.0,0.0,0.0,
17200,1861.7,68.5,37.5,119.1,0.0,0.0,0.0,
17300,1867.1,87.6,47.3,62.5,0.0,0.0,0.0,
17400,1860.3,81.0,60.0,62.5,0.0,0.0,0.0,
17500,1849.2,85.6,69.7,64.5,0.0,0.0,0.0,
17600,1858.8,85.2,77.7,64.5,0.0,0.0,0.0,
17700,1853.2,55.6,82.9,64.5,0.0,0.0,0.0,
17900,1859.3,20.9,86.0,70.3,0.0,0.0,0.0,
18000,1861.3,21.7,86.0,70.3,0.0,0.0,0.0,
18100,1866.3,20.4,85.9,74.2,0.0,0.0,0.0,
18200,1859.3,21.4,81.1,119.1,0.0,0.0,0.0,
18300,1860.8,21.8,75.8,121.1,0.0,0.0,0.0,
18400,1862.5,22.3,66.2,121.1,0.0,0.0,0.0,
18500,1859.8,23.1,56.0,121.1,0.0,0.0,0.0,
18600,1859.3,30.1,44.2,119.1,0.0,0.0,0.0,
18700,1861.1,76.6,34.4,121.1,0.0,0.0,0.0,
18900,1864.4,76.7,51.4,64.5,0.0,0.0,0.0,
19000,1861.0,82.0,57.4,64.5,0.0,0.0,0.0,
19100,1868.8,79.8,67.6,64.5,0.0,0.0,0.0,
19200,1859.2,65.3,75.2,64.5,0.0,0.0,0.0,
19300,1862.9,40.2,80.8,64.5,0.0,0.0,0.0,
19400,1862.0,23.0,82.4,64.5,0.0,0.0,0.0,
19500,1864.6,20.3,82.4,68.4,0.0,0.0,0.0,
19600,1862.9,19.6,82.4,82.0,0.0,0.0,0.0,
19700,1859.6,24.1,82.1,119.1,0.0,0.0,0.0,
19900,1858.9,19.2,69.0,121.1,0.0,0.0,0.0,
20000,1862.8,19.0,64.1,121.1,0.0,0.0,0.0,
20100,1858.9,22.5,53.1,121.1,0.0,0.0,0.0,
20200,1859.6,22.4,41.9,121.1,0.0,0.0,0.0,
20300,1858.2,71.5,29.7,121.1,0.0,0.0,0.0,
20400,1863.1,75.5,35.2,121.1,0.0,0.0,0.0,
20500,1856.3,74.5,46.4,66.4,0.0,0.0,0.0,
20600,1852.3,90.1,61.3,64.5,0.0,0.0,0.0,
20700,1862.3,94.3,68.9,64.5,0.0,0.0,0.0,
20900,1862.9,38.8,80.0,62.5,0.0,0.0,0.0,
21000,1854.8,23.9,81.8,64.5,0.0,0.0,0.0,
21100,1861.3,20.8,82.1,64.5,0.0,0.0,0.0,
21200,1859.7,21.6,82.0,76.2,0.0,0.0,0.0,
21300,1864.1,22.0,81.9,119.1,0.0,0.0,0.0,
21400,1860.6,21.1,78.1,121.1,0.0,0.0,0.0,
21500,1861.1,20.3,72.0,121.1,0.0,0.0,0.0,
21600,1861.5,21.8,59.9,121.1,0.0,0.0,0.0,
21700,1860.8,21.1,51.0,121.1,0.0,0.0,0.0,
21900,1861.6,71.1,30.6,121.1,0.0,0.0,0.0,
22000,1853.7,115.8,38.2,121.1,0.0,0.0,0.0,
22100,1854.0,73.2,54.9,89.8,0.0,0.0,0.0,
22200,1864.1,77.2,61.3,64.5,0.0,0.0,0.0,
22300,1844.3,87.7,72.1,64.5,0.0,0.0,0.0,
22400,1858.9,107.3,77.9,64.5,0.0,0.0,0.0,
22500,1855.3,81.5,85.2,64.5,0.0,0.0,0.0,
22600,1862.5,32.4,92.2,66.4,0.0,0.0,0.0,
22700,1856.9,23.3,92.6,64.5,0.0,0.0,0.0,
22900,1863.5,22.1,92.7,64.5,0.0,0.0,0.0,
23000,1862.7,20.2,88.3,119.1,0.0,0.0,0.0,
23100,1860.3,21.3,78.7,121.1,0.0,0.0,0.0,
23200,1861.7,21.2,73.9,121.1,0.0,0.0,0.0,
23300,1860.0,25.2,63.4,121.1,0.0,0.0,0.0,
23400,1864.7,23.1,56.2,121.1,0.0,0.0,0.0,
23500,1863.9,46.6,44.5,121.1,0.0,0.0,0.0,
23600,1864.5,73.3,34.2,121.1,0.0,0.0,0.0,
23700,1857.9,89.9,44.7,119.1,0.0,0.0,0.0,
23900,1860.9,85.8,66.2,62.5,0.0,0.0,0.0,
24000,1865.3,101.1,75.2,64.5,0.0,0.0,0.0,
24100,1846.1,60.8,85.8,64.5,0.0,0.0,0.0,
24200,1863.1,23.3,90.1,66.4,0.0,0.0,0.0,
24300,1861.3,23.6,90.2,72.3,0.0,0.0,0.0,
24400,1864.1,22.3,90.1,82.0,0.0,0.0,0.0,
24500,1863.0,21.9,90.1,97.7,0.0,0.0,0.0,
24600,1861.2,21.9,87.8,121.1,0.0,0.0,0.0,
24700,1860.7,21.5,82.4,121.1,0.0,0.0,0.0,
24900,1861.5,21.1,66.4,121.1,0.0,0.0,0.0,
25000,1860.7,21.0,56.0,121.1,0.0,0.0,0.0,
25100,1860.2,53.8,38.0,121.1,0.0,0.0,0.0,
25200,1862.0,72.9,30.9,121.1,0.0,0.0,0.0,
25300,1867.5,89.2,43.2,105.5,0.0,0.0,0.0,
25400,1853.0,82.5,56.2,62.5,0.0,0.0,0.0,
25500,1859.3,100.9,66.0,62.5,0.0,0.0,0.0,
25600,1865.2,73.9,75.9,64.5,0.0,0.0,0.0,
25700,1868.7,67.6,81.4,64.5,0.0,0.0,0.0,
25900,1860.4,20.2,87.3,66.4,0.0,0.0,0.0,
26000,1865.4,21.2,87.3,66.4,0.0,0.0,0.0,
26100,1864.6,18.1,87.2,70.3,0.0,0.0,0.0,
26200,1862.0,22.4,85.6,119.1,0.0,0.0,0.0,
26300,1860.9,21.9,80.1,121.1,0.0,0.0,0.0,
26400,1859.7,19.4,71.6,121.1,0.0,0.0,0.0,
26500,1860.4,21.3,62.4,119.1,0.0,0.0,0.0,
26600,1862.4,19.0,50.0,121.1,0.0,0.0,0.0,
26700,1861.7,34.4,40.4,121.1,0.0,0.0,0.0,
26900,1854.1,118.7,52.7,119.1,0.0,0.0,0.0,
27000,1863.8,129.9,70.8,64.5,0.0,0.0,0.0,
27100,1855.5,91.1,83.4,64.5,0.0,0.0,0.0,
27200,1853.5,103.8,91.5,64.5,0.0,0.0,0.0,
27300,1858.5,87.5,99.5,64.5,0.0,0.0,0.0,
27400,1863.1,38.1,104.4,68.4,0.0,0.0,0.0,
27500,1862.1,26.9,104.9,66.4,0.0,0.0,0.0,
27600,1861.9,22.0,105.0,66.4,0.0,0.0,0.0,
27700,1861.3,21.7,104.9,89.8,0.0,0.0,0.0,
27900,1861.9,18.8,94.3,121.1,0.0,0.0,0.0,
28000,1859.3,27.7,81.5,121.1,0.0,0.0,0.0,
28100,1860.0,21.2,68.9,121.1,0.0,0.0,0.0,
28200,1859.4,22.7,57.7,121.1,0.0,0.0,0.0,
28300,1859.9,40.5,42.4,121.1,0.0,0.0,0.0,
28400,1865.3,92.7,32.4,121.1,0.0,0.0,0.0,
28500,1842.6,131.3,48.1,119.1,0.0,0.0,0.0,
28600,1853.0,104.1,69.4,64.5,0.0,0.0,0.0,
28700,1855.2,107.2,80.4,64.5,0.0,0.0,0.0,
28900,1854.7,90.7,100.7,64.5,0.0,0.0,0.0,
29000,1849.8,38.3,107.6,64.5,0.0,0.0,0.0,
29100,1864.0,25.9,108.6,64.5,0.0,0.0,0.0,
29200,1860.1,20.1,108.7,64.5,0.0,0.0,0.0,
29300,1860.1,21.0,108.7,68.4,0.0,0.0,0.0,
29400,1863.5,21.6,107.5,111.3,0.0,0.0,0.0,
29500,1861.7,24.5,101.0,121.1,0.0,0.0,0.0,
29600,1862.1,26.3,87.8,121.1,0.0,0.0,0.0,
29700,1859.9,36.8,78.0,121.1,0.0,0.0,0.0,
29900,1863.3,28.4,52.4,117.2,0.0,0.0,0.0,
30000,1859.1,121.7,37.3,87.9,0.0,0.0,0.0,
30100,1868.1,109.1,57.6,70.3,0.0,0.0,0.0,
30200,1861.5,96.0,76.4,64.5,0.0,0.0,0.0,
30300,1854.3,110.6,86.2,64.5,0.0,0.0,0.0,
30400,1870.9,109.8,94.7,64.5,0.0,0.0,0.0,
30500,1864.5,65.1,100.9,64.5,0.0,0.0,0.0,
30600,1863.9,33.5,104.4,64.5,0.0,0.0,0.0,
30700,1856.3,24.7,105.0,64.5,0.0,0.0,0.0,
30900,1862.3,27.5,103.3,66.4,0.0,0.0,0.0,
31000,1866.3,21.1,103.1,119.1,0.0,0.0,0.0,
31100,1865.3,22.6,91.9,119.1,0.0,0.0,0.0,
31200,1865.1,36.4,77.1,119.1,0.0,0.0,0.0,
31300,1860.3,33.5,66.9,119.1,0.0,0.0,0.0,
31400,1861.1,32.2,54.9,119.1,0.0,0.0,0.0,
31500,1860.5,28.3,43.1,119.1,0.0,0.0,0.0,
31600,1858.4,100.1,34.2,117.2,0.0,0.0,0.0,
31700,1855.5,141.2,48.9,119.1,0.0,0.0,0.0,
31900,1866.2,71.1,78.7,62.5,0.0,0.0,0.0,
32000,1851.8,90.3,85.0,64.5,0.0,0.0,0.0,
32100,1862.9,82.6,91.1,64.5,0.0,0.0,0.0,
32200,1867.6,34.5,95.8,64.5,0.0,0.0,0.0,
32300,1862.3,22.1,96.5,64.5,0.0,0.0,0.0,
32400,1861.4,22.9,96.1,52.7,0.0,0.0,0.0,
32500,1863.3,21.1,95.9,62.5,0.0,0.0,0.0,
32600,1862.7,21.1,95.6,119.1,0.0,0.0,0.0,
32700,1860.5,22.5,88.1,121.1,0.0,0.0,0.0,
32900,1858.5,25.8,63.3,121.1,0.0,0.0,0.0,
33000,1860.4,20.0,54.7,119.1,0.0,0.0,0.0,
33100,1861.8,23.6,43.9,119.1,0.0,0.0,0.0,
33200,1858.4,75.9,32.9,119.1,0.0,0.0,0.0,
33300,1858.2,87.4,40.8,119.1,0.0,0.0,0.0,
33400,1853.0,97.3,53.7,62.5,0.0,0.0,0.0,
33500,1864.0,126.2,65.0,60.5,0.0,0.0,0.0,
33600,1862.3,102.6,81.2,60.5,0.0,0.0,0.0,
33700,1864.8,86.6,91.7,64.5,0.0,0.0,0.0,
33900,1862.4,21.7,99.3,64.5,0.0,0.0,0.0,
34000,1858.4,17.0,99.0,64.5,0.0,0.0,0.0,
34100,1860.1,18.2,98.9,62.5,0.0,0.0,0.0,
34200,1863.3,18.1,98.5,70.3,0.0,0.0,0.0,
34300,1860.6,17.6,94.0,121.1,0.0,0.0,0.0,
34400,1860.0,19.1,87.1,121.1,0.0,0.0,0.0,
34500,1859.6,17.5,78.9,121.1,0.0,0.0,0.0,
34600,1859.6,25.9,62.0,121.1,0.0,0.0,0.0,
34700,1858.3,28.2,45.6,121.1,0.0,0.0,0.0,
34900,1860.9,134.9,39.3,119.1,0.0,0.0,0.0,
35000,1859.9,101.3,59.0,64.5,0.0,0.0,0.0,
35100,1847.2,90.0,73.0,62.5,0.0,0.0,0.0,
35200,1859.1,102.1,84.5,64.5,0.0,0.0,0.0,
35300,1858.3,84.1,94.2,64.5,0.0,0.0,0.0,
35400,1862.6,46.7,99.4,64.5,0.0,0.0,0.0,
35500,1858.9,25.8,101.6,66.4,0.0,0.0,0.0,
35600,1860.7,21.2,102.1,66.4,0.0,0.0,0.0,
35700,1862.4,20.3,101.8,76.2,0.0,0.0,0.0,
35900,1863.6,17.5,96.9,119.1,0.0,0.0,0.0,
36000,1860.8,17.6,86.3,121.1,0.0,0.0,0.0,
36100,1861.2,17.4,74.8,121.1,0.0,0.0,0.0,
36200,1860.4,20.6,61.6,121.1,0.0,0.0,0.0,
36300,1861.1,21.1,45.6,121.1,0.0,0.0,0.0,
36400,1859.7,52.4,33.0,121.1,0.0,0.0,0.0,
36500,1853.5,104.0,32.0,121.1,0.0,0.0,0.0,
36600,1854.3,123.9,48.6,119.1,0.0,0.0,0.0,
36700,1856.3,107.5,66.2,64.5,0.0,0.0,0.0,
36900,1853.0,114.4,88.3,64.5,0.0,0.0,0.0,
37000,1857.6,65.9,96.5,64.5,0.0,0.0,0.0,
37100,1860.2,22.9,101.7,64.5,0.0,0.0,0.0,
37200,1858.6,23.3,101.9,64.5,0.0,0.0,0.0,
37300,1860.7,21.6,101.9,66.4,0.0,0.0,0.0,
37400,1862.5,21.0,101.9,68.4,0.0,0.0,0.0,
37500,1861.0,18.2,100.0,121.1,0.0,0.0,0.0,
37600,1858.8,18.6,92.6,121.1,0.0,0.0,0.0,
37700,1857.5,18.8,81.0,121.1,0.0,0.0,0.0,
37900,1861.2,20.3,56.0,121.1,0.0,0.0,0.0,
38000,1858.0,46.1,40.4,121.1,0.0,0.0,0.0,
38100,1863.9,87.3,30.8,121.1,0.0,0.0,0.0,
38200,1847.6,86.9,47.0,117.2,0.0,0.0,0.0,
38300,1863.9,107.0,57.5,62.5,0.0,0.0,0.0,
38400,1854.0,76.6,67.7,62.5,0.0,0.0,0.0,
38500,1859.8,118.2,74.9,62.5,0.0,0.0,0.0,
38600,1845.0,90.3,89.7,64.5,0.0,0.0,0.0,
38700,1858.5,30.0,95.2,64.5,0.0,0.0,0.0,
38900,1859.7,20.8,95.6,62.5,0.0,0.0,0.0,
39000,1860.9,19.2,95.6,60.5,0.0,0.0,0.0,
39100,1863.6,19.2,93.7,119.1,0.0,0.0,0.0,
39200,1858.8,21.7,86.6,121.1,0.0,0.0,0.0,
39300,1861.0,20.2,80.1,121.1,0.0,0.0,0.0,
39400,1860.4,18.4,71.6,121.1,0.0,0.0,0.0,
39500,1856.5,18.6,64.0,121.1,0.0,0.0,0.0,
39600,1859.2,61.5,40.8,121.1,0.0,0.0,0.0,
39700,1861.5,98.0,31.4,121.1,0.0,0.0,0.0,
39900,1851.5,118.7,69.7,58.6,0.0,0.0,0.0,
40000,1862.2,122.9,82.9,54.7,0.0,0.0,0.0,
40100,1869.0,122.8,96.1,62.5,0.0,0.0,0.0,
40200,1866.8,84.7,104.9,64.5,0.0,0.0,0.0,
40300,1863.4,26.6,108.8,64.5,0.0,0.0,0.0,
40400,1859.2,22.9,108.9,64.5,0.0,0.0,0.0,
40500,1860.8,19.5,109.0,64.5,0.0,0.0,0.0,
40600,1859.8,16.6,109.0,64.5,0.0,0.0,0.0,
40700,1859.3,18.7,107.3,121.1,0.0,0.0,0.0,
40900,1859.6,16.0,87.1,121.1,0.0,0.0,0.0,
41000,1855.6,18.1,74.5,121.1,0.0,0.0,0.0,
41100,1857.4,18.7,56.5,121.1,0.0,0.0,0.0,
41200,1856.8,35.7,37.6,121.1,0.0,0.0,0.0,
41300,1858.4,74.0,27.8,121.1,0.0,0.0,0.0,
41400,1860.4,112.9,37.5,121.1,0.0,0.0,0.0,
41500,1858.6,104.1,59.0,64.5,0.0,0.0,0.0,
41600,1859.9,134.3,74.3,64.5,0.0,0.0,0.0,
41700,1849.8,94.7,88.2,64.5,0.0,0.0,0.0,
41900,1861.0,31.4,102.1,64.5,0.0,0.0,0.0,
42000,1858.7,21.9,103.4,64.5,0.0,0.0,0.0,
42100,1863.0,20.2,103.5,64.5,0.0,0.0,0.0,
42200,1861.7,18.9,103.5,66.4,0.0,0.0,0.0,
42300,1863.3,18.7,102.6,119.1,0.0,0.0,0.0,
42400,1860.1,22.0,99.3,121.1,0.0,0.0,0.0,
42500,1860.0,19.9,88.2,121.1,0.0,0.0,0.0,
42600,1859.6,19.1,75.8,121.1,0.0,0.0,0.0,
42700,1859.7,17.5,59.0,121.1,0.0,0.0,0.0,
42900,1866.1,92.2,31.6,121.1,0.0,0.0,0.0,
43000,1841.0,93.8,47.8,119.1,0.0,0.0,0.0,
43100,1849.9,125.0,62.3,64.5,0.0,0.0,0.0,
43200,1858.3,95.7,72.8,62.5,0.0,0.0,0.0,
43300,1860.4,77.0,81.5,62.5,0.0,0.0,0.0,
43400,1853.9,78.5,87.0,33.2,0.0,0.0,0.0,
43500,1849.0,50.5,92.8,64.5,0.0,0.0,0.0,
43600,1860.0,70.5,95.1,64.5,0.0,0.0,0.0,
43700,1861.1,60.2,98.8,64.5,0.0,0.0,0.0,
43900,1857.3,19.0,100.9,68.4,0.0,0.0,0.0,
44000,1858.6,19.4,93.1,68.4,0.0,0.0,0.0,
44100,1864.2,20.2,84.0,72.3,0.0,0.0,0.0,
44200,1863.4,20.7,75.1,121.1,0.0,0.0,0.0,
44300,1860.0,19.9,65.4,121.1,0.0,0.0,0.0,
44400,1857.1,21.6,58.1,121.1,0.0,0.0,0.0,
44500,1856.2,73.7,48.3,121.1,0.0,0.0,0.0,
44600,1864.3,104.6,52.6,121.1,0.0,0.0,0.0,
44700,1853.7,121.6,61.2,68.4,0.0,0.0,0.0,
44900,1858.8,138.7,86.8,64.5,0.0,0.0,0.0,
45000,1855.7,94.9,99.7,64.5,0.0,0.0,0.0,
45100,1865.7,86.0,107.0,64.5,0.0,0.0,0.0,
45200,1848.5,33.8,113.7,64.5,0.0,0.0,0.0,
45300,1856.3,26.2,114.0,64.5,0.0,0.0,0.0,
45400,1859.5,20.8,114.2,56.6,0.0,0.0,0.0,
45500,1858.6,17.8,114.1,56.6,0.0,0.0,0.0,
45600,1860.8,17.6,110.2,111.3,0.0,0.0,0.0,
45700,1859.4,17.8,102.2,121.1,0.0,0.0,0.0,
45900,1856.4,19.6,77.9,121.1,0.0,0.0,0.0,
46000,1855.5,16.8,60.4,121.1,0.0,0.0,0.0,
46100,1857.2,73.9,46.2,121.1,0.0,0.0,0.0,
46200,1859.8,92.6,39.3,121.1,0.0,0.0,0.0,
46300,1865.5,132.3,51.3,60.5,0.0,0.0,0.0,
46400,1861.6,115.1,69.7,35.2,0.0,0.0,0.0,
46500,1853.2,88.8,85.7,52.7,0.0,0.0,0.0,
46600,1855.1,91.1,93.2,64.5,0.0,0.0,0.0,
46700,1860.1,33.9,98.1,64.5,0.0,0.0,0.0,
46900,1858.9,19.9,99.6,64.5,0.0,0.0,0.0,
47000,1862.1,18.6,99.6,64.5,0.0,0.0,0.0,
47100,1862.8,20.5,99.6,97.7,0.0,0.0,0.0,
47200,1863.8,21.1,95.1,121.1,0.0,0.0,0.0,
47300,1860.1,17.9,88.8,121.1,0.0,0.0,0.0,
47400,1860.2,20.3,74.9,121.1,0.0,0.0,0.0,
47500,1857.3,20.7,55.8,121.1,0.0,0.0,0.0,
47600,1858.8,21.6,42.3,121.1,0.0,0.0,0.0,
47700,1855.5,76.1,30.3,121.1,0.0,0.0,0.0,
47900,1856.6,114.0,53.8,62.5,0.0,0.0,0.0,
48000,1869.2,113.0,68.5,35.2,0.0,0.0,0.0,
48100,1863.2,76.6,78.7,62.5,0.0,0.0,0.0,
48200,1864.8,69.4,85.5,64.5,0.0,0.0,0.0,
48300,1855.3,43.1,90.8,62.5,0.0,0.0,0.0,
48400,1861.8,28.4,93.0,52.7,0.0,0.0,0.0,
48500,1856.9,26.1,93.4,37.1,0.0,0.0,0.0,
48600,1858.5,21.8,93.5,60.5,0.0,0.0,0.0,
48700,1862.9,26.4,93.3,72.3,0.0,0.0,0.0,
48900,1856.8,21.4,80.7,121.1,0.0,0.0,0.0,
49000,1858.4,21.1,68.7,121.1,0.0,0.0,0.0,
49100,1855.4,31.3,56.9,121.1,0.0,0.0,0.0,
49200,1858.8,24.5,46.9,121.1,0.0,0.0,0.0,
49300,1859.7,76.5,36.0,119.1,0.0,0.0,0.0,
49400,1858.7,93.1,40.1,119.1,0.0,0.0,0.0,
49500,1863.4,103.9,58.8,66.4,0.0,0.0,0.0,
49600,1843.5,105.0,77.4,62.5,0.0,0.0,0.0,
49700,1855.2,104.6,87.9,64.5,0.0,0.0,0.0,
49900,1857.4,49.8,98.5,64.5,0.0,0.0,0.0,
50000,1858.3,24.7,100.2,62.5,0.0,0.0,0.0,
50100,1862.3,21.1,100.3,62.5,0.0,0.0,0.0,
50200,1861.9,22.1,100.0,62.5,0.0,0.0,0.0,
50300,1863.9,21.2,99.9,105.5,0.0,0.0,0.0,
50400,1860.8,22.4,96.3,119.1,0.0,0.0,0.0,
50500,1859.2,23.1,85.9,121.1,0.0,0.0,0.0,
50600,1857.8,22.9,69.6,121.1,0.0,0.0,0.0,
50700,1858.7,50.9,55.8,121.1,0.0,0.0,0.0,
50900,1857.6,111.8,41.7,107.4,0.0,0.0,0.0,
51000,1847.8,140.2,60.2,85.9,0.0,0.0,0.0,
51100,1857.6,140.6,76.8,68.4,0.0,0.0,0.0,
51200,1855.4,131.2,93.9,64.5,0.0,0.0,0.0,
51300,1860.8,113.4,108.0,64.5,0.0,0.0,0.0,
51400,1843.7,87.3,117.6,64.5,0.0,0.0,0.0,
51500,1854.6,46.2,121.9,64.5,0.0,0.0,0.0,
51600,1860.0,24.8,124.3,64.5,0.0,0.0,0.0,
51700,1859.2,20.3,124.3,66.4,0.0,0.0,0.0,
51900,1864.1,20.0,121.7,119.1,0.0,0.0,0.0,
52000,1862.7,19.2,112.1,119.1,0.0,0.0,0.0,
52100,1858.3,18.4,101.3,121.1,0.0,0.0,0.0,
52200,1858.6,22.3,85.7,121.1,0.0,0.0,0.0,
52300,1859.9,30.3,66.9,121.1,0.0,0.0,0.0,
52400,1858.5,38.8,48.9,119.1,0.0,0.0,0.0,
52500,1856.3,79.5,38.7,119.1,0.0,0.0,0.0,
52600,1862.6,118.8,41.6,119.1,0.0,0.0,0.0,
52700,1841.4,125.2,70.1,74.2,0.0,0.0,0.0,
52900,1859.3,90.8,92.8,64.5,0.0,0.0,0.0,
53000,1852.0,89.4,99.2,64.5,0.0,0.0,0.0,
53100,1854.4,64.5,105.0,64.5,0.0,0.0,0.0,
53200,1856.6,26.8,109.7,64.5,0.0,0.0,0.0,
53300,1854.1,21.3,110.0,64.5,0.0,0.0,0.0,
53400,1860.2,21.0,109.7,64.5,0.0,0.0,0.0,
53500,1860.0,21.1,109.0,66.4,0.0,0.0,0.0,
53600,1861.4,19.7,105.1,119.1,0.0,0.0,0.0,
53700,1860.8,21.2,88.6,121.1,0.0,0.0,0.0,
53900,1857.3,19.9,64.7,121.1,0.0,0.0,0.0,
54000,1858.0,20.9,54.5,121.1,0.0,0.0,0.0,
54100,1857.5,51.3,42.2,121.1,0.0,0.0,0.0,
54200,1858.3,75.8,31.7,121.1,0.0,0.0,0.0,
54300,1872.3,117.3,44.1,119.1,0.0,0.0,0.0,
54400,1855.4,128.8,65.0,60.5,0.0,0.0,0.0,
54500,1854.3,120.3,86.0,41.0,0.0,0.0,0.0,
54600,1867.3,119.4,97.3,62.5,0.0,0.0,0.0,
54700,1864.5,78.2,105.1,62.5,0.0,0.0,0.0,
54900,1859.0,22.3,109.8,64.5,0.0,0.0,0.0,
55000,1858.6,21.5,109.8,56.6,0.0,0.0,0.0,
55100,1860.8,21.9,109.8,60.5,0.0,0.0,0.0,
55200,1861.6,24.3,108.8,119.1,0.0,0.0,0.0,
55300,1861.8,23.0,104.1,121.1,0.0,0.0,0.0,
55400,1858.2,20.9,92.6,121.1,0.0,0.0,0.0,
55500,1858.6,23.1,73.5,121.1,0.0,0.0,0.0,
55600,1859.8,29.6,57.7,121.1,0.0,0.0,0.0,
55700,1857.1,39.6,42.4,121.1,0.0,0.0,0.0,
55900,1857.3,91.6,45.3,119.1,0.0,0.0,0.0,
56000,1857.7,128.8,62.5,64.5,0.0,0.0,0.0,
56100,1867.8,104.5,79.3,64.5,0.0,0.0,0.0,
56200,1852.2,100.5,90.2,64.5,0.0,0.0,0.0,
56300,1857.8,111.2,100.2,64.5,0.0,0.0,0.0,
56400,1858.6,42.6,105.9,64.5,0.0,0.0,0.0,
56500,1858.3,25.9,106.8,64.5,0.0,0.0,0.0,
56600,1859.5,21.5,106.7,62.5,0.0,0.0,0.0,
56700,1861.3,23.9,106.6,64.5,0.0,0.0,0.0,
56900,1859.3,21.6,100.4,119.1,0.0,0.0,0.0,
57000,1861.1,23.9,90.7,121.1,0.0,0.0,0.0,
57100,1859.1,20.8,76.7,121.1,0.0,0.0,0.0,
57200,1859.9,25.5,63.5,121.1,0.0,0.0,0.0,
57300,1862.3,32.4,46.2,121.1,0.0,0.0,0.0,
57400,1860.5,93.9,33.8,121.1,0.0,0.0,0.0,
57500,1843.8,109.6,47.6,119.1,0.0,0.0,0.0,
57600,1847.5,109.1,63.7,66.4,0.0,0.0,0.0,
57700,1854.6,104.5,74.6,64.5,0.0,0.0,0.0,
57900,1855.9,91.0,97.6,64.5,0.0,0.0,0.0,
58000,1849.7,37.6,103.7,64.5,0.0,0.0,0.0,
58100,1860.7,25.3,104.2,64.5,0.0,0.0,0.0,
58200,1859.7,21.6,104.3,64.5,0.0,0.0,0.0,
58300,1858.8,20.9,104.2,64.5,0.0,0.0,0.0,
58400,1863.7,19.9,103.3,119.1,0.0,0.0,0.0,
58500,1861.6,20.8,96.7,121.1,0.0,0.0,0.0,
58600,1858.7,22.7,86.9,121.1,0.0,0.0,0.0,
58700,1858.8,20.8,77.7,121.1,0.0,0.0,0.0,
58900,1860.5,20.5,45.4,121.1,0.0,0.0,0.0,
59000,1854.4,85.0,29.2,121.1,0.0,0.0,0.0,
59100,1858.8,97.8,40.8,119.1,0.0,0.0,0.0,
59200,1855.8,120.6,56.3,64.5,0.0,0.0,0.0,
59300,1839.1,142.3,73.0,62.5,0.0,0.0,0.0,
59400,1854.7,156.5,90.8,64.5,0.0,0.0,0.0,
59500,1856.2,88.5,109.3,64.5,0.0,0.0,0.0,
59600,1860.8,44.9,116.7,64.5,0.0,0.0,0.0,
59700,1851.6,22.3,118.7,64.5,0.0,0.0,0.0,
59900,1857.5,18.9,118.6,64.5,0.0,0.0,0.0,
60000,1858.9,18.5,118.4,85.9,0.0,0.0,0.0,
60100,1858.5,16.8,114.3,121.1,0.0,0.0,0.0,
60200,1856.4,18.9,107.3,121.1,0.0,0.0,0.0,
60300,1858.1,18.5,96.7,121.1,0.0,0.0,0.0,
60400,1858.2,22.8,80.1,121.1,0.0,0.0,0.0,
60500,1858.1,30.0,52.2,121.1,0.0,0.0,0.0,
60600,1856.4,68.2,32.9,121.1,0.0,0.0,0.0,
60700,1859.4,92.4,35.4,119.1,0.0,0.0,0.0,
60900,1866.6,92.5,66.9,62.5,0.0,0.0,0.0,
61000,1856.9,114.4,78.0,62.5,0.0,0.0,0.0,
61100,1849.3,124.5,91.8,62.5,0.0,0.0,0.0,
61200,1864.3,87.3,102.0,64.5,0.0,0.0,0.0,
61300,1862.8,76.8,110.0,62.5,0.0,0.0,0.0,
61400,1855.0,44.1,114.1,56.6,0.0,0.0,0.0,
61500,1866.2,25.4,116.5,56.6,0.0,0.0,0.0,
61600,1852.3,24.2,117.1,60.5,0.0,0.0,0.0,
61700,1859.5,18.9,114.3,58.6,0.0,0.0,0.0,
61900,1862.0,18.4,99.2,119.1,0.0,0.0,0.0,
62000,1859.2,21.0,90.8,121.1,0.0,0.0,0.0,
62100,1854.8,20.1,76.9,121.1,0.0,0.0,0.0,
62200,1856.8,68.0,62.9,121.1,0.0,0.0,0.0,
62300,1866.4,105.7,53.1,121.1,0.0,0.0,0.0,
62400,1855.3,131.9,58.9,119.1,0.0,0.0,0.0,
62500,1862.5,119.1,71.5,68.4,0.0,0.0,0.0,
62600,1865.3,81.9,80.9,62.5,0.0,0.0,0.0,
62700,1870.4,93.3,88.2,58.6,0.0,0.0,0.0,
62900,1862.8,22.1,98.5,54.7,0.0,0.0,0.0,
63000,1861.0,24.5,98.5,54.7,0.0,0.0,0.0,
63100,1864.5,21.1,98.6,48.8,0.0,0.0,0.0,
63200,1863.2,20.8,98.6,62.5,0.0,0.0,0.0,
63300,1863.5,21.0,95.8,121.1,0.0,0.0,0.0,
63400,1863.3,21.3,87.2,121.1,0.0,0.0,0.0,
63500,1861.6,18.8,73.6,121.1,0.0,0.0,0.0,
63600,1863.3,25.8,61.7,121.1,0.0,0.0,0.0,
63700,1860.8,34.8,50.9,121.1,0.0,0.0,0.0,
63900,1857.5,109.2,42.8,119.1,0.0,0.0,0.0,
64000,1869.0,109.8,65.5,68.4,0.0,0.0,0.0,
64100,1856.0,107.4,82.1,58.6,0.0,0.0,0.0,
64200,1859.7,114.7,92.2,62.5,0.0,0.0,0.0,
64300,1869.2,89.4,101.5,62.5,0.0,0.0,0.0,
64400,1869.8,40.4,107.3,64.5,0.0,0.0,0.0,
64500,1858.4,22.3,109.3,54.7,0.0,0.0,0.0,
64600,1860.4,20.3,109.3,35.2,0.0,0.0,0.0,
64700,1863.3,17.8,109.1,56.6,0.0,0.0,0.0,
64900,1861.0,20.9,103.6,121.1,0.0,0.0,0.0,
65000,1859.2,17.7,91.0,121.1,0.0,0.0,0.0,
65100,1857.1,21.5,76.1,121.1,0.0,0.0,0.0,
65200,1858.5,34.7,63.4,121.1,0.0,0.0,0.0,
65300,1858.6,83.9,48.3,121.1,0.0,0.0,0.0,
65400,1852.5,162.4,45.9,119.1,0.0,0.0,0.0,
65500,1851.5,147.0,74.7,78.1,0.0,0.0,0.0,
65600,1856.2,167.9,87.6,68.4,0.0,0.0,0.0,
65700,1872.5,119.8,105.4,64.5,0.0,0.0,0.0,
65900,1844.9,95.6,128.9,64.5,0.0,0.0,0.0,
66000,1862.5,59.3,134.2,64.5,0.0,0.0,0.0,
66100,1861.1,24.9,137.8,64.5,0.0,0.0,0.0,
66200,1859.8,20.9,137.9,80.1,0.0,0.0,0.0,
66300,1863.2,18.7,137.5,95.7,0.0,0.0,0.0,
66400,1863.1,22.4,133.8,99.6,0.0,0.0,0.0,
66500,1862.2,19.1,118.3,119.1,0.0,0.0,0.0,
66600,1860.1,16.7,109.0,121.1,0.0,0.0,0.0,
66700,1858.7,16.8,91.8,121.1,0.0,0.0,0.0,
66900,1859.4,29.6,54.2,121.1,0.0,0.0,0.0,
67000,1855.3,69.8,40.4,121.1,0.0,0.0,0.0,
67100,1861.5,100.8,37.9,119.1,0.0,0.0,0.0,
67200,1839.4,132.3,57.7,95.7,0.0,0.0,0.0,
67300,1851.1,105.6,80.0,84.0,0.0,0.0,0.0,
67400,1849.9,108.5,92.5,66.4,0.0,0.0,0.0,
67500,1854.3,112.9,102.5,66.4,0.0,0.0,0.0,
67600,1861.5,78.3,113.1,84.0,0.0,0.0,0.0,
67700,1855.3,26.1,118.0,95.7,0.0,0.0,0.0,
67900,1858.2,18.1,118.2,97.7,0.0,0.0,0.0,
68000,1860.7,20.1,117.9,99.6,0.0,0.0,0.0,
68100,1864.5,20.5,114.6,121.1,0.0,0.0,0.0,
68200,1860.6,26.9,105.9,121.1,0.0,0.0,0.0,
68300,1858.3,28.6,90.4,121.1,0.0,0.0,0.0,
68400,1861.5,21.6,78.0,121.1,0.0,0.0,0.0,
68500,1857.5,26.1,64.5,119.1,0.0,0.0,0.0,
68600,1862.6,50.5,44.0,119.1,0.0,0.0,0.0,
68700,1863.1,89.2,32.9,119.1,0.0,0.0,0.0,
68900,1851.8,95.8,66.4,58.6,0.0,0.0,0.0,
69000,1856.8,86.4,76.4,48.8,0.0,0.0,0.0,
69100,1867.3,87.2,86.4,56.6,0.0,0.0,0.0,
69200,1864.8,76.0,92.8,56.6,0.0,0.0,0.0,
69300,1855.6,27.3,97.2,64.5,0.0,0.0,0.0,
69400,1859.0,24.3,97.0,70.3,0.0,0.0,0.0,
69500,1861.8,16.6,96.9,64.5,0.0,0.0,0.0,
69600,1860.5,15.8,96.6,66.4,0.0,0.0,0.0,
69700,1865.0,16.3,95.1,119.1,0.0,0.0,0.0,
69900,1861.3,18.7,75.2,119.1,0.0,0.0,0.0,
70000,1861.5,22.5,64.9,119.1,0.0,0.0,0.0,
70100,1857.0,21.4,51.1,119.1,0.0,0.0,0.0,
70200,1862.2,56.2,38.7,119.1,0.0,0.0,0.0,
70300,1863.1,95.8,33.3,119.1,0.0,0.0,0.0,
70400,1845.3,136.3,52.8,95.7,0.0,0.0,0.0,
70500,1856.5,140.2,76.7,78.1,0.0,0.0,0.0,
70600,1853.5,131.5,93.6,66.4,0.0,0.0,0.0,
70700,1848.3,92.2,103.9,62.5,0.0,0.0,0.0,
70900,1858.0,30.3,119.5,64.5,0.0,0.0,0.0,
71000,1864.9,15.6,119.8,64.5,0.0,0.0,0.0,
71100,1858.9,13.5,119.6,62.5,0.0,0.0,0.0,
71200,1861.2,16.6,119.4,62.5,0.0,0.0,0.0,
71300,1859.9,19.3,117.3,95.7,0.0,0.0,0.0,
71400,1861.3,16.9,109.7,121.1,0.0,0.0,0.0,
71500,1862.5,16.8,94.5,121.1,0.0,0.0,0.0,
71600,1857.6,17.3,77.7,121.1,0.0,0.0,0.0,
71700,1859.2,19.7,63.4,121.1,0.0,0.0,0.0,
71900,1868.2,115.2,27.4,119.1,0.0,0.0,0.0,
72000,1855.3,114.5,54.5,76.2,0.0,0.0,0.0,
72100,1860.4,140.1,69.8,43.0,0.0,0.0,0.0,
72200,1867.9,122.4,86.2,35.2,0.0,0.0,0.0,
72300,1874.8,96.5,100.5,33.2,0.0,0.0,0.0,
72400,1862.3,115.3,107.3,33.2,0.0,0.0,0.0,
72500,1861.8,29.7,115.4,35.2,0.0,0.0,0.0,
72600,1862.7,18.0,115.7,70.3,0.0,0.0,0.0,
72700,1859.1,18.2,115.7,95.7,0.0,0.0,0.0,
72900,1860.3,14.7,114.7,99.6,0.0,0.0,0.0,
73000,1861.1,13.1,104.2,121.1,0.0,0.0,0.0,
73100,1858.0,17.3,94.6,121.1,0.0,0.0,0.0,
73200,1859.7,17.0,80.1,121.1,0.0,0.0,0.0,
73300,1859.2,28.5,61.1,121.1,0.0,0.0,0.0,
73400,1858.1,20.9,48.9,121.1,0.0,0.0,0.0,
73500,1857.0,124.3,24.9,119.1,0.0,0.0,0.0,
73600,1869.9,116.9,58.0,72.3,0.0,0.0,0.0,
73700,1856.8,150.6,78.1,35.2,0.0,0.0,0.0,
73900,1855.2,146.1,119.0,46.9,0.0,0.0,0.0,
74000,1862.0,112.4,136.5,95.7,0.0,0.0,0.0,
74100,1853.5,30.1,152.9,97.7,0.0,0.0,0.0,
74200,1861.5,16.6,153.1,97.7,0.0,0.0,0.0,
74300,1860.7,17.9,153.1,97.7,0.0,0.0,0.0,
74400,1861.4,14.9,152.9,97.7,0.0,0.0,0.0,
74500,1863.8,17.5,152.8,107.4,0.0,0.0,0.0,
74600,1864.0,20.2,143.3,121.1,0.0,0.0,0.0,
74700,1863.5,19.2,133.6,121.1,0.0,0.0,0.0,
74900,1861.0,48.3,99.2,115.2,0.0,0.0,0.0,
75000,1856.9,39.7,75.0,115.2,0.0,0.0,0.0,
75100,1862.0,127.9,34.1,84.0,0.0,0.0,0.0,
75200,1846.7,138.0,57.9,72.3,0.0,0.0,0.0,
75300,1857.6,112.8,74.2,64.5,0.0,0.0,0.0,
75400,1858.0,134.3,88.4,64.5,0.0,0.0,0.0,
75500,1858.2,147.3,103.6,64.5,0.0,0.0,0.0,
75600,1839.5,139.7,118.7,89.8,0.0,0.0,0.0,
75700,1855.9,52.7,131.3,95.7,0.0,0.0,0.0,
75900,1856.8,17.3,136.5,97.7,0.0,0.0,0.0,
76000,1861.2,15.9,135.7,97.7,0.0,0.0,0.0,
76100,1861.7,15.7,134.7,95.7,0.0,0.0,0.0,
76200,1860.7,17.2,125.9,119.1,0.0,0.0,0.0,
76300,1863.1,17.4,117.1,121.1,0.0,0.0,0.0,
76400,1857.3,15.9,106.8,121.1,0.0,0.0,0.0,
76500,1860.2,16.3,92.2,121.1,0.0,0.0,0.0,
76600,1861.7,33.6,71.5,121.1,0.0,0.0,0.0,
76700,1856.7,68.3,44.9,121.1,0.0,0.0,0.0,
76900,1848.0,144.1,56.1,80.1,0.0,0.0,0.0,
77000,1861.5,136.4,77.5,64.5,0.0,0.0,0.0,
77100,1868.9,140.9,92.8,54.7,0.0,0.0,0.0,
77200,1859.4,175.2,112.8,56.6,0.0,0.0,0.0,
77300,1844.4,54.8,130.3,64.5,0.0,0.0,0.0,
77400,1864.6,35.3,134.1,95.7,0.0,0.0,0.0,
77500,1860.7,16.5,134.8,95.7,0.0,0.0,0.0,
77600,1861.9,22.4,134.8,95.7,0.0,0.0,0.0,
77700,1858.3,29.2,134.7,93.8,0.0,0.0,0.0,
77900,1860.3,27.3,125.4,101.6,0.0,0.0,0.0,
78000,1860.7,16.1,113.7,97.7,0.0,0.0,0.0,
78100,1858.5,21.9,101.6,119.1,0.0,0.0,0.0,
78200,1855.9,24.2,79.1,119.1,0.0,0.0,0.0,
78300,1858.7,84.7,44.9,111.3,0.0,0.0,0.0,
78400,1875.1,122.2,48.6,105.5,0.0,0.0,0.0,
78500,1874.1,158.5,70.8,130.9,0.0,0.0,0.0,
78600,1864.5,164.4,95.5,95.7,0.0,0.0,0.0,
78700,1867.3,139.2,115.8,74.2,0.0,0.0,0.0,
78900,1877.7,51.0,134.3,64.5,0.0,0.0,0.0,
79000,1863.2,16.6,137.4,64.5,0.0,0.0,0.0,
79100,1861.0,14.5,137.3,35.2,0.0,0.0,0.0,
79200,1861.0,14.6,137.2,35.2,0.0,0.0,0.0,
79300,1859.6,15.3,137.0,39.1,0.0,0.0,0.0,
79400,1858.9,14.4,132.0,121.1,0.0,0.0,0.0,
79500,1858.1,16.4,120.7,121.1,0.0,0.0,0.0,
79600,1860.2,14.8,102.3,121.1,0.0,0.0,0.0,
79700,1858.8,14.2,78.3,121.1,0.0,0.0,0.0,
79900,1858.0,105.6,35.7,121.1,0.0,0.0,0.0,
80000,1849.8,197.5,47.5,121.1,0.0,0.0,0.0,
80100,1861.5,228.2,85.5,56.6,0.0,0.0,0.0,
80200,1883.2,186.4,135.4,60.5,0.0,0.0,0.0,
80300,1857.5,210.6,162.4,95.7,0.0,0.0,0.0,
80400,1862.6,171.0,181.6,97.7,0.0,0.0,0.0,
80500,1872.8,77.8,193.9,97.7,0.0,0.0,0.0,
80600,1873.8,18.8,199.7,97.7,0.0,0.0,0.0,
80700,1860.8,15.2,199.7,97.7,0.0,0.0,0.0,
80900,1861.1,13.9,199.6,99.6,0.0,0.0,0.0,
81000,1856.5,14.2,194.9,119.1,0.0,0.0,0.0,
81100,1856.1,13.4,181.4,121.1,0.0,0.0,0.0,
81200,1856.9,16.1,147.9,121.1,0.0,0.0,0.0,
81300,1861.8,14.6,117.7,121.1,0.0,0.0,0.0,
81400,1861.3,17.2,85.2,121.1,0.0,0.0,0.0,
81500,1859.9,49.3,51.6,121.1,0.0,0.0,0.0,
81600,1858.5,199.7,50.9,119.1,0.0,0.0,0.0,
81700,1849.6,258.4,103.3,95.7,0.0,0.0,0.0,
81900,1863.0,162.1,159.0,97.7,0.0,0.0,0.0,
82000,1862.4,158.6,180.7,97.7,0.0,0.0,0.0,
82100,1858.2,116.3,196.0,97.7,0.0,0.0,0.0,
82200,1859.0,23.2,205.6,97.7,0.0,0.0,0.0,
82300,1861.2,17.1,205.7,97.7,0.0,0.0,0.0,
82400,1859.9,16.0,205.7,97.7,0.0,0.0,0.0,
82500,1860.7,14.5,205.7,99.6,0.0,0.0,0.0,
82600,1863.5,18.5,200.3,119.1,0.0,0.0,0.0,
82700,1860.6,14.8,178.9,121.1,0.0,0.0,0.0,
82900,1859.3,17.9,131.9,121.1,0.0,0.0,0.0,
83000,1860.3,16.1,100.2,121.1,0.0,0.0,0.0,
83100,1857.2,80.1,65.4,121.1,0.0,0.0,0.0,
83200,1860.5,187.3,33.9,121.1,0.0,0.0,0.0,
83300,1865.3,154.2,93.6,93.8,0.0,0.0,0.0,
83400,1865.8,146.6,117.9,95.7,0.0,0.0,0.0,
83500,1845.0,190.2,133.7,97.7,0.0,0.0,0.0,
83600,1863.1,174.5,155.0,97.7,0.0,0.0,0.0,
83700,1879.5,134.3,176.3,97.7,0.0,0.0,0.0,
83900,1863.4,14.7,187.7,127.0,0.0,0.0,0.0,
84000,1864.0,13.0,187.7,127.0,0.0,0.0,0.0,
84100,1861.0,14.0,187.7,121.1,0.0,0.0,0.0,
84200,1857.4,16.6,185.7,121.1,0.0,0.0,0.0,
84300,1861.9,20.9,164.0,121.1,0.0,0.0,0.0,
84400,1867.1,26.9,147.6,119.1,0.0,0.0,0.0,
84500,1866.0,31.6,133.8,119.1,0.0,0.0,0.0,
84600,1855.9,52.0,109.0,99.6,0.0,0.0,0.0,
84700,1861.2,44.6,72.2,80.1,0.0,0.0,0.0,
84900,1862.4,138.3,59.5,68.4,0.0,0.0,0.0,
85000,1859.3,132.0,74.8,64.5,0.0,0.0,0.0,
85100,1864.3,124.8,90.0,64.5,0.0,0.0,0.0,
85200,1854.7,113.9,112.5,64.5,0.0,0.0,0.0,
85300,1848.2,140.2,123.6,64.5,0.0,0.0,0.0,
85400,1863.7,33.2,134.3,64.5,0.0,0.0,0.0,
85500,1865.3,17.1,134.2,64.5,0.0,0.0,0.0,
85600,1860.9,16.0,133.9,62.5,0.0,0.0,0.0,
85700,1862.1,13.2,132.3,62.5,0.0,0.0,0.0,
85900,1858.6,21.8,122.6,121.1,0.0,0.0,0.0,
86000,1861.5,18.1,114.1,121.1,0.0,0.0,0.0,
86100,1857.9,26.5,102.7,121.1,0.0,0.0,0.0,
86200,1860.7,30.5,77.9,119.1,0.0,0.0,0.0,
86300,1857.4,25.5,60.1,117.2,0.0,0.0,0.0,
86400,1866.5,139.8,32.8,91.8,0.0,0.0,0.0,
86500,1848.3,138.6,68.4,66.4,0.0,0.0,0.0,
86600,1842.9,147.4,89.6,58.6,0.0,0.0,0.0,
86700,1855.9,157.3,109.1,58.6,0.0,0.0,0.0,
86900,1869.4,101.4,129.2,64.5,0.0,0.0,0.0,
87000,1849.7,71.0,136.0,64.5,0.0,0.0,0.0,
87100,1861.7,26.7,138.7,64.5,0.0,0.0,0.0,
87200,1862.7,18.8,139.3,64.5,0.0,0.0,0.0,
87300,1865.8,17.8,138.7,64.5,0.0,0.0,0.0,
87400,1863.0,13.3,137.7,66.4,0.0,0.0,0.0,
87500,1859.8,16.2,123.6,84.0,0.0,0.0,0.0,
87600,1858.4,16.0,109.1,121.1,0.0,0.0,0.0,
87700,1858.8,17.8,89.7,121.1,0.0,0.0,0.0,
87900,1854.3,22.9,58.2,121.1,0.0,0.0,0.0,
88000,1857.2,60.0,39.9,97.7,0.0,0.0,0.0,
88100,1858.8,98.0,38.9,85.9,0.0,0.0,0.0,
88200,1867.9,124.5,52.3,89.8,0.0,0.0,0.0,
88300,1833.2,105.7,74.2,64.5,0.0,0.0,0.0,
88400,1850.9,110.8,86.6,60.5,0.0,0.0,0.0,
88500,1858.8,100.3,95.8,62.5,0.0,0.0,0.0,
88600,1863.7,46.0,102.8,62.5,0.0,0.0,0.0,
88700,1863.5,45.8,105.3,64.5,0.0,0.0,0.0,
88900,1860.5,78.0,112.0,64.5,0.0,0.0,0.0,
89000,1862.2,20.4,114.9,68.4,0.0,0.0,0.0,
89100,1859.5,16.4,112.2,66.4,0.0,0.0,0.0,
89200,1861.7,12.4,105.4,62.5,0.0,0.0,0.0,
89300,1861.2,14.9,91.2,60.5,0.0,0.0,0.0,
89400,1860.4,13.6,79.4,78.1,0.0,0.0,0.0,
89500,1861.3,14.9,68.1,127.0,0.0,0.0,0.0,
89600,1861.6,57.3,57.0,123.0,0.0,0.0,0.0,
89700,1856.4,106.6,58.1,121.1,0.0,0.0,0.0,
89900,1859.6,116.6,79.0,35.2,0.0,0.0,0.0,
90000,1861.4,97.0,89.8,62.5,0.0,0.0,0.0,
90100,1847.6,109.8,99.2,64.5,0.0,0.0,0.0,
90200,1857.7,33.3,107.0,64.5,0.0,0.0,0.0,
90300,1863.1,19.4,109.4,64.5,0.0,0.0,0.0,
90400,1859.7,14.6,109.4,62.5,0.0,0.0,0.0,
90500,1859.3,13.8,109.5,62.5,0.0,0.0,0.0,
90600,1858.5,14.8,109.5,64.5,0.0,0.0,0.0,
90700,1859.6,17.1,106.4,121.1,0.0,0.0,0.0,
90900,1855.1,17.4,83.2,121.1,0.0,0.0,0.0,
91000,1859.3,19.5,66.2,121.1,0.0,0.0,0.0,
91100,1860.2,23.4,50.6,119.1,0.0,0.0,0.0,
91200,1856.8,129.6,32.0,119.1,0.0,0.0,0.0,
91300,1869.8,154.2,53.7,80.1,0.0,0.0,0.0,
91400,1838.2,139.0,85.4,62.5,0.0,0.0,0.0,
91500,1856.4,146.4,99.8,62.5,0.0,0.0,0.0,
91600,1858.6,146.8,111.8,62.5,0.0,0.0,0.0,
91700,1857.2,118.7,122.7,33.2,0.0,0.0,0.0,
91900,1863.0,20.6,132.8,64.5,0.0,0.0,0.0,
92000,1859.0,17.1,133.0,58.6,0.0,0.0,0.0,
92100,1864.9,13.3,133.0,50.8,0.0,0.0,0.0,
92200,1863.8,15.2,132.7,56.6,0.0,0.0,0.0,
92300,1863.1,15.3,123.4,119.1,0.0,0.0,0.0,
92400,1861.3,14.6,104.0,121.1,0.0,0.0,0.0,
92500,1862.7,14.5,90.2,121.1,0.0,0.0,0.0,
92600,1860.8,14.3,74.9,121.1,0.0,0.0,0.0,
92700,1861.2,13.2,55.1,121.1,0.0,0.0,0.0,
92900,1861.7,106.4,37.8,121.1,0.0,0.0,0.0,
93000,1879.7,132.2,60.0,62.5,0.0,0.0,0.0,
93100,1859.9,115.7,83.8,44.9,0.0,0.0,0.0,
93200,1849.3,120.3,97.4,52.7,0.0,0.0,0.0,
93300,1860.8,137.4,107.4,58.6,0.0,0.0,0.0,
93400,1867.8,68.0,122.1,62.5,0.0,0.0,0.0,
93500,1861.5,26.5,126.6,72.3,0.0,0.0,0.0,
93600,1859.1,18.8,126.8,93.8,0.0,0.0,0.0,
93700,1862.5,17.5,126.8,93.8,0.0,0.0,0.0,
93900,1860.9,17.7,122.9,119.1,0.0,0.0,0.0,
94000,1860.8,18.6,113.4,121.1,0.0,0.0,0.0,
94100,1858.5,21.8,97.3,121.1,0.0,0.0,0.0,
94200,1859.8,40.3,83.9,121.1,0.0,0.0,0.0,
94300,1857.5,39.2,71.9,119.1,0.0,0.0,0.0,
94400,1854.0,215.1,45.2,119.1,0.0,0.0,0.0,
94500,1850.3,196.2,79.7,115.2,0.0,0.0,0.0,
94600,1866.0,159.1,107.2,99.6,0.0,0.0,0.0,
94700,1868.3,170.4,133.3,97.7,0.0,0.0,0.0,
94900,1859.7,169.0,160.1,97.7,0.0,0.0,0.0,
95000,1857.7,78.6,172.6,97.7,0.0,0.0,0.0,
95100,1869.8,24.7,177.6,95.7,0.0,0.0,0.0,
95200,1861.2,15.4,177.6,95.7,0.0,0.0,0.0,
95300,1859.3,17.1,177.1,95.7,0.0,0.0,0.0,
95400,1860.2,18.6,176.5,97.7,0.0,0.0,0.0,
95500,1861.2,17.7,160.3,119.1,0.0,0.0,0.0,
95600,1858.7,18.2,143.3,121.1,0.0,0.0,0.0,
95700,1860.2,15.0,119.5,121.1,0.0,0.0,0.0,
95900,1858.1,23.0,80.2,121.1,0.0,0.0,0.0,
96000,1856.2,128.5,48.6,121.1,0.0,0.0,0.0,
96100,1858.9,215.8,75.7,119.1,0.0,0.0,0.0,
96200,1844.5,178.7,117.5,95.7,0.0,0.0,0.0,
96300,1849.5,138.4,137.5,95.7,0.0,0.0,0.0,
96400,1851.2,144.7,152.1,95.7,0.0,0.0,0.0,
96500,1860.9,165.0,165.5,95.7,0.0,0.0,0.0,
96600,1855.5,91.8,180.0,95.7,0.0,0.0,0.0,
96700,1851.7,27.8,186.1,97.7,0.0,0.0,0.0,
96900,1860.9,18.0,186.3,97.7,0.0,0.0,0.0,
97000,1862.0,16.9,186.0,99.6,0.0,0.0,0.0,
97100,1859.6,17.7,171.7,119.1,0.0,0.0,0.0,
97200,1860.6,19.3,146.3,119.1,0.0,0.0,0.0,
97300,1860.3,19.9,127.7,121.1,0.0,0.0,0.0,
97400,1859.0,19.1,110.0,121.1,0.0,0.0,0.0,
97500,1858.2,23.6,88.6,121.1,0.0,0.0,0.0,
97600,1858.2,134.7,53.5,121.1,0.0,0.0,0.0,
97700,1846.9,190.2,57.2,119.1,0.0,0.0,0.0,
97900,1845.7,169.2,130.9,95.7,0.0,0.0,0.0,
98000,1846.9,158.2,148.4,95.7,0.0,0.0,0.0,
98100,1859.8,147.4,158.3,97.7,0.0,0.0,0.0,
98200,1863.8,134.9,172.5,97.7,0.0,0.0,0.0,
98300,1854.6,42.7,183.8,97.7,0.0,0.0,0.0,
98400,1859.2,30.9,184.5,97.7,0.0,0.0,0.0,
98500,1858.0,21.6,184.7,97.7,0.0,0.0,0.0,
98600,1862.5,18.0,184.7,95.7,0.0,0.0,0.0,
98700,1859.2,20.3,177.3,97.7,0.0,0.0,0.0,
98900,1837.8,22.0,132.8,121.1,0.0,0.0,0.0,
99000,1862.7,30.5,113.0,121.1,0.0,0.0,0.0,
99100,1876.2,27.4,99.1,121.1,0.0,0.0,0.0,
99200,1867.5,84.3,72.4,119.1,0.0,0.0,0.0,
99300,1849.2,209.1,58.4,99.6,0.0,0.0,0.0,
99400,1859.6,213.1,97.3,95.7,0.0,0.0,0.0,
99500,1866.2,158.3,128.4,97.7,0.0,0.0,0.0,
99600,1867.5,154.7,149.1,97.7,0.0,0.0,0.0,
99700,1862.5,190.4,166.1,97.7,0.0,0.0,0.0,
99900,1860.9,56.6,196.5,97.7,0.0,0.0,0.0,
100000,1863.0,20.2,197.3,97.7,0.0,0.0,0.0,
100100,1857.0,14.6,197.1,97.7,0.0,0.0,0.0,
100200,1861.9,16.1,196.8,97.7,0.0,0.0,0.0,
100300,1860.9,15.5,191.1,95.7,0.0,0.0,0.0,
100400,1859.6,17.1,173.7,119.1,0.0,0.0,0.0,
100500,1858.8,16.5,151.9,121.1,0.0,0.0,0.0,
100600,1860.1,22.0,131.6,121.1,0.0,0.0,0.0,
100700,1857.5,21.4,109.5,121.1,0.0,0.0,0.0,
100900,1862.5,124.9,34.8,119.1,0.0,0.0,0.0,
101000,1851.5,135.4,60.3,82.0,0.0,0.0,0.0,
101100,1844.3,127.2,79.6,64.5,0.0,0.0,0.0,
101200,1857.7,121.3,95.4,68.4,0.0,0.0,0.0,
101300,1859.2,109.1,110.1,95.7,0.0,0.0,0.0,
101400,1849.8,119.8,120.5,97.7,0.0,0.0,0.0,
101500,1858.2,35.7,128.8,97.7,0.0,0.0,0.0,
101600,1853.2,25.3,129.4,97.7,0.0,0.0,0.0,
101700,1861.3,19.6,129.5,97.7,0.0,0.0,0.0,
101900,1863.4,18.7,128.3,103.5,0.0,0.0,0.0,
102000,1861.9,33.0,116.8,121.1,0.0,0.0,0.0,
102100,1859.8,31.9,105.5,119.1,0.0,0.0,0.0,
102200,1857.5,17.3,91.7,87.9,0.0,0.0,0.0,
102300,1860.2,16.6,73.6,76.2,0.0,0.0,0.0,
102400,1862.3,28.9,55.0,78.1,0.0,0.0,0.0,
102500,1858.7,200.0,32.1,119.1,0.0,0.0,0.0,
102600,1854.5,135.4,94.9,99.6,0.0,0.0,0.0,
102700,1854.4,154.6,117.3,95.7,0.0,0.0,0.0,
102900,1851.5,150.2,142.6,97.7,0.0,0.0,0.0,
103000,1841.7,114.2,156.3,97.7,0.0,0.0,0.0,
103100,1859.1,62.6,167.2,97.7,0.0,0.0,0.0,
103200,1859.5,23.0,168.4,97.7,0.0,0.0,0.0,
103300,1861.4,21.1,168.5,97.7,0.0,0.0,0.0,
103400,1860.6,17.8,168.5,97.7,0.0,0.0,0.0,
103500,1861.2,16.3,168.2,95.7,0.0,0.0,0.0,
103600,1861.4,18.5,142.0,119.1,0.0,0.0,0.0,
103700,1862.3,20.6,124.0,121.1,0.0,0.0,0.0,
103900,1860.3,25.5,93.9,121.1,0.0,0.0,0.0,
104000,1855.5,64.4,69.0,121.1,0.0,0.0,0.0,
104100,1860.0,221.9,38.8,119.1,0.0,0.0,0.0,
104200,1862.3,195.6,82.5,78.1,0.0,0.0,0.0,
104300,1879.8,176.9,116.2,93.8,0.0,0.0,0.0,
104400,1877.6,141.7,131.6,95.7,0.0,0.0,0.0,
104500,1870.8,165.4,141.8,95.7,0.0,0.0,0.0,
104600,1857.8,107.3,152.8,64.5,0.0,0.0,0.0,
104700,1862.7,109.4,159.5,58.6,0.0,0.0,0.0,
104900,1859.9,18.1,166.6,85.9,0.0,0.0,0.0,
105000,1860.1,18.2,166.5,60.5,0.0,0.0,0.0,
105100,1860.7,19.5,165.1,58.6,0.0,0.0,0.0,
105200,1862.7,19.3,146.7,76.2,0.0,0.0,0.0,
105300,1862.3,20.5,121.6,121.1,0.0,0.0,0.0,
105400,1859.6,16.4,104.8,121.1,0.0,0.0,0.0,
105500,1858.5,18.3,90.5,121.1,0.0,0.0,0.0,
105600,1860.7,26.5,70.4,119.1,0.0,0.0,0.0,
105700,1858.4,133.5,54.1,119.1,0.0,0.0,0.0,
105900,1846.0,121.4,82.7,64.5,0.0,0.0,0.0,
106000,1843.9,142.2,95.2,64.5,0.0,0.0,0.0,
106100,1855.7,122.4,113.5,76.2,0.0,0.0,0.0,
106200,1859.9,119.6,127.6,87.9,0.0,0.0,0.0,
106300,1866.8,91.4,137.7,95.7,0.0,0.0,0.0,
106400,1853.9,29.7,144.7,95.7,0.0,0.0,0.0,
106500,1856.6,20.1,145.0,97.7,0.0,0.0,0.0,
106600,1860.6,24.2,145.1,95.7,0.0,0.0,0.0,
106700,1863.3,21.3,145.0,80.1,0.0,0.0,0.0,
106900,1861.1,21.4,121.7,121.1,0.0,0.0,0.0,
107000,1861.0,19.3,112.2,121.1,0.0,0.0,0.0,
107100,1859.4,19.2,93.8,121.1,0.0,0.0,0.0,
107200,1860.6,29.2,73.6,121.1,0.0,0.0,0.0,
107300,1857.1,86.1,53.2,121.1,0.0,0.0,0.0,
107400,1844.5,90.1,49.7,119.1,0.0,0.0,0.0,
107500,1862.4,137.6,70.5,99.6,0.0,0.0,0.0,
107600,1851.9,145.4,92.7,97.7,0.0,0.0,0.0,
107700,1837.7,113.6,110.9,66.4,0.0,0.0,0.0,
107900,1842.7,53.5,134.2,82.0,0.0,0.0,0.0,
108000,1859.8,34.6,137.3,95.7,0.0,0.0,0.0,
108100,1856.9,25.7,138.1,97.7,0.0,0.0,0.0,
108200,1861.4,20.9,138.2,97.7,0.0,0.0,0.0,
108300,1862.4,21.7,137.9,97.7,0.0,0.0,0.0,
108400,1860.7,22.2,132.0,119.1,0.0,0.0,0.0,
108500,1863.9,22.6,121.8,121.1,0.0,0.0,0.0,
108600,1861.7,21.8,105.9,119.1,0.0,0.0,0.0,
108700,1859.0,22.8,86.5,119.1,0.0,0.0,0.0,
108900,1860.0,86.7,42.3,121.1,0.0,0.0,0.0,
109000,1864.8,120.2,44.4,119.1,0.0,0.0,0.0,
109100,1850.5,112.5,60.9,84.0,0.0,0.0,0.0,
109200,1863.1,113.1,76.7,64.5,0.0,0.0,0.0,
109300,1868.6,148.1,86.2,64.5,0.0,0.0,0.0,
109400,1855.7,123.2,99.5,68.4,0.0,0.0,0.0,
109500,1851.5,80.0,110.6,84.0,0.0,0.0,0.0,
109600,1869.3,38.6,119.5,91.8,0.0,0.0,0.0,
109700,1858.7,23.4,120.5,95.7,0.0,0.0,0.0,
109900,1861.2,21.7,120.5,64.5,0.0,0.0,0.0,
110000,1864.6,20.5,116.1,74.2,0.0,0.0,0.0,
110100,1864.0,20.4,107.4,121.1,0.0,0.0,0.0,
110200,1861.3,24.9,96.6,121.1,0.0,0.0,0.0,
110300,1857.5,33.9,88.5,121.1,0.0,0.0,0.0,
110400,1857.8,82.2,73.8,119.1,0.0,0.0,0.0,
110500,1859.3,104.4,60.9,119.1,0.0,0.0,0.0,
110600,1865.0,167.8,58.5,87.9,0.0,0.0,0.0,
110700,1864.7,155.7,87.8,80.1,0.0,0.0,0.0,
110900,1876.4,144.6,130.3,76.2,0.0,0.0,0.0,
111000,1883.5,123.2,143.0,76.2,0.0,0.0,0.0,
111100,1873.4,78.1,152.4,64.5,0.0,0.0,0.0,
111200,1866.9,27.4,157.2,89.8,0.0,0.0,0.0,
111300,1860.7,20.4,157.1,127.0,0.0,0.0,0.0,
111400,1860.6,20.0,156.8,128.9,0.0,0.0,0.0,
111500,1862.3,22.3,154.9,125.0,0.0,0.0,0.0,
111600,1859.4,22.6,149.1,119.1,0.0,0.0,0.0,
111700,1860.7,25.8,133.0,119.1,0.0,0.0,0.0,
111900,1859.9,31.4,92.7,121.1,0.0,0.0,0.0,
112000,1859.3,29.9,72.3,119.1,0.0,0.0,0.0,
112100,1857.1,48.2,50.0,101.6,0.0,0.0,0.0,
112200,1861.7,119.2,35.5,78.1,0.0,0.0,0.0,
112300,1863.7,100.6,51.4,93.8,0.0,0.0,0.0,
112400,1862.0,105.7,63.8,68.4,0.0,0.0,0.0,
112500,1860.4,98.4,76.8,64.5,0.0,0.0,0.0,
112600,1846.8,107.1,83.9,64.5,0.0,0.0,0.0,
112700,1856.5,89.2,93.3,64.5,0.0,0.0,0.0,
112900,1865.9,17.9,98.7,62.5,0.0,0.0,0.0,
113000,1864.5,18.6,98.1,37.1,0.0,0.0,0.0,
113100,1861.6,16.7,97.7,39.1,0.0,0.0,0.0,
113200,1861.0,17.2,96.3,119.1,0.0,0.0,0.0,
113300,1859.7,17.9,88.6,121.1,0.0,0.0,0.0,
113400,1859.0,19.0,80.1,121.1,0.0,0.0,0.0,
113500,1860.8,21.7,67.6,121.1,0.0,0.0,0.0,
113600,1861.4,39.5,58.8,121.1,0.0,0.0,0.0,
113700,1858.0,54.6,44.2,119.1,0.0,0.0,0.0,
113900,1841.1,149.4,64.2,74.2,0.0,0.0,0.0,
114000,1863.2,176.4,83.4,58.6,0.0,0.0,0.0,
114100,1873.9,154.0,108.6,54.7,0.0,0.0,0.0,
114200,1852.3,161.7,129.6,68.4,0.0,0.0,0.0,
114300,1848.9,147.2,143.7,95.7,0.0,0.0,0.0,
114400,1854.0,49.6,156.6,95.7,0.0,0.0,0.0,
114500,1864.7,17.5,157.1,97.7,0.0,0.0,0.0,
114600,1861.8,16.2,157.1,97.7,0.0,0.0,0.0,
114700,1859.9,15.7,156.4,97.7,0.0,0.0,0.0,
114900,1859.7,19.1,145.0,121.1,0.0,0.0,0.0,
115000,1860.9,18.5,135.0,121.1,0.0,0.0,0.0,
115100,1858.2,17.2,115.7,121.1,0.0,0.0,0.0,
115200,1861.4,17.9,91.5,121.1,0.0,0.0,0.0,
115300,1861.8,20.1,67.3,121.1,0.0,0.0,0.0,
115400,1864.0,107.8,27.8,121.1,0.0,0.0,0.0,
115500,1873.3,105.6,48.5,119.1,0.0,0.0,0.0,
115600,1847.4,154.1,69.2,60.5,0.0,0.0,0.0,
115700,1864.8,163.8,89.5,35.2,0.0,0.0,0.0,
115900,1865.2,145.2,133.0,89.8,0.0,0.0,0.0,
116000,1857.4,84.5,147.1,95.7,0.0,0.0,0.0,
116100,1857.7,26.8,149.9,95.7,0.0,0.0,0.0,
116200,1860.1,16.9,150.4,93.8,0.0,0.0,0.0,
116300,1861.2,18.2,150.5,80.1,0.0,0.0,0.0,
116400,1861.6,19.0,150.1,66.4,0.0,0.0,0.0,
116500,1860.0,18.7,144.1,97.7,0.0,0.0,0.0,
116600,1859.6,18.5,135.3,121.1,0.0,0.0,0.0,
116700,1858.9,17.2,122.9,121.1,0.0,0.0,0.0,
116900,1856.3,25.4,73.8,121.1,0.0,0.0,0.0,
117000,1859.6,75.7,39.0,121.1,0.0,0.0,0.0,
117100,1853.1,114.2,36.2,119.1,0.0,0.0,0.0,
117200,1861.0,173.1,55.6,78.1,0.0,0.0,0.0,
117300,1860.0,186.0,84.4,64.5,0.0,0.0,0.0,
117400,1855.1,151.6,106.0,93.8,0.0,0.0,0.0,
117500,1861.5,122.1,120.4,95.7,0.0,0.0,0.0,
117600,1873.5,40.6,132.4,95.7,0.0,0.0,0.0,
117700,1854.8,29.7,133.5,97.7,0.0,0.0,0.0,
117900,1863.0,21.0,134.4,101.6,0.0,0.0,0.0,
118000,1863.8,20.3,134.3,103.5,0.0,0.0,0.0,
118100,1862.9,21.8,132.1,119.1,0.0,0.0,0.0,
118200,1864.7,22.2,124.6,121.1,0.0,0.0,0.0,
118300,1861.8,19.2,107.4,119.1,0.0,0.0,0.0,
118400,1864.8,31.2,86.5,119.1,0.0,0.0,0.0,
118500,1861.0,30.5,65.6,91.8,0.0,0.0,0.0,
118600,1859.0,129.9,37.5,93.8,0.0,0.0,0.0,
118700,1844.2,147.8,62.7,95.7,0.0,0.0,0.0,
118900,1853.8,117.4,121.6,97.7,0.0,0.0,0.0,
119000,1849.1,136.9,132.7,95.7,0.0,0.0,0.0,
119100,1851.4,118.8,141.9,95.7,0.0,0.0,0.0,
119200,1841.9,45.8,150.8,97.7,0.0,0.0,0.0,
119300,1859.7,21.2,153.6,97.7,0.0,0.0,0.0,
119400,1861.2,27.8,153.5,97.7,0.0,0.0,0.0,
119500,1859.4,34.8,153.6,95.7,0.0,0.0,0.0,
119600,1861.2,34.5,153.7,93.8,0.0,0.0,0.0,
119700,1861.7,18.7,144.8,76.2,0.0,0.0,0.0,
119900,1859.2,21.0,99.5,70.3,0.0,0.0,0.0,
120000,1856.3,22.6,84.0,99.6,0.0,0.0,0.0,
120100,1859.7,18.0,67.4,119.1,0.0,0.0,0.0,
120200,1860.5,76.2,44.1,121.1,0.0,0.0,0.0,
120300,1863.0,156.3,47.5,119.1,0.0,0.0,0.0,
120400,1855.7,124.5,73.4,95.7,0.0,0.0,0.0,
120500,1845.0,134.7,89.1,84.0,0.0,0.0,0.0,
120600,1851.4,145.3,102.4,89.8,0.0,0.0,0.0,
120700,1869.8,156.5,118.4,89.8,0.0,0.0,0.0,
120900,1855.0,21.7,140.8,97.7,0.0,0.0,0.0,
121000,1858.8,19.8,140.8,97.7,0.0,0.0,0.0,
121100,1858.9,16.2,140.7,97.7,0.0,0.0,0.0,
121200,1859.7,17.6,140.6,101.6,0.0,0.0,0.0,
121300,1859.6,23.0,136.2,121.1,0.0,0.0,0.0,
121400,1856.7,34.1,124.2,121.1,0.0,0.0,0.0,
121500,1859.8,29.0,113.4,121.1,0.0,0.0,0.0,
121600,1857.8,21.9,101.0,119.1,0.0,0.0,0.0,
121700,1858.3,24.3,81.0,93.8,0.0,0.0,0.0,
121900,1868.5,195.2,75.9,107.4,0.0,0.0,0.0,
122000,1884.5,182.7,114.5,99.6,0.0,0.0,0.0,
122100,1874.3,107.4,133.7,99.6,0.0,0.0,0.0,
122200,1864.0,117.8,142.0,97.7,0.0,0.0,0.0,
122300,1863.3,121.2,148.7,97.7,0.0,0.0,0.0,
122400,1872.0,63.7,154.6,66.4,0.0,0.0,0.0,
122500,1869.2,25.2,157.7,62.5,0.0,0.0,0.0,
122600,1862.0,22.1,157.6,35.2,0.0,0.0,0.0,
122700,1862.6,20.7,157.6,35.2,0.0,0.0,0.0,
122900,1857.8,20.6,140.9,119.1,0.0,0.0,0.0,
123000,1860.6,31.4,111.8,121.1,0.0,0.0,0.0,
123100,1861.2,20.0,88.3,121.1,0.0,0.0,0.0,
123200,1858.6,27.6,74.3,121.1,0.0,0.0,0.0,
123300,1861.2,22.1,60.2,119.1,0.0,0.0,0.0,
123400,1860.1,69.3,42.9,119.1,0.0,0.0,0.0,
123500,1856.9,102.6,39.6,121.1,0.0,0.0,0.0,
123600,1853.5,171.9,60.5,119.1,0.0,0.0,0.0,
123700,1847.0,159.8,84.3,76.2,0.0,0.0,0.0,
123900,1860.0,163.2,124.0,95.7,0.0,0.0,0.0,
124000,1846.9,91.0,137.0,97.7,0.0,0.0,0.0,
124100,1863.2,23.5,144.5,97.7,0.0,0.0,0.0,
124200,1857.1,22.4,144.5,97.7,0.0,0.0,0.0,
124300,1860.7,20.3,144.4,97.7,0.0,0.0,0.0,
124400,1859.3,25.3,144.4,99.6,0.0,0.0,0.0,
124500,1861.2,22.6,141.8,119.1,0.0,0.0,0.0,
124600,1859.9,20.6,134.1,119.1,0.0,0.0,0.0,
124700,1858.3,20.5,120.6,119.1,0.0,0.0,0.0,
124900,1861.5,29.2,79.2,121.1,0.0,0.0,0.0,
125000,1860.7,62.0,54.2,121.1,0.0,0.0,0.0,
125100,1859.7,105.4,34.7,119.1,0.0,0.0,0.0,
125200,1867.0,109.8,53.9,66.4,0.0,0.0,0.0,
125300,1844.1,117.0,76.2,60.5,0.0,0.0,0.0,
125400,1859.7,118.8,86.9,54.7,0.0,0.0,0.0,
125500,1855.7,95.3,94.5,62.5,0.0,0.0,0.0,
125600,1867.4,91.1,101.4,50.8,0.0,0.0,0.0,
125700,1854.2,33.0,107.4,33.2,0.0,0.0,0.0,
125900,1860.2,25.6,107.7,33.2,0.0,0.0,0.0,
126000,1857.7,26.5,107.5,39.1,0.0,0.0,0.0,
126100,1860.8,28.4,105.7,119.1,0.0,0.0,0.0,
126200,1860.2,24.8,97.5,121.1,0.0,0.0,0.0,
126300,1859.5,28.4,81.5,121.1,0.0,0.0,0.0,
126400,1856.9,43.6,70.5,119.1,0.0,0.0,0.0,
126500,1859.3,38.3,61.5,119.1,0.0,0.0,0.0,
126600,1857.0,81.2,50.9,105.5,0.0,0.0,0.0,
126700,1853.3,139.2,48.6,87.9,0.0,0.0,0.0,
126900,1858.2,104.5,79.8,62.5,0.0,0.0,0.0,
127000,1861.8,109.7,92.4,62.5,0.0,0.0,0.0,
127100,1845.5,111.0,101.7,64.5,0.0,0.0,0.0,
127200,1844.1,111.3,110.8,93.8,0.0,0.0,0.0,
127300,1862.5,31.3,117.9,95.7,0.0,0.0,0.0,
127400,1860.8,28.4,117.9,95.7,0.0,0.0,0.0,
127500,1862.7,26.4,117.1,97.7,0.0,0.0,0.0,
127600,1863.6,25.6,116.5,99.6,0.0,0.0,0.0,
127700,1862.4,29.7,112.2,121.1,0.0,0.0,0.0,
127900,1856.0,34.4,92.6,121.1,0.0,0.0,0.0,
128000,1857.2,29.0,80.3,121.1,0.0,0.0,0.0,
128100,1861.8,27.4,68.0,119.1,0.0,0.0,0.0,
128200,1856.0,30.4,52.8,119.1,0.0,0.0,0.0,
128300,1861.5,66.8,36.4,119.1,0.0,0.0,0.0,
128400,1857.4,137.3,46.5,119.1,0.0,0.0,0.0,
128500,1867.5,102.3,65.8,78.1,0.0,0.0,0.0,
128600,1872.8,87.3,76.8,66.4,0.0,0.0,0.0,
128700,1870.2,98.4,85.5,66.4,0.0,0.0,0.0,
128900,1862.7,37.2,101.9,66.4,0.0,0.0,0.0,
129000,1867.1,31.5,101.9,64.5,0.0,0.0,0.0,
129100,1861.2,30.3,102.0,64.5,0.0,0.0,0.0,
129200,1860.0,29.1,101.7,64.5,0.0,0.0,0.0,
129300,1861.2,28.7,101.0,119.1,0.0,0.0,0.0,
129400,1860.7,29.9,96.7,121.1,0.0,0.0,0.0,
129500,1861.6,26.0,84.7,119.1,0.0,0.0,0.0,
129600,1862.6,31.9,74.9,119.1,0.0,0.0,0.0,
129700,1861.7,31.6,65.3,119.1,0.0,0.0,0.0,
129900,1864.6,93.1,37.4,119.1,0.0,0.0,0.0,
130000,1860.0,91.7,52.9,119.1,0.0,0.0,0.0,
130100,1851.6,98.0,64.9,58.6,0.0,0.0,0.0,
130200,1857.5,116.1,75.5,44.9,0.0,0.0,0.0,
130300,1863.0,119.9,84.1,64.5,0.0,0.0,0.0,
130400,1857.3,94.0,94.0,64.5,0.0,0.0,0.0,
130500,1870.1,41.8,102.2,64.5,0.0,0.0,0.0,
130600,1856.5,36.8,103.2,64.5,0.0,0.0,0.0,
130700,1864.7,32.1,103.3,64.5,0.0,0.0,0.0,
130900,1861.4,27.1,102.6,119.1,0.0,0.0,0.0,
131000,1857.7,28.4,95.4,119.1,0.0,0.0,0.0,
131100,1860.6,26.0,87.6,121.1,0.0,0.0,0.0,
131200,1860.0,29.2,78.6,121.1,0.0,0.0,0.0,
131300,1857.8,30.3,69.5,119.1,0.0,0.0,0.0,
131400,1858.7,34.0,55.4,119.1,0.0,0.0,0.0,
131500,1861.3,153.3,38.4,121.1,0.0,0.0,0.0,
131600,1836.9,155.0,67.4,119.1,0.0,0.0,0.0,
131700,1859.5,144.8,91.3,66.4,0.0,0.0,0.0,
131900,1836.7,149.4,121.1,64.5,0.0,0.0,0.0,
132000,1850.1,115.1,133.8,95.7,0.0,0.0,0.0,
132100,1847.9,42.7,148.1,97.7,0.0,0.0,0.0,
132200,1859.8,30.9,149.2,97.7,0.0,0.0,0.0,
132300,1859.7,28.4,149.2,97.7,0.0,0.0,0.0,
132400,1858.9,26.7,149.2,101.6,0.0,0.0,0.0,
132500,1857.9,24.6,149.0,119.1,0.0,0.0,0.0,
132600,1857.4,27.0,137.7,119.1,0.0,0.0,0.0,
132700,1861.8,26.3,122.8,119.1,0.0,0.0,0.0,
132900,1861.9,31.6,93.5,121.1,0.0,0.0,0.0,
133000,1859.8,32.3,74.4,121.1,0.0,0.0,0.0,
133100,1858.0,158.7,39.0,121.1,0.0,0.0,0.0,
133200,1875.7,152.8,69.2,121.1,0.0,0.0,0.0,
133300,1872.7,149.7,91.1,95.7,0.0,0.0,0.0,
133400,1888.4,117.3,110.6,64.5,0.0,0.0,0.0,
133500,1888.1,127.0,124.8,76.2,0.0,0.0,0.0,
133600,1884.0,115.3,138.1,111.3,0.0,0.0,0.0,
133700,1870.4,47.4,147.7,97.7,0.0,0.0,0.0,
133900,1858.9,30.7,150.9,121.1,0.0,0.0,0.0,
134000,1858.9,32.6,150.9,97.7,0.0,0.0,0.0,
134100,1861.2,32.5,150.9,119.1,0.0,0.0,0.0,
134200,1862.2,31.3,138.6,119.1,0.0,0.0,0.0,
134300,1859.8,32.1,125.3,119.1,0.0,0.0,0.0,
134400,1861.1,27.4,108.5,119.1,0.0,0.0,0.0,
134500,1860.3,33.8,92.0,119.1,0.0,0.0,0.0,
134600,1860.7,31.1,70.9,121.1,0.0,0.0,0.0,
134700,1860.1,144.5,48.0,121.1,0.0,0.0,0.0,
134900,1849.2,141.8,96.5,66.4,0.0,0.0,0.0,
135000,1841.2,139.6,114.3,64.5,0.0,0.0,0.0,
135100,1852.1,157.5,129.4,66.4,0.0,0.0,0.0,
135200,1845.0,145.3,144.7,97.7,0.0,0.0,0.0,
135300,1862.6,60.9,156.2,97.7,0.0,0.0,0.0,
135400,1851.3,41.8,160.3,97.7,0.0,0.0,0.0,
135500,1860.7,33.9,160.7,107.4,0.0,0.0,0.0,
135600,1860.0,37.4,160.6,117.2,0.0,0.0,0.0,
135700,1860.2,31.8,160.7,119.1,0.0,0.0,0.0,
135900,1857.2,32.4,133.9,119.1,0.0,0.0,0.0,
136000,1860.3,32.6,119.2,121.1,0.0,0.0,0.0,
136100,1859.2,30.1,102.6,119.1,0.0,0.0,0.0,
136200,1857.9,31.7,79.7,119.1,0.0,0.0,0.0,
136300,1862.2,121.9,54.0,119.1,0.0,0.0,0.0,
136400,1847.8,153.9,60.5,119.1,0.0,0.0,0.0,
136500,1850.9,120.0,86.5,119.1,0.0,0.0,0.0,
136600,1858.6,123.1,103.1,95.7,0.0,0.0,0.0,
136700,1851.8,113.6,114.7,95.7,0.0,0.0,0.0,
136900,1837.9,68.7,139.2,99.6,0.0,0.0,0.0,
137000,1867.3,35.8,144.6,121.1,0.0,0.0,0.0,
137100,1860.3,33.6,144.6,121.1,0.0,0.0,0.0,
137200,1860.8,30.7,144.6,121.1,0.0,0.0,0.0,
137300,1859.7,31.8,144.6,119.1,0.0,0.0,0.0,
137400,1859.7,31.8,137.3,119.1,0.0,0.0,0.0,
137500,1866.9,33.8,122.2,121.1,0.0,0.0,0.0,
137600,1867.9,34.9,108.6,121.1,0.0,0.0,0.0,
137700,1864.7,31.6,96.2,119.1,0.0,0.0,0.0,
137900,1860.1,97.8,55.0,119.1,0.0,0.0,0.0,
138000,1874.0,155.9,54.3,121.1,0.0,0.0,0.0,
138100,1859.6,145.5,79.9,119.1,0.0,0.0,0.0,
138200,1867.1,135.3,98.3,68.4,0.0,0.0,0.0,
138300,1881.3,110.2,112.4,64.5,0.0,0.0,0.0,
138400,1878.5,96.1,120.1,64.5,0.0,0.0,0.0,
138500,1854.8,79.6,125.1,70.3,0.0,0.0,0.0,
138600,1862.7,30.4,128.5,76.2,0.0,0.0,0.0,
138700,1858.7,31.4,128.3,64.5,0.0,0.0,0.0,
138900,1863.2,20.9,128.1,97.7,0.0,0.0,0.0,
139000,1857.1,16.6,122.1,121.1,0.0,0.0,0.0,
139100,1863.8,14.9,106.6,121.1,0.0,0.0,0.0,
139200,1859.7,16.2,89.3,119.1,0.0,0.0,0.0,
139300,1864.1,16.7,70.0,119.1,0.0,0.0,0.0,
139400,1862.9,19.3,54.7,121.1,0.0,0.0,0.0,
139500,1852.9,49.9,41.3,121.1,0.0,0.0,0.0,
139600,1867.3,63.9,33.5,121.1,0.0,0.0,0.0,
139700,1864.2,96.2,43.5,119.1,0.0,0.0,0.0,
139900,1854.5,129.5,72.3,95.7,0.0,0.0,0.0,
140000,1866.5,103.1,85.3,66.4,0.0,0.0,0.0,
140100,1861.0,92.5,93.5,64.5,0.0,0.0,0.0,
140200,1860.1,22.6,100.4,64.5,0.0,0.0,0.0,
140300,1862.6,18.3,100.5,62.5,0.0,0.0,0.0,
140400,1859.6,15.3,100.5,35.2,0.0,0.0,0.0,
140500,1861.4,17.9,100.5,37.1,0.0,0.0,0.0,
140600,1859.1,17.2,98.5,119.1,0.0,0.0,0.0,
140700,1859.2,16.5,94.0,121.1,0.0,0.0,0.0,
140900,1859.7,40.6,73.1,121.1,0.0,0.0,0.0,
141000,1864.8,35.7,60.0,119.1,0.0,0.0,0.0,
141100,1858.8,77.2,48.4,70.3,0.0,0.0,0.0,
141200,1859.3,142.0,46.2,66.4,0.0,0.0,0.0,
141300,1856.4,178.5,66.1,64.5,0.0,0.0,0.0,
141400,1865.3,126.0,91.0,62.5,0.0,0.0,0.0,
141500,1873.8,123.0,105.3,62.5,0.0,0.0,0.0,
141600,1841.6,117.7,118.2,62.5,0.0,0.0,0.0,
141700,1859.0,123.8,125.6,62.5,0.0,0.0,0.0,
141900,1864.1,18.7,132.2,33.2,0.0,0.0,0.0,
142000,1861.2,16.1,131.0,33.2,0.0,0.0,0.0,
142100,1862.2,20.0,130.2,37.1,0.0,0.0,0.0,
142200,1862.2,15.7,125.9,119.1,0.0,0.0,0.0,
142300,1860.5,16.5,116.6,121.1,0.0,0.0,0.0,
142400,1857.8,20.4,98.4,121.1,0.0,0.0,0.0,
142500,1862.2,29.1,82.9,121.1,0.0,0.0,0.0,
142600,1859.0,20.2,63.6,119.1,0.0,0.0,0.0,
142700,1858.0,29.8,47.7,119.1,0.0,0.0,0.0,
142900,1842.6,145.2,66.7,66.4,0.0,0.0,0.0,
143000,1861.1,128.9,87.2,41.0,0.0,0.0,0.0,
143100,1861.7,116.6,98.4,41.0,0.0,0.0,0.0,
143200,1876.8,117.3,109.4,62.5,0.0,0.0,0.0,
143300,1875.0,124.6,118.2,64.5,0.0,0.0,0.0,
143400,1857.8,23.6,127.0,62.5,0.0,0.0,0.0,
143500,1867.6,16.5,127.0,62.5,0.0,0.0,0.0,
143600,1860.7,15.6,126.8,37.1,0.0,0.0,0.0,
143700,1859.9,15.1,126.7,37.1,0.0,0.0,0.0,
143900,1859.4,18.4,110.2,121.1,0.0,0.0,0.0,
144000,1861.5,17.8,94.7,121.1,0.0,0.0,0.0,
144100,1863.3,16.3,83.1,121.1,0.0,0.0,0.0,
144200,1858.5,21.4,68.0,121.1,0.0,0.0,0.0,
144300,1861.9,21.3,51.5,121.1,0.0,0.0,0.0,
144400,1858.6,147.8,27.0,121.1,0.0,0.0,0.0,
144500,1860.9,128.9,66.0,68.4,0.0,0.0,0.0,
144600,1860.1,131.3,83.3,44.9,0.0,0.0,0.0,
144700,1839.9,119.4,100.4,35.2,0.0,0.0,0.0,
144900,1859.5,119.2,121.2,62.5,0.0,0.0,0.0,
145000,1862.1,28.1,129.4,64.5,0.0,0.0,0.0,
145100,1853.6,18.3,130.2,64.5,0.0,0.0,0.0,
145200,1859.4,17.4,130.2,41.0,0.0,0.0,0.0,
145300,1861.3,16.6,130.1,37.1,0.0,0.0,0.0,
145400,1860.6,15.8,129.1,68.4,0.0,0.0,0.0,
145500,1860.3,16.1,114.1,121.1,0.0,0.0,0.0,
145600,1861.7,17.0,102.2,121.1,0.0,0.0,0.0,
145700,1858.7,16.8,85.4,121.1,0.0,0.0,0.0,
145900,1859.2,17.8,52.0,121.1,0.0,0.0,0.0,
146000,1860.0,111.2,25.1,121.1,0.0,0.0,0.0,
146100,1856.1,138.7,45.9,119.1,0.0,0.0,0.0,
146200,1862.6,122.4,64.7,37.1,0.0,0.0,0.0,
146300,1872.9,118.1,79.9,33.2,0.0,0.0,0.0,
146400,1852.2,114.7,92.2,33.2,0.0,0.0,0.0,
146500,1852.6,129.6,101.9,33.2,0.0,0.0,0.0,
146600,1851.4,69.8,112.0,33.2,0.0,0.0,0.0,
146700,1866.5,24.3,114.7,60.5,0.0,0.0,0.0,
146900,1860.3,20.2,115.2,60.5,0.0,0.0,0.0,
147000,1858.8,19.2,115.3,60.5,0.0,0.0,0.0,
147100,1861.0,18.5,107.8,119.1,0.0,0.0,0.0,
147200,1862.2,17.6,97.7,121.1,0.0,0.0,0.0,
147300,1862.2,17.7,85.7,121.1,0.0,0.0,0.0,
147400,1859.0,19.1,72.4,121.1,0.0,0.0,0.0,
147500,1857.4,20.9,58.1,121.1,0.0,0.0,0.0,
147600,1859.2,150.8,35.2,121.1,0.0,0.0,0.0,
147700,1881.7,161.7,64.2,121.1,0.0,0.0,0.0,
147900,1880.0,131.8,106.2,62.5,0.0,0.0,0.0,
148000,1887.5,117.7,118.4,62.5,0.0,0.0,0.0,
148100,1885.1,125.0,127.9,64.5,0.0,0.0,0.0,
148200,1858.7,51.9,136.3,64.5,0.0,0.0,0.0,
148300,1867.4,25.9,138.9,64.5,0.0,0.0,0.0,
148400,1859.7,22.3,139.0,62.5,0.0,0.0,0.0,
148500,1862.7,21.0,139.1,52.7,0.0,0.0,0.0,
148600,1859.4,20.7,139.1,64.5,0.0,0.0,0.0,
148700,1861.0,19.8,126.0,121.1,0.0,0.0,0.0,
148900,1860.0,22.6,93.0,121.1,0.0,0.0,0.0,
149000,1861.8,19.2,76.8,121.1,0.0,0.0,0.0,
149100,1858.0,22.7,59.9,121.1,0.0,0.0,0.0,
149200,1862.1,138.6,37.4,121.1,0.0,0.0,0.0,
149300,1857.9,139.5,56.7,119.1,0.0,0.0,0.0,
149400,1868.7,143.8,77.9,62.5,0.0,0.0,0.0,
149500,1843.9,128.2,95.0,60.5,0.0,0.0,0.0,
149600,1857.0,132.3,106.6,35.2,0.0,0.0,0.0,
149700,1865.5,103.8,117.3,33.2,0.0,0.0,0.0,
149900,1859.6,26.4,131.8,62.5,0.0,0.0,0.0,
150000,1857.3,21.4,132.0,64.5,0.0,0.0,0.0,
150100,1858.1,21.5,132.0,64.5,0.0,0.0,0.0,
150200,1861.2,22.7,132.0,76.2,0.0,0.0,0.0,
150300,1861.4,22.6,122.1,121.1,0.0,0.0,0.0,
150400,1863.0,22.4,109.7,121.1,0.0,0.0,0.0,
150500,1860.3,19.6,95.1,121.1,0.0,0.0,0.0,
150600,1860.2,19.6,81.9,121.1,0.0,0.0,0.0,
150700,1859.3,23.5,65.6,121.1,0.0,0.0,0.0,
150900,1845.2,142.4,54.2,121.1,0.0,0.0,0.0,
151000,1849.1,115.8,83.1,97.7,0.0,0.0,0.0,
151100,1857.0,134.8,100.4,95.7,0.0,0.0,0.0,
151200,1857.7,144.4,117.7,97.7,0.0,0.0,0.0,
151300,1841.7,154.8,132.8,97.7,0.0,0.0,0.0,
151400,1846.9,66.5,152.3,97.7,0.0,0.0,0.0,
151500,1871.7,23.4,158.6,97.7,0.0,0.0,0.0,
151600,1857.0,22.2,158.6,99.6,0.0,0.0,0.0,
151700,1856.9,18.1,158.7,119.1,0.0,0.0,0.0,
151900,1863.1,21.3,151.4,121.1,0.0,0.0,0.0,
152000,1861.2,20.6,137.5,121.1,0.0,0.0,0.0,
152100,1858.3,21.4,125.5,121.1,0.0,0.0,0.0,
152200,1858.1,50.9,109.4,121.1,0.0,0.0,0.0,
152300,1858.0,44.5,91.8,121.1,0.0,0.0,0.0,
152400,1854.9,100.5,55.3,119.1,0.0,0.0,0.0,
152500,1867.9,119.1,47.5,105.5,0.0,0.0,0.0,
152600,1843.7,127.7,67.5,78.1,0.0,0.0,0.0,
152700,1857.7,165.3,81.4,43.0,0.0,0.0,0.0,
152900,1864.3,136.5,115.9,64.5,0.0,0.0,0.0,
153000,1850.2,81.6,126.8,64.5,0.0,0.0,0.0,
153100,1852.4,28.3,133.7,72.3,0.0,0.0,0.0,
153200,1860.9,23.7,133.8,95.7,0.0,0.0,0.0,
153300,1861.1,23.8,132.9,95.7,0.0,0.0,0.0,
153400,1860.4,22.9,132.2,97.7,0.0,0.0,0.0,
153500,1858.9,20.6,127.8,119.1,0.0,0.0,0.0,
153600,1858.3,22.1,118.4,121.1,0.0,0.0,0.0,
153700,1859.2,21.2,109.3,121.1,0.0,0.0,0.0,
153900,1860.4,30.2,72.1,121.1,0.0,0.0,0.0,
154000,1858.7,96.5,50.9,121.1,0.0,0.0,0.0,
154100,1857.3,137.9,45.2,119.1,0.0,0.0,0.0,
154200,1876.3,148.7,72.6,117.2,0.0,0.0,0.0,
154300,1868.1,148.0,92.2,64.5,0.0,0.0,0.0,
154400,1866.2,143.1,112.2,64.5,0.0,0.0,0.0,
154500,1875.5,154.5,125.6,64.5,0.0,0.0,0.0,
154600,1892.4,118.0,140.0,64.5,0.0,0.0,0.0,
154700,1878.5,31.4,149.4,74.2,0.0,0.0,0.0,
154900,1860.0,26.1,149.9,66.4,0.0,0.0,0.0,
155000,1860.0,26.3,149.8,93.8,0.0,0.0,0.0,
155100,1861.4,25.6,145.7,119.1,0.0,0.0,0.0,
155200,1868.7,19.9,134.1,121.1,0.0,0.0,0.0,
155300,1865.3,20.3,121.4,121.1,0.0,0.0,0.0,
155400,1860.7,21.6,103.3,121.1,0.0,0.0,0.0,
155500,1861.3,21.4,86.6,121.1,0.0,0.0,0.0,
155600,1860.7,63.7,60.5,121.1,0.0,0.0,0.0,
155700,1856.3,144.4,42.8,121.1,0.0,0.0,0.0,
155900,1859.6,117.6,84.5,62.5,0.0,0.0,0.0,
156000,1865.9,112.9,98.0,62.5,0.0,0.0,0.0,
156100,1851.3,131.8,109.8,64.5,0.0,0.0,0.0,
156200,1855.0,120.0,122.9,95.7,0.0,0.0,0.0,
156300,1864.0,44.2,130.7,95.7,0.0,0.0,0.0,
156400,1861.4,27.2,131.2,95.7,0.0,0.0,0.0,
156500,1859.1,24.0,131.3,95.7,0.0,0.0,0.0,
156600,1861.4,23.6,131.3,97.7,0.0,0.0,0.0,
156700,1861.2,22.7,127.9,119.1,0.0,0.0,0.0,
156900,1860.6,23.3,104.4,121.1,0.0,0.0,0.0,
157000,1858.7,28.2,91.7,121.1,0.0,0.0,0.0,
157100,1859.8,25.2,77.3,121.1,0.0,0.0,0.0,
157200,1862.4,47.4,54.4,121.1,0.0,0.0,0.0,
157300,1863.0,135.2,41.4,121.1,0.0,0.0,0.0,
157400,1842.9,147.1,67.9,119.1,0.0,0.0,0.0,
157500,1841.3,171.8,91.9,99.6,0.0,0.0,0.0,
157600,1845.0,126.1,113.4,95.7,0.0,0.0,0.0,
157700,1857.1,146.4,131.9,66.4,0.0,0.0,0.0,
157900,1848.0,56.6,157.7,95.7,0.0,0.0,0.0,
158000,1856.7,29.9,158.7,97.7,0.0,0.0,0.0,
158100,1860.4,32.5,158.7,97.7,0.0,0.0,0.0,
158200,1857.5,25.1,158.8,99.6,0.0,0.0,0.0,
158300,1859.2,29.8,156.5,119.1,0.0,0.0,0.0,
158400,1863.3,28.7,146.7,119.1,0.0,0.0,0.0,
158500,1863.9,27.0,133.0,121.1,0.0,0.0,0.0,
158600,1860.2,24.9,115.3,121.1,0.0,0.0,0.0,
158700,1857.4,25.3,93.6,121.1,0.0,0.0,0.0,
158900,1857.7,139.0,39.0,121.1,0.0,0.0,0.0,
159000,1855.2,137.8,59.7,119.1,0.0,0.0,0.0,
159100,1862.2,161.3,81.1,64.5,0.0,0.0,0.0,
159200,1843.9,130.7,105.0,62.5,0.0,0.0,0.0,
159300,1844.2,107.8,116.1,64.5,0.0,0.0,0.0,
159400,1852.9,141.9,128.6,64.5,0.0,0.0,0.0,
159500,1856.8,39.5,140.8,95.7,0.0,0.0,0.0,
159600,1856.2,29.7,141.7,95.7,0.0,0.0,0.0,
159700,1859.9,23.8,141.8,95.7,0.0,0.0,0.0,
159900,1860.6,25.5,141.2,119.1,0.0,0.0,0.0,
160000,1862.0,28.6,132.7,121.1,0.0,0.0,0.0,
160100,1861.9,28.8,120.8,121.1,0.0,0.0,0.0,
160200,1859.4,27.3,100.7,121.1,0.0,0.0,0.0,
160300,1858.7,26.6,87.8,121.1,0.0,0.0,0.0,
160400,1857.8,32.2,68.0,121.1,0.0,0.0,0.0,
160500,1861.3,124.5,36.7,121.1,0.0,0.0,0.0,
160600,1863.4,162.4,62.4,121.1,0.0,0.0,0.0,
160700,1882.9,123.8,90.1,121.1,0.0,0.0,0.0,
160900,1879.3,140.9,116.9,70.3,0.0,0.0,0.0,
161000,1862.2,138.1,127.9,80.1,0.0,0.0,0.0,
161100,1867.4,51.7,139.3,66.4,0.0,0.0,0.0,
161200,1867.9,34.6,141.2,66.4,0.0,0.0,0.0,
161300,1861.8,28.4,141.3,64.5,0.0,0.0,0.0,
161400,1860.4,27.1,141.3,64.5,0.0,0.0,0.0,
161500,1864.7,26.6,141.3,119.1,0.0,0.0,0.0,
161600,1862.5,30.5,131.1,119.1,0.0,0.0,0.0,
161700,1862.5,24.9,113.9,119.1,0.0,0.0,0.0,
161900,1855.9,61.6,86.3,121.1,0.0,0.0,0.0,
162000,1851.5,50.9,71.4,119.1,0.0,0.0,0.0,
162100,1859.8,149.4,48.6,119.1,0.0,0.0,0.0,
162200,1860.8,141.5,74.9,91.8,0.0,0.0,0.0,
162300,1845.2,126.0,96.1,91.8,0.0,0.0,0.0,
162400,1839.5,122.9,114.5,95.7,0.0,0.0,0.0,
162500,1862.5,115.7,127.7,95.7,0.0,0.0,0.0,
162600,1865.2,117.6,137.0,95.7,0.0,0.0,0.0,
162700,1850.8,48.9,144.7,97.7,0.0,0.0,0.0,
162900,1859.6,29.2,147.9,97.7,0.0,0.0,0.0,
163000,1858.7,28.8,146.8,99.6,0.0,0.0,0.0,
163100,1858.2,26.7,145.7,119.1,0.0,0.0,0.0,
163200,1860.5,17.4,132.0,121.1,0.0,0.0,0.0,
163300,1863.3,15.9,117.1,121.1,0.0,0.0,0.0,
163400,1864.7,17.0,98.7,121.1,0.0,0.0,0.0,
163500,1864.0,23.0,80.5,121.1,0.0,0.0,0.0,
163600,1865.3,35.2,63.2,121.1,0.0,0.0,0.0,
163700,1854.0,113.4,43.7,119.1,0.0,0.0,0.0,
163900,1860.4,117.2,65.0,62.5,0.0,0.0,0.0,
164000,1855.9,94.7,78.0,54.7,0.0,0.0,0.0,
164100,1849.0,114.7,86.1,62.5,0.0,0.0,0.0,
164200,1864.3,121.3,95.3,64.5,0.0,0.0,0.0,
164300,1866.3,50.7,103.9,62.5,0.0,0.0,0.0,
164400,1858.0,20.8,108.7,33.2,0.0,0.0,0.0,
164500,1862.6,18.8,108.8,33.2,0.0,0.0,0.0,
164600,1860.9,21.3,108.6,33.2,0.0,0.0,0.0,
164700,1861.7,19.9,108.0,50.8,0.0,0.0,0.0,
164900,1858.7,16.7,91.1,121.1,0.0,0.0,0.0,
165000,1860.7,18.1,79.8,121.1,0.0,0.0,0.0,
165100,1859.8,17.7,70.5,121.1,0.0,0.0,0.0,
165200,1859.9,17.4,57.1,121.1,0.0,0.0,0.0,
165300,1861.7,50.1,39.3,121.1,0.0,0.0,0.0,
165400,1859.4,79.7,28.4,121.1,0.0,0.0,0.0,
165500,1859.6,92.6,42.4,119.1,0.0,0.0,0.0,
165600,1863.3,101.0,56.6,97.7,0.0,0.0,0.0,
165700,1866.4,106.7,68.6,95.7,0.0,0.0,0.0,
165900,1863.4,66.0,95.4,80.1,0.0,0.0,0.0,
166000,1868.4,19.6,101.0,64.5,0.0,0.0,0.0,
166100,1861.7,18.3,101.0,64.5,0.0,0.0,0.0,
166200,1859.3,17.0,101.0,64.5,0.0,0.0,0.0,
166300,1861.2,18.9,101.0,66.4,0.0,0.0,0.0,
166400,1858.8,18.5,99.6,119.1,0.0,0.0,0.0,
166500,1860.7,20.6,94.4,121.1,0.0,0.0,0.0,
166600,1861.3,18.0,86.6,121.1,0.0,0.0,0.0,
166700,1858.4,28.7,77.4,121.1,0.0,0.0,0.0,
166900,1857.1,83.2,41.9,119.1,0.0,0.0,0.0,
167000,1857.3,97.4,43.1,103.5,0.0,0.0,0.0,
167100,1851.0,114.7,63.7,119.1,0.0,0.0,0.0,
167200,1850.1,157.7,79.7,160.2,0.0,0.0,0.0,
167300,1850.8,134.1,100.5,160.2,0.0,0.0,0.0,
167400,1844.3,148.4,118.0,121.1,0.0,0.0,0.0,
167500,1854.0,87.1,133.2,97.7,0.0,0.0,0.0,
167600,1847.6,25.5,140.9,97.7,0.0,0.0,0.0,
167700,1860.2,18.7,141.0,97.7,0.0,0.0,0.0,
167900,1860.4,12.8,140.4,105.5,0.0,0.0,0.0,
168000,1860.8,12.1,136.1,119.1,0.0,0.0,0.0,
168100,1860.5,10.4,127.6,121.1,0.0,0.0,0.0,
168200,1859.2,12.9,118.1,121.1,0.0,0.0,0.0,
168300,1860.1,191.6,100.9,121.1,0.0,0.0,0.0,
168400,1686.4,24.5,112.1,62.5,0.0,0.0,0.0,
168500,1853.3,10.6,93.5,60.5,0.0,0.0,0.0,
168600,1861.3,9.6,81.3,60.5,0.0,0.0,0.0,
168700,1859.9,11.0,80.8,60.5,0.0,0.0,0.0,
168900,1858.9,10.9,80.4,212.9,0.0,0.0,0.0,
169000,1862.3,10.1,80.3,212.9,0.0,0.0,0.0,
169100,1860.9,10.5,80.3,214.8,0.0,0.0,0.0,
169200,1856.8,10.2,80.3,214.8,0.0,0.0,0.0,
169300,1857.6,9.5,80.2,216.8,0.0,0.0,0.0,
169400,1860.4,7.8,14.4,216.8,0.0,0.0,0.0,
169500,1860.9,8.3,12.7,250.0,0.0,0.0,0.0,
169600,1860.8,9.3,12.6,269.5,0.0,0.0,0.0,
169700,1862.4,8.4,12.4,253.9,0.0,0.0,0.0,
169900,1861.4,8.9,12.2,224.6,0.0,0.0,0.0,
170000,1859.6,9.4,12.2,226.6,0.0,0.0,0.0,
170100,1860.8,9.4,12.2,263.7,0.0,0.0,0.0,
170200,1858.9,9.6,12.0,279.3,0.0,0.0,0.0,
170300,1857.3,7.9,11.9,281.3,0.0,0.0,0.0,
170400,1859.7,9.6,11.6,250.0,0.0,0.0,0.0,
170500,1859.9,8.4,11.9,250.0,0.0,0.0,0.0,
170600,1861.9,8.7,11.9,238.3,0.0,0.0,0.0,
170700,1861.4,9.6,12.0,224.6,0.0,0.0,0.0,
170900,1862.0,9.3,12.4,210.9,0.0,0.0,0.0,
171000,1859.5,8.4,12.2,216.8,0.0,0.0,0.0,
171100,1860.9,10.9,12.3,226.6,0.0,0.0,0.0,
171200,1859.3,9.8,12.4,234.4,0.0,0.0,0.0,
171300,1860.0,9.7,12.5,234.4,0.0,0.0,0.0,
171400,1861.3,7.2,12.5,234.4,0.0,0.0,0.0,
171500,1860.8,8.9,12.2,201.2,0.0,0.0,0.0,
171600,1862.3,7.8,12.3,232.4,0.0,0.0,0.0,
171700,1859.9,9.2,12.1,242.2,0.0,0.0,0.0,
171900,1861.0,10.6,11.9,234.4,0.0,0.0,0.0,
172000,1854.4,8.3,11.9,209.0,0.0,0.0,0.0,
172100,1862.4,12.0,11.7,203.1,0.0,0.0,0.0,
172200,1859.0,8.1,11.8,205.1,0.0,0.0,0.0,
172300,1860.6,8.5,11.4,214.8,0.0,0.0,0.0,
172400,1861.1,9.6,11.4,236.3,0.0,0.0,0.0,
172500,1858.8,8.8,11.6,234.4,0.0,0.0,0.0,
172600,1859.1,9.4,11.7,222.7,0.0,0.0,0.0,
172700,1861.5,10.1,11.9,234.4,0.0,0.0,0.0,
172900,1861.5,9.5,11.8,230.5,0.0,0.0,0.0,
173000,1859.3,8.1,11.9,240.2,0.0,0.0,0.0,
173100,1860.1,8.3,12.0,226.6,0.0,0.0,0.0,
173200,1857.3,7.2,11.9,238.3,0.0,0.0,0.0,
173300,1860.5,7.7,11.8,238.3,0.0,0.0,0.0,
173400,1860.6,7.9,11.9,236.3,0.0,0.0,0.0,
173500,1861.5,7.1,11.7,230.5,0.0,0.0,0.0,
173600,1858.6,8.1,11.6,226.6,0.0,0.0,0.0,
173700,1859.9,7.2,11.6,216.8,0.0,0.0,0.0,
173900,1858.2,9.1,11.8,244.1,0.0,0.0,0.0,
174000,1859.7,7.7,11.5,242.2,0.0,0.0,0.0,
174100,1859.7,8.2,11.5,230.5,0.0,0.0,0.0,
174200,1862.1,10.1,11.6,244.1,0.0,0.0,0.0,
174300,1863.4,7.8,11.8,250.0,0.0,0.0,0.0,
174400,1860.8,7.3,11.7,232.4,0.0,0.0,0.0,
174500,1862.1,8.0,11.6,234.4,0.0,0.0,0.0,
174600,1860.0,9.2,11.5,234.4,0.0,0.0,0.0,
174700,1861.2,8.5,11.7,222.7,0.0,0.0,0.0,
174900,1861.3,7.5,11.8,222.7,0.0,0.0,0.0,
175000,1861.5,8.6,11.7,222.7,0.0,0.0,0.0,
175100,1861.1,7.9,11.7,212.9,0.0,0.0,0.0,
175200,1860.1,7.9,11.3,210.9,0.0,0.0,0.0,
175300,1859.9,7.2,11.2,210.9,0.0,0.0,0.0,
175400,1863.4,9.4,11.0,214.8,0.0,0.0,0.0,
175500,1862.7,9.4,11.3,226.6,0.0,0.0,0.0,
175600,1860.9,8.8,11.4,232.4,0.0,0.0,0.0,
175700,1862.7,8.9,11.3,230.5,0.0,0.0,0.0,
175900,1854.4,7.6,11.4,252.0,0.0,0.0,0.0,
176000,1861.0,8.1,11.4,238.3,0.0,0.0,0.0,
176100,1859.7,9.3,11.4,238.3,0.0,0.0,0.0,
176200,1859.5,9.2,11.6,209.0,0.0,0.0,0.0,
176300,1858.6,10.3,12.1,209.0,0.0,0.0,0.0,
176400,1860.7,10.6,12.6,236.3,0.0,0.0,0.0,
176500,1855.8,9.4,12.7,234.4,0.0,0.0,0.0,
176600,1860.7,7.9,12.8,224.6,0.0,0.0,0.0,
176700,1862.0,9.1,12.8,224.6,0.0,0.0,0.0,
176900,1860.7,8.1,12.6,246.1,0.0,0.0,0.0,
177000,1858.3,11.1,12.7,222.7,0.0,0.0,0.0,
177100,1860.2,7.9,13.1,222.7,0.0,0.0,0.0,
177200,1861.3,8.4,13.0,248.0,0.0,0.0,0.0,
177300,1861.3,8.7,12.8,267.6,0.0,0.0,0.0,
177400,1860.8,8.9,12.6,265.6,0.0,0.0,0.0,
177500,1861.1,10.4,12.5,253.9,0.0,0.0,0.0,
177600,1858.7,8.3,12.8,246.1,0.0,0.0,0.0,
177700,1859.9,7.7,12.9,255.9,0.0,0.0,0.0,
177900,1861.2,8.0,12.8,226.6,0.0,0.0,0.0,
178000,1863.1,10.2,12.7,248.0,0.0,0.0,0.0,
178100,1861.6,8.1,12.4,224.6,0.0,0.0,0.0,
178200,1862.1,7.9,12.3,195.3,0.0,0.0,0.0,
178300,1862.7,8.4,12.3,212.9,0.0,0.0,0.0,
178400,1861.5,8.6,12.3,232.4,0.0,0.0,0.0,
178500,1861.7,8.4,12.1,236.3,0.0,0.0,0.0,
178600,1860.4,8.0,11.7,232.4,0.0,0.0,0.0,
178700,1859.1,8.9,11.6,236.3,0.0,0.0,0.0,
178900,1857.2,10.3,11.9,238.3,0.0,0.0,0.0,
179000,1858.1,10.7,12.4,246.1,0.0,0.0,0.0,
179100,1861.6,8.7,12.3,238.3,0.0,0.0,0.0,
179200,1862.5,8.7,12.4,230.5,0.0,0.0,0.0,
179300,1859.8,9.9,12.3,234.4,0.0,0.0,0.0,
179400,1862.9,7.8,12.5,240.2,0.0,0.0,0.0,
179500,1861.6,8.9,12.6,244.1,0.0,0.0,0.0,
179600,1861.3,8.7,12.6,214.8,0.0,0.0,0.0,
179700,1859.7,8.6,12.9,209.0,0.0,0.0,0.0,
179900,1857.5,7.9,12.4,195.3,0.0,0.0,0.0,
180000,1859.3,8.2,12.1,207.0,0.0,0.0,0.0,
180100,1858.4,9.5,11.9,234.4,0.0,0.0,0.0,
180200,1859.1,9.1,12.1,244.1,0.0,0.0,0.0,
180300,1859.2,7.2,12.2,232.4,0.0,0.0,0.0,
180400,1860.7,7.5,11.9,226.6,0.0,0.0,0.0,
180500,1859.3,8.2,11.9,246.1,0.0,0.0,0.0,
180600,1858.5,8.4,11.8,259.8,0.0,0.0,0.0,
180700,1857.8,10.0,11.4,248.0,0.0,0.0,0.0,
180900,1858.5,6.8,12.1,212.9,0.0,0.0,0.0,
181000,1860.6,9.0,12.0,222.7,0.0,0.0,0.0,
181100,1858.3,8.3,12.2,220.7,0.0,0.0,0.0,
181200,1860.3,8.9,12.2,224.6,0.0,0.0,0.0,
181300,1858.8,7.7,12.1,257.8,0.0,0.0,0.0,
181400,1861.0,8.7,12.2,248.0,0.0,0.0,0.0,
181500,1858.8,8.2,12.1,226.6,0.0,0.0,0.0,
181600,1859.9,7.7,12.1,240.2,0.0,0.0,0.0,
181700,1859.5,9.6,12.2,224.6,0.0,0.0,0.0,
181900,1858.7,9.6,12.0,257.8,0.0,0.0,0.0,
182000,1860.3,9.3,12.2,257.8,0.0,0.0,0.0,
182100,1859.8,8.8,12.1,265.6,0.0,0.0,0.0,
182200,1859.4,8.8,12.0,263.7,0.0,0.0,0.0,
182300,1857.2,8.0,12.2,246.1,0.0,0.0,0.0,
182400,1858.1,9.0,12.3,228.5,0.0,0.0,0.0,
182500,1858.4,7.5,12.4,214.8,0.0,0.0,0.0,
182600,1860.9,7.2,12.3,226.6,0.0,0.0,0.0,
182700,1860.0,9.1,12.2,265.6,0.0,0.0,0.0,
182900,1861.0,7.8,11.8,253.9,0.0,0.0,0.0,
183000,1858.5,8.0,11.7,218.8,0.0,0.0,0.0,
183100,1860.8,8.4,11.6,197.3,0.0,0.0,0.0,
183200,1860.2,8.7,11.4,197.3,0.0,0.0,0.0,
183300,1857.9,7.7,11.2,209.0,0.0,0.0,0.0,
183400,1858.5,7.3,11.0,238.3,0.0,0.0,0.0,
183500,1860.8,8.1,11.0,244.1,0.0,0.0,0.0,
183600,1858.9,8.8,11.1,253.9,0.0,0.0,0.0,
183700,1857.8,11.3,11.4,242.2,0.0,0.0,0.0,
183900,1859.8,9.7,11.9,220.7,0.0,0.0,0.0,
184000,1858.6,10.3,12.2,199.2,0.0,0.0,0.0,
184100,1860.9,8.8,12.4,199.2,0.0,0.0,0.0,
184200,1860.5,9.2,12.6,224.6,0.0,0.0,0.0,
184300,1855.9,9.4,13.0,210.9,0.0,0.0,0.0,
184400,1856.7,11.0,13.4,158.2,0.0,0.0,0.0,
184500,1858.1,9.4,13.6,142.6,0.0,0.0,0.0,
184600,1860.3,9.5,13.7,169.9,0.0,0.0,0.0,
184700,1859.2,8.8,13.8,195.3,0.0,0.0,0.0,
184900,1860.5,8.2,13.2,232.4,0.0,0.0,0.0,
185000,1860.2,8.3,12.9,269.5,0.0,0.0,0.0,
185100,1860.2,11.0,12.7,263.7,0.0,0.0,0.0,
185200,1858.3,9.4,13.0,222.7,0.0,0.0,0.0,
185300,1856.6,9.1,12.8,220.7,0.0,0.0,0.0,
185400,1860.1,8.5,12.6,236.3,0.0,0.0,0.0,
185500,1857.3,9.3,12.4,259.8,0.0,0.0,0.0,
185600,1861.5,6.9,12.4,257.8,0.0,0.0,0.0,
185700,1859.3,8.9,12.0,212.9,0.0,0.0,0.0,
185900,1859.1,8.9,12.2,246.1,0.0,0.0,0.0,
186000,1858.9,9.1,12.3,253.9,0.0,0.0,0.0,
186100,1859.6,8.5,12.2,222.7,0.0,0.0,0.0,
186200,1859.6,9.8,11.8,203.1,0.0,0.0,0.0,
186300,1856.9,9.4,11.8,203.1,0.0,0.0,0.0,
186400,1858.3,8.4,11.7,234.4,0.0,0.0,0.0,
186500,1859.2,9.0,11.6,271.5,0.0,0.0,0.0,
186600,1857.6,9.4,11.6,289.1,0.0,0.0,0.0,
186700,1860.1,9.3,11.7,277.3,0.0,0.0,0.0,
186900,1860.0,7.8,11.8,234.4,0.0,0.0,0.0,
187000,1860.6,9.9,11.7,248.0,0.0,0.0,0.0,
187100,1857.0,14.0,11.9,234.4,0.0,0.0,0.0,
187200,1855.9,9.8,12.5,220.7,0.0,0.0,0.0,
187300,1861.0,9.6,12.4,222.7,0.0,0.0,0.0,
187400,1858.9,7.9,12.3,218.8,0.0,0.0,0.0,
187500,1858.1,8.3,12.4,210.9,0.0,0.0,0.0,
187600,1859.9,8.6,12.3,201.2,0.0,0.0,0.0,
187700,1859.0,7.7,12.2,197.3,0.0,0.0,0.0,
187900,1861.2,9.0,12.2,205.1,0.0,0.0,0.0,
188000,1857.8,8.9,12.4,236.3,0.0,0.0,0.0,
188100,1858.8,8.7,12.3,250.0,0.0,0.0,0.0,
188200,1859.7,8.7,12.0,255.9,0.0,0.0,0.0,
188300,1858.5,7.9,11.9,248.0,0.0,0.0,0.0,
188400,1859.2,8.3,11.8,240.2,0.0,0.0,0.0,
188500,1861.1,9.7,12.1,193.4,0.0,0.0,0.0,
188600,1858.9,7.5,12.5,205.1,0.0,0.0,0.0,
188700,1859.3,10.8,12.5,248.0,0.0,0.0,0.0,
188900,1859.3,9.0,12.9,234.4,0.0,0.0,0.0,
189000,1860.1,8.5,12.8,220.7,0.0,0.0,0.0,
189100,1859.8,8.3,13.1,230.5,0.0,0.0,0.0,
189200,1858.1,8.6,12.8,232.4,0.0,0.0,0.0,
189300,1858.0,9.2,12.8,218.8,0.0,0.0,0.0,
189400,1858.4,8.3,13.0,199.2,0.0,0.0,0.0,
189500,1858.7,8.2,12.8,183.6,0.0,0.0,0.0,
189600,1859.3,8.7,12.4,232.4,0.0,0.0,0.0,
189700,1860.3,9.4,12.3,259.8,0.0,0.0,0.0,
189900,1858.7,9.3,12.4,220.7,0.0,0.0,0.0,
190000,1858.1,9.2,12.4,230.5,0.0,0.0,0.0,
190100,1860.7,9.6,12.2,236.3,0.0,0.0,0.0,
190200,1859.2,9.1,12.5,224.6,0.0,0.0,0.0,
190300,1859.8,9.6,12.4,224.6,0.0,0.0,0.0,
190400,1857.8,7.9,12.4,214.8,0.0,0.0,0.0,
190500,1859.0,9.4,12.4,207.0,0.0,0.0,0.0,
190600,1860.3,11.5,12.6,236.3,0.0,0.0,0.0,
190700,1858.9,10.1,12.8,255.9,0.0,0.0,0.0,
190900,1859.5,9.8,12.5,263.7,0.0,0.0,0.0,
191000,1859.1,7.8,12.4,279.3,0.0,0.0,0.0,
191100,1857.5,8.9,12.5,265.6,0.0,0.0,0.0,
191200,1858.6,8.9,12.3,267.6,0.0,0.0,0.0,
191300,1859.1,11.8,12.4,261.7,0.0,0.0,0.0,
191400,1859.9,10.0,12.6,232.4,0.0,0.0,0.0,
191500,1859.5,10.2,12.8,212.9,0.0,0.0,0.0,
191600,1858.1,7.9,13.0,209.0,0.0,0.0,0.0,
191700,1861.0,7.3,12.7,205.1,0.0,0.0,0.0,
191900,1861.6,8.5,12.6,210.9,0.0,0.0,0.0,
192000,1858.7,7.4,12.7,234.4,0.0,0.0,0.0,
192100,1857.1,9.4,12.6,242.2,0.0,0.0,0.0,
192200,1858.4,8.1,12.8,238.3,0.0,0.0,0.0,
192300,1862.0,6.9,12.6,248.0,0.0,0.0,0.0,
192400,1861.3,9.8,12.3,259.8,0.0,0.0,0.0,
192500,1860.0,7.4,12.3,246.1,0.0,0.0,0.0,
192600,1859.0,9.0,11.9,232.4,0.0,0.0,0.0,
192700,1859.6,8.6,12.0,246.1,0.0,0.0,0.0,
192900,1860.6,9.8,12.4,244.1,0.0,0.0,0.0,
193000,1858.5,8.4,12.5,246.1,0.0,0.0,0.0,
193100,1857.9,9.9,12.3,230.5,0.0,0.0,0.0,
193200,1859.0,10.0,12.4,228.5,0.0,0.0,0.0,
193300,1858.0,9.4,12.6,238.3,0.0,0.0,0.0,
193400,1859.3,8.3,12.9,232.4,0.0,0.0,0.0,
193500,1860.3,7.8,12.7,205.1,0.0,0.0,0.0,
193600,1860.8,8.6,12.8,210.9,0.0,0.0,0.0,
193700,1858.0,8.3,12.9,230.5,0.0,0.0,0.0,
193900,1860.8,8.7,12.4,210.9,0.0,0.0,0.0,
194000,1858.8,7.5,12.2,209.0,0.0,0.0,0.0,
194100,1860.0,8.6,12.1,218.8,0.0,0.0,0.0,
194200,1859.5,9.7,11.9,224.6,0.0,0.0,0.0,
194300,1857.5,8.6,12.1,226.6,0.0,0.0,0.0,
194400,1860.3,8.8,11.7,232.4,0.0,0.0,0.0,
194500,1858.8,7.8,11.8,234.4,0.0,0.0,0.0,
194600,1860.5,9.9,11.9,205.1,0.0,0.0,0.0,
194700,1858.8,8.9,11.9,197.3,0.0,0.0,0.0,
194900,1859.1,8.1,12.1,236.3,0.0,0.0,0.0,
195000,1859.7,9.3,12.0,242.2,0.0,0.0,0.0,
195100,1859.0,9.7,12.5,255.9,0.0,0.0,0.0,
195200,1860.8,9.2,12.6,265.6,0.0,0.0,0.0,
195300,1859.7,7.6,12.4,259.8,0.0,0.0,0.0,
195400,1859.9,8.6,12.4,216.8,0.0,0.0,0.0,
195500,1859.6,8.1,12.4,210.9,0.0,0.0,0.0,
195600,1858.3,9.2,12.4,216.8,0.0,0.0,0.0,
195700,1860.3,9.3,12.2,228.5,0.0,0.0,0.0,
195900,1859.3,10.7,12.8,252.0,0.0,0.0,0.0,
196000,1859.3,8.4,13.1,253.9,0.0,0.0,0.0,
196100,1859.1,9.5,12.7,252.0,0.0,0.0,0.0,
196200,1856.9,10.7,12.6,252.0,0.0,0.0,0.0,
196300,1857.1,8.2,12.6,279.3,0.0,0.0,0.0,
196400,1857.5,8.3,12.7,255.9,0.0,0.0,0.0,
196500,1859.6,8.2,12.6,220.7,0.0,0.0,0.0,
196600,1859.1,9.6,12.6,226.6,0.0,0.0,0.0,
196700,1859.5,10.6,12.6,244.1,0.0,0.0,0.0,
196900,1861.2,9.1,12.3,224.6,0.0,0.0,0.0,
197000,1856.9,7.8,12.3,234.4,0.0,0.0,0.0,
197100,1858.0,8.4,12.2,238.3,0.0,0.0,0.0,
197200,1863.6,7.9,12.0,232.4,0.0,0.0,0.0,
197300,1860.4,7.7,12.1,224.6,0.0,0.0,0.0,
197400,1859.6,9.3,12.0,246.1,0.0,0.0,0.0,
197500,1858.6,9.6,12.0,234.4,0.0,0.0,0.0,
197600,1858.7,9.4,12.0,210.9,0.0,0.0,0.0,
197700,1860.0,11.9,12.1,210.9,0.0,0.0,0.0,
197900,1859.1,9.7,12.2,236.3,0.0,0.0,0.0,
198000,1856.9,9.6,12.1,203.1,0.0,0.0,0.0,
198100,1858.3,8.7,12.5,199.2,0.0,0.0,0.0,
198200,1859.6,8.5,12.6,230.5,0.0,0.0,0.0,
198300,1860.1,9.3,12.3,253.9,0.0,0.0,0.0,
198400,1857.2,8.2,12.5,252.0,0.0,0.0,0.0,
198500,1859.0,9.7,12.4,240.2,0.0,0.0,0.0,
198600,1857.3,10.0,12.4,216.8,0.0,0.0,0.0,
198700,1858.0,10.2,12.6,212.9,0.0,0.0,0.0,
198900,1858.7,9.2,12.3,253.9,0.0,0.0,0.0,
199000,1856.5,8.6,12.3,265.6,0.0,0.0,0.0,
199100,1859.5,8.3,12.1,273.4,0.0,0.0,0.0,
199200,1861.5,10.0,12.0,273.4,0.0,0.0,0.0,
199300,1860.5,9.7,12.5,277.3,0.0,0.0,0.0,
199400,1860.0,10.7,12.5,285.2,0.0,0.0,0.0,
199500,1860.3,9.3,12.8,263.7,0.0,0.0,0.0,
199600,1857.4,9.4,12.8,210.9,0.0,0.0,0.0,
199700,1857.6,7.5,12.7,210.9,0.0,0.0,0.0,
199900,1856.8,9.1,12.6,214.8,0.0,0.0,0.0,
200000,1857.6,9.8,12.8,201.2,0.0,0.0,0.0,
200100,1856.5,9.5,12.9,201.2,0.0,0.0,0.0,
200200,1857.7,7.8,13.1,187.5,0.0,0.0,0.0,
200300,1861.2,8.2,12.7,187.5,0.0,0.0,0.0,
200400,1859.7,8.4,12.5,210.9,0.0,0.0,0.0,
200500,1860.3,8.4,12.4,222.7,0.0,0.0,0.0,
200600,1860.2,9.8,12.4,238.3,0.0,0.0,0.0,
200700,1857.6,9.5,12.5,248.0,0.0,0.0,0.0,
200900,1858.9,8.5,12.3,236.3,0.0,0.0,0.0,
201000,1860.9,7.6,12.0,238.3,0.0,0.0,0.0,
201100,1858.0,8.6,11.9,228.5,0.0,0.0,0.0,
201200,1859.2,9.5,11.8,210.9,0.0,0.0,0.0,
201300,1858.2,8.6,11.8,222.7,0.0,0.0,0.0,
201400,1858.5,8.3,11.9,230.5,0.0,0.0,0.0,
201500,1858.8,8.7,11.6,238.3,0.0,0.0,0.0,
201600,1860.5,9.4,11.7,242.2,0.0,0.0,0.0,
201700,1855.4,10.8,11.7,228.5,0.0,0.0,0.0,
201900,1858.7,8.7,12.2,210.9,0.0,0.0,0.0,
202000,1858.3,8.2,12.4,210.9,0.0,0.0,0.0,
202100,1858.6,8.6,12.3,226.6,0.0,0.0,0.0,
202200,1858.4,9.5,12.3,246.1,0.0,0.0,0.0,
202300,1861.3,8.2,12.3,228.5,0.0,0.0,0.0,
202400,1859.5,8.4,12.4,205.1,0.0,0.0,0.0,
202500,1860.1,7.8,12.6,218.8,0.0,0.0,0.0,
202600,1857.0,7.0,12.6,242.2,0.0,0.0,0.0,
202700,1858.7,8.1,12.3,250.0,0.0,0.0,0.0,
202900,1856.9,8.8,12.0,228.5,0.0,0.0,0.0,
203000,1858.4,7.9,11.9,259.8,0.0,0.0,0.0,
203100,1859.0,8.5,11.7,244.1,0.0,0.0,0.0,
203200,1857.6,9.4,12.0,224.6,0.0,0.0,0.0,
203300,1860.0,8.7,12.4,212.9,0.0,0.0,0.0,
203400,1860.1,8.2,12.3,222.7,0.0,0.0,0.0,
203500,1859.0,7.1,12.4,224.6,0.0,0.0,0.0,
203600,1859.3,10.3,12.3,236.3,0.0,0.0,0.0,
203700,1859.3,8.9,12.4,238.3,0.0,0.0,0.0,
203900,1858.2,7.8,12.3,257.8,0.0,0.0,0.0,
204000,1858.1,8.3,12.1,257.8,0.0,0.0,0.0,
204100,1858.6,9.2,12.3,246.1,0.0,0.0,0.0,
204200,1859.3,7.6,12.1,244.1,0.0,0.0,0.0,
204300,1859.5,9.3,11.8,265.6,0.0,0.0,0.0,
204400,1859.0,10.1,11.7,277.3,0.0,0.0,0.0,
204500,1860.5,8.5,11.7,261.7,0.0,0.0,0.0,
204600,1860.3,8.4,11.9,236.3,0.0,0.0,0.0,
204700,1861.2,10.0,11.7,228.5,0.0,0.0,0.0,
204900,1859.3,7.7,11.6,222.7,0.0,0.0,0.0,
205000,1861.2,8.9,11.6,199.2,0.0,0.0,0.0,
205100,1859.3,11.3,11.5,210.9,0.0,0.0,0.0,
205200,1857.0,10.1,11.7,214.8,0.0,0.0,0.0,
205300,1860.7,8.6,11.7,199.2,0.0,0.0,0.0,
205400,1860.4,8.7,11.7,199.2,0.0,0.0,0.0,
205500,1859.5,9.0,11.5,199.2,0.0,0.0,0.0,
205600,1860.3,8.4,11.5,201.2,0.0,0.0,0.0,
205700,1859.5,10.4,11.6,207.0,0.0,0.0,0.0,
205900,1859.0,8.8,11.9,226.6,0.0,0.0,0.0,
206000,1859.0,8.9,12.1,238.3,0.0,0.0,0.0,
206100,1858.5,8.2,12.3,246.1,0.0,0.0,0.0,
206200,1860.0,9.0,11.9,246.1,0.0,0.0,0.0,
206300,1859.3,8.7,11.9,236.3,0.0,0.0,0.0,
206400,1857.9,8.2,12.0,224.6,0.0,0.0,0.0,
206500,1858.8,9.5,11.9,236.3,0.0,0.0,0.0,
206600,1856.1,8.2,12.0,228.5,0.0,0.0,0.0,
206700,1862.3,8.7,12.3,210.9,0.0,0.0,0.0,
206900,1856.7,10.3,12.2,214.8,0.0,0.0,0.0,
207000,1857.9,9.3,12.6,220.7,0.0,0.0,0.0,
207100,1860.3,9.5,12.4,218.8,0.0,0.0,0.0,
207200,1856.9,9.3,12.7,250.0,0.0,0.0,0.0,
207300,1858.9,9.1,12.8,263.7,0.0,0.0,0.0,
207400,1862.0,7.8,12.7,244.1,0.0,0.0,0.0,
207500,1859.8,7.8,12.7,220.7,0.0,0.0,0.0,
207600,1859.2,6.3,12.5,201.2,0.0,0.0,0.0,
207700,1860.1,9.9,12.3,187.5,0.0,0.0,0.0,
207900,1858.0,8.4,12.3,236.3,0.0,0.0,0.0,
208000,1860.2,10.1,11.9,244.1,0.0,0.0,0.0,
208100,1857.3,7.9,12.2,220.7,0.0,0.0,0.0,
208200,1857.8,10.7,12.0,232.4,0.0,0.0,0.0,
208300,1859.6,9.3,11.9,238.3,0.0,0.0,0.0,
208400,1860.2,7.8,12.1,236.3,0.0,0.0,0.0,
208500,1859.2,10.0,12.3,242.2,0.0,0.0,0.0,
208600,1858.8,7.7,12.5,250.0,0.0,0.0,0.0,
208700,1859.3,9.6,12.3,238.3,0.0,0.0,0.0,
208900,1858.9,9.8,12.1,210.9,0.0,0.0,0.0,
209000,1858.6,11.4,12.7,197.3,0.0,0.0,0.0,
209100,1858.7,8.5,12.8,191.4,0.0,0.0,0.0,
209200,1860.0,8.0,12.9,181.6,0.0,0.0,0.0,
209300,1860.8,8.2,12.9,199.2,0.0,0.0,0.0,
209400,1859.8,8.4,13.1,205.1,0.0,0.0,0.0,
209500,1859.5,8.5,13.0,253.9,0.0,0.0,0.0,
209600,1859.9,7.6,12.9,261.7,0.0,0.0,0.0,
209700,1858.8,8.8,13.0,253.9,0.0,0.0,0.0,
209900,1859.4,8.1,12.9,234.4,0.0,0.0,0.0,
210000,1858.7,8.1,12.3,226.6,0.0,0.0,0.0,
210100,1858.0,8.4,11.9,226.6,0.0,0.0,0.0,
210200,1861.2,9.9,11.9,259.8,0.0,0.0,0.0,
210300,1855.4,9.6,12.0,271.5,0.0,0.0,0.0,
210400,1859.0,8.2,11.7,250.0,0.0,0.0,0.0,
210500,1858.5,9.3,11.6,230.5,0.0,0.0,0.0,
210600,1856.1,10.8,11.6,248.0,0.0,0.0,0.0,
210700,1857.8,9.0,11.8,259.8,0.0,0.0,0.0,
210900,1859.3,10.1,11.9,271.5,0.0,0.0,0.0,
211000,1860.3,9.3,12.1,250.0,0.0,0.0,0.0,
211100,1858.1,8.2,12.4,216.8,0.0,0.0,0.0,
211200,1859.6,10.6,12.3,224.6,0.0,0.0,0.0,
211300,1854.6,10.7,12.4,257.8,0.0,0.0,0.0,
211400,1857.5,8.8,12.7,291.0,0.0,0.0,0.0,
211500,1858.1,9.1,12.9,259.8,0.0,0.0,0.0,
211600,1860.2,7.6,13.0,232.4,0.0,0.0,0.0,
211700,1860.6,9.1,12.8,236.3,0.0,0.0,0.0,
211900,1857.9,8.6,12.8,248.0,0.0,0.0,0.0,
212000,1859.6,10.6,12.7,257.8,0.0,0.0,0.0,
212100,1863.1,8.3,12.6,240.2,0.0,0.0,0.0,
212200,1858.5,8.5,12.6,226.6,0.0,0.0,0.0,
212300,1857.1,7.4,12.4,210.9,0.0,0.0,0.0,
212400,1858.9,7.7,11.9,199.2,0.0,0.0,0.0,
212500,1860.0,7.8,11.7,232.4,0.0,0.0,0.0,
212600,1858.9,8.9,11.7,261.7,0.0,0.0,0.0,
212700,1860.2,8.1,11.7,238.3,0.0,0.0,0.0,
212900,1857.9,9.4,11.8,199.2,0.0,0.0,0.0,
213000,1858.8,8.2,11.7,236.3,0.0,0.0,0.0,
213100,1860.8,8.6,11.7,261.7,0.0,0.0,0.0,
213200,1857.7,5.8,11.7,253.9,0.0,0.0,0.0,
213300,1860.1,7.6,11.4,226.6,0.0,0.0,0.0,
213400,1860.6,6.9,11.5,216.8,0.0,0.0,0.0,
213500,1860.1,7.3,11.3,181.6,0.0,0.0,0.0,
213600,1860.3,7.9,11.0,210.9,0.0,0.0,0.0,
213700,1860.6,311.6,11.2,246.1,1329.0,4602.0,5.0,
213900,1885.3,205.7,174.9,62.5,1329.0,4602.0,5.0,
214000,1871.2,233.4,205.4,68.4,1329.0,4602.0,5.0,
214100,1877.0,210.5,229.3,95.7,1329.0,4602.0,5.0,
214200,1866.1,212.3,245.2,97.7,1329.0,4602.0,5.0,
214300,1878.3,29.5,263.0,97.7,1329.0,4602.0,5.0,
214400,1862.7,20.1,263.1,97.7,1329.0,4602.0,5.0,
214500,1860.8,17.7,263.2,95.7,1329.0,4602.0,5.0,
214600,1860.4,19.3,263.3,95.7,1329.0,4602.0,5.0,
214700,1859.2,16.8,263.4,99.6,1329.0,4602.0,5.0,
214900,1859.8,16.6,197.3,121.1,1329.0,4602.0,5.0,
215000,1857.4,20.8,165.4,121.1,1329.0,4602.0,5.0,
215100,1860.5,22.9,130.4,121.1,1329.0,4602.0,5.0,
215200,1858.8,30.7,97.8,121.1,1329.0,4602.0,5.0,
215300,1874.2,197.6,61.9,119.1,1422.0,4556.0,26.0,
215400,1846.4,257.2,133.9,76.2,1485.0,4978.0,26.0,
215500,1859.2,249.3,166.0,70.3,1485.0,4978.0,26.0,
215600,1867.4,205.7,191.7,74.2,1485.0,4978.0,26.0,
215700,1896.2,178.0,213.3,95.7,1485.0,4978.0,26.0,
215900,1875.0,35.8,250.9,97.7,1485.0,4978.0,26.0,
216000,1863.3,22.0,251.1,97.7,1485.0,4978.0,26.0,
216100,1864.3,19.3,251.1,95.7,1485.0,4978.0,26.0,
216200,1858.9,21.5,251.0,95.7,1485.0,4978.0,26.0,
216300,1863.3,17.7,244.4,99.6,1485.0,4978.0,26.0,
216400,1859.8,20.7,213.5,121.1,1485.0,4978.0,26.0,
216500,1858.0,19.2,189.7,121.1,1485.0,4978.0,26.0,
216600,1860.2,18.5,163.7,121.1,1485.0,4978.0,26.0,
216700,1857.3,17.5,134.3,121.1,1485.0,4978.0,26.0,
216900,1856.6,185.8,25.8,121.1,1556.0,4681.0,25.0,
217000,1869.2,175.9,111.5,93.8,1556.0,4681.0,25.0,
217100,1835.3,198.0,142.2,93.8,1556.0,4681.0,25.0,
217200,1857.0,224.7,164.2,95.7,1556.0,4681.0,25.0,
217300,1860.2,207.9,186.8,97.7,1556.0,4681.0,25.0,
217400,1870.2,177.7,205.6,97.7,1556.0,4681.0,25.0,
217500,1870.0,50.3,227.3,97.7,1556.0,4681.0,25.0,
217600,1855.9,21.6,228.3,97.7,1556.0,4681.0,25.0,
217700,1858.5,20.9,228.3,97.7,1556.0,4681.0,25.0,
217900,1856.9,18.8,228.3,97.7,1556.0,4681.0,25.0,
218000,1859.2,20.5,200.6,119.1,1556.0,4681.0,25.0,
218100,1859.7,18.2,180.2,121.1,1556.0,4681.0,25.0,
218200,1859.0,17.1,160.3,121.1,1556.0,4681.0,25.0,
218300,1859.7,16.2,133.3,121.1,1556.0,4681.0,25.0,
218400,1859.2,18.8,101.9,121.1,1556.0,4681.0,25.0,
218500,1863.2,96.2,31.6,121.1,1556.0,4681.0,25.0,
218600,1839.9,134.5,60.1,207.0,1556.0,4681.0,25.0,
218700,1828.7,246.1,92.7,259.8,1556.0,4681.0,25.0,
218900,1833.6,239.2,185.9,97.7,1556.0,4681.0,25.0,
219000,1830.7,202.0,207.7,97.7,1556.0,4681.0,25.0,
219100,1852.6,45.7,222.4,97.7,1556.0,4681.0,25.0,
219200,1860.8,17.6,227.6,97.7,1556.0,4681.0,25.0,
219300,1861.4,19.3,227.6,97.7,1556.0,4681.0,25.0,
219400,1857.0,15.4,227.7,97.7,1556.0,4681.0,25.0,
219500,1859.7,17.6,227.6,97.7,1556.0,4681.0,25.0,
219600,1859.1,16.8,220.8,121.1,1556.0,4681.0,25.0,
219700,1860.5,17.1,209.2,121.1,1556.0,4681.0,25.0,
219900,1859.5,19.0,133.3,121.1,1556.0,4681.0,25.0,
220000,1859.9,43.8,95.9,121.1,1556.0,4681.0,25.0,
220100,1858.8,187.0,54.9,121.1,1556.0,4681.0,25.0,
220200,1856.9,205.2,93.6,97.7,1556.0,4681.0,25.0,
220300,1847.3,244.2,123.6,95.7,1556.0,4681.0,25.0,
220400,1846.8,184.8,153.0,95.7,1556.0,4681.0,25.0,
220500,1842.1,144.3,171.5,97.7,1556.0,4681.0,25.0,
220600,1843.2,182.0,191.5,97.7,1556.0,4681.0,25.0,
220700,1841.5,55.2,208.7,97.7,1556.0,4681.0,25.0,
220900,1863.3,19.3,214.1,97.7,1556.0,4681.0,25.0,
221000,1859.8,18.8,214.1,97.7,1556.0,4681.0,25.0,
221100,1858.8,16.7,213.7,99.6,1556.0,4681.0,25.0,
221200,1858.4,18.2,193.8,119.1,1556.0,4681.0,25.0,
221300,1858.0,22.7,176.2,121.1,1556.0,4681.0,25.0,
221400,1860.8,16.9,151.5,121.1,1556.0,4681.0,25.0,
221500,1857.7,23.8,130.2,121.1,1556.0,4681.0,25.0,
221600,1855.5,27.8,99.0,121.1,1556.0,4681.0,25.0,
221700,1860.4,194.6,54.7,119.1,1556.0,4681.0,25.0,
221900,1864.2,222.3,134.6,93.8,1556.0,4681.0,25.0,
222000,1866.0,251.0,164.2,95.7,1556.0,4681.0,25.0,
222100,1866.3,196.9,185.7,97.7,1556.0,4681.0,25.0,
222200,1862.4,163.1,203.2,95.7,1556.0,4681.0,25.0,
222300,1886.7,69.1,220.5,95.7,1556.0,4681.0,25.0,
222400,1849.2,20.8,227.3,97.7,1556.0,4681.0,25.0,
222500,1858.1,23.4,227.3,97.7,1556.0,4681.0,25.0,
222600,1863.7,21.3,227.2,97.7,1556.0,4681.0,25.0,
222700,1858.9,19.0,227.0,101.6,1556.0,4681.0,25.0,
222900,1857.3,20.5,184.8,121.1,1556.0,4681.0,25.0,
223000,1858.2,20.1,159.1,121.1,1556.0,4681.0,25.0,
223100,1858.5,23.1,133.4,121.1,1556.0,4681.0,25.0,
223200,1857.7,21.8,105.3,121.1,1556.0,4681.0,25.0,
223300,1858.4,159.2,61.6,119.1,1556.0,4681.0,25.0,
223400,1856.0,199.5,69.9,113.3,1556.0,4681.0,25.0,
223500,1859.2,221.2,102.7,97.7,1556.0,4681.0,25.0,
223600,1884.0,179.4,134.3,97.7,1556.0,4681.0,25.0,
223700,1853.6,208.8,160.7,97.7,1556.0,4681.0,25.0,
223900,1866.1,100.7,203.3,97.7,1556.0,4681.0,25.0,
224000,1867.9,45.4,212.9,95.7,1556.0,4681.0,25.0,
224100,1857.9,24.2,214.3,95.7,1556.0,4681.0,25.0,
224200,1862.2,23.1,214.1,95.7,1556.0,4681.0,25.0,
224300,1861.8,24.6,214.1,95.7,1556.0,4681.0,25.0,
224400,1863.8,20.1,204.3,97.7,1556.0,4681.0,25.0,
224500,1857.6,22.9,189.9,119.1,1556.0,4681.0,25.0,
224600,1858.6,21.0,169.0,121.1,1556.0,4681.0,25.0,
224700,1862.3,23.3,144.2,121.1,1556.0,4681.0,25.0,
224900,1860.0,40.6,72.8,121.1,1556.0,4681.0,25.0,
225000,1861.0,156.1,46.7,121.1,1556.0,4681.0,25.0,
225100,1854.9,157.1,90.0,97.7,1556.0,4681.0,25.0,
225200,1850.2,170.1,108.3,95.7,1556.0,4681.0,25.0,
225300,1863.8,171.3,121.7,97.7,1556.0,4681.0,25.0,
225400,1869.9,163.8,142.7,97.7,1556.0,4681.0,25.0,
225500,1852.4,143.1,162.9,97.7,1556.0,4681.0,25.0,
225600,1860.6,53.9,176.8,97.7,1556.0,4681.0,25.0,
225700,1857.6,25.6,178.4,97.7,1556.0,4681.0,25.0,
225900,1861.5,19.5,178.5,93.8,1556.0,4681.0,25.0,
226000,1856.9,21.0,175.9,93.8,1556.0,4681.0,25.0,
226100,1859.3,21.0,156.4,119.1,1556.0,4681.0,25.0,
226200,1858.9,22.4,144.2,121.1,1556.0,4681.0,25.0,
226300,1859.4,19.1,133.2,121.1,1556.0,4681.0,25.0,
226400,1860.2,19.3,110.3,121.1,1556.0,4681.0,25.0,
226500,1858.9,36.1,77.4,121.1,1556.0,4681.0,25.0,
226600,1855.7,155.6,37.5,121.1,1556.0,4681.0,25.0,
226700,1873.5,160.0,74.9,119.1,1556.0,4681.0,25.0,
226900,1836.7,157.1,140.4,97.7,1556.0,4681.0,25.0,
227000,1847.3,160.8,156.4,97.7,1556.0,4681.0,25.0,
227100,1854.0,137.2,170.3,97.7,1556.0,4681.0,25.0,
227200,1854.9,30.5,183.7,95.7,1556.0,4681.0,25.0,
227300,1862.2,25.1,183.7,95.7,1556.0,4681.0,25.0,
227400,1860.3,24.0,183.8,97.7,1556.0,4681.0,25.0,
227500,1859.9,22.7,183.8,97.7,1556.0,4681.0,25.0,
227600,1861.7,20.9,183.5,119.1,1556.0,4681.0,25.0,
227700,1860.1,22.8,169.9,121.1,1556.0,4681.0,25.0,
227900,1857.5,21.4,121.5,121.1,1556.0,4681.0,25.0,
228000,1860.2,22.7,100.1,121.1,1556.0,4681.0,25.0,
228100,1857.3,71.4,74.1,121.1,1556.0,4681.0,25.0,
228200,1857.8,198.8,46.3,121.1,1556.0,4681.0,25.0,
228300,1850.4,215.8,92.1,97.7,1556.0,4681.0,25.0,
228400,1857.6,156.5,120.4,95.7,1556.0,4681.0,25.0,
228500,1865.3,168.5,146.3,97.7,1556.0,4681.0,25.0,
228600,1862.1,218.8,164.7,97.7,1556.0,4681.0,25.0,
228700,1853.9,166.4,182.3,97.7,1556.0,4681.0,25.0,
228900,1860.0,21.1,195.2,97.7,1556.0,4681.0,25.0,
229000,1861.7,22.8,195.2,97.7,1556.0,4681.0,25.0,
229100,1860.3,21.7,195.2,97.7,1556.0,4681.0,25.0,
229200,1859.6,23.3,191.6,119.1,1556.0,4681.0,25.0,
229300,1861.3,22.2,174.2,121.1,1556.0,4681.0,25.0,
229400,1858.7,22.6,156.0,121.1,1556.0,4681.0,25.0,
229500,1859.4,28.5,132.1,121.1,1556.0,4681.0,25.0,
229600,1857.1,47.3,108.3,121.1,1556.0,4681.0,25.0,
229700,1859.9,26.2,76.5,119.1,1556.0,4681.0,25.0,
229900,1840.8,223.2,98.9,95.7,1556.0,4681.0,25.0,
230000,1847.0,178.6,129.9,97.7,1556.0,4681.0,25.0,
230100,1861.0,174.2,149.0,97.7,1556.0,4681.0,25.0,
230200,1877.6,165.2,168.7,97.7,1556.0,4681.0,25.0,
230300,1850.1,160.6,186.8,97.7,1556.0,4681.0,25.0,
230400,1865.0,41.4,199.8,97.7,1556.0,4681.0,25.0,
230500,1856.0,26.6,200.2,97.7,1556.0,4681.0,25.0,
230600,1862.9,26.8,200.2,97.7,1556.0,4681.0,25.0,
230700,1859.4,24.3,199.7,97.7,1556.0,4681.0,25.0,
230900,1863.8,25.4,176.4,119.1,1556.0,4681.0,25.0,
231000,1857.3,23.7,155.0,121.1,1556.0,4681.0,25.0,
231100,1857.7,22.1,136.8,121.1,1556.0,4681.0,25.0,
231200,1857.8,25.4,111.6,121.1,1556.0,4681.0,25.0,
231300,1861.4,24.6,77.8,121.1,1556.0,4681.0,25.0,
231400,1859.3,159.8,32.4,121.1,1556.0,4681.0,25.0,
231500,1858.0,165.5,65.7,119.1,1556.0,4681.0,25.0,
231600,1852.6,169.7,106.9,95.7,1556.0,4681.0,25.0,
231700,1867.9,191.8,130.3,95.7,1556.0,4681.0,25.0,
231900,1860.3,149.6,168.9,97.7,1556.0,4681.0,25.0,
232000,1868.8,44.2,185.4,97.7,1556.0,4681.0,25.0,
232100,1850.1,24.3,187.9,97.7,1556.0,4681.0,25.0,
232200,1859.2,24.2,187.9,97.7,1556.0,4681.0,25.0,
232300,1858.3,25.8,187.9,97.7,1556.0,4681.0,25.0,
232400,1858.0,22.8,187.9,119.1,1556.0,4681.0,25.0,
232500,1861.5,24.6,178.6,119.1,1556.0,4681.0,25.0,
232600,1860.4,24.6,157.3,121.1,1556.0,4681.0,25.0,
232700,1858.0,23.1,138.5,121.1,1556.0,4681.0,25.0,
232900,1858.6,23.0,87.2,121.1,1556.0,4681.0,25.0,
233000,1856.2,141.1,42.1,121.1,1556.0,4681.0,25.0,
233100,1852.9,175.0,56.9,119.1,1556.0,4681.0,25.0,
233200,1854.0,200.3,93.1,95.7,1556.0,4681.0,25.0,
233300,1870.5,174.2,133.7,95.7,1556.0,4681.0,25.0,
233400,1841.4,164.8,159.2,95.7,1556.0,4681.0,25.0,
233500,1864.8,200.6,174.7,95.7,1556.0,4681.0,25.0,
233600,1849.7,50.3,189.2,95.7,1556.0,4681.0,25.0,
233700,1861.7,29.7,192.6,95.7,1556.0,4681.0,25.0,
233900,1861.0,23.4,192.7,97.7,1556.0,4681.0,25.0,
234000,1860.8,22.6,192.6,103.5,1556.0,4681.0,25.0,
234100,1859.2,20.9,186.3,121.1,1556.0,4681.0,25.0,
234200,1857.4,22.6,171.0,121.1,1556.0,4681.0,25.0,
234300,1860.4,24.4,141.6,121.1,1556.0,4681.0,25.0,
234400,1857.6,24.0,112.1,121.1,1556.0,4681.0,25.0,
234500,1858.2,23.8,86.1,119.1,1556.0,4681.0,25.0,
234600,1858.5,122.7,46.2,119.1,1556.0,4681.0,25.0,
234700,1857.1,164.8,67.9,119.1,1556.0,4681.0,25.0,
234900,1847.8,166.9,122.4,95.7,1556.0,4681.0,25.0,
235000,1857.7,185.6,142.0,97.7,1556.0,4681.0,25.0,
235100,1862.6,146.8,166.1,97.7,1556.0,4681.0,25.0,
235200,1859.4,54.9,182.5,97.7,1556.0,4681.0,25.0,
235300,1856.6,28.7,186.8,97.7,1556.0,4681.0,25.0,
235400,1864.3,25.3,186.9,97.7,1556.0,4681.0,25.0,
235500,1862.1,24.7,186.9,99.6,1556.0,4681.0,25.0,
235600,1862.0,23.0,187.0,115.2,1556.0,4681.0,25.0,
235700,1860.4,22.8,176.6,119.1,1556.0,4681.0,25.0,
235900,1860.2,22.3,144.1,121.1,1556.0,4681.0,25.0,
236000,1858.6,24.9,124.9,121.1,1556.0,4681.0,25.0,
236100,1859.5,32.9,90.4,121.1,1556.0,4681.0,25.0,
236200,1858.0,170.3,50.0,119.1,1556.0,4681.0,25.0,
236300,1850.4,172.9,70.1,119.1,1556.0,4681.0,25.0,
236400,1874.1,142.3,107.3,93.8,1556.0,4681.0,25.0,
236500,1852.2,198.7,134.4,95.7,1556.0,4681.0,25.0,
236600,1855.1,175.1,152.1,95.7,1556.0,4681.0,25.0,
236700,1862.2,145.5,164.7,97.7,1556.0,4681.0,25.0,
236900,1853.4,30.5,185.5,97.7,1556.0,4681.0,25.0,
237000,1860.1,27.4,185.5,97.7,1556.0,4681.0,25.0,
237100,1859.8,26.9,185.5,97.7,1556.0,4681.0,25.0,
237200,1861.4,25.3,185.5,103.5,1556.0,4681.0,25.0,
237300,1861.1,25.1,174.3,119.1,1556.0,4681.0,25.0,
237400,1860.2,27.1,154.2,121.1,1556.0,4681.0,25.0,
237500,1858.3,23.8,131.3,121.1,1556.0,4681.0,25.0,
237600,1859.1,23.0,110.2,121.1,1556.0,4681.0,25.0,
237700,1858.6,26.9,90.3,121.1,1556.0,4681.0,25.0,
237900,1854.7,196.7,57.3,119.1,1556.0,4681.0,25.0,
238000,1851.7,197.7,97.2,97.7,1556.0,4681.0,25.0,
238100,1866.2,191.1,127.2,97.7,1556.0,4681.0,25.0,
238200,1861.7,196.1,150.0,97.7,1556.0,4681.0,25.0,
238300,1858.7,210.3,165.9,97.7,1556.0,4681.0,25.0,
238400,1858.3,98.7,185.2,97.7,1556.0,4681.0,25.0,
238500,1859.5,30.5,194.2,97.7,1556.0,4681.0,25.0,
238600,1860.4,24.6,194.3,97.7,1556.0,4681.0,25.0,
238700,1861.0,22.3,194.3,97.7,1556.0,4681.0,25.0,
238900,1859.9,23.9,188.1,121.1,1556.0,4681.0,25.0,
239000,1859.1,26.1,170.9,119.1,1556.0,4681.0,25.0,
239100,1860.0,27.7,149.9,121.1,1556.0,4681.0,25.0,
239200,1856.1,23.5,127.1,121.1,1556.0,4681.0,25.0,
239300,1861.4,27.5,105.6,119.1,1556.0,4681.0,25.0,
239400,1859.2,46.0,66.2,119.1,1556.0,4681.0,25.0,
239500,1870.3,133.5,40.1,121.1,1556.0,4681.0,25.0,
239600,1861.6,228.2,83.6,119.1,1556.0,4681.0,25.0,
239700,1863.6,197.0,119.9,95.7,1556.0,4681.0,25.0,
239900,1892.4,156.2,165.3,95.7,1556.0,4681.0,25.0,
240000,1855.4,114.2,183.9,97.7,1556.0,4681.0,25.0,
240100,1861.3,30.7,194.3,95.7,1556.0,4681.0,25.0,
240200,1858.3,23.9,194.3,95.7,1556.0,4681.0,25.0,
240300,1862.9,20.1,194.2,95.7,1556.0,4681.0,25.0,
240400,1862.8,17.8,194.1,93.8,1556.0,4681.0,25.0,
240500,1861.3,17.6,192.4,119.1,1556.0,4681.0,25.0,
240600,1860.9,17.9,177.6,121.1,1556.0,4681.0,25.0,
240700,1861.1,17.8,155.3,121.1,1556.0,4681.0,25.0,
240900,1859.8,17.9,105.4,121.1,1556.0,4681.0,25.0,
241000,1860.1,49.9,67.4,121.1,1556.0,4681.0,25.0,
241100,1864.1,118.5,29.6,121.1,1556.0,4681.0,25.0,
241200,1881.5,176.2,63.6,119.1,1556.0,4681.0,25.0,
241300,1854.5,227.3,121.3,91.8,1556.0,4681.0,25.0,
241400,1865.2,200.1,148.6,95.7,1556.0,4681.0,25.0,
241500,1864.3,174.1,168.2,95.7,1556.0,4681.0,25.0,
241600,1877.0,139.9,184.6,97.7,1556.0,4681.0,25.0,
241700,1865.0,22.1,197.9,95.7,1556.0,4681.0,25.0,
241900,1860.2,17.8,197.9,97.7,1556.0,4681.0,25.0,
242000,1861.2,17.4,197.9,97.7,1556.0,4681.0,25.0,
242100,1860.5,17.0,197.1,103.5,1556.0,4681.0,25.0,
242200,1861.2,16.7,188.8,121.1,1556.0,4681.0,25.0,
242300,1859.2,20.1,157.8,121.1,1556.0,4681.0,25.0,
242400,1860.2,18.6,132.5,121.1,1556.0,4681.0,25.0,
242500,1858.7,15.4,106.5,121.1,1556.0,4681.0,25.0,
242600,1857.3,33.5,74.5,121.1,1556.0,4681.0,25.0,
242700,1855.9,145.7,26.1,121.1,1556.0,4681.0,25.0,
242900,1851.4,212.3,100.3,95.7,1556.0,4681.0,25.0,
243000,1875.9,141.3,133.9,84.0,1556.0,4681.0,25.0,
243100,1852.2,167.2,152.4,95.7,1556.0,4681.0,25.0,
243200,1856.3,186.6,167.2,95.7,1556.0,4681.0,25.0,
243300,1865.7,40.3,179.6,95.7,1556.0,4681.0,25.0,
243400,1862.1,20.2,180.1,95.7,1556.0,4681.0,25.0,
243500,1859.0,18.7,180.1,95.7,1556.0,4681.0,25.0,
243600,1861.6,18.3,180.1,93.8,1556.0,4681.0,25.0,
243700,1860.2,18.9,179.5,95.7,1556.0,4681.0,25.0,
243900,1858.8,17.2,151.2,121.1,1556.0,4681.0,25.0,
244000,1859.0,16.0,122.5,121.1,1556.0,4681.0,25.0,
244100,1859.5,24.8,98.4,121.1,1556.0,4681.0,25.0,
244200,1859.4,37.0,70.5,121.1,1556.0,4681.0,25.0,
244300,1870.6,199.2,46.2,121.1,1556.0,4681.0,25.0,
244400,1813.8,250.4,113.7,93.8,1273.0,4716.0,5.0,
244500,1834.2,254.3,154.4,95.7,1273.0,4716.0,5.0,
244600,1837.5,223.2,180.3,97.7,1273.0,4716.0,5.0,
244700,1847.4,174.0,206.5,97.7,1273.0,4716.0,5.0,
244900,1845.3,45.6,247.2,97.7,1273.0,4716.0,5.0,
245000,1861.7,19.2,248.1,97.7,1273.0,4716.0,5.0,
245100,1857.2,20.1,248.1,97.7,1273.0,4716.0,5.0,
245200,1862.2,15.5,248.0,97.7,1273.0,4716.0,5.0,
245300,1859.9,16.3,245.0,99.6,1273.0,4716.0,5.0,
245400,1858.3,17.5,221.5,119.1,1273.0,4716.0,5.0,
245500,1858.7,14.6,195.3,119.1,1273.0,4716.0,5.0,
245600,1860.9,15.7,171.7,121.1,1273.0,4716.0,5.0,
245700,1859.6,16.2,139.0,121.1,1273.0,4716.0,5.0,
245900,1856.9,99.5,29.1,121.1,1273.0,4716.0,5.0,
246000,1870.9,146.8,48.5,121.1,1273.0,4716.0,5.0,
246100,1864.2,115.0,92.4,95.7,1273.0,4716.0,5.0,
246200,1870.6,150.8,103.2,95.7,1273.0,4716.0,5.0,
246300,1854.3,187.1,116.9,95.7,1273.0,4716.0,5.0,
246400,1863.5,142.7,139.8,97.7,1273.0,4716.0,5.0,
246500,1863.0,153.8,151.6,95.7,1273.0,4716.0,5.0,
246600,1850.8,68.4,159.7,95.7,1273.0,4716.0,5.0,
246700,1874.8,19.7,164.2,68.4,1273.0,4716.0,5.0,
246900,1861.4,17.6,164.1,60.5,1273.0,4716.0,5.0,
247000,1859.5,20.3,158.2,62.5,1273.0,4716.0,5.0,
247100,1859.9,18.4,137.3,119.1,1273.0,4716.0,5.0,
247200,1857.6,18.4,129.4,121.1,1273.0,4716.0,5.0,
247300,1859.4,24.3,117.2,121.1,1273.0,4716.0,5.0,
247400,1859.4,21.0,89.0,121.1,1273.0,4716.0,5.0,
247500,1860.4,74.5,67.1,121.1,1273.0,4716.0,5.0,
247600,1860.6,129.2,54.6,121.1,1273.0,4716.0,5.0,
247700,1862.6,204.8,60.1,119.1,1273.0,4716.0,5.0,
247900,1860.3,191.3,135.0,95.7,1273.0,4716.0,5.0,
248000,1864.5,178.1,154.5,95.7,1273.0,4716.0,5.0,
248100,1860.9,42.5,168.7,95.7,1273.0,4716.0,5.0,
248200,1864.8,22.6,173.9,95.7,1273.0,4716.0,5.0,
248300,1858.8,18.9,173.9,95.7,1273.0,4716.0,5.0,
248400,1859.6,18.1,173.8,95.7,1273.0,4716.0,5.0,
248500,1856.5,18.4,173.7,97.7,1273.0,4716.0,5.0,
248600,1859.8,19.3,170.9,119.1,1273.0,4716.0,5.0,
248700,1860.5,22.6,164.7,121.1,1273.0,4716.0,5.0,
248900,1858.0,19.3,112.1,121.1,1273.0,4716.0,5.0,
249000,1859.4,19.2,83.2,121.1,1273.0,4716.0,5.0,
249100,1857.9,127.0,48.4,121.1,1273.0,4716.0,5.0,
249200,1837.9,209.4,84.7,119.1,1273.0,4716.0,5.0,
249300,1844.5,220.7,128.1,97.7,1273.0,4716.0,5.0,
249400,1835.3,236.6,152.7,97.7,1273.0,4716.0,5.0,
249500,1841.0,179.6,175.6,97.7,1273.0,4716.0,5.0,
249600,1867.3,154.0,195.3,97.7,1273.0,4716.0,5.0,
249700,1847.4,50.7,212.5,97.7,1273.0,4716.0,5.0,
249900,1860.5,17.3,216.6,97.7,1273.0,4716.0,5.0,
250000,1860.7,16.4,216.6,95.7,1273.0,4716.0,5.0,
250100,1856.9,17.0,216.5,97.7,1273.0,4716.0,5.0,
250200,1860.9,17.0,200.7,119.1,1273.0,4716.0,5.0,
250300,1858.5,17.5,176.1,121.1,1273.0,4716.0,5.0,
250400,1859.0,17.3,155.3,121.1,1273.0,4716.0,5.0,
250500,1860.5,24.6,128.8,121.1,1273.0,4716.0,5.0,
250600,1857.0,30.2,96.5,121.1,1273.0,4716.0,5.0,
250700,1857.3,173.3,48.7,119.1,1273.0,4716.0,5.0,
250900,1871.1,245.2,123.4,95.7,1273.0,4716.0,5.0,
251000,1821.3,261.0,169.4,95.7,1273.0,4716.0,5.0,
251100,1843.9,260.4,203.5,97.7,1273.0,4716.0,5.0,
251200,1833.6,211.6,228.4,97.7,1273.0,4716.0,5.0,
251300,1841.4,119.8,252.1,97.7,1511.0,5056.0,5.0,
251400,1843.1,30.1,266.9,97.7,1511.0,5056.0,5.0,
251500,1858.5,21.0,267.1,97.7,1511.0,5056.0,5.0,
251600,1860.1,16.7,267.1,97.7,1511.0,5056.0,5.0,
251700,1859.7,16.8,266.9,97.7,1511.0,5056.0,5.0,
251900,1859.2,18.8,237.9,121.1,1511.0,5056.0,5.0,
252000,1860.4,16.0,207.7,121.1,1511.0,5056.0,5.0,
252100,1860.3,19.7,174.5,121.1,1511.0,5056.0,5.0,
252200,1860.0,22.5,140.3,121.1,1511.0,5056.0,5.0,
252300,1857.6,100.9,91.2,121.1,1511.0,5056.0,5.0,
252400,1864.0,206.1,57.0,119.1,1511.0,5056.0,5.0,
252500,1873.5,217.7,104.3,68.4,1511.0,5056.0,5.0,
252600,1862.0,214.8,135.7,68.4,1511.0,5056.0,5.0,
252700,1865.7,204.4,169.6,95.7,1511.0,5056.0,5.0,
252900,1851.4,97.6,210.2,97.7,1511.0,5056.0,5.0,
253000,1864.5,27.1,221.1,95.7,1511.0,5056.0,5.0,
253100,1858.5,20.4,221.1,97.7,1511.0,5056.0,5.0,
253200,1859.1,23.4,221.1,97.7,1511.0,5056.0,5.0,
253300,1861.8,20.0,221.2,97.7,1511.0,5056.0,5.0,
253400,1858.7,20.1,215.2,119.1,1511.0,5056.0,5.0,
253500,1863.1,19.4,196.4,121.1,1511.0,5056.0,5.0,
253600,1857.8,21.0,176.2,121.1,1511.0,5056.0,5.0,
253700,1860.0,22.0,143.8,121.1,1511.0,5056.0,5.0,
253900,1859.7,72.4,73.5,121.1,1511.0,5056.0,5.0,
254000,1881.5,183.2,46.0,119.1,1511.0,5056.0,5.0,
254100,1847.1,209.4,107.7,95.7,1511.0,5056.0,5.0,
254200,1868.6,208.3,133.2,70.3,1511.0,5056.0,5.0,
254300,1872.5,190.6,154.1,66.4,1511.0,5056.0,5.0,
254400,1890.1,148.0,175.0,95.7,1511.0,5056.0,5.0,
254500,1850.5,122.5,192.9,95.7,1511.0,5056.0,5.0,
254600,1876.3,33.1,201.9,95.7,1511.0,5056.0,5.0,
254700,1857.4,21.8,202.1,95.7,1511.0,5056.0,5.0,
254900,1857.9,26.0,201.9,89.8,1511.0,5056.0,5.0,
255000,1859.9,22.4,198.5,119.1,1511.0,5056.0,5.0,
255100,1857.0,22.6,172.9,121.1,1511.0,5056.0,5.0,
255200,1858.4,22.0,154.1,121.1,1511.0,5056.0,5.0,
255300,1855.2,24.4,133.3,121.1,1511.0,5056.0,5.0,
255400,1858.7,21.1,104.3,121.1,1511.0,5056.0,5.0,
255500,1857.2,140.1,65.7,121.1,1511.0,5056.0,5.0,
255600,1854.4,183.7,56.8,119.1,1511.0,5056.0,5.0,
255700,1866.1,160.3,111.0,87.9,1511.0,5056.0,5.0,
255900,1863.7,191.6,169.4,95.7,1511.0,5056.0,5.0,
256000,1855.6,214.9,184.7,95.7,1511.0,5056.0,5.0,
256100,1863.9,156.3,201.7,95.7,1511.0,5056.0,5.0,
256200,1869.7,38.4,213.5,95.7,1511.0,5056.0,5.0,
256300,1861.4,26.0,214.0,95.7,1511.0,5056.0,5.0,
256400,1862.1,22.0,214.1,93.8,1511.0,5056.0,5.0,
256500,1861.2,24.4,214.1,93.8,1511.0,5056.0,5.0,
256600,1863.5,21.4,208.3,119.1,1511.0,5056.0,5.0,
256700,1861.2,22.7,185.0,121.1,1511.0,5056.0,5.0,
256900,1858.6,22.4,133.6,121.1,1511.0,5056.0,5.0,
257000,1860.0,25.6,111.6,121.1,1511.0,5056.0,5.0,
257100,1858.4,58.9,76.8,121.1,1511.0,5056.0,5.0,
257200,1856.8,264.7,42.1,121.1,1511.0,5056.0,5.0,
257300,1830.6,283.0,108.3,119.1,1511.0,5056.0,5.0,
257400,1830.0,236.5,158.7,97.7,1314.0,5778.0,27.0,
257500,1864.3,204.2,195.1,97.7,1314.0,5778.0,27.0,
257600,1817.8,220.4,223.7,97.7,1314.0,5778.0,27.0,
257700,1839.2,214.0,239.2,97.7,1314.0,5778.0,27.0,
257900,1868.7,27.9,252.0,97.7,1314.0,5778.0,27.0,
258000,1859.0,24.6,252.1,97.7,1314.0,5778.0,27.0,
258100,1862.8,23.2,252.1,97.7,1314.0,5778.0,27.0,
258200,1859.3,23.4,250.5,101.6,1314.0,5778.0,27.0,
258300,1859.8,25.0,229.3,119.1,1314.0,5778.0,27.0,
258400,1861.0,23.9,197.8,121.1,1314.0,5778.0,27.0,
258500,1858.6,25.3,162.0,121.1,1314.0,5778.0,27.0,
258600,1860.9,21.6,119.4,121.1,1314.0,5778.0,27.0,
258700,1859.4,25.7,84.2,121.1,1314.0,5778.0,27.0,
258900,1851.2,213.9,95.5,119.1,1314.0,5778.0,27.0,
259000,1866.9,190.7,133.4,70.3,1314.0,5778.0,27.0,
259100,1863.7,177.6,154.3,68.4,1314.0,5778.0,27.0,
259200,1868.6,123.5,170.6,95.7,1314.0,5778.0,27.0,
259300,1865.8,133.9,182.2,95.7,1314.0,5778.0,27.0,
259400,1855.5,64.4,192.1,95.7,1314.0,5778.0,27.0,
259500,1853.4,39.8,193.1,95.7,1314.0,5778.0,27.0,
259600,1861.3,18.8,193.8,95.7,1314.0,5778.0,27.0,
259700,1859.7,21.5,193.7,95.7,1314.0,5778.0,27.0,
259900,1858.5,20.2,170.9,87.9,1314.0,5778.0,27.0,
260000,1859.6,17.2,143.1,121.1,1314.0,5778.0,27.0,
260100,1861.8,18.1,120.1,121.1,1314.0,5778.0,27.0,
260200,1860.9,19.1,95.5,121.1,1314.0,5778.0,27.0,
260300,1859.2,22.8,70.7,121.1,1314.0,5778.0,27.0,
260400,1859.2,107.0,35.8,121.1,1314.0,5778.0,27.0,
260500,1872.2,180.2,54.2,119.1,1314.0,5778.0,27.0,
260600,1883.3,146.3,107.6,66.4,1314.0,5778.0,27.0,
260700,1854.4,195.9,134.8,66.4,1314.0,5778.0,27.0,
260900,1868.3,165.0,170.0,95.7,1314.0,5778.0,27.0,
261000,1886.3,41.6,185.0,95.7,1314.0,5778.0,27.0,
261100,1852.8,21.3,187.0,95.7,1314.0,5778.0,27.0,
261200,1860.5,18.3,187.0,95.7,1314.0,5778.0,27.0,
261300,1857.1,19.8,187.0,93.8,1314.0,5778.0,27.0,
261400,1859.6,20.8,187.0,95.7,1314.0,5778.0,27.0,
261500,1859.5,18.5,181.4,121.1,1314.0,5778.0,27.0,
261600,1860.4,21.0,154.9,121.1,1314.0,5778.0,27.0,
261700,1858.3,18.7,132.0,121.1,1314.0,5778.0,27.0,
261900,1859.3,19.5,81.9,119.1,1314.0,5778.0,27.0,
262000,1861.3,89.1,37.2,119.1,1314.0,5778.0,27.0,
262100,1850.4,165.0,52.5,119.1,1314.0,5778.0,27.0,
262200,1847.3,264.5,88.5,95.7,1314.0,5778.0,27.0,
262300,1855.3,171.6,140.4,95.7,1314.0,5778.0,27.0,
262400,1858.1,148.3,161.2,95.7,1314.0,5778.0,27.0,
262500,1848.1,169.5,172.6,95.7,1314.0,5778.0,27.0,
262600,1853.7,49.7,183.2,95.7,1314.0,5778.0,27.0,
262700,1861.5,24.2,188.0,95.7,1314.0,5778.0,27.0,medium
262900,1861.8,20.0,188.0,95.7,1314.0,5778.0,27.0,
263000,1859.9,21.5,188.0,95.7,1314.0,5778.0,27.0,
263100,1858.4,21.1,182.3,119.1,1314.0,5778.0,27.0,
263200,1861.1,20.6,167.8,121.1,1314.0,5778.0,27.0,
263300,1858.9,22.3,127.6,121.1,1314.0,5778.0,27.0,
263400,1855.3,24.5,100.1,121.1,1314.0,5778.0,27.0,
263500,1860.0,28.2,78.9,121.1,1314.0,5778.0,27.0,
263600,1859.9,130.5,50.1,121.1,1314.0,5778.0,27.0,
263700,1869.7,164.4,80.4,119.1,1314.0,5778.0,27.0,
263900,1850.9,172.4,133.5,95.7,1314.0,5778.0,27.0,
264000,1855.7,153.3,149.1,95.7,1314.0,5778.0,27.0,
264100,1873.9,127.4,164.7,97.7,1314.0,5778.0,27.0,
264200,1851.7,56.0,175.4,97.7,1314.0,5778.0,27.0,
264300,1860.1,24.5,179.8,97.7,1314.0,5778.0,27.0,
264400,1860.4,24.7,179.8,95.7,1314.0,5778.0,27.0,
264500,1861.0,19.6,179.8,95.7,1314.0,5778.0,27.0,
264600,1860.5,19.9,179.7,97.7,1314.0,5778.0,27.0,
264700,1859.3,20.4,162.9,121.1,1314.0,5778.0,27.0,
264900,1859.0,22.2,123.2,121.1,1314.0,5778.0,27.0,
265000,1860.0,21.7,103.8,121.1,1314.0,5778.0,27.0,
265100,1859.1,28.2,76.8,121.1,1314.0,5778.0,27.0,
265200,1861.1,135.7,48.0,121.1,1314.0,5778.0,27.0,
265300,1856.3,194.4,56.8,119.1,1314.0,5778.0,27.0,
265400,1874.9,147.2,105.7,95.7,1314.0,5778.0,27.0,
265500,1852.0,149.1,128.8,95.7,1314.0,5778.0,27.0,
265600,1860.4,179.6,142.5,97.7,1314.0,5778.0,27.0,
265700,1853.7,137.1,158.5,97.7,1314.0,5778.0,27.0,
265900,1860.6,77.5,175.2,97.7,1314.0,5778.0,27.0,
266000,1860.9,27.9,178.5,97.7,1314.0,5778.0,27.0,
266100,1859.1,23.3,178.6,97.7,1314.0,5778.0,27.0,
266200,1861.3,25.5,178.5,89.8,1314.0,5778.0,27.0,
266300,1860.1,20.7,171.5,87.9,1314.0,5778.0,27.0,
266400,1856.3,23.8,146.5,119.1,1314.0,5778.0,27.0,
266500,1858.3,21.7,126.7,121.1,1314.0,5778.0,27.0,
266600,1857.7,22.5,111.1,121.1,1314.0,5778.0,27.0,
266700,1861.9,26.2,86.9,121.1,1314.0,5778.0,27.0,
266900,1863.4,112.1,48.7,119.1,1314.0,5778.0,27.0,
267000,1856.6,208.7,54.6,99.6,1314.0,5778.0,27.0,
267100,1852.3,158.1,98.2,95.7,1314.0,5778.0,27.0,
267200,1878.1,163.9,127.2,95.7,1314.0,5778.0,27.0,
267300,1845.1,176.3,153.2,95.7,1314.0,5778.0,27.0,
267400,1865.0,106.8,168.6,95.7,1314.0,5778.0,27.0,
267500,1859.8,33.6,177.4,95.7,1314.0,5778.0,27.0,
267600,1862.4,24.2,177.6,95.7,1314.0,5778.0,27.0,
267700,1861.5,24.8,177.6,95.7,1314.0,5778.0,27.0,
267900,1858.0,26.9,177.0,119.1,1314.0,5778.0,27.0,
268000,1860.8,36.0,172.3,119.1,1314.0,5778.0,27.0,
268100,1857.1,26.4,151.8,119.1,1314.0,5778.0,27.0,
268200,1858.2,35.7,129.1,119.1,1314.0,5778.0,27.0,
268300,1865.0,42.4,97.2,119.1,1314.0,5778.0,27.0,
268400,1855.4,122.9,68.3,119.1,1314.0,5778.0,27.0,
268500,1868.7,158.6,65.6,76.2,1314.0,5778.0,27.0,
268600,1850.1,178.5,94.9,78.1,1314.0,5778.0,27.0,
268700,1849.6,161.1,115.3,95.7,1314.0,5778.0,27.0,
268900,1869.6,134.2,143.5,95.7,1314.0,5778.0,27.0,
269000,1855.6,112.1,160.1,95.7,1314.0,5778.0,27.0,
269100,1859.2,31.9,168.9,95.7,1314.0,5778.0,27.0,
269200,1860.6,26.3,168.6,95.7,1314.0,5778.0,27.0,
269300,1858.9,23.9,168.4,95.7,1314.0,5778.0,27.0,
269400,1858.3,25.1,167.9,95.7,1314.0,5778.0,27.0,
269500,1857.0,35.9,159.7,119.1,1314.0,5778.0,27.0,
269600,1859.1,21.8,144.4,119.1,1314.0,5778.0,27.0,
269700,1858.1,32.8,128.6,119.1,1314.0,5778.0,27.0,
269900,1860.4,41.0,96.0,119.1,1314.0,5778.0,27.0,
270000,1858.8,70.6,65.1,119.1,1314.0,5778.0,27.0,
270100,1852.1,108.8,43.9,113.3,1314.0,5778.0,27.0,
270200,1861.2,152.0,56.6,85.9,1314.0,5778.0,27.0,
270300,1871.3,100.5,81.7,72.3,1314.0,5778.0,27.0,
270400,1858.8,91.3,91.8,87.9,1314.0,5778.0,27.0,
270500,1851.2,86.6,98.1,95.7,1314.0,5778.0,27.0,
270600,1855.1,93.5,102.9,97.7,1314.0,5778.0,27.0,
270700,1861.5,29.7,107.8,82.0,1314.0,5778.0,27.0,
270900,1863.4,19.4,107.4,64.5,1314.0,5778.0,27.0,
271000,1862.7,18.9,106.6,66.4,1314.0,5778.0,27.0,
271100,1867.4,15.8,103.3,119.1,1314.0,5778.0,27.0,
271200,1863.3,18.2,96.5,121.1,1314.0,5778.0,27.0,
271300,1859.7,17.1,76.1,121.1,1314.0,5778.0,27.0,
271400,1857.5,20.3,63.6,119.1,1314.0,5778.0,27.0,
271500,1856.5,24.8,53.2,119.1,1314.0,5778.0,27.0,
271600,1856.0,49.3,42.0,119.1,1314.0,5778.0,27.0,
271700,1859.6,139.5,32.3,107.4,1314.0,5778.0,27.0,
271900,1861.8,188.3,105.2,91.8,1314.0,5778.0,27.0,
272000,1879.2,159.4,135.1,93.8,1314.0,5778.0,27.0,
272100,1852.7,203.7,160.3,95.7,1314.0,5778.0,27.0,
272200,1865.7,228.2,180.7,95.7,1314.0,5778.0,27.0,
272300,1858.8,32.1,199.2,95.7,1314.0,5778.0,27.0,
272400,1866.5,16.7,199.2,95.7,1314.0,5778.0,27.0,
272500,1860.2,17.3,199.1,95.7,1314.0,5778.0,27.0,
272600,1858.2,17.9,199.0,95.7,1314.0,5778.0,27.0,
272700,1859.6,17.7,198.1,97.7,1314.0,5778.0,27.0,
272900,1855.4,16.2,170.7,121.1,1314.0,5778.0,27.0,
273000,1858.3,16.7,148.0,121.1,1314.0,5778.0,27.0,
273100,1856.9,14.5,120.3,121.1,1314.0,5778.0,27.0,
273200,1857.3,19.8,86.8,121.1,1314.0,5778.0,27.0,
273300,1860.1,80.8,24.1,121.1,1314.0,5778.0,27.0,
273400,1856.6,194.9,41.8,119.1,1314.0,5778.0,27.0,
273500,1851.5,218.8,99.3,93.8,1314.0,5778.0,27.0,
273600,1854.9,141.3,129.6,95.7,1314.0,5778.0,27.0,
273700,1860.2,103.4,139.3,95.7,1314.0,5778.0,27.0,
273900,1860.3,27.2,151.0,95.7,1314.0,5778.0,27.0,
274000,1856.0,16.0,151.5,95.7,1314.0,5778.0,27.0,
274100,1859.0,15.6,151.5,95.7,1314.0,5778.0,27.0,
274200,1860.5,13.5,151.4,95.7,1314.0,5778.0,27.0,
274300,1857.7,17.2,151.1,97.7,1314.0,5778.0,27.0,
274400,1857.5,15.7,147.1,121.1,1314.0,5778.0,27.0,
274500,1854.4,16.7,116.2,121.1,1314.0,5778.0,27.0,
274600,1857.5,16.7,81.0,121.1,1314.0,5778.0,27.0,
274700,1857.1,14.5,62.9,121.1,1314.0,5778.0,27.0,
274900,1859.7,119.1,24.2,121.1,1314.0,5778.0,27.0,
275000,1853.7,220.3,52.3,93.8,1314.0,5778.0,27.0,
275100,1880.8,208.8,104.4,52.7,1314.0,5778.0,27.0,
275200,1834.8,249.5,146.3,62.5,1314.0,5778.0,27.0,
275300,1845.2,235.4,175.3,95.7,1314.0,5778.0,27.0,
275400,1848.3,215.5,196.4,95.7,1314.0,5778.0,27.0,
275500,1861.6,49.0,218.5,95.7,1314.0,5778.0,27.0,
275600,1858.3,18.3,223.8,95.7,1314.0,5778.0,27.0,
275700,1861.0,17.6,223.8,95.7,1314.0,5778.0,27.0,
275900,1858.7,13.1,223.8,93.8,1314.0,5778.0,27.0,
276000,1857.1,15.1,218.6,119.1,1314.0,5778.0,27.0,
276100,1857.6,17.9,199.0,121.1,1314.0,5778.0,27.0,
276200,1859.6,17.0,170.7,121.1,1314.0,5778.0,27.0,
276300,1858.8,17.3,140.7,121.1,1314.0,5778.0,27.0,
276400,1858.3,19.4,109.4,119.1,1314.0,5778.0,27.0,
276500,1856.1,58.5,53.1,121.1,1314.0,5778.0,27.0,
276600,1862.7,86.3,37.6,121.1,1314.0,5778.0,27.0,
276700,1862.1,119.4,54.6,121.1,1314.0,5778.0,27.0,
276900,1872.3,193.7,121.3,56.6,1314.0,5778.0,27.0,
277000,1865.3,235.0,153.1,95.7,1314.0,5778.0,27.0,
277100,1861.7,53.0,176.3,95.7,1314.0,5778.0,27.0,
277200,1873.4,20.8,182.8,95.7,1314.0,5778.0,27.0,
277300,1858.4,18.3,182.8,95.7,1314.0,5778.0,27.0,
277400,1860.1,14.7,182.8,93.8,1314.0,5778.0,27.0,
277500,1858.5,14.7,182.7,93.8,1314.0,5778.0,27.0,
277600,1858.3,15.3,180.1,121.1,1314.0,5778.0,27.0,
277700,1856.0,17.6,175.7,121.1,1314.0,5778.0,27.0,
277900,1858.5,32.1,138.4,121.1,1314.0,5778.0,27.0,
278000,1857.7,29.7,102.7,121.1,1314.0,5778.0,27.0,
278100,1854.4,137.0,56.2,113.3,1314.0,5778.0,27.0,
278200,1871.9,135.7,56.8,82.0,1314.0,5778.0,27.0,
278300,1868.2,127.4,77.9,64.5,1314.0,5778.0,27.0,
278400,1850.1,117.9,92.8,52.7,1314.0,5778.0,27.0,
278500,1864.4,105.4,107.3,60.5,1314.0,5778.0,27.0,
278600,1880.5,97.4,116.3,62.5,1314.0,5778.0,27.0,
278700,1871.0,43.7,123.1,64.5,1314.0,5778.0,27.0,
278900,1865.3,16.0,126.2,54.7,1314.0,5778.0,27.0,
279000,1860.0,15.2,125.8,54.7,1314.0,5778.0,27.0,
279100,1861.4,16.6,124.8,64.5,1314.0,5778.0,27.0,
279200,1859.2,15.4,114.7,121.1,1314.0,5778.0,27.0,
279300,1857.6,18.0,101.5,121.1,1314.0,5778.0,27.0,
279400,1858.4,15.7,88.2,121.1,1314.0,5778.0,27.0,
279500,1855.1,21.5,69.9,121.1,1314.0,5778.0,27.0,
279600,1854.2,31.9,54.0,121.1,1314.0,5778.0,27.0,
279700,1866.4,91.4,38.1,121.1,1314.0,5778.0,27.0,
279900,1861.8,124.3,62.7,41.0,1314.0,5778.0,27.0,
280000,1861.9,103.0,76.3,35.2,1314.0,5778.0,27.0,
280100,1866.4,116.5,86.4,33.2,1314.0,5778.0,27.0,
280200,1853.3,90.9,95.8,41.0,1314.0,5778.0,27.0,
280300,1863.4,56.8,102.7,62.5,1314.0,5778.0,27.0,
280400,1861.4,32.7,106.8,64.5,1314.0,5778.0,27.0,
280500,1859.6,23.2,107.2,64.5,1314.0,5778.0,27.0,
280600,1862.1,21.2,107.2,64.5,1314.0,5778.0,27.0,
280700,1859.9,21.2,106.5,72.3,1314.0,5778.0,27.0,
280900,1860.4,19.1,90.1,121.1,1314.0,5778.0,27.0,
281000,1860.9,17.2,79.0,121.1,1314.0,5778.0,27.0,
281100,1860.3,18.0,67.9,121.1,1314.0,5778.0,27.0,
281200,1857.6,21.5,53.9,121.1,1314.0,5778.0,27.0,
281300,1856.5,65.7,39.6,121.1,1314.0,5778.0,27.0,
281400,1856.5,87.7,36.8,121.1,1314.0,5778.0,27.0,
281500,1841.7,104.8,51.9,212.9,1314.0,5778.0,27.0,
281600,1844.1,176.4,65.0,164.1,1314.0,5778.0,27.0,
281700,1869.3,179.9,97.3,97.7,1314.0,5778.0,27.0,
281900,1843.5,113.4,153.1,95.7,1314.0,5778.0,27.0,
282000,1861.4,70.7,167.1,95.7,1314.0,5778.0,27.0,
282100,1859.0,31.3,169.7,95.7,1314.0,5778.0,27.0,
282200,1856.8,23.6,170.2,95.7,1314.0,5778.0,27.0,
282300,1861.3,23.9,170.2,91.8,1314.0,5778.0,27.0,
282400,1860.1,20.1,168.4,76.2,1314.0,5778.0,27.0,
282500,1860.1,22.0,164.2,119.1,1314.0,5778.0,27.0,
282600,1861.1,19.3,159.4,121.1,1314.0,5778.0,27.0,
282700,1860.6,25.2,142.0,121.1,1314.0,5778.0,27.0,
282900,1859.7,50.4,79.4,121.1,1314.0,5778.0,27.0,
283000,1865.7,95.5,47.8,121.1,1314.0,5778.0,27.0,
283100,1862.9,202.7,62.5,119.1,1314.0,5778.0,27.0,
283200,1844.1,230.1,103.1,72.3,1314.0,5778.0,27.0,
283300,1854.2,141.5,133.4,80.1,1314.0,5778.0,27.0,
283400,1856.5,103.5,149.6,95.7,1314.0,5778.0,27.0,
283500,1859.3,103.3,156.3,95.7,1314.0,5778.0,27.0,
283600,1850.0,27.8,161.6,95.7,1314.0,5778.0,27.0,
283700,1857.7,19.9,161.7,66.4,1314.0,5778.0,27.0,
283900,1857.8,20.4,161.4,68.4,1314.0,5778.0,27.0,
284000,1858.3,25.3,160.0,119.1,1314.0,5778.0,27.0,
284100,1858.8,23.2,152.1,121.1,1314.0,5778.0,27.0,
284200,1857.5,25.8,127.6,121.1,1314.0,5778.0,27.0,
284300,1857.9,24.1,95.5,121.1,1314.0,5778.0,27.0,
284400,1859.0,22.8,67.6,121.1,1314.0,5778.0,27.0,
284500,1861.4,46.1,50.4,121.1,1314.0,5778.0,27.0,
284600,1856.7,126.9,34.8,121.1,1314.0,5778.0,27.0,
284700,1875.4,187.9,59.0,119.1,1314.0,5778.0,27.0,
284900,1849.4,227.2,140.6,68.4,1314.0,5778.0,27.0,
285000,1853.0,187.0,169.8,95.7,1314.0,5778.0,27.0,
285100,1871.0,163.4,184.8,95.7,1314.0,5778.0,27.0,
285200,1869.1,43.2,195.6,95.7,1314.0,5778.0,27.0,
285300,1864.2,27.9,195.9,95.7,1314.0,5778.0,27.0,
285400,1858.5,24.0,195.9,93.8,1314.0,5778.0,27.0,
285500,1858.3,22.6,195.9,93.8,1314.0,5778.0,27.0,
285600,1857.6,20.6,195.0,117.2,1314.0,5778.0,27.0,
285700,1857.5,22.5,189.0,121.1,1314.0,5778.0,27.0,
285900,1857.9,22.2,139.4,121.1,1314.0,5778.0,27.0,
286000,1860.4,22.7,102.0,121.1,1314.0,5778.0,27.0,
286100,1857.5,34.7,71.1,121.1,1314.0,5778.0,27.0,
286200,1863.1,146.2,32.4,121.1,1314.0,5778.0,27.0,
286300,1846.5,201.4,68.9,119.1,1314.0,5778.0,27.0,
286400,1858.3,164.9,107.3,68.4,1314.0,5778.0,27.0,
286500,1868.0,122.7,131.7,66.4,1314.0,5778.0,27.0,
286600,1851.0,127.3,145.0,68.4,1314.0,5778.0,27.0,
286700,1861.9,137.0,153.1,95.7,1314.0,5778.0,27.0,
286900,1864.0,23.5,161.7,95.7,1314.0,5778.0,27.0,
287000,1856.9,25.1,161.8,95.7,1314.0,5778.0,27.0,
287100,1857.4,25.3,161.8,95.7,1314.0,5778.0,27.0,
287200,1860.7,25.2,161.5,119.1,1314.0,5778.0,27.0,
287300,1862.9,20.2,149.2,121.1,1314.0,5778.0,27.0,
287400,1858.8,30.4,124.3,121.1,1314.0,5778.0,27.0,
287500,1851.4,31.3,98.5,121.1,1314.0,5778.0,27.0,
287600,1856.8,40.6,77.8,121.1,1314.0,5778.0,27.0,
287700,1856.1,48.0,62.8,119.1,1314.0,5778.0,27.0,
287900,1861.3,120.4,65.7,70.3,1314.0,5778.0,27.0,
288000,1861.5,100.8,79.6,66.4,1314.0,5778.0,27.0,
288100,1843.7,114.7,90.4,64.5,1314.0,5778.0,27.0,
288200,1851.1,107.1,99.3,62.5,1314.0,5778.0,27.0,
288300,1860.0,104.9,106.2,62.5,1314.0,5778.0,27.0,
288400,1857.4,36.0,112.2,62.5,1314.0,5778.0,27.0,
288500,1849.5,27.9,113.0,46.9,1314.0,5778.0,27.0,
288600,1861.3,26.5,112.9,33.2,1314.0,5778.0,27.0,
288700,1859.5,30.1,111.6,35.2,1314.0,5778.0,27.0,
288900,1860.2,29.9,97.2,121.1,1314.0,5778.0,27.0,
289000,1861.2,42.8,86.3,121.1,1314.0,5778.0,27.0,
289100,1863.0,41.9,75.7,121.1,1314.0,5778.0,27.0,
289200,1862.5,43.9,64.6,121.1,1314.0,5778.0,27.0,
289300,1859.1,55.7,54.1,119.1,1314.0,5778.0,27.0,
289400,1855.7,111.6,44.3,105.5,1314.0,5778.0,27.0,
289500,1863.5,154.3,62.5,68.4,1314.0,5778.0,27.0,
289600,1870.2,116.8,84.2,62.5,1314.0,5778.0,27.0,
289700,1863.0,116.7,95.6,54.7,1314.0,5778.0,27.0,
289900,1857.2,110.4,114.9,74.2,1314.0,5778.0,27.0,
290000,1870.0,44.9,122.7,95.7,1314.0,5778.0,27.0,
290100,1862.7,31.1,123.8,66.4,1314.0,5778.0,27.0,
290200,1860.5,31.4,123.4,68.4,1314.0,5778.0,27.0,
290300,1860.0,31.6,122.9,78.1,1314.0,5778.0,27.0,
290400,1859.5,29.9,121.6,119.1,1314.0,5778.0,27.0,
290500,1858.9,28.2,112.4,121.1,1314.0,5778.0,27.0,
290600,1857.5,32.0,97.2,121.1,1314.0,5778.0,27.0,
290700,1858.3,30.5,86.2,121.1,1314.0,5778.0,27.0,
290900,1858.7,41.0,58.4,121.1,1314.0,5778.0,27.0,
291000,1860.5,113.8,41.1,119.1,1314.0,5778.0,27.0,
291100,1859.4,139.8,57.8,119.1,1314.0,5778.0,27.0,
291200,1854.1,134.0,86.9,93.8,1314.0,5778.0,27.0,
291300,1863.4,122.3,97.5,60.5,1314.0,5778.0,27.0,
291400,1871.9,99.8,106.7,44.9,1314.0,5778.0,27.0,
291500,1866.6,129.7,114.1,56.6,1314.0,5778.0,27.0,
291600,1852.6,58.8,122.5,62.5,1314.0,5778.0,27.0,
291700,1868.9,36.5,126.5,56.6,1314.0,5778.0,27.0,
291900,1858.2,36.2,126.9,95.7,1314.0,5778.0,27.0,
292000,1859.5,35.0,126.5,119.1,1314.0,5778.0,27.0,
292100,1860.8,32.5,118.5,119.1,1314.0,5778.0,27.0,
292200,1857.7,34.2,99.1,121.1,1314.0,5778.0,27.0,
292300,1859.1,33.7,88.9,121.1,1314.0,5778.0,27.0,
292400,1859.4,35.5,77.7,119.1,1314.0,5778.0,27.0,
292500,1858.7,40.1,66.6,121.1,1314.0,5778.0,27.0,
292600,1858.3,69.0,50.3,121.1,1314.0,5778.0,27.0,
292700,1853.5,97.0,50.0,119.1,1314.0,5778.0,27.0,
292900,1837.5,127.8,76.5,121.1,1314.0,5778.0,27.0,
293000,1851.7,150.2,90.1,97.7,1314.0,5778.0,27.0,
293100,1851.5,119.1,105.4,64.5,1314.0,5778.0,27.0,
293200,1859.3,104.7,118.4,95.7,1314.0,5778.0,27.0,
293300,1848.7,46.7,126.9,95.7,1314.0,5778.0,27.0,
293400,1858.9,37.9,127.1,93.8,1314.0,5778.0,27.0,
293500,1859.6,36.4,127.3,80.1,1314.0,5778.0,27.0,
293600,1858.6,32.7,127.1,93.8,1314.0,5778.0,27.0,
293700,1860.6,36.6,123.4,119.1,1314.0,5778.0,27.0,
293900,1860.7,33.2,108.8,121.1,1314.0,5778.0,27.0,
294000,1858.8,35.0,97.9,121.1,1314.0,5778.0,27.0,
294100,1859.9,34.6,81.2,121.1,1314.0,5778.0,27.0,
294200,1858.0,60.4,60.8,121.1,1314.0,5778.0,27.0,
294300,1858.0,187.3,47.2,121.1,1314.0,5778.0,27.0,
294400,1864.4,165.6,77.2,119.1,1314.0,5778.0,27.0,
294500,1864.7,150.9,113.8,95.7,1314.0,5778.0,27.0,
294600,1859.3,184.8,133.3,95.7,1314.0,5778.0,27.0,
294700,1856.9,152.9,145.9,95.7,1314.0,5778.0,27.0,
294900,1865.0,39.0,162.2,95.7,1314.0,5778.0,27.0,
295000,1859.0,34.4,162.2,97.7,1314.0,5778.0,27.0,
295100,1860.9,33.5,162.3,97.7,1314.0,5778.0,27.0,
295200,1859.2,33.5,162.3,99.6,1314.0,5778.0,27.0,
295300,1857.7,34.9,160.4,119.1,1314.0,5778.0,27.0,
295400,1858.7,33.7,148.2,121.1,1314.0,5778.0,27.0,
295500,1862.6,37.0,122.3,121.1,1314.0,5778.0,27.0,
295600,1857.6,35.4,100.6,121.1,1314.0,5778.0,27.0,
295700,1856.6,35.1,81.4,121.1,1314.0,5778.0,27.0,
295900,1865.9,65.4,42.2,121.1,1314.0,5778.0,27.0,
296000,1856.0,151.0,49.3,121.1,1314.0,5778.0,27.0,
296100,1860.2,191.6,73.5,119.1,1314.0,5778.0,27.0,
296200,1877.3,135.7,108.3,66.4,1314.0,5778.0,27.0,
296300,1860.7,101.4,121.0,66.4,1314.0,5778.0,27.0,
296400,1863.7,82.7,126.5,66.4,1314.0,5778.0,27.0,
296500,1862.1,37.2,130.8,66.4,1314.0,5778.0,27.0,
296600,1857.2,36.2,130.8,66.4,1314.0,5778.0,27.0,
296700,1860.0,36.3,130.9,66.4,1314.0,5778.0,27.0,
296900,1858.1,36.7,130.2,119.1,1314.0,5778.0,27.0,
297000,1859.2,41.3,127.7,121.1,1314.0,5778.0,27.0,
297100,1859.1,35.5,115.8,121.1,1314.0,5778.0,27.0,
297200,1856.2,38.7,84.2,121.1,1314.0,5778.0,27.0,
297300,1857.9,36.9,64.9,121.1,1314.0,5778.0,27.0,
297400,1861.6,75.6,54.0,119.1,1314.0,5778.0,27.0,
297500,1861.6,116.4,47.1,119.1,1314.0,5778.0,27.0,
297600,1866.5,113.4,66.0,117.2,1314.0,5778.0,27.0,
297700,1855.5,115.0,77.9,56.6,1314.0,5778.0,27.0,
297900,1866.3,156.5,102.3,50.8,1314.0,5778.0,27.0,
298000,1871.6,123.9,117.9,33.2,1314.0,5778.0,27.0,
298100,1862.5,45.8,127.3,33.2,1314.0,5778.0,27.0,
