Time(ms),Raw_ADC,ENV_Value,RMS,MDF,MW_Amp,MW_Area,MW_Latency,Marker
0,1861.7,1.8,0.0,0.0,0.0,0.0,0.0,
100,1862.8,1.8,0.0,0.0,0.0,0.0,0.0,
200,1862.6,2.3,0.0,0.0,0.0,0.0,0.0,
300,1862.1,1.5,0.0,0.0,0.0,0.0,0.0,
400,1862.3,2.2,0.0,0.0,0.0,0.0,0.0,
500,1862.1,1.3,0.0,68.4,0.0,0.0,0.0,
600,1861.9,2.0,0.0,101.6,0.0,0.0,0.0,
700,1862.2,1.6,0.0,123.0,0.0,0.0,0.0,
800,1861.6,1.8,0.0,107.4,0.0,0.0,0.0,
900,1862.0,1.9,2.5,68.4,0.0,0.0,0.0,
1000,1861.6,2.1,2.5,97.7,0.0,0.0,0.0,
1100,1861.6,1.7,2.4,117.2,0.0,0.0,0.0,
1200,1861.5,1.9,2.4,103.5,0.0,0.0,0.0,
1300,1861.8,2.0,2.4,74.2,0.0,0.0,0.0,
1400,1862.0,1.5,2.4,99.6,0.0,0.0,0.0,
1500,1862.1,1.7,2.4,68.4,0.0,0.0,0.0,
1600,1862.1,1.9,2.4,84.0,0.0,0.0,0.0,
1700,1862.2,1.9,2.4,85.9,0.0,0.0,0.0,
1900,1862.5,1.8,2.4,80.1,0.0,0.0,0.0,
2000,1862.0,2.0,2.4,99.6,0.0,0.0,0.0,
2100,1861.6,3.6,2.4,70.3,0.0,0.0,0.0,
2200,1864.7,6.5,3.0,66.4,0.0,0.0,0.0,
2300,1863.6,4.9,3.6,62.5,0.0,0.0,0.0,
2400,1863.2,5.8,4.1,60.5,0.0,0.0,0.0,
2500,1863.7,6.2,4.5,60.5,0.0,0.0,0.0,
2600,1863.8,4.6,4.9,60.5,0.0,0.0,0.0,
2700,1864.2,5.9,5.3,60.5,0.0,0.0,0.0,
2900,1864.0,5.2,5.9,60.5,0.0,0.0,0.0,
3000,1864.0,5.3,6.2,60.5,0.0,0.0,0.0,
3100,1863.9,6.0,6.5,60.5,0.0,0.0,0.0,
3200,1864.0,4.9,6.6,60.5,0.0,0.0,0.0,
3300,1863.8,5.7,6.6,60.5,0.0,0.0,0.0,
3400,1863.6,6.0,6.5,60.5,0.0,0.0,0.0,
3500,1863.2,5.0,6.6,60.5,0.0,0.0,0.0,
3600,1863.8,5.9,6.6,60.5,0.0,0.0,0.0,
3700,1863.2,6.1,6.5,60.5,0.0,0.0,0.0,
3900,1863.0,5.9,6.6,60.5,0.0,0.0,0.0,
4000,1862.5,5.8,6.5,60.5,0.0,0.0,0.0,
4100,1862.8,4.8,6.5,60.5,0.0,0.0,0.0,
4200,1862.8,5.8,6.5,60.5,0.0,0.0,0.0,
4300,1862.6,5.9,6.4,60.5,0.0,0.0,0.0,
4400,1862.1,5.0,6.5,60.5,0.0,0.0,0.0,
4500,1862.8,6.1,6.5,60.5,0.0,0.0,0.0,
4600,1862.5,6.1,6.4,60.5,0.0,0.0,0.0,
4700,1862.0,4.9,6.4,60.5,0.0,0.0,0.0,
4900,1862.2,5.8,6.3,60.5,0.0,0.0,0.0,
5000,1861.8,4.8,6.4,60.5,0.0,0.0,0.0,
5100,1862.7,6.6,6.5,60.5,0.0,0.0,0.0,
5200,1862.7,6.3,6.5,60.5,0.0,0.0,0.0,
5300,1861.8,4.7,6.6,60.5,0.0,0.0,0.0,
5400,1861.5,5.8,6.5,60.5,0.0,0.0,0.0,
5500,1861.5,5.7,6.5,60.5,0.0,0.0,0.0,
5600,1861.8,5.0,6.5,60.5,0.0,0.0,0.0,
5700,1862.3,6.1,6.5,60.5,0.0,0.0,0.0,
5900,1862.2,4.2,6.5,60.5,0.0,0.0,0.0,
6000,1862.1,7.5,6.4,60.5,0.0,0.0,0.0,
6100,1859.7,7.6,6.4,60.5,0.0,0.0,0.0,
6200,1859.6,5.3,6.8,60.5,0.0,0.0,0.0,
6300,1860.9,6.6,6.9,60.5,0.0,0.0,0.0,
6400,1861.6,6.4,6.9,60.5,0.0,0.0,0.0,
6500,1862.5,4.7,7.0,60.5,0.0,0.0,0.0,
6600,1862.2,5.0,7.0,60.5,0.0,0.0,0.0,
6700,1861.3,6.1,6.9,60.5,0.0,0.0,0.0,
6900,1861.2,5.9,6.9,60.5,0.0,0.0,0.0,
7000,1860.4,5.2,7.0,60.5,0.0,0.0,0.0,
7100,1861.5,5.0,6.8,60.5,0.0,0.0,0.0,
7200,1861.0,8.3,6.8,60.5,0.0,0.0,0.0,
7300,1859.8,12.2,7.1,60.5,0.0,0.0,0.0,
7400,1859.2,8.6,8.1,60.5,0.0,0.0,0.0,
7500,1859.9,6.4,8.3,62.5,0.0,0.0,0.0,
7600,1862.8,6.4,8.5,74.2,0.0,0.0,0.0,
7700,1862.4,8.7,8.6,64.5,0.0,0.0,0.0,
7900,1861.6,6.7,9.2,60.5,0.0,0.0,0.0,
8000,1861.5,6.3,9.4,62.5,0.0,0.0,0.0,
8100,1862.1,7.4,9.5,60.5,0.0,0.0,0.0,
8200,1861.8,8.9,9.6,60.5,0.0,0.0,0.0,
8300,1861.8,5.3,9.4,72.3,0.0,0.0,0.0,
8400,1862.0,5.7,8.3,82.0,0.0,0.0,0.0,
8500,1863.5,7.4,8.3,72.3,0.0,0.0,0.0,
8600,1861.5,8.5,8.4,62.5,0.0,0.0,0.0,
8700,1861.0,6.1,8.9,78.1,0.0,0.0,0.0,
8900,1862.7,5.6,8.4,62.5,0.0,0.0,0.0,
9000,1862.0,5.0,8.4,60.5,0.0,0.0,0.0,
9100,1861.7,6.2,8.2,60.5,0.0,0.0,0.0,
9200,1861.3,5.0,8.0,60.5,0.0,0.0,0.0,
9300,1861.5,5.6,7.8,60.5,0.0,0.0,0.0,
9400,1861.8,6.2,7.8,60.5,0.0,0.0,0.0,
9500,1861.3,4.9,7.8,60.5,0.0,0.0,0.0,
9600,1862.1,5.3,7.4,60.5,0.0,0.0,0.0,
9700,1862.4,5.2,6.5,60.5,0.0,0.0,0.0,
9900,1860.7,5.2,6.4,60.5,0.0,0.0,0.0,
10000,1860.9,5.3,6.2,60.5,0.0,0.0,0.0,
10100,1861.5,4.5,6.3,60.5,0.0,0.0,0.0,
10200,1862.2,5.4,6.1,60.5,0.0,0.0,0.0,
10300,1863.5,5.6,6.1,60.5,0.0,0.0,0.0,
10400,1863.0,4.9,6.1,60.5,0.0,0.0,0.0,
10500,1864.6,5.5,6.2,60.5,0.0,0.0,0.0,
10600,1864.1,6.1,6.2,60.5,0.0,0.0,0.0,
10700,1863.3,5.6,6.3,60.5,0.0,0.0,0.0,
10900,1864.4,6.4,6.5,60.5,0.0,0.0,0.0,
11000,1864.5,6.2,6.7,60.5,0.0,0.0,0.0,
11100,1862.2,6.0,6.7,60.5,0.0,0.0,0.0,
11200,1863.3,5.9,6.8,60.5,0.0,0.0,0.0,
11300,1863.2,5.2,6.9,60.5,0.0,0.0,0.0,
11400,1863.3,9.0,6.9,60.5,0.0,0.0,0.0,
11500,1863.6,6.1,7.3,60.5,0.0,0.0,0.0,
11600,1861.9,6.3,7.4,60.5,0.0,0.0,0.0,
11700,1861.7,5.4,7.4,60.5,0.0,0.0,0.0,
11900,1862.1,5.4,7.4,60.5,0.0,0.0,0.0,
12000,1862.6,5.5,7.3,60.5,0.0,0.0,0.0,
12100,1864.8,6.6,7.4,60.5,0.0,0.0,0.0,
12200,1861.4,5.9,7.5,60.5,0.0,0.0,0.0,
12300,1864.3,6.9,7.9,60.5,0.0,0.0,0.0,
12400,1861.4,7.2,7.9,60.5,0.0,0.0,0.0,
12500,1859.1,7.7,7.9,72.3,0.0,0.0,0.0,
12600,1861.1,8.2,7.9,74.2,0.0,0.0,0.0,
12700,1861.8,10.1,8.6,60.5,0.0,0.0,0.0,
12900,1858.8,7.4,10.3,62.5,0.0,0.0,0.0,
13000,1867.1,7.5,10.8,89.8,0.0,0.0,0.0,
13100,1866.9,5.5,10.9,119.1,0.0,0.0,0.0,
13200,1860.5,7.5,10.8,99.6,0.0,0.0,0.0,
13300,1862.8,5.6,10.6,70.3,0.0,0.0,0.0,
13400,1864.7,6.5,10.6,60.5,0.0,0.0,0.0,
13500,1864.0,11.4,10.6,60.5,0.0,0.0,0.0,
13600,1862.7,7.0,11.0,60.5,0.0,0.0,0.0,
13700,1861.2,5.1,10.6,66.4,0.0,0.0,0.0,
13900,1861.0,5.3,8.9,60.5,0.0,0.0,0.0,
14000,1862.0,5.3,8.3,60.5,0.0,0.0,0.0,
14100,1861.3,6.2,8.2,60.5,0.0,0.0,0.0,
14200,1861.9,5.9,8.2,60.5,0.0,0.0,0.0,
14300,1861.0,5.4,8.2,60.5,0.0,0.0,0.0,
14400,1862.1,6.1,8.2,60.5,0.0,0.0,0.0,
14500,1862.2,5.4,7.9,60.5,0.0,0.0,0.0,
14600,1862.2,5.6,7.2,60.5,0.0,0.0,0.0,
14700,1862.5,6.9,7.0,60.5,0.0,0.0,0.0,
14900,1862.0,5.3,7.0,60.5,0.0,0.0,0.0,
15000,1861.5,5.6,6.9,60.5,0.0,0.0,0.0,
15100,1862.0,4.6,6.8,60.5,0.0,0.0,0.0,
15200,1861.5,5.0,6.7,60.5,0.0,0.0,0.0,
15300,1862.3,5.3,6.5,60.5,0.0,0.0,0.0,
15400,1862.7,5.1,6.5,60.5,0.0,0.0,0.0,
15500,1862.1,4.8,6.3,60.5,0.0,0.0,0.0,
15600,1861.9,5.6,6.3,60.5,0.0,0.0,0.0,
15700,1862.2,4.8,6.3,60.5,0.0,0.0,0.0,
15900,1862.2,5.6,6.0,60.5,0.0,0.0,0.0,
16000,1861.8,5.1,6.0,60.5,0.0,0.0,0.0,
16100,1862.0,5.0,6.0,60.5,0.0,0.0,0.0,
16200,1862.9,5.3,5.9,60.5,0.0,0.0,0.0,
16300,1862.5,4.8,6.0,60.5,0.0,0.0,0.0,
16400,1861.5,5.0,6.0,60.5,0.0,0.0,0.0,
16500,1862.5,5.7,5.9,60.5,0.0,0.0,0.0,
16600,1862.4,5.4,6.1,60.5,0.0,0.0,0.0,
16700,1862.0,5.4,6.3,60.5,0.0,0.0,0.0,
16900,1861.8,5.4,6.4,60.5,0.0,0.0,0.0,
17000,1861.8,5.3,6.4,60.5,0.0,0.0,0.0,
17100,1864.7,62.9,26.4,64.5,0.0,0.0,0.0,
17200,1842.8,61.0,52.9,173.8,0.0,0.0,0.0,
17300,1855.3,55.1,66.3,162.1,0.0,0.0,0.0,
17400,1853.0,42.8,76.9,160.2,0.0,0.0,0.0,
17500,1855.7,10.0,83.1,130.9,0.0,0.0,0.0,
17600,1860.5,8.1,83.1,130.9,0.0,0.0,0.0,
17700,1860.9,5.6,83.1,160.2,0.0,0.0,0.0,
17900,1861.8,5.4,83.1,125.0,0.0,0.0,0.0,
18000,1862.7,5.8,83.1,60.5,0.0,0.0,0.0,
18100,1861.4,4.9,79.1,60.5,0.0,0.0,0.0,
18200,1861.5,5.4,64.5,60.5,0.0,0.0,0.0,
18300,1861.9,5.4,50.6,60.5,0.0,0.0,0.0,
18400,1863.2,5.0,32.2,60.5,0.0,0.0,0.0,
18500,1861.2,49.1,22.1,60.5,0.0,0.0,0.0,
18600,1860.9,71.6,45.2,160.2,0.0,0.0,0.0,
18700,1867.4,15.2,64.3,189.5,0.0,0.0,0.0,
18900,1863.9,5.8,64.3,257.8,0.0,0.0,0.0,
19000,1863.2,5.0,64.3,287.1,0.0,0.0,0.0,
19100,1862.2,9.3,64.3,281.3,0.0,0.0,0.0,
19200,1857.1,6.1,64.3,60.5,0.0,0.0,0.0,
19300,1855.0,17.9,64.4,60.5,0.0,0.0,0.0,
19400,1844.7,9.0,64.7,60.5,0.0,0.0,0.0,
19500,1858.0,10.3,61.1,60.5,0.0,0.0,0.0,
19600,1872.7,6.5,46.9,60.5,0.0,0.0,0.0,
19700,1868.2,78.3,35.6,66.4,0.0,0.0,0.0,
19900,1870.0,38.9,70.9,287.1,0.0,0.0,0.0,
20000,1859.6,63.1,78.3,267.6,0.0,0.0,0.0,
20100,1845.8,58.8,89.1,255.9,0.0,0.0,0.0,
20200,1854.7,61.9,97.3,162.1,0.0,0.0,0.0,
20300,1864.0,25.1,105.8,128.9,0.0,0.0,0.0,
20400,1861.7,9.3,105.7,128.9,0.0,0.0,0.0,
20500,1862.2,5.1,105.7,128.9,0.0,0.0,0.0,
20600,1858.5,5.8,105.7,130.9,0.0,0.0,0.0,
20700,1860.0,5.4,100.0,128.9,0.0,0.0,0.0,
20900,1860.7,5.6,79.1,60.5,0.0,0.0,0.0,
21000,1860.8,5.5,71.7,60.5,0.0,0.0,0.0,
21100,1861.8,5.2,57.7,60.5,0.0,0.0,0.0,
21200,1862.0,5.5,42.3,60.5,0.0,0.0,0.0,
21300,1861.7,47.4,6.8,60.5,0.0,0.0,0.0,
21400,1850.5,58.1,44.4,164.1,0.0,0.0,0.0,
21500,1855.0,55.7,59.2,164.1,0.0,0.0,0.0,
21600,1857.1,49.8,71.7,162.1,0.0,0.0,0.0,
21700,1851.7,70.3,82.8,130.9,0.0,0.0,0.0,
21900,1867.0,35.6,105.9,128.9,0.0,0.0,0.0,
22000,1864.4,5.9,106.1,160.2,0.0,0.0,0.0,
22100,1862.8,5.3,106.1,195.3,0.0,0.0,0.0,
22200,1863.0,5.7,106.1,250.0,0.0,0.0,0.0,
22300,1863.3,4.8,106.1,257.8,0.0,0.0,0.0,
22400,1862.1,5.2,96.6,99.6,0.0,0.0,0.0,
22500,1862.3,5.8,88.3,60.5,0.0,0.0,0.0,
22600,1862.8,4.4,78.4,60.5,0.0,0.0,0.0,
22700,1862.8,5.3,66.7,60.5,0.0,0.0,0.0,
22900,1862.7,33.7,8.8,60.5,0.0,0.0,0.0,
23000,1856.4,71.7,42.3,136.7,0.0,0.0,0.0,
23100,1846.8,70.6,62.1,138.7,0.0,0.0,0.0,
23200,1851.0,67.9,77.6,130.9,0.0,0.0,0.0,
23300,1860.2,62.5,90.1,128.9,0.0,0.0,0.0,
23400,1863.6,55.1,102.8,128.9,0.0,0.0,0.0,
23500,1879.1,54.7,121.8,160.2,0.0,0.0,0.0,
23600,1867.9,9.3,128.6,226.6,0.0,0.0,0.0,
23700,1862.1,8.4,128.6,289.1,0.0,0.0,0.0,
23900,1862.8,6.2,128.7,304.7,0.0,0.0,0.0,
24000,1860.8,7.2,121.7,123.0,0.0,0.0,0.0,
24100,1862.3,5.4,112.9,95.7,0.0,0.0,0.0,
24200,1861.4,6.5,102.9,74.2,0.0,0.0,0.0,
24300,1861.5,6.0,92.2,62.5,0.0,0.0,0.0,
24400,1861.6,6.0,77.8,60.5,0.0,0.0,0.0,
24500,1860.0,42.2,42.1,60.5,0.0,0.0,0.0,
24600,1852.1,58.4,44.1,130.9,0.0,0.0,0.0,
24700,1854.0,48.0,62.9,132.8,0.0,0.0,0.0,
24900,1854.2,75.6,94.6,130.9,0.0,0.0,0.0,
25000,1874.7,69.2,111.6,162.1,0.0,0.0,0.0,
25100,1872.5,48.2,124.4,226.6,0.0,0.0,0.0,
25200,1857.9,12.1,126.9,291.0,0.0,0.0,0.0,
25300,1862.8,5.5,126.9,320.3,0.0,0.0,0.0,
25400,1865.9,6.1,126.9,294.9,0.0,0.0,0.0,
25500,1863.3,5.5,126.8,291.0,0.0,0.0,0.0,
25600,1863.9,3.9,119.3,109.4,0.0,0.0,0.0,
25700,1862.9,5.6,110.5,60.5,0.0,0.0,0.0,
25900,1863.6,4.1,84.8,60.5,0.0,0.0,0.0,
26000,1862.8,5.7,60.8,60.5,0.0,0.0,0.0,
26100,1862.6,32.6,25.6,60.5,0.0,0.0,0.0,
26200,1851.3,58.1,35.2,125.0,0.0,0.0,0.0,
26300,1858.4,54.3,52.3,130.9,0.0,0.0,0.0,
26400,1857.9,45.0,66.6,130.9,0.0,0.0,0.0,
26500,1858.8,85.8,80.2,130.9,0.0,0.0,0.0,
26600,1872.1,100.6,105.0,160.2,0.0,0.0,0.0,
26700,1884.1,73.3,122.5,224.6,0.0,0.0,0.0,
26900,1862.1,7.6,126.0,320.3,0.0,0.0,0.0,
27000,1862.1,7.8,126.1,318.4,0.0,0.0,0.0,
27100,1862.3,9.7,126.1,291.0,0.0,0.0,0.0,
27200,1863.1,6.4,121.3,109.4,0.0,0.0,0.0,
27300,1862.3,5.4,114.9,84.0,0.0,0.0,0.0,
27400,1861.9,4.1,107.3,76.2,0.0,0.0,0.0,
27500,1862.5,6.0,97.5,60.5,0.0,0.0,0.0,
27600,1862.7,5.7,70.2,60.5,0.0,0.0,0.0,
27700,1862.9,4.9,30.7,60.5,0.0,0.0,0.0,
27900,1842.5,82.0,69.2,158.2,0.0,0.0,0.0,
28000,1872.2,83.5,90.0,160.2,0.0,0.0,0.0,
28100,1884.4,70.8,114.2,193.4,0.0,0.0,0.0,
28200,1874.4,47.3,128.2,257.8,0.0,0.0,0.0,
28300,1862.3,75.3,135.8,291.0,0.0,0.0,0.0,
28400,1857.2,10.5,140.3,291.0,0.0,0.0,0.0,
28500,1863.6,7.2,140.4,226.6,0.0,0.0,0.0,
28600,1862.6,9.5,140.4,162.1,0.0,0.0,0.0,
28700,1863.0,6.4,140.5,134.8,0.0,0.0,0.0,
28900,1862.5,5.6,122.5,85.9,0.0,0.0,0.0,
29000,1862.6,6.4,108.1,60.5,0.0,0.0,0.0,
29100,1862.7,5.5,82.2,60.5,0.0,0.0,0.0,
29200,1862.6,4.6,57.8,60.5,0.0,0.0,0.0,
29300,1862.4,6.2,36.3,60.5,0.0,0.0,0.0,
29400,1863.1,62.0,45.2,183.6,0.0,0.0,0.0,
29500,1874.5,89.4,78.9,230.5,0.0,0.0,0.0,
29600,1878.6,85.4,104.7,259.8,0.0,0.0,0.0,
29700,1860.1,66.9,118.8,291.0,0.0,0.0,0.0,
29900,1855.2,50.8,134.1,257.8,0.0,0.0,0.0,
30000,1853.9,11.5,139.3,162.1,0.0,0.0,0.0,
30100,1862.7,6.2,139.3,130.9,0.0,0.0,0.0,
30200,1862.6,6.2,139.3,128.9,0.0,0.0,0.0,
30300,1863.3,5.2,139.3,128.9,0.0,0.0,0.0,
30400,1862.9,4.8,132.1,99.6,0.0,0.0,0.0,
30500,1861.9,6.2,115.0,60.5,0.0,0.0,0.0,
30600,1862.5,5.3,92.2,60.5,0.0,0.0,0.0,
30700,1862.6,7.9,73.0,60.5,0.0,0.0,0.0,
30900,1861.9,5.6,38.4,60.5,0.0,0.0,0.0,
31000,1867.5,80.2,53.0,216.8,0.0,0.0,0.0,
31100,1871.1,63.3,73.6,314.5,0.0,0.0,0.0,
31200,1862.3,62.0,86.8,293.0,0.0,0.0,0.0,
31300,1852.7,96.9,98.2,259.8,0.0,0.0,0.0,
31400,1843.8,96.1,112.8,164.1,0.0,0.0,0.0,
31500,1857.4,72.0,124.6,128.9,0.0,0.0,0.0,
31600,1857.0,13.3,131.9,128.9,0.0,0.0,0.0,
31700,1862.2,6.7,131.9,160.2,0.0,0.0,0.0,
31900,1863.2,4.7,131.8,162.1,0.0,0.0,0.0,
32000,1862.8,6.2,120.9,154.3,0.0,0.0,0.0,
32100,1862.8,5.0,109.6,60.5,0.0,0.0,0.0,
32200,1862.9,4.6,99.4,60.5,0.0,0.0,0.0,
32300,1862.2,6.1,88.2,60.5,0.0,0.0,0.0,
32400,1862.4,5.2,68.5,60.5,0.0,0.0,0.0,
32500,1862.4,4.6,43.6,60.5,0.0,0.0,0.0,
32600,1863.1,68.3,26.8,62.5,0.0,0.0,0.0,
32700,1848.3,74.7,56.6,177.7,0.0,0.0,0.0,
32900,1855.5,59.9,88.6,160.2,0.0,0.0,0.0,
33000,1852.7,81.1,102.5,130.9,0.0,0.0,0.0,
33100,1846.5,91.2,119.9,130.9,0.0,0.0,0.0,
33200,1872.3,19.9,130.3,160.2,0.0,0.0,0.0,
33300,1861.5,7.4,130.3,193.4,0.0,0.0,0.0,
33400,1860.6,5.7,130.3,226.6,0.0,0.0,0.0,
33500,1864.6,9.8,130.4,261.7,0.0,0.0,0.0,
33600,1867.0,6.2,127.7,259.8,0.0,0.0,0.0,
33700,1857.6,7.2,117.6,89.8,0.0,0.0,0.0,
33900,1862.4,6.0,95.9,66.4,0.0,0.0,0.0,
34000,1863.1,6.0,80.9,66.4,0.0,0.0,0.0,
34100,1864.1,6.7,51.8,62.5,0.0,0.0,0.0,
34200,1861.2,51.8,28.7,78.1,0.0,0.0,0.0,
34300,1853.4,83.5,58.9,154.3,0.0,0.0,0.0,
34400,1839.7,83.3,85.5,158.2,0.0,0.0,0.0,
34500,1861.9,82.2,104.2,160.2,137.0,954.0,30.0,
34600,1867.7,79.7,123.6,162.1,912.0,1600.0,30.0,
34700,1883.0,60.1,143.6,193.4,912.0,1600.0,30.0,
34900,1860.9,8.2,153.3,291.0,912.0,1600.0,30.0,
35000,1865.5,8.5,153.3,291.0,912.0,1600.0,30.0,
35100,1863.2,5.8,153.4,259.8,912.0,1600.0,30.0,
35200,1859.9,4.7,150.9,224.6,912.0,1600.0,30.0,
35300,1860.6,5.1,141.9,60.5,912.0,1600.0,30.0,
35400,1862.2,8.8,127.6,60.5,912.0,1600.0,30.0,
35500,1862.0,5.1,112.8,60.5,912.0,1600.0,30.0,
35600,1861.3,5.0,91.1,60.5,912.0,1600.0,30.0,
35700,1862.0,4.9,54.3,60.5,912.0,1600.0,30.0,
35900,1855.4,59.2,63.0,189.5,912.0,1600.0,30.0,
36000,1868.5,59.3,86.6,193.4,912.0,1600.0,30.0,
36100,1878.4,75.5,107.3,224.6,912.0,1600.0,30.0,
36200,1864.5,61.2,118.1,289.1,912.0,1600.0,30.0,
36300,1862.9,58.5,123.8,293.0,912.0,1600.0,30.0,
36400,1859.0,24.0,130.1,259.8,912.0,1600.0,30.0,
36500,1860.6,7.9,130.1,162.1,912.0,1600.0,30.0,
36600,1865.4,4.7,130.1,130.9,912.0,1600.0,30.0,
36700,1865.3,5.2,130.1,128.9,912.0,1600.0,30.0,
36900,1862.0,4.9,114.1,60.5,912.0,1600.0,30.0,
37000,1862.7,5.3,97.4,60.5,912.0,1600.0,30.0,
37100,1862.6,4.9,73.9,60.5,912.0,1600.0,30.0,
37200,1862.9,5.0,55.1,60.5,912.0,1600.0,30.0,
37300,1862.3,5.1,40.7,60.5,912.0,1600.0,30.0,
37400,1862.3,89.5,6.5,60.5,912.0,1600.0,30.0,
37500,1884.2,80.0,78.9,322.3,912.0,1600.0,30.0,
37600,1871.1,52.8,92.6,322.3,912.0,1600.0,30.0,
37700,1863.3,52.9,101.4,320.3,912.0,1600.0,30.0,
37900,1842.8,83.3,123.2,193.4,912.0,1600.0,30.0,
38000,1856.9,34.5,134.4,130.9,912.0,1600.0,30.0,
38100,1864.1,6.4,134.5,130.9,912.0,1600.0,30.0,
38200,1863.5,5.1,134.5,132.8,912.0,1600.0,30.0,
38300,1862.0,5.6,134.5,154.3,912.0,1600.0,30.0,
38400,1863.3,4.6,134.5,138.7,912.0,1600.0,30.0,
38500,1862.6,5.3,109.1,68.4,912.0,1600.0,30.0,
38600,1861.9,5.7,97.7,60.5,912.0,1600.0,30.0,
38700,1862.1,4.7,88.6,60.5,912.0,1600.0,30.0,
38900,1862.3,5.7,54.2,60.5,912.0,1600.0,30.0,
39000,1863.6,33.7,7.5,60.5,912.0,1600.0,30.0,
39100,1866.0,71.9,46.5,228.5,912.0,1600.0,30.0,
39200,1846.7,79.1,68.5,222.7,912.0,1600.0,30.0,
39300,1858.6,71.6,83.9,166.0,912.0,1600.0,30.0,
39400,1854.8,63.9,98.8,160.2,912.0,1600.0,30.0,
39500,1853.7,82.8,113.3,130.9,912.0,1600.0,30.0,
39600,1858.2,47.8,127.9,160.2,141.0,853.0,5.0,
39700,1856.8,7.8,132.6,162.1,141.0,853.0,5.0,
39900,1861.8,4.6,132.6,197.3,141.0,853.0,5.0,
40000,1862.5,5.3,132.6,222.7,141.0,853.0,5.0,
40100,1861.7,6.1,124.4,101.6,141.0,853.0,5.0,
40200,1859.8,4.5,113.7,60.5,141.0,853.0,5.0,
40300,1863.2,5.6,102.9,60.5,141.0,853.0,5.0,
40400,1862.0,5.4,88.7,60.5,141.0,853.0,5.0,
40500,1862.5,5.0,69.2,60.5,141.0,853.0,5.0,
40600,1862.1,44.1,35.7,60.5,141.0,853.0,5.0,
40700,1856.2,56.8,45.3,132.8,141.0,853.0,5.0,
40900,1851.0,80.7,83.3,130.9,141.0,853.0,5.0,
41000,1845.9,79.5,104.0,130.9,141.0,853.0,5.0,
41100,1862.4,79.7,119.3,160.2,625.0,1433.0,30.0,
41200,1880.6,76.1,139.3,162.1,968.0,1777.0,30.0,
41300,1865.9,9.0,145.7,226.6,968.0,1777.0,30.0,
41400,1862.0,4.3,145.7,289.1,968.0,1777.0,30.0,
41500,1862.8,6.0,145.7,318.4,968.0,1777.0,30.0,
41600,1863.4,6.6,145.7,318.4,968.0,1777.0,30.0,
41700,1864.0,5.4,138.6,238.3,968.0,1777.0,30.0,
41900,1863.0,5.4,119.7,60.5,968.0,1777.0,30.0,
42000,1862.9,4.7,102.3,60.5,968.0,1777.0,30.0,
42100,1862.8,5.3,84.0,60.5,968.0,1777.0,30.0,
42200,1863.7,42.4,43.1,60.5,968.0,1777.0,30.0,
42300,1850.2,73.4,50.5,146.5,968.0,1777.0,30.0,
42400,1854.0,63.2,74.3,160.2,968.0,1777.0,30.0,
42500,1854.8,56.5,93.3,160.2,968.0,1777.0,30.0,
42600,1863.6,113.9,111.6,162.1,956.0,1596.0,30.0,
42700,1882.0,92.2,140.5,193.4,925.0,1531.0,30.0,
42900,1864.6,7.8,153.6,291.0,925.0,1531.0,30.0,
43000,1863.3,5.6,153.6,291.0,925.0,1531.0,30.0,
43100,1864.0,5.2,153.6,259.8,925.0,1531.0,30.0,
43200,1863.8,4.4,153.6,226.6,925.0,1531.0,30.0,
43300,1862.8,5.7,145.2,132.8,925.0,1531.0,30.0,
43400,1863.2,5.3,134.5,60.5,925.0,1531.0,30.0,
43500,1863.4,5.6,122.1,60.5,925.0,1531.0,30.0,
43600,1862.5,5.8,105.7,60.5,925.0,1531.0,30.0,
43700,1861.4,4.7,62.4,60.5,925.0,1531.0,30.0,
43900,1857.1,82.0,46.9,152.3,69.0,666.0,14.0,
44000,1840.9,83.8,83.2,162.1,145.0,945.0,30.0,
44100,1868.9,90.0,106.1,164.1,896.0,1629.0,30.0,
44200,1883.7,69.9,129.6,193.4,789.0,1548.0,30.0,
44300,1871.3,71.4,141.0,257.8,789.0,1548.0,30.0,
44400,1848.3,77.3,150.2,291.0,789.0,1548.0,30.0,
44500,1866.3,10.6,152.6,289.1,789.0,1548.0,30.0,
44600,1861.2,5.5,152.6,195.3,789.0,1548.0,30.0,
44700,1862.5,6.2,152.6,136.7,789.0,1548.0,30.0,
44900,1861.5,5.4,145.3,93.8,789.0,1548.0,30.0,
45000,1861.9,4.4,128.1,60.5,789.0,1548.0,30.0,
45100,1861.8,5.6,109.8,60.5,789.0,1548.0,30.0,
45200,1861.3,5.1,80.8,60.5,789.0,1548.0,30.0,
45300,1861.2,5.5,58.6,60.5,789.0,1548.0,30.0,
45400,1860.5,5.4,27.9,60.5,789.0,1548.0,30.0,
45500,1868.1,70.2,56.0,255.9,619.0,1434.0,30.0,
45600,1880.5,98.5,93.7,291.0,615.0,1418.0,30.0,
45700,1859.9,68.9,112.9,293.0,615.0,1418.0,30.0,
45900,1858.3,64.6,130.3,289.1,615.0,1418.0,30.0,
46000,1853.2,58.6,140.1,193.4,615.0,1418.0,30.0,
46100,1852.6,12.2,147.3,130.9,615.0,1418.0,30.0,
46200,1862.5,4.9,147.3,128.9,615.0,1418.0,30.0,
46300,1862.9,5.0,147.3,130.9,615.0,1418.0,30.0,
46400,1860.0,5.4,147.3,132.8,615.0,1418.0,30.0,
46500,1857.8,5.7,136.4,123.0,615.0,1418.0,30.0,
46600,1860.0,5.3,113.8,60.5,615.0,1418.0,30.0,
46700,1861.7,5.1,94.8,60.5,615.0,1418.0,30.0,
46900,1861.5,5.8,68.8,60.5,615.0,1418.0,30.0,
47000,1862.1,4.3,45.9,60.5,615.0,1418.0,30.0,
47100,1861.6,61.6,40.7,199.2,615.0,1418.0,30.0,
47200,1864.8,61.9,61.7,238.3,615.0,1418.0,30.0,
47300,1854.3,54.4,78.3,199.2,615.0,1418.0,30.0,
47400,1850.3,89.0,95.6,162.1,615.0,1418.0,30.0,
47500,1841.5,85.9,117.3,130.9,128.0,837.0,5.0,
47600,1853.3,77.4,133.3,130.9,206.0,991.0,30.0,
47700,1861.7,15.5,144.0,162.1,132.0,830.0,13.0,
47900,1862.8,5.0,144.0,195.3,132.0,830.0,13.0,
48000,1862.4,5.1,144.0,224.6,132.0,830.0,13.0,
48100,1861.3,6.3,138.3,222.7,132.0,830.0,13.0,
48200,1860.7,5.1,130.2,60.5,132.0,830.0,13.0,
48300,1859.6,5.6,121.0,60.5,132.0,830.0,13.0,
48400,1861.1,6.4,107.9,60.5,132.0,830.0,13.0,
48500,1860.8,5.1,83.7,60.5,132.0,830.0,13.0,
48600,1860.9,5.2,54.7,60.5,132.0,830.0,13.0,
48700,1860.2,81.9,29.6,68.4,132.0,830.0,13.0,
48900,1853.1,72.3,91.9,156.3,97.0,875.0,13.0,
49000,1853.0,62.7,110.9,160.2,186.0,973.0,30.0,
49100,1856.9,111.0,128.1,160.2,656.0,1452.0,30.0,
49200,1874.5,105.8,154.2,193.4,954.0,1729.0,30.0,
49300,1881.7,19.8,164.4,226.6,594.0,1417.0,30.0,
49400,1861.3,6.0,164.4,289.1,594.0,1417.0,30.0,
49500,1861.4,4.8,164.4,320.3,594.0,1417.0,30.0,
49600,1859.4,8.6,164.4,320.3,594.0,1417.0,30.0,
49700,1859.0,4.6,161.8,294.9,594.0,1417.0,30.0,
49900,1860.8,5.3,136.4,60.5,594.0,1417.0,30.0,
50000,1860.6,4.5,121.5,60.5,594.0,1417.0,30.0,
50100,1861.4,5.4,103.2,60.5,594.0,1417.0,30.0,
50200,1861.3,6.2,57.2,60.5,594.0,1417.0,30.0,
50300,1858.1,52.0,33.0,97.7,594.0,1417.0,30.0,
50400,1851.5,88.5,67.8,162.1,80.0,769.0,14.0,
50500,1838.2,86.2,97.8,162.1,170.0,980.0,30.0,
50600,1875.8,95.0,121.0,162.1,926.0,1690.0,30.0,
50700,1883.5,72.8,140.0,193.4,926.0,1690.0,30.0,
50900,1857.4,20.9,157.2,291.0,926.0,1690.0,30.0,
51000,1859.7,5.6,157.3,259.8,926.0,1690.0,30.0,
51100,1863.3,15.4,157.2,193.4,926.0,1690.0,30.0,
51200,1861.4,4.9,157.4,132.8,926.0,1690.0,30.0,
51300,1861.9,5.0,154.0,103.5,926.0,1690.0,30.0,
51400,1861.5,5.5,142.2,76.2,926.0,1690.0,30.0,
51500,1862.3,4.5,123.5,70.3,926.0,1690.0,30.0,
51600,1862.7,5.1,100.8,60.5,926.0,1690.0,30.0,
51700,1862.1,5.5,72.2,60.5,926.0,1690.0,30.0,
51900,1855.3,72.4,40.0,101.6,100.0,926.0,5.0,
52000,1859.6,75.8,81.1,191.4,265.0,1107.0,30.0,
52100,1875.9,124.7,112.1,195.3,922.0,1793.0,30.0,
52200,1885.5,81.5,133.9,228.5,603.0,1487.0,30.0,
52300,1861.5,76.2,145.7,289.1,603.0,1487.0,30.0,
52400,1861.0,69.8,154.1,291.0,603.0,1487.0,30.0,
52500,1855.0,27.5,163.7,226.6,603.0,1487.0,30.0,
52600,1859.4,7.1,163.7,160.2,603.0,1487.0,30.0,
52700,1863.7,5.1,163.7,130.9,603.0,1487.0,30.0,
52900,1861.9,5.7,159.0,130.9,603.0,1487.0,30.0,
53000,1861.4,4.7,142.5,60.5,603.0,1487.0,30.0,
53100,1861.7,5.4,119.6,60.5,603.0,1487.0,30.0,
53200,1861.4,5.7,94.3,60.5,603.0,1487.0,30.0,
53300,1861.0,4.6,74.8,60.5,603.0,1487.0,30.0,
53400,1861.3,5.4,55.5,60.5,603.0,1487.0,30.0,
53500,1868.6,95.6,24.4,60.5,911.0,1778.0,30.0,
53600,1875.2,88.9,84.7,320.3,389.0,1320.0,30.0,
53700,1874.2,66.3,100.6,320.3,389.0,1320.0,30.0,
53900,1851.7,97.4,125.1,259.8,389.0,1320.0,30.0,
54000,1838.6,91.0,144.5,162.1,90.0,882.0,13.0,
54100,1853.2,39.3,160.5,130.9,127.0,913.0,6.0,
54200,1862.7,9.0,160.6,160.2,127.0,913.0,6.0,
54300,1862.5,6.3,160.6,160.2,127.0,913.0,6.0,
54400,1862.1,6.0,160.6,162.1,127.0,913.0,6.0,
54500,1861.7,5.5,158.9,160.2,127.0,913.0,6.0,
54600,1862.0,5.5,136.6,85.9,127.0,913.0,6.0,
54700,1861.0,5.7,125.3,60.5,127.0,913.0,6.0,
54900,1861.5,5.0,100.8,60.5,127.0,913.0,6.0,
55000,1861.2,5.3,70.3,60.5,127.0,913.0,6.0,
55100,1861.0,35.9,7.6,60.5,127.0,913.0,6.0,
55200,1869.4,84.8,47.4,195.3,127.0,913.0,6.0,
55300,1843.0,87.4,76.6,193.4,127.0,913.0,6.0,
55400,1855.8,83.6,97.5,162.1,106.0,941.0,12.0,
55500,1852.5,70.1,119.4,130.9,103.0,934.0,12.0,
55600,1848.2,106.8,141.1,130.9,98.0,954.0,12.0,
55700,1836.6,50.8,166.3,162.1,115.0,889.0,11.0,
55900,1861.4,5.7,166.5,193.4,115.0,889.0,11.0,
56000,1861.8,4.1,166.5,195.3,115.0,889.0,11.0,
56100,1861.5,5.3,166.5,214.8,115.0,889.0,11.0,
56200,1862.5,5.6,159.7,134.8,115.0,889.0,11.0,
56300,1861.0,4.6,148.0,60.5,115.0,889.0,11.0,
56400,1860.4,5.4,135.1,60.5,115.0,889.0,11.0,
56500,1860.9,5.6,116.2,60.5,115.0,889.0,11.0,
56600,1861.0,4.3,88.7,60.5,115.0,889.0,11.0,
56700,1860.7,53.5,10.9,60.5,115.0,889.0,11.0,
56900,1845.2,105.7,93.3,158.2,158.0,1147.0,9.0,
57000,1830.8,91.1,125.3,160.2,106.0,949.0,11.0,
57100,1857.8,93.4,145.1,160.2,252.0,1175.0,30.0,
57200,1878.0,84.6,163.7,162.1,904.0,1774.0,30.0,
57300,1881.8,59.0,176.9,224.6,904.0,1774.0,30.0,
57400,1861.3,8.0,179.6,259.8,904.0,1774.0,30.0,
57500,1861.6,4.8,179.6,291.0,904.0,1774.0,30.0,
57600,1864.1,5.4,179.6,291.0,904.0,1774.0,30.0,
57700,1863.9,5.5,179.6,287.1,904.0,1774.0,30.0,
57900,1860.8,5.2,153.6,60.5,904.0,1774.0,30.0,
58000,1861.2,5.5,128.8,60.5,904.0,1774.0,30.0,
58100,1860.8,4.3,106.0,60.5,904.0,1774.0,30.0,
58200,1860.4,4.4,74.1,60.5,904.0,1774.0,30.0,
58300,1860.1,54.8,31.5,60.5,904.0,1774.0,30.0,
58400,1846.4,88.0,75.1,195.3,120.0,1030.0,30.0,
58500,1872.0,84.3,107.3,197.3,809.0,1731.0,30.0,
58600,1881.9,72.2,132.6,224.6,307.0,1165.0,30.0,
58700,1871.8,81.1,142.6,257.8,307.0,1165.0,30.0,
58900,1856.5,80.4,163.1,259.8,307.0,1165.0,30.0,
59000,1858.8,8.0,167.1,162.1,127.0,879.0,5.0,
59100,1863.5,5.5,167.1,130.9,127.0,879.0,5.0,
59200,1864.0,4.9,167.1,130.9,127.0,879.0,5.0,
59300,1860.9,4.3,167.1,130.9,127.0,879.0,5.0,
59400,1860.9,4.6,149.4,107.4,127.0,879.0,5.0,
59500,1860.3,5.4,128.3,60.5,127.0,879.0,5.0,
59600,1860.8,4.5,101.9,60.5,127.0,879.0,5.0,
59700,1861.2,4.8,87.3,60.5,127.0,879.0,5.0,
59900,1860.8,29.5,37.1,60.5,127.0,879.0,5.0,
60000,1879.7,75.6,58.0,318.4,647.0,1647.0,30.0,
60100,1860.2,80.5,82.1,320.3,647.0,1647.0,30.0,
60200,1862.2,78.5,97.5,291.0,647.0,1647.0,30.0,
60300,1853.3,67.0,115.6,226.6,103.0,957.0,8.0,
60400,1848.6,105.7,136.0,160.2,99.0,887.0,7.0,
60500,1833.7,94.5,162.7,160.2,103.0,894.0,12.0,
60600,1864.2,10.0,169.0,162.1,114.0,917.0,12.0,
60700,1861.8,5.4,169.0,191.4,114.0,917.0,12.0,
60900,1862.2,4.8,169.0,193.4,114.0,917.0,12.0,
61000,1860.8,5.0,158.9,169.9,114.0,917.0,12.0,
61100,1860.9,7.2,147.9,60.5,114.0,917.0,12.0,
61200,1862.0,5.8,138.2,60.5,114.0,917.0,12.0,
61300,1861.6,5.4,123.4,60.5,114.0,917.0,12.0,
61400,1858.5,5.0,100.5,60.5,114.0,917.0,12.0,
61500,1858.1,5.6,46.2,60.5,114.0,917.0,12.0,
61600,1854.5,59.0,45.7,130.9,114.0,917.0,12.0,
61700,1844.4,99.6,76.1,154.3,85.0,611.0,14.0,
61900,1849.5,86.6,133.1,160.2,116.0,937.0,14.0,
62000,1857.5,72.5,151.9,162.1,370.0,1187.0,30.0,
62100,1871.8,122.8,168.8,193.4,810.0,1698.0,30.0,
62200,1873.5,15.6,179.1,224.6,141.0,1053.0,13.0,
62300,1860.3,5.8,179.1,285.2,141.0,1053.0,13.0,
62400,1862.4,5.8,179.1,302.7,141.0,1053.0,13.0,
62500,1863.0,5.4,179.1,320.3,141.0,1053.0,13.0,
62600,1861.2,5.1,173.3,291.0,141.0,1053.0,13.0,
62700,1861.9,5.2,162.2,60.5,141.0,1053.0,13.0,
62900,1860.7,12.6,120.0,60.5,141.0,1053.0,13.0,
63000,1871.1,10.1,95.2,60.5,141.0,1053.0,13.0,
63100,1854.7,8.0,60.6,60.5,141.0,1053.0,13.0,
63200,1846.0,91.6,57.0,160.2,236.0,1091.0,11.0,
63300,1849.0,69.5,92.6,169.9,166.0,902.0,8.0,
63400,1848.9,99.5,117.1,168.0,138.0,1022.0,30.0,
63500,1847.9,106.7,141.3,191.4,497.0,1474.0,30.0,
63600,1887.1,97.5,159.5,193.4,906.0,1708.0,30.0,
63700,1880.3,64.1,170.2,226.6,906.0,1708.0,30.0,
63900,1859.4,7.5,174.2,291.0,906.0,1708.0,30.0,
64000,1862.3,7.6,174.1,259.8,906.0,1708.0,30.0,
64100,1861.0,4.5,174.1,207.0,906.0,1708.0,30.0,
64200,1861.4,5.1,164.7,125.0,906.0,1708.0,30.0,
64300,1860.5,6.3,147.7,60.5,906.0,1708.0,30.0,
64400,1860.8,4.6,129.1,60.5,906.0,1708.0,30.0,
64500,1860.8,6.0,102.1,60.5,906.0,1708.0,30.0,
64600,1860.8,5.5,70.4,60.5,906.0,1708.0,30.0,
64700,1860.1,4.5,37.6,60.5,906.0,1708.0,30.0,
64900,1855.3,91.1,93.6,191.4,400.0,1373.0,30.0,
65000,1877.7,82.9,117.0,193.4,844.0,1774.0,30.0,
65100,1882.8,55.6,131.7,224.6,844.0,1774.0,30.0,
65200,1869.1,86.0,138.6,259.8,844.0,1774.0,30.0,
65300,1848.2,82.1,149.7,291.0,844.0,1774.0,30.0,
65400,1860.0,19.4,157.6,207.0,116.0,912.0,5.0,
65500,1860.3,5.7,157.6,146.5,116.0,912.0,5.0,
65600,1863.3,5.0,157.6,130.9,116.0,912.0,5.0,
65700,1863.6,4.7,157.6,134.8,116.0,912.0,5.0,
65900,1861.7,8.2,127.0,58.6,116.0,912.0,5.0,
66000,1860.8,4.9,105.9,60.5,116.0,912.0,5.0,
66100,1861.0,8.5,87.0,89.8,116.0,912.0,5.0,
66200,1859.2,6.8,75.7,103.5,116.0,912.0,5.0,
66300,1859.6,5.2,50.3,95.7,116.0,912.0,5.0,
66400,1870.4,70.5,47.0,154.3,908.0,1974.0,30.0,
66500,1883.1,84.1,87.2,318.4,693.0,1716.0,30.0,
66600,1861.9,87.5,105.1,320.3,693.0,1716.0,30.0,
66700,1861.0,82.6,118.8,293.0,693.0,1716.0,30.0,
66900,1848.9,111.2,153.2,160.2,102.0,1004.0,12.0,
67000,1845.9,23.0,172.7,160.2,104.0,941.0,12.0,
67100,1860.2,4.9,172.7,162.1,104.0,941.0,12.0,
67200,1864.8,5.2,172.7,162.1,104.0,941.0,12.0,
67300,1862.0,4.6,172.7,169.9,104.0,941.0,12.0,
67400,1861.0,4.7,166.4,168.0,104.0,941.0,12.0,
67500,1861.3,4.9,149.3,60.5,104.0,941.0,12.0,
67600,1860.9,5.2,137.2,60.5,104.0,941.0,12.0,
67700,1861.0,4.7,125.6,60.5,104.0,941.0,12.0,
67900,1860.9,4.6,80.0,60.5,104.0,941.0,12.0,
68000,1864.5,62.0,31.5,109.4,104.0,941.0,12.0,
68100,1870.0,63.4,55.6,259.8,104.0,941.0,12.0,
68200,1855.3,102.4,77.2,224.6,104.0,941.0,12.0,
68300,1833.9,99.1,109.0,162.1,121.0,996.0,12.0,
68400,1849.4,93.8,134.1,130.9,101.0,970.0,7.0,
68500,1849.4,70.9,156.2,160.2,106.0,860.0,12.0,
68600,1852.3,30.3,172.5,162.1,124.0,997.0,12.0,
68700,1859.3,9.4,172.5,193.4,124.0,997.0,12.0,
68900,1860.8,6.9,172.6,195.3,124.0,997.0,12.0,
69000,1861.0,7.0,169.8,195.3,124.0,997.0,12.0,
69100,1862.6,5.6,163.5,66.4,124.0,997.0,12.0,
69200,1861.1,6.4,154.5,72.3,124.0,997.0,12.0,
69300,1860.7,12.1,134.0,72.3,124.0,997.0,12.0,
69400,1858.3,7.4,109.0,60.5,124.0,997.0,12.0,
69500,1859.8,7.9,73.9,52.7,124.0,997.0,12.0,
69600,1851.0,97.6,31.6,62.5,124.0,997.0,12.0,
69700,1855.0,116.6,78.5,132.8,280.0,1679.0,11.0,
69900,1845.6,126.4,140.0,160.2,237.0,1589.0,9.0,
70000,1848.1,120.1,161.1,162.1,349.0,2550.0,20.0,
70100,1855.9,99.3,181.0,162.1,644.0,1665.0,30.0,
70200,1892.3,44.9,195.4,193.4,941.0,1899.0,30.0,
70300,1861.5,10.8,195.5,226.6,941.0,1899.0,30.0,
70400,1863.7,6.2,195.4,289.1,941.0,1899.0,30.0,
70500,1863.0,5.7,195.4,316.4,941.0,1899.0,30.0,
70600,1861.3,6.2,193.1,298.8,941.0,1899.0,30.0,
70700,1860.4,4.8,179.2,78.1,941.0,1899.0,30.0,
70900,1860.3,5.5,136.7,60.5,941.0,1899.0,30.0,
71000,1860.7,6.9,111.0,60.5,941.0,1899.0,30.0,
71100,1860.7,8.0,74.2,60.5,941.0,1899.0,30.0,
71200,1860.9,88.0,11.2,60.5,136.0,975.0,15.0,
71300,1845.3,131.8,82.4,191.4,400.0,2614.0,11.0,
71400,1825.4,114.7,122.4,193.4,552.0,1998.0,10.0,
71500,1877.0,102.7,140.4,183.6,443.0,1960.0,9.0,
71600,1879.3,92.8,156.8,162.1,443.0,1960.0,9.0,
71700,1882.3,112.4,168.6,193.4,443.0,1960.0,9.0,
71900,1869.5,25.7,177.8,226.6,443.0,1960.0,9.0,
72000,1862.1,24.1,178.0,162.1,443.0,1960.0,9.0,
72100,1859.1,6.6,178.1,119.1,443.0,1960.0,9.0,
72200,1864.2,4.9,178.1,68.4,443.0,1960.0,9.0,
72300,1864.3,5.0,158.1,43.0,443.0,1960.0,9.0,
72400,1863.3,4.5,129.5,44.9,443.0,1960.0,9.0,
72500,1861.3,4.4,109.8,60.5,443.0,1960.0,9.0,
72600,1860.3,5.5,84.8,60.5,443.0,1960.0,9.0,
72700,1859.6,7.5,57.6,60.5,443.0,1960.0,9.0,
72900,1859.2,96.7,77.9,216.8,481.0,2294.0,30.0,
73000,1874.8,129.2,109.9,224.6,758.0,2479.0,30.0,
73100,1879.5,115.5,133.5,230.5,758.0,2479.0,30.0,
73200,1869.9,102.9,142.2,259.8,758.0,2479.0,30.0,
73300,1859.4,90.9,154.8,259.8,758.0,2479.0,30.0,
73400,1850.0,82.5,171.2,193.4,276.0,1938.0,9.0,
73500,1851.5,18.3,177.3,130.9,276.0,1938.0,9.0,
73600,1860.4,5.6,177.3,160.2,276.0,1938.0,9.0,
73700,1862.7,4.9,177.3,160.2,276.0,1938.0,9.0,
73900,1860.2,5.2,159.7,87.9,276.0,1938.0,9.0,
74000,1862.3,4.9,139.5,60.5,276.0,1938.0,9.0,
74100,1860.0,5.5,116.8,60.5,276.0,1938.0,9.0,
74200,1862.0,4.9,106.0,60.5,276.0,1938.0,9.0,
74300,1860.8,7.1,86.6,60.5,276.0,1938.0,9.0,
74400,1859.7,50.6,46.6,60.5,276.0,1938.0,9.0,
74500,1873.8,67.6,43.4,273.4,276.0,1938.0,9.0,
74600,1861.9,78.8,61.5,265.6,276.0,1938.0,9.0,
74700,1848.5,111.0,86.6,222.7,462.0,1977.0,9.0,
74900,1849.1,92.3,140.0,162.1,370.0,1482.0,9.0,
75000,1858.4,88.4,156.3,162.1,417.0,1851.0,8.0,
75100,1858.6,23.8,161.3,193.4,417.0,1851.0,8.0,
75200,1862.3,11.3,161.5,193.4,417.0,1851.0,8.0,
75300,1862.4,5.2,161.5,193.4,417.0,1851.0,8.0,
75400,1860.5,5.0,161.5,191.4,417.0,1851.0,8.0,
75500,1862.9,4.5,155.8,97.7,417.0,1851.0,8.0,
75600,1862.6,3.7,149.5,60.5,417.0,1851.0,8.0,
75700,1863.3,6.2,136.5,60.5,417.0,1851.0,8.0,
75900,1861.7,5.1,80.8,60.5,417.0,1851.0,8.0,
76000,1861.0,47.7,41.4,60.5,417.0,1851.0,8.0,
76100,1837.8,92.2,69.6,162.1,259.0,1127.0,10.0,
76200,1845.8,85.0,101.2,164.1,202.0,1022.0,10.0,
76300,1851.7,66.8,122.4,164.1,198.0,1063.0,9.0,
76400,1866.2,90.4,136.8,191.4,579.0,1688.0,30.0,
76500,1881.2,92.9,150.0,193.4,579.0,1688.0,30.0,
76600,1877.0,73.3,159.1,228.5,579.0,1688.0,30.0,
76700,1866.7,11.0,160.6,291.0,579.0,1688.0,30.0,
76900,1860.3,5.0,160.6,224.6,579.0,1688.0,30.0,
77000,1862.3,4.2,160.6,158.2,579.0,1688.0,30.0,
77100,1863.2,4.5,145.2,70.3,579.0,1688.0,30.0,
77200,1862.3,4.7,124.9,60.5,579.0,1688.0,30.0,
77300,1861.4,5.0,104.2,60.5,579.0,1688.0,30.0,
77400,1861.1,8.1,84.3,60.5,579.0,1688.0,30.0,
77500,1861.7,5.9,57.9,60.5,579.0,1688.0,30.0,
77600,1861.1,8.6,23.6,60.5,579.0,1688.0,30.0,
77700,1858.1,55.5,52.2,156.3,116.0,817.0,10.0,
77900,1886.3,80.1,102.3,226.6,116.0,817.0,10.0,
78000,1882.7,72.4,110.5,287.1,116.0,817.0,10.0,
78100,1858.7,58.2,119.3,291.0,116.0,817.0,10.0,
78200,1851.1,97.9,132.5,259.8,154.0,808.0,9.0,
78300,1848.1,15.6,145.1,162.1,176.0,1079.0,9.0,
78400,1861.0,5.2,145.1,162.1,176.0,1079.0,9.0,
78500,1861.6,4.5,145.1,164.1,176.0,1079.0,9.0,
78600,1862.7,5.0,145.1,173.8,176.0,1079.0,9.0,
78700,1862.0,5.1,135.5,160.2,176.0,1079.0,9.0,
78900,1861.2,5.1,103.1,60.5,176.0,1079.0,9.0,
79000,1860.9,5.6,94.2,60.5,176.0,1079.0,9.0,
79100,1860.9,4.7,82.8,60.5,176.0,1079.0,9.0,
79200,1861.6,4.7,59.4,60.5,176.0,1079.0,9.0,
79300,1876.3,59.2,43.5,279.3,176.0,1079.0,9.0,
79400,1868.2,54.8,60.1,294.9,176.0,1079.0,9.0,
79500,1854.1,100.4,79.8,259.8,120.0,906.0,10.0,
79600,1832.9,97.3,114.2,193.4,113.0,845.0,10.0,
79700,1848.0,86.6,140.0,160.2,113.0,948.0,9.0,
79900,1856.3,26.0,169.6,191.4,199.0,1121.0,30.0,
80000,1861.4,27.2,169.8,193.4,199.0,1121.0,30.0,
80100,1862.7,32.8,170.2,195.3,199.0,1121.0,30.0,
80200,1862.0,16.5,170.6,195.3,199.0,1121.0,30.0,
80300,1860.1,4.6,165.1,76.2,199.0,1121.0,30.0,
80400,1863.1,4.9,159.8,52.7,199.0,1121.0,30.0,
80500,1860.7,4.6,150.9,54.7,199.0,1121.0,30.0,
80600,1861.8,4.3,126.9,60.5,199.0,1121.0,30.0,
80700,1861.3,4.8,97.7,60.5,199.0,1121.0,30.0,
80900,1872.7,96.9,45.1,273.4,199.0,1121.0,30.0,
81000,1874.5,94.5,74.6,320.3,199.0,1121.0,30.0,
81100,1848.3,131.8,96.7,291.0,199.0,1121.0,30.0,
81200,1861.6,106.6,120.0,214.8,410.0,1869.0,9.0,
81300,1848.8,82.5,145.5,160.2,363.0,1656.0,8.0,
81400,1842.6,136.7,169.6,160.2,398.0,2183.0,8.0,
81500,1845.9,30.7,190.5,162.1,328.0,1607.0,8.0,
81600,1856.0,14.2,190.6,193.4,328.0,1607.0,8.0,
81700,1857.5,8.6,190.6,193.4,328.0,1607.0,8.0,
81900,1862.6,6.1,186.2,189.5,328.0,1607.0,8.0,
82000,1863.6,5.9,176.3,111.3,328.0,1607.0,8.0,
82100,1861.6,4.5,164.8,113.3,328.0,1607.0,8.0,
82200,1862.2,4.7,148.2,66.4,328.0,1607.0,8.0,
82300,1861.1,4.8,123.3,60.5,328.0,1607.0,8.0,
82400,1861.3,4.4,87.2,60.5,328.0,1607.0,8.0,
82500,1859.3,106.5,35.5,66.4,328.0,1607.0,8.0,
82600,1854.0,100.8,83.2,132.8,352.0,1745.0,10.0,
82700,1842.7,141.2,116.6,130.9,353.0,1683.0,9.0,
82900,1857.2,117.9,179.2,162.1,486.0,1992.0,9.0,
83000,1860.9,105.9,197.0,162.1,436.0,2159.0,9.0,
83100,1875.8,43.8,213.0,193.4,432.0,1961.0,8.0,
83200,1860.4,17.7,213.2,195.3,432.0,1961.0,8.0,
83300,1858.7,5.6,213.2,255.9,432.0,1961.0,8.0,
83400,1862.0,5.7,213.2,259.8,432.0,1961.0,8.0,
83500,1861.9,5.6,210.5,230.5,432.0,1961.0,8.0,
83600,1860.9,5.4,196.5,60.5,432.0,1961.0,8.0,
83700,1861.2,5.8,178.7,60.5,432.0,1961.0,8.0,
83900,1861.4,4.9,115.7,60.5,432.0,1961.0,8.0,
84000,1861.1,6.7,81.8,60.5,432.0,1961.0,8.0,
84100,1847.2,109.1,50.2,138.7,225.0,1508.0,12.0,
84200,1849.9,107.0,103.2,191.4,376.0,1925.0,11.0,
84300,1852.0,94.9,134.8,191.4,346.0,1903.0,10.0,
84400,1863.1,138.2,157.0,189.5,856.0,2289.0,30.0,
84500,1881.8,134.8,180.3,193.4,870.0,2371.0,30.0,
84600,1880.0,109.7,189.7,226.6,870.0,2371.0,30.0,
84700,1871.8,45.7,198.2,289.1,870.0,2371.0,30.0,
84900,1861.5,7.7,198.4,164.1,870.0,2371.0,30.0,
85000,1863.6,7.0,198.4,132.8,870.0,2371.0,30.0,
85100,1861.8,5.4,192.3,72.3,870.0,2371.0,30.0,
85200,1863.1,4.8,169.7,60.5,870.0,2371.0,30.0,
85300,1861.6,6.9,145.8,60.5,870.0,2371.0,30.0,
85400,1860.9,6.0,121.5,60.5,870.0,2371.0,30.0,
85500,1860.8,6.9,83.1,58.6,870.0,2371.0,30.0,
85600,1861.6,7.0,58.5,58.6,870.0,2371.0,30.0,
85700,1860.6,111.1,12.5,58.6,597.0,2378.0,30.0,
85900,1884.9,90.7,108.9,287.1,614.0,2108.0,30.0,
86000,1874.5,86.7,120.7,289.1,614.0,2108.0,30.0,
86100,1856.9,119.2,136.1,281.3,387.0,1847.0,10.0,
86200,1846.6,127.9,156.1,193.4,378.0,1731.0,9.0,
86300,1824.0,64.9,185.9,160.2,430.0,2146.0,9.0,
86400,1873.4,27.8,186.7,162.1,430.0,2146.0,9.0,
86500,1861.4,12.7,186.8,162.1,430.0,2146.0,9.0,
86600,1862.2,9.9,186.9,164.1,430.0,2146.0,9.0,
86700,1862.0,15.7,186.9,160.2,430.0,2146.0,9.0,
86900,1861.4,6.1,152.2,60.5,430.0,2146.0,9.0,
87000,1861.4,5.6,143.0,58.6,430.0,2146.0,9.0,
87100,1861.5,5.8,128.4,60.5,430.0,2146.0,9.0,
87200,1861.3,4.3,103.2,60.5,430.0,2146.0,9.0,
87300,1861.2,60.0,21.4,60.5,430.0,2146.0,9.0,
87400,1865.5,108.0,57.2,132.8,430.0,2146.0,9.0,
87500,1847.5,139.5,89.0,130.9,454.0,2330.0,10.0,
87600,1825.9,136.8,132.1,130.9,330.0,1645.0,10.0,
87700,1855.7,114.0,161.0,130.9,445.0,1757.0,9.0,
87900,1858.4,80.8,200.1,162.1,527.0,2234.0,30.0,
88000,1861.7,15.9,205.4,193.4,527.0,2234.0,30.0,
88100,1861.7,5.1,205.5,220.7,527.0,2234.0,30.0,
88200,1862.6,5.3,205.5,226.6,527.0,2234.0,30.0,
88300,1861.8,5.7,205.5,228.5,527.0,2234.0,30.0,
88400,1861.3,7.0,197.8,99.6,527.0,2234.0,30.0,
88500,1861.5,5.8,185.5,60.5,527.0,2234.0,30.0,
88600,1861.0,6.1,157.6,60.5,527.0,2234.0,30.0,
88700,1861.0,4.6,128.0,60.5,527.0,2234.0,30.0,
88900,1860.5,70.8,47.2,60.5,527.0,2234.0,30.0,
89000,1845.7,102.2,81.5,160.2,261.0,1551.0,11.0,
89100,1847.0,101.9,120.1,162.1,194.0,1115.0,10.0,
89200,1844.6,124.0,149.9,162.1,351.0,1903.0,10.0,
89300,1844.7,157.5,176.6,162.1,929.0,2841.0,30.0,
89400,1894.2,149.0,196.6,191.4,1024.0,3028.0,30.0,
89500,1891.2,96.7,209.5,224.6,746.0,2700.0,30.0,
89600,1863.3,26.6,212.0,257.8,746.0,2700.0,30.0,
89700,1859.7,10.0,212.2,287.1,746.0,2700.0,30.0,
89900,1862.2,6.1,212.2,183.6,746.0,2700.0,30.0,
90000,1863.0,6.9,196.1,66.4,746.0,2700.0,30.0,
90100,1862.3,7.6,175.1,60.5,746.0,2700.0,30.0,
90200,1861.3,6.5,150.3,60.5,746.0,2700.0,30.0,
90300,1862.1,5.7,117.8,60.5,746.0,2700.0,30.0,
90400,1860.8,7.3,80.3,60.5,746.0,2700.0,30.0,
90500,1860.9,57.7,34.3,60.5,746.0,2700.0,30.0,
90600,1841.3,123.9,87.0,189.5,340.0,2126.0,11.0,
90700,1862.8,115.9,119.0,193.4,399.0,2025.0,30.0,
90900,1881.1,139.3,159.4,224.6,399.0,2025.0,30.0,
91000,1849.4,146.4,173.5,257.8,399.0,2025.0,30.0,
91100,1850.5,153.7,188.5,226.6,561.0,2195.0,9.0,
91200,1867.5,29.1,195.5,162.1,598.0,2126.0,9.0,
91300,1861.4,7.7,195.6,158.2,598.0,2126.0,9.0,
91400,1862.3,6.1,195.6,160.2,598.0,2126.0,9.0,
91500,1862.4,6.7,195.6,152.3,598.0,2126.0,9.0,
91600,1862.3,5.6,175.6,74.2,598.0,2126.0,9.0,
91700,1861.4,5.7,155.4,60.5,598.0,2126.0,9.0,
91900,1861.3,8.1,113.6,60.5,598.0,2126.0,9.0,
92000,1861.3,4.9,90.6,60.5,598.0,2126.0,9.0,
92100,1861.6,7.6,52.6,60.5,598.0,2126.0,9.0,
92200,1887.2,129.8,65.6,294.9,647.0,2330.0,30.0,
92300,1875.1,78.9,96.7,322.3,647.0,2330.0,30.0,
92400,1869.0,96.2,109.3,320.3,647.0,2330.0,30.0,
92500,1862.4,102.1,126.1,289.1,287.0,1754.0,10.0,
92600,1850.3,93.0,147.3,162.1,294.0,1493.0,10.0,
92700,1841.9,146.9,172.4,130.9,464.0,2131.0,9.0,
92900,1859.8,7.8,188.8,162.1,464.0,2131.0,9.0,
93000,1864.0,5.6,188.8,164.1,464.0,2131.0,9.0,
93100,1861.7,5.0,188.8,164.1,464.0,2131.0,9.0,
93200,1861.8,4.9,177.3,152.3,464.0,2131.0,9.0,
93300,1861.3,6.4,162.3,60.5,464.0,2131.0,9.0,
93400,1861.0,7.8,154.1,60.5,464.0,2131.0,9.0,
93500,1860.2,7.0,140.7,60.5,464.0,2131.0,9.0,
93600,1860.9,8.3,118.4,60.5,464.0,2131.0,9.0,
93700,1860.3,6.0,77.3,60.5,464.0,2131.0,9.0,
93900,1863.9,77.5,65.4,160.2,464.0,2131.0,9.0,
94000,1847.9,123.7,95.5,130.9,263.0,1656.0,10.0,
94100,1827.2,115.5,135.1,128.9,262.0,1592.0,10.0,
94200,1851.0,126.9,162.4,130.9,401.0,2177.0,10.0,
94300,1850.0,121.7,186.0,160.2,473.0,2108.0,10.0,
94400,1852.2,26.4,199.1,162.1,459.0,2760.0,9.0,
94500,1859.8,7.6,199.2,162.1,459.0,2760.0,9.0,
94600,1862.1,5.7,199.2,164.1,459.0,2760.0,9.0,
94700,1862.6,4.8,199.2,164.1,459.0,2760.0,9.0,
94900,1861.6,7.3,188.3,60.5,459.0,2760.0,9.0,
95000,1860.8,5.5,175.0,60.5,459.0,2760.0,9.0,
95100,1860.5,5.4,146.6,60.5,459.0,2760.0,9.0,
95200,1860.3,8.4,115.6,60.5,459.0,2760.0,9.0,
95300,1860.4,6.7,71.6,60.5,459.0,2760.0,9.0,
95400,1848.0,102.5,52.7,101.6,254.0,1668.0,12.0,
95500,1850.0,111.7,95.2,148.4,205.0,1463.0,11.0,
95600,1848.4,100.6,131.4,154.3,313.0,1932.0,10.0,
95700,1842.3,127.0,158.8,160.2,406.0,1843.0,9.0,
95900,1878.9,140.4,201.8,164.1,864.0,2776.0,30.0,
96000,1887.7,32.0,211.7,193.4,864.0,2776.0,30.0,
96100,1859.7,21.2,211.8,255.9,864.0,2776.0,30.0,
96200,1862.0,26.9,212.0,263.7,864.0,2776.0,30.0,
96300,1861.3,20.3,212.1,275.4,864.0,2776.0,30.0,
96400,1861.2,10.9,205.8,99.6,864.0,2776.0,30.0,
96500,1860.9,5.7,189.8,72.3,864.0,2776.0,30.0,
96600,1862.1,6.0,166.8,85.9,864.0,2776.0,30.0,
96700,1861.2,4.9,140.9,87.9,864.0,2776.0,30.0,
96900,1860.7,5.6,66.0,60.5,864.0,2776.0,30.0,
97000,1860.6,123.3,54.6,169.9,200.0,1701.0,13.0,
97100,1832.1,127.3,112.8,193.4,535.0,2141.0,30.0,
97200,1879.8,146.5,137.5,191.4,1044.0,3626.0,30.0,
97300,1894.2,104.4,155.2,193.4,784.0,2616.0,30.0,
97400,1877.5,117.4,165.9,226.6,784.0,2616.0,30.0,
97500,1850.8,135.6,179.1,257.8,784.0,2616.0,30.0,
97600,1859.6,29.2,191.0,193.4,502.0,1838.0,9.0,
97700,1857.4,6.2,191.0,160.2,502.0,1838.0,9.0,
97900,1861.8,6.2,191.0,160.2,502.0,1838.0,9.0,
98000,1861.1,6.1,183.7,158.2,502.0,1838.0,9.0,
98100,1860.7,5.7,154.8,60.5,502.0,1838.0,9.0,
98200,1860.7,4.9,133.2,60.5,502.0,1838.0,9.0,
98300,1860.0,7.2,111.8,60.5,502.0,1838.0,9.0,
98400,1860.8,6.3,94.9,60.5,502.0,1838.0,9.0,
98500,1861.2,10.6,66.7,60.5,502.0,1838.0,9.0,
98600,1867.4,105.3,45.6,128.9,768.0,3136.0,30.0,
98700,1894.9,139.0,92.2,287.1,1021.0,3117.0,30.0,
98900,1850.6,127.7,127.0,289.1,1021.0,3117.0,30.0,
99000,1861.6,120.2,147.3,228.5,429.0,1915.0,10.0,
99100,1844.3,91.3,171.2,162.1,355.0,1714.0,9.0,
99200,1840.8,33.0,193.1,160.2,227.0,1449.0,10.0,
99300,1857.8,6.8,193.1,162.1,227.0,1449.0,10.0,
99400,1863.2,6.5,193.1,164.1,227.0,1449.0,10.0,
99500,1862.4,4.9,193.1,191.4,227.0,1449.0,10.0,
99600,1861.0,4.4,187.8,185.5,227.0,1449.0,10.0,
99700,1861.1,5.6,169.8,60.5,227.0,1449.0,10.0,
99900,1860.1,7.0,145.6,60.5,227.0,1449.0,10.0,
100000,1860.5,10.3,125.0,60.5,227.0,1449.0,10.0,
100100,1856.7,14.7,89.7,60.5,227.0,1449.0,10.0,
100200,1847.0,119.7,24.7,72.3,227.0,1449.0,10.0,
100300,1867.6,127.7,76.8,125.0,737.0,2956.0,10.0,
100400,1846.0,97.5,111.0,128.9,664.0,2169.0,9.0,
100500,1842.7,135.9,139.5,130.9,536.0,2158.0,8.0,
100600,1831.5,131.3,167.8,162.1,570.0,1918.0,8.0,
100700,1863.1,112.2,184.6,162.1,552.0,2001.0,8.0,
100900,1861.8,13.5,197.5,193.4,552.0,2001.0,8.0,
101000,1860.2,6.9,197.5,195.3,552.0,2001.0,8.0,
101100,1861.2,4.9,197.5,224.6,552.0,2001.0,8.0,
101200,1862.6,7.2,196.1,195.3,552.0,2001.0,8.0,
101300,1862.0,4.9,182.1,99.6,552.0,2001.0,8.0,
101400,1861.3,5.3,163.5,66.4,552.0,2001.0,8.0,
101500,1861.8,6.2,140.0,62.5,552.0,2001.0,8.0,
101600,1860.3,17.5,104.5,60.5,552.0,2001.0,8.0,
101700,1860.3,23.7,71.1,60.5,552.0,2001.0,8.0,
101900,1830.6,112.2,92.4,150.4,335.0,1549.0,10.0,
102000,1850.0,101.1,123.5,162.1,347.0,1744.0,9.0,
102100,1850.2,69.2,143.7,162.1,297.0,1232.0,9.0,
102200,1858.4,98.4,157.5,191.4,189.0,1166.0,9.0,
102300,1876.2,102.5,172.7,193.4,189.0,1166.0,9.0,
102400,1893.3,50.1,183.0,224.6,189.0,1166.0,9.0,
102500,1866.7,11.5,183.4,289.1,189.0,1166.0,9.0,
102600,1861.4,5.7,183.4,293.0,189.0,1166.0,9.0,
102700,1859.7,5.8,183.3,293.0,189.0,1166.0,9.0,
102900,1861.8,5.2,158.7,74.2,189.0,1166.0,9.0,
103000,1859.5,6.6,135.8,60.5,189.0,1166.0,9.0,
103100,1859.2,11.2,114.3,60.5,189.0,1166.0,9.0,
103200,1859.7,11.1,94.4,60.5,189.0,1166.0,9.0,
103300,1860.3,12.9,62.4,60.5,189.0,1166.0,9.0,
103400,1859.9,58.7,16.1,60.5,189.0,1166.0,9.0,
103500,1853.5,123.9,80.6,164.1,390.0,1898.0,9.0,
103600,1840.0,145.4,117.1,191.4,621.0,2397.0,9.0,
103700,1865.7,143.7,139.1,191.4,709.0,3157.0,9.0,
103900,1883.4,100.2,171.3,193.4,709.0,3157.0,9.0,
104000,1861.7,75.5,179.8,224.6,709.0,3157.0,9.0,
104100,1858.3,13.0,183.3,193.4,709.0,3157.0,9.0,
104200,1861.6,7.7,183.3,160.2,709.0,3157.0,9.0,
104300,1863.1,6.2,183.2,146.5,709.0,3157.0,9.0,
104400,1861.4,4.9,183.2,128.9,709.0,3157.0,9.0,
104500,1861.3,7.0,164.9,68.4,709.0,3157.0,9.0,
104600,1860.8,5.8,141.3,60.5,709.0,3157.0,9.0,
104700,1860.5,6.1,119.7,60.5,709.0,3157.0,9.0,
104900,1861.1,7.8,65.7,60.5,709.0,3157.0,9.0,
105000,1860.3,70.1,36.6,58.6,709.0,3157.0,9.0,
105100,1867.9,100.1,72.7,224.6,1008.0,2281.0,30.0,
105200,1890.4,93.4,106.0,255.9,1008.0,2281.0,30.0,
105300,1866.7,27.4,113.8,259.8,1008.0,2281.0,30.0,
105400,1860.0,23.8,114.0,289.1,1008.0,2281.0,30.0,
105500,1861.5,9.0,114.3,287.1,1008.0,2281.0,30.0,
105600,1861.4,10.3,114.3,228.5,1008.0,2281.0,30.0,
105700,1860.0,8.2,114.3,74.2,1008.0,2281.0,30.0,
105900,1861.3,14.2,114.4,72.3,1008.0,2281.0,30.0,
106000,1859.9,16.1,114.5,60.5,1008.0,2281.0,30.0,
106100,1861.3,12.3,89.0,62.5,1008.0,2281.0,30.0,
106200,1860.5,74.6,44.6,64.5,1008.0,2281.0,30.0,
106300,1834.1,155.3,92.8,150.4,597.0,2564.0,10.0,
106400,1850.1,127.3,134.8,164.1,661.0,2180.0,9.0,
106500,1852.9,114.6,162.1,164.1,624.0,2557.0,8.0,
106600,1859.6,84.3,181.9,164.1,642.0,2009.0,8.0,
106700,1865.2,22.7,188.0,193.4,642.0,2009.0,8.0,
106900,1861.6,10.7,188.2,201.2,642.0,2009.0,8.0,
107000,1865.3,13.3,188.1,197.3,642.0,2009.0,8.0,
107100,1863.9,10.9,188.1,85.9,642.0,2009.0,8.0,
107200,1862.7,13.0,188.1,78.1,642.0,2009.0,8.0,
107300,1860.7,9.9,164.4,72.3,642.0,2009.0,8.0,
107400,1861.4,8.0,132.1,60.5,642.0,2009.0,8.0,
107500,1863.9,21.4,96.3,58.6,642.0,2009.0,8.0,
107600,1859.7,81.6,50.4,66.4,642.0,2009.0,8.0,
107700,1842.8,123.1,95.6,160.2,473.0,2056.0,9.0,
107900,1843.2,139.1,165.4,164.1,535.0,2201.0,8.0,
108000,1852.7,156.1,190.2,166.0,722.0,3114.0,30.0,
108100,1895.4,127.1,209.5,193.4,1002.0,2828.0,30.0,
108200,1889.4,108.9,221.4,195.3,764.0,2672.0,30.0,
108300,1862.1,20.8,224.5,257.8,764.0,2672.0,30.0,
108400,1862.5,10.0,224.6,257.8,764.0,2672.0,30.0,
108500,1862.0,10.9,224.6,205.1,764.0,2672.0,30.0,
108600,1860.9,13.6,224.5,183.6,764.0,2672.0,30.0,
108700,1862.4,13.6,203.9,95.7,764.0,2672.0,30.0,
108900,1862.4,11.7,152.6,70.3,764.0,2672.0,30.0,
109000,1861.0,12.5,120.3,64.5,764.0,2672.0,30.0,
109100,1859.7,13.6,82.2,64.5,764.0,2672.0,30.0,
109200,1861.8,75.6,40.2,64.5,764.0,2672.0,30.0,
109300,1832.4,147.3,95.2,164.1,455.0,2455.0,9.0,
109400,1852.4,134.7,134.1,191.4,526.0,2392.0,9.0,
109500,1860.9,115.0,160.0,191.4,528.0,2591.0,9.0,
109600,1876.2,152.3,181.1,193.4,972.0,2764.0,30.0,
109700,1887.2,149.5,201.7,193.4,972.0,2764.0,30.0,
109900,1863.2,18.1,215.5,255.9,972.0,2764.0,30.0,
110000,1860.8,7.4,215.5,193.4,972.0,2764.0,30.0,
110100,1863.9,7.8,215.5,162.1,972.0,2764.0,30.0,
110200,1862.0,9.3,215.4,158.2,972.0,2764.0,30.0,
110300,1860.6,6.0,193.9,84.0,972.0,2764.0,30.0,
110400,1861.5,6.8,169.2,60.5,972.0,2764.0,30.0,
110500,1861.0,7.8,144.9,60.5,972.0,2764.0,30.0,
110600,1861.1,8.5,117.5,60.5,972.0,2764.0,30.0,
110700,1860.0,10.7,76.7,64.5,972.0,2764.0,30.0,
110900,1860.1,137.5,71.7,164.1,563.0,2403.0,10.0,
111000,1866.6,182.5,119.2,207.0,1065.0,3311.0,30.0,
111100,1893.4,140.8,145.7,224.6,1052.0,3289.0,30.0,
111200,1884.2,118.0,159.7,234.4,1052.0,3289.0,30.0,
111300,1861.6,156.6,172.9,257.8,1052.0,3289.0,30.0,
111400,1833.5,164.1,196.1,193.4,746.0,2478.0,9.0,
111500,1861.0,21.2,205.5,162.1,746.0,2478.0,9.0,
111600,1861.2,10.3,205.7,162.1,746.0,2478.0,9.0,
111700,1863.4,6.5,205.6,162.1,746.0,2478.0,9.0,
111900,1862.7,7.3,192.9,109.4,746.0,2478.0,9.0,
112000,1861.8,6.6,167.8,60.5,746.0,2478.0,9.0,
112100,1861.5,5.7,145.3,60.5,746.0,2478.0,9.0,
112200,1861.5,8.7,129.8,60.5,746.0,2478.0,9.0,
112300,1861.0,10.1,111.7,60.5,746.0,2478.0,9.0,
112400,1861.6,17.9,62.5,60.5,746.0,2478.0,9.0,
112500,1879.8,106.9,54.5,205.1,746.0,2478.0,9.0,
112600,1872.0,148.8,80.8,261.7,746.0,2478.0,9.0,
112700,1838.8,161.8,115.6,226.6,667.0,2808.0,9.0,
112900,1853.0,132.4,181.4,162.1,642.0,2266.0,9.0,
113000,1848.3,99.1,206.2,162.1,599.0,2085.0,9.0,
113100,1856.1,20.0,218.8,162.1,584.0,2249.0,9.0,
113200,1861.8,8.4,218.8,191.4,584.0,2249.0,9.0,
113300,1862.5,6.6,218.8,193.4,584.0,2249.0,9.0,
113400,1862.7,6.8,218.8,191.4,584.0,2249.0,9.0,
113500,1861.2,11.0,212.2,166.0,584.0,2249.0,9.0,
113600,1860.7,7.4,203.6,80.1,584.0,2249.0,9.0,
113700,1861.1,7.8,186.0,68.4,584.0,2249.0,9.0,
113900,1860.3,8.6,122.8,60.5,584.0,2249.0,9.0,
114000,1861.1,7.7,73.9,60.5,584.0,2249.0,9.0,
114100,1838.4,157.7,69.9,134.8,451.0,2729.0,11.0,
114200,1852.3,143.0,123.1,160.2,647.0,2428.0,10.0,
114300,1844.5,118.6,161.0,162.1,812.0,2810.0,9.0,
114400,1844.2,155.0,188.7,162.1,682.0,2572.0,9.0,
114500,1854.5,157.4,212.9,162.1,793.0,2636.0,30.0,
114600,1896.2,140.0,230.6,191.4,1003.0,3057.0,30.0,
114700,1883.5,25.6,239.0,195.3,1003.0,3057.0,30.0,
114900,1862.5,6.7,239.1,261.7,1003.0,3057.0,30.0,
115000,1862.2,6.0,239.0,257.8,1003.0,3057.0,30.0,
115100,1862.1,6.3,228.8,189.5,1003.0,3057.0,30.0,
115200,1861.7,6.2,205.1,74.2,1003.0,3057.0,30.0,
115300,1861.3,6.4,176.9,60.5,1003.0,3057.0,30.0,
115400,1861.3,6.0,147.0,60.5,1003.0,3057.0,30.0,
115500,1861.4,6.6,109.0,60.5,1003.0,3057.0,30.0,
115600,1860.6,7.9,63.4,60.5,1003.0,3057.0,30.0,
115700,1861.4,144.1,56.2,142.6,372.0,2102.0,11.0,
115900,1877.6,150.1,148.6,189.5,873.0,3031.0,30.0,
116000,1896.2,113.2,171.8,191.4,605.0,2613.0,30.0,
116100,1879.3,122.1,184.1,224.6,605.0,2613.0,30.0,
116200,1847.4,161.8,199.1,257.8,605.0,2613.0,30.0,
116300,1864.5,31.2,211.4,193.4,722.0,2375.0,9.0,
116400,1859.0,8.0,211.4,162.1,722.0,2375.0,9.0,
116500,1863.1,9.4,211.4,162.1,722.0,2375.0,9.0,
116600,1862.4,5.1,211.4,162.1,722.0,2375.0,9.0,
116700,1861.9,5.9,204.0,160.2,722.0,2375.0,9.0,
116900,1860.6,6.3,150.6,60.5,722.0,2375.0,9.0,
117000,1861.6,7.9,123.5,60.5,722.0,2375.0,9.0,
117100,1862.3,10.7,104.4,64.5,722.0,2375.0,9.0,
117200,1859.5,12.6,71.8,60.5,722.0,2375.0,9.0,
117300,1866.9,107.3,48.0,62.5,736.0,2694.0,30.0,
117400,1888.7,150.8,97.7,257.8,947.0,2849.0,30.0,
117500,1879.0,135.6,129.5,259.8,947.0,2849.0,30.0,
117600,1872.2,137.2,144.0,259.8,947.0,2849.0,30.0,
117700,1860.1,123.5,162.7,255.9,693.0,2448.0,9.0,
117900,1842.4,37.1,208.0,162.1,712.0,2210.0,9.0,
118000,1858.6,9.6,208.0,162.1,712.0,2210.0,9.0,
118100,1863.1,6.6,207.9,162.1,712.0,2210.0,9.0,
118200,1862.6,5.2,207.9,162.1,712.0,2210.0,9.0,
118300,1862.0,7.0,202.5,164.1,712.0,2210.0,9.0,
118400,1861.5,4.4,183.8,60.5,712.0,2210.0,9.0,
118500,1860.9,5.0,162.9,60.5,712.0,2210.0,9.0,
118600,1861.0,5.5,150.2,60.5,712.0,2210.0,9.0,
118700,1860.7,4.7,129.8,60.5,712.0,2210.0,9.0,
118900,1860.7,98.0,43.7,218.8,292.0,2065.0,11.0,
119000,1886.9,98.4,73.5,293.0,292.0,2065.0,11.0,
119100,1867.8,140.1,97.0,261.7,292.0,2065.0,11.0,
119200,1848.2,185.8,125.3,195.3,699.0,3370.0,9.0,
119300,1825.2,175.5,164.2,160.2,771.0,2848.0,9.0,
119400,1855.2,152.4,194.2,160.2,706.0,2825.0,9.0,
119500,1849.1,56.0,218.3,162.1,685.0,2147.0,9.0,
119600,1857.3,14.6,218.5,162.1,685.0,2147.0,9.0,
119700,1864.5,9.7,218.5,162.1,685.0,2147.0,9.0,
119900,1862.1,7.1,214.3,164.1,685.0,2147.0,9.0,
120000,1861.0,4.3,206.0,60.5,685.0,2147.0,9.0,
120100,1861.5,6.0,195.9,60.5,685.0,2147.0,9.0,
120200,1861.3,5.0,179.2,60.5,685.0,2147.0,9.0,
120300,1862.1,7.1,144.4,60.5,685.0,2147.0,9.0,
120400,1860.5,6.6,100.5,58.6,685.0,2147.0,9.0,
120500,1861.3,95.8,12.5,60.5,685.0,2147.0,9.0,
120600,1844.9,158.5,75.3,152.3,543.0,2508.0,10.0,
120700,1858.3,149.4,114.5,138.7,671.0,2914.0,10.0,
120900,1841.3,174.2,183.1,160.2,763.0,2628.0,9.0,
121000,1830.1,171.4,214.2,162.1,684.0,2760.0,9.0,
121100,1866.8,67.8,233.6,162.1,661.0,2546.0,9.0,
121200,1864.0,14.3,233.8,162.1,661.0,2546.0,9.0,
121300,1862.9,8.1,233.8,185.5,661.0,2546.0,9.0,
121400,1863.3,6.2,233.8,191.4,661.0,2546.0,9.0,
121500,1863.1,4.5,233.8,187.5,661.0,2546.0,9.0,
121600,1861.0,5.0,221.5,115.2,661.0,2546.0,9.0,
121700,1860.9,6.2,204.0,60.5,661.0,2546.0,9.0,
121900,1860.6,5.9,145.6,60.5,661.0,2546.0,9.0,
122000,1860.8,13.5,94.0,60.5,661.0,2546.0,9.0,
122100,1861.7,82.6,12.7,60.5,661.0,2546.0,9.0,
122200,1849.5,165.8,91.5,158.2,635.0,2438.0,10.0,
122300,1820.8,185.1,146.1,160.2,774.0,2904.0,10.0,
122400,1850.4,165.3,180.3,162.1,687.0,3342.0,9.0,
122500,1862.8,133.6,203.2,162.1,645.0,2938.0,9.0,
122600,1873.7,166.3,221.1,162.1,1070.0,3224.0,30.0,
122700,1883.4,81.7,238.6,162.1,1070.0,3224.0,30.0,
122900,1862.3,9.3,240.0,226.6,1070.0,3224.0,30.0,
123000,1862.3,6.8,240.0,199.2,1070.0,3224.0,30.0,
123100,1862.1,6.7,240.0,183.6,1070.0,3224.0,30.0,
123200,1861.4,5.6,222.0,93.8,1070.0,3224.0,30.0,
123300,1861.8,7.0,190.6,60.5,1070.0,3224.0,30.0,
123400,1861.3,9.0,158.6,60.5,1070.0,3224.0,30.0,
123500,1861.0,6.6,128.0,58.6,1070.0,3224.0,30.0,
123600,1860.7,8.4,93.8,58.6,1070.0,3224.0,30.0,
123700,1861.6,77.5,27.4,60.5,1070.0,3224.0,30.0,
123900,1855.0,164.1,132.4,191.4,879.0,3327.0,30.0,
124000,1868.0,165.2,163.7,183.6,1067.0,3121.0,30.0,
124100,1886.6,154.3,183.1,193.4,1000.0,2939.0,30.0,
124200,1887.1,120.5,195.0,226.6,1000.0,2939.0,30.0,
124300,1861.8,104.8,206.3,257.8,1000.0,2939.0,30.0,
124400,1855.9,17.4,210.9,162.1,638.0,2315.0,10.0,
124500,1858.3,12.2,211.0,152.3,638.0,2315.0,10.0,
124600,1858.0,10.6,211.0,132.8,638.0,2315.0,10.0,
124700,1863.3,12.9,211.0,134.8,638.0,2315.0,10.0,
124900,1862.6,8.3,164.6,60.5,638.0,2315.0,10.0,
125000,1862.4,6.1,133.6,60.5,638.0,2315.0,10.0,
125100,1861.1,7.7,105.4,60.5,638.0,2315.0,10.0,
125200,1860.8,9.9,81.2,60.5,638.0,2315.0,10.0,
125300,1860.1,67.4,45.5,78.1,638.0,2315.0,10.0,
125400,1851.3,164.6,73.2,154.3,829.0,3340.0,10.0,
125500,1899.1,141.9,110.8,160.2,829.0,3340.0,10.0,
125600,1888.6,108.9,129.4,162.1,829.0,3340.0,10.0,
125700,1862.7,157.7,145.4,162.1,829.0,3340.0,10.0,
125900,1851.5,152.6,193.8,160.2,929.0,2768.0,9.0,
126000,1857.1,14.2,201.6,160.2,929.0,2768.0,9.0,
126100,1859.7,7.1,201.6,162.1,929.0,2768.0,9.0,
126200,1863.0,6.0,201.5,162.1,929.0,2768.0,9.0,
126300,1862.2,5.1,201.5,162.1,929.0,2768.0,9.0,
126400,1861.9,5.8,188.1,136.7,929.0,2768.0,9.0,
126500,1861.0,7.2,168.6,60.5,929.0,2768.0,9.0,
126600,1860.2,5.8,154.8,60.5,929.0,2768.0,9.0,
126700,1861.2,7.8,139.9,60.5,929.0,2768.0,9.0,
126900,1861.4,19.0,56.0,60.5,929.0,2768.0,9.0,
127000,1882.0,132.5,56.7,148.4,929.0,2768.0,9.0,
127100,1871.5,137.4,85.9,228.5,929.0,2768.0,9.0,
127200,1870.0,135.8,108.9,195.3,929.0,2768.0,9.0,
127300,1850.9,122.3,133.9,162.1,873.0,2542.0,9.0,
127400,1844.3,149.2,162.0,160.2,807.0,2426.0,9.0,
127500,1826.3,166.2,193.5,160.2,749.0,2269.0,9.0,
127600,1863.5,16.8,202.4,162.1,749.0,2269.0,9.0,
127700,1861.0,7.1,202.4,162.1,749.0,2269.0,9.0,
127900,1862.2,5.8,202.3,166.0,749.0,2269.0,9.0,
128000,1862.0,5.2,194.4,162.1,749.0,2269.0,9.0,
128100,1862.6,4.7,183.4,60.5,749.0,2269.0,9.0,
128200,1861.2,10.0,170.7,60.5,749.0,2269.0,9.0,
128300,1862.1,10.0,152.0,60.5,749.0,2269.0,9.0,
128400,1860.3,13.6,121.7,66.4,749.0,2269.0,9.0,
128500,1862.2,14.0,60.4,74.2,749.0,2269.0,9.0,
128600,1866.8,92.1,41.0,91.8,749.0,2269.0,9.0,
128700,1858.3,144.4,77.5,160.2,532.0,2236.0,10.0,
128900,1843.5,162.8,154.9,160.2,728.0,2765.0,9.0,
129000,1853.3,135.3,184.0,162.1,727.0,2709.0,9.0,
129100,1849.1,139.9,206.0,162.1,724.0,2346.0,9.0,
129200,1856.2,20.7,216.9,162.1,667.0,2353.0,9.0,
129300,1860.9,6.1,216.8,162.1,667.0,2353.0,9.0,
129400,1864.1,5.3,216.8,166.0,667.0,2353.0,9.0,
129500,1862.8,5.2,216.7,181.6,667.0,2353.0,9.0,
129600,1862.4,4.9,213.1,166.0,667.0,2353.0,9.0,
129700,1861.5,5.4,202.7,60.5,667.0,2353.0,9.0,
129900,1861.0,9.4,151.9,60.5,667.0,2353.0,9.0,
130000,1861.4,13.0,115.1,60.5,667.0,2353.0,9.0,
130100,1861.2,12.7,68.4,60.5,667.0,2353.0,9.0,
130200,1849.1,132.8,59.4,85.9,388.0,2261.0,11.0,
130300,1850.0,138.3,106.6,158.2,633.0,2995.0,10.0,
130400,1844.2,166.6,144.0,160.2,623.0,2656.0,9.0,
130500,1844.1,149.9,173.8,162.1,719.0,2447.0,9.0,
130600,1830.6,152.7,201.7,162.1,634.0,2553.0,9.0,
130700,1885.9,127.5,218.7,162.1,996.0,2793.0,30.0,
130900,1860.9,13.3,229.2,222.7,996.0,2793.0,30.0,
131000,1862.6,10.2,229.2,257.8,996.0,2793.0,30.0,
131100,1863.3,8.6,229.2,271.5,996.0,2793.0,30.0,
131200,1859.9,8.9,221.6,191.4,996.0,2793.0,30.0,
131300,1862.3,6.7,203.2,56.6,996.0,2793.0,30.0,
131400,1860.8,7.5,178.6,58.6,996.0,2793.0,30.0,
131500,1863.2,9.9,149.9,60.5,996.0,2793.0,30.0,
131600,1860.0,10.5,109.6,62.5,996.0,2793.0,30.0,
131700,1860.9,12.7,69.6,60.5,996.0,2793.0,30.0,
131900,1817.8,173.6,128.2,164.1,656.0,2826.0,9.0,
132000,1858.8,152.8,163.2,162.1,736.0,3102.0,9.0,
132100,1860.2,121.7,186.6,162.1,738.0,2776.0,9.0,
132200,1876.1,152.7,205.5,162.1,1034.0,2903.0,30.0,
132300,1885.7,142.2,222.8,162.1,1034.0,2903.0,30.0,
132400,1880.9,35.6,230.0,195.3,1034.0,2903.0,30.0,
132500,1859.0,13.3,230.1,224.6,1034.0,2903.0,30.0,
132600,1863.4,5.1,230.1,164.1,1034.0,2903.0,30.0,
132700,1862.6,6.0,230.1,160.2,1034.0,2903.0,30.0,
132900,1861.8,4.7,191.4,60.5,1034.0,2903.0,30.0,
133000,1861.5,5.0,162.6,60.5,1034.0,2903.0,30.0,
133100,1861.0,6.3,134.9,60.5,1034.0,2903.0,30.0,
133200,1861.7,5.2,103.9,60.5,1034.0,2903.0,30.0,
133300,1861.1,5.4,57.8,60.5,1034.0,2903.0,30.0,
133400,1857.9,75.9,52.7,146.5,220.0,1345.0,11.0,
133500,1860.6,120.3,97.1,197.3,586.0,1826.0,30.0,
133600,1873.9,148.8,132.1,203.1,976.0,2883.0,30.0,
133700,1890.8,131.4,150.6,226.6,712.0,2643.0,30.0,
133900,1853.0,153.8,181.4,257.8,643.0,2190.0,9.0,
134000,1843.3,37.2,203.0,162.1,591.0,2007.0,9.0,
134100,1858.2,8.3,203.1,160.2,591.0,2007.0,9.0,
134200,1862.7,5.1,203.1,162.1,591.0,2007.0,9.0,
134300,1862.7,5.8,203.1,162.1,591.0,2007.0,9.0,
134400,1860.8,7.4,196.4,160.2,591.0,2007.0,9.0,
134500,1860.8,6.2,178.5,60.5,591.0,2007.0,9.0,
134600,1860.4,5.4,154.4,60.5,591.0,2007.0,9.0,
134700,1861.3,7.6,136.4,60.5,591.0,2007.0,9.0,
134900,1859.8,9.1,91.5,60.5,591.0,2007.0,9.0,
135000,1865.4,85.6,41.8,103.5,591.0,2007.0,9.0,
135100,1885.3,92.4,70.4,291.0,591.0,2007.0,9.0,
135200,1861.4,131.8,92.6,259.8,591.0,2007.0,9.0,
135300,1831.8,154.5,127.9,193.4,585.0,2337.0,10.0,
135400,1840.8,163.2,160.4,160.2,592.0,2169.0,10.0,
135500,1856.4,125.2,190.4,160.2,657.0,2243.0,10.0,
135600,1849.0,52.3,212.8,162.1,566.0,2760.0,9.0,
135700,1857.2,9.3,212.9,162.1,566.0,2760.0,9.0,
135900,1861.7,4.9,212.9,162.1,566.0,2760.0,9.0,
136000,1861.8,5.1,208.9,160.2,566.0,2760.0,9.0,
136100,1861.9,5.3,201.0,62.5,566.0,2760.0,9.0,
136200,1861.2,4.6,191.8,60.5,566.0,2760.0,9.0,
136300,1860.8,4.6,170.3,60.5,566.0,2760.0,9.0,
136400,1861.3,5.9,140.2,60.5,566.0,2760.0,9.0,
136500,1858.3,11.6,95.6,60.5,566.0,2760.0,9.0,
136600,1845.7,137.9,37.4,60.5,615.0,3048.0,11.0,
136700,1832.7,178.4,98.5,136.7,847.0,2804.0,10.0,
136900,1850.9,106.6,166.7,158.2,933.0,2616.0,9.0,
137000,1853.4,142.2,185.2,160.2,611.0,2680.0,8.0,
137100,1870.6,150.3,203.6,162.1,890.0,3133.0,30.0,
137200,1893.1,57.7,215.7,162.1,890.0,3133.0,30.0,
137300,1863.6,11.2,215.9,193.4,890.0,3133.0,30.0,
137400,1861.3,7.0,215.9,224.6,890.0,3133.0,30.0,
137500,1862.1,7.8,215.9,197.3,890.0,3133.0,30.0,
137600,1859.0,7.5,212.9,185.5,890.0,3133.0,30.0,
137700,1858.5,7.1,192.3,87.9,890.0,3133.0,30.0,
137900,1862.3,5.5,137.5,60.5,890.0,3133.0,30.0,
138000,1862.0,5.4,111.2,60.5,890.0,3133.0,30.0,
138100,1859.9,6.6,72.3,60.5,890.0,3133.0,30.0,
138200,1859.7,60.6,11.7,60.5,890.0,3133.0,30.0,
138300,1854.1,121.5,76.5,191.4,459.0,2029.0,10.0,
138400,1849.8,126.1,109.5,191.4,850.0,2467.0,30.0,
138500,1889.8,100.7,130.1,191.4,850.0,2467.0,30.0,
138600,1881.0,81.2,140.5,224.6,850.0,2467.0,30.0,
138700,1858.9,116.9,151.3,257.8,850.0,2467.0,30.0,
138900,1863.5,9.5,168.9,160.2,850.0,2467.0,30.0,
139000,1860.1,5.1,168.9,160.2,850.0,2467.0,30.0,
139100,1859.5,5.2,168.9,160.2,850.0,2467.0,30.0,
139200,1859.8,3.6,168.9,160.2,850.0,2467.0,30.0,
139300,1860.0,4.6,150.8,119.1,850.0,2467.0,30.0,
139400,1858.9,5.8,128.8,60.5,850.0,2467.0,30.0,
139500,1860.1,11.5,107.9,60.5,850.0,2467.0,30.0,
139600,1859.0,11.2,94.0,60.5,850.0,2467.0,30.0,
139700,1859.6,8.4,75.5,60.5,850.0,2467.0,30.0,
139900,1882.8,108.1,75.9,263.7,905.0,2655.0,30.0,
140000,1880.5,116.5,103.3,291.0,905.0,2655.0,30.0,
140100,1851.8,145.1,121.6,261.7,905.0,2655.0,30.0,
140200,1855.0,124.7,138.8,226.6,905.0,2655.0,30.0,
140300,1851.4,107.5,154.5,160.2,905.0,2655.0,30.0,
140400,1849.3,82.7,170.4,130.9,644.0,1897.0,9.0,
140500,1854.2,11.3,175.7,160.2,644.0,1897.0,9.0,
140600,1861.7,5.9,175.6,160.2,644.0,1897.0,9.0,
140700,1863.6,6.1,175.6,162.1,644.0,1897.0,9.0,
140900,1865.3,6.1,158.6,111.3,644.0,1897.0,9.0,
141000,1864.4,4.7,142.3,60.5,644.0,1897.0,9.0,
141100,1862.9,6.5,127.0,60.5,644.0,1897.0,9.0,
141200,1860.7,7.4,107.9,60.5,644.0,1897.0,9.0,
141300,1860.6,9.5,83.8,60.5,644.0,1897.0,9.0,
141400,1859.3,54.8,43.5,60.5,644.0,1897.0,9.0,
141500,1849.4,137.4,55.0,134.8,644.0,1897.0,9.0,
141600,1864.2,126.9,89.0,134.8,644.0,1897.0,9.0,
141700,1851.4,154.3,116.5,130.9,805.0,2886.0,10.0,
141900,1842.1,162.0,168.9,128.9,725.0,2643.0,10.0,
142000,1870.9,133.9,190.0,130.9,687.0,2703.0,9.0,
142100,1865.0,13.0,196.1,160.2,687.0,2703.0,9.0,
142200,1863.8,7.3,196.1,162.1,687.0,2703.0,9.0,
142300,1863.0,5.5,196.1,164.1,687.0,2703.0,9.0,
142400,1862.3,8.2,196.1,168.0,687.0,2703.0,9.0,
142500,1861.3,7.1,188.4,105.5,687.0,2703.0,9.0,
142600,1863.7,5.0,174.9,80.1,687.0,2703.0,9.0,
142700,1861.4,7.8,157.9,85.9,687.0,2703.0,9.0,
142900,1860.2,9.5,99.9,60.5,687.0,2703.0,9.0,
143000,1858.0,56.9,49.4,60.5,687.0,2703.0,9.0,
143100,1849.1,151.4,71.1,130.9,555.0,2855.0,12.0,
143200,1838.6,165.0,110.8,132.8,677.0,2849.0,11.0,
143300,1863.2,138.7,143.3,130.9,722.0,2773.0,10.0,
143400,1853.6,123.0,168.9,130.9,757.0,2771.0,10.0,
143500,1868.0,171.5,190.9,160.2,1250.0,3366.0,30.0,
143600,1880.7,180.9,215.7,162.1,1024.0,3362.0,30.0,
143700,1866.0,25.9,222.2,193.4,808.0,2633.0,10.0,
143900,1860.5,12.1,222.3,226.6,808.0,2633.0,10.0,
144000,1861.7,7.8,222.2,191.4,808.0,2633.0,10.0,
144100,1860.3,6.1,210.8,111.3,808.0,2633.0,10.0,
144200,1861.0,5.2,192.9,80.1,808.0,2633.0,10.0,
144300,1862.2,5.3,170.1,76.2,808.0,2633.0,10.0,
144400,1862.7,5.1,144.7,60.5,808.0,2633.0,10.0,
144500,1862.4,6.7,114.1,60.5,808.0,2633.0,10.0,
144600,1863.8,7.7,54.3,60.5,808.0,2633.0,10.0,
144700,1858.4,107.3,60.0,140.6,352.0,2410.0,12.0,
144900,1840.0,179.1,139.5,160.2,834.0,2941.0,30.0,
145000,1885.5,159.3,168.4,160.2,1254.0,3645.0,30.0,
145100,1883.7,117.0,187.2,162.1,1003.0,3028.0,30.0,
145200,1870.1,129.2,199.2,222.7,1003.0,3028.0,30.0,
145300,1859.6,22.2,206.1,224.6,1003.0,3028.0,30.0,
145400,1859.5,8.3,206.1,162.1,1003.0,3028.0,30.0,
145500,1862.2,5.5,206.1,156.3,1003.0,3028.0,30.0,
145600,1863.5,5.5,206.1,130.9,1003.0,3028.0,30.0,
145700,1863.1,5.8,197.5,103.5,1003.0,3028.0,30.0,
145900,1862.3,5.8,152.0,60.5,1003.0,3028.0,30.0,
146000,1861.8,5.2,119.0,60.5,1003.0,3028.0,30.0,
146100,1861.8,5.6,86.5,60.5,1003.0,3028.0,30.0,
146200,1860.5,7.8,53.5,60.5,1003.0,3028.0,30.0,
146300,1852.7,147.0,69.0,162.1,560.0,3053.0,12.0,
146400,1865.6,148.0,113.1,187.5,1264.0,3878.0,30.0,
146500,1886.0,172.6,148.7,191.4,960.0,3452.0,30.0,
146600,1868.4,164.2,174.2,193.4,834.0,3034.0,9.0,
146700,1862.0,147.2,188.8,224.6,834.0,3034.0,9.0,
146900,1855.9,34.4,210.3,160.2,834.0,3034.0,9.0,
147000,1861.8,12.4,210.4,128.9,834.0,3034.0,9.0,
147100,1861.0,5.6,210.4,130.9,834.0,3034.0,9.0,
147200,1862.9,5.3,210.4,128.9,834.0,3034.0,9.0,
147300,1864.1,5.2,199.0,99.6,834.0,3034.0,9.0,
147400,1863.3,4.0,177.6,66.4,834.0,3034.0,9.0,
147500,1861.1,5.5,149.1,60.5,834.0,3034.0,9.0,
147600,1861.5,4.0,118.3,60.5,834.0,3034.0,9.0,
147700,1861.1,5.8,93.2,60.5,834.0,3034.0,9.0,
147900,1863.2,154.2,66.1,261.7,891.0,2883.0,30.0,
148000,1873.5,165.6,110.9,287.1,850.0,3406.0,30.0,
148100,1884.7,126.2,134.4,265.6,850.0,3406.0,30.0,
148200,1864.3,129.3,151.2,257.8,850.0,3406.0,30.0,
148300,1854.0,159.3,166.4,193.4,850.0,3406.0,30.0,
148400,1831.9,166.9,186.6,128.9,730.0,2488.0,10.0,
148500,1868.5,30.0,199.0,128.9,738.0,2646.0,10.0,
148600,1858.8,5.4,199.0,128.9,738.0,2646.0,10.0,
148700,1863.0,5.4,199.0,132.8,738.0,2646.0,10.0,
148900,1863.2,4.7,187.9,134.8,738.0,2646.0,10.0,
149000,1863.1,5.3,165.3,60.5,738.0,2646.0,10.0,
149100,1862.0,5.8,146.8,60.5,738.0,2646.0,10.0,
149200,1860.7,6.1,129.5,60.5,738.0,2646.0,10.0,
149300,1861.3,5.9,109.2,60.5,738.0,2646.0,10.0,
149400,1861.5,9.0,69.2,60.5,738.0,2646.0,10.0,
149500,1871.6,103.7,45.9,179.7,659.0,2900.0,30.0,
149600,1869.4,152.8,83.7,261.7,659.0,2900.0,30.0,
149700,1839.0,171.0,112.9,228.5,659.0,2900.0,30.0,
149900,1854.2,116.8,155.0,128.9,659.0,2900.0,30.0,
150000,1850.3,144.5,174.3,128.9,804.0,2747.0,10.0,
150100,1848.8,36.5,192.1,128.9,719.0,2482.0,10.0,
150200,1857.2,7.5,192.1,158.2,719.0,2482.0,10.0,
150300,1862.8,5.5,192.1,158.2,719.0,2482.0,10.0,
150400,1864.1,4.6,192.1,156.3,719.0,2482.0,10.0,
150500,1864.0,5.7,186.6,138.7,719.0,2482.0,10.0,
150600,1862.2,5.1,173.0,60.5,719.0,2482.0,10.0,
150700,1860.9,4.5,155.5,60.5,719.0,2482.0,10.0,
150900,1861.4,4.5,113.5,60.5,719.0,2482.0,10.0,
151000,1861.1,9.3,80.9,60.5,719.0,2482.0,10.0,
151100,1852.1,102.4,31.7,70.3,719.0,2482.0,10.0,
151200,1860.7,118.6,70.7,132.8,719.0,2482.0,10.0,
151300,1853.2,162.3,99.6,128.9,719.0,2482.0,10.0,
151400,1836.9,166.4,130.7,128.9,621.0,2392.0,10.0,
151500,1847.1,145.8,153.0,127.0,707.0,2754.0,10.0,
151600,1865.3,131.7,172.1,128.9,686.0,3095.0,10.0,
151700,1871.3,50.5,191.7,128.9,1049.0,3459.0,30.0,
151900,1861.4,5.1,191.8,162.1,1049.0,3459.0,30.0,
152000,1859.9,5.5,191.8,193.4,1049.0,3459.0,30.0,
152100,1862.0,5.5,189.2,189.5,1049.0,3459.0,30.0,
152200,1864.8,3.9,178.4,60.5,1049.0,3459.0,30.0,
152300,1861.6,6.0,164.0,60.5,1049.0,3459.0,30.0,
152400,1860.8,4.5,140.5,60.5,1049.0,3459.0,30.0,
152500,1861.0,4.2,115.7,60.5,1049.0,3459.0,30.0,
152600,1860.8,6.4,84.8,60.5,1049.0,3459.0,30.0,
152700,1853.8,112.6,32.6,82.0,1049.0,3459.0,30.0,
152900,1853.7,139.4,106.1,130.9,666.0,2856.0,11.0,
153000,1853.6,151.9,133.4,130.9,695.0,2792.0,10.0,
153100,1842.1,158.8,159.4,128.9,620.0,3156.0,30.0,
153200,1870.5,162.4,182.2,128.9,1140.0,3186.0,30.0,
153300,1890.9,60.3,199.6,162.1,721.0,3013.0,10.0,
153400,1861.3,10.6,199.7,224.6,721.0,3013.0,10.0,
153500,1862.0,6.2,199.7,226.6,721.0,3013.0,10.0,
153600,1862.5,4.6,199.7,224.6,721.0,3013.0,10.0,
153700,1864.1,5.1,197.2,164.1,721.0,3013.0,10.0,
153900,1862.0,5.0,169.3,60.5,721.0,3013.0,10.0,
154000,1861.4,4.9,148.8,60.5,721.0,3013.0,10.0,
154100,1861.0,4.9,120.5,60.5,721.0,3013.0,10.0,
154200,1861.4,5.4,82.2,60.5,721.0,3013.0,10.0,
154300,1861.0,106.1,8.7,60.5,365.0,2253.0,12.0,
154400,1842.3,129.0,78.5,158.2,429.0,2201.0,11.0,
154500,1834.7,159.2,108.5,158.2,603.0,2559.0,11.0,
154600,1866.7,143.0,136.2,156.3,667.0,2927.0,10.0,
154700,1872.9,133.0,159.6,130.9,1178.0,3242.0,30.0,
154900,1858.8,70.0,197.8,195.3,1178.0,3242.0,30.0,
155000,1868.4,8.3,199.2,226.6,1178.0,3242.0,30.0,
155100,1861.3,5.7,199.2,191.4,1178.0,3242.0,30.0,
155200,1862.5,7.0,199.2,158.2,1178.0,3242.0,30.0,
155300,1863.5,5.2,199.2,130.9,1178.0,3242.0,30.0,
155400,1863.7,5.1,183.2,78.1,1178.0,3242.0,30.0,
155500,1862.0,4.1,167.2,62.5,1178.0,3242.0,30.0,
155600,1861.6,6.9,145.5,60.5,1178.0,3242.0,30.0,
155700,1860.7,4.4,119.4,60.5,1178.0,3242.0,30.0,
155900,1860.7,55.4,24.8,60.5,1178.0,3242.0,30.0,
156000,1852.5,93.8,71.2,168.0,380.0,1898.0,11.0,
156100,1857.0,162.9,105.9,168.0,985.0,3326.0,30.0,
156200,1868.6,188.4,142.6,191.4,1109.0,3480.0,30.0,
156300,1877.8,160.2,163.8,193.4,803.0,3340.0,30.0,
156400,1869.0,141.8,179.4,226.6,803.0,3340.0,30.0,
156500,1857.0,115.6,194.8,193.4,803.0,3340.0,30.0,
156600,1853.1,11.8,199.8,127.0,803.0,3340.0,30.0,
156700,1862.3,4.8,199.8,72.3,803.0,3340.0,30.0,
156900,1863.0,4.9,199.8,68.4,803.0,3340.0,30.0,
157000,1862.7,4.3,186.8,70.3,803.0,3340.0,30.0,
157100,1864.0,5.5,169.5,60.5,803.0,3340.0,30.0,
157200,1862.4,5.2,140.0,60.5,803.0,3340.0,30.0,
157300,1861.1,3.4,114.5,60.5,803.0,3340.0,30.0,
157400,1860.1,5.0,88.1,60.5,803.0,3340.0,30.0,
157500,1861.3,72.3,44.6,60.5,803.0,3340.0,30.0,
157600,1872.9,138.0,81.2,291.0,1009.0,2694.0,30.0,
157700,1883.3,111.0,112.4,291.0,618.0,2756.0,30.0,
157900,1843.1,150.2,144.5,257.8,618.0,2756.0,30.0,
158000,1849.3,142.2,160.7,162.1,618.0,2756.0,30.0,
158100,1862.8,127.2,177.5,128.9,704.0,2720.0,11.0,
158200,1857.5,11.1,182.8,128.9,704.0,2720.0,11.0,
158300,1861.9,5.3,182.8,128.9,704.0,2720.0,11.0,
158400,1862.3,5.4,182.8,128.9,704.0,2720.0,11.0,
158500,1862.5,4.1,182.8,128.9,704.0,2720.0,11.0,
158600,1863.1,5.4,163.8,76.2,704.0,2720.0,11.0,
158700,1862.7,4.8,144.2,60.5,704.0,2720.0,11.0,
158900,1861.5,4.6,112.1,60.5,704.0,2720.0,11.0,
159000,1861.4,4.8,87.3,60.5,704.0,2720.0,11.0,
159100,1861.4,49.9,43.9,60.5,704.0,2720.0,11.0,
159200,1867.5,117.6,60.5,263.7,323.0,2210.0,30.0,
159300,1852.6,125.1,86.4,253.9,323.0,2210.0,30.0,
159400,1863.5,117.9,106.6,193.4,323.0,2210.0,30.0,
159500,1857.2,166.6,127.9,130.9,323.0,2210.0,30.0,
159600,1845.8,156.9,151.9,128.9,831.0,2983.0,10.0,
159700,1830.9,157.4,176.9,128.9,705.0,2777.0,10.0,
159900,1861.3,5.2,184.1,130.9,705.0,2777.0,10.0,
160000,1864.2,4.5,184.2,160.2,705.0,2777.0,10.0,
160100,1863.5,4.9,184.2,158.2,705.0,2777.0,10.0,
160200,1864.4,4.7,174.0,136.7,705.0,2777.0,10.0,
160300,1862.9,4.8,162.7,60.5,705.0,2777.0,10.0,
160400,1861.7,4.6,150.3,60.5,705.0,2777.0,10.0,
160500,1861.8,4.8,132.6,60.5,705.0,2777.0,10.0,
160600,1861.9,8.5,104.3,60.5,705.0,2777.0,10.0,
160700,1858.5,14.1,51.5,60.5,705.0,2777.0,10.0,
160900,1853.4,142.8,71.7,132.8,705.0,2777.0,10.0,
161000,1831.0,155.6,106.7,130.9,589.0,2530.0,11.0,
161100,1857.2,139.5,133.2,128.9,736.0,3283.0,10.0,
161200,1850.3,127.2,155.5,128.9,699.0,2514.0,10.0,
161300,1852.7,159.7,175.7,128.9,764.0,3085.0,30.0,
161400,1860.4,32.0,188.5,128.9,764.0,3085.0,30.0,
161500,1860.3,7.7,188.7,160.2,764.0,3085.0,30.0,
161600,1863.6,5.6,188.7,160.2,764.0,3085.0,30.0,
161700,1865.4,5.6,188.7,160.2,764.0,3085.0,30.0,
161900,1861.9,4.5,174.6,60.5,764.0,3085.0,30.0,
162000,1861.8,5.6,155.8,60.5,764.0,3085.0,30.0,
162100,1861.4,5.4,133.8,60.5,764.0,3085.0,30.0,
162200,1861.2,6.8,107.1,60.5,764.0,3085.0,30.0,
162300,1860.6,10.9,69.1,60.5,764.0,3085.0,30.0,
162400,1852.7,100.9,53.5,127.0,348.0,1992.0,11.0,
162500,1849.6,107.8,90.1,138.7,516.0,2204.0,11.0,
162600,1848.8,159.5,118.7,132.8,663.0,2732.0,11.0,
162700,1835.4,178.0,150.8,130.9,714.0,3021.0,10.0,
162900,1887.2,134.6,195.7,130.9,1133.0,3166.0,30.0,
163000,1877.8,24.0,207.7,162.1,655.0,2624.0,10.0,
163100,1859.2,5.7,207.7,224.6,655.0,2624.0,10.0,
163200,1866.1,5.3,207.7,255.9,655.0,2624.0,10.0,
163300,1863.2,4.6,207.7,253.9,655.0,2624.0,10.0,
163400,1862.3,4.9,201.0,199.2,655.0,2624.0,10.0,
163500,1860.6,4.2,187.3,60.5,655.0,2624.0,10.0,
163600,1861.4,4.0,170.6,60.5,655.0,2624.0,10.0,
163700,1863.2,5.0,143.0,60.5,655.0,2624.0,10.0,
163900,1860.3,6.1,69.9,60.5,655.0,2624.0,10.0,
164000,1847.8,159.0,60.1,134.8,598.0,3364.0,12.0,
164100,1839.2,154.8,105.7,134.8,805.0,2935.0,10.0,
164200,1855.2,127.6,134.9,130.9,807.0,2700.0,10.0,
164300,1862.5,156.1,156.1,130.9,747.0,2896.0,9.0,
164400,1875.3,170.4,180.1,130.9,747.0,2896.0,9.0,
164500,1869.6,148.7,194.8,160.2,747.0,2896.0,9.0,
164600,1884.4,28.8,202.2,162.1,747.0,2896.0,9.0,
164700,1858.6,7.2,202.2,162.1,747.0,2896.0,9.0,
164900,1860.6,3.8,202.2,123.0,747.0,2896.0,9.0,
165000,1861.7,4.1,193.2,99.6,747.0,2896.0,9.0,
165100,1861.2,4.9,172.5,60.5,747.0,2896.0,9.0,
165200,1860.4,4.3,150.7,60.5,747.0,2896.0,9.0,
165300,1860.3,6.6,128.6,60.5,747.0,2896.0,9.0,
165400,1860.4,7.7,92.0,60.5,747.0,2896.0,9.0,
165500,1859.8,6.2,54.5,60.5,747.0,2896.0,9.0,
165600,1862.9,130.7,44.1,109.4,483.0,2712.0,11.0,
165700,1834.2,158.8,98.7,160.2,731.0,3138.0,10.0,
165900,1898.5,135.8,152.0,160.2,731.0,3138.0,10.0,
166000,1874.3,128.0,165.3,160.2,731.0,3138.0,10.0,
166100,1857.5,157.1,177.3,162.1,731.0,3138.0,10.0,
166200,1855.3,37.9,190.0,128.9,731.0,3138.0,10.0,
166300,1856.3,7.0,190.0,95.7,731.0,3138.0,10.0,
166400,1861.1,4.0,190.0,95.7,731.0,3138.0,10.0,
166500,1861.4,4.9,190.0,93.8,731.0,3138.0,10.0,
166600,1863.3,4.6,185.0,76.2,731.0,3138.0,10.0,
166700,1862.3,3.9,162.5,60.5,731.0,3138.0,10.0,
166900,1861.6,4.8,114.2,60.5,731.0,3138.0,10.0,
167000,1861.4,4.3,93.8,60.5,731.0,3138.0,10.0,
167100,1861.7,6.0,68.6,60.5,731.0,3138.0,10.0,
167200,1863.2,111.4,41.1,152.3,731.0,3138.0,10.0,
167300,1888.1,132.3,88.3,287.1,731.0,3138.0,10.0,
167400,1868.7,150.1,111.5,257.8,731.0,3138.0,10.0,
167500,1847.3,176.2,131.5,195.3,731.0,3138.0,10.0,
167600,1859.8,143.6,151.4,99.6,731.0,3138.0,10.0,
167700,1852.8,132.3,170.4,97.7,866.0,3217.0,10.0,
167900,1854.5,6.5,189.1,128.9,866.0,3217.0,10.0,
168000,1861.4,4.4,189.1,128.9,866.0,3217.0,10.0,
168100,1860.6,4.3,189.1,128.9,866.0,3217.0,10.0,
168200,1861.7,3.7,184.6,127.0,866.0,3217.0,10.0,
168300,1862.2,4.6,167.3,60.5,866.0,3217.0,10.0,
168400,1862.0,4.1,152.8,60.5,866.0,3217.0,10.0,
168500,1861.2,3.7,136.0,60.5,866.0,3217.0,10.0,
168600,1861.5,4.2,113.3,60.5,866.0,3217.0,10.0,
168700,1860.4,5.5,82.1,60.5,866.0,3217.0,10.0,
168900,1872.1,121.3,61.5,289.1,866.0,3217.0,10.0,
169000,1864.0,107.3,84.0,234.4,866.0,3217.0,10.0,
169100,1855.6,141.3,104.9,162.1,866.0,3217.0,10.0,
169200,1840.4,157.1,128.9,128.9,866.0,3217.0,10.0,
169300,1845.1,148.3,150.2,128.9,610.0,2466.0,9.0,
169400,1859.0,56.7,169.4,128.9,634.0,2648.0,11.0,
169500,1861.4,8.7,169.4,130.9,634.0,2648.0,11.0,
169600,1860.0,9.3,169.5,154.3,634.0,2648.0,11.0,
169700,1860.6,7.2,169.5,150.4,634.0,2648.0,11.0,
169900,1859.5,6.8,158.1,113.3,634.0,2648.0,11.0,
170000,1859.7,6.9,147.3,97.7,634.0,2648.0,11.0,
170100,1860.4,10.0,133.3,60.5,634.0,2648.0,11.0,
170200,1860.6,11.7,110.4,60.5,634.0,2648.0,11.0,
170300,1863.1,14.5,79.1,60.5,634.0,2648.0,11.0,
170400,1860.7,75.4,12.3,60.5,634.0,2648.0,11.0,
170500,1852.9,123.6,54.9,87.9,634.0,2648.0,11.0,
170600,1849.0,140.7,82.7,128.9,634.0,2648.0,11.0,
170700,1861.8,126.8,109.4,128.9,640.0,2572.0,10.0,
170900,1849.9,154.0,151.3,128.9,624.0,2938.0,11.0,
171000,1841.2,76.8,173.9,160.2,797.0,3141.0,30.0,
171100,1873.8,13.3,175.0,160.2,797.0,3141.0,30.0,
171200,1861.3,5.0,175.0,162.1,797.0,3141.0,30.0,
171300,1861.0,4.9,174.9,162.1,797.0,3141.0,30.0,
171400,1859.8,4.0,174.9,162.1,797.0,3141.0,30.0,
171500,1862.2,4.8,166.4,99.6,797.0,3141.0,30.0,
171600,1864.6,4.6,154.5,60.5,797.0,3141.0,30.0,
171700,1862.3,5.5,136.9,60.5,797.0,3141.0,30.0,
171900,1861.9,5.1,88.3,60.5,797.0,3141.0,30.0,
172000,1861.7,70.1,20.8,60.5,797.0,3141.0,30.0,
172100,1855.2,159.5,63.3,140.6,758.0,3829.0,12.0,
172200,1848.2,196.6,105.6,130.9,833.0,3815.0,12.0,
172300,1823.5,202.9,145.5,128.9,881.0,3878.0,11.0,
172400,1873.1,165.5,170.6,97.7,887.0,3791.0,11.0,
172500,1879.2,149.9,190.4,97.7,1050.0,3945.0,30.0,
172600,1882.1,109.2,206.4,127.0,1050.0,3945.0,30.0,
172700,1860.1,11.8,210.3,130.9,1050.0,3945.0,30.0,
172900,1860.5,4.4,210.3,99.6,1050.0,3945.0,30.0,
173000,1861.9,4.1,210.3,95.7,1050.0,3945.0,30.0,
173100,1862.3,4.9,200.7,74.2,1050.0,3945.0,30.0,
173200,1860.9,4.9,182.0,60.5,1050.0,3945.0,30.0,
173300,1861.4,4.3,152.0,60.5,1050.0,3945.0,30.0,
173400,1861.3,5.1,123.2,60.5,1050.0,3945.0,30.0,
173500,1860.2,8.6,89.5,60.5,1050.0,3945.0,30.0,
173600,1861.4,83.1,41.1,60.5,1050.0,3945.0,30.0,
173700,1847.1,131.1,74.7,156.3,588.0,2451.0,10.0,
173900,1865.1,170.8,136.1,152.3,1180.0,3926.0,30.0,
174000,1876.6,178.1,162.0,158.2,1180.0,3926.0,30.0,
174100,1864.8,149.5,177.2,162.1,1180.0,3926.0,30.0,
174200,1866.0,127.4,189.8,162.1,1180.0,3926.0,30.0,
174300,1859.1,13.0,193.6,97.7,1180.0,3926.0,30.0,
174400,1861.6,6.8,193.6,95.7,1180.0,3926.0,30.0,
174500,1861.0,4.2,193.6,95.7,1180.0,3926.0,30.0,
174600,1861.0,5.2,193.6,95.7,1180.0,3926.0,30.0,
174700,1861.8,5.5,178.7,68.4,1180.0,3926.0,30.0,
174900,1861.7,4.8,137.8,60.5,1180.0,3926.0,30.0,
175000,1861.9,6.1,106.2,58.6,1180.0,3926.0,30.0,
175100,1860.2,7.7,78.3,60.5,1180.0,3926.0,30.0,
175200,1858.9,53.1,38.8,60.5,1180.0,3926.0,30.0,
175300,1867.7,173.4,71.3,226.6,1159.0,3639.0,30.0,
175400,1867.9,184.7,108.6,253.9,1159.0,3639.0,30.0,
175500,1882.7,153.5,133.4,226.6,1159.0,3639.0,30.0,
175600,1864.2,171.5,152.2,162.1,1159.0,3639.0,30.0,
175700,1839.6,190.0,174.1,93.8,1159.0,3639.0,30.0,
175900,1875.4,31.1,202.6,64.5,1159.0,3639.0,30.0,
176000,1860.1,7.9,202.8,78.1,1159.0,3639.0,30.0,
176100,1862.1,4.5,202.8,95.7,1159.0,3639.0,30.0,
176200,1860.7,6.5,202.8,95.7,1159.0,3639.0,30.0,
176300,1860.4,4.1,190.0,91.8,1159.0,3639.0,30.0,
176400,1861.9,4.5,171.4,60.5,1159.0,3639.0,30.0,
176500,1860.2,6.7,152.9,60.5,1159.0,3639.0,30.0,
176600,1860.5,5.5,134.3,60.5,1159.0,3639.0,30.0,
176700,1860.7,6.0,104.2,60.5,1159.0,3639.0,30.0,
176900,1868.9,107.6,43.6,97.7,1159.0,3639.0,30.0,
177000,1847.8,159.3,77.6,130.9,1159.0,3639.0,30.0,
177100,1841.5,173.9,107.3,113.3,1159.0,3639.0,30.0,
177200,1866.6,163.7,135.0,95.7,768.0,3722.0,12.0,
177300,1851.4,128.3,159.1,95.7,798.0,3260.0,12.0,
177400,1852.5,178.0,180.1,97.7,813.0,3618.0,12.0,
177500,1856.2,25.9,192.7,127.0,813.0,3618.0,12.0,
177600,1861.3,8.7,192.8,128.9,813.0,3618.0,12.0,
177700,1862.5,5.5,192.8,128.9,813.0,3618.0,12.0,
177900,1861.3,4.5,188.1,87.9,813.0,3618.0,12.0,
178000,1861.1,5.4,176.6,60.5,813.0,3618.0,12.0,
178100,1861.6,4.7,160.3,60.5,813.0,3618.0,12.0,
178200,1861.3,3.9,137.8,60.5,813.0,3618.0,12.0,
178300,1860.5,6.3,109.1,60.5,813.0,3618.0,12.0,
178400,1861.2,8.1,69.1,60.5,813.0,3618.0,12.0,
178500,1857.2,66.6,43.8,128.9,813.0,3618.0,12.0,
178600,1851.0,70.5,75.8,158.2,232.0,1455.0,10.0,
178700,1849.8,165.7,106.5,160.2,637.0,2779.0,12.0,
178900,1875.7,181.0,170.1,130.9,996.0,4024.0,30.0,
179000,1889.2,145.3,189.8,128.9,996.0,4024.0,30.0,
179100,1869.4,23.4,198.6,130.9,996.0,4024.0,30.0,
179200,1860.0,8.2,198.6,160.2,996.0,4024.0,30.0,
179300,1862.2,4.9,198.6,128.9,996.0,4024.0,30.0,
179400,1862.4,4.4,198.6,97.7,996.0,4024.0,30.0,
179500,1862.0,4.9,193.9,70.3,996.0,4024.0,30.0,
179600,1861.3,5.1,183.7,58.6,996.0,4024.0,30.0,
179700,1861.4,4.8,167.8,60.5,996.0,4024.0,30.0,
179900,1859.3,6.7,102.8,60.5,996.0,4024.0,30.0,
180000,1861.1,14.7,59.0,60.5,996.0,4024.0,30.0,
180100,1845.3,156.1,61.5,111.3,481.0,2832.0,11.0,
180200,1856.3,149.1,101.7,162.1,667.0,3279.0,11.0,
180300,1874.8,125.5,127.7,160.2,880.0,3449.0,30.0,
180400,1886.6,132.8,149.7,162.1,880.0,3449.0,30.0,
180500,1866.5,157.6,165.1,193.4,880.0,3449.0,30.0,
180600,1848.4,171.3,179.2,193.4,880.0,3449.0,30.0,
180700,1871.1,30.9,190.1,128.9,880.0,3449.0,30.0,
180900,1861.8,5.7,190.1,66.4,880.0,3449.0,30.0,
181000,1861.0,6.3,190.0,66.4,880.0,3449.0,30.0,
181100,1861.9,4.8,180.0,66.4,880.0,3449.0,30.0,
181200,1862.2,4.4,160.7,60.5,880.0,3449.0,30.0,
181300,1861.0,5.1,141.0,60.5,880.0,3449.0,30.0,
181400,1861.0,4.6,117.3,60.5,880.0,3449.0,30.0,
181500,1861.2,4.4,94.4,60.5,880.0,3449.0,30.0,
181600,1861.8,4.2,63.7,60.5,880.0,3449.0,30.0,
181700,1870.0,100.3,39.6,261.7,732.0,1788.0,30.0,
181900,1860.7,128.9,100.3,294.9,732.0,1788.0,30.0,
182000,1866.0,125.7,118.2,257.8,732.0,1788.0,30.0,
182100,1856.1,154.8,139.2,130.9,725.0,3140.0,11.0,
182200,1834.6,174.2,167.0,127.0,803.0,3461.0,12.0,
182300,1860.0,37.2,184.2,128.9,745.0,3215.0,12.0,
182400,1858.6,8.6,184.2,128.9,745.0,3215.0,12.0,
182500,1859.8,6.2,184.2,128.9,745.0,3215.0,12.0,
182600,1861.2,4.5,184.2,128.9,745.0,3215.0,12.0,
182700,1861.3,4.5,180.0,123.0,745.0,3215.0,12.0,
182900,1862.3,4.5,154.6,60.5,745.0,3215.0,12.0,
183000,1862.1,10.3,141.5,60.5,745.0,3215.0,12.0,
183100,1858.9,10.8,120.9,60.5,745.0,3215.0,12.0,
183200,1861.6,10.1,78.2,72.3,745.0,3215.0,12.0,
183300,1860.3,98.5,34.9,76.2,745.0,3215.0,12.0,
183400,1861.4,168.3,73.8,127.0,745.0,3215.0,12.0,
183500,1836.5,167.5,115.9,127.0,700.0,3143.0,11.0,
183600,1836.9,183.7,144.3,127.0,690.0,3175.0,11.0,
183700,1861.9,162.8,170.7,128.9,710.0,3331.0,12.0,
183900,1872.7,51.3,209.8,130.9,738.0,3262.0,12.0,
184000,1856.0,7.1,209.8,160.2,738.0,3262.0,12.0,
184100,1862.6,5.3,209.8,162.1,738.0,3262.0,12.0,
184200,1861.5,4.3,209.7,164.1,738.0,3262.0,12.0,
184300,1862.2,4.4,207.0,160.2,738.0,3262.0,12.0,
184400,1861.9,4.7,196.5,60.5,738.0,3262.0,12.0,
184500,1861.5,4.0,175.1,60.5,738.0,3262.0,12.0,
184600,1860.8,6.5,152.5,60.5,738.0,3262.0,12.0,
184700,1860.5,5.7,122.3,60.5,738.0,3262.0,12.0,
184900,1844.8,125.3,37.5,82.0,323.0,2444.0,13.0,
185000,1856.6,179.1,92.2,158.2,593.0,2976.0,11.0,
185100,1851.0,156.9,133.6,148.4,837.0,4094.0,12.0,
185200,1848.3,193.3,164.4,130.9,813.0,3891.0,11.0,
185300,1844.8,224.4,192.8,128.9,875.0,3742.0,30.0,
185400,1882.5,185.1,216.1,128.9,1207.0,4068.0,30.0,
185500,1890.6,72.3,231.0,160.2,1207.0,4068.0,30.0,
185600,1858.9,10.0,231.2,191.4,1207.0,4068.0,30.0,
185700,1862.1,4.8,231.2,193.4,1207.0,4068.0,30.0,
185900,1860.6,5.0,228.3,95.7,1207.0,4068.0,30.0,
186000,1862.8,4.3,212.1,60.5,1207.0,4068.0,30.0,
186100,1861.1,4.1,188.8,60.5,1207.0,4068.0,30.0,
186200,1861.7,5.1,162.7,60.5,1207.0,4068.0,30.0,
186300,1862.1,4.0,127.8,60.5,1207.0,4068.0,30.0,
186400,1860.8,4.3,82.5,60.5,1207.0,4068.0,30.0,
186500,1861.2,95.8,12.5,60.5,180.0,1346.0,10.0,
186600,1833.1,189.4,92.4,168.0,445.0,2382.0,13.0,
186700,1842.1,186.4,135.5,162.1,848.0,4199.0,12.0,
186900,1880.4,184.4,187.9,130.9,1280.0,4631.0,30.0,
187000,1875.3,171.2,209.7,160.2,1280.0,4631.0,30.0,
187100,1857.1,81.9,222.1,191.4,1280.0,4631.0,30.0,
187200,1879.5,16.1,223.4,162.1,1280.0,4631.0,30.0,
187300,1862.9,5.8,223.5,97.7,1280.0,4631.0,30.0,
187400,1862.4,4.9,223.5,68.4,1280.0,4631.0,30.0,
187500,1862.3,4.4,223.4,66.4,1280.0,4631.0,30.0,
187600,1861.9,5.0,203.5,62.5,1280.0,4631.0,30.0,
187700,1862.5,5.5,177.8,60.5,1280.0,4631.0,30.0,
187900,1861.3,4.8,121.1,60.5,1280.0,4631.0,30.0,
188000,1861.1,5.0,77.5,60.5,1280.0,4631.0,30.0,
188100,1861.2,58.7,25.3,60.5,1280.0,4631.0,30.0,
188200,1851.9,164.7,85.2,189.5,480.0,2621.0,13.0,
188300,1841.9,189.1,131.7,189.5,1018.0,3920.0,30.0,
188400,1871.7,199.6,163.4,164.1,1305.0,4483.0,30.0,
188500,1900.7,165.3,183.9,162.1,1305.0,4483.0,30.0,
188600,1867.6,153.2,197.7,191.4,1305.0,4483.0,30.0,
188700,1856.7,114.8,213.1,142.6,788.0,3676.0,12.0,
188900,1862.1,5.6,218.5,93.8,788.0,3676.0,12.0,
189000,1863.1,4.6,218.5,93.8,788.0,3676.0,12.0,
189100,1862.0,4.3,218.5,89.8,788.0,3676.0,12.0,
189200,1863.0,4.6,201.3,62.5,788.0,3676.0,12.0,
189300,1861.3,4.5,174.4,60.5,788.0,3676.0,12.0,
189400,1860.9,4.5,145.2,60.5,788.0,3676.0,12.0,
189500,1861.2,5.3,118.2,60.5,788.0,3676.0,12.0,
189600,1860.7,4.4,93.1,60.5,788.0,3676.0,12.0,
189700,1862.1,87.6,48.5,60.5,788.0,3676.0,12.0,
189900,1891.3,162.6,124.0,230.5,1219.0,4399.0,30.0,
190000,1877.2,165.5,144.9,226.6,1219.0,4399.0,30.0,
190100,1845.4,180.7,163.2,224.6,1219.0,4399.0,30.0,
190200,1862.3,172.8,182.0,160.2,1219.0,4399.0,30.0,
190300,1854.4,152.0,201.5,97.7,695.0,3430.0,12.0,
190400,1855.3,16.2,208.4,117.2,695.0,3430.0,12.0,
190500,1861.3,5.4,208.4,128.9,695.0,3430.0,12.0,
190600,1863.1,4.0,208.4,128.9,695.0,3430.0,12.0,
190700,1862.8,5.3,208.4,127.0,695.0,3430.0,12.0,
190900,1861.4,3.7,167.5,60.5,695.0,3430.0,12.0,
191000,1860.8,5.7,149.9,60.5,695.0,3430.0,12.0,
191100,1861.3,4.9,129.7,60.5,695.0,3430.0,12.0,
191200,1861.5,4.6,101.6,60.5,695.0,3430.0,12.0,
191300,1860.6,64.5,53.5,60.5,695.0,3430.0,12.0,
191400,1882.9,140.7,78.6,318.4,816.0,2640.0,30.0,
191500,1884.1,134.9,103.3,320.3,816.0,2640.0,30.0,
191600,1870.8,148.9,123.8,291.0,816.0,2640.0,30.0,
191700,1855.2,175.7,149.2,226.6,639.0,3225.0,12.0,
191900,1836.5,198.5,208.5,97.7,762.0,3569.0,12.0,
192000,1866.5,34.8,217.8,128.9,762.0,3569.0,12.0,
192100,1865.2,5.4,218.0,128.9,762.0,3569.0,12.0,
192200,1861.7,5.2,218.0,128.9,762.0,3569.0,12.0,
192300,1864.0,4.7,218.0,115.2,762.0,3569.0,12.0,
192400,1863.7,4.2,203.4,68.4,762.0,3569.0,12.0,
192500,1861.9,4.3,192.1,60.5,762.0,3569.0,12.0,
192600,1860.9,4.2,179.5,60.5,762.0,3569.0,12.0,
192700,1860.3,5.0,159.0,60.5,762.0,3569.0,12.0,
192900,1860.6,5.8,64.0,60.5,762.0,3569.0,12.0,
193000,1871.7,123.4,45.1,166.0,762.0,3569.0,12.0,
193100,1847.8,200.3,86.5,164.1,762.0,3569.0,12.0,
193200,1838.1,199.5,125.1,130.9,776.0,4273.0,12.0,
193300,1860.1,163.8,158.0,128.9,772.0,3404.0,12.0,
193400,1848.2,170.9,184.1,128.9,726.0,3366.0,10.0,
193500,1838.5,171.9,207.6,128.9,781.0,3461.0,12.0,
193600,1865.9,18.0,215.5,128.9,781.0,3461.0,12.0,
193700,1860.7,4.8,215.4,128.9,781.0,3461.0,12.0,
193900,1863.0,4.3,215.4,97.7,781.0,3461.0,12.0,
194000,1862.2,3.9,211.0,74.2,781.0,3461.0,12.0,
194100,1862.1,4.5,197.4,60.5,781.0,3461.0,12.0,
194200,1861.4,5.0,175.5,60.5,781.0,3461.0,12.0,
194300,1860.7,12.3,146.6,60.5,781.0,3461.0,12.0,
194400,1859.7,13.9,112.3,60.5,781.0,3461.0,12.0,
194500,1859.7,30.1,58.6,60.5,781.0,3461.0,12.0,
194600,1852.8,119.5,65.2,84.0,450.0,1943.0,11.0,
194700,1848.7,141.4,105.9,158.2,635.0,2968.0,11.0,
194900,1847.5,165.4,155.8,160.2,698.0,2990.0,10.0,
195000,1892.1,142.1,172.5,162.1,698.0,2990.0,10.0,
195100,1891.3,113.9,187.6,160.2,698.0,2990.0,10.0,
195200,1871.4,19.0,193.1,162.1,698.0,2990.0,10.0,
195300,1859.7,5.2,193.1,193.4,698.0,2990.0,10.0,
195400,1863.2,4.1,193.0,191.4,698.0,2990.0,10.0,
195500,1862.3,4.6,192.9,158.2,698.0,2990.0,10.0,
195600,1861.5,4.2,181.9,89.8,698.0,2990.0,10.0,
195700,1861.7,4.5,161.6,60.5,698.0,2990.0,10.0,
195900,1861.1,4.4,114.3,60.5,698.0,2990.0,10.0,
196000,1860.7,4.0,87.2,60.5,698.0,2990.0,10.0,
196100,1860.2,5.1,46.3,60.5,698.0,2990.0,10.0,
196200,1846.0,88.7,62.0,189.5,167.0,1034.0,10.0,
196300,1855.5,89.8,96.8,195.3,260.0,1520.0,9.0,
196400,1861.1,87.9,117.2,193.4,371.0,1862.0,30.0,
196500,1882.8,135.3,135.2,193.4,371.0,1862.0,30.0,
196600,1878.6,145.5,151.0,193.4,371.0,1862.0,30.0,
196700,1866.0,141.1,162.1,224.6,371.0,1862.0,30.0,
196900,1859.6,5.2,171.9,97.7,371.0,1862.0,30.0,
197000,1863.0,4.8,171.9,95.7,371.0,1862.0,30.0,
197100,1862.3,4.3,171.9,95.7,371.0,1862.0,30.0,
197200,1863.7,4.3,160.4,80.1,371.0,1862.0,30.0,
197300,1861.8,4.3,142.1,60.5,371.0,1862.0,30.0,
197400,1860.8,4.5,125.9,60.5,371.0,1862.0,30.0,
197500,1860.5,4.2,106.3,60.5,371.0,1862.0,30.0,
197600,1860.8,6.4,82.4,60.5,371.0,1862.0,30.0,
197700,1860.3,5.8,57.6,60.5,371.0,1862.0,30.0,
197900,1868.7,160.5,83.4,201.2,371.0,1862.0,30.0,
198000,1886.6,152.4,112.4,224.6,371.0,1862.0,30.0,
198100,1888.7,122.1,128.3,226.6,371.0,1862.0,30.0,
198200,1867.1,158.7,142.2,224.6,697.0,3438.0,12.0,
198300,1832.3,180.8,166.7,128.9,671.0,3179.0,13.0,
198400,1858.0,47.6,184.4,95.7,876.0,3606.0,12.0,
198500,1857.5,10.8,184.7,127.0,876.0,3606.0,12.0,
198600,1862.1,4.9,184.7,128.9,876.0,3606.0,12.0,
198700,1862.3,5.1,184.7,128.9,876.0,3606.0,12.0,
198900,1861.0,5.3,164.9,60.5,876.0,3606.0,12.0,
199000,1861.4,4.2,146.7,60.5,876.0,3606.0,12.0,
199100,1861.7,4.4,133.0,60.5,876.0,3606.0,12.0,
199200,1862.8,4.7,118.0,60.5,876.0,3606.0,12.0,
199300,1861.0,4.9,79.6,60.5,876.0,3606.0,12.0,
199400,1867.1,80.5,39.8,240.2,876.0,3606.0,12.0,
199500,1893.9,136.2,81.4,318.4,876.0,3606.0,12.0,
199600,1857.4,138.5,102.3,289.1,876.0,3606.0,12.0,
199700,1843.1,165.0,123.6,195.3,876.0,3606.0,12.0,
199900,1847.3,156.8,172.3,127.0,644.0,2900.0,13.0,
200000,1848.8,43.6,192.1,130.9,685.0,3039.0,13.0,
200100,1857.7,7.8,192.1,160.2,685.0,3039.0,13.0,
200200,1861.7,8.7,192.1,160.2,685.0,3039.0,13.0,
200300,1860.7,6.1,192.1,158.2,685.0,3039.0,13.0,
200400,1861.6,6.3,188.4,132.8,685.0,3039.0,13.0,
200500,1861.8,5.3,174.2,89.8,685.0,3039.0,13.0,
200600,1860.8,7.0,162.8,89.8,685.0,3039.0,13.0,
200700,1861.1,6.0,147.2,60.5,685.0,3039.0,13.0,
200900,1861.6,27.9,85.6,60.5,685.0,3039.0,13.0,
201000,1847.3,131.3,26.6,58.6,685.0,3039.0,13.0,
201100,1872.8,145.3,66.6,66.4,685.0,3039.0,13.0,
201200,1856.3,168.3,102.2,93.8,731.0,3454.0,14.0,
201300,1845.1,181.3,133.5,95.7,692.0,3268.0,14.0,
201400,1821.8,174.0,167.3,97.7,727.0,3371.0,14.0,
201500,1854.2,153.3,187.6,128.9,697.0,3214.0,14.0,
201600,1868.1,53.7,202.9,160.2,712.0,3185.0,13.0,
201700,1857.6,8.6,203.0,160.2,712.0,3185.0,13.0,
201900,1859.9,7.2,202.8,128.9,712.0,3185.0,13.0,
202000,1861.2,9.3,201.4,95.7,712.0,3185.0,13.0,
202100,1861.8,6.3,192.0,60.5,712.0,3185.0,13.0,
202200,1859.5,6.2,175.6,60.5,712.0,3185.0,13.0,
202300,1860.2,6.8,153.1,68.4,712.0,3185.0,13.0,
202400,1861.6,9.5,115.3,64.5,712.0,3185.0,13.0,
202500,1862.3,22.2,78.1,60.5,712.0,3185.0,13.0,
202600,1859.5,130.4,13.3,66.4,420.0,2535.0,11.0,
202700,1830.6,155.9,92.5,138.7,533.0,2743.0,13.0,
202900,1856.2,125.5,151.2,160.2,600.0,3079.0,13.0,
203000,1854.3,131.6,170.0,160.2,556.0,3299.0,13.0,
203100,1867.9,147.9,185.4,162.1,556.0,3299.0,13.0,
203200,1883.5,64.4,199.2,162.1,556.0,3299.0,13.0,
203300,1873.2,13.9,199.7,193.4,556.0,3299.0,13.0,
203400,1852.7,11.0,199.7,226.6,556.0,3299.0,13.0,
203500,1864.0,8.1,199.7,255.9,556.0,3299.0,13.0,
203600,1861.7,8.7,199.5,228.5,556.0,3299.0,13.0,
203700,1863.5,6.1,177.2,72.3,556.0,3299.0,13.0,
203900,1860.3,7.7,130.9,74.2,556.0,3299.0,13.0,
204000,1861.1,6.0,105.3,64.5,556.0,3299.0,13.0,
204100,1860.7,7.8,75.0,66.4,556.0,3299.0,13.0,
204200,1860.9,72.3,18.4,66.4,556.0,3299.0,13.0,
204300,1851.0,153.9,84.6,164.1,658.0,3180.0,13.0,
204400,1836.6,169.3,125.0,160.2,741.0,3445.0,12.0,
204500,1850.2,169.3,151.1,156.3,770.0,3948.0,12.0,
204600,1890.3,144.9,171.0,128.9,795.0,3795.0,30.0,
204700,1890.7,132.6,186.2,128.9,795.0,3795.0,30.0,
204900,1868.0,15.6,198.3,130.9,795.0,3795.0,30.0,
205000,1862.2,7.3,198.4,68.4,795.0,3795.0,30.0,
205100,1862.2,4.3,198.4,64.5,795.0,3795.0,30.0,
205200,1861.9,5.4,198.3,64.5,795.0,3795.0,30.0,
205300,1861.8,5.0,179.7,68.4,795.0,3795.0,30.0,
205400,1861.2,5.8,154.4,60.5,795.0,3795.0,30.0,
205500,1859.3,5.9,128.9,60.5,795.0,3795.0,30.0,
205600,1860.2,10.7,101.1,60.5,795.0,3795.0,30.0,
205700,1860.6,9.2,69.3,60.5,795.0,3795.0,30.0,
205900,1850.5,151.8,86.2,136.7,738.0,3678.0,13.0,
206000,1858.1,189.1,120.0,140.6,933.0,5001.0,30.0,
206100,1865.6,181.0,148.6,128.9,933.0,5001.0,30.0,
206200,1877.5,175.9,168.7,99.6,933.0,5001.0,30.0,
206300,1896.1,142.2,181.8,97.7,933.0,5001.0,30.0,
206400,1865.8,124.9,193.0,97.7,933.0,5001.0,30.0,
206500,1854.9,12.1,197.4,95.7,933.0,5001.0,30.0,
206600,1862.4,4.8,197.4,64.5,933.0,5001.0,30.0,
206700,1862.1,4.2,197.4,64.5,933.0,5001.0,30.0,
206900,1862.2,4.3,177.8,60.5,933.0,5001.0,30.0,
207000,1861.1,5.1,156.8,60.5,933.0,5001.0,30.0,
207100,1861.6,5.1,130.1,60.5,933.0,5001.0,30.0,
207200,1861.7,4.3,102.7,60.5,933.0,5001.0,30.0,
207300,1861.3,4.1,77.1,60.5,933.0,5001.0,30.0,
207400,1860.9,45.5,41.9,60.5,933.0,5001.0,30.0,
207500,1841.2,151.7,67.7,191.4,558.0,3212.0,13.0,
207600,1878.5,178.0,104.4,191.4,798.0,4116.0,30.0,
207700,1898.0,150.2,133.5,162.1,798.0,4116.0,30.0,
207900,1847.4,192.3,166.8,97.7,798.0,4116.0,30.0,
208000,1847.2,174.9,188.4,66.4,837.0,3601.0,13.0,
208100,1863.8,18.6,196.2,64.5,810.0,3475.0,13.0,
208200,1861.5,5.0,196.2,95.7,810.0,3475.0,13.0,
208300,1862.1,4.7,196.2,97.7,810.0,3475.0,13.0,
208400,1861.7,4.1,196.2,97.7,810.0,3475.0,13.0,
208500,1862.6,5.1,184.3,70.3,810.0,3475.0,13.0,
208600,1861.3,5.9,166.2,60.5,810.0,3475.0,13.0,
208700,1861.0,3.9,144.0,60.5,810.0,3475.0,13.0,
208900,1861.0,6.6,103.5,60.5,810.0,3475.0,13.0,
209000,1861.1,7.7,55.1,60.5,810.0,3475.0,13.0,
209100,1883.9,132.0,52.6,291.0,810.0,3475.0,13.0,
209200,1875.5,150.0,84.2,293.0,810.0,3475.0,13.0,
209300,1857.2,167.4,107.4,257.8,810.0,3475.0,13.0,
209400,1862.1,148.9,131.9,160.2,710.0,3325.0,13.0,
209500,1846.0,160.7,158.3,78.1,725.0,3267.0,12.0,
209600,1831.0,165.8,186.6,97.7,745.0,3197.0,13.0,
209700,1862.1,17.0,195.4,128.9,720.0,3057.0,12.0,
209900,1860.4,4.6,195.4,130.9,720.0,3057.0,12.0,
210000,1859.2,4.6,195.4,128.9,720.0,3057.0,12.0,
210100,1861.1,4.7,188.3,103.5,720.0,3057.0,12.0,
210200,1861.3,7.2,176.4,60.5,720.0,3057.0,12.0,
210300,1863.8,5.4,163.4,60.5,720.0,3057.0,12.0,
210400,1862.4,5.5,144.3,60.5,720.0,3057.0,12.0,
210500,1861.2,8.1,114.7,60.5,720.0,3057.0,12.0,
210600,1860.9,10.4,58.3,60.5,720.0,3057.0,12.0,
210700,1862.1,124.5,40.8,62.5,720.0,3057.0,12.0,
210900,1825.6,195.8,134.8,64.5,897.0,4505.0,13.0,
211000,1830.6,207.7,166.6,64.5,847.0,4030.0,13.0,
211100,1867.2,150.4,191.4,95.7,833.0,3717.0,12.0,
211200,1857.0,156.1,208.1,99.6,792.0,3351.0,12.0,
211300,1860.5,22.6,217.8,128.9,792.0,3351.0,12.0,
211400,1860.2,5.6,217.8,99.6,792.0,3351.0,12.0,
211500,1861.2,4.1,217.8,95.7,792.0,3351.0,12.0,
211600,1859.8,4.4,217.8,70.3,792.0,3351.0,12.0,
211700,1860.3,4.3,214.0,68.4,792.0,3351.0,12.0,
211900,1860.8,5.2,171.2,60.5,792.0,3351.0,12.0,
212000,1861.3,4.7,140.4,60.5,792.0,3351.0,12.0,
212100,1861.5,4.4,104.2,60.5,792.0,3351.0,12.0,
212200,1860.4,9.3,64.7,60.5,792.0,3351.0,12.0,
212300,1845.6,96.4,58.0,156.3,175.0,1242.0,11.0,
212400,1851.6,127.3,99.0,164.1,403.0,2108.0,13.0,
212500,1850.6,169.7,132.8,164.1,775.0,3857.0,13.0,
212600,1853.7,175.7,159.3,162.1,822.0,4001.0,13.0,
212700,1848.4,213.7,181.8,160.2,783.0,4135.0,13.0,
212900,1883.7,30.3,208.8,97.7,783.0,4135.0,13.0,
213000,1860.1,8.9,208.9,97.7,783.0,4135.0,13.0,
213100,1862.0,5.7,208.9,95.7,783.0,4135.0,13.0,
213200,1863.4,6.9,208.9,68.4,783.0,4135.0,13.0,
213300,1856.6,4.8,200.8,66.4,783.0,4135.0,13.0,
213400,1860.3,5.3,184.0,60.5,783.0,4135.0,13.0,
213500,1862.2,6.3,161.4,60.5,783.0,4135.0,13.0,
213600,1862.9,5.5,135.3,60.5,783.0,4135.0,13.0,
213700,1862.9,5.6,103.2,60.5,783.0,4135.0,13.0,
213900,1859.6,119.8,44.2,130.9,323.0,1928.0,13.0,
214000,1831.3,178.6,95.2,189.5,701.0,3682.0,13.0,
214100,1865.9,154.2,125.1,162.1,774.0,3581.0,13.0,
214200,1887.0,134.5,145.3,130.9,774.0,3581.0,13.0,
214300,1892.6,142.3,163.5,99.6,774.0,3581.0,13.0,
214400,1870.0,155.2,175.9,127.0,774.0,3581.0,13.0,
214500,1866.6,31.8,187.0,97.7,774.0,3581.0,13.0,
214600,1857.7,8.3,187.0,66.4,774.0,3581.0,13.0,
214700,1861.6,5.9,187.0,64.5,774.0,3581.0,13.0,
214900,1861.0,4.5,181.9,62.5,774.0,3581.0,13.0,
215000,1862.4,5.3,161.1,60.5,774.0,3581.0,13.0,
215100,1861.1,4.0,139.1,60.5,774.0,3581.0,13.0,
215200,1860.5,4.6,118.0,60.5,774.0,3581.0,13.0,
215300,1861.0,4.8,91.1,60.5,774.0,3581.0,13.0,
215400,1861.6,4.2,63.8,60.5,774.0,3581.0,13.0,
215500,1858.7,56.5,45.4,146.5,156.0,1095.0,10.0,
215600,1855.0,89.7,84.4,197.3,515.0,1324.0,30.0,
215700,1866.4,103.0,110.6,197.3,515.0,1324.0,30.0,
215900,1880.9,68.3,134.3,259.8,515.0,1324.0,30.0,
216000,1861.2,99.8,142.1,291.0,515.0,1324.0,30.0,
216100,1850.2,28.7,157.4,257.8,219.0,1155.0,9.0,
216200,1858.7,5.7,157.4,162.1,219.0,1155.0,9.0,
216300,1863.0,3.7,157.4,162.1,219.0,1155.0,9.0,
216400,1862.1,4.0,157.4,162.1,219.0,1155.0,9.0,
216500,1860.9,4.9,150.9,162.1,219.0,1155.0,9.0,
216600,1861.6,4.7,133.0,60.5,219.0,1155.0,9.0,
216700,1862.5,5.2,112.2,60.5,219.0,1155.0,9.0,
216900,1860.6,9.8,82.4,60.5,219.0,1155.0,9.0,
217000,1860.2,8.4,68.2,68.4,219.0,1155.0,9.0,
217100,1866.9,70.0,33.0,80.1,219.0,1155.0,9.0,
217200,1895.8,82.5,66.6,300.8,219.0,1155.0,9.0,
217300,1872.4,98.0,80.5,320.3,219.0,1155.0,9.0,
217400,1841.8,133.6,104.9,291.0,506.0,2418.0,13.0,
217500,1838.9,152.3,133.3,195.3,421.0,2043.0,10.0,
217600,1855.6,123.9,160.7,160.2,537.0,2369.0,10.0,
217700,1850.3,46.2,180.9,160.2,532.0,2182.0,10.0,
217900,1862.6,4.5,180.9,162.1,532.0,2182.0,10.0,
218000,1863.0,4.4,180.9,164.1,532.0,2182.0,10.0,
218100,1861.9,4.7,178.0,162.1,532.0,2182.0,10.0,
218200,1861.2,4.4,168.4,60.5,532.0,2182.0,10.0,
218300,1861.0,5.2,162.2,60.5,532.0,2182.0,10.0,
218400,1861.7,4.3,147.6,60.5,532.0,2182.0,10.0,
218500,1860.8,5.0,122.5,60.5,532.0,2182.0,10.0,
218600,1860.3,5.8,83.5,60.5,532.0,2182.0,10.0,
218700,1850.0,79.6,25.1,60.5,532.0,2182.0,10.0,
218900,1852.0,113.3,109.8,156.3,398.0,2013.0,13.0,
219000,1843.8,93.2,136.6,160.2,271.0,1257.0,9.0,
219100,1846.9,139.4,159.3,162.1,635.0,2728.0,12.0,
219200,1844.4,149.2,178.2,162.1,649.0,3072.0,12.0,
219300,1884.1,60.0,192.1,162.1,649.0,3072.0,12.0,
219400,1864.9,7.1,192.3,162.1,649.0,3072.0,12.0,
219500,1862.0,4.7,192.3,164.1,649.0,3072.0,12.0,
219600,1862.0,4.1,192.3,193.4,649.0,3072.0,12.0,
219700,1862.3,3.9,190.8,191.4,649.0,3072.0,12.0,
219900,1861.8,5.4,158.0,60.5,649.0,3072.0,12.0,
220000,1860.6,4.6,135.6,60.5,649.0,3072.0,12.0,
220100,1860.7,4.8,108.0,60.5,649.0,3072.0,12.0,
220200,1861.4,5.5,72.5,60.5,649.0,3072.0,12.0,
220300,1861.0,45.0,11.6,60.5,649.0,3072.0,12.0,
220400,1847.7,93.5,79.6,191.4,172.0,807.0,10.0,
220500,1835.4,97.6,117.2,193.4,227.0,1090.0,9.0,
220600,1863.3,91.5,133.6,193.4,267.0,1409.0,9.0,
220700,1880.7,122.4,149.5,193.4,267.0,1409.0,9.0,
220900,1866.3,71.7,176.3,224.6,267.0,1409.0,9.0,
221000,1866.2,8.9,178.1,193.4,267.0,1409.0,9.0,
221100,1862.8,4.2,178.1,97.7,267.0,1409.0,9.0,
221200,1862.6,4.4,178.1,95.7,267.0,1409.0,9.0,
221300,1861.7,4.8,178.1,85.9,267.0,1409.0,9.0,
221400,1861.0,4.9,159.4,60.5,267.0,1409.0,9.0,
221500,1862.8,4.7,134.2,60.5,267.0,1409.0,9.0,
221600,1862.0,4.7,117.9,60.5,267.0,1409.0,9.0,
221700,1861.2,3.8,96.9,60.5,267.0,1409.0,9.0,
221900,1860.8,48.4,25.5,58.6,267.0,1409.0,9.0,
222000,1863.0,80.2,64.0,210.9,368.0,1737.0,30.0,
222100,1881.7,123.8,92.2,224.6,368.0,1737.0,30.0,
222200,1886.8,125.0,114.3,228.5,368.0,1737.0,30.0,
222300,1856.9,144.8,130.2,257.8,647.0,2862.0,10.0,
222400,1857.2,129.9,152.5,224.6,567.0,2722.0,12.0,
222500,1844.8,103.2,176.1,128.9,574.0,2432.0,12.0,
222600,1851.3,10.0,183.5,128.9,574.0,2432.0,12.0,
222700,1861.9,4.7,183.5,160.2,574.0,2432.0,12.0,
222900,1862.0,4.4,183.5,158.2,574.0,2432.0,12.0,
223000,1862.3,4.0,172.0,130.9,574.0,2432.0,12.0,
223100,1861.3,4.5,158.7,60.5,574.0,2432.0,12.0,
223200,1862.0,4.5,143.6,60.5,574.0,2432.0,12.0,
223300,1861.2,4.9,129.4,60.5,574.0,2432.0,12.0,
223400,1861.3,4.8,102.2,60.5,574.0,2432.0,12.0,
223500,1861.3,49.3,52.0,60.5,574.0,2432.0,12.0,
223600,1888.3,72.6,55.9,320.3,574.0,2432.0,12.0,
223700,1875.1,99.3,69.6,322.3,574.0,2432.0,12.0,
223900,1830.0,155.2,129.6,191.4,508.0,2270.0,12.0,
224000,1833.3,152.2,158.1,128.9,582.0,2694.0,12.0,
224100,1861.5,131.0,180.2,130.9,584.0,2812.0,10.0,
224200,1856.5,12.6,186.3,160.2,570.0,2493.0,12.0,
224300,1862.6,6.1,186.3,162.1,570.0,2493.0,12.0,
224400,1863.2,3.8,186.3,160.2,570.0,2493.0,12.0,
224500,1863.0,4.4,186.3,158.2,570.0,2493.0,12.0,
224600,1862.7,4.7,177.8,115.2,570.0,2493.0,12.0,
224700,1861.9,4.2,172.8,60.5,570.0,2493.0,12.0,
224900,1861.5,4.5,133.9,60.5,570.0,2493.0,12.0,
225000,1861.7,4.1,98.6,60.5,570.0,2493.0,12.0,
225100,1861.7,26.2,47.3,60.5,570.0,2493.0,12.0,
225200,1861.3,80.6,41.7,132.8,570.0,2493.0,12.0,
225300,1845.8,104.7,75.5,134.8,262.0,1203.0,10.0,
225400,1846.9,133.7,110.6,132.8,372.0,2043.0,10.0,
225500,1849.0,128.9,141.8,160.2,616.0,2985.0,12.0,
225600,1844.3,154.6,167.5,162.1,667.0,2878.0,12.0,
225700,1840.2,155.9,189.1,162.1,608.0,2662.0,10.0,
225900,1861.4,4.6,195.2,160.2,608.0,2662.0,10.0,
226000,1863.2,4.7,195.2,158.2,608.0,2662.0,10.0,
226100,1862.5,4.9,195.2,132.8,608.0,2662.0,10.0,
226200,1863.5,4.1,190.7,107.4,608.0,2662.0,10.0,
226300,1862.7,6.8,180.1,60.5,608.0,2662.0,10.0,
226400,1862.1,5.1,160.9,60.5,608.0,2662.0,10.0,
226500,1861.3,5.5,134.3,60.5,608.0,2662.0,10.0,
226600,1861.9,5.1,100.4,60.5,608.0,2662.0,10.0,
226700,1862.8,6.1,48.7,60.5,608.0,2662.0,10.0,
226900,1844.6,202.2,111.3,158.2,756.0,3996.0,12.0,
227000,1820.9,214.6,161.8,158.2,790.0,3872.0,12.0,
227100,1844.6,199.6,192.4,130.9,807.0,3991.0,12.0,
227200,1868.3,162.6,215.3,128.9,801.0,3641.0,12.0,
227300,1878.9,184.1,232.0,128.9,1137.0,4355.0,30.0,
227400,1875.9,23.8,243.4,128.9,1137.0,4355.0,30.0,
227500,1860.3,5.0,243.4,160.2,1137.0,4355.0,30.0,
227600,1863.6,5.4,243.4,162.1,1137.0,4355.0,30.0,
227700,1862.9,4.6,243.4,160.2,1137.0,4355.0,30.0,
227900,1862.8,4.2,216.6,60.5,1137.0,4355.0,30.0,
228000,1861.8,6.1,182.0,60.5,1137.0,4355.0,30.0,
228100,1861.5,4.4,149.3,60.5,1137.0,4355.0,30.0,
228200,1861.9,5.0,113.9,60.5,1137.0,4355.0,30.0,
228300,1861.5,10.3,74.0,60.5,1137.0,4355.0,30.0,
228400,1842.6,155.4,76.2,168.0,397.0,2337.0,11.0,
228500,1854.3,166.9,126.4,168.0,753.0,4006.0,13.0,
228600,1856.9,183.0,158.0,162.1,798.0,4190.0,12.0,
228700,1860.4,204.5,184.7,160.2,1026.0,4224.0,30.0,
228900,1895.7,167.4,219.9,130.9,1026.0,4224.0,30.0,
229000,1863.7,27.0,228.6,128.9,1026.0,4224.0,30.0,
229100,1859.5,5.8,228.6,95.7,1026.0,4224.0,30.0,
229200,1863.6,4.1,228.6,66.4,1026.0,4224.0,30.0,
229300,1864.0,4.8,228.6,64.5,1026.0,4224.0,30.0,
229400,1863.7,5.7,215.6,62.5,1026.0,4224.0,30.0,
229500,1862.6,5.1,190.5,60.5,1026.0,4224.0,30.0,
229600,1862.2,8.1,165.3,60.5,1026.0,4224.0,30.0,
229700,1861.2,7.8,134.8,60.5,1026.0,4224.0,30.0,
229900,1861.5,6.6,62.9,58.6,1026.0,4224.0,30.0,
230000,1849.9,164.4,68.1,140.6,545.0,3374.0,11.0,
230100,1854.2,213.9,112.8,164.1,949.0,4751.0,30.0,
230200,1906.0,190.6,147.1,160.2,1129.0,4884.0,30.0,
230300,1894.5,152.0,168.8,158.2,1129.0,4884.0,30.0,
230400,1866.8,190.9,181.7,158.2,1129.0,4884.0,30.0,
230500,1829.0,213.1,204.3,97.7,786.0,3878.0,13.0,
230600,1867.3,42.8,221.4,97.7,802.0,4698.0,13.0,
230700,1859.5,6.8,221.4,127.0,802.0,4698.0,13.0,
230900,1863.2,4.7,221.4,127.0,802.0,4698.0,13.0,
231000,1864.0,4.5,210.8,103.5,802.0,4698.0,13.0,
231100,1862.3,4.5,190.6,60.5,802.0,4698.0,13.0,
231200,1862.0,4.6,165.6,60.5,802.0,4698.0,13.0,
231300,1862.2,5.2,143.4,60.5,802.0,4698.0,13.0,
231400,1861.3,4.6,126.7,60.5,802.0,4698.0,13.0,
231500,1861.7,6.1,85.5,60.5,802.0,4698.0,13.0,
231600,1870.0,104.8,42.5,207.0,746.0,2523.0,30.0,
231700,1894.7,181.2,89.5,293.0,746.0,2523.0,30.0,
231900,1868.8,194.2,146.6,253.9,746.0,2523.0,30.0,
232000,1857.0,171.7,173.5,97.7,826.0,3950.0,13.0,
232100,1844.6,195.5,201.2,66.4,821.0,3779.0,13.0,
232200,1842.4,47.4,227.2,97.7,839.0,3730.0,13.0,
232300,1857.2,6.6,227.2,128.9,839.0,3730.0,13.0,
232400,1863.4,4.8,227.2,130.9,839.0,3730.0,13.0,
232500,1862.7,4.0,227.2,130.9,839.0,3730.0,13.0,
232600,1864.0,4.1,223.3,123.0,839.0,3730.0,13.0,
232700,1862.0,4.5,208.9,60.5,839.0,3730.0,13.0,
232900,1861.7,4.5,173.7,60.5,839.0,3730.0,13.0,
233000,1861.7,5.4,146.8,60.5,839.0,3730.0,13.0,
233100,1861.9,4.8,105.7,60.5,839.0,3730.0,13.0,
233200,1860.4,137.4,32.6,64.5,839.0,3730.0,13.0,
233300,1863.7,176.1,86.0,125.0,839.0,3730.0,13.0,
233400,1845.1,209.8,131.9,99.6,780.0,4073.0,13.0,
233500,1821.5,219.5,177.8,97.7,874.0,4205.0,13.0,
233600,1831.5,213.0,208.7,127.0,834.0,3948.0,13.0,
233700,1868.2,175.1,233.1,128.9,830.0,3920.0,13.0,
233900,1856.5,9.5,251.7,128.9,830.0,3920.0,13.0,
234000,1863.9,6.3,251.7,127.0,830.0,3920.0,13.0,
234100,1863.0,4.6,251.7,97.7,830.0,3920.0,13.0,
234200,1863.3,4.2,249.7,91.8,830.0,3920.0,13.0,
234300,1861.9,4.3,236.7,60.5,830.0,3920.0,13.0,
234400,1862.2,3.8,214.5,60.5,830.0,3920.0,13.0,
234500,1860.9,5.6,178.3,60.5,830.0,3920.0,13.0,
234600,1861.6,4.9,140.9,60.5,830.0,3920.0,13.0,
234700,1861.2,5.0,95.2,60.5,830.0,3920.0,13.0,
234900,1838.0,188.6,97.4,162.1,497.0,2840.0,11.0,
235000,1856.1,170.2,141.1,160.2,608.0,3388.0,13.0,
235100,1848.0,191.1,173.4,160.2,692.0,3899.0,10.0,
235200,1836.3,174.8,202.1,160.2,732.0,3191.0,10.0,
235300,1854.3,201.8,220.8,160.2,1021.0,4043.0,30.0,
235400,1905.0,80.4,239.0,160.2,1021.0,4043.0,30.0,
235500,1862.7,9.3,239.3,160.2,1021.0,4043.0,30.0,
235600,1861.1,4.5,239.3,162.1,1021.0,4043.0,30.0,
235700,1861.6,4.1,239.3,191.4,1021.0,4043.0,30.0,
235900,1863.4,4.5,218.6,60.5,1021.0,4043.0,30.0,
236000,1861.3,4.0,193.3,60.5,1021.0,4043.0,30.0,
236100,1860.9,4.0,164.9,60.5,1021.0,4043.0,30.0,
236200,1861.8,3.9,128.1,60.5,1021.0,4043.0,30.0,
236300,1861.4,5.2,92.3,60.5,1021.0,4043.0,30.0,
236400,1861.3,99.8,13.0,60.5,164.0,1267.0,11.0,
236500,1832.4,150.6,101.6,193.4,218.0,1294.0,10.0,
236600,1841.9,214.1,137.9,193.4,806.0,4365.0,13.0,
236700,1888.1,186.0,166.6,164.1,829.0,4423.0,30.0,
236900,1889.0,165.5,204.2,160.2,829.0,4423.0,30.0,
237000,1852.1,95.8,219.1,162.1,829.0,4423.0,30.0,
237100,1871.6,11.2,221.3,97.7,829.0,4423.0,30.0,
237200,1862.6,4.5,221.4,66.4,829.0,4423.0,30.0,
237300,1861.5,4.4,221.4,64.5,829.0,4423.0,30.0,
237400,1862.0,5.6,221.4,64.5,829.0,4423.0,30.0,
237500,1862.0,6.4,196.7,64.5,829.0,4423.0,30.0,
237600,1862.6,6.6,173.3,60.5,829.0,4423.0,30.0,
237700,1861.4,4.4,145.8,62.5,829.0,4423.0,30.0,
237900,1861.1,4.7,85.8,66.4,829.0,4423.0,30.0,
238000,1860.3,67.5,32.5,76.2,829.0,4423.0,30.0,
238100,1864.3,107.4,74.4,214.8,486.0,2643.0,30.0,
238200,1878.4,206.8,111.3,224.6,933.0,4018.0,30.0,
238300,1890.1,186.8,145.0,224.6,933.0,4018.0,30.0,
238400,1867.4,183.1,161.7,224.6,933.0,4018.0,30.0,
238500,1871.0,170.1,183.0,162.1,799.0,3990.0,14.0,
238600,1845.9,141.5,208.7,95.7,838.0,3981.0,14.0,
238700,1849.0,12.3,217.6,95.7,838.0,3981.0,14.0,
238900,1860.5,10.5,217.6,123.0,838.0,3981.0,14.0,
239000,1862.0,8.0,217.6,103.5,838.0,3981.0,14.0,
239100,1863.4,8.3,204.7,87.9,838.0,3981.0,14.0,
239200,1862.5,5.9,187.2,84.0,838.0,3981.0,14.0,
239300,1861.9,10.2,162.5,68.4,838.0,3981.0,14.0,
239400,1860.3,7.1,145.9,62.5,838.0,3981.0,14.0,
239500,1861.7,8.1,118.1,72.3,838.0,3981.0,14.0,
239600,1860.1,79.6,62.6,72.3,838.0,3981.0,14.0,
239700,1877.8,142.4,75.4,283.2,960.0,2895.0,30.0,
239900,1873.5,179.1,119.9,289.1,960.0,2895.0,30.0,
240000,1837.5,200.3,150.8,222.7,714.0,3799.0,14.0,
240100,1830.2,214.3,183.4,97.7,707.0,3793.0,14.0,
240200,1861.4,188.3,212.7,97.7,740.0,3816.0,14.0,
240300,1857.6,17.1,221.6,128.9,756.0,4172.0,15.0,
240400,1861.7,10.2,221.5,130.9,756.0,4172.0,15.0,
240500,1863.7,6.4,221.6,130.9,756.0,4172.0,15.0,
240600,1862.6,7.8,221.6,128.9,756.0,4172.0,15.0,
240700,1861.5,15.7,208.6,84.0,756.0,4172.0,15.0,
240900,1862.7,15.2,186.7,64.5,756.0,4172.0,15.0,
241000,1862.5,13.1,162.8,60.5,756.0,4172.0,15.0,
241100,1864.5,15.4,125.1,52.7,756.0,4172.0,15.0,
241200,1860.7,46.5,63.9,58.6,756.0,4172.0,15.0,
241300,1865.2,184.4,64.1,70.3,756.0,4172.0,15.0,
241400,1838.2,220.4,109.4,95.7,788.0,4295.0,13.0,
241500,1864.6,199.2,150.6,93.8,815.0,4357.0,13.0,
241600,1849.0,207.3,184.9,95.7,802.0,4373.0,13.0,
241700,1843.4,206.2,213.4,97.7,820.0,4077.0,14.0,
241900,1881.0,17.7,247.8,128.9,821.0,4106.0,14.0,
242000,1860.3,5.7,247.7,99.6,821.0,4106.0,14.0,
242100,1862.6,5.2,247.7,95.7,821.0,4106.0,14.0,
242200,1863.7,4.4,247.6,66.4,821.0,4106.0,14.0,
242300,1864.5,4.1,239.7,64.5,821.0,4106.0,14.0,
242400,1864.3,4.8,222.7,60.5,821.0,4106.0,14.0,
242500,1862.8,4.8,197.0,60.5,821.0,4106.0,14.0,
242600,1862.6,4.0,165.3,60.5,821.0,4106.0,14.0,
242700,1862.2,5.0,126.4,60.5,821.0,4106.0,14.0,
242900,1852.5,121.8,68.8,162.1,198.0,1320.0,10.0,
243000,1844.2,182.2,115.8,164.1,397.0,2553.0,13.0,
243100,1821.3,201.9,162.9,164.1,722.0,3793.0,13.0,
243200,1859.9,186.3,188.9,162.1,742.0,4092.0,13.0,
243300,1879.9,167.6,208.9,160.2,1043.0,4430.0,30.0,
243400,1889.9,176.6,227.6,130.9,1257.0,4536.0,30.0,
243500,1878.6,19.8,236.8,160.2,1257.0,4536.0,30.0,
243600,1861.4,5.9,236.8,162.1,1257.0,4536.0,30.0,
243700,1863.4,5.2,236.8,158.2,1257.0,4536.0,30.0,
243900,1862.8,4.8,226.7,66.4,1257.0,4536.0,30.0,
244000,1863.0,4.2,206.6,60.5,1257.0,4536.0,30.0,
244100,1862.8,4.1,172.0,60.5,1257.0,4536.0,30.0,
244200,1862.9,5.1,142.9,60.5,1257.0,4536.0,30.0,
244300,1863.0,5.0,111.6,60.5,1257.0,4536.0,30.0,
244400,1862.7,6.8,65.6,60.5,1257.0,4536.0,30.0,
244500,1851.4,94.6,69.6,189.5,188.0,1422.0,10.0,
244600,1858.7,121.6,107.9,193.4,446.0,2793.0,13.0,
244700,1871.0,184.1,135.0,193.4,663.0,3603.0,30.0,
244900,1871.8,188.9,184.3,193.4,663.0,3603.0,30.0,
245000,1881.8,171.9,201.5,160.2,663.0,3603.0,30.0,
245100,1854.0,27.5,214.9,66.4,865.0,4159.0,14.0,
245200,1860.6,5.9,214.9,64.5,865.0,4159.0,14.0,
245300,1865.1,4.6,214.9,66.4,865.0,4159.0,14.0,
245400,1864.3,6.1,214.9,66.4,865.0,4159.0,14.0,
245500,1863.5,6.2,203.5,64.5,865.0,4159.0,14.0,
245600,1862.5,5.7,186.0,60.5,865.0,4159.0,14.0,
245700,1862.0,7.2,167.3,60.5,865.0,4159.0,14.0,
245900,1863.2,16.4,111.0,62.5,865.0,4159.0,14.0,
246000,1861.9,7.7,75.3,56.6,865.0,4159.0,14.0,
246100,1869.1,123.6,59.6,76.2,580.0,2720.0,30.0,
246200,1888.3,160.8,97.4,289.1,956.0,2614.0,30.0,
246300,1899.4,151.6,120.8,291.0,956.0,2614.0,30.0,
246400,1872.4,190.4,142.2,289.1,956.0,2614.0,30.0,
246500,1834.7,208.6,173.0,164.1,848.0,4299.0,13.0,
246600,1830.2,228.1,204.2,66.4,834.0,3898.0,13.0,
246700,1872.2,36.9,224.4,66.4,867.0,4090.0,13.0,
246900,1862.1,5.8,224.4,128.9,867.0,4090.0,13.0,
247000,1862.9,4.5,224.4,127.0,867.0,4090.0,13.0,
247100,1863.0,4.2,216.5,97.7,867.0,4090.0,13.0,
247200,1862.0,4.6,202.3,60.5,867.0,4090.0,13.0,
247300,1863.1,4.8,189.3,60.5,867.0,4090.0,13.0,
247400,1863.5,3.5,173.8,60.5,867.0,4090.0,13.0,
247500,1862.6,5.0,143.1,60.5,867.0,4090.0,13.0,
247600,1862.5,5.3,93.4,60.5,867.0,4090.0,13.0,
247700,1873.1,68.1,31.1,191.4,867.0,4090.0,13.0,
247900,1836.9,235.0,109.8,224.6,824.0,4538.0,14.0,
248000,1863.6,209.9,157.5,128.9,957.0,4614.0,13.0,
248100,1848.3,152.9,191.9,97.7,851.0,3865.0,13.0,
248200,1848.7,188.8,216.3,99.6,787.0,3785.0,13.0,
248300,1859.2,41.8,235.0,128.9,762.0,3783.0,13.0,
248400,1857.9,6.9,235.1,130.9,762.0,3783.0,13.0,
248500,1863.9,5.1,235.1,130.9,762.0,3783.0,13.0,
248600,1863.5,4.0,235.1,128.9,762.0,3783.0,13.0,
248700,1861.6,4.8,233.1,99.6,762.0,3783.0,13.0,
248900,1863.3,3.7,207.9,60.5,762.0,3783.0,13.0,
249000,1862.9,5.3,174.6,60.5,762.0,3783.0,13.0,
249100,1862.9,7.8,135.8,60.5,762.0,3783.0,13.0,
249200,1861.8,8.8,92.2,60.5,762.0,3783.0,13.0,
249300,1854.7,93.9,48.7,101.6,215.0,1683.0,11.0,
249400,1847.8,124.6,104.2,166.0,345.0,2193.0,14.0,
249500,1847.8,215.6,144.9,164.1,843.0,4419.0,14.0,
249600,1830.8,217.1,182.4,162.1,887.0,4433.0,13.0,
249700,1869.4,186.1,204.5,130.9,819.0,3774.0,30.0,
249900,1887.9,49.3,235.5,128.9,819.0,3774.0,30.0,
250000,1858.3,7.6,235.5,162.1,819.0,3774.0,30.0,
250100,1862.9,4.0,235.5,160.2,819.0,3774.0,30.0,
250200,1863.5,5.0,235.5,93.8,819.0,3774.0,30.0,
250300,1862.8,4.0,230.5,68.4,819.0,3774.0,30.0,
250400,1861.3,4.5,211.3,60.5,819.0,3774.0,30.0,
250500,1861.5,4.9,185.8,60.5,819.0,3774.0,30.0,
250600,1861.3,5.8,149.1,60.5,819.0,3774.0,30.0,
250700,1861.7,8.8,116.9,60.5,819.0,3774.0,30.0,
250900,1848.1,118.1,52.4,99.6,231.0,1885.0,11.0,
251000,1853.0,188.1,103.0,189.5,496.0,2993.0,14.0,
251100,1879.6,166.1,140.5,189.5,884.0,4716.0,30.0,
251200,1885.6,176.5,166.4,162.1,1213.0,4585.0,30.0,
251300,1885.8,139.9,185.1,160.2,1213.0,4585.0,30.0,
251400,1854.5,163.3,197.5,162.1,680.0,3112.0,14.0,
251500,1866.4,65.0,213.9,162.1,612.0,2924.0,15.0,
251600,1861.2,9.7,214.0,128.9,612.0,2924.0,15.0,
251700,1864.5,5.6,214.0,128.9,612.0,2924.0,15.0,
251900,1862.8,4.5,207.5,130.9,612.0,2924.0,15.0,
252000,1862.5,4.1,187.6,60.5,612.0,2924.0,15.0,
252100,1862.2,4.7,161.5,60.5,612.0,2924.0,15.0,
252200,1862.5,4.6,134.7,60.5,612.0,2924.0,15.0,
252300,1862.4,4.3,107.4,60.5,612.0,2924.0,15.0,
252400,1862.3,4.4,82.5,60.5,612.0,2924.0,15.0,
252500,1862.0,93.3,7.8,60.5,563.0,1765.0,30.0,
252600,1884.3,167.0,80.7,289.1,563.0,1765.0,30.0,
252700,1877.8,184.4,111.5,289.1,563.0,1765.0,30.0,
252900,1858.4,185.4,152.6,162.1,722.0,3634.0,14.0,
253000,1828.3,192.9,185.3,66.4,756.0,3486.0,14.0,
253100,1831.5,91.7,211.4,95.7,753.0,3545.0,15.0,
253200,1879.5,16.8,212.7,128.9,753.0,3545.0,15.0,
253300,1863.5,5.8,212.8,130.9,753.0,3545.0,15.0,
253400,1863.1,5.3,212.8,130.9,753.0,3545.0,15.0,
253500,1863.7,4.6,212.7,128.9,753.0,3545.0,15.0,
253600,1863.1,5.1,196.9,111.3,753.0,3545.0,15.0,
253700,1863.4,5.1,181.3,60.5,753.0,3545.0,15.0,
253900,1862.6,4.8,148.4,60.5,753.0,3545.0,15.0,
254000,1864.2,4.3,104.7,60.5,753.0,3545.0,15.0,
254100,1862.3,58.6,24.9,60.5,753.0,3545.0,15.0,
254200,1892.7,99.9,56.3,324.2,753.0,3545.0,15.0,
254300,1872.2,220.7,87.7,320.3,753.0,3545.0,15.0,
254400,1830.9,218.8,130.6,228.5,828.0,4087.0,14.0,
254500,1853.2,178.5,163.6,64.5,815.0,4080.0,14.0,
254600,1855.1,142.0,188.1,64.5,754.0,3382.0,14.0,
254700,1852.9,111.6,207.5,95.7,831.0,3492.0,14.0,
254900,1863.2,5.1,213.2,97.7,831.0,3492.0,14.0,
255000,1862.7,4.9,213.2,93.8,831.0,3492.0,14.0,
255100,1863.1,5.2,213.2,66.4,831.0,3492.0,14.0,
255200,1864.0,4.8,205.7,60.5,831.0,3492.0,14.0,
255300,1861.4,5.0,194.4,60.5,831.0,3492.0,14.0,
255400,1862.8,5.4,168.6,60.5,831.0,3492.0,14.0,
255500,1862.7,8.3,136.9,60.5,831.0,3492.0,14.0,
255600,1862.0,9.3,100.6,60.5,831.0,3492.0,14.0,
255700,1863.6,66.6,49.4,60.5,831.0,3492.0,14.0,
255900,1857.0,182.5,127.9,136.7,935.0,5155.0,14.0,
256000,1840.5,206.1,166.9,128.9,846.0,4325.0,13.0,
256100,1831.9,185.2,199.0,101.6,753.0,3694.0,13.0,
256200,1850.5,153.9,217.5,97.7,647.0,3030.0,13.0,
256300,1890.4,130.8,230.7,128.9,647.0,3030.0,13.0,
256400,1870.6,11.9,235.1,160.2,647.0,3030.0,13.0,
256500,1863.2,4.9,235.1,191.4,647.0,3030.0,13.0,
256600,1864.4,5.5,235.0,224.6,647.0,3030.0,13.0,
256700,1859.8,4.5,235.0,224.6,647.0,3030.0,13.0,
256900,1862.4,5.3,197.3,60.5,647.0,3030.0,13.0,
257000,1863.6,5.5,165.7,60.5,647.0,3030.0,13.0,
257100,1863.3,4.8,125.3,60.5,647.0,3030.0,13.0,
257200,1862.0,5.7,89.3,60.5,647.0,3030.0,13.0,
257300,1860.1,60.1,45.4,60.5,647.0,3030.0,13.0,
257400,1836.7,130.3,89.2,189.5,358.0,2153.0,14.0,
257500,1843.4,168.7,124.1,191.4,495.0,2943.0,14.0,
257600,1881.8,168.5,151.9,175.8,813.0,4272.0,30.0,
257700,1888.1,170.9,174.8,162.1,813.0,4272.0,30.0,
257900,1853.7,163.6,201.5,162.1,813.0,4272.0,30.0,
258000,1876.2,14.6,206.8,162.1,813.0,4272.0,30.0,
258100,1862.2,5.8,206.8,95.7,813.0,4272.0,30.0,
258200,1865.3,6.0,206.8,95.7,813.0,4272.0,30.0,
258300,1863.9,4.5,206.8,91.8,813.0,4272.0,30.0,
258400,1863.0,5.1,186.7,64.5,813.0,4272.0,30.0,
258500,1862.4,5.1,165.5,60.5,813.0,4272.0,30.0,
258600,1862.8,4.5,140.5,60.5,813.0,4272.0,30.0,
258700,1863.1,5.2,110.7,60.5,813.0,4272.0,30.0,
258900,1864.3,9.4,46.8,60.5,813.0,4272.0,30.0,
259000,1858.4,161.1,64.0,193.4,692.0,4111.0,14.0,
259100,1873.0,202.1,114.6,193.4,1132.0,5092.0,30.0,
259200,1884.0,180.6,143.5,189.5,1132.0,5092.0,30.0,
259300,1892.2,148.0,158.8,162.1,1132.0,5092.0,30.0,
259400,1862.6,162.0,174.3,130.9,712.0,3155.0,15.0,
259500,1847.6,178.0,194.5,66.4,720.0,3065.0,15.0,
259600,1847.6,18.4,208.8,93.8,705.0,3004.0,15.0,
259700,1861.7,6.1,208.8,128.9,705.0,3004.0,15.0,
259900,1863.9,5.0,208.8,154.3,705.0,3004.0,15.0,
260000,1863.8,5.1,198.9,128.9,705.0,3004.0,15.0,
260100,1862.8,4.2,174.7,60.5,705.0,3004.0,15.0,
260200,1862.8,5.1,151.8,60.5,705.0,3004.0,15.0,
260300,1862.7,5.1,135.7,60.5,705.0,3004.0,15.0,
260400,1862.9,4.4,115.1,60.5,705.0,3004.0,15.0,
260500,1862.5,4.8,76.3,60.5,705.0,3004.0,15.0,
260600,1882.9,65.2,54.2,312.5,705.0,3004.0,15.0,
260700,1876.1,143.3,71.1,322.3,705.0,3004.0,15.0,
260900,1824.3,177.9,142.4,162.1,637.0,3156.0,13.0,
261000,1850.1,167.7,170.5,95.7,735.0,3195.0,14.0,
261100,1859.0,137.3,194.4,127.0,763.0,3212.0,14.0,
261200,1856.6,23.2,207.1,160.2,778.0,3165.0,14.0,
261300,1861.2,6.0,207.2,160.2,778.0,3165.0,14.0,
261400,1864.5,5.4,207.2,158.2,778.0,3165.0,14.0,
261500,1864.5,4.7,207.2,127.0,778.0,3165.0,14.0,
261600,1863.9,4.6,200.0,68.4,778.0,3165.0,14.0,
261700,1862.3,4.9,194.6,60.5,778.0,3165.0,14.0,
261900,1862.7,4.1,150.5,60.5,778.0,3165.0,14.0,
262000,1862.9,4.7,117.8,60.5,778.0,3165.0,14.0,
262100,1862.7,5.1,71.6,60.5,778.0,3165.0,14.0,
262200,1850.9,104.0,53.3,128.9,237.0,1188.0,9.0,
262300,1836.0,187.4,101.9,158.2,690.0,4093.0,14.0,
262400,1856.2,162.0,141.8,160.2,663.0,3388.0,13.0,
262500,1852.8,162.1,170.0,130.9,753.0,3401.0,13.0,
262600,1844.0,154.0,193.5,130.9,647.0,3194.0,14.0,
262700,1864.3,177.0,208.7,130.9,730.0,3263.0,30.0,
262900,1860.3,6.0,220.3,162.1,730.0,3263.0,30.0,
263000,1864.6,5.6,220.3,193.4,730.0,3263.0,30.0,
263100,1863.8,4.0,220.3,193.4,730.0,3263.0,30.0,
263200,1863.6,4.7,213.9,166.0,730.0,3263.0,30.0,
263300,1861.5,5.3,195.4,60.5,730.0,3263.0,30.0,
263400,1862.4,4.1,168.7,60.5,730.0,3263.0,30.0,
263500,1862.3,4.7,140.3,60.5,730.0,3263.0,30.0,
263600,1862.1,4.7,105.6,60.5,730.0,3263.0,30.0,
263700,1862.2,3.5,70.9,60.5,730.0,3263.0,30.0,
263900,1825.2,108.7,112.8,189.5,153.0,1186.0,8.0,
264000,1840.5,173.7,144.1,191.4,630.0,3286.0,13.0,
264100,1872.6,145.3,168.5,191.4,646.0,3345.0,13.0,
264200,1877.6,158.5,185.5,162.1,846.0,3797.0,30.0,
264300,1889.7,119.7,201.0,162.1,846.0,3797.0,30.0,
264400,1888.3,26.4,205.1,195.3,846.0,3797.0,30.0,
264500,1860.9,6.6,205.1,257.8,846.0,3797.0,30.0,
264600,1865.3,5.7,205.1,261.7,846.0,3797.0,30.0,
264700,1864.6,4.8,205.1,236.3,846.0,3797.0,30.0,
264900,1862.4,4.4,171.4,60.5,846.0,3797.0,30.0,
265000,1863.5,4.1,146.0,60.5,846.0,3797.0,30.0,
265100,1862.3,5.1,117.0,60.5,846.0,3797.0,30.0,
265200,1862.8,5.1,87.8,60.5,846.0,3797.0,30.0,
265300,1863.3,7.6,41.6,60.5,846.0,3797.0,30.0,
265400,1856.5,70.1,47.0,121.1,81.0,1088.0,14.0,
265500,1857.3,111.6,89.8,195.3,243.0,1594.0,10.0,
265600,1853.8,140.6,121.2,193.4,716.0,2623.0,30.0,
265700,1871.2,205.1,144.9,193.4,853.0,3183.0,30.0,
265900,1887.7,126.6,177.8,195.3,853.0,3183.0,30.0,
266000,1859.0,49.9,192.7,162.1,853.0,3183.0,30.0,
266100,1856.5,7.9,192.7,64.5,853.0,3183.0,30.0,
266200,1864.0,5.1,192.7,64.5,853.0,3183.0,30.0,
266300,1862.7,4.8,192.7,60.5,853.0,3183.0,30.0,
266400,1864.1,4.7,187.0,54.7,853.0,3183.0,30.0,
266500,1863.0,4.7,170.6,60.5,853.0,3183.0,30.0,
266600,1863.2,5.1,150.0,60.5,853.0,3183.0,30.0,
266700,1863.0,4.3,127.2,60.5,853.0,3183.0,30.0,
266900,1862.9,4.4,74.5,60.5,853.0,3183.0,30.0,
267000,1849.8,72.8,45.4,152.3,158.0,1357.0,10.0,
267100,1863.4,111.9,84.9,199.2,181.0,1359.0,30.0,
267200,1884.6,148.9,113.6,205.1,607.0,2715.0,30.0,
267300,1893.3,172.5,139.6,224.6,607.0,2715.0,30.0,
267400,1871.7,154.9,155.9,224.6,607.0,2715.0,30.0,
267500,1857.0,162.4,170.8,193.4,607.0,2715.0,30.0,
267600,1863.7,64.1,190.4,97.7,697.0,3410.0,15.0,
267700,1858.9,7.7,190.5,95.7,697.0,3410.0,15.0,
267900,1864.2,4.7,190.5,127.0,697.0,3410.0,15.0,
268000,1862.2,5.1,185.1,113.3,697.0,3410.0,15.0,
268100,1862.4,5.1,170.6,60.5,697.0,3410.0,15.0,
268200,1862.7,4.4,153.0,60.5,697.0,3410.0,15.0,
268300,1862.4,4.1,129.7,60.5,697.0,3410.0,15.0,
268400,1862.2,4.7,109.5,60.5,697.0,3410.0,15.0,
268500,1862.3,4.1,84.4,60.5,697.0,3410.0,15.0,
268600,1861.9,88.3,6.7,60.5,461.0,1339.0,30.0,
268700,1878.0,156.6,81.3,314.5,903.0,2245.0,30.0,
268900,1886.6,135.0,133.4,289.1,903.0,2245.0,30.0,
269000,1859.7,158.4,150.3,195.3,618.0,2936.0,14.0,
269100,1831.0,169.7,178.1,85.9,633.0,3012.0,15.0,
269200,1835.0,81.3,201.2,125.0,652.0,3046.0,15.0,
269300,1876.3,10.1,202.2,160.2,652.0,3046.0,15.0,
269400,1863.3,5.8,202.2,160.2,652.0,3046.0,15.0,
269500,1864.7,5.1,202.2,160.2,652.0,3046.0,15.0,
269600,1862.4,4.4,202.2,158.2,652.0,3046.0,15.0,
269700,1862.4,4.3,185.2,111.3,652.0,3046.0,15.0,
269900,1862.0,5.1,152.1,60.5,652.0,3046.0,15.0,
270000,1862.8,5.4,135.5,60.5,652.0,3046.0,15.0,
270100,1861.9,4.2,95.9,60.5,652.0,3046.0,15.0,
270200,1862.8,44.4,21.3,60.5,652.0,3046.0,15.0,
270300,1874.7,99.5,45.2,238.3,652.0,3046.0,15.0,
270400,1848.0,147.6,83.1,195.3,414.0,2245.0,14.0,
270500,1839.2,160.9,119.7,162.1,533.0,2843.0,13.0,
270600,1855.5,151.4,151.2,160.2,572.0,2825.0,14.0,
270700,1853.4,145.3,174.4,160.2,531.0,2441.0,14.0,
270900,1857.1,8.8,194.9,162.1,531.0,2441.0,14.0,
271000,1863.7,5.2,194.9,191.4,531.0,2441.0,14.0,
271100,1863.9,4.9,194.9,191.4,531.0,2441.0,14.0,
271200,1862.3,4.5,194.9,185.5,531.0,2441.0,14.0,
271300,1862.4,4.6,189.7,142.6,531.0,2441.0,14.0,
271400,1861.4,5.0,176.3,60.5,531.0,2441.0,14.0,
271500,1862.0,3.8,153.9,60.5,531.0,2441.0,14.0,
271600,1862.3,5.3,123.1,60.5,531.0,2441.0,14.0,
271700,1861.8,7.1,87.2,60.5,531.0,2441.0,14.0,
271900,1842.6,98.4,75.8,164.1,158.0,898.0,9.0,
272000,1848.4,175.4,118.2,164.1,733.0,3466.0,13.0,
272100,1846.9,176.1,153.0,162.1,692.0,3313.0,13.0,
272200,1832.0,164.6,179.8,162.1,664.0,3108.0,13.0,
272300,1876.3,136.8,194.8,160.2,811.0,2999.0,30.0,
272400,1896.5,129.7,209.2,162.1,811.0,2999.0,30.0,
272500,1872.4,14.1,213.4,193.4,811.0,2999.0,30.0,
272600,1863.3,6.2,213.4,224.6,811.0,2999.0,30.0,
272700,1863.8,4.3,213.4,226.6,811.0,2999.0,30.0,
272900,1862.6,4.9,199.6,74.2,811.0,2999.0,30.0,
273000,1861.4,4.3,177.8,60.5,811.0,2999.0,30.0,
273100,1861.5,4.7,148.9,60.5,811.0,2999.0,30.0,
273200,1861.9,5.0,115.0,60.5,811.0,2999.0,30.0,
273300,1861.4,5.8,87.5,60.5,811.0,2999.0,30.0,
273400,1858.1,63.4,42.9,60.5,811.0,2999.0,30.0,
273500,1836.4,154.4,86.3,189.5,428.0,2593.0,13.0,
273600,1852.3,170.2,125.5,191.4,633.0,3425.0,14.0,
273700,1866.7,140.7,151.1,164.1,622.0,3416.0,13.0,
273900,1892.1,146.8,187.6,160.2,622.0,3416.0,13.0,
274000,1869.8,156.7,197.1,191.4,622.0,3416.0,13.0,
274100,1875.3,14.1,201.1,195.3,622.0,3416.0,13.0,
274200,1862.1,4.8,201.1,162.1,622.0,3416.0,13.0,
274300,1864.0,4.5,201.1,66.4,622.0,3416.0,13.0,
274400,1862.7,4.9,201.0,64.5,622.0,3416.0,13.0,
274500,1862.6,4.5,181.7,60.5,622.0,3416.0,13.0,
274600,1861.2,6.9,157.2,60.5,622.0,3416.0,13.0,
274700,1862.8,5.2,132.8,60.5,622.0,3416.0,13.0,
274900,1863.5,6.9,72.7,60.5,622.0,3416.0,13.0,
275000,1861.5,12.2,40.4,60.5,622.0,3416.0,13.0,
275100,1862.0,159.0,70.9,169.9,566.0,3631.0,14.0,
275200,1858.2,170.2,112.0,173.8,848.0,3821.0,30.0,
275300,1874.5,165.7,138.1,164.1,965.0,3787.0,30.0,
275400,1906.5,124.8,156.5,164.1,965.0,3787.0,30.0,
275500,1880.5,136.5,166.4,193.4,965.0,3787.0,30.0,
275600,1844.1,161.4,182.8,195.3,602.0,2953.0,15.0,
275700,1864.9,15.9,190.5,128.9,602.0,2953.0,15.0,
275900,1865.3,5.5,190.5,128.9,602.0,2953.0,15.0,
276000,1864.6,4.1,190.5,128.9,602.0,2953.0,15.0,
276100,1861.0,6.0,177.0,99.6,602.0,2953.0,15.0,
276200,1861.5,4.7,154.3,60.5,602.0,2953.0,15.0,
276300,1862.7,5.2,131.5,60.5,602.0,2953.0,15.0,
276400,1862.3,4.8,108.9,60.5,602.0,2953.0,15.0,
276500,1862.1,4.7,93.1,60.5,602.0,2953.0,15.0,
276600,1863.6,5.3,54.1,60.5,602.0,2953.0,15.0,
276700,1867.9,105.1,56.7,222.7,426.0,2601.0,30.0,
276900,1885.2,149.2,115.2,259.8,426.0,2601.0,30.0,
277000,1856.2,154.7,131.4,287.1,426.0,2601.0,30.0,
277100,1864.7,141.8,149.7,224.6,632.0,2944.0,15.0,
277200,1853.1,121.6,171.6,117.2,602.0,2742.0,15.0,
277300,1849.7,20.7,186.6,128.9,613.0,2763.0,15.0,
277400,1860.3,6.3,186.6,160.2,613.0,2763.0,15.0,
277500,1864.6,4.6,186.6,160.2,613.0,2763.0,15.0,
277600,1863.0,4.6,186.6,160.2,613.0,2763.0,15.0,
277700,1862.5,4.7,177.9,150.4,613.0,2763.0,15.0,
277900,1862.2,4.4,146.9,60.5,613.0,2763.0,15.0,
278000,1862.4,6.5,132.7,60.5,613.0,2763.0,15.0,
278100,1861.3,12.0,111.7,60.5,613.0,2763.0,15.0,
278200,1863.1,9.7,73.9,60.5,613.0,2763.0,15.0,
278300,1866.1,173.1,62.4,136.7,1036.0,3929.0,30.0,
278400,1896.8,176.9,99.7,259.8,1036.0,3929.0,30.0,
278500,1889.0,138.4,121.4,255.9,1036.0,3929.0,30.0,
278600,1858.9,176.7,141.0,164.1,607.0,3238.0,15.0,
278700,1827.1,166.0,169.1,66.4,570.0,3058.0,15.0,
278900,1863.8,26.0,205.6,130.9,555.0,2599.0,15.0,
279000,1859.4,6.8,205.6,162.1,555.0,2599.0,15.0,
279100,1864.0,5.4,205.5,162.1,555.0,2599.0,15.0,
279200,1862.3,5.0,205.5,162.1,555.0,2599.0,15.0,
279300,1862.8,3.8,196.0,158.2,555.0,2599.0,15.0,
279400,1862.9,4.0,179.9,60.5,555.0,2599.0,15.0,
