Time(ms),Raw_ADC
0,1840
1,1290
2,1273
3,1573
4,1872
5,2083
6,2208
7,2288
8,2282
9,2208
10,2058
11,1871
12,1673
13,1520
14,1451
15,1427
16,1488
17,1578
18,1662
19,1735
20,1808
21,1843
22,1875
23,1892
24,1013
25,1831
26,2250
27,2494
28,2460
29,2374
30,2171
31,1889
32,1282
33,1181
34,1508
35,1831
36,2043
37,2171
38,2250
39,2298
40,2229
41,2107
42,1904
43,1694
44,1531
45,1446
46,1425
47,1471
48,1553
49,1649
50,1719
51,1797
52,1847
53,1882
54,1903
55,1360
56,1808
57,2229
58,2496
59,2480
60,2384
61,2165
62,1893
63,1325
64,1154
65,1483
66,1808
67,2025
68,2167
69,2271
70,2302
71,2237
72,2118
73,1941
74,1734
75,1566
76,1472
77,1431
78,1459
79,1523
80,1616
81,1714
82,1794
83,1840
84,1870
85,1892
86,2160
87,1626
88,2178
89,2480
90,2515
91,2431
92,2203
93,1982
94,1429
95,1136
96,1413
97,1742
98,1972
99,2129
100,2241
101,2273
102,2254
103,2139
104,1973
105,1788
106,1632
107,1500
108,1444
109,1478
110,1533
111,1591
112,1657
113,1732
114,1801
115,1853
116,1877
117,1762
118,1456
119,2096
120,2445
121,2545
122,2499
123,2287
124,2070
125,1514
126,1098
127,1321
128,1680
129,1931
130,2096
131,2211
132,2277
133,2268
134,2165
135,2015
136,1811
137,1634
138,1517
139,1453
140,1474
141,1525
142,1605
143,1671
144,1733
145,1790
146,1820
147,1855
148,1882
149,1249
150,2026
151,2406
152,2551
153,2521
154,2331
155,2145
156,1698
157,1139
158,1297
159,1654
160,1900
161,2028
162,2105
163,2177
164,2219
165,2178
166,2032
167,1854
168,1679
169,1573
170,1498
171,1497
172,1561
173,1626
174,1674
175,1731
176,1776
177,1809
178,1838
179,1856
180,997
181,1936
182,2342
183,2541
184,2528
185,2375
186,2160
187,1791
188,1183
189,1246
190,1619
191,1872
192,2043
193,2167
194,2226
195,2254
196,2181
197,2037
198,1851
199,1683
200,1535
201,1463
202,1459
203,1518
204,1600
205,1683
206,1757
207,1811
208,1843
209,1857
210,1865
211,880
212,1836
213,2267
214,2528
215,2542
216,2403
217,2203
218,1886
219,1225
220,1210
221,1579
222,1891
223,2042
224,2117
225,2171
226,2215
227,2166
228,2037
229,1868
230,1700
231,1556
232,1478
233,1476
234,1517
235,1595
236,1669
237,1746
238,1829
239,1871
240,1889
241,1898
242,1340
243,1750
244,2202
245,2486
246,2523
247,2414
248,2224
249,1985
250,1294
251,1138
252,1520
253,1869
254,2061
255,2130
256,2167
257,2214
258,2193
259,2101
260,1910
261,1725
262,1562
263,1460
264,1429
265,1482
266,1555
267,1636
268,1727
269,1805
270,1847
271,1893
272,1922
273,2170
274,1642
275,2160
276,2468
277,2516
278,2427
279,2207
280,2009
281,1371
282,1150
283,1460
284,1810
285,2031
286,2132
287,2196
288,2233
289,2229
290,2115
291,1954
292,1761
293,1594
294,1474
295,1424
296,1463
297,1522
298,1612
299,1713
300,1776
301,1834
302,1877
303,1903
304,1891
305,1508
306,2128
307,2453
308,2544
309,2484
310,2244
311,2065
312,1447
313,1091
314,1387
315,1765
316,2000
317,2107
318,2155
319,2206
320,2218
321,2155
322,2007
323,1812
324,1625
325,1488
326,1437
327,1452
328,1508
329,1581
330,1672
331,1744
332,1814
333,1860
334,1892
335,1910
336,1323
337,2067
338,2418
339,2559
340,2510
341,2293
342,2113
343,1571
344,1072
345,1298
346,1681
347,1941
348,2073
349,2154
350,2213
351,2241
352,2192
353,2037
354,1851
355,1687
356,1535
357,1451
358,1461
359,1514
360,1582
361,1653
362,1729
363,1776
364,1827
365,1866
366,1902
367,1919
368,1935
369,1943
370,1945
371,1953
372,1954
373,1931
374,1920
375,1910
376,1885
377,1875
378,1872
379,1866
380,1869
381,1872
382,1888
383,1887
384,1885
385,1879
386,1887
387,1892
388,1894
389,1890
390,1872
391,1872
392,1860
393,1851
394,1838
395,1839
396,1840
397,1845
398,1850
399,1871
400,1872
401,1857
402,1875
403,1877
404,1883
405,1884
406,1887
407,1868
408,1857
409,1851
410,1840
411,1830
412,1830
413,1840
414,1838
415,1851
416,1867
417,1870
418,1874
419,1875
420,1882
421,1890
422,1895
423,1877
424,1870
425,1869
426,1862
427,1851
428,1847
429,1846
430,1831
431,1828
432,1842
433,1854
434,1869
435,1874
436,1872
437,1870
438,1871
439,1883
440,1875
441,1862
442,1837
443,1837
444,1815
445,1827
446,1843
447,1855
448,1871
449,1869
450,1863
451,1856
452,1847
453,1855
454,1871
455,1883
456,1872
457,1865
458,1859
459,1856
460,1844
461,1830
462,1837
463,1839
464,1844
465,1859
466,1869
467,1882
468,1886
469,1882
470,1883
471,1878
472,1892
473,1878
474,1869
475,1856
476,1845
477,1840
478,1845
479,1850
480,1855
481,1847
482,1857
483,1859
484,1863
485,1872
486,1887
487,1893
488,1899
489,1910
490,1901
491,1885
492,1859
493,1829
494,1820
495,1811
496,1811
497,1826
498,1846
499,1854
500,1851
501,1847
502,1857
503,1863
504,1870
505,1885
506,1889
507,1873
508,1863
509,1850
510,1834
511,1823
512,1837
513,1840
514,1850
515,1855
516,1872
517,1878
518,1873
519,1882
520,1882
521,1879
522,1891
523,1885
524,1865
525,1858
526,1852
527,1838
528,1837
529,1840
530,1846
531,1856
532,1865
533,1870
534,1861
535,1862
536,1872
537,1874
538,1887
539,1892
540,1871
541,1871
542,1856
543,1841
544,1840
545,1833
546,1833
547,1845
548,1850
549,1871
550,1872
551,1869
552,1872
553,1872
554,1871
555,1883
556,1872
557,1863
558,1858
559,1847
560,1840
561,1831
562,1831
563,1841
564,1840
565,1856
566,1861
567,1863
568,1882
569,1887
570,1886
571,1885
572,1883
573,1872
574,1867
575,1850
576,1847
577,1835
578,1838
579,1841
580,1842
581,1842
582,1855
583,1869
584,1863
585,1874
586,1875
587,1877
588,1898
589,1894
590,1876
591,1861
592,1854
593,1843
594,1831
595,1834
596,1839
597,1838
598,1853
599,1855
600,1869
601,1884
602,1885
603,1885
604,1883
605,1885
606,1875
607,1872
608,1858
609,1853
610,1841
611,1840
612,1840
613,1844
614,1841
615,1859
616,1870
617,1872
618,1879
619,1873
620,1872
621,1887
622,1888
623,1878
624,1854
625,1852
626,1844
627,1830
628,1826
629,1830
630,1854
631,1862
632,1869
633,1872
634,1875
635,1879
636,1876
637,1876
638,1879
639,1886
640,1871
641,1863
642,1847
643,1837
644,1833
645,1834
646,1838
647,1850
648,1862
649,1872
650,1872
651,1886
652,1883
653,1886
654,1879
655,1888
656,1882
657,1859
658,1855
659,1851
660,1840
661,1835
662,1835
663,1839
664,1853
665,1870
666,1872
667,1874
668,1868
669,1873
670,1881
671,1883
672,1891
673,1885
674,1873
675,1857
676,1848
677,1837
678,1835
679,1837
680,1840
681,1858
682,1863
683,1858
684,1865
685,1873
686,1874
687,1881
688,1895
689,1904
690,1890
691,1879
692,1872
693,1861
694,1840
695,1821
696,1819
697,1829
698,1845
699,1857
700,1872
701,1872
702,1875
703,1884
704,1887
705,1882
706,1888
707,1872
708,1862
709,1859
710,1838
711,1827
712,1827
713,1826
714,1827
715,1853
716,1860
717,1869
718,1873
719,1884
720,1886
721,1889
722,1890
723,1881
724,1865
725,1861
726,1840
727,1840
728,1842
729,1839
730,1840
731,1857
732,1861
733,1872
734,1870
735,1872
736,1878
737,1876
738,1882
739,1890
740,1870
741,1862
742,1856
743,1843
744,1828
745,1830
746,1834
747,1841
748,1849
749,1863
750,1873
751,1883
752,1882
753,1888
754,1886
755,1887
756,1885
757,1868
758,1856
759,1857
760,1842
761,1840
762,1845
763,1850
764,1854
765,1871
766,1866
767,1860
768,1861
769,1862
770,1868
771,1867
772,1874
773,1874
774,1855
775,1855
776,1840
777,1834
778,1839
779,1835
780,1847
781,1849
782,1867
783,1871
784,1877
785,1883
786,1882
787,1882
788,1885
789,1890
790,1867
791,1863
792,1846
793,1840
794,1831
795,1838
796,1840
797,1844
798,1866
799,1860
800,1872
801,1870
802,1891
803,1895
804,1884
805,1885
806,1872
807,1863
808,1841
809,1833
810,1825
811,1829
812,1834
813,1840
814,1854
815,1868
816,1869
817,1872
818,1870
819,1876
820,1872
821,1874
822,1882
823,1863
824,1858
825,1853
826,1837
827,1831
828,1831
829,1840
830,1850
831,1858
832,1872
833,1870
834,1861
835,1874
836,1874
837,1872
838,1877
839,1883
840,1872
841,1861
842,1847
843,1838
844,1839
845,1840
846,1843
847,1845
848,1856
849,1869
850,1871
851,1872
852,1884
853,1882
854,1886
855,1888
856,1879
857,1872
858,1861
859,1851
860,1840
861,1834
862,1837
863,1840
864,1847
865,1854
866,1861
867,1872
868,1877
869,1879
870,1890
871,1889
872,1885
873,1866
874,1863
875,1861
876,1841
877,1840
878,1837
879,1841
880,1840
881,1853
882,1864
883,1872
884,1872
885,1881
886,1882
887,1887
888,1889
889,1887
890,1872
891,1867
892,1837
893,1839
894,1826
895,1822
896,1829
897,1840
898,1853
899,1858
900,1872
901,1872
902,1883
903,1883
904,1884
905,1879
906,1883
907,1872
908,1859
909,1845
910,1830
911,1822
912,1835
913,1838
914,1841
915,1859
916,1867
917,1873
918,1872
919,1872
920,1874
921,1887
922,1891
923,1876
924,1854
925,1847
926,1827
927,1826
928,1827
929,1831
930,1845
931,1850
932,1862
933,1872
934,1875
935,1879
936,1883
937,1883
938,1890
939,1887
940,1858
941,1851
942,1841
943,1839
944,1835
945,1838
946,1837
947,1844
948,1853
949,1872
950,1872
951,1872
952,1877
953,1879
954,1877
955,1885
956,1871
957,1871
958,1852
959,1847
960,1839
961,1836
962,1835
963,1846
964,1846
965,1872
966,1874
967,1872
968,1873
969,1877
970,1878
971,1883
972,1894
973,1873
974,1869
975,1852
976,1837
977,1839
978,1834
979,1840
980,1840
981,1844
982,1863
983,1871
984,1869
985,1873
986,1874
987,1883
988,1893
989,1883
990,1872
991,1856
992,1840
993,1835
994,1831
995,1830
996,1830
997,1845
998,1856
999,1867
1000,1870
1001,1883
1002,1886
1003,1881
1004,1893
1005,1889
1006,1873
1007,1872
1008,1857
1009,1839
1010,1834
1011,1829
1012,1831
1013,1840
1014,1840
1015,1856
1016,1858
1017,1868
1018,1872
1019,1872
1020,1878
1021,1877
1022,1891
1023,1872
1024,1857
1025,1856
1026,1831
1027,1829
1028,1834
1029,1837
1030,1847
1031,1856
1032,1873
1033,1874
1034,1877
1035,1875
1036,1878
1037,1878
1038,1888
1039,1883
1040,1869
1041,1854
1042,1843
1043,1842
1044,1830
1045,1831
1046,1839
1047,1841
1048,1843
1049,1854
1050,1869
1051,1875
1052,1877
1053,1878
1054,1882
1055,1890
1056,1885
1057,1872
1058,1857
1059,1846
1060,1840
1061,1839
1062,1840
1063,1844
1064,1854
1065,1872
1066,1882
1067,1883
1068,1893
1069,1885
1070,1879
1071,1872
1072,1875
1073,1853
1074,1838
1075,1834
1076,1828
1077,1829
1078,1835
1079,1843
1080,1844
1081,1845
1082,1857
1083,1863
1084,1872
1085,1886
1086,1878
1087,1885
1088,1884
1089,1879
1090,1870
1091,1850
1092,1842
1093,1842
1094,1837
1095,1840
1096,1841
1097,1845
1098,1865
1099,1863
1100,1872
1101,1872
1102,1873
1103,1879
1104,1873
1105,1877
1106,1871
1107,1865
1108,1850
1109,1840
1110,1833
1111,1831
1112,1830
1113,1842
1114,1854
1115,1859
1116,1872
1117,1865
1118,1872
1119,1879
1120,1882
1121,1888
1122,1897
1123,1884
1124,1857
1125,1855
1126,1840
1127,1837
1128,1827
1129,1840
1130,1843
1131,1849
1132,1859
1133,1870
1134,1871
1135,1877
1136,1874
1137,1877
1138,1880
1139,1874
1140,1868
1141,1853
1142,1844
1143,1839
1144,1832
1145,1833
1146,1839
1147,1851
1148,1866
1149,1862
1150,1872
1151,1878
1152,1882
1153,1878
1154,1875
1155,1883
1156,1872
1157,1872
1158,1850
1159,1852
1160,1839
1161,1838
1162,1840
1163,1841
1164,1838
1165,1853
1166,1861
1167,1861
1168,1881
1169,1882
1170,1889
1171,1888
1172,1894
1173,1879
1174,1859
1175,1853
1176,1841
1177,1835
1178,1831
1179,1837
1180,1840
1181,1856
1182,1857
1183,1867
1184,1879
1185,1881
1186,1882
1187,1877
1188,1887
1189,1889
1190,1871
1191,1857
1192,1839
1193,1829
1194,1827
1195,1830
1196,1834
1197,1847
1198,1862
1199,1869
1200,1872
1201,1876
1202,1872
1203,1876
1204,1873
1205,1879
1206,1873
1207,1872
1208,1854
1209,1840
1210,1834
1211,1836
1212,1835
1213,1842
1214,1847
1215,1862
1216,1863
1217,1867
1218,1871
1219,1875
1220,1878
1221,1883
1222,1883
1223,1862
1224,1857
1225,1843
1226,1827
1227,1831
1228,1823
1229,1839
1230,1853
1231,1860
1232,1872
1233,1873
1234,1886
1235,1887
1236,1877
1237,1876
1238,1879
1239,1884
1240,1867
1241,1843
1242,1851
1243,1841
1244,1827
1245,1833
1246,1840
1247,1841
1248,1856
1249,1872
1250,1872
1251,1889
1252,1883
1253,1885
1254,1874
1255,1885
1256,1866
1257,1855
1258,1856
1259,1845
1260,1834
1261,1828
1262,1833
1263,1840
1264,1857
1265,1872
1266,1868
1267,1873
1268,1875
1269,1881
1270,1891
1271,1895
1272,1888
1273,1873
1274,1859
1275,1856
1276,1833
1277,1835
1278,1829
1279,1840
1280,1840
1281,1851
1282,1858
1283,1865
1284,1872
1285,1872
1286,1874
1287,1872
1288,1885
1289,1875
1290,1859
1291,1857
1292,1855
1293,1840
1294,1834
1295,1834
1296,1841
1297,1843
1298,1866
1299,1868
1300,1872
1301,1881
1302,1877
1303,1883
1304,1883
1305,1891
1306,1871
1307,1858
1308,1857
1309,1839
1310,1835
1311,1839
1312,1838
1313,1843
1314,1841
1315,1859
1316,1862
1317,1858
1318,1871
1319,1878
1320,1877
1321,1883
1322,1891
1323,1867
1324,1869
1325,1857
1326,1837
1327,1835
1328,1840
1329,1840
1330,1839
1331,1855
1332,1863
1333,1872
1334,1878
1335,1882
1336,1883
1337,1878
1338,1889
1339,1871
1340,1863
1341,1858
1342,1847
1343,1840
1344,1825
1345,1823
1346,1830
1347,1840
1348,1859
1349,1861
1350,1872
1351,1872
1352,1873
1353,1882
1354,1879
1355,1879
1356,1878
1357,1860
1358,1859
1359,1851
1360,1834
1361,1833
1362,1830
1363,1573
1364,1938
1365,2047
1366,2198
1367,2246
1368,2202
1369,2128
1370,2085
1371,2010
1372,1855
1373,1589
1374,1424
1375,1494
1376,1662
1377,1792
1378,1947
1379,2093
1380,2160
1381,2201
1382,2193
1383,2129
1384,2021
1385,1905
1386,1785
1387,1691
1388,1618
1389,1558
1390,1520
1391,1523
1392,1555
1393,1584
1394,1420
1395,1707
1396,1867
1397,2078
1398,2160
1399,2142
1400,2064
1401,2047
1402,1979
1403,1755
1404,1492
1405,1447
1406,1623
1407,1850
1408,2027
1409,2176
1410,2288
1411,2322
1412,2303
1413,2213
1414,2079
1415,1905
1416,1725
1417,1584
1418,1489
1419,1446
1420,1463
1421,1518
1422,1571
1423,1614
1424,1658
1425,1574
1426,1706
1427,1938
1428,2163
1429,2254
1430,2214
1431,2112
1432,2073
1433,1950
1434,1663
1435,1413
1436,1489
1437,1749
1438,1975
1439,2155
1440,2292
1441,2359
1442,2350
1443,2261
1444,2135
1445,1951
1446,1744
1447,1585
1448,1463
1449,1409
1450,1423
1451,1477
1452,1555
1453,1619
1454,1680
1455,1753
1456,1791
1457,1392
1458,1953
1459,2242
1460,2371
1461,2331
1462,2191
1463,2128
1464,1965
1465,1593
1466,1355
1467,1478
1468,1777
1469,2011
1470,2177
1471,2271
1472,2318
1473,2293
1474,2211
1475,2063
1476,1841
1477,1633
1478,1488
1479,1419
1480,1405
1481,1456
1482,1526
1483,1588
1484,1666
1485,1721
1486,1777
1487,1817
1488,1289
1489,1943
1490,2247
1491,2430
1492,2364
1493,2192
1494,2094
1495,1902
1496,1535
1497,1319
1498,1495
1499,1815
1500,2081
1501,2241
1502,2320
1503,2319
1504,2279
1505,2179
1506,1986
1507,1748
1508,1577
1509,1434
1510,1375
1511,1390
1512,1455
1513,1521
1514,1616
1515,1702
1516,1767
1517,1825
1518,1868
1519,1275
1520,1955
1521,2238
1522,2485
1523,2454
1524,2274
1525,2149
1526,1919
1527,1521
1528,1277
1529,1432
1530,1755
1531,2018
1532,2199
1533,2285
1534,2299
1535,2253
1536,2143
1537,1981
1538,1776
1539,1598
1540,1475
1541,1423
1542,1433
1543,1472
1544,1535
1545,1629
1546,1717
1547,1779
1548,1840
1549,1878
1550,1808
1551,1830
1552,2183
1553,2494
1554,2518
1555,2352
1556,2214
1557,1955
1558,1493
1559,1202
1560,1408
1561,1709
1562,1971
1563,2160
1564,2292
1565,2324
1566,2277
1567,2167
1568,2002
1569,1777
1570,1599
1571,1487
1572,1433
1573,1431
1574,1488
1575,1554
1576,1617
1577,1695
1578,1761
1579,1812
1580,1851
1581,1881
1582,1695
1583,2128
1584,2448
1585,2512
1586,2384
1587,2269
1588,2035
1589,1600
1590,1254
1591,1405
1592,1686
1593,1948
1594,2135
1595,2253
1596,2298
1597,2257
1598,2173
1599,2011
1600,1794
1601,1626
1602,1505
1603,1451
1604,1457
1605,1511
1606,1580
1607,1650
1608,1712
1609,1766
1610,1801
1611,1829
1612,1732
1613,1507
1614,2043
1615,2384
1616,2506
1617,2415
1618,2289
1619,2080
1620,1647
1621,1252
1622,1361
1623,1666
1624,1935
1625,2123
1626,2227
1627,2289
1628,2263
1629,2169
1630,2015
1631,1809
1632,1628
1633,1505
1634,1451
1635,1452
1636,1496
1637,1584
1638,1659
1639,1740
1640,1792
1641,1826
1642,1845
1643,1863
1644,1246
1645,1981
1646,2350
1647,2508
1648,2435
1649,2325
1650,2102
1651,1723
1652,1237
1653,1313
1654,1639
1655,1927
1656,2113
1657,2222
1658,2288
1659,2267
1660,2163
1661,2014
1662,1821
1663,1644
1664,1509
1665,1446
1666,1453
1667,1501
1668,1579
1669,1653
1670,1734
1671,1808
1672,1846
1673,1866
1674,1875
1675,1065
1676,1921
1677,2288
1678,2482
1679,2432
1680,2333
1681,2155
1682,1779
1683,1264
1684,1287
1685,1597
1686,1897
1687,2106
1688,2231
1689,2321
1690,2307
1691,2224
1692,2042
1693,1840
1694,1646
1695,1501
1696,1424
1697,1412
1698,1471
1699,1535
1700,1636
1701,1726
1702,1791
1703,1840
1704,1872
1705,1904
1706,1035
1707,1863
1708,2256
1709,2474
1710,2443
1711,2347
1712,2151
1713,1840
1714,1296
1715,1215
1716,1529
1717,1853
1718,2077
1719,2215
1720,2301
1721,2343
1722,2275
1723,2123
1724,1921
1725,1717
1726,1535
1727,1433
1728,1409
1729,1451
1730,1515
1731,1595
1732,1683
1733,1771
1734,1813
1735,1867
1736,1891
1737,1641
1738,1797
1739,2203
1740,2485
1741,2473
1742,2384
1743,2177
1744,1898
1745,1338
1746,1178
1747,1472
1748,1810
1749,2032
1750,2183
1751,2297
1752,2333
1753,2287
1754,2157
1755,1963
1756,1739
1757,1566
1758,1454
1759,1393
1760,1425
1761,1497
1762,1587
1763,1669
1764,1748
1765,1814
1766,1856
1767,1893
1768,2127
1769,1677
1770,2175
1771,2477
1772,2505
1773,2416
1774,2227
1775,1967
1776,1424
1777,1159
1778,1423
1779,1760
1780,1985
1781,2151
1782,2257
1783,2314
1784,2293
1785,2171
1786,1981
1787,1779
1788,1616
1789,1486
1790,1418
1791,1440
1792,1479
1793,1564
1794,1643
1795,1724
1796,1790
1797,1829
1798,1867
1799,1778
1800,1506
1801,2105
1802,2436
1803,2521
1804,2470
1805,2290
1806,2058
1807,1563
1808,1155
1809,1341
1810,1697
1811,1949
1812,2096
1813,2199
1814,2287
1815,2298
1816,2181
1817,2005
1818,1813
1819,1627
1820,1506
1821,1446
1822,1456
1823,1507
1824,1566
1825,1652
1826,1711
1827,1776
1828,1823
1829,1859
1830,1891
1831,1319
1832,2038
1833,2384
1834,2505
1835,2448
1836,2294
1837,2071
1838,1638
1839,1200
1840,1344
1841,1681
1842,1926
1843,2067
1844,2193
1845,2279
1846,2301
1847,2210
1848,2038
1849,1845
1850,1663
1851,1533
1852,1447
1853,1449
1854,1502
1855,1574
1856,1648
1857,1712
1858,1775
1859,1813
1860,1841
1861,1861
1862,1068
1863,1939
1864,2341
1865,2528
1866,2506
1867,2393
1868,2151
1869,1769
1870,1215
1871,1259
1872,1605
1873,1883
1874,2059
1875,2173
1876,2239
1877,2257
1878,2200
1879,2059
1880,1872
1881,1701
1882,1535
1883,1465
1884,1434
1885,1487
1886,1561
1887,1637
1888,1727
1889,1781
1890,1840
1891,1866
1892,1871
1893,959
1894,1887
1895,2266
1896,2480
1897,2459
1898,2355
1899,2149
1900,1830
1901,1263
1902,1264
1903,1617
1904,1914
1905,2096
1906,2192
1907,2275
1908,2300
1909,2224
1910,2080
1911,1871
1912,1680
1913,1535
1914,1445
1915,1414
1916,1464
1917,1535
1918,1631
1919,1718
1920,1793
1921,1846
1922,1883
1923,1887
1924,1284
1925,1791
1926,2201
1927,2480
1928,2501
1929,2417
1930,2191
1931,1955
1932,1360
1933,1175
1934,1510
1935,1838
1936,2021
1937,2123
1938,2175
1939,2226
1940,2210
1941,2106
1942,1919
1943,1739
1944,1574
1945,1472
1946,1438
1947,1479
1948,1534
1949,1627
1950,1707
1951,1788
1952,1840
1953,1872
1954,1905
1955,2122
1956,1691
1957,2161
1958,2451
1959,2484
1960,2419
1961,2192
1962,1986
1963,1423
1964,1138
1965,1430
1966,1788
1967,2023
1968,2159
1969,2241
1970,2292
1971,2289
1972,2175
1973,1986
1974,1771
1975,1587
1976,1450
1977,1379
1978,1415
1979,1481
1980,1565
1981,1666
1982,1744
1983,1806
1984,1872
1985,1900
1986,1921
1987,1936
1988,1953
1989,1951
1990,1936
1991,1935
1992,1920
1993,1904
1994,1895
1995,1890
1996,1892
1997,1891
1998,1904
1999,1901
2000,1898
2001,1904
2002,1901
2003,1904
2004,1897
2005,1889
2006,1872
2007,1867
2008,1854
2009,1840
2010,1841
2011,1842
2012,1841
2013,1843
2014,1853
2015,1861
2016,1869
2017,1868
2018,1885
2019,1885
2020,1879
2021,1887
2022,1879
2023,1862
2024,1854
2025,1842
2026,1837
2027,1831
2028,1840
2029,1841
2030,1851
2031,1858
2032,1871
2033,1872
2034,1875
2035,1869
2036,1871
2037,1872
2038,1874
2039,1871
2040,1858
2041,1847
2042,1840
2043,1841
2044,1835
2045,1840
2046,1850
2047,1856
2048,1863
2049,1875
2050,1877
2051,1883
2052,1873
2053,1874
2054,1888
2055,1890
2056,1878
2057,1871
2058,1861
2059,1840
2060,1831
2061,1830
2062,1831
2063,1840
2064,1851
2065,1863
2066,1870
2067,1874
2068,1872
2069,1871
2070,1872
2071,1878
2072,1867
2073,1859
2074,1856
2075,1855
2076,1840
2077,1837
2078,1827
2079,1837
2080,1843
2081,1866
2082,1877
2083,1882
2084,1891
2085,1902
2086,1899
2087,1882
2088,1862
2089,1840
2090,1845
2091,1859
2092,1853
2093,1853
2094,1865
2095,1862
2096,1856
2097,1849
2098,1844
2099,1831
2100,1841
2101,1869
2102,1890
2103,1898
2104,1895
2105,1872
2106,1842
2107,1837
2108,1824
2109,1819
2110,1821
2111,1830
2112,1857
2113,1865
2114,1875
2115,1889
2116,1883
2117,1881
2118,1854
2119,1856
2120,1869
2121,1878
2122,1876
2123,1858
2124,1842
2125,1842
2126,1833
2127,1829
2128,1834
2129,1837
2130,1846
2131,1867
2132,1872
2133,1872
2134,1882
2135,1878
2136,1881
2137,1882
2138,1892
2139,1867
2140,1860
2141,1866
2142,1846
2143,1851
2144,1845
2145,1840
2146,1851
2147,1858
2148,1857
2149,1856
2150,1866
2151,1872
2152,1879
2153,1879
2154,1872
2155,1870
2156,1856
2157,1856
2158,1842
2159,1840
2160,1837
2161,1837
2162,1849
2163,1855
2164,1866
2165,1863
2166,1871
2167,1875
2168,1883
2169,1879
2170,1882
2171,1882
2172,1879
2173,1869
2174,1857
2175,1854
2176,1840
2177,1831
2178,1829
2179,1841
2180,1858
2181,1863
2182,1870
2183,1872
2184,1875
2185,1872
2186,1873
2187,1887
2188,1878
2189,1872
2190,1863
2191,1858
2192,1838
2193,1840
2194,1838
2195,1839
2196,1844
2197,1855
2198,1863
2199,1865
2200,1872
2201,1879
2202,1882
2203,1887
2204,1889
2205,1877
2206,1862
2207,1861
2208,1851
2209,1837
2210,1835
2211,1839
2212,1839
2213,1851
2214,1846
2215,1849
2216,1853
2217,1863
2218,1863
2219,1875
2220,1885
2221,1895
2222,1872
2223,1861
2224,1859
2225,1854
2226,1840
2227,1832
2228,1828
2229,1835
2230,1840
2231,1860
2232,1861
2233,1879
2234,1883
2235,1879
2236,1883
2237,1889
2238,1899
2239,1872
2240,1873
2241,1857
2242,1847
2243,1838
2244,1827
2245,1830
2246,1839
2247,1855
2248,1856
2249,1862
2250,1882
2251,1874
2252,1876
2253,1882
2254,1887
2255,1882
2256,1870
2257,1869
2258,1857
2259,1840
2260,1832
2261,1835
2262,1850
2263,1847
2264,1865
2265,1867
2266,1866
2267,1871
2268,1878
2269,1877
2270,1883
2271,1881
2272,1879
2273,1867
2274,1844
2275,1837
2276,1831
2277,1827
2278,1840
2279,1840
2280,1845
2281,1857
2282,1872
2283,1865
2284,1874
2285,1887
2286,1883
2287,1882
2288,1877
2289,1865
2290,1865
2291,1860
2292,1845
2293,1837
2294,1837
2295,1838
2296,1843
2297,1857
2298,1869
2299,1871
2300,1863
2301,1878
2302,1884
2303,1887
2304,1883
2305,1879
2306,1867
2307,1854
2308,1840
2309,1841
2310,1835
2311,1837
2312,1844
2313,1842
2314,1854
2315,1866
2316,1871
2317,1872
2318,1882
2319,1882
2320,1887
2321,1891
2322,1872
2323,1872
2324,1856
2325,1834
2326,1833
2327,1831
2328,1833
2329,1842
2330,1853
2331,1870
2332,1870
2333,1878
2334,1872
2335,1872
2336,1872
2337,1876
2338,1878
2339,1875
2340,1872
2341,1855
2342,1837
2343,1840
2344,1835
2345,1840
2346,1843
2347,1855
2348,1862
2349,1871
2350,1872
2351,1883
2352,1878
2353,1873
2354,1882
2355,1887
2356,1861
2357,1862
2358,1850
2359,1841
2360,1838
2361,1837
2362,1840
2363,1845
2364,1862
2365,1861
2366,1865
2367,1875
2368,1883
2369,1888
2370,1890
2371,1889
2372,1879
2373,1870
2374,1856
2375,1840
2376,1831
2377,1831
2378,1839
2379,1840
2380,1846
2381,1866
2382,1858
2383,1872
2384,1872
2385,1879
2386,1882
2387,1887
2388,1890
2389,1879
2390,1866
2391,1856
2392,1831
2393,1831
2394,1829
2395,1830
2396,1835
2397,1847
2398,1857
2399,1867
2400,1875
2401,1879
2402,1885
2403,1883
2404,1883
2405,1882
2406,1872
2407,1857
2408,1854
2409,1834
2410,1834
2411,1830
2412,1839
2413,1851
2414,1871
2415,1872
2416,1872
2417,1882
2418,1875
2419,1877
2420,1877
2421,1891
2422,1875
2423,1869
2424,1845
2425,1840
2426,1825
2427,1824
2428,1828
2429,1834
2430,1842
2431,1866
2432,1863
2433,1865
2434,1879
2435,1885
2436,1882
2437,1887
2438,1884
2439,1872
2440,1869
2441,1853
2442,1844
2443,1831
2444,1833
2445,1838
2446,1847
2447,1861
2448,1873
2449,1874
2450,1879
2451,1881
2452,1885
2453,1882
2454,1877
2455,1873
2456,1863
2457,1859
2458,1851
2459,1840
2460,1833
2461,1834
2462,1840
2463,1843
2464,1869
2465,1872
2466,1873
2467,1875
2468,1882
2469,1885
2470,1878
2471,1889
2472,1871
2473,1870
2474,1852
2475,1845
2476,1837
2477,1831
2478,1837
2479,1843
2480,1843
2481,1862
2482,1867
2483,1872
2484,1877
2485,1878
2486,1882
2487,1884
2488,1882
2489,1871
2490,1862
2491,1852
2492,1841
2493,1840
2494,1836
2495,1840
2496,1849
2497,1853
2498,1871
2499,1872
2500,1882
2501,1872
2502,1872
2503,1882
2504,1884
2505,1872
2506,1862
2507,1861
2508,1846
2509,1839
2510,1826
2511,1831
2512,1842
2513,1853
2514,1866
2515,1861
2516,1859
2517,1872
2518,1873
2519,1884
2520,1883
2521,1886
2522,1875
2523,1855
2524,1854
2525,1840
2526,1835
2527,1833
2528,1834
2529,1843
2530,1847
2531,1859
2532,1867
2533,1872
2534,1878
2535,1882
2536,1877
2537,1885
2538,1897
2539,1875
2540,1856
2541,1856
2542,1842
2543,1834
2544,1828
2545,1829
2546,1838
2547,1853
2548,1862
2549,1867
2550,1870
2551,1878
2552,1878
2553,1879
2554,1890
2555,1885
2556,1868
2557,1859
2558,1853
2559,1834
2560,1837
2561,1839
2562,1840
2563,1843
2564,1868
2565,1866
2566,1870
2567,1884
2568,1877
2569,1878
2570,1879
2571,1895
2572,1881
2573,1866
2574,1847
2575,1834
2576,1827
2577,1825
2578,1834
2579,1840
2580,1858
2581,1859
2582,1872
2583,1875
2584,1878
2585,1886
2586,1879
2587,1888
2588,1878
2589,1872
2590,1851
2591,1843
2592,1830
2593,1838
2594,1835
2595,1843
2596,1853
2597,1855
2598,1863
2599,1872
2600,1873
2601,1877
2602,1876
2603,1879
2604,1879
2605,1872
2606,1865
2607,1842
2608,1840
2609,1838
2610,1833
2611,1837
2612,1840
2613,1854
2614,1867
2615,1863
2616,1872
2617,1874
2618,1873
2619,1883
2620,1882
2621,1887
2622,1872
2623,1865
2624,1861
2625,1847
2626,1833
2627,1835
2628,1831
2629,1843
2630,1857
2631,1863
2632,1863
2633,1870
2634,1872
2635,1873
2636,1872
2637,1882
2638,1884
2639,1869
2640,1862
2641,1855
2642,1838
2643,1834
2644,1838
2645,1846
2646,1845
2647,1860
2648,1863
2649,1873
2650,1874
2651,1872
2652,1874
2653,1877
2654,1885
2655,1883
2656,1871
2657,1862
2658,1840
2659,1839
2660,1835
2661,1834
2662,1843
2663,1846
2664,1856
2665,1862
2666,1870
2667,1869
2668,1875
2669,1882
2670,1887
2671,1887
2672,1870
2673,1866
2674,1850
2675,1842
2676,1834
2677,1837
2678,1835
2679,1847
2680,1848
2681,1860
2682,1866
2683,1872
2684,1872
2685,1877
2686,1889
2687,1893
2688,1879
2689,1872
2690,1870
2691,1854
2692,1842
2693,1831
2694,1830
2695,1823
2696,1840
2697,1851
2698,1862
2699,1859
2700,1878
2701,1878
2702,1883
2703,1886
2704,1882
2705,1873
2706,1859
2707,1855
2708,1849
2709,1841
2710,1837
2711,1835
2712,1840
2713,1847
2714,1866
2715,1866
2716,1871
2717,1875
2718,1886
2719,1878
2720,1883
2721,1888
2722,1872
2723,1854
2724,1851
2725,1842
2726,1833
2727,1829
2728,1833
2729,1840
2730,1854
2731,1857
2732,1863
2733,1872
2734,1881
2735,1882
2736,1879
2737,1883
2738,1885
2739,1872
2740,1855
2741,1854
2742,1841
2743,1836
2744,1834
2745,1833
2746,1843
2747,1853
2748,1861
2749,1866
2750,1882
2751,1881
2752,1880
2753,1878
2754,1883
2755,1873
2756,1858
2757,1853
2758,1837
2759,1826
2760,1830
2761,1837
2762,1841
2763,1849
2764,1867
2765,1871
2766,1876
2767,1882
2768,1879
2769,1879
2770,1886
2771,1887
2772,1865
2773,1862
2774,1859
2775,1841
2776,1840
2777,1835
2778,1835
2779,1843
2780,1861
2781,1867
2782,1871
2783,1857
2784,1873
2785,1874
2786,1872
2787,1879
2788,1890
2789,1867
2790,1857
2791,1854
2792,1835
2793,1831
2794,1834
2795,1842
2796,1850
2797,1856
2798,1861
2799,1868
2800,1872
2801,1880
2802,1882
2803,1884
2804,1890
2805,1881
2806,1869
2807,1853
2808,1845
2809,1829
2810,1831
2811,1831
2812,1840
2813,1845
2814,1856
2815,1859
2816,1863
2817,1873
2818,1875
2819,1885
2820,1894
2821,1887
2822,1874
2823,1858
2824,1853
2825,1834
2826,1839
2827,1834
2828,1837
2829,1840
2830,1858
2831,1863
2832,1869
2833,1867
2834,1876
2835,1879
2836,1878
2837,1886
2838,1879
2839,1869
2840,1856
2841,1851
2842,1843
2843,1822
2844,1826
2845,1840
2846,1834
2847,1855
2848,1859
2849,1871
2850,1884
2851,1878
2852,1875
2853,1883
2854,1891
2855,1878
2856,1873
2857,1861
2858,1847
2859,1839
2860,1837
2861,1833
2862,1843
2863,1856
2864,1867
2865,1872
2866,1871
2867,1872
2868,1877
2869,1881
2870,1885
2871,1889
2872,1867
2873,1858
2874,1846
2875,1840
2876,1831
2877,1830
2878,1835
2879,1835
2880,1851
2881,1871
2882,1875
2883,1870
2884,1878
2885,1884
2886,1879
2887,1891
2888,1877
2889,1867
2890,1860
2891,1847
2892,1839
2893,1836
2894,1833
2895,1843
2896,1842
2897,1869
2898,1862
2899,1869
2900,1882
2901,1885
2902,1881
2903,1886
2904,1904
2905,1885
2906,1878
2907,1869
2908,1843
2909,1849
2910,1839
2911,1841
2912,1850
2913,1854
2914,1874
2915,1871
2916,1874
2917,1872
2918,1870
2919,1884
2920,1885
2921,1888
2922,1875
2923,1862
2924,1859
2925,1840
2926,1829
2927,1836
2928,1835
2929,1840
2930,1850
2931,1870
2932,1872
2933,1868
2934,1881
2935,1874
2936,1878
2937,1885
2938,1877
2939,1862
2940,1853
2941,1851
2942,1834
2943,1835
2944,1814
2945,1819
2946,1825
2947,1843
2948,1854
2949,1861
2950,1863
2951,1872
2952,1872
2953,1873
2954,1878
2955,1869
2956,1855
2957,1858
2958,1853
2959,1840
2960,1841
2961,1842
2962,1850
2963,1847
2964,1847
2965,1847
2966,1857
2967,1862
2968,1883
2969,1884
2970,1889
2971,1883
2972,1868
2973,1858
2974,1850
2975,1835
2976,1821
2977,1820
2978,1830
2979,1841
2980,1850
2981,1861
2982,1867
2983,1354
2984,1957
2985,2118
2986,2224
2987,2240
2988,2160
2989,2106
2990,2042
2991,1936
2992,1716
2993,1490
2994,1443
2995,1579
2996,1761
2997,1913
2998,2059
2999,2178
3000,2234
3001,2259
3002,2224
3003,2139
3004,2002
3005,1858
3006,1715
3007,1593
3008,1492
3009,1439
3010,1426
3011,1459
3012,1527
3013,1591
3014,1098
3015,1759
3016,1999
3017,2192
3018,2224
3019,2162
3020,2107
3021,2072
3022,1923
3023,1622
3024,1405
3025,1455
3026,1663
3027,1875
3028,2079
3029,2243
3030,2349
3031,2368
3032,2293
3033,2178
3034,2017
3035,1831
3036,1655
3037,1535
3038,1447
3039,1419
3040,1431
3041,1495
3042,1557
3043,1614
3044,1679
3045,1674
3046,1755
3047,2053
3048,2287
3049,2340
3050,2267
3051,2163
3052,2112
3053,1883
3054,1535
3055,1381
3056,1535
3057,1766
3058,1968
3059,2145
3060,2274
3061,2338
3062,2331
3063,2241
3064,2105
3065,1914
3066,1712
3067,1564
3068,1458
3069,1415
3070,1450
3071,1519
3072,1571
3073,1632
3074,1690
3075,1739
3076,1727
3077,1521
3078,2041
3079,2375
3080,2448
3081,2352
3082,2221
3083,2135
3084,1871
3085,1462
3086,1344
3087,1584
3088,1850
3089,2062
3090,2189
3091,2250
3092,2273
3093,2253
3094,2142
3095,1973
3096,1775
3097,1600
3098,1488
3099,1427
3100,1423
3101,1482
3102,1535
3103,1613
3104,1678
3105,1733
3106,1785
3107,1807
3108,1515
3109,1987
3110,2320
3111,2448
3112,2363
3113,2191
3114,2111
3115,1821
3116,1424
3117,1344
3118,1599
3119,1887
3120,2118
3121,2277
3122,2338
3123,2309
3124,2246
3125,2114
3126,1925
3127,1700
3128,1531
3129,1425
3130,1403
3131,1424
3132,1491
3133,1561
3134,1653
3135,1743
3136,1809
3137,1863
3138,1891
3139,1377
3140,1999
3141,2304
3142,2459
3143,2371
3144,2219
3145,2096
3146,1792
3147,1393
3148,1312
3149,1564
3150,1847
3151,2096
3152,2266
3153,2368
3154,2383
3155,2298
3156,2146
3157,1936
3158,1682
3159,1503
3160,1398
3161,1360
3162,1399
3163,1487
3164,1570
3165,1653
3166,1735
3167,1808
3168,1861
3169,1898
3170,1104
3171,1946
3172,2293
3173,2506
3174,2448
3175,2292
3176,2160
3177,1834
3178,1367
3179,1239
3180,1510
3181,1821
3182,2054
3183,2215
3184,2305
3185,2319
3186,2251
3187,2133
3188,1931
3189,1713
3190,1529
3191,1424
3192,1381
3193,1421
3194,1491
3195,1578
3196,1653
3197,1735
3198,1813
3199,1867
3200,1901
3201,1185
3202,1872
3203,2256
3204,2541
3205,2512
3206,2390
3207,2220
3208,1921
3209,1395
3210,1160
3211,1412
3212,1728
3213,1988
3214,2161
3215,2263
3216,2323
3217,2270
3218,2167
3219,1985
3220,1776
3221,1600
3222,1466
3223,1422
3224,1425
3225,1486
3226,1556
3227,1642
3228,1724
3229,1790
3230,1851
3231,1871
3232,1846
3233,1774
3234,2198
3235,2480
3236,2491
3237,2415
3238,2240
3239,1978
3240,1450
3241,1149
3242,1378
3243,1717
3244,1978
3245,2147
3246,2256
3247,2327
3248,2291
3249,2194
3250,2031
3251,1813
3252,1623
3253,1488
3254,1434
3255,1430
3256,1490
3257,1557
3258,1631
3259,1707
3260,1775
3261,1812
3262,1855
3263,1982
3264,1604
3265,2135
3266,2454
3267,2506
3268,2443
3269,2269
3270,2031
3271,1535
3272,1204
3273,1406
3274,1725
3275,1968
3276,2126
3277,2233
3278,2288
3279,2263
3280,2167
3281,2002
3282,1807
3283,1625
3284,1492
3285,1431
3286,1439
3287,1502
3288,1584
3289,1652
3290,1729
3291,1781
3292,1810
3293,1839
3294,1728
3295,1415
3296,2053
3297,2425
3298,2543
3299,2498
3300,2323
3301,2096
3302,1661
3303,1161
3304,1325
3305,1665
3306,1936
3307,2107
3308,2214
3309,2279
3310,2262
3311,2165
3312,2011
3313,1808
3314,1635
3315,1502
3316,1431
3317,1452
3318,1505
3319,1584
3320,1667
3321,1735
3322,1793
3323,1831
3324,1856
3325,1867
3326,1201
3327,1973
3328,2333
3329,2493
3330,2467
3331,2311
3332,2112
3333,1760
3334,1211
3335,1306
3336,1650
3337,1935
3338,2108
3339,2225
3340,2290
3341,2291
3342,2186
3343,2026
3344,1821
3345,1642
3346,1502
3347,1436
3348,1429
3349,1488
3350,1563
3351,1648
3352,1740
3353,1803
3354,1857
3355,1872
3356,1887
3357,1009
3358,1923
3359,2304
3360,2501
3361,2490
3362,2359
3363,2156
3364,1853
3365,1259
3366,1246
3367,1596
3368,1902
3369,2083
3370,2187
3371,2241
3372,2271
3373,2209
3374,2073
3375,1861
3376,1663
3377,1516
3378,1427
3379,1415
3380,1465
3381,1535
3382,1622
3383,1711
3384,1787
3385,1841
3386,1883
3387,1911
3388,972
3389,1882
3390,2299
3391,2506
3392,2493
3393,2378
3394,2157
3395,1873
3396,1249
3397,1183
3398,1520
3399,1840
3400,2037
3401,2190
3402,2294
3403,2338
3404,2286
3405,2117
3406,1922
3407,1714
3408,1535
3409,1424
3410,1392
3411,1429
3412,1520
3413,1615
3414,1698
3415,1784
3416,1843
3417,1872
3418,1890
3419,1293
3420,1811
3421,2245
3422,2515
3423,2518
3424,2407
3425,2176
3426,1961
3427,1318
3428,1142
3429,1475
3430,1839
3431,2035
3432,2129
3433,2207
3434,2265
3435,2245
3436,2132
3437,1958
3438,1765
3439,1588
3440,1461
3441,1418
3442,1430
3443,1489
3444,1583
3445,1667
3446,1742
3447,1809
3448,1855
3449,1886
3450,2187
3451,1657
3452,2171
3453,2496
3454,2559
3455,2487
3456,2257
3457,2067
3458,1459
3459,1101
3460,1385
3461,1755
3462,1984
3463,2112
3464,2202
3465,2239
3466,2234
3467,2142
3468,1974
3469,1789
3470,1633
3471,1507
3472,1437
3473,1440
3474,1479
3475,1535
3476,1629
3477,1718
3478,1793
3479,1847
3480,1891
3481,1805
3482,1482
3483,2106
3484,2457
3485,2559
3486,2521
3487,2307
3488,2131
3489,1596
3490,1115
3491,1318
3492,1678
3493,1932
3494,2075
3495,2162
3496,2239
3497,2256
3498,2174
3499,2032
3500,1843
3501,1673
3502,1535
3503,1462
3504,1469
3505,1503
3506,1558
3507,1635
3508,1699
3509,1770
3510,1812
3511,1855
3512,1874
3513,1294
3514,2023
3515,2391
3516,2557
3517,2538
3518,2341
3519,2160
3520,1735
3521,1162
3522,1313
3523,1680
3524,1951
3525,2078
3526,2143
3527,2198
3528,2214
3529,2160
3530,2032
3531,1842
3532,1667
3533,1523
3534,1442
3535,1427
3536,1488
3537,1579
3538,1659
3539,1728
3540,1807
3541,1831
3542,1850
3543,1857
3544,1060
3545,1932
3546,2316
3547,2529
3548,2534
3549,2379
3550,2176
3551,1797
3552,1175
3553,1258
3554,1651
3555,1909
3556,2074
3557,2174
3558,2236
3559,2262
3560,2205
3561,2058
3562,1873
3563,1687
3564,1555
3565,1456
3566,1433
3567,1472
3568,1535
3569,1631
3570,1726
3571,1793
3572,1840
3573,1877
3574,1891
3575,937
3576,1871
3577,2265
3578,2514
3579,2540
3580,2404
3581,2188
3582,1879
3583,1235
3584,1197
3585,1559
3586,1887
3587,2085
3588,2182
3589,2233
3590,2251
3591,2190
3592,2070
3593,1888
3594,1712
3595,1535
3596,1451
3597,1411
3598,1456
3599,1535
3600,1631
3601,1713
3602,1785
3603,1845
3604,1891
3605,1898
3606,1898
3607,1904
3608,1913
3609,1911
3610,1906
3611,1906
3612,1900
3613,1908
3614,1919
3615,1921
3616,1925
3617,1923
3618,1911
3619,1904
3620,1904
3621,1890
3622,1884
3623,1872
3624,1856
3625,1843
3626,1843
3627,1840
3628,1847
3629,1854
3630,1870
3631,1872
3632,1874
3633,1874
3634,1879
3635,1881
3636,1883
3637,1885
3638,1881
3639,1865
3640,1851
3641,1855
3642,1840
3643,1835
3644,1839
3645,1841
3646,1852
3647,1872
3648,1872
3649,1872
3650,1872
3651,1872
3652,1878
3653,1882
3654,1883
3655,1862
3656,1856
3657,1853
3658,1845
3659,1843
3660,1842
3661,1841
3662,1836
3663,1845
3664,1850
3665,1863
3666,1871
3667,1878
3668,1876
3669,1878
3670,1888
3671,1879
3672,1880
3673,1862
3674,1853
3675,1835
3676,1834
3677,1840
3678,1855
3679,1853
3680,1863
3681,1857
3682,1856
3683,1862
3684,1867
3685,1865
3686,1872
3687,1890
3688,1872
3689,1847
3690,1823
3691,1823
3692,1833
3693,1834
3694,1838
3695,1842
3696,1852
3697,1867
3698,1873
3699,1873
3700,1877
3701,1877
3702,1882
3703,1889
3704,1889
3705,1874
3706,1872
3707,1859
3708,1846
3709,1840
3710,1849
3711,1840
3712,1846
3713,1859
3714,1871
3715,1866
3716,1871
3717,1865
3718,1872
3719,1874
3720,1894
3721,1901
3722,1893
3723,1877
3724,1858
3725,1834
3726,1844
3727,1856
3728,1845
3729,1840
3730,1846
3731,1839
3732,1819
3733,1855
3734,1868
3735,1861
3736,1857
3737,1886
3738,1883
3739,1874
3740,1868
3741,1831
3742,1826
3743,1818
3744,1825
3745,1842
3746,1846
3747,1872
3748,1872
3749,1879
3750,1892
3751,1906
3752,1901
3753,1905
3754,1903
3755,1870
3756,1859
3757,1836
3758,1826
3759,1824
3760,1824
3761,1834
3762,1843
3763,1858
3764,1869
3765,1874
3766,1894
3767,1888
3768,1886
3769,1873
3770,1872
3771,1862
3772,1868
3773,1863
3774,1854
3775,1843
3776,1840
3777,1834
3778,1837
3779,1837
3780,1842
3781,1843
3782,1851
3783,1870
3784,1872
3785,1878
3786,1879
3787,1885
3788,1879
3789,1867
3790,1859
3791,1843
3792,1831
3793,1837
3794,1842
3795,1844
3796,1853
3797,1866
3798,1870
3799,1867
3800,1875
3801,1879
3802,1885
3803,1881
3804,1879
3805,1857
3806,1851
3807,1851
3808,1826
3809,1837
3810,1834
3811,1842
3812,1850
3813,1850
3814,1862
3815,1867
3816,1879
3817,1877
3818,1882
3819,1879
3820,1889
3821,1882
3822,1879
3823,1863
3824,1855
3825,1840
3826,1834
3827,1834
3828,1840
3829,1840
3830,1852
3831,1867
3832,1876
3833,1874
3834,1873
3835,1879
3836,1884
3837,1888
3838,1872
3839,1857
3840,1858
3841,1847
3842,1840
3843,1840
3844,1841
3845,1845
3846,1855
3847,1861
3848,1856
3849,1865
3850,1874
3851,1879
3852,1884
3853,1893
3854,1888
3855,1869
3856,1863
3857,1856
3858,1840
3859,1839
3860,1840
3861,1839
3862,1850
3863,1847
3864,1859
3865,1867
3866,1883
3867,1890
3868,1893
3869,1897
3870,1895
3871,1866
3872,1855
3873,1840
3874,1840
3875,1829
3876,1836
3877,1841
3878,1851
3879,1856
3880,1856
3881,1865
3882,1870
3883,1875
3884,1865
3885,1870
3886,1886
3887,1886
3888,1877
3889,1862
3890,1856
3891,1840
3892,1835
3893,1833
3894,1835
3895,1840
3896,1850
3897,1867
3898,1862
3899,1872
3900,1874
3901,1881
3902,1881
3903,1888
3904,1881
3905,1876
3906,1869
3907,1859
3908,1838
3909,1833
3910,1835
3911,1837
3912,1841
3913,1867
3914,1870
3915,1865
3916,1883
3917,1879
3918,1872
3919,1878
3920,1883
3921,1879
3922,1871
3923,1860
3924,1841
3925,1824
3926,1827
3927,1820
3928,1810
3929,1826
3930,1866
3931,1872
3932,1867
3933,1867
3934,1874
3935,1877
3936,1872
3937,1872
3938,1872
3939,1859
3940,1859
3941,1847
3942,1831
3943,1834
3944,1838
3945,1842
3946,1855
3947,1870
3948,1872
3949,1876
3950,1879
3951,1882
3952,1885
3953,1883
3954,1882
3955,1867
3956,1857
3957,1840
3958,1837
3959,1834
3960,1833
3961,1845
3962,1846
3963,1859
3964,1871
3965,1872
3966,1871
3967,1878
3968,1887
3969,1889
3970,1887
3971,1882
3972,1867
3973,1855
3974,1847
3975,1826
3976,1826
3977,1827
3978,1837
3979,1846
3980,1850
3981,1863
3982,1870
3983,1872
3984,1873
3985,1875
3986,1879
3987,1888
3988,1870
3989,1864
3990,1851
3991,1839
3992,1831
3993,1836
3994,1835
3995,1842
3996,1850
3997,1862
3998,1865
3999,1872
4000,1879
4001,1886
4002,1879
4003,1889
4004,1893
4005,1871
4006,1853
4007,1848
4008,1840
4009,1831
4010,1833
4011,1840
4012,1847
4013,1845
4014,1858
4015,1859
4016,1867
4017,1873
4018,1883
4019,1883
4020,1890
4021,1879
4022,1872
4023,1856
4024,1847
4025,1840
4026,1837
4027,1834
4028,1841
4029,1845
4030,1869
4031,1873
4032,1865
4033,1879
4034,1886
4035,1885
4036,1877
4037,1894
4038,1872
4039,1863
4040,1857
4041,1840
4042,1838
4043,1827
4044,1838
4045,1840
4046,1841
4047,1857
4048,1861
4049,1863
4050,1872
4051,1883
4052,1889
4053,1895
4054,1888
4055,1883
4056,1862
4057,1852
4058,1841
4059,1826
4060,1831
4061,1840
4062,1842
4063,1855
4064,1869
4065,1874
4066,1883
4067,1881
4068,1886
4069,1889
4070,1894
4071,1879
4072,1871
4073,1851
4074,1840
4075,1825
4076,1825
4077,1833
4078,1841
4079,1851
4080,1862
4081,1862
4082,1875
4083,1877
4084,1882
4085,1883
4086,1885
4087,1881
4088,1872
4089,1871
4090,1858
4091,1840
4092,1834
4093,1840
4094,1845
4095,1847
4096,1857
4097,1867
4098,1872
4099,1849
4100,1859
4101,1867
4102,1876
4103,1874
4104,1872
4105,1867
4106,1853
4107,1837
4108,1833
4109,1829
4110,1836
4111,1838
4112,1843
4113,1853
4114,1872
4115,1872
4116,1893
4117,1884
4118,1883
4119,1889
4120,1889
4121,1887
4122,1864
4123,1853
4124,1852
4125,1840
4126,1833
4127,1840
4128,1841
4129,1856
4130,1865
4131,1866
4132,1878
4133,1872
4134,1884
4135,1883
4136,1891
4137,1885
4138,1863
4139,1855
4140,1840
4141,1840
4142,1829
4143,1831
4144,1840
4145,1838
4146,1847
4147,1871
4148,1876
4149,1885
4150,1883
4151,1881
4152,1886
4153,1893
4154,1886
4155,1869
4156,1861
4157,1857
4158,1835
4159,1831
4160,1833
4161,1840
4162,1846
4163,1847
4164,1865
4165,1868
4166,1872
4167,1877
4168,1885
4169,1891
4170,1882
4171,1881
4172,1861
4173,1856
4174,1846
4175,1836
4176,1834
4177,1837
4178,1841
4179,1845
4180,1857
4181,1870
4182,1873
4183,1875
4184,1882
4185,1878
4186,1890
4187,1883
4188,1872
4189,1861
4190,1847
4191,1843
4192,1826
4193,1826
4194,1834
4195,1841
4196,1844
4197,1863
4198,1863
4199,1872
4200,1879
4201,1878
4202,1882
4203,1891
4204,1878
4205,1877
4206,1858
4207,1853
4208,1833
4209,1824
4210,1828
4211,1837
4212,1838
4213,1853
4214,1866
4215,1871
4216,1879
4217,1872
4218,1872
4219,1881
4220,1888
4221,1875
4222,1859
4223,1851
4224,1840
4225,1822
4226,1823
4227,1827
4228,1837
4229,1840
4230,1856
4231,1873
4232,1871
4233,1879
4234,1882
4235,1886
4236,1889
4237,1889
4238,1869
4239,1859
4240,1856
4241,1843
4242,1837
4243,1834
4244,1840
4245,1845
4246,1859
4247,1866
4248,1863
4249,1875
4250,1879
4251,1881
4252,1882
4253,1879
4254,1872
4255,1862
4256,1849
4257,1840
4258,1835
4259,1830
4260,1829
4261,1840
4262,1843
4263,1866
4264,1865
4265,1867
4266,1871
4267,1882
4268,1883
4269,1888
4270,1887
4271,1885
4272,1860
4273,1856
4274,1842
4275,1835
4276,1833
4277,1834
4278,1840
4279,1853
4280,1856
4281,1871
4282,1872
4283,1872
4284,1879
4285,1875
4286,1887
4287,1882
4288,1871
4289,1863
4290,1847
4291,1840
4292,1822
4293,1831
4294,1837
4295,1843
4296,1856
4297,1874
4298,1872
4299,1878
4300,1879
4301,1879
4302,1882
4303,1892
4304,1886
4305,1863
4306,1859
4307,1840
4308,1840
4309,1832
4310,1835
4311,1839
4312,1847
4313,1856
4314,1857
4315,1866
4316,1873
4317,1872
4318,1873
4319,1867
4320,1893
4321,1884
4322,1858
4323,1856
4324,1850
4325,1837
4326,1829
4327,1839
4328,1840
4329,1850
4330,1855
4331,1872
4332,1877
4333,1881
4334,1878
4335,1886
4336,1894
4337,1886
4338,1872
4339,1867
4340,1851
4341,1842
4342,1831
4343,1825
4344,1836
4345,1840
4346,1842
4347,1863
4348,1862
4349,1880
4350,1879
4351,1886
4352,1886
4353,1887
4354,1878
4355,1870
4356,1858
4357,1854
4358,1833
4359,1826
4360,1833
4361,1840
4362,1853
4363,1870
4364,1868
4365,1867
4366,1872
4367,1879
4368,1883
4369,1888
4370,1893
4371,1872
4372,1862
4373,1851
4374,1833
4375,1823
4376,1828
4377,1834
4378,1842
4379,1854
4380,1866
4381,1863
4382,1868
4383,1883
4384,1881
4385,1882
4386,1887
4387,1883
4388,1878
4389,1859
4390,1850
4391,1839
4392,1823
4393,1827
4394,1838
4395,1843
4396,1854
4397,1861
4398,1872
4399,1883
4400,1881
4401,1886
4402,1885
4403,1884
4404,1882
4405,1866
4406,1853
4407,1835
4408,1825
4409,1831
4410,1833
4411,1835
4412,1847
4413,1860
4414,1869
4415,1872
4416,1879
4417,1881
4418,1876
4419,1893
4420,1895
4421,1872
4422,1858
4423,1853
4424,1845
4425,1830
4426,1833
4427,1829
4428,1840
4429,1845
4430,1869
4431,1869
4432,1866
4433,1877
4434,1874
4435,1874
4436,1878
4437,1883
4438,1870
4439,1847
4440,1857
4441,1845
4442,1838
4443,1830
4444,1829
4445,1850
4446,1851
4447,1865
4448,1875
4449,1872
4450,1877
4451,1879
4452,1886
4453,1887
4454,1877
4455,1872
4456,1859
4457,1843
4458,1835
4459,1829
4460,1837
4461,1839
4462,1843
4463,1860
4464,1863
4465,1870
4466,1872
4467,1872
4468,1883
4469,1882
4470,1891
4471,1869
4472,1869
4473,1851
4474,1844
4475,1831
4476,1831
4477,1834
4478,1839
4479,1856
4480,1862
4481,1872
4482,1869
4483,1875
4484,1879
4485,1878
4486,1892
4487,1889
4488,1877
4489,1866
4490,1850
4491,1845
4492,1824
4493,1826
4494,1830
4495,1829
4496,1842
4497,1855
4498,1866
4499,1857
4500,1881
4501,1882
4502,1889
4503,1888
4504,1877
4505,1868
4506,1854
4507,1854
4508,1838
4509,1829
4510,1831
4511,1835
4512,1841
4513,1854
4514,1863
4515,1869
4516,1878
4517,1879
4518,1875
4519,1876
4520,1879
4521,1877
4522,1855
4523,1851
4524,1834
4525,1824
4526,1824
4527,1829
4528,1835
4529,1849
4530,1871
4531,1870
4532,1878
4533,1879
4534,1885
4535,1879
4536,1891
4537,1890
4538,1869
4539,1857
4540,1847
4541,1842
4542,1835
4543,1832
4544,1833
4545,1842
4546,1845
4547,1865
4548,1870
4549,1885
4550,1883
4551,1887
4552,1879
4553,1884
4554,1878
4555,1860
4556,1849
4557,1831
4558,1837
4559,1835
4560,1834
4561,1838
4562,1853
4563,1857
4564,1866
4565,1872
4566,1876
4567,1877
4568,1883
4569,1879
4570,1891
4571,1877
4572,1861
4573,1858
4574,1848
4575,1838
4576,1837
4577,1841
4578,1848
4579,1861
4580,1881
4581,1882
4582,1889
4583,1874
4584,1873
4585,1863
4586,1870
4587,1859
4588,1869
4589,1863
4590,1841
4591,1834
4592,1818
4593,1836
4594,1829
4595,1838
4596,1847
4597,1863
4598,1869
4599,1870
4600,1883
4601,1882
4602,1887
4603,1731
4604,2010
4605,2129
4606,2183
4607,2161
4608,2083
4609,2053
4610,2000
4611,1898
4612,1690
4613,1525
4614,1503
4615,1648
4616,1807
4617,1943
4618,2089
4619,2208
4620,2256
4621,2256
4622,2210
4623,2129
4624,1970
4625,1825
4626,1693
4627,1583
4628,1474
4629,1418
4630,1440
4631,1487
4632,1535
4633,1602
4634,1328
4635,1807
4636,2045
4637,2189
4638,2193
4639,2103
4640,2066
4641,2015
4642,1857
4643,1575
4644,1408
4645,1475
4646,1702
4647,1927
4648,2125
4649,2291
4650,2384
4651,2386
4652,2304
4653,2181
4654,2000
4655,1791
4656,1608
4657,1465
4658,1383
4659,1365
4660,1409
4661,1488
4662,1566
4663,1658
4664,1722
4665,1363
4666,1933
4667,2149
4668,2298
4669,2304
4670,2212
4671,2130
4672,2060
4673,1808
4674,1469
4675,1367
4676,1570
4677,1808
4678,2017
4679,2207
4680,2334
4681,2383
4682,2337
4683,2251
4684,2095
4685,1879
4686,1681
4687,1520
4688,1423
4689,1382
4690,1419
4691,1488
4692,1535
4693,1621
4694,1701
4695,1757
4696,1141
4697,1824
4698,2191
4699,2434
4700,2433
4701,2309
4702,2224
4703,2124
4704,1783
4705,1379
4706,1341
4707,1602
4708,1852
4709,2063
4710,2190
4711,2250
4712,2275
4713,2240
4714,2130
4715,1958
4716,1744
4717,1584
4718,1467
4719,1411
4720,1437
4721,1485
4722,1535
4723,1599
4724,1653
4725,1723
4726,1773
4727,1803
4728,1769
4729,2112
4730,2399
4731,2451
4732,2322
4733,2198
4734,2097
4735,1809
4736,1397
4737,1378
4738,1616
4739,1891
4740,2102
4741,2230
4742,2293
4743,2281
4744,2215
4745,2096
4746,1927
4747,1717
4748,1535
4749,1451
4750,1410
4751,1440
4752,1511
4753,1583
4754,1638
4755,1712
4756,1778
4757,1803
4758,1722
4759,1679
4760,2061
4761,2342
4762,2438
4763,2316
4764,2188
4765,2086
4766,1797
4767,1370
4768,1366
4769,1653
4770,1946
4771,2154
4772,2282
4773,2351
4774,2311
4775,2228
4776,2089
4777,1877
4778,1665
4779,1509
4780,1415
4781,1391
4782,1424
4783,1506
4784,1584
4785,1676
4786,1770
4787,1821
4788,1866
4789,1851
4790,1534
4791,2015
4792,2320
4793,2447
4794,2350
4795,2224
4796,2103
4797,1810
4798,1326
4799,1323
4800,1605
4801,1907
4802,2128
4803,2288
4804,2352
4805,2320
4806,2231
4807,2076
4808,1850
4809,1637
4810,1488
4811,1415
4812,1412
4813,1456
4814,1526
4815,1601
4816,1695
4817,1777
4818,1828
4819,1867
4820,1891
4821,1242
4822,1975
4823,2303
4824,2458
4825,2382
4826,2256
4827,2112
4828,1831
4829,1326
4830,1247
4831,1535
4832,1872
4833,2111
4834,2271
4835,2363
4836,2369
4837,2285
4838,2129
4839,1898
4840,1667
4841,1491
4842,1394
4843,1382
4844,1423
4845,1487
4846,1587
4847,1687
4848,1762
4849,1827
4850,1866
4851,1901
4852,1154
4853,1968
4854,2313
4855,2500
4856,2455
4857,2320
4858,2160
4859,1894
4860,1302
4861,1141
4862,1467
4863,1838
4864,2078
4865,2251
4866,2332
4867,2343
4868,2262
4869,2130
4870,1929
4871,1703
4872,1507
4873,1403
4874,1373
4875,1415
4876,1488
4877,1582
4878,1665
4879,1749
4880,1818
4881,1857
4882,1905
4883,1165
4884,1861
4885,2259
4886,2495
4887,2482
4888,2372
4889,2207
4890,1942
4891,1399
4892,1124
4893,1421
4894,1785
4895,2019
4896,2203
4897,2320
4898,2358
4899,2302
4900,2171
4901,1965
4902,1755
4903,1573
4904,1457
4905,1403
4906,1424
4907,1488
4908,1570
4909,1648
4910,1727
4911,1791
4912,1840
4913,1875
4914,1871
4915,1744
4916,2205
4917,2479
4918,2495
4919,2418
4920,2246
4921,2034
4922,1506
4923,1148
4924,1392
4925,1743
4926,1979
4927,2141
4928,2278
4929,2333
4930,2290
4931,2172
4932,1968
4933,1758
4934,1579
4935,1451
4936,1408
4937,1441
4938,1488
4939,1567
4940,1644
4941,1721
4942,1783
4943,1819
4944,1853
4945,1966
4946,1613
4947,2138
4948,2448
4949,2506
4950,2432
4951,2266
4952,2082
4953,1620
4954,1182
4955,1347
4956,1707
4957,1951
4958,2113
4959,2246
4960,2310
4961,2289
4962,2186
4963,1990
4964,1791
4965,1611
4966,1477
4967,1428
4968,1452
4969,1520
4970,1600
4971,1665
4972,1719
4973,1783
4974,1809
4975,1840
4976,1735
4977,1474
4978,2084
4979,2416
4980,2503
4981,2457
4982,2279
4983,2125
4984,1694
4985,1201
4986,1356
4987,1715
4988,1958
4989,2117
4990,2243
4991,2283
4992,2247
4993,2153
4994,1979
4995,1787
4996,1616
4997,1481
4998,1419
4999,1424
5000,1485
5001,1582
5002,1670
5003,1742
5004,1798
5005,1839
5006,1867
5007,1875
5008,1216
5009,1983
5010,2350
5011,2496
5012,2469
5013,2331
5014,2160
5015,1812
5016,1245
5017,1264
5018,1648
5019,1956
5020,2135
5021,2250
5022,2287
5023,2276
5024,2176
5025,1999
5026,1792
5027,1600
5028,1462
5029,1394
5030,1417
5031,1479
5032,1568
5033,1648
5034,1726
5035,1798
5036,1843
5037,1872
5038,1883
5039,1052
5040,1933
5041,2300
5042,2464
5043,2438
5044,2315
5045,2139
5046,1867
5047,1319
5048,1235
5049,1598
5050,1906
5051,2107
5052,2252
5053,2339
5054,2347
5055,2240
5056,2056
5057,1840
5058,1635
5059,1479
5060,1393
5061,1387
5062,1455
5063,1514
5064,1616
5065,1705
5066,1783
5067,1843
5068,1894
5069,1921
5070,1071
5071,1906
5072,2277
5073,2482
5074,2480
5075,2349
5076,2167
5077,1920
5078,1328
5079,1167
5080,1510
5081,1840
5082,2054
5083,2194
5084,2281
5085,2304
5086,2256
5087,2112
5088,1905
5089,1699
5090,1510
5091,1413
5092,1377
5093,1425
5094,1503
5095,1600
5096,1687
5097,1775
5098,1825
5099,1857
5100,1902
5101,1618
5102,1801
5103,2225
5104,2474
5105,2491
5106,2388
5107,2181
5108,1999
5109,1456
5110,1136
5111,1422
5112,1791
5113,2032
5114,2182
5115,2293
5116,2327
5117,2285
5118,2138
5119,1938
5120,1744
5121,1566
5122,1436
5123,1375
5124,1399
5125,1473
5126,1559
5127,1649
5128,1731
5129,1806
5130,1859
5131,1893
5132,2163
5133,1680
5134,2169
5135,2460
5136,2521
5137,2448
5138,2235
5139,2069
5140,1535
5141,1118
5142,1359
5143,1726
5144,1968
5145,2138
5146,2273
5147,2338
5148,2303
5149,2162
5150,1967
5151,1774
5152,1601
5153,1472
5154,1399
5155,1421
5156,1470
5157,1535
5158,1622
5159,1710
5160,1776
5161,1828
5162,1867
5163,1781
5164,1520
5165,2112
5166,2434
5167,2531
5168,2470
5169,2302
5170,2155
5171,1708
5172,1168
5173,1316
5174,1683
5175,1939
5176,2096
5177,2182
5178,2247
5179,2252
5180,2169
5181,1995
5182,1808
5183,1615
5184,1488
5185,1422
5186,1449
5187,1503
5188,1569
5189,1639
5190,1719
5191,1779
5192,1817
5193,1861
5194,1890
5195,1310
5196,2036
5197,2384
5198,2517
5199,2481
5200,2322
5201,2175
5202,1819
5203,1250
5204,1274
5205,1648
5206,1920
5207,2096
5208,2192
5209,2250
5210,2243
5211,2151
5212,1989
5213,1806
5214,1631
5215,1481
5216,1423
5217,1421
5218,1483
5219,1571
5220,1662
5221,1725
5222,1787
5223,1835
5224,1855
5225,1874
5226,1888
5227,1914
5228,1931
5229,1942
5230,1951
5231,1949
5232,1962
5233,1958
5234,1949
5235,1939
5236,1934
5237,1907
5238,1895
5239,1888
5240,1863
5241,1852
5242,1846
5243,1844
5244,1849
5245,1862
5246,1875
5247,1869
5248,1871
5249,1879
5250,1882
5251,1889
5252,1887
5253,1897
5254,1883
5255,1870
5256,1854
5257,1849
5258,1840
5259,1839
5260,1840
5261,1845
5262,1857
5263,1872
5264,1873
5265,1883
5266,1878
5267,1879
5268,1879
5269,1882
5270,1878
5271,1863
5272,1859
5273,1847
5274,1840
5275,1828
5276,1829
5277,1827
5278,1840
5279,1863
5280,1865
5281,1872
5282,1877
5283,1873
5284,1875
5285,1879
5286,1886
5287,1879
5288,1871
5289,1865
5290,1841
5291,1851
5292,1842
5293,1839
5294,1851
5295,1845
5296,1845
5297,1851
5298,1856
5299,1870
5300,1869
5301,1873
5302,1885
5303,1872
5304,1876
5305,1872
5306,1855
5307,1843
5308,1840
5309,1823
5310,1829
5311,1831
5312,1842
5313,1837
5314,1843
5315,1855
5316,1872
5317,1880
5318,1872
5319,1875
5320,1872
5321,1877
5322,1878
5323,1871
5324,1852
5325,1850
5326,1843
5327,1827
5328,1818
5329,1848
5330,1855
5331,1858
5332,1885
5333,1879
5334,1882
5335,1887
5336,1886
5337,1888
5338,1871
5339,1865
5340,1873
5341,1862
5342,1846
5343,1834
5344,1836
5345,1842
5346,1854
5347,1878
5348,1875
5349,1851
5350,1861
5351,1873
5352,1872
5353,1867
5354,1853
5355,1843
5356,1845
5357,1835
5358,1838
5359,1835
5360,1840
5361,1851
5362,1854
5363,1847
5364,1853
5365,1862
5366,1874
5367,1886
5368,1891
5369,1901
5370,1903
5371,1868
5372,1858
5373,1851
5374,1837
5375,1838
5376,1840
5377,1845
5378,1840
5379,1855
5380,1862
5381,1872
5382,1883
5383,1885
5384,1883
5385,1883
5386,1891
5387,1885
5388,1870
5389,1855
5390,1842
5391,1838
5392,1829
5393,1827
5394,1838
5395,1844
5396,1858
5397,1866
5398,1869
5399,1865
5400,1879
5401,1878
5402,1881
5403,1872
5404,1871
5405,1872
5406,1855
5407,1843
5408,1842
5409,1847
5410,1847
5411,1847
5412,1850
5413,1851
5414,1858
5415,1866
5416,1856
5417,1868
5418,1871
5419,1882
5420,1871
5421,1855
5422,1852
5423,1833
5424,1822
5425,1831
5426,1829
5427,1840
5428,1847
5429,1855
5430,1869
5431,1875
5432,1872
5433,1878
5434,1878
5435,1886
5436,1886
5437,1872
5438,1867
5439,1857
5440,1839
5441,1837
5442,1835
5443,1838
5444,1841
5445,1846
5446,1872
5447,1872
5448,1873
5449,1877
5450,1876
5451,1881
5452,1885
5453,1877
5454,1870
5455,1863
5456,1854
5457,1834
5458,1832
5459,1840
5460,1843
5461,1850
5462,1863
5463,1869
5464,1870
5465,1866
5466,1878
5467,1877
5468,1881
5469,1892
5470,1883
5471,1872
5472,1860
5473,1842
5474,1833
5475,1834
5476,1834
5477,1837
5478,1834
5479,1856
5480,1867
5481,1872
5482,1879
5483,1878
5484,1875
5485,1879
5486,1885
5487,1887
5488,1875
5489,1868
5490,1834
5491,1823
5492,1830
5493,1833
5494,1839
5495,1860
5496,1858
5497,1874
5498,1869
5499,1883
5500,1881
5501,1879
5502,1884
5503,1881
5504,1872
5505,1863
5506,1844
5507,1840
5508,1836
5509,1834
5510,1834
5511,1846
5512,1860
5513,1857
5514,1867
5515,1870
5516,1871
5517,1872
5518,1875
5519,1877
5520,1882
5521,1875
5522,1854
5523,1847
5524,1839
5525,1830
5526,1839
5527,1840
5528,1844
5529,1853
5530,1869
5531,1867
5532,1883
5533,1879
5534,1881
5535,1879
5536,1885
5537,1879
5538,1866
5539,1853
5540,1849
5541,1833
5542,1835
5543,1835
5544,1840
5545,1847
5546,1857
5547,1853
5548,1870
5549,1870
5550,1879
5551,1876
5552,1879
5553,1878
5554,1865
5555,1859
5556,1856
5557,1842
5558,1835
5559,1837
5560,1835
5561,1846
5562,1869
5563,1874
5564,1872
5565,1874
5566,1882
5567,1884
5568,1883
5569,1881
5570,1875
5571,1868
5572,1863
5573,1850
5574,1825
5575,1823
5576,1819
5577,1826
5578,1840
5579,1847
5580,1857
5581,1866
5582,1872
5583,1874
5584,1875
5585,1873
5586,1884
5587,1870
5588,1859
5589,1859
5590,1840
5591,1836
5592,1827
5593,1838
5594,1843
5595,1860
5596,1870
5597,1875
5598,1883
5599,1887
5600,1895
5601,1904
5602,1911
5603,1911
5604,1893
5605,1875
5606,1867
5607,1837
5608,1805
5609,1793
5610,1823
5611,1855
5612,1883
5613,1889
5614,1904
5615,1904
5616,1894
5617,1841
5618,1812
5619,1829
5620,1825
5621,1835
5622,1831
5623,1840
5624,1834
5625,1828
5626,1826
5627,1839
5628,1843
5629,1870
5630,1878
5631,1881
5632,1875
5633,1883
5634,1885
5635,1888
5636,1888
5637,1871
5638,1868
5639,1849
5640,1840
5641,1835
5642,1837
5643,1835
5644,1847
5645,1849
5646,1866
5647,1869
5648,1872
5649,1878
5650,1878
5651,1883
5652,1887
5653,1888
5654,1871
5655,1867
5656,1853
5657,1839
5658,1838
5659,1833
5660,1839
5661,1841
5662,1853
5663,1856
5664,1871
5665,1872
5666,1875
5667,1875
5668,1885
5669,1890
5670,1874
5671,1870
5672,1862
5673,1847
5674,1840
5675,1829
5676,1838
5677,1839
5678,1852
5679,1870
5680,1872
5681,1872
5682,1881
5683,1879
5684,1886
5685,1883
5686,1887
5687,1871
5688,1867
5689,1856
5690,1840
5691,1834
5692,1839
5693,1826
5694,1836
5695,1841
5696,1857
5697,1865
5698,1872
5699,1872
5700,1881
5701,1887
5702,1886
5703,1888
5704,1875
5705,1858
5706,1849
5707,1839
5708,1830
5709,1831
5710,1840
5711,1845
5712,1855
5713,1872
5714,1872
5715,1872
5716,1875
5717,1885
5718,1881
5719,1884
5720,1872
5721,1860
5722,1849
5723,1840
5724,1835
5725,1826
5726,1826
5727,1838
5728,1840
5729,1847
5730,1870
5731,1875
5732,1874
5733,1881
5734,1883
5735,1888
5736,1897
5737,1877
5738,1873
5739,1870
5740,1849
5741,1838
5742,1828
5743,1836
5744,1849
5745,1852
5746,1851
5747,1859
5748,1866
5749,1875
5750,1877
5751,1872
5752,1882
5753,1877
5754,1873
5755,1857
5756,1857
5757,1842
5758,1840
5759,1833
5760,1837
5761,1834
5762,1842
5763,1853
5764,1865
5765,1872
5766,1877
5767,1880
5768,1888
5769,1893
5770,1882
5771,1870
5772,1859
5773,1849
5774,1830
5775,1834
5776,1833
5777,1840
5778,1853
5779,1857
5780,1869
5781,1867
5782,1871
5783,1872
5784,1874
5785,1876
5786,1885
5787,1873
5788,1865
5789,1859
5790,1840
5791,1840
5792,1829
5793,1837
5794,1850
5795,1866
5796,1875
5797,1891
5798,1885
5799,1877
5800,1869
5801,1861
5802,1867
5803,1870
5804,1874
5805,1858
5806,1851
5807,1837
5808,1827
5809,1822
5810,1826
5811,1840
5812,1858
5813,1851
5814,1867
5815,1866
5816,1875
5817,1872
5818,1871
5819,1889
5820,1887
5821,1862
5822,1854
5823,1840
5824,1838
5825,1834
5826,1830
5827,1840
5828,1845
5829,1859
5830,1871
5831,1877
5832,1874
5833,1883
5834,1883
5835,1894
5836,1887
5837,1872
5838,1871
5839,1853
5840,1851
5841,1840
5842,1833
5843,1830
5844,1840
5845,1848
5846,1865
5847,1859
5848,1862
5849,1871
5850,1876
5851,1879
5852,1887
5853,1893
5854,1871
5855,1861
5856,1855
5857,1837
5858,1839
5859,1833
5860,1836
5861,1845
5862,1857
5863,1862
5864,1866
5865,1878
5866,1881
5867,1883
5868,1886
5869,1890
5870,1878
5871,1869
5872,1856
5873,1834
5874,1815
5875,1818
5876,1822
5877,1829
5878,1856
5879,1867
5880,1878
5881,1887
5882,1893
5883,1889
5884,1887
5885,1890
5886,1867
5887,1857
5888,1851
5889,1856
5890,1838
5891,1827
5892,1834
5893,1833
5894,1840
5895,1858
5896,1872
5897,1871
5898,1875
5899,1874
5900,1879
5901,1877
5902,1889
5903,1875
5904,1863
5905,1853
5906,1842
5907,1833
5908,1826
5909,1840
5910,1841
5911,1842
5912,1867
5913,1862
5914,1870
5915,1872
5916,1876
5917,1874
5918,1875
5919,1890
5920,1884
5921,1871
5922,1857
5923,1845
5924,1838
5925,1830
5926,1837
5927,1843
5928,1857
5929,1857
5930,1861
5931,1867
5932,1874
5933,1872
5934,1879
5935,1890
5936,1885
5937,1874
5938,1862
5939,1845
5940,1840
5941,1837
5942,1834
5943,1840
5944,1840
5945,1858
5946,1869
5947,1872
5948,1875
5949,1877
5950,1882
5951,1880
5952,1891
5953,1882
5954,1872
5955,1854
5956,1843
5957,1840
5958,1837
5959,1834
5960,1839
5961,1843
5962,1862
5963,1866
5964,1862
5965,1863
5966,1881
5967,1875
5968,1888
5969,1890
5970,1887
5971,1863
5972,1849
5973,1840
5974,1829
5975,1830
5976,1834
5977,1840
5978,1844
5979,1854
5980,1862
5981,1865
5982,1877
5983,1887
5984,1889
5985,1886
5986,1894
5987,1885
5988,1871
5989,1854
5990,1837
5991,1818
5992,1822
5993,1821
5994,1833
5995,1849
5996,1855
5997,1859
5998,1858
5999,1875
6000,1884
6001,1889
6002,1890
6003,1887
6004,1872
6005,1861
6006,1843
6007,1827
6008,1833
6009,1837
6010,1837
6011,1843
6012,1863
6013,1871
6014,1879
6015,1887
6016,1887
6017,1892
6018,1882
6019,1897
6020,1877
6021,1843
6022,1829
6023,1826
6024,1813
6025,1822
6026,1825
6027,1827
6028,1845
6029,1849
6030,1856
6031,1871
6032,1881
6033,1883
6034,1885
6035,1885
6036,1898
6037,1874
6038,1859
6039,1855
6040,1839
6041,1837
6042,1837
6043,1835
6044,1840
6045,1856
6046,1869
6047,1874
6048,1871
6049,1881
6050,1881
6051,1887
6052,1887
6053,1886
6054,1872
6055,1856
6056,1846
6057,1840
6058,1834
6059,1833
6060,1845
6061,1847
6062,1856
6063,1872
6064,1874
6065,1875
6066,1883
6067,1886
6068,1885
6069,1895
6070,1881
6071,1872
6072,1861
6073,1853
6074,1837
6075,1838
6076,1834
6077,1842
6078,1845
6079,1857
6080,1863
6081,1872
6082,1878
6083,1872
6084,1876
6085,1887
6086,1883
6087,1872
6088,1859
6089,1856
6090,1849
6091,1824
6092,1829
6093,1838
6094,1842
6095,1851
6096,1854
6097,1861
6098,1873
6099,1874
6100,1877
6101,1878
6102,1883
6103,1874
6104,1872
6105,1865
6106,1850
6107,1843
6108,1839
6109,1834
6110,1840
6111,1843
6112,1868
6113,1852
6114,1847
6115,1853
6116,1867
6117,1875
6118,1882
6119,1887
6120,1877
6121,1872
6122,1854
6123,1846
6124,1837
6125,1832
6126,1836
6127,1840
6128,1857
6129,1865
6130,1860
6131,1873
6132,1881
6133,1879
6134,1879
6135,1895
6136,1888
6137,1872
6138,1870
6139,1846
6140,1837
6141,1837
6142,1825
6143,1813
6144,1837
6145,1853
6146,1859
6147,1863
6148,1874
6149,1877
6150,1876
6151,1871
6152,1878
6153,1875
6154,1861
6155,1862
6156,1850
6157,1841
6158,1839
6159,1831
6160,1840
6161,1841
6162,1860
6163,1872
6164,1871
6165,1879
6166,1883
6167,1883
6168,1888
6169,1885
6170,1879
6171,1863
6172,1861
6173,1837
6174,1829
6175,1829
6176,1822
6177,1835
6178,1853
6179,1857
6180,1873
6181,1870
6182,1875
6183,1875
6184,1886
6185,1895
6186,1890
6187,1872
6188,1869
6189,1849
6190,1843
6191,1825
6192,1837
6193,1838
6194,1840
6195,1852
6196,1871
6197,1874
6198,1879
6199,1878
6200,1878
6201,1884
6202,1887
6203,1876
6204,1860
6205,1851
6206,1840
6207,1831
6208,1831
6209,1833
6210,1846
6211,1843
6212,1870
6213,1859
6214,1871
6215,1863
6216,1872
6217,1878
6218,1877
6219,1893
6220,1881
6221,1867
6222,1607
6223,2053
6224,2047
6225,2122
6226,2158
6227,2130
6228,2091
6229,2087
6230,2019
6231,1856
6232,1645
6233,1535
6234,1585
6235,1739
6236,1881
6237,2009
6238,2130
6239,2199
6240,2224
6241,2222
6242,2165
6243,2039
6244,1905
6245,1783
6246,1639
6247,1507
6248,1408
6249,1393
6250,1423
6251,1485
6252,1535
6253,1408
6254,1810
6255,1906
6256,2055
6257,2130
6258,2109
6259,2047
6260,2058
6261,1985
6262,1763
6263,1535
6264,1488
6265,1648
6266,1872
6267,2065
6268,2245
6269,2373
6270,2382
6271,2325
6272,2203
6273,2030
6274,1840
6275,1663
6276,1502
6277,1423
6278,1383
6279,1410
6280,1488
6281,1561
6282,1627
6283,1697
6284,1755
6285,1803
6286,2080
6287,2185
6288,2257
6289,2223
6290,2121
6291,2070
6292,1923
6293,1643
6294,1439
6295,1477
6296,1712
6297,1930
6298,2115
6299,2300
6300,2394
6301,2416
6302,2347
6303,2214
6304,2007
6305,1779
6306,1584
6307,1433
6308,1347
6309,1335
6310,1389
6311,1473
6312,1575
6313,1658
6314,1728
6315,1802
6316,1306
6317,2091
6318,2258
6319,2400
6320,2364
6321,2241
6322,2160
6323,1971
6324,1600
6325,1349
6326,1456
6327,1722
6328,1950
6329,2135
6330,2263
6331,2331
6332,2331
6333,2256
6334,2114
6335,1919
6336,1710
6337,1523
6338,1407
6339,1347
6340,1348
6341,1409
6342,1488
6343,1569
6344,1648
6345,1737
6346,1802
6347,1109
6348,2099
6349,2215
6350,2362
6351,2361
6352,2249
6353,2132
6354,1968
6355,1648
6356,1423
6357,1513
6358,1759
6359,1986
6360,2192
6361,2326
6362,2354
6363,2310
6364,2222
6365,2093
6366,1904
6367,1687
6368,1530
6369,1427
6370,1342
6371,1362
6372,1438
6373,1515
6374,1600
6375,1685
6376,1749
6377,1809
6378,1142
6379,2074
6380,2224
6381,2423
6382,2429
6383,2290
6384,2186
6385,1982
6386,1616
6387,1358
6388,1472
6389,1731
6390,1973
6391,2155
6392,2287
6393,2323
6394,2302
6395,2206
6396,2047
6397,1852
6398,1647
6399,1515
6400,1430
6401,1402
6402,1451
6403,1509
6404,1569
6405,1645
6406,1712
6407,1763
6408,1809
6409,1616
6410,1957
6411,2190
6412,2434
6413,2462
6414,2336
6415,2235
6416,2000
6417,1589
6418,1308
6419,1424
6420,1703
6421,1951
6422,2144
6423,2273
6424,2309
6425,2274
6426,2188
6427,2039
6428,1855
6429,1666
6430,1523
6431,1439
6432,1424
6433,1456
6434,1529
6435,1600
6436,1692
6437,1763
6438,1808
6439,1847
6440,1771
6441,1760
6442,2146
6443,2385
6444,2455
6445,2389
6446,2295
6447,2041
6448,1636
6449,1262
6450,1333
6451,1634
6452,1927
6453,2129
6454,2268
6455,2335
6456,2304
6457,2210
6458,2064
6459,1863
6460,1662
6461,1522
6462,1437
6463,1408
6464,1447
6465,1524
6466,1600
6467,1683
6468,1763
6469,1840
6470,1865
6471,1772
6472,1626
6473,2150
6474,2349
6475,2437
6476,2382
6477,2273
6478,2064
6479,1661
6480,1227
6481,1313
6482,1625
6483,1905
6484,2109
6485,2265
6486,2352
6487,2361
6488,2263
6489,2117
6490,1887
6491,1680
6492,1522
6493,1427
6494,1401
6495,1434
6496,1502
6497,1587
6498,1669
6499,1761
6500,1818
6501,1867
6502,1898
6503,1237
6504,2114
6505,2325
6506,2448
6507,2406
6508,2300
6509,2109
6510,1762
6511,1247
6512,1237
6513,1558
6514,1852
6515,2064
6516,2228
6517,2318
6518,2330
6519,2286
6520,2150
6521,1958
6522,1758
6523,1588
6524,1454
6525,1401
6526,1407
6527,1471
6528,1535
6529,1649
6530,1730
6531,1793
6532,1854
6533,1877
6534,946
6535,2096
6536,2320
6537,2465
6538,2439
6539,2336
6540,2137
6541,1841
6542,1280
6543,1149
6544,1468
6545,1806
6546,2035
6547,2202
6548,2299
6549,2339
6550,2288
6551,2176
6552,2006
6553,1806
6554,1616
6555,1477
6556,1406
6557,1402
6558,1445
6559,1527
6560,1619
6561,1713
6562,1797
6563,1836
6564,1867
6565,949
6566,2044
6567,2283
6568,2478
6569,2486
6570,2381
6571,2187
6572,1906
6573,1335
6574,1147
6575,1413
6576,1744
6577,1987
6578,2160
6579,2285
6580,2345
6581,2316
6582,2203
6583,2032
6584,1840
6585,1659
6586,1520
6587,1417
6588,1411
6589,1456
6590,1520
6591,1598
6592,1683
6593,1763
6594,1803
6595,1859
6596,1734
6597,1942
6598,2234
6599,2447
6600,2480
6601,2413
6602,2226
6603,2031
6604,1466
6605,1149
6606,1406
6607,1729
6608,1968
6609,2112
6610,2223
6611,2283
6612,2279
6613,2183
6614,2032
6615,1847
6616,1677
6617,1535
6618,1456
6619,1447
6620,1482
6621,1523
6622,1605
6623,1674
6624,1738
6625,1790
6626,1838
6627,1887
6628,1802
6629,2184
6630,2423
6631,2496
6632,2450
6633,2272
6634,2102
6635,1599
6636,1167
6637,1367
6638,1716
6639,1969
6640,2098
6641,2176
6642,2240
6643,2226
6644,2160
6645,2026
6646,1846
6647,1685
6648,1562
6649,1463
6650,1446
6651,1490
6652,1566
6653,1616
6654,1709
6655,1762
6656,1808
6657,1827
6658,1735
6659,1569
6660,2138
6661,2358
6662,2480
6663,2448
6664,2279
6665,2114
6666,1686
6667,1166
6668,1317
6669,1687
6670,1939
6671,2096
6672,2214
6673,2277
6674,2281
6675,2199
6676,2069
6677,1886
6678,1704
6679,1569
6680,1456
6681,1425
6682,1465
6683,1533
6684,1618
6685,1708
6686,1771
6687,1819
6688,1850
6689,1869
6690,1300
6691,2102
6692,2306
6693,2447
6694,2446
6695,2316
6696,2143
6697,1818
6698,1232
6699,1267
6700,1635
6701,1922
6702,2082
6703,2164
6704,2233
6705,2261
6706,2202
6707,2083
6708,1902
6709,1719
6710,1575
6711,1471
6712,1441
6713,1444
6714,1516
6715,1593
6716,1676
6717,1755
6718,1825
6719,1862
6720,1887
6721,983
6722,2093
6723,2279
6724,2445
6725,2446
6726,2320
6727,2158
6728,1876
6729,1245
6730,1206
6731,1575
6732,1878
6733,2071
6734,2188
6735,2281
6736,2318
6737,2255
6738,2122
6739,1938
6740,1755
6741,1584
6742,1454
6743,1391
6744,1412
6745,1489
6746,1575
6747,1664
6748,1742
6749,1809
6750,1856
6751,1880
6752,882
6753,2073
6754,2285
6755,2458
6756,2475
6757,2352
6758,2175
6759,1943
6760,1287
6761,1139
6762,1530
6763,1874
6764,2064
6765,2159
6766,2217
6767,2256
6768,2240
6769,2131
6770,1953
6771,1764
6772,1604
6773,1467
6774,1394
6775,1405
6776,1465
6777,1535
6778,1653
6779,1757
6780,1823
6781,1872
6782,1904
6783,1447
6784,2013
6785,2260
6786,2477
6787,2487
6788,2384
6789,2170
6790,1968
6791,1389
6792,1087
6793,1418
6794,1777
6795,2002
6796,2139
6797,2215
6798,2269
6799,2258
6800,2175
6801,2018
6802,1847
6803,1671
6804,1534
6805,1443
6806,1415
6807,1439
6808,1499
6809,1599
6810,1689
6811,1775
6812,1834
6813,1871
6814,2032
6815,1872
6816,2211
6817,2426
6818,2511
6819,2447
6820,2249
6821,2099
6822,1533
6823,1103
6824,1382
6825,1750
6826,1984
6827,2128
6828,2193
6829,2229
6830,2241
6831,2189
6832,2046
6833,1856
6834,1684
6835,1535
6836,1454
6837,1401
6838,1430
6839,1487
6840,1574
6841,1652
6842,1734
6843,1797
6844,1858
6845,1886
6846,1919
6847,1941
6848,1951
6849,1964
6850,1968
6851,1968
6852,1966
6853,1951
6854,1926
6855,1907
6856,1890
6857,1879
6858,1872
6859,1866
6860,1871
6861,1871
6862,1881
6863,1886
6864,1872
6865,1893
6866,1891
6867,1891
6868,1902
6869,1893
6870,1885
6871,1859
6872,1855
6873,1841
6874,1845
6875,1840
6876,1841
6877,1843
6878,1861
6879,1865
6880,1869
6881,1885
6882,1882
6883,1879
6884,1887
6885,1888
6886,1882
6887,1869
6888,1857
6889,1856
6890,1840
6891,1833
6892,1830
6893,1840
6894,1844
6895,1853
6896,1863
6897,1861
6898,1859
6899,1883
6900,1881
6901,1887
6902,1883
6903,1876
6904,1863
6905,1856
6906,1842
6907,1837
6908,1834
6909,1840
6910,1846
6911,1858
6912,1882
6913,1872
6914,1873
6915,1879
6916,1872
6917,1870
6918,1869
6919,1872
6920,1853
6921,1855
6922,1844
6923,1828
6924,1826
6925,1831
6926,1840
6927,1840
6928,1854
6929,1856
6930,1871
6931,1878
6932,1871
6933,1867
6934,1875
6935,1883
6936,1878
6937,1863
6938,1869
6939,1853
6940,1839
6941,1839
6942,1835
6943,1840
6944,1825
6945,1851
6946,1860
6947,1869
6948,1883
6949,1873
6950,1875
6951,1880
6952,1896
6953,1871
6954,1870
6955,1861
6956,1840
6957,1840
6958,1833
6959,1834
6960,1840
6961,1855
6962,1860
6963,1872
6964,1871
6965,1878
6966,1889
6967,1891
6968,1901
6969,1904
6970,1904
6971,1891
6972,1895
6973,1868
6974,1851
6975,1842
6976,1840
6977,1838
6978,1836
6979,1849
6980,1842
6981,1854
6982,1863
6983,1862
6984,1840
6985,1827
6986,1833
6987,1850
6988,1843
6989,1843
6990,1847
6991,1830
6992,1835
6993,1842
6994,1849
6995,1863
6996,1879
6997,1878
6998,1890
6999,1883
7000,1894
7001,1887
7002,1901
7003,1886
7004,1867
7005,1858
7006,1844
7007,1840
7008,1835
7009,1835
7010,1845
7011,1853
7012,1872
7013,1867
7014,1872
7015,1887
7016,1895
7017,1898
7018,1893
7019,1886
7020,1872
7021,1854
7022,1829
7023,1806
7024,1808
7025,1821
7026,1829
7027,1841
7028,1856
7029,1870
7030,1872
7031,1874
7032,1878
7033,1878
7034,1879
7035,1888
7036,1876
7037,1868
7038,1861
7039,1841
7040,1831
7041,1831
7042,1834
7043,1834
7044,1844
7045,1857
7046,1859
7047,1869
7048,1859
7049,1870
7050,1882
7051,1879
7052,1883
7053,1880
7054,1872
7055,1853
7056,1841
7057,1831
7058,1831
7059,1835
7060,1840
7061,1850
7062,1858
7063,1872
7064,1872
7065,1877
7066,1883
7067,1883
7068,1889
7069,1884
7070,1872
7071,1859
7072,1851
7073,1851
7074,1823
7075,1823
7076,1833
7077,1841
7078,1847
7079,1854
7080,1869
7081,1877
7082,1875
7083,1878
7084,1881
7085,1886
7086,1891
7087,1871
7088,1854
7089,1835
7090,1834
7091,1837
7092,1838
7093,1841
7094,1855
7095,1866
7096,1866
7097,1869
7098,1872
7099,1884
7100,1883
7101,1895
7102,1895
7103,1872
7104,1857
7105,1843
7106,1837
7107,1829
7108,1827
7109,1823
7110,1839
7111,1850
7112,1863
7113,1867
7114,1868
7115,1877
7116,1878
7117,1878
7118,1886
7119,1887
7120,1871
7121,1867
7122,1855
7123,1846
7124,1829
7125,1834
7126,1840
7127,1845
7128,1866
7129,1861
7130,1870
7131,1877
7132,1879
7133,1877
7134,1882
7135,1881
7136,1872
7137,1867
7138,1852
7139,1850
7140,1840
7141,1831
7142,1828
7143,1837
7144,1840
7145,1867
7146,1867
7147,1866
7148,1882
7149,1879
7150,1883
7151,1882
7152,1889
7153,1874
7154,1873
7155,1850
7156,1837
7157,1834
7158,1838
7159,1837
7160,1841
7161,1845
7162,1866
7163,1862
7164,1861
7165,1870
7166,1876
7167,1879
7168,1891
7169,1882
7170,1863
7171,1855
7172,1851
7173,1834
7174,1834
7175,1834
7176,1836
7177,1842
7178,1867
7179,1863
7180,1873
7181,1877
7182,1879
7183,1879
7184,1877
7185,1886
7186,1872
7187,1862
7188,1854
7189,1845
7190,1853
7191,1847
7192,1846
7193,1855
7194,1861
7195,1877
7196,1887
7197,1874
7198,1872
7199,1873
7200,1881
7201,1890
7202,1878
7203,1830
7204,1798
7205,1811
7206,1836
7207,1830
7208,1833
7209,1827
7210,1838
7211,1854
7212,1859
7213,1870
7214,1866
7215,1874
7216,1887
7217,1889
7218,1881
7219,1885
7220,1871
7221,1862
7222,1846
7223,1840
7224,1834
7225,1835
7226,1838
7227,1845
7228,1843
7229,1858
7230,1868
7231,1878
7232,1883
7233,1884
7234,1882
7235,1889
7236,1880
7237,1868
7238,1858
7239,1843
7240,1833
7241,1831
7242,1840
7243,1840
7244,1842
7245,1856
7246,1872
7247,1873
7248,1873
7249,1879
7250,1882
7251,1881
7252,1885
7253,1874
7254,1860
7255,1847
7256,1840
7257,1835
7258,1835
7259,1839
7260,1845
7261,1859
7262,1871
7263,1873
7264,1874
7265,1883
7266,1881
7267,1879
7268,1889
7269,1889
7270,1872
7271,1867
7272,1855
7273,1840
7274,1828
7275,1838
7276,1838
7277,1843
7278,1867
7279,1867
7280,1873
7281,1872
7282,1877
7283,1870
7284,1869
7285,1876
7286,1872
7287,1859
7288,1853
7289,1840
7290,1834
7291,1834
7292,1827
7293,1839
7294,1845
7295,1867
7296,1869
7297,1872
7298,1878
7299,1883
7300,1883
7301,1885
7302,1890
7303,1878
7304,1871
7305,1866
7306,1855
7307,1847
7308,1845
7309,1840
7310,1840
7311,1839
7312,1843
7313,1854
7314,1872
7315,1875
7316,1875
7317,1881
7318,1885
7319,1878
7320,1853
7321,1845
7322,1840
7323,1836
7324,1833
7325,1834
7326,1840
7327,1841
7328,1858
7329,1873
7330,1877
7331,1879
7332,1882
7333,1884
7334,1883
7335,1893
7336,1876
7337,1872
7338,1858
7339,1849
7340,1837
7341,1835
7342,1837
7343,1825
7344,1849
7345,1853
7346,1867
7347,1872
7348,1871
7349,1873
7350,1883
7351,1892
7352,1885
7353,1880
7354,1867
7355,1847
7356,1843
7357,1838
7358,1838
7359,1840
7360,1844
7361,1855
7362,1862
7363,1862
7364,1872
7365,1877
7366,1885
7367,1887
7368,1887
7369,1889
7370,1872
7371,1856
7372,1856
7373,1836
7374,1830
7375,1826
7376,1830
7377,1837
7378,1859
7379,1859
7380,1863
7381,1871
7382,1878
7383,1882
7384,1879
7385,1886
7386,1879
7387,1870
7388,1856
7389,1853
7390,1834
7391,1835
7392,1838
7393,1840
7394,1843
7395,1855
7396,1875
7397,1873
7398,1872
7399,1876
7400,1885
7401,1891
7402,1888
7403,1876
7404,1866
7405,1845
7406,1837
7407,1829
7408,1822
7409,1838
7410,1843
7411,1863
7412,1859
7413,1865
7414,1878
7415,1879
7416,1881
7417,1879
7418,1885
7419,1886
7420,1872
7421,1859
7422,1852
7423,1836
7424,1834
7425,1834
7426,1838
7427,1842
7428,1862
7429,1863
7430,1873
7431,1887
7432,1881
7433,1872
7434,1871
7435,1885
7436,1870
7437,1861
7438,1853
7439,1846
7440,1833
7441,1827
7442,1826
7443,1839
7444,1854
7445,1859
7446,1867
7447,1877
7448,1888
7449,1886
7450,1888
7451,1895
7452,1897
7453,1873
7454,1872
7455,1847
7456,1843
7457,1824
7458,1827
7459,1834
7460,1846
7461,1857
7462,1871
7463,1872
7464,1883
7465,1882
7466,1874
7467,1872
7468,1885
7469,1885
7470,1864
7471,1851
7472,1840
7473,1837
7474,1830
7475,1835
7476,1837
7477,1840
7478,1859
7479,1866
7480,1861
7481,1866
7482,1872
7483,1875
7484,1883
7485,1888
7486,1875
7487,1860
7488,1857
7489,1843
7490,1839
7491,1837
7492,1840
7493,1840
7494,1846
7495,1856
7496,1863
7497,1877
7498,1874
7499,1890
7500,1890
7501,1899
7502,1894
7503,1883
7504,1857
7505,1837
7506,1829
7507,1826
7508,1835
7509,1840
7510,1847
7511,1854
7512,1863
7513,1867
7514,1872
7515,1874
7516,1879
7517,1872
7518,1873
7519,1872
7520,1863
7521,1855
7522,1845
7523,1831
7524,1823
7525,1825
7526,1841
7527,1840
7528,1859
7529,1867
7530,1874
7531,1880
7532,1882
7533,1879
7534,1873
7535,1887
7536,1885
7537,1866
7538,1851
7539,1849
7540,1839
7541,1837
7542,1840
7543,1839
7544,1842
7545,1857
7546,1861
7547,1872
7548,1885
7549,1875
7550,1879
7551,1889
7552,1899
7553,1868
7554,1862
7555,1845
7556,1842
7557,1825
7558,1832
7559,1840
7560,1841
7561,1846
7562,1871
7563,1877
7564,1882
7565,1879
7566,1882
7567,1887
7568,1893
7569,1883
7570,1872
7571,1857
7572,1850
7573,1833
7574,1828
7575,1831
7576,1831
7577,1840
7578,1855
7579,1861
7580,1872
7581,1887
7582,1878
7583,1877
7584,1879
7585,1889
7586,1885
7587,1857
7588,1859
7589,1852
7590,1834
7591,1834
7592,1837
7593,1839
7594,1849
7595,1862
7596,1866
7597,1874
7598,1886
7599,1878
7600,1876
7601,1883
7602,1893
7603,1875
7604,1860
7605,1846
7606,1841
7607,1837
7608,1834
7609,1840
7610,1844
7611,1854
7612,1877
7613,1871
7614,1862
7615,1872
7616,1872
7617,1870
7618,1877
7619,1885
7620,1875
7621,1867
7622,1858
7623,1840
7624,1830
7625,1821
7626,1838
7627,1842
7628,1850
7629,1859
7630,1870
7631,1881
7632,1886
7633,1889
7634,1887
7635,1901
7636,1872
7637,1856
7638,1842
7639,1834
7640,1823
7641,1831
7642,1840
7643,1846
7644,1861
7645,1865
7646,1877
7647,1872
7648,1872
7649,1867
7650,1872
7651,1877
7652,1892
7653,1872
7654,1867
7655,1846
7656,1839
7657,1825
7658,1823
7659,1827
7660,1840
7661,1847
7662,1856
7663,1863
7664,1866
7665,1878
7666,1884
7667,1885
7668,1887
7669,1872
7670,1865
7671,1857
7672,1843
7673,1833
7674,1834
7675,1834
7676,1839
7677,1837
7678,1863
7679,1864
7680,1872
7681,1881
7682,1879
7683,1885
7684,1887
7685,1897
7686,1878
7687,1868
7688,1853
7689,1840
7690,1831
7691,1827
7692,1823
7693,1840
7694,1849
7695,1861
7696,1863
7697,1881
7698,1877
7699,1889
7700,1888
7701,1898
7702,1885
7703,1866
7704,1857
7705,1845
7706,1845
7707,1827
7708,1831
7709,1837
7710,1843
7711,1859
7712,1863
7713,1867
7714,1872
7715,1870
7716,1872
7717,1871
7718,1877
7719,1868
7720,1858
7721,1861
7722,1846
7723,1841
7724,1833
7725,1837
7726,1843
7727,1845
7728,1863
7729,1878
7730,1875
7731,1888
7732,1890
7733,1882
7734,1885
7735,1881
7736,1871
7737,1845
7738,1843
7739,1830
7740,1822
7741,1823
7742,1829
7743,1840
7744,1858
7745,1871
7746,1871
7747,1878
7748,1885
7749,1881
7750,1877
7751,1890
7752,1886
7753,1870
7754,1862
7755,1850
7756,1840
7757,1840
7758,1840
7759,1846
7760,1850
7761,1857
7762,1872
7763,1873
7764,1878
7765,1875
7766,1867
7767,1863
7768,1881
7769,1881
7770,1863
7771,1857
7772,1843
7773,1836
7774,1842
7775,1840
7776,1840
7777,1839
7778,1843
7779,1869
7780,1867
7781,1881
7782,1879
7783,1887
7784,1897
7785,1905
7786,1888
7787,1866
7788,1871
7789,1856
7790,1839
7791,1826
7792,1825
7793,1828
7794,1841
7795,1856
7796,1877
7797,1871
7798,1863
7799,1870
7800,1882
7801,1892
7802,1884
7803,1872
7804,1867
7805,1850
7806,1822
7807,1808
7808,1814
7809,1833
7810,1837
7811,1847
7812,1863
7813,1872
7814,1882
7815,1881
7816,1887
7817,1886
7818,1890
7819,1875
7820,1872
7821,1851
7822,1840
7823,1835
7824,1826
7825,1829
7826,1839
7827,1851
7828,1859
7829,1856
7830,1870
7831,1876
7832,1875
7833,1878
7834,1887
7835,1895
7836,1878
7837,1873
7838,1857
7839,1840
7840,1837
7841,1833
7842,1102
7843,2077
7844,2097
7845,2192
7846,2219
7847,2162
7848,2119
7849,2105
7850,1986
7851,1770
7852,1567
7853,1492
7854,1579
7855,1703
7856,1815
7857,1962
7858,2110
7859,2182
7860,2218
7861,2224
7862,2171
7863,2066
7864,1936
7865,1799
7866,1660
7867,1559
7868,1490
7869,1456
7870,1459
7871,1491
7872,1531
7873,1066
7874,1872
7875,1953
7876,2113
7877,2172
7878,2130
7879,2086
7880,2064
7881,1925
7882,1615
7883,1421
7884,1451
7885,1664
7886,1876
7887,2078
7888,2245
7889,2339
7890,2363
7891,2331
7892,2218
7893,2071
7894,1875
7895,1695
7896,1557
7897,1439
7898,1397
7899,1391
7900,1443
7901,1535
7902,1620
7903,1673
7904,1489
7905,1939
7906,2078
7907,2224
7908,2276
7909,2231
7910,2160
7911,2089
7912,1894
7913,1565
7914,1389
7915,1485
7916,1734
7917,1953
7918,2171
7919,2337
7920,2401
7921,2398
7922,2301
7923,2155
7924,1951
7925,1729
7926,1535
7927,1422
7928,1355
7929,1360
7930,1427
7931,1522
7932,1603
7933,1678
7934,1744
7935,1665
7936,1742
7937,2110
7938,2314
7939,2359
7940,2301
7941,2192
7942,2126
7943,1898
7944,1520
7945,1354
7946,1559
7947,1826
7948,2047
7949,2224
7950,2336
7951,2365
7952,2320
7953,2225
7954,2055
7955,1822
7956,1603
7957,1451
7958,1358
7959,1328
7960,1369
7961,1455
7962,1517
7963,1605
7964,1699
7965,1783
7966,1843
7967,1742
7968,2145
7969,2320
7970,2420
7971,2350
7972,2221
7973,2096
7974,1828
7975,1443
7976,1319
7977,1531
7978,1828
7979,2064
7980,2262
7981,2381
7982,2398
7983,2321
7984,2211
7985,2027
7986,1789
7987,1594
7988,1437
7989,1349
7990,1323
7991,1385
7992,1478
7993,1567
7994,1674
7995,1742
7996,1814
7997,1859
7998,1316
7999,2149
8000,2305
8001,2458
8002,2419
8003,2275
8004,2145
8005,1869
8006,1442
8007,1296
8008,1520
8009,1794
8010,2053
8011,2247
8012,2335
8013,2352
8014,2290
8015,2182
8016,1999
8017,1778
8018,1583
8019,1435
8020,1334
8021,1333
8022,1413
8023,1498
8024,1568
8025,1654
8026,1744
8027,1811
8028,1863
8029,977
8030,2117
8031,2292
8032,2477
8033,2448
8034,2346
8035,2229
8036,1947
8037,1469
8038,1197
8039,1392
8040,1713
8041,1983
8042,2191
8043,2324
8044,2383
8045,2329
8046,2201
8047,2016
8048,1792
8049,1600
8050,1456
8051,1391
8052,1393
8053,1456
8054,1513
8055,1590
8056,1647
8057,1718
8058,1791
8059,1840
8060,1023
8061,2054
8062,2256
8063,2455
8064,2448
8065,2379
8066,2243
8067,1973
8068,1485
8069,1237
8070,1456
8071,1753
8072,2001
8073,2179
8074,2301
8075,2335
8076,2288
8077,2180
8078,2017
8079,1779
8080,1584
8081,1454
8082,1373
8083,1381
8084,1454
8085,1557
8086,1631
8087,1701
8088,1765
8089,1824
8090,1850
8091,1919
8092,1881
8093,2195
8094,2419
8095,2463
8096,2413
8097,2271
8098,2055
8099,1568
8100,1202
8101,1415
8102,1735
8103,1989
8104,2176
8105,2299
8106,2337
8107,2273
8108,2153
8109,1984
8110,1767
8111,1572
8112,1439
8113,1377
8114,1399
8115,1461
8116,1554
8117,1631
8118,1712
8119,1776
8120,1837
8121,1863
8122,1766
8123,1691
8124,2155
8125,2395
8126,2486
8127,2448
8128,2320
8129,2110
8130,1693
8131,1234
8132,1347
8133,1683
8134,1968
8135,2142
8136,2225
8137,2267
8138,2256
8139,2147
8140,1988
8141,1776
8142,1580
8143,1442
8144,1373
8145,1371
8146,1445
8147,1535
8148,1633
8149,1725
8150,1807
8151,1869
8152,1904
8153,1905
8154,1471
8155,2138
8156,2361
8157,2448
8158,2431
8159,2302
8160,2085
8161,1722
8162,1232
8163,1299
8164,1617
8165,1922
8166,2128
8167,2278
8168,2356
8169,2336
8170,2239
8171,2075
8172,1853
8173,1639
8174,1476
8175,1376
8176,1357
8177,1408
8178,1494
8179,1591
8180,1690
8181,1781
8182,1840
8183,1881
8184,1917
8185,1173
8186,2123
8187,2337
8188,2486
8189,2453
8190,2320
8191,2123
8192,1795
8193,1221
8194,1242
8195,1589
8196,1891
8197,2096
8198,2232
8199,2306
8200,2320
8201,2266
8202,2127
8203,1903
8204,1680
8205,1506
8206,1390
8207,1349
8208,1393
8209,1469
8210,1566
8211,1658
8212,1751
8213,1811
8214,1866
8215,1899
8216,1009
8217,2118
8218,2350
8219,2521
8220,2513
8221,2386
8222,2161
8223,1854
8224,1242
8225,1170
8226,1484
8227,1825
8228,2054
8229,2207
8230,2307
8231,2330
8232,2256
8233,2111
8234,1903
8235,1706
8236,1527
8237,1402
8238,1371
8239,1409
8240,1471
8241,1559
8242,1653
8243,1733
8244,1807
8245,1867
8246,1902
8247,1110
8248,2032
8249,2294
8250,2523
8251,2550
8252,2459
8253,2229
8254,1986
8255,1366
8256,1134
8257,1411
8258,1753
8259,2000
8260,2149
8261,2255
8262,2300
8263,2255
8264,2148
8265,1947
8266,1737
8267,1573
8268,1456
8269,1395
8270,1415
8271,1489
8272,1559
8273,1630
8274,1703
8275,1776
8276,1833
8277,1875
8278,1932
8279,1924
8280,2240
8281,2485
8282,2543
8283,2476
8284,2269
8285,2065
8286,1466
8287,1114
8288,1394
8289,1742
8290,2002
8291,2156
8292,2256
8293,2294
8294,2282
8295,2162
8296,1968
8297,1763
8298,1599
8299,1473
8300,1402
8301,1421
8302,1498
8303,1556
8304,1614
8305,1685
8306,1755
8307,1809
8308,1851
8309,1907
8310,1791
8311,2210
8312,2465
8313,2546
8314,2502
8315,2295
8316,2115
8317,1575
8318,1152
8319,1362
8320,1735
8321,2000
8322,2131
8323,2178
8324,2212
8325,2211
8326,2141
8327,1990
8328,1801
8329,1621
8330,1479
8331,1419
8332,1419
8333,1472
8334,1563
8335,1651
8336,1726
8337,1802
8338,1840
8339,1857
8340,1841
8341,1491
8342,2130
8343,2380
8344,2526
8345,2503
8346,2320
8347,2144
8348,1728
8349,1158
8350,1301
8351,1698
8352,1982
8353,2153
8354,2241
8355,2291
8356,2266
8357,2161
8358,1983
8359,1791
8360,1611
8361,1474
8362,1373
8363,1370
8364,1450
8365,1535
8366,1629
8367,1719
8368,1804
8369,1841
8370,1886
8371,1894
8372,1202
8373,2103
8374,2334
8375,2498
8376,2500
8377,2352
8378,2182
8379,1818
8380,1209
8381,1255
8382,1618
8383,1934
8384,2123
8385,2231
8386,2274
8387,2279
8388,2192
8389,2029
8390,1818
8391,1647
8392,1494
8393,1398
8394,1381
8395,1430
8396,1507
8397,1591
8398,1683
8399,1771
8400,1854
8401,1903
8402,1914
8403,911
8404,2095
8405,2331
8406,2522
8407,2550
8408,2403
8409,2193
8410,1904
8411,1205
8412,1143
8413,1535
8414,1903
8415,2112
8416,2195
8417,2225
8418,2256
8419,2206
8420,2059
8421,1863
8422,1673
8423,1494
8424,1392
8425,1351
8426,1399
8427,1477
8428,1587
8429,1682
8430,1777
8431,1840
8432,1882
8433,1919
8434,938
8435,2065
8436,2297
8437,2503
8438,2549
8439,2436
8440,2205
8441,1953
8442,1287
8443,1107
8444,1487
8445,1847
8446,2066
8447,2192
8448,2283
8449,2323
8450,2268
8451,2128
8452,1905
8453,1698
8454,1510
8455,1389
8456,1344
8457,1384
8458,1461
8459,1535
8460,1662
8461,1755
8462,1821
8463,1862
8464,1906
8465,1935
8466,1951
8467,1965
8468,1975
8469,1970
8470,1963
8471,1946
8472,1937
8473,1908
8474,1900
8475,1897
8476,1887
8477,1894
8478,1892
8479,1898
8480,1899
8481,1903
8482,1903
8483,1891
8484,1903
8485,1892
8486,1883
8487,1866
8488,1868
8489,1855
8490,1843
8491,1843
8492,1840
8493,1855
8494,1858
8495,1870
8496,1872
8497,1872
8498,1883
8499,1883
8500,1887
8501,1892
8502,1878
8503,1863
8504,1850
8505,1847
8506,1835
8507,1841
8508,1836
8509,1827
8510,1840
8511,1858
8512,1856
8513,1856
8514,1870
8515,1870
8516,1872
8517,1882
8518,1882
8519,1867
8520,1865
8521,1857
8522,1855
8523,1841
8524,1838
8525,1840
8526,1843
8527,1851
8528,1865
8529,1871
8530,1875
8531,1893
8532,1893
8533,1890
8534,1899
8535,1889
8536,1865
8537,1855
8538,1834
8539,1837
8540,1834
8541,1839
8542,1840
8543,1846
8544,1854
8545,1872
8546,1871
8547,1859
8548,1856
8549,1866
8550,1872
8551,1875
8552,1862
8553,1859
8554,1841
8555,1847
8556,1843
8557,1840
8558,1846
8559,1842
8560,1833
8561,1856
8562,1856
8563,1866
8564,1863
8565,1875
8566,1881
8567,1894
8568,1893
8569,1879
8570,1867
8571,1861
8572,1841
8573,1836
8574,1835
8575,1839
8576,1850
8577,1853
8578,1871
8579,1877
8580,1903
8581,1899
8582,1895
8583,1891
8584,1901
8585,1903
8586,1862
8587,1814
8588,1831
8589,1846
8590,1865
8591,1867
8592,1863
8593,1842
8594,1866
8595,1872
8596,1874
8597,1863
8598,1840
8599,1827
8600,1829
8601,1845
8602,1853
8603,1843
8604,1846
8605,1834
8606,1823
8607,1823
8608,1818
8609,1835
8610,1851
8611,1862
8612,1871
8613,1875
8614,1887
8615,1889
8616,1890
8617,1887
8618,1903
8619,1885
8620,1870
8621,1867
8622,1849
8623,1839
8624,1837
8625,1839
8626,1850
8627,1855
8628,1865
8629,1877
8630,1873
8631,1882
8632,1888
8633,1875
8634,1879
8635,1876
8636,1859
8637,1854
8638,1850
8639,1840
8640,1835
8641,1830
8642,1834
8643,1842
8644,1853
8645,1866
8646,1862
8647,1867
8648,1878
8649,1885
8650,1879
8651,1884
8652,1881
8653,1862
8654,1843
8655,1847
8656,1838
8657,1829
8658,1833
8659,1840
8660,1853
8661,1859
8662,1867
8663,1867
8664,1867
8665,1871
8666,1874
8667,1877
8668,1879
8669,1882
8670,1869
8671,1855
8672,1842
8673,1831
8674,1837
8675,1834
8676,1840
8677,1845
8678,1859
8679,1863
8680,1872
8681,1875
8682,1879
8683,1878
8684,1886
8685,1883
8686,1872
8687,1859
8688,1846
8689,1840
8690,1829
8691,1830
8692,1829
8693,1838
8694,1853
8695,1861
8696,1861
8697,1874
8698,1873
8699,1873
8700,1874
8701,1879
8702,1885
8703,1872
8704,1867
8705,1840
8706,1827
8707,1826
8708,1834
8709,1840
8710,1851
8711,1858
8712,1861
8713,1867
8714,1873
8715,1875
8716,1879
8717,1887
8718,1885
8719,1866
8720,1858
8721,1841
8722,1840
8723,1839
8724,1833
8725,1829
8726,1837
8727,1847
8728,1855
8729,1866
8730,1869
8731,1885
8732,1881
8733,1886
8734,1886
8735,1886
8736,1863
8737,1864
8738,1856
8739,1841
8740,1831
8741,1835
8742,1840
8743,1849
8744,1855
8745,1870
8746,1874
8747,1872
8748,1875
8749,1883
8750,1882
8751,1887
8752,1879
8753,1857
8754,1858
8755,1843
8756,1830
8757,1825
8758,1825
8759,1840
8760,1847
8761,1869
8762,1873
8763,1872
8764,1884
8765,1888
8766,1885
8767,1880
8768,1887
8769,1872
8770,1861
8771,1855
8772,1840
8773,1835
8774,1835
8775,1835
8776,1840
8777,1855
8778,1871
8779,1863
8780,1870
8781,1875
8782,1884
8783,1877
8784,1886
8785,1887
8786,1866
8787,1862
8788,1851
8789,1841
8790,1839
8791,1837
8792,1835
8793,1847
8794,1861
8795,1866
8796,1875
8797,1879
8798,1879
8799,1883
8800,1881
8801,1889
8802,1874
8803,1863
8804,1856
8805,1847
8806,1840
8807,1831
8808,1826
8809,1839
8810,1854
8811,1869
8812,1871
8813,1872
8814,1872
8815,1872
8816,1884
8817,1871
8818,1877
8819,1873
8820,1866
8821,1847
8822,1833
8823,1831
8824,1832
8825,1837
8826,1844
8827,1857
8828,1869
8829,1866
8830,1872
8831,1877
8832,1879
8833,1879
8834,1889
8835,1887
8836,1875
8837,1856
8838,1854
8839,1832
8840,1827
8841,1835
8842,1840
8843,1842
8844,1855
8845,1857
8846,1872
8847,1862
8848,1871
8849,1873
8850,1883
8851,1886
8852,1872
8853,1868
8854,1856
8855,1845
8856,1835
8857,1835
8858,1838
8859,1840
8860,1840
8861,1865
8862,1859
8863,1869
8864,1875
8865,1879
8866,1887
8867,1892
8868,1891
8869,1872
8870,1862
8871,1856
8872,1843
8873,1830
8874,1829
8875,1829
8876,1840
8877,1852
8878,1867
8879,1874
8880,1872
8881,1871
8882,1879
8883,1873
8884,1887
8885,1886
8886,1870
8887,1863
8888,1847
8889,1840
8890,1838
8891,1834
8892,1838
8893,1846
8894,1856
8895,1862
8896,1869
8897,1877
8898,1879
8899,1878
8900,1882
8901,1892
8902,1877
8903,1862
8904,1854
8905,1847
8906,1830
8907,1829
8908,1821
8909,1839
8910,1843
8911,1863
8912,1866
8913,1867
8914,1873
8915,1877
8916,1885
8917,1889
8918,1885
8919,1872
8920,1857
8921,1855
8922,1835
8923,1829
8924,1832
8925,1831
8926,1840
8927,1846
8928,1862
8929,1872
8930,1877
8931,1882
8932,1883
8933,1879
8934,1881
8935,1875
8936,1857
8937,1854
8938,1842
8939,1837
8940,1829
8941,1831
8942,1831
8943,1840
8944,1852
8945,1862
8946,1873
8947,1875
8948,1877
8949,1883
8950,1883
8951,1886
8952,1873
8953,1870
8954,1856
8955,1845
8956,1838
8957,1835
8958,1833
8959,1843
8960,1847
8961,1856
8962,1869
8963,1860
8964,1878
8965,1875
8966,1875
8967,1882
8968,1900
8969,1875
8970,1860
8971,1854
8972,1845
8973,1837
8974,1831
8975,1839
8976,1840
8977,1849
8978,1863
8979,1872
8980,1873
8981,1885
8982,1881
8983,1882
8984,1887
8985,1875
8986,1873
8987,1867
8988,1858
8989,1840
8990,1830
8991,1830
8992,1830
8993,1833
8994,1853
8995,1863
8996,1867
8997,1873
8998,1870
8999,1881
9000,1890
9001,1888
9002,1877
9003,1866
9004,1853
9005,1845
9006,1838
9007,1831
9008,1827
9009,1840
9010,1840
9011,1866
9012,1871
9013,1872
9014,1881
9015,1877
9016,1884
9017,1890
9018,1888
9019,1866
9020,1856
9021,1842
9022,1840
9023,1826
9024,1827
9025,1830
9026,1835
9027,1840
9028,1854
9029,1857
9030,1875
9031,1882
9032,1879
9033,1878
9034,1890
9035,1889
9036,1868
9037,1853
9038,1847
9039,1834
9040,1837
9041,1831
9042,1840
9043,1837
9044,1863
9045,1862
9046,1873
9047,1884
9048,1879
9049,1879
9050,1879
9051,1890
9052,1877
9053,1858
9054,1853
9055,1840
9056,1829
9057,1824
9058,1830
9059,1840
9060,1847
9061,1867
9062,1869
9063,1871
9064,1875
9065,1885
9066,1887
9067,1883
9068,1887
9069,1872
9070,1862
9071,1850
9072,1840
9073,1829
9074,1831
9075,1839
9076,1841
9077,1857
9078,1861
9079,1869
9080,1879
9081,1881
9082,1885
9083,1878
9084,1887
9085,1876
9086,1863
9087,1854
9088,1851
9089,1840
9090,1829
9091,1830
9092,1837
9093,1849
9094,1862
9095,1872
9096,1875
9097,1875
9098,1872
9099,1878
9100,1887
9101,1890
9102,1874
9103,1873
9104,1857
9105,1840
9106,1831
9107,1828
9108,1827
9109,1840
9110,1856
9111,1866
9112,1870
9113,1863
9114,1872
9115,1875
9116,1877
9117,1875
9118,1879
9119,1872
9120,1861
9121,1854
9122,1845
9123,1839
9124,1830
9125,1839
9126,1843
9127,1862
9128,1861
9129,1862
9130,1872
9131,1878
9132,1879
9133,1877
9134,1891
9135,1889
9136,1869
9137,1856
9138,1843
9139,1840
9140,1828
9141,1834
9142,1836
9143,1837
9144,1849
9145,1855
9146,1872
9147,1874
9148,1872
9149,1875
9150,1879
9151,1895
9152,1883
9153,1872
9154,1857
9155,1840
9156,1837
9157,1835
9158,1831
9159,1840
9160,1853
9161,1858
9162,1863
9163,1870
9164,1877
9165,1882
9166,1884
9167,1881
9168,1895
9169,1872
9170,1858
9171,1857
9172,1842
9173,1822
9174,1823
9175,1829
9176,1840
9177,1846
9178,1861
9179,1872
9180,1877
9181,1883
9182,1882
9183,1888
9184,1890
9185,1890
9186,1866
9187,1859
9188,1849
9189,1829
9190,1833
9191,1829
9192,1831
9193,1847
9194,1856
9195,1862
9196,1872
9197,1884
9198,1884
9199,1882
9200,1882
9201,1882
9202,1871
9203,1870
9204,1845
9205,1839
9206,1829
9207,1826
9208,1828
9209,1840
9210,1847
9211,1856
9212,1862
9213,1867
9214,1872
9215,1879
9216,1882
9217,1875
9218,1886
9219,1871
9220,1859
9221,1847
9222,1842
9223,1835
9224,1830
9225,1831
9226,1842
9227,1859
9228,1867
9229,1872
9230,1878
9231,1881
9232,1882
9233,1879
9234,1886
9235,1882
9236,1863
9237,1858
9238,1845
9239,1829
9240,1825
9241,1830
9242,1840
9243,1838
9244,1850
9245,1870
9246,1872
9247,1870
9248,1877
9249,1883
9250,1889
9251,1893
9252,1879
9253,1870
9254,1854
9255,1847
9256,1834
9257,1827
9258,1837
9259,1839
9260,1854
9261,1865
9262,1863
9263,1869
9264,1872
9265,1883
9266,1878
9267,1877
9268,1887
9269,1872
9270,1867
9271,1853
9272,1833
9273,1835
9274,1833
9275,1834
9276,1843
9277,1856
9278,1871
9279,1871
9280,1875
9281,1882
9282,1883
9283,1888
9284,1891
9285,1883
9286,1867
9287,1862
9288,1855
9289,1837
9290,1826
9291,1832
9292,1829
9293,1840
9294,1849
9295,1870
9296,1863
9297,1873
9298,1872
9299,1878
9300,1878
9301,1891
9302,1874
9303,1867
9304,1856
9305,1837
9306,1836
9307,1837
9308,1838
9309,1842
9310,1849
9311,1856
9312,1872
9313,1872
9314,1877
9315,1882
9316,1879
9317,1883
9318,1885
9319,1872
9320,1859
9321,1849
9322,1840
9323,1827
9324,1818
9325,1834
9326,1840
9327,1852
9328,1855
9329,1861
9330,1879
9331,1879
9332,1883
9333,1883
9334,1893
9335,1888
9336,1867
9337,1866
9338,1851
9339,1837
9340,1829
9341,1827
9342,1840
9343,1839
9344,1866
9345,1870
9346,1874
9347,1872
9348,1882
9349,1883
9350,1891
9351,1899
9352,1889
9353,1872
9354,1851
9355,1829
9356,1830
9357,1823
9358,1838
9359,1839
9360,1853
9361,1861
9362,1872
9363,1882
9364,1878
9365,1876
9366,1882
9367,1890
9368,1885
9369,1873
9370,1865
9371,1845
9372,1839
9373,1836
9374,1834
9375,1840
9376,1841
9377,1855
9378,1864
9379,1870
9380,1872
9381,1878
9382,1885
9383,1878
9384,1885
9385,1883
9386,1867
9387,1845
9388,1846
9389,1833
9390,1829
9391,1827
9392,1838
9393,1845
9394,1869
9395,1870
9396,1877
9397,1874
9398,1882
9399,1879
9400,1885
9401,1888
9402,1877
9403,1866
9404,1859
9405,1847
9406,1834
9407,1838
9408,1835
9409,1845
9410,1858
9411,1871
9412,1867
9413,1865
9414,1872
9415,1872
9416,1874
9417,1879
9418,1882
9419,1872
9420,1858
9421,1847
9422,1830
9423,1831
9424,1831
9425,1834
9426,1843
9427,1860
9428,1872
9429,1871
9430,1881
9431,1886
9432,1891
9433,1890
9434,1892
9435,1888
9436,1866
9437,1856
9438,1837
9439,1831
9440,1827
9441,1824
9442,1835
9443,1842
9444,1860
9445,1865
9446,1867
9447,1872
9448,1872
9449,1872
9450,1874
9451,1890
9452,1877
9453,1856
9454,1851
9455,1834
9456,1831
9457,1838
9458,1837
9459,1843
9460,1850
9461,1862
9462,1745
9463,2128
9464,2129
9465,2202
9466,2199
9467,2150
9468,2121
9469,2078
9470,1968
9471,1769
9472,1535
9473,1449
9474,1499
9475,1649
9476,1781
9477,1934
9478,2090
9479,2192
9480,2237
9481,2251
9482,2210
9483,2112
9484,1983
9485,1833
9486,1700
9487,1587
9488,1467
9489,1415
9490,1411
9491,1455
9492,1513
9493,1179
9494,1934
9495,1955
9496,2086
9497,2141
9498,2094
9499,2070
9500,2061
9501,1930
9502,1664
9503,1458
9504,1443
9505,1610
9506,1792
9507,1984
9508,2175
9509,2315
9510,2381
9511,2357
9512,2273
9513,2126
9514,1931
9515,1732
9516,1569
9517,1460
9518,1396
9519,1383
9520,1424
9521,1506
9522,1569
9523,1632
9524,1075
9525,2053
9526,2091
9527,2237
9528,2285
9529,2210
9530,2163
9531,2112
9532,1915
9533,1571
9534,1391
9535,1487
9536,1712
9537,1911
9538,2098
9539,2240
9540,2335
9541,2367
9542,2317
9543,2187
9544,2007
9545,1808
9546,1616
9547,1475
9548,1391
9549,1380
9550,1418
9551,1506
9552,1584
9553,1649
9554,1699
9555,1488
9556,1927
9557,2114
9558,2315
9559,2357
9560,2288
9561,2199
9562,2123
9563,1845
9564,1456
9565,1321
9566,1511
9567,1766
9568,1999
9569,2191
9570,2310
9571,2367
9572,2336
9573,2265
9574,2115
9575,1904
9576,1685
9577,1519
9578,1398
9579,1358
9580,1382
9581,1472
9582,1535
9583,1616
9584,1707
9585,1776
9586,1648
9587,1923
9588,2117
9589,2307
9590,2383
9591,2298
9592,2161
9593,2087
9594,1840
9595,1456
9596,1333
9597,1567
9598,1821
9599,2072
9600,2262
9601,2363
9602,2373
9603,2321
9604,2218
9605,2035
9606,1819
9607,1600
9608,1443
9609,1339
9610,1327
9611,1395
9612,1488
9613,1578
9614,1669
9615,1749
9616,1810
9617,1838
9618,1764
9619,2140
9620,2328
9621,2428
9622,2335
9623,2192
9624,2090
9625,1819
9626,1386
9627,1290
9628,1523
9629,1809
9630,2067
9631,2256
9632,2365
9633,2387
9634,2333
9635,2224
9636,2039
9637,1808
9638,1594
9639,1433
9640,1338
9641,1344
9642,1421
9643,1511
9644,1589
9645,1678
9646,1743
9647,1799
9648,1851
9649,1311
9650,2142
9651,2384
9652,2559
9653,2476
9654,2347
9655,2190
9656,1853
9657,1302
9658,1136
9659,1408
9660,1734
9661,2015
9662,2186
9663,2288
9664,2335
9665,2320
9666,2231
9667,2085
9668,1866
9669,1648
9670,1483
9671,1383
9672,1361
9673,1409
9674,1489
9675,1574
9676,1665
9677,1767
9678,1831
9679,1870
9680,975
9681,2099
9682,2343
9683,2555
9684,2505
9685,2406
9686,2201
9687,1862
9688,1333
9689,1127
9690,1361
9691,1682
9692,1938
9693,2132
9694,2270
9695,2358
9696,2352
9697,2270
9698,2126
9699,1909
9700,1697
9701,1535
9702,1417
9703,1366
9704,1424
9705,1488
9706,1563
9707,1648
9708,1727
9709,1791
9710,1856
9711,909
9712,2039
9713,2301
9714,2547
9715,2549
9716,2457
9717,2257
9718,1968
9719,1389
9720,1098
9721,1333
9722,1667
9723,1914
9724,2061
9725,2172
9726,2274
9727,2306
9728,2234
9729,2106
9730,1919
9731,1716
9732,1535
9733,1447
9734,1416
9735,1455
9736,1517
9737,1586
9738,1667
9739,1725
9740,1780
9741,1836
9742,1313
9743,1936
9744,2235
9745,2494
9746,2526
9747,2474
9748,2273
9749,2000
9750,1456
9751,1163
9752,1367
9753,1694
9754,1925
9755,2086
9756,2209
9757,2292
9758,2294
9759,2224
9760,2094
9761,1894
9762,1707
9763,1555
9764,1449
9765,1407
9766,1456
9767,1527
9768,1600
9769,1681
9770,1745
9771,1792
9772,1829
9773,1838
9774,1750
9775,2161
9776,2448
9777,2529
9778,2493
9779,2313
9780,2096
9781,1584
9782,1127
9783,1299
9784,1658
9785,1921
9786,2090
9787,2192
9788,2259
9789,2281
9790,2212
9791,2106
9792,1918
9793,1723
9794,1567
9795,1455
9796,1409
9797,1452
9798,1515
9799,1600
9800,1687
9801,1778
9802,1830
9803,1856
9804,1741
9805,1621
9806,2150
9807,2417
9808,2506
9809,2493
9810,2309
9811,2079
9812,1614
9813,1152
9814,1309
9815,1657
9816,1919
9817,2098
9818,2222
9819,2306
9820,2310
9821,2229
9822,2086
9823,1894
9824,1700
9825,1526
9826,1408
9827,1380
9828,1423
9829,1504
9830,1587
9831,1685
9832,1760
9833,1823
9834,1872
9835,1889
9836,1283
9837,2123
9838,2388
9839,2544
9840,2529
9841,2368
9842,2128
9843,1706
9844,1122
9845,1168
9846,1535
9847,1845
9848,2043
9849,2185
9850,2301
9851,2357
9852,2294
9853,2163
9854,1981
9855,1755
9856,1567
9857,1433
9858,1367
9859,1401
9860,1481
9861,1569
9862,1663
9863,1744
9864,1819
9865,1872
9866,1895
9867,1093
9868,2128
9869,2387
9870,2553
9871,2543
9872,2385
9873,2141
9874,1754
9875,1136
9876,1168
9877,1523
9878,1834
9879,2022
9880,2147
9881,2225
9882,2288
9883,2277
9884,2174
9885,2001
9886,1791
9887,1611
9888,1472
9889,1392
9890,1398
9891,1463
9892,1535
9893,1643
9894,1744
9895,1807
9896,1853
9897,1887
9898,846
9899,2078
9900,2357
9901,2559
9902,2601
9903,2451
9904,2206
9905,1890
9906,1213
9907,1083
9908,1427
9909,1776
9910,1962
9911,2069
9912,2176
9913,2253
9914,2280
9915,2198
9916,2054
9917,1863
9918,1677
9919,1520
9920,1419
9921,1408
9922,1439
9923,1507
9924,1596
9925,1684
9926,1770
9927,1824
9928,1874
9929,1072
9930,2000
9931,2297
9932,2554
9933,2608
9934,2502
9935,2252
9936,1979
9937,1296
9938,1061
9939,1381
9940,1734
9941,1958
9942,2093
9943,2196
9944,2277
9945,2295
9946,2211
9947,2064
9948,1872
9949,1680
9950,1530
9951,1423
9952,1392
9953,1440
9954,1506
9955,1597
9956,1662
9957,1744
9958,1808
9959,1854
9960,2036
9961,1855
9962,2230
9963,2529
9964,2624
9965,2559
9966,2294
9967,2083
9968,1445
9969,1037
9970,1322
9971,1695
9972,1929
9973,2047
9974,2133
9975,2226
9976,2256
9977,2224
9978,2098
9979,1900
9980,1714
9981,1566
9982,1456
9983,1429
9984,1463
9985,1514
9986,1597
9987,1666
9988,1750
9989,1801
9990,1837
9991,1750
9992,1635
9993,2162
9994,2463
9995,2624
9996,2610
9997,2366
9998,2159
9999,1600
10000,1062
10001,1264
10002,1639
10003,1887
10004,2015
10005,2106
10006,2170
10007,2224
10008,2203
10009,2093
10010,1925
10011,1737
10012,1574
10013,1457
10014,1419
10015,1454
10016,1535
10017,1616
10018,1693
10019,1765
10020,1815
10021,1840
10022,1859
10023,1360
10024,2113
10025,2400
10026,2595
10027,2615
10028,2383
10029,2153
10030,1666
10031,1073
10032,1213
10033,1611
10034,1904
10035,2047
10036,2146
10037,2221
10038,2273
10039,2224
10040,2114
10041,1933
10042,1739
10043,1584
10044,1459
10045,1411
10046,1439
10047,1499
10048,1587
10049,1679
10050,1770
10051,1838
10052,1872
10053,1890
10054,1071
10055,2069
10056,2335
10057,2559
10058,2595
10059,2405
10060,2178
10061,1762
10062,1104
10063,1168
10064,1569
10065,1872
10066,2042
10067,2135
10068,2225
10069,2273
10070,2252
10071,2157
10072,1968
10073,1775
10074,1584
10075,1454
10076,1385
10077,1399
10078,1468
10079,1555
10080,1652
10081,1744
10082,1814
10083,1873
10084,1909
10085,1926
10086,1932
10087,1927
10088,1921
10089,1916
10090,1914
10091,1910
10092,1912
10093,1918
10094,1925
10095,1927
10096,1921
10097,1920
10098,1921
10099,1919
10100,1918
10101,1917
10102,1901
10103,1874
10104,1861
10105,1854
10106,1840
10107,1837
10108,1840
10109,1851
10110,1856
10111,1862
10112,1872
10113,1875
10114,1886
10115,1888
10116,1887
10117,1885
10118,1876
10119,1862
10120,1858
10121,1856
10122,1840
10123,1834
10124,1834
10125,1839
10126,1854
10127,1858
10128,1867
10129,1873
10130,1879
10131,1877
10132,1881
10133,1886
10134,1875
10135,1877
10136,1861
10137,1844
10138,1836
10139,1824
10140,1834
10141,1833
10142,1843
10143,1857
10144,1857
10145,1872
10146,1873
10147,1885
10148,1885
10149,1892
10150,1901
10151,1891
10152,1872
10153,1872
10154,1853
10155,1832
10156,1833
10157,1841
10158,1853
10159,1863
10160,1857
10161,1867
10162,1874
10163,1859
10164,1841
10165,1853
10166,1863
10167,1871
10168,1869
10169,1861
10170,1846
10171,1827
10172,1826
10173,1831
10174,1834
10175,1833
10176,1850
10177,1858
10178,1872
10179,1877
10180,1876
10181,1875
10182,1881
10183,1888
10184,1885
10185,1878
10186,1870
10187,1855
10188,1850
10189,1838
10190,1840
10191,1843
10192,1841
10193,1842
10194,1868
10195,1870
10196,1875
10197,1878
10198,1885
10199,1893
10200,1898
10201,1895
10202,1860
10203,1840
10204,1844
10205,1839
10206,1840
10207,1847
10208,1847
10209,1856
10210,1870
10211,1871
10212,1852
10213,1845
10214,1860
10215,1875
10216,1871
10217,1888
10218,1873
10219,1871
10220,1858
10221,1849
10222,1827
10223,1830
10224,1829
10225,1847
10226,1855
10227,1860
10228,1854
10229,1867
10230,1872
10231,1871
10232,1869
10233,1877
10234,1876
10235,1873
10236,1867
10237,1863
10238,1840
10239,1813
10240,1813
10241,1831
10242,1840
10243,1854
10244,1866
10245,1873
10246,1872
10247,1875
10248,1882
10249,1889
10250,1889
10251,1889
10252,1875
10253,1873
10254,1855
10255,1840
10256,1831
10257,1825
10258,1811
10259,1834
10260,1841
10261,1856
10262,1867
10263,1872
10264,1874
10265,1877
10266,1877
10267,1890
10268,1876
10269,1869
10270,1857
10271,1861
10272,1843
10273,1838
10274,1837
10275,1836
10276,1841
10277,1855
10278,1868
10279,1858
10280,1862
10281,1874
10282,1875
10283,1891
10284,1878
10285,1862
10286,1855
10287,1845
10288,1850
10289,1829
10290,1834
10291,1833
10292,1846
10293,1863
10294,1869
10295,1873
10296,1879
10297,1874
10298,1878
10299,1882
10300,1889
10301,1882
10302,1874
10303,1858
10304,1849
10305,1845
10306,1830
10307,1835
10308,1843
10309,1843
10310,1856
10311,1863
10312,1874
10313,1882
10314,1881
10315,1880
10316,1882
10317,1890
10318,1886
10319,1857
10320,1843
10321,1839
10322,1829
10323,1835
10324,1838
10325,1851
10326,1858
10327,1871
10328,1862
10329,1849
10330,1861
10331,1870
10332,1876
10333,1886
10334,1882
10335,1871
10336,1862
10337,1846
10338,1845
10339,1835
10340,1835
10341,1840
10342,1845
10343,1862
10344,1858
10345,1862
10346,1872
10347,1873
10348,1878
10349,1883
10350,1891
10351,1899
10352,1877
10353,1858
10354,1850
10355,1835
10356,1840
10357,1833
10358,1838
10359,1855
10360,1862
10361,1873
10362,1872
10363,1882
10364,1874
10365,1883
10366,1887
10367,1889
10368,1878
10369,1872
10370,1861
10371,1851
10372,1835
10373,1830
10374,1835
10375,1837
10376,1840
10377,1855
10378,1867
10379,1872
10380,1879
10381,1876
10382,1874
10383,1877
10384,1885
10385,1874
10386,1863
10387,1851
10388,1833
10389,1830
10390,1831
10391,1831
10392,1840
10393,1850
10394,1858
10395,1865
10396,1875
10397,1879
10398,1881
10399,1885
10400,1889
10401,1884
10402,1872
10403,1862
10404,1839
10405,1825
10406,1832
10407,1825
10408,1835
10409,1842
10410,1856
10411,1871
10412,1870
10413,1866
10414,1877
10415,1878
10416,1884
10417,1887
10418,1873
10419,1868
10420,1859
10421,1862
10422,1856
10423,1855
10424,1855
10425,1857
10426,1857
10427,1847
10428,1840
10429,1841
10430,1852
10431,1870
10432,1878
10433,1873
10434,1862
10435,1855
10436,1837
10437,1835
10438,1825
10439,1825
10440,1833
10441,1841
10442,1840
10443,1870
10444,1872
10445,1875
10446,1869
10447,1874
10448,1879
10449,1879
10450,1890
10451,1886
10452,1876
10453,1865
10454,1850
10455,1839
10456,1839
10457,1839
10458,1841
10459,1851
10460,1867
10461,1869
10462,1877
10463,1875
10464,1872
10465,1882
10466,1873
10467,1879
10468,1872
10469,1872
10470,1855
10471,1834
10472,1824
10473,1827
10474,1827
10475,1839
10476,1853
10477,1868
10478,1875
10479,1874
10480,1887
10481,1881
10482,1886
10483,1898
10484,1887
10485,1878
10486,1863
10487,1847
10488,1827
10489,1827
10490,1831
10491,1834
10492,1835
10493,1840
10494,1865
10495,1872
10496,1872
10497,1878
10498,1874
10499,1887
10500,1885
10501,1886
10502,1871
10503,1854
10504,1854
10505,1835
10506,1831
10507,1829
10508,1834
10509,1845
10510,1855
10511,1871
10512,1870
10513,1884
10514,1874
10515,1878
10516,1874
10517,1886
10518,1880
10519,1865
10520,1843
10521,1842
10522,1827
10523,1823
10524,1825
10525,1836
10526,1841
10527,1856
10528,1867
10529,1872
10530,1879
10531,1885
10532,1879
10533,1891
10534,1889
10535,1869
10536,1862
10537,1856
10538,1837
10539,1831
10540,1835
10541,1840
10542,1840
10543,1841
10544,1855
10545,1860
10546,1868
10547,1882
10548,1875
10549,1882
10550,1885
10551,1884
10552,1875
10553,1867
10554,1840
10555,1835
10556,1830
10557,1827
10558,1821
10559,1836
10560,1866
10561,1868
10562,1869
10563,1873
10564,1883
10565,1882
10566,1878
10567,1883
10568,1874
10569,1866
10570,1847
10571,1841
10572,1840
10573,1839
10574,1833
10575,1840
10576,1845
10577,1869
10578,1867
10579,1877
10580,1877
10581,1879
10582,1885
10583,1883
10584,1878
10585,1871
10586,1861
10587,1853
10588,1843
10589,1839
10590,1833
10591,1840
10592,1845
10593,1859
10594,1866
10595,1873
10596,1870
10597,1872
10598,1876
10599,1885
10600,1891
10601,1885
10602,1874
10603,1855
10604,1854
10605,1827
10606,1827
10607,1830
10608,1842
10609,1843
10610,1869
10611,1867
10612,1875
10613,1885
10614,1872
10615,1872
10616,1872
10617,1875
10618,1859
10619,1856
10620,1854
10621,1846
10622,1837
10623,1835
10624,1837
10625,1842
10626,1856
10627,1872
10628,1873
10629,1879
10630,1873
10631,1878
10632,1878
10633,1873
10634,1884
10635,1875
10636,1859
10637,1851
10638,1835
10639,1839
10640,1831
10641,1831
10642,1840
10643,1856
10644,1860
10645,1872
10646,1863
10647,1875
10648,1877
10649,1875
10650,1893
10651,1888
10652,1868
10653,1858
10654,1845
10655,1839
10656,1829
10657,1829
10658,1837
10659,1841
10660,1862
10661,1866
10662,1871
10663,1874
10664,1877
10665,1886
10666,1887
10667,1889
10668,1886
10669,1860
10670,1857
10671,1840
10672,1839
10673,1831
10674,1826
10675,1837
10676,1840
10677,1865
10678,1861
10679,1878
10680,1873
10681,1878
10682,1887
10683,1887
10684,1885
10685,1878
10686,1866
10687,1853
10688,1842
10689,1822
10690,1825
10691,1837
10692,1837
10693,1850
10694,1872
10695,1874
10696,1871
10697,1882
10698,1883
10699,1879
10700,1882
10701,1875
10702,1860
10703,1858
10704,1840
10705,1830
10706,1822
10707,1823
10708,1824
10709,1834
10710,1861
10711,1872
10712,1872
10713,1876
10714,1892
10715,1888
10716,1882
10717,1881
10718,1871
10719,1851
10720,1846
10721,1831
10722,1831
10723,1827
10724,1831
10725,1840
10726,1840
10727,1862
10728,1872
10729,1867
10730,1879
10731,1882
10732,1883
10733,1883
10734,1872
10735,1865
10736,1855
10737,1843
10738,1835
10739,1831
10740,1835
10741,1833
10742,1842
10743,1855
10744,1858
10745,1868
10746,1867
10747,1875
10748,1885
10749,1879
10750,1887
10751,1881
10752,1871
10753,1863
10754,1847
10755,1838
10756,1838
10757,1837
10758,1846
10759,1850
10760,1865
10761,1875
10762,1872
10763,1875
10764,1872
10765,1877
10766,1874
10767,1883
10768,1868
10769,1867
10770,1849
10771,1842
10772,1830
10773,1829
10774,1837
10775,1840
10776,1843
10777,1855
10778,1866
10779,1867
10780,1877
10781,1887
10782,1885
10783,1892
10784,1890
10785,1873
10786,1856
10787,1849
10788,1835
10789,1837
10790,1833
10791,1841
10792,1846
10793,1856
10794,1863
10795,1861
10796,1874
10797,1872
10798,1872
10799,1887
10800,1894
10801,1891
10802,1870
10803,1856
10804,1841
10805,1835
10806,1824
10807,1827
10808,1838
10809,1847
10810,1862
10811,1873
10812,1876
10813,1881
10814,1875
10815,1879
10816,1879
10817,1878
10818,1866
10819,1858
10820,1846
10821,1833
10822,1829
10823,1830
10824,1829
10825,1839
10826,1840
10827,1859
10828,1865
10829,1872
10830,1874
10831,1878
10832,1877
10833,1887
10834,1881
10835,1873
10836,1856
10837,1856
10838,1840
10839,1835
10840,1835
10841,1845
10842,1843
10843,1855
10844,1867
10845,1874
10846,1879
10847,1885
10848,1884
10849,1884
10850,1883
10851,1878
10852,1868
10853,1863
10854,1843
10855,1830
10856,1822
10857,1824
10858,1840
10859,1854
10860,1858
10861,1870
10862,1881
10863,1878
10864,1872
10865,1878
10866,1881
10867,1891
10868,1872
10869,1853
10870,1851
10871,1837
10872,1831
10873,1829
10874,1837
10875,1841
10876,1847
10877,1869
10878,1877
10879,1872
10880,1878
10881,1886
10882,1886
10883,1891
10884,1872
10885,1866
10886,1862
10887,1842
10888,1837
10889,1837
10890,1837
10891,1840
10892,1840
10893,1857
10894,1866
10895,1867
10896,1867
10897,1882
10898,1885
10899,1886
10900,1888
10901,1872
10902,1861
10903,1851
10904,1845
10905,1836
10906,1837
10907,1838
10908,1840
10909,1849
10910,1865
10911,1872
10912,1879
10913,1879
10914,1874
10915,1872
10916,1877
10917,1881
10918,1859
10919,1856
10920,1843
10921,1839
10922,1837
10923,1830
10924,1828
10925,1840
10926,1859
10927,1871
10928,1869
10929,1871
10930,1874
10931,1875
10932,1881
10933,1882
10934,1878
10935,1865
10936,1865
10937,1841
10938,1840
10939,1830
10940,1831
10941,1840
10942,1853
10943,1856
10944,1859
10945,1874
10946,1874
10947,1879
10948,1873
10949,1867
10950,1879
10951,1878
10952,1870
10953,1856
10954,1840
10955,1834
10956,1827
10957,1840
10958,1842
10959,1847
10960,1872
10961,1865
10962,1866
10963,1872
10964,1883
10965,1887
10966,1888
10967,1893
10968,1878
10969,1863
10970,1858
10971,1838
10972,1835
10973,1834
10974,1827
10975,1837
10976,1850
10977,1859
10978,1856
10979,1878
10980,1885
10981,1887
10982,1882
10983,1889
10984,1879
10985,1872
10986,1867
10987,1852
10988,1841
10989,1838
10990,1833
10991,1841
10992,1847
10993,1865
10994,1871
10995,1867
10996,1869
10997,1875
10998,1872
10999,1875
11000,1882
11001,1872
11002,1862
11003,1860
11004,1840
11005,1826
11006,1825
11007,1827
11008,1831
11009,1847
11010,1867
11011,1867
11012,1872
11013,1883
11014,1888
11015,1895
11016,1903
11017,1903
11018,1869
11019,1872
11020,1851
11021,1827
11022,1813
11023,1811
11024,1822
11025,1840
11026,1845
11027,1866
11028,1873
11029,1873
11030,1878
11031,1888
11032,1885
11033,1885
11034,1869
11035,1855
11036,1850
11037,1842
11038,1835
11039,1829
11040,1834
11041,1834
11042,1847
11043,1860
11044,1860
11045,1871
11046,1873
11047,1875
11048,1877
11049,1877
11050,1894
11051,1881
11052,1872
11053,1862
11054,1851
11055,1835
11056,1827
11057,1829
11058,1840
11059,1852
11060,1869
11061,1872
11062,1875
11063,1877
11064,1873
11065,1877
11066,1884
11067,1883
11068,1863
11069,1872
11070,1849
11071,1842
11072,1831
11073,1830
11074,1836
11075,1841
11076,1862
11077,1873
11078,1875
11079,1872
11080,1884
11081,1695
11082,2095
11083,2103
11084,2186
11085,2231
11086,2190
11087,2128
11088,2090
11089,2011
11090,1861
11091,1631
11092,1488
11093,1456
11094,1566
11095,1695
11096,1831
11097,1960
11098,2095
11099,2178
11100,2223
11101,2228
11102,2157
11103,2042
11104,1932
11105,1791
11106,1666
11107,1567
11108,1503
11109,1488
11110,1512
11111,1535
11112,1585
11113,1722
11114,1905
11115,2031
11116,2164
11117,2160
11118,2093
11119,2047
11120,1983
11121,1751
11122,1475
11123,1347
11124,1414
11125,1629
11126,1841
11127,2039
11128,2224
11129,2343
11130,2385
11131,2373
11132,2306
11133,2171
11134,1983
11135,1786
11136,1600
11137,1462
11138,1379
11139,1360
11140,1398
11141,1471
11142,1559
11143,1627
11144,1520
11145,2013
11146,2138
11147,2301
11148,2297
11149,2210
11150,2158
11151,2035
11152,1716
11153,1403
11154,1338
11155,1494
11156,1709
11157,1894
11158,2094
11159,2255
11160,2368
11161,2407
11162,2366
11163,2256
11164,2074
11165,1856
11166,1664
11167,1504
11168,1397
11169,1362
11170,1386
11171,1456
11172,1522
11173,1603
11174,1667
11175,961
11176,2005
11177,2214
11178,2410
11179,2416
11180,2294
11181,2195
11182,2033
11183,1686
11184,1352
11185,1341
11186,1579
11187,1812
11188,2013
11189,2176
11190,2287
11191,2342
11192,2330
11193,2263
11194,2117
11195,1909
11196,1699
11197,1533
11198,1422
11199,1374
11200,1411
11201,1483
11202,1535
11203,1618
11204,1687
11205,1740
11206,979
11207,2037
11208,2158
11209,2346
11210,2362
11211,2272
11212,2160
11213,2011
11214,1693
11215,1392
11216,1440
11217,1686
11218,1919
11219,2113
11220,2254
11221,2325
11222,2320
11223,2285
11224,2164
11225,1980
11226,1767
11227,1584
11228,1453
11229,1375
11230,1383
11231,1452
11232,1531
11233,1609
11234,1693
11235,1753
11236,1808
11237,1584
11238,2032
11239,2142
11240,2355
11241,2405
11242,2299
11243,2163
11244,2022
11245,1677
11246,1362
11247,1389
11248,1649
11249,1914
11250,2146
11251,2289
11252,2366
11253,2351
11254,2259
11255,2133
11256,1936
11257,1710
11258,1527
11259,1405
11260,1365
11261,1381
11262,1460
11263,1535
11264,1622
11265,1707
11266,1779
11267,1833
11268,1734
11269,1861
11270,2143
11271,2382
11272,2448
11273,2352
11274,2211
11275,2032
11276,1673
11277,1296
11278,1327
11279,1616
11280,1882
11281,2097
11282,2246
11283,2354
11284,2379
11285,2314
11286,2187
11287,1983
11288,1743
11289,1535
11290,1407
11291,1344
11292,1363
11293,1442
11294,1535
11295,1623
11296,1709
11297,1781
11298,1831
11299,1841
11300,1643
11301,2138
11302,2368
11303,2462
11304,2377
11305,2236
11306,2071
11307,1706
11308,1287
11309,1271
11310,1535
11311,1838
11312,2070
11313,2226
11314,2341
11315,2396
11316,2354
11317,2249
11318,2041
11319,1809
11320,1586
11321,1424
11322,1331
11323,1342
11324,1418
11325,1511
11326,1606
11327,1711
11328,1783
11329,1835
11330,1878
11331,1360
11332,2140
11333,2367
11334,2512
11335,2469
11336,2334
11337,2143
11338,1786
11339,1267
11340,1157
11341,1429
11342,1738
11343,2010
11344,2176
11345,2298
11346,2345
11347,2333
11348,2236
11349,2083
11350,1855
11351,1648
11352,1472
11353,1392
11354,1362
11355,1424
11356,1499
11357,1582
11358,1676
11359,1758
11360,1819
11361,1872
11362,1093
11363,2115
11364,2342
11365,2518
11366,2490
11367,2402
11368,2197
11369,1835
11370,1273
11371,1117
11372,1411
11373,1728
11374,1971
11375,2138
11376,2266
11377,2353
11378,2345
11379,2255
11380,2097
11381,1873
11382,1675
11383,1513
11384,1424
11385,1392
11386,1433
11387,1507
11388,1576
11389,1653
11390,1733
11391,1797
11392,1827
11393,914
11394,2038
11395,2278
11396,2506
11397,2501
11398,2433
11399,2263
11400,1964
11401,1377
11402,1127
11403,1378
11404,1698
11405,1936
11406,2100
11407,2219
11408,2301
11409,2314
11410,2245
11411,2110
11412,1911
11413,1712
11414,1535
11415,1421
11416,1392
11417,1443
11418,1513
11419,1571
11420,1658
11421,1712
11422,1776
11423,1818
11424,1598
11425,1934
11426,2231
11427,2491
11428,2535
11429,2479
11430,2309
11431,2023
11432,1456
11433,1123
11434,1327
11435,1645
11436,1906
11437,2071
11438,2194
11439,2279
11440,2304
11441,2247
11442,2121
11443,1947
11444,1749
11445,1590
11446,1438
11447,1392
11448,1437
11449,1504
11450,1600
11451,1680
11452,1744
11453,1805
11454,1824
11455,1810
11456,1798
11457,2182
11458,2441
11459,2501
11460,2467
11461,2308
11462,2032
11463,1519
11464,1139
11465,1299
11466,1636
11467,1899
11468,2079
11469,2217
11470,2299
11471,2324
11472,2262
11473,2133
11474,1943
11475,1746
11476,1589
11477,1463
11478,1393
11479,1424
11480,1488
11481,1569
11482,1661
11483,1742
11484,1803
11485,1852
11486,1730
11487,1607
11488,2138
11489,2394
11490,2496
11491,2475
11492,2325
11493,2095
11494,1645
11495,1165
11496,1241
11497,1587
11498,1877
11499,2070
11500,2199
11501,2304
11502,2322
11503,2282
11504,2133
11505,1947
11506,1753
11507,1577
11508,1456
11509,1405
11510,1439
11511,1488
11512,1567
11513,1648
11514,1727
11515,1793
11516,1854
11517,1887
11518,1338
11519,2115
11520,2373
11521,2522
11522,2505
11523,2354
11524,2125
11525,1711
11526,1153
11527,1168
11528,1506
11529,1818
11530,2021
11531,2169
11532,2281
11533,2347
11534,2327
11535,2199
11536,2003
11537,1815
11538,1609
11539,1470
11540,1386
11541,1393
11542,1461
11543,1554
11544,1648
11545,1729
11546,1797
11547,1847
11548,1875
11549,1044
11550,2112
11551,2334
11552,2519
11553,2499
11554,2381
11555,2146
11556,1790
11557,1185
11558,1127
11559,1474
11560,1791
11561,1998
11562,2149
11563,2274
11564,2351
11565,2331
11566,2231
11567,2059
11568,1841
11569,1648
11570,1493
11571,1401
11572,1379
11573,1429
11574,1500
11575,1582
11576,1665
11577,1757
11578,1827
11579,1874
11580,873
11581,2064
11582,2310
11583,2546
11584,2558
11585,2448
11586,2206
11587,1930
11588,1294
11589,1077
11590,1399
11591,1733
11592,1953
11593,2096
11594,2193
11595,2276
11596,2311
11597,2252
11598,2086
11599,1881
11600,1697
11601,1553
11602,1437
11603,1402
11604,1434
11605,1485
11606,1558
11607,1641
11608,1731
11609,1808
11610,1857
11611,1379
11612,1985
11613,2259
11614,2502
11615,2544
11616,2491
11617,2273
11618,2013
11619,1376
11620,1072
11621,1345
11622,1685
11623,1916
11624,2064
11625,2202
11626,2297
11627,2323
11628,2271
11629,2121
11630,1931
11631,1742
11632,1577
11633,1456
11634,1392
11635,1420
11636,1477
11637,1566
11638,1642
11639,1722
11640,1792
11641,1840
11642,1946
11643,1858
11644,2214
11645,2485
11646,2555
11647,2512
11648,2311
11649,2113
11650,1527
11651,1094
11652,1307
11653,1680
11654,1905
11655,2019
11656,2115
11657,2205
11658,2258
11659,2237
11660,2128
11661,1936
11662,1746
11663,1598
11664,1474
11665,1424
11666,1447
11667,1509
11668,1581
11669,1652
11670,1734
11671,1795
11672,1826
11673,1718
11674,1670
11675,2150
11676,2441
11677,2559
11678,2559
11679,2355
11680,2158
11681,1620
11682,1102
11683,1264
11684,1631
11685,1886
11686,2020
11687,2110
11688,2198
11689,2247
11690,2219
11691,2104
11692,1939
11693,1761
11694,1599
11695,1470
11696,1423
11697,1443
11698,1494
11699,1590
11700,1676
11701,1754
11702,1797
11703,1843
11704,1872
11705,1894
11706,1911
11707,1922
11708,1937
11709,1951
11710,1943
11711,1936
11712,1936
11713,1936
11714,1922
11715,1914
11716,1926
11717,1923
11718,1919
11719,1899
11720,1881
11721,1867
11722,1853
11723,1853
11724,1855
11725,1856
11726,1866
11727,1872
11728,1872
11729,1874
11730,1877
11731,1878
11732,1888
11733,1893
11734,1879
11735,1873
11736,1861
11737,1841
11738,1840
11739,1837
11740,1837
11741,1843
11742,1841
11743,1871
11744,1869
11745,1870
11746,1872
11747,1875
11748,1879
11749,1878
11750,1893
11751,1872
11752,1866
11753,1847
11754,1841
11755,1828
11756,1827
11757,1823
11758,1834
11759,1853
11760,1861
11761,1871
11762,1875
11763,1881
11764,1879
11765,1882
11766,1885
11767,1883
11768,1862
11769,1852
11770,1849
11771,1839
11772,1840
11773,1842
11774,1843
11775,1849
11776,1860
11777,1872
11778,1873
11779,1872
11780,1871
11781,1873
11782,1877
11783,1877
11784,1863
11785,1845
11786,1840
11787,1840
11788,1835
11789,1826
11790,1826
11791,1844
11792,1856
11793,1869
11794,1875
11795,1872
11796,1867
11797,1854
11798,1859
11799,1870
11800,1877
11801,1869
11802,1867
11803,1856
11804,1843
11805,1831
11806,1833
11807,1831
11808,1840
11809,1841
11810,1861
11811,1871
11812,1877
11813,1879
11814,1877
11815,1886
11816,1890
11817,1893
11818,1877
11819,1853
11820,1840
11821,1824
11822,1824
11823,1839
11824,1861
11825,1885
11826,1908
11827,1907
11828,1907
11829,1892
11830,1875
11831,1835
11832,1808
11833,1826
11834,1847
11835,1840
11836,1843
11837,1854
11838,1842
11839,1840
11840,1840
11841,1857
11842,1872
11843,1871
11844,1851
11845,1846
11846,1867
11847,1872
11848,1869
11849,1871
11850,1875
11851,1872
11852,1858
11853,1854
11854,1842
11855,1830
11856,1839
11857,1840
11858,1850
11859,1856
11860,1869
11861,1872
11862,1873
11863,1878
11864,1878
11865,1881
11866,1888
11867,1883
11868,1871
11869,1855
11870,1847
11871,1833
11872,1831
11873,1831
11874,1840
11875,1842
11876,1861
11877,1868
11878,1869
11879,1875
11880,1886
11881,1884
11882,1873
11883,1887
11884,1882
11885,1865
11886,1855
11887,1846
11888,1835
11889,1835
11890,1840
11891,1842
11892,1851
11893,1860
11894,1872
11895,1872
11896,1879
11897,1877
11898,1882
11899,1878
11900,1883
11901,1874
11902,1867
11903,1845
11904,1827
11905,1825
11906,1826
11907,1831
11908,1839
11909,1861
11910,1872
11911,1874
11912,1872
11913,1877
11914,1882
11915,1887
11916,1891
11917,1872
11918,1859
