Time(ms),Raw_ADC
0,1861
1,1857
2,1855
3,1860
4,1858
5,1862
6,1859
7,1859
8,1860
9,1861
10,1859
11,1859
12,1861
13,1862
14,1862
15,1863
16,1861
17,1858
18,1859
19,1862
20,1859
21,1859
22,1862
23,1861
24,1855
25,1856
26,1855
27,1854
28,1855
29,1859
30,1859
31,1861
32,1859
33,1859
34,1860
35,1862
36,1862
37,1861
38,1860
39,1860
40,1861
41,1862
42,1857
43,1859
44,1856
45,1863
46,1861
47,1862
48,1862
49,1861
50,1861
51,1862
52,1860
53,1863
54,1855
55,1854
56,1854
57,1855
58,1854
59,1852
60,1853
61,1858
62,1860
63,1858
64,1859
65,1858
66,1859
67,1859
68,1859
69,1861
70,1862
71,1861
72,1860
73,1856
74,1861
75,1859
76,1859
77,1861
78,1858
79,1859
80,1859
81,1751
82,1895
83,1898
84,1890
85,1881
86,1879
87,1872
88,1872
89,1872
90,1872
91,1872
92,1870
93,1870
94,1868
95,1866
96,1869
97,1865
98,1863
99,1862
100,1865
101,1862
102,1862
103,1859
104,1862
105,1862
106,1863
107,1861
108,1861
109,1863
110,1859
111,1859
112,1535
113,1898
114,1897
115,1890
116,1887
117,1881
118,1874
119,1874
120,1869
121,1872
122,1872
123,1872
124,1871
125,1871
126,1868
127,1867
128,1865
129,1863
130,1863
131,1863
132,1862
133,1863
134,1862
135,1867
136,1863
137,1861
138,1862
139,1862
140,1861
141,1859
142,1855
143,1344
144,1878
145,1901
146,1894
147,1888
148,1881
149,1881
150,1872
151,1872
152,1872
153,1872
154,1872
155,1872
156,1870
157,1868
158,1865
159,1867
160,1866
161,1865
162,1862
163,1866
164,1863
165,1862
166,1862
167,1863
168,1862
169,1862
170,1862
171,1861
172,1861
173,1863
174,1287
175,1863
176,1901
177,1894
178,1889
179,1887
180,1885
181,1882
182,1875
183,1873
184,1872
185,1871
186,1871
187,1870
188,1869
189,1868
190,1867
191,1867
192,1866
193,1867
194,1864
195,1866
196,1863
197,1862
198,1862
199,1862
200,1862
201,1861
202,1855
203,1856
204,1855
205,1351
206,1840
207,1904
208,1901
209,1894
210,1887
211,1887
212,1883
213,1879
214,1875
215,1874
216,1872
217,1873
218,1870
219,1871
220,1867
221,1866
222,1867
223,1866
224,1863
225,1863
226,1865
227,1863
228,1862
229,1861
230,1862
231,1863
232,1861
233,1862
234,1855
235,1854
236,1856
237,1766
238,1904
239,1907
240,1904
241,1893
242,1889
243,1887
244,1881
245,1877
246,1874
247,1875
248,1872
249,1872
250,1869
251,1870
252,1869
253,1867
254,1866
255,1866
256,1865
257,1863
258,1861
259,1861
260,1863
261,1861
262,1862
263,1861
264,1853
265,1856
266,1854
267,1855
268,1642
269,1905
270,1914
271,1904
272,1901
273,1895
274,1888
275,1883
276,1878
277,1875
278,1873
279,1872
280,1872
281,1870
282,1872
283,1871
284,1869
285,1869
286,1868
287,1866
288,1862
289,1863
290,1862
291,1862
292,1862
293,1862
294,1855
295,1855
296,1855
297,1856
298,1857
299,1403
300,1909
301,1919
302,1909
303,1904
304,1897
305,1893
306,1886
307,1883
308,1882
309,1873
310,1875
311,1872
312,1872
313,1870
314,1869
315,1869
316,1870
317,1866
318,1866
319,1865
320,1863
321,1863
322,1865
323,1863
324,1858
325,1856
326,1855
327,1856
328,1856
329,1851
330,1143
331,1891
332,1925
333,1917
334,1906
335,1904
336,1897
337,1889
338,1887
339,1882
340,1872
341,1877
342,1872
343,1872
344,1871
345,1870
346,1869
347,1867
348,1867
349,1866
350,1863
351,1862
352,1863
353,1863
354,1858
355,1857
356,1856
357,1855
358,1856
359,1854
360,1862
361,1036
362,1865
363,1934
364,1924
365,1915
366,1905
367,1899
368,1894
369,1891
370,1884
371,1879
372,1876
373,1874
374,1873
375,1872
376,1872
377,1871
378,1871
379,1867
380,1867
381,1866
382,1863
383,1863
384,1856
385,1859
386,1856
387,1857
388,1856
389,1861
390,1859
391,1861
392,1366
393,1805
394,1934
395,1927
396,1918
397,1910
398,1903
399,1898
400,1892
401,1886
402,1883
403,1879
404,1875
405,1873
406,1872
407,1871
408,1871
409,1871
410,1869
411,1867
412,1867
413,1863
414,1857
415,1857
416,1857
417,1856
418,1856
419,1856
420,1856
421,1859
422,1861
423,1861
424,1693
425,1931
426,1931
427,1919
428,1910
429,1905
430,1898
431,1893
432,1887
433,1885
434,1879
435,1875
436,1874
437,1869
438,1872
439,1871
440,1869
441,1868
442,1859
443,1859
444,1857
445,1855
446,1856
447,1856
448,1856
449,1856
450,1862
451,1861
452,1861
453,1862
454,1861
455,1513
456,1926
457,1935
458,1922
459,1914
460,1905
461,1901
462,1895
463,1889
464,1887
465,1883
466,1878
467,1877
468,1872
469,1873
470,1872
471,1871
472,1869
473,1870
474,1856
475,1859
476,1859
477,1856
478,1857
479,1864
480,1866
481,1861
482,1863
483,1859
484,1862
485,1861
486,1276
487,1915
488,1936
489,1926
490,1916
491,1908
492,1902
493,1896
494,1889
495,1889
496,1882
497,1877
498,1876
499,1872
500,1872
501,1872
502,1860
503,1863
504,1859
505,1859
506,1858
507,1857
508,1857
509,1855
510,1855
511,1861
512,1859
513,1859
514,1859
515,1862
516,1863
517,1051
518,1898
519,1936
520,1927
521,1919
522,1909
523,1904
524,1897
525,1893
526,1886
527,1883
528,1878
529,1875
530,1874
531,1872
532,1872
533,1871
534,1861
535,1859
536,1859
537,1857
538,1860
539,1862
540,1859
541,1862
542,1862
543,1859
544,1862
545,1858
546,1861
547,1861
548,974
549,1859
550,1937
551,1931
552,1920
553,1913
554,1904
555,1900
556,1891
557,1889
558,1882
559,1883
560,1875
561,1874
562,1873
563,1872
564,1861
565,1863
566,1859
567,1858
568,1859
569,1858
570,1862
571,1863
572,1865
573,1859
574,1861
575,1863
576,1861
577,1863
578,1861
579,1348
580,1791
581,1936
582,1933
583,1923
584,1914
585,1904
586,1899
587,1894
588,1887
589,1886
590,1881
591,1876
592,1875
593,1874
594,1863
595,1863
596,1861
597,1859
598,1861
599,1862
600,1866
601,1865
602,1861
603,1862
604,1863
605,1862
606,1863
607,1863
608,1861
609,1862
610,1860
611,1669
612,1936
613,1936
614,1923
615,1915
616,1906
617,1899
618,1897
619,1890
620,1885
621,1881
622,1877
623,1873
624,1868
625,1866
626,1863
627,1862
628,1861
629,1859
630,1856
631,1863
632,1863
633,1862
634,1862
635,1863
636,1863
637,1863
638,1862
639,1861
640,1865
641,1863
642,1488
643,1929
644,1936
645,1922
646,1918
647,1909
648,1902
649,1895
650,1892
651,1886
652,1881
653,1879
654,1872
655,1869
656,1866
657,1866
658,1865
659,1861
660,1868
661,1864
662,1865
663,1863
664,1863
665,1863
666,1861
667,1861
668,1865
669,1863
670,1863
671,1862
672,1865
673,1246
674,1920
675,1938
676,1929
677,1918
678,1908
679,1904
680,1895
681,1889
682,1885
683,1879
684,1872
685,1871
686,1870
687,1864
688,1866
689,1871
690,1871
691,1867
692,1870
693,1865
694,1864
695,1863
696,1863
697,1863
698,1862
699,1863
700,1862
701,1861
702,1861
703,1861
704,1859
705,1858
706,1861
707,1860
708,1861
709,1861
710,1862
711,1861
712,1861
713,1860
714,1855
715,1853
716,1855
717,1856
718,1856
719,1858
720,1858
721,1861
722,1862
723,1861
724,1859
725,1862
726,1862
727,1861
728,1861
729,1862
730,1862
731,1860
732,1861
733,1863
734,1863
735,1860
736,1861
737,1860
738,1861
739,1862
740,1861
741,1862
742,1855
743,1856
744,1855
745,1855
746,1856
747,1855
748,1856
749,1855
750,1855
751,1851
752,1858
753,1858
754,1858
755,1860
756,1866
757,1859
758,1862
759,1861
760,1859
761,1862
762,1861
763,1860
764,1860
765,1862
766,1862
767,1865
768,1862
769,1860
770,1863
771,1861
772,1861
773,1862
774,1858
775,1855
776,1853
777,1854
778,1854
779,1860
780,1859
781,1861
782,1860
783,1861
784,1861
785,1861
786,1859
787,1859
788,1861
789,1861
790,1863
791,1862
792,1861
793,1862
794,1862
795,1861
796,1861
797,1861
798,1863
799,1864
800,1859
801,1861
802,1859
803,1861
804,1854
805,1856
806,1855
807,1855
808,1853
809,1860
810,1861
811,1859
812,1859
813,1861
814,1861
815,1858
816,1858
817,1857
818,1859
819,1861
820,1859
821,1862
822,1861
823,1862
824,1863
825,1859
826,1859
827,1859
828,1862
829,1861
830,1861
831,1859
832,1863
833,1861
834,1855
835,1853
836,1856
837,1856
838,1856
839,1855
840,1854
841,1860
842,1854
843,1857
844,1859
845,1857
846,1862
847,1863
848,1861
849,1859
850,1862
851,1859
852,1862
853,1863
854,1861
855,1863
856,1863
857,1858
858,1862
859,1862
860,1864
861,1860
862,1860
863,1863
864,1856
865,1856
866,1855
867,1853
868,1855
869,1853
870,1858
871,1859
872,1862
873,1858
874,1863
875,1858
876,1858
877,1859
878,1861
879,1859
880,1863
881,1866
882,1862
883,1863
884,1861
885,1856
886,1862
887,1859
888,1863
889,1860
890,1861
891,1861
892,1862
893,1859
894,1856
895,1856
896,1856
897,1856
898,1856
899,1859
900,1859
901,1861
902,1861
903,1861
904,1859
905,1861
906,1859
907,1859
908,1863
909,1861
910,1861
911,1859
912,1860
913,1857
914,1859
915,1863
916,1860
917,1861
918,1857
919,1861
920,1859
921,1861
922,1861
923,1859
924,1856
925,1855
926,1856
927,1855
928,1857
929,1855
930,1854
931,1857
932,1858
933,1860
934,1859
935,1859
936,1861
937,1860
938,1861
939,1859
940,1858
941,1860
942,1859
943,1860
944,1860
945,1860
946,1859
947,1861
948,1859
949,1861
950,1862
951,1861
952,1861
953,1862
954,1855
955,1856
956,1855
957,1856
958,1855
959,1857
960,1858
961,1860
962,1861
963,1857
964,1863
965,1859
966,1862
967,1859
968,1862
969,1857
970,1861
971,1862
972,1859
973,1861
974,1861
975,1861
976,1859
977,1862
978,1860
979,1859
980,1861
981,1859
982,1861
983,1861
984,1856
985,1856
986,1856
987,1856
988,1855
989,1862
990,1858
991,1859
992,1859
993,1859
994,1860
995,1860
996,1863
997,1857
998,1861
999,1862
1000,1861
1001,1860
1002,1862
1003,1861
1004,1856
1005,1860
1006,1859
1007,1858
1008,1858
1009,1858
1010,1858
1011,1859
1012,1859
1013,1858
1014,1853
1015,1855
1016,1853
1017,1850
1018,1856
1019,1858
1020,1857
1021,1859
1022,1859
1023,1860
1024,1859
1025,1861
1026,1860
1027,1861
1028,1860
1029,1861
1030,1861
1031,1859
1032,1859
1033,1862
1034,1861
1035,1860
1036,1863
1037,1862
1038,1860
1039,1860
1040,1863
1041,1859
1042,1855
1043,1855
1044,1855
1045,1855
1046,1855
1047,1855
1048,1855
1049,1856
1050,1851
1051,1855
1052,1859
1053,1859
1054,1859
1055,1858
1056,1861
1057,1861
1058,1862
1059,1862
1060,1862
1061,1861
1062,1861
1063,1861
1064,1863
1065,1858
1066,1860
1067,1861
1068,1859
1069,1862
1070,1862
1071,1861
1072,1861
1073,1859
1074,1856
1075,1856
1076,1856
1077,1853
1078,1855
1079,1859
1080,1861
1081,1859
1082,1861
1083,1861
1084,1858
1085,1861
1086,1859
1087,1862
1088,1859
1089,1859
1090,1861
1091,1860
1092,1860
1093,1860
1094,1861
1095,1860
1096,1859
1097,1861
1098,1862
1099,1862
1100,1863
1101,1862
1102,1861
1103,1861
1104,1854
1105,1854
1106,1853
1107,1853
1108,1854
1109,1859
1110,1857
1111,1859
1112,1860
1113,1860
1114,1861
1115,1859
1116,1859
1117,1860
1118,1862
1119,1859
1120,1860
1121,1859
1122,1859
1123,1861
1124,1859
1125,1861
1126,1859
1127,1861
1128,1860
1129,1861
1130,1861
1131,1861
1132,1862
1133,1862
1134,1855
1135,1855
1136,1856
1137,1854
1138,1855
1139,1851
1140,1856
1141,1856
1142,1858
1143,1857
1144,1859
1145,1862
1146,1861
1147,1862
1148,1862
1149,1862
1150,1859
1151,1858
1152,1861
1153,1861
1154,1860
1155,1861
1156,1859
1157,1862
1158,1862
1159,1859
1160,1862
1161,1858
1162,1860
1163,1861
1164,1856
1165,1854
1166,1855
1167,1856
1168,1856
1169,1853
1170,1856
1171,1854
1172,1857
1173,1859
1174,1862
1175,1861
1176,1858
1177,1860
1178,1860
1179,1861
1180,1860
1181,1859
1182,1861
1183,1861
1184,1858
1185,1859
1186,1859
1187,1861
1188,1861
1189,1861
1190,1861
1191,1862
1192,1858
1193,1862
1194,1856
1195,1855
1196,1854
1197,1855
1198,1856
1199,1860
1200,1859
1201,1858
1202,1858
1203,1858
1204,1858
1205,1859
1206,1858
1207,1860
1208,1858
1209,1861
1210,1859
1211,1857
1212,1857
1213,1858
1214,1857
1215,1861
1216,1859
1217,1858
1218,1861
1219,1858
1220,1859
1221,1859
1222,1859
1223,1859
1224,1855
1225,1856
1226,1855
1227,1856
1228,1855
1229,1854
1230,1859
1231,1859
1232,1860
1233,1861
1234,1861
1235,1861
1236,1859
1237,1862
1238,1862
1239,1859
1240,1861
1241,1859
1242,1861
1243,1861
1244,1862
1245,1859
1246,1862
1247,1857
1248,1862
1249,1859
1250,1860
1251,1861
1252,1862
1253,1863
1254,1856
1255,1856
1256,1854
1257,1854
1258,1855
1259,1855
1260,1858
1261,1858
1262,1860
1263,1858
1264,1861
1265,1861
1266,1863
1267,1861
1268,1862
1269,1859
1270,1860
1271,1861
1272,1862
1273,1861
1274,1861
1275,1859
1276,1859
1277,1862
1278,1859
1279,1861
1280,1861
1281,1861
1282,1861
1283,1862
1284,1856
1285,1855
1286,1855
1287,1855
1288,1855
1289,1858
1290,1858
1291,1860
1292,1860
1293,1861
1294,1858
1295,1860
1296,1859
1297,1863
1298,1858
1299,1860
1300,1862
1301,1861
1302,1859
1303,1859
1304,1860
1305,1860
1306,1859
1307,1859
1308,1862
1309,1861
1310,1860
1311,1860
1312,1858
1313,1857
1314,1853
1315,1851
1316,1853
1317,1855
1318,1853
1319,1856
1320,1859
1321,1862
1322,1862
1323,1860
1324,1862
1325,1859
1326,1859
1327,1862
1328,1861
1329,1859
1330,1860
1331,1862
1332,1859
1333,1863
1334,1861
1335,1861
1336,1862
1337,1862
1338,1861
1339,1861
1340,1862
1341,1860
1342,1856
1343,1855
1344,1854
1345,1853
1346,1854
1347,1855
1348,1855
1349,1853
1350,1853
1351,1851
1352,1858
1353,1859
1354,1858
1355,1858
1356,1860
1357,1857
1358,1861
1359,1862
1360,1861
1361,1860
1362,1862
1363,1863
1364,1859
1365,1862
1366,1858
1367,1863
1368,1859
1369,1856
1370,1865
1371,1859
1372,1860
1373,1861
1374,1854
1375,1855
1376,1855
1377,1857
1378,1855
1379,1862
1380,1861
1381,1859
1382,1862
1383,1862
1384,1859
1385,1859
1386,1861
1387,1860
1388,1860
1389,1862
1390,1863
1391,1861
1392,1861
1393,1859
1394,1861
1395,1859
1396,1862
1397,1861
1398,1858
1399,1858
1400,1860
1401,1861
1402,1861
1403,1860
1404,1855
1405,1855
1406,1856
1407,1855
1408,1855
1409,1859
1410,1857
1411,1857
1412,1858
1413,1859
1414,1859
1415,1859
1416,1861
1417,1858
1418,1864
1419,1860
1420,1861
1421,1862
1422,1859
1423,1859
1424,1859
1425,1860
1426,1858
1427,1857
1428,1859
1429,1861
1430,1861
1431,1861
1432,1861
1433,1860
1434,1856
1435,1855
1436,1855
1437,1855
1438,1856
1439,1851
1440,1857
1441,1857
1442,1859
1443,1858
1444,1859
1445,1859
1446,1858
1447,1859
1448,1863
1449,1861
1450,1863
1451,1859
1452,1861
1453,1861
1454,1863
1455,1861
1456,1862
1457,1861
1458,1859
1459,1862
1460,1861
1461,1862
1462,1859
1463,1861
1464,1856
1465,1853
1466,1855
1467,1855
1468,1855
1469,1856
1470,1858
1471,1860
1472,1860
1473,1859
1474,1859
1475,1859
1476,1859
1477,1859
1478,1859
1479,1863
1480,1859
1481,1861
1482,1861
1483,1861
1484,1860
1485,1861
1486,1859
1487,1862
1488,1860
1489,1859
1490,1859
1491,1861
1492,1862
1493,1861
1494,1856
1495,1858
1496,1855
1497,1855
1498,1855
1499,1859
1500,1862
1501,1859
1502,1860
1503,1857
1504,1861
1505,1859
1506,1861
1507,1859
1508,1862
1509,1859
1510,1862
1511,1860
1512,1859
1513,1859
1514,1861
1515,1859
1516,1861
1517,1862
1518,1858
1519,1861
1520,1861
1521,1862
1522,1861
1523,1859
1524,1854
1525,1854
1526,1856
1527,1855
1528,1856
1529,1854
1530,1859
1531,1859
1532,1862
1533,1862
1534,1859
1535,1862
1536,1860
1537,1859
1538,1859
1539,1862
1540,1865
1541,1859
1542,1861
1543,1863
1544,1861
1545,1863
1546,1862
1547,1861
1548,1860
1549,1863
1550,1862
1551,1861
1552,1863
1553,1861
1554,1856
1555,1854
1556,1855
1557,1854
1558,1856
1559,1856
1560,1858
1561,1858
1562,1861
1563,1861
1564,1863
1565,1861
1566,1859
1567,1861
1568,1859
1569,1862
1570,1865
1571,1861
1572,1863
1573,1860
1574,1863
1575,1862
1576,1861
1577,1860
1578,1861
1579,1863
1580,1862
1581,1861
1582,1865
1583,1862
1584,1855
1585,1856
1586,1856
1587,1854
1588,1856
1589,1858
1590,1859
1591,1860
1592,1862
1593,1863
1594,1861
1595,1861
1596,1861
1597,1859
1598,1861
1599,1862
1600,1861
1601,1859
1602,1861
1603,1861
1604,1862
1605,1861
1606,1859
1607,1860
1608,1862
1609,1863
1610,1859
1611,1858
1612,1861
1613,1859
1614,1855
1615,1855
1616,1854
1617,1856
1618,1854
1619,1859
1620,1859
1621,1861
1622,1859
1623,1862
1624,1860
1625,1862
1626,1860
1627,1861
1628,1862
1629,1860
1630,1859
1631,1862
1632,1863
1633,1860
1634,1862
1635,1861
1636,1865
1637,1863
1638,1862
1639,1861
1640,1860
1641,1863
1642,1856
1643,1855
1644,1855
1645,1856
1646,1855
1647,1855
1648,1855
1649,1855
1650,1852
1651,1854
1652,1858
1653,1859
1654,1858
1655,1859
1656,1859
1657,1859
1658,1862
1659,1863
1660,1862
1661,1858
1662,1862
1663,1860
1664,1861
1665,1862
1666,1862
1667,1863
1668,1862
1669,1861
1670,1862
1671,1863
1672,1859
1673,1861
1674,1856
1675,1853
1676,1855
1677,1856
1678,1855
1679,1861
1680,1865
1681,1859
1682,1862
1683,1860
1684,1861
1685,1861
1686,1859
1687,1862
1688,1863
1689,1862
1690,1860
1691,1862
1692,1861
1693,1863
1694,1861
1695,1861
1696,1861
1697,1861
1698,1863
1699,1861
1700,1859
1701,1465
1702,1899
1703,1911
1704,1898
1705,1889
1706,1884
1707,1878
1708,1875
1709,1877
1710,1874
1711,1872
1712,1872
1713,1871
1714,1871
1715,1867
1716,1867
1717,1865
1718,1863
1719,1863
1720,1865
1721,1863
1722,1863
1723,1863
1724,1863
1725,1861
1726,1866
1727,1861
1728,1865
1729,1861
1730,1863
1731,1861
1732,1219
1733,1886
1734,1913
1735,1904
1736,1899
1737,1891
1738,1886
1739,1877
1740,1872
1741,1877
1742,1878
1743,1872
1744,1872
1745,1871
1746,1870
1747,1868
1748,1871
1749,1868
1750,1868
1751,1868
1752,1866
1753,1863
1754,1861
1755,1863
1756,1866
1757,1863
1758,1861
1759,1862
1760,1863
1761,1861
1762,1863
1763,1259
1764,1842
1765,1910
1766,1906
1767,1902
1768,1891
1769,1885
1770,1886
1771,1883
1772,1882
1773,1878
1774,1875
1775,1872
1776,1872
1777,1872
1778,1871
1779,1869
1780,1869
1781,1865
1782,1865
1783,1863
1784,1862
1785,1866
1786,1865
1787,1862
1788,1863
1789,1863
1790,1862
1791,1862
1792,1863
1793,1859
1794,1535
1795,1804
1796,1911
1797,1906
1798,1902
1799,1899
1800,1895
1801,1889
1802,1883
1803,1879
1804,1877
1805,1874
1806,1872
1807,1872
1808,1871
1809,1870
1810,1869
1811,1862
1812,1866
1813,1868
1814,1865
1815,1862
1816,1868
1817,1863
1818,1859
1819,1864
1820,1861
1821,1862
1822,1861
1823,1862
1824,1854
1825,1856
1826,1681
1827,1909
1828,1910
1829,1902
1830,1899
1831,1894
1832,1891
1833,1887
1834,1883
1835,1879
1836,1875
1837,1872
1838,1872
1839,1872
1840,1870
1841,1871
1842,1867
1843,1867
1844,1867
1845,1867
1846,1863
1847,1867
1848,1863
1849,1866
1850,1863
1851,1863
1852,1861
1853,1862
1854,1856
1855,1856
1856,1855
1857,1577
1858,1905
1859,1917
1860,1908
1861,1903
1862,1901
1863,1891
1864,1887
1865,1885
1866,1878
1867,1876
1868,1873
1869,1872
1870,1871
1871,1871
1872,1871
1873,1868
1874,1867
1875,1865
1876,1866
1877,1863
1878,1865
1879,1866
1880,1866
1881,1862
1882,1866
1883,1865
1884,1856
1885,1855
1886,1856
1887,1854
1888,1300
1889,1893
1890,1920
1891,1909
1892,1904
1893,1901
1894,1895
1895,1889
1896,1883
1897,1881
1898,1877
1899,1874
1900,1872
1901,1872
1902,1872
1903,1871
1904,1867
1905,1869
1906,1866
1907,1866
1908,1867
1909,1863
1910,1865
1911,1862
1912,1865
1913,1861
1914,1855
1915,1853
1916,1856
1917,1853
1918,1855
1919,1119
1920,1879
1921,1923
1922,1919
1923,1907
1924,1904
1925,1899
1926,1891
1927,1886
1928,1883
1929,1878
1930,1875
1931,1873
1932,1873
1933,1871
1934,1872
1935,1871
1936,1870
1937,1867
1938,1869
1939,1865
1940,1865
1941,1865
1942,1858
1943,1857
1944,1856
1945,1856
1946,1855
1947,1856
1948,1857
1949,1854
1950,1141
1951,1836
1952,1926
1953,1920
1954,1914
1955,1904
1956,1903
1957,1894
1958,1887
1959,1883
1960,1882
1961,1877
1962,1875
1963,1872
1964,1872
1965,1872
1966,1871
1967,1869
1968,1867
1969,1867
1970,1866
1971,1863
1972,1867
1973,1863
1974,1857
1975,1856
1976,1855
1977,1857
1978,1856
1979,1861
1980,1861
1981,1651
1982,1765
1983,1933
1984,1926
1985,1920
1986,1909
1987,1904
1988,1901
1989,1892
1990,1888
1991,1882
1992,1879
1993,1876
1994,1873
1995,1872
1996,1872
1997,1872
1998,1868
1999,1870
2000,1869
2001,1865
2002,1866
2003,1864
2004,1857
2005,1857
2006,1857
2007,1856
2008,1856
2009,1859
2010,1862
2011,1861
2012,1863
2013,1625
2014,1931
2015,1934
2016,1920
2017,1913
2018,1903
2019,1901
2020,1893
2021,1889
2022,1883
2023,1879
2024,1878
2025,1877
2026,1872
2027,1872
2028,1872
2029,1871
2030,1869
2031,1865
2032,1868
2033,1863
2034,1855
2035,1857
2036,1856
2037,1856
2038,1856
2039,1855
2040,1857
2041,1859
2042,1862
2043,1861
2044,1394
2045,1927
2046,1936
2047,1925
2048,1916
2049,1906
2050,1904
2051,1898
2052,1888
2053,1885
2054,1884
2055,1883
2056,1874
2057,1874
2058,1872
2059,1872
2060,1870
2061,1869
2062,1870
2063,1866
2064,1861
2065,1860
2066,1859
2067,1856
2068,1859
2069,1856
2070,1859
2071,1862
2072,1860
2073,1861
2074,1862
2075,1137
2076,1911
2077,1941
2078,1931
2079,1922
2080,1911
2081,1904
2082,1902
2083,1895
2084,1887
2085,1883
2086,1881
2087,1879
2088,1874
2089,1872
2090,1872
2091,1871
2092,1871
2093,1869
2094,1862
2095,1857
2096,1858
2097,1857
2098,1858
2099,1856
2100,1862
2101,1863
2102,1863
2103,1862
2104,1862
2105,1861
2106,941
2107,1882
2108,1943
2109,1934
2110,1922
2111,1916
2112,1905
2113,1899
2114,1897
2115,1887
2116,1888
2117,1881
2118,1875
2119,1873
2120,1873
2121,1872
2122,1871
2123,1872
2124,1859
2125,1859
2126,1859
2127,1858
2128,1859
2129,1856
2130,1858
2131,1862
2132,1860
2133,1861
2134,1861
2135,1861
2136,1861
2137,997
2138,1834
2139,1947
2140,1936
2141,1925
2142,1915
2143,1908
2144,1903
2145,1895
2146,1894
2147,1887
2148,1881
2149,1878
2150,1874
2151,1872
2152,1872
2153,1871
2154,1861
2155,1861
2156,1859
2157,1859
2158,1859
2159,1857
2160,1866
2161,1863
2162,1863
2163,1862
2164,1863
2165,1863
2166,1859
2167,1860
2168,1593
2169,1744
2170,1945
2171,1939
2172,1931
2173,1917
2174,1909
2175,1903
2176,1898
2177,1893
2178,1887
2179,1883
2180,1885
2181,1877
2182,1873
2183,1872
2184,1869
2185,1860
2186,1867
2187,1861
2188,1859
2189,1866
2190,1862
2191,1866
2192,1865
2193,1862
2194,1863
2195,1863
2196,1858
2197,1865
2198,1860
2199,1863
2200,1594
2201,1939
2202,1939
2203,1933
2204,1920
2205,1911
2206,1904
2207,1898
2208,1893
2209,1888
2210,1883
2211,1878
2212,1872
2213,1872
2214,1865
2215,1863
2216,1862
2217,1862
2218,1861
2219,1867
2220,1864
2221,1863
2222,1866
2223,1867
2224,1863
2225,1861
2226,1860
2227,1861
2228,1863
2229,1865
2230,1863
2231,1377
2232,1931
2233,1938
2234,1931
2235,1921
2236,1915
2237,1904
2238,1899
2239,1893
2240,1887
2241,1883
2242,1872
2243,1871
2244,1869
2245,1867
2246,1865
2247,1863
2248,1863
2249,1861
2250,1857
2251,1860
2252,1862
2253,1865
2254,1862
2255,1863
2256,1863
2257,1861
2258,1861
2259,1861
2260,1863
2261,1861
2262,1101
2263,1914
2264,1948
2265,1935
2266,1926
2267,1915
2268,1906
2269,1904
2270,1897
2271,1890
2272,1886
2273,1883
2274,1872
2275,1871
2276,1865
2277,1867
2278,1865
2279,1871
2280,1870
2281,1866
2282,1867
2283,1865
2284,1865
2285,1865
2286,1862
2287,1863
2288,1863
2289,1867
2290,1862
2291,1861
2292,1862
2293,901
2294,1885
2295,1948
2296,1938
2297,1926
2298,1919
2299,1909
2300,1904
2301,1894
2302,1891
2303,1886
2304,1878
2305,1872
2306,1869
2307,1867
2308,1866
2309,1869
2310,1872
2311,1867
2312,1866
2313,1867
2314,1863
2315,1865
2316,1861
2317,1862
2318,1857
2319,1863
2320,1862
2321,1863
2322,1863
2323,1866
2324,1865
2325,1865
2326,1862
2327,1862
2328,1861
2329,1857
2330,1862
2331,1862
2332,1861
2333,1861
2334,1855
2335,1856
2336,1855
2337,1855
2338,1855
2339,1854
2340,1858
2341,1858
2342,1859
2343,1861
2344,1863
2345,1860
2346,1861
2347,1861
2348,1861
2349,1859
2350,1859
2351,1858
2352,1861
2353,1858
2354,1861
2355,1861
2356,1862
2357,1859
2358,1862
2359,1858
2360,1859
2361,1862
2362,1859
2363,1860
2364,1856
2365,1855
2366,1856
2367,1855
2368,1854
2369,1860
2370,1860
2371,1859
2372,1861
2373,1862
2374,1862
2375,1859
2376,1861
2377,1857
2378,1859
2379,1860
2380,1861
2381,1862
2382,1862
2383,1859
2384,1859
2385,1862
2386,1862
2387,1861
2388,1863
2389,1863
2390,1861
2391,1861
2392,1860
2393,1859
2394,1855
2395,1853
2396,1855
2397,1854
2398,1856
2399,1856
2400,1857
2401,1861
2402,1858
2403,1862
2404,1861
2405,1861
2406,1859
2407,1859
2408,1860
2409,1859
2410,1859
2411,1860
2412,1860
2413,1860
2414,1859
2415,1861
2416,1862
2417,1861
2418,1854
2419,1858
2420,1861
2421,1859
2422,1862
2423,1859
2424,1855
2425,1854
2426,1855
2427,1857
2428,1854
2429,1853
2430,1853
2431,1858
2432,1858
2433,1863
2434,1858
2435,1862
2436,1861
2437,1860
2438,1859
2439,1860
2440,1861
2441,1861
2442,1861
2443,1860
2444,1862
2445,1861
2446,1863
2447,1861
2448,1863
2449,1862
2450,1861
2451,1862
2452,1861
2453,1862
2454,1855
2455,1855
2456,1856
2457,1856
2458,1855
2459,1856
2460,1859
2461,1861
2462,1859
2463,1862
2464,1862
2465,1861
2466,1858
2467,1859
2468,1863
2469,1859
2470,1859
2471,1861
2472,1861
2473,1861
2474,1862
2475,1861
2476,1862
2477,1862
2478,1859
2479,1862
2480,1862
2481,1863
2482,1861
2483,1863
2484,1854
2485,1854
2486,1855
2487,1854
2488,1855
2489,1860
2490,1859
2491,1862
2492,1860
2493,1861
2494,1862
2495,1862
2496,1863
2497,1865
2498,1859
2499,1859
2500,1863
2501,1861
2502,1858
2503,1860
2504,1855
2505,1859
2506,1862
2507,1859
2508,1858
2509,1861
2510,1861
2511,1860
2512,1861
2513,1860
2514,1854
2515,1855
2516,1853
2517,1851
2518,1855
2519,1859
2520,1860
2521,1857
2522,1859
2523,1859
2524,1863
2525,1859
2526,1862
2527,1859
2528,1862
2529,1859
2530,1859
2531,1860
2532,1863
2533,1862
2534,1863
2535,1862
2536,1860
2537,1866
2538,1861
2539,1861
2540,1859
2541,1863
2542,1855
2543,1853
2544,1856
2545,1855
2546,1853
2547,1855
2548,1855
2549,1855
2550,1851
2551,1854
2552,1859
2553,1856
2554,1862
2555,1858
2556,1862
2557,1861
2558,1859
2559,1863
2560,1865
2561,1863
2562,1862
2563,1862
2564,1859
2565,1861
2566,1858
2567,1860
2568,1861
2569,1862
2570,1861
2571,1861
2572,1862
2573,1863
2574,1856
2575,1856
2576,1856
2577,1856
2578,1855
2579,1861
2580,1859
2581,1858
2582,1858
2583,1863
2584,1861
2585,1862
2586,1861
2587,1859
2588,1861
2589,1860
2590,1859
2591,1859
2592,1861
2593,1860
2594,1859
2595,1861
2596,1858
2597,1863
2598,1862
2599,1861
2600,1861
2601,1863
2602,1862
2603,1861
2604,1854
2605,1856
2606,1853
2607,1853
2608,1856
2609,1857
2610,1861
2611,1856
2612,1859
2613,1858
2614,1858
2615,1860
2616,1857
2617,1857
2618,1859
2619,1856
2620,1861
2621,1860
2622,1861
2623,1861
2624,1861
2625,1862
2626,1857
2627,1863
2628,1860
2629,1861
2630,1863
2631,1862
2632,1861
2633,1859
2634,1855
2635,1855
2636,1856
2637,1856
2638,1856
2639,1856
2640,1857
2641,1857
2642,1853
2643,1859
2644,1861
2645,1861
2646,1859
2647,1862
2648,1859
2649,1858
2650,1859
2651,1857
2652,1859
2653,1865
2654,1861
2655,1858
2656,1859
2657,1860
2658,1861
2659,1861
2660,1862
2661,1858
2662,1859
2663,1860
2664,1855
2665,1856
2666,1856
2667,1854
2668,1856
2669,1856
2670,1853
2671,1859
2672,1858
2673,1860
2674,1861
2675,1859
2676,1860
2677,1858
2678,1860
2679,1859
2680,1861
2681,1861
2682,1860
2683,1859
2684,1862
2685,1862
2686,1856
2687,1862
2688,1863
2689,1859
2690,1861
2691,1859
2692,1861
2693,1862
2694,1855
2695,1856
2696,1856
2697,1853
2698,1855
2699,1859
2700,1862
2701,1862
2702,1857
2703,1859
2704,1861
2705,1862
2706,1862
2707,1861
2708,1860
2709,1862
2710,1861
2711,1861
2712,1857
2713,1859
2714,1859
2715,1858
2716,1859
2717,1858
2718,1853
2719,1862
2720,1861
2721,1859
2722,1862
2723,1862
2724,1855
2725,1856
2726,1854
2727,1854
2728,1855
2729,1851
2730,1859
2731,1857
2732,1861
2733,1859
2734,1866
2735,1862
2736,1862
2737,1856
2738,1860
2739,1861
2740,1858
2741,1861
2742,1858
2743,1861
2744,1861
2745,1863
2746,1861
2747,1859
2748,1861
2749,1861
2750,1863
2751,1862
2752,1862
2753,1862
2754,1856
2755,1854
2756,1856
2757,1851
2758,1856
2759,1853
2760,1858
2761,1858
2762,1859
2763,1861
2764,1861
2765,1858
2766,1860
2767,1861
2768,1862
2769,1859
2770,1862
2771,1860
2772,1862
2773,1859
2774,1862
2775,1862
2776,1863
2777,1861
2778,1858
2779,1859
2780,1861
2781,1861
2782,1862
2783,1865
2784,1854
2785,1854
2786,1855
2787,1855
2788,1856
2789,1861
2790,1858
2791,1859
2792,1862
2793,1861
2794,1862
2795,1861
2796,1861
2797,1859
2798,1860
2799,1862
2800,1862
2801,1860
2802,1861
2803,1862
2804,1860
2805,1861
2806,1861
2807,1859
2808,1859
2809,1859
2810,1861
2811,1858
2812,1859
2813,1859
2814,1856
2815,1855
2816,1855
2817,1854
2818,1855
2819,1858
2820,1860
2821,1859
2822,1857
2823,1862
2824,1861
2825,1862
2826,1862
2827,1858
2828,1861
2829,1861
2830,1860
2831,1864
2832,1861
2833,1861
2834,1862
2835,1860
2836,1863
2837,1861
2838,1859
2839,1863
2840,1862
2841,1859
2842,1855
2843,1857
2844,1855
2845,1855
2846,1855
2847,1854
2848,1855
2849,1861
2850,1863
2851,1862
2852,1859
2853,1860
2854,1862
2855,1859
2856,1859
2857,1860
2858,1862
2859,1863
2860,1862
2861,1862
2862,1861
2863,1859
2864,1859
2865,1859
2866,1862
2867,1859
2868,1860
2869,1861
2870,1862
2871,1861
2872,1861
2873,1860
2874,1854
2875,1855
2876,1856
2877,1856
2878,1855
2879,1853
2880,1851
2881,1858
2882,1858
2883,1861
2884,1861
2885,1860
2886,1861
2887,1862
2888,1863
2889,1860
2890,1863
2891,1863
2892,1860
2893,1861
2894,1861
2895,1863
2896,1859
2897,1859
2898,1861
2899,1861
2900,1861
2901,1864
2902,1859
2903,1858
2904,1857
2905,1855
2906,1853
2907,1854
2908,1854
2909,1855
2910,1852
2911,1847
2912,1861
2913,1857
2914,1859
2915,1859
2916,1860
2917,1858
2918,1853
2919,1858
2920,1859
2921,1863
2922,1861
2923,1856
2924,1861
2925,1860
2926,1860
2927,1861
2928,1863
2929,1861
2930,1861
2931,1861
2932,1862
2933,1859
2934,1856
2935,1856
2936,1854
2937,1855
2938,1856
2939,1854
2940,1846
2941,1858
2942,1853
2943,1858
2944,1860
2945,1861
2946,1858
2947,1861
2948,1860
2949,1862
2950,1861
2951,1862
2952,1859
2953,1859
2954,1861
2955,1861
2956,1859
2957,1862
2958,1863
2959,1860
2960,1862
2961,1862
2962,1861
2963,1861
2964,1855
2965,1855
2966,1854
2967,1855
2968,1855
2969,1855
2970,1861
2971,1861
2972,1861
2973,1862
2974,1862
2975,1861
2976,1863
2977,1857
2978,1861
2979,1863
2980,1860
2981,1861
2982,1861
2983,1863
2984,1861
2985,1862
2986,1862
2987,1859
2988,1863
2989,1862
2990,1861
2991,1861
2992,1862
2993,1861
2994,1855
2995,1856
2996,1856
2997,1855
2998,1856
2999,1863
3000,1859
3001,1857
3002,1860
3003,1858
3004,1861
3005,1859
3006,1861
3007,1861
3008,1861
3009,1860
3010,1859
3011,1860
3012,1861
3013,1863
3014,1863
3015,1862
3016,1859
3017,1862
3018,1854
3019,1862
3020,1859
3021,1861
3022,1862
3023,1861
3024,1856
3025,1856
3026,1856
3027,1856
3028,1856
3029,1855
3030,1858
3031,1859
3032,1861
3033,1863
3034,1859
3035,1861
3036,1862
3037,1861
3038,1863
3039,1862
3040,1861
3041,1865
3042,1863
3043,1862
3044,1863
3045,1863
3046,1859
3047,1861
3048,1860
3049,1861
3050,1863
3051,1858
3052,1862
3053,1861
3054,1856
3055,1856
3056,1854
3057,1856
3058,1855
3059,1855
3060,1857
3061,1863
3062,1861
3063,1859
3064,1861
3065,1861
3066,1860
3067,1860
3068,1859
3069,1859
3070,1859
3071,1861
3072,1859
3073,1861
3074,1861
3075,1861
3076,1861
3077,1861
3078,1863
3079,1861
3080,1861
3081,1863
3082,1862
3083,1861
3084,1855
3085,1859
3086,1855
3087,1855
3088,1854
3089,1861
3090,1859
3091,1859
3092,1861
3093,1861
3094,1862
3095,1862
3096,1859
3097,1862
3098,1861
3099,1861
3100,1861
3101,1859
3102,1860
3103,1861
3104,1862
3105,1860
3106,1861
3107,1861
3108,1863
3109,1861
3110,1860
3111,1859
3112,1861
3113,1861
3114,1854
3115,1855
3116,1853
3117,1854
3118,1854
3119,1857
3120,1858
3121,1859
3122,1859
3123,1862
3124,1861
3125,1863
3126,1861
3127,1860
3128,1861
3129,1862
3130,1861
3131,1861
3132,1860
3133,1859
3134,1859
3135,1861
3136,1859
3137,1865
3138,1862
3139,1863
3140,1861
3141,1861
3142,1858
3143,1854
3144,1855
3145,1856
3146,1853
3147,1854
3148,1855
3149,1854
3150,1855
3151,1851
3152,1861
3153,1858
3154,1858
3155,1861
3156,1861
3157,1859
3158,1858
3159,1859
3160,1856
3161,1859
3162,1858
3163,1859
3164,1858
3165,1859
3166,1862
3167,1859
3168,1866
3169,1866
3170,1865
3171,1861
3172,1861
3173,1862
3174,1857
3175,1856
3176,1855
3177,1854
3178,1856
3179,1863
3180,1860
3181,1861
3182,1862
3183,1860
3184,1859
3185,1859
3186,1858
3187,1861
3188,1859
3189,1858
3190,1861
3191,1860
3192,1862
3193,1863
3194,1863
3195,1862
3196,1863
3197,1861
3198,1862
3199,1862
3200,1861
3201,1858
3202,1861
3203,1860
3204,1853
3205,1850
3206,1853
3207,1856
3208,1855
3209,1857
3210,1859
3211,1860
3212,1858
3213,1860
3214,1858
3215,1859
3216,1858
3217,1859
3218,1855
3219,1860
3220,1861
3221,1859
3222,1860
3223,1859
3224,1861
3225,1862
3226,1862
3227,1861
3228,1859
3229,1859
3230,1862
3231,1861
3232,1861
3233,1861
3234,1855
3235,1856
3236,1854
3237,1856
3238,1855
3239,1853
3240,1862
3241,1859
3242,1863
3243,1862
3244,1862
3245,1858
3246,1859
3247,1862
3248,1862
3249,1865
3250,1862
3251,1863
3252,1861
3253,1861
3254,1861
3255,1862
3256,1861
3257,1862
3258,1860
3259,1863
3260,1862
3261,1860
3262,1862
3263,1861
3264,1854
3265,1855
3266,1856
3267,1856
3268,1856
3269,1856
3270,1859
3271,1862
3272,1859
3273,1859
3274,1862
3275,1861
3276,1860
3277,1862
3278,1863
3279,1857
3280,1860
3281,1863
3282,1860
3283,1862
3284,1865
3285,1862
3286,1861
3287,1859
3288,1861
3289,1863
3290,1861
3291,1861
3292,1861
3293,1862
3294,1855
3295,1856
3296,1856
3297,1856
3298,1856
3299,1859
3300,1861
3301,1862
3302,1860
3303,1862
3304,1858
3305,1860
3306,1861
3307,1859
3308,1859
3309,1856
3310,1859
3311,1861
3312,1859
3313,1859
3314,1858
3315,1859
3316,1861
3317,1857
3318,1855
3319,1863
3320,1861
3321,1278
3322,1872
3323,1907
3324,1893
3325,1891
3326,1884
3327,1879
3328,1878
3329,1872
3330,1872
3331,1872
3332,1872
3333,1871
3334,1872
3335,1870
3336,1871
3337,1867
3338,1869
3339,1866
3340,1863
3341,1865
3342,1861
3343,1863
3344,1865
3345,1863
3346,1860
3347,1862
3348,1860
3349,1862
3350,1862
3351,1863
3352,1356
3353,1839
3354,1907
3355,1903
3356,1899
3357,1888
3358,1885
3359,1878
3360,1879
3361,1874
3362,1872
3363,1872
3364,1871
3365,1871
3366,1867
3367,1870
3368,1866
3369,1869
3370,1866
3371,1865
3372,1865
3373,1863
3374,1865
3375,1864
3376,1864
3377,1861
3378,1862
3379,1862
3380,1863
3381,1863
3382,1865
3383,1801
3384,1769
3385,1910
3386,1904
3387,1898
3388,1894
3389,1894
3390,1887
3391,1885
3392,1881
3393,1875
3394,1873
3395,1872
3396,1872
3397,1872
3398,1871
3399,1867
3400,1868
3401,1863
3402,1863
3403,1866
3404,1863
3405,1862
3406,1862
3407,1863
3408,1862
3409,1860
3410,1862
3411,1861
3412,1862
3413,1862
3414,1856
3415,1654
3416,1908
3417,1907
3418,1902
3419,1902
3420,1898
3421,1891
3422,1889
3423,1883
3424,1878
3425,1877
3426,1875
3427,1872
3428,1872
3429,1872
3430,1870
3431,1869
3432,1871
3433,1865
3434,1867
3435,1867
3436,1866
3437,1862
3438,1862
3439,1866
3440,1863
3441,1862
3442,1856
3443,1855
3444,1854
3445,1856
3446,1523
3447,1907
3448,1917
3449,1904
3450,1895
3451,1890
3452,1893
3453,1889
3454,1883
3455,1879
3456,1875
3457,1874
3458,1873
3459,1871
3460,1872
3461,1869
3462,1871
3463,1869
3464,1870
3465,1868
3466,1865
3467,1867
3468,1867
3469,1866
3470,1866
3471,1863
3472,1866
3473,1862
3474,1857
3475,1855
3476,1856
3477,1282
3478,1895
3479,1924
3480,1919
3481,1910
3482,1904
3483,1901
3484,1893
3485,1886
3486,1882
3487,1879
3488,1879
3489,1874
3490,1872
3491,1872
3492,1871
3493,1870
3494,1869
3495,1867
3496,1867
3497,1867
3498,1867
3499,1863
3500,1865
3501,1867
3502,1867
3503,1862
3504,1856
3505,1855
3506,1854
3507,1855
3508,1067
3509,1872
3510,1930
3511,1921
3512,1915
3513,1904
3514,1901
3515,1893
3516,1890
3517,1883
3518,1872
3519,1874
3520,1874
3521,1873
3522,1872
3523,1871
3524,1871
3525,1870
3526,1866
3527,1867
3528,1867
3529,1863
3530,1865
3531,1865
3532,1863
3533,1865
3534,1856
3535,1855
3536,1856
3537,1855
3538,1857
3539,1154
3540,1841
3541,1931
3542,1923
3543,1915
3544,1909
3545,1903
3546,1897
3547,1890
3548,1887
3549,1882
3550,1877
3551,1871
3552,1873
3553,1872
3554,1872
3555,1867
3556,1869
3557,1869
3558,1869
3559,1867
3560,1866
3561,1862
3562,1866
3563,1863
3564,1855
3565,1856
3566,1856
3567,1855
3568,1857
3569,1856
3570,1508
3571,1776
3572,1935
3573,1930
3574,1920
3575,1907
3576,1905
3577,1898
3578,1890
3579,1888
3580,1883
3581,1881
3582,1877
3583,1874
3584,1872
3585,1874
3586,1870
3587,1867
3588,1869
3589,1869
3590,1866
3591,1865
3592,1867
3593,1867
3594,1856
3595,1860
3596,1857
3597,1856
3598,1856
3599,1861
3600,1863
3601,1862
3602,1599
3603,1931
3604,1936
3605,1923
3606,1913
3607,1906
3608,1901
3609,1891
3610,1889
3611,1886
3612,1883
3613,1877
3614,1874
3615,1873
3616,1872
3617,1870
3618,1871
3619,1861
3620,1860
3621,1860
3622,1858
3623,1856
3624,1856
3625,1859
3626,1856
3627,1856
3628,1857
3629,1856
3630,1861
3631,1861
3632,1862
3633,1354
3634,1923
3635,1938
3636,1927
3637,1920
3638,1911
3639,1904
3640,1899
3641,1894
3642,1881
3643,1882
3644,1879
3645,1876
3646,1875
3647,1872
3648,1871
3649,1871
3650,1867
3651,1869
3652,1868
3653,1865
3654,1856
3655,1856
3656,1858
3657,1856
3658,1856
3659,1856
3660,1855
3661,1862
3662,1861
3663,1863
3664,1095
3665,1908
3666,1939
3667,1933
3668,1920
3669,1914
3670,1906
3671,1898
3672,1893
3673,1890
3674,1886
3675,1881
3676,1878
3677,1874
3678,1873
3679,1871
3680,1871
3681,1872
3682,1871
3683,1867
3684,1861
3685,1861
3686,1859
3687,1858
3688,1857
3689,1861
3690,1861
3691,1863
3692,1863
3693,1861
3694,1862
3695,912
3696,1878
3697,1946
3698,1936
3699,1925
3700,1913
3701,1906
3702,1903
3703,1895
3704,1891
3705,1883
3706,1881
3707,1875
3708,1873
3709,1872
3710,1872
3711,1872
3712,1869
3713,1863
3714,1858
3715,1858
3716,1858
3717,1857
3718,1856
3719,1861
3720,1860
3721,1861
3722,1862
3723,1865
3724,1861
3725,1863
3726,1007
3727,1815
3728,1948
3729,1939
3730,1929
3731,1919
3732,1910
3733,1904
3734,1901
3735,1891
3736,1889
3737,1885
3738,1879
3739,1877
3740,1873
3741,1872
3742,1867
3743,1862
3744,1861
3745,1859
3746,1859
3747,1859
3748,1860
3749,1856
3750,1857
3751,1855
3752,1863
3753,1859
3754,1859
3755,1859
3756,1861
3757,1646
3758,1715
3759,1949
3760,1942
3761,1935
3762,1921
3763,1914
3764,1904
3765,1903
3766,1893
3767,1889
3768,1885
3769,1879
3770,1877
3771,1872
3772,1873
3773,1871
3774,1862
3775,1861
3776,1862
3777,1859
3778,1858
3779,1863
3780,1865
3781,1863
3782,1863
3783,1862
3784,1862
3785,1862
3786,1859
3787,1863
3788,1860
3789,1535
3790,1942
3791,1943
3792,1936
3793,1924
3794,1914
3795,1905
3796,1901
3797,1895
3798,1889
3799,1886
3800,1882
3801,1874
3802,1872
3803,1872
3804,1867
3805,1862
3806,1862
3807,1859
3808,1858
3809,1866
3810,1861
3811,1860
3812,1861
3813,1862
3814,1859
3815,1862
3816,1861
3817,1862
3818,1851
3819,1861
3820,1311
3821,1934
3822,1943
3823,1936
3824,1925
3825,1917
3826,1906
3827,1901
3828,1894
3829,1889
3830,1887
3831,1881
3832,1879
3833,1872
3834,1871
3835,1865
3836,1863
3837,1861
3838,1862
3839,1858
3840,1865
3841,1863
3842,1865
3843,1862
3844,1862
3845,1862
3846,1863
3847,1863
3848,1862
3849,1861
3850,1863
3851,1141
3852,1922
3853,1947
3854,1938
3855,1925
3856,1918
3857,1905
3858,1904
3859,1895
3860,1889
3861,1887
3862,1882
3863,1878
3864,1872
3865,1867
3866,1866
3867,1866
3868,1866
3869,1861
3870,1862
3871,1865
3872,1863
3873,1865
3874,1865
3875,1863
3876,1861
3877,1861
3878,1865
3879,1861
3880,1861
3881,1862
3882,871
3883,1886
3884,1950
3885,1939
3886,1931
3887,1920
3888,1911
3889,1904
3890,1900
3891,1893
3892,1888
3893,1885
3894,1873
3895,1872
3896,1867
3897,1867
3898,1865
3899,1869
3900,1869
3901,1863
3902,1865
3903,1863
3904,1866
3905,1866
3906,1863
3907,1862
3908,1863
3909,1863
3910,1862
3911,1858
3912,1862
3913,945
3914,1823
3915,1950
3916,1939
3917,1931
3918,1913
3919,1911
3920,1904
3921,1898
3922,1893
3923,1888
3924,1875
3925,1873
3926,1873
3927,1870
3928,1868
3929,1863
3930,1871
3931,1869
3932,1871
3933,1866
3934,1866
3935,1867
3936,1867
3937,1865
3938,1863
3939,1861
3940,1862
3941,1865
3942,1862
3943,1865
3944,1862
3945,1861
3946,1862
3947,1863
3948,1865
3949,1862
3950,1862
3951,1861
3952,1862
3953,1862
3954,1855
3955,1855
3956,1854
3957,1855
3958,1856
3959,1855
3960,1859
3961,1859
3962,1858
3963,1859
3964,1862
3965,1859
3966,1863
3967,1861
3968,1864
3969,1866
3970,1859
3971,1860
3972,1862
3973,1861
3974,1862
3975,1863
3976,1859
3977,1861
3978,1859
3979,1860
3980,1861
3981,1859
3982,1860
3983,1861
3984,1856
3985,1856
3986,1856
3987,1853
3988,1857
3989,1859
3990,1861
3991,1862
3992,1861
3993,1860
3994,1862
3995,1861
3996,1859
3997,1862
3998,1862
3999,1859
4000,1863
4001,1857
4002,1861
4003,1859
4004,1861
4005,1859
4006,1861
4007,1858
4008,1860
4009,1859
4010,1862
4011,1859
4012,1860
4013,1862
4014,1855
4015,1855
4016,1855
4017,1856
4018,1856
4019,1859
4020,1861
4021,1861
4022,1860
4023,1858
4024,1859
4025,1861
4026,1859
4027,1862
4028,1862
4029,1863
4030,1862
4031,1859
4032,1863
4033,1859
4034,1859
4035,1862
4036,1861
4037,1860
4038,1861
4039,1861
4040,1861
4041,1862
4042,1856
4043,1856
4044,1855
4045,1855
4046,1855
4047,1855
4048,1856
4049,1856
4050,1852
4051,1850
4052,1861
4053,1858
4054,1859
4055,1860
4056,1859
4057,1860
4058,1859
4059,1862
4060,1860
4061,1860
4062,1861
4063,1861
4064,1862
4065,1860
4066,1862
4067,1863
4068,1860
4069,1863
4070,1861
4071,1862
4072,1861
4073,1862
4074,1853
4075,1856
4076,1855
4077,1854
4078,1854
4079,1859
4080,1862
4081,1859
4082,1861
4083,1858
4084,1865
4085,1859
4086,1863
4087,1860
4088,1861
4089,1861
4090,1863
4091,1859
4092,1862
4093,1861
4094,1861
4095,1861
4096,1863
4097,1859
4098,1859
4099,1861
4100,1862
4101,1862
4102,1863
4103,1858
4104,1854
4105,1853
4106,1855
4107,1855
4108,1856
4109,1857
4110,1858
4111,1859
4112,1859
4113,1861
4114,1858
4115,1861
4116,1862
4117,1860
4118,1851
4119,1863
4120,1859
4121,1862
4122,1859
4123,1862
4124,1859
4125,1862
4126,1861
4127,1862
4128,1860
4129,1859
4130,1861
4131,1860
4132,1859
4133,1863
4134,1856
4135,1855
4136,1855
4137,1855
4138,1856
4139,1859
4140,1858
4141,1862
4142,1861
4143,1859
4144,1861
4145,1861
4146,1863
4147,1859
4148,1862
4149,1862
4150,1862
4151,1861
4152,1863
4153,1863
4154,1860
4155,1861
4156,1865
4157,1862
4158,1859
4159,1863
4160,1861
4161,1862
4162,1860
4163,1861
4164,1855
4165,1855
4166,1854
4167,1855
4168,1856
4169,1854
4170,1851
4171,1851
4172,1863
4173,1859
4174,1856
4175,1862
4176,1859
4177,1861
4178,1861
4179,1859
4180,1859
4181,1862
4182,1863
4183,1862
4184,1859
4185,1858
4186,1862
4187,1860
4188,1862
4189,1861
4190,1861
4191,1863
4192,1861
4193,1863
4194,1856
4195,1855
4196,1855
4197,1856
4198,1856
4199,1854
4200,1860
4201,1861
4202,1859
4203,1862
4204,1859
4205,1859
4206,1860
4207,1861
4208,1860
4209,1861
4210,1862
4211,1859
4212,1861
4213,1858
4214,1861
4215,1861
4216,1860
4217,1857
4218,1856
4219,1858
4220,1863
4221,1862
4222,1862
4223,1863
4224,1856
4225,1855
4226,1856
4227,1856
4228,1856
4229,1856
4230,1854
4231,1858
4232,1861
4233,1862
4234,1861
4235,1861
4236,1861
4237,1859
4238,1861
4239,1860
4240,1860
4241,1859
4242,1865
4243,1861
4244,1860
4245,1861
4246,1861
4247,1862
4248,1860
4249,1863
4250,1859
4251,1862
4252,1862
4253,1863
4254,1857
4255,1856
4256,1856
4257,1856
4258,1856
4259,1854
4260,1853
4261,1854
4262,1859
4263,1860
4264,1858
4265,1862
4266,1859
4267,1860
4268,1862
4269,1861
4270,1863
4271,1861
4272,1861
4273,1864
4274,1865
4275,1861
4276,1862
4277,1862
4278,1857
4279,1862
4280,1862
4281,1863
4282,1861
4283,1863
4284,1856
4285,1855
4286,1856
4287,1856
4288,1855
4289,1862
4290,1858
4291,1860
4292,1861
4293,1861
4294,1862
4295,1862
4296,1866
4297,1857
4298,1861
4299,1862
4300,1864
4301,1861
4302,1861
4303,1859
4304,1859
4305,1859
4306,1858
4307,1862
4308,1860
4309,1861
4310,1859
4311,1858
4312,1858
4313,1861
4314,1854
4315,1854
4316,1859
4317,1854
4318,1853
4319,1863
4320,1861
4321,1858
4322,1862
4323,1859
4324,1862
4325,1861
4326,1864
4327,1860
4328,1862
4329,1862
4330,1862
4331,1862
4332,1862
4333,1861
4334,1861
4335,1861
4336,1865
4337,1862
4338,1860
4339,1864
4340,1861
4341,1863
4342,1856
4343,1856
4344,1856
4345,1856
4346,1856
4347,1855
4348,1854
4349,1853
4350,1853
4351,1859
4352,1863
4353,1861
4354,1859
4355,1861
4356,1863
4357,1862
4358,1861
4359,1862
4360,1859
4361,1862
4362,1862
4363,1860
4364,1861
4365,1861
4366,1861
4367,1862
4368,1861
4369,1862
4370,1862
4371,1861
4372,1863
4373,1860
4374,1856
4375,1856
4376,1853
4377,1855
4378,1856
4379,1855
4380,1861
4381,1865
4382,1859
4383,1860
4384,1861
4385,1863
4386,1866
4387,1861
4388,1861
4389,1861
4390,1862
4391,1861
4392,1863
4393,1862
4394,1862
4395,1861
4396,1861
4397,1861
4398,1862
4399,1863
4400,1859
4401,1861
4402,1861
4403,1856
4404,1855
4405,1855
4406,1855
4407,1855
4408,1854
4409,1859
4410,1860
4411,1861
4412,1861
4413,1862
4414,1859
4415,1861
4416,1859
4417,1859
4418,1853
4419,1859
4420,1861
4421,1863
4422,1861
4423,1863
4424,1859
4425,1859
4426,1861
4427,1863
4428,1862
4429,1861
4430,1861
4431,1863
4432,1859
4433,1861
4434,1854
4435,1855
4436,1855
4437,1855
4438,1855
4439,1854
4440,1857
4441,1860
4442,1858
4443,1859
4444,1861
4445,1862
4446,1858
4447,1862
4448,1861
4449,1862
4450,1862
4451,1861
4452,1866
4453,1862
4454,1860
4455,1861
4456,1861
4457,1863
4458,1861
4459,1859
4460,1861
4461,1860
4462,1861
4463,1861
4464,1857
4465,1856
4466,1856
4467,1856
4468,1856
4469,1856
4470,1862
4471,1861
4472,1860
4473,1862
4474,1866
4475,1862
4476,1862
4477,1860
4478,1862
4479,1862
4480,1865
4481,1866
4482,1859
4483,1864
4484,1862
4485,1863
4486,1863
4487,1861
4488,1865
4489,1865
4490,1863
4491,1862
4492,1862
4493,1861
4494,1856
4495,1855
4496,1856
4497,1856
4498,1856
4499,1859
4500,1862
4501,1859
4502,1859
4503,1860
4504,1863
4505,1861
4506,1859
4507,1860
4508,1861
4509,1863
4510,1860
4511,1861
4512,1862
4513,1860
4514,1858
4515,1863
4516,1861
4517,1862
4518,1855
4519,1862
4520,1863
4521,1862
4522,1862
4523,1862
4524,1856
4525,1856
4526,1855
4527,1855
4528,1855
4529,1855
4530,1858
4531,1859
4532,1862
4533,1858
4534,1860
4535,1865
4536,1861
4537,1860
4538,1861
4539,1861
4540,1863
4541,1859
4542,1861
4543,1863
4544,1861
4545,1860
4546,1860
4547,1862
4548,1862
4549,1861
4550,1859
4551,1858
4552,1863
4553,1861
4554,1856
4555,1855
4556,1856
4557,1855
4558,1856
4559,1856
4560,1859
4561,1862
4562,1860
4563,1861
4564,1862
4565,1861
4566,1862
4567,1862
4568,1861
4569,1860
4570,1861
4571,1861
4572,1861
4573,1861
4574,1859
4575,1860
4576,1859
4577,1861
4578,1861
4579,1861
4580,1861
4581,1863
4582,1861
4583,1861
4584,1851
4585,1856
4586,1855
4587,1856
4588,1856
4589,1859
4590,1859
4591,1862
4592,1861
4593,1861
4594,1862
4595,1861
4596,1862
4597,1861
4598,1862
4599,1863
4600,1861
4601,1863
4602,1864
4603,1862
4604,1861
4605,1862
4606,1859
4607,1860
4608,1859
4609,1861
4610,1859
4611,1861
4612,1858
4613,1862
4614,1854
4615,1854
4616,1854
4617,1854
4618,1855
4619,1862
4620,1859
4621,1858
4622,1861
4623,1861
4624,1863
4625,1861
4626,1861
4627,1860
4628,1861
4629,1862
4630,1859
4631,1861
4632,1861
4633,1861
4634,1861
4635,1861
4636,1861
4637,1859
4638,1859
4639,1861
4640,1859
4641,1863
4642,1856
4643,1855
4644,1855
4645,1856
4646,1856
4647,1854
4648,1855
4649,1853
4650,1855
4651,1854
4652,1851
4653,1857
4654,1861
4655,1859
4656,1860
4657,1862
4658,1862
4659,1865
4660,1862
4661,1862
4662,1861
4663,1860
4664,1862
4665,1863
4666,1861
4667,1864
4668,1863
4669,1861
4670,1863
4671,1863
4672,1863
4673,1861
4674,1855
4675,1856
4676,1854
4677,1856
4678,1855
4679,1854
4680,1854
4681,1858
4682,1859
4683,1863
4684,1858
4685,1860
4686,1859
4687,1861
4688,1863
4689,1860
4690,1862
4691,1863
4692,1862
4693,1861
4694,1862
4695,1862
4696,1864
4697,1861
4698,1861
4699,1863
4700,1862
4701,1863
4702,1859
4703,1861
4704,1856
4705,1856
4706,1855
4707,1855
4708,1854
4709,1858
4710,1859
4711,1860
4712,1861
4713,1859
4714,1861
4715,1862
4716,1847
4717,1861
4718,1856
4719,1858
4720,1861
4721,1861
4722,1863
4723,1863
4724,1862
4725,1862
4726,1861
4727,1862
4728,1865
4729,1859
4730,1858
4731,1862
4732,1859
4733,1863
4734,1856
4735,1855
4736,1856
4737,1856
4738,1856
4739,1854
4740,1858
4741,1862
4742,1860
4743,1859
4744,1859
4745,1861
4746,1860
4747,1862
4748,1860
4749,1862
4750,1860
4751,1863
4752,1861
4753,1860
4754,1865
4755,1863
4756,1861
4757,1859
4758,1861
4759,1861
4760,1861
4761,1861
4762,1859
4763,1860
4764,1855
4765,1854
4766,1855
4767,1855
4768,1855
4769,1854
4770,1861
4771,1858
4772,1858
4773,1859
4774,1859
4775,1861
4776,1862
4777,1862
4778,1862
4779,1862
4780,1863
4781,1861
4782,1862
4783,1861
4784,1863
4785,1857
4786,1861
4787,1859
4788,1860
4789,1859
4790,1861
4791,1861
4792,1863
4793,1861
4794,1856
4795,1856
4796,1856
4797,1853
4798,1856
4799,1855
4800,1858
4801,1863
4802,1861
4803,1859
4804,1859
4805,1861
4806,1861
4807,1859
4808,1859
4809,1861
4810,1859
4811,1861
4812,1861
4813,1858
4814,1859
4815,1862
4816,1856
4817,1862
4818,1854
4819,1862
4820,1864
4821,1862
4822,1861
4823,1861
4824,1855
4825,1855
4826,1856
4827,1855
4828,1857
4829,1856
4830,1854
4831,1858
4832,1860
4833,1862
4834,1861
4835,1862
4836,1859
4837,1863
4838,1858
4839,1861
4840,1861
4841,1863
4842,1867
4843,1861
4844,1860
4845,1864
4846,1860
4847,1859
4848,1861
4849,1861
4850,1864
4851,1859
4852,1862
4853,1862
4854,1856
4855,1856
4856,1857
4857,1854
4858,1856
4859,1856
4860,1853
4861,1855
4862,1858
4863,1859
4864,1859
4865,1863
4866,1862
4867,1858
4868,1861
4869,1862
4870,1861
4871,1861
4872,1862
4873,1863
4874,1863
4875,1863
4876,1863
4877,1862
4878,1861
4879,1862
4880,1863
4881,1861
4882,1861
4883,1863
4884,1855
4885,1858
4886,1855
4887,1856
4888,1855
4889,1863
4890,1861
4891,1859
4892,1862
4893,1863
4894,1863
4895,1861
4896,1860
4897,1861
4898,1860
4899,1862
4900,1865
4901,1861
4902,1861
4903,1861
4904,1863
4905,1860
4906,1858
4907,1859
4908,1859
4909,1858
4910,1859
4911,1862
4912,1860
4913,1859
4914,1853
4915,1854
4916,1857
4917,1855
4918,1856
4919,1859
4920,1859
4921,1863
4922,1861
4923,1859
4924,1863
4925,1859
4926,1863
4927,1861
4928,1861
4929,1862
4930,1861
4931,1860
4932,1859
4933,1864
4934,1861
4935,1861
4936,1861
4937,1862
4938,1863
4939,1860
4940,1861
4941,1344
4942,1824
4943,1906
4944,1905
4945,1900
4946,1891
4947,1887
4948,1879
4949,1874
4950,1872
4951,1872
4952,1872
4953,1872
4954,1871
4955,1871
4956,1870
4957,1867
4958,1867
4959,1866
4960,1868
4961,1865
4962,1861
4963,1865
4964,1865
4965,1861
4966,1861
4967,1866
4968,1861
4969,1866
4970,1862
4971,1863
4972,1686
4973,1767
4974,1917
4975,1917
4976,1904
4977,1898
4978,1893
4979,1893
4980,1889
4981,1882
4982,1880
4983,1875
4984,1872
4985,1872
4986,1872
4987,1870
4988,1871
4989,1867
4990,1867
4991,1866
4992,1865
4993,1866
4994,1863
4995,1865
4996,1862
4997,1865
4998,1863
4999,1861
5000,1862
5001,1863
5002,1861
5003,1860
5004,1654
5005,1913
5006,1915
5007,1906
5008,1903
5009,1899
5010,1894
5011,1890
5012,1885
5013,1879
5014,1875
5015,1874
5016,1873
5017,1872
5018,1865
5019,1867
5020,1869
5021,1867
5022,1869
5023,1863
5024,1867
5025,1863
5026,1862
5027,1865
5028,1863
5029,1863
5030,1865
5031,1863
5032,1862
5033,1858
5034,1856
5035,1424
5036,1904
5037,1915
5038,1907
5039,1903
5040,1898
5041,1895
5042,1888
5043,1886
5044,1878
5045,1874
5046,1875
5047,1872
5048,1872
5049,1872
5050,1872
5051,1867
5052,1869
5053,1869
5054,1863
5055,1867
5056,1867
5057,1866
5058,1863
5059,1862
5060,1862
5061,1863
5062,1861
5063,1862
5064,1856
5065,1856
5066,1264
5067,1896
5068,1920
5069,1911
5070,1905
5071,1904
5072,1897
5073,1890
5074,1886
5075,1879
5076,1878
5077,1875
5078,1873
5079,1872
5080,1871
5081,1871
5082,1869
5083,1869
5084,1867
5085,1866
5086,1867
5087,1863
5088,1863
5089,1863
5090,1863
5091,1865
5092,1861
5093,1866
5094,1854
5095,1856
5096,1855
5097,1061
5098,1866
5099,1927
5100,1921
5101,1914
5102,1905
5103,1899
5104,1895
5105,1887
5106,1885
5107,1879
5108,1877
5109,1873
5110,1872
5111,1871
5112,1869
5113,1867
5114,1868
5115,1866
5116,1865
5117,1863
5118,1857
5119,1862
5120,1863
5121,1862
5122,1861
5123,1861
5124,1855
5125,1856
5126,1856
5127,1857
5128,1107
5129,1827
5130,1925
5131,1924
5132,1916
5133,1906
5134,1904
5135,1895
5136,1890
5137,1884
5138,1884
5139,1877
5140,1874
5141,1873
5142,1872
5143,1872
5144,1869
5145,1872
5146,1866
5147,1869
5148,1866
5149,1866
5150,1864
5151,1863
5152,1866
5153,1862
5154,1857
5155,1857
5156,1857
5157,1856
5158,1856
5159,1780
5160,1714
5161,1935
5162,1931
5163,1921
5164,1914
5165,1904
5166,1901
5167,1894
5168,1888
5169,1887
5170,1879
5171,1878
5172,1875
5173,1872
5174,1872
5175,1872
5176,1869
5177,1870
5178,1866
5179,1867
5180,1868
5181,1865
5182,1867
5183,1866
5184,1856
5185,1856
5186,1859
5187,1856
5188,1854
5189,1861
5190,1863
5191,1607
5192,1936
5193,1936
5194,1926
5195,1917
5196,1909
5197,1901
5198,1895
5199,1891
5200,1887
5201,1885
5202,1875
5203,1874
5204,1872
5205,1872
5206,1870
5207,1869
5208,1869
5209,1866
5210,1863
5211,1866
5212,1863
5213,1863
5214,1857
5215,1856
5216,1854
5217,1856
5218,1856
5219,1862
5220,1860
5221,1863
5222,1316
5223,1925
5224,1937
5225,1931
5226,1921
5227,1913
5228,1904
5229,1898
5230,1891
5231,1888
5232,1882
5233,1882
5234,1877
5235,1874
5236,1872
5237,1872
5238,1872
5239,1870
5240,1869
5241,1870
5242,1866
5243,1857
5244,1858
5245,1858
5246,1858
5247,1857
5248,1857
5249,1856
5250,1855
5251,1854
5252,1858
5253,1083
5254,1904
5255,1939
5256,1931
5257,1922
5258,1911
5259,1904
5260,1901
5261,1894
5262,1889
5263,1886
5264,1882
5265,1878
5266,1873
5267,1872
5268,1872
5269,1872
5270,1872
5271,1870
5272,1867
5273,1867
5274,1858
5275,1859
5276,1856
5277,1856
5278,1855
5279,1866
5280,1860
5281,1861
5282,1862
5283,1862
5284,927
5285,1874
5286,1947
5287,1936
5288,1923
5289,1915
5290,1906
5291,1903
5292,1895
5293,1889
5294,1885
5295,1881
5296,1877
5297,1876
5298,1873
5299,1872
5300,1872
5301,1871
5302,1869
5303,1867
5304,1859
5305,1858
5306,1857
5307,1858
5308,1856
5309,1862
5310,1859
5311,1859
5312,1861
5313,1861
5314,1862
5315,1095
5316,1808
5317,1942
5318,1935
5319,1925
5320,1918
5321,1907
5322,1904
5323,1898
5324,1891
5325,1887
5326,1883
5327,1879
5328,1877
5329,1874
5330,1879
5331,1872
5332,1869
5333,1871
5334,1860
5335,1863
5336,1857
5337,1857
5338,1858
5339,1856
5340,1863
5341,1862
5342,1861
5343,1862
5344,1861
5345,1863
5346,1744
5347,1705
5348,1942
5349,1939
5350,1930
5351,1921
5352,1910
5353,1904
5354,1903
5355,1895
5356,1889
5357,1883
5358,1882
5359,1877
5360,1872
5361,1872
5362,1871
5363,1872
5364,1862
5365,1860
5366,1859
5367,1856
5368,1857
5369,1858
5370,1859
5371,1862
5372,1863
5373,1862
5374,1863
5375,1862
5376,1861
5377,1861
5378,1514
5379,1938
5380,1945
5381,1935
5382,1922
5383,1913
5384,1905
5385,1898
5386,1894
5387,1889
5388,1885
5389,1884
5390,1877
5391,1875
5392,1873
5393,1872
5394,1865
5395,1862
5396,1861
5397,1858
5398,1863
5399,1865
5400,1866
5401,1862
5402,1863
5403,1861
5404,1863
5405,1863
5406,1863
5407,1862
5408,1860
5409,1283
5410,1930
5411,1942
5412,1936
5413,1921
5414,1911
5415,1905
5416,1901
5417,1891
5418,1878
5419,1882
5420,1881
5421,1880
5422,1873
5423,1873
5424,1867
5425,1864
5426,1863
5427,1861
5428,1858
5429,1862
5430,1856
5431,1863
5432,1863
5433,1865
5434,1866
5435,1863
5436,1862
5437,1863
5438,1865
5439,1866
5440,1093
5441,1909
5442,1946
5443,1936
5444,1927
5445,1917
5446,1909
5447,1903
5448,1897
5449,1892
5450,1887
5451,1882
5452,1876
5453,1877
5454,1871
5455,1869
5456,1868
5457,1863
5458,1862
5459,1859
5460,1864
5461,1862
5462,1865
5463,1865
5464,1863
5465,1861
5466,1862
5467,1863
5468,1861
5469,1862
5470,1862
5471,926
5472,1887
5473,1947
5474,1937
5475,1925
5476,1918
5477,1907
5478,1904
5479,1895
5480,1890
5481,1887
5482,1882
5483,1875
5484,1872
5485,1871
5486,1867
5487,1866
5488,1862
5489,1869
5490,1868
5491,1867
5492,1863
5493,1867
5494,1866
5495,1867
5496,1863
5497,1863
5498,1863
5499,1863
5500,1863
5501,1866
5502,1047
5503,1811
5504,1943
5505,1938
5506,1930
5507,1919
5508,1907
5509,1902
5510,1898
5511,1890
5512,1887
5513,1883
5514,1874
5515,1871
5516,1869
5517,1869
5518,1863
5519,1872
5520,1867
5521,1869
5522,1867
5523,1868
5524,1867
5525,1866
5526,1865
5527,1865
5528,1865
5529,1866
5530,1863
5531,1862
5532,1866
5533,1690
5534,1715
5535,1943
5536,1942
5537,1933
5538,1920
5539,1910
5540,1904
5541,1891
5542,1885
5543,1878
5544,1876
5545,1873
5546,1872
5547,1866
5548,1869
5549,1866
5550,1864
5551,1858
5552,1867
5553,1867
5554,1866
5555,1866
5556,1866
5557,1866
5558,1867
5559,1863
5560,1862
5561,1865
5562,1862
5563,1863
5564,1863
5565,1863
5566,1861
5567,1863
5568,1862
5569,1862
5570,1860
5571,1861
5572,1863
5573,1861
5574,1856
5575,1856
5576,1856
5577,1856
5578,1855
5579,1859
5580,1861
5581,1861
5582,1859
5583,1860
5584,1861
5585,1861
5586,1861
5587,1862
5588,1863
5589,1861
5590,1863
5591,1861
5592,1863
5593,1861
5594,1862
5595,1861
5596,1862
5597,1861
5598,1867
5599,1861
5600,1862
5601,1861
5602,1860
5603,1859
5604,1856
5605,1855
5606,1855
5607,1856
5608,1856
5609,1857
5610,1859
5611,1856
5612,1861
5613,1860
5614,1859
5615,1858
5616,1862
5617,1861
5618,1862
5619,1859
5620,1861
5621,1861
5622,1863
5623,1861
5624,1861
5625,1862
5626,1858
5627,1863
5628,1861
5629,1866
5630,1863
5631,1862
5632,1863
5633,1859
5634,1855
5635,1856
5636,1856
5637,1856
5638,1855
5639,1856
5640,1854
5641,1858
5642,1856
5643,1862
5644,1863
5645,1862
5646,1860
5647,1859
5648,1861
5649,1863
5650,1859
5651,1862
5652,1861
5653,1862
5654,1862
5655,1863
5656,1861
5657,1862
5658,1863
5659,1863
5660,1861
5661,1863
5662,1861
5663,1864
5664,1856
5665,1856
5666,1855
5667,1855
5668,1855
5669,1856
5670,1854
5671,1859
5672,1858
5673,1862
5674,1861
5675,1861
5676,1860
5677,1860
5678,1861
5679,1862
5680,1861
5681,1862
5682,1861
5683,1861
5684,1862
5685,1861
5686,1860
5687,1866
5688,1862
5689,1862
5690,1861
5691,1862
5692,1861
5693,1862
5694,1855
5695,1855
5696,1854
5697,1854
5698,1854
5699,1862
5700,1861
5701,1862
5702,1861
5703,1862
5704,1862
5705,1861
5706,1859
5707,1861
5708,1862
5709,1861
5710,1861
5711,1862
5712,1860
5713,1859
5714,1861
5715,1861
5716,1862
5717,1859
5718,1855
5719,1861
5720,1858
5721,1860
5722,1861
5723,1863
5724,1854
5725,1856
5726,1855
5727,1856
5728,1857
5729,1854
5730,1854
5731,1859
5732,1861
5733,1861
5734,1858
5735,1861
5736,1861
5737,1863
5738,1862
5739,1862
5740,1862
5741,1860
5742,1861
5743,1862
5744,1861
5745,1861
5746,1862
5747,1861
5748,1861
5749,1862
5750,1860
5751,1865
5752,1862
5753,1859
5754,1855
5755,1854
5756,1856
5757,1854
5758,1855
5759,1855
5760,1860
5761,1859
5762,1861
5763,1859
5764,1859
5765,1862
5766,1863
5767,1861
5768,1860
5769,1863
5770,1863
5771,1861
5772,1862
5773,1864
5774,1865
5775,1857
5776,1863
5777,1863
5778,1862
5779,1866
5780,1862
5781,1862
5782,1862
5783,1862
5784,1856
5785,1856
5786,1856
5787,1856
5788,1856
5789,1863
5790,1858
5791,1860
5792,1859
5793,1861
5794,1862
5795,1862
5796,1861
5797,1860
5798,1861
5799,1860
5800,1857
5801,1859
5802,1859
5803,1859
5804,1859
5805,1861
5806,1859
5807,1859
5808,1862
5809,1858
5810,1859
5811,1859
5812,1861
5813,1859
5814,1854
5815,1854
5816,1856
5817,1853
5818,1855
5819,1860
5820,1861
5821,1861
5822,1861
5823,1862
5824,1859
5825,1862
5826,1861
5827,1862
5828,1861
5829,1862
5830,1860
5831,1858
5832,1863
5833,1862
5834,1861
5835,1859
5836,1860
5837,1862
5838,1862
5839,1861
5840,1859
5841,1856
5842,1854
5843,1857
5844,1856
5845,1857
5846,1856
5847,1856
5848,1855
5849,1856
5850,1853
5851,1856
5852,1861
5853,1862
5854,1860
5855,1861
5856,1862
5857,1860
5858,1863
5859,1861
5860,1861
5861,1861
5862,1860
5863,1860
5864,1863
5865,1861
5866,1862
5867,1860
5868,1861
5869,1863
5870,1862
5871,1863
5872,1861
5873,1863
5874,1856
5875,1857
5876,1856
5877,1856
5878,1859
5879,1856
5880,1853
5881,1860
5882,1861
5883,1860
5884,1860
5885,1865
5886,1862
5887,1861
5888,1862
5889,1861
5890,1862
5891,1863
5892,1859
5893,1860
5894,1861
5895,1863
5896,1861
5897,1861
5898,1862
5899,1861
5900,1863
5901,1861
5902,1861
5903,1859
5904,1855
5905,1856
5906,1855
5907,1853
5908,1854
5909,1856
5910,1854
5911,1855
5912,1859
5913,1857
5914,1856
5915,1857
5916,1870
5917,1857
5918,1855
5919,1858
5920,1862
5921,1862
5922,1863
5923,1859
5924,1863
5925,1860
5926,1862
5927,1863
5928,1863
5929,1865
5930,1865
5931,1861
5932,1863
5933,1859
5934,1854
5935,1856
5936,1855
5937,1857
5938,1855
5939,1855
5940,1856
5941,1859
5942,1861
5943,1859
5944,1860
5945,1861
5946,1862
5947,1863
5948,1862
5949,1861
5950,1863
5951,1861
5952,1861
5953,1859
5954,1861
5955,1862
5956,1862
5957,1863
5958,1863
5959,1863
5960,1863
5961,1860
5962,1862
5963,1861
5964,1856
5965,1856
5966,1853
5967,1855
5968,1855
5969,1856
5970,1861
5971,1860
5972,1862
5973,1863
5974,1862
5975,1862
5976,1859
5977,1862
5978,1864
5979,1865
5980,1862
5981,1861
5982,1863
5983,1863
5984,1865
5985,1861
5986,1861
5987,1858
5988,1859
5989,1861
5990,1861
5991,1861
5992,1863
5993,1861
5994,1856
5995,1856
5996,1855
5997,1856
5998,1856
5999,1861
6000,1862
6001,1859
6002,1859
6003,1859
6004,1864
6005,1861
6006,1861
6007,1860
6008,1861
6009,1862
6010,1860
6011,1861
6012,1859
6013,1858
6014,1857
6015,1861
6016,1859
6017,1866
6018,1856
6019,1860
6020,1862
6021,1861
6022,1861
6023,1859
6024,1858
6025,1854
6026,1855
6027,1856
6028,1855
6029,1856
6030,1854
6031,1857
6032,1861
6033,1862
6034,1860
6035,1863
6036,1861
6037,1862
6038,1862
6039,1862
6040,1861
6041,1862
6042,1851
6043,1863
6044,1861
6045,1861
6046,1861
6047,1860
6048,1862
6049,1861
6050,1859
6051,1861
6052,1859
6053,1861
6054,1856
6055,1856
6056,1856
6057,1855
6058,1855
6059,1859
6060,1861
6061,1860
6062,1858
6063,1858
6064,1859
6065,1862
6066,1857
6067,1862
6068,1865
6069,1861
6070,1862
6071,1865
6072,1861
6073,1861
6074,1862
6075,1863
6076,1859
6077,1861
6078,1863
6079,1861
6080,1861
6081,1862
6082,1861
6083,1861
6084,1856
6085,1856
6086,1856
6087,1855
6088,1856
6089,1856
6090,1858
6091,1858
6092,1860
6093,1861
6094,1861
6095,1863
6096,1861
6097,1861
6098,1861
6099,1861
6100,1861
6101,1861
6102,1857
6103,1862
6104,1859
6105,1861
6106,1860
6107,1861
6108,1861
6109,1862
6110,1861
6111,1859
6112,1859
6113,1858
6114,1855
6115,1855
6116,1855
6117,1856
6118,1855
6119,1853
6120,1847
6121,1858
6122,1862
6123,1858
6124,1861
6125,1859
6126,1861
6127,1862
6128,1859
6129,1861
6130,1866
6131,1863
6132,1862
6133,1861
6134,1861
6135,1862
6136,1861
6137,1865
6138,1864
6139,1862
6140,1861
6141,1861
6142,1858
6143,1856
6144,1855
6145,1855
6146,1853
6147,1856
6148,1853
6149,1855
6150,1860
6151,1858
6152,1861
6153,1861
6154,1862
6155,1861
6156,1861
6157,1861
6158,1861
6159,1862
6160,1863
6161,1859
6162,1861
6163,1862
6164,1863
6165,1862
6166,1859
6167,1862
6168,1862
6169,1861
6170,1863
6171,1861
6172,1863
6173,1859
6174,1856
6175,1856
6176,1855
6177,1856
6178,1855
6179,1859
6180,1860
6181,1860
6182,1857
6183,1861
6184,1858
6185,1859
6186,1859
6187,1862
6188,1859
6189,1859
6190,1861
6191,1862
6192,1861
6193,1859
6194,1861
6195,1862
6196,1859
6197,1862
6198,1861
6199,1861
6200,1859
6201,1862
6202,1859
6203,1859
6204,1855
6205,1855
6206,1855
6207,1853
6208,1854
6209,1861
6210,1857
6211,1859
6212,1857
6213,1861
6214,1862
6215,1858
6216,1858
6217,1845
6218,1859
6219,1861
6220,1860
6221,1862
6222,1861
6223,1861
6224,1861
6225,1861
6226,1859
6227,1861
6228,1862
6229,1862
6230,1859
6231,1861
6232,1863
6233,1862
6234,1857
6235,1856
6236,1855
6237,1852
6238,1856
6239,1856
6240,1853
6241,1861
6242,1858
6243,1861
6244,1861
6245,1860
6246,1862
6247,1859
6248,1861
6249,1859
6250,1862
6251,1863
6252,1860
6253,1862
6254,1861
6255,1859
6256,1862
6257,1862
6258,1860
6259,1858
6260,1864
6261,1861
6262,1861
6263,1861
6264,1854
6265,1857
6266,1857
6267,1855
6268,1856
6269,1856
6270,1859
6271,1859
6272,1860
6273,1861
6274,1858
6275,1861
6276,1859
6277,1860
6278,1862
6279,1861
6280,1860
6281,1863
6282,1862
6283,1859
6284,1866
6285,1863
6286,1862
6287,1862
6288,1861
6289,1861
6290,1860
6291,1858
6292,1859
6293,1862
6294,1857
6295,1856
6296,1855
6297,1856
6298,1858
6299,1858
6300,1862
6301,1862
6302,1861
6303,1859
6304,1859
6305,1861
6306,1861
6307,1862
6308,1861
6309,1861
6310,1857
6311,1859
6312,1861
6313,1859
6314,1861
6315,1859
6316,1858
6317,1859
6318,1854
6319,1857
6320,1862
6321,1859
6322,1863
6323,1862
6324,1855
6325,1855
6326,1855
6327,1856
6328,1854
6329,1855
6330,1853
6331,1859
6332,1861
6333,1861
6334,1861
6335,1861
6336,1858
6337,1861
6338,1862
6339,1862
6340,1859
6341,1860
6342,1860
6343,1860
6344,1865
6345,1863
6346,1859
6347,1861
6348,1861
6349,1863
6350,1859
6351,1862
6352,1859
6353,1862
6354,1855
6355,1856
6356,1856
6357,1855
6358,1856
6359,1856
6360,1859
6361,1861
6362,1863
6363,1859
6364,1862
6365,1859
6366,1858
6367,1859
6368,1869
6369,1863
6370,1861
6371,1860
6372,1860
6373,1861
6374,1863
6375,1864
6376,1861
6377,1863
6378,1859
6379,1859
6380,1861
6381,1861
6382,1861
6383,1859
6384,1855
6385,1856
6386,1855
6387,1856
6388,1856
6389,1857
6390,1862
6391,1859
6392,1858
6393,1866
6394,1862
6395,1861
6396,1859
6397,1861
6398,1862
6399,1859
6400,1861
6401,1862
6402,1861
6403,1863
6404,1861
6405,1859
6406,1861
6407,1859
6408,1858
6409,1858
6410,1862
6411,1860
6412,1859
6413,1861
6414,1856
6415,1854
6416,1845
6417,1854
6418,1854
6419,1856
6420,1853
6421,1860
6422,1858
6423,1861
6424,1860
6425,1861
6426,1861
6427,1859
6428,1857
6429,1860
6430,1862
6431,1861
6432,1862
6433,1861
6434,1861
6435,1861
6436,1860
6437,1862
6438,1863
6439,1861
6440,1863
6441,1864
6442,1857
6443,1856
6444,1855
6445,1856
6446,1855
6447,1856
6448,1856
6449,1854
6450,1859
6451,1859
6452,1860
6453,1860
6454,1860
6455,1860
6456,1860
6457,1858
6458,1863
6459,1862
6460,1865
6461,1859
6462,1863
6463,1861
6464,1862
6465,1863
6466,1864
6467,1861
6468,1862
6469,1861
6470,1866
6471,1861
6472,1862
6473,1862
6474,1856
6475,1855
6476,1853
6477,1856
6478,1856
6479,1861
6480,1859
6481,1859
6482,1858
6483,1859
6484,1857
6485,1858
6486,1862
6487,1861
6488,1865
6489,1859
6490,1861
6491,1860
6492,1862
6493,1862
6494,1860
6495,1862
6496,1862
6497,1861
6498,1863
6499,1859
6500,1862
6501,1855
6502,1861
6503,1861
6504,1855
6505,1856
6506,1855
6507,1854
6508,1856
6509,1858
6510,1859
6511,1858
6512,1862
6513,1858
6514,1859
6515,1861
6516,1862
6517,1855
6518,1859
6519,1861
6520,1859
6521,1862
6522,1860
6523,1862
6524,1862
6525,1863
6526,1862
6527,1862
6528,1859
6529,1862
6530,1861
6531,1861
6532,1861
6533,1862
6534,1856
6535,1855
6536,1856
6537,1856
6538,1856
6539,1856
6540,1854
6541,1858
6542,1860
6543,1861
6544,1859
6545,1861
6546,1862
6547,1862
6548,1861
6549,1861
6550,1859
6551,1861
6552,1863
6553,1861
6554,1862
6555,1861
6556,1862
6557,1860
6558,1862
6559,1861
6560,1861
6561,1761
6562,1782
6563,1917
6564,1908
6565,1901
6566,1891
6567,1886
6568,1881
6569,1877
6570,1876
6571,1875
6572,1872
6573,1873
6574,1873
6575,1870
6576,1872
6577,1867
6578,1869
6579,1867
6580,1866
6581,1869
6582,1862
6583,1864
6584,1866
6585,1862
6586,1861
6587,1861
6588,1862
6589,1863
6590,1862
6591,1862
6592,1865
6593,1627
6594,1915
6595,1918
6596,1908
6597,1904
6598,1897
6599,1893
6600,1889
6601,1886
6602,1879
6603,1877
6604,1873
6605,1872
6606,1872
6607,1871
6608,1870
6609,1870
6610,1869
6611,1866
6612,1866
6613,1865
6614,1865
6615,1863
6616,1866
6617,1859
6618,1861
6619,1856
6620,1856
6621,1854
6622,1856
6623,1856
6624,1452
6625,1904
6626,1917
6627,1909
6628,1904
6629,1895
6630,1886
6631,1888
6632,1883
6633,1881
6634,1879
6635,1876
6636,1873
6637,1872
6638,1871
6639,1871
6640,1870
6641,1870
6642,1866
6643,1866
6644,1865
6645,1863
6646,1865
6647,1862
6648,1861
6649,1867
6650,1866
6651,1866
6652,1861
6653,1865
6654,1856
6655,1194
6656,1889
6657,1919
6658,1911
6659,1904
6660,1897
6661,1894
6662,1893
6663,1885
6664,1883
6665,1882
6666,1874
6667,1873
6668,1874
6669,1872
6670,1872
6671,1870
6672,1869
6673,1869
6674,1867
6675,1863
6676,1866
6677,1863
6678,1863
6679,1863
6680,1861
6681,1862
6682,1860
6683,1861
6684,1854
6685,1855
6686,1076
6687,1858
6688,1924
6689,1921
6690,1914
6691,1904
6692,1900
6693,1894
6694,1889
6695,1884
6696,1879
6697,1875
6698,1876
6699,1872
6700,1873
6701,1872
6702,1871
6703,1867
6704,1866
6705,1866
6706,1867
6707,1863
6708,1863
6709,1865
6710,1862
6711,1862
6712,1865
6713,1862
6714,1856
6715,1856
6716,1855
6717,1236
6718,1805
6719,1931
6720,1926
6721,1915
6722,1908
6723,1902
6724,1895
6725,1892
6726,1886
6727,1882
6728,1877
6729,1877
6730,1874
6731,1872
6732,1872
6733,1871
6734,1867
6735,1869
6736,1867
6737,1866
6738,1866
6739,1867
6740,1863
6741,1863
6742,1858
6743,1856
6744,1856
6745,1855
6746,1858
6747,1853
6748,1819
6749,1698
6750,1923
6751,1925
6752,1921
6753,1910
6754,1904
6755,1902
6756,1894
6757,1887
6758,1885
6759,1882
6760,1877
6761,1875
6762,1872
6763,1872
6764,1871
6765,1870
6766,1870
6767,1870
6768,1863
6769,1867
6770,1867
6771,1861
6772,1863
6773,1863
6774,1857
6775,1856
6776,1858
6777,1856
6778,1857
6779,1856
6780,1509
6781,1933
6782,1937
6783,1929
6784,1919
6785,1910
6786,1903
6787,1897
6788,1891
6789,1889
6790,1886
6791,1878
6792,1877
6793,1872
6794,1872
6795,1872
6796,1873
6797,1868
6798,1865
6799,1866
6800,1867
6801,1865
6802,1866
6803,1862
6804,1857
6805,1856
6806,1854
6807,1855
6808,1855
6809,1859
6810,1861
6811,1253
6812,1922
6813,1939
6814,1931
6815,1921
6816,1909
6817,1899
6818,1899
6819,1893
6820,1888
6821,1884
6822,1882
6823,1877
6824,1875
6825,1872
6826,1872
6827,1871
6828,1870
6829,1869
6830,1867
6831,1870
6832,1867
6833,1868
6834,1860
6835,1856
6836,1857
6837,1857
6838,1859
6839,1857
6840,1855
6841,1860
6842,1011
6843,1903
6844,1949
6845,1936
6846,1926
6847,1919
6848,1907
6849,1903
6850,1895
6851,1890
6852,1887
6853,1882
6854,1877
6855,1875
6856,1872
6857,1872
6858,1873
6859,1871
6860,1871
6861,1867
6862,1869
6863,1866
6864,1859
6865,1858
6866,1856
6867,1856
6868,1858
6869,1856
6870,1861
6871,1863
6872,1861
6873,874
6874,1860
6875,1950
6876,1939
6877,1930
6878,1920
6879,1910
6880,1904
6881,1898
6882,1893
6883,1888
6884,1886
6885,1878
6886,1875
6887,1874
6888,1872
6889,1871
6890,1869
6891,1870
6892,1869
6893,1867
6894,1861
6895,1858
6896,1858
6897,1855
6898,1858
6899,1861
6900,1863
6901,1863
6902,1861
6903,1861
6904,955
6905,1815
6906,1950
6907,1943
6908,1931
6909,1923
6910,1911
6911,1906
6912,1901
6913,1895
6914,1888
6915,1883
6916,1879
6917,1873
6918,1868
6919,1872
6920,1872
6921,1872
6922,1871
6923,1869
6924,1860
6925,1861
6926,1858
6927,1858
6928,1858
6929,1857
6930,1856
6931,1863
6932,1861
6933,1861
6934,1859
6935,1783
6936,1667
6937,1950
6938,1946
6939,1936
6940,1921
6941,1913
6942,1904
6943,1903
6944,1899
6945,1891
6946,1887
6947,1881
6948,1879
6949,1874
6950,1872
6951,1872
6952,1872
6953,1870
6954,1863
6955,1859
6956,1859
6957,1857
6958,1858
6959,1855
6960,1861
6961,1861
6962,1861
6963,1865
6964,1863
6965,1863
6966,1861
6967,1474
6968,1943
6969,1949
6970,1936
6971,1926
6972,1915
6973,1909
6974,1904
6975,1897
6976,1889
6977,1885
6978,1883
6979,1883
6980,1874
6981,1872
6982,1872
6983,1871
6984,1869
6985,1861
6986,1861
6987,1858
6988,1857
6989,1863
6990,1862
6991,1863
6992,1863
6993,1862
6994,1863
6995,1863
6996,1863
6997,1862
6998,1218
6999,1931
7000,1954
7001,1937
7002,1931
7003,1920
7004,1909
7005,1904
7006,1893
7007,1888
7008,1886
7009,1884
7010,1877
7011,1872
7012,1874
7013,1872
7014,1858
7015,1863
7016,1858
7017,1861
7018,1861
7019,1867
7020,1865
7021,1866
7022,1866
7023,1863
7024,1863
7025,1863
7026,1861
7027,1862
7028,1861
7029,960
7030,1907
7031,1954
7032,1943
7033,1931
7034,1920
7035,1910
7036,1904
7037,1899
7038,1895
7039,1891
7040,1884
7041,1872
7042,1872
7043,1869
7044,1866
7045,1865
7046,1862
7047,1863
7048,1863
7049,1861
7050,1856
7051,1857
7052,1862
7053,1865
7054,1862
7055,1862
7056,1862
7057,1865
7058,1865
7059,1862
7060,821
7061,1865
7062,1956
7063,1948
7064,1935
7065,1922
7066,1913
7067,1906
7068,1902
7069,1895
7070,1889
7071,1887
7072,1882
7073,1875
7074,1872
7075,1867
7076,1867
7077,1863
7078,1863
7079,1865
7080,1868
7081,1866
7082,1870
7083,1865
7084,1867
7085,1862
7086,1863
7087,1862
7088,1863
7089,1861
7090,1863
7091,1039
7092,1793
7093,1955
7094,1947
7095,1936
7096,1923
7097,1916
7098,1906
7099,1903
7100,1893
7101,1890
7102,1885
7103,1879
7104,1872
7105,1870
7106,1868
7107,1866
7108,1863
7109,1869
7110,1869
7111,1866
7112,1865
7113,1867
7114,1865
7115,1864
7116,1863
7117,1862
7118,1857
7119,1862
7120,1861
7121,1861
7122,1743
7123,1673
7124,1951
7125,1947
7126,1936
7127,1923
7128,1915
7129,1907
7130,1903
7131,1897
7132,1889
7133,1887
7134,1874
7135,1872
7136,1870
7137,1867
7138,1867
7139,1872
7140,1872
7141,1869
7142,1869
7143,1868
7144,1867
7145,1866
7146,1866
7147,1865
7148,1862
7149,1863
7150,1862
7151,1866
7152,1862
7153,1863
7154,1479
7155,1946
7156,1954
7157,1937
7158,1927
7159,1916
7160,1909
7161,1904
7162,1900
7163,1891
7164,1881
7165,1874
7166,1873
7167,1869
7168,1870
7169,1866
7170,1863
7171,1859
7172,1861
7173,1869
7174,1863
7175,1863
7176,1863
7177,1866
7178,1863
7179,1861
7180,1866
7181,1862
7182,1865
7183,1862
7184,1862
7185,1862
7186,1863
7187,1865
7188,1862
7189,1861
7190,1863
7191,1861
7192,1862
7193,1859
7194,1856
7195,1855
7196,1856
7197,1855
7198,1855
7199,1860
7200,1861
7201,1861
7202,1859
7203,1863
7204,1861
7205,1861
7206,1858
7207,1860
7208,1860
7209,1859
7210,1859
7211,1861
7212,1859
7213,1858
7214,1859
7215,1856
7216,1861
7217,1861
7218,1855
7219,1860
7220,1862
7221,1861
7222,1859
7223,1859
7224,1854
7225,1856
7226,1855
7227,1856
7228,1856
7229,1855
7230,1853
7231,1858
7232,1859
7233,1858
7234,1862
7235,1862
7236,1862
7237,1862
7238,1863
7239,1863
7240,1860
7241,1860
7242,1860
7243,1859
7244,1859
7245,1858
7246,1861
7247,1861
7248,1862
7249,1861
7250,1862
7251,1863
7252,1859
7253,1861
7254,1856
7255,1856
7256,1854
7257,1855
7258,1856
7259,1854
7260,1859
7261,1859
7262,1859
7263,1857
7264,1859
7265,1859
7266,1859
7267,1862
7268,1859
7269,1861
7270,1862
7271,1862
7272,1858
7273,1862
7274,1862
7275,1861
7276,1862
7277,1862
7278,1862
7279,1862
7280,1861
7281,1862
7282,1862
7283,1863
7284,1855
7285,1855
7286,1856
7287,1853
7288,1856
7289,1859
7290,1861
7291,1861
7292,1859
7293,1866
7294,1859
7295,1866
7296,1861
7297,1861
7298,1860
7299,1862
7300,1859
7301,1860
7302,1861
7303,1862
7304,1860
7305,1860
7306,1861
7307,1859
7308,1859
7309,1858
7310,1858
7311,1861
7312,1860
7313,1878
7314,1853
7315,1853
7316,1856
7317,1851
7318,1856
7319,1859
7320,1860
7321,1859
7322,1860
7323,1861
7324,1860
7325,1859
7326,1861
7327,1861
7328,1862
7329,1863
7330,1861
7331,1862
7332,1861
7333,1862
7334,1861
7335,1862
7336,1863
7337,1861
7338,1862
7339,1862
7340,1862
7341,1851
7342,1853
7343,1854
7344,1855
7345,1853
7346,1856
7347,1855
7348,1855
7349,1855
7350,1853
7351,1851
7352,1857
7353,1857
7354,1861
7355,1861
7356,1861
7357,1862
7358,1862
7359,1862
7360,1859
7361,1858
7362,1859
7363,1862
7364,1859
7365,1861
7366,1858
7367,1862
7368,1861
7369,1862
7370,1862
7371,1862
7372,1861
7373,1861
7374,1855
7375,1854
7376,1855
7377,1854
7378,1855
7379,1857
7380,1865
7381,1861
7382,1862
7383,1860
7384,1861
7385,1862
7386,1861
7387,1856
7388,1861
7389,1861
7390,1860
7391,1859
7392,1859
7393,1861
7394,1862
7395,1861
7396,1862
7397,1866
7398,1859
7399,1859
7400,1861
7401,1861
7402,1862
7403,1859
7404,1852
7405,1855
7406,1854
7407,1855
7408,1856
7409,1859
7410,1856
7411,1859
7412,1858
7413,1857
7414,1859
7415,1857
7416,1859
7417,1860
7418,1852
7419,1859
7420,1861
7421,1861
7422,1859
7423,1858
7424,1859
7425,1859
7426,1861
7427,1859
7428,1861
7429,1862
7430,1859
7431,1861
7432,1859
7433,1862
7434,1857
7435,1852
7436,1854
7437,1855
7438,1856
7439,1853
7440,1854
7441,1858
7442,1854
7443,1858
7444,1861
7445,1861
7446,1862
7447,1862
7448,1863
7449,1861
7450,1861
7451,1858
7452,1863
7453,1862
7454,1859
7455,1859
7456,1861
7457,1862
7458,1860
7459,1861
7460,1860
7461,1861
7462,1861
7463,1859
7464,1855
7465,1855
7466,1856
7467,1854
7468,1856
7469,1856
7470,1860
7471,1858
7472,1863
7473,1861
7474,1861
7475,1861
7476,1861
7477,1859
7478,1860
7479,1861
7480,1862
7481,1861
7482,1863
7483,1859
7484,1858
7485,1861
7486,1865
7487,1861
7488,1863
7489,1862
7490,1862
7491,1860
7492,1863
7493,1860
7494,1855
7495,1854
7496,1855
7497,1856
7498,1856
7499,1860
7500,1860
7501,1859
7502,1859
7503,1861
7504,1859
7505,1858
7506,1857
7507,1859
7508,1859
7509,1858
7510,1860
7511,1860
7512,1859
7513,1859
7514,1861
7515,1859
7516,1858
7517,1863
7518,1862
7519,1859
7520,1859
7521,1861
7522,1863
7523,1859
7524,1856
7525,1855
7526,1855
7527,1856
7528,1854
7529,1855
7530,1854
7531,1858
7532,1862
7533,1859
7534,1861
7535,1860
7536,1861
7537,1859
7538,1862
7539,1860
7540,1860
7541,1865
7542,1856
7543,1862
7544,1859
7545,1861
7546,1859
7547,1864
7548,1861
7549,1861
7550,1865
7551,1860
7552,1861
7553,1859
7554,1855
7555,1855
7556,1855
7557,1855
7558,1855
7559,1854
7560,1859
7561,1862
7562,1858
7563,1859
7564,1859
7565,1861
7566,1859
7567,1861
7568,1863
7569,1860
7570,1863
7571,1863
7572,1862
7573,1861
7574,1861
7575,1862
7576,1863
7577,1862
7578,1861
7579,1863
7580,1859
7581,1861
7582,1859
7583,1862
7584,1854
7585,1854
7586,1856
7587,1855
7588,1856
7589,1860
7590,1862
7591,1861
7592,1861
7593,1859
7594,1862
7595,1859
7596,1862
7597,1861
7598,1861
7599,1861
7600,1860
7601,1861
7602,1859
7603,1859
7604,1858
7605,1861
7606,1861
7607,1862
7608,1859
7609,1861
7610,1859
7611,1861
7612,1860
7613,1859
7614,1855
7615,1854
7616,1855
7617,1853
7618,1856
7619,1858
7620,1860
7621,1862
7622,1859
7623,1861
7624,1859
7625,1860
7626,1861
7627,1862
7628,1863
7629,1859
7630,1862
7631,1861
7632,1865
7633,1862
7634,1862
7635,1861
7636,1862
7637,1861
7638,1862
7639,1863
7640,1863
7641,1862
7642,1862
7643,1855
7644,1855
7645,1855
7646,1854
7647,1855
7648,1856
7649,1855
7650,1855
7651,1854
7652,1853
7653,1857
7654,1859
7655,1859
7656,1863
7657,1859
7658,1861
7659,1863
7660,1861
7661,1862
7662,1861
7663,1860
7664,1861
7665,1861
7666,1859
7667,1862
7668,1858
7669,1861
7670,1862
7671,1862
7672,1861
7673,1861
7674,1858
7675,1856
7676,1856
7677,1853
7678,1854
7679,1859
7680,1861
7681,1861
7682,1857
7683,1859
7684,1862
7685,1860
7686,1863
7687,1859
7688,1863
7689,1862
7690,1859
7691,1861
7692,1862
7693,1856
7694,1860
7695,1861
7696,1859
7697,1861
7698,1861
7699,1860
7700,1860
7701,1861
7702,1861
7703,1859
7704,1856
7705,1854
7706,1855
7707,1854
7708,1854
7709,1857
7710,1857
7711,1860
7712,1861
7713,1858
7714,1861
7715,1858
7716,1858
7717,1858
7718,1858
7719,1861
7720,1859
7721,1861
7722,1858
7723,1861
7724,1862
7725,1860
7726,1861
7727,1861
7728,1863
7729,1862
7730,1859
7731,1860
7732,1861
7733,1862
7734,1856
7735,1853
7736,1855
7737,1857
7738,1856
7739,1855
7740,1854
7741,1860
7742,1856
7743,1858
7744,1861
7745,1863
7746,1861
7747,1859
7748,1862
7749,1861
7750,1858
7751,1862
7752,1860
7753,1861
7754,1861
7755,1861
7756,1863
7757,1861
7758,1859
7759,1865
7760,1859
7761,1860
7762,1863
7763,1861
7764,1854
7765,1854
7766,1855
7767,1855
7768,1855
7769,1853
7770,1861
7771,1862
7772,1858
7773,1861
7774,1861
7775,1862
7776,1861
7777,1861
7778,1862
7779,1866
7780,1861
7781,1861
7782,1863
7783,1863
7784,1860
7785,1862
7786,1863
7787,1861
7788,1862
7789,1862
7790,1859
7791,1859
7792,1863
7793,1861
7794,1855
7795,1854
7796,1856
7797,1855
7798,1856
7799,1862
7800,1862
7801,1860
7802,1859
7803,1862
7804,1861
7805,1858
7806,1859
7807,1859
7808,1859
7809,1860
7810,1861
7811,1861
7812,1860
7813,1858
7814,1859
7815,1858
7816,1859
7817,1861
7818,1861
7819,1859
7820,1861
7821,1862
7822,1862
7823,1861
7824,1856
7825,1855
7826,1854
7827,1855
7828,1856
7829,1859
7830,1861
7831,1861
7832,1860
7833,1861
7834,1861
7835,1861
7836,1863
7837,1861
7838,1865
7839,1861
7840,1861
7841,1862
7842,1855
7843,1861
7844,1861
7845,1862
7846,1859
7847,1861
7848,1860
7849,1859
7850,1861
7851,1863
7852,1861
7853,1861
7854,1856
7855,1855
7856,1856
7857,1856
7858,1855
7859,1855
7860,1856
7861,1854
7862,1859
7863,1857
7864,1861
7865,1861
7866,1858
7867,1859
7868,1860
7869,1861
7870,1862
7871,1858
7872,1865
7873,1863
7874,1862
7875,1862
7876,1862
7877,1861
7878,1862
7879,1861
7880,1863
7881,1863
7882,1862
7883,1861
7884,1856
7885,1857
7886,1855
7887,1855
7888,1856
7889,1862
7890,1859
7891,1860
7892,1858
7893,1859
7894,1861
7895,1859
7896,1861
7897,1861
7898,1862
7899,1861
7900,1863
7901,1861
7902,1861
7903,1861
7904,1860
7905,1862
7906,1862
7907,1862
7908,1861
7909,1861
7910,1861
7911,1861
7912,1858
7913,1859
7914,1855
7915,1855
7916,1862
7917,1855
7918,1855
7919,1856
7920,1853
7921,1860
7922,1858
7923,1859
7924,1861
7925,1865
7926,1861
7927,1860
7928,1861
7929,1861
7930,1862
7931,1862
7932,1861
7933,1863
7934,1861
7935,1863
7936,1862
7937,1861
7938,1863
7939,1862
7940,1862
7941,1857
7942,1854
7943,1854
7944,1854
7945,1855
7946,1854
7947,1857
7948,1855
7949,1855
7950,1863
7951,1861
7952,1862
7953,1861
7954,1861
7955,1862
7956,1860
7957,1861
7958,1863
7959,1858
7960,1862
7961,1861
7962,1862
7963,1861
7964,1862
7965,1862
7966,1862
7967,1862
7968,1859
7969,1863
7970,1862
7971,1861
7972,1862
7973,1859
7974,1855
7975,1855
7976,1855
7977,1856
7978,1856
7979,1858
7980,1859
7981,1859
7982,1861
7983,1861
7984,1865
7985,1862
7986,1863
7987,1861
7988,1860
7989,1861
7990,1861
7991,1862
7992,1861
7993,1862
7994,1862
7995,1860
7996,1860
7997,1863
7998,1863
7999,1865
8000,1861
8001,1861
8002,1861
8003,1858
8004,1853
8005,1855
8006,1853
8007,1851
8008,1855
8009,1859
8010,1859
8011,1859
8012,1860
8013,1861
8014,1859
8015,1859
8016,1861
8017,1861
8018,1858
8019,1859
8020,1862
8021,1859
8022,1860
8023,1862
8024,1861
8025,1863
8026,1863
8027,1863
8028,1861
8029,1861
8030,1862
8031,1862
8032,1865
8033,1861
8034,1856
8035,1855
8036,1855
8037,1856
8038,1856
8039,1855
8040,1853
8041,1857
8042,1853
8043,1857
8044,1861
8045,1862
8046,1859
8047,1861
8048,1859
8049,1861
8050,1862
8051,1862
8052,1859
8053,1859
8054,1865
8055,1861
8056,1860
8057,1862
8058,1860
8059,1863
8060,1861
8061,1861
8062,1865
8063,1862
8064,1855
8065,1856
8066,1856
8067,1855
8068,1856
8069,1855
8070,1858
8071,1859
8072,1859
8073,1859
8074,1861
8075,1858
8076,1862
8077,1860
8078,1861
8079,1862
8080,1860
8081,1861
8082,1861
8083,1865
8084,1862
8085,1861
8086,1861
8087,1859
8088,1861
8089,1861
8090,1859
8091,1861
8092,1861
8093,1859
8094,1854
8095,1856
8096,1854
8097,1854
8098,1853
8099,1861
8100,1861
8101,1859
8102,1861
8103,1863
8104,1860
8105,1861
8106,1862
8107,1858
8108,1862
8109,1861
8110,1859
8111,1861
8112,1861
8113,1861
8114,1860
8115,1859
8116,1858
8117,1861
8118,1859
8119,1859
8120,1861
8121,1862
8122,1863
8123,1858
8124,1857
8125,1855
8126,1854
8127,1854
8128,1855
8129,1856
8130,1855
8131,1858
8132,1858
8133,1856
8134,1862
8135,1859
8136,1861
8137,1861
8138,1862
8139,1862
8140,1859
8141,1864
8142,1854
8143,1861
8144,1862
8145,1865
8146,1863
8147,1860
8148,1863
8149,1859
8150,1861
8151,1861
8152,1863
8153,1863
8154,1856
8155,1856
8156,1855
8157,1855
8158,1859
8159,1853
8160,1861
8161,1863
8162,1858
8163,1861
8164,1862
8165,1859
8166,1859
8167,1861
8168,1862
8169,1863
8170,1862
8171,1863
8172,1861
8173,1863
8174,1859
8175,1859
8176,1862
8177,1861
8178,1862
8179,1863
8180,1861
8181,1859
8182,1623
8183,1915
8184,1904
8185,1903
8186,1897
8187,1887
8188,1887
8189,1888
8190,1882
8191,1878
8192,1874
8193,1872
8194,1872
8195,1871
8196,1871
8197,1870
8198,1867
8199,1870
8200,1863
8201,1863
8202,1867
8203,1867
8204,1864
8205,1861
8206,1861
8207,1862
8208,1863
8209,1863
8210,1862
8211,1861
8212,1862
8213,1423
8214,1901
8215,1920
8216,1915
8217,1903
8218,1895
8219,1892
8220,1882
8221,1883
8222,1882
8223,1876
8224,1874
8225,1872
8226,1872
8227,1872
8228,1872
8229,1871
8230,1869
8231,1872
8232,1866
8233,1866
8234,1865
8235,1866
8236,1867
8237,1863
8238,1863
8239,1862
8240,1863
8241,1856
8242,1855
8243,1856
8244,1155
8245,1889
8246,1921
8247,1915
8248,1907
8249,1899
8250,1898
8251,1890
8252,1891
8253,1883
8254,1879
8255,1878
8256,1877
8257,1872
8258,1872
8259,1871
8260,1872
8261,1869
8262,1867
8263,1866
8264,1865
8265,1869
8266,1864
8267,1869
8268,1865
8269,1864
8270,1864
8271,1863
8272,1861
8273,1861
8274,1859
8275,1088
8276,1856
8277,1921
8278,1915
8279,1913
8280,1905
8281,1901
8282,1893
8283,1888
8284,1887
8285,1882
8286,1876
8287,1873
8288,1872
8289,1872
8290,1871
8291,1870
8292,1871
8293,1870
8294,1870
8295,1868
8296,1867
8297,1866
8298,1867
8299,1867
8300,1864
8301,1863
8302,1862
8303,1860
8304,1851
8305,1855
8306,1295
8307,1794
8308,1926
8309,1923
8310,1918
8311,1907
8312,1902
8313,1895
8314,1889
8315,1885
8316,1882
8317,1878
8318,1871
8319,1874
8320,1872
8321,1871
8322,1870
8323,1867
8324,1870
8325,1867
8326,1869
8327,1867
8328,1862
8329,1865
8330,1862
8331,1863
8332,1866
8333,1864
8334,1858
8335,1855
8336,1857
8337,1701
8338,1732
8339,1930
8340,1920
8341,1920
8342,1904
8343,1904
8344,1899
8345,1895
8346,1889
8347,1885
8348,1882
8349,1877
8350,1875
8351,1872
8352,1872
8353,1872
8354,1869
8355,1871
8356,1869
8357,1869
8358,1865
8359,1866
8360,1867
8361,1866
8362,1863
8363,1866
8364,1857
8365,1856
8366,1856
8367,1856
8368,1856
8369,1520
8370,1926
8371,1933
8372,1925
8373,1914
8374,1907
8375,1898
8376,1894
8377,1888
8378,1885
8379,1879
8380,1877
8381,1875
8382,1874
8383,1872
8384,1872
8385,1870
8386,1869
8387,1869
8388,1862
8389,1869
8390,1866
8391,1865
8392,1863
8393,1863
8394,1856
8395,1856
8396,1856
8397,1856
8398,1854
8399,1858
8400,1289
8401,1920
8402,1937
8403,1927
8404,1920
8405,1909
8406,1904
8407,1899
8408,1891
8409,1885
8410,1883
8411,1878
8412,1874
8413,1873
8414,1872
8415,1871
8416,1870
8417,1867
8418,1867
8419,1867
8420,1866
8421,1865
8422,1863
8423,1862
8424,1856
8425,1856
8426,1856
8427,1855
8428,1855
8429,1862
8430,1863
8431,1034
8432,1902
8433,1945
8434,1933
8435,1922
8436,1913
8437,1906
8438,1901
8439,1895
8440,1889
8441,1883
8442,1875
8443,1876
8444,1877
8445,1872
8446,1872
8447,1872
8448,1868
8449,1871
8450,1869
8451,1865
8452,1863
8453,1865
8454,1859
8455,1858
8456,1857
8457,1855
8458,1856
8459,1856
8460,1855
8461,1855
8462,893
8463,1859
8464,1948
8465,1939
8466,1927
8467,1917
8468,1907
8469,1903
8470,1898
8471,1893
8472,1887
8473,1883
8474,1879
8475,1874
8476,1873
8477,1872
8478,1872
8479,1872
8480,1869
8481,1870
8482,1866
8483,1865
8484,1858
8485,1858
8486,1856
8487,1857
8488,1857
8489,1862
8490,1862
8491,1862
8492,1861
8493,1121
8494,1788
8495,1950
8496,1945
8497,1932
8498,1920
8499,1911
8500,1904
8501,1899
8502,1893
8503,1887
8504,1883
8505,1879
8506,1878
8507,1872
8508,1872
8509,1872
8510,1872
8511,1867
8512,1869
8513,1864
8514,1859
8515,1858
8516,1858
8517,1855
8518,1858
8519,1862
8520,1861
8521,1863
8522,1862
8523,1862
8524,1796
8525,1651
8526,1949
8527,1949
8528,1936
8529,1924
8530,1917
8531,1905
8532,1901
8533,1894
8534,1891
8535,1885
8536,1882
8537,1878
8538,1875
8539,1872
8540,1872
8541,1872
8542,1870
8543,1862
8544,1860
8545,1857
8546,1858
8547,1856
8548,1859
8549,1859
8550,1856
8551,1855
8552,1856
8553,1860
8554,1861
8555,1859
8556,1456
8557,1942
8558,1951
8559,1938
8560,1927
8561,1918
8562,1909
8563,1903
8564,1897
8565,1891
8566,1886
8567,1883
8568,1879
8569,1876
8570,1874
8571,1873
8572,1872
8573,1870
8574,1865
8575,1860
8576,1859
8577,1859
8578,1857
8579,1863
8580,1864
8581,1863
8582,1863
8583,1862
8584,1861
8585,1862
8586,1861
8587,1295
8588,1931
8589,1951
8590,1938
8591,1929
8592,1919
8593,1906
8594,1903
8595,1899
8596,1894
8597,1885
8598,1885
8599,1878
8600,1875
8601,1874
8602,1872
8603,1870
8604,1863
8605,1860
8606,1861
8607,1859
8608,1857
8609,1866
8610,1862
8611,1861
8612,1862
8613,1862
8614,1862
8615,1860
8616,1862
8617,1865
8618,1005
8619,1903
8620,1951
8621,1937
8622,1929
8623,1919
8624,1910
8625,1903
8626,1897
8627,1891
8628,1887
8629,1883
8630,1882
8631,1875
8632,1876
8633,1872
8634,1870
8635,1863
8636,1861
8637,1862
8638,1862
8639,1859
8640,1857
8641,1863
8642,1865
8643,1863
8644,1863
8645,1862
8646,1865
8647,1862
8648,1865
8649,846
8650,1861
8651,1953
8652,1942
8653,1936
8654,1920
8655,1910
8656,1905
8657,1901
8658,1894
8659,1888
8660,1885
8661,1882
8662,1879
8663,1874
8664,1871
8665,1866
8666,1867
8667,1862
8668,1860
8669,1858
8670,1856
8671,1863
8672,1862
8673,1862
8674,1863
8675,1861
8676,1863
8677,1859
8678,1862
8679,1861
8680,1088
8681,1783
8682,1955
8683,1947
8684,1936
8685,1925
8686,1917
8687,1909
8688,1902
8689,1895
8690,1888
8691,1885
8692,1878
8693,1877
8694,1872
8695,1866
8696,1866
8697,1865
8698,1863
8699,1870
8700,1866
8701,1865
8702,1866
8703,1863
8704,1862
8705,1863
8706,1862
8707,1861
8708,1861
8709,1861
8710,1858
8711,1791
8712,1648
8713,1950
8714,1950
8715,1936
8716,1924
8717,1917
8718,1902
8719,1903
8720,1894
8721,1890
8722,1886
8723,1882
8724,1874
8725,1870
8726,1871
8727,1863
8728,1862
8729,1862
8730,1859
8731,1866
8732,1867
8733,1865
8734,1864
8735,1863
8736,1862
8737,1865
8738,1865
8739,1866
8740,1867
8741,1862
8742,1856
8743,1431
8744,1948
8745,1955
8746,1938
8747,1930
8748,1919
8749,1909
8750,1904
8751,1894
8752,1891
8753,1887
8754,1879
8755,1873
8756,1872
8757,1869
8758,1867
8759,1863
8760,1862
8761,1868
8762,1867
8763,1867
8764,1865
8765,1863
8766,1867
8767,1866
8768,1865
8769,1860
8770,1862
8771,1863
8772,1862
8773,1861
8774,1195
8775,1927
8776,1957
8777,1940
8778,1930
8779,1921
8780,1908
8781,1904
8782,1902
8783,1890
8784,1885
8785,1878
8786,1872
8787,1872
8788,1867
8789,1872
8790,1872
8791,1870
8792,1870
8793,1867
8794,1866
8795,1867
8796,1865
8797,1865
8798,1865
8799,1867
8800,1866
8801,1863
8802,1863
8803,1862
8804,1861
8805,1860
8806,1861
8807,1861
8808,1860
8809,1861
8810,1862
8811,1861
8812,1862
8813,1861
8814,1854
8815,1855
8816,1854
8817,1855
8818,1856
8819,1859
8820,1858
8821,1859
8822,1862
8823,1859
8824,1862
8825,1861
8826,1861
8827,1861
8828,1863
8829,1861
8830,1862
8831,1862
8832,1861
8833,1861
8834,1859
8835,1859
8836,1860
8837,1861
8838,1861
8839,1860
8840,1860
8841,1857
8842,1853
8843,1855
8844,1856
8845,1855
8846,1855
8847,1854
8848,1854
8849,1855
8850,1855
8851,1852
8852,1854
8853,1858
8854,1859
8855,1857
8856,1858
8857,1859
8858,1863
8859,1859
8860,1859
8861,1861
8862,1863
8863,1861
8864,1861
8865,1862
8866,1859
8867,1861
8868,1862
8869,1861
8870,1863
8871,1861
8872,1861
8873,1863
8874,1856
8875,1856
8876,1855
8877,1856
8878,1856
8879,1861
8880,1861
8881,1863
8882,1866
8883,1861
8884,1863
8885,1862
8886,1861
8887,1861
8888,1862
8889,1861
8890,1859
8891,1861
8892,1862
8893,1863
8894,1861
8895,1862
8896,1859
8897,1861
8898,1863
8899,1861
8900,1862
8901,1864
8902,1862
8903,1862
8904,1855
8905,1855
8906,1855
8907,1856
8908,1856
8909,1860
8910,1860
8911,1860
8912,1859
8913,1860
8914,1861
8915,1860
8916,1863
8917,1862
8918,1856
8919,1862
8920,1861
8921,1862
8922,1859
8923,1860
8924,1859
8925,1863
8926,1861
8927,1865
8928,1861
8929,1860
8930,1862
8931,1863
8932,1862
8933,1861
8934,1853
8935,1856
8936,1855
8937,1854
8938,1855
8939,1855
8940,1854
8941,1858
8942,1856
8943,1861
8944,1860
8945,1863
8946,1858
8947,1859
8948,1862
8949,1859
8950,1862
8951,1858
8952,1863
8953,1863
8954,1859
8955,1861
8956,1862
8957,1861
8958,1861
8959,1860
8960,1861
8961,1861
8962,1859
8963,1862
8964,1858
8965,1853
8966,1855
8967,1855
8968,1853
8969,1855
8970,1862
8971,1860
8972,1862
8973,1860
8974,1859
8975,1862
8976,1861
8977,1860
8978,1862
8979,1863
8980,1863
8981,1861
8982,1863
8983,1862
8984,1862
8985,1862
8986,1859
8987,1862
8988,1860
8989,1862
8990,1861
8991,1861
8992,1861
8993,1860
8994,1854
8995,1855
8996,1855
8997,1856
8998,1855
8999,1859
9000,1858
9001,1859
9002,1858
9003,1862
9004,1859
9005,1861
9006,1862
9007,1859
9008,1860
9009,1860
9010,1862
9011,1859
9012,1858
9013,1859
9014,1861
9015,1862
9016,1856
9017,1859
9018,1862
9019,1860
9020,1860
9021,1858
9022,1858
9023,1861
9024,1856
9025,1855
9026,1855
9027,1854
9028,1856
9029,1854
9030,1855
9031,1861
9032,1858
9033,1859
9034,1859
9035,1861
9036,1861
9037,1861
9038,1861
9039,1863
9040,1863
9041,1861
9042,1856
9043,1862
9044,1863
9045,1860
9046,1861
9047,1863
9048,1861
9049,1862
9050,1859
9051,1861
9052,1863
9053,1861
9054,1855
9055,1853
9056,1855
9057,1856
9058,1856
9059,1854
9060,1862
9061,1861
9062,1861
9063,1859
9064,1859
9065,1859
9066,1862
9067,1861
9068,1861
9069,1862
9070,1866
9071,1861
9072,1862
9073,1861
9074,1863
9075,1863
9076,1860
9077,1861
9078,1861
9079,1860
9080,1863
9081,1859
9082,1863
9083,1857
9084,1855
9085,1855
9086,1857
9087,1856
9088,1856
9089,1862
9090,1862
9091,1858
9092,1859
9093,1861
9094,1859
9095,1860
9096,1859
9097,1861
9098,1862
9099,1859
9100,1862
9101,1861
9102,1859
9103,1860
9104,1861
9105,1859
9106,1859
9107,1861
9108,1861
9109,1859
9110,1859
9111,1860
9112,1861
9113,1859
9114,1855
9115,1855
9116,1853
9117,1855
9118,1855
9119,1855
9120,1853
9121,1859
9122,1858
9123,1861
9124,1861
9125,1861
9126,1863
9127,1862
9128,1862
9129,1863
9130,1862
9131,1861
9132,1862
9133,1863
9134,1859
9135,1859
9136,1859
9137,1863
9138,1860
9139,1861
9140,1861
9141,1857
9142,1855
9143,1856
9144,1856
9145,1855
9146,1855
9147,1854
9148,1856
9149,1856
9150,1857
9151,1859
9152,1861
9153,1860
9154,1861
9155,1862
9156,1866
9157,1864
9158,1860
9159,1862
9160,1861
9161,1859
9162,1862
9163,1863
9164,1863
9165,1861
9166,1860
9167,1862
9168,1867
9169,1861
9170,1861
9171,1862
9172,1862
9173,1861
9174,1856
9175,1856
9176,1856
9177,1855
9178,1856
9179,1861
9180,1861
9181,1859
9182,1863
9183,1863
9184,1859
9185,1864
9186,1862
9187,1861
9188,1859
9189,1860
9190,1862
9191,1861
9192,1858
9193,1858
9194,1862
9195,1861
9196,1861
9197,1861
9198,1858
9199,1861
9200,1863
9201,1861
9202,1862
9203,1859
9204,1856
9205,1851
9206,1856
9207,1855
9208,1854
9209,1859
9210,1858
9211,1860
9212,1859
9213,1859
9214,1861
9215,1858
9216,1859
9217,1858
9218,1859
9219,1858
9220,1861
9221,1860
9222,1860
9223,1862
9224,1862
9225,1862
9226,1862
9227,1862
9228,1859
9229,1861
9230,1862
9231,1862
9232,1857
9233,1862
9234,1857
9235,1856
9236,1854
9237,1855
9238,1856
9239,1853
9240,1855
9241,1858
9242,1854
9243,1861
9244,1859
9245,1863
9246,1859
9247,1859
9248,1861
9249,1861
9250,1859
9251,1862
9252,1861
9253,1861
9254,1863
9255,1862
9256,1859
9257,1863
9258,1861
9259,1861
9260,1863
9261,1861
9262,1862
9263,1861
9264,1855
9265,1856
9266,1855
9267,1853
9268,1855
9269,1854
9270,1859
9271,1859
9272,1861
9273,1859
9274,1860
9275,1859
9276,1862
9277,1861
9278,1859
9279,1860
9280,1861
9281,1862
9282,1861
9283,1863
9284,1861
9285,1861
9286,1861
9287,1862
9288,1859
9289,1863
9290,1861
9291,1865
9292,1862
9293,1861
9294,1857
9295,1856
9296,1855
9297,1855
9298,1855
9299,1859
9300,1859
9301,1861
9302,1863
9303,1861
9304,1859
9305,1861
9306,1861
9307,1862
9308,1861
9309,1860
9310,1861
9311,1859
9312,1858
9313,1861
9314,1862
9315,1861
9316,1862
9317,1860
9318,1862
9319,1861
9320,1861
9321,1861
9322,1861
9323,1863
9324,1858
9325,1855
9326,1856
9327,1855
9328,1855
9329,1854
9330,1854
9331,1859
9332,1860
9333,1859
9334,1861
9335,1862
9336,1863
9337,1860
9338,1862
9339,1861
9340,1861
9341,1856
9342,1859
9343,1860
9344,1860
9345,1861
9346,1862
9347,1861
9348,1858
9349,1859
9350,1862
9351,1862
9352,1862
9353,1859
9354,1859
9355,1855
9356,1855
9357,1856
9358,1856
9359,1856
9360,1859
9361,1862
9362,1860
9363,1861
9364,1861
9365,1861
9366,1861
9367,1861
9368,1862
9369,1861
9370,1861
9371,1863
9372,1858
9373,1861
9374,1863
9375,1862
9376,1860
9377,1861
9378,1860
9379,1859
9380,1859
9381,1862
9382,1862
9383,1863
9384,1856
9385,1851
9386,1855
9387,1856
9388,1854
9389,1861
9390,1862
9391,1859
9392,1859
9393,1861
9394,1860
9395,1863
9396,1866
9397,1859
9398,1862
9399,1862
9400,1860
9401,1861
9402,1859
9403,1858
9404,1863
9405,1859
9406,1859
9407,1863
9408,1861
9409,1859
9410,1859
9411,1857
9412,1861
9413,1859
9414,1855
9415,1856
9416,1854
9417,1853
9418,1854
9419,1853
9420,1851
9421,1858
9422,1861
9423,1862
9424,1861
9425,1860
9426,1862
9427,1861
9428,1859
9429,1859
9430,1865
9431,1863
9432,1863
9433,1860
9434,1862
9435,1863
9436,1862
9437,1861
9438,1863
9439,1861
9440,1865
9441,1857
9442,1855
9443,1856
9444,1854
9445,1853
9446,1853
9447,1854
9448,1854
9449,1855
9450,1854
9451,1859
9452,1859
9453,1861
9454,1861
9455,1862
9456,1861
9457,1863
9458,1861
9459,1863
9460,1861
9461,1859
9462,1859
9463,1861
9464,1861
9465,1859
9466,1858
9467,1862
9468,1861
9469,1862
9470,1859
9471,1863
9472,1860
9473,1860
9474,1858
9475,1856
9476,1856
9477,1856
9478,1855
9479,1862
9480,1859
9481,1860
9482,1862
9483,1859
9484,1861
9485,1863
9486,1862
9487,1861
9488,1861
9489,1865
9490,1861
9491,1862
9492,1859
9493,1862
9494,1860
9495,1861
9496,1856
9497,1861
9498,1860
9499,1861
9500,1861
9501,1861
9502,1863
9503,1858
9504,1857
9505,1855
9506,1854
9507,1854
9508,1854
9509,1859
9510,1857
9511,1860
9512,1858
9513,1861
9514,1861
9515,1861
9516,1857
9517,1861
9518,1859
9519,1857
9520,1862
9521,1862
9522,1859
9523,1860
9524,1861
9525,1861
9526,1861
9527,1862
9528,1861
9529,1861
9530,1862
9531,1862
9532,1862
9533,1859
9534,1855
9535,1855
9536,1855
9537,1856
9538,1856
9539,1854
9540,1855
9541,1859
9542,1853
9543,1859
9544,1862
9545,1863
9546,1860
9547,1859
9548,1862
9549,1862
9550,1861
9551,1866
9552,1859
9553,1861
9554,1861
9555,1862
9556,1862
9557,1862
9558,1861
9559,1859
9560,1861
9561,1863
9562,1861
9563,1861
9564,1859
9565,1857
9566,1856
9567,1857
9568,1856
9569,1857
9570,1854
9571,1855
9572,1857
9573,1856
9574,1859
9575,1860
9576,1859
9577,1859
9578,1861
9579,1863
9580,1862
9581,1862
9582,1861
9583,1861
9584,1859
9585,1861
9586,1861
9587,1861
9588,1863
9589,1862
9590,1861
9591,1861
9592,1862
9593,1862
9594,1863
9595,1855
9596,1854
9597,1855
9598,1855
9599,1860
9600,1859
9601,1861
9602,1861
9603,1862
9604,1862
9605,1860
9606,1859
9607,1861
9608,1859
9609,1861
9610,1857
9611,1861
9612,1858
9613,1859
9614,1861
9615,1861
9616,1861
9617,1858
9618,1861
9619,1853
9620,1856
9621,1855
9622,1854
9623,1855
9624,1856
9625,1853
9626,1855
9627,1855
9628,1855
9629,1855
9630,1852
9631,1861
9632,1856
9633,1860
9634,1862
9635,1861
9636,1861
9637,1863
9638,1861
9639,1863
9640,1862
9641,1861
9642,1863
9643,1862
9644,1861
9645,1859
9646,1863
9647,1861
9648,1862
9649,1862
9650,1861
9651,1863
9652,1862
9653,1863
9654,1860
9655,1855
9656,1856
9657,1855
9658,1856
9659,1853
9660,1855
9661,1859
9662,1859
9663,1859
9664,1858
9665,1861
9666,1860
9667,1860
9668,1863
9669,1858
9670,1861
9671,1862
9672,1862
9673,1858
9674,1861
9675,1865
9676,1862
9677,1859
9678,1863
9679,1863
9680,1859
9681,1861
9682,1863
9683,1862
9684,1860
9685,1856
9686,1855
9687,1855
9688,1856
9689,1861
9690,1861
9691,1860
9692,1861
9693,1861
9694,1861
9695,1861
9696,1859
9697,1863
9698,1863
9699,1859
9700,1861
9701,1862
9702,1860
9703,1858
9704,1863
9705,1859
9706,1861
9707,1862
9708,1861
9709,1859
9710,1859
9711,1859
9712,1860
9713,1858
9714,1861
9715,1854
9716,1854
9717,1854
9718,1856
9719,1854
9720,1853
9721,1858
9722,1858
9723,1861
9724,1859
9725,1862
9726,1862
9727,1861
9728,1859
9729,1861
9730,1861
9731,1862
9732,1863
9733,1860
9734,1862
9735,1862
9736,1861
9737,1859
9738,1863
9739,1863
9740,1861
9741,1856
9742,1856
9743,1855
9744,1856
9745,1856
9746,1854
9747,1855
9748,1856
9749,1854
9750,1860
9751,1861
9752,1859
9753,1861
9754,1859
9755,1858
9756,1862
9757,1859
9758,1862
9759,1865
9760,1861
9761,1863
9762,1861
9763,1861
9764,1861
9765,1861
9766,1861
9767,1861
9768,1861
9769,1862
9770,1861
9771,1862
9772,1861
9773,1862
9774,1863
9775,1856
9776,1856
9777,1853
9778,1857
9779,1858
9780,1858
9781,1860
9782,1860
9783,1860
9784,1860
9785,1860
9786,1860
9787,1861
9788,1861
9789,1861
9790,1861
9791,1859
9792,1863
9793,1862
9794,1862
9795,1862
9796,1861
9797,1861
9798,1861
9799,1861
9800,1859
9801,1859
9802,1409
9803,1896
9804,1907
9805,1899
9806,1890
9807,1886
9808,1882
9809,1880
9810,1876
9811,1872
9812,1875
9813,1872
9814,1870
9815,1870
9816,1868
9817,1866
9818,1867
9819,1865
9820,1865
9821,1865
9822,1865
9823,1865
9824,1863
9825,1865
9826,1862
9827,1861
9828,1865
9829,1863
9830,1865
9831,1863
9832,1859
9833,1197
9834,1887
9835,1915
9836,1907
9837,1902
9838,1898
9839,1887
9840,1882
9841,1882
9842,1875
9843,1875
9844,1874
9845,1872
9846,1872
9847,1871
9848,1870
9849,1870
9850,1869
9851,1867
9852,1868
9853,1866
9854,1869
9855,1866
9856,1863
9857,1863
9858,1861
9859,1863
9860,1863
9861,1859
9862,1863
9863,1862
9864,1200
9865,1840
9866,1918
9867,1910
9868,1904
9869,1897
9870,1893
9871,1891
9872,1883
9873,1883
9874,1877
9875,1875
9876,1874
9877,1872
9878,1871
9879,1869
9880,1871
9881,1870
9882,1871
9883,1867
9884,1863
9885,1868
9886,1865
9887,1862
9888,1862
9889,1865
9890,1862
9891,1865
9892,1865
9893,1865
9894,1861
9895,1463
9896,1783
9897,1921
9898,1920
9899,1919
9900,1907
9901,1903
9902,1897
9903,1888
9904,1886
9905,1879
9906,1877
9907,1874
9908,1872
9909,1872
9910,1872
9911,1870
9912,1870
9913,1867
9914,1867
9915,1863
9916,1865
9917,1863
9918,1856
9919,1862
9920,1863
9921,1863
9922,1861
9923,1861
9924,1860
9925,1855
9926,1855
9927,1661
9928,1925
9929,1920
9930,1911
9931,1910
9932,1906
9933,1897
9934,1891
9935,1887
9936,1881
9937,1879
9938,1876
9939,1873
9940,1871
9941,1872
9942,1862
9943,1872
9944,1869
9945,1867
9946,1867
9947,1867
9948,1866
9949,1865
9950,1861
9951,1862
9952,1862
9953,1863
9954,1860
9955,1856
9956,1856
9957,1856
9958,1406
9959,1917
9960,1925
9961,1922
9962,1911
9963,1905
9964,1903
9965,1894
9966,1891
9967,1887
9968,1881
9969,1878
9970,1875
9971,1875
9972,1872
9973,1872
9974,1871
9975,1869
9976,1869
9977,1869
9978,1867
9979,1867
9980,1862
9981,1863
9982,1863
9983,1863
9984,1871
9985,1861
9986,1856
9987,1855
9988,1856
9989,1155
9990,1905
9991,1937
9992,1930
9993,1919
9994,1910
9995,1903
9996,1899
9997,1892
9998,1887
9999,1883
10000,1881
10001,1875
10002,1873
10003,1872
10004,1872
10005,1870
10006,1871
10007,1868
10008,1866
10009,1866
10010,1863
10011,1865
10012,1862
10013,1865
10014,1859
10015,1855
10016,1843
10017,1854
10018,1856
10019,1856
10020,1000
10021,1887
10022,1939
10023,1929
10024,1920
10025,1914
10026,1904
10027,1901
10028,1890
10029,1887
10030,1884
10031,1881
10032,1875
10033,1874
10034,1873
10035,1872
10036,1872
10037,1871
10038,1870
10039,1871
10040,1867
10041,1868
10042,1857
10043,1855
10044,1856
10045,1859
10046,1857
10047,1856
10048,1856
10049,1856
10050,1856
10051,1041
10052,1823
10053,1938
10054,1936
10055,1926
10056,1915
10057,1906
10058,1901
10059,1893
10060,1890
10061,1886
10062,1879
10063,1878
10064,1874
10065,1873
10066,1872
10067,1872
10068,1872
10069,1869
10070,1869
10071,1867
10072,1863
10073,1866
10074,1861
10075,1857
10076,1856
10077,1857
10078,1857
10079,1863
10080,1863
10081,1866
10082,1633
10083,1732
10084,1939
10085,1938
10086,1925
10087,1918
10088,1911
10089,1903
10090,1898
10091,1891
10092,1887
10093,1882
10094,1882
10095,1874
10096,1873
10097,1872
10098,1872
10099,1872
10100,1870
10101,1867
10102,1869
10103,1865
10104,1863
10105,1856
10106,1856
10107,1857
10108,1857
10109,1859
10110,1861
10111,1862
10112,1858
10113,1860
10114,1572
10115,1936
10116,1938
10117,1927
10118,1919
10119,1909
10120,1904
10121,1898
10122,1892
10123,1886
10124,1883
10125,1882
10126,1877
10127,1874
10128,1872
10129,1872
10130,1872
10131,1870
10132,1870
10133,1868
10134,1865
10135,1860
10136,1858
10137,1856
10138,1859
10139,1856
10140,1855
10141,1861
10142,1855
10143,1862
10144,1860
10145,1341
10146,1929
10147,1940
10148,1935
10149,1922
10150,1915
10151,1904
10152,1901
10153,1893
10154,1887
10155,1883
10156,1881
10157,1877
10158,1875
10159,1874
10160,1872
10161,1872
10162,1870
10163,1871
10164,1872
10165,1859
10166,1857
10167,1859
10168,1858
10169,1857
10170,1856
10171,1861
10172,1862
10173,1861
10174,1861
10175,1861
10176,1087
10177,1914
10178,1947
10179,1935
10180,1927
10181,1915
10182,1909
10183,1904
10184,1897
10185,1887
10186,1886
10187,1882
10188,1877
10189,1876
10190,1873
10191,1872
10192,1872
10193,1871
10194,1870
10195,1861
10196,1860
10197,1858
10198,1859
10199,1861
10200,1862
10201,1861
10202,1863
10203,1861
10204,1860
10205,1862
10206,1861
10207,899
10208,1873
10209,1947
10210,1938
10211,1926
10212,1919
10213,1908
10214,1903
10215,1897
10216,1889
10217,1886
10218,1881
10219,1876
10220,1875
10221,1872
10222,1872
10223,1871
10224,1865
10225,1860
10226,1859
10227,1858
10228,1858
10229,1857
10230,1856
10231,1862
10232,1865
10233,1863
10234,1863
10235,1860
10236,1862
10237,1863
10238,975
10239,1815
10240,1954
10241,1939
10242,1922
10243,1920
10244,1911
10245,1905
10246,1903
10247,1892
10248,1888
10249,1886
10250,1879
10251,1875
10252,1873
10253,1872
10254,1872
10255,1865
10256,1860
10257,1863
10258,1859
10259,1857
10260,1857
10261,1863
10262,1867
10263,1865
10264,1862
10265,1865
10266,1862
10267,1863
10268,1861
10269,1599
10270,1715
10271,1949
10272,1946
10273,1933
10274,1920
10275,1915
10276,1905
10277,1901
10278,1895
10279,1889
10280,1883
10281,1881
10282,1878
10283,1875
10284,1872
10285,1863
10286,1865
10287,1862
10288,1862
10289,1866
10290,1869
10291,1866
10292,1865
10293,1863
10294,1865
10295,1865
10296,1863
10297,1862
10298,1862
10299,1863
10300,1862
10301,1535
10302,1941
10303,1943
10304,1934
10305,1922
10306,1914
10307,1904
10308,1898
10309,1895
10310,1885
10311,1885
10312,1879
10313,1876
10314,1873
10315,1867
10316,1866
10317,1861
10318,1862
10319,1858
10320,1858
10321,1866
10322,1863
10323,1863
10324,1862
10325,1863
10326,1864
10327,1863
10328,1861
10329,1863
10330,1859
10331,1863
10332,1317
10333,1935
10334,1950
10335,1936
10336,1925
10337,1915
10338,1906
10339,1904
10340,1895
10341,1887
10342,1877
10343,1874
10344,1871
10345,1871
10346,1866
10347,1865
10348,1866
10349,1862
10350,1858
10351,1866
10352,1866
10353,1866
10354,1863
10355,1871
10356,1865
10357,1866
10358,1866
10359,1861
10360,1859
10361,1861
10362,1863
10363,1148
10364,1920
10365,1951
10366,1937
10367,1925
10368,1917
10369,1909
10370,1904
10371,1898
10372,1889
10373,1887
10374,1883
10375,1872
10376,1871
10377,1869
10378,1866
10379,1863
10380,1867
10381,1871
10382,1865
10383,1867
10384,1866
10385,1862
10386,1865
10387,1862
10388,1866
10389,1865
10390,1863
10391,1861
10392,1861
10393,1863
10394,894
10395,1877
10396,1950
10397,1940
10398,1931
10399,1920
10400,1911
10401,1904
10402,1898
10403,1889
10404,1878
10405,1875
10406,1872
10407,1872
10408,1870
10409,1871
10410,1871
10411,1869
10412,1867
10413,1869
10414,1865
10415,1867
10416,1870
10417,1867
10418,1866
10419,1863
10420,1859
10421,1863
10422,1862
10423,1867
10424,1859
10425,1862
10426,1862
10427,1861
10428,1862
10429,1861
10430,1861
10431,1863
10432,1863
10433,1862
10434,1866
10435,1856
10436,1855
10437,1855
10438,1856
10439,1856
10440,1856
10441,1857
10442,1854
10443,1859
10444,1859
10445,1860
10446,1856
10447,1862
10448,1861
10449,1861
10450,1861
10451,1865
10452,1862
10453,1863
10454,1861
10455,1862
10456,1861
10457,1861
10458,1862
10459,1863
10460,1862
10461,1859
10462,1861
10463,1859
10464,1862
10465,1855
10466,1856
10467,1858
10468,1856
10469,1854
10470,1855
10471,1859
10472,1861
10473,1861
10474,1863
10475,1863
10476,1861
10477,1862
10478,1865
10479,1861
10480,1860
10481,1861
10482,1862
10483,1866
10484,1860
10485,1862
10486,1861
10487,1863
10488,1863
10489,1859
10490,1868
10491,1859
10492,1863
10493,1861
10494,1861
10495,1855
10496,1855
10497,1855
10498,1858
10499,1859
10500,1860
10501,1862
10502,1861
10503,1855
10504,1858
10505,1859
10506,1859
10507,1859
10508,1859
10509,1860
10510,1857
10511,1859
10512,1857
10513,1861
10514,1858
10515,1859
10516,1862
10517,1859
10518,1859
10519,1860
10520,1862
10521,1861
10522,1863
10523,1859
10524,1859
10525,1855
10526,1855
10527,1856
10528,1856
10529,1855
10530,1855
10531,1858
10532,1861
10533,1858
10534,1858
10535,1862
10536,1863
10537,1860
10538,1861
10539,1860
10540,1863
10541,1859
10542,1859
10543,1860
10544,1862
10545,1858
10546,1861
10547,1862
10548,1860
10549,1859
10550,1861
10551,1861
10552,1861
10553,1861
10554,1862
10555,1853
10556,1857
10557,1856
10558,1856
10559,1854
10560,1857
10561,1861
10562,1861
10563,1862
10564,1863
10565,1862
10566,1859
10567,1866
10568,1861
10569,1861
10570,1862
10571,1862
10572,1861
10573,1861
10574,1861
10575,1859
10576,1861
10577,1862
10578,1860
10579,1863
10580,1860
10581,1861
10582,1862
10583,1861
10584,1859
10585,1856
10586,1855
10587,1854
10588,1856
10589,1859
10590,1859
10591,1863
10592,1859
10593,1860
10594,1862
10595,1862
10596,1863
10597,1861
10598,1860
10599,1859
10600,1862
10601,1860
10602,1862
10603,1862
10604,1861
10605,1861
10606,1859
10607,1859
10608,1859
10609,1860
10610,1860
10611,1860
10612,1859
10613,1860
10614,1860
10615,1854
10616,1853
10617,1855
10618,1855
10619,1857
10620,1860
10621,1859
10622,1859
10623,1862
10624,1859
10625,1863
10626,1861
10627,1859
10628,1861
10629,1861
10630,1862
10631,1862
10632,1862
10633,1861
10634,1861
10635,1862
10636,1860
10637,1861
10638,1865
10639,1859
10640,1861
10641,1860
10642,1851
10643,1855
10644,1854
10645,1855
10646,1855
10647,1856
10648,1855
10649,1853
10650,1853
10651,1854
10652,1853
10653,1859
10654,1862
10655,1861
10656,1860
10657,1861
10658,1860
10659,1861
10660,1860
10661,1862
10662,1861
10663,1862
10664,1861
10665,1863
10666,1863
10667,1862
10668,1861
10669,1863
10670,1863
10671,1865
10672,1861
10673,1863
10674,1859
10675,1856
10676,1855
10677,1856
10678,1856
10679,1863
10680,1861
10681,1863
10682,1862
10683,1857
10684,1859
10685,1860
10686,1859
10687,1861
10688,1860
10689,1862
10690,1862
10691,1862
10692,1861
10693,1860
10694,1861
10695,1862
10696,1861
10697,1861
10698,1861
10699,1861
10700,1861
10701,1861
10702,1861
10703,1862
10704,1859
10705,1856
10706,1855
10707,1854
10708,1854
10709,1861
10710,1857
10711,1858
10712,1860
10713,1861
10714,1859
10715,1858
10716,1859
10717,1862
10718,1856
10719,1862
10720,1859
10721,1861
10722,1858
10723,1859
10724,1859
10725,1861
10726,1859
10727,1861
10728,1859
10729,1861
10730,1859
10731,1861
10732,1862
10733,1859
10734,1856
10735,1854
10736,1856
10737,1855
10738,1856
10739,1853
10740,1851
10741,1856
10742,1856
10743,1858
10744,1860
10745,1861
10746,1859
10747,1860
10748,1861
10749,1861
10750,1858
10751,1860
10752,1862
10753,1861
10754,1862
10755,1859
10756,1860
10757,1862
10758,1862
10759,1859
10760,1863
10761,1862
10762,1861
10763,1863
10764,1860
10765,1855
10766,1855
10767,1855
10768,1853
10769,1859
10770,1859
10771,1860
10772,1861
10773,1861
10774,1860
10775,1862
10776,1860
10777,1859
10778,1862
10779,1859
10780,1861
10781,1861
10782,1858
10783,1862
10784,1859
10785,1862
10786,1861
10787,1861
10788,1862
10789,1859
10790,1861
10791,1860
10792,1862
10793,1859
10794,1861
10795,1856
10796,1855
10797,1854
10798,1856
10799,1855
10800,1857
10801,1859
10802,1861
10803,1861
10804,1858
10805,1859
10806,1859
10807,1861
10808,1859
10809,1862
10810,1859
10811,1861
10812,1858
10813,1862
10814,1859
10815,1861
10816,1856
10817,1859
10818,1856
10819,1860
10820,1859
10821,1861
10822,1859
10823,1860
10824,1862
10825,1854
10826,1855
10827,1855
10828,1856
10829,1857
10830,1852
10831,1859
10832,1862
10833,1861
10834,1862
10835,1860
10836,1861
10837,1861
10838,1861
10839,1861
10840,1865
10841,1855
10842,1860
10843,1859
10844,1861
10845,1859
10846,1859
10847,1861
10848,1861
10849,1859
10850,1861
10851,1859
10852,1861
10853,1863
10854,1861
10855,1854
10856,1857
10857,1856
10858,1856
10859,1853
10860,1859
10861,1859
10862,1861
10863,1861
10864,1862
10865,1859
10866,1859
10867,1858
10868,1860
10869,1861
10870,1859
10871,1863
10872,1862
10873,1861
10874,1861
10875,1861
10876,1861
10877,1865
10878,1861
10879,1862
10880,1861
10881,1863
10882,1863
10883,1860
10884,1858
10885,1853
10886,1855
10887,1854
10888,1856
10889,1861
10890,1863
10891,1861
10892,1861
10893,1863
10894,1859
10895,1861
10896,1861
10897,1863
10898,1864
10899,1859
10900,1862
10901,1861
10902,1863
10903,1861
10904,1859
10905,1861
10906,1862
10907,1860
10908,1859
10909,1858
10910,1859
10911,1861
10912,1861
10913,1857
10914,1859
10915,1853
10916,1853
10917,1854
10918,1855
10919,1855
10920,1853
10921,1861
10922,1858
10923,1858
10924,1861
10925,1863
10926,1862
10927,1861
10928,1859
10929,1860
10930,1862
10931,1858
10932,1861
10933,1859
10934,1861
10935,1861
10936,1859
10937,1861
10938,1861
10939,1862
10940,1862
10941,1856
10942,1855
10943,1855
10944,1856
10945,1856
10946,1854
10947,1856
10948,1855
10949,1855
10950,1861
10951,1860
10952,1858
10953,1861
10954,1863
10955,1863
10956,1862
10957,1861
10958,1859
10959,1862
10960,1862
10961,1861
10962,1859
10963,1861
10964,1862
10965,1862
10966,1862
10967,1862
10968,1866
10969,1859
10970,1863
10971,1862
10972,1863
10973,1861
10974,1861
10975,1854
10976,1857
10977,1856
10978,1851
10979,1861
10980,1861
10981,1859
10982,1860
10983,1859
10984,1861
10985,1859
10986,1861
10987,1861
10988,1860
10989,1859
10990,1861
10991,1863
10992,1860
10993,1860
10994,1861
10995,1865
10996,1860
10997,1861
10998,1857
10999,1862
11000,1857
11001,1861
11002,1862
11003,1861
11004,1861
11005,1856
11006,1856
11007,1853
11008,1854
11009,1858
11010,1858
11011,1857
11012,1862
11013,1859
11014,1859
11015,1858
11016,1851
11017,1861
11018,1863
11019,1858
11020,1860
11021,1861
11022,1861
11023,1862
11024,1862
11025,1862
11026,1859
11027,1861
11028,1862
11029,1859
11030,1861
11031,1862
11032,1859
11033,1861
11034,1860
11035,1856
11036,1856
11037,1855
11038,1858
11039,1853
11040,1854
11041,1861
11042,1855
11043,1861
11044,1860
11045,1858
11046,1863
11047,1860
11048,1861
11049,1862
11050,1861
11051,1861
11052,1863
11053,1861
11054,1862
11055,1859
11056,1860
11057,1861
11058,1861
11059,1862
11060,1861
11061,1861
11062,1865
11063,1862
11064,1862
11065,1855
11066,1855
11067,1855
11068,1855
11069,1854
11070,1861
11071,1859
11072,1860
11073,1859
11074,1861
11075,1861
11076,1861
11077,1862
11078,1858
11079,1862
11080,1861
11081,1863
11082,1860
11083,1863
11084,1862
11085,1862
11086,1861
11087,1862
11088,1863
11089,1863
11090,1862
11091,1861
11092,1863
11093,1860
11094,1862
11095,1854
11096,1856
11097,1854
11098,1856
11099,1859
11100,1859
11101,1858
11102,1862
11103,1862
11104,1858
11105,1861
11106,1862
11107,1859
11108,1859
11109,1858
11110,1860
11111,1859
11112,1861
11113,1859
11114,1859
11115,1862
11116,1859
11117,1861
11118,1862
11119,1861
11120,1859
11121,1862
11122,1859
11123,1861
11124,1860
11125,1854
11126,1855
11127,1854
11128,1856
11129,1855
11130,1856
11131,1860
11132,1857
11133,1859
11134,1859
11135,1861
11136,1861
11137,1861
11138,1861
11139,1862
11140,1859
11141,1856
11142,1861
11143,1859
11144,1863
11145,1861
11146,1862
11147,1862
11148,1863
11149,1860
11150,1866
11151,1861
11152,1861
11153,1859
11154,1859
11155,1855
11156,1855
11157,1853
11158,1855
11159,1853
11160,1859
11161,1858
11162,1863
11163,1861
11164,1861
11165,1860
11166,1858
11167,1862
11168,1859
11169,1861
11170,1861
11171,1860
11172,1862
11173,1863
11174,1863
11175,1863
11176,1862
11177,1862
11178,1859
11179,1859
11180,1861
11181,1861
11182,1861
11183,1860
11184,1861
11185,1855
11186,1857
11187,1856
11188,1855
11189,1862
11190,1859
11191,1861
11192,1861
11193,1858
11194,1861
11195,1861
11196,1860
11197,1861
11198,1863
11199,1861
11200,1859
11201,1859
11202,1861
11203,1860
11204,1858
11205,1861
11206,1859
11207,1858
11208,1861
11209,1859
11210,1860
11211,1859
11212,1859
11213,1859
11214,1859
11215,1853
11216,1858
11217,1855
11218,1855
11219,1855
11220,1854
11221,1858
11222,1859
11223,1860
11224,1861
11225,1863
11226,1860
11227,1861
11228,1861
11229,1860
11230,1861
11231,1862
11232,1862
11233,1861
11234,1861
11235,1863
11236,1865
11237,1863
11238,1861
11239,1862
11240,1863
11241,1856
11242,1856
11243,1855
11244,1854
11245,1856
11246,1854
11247,1854
11248,1856
11249,1855
11250,1859
11251,1858
11252,1860
11253,1861
11254,1862
11255,1861
11256,1858
11257,1862
11258,1862
11259,1863
11260,1861
11261,1862
11262,1860
11263,1859
11264,1862
11265,1863
11266,1863
11267,1862
11268,1862
11269,1861
11270,1859
11271,1861
11272,1863
11273,1863
11274,1862
11275,1855
11276,1855
11277,1856
11278,1856
11279,1862
11280,1861
11281,1859
11282,1860
11283,1859
11284,1862
11285,1863
11286,1861
11287,1862
11288,1859
11289,1863
11290,1867
11291,1861
11292,1859
11293,1861
11294,1862
11295,1863
11296,1861
11297,1862
11298,1861
11299,1861
11300,1859
11301,1862
11302,1859
11303,1859
11304,1859
11305,1856
11306,1856
11307,1852
11308,1850
11309,1858
11310,1859
11311,1859
11312,1857
11313,1859
11314,1859
11315,1857
11316,1867
11317,1860
11318,1861
11319,1859
11320,1858
11321,1860
11322,1859
11323,1859
11324,1861
11325,1862
11326,1862
11327,1861
11328,1861
11329,1862
11330,1859
11331,1861
11332,1861
11333,1861
11334,1862
11335,1856
11336,1855
11337,1851
11338,1856
11339,1856
11340,1853
11341,1858
11342,1852
11343,1861
11344,1858
11345,1861
11346,1862
11347,1859
11348,1861
11349,1862
11350,1866
11351,1862
11352,1861
11353,1862
11354,1862
11355,1861
11356,1860
11357,1861
11358,1862
11359,1863
11360,1862
11361,1861
11362,1861
11363,1858
11364,1861
11365,1857
11366,1853
11367,1855
11368,1855
11369,1855
11370,1859
11371,1859
11372,1861
11373,1862
11374,1859
11375,1863
11376,1861
11377,1861
11378,1861
11379,1860
11380,1860
11381,1864
11382,1861
11383,1862
11384,1862
11385,1862
11386,1863
11387,1858
11388,1861
11389,1861
11390,1861
11391,1861
11392,1862
11393,1862
11394,1863
11395,1854
11396,1856
11397,1856
11398,1857
11399,1861
11400,1859
11401,1861
11402,1859
11403,1861
11404,1859
11405,1861
11406,1859
11407,1861
11408,1861
11409,1859
11410,1860
11411,1858
11412,1859
11413,1859
11414,1862
11415,1859
11416,1858
11417,1858
11418,1861
11419,1862
11420,1860
11421,1861
11422,1130
11423,1858
11424,1925
11425,1911
11426,1904
11427,1899
11428,1892
11429,1883
11430,1878
11431,1879
11432,1879
11433,1875
11434,1872
11435,1872
11436,1872
11437,1872
11438,1870
11439,1869
11440,1868
11441,1861
11442,1861
11443,1866
11444,1867
11445,1865
11446,1865
11447,1861
11448,1861
11449,1863
11450,1863
11451,1861
11452,1862
11453,1195
11454,1808
11455,1926
11456,1921
11457,1914
11458,1904
11459,1899
11460,1898
11461,1890
11462,1886
11463,1881
11464,1879
11465,1875
11466,1874
11467,1875
11468,1872
11469,1869
11470,1870
11471,1867
11472,1867
11473,1866
11474,1867
11475,1870
11476,1861
11477,1866
11478,1863
11479,1863
11480,1866
11481,1862
11482,1866
11483,1862
11484,1857
11485,1654
11486,1927
11487,1927
11488,1919
11489,1916
11490,1905
11491,1902
11492,1893
11493,1890
11494,1887
11495,1881
11496,1877
11497,1875
11498,1874
11499,1872
11500,1872
11501,1871
11502,1870
11503,1867
11504,1866
11505,1866
11506,1865
11507,1865
11508,1863
11509,1862
11510,1863
11511,1860
11512,1863
11513,1859
11514,1861
11515,1855
11516,1501
11517,1919
11518,1929
11519,1918
11520,1907
11521,1905
11522,1900
11523,1894
11524,1889
11525,1885
11526,1883
11527,1877
11528,1875
11529,1872
11530,1872
11531,1872
11532,1869
11533,1870
11534,1867
11535,1867
11536,1866
11537,1867
11538,1866
11539,1863
11540,1863
11541,1855
11542,1859
11543,1857
11544,1856
11545,1855
11546,1854
11547,1341
11548,1909
11549,1929
11550,1917
11551,1915
11552,1907
11553,1902
11554,1894
11555,1889
11556,1886
11557,1883
11558,1877
11559,1875
11560,1873
11561,1871
11562,1872
11563,1869
11564,1871
11565,1867
11566,1869
11567,1866
11568,1863
11569,1866
11570,1866
11571,1864
11572,1864
11573,1863
11574,1862
11575,1858
11576,1856
11577,1855
11578,1074
11579,1890
11580,1936
11581,1930
11582,1919
11583,1913
11584,1904
11585,1899
11586,1892
11587,1886
11588,1882
11589,1879
11590,1874
11591,1877
11592,1872
11593,1872
11594,1870
11595,1870
11596,1869
11597,1868
11598,1865
11599,1866
11600,1867
11601,1865
11602,1863
11603,1861
11604,1863
11605,1855
11606,1856
11607,1856
11608,1855
11609,959
11610,1843
11611,1939
11612,1936
11613,1926
11614,1915
11615,1905
11616,1901
11617,1893
11618,1889
11619,1886
11620,1881
11621,1875
11622,1874
11623,1872
11624,1872
11625,1872
11626,1869
11627,1870
11628,1867
11629,1866
11630,1866
11631,1865
11632,1866
11633,1868
11634,1863
11635,1858
11636,1857
11637,1856
11638,1856
11639,1856
11640,1040
11641,1808
11642,1949
11643,1945
11644,1933
11645,1921
11646,1911
11647,1904
11648,1903
11649,1892
11650,1888
11651,1885
11652,1881
11653,1879
11654,1874
11655,1875
11656,1872
11657,1871
11658,1870
11659,1868
11660,1870
11661,1866
11662,1867
11663,1865
11664,1866
11665,1856
11666,1857
11667,1858
11668,1857
11669,1856
11670,1856
11671,1742
11672,1653
11673,1950
11674,1950
11675,1936
11676,1926
11677,1919
11678,1908
11679,1903
11680,1896
11681,1891
11682,1888
11683,1883
11684,1879
11685,1877
11686,1872
11687,1872
11688,1872
11689,1872
11690,1870
11691,1868
11692,1867
11693,1863
11694,1866
11695,1858
11696,1857
11697,1858
11698,1858
11699,1861
11700,1862
11701,1862
11702,1859
11703,1443
11704,1942
11705,1953
11706,1937
11707,1927
11708,1920
11709,1908
11710,1904
11711,1898
11712,1890
11713,1887
11714,1881
11715,1877
11716,1874
11717,1874
11718,1867
11719,1872
11720,1871
11721,1870
11722,1870
11723,1867
11724,1865
11725,1857
11726,1857
11727,1857
11728,1857
11729,1855
11730,1854
11731,1861
11732,1859
11733,1863
11734,1200
11735,1933
11736,1956
11737,1941
11738,1933
11739,1920
11740,1915
11741,1904
11742,1891
11743,1895
11744,1887
11745,1886
11746,1879
11747,1878
11748,1875
11749,1873
11750,1872
11751,1872
11752,1870
11753,1871
11754,1867
11755,1857
11756,1857
11757,1857
11758,1857
11759,1857
11760,1855
11761,1856
11762,1854
11763,1862
11764,1861
11765,933
11766,1905
11767,1961
11768,1949
11769,1936
11770,1923
11771,1915
11772,1906
11773,1903
11774,1894
11775,1889
11776,1884
11777,1883
11778,1879
11779,1873
11780,1874
11781,1872
11782,1872
11783,1871
11784,1871
11785,1862
11786,1859
11787,1859
11788,1859
11789,1863
11790,1863
11791,1866
11792,1863
11793,1861
11794,1861
11795,1865
11796,784
11797,1856
11798,1964
11799,1953
11800,1936
11801,1926
11802,1917
11803,1905
11804,1903
11805,1897
11806,1889
11807,1885
11808,1881
11809,1877
11810,1875
11811,1873
11812,1872
11813,1872
11814,1871
11815,1862
11816,1867
11817,1858
11818,1860
11819,1856
11820,1855
11821,1863
11822,1866
11823,1861
11824,1862
11825,1863
11826,1862
11827,1198
11828,1733
11829,1963
11830,1958
11831,1938
11832,1931
11833,1921
11834,1910
11835,1904
11836,1899
11837,1889
11838,1887
11839,1883
11840,1883
11841,1871
11842,1869
11843,1871
11844,1865
11845,1862
11846,1861
11847,1861
11848,1861
11849,1861
11850,1856
11851,1866
11852,1863
11853,1862
11854,1863
11855,1862
11856,1866
11857,1863
11858,1855
11859,1566
11860,1955
11861,1958
11862,1945
11863,1932
11864,1923
11865,1913
11866,1904
11867,1897
11868,1895
11869,1889
11870,1885
11871,1879
11872,1877
11873,1873
11874,1872
11875,1867
11876,1869
11877,1866
11878,1861
11879,1868
11880,1867
11881,1865
11882,1863
11883,1863
11884,1861
11885,1866
11886,1862
11887,1863
11888,1862
11889,1867
11890,1330
11891,1946
11892,1963
11893,1947
11894,1936
11895,1925
11896,1914
11897,1904
11898,1903
11899,1895
11900,1887
11901,1882
11902,1877
11903,1875
11904,1873
11905,1868
11906,1865
11907,1863
11908,1861
11909,1867
11910,1867
11911,1866
11912,1865
11913,1863
11914,1859
11915,1863
11916,1866
11917,1860
11918,1861
