Time(ms),Raw_ADC,ENV_Value,RMS,MDF,MW_Amp,MW_Area,MW_Latency,MW_Valid,Marker
0,1857.3,222.6,0.0,0.0,0.0,0.0,0.0,0,
100,1895.9,394.4,0.0,0.0,1683.0,5992.0,2.0,0,
200,1846.6,94.9,0.0,0.0,1120.0,5643.0,2.0,0,
300,1880.4,171.0,0.0,0.0,1204.0,5759.0,2.0,0,
400,1855.0,182.9,0.0,0.0,1804.0,5943.0,2.0,0,
500,1876.0,25.2,0.0,133.3,1275.0,4939.0,2.0,0,
600,1860.3,14.1,0.0,164.5,1275.0,4939.0,2.0,0,
700,1855.1,14.4,0.0,188.9,1275.0,4939.0,2.0,0,
800,1855.0,28.2,0.0,195.4,1275.0,4939.0,2.0,0,
900,1857.5,23.2,0.0,238.5,1275.0,4939.0,2.0,0,
1000,1846.7,17.5,0.0,239.5,1275.0,4939.0,2.0,0,
1100,1849.2,16.9,0.0,239.3,1275.0,4939.0,2.0,0,
1200,1852.5,14.3,0.0,239.7,1275.0,4939.0,2.0,0,
1300,1855.5,15.0,0.0,240.0,1275.0,4939.0,2.0,0,
1400,1855.5,13.9,0.0,240.2,1275.0,4939.0,2.0,0,
1500,1863.8,66.0,0.0,240.1,717.0,4854.0,5.0,1,
1600,1855.1,133.9,164.4,41.2,1064.0,4049.0,20.0,1,
1700,1869.0,106.3,155.5,37.6,1065.0,4051.0,2.0,0,
1800,1843.3,86.9,127.9,131.7,1019.0,3459.0,2.0,0,
1900,1877.5,78.2,121.2,189.6,912.0,4141.0,2.0,0,
2000,1861.9,197.7,108.9,195.5,1150.0,4326.0,2.0,0,
2100,1835.1,43.7,109.0,220.3,1098.0,3835.0,2.0,0,
2200,1854.0,16.5,108.9,214.9,1098.0,3835.0,2.0,0,
2300,1853.7,13.1,108.9,72.9,1098.0,3835.0,2.0,0,
2400,1857.9,15.5,108.9,35.7,1098.0,3835.0,2.0,0,
2600,1855.0,13.1,108.8,240.0,1098.0,3835.0,2.0,0,
2700,1860.7,13.2,108.9,239.9,1098.0,3835.0,2.0,0,
2800,1861.5,11.7,109.0,240.0,1098.0,3835.0,2.0,0,
2900,1863.6,15.1,109.0,240.2,1098.0,3835.0,2.0,0,
3000,1862.3,13.2,109.1,240.3,1098.0,3835.0,2.0,0,
3100,1855.7,43.5,108.9,240.0,1162.0,5244.0,6.0,1,
3200,1843.5,144.6,107.8,155.1,1272.0,4004.0,26.0,0,
3300,1884.3,83.7,103.1,69.5,881.0,4362.0,8.0,1,
3400,1874.5,64.5,97.5,111.2,1418.0,5022.0,7.0,1,
3600,1857.2,234.9,125.9,108.5,1403.0,4014.0,4.0,1,
3700,1843.1,36.0,128.3,57.5,515.0,2709.0,4.0,1,
3800,1851.7,16.8,128.3,41.4,515.0,2709.0,4.0,1,
3900,1859.8,15.2,128.3,41.8,515.0,2709.0,4.0,1,
4000,1867.2,15.5,128.4,66.1,515.0,2709.0,4.0,1,
4100,1849.4,17.4,128.4,149.2,515.0,2709.0,4.0,1,
4200,1852.7,40.0,128.4,240.3,515.0,2709.0,4.0,1,
4300,1852.4,24.7,128.8,239.4,515.0,2709.0,4.0,1,
4400,1855.9,17.8,128.8,82.8,515.0,2709.0,4.0,1,
4600,1856.0,16.9,128.7,92.4,515.0,2709.0,4.0,1,
4700,1868.2,35.9,128.7,239.5,985.0,5727.0,5.0,1,
4800,1841.2,100.8,131.9,218.4,1062.0,4812.0,5.0,1,
4900,1880.7,98.5,127.7,79.1,1367.0,5203.0,8.0,1,
5000,1844.1,113.2,128.8,102.0,1946.0,7042.0,7.0,1,
5100,1870.5,290.1,131.7,100.2,2329.0,6796.0,2.0,0,
5200,1883.7,355.2,145.7,66.9,3073.0,7982.0,2.0,0,
5300,1847.4,106.0,148.5,72.4,888.0,3902.0,2.0,0,
5400,1844.1,19.9,149.2,130.6,888.0,3902.0,2.0,0,
5600,1857.6,22.9,149.2,132.3,888.0,3902.0,2.0,0,
5700,1863.0,25.8,149.4,78.5,888.0,3902.0,2.0,0,
5800,1846.1,19.0,149.4,238.8,888.0,3902.0,2.0,0,
5900,1855.8,17.2,149.2,238.4,888.0,3902.0,2.0,0,
6000,1855.0,17.6,149.1,239.5,888.0,3902.0,2.0,0,
6100,1856.1,18.7,149.1,239.8,888.0,3902.0,2.0,0,
6200,1856.3,17.2,149.1,240.0,888.0,3902.0,2.0,0,
6300,1861.1,55.4,149.3,240.0,888.0,3902.0,2.0,0,
6400,1839.9,105.6,149.5,238.7,745.0,4119.0,5.0,1,
6600,1866.0,82.9,147.7,90.7,1847.0,7272.0,7.0,1,
6700,1877.1,97.1,145.9,101.0,2096.0,7891.0,7.0,1,
6800,1855.9,93.1,125.4,91.1,2577.0,8830.0,6.0,1,
6900,1850.0,122.9,93.5,82.8,1897.0,6661.0,2.0,0,
7000,1862.6,21.2,92.6,66.5,1897.0,6661.0,2.0,0,
7100,1855.6,17.3,92.6,41.3,1897.0,6661.0,2.0,0,
7200,1865.6,19.2,92.7,39.6,1897.0,6661.0,2.0,0,
7300,1871.7,38.7,93.1,44.0,1897.0,6661.0,2.0,0,
7400,1840.9,18.6,93.2,239.6,1897.0,6661.0,2.0,0,
7600,1853.6,14.1,93.2,238.0,1897.0,6661.0,2.0,0,
7700,1857.5,14.5,93.1,239.7,1897.0,6661.0,2.0,0,
7800,1856.0,17.4,93.1,239.9,1897.0,6661.0,2.0,0,
7900,1858.7,21.1,93.1,239.9,1897.0,6661.0,2.0,0,
8000,1855.7,142.2,95.8,239.3,849.0,5140.0,5.0,1,
8100,1891.3,136.9,103.2,93.9,1078.0,4430.0,8.0,1,
8200,1838.4,96.0,105.2,91.7,1743.0,7409.0,7.0,1,
8300,1851.4,141.8,105.3,69.1,1945.0,7340.0,3.0,1,
8400,1869.3,303.9,117.8,66.5,2555.0,7961.0,2.0,0,
8600,1852.6,27.1,139.5,166.2,1955.0,7105.0,2.0,0,
8700,1856.0,16.1,139.4,157.9,1955.0,7105.0,2.0,0,
8800,1862.4,13.1,139.4,66.5,1955.0,7105.0,2.0,0,
8900,1859.8,26.8,139.4,34.9,1955.0,7105.0,2.0,0,
9000,1868.5,34.1,139.6,238.7,1955.0,7105.0,2.0,0,
9100,1842.5,18.1,139.5,238.7,1955.0,7105.0,2.0,0,
9200,1852.8,17.8,139.5,133.9,1955.0,7105.0,2.0,0,
9300,1852.6,17.2,139.4,221.3,1955.0,7105.0,2.0,0,
9400,1856.9,16.4,139.5,239.7,1955.0,7105.0,2.0,0,
9600,1849.3,99.6,139.7,239.7,693.0,4589.0,6.0,1,
9700,1863.1,202.3,137.9,74.3,748.0,4295.0,10.0,1,
9800,1852.5,232.6,145.5,39.6,1387.0,5513.0,2.0,0,
9900,1877.3,215.4,161.3,37.6,1491.0,6459.0,2.0,0,
10000,1868.0,218.8,160.3,37.4,2317.0,7383.0,3.0,1,
10100,1841.8,208.1,154.1,39.7,2103.0,7817.0,2.0,0,
10200,1883.2,34.1,155.1,132.0,1866.0,7284.0,2.0,0,
10300,1858.7,15.9,155.1,164.7,1866.0,7284.0,2.0,0,
10400,1859.3,15.1,155.1,48.5,1866.0,7284.0,2.0,0,
10600,1858.6,26.2,154.4,106.0,1866.0,7284.0,2.0,0,
10700,1852.4,21.7,154.7,239.7,1866.0,7284.0,2.0,0,
10800,1848.6,17.0,154.7,168.8,1866.0,7284.0,2.0,0,
10900,1854.5,15.2,154.7,139.8,1866.0,7284.0,2.0,0,
11000,1855.7,15.6,154.7,239.4,1866.0,7284.0,2.0,0,
11100,1857.3,15.0,154.7,240.0,1866.0,7284.0,2.0,0,
11200,1843.5,146.8,154.8,240.1,763.0,4623.0,6.0,1,
11300,1890.6,213.2,159.5,68.1,918.0,4984.0,10.0,1,
11400,1863.4,108.9,154.8,46.3,986.0,4794.0,8.0,1,
11600,1877.9,157.1,134.3,65.4,1637.0,5663.0,2.0,0,
11700,1832.0,116.2,133.6,89.2,1514.0,6460.0,2.0,0,
11800,1885.3,27.4,122.6,132.7,1172.0,5144.0,2.0,0,
11900,1855.5,17.1,122.6,226.0,1172.0,5144.0,2.0,0,
12000,1855.7,13.4,122.6,226.0,1172.0,5144.0,2.0,0,
12100,1861.6,20.1,122.5,225.8,1172.0,5144.0,2.0,0,
12200,1860.6,37.7,122.7,238.3,1172.0,5144.0,2.0,0,
12300,1857.3,18.5,122.7,221.5,1172.0,5144.0,2.0,0,
12400,1850.1,15.2,122.7,145.0,1172.0,5144.0,2.0,0,
12600,1852.6,16.2,122.7,239.7,1172.0,5144.0,2.0,0,
12700,1856.1,13.5,122.7,239.9,1172.0,5144.0,2.0,0,
12800,1864.8,90.9,122.6,240.0,716.0,5262.0,6.0,1,
12900,1846.4,121.9,115.3,205.8,966.0,5468.0,10.0,1,
13000,1874.5,120.8,115.9,40.6,1262.0,5724.0,8.0,1,
13100,1825.5,149.1,118.1,35.2,1576.0,7171.0,7.0,1,
13200,1920.3,265.1,128.2,35.6,1672.0,6194.0,2.0,0,
13300,1834.3,236.0,140.0,65.7,1829.0,6706.0,2.0,0,
13400,1857.4,54.0,144.6,69.9,1171.0,5622.0,2.0,0,
13600,1850.9,14.9,144.6,47.9,1171.0,5622.0,2.0,0,
13700,1870.9,17.3,144.7,39.1,1171.0,5622.0,2.0,0,
13800,1851.7,34.9,144.6,99.9,1171.0,5622.0,2.0,0,
13900,1867.5,21.8,144.6,239.7,1171.0,5622.0,2.0,0,
14000,1853.7,18.0,144.6,239.3,1171.0,5622.0,2.0,0,
14100,1850.5,13.4,144.6,239.3,1171.0,5622.0,2.0,0,
14200,1854.8,14.9,144.6,239.7,1171.0,5622.0,2.0,0,
14300,1855.4,18.2,144.6,239.8,1171.0,5622.0,2.0,0,
14400,1855.7,44.7,144.7,239.9,770.0,5163.0,6.0,1,
14600,1883.1,246.8,156.3,37.6,1395.0,5588.0,2.0,0,
14700,1839.5,261.0,167.9,39.8,1408.0,6377.0,2.0,0,
14800,1858.4,253.1,175.1,54.6,1570.0,6756.0,2.0,0,
14900,1846.7,229.5,182.8,65.6,1796.0,6850.0,2.0,0,rest_end
15000,1872.2,99.9,175.4,36.6,1220.0,5912.0,2.0,0,
15100,1855.4,20.6,176.2,36.9,1220.0,5912.0,2.0,0,
15200,1850.6,14.2,176.2,37.7,1220.0,5912.0,2.0,0,
15300,1857.0,14.7,176.1,37.4,1220.0,5912.0,2.0,0,
15400,1857.9,20.2,176.1,39.4,1220.0,5912.0,2.0,0,
15600,1845.5,15.2,176.0,239.8,1220.0,5912.0,2.0,0,
15700,1853.5,14.6,176.0,239.4,1220.0,5912.0,2.0,0,
15800,1855.9,16.2,176.1,239.5,1220.0,5912.0,2.0,0,
15900,1854.4,12.6,176.0,240.0,1220.0,5912.0,2.0,0,
16000,1857.4,19.8,176.0,240.3,1220.0,5912.0,2.0,0,
16100,1855.5,204.1,172.3,240.1,825.0,4501.0,5.0,1,
16200,1874.6,252.4,173.5,66.8,1150.0,4836.0,2.0,0,
16300,1831.6,202.3,179.4,100.0,1348.0,5617.0,2.0,0,
16400,1879.5,176.0,167.2,155.3,1312.0,6251.0,24.0,1,
16600,1818.7,189.7,151.9,133.3,1194.0,5829.0,2.0,0,
16700,1862.3,23.5,153.2,164.6,1197.0,5197.0,2.0,0,
16800,1854.6,13.5,153.2,130.3,1197.0,5197.0,2.0,0,
16900,1857.3,12.1,153.2,37.5,1197.0,5197.0,2.0,0,
17000,1860.7,30.7,153.2,29.7,1197.0,5197.0,2.0,0,
17100,1873.3,29.6,153.7,239.4,1197.0,5197.0,2.0,0,
17200,1848.3,18.7,153.6,237.8,1197.0,5197.0,2.0,0,
17300,1850.9,16.4,153.6,68.7,1197.0,5197.0,2.0,0,
17400,1855.2,14.5,153.7,195.9,1197.0,5197.0,2.0,0,
17600,1858.6,15.2,153.7,240.1,1197.0,5197.0,2.0,0,
17700,1835.8,132.8,153.9,240.0,736.0,4471.0,5.0,1,
17800,1894.3,235.1,154.1,48.7,994.0,4705.0,21.0,1,
17900,1873.9,238.8,152.7,71.2,1850.0,5924.0,2.0,0,
18000,1836.2,231.1,152.4,148.0,1049.0,5686.0,24.0,1,
18100,1874.0,268.7,165.2,170.6,1555.0,5689.0,2.0,0,
18200,1842.5,151.3,176.5,153.5,1148.0,6135.0,2.0,0,
18300,1877.0,23.6,171.1,131.4,1106.0,5255.0,2.0,0,
18400,1854.5,14.2,171.1,100.4,1106.0,5255.0,2.0,0,
18600,1861.1,14.9,171.1,66.9,1106.0,5255.0,2.0,0,
18700,1870.6,48.3,171.0,239.4,1106.0,5255.0,2.0,0,
18800,1854.9,25.1,171.2,239.5,1106.0,5255.0,2.0,0,
18900,1849.2,18.2,171.3,41.6,1106.0,5255.0,2.0,0,
19000,1852.9,15.8,171.3,37.3,1106.0,5255.0,2.0,0,
19100,1855.0,15.5,171.3,237.6,1106.0,5255.0,2.0,0,
19200,1857.6,22.0,171.4,240.1,1106.0,5255.0,2.0,0,
19300,1856.9,65.1,171.4,239.5,846.0,5325.0,5.0,1,
19400,1873.1,92.9,164.3,65.7,1330.0,6325.0,10.0,1,
19600,1836.2,165.3,147.8,65.5,2022.0,7964.0,7.0,1,
19700,1908.0,254.0,142.0,39.9,2292.0,7831.0,2.0,0,
19800,1856.3,155.1,129.7,45.4,2721.0,8407.0,2.0,0,
19900,1833.5,36.7,128.8,100.5,1004.0,5089.0,2.0,0,
20000,1853.9,16.3,128.7,225.9,1004.0,5089.0,2.0,0,
20100,1856.2,12.7,128.7,227.0,1004.0,5089.0,2.0,0,
20200,1860.4,20.2,128.7,220.2,1004.0,5089.0,2.0,0,
20300,1874.7,28.7,129.6,238.3,1004.0,5089.0,2.0,0,
20400,1847.2,17.9,128.3,239.8,1004.0,5089.0,2.0,0,
20600,1855.0,15.8,128.5,155.0,1004.0,5089.0,2.0,0,
20700,1856.9,16.3,128.5,239.5,1004.0,5089.0,2.0,0,
20800,1856.5,15.0,128.5,239.9,1004.0,5089.0,2.0,0,
20900,1852.5,57.6,128.6,239.9,784.0,4962.0,5.0,1,
21000,1851.3,182.7,136.5,124.3,1449.0,4908.0,21.0,1,
21100,1883.3,218.6,143.5,36.4,1777.0,6001.0,2.0,0,
21200,1863.0,314.6,159.4,40.1,1099.0,5526.0,2.0,0,
21300,1860.8,229.0,166.3,83.7,2099.0,7527.0,2.0,0,
21400,1851.3,183.8,165.3,86.4,1510.0,6383.0,2.0,0,
21600,1860.2,16.3,164.2,137.3,1510.0,6383.0,2.0,0,
21700,1856.4,15.4,164.2,155.7,1510.0,6383.0,2.0,0,
21800,1862.4,14.7,164.3,99.4,1510.0,6383.0,2.0,0,
21900,1853.1,40.2,163.7,188.9,1510.0,6383.0,2.0,0,
22000,1876.5,27.2,164.4,239.8,1510.0,6383.0,2.0,0,
22100,1847.9,15.2,164.3,237.4,1510.0,6383.0,2.0,0,
22200,1853.3,15.1,164.3,112.1,1510.0,6383.0,2.0,0,
22300,1857.5,14.5,164.3,238.3,1510.0,6383.0,2.0,0,
22400,1856.0,15.2,164.3,239.9,1510.0,6383.0,2.0,0,
22600,1841.9,262.9,166.1,117.8,610.0,4019.0,6.0,1,
22700,1877.9,188.1,172.3,30.3,1393.0,4998.0,2.0,0,
22800,1836.2,199.3,169.5,35.3,824.0,5167.0,2.0,0,
22900,1863.0,264.7,165.2,81.0,1920.0,7783.0,2.0,0,
23000,1889.3,248.1,166.0,130.7,1810.0,6316.0,2.0,0,
23100,1844.4,66.6,169.2,66.0,1217.0,5239.0,2.0,0,
23200,1845.6,18.4,168.7,66.5,1217.0,5239.0,2.0,0,
23300,1854.3,16.7,168.7,68.1,1217.0,5239.0,2.0,0,
23400,1865.0,11.5,168.8,92.7,1217.0,5239.0,2.0,0,
23600,1877.1,41.1,168.7,239.8,1217.0,5239.0,2.0,0,
23700,1842.3,18.5,168.7,239.1,1217.0,5239.0,2.0,0,
23800,1853.4,15.1,168.7,135.2,1217.0,5239.0,2.0,0,
23900,1852.7,16.8,168.7,233.0,1217.0,5239.0,2.0,0,
24000,1853.9,14.4,168.7,239.7,1217.0,5239.0,2.0,0,
24100,1857.2,59.1,168.7,240.1,696.0,4981.0,5.0,1,
24200,1839.3,115.5,168.7,239.7,746.0,4829.0,5.0,1,
24300,1881.1,178.6,157.5,67.2,1302.0,4522.0,2.0,0,
24400,1867.0,234.2,159.7,116.5,1653.0,5926.0,2.0,0,
24600,1850.7,166.7,155.1,131.6,1571.0,5880.0,2.0,0,
24700,1843.9,115.4,148.5,142.3,1019.0,4996.0,2.0,0,
24800,1862.1,19.3,149.6,201.1,1019.0,4996.0,2.0,0,
24900,1853.8,12.7,149.6,226.2,1019.0,4996.0,2.0,0,
25000,1859.4,13.3,149.5,220.4,1019.0,4996.0,2.0,0,
25100,1860.3,15.6,149.5,197.5,1019.0,4996.0,2.0,0,
25200,1882.8,42.0,149.8,240.0,1019.0,4996.0,2.0,0,
25300,1839.4,20.5,149.6,239.7,1019.0,4996.0,2.0,0,
25400,1854.1,17.1,149.7,173.0,1019.0,4996.0,2.0,0,
25600,1856.1,14.1,149.7,239.7,1019.0,4996.0,2.0,0,
25700,1856.1,15.2,149.7,240.2,1019.0,4996.0,2.0,0,
25800,1849.7,210.8,149.7,239.9,782.0,4521.0,5.0,1,
25900,1886.7,267.6,159.6,49.2,1012.0,4389.0,21.0,1,
26000,1848.2,265.3,157.3,37.4,1591.0,5688.0,2.0,0,
26100,1841.3,182.4,159.3,55.9,1610.0,6163.0,24.0,1,
26200,1868.3,143.1,153.6,87.5,1575.0,6010.0,2.0,0,
26300,1884.1,238.8,154.1,132.5,1106.0,5708.0,2.0,0,
26400,1838.3,25.5,156.6,189.2,973.0,4956.0,2.0,0,
26600,1855.7,13.3,156.6,130.1,973.0,4956.0,2.0,0,
26700,1858.3,15.7,156.6,53.9,973.0,4956.0,2.0,0,
26800,1877.7,33.2,156.8,239.3,973.0,4956.0,2.0,0,
26900,1841.8,18.2,156.2,239.9,973.0,4956.0,2.0,0,
27000,1855.3,15.1,156.2,239.1,973.0,4956.0,2.0,0,
27100,1858.1,13.9,156.3,239.4,973.0,4956.0,2.0,0,
27200,1859.7,14.5,156.3,239.9,973.0,4956.0,2.0,0,
27300,1859.1,14.4,156.3,240.1,973.0,4956.0,2.0,0,
27400,1851.4,103.3,156.7,240.0,775.0,4716.0,10.0,1,
27600,1855.7,161.7,148.5,91.0,1865.0,6696.0,2.0,0,
27700,1884.8,277.4,146.0,141.9,1164.0,6398.0,2.0,0,
27800,1878.8,289.8,159.5,164.6,1696.0,7497.0,2.0,0,
27900,1839.4,191.4,172.6,86.6,1658.0,7300.0,5.0,1,
28000,1862.8,25.1,170.5,37.3,1051.0,6078.0,2.0,0,
28100,1858.0,15.7,170.5,37.7,1051.0,6078.0,2.0,0,
28200,1856.0,13.7,170.5,65.5,1051.0,6078.0,2.0,0,
28300,1859.2,14.3,170.6,99.8,1051.0,6078.0,2.0,0,
28400,1865.8,47.9,170.6,232.3,1051.0,6078.0,2.0,0,
28600,1851.4,19.2,170.9,185.6,1051.0,6078.0,2.0,0,
28700,1852.6,16.4,170.9,177.7,1051.0,6078.0,2.0,0,
28800,1855.1,15.7,170.9,239.5,1051.0,6078.0,2.0,0,
28900,1855.4,15.1,170.8,240.1,1051.0,6078.0,2.0,0,
29000,1849.3,45.8,170.6,240.0,652.0,3791.0,5.0,1,
29100,1863.3,132.9,169.4,80.0,1413.0,4923.0,21.0,1,
29200,1887.1,159.0,165.5,66.1,1825.0,5556.0,2.0,0,
29300,1831.4,157.1,163.3,150.2,1136.0,5702.0,2.0,0,
29400,1870.4,344.9,165.5,220.4,1255.0,6141.0,5.0,1,
29600,1843.0,36.6,167.7,165.1,857.0,5264.0,5.0,1,
29700,1855.2,14.6,167.7,132.7,857.0,5264.0,5.0,1,
29800,1858.9,13.1,167.7,136.8,857.0,5264.0,5.0,1,
29900,1860.1,14.5,167.7,174.8,857.0,5264.0,5.0,1,
30000,1859.0,70.5,167.7,231.2,857.0,5264.0,5.0,1,
30100,1884.4,33.9,168.3,240.0,857.0,5264.0,5.0,1,
30200,1844.1,18.6,168.2,134.0,857.0,5264.0,5.0,1,
30300,1848.8,17.2,168.3,69.1,857.0,5264.0,5.0,1,
30400,1854.9,18.3,168.3,148.8,857.0,5264.0,5.0,1,
30600,1869.3,97.2,168.3,240.3,724.0,4821.0,5.0,1,
30700,1826.0,204.4,169.5,237.9,887.0,5429.0,10.0,1,
30800,1882.8,209.1,172.0,67.3,1838.0,6636.0,2.0,0,
30900,1849.6,212.2,175.8,117.7,1434.0,7250.0,2.0,0,
31000,1895.3,291.3,177.4,195.2,1636.0,7738.0,25.0,0,
31100,1850.7,221.3,167.6,186.3,1849.0,7982.0,2.0,0,
31200,1837.6,54.4,167.2,69.5,1086.0,6563.0,2.0,0,
31300,1873.0,16.6,167.3,67.3,1086.0,6563.0,2.0,0,
31400,1857.5,15.0,167.3,92.4,1086.0,6563.0,2.0,0,
31600,1855.8,20.5,167.2,218.5,1086.0,6563.0,2.0,0,
31700,1917.8,75.1,168.2,239.8,1086.0,6563.0,2.0,0,
31800,1814.7,27.5,168.3,123.4,1086.0,6563.0,2.0,0,
31900,1845.0,18.6,168.3,37.1,1086.0,6563.0,2.0,0,
32000,1850.8,18.1,168.2,44.4,1086.0,6563.0,2.0,0,
32100,1851.4,14.6,168.2,239.5,1086.0,6563.0,2.0,0,
32200,1844.8,78.7,168.2,240.0,755.0,4731.0,6.0,1,
32300,1848.5,159.3,168.3,239.3,925.0,5313.0,10.0,1,
32400,1905.2,195.7,168.3,66.9,1166.0,5819.0,22.0,1,
32600,1824.4,220.4,161.9,135.6,1573.0,7079.0,24.0,1,
32700,1877.9,238.8,165.8,189.3,1845.0,7210.0,2.0,0,
32800,1869.6,82.1,161.6,164.7,1167.0,6786.0,2.0,0,
32900,1857.2,18.1,161.7,123.0,1167.0,6786.0,2.0,0,
33000,1860.0,15.7,161.7,133.2,1167.0,6786.0,2.0,0,
33100,1854.4,18.5,161.6,196.0,1167.0,6786.0,2.0,0,
33200,1853.8,15.5,161.6,226.3,1167.0,6786.0,2.0,0,
33300,1908.2,68.2,161.4,239.7,1167.0,6786.0,2.0,0,
33400,1826.3,28.7,161.0,239.3,1167.0,6786.0,2.0,0,
33600,1851.2,17.3,161.0,102.0,1167.0,6786.0,2.0,0,
33700,1853.8,16.7,161.0,239.7,1167.0,6786.0,2.0,0,
33800,1855.1,39.5,161.0,240.1,1167.0,6786.0,2.0,0,
33900,1855.0,118.6,161.4,239.3,887.0,5463.0,10.0,1,
34000,1848.5,122.0,157.0,57.1,1385.0,6635.0,22.0,1,
34100,1866.8,217.0,156.0,66.6,1968.0,7351.0,2.0,0,
34200,1861.9,296.0,157.5,132.3,929.0,6101.0,2.0,0,
34300,1901.2,333.2,164.7,196.3,1662.0,7226.0,2.0,0,
34400,1831.0,181.4,167.9,100.7,1941.0,7801.0,2.0,0,
34600,1856.6,16.4,169.8,47.5,1941.0,7801.0,2.0,0,
34700,1853.7,13.9,169.8,89.3,1941.0,7801.0,2.0,0,
34800,1860.6,14.9,169.9,100.6,1941.0,7801.0,2.0,0,
34900,1872.9,56.0,169.5,239.0,1941.0,7801.0,2.0,0,
35000,1853.3,24.7,169.1,239.4,1941.0,7801.0,2.0,0,
35100,1850.1,18.0,169.1,85.1,1941.0,7801.0,2.0,0,
35200,1850.5,16.1,169.1,72.3,1941.0,7801.0,2.0,0,
35300,1853.9,16.2,169.1,238.6,1941.0,7801.0,2.0,0,
35400,1856.1,16.1,169.1,239.7,1941.0,7801.0,2.0,0,
35600,1855.6,119.5,167.8,55.8,1118.0,6644.0,9.0,1,
35700,1916.3,154.5,170.8,49.9,1559.0,6768.0,2.0,0,
35800,1832.1,299.0,173.5,67.4,2117.0,7545.0,2.0,0,
35900,1837.9,286.3,168.7,99.8,1689.0,7627.0,25.0,0,
36000,1867.6,278.3,163.9,100.0,1787.0,7540.0,2.0,0,
36100,1877.6,31.9,168.0,73.1,1045.0,6067.0,2.0,0,
36200,1857.9,15.7,168.1,66.5,1045.0,6067.0,2.0,0,
36300,1849.9,15.7,168.0,66.9,1045.0,6067.0,2.0,0,
36400,1859.8,17.9,168.0,73.6,1045.0,6067.0,2.0,0,
36600,1865.4,25.8,168.8,239.4,1045.0,6067.0,2.0,0,
36700,1848.2,17.8,168.8,80.3,1045.0,6067.0,2.0,0,
36800,1852.2,17.1,168.8,68.0,1045.0,6067.0,2.0,0,
36900,1854.2,16.5,168.9,237.4,1045.0,6067.0,2.0,0,
37000,1857.8,13.8,168.9,240.2,1045.0,6067.0,2.0,0,
37100,1882.2,121.8,171.6,239.6,749.0,4419.0,6.0,1,
37200,1842.0,114.1,172.7,81.7,990.0,6287.0,10.0,1,
37300,1846.4,139.9,167.8,71.3,1367.0,7521.0,8.0,1,
37400,1868.0,117.9,162.9,67.3,1683.0,8261.0,7.0,1,
37600,1884.7,312.6,142.7,65.5,1463.0,7090.0,2.0,0,
37700,1847.8,58.1,143.6,40.2,1397.0,6490.0,2.0,0,
37800,1857.0,20.0,143.6,54.2,1397.0,6490.0,2.0,0,
37900,1847.1,14.9,143.6,66.2,1397.0,6490.0,2.0,0,
38000,1858.1,19.3,143.6,39.2,1397.0,6490.0,2.0,0,
38100,1860.3,59.3,143.6,104.0,1397.0,6490.0,2.0,0,
38200,1872.3,25.9,142.3,239.6,1397.0,6490.0,2.0,0,
38300,1854.6,20.8,142.4,238.0,1397.0,6490.0,2.0,0,
38400,1853.8,15.1,142.5,208.0,1397.0,6490.0,2.0,0,
38600,1858.3,17.6,142.6,239.7,1397.0,6490.0,2.0,0,
38700,1858.9,293.1,150.8,85.9,1419.0,4787.0,26.0,0,
38800,1876.4,253.5,172.5,38.8,1456.0,5162.0,26.0,0,
38900,1858.7,211.4,184.5,38.9,1243.0,6470.0,2.0,0,
39000,1880.5,229.2,185.4,77.1,1510.0,7093.0,24.0,1,
39100,1836.3,162.9,193.6,152.4,1842.0,7617.0,2.0,0,
39200,1849.4,218.4,194.0,159.0,1504.0,7705.0,25.0,0,
39300,1889.4,77.3,186.6,163.7,1389.0,7010.0,2.0,0,
39400,1861.7,17.7,186.6,131.4,1389.0,7010.0,2.0,0,
39600,1851.4,15.0,186.6,66.5,1389.0,7010.0,2.0,0,
39700,1858.3,66.4,186.6,67.6,1389.0,7010.0,2.0,0,
39800,1874.2,25.8,186.8,240.0,1389.0,7010.0,2.0,0,
39900,1847.0,18.2,186.7,106.1,1389.0,7010.0,2.0,0,
40000,1854.7,16.5,186.7,52.6,1389.0,7010.0,2.0,0,
40100,1853.3,16.9,186.7,237.7,1389.0,7010.0,2.0,0,
40200,1858.7,17.9,186.6,240.1,1389.0,7010.0,2.0,0,
40300,1868.7,238.1,184.6,240.1,817.0,5552.0,6.0,1,
40400,1883.6,172.2,178.9,36.8,1208.0,5701.0,26.0,0,
40600,1853.0,207.9,181.0,43.5,1540.0,7443.0,24.0,1,
40700,1861.5,178.6,171.9,99.7,1851.0,7868.0,2.0,0,
40800,1879.4,205.5,172.5,98.8,1014.0,6464.0,2.0,0,
40900,1869.6,122.1,172.8,219.9,1324.0,6570.0,2.0,0,
41000,1852.5,21.3,171.6,228.0,1324.0,6570.0,2.0,0,
41100,1855.1,18.2,171.6,166.6,1324.0,6570.0,2.0,0,
41200,1856.3,13.8,171.7,88.3,1324.0,6570.0,2.0,0,
41300,1861.3,17.8,171.7,69.8,1324.0,6570.0,2.0,0,
41400,1871.1,29.6,171.1,239.6,1324.0,6570.0,2.0,0,
41600,1855.1,17.4,171.1,239.7,1324.0,6570.0,2.0,0,
41700,1855.6,17.1,171.1,239.6,1324.0,6570.0,2.0,0,
41800,1856.4,16.4,171.1,240.1,1324.0,6570.0,2.0,0,
41900,1856.2,80.6,171.2,240.1,822.0,5533.0,6.0,1,
42000,1866.8,246.7,166.9,52.5,1180.0,5601.0,6.0,1,
42100,1853.0,187.7,167.4,35.7,1680.0,6154.0,2.0,0,
42200,1880.9,198.3,166.3,37.8,1028.0,6158.0,2.0,0,
42300,1882.0,117.0,166.4,89.4,1562.0,6752.0,2.0,0,
42400,1831.9,140.1,166.3,104.7,1048.0,7112.0,2.0,0,
42600,1872.3,20.6,162.6,225.8,1048.0,7112.0,2.0,0,
42700,1858.3,15.9,162.7,137.1,1048.0,7112.0,2.0,0,
42800,1852.0,15.8,162.7,91.7,1048.0,7112.0,2.0,0,
42900,1858.7,14.2,162.6,73.9,1048.0,7112.0,2.0,0,
43000,1877.2,66.6,163.1,239.7,1048.0,7112.0,2.0,0,
43100,1855.6,24.2,164.1,239.5,1048.0,7112.0,2.0,0,
43200,1849.4,16.4,164.0,46.8,1048.0,7112.0,2.0,0,
43300,1853.0,17.9,164.0,39.2,1048.0,7112.0,2.0,0,
43400,1855.5,17.7,164.0,140.2,1048.0,7112.0,2.0,0,
43600,1868.8,138.1,159.6,178.4,913.0,5994.0,6.0,1,
43700,1883.4,133.8,153.4,52.9,1297.0,6366.0,9.0,1,
43800,1831.8,139.2,143.2,65.6,1641.0,8228.0,8.0,1,
43900,1868.8,185.9,145.9,66.0,1626.0,6794.0,2.0,0,
44000,1862.5,200.2,142.9,66.5,1741.0,7388.0,2.0,0,
44100,1878.1,282.2,146.6,151.7,1545.0,7132.0,25.0,0,
44200,1852.0,30.5,145.9,227.1,1260.0,6045.0,2.0,0,
44300,1856.4,18.9,145.9,226.1,1260.0,6045.0,2.0,0,
44400,1850.8,15.1,145.9,138.6,1260.0,6045.0,2.0,0,
44600,1863.3,56.4,146.0,239.1,1260.0,6045.0,2.0,0,
44700,1865.5,24.5,145.1,240.0,1260.0,6045.0,2.0,0,
44800,1850.8,17.5,145.1,145.1,1260.0,6045.0,2.0,0,
44900,1853.0,17.0,145.1,74.1,1260.0,6045.0,2.0,0,
45000,1856.0,17.2,145.1,238.3,1260.0,6045.0,2.0,0,
45100,1858.9,16.7,145.2,240.0,1260.0,6045.0,2.0,0,
45200,1843.7,239.6,143.4,239.7,1098.0,5667.0,25.0,0,
45300,1864.0,175.2,147.7,37.9,1551.0,6079.0,2.0,0,
45400,1863.7,237.1,154.2,45.6,1245.0,6818.0,2.0,0,
45600,1847.5,187.3,158.3,130.6,1848.0,7507.0,2.0,0,
45700,1828.2,247.2,160.1,69.0,1317.0,7414.0,25.0,0,
45800,1884.2,41.4,160.2,221.6,1269.0,6250.0,2.0,0,
45900,1858.6,18.1,160.2,226.8,1269.0,6250.0,2.0,0,
46000,1851.7,14.4,160.2,150.5,1269.0,6250.0,2.0,0,
46100,1858.2,16.0,160.3,67.2,1269.0,6250.0,2.0,0,
46200,1857.8,78.1,160.2,169.8,1269.0,6250.0,2.0,0,
46300,1891.1,40.6,161.8,239.8,1269.0,6250.0,2.0,0,
46400,1839.1,19.2,161.7,98.8,1269.0,6250.0,2.0,0,
46600,1853.7,15.3,161.6,72.8,1269.0,6250.0,2.0,0,
46700,1855.0,16.0,161.5,239.8,1269.0,6250.0,2.0,0,
46800,1863.6,177.7,160.7,239.9,863.0,5379.0,5.0,1,
46900,1871.9,138.4,157.7,47.8,880.0,5799.0,10.0,1,
47000,1860.3,120.5,151.2,36.5,1219.0,6865.0,8.0,1,
47100,1837.3,220.9,139.9,45.5,1459.0,6614.0,23.0,1,
47200,1861.0,309.0,152.2,72.4,2019.0,7279.0,2.0,0,
47300,1867.4,302.2,158.4,93.6,1154.0,7194.0,2.0,0,
47400,1865.0,65.0,160.6,132.6,1304.0,6286.0,2.0,0,
47600,1853.9,18.0,160.6,163.6,1304.0,6286.0,2.0,0,
47700,1854.2,15.2,160.5,48.8,1304.0,6286.0,2.0,0,
47800,1861.5,19.1,160.6,69.3,1304.0,6286.0,2.0,0,
47900,1891.0,56.9,159.1,240.1,1304.0,6286.0,2.0,0,
48000,1827.8,25.8,159.1,239.4,1304.0,6286.0,2.0,0,
48100,1849.9,17.4,159.1,79.0,1304.0,6286.0,2.0,0,
48200,1853.4,17.2,159.1,93.5,1304.0,6286.0,2.0,0,
48300,1856.8,14.9,159.2,239.7,1304.0,6286.0,2.0,0,
48400,1861.0,98.0,159.3,240.1,833.0,5361.0,6.0,1,
48600,1865.2,96.8,154.5,66.0,1244.0,7080.0,9.0,1,
48700,1868.4,218.6,154.7,52.2,1486.0,7837.0,8.0,1,
48800,1897.5,201.4,150.2,39.4,1620.0,6856.0,2.0,0,
48900,1820.7,254.9,141.8,66.5,1838.0,7674.0,2.0,0,
49000,1848.8,84.1,137.0,216.7,1281.0,6459.0,2.0,0,
49100,1869.1,17.9,137.1,228.9,1281.0,6459.0,2.0,0,
49200,1854.4,18.0,137.0,226.7,1281.0,6459.0,2.0,0,
49300,1849.1,15.9,136.9,132.5,1281.0,6459.0,2.0,0,
49400,1862.7,15.6,137.0,91.7,1281.0,6459.0,2.0,0,
49600,1876.8,35.8,137.0,239.7,1281.0,6459.0,2.0,0,
49700,1839.6,18.1,136.9,167.6,1281.0,6459.0,2.0,0,
49800,1853.2,17.9,136.8,38.2,1281.0,6459.0,2.0,0,
49900,1857.3,16.1,136.9,66.4,1281.0,6459.0,2.0,0,
50000,1851.9,79.3,136.9,239.7,899.0,6070.0,6.0,1,
50100,1854.3,123.1,139.9,233.3,833.0,5435.0,5.0,1,
50200,1903.0,163.7,141.6,55.7,1007.0,6758.0,9.0,1,
50300,1837.2,147.0,142.7,54.5,1395.0,7798.0,8.0,1,
50400,1845.3,228.9,139.9,65.7,1505.0,7953.0,8.0,1,
50600,1882.8,100.2,130.3,65.9,1819.0,8928.0,7.0,1,
50700,1847.3,22.7,131.2,45.7,1819.0,8928.0,7.0,1,
50800,1856.8,19.9,131.2,51.2,1819.0,8928.0,7.0,1,
50900,1847.9,18.2,131.2,38.5,1819.0,8928.0,7.0,1,
51000,1861.0,15.5,131.2,38.6,1819.0,8928.0,7.0,1,
51100,1857.4,42.3,131.1,239.4,1819.0,8928.0,7.0,1,
51200,1871.7,26.6,130.9,239.7,1819.0,8928.0,7.0,1,
51300,1849.8,17.2,130.9,237.7,1819.0,8928.0,7.0,1,
51400,1856.3,16.8,131.0,172.7,1819.0,8928.0,7.0,1,
51600,1856.5,57.3,131.0,240.2,1819.0,8928.0,7.0,1,
51700,1850.4,134.7,130.4,239.8,844.0,6040.0,5.0,1,
51800,1861.1,243.6,135.4,66.4,1233.0,5776.0,2.0,0,
51900,1856.2,272.1,143.6,44.2,1702.0,6735.0,2.0,0,
52000,1877.4,182.8,156.4,56.4,1171.0,6955.0,24.0,1,
52100,1887.5,147.3,150.6,70.6,1697.0,7043.0,2.0,0,
52200,1816.8,204.3,154.7,85.5,1509.0,7328.0,2.0,0,
52300,1869.9,24.1,155.9,195.5,1283.0,6403.0,2.0,0,
52400,1861.3,17.8,156.0,228.1,1283.0,6403.0,2.0,0,
52600,1858.6,15.5,156.1,173.2,1283.0,6403.0,2.0,0,
52700,1864.9,27.9,156.2,239.3,1283.0,6403.0,2.0,0,
52800,1891.0,55.5,157.4,239.9,1283.0,6403.0,2.0,0,
52900,1830.0,22.4,157.4,209.2,1283.0,6403.0,2.0,0,
53000,1850.0,17.0,157.3,45.8,1283.0,6403.0,2.0,0,
53100,1853.2,15.2,157.2,45.1,1283.0,6403.0,2.0,0,
53200,1854.2,21.1,157.1,239.5,1283.0,6403.0,2.0,0,
53300,1839.2,96.0,157.6,239.7,864.0,5854.0,5.0,1,
53400,1874.9,227.4,157.4,66.5,1395.0,6279.0,21.0,1,
53600,1820.1,235.7,158.5,112.4,1261.0,6844.0,2.0,0,
53700,1864.8,133.5,160.1,130.4,1597.0,6711.0,2.0,0,
53800,1857.8,168.9,158.5,87.4,1584.0,7319.0,2.0,0,
53900,1860.2,28.8,156.9,164.7,1138.0,6480.0,2.0,0,
54000,1861.3,15.4,156.9,228.4,1138.0,6480.0,2.0,0,
54100,1852.0,16.2,156.8,227.5,1138.0,6480.0,2.0,0,
54200,1853.3,16.8,156.7,226.1,1138.0,6480.0,2.0,0,
54300,1865.4,16.2,156.7,238.9,1138.0,6480.0,2.0,0,
54400,1895.4,73.2,156.8,240.2,1138.0,6480.0,2.0,0,
54600,1848.9,19.7,156.9,45.4,1138.0,6480.0,2.0,0,
54700,1851.5,16.8,156.9,39.0,1138.0,6480.0,2.0,0,
54800,1855.8,17.9,157.0,238.6,1138.0,6480.0,2.0,0,
54900,1863.8,119.8,156.8,239.9,772.0,4808.0,5.0,1,
55000,1835.0,196.1,154.7,67.3,803.0,6151.0,10.0,1,
55100,1877.5,178.6,150.6,65.7,1566.0,6315.0,2.0,0,
55200,1844.7,264.1,148.9,113.3,1430.0,7247.0,2.0,0,
55300,1900.0,125.0,148.9,131.5,1253.0,7110.0,24.0,1,
55400,1853.9,152.4,148.5,130.4,1789.0,7745.0,2.0,0,
55600,1860.6,16.9,149.0,227.4,1789.0,7745.0,2.0,0,
55700,1852.3,18.1,149.0,227.9,1789.0,7745.0,2.0,0,
55800,1861.5,17.4,149.2,226.7,1789.0,7745.0,2.0,0,
55900,1862.3,19.8,149.1,238.3,1789.0,7745.0,2.0,0,
56000,1873.0,82.8,149.7,240.0,1789.0,7745.0,2.0,0,
56100,1860.2,33.5,149.4,239.5,1789.0,7745.0,2.0,0,
56200,1846.0,22.0,149.4,79.7,1789.0,7745.0,2.0,0,
56300,1847.4,18.4,149.3,54.2,1789.0,7745.0,2.0,0,
56400,1854.7,17.7,149.3,197.0,1789.0,7745.0,2.0,0,
56600,1855.0,167.0,151.9,35.7,844.0,5912.0,10.0,1,
56700,1904.4,211.2,151.6,35.4,1358.0,5842.0,2.0,0,
56800,1860.4,290.7,151.8,66.3,1963.0,7697.0,2.0,0,
56900,1823.8,208.5,152.5,117.2,1664.0,7298.0,24.0,1,
57000,1862.3,196.5,154.4,164.2,1787.0,7342.0,2.0,0,
57100,1863.5,59.4,153.7,199.5,1111.0,6326.0,2.0,0,
57200,1861.6,18.1,153.6,251.6,1111.0,6326.0,2.0,0,
57300,1856.9,18.3,153.7,229.4,1111.0,6326.0,2.0,0,
57400,1850.7,16.8,153.5,227.0,1111.0,6326.0,2.0,0,
57600,1854.6,73.9,153.3,240.1,1111.0,6326.0,2.0,0,
57700,1881.7,35.8,153.2,239.7,1111.0,6326.0,2.0,0,
57800,1845.3,20.4,153.2,104.0,1111.0,6326.0,2.0,0,
57900,1857.3,18.4,153.4,38.8,1111.0,6326.0,2.0,0,
58000,1854.8,17.1,153.5,73.7,1111.0,6326.0,2.0,0,
58100,1877.3,93.5,151.8,239.8,819.0,5791.0,6.0,1,
58200,1841.2,137.0,151.2,237.7,819.0,6419.0,10.0,1,
58300,1847.8,151.6,151.7,66.0,1135.0,7096.0,10.0,1,
58400,1866.1,112.2,139.9,65.5,1458.0,8102.0,8.0,1,
58600,1903.5,124.9,125.0,66.0,1564.0,7205.0,2.0,0,
58700,1827.6,71.0,120.7,90.7,1215.0,6720.0,2.0,0,
58800,1853.4,21.2,119.5,227.1,1215.0,6720.0,2.0,0,
58900,1856.0,17.8,119.5,249.3,1215.0,6720.0,2.0,0,
59000,1850.1,17.2,119.5,230.0,1215.0,6720.0,2.0,0,
59100,1856.4,16.9,119.5,230.7,1215.0,6720.0,2.0,0,
59200,1869.8,21.4,119.7,239.9,1215.0,6720.0,2.0,0,
59300,1899.5,70.0,119.5,240.0,1215.0,6720.0,2.0,0,
59400,1824.6,25.1,119.4,239.7,1215.0,6720.0,2.0,0,
59600,1852.5,17.9,119.2,87.0,1215.0,6720.0,2.0,0,
59700,1855.3,67.3,119.2,239.4,837.0,5792.0,6.0,1,
59800,1846.0,88.0,118.8,208.5,831.0,5762.0,5.0,1,
59900,1871.5,165.2,117.7,39.0,1296.0,6283.0,22.0,1,
60000,1906.8,288.0,127.6,43.5,1562.0,6330.0,2.0,0,
60100,1834.1,153.8,139.2,99.6,1459.0,7068.0,2.0,0,
60200,1846.1,184.0,139.8,163.4,1345.0,6961.0,2.0,0,
60300,1847.9,110.3,142.8,195.1,1190.0,6783.0,2.0,0,
60400,1886.4,19.6,142.7,197.0,1190.0,6783.0,2.0,0,
60600,1851.8,18.5,142.8,225.7,1190.0,6783.0,2.0,0,
60700,1860.1,16.4,142.9,217.6,1190.0,6783.0,2.0,0,
60800,1865.2,24.9,142.9,239.7,1190.0,6783.0,2.0,0,
60900,1896.1,66.2,143.9,240.0,1190.0,6783.0,2.0,0,
61000,1827.9,25.2,142.5,239.0,1190.0,6783.0,2.0,0,
61100,1851.5,19.9,142.6,74.9,1190.0,6783.0,2.0,0,
61200,1851.8,16.5,142.6,76.1,1190.0,6783.0,2.0,0,
61300,1855.0,16.1,142.6,239.4,1190.0,6783.0,2.0,0,
61400,1879.8,124.4,145.9,169.3,858.0,5290.0,5.0,1,
61600,1866.1,185.4,140.4,35.8,1462.0,5629.0,2.0,0,
61700,1846.1,270.2,138.6,66.8,1958.0,6983.0,2.0,0,
61800,1876.1,269.2,148.3,176.9,1558.0,7126.0,24.0,1,
61900,1892.0,256.4,148.8,195.8,1804.0,7136.0,2.0,0,
62000,1836.5,26.2,150.5,221.3,1162.0,6193.0,2.0,0,
62100,1865.0,17.5,150.7,249.2,1162.0,6193.0,2.0,0,
62200,1851.2,20.7,150.6,238.9,1162.0,6193.0,2.0,0,
62300,1854.5,14.3,150.6,228.9,1162.0,6193.0,2.0,0,
62400,1862.0,22.2,150.4,239.6,1162.0,6193.0,2.0,0,
62600,1825.3,27.3,150.7,238.4,1162.0,6193.0,2.0,0,
62700,1848.5,18.8,150.7,57.4,1162.0,6193.0,2.0,0,
62800,1854.0,20.7,150.7,50.8,1162.0,6193.0,2.0,0,
62900,1854.1,17.9,150.8,239.0,1162.0,6193.0,2.0,0,
63000,1865.9,127.9,147.7,239.7,884.0,5702.0,5.0,1,
63100,1841.0,103.5,149.5,55.6,858.0,6448.0,10.0,1,
63200,1892.8,176.0,149.6,36.9,1460.0,6490.0,22.0,1,
63300,1885.2,321.4,153.3,66.4,1786.0,6802.0,2.0,0,
63400,1822.8,240.0,157.6,131.0,1023.0,6164.0,2.0,0,
63600,1867.7,30.9,149.3,100.7,1029.0,6009.0,2.0,0,
63700,1860.6,19.0,149.3,187.3,1029.0,6009.0,2.0,0,
63800,1851.0,19.0,149.2,230.2,1029.0,6009.0,2.0,0,
63900,1859.0,15.1,149.3,228.1,1029.0,6009.0,2.0,0,
64000,1856.7,20.9,149.3,239.6,1029.0,6009.0,2.0,0,
64100,1860.5,33.7,148.9,240.2,1029.0,6009.0,2.0,0,
64200,1862.0,20.6,147.7,239.9,1029.0,6009.0,2.0,0,
64300,1853.4,16.8,147.8,239.4,1029.0,6009.0,2.0,0,
64400,1857.8,16.7,147.9,239.3,1029.0,6009.0,2.0,0,
64600,1881.6,268.4,157.1,238.6,1168.0,5843.0,26.0,0,
64700,1865.8,245.1,174.2,37.7,1539.0,6066.0,5.0,1,
64800,1850.7,213.0,180.8,36.1,881.0,5745.0,2.0,0,
64900,1869.1,180.7,181.4,40.5,1694.0,7013.0,2.0,0,
65000,1829.0,335.9,173.3,86.8,1602.0,7560.0,2.0,0,
65100,1911.5,370.3,188.8,132.6,1518.0,7317.0,2.0,0,
65200,1853.2,60.8,200.1,131.0,821.0,4855.0,6.0,1,
65300,1855.9,19.3,200.0,42.0,821.0,4855.0,6.0,1,
65400,1855.6,18.2,200.0,38.6,821.0,4855.0,6.0,1,
65600,1863.0,15.3,200.1,73.3,821.0,4855.0,6.0,1,
65700,1860.1,80.1,200.1,240.1,821.0,4855.0,6.0,1,
65800,1874.3,28.8,200.8,239.8,821.0,4855.0,6.0,1,
65900,1850.3,18.5,200.8,56.7,821.0,4855.0,6.0,1,
66000,1855.8,18.6,200.8,38.5,821.0,4855.0,6.0,1,
66100,1856.0,19.2,200.8,175.4,821.0,4855.0,6.0,1,
66200,1867.8,154.9,200.4,239.8,993.0,6354.0,6.0,1,
66300,1859.7,106.4,186.3,77.5,754.0,5661.0,5.0,1,
66400,1843.2,179.8,173.3,72.2,1127.0,6544.0,9.0,1,
66600,1860.7,317.1,177.3,81.1,1710.0,7234.0,2.0,0,
66700,1823.1,300.2,168.5,132.8,2063.0,8670.0,2.0,0,
66800,1890.4,95.0,170.6,110.2,965.0,5976.0,2.0,0,
66900,1866.4,21.5,170.6,80.2,965.0,5976.0,2.0,0,
67000,1856.4,17.5,170.6,69.6,965.0,5976.0,2.0,0,
67100,1853.3,18.5,170.6,76.8,965.0,5976.0,2.0,0,
67200,1858.5,16.8,170.5,91.8,965.0,5976.0,2.0,0,
67300,1861.7,24.0,170.5,240.3,965.0,5976.0,2.0,0,
67400,1916.1,71.7,171.3,239.9,965.0,5976.0,2.0,0,
67600,1850.2,22.6,171.5,53.7,965.0,5976.0,2.0,0,
67700,1851.9,19.0,171.5,102.1,965.0,5976.0,2.0,0,
67800,1866.3,280.0,173.1,239.6,965.0,5976.0,2.0,0,
67900,1869.0,165.9,194.2,65.8,1030.0,4676.0,25.0,0,
68000,1873.1,135.6,194.0,35.7,1040.0,6331.0,9.0,1,
68100,1842.0,192.5,190.5,37.3,1498.0,7427.0,8.0,1,
68200,1851.2,114.8,187.4,66.4,1913.0,8936.0,7.0,1,
68300,1862.3,201.9,171.4,66.2,1807.0,7854.0,7.0,1,
68400,1903.1,132.8,163.7,65.5,2289.0,7817.0,2.0,0,
68600,1855.8,19.0,162.1,66.8,2289.0,7817.0,2.0,0,
68700,1851.6,18.0,162.1,73.0,2289.0,7817.0,2.0,0,
68800,1856.9,15.2,162.1,105.2,2289.0,7817.0,2.0,0,
68900,1861.3,65.3,162.1,239.8,2289.0,7817.0,2.0,0,
69000,1893.1,41.6,162.5,239.9,2289.0,7817.0,2.0,0,
69100,1841.9,21.4,162.0,207.1,2289.0,7817.0,2.0,0,
69200,1854.6,19.3,162.0,68.7,2289.0,7817.0,2.0,0,
69300,1854.2,19.6,162.0,118.1,2289.0,7817.0,2.0,0,
69400,1855.6,80.5,162.0,240.0,2289.0,7817.0,2.0,0,
69600,1853.9,195.5,167.0,35.5,1731.0,6122.0,2.0,0,
69700,1865.2,173.8,174.4,35.7,1084.0,6304.0,2.0,0,
69800,1913.6,302.0,176.2,68.6,1296.0,6117.0,2.0,0,
69900,1836.8,309.8,192.0,99.6,2210.0,8010.0,2.0,0,
70000,1846.7,266.5,198.7,99.8,1307.0,5638.0,2.0,0,
70100,1885.9,28.2,202.4,123.3,1307.0,5638.0,2.0,0,
70200,1859.0,18.5,202.4,123.1,1307.0,5638.0,2.0,0,
70300,1855.2,17.8,202.4,65.9,1307.0,5638.0,2.0,0,
70400,1853.5,15.7,202.4,37.3,1307.0,5638.0,2.0,0,
70600,1863.9,84.4,200.8,240.0,1307.0,5638.0,2.0,0,
70700,1876.8,32.1,202.1,239.9,1307.0,5638.0,2.0,0,
70800,1847.9,19.9,202.0,213.7,1307.0,5638.0,2.0,0,
70900,1856.1,17.9,202.1,133.7,1307.0,5638.0,2.0,0,
71000,1854.0,15.4,202.0,239.1,1307.0,5638.0,2.0,0,
71100,1864.6,269.7,195.7,239.5,1383.0,6275.0,27.0,0,
71200,1875.4,115.5,186.9,66.1,757.0,4996.0,10.0,1,
71300,1868.4,136.2,174.8,65.8,1034.0,6046.0,9.0,1,
71400,1851.7,255.3,171.7,84.0,1357.0,5939.0,2.0,0,
71600,1876.5,357.0,176.0,135.0,1330.0,6937.0,2.0,0,
71700,1862.6,37.9,172.4,133.5,1220.0,5686.0,2.0,0,
71800,1857.7,19.7,172.3,154.3,1220.0,5686.0,2.0,0,
71900,1852.3,16.7,172.2,72.2,1220.0,5686.0,2.0,0,
72000,1858.3,17.3,172.3,34.7,1220.0,5686.0,2.0,0,
72100,1857.3,19.0,172.3,173.5,1220.0,5686.0,2.0,0,
72200,1860.8,100.1,172.3,240.0,1220.0,5686.0,2.0,0,
72300,1891.5,35.9,173.1,239.9,1220.0,5686.0,2.0,0,
72400,1845.0,23.2,173.0,229.0,1220.0,5686.0,2.0,0,
72600,1853.0,19.7,173.1,237.8,1220.0,5686.0,2.0,0,
72700,1859.6,162.2,173.3,239.7,814.0,5180.0,5.0,1,
72800,1860.9,186.6,161.8,69.2,832.0,5067.0,9.0,1,
72900,1842.7,89.1,168.5,66.5,1059.0,6123.0,9.0,1,
73000,1891.2,133.2,166.7,65.5,1388.0,6632.0,7.0,1,
73100,1892.8,153.9,154.1,43.7,1677.0,7862.0,7.0,1,
73200,1825.8,137.7,130.5,52.8,1942.0,8092.0,7.0,1,
73300,1859.8,48.0,125.2,65.8,684.0,4536.0,5.0,1,
73400,1864.8,19.6,125.3,66.2,684.0,4536.0,5.0,1,
73600,1852.9,17.8,125.3,42.7,684.0,4536.0,5.0,1,
73700,1857.1,13.6,125.3,67.3,684.0,4536.0,5.0,1,
73800,1861.5,44.9,125.3,240.0,684.0,4536.0,5.0,1,
73900,1897.1,60.1,126.1,239.9,684.0,4536.0,5.0,1,
74000,1830.5,24.6,126.3,39.3,684.0,4536.0,5.0,1,
74100,1852.4,20.9,126.2,35.9,684.0,4536.0,5.0,1,
74200,1853.8,20.1,126.2,37.7,684.0,4536.0,5.0,1,
74300,1833.5,100.1,126.4,239.5,942.0,5906.0,5.0,1,
74400,1867.5,122.1,123.5,73.5,721.0,5711.0,5.0,1,
74600,1834.7,152.5,121.3,66.1,1583.0,7865.0,8.0,1,
74700,1860.1,123.1,118.4,65.9,1680.0,8512.0,8.0,1,
74800,1836.4,100.7,120.9,66.2,1768.0,8690.0,7.0,1,
74900,1873.8,52.1,111.4,66.2,1895.0,8560.0,7.0,1,
75000,1861.7,18.9,111.2,65.9,1895.0,8560.0,7.0,1,
75100,1858.9,19.8,111.2,37.6,1895.0,8560.0,7.0,1,
75200,1852.9,14.3,111.2,37.3,1895.0,8560.0,7.0,1,
75300,1861.3,16.7,111.3,56.9,1895.0,8560.0,7.0,1,
75400,1869.2,28.2,111.5,240.1,1895.0,8560.0,7.0,1,
75600,1817.9,34.6,111.6,101.1,1895.0,8560.0,7.0,1,
75700,1846.3,22.6,111.6,38.7,1895.0,8560.0,7.0,1,
75800,1850.1,17.2,111.6,40.0,1895.0,8560.0,7.0,1,
75900,1868.2,91.8,111.6,239.5,873.0,5839.0,5.0,1,
76000,1841.3,126.4,111.4,134.6,823.0,6184.0,5.0,1,
76100,1875.2,206.7,119.1,66.1,1498.0,6094.0,2.0,0,
76200,1842.9,248.5,135.3,99.5,1966.0,7230.0,2.0,0,
76300,1878.1,175.1,143.7,164.5,1176.0,6652.0,24.0,1,
76400,1884.0,158.4,147.0,164.3,1580.0,6847.0,2.0,0,
76600,1875.3,19.8,151.7,230.3,1580.0,6847.0,2.0,0,
76700,1858.5,19.3,151.7,252.9,1580.0,6847.0,2.0,0,
76800,1855.5,17.1,151.7,229.4,1580.0,6847.0,2.0,0,
76900,1864.1,16.2,151.7,229.6,1580.0,6847.0,2.0,0,
77000,1862.1,21.9,151.6,239.8,1580.0,6847.0,2.0,0,
77100,1866.4,59.2,150.1,239.8,1580.0,6847.0,2.0,0,
77200,1856.2,29.5,149.1,239.3,1580.0,6847.0,2.0,0,
77300,1845.5,19.0,149.1,56.1,1580.0,6847.0,2.0,0,
77400,1853.2,18.8,149.1,51.3,1580.0,6847.0,2.0,0,
77600,1860.7,106.4,150.4,82.6,842.0,5882.0,5.0,1,
77700,1862.5,89.3,147.6,42.4,947.0,6027.0,10.0,1,
77800,1914.1,170.9,136.9,44.7,1290.0,7051.0,8.0,1,
77900,1826.4,129.7,121.6,66.1,1357.0,6722.0,8.0,1,
78000,1858.0,194.7,119.9,46.0,1469.0,7089.0,2.0,0,
78100,1872.8,108.9,117.1,65.8,1032.0,5329.0,2.0,0,
78200,1854.4,22.8,116.3,217.5,1032.0,5329.0,2.0,0,
78300,1858.6,19.3,116.3,242.6,1032.0,5329.0,2.0,0,
78400,1852.0,20.8,116.3,230.8,1032.0,5329.0,2.0,0,
78600,1862.8,18.6,116.1,239.9,1032.0,5329.0,2.0,0,
78700,1857.0,21.3,116.1,239.9,1032.0,5329.0,2.0,0,
78800,1879.7,38.6,115.8,239.7,1032.0,5329.0,2.0,0,
78900,1841.0,21.8,115.8,239.6,1032.0,5329.0,2.0,0,
79000,1855.7,21.9,115.8,238.6,1032.0,5329.0,2.0,0,
79100,1855.0,194.2,115.9,239.4,1032.0,5329.0,2.0,0,
79200,1899.3,311.1,138.7,78.2,1091.0,5584.0,11.0,1,
79300,1835.0,189.9,159.3,43.7,1356.0,5887.0,26.0,0,
79400,1867.0,258.5,165.8,66.8,1460.0,7081.0,23.0,1,
79600,1871.5,218.6,183.2,87.0,988.0,6322.0,2.0,0,
79700,1870.5,164.4,183.6,125.2,1344.0,6560.0,2.0,0,
79800,1851.0,26.2,182.6,164.8,1011.0,5215.0,2.0,0,
79900,1857.6,16.9,182.5,165.9,1011.0,5215.0,2.0,0,
80000,1855.5,17.9,182.5,195.3,1011.0,5215.0,2.0,0,
80100,1860.2,16.8,182.5,139.0,1011.0,5215.0,2.0,0,
80200,1863.9,16.6,182.5,239.1,1011.0,5215.0,2.0,0,
80300,1859.5,49.6,182.5,240.0,1011.0,5215.0,2.0,0,
80400,1899.3,49.6,183.7,239.9,1011.0,5215.0,2.0,0,
80600,1851.7,20.4,183.8,50.4,1011.0,5215.0,2.0,0,
80700,1852.3,18.9,183.8,66.0,1011.0,5215.0,2.0,0,
80800,1842.8,237.8,174.5,238.9,1391.0,5930.0,26.0,0,
80900,1891.5,268.5,173.3,66.4,1595.0,6264.0,5.0,1,
81000,1872.3,196.0,177.3,53.5,1153.0,6237.0,2.0,0,
81100,1878.3,158.6,170.2,67.6,1342.0,7091.0,2.0,0,
81200,1834.5,297.4,173.1,99.6,2037.0,7893.0,2.0,0,
81300,1835.9,313.4,185.2,99.9,1339.0,7487.0,25.0,0,
81400,1892.0,42.4,188.4,102.0,1338.0,6455.0,2.0,0,
81600,1857.4,19.1,188.5,90.3,1338.0,6455.0,2.0,0,
81700,1853.2,17.2,188.5,37.2,1338.0,6455.0,2.0,0,
81800,1857.3,16.6,188.4,197.5,1338.0,6455.0,2.0,0,
81900,1869.3,19.4,188.4,240.0,1338.0,6455.0,2.0,0,
82000,1884.3,77.0,187.1,239.9,1338.0,6455.0,2.0,0,
82100,1847.4,31.6,187.8,239.4,1338.0,6455.0,2.0,0,
82200,1847.2,24.4,187.8,49.4,1338.0,6455.0,2.0,0,
82300,1850.3,19.6,187.8,50.4,1338.0,6455.0,2.0,0,
82400,1855.8,130.8,187.9,238.5,951.0,5883.0,6.0,1,
82600,1856.1,132.8,167.7,66.5,1118.0,6747.0,9.0,1,
82700,1836.5,159.8,162.2,66.0,1551.0,7173.0,23.0,1,
82800,1893.5,321.5,162.3,66.0,1732.0,6755.0,2.0,0,
82900,1856.6,361.2,165.5,123.6,1581.0,7182.0,2.0,0,
83000,1841.9,60.2,169.2,101.6,883.0,5412.0,2.0,0,
83100,1858.3,20.0,169.2,80.2,883.0,5412.0,2.0,0,
83200,1858.2,19.4,169.2,39.9,883.0,5412.0,2.0,0,
83300,1854.2,16.4,169.2,38.9,883.0,5412.0,2.0,0,
83400,1859.9,17.6,169.2,52.1,883.0,5412.0,2.0,0,
83600,1851.1,28.3,169.2,240.1,883.0,5412.0,2.0,0,
83700,1855.9,19.1,168.0,240.2,883.0,5412.0,2.0,0,
83800,1857.0,21.9,168.0,240.2,883.0,5412.0,2.0,0,
83900,1860.4,21.1,168.1,240.1,883.0,5412.0,2.0,0,
84000,1845.6,121.7,168.8,239.7,942.0,6031.0,6.0,1,
84100,1843.8,175.0,167.8,69.0,902.0,5744.0,6.0,1,
84200,1889.6,104.5,169.9,65.4,1210.0,6867.0,9.0,1,
84300,1878.3,156.4,170.2,65.8,1340.0,7511.0,8.0,1,
84400,1856.0,234.7,168.1,66.4,1438.0,7054.0,24.0,1,
84600,1857.5,80.7,143.4,164.1,1181.0,6478.0,2.0,0,
84700,1863.7,21.6,143.2,227.4,1181.0,6478.0,2.0,0,
84800,1853.0,20.3,143.1,226.9,1181.0,6478.0,2.0,0,
84900,1848.9,16.6,143.0,195.1,1181.0,6478.0,2.0,0,
85000,1858.9,16.3,143.0,188.3,1181.0,6478.0,2.0,0,
85100,1854.8,27.3,142.8,240.1,1181.0,6478.0,2.0,0,
85200,1887.4,51.5,144.1,239.9,1181.0,6478.0,2.0,0,
85300,1835.1,23.7,143.5,205.3,1181.0,6478.0,2.0,0,
85400,1853.7,21.0,143.6,68.5,1181.0,6478.0,2.0,0,
85600,1873.6,96.6,143.5,239.8,926.0,5990.0,6.0,1,
85700,1842.4,145.8,141.9,140.3,818.0,6447.0,6.0,1,
85800,1892.7,212.2,141.6,65.6,1215.0,6337.0,2.0,0,
85900,1837.8,203.0,147.8,87.2,1550.0,6922.0,2.0,0,
86000,1843.9,220.6,158.7,164.0,1548.0,7446.0,24.0,1,
86100,1911.8,132.5,156.6,163.4,1818.0,7145.0,2.0,0,
86200,1856.5,97.2,153.1,67.8,1292.0,6969.0,2.0,0,
86300,1847.5,21.2,151.9,154.9,1292.0,6969.0,2.0,0,
86400,1862.2,19.9,152.1,227.4,1292.0,6969.0,2.0,0,
86600,1852.1,17.6,152.0,227.3,1292.0,6969.0,2.0,0,
86700,1861.3,20.9,152.0,239.9,1292.0,6969.0,2.0,0,
86800,1890.4,100.9,153.3,239.7,1292.0,6969.0,2.0,0,
86900,1848.5,34.6,154.3,204.6,1292.0,6969.0,2.0,0,
87000,1844.7,21.1,154.2,68.0,1292.0,6969.0,2.0,0,
87100,1850.3,22.0,154.1,57.2,1292.0,6969.0,2.0,0,
87200,1856.0,89.3,154.2,226.9,968.0,6366.0,5.0,1,
87300,1840.2,107.4,153.5,238.5,798.0,6184.0,5.0,1,
87400,1862.7,225.2,151.7,57.6,1437.0,6334.0,21.0,1,
87600,1856.3,232.1,154.4,139.9,1156.0,6524.0,2.0,0,
87700,1849.7,148.5,152.6,166.0,1414.0,6713.0,24.0,1,
87800,1840.1,146.9,155.8,194.4,1077.0,6149.0,2.0,0,
87900,1885.3,22.9,153.1,226.9,1077.0,6149.0,2.0,0,
88000,1861.8,19.9,153.0,229.9,1077.0,6149.0,2.0,0,
88100,1850.1,16.6,153.0,227.6,1077.0,6149.0,2.0,0,
88200,1857.4,15.2,153.1,221.3,1077.0,6149.0,2.0,0,
88300,1863.5,24.9,153.2,239.5,1077.0,6149.0,2.0,0,
88400,1852.7,41.2,153.0,240.1,1077.0,6149.0,2.0,0,
88600,1834.8,22.5,151.5,66.0,1077.0,6149.0,2.0,0,
88700,1850.4,21.1,151.5,29.5,1077.0,6149.0,2.0,0,
88800,1853.5,18.6,151.5,43.5,1077.0,6149.0,2.0,0,
88900,1877.3,113.3,153.4,156.3,871.0,6152.0,5.0,1,
89000,1852.8,150.3,153.2,37.9,943.0,6828.0,10.0,1,
89100,1872.6,172.3,147.1,37.0,1210.0,6509.0,22.0,1,
89200,1839.7,291.6,147.0,66.7,1818.0,7022.0,2.0,0,
89300,1850.8,219.1,158.3,195.4,1201.0,6706.0,24.0,1,
89400,1910.5,217.4,159.0,155.9,1768.0,7056.0,2.0,0,
89600,1861.2,17.6,158.7,116.8,1768.0,7056.0,2.0,0,
89700,1856.7,14.5,158.7,227.5,1768.0,7056.0,2.0,0,
89800,1855.7,17.0,158.7,226.1,1768.0,7056.0,2.0,0,
89900,1857.6,14.9,158.6,239.1,1768.0,7056.0,2.0,0,
90000,1863.0,21.7,158.6,240.0,1768.0,7056.0,2.0,0,
90100,1901.3,82.2,159.3,239.7,1768.0,7056.0,2.0,0,
90200,1815.0,25.4,159.4,72.1,1768.0,7056.0,2.0,0,
90300,1848.8,20.7,159.4,37.0,1768.0,7056.0,2.0,0,
90400,1852.7,20.8,159.4,39.3,1768.0,7056.0,2.0,0,
90600,1844.4,233.4,179.3,41.9,1656.0,7263.0,2.0,0,
90700,1867.1,232.9,181.8,45.1,1108.0,6360.0,22.0,1,
90800,1913.5,295.9,189.8,98.9,1788.0,6774.0,2.0,0,
90900,1847.6,145.6,181.3,101.3,1645.0,6321.0,2.0,0,
91000,1839.0,185.5,180.4,101.5,1361.0,6810.0,2.0,0,
91100,1887.8,33.7,179.2,164.6,1016.0,5753.0,2.0,0,
91200,1864.5,16.9,179.2,194.4,1016.0,5753.0,2.0,0,
91300,1851.9,19.7,179.1,197.1,1016.0,5753.0,2.0,0,
91400,1857.3,15.1,179.2,202.0,1016.0,5753.0,2.0,0,
91600,1868.2,26.0,179.3,240.2,1016.0,5753.0,2.0,0,
91700,1848.0,115.8,178.9,240.2,1016.0,5753.0,2.0,0,
91800,1882.4,35.7,179.9,239.3,1016.0,5753.0,2.0,0,
91900,1844.9,21.7,179.9,53.7,1016.0,5753.0,2.0,0,
92000,1851.0,18.4,179.9,40.9,1016.0,5753.0,2.0,0,
92100,1853.3,194.9,175.1,75.6,869.0,5628.0,6.0,1,
92200,1883.5,223.5,177.9,55.7,1300.0,6418.0,2.0,0,
92300,1850.0,252.4,175.9,36.5,1524.0,6346.0,2.0,0,
92400,1857.6,216.5,173.8,75.2,1320.0,6853.0,23.0,1,
92600,1862.4,331.8,183.6,68.8,957.0,5649.0,2.0,0,
92700,1867.7,68.0,191.6,94.1,949.0,5576.0,2.0,0,
92800,1867.2,19.4,191.6,84.7,949.0,5576.0,2.0,0,
92900,1857.8,18.4,191.6,66.4,949.0,5576.0,2.0,0,
93000,1859.9,16.8,191.6,67.6,949.0,5576.0,2.0,0,
93100,1863.8,15.1,191.6,91.0,949.0,5576.0,2.0,0,
93200,1861.3,18.5,191.6,240.0,949.0,5576.0,2.0,0,
93300,1851.6,133.1,191.5,240.2,949.0,5576.0,2.0,0,
93400,1888.5,38.8,191.8,239.8,949.0,5576.0,2.0,0,
93600,1848.8,20.5,191.7,41.3,949.0,5576.0,2.0,0,
93700,1867.1,134.4,191.8,56.8,1011.0,5987.0,6.0,1,
93800,1829.7,181.1,188.7,71.7,1283.0,6388.0,25.0,0,
93900,1852.8,223.3,188.1,46.7,1862.0,7244.0,2.0,0,
94000,1885.0,179.5,185.1,86.0,953.0,5780.0,2.0,0,
94100,1901.5,271.8,189.6,163.3,1740.0,6588.0,2.0,0,
94200,1833.9,283.9,185.6,141.0,2042.0,6979.0,2.0,0,
94300,1839.1,98.2,178.3,103.2,1177.0,5994.0,2.0,0,
94400,1870.2,19.2,178.2,195.4,1177.0,5994.0,2.0,0,
94600,1853.8,16.3,178.1,125.9,1177.0,5994.0,2.0,0,
94700,1860.7,16.4,178.0,67.1,1177.0,5994.0,2.0,0,
94800,1858.3,22.8,178.0,239.7,1177.0,5994.0,2.0,0,
94900,1865.3,75.4,178.1,240.0,1177.0,5994.0,2.0,0,
95000,1878.6,44.4,177.5,239.8,1177.0,5994.0,2.0,0,
95100,1840.1,22.8,177.5,68.3,1177.0,5994.0,2.0,0,
95200,1849.4,19.3,177.6,35.7,1177.0,5994.0,2.0,0,
95300,1845.5,96.2,177.6,43.0,986.0,6236.0,6.0,1,
95400,1851.3,203.6,178.5,151.7,859.0,6022.0,6.0,1,
95600,1858.0,150.8,164.7,56.6,1239.0,7302.0,9.0,1,
95700,1842.7,236.9,153.9,55.9,1229.0,6588.0,2.0,0,
95800,1854.7,246.1,153.6,66.7,2022.0,7027.0,2.0,0,
95900,1877.7,150.0,153.7,112.7,1199.0,6016.0,2.0,0,
96000,1852.2,22.9,153.1,196.7,1199.0,6016.0,2.0,0,
96100,1860.3,19.0,153.2,226.4,1199.0,6016.0,2.0,0,
96200,1850.3,17.6,153.1,197.9,1199.0,6016.0,2.0,0,
96300,1861.4,16.4,153.2,164.2,1199.0,6016.0,2.0,0,
96400,1861.2,16.3,153.2,239.8,1199.0,6016.0,2.0,0,
96600,1911.9,89.4,153.4,240.1,1199.0,6016.0,2.0,0,
96700,1818.3,29.2,153.5,238.5,1199.0,6016.0,2.0,0,
96800,1845.0,20.7,153.5,50.6,1199.0,6016.0,2.0,0,
96900,1850.6,71.4,153.4,48.3,1199.0,6016.0,2.0,0,
97000,1854.9,144.8,153.1,100.5,841.0,5787.0,5.0,1,
97100,1838.5,189.5,150.3,39.0,1158.0,6497.0,26.0,0,
97200,1880.0,233.3,160.7,52.8,1932.0,7137.0,2.0,0,
97300,1869.4,202.2,169.8,93.6,1253.0,6328.0,2.0,0,
97400,1893.0,265.3,172.5,163.4,1584.0,6816.0,2.0,0,
97600,1858.7,27.4,169.0,102.0,1156.0,5705.0,2.0,0,
97700,1856.7,18.3,168.9,196.3,1156.0,5705.0,2.0,0,
97800,1852.8,17.1,168.9,226.1,1156.0,5705.0,2.0,0,
97900,1862.0,16.3,169.0,217.9,1156.0,5705.0,2.0,0,
98000,1864.0,14.8,169.0,239.9,1156.0,5705.0,2.0,0,
98100,1860.8,23.1,168.9,240.0,1156.0,5705.0,2.0,0,
98200,1855.8,96.9,168.2,238.9,1156.0,5705.0,2.0,0,
98300,1878.4,34.0,168.0,238.0,1156.0,5705.0,2.0,0,
98400,1846.8,20.7,168.0,99.6,1156.0,5705.0,2.0,0,
98600,1861.3,106.4,170.3,102.3,1038.0,6167.0,5.0,1,
98700,1854.8,105.6,169.1,35.5,851.0,6696.0,10.0,1,
98800,1897.6,175.2,161.9,35.1,1322.0,7108.0,2.0,0,
98900,1859.2,295.7,160.4,46.1,2095.0,7333.0,2.0,0,
99000,1824.9,211.5,160.3,131.1,1154.0,6798.0,24.0,1,
99100,1881.4,157.6,154.1,158.4,1831.0,6642.0,2.0,0,
99200,1870.8,27.9,151.4,165.4,1032.0,5379.0,2.0,0,
99300,1863.5,16.5,151.4,230.2,1032.0,5379.0,2.0,0,
99400,1859.2,15.6,151.5,229.1,1032.0,5379.0,2.0,0,
99600,1857.1,15.1,151.4,238.0,1032.0,5379.0,2.0,0,
99700,1857.2,24.0,151.3,240.0,1032.0,5379.0,2.0,0,
99800,1861.9,31.5,151.3,240.1,1032.0,5379.0,2.0,0,
99900,1867.1,34.4,149.9,239.5,1032.0,5379.0,2.0,0,
100000,1842.8,21.2,150.0,53.5,1032.0,5379.0,2.0,0,
100100,1852.1,18.4,150.0,37.0,1032.0,5379.0,2.0,0,
100200,1882.3,153.8,147.9,142.3,979.0,6208.0,6.0,1,
100300,1849.1,143.4,152.7,66.1,853.0,6442.0,10.0,1,
100400,1834.8,136.7,151.6,38.3,935.0,6605.0,2.0,0,
100600,1880.0,127.2,139.0,101.5,1808.0,6977.0,2.0,0,
100700,1860.6,215.9,138.7,214.7,1070.0,6395.0,24.0,1,
100800,1860.3,38.7,140.9,228.2,1007.0,5525.0,2.0,0,
100900,1860.6,17.4,140.9,196.5,1007.0,5525.0,2.0,0,
101000,1854.5,16.1,140.8,124.6,1007.0,5525.0,2.0,0,
101100,1855.9,16.8,140.8,99.9,1007.0,5525.0,2.0,0,
101200,1866.5,14.4,140.9,149.8,1007.0,5525.0,2.0,0,
101300,1859.1,23.3,140.9,239.9,1007.0,5525.0,2.0,0,
101400,1862.9,39.7,141.0,240.0,1007.0,5525.0,2.0,0,
101600,1835.3,22.2,142.2,99.6,1007.0,5525.0,2.0,0,
101700,1850.7,17.0,142.2,41.7,1007.0,5525.0,2.0,0,
101800,1832.4,181.3,142.4,45.6,1008.0,6265.0,6.0,1,
101900,1889.1,243.0,153.9,48.5,1261.0,5950.0,26.0,0,
102000,1865.8,160.5,163.8,35.9,1682.0,6667.0,2.0,0,
102100,1886.5,241.6,168.4,68.5,1318.0,7213.0,23.0,1,
102200,1851.7,161.7,166.4,105.1,1728.0,6864.0,2.0,0,
102300,1824.7,205.1,170.3,100.1,960.0,6289.0,2.0,0,
102400,1884.7,63.3,170.1,166.0,1021.0,5359.0,2.0,0,
102600,1858.2,17.0,170.1,125.7,1021.0,5359.0,2.0,0,
102700,1852.8,16.3,170.1,91.8,1021.0,5359.0,2.0,0,
102800,1862.4,15.7,170.1,94.7,1021.0,5359.0,2.0,0,
102900,1860.7,24.0,170.1,240.1,1021.0,5359.0,2.0,0,
103000,1862.8,20.5,170.0,240.1,1021.0,5359.0,2.0,0,
103100,1876.9,44.0,169.2,239.9,1021.0,5359.0,2.0,0,
103200,1838.0,20.4,169.1,239.3,1021.0,5359.0,2.0,0,
103300,1854.4,17.2,169.1,147.6,1021.0,5359.0,2.0,0,
103400,1866.7,105.7,169.1,238.0,905.0,6068.0,6.0,1,
103600,1863.5,133.8,164.4,45.5,1001.0,6786.0,9.0,1,
103700,1844.5,132.2,155.3,65.6,1096.0,7088.0,9.0,1,
103800,1893.5,203.0,150.5,87.0,1299.0,6859.0,8.0,1,
103900,1872.0,135.8,141.9,110.6,1403.0,7469.0,7.0,1,
104000,1840.9,73.4,133.7,55.0,1504.0,7387.0,7.0,1,
104100,1849.7,19.1,133.4,49.8,1504.0,7387.0,7.0,1,
104200,1855.3,16.6,133.4,66.0,1504.0,7387.0,7.0,1,
104300,1851.5,16.8,133.3,54.2,1504.0,7387.0,7.0,1,
104400,1863.8,15.1,133.4,56.3,1504.0,7387.0,7.0,1,
104600,1859.4,29.6,133.3,240.1,1504.0,7387.0,7.0,1,
104700,1876.3,34.4,133.7,240.2,1504.0,7387.0,7.0,1,
104800,1844.4,20.3,133.4,238.7,1504.0,7387.0,7.0,1,
104900,1853.6,16.2,133.4,92.8,1504.0,7387.0,7.0,1,
105000,1852.6,107.4,133.4,238.2,969.0,6316.0,6.0,1,
105100,1829.2,108.4,133.8,91.2,896.0,5939.0,5.0,1,
105200,1885.4,166.4,122.1,35.8,1272.0,6384.0,21.0,1,
105300,1906.6,183.0,131.0,50.3,1784.0,7073.0,2.0,0,
105400,1839.7,238.7,139.0,98.9,954.0,6079.0,2.0,0,
105600,1835.2,152.0,152.8,103.4,1205.0,5968.0,2.0,0,
105700,1884.9,22.0,153.3,101.1,1205.0,5968.0,2.0,0,
105800,1857.3,19.8,153.3,226.8,1205.0,5968.0,2.0,0,
105900,1853.1,19.2,153.3,227.1,1205.0,5968.0,2.0,0,
106000,1868.1,17.2,153.5,220.9,1205.0,5968.0,2.0,0,
106100,1859.9,22.7,153.5,240.0,1205.0,5968.0,2.0,0,
106200,1861.6,26.4,153.6,240.2,1205.0,5968.0,2.0,0,
106300,1895.3,61.7,154.7,239.9,1205.0,5968.0,2.0,0,
106400,1830.3,22.9,154.8,238.4,1205.0,5968.0,2.0,0,
106600,1854.0,17.5,154.7,237.4,1205.0,5968.0,2.0,0,
106700,1887.0,119.6,154.2,238.9,1012.0,6074.0,5.0,1,
106800,1854.5,132.0,151.2,65.6,837.0,6887.0,10.0,1,
106900,1863.2,173.0,150.2,65.6,1380.0,6873.0,2.0,0,
107000,1852.5,200.0,152.9,74.8,1973.0,7202.0,2.0,0,
107100,1878.5,231.6,152.0,125.5,1023.0,6699.0,2.0,0,
107200,1893.9,164.0,157.6,163.3,1665.0,7251.0,2.0,0,
107300,1846.2,27.4,155.2,163.7,1170.0,6403.0,2.0,0,
107400,1865.1,17.1,155.2,164.3,1170.0,6403.0,2.0,0,
107600,1860.3,16.7,155.2,152.6,1170.0,6403.0,2.0,0,
107700,1868.0,25.2,155.2,239.5,1170.0,6403.0,2.0,0,
107800,1861.6,54.7,155.2,239.9,1170.0,6403.0,2.0,0,
107900,1896.3,65.3,156.8,239.5,1170.0,6403.0,2.0,0,
108000,1829.2,26.2,156.8,133.0,1170.0,6403.0,2.0,0,
108100,1845.2,20.8,156.8,75.9,1170.0,6403.0,2.0,0,
108200,1849.5,28.3,156.8,114.0,1170.0,6403.0,2.0,0,
108300,1852.2,256.3,164.8,88.8,1387.0,5924.0,2.0,0,
108400,1861.8,264.3,178.9,38.5,1693.0,6108.0,6.0,1,
108600,1898.8,189.0,182.7,92.8,1591.0,6879.0,2.0,0,
108700,1819.8,265.0,187.9,100.4,1721.0,6819.0,2.0,0,
108800,1854.3,304.0,193.1,104.3,1396.0,7153.0,24.0,1,
108900,1884.2,42.6,197.7,125.9,944.0,5806.0,2.0,0,
109000,1860.4,19.4,197.7,92.7,944.0,5806.0,2.0,0,
109100,1853.2,18.7,197.7,91.1,944.0,5806.0,2.0,0,
109200,1859.0,16.9,197.7,83.7,944.0,5806.0,2.0,0,
109300,1865.4,30.8,197.7,100.1,944.0,5806.0,2.0,0,
109400,1858.1,33.1,197.8,239.9,944.0,5806.0,2.0,0,
109600,1835.5,21.3,196.1,227.3,944.0,5806.0,2.0,0,
109700,1849.4,20.0,196.1,49.7,944.0,5806.0,2.0,0,
109800,1854.0,18.7,196.1,105.0,944.0,5806.0,2.0,0,
109900,1861.7,173.3,191.6,239.5,1037.0,6142.0,6.0,1,
110000,1879.6,330.1,191.5,65.6,1237.0,6057.0,2.0,0,
110100,1846.1,172.0,190.2,36.0,1754.0,6317.0,2.0,0,
110200,1857.4,229.3,191.1,41.6,1390.0,7098.0,23.0,1,
110300,1859.8,155.6,186.7,99.4,1680.0,6504.0,2.0,0,
110400,1877.2,218.6,181.1,84.1,1349.0,6531.0,2.0,0,
110600,1865.2,17.5,171.0,194.5,1349.0,6531.0,2.0,0,
110700,1854.7,17.5,171.0,106.9,1349.0,6531.0,2.0,0,
110800,1855.7,15.0,171.0,87.8,1349.0,6531.0,2.0,0,
110900,1858.1,15.2,170.9,98.8,1349.0,6531.0,2.0,0,
111000,1865.0,33.4,170.9,239.8,1349.0,6531.0,2.0,0,
111100,1887.4,64.7,170.9,239.7,1349.0,6531.0,2.0,0,
111200,1828.8,22.6,170.9,88.7,1349.0,6531.0,2.0,0,
111300,1852.2,17.6,170.9,39.2,1349.0,6531.0,2.0,0,
111400,1854.8,20.4,170.9,41.9,1349.0,6531.0,2.0,0,
111600,1848.6,286.2,167.7,93.0,1200.0,6342.0,26.0,0,
111700,1891.0,163.0,164.1,46.4,1558.0,6264.0,2.0,0,
111800,1865.1,208.4,167.1,44.5,1024.0,6254.0,2.0,0,
111900,1890.0,137.5,164.1,99.2,1397.0,6198.0,2.0,0,
112000,1826.2,214.8,163.9,99.6,1889.0,6918.0,2.0,0,
112100,1845.9,70.4,164.0,133.5,992.0,5632.0,2.0,0,
112200,1870.9,16.6,164.0,197.6,992.0,5632.0,2.0,0,
112300,1858.9,18.7,164.0,157.4,992.0,5632.0,2.0,0,
112400,1852.1,15.5,164.0,90.4,992.0,5632.0,2.0,0,
112600,1864.3,23.9,163.9,239.8,992.0,5632.0,2.0,0,
112700,1853.9,35.8,163.7,240.0,992.0,5632.0,2.0,0,
112800,1859.2,25.3,163.2,239.9,992.0,5632.0,2.0,0,
112900,1852.8,19.6,163.2,211.8,992.0,5632.0,2.0,0,
113000,1853.4,19.0,163.2,84.3,992.0,5632.0,2.0,0,
113100,1869.3,95.0,163.2,239.4,993.0,6171.0,6.0,1,
113200,1840.4,236.4,161.5,183.2,894.0,6219.0,5.0,1,
113300,1905.4,189.2,158.3,56.5,1162.0,6629.0,21.0,1,
113400,1841.4,193.7,160.0,40.5,1873.0,7158.0,2.0,0,
113600,1894.5,218.1,164.2,130.9,1836.0,6896.0,2.0,0,
113700,1865.7,139.2,165.6,99.0,1152.0,5967.0,2.0,0,
113800,1845.8,20.8,165.9,154.8,1152.0,5967.0,2.0,0,
113900,1857.8,18.0,165.9,227.5,1152.0,5967.0,2.0,0,
114000,1852.1,15.6,165.9,227.4,1152.0,5967.0,2.0,0,
114100,1864.5,13.2,165.9,220.7,1152.0,5967.0,2.0,0,
114200,1860.3,22.2,165.9,239.9,1152.0,5967.0,2.0,0,
114300,1858.6,53.9,165.9,240.1,1152.0,5967.0,2.0,0,
114400,1880.1,39.6,167.4,239.6,1152.0,5967.0,2.0,0,
114600,1851.7,17.7,167.4,44.0,1152.0,5967.0,2.0,0,
114700,1856.0,96.6,167.4,122.2,1011.0,6058.0,6.0,1,
114800,1855.5,121.7,167.9,237.8,894.0,6339.0,5.0,1,
114900,1851.3,218.7,157.9,56.0,1317.0,6833.0,21.0,1,
115000,1896.6,148.8,152.6,65.7,1603.0,6646.0,2.0,0,
115100,1867.4,248.8,159.6,103.1,1561.0,6873.0,2.0,0,
115200,1857.9,182.8,155.8,156.8,1577.0,6831.0,24.0,1,
115300,1850.8,190.6,154.4,135.6,1090.0,5840.0,2.0,0,
115400,1863.0,25.7,152.7,157.3,1090.0,5840.0,2.0,0,
115600,1853.1,18.5,152.7,230.3,1090.0,5840.0,2.0,0,
115700,1862.3,16.6,152.7,227.3,1090.0,5840.0,2.0,0,
115800,1862.3,21.9,152.8,239.8,1090.0,5840.0,2.0,0,
115900,1856.5,53.2,152.7,240.0,1090.0,5840.0,2.0,0,
116000,1873.9,34.5,151.7,239.7,1090.0,5840.0,2.0,0,
116100,1849.1,19.6,151.7,156.8,1090.0,5840.0,2.0,0,
116200,1851.4,19.1,151.7,133.9,1090.0,5840.0,2.0,0,
116300,1854.6,106.2,151.7,239.4,1090.0,5840.0,2.0,0,
116400,1879.3,316.5,166.3,81.5,1414.0,5884.0,2.0,0,
116600,1871.2,237.8,189.5,35.8,1400.0,6591.0,22.0,1,
116700,1851.0,198.2,189.8,39.8,1868.0,6926.0,2.0,0,
116800,1831.7,155.9,189.2,83.6,994.0,5716.0,2.0,0,
116900,1917.8,126.6,187.9,134.8,1516.0,6830.0,2.0,0,
117000,1849.1,25.4,184.3,195.3,1013.0,5916.0,2.0,0,
117100,1859.2,19.7,184.3,197.1,1013.0,5916.0,2.0,0,
117200,1849.6,18.1,184.3,226.1,1013.0,5916.0,2.0,0,
117300,1864.6,15.5,184.3,178.3,1013.0,5916.0,2.0,0,
117400,1861.5,13.5,184.3,239.3,1013.0,5916.0,2.0,0,
117600,1880.5,55.9,184.3,239.8,1013.0,5916.0,2.0,0,
117700,1835.3,21.0,184.4,217.6,1013.0,5916.0,2.0,0,
117800,1852.3,20.1,184.4,41.6,1013.0,5916.0,2.0,0,
117900,1853.8,18.2,184.4,67.0,1013.0,5916.0,2.0,0,
118000,1867.7,266.9,177.9,239.2,1267.0,6417.0,27.0,0,
118100,1855.1,311.0,175.0,37.9,1648.0,6927.0,5.0,1,
118200,1858.2,161.8,174.9,36.1,1160.0,6454.0,2.0,0,
118300,1897.3,246.1,172.3,53.5,1511.0,7303.0,2.0,0,
118400,1867.5,147.4,171.7,101.9,1805.0,7022.0,2.0,0,
118600,1882.5,34.7,173.0,194.5,1107.0,6152.0,2.0,0,
118700,1861.0,18.7,173.0,194.6,1107.0,6152.0,2.0,0,
118800,1850.5,18.9,173.0,164.2,1107.0,6152.0,2.0,0,
118900,1854.5,17.9,173.0,144.4,1107.0,6152.0,2.0,0,
119000,1865.5,18.1,173.0,237.9,1107.0,6152.0,2.0,0,
119100,1865.4,26.4,173.0,240.1,1107.0,6152.0,2.0,0,
119200,1882.7,56.2,173.7,239.8,1107.0,6152.0,2.0,0,
119300,1836.2,22.3,173.1,237.7,1107.0,6152.0,2.0,0,
119400,1848.8,20.3,173.1,124.8,1107.0,6152.0,2.0,0,
119600,1837.8,123.7,172.9,239.8,1039.0,6253.0,6.0,1,
119700,1881.2,256.4,162.9,69.2,1303.0,6459.0,26.0,0,
119800,1903.5,269.7,155.7,56.7,1586.0,6700.0,2.0,0,
119900,1830.6,154.6,163.7,68.3,1033.0,6487.0,2.0,0,
120000,1871.9,212.9,158.4,100.7,1682.0,6421.0,2.0,0,
120100,1841.6,249.7,160.9,103.3,1842.0,6995.0,2.0,0,
120200,1869.1,70.8,165.6,187.9,1205.0,6226.0,2.0,0,
120300,1867.2,20.5,165.6,227.7,1205.0,6226.0,2.0,0,
120400,1853.5,19.2,165.6,226.1,1205.0,6226.0,2.0,0,
120600,1863.2,16.3,165.6,143.8,1205.0,6226.0,2.0,0,
120700,1867.8,31.1,165.5,240.0,1205.0,6226.0,2.0,0,
120800,1884.9,69.5,166.1,239.8,1205.0,6226.0,2.0,0,
120900,1830.9,21.4,165.7,237.8,1205.0,6226.0,2.0,0,
121000,1851.6,20.2,165.7,165.1,1205.0,6226.0,2.0,0,
121100,1851.6,18.0,165.7,238.9,1205.0,6226.0,2.0,0,
121200,1874.5,130.7,165.7,239.9,1062.0,6919.0,5.0,1,
121300,1832.3,238.3,163.7,72.4,949.0,6491.0,5.0,1,
121400,1885.7,297.2,167.2,48.7,1231.0,6911.0,18.0,1,
121600,1881.7,306.8,182.4,66.0,1376.0,7139.0,8.0,1,
121700,1888.3,206.7,190.3,67.3,2029.0,7296.0,16.0,1,
121800,1818.7,71.2,181.7,130.6,1713.0,8839.0,7.0,1,
121900,1869.9,18.2,181.1,88.0,1713.0,8839.0,7.0,1,
122000,1854.7,19.1,181.1,56.3,1713.0,8839.0,7.0,1,
122100,1851.5,17.2,181.1,41.6,1713.0,8839.0,7.0,1,
122200,1867.3,16.8,181.1,43.6,1713.0,8839.0,7.0,1,
122300,1867.5,27.0,181.0,239.9,1713.0,8839.0,7.0,1,
122400,1899.2,72.0,182.4,240.1,1713.0,8839.0,7.0,1,
122600,1851.2,18.5,181.5,199.6,1713.0,8839.0,7.0,1,
122700,1852.1,19.3,181.5,238.5,1713.0,8839.0,7.0,1,
122800,1859.2,171.1,181.9,239.9,1042.0,6853.0,5.0,1,
122900,1851.9,87.9,187.5,30.1,1018.0,6698.0,5.0,1,
123000,1879.2,121.4,177.5,29.1,1012.0,7383.0,10.0,1,
123100,1890.7,170.4,163.9,29.8,1234.0,7317.0,8.0,1,
123200,1818.1,147.7,147.9,66.2,1502.0,8400.0,8.0,1,
123300,1863.7,125.7,131.5,66.4,1486.0,7347.0,2.0,0,
123400,1890.1,97.3,131.3,67.3,1264.0,6781.0,2.0,0,
123600,1853.1,18.3,129.7,229.9,1264.0,6781.0,2.0,0,
123700,1851.4,17.0,129.7,229.0,1264.0,6781.0,2.0,0,
123800,1865.6,15.5,129.7,228.3,1264.0,6781.0,2.0,0,
123900,1874.3,24.1,129.8,239.9,1264.0,6781.0,2.0,0,
124000,1843.2,35.1,128.7,240.1,1264.0,6781.0,2.0,0,
124100,1858.0,22.5,127.8,239.5,1264.0,6781.0,2.0,0,
124200,1854.3,16.9,127.9,146.3,1264.0,6781.0,2.0,0,
124300,1852.1,18.7,127.9,110.5,1264.0,6781.0,2.0,0,
124400,1857.7,32.9,127.9,239.6,1264.0,6781.0,2.0,0,
124600,1844.2,133.0,122.1,49.9,1009.0,6947.0,10.0,1,
124700,1867.1,226.4,123.9,41.7,1266.0,6358.0,2.0,0,
124800,1869.0,140.5,137.0,66.9,1953.0,6995.0,2.0,0,
124900,1868.7,157.6,141.5,132.0,973.0,6085.0,2.0,0,
125000,1875.0,138.1,141.1,220.2,1624.0,6782.0,2.0,0,
125100,1855.8,24.7,140.8,226.0,1132.0,5899.0,2.0,0,
125200,1858.4,17.4,140.8,226.2,1132.0,5899.0,2.0,0,
125300,1851.7,17.4,140.9,226.3,1132.0,5899.0,2.0,0,
125400,1861.9,14.6,140.8,172.7,1132.0,5899.0,2.0,0,
125600,1856.2,31.8,140.8,240.0,1132.0,5899.0,2.0,0,
125700,1876.8,39.2,141.5,239.4,1132.0,5899.0,2.0,0,
125800,1845.4,18.4,141.5,141.0,1132.0,5899.0,2.0,0,
125900,1856.0,19.1,141.6,177.5,1132.0,5899.0,2.0,0,
126000,1852.3,15.9,141.5,239.7,1132.0,5899.0,2.0,0,
126100,1850.7,301.3,147.9,237.5,1184.0,5350.0,2.0,0,
126200,1895.6,257.4,165.9,35.5,1607.0,6897.0,6.0,1,
126300,1867.8,213.4,173.3,35.3,919.0,6026.0,2.0,0,
126400,1871.5,177.8,167.8,40.5,1457.0,6419.0,2.0,0,
126600,1850.7,310.5,181.4,102.0,1579.0,8046.0,25.0,0,
126700,1889.8,41.9,186.6,101.5,1391.0,6462.0,2.0,0,
126800,1856.5,20.9,186.6,130.0,1391.0,6462.0,2.0,0,
126900,1852.6,16.3,186.6,130.0,1391.0,6462.0,2.0,0,
127000,1867.1,16.3,186.7,72.6,1391.0,6462.0,2.0,0,
127100,1869.2,29.6,186.8,239.0,1391.0,6462.0,2.0,0,
127200,1848.0,60.3,186.7,240.2,1391.0,6462.0,2.0,0,
127300,1874.5,25.1,186.7,239.8,1391.0,6462.0,2.0,0,
127400,1856.7,22.0,186.7,238.6,1391.0,6462.0,2.0,0,
127600,1852.5,16.4,186.7,239.5,1391.0,6462.0,2.0,0,
127700,1863.7,262.6,184.5,239.8,1054.0,6482.0,6.0,1,
127800,1889.9,304.7,184.2,36.6,1109.0,5915.0,2.0,0,
127900,1841.3,217.0,183.2,35.2,1744.0,6786.0,2.0,0,
128000,1838.9,196.7,185.5,35.9,1467.0,6650.0,23.0,1,
128100,1899.7,240.9,183.0,99.5,1951.0,7236.0,2.0,0,
128200,1859.9,304.6,182.1,137.0,1635.0,7344.0,2.0,0,
128300,1834.4,58.2,180.3,190.0,1345.0,6557.0,2.0,0,
128400,1856.0,20.4,180.2,226.5,1345.0,6557.0,2.0,0,
128600,1862.2,15.8,180.2,66.6,1345.0,6557.0,2.0,0,
128700,1863.6,18.3,180.2,164.2,1345.0,6557.0,2.0,0,
128800,1853.8,87.8,180.0,240.2,1345.0,6557.0,2.0,0,
128900,1876.7,27.7,180.6,240.1,1345.0,6557.0,2.0,0,
129000,1853.0,20.4,180.6,238.5,1345.0,6557.0,2.0,0,
129100,1851.4,17.4,180.6,157.1,1345.0,6557.0,2.0,0,
129200,1856.2,18.5,180.6,239.4,1345.0,6557.0,2.0,0,
129300,1846.1,111.3,181.1,240.1,1040.0,6064.0,5.0,1,
129400,1843.3,212.0,168.7,72.8,1249.0,6305.0,26.0,0,
129600,1867.8,223.7,168.5,66.8,1498.0,6750.0,2.0,0,
129700,1847.8,242.7,168.5,102.2,1481.0,7018.0,24.0,1,
129800,1855.2,266.8,165.2,131.2,1989.0,7403.0,2.0,0,
129900,1847.3,86.3,167.2,98.7,1228.0,5882.0,2.0,0,
130000,1868.6,21.5,167.3,226.3,1228.0,5882.0,2.0,0,
130100,1854.7,17.5,167.3,229.0,1228.0,5882.0,2.0,0,
130200,1863.9,17.3,167.4,226.2,1228.0,5882.0,2.0,0,
130300,1863.5,28.3,167.4,225.9,1228.0,5882.0,2.0,0,
130400,1857.5,23.5,167.5,240.1,1228.0,5882.0,2.0,0,
130600,1842.7,17.4,166.6,239.4,1228.0,5882.0,2.0,0,
130700,1856.7,18.1,166.7,238.2,1228.0,5882.0,2.0,0,
130800,1854.5,17.4,166.6,237.7,1228.0,5882.0,2.0,0,
130900,1884.2,125.0,169.3,239.5,1035.0,6421.0,6.0,1,
131000,1844.2,147.0,170.4,30.2,848.0,6475.0,5.0,1,
131100,1862.4,197.6,161.2,29.7,1314.0,6517.0,21.0,1,
131200,1857.7,171.3,157.4,44.2,1744.0,7044.0,2.0,0,
131300,1828.3,261.9,159.7,131.0,981.0,5628.0,2.0,0,
131400,1912.9,279.1,165.8,166.2,1715.0,6738.0,2.0,0,
131600,1838.9,20.7,166.4,43.1,1715.0,6738.0,2.0,0,
131700,1856.8,17.9,166.4,197.2,1715.0,6738.0,2.0,0,
131800,1859.8,14.5,166.4,227.1,1715.0,6738.0,2.0,0,
131900,1859.9,15.3,166.3,216.2,1715.0,6738.0,2.0,0,
132000,1866.7,23.2,166.2,239.8,1715.0,6738.0,2.0,0,
132100,1851.0,36.3,165.9,240.0,1715.0,6738.0,2.0,0,
132200,1865.8,17.4,165.9,239.9,1715.0,6738.0,2.0,0,
132300,1853.8,13.7,165.9,239.0,1715.0,6738.0,2.0,0,
132400,1857.0,15.0,165.9,231.6,1715.0,6738.0,2.0,0,
132600,1864.0,122.3,163.6,67.3,867.0,6432.0,5.0,1,
132700,1849.5,143.5,162.9,35.9,1023.0,6499.0,10.0,1,
132800,1901.0,125.7,158.2,35.6,1360.0,6337.0,2.0,0,
132900,1857.7,241.8,157.5,66.8,1833.0,7112.0,2.0,0,
133000,1833.7,210.0,148.9,164.7,1241.0,6379.0,24.0,1,
133100,1862.3,140.8,141.8,163.6,952.0,5176.0,2.0,0,
133200,1877.3,22.7,136.4,164.4,952.0,5176.0,2.0,0,
133300,1857.7,17.4,136.5,230.9,952.0,5176.0,2.0,0,
133400,1853.3,14.9,136.4,229.7,952.0,5176.0,2.0,0,
133600,1869.4,26.2,136.6,239.7,952.0,5176.0,2.0,0,
133700,1845.5,19.3,136.4,240.0,952.0,5176.0,2.0,0,
133800,1859.4,20.5,136.0,240.0,952.0,5176.0,2.0,0,
133900,1859.7,16.1,136.1,239.9,952.0,5176.0,2.0,0,
134000,1858.8,14.5,136.1,239.8,952.0,5176.0,2.0,0,
134100,1861.7,9.4,136.2,240.0,952.0,5176.0,2.0,0,
134200,1887.5,125.1,133.6,239.5,988.0,5849.0,6.0,1,
134300,1860.3,148.8,133.7,56.3,887.0,6284.0,5.0,1,
134400,1836.5,162.2,131.2,38.0,799.0,5997.0,9.0,1,
134600,1851.2,232.8,135.6,130.9,982.0,5895.0,2.0,0,
134700,1884.0,187.0,136.8,164.7,1301.0,6282.0,23.0,1,
134800,1853.7,27.7,135.9,158.7,780.0,4688.0,2.0,0,
134900,1864.4,16.5,135.9,164.8,780.0,4688.0,2.0,0,
135000,1859.1,18.8,135.9,220.9,780.0,4688.0,2.0,0,
135100,1874.2,13.1,136.0,219.0,780.0,4688.0,2.0,0,
135200,1864.5,15.5,136.1,239.6,780.0,4688.0,2.0,0,
135300,1856.4,14.6,135.9,240.1,780.0,4688.0,2.0,0,
135400,1861.7,25.9,135.9,240.0,780.0,4688.0,2.0,0,
135600,1859.2,14.7,135.9,239.5,780.0,4688.0,2.0,0,
135700,1858.5,16.6,135.9,239.8,780.0,4688.0,2.0,0,
135800,1844.3,242.8,138.4,239.8,1056.0,6136.0,26.0,0,
135900,1868.5,168.8,153.4,51.4,1288.0,6714.0,4.0,1,
136000,1868.3,258.6,160.1,38.2,1466.0,6134.0,2.0,0,
136100,1888.1,158.1,167.2,77.6,1477.0,7286.0,23.0,1,
136200,1868.2,248.8,162.2,100.5,1648.0,6631.0,2.0,0,
136300,1824.9,230.2,172.7,69.6,1065.0,6405.0,2.0,0,
136400,1873.1,36.5,171.5,131.5,994.0,5588.0,2.0,0,
136600,1850.2,16.9,171.5,55.9,994.0,5588.0,2.0,0,
136700,1855.3,15.2,171.5,53.5,994.0,5588.0,2.0,0,
136800,1866.6,25.2,171.5,136.5,994.0,5588.0,2.0,0,
136900,1866.9,36.9,171.8,239.7,994.0,5588.0,2.0,0,
137000,1854.3,16.3,171.8,238.5,994.0,5588.0,2.0,0,
137100,1854.2,16.9,171.8,237.6,994.0,5588.0,2.0,0,
137200,1857.7,15.3,171.8,238.8,994.0,5588.0,2.0,0,
137300,1860.4,15.0,171.8,240.0,994.0,5588.0,2.0,0,
137400,1865.4,109.6,171.6,240.2,1020.0,6222.0,6.0,1,
137600,1876.8,312.1,168.4,66.2,1741.0,6425.0,17.0,1,
137700,1823.9,336.0,176.0,66.7,1610.0,7434.0,17.0,1,
137800,1867.0,201.6,190.0,66.8,1730.0,7615.0,16.0,1,
137900,1878.2,102.4,178.8,67.1,1540.0,8304.0,7.0,1,
138000,1844.0,41.6,173.9,67.4,1544.0,8106.0,7.0,1,
138100,1860.8,16.8,173.8,67.6,1544.0,8106.0,7.0,1,
138200,1854.3,17.6,173.8,56.8,1544.0,8106.0,7.0,1,
138300,1860.4,15.6,173.9,39.8,1544.0,8106.0,7.0,1,
138400,1862.5,20.5,173.8,69.6,1544.0,8106.0,7.0,1,
138600,1870.2,16.6,173.6,239.8,1544.0,8106.0,7.0,1,
138700,1857.0,15.2,173.6,239.4,1544.0,8106.0,7.0,1,
138800,1856.6,14.7,173.6,239.4,1544.0,8106.0,7.0,1,
138900,1859.0,14.2,173.6,239.9,1544.0,8106.0,7.0,1,
139000,1879.7,156.9,174.0,240.2,1035.0,6173.0,6.0,1,
139100,1825.0,148.9,175.2,66.7,863.0,6364.0,10.0,1,
139200,1873.8,215.9,168.9,65.6,1133.0,6117.0,2.0,0,
139300,1870.4,234.8,160.1,67.3,1723.0,7050.0,2.0,0,
139400,1869.1,220.3,144.6,100.0,1171.0,6961.0,2.0,0,
139600,1837.8,103.5,160.2,130.4,1152.0,6113.0,2.0,0,
139700,1869.7,20.8,160.2,226.8,1152.0,6113.0,2.0,0,
139800,1852.5,19.3,160.1,241.8,1152.0,6113.0,2.0,0,
139900,1854.4,14.0,160.1,227.8,1152.0,6113.0,2.0,0,
140000,1868.8,26.9,160.3,229.4,1152.0,6113.0,2.0,0,
140100,1854.4,23.8,160.4,240.3,1152.0,6113.0,2.0,0,
140200,1872.1,18.9,160.3,240.0,1152.0,6113.0,2.0,0,
140300,1852.2,15.5,160.3,239.7,1152.0,6113.0,2.0,0,
140400,1856.8,15.8,160.3,239.7,1152.0,6113.0,2.0,0,
140600,1862.7,69.7,160.2,240.1,984.0,5960.0,7.0,1,
140700,1853.4,101.0,159.6,73.2,876.0,6626.0,5.0,1,
140800,1874.5,113.8,158.1,44.7,855.0,6488.0,22.0,1,
140900,1883.9,237.3,150.5,56.4,1470.0,6358.0,2.0,0,
141000,1830.7,246.1,156.0,100.4,1220.0,6388.0,2.0,0,
141100,1853.9,245.0,157.9,122.8,1386.0,6496.0,2.0,0,
141200,1895.2,160.8,154.5,72.3,1052.0,5586.0,2.0,0,
141300,1852.2,20.7,153.3,130.6,1052.0,5586.0,2.0,0,
141400,1859.1,19.1,153.3,233.5,1052.0,5586.0,2.0,0,
141600,1859.1,14.9,153.2,228.0,1052.0,5586.0,2.0,0,
141700,1870.3,26.7,153.3,239.9,1052.0,5586.0,2.0,0,
141800,1843.1,65.9,152.9,240.0,1052.0,5586.0,2.0,0,
141900,1874.6,22.0,153.9,239.4,1052.0,5586.0,2.0,0,
142000,1860.9,19.1,154.0,196.0,1052.0,5586.0,2.0,0,
142100,1853.9,18.5,154.0,135.8,1052.0,5586.0,2.0,0,
142200,1855.4,169.8,154.0,239.3,1052.0,5586.0,2.0,0,
142300,1883.0,288.6,164.8,93.2,1204.0,5544.0,2.0,0,
142400,1840.5,275.5,182.4,45.4,1025.0,5976.0,2.0,0,
142600,1887.9,218.3,183.4,56.6,1848.0,6747.0,2.0,0,
142700,1849.2,177.6,183.8,98.7,896.0,5559.0,2.0,0,
142800,1859.5,187.1,178.5,158.7,1486.0,6269.0,2.0,0,
142900,1865.6,23.9,174.9,197.2,904.0,5095.0,2.0,0,
143000,1857.8,16.0,174.8,231.4,904.0,5095.0,2.0,0,
143100,1855.7,16.4,174.8,261.6,904.0,5095.0,2.0,0,
143200,1862.1,13.4,174.9,239.9,904.0,5095.0,2.0,0,
143300,1860.6,15.8,174.9,239.9,904.0,5095.0,2.0,0,
143400,1867.0,22.8,174.9,240.0,904.0,5095.0,2.0,0,
143600,1867.3,16.3,174.3,239.7,904.0,5095.0,2.0,0,
143700,1856.6,13.8,174.3,239.5,904.0,5095.0,2.0,0,
143800,1859.2,13.6,174.3,239.7,904.0,5095.0,2.0,0,
143900,1860.1,258.0,169.5,239.3,1087.0,5390.0,26.0,0,
144000,1885.7,245.0,165.7,39.8,1197.0,6391.0,26.0,0,
144100,1856.7,311.5,171.5,39.3,1560.0,6969.0,18.0,1,
144200,1845.9,327.6,180.7,82.3,1351.0,6787.0,16.0,1,
144300,1857.6,375.1,190.3,99.5,2112.0,7672.0,17.0,1,
144400,1861.8,260.1,203.4,99.4,1469.0,7585.0,7.0,1,
144600,1855.8,17.1,205.2,66.1,1469.0,7585.0,7.0,1,
144700,1852.0,20.6,205.2,36.0,1469.0,7585.0,7.0,1,
144800,1855.9,17.4,205.2,35.2,1469.0,7585.0,7.0,1,
144900,1861.4,22.7,205.3,54.3,1469.0,7585.0,7.0,1,
145000,1867.2,15.6,205.2,240.0,1469.0,7585.0,7.0,1,
145100,1858.5,15.8,205.3,239.3,1469.0,7585.0,7.0,1,
145200,1859.4,13.1,205.1,239.3,1469.0,7585.0,7.0,1,
145300,1859.1,15.9,205.1,240.1,1469.0,7585.0,7.0,1,
145400,1859.8,14.2,205.1,240.2,1469.0,7585.0,7.0,1,
145600,1839.2,177.5,196.6,55.1,800.0,6138.0,26.0,0,
145700,1866.8,171.2,190.5,43.6,1645.0,6805.0,2.0,0,
145800,1856.7,175.6,182.4,65.6,1194.0,6625.0,2.0,0,
145900,1899.9,111.1,162.3,112.3,1106.0,6688.0,2.0,0,
146000,1850.5,178.5,141.3,131.4,1864.0,7000.0,2.0,0,
146100,1857.5,43.4,142.9,158.4,1110.0,6008.0,2.0,0,
146200,1863.9,16.2,143.0,227.9,1110.0,6008.0,2.0,0,
146300,1854.5,21.0,143.0,228.4,1110.0,6008.0,2.0,0,
146400,1854.1,17.9,143.0,227.2,1110.0,6008.0,2.0,0,
146600,1874.2,18.6,143.2,239.8,1110.0,6008.0,2.0,0,
146700,1855.1,12.1,143.2,238.6,1110.0,6008.0,2.0,0,
146800,1854.8,14.6,143.1,167.4,1110.0,6008.0,2.0,0,
146900,1857.8,16.4,143.1,239.5,1110.0,6008.0,2.0,0,
147000,1861.3,16.5,143.1,240.3,1110.0,6008.0,2.0,0,
147100,1857.0,122.1,143.7,239.4,976.0,6508.0,5.0,1,
147200,1855.0,93.2,144.5,40.3,1003.0,6810.0,10.0,1,
147300,1886.1,144.4,139.6,36.6,1301.0,6958.0,23.0,1,
147400,1862.9,243.1,134.9,43.0,1549.0,6596.0,2.0,0,
147600,1872.0,287.8,159.1,88.1,1580.0,7342.0,2.0,0,
147700,1884.5,61.4,160.9,40.7,964.0,5792.0,2.0,0,
147800,1866.5,17.8,160.7,41.7,964.0,5792.0,2.0,0,
147900,1857.4,16.9,160.8,40.5,964.0,5792.0,2.0,0,
148000,1856.5,17.9,160.8,41.5,964.0,5792.0,2.0,0,
148100,1872.6,16.1,161.0,92.9,964.0,5792.0,2.0,0,
148200,1853.0,23.3,160.4,240.0,964.0,5792.0,2.0,0,
148300,1850.8,17.4,160.4,240.1,964.0,5792.0,2.0,0,
148400,1853.8,17.4,160.4,240.1,964.0,5792.0,2.0,0,
148600,1860.3,18.2,160.4,240.2,964.0,5792.0,2.0,0,
148700,1872.6,176.6,160.3,240.2,1072.0,6712.0,7.0,1,
148800,1873.2,177.0,163.8,44.2,1132.0,6983.0,10.0,1,
148900,1852.6,122.6,164.1,39.7,1152.0,6752.0,9.0,1,
149000,1845.7,189.5,161.5,43.2,1439.0,7035.0,24.0,1,
149100,1895.1,213.6,149.1,65.9,1699.0,6589.0,2.0,0,
149200,1854.7,243.7,147.4,112.1,1407.0,6592.0,2.0,0,
149300,1845.9,106.0,140.9,229.2,938.0,5540.0,2.0,0,
149400,1860.1,18.6,140.1,234.8,938.0,5540.0,2.0,0,
149600,1861.6,19.2,140.3,142.5,938.0,5540.0,2.0,0,
149700,1878.5,17.7,140.5,140.4,938.0,5540.0,2.0,0,
149800,1845.8,16.8,140.2,239.9,938.0,5540.0,2.0,0,
149900,1853.4,16.1,140.2,239.4,938.0,5540.0,2.0,0,
150000,1860.6,15.7,140.4,237.3,938.0,5540.0,2.0,0,
150100,1859.1,13.2,140.5,239.4,938.0,5540.0,2.0,0,
150200,1858.0,14.1,140.4,239.8,938.0,5540.0,2.0,0,
150300,1858.9,101.3,140.5,239.8,1038.0,6251.0,6.0,1,
150400,1833.1,121.4,134.5,177.4,764.0,5561.0,6.0,1,
150600,1887.2,149.1,148.1,99.8,2008.0,7164.0,2.0,0,
150700,1832.3,277.2,153.8,196.4,1119.0,6131.0,24.0,1,
150800,1871.3,268.0,161.8,226.4,1680.0,6178.0,2.0,0,
150900,1835.4,123.9,168.7,197.8,753.0,5007.0,2.0,0,
151000,1876.3,18.0,166.6,220.6,753.0,5007.0,2.0,0,
151100,1860.9,15.8,166.6,199.2,753.0,5007.0,2.0,0,
151200,1862.3,19.2,166.6,136.9,753.0,5007.0,2.0,0,
151300,1868.0,18.6,166.5,130.3,753.0,5007.0,2.0,0,
151400,1858.9,19.1,166.6,239.5,753.0,5007.0,2.0,0,
151600,1854.2,17.1,166.5,239.8,753.0,5007.0,2.0,0,
151700,1862.9,17.4,166.5,240.1,753.0,5007.0,2.0,0,
151800,1861.7,15.8,166.6,239.8,753.0,5007.0,2.0,0,
151900,1858.5,32.0,166.6,239.1,753.0,5007.0,2.0,0,
152000,1883.2,152.4,167.1,101.4,774.0,5928.0,6.0,1,
152100,1834.7,139.4,165.9,43.7,1179.0,6700.0,9.0,1,
152200,1885.9,166.9,166.1,48.8,1480.0,6148.0,2.0,0,
152300,1841.2,282.0,168.3,75.4,2033.0,6521.0,2.0,0,
152400,1877.2,293.7,167.0,133.1,1031.0,5831.0,2.0,0,
152600,1840.0,25.9,165.5,66.1,714.0,4598.0,2.0,0,
152700,1856.8,17.4,165.5,37.2,714.0,4598.0,2.0,0,
152800,1855.6,17.6,165.4,38.0,714.0,4598.0,2.0,0,
152900,1871.6,13.5,165.4,46.0,714.0,4598.0,2.0,0,
153000,1861.5,17.0,165.4,237.8,714.0,4598.0,2.0,0,
153100,1851.0,36.6,165.4,239.2,714.0,4598.0,2.0,0,
153200,1862.8,20.9,165.8,176.7,714.0,4598.0,2.0,0,
153300,1855.3,15.6,165.7,201.7,714.0,4598.0,2.0,0,
153400,1855.7,14.9,165.6,238.5,714.0,4598.0,2.0,0,
153600,1846.8,190.5,166.6,238.5,1426.0,6705.0,20.0,1,
153700,1873.8,165.2,172.7,72.4,1558.0,5953.0,2.0,0,
153800,1884.5,163.4,175.2,131.7,1655.0,6712.0,2.0,0,
153900,1868.8,224.6,173.2,194.3,1506.0,6903.0,24.0,1,
154000,1850.0,259.2,166.5,166.9,1840.0,6534.0,2.0,0,
154100,1824.4,262.4,168.1,157.6,993.0,5928.0,2.0,0,
154200,1882.5,37.8,163.3,227.2,979.0,5620.0,2.0,0,
154300,1856.4,16.7,163.3,253.1,979.0,5620.0,2.0,0,
154400,1851.9,16.6,163.2,225.6,979.0,5620.0,2.0,0,
154600,1866.0,13.7,163.3,238.8,979.0,5620.0,2.0,0,
154700,1854.1,17.0,163.1,240.0,979.0,5620.0,2.0,0,
154800,1857.5,14.2,162.8,239.8,979.0,5620.0,2.0,0,
154900,1855.5,14.5,162.8,239.8,979.0,5620.0,2.0,0,
155000,1857.3,15.3,162.9,240.0,979.0,5620.0,2.0,0,
155100,1858.3,15.4,162.9,240.1,979.0,5620.0,2.0,0,
155200,1862.7,119.0,162.6,239.8,957.0,6206.0,6.0,1,
155300,1855.3,215.0,155.8,65.6,1033.0,6412.0,10.0,1,
155400,1863.0,150.4,153.9,65.8,1445.0,6207.0,2.0,0,
155600,1881.2,203.8,163.3,136.0,1549.0,6995.0,24.0,1,
155700,1887.3,223.8,157.4,78.1,1899.0,6832.0,2.0,0,
155800,1831.6,48.6,158.8,88.9,823.0,5317.0,2.0,0,
155900,1861.6,15.2,158.9,228.8,823.0,5317.0,2.0,0,
156000,1855.7,17.5,158.9,252.0,823.0,5317.0,2.0,0,
156100,1862.4,21.5,158.9,232.5,823.0,5317.0,2.0,0,
156200,1873.5,14.7,159.0,239.3,823.0,5317.0,2.0,0,
156300,1850.4,19.6,159.0,240.1,823.0,5317.0,2.0,0,
156400,1895.6,55.1,161.5,240.0,823.0,5317.0,2.0,0,
156600,1849.3,16.3,161.2,27.7,823.0,5317.0,2.0,0,
156700,1855.3,15.3,161.2,28.1,823.0,5317.0,2.0,0,
156800,1866.6,151.8,162.4,238.6,974.0,6590.0,6.0,1,
156900,1844.5,127.2,162.9,67.3,1064.0,6569.0,10.0,1,
157000,1851.6,168.4,156.5,65.5,1160.0,6790.0,9.0,1,
157100,1923.9,191.6,150.2,65.9,1665.0,6666.0,2.0,0,
157200,1842.2,175.4,144.7,90.7,2017.0,6848.0,2.0,0,
157300,1832.2,156.4,144.2,209.3,1446.0,6508.0,24.0,1,
157400,1877.3,51.9,136.4,253.3,814.0,4919.0,2.0,0,
157600,1855.0,17.5,136.4,244.5,814.0,4919.0,2.0,0,
157700,1850.2,19.1,136.3,233.4,814.0,4919.0,2.0,0,
157800,1874.6,16.6,136.2,228.5,814.0,4919.0,2.0,0,
157900,1858.5,21.1,136.2,240.0,814.0,4919.0,2.0,0,
158000,1862.8,26.8,133.5,239.8,814.0,4919.0,2.0,0,
158100,1847.6,15.6,133.6,239.8,814.0,4919.0,2.0,0,
158200,1855.1,15.7,133.7,239.6,814.0,4919.0,2.0,0,
158300,1856.9,16.2,133.8,239.6,814.0,4919.0,2.0,0,
158400,1870.7,107.5,133.8,240.0,1014.0,6020.0,6.0,1,
158600,1855.5,194.5,149.6,46.8,1653.0,6162.0,2.0,0,
158700,1845.3,166.6,150.1,84.9,1289.0,6735.0,23.0,1,
158800,1865.8,281.9,150.7,163.8,1778.0,6813.0,2.0,0,
158900,1869.6,278.5,162.5,164.6,1638.0,6589.0,2.0,0,
159000,1873.5,134.9,168.9,166.7,932.0,5553.0,2.0,0,
159100,1841.5,18.8,169.4,227.5,932.0,5553.0,2.0,0,
159200,1859.3,15.3,169.5,227.4,932.0,5553.0,2.0,0,
159300,1853.7,23.0,169.5,163.6,932.0,5553.0,2.0,0,
159400,1875.8,15.3,169.6,75.9,932.0,5553.0,2.0,0,
159600,1845.5,30.7,169.5,240.1,932.0,5553.0,2.0,0,
159700,1864.1,18.5,169.6,240.0,932.0,5553.0,2.0,0,
159800,1853.0,15.8,169.6,239.8,932.0,5553.0,2.0,0,
159900,1856.9,15.0,169.6,239.7,932.0,5553.0,2.0,0,
160000,1857.8,95.4,169.6,239.9,1046.0,6178.0,6.0,1,
160100,1835.3,156.9,164.0,171.0,861.0,6363.0,10.0,1,
160200,1867.2,144.5,164.8,66.2,1372.0,6260.0,2.0,0,
160300,1886.7,165.2,161.4,66.5,1933.0,6835.0,2.0,0,
160400,1869.7,259.0,171.1,104.2,1061.0,6470.0,2.0,0,
160600,1828.3,108.3,162.4,66.6,700.0,4859.0,2.0,0,
160700,1886.2,21.8,159.2,105.9,700.0,4859.0,2.0,0,
160800,1867.1,14.7,159.3,227.7,700.0,4859.0,2.0,0,
160900,1856.5,19.8,159.3,226.3,700.0,4859.0,2.0,0,
161000,1877.6,17.5,159.4,197.6,700.0,4859.0,2.0,0,
161100,1861.7,19.5,159.4,239.8,700.0,4859.0,2.0,0,
161200,1852.7,96.2,159.6,239.9,700.0,4859.0,2.0,0,
161300,1873.3,28.6,161.7,237.3,700.0,4859.0,2.0,0,
161400,1844.7,18.7,161.6,43.8,700.0,4859.0,2.0,0,
161600,1853.1,13.4,161.5,50.6,700.0,4859.0,2.0,0,
161700,1879.1,109.9,161.5,239.0,891.0,6320.0,5.0,1,
161800,1858.6,164.4,156.8,65.8,1073.0,6589.0,10.0,1,
161900,1871.5,233.9,155.9,65.9,1463.0,6774.0,22.0,1,
162000,1849.1,194.3,146.7,67.4,1874.0,6608.0,2.0,0,
162100,1853.9,278.6,154.3,163.8,826.0,5817.0,2.0,0,
162200,1901.2,256.5,163.8,225.7,1492.0,6086.0,2.0,0,
162300,1842.6,31.1,165.8,194.5,733.0,4736.0,2.0,0,
162400,1856.4,18.2,165.7,130.4,733.0,4736.0,2.0,0,
162600,1871.1,15.7,165.7,44.0,733.0,4736.0,2.0,0,
162700,1863.0,14.8,165.6,194.7,733.0,4736.0,2.0,0,
162800,1857.8,20.6,165.7,240.1,733.0,4736.0,2.0,0,
162900,1860.2,23.2,163.5,240.1,733.0,4736.0,2.0,0,
163000,1849.0,15.8,163.5,240.0,733.0,4736.0,2.0,0,
163100,1856.4,15.7,163.5,240.0,733.0,4736.0,2.0,0,
163200,1857.8,17.8,163.5,240.0,733.0,4736.0,2.0,0,
163300,1851.4,230.6,164.5,239.6,1368.0,6243.0,26.0,0,
163400,1865.2,178.7,177.7,53.4,1460.0,6171.0,2.0,0,
163600,1902.0,240.1,177.6,87.6,1563.0,6650.0,23.0,1,
163700,1873.8,282.9,176.2,163.3,1845.0,7067.0,2.0,0,
163800,1817.2,250.8,176.5,163.4,1036.0,5991.0,2.0,0,
163900,1870.6,42.2,172.5,196.8,1001.0,5533.0,2.0,0,
164000,1859.3,19.1,172.5,226.7,1001.0,5533.0,2.0,0,
164100,1853.7,18.3,172.5,221.4,1001.0,5533.0,2.0,0,
164200,1857.6,22.0,172.4,125.2,1001.0,5533.0,2.0,0,
164300,1876.1,17.7,172.6,239.3,1001.0,5533.0,2.0,0,
164400,1849.8,32.8,172.4,240.4,1001.0,5533.0,2.0,0,
164600,1847.2,19.1,173.0,239.7,1001.0,5533.0,2.0,0,
164700,1856.8,16.0,173.0,239.5,1001.0,5533.0,2.0,0,
164800,1855.6,17.6,173.0,239.7,1001.0,5533.0,2.0,0,
164900,1858.1,107.3,173.4,239.6,1013.0,6176.0,6.0,1,
165000,1849.5,162.3,161.0,43.9,809.0,6112.0,6.0,1,
165100,1903.9,204.8,163.6,55.7,1291.0,6146.0,2.0,0,
165200,1835.1,248.7,169.5,93.1,1849.0,7537.0,2.0,0,
165300,1834.1,189.3,167.1,164.0,1612.0,7930.0,24.0,1,
165400,1897.8,122.6,157.3,164.0,1642.0,7437.0,2.0,0,
165600,1865.3,17.3,156.5,226.2,1642.0,7437.0,2.0,0,
165700,1857.6,13.0,156.5,226.3,1642.0,7437.0,2.0,0,
165800,1872.7,17.8,156.8,199.1,1642.0,7437.0,2.0,0,
165900,1870.1,16.0,156.7,205.9,1642.0,7437.0,2.0,0,
166000,1866.4,29.0,156.8,239.9,1642.0,7437.0,2.0,0,
166100,1852.1,40.6,156.4,239.8,1642.0,7437.0,2.0,0,
166200,1853.6,20.2,156.7,239.7,1642.0,7437.0,2.0,0,
166300,1851.7,16.3,156.7,237.4,1642.0,7437.0,2.0,0,
166400,1857.1,17.1,156.7,196.8,1642.0,7437.0,2.0,0,
166600,1849.6,266.5,177.8,37.8,1488.0,6645.0,5.0,1,
166700,1834.5,190.9,183.5,37.7,1141.0,6138.0,2.0,0,
166800,1914.7,146.7,177.7,67.5,1345.0,6600.0,2.0,0,
166900,1876.5,302.8,173.7,99.4,1784.0,6670.0,2.0,0,
167000,1828.2,304.7,189.7,101.2,773.0,5957.0,2.0,0,
167100,1865.3,96.0,192.0,194.4,753.0,4833.0,2.0,0,
167200,1869.1,18.8,191.9,163.9,753.0,4833.0,2.0,0,
167300,1855.1,16.5,191.9,99.7,753.0,4833.0,2.0,0,
167400,1850.3,19.3,191.9,93.5,753.0,4833.0,2.0,0,
167600,1863.2,15.4,191.9,239.8,753.0,4833.0,2.0,0,
167700,1850.6,73.2,191.9,240.0,753.0,4833.0,2.0,0,
167800,1868.4,24.2,192.6,239.4,753.0,4833.0,2.0,0,
167900,1850.7,20.2,192.6,41.0,753.0,4833.0,2.0,0,
168000,1854.4,18.1,192.6,36.5,753.0,4833.0,2.0,0,
168100,1848.1,99.1,192.6,50.2,993.0,6025.0,6.0,1,
168200,1852.8,215.3,178.3,80.9,860.0,6278.0,6.0,1,
168300,1906.7,175.2,173.6,66.0,1361.0,5448.0,2.0,0,
168400,1855.1,264.1,175.5,92.1,1863.0,6769.0,2.0,0,
168600,1862.5,185.1,165.7,164.8,1698.0,6480.0,2.0,0,
168700,1882.3,123.0,158.4,88.8,851.0,5335.0,2.0,0,
168800,1849.5,20.3,156.9,198.2,851.0,5335.0,2.0,0,
168900,1854.1,15.5,156.8,244.6,851.0,5335.0,2.0,0,
169000,1858.3,19.9,157.0,228.6,851.0,5335.0,2.0,0,
169100,1871.5,15.5,157.0,226.7,851.0,5335.0,2.0,0,
169200,1859.6,22.3,156.9,239.8,851.0,5335.0,2.0,0,
169300,1894.5,84.9,159.0,239.8,851.0,5335.0,2.0,0,
169400,1832.6,22.9,157.8,237.5,851.0,5335.0,2.0,0,
169600,1853.8,16.0,157.9,40.8,851.0,5335.0,2.0,0,
169700,1857.1,76.5,157.9,237.7,851.0,5335.0,2.0,0,
169800,1886.9,145.1,158.8,132.7,853.0,6399.0,5.0,1,
169900,1843.6,148.2,150.8,66.0,996.0,6533.0,10.0,1,
170000,1870.8,169.8,147.2,66.2,1480.0,6897.0,2.0,0,
170100,1886.7,253.1,145.7,67.4,2144.0,7442.0,2.0,0,
170200,1852.9,262.8,154.4,133.6,1030.0,6608.0,2.0,0,
170300,1866.1,236.6,158.4,157.4,956.0,5885.0,2.0,0,
170400,1870.5,26.5,157.6,158.2,956.0,5885.0,2.0,0,
170600,1857.8,16.3,157.9,238.4,956.0,5885.0,2.0,0,
170700,1878.7,16.2,158.0,237.5,956.0,5885.0,2.0,0,
170800,1865.9,27.7,158.0,239.9,956.0,5885.0,2.0,0,
170900,1854.5,82.7,158.2,240.0,956.0,5885.0,2.0,0,
171000,1866.7,25.1,157.8,238.9,956.0,5885.0,2.0,0,
171100,1847.3,20.3,157.7,47.9,956.0,5885.0,2.0,0,
171200,1854.6,17.7,157.7,41.4,956.0,5885.0,2.0,0,
171300,1854.4,17.1,157.7,202.3,956.0,5885.0,2.0,0,
171400,1846.9,283.5,158.5,238.4,1234.0,6435.0,26.0,0,
171600,1874.6,262.8,180.8,52.0,1861.0,7359.0,2.0,0,
171700,1833.8,250.9,182.2,90.9,1521.0,7113.0,24.0,1,
171800,1859.8,185.8,178.2,109.0,1906.0,6867.0,2.0,0,
171900,1861.8,224.7,176.2,93.5,1017.0,6432.0,2.0,0,
172000,1861.0,32.8,172.9,225.7,859.0,5220.0,2.0,0,
172100,1859.8,17.6,172.9,228.1,859.0,5220.0,2.0,0,
172200,1855.3,14.6,172.8,226.1,859.0,5220.0,2.0,0,
172300,1873.6,15.0,172.8,169.6,859.0,5220.0,2.0,0,
172400,1863.8,15.8,172.8,239.3,859.0,5220.0,2.0,0,
172600,1875.5,33.8,172.0,240.3,859.0,5220.0,2.0,0,
172700,1847.3,20.8,172.0,132.6,859.0,5220.0,2.0,0,
172800,1852.4,16.7,172.0,43.6,859.0,5220.0,2.0,0,
172900,1856.6,17.4,172.0,50.3,859.0,5220.0,2.0,0,
173000,1879.4,172.9,175.9,201.2,932.0,6138.0,6.0,1,
173100,1818.6,157.4,164.2,29.1,907.0,6247.0,10.0,1,
173200,1885.0,119.5,156.2,29.7,1488.0,6320.0,2.0,0,
173300,1858.5,252.8,154.6,65.8,2119.0,7443.0,2.0,0,
173400,1875.1,203.8,156.8,153.1,1107.0,6413.0,2.0,0,
173600,1839.6,38.1,152.5,158.9,812.0,5189.0,2.0,0,
173700,1860.8,16.0,152.5,230.4,812.0,5189.0,2.0,0,
173800,1856.6,14.6,152.5,239.5,812.0,5189.0,2.0,0,
173900,1871.4,17.2,152.6,227.5,812.0,5189.0,2.0,0,
174000,1865.7,14.8,152.6,238.9,812.0,5189.0,2.0,0,
174100,1859.5,22.9,152.7,239.9,812.0,5189.0,2.0,0,
174200,1876.9,43.0,152.0,240.1,812.0,5189.0,2.0,0,
174300,1839.2,19.2,152.0,239.7,812.0,5189.0,2.0,0,
174400,1853.2,16.9,152.0,237.8,812.0,5189.0,2.0,0,
174600,1846.0,232.0,147.0,239.6,1367.0,6397.0,26.0,0,
174700,1889.7,303.7,166.4,38.1,1388.0,6483.0,5.0,1,
174800,1882.4,242.9,180.4,37.1,1620.0,6472.0,2.0,0,
174900,1866.7,182.2,180.5,68.2,1399.0,7071.0,23.0,1,
175000,1853.5,267.9,175.6,99.8,2056.0,6874.0,2.0,0,
175100,1822.3,256.7,186.9,100.0,1012.0,6163.0,2.0,0,
175200,1890.4,73.0,186.4,156.2,983.0,5588.0,2.0,0,
175300,1867.2,18.9,186.3,226.2,983.0,5588.0,2.0,0,
175400,1859.5,15.8,186.3,225.8,983.0,5588.0,2.0,0,
175600,1871.8,13.3,186.4,237.7,983.0,5588.0,2.0,0,
175700,1861.9,19.8,186.3,240.0,983.0,5588.0,2.0,0,
175800,1892.8,64.7,187.5,240.0,983.0,5588.0,2.0,0,
175900,1831.2,24.8,187.1,238.7,983.0,5588.0,2.0,0,
176000,1849.2,17.4,187.1,43.4,983.0,5588.0,2.0,0,
176100,1855.5,15.9,187.1,43.1,983.0,5588.0,2.0,0,
176200,1873.1,123.7,187.1,238.6,1035.0,6119.0,6.0,1,
176300,1838.4,170.9,174.1,68.8,1044.0,6841.0,10.0,1,
176400,1863.3,168.1,158.2,65.8,1071.0,6780.0,8.0,1,
176600,1878.7,135.0,140.3,65.8,1339.0,6961.0,6.0,1,
176700,1896.7,158.1,122.7,36.1,1744.0,8051.0,6.0,1,
176800,1825.8,70.9,111.8,65.9,1513.0,7749.0,6.0,1,
176900,1862.3,17.0,111.0,66.0,1513.0,7749.0,6.0,1,
177000,1860.2,17.2,111.0,40.4,1513.0,7749.0,6.0,1,
177100,1853.5,13.2,110.9,36.5,1513.0,7749.0,6.0,1,
177200,1871.8,14.1,110.8,47.7,1513.0,7749.0,6.0,1,
177300,1865.1,23.4,110.7,239.7,1513.0,7749.0,6.0,1,
177400,1858.0,53.6,110.5,240.0,1513.0,7749.0,6.0,1,
177600,1851.2,17.0,109.7,73.7,1513.0,7749.0,6.0,1,
177700,1856.6,15.6,109.7,48.5,1513.0,7749.0,6.0,1,
177800,1857.6,102.8,109.8,239.4,978.0,5932.0,7.0,1,
177900,1866.7,132.1,116.7,71.4,908.0,6702.0,5.0,1,
178000,1863.3,94.3,116.1,38.7,978.0,6425.0,10.0,1,
178100,1910.9,173.7,114.1,36.8,1199.0,7120.0,9.0,1,
178200,1844.5,142.2,114.9,38.4,1427.0,6928.0,7.0,1,
178300,1822.3,135.6,113.2,42.2,1593.0,7476.0,7.0,1,
178400,1883.7,140.3,114.0,43.5,1702.0,7795.0,6.0,1,
178600,1858.3,16.1,116.0,36.4,1702.0,7795.0,6.0,1,
178700,1857.8,17.0,116.1,34.7,1702.0,7795.0,6.0,1,
178800,1872.3,14.0,116.2,34.2,1702.0,7795.0,6.0,1,
178900,1865.8,21.1,116.1,238.5,1702.0,7795.0,6.0,1,
179000,1845.5,81.6,116.1,239.9,1702.0,7795.0,6.0,1,
179100,1878.3,37.3,117.8,239.6,1702.0,7795.0,6.0,1,
179200,1846.7,22.9,117.8,53.4,1702.0,7795.0,6.0,1,
179300,1853.5,17.5,117.8,38.9,1702.0,7795.0,6.0,1,
179400,1855.3,23.0,117.8,47.9,1702.0,7795.0,6.0,1,
179600,1870.7,169.5,135.8,45.3,1010.0,6537.0,9.0,1,
179700,1844.3,126.3,133.6,52.5,1342.0,7403.0,8.0,1,
179800,1861.9,235.6,136.8,66.4,1509.0,7218.0,24.0,1,
179900,1897.2,212.7,147.3,68.5,1915.0,6859.0,2.0,0,
180000,1845.0,236.0,160.0,132.4,1199.0,6673.0,2.0,0,
180100,1845.5,28.6,158.5,259.3,944.0,5717.0,2.0,0,
180200,1858.9,17.2,158.5,258.8,944.0,5717.0,2.0,0,
180300,1852.7,17.2,158.4,226.7,944.0,5717.0,2.0,0,
180400,1874.6,19.5,158.5,170.4,944.0,5717.0,2.0,0,
180600,1850.9,24.2,158.6,240.0,944.0,5717.0,2.0,0,
180700,1890.4,62.8,158.0,239.9,944.0,5717.0,2.0,0,
180800,1837.1,25.3,158.0,210.6,944.0,5717.0,2.0,0,
180900,1848.3,19.8,158.0,40.3,944.0,5717.0,2.0,0,
181000,1854.6,37.9,158.0,42.4,944.0,5717.0,2.0,0,
181100,1835.0,132.2,159.5,231.2,938.0,6346.0,6.0,1,
181200,1857.8,122.9,141.1,34.5,933.0,6890.0,10.0,1,
181300,1923.7,219.3,143.4,41.2,1450.0,6693.0,2.0,0,
181400,1856.4,183.6,151.9,93.9,2006.0,7140.0,2.0,0,
181600,1866.3,184.9,159.4,226.5,1812.0,7008.0,2.0,0,
181700,1878.6,29.1,157.4,195.2,754.0,5313.0,2.0,0,
181800,1864.7,17.6,157.5,197.7,754.0,5313.0,2.0,0,
181900,1856.5,16.5,157.5,183.8,754.0,5313.0,2.0,0,
182000,1868.6,18.1,157.5,133.7,754.0,5313.0,2.0,0,
182100,1867.7,16.4,157.4,237.9,754.0,5313.0,2.0,0,
182200,1864.3,19.1,157.5,240.0,754.0,5313.0,2.0,0,
182300,1850.4,73.4,156.6,240.3,754.0,5313.0,2.0,0,
182400,1865.1,28.2,157.2,240.0,754.0,5313.0,2.0,0,
182600,1854.3,18.4,157.3,38.4,754.0,5313.0,2.0,0,
182700,1866.8,267.8,157.4,57.0,1472.0,6101.0,26.0,0,
182800,1882.6,264.6,172.8,38.4,1651.0,6940.0,18.0,1,
182900,1838.5,156.7,174.4,40.9,1117.0,6927.0,9.0,1,
183000,1870.6,197.5,174.4,53.2,1424.0,6887.0,2.0,0,
183100,1870.8,207.9,171.3,66.2,1979.0,6544.0,2.0,0,
183200,1858.5,210.3,171.8,101.9,882.0,6121.0,2.0,0,
183300,1856.9,43.3,168.5,196.1,726.0,4780.0,2.0,0,
183400,1859.8,18.8,168.4,195.1,726.0,4780.0,2.0,0,
183600,1858.9,15.9,168.3,99.0,726.0,4780.0,2.0,0,
183700,1866.8,14.0,168.3,142.2,726.0,4780.0,2.0,0,
183800,1863.7,18.2,168.3,240.2,726.0,4780.0,2.0,0,
183900,1851.5,99.8,168.2,240.2,726.0,4780.0,2.0,0,
184000,1878.9,36.0,169.1,239.7,726.0,4780.0,2.0,0,
184100,1842.9,18.1,169.1,51.4,726.0,4780.0,2.0,0,
184200,1855.7,18.7,169.1,38.7,726.0,4780.0,2.0,0,
184300,1847.6,126.4,169.9,67.4,1016.0,5888.0,6.0,1,
184400,1836.5,158.4,155.6,69.3,907.0,6420.0,6.0,1,
184600,1871.8,157.0,142.1,65.6,1314.0,7812.0,8.0,1,
184700,1849.8,186.8,136.7,65.9,1389.0,6820.0,7.0,1,
184800,1854.5,126.2,123.9,66.6,1361.0,7463.0,7.0,1,
184900,1838.9,53.6,114.2,65.9,1307.0,7079.0,7.0,1,
185000,1867.1,17.9,114.2,42.7,1307.0,7079.0,7.0,1,
185100,1856.4,18.9,114.2,40.6,1307.0,7079.0,7.0,1,
185200,1859.7,17.5,114.3,47.5,1307.0,7079.0,7.0,1,
185300,1873.8,15.3,114.5,82.5,1307.0,7079.0,7.0,1,
185400,1864.9,24.3,114.5,239.9,1307.0,7079.0,7.0,1,
185600,1875.1,34.7,113.9,239.9,1307.0,7079.0,7.0,1,
185700,1847.4,21.6,113.9,178.6,1307.0,7079.0,7.0,1,
185800,1853.7,20.5,113.9,93.7,1307.0,7079.0,7.0,1,
185900,1886.0,118.7,113.9,238.5,1022.0,5944.0,6.0,1,
186000,1862.6,152.5,114.9,79.8,806.0,6365.0,10.0,1,
186100,1841.8,160.1,111.8,56.6,1106.0,6510.0,9.0,1,
186200,1869.6,235.0,120.0,65.4,1683.0,6693.0,2.0,0,
186300,1839.2,173.1,134.0,66.5,2001.0,6832.0,2.0,0,
186400,1873.6,198.4,142.3,108.7,1059.0,5658.0,2.0,0,
186600,1839.8,19.0,150.6,194.5,1059.0,5658.0,2.0,0,
186700,1857.9,16.3,150.7,194.5,1059.0,5658.0,2.0,0,
186800,1861.0,20.7,150.7,226.6,1059.0,5658.0,2.0,0,
186900,1873.6,15.6,150.7,220.1,1059.0,5658.0,2.0,0,
187000,1860.3,19.8,150.7,240.0,1059.0,5658.0,2.0,0,
187100,1860.5,22.8,150.7,240.1,1059.0,5658.0,2.0,0,
187200,1883.3,108.5,150.2,239.8,1059.0,5658.0,2.0,0,
187300,1859.6,35.7,152.3,239.1,1059.0,5658.0,2.0,0,
187400,1837.4,22.7,152.2,73.4,1059.0,5658.0,2.0,0,
187600,1828.8,171.0,152.4,79.6,891.0,5903.0,6.0,1,
187700,1887.8,125.7,155.4,65.5,1030.0,6807.0,9.0,1,
187800,1885.7,140.4,150.6,56.6,1218.0,6980.0,8.0,1,
187900,1866.6,253.7,143.6,48.3,1416.0,7424.0,24.0,1,
188000,1859.0,247.6,138.1,65.4,1954.0,6652.0,2.0,0,
188100,1814.7,193.6,146.5,133.4,889.0,5019.0,2.0,0,
188200,1878.3,25.6,146.1,251.6,889.0,5019.0,2.0,0,
188300,1858.0,17.1,146.1,253.7,889.0,5019.0,2.0,0,
188400,1854.3,17.1,146.0,228.2,889.0,5019.0,2.0,0,
188600,1863.3,13.8,146.0,240.0,889.0,5019.0,2.0,0,
188700,1863.5,17.7,146.1,240.1,889.0,5019.0,2.0,0,
188800,1871.8,75.8,147.0,240.0,889.0,5019.0,2.0,0,
188900,1856.2,31.4,144.0,239.8,889.0,5019.0,2.0,0,
189000,1842.9,20.1,144.0,238.0,889.0,5019.0,2.0,0,
189100,1854.1,22.9,144.1,196.9,889.0,5019.0,2.0,0,
189200,1880.1,124.9,144.4,227.1,944.0,6284.0,5.0,1,
189300,1861.1,153.1,141.5,66.0,1004.0,6945.0,10.0,1,
189400,1871.2,220.0,144.4,66.2,1406.0,6497.0,22.0,1,
189600,1857.4,132.8,154.2,163.9,998.0,5303.0,2.0,0,
189700,1896.1,128.8,145.9,229.0,1549.0,6019.0,2.0,0,
189800,1845.0,24.4,142.1,226.9,727.0,4720.0,2.0,0,
189900,1858.5,17.5,142.0,230.1,727.0,4720.0,2.0,0,
190000,1855.7,17.4,142.1,254.3,727.0,4720.0,2.0,0,
190100,1873.8,20.3,142.1,229.0,727.0,4720.0,2.0,0,
190200,1867.3,16.8,142.1,239.6,727.0,4720.0,2.0,0,
190300,1862.3,21.7,142.1,240.0,727.0,4720.0,2.0,0,
190400,1879.8,87.3,143.4,239.9,727.0,4720.0,2.0,0,
190600,1842.4,22.4,142.9,72.3,727.0,4720.0,2.0,0,
190700,1852.6,19.7,142.9,41.9,727.0,4720.0,2.0,0,
190800,1846.4,226.0,143.4,235.7,1030.0,5527.0,26.0,0,
190900,1869.7,181.1,158.5,53.8,1346.0,6214.0,2.0,0,
191000,1864.7,127.9,167.0,55.1,1980.0,6718.0,2.0,0,
191100,1890.0,285.8,168.1,94.0,1329.0,6861.0,23.0,1,
191200,1881.0,233.4,167.3,189.1,1710.0,6527.0,2.0,0,
191300,1825.5,270.8,175.8,104.0,1271.0,6516.0,2.0,0,
191400,1858.8,45.8,180.0,103.3,922.0,5337.0,2.0,0,
191600,1854.1,15.4,179.9,226.9,922.0,5337.0,2.0,0,
191700,1877.4,17.1,180.1,195.3,922.0,5337.0,2.0,0,
191800,1863.5,17.0,180.0,239.3,922.0,5337.0,2.0,0,
191900,1868.7,24.2,180.0,240.1,922.0,5337.0,2.0,0,
192000,1842.0,68.5,179.9,240.1,922.0,5337.0,2.0,0,
192100,1875.9,38.7,179.4,239.7,922.0,5337.0,2.0,0,
192200,1847.8,22.4,179.5,156.5,922.0,5337.0,2.0,0,
192300,1851.1,18.2,179.4,73.1,922.0,5337.0,2.0,0,
192400,1870.4,127.0,183.7,69.6,1062.0,6341.0,5.0,1,
192600,1882.2,202.8,163.9,29.4,1516.0,7109.0,22.0,1,
192700,1863.3,246.2,163.8,53.7,2088.0,7219.0,2.0,0,
192800,1824.8,144.4,163.0,133.4,918.0,5362.0,2.0,0,
192900,1904.8,125.8,154.3,226.4,1533.0,5695.0,2.0,0,
193000,1847.2,47.7,149.5,226.7,795.0,4942.0,2.0,0,
193100,1860.2,18.8,149.4,225.8,795.0,4942.0,2.0,0,
193200,1856.3,17.1,149.4,231.0,795.0,4942.0,2.0,0,
193300,1859.3,15.7,149.1,235.2,795.0,4942.0,2.0,0,
193400,1862.8,14.4,149.1,239.8,795.0,4942.0,2.0,0,
193600,1852.1,27.7,149.1,240.0,795.0,4942.0,2.0,0,
193700,1878.7,41.5,148.4,239.7,795.0,4942.0,2.0,0,
193800,1843.4,23.0,148.4,238.8,795.0,4942.0,2.0,0,
193900,1852.9,20.7,148.4,177.9,795.0,4942.0,2.0,0,
194000,1869.2,159.4,143.3,238.1,959.0,5881.0,6.0,1,
194100,1851.6,160.7,143.9,70.5,900.0,6333.0,10.0,1,
194200,1849.7,113.4,144.0,65.8,988.0,6651.0,9.0,1,
194300,1881.2,145.3,133.0,50.3,1039.0,6672.0,9.0,1,
194400,1893.7,140.1,118.9,36.8,1185.0,6567.0,7.0,1,
194600,1842.0,54.8,104.2,65.8,1491.0,7775.0,6.0,1,
194700,1866.7,17.4,104.1,46.1,1491.0,7775.0,6.0,1,
194800,1855.2,17.4,104.0,47.3,1491.0,7775.0,6.0,1,
194900,1853.5,20.3,104.0,37.7,1491.0,7775.0,6.0,1,
195000,1869.2,15.2,104.2,43.2,1491.0,7775.0,6.0,1,
195100,1862.6,18.4,104.2,239.8,1491.0,7775.0,6.0,1,
195200,1854.8,31.3,104.1,240.0,1491.0,7775.0,6.0,1,
195300,1872.2,35.6,104.0,239.8,1491.0,7775.0,6.0,1,
195400,1846.3,22.9,104.1,238.2,1491.0,7775.0,6.0,1,
195600,1857.6,124.9,104.6,201.2,1067.0,6356.0,5.0,1,
195700,1848.1,118.4,104.4,66.0,823.0,5960.0,6.0,1,
195800,1874.2,186.7,108.3,36.4,1565.0,6341.0,21.0,1,
195900,1880.3,236.6,116.6,67.1,1849.0,6395.0,2.0,0,
196000,1822.5,225.5,141.1,154.0,1006.0,6160.0,2.0,0,
196100,1884.3,139.6,147.4,163.5,1525.0,6477.0,2.0,0,
196200,1879.5,86.0,155.5,68.6,829.0,5337.0,2.0,0,
196300,1843.2,26.8,155.1,133.6,829.0,5337.0,2.0,0,
196400,1855.1,16.7,155.1,227.2,829.0,5337.0,2.0,0,
196600,1868.5,15.8,155.1,205.7,829.0,5337.0,2.0,0,
196700,1863.4,16.3,155.1,239.4,829.0,5337.0,2.0,0,
196800,1854.0,34.3,155.1,240.0,829.0,5337.0,2.0,0,
196900,1878.5,38.2,155.2,239.9,829.0,5337.0,2.0,0,
197000,1844.3,22.1,155.1,239.2,829.0,5337.0,2.0,0,
197100,1855.4,17.4,155.2,115.9,829.0,5337.0,2.0,0,
197200,1857.1,84.5,155.2,238.3,829.0,5337.0,2.0,0,
197300,1869.7,246.2,166.3,50.6,1317.0,5921.0,2.0,0,
197400,1840.2,158.5,175.9,35.3,1672.0,6639.0,2.0,0,
197600,1916.8,268.2,161.8,84.6,1579.0,6141.0,2.0,0,
197700,1853.3,287.7,173.7,132.1,1994.0,6546.0,2.0,0,
197800,1833.6,275.1,186.5,102.1,654.0,4535.0,2.0,0,
197900,1871.2,29.3,189.6,126.0,654.0,4535.0,2.0,0,
198000,1859.7,14.3,189.6,92.1,654.0,4535.0,2.0,0,
198100,1858.3,13.3,189.6,77.9,654.0,4535.0,2.0,0,
198200,1863.2,14.4,189.6,49.0,654.0,4535.0,2.0,0,
198300,1863.4,13.5,189.5,143.3,654.0,4535.0,2.0,0,
198400,1856.9,16.9,189.5,240.0,654.0,4535.0,2.0,0,
198600,1844.4,24.3,189.9,239.5,654.0,4535.0,2.0,0,
198700,1846.2,18.4,189.9,141.2,654.0,4535.0,2.0,0,
198800,1859.3,24.0,189.9,149.6,654.0,4535.0,2.0,0,
198900,1845.2,128.7,183.5,237.9,885.0,5912.0,6.0,1,
199000,1869.3,167.0,172.4,55.7,902.0,5862.0,2.0,0,
199100,1897.3,227.3,170.7,66.3,1789.0,6781.0,2.0,0,
199200,1825.7,222.2,180.2,94.2,1068.0,6130.0,2.0,0,
199300,1858.3,152.8,170.5,164.3,1377.0,6120.0,2.0,0,
199400,1878.7,205.4,155.9,196.2,1967.0,6376.0,2.0,0,
199600,1860.8,16.2,148.2,260.5,1967.0,6376.0,2.0,0,
199700,1855.9,13.7,148.2,246.5,1967.0,6376.0,2.0,0,
199800,1862.6,12.6,148.2,230.6,1967.0,6376.0,2.0,0,
199900,1865.5,18.0,148.2,239.9,1967.0,6376.0,2.0,0,
200000,1848.6,21.6,148.0,240.1,1967.0,6376.0,2.0,0,
200100,1883.1,35.5,148.9,239.8,1967.0,6376.0,2.0,0,
200200,1847.5,17.8,147.2,239.4,1967.0,6376.0,2.0,0,
200300,1854.9,16.6,147.3,239.4,1967.0,6376.0,2.0,0,
200400,1858.1,15.8,147.3,239.9,1967.0,6376.0,2.0,0,
200600,1846.6,211.8,175.9,36.5,1492.0,6085.0,2.0,0,
200700,1844.8,193.7,181.6,36.3,1072.0,6271.0,2.0,0,
200800,1905.1,249.9,173.3,56.2,1492.0,6272.0,2.0,0,
200900,1863.4,291.0,184.3,99.9,1959.0,6821.0,2.0,0,
201000,1840.2,331.0,192.3,100.4,1219.0,5893.0,2.0,0,
201100,1868.4,50.8,194.2,157.3,910.0,5306.0,2.0,0,
201200,1857.0,17.6,194.2,216.2,910.0,5306.0,2.0,0,
201300,1853.5,16.3,194.1,219.0,910.0,5306.0,2.0,0,
201400,1866.4,17.6,194.2,220.6,910.0,5306.0,2.0,0,
201600,1851.4,21.2,194.2,240.1,910.0,5306.0,2.0,0,
201700,1863.9,19.3,193.6,240.1,910.0,5306.0,2.0,0,
201800,1854.1,16.7,193.7,240.0,910.0,5306.0,2.0,0,
201900,1856.3,14.0,193.7,239.9,910.0,5306.0,2.0,0,
202000,1859.1,16.2,193.7,240.0,910.0,5306.0,2.0,0,
202100,1837.3,141.2,186.1,239.8,1027.0,6033.0,6.0,1,
202200,1868.1,157.6,171.5,67.2,1171.0,6091.0,21.0,1,
202300,1917.0,193.4,165.7,66.5,1716.0,6727.0,2.0,0,
202400,1843.1,236.9,169.8,108.1,1873.0,6826.0,2.0,0,
202600,1858.2,154.1,151.9,194.7,1867.0,6314.0,2.0,0,
202700,1866.4,49.5,145.9,220.0,732.0,4679.0,2.0,0,
202800,1864.3,15.6,145.9,259.2,732.0,4679.0,2.0,0,
202900,1855.0,16.1,145.9,228.8,732.0,4679.0,2.0,0,
203000,1864.4,20.9,146.0,226.3,732.0,4679.0,2.0,0,
203100,1872.6,17.3,146.1,230.0,732.0,4679.0,2.0,0,
203200,1855.8,29.1,146.1,240.0,732.0,4679.0,2.0,0,
203300,1879.2,27.9,146.6,240.0,732.0,4679.0,2.0,0,
203400,1850.6,15.0,146.6,239.3,732.0,4679.0,2.0,0,
203600,1857.1,14.9,146.6,229.4,732.0,4679.0,2.0,0,
203700,1886.8,266.6,153.2,239.4,1290.0,5789.0,25.0,0,
203800,1868.7,294.3,172.7,38.3,1469.0,5825.0,5.0,1,
203900,1836.8,208.1,177.4,36.9,1042.0,6255.0,2.0,0,
204000,1860.5,216.3,175.3,45.6,1474.0,6373.0,2.0,0,
204100,1886.7,298.4,182.1,99.5,2091.0,7012.0,2.0,0,
204200,1853.5,338.6,192.5,100.2,1117.0,5662.0,2.0,0,
204300,1863.9,116.4,203.3,130.8,663.0,4459.0,2.0,0,
204400,1860.0,19.1,202.9,94.2,663.0,4459.0,2.0,0,
204600,1858.4,16.5,203.0,37.7,663.0,4459.0,2.0,0,
204700,1866.7,15.0,202.9,41.0,663.0,4459.0,2.0,0,
204800,1863.8,15.7,202.9,239.5,663.0,4459.0,2.0,0,
204900,1852.5,23.0,202.7,239.9,663.0,4459.0,2.0,0,
205000,1882.8,41.6,203.4,240.0,663.0,4459.0,2.0,0,
205100,1840.5,20.6,203.5,239.8,663.0,4459.0,2.0,0,
205200,1853.0,17.3,203.5,239.6,663.0,4459.0,2.0,0,
205300,1855.1,92.4,203.5,239.7,1092.0,6431.0,6.0,1,
205400,1845.6,277.9,187.3,137.7,1033.0,5247.0,26.0,0,
205600,1873.7,177.8,190.5,39.9,1768.0,6625.0,2.0,0,
205700,1842.0,283.6,190.9,99.7,1538.0,7101.0,24.0,1,
205800,1850.9,203.5,185.4,163.3,1856.0,6494.0,2.0,0,
205900,1862.1,132.2,173.2,75.9,721.0,4688.0,2.0,0,
206000,1860.7,22.3,170.5,156.0,721.0,4688.0,2.0,0,
206100,1854.8,18.5,170.4,227.6,721.0,4688.0,2.0,0,
206200,1856.5,21.3,170.4,226.9,721.0,4688.0,2.0,0,
206300,1876.5,15.9,170.6,227.3,721.0,4688.0,2.0,0,
206400,1859.0,18.0,170.5,239.9,721.0,4688.0,2.0,0,
206600,1866.7,28.5,170.1,240.1,721.0,4688.0,2.0,0,
206700,1849.3,17.6,170.1,239.6,721.0,4688.0,2.0,0,
206800,1855.4,17.1,170.1,239.3,721.0,4688.0,2.0,0,
206900,1856.3,31.1,170.2,239.7,721.0,4688.0,2.0,0,
207000,1884.2,173.1,174.8,67.3,993.0,6106.0,5.0,1,
207100,1837.0,127.8,158.1,35.5,950.0,6168.0,10.0,1,
207200,1875.2,123.6,150.8,34.4,1111.0,6623.0,9.0,1,
207300,1861.3,147.4,136.7,39.0,1279.0,6952.0,7.0,1,
207400,1868.2,179.9,123.3,66.4,1501.0,7192.0,7.0,1,
207600,1845.8,24.4,115.1,66.2,1501.0,7192.0,7.0,1,
207700,1855.7,17.9,115.1,44.1,1501.0,7192.0,7.0,1,
207800,1855.0,17.6,115.2,35.7,1501.0,7192.0,7.0,1,
207900,1863.6,15.3,114.9,35.8,1501.0,7192.0,7.0,1,
208000,1859.7,14.7,114.8,239.3,1501.0,7192.0,7.0,1,
208100,1861.3,28.7,114.9,239.9,1501.0,7192.0,7.0,1,
208200,1868.9,23.0,114.6,239.9,1501.0,7192.0,7.0,1,
208300,1858.9,17.5,114.7,239.4,1501.0,7192.0,7.0,1,
208400,1857.2,16.8,114.8,238.1,1501.0,7192.0,7.0,1,
208600,1833.4,301.1,109.0,238.7,967.0,5230.0,25.0,0,
208700,1897.7,198.3,139.4,36.2,1444.0,6144.0,2.0,0,
208800,1876.2,179.1,153.9,36.2,1804.0,7146.0,2.0,0,
208900,1851.7,240.3,161.8,68.7,1231.0,6431.0,2.0,0,
209000,1860.5,212.5,167.9,152.9,1831.0,6819.0,2.0,0,
209100,1817.1,240.0,179.3,158.2,1267.0,6303.0,2.0,0,
209200,1883.6,38.9,178.6,227.9,787.0,4848.0,2.0,0,
209300,1859.3,18.8,178.7,253.3,787.0,4848.0,2.0,0,
209400,1853.2,16.6,178.6,228.4,787.0,4848.0,2.0,0,
209600,1867.6,14.2,178.8,239.8,787.0,4848.0,2.0,0,
209700,1856.7,28.4,178.8,240.2,787.0,4848.0,2.0,0,
209800,1877.0,58.5,178.8,240.2,787.0,4848.0,2.0,0,
209900,1853.6,26.0,179.4,239.6,787.0,4848.0,2.0,0,
210000,1846.8,16.6,179.3,230.2,787.0,4848.0,2.0,0,
210100,1855.0,16.5,179.3,238.4,787.0,4848.0,2.0,0,
210200,1887.3,161.7,181.5,238.8,976.0,6295.0,5.0,1,
210300,1846.0,149.8,160.8,37.1,876.0,6148.0,10.0,1,
210400,1850.9,156.7,146.0,35.1,1347.0,6397.0,22.0,1,
210600,1869.3,143.5,152.5,133.2,1053.0,5536.0,2.0,0,
210700,1891.1,209.6,146.4,197.4,1511.0,5861.0,24.0,1,
210800,1845.4,37.5,145.9,226.8,636.0,4077.0,2.0,0,
210900,1858.7,16.2,145.8,226.2,636.0,4077.0,2.0,0,
211000,1854.3,16.8,145.8,168.0,636.0,4077.0,2.0,0,
211100,1864.1,15.7,145.8,105.2,636.0,4077.0,2.0,0,
211200,1865.8,17.1,145.8,149.3,636.0,4077.0,2.0,0,
211300,1859.6,21.1,145.7,240.1,636.0,4077.0,2.0,0,
211400,1862.7,69.3,145.9,240.1,636.0,4077.0,2.0,0,
211600,1847.5,21.1,146.3,184.4,636.0,4077.0,2.0,0,
211700,1856.5,19.1,146.4,143.0,636.0,4077.0,2.0,0,
211800,1846.0,162.9,147.0,239.5,989.0,6244.0,6.0,1,
211900,1869.3,163.4,149.7,68.1,966.0,6112.0,10.0,1,
212000,1881.8,120.2,149.6,38.9,1013.0,6589.0,9.0,1,
212100,1876.5,192.8,138.9,41.8,1085.0,6039.0,8.0,1,
212200,1875.3,132.2,128.9,66.2,1208.0,6469.0,7.0,1,
212300,1824.2,151.2,123.0,66.0,1207.0,6203.0,7.0,1,
212400,1856.0,56.3,109.4,47.6,1425.0,6571.0,7.0,1,
212600,1856.2,16.9,109.6,66.3,1425.0,6571.0,7.0,1,
212700,1858.6,14.8,109.5,66.6,1425.0,6571.0,7.0,1,
212800,1866.4,16.9,109.5,136.4,1425.0,6571.0,7.0,1,
212900,1860.5,19.3,109.5,240.0,1425.0,6571.0,7.0,1,
213000,1853.0,51.8,109.4,240.0,1425.0,6571.0,7.0,1,
213100,1865.7,26.9,107.9,239.8,1425.0,6571.0,7.0,1,
213200,1854.9,21.3,107.9,239.5,1425.0,6571.0,7.0,1,
213300,1858.3,16.1,108.0,239.3,1425.0,6571.0,7.0,1,
213400,1883.2,124.1,108.0,239.6,1007.0,5942.0,7.0,1,
213600,1842.3,187.4,102.8,35.8,1032.0,6377.0,8.0,1,
213700,1875.7,134.1,106.5,36.9,1152.0,6477.0,8.0,1,
213800,1847.4,144.6,104.2,43.3,1250.0,6747.0,7.0,1,
213900,1889.6,156.0,107.9,35.3,1332.0,6219.0,6.0,1,
214000,1875.3,83.7,111.4,37.7,1424.0,6131.0,6.0,1,
214100,1844.8,19.0,111.3,46.7,1424.0,6131.0,6.0,1,
214200,1856.1,18.0,111.3,44.3,1424.0,6131.0,6.0,1,
214300,1857.6,17.8,111.3,36.3,1424.0,6131.0,6.0,1,
214400,1868.8,16.5,111.4,52.4,1424.0,6131.0,6.0,1,
214600,1851.5,24.3,111.4,240.1,1424.0,6131.0,6.0,1,
214700,1883.7,49.6,111.9,240.1,1424.0,6131.0,6.0,1,
214800,1838.2,21.7,112.0,239.6,1424.0,6131.0,6.0,1,
214900,1852.0,18.8,111.9,238.3,1424.0,6131.0,6.0,1,
215000,1857.5,103.7,111.9,238.7,986.0,5969.0,6.0,1,
215100,1842.5,237.9,117.2,100.2,1391.0,6635.0,26.0,0,
215200,1874.5,205.7,125.5,37.7,1597.0,5755.0,2.0,0,
215300,1890.0,242.6,136.6,39.1,1314.0,6544.0,2.0,0,
215400,1876.2,253.5,147.0,77.5,1522.0,6269.0,24.0,1,
215600,1825.2,207.0,169.8,51.6,839.0,4304.0,2.0,0,
215700,1875.0,23.5,172.6,225.6,839.0,4304.0,2.0,0,
215800,1857.6,15.0,172.6,253.7,839.0,4304.0,2.0,0,
215900,1854.0,16.1,172.5,220.8,839.0,4304.0,2.0,0,
216000,1862.9,15.0,172.4,194.5,839.0,4304.0,2.0,0,
216100,1859.5,18.0,172.3,239.7,839.0,4304.0,2.0,0,
216200,1856.2,55.0,172.4,240.1,839.0,4304.0,2.0,0,
216300,1864.3,24.7,172.1,240.0,839.0,4304.0,2.0,0,
216400,1852.8,18.9,172.1,239.3,839.0,4304.0,2.0,0,
216600,1857.6,27.1,172.2,239.8,839.0,4304.0,2.0,0,
216700,1876.5,124.6,170.1,229.1,1015.0,5943.0,5.0,1,
216800,1860.3,148.4,161.1,37.1,814.0,6054.0,10.0,1,
216900,1867.2,149.5,150.6,36.9,1124.0,6734.0,9.0,1,
217000,1843.2,148.9,139.7,65.7,1198.0,6082.0,7.0,1,
217100,1867.3,130.6,126.8,67.3,1399.0,6156.0,7.0,1,
217200,1888.7,124.2,107.4,66.1,1568.0,6988.0,7.0,1,
217300,1844.6,22.3,100.4,43.7,1590.0,6106.0,6.0,1,
217400,1858.2,15.9,100.4,56.1,1590.0,6106.0,6.0,1,
217600,1862.1,17.8,100.5,66.2,1590.0,6106.0,6.0,1,
217700,1858.6,20.5,100.5,239.3,1590.0,6106.0,6.0,1,
217800,1857.8,46.5,100.6,240.1,1590.0,6106.0,6.0,1,
217900,1870.1,20.2,100.0,240.0,1590.0,6106.0,6.0,1,
218000,1856.5,17.6,100.0,239.6,1590.0,6106.0,6.0,1,
218100,1857.7,15.5,100.1,239.3,1590.0,6106.0,6.0,1,
218200,1859.7,15.6,100.1,239.8,1590.0,6106.0,6.0,1,
218300,1841.9,168.9,101.1,239.4,948.0,6020.0,6.0,1,
218400,1881.6,209.1,118.3,66.7,1215.0,5641.0,3.0,1,
218600,1865.8,273.7,140.3,100.7,898.0,5502.0,2.0,0,
218700,1876.0,284.4,153.2,166.7,1669.0,5861.0,2.0,0,
218800,1833.4,271.4,166.9,93.5,1569.0,5754.0,2.0,0,
218900,1856.3,41.6,173.8,87.2,775.0,4459.0,2.0,0,
219000,1858.3,16.6,173.8,227.8,775.0,4459.0,2.0,0,
219100,1855.8,15.6,173.7,234.6,775.0,4459.0,2.0,0,
219200,1859.1,16.6,173.7,227.2,775.0,4459.0,2.0,0,
219300,1865.3,17.1,173.7,239.4,775.0,4459.0,2.0,0,
219400,1854.5,19.8,173.7,239.9,775.0,4459.0,2.0,0,
219600,1849.8,24.0,174.1,239.4,775.0,4459.0,2.0,0,
219700,1849.9,19.3,174.0,72.8,775.0,4459.0,2.0,0,
219800,1857.1,16.8,174.0,137.5,775.0,4459.0,2.0,0,
219900,1882.5,124.4,175.2,239.3,967.0,5698.0,5.0,1,
220000,1851.5,152.2,168.0,38.1,863.0,5689.0,5.0,1,
220100,1858.4,204.3,154.9,35.5,1187.0,6715.0,8.0,1,
220200,1877.1,147.3,152.2,37.6,1151.0,6708.0,8.0,1,
220300,1826.5,152.8,136.6,44.1,1409.0,5992.0,7.0,1,
220400,1902.1,115.7,119.0,34.9,1424.0,6160.0,7.0,1,
220600,1861.8,15.5,103.4,65.5,1424.0,6160.0,7.0,1,
220700,1854.9,17.2,103.4,42.3,1424.0,6160.0,7.0,1,
220800,1866.2,15.3,103.6,38.1,1424.0,6160.0,7.0,1,
220900,1863.6,17.8,103.6,142.1,1424.0,6160.0,7.0,1,
221000,1861.9,18.6,103.6,240.1,1424.0,6160.0,7.0,1,
221100,1850.0,23.2,103.4,240.0,1424.0,6160.0,7.0,1,
221200,1886.3,48.4,103.9,240.0,1424.0,6160.0,7.0,1,
221300,1838.0,23.4,104.1,238.4,1424.0,6160.0,7.0,1,
221400,1853.1,16.9,104.0,53.9,1424.0,6160.0,7.0,1,
221600,1850.0,183.2,112.0,56.8,1118.0,6461.0,21.0,1,
221700,1855.5,157.0,122.3,38.2,1781.0,6409.0,2.0,0,
221800,1885.6,148.1,124.6,54.9,934.0,5967.0,2.0,0,
221900,1888.2,285.8,137.8,164.3,1366.0,5205.0,2.0,0,
222000,1845.5,299.3,159.0,195.1,2027.0,5940.0,2.0,0,
222100,1836.7,87.6,177.6,134.5,558.0,3698.0,2.0,0,
222200,1862.9,20.4,177.5,130.8,558.0,3698.0,2.0,0,
222300,1858.0,14.8,177.5,66.0,558.0,3698.0,2.0,0,
222400,1858.1,13.6,177.5,37.0,558.0,3698.0,2.0,0,
222600,1860.1,16.6,177.4,239.9,558.0,3698.0,2.0,0,
222700,1863.8,44.7,177.6,240.0,558.0,3698.0,2.0,0,
222800,1863.5,23.4,177.4,239.6,558.0,3698.0,2.0,0,
222900,1848.3,17.0,177.1,99.4,558.0,3698.0,2.0,0,
223000,1857.4,17.2,177.1,117.5,558.0,3698.0,2.0,0,
223100,1878.9,195.5,177.1,239.5,939.0,5453.0,7.0,1,
223200,1853.5,147.2,178.3,41.4,881.0,6190.0,5.0,1,
223300,1865.0,144.9,172.6,35.4,1024.0,6083.0,9.0,1,
223400,1873.6,190.5,167.0,34.9,1059.0,6950.0,8.0,1,
223600,1875.6,133.1,139.6,42.3,1509.0,7009.0,6.0,1,
223700,1891.0,79.5,113.7,35.4,1387.0,6628.0,6.0,1,
223800,1849.8,17.1,111.0,38.7,1387.0,6628.0,6.0,1,
223900,1856.7,17.2,111.0,41.7,1387.0,6628.0,6.0,1,
224000,1849.6,19.8,110.8,36.2,1387.0,6628.0,6.0,1,
224100,1872.5,18.9,111.2,37.1,1387.0,6628.0,6.0,1,
224200,1861.1,22.6,111.2,239.8,1387.0,6628.0,6.0,1,
224300,1860.0,25.4,111.4,239.9,1387.0,6628.0,6.0,1,
224400,1862.0,16.5,110.3,238.3,1387.0,6628.0,6.0,1,
224600,1858.5,16.5,110.4,239.5,1387.0,6628.0,6.0,1,
224700,1859.5,74.4,110.4,240.0,1011.0,6259.0,6.0,1,
224800,1846.8,233.1,104.3,211.1,1471.0,6663.0,26.0,0,
224900,1873.4,203.2,117.0,65.9,1563.0,6048.0,2.0,0,
225000,1859.2,247.1,129.8,66.6,1510.0,6681.0,2.0,0,
225100,1885.5,235.5,139.1,107.4,1604.0,6616.0,24.0,1,
225200,1875.0,238.7,146.3,130.4,1821.0,6115.0,2.0,0,
225300,1824.7,193.2,159.7,72.0,784.0,4459.0,2.0,0,
225400,1864.7,23.6,162.4,220.2,784.0,4459.0,2.0,0,
225600,1854.8,21.3,162.4,229.4,784.0,4459.0,2.0,0,
225700,1873.3,14.8,162.5,228.1,784.0,4459.0,2.0,0,
225800,1865.1,18.5,162.4,239.7,784.0,4459.0,2.0,0,
225900,1856.7,21.9,162.4,239.9,784.0,4459.0,2.0,0,
226000,1880.4,47.4,163.1,239.9,784.0,4459.0,2.0,0,
226100,1841.2,18.7,163.0,239.4,784.0,4459.0,2.0,0,
226200,1854.0,16.0,162.9,170.6,784.0,4459.0,2.0,0,
226300,1856.0,13.3,162.9,238.5,784.0,4459.0,2.0,0,
226400,1871.6,137.2,164.1,237.3,845.0,6170.0,5.0,1,
226600,1875.2,183.8,148.7,65.8,1054.0,6489.0,8.0,1,
226700,1851.8,148.2,136.1,65.6,1073.0,6195.0,7.0,1,
226800,1823.0,153.1,126.0,49.5,1331.0,6198.0,7.0,1,
226900,1904.4,117.4,110.2,42.8,1431.0,6479.0,7.0,1,
227000,1853.5,27.4,104.7,48.5,1419.0,6216.0,6.0,1,
227100,1855.1,19.9,104.7,66.1,1419.0,6216.0,6.0,1,
227200,1855.2,18.9,104.8,37.8,1419.0,6216.0,6.0,1,
227300,1869.9,17.3,104.7,36.1,1419.0,6216.0,6.0,1,
227400,1858.1,17.3,104.5,239.3,1419.0,6216.0,6.0,1,
227600,1864.0,19.6,104.3,239.9,1419.0,6216.0,6.0,1,
227700,1853.8,18.4,103.6,239.7,1419.0,6216.0,6.0,1,
227800,1860.5,17.7,103.8,239.7,1419.0,6216.0,6.0,1,
227900,1857.2,17.3,103.8,239.9,1419.0,6216.0,6.0,1,
228000,1861.2,223.6,103.0,239.7,971.0,5533.0,6.0,1,
228100,1871.9,207.4,119.7,55.7,1159.0,6164.0,16.0,1,
228200,1843.6,141.1,119.1,50.7,1208.0,7113.0,8.0,1,
228300,1880.1,158.6,120.5,52.5,1188.0,7035.0,6.0,1,
228400,1889.5,153.3,123.2,56.5,1337.0,6259.0,6.0,1,
228600,1849.6,33.0,122.4,65.6,1231.0,6648.0,7.0,1,
228700,1856.1,17.2,122.3,48.7,1231.0,6648.0,7.0,1,
228800,1853.3,18.5,122.3,65.9,1231.0,6648.0,7.0,1,
228900,1865.8,15.8,122.3,65.6,1231.0,6648.0,7.0,1,
229000,1861.3,18.5,122.3,239.3,1231.0,6648.0,7.0,1,
229100,1860.9,21.4,122.3,240.2,1231.0,6648.0,7.0,1,
229200,1865.1,20.3,122.3,240.1,1231.0,6648.0,7.0,1,
229300,1854.5,21.4,122.3,239.8,1231.0,6648.0,7.0,1,
229400,1857.8,18.0,122.3,239.7,1231.0,6648.0,7.0,1,
229600,1866.4,144.2,125.0,239.7,1021.0,5926.0,5.0,1,
229700,1857.5,120.2,113.0,47.5,871.0,6564.0,10.0,1,
229800,1885.3,175.9,108.8,43.9,1058.0,6382.0,8.0,1,
229900,1864.9,157.6,112.0,45.5,1228.0,6997.0,7.0,1,
230000,1823.5,157.0,106.1,65.8,1347.0,6316.0,7.0,1,
230100,1886.5,264.6,108.0,48.8,1627.0,7121.0,7.0,1,
230200,1859.0,44.1,117.2,42.1,1581.0,6894.0,6.0,1,
230300,1861.4,19.1,117.1,38.1,1581.0,6894.0,6.0,1,
230400,1854.8,23.3,117.1,35.5,1581.0,6894.0,6.0,1,
230600,1860.1,17.8,117.2,66.5,1581.0,6894.0,6.0,1,
230700,1862.1,25.4,117.2,239.8,1581.0,6894.0,6.0,1,
230800,1873.6,25.9,117.5,239.8,1581.0,6894.0,6.0,1,
230900,1845.2,18.8,117.4,239.4,1581.0,6894.0,6.0,1,
231000,1855.7,18.4,117.4,237.4,1581.0,6894.0,6.0,1,
231100,1854.1,17.6,117.4,239.4,1581.0,6894.0,6.0,1,
231200,1875.5,151.9,117.5,240.0,1012.0,5707.0,6.0,1,
231300,1842.3,199.0,127.4,57.5,1476.0,6398.0,20.0,1,
231400,1865.1,211.9,141.8,39.6,1798.0,6256.0,2.0,0,
231600,1903.4,192.8,160.5,131.3,1486.0,5805.0,2.0,0,
231700,1853.2,217.1,166.0,74.4,1775.0,6040.0,2.0,0,
231800,1828.2,104.5,172.6,99.2,750.0,4615.0,2.0,0,
231900,1864.7,19.2,172.4,228.5,750.0,4615.0,2.0,0,
232000,1854.9,17.9,172.4,226.8,750.0,4615.0,2.0,0,
232100,1861.8,20.5,172.3,195.8,750.0,4615.0,2.0,0,
232200,1870.0,17.6,172.5,203.7,750.0,4615.0,2.0,0,
232300,1861.1,16.5,172.5,239.9,750.0,4615.0,2.0,0,
232400,1862.0,41.7,172.4,239.9,750.0,4615.0,2.0,0,
232600,1851.1,20.8,172.7,238.7,750.0,4615.0,2.0,0,
232700,1856.5,18.8,172.7,238.1,750.0,4615.0,2.0,0,
232800,1852.5,86.2,172.6,239.7,934.0,5560.0,7.0,1,
232900,1850.6,139.5,167.2,67.3,805.0,6234.0,10.0,1,
233000,1883.6,259.0,154.5,48.5,929.0,6101.0,2.0,0,
233100,1891.9,184.1,151.1,65.7,1630.0,6147.0,2.0,0,
233200,1831.4,255.9,152.5,93.2,1480.0,5820.0,2.0,0,
233300,1843.8,272.0,164.9,164.1,1667.0,6018.0,24.0,1,
233400,1894.8,102.1,162.9,195.1,720.0,4545.0,2.0,0,
233600,1857.2,18.2,160.3,164.6,720.0,4545.0,2.0,0,
233700,1855.0,19.2,160.3,170.6,720.0,4545.0,2.0,0,
233800,1871.1,16.7,160.2,173.9,720.0,4545.0,2.0,0,
233900,1867.8,17.9,160.3,240.0,720.0,4545.0,2.0,0,
234000,1860.6,17.0,160.2,240.0,720.0,4545.0,2.0,0,
234100,1855.5,38.0,159.8,239.9,720.0,4545.0,2.0,0,
234200,1859.2,23.4,160.3,239.8,720.0,4545.0,2.0,0,
234300,1852.6,19.5,160.3,239.3,720.0,4545.0,2.0,0,
234400,1855.8,56.9,160.3,239.0,720.0,4545.0,2.0,0,
234600,1866.6,165.8,164.3,66.1,975.0,6904.0,9.0,1,
234700,1836.2,191.4,154.9,66.3,1197.0,6460.0,8.0,1,
234800,1896.5,152.4,145.4,66.1,1232.0,6832.0,8.0,1,
234900,1876.8,158.9,127.2,65.7,1277.0,6519.0,7.0,1,
235000,1833.5,140.8,109.8,66.1,1367.0,6944.0,7.0,1,
235100,1850.5,25.4,105.6,66.0,1367.0,6944.0,7.0,1,
235200,1856.3,17.6,105.6,66.6,1367.0,6944.0,7.0,1,
235300,1862.1,15.5,105.8,67.0,1367.0,6944.0,7.0,1,
235400,1859.9,17.1,105.4,98.7,1367.0,6944.0,7.0,1,
235600,1850.8,20.4,105.2,239.9,1367.0,6944.0,7.0,1,
235700,1894.1,59.4,108.0,239.4,1367.0,6944.0,7.0,1,
235800,1833.3,33.4,107.5,110.7,1367.0,6944.0,7.0,1,
235900,1852.8,24.3,107.6,52.5,1367.0,6944.0,7.0,1,
236000,1851.4,22.5,107.7,57.6,1367.0,6944.0,7.0,1,
236100,1843.5,145.1,106.5,238.2,891.0,5748.0,5.0,1,
236200,1860.8,181.9,104.5,65.6,996.0,6379.0,9.0,1,
236300,1915.3,242.7,120.2,66.2,1501.0,6100.0,2.0,0,
236400,1847.7,212.4,130.4,91.1,1872.0,6351.0,2.0,0,
236600,1864.3,194.6,143.7,226.0,1660.0,5389.0,2.0,0,
236700,1864.6,30.9,147.4,226.7,658.0,4094.0,2.0,0,
236800,1857.1,18.9,147.4,247.5,658.0,4094.0,2.0,0,
236900,1855.7,18.4,147.3,259.3,658.0,4094.0,2.0,0,
237000,1866.1,15.5,147.5,241.2,658.0,4094.0,2.0,0,
237100,1864.5,16.7,147.4,240.0,658.0,4094.0,2.0,0,
237200,1862.3,25.0,147.6,240.1,658.0,4094.0,2.0,0,
237300,1885.7,52.4,146.6,240.1,658.0,4094.0,2.0,0,
237400,1844.0,22.1,146.3,239.4,658.0,4094.0,2.0,0,
237600,1854.5,18.8,146.3,238.2,658.0,4094.0,2.0,0,
237700,1873.5,269.0,151.6,238.4,889.0,5507.0,26.0,0,
237800,1875.2,173.6,164.4,36.9,943.0,6891.0,9.0,1,
237900,1837.6,181.7,155.4,36.8,1118.0,6423.0,8.0,1,
238000,1868.6,181.0,143.5,38.0,984.0,6121.0,8.0,1,
238100,1888.1,143.6,136.5,65.8,1306.0,6747.0,7.0,1,
238200,1843.0,145.8,133.3,65.8,1329.0,6883.0,7.0,1,
238300,1850.6,32.3,125.1,65.5,1486.0,6879.0,6.0,1,
238400,1859.4,17.9,125.1,65.5,1486.0,6879.0,6.0,1,
238600,1875.9,15.5,125.3,53.9,1486.0,6879.0,6.0,1,
238700,1866.1,20.0,125.3,239.3,1486.0,6879.0,6.0,1,
238800,1856.8,22.1,125.3,240.1,1486.0,6879.0,6.0,1,
238900,1867.2,26.5,125.2,239.9,1486.0,6879.0,6.0,1,
239000,1842.7,19.2,124.3,239.5,1486.0,6879.0,6.0,1,
239100,1855.7,17.4,124.4,238.1,1486.0,6879.0,6.0,1,
239200,1854.3,18.0,124.2,239.4,1486.0,6879.0,6.0,1,
239300,1840.4,163.0,126.8,239.8,984.0,6165.0,5.0,1,
239400,1858.1,130.8,106.7,36.7,888.0,6489.0,10.0,1,
239600,1871.3,157.5,102.3,65.6,1161.0,6626.0,7.0,1,
239700,1827.2,158.1,101.4,65.9,1354.0,6856.0,7.0,1,
239800,1858.7,152.3,104.1,65.6,1502.0,6540.0,6.0,1,
239900,1864.1,46.8,109.7,66.0,1679.0,6830.0,6.0,1,
240000,1863.0,18.4,109.7,43.8,1679.0,6830.0,6.0,1,
240100,1855.4,17.1,109.7,36.0,1679.0,6830.0,6.0,1,
240200,1869.1,20.9,109.5,36.0,1679.0,6830.0,6.0,1,
240300,1868.8,16.4,109.6,238.1,1679.0,6830.0,6.0,1,
240400,1863.1,19.5,109.6,240.3,1679.0,6830.0,6.0,1,
240600,1869.4,25.2,109.9,240.0,1679.0,6830.0,6.0,1,
240700,1851.8,16.9,109.9,239.4,1679.0,6830.0,6.0,1,
240800,1856.8,18.6,109.9,239.2,1679.0,6830.0,6.0,1,
240900,1872.3,217.0,108.7,239.8,1044.0,6402.0,6.0,1,
241000,1882.3,230.0,127.5,36.3,1070.0,5543.0,2.0,0,
241100,1850.2,148.1,129.2,35.6,943.0,5882.0,8.0,1,
241200,1839.3,163.4,127.5,36.6,1043.0,5742.0,8.0,1,
241300,1896.0,117.9,126.9,67.4,1172.0,6181.0,7.0,1,
241400,1852.1,135.7,124.9,98.9,1230.0,5859.0,7.0,1,
241600,1849.4,21.1,121.5,43.2,1230.0,5859.0,7.0,1,
241700,1868.0,20.5,121.7,36.2,1230.0,5859.0,7.0,1,
241800,1864.4,16.5,121.7,35.2,1230.0,5859.0,7.0,1,
241900,1863.1,17.2,121.5,37.0,1230.0,5859.0,7.0,1,
242000,1857.3,16.8,121.4,240.0,1230.0,5859.0,7.0,1,
242100,1859.7,25.6,121.5,240.2,1230.0,5859.0,7.0,1,
242200,1868.7,16.2,121.4,240.2,1230.0,5859.0,7.0,1,
242300,1857.5,19.0,121.5,239.7,1230.0,5859.0,7.0,1,
242400,1859.9,17.2,121.5,239.3,1230.0,5859.0,7.0,1,
242600,1829.5,140.5,107.2,135.0,951.0,6111.0,10.0,1,
242700,1886.1,141.7,96.8,66.1,1013.0,5899.0,9.0,1,
242800,1882.4,142.4,97.4,66.3,1136.0,6830.0,8.0,1,
242900,1845.5,145.0,96.8,66.6,1412.0,6641.0,7.0,1,
243000,1862.3,176.1,99.0,66.2,1513.0,6381.0,6.0,1,
243100,1836.0,89.3,107.3,66.0,1284.0,5925.0,6.0,1,
243200,1881.0,21.8,104.0,36.3,1284.0,5925.0,6.0,1,
243300,1856.0,17.7,103.9,34.5,1284.0,5925.0,6.0,1,
243400,1857.0,15.2,103.5,34.5,1284.0,5925.0,6.0,1,
243600,1864.1,15.5,103.5,240.1,1284.0,5925.0,6.0,1,
243700,1861.4,17.5,103.6,240.3,1284.0,5925.0,6.0,1,
243800,1863.7,15.9,103.3,240.1,1284.0,5925.0,6.0,1,
243900,1862.4,15.6,103.4,239.9,1284.0,5925.0,6.0,1,
244000,1861.0,15.2,103.4,240.0,1284.0,5925.0,6.0,1,
244100,1862.1,187.6,103.4,240.1,1284.0,5925.0,6.0,1,
244200,1895.8,250.8,125.6,42.1,1050.0,5702.0,25.0,0,
244300,1849.3,129.1,129.5,36.6,912.0,5620.0,9.0,1,
244400,1837.6,146.0,127.9,37.2,1383.0,5786.0,24.0,1,
244600,1872.9,116.0,147.8,152.8,1392.0,5363.0,7.0,1,
244700,1869.3,173.3,145.2,227.5,1644.0,4858.0,25.0,0,
244800,1853.1,27.2,148.8,226.6,407.0,3094.0,2.0,0,
244900,1856.0,19.1,148.8,225.7,407.0,3094.0,2.0,0,
245000,1874.8,15.4,149.0,259.5,407.0,3094.0,2.0,0,
245100,1865.5,15.7,149.0,291.1,407.0,3094.0,2.0,0,
245200,1862.2,32.8,149.1,240.4,407.0,3094.0,2.0,0,
245300,1863.5,17.8,149.2,239.9,407.0,3094.0,2.0,0,
245400,1857.8,14.4,149.2,239.4,407.0,3094.0,2.0,0,
245600,1856.8,18.3,149.1,239.6,407.0,3094.0,2.0,0,
245700,1859.3,13.7,149.1,240.1,407.0,3094.0,2.0,0,
245800,1846.3,144.1,136.7,239.3,900.0,5586.0,5.0,1,
245900,1861.8,129.0,127.2,66.1,980.0,6025.0,10.0,1,
246000,1902.7,107.4,127.6,66.1,1055.0,6783.0,8.0,1,
246100,1850.2,128.8,120.2,66.5,1304.0,6359.0,7.0,1,
246200,1854.0,142.8,103.3,66.6,1424.0,6060.0,7.0,1,
246300,1848.4,110.2,98.4,66.5,1507.0,5645.0,6.0,1,
246400,1866.8,24.5,91.2,38.4,1507.0,5707.0,6.0,1,
246600,1856.9,14.4,90.7,30.0,1507.0,5707.0,6.0,1,
246700,1857.6,17.9,90.4,49.1,1507.0,5707.0,6.0,1,
246800,1858.8,16.4,90.3,239.5,1507.0,5707.0,6.0,1,
246900,1859.7,17.1,89.9,239.6,1507.0,5707.0,6.0,1,
247000,1862.1,14.0,90.0,239.3,1507.0,5707.0,6.0,1,
247100,1859.0,15.1,90.0,239.6,1507.0,5707.0,6.0,1,
247200,1860.2,13.1,90.1,239.9,1507.0,5707.0,6.0,1,
247300,1858.7,13.9,90.0,240.1,1507.0,5707.0,6.0,1,
247400,1885.2,140.0,90.2,239.2,1013.0,6138.0,6.0,1,
247600,1837.7,102.4,86.1,54.5,872.0,5203.0,3.0,1,
247700,1859.7,92.1,83.4,55.7,658.0,4427.0,7.0,1,
247800,1849.4,100.5,82.1,65.7,656.0,4695.0,7.0,1,
247900,1869.5,123.4,80.4,55.7,912.0,4610.0,24.0,1,
248000,1853.6,36.9,85.6,109.0,591.0,3896.0,6.0,1,
248100,1855.0,14.0,85.5,104.5,591.0,3896.0,6.0,1,
248200,1856.2,10.6,85.5,48.2,591.0,3896.0,6.0,1,
248300,1856.1,13.7,85.4,35.6,591.0,3896.0,6.0,1,
248400,1860.3,15.6,85.4,36.6,591.0,3896.0,6.0,1,
248600,1869.5,16.8,85.6,239.9,591.0,3896.0,6.0,1,
248700,1872.0,15.1,85.8,240.0,591.0,3896.0,6.0,1,
248800,1874.3,21.3,86.1,239.9,591.0,3896.0,6.0,1,
248900,1881.3,22.1,86.6,239.7,591.0,3896.0,6.0,1,
249000,1878.2,99.4,87.6,239.8,929.0,5468.0,6.0,1,
249100,1869.7,228.5,94.8,69.4,1258.0,4321.0,25.0,0,
249200,1884.2,91.8,101.6,56.0,629.0,3990.0,9.0,1,
249300,1880.5,90.7,100.3,54.8,535.0,4213.0,9.0,1,
249400,1878.0,152.5,101.4,38.5,984.0,4624.0,7.0,1,
249600,1830.0,39.2,96.4,44.1,1139.0,4754.0,7.0,1,
249700,1859.3,13.6,96.3,37.2,1139.0,4754.0,7.0,1,
249800,1855.7,14.1,96.3,40.3,1139.0,4754.0,7.0,1,
249900,1858.2,14.0,96.4,90.1,1139.0,4754.0,7.0,1,
250000,1860.7,17.2,96.4,239.3,1139.0,4754.0,7.0,1,
250100,1851.9,37.9,96.4,240.0,1139.0,4754.0,7.0,1,
250200,1862.7,19.0,96.9,239.8,1139.0,4754.0,7.0,1,
250300,1853.5,15.1,96.8,238.1,1139.0,4754.0,7.0,1,
250400,1857.1,14.0,96.7,237.8,1139.0,4754.0,7.0,1,
250600,1882.1,168.5,102.7,239.6,1028.0,6075.0,5.0,1,
250700,1836.5,153.3,107.2,28.5,883.0,5545.0,5.0,1,
250800,1870.0,219.5,95.7,28.7,1001.0,5124.0,22.0,1,
250900,1877.8,175.2,114.2,29.5,1939.0,5620.0,2.0,0,
251000,1821.7,227.0,136.3,93.5,1226.0,4872.0,2.0,0,
251100,1899.2,205.5,147.0,195.1,1305.0,4633.0,2.0,0,
251200,1862.4,74.6,159.4,195.3,535.0,3077.0,2.0,0,
251300,1843.3,16.1,159.4,196.1,535.0,3077.0,2.0,0,
251400,1856.2,13.5,159.4,226.0,535.0,3077.0,2.0,0,
251600,1857.9,15.0,159.4,184.2,535.0,3077.0,2.0,0,
251700,1852.5,14.3,159.4,240.0,535.0,3077.0,2.0,0,
251800,1867.6,32.4,159.2,240.0,535.0,3077.0,2.0,0,
251900,1865.3,15.2,159.4,239.6,535.0,3077.0,2.0,0,
252000,1856.6,13.8,159.4,146.7,535.0,3077.0,2.0,0,
252100,1857.5,13.5,159.4,140.0,535.0,3077.0,2.0,0,
252200,1857.3,90.2,159.4,239.1,1010.0,5762.0,6.0,1,
252300,1866.2,191.1,159.9,40.2,1314.0,6002.0,26.0,0,
252400,1851.4,142.3,162.5,37.5,893.0,5354.0,9.0,1,
252600,1891.2,98.4,139.4,66.8,999.0,4715.0,7.0,1,
252700,1847.3,99.4,121.4,79.4,1163.0,5219.0,7.0,1,
252800,1851.6,95.5,106.7,66.1,1305.0,4762.0,7.0,1,
252900,1865.0,18.1,100.6,51.4,1305.0,4762.0,7.0,1,
253000,1854.5,15.6,100.6,67.2,1305.0,4762.0,7.0,1,
253100,1850.9,14.5,100.4,68.8,1305.0,4762.0,7.0,1,
253200,1861.2,18.9,100.4,105.6,1305.0,4762.0,7.0,1,
253300,1855.3,14.4,100.6,239.8,1305.0,4762.0,7.0,1,
253400,1864.1,59.8,100.9,239.4,1305.0,4762.0,7.0,1,
253600,1849.1,14.7,101.9,69.8,1305.0,4762.0,7.0,1,
253700,1855.6,15.4,101.9,73.0,1305.0,4762.0,7.0,1,
253800,1856.8,14.0,101.9,239.4,1305.0,4762.0,7.0,1,
253900,1845.6,146.1,91.4,238.2,870.0,5817.0,5.0,1,
254000,1870.5,174.0,92.0,66.1,850.0,5270.0,8.0,1,
254100,1870.2,150.0,95.5,66.1,1024.0,6140.0,8.0,1,
254200,1828.5,148.9,96.1,65.4,860.0,4732.0,7.0,1,
254300,1874.4,126.0,97.5,37.2,1110.0,5288.0,7.0,1,
254400,1868.3,114.6,99.3,34.5,1135.0,5185.0,6.0,1,
254600,1856.7,15.4,99.3,39.1,1135.0,5185.0,6.0,1,
254700,1853.8,14.8,99.4,40.9,1135.0,5185.0,6.0,1,
254800,1861.6,16.3,99.5,66.2,1135.0,5185.0,6.0,1,
254900,1863.0,22.8,99.5,239.6,1135.0,5185.0,6.0,1,
255000,1854.4,29.2,99.5,239.9,1135.0,5185.0,6.0,1,
255100,1870.8,28.6,98.6,239.2,1135.0,5185.0,6.0,1,
255200,1853.3,17.9,98.7,183.4,1135.0,5185.0,6.0,1,
255300,1855.3,16.3,98.7,137.3,1135.0,5185.0,6.0,1,
255400,1856.5,16.3,98.7,237.7,1135.0,5185.0,6.0,1,
255600,1840.4,222.7,142.3,39.2,1473.0,6285.0,6.0,1,
255700,1853.5,163.0,139.0,40.7,850.0,5447.0,8.0,1,
255800,1900.9,137.0,142.4,65.7,913.0,5275.0,7.0,1,
255900,1856.2,131.7,143.1,74.5,1276.0,5651.0,7.0,1,
256000,1843.0,146.0,143.2,41.8,1115.0,4739.0,6.0,1,
256100,1872.1,31.0,145.3,29.5,1267.0,4957.0,7.0,1,
256200,1856.7,16.1,145.3,34.3,1267.0,4957.0,7.0,1,
256300,1855.0,14.4,145.3,35.3,1267.0,4957.0,7.0,1,
256400,1856.7,13.5,145.3,34.7,1267.0,4957.0,7.0,1,
256600,1869.0,19.5,145.4,239.7,1267.0,4957.0,7.0,1,
256700,1866.2,18.0,144.9,215.4,1267.0,4957.0,7.0,1,
256800,1864.1,16.1,144.8,82.9,1267.0,4957.0,7.0,1,
256900,1863.2,14.0,144.8,90.9,1267.0,4957.0,7.0,1,
257000,1861.5,16.3,144.8,239.7,1267.0,4957.0,7.0,1,
257100,1873.6,161.9,137.3,239.6,1322.0,8662.0,4.0,1,
257200,1836.0,175.1,115.3,66.6,1179.0,7367.0,5.0,1,
257300,1893.4,175.7,112.4,66.3,876.0,5697.0,7.0,1,
257400,1833.0,165.5,112.6,66.3,927.0,4790.0,7.0,1,
257600,1890.1,117.7,117.0,35.7,1284.0,5281.0,6.0,1,
257700,1843.2,37.5,114.0,37.2,1207.0,5255.0,6.0,1,
257800,1864.2,15.8,114.0,40.7,1207.0,5255.0,6.0,1,
257900,1857.3,14.8,114.1,37.4,1207.0,5255.0,6.0,1,
258000,1854.7,14.8,114.1,41.6,1207.0,5255.0,6.0,1,
258100,1861.5,14.5,114.1,237.5,1207.0,5255.0,6.0,1,
258200,1865.0,20.9,113.8,239.8,1207.0,5255.0,6.0,1,
258300,1862.7,17.3,113.9,239.7,1207.0,5255.0,6.0,1,
258400,1863.3,14.3,113.9,239.6,1207.0,5255.0,6.0,1,
258600,1864.7,17.1,113.8,239.8,1207.0,5255.0,6.0,1,
258700,1878.5,176.4,113.9,240.0,1006.0,5551.0,6.0,1,
258800,1861.7,169.3,124.7,38.7,702.0,5322.0,10.0,1,
258900,1828.1,143.4,119.5,36.1,935.0,5062.0,9.0,1,
259000,1892.7,151.8,116.5,36.5,926.0,5466.0,8.0,1,
259100,1902.1,111.7,117.6,39.6,1050.0,4622.0,7.0,1,
259200,1847.3,117.0,109.0,50.4,1262.0,5481.0,7.0,1,
259300,1846.9,67.3,114.8,42.9,1397.0,5670.0,6.0,1,
259400,1859.6,17.0,114.5,37.0,1397.0,5670.0,6.0,1,
259600,1858.7,14.4,114.5,29.8,1397.0,5670.0,6.0,1,
