Time(ms),Raw_ADC,ENV_Value,RMS,MDF,MW_Amp,MW_Area,MW_Latency,MW_Valid,Marker
0,1911.0,303.9,0.0,0.0,2042.0,8721.0,2.0,0,
100,1823.9,29.6,0.0,0.0,2155.0,8172.0,2.0,0,
200,1857.7,14.8,0.0,0.0,2155.0,8172.0,2.0,0,
300,1858.9,16.1,0.0,0.0,2155.0,8172.0,2.0,0,
400,1859.4,15.1,0.0,0.0,2155.0,8172.0,2.0,0,
507,1859.6,14.4,0.0,235.7,2155.0,8172.0,2.0,0,
607,1860.3,16.2,0.0,239.3,2155.0,8172.0,2.0,0,
707,1859.0,16.3,0.0,239.6,2155.0,8172.0,2.0,0,
807,1861.6,16.0,0.0,239.5,2155.0,8172.0,2.0,0,
907,1859.9,16.2,0.0,239.6,2155.0,8172.0,2.0,0,
1007,1861.5,16.0,0.0,239.7,2155.0,8172.0,2.0,0,
1107,1833.0,189.4,0.0,49.8,2050.0,10699.0,11.0,1,
1207,1879.5,201.4,0.0,38.7,2154.0,9282.0,2.0,0,
1307,1844.3,86.3,0.0,37.7,2213.0,9767.0,2.0,0,
1407,1907.2,215.9,0.0,37.1,2157.0,9867.0,2.0,0,
1507,1818.0,176.0,0.0,67.2,2176.0,9450.0,2.0,0,
1607,1853.6,227.8,155.2,140.8,2044.0,9252.0,2.0,0,
1707,1876.3,35.2,156.2,92.1,2132.0,8336.0,2.0,0,
1807,1860.7,17.0,156.2,105.1,2132.0,8336.0,2.0,0,
1907,1860.2,17.0,156.1,74.2,2132.0,8336.0,2.0,0,
2007,1860.0,12.4,156.1,40.0,2132.0,8336.0,2.0,0,
2107,1859.7,15.2,156.1,154.6,2132.0,8336.0,2.0,0,
2207,1862.1,16.7,156.1,238.9,2132.0,8336.0,2.0,0,
2307,1859.8,15.4,156.1,239.6,2132.0,8336.0,2.0,0,
2407,1860.9,13.9,156.1,239.8,2132.0,8336.0,2.0,0,
2607,1860.2,13.7,156.1,240.5,2132.0,8336.0,2.0,0,
2707,1838.6,269.9,158.8,39.9,2036.0,11444.0,11.0,1,
2807,1891.8,235.6,168.2,38.4,2217.0,10792.0,11.0,1,
2907,1845.0,176.9,170.1,38.7,2093.0,9132.0,2.0,0,
3007,1830.6,114.4,174.4,37.7,2238.0,9395.0,2.0,0,
3107,1871.9,160.4,163.1,38.1,2269.0,9918.0,2.0,0,
3207,1848.5,189.9,171.4,125.4,2231.0,9709.0,2.0,0,
3307,1868.8,36.8,161.1,138.4,2207.0,9184.0,2.0,0,
3407,1859.6,15.1,161.1,68.8,2207.0,9184.0,2.0,0,
3607,1859.7,16.0,161.1,152.4,2207.0,9184.0,2.0,0,
3708,1861.3,15.7,161.1,239.2,2207.0,9184.0,2.0,0,
3808,1861.6,15.0,161.1,239.9,2207.0,9184.0,2.0,0,
3908,1859.8,15.5,161.1,239.6,2207.0,9184.0,2.0,0,
4008,1859.7,14.6,161.1,239.4,2207.0,9184.0,2.0,0,
4108,1862.1,15.1,161.1,239.7,2207.0,9184.0,2.0,0,
4208,1860.6,15.3,161.1,240.2,2207.0,9184.0,2.0,0,
4308,1894.3,222.7,164.2,70.5,1854.0,10943.0,12.0,1,
4408,1821.7,175.8,162.6,37.9,2227.0,10937.0,11.0,1,
4608,1859.6,215.5,172.6,65.7,2105.0,9281.0,2.0,0,
4708,1888.5,145.0,178.0,65.7,2090.0,9403.0,2.0,0,
4808,1833.4,92.2,169.4,65.7,2165.0,10325.0,2.0,0,
4908,1856.4,63.7,173.9,130.9,2081.0,8793.0,2.0,0,
5008,1861.1,17.7,173.9,151.4,2081.0,8793.0,2.0,0,
5108,1860.4,17.5,173.9,75.3,2081.0,8793.0,2.0,0,
5208,1859.4,15.9,173.9,65.8,2081.0,8793.0,2.0,0,
5308,1859.8,14.3,173.9,150.1,2081.0,8793.0,2.0,0,
5408,1861.6,14.9,173.9,239.7,2081.0,8793.0,2.0,0,
5608,1860.8,15.6,173.9,240.1,2081.0,8793.0,2.0,0,
5708,1861.0,14.0,173.9,240.0,2081.0,8793.0,2.0,0,
5808,1860.6,14.9,173.9,240.2,2081.0,8793.0,2.0,0,
5908,1843.0,189.3,171.8,183.9,1649.0,10492.0,12.0,1,
6008,1870.3,207.0,161.2,55.4,2091.0,9940.0,2.0,0,
6108,1884.0,105.0,139.4,52.8,1928.0,8635.0,2.0,0,
6208,1849.5,83.5,133.1,66.7,2154.0,10231.0,2.0,0,
6308,1841.2,185.6,136.5,142.3,2050.0,9043.0,2.0,0,
6408,1862.1,89.2,139.6,163.2,2123.0,9894.0,2.0,0,
6608,1861.2,19.7,138.1,129.9,2123.0,9894.0,2.0,0,
6708,1860.5,16.2,138.1,73.1,2123.0,9894.0,2.0,0,
6808,1860.8,16.8,138.1,43.2,2123.0,9894.0,2.0,0,
6908,1859.9,13.0,138.1,71.4,2123.0,9894.0,2.0,0,
7008,1861.9,15.2,138.1,240.0,2123.0,9894.0,2.0,0,
7108,1861.3,15.0,138.1,239.8,2123.0,9894.0,2.0,0,
7208,1859.4,15.4,138.1,239.9,2123.0,9894.0,2.0,0,
7308,1861.4,15.3,138.1,239.7,2123.0,9894.0,2.0,0,
7408,1861.7,14.8,138.1,239.7,2123.0,9894.0,2.0,0,
7608,1876.6,183.3,141.8,50.6,1982.0,10650.0,11.0,1,
7708,1833.7,159.1,158.3,49.5,1821.0,8808.0,11.0,1,
7808,1855.0,124.5,171.0,65.9,1972.0,9517.0,11.0,1,
7908,1863.4,234.6,170.5,66.1,1973.0,9161.0,2.0,0,
8008,1886.9,158.4,174.4,38.5,2050.0,9220.0,2.0,0,
8108,1841.9,70.7,170.0,36.4,1978.0,9166.0,2.0,0,
8208,1863.3,18.2,168.5,68.6,1978.0,9166.0,2.0,0,
8308,1861.3,15.7,168.5,186.7,1978.0,9166.0,2.0,0,
8408,1859.9,15.2,168.5,239.1,1978.0,9166.0,2.0,0,
8608,1860.4,16.2,168.5,239.9,1978.0,9166.0,2.0,0,
8708,1859.9,17.8,168.5,239.9,1978.0,9166.0,2.0,0,
8808,1860.4,16.3,168.5,239.7,1978.0,9166.0,2.0,0,
8908,1859.9,14.3,168.5,239.5,1978.0,9166.0,2.0,0,
9008,1861.3,17.0,168.5,239.9,1978.0,9166.0,2.0,0,
9108,1860.4,11.6,168.5,240.3,1978.0,9166.0,2.0,0,
9208,1837.9,148.8,168.3,48.6,2052.0,10926.0,11.0,1,
9308,1865.5,206.7,165.3,39.8,1978.0,9355.0,2.0,0,
9408,1885.4,172.0,160.6,38.0,1959.0,9145.0,2.0,0,
9608,1842.5,200.3,151.3,65.6,1947.0,9002.0,2.0,0,
9708,1854.0,153.7,157.0,174.7,2094.0,9863.0,2.0,0,
9808,1871.8,24.0,156.4,163.3,2034.0,9179.0,2.0,0,
9908,1859.1,16.3,156.4,154.5,2034.0,9179.0,2.0,0,
10008,1861.9,14.5,156.4,157.5,2034.0,9179.0,2.0,0,
10108,1859.8,12.9,156.4,173.3,2034.0,9179.0,2.0,0,
10208,1860.4,17.5,156.4,237.8,2034.0,9179.0,2.0,0,
10308,1861.3,15.6,156.4,238.8,2034.0,9179.0,2.0,0,
10408,1859.2,15.8,156.4,238.6,2034.0,9179.0,2.0,0,
10608,1860.6,15.6,156.4,239.6,2034.0,9179.0,2.0,0,
10708,1860.2,14.4,156.4,239.8,2034.0,9179.0,2.0,0,
10808,1863.2,182.2,154.2,43.1,1927.0,10476.0,11.0,1,
10908,1866.4,200.2,157.2,38.0,2075.0,10625.0,11.0,1,
11008,1833.9,179.9,154.9,37.7,1928.0,9481.0,2.0,0,
11108,1848.5,78.7,156.3,37.3,2179.0,9852.0,2.0,0,
11208,1868.8,208.8,154.6,39.2,2002.0,9278.0,2.0,0,
11308,1888.2,119.8,151.5,116.6,2027.0,9369.0,2.0,0,
11408,1829.7,28.0,149.5,163.9,2098.0,9099.0,2.0,0,
11609,1860.0,16.7,149.5,188.1,2098.0,9099.0,2.0,0,
11709,1859.6,14.7,149.5,164.8,2098.0,9099.0,2.0,0,
11809,1861.8,16.8,149.5,238.6,2098.0,9099.0,2.0,0,
11909,1858.8,17.0,149.5,239.4,2098.0,9099.0,2.0,0,
12009,1859.0,17.6,149.5,239.3,2098.0,9099.0,2.0,0,
12109,1860.9,16.3,149.5,239.4,2098.0,9099.0,2.0,0,
12209,1860.7,17.4,149.5,239.5,2098.0,9099.0,2.0,0,
12309,1858.7,16.3,149.5,239.7,2098.0,9099.0,2.0,0,
12409,1859.4,136.9,151.4,69.5,1673.0,9583.0,11.0,1,
12609,1865.0,260.3,159.2,39.6,1796.0,8722.0,2.0,0,
12709,1888.7,228.6,163.9,37.1,1986.0,8197.0,2.0,0,
12809,1848.1,89.1,161.2,36.1,1937.0,9990.0,2.0,0,
12909,1841.2,176.4,161.5,38.1,2015.0,8364.0,2.0,0,
13009,1858.3,52.2,166.8,108.4,1778.0,7784.0,2.0,0,
13109,1859.0,19.3,166.8,163.6,1778.0,7784.0,2.0,0,
13209,1859.0,20.4,166.8,131.4,1778.0,7784.0,2.0,0,
13309,1859.1,15.3,166.8,98.7,1778.0,7784.0,2.0,0,
13409,1859.2,20.5,166.9,125.4,1778.0,7784.0,2.0,0,
13609,1862.7,17.0,166.9,136.6,1778.0,7784.0,2.0,0,
13709,1860.6,16.8,166.9,115.1,1778.0,7784.0,2.0,0,
13809,1859.9,18.3,166.9,115.0,1778.0,7784.0,2.0,0,
13909,1860.0,15.4,166.9,123.9,1778.0,7784.0,2.0,0,
14009,1856.8,214.5,170.2,74.4,1495.0,9007.0,12.0,1,
14109,1878.5,205.2,170.1,36.9,1978.0,10493.0,11.0,1,
14209,1861.1,220.5,170.8,37.5,1937.0,10662.0,11.0,1,
14309,1843.4,205.0,171.3,39.6,1980.0,8653.0,2.0,0,
14409,1844.4,122.5,174.0,36.0,1837.0,8647.0,2.0,0,
14609,1860.5,75.9,173.9,158.1,1745.0,7812.0,2.0,0,
14709,1861.0,20.7,173.9,197.8,1745.0,7812.0,2.0,0,
14809,1860.0,14.8,173.9,164.0,1745.0,7812.0,2.0,0,
14909,1859.7,14.5,173.9,157.7,1745.0,7812.0,2.0,0,rest_end
15009,1860.6,16.7,173.9,164.4,1745.0,7812.0,2.0,0,
15109,1861.3,16.8,173.8,239.4,1745.0,7812.0,2.0,0,
15209,1859.8,16.3,173.8,239.2,1745.0,7812.0,2.0,0,
15309,1860.4,16.7,173.8,239.3,1745.0,7812.0,2.0,0,
15409,1861.1,16.9,173.8,237.4,1745.0,7812.0,2.0,0,
15609,1893.0,99.6,171.2,239.7,1377.0,8245.0,13.0,1,
15709,1830.5,161.1,170.1,65.5,1885.0,10497.0,11.0,1,
15809,1848.7,155.5,164.4,65.5,1669.0,8805.0,11.0,1,
15909,1866.2,229.8,159.7,65.7,1766.0,8830.0,2.0,0,
16009,1886.8,169.1,160.8,52.7,2009.0,8426.0,2.0,0,
16109,1849.3,134.6,161.8,39.3,1739.0,9032.0,2.0,0,
16209,1842.6,137.4,159.3,90.9,1712.0,7443.0,2.0,0,
16309,1870.1,22.0,159.2,197.8,1712.0,7443.0,2.0,0,
16409,1858.8,18.3,159.2,153.0,1712.0,7443.0,2.0,0,
16609,1861.5,15.6,159.2,68.2,1712.0,7443.0,2.0,0,
16709,1860.4,17.1,159.2,220.4,1712.0,7443.0,2.0,0,
16809,1860.5,15.2,159.2,240.0,1712.0,7443.0,2.0,0,
16909,1859.8,16.4,159.2,240.4,1712.0,7443.0,2.0,0,
17009,1860.6,17.1,159.2,240.6,1712.0,7443.0,2.0,0,
17109,1859.8,16.1,159.2,240.5,1712.0,7443.0,2.0,0,
17209,1861.0,29.5,159.2,240.1,1712.0,7443.0,2.0,0,
17309,1844.3,166.3,155.9,66.3,1877.0,10858.0,3.0,1,
17409,1886.0,177.4,148.5,56.0,1877.0,8501.0,2.0,0,
17609,1847.7,212.0,142.3,67.9,1848.0,8594.0,2.0,0,
17709,1846.0,185.1,147.0,195.2,1743.0,8550.0,2.0,0,
17809,1866.6,243.3,146.5,225.6,1762.0,8583.0,2.0,0,
17909,1874.1,29.4,147.2,197.0,1723.0,7699.0,2.0,0,
18009,1860.5,16.2,147.2,94.0,1723.0,7699.0,2.0,0,
18109,1860.6,15.4,147.2,41.5,1723.0,7699.0,2.0,0,
18209,1861.7,21.2,147.2,38.3,1723.0,7699.0,2.0,0,
18309,1863.8,29.5,147.3,183.8,1723.0,7699.0,2.0,0,
18409,1857.8,33.8,147.6,102.3,1723.0,7699.0,2.0,0,
18609,1860.0,20.6,147.9,76.1,1723.0,7699.0,2.0,0,
18709,1861.7,17.4,147.9,75.4,1723.0,7699.0,2.0,0,
18809,1860.0,17.3,147.9,78.1,1723.0,7699.0,2.0,0,
18909,1877.0,165.1,145.3,70.2,1733.0,10650.0,12.0,1,
19009,1838.0,242.0,154.6,43.2,1788.0,9031.0,2.0,0,
19109,1852.3,279.0,160.1,39.9,1876.0,8546.0,2.0,0,
19209,1857.8,299.6,168.6,39.5,1652.0,9041.0,2.0,0,
19309,1891.3,213.0,170.5,84.3,1983.0,8854.0,2.0,0,
19409,1841.9,249.3,176.5,197.5,1643.0,7860.0,2.0,0,
19609,1860.5,23.6,176.8,154.0,1643.0,7860.0,2.0,0,
19709,1860.2,25.2,176.9,41.7,1643.0,7860.0,2.0,0,
19809,1859.1,23.2,177.0,44.3,1643.0,7860.0,2.0,0,
19909,1862.8,27.4,176.9,86.8,1643.0,7860.0,2.0,0,
20009,1858.2,28.4,176.9,78.9,1643.0,7860.0,2.0,0,
20109,1863.9,23.7,176.6,76.5,1643.0,7860.0,2.0,0,
20209,1862.3,17.8,176.6,75.5,1643.0,7860.0,2.0,0,
20309,1860.3,19.9,176.6,75.5,1643.0,7860.0,2.0,0,
20409,1862.0,17.1,176.6,92.2,1643.0,7860.0,2.0,0,
20609,1845.9,162.9,171.9,39.0,1715.0,9842.0,3.0,1,
20709,1891.9,94.8,162.5,37.7,1934.0,8989.0,3.0,1,
20809,1846.6,227.2,158.1,38.0,1647.0,8554.0,2.0,0,
20909,1850.5,152.3,152.3,68.8,1818.0,8995.0,3.0,1,
21009,1841.4,197.1,146.0,135.3,1738.0,9197.0,3.0,1,
21109,1877.5,54.1,144.3,187.4,1710.0,8129.0,3.0,1,
21209,1861.9,26.9,144.3,219.3,1710.0,8129.0,3.0,1,
21309,1859.5,17.3,144.2,91.5,1710.0,8129.0,3.0,1,
21409,1861.4,16.6,144.1,37.6,1710.0,8129.0,3.0,1,
21609,1860.4,16.8,144.0,210.9,1710.0,8129.0,3.0,1,
21709,1861.9,15.8,143.9,200.3,1710.0,8129.0,3.0,1,
21809,1861.0,13.8,143.8,203.5,1710.0,8129.0,3.0,1,
21909,1861.0,18.3,143.8,239.6,1710.0,8129.0,3.0,1,
22009,1858.7,18.6,143.8,239.9,1710.0,8129.0,3.0,1,
22109,1858.6,196.8,147.3,66.4,1567.0,9714.0,12.0,1,
22209,1877.2,185.2,151.5,36.3,1783.0,10587.0,11.0,1,
22309,1838.3,196.0,161.7,36.4,1690.0,9446.0,3.0,1,
22409,1853.3,167.3,159.7,36.3,2004.0,9356.0,3.0,1,
22609,1891.8,219.2,162.6,107.8,1914.0,9561.0,3.0,1,
22709,1830.7,71.9,161.8,225.9,1728.0,8841.0,3.0,1,
22809,1860.5,18.5,161.7,165.9,1728.0,8841.0,3.0,1,
22909,1860.3,18.7,161.7,99.0,1728.0,8841.0,3.0,1,
23009,1861.9,18.1,161.7,43.6,1728.0,8841.0,3.0,1,
23109,1862.6,16.5,161.7,73.9,1728.0,8841.0,3.0,1,
23209,1861.3,15.7,161.7,155.2,1728.0,8841.0,3.0,1,
23309,1859.0,17.4,161.7,229.0,1728.0,8841.0,3.0,1,
23409,1860.1,18.2,161.7,239.4,1728.0,8841.0,3.0,1,
23609,1861.1,16.4,161.7,239.6,1728.0,8841.0,3.0,1,
23709,1873.1,130.0,164.3,94.0,1345.0,8294.0,12.0,1,
23809,1846.0,162.1,160.8,37.4,1721.0,10423.0,11.0,1,
23909,1845.1,230.9,162.1,36.9,1675.0,9094.0,2.0,0,
24009,1892.5,134.0,160.6,36.0,1733.0,9376.0,3.0,1,
24109,1849.9,101.8,158.5,35.8,1680.0,9304.0,3.0,1,
24209,1851.4,215.6,158.1,40.8,1630.0,9159.0,3.0,1,
24309,1851.8,114.0,157.4,214.6,1589.0,7972.0,3.0,1,
24409,1867.9,22.9,157.4,133.6,1589.0,7972.0,3.0,1,
24609,1858.7,16.8,157.5,69.2,1589.0,7972.0,3.0,1,
24709,1860.5,15.1,157.5,70.3,1589.0,7972.0,3.0,1,
24809,1860.2,16.3,157.5,137.2,1589.0,7972.0,3.0,1,
24909,1862.9,16.9,157.4,201.9,1589.0,7972.0,3.0,1,
25009,1861.3,16.6,157.4,239.1,1589.0,7972.0,3.0,1,
25109,1859.9,17.0,157.5,238.7,1589.0,7972.0,3.0,1,
25209,1860.4,16.5,157.5,239.3,1589.0,7972.0,3.0,1,
25309,1850.9,95.0,157.1,238.5,1589.0,7972.0,3.0,1,
25409,1880.5,209.3,157.7,37.7,1729.0,10600.0,11.0,1,
25609,1834.7,175.8,161.0,36.1,1670.0,9469.0,2.0,0,
25709,1854.8,114.0,160.1,35.8,1969.0,9809.0,3.0,1,
25809,1855.2,206.2,159.8,36.1,1775.0,10104.0,2.0,0,
25909,1892.6,139.0,154.4,118.1,1878.0,9516.0,3.0,1,
26009,1838.2,23.0,153.4,196.8,1600.0,8658.0,3.0,1,
26109,1860.7,29.7,153.5,166.4,1600.0,8658.0,3.0,1,
26209,1858.2,19.7,153.5,164.6,1600.0,8658.0,3.0,1,
26309,1859.5,18.1,153.6,114.6,1600.0,8658.0,3.0,1,
26409,1859.9,19.3,153.6,113.0,1600.0,8658.0,3.0,1,
26609,1856.5,20.2,153.7,114.7,1600.0,8658.0,3.0,1,
26709,1858.4,18.6,153.7,123.1,1600.0,8658.0,3.0,1,
26809,1859.4,19.4,153.7,141.8,1600.0,8658.0,3.0,1,
26909,1862.1,20.4,153.7,150.7,1600.0,8658.0,3.0,1,
27009,1859.9,146.0,152.7,69.6,1731.0,10642.0,13.0,1,
27109,1859.9,171.5,152.4,66.1,1601.0,9387.0,12.0,1,
27209,1844.0,226.5,154.5,66.2,1638.0,9583.0,12.0,1,
27309,1898.0,225.4,162.4,65.9,1753.0,8925.0,2.0,0,
27409,1855.1,201.7,169.0,36.0,1693.0,9098.0,3.0,1,
27609,1870.5,34.2,175.6,101.8,1620.0,8296.0,3.0,1,
27709,1861.2,22.2,175.6,130.8,1620.0,8296.0,3.0,1,
27809,1860.4,24.3,175.6,67.0,1620.0,8296.0,3.0,1,
27909,1861.7,14.7,175.6,47.5,1620.0,8296.0,3.0,1,
28009,1861.1,15.7,175.5,110.2,1620.0,8296.0,3.0,1,
28109,1859.7,16.3,175.5,118.0,1620.0,8296.0,3.0,1,
28209,1859.1,16.1,175.4,211.7,1620.0,8296.0,3.0,1,
28309,1860.3,16.7,175.4,239.0,1620.0,8296.0,3.0,1,
28409,1859.8,16.7,175.4,239.7,1620.0,8296.0,3.0,1,
28609,1828.0,209.8,176.9,76.6,1548.0,9792.0,12.0,1,
28709,1888.6,232.7,172.9,55.0,1757.0,9618.0,2.0,0,
28809,1871.7,218.3,173.4,49.7,2063.0,10987.0,3.0,1,
28909,1831.2,168.8,168.3,48.7,1744.0,10310.0,3.0,1,
29009,1860.6,234.1,162.5,67.2,2014.0,9189.0,2.0,0,
29109,1849.9,205.6,162.9,195.7,1792.0,10282.0,2.0,0,
29209,1882.6,40.3,159.8,219.7,1720.0,9402.0,3.0,1,
29309,1858.3,14.5,159.8,137.1,1720.0,9402.0,3.0,1,
29409,1861.8,13.0,159.7,130.3,1720.0,9402.0,3.0,1,
29609,1862.0,14.1,159.6,171.0,1720.0,9402.0,3.0,1,
29709,1860.7,13.5,159.6,201.1,1720.0,9402.0,3.0,1,
29809,1861.3,12.2,159.5,233.1,1720.0,9402.0,3.0,1,
29909,1861.2,11.9,159.5,234.1,1720.0,9402.0,3.0,1,
30009,1860.7,12.8,159.5,238.9,1720.0,9402.0,3.0,1,
30109,1862.1,15.4,159.5,239.6,1720.0,9402.0,3.0,1,
30209,1884.5,124.3,159.3,156.3,1456.0,9283.0,12.0,1,
30309,1817.7,174.0,159.7,54.3,1687.0,10795.0,3.0,1,
30409,1863.9,149.8,152.3,65.6,2020.0,9791.0,3.0,1,
30609,1901.2,198.8,159.7,80.4,1728.0,8833.0,2.0,0,
30709,1854.7,150.9,155.4,195.6,1617.0,9437.0,3.0,1,
30809,1850.0,75.7,157.5,225.9,1687.0,8370.0,2.0,0,
30909,1859.0,18.6,157.5,215.4,1687.0,8370.0,2.0,0,
31009,1861.4,11.8,157.5,158.3,1687.0,8370.0,2.0,0,
31109,1860.0,13.2,157.5,90.2,1687.0,8370.0,2.0,0,
31209,1860.1,12.4,157.5,82.5,1687.0,8370.0,2.0,0,
31309,1861.2,11.3,157.5,158.4,1687.0,8370.0,2.0,0,
31409,1860.0,12.5,157.5,205.0,1687.0,8370.0,2.0,0,
31609,1861.1,11.7,157.5,239.5,1687.0,8370.0,2.0,0,
31709,1862.3,13.5,157.5,239.9,1687.0,8370.0,2.0,0,
31809,1853.4,93.2,158.8,133.9,1384.0,9129.0,13.0,1,
31909,1835.2,225.9,159.7,45.1,1787.0,11338.0,11.0,1,
32009,1898.4,234.5,172.6,65.5,1594.0,10115.0,11.0,1,
32109,1864.9,160.9,176.5,66.1,1664.0,9905.0,11.0,1,
32209,1838.0,195.4,175.1,66.1,1645.0,9706.0,2.0,0,
32309,1856.3,129.9,170.9,37.2,2032.0,9796.0,3.0,1,
32409,1857.0,112.8,173.2,36.3,1634.0,8541.0,2.0,0,
32609,1859.9,14.0,173.2,123.2,1634.0,8541.0,2.0,0,
32709,1859.9,14.5,173.2,39.1,1634.0,8541.0,2.0,0,
32809,1858.7,15.5,173.2,46.7,1634.0,8541.0,2.0,0,
32909,1860.8,15.3,173.3,172.5,1634.0,8541.0,2.0,0,
33009,1861.4,13.9,173.3,202.6,1634.0,8541.0,2.0,0,
33109,1859.9,13.4,173.3,239.5,1634.0,8541.0,2.0,0,
33209,1859.8,14.9,173.3,240.4,1634.0,8541.0,2.0,0,
33309,1861.1,14.1,173.3,240.5,1634.0,8541.0,2.0,0,
33409,1861.2,132.8,173.2,240.0,1319.0,8501.0,14.0,1,
33609,1809.8,204.4,169.0,49.7,1760.0,10691.0,2.0,0,
33709,1863.3,138.5,162.2,55.1,1981.0,9985.0,3.0,1,
33809,1839.0,228.6,159.9,51.9,1664.0,9144.0,2.0,0,
33909,1896.2,137.5,161.0,66.8,1774.0,10092.0,3.0,1,
34009,1859.0,198.0,166.7,164.8,1725.0,9488.0,2.0,0,
34109,1837.2,24.1,166.2,166.3,1607.0,8349.0,3.0,1,
34209,1858.3,15.3,166.2,94.6,1607.0,8349.0,3.0,1,
34309,1861.3,13.7,166.2,38.7,1607.0,8349.0,3.0,1,
34409,1860.1,13.6,166.2,39.4,1607.0,8349.0,3.0,1,
34609,1859.0,13.7,166.2,237.6,1607.0,8349.0,3.0,1,
34710,1859.9,16.2,166.2,239.4,1607.0,8349.0,3.0,1,
34810,1860.5,13.4,166.2,239.9,1607.0,8349.0,3.0,1,
34910,1859.9,14.4,166.2,239.9,1607.0,8349.0,3.0,1,
35010,1859.1,15.2,166.2,239.6,1607.0,8349.0,3.0,1,
35110,1856.6,173.8,169.4,47.5,1700.0,11178.0,11.0,1,
35210,1838.2,234.6,168.4,40.1,1732.0,10669.0,11.0,1,
35310,1888.8,300.3,181.3,47.5,1643.0,10704.0,11.0,1,
35410,1875.2,165.1,187.4,66.4,1703.0,10560.0,11.0,1,
35610,1851.5,256.1,189.0,35.8,1925.0,10139.0,2.0,0,
35710,1864.2,30.8,189.5,36.1,1582.0,8790.0,3.0,1,
35810,1860.0,15.3,189.5,41.4,1582.0,8790.0,3.0,1,
35910,1859.3,11.9,189.5,53.4,1582.0,8790.0,3.0,1,
36010,1861.1,14.2,189.5,55.8,1582.0,8790.0,3.0,1,
36110,1861.6,14.4,189.5,157.0,1582.0,8790.0,3.0,1,
36210,1859.5,13.3,189.5,238.4,1582.0,8790.0,3.0,1,
36310,1860.7,11.2,189.5,239.5,1582.0,8790.0,3.0,1,
36410,1860.3,13.3,189.5,239.6,1582.0,8790.0,3.0,1,
36610,1859.2,16.2,189.5,239.0,1582.0,8790.0,3.0,1,
36710,1863.5,252.5,190.2,42.1,1643.0,10647.0,11.0,1,
36810,1892.2,173.4,189.1,38.0,1695.0,10267.0,11.0,1,
36910,1826.1,160.7,180.1,40.8,1683.0,10288.0,2.0,0,
37010,1853.0,208.2,170.9,41.1,2118.0,10344.0,2.0,0,
37110,1857.0,157.9,167.8,40.9,1709.0,10373.0,2.0,0,
37210,1881.8,250.9,170.5,93.9,1946.0,10176.0,2.0,0,
37310,1845.5,41.9,168.4,197.7,1623.0,9497.0,3.0,1,
37410,1859.1,15.4,168.4,159.1,1623.0,9497.0,3.0,1,
37610,1860.4,13.5,168.4,85.0,1623.0,9497.0,3.0,1,
37710,1860.0,13.5,168.4,156.4,1623.0,9497.0,3.0,1,
37810,1860.7,13.5,168.4,239.8,1623.0,9497.0,3.0,1,
37910,1860.0,15.9,168.4,239.9,1623.0,9497.0,3.0,1,
38010,1860.7,14.4,168.4,239.8,1623.0,9497.0,3.0,1,
38110,1859.6,13.7,168.4,239.3,1623.0,9497.0,3.0,1,
38210,1858.7,17.2,168.4,237.5,1623.0,9497.0,3.0,1,
38310,1878.6,221.5,168.9,117.1,1483.0,9583.0,13.0,1,
38410,1840.1,183.6,169.9,54.7,1777.0,11710.0,11.0,1,
38610,1876.3,229.0,185.9,65.7,1749.0,11083.0,11.0,1,
38710,1882.0,190.7,190.4,66.4,1656.0,10581.0,11.0,1,
38810,1830.9,177.1,183.5,40.2,1933.0,10927.0,3.0,1,
38910,1855.3,67.1,185.9,35.9,1660.0,9507.0,2.0,0,
39010,1859.7,15.3,185.9,42.7,1660.0,9507.0,2.0,0,
39110,1858.8,16.1,185.9,66.3,1660.0,9507.0,2.0,0,
39210,1860.5,15.8,185.9,43.8,1660.0,9507.0,2.0,0,
39310,1859.9,10.9,185.9,77.6,1660.0,9507.0,2.0,0,
39410,1860.4,11.6,185.9,238.0,1660.0,9507.0,2.0,0,
39610,1858.3,13.5,185.8,240.0,1660.0,9507.0,2.0,0,
39710,1860.2,13.9,185.8,239.9,1660.0,9507.0,2.0,0,
39810,1858.9,13.9,185.8,239.4,1660.0,9507.0,2.0,0,
39910,1848.0,144.4,185.6,152.1,1223.0,8073.0,14.0,1,
40010,1867.4,245.7,182.9,56.3,1842.0,12189.0,11.0,1,
40110,1897.0,246.2,186.3,50.0,1727.0,11788.0,11.0,1,
40210,1834.8,153.5,175.9,65.5,1911.0,10754.0,2.0,0,
40310,1841.1,234.5,169.3,43.1,1751.0,11012.0,2.0,0,
40410,1862.4,203.1,173.0,55.8,1658.0,10582.0,3.0,1,
40610,1863.3,20.1,169.6,195.2,1658.0,10582.0,3.0,1,
40710,1859.3,14.4,169.6,166.3,1658.0,10582.0,3.0,1,
40810,1858.8,12.9,169.6,151.4,1658.0,10582.0,3.0,1,
40910,1861.4,14.5,169.6,103.8,1658.0,10582.0,3.0,1,
41010,1860.0,13.7,169.6,177.9,1658.0,10582.0,3.0,1,
41110,1861.4,15.9,169.6,238.4,1658.0,10582.0,3.0,1,
41210,1861.3,14.1,169.6,237.6,1658.0,10582.0,3.0,1,
41310,1858.9,12.1,169.6,166.9,1658.0,10582.0,3.0,1,
41410,1861.3,12.1,169.6,164.5,1658.0,10582.0,3.0,1,
41610,1858.7,219.0,169.2,70.5,1853.0,10850.0,2.0,0,
41710,1830.9,240.7,160.5,68.6,1932.0,11394.0,2.0,0,
41810,1860.5,178.3,157.8,80.6,1695.0,10657.0,3.0,1,
41910,1860.8,226.0,161.3,163.9,1989.0,10920.0,2.0,0,
42010,1897.9,184.8,159.6,231.2,1645.0,10340.0,3.0,1,
42110,1825.3,182.4,162.9,226.9,1618.0,8963.0,2.0,0,
42210,1863.7,22.8,162.5,187.7,1618.0,8963.0,2.0,0,
42310,1861.3,15.9,162.5,99.6,1618.0,8963.0,2.0,0,
42410,1860.9,15.2,162.5,47.7,1618.0,8963.0,2.0,0,
42610,1859.6,13.9,162.5,231.5,1618.0,8963.0,2.0,0,
42710,1860.6,15.2,162.5,239.8,1618.0,8963.0,2.0,0,
42810,1859.7,13.4,162.5,239.4,1618.0,8963.0,2.0,0,
42910,1860.7,12.6,162.5,239.3,1618.0,8963.0,2.0,0,
43010,1861.0,15.4,162.5,239.6,1618.0,8963.0,2.0,0,
43110,1860.2,29.3,162.5,239.5,1618.0,8963.0,2.0,0,
43210,1851.7,248.6,171.8,68.0,1733.0,11485.0,12.0,1,
43310,1857.8,240.8,176.7,66.5,1779.0,11582.0,11.0,1,
43410,1910.5,217.9,185.6,66.4,1702.0,11079.0,12.0,1,
43610,1835.8,202.3,202.3,66.5,1765.0,11421.0,12.0,1,
43710,1865.3,256.1,201.8,66.2,1834.0,9938.0,2.0,0,
43810,1879.0,31.2,201.0,40.8,1629.0,9343.0,2.0,0,
43910,1857.8,15.4,201.0,38.9,1629.0,9343.0,2.0,0,
44010,1861.2,12.4,201.0,40.0,1629.0,9343.0,2.0,0,
44110,1861.0,12.6,201.0,52.7,1629.0,9343.0,2.0,0,
44210,1860.8,12.9,201.0,154.6,1629.0,9343.0,2.0,0,
44310,1859.9,13.2,201.0,239.7,1629.0,9343.0,2.0,0,
44410,1859.7,12.8,201.0,239.4,1629.0,9343.0,2.0,0,
44610,1857.4,13.2,200.9,239.7,1629.0,9343.0,2.0,0,
44710,1860.5,16.2,201.0,239.8,1629.0,9343.0,2.0,0,
44810,1875.3,173.6,196.3,74.8,1514.0,10037.0,14.0,1,
44910,1855.9,141.8,192.2,66.5,1479.0,9477.0,13.0,1,
45010,1829.7,218.8,179.2,66.6,1261.0,9167.0,13.0,1,
45110,1866.1,294.9,179.0,66.2,1470.0,8733.0,4.0,1,
45210,1855.5,225.3,177.2,35.8,1672.0,8782.0,4.0,1,
45310,1902.4,162.1,171.5,36.1,1249.0,9039.0,5.0,1,
45410,1833.4,39.4,171.0,101.7,1124.0,7363.0,4.0,1,
45610,1859.3,16.0,170.9,92.2,1124.0,7363.0,4.0,1,
45710,1858.1,14.2,170.9,69.2,1124.0,7363.0,4.0,1,
45810,1859.4,11.6,171.0,91.9,1124.0,7363.0,4.0,1,
45910,1861.6,12.6,171.0,240.6,1124.0,7363.0,4.0,1,
46010,1861.2,14.8,171.0,240.4,1124.0,7363.0,4.0,1,
46110,1859.7,14.0,171.0,239.9,1124.0,7363.0,4.0,1,
46210,1860.6,13.7,171.0,239.4,1124.0,7363.0,4.0,1,
46310,1861.1,13.2,171.0,239.5,1124.0,7363.0,4.0,1,
46410,1837.5,139.8,171.0,103.0,1239.0,7923.0,14.0,1,
46610,1855.3,248.2,173.8,43.9,1996.0,9157.0,2.0,0,
46710,1908.2,226.4,170.3,49.3,1644.0,9218.0,2.0,0,
46810,1838.0,189.9,163.9,68.7,1992.0,9769.0,3.0,1,
46910,1829.6,189.5,164.1,226.0,1627.0,10144.0,3.0,1,
47010,1889.8,59.7,162.5,230.3,1534.0,8811.0,3.0,1,
47110,1860.3,14.7,162.5,197.7,1534.0,8811.0,3.0,1,
47210,1861.3,15.0,162.4,134.9,1534.0,8811.0,3.0,1,
47310,1862.5,12.5,162.4,93.8,1534.0,8811.0,3.0,1,
47410,1859.9,14.6,162.3,114.5,1534.0,8811.0,3.0,1,
47610,1861.2,13.3,162.3,239.9,1534.0,8811.0,3.0,1,
47710,1862.0,13.8,162.3,240.1,1534.0,8811.0,3.0,1,
47810,1861.3,12.9,162.3,239.9,1534.0,8811.0,3.0,1,
47910,1858.6,16.4,162.3,239.8,1534.0,8811.0,3.0,1,
48010,1840.7,172.7,164.5,164.2,1299.0,8771.0,14.0,1,
48110,1896.4,233.1,167.2,55.0,1684.0,10871.0,13.0,1,
48210,1851.2,216.1,169.2,42.1,2080.0,9958.0,2.0,0,
48310,1819.4,211.5,170.4,37.9,1753.0,9659.0,2.0,0,
48410,1871.9,274.3,173.8,66.0,1884.0,10081.0,2.0,0,
48610,1873.1,105.3,182.1,230.8,1610.0,8754.0,2.0,0,
48710,1862.1,17.7,182.1,225.7,1610.0,8754.0,2.0,0,
48810,1860.6,11.6,182.1,157.0,1610.0,8754.0,2.0,0,
48910,1860.9,15.6,182.1,99.3,1610.0,8754.0,2.0,0,
49010,1862.5,14.2,182.1,92.2,1610.0,8754.0,2.0,0,
49110,1860.1,14.0,182.1,145.8,1610.0,8754.0,2.0,0,
49210,1859.7,15.7,182.1,113.6,1610.0,8754.0,2.0,0,
49310,1859.8,13.6,182.2,221.4,1610.0,8754.0,2.0,0,
49410,1858.8,11.9,182.2,239.4,1610.0,8754.0,2.0,0,
49610,1889.9,153.9,183.3,183.7,1354.0,8799.0,14.0,1,
49710,1807.7,169.4,183.4,39.5,1728.0,11300.0,13.0,1,
49810,1864.5,249.5,188.7,45.3,1607.0,10379.0,13.0,1,
49910,1848.5,215.7,186.6,66.3,1587.0,10456.0,12.0,1,
50010,1919.5,245.1,189.9,66.7,1665.0,10627.0,13.0,1,
50110,1830.8,155.1,187.0,66.7,1487.0,10077.0,13.0,1,
50210,1828.9,147.1,182.0,51.4,1562.0,9292.0,3.0,1,
50310,1872.2,17.0,181.8,41.4,1562.0,9292.0,3.0,1,
50410,1859.7,12.2,181.8,34.7,1562.0,9292.0,3.0,1,
50610,1860.7,11.7,181.7,48.8,1562.0,9292.0,3.0,1,
50710,1861.9,12.4,181.7,228.0,1562.0,9292.0,3.0,1,
50810,1859.9,12.0,181.7,239.6,1562.0,9292.0,3.0,1,
50910,1861.1,11.2,181.7,239.4,1562.0,9292.0,3.0,1,
51010,1858.5,12.9,181.7,239.3,1562.0,9292.0,3.0,1,
51110,1861.5,12.5,181.7,239.6,1562.0,9292.0,3.0,1,
51210,1860.2,83.0,181.7,239.6,1562.0,9292.0,3.0,1,
51310,1841.5,243.7,181.7,68.9,1577.0,10902.0,13.0,1,
51410,1903.1,232.0,182.6,66.2,1663.0,11436.0,13.0,1,
51610,1824.7,245.4,181.6,66.3,1654.0,9713.0,2.0,0,
51710,1864.8,224.6,181.4,68.0,1886.0,10023.0,3.0,1,
51810,1854.5,273.2,184.3,166.9,1826.0,9931.0,2.0,0,
51910,1869.8,27.2,185.5,199.5,1493.0,8716.0,3.0,1,
52010,1861.3,11.9,185.5,136.1,1493.0,8716.0,3.0,1,
52110,1861.2,9.5,185.5,42.9,1493.0,8716.0,3.0,1,
52210,1861.1,12.3,185.5,40.8,1493.0,8716.0,3.0,1,
52310,1859.8,11.1,185.5,117.9,1493.0,8716.0,3.0,1,
52410,1860.6,14.1,185.5,232.2,1493.0,8716.0,3.0,1,
52610,1860.7,15.0,185.7,155.0,1493.0,8716.0,3.0,1,
52710,1858.5,17.2,185.7,106.4,1493.0,8716.0,3.0,1,
52810,1859.5,16.1,185.8,92.0,1493.0,8716.0,3.0,1,
52910,1903.9,245.9,191.7,71.2,1614.0,10996.0,13.0,1,
53010,1803.3,200.4,193.8,66.2,1716.0,11048.0,13.0,1,
53110,1865.1,264.9,195.9,65.7,1623.0,9806.0,2.0,0,
53210,1849.3,266.8,197.8,65.9,1998.0,10418.0,2.0,0,
53310,1916.4,239.3,197.0,66.3,1541.0,10439.0,3.0,1,
53410,1837.2,252.8,198.3,68.9,2000.0,10149.0,2.0,0,
53610,1860.3,12.8,197.7,131.6,2000.0,10149.0,2.0,0,
53710,1860.2,11.3,197.7,66.6,2000.0,10149.0,2.0,0,
53810,1860.8,12.7,197.7,46.9,2000.0,10149.0,2.0,0,
53910,1861.9,12.5,197.7,106.4,2000.0,10149.0,2.0,0,
54010,1858.1,11.7,197.7,240.1,2000.0,10149.0,2.0,0,
54110,1862.1,10.4,197.7,239.5,2000.0,10149.0,2.0,0,
54210,1860.4,10.0,197.5,238.5,2000.0,10149.0,2.0,0,
54310,1860.1,14.2,197.5,237.7,2000.0,10149.0,2.0,0,
54410,1861.4,13.5,197.5,212.7,2000.0,10149.0,2.0,0,
54610,1849.1,246.5,197.9,55.2,1619.0,10873.0,12.0,1,
54710,1909.3,236.9,196.4,38.1,1639.0,10429.0,2.0,0,
54810,1848.0,206.2,193.6,39.2,2077.0,10542.0,3.0,1,
54910,1824.4,257.3,197.0,66.4,1503.0,9627.0,3.0,1,
55010,1860.6,289.8,195.4,94.0,1822.0,10355.0,3.0,1,
55110,1875.1,59.6,197.6,187.9,1413.0,8900.0,2.0,0,
55210,1860.8,14.9,197.6,135.3,1413.0,8900.0,2.0,0,
55310,1862.1,12.8,197.6,69.1,1413.0,8900.0,2.0,0,
55410,1860.8,12.9,197.6,43.1,1413.0,8900.0,2.0,0,
55610,1862.2,10.8,197.6,239.0,1413.0,8900.0,2.0,0,
55710,1860.3,10.7,197.6,238.1,1413.0,8900.0,2.0,0,
55810,1859.2,11.0,197.6,239.4,1413.0,8900.0,2.0,0,
55910,1859.7,12.0,197.6,240.1,1413.0,8900.0,2.0,0,
56010,1861.0,11.8,197.6,240.4,1413.0,8900.0,2.0,0,
56110,1869.7,238.9,196.2,138.2,1386.0,9292.0,13.0,1,
56210,1889.4,199.3,195.6,67.1,1666.0,11345.0,13.0,1,
56310,1806.9,246.0,197.4,65.5,1596.0,11039.0,13.0,1,
56410,1868.6,246.5,202.0,65.9,1813.0,10649.0,3.0,1,
56610,1913.4,279.1,206.2,75.8,1546.0,10310.0,3.0,1,
56710,1824.6,97.6,206.1,133.5,1384.0,8755.0,3.0,1,
56810,1859.6,15.0,206.1,151.8,1384.0,8755.0,3.0,1,
56910,1860.3,12.4,206.1,68.9,1384.0,8755.0,3.0,1,
57010,1861.5,14.0,206.1,43.1,1384.0,8755.0,3.0,1,
57110,1861.5,12.6,206.1,67.8,1384.0,8755.0,3.0,1,
57210,1859.3,12.9,206.1,240.6,1384.0,8755.0,3.0,1,
57310,1861.8,14.1,206.2,240.3,1384.0,8755.0,3.0,1,
57410,1860.2,14.1,206.2,240.0,1384.0,8755.0,3.0,1,
57610,1860.2,13.6,206.2,240.4,1384.0,8755.0,3.0,1,
57710,1858.2,170.6,207.8,205.2,1416.0,9144.0,14.0,1,
57810,1846.8,221.7,201.6,70.8,1677.0,10814.0,2.0,0,
57910,1849.4,274.3,197.6,72.7,2061.0,10822.0,2.0,0,
58010,1910.2,242.9,196.3,91.5,1586.0,10388.0,2.0,0,
58110,1849.7,208.4,190.2,176.0,2090.0,11011.0,4.0,1,
58210,1822.9,286.4,190.5,225.8,1386.0,9641.0,3.0,1,
58310,1870.1,142.9,186.4,236.8,1419.0,9351.0,4.0,1,
58410,1869.2,19.8,186.4,159.0,1419.0,9351.0,4.0,1,
58610,1859.9,11.1,186.4,65.8,1419.0,9351.0,4.0,1,
58710,1860.1,13.0,186.4,66.7,1419.0,9351.0,4.0,1,
58810,1859.6,13.6,186.4,217.8,1419.0,9351.0,4.0,1,
58910,1862.0,14.1,186.3,239.7,1419.0,9351.0,4.0,1,
59010,1858.6,12.8,186.4,240.0,1419.0,9351.0,4.0,1,
59110,1860.2,11.3,186.4,240.0,1419.0,9351.0,4.0,1,
59210,1861.3,13.4,186.4,239.7,1419.0,9351.0,4.0,1,
59310,1851.2,156.2,186.4,216.2,1419.0,9351.0,4.0,1,
59410,1883.0,305.1,189.3,66.0,1803.0,12379.0,12.0,1,
59610,1808.3,264.1,211.9,52.8,1747.0,11742.0,13.0,1,
59710,1864.5,256.5,214.5,65.9,1949.0,11228.0,2.0,0,
59810,1850.6,274.3,210.7,66.3,1631.0,11124.0,3.0,1,
59910,1914.7,215.4,209.4,67.2,1639.0,10396.0,2.0,0,
60010,1833.1,26.2,209.1,140.2,1609.0,10224.0,3.0,1,
60110,1857.9,13.4,209.1,138.3,1609.0,10224.0,3.0,1,
60210,1858.0,14.2,209.1,86.0,1609.0,10224.0,3.0,1,
60310,1859.3,20.9,209.2,70.3,1609.0,10224.0,3.0,1,
60410,1860.0,16.2,209.2,130.6,1609.0,10224.0,3.0,1,
60610,1861.3,15.1,209.2,131.5,1609.0,10224.0,3.0,1,
60710,1861.3,14.9,209.2,194.6,1609.0,10224.0,3.0,1,
60810,1859.5,13.2,209.2,207.5,1609.0,10224.0,3.0,1,
60910,1859.5,20.0,209.2,167.8,1609.0,10224.0,3.0,1,
61010,1836.4,298.0,211.3,67.7,1549.0,10867.0,13.0,1,
61110,1859.6,273.6,210.6,50.2,1818.0,11969.0,12.0,1,
61210,1849.7,297.7,210.6,44.9,1758.0,11729.0,13.0,1,
61310,1914.1,314.4,219.3,65.8,1666.0,11403.0,12.0,1,
61410,1851.1,206.0,223.7,66.7,1666.0,11246.0,13.0,1,
61610,1872.3,32.7,225.2,66.3,1593.0,9714.0,3.0,1,
61710,1858.7,13.0,225.2,68.2,1593.0,9714.0,3.0,1,
61810,1861.2,11.8,225.2,70.7,1593.0,9714.0,3.0,1,
61910,1860.2,11.9,225.2,71.6,1593.0,9714.0,3.0,1,
62010,1859.5,10.7,225.1,133.5,1593.0,9714.0,3.0,1,
62110,1861.1,14.1,225.1,239.4,1593.0,9714.0,3.0,1,
62210,1860.5,13.6,225.1,239.2,1593.0,9714.0,3.0,1,
62310,1859.0,12.6,225.1,239.6,1593.0,9714.0,3.0,1,
62410,1859.3,13.9,225.1,239.8,1593.0,9714.0,3.0,1,
62610,1829.3,277.3,225.4,70.5,1528.0,10508.0,13.0,1,
62710,1910.2,269.1,218.6,66.2,1820.0,11310.0,2.0,0,
62810,1857.5,220.7,213.2,66.7,1779.0,11312.0,3.0,1,
62910,1823.4,268.6,200.4,68.1,1702.0,10817.0,2.0,0,
63010,1844.9,242.9,193.2,103.0,2019.0,11217.0,3.0,1,
63110,1861.8,284.0,186.6,228.0,1627.0,10841.0,2.0,0,
63210,1884.0,55.2,189.3,227.3,1617.0,9947.0,3.0,1,
63310,1859.5,15.7,189.3,190.4,1617.0,9947.0,3.0,1,
63410,1861.6,11.6,189.3,93.9,1617.0,9947.0,3.0,1,
63610,1860.8,13.6,189.3,89.7,1617.0,9947.0,3.0,1,
63710,1858.9,13.0,189.3,239.6,1617.0,9947.0,3.0,1,
63810,1860.6,12.7,189.3,239.3,1617.0,9947.0,3.0,1,
63910,1860.1,13.2,189.3,237.6,1617.0,9947.0,3.0,1,
64010,1860.1,10.9,189.3,238.1,1617.0,9947.0,3.0,1,
64110,1859.0,14.1,189.2,237.8,1617.0,9947.0,3.0,1,
64210,1886.8,188.7,190.1,85.3,1612.0,10767.0,13.0,1,
64310,1814.2,218.6,194.0,67.3,1825.0,12225.0,3.0,1,
64410,1850.7,270.8,194.7,67.3,1886.0,10944.0,2.0,0,
64610,1908.7,275.3,190.6,76.3,1808.0,10477.0,2.0,0,
64710,1851.3,210.9,193.8,136.9,1610.0,10725.0,3.0,1,
64810,1840.1,84.6,191.2,197.2,1534.0,9675.0,2.0,0,
64910,1861.0,17.4,191.2,130.3,1534.0,9675.0,2.0,0,
65010,1860.0,12.6,191.2,89.4,1534.0,9675.0,2.0,0,
65110,1862.2,10.4,191.1,78.9,1534.0,9675.0,2.0,0,
65210,1859.2,11.1,191.1,76.6,1534.0,9675.0,2.0,0,
65310,1859.6,12.0,191.1,239.6,1534.0,9675.0,2.0,0,
65410,1859.7,13.0,191.1,239.6,1534.0,9675.0,2.0,0,
65610,1860.4,11.8,191.1,239.9,1534.0,9675.0,2.0,0,
65710,1860.3,13.7,191.1,239.7,1534.0,9675.0,2.0,0,
65810,1837.1,207.6,190.8,135.5,1425.0,9830.0,14.0,1,
65910,1841.5,255.8,190.2,66.6,1774.0,12322.0,13.0,1,
66010,1916.7,228.4,188.9,67.0,1728.0,11523.0,3.0,1,
66110,1859.4,235.2,189.3,68.5,1723.0,11289.0,3.0,1,
66210,1835.5,244.7,191.8,92.8,1762.0,10702.0,2.0,0,
66310,1834.6,266.6,192.8,164.2,2022.0,11586.0,3.0,1,
66410,1876.6,147.0,192.9,226.9,1602.0,9825.0,2.0,0,
66610,1861.2,12.0,192.8,86.9,1602.0,9825.0,2.0,0,
66710,1862.2,13.6,192.8,66.3,1602.0,9825.0,2.0,0,
66810,1861.6,11.5,192.8,66.5,1602.0,9825.0,2.0,0,
66910,1861.2,12.2,192.8,239.4,1602.0,9825.0,2.0,0,
67010,1860.9,11.9,192.8,239.8,1602.0,9825.0,2.0,0,
67110,1859.1,12.2,192.8,239.9,1602.0,9825.0,2.0,0,
67210,1860.0,12.2,192.8,239.3,1602.0,9825.0,2.0,0,
67310,1859.8,13.5,192.8,158.2,1602.0,9825.0,2.0,0,
67410,1863.6,199.9,193.1,156.1,1458.0,9605.0,14.0,1,
67610,1817.1,235.3,198.4,66.2,1759.0,11878.0,3.0,1,
67710,1834.5,285.7,202.2,67.1,2188.0,11517.0,2.0,0,
67810,1865.4,277.0,202.8,75.7,1682.0,11705.0,3.0,1,
67910,1905.4,293.9,200.3,94.6,2092.0,11797.0,3.0,1,
68010,1858.0,225.0,204.5,189.8,1592.0,10298.0,3.0,1,
68110,1831.6,25.0,203.6,200.4,1592.0,10298.0,3.0,1,
68210,1858.4,11.1,203.6,67.1,1592.0,10298.0,3.0,1,
68310,1857.5,12.0,203.7,38.6,1592.0,10298.0,3.0,1,
68410,1860.7,13.5,203.7,40.8,1592.0,10298.0,3.0,1,
68610,1859.4,14.3,203.7,240.5,1592.0,10298.0,3.0,1,
68710,1860.8,12.0,203.7,239.8,1592.0,10298.0,3.0,1,
68810,1858.5,11.8,203.7,240.2,1592.0,10298.0,3.0,1,
68910,1859.1,13.2,203.7,239.9,1592.0,10298.0,3.0,1,
69010,1858.2,15.6,203.7,234.7,1592.0,10298.0,3.0,1,
69110,1842.8,225.3,204.8,53.7,1690.0,11930.0,13.0,1,
69210,1848.4,259.4,208.2,51.1,1898.0,12763.0,13.0,1,
69310,1909.3,302.9,208.7,66.0,1871.0,11249.0,2.0,0,
69410,1869.5,236.0,209.7,67.3,1740.0,11568.0,3.0,1,
69610,1834.0,297.2,208.2,132.2,2058.0,11452.0,3.0,1,
69710,1881.0,35.5,209.2,226.8,1590.0,10130.0,3.0,1,
69810,1858.9,14.9,209.2,153.5,1590.0,10130.0,3.0,1,
69910,1861.2,14.8,209.2,66.1,1590.0,10130.0,3.0,1,
70010,1859.9,12.9,209.2,41.9,1590.0,10130.0,3.0,1,
70110,1859.8,14.0,209.2,106.4,1590.0,10130.0,3.0,1,
70210,1860.5,15.4,209.2,239.6,1590.0,10130.0,3.0,1,
70310,1860.8,10.9,209.2,239.5,1590.0,10130.0,3.0,1,
70410,1859.6,14.0,209.2,239.7,1590.0,10130.0,3.0,1,
70610,1861.2,14.2,209.2,221.4,1590.0,10130.0,3.0,1,
70710,1874.5,313.9,210.3,68.2,1763.0,12172.0,13.0,1,
70810,1885.0,234.0,211.8,66.4,1849.0,12448.0,13.0,1,
70910,1819.2,283.4,217.5,66.3,1769.0,11428.0,2.0,0,
71010,1833.1,249.8,216.0,66.6,2083.0,11854.0,3.0,1,
71110,1862.5,301.3,215.9,67.6,1703.0,11040.0,2.0,0,
71210,1901.6,273.3,214.5,93.1,2040.0,11230.0,3.0,1,
71310,1837.5,43.2,212.1,225.6,1572.0,10040.0,3.0,1,
71410,1859.6,15.1,212.0,188.5,1572.0,10040.0,3.0,1,
71610,1860.9,12.1,212.0,66.5,1572.0,10040.0,3.0,1,
71710,1860.1,11.8,212.0,89.7,1572.0,10040.0,3.0,1,
71810,1859.5,11.2,212.0,240.0,1572.0,10040.0,3.0,1,
71910,1860.1,12.3,212.0,239.9,1572.0,10040.0,3.0,1,
72010,1859.4,13.6,212.0,239.0,1572.0,10040.0,3.0,1,
72110,1860.1,12.9,212.0,238.2,1572.0,10040.0,3.0,1,
72210,1861.2,12.6,212.0,239.4,1572.0,10040.0,3.0,1,
72310,1868.4,174.0,211.4,71.7,1495.0,9961.0,13.0,1,
72410,1831.9,221.1,207.8,51.8,1712.0,11932.0,13.0,1,
72610,1897.6,270.9,212.9,66.3,1615.0,11049.0,13.0,1,
72710,1866.2,236.4,214.5,66.3,1557.0,10908.0,13.0,1,
72810,1836.8,234.5,214.4,66.0,1777.0,10757.0,3.0,1,
72910,1856.9,71.8,212.9,68.5,1581.0,9912.0,3.0,1,
73010,1860.3,16.5,212.9,77.8,1581.0,9912.0,3.0,1,
73110,1861.3,12.2,212.9,68.1,1581.0,9912.0,3.0,1,
73210,1859.8,13.1,212.9,43.6,1581.0,9912.0,3.0,1,
73310,1860.2,11.7,212.9,51.6,1581.0,9912.0,3.0,1,
73410,1859.7,12.1,212.9,239.5,1581.0,9912.0,3.0,1,
73610,1862.5,13.9,212.9,239.9,1581.0,9912.0,3.0,1,
73710,1860.6,15.0,212.9,240.2,1581.0,9912.0,3.0,1,
73810,1858.8,12.9,212.9,240.2,1581.0,9912.0,3.0,1,
73910,1838.0,280.6,213.5,94.0,1494.0,9814.0,15.0,1,
74010,1886.1,318.5,217.5,66.6,1816.0,12443.0,13.0,1,
74110,1886.7,256.5,218.1,66.0,1747.0,12089.0,13.0,1,
74210,1831.6,249.5,211.8,66.0,1838.0,10968.0,2.0,0,
74310,1826.5,286.0,213.1,66.9,1998.0,11176.0,3.0,1,
74410,1871.1,286.7,210.9,86.7,1599.0,11014.0,4.0,1,
74610,1865.0,20.1,214.0,137.5,1599.0,11014.0,4.0,1,
74710,1860.5,12.5,214.0,69.7,1599.0,11014.0,4.0,1,
74810,1860.5,11.3,214.0,40.8,1599.0,11014.0,4.0,1,
74910,1861.7,14.1,214.0,45.6,1599.0,11014.0,4.0,1,
75010,1859.7,12.1,214.0,240.2,1599.0,11014.0,4.0,1,
75110,1859.5,11.2,214.0,240.6,1599.0,11014.0,4.0,1,
75210,1860.1,12.8,214.0,240.2,1599.0,11014.0,4.0,1,
75310,1859.6,14.5,214.0,239.8,1599.0,11014.0,4.0,1,
75410,1860.5,15.4,214.0,239.4,1599.0,11014.0,4.0,1,
75610,1838.9,260.0,216.7,66.6,1829.0,12171.0,14.0,1,
75710,1821.5,255.1,214.6,66.0,1795.0,12144.0,13.0,1,
75810,1870.0,291.3,216.4,66.1,1744.0,11598.0,2.0,0,
75910,1888.8,287.2,215.9,66.6,2070.0,11519.0,3.0,1,
76010,1875.6,269.3,220.1,68.9,1592.0,10579.0,3.0,1,
76110,1833.9,201.5,219.2,92.8,1562.0,9551.0,3.0,1,
76210,1860.2,22.4,218.7,145.9,1562.0,9551.0,3.0,1,
76310,1861.3,12.9,218.7,93.5,1562.0,9551.0,3.0,1,
76410,1861.8,12.2,218.7,67.0,1562.0,9551.0,3.0,1,
76610,1860.5,13.0,218.7,236.9,1562.0,9551.0,3.0,1,
76710,1858.9,17.5,218.7,240.3,1562.0,9551.0,3.0,1,
76810,1858.5,14.5,218.8,240.4,1562.0,9551.0,3.0,1,
76910,1860.0,10.5,218.8,239.8,1562.0,9551.0,3.0,1,
77010,1860.4,16.1,218.8,239.5,1562.0,9551.0,3.0,1,
77110,1860.0,66.4,218.8,239.9,1562.0,9551.0,3.0,1,
77210,1836.2,273.5,215.2,69.4,1782.0,11842.0,3.0,1,
77310,1884.3,291.9,206.7,70.4,1840.0,10991.0,3.0,1,
77410,1890.1,215.1,196.8,90.0,1797.0,12180.0,3.0,1,
77610,1823.6,268.9,191.1,201.9,1671.0,11224.0,3.0,1,
77710,1870.7,291.4,190.1,230.3,1711.0,10714.0,4.0,1,
77810,1881.0,29.8,190.4,225.8,1598.0,9702.0,3.0,1,
77910,1858.0,11.8,190.4,94.7,1598.0,9702.0,3.0,1,
78010,1859.4,10.9,190.4,66.5,1598.0,9702.0,3.0,1,
78110,1860.7,13.3,190.4,53.6,1598.0,9702.0,3.0,1,
78210,1859.7,10.6,190.4,105.9,1598.0,9702.0,3.0,1,
78310,1860.1,12.4,190.4,239.7,1598.0,9702.0,3.0,1,
78410,1861.6,13.6,190.3,239.9,1598.0,9702.0,3.0,1,
78610,1859.6,12.0,190.4,240.2,1598.0,9702.0,3.0,1,
78710,1861.6,12.3,190.3,239.6,1598.0,9702.0,3.0,1,
78810,1886.8,279.8,189.2,70.3,1706.0,11906.0,14.0,1,
78910,1838.9,256.5,206.0,66.2,1776.0,11846.0,13.0,1,
79010,1825.0,247.8,209.9,65.8,1695.0,11810.0,13.0,1,
79110,1871.9,345.6,215.1,65.6,1722.0,11462.0,14.0,1,
79210,1880.4,303.6,218.4,66.3,1659.0,11289.0,14.0,1,
79310,1893.4,302.8,220.9,66.7,1619.0,10640.0,14.0,1,
79410,1827.2,47.9,221.3,65.9,1626.0,10792.0,13.0,1,
79610,1860.7,11.4,221.3,42.9,1626.0,10792.0,13.0,1,
79710,1860.3,12.1,221.3,37.8,1626.0,10792.0,13.0,1,
79810,1859.8,11.4,221.3,44.2,1626.0,10792.0,13.0,1,
79910,1859.7,10.9,221.3,240.0,1626.0,10792.0,13.0,1,
80010,1861.5,13.4,221.3,240.0,1626.0,10792.0,13.0,1,
80110,1860.7,11.7,221.3,239.6,1626.0,10792.0,13.0,1,
80210,1861.6,11.6,221.3,239.6,1626.0,10792.0,13.0,1,
80310,1860.5,13.9,221.3,239.8,1626.0,10792.0,13.0,1,
80410,1838.1,246.8,223.4,74.4,1651.0,10687.0,14.0,1,
80610,1870.9,275.7,216.8,69.2,2100.0,12181.0,3.0,1,
80710,1904.3,203.8,210.4,85.9,1689.0,11765.0,3.0,1,
80810,1823.5,263.9,205.9,124.4,2217.0,11469.0,3.0,1,
80910,1835.7,297.9,205.1,226.9,1545.0,10211.0,3.0,1,
81010,1885.9,66.5,200.2,219.8,1562.0,9643.0,3.0,1,
81110,1859.3,15.7,200.3,132.5,1562.0,9643.0,3.0,1,
81210,1859.0,13.2,200.3,74.9,1562.0,9643.0,3.0,1,
81310,1858.9,12.6,200.3,65.7,1562.0,9643.0,3.0,1,
81410,1861.3,11.9,200.3,69.0,1562.0,9643.0,3.0,1,
81610,1860.0,13.4,200.3,239.7,1562.0,9643.0,3.0,1,
81710,1859.6,11.4,200.3,239.7,1562.0,9643.0,3.0,1,
81810,1861.8,13.3,200.3,239.9,1562.0,9643.0,3.0,1,
81910,1860.2,13.1,200.3,239.7,1562.0,9643.0,3.0,1,
82010,1837.2,312.6,202.6,82.4,1676.0,11775.0,14.0,1,
82110,1912.1,365.8,211.1,67.2,1779.0,12622.0,13.0,1,
82210,1825.5,207.0,219.5,66.5,1676.0,12103.0,13.0,1,
82310,1833.6,286.5,223.8,66.1,1625.0,11607.0,13.0,1,
82410,1858.4,285.2,225.7,66.2,1642.0,11220.0,13.0,1,
82610,1862.8,118.6,218.4,65.6,1506.0,10061.0,14.0,1,
82710,1862.6,16.8,218.4,67.3,1506.0,10061.0,14.0,1,
82810,1859.7,12.8,218.4,66.3,1506.0,10061.0,14.0,1,
82910,1860.7,12.1,218.4,55.3,1506.0,10061.0,14.0,1,
83010,1859.4,13.7,218.4,54.0,1506.0,10061.0,14.0,1,
83110,1860.5,11.8,218.4,239.9,1506.0,10061.0,14.0,1,
83210,1861.2,12.8,218.4,239.8,1506.0,10061.0,14.0,1,
83310,1861.0,10.7,218.5,239.5,1506.0,10061.0,14.0,1,
83410,1858.9,13.2,218.4,239.4,1506.0,10061.0,14.0,1,
83610,1880.2,204.5,219.4,152.2,1507.0,10761.0,14.0,1,
83710,1804.6,282.7,216.9,67.5,1809.0,12649.0,13.0,1,
83810,1860.2,313.4,211.6,66.9,1700.0,11459.0,14.0,1,
83910,1863.2,296.8,212.6,66.7,1625.0,11161.0,14.0,1,
84010,1909.6,302.6,215.3,66.8,1550.0,10797.0,14.0,1,
84110,1814.3,284.3,217.1,67.2,1616.0,11313.0,13.0,1,
84210,1842.8,229.9,221.2,66.1,1514.0,10130.0,13.0,1,
84310,1873.8,24.5,221.2,65.8,1514.0,10130.0,13.0,1,
84410,1861.4,12.4,221.2,40.5,1514.0,10130.0,13.0,1,
84610,1860.2,11.0,221.2,34.9,1514.0,10130.0,13.0,1,
84710,1859.7,13.3,221.2,132.8,1514.0,10130.0,13.0,1,
84810,1861.0,14.3,221.2,240.2,1514.0,10130.0,13.0,1,
84910,1861.5,13.1,221.2,240.0,1514.0,10130.0,13.0,1,
85010,1859.6,15.3,221.2,239.7,1514.0,10130.0,13.0,1,
85110,1860.1,15.0,221.2,240.1,1514.0,10130.0,13.0,1,
85210,1852.4,197.3,221.8,239.6,1514.0,10130.0,13.0,1,
85310,1840.1,336.7,222.4,66.1,1775.0,12580.0,14.0,1,
85410,1920.3,322.2,226.5,66.5,1659.0,11927.0,14.0,1,
85610,1845.2,264.7,223.5,66.3,1570.0,10842.0,13.0,1,
85710,1848.5,304.6,221.6,66.3,1506.0,10385.0,13.0,1,
85810,1880.9,279.8,215.9,66.9,1485.0,10047.0,13.0,1,
85910,1857.3,26.0,214.0,51.1,1485.0,10047.0,13.0,1,
86010,1860.7,14.9,214.0,66.5,1485.0,10047.0,13.0,1,
86110,1860.8,14.0,214.0,65.8,1485.0,10047.0,13.0,1,
86210,1860.1,12.0,214.0,49.1,1485.0,10047.0,13.0,1,
86310,1861.6,13.2,214.0,137.5,1485.0,10047.0,13.0,1,
86410,1860.5,12.7,214.0,240.1,1485.0,10047.0,13.0,1,
86610,1859.0,14.2,214.0,239.7,1485.0,10047.0,13.0,1,
86710,1860.3,13.6,214.0,239.2,1485.0,10047.0,13.0,1,
86810,1859.9,13.4,214.0,239.4,1485.0,10047.0,13.0,1,
86910,1878.3,258.0,214.0,66.7,1659.0,11988.0,14.0,1,
87010,1814.9,285.8,209.9,66.2,1707.0,11970.0,14.0,1,
87110,1862.8,281.8,209.3,66.5,1642.0,11339.0,13.0,1,
87210,1866.1,304.3,207.5,66.8,1557.0,10578.0,14.0,1,
87310,1912.1,256.8,207.9,66.9,1459.0,10263.0,13.0,1,
87410,1820.2,288.5,207.5,66.7,1434.0,9805.0,14.0,1,
87610,1861.8,15.5,207.3,66.3,1434.0,9805.0,14.0,1,
87710,1861.5,11.2,207.3,66.3,1434.0,9805.0,14.0,1,
87810,1858.6,12.0,207.3,56.3,1434.0,9805.0,14.0,1,
87910,1858.9,11.8,207.2,75.4,1434.0,9805.0,14.0,1,
88010,1861.5,12.8,207.2,231.5,1434.0,9805.0,14.0,1,
88110,1859.7,12.8,207.2,239.1,1434.0,9805.0,14.0,1,
88210,1859.7,13.8,207.2,239.9,1434.0,9805.0,14.0,1,
88310,1860.6,14.5,207.2,239.6,1434.0,9805.0,14.0,1,
88410,1861.2,12.8,207.3,239.3,1434.0,9805.0,14.0,1,
88610,1857.4,324.3,205.4,54.5,1784.0,12526.0,13.0,1,
88710,1921.7,314.0,210.2,65.7,1584.0,11577.0,13.0,1,
88810,1821.3,241.9,211.3,66.6,1601.0,11275.0,13.0,1,
88910,1842.7,302.9,210.8,66.1,1526.0,10954.0,13.0,1,
89010,1840.5,319.0,212.8,38.3,1475.0,10193.0,14.0,1,
89110,1880.1,68.3,213.2,52.5,1506.0,10149.0,14.0,1,
89210,1860.9,15.9,213.2,65.4,1506.0,10149.0,14.0,1,
89310,1860.5,13.8,213.1,66.1,1506.0,10149.0,14.0,1,
89410,1860.3,12.7,213.2,57.2,1506.0,10149.0,14.0,1,
89610,1859.3,12.8,213.1,239.3,1506.0,10149.0,14.0,1,
89710,1859.3,12.3,213.1,237.4,1506.0,10149.0,14.0,1,
89810,1860.7,14.3,213.1,239.4,1506.0,10149.0,14.0,1,
89910,1860.1,13.3,213.1,239.4,1506.0,10149.0,14.0,1,
90010,1859.7,10.9,213.1,239.3,1506.0,10149.0,14.0,1,
90110,1897.6,329.5,215.4,75.8,1613.0,10891.0,14.0,1,
90210,1850.1,280.1,221.1,42.0,1731.0,12180.0,13.0,1,
90310,1814.2,244.8,218.3,39.0,1673.0,11741.0,4.0,1,
90410,1855.2,309.8,216.9,65.5,2115.0,11419.0,4.0,1,
90610,1911.2,306.7,224.4,93.7,1824.0,10154.0,3.0,1,
90710,1817.9,111.7,226.6,155.4,1557.0,10254.0,4.0,1,
90810,1860.6,18.1,226.6,132.5,1557.0,10254.0,4.0,1,
90910,1859.6,12.5,226.6,42.4,1557.0,10254.0,4.0,1,
91010,1860.1,12.8,226.6,38.0,1557.0,10254.0,4.0,1,
91110,1860.6,12.0,226.6,40.3,1557.0,10254.0,4.0,1,
91210,1860.6,12.6,226.6,238.7,1557.0,10254.0,4.0,1,
91310,1857.9,9.8,226.6,239.4,1557.0,10254.0,4.0,1,
91410,1857.3,15.0,226.6,239.3,1557.0,10254.0,4.0,1,
91610,1860.9,13.2,226.6,239.4,1557.0,10254.0,4.0,1,
91710,1849.2,238.3,227.4,84.6,1483.0,10141.0,15.0,1,
91810,1853.9,359.7,227.3,66.4,1688.0,12166.0,14.0,1,
91910,1856.3,314.3,226.4,50.9,1658.0,11640.0,14.0,1,
92010,1918.6,299.2,232.8,38.2,1558.0,10369.0,15.0,1,
92110,1832.4,291.1,227.9,65.9,1496.0,10300.0,14.0,1,
92210,1833.0,319.8,227.8,67.2,1508.0,10337.0,14.0,1,
92310,1858.9,178.3,220.8,66.6,1408.0,9645.0,14.0,1,
92410,1873.0,19.2,220.7,67.2,1408.0,9645.0,14.0,1,
92610,1860.9,12.4,220.8,49.6,1408.0,9645.0,14.0,1,
92710,1858.9,12.8,220.7,49.8,1408.0,9645.0,14.0,1,
92810,1860.4,9.9,220.7,239.6,1408.0,9645.0,14.0,1,
92910,1860.1,12.5,220.8,240.2,1408.0,9645.0,14.0,1,
93010,1857.6,12.9,220.8,240.1,1408.0,9645.0,14.0,1,
93110,1861.4,12.4,220.8,239.9,1408.0,9645.0,14.0,1,
93210,1860.0,13.3,220.9,239.8,1408.0,9645.0,14.0,1,
93310,1844.5,201.2,220.8,239.7,1590.0,11323.0,14.0,1,
93410,1904.3,348.3,221.5,67.7,1724.0,12118.0,13.0,1,
93610,1821.5,255.9,213.5,65.9,1547.0,11248.0,14.0,1,
93710,1858.8,307.8,213.1,65.9,1459.0,10788.0,13.0,1,
93810,1865.5,303.2,208.9,77.9,1445.0,10425.0,14.0,1,
93910,1914.8,243.6,207.1,65.5,1380.0,9963.0,14.0,1,
94010,1827.5,26.0,205.8,66.1,1380.0,9963.0,14.0,1,
94110,1859.8,12.8,205.8,66.5,1380.0,9963.0,14.0,1,
94210,1860.1,12.1,205.8,42.3,1380.0,9963.0,14.0,1,
94310,1860.9,14.6,205.8,37.3,1380.0,9963.0,14.0,1,
94410,1857.8,11.8,205.8,144.5,1380.0,9963.0,14.0,1,
94610,1858.2,12.0,205.7,240.1,1380.0,9963.0,14.0,1,
94710,1858.6,12.3,205.7,240.3,1380.0,9963.0,14.0,1,
94810,1860.1,12.6,205.7,239.9,1380.0,9963.0,14.0,1,
94910,1859.9,16.3,205.7,239.7,1380.0,9963.0,14.0,1,
95010,1831.8,288.3,204.6,67.8,1765.0,11956.0,14.0,1,
95110,1866.1,343.5,204.2,66.6,1716.0,10996.0,14.0,1,
95210,1858.3,284.5,205.9,66.6,1560.0,10279.0,14.0,1,
95310,1910.0,240.8,205.5,66.4,1488.0,9390.0,3.0,1,
95410,1835.4,281.6,210.8,66.6,1962.0,9329.0,3.0,1,
95610,1873.6,36.8,212.9,93.5,1367.0,8050.0,3.0,1,
95710,1860.7,13.8,212.9,88.5,1367.0,8050.0,3.0,1,
95810,1860.8,14.0,212.9,67.4,1367.0,8050.0,3.0,1,
95910,1860.2,13.4,212.9,57.1,1367.0,8050.0,3.0,1,
96010,1861.4,11.0,212.9,137.5,1367.0,8050.0,3.0,1,
96110,1860.1,13.0,212.9,239.7,1367.0,8050.0,3.0,1,
96210,1862.0,13.8,212.9,239.8,1367.0,8050.0,3.0,1,
96310,1860.2,12.4,212.9,240.0,1367.0,8050.0,3.0,1,
96410,1860.7,12.5,212.9,239.8,1367.0,8050.0,3.0,1,
96610,1834.1,351.2,215.9,68.0,1786.0,11541.0,14.0,1,
96710,1914.4,282.6,213.9,66.0,1771.0,10753.0,2.0,0,
96810,1844.3,278.8,212.0,67.0,1907.0,9353.0,2.0,0,
96910,1822.1,235.9,210.6,68.3,1447.0,8818.0,3.0,1,
97010,1862.3,277.6,206.9,87.4,1889.0,10168.0,3.0,1,
97110,1862.2,299.1,210.8,158.2,1880.0,10044.0,3.0,1,
97210,1872.6,47.4,208.7,225.9,1485.0,9098.0,3.0,1,
97310,1858.7,13.9,208.7,92.2,1485.0,9098.0,3.0,1,
97410,1859.7,12.7,208.7,45.2,1485.0,9098.0,3.0,1,
97610,1861.8,11.0,208.7,73.3,1485.0,9098.0,3.0,1,
97710,1860.2,12.5,208.7,239.8,1485.0,9098.0,3.0,1,
97810,1860.8,13.0,208.7,239.8,1485.0,9098.0,3.0,1,
97910,1859.9,13.6,208.7,239.4,1485.0,9098.0,3.0,1,
98010,1858.6,11.1,208.7,239.4,1485.0,9098.0,3.0,1,
98110,1860.0,16.0,208.7,239.7,1485.0,9098.0,3.0,1,
98210,1889.3,339.6,219.3,71.3,2156.0,12105.0,16.0,1,
98310,1803.7,328.8,221.1,66.0,1835.0,12589.0,14.0,1,
98410,1866.5,284.0,221.9,66.9,1988.0,11442.0,3.0,1,
98610,1918.0,291.1,229.6,91.9,1587.0,10538.0,3.0,1,
98710,1826.4,294.7,229.5,194.6,2263.0,11018.0,4.0,1,
98810,1839.5,97.6,235.7,229.2,1491.0,8940.0,4.0,1,
98910,1860.7,14.6,235.7,164.6,1491.0,8940.0,4.0,1,
99010,1861.2,14.1,235.7,37.3,1491.0,8940.0,4.0,1,
99110,1858.9,13.6,235.7,35.9,1491.0,8940.0,4.0,1,
99210,1860.6,13.4,235.7,38.7,1491.0,8940.0,4.0,1,
99310,1859.0,11.2,235.7,239.6,1491.0,8940.0,4.0,1,
99410,1861.2,11.5,235.7,239.7,1491.0,8940.0,4.0,1,
99610,1859.8,13.8,235.7,239.9,1491.0,8940.0,4.0,1,
99710,1859.7,14.3,235.7,239.6,1491.0,8940.0,4.0,1,
99810,1857.0,355.2,237.2,67.8,1650.0,11435.0,14.0,1,
99910,1854.8,341.2,231.0,35.3,1780.0,12057.0,14.0,1,
100010,1910.2,297.0,232.2,65.6,1670.0,11519.0,13.0,1,
100110,1852.8,273.6,234.5,66.6,1551.0,10597.0,13.0,1,
100210,1819.4,305.1,233.6,66.7,1500.0,10312.0,14.0,1,
100310,1861.8,294.1,231.6,48.0,1463.0,9793.0,15.0,1,
100410,1867.2,153.4,224.8,49.7,1417.0,9683.0,14.0,1,
100610,1859.7,12.0,224.6,65.7,1417.0,9683.0,14.0,1,
100710,1861.3,12.7,224.7,65.7,1417.0,9683.0,14.0,1,
100810,1860.3,12.3,224.7,56.6,1417.0,9683.0,14.0,1,
100910,1861.6,12.5,224.7,240.2,1417.0,9683.0,14.0,1,
101010,1860.6,12.2,224.7,240.5,1417.0,9683.0,14.0,1,
101110,1860.5,14.3,224.7,240.2,1417.0,9683.0,14.0,1,
101210,1859.6,14.8,224.7,239.4,1417.0,9683.0,14.0,1,
101310,1860.2,14.7,224.7,239.6,1417.0,9683.0,14.0,1,
101410,1887.0,188.4,222.1,239.3,1637.0,11165.0,15.0,1,
101610,1810.0,271.4,222.1,65.9,1657.0,11707.0,14.0,1,
101710,1864.1,302.7,219.7,65.8,1708.0,10809.0,3.0,1,
101810,1859.9,344.8,227.0,66.7,2269.0,11433.0,4.0,1,
101910,1906.8,300.4,229.1,91.8,1600.0,10197.0,3.0,1,
102010,1849.1,248.0,231.9,133.4,1354.0,9160.0,3.0,1,
102110,1842.6,25.3,230.7,187.2,1354.0,9160.0,3.0,1,
102210,1858.6,12.9,230.7,71.4,1354.0,9160.0,3.0,1,
102310,1859.7,11.7,230.7,38.8,1354.0,9160.0,3.0,1,
102410,1863.1,14.7,230.7,38.1,1354.0,9160.0,3.0,1,
102610,1861.6,12.4,230.7,239.8,1354.0,9160.0,3.0,1,
102710,1859.4,14.1,230.7,239.5,1354.0,9160.0,3.0,1,
102810,1860.5,13.6,230.8,239.3,1354.0,9160.0,3.0,1,
102910,1858.4,12.5,230.8,174.2,1354.0,9160.0,3.0,1,
103010,1863.2,52.8,230.8,92.5,1354.0,9160.0,3.0,1,
103110,1838.8,311.4,230.2,70.1,1665.0,11793.0,13.0,1,
103210,1864.3,283.8,226.7,67.4,1646.0,11349.0,13.0,1,
103310,1897.3,281.9,224.7,66.7,1584.0,11004.0,14.0,1,
103410,1850.6,269.0,221.7,66.4,1477.0,10496.0,13.0,1,
103610,1857.5,286.9,207.7,43.7,1433.0,9874.0,13.0,1,
103710,1885.5,35.0,205.6,39.3,1361.0,9699.0,14.0,1,
103810,1859.5,18.9,205.7,35.7,1361.0,9699.0,14.0,1,
103910,1862.4,14.1,205.7,35.0,1361.0,9699.0,14.0,1,
104010,1860.1,12.7,205.7,39.7,1361.0,9699.0,14.0,1,
104110,1859.5,12.2,205.6,100.4,1361.0,9699.0,14.0,1,
104210,1860.8,14.2,205.6,183.0,1361.0,9699.0,14.0,1,
104310,1861.6,14.0,205.7,239.3,1361.0,9699.0,14.0,1,
104410,1860.3,12.2,205.7,239.7,1361.0,9699.0,14.0,1,
104610,1858.7,11.7,205.6,239.5,1361.0,9699.0,14.0,1,
104710,1873.3,313.4,207.3,69.2,1716.0,11548.0,14.0,1,
104810,1870.0,277.8,211.1,66.8,1655.0,11560.0,14.0,1,
104910,1812.3,265.4,211.3,66.5,1604.0,11093.0,14.0,1,
105010,1860.0,290.2,209.1,66.4,1489.0,10055.0,14.0,1,
105110,1858.9,315.6,210.3,66.9,1454.0,9829.0,14.0,1,
105210,1903.4,294.1,206.8,67.0,1388.0,9961.0,13.0,1,
105310,1835.8,47.2,207.6,49.5,1350.0,9430.0,13.0,1,
105410,1859.7,13.1,207.5,37.2,1350.0,9430.0,13.0,1,
105610,1860.7,11.5,207.5,29.9,1350.0,9430.0,13.0,1,
105710,1860.3,11.5,207.5,36.3,1350.0,9430.0,13.0,1,
105810,1859.3,10.3,207.5,240.2,1350.0,9430.0,13.0,1,
105910,1859.9,11.7,207.4,240.2,1350.0,9430.0,13.0,1,
106010,1858.7,11.8,207.4,239.8,1350.0,9430.0,13.0,1,
106110,1861.3,12.3,207.4,239.7,1350.0,9430.0,13.0,1,
106210,1860.2,13.5,207.4,239.2,1350.0,9430.0,13.0,1,
106310,1843.1,313.4,209.9,71.4,1774.0,12103.0,14.0,1,
106410,1851.9,347.9,209.5,66.8,1824.0,12398.0,13.0,1,
106610,1898.3,340.8,213.2,66.3,1540.0,10472.0,13.0,1,
106710,1857.7,290.0,212.9,65.9,1413.0,9809.0,13.0,1,
106810,1816.4,316.9,212.5,66.9,1437.0,9686.0,14.0,1,
106910,1876.7,81.8,212.2,66.1,1406.0,9547.0,15.0,1,
107010,1859.0,13.9,212.1,66.2,1406.0,9547.0,15.0,1,
107110,1860.9,10.8,212.2,66.0,1406.0,9547.0,15.0,1,
107210,1861.4,12.6,212.1,54.5,1406.0,9547.0,15.0,1,
107310,1860.5,11.6,212.2,53.9,1406.0,9547.0,15.0,1,
107410,1861.2,10.0,212.2,239.4,1406.0,9547.0,15.0,1,
107610,1858.1,10.5,212.2,239.3,1406.0,9547.0,15.0,1,
107710,1862.5,12.3,212.2,237.7,1406.0,9547.0,15.0,1,
107810,1861.0,11.2,212.2,239.9,1406.0,9547.0,15.0,1,
107910,1833.9,306.2,210.2,76.2,1584.0,10932.0,14.0,1,
108010,1897.3,375.0,205.8,66.2,1866.0,12131.0,14.0,1,
108110,1867.8,277.2,216.1,66.5,1642.0,11431.0,13.0,1,
108210,1809.7,297.8,217.4,65.4,1588.0,10756.0,14.0,1,
108310,1862.9,281.8,217.6,35.8,1495.0,10032.0,14.0,1,
108410,1856.6,339.4,219.2,37.3,1393.0,9447.0,14.0,1,
108610,1864.6,15.6,216.6,50.8,1393.0,9447.0,14.0,1,
108710,1861.0,11.6,216.6,65.6,1393.0,9447.0,14.0,1,
108810,1861.1,10.9,216.7,39.9,1393.0,9447.0,14.0,1,
108910,1861.4,12.1,216.7,37.7,1393.0,9447.0,14.0,1,
109010,1860.2,11.3,216.6,240.0,1393.0,9447.0,14.0,1,
109110,1859.8,11.1,216.7,240.2,1393.0,9447.0,14.0,1,
109210,1860.4,11.8,216.7,240.3,1393.0,9447.0,14.0,1,
109310,1860.8,11.8,216.7,240.2,1393.0,9447.0,14.0,1,
109410,1860.0,13.6,216.6,238.0,1393.0,9447.0,14.0,1,
109610,1796.8,325.3,225.3,36.0,1785.0,12215.0,14.0,1,
109710,1857.9,327.4,218.1,66.0,1835.0,11272.0,4.0,1,
109810,1851.7,348.2,230.4,68.3,2351.0,10949.0,3.0,1,
109910,1903.0,332.5,239.0,92.0,1502.0,9388.0,2.0,0,
110010,1856.6,332.7,244.6,94.2,2339.0,10580.0,3.0,1,
110110,1817.3,249.6,253.0,197.6,1350.0,8345.0,3.0,1,
110210,1866.0,23.5,252.2,195.4,1350.0,8345.0,3.0,1,
110310,1860.3,11.6,252.3,38.2,1350.0,8345.0,3.0,1,
110410,1860.1,11.4,252.3,35.8,1350.0,8345.0,3.0,1,
110610,1859.5,11.8,252.3,143.5,1350.0,8345.0,3.0,1,
110710,1860.9,11.5,252.3,239.6,1350.0,8345.0,3.0,1,
110810,1859.9,12.9,252.3,239.5,1350.0,8345.0,3.0,1,
110910,1861.3,13.7,252.2,239.3,1350.0,8345.0,3.0,1,
111010,1860.6,15.0,252.3,238.9,1350.0,8345.0,3.0,1,
111110,1858.8,122.4,252.2,237.4,1350.0,8345.0,3.0,1,
111210,1841.4,356.0,248.6,54.0,1728.0,12053.0,14.0,1,
111310,1909.4,285.8,248.0,53.3,1639.0,11635.0,14.0,1,
111410,1864.8,300.0,244.7,66.4,2212.0,10842.0,3.0,1,
111610,1859.8,326.2,240.6,93.9,1961.0,10209.0,4.0,1,
111710,1855.1,355.3,239.2,190.0,2069.0,9946.0,3.0,1,
111810,1876.1,28.9,238.0,221.0,1310.0,8168.0,3.0,1,
111910,1861.4,12.7,237.9,67.0,1310.0,8168.0,3.0,1,
112010,1860.9,11.0,237.9,36.1,1310.0,8168.0,3.0,1,
112110,1863.3,11.2,237.9,36.7,1310.0,8168.0,3.0,1,
112210,1861.0,12.7,237.9,108.0,1310.0,8168.0,3.0,1,
112310,1860.6,14.0,237.9,239.8,1310.0,8168.0,3.0,1,
112410,1859.5,11.4,238.0,217.4,1310.0,8168.0,3.0,1,
112610,1861.3,10.5,237.9,163.4,1310.0,8168.0,3.0,1,
112710,1861.6,37.1,237.9,238.6,1310.0,8168.0,3.0,1,
112810,1904.8,268.0,235.3,93.7,2303.0,12321.0,4.0,1,
112910,1806.2,342.6,235.0,75.1,1963.0,11192.0,3.0,1,
113010,1859.5,299.5,234.4,100.2,1851.0,11125.0,4.0,1,
113110,1852.5,367.9,235.3,133.6,2280.0,10280.0,2.0,0,
113210,1905.5,333.2,237.2,217.9,1595.0,9859.0,3.0,1,
113310,1857.5,337.7,235.8,204.2,2308.0,10097.0,3.0,1,
113410,1829.0,50.6,237.7,189.6,1315.0,7614.0,2.0,0,
113610,1861.7,12.0,237.7,36.7,1315.0,7614.0,2.0,0,
113710,1860.5,10.8,237.8,35.8,1315.0,7614.0,2.0,0,
113810,1860.0,10.4,237.8,40.3,1315.0,7614.0,2.0,0,
113910,1860.4,10.1,237.8,240.2,1315.0,7614.0,2.0,0,
114010,1860.9,12.3,237.8,239.9,1315.0,7614.0,2.0,0,
114110,1861.4,11.2,237.7,240.1,1315.0,7614.0,2.0,0,
114210,1859.8,10.6,237.8,240.0,1315.0,7614.0,2.0,0,
114310,1860.0,11.4,237.8,239.3,1315.0,7614.0,2.0,0,
114410,1843.6,344.1,245.0,70.1,1659.0,11057.0,14.0,1,
114610,1906.7,261.2,241.7,66.6,1614.0,11364.0,13.0,1,
114710,1865.1,277.2,237.6,66.6,1482.0,10241.0,13.0,1,
114810,1815.4,303.8,226.7,67.2,1426.0,9822.0,14.0,1,
114910,1856.7,250.4,216.0,65.6,1382.0,9744.0,13.0,1,
115010,1879.6,64.8,205.6,66.0,1328.0,9039.0,14.0,1,
115110,1860.0,14.1,205.6,65.7,1328.0,9039.0,14.0,1,
115210,1859.5,12.1,205.6,45.1,1328.0,9039.0,14.0,1,
115310,1860.8,13.1,205.6,45.7,1328.0,9039.0,14.0,1,
115410,1859.5,11.2,205.6,53.4,1328.0,9039.0,14.0,1,
115610,1861.8,13.0,205.6,238.7,1328.0,9039.0,14.0,1,
115710,1859.8,12.0,205.6,239.8,1328.0,9039.0,14.0,1,
115810,1857.6,11.5,205.5,239.8,1328.0,9039.0,14.0,1,
115910,1860.5,11.5,205.5,239.3,1328.0,9039.0,14.0,1,
116010,1871.7,355.4,205.1,77.5,1688.0,11424.0,14.0,1,
116110,1886.9,297.8,215.8,65.6,1757.0,11868.0,13.0,1,
116210,1805.7,299.6,215.8,39.0,1608.0,10731.0,14.0,1,
116310,1861.3,280.5,218.5,36.3,1538.0,10104.0,15.0,1,
116410,1849.0,324.8,219.8,37.8,1387.0,9631.0,14.0,1,
116610,1830.5,101.2,217.7,51.1,1271.0,9294.0,14.0,1,
116710,1862.1,18.0,217.7,66.7,1271.0,9294.0,14.0,1,
116810,1860.5,11.2,217.7,65.8,1271.0,9294.0,14.0,1,
116910,1860.0,9.8,217.7,51.3,1271.0,9294.0,14.0,1,
117010,1861.5,13.0,217.7,49.2,1271.0,9294.0,14.0,1,
117110,1861.0,11.2,217.7,239.4,1271.0,9294.0,14.0,1,
117210,1861.6,14.5,217.7,239.7,1271.0,9294.0,14.0,1,
117310,1859.9,12.8,217.7,240.1,1271.0,9294.0,14.0,1,
117410,1860.4,11.1,217.7,240.1,1271.0,9294.0,14.0,1,
117610,1858.8,290.5,219.5,91.8,1649.0,10868.0,15.0,1,
117710,1845.4,406.9,210.5,66.4,1827.0,12085.0,14.0,1,
117810,1854.9,307.9,213.4,66.3,1557.0,10401.0,14.0,1,
117910,1909.9,334.5,211.1,65.8,1506.0,9992.0,14.0,1,
118010,1860.0,288.5,211.6,45.3,1405.0,9564.0,14.0,1,
118110,1817.0,348.8,213.4,46.2,1386.0,9344.0,14.0,1,
118210,1865.5,172.9,218.1,38.4,1299.0,9128.0,14.0,1,
118310,1873.2,19.6,218.1,37.6,1299.0,9128.0,14.0,1,
118410,1859.7,12.2,218.1,35.5,1299.0,9128.0,14.0,1,
118610,1858.1,12.4,218.1,37.6,1299.0,9128.0,14.0,1,
118710,1859.5,10.2,218.1,210.3,1299.0,9128.0,14.0,1,
118810,1859.2,12.2,218.0,240.0,1299.0,9128.0,14.0,1,
118910,1860.5,10.4,218.0,240.0,1299.0,9128.0,14.0,1,
119010,1860.6,11.6,218.0,240.5,1299.0,9128.0,14.0,1,
119110,1860.3,11.8,218.0,240.5,1299.0,9128.0,14.0,1,
119210,1845.3,174.2,218.0,240.0,1299.0,9128.0,14.0,1,
119310,1885.8,331.1,217.4,67.0,1837.0,12117.0,13.0,1,
119410,1877.3,282.7,215.8,66.3,1641.0,11149.0,13.0,1,
119610,1857.4,276.6,213.9,65.7,1484.0,10242.0,13.0,1,
119710,1848.6,339.7,214.5,66.4,1340.0,9120.0,14.0,1,
119810,1916.3,269.0,212.2,66.5,1311.0,8868.0,14.0,1,
119910,1837.6,24.5,211.7,65.7,1311.0,8868.0,14.0,1,
120010,1859.9,12.2,211.7,65.6,1311.0,8868.0,14.0,1,
120110,1860.0,13.8,211.7,38.0,1311.0,8868.0,14.0,1,
120210,1859.6,12.4,211.7,36.1,1311.0,8868.0,14.0,1,
120310,1861.3,11.3,211.8,73.4,1311.0,8868.0,14.0,1,
120410,1861.7,17.1,211.8,237.6,1311.0,8868.0,14.0,1,
120610,1860.4,10.6,211.8,186.9,1311.0,8868.0,14.0,1,
120710,1860.9,11.6,211.8,132.6,1311.0,8868.0,14.0,1,
120810,1861.5,10.1,211.8,140.2,1311.0,8868.0,14.0,1,
120910,1839.0,331.7,215.3,67.3,1776.0,11769.0,14.0,1,
121010,1853.6,273.0,214.3,66.6,1764.0,11796.0,14.0,1,
121110,1845.5,324.2,214.1,66.3,1568.0,10795.0,14.0,1,
121210,1919.6,308.9,214.4,65.9,1527.0,10266.0,15.0,1,
121310,1860.8,308.2,216.0,66.3,1422.0,9718.0,13.0,1,
121410,1819.4,356.2,216.1,66.5,1353.0,9366.0,14.0,1,
121610,1860.2,11.3,216.4,65.5,1353.0,9366.0,14.0,1,
121710,1859.9,11.9,216.4,65.5,1353.0,9366.0,14.0,1,
121810,1861.8,17.9,216.4,51.6,1353.0,9366.0,14.0,1,
121910,1859.2,14.1,216.4,66.0,1353.0,9366.0,14.0,1,
122010,1859.9,10.4,216.4,111.6,1353.0,9366.0,14.0,1,
122110,1859.3,13.5,216.3,135.1,1353.0,9366.0,14.0,1,
122210,1860.4,12.0,216.4,235.8,1353.0,9366.0,14.0,1,
122310,1860.0,10.6,216.3,239.2,1353.0,9366.0,14.0,1,
122410,1860.5,13.4,216.3,237.8,1353.0,9366.0,14.0,1,
122610,1898.9,322.9,213.2,53.6,1799.0,11620.0,14.0,1,
122710,1873.4,282.0,218.5,67.0,2331.0,11142.0,3.0,1,
122810,1811.0,321.6,231.7,91.5,1496.0,9593.0,3.0,1,
122910,1860.1,340.0,234.6,99.1,1975.0,9923.0,3.0,1,
123010,1846.1,395.2,243.3,163.7,2117.0,9497.0,2.0,0,
123110,1876.5,71.0,245.5,226.4,1310.0,7737.0,2.0,0,
123210,1858.3,13.8,245.5,94.5,1310.0,7737.0,2.0,0,
123310,1858.7,13.2,245.5,36.1,1310.0,7737.0,2.0,0,
123410,1859.8,12.4,245.5,35.8,1310.0,7737.0,2.0,0,
123610,1860.3,12.5,245.5,239.6,1310.0,7737.0,2.0,0,
123710,1858.7,12.5,245.5,240.3,1310.0,7737.0,2.0,0,
123810,1860.8,12.0,245.5,239.3,1310.0,7737.0,2.0,0,
123910,1860.5,11.3,245.5,217.7,1310.0,7737.0,2.0,0,
124010,1859.7,14.9,245.5,237.8,1310.0,7737.0,2.0,0,
124110,1908.2,292.2,248.0,53.0,1648.0,10531.0,15.0,1,
124210,1806.0,315.4,248.6,29.6,1633.0,11346.0,13.0,1,
124310,1853.0,333.2,253.6,36.5,1802.0,11676.0,14.0,1,
124410,1855.5,351.6,247.9,66.3,1690.0,10776.0,13.0,1,
124610,1875.1,359.0,236.7,65.5,1515.0,9769.0,13.0,1,
124710,1817.6,111.6,227.4,66.0,1445.0,9194.0,14.0,1,
124810,1858.7,16.8,227.3,51.0,1445.0,9194.0,14.0,1,
124910,1860.1,9.8,227.3,47.6,1445.0,9194.0,14.0,1,
125010,1861.9,11.9,227.4,47.5,1445.0,9194.0,14.0,1,
125110,1861.3,13.8,227.4,47.8,1445.0,9194.0,14.0,1,
125210,1860.5,10.5,227.4,239.5,1445.0,9194.0,14.0,1,
125310,1859.8,10.8,227.4,239.7,1445.0,9194.0,14.0,1,
125410,1860.1,12.6,227.4,240.0,1445.0,9194.0,14.0,1,
125610,1860.7,14.7,227.4,239.3,1445.0,9194.0,14.0,1,
125710,1833.5,280.4,224.1,72.4,1648.0,10875.0,15.0,1,
125810,1872.6,314.9,221.9,66.5,1593.0,11112.0,13.0,1,
125910,1891.7,280.5,216.7,66.2,1565.0,10647.0,13.0,1,
126010,1877.0,251.5,214.2,65.9,1634.0,10779.0,15.0,1,
126110,1816.8,292.3,209.9,66.3,1453.0,9798.0,14.0,1,
126210,1852.8,346.2,209.6,67.3,1474.0,10129.0,13.0,1,
126310,1869.5,153.9,207.0,66.7,1407.0,9320.0,14.0,1,
126410,1871.6,18.6,206.8,35.5,1407.0,9320.0,14.0,1,
126610,1859.6,12.3,206.8,34.4,1407.0,9320.0,14.0,1,
126710,1862.1,12.5,206.9,44.7,1407.0,9320.0,14.0,1,
126810,1861.8,11.0,206.9,239.5,1407.0,9320.0,14.0,1,
126910,1859.7,13.6,206.9,240.2,1407.0,9320.0,14.0,1,
127010,1858.0,10.4,206.9,240.3,1407.0,9320.0,14.0,1,
127110,1861.9,13.3,206.9,240.1,1407.0,9320.0,14.0,1,
127210,1861.2,14.6,207.0,239.8,1407.0,9320.0,14.0,1,
127310,1873.3,218.3,206.9,238.9,1693.0,11043.0,15.0,1,
127410,1870.8,301.1,209.0,66.7,1704.0,11426.0,13.0,1,
127610,1832.4,336.0,211.6,65.7,1644.0,11185.0,13.0,1,
127710,1877.5,313.1,214.2,46.8,1506.0,9926.0,13.0,1,
127810,1889.4,308.3,211.3,66.2,1436.0,9351.0,14.0,1,
127910,1872.1,270.2,213.9,93.6,1411.0,9404.0,13.0,1,
128010,1835.8,26.5,213.8,66.0,1411.0,9404.0,13.0,1,
128110,1860.4,14.1,213.8,35.1,1411.0,9404.0,13.0,1,
128210,1860.5,14.0,213.8,29.8,1411.0,9404.0,13.0,1,
128310,1862.6,12.9,213.9,29.1,1411.0,9404.0,13.0,1,
128410,1860.6,14.3,213.8,124.5,1411.0,9404.0,13.0,1,
128610,1859.7,12.5,213.9,240.0,1411.0,9404.0,13.0,1,
128710,1862.3,15.3,213.9,239.8,1411.0,9404.0,13.0,1,
128810,1859.5,10.8,213.9,240.0,1411.0,9404.0,13.0,1,
128910,1859.7,90.7,213.8,239.8,1411.0,9404.0,13.0,1,
129010,1819.9,283.9,212.0,50.6,1649.0,11448.0,14.0,1,
129110,1877.3,352.5,210.9,56.2,1643.0,10872.0,14.0,1,
129210,1907.5,289.1,215.9,66.2,1646.0,11444.0,13.0,1,
129310,1851.6,249.6,211.4,65.8,1586.0,10762.0,13.0,1,
129410,1838.9,294.2,215.0,50.8,1450.0,9842.0,13.0,1,
129610,1882.8,34.5,206.6,43.3,1447.0,9757.0,13.0,1,
129710,1858.7,14.0,206.6,56.8,1447.0,9757.0,13.0,1,
129810,1858.8,12.6,206.5,67.1,1447.0,9757.0,13.0,1,
129910,1860.2,12.2,206.5,66.3,1447.0,9757.0,13.0,1,
130010,1861.7,12.1,206.5,122.6,1447.0,9757.0,13.0,1,
130110,1860.8,12.6,206.5,240.2,1447.0,9757.0,13.0,1,
130210,1861.3,14.2,206.5,240.0,1447.0,9757.0,13.0,1,
130310,1860.3,12.0,206.5,239.9,1447.0,9757.0,13.0,1,
130410,1860.0,11.1,206.5,239.6,1447.0,9757.0,13.0,1,
130610,1894.4,303.1,208.8,53.6,1698.0,11572.0,14.0,1,
130710,1852.9,272.3,204.0,45.4,1719.0,11878.0,14.0,1,
130810,1838.9,321.5,211.5,48.4,2087.0,10586.0,2.0,0,
130910,1828.5,331.9,220.4,66.7,2236.0,11277.0,3.0,1,
131010,1878.6,314.9,224.8,90.2,1825.0,10029.0,3.0,1,
131110,1895.7,355.6,231.5,165.7,2363.0,10597.0,4.0,1,
131210,1831.2,55.7,233.8,226.0,1429.0,8495.0,3.0,1,
131310,1858.5,13.9,233.8,132.0,1429.0,8495.0,3.0,1,
131410,1862.3,13.3,233.8,36.8,1429.0,8495.0,3.0,1,
131610,1860.0,11.8,233.8,43.8,1429.0,8495.0,3.0,1,
131710,1859.5,12.9,233.8,239.9,1429.0,8495.0,3.0,1,
131810,1859.1,12.9,233.8,239.6,1429.0,8495.0,3.0,1,
131910,1858.7,10.5,233.8,239.3,1429.0,8495.0,3.0,1,
132010,1860.5,15.1,233.8,239.5,1429.0,8495.0,3.0,1,
132110,1859.5,18.8,233.8,240.0,1429.0,8495.0,3.0,1,
132210,1852.9,305.6,236.6,81.2,1713.0,12147.0,13.0,1,
132310,1847.3,270.7,234.9,67.3,1832.0,12796.0,13.0,1,
132410,1856.3,283.0,232.3,66.6,1679.0,11398.0,13.0,1,
132610,1841.3,288.3,215.2,66.9,1459.0,10149.0,14.0,1,
132710,1848.0,250.4,216.2,42.4,1371.0,9935.0,13.0,1,
132810,1864.0,74.0,201.3,37.7,1319.0,9075.0,14.0,1,
132910,1858.7,15.1,201.2,35.6,1319.0,9075.0,14.0,1,
133010,1861.0,13.5,201.2,30.3,1319.0,9075.0,14.0,1,
133110,1860.0,14.4,201.2,35.8,1319.0,9075.0,14.0,1,
133210,1859.5,13.3,201.2,54.1,1319.0,9075.0,14.0,1,
133310,1861.4,13.2,201.3,239.8,1319.0,9075.0,14.0,1,
133410,1859.9,12.7,201.3,240.1,1319.0,9075.0,14.0,1,
133610,1859.4,13.7,201.3,239.3,1319.0,9075.0,14.0,1,
133710,1861.4,14.8,201.4,239.3,1319.0,9075.0,14.0,1,
133810,1824.2,309.8,199.1,92.4,1629.0,10951.0,14.0,1,
133910,1925.4,323.1,208.0,67.2,1749.0,11652.0,14.0,1,
134010,1854.2,245.6,207.7,66.0,1616.0,11198.0,13.0,1,
134110,1825.8,283.4,206.9,56.2,1491.0,10394.0,13.0,1,
134210,1845.7,265.6,208.4,65.6,1456.0,9760.0,13.0,1,
134310,1856.0,315.7,202.7,67.3,1373.0,9616.0,13.0,1,
134410,1885.1,119.3,203.1,65.6,1284.0,9394.0,14.0,1,
134610,1858.7,13.5,203.0,36.1,1284.0,9394.0,14.0,1,
134710,1861.2,15.7,203.0,34.7,1284.0,9394.0,14.0,1,
134810,1859.6,11.8,203.0,34.2,1284.0,9394.0,14.0,1,
134910,1860.0,11.8,203.0,239.8,1284.0,9394.0,14.0,1,
135010,1861.0,14.7,203.0,240.5,1284.0,9394.0,14.0,1,
135110,1859.6,11.8,203.0,240.5,1284.0,9394.0,14.0,1,
135210,1860.4,14.3,203.0,240.0,1284.0,9394.0,14.0,1,
135310,1861.3,15.3,203.0,239.9,1284.0,9394.0,14.0,1,
135410,1900.5,209.3,203.5,238.5,1613.0,10912.0,14.0,1,
135610,1855.8,290.1,205.6,66.7,1759.0,11782.0,13.0,1,
135710,1846.3,312.7,205.3,66.3,1559.0,10580.0,14.0,1,
135810,1914.4,269.7,206.0,35.8,1479.0,9964.0,14.0,1,
135910,1851.3,295.0,205.5,34.9,1412.0,9862.0,13.0,1,
136010,1826.9,192.5,206.1,93.7,1290.0,9471.0,13.0,1,
136110,1862.3,23.1,205.5,69.9,1290.0,9471.0,13.0,1,
136210,1860.2,14.6,205.5,66.6,1290.0,9471.0,13.0,1,
136310,1860.4,13.4,205.5,56.6,1290.0,9471.0,13.0,1,
136410,1860.5,11.7,205.5,42.4,1290.0,9471.0,13.0,1,
136610,1859.9,12.6,205.5,239.4,1290.0,9471.0,13.0,1,
136710,1860.0,12.0,205.5,239.7,1290.0,9471.0,13.0,1,
136810,1859.8,13.5,205.5,239.9,1290.0,9471.0,13.0,1,
136910,1859.7,11.8,205.5,240.0,1290.0,9471.0,13.0,1,
137010,1860.0,116.0,205.5,240.2,1290.0,9471.0,13.0,1,
137110,1834.2,329.7,206.5,66.7,1826.0,12530.0,13.0,1,
137210,1913.8,302.2,200.1,65.9,1713.0,12037.0,13.0,1,
137310,1866.5,260.4,199.8,66.3,1641.0,11432.0,13.0,1,
137410,1812.4,246.1,199.5,66.5,1471.0,10067.0,13.0,1,
137610,1847.3,298.0,199.7,66.4,1322.0,9354.0,14.0,1,
137710,1878.3,31.5,200.0,46.1,1322.0,9354.0,14.0,1,
137810,1860.3,13.7,200.0,45.4,1322.0,9354.0,14.0,1,
137910,1857.8,13.2,200.0,56.6,1322.0,9354.0,14.0,1,
138010,1860.7,11.4,200.0,53.8,1322.0,9354.0,14.0,1,
138110,1860.2,12.5,200.0,135.1,1322.0,9354.0,14.0,1,
138210,1860.3,13.2,200.0,240.1,1322.0,9354.0,14.0,1,
138310,1861.2,13.4,200.0,240.2,1322.0,9354.0,14.0,1,
138410,1858.4,12.2,200.0,240.0,1322.0,9354.0,14.0,1,
138610,1860.3,45.2,200.0,239.3,1322.0,9354.0,14.0,1,
138710,1908.9,280.6,204.6,102.0,2446.0,12482.0,3.0,1,
138810,1805.8,300.4,211.0,93.9,2281.0,12375.0,3.0,1,
138910,1857.3,264.1,213.6,136.7,1818.0,11250.0,4.0,1,
139010,1848.1,382.6,222.6,196.5,2368.0,10972.0,4.0,1,
139110,1905.1,310.9,229.5,229.2,1540.0,9089.0,3.0,1,
139210,1862.8,356.0,236.3,207.2,2427.0,9978.0,2.0,0,
139310,1828.9,50.4,239.6,165.5,1326.0,8019.0,3.0,1,
139410,1860.1,12.7,239.6,93.5,1326.0,8019.0,3.0,1,
139610,1860.4,10.7,239.6,36.3,1326.0,8019.0,3.0,1,
139710,1861.0,11.9,239.6,40.5,1326.0,8019.0,3.0,1,
139810,1861.0,12.8,239.6,239.7,1326.0,8019.0,3.0,1,
139910,1860.4,13.0,239.6,239.5,1326.0,8019.0,3.0,1,
140010,1860.3,14.4,239.6,238.1,1326.0,8019.0,3.0,1,
140110,1860.1,16.0,239.6,170.4,1326.0,8019.0,3.0,1,
140210,1860.0,13.7,239.6,169.1,1326.0,8019.0,3.0,1,
140310,1836.1,351.7,245.5,70.6,1656.0,11640.0,14.0,1,
140410,1866.8,314.2,243.8,66.6,1831.0,12785.0,13.0,1,
140610,1881.5,293.4,240.0,66.1,1558.0,11126.0,13.0,1,
140710,1815.5,314.8,227.4,67.0,1464.0,10042.0,14.0,1,
140810,1852.0,255.8,219.9,46.8,1383.0,9769.0,13.0,1,
140910,1881.3,65.4,209.3,37.7,1372.0,9475.0,13.0,1,
141010,1859.9,14.6,209.3,36.9,1372.0,9475.0,13.0,1,
141110,1861.2,11.0,209.3,34.9,1372.0,9475.0,13.0,1,
141210,1862.9,13.3,209.3,36.8,1372.0,9475.0,13.0,1,
141310,1859.6,12.1,209.3,54.1,1372.0,9475.0,13.0,1,
141410,1860.8,11.0,209.3,240.0,1372.0,9475.0,13.0,1,
141610,1860.5,17.5,209.3,240.0,1372.0,9475.0,13.0,1,
141710,1860.5,17.8,209.4,239.5,1372.0,9475.0,13.0,1,
141810,1860.9,15.5,209.4,238.8,1372.0,9475.0,13.0,1,
141910,1865.9,303.6,209.1,92.4,1660.0,11706.0,14.0,1,
142010,1886.0,322.6,207.4,67.8,1773.0,12497.0,14.0,1,
142110,1818.6,253.8,209.6,67.3,1660.0,11565.0,13.0,1,
142210,1845.4,289.4,207.8,66.7,1552.0,11046.0,13.0,1,
142310,1860.8,301.3,207.2,65.5,1450.0,10017.0,13.0,1,
142410,1892.5,327.9,205.6,51.1,1343.0,9315.0,14.0,1,
142610,1861.1,18.4,210.1,37.3,1343.0,9315.0,14.0,1,
142710,1859.9,12.9,210.1,35.5,1343.0,9315.0,14.0,1,
142810,1860.5,14.4,210.0,30.0,1343.0,9315.0,14.0,1,
142910,1860.8,13.0,210.0,29.5,1343.0,9315.0,14.0,1,
143010,1859.8,14.0,210.1,239.7,1343.0,9315.0,14.0,1,
143110,1859.4,13.7,210.0,239.4,1343.0,9315.0,14.0,1,
143210,1862.7,13.3,210.1,240.1,1343.0,9315.0,14.0,1,
143310,1861.7,15.4,210.1,239.9,1343.0,9315.0,14.0,1,
143410,1858.0,14.3,210.0,239.6,1343.0,9315.0,14.0,1,
143610,1812.8,356.9,208.4,66.3,1709.0,11844.0,14.0,1,
143710,1874.7,372.5,220.4,67.2,2170.0,11367.0,3.0,1,
143810,1894.5,319.6,231.9,69.2,2285.0,11237.0,3.0,1,
143910,1879.3,325.7,237.9,93.8,2110.0,9869.0,3.0,1,
144010,1823.8,380.0,248.8,195.7,2266.0,9870.0,3.0,1,
144110,1848.7,206.8,253.2,230.5,1274.0,7722.0,2.0,0,
144210,1869.3,23.0,253.1,152.2,1274.0,7722.0,2.0,0,
144310,1858.6,14.6,253.1,36.9,1274.0,7722.0,2.0,0,
144410,1859.4,14.2,253.1,35.7,1274.0,7722.0,2.0,0,
144610,1860.7,13.3,253.1,239.5,1274.0,7722.0,2.0,0,
144710,1861.0,12.9,253.1,239.8,1274.0,7722.0,2.0,0,
144810,1859.4,14.8,253.1,239.4,1274.0,7722.0,2.0,0,
144910,1861.2,17.8,253.1,238.8,1274.0,7722.0,2.0,0,
145010,1860.6,15.3,253.1,239.5,1274.0,7722.0,2.0,0,
145110,1854.5,215.8,253.1,239.7,1274.0,7722.0,2.0,0,
145210,1887.4,361.1,261.2,66.7,1828.0,12967.0,13.0,1,
145310,1867.9,265.8,257.2,66.5,1712.0,12281.0,13.0,1,
145410,1836.8,274.7,255.1,66.9,1556.0,10502.0,13.0,1,
145610,1877.1,290.5,232.3,39.0,1338.0,9335.0,13.0,1,
145710,1885.4,282.9,215.6,46.4,1219.0,8491.0,14.0,1,
145810,1838.8,30.2,212.5,130.0,1219.0,8491.0,14.0,1,
145910,1860.7,13.4,212.6,66.9,1219.0,8491.0,14.0,1,
146010,1860.8,12.7,212.6,57.3,1219.0,8491.0,14.0,1,
146110,1861.0,13.2,212.6,52.8,1219.0,8491.0,14.0,1,
146210,1859.7,13.5,212.6,229.2,1219.0,8491.0,14.0,1,
146310,1860.2,15.1,212.5,239.9,1219.0,8491.0,14.0,1,
146410,1859.5,14.0,212.5,240.0,1219.0,8491.0,14.0,1,
146610,1861.3,15.7,212.6,239.9,1219.0,8491.0,14.0,1,
146710,1861.0,11.3,212.6,239.6,1219.0,8491.0,14.0,1,
146810,1872.4,318.2,215.5,52.2,1869.0,13176.0,13.0,1,
146910,1826.2,289.7,212.2,38.9,1718.0,12004.0,13.0,1,
147010,1873.5,326.9,206.1,36.9,1574.0,10892.0,14.0,1,
147110,1901.5,293.2,208.1,37.3,1474.0,10101.0,13.0,1,
147210,1856.0,303.8,206.6,78.3,1357.0,9847.0,14.0,1,
147310,1846.0,295.2,208.9,66.1,1297.0,9101.0,14.0,1,
147410,1853.0,37.1,207.6,66.8,1220.0,8811.0,13.0,1,
147610,1862.6,13.5,207.6,45.3,1220.0,8811.0,13.0,1,
147710,1863.1,15.5,207.7,46.4,1220.0,8811.0,13.0,1,
147810,1859.8,16.1,207.7,157.8,1220.0,8811.0,13.0,1,
147910,1860.2,13.4,207.7,240.2,1220.0,8811.0,13.0,1,
148010,1859.5,11.1,207.7,240.3,1220.0,8811.0,13.0,1,
148110,1861.4,12.1,207.7,240.3,1220.0,8811.0,13.0,1,
148210,1859.8,13.6,207.6,240.1,1220.0,8811.0,13.0,1,
148310,1860.4,14.5,207.6,240.2,1220.0,8811.0,13.0,1,
148410,1819.6,387.5,203.6,71.8,1744.0,12426.0,15.0,1,
148610,1853.3,274.7,209.0,66.4,1606.0,11958.0,14.0,1,
148710,1850.8,243.6,215.5,65.5,1468.0,10433.0,15.0,1,
148810,1821.6,267.6,212.7,43.9,1354.0,10182.0,13.0,1,
148910,1870.4,333.0,213.9,38.0,1269.0,9291.0,13.0,1,
149010,1884.5,50.7,214.1,37.3,1191.0,8925.0,13.0,1,
149110,1861.0,17.1,214.1,37.7,1191.0,8925.0,13.0,1,
149210,1862.6,14.8,214.1,34.9,1191.0,8925.0,13.0,1,
149310,1860.5,14.8,214.1,29.8,1191.0,8925.0,13.0,1,
149410,1862.7,15.4,214.1,47.5,1191.0,8925.0,13.0,1,
149610,1860.6,15.0,214.2,239.8,1191.0,8925.0,13.0,1,
149710,1858.5,15.3,214.2,239.9,1191.0,8925.0,13.0,1,
149810,1861.5,16.6,214.2,240.0,1191.0,8925.0,13.0,1,
149910,1858.5,14.7,214.2,239.9,1191.0,8925.0,13.0,1,
150010,1886.1,293.8,214.1,107.1,1733.0,12711.0,14.0,1,
150110,1817.2,265.4,204.4,68.1,1715.0,12541.0,13.0,1,
150210,1841.5,262.8,203.0,67.4,1529.0,11463.0,13.0,1,
150310,1853.4,262.5,195.9,66.9,1561.0,11130.0,14.0,1,
150410,1918.4,266.4,196.4,66.6,1256.0,10088.0,14.0,1,
150610,1845.3,89.2,194.3,66.1,1239.0,9352.0,13.0,1,
150710,1863.6,18.4,194.3,65.7,1239.0,9352.0,13.0,1,
150810,1860.8,17.0,194.3,37.9,1239.0,9352.0,13.0,1,
150910,1861.6,14.0,194.3,35.8,1239.0,9352.0,13.0,1,
151010,1860.0,11.3,194.3,37.1,1239.0,9352.0,13.0,1,
151110,1860.9,14.5,194.2,239.3,1239.0,9352.0,13.0,1,
151210,1860.3,14.9,194.2,239.7,1239.0,9352.0,13.0,1,
151310,1860.8,15.2,194.3,239.5,1239.0,9352.0,13.0,1,
151410,1861.8,14.0,194.3,239.4,1239.0,9352.0,13.0,1,
151610,1836.3,305.3,197.5,112.6,1768.0,12794.0,14.0,1,
151710,1834.6,351.8,196.1,55.4,1739.0,12839.0,14.0,1,
151810,1933.2,284.8,198.1,66.3,1583.0,11825.0,13.0,1,
151910,1851.2,274.5,197.8,67.0,1469.0,11183.0,14.0,1,
152010,1835.4,362.0,204.1,67.0,1386.0,10456.0,13.0,1,
152110,1831.4,286.4,207.2,65.9,1245.0,9641.0,13.0,1,
152210,1869.5,156.1,206.7,35.9,1211.0,9127.0,15.0,1,
152310,1870.1,19.1,206.7,30.0,1211.0,9127.0,15.0,1,
152410,1860.7,15.8,206.7,40.4,1211.0,9127.0,15.0,1,
152610,1860.7,14.7,206.7,55.8,1211.0,9127.0,15.0,1,
152710,1860.0,15.1,206.7,239.9,1211.0,9127.0,15.0,1,
152810,1858.6,15.7,206.7,240.0,1211.0,9127.0,15.0,1,
152910,1860.9,17.0,206.7,240.0,1211.0,9127.0,15.0,1,
153010,1861.6,15.0,206.7,240.1,1211.0,9127.0,15.0,1,
153110,1861.5,13.0,206.7,240.1,1211.0,9127.0,15.0,1,
153210,1880.8,304.2,209.2,239.3,1627.0,12039.0,14.0,1,
153310,1887.0,297.7,210.7,35.0,1697.0,12612.0,13.0,1,
153410,1811.9,383.1,211.6,34.6,1601.0,11805.0,14.0,1,
153610,1840.2,299.6,217.9,39.0,1346.0,10087.0,14.0,1,
153710,1922.1,266.2,216.9,34.4,1270.0,9473.0,13.0,1,
153810,1852.2,242.2,216.6,36.4,1182.0,8867.0,14.0,1,
153910,1833.5,26.1,216.6,35.4,1182.0,8867.0,14.0,1,
154010,1859.6,12.9,216.6,36.3,1182.0,8867.0,14.0,1,
154110,1860.5,13.7,216.6,43.9,1182.0,8867.0,14.0,1,
154210,1860.0,13.7,216.6,49.8,1182.0,8867.0,14.0,1,
154310,1860.2,13.4,216.6,237.9,1182.0,8867.0,14.0,1,
154410,1859.2,15.1,216.6,240.1,1182.0,8867.0,14.0,1,
154610,1860.4,13.2,216.5,240.3,1182.0,8867.0,14.0,1,
154710,1860.2,16.2,216.5,239.9,1182.0,8867.0,14.0,1,
154810,1859.9,12.2,216.5,239.6,1182.0,8867.0,14.0,1,
154910,1855.9,282.1,212.0,53.8,1694.0,11808.0,14.0,1,
155010,1837.7,326.0,210.6,49.0,1630.0,12238.0,13.0,1,
155110,1921.9,292.2,202.0,52.4,1460.0,10470.0,14.0,1,
155210,1861.3,273.1,201.1,66.3,1229.0,9638.0,13.0,1,
155310,1824.9,338.7,196.3,92.9,1274.0,9008.0,14.0,1,
155410,1843.7,259.6,196.1,72.8,1142.0,8400.0,14.0,1,
155610,1861.3,15.5,194.8,65.7,1142.0,8400.0,14.0,1,
155710,1860.4,13.9,194.8,51.4,1142.0,8400.0,14.0,1,
155810,1862.2,15.0,194.8,53.0,1142.0,8400.0,14.0,1,
155910,1860.8,14.8,194.9,237.5,1142.0,8400.0,14.0,1,
156010,1860.7,12.7,194.9,240.1,1142.0,8400.0,14.0,1,
156110,1859.0,14.5,194.9,240.0,1142.0,8400.0,14.0,1,
156210,1861.3,12.7,194.9,240.0,1142.0,8400.0,14.0,1,
156310,1859.5,13.2,194.8,239.9,1142.0,8400.0,14.0,1,
156410,1861.1,12.3,194.8,239.6,1142.0,8400.0,14.0,1,
156610,1893.2,265.6,200.4,65.9,1598.0,12007.0,13.0,1,
156710,1811.5,207.1,198.6,39.1,1487.0,11348.0,13.0,1,
156810,1854.4,246.0,197.6,36.5,1338.0,10398.0,13.0,1,
156910,1839.3,299.6,197.2,65.4,1261.0,9532.0,15.0,1,
157010,1912.2,254.2,198.7,67.4,1125.0,8790.0,13.0,1,
157110,1844.3,49.4,199.0,47.7,1099.0,8816.0,14.0,1,
157210,1860.4,16.2,199.0,42.2,1099.0,8816.0,14.0,1,
157310,1861.0,14.4,199.0,41.2,1099.0,8816.0,14.0,1,
157410,1860.1,11.2,198.9,43.6,1099.0,8816.0,14.0,1,
157610,1860.2,12.4,198.9,240.3,1099.0,8816.0,14.0,1,
157710,1860.7,13.6,198.9,240.2,1099.0,8816.0,14.0,1,
157810,1860.5,12.7,198.9,239.6,1099.0,8816.0,14.0,1,
157910,1860.2,12.9,198.9,239.5,1099.0,8816.0,14.0,1,
158010,1860.4,12.5,198.9,239.6,1099.0,8816.0,14.0,1,
158110,1852.7,301.1,199.6,92.9,1693.0,12238.0,15.0,1,
158210,1848.5,353.4,201.2,67.4,1627.0,12351.0,13.0,1,
158310,1838.5,311.1,203.6,66.1,1502.0,11699.0,13.0,1,
158410,1913.2,322.1,209.3,36.2,1353.0,10557.0,13.0,1,
158610,1828.5,389.0,213.5,37.3,1194.0,9021.0,14.0,1,
158710,1869.1,74.0,216.5,30.2,1071.0,8471.0,14.0,1,
158810,1861.7,14.7,216.5,35.7,1071.0,8471.0,14.0,1,
158910,1863.0,12.6,216.5,35.2,1071.0,8471.0,14.0,1,
159010,1860.1,13.8,216.5,29.6,1071.0,8471.0,14.0,1,
159110,1861.0,12.4,216.5,34.6,1071.0,8471.0,14.0,1,
159210,1858.8,12.3,216.5,239.8,1071.0,8471.0,14.0,1,
159310,1860.6,13.3,216.5,239.8,1071.0,8471.0,14.0,1,
159410,1859.5,12.2,216.5,240.1,1071.0,8471.0,14.0,1,
159610,1861.4,12.3,216.5,240.1,1071.0,8471.0,14.0,1,
159710,1830.5,276.8,216.3,99.8,1657.0,11761.0,15.0,1,
159810,1880.9,334.3,208.3,67.3,1599.0,11671.0,14.0,1,
159910,1890.6,231.3,207.8,66.9,1487.0,11475.0,14.0,1,
160010,1815.3,412.2,206.7,66.4,1410.0,10570.0,13.0,1,
160110,1858.4,286.4,218.5,36.0,1228.0,9910.0,13.0,1,
160210,1837.6,303.5,215.5,34.9,1151.0,8851.0,14.0,1,
160310,1885.5,121.3,210.9,28.6,1079.0,8532.0,14.0,1,
160410,1866.6,19.6,210.9,29.9,1079.0,8532.0,14.0,1,
160610,1861.7,15.3,210.9,37.3,1079.0,8532.0,14.0,1,
160710,1860.4,11.7,210.9,36.5,1079.0,8532.0,14.0,1,
160810,1861.7,12.2,210.9,239.8,1079.0,8532.0,14.0,1,
160910,1862.3,13.9,210.9,240.0,1079.0,8532.0,14.0,1,
161010,1859.1,13.7,210.9,240.2,1079.0,8532.0,14.0,1,
161110,1859.9,12.5,210.9,239.8,1079.0,8532.0,14.0,1,
161210,1860.6,14.2,210.9,239.5,1079.0,8532.0,14.0,1,
161310,1913.0,234.6,216.7,217.4,1607.0,11366.0,14.0,1,
161410,1805.4,276.2,216.1,35.0,1594.0,11722.0,14.0,1,
161610,1841.4,303.7,221.9,65.7,1422.0,11241.0,14.0,1,
161710,1901.5,304.0,207.5,36.6,1276.0,10291.0,13.0,1,
161810,1884.1,295.5,211.9,30.3,1184.0,9310.0,14.0,1,
161910,1826.1,215.1,213.0,36.9,1100.0,8357.0,14.0,1,
162010,1850.9,23.6,212.6,30.2,1100.0,8357.0,14.0,1,
162110,1860.5,14.9,212.5,36.6,1100.0,8357.0,14.0,1,
162210,1861.5,13.1,212.6,43.9,1100.0,8357.0,14.0,1,
162310,1858.5,12.2,212.5,47.6,1100.0,8357.0,14.0,1,
162410,1862.2,14.0,212.5,238.4,1100.0,8357.0,14.0,1,
162610,1862.5,15.4,212.5,240.3,1100.0,8357.0,14.0,1,
162710,1861.0,13.2,212.5,240.2,1100.0,8357.0,14.0,1,
162810,1861.5,11.3,212.6,240.3,1100.0,8357.0,14.0,1,
162910,1851.9,113.5,212.6,239.8,1100.0,8357.0,14.0,1,
163010,1849.5,321.3,212.2,52.4,1626.0,11963.0,14.0,1,
163110,1886.4,306.5,207.6,42.7,1459.0,11170.0,14.0,1,
163210,1898.2,288.1,205.0,41.9,1496.0,11190.0,14.0,1,
163310,1824.0,316.8,205.2,66.1,1361.0,10351.0,14.0,1,
163410,1848.3,252.8,207.8,66.0,1182.0,9561.0,14.0,1,
163610,1889.1,30.8,205.5,36.2,1182.0,9561.0,14.0,1,
163710,1861.9,15.4,205.6,36.4,1182.0,9561.0,14.0,1,
163810,1859.3,12.8,205.5,38.9,1182.0,9561.0,14.0,1,
163910,1862.6,12.4,205.6,46.9,1182.0,9561.0,14.0,1,
164010,1861.1,14.1,205.6,189.7,1182.0,9561.0,14.0,1,
164110,1859.0,12.8,205.6,240.4,1182.0,9561.0,14.0,1,
164210,1861.7,13.7,205.6,240.3,1182.0,9561.0,14.0,1,
164310,1861.0,15.0,205.6,240.0,1182.0,9561.0,14.0,1,
164410,1860.2,15.6,205.5,239.7,1182.0,9561.0,14.0,1,
164610,1909.5,324.9,203.4,74.7,1668.0,12118.0,14.0,1,
164710,1819.6,262.5,206.0,67.3,1595.0,11952.0,14.0,1,
164810,1833.7,289.6,209.3,66.7,1455.0,11111.0,13.0,1,
164910,1853.0,301.2,209.7,66.1,1347.0,10675.0,13.0,1,
165010,1887.0,305.9,204.0,37.0,1182.0,9038.0,14.0,1,
165110,1892.6,291.6,206.2,29.1,1140.0,9075.0,14.0,1,
165210,1830.0,43.6,206.1,34.9,1089.0,8502.0,14.0,1,
165310,1860.4,15.4,206.1,37.5,1089.0,8502.0,14.0,1,
165410,1859.0,12.8,206.0,38.9,1089.0,8502.0,14.0,1,
165610,1858.8,14.1,205.9,101.0,1089.0,8502.0,14.0,1,
165710,1860.1,12.7,205.9,240.4,1089.0,8502.0,14.0,1,
165810,1860.3,14.1,205.9,240.7,1089.0,8502.0,14.0,1,
165910,1858.9,13.2,205.9,240.3,1089.0,8502.0,14.0,1,
166010,1859.5,15.0,205.8,240.1,1089.0,8502.0,14.0,1,
166110,1861.3,17.4,205.9,240.0,1089.0,8502.0,14.0,1,
166210,1820.0,338.5,209.5,73.9,1636.0,12022.0,15.0,1,
166310,1877.1,344.0,211.4,66.7,1712.0,12223.0,14.0,1,
166410,1887.7,300.2,208.0,66.4,1370.0,10820.0,14.0,1,
166610,1837.4,309.8,210.4,65.7,1270.0,9587.0,13.0,1,
166710,1832.7,214.6,207.5,35.6,1126.0,8553.0,15.0,1,
166810,1885.1,61.0,206.4,29.7,1062.0,8343.0,14.0,1,
166910,1861.5,14.9,206.4,35.6,1062.0,8343.0,14.0,1,
167010,1861.0,14.0,206.5,36.1,1062.0,8343.0,14.0,1,
167110,1860.6,14.3,206.5,34.8,1062.0,8343.0,14.0,1,
167210,1860.6,12.8,206.5,40.1,1062.0,8343.0,14.0,1,
167310,1859.4,12.3,206.5,239.9,1062.0,8343.0,14.0,1,
167410,1861.0,13.3,206.5,239.5,1062.0,8343.0,14.0,1,
167610,1860.4,13.9,206.5,239.8,1062.0,8343.0,14.0,1,
167710,1858.9,17.7,206.5,240.0,1062.0,8343.0,14.0,1,
167810,1858.0,330.4,206.3,138.8,1646.0,12247.0,15.0,1,
167910,1883.1,389.3,205.9,65.9,1667.0,12085.0,14.0,1,
168010,1848.5,273.2,215.4,66.5,1507.0,11396.0,13.0,1,
168110,1816.9,300.8,216.4,65.7,1422.0,10306.0,14.0,1,
168210,1870.8,249.3,214.2,35.3,1309.0,10081.0,13.0,1,
168310,1886.3,302.5,212.3,35.4,1154.0,8348.0,14.0,1,
168410,1846.8,108.3,213.8,34.7,1072.0,8268.0,13.0,1,
168610,1860.9,14.7,213.7,38.0,1072.0,8268.0,13.0,1,
168710,1863.3,14.4,213.8,49.1,1072.0,8268.0,13.0,1,
168810,1861.3,11.8,213.8,51.0,1072.0,8268.0,13.0,1,
168910,1861.5,13.4,213.8,240.0,1072.0,8268.0,13.0,1,
169010,1861.1,12.0,213.8,239.8,1072.0,8268.0,13.0,1,
169110,1858.7,11.8,213.8,239.6,1072.0,8268.0,13.0,1,
169210,1861.0,14.6,213.8,239.5,1072.0,8268.0,13.0,1,
169310,1860.1,15.3,213.8,239.8,1072.0,8268.0,13.0,1,
169410,1884.8,175.3,215.6,143.0,1576.0,11221.0,16.0,1,
169610,1869.6,386.9,205.6,66.2,1589.0,12030.0,13.0,1,
169710,1897.9,301.6,208.7,66.6,1383.0,10416.0,14.0,1,
169810,1868.9,328.0,206.9,37.3,1309.0,10229.0,14.0,1,
169910,1855.3,300.6,208.0,29.9,1209.0,9100.0,14.0,1,
170010,1827.6,189.1,210.3,34.8,1049.0,8214.0,14.0,1,
170110,1867.8,23.0,210.1,30.2,1049.0,8214.0,14.0,1,
170210,1860.9,12.6,210.1,36.7,1049.0,8214.0,14.0,1,
170310,1861.4,12.4,210.1,40.0,1049.0,8214.0,14.0,1,
170410,1859.2,13.3,210.0,46.8,1049.0,8214.0,14.0,1,
170610,1860.6,14.8,210.0,239.8,1049.0,8214.0,14.0,1,
170710,1861.9,13.6,210.1,239.7,1049.0,8214.0,14.0,1,
170810,1862.5,11.5,210.1,240.3,1049.0,8214.0,14.0,1,
170910,1860.0,14.1,210.1,240.6,1049.0,8214.0,14.0,1,
171010,1848.6,255.2,210.7,240.3,1049.0,8214.0,14.0,1,
171110,1896.2,381.8,227.6,38.7,2695.0,12144.0,3.0,1,
171210,1870.1,384.3,248.8,43.9,1570.0,10477.0,3.0,1,
171310,1852.3,375.4,257.0,92.9,2298.0,10488.0,3.0,1,
171410,1815.5,478.5,275.6,158.3,2462.0,9723.0,2.0,0,
171610,1891.3,430.6,298.0,196.0,2521.0,8882.0,2.0,0,
171710,1854.2,34.4,299.2,165.2,1005.0,5676.0,2.0,0,
171810,1858.5,13.7,299.2,67.6,1005.0,5676.0,2.0,0,
171910,1861.1,12.6,299.2,36.0,1005.0,5676.0,2.0,0,
172010,1860.9,14.7,299.2,35.6,1005.0,5676.0,2.0,0,
172110,1860.5,12.4,299.2,102.2,1005.0,5676.0,2.0,0,
172210,1859.1,12.5,299.2,239.7,1005.0,5676.0,2.0,0,
172310,1860.1,13.8,299.2,239.6,1005.0,5676.0,2.0,0,
172410,1860.2,15.6,299.2,239.9,1005.0,5676.0,2.0,0,
172610,1860.1,12.9,299.3,239.4,1005.0,5676.0,2.0,0,
172710,1867.0,398.3,298.9,69.0,1606.0,11935.0,13.0,1,
172810,1828.9,285.0,288.1,65.8,1592.0,12055.0,14.0,1,
172910,1847.4,291.8,278.6,38.8,1506.0,11399.0,14.0,1,
173010,1913.6,307.1,264.1,36.6,1286.0,9841.0,14.0,1,
173110,1863.1,340.9,244.3,66.4,1124.0,8972.0,14.0,1,
173210,1859.5,276.7,224.4,66.4,1081.0,8099.0,14.0,1,
173310,1847.6,37.0,211.7,38.2,979.0,7922.0,14.0,1,
173410,1860.5,14.3,211.7,38.0,979.0,7922.0,14.0,1,
173610,1858.2,15.5,211.7,40.2,979.0,7922.0,14.0,1,
173710,1859.1,12.9,211.7,152.0,979.0,7922.0,14.0,1,
173810,1860.0,12.8,211.7,240.0,979.0,7922.0,14.0,1,
173910,1859.4,12.1,211.7,240.0,979.0,7922.0,14.0,1,
174010,1860.1,19.8,211.7,240.1,979.0,7922.0,14.0,1,
174110,1861.4,15.5,211.7,240.0,979.0,7922.0,14.0,1,
174210,1859.3,17.0,211.7,240.0,979.0,7922.0,14.0,1,
174310,1813.4,368.7,211.0,74.0,1683.0,12657.0,14.0,1,
174410,1918.9,371.3,215.5,67.2,1583.0,12194.0,13.0,1,
174610,1832.3,343.6,212.6,37.8,1331.0,10274.0,13.0,1,
174710,1837.2,285.7,213.9,35.7,1198.0,9399.0,14.0,1,
174810,1841.6,312.5,211.9,37.2,1046.0,8140.0,14.0,1,
174910,1898.6,62.2,216.5,30.2,1042.0,8070.0,14.0,1,
175010,1859.4,16.1,216.5,36.2,1042.0,8070.0,14.0,1,
175110,1861.8,14.1,216.5,37.3,1042.0,8070.0,14.0,1,
175210,1860.8,16.2,216.5,36.1,1042.0,8070.0,14.0,1,
175310,1860.9,15.4,216.5,39.7,1042.0,8070.0,14.0,1,
175410,1862.0,16.3,216.6,239.6,1042.0,8070.0,14.0,1,
175610,1860.6,13.1,216.7,240.1,1042.0,8070.0,14.0,1,
175710,1860.9,11.9,216.6,239.8,1042.0,8070.0,14.0,1,
175810,1860.1,22.5,216.6,239.7,1042.0,8070.0,14.0,1,
175910,1904.1,320.4,219.4,70.1,1625.0,12663.0,15.0,1,
176010,1805.8,433.8,214.9,35.5,1630.0,11788.0,14.0,1,
176110,1851.9,279.5,223.6,65.5,1488.0,11558.0,12.0,1,
176210,1837.8,304.8,222.7,65.5,1392.0,10618.0,14.0,1,
176310,1913.5,262.7,222.6,34.6,1180.0,9109.0,14.0,1,
176410,1871.8,303.6,219.4,30.1,1120.0,8582.0,14.0,1,
176610,1863.0,20.5,215.9,30.3,1120.0,8582.0,14.0,1,
176710,1861.2,14.1,215.9,37.1,1120.0,8582.0,14.0,1,
176810,1860.8,14.5,215.9,43.2,1120.0,8582.0,14.0,1,
176910,1857.9,13.0,215.9,65.9,1120.0,8582.0,14.0,1,
177010,1860.6,15.2,215.8,240.1,1120.0,8582.0,14.0,1,
177110,1862.9,15.5,215.8,239.9,1120.0,8582.0,14.0,1,
177210,1860.0,13.9,215.8,239.7,1120.0,8582.0,14.0,1,
177310,1860.3,15.0,215.8,239.5,1120.0,8582.0,14.0,1,
177410,1859.1,14.0,215.8,239.9,1120.0,8582.0,14.0,1,
177610,1850.9,348.8,218.3,41.8,1707.0,12462.0,14.0,1,
177710,1892.7,333.4,206.1,37.6,1502.0,11229.0,14.0,1,
177810,1889.7,300.7,210.6,37.5,1381.0,10713.0,13.0,1,
177910,1822.7,349.1,212.6,40.8,1211.0,9128.0,14.0,1,
178010,1844.5,265.5,214.5,34.5,1190.0,8678.0,14.0,1,
178110,1859.0,153.3,213.2,35.9,1053.0,7822.0,14.0,1,
178210,1870.9,22.1,213.2,36.6,1053.0,7822.0,14.0,1,
178310,1859.6,12.4,213.2,36.4,1053.0,7822.0,14.0,1,
178410,1860.5,13.7,213.2,38.5,1053.0,7822.0,14.0,1,
178610,1861.3,13.5,213.3,240.1,1053.0,7822.0,14.0,1,
178710,1860.1,16.1,213.2,240.4,1053.0,7822.0,14.0,1,
178810,1862.0,12.9,213.2,240.1,1053.0,7822.0,14.0,1,
178910,1860.5,13.1,213.2,240.0,1053.0,7822.0,14.0,1,
179010,1859.8,16.6,213.2,239.9,1053.0,7822.0,14.0,1,
179110,1852.4,214.8,213.1,239.6,1615.0,11194.0,15.0,1,
179210,1913.2,331.1,216.4,66.9,1714.0,12716.0,13.0,1,
179310,1818.8,291.2,215.9,56.4,1535.0,11371.0,14.0,1,
179410,1841.0,284.8,210.5,37.5,1427.0,10928.0,13.0,1,
179610,1888.2,310.2,208.7,66.3,1099.0,8177.0,14.0,1,
179710,1889.9,229.3,211.9,37.5,983.0,7619.0,14.0,1,
179810,1837.0,24.6,211.6,35.2,983.0,7619.0,14.0,1,
179910,1859.9,13.1,211.6,34.5,983.0,7619.0,14.0,1,
180010,1861.7,15.7,211.6,29.6,983.0,7619.0,14.0,1,
180110,1860.5,11.8,211.6,39.6,983.0,7619.0,14.0,1,
180210,1860.5,13.6,211.6,238.8,983.0,7619.0,14.0,1,
180310,1860.7,13.1,211.6,239.8,983.0,7619.0,14.0,1,
180410,1859.0,14.9,211.5,240.0,983.0,7619.0,14.0,1,
180610,1861.3,16.1,211.6,239.9,983.0,7619.0,14.0,1,
180710,1860.1,17.8,211.6,239.7,983.0,7619.0,14.0,1,
180810,1821.5,363.6,214.0,69.2,1660.0,12390.0,14.0,1,
180910,1865.6,339.9,209.1,67.2,1641.0,12220.0,13.0,1,
181010,1882.5,322.2,209.0,67.0,1375.0,10470.0,14.0,1,
181110,1895.1,317.2,217.7,66.5,1280.0,9881.0,13.0,1,
181210,1830.0,350.9,216.3,39.5,1154.0,8595.0,14.0,1,
181310,1845.1,285.7,214.2,35.3,1015.0,8041.0,14.0,1,
181410,1874.1,35.4,216.5,29.9,994.0,7781.0,13.0,1,
181610,1860.4,14.5,216.6,35.2,994.0,7781.0,13.0,1,
181710,1858.0,13.8,216.5,28.5,994.0,7781.0,13.0,1,
181810,1862.9,16.8,216.6,124.8,994.0,7781.0,13.0,1,
181910,1862.3,13.0,216.6,240.0,994.0,7781.0,13.0,1,
182010,1861.6,15.7,216.7,240.2,994.0,7781.0,13.0,1,
182110,1859.5,14.6,216.7,240.3,994.0,7781.0,13.0,1,
182210,1858.5,16.7,216.6,240.1,994.0,7781.0,13.0,1,
182310,1861.1,14.8,216.6,239.7,994.0,7781.0,13.0,1,
182410,1847.4,357.0,217.2,68.7,1634.0,11787.0,14.0,1,
182610,1843.7,307.4,217.5,67.1,1419.0,10862.0,13.0,1,
182710,1817.2,362.4,214.6,66.8,1296.0,9690.0,14.0,1,
182810,1866.3,287.3,216.9,46.8,1218.0,9023.0,13.0,1,
182910,1880.2,305.9,216.9,36.4,1064.0,7599.0,14.0,1,
183010,1857.8,51.3,214.1,29.0,992.0,7496.0,15.0,1,
183110,1859.5,13.9,214.1,30.0,992.0,7496.0,15.0,1,
183210,1860.8,12.0,214.1,37.3,992.0,7496.0,15.0,1,
183310,1861.0,12.8,214.1,46.8,992.0,7496.0,15.0,1,
183410,1860.5,12.4,214.1,78.4,992.0,7496.0,15.0,1,
183610,1861.8,13.8,214.0,240.0,992.0,7496.0,15.0,1,
183710,1859.5,11.8,214.0,240.1,992.0,7496.0,15.0,1,
183810,1859.0,14.4,214.0,240.1,992.0,7496.0,15.0,1,
183910,1859.7,15.8,214.0,239.5,992.0,7496.0,15.0,1,
184010,1889.8,309.5,219.7,52.6,1648.0,12020.0,14.0,1,
184110,1809.5,308.7,216.6,35.9,1669.0,12085.0,14.0,1,
184210,1865.7,388.0,218.5,36.1,1424.0,11690.0,13.0,1,
184310,1889.3,326.1,220.2,48.2,1272.0,9763.0,13.0,1,
184410,1872.3,307.0,214.4,39.5,1154.0,9231.0,14.0,1,
184610,1835.5,80.8,212.8,36.4,994.0,7369.0,14.0,1,
184710,1860.8,17.2,212.8,36.5,994.0,7369.0,14.0,1,
184810,1859.5,14.6,212.8,36.6,994.0,7369.0,14.0,1,
184910,1861.8,12.5,212.9,38.9,994.0,7369.0,14.0,1,
185010,1859.7,12.8,212.8,56.3,994.0,7369.0,14.0,1,
185110,1861.7,13.2,212.8,240.2,994.0,7369.0,14.0,1,
185210,1863.8,15.0,212.9,240.1,994.0,7369.0,14.0,1,
185310,1862.0,13.7,212.9,240.1,994.0,7369.0,14.0,1,
185410,1859.0,15.1,212.9,239.9,994.0,7369.0,14.0,1,
185610,1821.4,344.4,210.1,133.3,1567.0,11170.0,15.0,1,
185710,1913.2,317.9,214.4,66.3,1592.0,12124.0,14.0,1,
185810,1872.9,307.2,213.3,50.0,1472.0,10843.0,14.0,1,
185910,1851.2,226.2,211.2,37.6,1279.0,9880.0,13.0,1,
186010,1823.6,299.8,206.2,37.5,1181.0,9232.0,14.0,1,
186110,1859.6,254.7,209.5,37.2,1035.0,7846.0,15.0,1,
186210,1888.1,107.9,205.4,30.1,855.0,6946.0,14.0,1,
186310,1866.7,16.8,205.3,36.3,855.0,6946.0,14.0,1,
186410,1860.7,13.2,205.3,38.3,855.0,6946.0,14.0,1,
186610,1859.3,12.8,205.2,43.2,855.0,6946.0,14.0,1,
186710,1860.5,11.9,205.2,240.2,855.0,6946.0,14.0,1,
186810,1860.8,13.0,205.2,240.1,855.0,6946.0,14.0,1,
186910,1861.4,13.1,205.2,240.1,855.0,6946.0,14.0,1,
187010,1863.5,15.4,205.2,240.2,855.0,6946.0,14.0,1,
187110,1861.8,12.5,205.2,240.2,855.0,6946.0,14.0,1,
187210,1903.2,232.2,206.9,239.3,1614.0,11510.0,15.0,1,
187310,1808.1,293.5,203.7,67.2,1660.0,12021.0,14.0,1,
187410,1848.3,298.0,209.0,66.8,1456.0,11132.0,13.0,1,
187610,1915.0,291.4,213.1,35.7,1191.0,9076.0,13.0,1,
187710,1865.9,323.0,210.4,34.7,1068.0,8345.0,14.0,1,
187810,1851.2,153.2,212.0,36.6,909.0,7344.0,14.0,1,
187910,1843.1,17.9,212.0,30.1,909.0,7344.0,14.0,1,
188010,1859.6,13.2,212.0,36.1,909.0,7344.0,14.0,1,
188110,1861.2,13.2,212.0,38.0,909.0,7344.0,14.0,1,
188210,1860.2,13.2,212.0,38.1,909.0,7344.0,14.0,1,
188310,1861.2,13.6,212.1,239.3,909.0,7344.0,14.0,1,
188410,1858.6,14.6,212.0,240.0,909.0,7344.0,14.0,1,
188610,1860.6,14.9,212.0,239.8,909.0,7344.0,14.0,1,
188710,1859.5,15.4,211.9,239.9,909.0,7344.0,14.0,1,
188810,1857.7,99.6,211.9,239.7,909.0,7344.0,14.0,1,
188910,1837.7,342.7,208.0,65.9,1664.0,11491.0,14.0,1,
189010,1885.9,315.2,202.0,56.8,1584.0,11537.0,14.0,1,
189110,1897.7,261.9,203.8,66.0,1382.0,10832.0,14.0,1,
189210,1823.0,337.3,203.9,66.3,1183.0,8642.0,14.0,1,
189310,1847.7,204.8,201.5,34.9,1149.0,8768.0,13.0,1,
189410,1838.7,268.2,198.6,30.0,938.0,7372.0,13.0,1,
189610,1862.0,14.6,199.8,30.2,938.0,7372.0,13.0,1,
189710,1861.5,13.8,199.8,37.3,938.0,7372.0,13.0,1,
189810,1863.1,12.2,199.8,41.1,938.0,7372.0,13.0,1,
189910,1861.9,13.9,199.9,197.9,938.0,7372.0,13.0,1,
190010,1861.9,13.6,199.9,240.0,938.0,7372.0,13.0,1,
190110,1859.5,12.1,199.9,239.9,938.0,7372.0,13.0,1,
190210,1860.1,12.8,199.9,239.6,938.0,7372.0,13.0,1,
190310,1860.0,19.3,199.9,239.1,938.0,7372.0,13.0,1,
190410,1859.4,15.8,199.9,238.6,938.0,7372.0,13.0,1,
190610,1823.3,304.7,212.1,56.3,1479.0,11440.0,14.0,1,
190710,1827.5,261.9,210.2,39.8,1406.0,10840.0,14.0,1,
190810,1851.9,292.1,209.9,38.0,1254.0,9483.0,14.0,1,
190910,1883.5,283.2,211.6,40.3,1124.0,8674.0,14.0,1,
191010,1894.6,278.0,211.3,30.0,1034.0,7886.0,14.0,1,
191110,1833.4,42.7,211.7,35.3,898.0,7330.0,14.0,1,
191210,1859.3,14.7,211.7,36.9,898.0,7330.0,14.0,1,
191310,1861.9,13.2,211.7,36.0,898.0,7330.0,14.0,1,
191410,1859.9,15.3,211.6,38.2,898.0,7330.0,14.0,1,
191610,1860.7,11.7,211.6,239.9,898.0,7330.0,14.0,1,
191710,1861.2,12.4,211.6,240.0,898.0,7330.0,14.0,1,
191810,1861.9,12.3,211.7,239.8,898.0,7330.0,14.0,1,
191910,1861.6,13.6,211.7,239.8,898.0,7330.0,14.0,1,
192010,1860.1,15.8,211.7,240.0,898.0,7330.0,14.0,1,
192110,1822.2,325.9,209.3,89.8,1624.0,11988.0,15.0,1,
192210,1867.7,405.2,207.6,67.1,1554.0,11955.0,14.0,1,
192310,1886.4,321.4,208.2,66.5,1409.0,10832.0,14.0,1,
192410,1877.2,279.5,209.1,38.5,1305.0,9810.0,13.0,1,
192610,1824.9,186.4,208.4,37.7,987.0,7965.0,14.0,1,
192710,1886.9,60.0,208.3,34.6,934.0,7348.0,13.0,1,
192810,1859.0,14.8,208.2,35.7,934.0,7348.0,13.0,1,
192910,1861.4,10.7,208.2,35.9,934.0,7348.0,13.0,1,
193010,1860.7,11.8,208.2,34.6,934.0,7348.0,13.0,1,
193110,1858.0,11.7,208.1,35.3,934.0,7348.0,13.0,1,
193210,1859.2,11.7,208.1,239.8,934.0,7348.0,13.0,1,
193310,1862.4,13.5,208.1,239.7,934.0,7348.0,13.0,1,
193410,1860.0,10.5,208.1,240.2,934.0,7348.0,13.0,1,
193610,1859.8,16.0,208.1,239.8,934.0,7348.0,13.0,1,
193710,1858.3,340.5,210.4,86.5,1594.0,12266.0,14.0,1,
193810,1882.0,278.2,208.5,37.2,1604.0,11705.0,14.0,1,
193910,1850.3,262.7,203.2,66.0,1391.0,10933.0,13.0,1,
194010,1813.2,302.0,200.3,66.9,1294.0,9720.0,14.0,1,
194110,1869.6,220.7,204.4,66.8,1145.0,8574.0,13.0,1,
194210,1882.5,280.1,201.2,43.4,962.0,7806.0,14.0,1,
194310,1842.5,101.8,201.0,37.2,907.0,7321.0,14.0,1,
194410,1865.1,16.4,201.0,36.1,907.0,7321.0,14.0,1,
194610,1859.4,12.4,200.9,40.0,907.0,7321.0,14.0,1,
194710,1859.8,11.7,201.0,45.7,907.0,7321.0,14.0,1,
194810,1860.3,15.9,201.0,240.2,907.0,7321.0,14.0,1,
194910,1861.1,11.6,201.0,240.3,907.0,7321.0,14.0,1,
195010,1861.3,14.0,201.0,240.2,907.0,7321.0,14.0,1,
195110,1860.7,14.5,201.1,239.9,907.0,7321.0,14.0,1,
195210,1861.9,10.4,201.1,239.8,907.0,7321.0,14.0,1,
195310,1889.8,290.5,204.9,156.7,1528.0,10907.0,15.0,1,
195410,1814.1,327.4,204.2,29.8,1664.0,12300.0,13.0,1,
195610,1909.8,297.5,212.8,30.2,1307.0,9797.0,13.0,1,
195710,1859.2,340.0,211.6,49.3,1114.0,8065.0,14.0,1,
195810,1866.4,284.7,214.6,30.2,1012.0,7675.0,14.0,1,
195910,1830.5,165.4,213.8,35.1,862.0,6722.0,14.0,1,
196010,1861.2,21.2,213.6,37.0,862.0,6722.0,14.0,1,
196110,1860.3,14.0,213.6,36.5,862.0,6722.0,14.0,1,
196210,1860.6,15.0,213.6,37.3,862.0,6722.0,14.0,1,
196310,1862.0,13.3,213.7,41.3,862.0,6722.0,14.0,1,
196410,1860.2,12.5,213.7,240.0,862.0,6722.0,14.0,1,
196610,1861.0,13.6,213.6,240.0,862.0,6722.0,14.0,1,
196710,1857.8,12.5,213.6,240.0,862.0,6722.0,14.0,1,
196810,1859.5,12.8,213.6,239.9,862.0,6722.0,14.0,1,
196910,1838.6,162.8,211.9,239.6,862.0,6722.0,14.0,1,
197010,1895.6,391.6,220.5,66.0,1630.0,12411.0,14.0,1,
197110,1879.2,322.1,217.5,42.2,1563.0,11304.0,15.0,1,
197210,1837.9,402.3,216.3,37.4,1400.0,10349.0,13.0,1,
197310,1836.5,306.2,220.4,36.7,1235.0,9212.0,14.0,1,
197410,1853.4,233.1,220.6,36.6,1050.0,8149.0,14.0,1,
197610,1854.5,25.4,219.8,34.8,1050.0,8149.0,14.0,1,
197710,1860.3,12.3,219.8,36.6,1050.0,8149.0,14.0,1,
197810,1860.3,12.9,219.8,37.6,1050.0,8149.0,14.0,1,
197910,1860.4,14.7,219.8,40.4,1050.0,8149.0,14.0,1,
198010,1861.7,14.1,219.8,215.9,1050.0,8149.0,14.0,1,
198110,1858.5,13.4,219.8,239.9,1050.0,8149.0,14.0,1,
198210,1860.9,13.6,219.8,239.9,1050.0,8149.0,14.0,1,
198310,1861.0,13.5,219.8,240.1,1050.0,8149.0,14.0,1,
198410,1861.1,14.4,219.8,240.2,1050.0,8149.0,14.0,1,
198610,1851.5,313.2,217.1,68.3,1572.0,11708.0,15.0,1,
198710,1847.3,318.2,215.7,66.7,1518.0,11470.0,14.0,1,
198810,1834.6,321.4,213.0,66.8,1354.0,10366.0,13.0,1,
198910,1921.8,321.2,214.3,65.9,1219.0,9246.0,13.0,1,
199010,1864.1,330.1,211.4,37.6,1052.0,7819.0,14.0,1,
199110,1845.7,269.1,212.5,35.5,980.0,7756.0,14.0,1,
199210,1856.2,36.6,213.4,29.9,883.0,6970.0,14.0,1,
199310,1859.9,13.6,213.4,35.4,883.0,6970.0,14.0,1,
199410,1860.9,15.9,213.4,36.3,883.0,6970.0,14.0,1,
199610,1859.9,13.4,213.3,144.0,883.0,6970.0,14.0,1,
199710,1861.6,12.4,213.4,239.8,883.0,6970.0,14.0,1,
199810,1859.6,12.7,213.4,240.1,883.0,6970.0,14.0,1,
199910,1861.8,13.9,213.4,240.2,883.0,6970.0,14.0,1,
200010,1859.2,13.2,213.4,240.3,883.0,6970.0,14.0,1,
200110,1859.8,12.0,213.3,240.0,883.0,6970.0,14.0,1,
200210,1820.0,389.5,213.4,68.3,1566.0,11791.0,15.0,1,
200310,1890.0,378.1,213.5,65.6,1543.0,12105.0,13.0,1,
200410,1895.9,309.0,212.8,66.5,1384.0,10571.0,14.0,1,
200610,1852.9,264.1,208.2,67.4,1068.0,8384.0,14.0,1,
200710,1836.6,257.8,208.1,37.9,875.0,6958.0,14.0,1,
200810,1888.9,51.5,206.8,29.8,922.0,6707.0,15.0,1,
200910,1861.5,14.7,206.8,30.2,922.0,6707.0,15.0,1,
201010,1860.9,12.0,206.8,36.6,922.0,6707.0,15.0,1,
201110,1860.1,12.3,206.8,39.8,922.0,6707.0,15.0,1,
201210,1859.8,12.4,206.8,73.4,922.0,6707.0,15.0,1,
201310,1858.5,12.4,206.7,240.0,922.0,6707.0,15.0,1,
201410,1861.0,13.4,206.8,240.1,922.0,6707.0,15.0,1,
201610,1860.7,14.3,206.8,239.5,922.0,6707.0,15.0,1,
201710,1860.7,17.5,206.8,239.1,922.0,6707.0,15.0,1,
201810,1914.5,295.0,209.0,71.4,1586.0,12027.0,14.0,1,
201910,1813.4,320.5,206.5,35.1,1544.0,11912.0,13.0,1,
202010,1841.3,336.0,206.8,35.6,1398.0,10916.0,13.0,1,
202110,1849.3,291.2,207.7,65.5,1252.0,9652.0,14.0,1,
202210,1889.4,361.6,211.3,37.2,1067.0,8410.0,14.0,1,
202310,1885.0,267.1,210.4,29.9,943.0,7253.0,14.0,1,
202410,1826.2,83.9,210.6,34.2,908.0,6942.0,14.0,1,
202610,1861.4,12.4,210.6,36.6,908.0,6942.0,14.0,1,
202710,1860.3,11.7,210.6,38.0,908.0,6942.0,14.0,1,
202810,1859.0,13.8,210.6,51.0,908.0,6942.0,14.0,1,
202910,1862.5,12.7,210.7,240.1,908.0,6942.0,14.0,1,
203010,1858.4,14.1,210.6,240.0,908.0,6942.0,14.0,1,
203110,1861.6,14.4,210.6,239.9,908.0,6942.0,14.0,1,
203210,1861.9,13.8,210.6,240.0,908.0,6942.0,14.0,1,
203310,1860.2,16.7,210.7,239.8,908.0,6942.0,14.0,1,
203410,1840.0,233.8,209.2,105.7,1593.0,10871.0,16.0,1,
203610,1883.0,347.7,210.8,40.6,1384.0,10763.0,15.0,1,
203710,1901.8,306.8,218.8,37.5,1283.0,9454.0,13.0,1,
203810,1832.8,341.2,217.1,37.0,1162.0,8474.0,14.0,1,
203910,1839.8,220.5,211.7,29.9,1019.0,7688.0,13.0,1,
204010,1864.1,124.9,209.0,29.7,876.0,6617.0,15.0,1,
204110,1867.2,19.0,209.0,36.5,876.0,6617.0,15.0,1,
204210,1861.9,13.9,209.0,39.2,876.0,6617.0,15.0,1,
204310,1863.1,12.3,209.0,38.4,876.0,6617.0,15.0,1,
204410,1861.3,10.7,209.1,41.1,876.0,6617.0,15.0,1,
204610,1859.3,10.9,209.1,240.0,876.0,6617.0,15.0,1,
204710,1862.3,13.5,209.1,239.6,876.0,6617.0,15.0,1,
204810,1860.9,14.0,209.1,239.7,876.0,6617.0,15.0,1,
204910,1862.4,12.6,209.1,239.8,876.0,6617.0,15.0,1,
205010,1853.5,224.2,209.0,239.7,1555.0,11276.0,16.0,1,
205110,1894.5,374.3,208.6,66.5,1544.0,11967.0,13.0,1,
205210,1843.0,291.1,214.8,65.9,1446.0,11361.0,14.0,1,
205310,1813.5,327.8,207.8,40.0,1390.0,9847.0,14.0,1,
205410,1865.6,264.9,204.7,36.1,1176.0,8953.0,14.0,1,
205610,1890.5,187.6,207.7,37.1,940.0,6861.0,13.0,1,
205710,1841.3,23.3,207.6,35.1,940.0,6861.0,13.0,1,
205810,1859.7,15.4,207.6,36.0,940.0,6861.0,13.0,1,
205910,1861.4,11.7,207.6,35.6,940.0,6861.0,13.0,1,
206010,1858.8,11.6,207.5,34.5,940.0,6861.0,13.0,1,
206110,1859.5,12.1,207.5,232.3,940.0,6861.0,13.0,1,
206210,1860.4,12.8,207.5,240.2,940.0,6861.0,13.0,1,
206310,1861.1,12.3,207.5,240.3,940.0,6861.0,13.0,1,
206410,1859.8,11.4,207.4,240.0,940.0,6861.0,13.0,1,
206610,1861.2,110.8,207.4,239.8,940.0,6861.0,13.0,1,
206710,1821.4,370.0,206.7,37.8,1696.0,11998.0,14.0,1,
206810,1869.7,376.8,208.0,37.0,1489.0,11208.0,13.0,1,
206910,1889.7,310.3,207.8,65.8,1296.0,9834.0,14.0,1,
207010,1871.0,339.0,208.8,37.4,1155.0,8298.0,13.0,1,
207110,1863.9,289.2,209.3,34.4,987.0,7777.0,14.0,1,
