Time(ms),Raw_ADC
0,1993
1,1949
2,1866
3,1859
4,1862
5,1854
6,1840
7,1835
8,1835
9,1839
10,581
11,1682
12,2320
13,2211
14,2231
15,2364
16,1189
17,1299
18,1873
19,1837
20,1808
21,1818
22,1761
23,1678
24,1781
25,1919
26,1980
27,1994
28,2008
29,2007
30,2000
31,1988
32,1964
33,1926
34,1906
35,1882
36,1860
37,1845
38,1851
39,1856
40,1846
41,742
42,1510
43,2286
44,2191
45,2151
46,2347
47,1351
48,1262
49,1924
50,1884
51,1863
52,1829
53,1719
54,1652
55,1760
56,1904
57,1969
58,1989
59,2005
60,2004
61,2001
62,1969
63,1942
64,1923
65,1903
66,1898
67,1890
68,1881
69,1860
70,1854
71,1838
72,1522
73,1324
74,2222
75,2219
76,2083
77,2288
78,1511
79,1136
80,1907
81,1920
82,1866
83,1853
84,1802
85,1735
86,1792
87,1923
88,1984
89,2000
90,2003
91,2003
92,1991
93,1965
94,1920
95,1905
96,1900
97,1888
98,1879
99,1872
100,1870
101,1862
102,1857
103,2213
104,1072
105,2102
106,2284
107,2094
108,2250
109,1744
110,1002
111,1835
112,1882
113,1803
114,1813
115,1806
116,1766
117,1789
118,1924
119,1991
120,2007
121,2016
122,2011
123,1994
124,1968
125,1936
126,1911
127,1889
128,1872
129,1866
130,1865
131,1857
132,1857
133,1859
134,1936
135,976
136,2062
137,2341
138,2137
139,2286
140,1872
141,943
142,1769
143,1870
144,1810
145,1809
146,1775
147,1722
148,1744
149,1891
150,1984
151,2015
152,2028
153,2014
154,1988
155,1973
156,1943
157,1921
158,1919
159,1907
160,1889
161,1839
162,1839
163,1849
164,1853
165,1849
166,690
167,1883
168,2352
169,2122
170,2192
171,2118
172,931
173,1670
174,1866
175,1773
176,1783
177,1794
178,1767
179,1776
180,1882
181,1973
182,2008
183,2029
184,2045
185,2043
186,2011
187,1970
188,1915
189,1838
190,1852
191,1857
192,1843
193,1840
194,1835
195,1845
196,1847
197,631
198,1809
199,2368
200,2151
201,2186
202,2186
203,946
204,1639
205,1899
206,1780
207,1776
208,1783
209,1747
210,1756
211,1862
212,1968
213,2015
214,2010
215,2000
216,1983
217,1981
218,2001
219,1969
220,1907
221,1889
222,1877
223,1856
224,1847
225,1840
226,1843
227,1840
228,624
229,1612
230,2326
231,2206
232,2170
233,2293
234,1113
235,1431
236,1861
237,1792
238,1774
239,1787
240,1785
241,1775
242,1830
243,1936
244,1991
245,2006
246,2032
247,2043
248,2034
249,2014
250,1970
251,1897
252,1869
253,1854
254,1847
255,1841
256,1833
257,1830
258,1830
259,1834
260,1840
261,1847
262,1847
263,1850
264,1854
265,1866
266,1867
267,1863
268,1865
269,1858
270,1859
271,1851
272,1845
273,1842
274,1838
275,1841
276,1852
277,1861
278,1867
279,1859
280,1872
281,1872
282,1867
283,1865
284,1865
285,1870
286,1858
287,1862
288,1858
289,1856
290,1857
291,1855
292,1856
293,1846
294,1850
295,1851
296,1850
297,1855
298,1867
299,1868
300,1872
301,1868
302,1870
303,1869
304,1861
305,1855
306,1847
307,1847
308,1842
309,1847
310,1848
311,1859
312,1866
313,1871
314,1881
315,1873
316,1872
317,1878
318,1874
319,1867
320,1857
321,1847
322,1851
323,1838
324,1840
325,1840
326,1846
327,1855
328,1855
329,1862
330,1872
331,1876
332,1874
333,1874
334,1879
335,1885
336,1863
337,1866
338,1858
339,1845
340,1850
341,1849
342,1847
343,1846
344,1856
345,1863
346,1870
347,1870
348,1875
349,1876
350,1882
351,1885
352,1883
353,1856
354,1855
355,1849
356,1842
357,1840
358,1840
359,1855
360,1855
361,1863
362,1869
363,1874
364,1873
365,1872
366,1871
367,1871
368,1874
369,1871
370,1863
371,1857
372,1837
373,1847
374,1856
375,1845
376,1856
377,1877
378,1872
379,1837
380,1824
381,1885
382,1898
383,1887
384,1879
385,1889
386,1875
387,1848
388,1799
389,1803
390,1808
391,1819
392,1893
393,1931
394,1887
395,1885
396,1890
397,1882
398,1879
399,1895
400,1897
401,1889
402,1882
403,1869
404,1860
405,1850
406,1842
407,1841
408,1843
409,1846
410,1853
411,1869
412,1870
413,1861
414,1863
415,1869
416,1869
417,1872
418,1878
419,1872
420,1859
421,1857
422,1844
423,1840
424,1851
425,1851
426,1851
427,1857
428,1862
429,1866
430,1872
431,1871
432,1878
433,1882
434,1891
435,1887
436,1867
437,1859
438,1851
439,1851
440,1846
441,1840
442,1840
443,1848
444,1855
445,1856
446,1867
447,1863
448,1870
449,1871
450,1871
451,1883
452,1886
453,1872
454,1865
455,1860
456,1849
457,1843
458,1847
459,1854
460,1849
461,1862
462,1869
463,1862
464,1872
465,1875
466,1881
467,1883
468,1887
469,1879
470,1872
471,1859
472,1855
473,1840
474,1840
475,1844
476,1850
477,1856
478,1859
479,1869
480,1872
481,1874
482,1875
483,1875
484,1877
485,1884
486,1867
487,1865
488,1858
489,1840
490,1842
491,1839
492,1839
493,1840
494,1853
495,1868
496,1861
497,1890
498,1903
499,1899
500,1903
501,1890
502,1872
503,1856
504,1857
505,1845
506,1846
507,1840
508,1837
509,1854
510,1870
511,1871
512,1857
513,1859
514,1873
515,1885
516,1877
517,1875
518,1882
519,1872
520,1861
521,1858
522,1854
523,1847
524,1845
525,1845
526,1847
527,1853
528,1858
529,1866
530,1867
531,1871
532,1875
533,1869
534,1873
535,1871
536,1858
537,1856
538,1855
539,1850
540,1843
541,1847
542,1849
543,1853
544,1854
545,1860
546,1860
547,1868
548,1875
549,1872
550,1872
551,1881
552,1875
553,1863
554,1855
555,1855
556,1849
557,1846
558,1843
559,1856
560,1854
561,1858
562,1871
563,1861
564,1863
565,1869
566,1866
567,1872
568,1872
569,1877
570,1863
571,1859
572,1855
573,1842
574,1840
575,1840
576,1850
577,1851
578,1853
579,1858
580,1858
581,1856
582,1849
583,1854
584,1859
585,1872
586,1883
587,1888
588,1867
589,1856
590,1859
591,1858
592,1856
593,1853
594,1850
595,1859
596,1872
597,1871
598,1873
599,1872
600,1871
601,1873
602,1878
603,1866
604,1857
605,1855
606,1856
607,1852
608,1846
609,1849
610,1850
611,1851
612,1859
613,1860
614,1866
615,1871
616,1868
617,1874
618,1872
619,1872
620,1857
621,1851
622,1845
623,1840
624,1841
625,1839
626,1843
627,1846
628,1853
629,1861
630,1869
631,1872
632,1874
633,1873
634,1878
635,1876
636,1864
637,1867
638,1855
639,1842
640,1846
641,1843
642,1849
643,1851
644,1858
645,1866
646,1867
647,1871
648,1872
649,1872
650,1871
651,1877
652,1873
653,1858
654,1854
655,1845
656,1842
657,1843
658,1840
659,1852
660,1851
661,1858
662,1859
663,1869
664,1872
665,1870
666,1872
667,1872
668,1871
669,1863
670,1860
671,1871
672,1859
673,1846
674,1851
675,1841
676,1849
677,1852
678,1856
679,1867
680,1867
681,1891
682,1898
683,1882
684,1881
685,1877
686,1870
687,1863
688,1856
689,1840
690,1839
691,1831
692,1837
693,1846
694,1859
695,1869
696,1872
697,1872
698,1874
699,1874
700,1872
701,1887
702,1891
703,1874
704,1864
705,1854
706,1846
707,1850
708,1847
709,1847
710,1850
711,1854
712,1858
713,1852
714,1857
715,1869
716,1869
717,1868
718,1874
719,1875
720,1865
721,1857
722,1850
723,1849
724,1843
725,1841
726,1856
727,1854
728,1855
729,1870
730,1869
731,1875
732,1872
733,1874
734,1874
735,1874
736,1872
737,1862
738,1855
739,1854
740,1845
741,1840
742,1840
743,1845
744,1850
745,1854
746,1858
747,1861
748,1872
749,1875
750,1872
751,1878
752,1876
753,1872
754,1857
755,1851
756,1851
757,1845
758,1845
759,1845
760,1856
761,1857
762,1862
763,1870
764,1871
765,1873
766,1873
767,1873
768,1878
769,1869
770,1866
771,1856
772,1855
773,1841
774,1840
775,1843
776,1845
777,1845
778,1856
779,1856
780,1858
781,1875
782,1874
783,1872
784,1877
785,1872
786,1866
787,1857
788,1858
789,1851
790,1845
791,1842
792,1842
793,1852
794,1854
795,1869
796,1875
797,1879
798,1879
799,1877
800,1874
801,1882
802,1883
803,1853
804,1840
805,1842
806,1840
807,1841
808,1853
809,1858
810,1863
811,1863
812,1871
813,1866
814,1867
815,1874
816,1874
817,1872
818,1875
819,1872
820,1861
821,1856
822,1855
823,1844
824,1844
825,1847
826,1850
827,1853
828,1856
829,1869
830,1871
831,1875
832,1872
833,1871
834,1872
835,1873
836,1865
837,1856
838,1853
839,1851
840,1844
841,1845
842,1847
843,1854
844,1851
845,1860
846,1863
847,1872
848,1871
849,1873
850,1877
851,1876
852,1878
853,1872
854,1856
855,1856
856,1853
857,1843
858,1847
859,1847
860,1853
861,1856
862,1859
863,1856
864,1859
865,1871
866,1871
867,1871
868,1874
869,1872
870,1867
871,1860
872,1856
873,1846
874,1846
875,1843
876,1856
877,1853
878,1863
879,1869
880,1871
881,1875
882,1872
883,1874
884,1877
885,1875
886,1869
887,1863
888,1856
889,1860
890,1847
891,1842
892,1851
893,1847
894,1844
895,1857
896,1865
897,1863
898,1873
899,1873
900,1875
901,1876
902,1879
903,1863
904,1864
905,1856
906,1847
907,1846
908,1846
909,1852
910,1851
911,1863
912,1865
913,1861
914,1872
915,1873
916,1872
917,1871
918,1863
919,1857
920,1854
921,1852
922,1852
923,1846
924,1849
925,1844
926,1842
927,1845
928,1856
929,1864
930,1872
931,1875
932,1872
933,1873
934,1880
935,1878
936,1873
937,1872
938,1857
939,1856
940,1847
941,1845
942,1847
943,1850
944,1856
945,1857
946,1865
947,1868
948,1874
949,1873
950,1875
951,1872
952,1878
953,1859
954,1857
955,1855
956,1843
957,1841
958,1838
959,1852
960,1857
961,1862
962,1867
963,1861
964,1873
965,1872
966,1872
967,1875
968,1875
969,1874
970,1863
971,1856
972,1855
973,1851
974,1846
975,1846
976,1851
977,1853
978,1861
979,1857
980,1862
981,1871
982,1867
983,1865
984,1872
985,1873
986,1871
987,1866
988,1856
989,1844
990,1845
991,1843
992,1847
993,1854
994,1856
995,1872
996,1869
997,1872
998,1874
999,1873
1000,1881
1001,1886
1002,1885
1003,1869
1004,1861
1005,1857
1006,1850
1007,1850
1008,1847
1009,1853
1010,1854
1011,1855
1012,1867
1013,1860
1014,1862
1015,1867
1016,1867
1017,1866
1018,1877
1019,1875
1020,1868
1021,1861
1022,1855
1023,1849
1024,1846
1025,1845
1026,1846
1027,1856
1028,1861
1029,1858
1030,1861
1031,1869
1032,1872
1033,1874
1034,1875
1035,1878
1036,1872
1037,1863
1038,1855
1039,1851
1040,1847
1041,1840
1042,1840
1043,1850
1044,1853
1045,1856
1046,1857
1047,1872
1048,1867
1049,1867
1050,1867
1051,1874
1052,1877
1053,1870
1054,1866
1055,1857
1056,1847
1057,1845
1058,1843
1059,1842
1060,1854
1061,1862
1062,1861
1063,1867
1064,1871
1065,1873
1066,1872
1067,1875
1068,1878
1069,1875
1070,1872
1071,1866
1072,1853
1073,1840
1074,1840
1075,1840
1076,1840
1077,1849
1078,1856
1079,1859
1080,1863
1081,1866
1082,1871
1083,1874
1084,1879
1085,1883
1086,1873
1087,1865
1088,1855
1089,1853
1090,1847
1091,1849
1092,1842
1093,1854
1094,1851
1095,1861
1096,1868
1097,1871
1098,1875
1099,1874
1100,1875
1101,1876
1102,1873
1103,1859
1104,1857
1105,1856
1106,1845
1107,1841
1108,1845
1109,1853
1110,1851
1111,1857
1112,1859
1113,1872
1114,1872
1115,1872
1116,1865
1117,1872
1118,1879
1119,1872
1120,1868
1121,1855
1122,1857
1123,1847
1124,1844
1125,1842
1126,1853
1127,1847
1128,1869
1129,1865
1130,1872
1131,1874
1132,1874
1133,1869
1134,1870
1135,1871
1136,1869
1137,1858
1138,1847
1139,1847
1140,1846
1141,1850
1142,1847
1143,1850
1144,1856
1145,1856
1146,1865
1147,1865
1148,1877
1149,1873
1150,1872
1151,1876
1152,1877
1153,1863
1154,1862
1155,1865
1156,1857
1157,1847
1158,1845
1159,1853
1160,1855
1161,1861
1162,1863
1163,1858
1164,1863
1165,1872
1166,1870
1167,1871
1168,1871
1169,1873
1170,1870
1171,1856
1172,1852
1173,1853
1174,1843
1175,1848
1176,1855
1177,1850
1178,1857
1179,1869
1180,1869
1181,1870
1182,1873
1183,1872
1184,1877
1185,1877
1186,1871
1187,1867
1188,1858
1189,1854
1190,1847
1191,1849
1192,1853
1193,1844
1194,1846
1195,1851
1196,1863
1197,1861
1198,1871
1199,1872
1200,1873
1201,1872
1202,1875
1203,1865
1204,1858
1205,1856
1206,1851
1207,1844
1208,1850
1209,1847
1210,1853
1211,1854
1212,1859
1213,1863
1214,1865
1215,1872
1216,1872
1217,1874
1218,1872
1219,1868
1220,1862
1221,1852
1222,1842
1223,1848
1224,1842
1225,1840
1226,1843
1227,1853
1228,1855
1229,1858
1230,1869
1231,1873
1232,1878
1233,1875
1234,1877
1235,1879
1236,1870
1237,1862
1238,1853
1239,1846
1240,1848
1241,1845
1242,1845
1243,1853
1244,1857
1245,1862
1246,1871
1247,1870
1248,1871
1249,1872
1250,1876
1251,1888
1252,1875
1253,1861
1254,1861
1255,2127
1256,1177
1257,1850
1258,1760
1259,1535
1260,1378
1261,1279
1262,1231
1263,1345
1264,1759
1265,2394
1266,2655
1267,2559
1268,2277
1269,2092
1270,2038
1271,2047
1272,2037
1273,2009
1274,1975
1275,1955
1276,1939
1277,1922
1278,1922
1279,1920
1280,1961
1281,1994
1282,1962
1283,1901
1284,1872
1285,1855
1286,1706
1287,974
1288,1783
1289,1753
1290,1500
1291,1300
1292,1179
1293,1088
1294,1314
1295,1970
1296,2706
1297,2704
1298,2289
1299,2023
1300,1998
1301,2079
1302,2085
1303,2061
1304,2022
1305,1993
1306,1962
1307,1937
1308,1920
1309,1910
1310,1891
1311,1871
1312,1855
1313,1837
1314,1830
1315,1830
1316,1835
1317,1814
1318,845
1319,1790
1320,1902
1321,1690
1322,1518
1323,1394
1324,1216
1325,1348
1326,2107
1327,2706
1328,2379
1329,2021
1330,1875
1331,1861
1332,1982
1333,2038
1334,2043
1335,2038
1336,2009
1337,1981
1338,1959
1339,1925
1340,1906
1341,1879
1342,1862
1343,1855
1344,1842
1345,1840
1346,1840
1347,1835
1348,1837
1349,655
1350,1683
1351,2057
1352,1839
1353,1685
1354,1622
1355,1390
1356,1264
1357,2035
1358,2496
1359,2139
1360,1877
1361,1814
1362,1845
1363,1904
1364,1975
1365,2031
1366,2038
1367,2021
1368,2007
1369,1989
1370,1965
1371,1949
1372,1917
1373,1878
1374,1859
1375,1847
1376,1837
1377,1835
1378,1844
1379,1841
1380,770
1381,1561
1382,2132
1383,1875
1384,1707
1385,1714
1386,1564
1387,1168
1388,2017
1389,2512
1390,2103
1391,1887
1392,1833
1393,1735
1394,1787
1395,1938
1396,2013
1397,2032
1398,2017
1399,2009
1400,2000
1401,1982
1402,1967
1403,1931
1404,1904
1405,1888
1406,1858
1407,1843
1408,1833
1409,1830
1410,1835
1411,1040
1412,1441
1413,2173
1414,2011
1415,1844
1416,1850
1417,1704
1418,1129
1419,1999
1420,2363
1421,2059
1422,1885
1423,1766
1424,1622
1425,1663
1426,1856
1427,1986
1428,2021
1429,2019
1430,2021
1431,2013
1432,1998
1433,1967
1434,1937
1435,1918
1436,1890
1437,1872
1438,1861
1439,1847
1440,1847
1441,1840
1442,2005
1443,1264
1444,2138
1445,2172
1446,2000
1447,2061
1448,1898
1449,1023
1450,1727
1451,2161
1452,1994
1453,1890
1454,1842
1455,1619
1456,1619
1457,1833
1458,1959
1459,1996
1460,2001
1461,2006
1462,1990
1463,1971
1464,1948
1465,1937
1466,1920
1467,1907
1468,1892
1469,1876
1470,1867
1471,1856
1472,1842
1473,2015
1474,979
1475,2021
1476,2275
1477,2126
1478,2190
1479,2087
1480,1010
1481,1535
1482,2074
1483,1950
1484,1893
1485,1814
1486,1618
1487,1591
1488,1793
1489,1937
1490,1983
1491,1994
1492,2000
1493,1989
1494,1974
1495,1959
1496,1936
1497,1929
1498,1922
1499,1910
1500,1889
1501,1878
1502,1867
1503,1859
1504,1722
1505,768
1506,1919
1507,2268
1508,1999
1509,2060
1510,2113
1511,1079
1512,1623
1513,2094
1514,1892
1515,1840
1516,1846
1517,1761
1518,1706
1519,1824
1520,1938
1521,1983
1522,1995
1523,1984
1524,1966
1525,1953
1526,1946
1527,1936
1528,1929
1529,1921
1530,1921
1531,1894
1532,1831
1533,1840
1534,1853
1535,1855
1536,602
1537,1804
1538,2289
1539,1977
1540,2005
1541,2176
1542,1168
1543,1584
1544,2068
1545,1900
1546,1866
1547,1840
1548,1719
1549,1675
1550,1827
1551,1949
1552,2000
1553,2000
1554,2000
1555,1987
1556,1979
1557,1951
1558,1917
1559,1905
1560,1889
1561,1874
1562,1872
1563,1872
1564,1867
1565,1865
1566,1862
1567,589
1568,1691
1569,2319
1570,2175
1571,2192
1572,2338
1573,1213
1574,1250
1575,1887
1576,1826
1577,1823
1578,1815
1579,1741
1580,1687
1581,1814
1582,1946
1583,1990
1584,2003
1585,2011
1586,1998
1587,1970
1588,1961
1589,1947
1590,1911
1591,1893
1592,1873
1593,1861
1594,1857
1595,1856
1596,1856
1597,1847
1598,816
1599,1533
1600,2286
1601,2206
1602,2203
1603,2389
1604,1424
1605,1195
1606,1827
1607,1791
1608,1790
1609,1803
1610,1740
1611,1739
1612,1821
1613,1931
1614,1979
1615,2000
1616,2009
1617,2013
1618,2009
1619,1987
1620,1952
1621,1904
1622,1887
1623,1859
1624,1837
1625,1834
1626,1831
1627,1840
1628,1846
1629,1203
1630,1439
1631,2256
1632,2111
1633,2001
1634,2288
1635,1520
1636,1329
1637,1936
1638,1855
1639,1807
1640,1804
1641,1776
1642,1763
1643,1820
1644,1920
1645,1985
1646,2009
1647,2011
1648,2003
1649,1984
1650,1969
1651,1953
1652,1930
1653,1893
1654,1889
1655,1878
1656,1858
1657,1840
1658,1835
1659,1834
1660,2188
1661,1239
1662,2161
1663,2154
1664,1955
1665,2223
1666,1679
1667,1233
1668,1975
1669,1920
1670,1871
1671,1856
1672,1751
1673,1696
1674,1767
1675,1898
1676,1968
1677,1985
1678,2000
1679,2011
1680,2000
1681,1991
1682,1958
1683,1926
1684,1906
1685,1903
1686,1881
1687,1862
1688,1847
1689,1845
1690,1834
1691,2093
1692,1037
1693,2061
1694,2303
1695,2174
1696,2362
1697,1830
1698,925
1699,1743
1700,1838
1701,1799
1702,1825
1703,1808
1704,1766
1705,1783
1706,1884
1707,1957
1708,1991
1709,2000
1710,1993
1711,1979
1712,1962
1713,1958
1714,1947
1715,1921
1716,1899
1717,1882
1718,1876
1719,1872
1720,1857
1721,1845
1722,1750
1723,752
1724,1884
1725,2314
1726,2158
1727,2288
1728,2063
1729,867
1730,1649
1731,1847
1732,1801
1733,1798
1734,1808
1735,1808
1736,1811
1737,1884
1738,1964
1739,1999
1740,1998
1741,1991
1742,1980
1743,1985
1744,1999
1745,1953
1746,1883
1747,1887
1748,1876
1749,1862
1750,1862
1751,1861
1752,1863
1753,1856
1754,659
1755,1818
1756,2310
1757,2067
1758,2139
1759,2085
1760,985
1761,1732
1762,1879
1763,1777
1764,1792
1765,1809
1766,1803
1767,1808
1768,1890
1769,1962
1770,1995
1771,2011
1772,2006
1773,2005
1774,1984
1775,1949
1776,1918
1777,1891
1778,1882
1779,1871
1780,1862
1781,1856
1782,1856
1783,1858
1784,1861
1785,602
1786,1711
1787,2335
1788,2107
1789,2116
1790,2213
1791,1034
1792,1615
1793,1889
1794,1805
1795,1807
1796,1805
1797,1744
1798,1775
1799,1876
1800,1968
1801,2014
1802,2023
1803,2017
1804,1999
1805,1984
1806,1959
1807,1913
1808,1888
1809,1871
1810,1863
1811,1856
1812,1854
1813,1846
1814,1853
1815,1853
1816,887
1817,1515
1818,2285
1819,2285
1820,2263
1821,2365
1822,1118
1823,1229
1824,1808
1825,1770
1826,1763
1827,1782
1828,1787
1829,1793
1830,1857
1831,1951
1832,1998
1833,2020
1834,2028
1835,2013
1836,1991
1837,1970
1838,1939
1839,1909
1840,1887
1841,1872
1842,1861
1843,1854
1844,1846
1845,1851
1846,1845
1847,1776
1848,1351
1849,2211
1850,2255
1851,2169
1852,2352
1853,1326
1854,1200
1855,1851
1856,1813
1857,1783
1858,1780
1859,1761
1860,1761
1861,1814
1862,1921
1863,1996
1864,2011
1865,2036
1866,2030
1867,2018
1868,2000
1869,1959
1870,1918
1871,1893
1872,1874
1873,1861
1874,1847
1875,1840
1876,1836
1877,1831
1878,1843
1879,1851
1880,1849
1881,1856
1882,1865
1883,1856
1884,1862
1885,1866
1886,1862
1887,1855
1888,1853
1889,1851
1890,1842
1891,1839
1892,1835
1893,1841
1894,1844
1895,1859
1896,1862
1897,1862
1898,1876
1899,1872
1900,1872
1901,1873
1902,1873
1903,1863
1904,1863
1905,1860
1906,1851
1907,1847
1908,1844
1909,1845
1910,1851
1911,1858
1912,1856
1913,1851
1914,1852
1915,1863
1916,1859
1917,1859
1918,1879
1919,1877
1920,1863
1921,1865
1922,1853
1923,1840
1924,1840
1925,1840
1926,1841
1927,1847
1928,1850
1929,1857
1930,1872
1931,1878
1932,1882
1933,1875
1934,1873
1935,1874
1936,1869
1937,1865
1938,1854
1939,1850
1940,1847
1941,1835
1942,1836
1943,1841
1944,1847
1945,1857
1946,1863
1947,1867
1948,1870
1949,1862
1950,1858
1951,1870
1952,1876
1953,1871
1954,1872
1955,1871
1956,1858
1957,1846
1958,1845
1959,1845
1960,1849
1961,1853
1962,1859
1963,1866
1964,1872
1965,1872
1966,1872
1967,1876
1968,1875
1969,1883
1970,1867
1971,1862
1972,1856
1973,1847
1974,1842
1975,1839
1976,1840
1977,1844
1978,1871
1979,1872
1980,1869
1981,1868
1982,1876
1983,1875
1984,1881
1985,1881
1986,1874
1987,1872
1988,1861
1989,1855
1990,1844
1991,1849
1992,1847
1993,1854
1994,1853
1995,1858
1996,1867
1997,1867
1998,1866
1999,1874
2000,1885
2001,1885
2002,1883
2003,1862
2004,1859
2005,1854
2006,1851
2007,1840
2008,1851
2009,1856
2010,1856
2011,1861
2012,1869
2013,1859
2014,1872
2015,1873
2016,1858
2017,1874
2018,1877
2019,1877
2020,1869
2021,1863
2022,1855
2023,1847
2024,1853
2025,1856
2026,1852
2027,1850
2028,1849
2029,1855
2030,1859
2031,1872
2032,1878
2033,1885
2034,1881
2035,1883
2036,1884
2037,1866
2038,1859
2039,1855
2040,1854
2041,1850
2042,1851
2043,1854
2044,1858
2045,1860
2046,1866
2047,1872
2048,1873
2049,1877
2050,1882
2051,1878
2052,1879
2053,1867
2054,1867
2055,1857
2056,1857
2057,1837
2058,1837
2059,1872
2060,1878
2061,1872
2062,1871
2063,1872
2064,1872
2065,1867
2066,1870
2067,1872
2068,1874
2069,1888
2070,1872
2071,1863
2072,1856
2073,1854
2074,1853
2075,1856
2076,1851
2077,1857
2078,1861
2079,1863
2080,1872
2081,1869
2082,1874
2083,1883
2084,1879
2085,1883
2086,1881
2087,1869
2088,1867
2089,1856
2090,1850
2091,1847
2092,1849
2093,1845
2094,1850
2095,1853
2096,1859
2097,1859
2098,1873
2099,1872
2100,1876
2101,1879
2102,1883
2103,1874
2104,1869
2105,1857
2106,1853
2107,1850
2108,1850
2109,1849
2110,1851
2111,1856
2112,1857
2113,1867
2114,1869
2115,1871
2116,1873
2117,1873
2118,1874
2119,1875
2120,1872
2121,1858
2122,1852
2123,1847
2124,1843
2125,1843
2126,1841
2127,1851
2128,1849
2129,1856
2130,1870
2131,1869
2132,1874
2133,1882
2134,1875
2135,1885
2136,1878
2137,1871
2138,1855
2139,1859
2140,1855
2141,1850
2142,1843
2143,1855
2144,1856
2145,1855
2146,1862
2147,1869
2148,1872
2149,1875
2150,1877
2151,1877
2152,1875
2153,1866
2154,1866
2155,1849
2156,1853
2157,1841
2158,1843
2159,1847
2160,1850
2161,1855
2162,1863
2163,1877
2164,1874
2165,1872
2166,1874
2167,1877
2168,1884
2169,1875
2170,1870
2171,1861
2172,1851
2173,1855
2174,1847
2175,1847
2176,1845
2177,1854
2178,1858
2179,1869
2180,1867
2181,1872
2182,1872
2183,1871
2184,1872
2185,1873
2186,1867
2187,1865
2188,1861
2189,1853
2190,1845
2191,1843
2192,1845
2193,1849
2194,1856
2195,1855
2196,1871
2197,1871
2198,1870
2199,1872
2200,1872
2201,1872
2202,1879
2203,1872
2204,1862
2205,1857
2206,1855
2207,1846
2208,1845
2209,1846
2210,1849
2211,1856
2212,1863
2213,1856
2214,1858
2215,1869
2216,1863
2217,1863
2218,1876
2219,1872
2220,1862
2221,1856
2222,1849
2223,1849
2224,1842
2225,1843
2226,1855
2227,1856
2228,1863
2229,1866
2230,1872
2231,1873
2232,1872
2233,1875
2234,1873
2235,1877
2236,1877
2237,1868
2238,1863
2239,1853
2240,1847
2241,1840
2242,1840
2243,1845
2244,1851
2245,1857
2246,1862
2247,1861
2248,1859
2249,1863
2250,1866
2251,1872
2252,1874
2253,1868
2254,1872
2255,1856
2256,1849
2257,1841
2258,1847
2259,1844
2260,1847
2261,1853
2262,1856
2263,1861
2264,1870
2265,1872
2266,1872
2267,1874
2268,1878
2269,1873
2270,1866
2271,1865
2272,1854
2273,1845
2274,1840
2275,1840
2276,1846
2277,1842
2278,1857
2279,1859
2280,1863
2281,1869
2282,1874
2283,1876
2284,1874
2285,1881
2286,1882
2287,1862
2288,1855
2289,1851
2290,1843
2291,1841
2292,1842
2293,1847
2294,1851
2295,1858
2296,1862
2297,1863
2298,1867
2299,1875
2300,1872
2301,1872
2302,1879
2303,1866
2304,1856
2305,1854
2306,1845
2307,1837
2308,1843
2309,1847
2310,1853
2311,1850
2312,1856
2313,1863
2314,1869
2315,1870
2316,1872
2317,1872
2318,1875
2319,1870
2320,1863
2321,1857
2322,1856
2323,1851
2324,1849
2325,1847
2326,1850
2327,1853
2328,1856
2329,1862
2330,1871
2331,1871
2332,1867
2333,1867
2334,1869
2335,1874
2336,1871
2337,1858
2338,1849
2339,1854
2340,1845
2341,1850
2342,1843
2343,1850
2344,1855
2345,1860
2346,1868
2347,1863
2348,1870
2349,1872
2350,1872
2351,1873
2352,1878
2353,1871
2354,1863
2355,1862
2356,1859
2357,1849
2358,1843
2359,1844
2360,1849
2361,1851
2362,1859
2363,1854
2364,1863
2365,1862
2366,1867
2367,1867
2368,1872
2369,1876
2370,1872
2371,1870
2372,1857
2373,1845
2374,1845
2375,1848
2376,1851
2377,1855
2378,1855
2379,1856
2380,1858
2381,1868
2382,1873
2383,1874
2384,1875
2385,1873
2386,1877
2387,1869
2388,1856
2389,1850
2390,1847
2391,1846
2392,1845
2393,1843
2394,1843
2395,1856
2396,1853
2397,1857
2398,1870
2399,1872
2400,1872
2401,1874
2402,1877
2403,1874
2404,1866
2405,1855
2406,1856
2407,1847
2408,1841
2409,1844
2410,1849
2411,1849
2412,1859
2413,1862
2414,1868
2415,1869
2416,1871
2417,1872
2418,1870
2419,1872
2420,1858
2421,1860
2422,1849
2423,1845
2424,1840
2425,1842
2426,1840
2427,1845
2428,1846
2429,1861
2430,1868
2431,1870
2432,1875
2433,1873
2434,1872
2435,1878
2436,1874
2437,1871
2438,1855
2439,1860
2440,1849
2441,1849
2442,1846
2443,1851
2444,1850
2445,1859
2446,1861
2447,1867
2448,1866
2449,1872
2450,1873
2451,1873
2452,1879
2453,1870
2454,1863
2455,1850
2456,1846
2457,1840
2458,1840
2459,1843
2460,1853
2461,1850
2462,1865
2463,1869
2464,1872
2465,1870
2466,1872
2467,1872
2468,1873
2469,1878
2470,1871
2471,1872
2472,1859
2473,1856
2474,1842
2475,1844
2476,1846
2477,1852
2478,1854
2479,1863
2480,1867
2481,1871
2482,1872
2483,1871
2484,1870
2485,1874
2486,1875
2487,1856
2488,1858
2489,1856
2490,1845
2491,1840
2492,1846
2493,1850
2494,1850
2495,1861
2496,1866
2497,1866
2498,1863
2499,1871
2500,1872
2501,1877
2502,1877
2503,1877
2504,1863
2505,1862
2506,1849
2507,1849
2508,1845
2509,1845
2510,1844
2511,1856
2512,1859
2513,1854
2514,1865
2515,1863
2516,1869
2517,1872
2518,1875
2519,1873
2520,1866
2521,1858
2522,1853
2523,1849
2524,1847
2525,1846
2526,1849
2527,1854
2528,1856
2529,1861
2530,1868
2531,1870
2532,1873
2533,1873
2534,1874
2535,1881
2536,1872
2537,1863
2538,1861
2539,1853
2540,1854
2541,1840
2542,1840
2543,1847
2544,1850
2545,1853
2546,1857
2547,1858
2548,1863
2549,1872
2550,1871
2551,1877
2552,1873
2553,1877
2554,1863
2555,1856
2556,1856
2557,1843
2558,1845
2559,1842
2560,1853
2561,1855
2562,1861
2563,1866
2564,1863
2565,1870
2566,1872
2567,1874
2568,1875
2569,1875
2570,1872
2571,1861
2572,1853
2573,1844
2574,1842
2575,1840
2576,1842
2577,1854
2578,1856
2579,1869
2580,1869
2581,1872
2582,1873
2583,1877
2584,1874
2585,1882
2586,1873
2587,1871
2588,1859
2589,1858
2590,1846
2591,1847
2592,1845
2593,1845
2594,1851
2595,1861
2596,1865
2597,1863
2598,1875
2599,1874
2600,1872
2601,1875
2602,1875
2603,1870
2604,1863
2605,1855
2606,1851
2607,1838
2608,1843
2609,1841
2610,1852
2611,1847
2612,1862
2613,1867
2614,1866
2615,1873
2616,1875
2617,1872
2618,1867
2619,1876
2620,1871
2621,1863
2622,1858
2623,1852
2624,1849
2625,1846
2626,1847
2627,1849
2628,1858
2629,1855
2630,1867
2631,1867
2632,1873
2633,1869
2634,1871
2635,1871
2636,1874
2637,1857
2638,1851
2639,1853
2640,1849
2641,1843
2642,1851
2643,1847
2644,1855
2645,1857
2646,1857
2647,1872
2648,1870
2649,1873
2650,1873
2651,1871
2652,1877
2653,1877
2654,1870
2655,1863
2656,1847
2657,1846
2658,1847
2659,1845
2660,1854
2661,1849
2662,1859
2663,1855
2664,1859
2665,1872
2666,1870
2667,1871
2668,1872
2669,1868
2670,1870
2671,1869
2672,1856
2673,1845
2674,1847
2675,1845
2676,1843
2677,1851
2678,1854
2679,1856
2680,1868
2681,1863
2682,1872
2683,1873
2684,1874
2685,1883
2686,1874
2687,1870
2688,1860
2689,1857
2690,1854
2691,1844
2692,1845
2693,1843
2694,1845
2695,1846
2696,1857
2697,1858
2698,1873
2699,1872
2700,1872
2701,1875
2702,1876
2703,1874
2704,1872
2705,1860
2706,1859
2707,1850
2708,1843
2709,1845
2710,1849
2711,1855
2712,1856
2713,1862
2714,1871
2715,1875
2716,1872
2717,1872
2718,1870
2719,1869
2720,1869
2721,1854
2722,1855
2723,1849
2724,1840
2725,1840
2726,1842
2727,1850
2728,1849
2729,1858
2730,1867
2731,1863
2732,1869
2733,1872
2734,1872
2735,1872
2736,1877
2737,1873
2738,1862
2739,1859
2740,1841
2741,1844
2742,1849
2743,1851
2744,1855
2745,1859
2746,1865
2747,1863
2748,1870
2749,1875
2750,1877
2751,1879
2752,1879
2753,1863
2754,1865
2755,1853
2756,1846
2757,1845
2758,1840
2759,1845
2760,1850
2761,1852
2762,1858
2763,1865
2764,1867
2765,1874
2766,1870
2767,1872
2768,1872
2769,1877
2770,1872
2771,1865
2772,1859
2773,1855
2774,1847
2775,1846
2776,1847
2777,1847
2778,1856
2779,1859
2780,1867
2781,1865
2782,1870
2783,1863
2784,1867
2785,1870
2786,1871
2787,1857
2788,1859
2789,1857
2790,1855
2791,1851
2792,1844
2793,1847
2794,1850
2795,1857
2796,1857
2797,1868
2798,1869
2799,1872
2800,1875
2801,1872
2802,1878
2803,1872
2804,1864
2805,1851
2806,1848
2807,1843
2808,1843
2809,1845
2810,1849
2811,1852
2812,1862
2813,1856
2814,1861
2815,1863
2816,1869
2817,1867
2818,1876
2819,1875
2820,1870
2821,1856
2822,1856
2823,1847
2824,1853
2825,1853
2826,1853
2827,1856
2828,1859
2829,1856
2830,1865
2831,1862
2832,1872
2833,1874
2834,1872
2835,1877
2836,1883
2837,1875
2838,1869
2839,1861
2840,1851
2841,1842
2842,1840
2843,1840
2844,1844
2845,1852
2846,1856
2847,1869
2848,1871
2849,1867
2850,1867
2851,1872
2852,1882
2853,1870
2854,1859
2855,1864
2856,1853
2857,1843
2858,1840
2859,1842
2860,1845
2861,1860
2862,1862
2863,1861
2864,1859
2865,1861
2866,1862
2867,1863
2868,1870
2869,1873
2870,1863
2871,1867
2872,1866
2873,1863
2874,1723
2875,1003
2876,1809
2877,1798
2878,1567
2879,1409
2880,1314
2881,1227
2882,1282
2883,1643
2884,2244
2885,2656
2886,2622
2887,2339
2888,2112
2889,2005
2890,2006
2891,2026
2892,2023
2893,2006
2894,1995
2895,1975
2896,1969
2897,1948
2898,1931
2899,1942
2900,1968
2901,1947
2902,1904
2903,1870
2904,1843
2905,1835
2906,816
2907,1712
2908,1771
2909,1469
2910,1281
2911,1177
2912,1099
2913,1247
2914,1840
2915,2664
2916,2811
2917,2366
2918,2037
2919,1970
2920,2047
2921,2095
2922,2059
2923,2027
2924,2000
2925,1980
2926,1955
2927,1936
2928,1920
2929,1899
2930,1890
2931,1871
2932,1859
2933,1842
2934,1837
2935,1836
2936,1840
2937,714
2938,1639
2939,1866
2940,1499
2941,1344
2942,1325
2943,1237
2944,1344
2945,2059
2946,2886
2947,2559
2948,2106
2949,1909
2950,1879
2951,1964
2952,2035
2953,2055
2954,2020
2955,1999
2956,1969
2957,1953
2958,1937
2959,1919
2960,1895
2961,1875
2962,1865
2963,1844
2964,1837
2965,1836
2966,1840
2967,1840
2968,833
2969,1535
2970,2023
2971,1690
2972,1505
2973,1519
2974,1418
2975,1299
2976,1965
2977,2676
2978,2258
2979,1951
2980,1862
2981,1874
2982,1926
2983,1987
2984,2028
2985,2043
2986,2022
2987,1980
2988,1972
2989,1955
2990,1929
2991,1907
2992,1879
2993,1866
2994,1855
2995,1847
2996,1843
2997,1840
2998,1843
2999,1515
3000,1399
3001,2126
3002,2030
3003,1842
3004,1847
3005,1757
3006,1224
3007,1696
3008,2291
3009,2079
3010,1895
3011,1810
3012,1665
3013,1655
3014,1835
3015,1982
3016,2019
3017,2021
3018,2006
3019,2001
3020,1978
3021,1962
3022,1957
3023,1904
3024,1872
3025,1858
3026,1845
3027,1843
3028,1840
3029,1840
3030,2256
3031,1152
3032,2077
3033,2203
3034,2000
3035,2000
3036,1941
3037,1152
3038,1456
3039,2131
3040,2032
3041,1906
3042,1850
3043,1680
3044,1628
3045,1799
3046,1963
3047,2013
3048,2019
3049,2018
3050,2018
3051,2003
3052,1995
3053,1951
3054,1919
3055,1893
3056,1872
3057,1850
3058,1842
3059,1840
3060,1840
3061,1975
3062,1006
3063,2021
3064,2286
3065,2090
3066,2131
3067,2110
3068,1136
3069,1463
3070,2101
3071,1997
3072,1890
3073,1821
3074,1581
3075,1488
3076,1726
3077,1918
3078,1984
3079,2000
3080,2005
3081,2006
3082,2002
3083,2000
3084,1972
3085,1949
3086,1923
3087,1875
3088,1863
3089,1843
3090,1842
3091,1840
3092,1727
3093,780
3094,1918
3095,2304
3096,2096
3097,2145
3098,2219
3099,1163
3100,1345
3101,2021
3102,1935
3103,1847
3104,1835
3105,1709
3106,1648
3107,1779
3108,1921
3109,1977
3110,1990
3111,1997
3112,1997
3113,1991
3114,1981
3115,1950
3116,1925
3117,1907
3118,1903
3119,1888
3120,1872
3121,1861
3122,1851
3123,1840
3124,566
3125,1742
3126,2335
3127,2237
3128,2279
3129,2389
3130,1268
3131,1125
3132,1860
3133,1863
3134,1840
3135,1840
3136,1694
3137,1618
3138,1775
3139,1917
3140,1966
3141,1966
3142,1977
3143,1981
3144,1973
3145,1971
3146,1950
3147,1929
3148,1915
3149,1911
3150,1894
3151,1890
3152,1884
3153,1872
3154,1857
3155,626
3156,1612
3157,2276
3158,2151
3159,2157
3160,2352
3161,1373
3162,1147
3163,1856
3164,1830
3165,1809
3166,1825
3167,1793
3168,1760
3169,1847
3170,1943
3171,1990
3172,2003
3173,2001
3174,1987
3175,1979
3176,1952
3177,1910
3178,1903
3179,1885
3180,1882
3181,1869
3182,1877
3183,1873
3184,1872
3185,1867
3186,1057
3187,1472
3188,2225
3189,1969
3190,1873
3191,2219
3192,1616
3193,1357
3194,1991
3195,1877
3196,1839
3197,1847
3198,1809
3199,1774
3200,1840
3201,1938
3202,1997
3203,2006
3204,1999
3205,1990
3206,1973
3207,1935
3208,1920
3209,1890
3210,1872
3211,1857
3212,1858
3213,1854
3214,1856
3215,1854
3216,1861
3217,2055
3218,1328
3219,2186
3220,2159
3221,2007
3222,2283
3223,1726
3224,1131
3225,1890
3226,1872
3227,1831
3228,1846
3229,1731
3230,1678
3231,1788
3232,1926
3233,1982
3234,2001
3235,2017
3236,2016
3237,1991
3238,1970
3239,1936
3240,1916
3241,1890
3242,1872
3243,1865
3244,1859
3245,1853
3246,1846
3247,1851
3248,2206
3249,1133
3250,2096
3251,2235
3252,2027
3253,2243
3254,1833
3255,1021
3256,1828
3257,1846
3258,1781
3259,1794
3260,1797
3261,1779
3262,1831
3263,1921
3264,1994
3265,2001
3266,2017
3267,2021
3268,2010
3269,1993
3270,1968
3271,1925
3272,1893
3273,1876
3274,1863
3275,1846
3276,1840
3277,1840
3278,1840
3279,1879
3280,993
3281,2015
3282,2318
3283,2155
3284,2320
3285,1890
3286,893
3287,1741
3288,1867
3289,1807
3290,1806
3291,1758
3292,1721
3293,1773
3294,1884
3295,1957
3296,1990
3297,2011
3298,2025
3299,2027
3300,2000
3301,1971
3302,1948
3303,1914
3304,1893
3305,1872
3306,1856
3307,1840
3308,1840
3309,1837
3310,1839
3311,718
3312,1841
3313,2350
3314,2140
3315,2229
3316,2087
3317,867
3318,1669
3319,1897
3320,1817
3321,1811
3322,1785
3323,1741
3324,1778
3325,1872
3326,1947
3327,1983
3328,1991
3329,2008
3330,2001
3331,1999
3332,1975
3333,1950
3334,1927
3335,1904
3336,1893
3337,1872
3338,1865
3339,1852
3340,1839
3341,1831
3342,596
3343,1712
3344,2322
3345,2227
3346,2263
3347,2201
3348,857
3349,1511
3350,1875
3351,1783
3352,1795
3353,1805
3354,1805
3355,1795
3356,1866
3357,1933
3358,1968
3359,1985
3360,2007
3361,2009
3362,2003
3363,1977
3364,1922
3365,1914
3366,1904
3367,1890
3368,1877
3369,1872
3370,1858
3371,1843
3372,1838
3373,689
3374,1570
3375,2271
3376,2186
3377,2142
3378,2256
3379,1015
3380,1469
3381,1874
3382,1806
3383,1789
3384,1808
3385,1810
3386,1822
3387,1869
3388,1952
3389,1979
3390,1995
3391,1998
3392,1993
3393,1975
3394,1955
3395,1920
3396,1904
3397,1905
3398,1892
3399,1882
3400,1872
3401,1870
3402,1867
3403,1863
3404,953
3405,1474
3406,2244
3407,2257
3408,2257
3409,2351
3410,1072
3411,1236
3412,1813
3413,1779
3414,1775
3415,1783
3416,1788
3417,1817
3418,1879
3419,1957
3420,2000
3421,2018
3422,2022
3423,2014
3424,2000
3425,1974
3426,1931
3427,1924
3428,1900
3429,1863
3430,1839
3431,1856
3432,1862
3433,1859
3434,1851
3435,2211
3436,1274
3437,2153
3438,2219
3439,2112
3440,2322
3441,1417
3442,1189
3443,1840
3444,1793
3445,1771
3446,1786
3447,1791
3448,1808
3449,1863
3450,1935
3451,1995
3452,2018
3453,2017
3454,2013
3455,1997
3456,1973
3457,1934
3458,1907
3459,1883
3460,1862
3461,1861
3462,1865
3463,1856
3464,1847
3465,1851
3466,2139
3467,1095
3468,2077
3469,2263
3470,2097
3471,2282
3472,1634
3473,1122
3474,1856
3475,1839
3476,1783
3477,1797
3478,1778
3479,1776
3480,1839
3481,1926
3482,1982
3483,2000
3484,2022
3485,2023
3486,2019
3487,1985
3488,1959
3489,1921
3490,1886
3491,1871
3492,1855
3493,1845
3494,1841
3495,1840
3496,1843
3497,1849
3498,1850
3499,1855
3500,1859
3501,1858
3502,1868
3503,1860
3504,1850
3505,1846
3506,1845
3507,1839
3508,1840
3509,1838
3510,1840
3511,1845
3512,1847
3513,1856
3514,1858
3515,1861
3516,1869
3517,1872
3518,1879
3519,1886
3520,1872
3521,1864
3522,1862
3523,1853
3524,1840
3525,1845
3526,1853
3527,1855
3528,1851
3529,1856
3530,1863
3531,1862
3532,1863
3533,1859
3534,1863
3535,1863
3536,1866
3537,1857
3538,1843
3539,1847
3540,1849
3541,1847
3542,1848
3543,1853
3544,1859
3545,1865
3546,1867
3547,1867
3548,1862
3549,1870
3550,1866
3551,1871
3552,1877
3553,1879
3554,1872
3555,1866
3556,1856
3557,1853
3558,1845
3559,1847
3560,1853
3561,1856
3562,1858
3563,1854
3564,1862
3565,1859
3566,1863
3567,1867
3568,1868
3569,1871
3570,1871
3571,1867
3572,1861
3573,1855
3574,1850
3575,1851
3576,1847
3577,1851
3578,1856
3579,1856
3580,1859
3581,1872
3582,1873
3583,1876
3584,1872
3585,1874
3586,1877
3587,1873
3588,1868
3589,1866
3590,1859
3591,1846
3592,1850
3593,1842
3594,1853
3595,1858
3596,1856
3597,1872
3598,1870
3599,1873
3600,1878
3601,1875
3602,1881
3603,1882
3604,1863
3605,1860
3606,1855
3607,1840
3608,1849
3609,1847
3610,1858
3611,1866
3612,1862
3613,1862
3614,1872
3615,1873
3616,1878
3617,1877
3618,1874
3619,1878
3620,1871
3621,1871
3622,1857
3623,1849
3624,1844
3625,1847
3626,1840
3627,1846
3628,1843
3629,1858
3630,1865
3631,1872
3632,1875
3633,1875
3634,1875
3635,1879
3636,1883
3637,1875
3638,1871
3639,1852
3640,1852
3641,1840
3642,1846
3643,1853
3644,1850
3645,1853
3646,1861
3647,1872
3648,1886
3649,1887
3650,1893
3651,1887
3652,1885
3653,1876
3654,1867
3655,1868
3656,1858
3657,1855
3658,1851
3659,1846
3660,1858
3661,1856
3662,1867
3663,1867
3664,1872
3665,1874
3666,1875
3667,1879
3668,1876
3669,1883
3670,1875
3671,1873
3672,1861
3673,1858
3674,1850
3675,1854
3676,1849
3677,1851
3678,1857
3679,1869
3680,1872
3681,1873
3682,1878
3683,1873
3684,1873
3685,1876
3686,1882
3687,1873
3688,1872
3689,1859
3690,1859
3691,1851
3692,1851
3693,1853
3694,1855
3695,1863
3696,1867
3697,1866
3698,1874
3699,1873
3700,1879
3701,1879
3702,1878
3703,1885
3704,1877
3705,1870
3706,1865
3707,1853
3708,1852
3709,1851
3710,1853
3711,1855
3712,1856
3713,1856
3714,1863
3715,1864
3716,1870
3717,1872
3718,1881
3719,1885
3720,1873
3721,1866
3722,1863
3723,1859
3724,1854
3725,1854
3726,1852
3727,1850
3728,1859
3729,1857
3730,1861
3731,1868
3732,1869
3733,1878
3734,1877
3735,1876
3736,1882
3737,1874
3738,1867
3739,1859
3740,1855
3741,1844
3742,1841
3743,1845
3744,1847
3745,1850
3746,1856
3747,1862
3748,1871
3749,1871
3750,1873
3751,1874
3752,1875
3753,1877
3754,1866
3755,1862
3756,1859
3757,1856
3758,1851
3759,1848
3760,1855
3761,1851
3762,1861
3763,1858
3764,1873
3765,1873
3766,1873
3767,1874
3768,1877
3769,1881
3770,1879
3771,1866
3772,1867
3773,1853
3774,1842
3775,1845
3776,1840
3777,1841
3778,1858
3779,1863
3780,1870
3781,1875
3782,1871
3783,1873
3784,1875
3785,1877
3786,1882
3787,1872
3788,1872
3789,1856
3790,1857
3791,1855
3792,1852
3793,1849
3794,1853
3795,1856
3796,1856
3797,1870
3798,1866
3799,1872
3800,1875
3801,1877
3802,1875
3803,1877
3804,1870
3805,1858
3806,1856
3807,1842
3808,1843
3809,1847
3810,1850
3811,1850
3812,1857
3813,1859
3814,1862
3815,1872
3816,1876
3817,1874
3818,1874
3819,1879
3820,1878
3821,1866
3822,1859
3823,1849
3824,1847
3825,1846
3826,1843
3827,1847
3828,1850
3829,1856
3830,1861
3831,1871
3832,1875
3833,1872
3834,1870
3835,1872
3836,1872
3837,1869
3838,1865
3839,1854
3840,1847
3841,1846
3842,1847
3843,1851
3844,1852
3845,1851
3846,1863
3847,1866
3848,1866
3849,1872
3850,1872
3851,1875
3852,1879
3853,1879
3854,1873
3855,1857
3856,1854
3857,1853
3858,1846
3859,1849
3860,1847
3861,1855
3862,1856
3863,1857
3864,1867
3865,1861
3866,1867
3867,1867
3868,1870
3869,1879
3870,1873
3871,1872
3872,1859
3873,1860
3874,1854
3875,1847
3876,1845
3877,1849
3878,1855
3879,1858
3880,1860
3881,1872
3882,1871
3883,1874
3884,1874
3885,1872
3886,1877
3887,1869
3888,1867
3889,1861
3890,1855
3891,1853
3892,1846
3893,1840
3894,1843
3895,1846
3896,1851
3897,1856
3898,1870
3899,1869
3900,1872
3901,1873
3902,1873
3903,1879
3904,1871
3905,1857
3906,1855
3907,1851
3908,1847
3909,1844
3910,1847
3911,1850
3912,1855
3913,1856
3914,1863
3915,1865
3916,1871
3917,1872
3918,1871
3919,1872
3920,1867
3921,1854
3922,1853
3923,1851
3924,1847
3925,1840
3926,1839
3927,1846
3928,1847
3929,1849
3930,1863
3931,1868
3932,1872
3933,1874
3934,1875
3935,1876
3936,1877
3937,1873
3938,1863
3939,1866
3940,1853
3941,1835
3942,1841
3943,1842
3944,1847
3945,1850
3946,1860
3947,1870
3948,1872
3949,1872
3950,1874
3951,1877
3952,1882
3953,1877
3954,1863
3955,1859
3956,1853
3957,1845
3958,1842
3959,1843
3960,1847
3961,1856
3962,1850
3963,1866
3964,1866
3965,1872
3966,1869
3967,1872
3968,1872
3969,1875
3970,1875
3971,1865
3972,1855
3973,1853
3974,1846
3975,1849
3976,1845
3977,1845
3978,1856
3979,1859
3980,1870
3981,1869
3982,1868
3983,1869
3984,1867
3985,1868
3986,1872
3987,1872
3988,1864
3989,1865
3990,1858
3991,1849
3992,1845
3993,1845
3994,1849
3995,1847
3996,1862
3997,1864
3998,1868
3999,1871
4000,1872
4001,1875
4002,1871
4003,1877
4004,1872
4005,1867
4006,1859
4007,1847
4008,1845
4009,1843
4010,1844
4011,1850
4012,1855
4013,1856
4014,1861
4015,1865
4016,1871
4017,1870
4018,1872
4019,1875
4020,1877
4021,1867
4022,1857
4023,1853
4024,1852
4025,1842
4026,1841
4027,1843
4028,1849
4029,1863
4030,1867
4031,1865
4032,1869
4033,1875
4034,1872
4035,1872
4036,1873
4037,1866
4038,1863
4039,1863
4040,1853
4041,1841
4042,1840
4043,1841
4044,1841
4045,1844
4046,1857
4047,1856
4048,1856
4049,1870
4050,1865
4051,1875
4052,1873
4053,1879
4054,1870
4055,1860
4056,1858
4057,1854
4058,1843
4059,1845
4060,1845
4061,1853
4062,1858
4063,1867
4064,1871
4065,1872
4066,1872
4067,1873
4068,1875
4069,1879
4070,1873
4071,1866
4072,1861
4073,1851
4074,1840
4075,1840
4076,1840
4077,1848
4078,1845
4079,1861
4080,1867
4081,1863
4082,1872
4083,1872
4084,1872
4085,1873
4086,1875
4087,1876
4088,1872
4089,1862
4090,1853
4091,1849
4092,1846
4093,1843
4094,1850
4095,1855
4096,1861
4097,1866
4098,1871
4099,1870
4100,1873
4101,1873
4102,1878
4103,1872
4104,1870
4105,1858
4106,1847
4107,1850
4108,1847
4109,1845
4110,1848
4111,1852
4112,1853
4113,1865
4114,1868
4115,1870
4116,1874
4117,1872
4118,1874
4119,1878
4120,1879
4121,1871
4122,1858
4123,1856
4124,1855
4125,1847
4126,1847
4127,1855
4128,1846
4129,1861
4130,1863
4131,1871
4132,1872
4133,1867
4134,1869
4135,1869
4136,1872
4137,1871
4138,1863
4139,1852
4140,1852
4141,1849
4142,1842
4143,1843
4144,1853
4145,1855
4146,1865
4147,1869
4148,1872
4149,1871
4150,1872
4151,1875
4152,1873
4153,1879
4154,1871
4155,1863
4156,1857
4157,1847
4158,1847
4159,1848
4160,1849
4161,1856
4162,1856
4163,1857
4164,1861
4165,1869
4166,1867
4167,1872
4168,1871
4169,1879
4170,1875
4171,1870
4172,1863
4173,1856
4174,1854
4175,1843
4176,1845
4177,1853
4178,1853
4179,1868
4180,1859
4181,1871
4182,1874
4183,1876
4184,1872
4185,1875
4186,1877
4187,1875
4188,1865
4189,1855
4190,1850
4191,1851
4192,1847
4193,1840
4194,1841
4195,1846
4196,1851
4197,1859
4198,1871
4199,1876
4200,1873
4201,1874
4202,1874
4203,1872
4204,1875
4205,1863
4206,1859
4207,1851
4208,1844
4209,1845
4210,1847
4211,1853
4212,1854
4213,1856
4214,1863
4215,1868
4216,1877
4217,1872
4218,1868
4219,1867
4220,1873
4221,1863
4222,1855
4223,1845
4224,1847
4225,1840
4226,1840
4227,1846
4228,1840
4229,1852
4230,1867
4231,1865
4232,1869
4233,1873
4234,1872
4235,1873
4236,1881
4237,1877
4238,1863
4239,1859
4240,1856
4241,1845
4242,1845
4243,1845
4244,1847
4245,1850
4246,1858
4247,1868
4248,1863
4249,1874
4250,1874
4251,1875
4252,1878
4253,1872
4254,1863
4255,1853
4256,1851
4257,1842
4258,1840
4259,1849
4260,1845
4261,1855
4262,1856
4263,1857
4264,1859
4265,1872
4266,1872
4267,1873
4268,1873
4269,1883
4270,1875
4271,1863
4272,1865
4273,1856
4274,1847
4275,1849
4276,1845
4277,1850
4278,1856
4279,1858
4280,1865
4281,1863
4282,1871
4283,1866
4284,1872
4285,1869
4286,1872
4287,1872
4288,1871
4289,1859
4290,1857
4291,1856
4292,1850
4293,1847
4294,1846
4295,1845
4296,1858
4297,1867
4298,1870
4299,1875
4300,1872
4301,1873
4302,1871
4303,1879
4304,1869
4305,1862
4306,1857
4307,1855
4308,1847
4309,1846
4310,1851
4311,1851
4312,1853
4313,1857
4314,1861
4315,1861
4316,1867
4317,1867
4318,1872
4319,1871
4320,1882
4321,1870
4322,1866
4323,1858
4324,1851
4325,1849
4326,1846
4327,1852
4328,1851
4329,1855
4330,1857
4331,1867
4332,1868
4333,1872
4334,1873
4335,1873
4336,1877
4337,1872
4338,1869
4339,1859
4340,1856
4341,1842
4342,1839
4343,1840
4344,1847
4345,1842
4346,1857
4347,1860
4348,1861
4349,1872
4350,1868
4351,1874
4352,1876
4353,1875
4354,1870
4355,1860
4356,1862
4357,1854
4358,1847
4359,1847
4360,1843
4361,1856
4362,1855
4363,1855
4364,1870
4365,1869
4366,1871
4367,1872
4368,1874
4369,1884
4370,1872
4371,1872
4372,1863
4373,1850
4374,1840
4375,1839
4376,1840
4377,1842
4378,1847
4379,1861
4380,1861
4381,1872
4382,1863
4383,1872
4384,1874
4385,1873
4386,1877
4387,1873
4388,1869
4389,1859
4390,1853
4391,1846
4392,1851
4393,1847
4394,1842
4395,1853
4396,1865
4397,1859
4398,1863
4399,1872
4400,1872
4401,1875
4402,1872
4403,1874
4404,1857
4405,1856
4406,1850
4407,1849
4408,1850
4409,1847
4410,1847
4411,1853
4412,1859
4413,1859
4414,1862
4415,1869
4416,1869
4417,1874
4418,1874
4419,1879
4420,1879
4421,1872
4422,1858
4423,1855
4424,1853
4425,1851
4426,1849
4427,1853
4428,1851
4429,1856
4430,1863
4431,1865
4432,1873
4433,1866
4434,1869
4435,1872
4436,1872
4437,1872
4438,1870
4439,1854
4440,1858
4441,1840
4442,1847
4443,1847
4444,1849
4445,1853
4446,1861
4447,1862
4448,1865
4449,1871
4450,1872
4451,1874
4452,1874
4453,1875
4454,1875
4455,1867
4456,1860
4457,1856
4458,1849
4459,1850
4460,1846
4461,1853
4462,1856
4463,1851
4464,1869
4465,1857
4466,1867
4467,1871
4468,1871
4469,1871
4470,1882
4471,1872
4472,1861
4473,1856
4474,1853
4475,1849
4476,1845
4477,1847
4478,1855
4479,1861
4480,1865
4481,1864
4482,1866
4483,1872
4484,1872
4485,1877
4486,1882
4487,1879
4488,1871
4489,1862
4490,1856
4491,1848
4492,1847
4493,1845
4494,849
4495,1696
4496,1862
4497,1635
4498,1445
4499,1342
4500,1227
4501,1208
4502,1464
4503,1962
4504,2586
4505,2729
4506,2493
4507,2192
4508,2039
4509,2010
4510,2030
4511,2027
4512,2015
4513,2009
4514,1996
4515,1985
4516,1968
4517,1949
4518,1936
4519,1936
4520,1922
4521,1898
4522,1883
4523,1849
4524,1824
4525,814
4526,1600
4527,1836
4528,1616
4529,1425
4530,1275
4531,1136
4532,1131
4533,1535
4534,2343
4535,2847
4536,2497
4537,2103
4538,1938
4539,1995
4540,2057
4541,2034
4542,2026
4543,2013
4544,1995
4545,1973
4546,1955
4547,1939
4548,1906
4549,1891
4550,1882
4551,1881
4552,1869
4553,1855
4554,1836
4555,1825
4556,1104
4557,1463
4558,1920
4559,1710
4560,1535
4561,1453
4562,1306
4563,1232
4564,1697
4565,2606
4566,2626
4567,2169
4568,1929
4569,1874
4570,1931
4571,1994
4572,2017
4573,2005
4574,1987
4575,1965
4576,1955
4577,1937
4578,1935
4579,1925
4580,1903
4581,1877
4582,1867
4583,1854
4584,1845
4585,1845
4586,1841
4587,2183
4588,1254
4589,1979
4590,1765
4591,1495
4592,1533
4593,1499
4594,1360
4595,1644
4596,2638
4597,2454
4598,2019
4599,1857
4600,1835
4601,1845
4602,1919
4603,2006
4604,2029
4605,2025
4606,1995
4607,1987
4608,1963
4609,1945
4610,1921
4611,1904
4612,1885
4613,1871
4614,1857
4615,1852
4616,1839
4617,1846
4618,2073
4619,1091
4620,1994
4621,2061
4622,1797
4623,1808
4624,1804
4625,1385
4626,1374
4627,2265
4628,2188
4629,1956
4630,1872
4631,1744
4632,1662
4633,1802
4634,1952
4635,2014
4636,2032
4637,2023
4638,2016
4639,2000
4640,1978
4641,1951
4642,1904
4643,1887
4644,1874
4645,1859
4646,1851
4647,1852
4648,1843
4649,1707
4650,869
4651,1923
4652,2246
4653,2032
4654,2016
4655,2018
4656,1424
4657,1267
4658,2087
4659,2079
4660,1923
4661,1846
4662,1674
4663,1503
4664,1664
4665,1898
4666,1987
4667,2015
4668,2033
4669,2037
4670,2037
4671,2007
4672,1967
4673,1895
4674,1857
4675,1859
4676,1845
4677,1840
4678,1851
4679,1853
4680,1856
4681,678
4682,1840
4683,2326
4684,2160
4685,2125
4686,2192
4687,1467
4688,1115
4689,1983
4690,2019
4691,1904
4692,1856
4693,1686
4694,1513
4695,1646
4696,1861
4697,1971
4698,2011
4699,2023
4700,2027
4701,2021
4702,2003
4703,1961
4704,1919
4705,1887
4706,1892
4707,1884
4708,1878
4709,1856
4710,1850
4711,1845
4712,576
4713,1687
4714,2335
4715,2287
4716,2274
4717,2358
4718,1535
4719,954
4720,1810
4721,1941
4722,1879
4723,1860
4724,1707
4725,1486
4726,1616
4727,1833
4728,1943
4729,1982
4730,2000
4731,2018
4732,2014
4733,2013
4734,1985
4735,1957
4736,1935
4737,1911
4738,1879
4739,1867
4740,1857
4741,1845
4742,1840
4743,752
4744,1535
4745,2271
4746,2257
4747,2225
4748,2417
4749,1686
4750,875
4751,1731
4752,1855
4753,1817
4754,1833
4755,1789
4756,1725
4757,1759
4758,1867
4759,1935
4760,1961
4761,1981
4762,2000
4763,2003
4764,2000
4765,1984
4766,1913
4767,1886
4768,1894
4769,1902
4770,1889
4771,1865
4772,1854
4773,1845
4774,1360
4775,1386
4776,2154
4777,2036
4778,1953
4779,2254
4780,1874
4781,1129
4782,1867
4783,1881
4784,1834
4785,1856
4786,1839
4787,1789
4788,1822
4789,1907
4790,1963
4791,1979
4792,1986
4793,2002
4794,2002
4795,1984
4796,1949
4797,1861
4798,1878
4799,1882
4800,1882
4801,1872
4802,1872
4803,1872
4804,1868
4805,2289
4806,1232
4807,2099
4808,2211
4809,2127
4810,2321
4811,1928
4812,913
4813,1695
4814,1829
4815,1810
4816,1845
4817,1779
4818,1689
4819,1751
4820,1895
4821,1963
4822,1990
4823,1997
4824,1994
4825,1989
4826,1975
4827,1951
4828,1922
4829,1904
4830,1891
4831,1888
4832,1873
4833,1872
4834,1866
4835,1867
4836,2014
4837,1044
4838,2032
4839,2227
4840,1968
4841,2125
4842,1934
4843,944
4844,1772
4845,1904
4846,1810
4847,1817
4848,1807
4849,1807
4850,1841
4851,1931
4852,1997
4853,2023
4854,2021
4855,2022
4856,2005
4857,1979
4858,1943
4859,1906
4860,1888
4861,1877
4862,1870
4863,1872
4864,1860
4865,1855
4866,1853
4867,1744
4868,901
4869,1970
4870,2336
4871,2173
4872,2288
4873,1999
4874,767
4875,1613
4876,1889
4877,1839
4878,1836
4879,1770
4880,1689
4881,1766
4882,1883
4883,1966
4884,2004
4885,2027
4886,2036
4887,2023
4888,1999
4889,1972
4890,1931
4891,1897
4892,1877
4893,1866
4894,1856
4895,1843
4896,1845
4897,1846
4898,1855
4899,704
4900,1810
4901,2348
4902,2197
4903,2275
4904,2198
4905,833
4906,1456
4907,1839
4908,1776
4909,1757
4910,1773
4911,1790
4912,1819
4913,1898
4914,1965
4915,2005
4916,2019
4917,2028
4918,2027
4919,2005
4920,1986
4921,1945
4922,1919
4923,1890
4924,1868
4925,1845
4926,1837
4927,1829
4928,1833
4929,1837
4930,642
4931,1680
4932,2323
4933,2203
4934,2237
4935,2311
4936,1023
4937,1467
4938,1872
4939,1792
4940,1788
4941,1755
4942,1693
4943,1731
4944,1828
4945,1920
4946,1979
4947,2001
4948,2010
4949,2020
4950,2005
4951,1996
4952,1978
4953,1950
4954,1921
4955,1872
4956,1859
4957,1845
4958,1831
4959,1825
4960,1822
4961,866
4962,1511
4963,2259
4964,2219
4965,2195
4966,2353
4967,1154
4968,1291
4969,1855
4970,1777
4971,1761
4972,1775
4973,1798
4974,1820
4975,1859
4976,1925
4977,1968
4978,1989
4979,2014
4980,2009
4981,1999
4982,1993
4983,1968
4984,1945
4985,1921
4986,1913
4987,1902
4988,1872
4989,1845
4990,1835
4991,1815
4992,1616
4993,1339
4994,2177
4995,2183
4996,2031
4997,2222
4998,1307
4999,1323
5000,1966
5001,1877
5002,1830
5003,1829
5004,1783
5005,1793
5006,1857
5007,1935
5008,1967
5009,1980
5010,1993
5011,2000
5012,1988
5013,1968
5014,1957
5015,1930
5016,1903
5017,1885
5018,1883
5019,1884
5020,1881
5021,1855
5022,1847
5023,2323
5024,1173
5025,2086
5026,2275
5027,2157
5028,2361
5029,1535
5030,983
5031,1776
5032,1814
5033,1776
5034,1783
5035,1807
5036,1840
5037,1885
5038,1941
5039,1979
5040,1997
5041,1997
5042,2022
5043,2016
5044,1997
5045,1934
5046,1872
5047,1881
5048,1889
5049,1872
5050,1872
5051,1869
5052,1861
5053,1872
5054,2098
5055,1065
5056,2031
5057,2343
5058,2243
5059,2393
5060,1641
5061,879
5062,1727
5063,1779
5064,1742
5065,1770
5066,1757
5067,1763
5068,1837
5069,1936
5070,2013
5071,2032
5072,2023
5073,2026
5074,2004
5075,1972
5076,1936
5077,1914
5078,1903
5079,1881
5080,1844
5081,1856
5082,1866
5083,1871
5084,1870
5085,1787
5086,841
5087,1910
5088,2288
5089,2084
5090,2239
5091,1979
5092,923
5093,1718
5094,1808
5095,1718
5096,1753
5097,1782
5098,1824
5099,1872
5100,1937
5101,1991
5102,2022
5103,2038
5104,2034
5105,2017
5106,1990
5107,1963
5108,1931
5109,1896
5110,1874
5111,1840
5112,1845
5113,1847
5114,1847
5115,1847
5116,1856
5117,1854
5118,1849
5119,1845
5120,1854
5121,1847
5122,1840
5123,1839
5124,1829
5125,1834
5126,1837
5127,1834
5128,1840
5129,1841
5130,1856
5131,1861
5132,1866
5133,1869
5134,1872
5135,1868
5136,1872
5137,1874
5138,1862
5139,1856
5140,1853
5141,1841
5142,1841
5143,1841
5144,1850
5145,1855
5146,1863
5147,1872
5148,1871
5149,1867
5150,1872
5151,1872
5152,1867
5153,1861
5154,1857
5155,1847
5156,1843
5157,1840
5158,1826
5159,1831
5160,1849
5161,1843
5162,1861
5163,1863
5164,1865
5165,1858
5166,1858
5167,1871
5168,1881
5169,1881
5170,1876
5171,1863
5172,1862
5173,1849
5174,1854
5175,1843
5176,1842
5177,1846
5178,1855
5179,1857
5180,1861
5181,1863
5182,1872
5183,1869
5184,1866
5185,1862
5186,1872
5187,1863
5188,1863
5189,1870
5190,1862
5191,1856
5192,1849
5193,1845
5194,1846
5195,1856
5196,1859
5197,1865
5198,1863
5199,1872
5200,1872
5201,1875
5202,1873
5203,1877
5204,1875
5205,1859
5206,1854
5207,1847
5208,1840
5209,1851
5210,1853
5211,1849
5212,1853
5213,1854
5214,1859
5215,1861
5216,1874
5217,1871
5218,1876
5219,1878
5220,1879
5221,1872
5222,1859
5223,1853
5224,1855
5225,1841
5226,1842
5227,1843
5228,1853
5229,1857
5230,1873
5231,1870
5232,1875
5233,1873
5234,1873
5235,1878
5236,1881
5237,1881
5238,1872
5239,1859
5240,1861
5241,1849
5242,1846
5243,1846
5244,1850
5245,1855
5246,1865
5247,1857
5248,1872
5249,1863
5250,1869
5251,1875
5252,1876
5253,1882
5254,1881
5255,1872
5256,1867
5257,1855
5258,1843
5259,1853
5260,1850
5261,1859
5262,1861
5263,1858
5264,1866
5265,1866
5266,1871
5267,1881
5268,1879
5269,1883
5270,1884
5271,1872
5272,1867
5273,1855
5274,1844
5275,1850
5276,1846
5277,1845
5278,1863
5279,1866
5280,1872
5281,1872
5282,1877
5283,1879
5284,1878
5285,1884
5286,1886
5287,1885
5288,1871
5289,1865
5290,1857
5291,1856
5292,1851
5293,1851
5294,1856
5295,1856
5296,1858
5297,1870
5298,1869
5299,1873
5300,1873
5301,1877
5302,1876
5303,1875
5304,1872
5305,1867
5306,1865
5307,1854
5308,1851
5309,1846
5310,1851
5311,1862
5312,1869
5313,1872
5314,1869
5315,1871
5316,1872
5317,1882
5318,1887
5319,1874
5320,1878
5321,1872
5322,1865
5323,1856
5324,1851
5325,1855
5326,1855
5327,1851
5328,1857
5329,1856
5330,1863
5331,1872
5332,1872
5333,1873
5334,1874
5335,1872
5336,1883
5337,1880
5338,1870
5339,1869
5340,1856
5341,1835
5342,1851
5343,1847
5344,1852
5345,1856
5346,1858
5347,1863
5348,1866
5349,1875
5350,1874
5351,1876
5352,1881
5353,1883
5354,1881
5355,1869
5356,1866
5357,1856
5358,1850
5359,1842
5360,1842
5361,1847
5362,1861
5363,1854
5364,1857
5365,1866
5366,1863
5367,1866
5368,1871
5369,1873
5370,1875
5371,1874
5372,1870
5373,1865
5374,1859
5375,1847
5376,1842
5377,1844
5378,1851
5379,1855
5380,1867
5381,1866
5382,1872
5383,1872
5384,1872
5385,1879
5386,1875
5387,1876
5388,1874
5389,1859
5390,1855
5391,1855
5392,1851
5393,1840
5394,1850
5395,1843
5396,1856
5397,1856
5398,1872
5399,1875
5400,1877
5401,1876
5402,1877
5403,1881
5404,1877
5405,1872
5406,1862
5407,1855
5408,1847
5409,1847
5410,1850
5411,1856
5412,1844
5413,1862
5414,1862
5415,1872
5416,1877
5417,1874
5418,1872
5419,1867
5420,1868
5421,1867
5422,1860
5423,1847
5424,1842
5425,1842
5426,1838
5427,1830
5428,1830
5429,1830
5430,1849
5431,1859
5432,1867
5433,1877
5434,1904
5435,1903
5436,1887
5437,1877
5438,1875
5439,1866
5440,1858
5441,1839
5442,1845
5443,1846
5444,1845
5445,1846
5446,1857
5447,1867
5448,1870
5449,1870
5450,1872
5451,1876
5452,1874
5453,1874
5454,1872
5455,1863
5456,1851
5457,1844
5458,1841
5459,1837
5460,1845
5461,1850
5462,1850
5463,1853
5464,1858
5465,1871
5466,1872
5467,1872
5468,1873
5469,1874
5470,1877
5471,1875
5472,1859
5473,1856
5474,1847
5475,1846
5476,1844
5477,1852
5478,1854
5479,1856
5480,1856
5481,1867
5482,1865
5483,1867
5484,1871
5485,1872
5486,1872
5487,1874
5488,1869
5489,1863
5490,1856
5491,1844
5492,1845
5493,1845
5494,1851
5495,1856
5496,1857
5497,1859
5498,1866
5499,1873
5500,1872
5501,1877
5502,1874
5503,1882
5504,1878
5505,1872
5506,1861
5507,1857
5508,1842
5509,1847
5510,1845
5511,1849
5512,1846
5513,1856
5514,1857
5515,1867
5516,1855
5517,1870
5518,1873
5519,1879
5520,1872
5521,1866
5522,1862
5523,1857
5524,1851
5525,1846
5526,1843
5527,1846
5528,1852
5529,1853
5530,1858
5531,1867
5532,1872
5533,1873
5534,1872
5535,1875
5536,1873
5537,1878
5538,1865
5539,1858
5540,1853
5541,1840
5542,1842
5543,1840
5544,1841
5545,1847
5546,1861
5547,1857
5548,1856
5549,1870
5550,1866
5551,1872
5552,1875
5553,1879
5554,1872
5555,1872
5556,1861
5557,1859
5558,1851
5559,1842
5560,1845
5561,1851
5562,1855
5563,1855
5564,1861
5565,1870
5566,1872
5567,1872
5568,1876
5569,1872
5570,1878
5571,1871
5572,1867
5573,1857
5574,1850
5575,1840
5576,1840
5577,1838
5578,1851
5579,1855
5580,1857
5581,1869
5582,1861
5583,1871
5584,1873
5585,1873
5586,1876
5587,1881
5588,1866
5589,1866
5590,1859
5591,1855
5592,1845
5593,1842
5594,1845
5595,1852
5596,1855
5597,1862
5598,1871
5599,1862
5600,1872
5601,1873
5602,1872
5603,1875
5604,1872
5605,1858
5606,1854
5607,1851
5608,1850
5609,1840
5610,1845
5611,1843
5612,1855
5613,1861
5614,1869
5615,1861
5616,1873
5617,1871
5618,1872
5619,1873
5620,1881
5621,1877
5622,1869
5623,1855
5624,1855
5625,1840
5626,1842
5627,1850
5628,1852
5629,1850
5630,1856
5631,1862
5632,1863
5633,1871
5634,1867
5635,1871
5636,1874
5637,1873
5638,1862
5639,1868
5640,1854
5641,1847
5642,1843
5643,1845
5644,1851
5645,1856
5646,1856
5647,1862
5648,1863
5649,1872
5650,1872
5651,1872
5652,1875
5653,1883
5654,1875
5655,1867
5656,1860
5657,1857
5658,1845
5659,1844
5660,1843
5661,1849
5662,1853
5663,1847
5664,1863
5665,1861
5666,1871
5667,1866
5668,1871
5669,1872
5670,1874
5671,1867
5672,1866
5673,1856
5674,1847
5675,1846
5676,1847
5677,1846
5678,1852
5679,1845
5680,1856
5681,1863
5682,1872
5683,1872
5684,1874
5685,1872
5686,1876
5687,1878
5688,1872
5689,1863
5690,1858
5691,1853
5692,1845
5693,1840
5694,1840
5695,1844
5696,1846
5697,1854
5698,1867
5699,1872
5700,1874
5701,1875
5702,1872
5703,1879
5704,1874
5705,1869
5706,1857
5707,1862
5708,1840
5709,1841
5710,1842
5711,1846
5712,1847
5713,1855
5714,1871
5715,1870
5716,1875
5717,1872
5718,1866
5719,1867
5720,1871
5721,1862
5722,1854
5723,1855
5724,1847
5725,1846
5726,1841
5727,1840
5728,1839
5729,1840
5730,1863
5731,1862
5732,1869
5733,1877
5734,1875
5735,1875
5736,1872
5737,1872
5738,1862
5739,1861
5740,1855
5741,1836
5742,1837
5743,1833
5744,1834
5745,1841
5746,1856
5747,1871
5748,1878
5749,1891
5750,1897
5751,1888
5752,1883
5753,1874
5754,1878
5755,1869
5756,1859
5757,1856
5758,1846
5759,1849
5760,1847
5761,1854
5762,1855
5763,1853
5764,1857
5765,1859
5766,1871
5767,1877
5768,1872
5769,1877
5770,1875
5771,1877
5772,1863
5773,1853
5774,1851
5775,1851
5776,1841
5777,1843
5778,1847
5779,1857
5780,1858
5781,1867
5782,1870
5783,1872
5784,1869
5785,1868
5786,1870
5787,1875
5788,1870
5789,1858
5790,1855
5791,1856
5792,1849
5793,1846
5794,1854
5795,1857
5796,1857
5797,1863
5798,1873
5799,1872
5800,1872
5801,1873
5802,1874
5803,1877
5804,1878
5805,1861
5806,1856
5807,1856
5808,1851
5809,1845
5810,1841
5811,1849
5812,1847
5813,1851
5814,1851
5815,1862
5816,1870
5817,1863
5818,1874
5819,1875
5820,1874
5821,1873
5822,1872
5823,1860
5824,1853
5825,1844
5826,1843
5827,1844
5828,1852
5829,1856
5830,1862
5831,1859
5832,1870
5833,1874
5834,1874
5835,1873
5836,1873
5837,1879
5838,1872
5839,1855
5840,1852
5841,1846
5842,1840
5843,1841
5844,1839
5845,1845
5846,1847
5847,1858
5848,1856
5849,1865
5850,1871
5851,1872
5852,1875
5853,1883
5854,1874
5855,1863
5856,1854
5857,1854
5858,1840
5859,1842
5860,1840
5861,1842
5862,1850
5863,1859
5864,1867
5865,1861
5866,1872
5867,1877
5868,1872
5869,1872
5870,1873
5871,1869
5872,1867
5873,1843
5874,1840
5875,1840
5876,1840
5877,1840
5878,1852
5879,1856
5880,1863
5881,1863
5882,1872
5883,1876
5884,1873
5885,1872
5886,1874
5887,1873
5888,1872
5889,1851
5890,1849
5891,1858
5892,1854
5893,1850
5894,1841
5895,1840
5896,1844
5897,1868
5898,1875
5899,1877
5900,1878
5901,1890
5902,1878
5903,1861
5904,1849
5905,1835
5906,1836
5907,1837
5908,1871
5909,1877
5910,1877
5911,1871
5912,1854
5913,1855
5914,1861
5915,1863
5916,1871
5917,1882
5918,1890
5919,1881
5920,1878
5921,1874
5922,1865
5923,1856
5924,1847
5925,1842
5926,1843
5927,1840
5928,1847
5929,1846
5930,1862
5931,1859
5932,1870
5933,1867
5934,1867
5935,1869
5936,1873
5937,1872
5938,1856
5939,1858
5940,1851
5941,1841
5942,1841
5943,1844
5944,1847
5945,1851
5946,1852
5947,1862
5948,1866
5949,1872
5950,1875
5951,1876
5952,1879
5953,1881
5954,1873
5955,1869
5956,1855
5957,1851
5958,1844
5959,1843
5960,1844
5961,1853
5962,1853
5963,1842
5964,1859
5965,1862
5966,1867
5967,1872
5968,1871
5969,1877
5970,1878
5971,1870
5972,1858
5973,1858
5974,1857
5975,1840
5976,1843
5977,1843
5978,1854
5979,1845
5980,1856
5981,1869
5982,1867
5983,1878
5984,1874
5985,1876
5986,1879
5987,1888
5988,1866
5989,1857
5990,1847
5991,1840
5992,1841
5993,1834
5994,1837
5995,1847
5996,1853
5997,1865
5998,1872
5999,1872
6000,1878
6001,1878
6002,1874
6003,1879
6004,1885
6005,1867
6006,1855
6007,1857
6008,1855
6009,1856
6010,1847
6011,1840
6012,1854
6013,1863
6014,1865
6015,1859
6016,1872
6017,1878
6018,1872
6019,1872
6020,1877
6021,1869
6022,1855
6023,1853
6024,1851
6025,1838
6026,1834
6027,1840
6028,1839
6029,1840
6030,1863
6031,1870
6032,1863
6033,1864
6034,1872
6035,1874
6036,1881
6037,1885
6038,1875
6039,1858
6040,1853
6041,1849
6042,1840
6043,1849
6044,1846
6045,1854
6046,1856
6047,1860
6048,1866
6049,1869
6050,1873
6051,1879
6052,1881
6053,1885
6054,1883
6055,1865
6056,1855
6057,1844
6058,1840
6059,1840
6060,1840
6061,1845
6062,1849
6063,1856
6064,1856
6065,1871
6066,1868
6067,1872
6068,1872
6069,1872
6070,1877
6071,1871
6072,1877
6073,1873
6074,1854
6075,1846
6076,1841
6077,1840
6078,1851
6079,1855
6080,1851
6081,1858
6082,1866
6083,1867
6084,1866
6085,1872
6086,1879
6087,1878
6088,1888
6089,1875
6090,1867
6091,1856
6092,1833
6093,1830
6094,1840
6095,1851
6096,1862
6097,1870
6098,1875
6099,1872
6100,1872
6101,1875
6102,1881
6103,1890
6104,1885
6105,1872
6106,1865
6107,1861
6108,1840
6109,1839
6110,1841
6111,1843
6112,1853
6113,1270
6114,1526
6115,1933
6116,1755
6117,1591
6118,1467
6119,1306
6120,1162
6121,1251
6122,1743
6123,2469
6124,2640
6125,2427
6126,2146
6127,1995
6128,1994
6129,2031
6130,2032
6131,2026
6132,2018
6133,2005
6134,2002
6135,1997
6136,1987
6137,1986
6138,1985
6139,1968
6140,1919
6141,1866
6142,1840
6143,1822
6144,2036
6145,1327
6146,1866
6147,1520
6148,1277
6149,1219
6150,1145
6151,1133
6152,1511
6153,2330
6154,3012
6155,2610
6156,2112
6157,1908
6158,1927
6159,2047
6160,2063
6161,2058
6162,2032
6163,2000
6164,1989
6165,1973
6166,1967
6167,1940
6168,1929
6169,1920
6170,1909
6171,1872
6172,1853
6173,1837
6174,1812
6175,2115
6176,1115
6177,1880
6178,1733
6179,1452
6180,1424
6181,1383
6182,1280
6183,1504
6184,2410
6185,2768
6186,2293
6187,1997
6188,1875
6189,1875
6190,1934
6191,1977
6192,2000
6193,2000
6194,1981
6195,1969
6196,1966
6197,1947
6198,1939
6199,1913
6200,1899
6201,1887
6202,1872
6203,1847
6204,1841
6205,1822
6206,1840
6207,960
6208,1886
6209,1998
6210,1775
6211,1749
6212,1685
6213,1466
6214,1328
6215,2138
6216,2313
6217,2041
6218,1871
6219,1794
6220,1762
6221,1840
6222,1933
6223,2000
6224,2015
6225,1999
6226,1995
6227,1984
6228,1965
6229,1947
6230,1923
6231,1903
6232,1895
6233,1874
6234,1871
6235,1866
6236,1863
6237,1862
6238,711
6239,1843
6240,2256
6241,2112
6242,2032
6243,1981
6244,1595
6245,987
6246,1782
6247,2090
6248,1966
6249,1871
6250,1775
6251,1556
6252,1636
6253,1857
6254,1991
6255,2032
6256,2021
6257,2017
6258,2010
6259,1995
6260,1981
6261,1946
6262,1922
6263,1904
6264,1892
6265,1874
6266,1870
6267,1872
6268,1865
6269,656
6270,1789
6271,2304
6272,2154
6273,2021
6274,2011
6275,1557
6276,955
6277,1877
6278,2089
6279,1965
6280,1902
6281,1779
6282,1568
6283,1628
6284,1851
6285,1994
6286,2031
6287,2047
6288,2039
6289,2020
6290,1997
6291,1979
6292,1943
6293,1906
6294,1885
6295,1855
6296,1846
6297,1856
6298,1855
6299,1861
6300,602
6301,1683
6302,2289
6303,2205
6304,2108
6305,2150
6306,1683
6307,964
6308,1854
6309,2047
6310,1923
6311,1862
6312,1744
6313,1498
6314,1587
6315,1824
6316,1958
6317,2013
6318,2025
6319,2029
6320,2037
6321,2029
6322,1983
6323,1945
6324,1920
6325,1887
6326,1863
6327,1853
6328,1847
6329,1847
6330,1857
6331,1251
6332,1449
6333,2253
6334,2286
6335,2162
6336,2272
6337,1887
6338,837
6339,1673
6340,1920
6341,1806
6342,1786
6343,1773
6344,1664
6345,1685
6346,1831
6347,1951
6348,2002
6349,2025
6350,2031
6351,2025
6352,2014
6353,1999
6354,1970
6355,1941
6356,1910
6357,1879
6358,1840
6359,1834
6360,1839
6361,1837
6362,2176
6363,1250
6364,2161
6365,2386
6366,2330
6367,2432
6368,1963
6369,730
6370,1474
6371,1863
6372,1840
6373,1838
6374,1775
6375,1626
6376,1648
6377,1806
6378,1929
6379,1987
6380,2019
6381,2047
6382,2047
6383,2037
6384,1989
6385,1898
6386,1893
6387,1892
6388,1888
6389,1855
6390,1840
6391,1826
6392,1831
6393,2252
6394,1156
6395,2112
6396,2413
6397,2353
6398,2479
6399,2061
6400,720
6401,1426
6402,1831
6403,1795
6404,1808
6405,1774
6406,1727
6407,1747
6408,1847
6409,1926
6410,1974
6411,2000
6412,2010
6413,2013
6414,1990
6415,1973
6416,1933
6417,1907
6418,1906
6419,1904
6420,1899
6421,1872
6422,1847
6423,1862
6424,1719
6425,894
6426,1910
6427,2283
6428,2155
6429,2287
6430,2176
6431,883
6432,1463
6433,1833
6434,1776
6435,1781
6436,1808
6437,1808
6438,1822
6439,1891
6440,1950
6441,1980
6442,1975
6443,1983
6444,1987
6445,1978
6446,1959
6447,1950
6448,1916
6449,1883
6450,1883
6451,1874
6452,1878
6453,1883
6454,1872
6455,1855
6456,749
6457,1807
6458,2260
6459,2112
6460,2193
6461,2224
6462,957
6463,1453
6464,1839
6465,1789
6466,1805
6467,1807
6468,1774
6469,1817
6470,1909
6471,1974
6472,1995
6473,1991
6474,1990
6475,1981
6476,1968
6477,1946
6478,1923
6479,1904
6480,1889
6481,1889
6482,1876
6483,1879
6484,1872
6485,1867
6486,1870
6487,695
6488,1712
6489,2307
6490,2266
6491,2320
6492,2303
6493,896
6494,1183
6495,1760
6496,1742
6497,1754
6498,1787
6499,1808
6500,1841
6501,1906
6502,1979
6503,2017
6504,2031
6505,2030
6506,2002
6507,1983
6508,1968
6509,1936
6510,1895
6511,1876
6512,1871
6513,1856
6514,1863
6515,1861
6516,1866
6517,1867
6518,823
6519,1583
6520,2287
6521,2339
6522,2314
6523,2368
6524,1052
6525,1118
6526,1741
6527,1755
6528,1750
6529,1766
6530,1781
6531,1810
6532,1883
6533,1947
6534,2000
6535,2011
6536,2019
6537,2032
6538,2007
6539,1968
6540,1931
6541,1887
6542,1872
6543,1873
6544,1868
6545,1856
6546,1849
6547,1845
6548,1843
6549,1470
6550,1424
6551,2219
6552,2349
6553,2235
6554,2334
6555,1179
6556,1072
6557,1827
6558,1787
6559,1750
6560,1766
6561,1786
6562,1823
6563,1891
6564,1947
6565,1997
6566,2018
6567,2039
6568,2055
6569,2059
6570,2027
6571,1952
6572,1880
6573,1872
6574,1870
6575,1855
6576,1839
6577,1834
6578,1838
6579,1835
6580,2313
6581,1239
6582,2131
6583,2309
6584,2231
6585,2394
6586,1458
6587,1010
6588,1806
6589,1808
6590,1745
6591,1751
6592,1745
6593,1777
6594,1849
6595,1927
6596,1977
6597,2000
6598,2022
6599,2033
6600,2031
6601,2000
6602,1971
6603,1947
6604,1919
6605,1882
6606,1862
6607,1854
6608,1837
6609,1829
6610,1826
6611,1985
6612,1008
6613,2006
6614,2250
6615,2095
6616,2259
6617,1662
6618,1086
6619,1845
6620,1854
6621,1773
6622,1777
6623,1798
6624,1808
6625,1842
6626,1920
6627,1969
6628,1991
6629,2005
6630,2027
6631,2011
6632,1987
6633,1974
6634,1943
6635,1914
6636,1903
6637,1888
6638,1872
6639,1846
6640,1834
6641,1839
6642,1714
6643,831
6644,1934
6645,2251
6646,1993
6647,2161
6648,1723
6649,993
6650,1936
6651,1948
6652,1835
6653,1814
6654,1783
6655,1781
6656,1842
6657,1920
6658,1981
6659,1989
6660,2007
6661,2015
6662,2001
6663,1978
6664,1963
6665,1941
6666,1922
6667,1914
6668,1891
6669,1881
6670,1875
6671,1857
6672,1840
6673,1834
6674,614
6675,1809
6676,2283
6677,2004
6678,2131
6679,1853
6680,913
6681,1871
6682,1954
6683,1811
6684,1792
6685,1805
6686,1822
6687,1862
6688,1937
6689,1989
6690,2007
6691,2019
6692,2011
6693,1997
6694,1977
6695,1981
6696,1975
6697,1933
6698,1893
6699,1873
6700,1874
6701,1859
6702,1858
6703,1854
6704,1857
6705,511
6706,1632
6707,2300
6708,2037
6709,2011
6710,1965
6711,926
6712,1793
6713,1991
6714,1847
6715,1799
6716,1783
6717,1782
6718,1845
6719,1927
6720,1999
6721,2027
6722,2033
6723,2018
6724,2009
6725,2000
6726,1966
6727,1933
6728,1899
6729,1879
6730,1869
6731,1875
6732,1857
6733,1861
6734,1857
6735,1856
6736,1856
6737,1859
6738,1859
6739,1842
6740,1840
6741,1823
6742,1824
6743,1826
6744,1826
6745,1831
6746,1838
6747,1845
6748,1845
6749,1847
6750,1863
6751,1863
6752,1872
6753,1872
6754,1877
6755,1872
6756,1851
6757,1851
6758,1847
6759,1840
6760,1842
6761,1841
6762,1846
6763,1859
6764,1856
6765,1858
6766,1861
6767,1873
6768,1874
6769,1871
6770,1872
6771,1865
6772,1867
6773,1856
6774,1847
6775,1840
6776,1836
6777,1838
6778,1842
6779,1856
6780,1862
6781,1861
6782,1865
6783,1865
6784,1872
6785,1874
6786,1872
6787,1873
6788,1874
6789,1866
6790,1850
6791,1841
6792,1840
6793,1840
6794,1842
6795,1847
6796,1842
6797,1853
6798,1866
6799,1859
6800,1867
6801,1870
6802,1872
6803,1856
6804,1867
6805,1875
6806,1872
6807,1853
6808,1853
6809,1849
6810,1842
6811,1850
6812,1857
6813,1856
6814,1857
6815,1863
6816,1874
6817,1875
6818,1877
6819,1873
6820,1888
6821,1877
6822,1871
6823,1862
6824,1861
6825,1844
6826,1842
6827,1845
6828,1851
6829,1851
6830,1857
6831,1861
6832,1873
6833,1877
6834,1872
6835,1872
6836,1872
6837,1874
6838,1870
6839,1863
6840,1863
6841,1842
6842,1856
6843,1842
6844,1843
6845,1848
6846,1857
6847,1869
6848,1872
6849,1870
6850,1885
6851,1886
6852,1881
6853,1885
6854,1887
6855,1872
6856,1867
6857,1856
6858,1855
6859,1843
6860,1843
6861,1850
6862,1860
6863,1854
6864,1859
6865,1870
6866,1870
6867,1872
6868,1872
6869,1884
6870,1895
6871,1883
6872,1862
6873,1859
6874,1854
6875,1846
6876,1851
6877,1845
6878,1856
6879,1855
6880,1859
6881,1869
6882,1872
6883,1881
6884,1879
6885,1883
6886,1882
6887,1893
6888,1891
6889,1872
6890,1865
6891,1865
6892,1840
6893,1827
6894,1840
6895,1855
6896,1853
6897,1867
6898,1870
6899,1874
6900,1886
6901,1873
6902,1877
6903,1882
6904,1879
6905,1872
6906,1862
6907,1855
6908,1856
6909,1845
6910,1851
6911,1850
6912,1852
6913,1852
6914,1872
6915,1872
6916,1873
6917,1872
6918,1873
6919,1873
6920,1878
6921,1879
6922,1860
6923,1853
6924,1843
6925,1840
6926,1841
6927,1837
6928,1842
6929,1840
6930,1866
6931,1865
6932,1874
6933,1872
6934,1882
6935,1885
6936,1883
6937,1884
6938,1883
6939,1871
6940,1856
6941,1853
6942,1846
6943,1844
6944,1845
6945,1841
6946,1856
6947,1865
6948,1872
6949,1871
6950,1882
6951,1877
6952,1872
6953,1859
6954,1855
6955,1853
6956,1830
6957,1832
6958,1842
6959,1863
6960,1878
6961,1866
6962,1862
6963,1862
6964,1860
6965,1841
6966,1851
6967,1860
6968,1862
6969,1854
6970,1877
6971,1936
6972,1932
6973,1901
6974,1871
6975,1851
6976,1852
6977,1855
6978,1860
6979,1859
6980,1860
6981,1869
6982,1872
6983,1871
6984,1870
6985,1872
6986,1872
6987,1873
6988,1874
6989,1863
6990,1859
6991,1845
6992,1844
6993,1840
6994,1841
6995,1842
6996,1857
6997,1863
6998,1859
6999,1863
7000,1874
7001,1874
7002,1877
7003,1881
7004,1881
7005,1865
7006,1871
7007,1851
7008,1841
7009,1844
7010,1843
7011,1846
7012,1846
7013,1844
7014,1842
7015,1850
7016,1855
7017,1873
7018,1876
7019,1875
7020,1883
7021,1874
7022,1869
7023,1861
7024,1846
7025,1849
7026,1846
7027,1849
7028,1840
7029,1840
7030,1843
7031,1840
7032,1851
7033,1847
7034,1865
7035,1881
7036,1904
7037,1899
7038,1872
7039,1849
7040,1808
7041,1798
7042,1809
7043,1862
7044,1899
7045,1881
7046,1862
7047,1860
7048,1869
7049,1856
7050,1877
7051,1875
7052,1878
7053,1885
7054,1885
7055,1872
7056,1856
7057,1860
7058,1856
7059,1840
7060,1840
7061,1840
7062,1850
7063,1853
7064,1860
7065,1869
7066,1866
7067,1869
7068,1872
7069,1873
7070,1872
7071,1881
7072,1856
7073,1849
7074,1841
7075,1839
7076,1840
7077,1839
7078,1846
7079,1853
7080,1853
7081,1855
7082,1869
7083,1873
7084,1865
7085,1869
7086,1872
7087,1870
7088,1863
7089,1861
7090,1851
7091,1847
7092,1840
7093,1835
7094,1840
7095,1840
7096,1842
7097,1866
7098,1875
7099,1877
7100,1858
7101,1857
7102,1872
7103,1875
7104,1872
7105,1859
7106,1842
7107,1819
7108,1824
7109,1808
7110,1783
7111,1755
7112,1744
7113,1762
7114,1789
7115,1861
7116,1930
7117,1984
7118,2034
7119,1986
7120,1886
7121,1876
7122,1903
7123,1900
7124,1887
7125,1871
7126,1865
7127,1867
7128,1859
7129,1851
7130,1850
7131,1855
7132,1863
7133,1854
7134,1859
7135,1856
7136,1858
7137,1863
7138,1862
7139,1843
7140,1842
7141,1839
7142,1846
7143,1830
7144,1841
7145,1846
7146,1849
7147,1855
7148,1855
7149,1872
7150,1872
7151,1863
7152,1870
7153,1872
7154,1875
7155,1860
7156,1868
7157,1846
7158,1855
7159,1841
7160,1840
7161,1836
7162,1853
7163,1843
7164,1840
7165,1845
7166,1835
7167,1835
7168,1806
7169,1807
7170,1808
7171,1840
7172,1872
7173,1934
7174,1931
7175,1897
7176,1868
7177,1856
7178,1853
7179,1870
7180,1904
7181,1901
7182,1891
7183,1872
7184,1861
7185,1863
7186,1870
7187,1873
7188,1870
7189,1862
7190,1861
7191,1856
7192,1842
7193,1831
7194,1837
7195,1844
7196,1861
7197,1858
7198,1875
7199,1872
7200,1872
7201,1869
7202,1868
7203,1869
7204,1872
7205,1856
7206,1863
7207,1843
7208,1850
7209,1838
7210,1840
7211,1841
7212,1849
7213,1842
7214,1860
7215,1854
7216,1865
7217,1868
7218,1861
7219,1865
7220,1867
7221,1875
7222,1854
7223,1843
7224,1840
7225,1840
7226,1834
7227,1836
7228,1835
7229,1833
7230,1849
7231,1847
7232,1856
7233,1841
7234,1842
7235,1857
7236,1903
7237,1906
7238,1872
7239,1840
7240,1837
7241,1839
7242,1807
7243,1801
7244,1814
7245,1849
7246,1869
7247,1883
7248,1913
7249,1943
7250,1913
7251,1901
7252,1889
7253,1877
7254,1887
7255,1877
7256,1883
7257,1855
7258,1854
7259,1841
7260,1840
7261,1840
7262,1836
7263,1850
7264,1875
7265,1872
7266,1875
7267,1881
7268,1872
7269,1872
7270,1867
7271,1861
7272,1854
7273,1854
7274,1852
7275,1826
7276,1841
7277,1856
7278,1859
7279,1855
7280,1857
7281,1859
7282,1870
7283,1872
7284,1858
7285,1855
7286,1857
7287,1868
7288,1866
7289,1849
7290,1847
7291,1849
7292,1851
7293,1840
7294,1840
7295,1840
7296,1824
7297,1834
7298,1863
7299,1871
7300,1902
7301,1898
7302,1893
7303,1877
7304,1872
7305,1862
7306,1857
7307,1852
7308,1846
7309,1855
7310,1846
7311,1850
7312,1851
7313,1850
7314,1845
7315,1846
7316,1858
7317,1851
7318,1859
7319,1844
7320,1867
7321,1886
7322,1859
7323,1845
7324,1855
7325,1855
7326,1863
7327,1853
7328,1843
7329,1844
7330,1855
7331,1855
7332,1857
7333,1853
7334,1866
7335,1856
7336,1850
7337,1849
7338,1838
7339,1853
7340,1879
7341,1882
7342,1885
7343,1875
7344,1836
7345,1822
7346,1808
7347,1830
7348,1860
7349,1874
7350,1921
7351,1923
7352,1883
7353,1847
7354,1840
7355,1837
7356,1849
7357,1846
7358,1858
7359,1873
7360,1898
7361,1892
7362,1860
7363,1865
7364,1865
7365,1863
7366,1872
7367,1869
7368,1870
7369,1869
7370,1874
7371,1874
7372,1857
7373,1849
7374,1836
7375,1840
7376,1837
7377,1843
7378,1851
7379,1870
7380,1882
7381,1862
7382,1864
7383,1859
7384,1872
7385,1871
7386,1871
7387,1872
7388,1862
7389,1859
7390,1854
7391,1856
7392,1850
7393,1845
7394,1850
7395,1861
7396,1853
7397,1865
7398,1858
7399,1869
7400,1871
7401,1853
7402,1840
7403,1827
7404,1854
7405,1872
7406,1871
7407,1866
7408,1854
7409,1839
7410,1808
7411,1811
7412,1840
7413,1833
7414,1827
7415,1847
7416,1904
7417,1936
7418,1913
7419,1902
7420,1904
7421,1893
7422,1865
7423,1857
7424,1867
7425,1855
7426,1863
7427,1859
7428,1863
7429,1856
7430,1862
7431,1861
7432,1857
7433,1846
7434,1853
7435,1841
7436,1831
7437,1843
7438,1851
7439,1851
7440,1881
7441,1859
7442,1857
7443,1872
7444,1866
7445,1869
7446,1863
7447,1856
7448,1859
7449,1869
7450,1865
7451,1874
7452,1869
7453,1865
7454,1865
7455,1869
7456,1860
7457,1849
7458,1847
7459,1841
7460,1847
7461,1849
7462,1858
7463,1857
7464,1859
7465,1862
7466,1858
7467,1863
7468,1866
7469,1869
7470,1872
7471,1867
7472,1866
7473,1857
7474,1841
7475,1861
7476,1853
7477,1853
7478,1848
7479,1857
7480,1856
7481,1856
7482,1859
7483,1866
7484,1878
7485,1866
7486,1870
7487,1869
7488,1851
7489,1839
7490,1859
7491,1883
7492,1872
7493,1849
7494,1843
7495,1840
7496,1857
7497,1851
7498,1867
7499,1866
7500,1859
7501,1871
7502,1862
7503,1872
7504,1866
7505,1862
7506,1855
7507,1859
7508,1855
7509,1840
7510,1833
7511,1828
7512,1831
7513,1835
7514,1843
7515,1873
7516,1890
7517,1899
7518,1889
7519,1867
7520,1869
7521,1872
7522,1858
7523,1859
7524,1851
7525,1835
7526,1847
7527,1851
7528,1846
7529,1845
7530,1869
7531,1869
7532,1872
7533,1874
7534,1879
7535,1874
7536,1867
7537,1869
7538,1865
7539,1850
7540,1850
7541,1861
7542,1851
7543,1850
7544,1851
7545,1851
7546,1846
7547,1867
7548,1859
7549,1872
7550,1866
7551,1871
7552,1870
7553,1865
7554,1863
7555,1853
7556,1857
7557,1855
7558,1846
7559,1850
7560,1850
7561,1854
7562,1841
7563,1847
7564,1847
7565,1859
7566,1861
7567,1889
7568,1885
7569,1883
7570,1885
7571,1874
7572,1870
7573,1858
7574,1853
7575,1857
7576,1851
7577,1846
7578,1843
7579,1849
7580,1850
7581,1858
7582,1856
7583,1840
7584,1854
7585,1843
7586,1840
7587,1850
7588,1875
7589,1901
7590,1861
7591,1846
7592,1840
7593,1840
7594,1847
7595,1858
7596,1843
7597,1819
7598,1851
7599,1868
7600,1873
7601,1887
7602,1879
7603,1890
7604,1906
7605,1883
7606,1870
7607,1870
7608,1905
7609,1894
7610,1866
7611,1859
7612,1851
7613,1842
7614,1840
7615,1860
7616,1855
7617,1872
7618,1886
7619,1881
7620,1882
7621,1873
7622,1859
7623,1845
7624,1842
7625,1840
7626,1851
7627,1851
7628,1855
7629,1853
7630,1861
7631,1869
7632,1872
7633,1872
7634,1865
7635,1872
7636,1871
7637,1872
7638,1866
7639,1855
7640,1857
7641,1843
7642,1838
7643,1843
7644,1843
7645,1845
7646,1853
7647,1863
7648,1860
7649,1852
7650,1856
7651,1861
7652,1868
7653,1871
7654,1869
7655,1862
7656,1859
7657,1852
7658,1853
7659,1840
7660,1838
7661,1840
7662,1841
7663,1850
7664,1860
7665,1859
7666,1859
7667,1855
7668,1859
7669,1853
7670,1874
7671,1903
7672,1898
7673,1860
7674,1840
7675,1823
7676,1838
7677,1854
7678,1870
7679,1861
7680,1825
7681,1815
7682,1830
7683,1823
7684,1857
7685,1899
7686,1905
7687,1902
7688,1867
7689,1846
7690,1859
7691,1873
7692,1885
7693,1902
7694,1904
7695,1890
7696,1875
7697,1899
7698,1882
7699,1866
7700,1856
7701,1856
7702,1862
7703,1855
7704,1866
7705,1876
7706,1869
7707,1853
7708,1859
7709,1847
7710,1846
7711,1849
7712,1851
7713,1859
7714,1859
7715,1866
7716,1861
7717,1857
7718,1855
7719,1865
7720,1871
7721,1866
7722,1854
7723,1852
7724,1855
7725,1843
7726,1853
7727,1850
7728,1853
7729,1858
7730,1863
7731,1851
7732,2375
7733,1226
7734,1923
7735,1865
7736,1708
7737,1614
7738,1472
7739,1234
7740,1171
7741,1535
7742,2346
7743,2518
7744,2307
7745,2032
7746,1911
7747,1979
7748,2037
7749,2047
7750,2068
7751,2064
7752,2057
7753,2034
7754,2029
7755,2013
7756,2002
7757,2020
7758,1968
7759,1893
7760,1856
7761,1840
7762,1840
7763,1858
7764,959
7765,1879
7766,1925
7767,1707
7768,1597
7769,1461
7770,1243
7771,1210
7772,1745
7773,2548
7774,2455
7775,2070
7776,1872
7777,1873
7778,1981
7779,2000
7780,2034
7781,2043
7782,2035
7783,2015
7784,2000
7785,1981
7786,1955
7787,1968
7788,1968
7789,1923
7790,1875
7791,1856
7792,1837
7793,1823
7794,1741
7795,723
7796,1798
7797,1863
7798,1572
7799,1557
7800,1627
7801,1591
7802,1488
7803,2005
7804,2635
7805,2243
7806,1936
7807,1856
7808,1809
7809,1821
7810,1889
7811,1963
7812,2019
7813,2042
7814,2032
7815,2033
7816,2021
7817,1977
7818,1875
7819,1865
7820,1870
7821,1867
7822,1847
7823,1834
7824,1817
7825,1811
7826,462
7827,1703
7828,2021
7829,1743
7830,1728
7831,1849
7832,1840
7833,1461
7834,1895
7835,2260
7836,2017
7837,1903
7838,1840
7839,1808
7840,1823
7841,1898
7842,1970
7843,2005
7844,2013
7845,2014
7846,2003
7847,1982
7848,1952
7849,1920
7850,1904
7851,1895
7852,1884
7853,1872
7854,1863
7855,1853
7856,1842
7857,490
7858,1519
7859,2158
7860,1953
7861,1892
7862,2064
7863,2025
7864,1232
7865,1690
7866,2046
7867,1937
7868,1919
7869,1894
7870,1713
7871,1712
7872,1860
7873,1965
7874,2001
7875,2017
7876,2026
7877,2005
7878,1981
7879,1954
7880,1930
7881,1920
7882,1901
7883,1855
7884,1851
7885,1856
7886,1854
7887,1855
7888,1004
7889,1375
7890,2192
7891,2074
7892,1975
7893,2193
7894,2059
7895,1088
7896,1677
7897,1970
7898,1907
7899,1923
7900,1802
7901,1615
7902,1742
7903,1933
7904,2014
7905,2042
7906,2032
7907,2019
7908,1999
7909,1955
7910,1920
7911,1925
7912,1908
7913,1885
7914,1889
7915,1863
7916,1862
7917,1843
7918,1856
7919,2147
7920,1181
7921,2142
7922,2085
7923,1926
7924,2192
7925,2077
7926,1063
7927,1774
7928,1942
7929,1890
7930,1907
7931,1803
7932,1677
7933,1778
7934,1943
7935,2015
7936,2047
7937,2061
7938,2039
7939,1998
7940,1964
7941,1920
7942,1882
7943,1872
7944,1878
7945,1863
7946,1851
7947,1845
7948,1850
7949,1853
7950,2317
7951,1040
7952,2096
7953,2142
7954,1955
7955,2227
7956,1981
7957,1081
7958,1834
7959,1884
7960,1843
7961,1875
7962,1772
7963,1698
7964,1831
7965,1979
7966,2034
7967,2071
7968,2080
7969,2045
7970,1996
7971,1954
7972,1919
7973,1896
7974,1875
7975,1866
7976,1847
7977,1846
7978,1842
7979,1847
7980,1844
7981,1733
7982,703
7983,1933
7984,2282
7985,2141
7986,2350
7987,2011
7988,934
7989,1634
7990,1803
7991,1808
7992,1846
7993,1791
7994,1751
7995,1869
7996,1989
7997,2047
7998,2083
7999,2082
8000,2056
8001,2015
8002,1970
8003,1926
8004,1858
8005,1870
8006,1858
8007,1843
8008,1847
8009,1839
8010,1840
8011,1840
8012,1845
8013,451
8014,1802
8015,2327
8016,2178
8017,2299
8018,1984
8019,910
8020,1643
8021,1811
8022,1787
8023,1838
8024,1808
8025,1824
8026,1935
8027,2019
8028,2077
8029,2106
8030,2094
8031,2068
8032,2033
8033,1982
8034,1904
8035,1830
8036,1830
8037,1856
8038,1842
8039,1837
8040,1847
8041,1828
8042,1835
8043,1840
8044,306
8045,1653
8046,2300
8047,2226
8048,2289
8049,2026
8050,887
8051,1609
8052,1786
8053,1787
8054,1822
8055,1843
8056,1891
8057,1970
8058,2042
8059,2099
8060,2112
8061,2086
8062,2032
8063,1966
8064,1926
8065,1903
8066,1875
8067,1858
8068,1847
8069,1856
8070,1847
8071,1849
8072,1845
8073,1846
8074,1847
8075,465
8076,1499
8077,2223
8078,2206
8079,2256
8080,2113
8081,982
8082,1616
8083,1776
8084,1776
8085,1810
8086,1831
8087,1899
8088,1984
8089,2062
8090,2114
8091,2122
8092,2079
8093,2001
8094,1939
8095,1911
8096,1897
8097,1876
8098,1876
8099,1861
8100,1862
8101,1864
8102,1856
8103,1850
8104,1856
8105,1850
8106,1148
8107,1285
8108,2148
8109,2201
8110,2183
8111,2126
8112,1034
8113,1614
8114,1791
8115,1791
8116,1825
8117,1843
8118,1889
8119,2001
8120,2096
8121,2154
8122,2142
8123,2083
8124,1998
8125,1936
8126,1906
8127,1881
8128,1859
8129,1842
8130,1854
8131,1869
8132,1858
8133,1857
8134,1852
8135,1854
8136,1851
8137,2242
8138,1072
8139,2046
8140,2029
8141,1975
8142,2173
8143,1287
8144,1655
8145,1788
8146,1787
8147,1856
8148,1885
8149,1933
8150,2042
8151,2127
8152,2189
8153,2160
8154,2095
8155,2018
8156,1945
8157,1900
8158,1877
8159,1870
8160,1860
8161,1853
8162,1851
8163,1838
8164,1841
8165,1835
8166,1839
8167,1843
8168,2209
8169,922
8170,1984
8171,2086
8172,2015
8173,2189
8174,1346
8175,1659
8176,1770
8177,1763
8178,1808
8179,1858
8180,1923
8181,2018
8182,2114
8183,2173
8184,2155
8185,2094
8186,2016
8187,1955
8188,1927
8189,1904
8190,1893
8191,1872
8192,1856
8193,1814
8194,1824
8195,1829
8196,1835
8197,1834
8198,1837
8199,1733
8200,656
8201,1895
8202,2135
8203,2071
8204,2207
8205,1413
8206,1593
8207,1743
8208,1741
8209,1792
8210,1846
8211,1920
8212,2014
8213,2135
8214,2203
8215,2158
8216,2084
8217,2019
8218,1959
8219,1920
8220,1898
8221,1885
8222,1859
8223,1840
8224,1841
8225,1840
8226,1831
8227,1827
8228,1830
8229,1837
8230,1843
8231,348
8232,1763
8233,2160
8234,2143
8235,2266
8236,1557
8237,1467
8238,1726
8239,1753
8240,1791
8241,1823
8242,1877
8243,1990
8244,2119
8245,2189
8246,2153
8247,2083
8248,2001
8249,1940
8250,1906
8251,1904
8252,1890
8253,1873
8254,1872
8255,1869
8256,1825
8257,1834
8258,1830
8259,1835
8260,1834
8261,1835
8262,205
8263,1605
8264,2138
8265,2145
8266,2215
8267,1614
8268,1351
8269,1733
8270,1783
8271,1821
8272,1867
8273,1919
8274,2018
8275,2129
8276,2197
8277,2160
8278,2096
8279,2019
8280,1951
8281,1916
8282,1904
8283,1885
8284,1873
8285,1858
8286,1851
8287,1856
8288,1853
8289,1839
8290,1835
8291,1835
8292,1845
8293,283
8294,1489
8295,2155
8296,2198
8297,2211
8298,1637
8299,1346
8300,1731
8301,1770
8302,1815
8303,1868
8304,1923
8305,2033
8306,2133
8307,2192
8308,2154
8309,2082
8310,1999
8311,1940
8312,1904
8313,1893
8314,1873
8315,1867
8316,1853
8317,1856
8318,1841
8319,1846
8320,1855
8321,1853
8322,1849
8323,1837
8324,1321
8325,1232
8326,2106
8327,2241
8328,2219
8329,1755
8330,1200
8331,1662
8332,1716
8333,1775
8334,1847
8335,1926
8336,2045
8337,2194
8338,2242
8339,2182
8340,2106
8341,2002
8342,1946
8343,1921
8344,1898
8345,1887
8346,1866
8347,1836
8348,1837
8349,1831
8350,1838
8351,1842
8352,1838
8353,1840
8354,1846
8355,1846
8356,1845
8357,1854
8358,1859
8359,1857
8360,1855
8361,1851
8362,1847
8363,1840
8364,1842
8365,1853
8366,1858
8367,1855
8368,1857
8369,1863
8370,1862
8371,1863
8372,1872
8373,1856
8374,1861
8375,1857
8376,1868
8377,1869
8378,1862
8379,1861
8380,1865
8381,1859
8382,1865
8383,1872
8384,1858
8385,1872
8386,1870
8387,1866
8388,1869
8389,1869
8390,1867
8391,1857
8392,1859
8393,1850
8394,1850
8395,1850
8396,1854
8397,1859
8398,1858
8399,1862
8400,1869
8401,1870
8402,1878
8403,1871
8404,1869
8405,1877
8406,1857
8407,1853
8408,1856
8409,1856
8410,1858
8411,1856
8412,1865
8413,1861
8414,1871
8415,1862
8416,1865
8417,1867
8418,1856
8419,1861
8420,1858
8421,1863
8422,1858
8423,1847
8424,1855
8425,1847
8426,1849
8427,1845
8428,1846
8429,1850
8430,1856
8431,1863
8432,1867
8433,1862
8434,1866
8435,1871
8436,1865
8437,1859
8438,1869
8439,1862
8440,1857
8441,1851
8442,1849
8443,1857
8444,1865
8445,1871
8446,1866
8447,1865
8448,1857
8449,1858
8450,1858
8451,1867
8452,1859
8453,1862
8454,1856
8455,1861
8456,1862
8457,1847
8458,1850
8459,1859
8460,1856
8461,1855
8462,1857
8463,1855
8464,1868
8465,1853
8466,1861
8467,1857
8468,1856
8469,1863
8470,1870
8471,1869
8472,1872
8473,1872
8474,1846
8475,1837
8476,1826
8477,1813
8478,1850
8479,1889
8480,1899
8481,1906
8482,1881
8483,1845
8484,1845
8485,1840
8486,1829
8487,1832
8488,1854
8489,1870
8490,1839
8491,1771
8492,1769
8493,1899
8494,1977
8495,1943
8496,1874
8497,1823
8498,1839
8499,1858
8500,1866
8501,1877
8502,1884
8503,1898
8504,1919
8505,1891
8506,1889
8507,1878
8508,1872
8509,1856
8510,1858
8511,1858
8512,1857
8513,1853
8514,1855
8515,1862
8516,1867
8517,1856
8518,1870
8519,1869
8520,1868
8521,1866
8522,1855
8523,1842
8524,1845
8525,1856
8526,1854
8527,1855
8528,1853
8529,1859
8530,1855
8531,1859
8532,1860
8533,1868
8534,1868
8535,1865
8536,1871
8537,1867
8538,1866
8539,1866
8540,1852
8541,1845
8542,1855
8543,1845
8544,1851
8545,1843
8546,1847
8547,1845
8548,1853
8549,1859
8550,1856
8551,1869
8552,1869
8553,1869
8554,1863
8555,1870
8556,1856
8557,1858
8558,1857
8559,1854
8560,1850
8561,1853
8562,1851
8563,1856
8564,1869
8565,1871
8566,1865
8567,1871
8568,1870
8569,1870
8570,1869
8571,1876
8572,1870
8573,1855
8574,1852
8575,1840
8576,1843
8577,1850
8578,1872
8579,1879
8580,1863
8581,1847
8582,1827
8583,1856
8584,1859
8585,1843
8586,1856
8587,1870
8588,1839
8589,1840
8590,1883
8591,1916
8592,1885
8593,1870
8594,1874
8595,1890
8596,1879
8597,1862
8598,1873
8599,1875
8600,1872
8601,1873
8602,1872
8603,1862
8604,1857
8605,1862
8606,1865
8607,1862
8608,1856
8609,1857
8610,1836
8611,1832
8612,1840
8613,1852
8614,1867
8615,1904
8616,1858
8617,1812
8618,1808
8619,1791
8620,1791
8621,1825
8622,1878
8623,1904
8624,1909
8625,1936
8626,1923
8627,1901
8628,1869
8629,1871
8630,1874
8631,1869
8632,1869
8633,1866
8634,1866
8635,1857
8636,1859
8637,1863
8638,1863
8639,1852
8640,1846
8641,1840
8642,1849
8643,1851
8644,1854
8645,1857
8646,1855
8647,1847
8648,1855
8649,1858
8650,1859
8651,1855
8652,1856
8653,1851
8654,1856
8655,1867
8656,1867
8657,1861
8658,1856
8659,1853
8660,1847
8661,1846
8662,1855
8663,1847
8664,1844
8665,1831
8666,1783
8667,1790
8668,1839
8669,1856
8670,1885
8671,1923
8672,1906
8673,1872
8674,1883
8675,1892
8676,1872
8677,1859
8678,1847
8679,1856
8680,1854
8681,1879
8682,1874
8683,1865
8684,1873
8685,1872
8686,1872
8687,1872
8688,1871
8689,1858
8690,1859
8691,1851
8692,1854
8693,1846
8694,1854
8695,1850
8696,1851
8697,1857
8698,1859
8699,1873
8700,1862
8701,1872
8702,1870
8703,1870
8704,1860
8705,1863
8706,1858
8707,1854
8708,1851
8709,1841
8710,1847
8711,1859
8712,1871
8713,1873
8714,1873
8715,1870
8716,1867
8717,1872
8718,1867
8719,1858
8720,1868
8721,1862
8722,1856
8723,1855
8724,1851
8725,1840
8726,1814
8727,1808
8728,1820
8729,1847
8730,1871
8731,1890
8732,1904
8733,1877
8734,1871
8735,1836
8736,1747
8737,1743
8738,1776
8739,1787
8740,1780
8741,1857
8742,1942
8743,1936
8744,1936
8745,1979
8746,1969
8747,1935
8748,1919
8749,1877
8750,1870
8751,1862
8752,1857
8753,1852
8754,1863
8755,1881
8756,1875
8757,1845
8758,1839
8759,1841
8760,1841
8761,1843
8762,1845
8763,1843
8764,1845
8765,1853
8766,1866
8767,1860
8768,1870
8769,1866
8770,1862
8771,1862
8772,1859
8773,1850
8774,1855
8775,1855
8776,1840
8777,1847
8778,1857
8779,1845
8780,1853
8781,1853
8782,1859
8783,1856
8784,1856
8785,1856
8786,1858
8787,1862
8788,1866
8789,1869
8790,1866
8791,1857
8792,1854
8793,1855
8794,1853
8795,1846
8796,1852
8797,1858
8798,1855
8799,1865
8800,1857
8801,1866
8802,1865
8803,1870
8804,1859
8805,1862
8806,1857
8807,1857
8808,1848
8809,1840
8810,1843
8811,1846
8812,1830
8813,1791
8814,1766
8815,1756
8816,1761
8817,1783
8818,1843
8819,1904
8820,1994
8821,2027
8822,1991
8823,1933
8824,1895
8825,1893
8826,1879
8827,1855
8828,1854
8829,1843
8830,1843
8831,1846
8832,1855
8833,1861
8834,1863
8835,1862
8836,1856
8837,1861
8838,1863
8839,1870
8840,1851
8841,1848
8842,1841
8843,1835
8844,1835
8845,1839
8846,1841
8847,1847
8848,1856
8849,1856
8850,1856
8851,1863
8852,1866
8853,1860
8854,1867
8855,1858
8856,1853
8857,1840
8858,1840
8859,1856
8860,1860
8861,1863
8862,1850
8863,1865
8864,1881
8865,1867
8866,1876
8867,1858
8868,1859
8869,1858
8870,1868
8871,1872
8872,1872
8873,1855
8874,1857
8875,1850
8876,1845
8877,1850
8878,1856
8879,1855
8880,1844
8881,1857
8882,1862
8883,1865
8884,1857
8885,1858
8886,1865
8887,1873
8888,1872
8889,1859
8890,1854
8891,1851
8892,1855
8893,1853
8894,1856
8895,1854
8896,1856
8897,1857
8898,1857
8899,1869
8900,1857
8901,1861
8902,1866
8903,1855
8904,1858
8905,1859
8906,1841
8907,1827
8908,1825
8909,1837
8910,1840
8911,1868
8912,1892
8913,1902
8914,1879
8915,1875
8916,1870
8917,1871
8918,1861
8919,1866
8920,1868
8921,1872
8922,1865
8923,1862
8924,1847
8925,1841
8926,1843
8927,1831
8928,1833
8929,1840
8930,1858
8931,1870
8932,1869
8933,1862
8934,1871
8935,1872
8936,1861
8937,1862
8938,1856
8939,1855
8940,1856
8941,1851
8942,1851
8943,1857
8944,1853
8945,1846
8946,1849
8947,1841
8948,1838
8949,1850
8950,1858
8951,1872
8952,1899
8953,1890
8954,1893
8955,1885
8956,1869
8957,1863
8958,1861
8959,1852
8960,1856
8961,1850
8962,1856
8963,1850
8964,1838
8965,1839
8966,1841
8967,1856
8968,1858
8969,1873
8970,1895
8971,1884
8972,1873
8973,1867
8974,1855
8975,1855
8976,1844
8977,1849
8978,1853
8979,1855
8980,1847
8981,1858
8982,1870
8983,1862
8984,1872
8985,1862
8986,1862
8987,1863
8988,1870
8989,1862
8990,1862
8991,1843
8992,1846
8993,1845
8994,1845
8995,1847
8996,1853
8997,1858
8998,1865
8999,1862
9000,1871
9001,1869
9002,1869
9003,1869
9004,1864
9005,1865
9006,1861
9007,1863
9008,1857
9009,1849
9010,1851
9011,1844
9012,1842
9013,1853
9014,1856
9015,1846
9016,1863
9017,1866
9018,1878
9019,1872
9020,1872
9021,1872
9022,1867
9023,1855
9024,1842
9025,1840
9026,1840
9027,1842
9028,1853
9029,1853
9030,1863
9031,1885
9032,1870
9033,1873
9034,1865
9035,1869
9036,1870
9037,1873
9038,1872
9039,1871
9040,1863
9041,1855
9042,1851
9043,1855
9044,1856
9045,1840
9046,1839
9047,1831
9048,1831
9049,1834
9050,1849
9051,1891
9052,1902
9053,1891
9054,1883
9055,1881
9056,1872
9057,1849
9058,1840
9059,1840
9060,1846
9061,1856
9062,1851
9063,1861
9064,1858
9065,1870
9066,1863
9067,1866
9068,1861
9069,1862
9070,1865
9071,1873
9072,1860
9073,1847
9074,1833
9075,1835
9076,1839
9077,1863
9078,1856
9079,1863
9080,1862
9081,1857
9082,1870
9083,1866
9084,1865
9085,1869
9086,1862
9087,1866
9088,1868
9089,1863
9090,1862
9091,1851
9092,1851
9093,1843
9094,1840
9095,1847
9096,1853
9097,1842
9098,1870
9099,1871
9100,1872
9101,1885
9102,1874
9103,1872
9104,1874
9105,1881
9106,1871
9107,1866
9108,1858
9109,1847
9110,1829
9111,1815
9112,1798
9113,1799
9114,1840
9115,1861
9116,1887
9117,1905
9118,1902
9119,1859
9120,1830
9121,1840
9122,1863
9123,1886
9124,1903
9125,1901
9126,1891
9127,1876
9128,1856
9129,1853
9130,1856
9131,1867
9132,1863
9133,1862
9134,1856
9135,1857
9136,1872
9137,1878
9138,1874
9139,1871
9140,1840
9141,1841
9142,1840
9143,1840
9144,1849
9145,1850
9146,1855
9147,1844
9148,1858
9149,1846
9150,1841
9151,1853
9152,1841
9153,1842
9154,1857
9155,1867
9156,1865
9157,1874
9158,1874
9159,1874
9160,1856
9161,1855
9162,1862
9163,1856
9164,1862
9165,1861
9166,1870
9167,1872
9168,1869
9169,1867
9170,1865
9171,1872
9172,1866
9173,1847
9174,1855
9175,1857
9176,1850
9177,1852
9178,1855
9179,1862
9180,1856
9181,1858
9182,1866
9183,1870
9184,1859
9185,1872
9186,1871
9187,1869
9188,1868
9189,1873
9190,1853
9191,1856
9192,1847
9193,1845
9194,1845
9195,1835
9196,1841
9197,1850
9198,1853
9199,1857
9200,1856
9201,1838
9202,1827
9203,1797
9204,1790
9205,1823
9206,1843
9207,1840
9208,1833
9209,1872
9210,1941
9211,1918
9212,1890
9213,1895
9214,1896
9215,1907
9216,1899
9217,1880
9218,1879
9219,1886
9220,1891
9221,1875
9222,1867
9223,1847
9224,1854
9225,1853
9226,1856
9227,1851
9228,1851
9229,1853
9230,1854
9231,1867
9232,1857
9233,1852
9234,1861
9235,1855
9236,1857
9237,1861
9238,1859
9239,1858
9240,1858
9241,1851
9242,1855
9243,1856
9244,1854
9245,1855
9246,1854
9247,1861
9248,1855
9249,1868
9250,1867
9251,1865
9252,1865
9253,1863
9254,1863
9255,1871
9256,1867
9257,1862
9258,1852
9259,1853
9260,1856
9261,1842
9262,1840
9263,1839
9264,1840
9265,1857
9266,1861
9267,1870
9268,1883
9269,1883
9270,1878
9271,1878
9272,1877
9273,1870
9274,1872
9275,1867
9276,1843
9277,1849
9278,1837
9279,1840
9280,1839
9281,1847
9282,1872
9283,1872
9284,1869
9285,1841
9286,1834
9287,1844
9288,1879
9289,1869
9290,1854
9291,1871
9292,1883
9293,1866
9294,1845
9295,1838
9296,1846
9297,1843
9298,1840
9299,1823
9300,1810
9301,1840
9302,1863
9303,1894
9304,1918
9305,1925
9306,1872
9307,1838
9308,1822
9309,1791
9310,1803
9311,1840
9312,1874
9313,1887
9314,1874
9315,1875
9316,1888
9317,1853
9318,1849
9319,1865
9320,1869
9321,1870
9322,1875
9323,1911
9324,1901
9325,1879
9326,1865
9327,1856
9328,1847
9329,1847
9330,1861
9331,1866
9332,1883
9333,1879
9334,1871
9335,1869
9336,1870
9337,1866
9338,1865
9339,1867
9340,1847
9341,1835
9342,1826
9343,1833
9344,1840
9345,1851
9346,1863
9347,1870
9348,1873
9349,1871
9350,1859
9351,1806
9352,772
9353,1845
9354,2124
9355,1943
9356,1840
9357,1813
9358,1679
9359,1402
9360,1232
9361,1744
9362,2217
9363,2154
9364,1994
9365,1909
9366,1871
9367,1882
9368,1956
9369,1943
9370,1911
9371,1918
9372,1943
9373,1984
9374,2033
9375,2134
9376,2149
9377,2032
9378,1936
9379,1886
9380,1889
9381,1905
9382,1890
9383,666
9384,1784
9385,2066
9386,1986
9387,1905
9388,1890
9389,1807
9390,1473
9391,1344
9392,1890
9393,2080
9394,1885
9395,1813
9396,1773
9397,1773
9398,1846
9399,1943
9400,2000
9401,1999
9402,1994
9403,1985
9404,1973
9405,1968
9406,1979
9407,2000
9408,1973
9409,1911
9410,1869
9411,1858
9412,1856
9413,1841
9414,598
9415,1621
9416,1779
9417,1698
9418,1712
9419,1887
9420,2096
9421,1801
9422,1629
9423,2072
9424,2032
9425,1905
9426,1872
9427,1791
9428,1774
9429,1846
9430,1941
9431,2006
9432,2032
9433,2032
9434,2020
9435,1999
9436,1968
9437,1935
9438,1904
9439,1877
9440,1863
9441,1840
9442,1838
9443,1825
9444,1830
9445,694
9446,1499
9447,1836
9448,1725
9449,1741
9450,1973
9451,2254
9452,1819
9453,1675
9454,1986
9455,1949
9456,1903
9457,1904
9458,1786
9459,1683
9460,1805
9461,1937
9462,2003
9463,2033
9464,2035
9465,2015
9466,1993
9467,1934
9468,1904
9469,1901
9470,1903
9471,1893
9472,1882
9473,1847
9474,1839
9475,1840
9476,1350
9477,1317
9478,1983
9479,1922
9480,1872
9481,2126
9482,2327
9483,1671
9484,1467
9485,1871
9486,1911
9487,1936
9488,1902
9489,1673
9490,1611
9491,1821
9492,1969
9493,2019
9494,2043
9495,2055
9496,2029
9497,1984
9498,1948
9499,1903
9500,1870
9501,1887
9502,1879
9503,1852
9504,1845
9505,1853
9506,1839
9507,2256
9508,1041
9509,2000
9510,2176
9511,2082
9512,2251
9513,2369
9514,1391
9515,1223
9516,1728
9517,1852
9518,1913
9519,1894
9520,1638
9521,1620
9522,1867
9523,2001
9524,2054
9525,2069
9526,2038
9527,1976
9528,1947
9529,1931
9530,1919
9531,1913
9532,1899
9533,1874
9534,1870
9535,1856
9536,1853
9537,1854
9538,1943
9539,1013
9540,1951
9541,2118
9542,1982
9543,2180
9544,2348
9545,1328
9546,1454
9547,1781
9548,1855
9549,1917
9550,1853
9551,1649
9552,1709
9553,1921
9554,2021
9555,2073
9556,2070
9557,2011
9558,1963
9559,1906
9560,1882
9561,1910
9562,1919
9563,1889
9564,1859
9565,1853
9566,1856
9567,1853
9568,1847
9569,1744
9570,703
9571,1878
9572,2172
9573,2031
9574,2198
9575,2320
9576,1209
9577,1414
9578,1717
9579,1787
9580,1842
9581,1827
9582,1761
9583,1859
9584,1999
9585,2081
9586,2105
9587,2095
9588,2032
9589,1968
9590,1930
9591,1901
9592,1893
9593,1872
9594,1862
9595,1840
9596,1838
9597,1837
9598,1839
9599,1841
9600,1842
9601,465
9602,1727
9603,2209
9604,2114
9605,2176
9606,2320
9607,1207
9608,1409
9609,1707
9610,1775
9611,1840
9612,1823
9613,1767
9614,1861
9615,2002
9616,2083
9617,2107
9618,2084
9619,2026
9620,1979
9621,1946
9622,1921
9623,1846
9624,1831
9625,1851
9626,1823
9627,1825
9628,1831
9629,1830
9630,1845
9631,1865
9632,555
9633,1597
9634,2181
9635,2145
9636,2183
9637,2320
9638,1214
9639,1383
9640,1679
9641,1759
9642,1826
9643,1828
9644,1840
9645,1937
9646,2023
9647,2096
9648,2112
9649,2091
9650,2013
9651,1946
9652,1904
9653,1879
9654,1883
9655,1877
9656,1861
9657,1853
9658,1831
9659,1819
9660,1831
9661,1840
9662,1845
9663,998
9664,1403
9665,2141
9666,2199
9667,2167
9668,2293
9669,1235
9670,1376
9671,1681
9672,1759
9673,1811
9674,1847
9675,1865
9676,1941
9677,2036
9678,2100
9679,2122
9680,2082
9681,2026
9682,1970
9683,1936
9684,1904
9685,1865
9686,1840
9687,1840
9688,1853
9689,1857
9690,1852
9691,1840
9692,1836
9693,1836
9694,2030
9695,1203
9696,2097
9697,2226
9698,2195
9699,2298
9700,1322
9701,1370
9702,1667
9703,1745
9704,1805
9705,1823
9706,1858
9707,1952
9708,2057
9709,2111
9710,2123
9711,2081
9712,2010
9713,1953
9714,1923
9715,1916
9716,1906
9717,1843
9718,1840
9719,1851
9720,1851
9721,1843
9722,1841
9723,1840
9724,1838
9725,2351
9726,1057
9727,2044
9728,2255
9729,2222
9730,2305
9731,1328
9732,1322
9733,1637
9734,1742
9735,1787
9736,1821
9737,1878
9738,1971
9739,2075
9740,2129
9741,2129
9742,2081
9743,2004
9744,1941
9745,1910
9746,1900
9747,1870
9748,1863
9749,1857
9750,1851
9751,1833
9752,1846
9753,1847
9754,1842
9755,1846
9756,1746
9757,701
9758,1914
9759,2268
9760,2207
9761,2321
9762,1465
9763,1226
9764,1647
9765,1743
9766,1798
9767,1845
9768,1903
9769,1991
9770,2073
9771,2133
9772,2151
9773,2079
9774,2012
9775,1947
9776,1917
9777,1891
9778,1887
9779,1862
9780,1855
9781,1856
9782,1845
9783,1831
9784,1829
9785,1840
9786,1844
9787,1846
9788,503
9789,1808
9790,2275
9791,2245
9792,2343
9793,1599
9794,1185
9795,1595
9796,1717
9797,1791
9798,1840
9799,1867
9800,1950
9801,2035
9802,2123
9803,2133
9804,2091
9805,2029
9806,1970
9807,1915
9808,1882
9809,1863
9810,1863
9811,1851
9812,1846
9813,1844
9814,1840
9815,1851
9816,1855
9817,1845
9818,1850
9819,431
9820,1739
9821,2299
9822,2288
9823,2352
9824,1683
9825,1113
9826,1535
9827,1709
9828,1779
9829,1822
9830,1856
9831,1951
9832,2042
9833,2113
9834,2147
9835,2112
9836,2042
9837,1977
9838,1919
9839,1881
9840,1863
9841,1856
9842,1854
9843,1840
9844,1835
9845,1839
9846,1837
9847,1843
9848,1853
9849,1866
9850,548
9851,1535
9852,2240
9853,2305
9854,2339
9855,1889
9856,1097
9857,1513
9858,1675
9859,1744
9860,1806
9861,1850
9862,1926
9863,2015
9864,2112
9865,2159
9866,2112
9867,2035
9868,1968
9869,1926
9870,1894
9871,1886
9872,1872
9873,1869
9874,1854
9875,1850
9876,1845
9877,1842
9878,1840
9879,1839
9880,1840
9881,1120
9882,1358
9883,2166
9884,2320
9885,2345
9886,1984
9887,1104
9888,1482
9889,1672
9890,1762
9891,1803
9892,1859
9893,1935
9894,2009
9895,2109
9896,2138
9897,2112
9898,2054
9899,1990
9900,1936
9901,1894
9902,1875
9903,1874
9904,1872
9905,1866
9906,1824
9907,1827
9908,1835
9909,1836
9910,1843
9911,1847
9912,2211
9913,1141
9914,2095
9915,2310
9916,2305
9917,2093
9918,1136
9919,1433
9920,1677
9921,1761
9922,1817
9923,1852
9924,1899
9925,2000
9926,2099
9927,2141
9928,2112
9929,2054
9930,1990
9931,1938
9932,1921
9933,1899
9934,1872
9935,1837
9936,1843
9937,1857
9938,1854
9939,1840
9940,1838
9941,1829
9942,1834
9943,2080
9944,890
9945,1991
9946,2294
9947,2259
9948,2174
9949,1199
9950,1355
9951,1685
9952,1776
9953,1826
9954,1855
9955,1915
9956,2013
9957,2109
9958,2151
9959,2129
9960,2064
9961,1990
9962,1934
9963,1903
9964,1891
9965,1859
9966,1850
9967,1840
9968,1842
9969,1844
9970,1850
9971,1853
9972,1857
9973,1850
9974,1855
9975,1849
9976,1857
9977,1853
9978,1844
9979,1840
9980,1842
9981,1843
9982,1854
9983,1851
9984,1852
9985,1855
9986,1856
9987,1855
9988,1859
9989,1872
9990,1851
9991,1850
9992,1856
9993,1859
9994,1857
9995,1852
9996,1845
9997,1857
9998,1856
9999,1856
10000,1860
10001,1855
10002,1857
10003,1863
10004,1871
10005,1870
10006,1877
10007,1870
10008,1853
10009,1856
10010,1855
10011,1856
10012,1849
10013,1847
10014,1840
10015,1850
10016,1835
10017,1843
10018,1847
10019,1859
10020,1871
10021,1874
10022,1875
10023,1858
10024,1855
10025,1853
10026,1855
10027,1847
10028,1847
10029,1846
10030,1852
10031,1856
10032,1856
10033,1865
10034,1871
10035,1867
10036,1872
10037,1867
10038,1871
10039,1871
10040,1860
10041,1840
10042,1836
10043,1840
10044,1845
10045,1841
10046,1850
10047,1857
10048,1853
10049,1857
10050,1857
10051,1855
10052,1863
10053,1866
10054,1863
10055,1870
10056,1867
10057,1862
10058,1852
10059,1845
10060,1855
10061,1851
10062,1855
10063,1858
10064,1856
10065,1856
10066,1856
10067,1858
10068,1850
10069,1858
10070,1867
10071,1872
10072,1872
10073,1866
10074,1856
10075,1850
10076,1843
10077,1843
10078,1853
10079,1859
10080,1856
10081,1870
10082,1869
10083,1874
10084,1872
10085,1863
10086,1863
10087,1871
10088,1858
10089,1870
10090,1877
10091,1873
10092,1862
10093,1842
10094,1831
10095,1833
10096,1826
10097,1790
10098,1824
10099,1900
10100,1917
10101,1911
10102,1887
10103,1857
10104,1856
10105,1871
10106,1866
10107,1871
10108,1858
10109,1856
10110,1843
10111,1853
10112,1853
10113,1856
10114,1856
10115,1853
10116,1861
10117,1865
10118,1854
10119,1861
10120,1863
10121,1861
10122,1871
10123,1859
10124,1851
10125,1848
10126,1846
10127,1841
10128,1837
10129,1863
10130,1888
10131,1872
10132,1864
10133,1861
10134,1862
10135,1861
10136,1857
10137,1861
10138,1859
10139,1860
10140,1859
10141,1859
10142,1862
10143,1853
10144,1852
10145,1851
10146,1857
10147,1856
10148,1859
10149,1870
10150,1862
10151,1862
10152,1875
10153,1875
10154,1879
10155,1875
10156,1870
10157,1865
10158,1854
10159,1856
10160,1855
10161,1855
10162,1857
10163,1854
10164,1847
10165,1852
10166,1858
10167,1852
10168,1854
10169,1862
10170,1862
10171,1863
10172,1866
10173,1882
10174,1872
10175,1869
10176,1872
10177,1868
10178,1856
10179,1856
10180,1856
10181,1858
10182,1835
10183,1831
10184,1840
10185,1790
10186,1756
10187,1808
10188,1871
10189,1884
10190,1874
10191,1936
10192,1968
10193,1905
10194,1861
10195,1854
10196,1842
10197,1845
10198,1873
10199,1919
10200,1904
10201,1887
10202,1874
10203,1875
10204,1872
10205,1874
10206,1866
10207,1869
10208,1869
10209,1856
10210,1849
10211,1852
10212,1851
10213,1856
10214,1855
10215,1854
10216,1862
10217,1851
10218,1866
10219,1856
10220,1865
10221,1858
10222,1857
10223,1854
10224,1842
10225,1835
10226,1839
10227,1853
10228,1855
10229,1847
10230,1859
10231,1857
10232,1857
10233,1859
10234,1856
10235,1862
10236,1859
10237,1862
10238,1871
10239,1871
10240,1859
10241,1861
10242,1859
10243,1855
10244,1850
10245,1854
10246,1856
10247,1856
10248,1870
10249,1868
10250,1863
10251,1872
10252,1872
10253,1863
10254,1861
10255,1867
10256,1865
10257,1871
10258,1862
10259,1850
10260,1855
10261,1861
10262,1856
10263,1851
10264,1859
10265,1863
10266,1860
10267,1869
10268,1871
10269,1871
10270,1873
10271,1868
10272,1874
10273,1872
10274,1872
10275,1861
10276,1851
10277,1857
10278,1861
10279,1862
10280,1865
10281,1870
10282,1873
10283,1871
10284,1869
10285,1870
10286,1872
10287,1869
10288,1859
10289,1867
10290,1870
10291,1857
10292,1856
10293,1862
10294,1858
10295,1857
10296,1860
10297,1858
10298,1870
10299,1870
10300,1866
10301,1872
10302,1870
10303,1871
10304,1872
10305,1872
10306,1877
10307,1871
10308,1861
10309,1863
10310,1851
10311,1845
10312,1854
10313,1841
10314,1841
10315,1856
10316,1866
10317,1869
10318,1882
10319,1862
10320,1871
10321,1869
10322,1871
10323,1872
10324,1867
10325,1867
10326,1857
10327,1853
10328,1854
10329,1857
10330,1862
10331,1866
10332,1875
10333,1875
10334,1875
10335,1872
10336,1866
10337,1869
10338,1863
10339,1865
10340,1861
10341,1844
10342,1843
10343,1846
10344,1846
10345,1847
10346,1859
10347,1858
10348,1856
10349,1859
10350,1857
10351,1845
10352,1853
10353,1853
10354,1861
10355,1872
10356,1869
10357,1869
10358,1867
10359,1877
10360,1872
10361,1855
10362,1850
10363,1858
10364,1865
10365,1870
10366,1869
10367,1861
10368,1869
10369,1861
10370,1862
10371,1863
10372,1883
10373,1862
10374,1862
10375,1850
10376,1856
10377,1855
10378,1855
10379,1850
10380,1854
10381,1850
10382,1851
10383,1866
10384,1873
10385,1875
10386,1872
10387,1872
10388,1879
10389,1872
10390,1863
10391,1861
10392,1865
10393,1853
10394,1854
10395,1851
10396,1855
10397,1853
10398,1857
10399,1856
10400,1866
10401,1859
10402,1861
10403,1865
10404,1872
10405,1869
10406,1861
10407,1854
10408,1854
10409,1853
10410,1842
10411,1847
10412,1852
10413,1862
10414,1863
10415,1857
10416,1855
10417,1860
10418,1861
10419,1872
10420,1869
10421,1872
10422,1870
10423,1871
10424,1853
10425,1855
10426,1847
10427,1853
10428,1849
10429,1843
10430,1852
10431,1851
10432,1862
10433,1867
10434,1859
10435,1866
10436,1867
10437,1866
10438,1871
10439,1870
10440,1866
10441,1857
10442,1858
10443,1862
10444,1851
10445,1850
10446,1849
10447,1857
10448,1857
10449,1867
10450,1869
10451,1871
10452,1872
10453,1872
10454,1875
10455,1879
10456,1867
10457,1862
10458,1859
10459,1857
10460,1849
10461,1854
10462,1854
10463,1841
10464,1855
10465,1858
10466,1860
10467,1858
10468,1866
10469,1863
10470,1872
10471,1879
10472,1876
10473,1866
10474,1872
10475,1857
10476,1861
10477,1851
10478,1855
10479,1856
10480,1854
10481,1866
10482,1860
10483,1862
10484,1862
10485,1856
10486,1851
10487,1854
10488,1842
10489,1834
10490,1817
10491,1819
10492,1818
10493,1808
10494,1823
10495,1857
10496,1889
10497,1903
10498,1910
10499,1892
10500,1882
10501,1891
10502,1920
10503,1922
10504,1924
10505,1919
10506,1895
10507,1872
10508,1859
10509,1847
10510,1851
10511,1850
10512,1855
10513,1854
10514,1843
10515,1840
10516,1852
10517,1861
10518,1860
10519,1867
10520,1874
10521,1875
10522,1871
10523,1867
10524,1856
10525,1840
10526,1847
10527,1842
10528,1844
10529,1851
10530,1851
10531,1850
10532,1867
10533,1874
10534,1881
10535,1882
10536,1872
10537,1868
10538,1874
10539,1871
10540,1859
10541,1867
10542,1865
10543,1854
10544,1851
10545,1855
10546,1863
10547,1860
10548,1862
10549,1866
10550,1865
10551,1872
10552,1872
10553,1860
10554,1859
10555,1867
10556,1858
10557,1859
10558,1854
10559,1856
10560,1851
10561,1855
10562,1854
10563,1859
10564,1862
10565,1862
10566,1859
10567,1862
10568,1870
10569,1873
10570,1869
10571,1872
10572,1868
10573,1872
10574,1872
10575,1856
10576,1859
10577,1853
10578,1851
10579,1855
10580,1857
10581,1862
10582,1863
10583,1847
10584,1860
10585,1866
10586,1867
10587,1865
10588,1872
10589,1871
10590,1858
10591,1860
10592,1858
10593,1843
10594,1850
10595,1852
10596,1846
10597,1852
10598,1855
10599,1863
10600,1863
10601,1872
10602,1873
10603,1862
10604,1859
10605,1847
10606,1827
10607,1812
10608,1813
10609,1813
10610,1806
10611,1827
10612,1853
10613,1884
10614,1917
10615,1903
10616,1847
10617,1841
10618,1840
10619,1872
10620,1891
10621,1903
10622,1901
10623,1909
10624,1886
10625,1883
10626,1883
10627,1869
10628,1863
10629,1847
10630,1850
10631,1856
10632,1863
10633,1886
10634,1887
10635,1882
10636,1872
10637,1869
10638,1861
10639,1867
10640,1845
10641,1851
10642,1841
10643,1840
10644,1840
10645,1841
10646,1841
10647,1849
10648,1850
10649,1852
10650,1855
10651,1850
10652,1867
10653,1867
10654,1863
10655,1868
10656,1863
10657,1851
10658,1859
10659,1856
10660,1850
10661,1849
10662,1850
10663,1855
10664,1863
10665,1851
10666,1856
10667,1865
10668,1867
10669,1867
10670,1868
10671,1872
10672,1869
10673,1859
10674,1846
10675,1855
10676,1846
10677,1845
10678,1853
10679,1855
10680,1856
10681,1856
10682,1863
10683,1861
10684,1866
10685,1863
10686,1869
10687,1868
10688,1869
10689,1863
10690,1867
10691,1858
10692,1856
10693,1858
10694,1853
10695,1853
10696,1851
10697,1843
10698,1846
10699,1838
10700,1843
10701,1849
10702,1857
10703,1825
10704,1805
10705,1808
10706,1827
10707,1851
10708,1887
10709,1907
10710,1911
10711,1881
10712,1840
10713,1840
10714,1837
10715,1840
10716,1856
10717,1906
10718,1939
10719,1966
10720,1939
10721,1899
10722,1872
10723,1872
10724,1889
10725,1884
10726,1874
10727,1866
10728,1856
10729,1845
10730,1846
10731,1853
10732,1856
10733,1845
10734,1854
10735,1856
10736,1852
10737,1853
10738,1858
10739,1859
10740,1859
10741,1849
10742,1846
10743,1855
10744,1855
10745,1850
10746,1851
10747,1854
10748,1857
10749,1863
10750,1859
10751,1870
10752,1863
10753,1863
10754,1869
10755,1870
10756,1861
10757,1858
10758,1859
10759,1857
10760,1855
10761,1853
10762,1852
10763,1852
10764,1846
10765,1856
10766,1853
10767,1847
10768,1863
10769,1863
10770,1867
10771,1867
10772,1870
10773,1872
10774,1866
10775,1854
10776,1847
10777,1856
10778,1854
10779,1854
10780,1859
10781,1865
10782,1867
10783,1861
10784,1841
10785,1844
10786,1827
10787,1809
10788,1827
10789,1840
10790,1827
10791,1849
10792,1878
10793,1897
10794,1920
10795,1920
10796,1902
10797,1903
10798,1901
10799,1883
10800,1883
10801,1872
10802,1871
10803,1866
10804,1857
10805,1861
10806,1856
10807,1852
10808,1843
10809,1844
10810,1849
10811,1842
10812,1842
10813,1842
10814,1847
10815,1855
10816,1851
10817,1872
10818,1877
10819,1870
10820,1851
10821,1833
10822,1815
10823,1798
10824,1805
10825,1855
10826,1911
10827,1913
10828,1904
10829,1887
10830,1871
10831,1857
10832,1851
10833,1861
10834,1846
10835,1801
10836,1787
10837,1808
10838,1849
10839,1878
10840,1897
10841,1890
10842,1904
10843,1917
10844,1899
10845,1872
10846,1862
10847,1869
10848,1867
10849,1871
10850,1882
10851,1889
10852,1889
10853,1868
10854,1859
10855,1856
10856,1862
10857,1845
10858,1844
10859,1848
10860,1847
10861,1839
10862,1838
10863,1835
10864,1834
10865,1837
10866,1856
10867,1869
10868,1894
10869,1891
10870,1873
10871,1872
10872,1872
10873,1873
10874,1870
10875,1871
10876,1862
10877,1851
10878,1850
10879,1847
10880,1855
10881,1856
10882,1849
10883,1849
10884,1857
10885,1856
10886,1856
10887,1859
10888,1868
10889,1859
10890,1857
10891,1856
10892,1858
10893,1863
10894,1852
10895,1855
10896,1857
10897,1867
10898,1867
10899,1866
10900,1858
10901,1862
10902,1870
10903,1867
10904,1863
10905,1867
10906,1869
10907,1858
10908,1860
10909,1851
10910,1858
10911,1855
10912,1854
10913,1851
10914,1850
10915,1860
10916,1859
10917,1861
10918,1865
10919,1863
10920,1854
10921,1856
10922,1856
10923,1863
10924,1859
10925,1856
10926,1856
10927,1859
10928,1856
10929,1847
10930,1840
10931,1837
10932,1840
10933,1858
10934,1874
10935,1884
10936,1884
10937,1905
10938,1922
10939,1888
10940,1872
10941,1864
10942,1859
10943,1843
10944,1846
10945,1850
10946,1850
10947,1850
10948,1855
10949,1866
10950,1859
10951,1861
10952,1867
10953,1866
10954,1866
10955,1863
10956,1865
10957,1858
10958,1855
10959,1851
10960,1856
10961,1854
10962,1853
10963,1860
10964,1855
10965,1858
10966,1863
10967,1857
10968,1850
10969,1851
10970,1853
10971,746
10972,1710
10973,1775
10974,1535
10975,1387
10976,1289
10977,1155
10978,1107
10979,1305
10980,1872
10981,2608
10982,2886
10983,2605
10984,2327
10985,2143
10986,2065
10987,2082
10988,1995
10989,1898
10990,1891
10991,1931
10992,2019
10993,2115
10994,2164
10995,2151
10996,2128
10997,2017
10998,1910
10999,1859
11000,1843
11001,1833
11002,777
11003,1577
11004,1731
11005,1457
11006,1258
11007,1136
11008,963
11009,902
11010,1216
11011,2011
11012,2882
11013,3089
11014,2651
11015,2288
11016,2100
11017,2068
11018,2118
11019,2128
11020,2082
11021,2027
11022,1994
11023,1959
11024,1925
11025,1904
11026,1876
11027,1853
11028,1831
11029,1815
11030,1808
11031,1803
11032,1791
11033,1200
11034,1415
11035,1763
11036,1521
11037,1329
11038,1158
11039,925
11040,806
11041,1133
11042,2077
11043,3163
11044,3188
11045,2559
11046,2194
11047,2047
11048,2093
11049,2133
11050,2129
11051,2081
11052,2011
11053,1981
11054,1965
11055,1935
11056,1914
11057,1877
11058,1847
11059,1820
11060,1795
11061,1787
11062,1790
11063,1787
11064,2295
11065,1175
11066,1795
11067,1637
11068,1424
11069,1290
11070,1053
11071,850
11072,1127
11073,2096
11074,3184
11075,3053
11076,2454
11077,2112
11078,1968
11079,1985
11080,2096
11081,2115
11082,2065
11083,2000
11084,1959
11085,1937
11086,1918
11087,1899
11088,1878
11089,1872
11090,1863
11091,1835
11092,1821
11093,1799
11094,1795
11095,2113
11096,1033
11097,1799
11098,1535
11099,1200
11100,1119
11101,1045
11102,989
11103,1435
11104,2499
11105,3535
11106,2934
11107,2318
11108,2059
11109,1978
11110,1975
11111,2039
11112,2067
11113,2029
11114,1995
11115,1981
11116,1943
11117,1923
11118,1878
11119,1863
11120,1857
11121,1849
11122,1823
11123,1811
11124,1803
11125,1794
11126,1691
11127,711
11128,1746
11129,1680
11130,1342
11131,1285
11132,1210
11133,1070
11134,1346
11135,2287
11136,3233
11137,2773
11138,2279
11139,2044
11140,1959
11141,1968
11142,2039
11143,2066
11144,2020
11145,1986
11146,1962
11147,1939
11148,1921
11149,1904
11150,1889
11151,1871
11152,1852
11153,1839
11154,1829
11155,1825
11156,1810
11157,1808
11158,491
11159,1697
11160,1810
11161,1457
11162,1390
11163,1333
11164,1174
11165,1346
11166,2197
11167,2989
11168,2610
11169,2223
11170,2026
11171,1968
11172,1962
11173,2019
11174,2042
11175,2025
11176,1942
11177,1885
11178,1885
11179,1894
11180,1925
11181,1981
11182,1969
11183,1879
11184,1851
11185,1831
11186,1814
11187,1818
11188,1827
11189,416
11190,1646
11191,1904
11192,1581
11193,1506
11194,1485
11195,1354
11196,1397
11197,2128
11198,2725
11199,2389
11200,2110
11201,1984
11202,1958
11203,1949
11204,1986
11205,2019
11206,2016
11207,2000
11208,1986
11209,1963
11210,1919
11211,1886
11212,1875
11213,1872
11214,1863
11215,1856
11216,1841
11217,1831
11218,1842
11219,1840
11220,640
11221,1459
11222,1971
11223,1683
11224,1562
11225,1580
11226,1499
11227,1456
11228,2026
11229,2559
11230,2300
11231,2039
11232,1957
11233,1936
11234,1936
11235,1963
11236,1986
11237,1998
11238,1999
11239,1994
11240,1976
11241,1954
11242,1920
11243,1879
11244,1866
11245,1849
11246,1838
11247,1833
11248,1823
11249,1816
11250,1827
11251,1518
11252,1283
11253,1984
11254,1712
11255,1567
11256,1655
11257,1709
11258,1535
11259,1937
11260,2399
11261,2180
11262,1993
11263,1933
11264,1939
11265,1946
11266,1963
11267,1986
11268,1988
11269,2000
11270,2009
11271,2007
11272,1990
11273,1955
11274,1872
11275,1819
11276,1840
11277,1835
11278,1840
11279,1837
11280,1838
11281,1831
11282,2353
11283,1081
11284,1971
11285,1808
11286,1616
11287,1714
11288,1835
11289,1600
11290,1744
11291,2247
11292,2155
11293,2005
11294,1936
11295,1933
11296,1927
11297,1941
11298,1957
11299,1986
11300,2000
11301,1983
11302,1959
11303,1951
11304,1946
11305,1937
11306,1923
11307,1899
11308,1877
11309,1858
11310,1846
11311,1837
11312,1833
11313,1910
11314,823
11315,1915
11316,1872
11317,1657
11318,1744
11319,1904
11320,1647
11321,1697
11322,2195
11323,2134
11324,1990
11325,1938
11326,1936
11327,1897
11328,1858
11329,1910
11330,1974
11331,1993
11332,2003
11333,1991
11334,1969
11335,1942
11336,1919
11337,1888
11338,1872
11339,1867
11340,1851
11341,1840
11342,1840
11343,1838
11344,1731
11345,577
11346,1834
11347,1910
11348,1651
11349,1761
11350,2013
11351,1791
11352,1673
11353,2117
11354,2077
11355,1961
11356,1936
11357,1918
11358,1876
11359,1863
11360,1907
11361,1962
11362,1985
11363,1993
11364,1989
11365,1981
11366,1953
11367,1915
11368,1887
11369,1878
11370,1871
11371,1862
11372,1855
11373,1844
11374,1840
11375,1840
11376,387
11377,1723
11378,1979
11379,1678
11380,1759
11381,2053
11382,1844
11383,1590
11384,2029
11385,2030
11386,1943
11387,1925
11388,1925
11389,1921
11390,1890
11391,1918
11392,1961
11393,1971
11394,1981
11395,1979
11396,1968
11397,1947
11398,1911
11399,1900
11400,1889
11401,1877
11402,1867
11403,1860
11404,1854
11405,1845
11406,1847
11407,294
11408,1637
11409,1971
11410,1600
11411,1680
11412,2032
11413,1937
11414,1621
11415,2064
11416,2062
11417,1946
11418,1917
11419,1919
11420,1920
11421,1895
11422,1913
11423,1965
11424,1984
11425,1993
11426,1997
11427,1971
11428,1950
11429,1922
11430,1898
11431,1873
11432,1872
11433,1862
11434,1856
11435,1861
11436,1853
11437,1841
11438,445
11439,1535
11440,2019
11441,1610
11442,1625
11443,2028
11444,2071
11445,1616
11446,1985
11447,2019
11448,1931
11449,1916
11450,1919
11451,1933
11452,1895
11453,1899
11454,1950
11455,1990
11456,1984
11457,1962
11458,1954
11459,1955
11460,1947
11461,1936
11462,1904
11463,1872
11464,1858
11465,1857
11466,1851
11467,1841
11468,1837
11469,1526
11470,1270
11471,2055
11472,1693
11473,1619
11474,2011
11475,2180
11476,1579
11477,1874
11478,1984
11479,1891
11480,1874
11481,1897
11482,1904
11483,1887
11484,1905
11485,1944
11486,1985
11487,2014
11488,2015
11489,1998
11490,1968
11491,1949
11492,1918
11493,1879
11494,1874
11495,1869
11496,1855
11497,1851
11498,1840
11499,1840
11500,2208
11501,1136
11502,2034
11503,1726
11504,1602
11505,1991
11506,2246
11507,1600
11508,1845
11509,1958
11510,1883
11511,1867
11512,1875
11513,1899
11514,1904
11515,1922
11516,1967
11517,1995
11518,2014
11519,2004
11520,1986
11521,1975
11522,1959
11523,1923
11524,1902
11525,1877
11526,1862
11527,1842
11528,1837
11529,1840
11530,1835
11531,2123
11532,878
11533,1958
11534,1701
11535,1456
11536,1825
11537,2292
11538,1700
11539,1936
11540,2061
11541,1919
11542,1885
11543,1878
11544,1889
11545,1903
11546,1920
11547,1958
11548,2003
11549,1993
11550,1981
11551,1968
11552,1972
11553,1979
11554,1962
11555,1934
11556,1901
11557,1874
11558,1856
11559,1839
11560,1827
11561,1826
11562,1755
11563,550
11564,1838
11565,1943
11566,1597
11567,1855
11568,2348
11569,1738
11570,1674
11571,1949
11572,1887
11573,1855
11574,1862
11575,1861
11576,1897
11577,1926
11578,1954
11579,1979
11580,2000
11581,2019
11582,2021
11583,1999
11584,1946
11585,1916
11586,1902
11587,1885
11588,1867
11589,1858
11590,1851
11591,1851
11592,1837
11593,1837
11594,1826
11595,1830
11596,1829
11597,1838
11598,1842
11599,1840
11600,1849
11601,1854
11602,1863
11603,1861
11604,1858
11605,1859
11606,1860
11607,1855
11608,1867
11609,1859
11610,1843
11611,1848
11612,1850
11613,1857
11614,1853
11615,1845
11616,1856
11617,1854
11618,1863
11619,1867
11620,1871
11621,1866
11622,1869
11623,1860
11624,1863
11625,1851
11626,1845
11627,1845
11628,1846
11629,1854
11630,1861
11631,1854
11632,1857
11633,1855
11634,1862
11635,1853
11636,1853
11637,1858
11638,1862
11639,1872
11640,1878
11641,1863
11642,1866
11643,1851
11644,1856
11645,1856
11646,1854
11647,1854
11648,1862
11649,1866
11650,1864
11651,1870
11652,1874
11653,1882
11654,1875
11655,1882
11656,1876
11657,1872
11658,1864
11659,1853
11660,1854
11661,1856
11662,1862
11663,1862
11664,1861
11665,1858
11666,1858
11667,1862
11668,1856
11669,1855
11670,1858
11671,1866
11672,1872
11673,1872
11674,1863
11675,1859
11676,1855
11677,1849
11678,1855
11679,1857
11680,1857
11681,1857
11682,1859
11683,1872
11684,1861
11685,1870
11686,1866
11687,1873
11688,1875
11689,1876
11690,1874
11691,1872
11692,1862
11693,1856
11694,1851
11695,1851
11696,1854
11697,1855
11698,1872
11699,1873
11700,1867
11701,1873
11702,1867
11703,1863
11704,1857
11705,1855
11706,1839
11707,1843
11708,1839
11709,1811
11710,1831
11711,1857
11712,1818
11713,1840
11714,1901
11715,1942
11716,1911
11717,1869
11718,1854
11719,1863
11720,1903
11721,1920
11722,1911
11723,1878
11724,1869
11725,1865
11726,1874
11727,1872
11728,1874
11729,1878
11730,1872
11731,1858
11732,1822
11733,1781
11734,1763
11735,1761
11736,1738
11737,1722
11738,1776
11739,1831
11740,1863
11741,1942
11742,2032
11743,2033
11744,1977
11745,1918
11746,1887
11747,1899
11748,1923
11749,1907
11750,1893
11751,1879
11752,1875
11753,1870
11754,1865
11755,1862
11756,1863
11757,1857
11758,1842
11759,1841
11760,1842
11761,1851
11762,1843
11763,1853
11764,1856
11765,1853
11766,1855
11767,1857
11768,1856
11769,1863
11770,1855
11771,1857
11772,1862
11773,1863
11774,1857
11775,1856
11776,1858
11777,1849
11778,1851
11779,1851
11780,1851
11781,1858
11782,1866
11783,1861
11784,1863
11785,1858
11786,1856
11787,1857
11788,1872
11789,1872
11790,1861
11791,1858
11792,1857
11793,1859
11794,1854
11795,1858
11796,1858
11797,1857
11798,1863
11799,1866
11800,1868
11801,1871
11802,1859
11803,1867
11804,1872
11805,1873
11806,1872
11807,1865
11808,1855
11809,1851
11810,1845
11811,1847
11812,1851
11813,1845
11814,1847
11815,1845
11816,1850
11817,1855
11818,1861
11819,1869
11820,1869
11821,1870
11822,1873
11823,1871
11824,1877
11825,1868
11826,1863
11827,1853
11828,1856
11829,1857
11830,1865
11831,1852
11832,1849
11833,1840
11834,1846
11835,1851
11836,1858
11837,1858
11838,1871
11839,1885
11840,1893
11841,1872
11842,1860
11843,1853
11844,1840
11845,1830
11846,1843
11847,1857
11848,1855
11849,1853
11850,1840
11851,1862
11852,1883
11853,1888
11854,1882
11855,1872
11856,1871
11857,1870
11858,1873
11859,1872
11860,1859
11861,1861
11862,1862
11863,1854
11864,1853
11865,1849
11866,1858
11867,1863
11868,1870
11869,1869
11870,1871
11871,1872
11872,1872
11873,1867
11874,1862
11875,1855
11876,1853
11877,1840
11878,1840
11879,1834
11880,1840
11881,1847
11882,1872
11883,1890
11884,1889
11885,1897
11886,1876
11887,1863
11888,1866
11889,1871
11890,1858
11891,1854
11892,1854
11893,1844
11894,1855
11895,1855
11896,1856
11897,1865
11898,1866
11899,1863
11900,1863
11901,1863
11902,1869
11903,1858
11904,1863
11905,1871
11906,1866
11907,1859
11908,1863
11909,1854
11910,1853
11911,1841
11912,1842
11913,1847
11914,1853
11915,1854
11916,1865
11917,1870
11918,1863
11919,1869
11920,1868
11921,1868
11922,1872
11923,1875
11924,1873
11925,1861
11926,1853
11927,1842
11928,1845
