Time(ms),Raw_ADC
544300,1914
544301,1904
544302,1911
544303,1984
544304,1952
544305,1887
544306,1835
544307,1799
544308,1769
544309,1776
544310,1798
544311,1839
544312,1813
544313,1842
544314,1871
544315,1876
544316,1893
544317,1927
544318,1906
544319,1935
544320,1975
544321,1921
544322,1859
544323,1815
544324,1825
544325,1776
544326,1787
544327,1791
544328,1807
544329,1817
544330,1830
544331,1875
544332,1902
544333,1913
544334,1928
544335,1933
544336,1979
544337,1980
544338,1903
544339,1846
544340,1807
544341,1787
544342,1777
544343,1787
544344,1794
544345,1808
544346,1839
544347,1856
544348,1906
544349,1910
544350,1905
544351,1904
544352,1917
544353,1984
544354,1940
544355,1874
544356,1834
544357,1803
544358,1767
544359,1769
544360,1797
544361,1840
544362,1834
544363,1850
544364,1880
544365,1907
544366,1902
544367,1904
544368,1910
544369,1935
544370,1984
544371,1919
544372,1872
544373,1822
544374,1805
544375,1775
544376,1782
544377,1783
544378,1808
544379,1823
544380,1850
544381,1886
544382,1902
544383,1905
544384,1904
544385,1904
544386,1974
544387,1991
544388,1920
544389,1867
544390,1830
544391,1786
544392,1779
544393,1789
544394,1798
544395,1807
544396,1837
544397,1856
544398,1907
544399,1904
0,1836
1,1883
2,1906
3,1909
4,1904
5,1921
6,1987
7,1954
8,1887
9,1840
10,1815
11,1776
12,1776
13,1787
14,1801
15,1809
16,1868
17,1889
18,1904
19,1916
20,1922
21,1919
22,1949
23,1975
24,1909
25,1870
26,1833
27,1819
28,1775
29,1788
30,1792
31,1809
32,1818
33,1840
34,1893
35,1906
36,1910
37,1904
38,1923
39,1985
40,1984
41,1904
42,1872
43,1808
44,1782
45,1775
46,1786
47,1808
48,1808
49,1839
50,1851
51,1874
52,1902
53,1904
54,1897
55,1910
56,1970
57,1953
58,1919
59,1840
60,1829
61,1785
62,1786
63,1776
64,1807
65,1814
66,1840
67,1867
68,1904
69,1910
70,1911
71,1908
72,1931
73,1985
74,1922
75,1871
76,1827
77,1808
78,1774
79,1775
80,1792
81,1822
82,1814
83,1842
84,1875
85,1888
86,1905
87,1905
88,1904
89,1952
90,1975
91,1903
92,1843
93,1827
94,1792
95,1777
96,1782
97,1792
98,1802
99,1824
100,1852
101,1897
102,1936
103,1920
104,1905
105,1926
106,1993
107,1951
108,1876
109,1839
110,1804
111,1776
112,1776
113,1783
114,1801
115,1808
116,1839
117,1860
118,1890
119,1907
120,1911
121,1912
122,1926
123,1984
124,1919
125,1882
126,1827
127,1798
128,1774
129,1470
130,901
131,2160
132,2595
133,2559
134,2427
135,2256
136,1994
137,1649
138,1487
139,1600
140,1680
141,1680
142,1717
143,1731
144,1711
145,1712
146,1737
147,1759
148,1798
149,1833
150,1861
151,1920
152,1938
153,1942
154,1937
155,1951
156,2007
157,1970
158,1909
159,1841
160,2813
161,561
162,2000
163,2582
164,2599
165,2416
166,2164
167,1841
168,1509
169,1472
170,1518
171,1649
172,1781
173,1903
174,1853
175,1809
176,1773
177,1808
178,1759
179,1789
180,1810
181,1838
182,1851
183,1874
184,1919
185,1937
186,1947
187,1937
188,1940
189,2001
190,2002
191,2001
192,370
193,1818
194,2771
195,2944
196,2662
197,2251
198,1770
199,1273
200,1149
201,1210
202,1479
203,1707
204,1775
205,1829
206,1895
207,1873
208,1850
209,1819
210,1809
211,1821
212,1822
213,1846
214,1848
215,1867
216,1904
217,1930
218,1968
219,1963
220,1945
221,1937
222,1968
223,496
224,1775
225,2832
226,3066
227,2739
228,2242
229,1634
230,1167
231,1047
232,1183
233,1535
234,1749
235,1824
236,1840
237,1855
238,1862
239,1920
240,1959
241,1908
242,1878
243,1876
244,1834
245,1823
246,1840
247,1843
248,1858
249,1875
250,1883
251,1918
252,1936
253,1937
254,955
255,1343
256,2705
257,3063
258,2799
259,2385
260,1759
261,1265
262,1072
263,1279
264,1591
265,1713
266,1752
267,1791
268,1843
269,1863
270,1879
271,1904
272,1947
273,2016
274,1963
275,1910
276,1868
277,1856
278,1829
279,1823
280,1834
281,1845
282,1853
283,1872
284,1919
285,1430
286,1060
287,2512
288,3026
289,2945
290,2544
291,1813
292,1295
293,1072
294,1296
295,1587
296,1694
297,1735
298,1725
299,1767
300,1782
301,1862
302,1881
303,1914
304,1954
305,1968
306,2033
307,1988
308,1916
309,1863
310,1857
311,1815
312,1821
313,1830
314,1834
315,1845
316,2766
317,595
318,2223
319,3021
320,3013
321,2559
322,1808
323,1299
324,1199
325,1487
326,1686
327,1734
328,1695
329,1727
330,1712
331,1734
332,1781
333,1828
334,1872
335,1925
336,1942
337,1953
338,1962
339,2006
340,2032
341,1950
342,1905
343,1869
344,1819
345,1798
346,1811
347,2135
348,382
349,2022
350,3175
351,3211
352,2625
353,1680
354,1050
355,1072
356,1600
357,1819
358,1807
359,1754
360,1731
361,1686
362,1699
363,1736
364,1797
365,1844
366,1875
367,1906
368,1955
369,1975
370,1967
371,1945
372,1962
373,2035
374,1968
375,1915
376,1856
377,1835
378,1806
379,445
380,1696
381,3504
382,3950
383,2928
384,1687
385,745
386,746
387,1267
388,1583
389,1762
390,1870
391,1810
392,1763
393,1741
394,1734
395,1762
396,1797
397,1810
398,1853
399,1890
400,1893
401,1961
402,1971
403,1968
404,1967
405,1970
406,2032
407,2009
408,1935
409,1882
410,834
411,1229
412,3357
413,4095
414,3399
415,1838
416,563
417,435
418,1141
419,1520
420,1680
421,1682
422,1765
423,1855
424,1820
425,1820
426,1823
427,1831
428,1818
429,1841
430,1856
431,1879
432,1899
433,1910
434,1938
435,1952
436,1950
437,1974
438,1968
439,2009
440,2017
441,1558
442,914
443,2875
444,4095
445,3666
446,1965
447,461
448,348
449,1085
450,1534
451,1741
452,1770
453,1779
454,1803
455,1829
456,1926
457,1971
458,1939
459,1908
460,1899
461,1849
462,1846
463,1859
464,1854
465,1875
466,1901
467,1918
468,1949
469,1950
470,1949
471,1939
472,2355
473,811
474,2693
475,4095
476,3934
477,2079
478,448
479,355
480,1089
481,1533
482,1689
483,1712
484,1753
485,1811
486,1832
487,1877
488,1917
489,1984
490,2029
491,1973
492,1936
493,1879
494,1853
495,1815
496,1827
497,1834
498,1853
499,1872
500,1879
501,1924
502,1933
503,2140
504,423
505,2158
506,4095
507,4095
508,2559
509,720
510,348
511,1061
512,1511
513,1664
514,1709
515,1692
516,1754
517,1787
518,1850
519,1901
520,1932
521,1947
522,1968
523,2032
524,1982
525,1933
526,1904
527,1869
528,1822
529,1826
530,1826
531,1835
532,1846
533,1863
534,1905
535,528
536,1726
537,3699
538,4095
539,2925
540,1101
541,450
542,1104
543,1582
544,1690
545,1678
546,1661
547,1677
548,1709
549,1747
550,1815
551,1904
552,1963
553,1968
554,1970
555,1979
556,2047
557,2032
558,1961
559,1911
560,1878
561,1821
562,1799
563,1795
564,1801
565,1829
566,711
567,1433
568,3323
569,4095
570,3095
571,1170
572,445
573,1202
574,1684
575,1790
576,1761
577,1706
578,1665
579,1689
580,1723
581,1774
582,1818
583,1863
584,1923
585,1963
586,1969
587,1972
588,1968
589,1994
590,2010
591,1937
592,1902
593,1883
594,1837
595,1799
596,1808
597,1353
598,941
599,2763
600,4095
601,3438
602,1566
603,437
604,985
605,1605
606,1886
607,1893
608,1792
609,1719
610,1712
611,1698
612,1727
613,1781
614,1819
615,1851
616,1892
617,1918
618,1957
619,1953
620,1939
621,1947
622,1968
623,2022
624,1972
625,1923
626,1866
627,1845
628,2119
629,656
630,2400
631,3852
632,3506
633,1780
634,581
635,934
636,1535
637,1786
638,1838
639,1850
640,1854
641,1803
642,1773
643,1762
644,1776
645,1779
646,1808
647,1825
648,1851
649,1875
650,1887
651,1936
652,1941
653,1958
654,1938
655,1938
656,1999
657,1993
658,1920
659,2255
660,419
661,1978
662,3479
663,3739
664,2211
665,642
666,721
667,1405
668,1776
669,1854
670,1830
671,1795
672,1823
673,1898
674,1874
675,1866
676,1848
677,1808
678,1810
679,1823
680,1827
681,1843
682,1871
683,1902
684,1920
685,1939
686,1945
687,1938
688,1934
689,1968
690,2009
691,453
692,1711
693,3261
694,3815
695,2531
696,862
697,662
698,1275
699,1665
700,1770
701,1833
702,1821
703,1808
704,1820
705,1850
706,1957
707,1965
708,1911
709,1865
710,1857
711,1808
712,1811
713,1831
714,1845
715,1867
716,1875
717,1890
718,1936
719,1945
720,1936
721,1919
722,743
723,1513
724,3056
725,3913
726,2905
727,1223
728,611
729,1162
730,1589
731,1737
732,1748
733,1761
734,1793
735,1808
736,1825
737,1870
738,1904
739,1968
740,2010
741,1931
742,1910
743,1862
744,1829
745,1807
746,1822
747,1826
748,1846
749,1887
750,1877
751,1918
752,1939
753,1942
754,1925
755,1935
756,1998
757,1968
758,1888
759,1832
760,1834
761,1792
762,1776
763,1786
764,1791
765,1809
766,1840
767,1855
768,1920
769,1926
770,1922
771,1911
772,1919
773,1983
774,1926
775,1863
776,1821
777,1799
778,1771
779,1774
780,1782
781,1818
782,1829
783,1840
784,1870
785,1915
786,1918
787,1899
788,1907
789,1951
790,1983
791,1907
792,1866
793,1830
794,1793
795,1770
796,1777
797,1791
798,1806
799,1824
800,1847
801,1893
802,1898
803,1904
804,1897
805,1905
806,1995
807,1994
808,1872
809,1851
810,1829
811,1776
812,1763
813,1775
814,1798
815,1808
816,1829
817,1851
818,1893
819,1906
820,1905
821,1907
822,1916
823,1998
824,1961
825,1911
826,1847
827,1807
828,1770
829,1758
830,1765
831,1786
832,1817
833,1831
834,1847
835,1883
836,1890
837,1884
838,1892
839,1955
840,2004
841,1911
842,1872
843,1826
844,1790
845,1751
846,1776
847,1781
848,1808
849,1827
850,1838
851,1878
852,1904
853,1911
854,1906
855,1913
856,1979
857,1972
858,1887
859,1830
860,1819
861,1763
862,1764
863,1777
864,1808
865,1808
866,1833
867,1856
868,1904
869,1907
870,1903
871,1904
872,1920
873,1984
874,1933
875,1882
876,1827
877,1797
878,1775
879,1776
880,1778
881,1793
882,1807
883,1822
884,1868
885,1916
886,1906
887,1911
888,1914
889,1938
890,1977
891,1905
892,1853
893,1817
894,1776
895,1759
896,1782
897,1781
898,1805
899,1823
900,1833
901,1872
902,1913
903,1931
904,1919
905,1920
906,1984
907,1975
908,1897
909,1843
910,1808
911,1791
912,1776
913,1787
914,1794
915,1809
916,1835
917,1843
918,1898
919,1901
920,1908
921,1904
922,1910
923,1979
924,1930
925,1869
926,1840
927,1827
928,1769
929,1789
930,1790
931,1795
932,1816
933,1840
934,1875
935,1910
936,1911
937,1911
938,1908
939,1949
940,1977
941,1906
942,1861
943,1820
944,1792
945,1792
946,1785
947,1790
948,1797
949,1826
950,1839
951,1891
952,1905
953,1904
954,1904
955,1911
956,1968
957,1971
958,1886
959,1859
960,1840
961,1787
962,1778
963,1782
964,1801
965,1808
966,1835
967,1857
968,1903
969,1906
970,1911
971,1910
972,1916
973,1982
974,1943
975,1872
976,1824
977,1811
978,1777
979,1783
980,1787
981,1809
982,1795
983,1829
984,1871
985,1886
986,1904
987,1904
988,1913
989,1952
990,1981
991,1919
992,1868
993,1828
994,1786
995,1766
996,1787
997,1789
998,1825
999,1843
1000,1829
1001,1898
1002,1909
1003,1913
1004,1918
1005,1904
1006,1989
1007,1969
1008,1898
1009,1845
1010,1810
1011,1776
1012,1774
1013,1786
1014,1794
1015,1819
1016,1828
1017,1862
1018,1894
1019,1911
1020,1911
1021,1904
1022,1910
1023,1995
1024,1943
1025,1899
1026,1856
1027,1825
1028,1781
1029,1787
1030,1791
1031,1801
1032,1822
1033,1840
1034,1869
1035,1910
1036,1906
1037,1909
1038,1907
1039,1954
1040,1983
1041,1913
1042,1863
1043,1803
1044,1785
1045,1764
1046,1787
1047,1805
1048,1806
1049,1830
1050,1840
1051,1872
1052,1905
1053,1914
1054,1909
1055,1917
1056,1981
1057,1970
1058,1904
1059,1851
1060,1823
1061,1781
1062,1777
1063,1791
1064,1793
1065,1810
1066,1831
1067,1850
1068,1905
1069,1908
1070,1921
1071,1926
1072,1910
1073,1991
1074,1945
1075,1897
1076,1839
1077,1813
1078,1778
1079,1774
1080,1792
1081,1821
1082,1818
1083,1840
1084,1876
1085,1904
1086,1904
1087,1904
1088,1904
1089,1955
1090,1978
1091,1911
1092,1858
1093,1815
1094,1794
1095,1766
1096,1779
1097,1793
1098,1827
1099,1838
1100,1842
1101,1875
1102,1904
1103,1901
1104,1904
1105,1913
1106,1979
1107,1965
1108,1899
1109,1853
1110,1833
1111,1781
1112,1773
1113,1788
1114,1795
1115,1809
1116,1835
1117,1850
1118,1891
1119,1922
1120,1927
1121,1915
1122,1920
1123,1987
1124,1934
1125,1879
1126,1839
1127,1819
1128,1782
1129,1777
1130,1792
1131,1821
1132,1810
1133,1837
1134,1872
1135,1894
1136,1902
1137,1889
1138,1901
1139,1939
1140,2005
1141,1923
1142,1889
1143,1831
1144,1792
1145,1771
1146,1785
1147,1790
1148,1808
1149,1826
1150,1841
1151,1875
1152,1904
1153,1911
1154,1914
1155,1914
1156,1969
1157,1968
1158,1899
1159,1847
1160,1809
1161,1777
1162,1773
1163,1797
1164,1795
1165,1813
1166,1838
1167,1858
1168,1893
1169,1903
1170,1914
1171,1911
1172,1923
1173,1982
1174,1950
1175,1888
1176,1824
1177,1808
1178,1785
1179,1781
1180,1793
1181,1813
1182,1818
1183,1840
1184,1866
1185,1887
1186,1902
1187,1906
1188,1918
1189,1949
1190,1984
1191,1920
1192,1871
1193,1822
1194,1796
1195,1772
1196,1782
1197,1788
1198,1809
1199,1823
1200,1840
1201,1889
1202,1904
1203,1910
1204,1906
1205,1915
1206,1985
1207,1965
1208,1895
1209,1857
1210,1840
1211,1799
1212,1783
1213,1791
1214,1799
1215,1808
1216,1833
1217,1846
1218,1886
1219,1901
1220,1907
1221,1893
1222,1910
1223,1975
1224,1937
1225,1894
1226,1838
1227,1820
1228,1779
1229,1777
1230,1801
1231,1824
1232,1837
1233,1848
1234,1881
1235,1904
1236,1903
1237,1904
1238,1904
1239,1939
1240,1976
1241,1918
1242,1870
1243,1833
1244,1798
1245,1776
1246,1787
1247,1792
1248,1808
1249,1815
1250,1840
1251,1888
1252,1886
1253,1904
1254,1903
1255,1899
1256,1963
1257,1965
1258,1904
1259,1851
1260,1820
1261,1791
1262,1783
1263,1789
1264,1796
1265,1808
1266,1833
1267,1837
1268,1899
1269,1925
1270,1916
1271,1911
1272,1917
1273,1975
1274,1951
1275,1893
1276,1840
1277,1823
1278,1791
1279,1776
1280,1782
1281,1798
1282,1808
1283,1834
1284,1851
1285,1886
1286,1904
1287,1921
1288,1919
1289,1950
1290,1984
1291,1916
1292,1861
1293,1821
1294,1801
1295,1776
1296,1786
1297,1794
1298,1810
1299,1825
1300,1845
1301,1881
1302,1905
1303,1909
1304,1907
1305,1913
1306,1964
1307,1953
1308,1908
1309,1877
1310,1826
1311,1791
1312,1773
1313,1790
1314,1791
1315,1795
1316,1824
1317,1856
1318,1894
1319,1914
1320,1914
1321,1908
1322,1913
1323,1980
1324,1949
1325,1887
1326,1838
1327,1821
1328,1782
1329,1781
1330,1787
1331,1805
1332,1808
1333,1839
1334,1893
1335,1936
1336,1920
1337,1921
1338,1905
1339,1930
1340,1983
1341,1919
1342,1873
1343,1825
1344,1791
1345,1774
1346,1788
1347,1787
1348,1806
1349,1828
1350,1840
1351,1856
1352,1903
1353,1917
1354,1916
1355,1929
1356,1971
1357,1973
1358,1903
1359,1837
1360,1809
1361,1788
1362,1776
1363,1790
1364,1803
1365,1815
1366,1838
1367,1861
1368,1895
1369,1904
1370,1913
1371,1914
1372,1914
1373,1983
1374,1936
1375,1877
1376,1809
1377,1809
1378,1778
1379,1777
1380,1807
1381,1809
1382,1821
1383,1841
1384,1849
1385,1904
1386,1913
1387,1914
1388,1910
1389,1952
1390,1982
1391,1914
1392,1872
1393,1823
1394,1809
1395,1773
1396,1791
1397,1791
1398,1808
1399,1829
1400,1840
1401,1892
1402,1896
1403,1926
1404,1904
1405,1912
1406,1961
1407,1948
1408,1902
1409,1855
1410,1829
1411,1779
1412,1769
1413,1787
1414,1780
1415,1808
1416,1823
1417,1847
1418,1893
1419,1898
1420,1911
1421,1914
1422,1951
1423,2015
1424,1986
1425,1911
1426,1827
1427,1831
1428,1773
1429,1769
1430,1777
1431,1777
1432,1807
1433,1829
1434,1861
1435,1904
1436,1899
1437,1903
1438,1899
1439,1929
1440,1994
1441,1936
1442,1895
1443,1840
1444,1808
1445,1776
1446,1775
1447,1792
1448,1807
1449,1819
1450,1840
1451,1889
1452,1904
1453,1911
1454,1914
1455,1915
1456,1971
1457,1971
1458,1885
1459,1829
1460,1797
1461,1767
1462,1773
1463,1804
1464,1802
1465,1813
1466,1840
1467,1858
1468,1875
1469,1907
1470,1918
1471,1907
1472,1922
1473,1986
1474,1949
1475,1898
1476,1849
1477,1809
1478,1774
1479,1776
1480,1805
1481,1806
1482,1825
1483,1827
1484,1882
1485,1909
1486,1909
1487,1910
1488,1907
1489,1934
1490,1983
1491,1913
1492,1870
1493,1809
1494,1792
1495,1784
1496,1786
1497,1788
1498,1807
1499,1809
1500,1867
1501,1879
1502,1907
1503,1907
1504,1906
1505,1911
1506,1957
1507,1974
1508,1904
1509,1842
1510,1809
1511,1781
1512,1778
1513,1807
1514,1809
1515,1818
1516,1838
1517,1856
1518,1890
1519,1905
1520,1904
1521,1904
1522,1908
1523,1982
1524,1949
1525,1885
1526,1825
1527,1797
1528,1764
1529,1780
1530,1806
1531,1813
1532,1821
1533,1850
1534,1858
1535,1902
1536,1910
1537,1911
1538,1909
1539,1934
1540,1984
1541,1920
1542,1869
1543,1820
1544,1798
1545,1773
1546,1783
1547,1781
1548,1801
1549,1823
1550,1875
1551,1895
1552,1894
1553,1899
1554,1895
1555,1908
1556,1947
1557,1958
1558,1901
1559,1855
1560,1823
1561,1779
1562,1774
1563,1783
1564,1791
1565,1808
1566,1817
1567,1856
1568,1893
1569,1908
1570,1904
1571,1911
1572,1918
1573,1987
1574,1945
1575,1886
1576,1836
1577,1812
1578,1787
1579,1776
1580,1785
1581,1785
1582,1802
1583,1835
1584,1889
1585,1908
1586,1904
1587,1910
1588,1899
1589,1932
1590,1986
1591,1920
1592,1869
1593,1830
1594,1799
1595,1775
1596,1783
1597,1787
1598,1807
1599,1819
1600,1840
1601,1873
1602,1921
1603,1927
1604,1909
1605,1915
1606,1958
1607,1959
1608,1894
1609,1859
1610,1824
1611,1781
1612,1760
1613,1781
1614,1790
1615,1808
1616,1825
1617,1850
1618,1889
1619,1897
1620,1889
1621,1895
1622,1925
1623,1984
1624,1955
1625,1883
1626,1843
1627,1829
1628,1786
1629,1775
1630,1787
1631,1795
1632,1813
1633,1840
1634,1856
1635,1890
1636,1901
1637,1902
1638,1917
1639,1947
1640,1975
1641,1904
1642,1856
1643,1825
1644,1802
1645,1773
1646,1783
1647,1787
1648,1806
1649,1829
1650,1842
1651,1878
1652,1904
1653,1904
1654,1904
1655,1903
1656,1957
1657,1975
1658,1922
1659,1861
1660,1838
1661,1797
1662,1774
1663,1794
1664,1807
1665,1822
1666,1840
1667,1855
1668,1892
1669,1908
1670,1904
1671,1897
1672,1904
1673,1948
1674,1927
1675,1902
1676,1837
1677,1803
1678,1791
1679,1802
1680,1803
1681,1810
1682,1825
1683,1843
1684,1876
1685,1898
1686,1911
1687,1906
1688,1899
1689,1921
1690,1953
1691,1902
1692,1872
1693,1856
1694,1830
1695,1792
1696,1799
1697,1793
1698,1824
1699,1837
1700,1847
1701,1889
1702,1889
1703,1898
1704,1893
1705,1894
1706,1934
1707,1936
1708,1891
1709,1867
1710,1833
1711,1801
1712,1785
1713,1803
1714,1809
1715,1825
1716,1843
1717,1861
1718,1888
1719,1903
1720,1904
1721,1899
1722,1904
1723,1952
1724,1956
1725,1878
1726,1837
1727,1826
1728,1782
1729,1795
1730,1806
1731,1817
1732,1826
1733,1845
1734,1869
1735,1894
1736,1901
1737,1900
1738,1888
1739,1910
1740,1968
1741,1927
1742,1871
1743,1835
1744,1819
1745,1782
1746,1803
1747,1809
1748,1822
1749,1835
1750,1854
1751,637
1752,1520
1753,2446
1754,2643
1755,2543
1756,2402
1757,2173
1758,1826
1759,1473
1760,1454
1761,1509
1762,1558
1763,1656
1764,1718
1765,1745
1766,1770
1767,1798
1768,1856
1769,1893
1770,1926
1771,1932
1772,1938
1773,1980
1774,1949
1775,1904
1776,1863
1777,1813
1778,1786
1779,1814
1780,1827
1781,1835
1782,1257
1783,1134
1784,2333
1785,2710
1786,2654
1787,2417
1788,2142
1789,1789
1790,1511
1791,1473
1792,1505
1793,1619
1794,1712
1795,1718
1796,1743
1797,1749
1798,1787
1799,1808
1800,1840
1801,1898
1802,1933
1803,1936
1804,1934
1805,1932
1806,1975
1807,1984
1808,1922
1809,1887
1810,1853
1811,1830
1812,1814
1813,2349
1814,727
1815,2185
1816,2858
1817,2836
1818,2555
1819,2182
1820,1707
1821,1370
1822,1327
1823,1392
1824,1613
1825,1712
1826,1738
1827,1755
1828,1726
1829,1745
1830,1771
1831,1795
1832,1840
1833,1879
1834,1913
1835,1925
1836,1938
1837,1936
1838,1941
1839,1947
1840,1996
1841,1947
1842,1901
1843,1871
1844,2533
1845,453
1846,1985
1847,2870
1848,2949
1849,2598
1850,2161
1851,1595
1852,1264
1853,1138
1854,1317
1855,1626
1856,1799
1857,1855
1858,1821
1859,1812
1860,1785
1861,1770
1862,1777
1863,1820
1864,1872
1865,1903
1866,1906
1867,1920
1868,1923
1869,1915
1870,1918
1871,1936
1872,1941
1873,1997
1874,1971
1875,1962
1876,438
1877,1871
1878,2684
1879,2785
1880,2515
1881,2112
1882,1585
1883,1253
1884,1187
1885,1475
1886,1735
1887,1821
1888,1839
1889,1856
1890,1903
1891,1867
1892,1841
1893,1826
1894,1836
1895,1820
1896,1839
1897,1849
1898,1875
1899,1902
1900,1891
1901,1930
1902,1938
1903,1942
1904,1931
1905,1933
1906,1979
1907,719
1908,1513
1909,2610
1910,2857
1911,2647
1912,2182
1913,1628
1914,1217
1915,1142
1916,1468
1917,1687
1918,1805
1919,1817
1920,1830
1921,1842
1922,1859
1923,1922
1924,1926
1925,1894
1926,1863
1927,1844
1928,1823
1929,1840
1930,1850
1931,1854
1932,1871
1933,1887
1934,1902
1935,1933
1936,1939
1937,1937
1938,1166
1939,1225
1940,2670
1941,3138
1942,2945
1943,2352
1944,1578
1945,1050
1946,1035
1947,1424
1948,1667
1949,1729
1950,1755
1951,1785
1952,1809
1953,1825
1954,1855
1955,1890
1956,1943
1957,1976
1958,1931
1959,1903
1960,1883
1961,1854
1962,1838
1963,1843
1964,1852
1965,1881
1966,1889
1967,1894
1968,1926
1969,2039
1970,845
1971,2429
1972,3152
1973,3103
1974,2448
1975,1535
1976,997
1977,1143
1978,1567
1979,1719
1980,1743
1981,1745
1982,1744
1983,1756
1984,1794
1985,1846
1986,1887
1987,1913
1988,1936
1989,1962
1990,2003
1991,1963
1992,1922
1993,1870
1994,1854
1995,1834
1996,1842
1997,1839
1998,1856
1999,1862
2000,2781
2001,576
2002,2269
2003,3191
2004,3170
2005,2473
2006,1535
2007,994
2008,1214
2009,1629
2010,1751
2011,1753
2012,1717
2013,1717
2014,1723
2015,1742
2016,1792
2017,1840
2018,1893
2019,1926
2020,1952
2021,1952
2022,1959
2023,2005
2024,1984
2025,1922
2026,1874
2027,1850
2028,1819
2029,1819
2030,1833
2031,1978
2032,401
2033,1969
2034,3634
2035,3939
2036,2781
2037,1457
2038,598
2039,967
2040,1521
2041,1680
2042,1728
2043,1735
2044,1706
2045,1704
2046,1718
2047,1763
2048,1818
2049,1847
2050,1879
2051,1939
2052,2032
2053,2095
2054,2032
2055,1969
2056,1971
2057,1936
2058,1837
2059,1827
2060,1825
2061,1823
2062,1808
2063,579
2064,1628
2065,3727
2066,4095
2067,3062
2068,1520
2069,432
2070,627
2071,1294
2072,1621
2073,1792
2074,1819
2075,1767
2076,1741
2077,1744
2078,1744
2079,1787
2080,1833
2081,1863
2082,1882
2083,1899
2084,1923
2085,1963
2086,1968
2087,1965
2088,1962
2089,1964
2090,2000
2091,1952
2092,1905
2093,1862
2094,961
2095,1238
2096,3282
2097,4095
2098,3355
2099,1621
2100,334
2101,565
2102,1254
2103,1609
2104,1726
2105,1754
2106,1792
2107,1843
2108,1808
2109,1808
2110,1815
2111,1825
2112,1833
2113,1863
2114,1872
2115,1894
2116,1911
2117,1905
2118,1931
2119,1943
2120,1947
2121,1951
2122,1957
2123,1988
2124,1968
2125,2064
2126,807
2127,2743
2128,4095
2129,3684
2130,1898
2131,368
2132,467
2133,1191
2134,1594
2135,1750
2136,1775
2137,1791
2138,1808
2139,1838
2140,1903
2141,1890
2142,1891
2143,1872
2144,1875
2145,1863
2146,1863
2147,1872
2148,1872
2149,1873
2150,1893
2151,1917
2152,1947
2153,1935
2154,1931
2155,1932
2156,2969
2157,598
2158,2448
2159,4095
2160,4094
2161,2135
2162,342
2163,366
2164,1151
2165,1582
2166,1727
2167,1778
2168,1824
2169,1830
2170,1844
2171,1858
2172,1904
2173,1987
2174,1986
2175,1931
2176,1885
2177,1877
2178,1846
2179,1829
2180,1837
2181,1837
2182,1855
2183,1878
2184,1900
2185,1932
2186,1936
2187,2009
2188,435
2189,2065
2190,4095
2191,4095
2192,2531
2193,614
2194,384
2195,1129
2196,1565
2197,1684
2198,1709
2199,1727
2200,1741
2201,1798
2202,1855
2203,1891
2204,1920
2205,1936
2206,1990
2207,2032
2208,1964
2209,1926
2210,1893
2211,1888
2212,1871
2213,1808
2214,1782
2215,1808
2216,1835
2217,1856
2218,1931
2219,592
2220,1783
2221,3744
2222,4095
2223,2914
2224,927
2225,498
2226,1198
2227,1610
2228,1683
2229,1680
2230,1663
2231,1693
2232,1683
2233,1742
2234,1806
2235,1894
2236,1931
2237,1935
2238,1939
2239,1994
2240,2082
2241,2013
2242,1935
2243,1890
2244,1841
2245,1808
2246,1805
2247,1808
2248,1830
2249,1829
2250,795
2251,1360
2252,3152
2253,4095
2254,3107
2255,1072
2256,535
2257,1266
2258,1680
2259,1787
2260,1774
2261,1673
2262,1651
2263,1665
2264,1697
2265,1734
2266,1799
2267,1858
2268,1918
2269,1948
2270,1954
2271,1957
2272,1968
2273,2032
2274,2010
2275,1936
2276,1884
2277,1859
2278,1830
2279,1782
2280,1808
2281,1602
2282,869
2283,2682
2284,4095
2285,3627
2286,1557
2287,451
2288,1009
2289,1612
2290,1885
2291,1879
2292,1818
2293,1748
2294,1712
2295,1661
2296,1707
2297,1766
2298,1792
2299,1840
2300,1856
2301,1936
2302,1944
2303,1983
2304,1981
2305,1968
2306,2007
2307,2009
2308,1937
2309,1907
2310,1872
2311,1808
2312,2513
2313,557
2314,2325
2315,3891
2316,3611
2317,1727
2318,543
2319,1002
2320,1585
2321,1797
2322,1847
2323,1891
2324,1872
2325,1807
2326,1766
2327,1785
2328,1749
2329,1755
2330,1776
2331,1807
2332,1844
2333,1861
2334,1903
2335,1962
2336,1946
2337,1957
2338,1963
2339,1959
2340,2033
2341,2000
2342,1936
2343,2075
2344,409
2345,1885
2346,3539
2347,3819
2348,2133
2349,510
2350,723
2351,1462
2352,1798
2353,1856
2354,1841
2355,1818
2356,1851
2357,1886
2358,1840
2359,1838
2360,1833
2361,1808
2362,1804
2363,1850
2364,1857
2365,1829
2366,1818
2367,1837
2368,1968
2369,1994
2370,1956
2371,1945
2372,1942
2373,2014
2374,2011
2375,1951
2376,1888
2377,1841
2378,1779
2379,1774
2380,1774
2381,1787
2382,1813
2383,1851
2384,1870
2385,1931
2386,1942
2387,1919
2388,1903
2389,1898
2390,1983
2391,1940
2392,1901
2393,1835
2394,1824
2395,1778
2396,1792
2397,1785
2398,1793
2399,1822
2400,1836
2401,1843
2402,1879
2403,1904
2404,1904
2405,1901
2406,1955
2407,1995
2408,1930
2409,1886
2410,1858
2411,1792
2412,1744
2413,1751
2414,1769
2415,1793
2416,1798
2417,1841
2418,1895
2419,1919
2420,1905
2421,1895
2422,1927
2423,2003
2424,1995
2425,1920
2426,1845
2427,1819
2428,1745
2429,1767
2430,1769
2431,1776
2432,1808
2433,1831
2434,1859
2435,1920
2436,1919
2437,1917
2438,1910
2439,1930
2440,2001
2441,1936
2442,1863
2443,1798
2444,1805
2445,1765
2446,1764
2447,1777
2448,1802
2449,1837
2450,1878
2451,1883
2452,1934
2453,1899
2454,1899
2455,1893
2456,1932
2457,1979
2458,1927
2459,1883
2460,1844
2461,1799
2462,1750
2463,1761
2464,1765
2465,1794
2466,1821
2467,1840
2468,1910
2469,1911
2470,1917
2471,1911
2472,1913
2473,1975
2474,1959
2475,1869
2476,1808
2477,1810
2478,1785
2479,1776
2480,1776
2481,1791
2482,1808
2483,1808
2484,1858
2485,1897
2486,1903
2487,1914
2488,1911
2489,1921
2490,1968
2491,1938
2492,1885
2493,1833
2494,1808
2495,1769
2496,1776
2497,1778
2498,1802
2499,1818
2500,1838
2501,1845
2502,1872
2503,1889
2504,1893
2505,1910
2506,1954
2507,1994
2508,1933
2509,1868
2510,1814
2511,1792
2512,1745
2513,1774
2514,1774
2515,1799
2516,1827
2517,1841
2518,1870
2519,1892
2520,1899
2521,1891
2522,1897
2523,1968
2524,1979
2525,1904
2526,1873
2527,1862
2528,1792
2529,1779
2530,1792
2531,1794
2532,1791
2533,1803
2534,1839
2535,1890
2536,1897
2537,1885
2538,1892
2539,1911
2540,1990
2541,1954
2542,1903
2543,1843
2544,1810
2545,1766
2546,1776
2547,1776
2548,1803
2549,1818
2550,1837
2551,1889
2552,1904
2553,1914
2554,1907
2555,1901
2556,1936
2557,1998
2558,1933
2559,1883
2560,1859
2561,1810
2562,1769
2563,1769
2564,1770
2565,1792
2566,1811
2567,1840
2568,1889
2569,1903
2570,1911
2571,1909
2572,1914
2573,1974
2574,1981
2575,1943
2576,1872
2577,1831
2578,1782
2579,1767
2580,1775
2581,1792
2582,1802
2583,1827
2584,1869
2585,1920
2586,1936
2587,1915
2588,1891
2589,1904
2590,1985
2591,1956
2592,1903
2593,1850
2594,1845
2595,1787
2596,1790
2597,1761
2598,1787
2599,1808
2600,1824
2601,1872
2602,1904
2603,1920
2604,1911
2605,1894
2606,1929
2607,1973
2608,1915
2609,1890
2610,1861
2611,1817
2612,1776
2613,1785
2614,1803
2615,1802
2616,1826
2617,1855
2618,1889
2619,1904
2620,1898
2621,1893
2622,1903
2623,1974
2624,1974
2625,1915
2626,1865
2627,1843
2628,1781
2629,1751
2630,1778
2631,1788
2632,1808
2633,1840
2634,1856
2635,1915
2636,1904
2637,1883
2638,1893
2639,1922
2640,1997
2641,1962
2642,1901
2643,1850
2644,1812
2645,1770
2646,1753
2647,1767
2648,1822
2649,1827
2650,1841
2651,1884
2652,1932
2653,1922
2654,1904
2655,1883
2656,1910
2657,1974
2658,1921
2659,1879
2660,1843
2661,1811
2662,1776
2663,1791
2664,1782
2665,1792
2666,1798
2667,1808
2668,1884
2669,1904
2670,1907
2671,1905
2672,1901
2673,1957
2674,1971
2675,1904
2676,1861
2677,1821
2678,1776
2679,1776
2680,1786
2681,1776
2682,1818
2683,1872
2684,1883
2685,1923
2686,1916
2687,1892
2688,1872
2689,1899
2690,1973
2691,1948
2692,1887
2693,1840
2694,1825
2695,1774
2696,1776
2697,1789
2698,1824
2699,1825
2700,1836
2701,1870
2702,1889
2703,1872
2704,1872
2705,1885
2706,1938
2707,2003
2708,1922
2709,1882
2710,1843
2711,1777
2712,1761
2713,1789
2714,1794
2715,1813
2716,1829
2717,1854
2718,1856
2719,1881
2720,1887
2721,1895
2722,1904
2723,1975
2724,1978
2725,1910
2726,1865
2727,1839
2728,1761
2729,1773
2730,1744
2731,1759
2732,1802
2733,1852
2734,1874
2735,1936
2736,1929
2737,1923
2738,1915
2739,1904
2740,1981
2741,1943
2742,1881
2743,1838
2744,1831
2745,1782
2746,1783
2747,1792
2748,1819
2749,1797
2750,1817
2751,1843
2752,1913
2753,1904
2754,1901
2755,1904
2756,1940
2757,1972
2758,1934
2759,1884
2760,1837
2761,1819
2762,1805
2763,1807
2764,1781
2765,1810
2766,1811
2767,1833
2768,1869
2769,1893
2770,1909
2771,1907
2772,1915
2773,1979
2774,1991
2775,1911
2776,1869
2777,1843
2778,1808
2779,1776
2780,1778
2781,1792
2782,1809
2783,1838
2784,1849
2785,1894
2786,1907
2787,1907
2788,1927
2789,1941
2790,2000
2791,1957
2792,1891
2793,1840
2794,1821
2795,1761
2796,1781
2797,1791
2798,1808
2799,1821
2800,1844
2801,1883
2802,1923
2803,1919
2804,1886
2805,1886
2806,1933
2807,1987
2808,1925
2809,1882
2810,1851
2811,1811
2812,1766
2813,1750
2814,1759
2815,1796
2816,1797
2817,1823
2818,1904
2819,1921
2820,1920
2821,1932
2822,1927
2823,1970
2824,1974
2825,1922
2826,1875
2827,1844
2828,1793
2829,1778
2830,1778
2831,1786
2832,1799
2833,1819
2834,1844
2835,1872
2836,1904
2837,1905
2838,1904
2839,1917
2840,1993
2841,1961
2842,1913
2843,1844
2844,1809
2845,1773
2846,1776
2847,1782
2848,1808
2849,1814
2850,1834
2851,1855
2852,1872
2853,1897
2854,1903
2855,1901
2856,1929
2857,1979
2858,1927
2859,1891
2860,1845
2861,1813
2862,1776
2863,1788
2864,1792
2865,1812
2866,1810
2867,1840
2868,1904
2869,1920
2870,1913
2871,1919
2872,1910
2873,1968
2874,1988
2875,1910
2876,1855
2877,1809
2878,1782
2879,1756
2880,1772
2881,1793
2882,1811
2883,1837
2884,1869
2885,1907
2886,1910
2887,1889
2888,1885
2889,1905
2890,1978
2891,1953
2892,1899
2893,1847
2894,1840
2895,1795
2896,1776
2897,1774
2898,1793
2899,1786
2900,1831
2901,1863
2902,1908
2903,1903
2904,1902
2905,1920
2906,1973
2907,1982
2908,1922
2909,1875
2910,1831
2911,1806
2912,1751
2913,1775
2914,1782
2915,1814
2916,1834
2917,1825
2918,1891
2919,1903
2920,1889
2921,1887
2922,1897
2923,1968
2924,1974
2925,1914
2926,1863
2927,1841
2928,1801
2929,1777
2930,1786
2931,1831
2932,1837
2933,1845
2934,1866
2935,1891
2936,1897
2937,1902
2938,1887
2939,1891
2940,1968
2941,1938
2942,1891
2943,1845
2944,1839
2945,1782
2946,1781
2947,1792
2948,1810
2949,1821
2950,1842
2951,1863
2952,1885
2953,1890
2954,1899
2955,1901
2956,1944
2957,2018
2958,1964
2959,1929
2960,1867
2961,1801
2962,1786
2963,1776
2964,1783
2965,1793
2966,1812
2967,1856
2968,1881
2969,1898
2970,1898
2971,1892
2972,1904
2973,1962
2974,1979
2975,1904
2976,1840
2977,1839
2978,1773
2979,1762
2980,1792
2981,1794
2982,1810
2983,1825
2984,1834
2985,1893
2986,1907
2987,1931
2988,1910
2989,1919
2990,1989
2991,1962
2992,1904
2993,1823
2994,1814
2995,1763
2996,1777
2997,1790
2998,1779
2999,1815
3000,1837
3001,1846
3002,1899
3003,1910
3004,1913
3005,1929
3006,1952
3007,1991
3008,1937
3009,1889
3010,1831
3011,1802
3012,1765
3013,1756
3014,1771
3015,1811
3016,1846
3017,1835
3018,1895
3019,1904
3020,1908
3021,1895
3022,1888
3023,1970
3024,2021
3025,1920
3026,1861
3027,1818
3028,1773
3029,1755
3030,1774
3031,1798
3032,1838
3033,1848
3034,1849
3035,1897
3036,1904
3037,1904
3038,1901
3039,1894
3040,1968
3041,1957
3042,1933
3043,1861
3044,1806
3045,1772
3046,1776
3047,1780
3048,1799
3049,1801
3050,1791
3051,1863
3052,1883
3053,1920
3054,1902
3055,1907
3056,1936
3057,1971
3058,1929
3059,1840
3060,1872
3061,1823
3062,1761
3063,1790
3064,1787
3065,1803
3066,1813
3067,1808
3068,1871
3069,1936
3070,1926
3071,1901
3072,1910
3073,1977
3074,1987
3075,1914
3076,1847
3077,1835
3078,1764
3079,1759
3080,1781
3081,1785
3082,1801
3083,1809
3084,1835
3085,1888
3086,1931
3087,1910
3088,1902
3089,1919
3090,1987
3091,1962
3092,1895
3093,1836
3094,1808
3095,1766
3096,1808
3097,1797
3098,1785
3099,1823
3100,1819
3101,1875
3102,1902
3103,1897
3104,1903
3105,1926
3106,1946
3107,1995
3108,1937
3109,1884
3110,1839
3111,1808
3112,1773
3113,1751
3114,1758
3115,1807
3116,1813
3117,1840
3118,1919
3119,1917
3120,1915
3121,1910
3122,1907
3123,1921
3124,1991
3125,1907
3126,1853
3127,1843
3128,1790
3129,1778
3130,1793
3131,1794
3132,1812
3133,1828
3134,1852
3135,1933
3136,1918
3137,1895
3138,1894
3139,1902
3140,1987
3141,1975
3142,1895
3143,1837
3144,1817
3145,1787
3146,1772
3147,1775
3148,1778
3149,1797
3150,1825
3151,1873
3152,1921
3153,1929
3154,1922
3155,1914
3156,1920
3157,1990
3158,1930
3159,1858
3160,1817
3161,1802
3162,1781
3163,1787
3164,1790
3165,1808
3166,1822
3167,1826
3168,1860
3169,1895
3170,1911
3171,1914
3172,1901
3173,1956
3174,1978
3175,1906
3176,1840
3177,1840
3178,1791
3179,1769
3180,1789
3181,1811
3182,1814
3183,1814
3184,1839
3185,1868
3186,1917
3187,1920
3188,1919
3189,1905
3190,2017
3191,1971
3192,1904
3193,1835
3194,1815
3195,1791
3196,1777
3197,1785
3198,1811
3199,1811
3200,1878
3201,1865
3202,1890
3203,1909
3204,1907
3205,1902
3206,1933
3207,1988
3208,1937
3209,1899
3210,1851
3211,1799
3212,1744
3213,1761
3214,1783
3215,1802
3216,1789
3217,1855
3218,1884
3219,1936
3220,1938
3221,1920
3222,1919
3223,1963
3224,1980
3225,1907
3226,1867
3227,1826
3228,1776
3229,1776
3230,1786
3231,1797
3232,1787
3233,1807
3234,1827
3235,1882
3236,1904
3237,1904
3238,1901
3239,1905
3240,1995
3241,1982
3242,1893
3243,1836
3244,1810
3245,1767
3246,1767
3247,1786
3248,1798
3249,1815
3250,1835
3251,1886
3252,1941
3253,1924
3254,1904
3255,1904
3256,1959
3257,2000
3258,1936
3259,1893
3260,1840
3261,1790
3262,1753
3263,1776
3264,1779
3265,1787
3266,1789
3267,1830
3268,1877
3269,1904
3270,1910
3271,1905
3272,1915
3273,1970
3274,1993
3275,1910
3276,1861
3277,1848
3278,1780
3279,1769
3280,1777
3281,1792
3282,1807
3283,1840
3284,1874
3285,1938
3286,1931
3287,1913
3288,1894
3289,1899
3290,1971
3291,1963
3292,1917
3293,1842
3294,1824
3295,1775
3296,1757
3297,1761
3298,1786
3299,1808
3300,1827
3301,1863
3302,1904
3303,1910
3304,1915
3305,1906
3306,1936
3307,1985
3308,1924
3309,1869
3310,1808
3311,1803
3312,1761
3313,1776
3314,1781
3315,1797
3316,1808
3317,1823
3318,1904
3319,1921
3320,1917
3321,1902
3322,1905
3323,1969
3324,1995
3325,1922
3326,1855
3327,1803
3328,1754
3329,1776
3330,1781
3331,1798
3332,1809
3333,1841
3334,1853
3335,1921
3336,1914
3337,1911
3338,1885
3339,1895
3340,1981
3341,1958
3342,1904
3343,1856
3344,1841
3345,1782
3346,1778
3347,1779
3348,1810
3349,1817
3350,1856
3351,1881
3352,1940
3353,1915
3354,1901
3355,1905
3356,1908
3357,1987
3358,1930
3359,1885
3360,1849
3361,1812
3362,1776
3363,1782
3364,1774
3365,1783
3366,1808
3367,1839
3368,1885
3369,1915
3370,1914
3371,1910
3372,1925
3373,491
3374,1910
3375,2559
3376,2624
3377,2473
3378,2210
3379,1904
3380,1534
3381,1349
3382,1428
3383,1535
3384,1662
3385,1786
3386,1808
3387,1814
3388,1850
3389,1859
3390,1950
3391,1950
3392,1894
3393,1842
3394,1817
3395,1774
3396,1789
3397,1811
3398,1837
3399,1846
3400,1851
3401,1899
3402,1941
3403,1961
3404,700
3405,1581
3406,2527
3407,2791
3408,2673
3409,2379
3410,1998
3411,1530
3412,1302
3413,1341
3414,1458
3415,1639
3416,1729
3417,1776
3418,1843
3419,1875
3420,1883
3421,1897
3422,1898
3423,1936
3424,1967
3425,1906
3426,1872
3427,1867
3428,1840
3429,1808
3430,1818
3431,1829
3432,1850
3433,1856
3434,1868
3435,940
3436,1380
3437,2507
3438,2903
3439,2816
3440,2546
3441,2134
3442,1563
3443,1328
3444,1235
3445,1364
3446,1535
3447,1642
3448,1679
3449,1725
3450,1761
3451,1808
3452,1870
3453,1898
3454,1904
3455,1918
3456,1950
3457,2039
3458,1991
3459,1962
3460,1888
3461,1857
3462,1815
3463,1822
3464,1813
3465,1826
3466,1918
3467,871
3468,2303
3469,2845
3470,2829
3471,2512
3472,2089
3473,1666
3474,1437
3475,1323
3476,1531
3477,1680
3478,1722
3479,1707
3480,1701
3481,1728
3482,1758
3483,1782
3484,1834
3485,1909
3486,1931
3487,1952
3488,1942
3489,1966
3490,2062
3491,2032
3492,1968
3493,1897
3494,1882
3495,1824
3496,1808
3497,2559
3498,445
3499,2070
3500,2851
3501,2866
3502,2559
3503,2063
3504,1562
3505,1253
3506,1299
3507,1700
3508,1819
3509,1827
3510,1790
3511,1755
3512,1720
3513,1717
3514,1738
3515,1808
3516,1838
3517,1877
3518,1931
3519,1947
3520,1958
3521,1948
3522,1947
3523,2016
3524,2023
3525,1965
3526,1904
3527,1869
3528,1825
3529,387
3530,1773
3531,2770
3532,2962
3533,2671
3534,2064
3535,1535
3536,1205
3537,1233
3538,1599
3539,1775
3540,1891
3541,1893
3542,1827
3543,1761
3544,1779
3545,1729
3546,1719
3547,1744
3548,1793
3549,1824
3550,1883
3551,1916
3552,1961
3553,1972
3554,1969
3555,1955
3556,1962
3557,2042
3558,1987
3559,1939
3560,599
3561,1488
3562,2789
3563,3125
3564,2772
3565,1968
3566,1185
3567,922
3568,1277
3569,1642
3570,1787
3571,1824
3572,1809
3573,1840
3574,1897
3575,1817
3576,1817
3577,1786
3578,1807
3579,1804
3580,1821
3581,1841
3582,1853
3583,1861
3584,1883
3585,1931
3586,1925
3587,1943
3588,1936
3589,1943
3590,2021
3591,1116
3592,1270
3593,2774
3594,3381
3595,2927
3596,1941
3597,960
3598,818
3599,1258
3600,1606
3601,1770
3602,1849
3603,1845
3604,1834
3605,1840
3606,1881
3607,1984
3608,1951
3609,1909
3610,1894
3611,1875
3612,1819
3613,1794
3614,1802
3615,1847
3616,1863
3617,1865
3618,1886
3619,1931
3620,1943
3621,1937
3622,1904
3623,897
3624,2816
3625,4095
3626,3602
3627,2288
3628,915
3629,434
3630,953
3631,1431
3632,1639
3633,1724
3634,1776
3635,1804
3636,1799
3637,1809
3638,1823
3639,1891
3640,2003
3641,2027
3642,1988
3643,1954
3644,1948
3645,1855
3646,1819
3647,1828
3648,1853
3649,1866
3650,1879
3651,1898
3652,1947
3653,2801
3654,560
3655,2448
3656,4095
3657,4095
3658,2661
3659,977
3660,356
3661,873
3662,1346
3663,1573
3664,1622
3665,1673
3666,1702
3667,1744
3668,1801
3669,1855
3670,1874
3671,1917
3672,1935
3673,2022
3674,2066
3675,1991
3676,1935
3677,1893
3678,1857
3679,1810
3680,1818
3681,1830
3682,1841
3683,1851
3684,1920
3685,496
3686,1989
3687,4095
3688,4095
3689,2795
3690,1200
3691,487
3692,959
3693,1456
3694,1633
3695,1636
3696,1657
3697,1684
3698,1697
3699,1730
3700,1793
3701,1859
3702,1935
3703,1969
3704,1989
3705,1982
3706,1999
3707,2034
3708,1964
3709,1937
3710,1897
3711,1856
3712,1813
3713,1808
3714,1808
3715,1819
3716,604
3717,1518
3718,3489
3719,4095
3720,3127
3721,1200
3722,336
3723,1003
3724,1637
3725,1770
3726,1731
3727,1702
3728,1695
3729,1674
3730,1707
3731,1735
3732,1793
3733,1867
3734,1920
3735,1972
3736,1990
3737,1982
3738,1955
3739,1949
3740,2035
3741,2017
3742,1936
3743,1892
3744,1857
3745,1798
3746,1789
3747,944
3748,1102
3749,3051
3750,4095
3751,3349
3752,1400
3753,335
3754,889
3755,1515
3756,1744
3757,1878
3758,1845
3759,1798
3760,1755
3761,1742
3762,1722
3763,1774
3764,1799
3765,1831
3766,1872
3767,1940
3768,1971
3769,1958
3770,1954
3771,1942
3772,1953
3773,2000
3774,2017
3775,1936
3776,1893
3777,1856
3778,1795
3779,720
3780,2621
3781,4095
3782,3692
3783,1586
3784,254
3785,791
3786,1488
3787,1751
3788,1815
3789,1811
3790,1872
3791,1883
3792,1830
3793,1799
3794,1817
3795,1809
3796,1814
3797,1830
3798,1829
3799,1855
3800,1888
3801,1904
3802,1962
3803,1947
3804,1946
3805,1942
3806,1943
3807,1984
3808,1951
3809,2867
3810,560
3811,2347
3812,4095
3813,3851
3814,1805
3815,294
3816,654
3817,1385
3818,1709
3819,1802
3820,1825
3821,1822
3822,1819
3823,1845
3824,1887
3825,1886
3826,1893
3827,1874
3828,1862
3829,1840
3830,1855
3831,1855
3832,1872
3833,1889
3834,1886
3835,1910
3836,1919
3837,1930
3838,1935
3839,1933
3840,2027
3841,428
3842,1989
3843,3809
3844,4095
3845,2289
3846,542
3847,575
3848,1296
3849,1648
3850,1769
3851,1802
3852,1814
3853,1812
3854,1811
3855,1836
3856,1866
3857,1943
3858,1941
3859,1921
3860,1897
3861,1897
3862,1854
3863,1842
3864,1842
3865,1853
3866,1853
3867,1858
3868,1897
3869,1926
3870,1927
3871,1936
3872,634
3873,1655
3874,3643
3875,4095
3876,2800
3877,768
3878,453
3879,1143
3880,1598
3881,1712
3882,1759
3883,1763
3884,1747
3885,1795
3886,1826
3887,1867
3888,1904
3889,1935
3890,2023
3891,2023
3892,1942
3893,1873
3894,1862
3895,1839
3896,1827
3897,1834
3898,1821
3899,1856
3900,1879
3901,1891
3902,1939
3903,993
3904,1275
3905,3129
3906,4095
3907,3386
3908,1209
3909,510
3910,1114
3911,1567
3912,1663
3913,1693
3914,1691
3915,1696
3916,1712
3917,1753
3918,1816
3919,1904
3920,1922
3921,1930
3922,1945
3923,1979
3924,2017
3925,1941
3926,1898
3927,1841
3928,1823
3929,1813
3930,1815
3931,1824
3932,1859
3933,1872
3934,1515
3935,1038
3936,2742
3937,4095
3938,3454
3939,1396
3940,606
3941,1173
3942,1633
3943,1759
3944,1773
3945,1723
3946,1702
3947,1714
3948,1719
3949,1751
3950,1799
3951,1850
3952,1920
3953,1941
3954,1953
3955,1949
3956,1959
3957,2025
3958,1987
3959,1946
3960,1893
3961,1846
3962,1804
3963,1823
3964,1824
3965,2763
3966,548
3967,2301
3968,4095
3969,3971
3970,1872
3971,461
3972,863
3973,1570
3974,1857
3975,1840
3976,1802
3977,1754
3978,1699
3979,1690
3980,1717
3981,1767
3982,1814
3983,1850
3984,1891
3985,1936
3986,1970
3987,1951
3988,1937
3989,1932
3990,2019
3991,2015
3992,1946
3993,1891
3994,1861
3995,1808
3996,1806
3997,1814
3998,1814
3999,1829
4000,1846
4001,1846
4002,1899
4003,1904
4004,1897
4005,1893
4006,1904
4007,1973
4008,1941
4009,1894
4010,1838
4011,1839
4012,1797
4013,1801
4014,1789
4015,1790
4016,1826
4017,1795
4018,1882
4019,1913
4020,1904
4021,1908
4022,1911
4023,1962
4024,1983
4025,1908
4026,1859
4027,1826
4028,1797
4029,1766
4030,1786
4031,1792
4032,1808
4033,1821
4034,1840
4035,1895
4036,1920
4037,1925
4038,1922
4039,1934
4040,1986
4041,1987
4042,1903
4043,1834
4044,1808
4045,1761
4046,1746
4047,1761
4048,1777
4049,1807
4050,1831
4051,1862
4052,1908
4053,1925
4054,1920
4055,1909
4056,1915
4057,1985
4058,1920
4059,1853
4060,1811
4061,1815
4062,1771
4063,1782
4064,1801
4065,1821
4066,1824
4067,1840
4068,1872
4069,1910
4070,1901
4071,1887
4072,1882
4073,1938
4074,1984
4075,1916
4076,1872
4077,1826
4078,1808
4079,1775
4080,1781
4081,1797
4082,1811
4083,1821
4084,1831
4085,1871
4086,1878
4087,1898
4088,1899
4089,1920
4090,1980
4091,1984
4092,1922
4093,1866
4094,1828
4095,1779
4096,1767
4097,1755
4098,1775
4099,1808
4100,1823
4101,1877
4102,1921
4103,1919
4104,1904
4105,1890
4106,1913
4107,1982
4108,1948
4109,1883
4110,1811
4111,1793
4112,1759
4113,1770
4114,1780
4115,1805
4116,1810
4117,1849
4118,1840
4119,1920
4120,1909
4121,1904
4122,1901
4123,1948
4124,2000
4125,1934
4126,1882
4127,1821
4128,1771
4129,1741
4130,1757
4131,1766
4132,1794
4133,1808
4134,1841
4135,1897
4136,1913
4137,1908
4138,1901
4139,1891
4140,1999
4141,1978
4142,1901
4143,1842
4144,1821
4145,1754
4146,1751
4147,1784
4148,1791
4149,1808
4150,1838
4151,1844
4152,1911
4153,1925
4154,1916
4155,1904
4156,1921
4157,2001
4158,1968
4159,1906
4160,1850
4161,1830
4162,1776
4163,1774
4164,1778
4165,1781
4166,1789
4167,1809
4168,1888
4169,1916
4170,1924
4171,1915
4172,1899
4173,1959
4174,1998
4175,1938
4176,1889
4177,1841
4178,1799
4179,1766
4180,1784
4181,1796
4182,1815
4183,1828
4184,1867
4185,1933
4186,1936
4187,1921
4188,1889
4189,1902
4190,1963
4191,1968
4192,1904
4193,1860
4194,1843
4195,1794
4196,1776
4197,1781
4198,1803
4199,1820
4200,1840
4201,1883
4202,1921
4203,1911
4204,1896
4205,1872
4206,1900
4207,1971
4208,1953
4209,1933
4210,1892
4211,1840
4212,1782
4213,1777
4214,1790
4215,1815
4216,1809
4217,1823
4218,1857
4219,1891
4220,1901
4221,1899
4222,1900
4223,1946
4224,2000
4225,1935
4226,1902
4227,1851
4228,1797
4229,1739
4230,1778
4231,1774
4232,1808
4233,1837
4234,1854
4235,1901
4236,1911
4237,1904
4238,1884
4239,1899
4240,1979
4241,1985
4242,1919
4243,1873
4244,1849
4245,1792
4246,1776
4247,1791
4248,1808
4249,1819
4250,1835
4251,1855
4252,1874
4253,1893
4254,1902
4255,1887
4256,1898
4257,1986
4258,1937
4259,1881
4260,1842
4261,1822
4262,1777
4263,1778
4264,1788
4265,1808
4266,1826
4267,1857
4268,1897
4269,1906
4270,1898
4271,1900
4272,1901
4273,1936
4274,1986
4275,1927
4276,1884
4277,1823
4278,1767
4279,1759
4280,1772
4281,1776
4282,1808
4283,1825
4284,1843
4285,1897
4286,1911
4287,1905
4288,1899
4289,1913
4290,2001
4291,1973
4292,1893
4293,1845
4294,1819
4295,1781
4296,1774
4297,1785
4298,1808
4299,1815
4300,1840
4301,1861
4302,1911
4303,1919
4304,1920
4305,1931
4306,1946
4307,2009
4308,1975
4309,1886
4310,1823
4311,1795
4312,1749
4313,1760
4314,1775
4315,1797
4316,1789
4317,1825
4318,1879
4319,1919
4320,1914
4321,1919
4322,1917
4323,1955
4324,1993
4325,1904
4326,1863
4327,1825
4328,1777
4329,1771
4330,1787
4331,1786
4332,1814
4333,1834
4334,1841
4335,1883
4336,1919
4337,1921
4338,1893
4339,1885
4340,1932
4341,1975
4342,1910
4343,1856
4344,1840
4345,1792
4346,1776
4347,1781
4348,1788
4349,1807
4350,1819
4351,1824
4352,1866
4353,1901
4354,1911
4355,1903
4356,1905
4357,2015
4358,2004
4359,1927
4360,1880
4361,1842
4362,1758
4363,1750
4364,1763
4365,1787
4366,1794
4367,1811
4368,1854
4369,1901
4370,1905
4371,1905
4372,1898
4373,1915
4374,1974
4375,1930
4376,1883
4377,1836
4378,1805
4379,1760
4380,1794
4381,1806
4382,1803
4383,1831
4384,1859
4385,1889
4386,1904
4387,1891
4388,1885
4389,1888
4390,1936
4391,1983
4392,1908
4393,1866
4394,1813
4395,1774
4396,1759
4397,1773
4398,1808
4399,1821
4400,1822
4401,1843
4402,1872
4403,1933
4404,1914
4405,1897
4406,1893
4407,1961
4408,1962
4409,1908
4410,1872
4411,1826
4412,1742
4413,1766
4414,1795
4415,1809
4416,1792
4417,1843
4418,1862
4419,1886
4420,1925
4421,1913
4422,1907
4423,1927
4424,1949
4425,1933
4426,1893
4427,1847
4428,1803
4429,1758
4430,1769
4431,1785
4432,1838
4433,1821
4434,1829
4435,1875
4436,1883
4437,1887
4438,1900
4439,1907
4440,1968
4441,1986
4442,1906
4443,1847
4444,1815
4445,1776
4446,1777
4447,1795
4448,1795
4449,1835
4450,1837
4451,1840
4452,1914
4453,1920
4454,1914
4455,1887
4456,1905
4457,1978
4458,1957
4459,1906
4460,1857
4461,1827
4462,1769
4463,1741
4464,1791
4465,1807
4466,1817
4467,1870
4468,1874
4469,1899
4470,1893
4471,1905
4472,1923
4473,1941
4474,1990
4475,1922
4476,1879
4477,1845
4478,1799
4479,1755
4480,1788
4481,1811
4482,1821
4483,1829
4484,1851
4485,1885
4486,1909
4487,1903
4488,1903
4489,1933
4490,1984
4491,1970
4492,1904
4493,1831
4494,1824
4495,1783
4496,1779
4497,1787
4498,1818
4499,1822
4500,1811
4501,1835
4502,1887
4503,1889
4504,1898
4505,1904
4506,1925
4507,1998
4508,1959
4509,1893
4510,1824
4511,1792
4512,1765
4513,1776
4514,1791
4515,1835
4516,1803
4517,1822
4518,1851
4519,1885
4520,1921
4521,1920
4522,1909
4523,1955
4524,1990
4525,1904
4526,1863
4527,1810
4528,1804
4529,1771
4530,1779
4531,1780
4532,1817
4533,1814
4534,1814
4535,1874
4536,1915
4537,1918
4538,1904
4539,1906
4540,1954
4541,1974
4542,1883
4543,1871
4544,1844
4545,1785
4546,1755
4547,1766
4548,1776
4549,1811
4550,1825
4551,1844
4552,1883
4553,1886
4554,1883
4555,1882
4556,1919
4557,1959
4558,1937
4559,1891
4560,1847
4561,1814
4562,1775
4563,1777
4564,1789
4565,1825
4566,1826
4567,1840
4568,1867
4569,1881
4570,1899
4571,1902
4572,1905
4573,1957
4574,1973
4575,1919
4576,1883
4577,1829
4578,1829
4579,1786
4580,1781
4581,1792
4582,1821
4583,1826
4584,1838
4585,1861
4586,1878
4587,1887
4588,1904
4589,1914
4590,1950
4591,1977
4592,1904
4593,1853
4594,1829
4595,1806
4596,1793
4597,1799
4598,1805
4599,1815
4600,1818
4601,1820
4602,1887
4603,1905
4604,1919
4605,1914
4606,1921
4607,1978
4608,1936
4609,1887
4610,1829
4611,1824
4612,1793
4613,1780
4614,1783
4615,1789
4616,1824
4617,1853
4618,1862
4619,1894
4620,1911
4621,1904
4622,1889
4623,1939
4624,1983
4625,1919
4626,1875
4627,1834
4628,1808
4629,1785
4630,1789
4631,1781
4632,1795
4633,1819
4634,1830
4635,1875
4636,1902
4637,1908
4638,1916
4639,1905
4640,1955
4641,1970
4642,1920
4643,1846
4644,1825
4645,1790
4646,1776
4647,1786
4648,1781
4649,1814
4650,1840
4651,1835
4652,1876
4653,1898
4654,1907
4655,1899
4656,1904
4657,1937
4658,1952
4659,1893
4660,1842
4661,1841
4662,1821
4663,1813
4664,1814
4665,1839
4666,1828
4667,1844
4668,1862
4669,1883
4670,1873
4671,1879
4672,1885
4673,1883
4674,1893
4675,1888
4676,1878
4677,1854
4678,1859
4679,1838
4680,1831
4681,1835
4682,1835
4683,1841
4684,1856
4685,1865
4686,1872
4687,1878
4688,1883
4689,1885
4690,1897
4691,1902
4692,1886
4693,1861
4694,1854
4695,1843
4696,1833
4697,1831
4698,1841
4699,1841
4700,1847
4701,1855
4702,1872
4703,1879
4704,1879
4705,1878
4706,1881
4707,1891
4708,1886
4709,1875
4710,1857
4711,1856
4712,1839
4713,1838
4714,1834
4715,1837
4716,1843
4717,1850
4718,1869
4719,1875
4720,1887
4721,1884
4722,1887
4723,1889
4724,1898
4725,1888
4726,1862
4727,1862
4728,1850
4729,1831
4730,1834
4731,1829
4732,1839
4733,1840
4734,1851
4735,1854
4736,1871
4737,1871
4738,1873
4739,1889
4740,1882
4741,1904
4742,1887
4743,1866
4744,1853
4745,1845
4746,1835
4747,1834
4748,1827
4749,1840
4750,1847
4751,1857
4752,1870
4753,1882
4754,1887
4755,1887
4756,1890
4757,1903
4758,1903
4759,1875
4760,1867
4761,1862
4762,1840
4763,1827
4764,1826
4765,1840
4766,1840
4767,1849
4768,1847
4769,1872
4770,1882
4771,1888
4772,1885
4773,1889
4774,1903
4775,1895
4776,1877
4777,1856
4778,1847
4779,1830
4780,1835
4781,1837
4782,1837
4783,1846
4784,1855
4785,1874
4786,1875
4787,1884
4788,1886
4789,1883
4790,1899
4791,1904
4792,1891
4793,1861
4794,1850
4795,1837
4796,1830
4797,1828
4798,1840
4799,1842
4800,1849
4801,1856
4802,1859
4803,1869
4804,1881
4805,1883
4806,1893
4807,1903
4808,1897
4809,1884
4810,1853
4811,1853
4812,1838
4813,1837
4814,1835
4815,1814
4816,1840
4817,1842
4818,1856
4819,1859
4820,1873
4821,1878
4822,1878
4823,1882
4824,1898
4825,1886
4826,1873
4827,1850
4828,1840
4829,1839
4830,1831
4831,1839
4832,1837
4833,1848
4834,1853
4835,1869
4836,1866
4837,1879
4838,1887
4839,1888
4840,1894
4841,1902
4842,1887
4843,1872
4844,1842
4845,1847
4846,1836
4847,1834
4848,1823
4849,1840
4850,1844
4851,1853
4852,1871
4853,1867
4854,1872
4855,1877
4856,1884
4857,1890
4858,1905
4859,1882
4860,1857
4861,1841
4862,1839
4863,1835
4864,1840
4865,1851
4866,1840
4867,1851
4868,1868
4869,1870
4870,1878
4871,1883
4872,1883
4873,1894
4874,1904
4875,1889
4876,1872
4877,1872
4878,1856
4879,1831
4880,1829
4881,1825
4882,1834
4883,1843
4884,1845
4885,1866
4886,1863
4887,1872
4888,1878
4889,1889
4890,1909
4891,1899
4892,1883
4893,1871
4894,1855
4895,1846
4896,1826
4897,1838
4898,1834
4899,1840
4900,1847
4901,1854
4902,1875
4903,1881
4904,1889
4905,1883
4906,1885
4907,1901
4908,1901
4909,1894
4910,1867
4911,1857
4912,1838
4913,1833
4914,1835
4915,1827
4916,1840
4917,1841
4918,1859
4919,1866
4920,1874
4921,1882
4922,1883
4923,1894
4924,1901
4925,1888
4926,1875
4927,1853
4928,1843
4929,1835
4930,1835
4931,1837
4932,1839
4933,1845
4934,1856
4935,1869
4936,1887
4937,1882
4938,1883
4939,1887
4940,1882
4941,1902
4942,1886
4943,1872
4944,1847
4945,1840
4946,1822
4947,1827
4948,1830
4949,1840
4950,1847
4951,1851
4952,1872
4953,1872
4954,1881
4955,1878
4956,1879
4957,1897
4958,1894
4959,1875
4960,1856
4961,1855
4962,1841
4963,1837
4964,1837
4965,1823
4966,1839
4967,1852
4968,1863
4969,1872
4970,1882
4971,1882
4972,1887
4973,1878
4974,1892
4975,1883
4976,1870
4977,1856
4978,1841
4979,1827
4980,1835
4981,1835
4982,1840
4983,1843
4984,1852
4985,1867
4986,1867
4987,1886
4988,1888
4989,1892
4990,1891
4991,1902
4992,1881
4993,1868
4994,2658
4995,480
4996,1972
4997,2559
4998,2613
4999,2447
5000,2205
5001,1937
5002,1591
5003,1435
5004,1535
5005,1641
5006,1728
5007,1791
5008,1807
5009,1792
5010,1786
5011,1776
5012,1801
5013,1808
5014,1820
5015,1826
5016,1842
5017,1864
5018,1875
5019,1899
5020,1913
5021,1920
5022,1914
5023,1919
5024,1936
5025,1919
5026,434
5027,1751
5028,2555
5029,2689
5030,2559
5031,2295
5032,1989
5033,1535
5034,1358
5035,1419
5036,1510
5037,1680
5038,1776
5039,1811
5040,1830
5041,1849
5042,1849
5043,1843
5044,1845
5045,1840
5046,1846
5047,1861
5048,1871
5049,1873
5050,1883
5051,1889
5052,1903
5053,1907
5054,1919
5055,1919
5056,1923
5057,686
5058,1509
5059,2559
5060,2813
5061,2672
5062,2336
5063,1936
5064,1493
5065,1347
5066,1326
5067,1459
5068,1671
5069,1771
5070,1808
5071,1823
5072,1835
5073,1845
5074,1867
5075,1872
5076,1872
5077,1879
5078,1872
5079,1867
5080,1872
5081,1870
5082,1879
5083,1876
5084,1898
5085,1897
5086,1911
5087,1915
5088,1201
5089,1175
5090,2423
5091,2839
5092,2729
5093,2415
5094,1981
5095,1535
5096,1325
5097,1264
5098,1485
5099,1693
5100,1763
5101,1786
5102,1812
5103,1827
5104,1840
5105,1842
5106,1875
5107,1905
5108,1912
5109,1917
5110,1904
5111,1894
5112,1889
5113,1872
5114,1874
5115,1872
5116,1875
5117,1879
5118,1879
5119,1873
5120,863
5121,2317
5122,2841
5123,2813
5124,2528
5125,2031
5126,1579
5127,1245
5128,1235
5129,1535
5130,1698
5131,1747
5132,1761
5133,1771
5134,1792
5135,1809
5136,1838
5137,1871
5138,1894
5139,1904
5140,1914
5141,1933
5142,1934
5143,1936
5144,1923
5145,1891
5146,1859
5147,1859
5148,1862
5149,1868
5150,2413
5151,460
5152,2064
5153,2893
5154,2983
5155,2698
5156,2095
5157,1520
5158,1135
5159,1211
5160,1568
5161,1724
5162,1751
5163,1745
5164,1751
5165,1778
5166,1775
5167,1808
5168,1836
5169,1879
5170,1907
5171,1919
5172,1927
5173,1930
5174,1953
5175,1936
5176,1923
5177,1904
5178,1890
5179,1868
5180,1859
5181,1891
5182,405
5183,1828
5184,2812
5185,3037
5186,2754
5187,2030
5188,1371
5189,1063
5190,1350
5191,1703
5192,1792
5193,1809
5194,1783
5195,1771
5196,1759
5197,1765
5198,1792
5199,1835
5200,1859
5201,1881
5202,1910
5203,1920
5204,1934
5205,1936
5206,1936
5207,1936
5208,1936
5209,1915
5210,1904
5211,1897
5212,1873
5213,657
5214,1439
5215,2701
5216,3026
5217,2823
5218,2041
5219,1315
5220,1074
5221,1426
5222,1728
5223,1813
5224,1844
5225,1829
5226,1803
5227,1791
5228,1799
5229,1795
5230,1820
5231,1845
5232,1865
5233,1881
5234,1899
5235,1906
5236,1921
5237,1918
5238,1921
5239,1935
5240,1936
5241,1938
5242,1907
5243,1886
5244,1139
5245,1082
5246,2530
5247,3089
5248,2905
5249,2081
5250,1215
5251,1041
5252,1446
5253,1746
5254,1833
5255,1834
5256,1820
5257,1818
5258,1815
5259,1814
5260,1827
5261,1840
5262,1845
5263,1856
5264,1869
5265,1877
5266,1885
5267,1904
5268,1914
5269,1909
5270,1916
5271,1933
5272,1917
5273,1910
5274,1922
5275,1792
5276,868
5277,2559
5278,3473
5279,3124
5280,2083
5281,1000
5282,839
5283,1366
5284,1689
5285,1786
5286,1810
5287,1825
5288,1808
5289,1809
5290,1822
5291,1856
5292,1874
5293,1895
5294,1883
5295,1897
5296,1877
5297,1879
5298,1890
5299,1899
5300,1897
5301,1903
5302,1911
5303,1904
5304,1907
5305,1907
5306,2795
5307,540
5308,2352
5309,3792
5310,3497
5311,2281
5312,936
5313,646
5314,1237
5315,1616
5316,1751
5317,1782
5318,1785
5319,1796
5320,1808
5321,1815
5322,1835
5323,1872
5324,1913
5325,1921
5326,1906
5327,1906
5328,1899
5329,1887
5330,1883
5331,1881
5332,1885
5333,1873
5334,1884
5335,1894
5336,1890
5337,1975
5338,421
5339,2027
5340,4033
5341,4095
5342,2735
5343,1071
5344,416
5345,978
5346,1444
5347,1637
5348,1711
5349,1743
5350,1750
5351,1759
5352,1783
5353,1818
5354,1878
5355,1899
5356,1927
5357,2012
5358,2022
5359,1953
5360,1854
5361,1856
5362,1870
5363,1865
5364,1871
5365,1868
5366,1872
5367,1875
5368,1884
5369,587
5370,1618
5371,3723
5372,4095
5373,3093
5374,1257
5375,363
5376,864
5377,1435
5378,1642
5379,1726
5380,1744
5381,1754
5382,1749
5383,1763
5384,1805
5385,1856
5386,1893
5387,1918
5388,1952
5389,1968
5390,1964
5391,1951
5392,1934
5393,1907
5394,1906
5395,1885
5396,1872
5397,1865
5398,1861
5399,1872
5400,947
5401,1247
5402,3297
5403,4095
5404,3537
5405,1487
5406,274
5407,720
5408,1365
5409,1664
5410,1727
5411,1749
5412,1751
5413,1747
5414,1755
5415,1786
5416,1824
5417,1861
5418,1889
5419,1921
5420,1934
5421,1946
5422,1943
5423,1941
5424,1954
5425,1943
5426,1920
5427,1901
5428,1877
5429,1873
5430,1867
5431,1981
5432,765
5433,2696
5434,4095
5435,4016
5436,1840
5437,279
5438,606
5439,1344
5440,1687
5441,1786
5442,1799
5443,1783
5444,1776
5445,1765
5446,1772
5447,1815
5448,1845
5449,1872
5450,1895
5451,1919
5452,1936
5453,1936
5454,1934
5455,1936
5456,1935
5457,1941
5458,1943
5459,1918
5460,1909
5461,1882
5462,2595
5463,474
5464,2234
5465,4095
5466,4095
5467,2138
5468,417
5469,544
5470,1302
5471,1680
5472,1783
5473,1814
5474,1821
5475,1808
5476,1794
5477,1798
5478,1819
5479,1821
5480,1855
5481,1872
5482,1901
5483,1910
5484,1903
5485,1898
5486,1916
5487,1924
5488,1927
5489,1929
5490,1930
5491,1932
5492,1918
5493,1991
5494,398
5495,1959
5496,4014
5497,4095
5498,2368
5499,533
5500,482
5501,1264
5502,1671
5503,1777
5504,1815
5505,1808
5506,1802
5507,1809
5508,1830
5509,1838
5510,1862
5511,1879
5512,1879
5513,1873
5514,1880
5515,1883
5516,1890
5517,1900
5518,1914
5519,1919
5520,1915
5521,1921
5522,1921
5523,1919
5524,1919
5525,561
5526,1621
5527,3577
5528,4095
5529,2756
5530,738
5531,395
5532,1178
5533,1639
5534,1767
5535,1782
5536,1792
5537,1793
5538,1795
5539,1808
5540,1845
5541,1893
5542,1897
5543,1904
5544,1898
5545,1891
5546,1887
5547,1883
5548,1876
5549,1893
5550,1897
5551,1903
5552,1906
5553,1919
5554,1917
5555,1915
5556,929
5557,1296
5558,3102
5559,4095
5560,3120
5561,1082
5562,468
5563,1104
5564,1600
5565,1744
5566,1782
5567,1779
5568,1771
5569,1781
5570,1787
5571,1828
5572,1872
5573,1902
5574,1921
5575,1923
5576,1913
5577,1907
5578,1920
5579,1895
5580,1888
5581,1883
5582,1886
5583,1878
5584,1889
5585,1889
5586,1898
5587,1877
5588,869
5589,2641
5590,4095
5591,3662
5592,1491
5593,461
5594,951
5595,1525
5596,1725
5597,1778
5598,1774
5599,1771
5600,1759
5601,1766
5602,1803
5603,1837
5604,1877
5605,1901
5606,1925
5607,1962
5608,1963
5609,1917
5610,1886
5611,1893
5612,1877
5613,1872
5614,1872
5615,1870
5616,1866
5617,1872
5618,1885
5619,1891
5620,1897
5621,1898
5622,1901
5623,1897
5624,1904
5625,1903
5626,1884
5627,1862
5628,1863
5629,1846
5630,1842
5631,1845
5632,1842
5633,1847
5634,1845
5635,1867
5636,1872
5637,1875
5638,1872
5639,1878
5640,1879
5641,1894
5642,1877
5643,1862
5644,1861
5645,1846
5646,1839
5647,1838
5648,1838
5649,1840
5650,1842
5651,1856
5652,1866
5653,1867
5654,1874
5655,1879
5656,1882
5657,1889
5658,1890
5659,1879
5660,1871
5661,1866
5662,1842
5663,1833
5664,1827
5665,1828
5666,1837
5667,1840
5668,1861
5669,1872
5670,1873
5671,1877
5672,1878
5673,1887
5674,1893
5675,1890
5676,1875
5677,1866
5678,1846
5679,1820
5680,1837
5681,1840
5682,1839
5683,1839
5684,1853
5685,1855
5686,1871
5687,1879
5688,1873
5689,1874
5690,1887
5691,1889
5692,1883
5693,1869
5694,1851
5695,1840
5696,1826
5697,1823
5698,1819
5699,1838
5700,1842
5701,1855
5702,1863
5703,1865
5704,1873
5705,1874
5706,1877
5707,1886
5708,1887
5709,1875
5710,1857
5711,1855
5712,1841
5713,1837
5714,1839
5715,1840
5716,1842
5717,1843
5718,1851
5719,1850
5720,1868
5721,1872
5722,1872
5723,1879
5724,1885
5725,1882
5726,1869
5727,1861
5728,1851
5729,1839
5730,1840
5731,1837
5732,1840
5733,1842
5734,1847
5735,1854
5736,1870
5737,1872
5738,1879
5739,1879
5740,1889
5741,1898
5742,1887
5743,1870
5744,1865
5745,1847
5746,1834
5747,1836
5748,1840
5749,1842
5750,1843
5751,1857
5752,1857
5753,1871
5754,1872
5755,1872
5756,1879
5757,1889
5758,1891
5759,1872
5760,1863
5761,1854
5762,1843
5763,1839
5764,1839
5765,1840
5766,1846
5767,1842
5768,1856
5769,1868
5770,1875
5771,1876
5772,1879
5773,1887
5774,1895
5775,1889
5776,1874
5777,1862
5778,1846
5779,1837
5780,1834
5781,1837
5782,1840
5783,1840
5784,1850
5785,1853
5786,1872
5787,1870
5788,1875
5789,1877
5790,1899
5791,1894
5792,1887
5793,1878
5794,1855
5795,1857
5796,1839
5797,1837
5798,1840
5799,1843
5800,1847
5801,1869
5802,1874
5803,1886
5804,1879
5805,1881
5806,1885
5807,1892
5808,1889
5809,1886
5810,1872
5811,1856
5812,1843
5813,1833
5814,1836
5815,1829
5816,1840
5817,1856
5818,1872
5819,1867
5820,1876
5821,1877
5822,1884
5823,1889
5824,1900
5825,1893
5826,1876
5827,1870
5828,1857
5829,1847
5830,1840
5831,1841
5832,1840
5833,1846
5834,1855
5835,1870
5836,1868
5837,1883
5838,1883
5839,1884
5840,1878
5841,1892
5842,1887
5843,1875
5844,1851
5845,1849
5846,1835
5847,1837
5848,1834
5849,1843
5850,1845
5851,1857
5852,1871
5853,1872
5854,1879
5855,1880
5856,1881
5857,1905
5858,1898
5859,1882
5860,1872
5861,1857
5862,1843
5863,1840
5864,1840
5865,1839
5866,1843
5867,1850
5868,1859
5869,1873
5870,1876
5871,1883
5872,1883
5873,1882
5874,1887
5875,1885
5876,1871
5877,1855
5878,1844
5879,1833
5880,1840
5881,1838
5882,1840
5883,1849
5884,1853
5885,1862
5886,1872
5887,1882
5888,1883
5889,1883
5890,1887
5891,1897
5892,1886
5893,1872
5894,1868
5895,1852
5896,1847
5897,1840
5898,1840
5899,1842
5900,1846
5901,1853
5902,1862
5903,1857
5904,1872
5905,1876
5906,1875
5907,1871
5908,1883
5909,1875
5910,1865
5911,1857
5912,1851
5913,1841
5914,1840
5915,1838
5916,1843
5917,1845
5918,1866
5919,1868
5920,1873
5921,1882
5922,1888
5923,1881
5924,1899
5925,1895
5926,1875
5927,1866
5928,1840
5929,1843
5930,1842
5931,1839
5932,1843
5933,1840
5934,1842
5935,1865
5936,1864
5937,1873
5938,1875
5939,1885
5940,1882
5941,1898
5942,1886
5943,1883
5944,1856
5945,1851
5946,1843
5947,1840
5948,1839
5949,1849
5950,1852
5951,1863
5952,1856
5953,1873
5954,1871
5955,1883
5956,1887
5957,1878
5958,1895
5959,1885
5960,1870
5961,1861
5962,1853
5963,1834
5964,1837
5965,1845
5966,1840
5967,1843
5968,1867
5969,1871
5970,1872
5971,1878
5972,1881
5973,1882
5974,1897
5975,1896
5976,1871
5977,1872
5978,1847
5979,1842
5980,1842
5981,1837
5982,1835
5983,1841
5984,1857
5985,1863
5986,1872
5987,1882
5988,1886
5989,1883
5990,1888
5991,1901
5992,1879
5993,1861
5994,1857
5995,1834
5996,1835
5997,1839
5998,1831
5999,1840
6000,1847
6001,1859
6002,1859
6003,1872
6004,1882
6005,1885
6006,1887
6007,1886
6008,1892
6009,1875
6010,1866
6011,1854
6012,1845
6013,1840
6014,1841
6015,1849
6016,1845
6017,1847
6018,1855
6019,1859
6020,1865
6021,1872
6022,1886
6023,1882
6024,1890
6025,1885
6026,1868
6027,1863
6028,1846
6029,1846
6030,1842
6031,1839
6032,1829
6033,1840
6034,1842
6035,1858
6036,1874
6037,1878
6038,1893
6039,1883
6040,1895
6041,1900
6042,1890
6043,1872
6044,1864
6045,1860
6046,1840
6047,1837
6048,1840
6049,1842
6050,1850
6051,1861
6052,1858
6053,1874
6054,1874
6055,1879
6056,1878
6057,1883
6058,1901
6059,1878
6060,1860
6061,1856
6062,1847
6063,1839
6064,1840
6065,1840
6066,1841
6067,1852
6068,1859
6069,1862
6070,1872
6071,1884
6072,1878
6073,1881
6074,1898
6075,1901
6076,1877
6077,1867
6078,1851
6079,1840
6080,1827
6081,1830
6082,1826
6083,1840
6084,1854
6085,1854
6086,1867
6087,1872
6088,1881
6089,1886
6090,1886
6091,1904
6092,1899
6093,1874
6094,1856
6095,1847
6096,1840
6097,1840
6098,1841
6099,1840
6100,1853
6101,1856
6102,1867
6103,1872
6104,1875
6105,1882
6106,1881
6107,1888
6108,1895
6109,1878
6110,1872
6111,1858
6112,1843
6113,1831
6114,1834
6115,1830
6116,1838
6117,1843
6118,1853
6119,1861
6120,1874
6121,1877
6122,1883
6123,1885
6124,1888
6125,1890
6126,1884
6127,1862
6128,1856
6129,1841
6130,1841
6131,1842
6132,1839
6133,1841
6134,1850
6135,1856
6136,1872
6137,1877
6138,1882
6139,1884
6140,1889
6141,1895
6142,1883
6143,1872
6144,1853
6145,1840
6146,1833
6147,1829
6148,1839
6149,1838
6150,1841
6151,1863
6152,1872
6153,1861
6154,1872
6155,1879
6156,1882
6157,1885
6158,1895
6159,1882
6160,1872
6161,1850
6162,1843
6163,1840
6164,1839
6165,1840
6166,1840
6167,1854
6168,1853
6169,1872
6170,1872
6171,1878
6172,1887
6173,1877
6174,1890
6175,1887
6176,1872
6177,1846
6178,1855
6179,1834
6180,1840
6181,1840
6182,1856
6183,1843
6184,1855
6185,1858
6186,1875
6187,1875
6188,1879
6189,1883
6190,1885
6191,1890
6192,1887
6193,1874
6194,1862
6195,1855
6196,1841
6197,1841
6198,1840
6199,1841
6200,1843
6201,1855
6202,1859
6203,1863
6204,1872
6205,1875
6206,1876
6207,1868
6208,1891
6209,1881
6210,1856
6211,1854
6212,1845
6213,1833
6214,1838
6215,1841
6216,1840
6217,1842
6218,1861
6219,1867
6220,1871
6221,1878
6222,1879
6223,1883
6224,1897
6225,1894
6226,1882
6227,1861
6228,1856
6229,1841
6230,1838
6231,1838
6232,1833
6233,1840
6234,1847
6235,1855
6236,1867
6237,1876
6238,1872
6239,1878
6240,1886
6241,1899
6242,1893
6243,1872
6244,1857
6245,1857
6246,1841
6247,1832
6248,1841
6249,1845
6250,1841
6251,1860
6252,1870
6253,1888
6254,1883
6255,1874
6256,1884
6257,1893
6258,1893
6259,1885
6260,1874
6261,1863
6262,1845
6263,1825
6264,1832
6265,1840
6266,1842
6267,1849
6268,1861
6269,1869
6270,1872
6271,1876
6272,1879
6273,1884
6274,1893
6275,1887
6276,1878
6277,1857
6278,1861
6279,1831
6280,1840
6281,1838
6282,1840
6283,1842
6284,1852
6285,1857
6286,1872
6287,1875
6288,1883
6289,1887
6290,1882
6291,1891
6292,1889
6293,1872
6294,1856
6295,1835
6296,1840
6297,1827
6298,1842
6299,1846
6300,1853
6301,1855
6302,1862
6303,1866
6304,1871
6305,1882
6306,1883
6307,1884
6308,1892
6309,1875
6310,1858
6311,1862
6312,1844
6313,1840
6314,1837
6315,1837
6316,1841
6317,1845
6318,1854
6319,1871
6320,1871
6321,1878
6322,1872
6323,1878
6324,1884
6325,1877
6326,1872
6327,1855
6328,1850
6329,1840
6330,1840
6331,1839
6332,1846
6333,1845
6334,1854
6335,1858
6336,1877
6337,1871
6338,1881
6339,1881
6340,1887
6341,1901
6342,1887
6343,1875
6344,1867
6345,1856
6346,1840
6347,1840
6348,1840
6349,1842
6350,1850
6351,1854
6352,1870
6353,1874
6354,1875
6355,1872
6356,1875
6357,1889
6358,1895
6359,1885
6360,1878
6361,1863
6362,1846
6363,1840
6364,1835
6365,1840
6366,1844
6367,1853
6368,1853
6369,1873
6370,1877
6371,1875
6372,1878
6373,1887
6374,1895
6375,1891
6376,1881
6377,1857
6378,1851
6379,1840
6380,1831
6381,1835
6382,1825
6383,1840
6384,1846
6385,1858
6386,1865
6387,1872
6388,1881
6389,1883
6390,1887
6391,1895
6392,1887
6393,1883
6394,1861
6395,1851
6396,1841
6397,1839
6398,1839
6399,1845
6400,1847
6401,1856
6402,1875
6403,1877
6404,1875
6405,1878
6406,1885
6407,1902
6408,1891
6409,1887
6410,1859
6411,1860
6412,1851
6413,1834
6414,1830
6415,1832
6416,1835
6417,1844
6418,1857
6419,1866
6420,1877
6421,1882
6422,1879
6423,1885
6424,1898
6425,1891
6426,1885
6427,1872
6428,1856
6429,1840
6430,1839
6431,1839
6432,1843
6433,1848
6434,1855
6435,1859
6436,1861
6437,1872
6438,1886
6439,1885
6440,1885
6441,1895
6442,1886
6443,1863
6444,1856
6445,1850
6446,1835
6447,1837
6448,1837
6449,1840
6450,1847
6451,1856
6452,1866
6453,1862
6454,1881
6455,1882
6456,1879
6457,1883
6458,1899
6459,1879
6460,1870
6461,1866
6462,1841
6463,1839
6464,1840
6465,1840
6466,1845
6467,1853
6468,1853
6469,1865
6470,1871
6471,1883
6472,1887
6473,1879
6474,1889
6475,1884
6476,1872
6477,1861
6478,1857
6479,1837
6480,1840
6481,1835
6482,1840
6483,1841
6484,1851
6485,1870
6486,1862
6487,1872
6488,1889
6489,1887
6490,1895
6491,1895
6492,1889
6493,1867
6494,1860
6495,1841
6496,1840
6497,1840
6498,1839
6499,1840
6500,1847
6501,1846
6502,1869
6503,1871
6504,1877
6505,1870
6506,1877
6507,1884
6508,1895
6509,1878
6510,1866
6511,1854
6512,1846
6513,1837
6514,1837
6515,1840
6516,1844
6517,1836
6518,1869
6519,1865
6520,1872
6521,1878
6522,1882
6523,1878
6524,1894
6525,1891
6526,1877
6527,1866
6528,1854
6529,1840
6530,1840
6531,1840
6532,1853
6533,1835
6534,1843
6535,1854
6536,1857
6537,1872
6538,1872
6539,1879
6540,1883
6541,1894
6542,1878
6543,1877
6544,1865
6545,1850
6546,1840
6547,1838
6548,1843
6549,1840
6550,1843
6551,1854
6552,1875
6553,1874
6554,1881
6555,1878
6556,1881
6557,1881
6558,1900
6559,1887
6560,1866
6561,1859
6562,1847
6563,1832
6564,1835
6565,1837
6566,1836
6567,1840
6568,1860
6569,1863
6570,1872
6571,1879
6572,1879
6573,1885
6574,1890
6575,1893
6576,1878
6577,1865
6578,1857
6579,1837
6580,1840
6581,1840
6582,1840
6583,1846
6584,1846
6585,1865
6586,1861
6587,1874
6588,1886
6589,1883
6590,1878
6591,1898
6592,1886
6593,1857
6594,1850
6595,1847
6596,1840
6597,1835
6598,1840
6599,1847
6600,1847
6601,1857
6602,1855
6603,1869
6604,1882
6605,1882
6606,1879
6607,1884
6608,1898
6609,1879
6610,1873
6611,1870
6612,1850
6613,1840
6614,1840
6615,1838
6616,1931
6617,802
6618,2187
6619,2696
6620,2667
6621,2435
6622,2154
6623,1863
6624,1498
6625,1433
6626,1535
6627,1648
6628,1703
6629,1747
6630,1760
6631,1764
6632,1781
6633,1787
6634,1809
6635,1836
6636,1867
6637,1878
6638,1893
6639,1901
6640,1917
6641,1927
6642,1919
6643,1913
6644,1894
6645,1883
6646,1871
6647,2253
6648,423
6649,1969
6650,2672
6651,2757
6652,2591
6653,2309
6654,1967
6655,1513
6656,1373
6657,1373
6658,1495
6659,1649
6660,1744
6661,1763
6662,1776
6663,1778
6664,1798
6665,1811
6666,1836
6667,1855
6668,1875
6669,1904
6670,1911
6671,1923
6672,1923
6673,1931
6674,1936
6675,1933
6676,1916
6677,1904
6678,1895
6679,438
6680,1719
6681,2609
6682,2772
6683,2607
6684,2288
6685,1907
6686,1484
6687,1391
6688,1361
6689,1514
6690,1702
6691,1801
6692,1820
6693,1818
6694,1810
6695,1819
6696,1807
6697,1826
6698,1841
6699,1857
6700,1873
6701,1888
6702,1904
6703,1915
6704,1919
6705,1919
6706,1924
6707,1929
6708,1933
6709,1920
6710,638
6711,1517
6712,2512
6713,2742
6714,2625
6715,2304
6716,1880
6717,1493
6718,1360
6719,1340
6720,1558
6721,1731
6722,1793
6723,1819
6724,1840
6725,1842
6726,1841
6727,1839
6728,1841
6729,1854
6730,1862
6731,1873
6732,1877
6733,1882
6734,1888
6735,1896
6736,1904
6737,1915
6738,1920
6739,1918
6740,1907
6741,1261
6742,1126
6743,2411
6744,2825
6745,2767
6746,2431
6747,1968
6748,1535
6749,1275
6750,1226
6751,1519
6752,1710
6753,1776
6754,1807
6755,1811
6756,1823
6757,1840
6758,1852
6759,1867
6760,1872
6761,1885
6762,1875
6763,1874
6764,1879
6765,1887
6766,1885
6767,1890
6768,1896
6769,1905
6770,1913
6771,1913
6772,2315
6773,761
6774,2281
6775,2913
6776,2907
6777,2558
6778,2006
6779,1502
6780,1177
6781,1188
6782,1520
6783,1702
6784,1749
6785,1762
6786,1792
6787,1808
6788,1822
6789,1841
6790,1872
6791,1907
6792,1935
6793,1936
6794,1939
6795,1915
6796,1872
6797,1840
6798,1842
6799,1870
6800,1868
6801,1888
6802,1901
6803,2349
6804,459
6805,2030
6806,2809
6807,2946
6808,2677
6809,2032
6810,1483
6811,1184
6812,1299
6813,1609
6814,1731
6815,1772
6816,1781
6817,1776
6818,1793
6819,1809
6820,1834
6821,1872
6822,1894
6823,1909
6824,1931
6825,1939
6826,1925
6827,1914
6828,1895
6829,1879
6830,1873
6831,1877
6832,1890
6833,1867
6834,1872
6835,436
6836,1726
6837,2752
6838,2978
6839,2768
6840,2032
6841,1407
6842,1195
6843,1398
6844,1678
6845,1767
6846,1776
6847,1767
6848,1757
6849,1762
6850,1774
6851,1810
6852,1852
6853,1873
6854,1903
6855,1909
6856,1922
6857,1949
6858,1949
6859,1931
6860,1913
6861,1903
6862,1883
6863,1861
6864,1862
6865,1860
6866,600
6867,1502
6868,2722
6869,3063
6870,2807
6871,1974
6872,1247
6873,1157
6874,1482
6875,1751
6876,1810
6877,1818
6878,1791
6879,1773
6880,1762
6881,1773
6882,1795
6883,1840
6884,1881
6885,1928
6886,1929
6887,1919
6888,1901
6889,1905
6890,1935
6891,1932
6892,1929
6893,1904
6894,1872
6895,1863
6896,1861
6897,1200
6898,1069
6899,2602
6900,3191
6901,2928
6902,2055
6903,1182
6904,1059
6905,1440
6906,1735
6907,1824
6908,1850
6909,1827
6910,1800
6911,1792
6912,1776
6913,1793
6914,1825
6915,1851
6916,1865
6917,1873
6918,1890
6919,1913
6920,1918
6921,1917
6922,1915
6923,1924
6924,1921
6925,1920
6926,1904
6927,1888
6928,2195
6929,708
6930,2454
6931,3578
6932,3258
6933,2195
6934,1040
6935,779
6936,1264
6937,1675
6938,1792
6939,1813
6940,1818
6941,1813
6942,1808
6943,1802
6944,1815
6945,1841
6946,1856
6947,1869
6948,1884
6949,1895
6950,1887
6951,1899
6952,1923
6953,1909
6954,1929
6955,1923
6956,1922
6957,1906
6958,1930
6959,2736
6960,495
6961,2310
6962,3990
6963,3835
6964,2464
6965,1052
6966,577
6967,1038
6968,1453
6969,1658
6970,1754
6971,1789
6972,1789
6973,1794
6974,1808
6975,1837
6976,1859
6977,1875
6978,1899
6979,1894
6980,1891
6981,1901
6982,1902
6983,1895
6984,1891
6985,1904
6986,1914
6987,1915
6988,1911
6989,1910
6990,1917
6991,441
6992,1869
6993,3811
6994,4095
6995,2909
6996,1271
6997,414
6998,816
6999,1339
7000,1607
7001,1727
7002,1776
7003,1782
7004,1793
7005,1808
7006,1831
7007,1901
7008,1914
7009,1932
7010,2033
7011,2065
7012,1993
7013,1822
7014,1763
7015,1781
7016,1830
7017,1862
7018,1875
7019,1890
7020,1901
7021,1911
7022,688
7023,1504
7024,3461
7025,4095
7026,3211
7027,1393
7028,340
7029,754
7030,1355
7031,1635
7032,1734
7033,1765
7034,1776
7035,1790
7036,1795
7037,1827
7038,1872
7039,1904
7040,1927
7041,1938
7042,1952
7043,2007
7044,1993
7045,1947
7046,1883
7047,1795
7048,1777
7049,1835
7050,1871
7051,1874
7052,1879
7053,1184
7054,1118
7055,3070
7056,4095
7057,3647
7058,1664
7059,362
7060,673
7061,1306
7062,1627
7063,1739
7064,1762
7065,1763
7066,1765
7067,1781
7068,1802
7069,1849
7070,1893
7071,1921
7072,1981
7073,1980
7074,1942
7075,1895
7076,1907
7077,1910
7078,1918
7079,1886
7080,1876
7081,1874
7082,1872
7083,1872
7084,2112
7085,752
7086,2642
7087,4095
7088,4015
7089,1909
7090,419
7091,654
7092,1328
7093,1659
7094,1759
7095,1776
7096,1773
7097,1759
7098,1762
7099,1786
7100,1827
7101,1867
7102,1898
7103,1910
7104,1935
7105,1936
7106,1936
7107,1947
7108,1938
7109,1934
7110,1923
7111,1906
7112,1885
7113,1872
7114,1869
7115,2429
7116,438
7117,2199
7118,4095
7119,4095
7120,2192
7121,606
7122,656
7123,1344
7124,1699
7125,1812
7126,1821
7127,1795
7128,1774
7129,1760
7130,1771
7131,1792
7132,1835
7133,1856
7134,1887
7135,1915
7136,1924
7137,1917
7138,1918
7139,1926
7140,1933
7141,1938
7142,1927
7143,1906
7144,1886
7145,1877
7146,1866
7147,437
7148,1804
7149,3792
7150,4095
7151,2587
7152,702
7153,484
7154,1211
7155,1658
7156,1792
7157,1830
7158,1808
7159,1787
7160,1771
7161,1771
7162,1795
7163,1824
7164,1851
7165,1871
7166,1891
7167,1906
7168,1907
7169,1910
7170,1906
7171,1923
7172,1931
7173,1925
7174,1925
7175,1933
7176,1907
7177,1899
7178,655
7179,1451
7180,3355
7181,4095
7182,2931
7183,903
7184,397
7185,1110
7186,1619
7187,1792
7188,1822
7189,1811
7190,1805
7191,1808
7192,1806
7193,1811
7194,1840
7195,1857
7196,1866
7197,1879
7198,1881
7199,1891
7200,1891
7201,1905
7202,1910
7203,1921
7204,1923
7205,1920
7206,1919
7207,1917
7208,1920
7209,1131
7210,1135
7211,2939
7212,4095
7213,3329
7214,1207
7215,320
7216,974
7217,1535
7218,1753
7219,1805
7220,1807
7221,1803
7222,1792
7223,1797
7224,1826
7225,1863
7226,1874
7227,1889
7228,1894
7229,1889
7230,1888
7231,1889
7232,1898
7233,1894
7234,1900
7235,1911
7236,1918
7237,1920
7238,1913
7239,1913
7240,1905
7241,1915
7242,1907
7243,1891
7244,1872
7245,1871
7246,1850
7247,1845
7248,1843
7249,1851
7250,1840
7251,1858
7252,1871
7253,1874
7254,1876
7255,1876
7256,1879
7257,1889
7258,1889
7259,1889
7260,1873
7261,1871
7262,1846
7263,1836
7264,1839
7265,1837
7266,1842
7267,1851
7268,1854
7269,1863
7270,1872
7271,1872
7272,1877
7273,1877
7274,1895
7275,1888
7276,1875
7277,1872
7278,1853
7279,1835
7280,1823
7281,1835
7282,1831
7283,1839
7284,1847
7285,1859
7286,1872
7287,1872
7288,1875
7289,1883
7290,1881
7291,1890
7292,1886
7293,1881
7294,1862
7295,1849
7296,1838
7297,1838
7298,1838
7299,1843
7300,1841
7301,1855
7302,1874
7303,1869
7304,1866
7305,1877
7306,1875
7307,1883
7308,1890
7309,1869
7310,1863
7311,1841
7312,1841
7313,1827
7314,1825
7315,1829
7316,1831
7317,1839
7318,1846
7319,1862
7320,1872
7321,1876
7322,1875
7323,1879
7324,1887
7325,1888
7326,1872
7327,1867
7328,1853
7329,1846
7330,1838
7331,1839
7332,1842
7333,1839
7334,1849
7335,1862
7336,1867
7337,1873
7338,1873
7339,1877
7340,1885
7341,1895
7342,1889
7343,1871
7344,1856
7345,1840
7346,1833
7347,1829
7348,1827
7349,1840
7350,1840
7351,1853
7352,1856
7353,1872
7354,1874
7355,1879
7356,1875
7357,1887
7358,1895
7359,1881
7360,1870
7361,1862
7362,1850
7363,1834
7364,1839
7365,1843
7366,1840
7367,1845
7368,1858
7369,1866
7370,1875
7371,1882
7372,1879
7373,1879
7374,1886
7375,1883
7376,1872
7377,1853
7378,1855
7379,1835
7380,1829
7381,1834
7382,1855
7383,1840
7384,1854
7385,1861
7386,1871
7387,1872
7388,1875
7389,1882
7390,1886
7391,1895
7392,1885
7393,1872
7394,1863
7395,1849
7396,1837
7397,1837
7398,1834
7399,1839
7400,1846
7401,1856
7402,1865
7403,1871
7404,1868
7405,1872
7406,1879
7407,1893
7408,1895
7409,1881
7410,1867
7411,1841
7412,1840
7413,1840
7414,1838
7415,1840
7416,1841
7417,1841
7418,1849
7419,1874
7420,1874
7421,1878
7422,1882
7423,1883
7424,1892
7425,1895
7426,1888
7427,1869
7428,1856
7429,1845
7430,1843
7431,1840
7432,1843
7433,1841
7434,1852
7435,1859
7436,1869
7437,1872
7438,1875
7439,1882
7440,1883
7441,1901
7442,1888
7443,1886
7444,1862
7445,1856
7446,1843
7447,1840
7448,1840
7449,1846
7450,1851
7451,1857
7452,1872
7453,1872
7454,1885
7455,1882
7456,1888
7457,1892
7458,1902
7459,1887
7460,1873
7461,1859
7462,1852
7463,1837
7464,1833
7465,1834
7466,1842
7467,1846
7468,1867
7469,1872
7470,1880
7471,1889
7472,1882
7473,1889
7474,1901
7475,1894
7476,1885
7477,1863
7478,1856
7479,1849
7480,1840
7481,1839
7482,1841
7483,1845
7484,1856
7485,1850
7486,1875
7487,1881
7488,1888
7489,1884
7490,1886
7491,1903
7492,1893
7493,1877
7494,1863
7495,1858
7496,1840
7497,1837
7498,1837
7499,1839
7500,1842
7501,1856
7502,1866
7503,1872
7504,1879
7505,1877
7506,1876
7507,1874
7508,1893
7509,1883
7510,1871
7511,1860
7512,1854
7513,1840
7514,1838
7515,1840
7516,1840
7517,1845
7518,1851
7519,1871
7520,1875
7521,1881
7522,1875
7523,1885
7524,1895
7525,1893
7526,1877
7527,1869
7528,1861
7529,1843
7530,1840
7531,1838
7532,1843
7533,1847
7534,1852
7535,1865
7536,1871
7537,1878
7538,1878
7539,1886
7540,1886
7541,1897
7542,1888
7543,1874
7544,1870
7545,1867
7546,1840
7547,1839
7548,1840
7549,1840
7550,1846
7551,1856
7552,1872
7553,1876
7554,1874
7555,1875
7556,1875
7557,1888
7558,1891
7559,1873
7560,1865
7561,1858
7562,1852
7563,1840
7564,1840
7565,1849
7566,1850
7567,1853
7568,1856
7569,1872
7570,1875
7571,1882
7572,1879
7573,1882
7574,1898
7575,1898
7576,1873
7577,1873
7578,1855
7579,1841
7580,1833
7581,1831
7582,1837
7583,1838
7584,1847
7585,1856
7586,1859
7587,1871
7588,1881
7589,1885
7590,1888
7591,1900
7592,1886
7593,1873
7594,1861
7595,1857
7596,1837
7597,1840
7598,1838
7599,1842
7600,1845
7601,1851
7602,1860
7603,1870
7604,1875
7605,1881
7606,1883
7607,1888
7608,1895
7609,1881
7610,1871
7611,1856
7612,1847
7613,1835
7614,1833
7615,1831
7616,1840
7617,1840
7618,1851
7619,1863
7620,1872
7621,1889
7622,1888
7623,1885
7624,1891
7625,1901
7626,1882
7627,1862
7628,1858
7629,1850
7630,1840
7631,1837
7632,1840
7633,1845
7634,1851
7635,1861
7636,1884
7637,1878
7638,1881
7639,1886
7640,1887
7641,1899
7642,1889
7643,1883
7644,1861
7645,1852
7646,1835
7647,1833
7648,1834
7649,1843
7650,1847
7651,1850
7652,1859
7653,1873
7654,1875
7655,1883
7656,1883
7657,1891
7658,1902
7659,1882
7660,1871
7661,1863
7662,1850
7663,1840
7664,1839
7665,1841
7666,1845
7667,1850
7668,1856
7669,1865
7670,1877
7671,1887
7672,1888
7673,1877
7674,1883
7675,1895
7676,1872
7677,1858
7678,1856
7679,1843
7680,1838
7681,1840
7682,1840
7683,1843
7684,1849
7685,1865
7686,1872
7687,1878
7688,1883
7689,1881
7690,1895
7691,1900
7692,1893
7693,1878
7694,1859
7695,1859
7696,1844
7697,1840
7698,1843
7699,1843
7700,1857
7701,1854
7702,1859
7703,1866
7704,1873
7705,1876
7706,1876
7707,1878
7708,1901
7709,1886
7710,1869
7711,1856
7712,1853
7713,1840
7714,1841
7715,1839
7716,1847
7717,1840
7718,1861
7719,1861
7720,1881
7721,1885
7722,1887
7723,1886
7724,1893
7725,1903
7726,1884
7727,1868
7728,1856
7729,1841
7730,1840
7731,1840
7732,1843
7733,1840
7734,1843
7735,1855
7736,1871
7737,1872
7738,1885
7739,1888
7740,1885
7741,1894
7742,1888
7743,1878
7744,1863
7745,1855
7746,1842
7747,1839
7748,1835
7749,1840
7750,1849
7751,1850
7752,1852
7753,1872
7754,1875
7755,1889
7756,1887
7757,1886
7758,1898
7759,1886
7760,1872
7761,1869
7762,1843
7763,1837
7764,1837
7765,1835
7766,1839
7767,1843
7768,1857
7769,1869
7770,1874
7771,1885
7772,1882
7773,1888
7774,1893
7775,1888
7776,1883
7777,1868
7778,1849
7779,1840
7780,1840
7781,1835
7782,1834
7783,1845
7784,1851
7785,1860
7786,1863
7787,1877
7788,1887
7789,1885
7790,1889
7791,1903
7792,1889
7793,1862
7794,1857
7795,1847
7796,1834
7797,1840
7798,1840
7799,1840
7800,1847
7801,1854
7802,1863
7803,1871
7804,1878
7805,1882
7806,1883
7807,1891
7808,1899
7809,1881
7810,1872
7811,1865
7812,1849
7813,1840
7814,1838
7815,1840
7816,1849
7817,1841
7818,1845
7819,1865
7820,1869
7821,1872
7822,1873
7823,1875
7824,1889
7825,1889
7826,1872
7827,1857
7828,1850
7829,1837
7830,1836
7831,1839
7832,1830
7833,1846
7834,1861
7835,1866
7836,1870
7837,1881
7838,1877
7839,1877
7840,1885
7841,1893
7842,1886
7843,1872
7844,1863
7845,1853
7846,1843
7847,1840
7848,1840
7849,1841
7850,1842
7851,1859
7852,1869
7853,1872
7854,1872
7855,1872
7856,1873
7857,1887
7858,1895
7859,1885
7860,1873
7861,1850
7862,1838
7863,1834
7864,1839
7865,1835
7866,1841
7867,1854
7868,1858
7869,1860
7870,1863
7871,1877
7872,1887
7873,1883
7874,1895
7875,1892
7876,1884
7877,1863
7878,1849
7879,1839
7880,1840
7881,1835
7882,1834
7883,1840
7884,1845
7885,1850
7886,1858
7887,1875
7888,1882
7889,1881
7890,1889
7891,1895
7892,1897
7893,1870
7894,1858
7895,1847
7896,1840
7897,1838
7898,1839
7899,1840
7900,1840
7901,1856
7902,1860
7903,1867
7904,1872
7905,1881
7906,1882
7907,1886
7908,1894
7909,1886
7910,1872
7911,1852
7912,1843
7913,1834
7914,1833
7915,1840
7916,1839
7917,1851
7918,1861
7919,1866
7920,1879
7921,1885
7922,1881
7923,1887
7924,1893
7925,1898
7926,1879
7927,1869
7928,1855
7929,1846
7930,1835
7931,1838
7932,1840
7933,1840
7934,1855
7935,1858
7936,1882
7937,1873
7938,1883
7939,1885
7940,1887
7941,1895
7942,1888
7943,1868
7944,1846
7945,1853
7946,1825
7947,1835
7948,1834
7949,1835
7950,1845
7951,1857
7952,1857
7953,1868
7954,1874
7955,1877
7956,1878
7957,1887
7958,1896
7959,1883
7960,1875
7961,1859
7962,1843
7963,1835
7964,1838
7965,1840
7966,1843
7967,1850
7968,1866
7969,1875
7970,1866
7971,1877
7972,1878
7973,1879
7974,1888
7975,1889
7976,1878
7977,1869
7978,1856
7979,1841
7980,1836
7981,1840
7982,1821
7983,1846
7984,1856
7985,1861
7986,1870
7987,1873
7988,1877
7989,1883
7990,1884
7991,1903
7992,1887
7993,1874
7994,1854
7995,1847
7996,1840
7997,1840
7998,1840
7999,1840
8000,1843
8001,1853
8002,1861
8003,1866
8004,1871
8005,1875
8006,1875
8007,1881
8008,1885
8009,1876
8010,1872
8011,1857
8012,1845
8013,1836
8014,1836
8015,1840
8016,1844
8017,1839
8018,1855
8019,1863
8020,1873
8021,1875
8022,1883
8023,1883
8024,1891
8025,1892
8026,1879
8027,1861
8028,1863
8029,1834
8030,1834
8031,1838
8032,1818
8033,1840
8034,1845
8035,1850
8036,1857
8037,1872
8038,1875
8039,1884
8040,1883
8041,1897
8042,1889
8043,1874
8044,1859
8045,1853
8046,1840
8047,1839
8048,1840
8049,1845
8050,1844
8051,1851
8052,1861
8053,1872
8054,1875
8055,1883
8056,1880
8057,1887
8058,1900
8059,1886
8060,1872
8061,1861
8062,1852
8063,1837
8064,1830
8065,1828
8066,1840
8067,1847
8068,1854
8069,1868
8070,1875
8071,1879
8072,1883
8073,1887
8074,1890
8075,1897
8076,1880
8077,1863
8078,1866
8079,1843
8080,1841
8081,1840
8082,1840
8083,1846
8084,1852
8085,1857
8086,1859
8087,1873
8088,1883
8089,1883
8090,1890
8091,1898
8092,1891
8093,1871
8094,1850
8095,1856
8096,1841
8097,1831
8098,1838
8099,1840
8100,1842
8101,1856
8102,1861
8103,1872
8104,1877
8105,1877
8106,1881
8107,1886
8108,1895
8109,1883
8110,1871
8111,1855
8112,1847
8113,1837
8114,1834
8115,1840
8116,1840
8117,1846
8118,1851
8119,1866
8120,1861
8121,1874
8122,1874
8123,1874
8124,1887
8125,1882
8126,1874
8127,1856
8128,1851
8129,1843
8130,1838
8131,1840
8132,1842
8133,1841
8134,1855
8135,1870
8136,1867
8137,1872
8138,1879
8139,1879
8140,1881
8141,1894
8142,1891
8143,1874
8144,1863
8145,1844
8146,1840
8147,1839
8148,1838
8149,1840
8150,1842
8151,1851
8152,1863
8153,1862
8154,1870
8155,1873
8156,1879
8157,1889
8158,1902
8159,1884
8160,1876
8161,1869
8162,1852
8163,1838
8164,1840
8165,1840
8166,1840
8167,1846
8168,1856
8169,1871
8170,1877
8171,1882
8172,1884
8173,1884
8174,1895
8175,1903
8176,1882
8177,1858
8178,1851
8179,1840
8180,1835
8181,1834
8182,1841
8183,1840
8184,1842
8185,1841
8186,1863
8187,1872
8188,1885
8189,1883
8190,1885
8191,1894
8192,1890
8193,1874
8194,1863
8195,1856
8196,1839
8197,1840
8198,1836
8199,1840
8200,1840
8201,1855
8202,1867
8203,1870
8204,1878
8205,1882
8206,1882
8207,1890
8208,1897
8209,1890
8210,1874
8211,1863
8212,1842
8213,1829
8214,1827
8215,1830
8216,1836
8217,1841
8218,1855
8219,1872
8220,1871
8221,1874
8222,1887
8223,1887
8224,1892
8225,1895
8226,1879
8227,1870
8228,1872
8229,1846
8230,1837
8231,1839
8232,1840
8233,1846
8234,1851
8235,1860
8236,1870
8237,1874
8238,1479
8239,1004
8240,2310
8241,2768
8242,2722
8243,2431
8244,2137
8245,1830
8246,1424
8247,1318
8248,1456
8249,1590
8250,1679
8251,1741
8252,1779
8253,1808
8254,1831
8255,1844
8256,1858
8257,1874
8258,1886
8259,1894
8260,1890
8261,1873
8262,1873
8263,1872
8264,1875
8265,1872
8266,1875
8267,1879
8268,1886
8269,2739
8270,633
8271,2179
8272,2793
8273,2799
8274,2559
8275,2259
8276,1892
8277,1427
8278,1339
8279,1350
8280,1450
8281,1616
8282,1711
8283,1758
8284,1786
8285,1810
8286,1838
8287,1854
8288,1873
8289,1895
8290,1906
8291,1933
8292,1932
8293,1916
8294,1906
8295,1903
8296,1886
8297,1882
8298,1875
8299,1876
8300,2084
8301,391
8302,1934
8303,2722
8304,2832
8305,2624
8306,2288
8307,1886
8308,1450
8309,1345
8310,1343
8311,1499
8312,1654
8313,1735
8314,1770
8315,1776
8316,1794
8317,1808
8318,1829
8319,1850
8320,1883
8321,1904
8322,1920
8323,1920
8324,1933
8325,1935
8326,1920
8327,1906
8328,1898
8329,1881
8330,1872
8331,1869
8332,459
8333,1655
8334,2652
8335,2885
8336,2690
8337,2326
8338,1869
8339,1472
8340,1327
8341,1323
8342,1525
8343,1691
8344,1752
8345,1771
8346,1790
8347,1785
8348,1799
8349,1808
8350,1831
8351,1856
8352,1878
8353,1905
8354,1920
8355,1921
8356,1929
8357,1931
8358,1926
8359,1923
8360,1907
8361,1894
8362,1883
8363,787
8364,1333
8365,2480
8366,2800
8367,2709
8368,2397
8369,1959
8370,1589
8371,1319
8372,1261
8373,1526
8374,1729
8375,1803
8376,1805
8377,1802
8378,1793
8379,1790
8380,1792
8381,1819
8382,1854
8383,1871
8384,1888
8385,1899
8386,1910
8387,1923
8388,1926
8389,1927
8390,1929
8391,1935
8392,1925
8393,1904
8394,1243
8395,1083
8396,2429
8397,2890
8398,2864
8399,2541
8400,1955
8401,1507
8402,1136
8403,1152
8404,1526
8405,1727
8406,1776
8407,1798
8408,1805
8409,1807
8410,1803
8411,1829
8412,1839
8413,1852
8414,1872
8415,1886
8416,1898
8417,1889
8418,1890
8419,1904
8420,1908
8421,1919
8422,1920
8423,1917
8424,1923
8425,2305
8426,726
8427,2256
8428,2871
8429,2898
8430,2590
8431,1931
8432,1401
8433,1087
8434,1251
8435,1616
8436,1760
8437,1793
8438,1808
8439,1808
8440,1810
8441,1829
8442,1847
8443,1867
8444,1879
8445,1875
8446,1878
8447,1886
8448,1886
8449,1891
8450,1897
8451,1902
8452,1906
8453,1905
8454,1910
8455,1906
8456,2153
8457,400
8458,2003
8459,2900
8460,3025
8461,2672
8462,1901
8463,1257
8464,1109
8465,1361
8466,1665
8467,1766
8468,1806
8469,1809
8470,1797
8471,1808
8472,1809
8473,1840
8474,1882
8475,1909
8476,1930
8477,1927
8478,1904
8479,1879
8480,1855
8481,1861
8482,1870
8483,1877
8484,1878
8485,1885
8486,1893
8487,1894
8488,496
8489,1709
8490,2886
8491,3185
8492,2835
8493,1952
8494,1168
8495,1033
8496,1395
8497,1677
8498,1771
8499,1789
8500,1783
8501,1781
8502,1790
8503,1797
8504,1837
8505,1866
8506,1894
8507,1911
8508,1933
8509,1920
8510,1915
8511,1905
8512,1888
8513,1872
8514,1871
8515,1870
8516,1871
8517,1873
8518,1883
8519,669
8520,1455
8521,2850
8522,3363
8523,2941
8524,1959
8525,1088
8526,1022
8527,1441
8528,1712
8529,1778
8530,1789
8531,1777
8532,1770
8533,1771
8534,1783
8535,1818
8536,1850
8537,1897
8538,1904
8539,1920
8540,1922
8541,1943
8542,1939
8543,1922
8544,1907
8545,1901
8546,1879
8547,1869
8548,1869
8549,1863
8550,1373
8551,976
8552,2661
8553,3861
8554,3418
8555,2199
8556,1019
8557,759
8558,1229
8559,1535
8560,1674
8561,1747
8562,1754
8563,1749
8564,1748
8565,1757
8566,1793
8567,1835
8568,1873
8569,1893
8570,1918
8571,1934
8572,1942
8573,1932
8574,1935
8575,1936
8576,1925
8577,1913
8578,1897
8579,1882
8580,1871
8581,2533
8582,626
8583,2475
8584,4095
8585,4095
8586,2480
8587,928
8588,395
8589,890
8590,1385
8591,1643
8592,1751
8593,1769
8594,1779
8595,1773
8596,1764
8597,1783
8598,1826
8599,1863
8600,1885
8601,1903
8602,1925
8603,1921
8604,1929
8605,1940
8606,1935
8607,1931
8608,1936
8609,1929
8610,1909
8611,1889
8612,2175
8613,384
8614,2116
8615,4095
8616,4095
8617,2613
8618,892
8619,327
8620,931
8621,1469
8622,1703
8623,1789
8624,1821
8625,1823
8626,1815
8627,1804
8628,1819
8629,1845
8630,1870
8631,1882
8632,1890
8633,1902
8634,1907
8635,1911
8636,1926
8637,1931
8638,1936
8639,1936
8640,1936
8641,1936
8642,1932
8643,1906
8644,416
8645,1856
8646,4095
8647,4095
8648,2912
8649,963
8650,215
8651,795
8652,1381
8653,1660
8654,1773
8655,1805
8656,1806
8657,1810
8658,1829
8659,1845
8660,1870
8661,1886
8662,1902
8663,1890
8664,1891
8665,1897
8666,1901
8667,1911
8668,1917
8669,1934
8670,1933
8671,1921
8672,1921
8673,1921
8674,1923
8675,659
8676,1494
8677,3670
8678,4095
8679,3216
8680,1145
8681,195
8682,810
8683,1408
8684,1682
8685,1760
8686,1793
8687,1801
8688,1808
8689,1808
8690,1837
8691,1877
8692,1904
8693,1910
8694,1913
8695,1907
8696,1903
8697,1900
8698,1886
8699,1905
8700,1899
8701,1900
8702,1907
8703,1908
8704,1907
8705,1906
8706,1161
8707,1138
8708,3115
8709,4095
8710,3646
8711,1435
8712,195
8713,708
8714,1381
8715,1675
8716,1755
8717,1765
8718,1779
8719,1794
8720,1795
8721,1811
8722,1853
8723,1890
8724,1911
8725,1945
8726,1951
8727,1921
8728,1900
8729,1889
8730,1903
8731,1984
8732,1970
8733,1922
8734,1811
8735,1788
8736,1841
8737,2479
8738,672
8739,2559
8740,4095
8741,4095
8742,1911
8743,304
8744,575
8745,1335
8746,1665
8747,1762
8748,1763
8749,1775
8750,1774
8751,1776
8752,1808
8753,1833
8754,1875
8755,1904
8756,1921
8757,1932
8758,1950
8759,1946
8760,1933
8761,1935
8762,1904
8763,1893
8764,1882
8765,1874
8766,1875
8767,1879
8768,2480
8769,450
8770,2242
8771,4095
8772,4095
8773,2179
8774,433
8775,564
8776,1301
8777,1691
8778,1771
8779,1777
8780,1774
8781,1759
8782,1762
8783,1773
8784,1805
8785,1847
8786,1886
8787,1919
8788,1927
8789,1936
8790,1947
8791,1951
8792,1936
8793,1931
8794,1906
8795,1904
8796,1876
8797,1872
8798,1870
8799,1868
8800,421
8801,1827
8802,3920
8803,4095
8804,2538
8805,576
8806,467
8807,1254
8808,1697
8809,1812
8810,1824
8811,1807
8812,1783
8813,1757
8814,1762
8815,1778
8816,1831
8817,1872
8818,1891
8819,1917
8820,1922
8821,1934
8822,1939
8823,1943
8824,1925
8825,1943
8826,1926
8827,1915
8828,1893
8829,1872
8830,1866
8831,719
8832,1385
8833,3331
8834,4095
8835,3024
8836,919
8837,331
8838,1093
8839,1625
8840,1793
8841,1840
8842,1831
8843,1806
8844,1779
8845,1771
8846,1776
8847,1810
8848,1843
8849,1871
8850,1883
8851,1902
8852,1920
8853,1925
8854,1932
8855,1933
8856,1934
8857,1934
8858,1935
8859,1923
8860,1901
8861,1890
8862,1877
8863,1859
8864,1855
8865,1850
8866,1856
8867,1860
8868,1863
8869,1867
8870,1879
8871,1883
8872,1887
8873,1878
8874,1904
8875,1888
8876,1873
8877,1870
8878,1863
8879,1836
8880,1837
8881,1841
8882,1842
8883,1834
8884,1850
8885,1858
8886,1867
8887,1872
8888,1873
8889,1875
8890,1877
8891,1891
8892,1885
8893,1877
8894,1865
8895,1847
8896,1840
8897,1839
8898,1840
8899,1834
8900,1846
8901,1854
8902,1863
8903,1862
8904,1873
8905,1872
8906,1872
8907,1882
8908,1887
8909,1884
8910,1872
8911,1856
8912,1852
8913,1840
8914,1838
8915,1840
8916,1841
8917,1840
8918,1846
8919,1855
8920,1872
8921,1883
8922,1875
8923,1879
8924,1891
8925,1892
8926,1879
8927,1862
8928,1855
8929,1840
8930,1830
8931,1831
8932,1815
8933,1835
8934,1840
8935,1842
8936,1856
8937,1857
8938,1870
8939,1872
8940,1878
8941,1891
8942,1886
8943,1872
8944,1856
8945,1856
8946,1841
8947,1840
8948,1837
8949,1829
8950,1840
8951,1855
8952,1856
8953,1863
8954,1872
8955,1876
8956,1879
8957,1882
8958,1893
8959,1883
8960,1859
8961,1859
8962,1855
8963,1829
8964,1833
8965,1823
8966,1838
8967,1846
8968,1856
8969,1867
8970,1882
8971,1875
8972,1879
8973,1877
8974,1891
8975,1897
8976,1877
8977,1867
8978,1857
8979,1840
8980,1837
8981,1840
8982,1833
8983,1839
8984,1840
8985,1855
8986,1870
8987,1873
8988,1874
8989,1889
8990,1884
8991,1892
8992,1890
8993,1871
8994,1861
8995,1844
8996,1829
8997,1827
8998,1827
8999,1829
9000,1845
9001,1846
9002,1866
9003,1859
9004,1874
9005,1883
9006,1879
9007,1898
9008,1895
9009,1885
9010,1871
9011,1855
9012,1846
9013,1840
9014,1836
9015,1831
9016,1833
9017,1840
9018,1850
9019,1856
9020,1871
9021,1876
9022,1878
9023,1874
9024,1889
9025,1897
9026,1883
9027,1869
9028,1856
9029,1845
9030,1834
9031,1835
9032,1833
9033,1840
9034,1843
9035,1856
9036,1873
9037,1876
9038,1885
9039,1886
9040,1884
9041,1900
9042,1895
9043,1873
9044,1856
9045,1852
9046,1840
9047,1840
9048,1840
9049,1847
9050,1845
9051,1850
9052,1859
9053,1866
9054,1872
9055,1877
9056,1881
9057,1890
9058,1902
9059,1889
9060,1871
9061,1867
9062,1857
9063,1834
9064,1840
9065,1838
9066,1845
9067,1849
9068,1855
9069,1863
9070,1872
9071,1878
9072,1886
9073,1885
9074,1901
9075,1903
9076,1893
9077,1861
9078,1850
9079,1838
9080,1827
9081,1826
9082,1821
9083,1839
9084,1850
9085,1851
9086,1870
9087,1874
9088,1881
9089,1883
9090,1885
9091,1903
9092,1895
9093,1883
9094,1863
9095,1862
9096,1845
9097,1835
9098,1840
9099,1815
9100,1841
9101,1853
9102,1875
9103,1872
9104,1875
9105,1879
9106,1889
9107,1889
9108,1902
9109,1891
9110,1872
9111,1863
9112,1849
9113,1829
9114,1827
9115,1826
9116,1831
9117,1849
9118,1851
9119,1879
9120,1872
9121,1878
9122,1878
9123,1891
9124,1905
9125,1904
9126,1885
9127,1877
9128,1857
9129,1845
9130,1832
9131,1836
9132,1831
9133,1841
9134,1852
9135,1856
9136,1871
9137,1882
9138,1886
9139,1889
9140,1889
9141,1899
9142,1895
9143,1879
9144,1858
9145,1846
9146,1839
9147,1831
9148,1829
9149,1840
9150,1840
9151,1853
9152,1861
9153,1863
9154,1875
9155,1887
9156,1886
9157,1894
9158,1904
9159,1888
9160,1886
9161,1859
9162,1861
9163,1839
9164,1835
9165,1836
9166,1837
9167,1845
9168,1857
9169,1859
9170,1872
9171,1883
9172,1883
9173,1877
9174,1890
9175,1889
9176,1873
9177,1854
9178,1858
9179,1840
9180,1839
9181,1837
9182,1840
9183,1841
9184,1851
9185,1862
9186,1873
9187,1878
9188,1879
9189,1883
9190,1889
9191,1901
9192,1895
9193,1879
9194,1869
9195,1859
9196,1840
9197,1839
9198,1835
9199,1838
9200,1843
9201,1853
9202,1862
9203,1855
9204,1872
9205,1878
9206,1877
9207,1893
9208,1901
9209,1887
9210,1868
9211,1861
9212,1850
9213,1840
9214,1836
9215,1838
9216,1840
9217,1841
9218,1853
9219,1872
9220,1885
9221,1886
9222,1885
9223,1883
9224,1904
9225,1901
9226,1881
9227,1872
9228,1862
9229,1851
9230,1839
9231,1837
9232,1838
9233,1839
9234,1847
9235,1856
9236,1865
9237,1866
9238,1872
9239,1881
9240,1885
9241,1893
9242,1890
9243,1873
9244,1866
9245,1855
9246,1840
9247,1840
9248,1837
9249,1844
9250,1851
9251,1862
9252,1871
9253,1873
9254,1878
9255,1888
9256,1889
9257,1887
9258,1895
9259,1884
9260,1874
9261,1866
9262,1855
9263,1835
9264,1835
9265,1835
9266,1837
9267,1845
9268,1858
9269,1856
9270,1879
9271,1887
9272,1885
9273,1887
9274,1887
9275,1895
9276,1885
9277,1872
9278,1856
9279,1847
9280,1841
9281,1840
9282,1842
9283,1845
9284,1854
9285,1862
9286,1872
9287,1877
9288,1882
9289,1883
9290,1890
9291,1894
9292,1895
9293,1872
9294,1863
9295,1835
9296,1840
9297,1840
9298,1840
9299,1841
9300,1850
9301,1854
9302,1869
9303,1872
9304,1882
9305,1889
9306,1889
9307,1893
9308,1900
9309,1892
9310,1875
9311,1861
9312,1846
9313,1842
9314,1840
9315,1840
9316,1842
9317,1841
9318,1849
9319,1855
9320,1879
9321,1877
9322,1882
9323,1875
9324,1886
9325,1887
9326,1872
9327,1862
9328,1845
9329,1846
9330,1840
9331,1840
9332,1853
9333,1844
9334,1853
9335,1853
9336,1866
9337,1886
9338,1886
9339,1882
9340,1883
9341,1901
9342,1890
9343,1872
9344,1861
9345,1862
9346,1851
9347,1842
9348,1838
9349,1830
9350,1844
9351,1847
9352,1858
9353,1866
9354,1879
9355,1875
9356,1872
9357,1883
9358,1890
9359,1883
9360,1873
9361,1866
9362,1853
9363,1840
9364,1841
9365,1841
9366,1842
9367,1852
9368,1855
9369,1867
9370,1877
9371,1878
9372,1885
9373,1882
9374,1891
9375,1892
9376,1883
9377,1872
9378,1857
9379,1842
9380,1835
9381,1833
9382,1827
9383,1839
9384,1851
9385,1855
9386,1857
9387,1869
9388,1878
9389,1879
9390,1881
9391,1897
9392,1899
9393,1874
9394,1872
9395,1857
9396,1841
9397,1840
9398,1840
9399,1845
9400,1845
9401,1851
9402,1859
9403,1872
9404,1878
9405,1879
9406,1883
9407,1884
9408,1892
9409,1897
9410,1873
9411,1858
9412,1851
9413,1835
9414,1830
9415,1837
9416,1839
9417,1843
9418,1856
9419,1863
9420,1871
9421,1877
9422,1878
9423,1883
9424,1881
9425,1899
9426,1875
9427,1872
9428,1871
9429,1842
9430,1835
9431,1838
9432,1840
9433,1841
9434,1850
9435,1855
9436,1872
9437,1875
9438,1877
9439,1881
9440,1892
9441,1894
9442,1890
9443,1872
9444,1863
9445,1840
9446,1840
9447,1833
9448,1836
9449,1843
9450,1841
9451,1853
9452,1864
9453,1870
9454,1872
9455,1879
9456,1887
9457,1884
9458,1894
9459,1889
9460,1872
9461,1843
9462,1841
9463,1838
9464,1840
9465,1840
9466,1838
9467,1847
9468,1852
9469,1863
9470,1872
9471,1879
9472,1881
9473,1875
9474,1877
9475,1886
9476,1872
9477,1871
9478,1842
9479,1847
9480,1835
9481,1840
9482,1837
9483,1843
9484,1853
9485,1857
9486,1867
9487,1875
9488,1874
9489,1879
9490,1885
9491,1888
9492,1893
9493,1878
9494,1867
9495,1857
9496,1840
9497,1838
9498,1840
9499,1840
9500,1849
9501,1849
9502,1863
9503,1870
9504,1872
9505,1872
9506,1874
9507,1877
9508,1887
9509,1882
9510,1869
9511,1856
9512,1853
9513,1840
9514,1839
9515,1840
9516,1845
9517,1840
9518,1869
9519,1870
9520,1867
9521,1877
9522,1877
9523,1884
9524,1873
9525,1892
9526,1883
9527,1863
9528,1858
9529,1846
9530,1837
9531,1840
9532,1841
9533,1840
9534,1841
9535,1849
9536,1858
9537,1872
9538,1874
9539,1882
9540,1887
9541,1895
9542,1894
9543,1875
9544,1870
9545,1854
9546,1841
9547,1838
9548,1838
9549,1840
9550,1841
9551,1853
9552,1855
9553,1871
9554,1872
9555,1886
9556,1881
9557,1887
9558,1897
9559,1879
9560,1872
9561,1861
9562,1846
9563,1831
9564,1838
9565,1831
9566,1839
9567,1849
9568,1851
9569,1856
9570,1863
9571,1872
9572,1878
9573,1883
9574,1899
9575,1894
9576,1877
9577,1869
9578,1854
9579,1843
9580,1838
9581,1842
9582,1840
9583,1842
9584,1850
9585,1858
9586,1857
9587,1873
9588,1881
9589,1888
9590,1887
9591,1897
9592,1890
9593,1870
9594,1859
9595,1850
9596,1840
9597,1836
9598,1840
9599,1840
9600,1844
9601,1853
9602,1866
9603,1872
9604,1878
9605,1878
9606,1879
9607,1887
9608,1892
9609,1883
9610,1872
9611,1862
9612,1854
9613,1840
9614,1839
9615,1841
9616,1842
9617,1840
9618,1845
9619,1856
9620,1863
9621,1870
9622,1873
9623,1873
9624,1875
9625,1893
9626,1872
9627,1867
9628,1863
9629,1845
9630,1840
9631,1839
9632,1840
9633,1841
9634,1851
9635,1857
9636,1857
9637,1873
9638,1879
9639,1883
9640,1885
9641,1895
9642,1897
9643,1883
9644,1869
9645,1861
9646,1849
9647,1839
9648,1838
9649,1839
9650,1842
9651,1851
9652,1858
9653,1866
9654,1872
9655,1877
9656,1872
9657,1887
9658,1901
9659,1891
9660,1876
9661,1860
9662,1847
9663,1838
9664,1829
9665,1840
9666,1840
9667,1844
9668,1854
9669,1875
9670,1872
9671,1882
9672,1885
9673,1887
9674,1881
9675,1903
9676,1889
9677,1866
9678,1853
9679,1839
9680,1837
9681,1827
9682,1827
9683,1835
9684,1843
9685,1856
9686,1863
9687,1872
9688,1883
9689,1877
9690,1891
9691,1899
9692,1897
9693,1883
9694,1868
9695,1858
9696,1845
9697,1836
9698,1840
9699,1856
9700,1844
9701,1855
9702,1856
9703,1872
9704,1872
9705,1882
9706,1881
9707,1899
9708,1896
9709,1892
9710,1876
9711,1850
9712,1856
9713,1831
9714,1827
9715,1833
9716,1835
9717,1840
9718,1858
9719,1866
9720,1878
9721,1878
9722,1883
9723,1883
9724,1891
9725,1897
9726,1881
9727,1877
9728,1854
9729,1846
9730,1840
9731,1835
9732,1839
9733,1841
9734,1847
9735,1859
9736,1872
9737,1875
9738,1879
9739,1885
9740,1887
9741,1898
9742,1892
9743,1876
9744,1845
9745,1846
9746,1835
9747,1826
9748,1831
9749,1842
9750,1840
9751,1849
9752,1872
9753,1877
9754,1875
9755,1885
9756,1883
9757,1893
9758,1895
9759,1888
9760,1877
9761,1866
9762,1847
9763,1839
9764,1840
9765,1837
9766,1842
9767,1840
9768,1854
9769,1867
9770,1874
9771,1879
9772,1883
9773,1878
9774,1907
9775,1888
9776,1883
9777,1869
9778,1850
9779,1853
9780,1840
9781,1834
9782,1834
9783,1842
9784,1841
9785,1858
9786,1873
9787,1886
9788,1882
9789,1879
9790,1894
9791,1899
9792,1899
9793,1883
9794,1874
9795,1858
9796,1840
9797,1830
9798,1837
9799,1834
9800,1843
9801,1856
9802,1869
9803,1866
9804,1867
9805,1870
9806,1877
9807,1878
9808,1903
9809,1891
9810,1882
9811,1862
9812,1840
9813,1835
9814,1836
9815,1838
9816,1839
9817,1838
9818,1852
9819,1869
9820,1860
9821,1879
9822,1886
9823,1886
9824,1885
9825,1902
9826,1881
9827,1865
9828,1862
9829,1849
9830,1840
9831,1835
9832,1828
9833,1837
9834,1841
9835,1842
9836,1857
9837,1863
9838,1872
9839,1876
9840,1885
9841,1899
9842,1895
9843,1879
9844,1856
9845,1853
9846,1840
9847,1840
9848,1837
9849,1840
9850,1841
9851,1855
9852,1869
9853,1873
9854,1882
9855,1886
9856,1886
9857,1887
9858,1898
9859,1895
9860,871
9861,1224
9862,2401
9863,2729
9864,2640
9865,2366
9866,2075
9867,1763
9868,1402
9869,1385
9870,1529
9871,1642
9872,1731
9873,1782
9874,1799
9875,1830
9876,1823
9877,1822
9878,1825
9879,1835
9880,1836
9881,1840
9882,1842
9883,1865
9884,1872
9885,1886
9886,1895
9887,1904
9888,1917
9889,1921
9890,1915
9891,1661
9892,953
9893,2333
9894,2809
9895,2752
9896,2480
9897,2137
9898,1744
9899,1351
9900,1358
9901,1399
9902,1535
9903,1705
9904,1773
9905,1819
9906,1826
9907,1843
9908,1863
9909,1872
9910,1867
9911,1872
9912,1885
9913,1887
9914,1879
9915,1874
9916,1881
9917,1879
9918,1886
9919,1886
9920,1917
9921,1920
9922,2827
9923,613
9924,2176
9925,2816
9926,2833
9927,2559
9928,2222
9929,1755
9930,1387
9931,1296
9932,1334
9933,1503
9934,1679
9935,1744
9936,1795
9937,1819
9938,1835
9939,1845
9940,1861
9941,1882
9942,1904
9943,1904
9944,1897
9945,1897
9946,1882
9947,1876
9948,1874
9949,1856
9950,1885
9951,1888
9952,1898
9953,1991
9954,385
9955,1923
9956,2723
9957,2838
9958,2646
9959,2295
9960,1811
9961,1472
9962,1318
9963,1330
9964,1535
9965,1691
9966,1758
9967,1779
9968,1791
9969,1809
9970,1824
9971,1850
9972,1865
9973,1892
9974,1919
9975,1935
9976,1922
9977,1909
9978,1895
9979,1885
9980,1871
9981,1868
9982,1859
9983,1872
9984,1872
9985,453
9986,1696
9987,2670
9988,2896
9989,2719
9990,2350
9991,1825
9992,1456
9993,1232
9994,1329
9995,1585
9996,1711
9997,1750
9998,1767
9999,1776
10000,1787
10001,1807
10002,1825
10003,1872
10004,1901
10005,1918
10006,1931
10007,1935
10008,1935
10009,1923
10010,1904
10011,1898
10012,1883
10013,1856
10014,1857
10015,1852
10016,848
10017,1286
10018,2559
10019,3001
10020,2879
10021,2448
10022,1827
10023,1397
10024,1194
10025,1293
10026,1584
10027,1718
10028,1751
10029,1761
10030,1759
10031,1767
10032,1769
10033,1798
10034,1839
10035,1863
10036,1902
10037,1918
10038,1929
10039,1929
10040,1931
10041,1937
10042,1936
10043,1915
10044,1894
10045,1885
10046,1871
10047,1613
10048,880
10049,2382
10050,3051
10051,3027
10052,2592
10053,1826
10054,1265
10055,1015
10056,1257
10057,1620
10058,1769
10059,1802
10060,1793
10061,1789
10062,1801
10063,1776
10064,1802
10065,1835
10066,1865
10067,1877
10068,1905
10069,1920
10070,1943
10071,1933
10072,1933
10073,1924
10074,1922
10075,1936
10076,1919
10077,1909
10078,2770
10079,546
10080,2187
10081,3071
10082,3085
10083,2559
10084,1744
10085,1113
10086,1078
10087,1376
10088,1682
10089,1799
10090,1825
10091,1831
10092,1826
10093,1811
10094,1806
10095,1819
10096,1838
10097,1856
10098,1870
10099,1886
10100,1891
10101,1898
10102,1906
10103,1911
10104,1918
10105,1916
10106,1913
10107,1915
10108,1923
10109,2053
10110,364
10111,1947
10112,3044
10113,3196
10114,2683
10115,1741
10116,1019
10117,1051
10118,1377
10119,1686
10120,1789
10121,1818
10122,1818
10123,1813
10124,1819
10125,1831
10126,1839
10127,1862
10128,1876
10129,1872
10130,1874
10131,1885
10132,1883
10133,1882
10134,1888
10135,1903
10136,1904
10137,1907
10138,1905
10139,1917
10140,1911
10141,523
10142,1664
10143,3136
10144,3712
10145,3003
10146,1870
10147,874
10148,784
10149,1215
10150,1589
10151,1728
10152,1783
10153,1795
10154,1795
10155,1808
10156,1821
10157,1837
10158,1893
10159,1909
10160,1911
10161,1920
10162,1900
10163,1891
10164,1889
10165,1890
10166,1893
10167,1895
10168,1904
10169,1894
10170,1915
10171,1917
10172,859
10173,1321
10174,3013
10175,4095
10176,3347
10177,2025
10178,848
10179,687
10180,1136
10181,1493
10182,1650
10183,1729
10184,1765
10185,1781
10186,1786
10187,1807
10188,1841
10189,1875
10190,1908
10191,1930
10192,1942
10193,1932
10194,1920
10195,1915
10196,1895
10197,1891
10198,1887
10199,1900
10200,1881
10201,1884
10202,1897
10203,1577
10204,944
10205,2783
10206,4095
10207,3719
10208,2250
10209,837
10210,498
10211,1008
10212,1456
10213,1641
10214,1730
10215,1764
10216,1770
10217,1776
10218,1792
10219,1825
10220,1866
10221,1902
10222,1915
10223,1930
10224,1947
10225,1953
10226,1943
10227,1921
10228,1902
10229,1897
10230,1875
10231,1877
10232,1871
10233,1878
10234,2448
10235,672
10236,2512
10237,4095
10238,4095
10239,2419
10240,814
10241,426
10242,938
10243,1411
10244,1639
10245,1749
10246,1773
10247,1775
10248,1771
10249,1781
10250,1811
10251,1853
10252,1894
10253,1910
10254,1938
10255,1936
10256,1937
10257,1951
10258,1959
10259,1952
10260,1947
10261,1929
10262,1909
10263,1885
10264,1872
10265,2227
10266,399
10267,2165
10268,4095
10269,4095
10270,2613
10271,822
10272,317
10273,911
10274,1453
10275,1713
10276,1790
10277,1808
10278,1793
10279,1787
10280,1787
10281,1808
10282,1840
10283,1872
10284,1895
10285,1911
10286,1923
10287,1941
10288,1937
10289,1945
10290,1949
10291,1950
10292,1941
10293,1930
10294,1904
10295,1904
10296,1881
10297,459
10298,1747
10299,3897
10300,4095
10301,2967
10302,1078
10303,266
10304,787
10305,1360
10306,1673
10307,1785
10308,1819
10309,1821
10310,1808
10311,1802
10312,1807
10313,1820
10314,1850
10315,1872
10316,1889
10317,1908
10318,1919
10319,1919
10320,1920
10321,1941
10322,1940
10323,1936
10324,1936
10325,1936
10326,1921
10327,1909
10328,844
10329,1302
10330,3246
10331,4095
10332,3391
10333,1404
10334,241
10335,707
10336,1345
10337,1685
10338,1789
10339,1815
10340,1821
10341,1827
10342,1829
10343,1818
10344,1825
10345,1863
10346,1872
10347,1881
10348,1887
10349,1895
10350,1909
10351,1920
10352,1922
10353,1932
10354,1935
10355,1930
10356,1925
10357,1926
10358,1931
10359,1535
10360,961
10361,2800
10362,4095
10363,3571
10364,1663
10365,400
10366,721
10367,1358
10368,1684
10369,1798
10370,1823
10371,1824
10372,1810
10373,1805
10374,1812
10375,1853
10376,1883
10377,1886
10378,1879
10379,1899
10380,1893
10381,1893
10382,1887
10383,1900
10384,1903
10385,1904
10386,1911
10387,1917
10388,1914
10389,1916
10390,2723
10391,631
10392,2423
10393,4095
10394,3937
10395,2039
10396,528
10397,631
10398,1283
10399,1649
10400,1763
10401,1795
10402,1803
10403,1805
10404,1791
10405,1809
10406,1826
10407,1866
10408,1904
10409,1922
10410,1936
10411,1935
10412,1912
10413,1879
10414,1883
10415,1883
10416,1885
10417,1878
10418,1890
10419,1904
10420,1894
10421,2097
10422,404
10423,2061
10424,4032
10425,4095
10426,2426
10427,677
10428,546
10429,1202
10430,1615
10431,1750
10432,1781
10433,1778
10434,1776
10435,1777
10436,1788
10437,1815
10438,1858
10439,1897
10440,1919
10441,1939
10442,1951
10443,1935
10444,1923
10445,1917
10446,1898
10447,1888
10448,1878
10449,1881
10450,1881
10451,1877
10452,1887
10453,511
10454,1680
10455,3701
10456,4095
10457,2883
10458,923
10459,384
10460,1042
10461,1531
10462,1738
10463,1770
10464,1778
10465,1767
10466,1767
10467,1776
10468,1786
10469,1839
10470,1875
10471,1918
10472,1939
10473,1946
10474,1943
10475,1951
10476,1946
10477,1935
10478,1903
10479,1899
10480,1885
10481,1885
10482,1873
10483,1873
10484,1873
10485,1872
10486,1886
10487,1883
10488,1902
10489,1900
10490,1898
10491,1903
10492,1906
10493,1877
10494,1857
10495,1857
10496,1850
10497,1837
10498,1839
10499,1838
10500,1845
10501,1846
10502,1861
10503,1865
10504,1872
10505,1881
10506,1885
10507,1882
10508,1895
10509,1891
10510,1875
10511,1856
10512,1840
10513,1835
10514,1831
10515,1837
10516,1840
10517,1840
10518,1845
10519,1861
10520,1866
10521,1872
10522,1872
10523,1875
10524,1878
10525,1884
10526,1879
10527,1871
10528,1855
10529,1850
10530,1842
10531,1840
10532,1839
10533,1840
10534,1840
10535,1856
10536,1870
10537,1867
10538,1881
10539,1882
10540,1882
10541,1891
10542,1897
10543,1876
10544,1870
10545,1856
10546,1843
10547,1833
10548,1835
10549,1840
10550,1838
10551,1847
10552,1852
10553,1855
10554,1858
10555,1869
10556,1872
10557,1883
10558,1894
10559,1881
10560,1871
10561,1857
10562,1855
10563,1834
10564,1829
10565,1834
10566,1840
10567,1840
10568,1850
10569,1857
10570,1870
10571,1873
10572,1872
10573,1879
10574,1879
10575,1890
10576,1877
10577,1872
10578,1855
10579,1840
10580,1830
10581,1834
10582,1824
10583,1837
10584,1839
10585,1841
10586,1855
10587,1843
10588,1878
10589,1883
10590,1881
10591,1893
10592,1895
10593,1872
10594,1857
10595,1845
10596,1840
10597,1838
10598,1835
10599,1839
10600,1847
10601,1845
10602,1853
10603,1873
10604,1873
10605,1885
10606,1888
10607,1889
10608,1895
10609,1893
10610,1883
10611,1866
10612,1856
10613,1826
10614,1830
10615,1829
10616,1836
10617,1847
10618,1858
10619,1870
10620,1867
10621,1871
10622,1877
10623,1884
10624,1891
10625,1892
10626,1893
10627,1873
10628,1853
10629,1844
10630,1837
10631,1830
10632,1836
10633,1840
10634,1845
10635,1861
10636,1866
10637,1875
10638,1882
10639,1877
10640,1883
10641,1903
10642,1903
10643,1883
10644,1859
10645,1850
10646,1840
10647,1834
10648,1833
10649,1842
10650,1841
10651,1845
10652,1861
10653,1872
10654,1877
10655,1885
10656,1885
10657,1887
10658,1899
10659,1889
10660,1879
10661,1863
10662,1853
10663,1843
10664,1839
10665,1840
10666,1844
10667,1845
10668,1862
10669,1869
10670,1877
10671,1882
10672,1883
10673,1874
10674,1889
10675,1882
10676,1872
10677,1870
10678,1869
10679,1850
10680,1840
10681,1840
10682,1845
10683,1849
10684,1852
10685,1856
10686,1872
10687,1872
10688,1879
10689,1886
10690,1893
10691,1904
10692,1892
10693,1882
10694,1873
10695,1855
10696,1840
10697,1835
10698,1840
10699,1830
10700,1840
10701,1851
10702,1862
10703,1856
10704,1870
10705,1869
10706,1872
10707,1879
10708,1897
10709,1904
10710,1899
10711,1891
10712,1870
10713,1847
10714,1823
10715,1817
10716,1819
10717,1811
10718,1839
10719,1858
10720,1862
10721,1875
10722,1881
10723,1889
10724,1883
10725,1895
10726,1894
10727,1875
10728,1863
10729,1846
10730,1839
10731,1841
10732,1843
10733,1841
10734,1842
10735,1847
10736,1872
10737,1872
10738,1873
10739,1872
10740,1882
10741,1896
10742,1898
10743,1879
10744,1872
10745,1861
10746,1849
10747,1840
10748,1840
10749,1840
10750,1842
10751,1851
10752,1863
10753,1868
10754,1873
10755,1883
10756,1879
10757,1883
10758,1894
10759,1894
10760,1872
10761,1871
10762,1856
10763,1839
10764,1837
10765,1836
10766,1840
10767,1847
10768,1857
10769,1872
10770,1889
10771,1911
10772,1922
10773,1917
10774,1904
10775,1894
10776,1865
10777,1823
10778,1807
10779,1817
10780,1823
10781,1837
10782,1840
10783,1849
10784,1847
10785,1869
10786,1874
10787,1885
10788,1891
10789,1894
10790,1897
10791,1891
10792,1895
10793,1870
10794,1844
10795,1840
10796,1838
10797,1838
10798,1839
10799,1841
10800,1849
10801,1854
10802,1853
10803,1872
10804,1883
10805,1887
10806,1884
10807,1885
10808,1900
10809,1891
10810,1879
10811,1856
10812,1869
10813,1853
10814,1842
10815,1841
10816,1855
10817,1843
10818,1855
10819,1854
10820,1869
10821,1878
10822,1879
10823,1874
10824,1883
10825,1891
10826,1882
10827,1866
10828,1850
10829,1842
10830,1839
10831,1835
10832,1843
10833,1851
10834,1843
10835,1859
10836,1867
10837,1871
10838,1872
10839,1879
10840,1885
10841,1905
10842,1895
10843,1875
10844,1859
10845,1861
10846,1850
10847,1840
10848,1840
10849,1854
10850,1846
10851,1856
10852,1871
10853,1866
10854,1879
10855,1875
10856,1879
10857,1886
10858,1895
10859,1892
10860,1875
10861,1866
10862,1860
10863,1837
10864,1840
10865,1840
10866,1831
10867,1849
10868,1856
10869,1856
10870,1872
10871,1874
10872,1886
10873,1884
10874,1878
10875,1895
10876,1885
10877,1872
10878,1871
10879,1854
10880,1840
10881,1838
10882,1838
10883,1837
10884,1840
10885,1847
10886,1862
10887,1872
10888,1885
10889,1882
10890,1884
10891,1907
10892,1895
10893,1882
10894,1871
10895,1855
10896,1847
10897,1840
10898,1840
10899,1843
10900,1842
10901,1845
10902,1858
10903,1868
10904,1872
10905,1879
10906,1883
10907,1883
10908,1893
10909,1894
10910,1878
10911,1869
10912,1856
10913,1841
10914,1833
10915,1835
10916,1840
10917,1849
10918,1855
10919,1875
10920,1877
10921,1879
10922,1882
10923,1882
10924,1885
10925,1899
10926,1889
10927,1877
10928,1865
10929,1849
10930,1841
10931,1837
10932,1840
10933,1842
10934,1845
10935,1856
10936,1863
10937,1872
10938,1881
10939,1884
10940,1885
10941,1888
10942,1897
10943,1875
10944,1866
10945,1851
10946,1842
10947,1835
10948,1828
10949,1844
10950,1842
10951,1856
10952,1858
10953,1862
10954,1881
10955,1886
10956,1881
10957,1883
10958,1890
10959,1892
10960,1881
10961,1863
10962,1850
10963,1842
10964,1841
10965,1840
10966,1863
10967,1850
10968,1856
10969,1867
10970,1869
10971,1877
10972,1881
10973,1873
10974,1878
10975,1887
10976,1886
10977,1871
10978,1860
10979,1844
10980,1838
10981,1839
10982,1836
10983,1843
10984,1845
10985,1852
10986,1865
10987,1876
10988,1878
10989,1885
10990,1887
10991,1895
10992,1894
10993,1888
10994,1871
10995,1857
10996,1855
10997,1840
10998,1840
10999,1840
11000,1847
11001,1853
11002,1859
11003,1855
11004,1872
11005,1873
11006,1872
11007,1877
11008,1885
11009,1888
11010,1876
11011,1871
11012,1857
11013,1841
11014,1837
11015,1837
11016,1840
11017,1841
11018,1851
11019,1853
11020,1872
11021,1874
11022,1882
11023,1886
11024,1889
11025,1893
11026,1881
11027,1872
11028,1856
11029,1849
11030,1840
11031,1839
11032,1837
11033,1839
11034,1842
11035,1846
11036,1862
11037,1862
11038,1867
11039,1882
11040,1887
11041,1874
11042,1898
11043,1882
11044,1860
11045,1854
11046,1843
11047,1837
11048,1841
11049,1843
11050,1842
11051,1850
11052,1855
11053,1863
11054,1871
11055,1882
11056,1886
11057,1883
11058,1895
11059,1895
11060,1878
11061,1866
11062,1843
11063,1840
11064,1834
11065,1833
11066,1835
11067,1845
11068,1856
11069,1859
11070,1866
11071,1873
11072,1883
11073,1883
11074,1902
11075,1903
11076,1887
11077,1872
11078,1869
11079,1851
11080,1840
11081,1838
11082,1841
11083,1840
11084,1847
11085,1853
11086,1866
11087,1870
11088,1883
11089,1882
11090,1881
11091,1890
11092,1895
11093,1875
11094,1858
11095,1855
11096,1843
11097,1836
11098,1829
11099,1841
11100,1842
11101,1846
11102,1862
11103,1859
11104,1867
11105,1877
11106,1878
11107,1883
11108,1893
11109,1889
11110,1877
11111,1870
11112,1856
11113,1844
11114,1838
11115,1837
11116,1839
11117,1844
11118,1863
11119,1851
11120,1861
11121,1872
11122,1873
11123,1874
11124,1882
11125,1887
11126,1883
11127,1871
11128,1853
11129,1841
11130,1840
11131,1840
11132,1837
11133,1846
11134,1852
11135,1856
11136,1872
11137,1872
11138,1873
11139,1879
11140,1882
11141,1886
11142,1895
11143,1884
11144,1869
11145,1855
11146,1859
11147,1840
11148,1840
11149,1849
11150,1840
11151,1846
11152,1856
11153,1858
11154,1871
11155,1874
11156,1877
11157,1885
11158,1895
11159,1891
11160,1878
11161,1862
11162,1847
11163,1846
11164,1840
11165,1836
11166,1847
11167,1845
11168,1845
11169,1861
11170,1867
11171,1882
11172,1884
11173,1883
11174,1879
11175,1900
11176,1887
11177,1883
11178,1856
11179,1851
11180,1840
11181,1831
11182,1835
11183,1839
11184,1840
11185,1847
11186,1859
11187,1872
11188,1875
11189,1887
11190,1886
11191,1894
11192,1899
11193,1882
11194,1868
11195,1859
11196,1843
11197,1839
11198,1840
11199,1837
11200,1846
11201,1856
11202,1852
11203,1872
11204,1873
11205,1883
11206,1879
11207,1886
11208,1894
11209,1893
11210,1879
11211,1877
11212,1859
11213,1835
11214,1837
11215,1831
11216,1826
11217,1841
11218,1843
11219,1859
11220,1858
11221,1872
11222,1875
11223,1883
11224,1886
11225,1891
11226,1888
11227,1874
11228,1872
11229,1859
11230,1839
11231,1842
11232,1840
11233,1847
11234,1846
11235,1854
11236,1862
11237,1866
11238,1877
11239,1877
11240,1885
11241,1887
11242,1897
11243,1886
11244,1859
11245,1850
11246,1840
11247,1831
11248,1830
11249,1835
11250,1844
11251,1854
11252,1856
11253,1865
11254,1872
11255,1875
11256,1876
11257,1883
11258,1895
11259,1893
11260,1881
11261,1858
11262,1854
11263,1840
11264,1834
11265,1849
11266,1840
11267,1848
11268,1853
11269,1865
11270,1871
11271,1879
11272,1880
11273,1880
11274,1879
11275,1890
11276,1873
11277,1883
11278,1847
11279,1842
11280,1840
11281,1829
11282,1834
11283,1840
11284,1837
11285,1860
11286,1867
11287,1875
11288,1874
11289,1874
11290,1887
11291,1886
11292,1902
11293,1893
11294,1876
11295,1870
11296,1845
11297,1840
11298,1843
11299,1840
11300,1840
11301,1852
11302,1849
11303,1859
11304,1866
11305,1872
11306,1873
11307,1872
11308,1890
11309,1895
11310,1878
11311,1872
11312,1856
11313,1840
11314,1837
11315,1837
11316,1840
11317,1840
11318,1850
11319,1856
11320,1873
11321,1878
11322,1887
11323,1887
11324,1889
11325,1899
11326,1894
11327,1869
11328,1855
11329,1847
11330,1831
11331,1830
11332,1835
11333,1835
11334,1839
11335,1850
11336,1856
11337,1862
11338,1872
11339,1877
11340,1882
11341,1888
11342,1902
11343,1890
11344,1872
11345,1849
11346,1846
11347,1837
11348,1840
11349,1846
11350,1851
11351,1854
11352,1856
11353,1861
11354,1872
11355,1881
11356,1887
11357,1892
11358,1901
11359,1899
11360,1881
11361,1872
11362,1850
11363,1827
11364,1813
11365,1821
11366,1825
11367,1826
11368,1841
11369,1840
11370,1842
11371,1866
11372,1875
11373,1878
11374,1876
11375,1895
11376,1881
11377,1871
11378,1868
11379,1877
11380,1861
11381,1852
11382,1840
11383,1853
11384,1851
11385,1872
11386,1874
11387,1881
11388,1881
11389,1883
11390,1885
11391,1869
11392,1891
11393,1868
11394,1861
11395,1852
11396,1838
11397,1825
11398,1818
11399,1836
11400,1855
11401,1863
11402,1872
11403,1872
11404,1867
11405,1872
11406,1867
11407,1867
11408,1882
11409,1889
11410,1877
11411,1863
11412,1857
11413,1846
11414,1839
11415,1836
11416,1845
11417,1831
11418,1838
11419,1844
11420,1856
11421,1872
11422,1882
11423,1883
11424,1883
11425,1898
11426,1883
11427,1872
11428,1846
11429,1843
11430,1831
11431,1837
11432,1840
11433,1840
11434,1841
11435,1854
11436,1872
11437,1882
11438,1894
11439,1899
11440,1903
11441,1896
11442,1904
11443,1877
11444,1851
11445,1838
11446,1829
11447,1821
11448,1824
11449,1839
11450,1850
11451,1863
11452,1865
11453,1869
11454,1865
11455,1873
11456,1872
11457,1877
11458,1889
11459,1889
11460,1873
11461,1857
11462,1851
11463,1833
11464,1833
11465,1839
11466,1855
11467,1849
11468,1858
11469,1873
11470,1879
11471,1888
11472,1888
11473,1881
11474,1868
11475,1872
11476,1862
11477,1863
11478,1856
11479,1840
11480,1833
11481,1837
11482,571
11483,1458
11484,2530
11485,2817
11486,2683
11487,2384
11488,2058
11489,1661
11490,1311
11491,1415
11492,1561
11493,1649
11494,1712
11495,1760
11496,1782
11497,1775
11498,1778
11499,1792
11500,1832
11501,1877
11502,1883
11503,1904
11504,1903
11505,1911
11506,1890
11507,1875
11508,1885
11509,1905
11510,1903
11511,1890
11512,1890
11513,906
11514,1255
11515,2443
11516,2833
11517,2753
11518,2448
11519,2112
11520,1611
11521,1309
11522,1360
11523,1454
11524,1606
11525,1744
11526,1794
11527,1808
11528,1810
11529,1819
11530,1810
11531,1826
11532,1840
11533,1852
11534,1872
11535,1896
11536,1908
11537,1914
11538,1911
11539,1920
11540,1929
11541,1929
11542,1936
11543,1915
11544,2013
11545,807
11546,2278
11547,2833
11548,2799
11549,2505
11550,2126
11551,1601
11552,1328
11553,1327
11554,1417
11555,1593
11556,1734
11557,1795
11558,1831
11559,1840
11560,1838
11561,1830
11562,1835
11563,1825
11564,1841
11565,1856
11566,1872
11567,1878
11568,1895
11569,1904
11570,1912
11571,1920
11572,1923
11573,1916
11574,1912
11575,2681
11576,511
11577,2156
11578,2927
11579,2967
11580,2622
11581,2164
11582,1555
11583,1271
11584,1243
11585,1338
11586,1569
11587,1726
11588,1786
11589,1809
11590,1821
11591,1826
11592,1850
11593,1847
11594,1865
11595,1873
11596,1884
11597,1882
11598,1888
11599,1883
11600,1883
11601,1889
11602,1902
11603,1904
11604,1899
11605,1909
11606,1925
11607,395
11608,1867
11609,2877
11610,3048
11611,2747
11612,2246
11613,1578
11614,1211
11615,1101
11616,1327
11617,1595
11618,1730
11619,1776
11620,1790
11621,1810
11622,1822
11623,1835
11624,1840
11625,1904
11626,1921
11627,1917
11628,1911
11629,1918
11630,1901
11631,1887
11632,1883
11633,1878
11634,1879
11635,1889
11636,1898
11637,1914
11638,539
11639,1638
11640,2837
11641,3167
11642,2921
11643,2337
11644,1600
11645,1147
11646,1062
11647,1325
11648,1619
11649,1717
11650,1755
11651,1765
11652,1776
11653,1801
11654,1810
11655,1841
11656,1878
11657,1904
11658,1927
11659,1934
11660,1931
11661,1920
11662,1909
11663,1887
11664,1881
11665,1873
11666,1874
11667,1882
11668,1889
11669,881
11670,1254
11671,2693
11672,3227
11673,3011
11674,2352
11675,1535
11676,1064
11677,1137
11678,1459
11679,1709
11680,1764
11681,1776
11682,1767
11683,1774
11684,1776
11685,1794
11686,1824
11687,1867
11688,1903
11689,1920
11690,1927
11691,1937
11692,1947
11693,1936
11694,1923
11695,1906
11696,1889
11697,1875
11698,1867
11699,1873
11700,1890
11701,786
11702,2403
11703,3216
11704,3114
11705,2457
11706,1506
11707,985
11708,1181
11709,1535
11710,1744
11711,1795
11712,1798
11713,1778
11714,1767
11715,1763
11716,1775
11717,1799
11718,1845
11719,1878
11720,1894
11721,1918
11722,1934
11723,1931
11724,1934
11725,1936
11726,1926
11727,1909
11728,1889
11729,1884
11730,1871
11731,2661
11732,454
11733,2145
11734,3184
11735,3207
11736,2544
11737,1472
11738,862
11739,1174
11740,1584
11741,1776
11742,1845
11743,1840
11744,1829
11745,1792
11746,1787
11747,1777
11748,1805
11749,1838
11750,1866
11751,1887
11752,1904
11753,1905
11754,1914
11755,1907
11756,1909
11757,1921
11758,1937
11759,1935
11760,1920
11761,1903
11762,2003
11763,349
11764,2000
11765,3695
11766,3927
11767,2835
11768,1483
11769,606
11770,822
11771,1318
11772,1591
11773,1718
11774,1790
11775,1808
11776,1808
11777,1806
11778,1805
11779,1811
11780,1840
11781,1872
11782,1931
11783,1954
11784,1933
11785,1873
11786,1841
11787,1872
11788,1904
11789,1914
11790,1911
11791,1914
11792,1937
11793,1927
11794,571
11795,1569
11796,3682
11797,4095
11798,3377
11799,1726
11800,482
11801,489
11802,1015
11803,1430
11804,1651
11805,1744
11806,1776
11807,1786
11808,1809
11809,1834
11810,1857
11811,1875
11812,1891
11813,1921
11814,1936
11815,1936
11816,1918
11817,1883
11818,1887
11819,1882
11820,1914
11821,1922
11822,1917
11823,1921
11824,1919
11825,1016
11826,1237
11827,3343
11828,4095
11829,3759
11830,1887
11831,396
11832,361
11833,1020
11834,1468
