Time(ms),Raw_ADC,ENV_Value,RMS,MDF,MW_Amp,MW_Area,MW_Latency,Marker
0,1859.5,13.9,0.0,64.5,0.0,0.0,0.0,
100,1860.8,12.7,0.0,64.5,0.0,0.0,0.0,
200,1862.0,11.3,0.0,64.5,0.0,0.0,0.0,
300,1863.4,14.9,0.0,64.5,0.0,0.0,0.0,
400,1859.8,13.2,0.0,64.5,0.0,0.0,0.0,
500,1856.8,13.4,0.0,121.1,0.0,0.0,0.0,
600,1861.8,12.0,0.0,119.1,0.0,0.0,0.0,
700,1840.3,159.4,0.0,128.9,0.0,0.0,0.0,
800,1887.2,310.3,0.0,64.5,1345.0,6141.0,10.0,
900,1879.9,335.5,219.0,64.5,1297.0,5701.0,10.0,
1000,1856.5,290.7,260.2,64.5,1203.0,5365.0,10.0,
1100,1821.9,235.5,301.7,64.5,1164.0,5123.0,10.0,
1200,1859.9,250.7,324.7,64.5,967.0,5166.0,9.0,
1300,1917.6,153.3,351.8,64.5,1077.0,5148.0,10.0,
1400,1860.2,18.1,351.9,64.5,1077.0,5148.0,10.0,
1500,1861.9,16.0,351.9,64.5,1077.0,5148.0,10.0,
1600,1863.9,18.8,351.9,64.5,1077.0,5148.0,10.0,
1800,1862.9,15.4,312.6,76.2,1077.0,5148.0,10.0,
1900,1859.0,14.4,276.2,76.2,1077.0,5148.0,10.0,
2000,1859.6,14.8,237.8,72.3,1077.0,5148.0,10.0,
2100,1860.9,12.1,182.3,72.3,1077.0,5148.0,10.0,
2200,1860.0,11.9,137.2,74.2,1077.0,5148.0,10.0,
2300,1862.0,220.9,21.2,85.9,1077.0,5148.0,10.0,
2400,1860.9,311.2,157.4,62.5,1424.0,6511.0,11.0,
2500,1828.7,229.3,219.7,62.5,1478.0,6266.0,10.0,
2600,1895.4,288.6,259.4,62.5,1197.0,5832.0,9.0,
2800,1863.9,296.5,327.3,64.5,1115.0,5207.0,10.0,
2900,1836.4,243.4,360.8,64.5,1164.0,5116.0,10.0,
3000,1874.2,24.8,365.2,64.5,1164.0,5116.0,10.0,
3100,1859.9,19.9,365.3,64.5,1164.0,5116.0,10.0,
3200,1859.6,19.7,365.4,62.5,1164.0,5116.0,10.0,
3300,1857.6,16.4,365.4,60.5,1164.0,5116.0,10.0,
3400,1858.5,18.0,330.4,68.4,1164.0,5116.0,10.0,
3500,1863.2,14.3,292.8,64.5,1164.0,5116.0,10.0,
3600,1858.8,17.6,258.2,56.6,1164.0,5116.0,10.0,
3800,1861.8,13.0,163.7,101.6,1164.0,5116.0,10.0,
3900,1859.3,80.3,60.9,93.8,1164.0,5116.0,10.0,
4000,1882.0,305.4,147.1,66.4,1379.0,6328.0,10.0,
4100,1876.5,345.5,209.5,64.5,1376.0,6071.0,10.0,
4200,1857.6,282.1,254.9,64.5,1295.0,5498.0,10.0,
4300,1821.9,236.6,299.8,64.5,1181.0,5271.0,10.0,
4400,1854.5,268.4,330.8,64.5,1220.0,5524.0,10.0,
4500,1912.7,302.3,353.8,64.5,1101.0,5438.0,9.0,
4600,1861.7,30.9,361.6,64.5,1101.0,5438.0,9.0,
4800,1859.3,18.1,361.6,64.5,1101.0,5438.0,9.0,
4900,1861.0,21.0,361.7,64.5,1101.0,5438.0,9.0,
5000,1861.6,11.6,331.2,66.4,1101.0,5438.0,9.0,
5100,1862.7,16.4,295.8,66.4,1101.0,5438.0,9.0,
5200,1859.6,15.1,257.6,74.2,1101.0,5438.0,9.0,
5300,1860.7,12.4,203.5,76.2,1101.0,5438.0,9.0,
5400,1863.0,17.7,147.7,82.0,1101.0,5438.0,9.0,
5500,1862.3,16.3,77.9,93.8,1101.0,5438.0,9.0,
5600,1863.5,279.8,127.8,58.6,1359.0,6663.0,11.0,
5800,1896.9,262.0,250.8,62.5,1170.0,5442.0,9.0,
5900,1901.9,312.7,280.5,62.5,1100.0,5423.0,10.0,
6000,1875.4,263.9,309.8,62.5,1013.0,5289.0,10.0,
6100,1834.0,220.4,342.3,64.5,993.0,4719.0,10.0,
6200,1880.2,41.4,354.7,64.5,986.0,5211.0,11.0,
6300,1863.4,16.9,354.7,64.5,986.0,5211.0,11.0,
6400,1858.5,13.3,354.7,64.5,986.0,5211.0,11.0,
6500,1860.3,13.8,354.7,62.5,986.0,5211.0,11.0,
6600,1860.1,18.0,331.6,66.4,986.0,5211.0,11.0,
6800,1860.0,15.1,251.7,78.1,986.0,5211.0,11.0,
6900,1860.1,20.4,218.1,82.0,986.0,5211.0,11.0,
7000,1862.6,15.0,174.0,91.8,986.0,5211.0,11.0,
7100,1859.2,14.8,95.2,78.1,986.0,5211.0,11.0,
7200,1870.8,307.5,112.3,58.6,1389.0,6837.0,11.0,
7300,1893.9,333.6,177.7,52.7,1303.0,6384.0,10.0,
7400,1872.0,265.3,226.2,60.5,1188.0,5696.0,10.0,
7500,1823.8,278.8,275.1,64.5,1190.0,5617.0,10.0,
7600,1876.8,287.5,310.9,64.5,1056.0,5239.0,10.0,
7800,1858.8,51.9,353.7,64.5,1016.0,5266.0,11.0,
7900,1860.2,15.1,353.7,62.5,1016.0,5266.0,11.0,
8000,1862.5,16.1,353.7,60.5,1016.0,5266.0,11.0,
8100,1858.2,17.7,353.7,52.7,1016.0,5266.0,11.0,
8200,1861.2,18.3,336.0,56.6,1016.0,5266.0,11.0,
8300,1860.4,14.5,306.5,80.1,1016.0,5266.0,11.0,
8400,1862.2,16.1,272.7,89.8,1016.0,5266.0,11.0,
8500,1859.5,17.5,223.2,101.6,1016.0,5266.0,11.0,
8600,1860.8,12.5,169.8,85.9,1016.0,5266.0,11.0,
8800,1844.3,231.8,105.5,107.4,1237.0,6179.0,11.0,
8900,1832.8,316.1,187.8,62.5,1338.0,6448.0,10.0,
9000,1889.5,305.5,243.3,62.5,1226.0,5804.0,10.0,
9100,1877.3,276.5,269.5,62.5,993.0,5190.0,9.0,
9200,1885.4,235.0,294.1,64.5,964.0,4908.0,10.0,
9300,1838.8,200.2,327.6,64.5,969.0,4907.0,10.0,
9400,1888.6,71.8,346.8,64.5,912.0,4787.0,10.0,
9500,1858.8,18.6,346.8,64.5,912.0,4787.0,10.0,
9600,1864.4,17.5,346.7,64.5,912.0,4787.0,10.0,
9800,1860.6,17.9,331.0,60.5,912.0,4787.0,10.0,
9900,1860.8,17.5,292.3,60.5,912.0,4787.0,10.0,
10000,1860.8,18.9,248.0,70.3,912.0,4787.0,10.0,
10100,1861.3,13.2,219.3,87.9,912.0,4787.0,10.0,
10200,1860.0,13.9,184.9,80.1,912.0,4787.0,10.0,
10300,1862.0,13.2,115.7,95.7,912.0,4787.0,10.0,
10400,1866.3,276.5,77.8,80.1,1354.0,6323.0,11.0,
10500,1891.1,310.9,150.6,56.6,1324.0,6354.0,10.0,
10600,1853.4,243.6,212.5,60.5,1108.0,5414.0,10.0,
10800,1887.3,267.2,290.3,64.5,977.0,4814.0,10.0,
10900,1855.1,285.8,320.7,64.5,895.0,4797.0,10.0,
11000,1867.1,99.1,339.5,64.5,841.0,4591.0,10.0,
11100,1859.2,17.9,339.5,64.5,841.0,4591.0,10.0,
11200,1861.3,15.2,339.5,62.5,841.0,4591.0,10.0,
11300,1861.2,21.9,339.6,58.6,841.0,4591.0,10.0,
11400,1862.0,28.1,331.2,52.7,841.0,4591.0,10.0,
11500,1860.6,19.2,305.1,64.5,841.0,4591.0,10.0,
11600,1860.5,15.8,265.8,58.6,841.0,4591.0,10.0,
11800,1859.0,14.3,177.6,76.2,841.0,4591.0,10.0,
11900,1857.5,16.3,113.9,84.0,841.0,4591.0,10.0,
12000,1834.0,157.7,64.7,85.9,841.0,4591.0,10.0,
12100,1860.0,314.7,167.6,64.5,1390.0,6321.0,11.0,
12200,1885.1,336.3,225.7,62.5,1189.0,5700.0,10.0,
12300,1855.3,279.8,261.5,62.5,1087.0,5538.0,10.0,
12400,1888.4,222.5,285.6,64.5,974.0,5117.0,10.0,
12500,1844.9,255.3,317.1,64.5,975.0,4938.0,10.0,
12600,1888.3,154.0,344.4,64.5,950.0,4755.0,10.0,
12800,1860.8,14.4,344.6,64.5,950.0,4755.0,10.0,
12900,1860.5,14.0,344.6,64.5,950.0,4755.0,10.0,
13000,1861.0,13.2,339.2,62.5,950.0,4755.0,10.0,
13100,1859.3,15.2,301.9,72.3,950.0,4755.0,10.0,
13200,1860.7,11.7,261.4,95.7,950.0,4755.0,10.0,
13300,1859.3,15.8,225.6,119.1,950.0,4755.0,10.0,
13400,1861.3,12.2,194.1,119.1,950.0,4755.0,10.0,
13500,1859.5,18.4,136.5,121.1,950.0,4755.0,10.0,
13600,1858.3,175.3,24.2,121.1,950.0,4755.0,10.0,
13800,1863.6,213.8,177.0,60.5,1004.0,5408.0,10.0,
13900,1851.6,246.6,220.0,62.5,991.0,4967.0,10.0,
14000,1888.8,262.5,256.5,64.5,890.0,4838.0,11.0,
14100,1853.2,257.9,287.0,64.5,868.0,4432.0,11.0,
14200,1848.0,208.8,312.2,64.5,862.0,4651.0,11.0,
14300,1856.3,24.2,317.7,64.5,862.0,4651.0,11.0,
14400,1860.7,15.9,317.7,64.5,862.0,4651.0,11.0,
14500,1862.7,13.8,317.7,62.5,862.0,4651.0,11.0,
14600,1858.2,21.0,317.7,48.8,862.0,4651.0,11.0,
14800,1861.2,19.7,264.6,85.9,862.0,4651.0,11.0,
14900,1860.1,12.2,230.1,76.2,862.0,4651.0,11.0,
15000,1858.3,16.7,188.5,109.4,862.0,4651.0,11.0,
15100,1859.8,13.0,137.8,121.1,862.0,4651.0,11.0,
15200,1862.2,71.8,62.2,119.1,862.0,4651.0,11.0,
15300,1845.5,295.8,143.7,66.4,1366.0,6353.0,11.0,
15400,1880.0,310.2,201.5,62.5,1168.0,5462.0,11.0,
15500,1847.8,277.1,243.3,62.5,1005.0,5177.0,11.0,
15600,1823.6,208.8,278.0,64.5,939.0,4662.0,11.0,
15800,1912.0,233.0,321.3,64.5,829.0,4129.0,11.0,
15900,1859.6,29.4,329.2,64.5,829.0,4129.0,11.0,
16000,1860.3,16.0,329.2,64.5,829.0,4129.0,11.0,
16100,1862.2,17.8,329.2,66.4,829.0,4129.0,11.0,
16200,1859.7,13.2,329.2,66.4,829.0,4129.0,11.0,
16300,1860.3,15.5,296.8,78.1,829.0,4129.0,11.0,
16400,1861.5,16.4,261.1,82.0,829.0,4129.0,11.0,
16500,1862.8,15.2,222.7,101.6,829.0,4129.0,11.0,
16600,1859.8,13.5,177.5,119.1,829.0,4129.0,11.0,
16800,1861.4,13.6,74.0,82.0,829.0,4129.0,11.0,
16900,1858.0,264.7,119.8,66.4,1230.0,6074.0,12.0,
17000,1822.0,229.8,183.0,62.5,1494.0,6388.0,11.0,
17100,1906.0,256.5,220.9,60.5,944.0,5154.0,10.0,
17200,1889.4,274.9,254.6,48.8,942.0,4903.0,10.0,
17300,1856.6,246.6,284.3,64.5,893.0,4783.0,11.0,
17400,1829.5,209.4,317.5,64.5,826.0,4372.0,11.0,
17500,1872.1,40.6,329.3,64.5,870.0,4621.0,11.0,
17600,1860.7,13.5,329.3,64.5,870.0,4621.0,11.0,
17800,1861.4,15.7,329.3,62.5,870.0,4621.0,11.0,
17900,1864.3,20.9,307.4,66.4,870.0,4621.0,11.0,
18000,1862.1,15.4,274.4,105.5,870.0,4621.0,11.0,
18100,1861.3,11.8,245.0,70.3,870.0,4621.0,11.0,
18200,1860.8,14.2,209.7,82.0,870.0,4621.0,11.0,
18300,1863.1,15.8,167.2,125.0,870.0,4621.0,11.0,
18400,1859.6,15.0,89.7,123.0,870.0,4621.0,11.0,
18500,1881.4,286.6,113.4,66.4,1403.0,7199.0,11.0,
18600,1895.0,336.5,179.9,62.5,1231.0,6194.0,11.0,
18800,1827.3,217.6,273.7,64.5,1041.0,5202.0,11.0,
18900,1854.0,278.0,307.9,64.5,971.0,4953.0,11.0,
19000,1880.7,269.6,331.2,64.5,963.0,4842.0,11.0,
19100,1870.1,53.2,343.0,64.5,874.0,4810.0,11.0,
19200,1860.5,16.6,343.1,62.5,874.0,4810.0,11.0,
19300,1864.1,14.1,343.1,62.5,874.0,4810.0,11.0,
19400,1859.3,16.2,343.0,60.5,874.0,4810.0,11.0,
19500,1858.6,14.6,324.4,62.5,874.0,4810.0,11.0,
19600,1861.6,14.7,292.8,82.0,874.0,4810.0,11.0,
19800,1861.4,13.0,207.7,68.4,874.0,4810.0,11.0,
19900,1864.0,14.2,152.4,78.1,874.0,4810.0,11.0,
20000,1859.8,13.2,91.4,91.8,874.0,4810.0,11.0,
20100,1847.6,204.7,98.1,123.0,955.0,5258.0,12.0,
20200,1837.9,280.0,172.1,66.4,1054.0,5565.0,10.0,
20300,1883.8,283.3,225.5,64.5,1033.0,5562.0,11.0,
20400,1862.3,297.6,263.1,64.5,1039.0,5425.0,11.0,
20500,1878.1,230.6,285.0,64.5,916.0,4999.0,10.0,
20600,1860.8,190.4,314.0,64.5,840.0,4450.0,11.0,
20800,1857.5,15.7,333.0,64.5,840.0,4450.0,11.0,
20900,1860.7,13.9,333.0,64.5,840.0,4450.0,11.0,
21000,1859.9,13.1,333.0,64.5,840.0,4450.0,11.0,
21100,1863.2,13.6,318.8,62.5,840.0,4450.0,11.0,
21200,1861.5,15.1,285.7,101.6,840.0,4450.0,11.0,
21300,1858.4,12.6,245.8,109.4,840.0,4450.0,11.0,
21400,1858.5,14.2,205.0,80.1,840.0,4450.0,11.0,
21500,1862.6,14.1,173.1,82.0,840.0,4450.0,11.0,
21600,1858.5,14.4,112.2,91.8,840.0,4450.0,11.0,
21800,1863.4,296.9,162.1,60.5,1191.0,6097.0,12.0,
21900,1887.9,238.7,200.3,56.6,1030.0,5727.0,11.0,
22000,1837.2,255.0,244.7,44.9,964.0,5094.0,11.0,
22100,1884.7,238.7,278.8,64.5,919.0,4837.0,11.0,
22200,1864.2,271.9,307.1,64.5,896.0,4395.0,11.0,
22300,1847.8,104.8,333.2,64.5,784.0,4376.0,11.0,
22400,1857.3,18.4,333.2,64.5,784.0,4376.0,11.0,
22500,1859.0,10.9,333.2,64.5,784.0,4376.0,11.0,
22600,1863.3,12.3,333.2,64.5,784.0,4376.0,11.0,
22800,1859.0,14.5,291.7,119.1,784.0,4376.0,11.0,
22900,1859.9,17.6,266.9,101.6,784.0,4376.0,11.0,
23000,1859.7,15.2,227.0,84.0,784.0,4376.0,11.0,
23100,1862.5,12.9,183.5,74.2,784.0,4376.0,11.0,
23200,1860.8,15.7,130.6,82.0,784.0,4376.0,11.0,
23300,1846.5,144.2,56.4,152.3,784.0,4376.0,11.0,
23400,1862.3,266.0,148.7,70.3,1114.0,5526.0,11.0,
23500,1894.2,274.9,202.8,64.5,961.0,4889.0,11.0,
23600,1856.3,270.0,241.3,64.5,959.0,4855.0,11.0,
23800,1830.9,212.8,300.5,64.5,796.0,4329.0,10.0,
23900,1908.8,139.6,319.5,64.5,801.0,4787.0,10.0,
24000,1866.8,17.6,320.1,64.5,801.0,4787.0,10.0,
24100,1862.5,11.3,320.1,64.5,801.0,4787.0,10.0,
24200,1862.3,13.6,320.1,64.5,801.0,4787.0,10.0,
24300,1858.8,14.6,315.6,66.4,801.0,4787.0,10.0,
24400,1863.9,17.5,284.0,119.1,801.0,4787.0,10.0,
24500,1859.7,13.6,248.4,127.0,801.0,4787.0,10.0,
24600,1863.2,14.1,211.1,74.2,801.0,4787.0,10.0,
24800,1860.9,13.8,111.9,103.5,801.0,4787.0,10.0,
24900,1859.9,150.2,25.8,132.8,801.0,4787.0,10.0,
25000,1862.2,247.7,128.6,128.9,921.0,4846.0,11.0,
25100,1820.1,211.6,193.0,97.7,785.0,4641.0,11.0,
25200,1854.1,199.9,222.1,66.4,771.0,4565.0,11.0,
25300,1914.9,224.1,246.3,64.5,688.0,4257.0,10.0,
25400,1885.8,221.6,271.4,64.5,724.0,3949.0,9.0,
25500,1859.1,175.9,295.5,64.5,526.0,3338.0,11.0,
25600,1855.3,21.3,303.2,127.0,526.0,3338.0,11.0,
25800,1857.3,20.5,303.2,128.9,526.0,3338.0,11.0,
25900,1861.0,13.8,303.3,119.1,526.0,3338.0,11.0,
26000,1859.6,12.9,275.2,60.5,526.0,3338.0,11.0,
26100,1857.4,11.9,234.6,60.5,526.0,3338.0,11.0,
26200,1858.3,13.0,207.2,82.0,526.0,3338.0,11.0,
26300,1859.1,17.4,177.8,121.1,526.0,3338.0,11.0,
26400,1858.2,16.1,136.6,148.4,526.0,3338.0,11.0,
26500,1862.4,60.7,70.4,130.9,526.0,3338.0,11.0,
26600,1843.6,254.2,121.2,68.4,1002.0,5646.0,11.0,
26800,1884.3,257.1,204.8,43.0,927.0,4981.0,10.0,
26900,1844.5,199.2,246.7,62.5,841.0,4772.0,11.0,
27000,1846.1,239.5,277.8,64.5,894.0,4610.0,11.0,
27100,1878.5,250.5,307.9,64.5,865.0,4614.0,11.0,
27200,1857.0,31.9,317.0,64.5,865.0,4614.0,11.0,
27300,1860.4,15.2,317.0,64.5,865.0,4614.0,11.0,
27400,1861.0,11.7,317.0,64.5,865.0,4614.0,11.0,
27500,1861.2,13.9,317.0,64.5,865.0,4614.0,11.0,
27600,1860.6,14.1,293.6,80.1,865.0,4614.0,11.0,
27800,1860.2,18.5,242.7,84.0,865.0,4614.0,11.0,
27900,1862.7,15.8,199.9,89.8,865.0,4614.0,11.0,
28000,1858.5,14.2,153.9,101.6,865.0,4614.0,11.0,
28100,1859.9,13.4,77.6,95.7,865.0,4614.0,11.0,
28200,1878.7,248.7,105.0,117.2,1022.0,5666.0,12.0,
28300,1834.2,209.6,179.4,66.4,950.0,5125.0,11.0,
28400,1864.8,262.1,224.5,64.5,928.0,4986.0,11.0,
28500,1868.6,279.1,261.4,64.5,824.0,4577.0,11.0,
28600,1855.5,222.0,285.7,64.5,779.0,4372.0,12.0,
28800,1886.0,33.9,314.7,64.5,683.0,3943.0,12.0,
28900,1864.0,14.2,314.7,64.5,683.0,3943.0,12.0,
29000,1861.5,13.0,314.7,127.0,683.0,3943.0,12.0,
29100,1859.5,13.0,314.7,128.9,683.0,3943.0,12.0,
29200,1863.9,14.5,297.2,130.9,683.0,3943.0,12.0,
29300,1859.2,14.6,259.2,138.7,683.0,3943.0,12.0,
29400,1863.3,12.7,221.3,132.8,683.0,3943.0,12.0,
29500,1863.5,10.9,176.2,146.5,683.0,3943.0,12.0,
29600,1861.3,13.8,133.1,164.1,683.0,3943.0,12.0,
29800,1851.8,222.4,104.6,130.9,847.0,4894.0,12.0,
29900,1861.7,261.8,165.2,123.0,738.0,4120.0,12.0,
30000,1850.3,211.5,204.4,70.3,776.0,4326.0,11.0,
30100,1864.0,164.1,231.5,64.5,764.0,4300.0,30.0,
30200,1886.5,208.9,258.7,64.5,689.0,3817.0,10.0,
30300,1880.1,221.6,285.3,64.5,647.0,3530.0,11.0,
30400,1857.5,42.4,301.4,128.9,669.0,3594.0,10.0,
30500,1857.8,15.7,301.4,128.9,669.0,3594.0,10.0,
30600,1860.9,14.7,301.4,127.0,669.0,3594.0,10.0,
30800,1857.1,10.9,283.2,72.3,669.0,3594.0,10.0,
30900,1857.3,14.9,252.7,119.1,669.0,3594.0,10.0,
31000,1862.1,13.8,222.2,117.2,669.0,3594.0,10.0,
31100,1859.6,14.3,193.8,119.1,669.0,3594.0,10.0,
31200,1856.1,17.8,155.6,132.8,669.0,3594.0,10.0,
31300,1863.3,16.2,98.9,132.8,669.0,3594.0,10.0,
31400,1842.3,189.9,87.9,121.1,848.0,4839.0,12.0,
31500,1854.2,199.3,137.4,68.4,743.0,4260.0,10.0,
31600,1910.6,194.6,173.8,62.5,685.0,4212.0,10.0,
31800,1858.4,179.7,236.8,64.5,635.0,3364.0,11.0,
31900,1830.3,146.1,270.6,128.9,483.0,2983.0,11.0,
32000,1872.8,57.0,288.3,128.9,478.0,3089.0,11.0,
32100,1859.7,14.2,288.3,128.9,478.0,3089.0,11.0,
32200,1862.2,12.3,288.3,128.9,478.0,3089.0,11.0,
32300,1863.0,13.0,288.2,128.9,478.0,3089.0,11.0,
32400,1863.4,14.3,275.1,125.0,478.0,3089.0,11.0,
32500,1863.1,17.1,254.0,142.6,478.0,3089.0,11.0,
32600,1860.9,12.3,230.6,103.5,478.0,3089.0,11.0,
32800,1860.6,15.6,165.4,111.3,478.0,3089.0,11.0,
32900,1861.0,15.0,101.1,132.8,478.0,3089.0,11.0,
33000,1864.2,194.3,66.2,121.1,797.0,4761.0,11.0,
33100,1874.4,247.4,138.9,158.2,837.0,4344.0,12.0,
33200,1858.4,212.6,186.3,128.9,851.0,4574.0,11.0,
33300,1820.6,242.9,232.6,66.4,719.0,3991.0,11.0,
33400,1869.4,218.4,263.8,66.4,702.0,3870.0,11.0,
33500,1882.7,248.8,283.3,64.5,847.0,4432.0,11.0,
33600,1884.7,96.8,303.7,64.5,860.0,4614.0,11.0,
33800,1859.2,15.3,303.7,64.5,860.0,4614.0,11.0,
33900,1859.6,13.9,303.7,64.5,860.0,4614.0,11.0,
34000,1861.3,12.0,296.9,66.4,860.0,4614.0,11.0,
34100,1862.2,12.9,270.7,160.2,860.0,4614.0,11.0,
34200,1861.1,16.7,240.6,205.1,860.0,4614.0,11.0,
34300,1859.8,14.2,196.2,214.8,860.0,4614.0,11.0,
34400,1857.9,13.7,151.7,140.6,860.0,4614.0,11.0,
34500,1857.7,13.0,110.9,127.0,860.0,4614.0,11.0,
34600,1840.7,130.7,62.8,162.1,860.0,4614.0,11.0,
34800,1880.1,247.4,193.7,95.7,790.0,4610.0,12.0,
34900,1886.0,228.1,219.0,64.5,815.0,4291.0,10.0,
35000,1883.1,184.7,242.1,64.5,678.0,3833.0,11.0,
35100,1841.0,202.7,274.2,64.5,672.0,3510.0,11.0,
35200,1872.7,121.8,299.2,66.4,586.0,3366.0,11.0,
35300,1868.7,21.4,299.6,128.9,586.0,3366.0,11.0,
35400,1861.9,12.9,299.6,128.9,586.0,3366.0,11.0,
35500,1860.3,11.6,299.6,128.9,586.0,3366.0,11.0,
35600,1860.4,10.9,293.5,128.9,586.0,3366.0,11.0,
35800,1860.0,13.8,229.3,168.0,586.0,3366.0,11.0,
35900,1860.8,13.5,205.2,158.2,586.0,3366.0,11.0,
36000,1860.6,14.4,177.4,150.4,586.0,3366.0,11.0,
36100,1863.3,12.6,122.2,136.7,586.0,3366.0,11.0,
36200,1862.2,139.6,24.4,134.8,586.0,3366.0,11.0,
36300,1874.0,207.5,104.1,97.7,750.0,4596.0,11.0,
36400,1876.3,178.9,156.5,64.5,713.0,4427.0,11.0,
36500,1852.8,228.3,198.1,64.5,825.0,4358.0,11.0,
36600,1888.2,234.0,235.7,99.6,804.0,4195.0,11.0,
36800,1848.2,198.5,292.8,66.4,734.0,3957.0,11.0,
36900,1860.6,24.3,298.7,66.4,734.0,3957.0,11.0,
37000,1860.5,13.5,298.7,64.5,734.0,3957.0,11.0,
37100,1859.7,15.8,298.7,64.5,734.0,3957.0,11.0,
37200,1861.8,13.7,298.7,62.5,734.0,3957.0,11.0,
37300,1858.0,19.8,280.6,119.1,734.0,3957.0,11.0,
37400,1859.2,12.2,255.1,121.1,734.0,3957.0,11.0,
37500,1858.7,20.7,224.4,111.3,734.0,3957.0,11.0,
37600,1860.6,15.1,184.5,121.1,734.0,3957.0,11.0,
37800,1860.8,26.0,62.2,121.1,734.0,3957.0,11.0,
37900,1856.4,260.2,123.7,132.8,1071.0,5565.0,11.0,
38000,1881.9,291.2,182.5,66.4,965.0,5049.0,11.0,
38100,1853.6,266.7,225.2,64.5,1010.0,5111.0,11.0,
38200,1821.5,214.3,266.5,64.5,844.0,4603.0,11.0,
38300,1849.4,205.7,287.4,64.5,988.0,4717.0,10.0,
38400,1917.6,212.2,306.9,64.5,773.0,4330.0,11.0,
38500,1869.2,28.1,313.8,64.5,773.0,4330.0,11.0,
38600,1859.1,13.9,313.7,64.5,773.0,4330.0,11.0,
38800,1860.8,12.3,313.7,68.4,773.0,4330.0,11.0,
38900,1860.2,13.5,288.9,101.6,773.0,4330.0,11.0,
39000,1860.5,14.1,255.8,152.3,773.0,4330.0,11.0,
39100,1859.8,14.3,219.2,142.6,773.0,4330.0,11.0,
39200,1860.6,17.6,166.5,148.4,773.0,4330.0,11.0,
39300,1861.5,15.9,127.2,134.8,773.0,4330.0,11.0,
39400,1857.5,13.9,67.3,148.4,773.0,4330.0,11.0,
39500,1862.4,217.1,104.3,130.9,806.0,4687.0,12.0,
39600,1822.1,179.8,174.0,125.0,661.0,4109.0,12.0,
39800,1908.3,231.7,230.9,66.4,763.0,4340.0,30.0,
39900,1873.3,221.1,258.3,64.5,701.0,3807.0,11.0,
40000,1838.9,184.9,290.9,64.5,700.0,3829.0,11.0,
40100,1872.5,36.1,301.4,128.9,684.0,3929.0,11.0,
40200,1859.1,16.9,301.5,127.0,684.0,3929.0,11.0,
40300,1860.7,16.4,301.5,123.0,684.0,3929.0,11.0,
40400,1857.1,16.8,301.5,70.3,684.0,3929.0,11.0,
40500,1859.6,13.7,283.4,97.7,684.0,3929.0,11.0,
40600,1862.2,13.5,246.9,150.4,684.0,3929.0,11.0,
40800,1857.4,14.4,194.8,146.5,684.0,3929.0,11.0,
40900,1859.7,15.4,156.6,121.1,684.0,3929.0,11.0,
41000,1860.5,17.1,81.6,115.2,684.0,3929.0,11.0,
41100,1854.1,190.3,85.4,93.8,770.0,4532.0,13.0,
41200,1902.4,246.8,134.5,60.5,771.0,4619.0,30.0,
41300,1879.9,199.6,174.6,62.5,661.0,3999.0,11.0,
41400,1836.1,157.5,218.9,64.5,647.0,3731.0,11.0,
41500,1854.3,206.2,249.1,128.9,624.0,3560.0,11.0,
41600,1867.7,202.4,277.3,128.9,638.0,3566.0,11.0,
41800,1859.3,12.8,290.7,128.9,638.0,3566.0,11.0,
41900,1861.0,14.1,290.7,127.0,638.0,3566.0,11.0,
42000,1860.5,14.0,290.7,97.7,638.0,3566.0,11.0,
42100,1865.7,15.2,278.6,99.6,638.0,3566.0,11.0,
42200,1860.6,15.5,258.5,132.8,638.0,3566.0,11.0,
42300,1862.5,16.3,233.3,125.0,638.0,3566.0,11.0,
42400,1861.8,23.9,192.2,140.6,638.0,3566.0,11.0,
42500,1861.8,16.3,151.2,128.9,638.0,3566.0,11.0,
42600,1861.6,15.6,89.5,85.9,638.0,3566.0,11.0,
42800,1830.9,218.0,147.9,162.1,537.0,3496.0,11.0,
42900,1868.7,192.1,190.0,138.7,593.0,3460.0,11.0,
43000,1859.4,203.1,224.6,128.9,519.0,3316.0,11.0,
43100,1860.1,161.9,242.1,128.9,497.0,3045.0,11.0,
43200,1878.4,136.0,263.2,128.9,669.0,3516.0,30.0,
43300,1889.5,54.8,277.6,128.9,537.0,3061.0,10.0,
43400,1858.9,16.5,277.6,160.2,537.0,3061.0,10.0,
43500,1860.1,14.9,277.6,191.4,537.0,3061.0,10.0,
43600,1858.3,13.6,277.5,166.0,537.0,3061.0,10.0,
43800,1861.6,10.5,235.6,166.0,537.0,3061.0,10.0,
43900,1863.2,12.6,203.2,179.7,537.0,3061.0,10.0,
44000,1861.8,12.9,164.1,187.5,537.0,3061.0,10.0,
44100,1858.7,14.3,137.1,148.4,537.0,3061.0,10.0,
44200,1861.9,13.6,90.2,99.6,537.0,3061.0,10.0,
44300,1855.1,182.2,71.1,119.1,705.0,4495.0,12.0,
44400,1858.5,225.8,140.3,130.9,714.0,4042.0,12.0,
44500,1850.3,165.6,178.7,127.0,534.0,3544.0,11.0,
44600,1874.9,188.0,204.7,127.0,527.0,3355.0,11.0,
44800,1864.8,183.1,256.4,160.2,422.0,2841.0,10.0,
44900,1856.3,77.1,280.1,162.1,501.0,2829.0,10.0,
45000,1858.2,17.3,280.1,160.2,501.0,2829.0,10.0,
45100,1862.5,15.6,280.1,160.2,501.0,2829.0,10.0,
45200,1860.4,14.9,280.1,154.3,501.0,2829.0,10.0,
45300,1860.3,16.8,271.5,136.7,501.0,2829.0,10.0,
45400,1863.5,13.9,243.0,146.5,501.0,2829.0,10.0,
45500,1858.3,16.4,216.4,109.4,501.0,2829.0,10.0,
45600,1858.4,13.9,192.1,121.1,501.0,2829.0,10.0,
45800,1858.6,14.7,114.1,119.1,501.0,2829.0,10.0,
45900,1850.1,105.3,41.9,150.4,501.0,2829.0,10.0,
46000,1885.5,199.8,108.0,158.2,708.0,4369.0,12.0,
46100,1895.1,189.0,153.2,142.6,600.0,3383.0,13.0,
46200,1860.1,190.6,190.8,160.2,474.0,2927.0,12.0,
46300,1854.1,167.8,222.4,160.2,504.0,3168.0,11.0,
46400,1820.1,168.1,256.6,160.2,436.0,2873.0,11.0,
46500,1875.5,98.0,271.4,130.9,471.0,2812.0,11.0,
46600,1871.6,17.0,271.8,128.9,471.0,2812.0,11.0,
46800,1859.4,12.8,271.8,125.0,471.0,2812.0,11.0,
46900,1861.1,15.3,269.2,119.1,471.0,2812.0,11.0,
47000,1860.3,16.9,250.1,130.9,471.0,2812.0,11.0,
47100,1859.1,18.3,225.3,119.1,471.0,2812.0,11.0,
47200,1861.7,16.2,194.7,105.5,471.0,2812.0,11.0,
47300,1857.4,21.5,157.6,84.0,471.0,2812.0,11.0,
47400,1864.9,16.1,92.0,72.3,471.0,2812.0,11.0,
47500,1859.1,112.6,25.4,66.4,471.0,2812.0,11.0,
47600,1865.9,199.6,114.0,160.2,619.0,3626.0,11.0,
47800,1842.7,199.9,208.5,130.9,546.0,3332.0,12.0,
47900,1866.1,165.3,235.5,130.9,562.0,3112.0,12.0,
48000,1881.9,166.9,248.9,128.9,435.0,3019.0,30.0,
48100,1890.2,144.0,265.3,128.9,440.0,2881.0,10.0,
48200,1861.4,20.5,271.2,128.9,440.0,2881.0,10.0,
48300,1862.1,15.0,271.2,191.4,440.0,2881.0,10.0,
48400,1860.7,14.1,271.2,195.3,440.0,2881.0,10.0,
48500,1860.6,15.2,271.2,185.5,440.0,2881.0,10.0,
48600,1861.5,15.0,246.9,125.0,440.0,2881.0,10.0,
48800,1856.3,25.2,174.8,128.9,440.0,2881.0,10.0,
48900,1859.5,16.5,136.5,60.5,440.0,2881.0,10.0,
49000,1862.2,17.6,110.0,50.8,440.0,2881.0,10.0,
49100,1857.3,19.8,60.6,54.7,440.0,2881.0,10.0,
49200,1832.0,212.4,119.8,130.9,602.0,3680.0,12.0,
49300,1867.4,182.4,162.7,128.9,541.0,3291.0,12.0,
49400,1880.7,163.7,180.8,128.9,445.0,3179.0,11.0,
49500,1877.6,143.3,209.5,128.9,501.0,3328.0,30.0,
49600,1851.2,175.8,236.3,128.9,401.0,2709.0,11.0,
49800,1861.3,25.2,269.9,162.1,456.0,2898.0,11.0,
49900,1859.5,11.8,269.9,160.2,456.0,2898.0,11.0,
50000,1859.7,14.1,269.8,160.2,456.0,2898.0,11.0,
50100,1861.9,14.7,269.8,158.2,456.0,2898.0,11.0,
50200,1860.2,13.0,242.6,140.6,456.0,2898.0,11.0,
50300,1861.0,14.9,216.2,134.8,456.0,2898.0,11.0,
50400,1860.8,10.9,201.3,134.8,456.0,2898.0,11.0,
50500,1862.2,14.4,171.2,113.3,456.0,2898.0,11.0,
50600,1860.4,13.6,131.8,105.5,456.0,2898.0,11.0,
50800,1882.9,175.4,70.5,80.1,622.0,3822.0,12.0,
50900,1872.9,147.6,131.8,113.3,524.0,3636.0,12.0,
51000,1862.8,178.3,172.1,128.9,456.0,2873.0,10.0,
51100,1868.6,184.1,206.4,160.2,470.0,3065.0,12.0,
51200,1850.8,176.7,236.4,160.2,447.0,2809.0,10.0,
51300,1844.1,130.8,258.7,160.2,455.0,2736.0,11.0,
51400,1875.6,27.5,264.3,130.9,455.0,2736.0,11.0,
51500,1859.3,14.0,264.3,128.9,455.0,2736.0,11.0,
51600,1859.2,14.0,264.3,127.0,455.0,2736.0,11.0,
51800,1855.9,11.6,255.4,121.1,455.0,2736.0,11.0,
51900,1859.9,11.4,229.8,82.0,455.0,2736.0,11.0,
52000,1861.3,10.7,201.4,80.1,455.0,2736.0,11.0,
52100,1861.5,12.9,166.0,160.2,455.0,2736.0,11.0,
52200,1858.8,13.9,119.6,171.9,455.0,2736.0,11.0,
52300,1858.5,11.3,57.1,136.7,455.0,2736.0,11.0,
52400,1843.2,186.2,93.7,146.5,604.0,3837.0,12.0,
52500,1861.4,207.5,149.9,138.7,560.0,3488.0,13.0,
52600,1850.6,185.2,189.8,130.9,466.0,3345.0,11.0,
52800,1885.1,165.4,231.9,128.9,714.0,3258.0,30.0,
52900,1892.8,166.5,252.6,128.9,457.0,2787.0,11.0,
53000,1864.9,37.9,268.0,160.2,436.0,2848.0,11.0,
53100,1859.0,14.5,268.0,193.4,436.0,2848.0,11.0,
53200,1861.0,16.3,268.0,164.1,436.0,2848.0,11.0,
53300,1859.8,13.7,268.0,162.1,436.0,2848.0,11.0,
53400,1859.9,16.8,251.8,154.3,436.0,2848.0,11.0,
53500,1859.8,13.6,223.0,125.0,436.0,2848.0,11.0,
53600,1860.7,12.4,190.2,89.8,436.0,2848.0,11.0,
53800,1854.6,18.3,135.8,91.8,436.0,2848.0,11.0,
53900,1860.7,13.1,91.6,121.1,436.0,2848.0,11.0,
54000,1863.0,182.1,75.4,121.1,725.0,4523.0,13.0,
54100,1822.9,201.5,143.4,125.0,643.0,3804.0,12.0,
54200,1900.0,193.0,170.7,99.6,752.0,3903.0,30.0,
54300,1895.0,225.4,199.5,66.4,697.0,3737.0,11.0,
54400,1856.6,209.2,231.5,66.4,779.0,4178.0,11.0,
54500,1831.2,167.7,268.0,128.9,799.0,3754.0,10.0,
54600,1869.6,65.1,287.8,128.9,764.0,3797.0,11.0,
54800,1859.7,12.2,287.8,127.0,764.0,3797.0,11.0,
54900,1861.2,16.3,287.8,123.0,764.0,3797.0,11.0,
55000,1857.4,12.3,278.4,107.4,764.0,3797.0,11.0,
55100,1863.3,13.8,250.3,121.1,764.0,3797.0,11.0,
55200,1859.5,14.5,232.6,121.1,764.0,3797.0,11.0,
55300,1860.1,13.0,208.4,119.1,764.0,3797.0,11.0,
55400,1859.4,14.3,172.1,113.3,764.0,3797.0,11.0,
55500,1861.3,10.2,106.6,111.3,764.0,3797.0,11.0,
55600,1865.0,159.1,53.4,119.1,794.0,4792.0,30.0,
55800,1863.3,171.0,156.0,162.1,546.0,3195.0,10.0,
55900,1826.1,198.6,202.2,162.1,675.0,3440.0,11.0,
56000,1863.5,219.0,236.0,160.2,671.0,3674.0,10.0,
56100,1856.5,221.2,263.4,158.2,729.0,3538.0,11.0,
56200,1865.5,79.9,278.3,128.9,729.0,3538.0,11.0,
56300,1857.2,16.7,278.3,97.7,729.0,3538.0,11.0,
56400,1862.6,12.4,278.3,64.5,729.0,3538.0,11.0,
56500,1858.4,16.5,278.3,62.5,729.0,3538.0,11.0,
56600,1857.9,16.2,273.8,60.5,729.0,3538.0,11.0,
56800,1862.0,15.7,231.2,101.6,729.0,3538.0,11.0,
56900,1861.2,9.7,192.1,121.1,729.0,3538.0,11.0,
57000,1860.4,13.8,148.6,121.1,729.0,3538.0,11.0,
57100,1864.0,17.1,91.7,103.5,729.0,3538.0,11.0,
57200,1841.3,108.5,58.1,134.8,729.0,3538.0,11.0,
57300,1854.3,193.7,129.3,160.2,550.0,3696.0,11.0,
57400,1870.9,179.4,173.2,158.2,461.0,2932.0,12.0,
57500,1852.5,191.0,207.5,132.8,450.0,2744.0,11.0,
57600,1850.4,160.1,232.1,158.2,510.0,3139.0,11.0,
57800,1886.9,99.7,267.8,128.9,415.0,2615.0,11.0,
57900,1871.2,17.3,268.3,130.9,415.0,2615.0,11.0,
58000,1860.8,15.3,268.3,193.4,415.0,2615.0,11.0,
58100,1859.3,15.4,268.3,195.3,415.0,2615.0,11.0,
58200,1859.8,13.2,262.6,181.6,415.0,2615.0,11.0,
58300,1858.8,13.5,235.8,125.0,415.0,2615.0,11.0,
58400,1857.1,12.4,205.7,136.7,415.0,2615.0,11.0,
58500,1859.6,13.5,170.9,158.2,415.0,2615.0,11.0,
58600,1856.6,12.4,135.6,154.3,415.0,2615.0,11.0,
58800,1858.9,117.7,23.6,146.5,415.0,2615.0,11.0,
58900,1853.1,202.5,119.1,158.2,574.0,3674.0,12.0,
59000,1820.6,174.8,176.1,132.8,550.0,3634.0,11.0,
59100,1853.3,161.6,196.3,128.9,596.0,3601.0,12.0,
59200,1905.8,175.4,214.7,128.9,611.0,3669.0,10.0,
59300,1878.8,204.8,237.5,95.7,604.0,3093.0,10.0,
59400,1852.3,176.0,263.8,128.9,659.0,3305.0,10.0,
59500,1851.2,19.7,272.1,160.2,659.0,3305.0,10.0,
59600,1862.4,16.3,272.1,130.9,659.0,3305.0,10.0,
59800,1860.6,26.5,272.2,127.0,659.0,3305.0,10.0,
59900,1857.3,16.5,245.5,68.4,659.0,3305.0,10.0,
60000,1859.0,13.3,208.5,62.5,659.0,3305.0,10.0,
60100,1858.8,13.0,189.6,60.5,659.0,3305.0,10.0,
60200,1857.4,14.9,168.5,60.5,659.0,3305.0,10.0,
60300,1859.3,11.8,134.5,101.6,659.0,3305.0,10.0,
60400,1862.7,15.7,70.2,117.2,659.0,3305.0,10.0,
60500,1826.3,190.2,113.5,130.9,533.0,3453.0,12.0,
60600,1882.5,171.3,142.7,128.9,653.0,3301.0,11.0,
60800,1852.6,151.1,201.1,99.6,503.0,2818.0,11.0,
60900,1846.9,184.1,230.7,160.2,498.0,2898.0,11.0,
61000,1864.0,171.1,257.3,162.1,498.0,2853.0,11.0,
61100,1858.6,25.0,265.9,160.2,498.0,2853.0,11.0,
61200,1858.7,21.6,265.9,160.2,498.0,2853.0,11.0,
61300,1858.4,15.2,265.9,142.6,498.0,2853.0,11.0,
61400,1863.5,12.6,265.9,130.9,498.0,2853.0,11.0,
61500,1860.6,14.4,241.4,74.2,498.0,2853.0,11.0,
61600,1858.0,14.1,225.4,95.7,498.0,2853.0,11.0,
61800,1860.2,16.1,175.1,154.3,498.0,2853.0,11.0,
61900,1859.6,11.9,133.5,123.0,498.0,2853.0,11.0,
62000,1857.6,11.3,69.3,119.1,498.0,2853.0,11.0,
62100,1884.0,178.8,73.0,132.8,642.0,4337.0,30.0,
62200,1866.4,167.7,135.5,152.3,695.0,3866.0,10.0,
62300,1855.6,221.0,179.0,160.2,832.0,4077.0,11.0,
62400,1868.0,241.3,218.3,130.9,854.0,3956.0,11.0,
62500,1848.4,223.0,250.6,128.9,789.0,3962.0,11.0,
62600,1847.7,167.9,271.4,127.0,813.0,3753.0,11.0,
62800,1858.3,19.1,279.9,64.5,813.0,3753.0,11.0,
62900,1859.4,12.2,279.9,62.5,813.0,3753.0,11.0,
63000,1859.8,14.2,280.0,62.5,813.0,3753.0,11.0,
63100,1861.3,12.5,270.9,66.4,813.0,3753.0,11.0,
63200,1859.7,14.5,245.7,82.0,813.0,3753.0,11.0,
63300,1859.1,13.8,216.0,80.1,813.0,3753.0,11.0,
63400,1859.1,13.8,176.2,84.0,813.0,3753.0,11.0,
63500,1862.1,15.5,126.2,97.7,813.0,3753.0,11.0,
63600,1859.5,14.5,71.3,107.4,813.0,3753.0,11.0,
63800,1868.7,241.0,161.8,109.4,714.0,3970.0,11.0,
63900,1851.0,209.4,202.2,68.4,669.0,3781.0,11.0,
64000,1826.2,156.4,236.2,66.4,679.0,3640.0,11.0,
64100,1883.7,207.6,254.1,95.7,837.0,4218.0,30.0,
64200,1903.2,211.7,278.7,66.4,688.0,3578.0,10.0,
64300,1863.1,44.6,295.3,127.0,723.0,3684.0,10.0,
64400,1860.5,13.6,295.3,150.4,723.0,3684.0,10.0,
64500,1861.0,11.7,295.3,128.9,723.0,3684.0,10.0,
64600,1861.4,15.0,295.3,99.6,723.0,3684.0,10.0,
64800,1861.8,12.4,247.7,125.0,723.0,3684.0,10.0,
64900,1856.6,14.6,216.0,148.4,723.0,3684.0,10.0,
65000,1859.8,14.0,178.1,177.7,723.0,3684.0,10.0,
65100,1861.4,12.1,151.5,156.3,723.0,3684.0,10.0,
65200,1861.6,14.9,99.2,166.0,723.0,3684.0,10.0,
65300,1860.1,187.7,73.4,150.4,694.0,4390.0,13.0,
65400,1824.1,203.6,142.7,127.0,849.0,4769.0,12.0,
65500,1903.3,196.0,172.1,91.8,854.0,4007.0,30.0,
65600,1891.8,235.0,204.7,64.5,705.0,3799.0,10.0,
65800,1830.4,172.5,272.0,128.9,790.0,3683.0,10.0,
65900,1871.3,64.4,291.7,128.9,747.0,3834.0,10.0,
66000,1861.7,15.0,291.7,127.0,747.0,3834.0,10.0,
66100,1862.3,13.0,291.7,125.0,747.0,3834.0,10.0,
66200,1860.8,14.5,291.7,91.8,747.0,3834.0,10.0,
66300,1865.8,15.6,282.9,68.4,747.0,3834.0,10.0,
66400,1860.1,14.1,255.1,66.4,747.0,3834.0,10.0,
66500,1861.3,15.7,236.2,76.2,747.0,3834.0,10.0,
66600,1860.1,14.2,208.7,93.8,747.0,3834.0,10.0,
66800,1858.1,15.7,107.2,99.6,747.0,3834.0,10.0,
66900,1864.0,170.3,56.2,97.7,703.0,4913.0,12.0,
67000,1903.0,220.7,120.0,117.2,840.0,4458.0,30.0,
67100,1867.0,177.8,163.8,127.0,635.0,3542.0,11.0,
67200,1824.9,205.5,210.1,130.9,678.0,3567.0,11.0,
67300,1861.5,211.6,242.6,130.9,724.0,3570.0,11.0,
67400,1860.5,238.0,269.4,128.9,778.0,3924.0,11.0,
67500,1867.5,88.3,286.0,128.9,817.0,3869.0,10.0,
67600,1860.0,17.8,286.0,66.4,817.0,3869.0,10.0,
67800,1859.5,14.8,286.0,62.5,817.0,3869.0,10.0,
67900,1858.9,17.5,281.0,58.6,817.0,3869.0,10.0,
68000,1860.7,13.6,260.4,142.6,817.0,3869.0,10.0,
68100,1862.1,14.6,235.3,123.0,817.0,3869.0,10.0,
68200,1860.0,14.5,195.1,105.5,817.0,3869.0,10.0,
68300,1858.5,13.6,152.8,80.1,817.0,3869.0,10.0,
68400,1860.7,15.5,98.1,111.3,817.0,3869.0,10.0,
68500,1845.9,129.1,54.6,148.4,817.0,3869.0,10.0,
68600,1851.7,222.5,134.7,134.8,755.0,4419.0,11.0,
68800,1857.8,240.6,219.2,127.0,623.0,3765.0,12.0,
68900,1847.7,203.6,249.9,127.0,906.0,4375.0,11.0,
69000,1846.4,170.8,272.1,66.4,1247.0,4534.0,10.0,
69100,1904.6,135.7,293.7,64.5,866.0,4397.0,10.0,
69200,1872.7,17.5,294.3,64.5,866.0,4397.0,10.0,
69300,1861.9,14.8,294.3,66.4,866.0,4397.0,10.0,
69400,1860.5,13.5,294.3,95.7,866.0,4397.0,10.0,
69500,1862.3,15.6,289.9,85.9,866.0,4397.0,10.0,
69600,1858.1,18.6,262.5,70.3,866.0,4397.0,10.0,
69800,1857.5,12.9,197.5,50.8,866.0,4397.0,10.0,
69900,1859.1,12.0,156.8,50.8,866.0,4397.0,10.0,
70000,1860.3,12.3,113.9,60.5,866.0,4397.0,10.0,
70100,1860.3,118.9,27.2,142.6,866.0,4397.0,10.0,
70200,1859.2,224.6,121.6,156.3,687.0,4122.0,12.0,
70300,1820.2,174.7,181.0,130.9,602.0,3691.0,11.0,
70400,1856.4,167.1,202.0,128.9,605.0,3423.0,10.0,
70500,1912.8,179.5,223.1,127.0,803.0,3692.0,30.0,
70600,1882.3,198.4,247.6,99.6,646.0,3397.0,10.0,
70800,1856.7,22.6,281.0,162.1,631.0,3546.0,10.0,
70900,1860.3,14.6,281.0,152.3,631.0,3546.0,10.0,
71000,1863.4,15.5,281.0,130.9,631.0,3546.0,10.0,
71100,1862.6,16.9,281.0,127.0,631.0,3546.0,10.0,
71200,1856.5,17.2,254.2,60.5,631.0,3546.0,10.0,
71300,1861.4,17.0,216.0,50.8,631.0,3546.0,10.0,
71400,1861.2,14.9,196.4,62.5,631.0,3546.0,10.0,
71500,1862.6,11.3,172.0,85.9,631.0,3546.0,10.0,
71600,1861.4,12.1,134.3,105.5,631.0,3546.0,10.0,
71800,1840.0,184.0,95.5,125.0,608.0,3780.0,11.0,
71900,1913.7,225.7,137.1,82.0,901.0,4530.0,30.0,
72000,1882.3,222.7,176.7,64.5,787.0,3954.0,11.0,
72100,1841.1,184.2,221.0,66.4,768.0,3967.0,11.0,
72200,1835.9,227.4,254.5,128.9,849.0,4133.0,10.0,
72300,1874.4,223.7,284.6,66.4,804.0,3826.0,11.0,
72400,1860.9,28.5,292.6,66.4,804.0,3826.0,11.0,
72500,1861.2,14.2,292.6,66.4,804.0,3826.0,11.0,
72600,1863.0,11.2,292.5,64.5,804.0,3826.0,11.0,
72800,1860.7,16.5,277.2,72.3,804.0,3826.0,11.0,
72900,1863.4,15.7,259.2,154.3,804.0,3826.0,11.0,
73000,1861.3,13.2,234.0,173.8,804.0,3826.0,11.0,
73100,1860.0,14.1,192.6,160.2,804.0,3826.0,11.0,
73200,1862.0,16.8,145.4,130.9,804.0,3826.0,11.0,
73300,1858.8,13.2,70.1,179.7,804.0,3826.0,11.0,
73400,1876.9,200.0,93.2,199.2,733.0,4606.0,12.0,
73500,1833.1,164.3,159.0,162.1,587.0,3574.0,11.0,
73600,1848.7,202.4,197.6,130.9,569.0,3427.0,11.0,
73800,1861.5,163.3,247.2,128.9,559.0,3276.0,12.0,
73900,1893.2,138.7,261.0,128.9,778.0,3421.0,30.0,
74000,1868.9,30.8,271.8,128.9,469.0,2773.0,11.0,
74100,1861.8,14.0,271.8,160.2,469.0,2773.0,11.0,
74200,1859.3,14.4,271.8,193.4,469.0,2773.0,11.0,
74300,1859.4,13.8,271.8,197.3,469.0,2773.0,11.0,
74400,1858.5,10.8,255.9,189.5,469.0,2773.0,11.0,
74500,1859.4,12.6,221.1,144.5,469.0,2773.0,11.0,
74600,1860.7,11.8,187.4,121.1,469.0,2773.0,11.0,
74800,1859.9,14.0,114.2,169.9,469.0,2773.0,11.0,
74900,1862.7,11.7,77.6,193.4,469.0,2773.0,11.0,
75000,1841.9,202.4,96.1,166.0,585.0,4053.0,12.0,
75100,1861.8,212.9,154.0,132.8,576.0,3632.0,12.0,
75200,1852.0,180.2,187.6,128.9,512.0,3074.0,11.0,
75300,1867.4,145.6,209.9,128.9,713.0,3648.0,30.0,
75400,1882.0,186.7,234.9,127.0,588.0,3279.0,11.0,
75500,1881.8,204.2,261.0,128.9,569.0,3033.0,11.0,
75600,1857.6,44.5,278.2,160.2,700.0,3458.0,11.0,
75800,1863.0,12.3,278.2,128.9,700.0,3458.0,11.0,
75900,1861.2,11.3,278.2,127.0,700.0,3458.0,11.0,
76000,1860.3,11.5,261.6,119.1,700.0,3458.0,11.0,
76100,1858.9,16.2,232.3,205.1,700.0,3458.0,11.0,
76200,1858.8,17.0,206.1,205.1,700.0,3458.0,11.0,
76300,1862.0,13.2,183.3,128.9,700.0,3458.0,11.0,
76400,1862.2,19.0,150.0,117.2,700.0,3458.0,11.0,
76500,1858.0,21.6,98.2,119.1,700.0,3458.0,11.0,
76600,1860.7,193.0,73.9,89.8,676.0,4365.0,13.0,
76800,1899.5,202.8,173.1,66.4,720.0,4368.0,30.0,
76900,1901.4,220.6,203.4,64.5,649.0,3553.0,10.0,
77000,1863.3,185.8,232.4,64.5,602.0,3198.0,10.0,
77100,1834.3,151.3,266.2,160.2,571.0,3183.0,10.0,
77200,1873.6,58.8,284.1,160.2,560.0,3129.0,11.0,
77300,1857.5,15.5,284.1,128.9,560.0,3129.0,11.0,
77400,1861.1,13.4,284.1,128.9,560.0,3129.0,11.0,
77500,1859.0,14.5,284.0,128.9,560.0,3129.0,11.0,
77600,1860.9,12.6,274.8,128.9,560.0,3129.0,11.0,
77800,1858.8,11.3,225.9,156.3,560.0,3129.0,11.0,
77900,1862.6,14.3,199.1,130.9,560.0,3129.0,11.0,
78000,1859.0,11.4,164.4,136.7,560.0,3129.0,11.0,
78100,1861.4,14.6,100.8,136.7,560.0,3129.0,11.0,
78200,1855.0,172.4,56.5,123.0,659.0,4319.0,12.0,
78300,1883.6,203.4,109.5,60.5,617.0,4113.0,12.0,
78400,1889.4,182.1,146.1,58.6,623.0,3899.0,10.0,
78500,1839.0,202.6,193.0,64.5,613.0,3333.0,10.0,
78600,1867.8,207.5,227.4,128.9,715.0,3724.0,10.0,
78800,1845.9,91.3,283.6,128.9,777.0,3553.0,10.0,
78900,1857.1,18.8,283.6,128.9,777.0,3553.0,10.0,
79000,1863.3,12.6,283.6,97.7,777.0,3553.0,10.0,
79100,1860.9,13.3,283.6,68.4,777.0,3553.0,10.0,
79200,1858.4,9.9,278.4,68.4,777.0,3553.0,10.0,
79300,1861.1,14.0,262.1,203.1,777.0,3553.0,10.0,
79400,1856.5,15.2,243.6,197.3,777.0,3553.0,10.0,
79500,1860.4,10.3,208.4,185.5,777.0,3553.0,10.0,
79600,1863.4,13.2,170.3,171.9,777.0,3553.0,10.0,
79800,1852.2,112.1,47.9,212.9,777.0,3553.0,10.0,
79900,1881.9,197.3,117.2,220.7,635.0,4050.0,11.0,
80000,1884.0,202.9,162.9,193.4,648.0,3704.0,11.0,
80100,1862.2,213.2,199.7,162.1,578.0,3198.0,10.0,
80200,1846.2,186.3,233.1,160.2,706.0,3576.0,11.0,
80300,1824.9,155.1,262.8,128.9,627.0,3226.0,10.0,
80400,1892.6,121.8,278.4,128.9,660.0,3914.0,10.0,
80500,1870.7,18.5,279.0,66.4,660.0,3914.0,10.0,
80600,1862.9,13.7,279.0,64.5,660.0,3914.0,10.0,
80800,1864.7,19.5,275.4,64.5,660.0,3914.0,10.0,
80900,1863.6,14.7,253.8,105.5,660.0,3914.0,10.0,
81000,1860.3,11.9,227.1,80.1,660.0,3914.0,10.0,
81100,1860.6,13.6,195.5,64.5,660.0,3914.0,10.0,
81200,1859.3,14.8,154.4,97.7,660.0,3914.0,10.0,
81300,1861.5,14.2,95.4,103.5,660.0,3914.0,10.0,
81400,1861.3,116.9,25.7,107.4,660.0,3914.0,10.0,
81500,1862.8,212.4,121.3,152.3,706.0,4268.0,11.0,
81600,1829.2,175.6,180.2,130.9,621.0,3835.0,11.0,
81800,1885.2,196.3,234.1,128.9,677.0,3635.0,11.0,
81900,1894.3,232.6,256.1,97.7,891.0,4322.0,30.0,
82000,1879.6,195.0,279.5,64.5,766.0,3860.0,10.0,
82100,1857.2,24.1,288.0,64.5,827.0,3701.0,10.0,
82200,1862.9,12.2,288.0,95.7,827.0,3701.0,10.0,
82300,1861.5,12.8,288.0,78.1,827.0,3701.0,10.0,
82400,1860.8,11.5,288.0,70.3,827.0,3701.0,10.0,
82500,1861.5,12.9,261.8,138.7,827.0,3701.0,10.0,
82600,1861.5,14.1,225.3,203.1,827.0,3701.0,10.0,
82800,1861.5,14.9,168.7,127.0,827.0,3701.0,10.0,
82900,1862.1,13.7,132.9,119.1,827.0,3701.0,10.0,
83000,1861.1,12.3,71.9,119.1,827.0,3701.0,10.0,
83100,1830.1,223.9,120.4,130.9,614.0,3946.0,11.0,
83200,1866.8,224.0,168.4,127.0,689.0,3825.0,11.0,
83300,1872.0,173.3,189.4,123.0,613.0,3434.0,10.0,
83400,1876.8,156.9,217.3,66.4,756.0,3577.0,30.0,
83500,1856.3,191.2,244.5,64.5,634.0,3218.0,10.0,
83600,1877.0,202.8,272.4,160.2,768.0,3489.0,10.0,
83800,1861.7,12.5,280.9,130.9,768.0,3489.0,10.0,
83900,1861.4,14.3,280.9,128.9,768.0,3489.0,10.0,
84000,1860.3,13.0,280.9,127.0,768.0,3489.0,10.0,
84100,1861.7,15.3,254.4,113.3,768.0,3489.0,10.0,
84200,1862.5,13.3,225.5,125.0,768.0,3489.0,10.0,
84300,1858.2,11.6,208.1,146.5,768.0,3489.0,10.0,
84400,1860.1,21.3,178.9,179.7,768.0,3489.0,10.0,
84500,1858.2,19.7,139.5,146.5,768.0,3489.0,10.0,
84600,1860.2,19.5,71.3,64.5,768.0,3489.0,10.0,
84800,1867.9,149.7,126.6,66.4,687.0,4046.0,30.0,
84900,1885.0,189.3,166.0,64.5,647.0,3385.0,10.0,
85000,1873.7,222.7,203.7,93.8,669.0,3385.0,11.0,
85100,1857.9,217.6,235.9,160.2,729.0,3577.0,11.0,
85200,1826.1,188.5,272.2,130.9,780.0,3854.0,11.0,
85300,1867.2,32.7,283.0,128.9,782.0,3744.0,11.0,
85400,1862.5,13.4,283.0,95.7,782.0,3744.0,11.0,
85500,1859.8,15.8,283.0,66.4,782.0,3744.0,11.0,
85600,1860.1,11.0,282.9,66.4,782.0,3744.0,11.0,
85800,1861.8,12.6,253.7,148.4,782.0,3744.0,11.0,
85900,1859.7,13.2,229.9,160.2,782.0,3744.0,11.0,
86000,1861.6,10.1,197.3,175.8,782.0,3744.0,11.0,
86100,1863.0,17.0,157.4,173.8,782.0,3744.0,11.0,
86200,1859.5,10.8,79.3,189.5,782.0,3744.0,11.0,
86300,1870.9,189.1,80.9,193.4,710.0,4325.0,30.0,
86400,1883.8,218.3,138.8,193.4,655.0,3735.0,11.0,
86500,1860.2,183.8,180.5,160.2,628.0,3499.0,10.0,
86600,1826.6,149.6,223.1,130.9,606.0,3203.0,10.0,
86800,1880.7,186.2,270.3,128.9,639.0,3192.0,10.0,
86900,1879.5,41.5,279.6,128.9,604.0,3034.0,10.0,
87000,1861.7,16.7,279.7,66.4,604.0,3034.0,10.0,
87100,1864.0,16.9,279.7,66.4,604.0,3034.0,10.0,
87200,1857.4,17.9,279.7,72.3,604.0,3034.0,10.0,
87300,1859.4,14.4,268.4,95.7,604.0,3034.0,10.0,
87400,1858.0,13.3,243.6,64.5,604.0,3034.0,10.0,
87500,1861.2,15.8,214.5,56.6,604.0,3034.0,10.0,
87600,1859.3,15.8,169.6,72.3,604.0,3034.0,10.0,
87800,1859.0,12.3,74.0,150.4,604.0,3034.0,10.0,
87900,1864.0,173.4,71.0,187.5,652.0,4110.0,12.0,
88000,1825.7,219.5,152.4,154.3,668.0,3598.0,11.0,
88100,1869.5,223.7,195.4,128.9,693.0,3767.0,10.0,
88200,1855.9,243.5,230.2,128.9,913.0,4110.0,11.0,
88300,1866.6,192.0,249.6,127.0,794.0,3909.0,10.0,
88400,1875.4,170.9,274.4,64.5,887.0,4300.0,30.0,
88500,1887.5,64.2,292.1,64.5,779.0,3887.0,10.0,
88600,1855.1,20.1,292.1,66.4,779.0,3887.0,10.0,
88800,1861.8,20.8,292.2,72.3,779.0,3887.0,10.0,
88900,1860.3,17.7,284.2,68.4,779.0,3887.0,10.0,
89000,1860.8,17.4,250.2,56.6,779.0,3887.0,10.0,
89100,1859.0,12.9,218.2,60.5,779.0,3887.0,10.0,
89200,1858.5,25.0,181.2,85.9,779.0,3887.0,10.0,
89300,1863.8,22.0,153.6,95.7,779.0,3887.0,10.0,
89400,1859.0,20.5,102.8,60.5,779.0,3887.0,10.0,
89500,1855.8,168.7,70.8,60.5,589.0,3801.0,12.0,
89600,1860.9,188.3,135.5,140.6,506.0,3331.0,12.0,
89800,1839.3,159.4,201.7,130.9,490.0,3003.0,11.0,
89900,1903.3,158.0,220.1,128.9,632.0,3220.0,30.0,
90000,1887.5,172.9,243.2,128.9,462.0,2792.0,10.0,
90100,1859.4,70.2,266.6,162.1,388.0,2680.0,11.0,
90200,1856.1,16.1,266.6,193.4,388.0,2680.0,11.0,
90300,1861.3,18.3,266.5,164.1,388.0,2680.0,11.0,
90400,1860.2,16.4,266.5,162.1,388.0,2680.0,11.0,
90500,1861.5,12.6,258.0,154.3,388.0,2680.0,11.0,
90600,1861.8,18.9,230.6,117.2,388.0,2680.0,11.0,
90800,1860.2,14.8,175.6,119.1,388.0,2680.0,11.0,
90900,1861.9,13.0,151.8,111.3,388.0,2680.0,11.0,
91000,1862.5,14.5,111.2,93.8,388.0,2680.0,11.0,
91100,1837.4,125.8,64.0,119.1,388.0,2680.0,11.0,
91200,1841.5,227.2,140.5,130.9,726.0,4251.0,12.0,
91300,1876.3,204.3,176.9,127.0,635.0,3403.0,11.0,
91400,1877.0,183.1,197.4,95.7,596.0,3166.0,10.0,
91500,1889.9,160.2,218.9,64.5,785.0,3730.0,30.0,
91600,1852.2,182.0,247.0,64.5,510.0,2884.0,11.0,
91800,1869.3,16.2,271.2,162.1,510.0,2884.0,11.0,
91900,1859.0,11.8,271.2,160.2,510.0,2884.0,11.0,
92000,1859.7,12.0,271.2,160.2,510.0,2884.0,11.0,
92100,1859.6,14.4,264.2,158.2,510.0,2884.0,11.0,
92200,1859.6,14.2,232.8,103.5,510.0,2884.0,11.0,
92300,1861.5,12.6,206.5,121.1,510.0,2884.0,11.0,
92400,1863.1,10.3,186.9,121.1,510.0,2884.0,11.0,
92500,1865.7,12.4,161.1,136.7,510.0,2884.0,11.0,
92600,1860.1,10.5,113.4,123.0,510.0,2884.0,11.0,
92800,1852.7,194.2,112.9,132.8,570.0,3755.0,11.0,
92900,1856.6,144.3,148.7,128.9,509.0,3204.0,11.0,
93000,1888.7,171.2,174.7,103.5,448.0,3059.0,11.0,
93100,1883.9,169.4,203.5,127.0,477.0,2632.0,10.0,
93200,1860.3,171.1,231.7,162.1,418.0,2678.0,11.0,
93300,1850.7,147.9,256.9,162.1,411.0,2500.0,11.0,
93400,1854.4,24.7,265.1,160.2,411.0,2616.0,11.0,
93500,1860.4,12.7,265.1,160.2,411.0,2616.0,11.0,
93600,1861.0,14.4,265.2,154.3,411.0,2616.0,11.0,
93800,1860.6,11.9,240.6,105.5,411.0,2616.0,11.0,
93900,1858.9,15.2,220.3,68.4,411.0,2616.0,11.0,
94000,1858.6,12.8,200.3,82.0,411.0,2616.0,11.0,
94100,1861.8,13.5,171.0,134.8,411.0,2616.0,11.0,
94200,1858.7,13.2,130.1,138.7,411.0,2616.0,11.0,
94300,1861.4,33.5,68.1,164.1,411.0,2616.0,11.0,
94400,1857.2,156.6,81.0,125.0,485.0,3280.0,12.0,
94500,1907.8,166.3,120.2,101.6,736.0,3242.0,30.0,
94600,1876.9,150.8,152.5,130.9,378.0,2570.0,11.0,
94800,1845.7,177.4,224.9,193.4,368.0,2691.0,10.0,
94900,1861.5,156.8,251.3,162.1,369.0,2388.0,11.0,
95000,1859.7,21.9,257.6,160.2,347.0,2279.0,10.0,
95100,1859.7,17.4,257.7,160.2,347.0,2279.0,10.0,
95200,1860.6,12.4,257.7,132.8,347.0,2279.0,10.0,
95300,1863.3,11.3,257.7,130.9,347.0,2279.0,10.0,
95400,1861.7,15.8,245.3,62.5,347.0,2279.0,10.0,
95500,1859.6,13.0,228.6,87.9,347.0,2279.0,10.0,
95600,1859.2,13.0,208.5,125.0,347.0,2279.0,10.0,
95800,1860.3,10.8,126.8,113.3,347.0,2279.0,10.0,
95900,1860.5,12.8,59.3,109.4,347.0,2279.0,10.0,
96000,1875.7,150.5,64.6,119.1,622.0,3527.0,11.0,
96100,1873.2,136.5,121.9,130.9,477.0,3063.0,10.0,
96200,1871.7,166.0,160.3,162.1,395.0,2584.0,11.0,
96300,1865.7,186.9,196.2,193.4,495.0,2930.0,11.0,
96400,1846.5,169.2,226.0,189.5,427.0,2547.0,10.0,
96500,1822.9,135.0,257.5,160.2,473.0,2596.0,11.0,
96600,1877.5,26.2,262.9,130.9,451.0,2471.0,11.0,
96800,1858.9,10.7,262.9,128.9,451.0,2471.0,11.0,
96900,1861.3,14.4,262.9,125.0,451.0,2471.0,11.0,
97000,1863.3,13.8,255.4,125.0,451.0,2471.0,11.0,
97100,1860.0,10.3,233.5,164.1,451.0,2471.0,11.0,
97200,1860.7,16.9,209.0,152.3,451.0,2471.0,11.0,
97300,1863.1,17.5,175.8,142.6,451.0,2471.0,11.0,
97400,1857.4,19.0,135.5,93.8,451.0,2471.0,11.0,
97500,1863.4,24.4,56.2,66.4,451.0,2471.0,11.0,
97600,1865.2,162.9,83.5,85.9,538.0,3591.0,12.0,
97800,1848.5,146.5,172.9,193.4,350.0,2080.0,12.0,
97900,1819.4,121.3,213.9,162.1,309.0,2185.0,13.0,
98000,1850.4,146.5,236.7,162.1,347.0,2393.0,11.0,
98100,1883.4,136.1,247.2,160.2,406.0,2273.0,11.0,
98200,1882.8,30.7,256.4,128.9,695.0,2531.0,30.0,
98300,1855.1,14.1,256.3,158.2,695.0,2531.0,30.0,
98400,1857.6,11.4,256.3,214.8,695.0,2531.0,30.0,
98500,1862.4,11.9,256.1,257.8,695.0,2531.0,30.0,
98600,1860.5,11.6,242.9,234.4,695.0,2531.0,30.0,
98800,1860.5,10.6,190.0,138.7,695.0,2531.0,30.0,
98900,1858.2,18.5,142.3,146.5,695.0,2531.0,30.0,
99000,1858.9,14.1,100.1,134.8,695.0,2531.0,30.0,
99100,1864.3,13.7,70.4,87.9,695.0,2531.0,30.0,
99200,1844.1,166.6,91.8,121.1,691.0,4084.0,12.0,
99300,1834.3,221.5,152.9,132.8,724.0,3779.0,11.0,
99400,1863.6,212.6,196.9,128.9,828.0,3799.0,11.0,
99500,1865.7,210.7,220.3,127.0,826.0,4154.0,10.0,
99600,1879.8,184.7,238.8,66.4,960.0,4308.0,30.0,
99800,1878.6,56.9,284.2,64.5,679.0,3309.0,10.0,
99900,1856.3,12.9,284.2,95.7,679.0,3309.0,10.0,
100000,1864.1,11.9,284.2,113.3,679.0,3309.0,10.0,
100100,1859.5,10.6,284.2,76.2,679.0,3309.0,10.0,
100200,1862.0,16.5,269.5,74.2,679.0,3309.0,10.0,
100300,1861.3,12.6,240.2,80.1,679.0,3309.0,10.0,
100400,1858.1,12.3,205.8,64.5,679.0,3309.0,10.0,
100500,1860.5,16.6,180.4,70.3,679.0,3309.0,10.0,
100600,1860.0,15.5,155.2,111.3,679.0,3309.0,10.0,
100800,1855.2,208.5,73.6,127.0,866.0,4893.0,12.0,
100900,1855.5,247.2,145.9,130.9,854.0,4512.0,11.0,
101000,1834.6,173.6,191.9,127.0,862.0,4114.0,11.0,
101100,1846.5,187.2,214.0,66.4,758.0,3945.0,30.0,
101200,1912.3,183.3,236.8,64.5,902.0,3844.0,30.0,
101300,1872.4,204.3,261.2,64.5,578.0,3169.0,10.0,
101400,1853.8,79.3,285.3,128.9,680.0,3322.0,10.0,
101500,1857.6,15.3,285.3,160.2,680.0,3322.0,10.0,
101600,1860.4,10.8,285.3,140.6,680.0,3322.0,10.0,
101800,1858.2,12.5,276.2,130.9,680.0,3322.0,10.0,
101900,1861.1,10.4,245.8,119.1,680.0,3322.0,10.0,
102000,1859.6,13.7,211.8,138.7,680.0,3322.0,10.0,
102100,1858.7,14.5,189.4,142.6,680.0,3322.0,10.0,
102200,1859.2,17.0,160.0,121.1,680.0,3322.0,10.0,
102300,1859.7,11.6,116.1,121.1,680.0,3322.0,10.0,
102400,1837.1,104.8,64.2,140.6,680.0,3322.0,10.0,
102500,1847.5,182.2,123.6,144.5,443.0,3308.0,12.0,
102600,1887.7,141.3,148.8,130.9,579.0,2923.0,30.0,
102800,1872.0,122.5,197.5,128.9,249.0,2140.0,10.0,
102900,1832.2,162.6,232.2,195.3,224.0,1850.0,12.0,
103000,1856.6,87.5,256.5,195.3,221.0,1811.0,10.0,
103100,1865.1,17.6,256.7,191.4,221.0,1811.0,10.0,
103200,1859.8,12.9,256.7,162.1,221.0,1811.0,10.0,
103300,1859.4,13.2,256.6,162.1,221.0,1811.0,10.0,
103400,1856.9,17.6,249.1,160.2,221.0,1811.0,10.0,
103500,1862.5,16.4,225.6,179.7,221.0,1811.0,10.0,
103600,1865.2,21.2,210.0,175.8,221.0,1811.0,10.0,
103800,1860.7,23.4,165.2,56.6,221.0,1811.0,10.0,
103900,1855.8,18.6,111.6,52.7,221.0,1811.0,10.0,
104000,1860.3,109.4,23.8,52.7,221.0,1811.0,10.0,
104100,1871.7,157.7,84.1,78.1,569.0,3501.0,11.0,
104200,1877.0,129.7,132.1,103.5,583.0,3136.0,30.0,
104300,1861.3,164.2,169.7,128.9,436.0,2732.0,10.0,
104400,1870.6,150.5,201.5,193.4,387.0,2589.0,11.0,
104500,1853.4,153.3,229.3,193.4,281.0,2223.0,12.0,
104600,1847.7,126.0,253.1,162.1,317.0,2203.0,11.0,
104800,1862.1,13.1,258.1,158.2,317.0,2203.0,11.0,
104900,1860.0,14.5,258.0,130.9,317.0,2203.0,11.0,
105000,1860.8,16.4,258.0,130.9,317.0,2203.0,11.0,
105100,1859.7,25.7,245.0,130.9,317.0,2203.0,11.0,
105200,1864.1,17.8,222.9,46.9,317.0,2203.0,11.0,
105300,1860.1,16.8,195.8,43.0,317.0,2203.0,11.0,
105400,1861.5,12.3,162.9,44.9,317.0,2203.0,11.0,
105500,1860.4,13.8,120.5,60.5,317.0,2203.0,11.0,
105600,1861.1,54.9,55.2,82.0,317.0,2203.0,11.0,
105800,1877.5,174.6,141.9,224.6,425.0,2767.0,11.0,
105900,1854.5,154.2,178.8,195.3,377.0,2286.0,11.0,
106000,1824.3,125.3,219.0,191.4,353.0,2632.0,11.0,
106100,1847.2,164.2,244.8,162.1,308.0,2170.0,12.0,
106200,1872.5,138.4,260.1,160.2,577.0,2593.0,11.0,
106300,1866.5,19.7,263.7,158.2,577.0,2593.0,11.0,
106400,1861.2,13.4,263.6,128.9,577.0,2593.0,11.0,
106500,1863.8,14.6,263.6,127.0,577.0,2593.0,11.0,
106600,1861.3,12.9,263.6,109.4,577.0,2593.0,11.0,
106800,1857.0,14.7,223.2,111.3,577.0,2593.0,11.0,
106900,1860.2,15.3,194.8,99.6,577.0,2593.0,11.0,
107000,1858.4,19.7,148.3,99.6,577.0,2593.0,11.0,
107100,1860.5,16.0,100.0,76.2,577.0,2593.0,11.0,
107200,1858.7,23.8,47.3,54.7,577.0,2593.0,11.0,
107300,1881.0,183.2,87.9,68.4,849.0,5103.0,13.0,
107400,1829.9,199.0,147.5,128.9,599.0,3048.0,11.0,
107500,1859.8,193.8,187.7,128.9,622.0,3376.0,11.0,
107600,1854.3,200.1,220.8,128.9,601.0,3222.0,11.0,
107800,1853.0,123.4,259.7,128.9,601.0,3222.0,11.0,
107900,1882.3,28.8,265.0,128.9,604.0,3054.0,10.0,
108000,1858.8,16.1,265.0,70.3,604.0,3054.0,10.0,
108100,1862.7,13.8,264.9,66.4,604.0,3054.0,10.0,
108200,1859.6,15.4,264.9,68.4,604.0,3054.0,10.0,
108300,1862.0,12.6,250.6,95.7,604.0,3054.0,10.0,
108400,1859.5,13.9,220.9,121.1,604.0,3054.0,10.0,
108500,1857.3,11.8,188.0,121.1,604.0,3054.0,10.0,
108600,1858.6,12.4,147.6,140.6,604.0,3054.0,10.0,
108800,1860.6,14.8,55.9,166.0,604.0,3054.0,10.0,
108900,1851.1,178.3,84.1,152.3,599.0,3860.0,12.0,
109000,1855.6,181.0,137.2,132.8,523.0,2899.0,11.0,
109100,1842.9,154.2,177.4,130.9,515.0,2637.0,11.0,
109200,1818.3,151.7,210.8,130.9,426.0,2418.0,10.0,
109300,1872.2,123.5,224.5,130.9,424.0,2330.0,11.0,
109400,1899.8,154.6,237.5,128.9,772.0,2965.0,30.0,
109500,1874.5,34.1,247.6,128.9,373.0,2201.0,11.0,
109600,1860.0,20.2,247.6,191.4,373.0,2201.0,11.0,
109800,1860.2,10.9,247.6,228.5,373.0,2201.0,11.0,
109900,1861.7,13.2,233.5,158.2,373.0,2201.0,11.0,
110000,1859.0,12.8,206.8,130.9,373.0,2201.0,11.0,
110100,1858.7,17.6,173.6,128.9,373.0,2201.0,11.0,
110200,1859.4,14.0,131.0,80.1,373.0,2201.0,11.0,
110300,1859.4,11.7,105.8,80.1,373.0,2201.0,11.0,
110400,1860.1,12.4,72.2,127.0,373.0,2201.0,11.0,
110500,1845.3,148.3,81.8,183.6,525.0,3781.0,12.0,
110600,1839.8,194.1,139.4,160.2,544.0,3115.0,11.0,
110800,1845.8,167.3,209.6,130.9,432.0,2625.0,10.0,
110900,1854.2,134.3,226.0,130.9,508.0,2789.0,11.0,
111000,1870.0,129.7,239.7,128.9,508.0,2789.0,11.0,
111100,1893.4,44.8,251.7,127.0,509.0,2614.0,11.0,
111200,1861.0,15.2,251.7,128.9,509.0,2614.0,11.0,
111300,1858.9,11.8,251.7,193.4,509.0,2614.0,11.0,
111400,1861.0,12.9,251.7,222.7,509.0,2614.0,11.0,
111500,1860.3,11.7,238.7,169.9,509.0,2614.0,11.0,
111600,1861.5,14.1,210.4,101.6,509.0,2614.0,11.0,
111800,1860.3,11.4,140.5,89.8,509.0,2614.0,11.0,
111900,1857.8,16.8,112.3,68.4,509.0,2614.0,11.0,
112000,1861.2,14.3,78.9,113.3,509.0,2614.0,11.0,
112100,1855.8,163.7,62.2,150.4,485.0,3391.0,12.0,
112200,1853.3,175.7,128.3,162.1,512.0,2811.0,11.0,
112300,1820.8,141.1,178.4,160.2,472.0,2725.0,11.0,
112400,1847.5,161.7,198.3,134.8,566.0,3048.0,12.0,
112500,1898.4,159.0,213.9,128.9,691.0,3609.0,11.0,
112600,1891.9,187.9,232.5,125.0,745.0,3770.0,30.0,
112800,1859.2,16.9,251.8,128.9,745.0,3770.0,30.0,
112900,1860.8,14.7,251.8,158.2,745.0,3770.0,30.0,
113000,1860.8,12.4,251.8,128.9,745.0,3770.0,30.0,
113100,1862.7,14.2,244.6,68.4,745.0,3770.0,30.0,
113200,1862.3,10.4,217.3,48.8,745.0,3770.0,30.0,
113300,1859.0,12.1,178.6,107.4,745.0,3770.0,30.0,
113400,1859.6,12.2,156.1,121.1,745.0,3770.0,30.0,
113500,1861.1,13.6,133.9,162.1,745.0,3770.0,30.0,
113600,1863.2,13.6,98.3,179.7,745.0,3770.0,30.0,
113800,1848.9,185.2,132.1,154.3,585.0,3318.0,11.0,
113900,1866.3,175.9,165.6,130.9,504.0,3044.0,12.0,
114000,1868.1,149.9,180.1,128.9,504.0,3044.0,12.0,
114100,1881.3,136.5,202.4,128.9,741.0,3331.0,30.0,
114200,1854.5,171.7,225.5,127.0,521.0,2856.0,10.0,
114300,1867.9,103.1,250.7,160.2,550.0,2770.0,11.0,
114400,1860.4,18.1,250.8,162.1,550.0,2770.0,11.0,
114500,1860.7,11.5,250.8,150.4,550.0,2770.0,11.0,
114600,1858.0,11.1,250.8,132.8,550.0,2770.0,11.0,
114800,1861.7,17.3,214.0,93.8,550.0,2770.0,11.0,
114900,1858.2,10.2,189.1,115.2,550.0,2770.0,11.0,
115000,1858.4,10.2,175.4,121.1,550.0,2770.0,11.0,
115100,1859.4,14.2,149.1,123.0,550.0,2770.0,11.0,
115200,1862.0,13.0,111.1,130.9,550.0,2770.0,11.0,
115300,1859.9,103.7,18.7,103.5,550.0,2770.0,11.0,
115400,1846.6,147.1,106.6,160.2,364.0,2634.0,12.0,
115500,1848.4,116.6,135.3,158.2,364.0,2634.0,12.0,
115600,1883.6,146.7,155.0,130.9,709.0,2848.0,30.0,
115800,1854.5,141.2,203.6,160.2,444.0,2223.0,11.0,
115900,1827.1,132.0,236.4,193.4,364.0,2268.0,11.0,
116000,1872.6,17.7,237.7,162.1,414.0,2578.0,11.0,
116100,1859.9,9.9,237.7,162.1,414.0,2578.0,11.0,
116200,1858.1,13.1,237.7,160.2,414.0,2578.0,11.0,
116300,1863.4,13.6,237.7,158.2,414.0,2578.0,11.0,
116400,1859.9,13.6,213.2,181.6,414.0,2578.0,11.0,
116500,1859.1,14.2,196.2,160.2,414.0,2578.0,11.0,
116600,1855.7,24.0,181.2,68.4,414.0,2578.0,11.0,
116800,1863.7,23.0,124.4,43.0,414.0,2578.0,11.0,
116900,1858.0,66.7,32.7,46.9,414.0,2578.0,11.0,
117000,1857.2,112.1,78.7,66.4,381.0,2952.0,12.0,
117100,1889.2,146.8,102.9,119.1,339.0,2397.0,12.0,
117200,1887.2,130.4,133.5,127.0,353.0,2425.0,30.0,
117300,1837.5,105.8,174.8,162.1,356.0,2339.0,13.0,
117400,1848.3,148.2,205.1,220.7,401.0,2307.0,11.0,
117500,1853.5,150.0,231.9,193.4,322.0,2016.0,11.0,
117600,1853.8,22.8,238.8,162.1,322.0,2016.0,11.0,
117800,1860.2,21.8,238.7,160.2,322.0,2016.0,11.0,
117900,1861.5,16.7,238.8,142.6,322.0,2016.0,11.0,
118000,1860.7,11.7,226.4,56.6,322.0,2016.0,11.0,
118100,1860.8,10.1,216.5,54.7,322.0,2016.0,11.0,
118200,1860.0,14.7,199.2,60.5,322.0,2016.0,11.0,
118300,1858.6,13.4,164.2,80.1,322.0,2016.0,11.0,
118400,1862.5,13.8,124.1,68.4,322.0,2016.0,11.0,
118500,1861.3,11.6,60.6,66.4,322.0,2016.0,11.0,
118600,1879.1,124.2,62.3,127.0,679.0,3228.0,30.0,
118800,1869.3,139.2,148.0,195.3,373.0,2393.0,11.0,
118900,1857.6,158.2,181.4,224.6,425.0,2470.0,11.0,
119000,1842.5,147.7,211.8,193.4,422.0,2337.0,11.0,
119100,1823.9,112.0,241.1,162.1,359.0,2317.0,11.0,
119200,1873.5,22.0,245.7,160.2,351.0,2129.0,11.0,
119300,1862.6,11.4,245.7,158.2,351.0,2129.0,11.0,
119400,1862.1,10.2,245.7,130.9,351.0,2129.0,11.0,
119500,1857.7,9.7,245.7,128.9,351.0,2129.0,11.0,
119600,1859.4,11.4,238.4,127.0,351.0,2129.0,11.0,
119800,1858.3,11.3,196.9,162.1,351.0,2129.0,11.0,
119900,1863.5,19.5,166.5,173.8,351.0,2129.0,11.0,
120000,1861.2,13.1,125.7,179.7,351.0,2129.0,11.0,
120100,1862.5,14.3,50.0,70.3,351.0,2129.0,11.0,
120200,1874.1,119.3,58.0,93.8,480.0,2824.0,30.0,
120300,1893.2,150.3,97.8,210.9,591.0,3004.0,30.0,
120400,1863.8,126.1,134.3,226.6,411.0,2583.0,13.0,
120500,1827.5,165.4,177.8,224.6,321.0,2020.0,12.0,
120600,1851.8,149.7,209.5,193.4,360.0,2201.0,11.0,
120800,1850.3,36.7,243.6,160.2,522.0,2802.0,11.0,
120900,1862.5,20.4,243.7,130.9,522.0,2802.0,11.0,
121000,1862.1,18.4,243.7,128.9,522.0,2802.0,11.0,
121100,1861.5,27.9,243.7,70.3,522.0,2802.0,11.0,
121200,1862.5,14.3,237.4,60.5,522.0,2802.0,11.0,
121300,1857.7,11.0,224.0,56.6,522.0,2802.0,11.0,
121400,1862.2,12.0,204.3,54.7,522.0,2802.0,11.0,
121500,1862.5,13.1,167.7,60.5,522.0,2802.0,11.0,
121600,1861.9,13.5,126.0,119.1,522.0,2802.0,11.0,
121800,1867.5,104.3,60.5,146.5,681.0,3270.0,30.0,
121900,1882.8,148.4,104.3,253.9,421.0,2754.0,12.0,
122000,1881.6,138.6,139.8,257.8,321.0,2272.0,11.0,
122100,1851.2,146.9,174.1,226.6,336.0,2121.0,11.0,
122200,1841.5,136.4,205.3,193.4,313.0,2061.0,12.0,
122300,1825.4,150.5,233.2,162.1,402.0,2380.0,11.0,
122400,1880.3,39.7,240.6,160.2,402.0,2380.0,11.0,
122500,1858.0,14.3,240.6,130.9,402.0,2380.0,11.0,
122600,1855.6,15.6,240.6,128.9,402.0,2380.0,11.0,
122800,1858.7,11.7,233.8,107.4,402.0,2380.0,11.0,
122900,1861.1,21.4,217.8,160.2,402.0,2380.0,11.0,
123000,1858.6,14.4,196.9,164.1,402.0,2380.0,11.0,
123100,1862.0,15.9,167.3,89.8,402.0,2380.0,11.0,
123200,1856.7,14.1,126.9,56.6,402.0,2380.0,11.0,
123300,1859.6,25.5,62.5,68.4,402.0,2380.0,11.0,
123400,1871.5,125.6,51.8,101.6,671.0,3115.0,30.0,
123500,1882.0,138.7,99.6,263.7,445.0,2626.0,30.0,
123600,1832.5,103.6,150.9,257.8,226.0,1822.0,11.0,
123800,1856.0,133.2,210.1,193.4,251.0,1812.0,11.0,
123900,1856.1,115.2,225.6,162.1,266.0,1970.0,11.0,
124000,1882.0,49.7,234.1,160.2,257.0,1893.0,11.0,
124100,1857.7,13.3,234.1,160.2,257.0,1893.0,11.0,
124200,1863.0,11.7,234.1,160.2,257.0,1893.0,11.0,
124300,1862.0,16.0,234.0,220.7,257.0,1893.0,11.0,
124400,1861.2,14.2,229.0,222.7,257.0,1893.0,11.0,
124500,1862.5,10.1,212.7,119.1,257.0,1893.0,11.0,
124600,1860.9,13.3,179.9,142.6,257.0,1893.0,11.0,
124800,1860.3,14.2,104.7,66.4,257.0,1893.0,11.0,
124900,1857.3,13.0,65.2,60.5,257.0,1893.0,11.0,
125000,1851.8,123.4,50.5,113.3,305.0,2414.0,14.0,
125100,1862.1,147.6,111.2,224.6,255.0,2193.0,11.0,
125200,1857.1,154.5,154.7,195.3,270.0,2371.0,11.0,
125300,1840.9,126.2,187.7,189.5,230.0,1727.0,11.0,
125400,1829.7,95.3,211.8,162.1,197.0,1543.0,11.0,
125500,1870.5,100.5,220.2,160.2,197.0,1543.0,11.0,
125600,1890.9,66.2,232.2,160.2,630.0,2126.0,30.0,
125800,1861.7,15.5,232.4,224.6,630.0,2126.0,30.0,
125900,1857.3,15.7,232.4,259.8,630.0,2126.0,30.0,
126000,1860.5,16.1,227.6,250.0,630.0,2126.0,30.0,
126100,1860.5,11.6,204.8,44.9,630.0,2126.0,30.0,
126200,1859.1,11.8,174.3,48.8,630.0,2126.0,30.0,
126300,1862.4,9.5,138.0,66.4,630.0,2126.0,30.0,
126400,1862.7,13.3,97.1,121.1,630.0,2126.0,30.0,
126500,1859.8,11.4,76.3,146.5,630.0,2126.0,30.0,
126600,1860.6,97.8,19.1,146.5,630.0,2126.0,30.0,
126800,1823.1,171.0,163.0,164.1,307.0,2288.0,11.0,
126900,1853.8,151.3,194.1,162.1,312.0,2083.0,11.0,
127000,1862.2,123.5,213.0,160.2,320.0,2173.0,12.0,
127100,1871.0,113.3,221.8,160.2,320.0,2173.0,12.0,
127200,1874.5,100.7,239.8,130.9,467.0,2040.0,30.0,
127300,1875.8,17.6,240.3,160.2,467.0,2040.0,30.0,
127400,1863.2,17.7,240.4,232.4,467.0,2040.0,30.0,
127500,1861.3,18.5,240.4,259.8,467.0,2040.0,30.0,
127600,1856.7,19.1,240.5,255.9,467.0,2040.0,30.0,
127800,1860.4,16.7,177.8,64.5,467.0,2040.0,30.0,
127900,1860.2,13.3,143.2,60.5,467.0,2040.0,30.0,
128000,1860.5,10.7,113.0,60.5,467.0,2040.0,30.0,
128100,1859.8,10.2,94.6,62.5,467.0,2040.0,30.0,
128200,1859.3,72.6,24.9,95.7,467.0,2040.0,30.0,
128300,1844.7,156.6,109.7,177.7,400.0,2935.0,13.0,
128400,1855.0,164.7,155.5,164.1,381.0,2570.0,12.0,
128500,1840.8,138.5,189.9,162.1,330.0,2245.0,12.0,
128600,1840.7,100.9,211.3,160.2,293.0,2202.0,12.0,
128800,1888.1,135.0,241.7,130.9,221.0,1941.0,11.0,
128900,1859.4,17.6,248.2,193.4,221.0,1941.0,11.0,
129000,1859.9,10.1,248.2,226.6,221.0,1941.0,11.0,
129100,1863.0,11.6,248.2,222.7,221.0,1941.0,11.0,
129200,1858.0,12.8,248.2,193.4,221.0,1941.0,11.0,
129300,1859.8,16.6,223.5,142.6,221.0,1941.0,11.0,
129400,1859.3,13.2,194.5,76.2,221.0,1941.0,11.0,
129500,1860.3,23.8,161.0,60.5,221.0,1941.0,11.0,
129600,1858.9,24.0,131.8,58.6,221.0,1941.0,11.0,
129800,1859.5,34.1,60.1,58.6,221.0,1941.0,11.0,
129900,1830.7,130.9,111.3,123.0,388.0,2766.0,14.0,
130000,1845.7,159.2,145.5,160.2,347.0,2428.0,12.0,
130100,1875.8,120.6,165.4,160.2,357.0,2330.0,12.0,
130200,1895.0,139.8,183.2,130.9,601.0,2695.0,30.0,
130300,1872.2,122.5,205.3,130.9,304.0,2066.0,11.0,
130400,1832.5,106.5,237.5,193.4,212.0,1908.0,10.0,
130500,1871.2,22.0,245.8,224.6,249.0,1779.0,11.0,
130600,1860.0,13.9,245.6,191.4,249.0,1779.0,11.0,
130800,1860.4,13.7,245.4,164.1,249.0,1779.0,11.0,
130900,1862.0,16.9,219.7,152.3,249.0,1779.0,11.0,
131000,1863.3,11.2,198.8,91.8,249.0,1779.0,11.0,
131100,1860.0,9.7,182.6,68.4,249.0,1779.0,11.0,
131200,1862.3,10.6,164.7,68.4,249.0,1779.0,11.0,
131300,1859.7,14.2,136.2,103.5,249.0,1779.0,11.0,
131400,1859.7,15.2,65.5,142.6,249.0,1779.0,11.0,
131500,1852.3,148.1,77.0,150.4,382.0,2926.0,13.0,
131600,1868.5,130.1,109.5,130.9,318.0,2535.0,12.0,
131800,1874.4,141.9,166.5,128.9,203.0,1828.0,10.0,
131900,1861.2,134.3,195.6,224.6,255.0,1883.0,11.0,
132000,1853.5,135.7,222.6,226.6,227.0,1727.0,11.0,
132100,1850.0,26.7,239.3,193.4,206.0,1823.0,11.0,
132200,1860.6,12.7,239.3,166.0,206.0,1823.0,11.0,
132300,1856.8,14.2,239.3,162.1,206.0,1823.0,11.0,
132400,1859.8,16.3,239.3,162.1,206.0,1823.0,11.0,
132500,1862.3,11.8,227.1,156.3,206.0,1823.0,11.0,
132600,1860.0,15.5,213.3,89.8,206.0,1823.0,11.0,
132800,1859.0,12.7,172.6,101.6,206.0,1823.0,11.0,
132900,1859.7,11.9,138.8,132.8,206.0,1823.0,11.0,hard
133000,1859.8,10.9,89.3,179.7,206.0,1823.0,11.0,
133100,1839.8,112.6,69.6,148.4,355.0,2807.0,14.0,
133200,1869.2,140.7,106.2,128.9,516.0,2940.0,30.0,
133300,1907.0,133.9,133.6,127.0,698.0,2893.0,30.0,
133400,1874.8,128.7,161.3,130.9,241.0,1993.0,11.0,
133500,1832.2,110.2,200.2,224.6,237.0,1842.0,11.0,
133600,1845.7,156.4,226.8,224.6,171.0,1740.0,10.0,
133800,1859.0,12.6,242.8,162.1,171.0,1740.0,10.0,
133900,1863.3,9.5,242.8,162.1,171.0,1740.0,10.0,
134000,1861.9,12.2,242.7,162.1,171.0,1740.0,10.0,
134100,1858.8,12.7,233.1,162.1,171.0,1740.0,10.0,
134200,1857.4,15.0,218.9,187.5,171.0,1740.0,10.0,
134300,1860.4,13.8,203.4,148.4,171.0,1740.0,10.0,
134400,1859.0,11.2,182.1,128.9,171.0,1740.0,10.0,
134500,1860.6,12.3,138.3,115.2,171.0,1740.0,10.0,
134600,1861.7,15.2,88.2,105.5,171.0,1740.0,10.0,
134800,1871.4,137.3,94.8,125.0,587.0,3106.0,11.0,
134900,1879.3,112.3,129.9,125.0,814.0,3257.0,30.0,
135000,1874.3,137.7,159.2,128.9,330.0,2080.0,10.0,
135100,1859.8,148.4,189.6,193.4,264.0,1934.0,10.0,
135200,1847.1,132.5,217.9,195.3,286.0,1841.0,10.0,
135300,1842.1,51.8,241.4,191.4,256.0,1744.0,9.0,
