Time(ms),Raw_ADC
0,1862
1,1867
2,1882
3,1886
4,1884
5,1879
6,1872
7,1871
8,723
9,1878
10,1989
11,2225
12,2140
13,1903
14,1986
15,1795
16,1814
17,1874
18,1787
19,1719
20,1797
21,1867
22,1853
23,1809
24,1791
25,1799
26,1822
27,1840
28,1844
29,1849
30,1863
31,1875
32,1875
33,1872
34,1870
35,1875
36,1889
37,1885
38,1881
39,1845
40,1879
41,1894
42,2192
43,2218
44,1963
45,1990
46,1808
47,1762
48,1881
49,1830
50,1707
51,1738
52,1843
53,1865
54,1840
55,1808
56,1810
57,1825
58,1840
59,1857
60,1867
61,1865
62,1872
63,1859
64,1856
65,1858
66,1858
67,1862
68,1872
69,1887
70,1888
71,1783
72,1887
73,2129
74,2240
75,2032
76,1968
77,1903
78,1739
79,1845
80,1849
81,1733
82,1723
83,1817
84,1851
85,1842
86,1815
87,1817
88,1840
89,1855
90,1856
91,1851
92,1847
93,1855
94,1861
95,1862
96,1870
97,1877
98,1878
99,1877
100,1863
101,1868
102,1296
103,1891
104,2067
105,2269
106,2118
107,1946
108,1967
109,1732
110,1829
111,1858
112,1732
113,1685
114,1791
115,1850
116,1842
117,1806
118,1794
119,1839
120,1854
121,1859
122,1866
123,1871
124,1879
125,1873
126,1868
127,1873
128,1880
129,1871
130,1861
131,1856
132,1851
133,1062
134,1876
135,1932
136,2222
137,2190
138,1940
139,2064
140,1804
141,1793
142,1867
143,1778
144,1680
145,1744
146,1836
147,1856
148,1825
149,1802
150,1808
151,1827
152,1855
153,1866
154,1862
155,1879
156,1904
157,1888
158,1879
159,1873
160,1868
161,1862
162,1855
163,1857
164,1869
165,1855
166,1876
167,2148
168,2224
169,1997
170,2064
171,1878
172,1775
173,1856
174,1805
175,1685
176,1728
177,1821
178,1849
179,1827
180,1799
181,1808
182,1840
183,1850
184,1854
185,1871
186,1885
187,1891
188,1888
189,1882
190,1873
191,1872
192,1863
193,1854
194,1841
195,1843
196,1859
197,1868
198,1865
199,1868
200,1863
201,1862
202,1871
203,1873
204,1872
205,1867
206,1858
207,1854
208,1847
209,1856
210,1856
211,1854
212,1856
213,1855
214,1860
215,1859
216,1862
217,1857
218,1863
219,1873
220,1877
221,1872
222,1867
223,1858
224,1858
225,1856
226,1856
227,1852
228,1850
229,1854
230,1856
231,1862
232,1856
233,1855
234,1855
235,1866
236,1873
237,1877
238,1872
239,1867
240,1859
241,1855
242,1853
243,1854
244,1853
245,1854
246,1855
247,1857
248,1857
249,1861
250,1857
251,1854
252,1872
253,1877
254,1872
255,1871
256,1862
257,1856
258,1853
259,1854
260,1853
261,1847
262,1846
263,1851
264,1856
265,1854
266,1856
267,1851
268,1859
269,1876
270,1877
271,1872
272,1870
273,1862
274,1857
275,1854
276,1854
277,1854
278,1853
279,1855
280,1856
281,1861
282,1861
283,1857
284,1855
285,1870
286,1874
287,1874
288,1872
289,1867
290,1859
291,1854
292,1846
293,1844
294,1845
295,1844
296,1850
297,1857
298,1857
299,1859
300,1856
301,1858
302,1869
303,1877
304,1874
305,1871
306,1861
307,1856
308,1853
309,1855
310,1854
311,1848
312,1847
313,1853
314,1861
315,1857
316,1859
317,1855
318,1867
319,1875
320,1873
321,1872
322,1867
323,1854
324,1845
325,1842
326,1845
327,1843
328,1841
329,1853
330,1859
331,1863
332,1866
333,1857
334,1856
335,1871
336,1872
337,1872
338,1870
339,1871
340,1863
341,1856
342,1849
343,1847
344,1846
345,1847
346,1853
347,1858
348,1861
349,1861
350,1857
351,1856
352,1866
353,1869
354,1867
355,1863
356,1856
357,1851
358,1854
359,1856
360,1856
361,1851
362,1852
363,1853
364,1856
365,1857
366,1859
367,1854
368,1866
369,1873
370,1873
371,1872
372,1869
373,1860
374,1856
375,1857
376,1857
377,1851
378,1847
379,1851
380,1855
381,1861
382,1863
383,1857
384,1857
385,1862
386,1869
387,1873
388,1870
389,1863
390,1855
391,1850
392,1851
393,1853
394,1851
395,1849
396,1850
397,1858
398,1859
399,1865
400,1861
401,1862
402,1870
403,1877
404,1875
405,1872
406,1862
407,1857
408,1851
409,1854
410,1855
411,1852
412,1850
413,1851
414,1857
415,1856
416,1852
417,1849
418,1856
419,1873
420,1877
421,1874
422,1867
423,1862
424,1855
425,1855
426,1856
427,1854
428,1851
429,1856
430,1861
431,1862
432,1865
433,1860
434,1859
435,1872
436,1878
437,1875
438,1872
439,1871
440,1863
441,1856
442,1844
443,1843
444,1844
445,1846
446,1849
447,1866
448,1865
449,1866
450,1854
451,1851
452,1872
453,1875
454,1874
455,1872
456,1863
457,1862
458,1856
459,1854
460,1851
461,1853
462,1857
463,1856
464,1865
465,1861
466,1860
467,1856
468,1867
469,1873
470,1877
471,1872
472,1863
473,1857
474,1856
475,1849
476,1850
477,1847
478,1852
479,1855
480,1859
481,1861
482,1861
483,1857
484,1856
485,1870
486,1874
487,1875
488,1872
489,1869
490,1859
491,1855
492,1856
493,1854
494,1852
495,1853
496,1854
497,1859
498,1861
499,1863
500,1856
501,1859
502,1869
503,1870
504,1870
505,1870
506,1859
507,1859
508,1856
509,1858
510,1858
511,1854
512,1855
513,1856
514,1862
515,1859
516,1863
517,1854
518,1862
519,1872
520,1872
521,1872
522,1869
523,1861
524,1857
525,1854
526,1857
527,1855
528,1854
529,1855
530,1862
531,1863
532,1862
533,1851
534,1854
535,1867
536,1871
537,1869
538,1866
539,1866
540,1861
541,1857
542,1857
543,1857
544,1857
545,1857
546,1856
547,1861
548,1859
549,1861
550,1858
551,1859
552,1877
553,1877
554,1876
555,1872
556,1865
557,1856
558,1853
559,1856
560,1854
561,1851
562,1853
563,1851
564,1856
565,1858
566,1861
567,1854
568,1869
569,1875
570,1875
571,1872
572,1869
573,1863
574,1857
575,1858
576,1856
577,1853
578,1854
579,1856
580,1861
581,1863
582,1867
583,1862
584,1861
585,1872
586,1876
587,1876
588,1872
589,1871
590,1863
591,1858
592,1850
593,1850
594,1843
595,1852
596,1855
597,1866
598,1866
599,1865
600,1855
601,1862
602,1875
603,1874
604,1875
605,1872
606,1865
607,1859
608,1856
609,1859
610,1856
611,1850
612,1855
613,1857
614,1863
615,1865
616,1863
617,1858
618,1861
619,1872
620,1872
621,1869
622,1863
623,1858
624,1853
625,1851
626,1851
627,1846
628,1843
629,1856
630,1861
631,1867
632,1867
633,1857
634,1859
635,1872
636,1882
637,1883
638,1875
639,1871
640,1866
641,1861
642,1856
643,1857
644,1851
645,1861
646,1859
647,1862
648,1859
649,1859
650,1846
651,1835
652,1847
653,1858
654,1869
655,1874
656,1879
657,1873
658,1875
659,1872
660,1871
661,1859
662,1856
663,1853
664,1859
665,1862
666,1856
667,1840
668,1838
669,1852
670,1866
671,1872
672,1881
673,1878
674,1873
675,1872
676,1872
677,1869
678,1858
679,1855
680,1856
681,1859
682,1854
683,1845
684,1834
685,1841
686,1854
687,1872
688,1876
689,1882
690,1878
691,1872
692,1872
693,1872
694,1861
695,1859
696,1854
697,1856
698,1857
699,1857
700,1844
701,1840
702,1854
703,1863
704,1873
705,1883
706,1882
707,1885
708,1875
709,1872
710,1867
711,1857
712,1851
713,1850
714,1856
715,1851
716,1846
717,1840
718,1831
719,1855
720,1866
721,1872
722,1879
723,1878
724,1875
725,1872
726,1872
727,1871
728,1858
729,1854
730,1856
731,1857
732,1859
733,1851
734,1840
735,1845
736,1859
737,1872
738,1874
739,1878
740,1877
741,1874
742,1869
743,1867
744,1858
745,1855
746,1850
747,1853
748,1851
749,1858
750,1840
751,1837
752,1854
753,1863
754,1874
755,1879
756,1882
757,1877
758,1873
759,1872
760,1872
761,1862
762,1858
763,1858
764,1858
765,1858
766,1853
767,1840
768,1843
769,1858
770,1870
771,1873
772,1872
773,1873
774,1872
775,1871
776,1867
777,1861
778,1857
779,1856
780,1857
781,1858
782,1858
783,1848
784,1839
785,1850
786,1861
787,1872
788,1877
789,1881
790,1878
791,1875
792,1873
793,1872
794,1862
795,1862
796,1856
797,1856
798,1858
799,1859
800,1844
801,1839
802,1846
803,1856
804,1867
805,1874
806,1872
807,1877
808,1872
809,1871
810,1870
811,1862
812,1859
813,1856
814,1861
815,1857
816,1855
817,1840
818,1840
819,1858
820,1865
821,1874
822,1878
823,1882
824,1875
825,1872
826,1872
827,1870
828,1860
829,1856
830,1859
831,1858
832,1856
833,1842
834,1834
835,1842
836,1857
837,1863
838,1871
839,1881
840,1879
841,1875
842,1874
843,1872
844,1865
845,1859
846,1856
847,1859
848,1858
849,1858
850,1842
851,1837
852,1857
853,1863
854,1873
855,1879
856,1878
857,1878
858,1872
859,1875
860,1872
861,1863
862,1856
863,1851
864,1854
865,1853
866,1845
867,1835
868,1843
869,1857
870,1870
871,1877
872,1882
873,1881
874,1873
875,1873
876,1872
877,1871
878,1861
879,1857
880,1860
881,1859
882,1858
883,1844
884,1839
885,1846
886,1861
887,1872
888,1876
889,1878
890,1881
891,1874
892,1872
893,1867
894,1859
895,1853
896,1850
897,1859
898,1858
899,1857
900,1844
901,1840
902,1854
903,1863
904,1872
905,1878
906,1877
907,1878
908,1873
909,1872
910,1866
911,1858
912,1857
913,1855
914,1856
915,1859
916,1855
917,1840
918,1840
919,1851
920,1863
921,1870
922,1872
923,1872
924,1872
925,1864
926,1865
927,1862
928,1855
929,1856
930,1858
931,1856
932,1858
933,1846
934,1839
935,1851
936,1861
937,1872
938,1877
939,1881
940,1878
941,1872
942,1872
943,1871
944,1866
945,1857
946,1855
947,1857
948,1857
949,1858
950,1842
951,1835
952,1849
953,1859
954,1870
955,1873
956,1877
957,1871
958,1873
959,1872
960,1870
961,1861
962,1856
963,1854
964,1859
965,1858
966,1854
967,1840
968,1842
969,1858
970,1869
971,1872
972,1878
973,1879
974,1874
975,1872
976,1871
977,1867
978,1856
979,1856
980,1857
981,1857
982,1852
983,1840
984,1833
985,1846
986,1855
987,1871
988,1875
989,1877
990,1877
991,1872
992,1872
993,1872
994,1863
995,1858
996,1856
997,1856
998,1856
999,1856
1000,1841
1001,1840
1002,1854
1003,1866
1004,1872
1005,1878
1006,1876
1007,1873
1008,1873
1009,1871
1010,1869
1011,1858
1012,1850
1013,1850
1014,1851
1015,1850
1016,1842
1017,1837
1018,1838
1019,1856
1020,1863
1021,1872
1022,1879
1023,1881
1024,1872
1025,1872
1026,1871
1027,1865
1028,1856
1029,1854
1030,1857
1031,1856
1032,1857
1033,1846
1034,1840
1035,1852
1036,1860
1037,1870
1038,1874
1039,1879
1040,1877
1041,1872
1042,1867
1043,1865
1044,1856
1045,1853
1046,1853
1047,1852
1048,1846
1049,1855
1050,1840
1051,1836
1052,1856
1053,1865
1054,1873
1055,1882
1056,1876
1057,1872
1058,1872
1059,1871
1060,1867
1061,1856
1062,1856
1063,1856
1064,1857
1065,1858
1066,1850
1067,1840
1068,1842
1069,1857
1070,1871
1071,1875
1072,1873
1073,1873
1074,1871
1075,1867
1076,1865
1077,1858
1078,1857
1079,1852
1080,1857
1081,1858
1082,1859
1083,1845
1084,1839
1085,1852
1086,1861
1087,1872
1088,1875
1089,1875
1090,1873
1091,1872
1092,1869
1093,1869
1094,1862
1095,1858
1096,1856
1097,1859
1098,1856
1099,1856
1100,1840
1101,1840
1102,1847
1103,1856
1104,1863
1105,1869
1106,1872
1107,1872
1108,1872
1109,1870
1110,1867
1111,1857
1112,1855
1113,1856
1114,1856
1115,1856
1116,1846
1117,1837
1118,1837
1119,1854
1120,1867
1121,1872
1122,1875
1123,1874
1124,1872
1125,1870
1126,1870
1127,1865
1128,1862
1129,1854
1130,1857
1131,1856
1132,1851
1133,1839
1134,1829
1135,1843
1136,1856
1137,1866
1138,1869
1139,1875
1140,1874
1141,1872
1142,1871
1143,1869
1144,1859
1145,1856
1146,1855
1147,1856
1148,1853
1149,1850
1150,1840
1151,1837
1152,1855
1153,1866
1154,1872
1155,1875
1156,1874
1157,1872
1158,1871
1159,1867
1160,1867
1161,1860
1162,1847
1163,1847
1164,1850
1165,1855
1166,1841
1167,1827
1168,1843
1169,1856
1170,1868
1171,1872
1172,1874
1173,1874
1174,1871
1175,1870
1176,1870
1177,1861
1178,1857
1179,1854
1180,1856
1181,1856
1182,1856
1183,1845
1184,1838
1185,1849
1186,1861
1187,1871
1188,1873
1189,1873
1190,1873
1191,1872
1192,1859
1193,1858
1194,1855
1195,1852
1196,1850
1197,1791
1198,1914
1199,2225
1200,2394
1201,2345
1202,2193
1203,1886
1204,1730
1205,1726
1206,1797
1207,1917
1208,1950
1209,1846
1210,1683
1211,1657
1212,1683
1213,1728
1214,1751
1215,1757
1216,1760
1217,1758
1218,1777
1219,1807
1220,1836
1221,1847
1222,1857
1223,1867
1224,1868
1225,1863
1226,1854
1227,1850
1228,1419
1229,1893
1230,2135
1231,2362
1232,2294
1233,2107
1234,1753
1235,1643
1236,1654
1237,1789
1238,1919
1239,1930
1240,1781
1241,1738
1242,1762
1243,1791
1244,1821
1245,1813
1246,1799
1247,1805
1248,1821
1249,1834
1250,1837
1251,1835
1252,1851
1253,1863
1254,1872
1255,1882
1256,1886
1257,1882
1258,1887
1259,887
1260,1892
1261,2026
1262,2297
1263,2262
1264,2109
1265,1773
1266,1684
1267,1695
1268,1806
1269,1919
1270,1905
1271,1792
1272,1777
1273,1808
1274,1842
1275,1855
1276,1819
1277,1804
1278,1811
1279,1829
1280,1846
1281,1855
1282,1854
1283,1840
1284,1837
1285,1851
1286,1872
1287,1879
1288,1888
1289,1889
1290,1886
1291,1867
1292,1949
1293,2190
1294,2224
1295,2108
1296,1795
1297,1749
1298,1791
1299,1859
1300,1919
1301,1863
1302,1775
1303,1759
1304,1806
1305,1857
1306,1856
1307,1815
1308,1809
1309,1834
1310,1845
1311,1856
1312,1845
1313,1851
1314,1851
1315,1847
1316,1840
1317,1837
1318,1846
1319,1867
1320,1874
1321,1881
1322,1654
1323,1920
1324,2135
1325,2270
1326,2193
1327,1888
1328,1804
1329,1789
1330,1808
1331,1904
1332,1862
1333,1762
1334,1735
1335,1793
1336,1849
1337,1843
1338,1812
1339,1814
1340,1833
1341,1846
1342,1847
1343,1855
1344,1856
1345,1856
1346,1871
1347,1874
1348,1859
1349,1862
1350,1851
1351,1846
1352,1863
1353,690
1354,1903
1355,2047
1356,2247
1357,2198
1358,1947
1359,1867
1360,1811
1361,1835
1362,1919
1363,1859
1364,1775
1365,1744
1366,1791
1367,1824
1368,1819
1369,1799
1370,1807
1371,1836
1372,1855
1373,1872
1374,1878
1375,1879
1376,1876
1377,1861
1378,1856
1379,1850
1380,1858
1381,1863
1382,1866
1383,1851
1384,1395
1385,1859
1386,1962
1387,2272
1388,2291
1389,2059
1390,1866
1391,1822
1392,1801
1393,1899
1394,1867
1395,1762
1396,1707
1397,1753
1398,1818
1399,1821
1400,1778
1401,1778
1402,1808
1403,1843
1404,1883
1405,1929
1406,1927
1407,1895
1408,1869
1409,1826
1410,1811
1411,1847
1412,1862
1413,1867
1414,1870
1415,1872
1416,1799
1417,1887
1418,2183
1419,2285
1420,2107
1421,1890
1422,1874
1423,1789
1424,1875
1425,1877
1426,1787
1427,1724
1428,1769
1429,1830
1430,1840
1431,1803
1432,1786
1433,1791
1434,1809
1435,1843
1436,1866
1437,1872
1438,1875
1439,1887
1440,1889
1441,1883
1442,1877
1443,1876
1444,1866
1445,1865
1446,1863
1447,1270
1448,1879
1449,2093
1450,2256
1451,2116
1452,1888
1453,1918
1454,1785
1455,1904
1456,1921
1457,1809
1458,1719
1459,1751
1460,1831
1461,1840
1462,1794
1463,1781
1464,1802
1465,1827
1466,1839
1467,1834
1468,1840
1469,1854
1470,1871
1471,1883
1472,1893
1473,1895
1474,1887
1475,1883
1476,1878
1477,1872
1478,770
1479,1865
1480,1985
1481,2273
1482,2205
1483,1893
1484,1924
1485,1776
1486,1821
1487,1906
1488,1849
1489,1741
1490,1747
1491,1831
1492,1846
1493,1822
1494,1789
1495,1793
1496,1822
1497,1847
1498,1856
1499,1857
1500,1847
1501,1854
1502,1870
1503,1875
1504,1882
1505,1882
1506,1883
1507,1879
1508,1877
1509,1872
1510,1829
1511,1906
1512,2224
1513,2259
1514,1988
1515,1968
1516,1808
1517,1769
1518,1871
1519,1840
1520,1731
1521,1721
1522,1811
1523,1854
1524,1834
1525,1794
1526,1797
1527,1814
1528,1830
1529,1843
1530,1855
1531,1867
1532,1882
1533,1855
1534,1851
1535,1870
1536,1875
1537,1879
1538,1890
1539,1890
1540,1888
1541,1711
1542,1890
1543,2176
1544,2288
1545,2032
1546,1941
1547,1871
1548,1759
1549,1866
1550,1843
1551,1730
1552,1706
1553,1803
1554,1858
1555,1853
1556,1812
1557,1803
1558,1830
1559,1854
1560,1865
1561,1876
1562,1867
1563,1858
1564,1856
1565,1860
1566,1854
1567,1845
1568,1852
1569,1862
1570,1873
1571,1887
1572,731
1573,1891
1574,2047
1575,2302
1576,2154
1577,1907
1578,1969
1579,1749
1580,1837
1581,1891
1582,1776
1583,1677
1584,1750
1585,1837
1586,1843
1587,1824
1588,1811
1589,1834
1590,1851
1591,1862
1592,1873
1593,1888
1594,1891
1595,1873
1596,1842
1597,1841
1598,1859
1599,1854
1600,1843
1601,1854
1602,1869
1603,1071
1604,1870
1605,1967
1606,2271
1607,2208
1608,1923
1609,2060
1610,1790
1611,1803
1612,1859
1613,1787
1614,1691
1615,1753
1616,1825
1617,1836
1618,1808
1619,1799
1620,1818
1621,1854
1622,1872
1623,1893
1624,1895
1625,1878
1626,1872
1627,1851
1628,1851
1629,1851
1630,1857
1631,1861
1632,1866
1633,1853
1634,1849
1635,1773
1636,1888
1637,2187
1638,2277
1639,1989
1640,2057
1641,1850
1642,1771
1643,1871
1644,1835
1645,1706
1646,1713
1647,1817
1648,1841
1649,1818
1650,1777
1651,1787
1652,1828
1653,1861
1654,1875
1655,1886
1656,1884
1657,1873
1658,1872
1659,1875
1660,1873
1661,1863
1662,1857
1663,1863
1664,1863
1665,1866
1666,1510
1667,1859
1668,2093
1669,2272
1670,2053
1671,2031
1672,1936
1673,1780
1674,1859
1675,1845
1676,1714
1677,1695
1678,1808
1679,1847
1680,1838
1681,1801
1682,1793
1683,1806
1684,1828
1685,1858
1686,1877
1687,1887
1688,1900
1689,1890
1690,1889
1691,1889
1692,1877
1693,1867
1694,1855
1695,1854
1696,1856
1697,690
1698,1862
1699,1953
1700,2230
1701,2131
1702,1929
1703,2045
1704,1780
1705,1840
1706,1881
1707,1770
1708,1693
1709,1782
1710,1852
1711,1846
1712,1805
1713,1789
1714,1808
1715,1838
1716,1839
1717,1841
1718,1856
1719,1877
1720,1889
1721,1891
1722,1887
1723,1883
1724,1874
1725,1873
1726,1872
1727,1859
1728,1857
1729,1825
1730,1901
1731,2205
1732,2217
1733,1927
1734,2045
1735,1788
1736,1782
1737,1884
1738,1819
1739,1700
1740,1753
1741,1845
1742,1862
1743,1825
1744,1794
1745,1801
1746,1831
1747,1847
1748,1856
1749,1846
1750,1843
1751,1859
1752,1877
1753,1883
1754,1890
1755,1889
1756,1889
1757,1883
1758,1875
1759,1872
1760,1739
1761,1882
1762,2133
1763,2257
1764,1974
1765,2064
1766,1840
1767,1744
1768,1841
1769,1823
1770,1699
1771,1743
1772,1845
1773,1871
1774,1839
1775,1805
1776,1810
1777,1829
1778,1840
1779,1857
1780,1865
1781,1866
1782,1876
1783,1847
1784,1850
1785,1868
1786,1874
1787,1883
1788,1888
1789,1889
1790,1881
1791,840
1792,1872
1793,2015
1794,2256
1795,2073
1796,1969
1797,1991
1798,1771
1799,1831
1800,1835
1801,1714
1802,1698
1803,1811
1804,1872
1805,1858
1806,1819
1807,1808
1808,1830
1809,1850
1810,1856
1811,1866
1812,1865
1813,1867
1814,1872
1815,1871
1816,1849
1817,1841
1818,1851
1819,1866
1820,1876
1821,1875
1822,1873
1823,1872
1824,1871
1825,1869
1826,1863
1827,1855
1828,1850
1829,1854
1830,1859
1831,1856
1832,1853
1833,1841
1834,1842
1835,1855
1836,1866
1837,1873
1838,1884
1839,1885
1840,1872
1841,1865
1842,1862
1843,1858
1844,1854
1845,1851
1846,1851
1847,1855
1848,1855
1849,1846
1850,1839
1851,1843
1852,1859
1853,1869
1854,1876
1855,1877
1856,1873
1857,1855
1858,1855
1859,1874
1860,1875
1861,1869
1862,1858
1863,1830
1864,1838
1865,1851
1866,1839
1867,1840
1868,1854
1869,1866
1870,1873
1871,1877
1872,1874
1873,1873
1874,1868
1875,1866
1876,1866
1877,1856
1878,1856
1879,1853
1880,1856
1881,1856
1882,1846
1883,1833
1884,1839
1885,1851
1886,1859
1887,1872
1888,1882
1889,1879
1890,1875
1891,1872
1892,1872
1893,1859
1894,1842
1895,1841
1896,1850
1897,1857
1898,1856
1899,1844
1900,1840
1901,1853
1902,1869
1903,1871
1904,1872
1905,1878
1906,1873
1907,1872
1908,1875
1909,1877
1910,1862
1911,1846
1912,1835
1913,1845
1914,1846
1915,1840
1916,1829
1917,1834
1918,1842
1919,1867
1920,1874
1921,1880
1922,1874
1923,1871
1924,1863
1925,1861
1926,1859
1927,1854
1928,1847
1929,1845
1930,1851
1931,1853
1932,1851
1933,1845
1934,1849
1935,1856
1936,1868
1937,1875
1938,1878
1939,1875
1940,1872
1941,1870
1942,1857
1943,1851
1944,1851
1945,1845
1946,1843
1947,1849
1948,1854
1949,1851
1950,1843
1951,1856
1952,1861
1953,1863
1954,1872
1955,1874
1956,1872
1957,1871
1958,1869
1959,1870
1960,1862
1961,1851
1962,1852
1963,1858
1964,1856
1965,1858
1966,1840
1967,1840
1968,1857
1969,1869
1970,1872
1971,1875
1972,1863
1973,1861
1974,1856
1975,1857
1976,1857
1977,1854
1978,1856
1979,1856
1980,1852
1981,1855
1982,1851
1983,1842
1984,1850
1985,1866
1986,1872
1987,1872
1988,1870
1989,1866
1990,1862
1991,1858
1992,1861
1993,1860
1994,1856
1995,1853
1996,1852
1997,1856
1998,1868
1999,1861
2000,1841
2001,1833
2002,1845
2003,1858
2004,1867
2005,1867
2006,1860
2007,1868
2008,1869
2009,1865
2010,1856
2011,1847
2012,1845
2013,1856
2014,1855
2015,1855
2016,1844
2017,1844
2018,1853
2019,1863
2020,1871
2021,1872
2022,1872
2023,1872
2024,1865
2025,1866
2026,1861
2027,1856
2028,1851
2029,1853
2030,1856
2031,1857
2032,1843
2033,1836
2034,1843
2035,1856
2036,1858
2037,1863
2038,1867
2039,1871
2040,1869
2041,1863
2042,1862
2043,1861
2044,1855
2045,1850
2046,1856
2047,1856
2048,1856
2049,1848
2050,1843
2051,1854
2052,1863
2053,1867
2054,1872
2055,1872
2056,1871
2057,1870
2058,1869
2059,1863
2060,1862
2061,1853
2062,1841
2063,1849
2064,1857
2065,1857
2066,1842
2067,1837
2068,1856
2069,1867
2070,1874
2071,1877
2072,1872
2073,1861
2074,1858
2075,1862
2076,1863
2077,1858
2078,1860
2079,1858
2080,1859
2081,1858
2082,1847
2083,1840
2084,1847
2085,1859
2086,1866
2087,1872
2088,1872
2089,1873
2090,1871
2091,1870
2092,1861
2093,1856
2094,1851
2095,1846
2096,1850
2097,1857
2098,1858
2099,1851
2100,1842
2101,1856
2102,1866
2103,1869
2104,1872
2105,1872
2106,1871
2107,1866
2108,1863
2109,1863
2110,1858
2111,1854
2112,1850
2113,1856
2114,1856
2115,1856
2116,1845
2117,1842
2118,1853
2119,1859
2120,1867
2121,1871
2122,1867
2123,1863
2124,1862
2125,1856
2126,1854
2127,1849
2128,1845
2129,1856
2130,1858
2131,1858
2132,1850
2133,1842
2134,1847
2135,1859
2136,1865
2137,1872
2138,1872
2139,1872
2140,1871
2141,1868
2142,1869
2143,1860
2144,1856
2145,1853
2146,1856
2147,1857
2148,1857
2149,1847
2150,1845
2151,1855
2152,1857
2153,1865
2154,1867
2155,1869
2156,1862
2157,1859
2158,1866
2159,1863
2160,1858
2161,1856
2162,1855
2163,1856
2164,1857
2165,1857
2166,1850
2167,1851
2168,1857
2169,1867
2170,1872
2171,1874
2172,1872
2173,1869
2174,1866
2175,1867
2176,1862
2177,1856
2178,1855
2179,1856
2180,1856
2181,1857
2182,1846
2183,1840
2184,1842
2185,1858
2186,1860
2187,1872
2188,1872
2189,1872
2190,1871
2191,1863
2192,1866
2193,1860
2194,1856
2195,1854
2196,1856
2197,1856
2198,1859
2199,1851
2200,1846
2201,1858
2202,1862
2203,1872
2204,1872
2205,1872
2206,1871
2207,1868
2208,1869
2209,1862
2210,1857
2211,1856
2212,1849
2213,1851
2214,1851
2215,1850
2216,1837
2217,1847
2218,1856
2219,1866
2220,1872
2221,1872
2222,1872
2223,1870
2224,1865
2225,1867
2226,1862
2227,1856
2228,1853
2229,1856
2230,1859
2231,1862
2232,1855
2233,1842
2234,1854
2235,1861
2236,1868
2237,1872
2238,1872
2239,1872
2240,1867
2241,1868
2242,1859
2243,1855
2244,1850
2245,1847
2246,1846
2247,1851
2248,1852
2249,1847
2250,1845
2251,1857
2252,1866
2253,1872
2254,1872
2255,1872
2256,1871
2257,1865
2258,1863
2259,1864
2260,1857
2261,1857
2262,1856
2263,1859
2264,1857
2265,1856
2266,1844
2267,1847
2268,1859
2269,1869
2270,1872
2271,1872
2272,1863
2273,1863
2274,1857
2275,1860
2276,1853
2277,1850
2278,1855
2279,1857
2280,1858
2281,1858
2282,1852
2283,1843
2284,1855
2285,1863
2286,1872
2287,1872
2288,1872
2289,1872
2290,1867
2291,1861
2292,1863
2293,1859
2294,1855
2295,1853
2296,1857
2297,1858
2298,1857
2299,1849
2300,1847
2301,1858
2302,1858
2303,1862
2304,1867
2305,1867
2306,1860
2307,1869
2308,1867
2309,1862
2310,1857
2311,1856
2312,1857
2313,1858
2314,1857
2315,1856
2316,1846
2317,1846
2318,1854
2319,1865
2320,1872
2321,1873
2322,1872
2323,1867
2324,1865
2325,1865
2326,1862
2327,1857
2328,1855
2329,1854
2330,1856
2331,1861
2332,1846
2333,1840
2334,1845
2335,1856
2336,1857
2337,1863
2338,1865
2339,1872
2340,1868
2341,1867
2342,1863
2343,1858
2344,1857
2345,1856
2346,1856
2347,1857
2348,1857
2349,1847
2350,1845
2351,1856
2352,1865
2353,1872
2354,1872
2355,1872
2356,1871
2357,1867
2358,1863
2359,1863
2360,1857
2361,1856
2362,1849
2363,1852
2364,1850
2365,1850
2366,1840
2367,1841
2368,1860
2369,1869
2370,1870
2371,1872
2372,1872
2373,1870
2374,1865
2375,1865
2376,1860
2377,1856
2378,1855
2379,1856
2380,1856
2381,1859
2382,1850
2383,1845
2384,1854
2385,1862
2386,1871
2387,1872
2388,1872
2389,1872
2390,1868
2391,1863
2392,1857
2393,1855
2394,1847
2395,1845
2396,1851
2397,1856
2398,1857
2399,1842
2400,1843
2401,1857
2402,1863
2403,1869
2404,1873
2405,1872
2406,1869
2407,1868
2408,1866
2409,1859
2410,1853
2411,1851
2412,1855
2413,1856
2414,1856
2415,1853
2416,1845
2417,1853
2418,1856
2419,1861
2420,1863
2421,1866
2422,1865
2423,1861
2424,1858
2425,1856
2426,1855
2427,1847
2428,1845
2429,1856
2430,1856
2431,1857
2432,1851
2433,1845
2434,1853
2435,1863
2436,1870
2437,1871
2438,1871
2439,1869
2440,1868
2441,1863
2442,1862
2443,1857
2444,1857
2445,1856
2446,1858
2447,1856
2448,1858
2449,1847
2450,1845
2451,1853
2452,1859
2453,1866
2454,1869
2455,1866
2456,1860
2457,1856
2458,1860
2459,1860
2460,1857
2461,1857
2462,1856
2463,1859
2464,1857
2465,1853
2466,1847
2467,1851
2468,1861
2469,1866
2470,1872
2471,1872
2472,1870
2473,1869
2474,1866
2475,1865
2476,1861
2477,1857
2478,1856
2479,1856
2480,1856
2481,1860
2482,1843
2483,1839
2484,1847
2485,1856
2486,1862
2487,1872
2488,1872
2489,1871
2490,1866
2491,1865
2492,1866
2493,1861
2494,1859
2495,1856
2496,1856
2497,1856
2498,1856
2499,1844
2500,1848
2501,1857
2502,1865
2503,1871
2504,1872
2505,1872
2506,1870
2507,1866
2508,1867
2509,1861
2510,1856
2511,1856
2512,1847
2513,1852
2514,1853
2515,1847
2516,1840
2517,1849
2518,1858
2519,1867
2520,1872
2521,1872
2522,1871
2523,1867
2524,1864
2525,1863
2526,1858
2527,1856
2528,1854
2529,1856
2530,1857
2531,1857
2532,1851
2533,1847
2534,1856
2535,1863
2536,1869
2537,1873
2538,1872
2539,1869
2540,1867
2541,1865
2542,1857
2543,1854
2544,1850
2545,1847
2546,1850
2547,1849
2548,1849
2549,1849
2550,1849
2551,1855
2552,1869
2553,1874
2554,1875
2555,1872
2556,1871
2557,1866
2558,1863
2559,1865
2560,1858
2561,1856
2562,1856
2563,1856
2564,1857
2565,1856
2566,1845
2567,1850
2568,1861
2569,1867
2570,1872
2571,1872
2572,1863
2573,1863
2574,1857
2575,1856
2576,1855
2577,1847
2578,1846
2579,1855
2580,1856
2581,1857
2582,1851
2583,1843
2584,1853
2585,1861
2586,1869
2587,1873
2588,1873
2589,1871
2590,1869
2591,1866
2592,1865
2593,1860
2594,1855
2595,1854
2596,1858
2597,1857
2598,1858
2599,1850
2600,1846
2601,1857
2602,1857
2603,1868
2604,1868
2605,1866
2606,1859
2607,1863
2608,1866
2609,1862
2610,1857
2611,1854
2612,1853
2613,1856
2614,1856
2615,1851
2616,1845
2617,1850
2618,1856
2619,1869
2620,1871
2621,1872
2622,1870
2623,1867
2624,1866
2625,1863
2626,1857
2627,1855
2628,1851
2629,1858
2630,1860
2631,1857
2632,1843
2633,1840
2634,1851
2635,1857
2636,1859
2637,1867
2638,1866
2639,1870
2640,1866
2641,1866
2642,1867
2643,1859
2644,1855
2645,1855
2646,1857
2647,1859
2648,1858
2649,1849
2650,1850
2651,1859
2652,1866
2653,1872
2654,1872
2655,1872
2656,1869
2657,1867
2658,1867
2659,1863
2660,1859
2661,1855
2662,1848
2663,1854
2664,1855
2665,1849
2666,1839
2667,1842
2668,1860
2669,1870
2670,1872
2671,1872
2672,1872
2673,1870
2674,1863
2675,1862
2676,1859
2677,1858
2678,1855
2679,1855
2680,1859
2681,1859
2682,1849
2683,1845
2684,1856
2685,1864
2686,1872
2687,1872
2688,1873
2689,1869
2690,1867
2691,1866
2692,1856
2693,1852
2694,1851
2695,1849
2696,1851
2697,1857
2698,1857
2699,1849
2700,1849
2701,1857
2702,1867
2703,1870
2704,1871
2705,1872
2706,1869
2707,1863
2708,1865
2709,1865
2710,1856
2711,1855
2712,1855
2713,1858
2714,1858
2715,1855
2716,1843
2717,1852
2718,1856
2719,1861
2720,1863
2721,1867
2722,1863
2723,1859
2724,1858
2725,1857
2726,1853
2727,1850
2728,1852
2729,1856
2730,1857
2731,1859
2732,1853
2733,1844
2734,1855
2735,1867
2736,1872
2737,1872
2738,1872
2739,1870
2740,1866
2741,1867
2742,1867
2743,1858
2744,1856
2745,1856
2746,1859
2747,1859
2748,1858
2749,1847
2750,1850
2751,1855
2752,1859
2753,1866
2754,1871
2755,1866
2756,1858
2757,1856
2758,1866
2759,1865
2760,1857
2761,1855
2762,1855
2763,1861
2764,1858
2765,1853
2766,1846
2767,1849
2768,1861
2769,1869
2770,1872
2771,1872
2772,1872
2773,1871
2774,1863
2775,1867
2776,1863
2777,1859
2778,1855
2779,1857
2780,1857
2781,1859
2782,1844
2783,1840
2784,1850
2785,1859
2786,1861
2787,1874
2788,1872
2789,1870
2790,1864
2791,1867
2792,1866
2793,1863
2794,1856
2795,1855
2796,1859
2797,1856
2798,1856
2799,1847
2800,1850
2801,1857
2802,1867
2803,1872
2804,1872
2805,1872
2806,1867
2807,1863
2808,1865
2809,1861
2810,1858
2811,1856
2812,1853
2813,1853
2814,1853
2815,1845
2816,1837
2817,1853
2818,1855
2819,1867
2820,1872
2821,1872
2822,1872
2823,786
2824,1904
2825,2047
2826,2346
2827,2342
2828,2218
2829,1921
2830,1680
2831,1728
2832,1741
2833,1872
2834,1970
2835,1920
2836,1747
2837,1694
2838,1703
2839,1745
2840,1792
2841,1797
2842,1777
2843,1771
2844,1776
2845,1792
2846,1813
2847,1830
2848,1854
2849,1856
2850,1857
2851,1861
2852,1867
2853,1862
2854,1496
2855,1933
2856,2000
2857,2295
2858,2309
2859,2178
2860,1851
2861,1695
2862,1740
2863,1808
2864,1903
2865,1923
2866,1770
2867,1657
2868,1672
2869,1754
2870,1831
2871,1851
2872,1824
2873,1809
2874,1829
2875,1849
2876,1855
2877,1850
2878,1855
2879,1851
2880,1858
2881,1863
2882,1855
2883,1846
2884,1854
2885,1867
2886,1872
2887,1936
2888,2207
2889,2288
2890,2166
2891,1855
2892,1733
2893,1811
2894,1861
2895,1939
2896,1914
2897,1776
2898,1706
2899,1727
2900,1801
2901,1845
2902,1829
2903,1807
2904,1807
2905,1825
2906,1840
2907,1862
2908,1872
2909,1871
2910,1863
2911,1856
2912,1862
2913,1864
2914,1866
2915,1858
2916,1852
2917,1136
2918,1909
2919,2062
2920,2247
2921,2169
2922,1878
2923,1833
2924,1872
2925,1885
2926,1957
2927,1904
2928,1771
2929,1694
2930,1729
2931,1809
2932,1814
2933,1799
2934,1790
2935,1805
2936,1827
2937,1847
2938,1863
2939,1865
2940,1867
2941,1871
2942,1868
2943,1863
2944,1866
2945,1866
2946,1867
2947,1865
2948,1103
2949,1913
2950,1946
2951,2255
2952,2261
2953,1967
2954,1900
2955,1840
2956,1847
2957,1920
2958,1872
2959,1744
2960,1668
2961,1730
2962,1807
2963,1826
2964,1815
2965,1789
2966,1785
2967,1815
2968,1855
2969,1868
2970,1873
2971,1887
2972,1887
2973,1879
2974,1877
2975,1872
2976,1863
2977,1855
2978,1849
2979,1860
2980,1911
2981,1894
2982,2206
2983,2270
2984,1979
2985,1942
2986,1871
2987,1840
2988,1931
2989,1875
2990,1717
2991,1650
2992,1741
2993,1817
2994,1826
2995,1812
2996,1793
2997,1806
2998,1818
2999,1826
3000,1829
3001,1854
3002,1883
3003,1893
3004,1894
3005,1889
3006,1884
3007,1880
3008,1879
3009,1876
3010,1872
3011,1632
3012,1902
3013,2115
3014,2373
3015,2117
3016,1942
3017,1869
3018,1761
3019,1901
3020,1854
3021,1687
3022,1606
3023,1722
3024,1806
3025,1824
3026,1819
3027,1802
3028,1804
3029,1825
3030,1840
3031,1851
3032,1851
3033,1854
3034,1872
3035,1881
3036,1886
3037,1891
3038,1889
3039,1883
3040,1878
3041,1877
3042,723
3043,1924
3044,2002
3045,2429
3046,2297
3047,1993
3048,1895
3049,1683
3050,1839
3051,1824
3052,1665
3053,1572
3054,1710
3055,1809
3056,1831
3057,1834
3058,1822
3059,1815
3060,1819
3061,1831
3062,1845
3063,1866
3064,1887
3065,1875
3066,1845
3067,1851
3068,1872
3069,1887
3070,1887
3071,1892
3072,1889
3073,1822
3074,1939
3075,1920
3076,2357
3077,2367
3078,2019
3079,1984
3080,1701
3081,1841
3082,1807
3083,1634
3084,1535
3085,1689
3086,1806
3087,1846
3088,1849
3089,1837
3090,1823
3091,1830
3092,1844
3093,1856
3094,1851
3095,1857
3096,1873
3097,1882
3098,1875
3099,1865
3100,1862
3101,1872
3102,1875
3103,1886
3104,1887
3105,1872
3106,1904
3107,2241
3108,2429
3109,2045
3110,2075
3111,1712
3112,1827
3113,1840
3114,1674
3115,1525
3116,1648
3117,1789
3118,1830
3119,1851
3120,1847
3121,1827
3122,1829
3123,1846
3124,1872
3125,1863
3126,1854
3127,1853
3128,1857
3129,1871
3130,1879
3131,1873
3132,1861
3133,1858
3134,1870
3135,1881
3136,1366
3137,1930
3138,2104
3139,2417
3140,2069
3141,2153
3142,1793
3143,1834
3144,1844
3145,1705
3146,1535
3147,1666
3148,1790
3149,1808
3150,1829
3151,1838
3152,1819
3153,1829
3154,1847
3155,1863
3156,1872
3157,1877
3158,1873
3159,1875
3160,1873
3161,1870
3162,1867
3163,1863
3164,1869
3165,1861
3166,1854
3167,1040
3168,1950
3169,1931
3170,2362
3171,2150
3172,2134
3173,1917
3174,1808
3175,1878
3176,1749
3177,1575
3178,1648
3179,1791
3180,1840
3181,1845
3182,1827
3183,1803
3184,1807
3185,1830
3186,1867
3187,1904
3188,1888
3189,1872
3190,1855
3191,1866
3192,1867
3193,1866
3194,1863
3195,1859
3196,1869
3197,1872
3198,1866
3199,1940
3200,1859
3201,2251
3202,2218
3203,2064
3204,2043
3205,1798
3206,1910
3207,1805
3208,1600
3209,1637
3210,1777
3211,1825
3212,1840
3213,1840
3214,1823
3215,1797
3216,1799
3217,1830
3218,1858
3219,1872
3220,1888
3221,1887
3222,1886
3223,1867
3224,1869
3225,1872
3226,1871
3227,1870
3228,1867
3229,1872
3230,1687
3231,1898
3232,2090
3233,2319
3234,1981
3235,2174
3236,1759
3237,1878
3238,1856
3239,1658
3240,1609
3241,1759
3242,1835
3243,1845
3244,1846
3245,1831
3246,1808
3247,1808
3248,1820
3249,1835
3250,1851
3251,1863
3252,1872
3253,1887
3254,1891
3255,1885
3256,1872
3257,1872
3258,1879
3259,1872
3260,1867
3261,820
3262,1927
3263,1993
3264,2368
3265,2008
3266,2179
3267,1781
3268,1851
3269,1857
3270,1689
3271,1602
3272,1744
3273,1834
3274,1854
3275,1855
3276,1839
3277,1808
3278,1801
3279,1821
3280,1843
3281,1853
3282,1842
3283,1846
3284,1869
3285,1887
3286,1891
3287,1889
3288,1886
3289,1883
3290,1878
3291,1877
3292,1371
3293,1955
3294,1891
3295,2333
3296,2140
3297,2164
3298,1877
3299,1798
3300,1847
3301,1717
3302,1569
3303,1706
3304,1826
3305,1856
3306,1861
3307,1846
3308,1822
3309,1808
3310,1814
3311,1827
3312,1847
3313,1867
3314,1872
3315,1870
3316,1860
3317,1861
3318,1861
3319,1866
3320,1872
3321,1878
3322,1875
3323,1871
3324,1885
3325,1891
3326,2206
3327,2309
3328,2032
3329,2064
3330,1769
3331,1856
3332,1775
3333,1569
3334,1635
3335,1791
3336,1843
3337,1863
3338,1859
3339,1840
3340,1818
3341,1824
3342,1841
3343,1884
3344,1877
3345,1867
3346,1841
3347,1863
3348,1869
3349,1847
3350,1841
3351,1859
3352,1868
3353,1875
3354,1878
3355,1430
3356,1922
3357,2096
3358,2400
3359,2025
3360,2199
3361,1759
3362,1841
3363,1795
3364,1600
3365,1597
3366,1744
3367,1826
3368,1850
3369,1867
3370,1851
3371,1827
3372,1823
3373,1838
3374,1857
3375,1863
3376,1863
3377,1872
3378,1868
3379,1872
3380,1872
3381,1865
3382,1843
3383,1847
3384,1861
3385,1872
3386,981
3387,1968
3388,1939
3389,2378
3390,2097
3391,2238
3392,1859
3393,1827
3394,1837
3395,1661
3396,1562
3397,1728
3398,1809
3399,1830
3400,1842
3401,1843
3402,1827
3403,1826
3404,1843
3405,1859
3406,1867
3407,1870
3408,1874
3409,1871
3410,1863
3411,1863
3412,1865
3413,1859
3414,1860
3415,1850
3416,1844
3417,1863
3418,1925
3419,1887
3420,2289
3421,2246
3422,2157
3423,2007
3424,1825
3425,1840
3426,1713
3427,1535
3428,1680
3429,1808
3430,1840
3431,1841
3432,1826
3433,1810
3434,1812
3435,1832
3436,1847
3437,1867
3438,1885
3439,1895
3440,1885
3441,1875
3442,1871
3443,1851
3444,1844
3445,1853
3446,1857
3447,1860
3448,1857
3449,1850
3450,1861
3451,1872
3452,1872
3453,1872
3454,1877
3455,1876
3456,1873
3457,1872
3458,1871
3459,1861
3460,1859
3461,1856
3462,1856
3463,1857
3464,1859
3465,1847
3466,1845
3467,1856
3468,1862
3469,1872
3470,1875
3471,1873
3472,1865
3473,1858
3474,1859
3475,1860
3476,1851
3477,1847
3478,1853
3479,1856
3480,1856
3481,1855
3482,1843
3483,1845
3484,1858
3485,1872
3486,1872
3487,1879
3488,1875
3489,1872
3490,1870
3491,1866
3492,1862
3493,1856
3494,1852
3495,1855
3496,1857
3497,1859
3498,1853
3499,1843
3500,1851
3501,1861
3502,1861
3503,1867
3504,1870
3505,1867
3506,1859
3507,1869
3508,1868
3509,1862
3510,1855
3511,1851
3512,1855
3513,1856
3514,1856
3515,1846
3516,1841
3517,1854
3518,1862
3519,1872
3520,1873
3521,1873
3522,1871
3523,1867
3524,1868
3525,1866
3526,1857
3527,1855
3528,1850
3529,1859
3530,1859
3531,1855
3532,1839
3533,1840
3534,1853
3535,1858
3536,1867
3537,1866
3538,1872
3539,1869
3540,1867
3541,1866
3542,1862
3543,1856
3544,1847
3545,1853
3546,1856
3547,1857
3548,1850
3549,1841
3550,1853
3551,1863
3552,1861
3553,1872
3554,1873
3555,1871
3556,1866
3557,1863
3558,1865
3559,1861
3560,1855
3561,1851
3562,1847
3563,1851
3564,1850
3565,1840
3566,1839
3567,1846
3568,1855
3569,1872
3570,1873
3571,1872
3572,1871
3573,1869
3574,1865
3575,1864
3576,1856
3577,1854
3578,1853
3579,1857
3580,1857
3581,1850
3582,1842
3583,1846
3584,1858
3585,1866
3586,1872
3587,1875
3588,1872
3589,1870
3590,1867
3591,1862
3592,1855
3593,1851
3594,1846
3595,1851
3596,1849
3597,1857
3598,1851
3599,1842
3600,1851
3601,1861
3602,1868
3603,1872
3604,1872
3605,1872
3606,1867
3607,1865
3608,1866
3609,1859
3610,1855
3611,1855
3612,1857
3613,1856
3614,1856
3615,1845
3616,1840
3617,1851
3618,1851
3619,1856
3620,1863
3621,1872
3622,1881
3623,1878
3624,1878
3625,1865
3626,1854
3627,1840
3628,1846
3629,1854
3630,1856
3631,1856
3632,1849
3633,1853
3634,1862
3635,1869
3636,1872
3637,1875
3638,1878
3639,1873
3640,1870
3641,1867
3642,1858
3643,1855
3644,1855
3645,1857
3646,1860
3647,1859
3648,1854
3649,1842
3650,1855
3651,1855
3652,1856
3653,1865
3654,1866
3655,1867
3656,1862
3657,1856
3658,1866
3659,1862
3660,1859
3661,1856
3662,1862
3663,1856
3664,1859
3665,1849
3666,1846
3667,1858
3668,1867
3669,1872
3670,1873
3671,1872
3672,1872
3673,1869
3674,1867
3675,1866
3676,1861
3677,1857
3678,1857
3679,1856
3680,1857
3681,1853
3682,1837
3683,1840
3684,1855
3685,1863
3686,1872
3687,1878
3688,1875
3689,1871
3690,1869
3691,1870
3692,1863
3693,1858
3694,1856
3695,1857
3696,1857
3697,1861
3698,1856
3699,1845
3700,1856
3701,1872
3702,1875
3703,1875
3704,1872
3705,1869
3706,1869
3707,1867
3708,1863
3709,1862
3710,1861
3711,1856
3712,1852
3713,1854
3714,1857
3715,1845
3716,1841
3717,1856
3718,1860
3719,1873
3720,1875
3721,1872
3722,1872
3723,1870
3724,1868
3725,1868
3726,1863
3727,1857
3728,1857
3729,1862
3730,1861
3731,1858
3732,1845
3733,1850
3734,1862
3735,1870
3736,1872
3737,1876
3738,1873
3739,1872
3740,1867
3741,1869
3742,1859
3743,1855
3744,1847
3745,1853
3746,1856
3747,1856
3748,1851
3749,1847
3750,1857
3751,1865
3752,1871
3753,1872
3754,1874
3755,1874
3756,1871
3757,1869
3758,1868
3759,1865
3760,1861
3761,1856
3762,1857
3763,1858
3764,1859
3765,1851
3766,1847
3767,1862
3768,1867
3769,1874
3770,1874
3771,1874
3772,1869
3773,1868
3774,1862
3775,1861
3776,1856
3777,1848
3778,1856
3779,1860
3780,1858
3781,1856
3782,1844
3783,1852
3784,1863
3785,1871
3786,1872
3787,1874
3788,1872
3789,1870
3790,1867
3791,1869
3792,1865
3793,1859
3794,1856
3795,1859
3796,1859
3797,1859
3798,1851
3799,1846
3800,1856
3801,1867
3802,1865
3803,1871
3804,1872
3805,1867
3806,1861
3807,1865
3808,1866
3809,1861
3810,1857
3811,1855
3812,1858
3813,1859
3814,1859
3815,1845
3816,1846
3817,1858
3818,1862
3819,1872
3820,1875
3821,1872
3822,1871
3823,1868
3824,1867
3825,1867
3826,1857
3827,1855
3828,1857
3829,1858
3830,1861
3831,1855
3832,1841
3833,1843
3834,1856
3835,1866
3836,1871
3837,1871
3838,1872
3839,1871
3840,1868
3841,1867
3842,1865
3843,1861
3844,1856
3845,1855
3846,1856
3847,1858
3848,1849
3849,1847
3850,1856
3851,1863
3852,1872
3853,1875
3854,1874
3855,1870
3856,1867
3857,1870
3858,1864
3859,1862
3860,1858
3861,1855
3862,1855
3863,1852
3864,1853
3865,1841
3866,1842
3867,1853
3868,1867
3869,1872
3870,1874
3871,1872
3872,1871
3873,1869
3874,1867
3875,1862
3876,1859
3877,1856
3878,1856
3879,1856
3880,1859
3881,1855
3882,1850
3883,1856
3884,1866
3885,1870
3886,1874
3887,1873
3888,1872
3889,1868
3890,1866
3891,1870
3892,1856
3893,1855
3894,1852
3895,1856
3896,1854
3897,1859
3898,1849
3899,1841
3900,1856
3901,1864
3902,1872
3903,1874
3904,1878
3905,1875
3906,1867
3907,1862
3908,1863
3909,1858
3910,1857
3911,1856
3912,1856
3913,1856
3914,1857
3915,1847
3916,1847
3917,1862
3918,1865
3919,1869
3920,1870
3921,1869
3922,1865
3923,1862
3924,1859
3925,1859
3926,1855
3927,1854
3928,1857
3929,1857
3930,1861
3931,1854
3932,1845
3933,1852
3934,1867
3935,1870
3936,1872
3937,1874
3938,1872
3939,1871
3940,1867
3941,1868
3942,1866
3943,1862
3944,1856
3945,1861
3946,1859
3947,1862
3948,1851
3949,1846
3950,1856
3951,1864
3952,1869
3953,1870
3954,1870
3955,1867
3956,1865
3957,1859
3958,1867
3959,1863
3960,1858
3961,1855
3962,1859
3963,1859
3964,1858
3965,1853
3966,1849
3967,1861
3968,1867
3969,1872
3970,1873
3971,1872
3972,1870
3973,1867
3974,1868
3975,1866
3976,1859
3977,1857
3978,1858
3979,1858
3980,1861
3981,1854
3982,1840
3983,1847
3984,1859
3985,1866
3986,1870
3987,1873
3988,1872
3989,1872
3990,1869
3991,1870
3992,1863
3993,1857
3994,1853
3995,1858
3996,1858
3997,1862
3998,1851
3999,1845
4000,1856
4001,1868
4002,1873
4003,1873
4004,1872
4005,1870
4006,1870
4007,1869
4008,1866
4009,1861
4010,1856
4011,1855
4012,1851
4013,1851
4014,1853
4015,1840
4016,1842
4017,1859
4018,1862
4019,1873
4020,1872
4021,1872
4022,1872
4023,1870
4024,1869
4025,1865
4026,1860
4027,1856
4028,1858
4029,1859
4030,1858
4031,1854
4032,1846
4033,1855
4034,1865
4035,1872
4036,1873
4037,1873
4038,1872
4039,1870
4040,1867
4041,1866
4042,1857
4043,1855
4044,1850
4045,1855
4046,1855
4047,1852
4048,1849
4049,1847
4050,1859
4051,1861
4052,1872
4053,1873
4054,1873
4055,1872
4056,1869
4057,1867
4058,1863
4059,1860
4060,1859
4061,1857
4062,1861
4063,1858
4064,1858
4065,1851
4066,1851
4067,1861
4068,1869
4069,1872
4070,1875
4071,1872
4072,1867
4073,1863
4074,1862
4075,1859
4076,1854
4077,1849
4078,1857
4079,1858
4080,1858
4081,1853
4082,1843
4083,1854
4084,1863
4085,1872
4086,1873
4087,1873
4088,1871
4089,1870
4090,1867
4091,1867
4092,1862
4093,1860
4094,1856
4095,1858
4096,1859
4097,1858
4098,1851
4099,1846
4100,1859
4101,1865
4102,1867
4103,1869
4104,1870
4105,1867
4106,1863
4107,1863
4108,1869
4109,1859
4110,1857
4111,1854
4112,1858
4113,1856
4114,1856
4115,1847
4116,1849
4117,1859
4118,1865
4119,1872
4120,1873
4121,1873
4122,1871
4123,1870
4124,1866
4125,1863
4126,1860
4127,1857
4128,1858
4129,1857
4130,1857
4131,1851
4132,1840
4133,1848
4134,1856
4135,1863
4136,1872
4137,1868
4138,1872
4139,1872
4140,1869
4141,1866
4142,1865
4143,1858
4144,1854
4145,1859
4146,1857
4147,1859
4148,1845
4149,1849
4150,1857
4151,1861
4152,1872
4153,1873
4154,1872
4155,1872
4156,1869
4157,1868
4158,1866
4159,1861
4160,1856
4161,1856
4162,1853
4163,1854
4164,1850
4165,1843
4166,1844
4167,1853
4168,1871
4169,1873
4170,1875
4171,1873
4172,1872
4173,1866
4174,1867
4175,1866
4176,1857
4177,1856
4178,1858
4179,1859
4180,1861
4181,1851
4182,1841
4183,1855
4184,1862
4185,1870
4186,1875
4187,1872
4188,1872
4189,1872
4190,1866
4191,1865
4192,1857
4193,1854
4194,1852
4195,1853
4196,1854
4197,1858
4198,1851
4199,1845
4200,1859
4201,1869
4202,1872
4203,1874
4204,1872
4205,1872
4206,1870
4207,1865
4208,1862
4209,1859
4210,1856
4211,1855
4212,1857
4213,1859
4214,1858
4215,1846
4216,1850
4217,1859
4218,1860
4219,1866
4220,1867
4221,1866
4222,1865
4223,1859
4224,1861
4225,1858
4226,1854
4227,1849
4228,1855
4229,1857
4230,1860
4231,1853
4232,1843
4233,1857
4234,1862
4235,1872
4236,1874
4237,1872
4238,1873
4239,1870
4240,1870
4241,1866
4242,1867
4243,1858
4244,1857
4245,1858
4246,1857
4247,1859
4248,1851
4249,1846
4250,1858
4251,1856
4252,1866
4253,1870
4254,1870
4255,1866
4256,1863
4257,1860
4258,1869
4259,1861
4260,1857
4261,1857
4262,1856
4263,1861
4264,1856
4265,1845
4266,1851
4267,1862
4268,1871
4269,1872
4270,1873
4271,1872
4272,1871
4273,1867
4274,1869
4275,1867
4276,1857
4277,1856
4278,1857
4279,1857
4280,1859
4281,1853
4282,1840
4283,1851
4284,1858
4285,1863
4286,1869
4287,1874
4288,1872
4289,1869
4290,1867
4291,1866
4292,1862
4293,1860
4294,1856
4295,1858
4296,1860
4297,1858
4298,1849
4299,1847
4300,1860
4301,1866
4302,1874
4303,1872
4304,1873
4305,1871
4306,1868
4307,1865
4308,1863
4309,1859
4310,1856
4311,1856
4312,1854
4313,1855
4314,1851
4315,1840
4316,1845
4317,1861
4318,1865
4319,1871
4320,1872
4321,1872
4322,1870
4323,1867
4324,1866
4325,1863
4326,1859
4327,1856
4328,1857
4329,1856
4330,1858
4331,1851
4332,1845
4333,1855
4334,1863
4335,1869
4336,1872
4337,1873
4338,1872
4339,1868
4340,1869
4341,1867
4342,1854
4343,1850
4344,1850
4345,1851
4346,1854
4347,1853
4348,1846
4349,1846
4350,1859
4351,1863
4352,1872
4353,1875
4354,1872
4355,1870
4356,1867
4357,1864
4358,1862
4359,1861
4360,1858
4361,1857
4362,1858
4363,1858
4364,1856
4365,1847
4366,1852
4367,1862
4368,1871
4369,1872
4370,1873
4371,1872
4372,1862
4373,1858
4374,1857
4375,1859
4376,1855
4377,1847
4378,1858
4379,1858
4380,1859
4381,1853
4382,1846
4383,1857
4384,1866
4385,1871
4386,1872
4387,1872
4388,1870
4389,1865
4390,1867
4391,1867
4392,1862
4393,1859
4394,1856
4395,1859
4396,1861
4397,1859
4398,1850
4399,1847
4400,1862
4401,1863
4402,1861
4403,1869
4404,1871
4405,1866
4406,1861
4407,1865
4408,1862
4409,1859
4410,1857
4411,1857
4412,1859
4413,1862
4414,1856
4415,1844
4416,1847
4417,1857
4418,1859
4419,1872
4420,1877
4421,1874
4422,1872
4423,1872
4424,1871
4425,1866
4426,1860
4427,1854
4428,1853
4429,1851
4430,1855
4431,1848
4432,1842
4433,1853
4434,1861
4435,1865
4436,1870
4437,1869
4438,1867
4439,1867
4440,1867
4441,1869
4442,1860
4443,1857
4444,1856
4445,1857
4446,1859
4447,1857
4448,1851
4449,1847
4450,1787
4451,1911
4452,2221
4453,2366
4454,2277
4455,2042
4456,1712
4457,1744
4458,1740
4459,1885
4460,1990
4461,1915
4462,1778
4463,1705
4464,1713
4465,1776
4466,1818
4467,1823
4468,1821
4469,1827
4470,1832
4471,1819
4472,1808
4473,1821
4474,1825
4475,1838
4476,1844
4477,1852
4478,1856
4479,1857
4480,1855
4481,1424
4482,1882
4483,2167
4484,2359
4485,2277
4486,2005
4487,1730
4488,1749
4489,1759
4490,1904
4491,1931
4492,1845
4493,1734
4494,1687
4495,1763
4496,1831
4497,1847
4498,1822
4499,1803
4500,1806
4501,1824
4502,1840
4503,1850
4504,1855
4505,1862
4506,1863
4507,1871
4508,1872
4509,1866
4510,1859
4511,1855
4512,645
4513,1877
4514,2022
4515,2255
4516,2183
4517,1958
4518,1808
4519,1814
4520,1810
4521,1933
4522,1927
4523,1855
4524,1762
4525,1759
4526,1819
4527,1847
4528,1850
4529,1833
4530,1807
4531,1790
4532,1805
4533,1829
4534,1845
4535,1866
4536,1873
4537,1877
4538,1872
4539,1872
4540,1869
4541,1867
4542,1861
4543,1859
4544,1855
4545,1903
4546,2129
4547,2160
4548,1950
4549,1904
4550,1875
4551,1831
4552,1915
4553,1942
4554,1879
4555,1786
4556,1806
4557,1857
4558,1866
4559,1853
4560,1827
4561,1799
4562,1794
4563,1811
4564,1824
4565,1827
4566,1852
4567,1865
4568,1846
4569,1862
4570,1879
4571,1873
4572,1868
4573,1871
4574,1873
4575,1712
4576,1877
4577,2010
4578,2110
4579,1971
4580,2026
4581,1923
4582,1865
4583,1909
4584,1922
4585,1864
4586,1783
4587,1819
4588,1872
4589,1881
4590,1871
4591,1839
4592,1797
4593,1789
4594,1797
4595,1810
4596,1828
4597,1840
4598,1840
4599,1845
4600,1859
4601,1872
4602,1878
4603,1874
4604,1873
4605,1875
4606,834
4607,1903
4608,1987
4609,2203
4610,2047
4611,2001
4612,1920
4613,1809
4614,1908
4615,1888
4616,1799
4617,1715
4618,1776
4619,1849
4620,1865
4621,1860
4622,1841
4623,1808
4624,1799
4625,1814
4626,1837
4627,1845
4628,1859
4629,1853
4630,1853
4631,1839
4632,1826
4633,1847
4634,1866
4635,1878
4636,1883
4637,1424
4638,1894
4639,1900
4640,2201
4641,2157
4642,1990
4643,2023
4644,1751
4645,1893
4646,1904
4647,1823
4648,1712
4649,1745
4650,1824
4651,1845
4652,1863
4653,1851
4654,1822
4655,1808
4656,1825
4657,1849
4658,1872
4659,1872
4660,1857
4661,1854
4662,1850
4663,1851
4664,1840
4665,1836
4666,1845
4667,1866
4668,1875
4669,1845
4670,1892
4671,2139
4672,2191
4673,1991
4674,2124
4675,1781
4676,1872
4677,1901
4678,1840
4679,1723
4680,1749
4681,1813
4682,1839
4683,1854
4684,1847
4685,1825
4686,1815
4687,1825
4688,1845
4689,1867
4690,1863
4691,1869
4692,1840
4693,1840
4694,1855
4695,1859
4696,1859
4697,1859
4698,1855
4699,1856
4700,1469
4701,1905
4702,2012
4703,2176
4704,1969
4705,2165
4706,1842
4707,1890
4708,1939
4709,1886
4710,1750
4711,1751
4712,1823
4713,1855
4714,1856
4715,1837
4716,1808
4717,1794
4718,1807
4719,1840
4720,1856
4721,1869
4722,1871
4723,1865
4724,1861
4725,1850
4726,1851
4727,1853
4728,1863
4729,1865
4730,1866
4731,622
4732,1897
4733,1901
4734,2149
4735,1997
4736,2140
4737,1938
4738,1846
4739,1942
4740,1920
4741,1790
4742,1750
4743,1811
4744,1856
4745,1862
4746,1851
4747,1821
4748,1783
4749,1790
4750,1825
4751,1849
4752,1872
4753,1882
4754,1873
4755,1863
4756,1856
4757,1856
4758,1851
4759,1850
4760,1853
4761,1861
4762,1801
4763,1897
4764,1855
4765,2109
4766,2055
4767,2006
4768,2033
4769,1810
4770,1971
4771,1953
4772,1812
4773,1742
4774,1805
4775,1855
4776,1861
4777,1853
4778,1831
4779,1795
4780,1798
4781,1803
4782,1821
4783,1847
4784,1871
4785,1877
4786,1876
4787,1875
4788,1870
4789,1866
4790,1867
4791,1867
4792,1857
4793,1856
4794,1685
4795,1882
4796,2034
4797,2131
4798,1901
4799,2143
4800,1808
4801,1927
4802,1957
4803,1872
4804,1753
4805,1793
4806,1854
4807,1870
4808,1865
4809,1840
4810,1803
4811,1789
4812,1801
4813,1819
4814,1819
4815,1818
4816,1846
4817,1888
4818,1890
4819,1882
4820,1872
4821,1861
4822,1859
4823,1863
4824,1863
4825,911
4826,1904
4827,1962
4828,2183
4829,1925
4830,2147
4831,1813
4832,1888
4833,1959
4834,1887
4835,1744
4836,1776
4837,1844
4838,1871
4839,1868
4840,1852
4841,1815
4842,1795
4843,1805
4844,1840
4845,1860
4846,1853
4847,1829
4848,1822
4849,1840
4850,1865
4851,1872
4852,1869
4853,1869
4854,1874
4855,1873
4856,1006
4857,1915
4858,1902
4859,2199
4860,2022
4861,2074
4862,1921
4863,1839
4864,1943
4865,1888
4866,1743
4867,1737
4868,1815
4869,1867
4870,1872
4871,1866
4872,1831
4873,1807
4874,1810
4875,1824
4876,1834
4877,1840
4878,1850
4879,1862
4880,1867
4881,1855
4882,1841
4883,1856
4884,1866
4885,1872
4886,1878
4887,1882
4888,1829
4889,1882
4890,2126
4891,2142
4892,1958
4893,2107
4894,1797
4895,1921
4896,1931
4897,1787
4898,1711
4899,1777
4900,1846
4901,1870
4902,1872
4903,1851
4904,1815
4905,1808
4906,1824
4907,1867
4908,1871
4909,1854
4910,1823
4911,1840
4912,1850
4913,1856
4914,1845
4915,1841
4916,1852
4917,1872
4918,1874
4919,1521
4920,1914
4921,2045
4922,2195
4923,1929
4924,2179
4925,1807
4926,1929
4927,1946
4928,1814
4929,1698
4930,1765
4931,1823
4932,1841
4933,1861
4934,1853
4935,1826
4936,1815
4937,1821
4938,1837
4939,1843
4940,1859
4941,1878
4942,1862
4943,1865
4944,1854
4945,1845
4946,1851
4947,1849
4948,1853
4949,1855
4950,635
4951,1915
4952,1933
4953,2224
4954,2000
4955,2151
4956,1885
4957,1864
4958,1968
4959,1878
4960,1711
4961,1733
4962,1814
4963,1856
4964,1853
4965,1838
4966,1813
4967,1803
4968,1810
4969,1840
4970,1847
4971,1841
4972,1841
4973,1855
4974,1889
4975,1878
4976,1871
4977,1863
4978,1870
4979,1867
4980,1867
4981,1753
4982,1887
4983,1870
4984,2162
4985,2064
4986,2064
4987,2019
4988,1844
4989,1946
4990,1915
4991,1748
4992,1733
4993,1808
4994,1845
4995,1858
4996,1851
4997,1818
4998,1781
4999,1792
5000,1826
5001,1858
5002,1869
5003,1872
5004,1872
5005,1871
5006,1852
5007,1850
5008,1850
5009,1854
5010,1856
5011,1862
5012,1863
5013,1766
5014,1877
5015,2069
5016,2142
5017,1937
5018,2126
5019,1814
5020,1955
5021,1951
5022,1793
5023,1722
5024,1793
5025,1845
5026,1860
5027,1853
5028,1839
5029,1804
5030,1795
5031,1807
5032,1823
5033,1842
5034,1861
5035,1872
5036,1872
5037,1866
5038,1870
5039,1863
5040,1858
5041,1862
5042,1861
5043,1860
5044,754
5045,1914
5046,1956
5047,2194
5048,1919
5049,2161
5050,1810
5051,1904
5052,1981
5053,1865
5054,1731
5055,1776
5056,1841
5057,1866
5058,1867
5059,1846
5060,1808
5061,1795
5062,1802
5063,1819
5064,1815
5065,1811
5066,1855
5067,1865
5068,1855
5069,1877
5070,1888
5071,1883
5072,1877
5073,1875
5074,1873
5075,1871
5076,1866
5077,1858
5078,1866
5079,1861
5080,1859
5081,1851
5082,1851
5083,1862
5084,1871
5085,1872
5086,1875
5087,1871
5088,1868
5089,1859
5090,1861
5091,1862
5092,1854
5093,1849
5094,1850
5095,1855
5096,1854
5097,1847
5098,1843
5099,1853
5100,1861
5101,1853
5102,1863
5103,1874
5104,1872
5105,1869
5106,1852
5107,1865
5108,1871
5109,1866
5110,1856
5111,1860
5112,1858
5113,1856
5114,1847
5115,1843
5116,1855
5117,1863
5118,1867
5119,1871
5120,1868
5121,1863
5122,1862
5123,1858
5124,1858
5125,1855
5126,1852
5127,1849
5128,1858
5129,1857
5130,1856
5131,1846
5132,1849
5133,1858
5134,1866
5135,1873
5136,1876
5137,1872
5138,1872
5139,1869
5140,1865
5141,1859
5142,1858
5143,1857
5144,1855
5145,1858
5146,1860
5147,1856
5148,1847
5149,1856
5150,1862
5151,1861
5152,1870
5153,1871
5154,1870
5155,1863
5156,1863
5157,1857
5158,1855
5159,1854
5160,1859
5161,1859
5162,1857
5163,1857
5164,1846
5165,1841
5166,1855
5167,1862
5168,1872
5169,1873
5170,1872
5171,1870
5172,1867
5173,1865
5174,1861
5175,1858
5176,1857
5177,1856
5178,1861
5179,1846
5180,1845
5181,1847
5182,1851
5183,1855
5184,1862
5185,1870
5186,1871
5187,1872
5188,1862
5189,1862
5190,1869
5191,1861
5192,1854
5193,1850
5194,1856
5195,1855
5196,1856
5197,1855
5198,1842
5199,1847
5200,1861
5201,1869
5202,1872
5203,1872
5204,1869
5205,1864
5206,1863
5207,1868
5208,1869
5209,1865
5210,1859
5211,1856
5212,1839
5213,1845
5214,1855
5215,1865
5216,1872
5217,1858
5218,1843
5219,1844
5220,1863
5221,1873
5222,1865
5223,1859
5224,1856
5225,1851
5226,1855
5227,1851
5228,1856
5229,1853
5230,1854
5231,1842
5232,1846
5233,1862
5234,1869
5235,1872
5236,1873
5237,1872
5238,1867
5239,1867
5240,1865
5241,1859
5242,1854
5243,1850
5244,1854
5245,1853
5246,1854
5247,1845
5248,1845
5249,1853
5250,1863
5251,1861
5252,1872
5253,1872
5254,1872
5255,1871
5256,1872
5257,1866
5258,1866
5259,1856
5260,1853
5261,1856
5262,1847
5263,1849
5264,1840
5265,1840
5266,1863
5267,1874
5268,1882
5269,1877
5270,1866
5271,1857
5272,1856
5273,1863
5274,1866
5275,1860
5276,1857
5277,1856
5278,1870
5279,1862
5280,1859
5281,1839
5282,1825
5283,1842
5284,1855
5285,1872
5286,1877
5287,1874
5288,1870
5289,1860
5290,1859
5291,1859
5292,1856
5293,1856
5294,1857
5295,1857
5296,1859
5297,1850
5298,1841
5299,1854
5300,1862
5301,1872
5302,1867
5303,1870
5304,1872
5305,1861
5306,1862
5307,1870
5308,1866
5309,1857
5310,1855
5311,1857
5312,1857
5313,1856
5314,1847
5315,1842
5316,1859
5317,1867
5318,1863
5319,1875
5320,1873
5321,1872
5322,1867
5323,1867
5324,1864
5325,1859
5326,1855
5327,1853
5328,1855
5329,1857
5330,1856
5331,1846
5332,1843
5333,1856
5334,1861
5335,1868
5336,1870
5337,1868
5338,1869
5339,1870
5340,1866
5341,1859
5342,1854
5343,1854
5344,1856
5345,1861
5346,1861
5347,1853
5348,1842
5349,1853
5350,1862
5351,1863
5352,1872
5353,1874
5354,1872
5355,1870
5356,1866
5357,1863
5358,1861
5359,1856
5360,1854
5361,1857
5362,1851
5363,1850
5364,1840
5365,1839
5366,1855
5367,1860
5368,1872
5369,1877
5370,1873
5371,1873
5372,1866
5373,1867
5374,1863
5375,1857
5376,1858
5377,1851
5378,1856
5379,1856
5380,1854
5381,1844
5382,1846
5383,1859
5384,1866
5385,1872
5386,1874
5387,1872
5388,1870
5389,1867
5390,1867
5391,1863
5392,1849
5393,1847
5394,1850
5395,1853
5396,1854
5397,1849
5398,1845
5399,1854
5400,1865
5401,1872
5402,1872
5403,1872
5404,1872
5405,1867
5406,1869
5407,1869
5408,1862
5409,1856
5410,1850
5411,1851
5412,1856
5413,1872
5414,1872
5415,1863
5416,1866
5417,1850
5418,1841
5419,1847
5420,1855
5421,1858
5422,1859
5423,1858
5424,1862
5425,1855
5426,1842
5427,1846
5428,1856
5429,1856
5430,1856
5431,1844
5432,1849
5433,1860
5434,1868
5435,1873
5436,1873
5437,1873
5438,1867
5439,1865
5440,1866
5441,1863
5442,1857
5443,1856
5444,1856
5445,1856
5446,1861
5447,1854
5448,1843
5449,1855
5450,1863
5451,1863
5452,1871
5453,1868
5454,1862
5455,1863
5456,1859
5457,1856
5458,1858
5459,1856
5460,1853
5461,1857
5462,1857
5463,1858
5464,1848
5465,1843
5466,1859
5467,1870
5468,1872
5469,1873
5470,1873
5471,1872
5472,1868
5473,1866
5474,1863
5475,1858
5476,1856
5477,1853
5478,1859
5479,1857
5480,1853
5481,1842
5482,1845
5483,1856
5484,1863
5485,1869
5486,1872
5487,1873
5488,1872
5489,1866
5490,1865
5491,1861
5492,1855
5493,1853
5494,1858
5495,1857
5496,1858
5497,1853
5498,1847
5499,1856
5500,1868
5501,1870
5502,1872
5503,1872
5504,1872
5505,1867
5506,1865
5507,1863
5508,1857
5509,1856
5510,1854
5511,1856
5512,1851
5513,1853
5514,1843
5515,1840
5516,1854
5517,1865
5518,1872
5519,1869
5520,1872
5521,1871
5522,1867
5523,1863
5524,1862
5525,1857
5526,1854
5527,1854
5528,1858
5529,1858
5530,1856
5531,1846
5532,1849
5533,1859
5534,1867
5535,1872
5536,1874
5537,1872
5538,1869
5539,1867
5540,1867
5541,1863
5542,1851
5543,1851
5544,1850
5545,1851
5546,1856
5547,1842
5548,1840
5549,1856
5550,1866
5551,1872
5552,1873
5553,1874
5554,1872
5555,1867
5556,1865
5557,1862
5558,1858
5559,1856
5560,1853
5561,1856
5562,1859
5563,1858
5564,1846
5565,1845
5566,1859
5567,1867
5568,1872
5569,1873
5570,1873
5571,1869
5572,1861
5573,1859
5574,1856
5575,1851
5576,1847
5577,1847
5578,1850
5579,1856
5580,1853
5581,1843
5582,1848
5583,1859
5584,1871
5585,1872
5586,1873
5587,1871
5588,1870
5589,1865
5590,1863
5591,1861
5592,1857
5593,1854
5594,1856
5595,1858
5596,1856
5597,1850
5598,1841
5599,1856
5600,1859
5601,1870
5602,1868
5603,1867
5604,1866
5605,1859
5606,1859
5607,1862
5608,1856
5609,1856
5610,1853
5611,1858
5612,1856
5613,1856
5614,1845
5615,1844
5616,1856
5617,1866
5618,1863
5619,1873
5620,1872
5621,1870
5622,1869
5623,1866
5624,1861
5625,1855
5626,1856
5627,1856
5628,1856
5629,1858
5630,1851
5631,1844
5632,1848
5633,1856
5634,1861
5635,1867
5636,1870
5637,1863
5638,1869
5639,1863
5640,1863
5641,1862
5642,1856
5643,1853
5644,1857
5645,1857
5646,1858
5647,1850
5648,1842
5649,1855
5650,1865
5651,1863
5652,1872
5653,1872
5654,1872
5655,1867
5656,1866
5657,1863
5658,1859
5659,1856
5660,1853
5661,1859
5662,1855
5663,1851
5664,1840
5665,1840
5666,1853
5667,1856
5668,1871
5669,1873
5670,1872
5671,1869
5672,1867
5673,1865
5674,1862
5675,1859
5676,1855
5677,1854
5678,1857
5679,1856
5680,1854
5681,1842
5682,1851
5683,1860
5684,1869
5685,1872
5686,1873
5687,1872
5688,1871
5689,1866
5690,1865
5691,1861
5692,1851
5693,1847
5694,1853
5695,1851
5696,1851
5697,1851
5698,1844
5699,1856
5700,1863
5701,1872
5702,1872
5703,1872
5704,1872
5705,1866
5706,1865
5707,1866
5708,1856
5709,1856
5710,1855
5711,1855
5712,1856
5713,1856
5714,1844
5715,1842
5716,1856
5717,1863
5718,1867
5719,1867
5720,1867
5721,1862
5722,1862
5723,1858
5724,1857
5725,1855
5726,1850
5727,1845
5728,1854
5729,1856
5730,1849
5731,1841
5732,1847
5733,1859
5734,1867
5735,1872
5736,1873
5737,1875
5738,1868
5739,1866
5740,1863
5741,1861
5742,1856
5743,1853
5744,1856
5745,1858
5746,1856
5747,1847
5748,1841
5749,1855
5750,1865
5751,1865
5752,1868
5753,1867
5754,1865
5755,1863
5756,1859
5757,1855
5758,1858
5759,1857
5760,1855
5761,1858
5762,1857
5763,1856
5764,1845
5765,1846
5766,1858
5767,1867
5768,1872
5769,1874
5770,1872
5771,1871
5772,1862
5773,1863
5774,1863
5775,1857
5776,1855
5777,1856
5778,1857
5779,1859
5780,1853
5781,1846
5782,1844
5783,1855
5784,1863
5785,1869
5786,1869
5787,1872
5788,1867
5789,1862
5790,1865
5791,1861
5792,1858
5793,1855
5794,1856
5795,1858
5796,1856
5797,1845
5798,1842
5799,1859
5800,1863
5801,1872
5802,1873
5803,1873
5804,1871
5805,1866
5806,1866
5807,1861
5808,1859
5809,1857
5810,1856
5811,1857
5812,1850
5813,1849
5814,1840
5815,1840
5816,1853
5817,1870
5818,1863
5819,1873
5820,1871
5821,1869
5822,1868
5823,1866
5824,1861
5825,1857
5826,1855
5827,1855
5828,1857
5829,1857
5830,1853
5831,1844
5832,1851
5833,1859
5834,1868
5835,1872
5836,1873
5837,1872
5838,1871
5839,1867
5840,1863
5841,1861
5842,1850
5843,1847
5844,1851
5845,1853
5846,1856
5847,1840
5848,1840
5849,1856
5850,1865
5851,1865
5852,1872
5853,1872
5854,1872
5855,1865
5856,1862
5857,1861
5858,1862
5859,1856
5860,1856
5861,1856
5862,1857
5863,1857
5864,1847
5865,1844
5866,1859
5867,1867
5868,1872
5869,1873
5870,1872
5871,1871
5872,1858
5873,1857
5874,1857
5875,1855
5876,1847
5877,1847
5878,1856
5879,1858
5880,1850
5881,1841
5882,1849
5883,1861
5884,1871
5885,1874
5886,1873
5887,1872
5888,1869
5889,1869
5890,1867
5891,1863
5892,1857
5893,1856
5894,1857
5895,1858
5896,1857
5897,1847
5898,1843
5899,1857
5900,1868
5901,1871
5902,1870
5903,1870
5904,1865
5905,1861
5906,1859
5907,1867
5908,1859
5909,1858
5910,1855
5911,1856
5912,1857
5913,1855
5914,1846
5915,1845
5916,1857
5917,1867
5918,1865
5919,1872
5920,1872
5921,1869
5922,1866
5923,1866
5924,1861
5925,1856
5926,1853
5927,1855
5928,1858
5929,1859
5930,1852
5931,1842
5932,1846
5933,1856
5934,1858
5935,1869
5936,1872
5937,1871
5938,1869
5939,1868
5940,1867
5941,1861
5942,1858
5943,1854
5944,1857
5945,1856
5946,1862
5947,1851
5948,1842
5949,1856
5950,1865
5951,1868
5952,1872
5953,1872
5954,1870
5955,1867
5956,1863
5957,1864
5958,1861
5959,1856
5960,1855
5961,1857
5962,1854
5963,1850
5964,1840
5965,1841
5966,1855
5967,1862
5968,1862
5969,1869
5970,1872
5971,1870
5972,1870
5973,1866
5974,1862
5975,1858
5976,1855
5977,1856
5978,1856
5979,1857
5980,1850
5981,1844
5982,1851
5983,1862
5984,1866
5985,1872
5986,1872
5987,1872
5988,1870
5989,1867
5990,1865
5991,1859
5992,1850
5993,1847
5994,1850
5995,1850
5996,1854
5997,1848
5998,1846
5999,1856
6000,1866
6001,1870
6002,1875
6003,1872
6004,1870
6005,1869
6006,1869
6007,1863
6008,1859
6009,1856
6010,1852
6011,1856
6012,1855
6013,1853
6014,1843
6015,1847
6016,1858
6017,1870
6018,1869
6019,1869
6020,1866
6021,1861
6022,1859
6023,1859
6024,1856
6025,1853
6026,1847
6027,1850
6028,1857
6029,1857
6030,1849
6031,1843
6032,1855
6033,1861
6034,1870
6035,1872
6036,1874
6037,1872
6038,1869
6039,1869
6040,1867
6041,1859
6042,1858
6043,1854
6044,1858
6045,1856
6046,1857
6047,1849
6048,1849
6049,1858
6050,1866
6051,1867
6052,1871
6053,1871
6054,1863
6055,1861
6056,1861
6057,1858
6058,1860
6059,1856
6060,1854
6061,1856
6062,1858
6063,1856
6064,1847
6065,1849
6066,1861
6067,1871
6068,1872
6069,1876
6070,1874
6071,1870
6072,1867
6073,1866
6074,1863
6075,1859
6076,622
6077,1868
6078,2004
6079,2273
6080,2251
6081,2112
6082,1795
6083,1650
6084,1823
6085,1870
6086,2001
6087,2074
6088,1955
6089,1776
6090,1695
6091,1713
6092,1776
6093,1821
6094,1821
6095,1805
6096,1795
6097,1785
6098,1783
6099,1809
6100,1837
6101,1853
6102,1865
6103,1871
6104,1869
6105,1860
6106,1856
6107,1842
6108,1866
6109,1967
6110,2315
6111,2397
6112,2242
6113,1846
6114,1671
6115,1780
6116,1797
6117,1899
6118,1904
6119,1780
6120,1671
6121,1658
6122,1743
6123,1825
6124,1835
6125,1820
6126,1806
6127,1808
6128,1815
6129,1831
6130,1835
6131,1840
6132,1860
6133,1875
6134,1883
6135,1888
6136,1888
6137,1883
6138,1878
6139,1747
6140,1921
6141,2225
6142,2343
6143,2208
6144,1872
6145,1747
6146,1825
6147,1795
6148,1887
6149,1921
6150,1802
6151,1685
6152,1723
6153,1806
6154,1841
6155,1837
6156,1819
6157,1806
6158,1809
6159,1859
6160,1857
6161,1844
6162,1851
6163,1846
6164,1847
6165,1852
6166,1867
6167,1876
6168,1882
6169,1886
6170,927
6171,1904
6172,2062
6173,2293
6174,2189
6175,1867
6176,1904
6177,1885
6178,1862
6179,1921
6180,1876
6181,1750
6182,1674
6183,1738
6184,1826
6185,1850
6186,1841
6187,1823
6188,1813
6189,1823
6190,1837
6191,1840
6192,1847
6193,1851
6194,1855
6195,1872
6196,1870
6197,1857
6198,1857
6199,1904
6200,1901
6201,1078
6202,1898
6203,1938
6204,2237
6205,2237
6206,1925
6207,2045
6208,1920
6209,1866
6210,1861
6211,1839
6212,1714
6213,1650
6214,1737
6215,1808
6216,1832
6217,1837
6218,1821
6219,1846
6220,1840
6221,1839
6222,1846
6223,1865
6224,1872
6225,1855
6226,1840
6227,1843
6228,1846
6229,1869
6230,1856
6231,1843
6232,1846
6233,1837
6234,1894
6235,2202
6236,2290
6237,1984
6238,2054
6239,1905
6240,1871
6241,1893
6242,1831
6243,1689
6244,1653
6245,1767
6246,1822
6247,1811
6248,1807
6249,1802
6250,1802
6251,1813
6252,1847
6253,1865
6254,1866
6255,1872
6256,1890
6257,1890
6258,1877
6259,1871
6260,1863
6261,1856
6262,1850
6263,1859
6264,1521
6265,1886
6266,2085
6267,2337
6268,2071
6269,2071
6270,1937
6271,1813
6272,1879
6273,1839
6274,1679
6275,1638
6276,1746
6277,1818
6278,1838
6279,1837
6280,1801
6281,1781
6282,1806
6283,1840
6284,1856
6285,1870
6286,1882
6287,1887
6288,1881
6289,1874
6290,1879
6291,1872
6292,1856
6293,1857
6294,1866
6295,620
6296,1914
6297,1958
6298,2304
6299,2145
6300,2032
6301,2001
6302,1821
6303,1911
6304,1865
6305,1691
6306,1634
6307,1745
6308,1809
6309,1823
6310,1828
6311,1811
6312,1798
6313,1799
6314,1808
6315,1840
6316,1862
6317,1872
6318,1882
6319,1882
6320,1874
6321,1869
6322,1865
6323,1867
6324,1861
6325,1858
6326,1447
6327,1920
6328,1893
6329,2278
6330,2209
6331,1971
6332,2059
6333,1808
6334,1911
6335,1879
6336,1709
6337,1642
6338,1747
6339,1825
6340,1841
6341,1834
6342,1808
6343,1788
6344,1804
6345,1828
6346,1849
6347,1841
6348,1846
6349,1862
6350,1874
6351,1867
6352,1882
6353,1874
6354,1872
6355,1871
6356,1872
6357,1871
6358,1799
6359,1887
6360,2114
6361,2259
6362,1949
6363,2174
6364,1824
6365,1907
6366,1898
6367,1745
6368,1648
6369,1742
6370,1829
6371,1853
6372,1846
6373,1830
6374,1804
6375,1801
6376,1810
6377,1837
6378,1840
6379,1856
6380,1854
6381,1858
6382,1866
6383,1872
6384,1879
6385,1882
6386,1879
6387,1883
6388,1878
6389,1263
6390,1919
6391,2006
6392,2251
6393,1961
6394,2202
6395,1904
6396,1894
6397,1894
6398,1772
6399,1648
6400,1726
6401,1829
6402,1861
6403,1859
6404,1840
6405,1808
6406,1804
6407,1818
6408,1840
6409,1869
6410,1888
6411,1883
6412,1847
6413,1817
6414,1839
6415,1870
6416,1872
6417,1876
6418,1866
6419,1872
6420,977
6421,1930
6422,1904
6423,2239
6424,2070
6425,2086
6426,2005
6427,1846
6428,1926
6429,1853
6430,1662
6431,1675
6432,1795
6433,1847
6434,1862
6435,1856
6436,1828
6437,1808
6438,1813
6439,1838
6440,1856
6441,1867
6442,1857
6443,1845
6444,1853
6445,1856
6446,1861
6447,1846
6448,1850
6449,1863
6450,1872
6451,1872
6452,1904
6453,1888
6454,2196
6455,2177
6456,2015
6457,2106
6458,1843
6459,1915
6460,1862
6461,1687
6462,1673
6463,1776
6464,1822
6465,1837
6466,1845
6467,1831
6468,1811
6469,1818
6470,1839
6471,1844
6472,1840
6473,1853
6474,1872
6475,1865
6476,1856
6477,1857
6478,1859
6479,1866
6480,1856
6481,1853
6482,1868
6483,1575
6484,1920
6485,2082
6486,2284
6487,1964
6488,2191
6489,1849
6490,1934
6491,1906
6492,1735
6493,1654
6494,1756
6495,1821
6496,1839
6497,1827
6498,1806
6499,1823
6500,1847
6501,1847
6502,1873
6503,1885
6504,1856
6505,1823
6506,1833
6507,1854
6508,1859
6509,1878
6510,1867
6511,1857
6512,1857
6513,1850
6514,614
6515,1926
6516,1950
6517,2283
6518,2019
6519,2193
6520,1899
6521,1888
6522,1930
6523,1786
6524,1637
6525,1725
6526,1808
6527,1838
6528,1840
6529,1826
6530,1795
6531,1780
6532,1805
6533,1843
6534,1871
6535,1871
6536,1867
6537,1863
6538,1869
6539,1862
6540,1867
6541,1868
6542,1861
6543,1857
6544,1862
6545,1661
6546,1920
6547,1870
6548,2229
6549,2133
6550,2123
6551,2003
6552,1849
6553,1936
6554,1839
6555,1650
6556,1697
6557,1804
6558,1840
6559,1858
6560,1845
6561,1809
6562,1797
6563,1807
6564,1823
6565,1851
6566,1862
6567,1875
6568,1887
6569,1886
6570,1885
6571,1879
6572,1872
6573,1872
6574,1872
6575,1867
6576,1862
6577,1791
6578,1890
6579,2138
6580,2217
6581,1964
6582,2132
6583,1824
6584,1935
6585,1934
6586,1727
6587,1680
6588,1790
6589,1836
6590,1842
6591,1837
6592,1808
6593,1792
6594,1799
6595,1846
6596,1871
6597,1849
6598,1834
6599,1853
6600,1863
6601,1871
6602,1872
6603,1858
6604,1853
6605,1878
6606,1872
6607,1854
6608,1072
6609,1909
6610,2005
6611,2283
6612,1947
6613,2189
6614,1838
6615,1890
6616,1890
6617,1721
6618,1649
6619,1767
6620,1828
6621,1843
6622,1840
6623,1847
6624,1809
6625,1781
6626,1794
6627,1818
6628,1828
6629,1840
6630,1840
6631,1856
6632,1875
6633,1877
6634,1881
6635,1884
6636,1875
6637,1878
6638,1874
6639,691
6640,1932
6641,1938
6642,2304
6643,2012
6644,2191
6645,1897
6646,1887
6647,1886
6648,1734
6649,1618
6650,1743
6651,1826
6652,1857
6653,1858
6654,1840
6655,1809
6656,1801
6657,1808
6658,1829
6659,1843
6660,1851
6661,1858
6662,1868
6663,1856
6664,1853
6665,1862
6666,1871
6667,1874
6668,1879
6669,1879
6670,1874
6671,1893
6672,1889
6673,2237
6674,2185
6675,2069
6676,2038
6677,1847
6678,1907
6679,1815
6680,1613
6681,1668
6682,1792
6683,1839
6684,1855
6685,1856
6686,1834
6687,1811
6688,1811
6689,1839
6690,1874
6691,1870
6692,1867
6693,1846
6694,1853
6695,1861
6696,1855
6697,1850
6698,1856
6699,1872
6700,1878
6701,1885
6702,1890
6703,1887
6704,1879
6705,1872
6706,1872
6707,1869
6708,1859
6709,1856
6710,1856
6711,1859
6712,1852
6713,1842
6714,1837
6715,1843
6716,1857
6717,1870
6718,1872
6719,1878
6720,1875
6721,1871
6722,1868
6723,1867
6724,1859
6725,1855
6726,1856
6727,1859
6728,1860
6729,1861
6730,1850
6731,1844
6732,1859
6733,1863
6734,1868
6735,1873
6736,1872
6737,1872
6738,1871
6739,1869
6740,1865
6741,1867
6742,1853
6743,1854
6744,1853
6745,1855
6746,1846
6747,1831
6748,1840
6749,1859
6750,1871
6751,1866
6752,1873
6753,1874
6754,1872
6755,1867
6756,1869
6757,1862
6758,1858
6759,1855
6760,1855
6761,1858
6762,1868
6763,1854
6764,1840
6765,1851
6766,1863
6767,1872
6768,1877
6769,1873
6770,1871
6771,1868
6772,1859
6773,1859
6774,1856
6775,1853
6776,1845
6777,1852
6778,1840
6779,1856
6780,1850
6781,1847
6782,1858
6783,1869
6784,1872
6785,1877
6786,1877
6787,1872
6788,1870
6789,1869
6790,1865
6791,1857
6792,1856
6793,1856
6794,1857
6795,1856
6796,1852
6797,1843
6798,1846
6799,1861
6800,1869
6801,1872
6802,1872
6803,1869
6804,1869
6805,1858
6806,1861
6807,1862
6808,1856
6809,1854
6810,1857
6811,1857
6812,1857
6813,1847
6814,1841
6815,1854
6816,1863
6817,1871
6818,1870
6819,1874
6820,1871
6821,1867
6822,1860
6823,1857
6824,1859
6825,1857
6826,1855
6827,1856
6828,1855
6829,1856
6830,1846
6831,1841
6832,1853
6833,1862
6834,1870
6835,1870
6836,1868
6837,1861
6838,1857
6839,1874
6840,1878
6841,1871
6842,1868
6843,1867
6844,1866
6845,1862
6846,1856
6847,1850
6848,1855
6849,1864
6850,1872
6851,1872
6852,1877
6853,1872
6854,1872
6855,1867
6856,1869
6857,1861
6858,1865
6859,1857
6860,1856
6861,1856
6862,1849
6863,1841
6864,1838
6865,1847
6866,1861
6867,1858
6868,1873
6869,1874
6870,1872
6871,1868
6872,1867
6873,1867
6874,1865
6875,1857
6876,1853
6877,1857
6878,1858
6879,1861
6880,1839
6881,1830
6882,1843
6883,1852
6884,1854
6885,1861
6886,1867
6887,1869
6888,1869
6889,1867
6890,1862
6891,1851
6892,1843
6893,1845
6894,1847
6895,1851
6896,1847
6897,1844
6898,1851
6899,1861
6900,1872
6901,1874
6902,1882
6903,1875
6904,1872
6905,1866
6906,1868
6907,1868
6908,1861
6909,1846
6910,1847
6911,1856
6912,1859
6913,1853
6914,1847
6915,1857
6916,1866
6917,1872
6918,1872
6919,1869
6920,1869
6921,1862
6922,1861
6923,1857
6924,1856
6925,1856
6926,1853
6927,1853
6928,1854
6929,1860
6930,1846
6931,1851
6932,1862
6933,1871
6934,1884
6935,1878
6936,1869
6937,1867
6938,1862
6939,1863
6940,1859
6941,1861
6942,1856
6943,1856
6944,1859
6945,1858
6946,1858
6947,1850
6948,1855
6949,1865
6950,1874
6951,1872
6952,1872
6953,1869
6954,1863
6955,1861
6956,1869
6957,1867
6958,1872
6959,1859
6960,1861
6961,1851
6962,1846
6963,1846
6964,1831
6965,1847
6966,1859
6967,1870
6968,1872
6969,1873
6970,1872
6971,1871
6972,1868
6973,1868
6974,1865
6975,1862
6976,1857
6977,1859
6978,1863
6979,1862
6980,1849
6981,1853
6982,1857
6983,1861
6984,1872
6985,1872
6986,1873
6987,1873
6988,1867
6989,1866
6990,1864
6991,1861
6992,1856
6993,1856
6994,1859
6995,1861
6996,1851
6997,1849
6998,1857
6999,1863
7000,1872
7001,1877
7002,1877
7003,1873
7004,1871
7005,1871
7006,1869
7007,1863
7008,1861
7009,1856
7010,1858
7011,1861
7012,1856
7013,1847
7014,1841
7015,1851
7016,1861
7017,1872
7018,1872
7019,1875
7020,1872
7021,1869
7022,1870
7023,1870
7024,1863
7025,1859
7026,1855
7027,1859
7028,1858
7029,1856
7030,1851
7031,1852
7032,1865
7033,1871
7034,1874
7035,1878
7036,1877
7037,1872
7038,1870
7039,1869
7040,1866
7041,1860
7042,1847
7043,1851
7044,1853
7045,1856
7046,1850
7047,1842
7048,1846
7049,1866
7050,1872
7051,1872
7052,1874
7053,1873
7054,1872
7055,1872
7056,1867
7057,1865
7058,1859
7059,1856
7060,1861
7061,1858
7062,1861
7063,1852
7064,1845
7065,1857
7066,1866
7067,1872
7068,1872
7069,1874
7070,1872
7071,1869
7072,1861
7073,1859
7074,1856
7075,1855
7076,1849
7077,1853
7078,1857
7079,1856
7080,1849
7081,1852
7082,1863
7083,1867
7084,1872
7085,1875
7086,1872
7087,1872
7088,1869
7089,1868
7090,1870
7091,1862
7092,1857
7093,1859
7094,1861
7095,1861
7096,1855
7097,1851
7098,1861
7099,1867
7100,1871
7101,1871
7102,1865
7103,1862
7104,1859
7105,1860
7106,1860
7107,1863
7108,1858
7109,1854
7110,1860
7111,1859
7112,1859
7113,1850
7114,1847
7115,1858
7116,1867
7117,1872
7118,1869
7119,1874
7120,1872
7121,1869
7122,1869
7123,1866
7124,1861
7125,1858
7126,1856
7127,1859
7128,1858
7129,1857
7130,1851
7131,1847
7132,1854
7133,1862
7134,1868
7135,1871
7136,1872
7137,1867
7138,1859
7139,1870
7140,1863
7141,1859
7142,1863
7143,1870
7144,1870
7145,1869
7146,1861
7147,1853
7148,1856
7149,1868
7150,1873
7151,1872
7152,1877
7153,1878
7154,1872
7155,1869
7156,1870
7157,1865
7158,1862
7159,1856
7160,1858
7161,1859
7162,1854
7163,1842
7164,1839
7165,1853
7166,1858
7167,1866
7168,1874
7169,1873
7170,1872
7171,1869
7172,1868
7173,1867
7174,1862
7175,1858
7176,1857
7177,1858
7178,1857
7179,1856
7180,1850
7181,1849
7182,1854
7183,1856
7184,1861
7185,1869
7186,1869
7187,1866
7188,1863
7189,1862
7190,1858
7191,1856
7192,1847
7193,1847
7194,1851
7195,1851
7196,1847
7197,1843
7198,1855
7199,1864
7200,1871
7201,1871
7202,1873
7203,1873
7204,1871
7205,1867
7206,1867
7207,1861
7208,1858
7209,1855
7210,1858
7211,1857
7212,1857
7213,1853
7214,1847
7215,1856
7216,1867
7217,1872
7218,1859
7219,1868
7220,1865
7221,1863
7222,1863
7223,1857
7224,1853
7225,1851
7226,1851
7227,1854
7228,1854
7229,1858
7230,1850
7231,1851
7232,1865
7233,1869
7234,1872
7235,1873
7236,1874
7237,1872
7238,1869
7239,1870
7240,1862
7241,1857
7242,1857
7243,1857
7244,1858
7245,1857
7246,1852
7247,1847
7248,1855
7249,1862
7250,1870
7251,1868
7252,1871
7253,1869
7254,1863
7255,1859
7256,1861
7257,1856
7258,1856
7259,1856
7260,1857
7261,1859
7262,1860
7263,1850
7264,1847
7265,1858
7266,1866
7267,1869
7268,1872
7269,1874
7270,1872
7271,1870
7272,1867
7273,1866
7274,1863
7275,1857
7276,1856
7277,1860
7278,1859
7279,1856
7280,1845
7281,1851
7282,1856
7283,1865
7284,1867
7285,1872
7286,1871
7287,1872
7288,1872
7289,1867
7290,1862
7291,1859
7292,1856
7293,1858
7294,1859
7295,1858
7296,1851
7297,1846
7298,1856
7299,1865
7300,1872
7301,1873
7302,1877
7303,1873
7304,1870
7305,1866
7306,1868
7307,1861
7308,1858
7309,1856
7310,1857
7311,1857
7312,1853
7313,1843
7314,1841
7315,1852
7316,1858
7317,1872
7318,1870
7319,1873
7320,1872
7321,1869
7322,1869
7323,1865
7324,1861
7325,1856
7326,1855
7327,1858
7328,1858
7329,1856
7330,1847
7331,1850
7332,1859
7333,1870
7334,1872
7335,1875
7336,1874
7337,1872
7338,1869
7339,1867
7340,1863
7341,1860
7342,1849
7343,1851
7344,1853
7345,1856
7346,1847
7347,1839
7348,1849
7349,1865
7350,1872
7351,1868
7352,1874
7353,1872
7354,1867
7355,1870
7356,1868
7357,1863
7358,1857
7359,1857
7360,1859
7361,1858
7362,1858
7363,1849
7364,1847
7365,1859
7366,1867
7367,1872
7368,1874
7369,1872
7370,1872
7371,1870
7372,1859
7373,1859
7374,1855
7375,1854
7376,1853
7377,1853
7378,1859
7379,1855
7380,1844
7381,1846
7382,1861
7383,1869
7384,1873
7385,1874
7386,1874
7387,1872
7388,1870
7389,1869
7390,1862
7391,1857
7392,1857
7393,1860
7394,1859
7395,1859
7396,1851
7397,1845
7398,1855
7399,1866
7400,1869
7401,1874
7402,1867
7403,1868
7404,1865
7405,1859
7406,1861
7407,1861
7408,1859
7409,1856
7410,1858
7411,1856
7412,1861
7413,1849
7414,1846
7415,1857
7416,1868
7417,1872
7418,1870
7419,1872
7420,1872
7421,1871
7422,1867
7423,1867
7424,1861
7425,1857
7426,1856
7427,1858
7428,1858
7429,1856
7430,1846
7431,1850
7432,1856
7433,1865
7434,1870
7435,1867
7436,1870
7437,1865
7438,1858
7439,1868
7440,1863
7441,1857
7442,1857
7443,1858
7444,1857
7445,1861
7446,1851
7447,1843
7448,1856
7449,1874
7450,1878
7451,1876
7452,1883
7453,1878
7454,1872
7455,1871
7456,1872
7457,1869
7458,1861
7459,1856
7460,1859
7461,1859
7462,1855
7463,1846
7464,1842
7465,1856
7466,1865
7467,1869
7468,1875
7469,1872
7470,1872
7471,1872
7472,1869
7473,1866
7474,1859
7475,1856
7476,1857
7477,1858
7478,1861
7479,1857
7480,1847
7481,1851
7482,1861
7483,1870
7484,1872
7485,1875
7486,1875
7487,1872
7488,1870
7489,1858
7490,1855
7491,1852
7492,1841
7493,1843
7494,1848
7495,1850
7496,1842
7497,1841
7498,1855
7499,1863
7500,1867
7501,1872
7502,1872
7503,1871
7504,1867
7505,1868
7506,1865
7507,1862
7508,1856
7509,1855
7510,1861
7511,1858
7512,1857
7513,1846
7514,1846
7515,1860
7516,1866
7517,1872
7518,1873
7519,1870
7520,1867
7521,1863
7522,1862
7523,1856
7524,1854
7525,1851
7526,1849
7527,1851
7528,1853
7529,1853
7530,1846
7531,1851
7532,1863
7533,1869
7534,1872
7535,1874
7536,1871
7537,1869
7538,1866
7539,1870
7540,1862
7541,1856
7542,1856
7543,1857
7544,1859
7545,1858
7546,1850
7547,1844
7548,1858
7549,1863
7550,1872
7551,1873
7552,1870
7553,1867
7554,1861
7555,1861
7556,1862
7557,1856
7558,1852
7559,1855
7560,1858
7561,1859
7562,1857
7563,1849
7564,1847
7565,1856
7566,1866
7567,1870
7568,1872
7569,1872
7570,1871
7571,1865
7572,1869
7573,1866
7574,1860
7575,1857
7576,1856
7577,1859
7578,1860
7579,1853
7580,1843
7581,1853
7582,1857
7583,1864
7584,1869
7585,1872
7586,1871
7587,1870
7588,1869
7589,1867
7590,1862
7591,1858
7592,1855
7593,1856
7594,1856
7595,1859
7596,1852
7597,1846
7598,1856
7599,1866
7600,1872
7601,1872
7602,1873
7603,1872
7604,1870
7605,1867
7606,1865
7607,1858
7608,1856
7609,1856
7610,1857
7611,1859
7612,1850
7613,1840
7614,1840
7615,1855
7616,1862
7617,1872
7618,1872
7619,1872
7620,1872
7621,1868
7622,1865
7623,1865
7624,1860
7625,1855
7626,1856
7627,1859
7628,1860
7629,1854
7630,1845
7631,1851
7632,1861
7633,1868
7634,1872
7635,1874
7636,1872
7637,1869
7638,1867
7639,1870
7640,1867
7641,1861
7642,1850
7643,1851
7644,1854
7645,1855
7646,1845
7647,1840
7648,1847
7649,1866
7650,1872
7651,1871
7652,1874
7653,1873
7654,1870
7655,1866
7656,1865
7657,1867
7658,1858
7659,1856
7660,1857
7661,1971
7662,1922
7663,1857
7664,1838
7665,1837
7666,1841
7667,1935
7668,1907
7669,1847
7670,1841
7671,1840
7672,1838
7673,1841
7674,1840
7675,1840
7676,1840
7677,1839
7678,1849
7679,1843
7680,1840
7681,1847
7682,1857
7683,1866
7684,1871
7685,1872
7686,1872
7687,1867
7688,1865
7689,1861
7690,1858
7691,1856
7692,1853
7693,1856
7694,1857
7695,1858
7696,1851
7697,1844
7698,1857
7699,1868
7700,1871
7701,1872
7702,1867
7703,1712
7704,1920
7705,2243
7706,2448
7707,2391
7708,2171
7709,1772
7710,1670
7711,1781
7712,1789
7713,1902
7714,1914
7715,1783
7716,1670
7717,1675
7718,1745
7719,1803
7720,1810
7721,1801
7722,1791
7723,1793
7724,1795
7725,1807
7726,1822
7727,1842
7728,1856
7729,1853
7730,1845
7731,1856
7732,1856
7733,1863
7734,1329
7735,1901
7736,2188
7737,2399
7738,2357
7739,2134
7740,1744
7741,1743
7742,1775
7743,1833
7744,1911
7745,1841
7746,1699
7747,1633
7748,1696
7749,1803
7750,1843
7751,1831
7752,1825
7753,1823
7754,1827
7755,1850
7756,1882
7757,1888
7758,1881
7759,1877
7760,1886
7761,1889
7762,1883
7763,1875
7764,1871
7765,721
7766,1840
7767,2034
7768,2313
7769,2290
7770,2096
7771,1746
7772,1813
7773,1840
7774,1902
7775,1930
7776,1863
7777,1749
7778,1712
7779,1773
7780,1818
7781,1823
7782,1824
7783,1814
7784,1826
7785,1835
7786,1843
7787,1859
7788,1868
7789,1867
7790,1867
7791,1870
7792,1859
7793,1859
7794,1870
7795,1872
7796,1840
7797,1757
7798,1909
7799,2166
7800,2224
7801,2061
7802,1801
7803,1933
7804,1888
7805,1920
7806,1936
7807,1856
7808,1740
7809,1727
7810,1801
7811,1838
7812,1835
7813,1805
7814,1791
7815,1808
7816,1830
7817,1850
7818,1854
7819,1859
7820,1863
7821,1863
7822,1867
7823,1872
7824,1867
7825,1858
7826,1862
7827,1859
7828,1532
7829,1872
7830,2034
7831,2211
7832,2109
7833,1903
7834,2054
7835,1949
7836,1925
7837,1927
7838,1845
7839,1733
7840,1745
7841,1821
7842,1840
7843,1833
7844,1808
7845,1789
7846,1782
7847,1799
7848,1842
7849,1862
7850,1887
7851,1872
7852,1873
7853,1865
7854,1862
7855,1862
7856,1866
7857,1856
7858,1850
7859,553
7860,1851
7861,1970
7862,2210
7863,2118
7864,1879
7865,2119
7866,1950
7867,1942
7868,1929
7869,1823
7870,1695
7871,1723
7872,1813
7873,1843
7874,1837
7875,1808
7876,1791
7877,1799
7878,1830
7879,1836
7880,1830
7881,1843
7882,1855
7883,1873
7884,1885
7885,1879
7886,1875
7887,1874
7888,1870
7889,1872
7890,1072
7891,1828
7892,1927
7893,2273
7894,2236
7895,1929
7896,2093
7897,1846
7898,1886
7899,1892
7900,1777
7901,1642
7902,1695
7903,1806
7904,1839
7905,1840
7906,1826
7907,1805
7908,1806
7909,1822
7910,1843
7911,1853
7912,1853
7913,1855
7914,1859
7915,1869
7916,1873
7917,1882
7918,1879
7919,1879
7920,1874
7921,1873
7922,1709
7923,1904
7924,2250
7925,2391
7926,2017
7927,2097
7928,1834
7929,1841
7930,1856
7931,1743
7932,1602
7933,1662
7934,1793
7935,1840
7936,1849
7937,1834
7938,1809
7939,1810
7940,1825
7941,1836
7942,1830
7943,1854
7944,1861
7945,1869
7946,1856
7947,1849
7948,1861
7949,1879
7950,1887
7951,1889
7952,1891
7953,1179
7954,1895
7955,2130
7956,2491
7957,2185
7958,2128
7959,1887
7960,1791
7961,1817
7962,1738
7963,1560
7964,1597
7965,1753
7966,1827
7967,1845
7968,1850
7969,1827
7970,1817
7971,1827
7972,1843
7973,1854
7974,1859
7975,1861
7976,1866
7977,1869
7978,1867
7979,1862
7980,1853
7981,1862
7982,1873
7983,1882
7984,540
7985,1903
7986,2038
7987,2495
7988,2291
7989,2118
7990,1959
7991,1763
7992,1812
7993,1744
7994,1560
7995,1583
7996,1728
7997,1795
7998,1830
7999,1838
8000,1822
8001,1823
8002,1839
8003,1856
8004,1867
8005,1873
8006,1874
8007,1874
8008,1872
8009,1862
8010,1867
8011,1868
8012,1867
8013,1856
8014,1860
8015,1872
8016,1807
8017,1921
8018,2351
8019,2394
8020,2075
8021,2119
8022,1804
8023,1849
8024,1777
8025,1593
8026,1561
8027,1729
8028,1810
8029,1812
8030,1814
8031,1813
8032,1808
8033,1821
8034,1845
8035,1859
8036,1862
8037,1863
8038,1872
8039,1885
8040,1893
8041,1883
8042,1872
8043,1869
8044,1867
8045,1868
8046,1857
8047,1636
8048,1893
8049,2230
8050,2442
8051,2075
8052,2211
8053,1817
8054,1842
8055,1809
8056,1645
8057,1568
8058,1705
8059,1807
8060,1836
8061,1839
8062,1810
8063,1782
8064,1794
8065,1826
8066,1855
8067,1872
8068,1875
8069,1883
8070,1889
8071,1882
8072,1879
8073,1877
8074,1872
8075,1871
8076,1872
8077,1871
8078,814
8079,1879
8080,2032
8081,2415
8082,2101
8083,2252
8084,1913
8085,1871
8086,1847
8087,1698
8088,1574
8089,1684
8090,1803
8091,1835
8092,1835
8093,1824
8094,1802
8095,1801
8096,1807
8097,1836
8098,1866
8099,1878
8100,1874
8101,1879
8102,1891
8103,1886
8104,1881
8105,1877
8106,1874
8107,1872
8108,1871
8109,959
8110,1862
8111,1935
8112,2352
8113,2161
8114,2167
8115,2018
8116,1875
8117,1871
8118,1743
8119,1573
8120,1648
8121,1784
8122,1831
8123,1839
8124,1826
8125,1802
8126,1799
8127,1809
8128,1835
8129,1842
8130,1840
8131,1859
8132,1875
8133,1885
8134,1894
8135,1898
8136,1895
8137,1885
8138,1883
8139,1883
8140,1875
8141,1731
8142,1883
8143,2226
8144,2320
8145,2042
8146,2154
8147,1808
8148,1872
8149,1803
8150,1616
8151,1619
8152,1770
8153,1836
8154,1845
8155,1846
8156,1825
8157,1795
8158,1802
8159,1831
8160,1851
8161,1865
8162,1861
8163,1861
8164,1869
8165,1881
8166,1893
8167,1891
8168,1902
8169,1904
8170,1900
8171,1891
8172,1261
8173,1899
8174,2118
8175,2405
8176,2031
8177,2240
8178,1888
8179,1876
8180,1798
8181,1619
8182,1567
8183,1728
8184,1834
8185,1856
8186,1856
8187,1840
8188,1813
8189,1814
8190,1834
8191,1850
8192,1871
8193,1878
8194,1885
8195,1885
8196,1859
8197,1849
8198,1857
8199,1869
8200,1876
8201,1885
8202,1885
8203,585
8204,1866
8205,1997
8206,2413
8207,2106
8208,2196
8209,1936
8210,1851
8211,1830
8212,1664
8213,1499
8214,1642
8215,1791
8216,1843
8217,1863
8218,1846
8219,1826
8220,1814
8221,1834
8222,1857
8223,1861
8224,1861
8225,1855
8226,1870
8227,1885
8228,1885
8229,1871
8230,1859
8231,1872
8232,1882
8233,1882
8234,1883
8235,1797
8236,1919
8237,2343
8238,2279
8239,2131
8240,2083
8241,1850
8242,1845
8243,1727
8244,1531
8245,1610
8246,1759
8247,1808
8248,1836
8249,1846
8250,1830
8251,1817
8252,1836
8253,1856
8254,1877
8255,1886
8256,1889
8257,1878
8258,1872
8259,1867
8260,1863
8261,1863
8262,1866
8263,1856
8264,1862
8265,1873
8266,1593
8267,1911
8268,2222
8269,2394
8270,2044
8271,2201
8272,1872
8273,1861
8274,1760
8275,1562
8276,1573
8277,1746
8278,1827
8279,1840
8280,1827
8281,1820
8282,1809
8283,1830
8284,1855
8285,1872
8286,1873
8287,1874
8288,1878
8289,1872
8290,1893
8291,1904
8292,1875
8293,1872
8294,1870
8295,1872
8296,1858
8297,701
8298,1879
8299,2061
8300,2437
8301,2070
8302,2257
8303,1917
8304,1870
8305,1821
8306,1632
8307,1535
8308,1701
8309,1807
8310,1840
8311,1847
8312,1825
8313,1794
8314,1808
8315,1839
8316,1872
8317,1886
8318,1878
8319,1884
8320,1878
8321,1877
8322,1879
8323,1877
8324,1871
8325,1867
8326,1871
8327,1870
8328,1875
8329,1863
8330,1857
8331,1870
8332,1871
8333,1877
8334,1881
8335,1873
8336,1870
8337,1867
8338,1859
8339,1861
8340,1858
8341,1855
8342,1852
8343,1857
8344,1857
8345,1857
8346,1846
8347,1845
8348,1857
8349,1869
8350,1873
8351,1871
8352,1873
8353,1871
8354,1863
8355,1862
8356,1865
8357,1856
8358,1851
8359,1853
8360,1858
8361,1858
8362,1843
8363,1834
8364,1841
8365,1856
8366,1866
8367,1871
8368,1873
8369,1881
8370,1872
8371,1867
8372,1862
8373,1861
8374,1854
8375,1850
8376,1851
8377,1852
8378,1850
8379,1842
8380,1842
8381,1855
8382,1861
8383,1874
8384,1885
8385,1883
8386,1873
8387,1871
8388,1870
8389,1863
8390,1856
8391,1856
8392,1847
8393,1850
8394,1851
8395,1850
8396,1841
8397,1845
8398,1861
8399,1870
8400,1872
8401,1876
8402,1872
8403,1870
8404,1863
8405,1866
8406,1861
8407,1856
8408,1850
8409,1851
8410,1856
8411,1858
8412,1851
8413,1840
8414,1850
8415,1863
8416,1872
8417,1875
8418,1875
8419,1867
8420,1862
8421,1858
8422,1861
8423,1856
8424,1849
8425,1845
8426,1852
8427,1850
8428,1852
8429,1843
8430,1839
8431,1855
8432,1867
8433,1872
8434,1875
8435,1873
8436,1872
8437,1871
8438,1867
8439,1866
8440,1859
8441,1854
8442,1850
8443,1855
8444,1855
8445,1851
8446,1840
8447,1842
8448,1856
8449,1867
8450,1873
8451,1869
8452,1867
8453,1866
8454,1858
8455,1858
8456,1854
8457,1851
8458,1852
8459,1855
8460,1857
8461,1857
8462,1847
8463,1841
8464,1853
8465,1859
8466,1869
8467,1872
8468,1873
8469,1885
8470,1882
8471,1876
8472,1873
8473,1871
8474,1863
8475,1856
8476,1857
8477,1859
8478,1860
8479,1851
8480,1845
8481,1856
8482,1856
8483,1869
8484,1870
8485,1871
8486,1870
8487,1870
8488,1867
8489,1866
8490,1859
8491,1856
8492,1851
8493,1857
8494,1857
8495,1854
8496,1846
8497,1847
8498,1860
8499,1866
8500,1871
8501,1873
8502,1872
8503,1873
8504,1870
8505,1870
8506,1858
8507,1854
8508,1853
8509,1853
8510,1853
8511,1856
8512,1836
8513,1827
8514,1834
8515,1843
8516,1855
8517,1869
8518,1869
8519,1862
8520,1865
8521,1863
8522,1861
8523,1856
8524,1855
8525,1853
8526,1856
8527,1855
8528,1858
8529,1845
8530,1845
8531,1858
8532,1867
8533,1872
8534,1874
8535,1874
8536,1872
8537,1862
8538,1860
8539,1861
8540,1856
8541,1855
8542,1849
8543,1853
8544,1855
8545,1850
8546,1840
8547,1841
8548,1851
8549,1870
8550,1874
8551,1877
8552,1872
8553,1872
8554,1866
8555,1867
8556,1866
8557,1858
8558,1856
8559,1857
8560,1857
8561,1860
8562,1853
8563,1843
8564,1855
8565,1863
8566,1872
8567,1874
8568,1874
8569,1873
8570,1870
8571,1866
8572,1859
8573,1856
8574,1851
8575,1847
8576,1855
8577,1855
8578,1851
8579,1851
8580,1847
8581,1859
8582,1866
8583,1872
8584,1875
8585,1874
8586,1873
8587,1872
8588,1869
8589,1866
8590,1862
8591,1856
8592,1854
8593,1857
8594,1859
8595,1859
8596,1851
8597,1855
8598,1861
8599,1870
8600,1873
8601,1875
8602,1872
8603,1862
8604,1861
8605,1861
8606,1858
8607,1859
8608,1858
8609,1857
8610,1858
8611,1860
8612,1850
8613,1847
8614,1855
8615,1863
8616,1872
8617,1873
8618,1872
8619,1875
8620,1872
8621,1872
8622,1867
8623,1866
8624,1859
8625,1857
8626,1859
8627,1859
8628,1858
8629,1850
8630,1846
8631,1858
8632,1862
8633,1868
8634,1872
8635,1871
8636,1870
8637,1861
8638,1861
8639,1867
8640,1859
8641,1859
8642,1856
8643,1861
8644,1861
8645,1856
8646,1849
8647,1850
8648,1861
8649,1871
8650,1872
8651,1870
8652,1873
8653,1872
8654,1869
8655,1867
8656,1866
8657,1857
8658,1856
8659,1858
8660,1856
8661,1859
8662,1845
8663,1840
8664,1851
8665,1861
8666,1867
8667,1869
8668,1874
8669,1872
8670,1872
8671,1867
8672,1868
8673,1861
8674,1859
8675,1856
8676,1859
8677,1859
8678,1859
8679,1849
8680,1846
8681,1859
8682,1867
8683,1872
8684,1875
8685,1872
8686,1872
8687,1866
8688,1867
8689,1862
8690,1861
8691,1859
8692,1851
8693,1853
8694,1856
8695,1853
8696,1840
8697,1853
8698,1863
8699,1870
8700,1872
8701,1873
8702,1872
8703,1870
8704,1869
8705,1866
8706,1865
8707,1858
8708,1855
8709,1857
8710,1858
8711,1860
8712,1853
8713,1841
8714,1856
8715,1860
8716,1872
8717,1872
8718,1872
8719,1867
8720,1865
8721,1861
8722,1859
8723,1856
8724,1855
8725,1851
8726,1856
8727,1853
8728,1847
8729,1850
8730,1850
8731,1862
8732,1869
8733,1872
8734,1872
8735,1872
8736,1871
8737,1866
8738,1867
8739,1862
8740,1859
8741,1857
8742,1856
8743,1859
8744,1861
8745,1856
8746,1847
8747,1852
8748,1859
8749,1872
8750,1873
8751,1869
8752,1870
8753,1862
8754,1862
8755,1859
8756,1857
8757,1850
8758,1856
8759,1858
8760,1858
8761,1861
8762,1851
8763,1846
8764,1857
8765,1866
8766,1872
8767,1872
8768,1872
8769,1871
8770,1871
8771,1867
8772,1866
8773,1862
8774,1857
8775,1862
8776,1871
8777,1870
8778,1871
8779,1858
8780,1856
8781,1867
8782,1867
8783,1872
8784,1872
8785,1873
8786,1871
8787,1871
8788,1870
8789,1863
8790,1859
8791,1859
8792,1856
8793,1859
8794,1862
8795,1856
8796,1846
8797,1854
8798,1863
8799,1872
8800,1872
8801,1875
8802,1872
8803,1871
8804,1869
8805,1866
8806,1864
8807,1856
8808,1852
8809,1856
8810,1857
8811,1857
8812,1841
8813,1841
8814,1854
8815,1862
8816,1855
8817,1864
8818,1857
8819,1865
8820,1859
8821,1859
8822,1858
8823,1856
8824,1853
8825,1853
8826,1855
8827,1856
8828,1856
8829,1845
8830,1847
8831,1858
8832,1868
8833,1872
8834,1872
8835,1874
8836,1871
8837,1867
8838,1866
8839,1862
8840,1860
8841,1856
8842,1851
8843,1855
8844,1856
8845,1851
8846,1846
8847,1845
8848,1855
8849,1869
8850,1872
8851,1868
8852,1872
8853,1871
8854,1867
8855,1863
8856,1861
8857,1858
8858,1855
8859,1858
8860,1859
8861,1859
8862,1849
8863,1847
8864,1856
8865,1863
8866,1871
8867,1873
8868,1873
8869,1872
8870,1869
8871,1867
8872,1861
8873,1855
8874,1853
8875,1849
8876,1853
8877,1849
8878,1856
8879,1847
8880,1849
8881,1859
8882,1867
8883,1872
8884,1873
8885,1874
8886,1870
8887,1869
8888,1866
8889,1863
8890,1859
8891,1858
8892,1858
8893,1858
8894,1860
8895,1854
8896,1845
8897,1853
8898,1861
8899,1871
8900,1872
8901,1875
8902,1858
8903,1861
8904,1859
8905,1858
8906,1857
8907,1858
8908,1855
8909,1858
8910,1859
8911,1859
8912,1851
8913,1842
8914,1856
8915,1862
8916,1871
8917,1873
8918,1871
8919,1872
8920,1869
8921,1865
8922,1863
8923,1861
8924,1857
8925,1854
8926,1858
8927,1856
8928,1857
8929,1851
8930,1850
8931,1861
8932,1864
8933,1869
8934,1871
8935,1870
8936,1867
8937,1858
8938,1857
8939,1863
8940,1858
8941,1857
8942,1856
8943,1860
8944,1859
8945,1853
8946,1846
8947,1855
8948,1862
8949,1871
8950,1872
8951,1870
8952,1872
8953,1870
8954,1868
8955,1867
8956,1861
8957,1857
8958,1856
8959,1858
8960,1859
8961,1859
8962,1845
8963,1840
8964,1854
8965,1859
8966,1867
8967,1867
8968,1875
8969,1872
8970,1870
8971,1867
8972,1864
8973,1859
8974,1856
8975,1856
8976,1858
8977,1859
8978,1856
8979,1846
8980,1847
8981,1859
8982,1868
8983,1871
8984,1874
8985,1872
8986,1872
8987,1871
8988,1869
8989,1863
8990,1858
8991,1855
8992,1854
8993,1855
8994,1851
8995,1845
8996,1840
8997,1851
8998,1861
8999,1870
9000,1872
9001,1874
9002,1873
9003,1869
9004,1866
9005,1863
9006,1861
9007,1857
9008,1855
9009,1856
9010,1856
9011,1858
9012,1850
9013,1842
9014,1856
9015,1866
9016,1872
9017,1872
9018,1867
9019,1863
9020,1859
9021,1858
9022,1856
9023,1854
9024,1853
9025,1850
9026,1855
9027,1855
9028,1847
9029,1847
9030,1850
9031,1860
9032,1866
9033,1872
9034,1872
9035,1872
9036,1869
9037,1867
9038,1865
9039,1862
9040,1858
9041,1857
9042,1856
9043,1855
9044,1858
9045,1852
9046,1845
9047,1851
9048,1865
9049,1872
9050,1873
9051,1869
9052,1869
9053,1861
9054,1858
9055,1861
9056,1856
9057,1852
9058,1854
9059,1858
9060,1858
9061,1860
9062,1849
9063,1845
9064,1856
9065,1867
9066,1870
9067,1873
9068,1872
9069,1872
9070,1867
9071,1867
9072,1865
9073,1858
9074,1857
9075,1856
9076,1858
9077,1859
9078,1856
9079,1848
9080,1849
9081,1859
9082,1872
9083,1874
9084,1875
9085,1872
9086,1869
9087,1873
9088,1871
9089,1868
9090,1861
9091,1859
9092,1862
9093,1858
9094,1860
9095,1853
9096,1845
9097,1856
9098,1866
9099,1872
9100,1874
9101,1873
9102,1872
9103,1867
9104,1869
9105,1866
9106,1861
9107,1856
9108,1856
9109,1856
9110,1856
9111,1857
9112,1842
9113,1839
9114,1851
9115,1857
9116,1867
9117,1873
9118,1868
9119,1872
9120,1867
9121,1863
9122,1858
9123,1849
9124,1849
9125,1845
9126,1850
9127,1853
9128,1854
9129,1841
9130,1842
9131,1857
9132,1868
9133,1871
9134,1875
9135,1872
9136,1869
9137,1867
9138,1862
9139,1861
9140,1856
9141,1856
9142,1850
9143,1852
9144,1852
9145,1843
9146,1841
9147,1845
9148,1856
9149,1869
9150,1874
9151,1870
9152,1872
9153,1869
9154,1863
9155,1865
9156,1861
9157,1857
9158,1856
9159,1858
9160,1858
9161,1861
9162,1847
9163,1843
9164,1858
9165,1863
9166,1871
9167,1872
9168,1874
9169,1871
9170,1869
9171,1867
9172,1859
9173,1850
9174,1853
9175,1846
9176,1854
9177,1851
9178,1856
9179,1847
9180,1847
9181,1861
9182,1867
9183,1872
9184,1872
9185,1873
9186,1871
9187,1867
9188,1865
9189,1861
9190,1859
9191,1855
9192,1857
9193,1857
9194,1858
9195,1853
9196,1845
9197,1855
9198,1862
9199,1871
9200,1873
9201,1873
9202,1870
9203,1861
9204,1857
9205,1859
9206,1857
9207,1858
9208,1856
9209,1859
9210,1857
9211,1856
9212,1846
9213,1846
9214,1856
9215,1862
9216,1869
9217,1872
9218,1863
9219,1869
9220,1867
9221,1866
9222,1863
9223,1858
9224,1858
9225,1856
9226,1858
9227,1857
9228,1856
9229,1845
9230,1848
9231,1859
9232,1861
9233,1867
9234,1871
9235,1869
9236,1865
9237,1858
9238,1858
9239,1860
9240,1859
9241,1856
9242,1858
9243,1856
9244,1856
9245,1850
9246,1845
9247,1856
9248,1863
9249,1870
9250,1872
9251,1867
9252,1872
9253,1867
9254,1866
9255,1864
9256,1863
9257,1857
9258,1855
9259,1858
9260,1855
9261,1878
9262,1857
9263,1840
9264,1849
9265,1856
9266,1860
9267,1865
9268,1871
9269,1886
9270,1872
9271,1861
9272,1858
9273,1855
9274,1853
9275,1851
9276,1856
9277,1856
9278,1854
9279,1842
9280,1846
9281,1861
9282,1867
9283,1872
9284,1873
9285,1872
9286,1867
9287,1863
9288,1865
9289,1861
9290,1857
9291,1855
9292,1854
9293,1853
9294,1853
9295,1841
9296,1839
9297,1855
9298,1862
9299,1869
9300,1872
9301,1873
9302,1870
9303,1869
9304,1869
9305,1867
9306,1857
9307,1855
9308,1854
9309,1856
9310,1858
9311,1859
9312,1845
9313,1845
9314,1857
9315,1865
9316,1872
9317,1872
9318,1866
9319,1866
9320,1862
9321,1861
9322,1859
9323,1850
9324,1851
9325,1849
9326,1853
9327,1852
9328,1843
9329,478
9330,1817
9331,2061
9332,2418
9333,2446
9334,2318
9335,2023
9336,1703
9337,1751
9338,1813
9339,1867
9340,1933
9341,1872
9342,1698
9343,1627
9344,1673
9345,1741
9346,1776
9347,1787
9348,1789
9349,1803
9350,1811
9351,1815
9352,1823
9353,1831
9354,1840
9355,1853
9356,1854
9357,1853
9358,1855
9359,1861
9360,1491
9361,1781
9362,1993
9363,2333
9364,2413
9365,2289
9366,1975
9367,1718
9368,1786
9369,1793
9370,1875
9371,1902
9372,1773
9373,1659
9374,1649
9375,1745
9376,1821
9377,1822
9378,1808
9379,1792
9380,1805
9381,1824
9382,1840
9383,1858
9384,1874
9385,1876
9386,1874
9387,1881
9388,1886
9389,1883
9390,1878
9391,1873
9392,1600
9393,1911
9394,2203
9395,2291
9396,2192
9397,1964
9398,1755
9399,1899
9400,1882
9401,1933
9402,1924
9403,1807
9404,1712
9405,1728
9406,1803
9407,1824
9408,1811
9409,1805
9410,1802
9411,1810
9412,1812
9413,1825
9414,1846
9415,1860
9416,1871
9417,1879
9418,1877
9419,1880
9420,1878
9421,1874
9422,1877
9423,1023
9424,1874
9425,2096
9426,2295
9427,2224
9428,1942
9429,1818
9430,1922
9431,1872
9432,1918
9433,1904
9434,1774
9435,1680
9436,1744
9437,1823
9438,1840
9439,1825
9440,1801
9441,1794
9442,1808
9443,1826
9444,1840
9445,1843
9446,1845
9447,1855
9448,1867
9449,1879
9450,1882
9451,1873
9452,1882
9453,1882
9454,723
9455,1819
9456,1978
9457,2246
9458,2231
9459,1939
9460,1927
9461,1998
9462,1920
9463,1887
9464,1865
9465,1743
9466,1683
9467,1779
9468,1845
9469,1846
9470,1828
9471,1805
9472,1805
9473,1817
9474,1830
9475,1839
9476,1846
9477,1856
9478,1856
9479,1853
9480,1862
9481,1872
9482,1875
9483,1887
9484,1894
9485,1891
9486,1691
9487,1907
9488,2209
9489,2267
9490,1979
9491,1982
9492,2031
9493,1925
9494,1914
9495,1843
9496,1689
9497,1648
9498,1759
9499,1838
9500,1849
9501,1826
9502,1797
9503,1803
9504,1827
9505,1843
9506,1854
9507,1859
9508,1855
9509,1861
9510,1865
9511,1863
9512,1854
9513,1845
9514,1858
9515,1872
9516,1882
9517,1328
9518,1878
9519,2144
9520,2382
9521,2128
9522,1988
9523,2026
9524,1872
9525,1873
9526,1835
9527,1675
9528,1584
9529,1694
9530,1797
9531,1837
9532,1833
9533,1808
9534,1809
9535,1834
9536,1856
9537,1867
9538,1872
9539,1875
9540,1872
9541,1872
9542,1872
9543,1869
9544,1870
9545,1858
9546,1856
9547,1872
9548,528
9549,1840
9550,2085
9551,2430
9552,2241
9553,2032
9554,2044
9555,1836
9556,1834
9557,1809
9558,1648
9559,1559
9560,1684
9561,1793
9562,1819
9563,1812
9564,1806
9565,1808
9566,1840
9567,1856
9568,1859
9569,1871
9570,1877
9571,1885
9572,1898
9573,1899
9574,1879
9575,1872
9576,1872
9577,1870
9578,1861
9579,1442
9580,1754
9581,1943
9582,2362
9583,2347
9584,2044
9585,2147
9586,1872
9587,1841
9588,1808
9589,1655
9590,1527
9591,1651
9592,1790
9593,1823
9594,1822
9595,1791
9596,1779
9597,1811
9598,1847
9599,1872
9600,1883
9601,1898
9602,1899
9603,1891
9604,1888
9605,1882
9606,1872
9607,1863
9608,1863
9609,1869
9610,1871
9611,1626
9612,1873
9613,2243
9614,2470
9615,2106
9616,2202
9617,1901
9618,1803
9619,1802
9620,1663
9621,1520
9622,1633
9623,1762
9624,1805
9625,1815
9626,1808
9627,1797
9628,1805
9629,1823
9630,1847
9631,1872
9632,1889
9633,1903
9634,1905
9635,1899
9636,1889
9637,1872
9638,1869
9639,1873
9640,1872
9641,1863
9642,823
9643,1855
9644,2096
9645,2463
9646,2148
9647,2181
9648,1967
9649,1814
9650,1826
9651,1726
9652,1535
9653,1602
9654,1748
9655,1815
9656,1830
9657,1814
9658,1791
9659,1808
9660,1830
9661,1850
9662,1847
9663,1854
9664,1873
9665,1885
9666,1891
9667,1901
9668,1895
9669,1891
9670,1888
9671,1886
9672,1879
9673,717
9674,1816
9675,1983
9676,2437
9677,2286
9678,2140
9679,2022
9680,1792
9681,1795
9682,1723
9683,1557
9684,1594
9685,1745
9686,1814
9687,1840
9688,1834
9689,1809
9690,1808
9691,1825
9692,1849
9693,1879
9694,1887
9695,1868
9696,1854
9697,1861
9698,1883
9699,1883
9700,1884
9701,1887
9702,1886
9703,1883
9704,1883
9705,1717
9706,1904
9707,2297
9708,2391
9709,2080
9710,2177
9711,1822
9712,1770
9713,1744
9714,1584
9715,1535
9716,1717
9717,1837
9718,1851
9719,1847
9720,1815
9721,1814
9722,1829
9723,1851
9724,1858
9725,1868
9726,1874
9727,1872
9728,1867
9729,1858
9730,1867
9731,1875
9732,1883
9733,1887
9734,1894
9735,1894
9736,1502
9737,1888
9738,2182
9739,2463
9740,2111
9741,2240
9742,1871
9743,1789
9744,1769
9745,1597
9746,1490
9747,1658
9748,1791
9749,1849
9750,1861
9751,1835
9752,1820
9753,1821
9754,1846
9755,1858
9756,1862
9757,1872
9758,1886
9759,1886
9760,1872
9761,1867
9762,1857
9763,1860
9764,1874
9765,1879
9766,1891
9767,599
9768,1869
9769,2057
9770,2447
9771,2160
9772,2241
9773,1969
9774,1815
9775,1787
9776,1657
9777,1509
9778,1621
9779,1765
9780,1824
9781,1840
9782,1831
9783,1828
9784,1840
9785,1858
9786,1867
9787,1871
9788,1875
9789,1875
9790,1873
9791,1873
9792,1881
9793,1873
9794,1875
9795,1865
9796,1858
9797,1866
9798,1345
9799,1798
9800,1968
9801,2397
9802,2273
9803,2157
9804,2079
9805,1819
9806,1792
9807,1699
9808,1520
9809,1593
9810,1769
9811,1833
9812,1831
9813,1811
9814,1806
9815,1814
9816,1843
9817,1869
9818,1870
9819,1876
9820,1892
9821,1898
9822,1891
9823,1885
9824,1878
9825,1872
9826,1869
9827,1869
9828,1857
9829,1847
9830,1664
9831,1898
9832,2263
9833,2393
9834,2094
9835,2187
9836,1850
9837,1807
9838,1747
9839,1569
9840,1535
9841,1726
9842,1823
9843,1840
9844,1835
9845,1802
9846,1795
9847,1825
9848,1850
9849,1872
9850,1889
9851,1895
9852,1904
9853,1894
9854,1883
9855,1872
9856,1863
9857,1863
9858,1865
9859,1871
9860,1872
9861,1210
9862,1856
9863,2112
9864,2457
9865,2099
9866,2259
9867,1925
9868,1829
9869,1783
9870,1601
9871,1509
9872,1668
9873,1795
9874,1829
9875,1834
9876,1809
9877,1805
9878,1808
9879,1826
9880,1853
9881,1866
9882,1877
9883,1888
9884,1893
9885,1895
9886,1902
9887,1888
9888,1886
9889,1883
9890,1876
9891,1872
9892,813
9893,1809
9894,1971
9895,2406
9896,2211
9897,2211
9898,2026
9899,1826
9900,1797
9901,1671
9902,1517
9903,1619
9904,1771
9905,1826
9906,1836
9907,1819
9908,1801
9909,1806
9910,1826
9911,1851
9912,1851
9913,1866
9914,1881
9915,1891
9916,1895
9917,1897
9918,1879
9919,1877
9920,1874
9921,1872
9922,1868
9923,1862
9924,1733
9925,1909
9926,2319
9927,2363
9928,2101
9929,2105
9930,1805
9931,1772
9932,1714
9933,1535
9934,1600
9935,1776
9936,1840
9937,1843
9938,1829
9939,1808
9940,1810
9941,1830
9942,1854
9943,1868
9944,1873
9945,1868
9946,1857
9947,1870
9948,1882
9949,1891
9950,1895
9951,1885
9952,1879
9953,1877
9954,1875
9955,1872
9956,1869
9957,1857
9958,1856
9959,1863
9960,1862
9961,1854
9962,1842
9963,1847
9964,1857
9965,1866
9966,1872
9967,1877
9968,1874
9969,1872
9970,1869
9971,1869
9972,1863
9973,1859
9974,1854
9975,1855
9976,1855
9977,1854
9978,1840
9979,1833
9980,1840
9981,1856
9982,1869
9983,1869
9984,1872
9985,1871
9986,1868
9987,1871
9988,1866
9989,1856
9990,1856
9991,1847
9992,1853
9993,1852
9994,1855
9995,1846
9996,1844
9997,1859
9998,1867
9999,1872
10000,1877
10001,1872
10002,1866
10003,1861
10004,1858
10005,1857
10006,1853
10007,1853
10008,1853
10009,1857
10010,1856
10011,1852
10012,1834
10013,1840
10014,1846
10015,1858
10016,1872
10017,1876
10018,1868
10019,1869
10020,1863
10021,1864
10022,1865
10023,1856
10024,1851
10025,1855
10026,1856
10027,1857
10028,1841
10029,1837
10030,1845
10031,1856
10032,1870
10033,1875
10034,1875
10035,1874
10036,1872
10037,1869
10038,1864
10039,1859
10040,1857
10041,1853
10042,1854
10043,1849
10044,1841
10045,1839
10046,1840
10047,1851
10048,1858
10049,1871
10050,1877
10051,1870
10052,1872
10053,1872
10054,1868
10055,1862
10056,1858
10057,1856
10058,1853
10059,1855
10060,1856
10061,1855
10062,1839
10063,1843
10064,1856
10065,1863
10066,1872
10067,1875
10068,1871
10069,1870
10070,1869
10071,1867
10072,1856
10073,1848
10074,1847
10075,1846
10076,1850
10077,1847
10078,1840
10079,1841
10080,1853
10081,1858
10082,1869
10083,1873
10084,1872
10085,1872
10086,1870
10087,1869
10088,1865
10089,1859
10090,1853
10091,1850
10092,1857
10093,1854
10094,1856
10095,1843
10096,1843
10097,1855
10098,1865
10099,1872
10100,1877
10101,1873
10102,1866
10103,1862
10104,1862
10105,1861
10106,1854
10107,1851
10108,1853
10109,1847
10110,1851
10111,1846
10112,1840
10113,1845
10114,1855
10115,1868
10116,1872
10117,1877
10118,1872
10119,1871
10120,1865
10121,1867
10122,1858
10123,1857
10124,1853
10125,1856
10126,1859
10127,1859
10128,1850
10129,1844
10130,1855
10131,1866
10132,1879
10133,1901
10134,1902
10135,1879
10136,1855
10137,1823
10138,1830
10139,1837
10140,1841
10141,1843
10142,1853
10143,1858
10144,1861
10145,1845
10146,1840
10147,1855
10148,1859
10149,1867
10150,1872
10151,1872
10152,1881
10153,1882
10154,1877
10155,1862
10156,1857
10157,1853
10158,1855
10159,1857
10160,1856
10161,1854
10162,1840
10163,1840
10164,1851
10165,1861
10166,1869
10167,1867
10168,1872
10169,1871
10170,1866
10171,1865
10172,1861
10173,1859
10174,1857
10175,1862
10176,1863
10177,1862
10178,1845
10179,1840
10180,1847
10181,1854
10182,1858
10183,1872
10184,1872
10185,1872
10186,1868
10187,1864
10188,1866
10189,1861
10190,1856
10191,1856
10192,1855
10193,1855
10194,1856
10195,1846
10196,1845
10197,1861
10198,1868
10199,1872
10200,1874
10201,1872
10202,1870
10203,1867
10204,1867
10205,1869
10206,1859
10207,1857
10208,1855
10209,1857
10210,1862
10211,1855
10212,1843
10213,1851
10214,1866
10215,1871
10216,1873
10217,1878
10218,1871
10219,1865
10220,1862
10221,1863
10222,1859
10223,1855
10224,1851
10225,1853
10226,1855
10227,1851
10228,1843
10229,1845
10230,1856
10231,1869
10232,1872
10233,1872
10234,1874
10235,1889
10236,1879
10237,1876
10238,1870
10239,1860
10240,1858
10241,1865
10242,1863
10243,1857
10244,1856
10245,1847
10246,1845
10247,1859
10248,1865
10249,1875
10250,1875
10251,1869
10252,1865
10253,1862
10254,1863
10255,1860
10256,1856
10257,1855
10258,1863
10259,1860
10260,1862
10261,1856
10262,1844
10263,1852
10264,1862
10265,1872
10266,1874
10267,1875
10268,1873
10269,1872
10270,1872
10271,1867
10272,1866
10273,1860
10274,1857
10275,1859
10276,1859
10277,1861
10278,1848
10279,1844
10280,1859
10281,1867
10282,1868
10283,1871
10284,1871
10285,1870
10286,1867
10287,1869
10288,1867
10289,1863
10290,1861
10291,1858
10292,1862
10293,1861
10294,1857
10295,1847
10296,1847
10297,1859
10298,1867
10299,1872
10300,1873
10301,1874
10302,1872
10303,1870
10304,1867
10305,1865
10306,1859
10307,1856
10308,1859
10309,1861
10310,1861
10311,1856
10312,1842
10313,1849
10314,1856
10315,1867
10316,1871
10317,1875
10318,1870
10319,1873
10320,1869
10321,1870
10322,1864
10323,1862
10324,1855
10325,1859
10326,1859
10327,1862
10328,1849
10329,1845
10330,1857
10331,1868
10332,1872
10333,1874
10334,1875
10335,1872
10336,1871
10337,1870
10338,1870
10339,1863
10340,1858
10341,1856
10342,1854
10343,1854
10344,1851
10345,1841
10346,1846
10347,1858
10348,1861
10349,1872
10350,1873
10351,1869
10352,1872
10353,1868
10354,1867
10355,1865
10356,1862
10357,1858
10358,1856
10359,1857
10360,1859
10361,1855
10362,1845
10363,1858
10364,1866
10365,1871
10366,1872
10367,1875
10368,1874
10369,1872
10370,1867
10371,1869
10372,1858
10373,1853
10374,1851
10375,1856
10376,1853
10377,1851
10378,1849
10379,1846
10380,1857
10381,1866
10382,1872
10383,1874
10384,1875
10385,1872
10386,1871
10387,1870
10388,1866
10389,1861
10390,1858
10391,1857
10392,1859
10393,1859
10394,1856
10395,1846
10396,1848
10397,1858
10398,1869
10399,1872
10400,1877
10401,1876
10402,1867
10403,1859
10404,1859
10405,1858
10406,1856
10407,1855
10408,1856
10409,1859
10410,1859
10411,1856
10412,1846
10413,1855
10414,1863
10415,1870
10416,1873
10417,1875
10418,1870
10419,1870
10420,1867
10421,1866
10422,1863
10423,1858
10424,1856
10425,1857
10426,1856
10427,1861
10428,1849
10429,1847
10430,1858
10431,1867
10432,1870
10433,1872
10434,1870
10435,1866
10436,1863
10437,1858
10438,1855
10439,1859
10440,1858
10441,1856
10442,1860
10443,1863
10444,1858
10445,1847
10446,1845
10447,1859
10448,1871
10449,1872
10450,1877
10451,1866
10452,1871
10453,1869
10454,1869
10455,1867
10456,1857
10457,1857
10458,1858
10459,1856
10460,1858
10461,1855
10462,1841
10463,1848
10464,1858
10465,1864
10466,1872
10467,1867
10468,1872
10469,1871
10470,1869
10471,1869
10472,1859
10473,1859
10474,1854
10475,1857
10476,1858
10477,1857
10478,1847
10479,1850
10480,1859
10481,1867
10482,1872
10483,1877
10484,1874
10485,1872
10486,1868
10487,1868
10488,1866
10489,1862
10490,1856
10491,1857
10492,1855
10493,1855
10494,1851
10495,1843
10496,1845
10497,1862
10498,1870
10499,1871
10500,1874
10501,1872
10502,1872
10503,1867
10504,1870
10505,1860
10506,1861
10507,1856
10508,1856
10509,1858
10510,1861
10511,1851
10512,1844
10513,1855
10514,1862
10515,1870
10516,1874
10517,1872
10518,1872
10519,1862
10520,1859
10521,1861
10522,1857
10523,1855
10524,1851
10525,1853
10526,1856
10527,1853
10528,1840
10529,1846
10530,1857
10531,1867
10532,1871
10533,1875
10534,1873
10535,1872
10536,1871
10537,1867
10538,1863
10539,1861
10540,1856
10541,1856
10542,1857
10543,1858
10544,1854
10545,1846
10546,1847
10547,1861
10548,1867
10549,1872
10550,1865
10551,1873
10552,1866
10553,1859
10554,1861
10555,1856
10556,1856
10557,1847
10558,1849
10559,1856
10560,1862
10561,1851
10562,1841
10563,1856
10564,1866
10565,1872
10566,1873
10567,1872
10568,1872
10569,1871
10570,1870
10571,1868
10572,1862
10573,1858
10574,1855
10575,1860
10576,1861
10577,1859
10578,1849
10579,1846
10580,1859
10581,1870
10582,1866
10583,1872
10584,1871
10585,1868
10586,1862
10587,1870
10588,1866
10589,1859
10590,1857
10591,1857
10592,1861
10593,1858
10594,1856
10595,1845
10596,1850
10597,1861
10598,1871
10599,1874
10600,1872
10601,1872
10602,1872
10603,1868
10604,1866
10605,1863
10606,1859
10607,1857
10608,1858
10609,1857
10610,1857
10611,1850
10612,1840
10613,1850
10614,1857
10615,1864
10616,1870
10617,1874
10618,1869
10619,1867
10620,1869
10621,1868
10622,1862
10623,1858
10624,1857
10625,1857
10626,1857
10627,1856
10628,1846
10629,1847
10630,1857
10631,1866
10632,1872
10633,1874
10634,1874
10635,1871
10636,1870
10637,1869
10638,1866
10639,1863
10640,1856
10641,1856
10642,1855
10643,1853
10644,1846
10645,1840
10646,1843
10647,1851
10648,1858
10649,1872
10650,1876
10651,1868
10652,1872
10653,1869
10654,1866
10655,1863
10656,1857
10657,1855
10658,1857
10659,1856
10660,1858
10661,1851
10662,1846
10663,1856
10664,1866
10665,1872
10666,1872
10667,1872
10668,1872
10669,1869
10670,1867
10671,1867
10672,1856
10673,1853
10674,1851
10675,1855
10676,1853
10677,1852
10678,1846
10679,1844
10680,1857
10681,1867
10682,1872
10683,1875
10684,1873
10685,1872
10686,1867
10687,1865
10688,1863
10689,1860
10690,1856
10691,1855
10692,1858
10693,1858
10694,1855
10695,1846
10696,1851
10697,1862
10698,1867
10699,1873
10700,1872
10701,1873
10702,1862
10703,1861
10704,1858
10705,1856
10706,1855
10707,1856
10708,1858
10709,1857
10710,1857
10711,1847
10712,1843
10713,1856
10714,1863
10715,1870
10716,1872
10717,1874
10718,1865
10719,1868
10720,1868
10721,1867
10722,1859
10723,1856
10724,1854
10725,1857
10726,1856
10727,1858
10728,1847
10729,1847
10730,1857
10731,1871
10732,1867
10733,1867
10734,1870
10735,1865
10736,1862
10737,1861
10738,1856
10739,1857
10740,1855
10741,1855
10742,1858
10743,1861
10744,1856
10745,1846
10746,1853
10747,1859
10748,1867
10749,1872
10750,1874
10751,1869
10752,1869
10753,1867
10754,1866
10755,1862
10756,1861
10757,1855
10758,1858
10759,1857
10760,1859
10761,1847
10762,1840
10763,1852
10764,1858
10765,1865
10766,1871
10767,1868
10768,1872
10769,1871
10770,1866
10771,1866
10772,1861
10773,1857
10774,1853
10775,1856
10776,1856
10777,1857
10778,1850
10779,1847
10780,1859
10781,1870
10782,1873
10783,1874
10784,1872
10785,1871
10786,1871
10787,1863
10788,1865
10789,1859
10790,1857
10791,1856
10792,1855
10793,1854
10794,1846
10795,1840
10796,1843
10797,1862
10798,1868
10799,1874
10800,1875
10801,1872
10802,1869
10803,1867
10804,1867
10805,1861
10806,1859
10807,1855
10808,1859
10809,1856
10810,1858
10811,1851
10812,1842
10813,1856
10814,1862
10815,1871
10816,1872
10817,1873
10818,1868
10819,1861
10820,1861
10821,1858
10822,1856
10823,1852
10824,1856
10825,1855
10826,1852
10827,1850
10828,1839
10829,1846
10830,1858
10831,1866
10832,1872
10833,1875
10834,1872
10835,1872
10836,1867
10837,1868
10838,1861
10839,1858
10840,1855
10841,1856
10842,1857
10843,1859
10844,1853
10845,1843
10846,1851
10847,1860
10848,1871
10849,1872
10850,1872
10851,1865
10852,1863
10853,1862
10854,1862
10855,1855
10856,1854
10857,1850
10858,1857
10859,1860
10860,1860
10861,1849
10862,1842
10863,1856
10864,1865
10865,1872
10866,1873
10867,1873
10868,1872
10869,1870
10870,1866
10871,1866
10872,1861
10873,1856
10874,1856
10875,1859
10876,1858
10877,1859
10878,1849
10879,1846
10880,1859
10881,1868
10882,1866
10883,1871
10884,1870
10885,1865
10886,1861
10887,1867
10888,1866
10889,1859
10890,1856
10891,1855
10892,1856
10893,1857
10894,1855
10895,1843
10896,1852
10897,1861
10898,1871
10899,1872
10900,1874
10901,1872
10902,1870
10903,1866
10904,1866
10905,1862
10906,1857
10907,1855
10908,1857
10909,1857
10910,1858
10911,1851
10912,1840
10913,1849
10914,1856
10915,1866
10916,1869
10917,1873
10918,1866
10919,1869
10920,1866
10921,1866
10922,1861
10923,1857
10924,1855
10925,1858
10926,1857
10927,1857
10928,1846
10929,1846
10930,1859
10931,1868
10932,1872
10933,1875
10934,1874
10935,1872
10936,1870
10937,1867
10938,1863
10939,1860
10940,1856
10941,1856
10942,1855
10943,1851
10944,1846
10945,1839
10946,1846
10947,1853
10948,1863
10949,1874
10950,1873
10951,1869
10952,1871
10953,1867
10954,1866
10955,1862
10956,1642
10957,1903
10958,2245
10959,2448
10960,2391
10961,2195
10962,1836
10963,1650
10964,1790
10965,1824
10966,1919
10967,1954
10968,1842
10969,1684
10970,1648
10971,1695
10972,1750
10973,1776
10974,1773
10975,1770
10976,1769
10977,1774
10978,1787
10979,1808
10980,1840
10981,1858
10982,1874
10983,1883
10984,1881
10985,1875
10986,1872
10987,1315
10988,1888
10989,2192
10990,2429
10991,2384
10992,2167
10993,1787
10994,1695
10995,1771
10996,1826
10997,1910
10998,1855
10999,1712
11000,1647
11001,1684
11002,1772
11003,1809
11004,1809
11005,1797
11006,1797
11007,1813
11008,1830
11009,1846
11010,1858
11011,1856
11012,1855
11013,1875
11014,1883
11015,1895
11016,1898
11017,1894
11018,677
11019,1835
11020,2047
11021,2331
11022,2322
11023,2170
11024,1818
11025,1789
11026,1853
11027,1869
11028,1901
11029,1831
11030,1722
11031,1680
11032,1751
11033,1817
11034,1826
11035,1810
11036,1806
11037,1817
11038,1837
11039,1845
11040,1843
11041,1859
11042,1861
11043,1858
11044,1855
11045,1843
11046,1854
11047,1867
11048,1875
11049,1835
11050,1791
11051,1963
11052,2235
11053,2256
11054,2118
11055,1818
11056,1918
11057,1905
11058,1915
11059,1931
11060,1835
11061,1690
11062,1664
11063,1767
11064,1831
11065,1835
11066,1823
11067,1811
11068,1824
11069,1853
11070,1856
11071,1856
11072,1855
11073,1852
11074,1845
11075,1852
11076,1854
11077,1856
11078,1853
11079,1861
11080,1873
11081,1587
11082,1905
11083,2176
11084,2301
11085,2145
11086,1840
11087,2031
11088,1961
11089,1914
11090,1904
11091,1810
11092,1678
11093,1689
11094,1773
11095,1799
11096,1797
11097,1794
11098,1793
11099,1819
11100,1856
11101,1879
11102,1893
11103,1875
11104,1847
11105,1862
11106,1859
11107,1858
11108,1861
11109,1866
11110,1871
11111,1858
11112,723
11113,1840
11114,2037
11115,2288
11116,2194
11117,1907
11118,2086
11119,1938
11120,1930
11121,1888
11122,1783
11123,1644
11124,1674
11125,1781
11126,1815
11127,1808
11128,1769
11129,1771
11130,1799
11131,1835
11132,1856
11133,1874
11134,1883
11135,1886
11136,1889
11137,1881
11138,1872
11139,1866
11140,1855
11141,1858
11142,1866
11143,1039
11144,1774
11145,1921
11146,2288
11147,2279
11148,1942
11149,2118
11150,1943
11151,1887
11152,1875
11153,1766
11154,1614
11155,1647
11156,1773
11157,1808
11158,1818
11159,1807
11160,1791
11161,1790
11162,1808
11163,1841
11164,1866
11165,1890
11166,1905
11167,1899
11168,1891
11169,1879
11170,1873
11171,1869
11172,1866
11173,1869
11174,1871
11175,1697
11176,1904
11177,2258
11178,2384
11179,2030
11180,2112
11181,1938
11182,1866
11183,1859
11184,1758
11185,1578
11186,1595
11187,1749
11188,1813
11189,1822
11190,1811
11191,1802
11192,1808
11193,1831
11194,1845
11195,1847
11196,1860
11197,1875
11198,1887
11199,1891
11200,1899
11201,1885
11202,1878
11203,1874
11204,1877
11205,1874
11206,1180
11207,1861
11208,2113
11209,2430
11210,2160
11211,2070
11212,1955
11213,1813
11214,1833
11215,1766
11216,1595
11217,1590
11218,1741
11219,1829
11220,1853
11221,1841
11222,1813
11223,1807
11224,1818
11225,1840
11226,1863
11227,1872
11228,1865
11229,1863
11230,1879
11231,1877
11232,1885
11233,1889
11234,1887
11235,1887
11236,1882
11237,528
11238,1849
11239,2002
11240,2395
11241,2249
11242,2082
11243,2068
11244,1813
11245,1809
11246,1767
11247,1587
11248,1557
11249,1731
11250,1821
11251,1837
11252,1839
11253,1813
11254,1809
11255,1827
11256,1851
11257,1882
11258,1885
11259,1891
11260,1862
11261,1835
11262,1827
11263,1859
11264,1872
11265,1882
11266,1895
11267,1893
11268,1888
11269,1760
11270,1920
11271,2321
11272,2378
11273,2039
11274,2170
11275,1866
11276,1831
11277,1773
11278,1591
11279,1507
11280,1665
11281,1793
11282,1841
11283,1853
11284,1831
11285,1812
11286,1824
11287,1849
11288,1858
11289,1859
11290,1869
11291,1872
11292,1878
11293,1881
11294,1868
11295,1855
11296,1867
11297,1875
11298,1886
11299,1891
11300,1556
11301,1902
11302,2201
11303,2433
11304,2064
11305,2203
11306,1896
11307,1825
11308,1808
11309,1664
11310,1520
11311,1619
11312,1762
11313,1825
11314,1842
11315,1827
11316,1817
11317,1831
11318,1841
11319,1867
11320,1872
11321,1877
11322,1884
11323,1878
11324,1877
11325,1878
11326,1873
11327,1867
11328,1854
11329,1851
11330,1869
11331,645
11332,1863
11333,2055
11334,2440
11335,2178
11336,2175
11337,1985
11338,1809
11339,1813
11340,1707
11341,1535
11342,1613
11343,1773
11344,1815
11345,1818
11346,1823
11347,1808
11348,1824
11349,1852
11350,1872
11351,1872
11352,1879
11353,1886
11354,1887
11355,1882
11356,1877
11357,1867
11358,1862
11359,1863
11360,1868
11361,1856
11362,1215
11363,1809
11364,1938
11365,2367
11366,2284
11367,2112
11368,2121
11369,1867
11370,1854
11371,1757
11372,1558
11373,1572
11374,1719
11375,1803
11376,1836
11377,1826
11378,1791
11379,1792
11380,1822
11381,1854
11382,1872
11383,1887
11384,1892
11385,1890
11386,1894
11387,1890
11388,1882
11389,1872
11390,1867
11391,1872
11392,1863
11393,1869
11394,1729
11395,1873
11396,2243
11397,2353
11398,2081
11399,2227
11400,1890
11401,1859
11402,1793
11403,1599
11404,1557
11405,1703
11406,1797
11407,1829
11408,1832
11409,1807
11410,1799
11411,1802
11412,1826
11413,1859
11414,1879
11415,1889
11416,1899
11417,1899
11418,1881
11419,1874
11420,1875
11421,1869
11422,1866
11423,1866
11424,1861
11425,1263
11426,1872
11427,2075
11428,2375
11429,2072
11430,2263
11431,1947
11432,1850
11433,1823
11434,1667
11435,1535
11436,1673
11437,1803
11438,1836
11439,1837
11440,1810
11441,1804
11442,1811
11443,1839
11444,1840
11445,1842
11446,1866
11447,1883
11448,1888
11449,1895
11450,1892
11451,1886
11452,1884
11453,1882
11454,1875
11455,1868
11456,530
11457,1840
11458,1985
11459,2387
11460,2143
11461,2194
11462,1998
11463,1840
11464,1823
11465,1697
11466,1535
11467,1643
11468,1787
11469,1852
11470,1856
11471,1838
11472,1808
11473,1807
11474,1826
11475,1853
11476,1873
11477,1872
11478,1855
11479,1860
11480,1874
11481,1893
11482,1894
11483,1888
11484,1886
11485,1878
11486,1874
11487,1877
11488,1767
11489,1911
11490,2311
11491,2322
11492,2107
11493,2147
11494,1847
11495,1806
11496,1733
11497,1559
11498,1587
11499,1751
11500,1840
11501,1831
11502,1837
11503,1825
11504,1829
11505,1843
11506,1855
11507,1858
11508,1872
11509,1886
11510,1871
11511,1857
11512,1866
11513,1869
11514,1870
11515,1879
11516,1887
11517,1893
11518,1887
11519,1639
11520,1904
11521,2239
11522,2423
11523,2069
11524,2219
11525,1870
11526,1819
11527,1755
11528,1567
11529,1523
11530,1695
11531,1811
11532,1850
11533,1856
11534,1829
11535,1805
11536,1819
11537,1842
11538,1866
11539,1887
11540,1877
11541,1881
11542,1861
11543,1847
11544,1845
11545,1835
11546,1840
11547,1861
11548,1874
11549,1892
11550,880
11551,1878
11552,2077
11553,2457
11554,2133
11555,2239
11556,1947
11557,1808
11558,1793
11559,1649
11560,1514
11561,1627
11562,1766
11563,1828
11564,1845
11565,1839
11566,1822
11567,1829
11568,1849
11569,1863
11570,1874
11571,1885
11572,1883
11573,1881
11574,1874
11575,1872
11576,1861
11577,1850
11578,1839
11579,1856
11580,1869
11581,1881
11582,1890
11583,1893
11584,1889
11585,1881
11586,1878
11587,1873
11588,1870
11589,1861
11590,1855
11591,1856
11592,1857
11593,1859
11594,1846
11595,1838
11596,1851
11597,1862
11598,1871
11599,1876
11600,1878
11601,1872
11602,1872
11603,1861
11604,1858
11605,1847
11606,1843
11607,1847
11608,1851
11609,1847
11610,1847
11611,1839
11612,1839
11613,1854
11614,1865
11615,1872
11616,1872
11617,1872
11618,1869
11619,1872
11620,1866
11621,1865
11622,1861
11623,1853
11624,1852
11625,1856
11626,1854
11627,1845
11628,1839
11629,1847
11630,1860
11631,1872
11632,1872
11633,1871
11634,1867
11635,1863
11636,1861
11637,1856
11638,1850
11639,1852
11640,1850
11641,1856
11642,1859
11643,1857
11644,1843
11645,1839
11646,1844
11647,1858
11648,1870
11649,1878
11650,1878
11651,1869
11652,1871
11653,1867
11654,1866
11655,1859
11656,1855
11657,1851
11658,1853
11659,1855
11660,1853
11661,1840
11662,1841
11663,1854
11664,1860
11665,1868
11666,1872
11667,1871
11668,1869
11669,1871
11670,1868
11671,1861
11672,1857
11673,1851
11674,1856
11675,1855
11676,1856
11677,1844
11678,1840
11679,1847
11680,1858
11681,1872
11682,1873
11683,1874
11684,1872
11685,1866
11686,1862
11687,1863
11688,1867
11689,1857
11690,1855
11691,1856
11692,1855
11693,1855
11694,1840
11695,1835
11696,1847
11697,1863
11698,1872
11699,1874
11700,1873
11701,1872
11702,1865
11703,1868
11704,1865
11705,1857
11706,1856
11707,1851
11708,1857
11709,1855
11710,1852
11711,1840
11712,1842
11713,1856
11714,1865
11715,1872
11716,1872
11717,1872
11718,1865
11719,1860
11720,1857
11721,1856
11722,1854
11723,1842
11724,1846
11725,1850
11726,1854
11727,1841
11728,1834
11729,1843
11730,1856
11731,1869
11732,1875
11733,1873
11734,1871
11735,1871
11736,1868
11737,1866
11738,1861
11739,1853
11740,1850
11741,1853
11742,1856
11743,1856
11744,1842
11745,1840
11746,1854
11747,1866
11748,1872
11749,1878
11750,1875
11751,1865
11752,1861
11753,1862
11754,1857
11755,1853
11756,1848
11757,1844
11758,1861
11759,1861
11760,1856
11761,1841
11762,1843
11763,1850
11764,1861
11765,1872
11766,1872
11767,1872
11768,1872
11769,1869
11770,1866
11771,1863
11772,1857
11773,1853
11774,1855
11775,1857
11776,1856
11777,1849
11778,1842
11779,1852
11780,1863
11781,1870
11782,1875
11783,1865
11784,1862
11785,1862
11786,1861
11787,1862
11788,1865
11789,1856
11790,1854
11791,1856
11792,1857
11793,1859
11794,1847
11795,1845
11796,1855
11797,1859
11798,1868
11799,1877
11800,1875
11801,1872
11802,1872
11803,1866
11804,1861
11805,1857
11806,1851
11807,1854
11808,1857
11809,1856
11810,1853
11811,1841
11812,1847
11813,1851
11814,1859
11815,1861
11816,1867
11817,1872
11818,1870
11819,1870
11820,1867
11821,1863
11822,1857
11823,1855
11824,1856
11825,1857
11826,1857
11827,1852
11828,1843
11829,1855
11830,1865
11831,1872
11832,1874
11833,1876
11834,1872
11835,1871
11836,1867
11837,1867
11838,1866
11839,1859
11840,1856
11841,1860
11842,1859
11843,1856
11844,1846
11845,1843
11846,1856
11847,1855
11848,1859
11849,1872
11850,1876
11851,1867
11852,1871
11853,1869
11854,1866
11855,1865
11856,1857
11857,1857
11858,1860
11859,1857
11860,1855
11861,1845
11862,1850
11863,1862
11864,1870
11865,1873
11866,1875
11867,1872
11868,1872
11869,1868
11870,1871
11871,1870
11872,1866
11873,1855
11874,1854
11875,1855
11876,1856
11877,1842
11878,1844
11879,1856
11880,1867
11881,1872
11882,1877
11883,1875
11884,1873
11885,1872
11886,1872
11887,1867
11888,1865
11889,1859
11890,1856
11891,1865
11892,1863
11893,1859
11894,1851
11895,1849
11896,1858
11897,1866
11898,1872
11899,1875
11900,1876
11901,1872
11902,1872
11903,1863
11904,1858
11905,1856
11906,1854
11907,1858
11908,1860
11909,1861
11910,1857
11911,1847
11912,1855
11913,1861
11914,1871
11915,1872
11916,1877
11917,1873
11918,1865
11919,1867
11920,1867
