Time(ms),Raw_ADC,ENV_Value,RMS,MDF,MW_Amp,MW_Area,MW_Latency,MW_Valid,Marker
0,1861.0,1.7,0.0,0.0,0.0,0.0,0.0,0,
100,1860.7,2.7,0.0,0.0,0.0,0.0,0.0,0,
200,1861.0,1.8,0.0,0.0,0.0,0.0,0.0,0,
300,1849.7,201.3,0.0,0.0,0.0,0.0,0.0,0,
400,1906.1,263.9,0.0,0.0,0.0,0.0,0.0,0,
504,1829.8,29.6,0.0,67.9,0.0,0.0,0.0,0,
604,1854.7,8.7,0.0,68.4,0.0,0.0,0.0,0,
704,1859.4,3.1,0.0,68.7,0.0,0.0,0.0,0,
804,1862.0,1.9,0.0,68.7,0.0,0.0,0.0,0,
904,1860.2,2.2,0.0,69.2,0.0,0.0,0.0,0,
1004,1860.5,2.5,0.0,80.1,0.0,0.0,0.0,0,
1104,1860.0,3.0,0.0,89.6,0.0,0.0,0.0,0,
1204,1858.7,3.7,0.0,99.5,0.0,0.0,0.0,0,
1304,1858.3,3.5,0.0,99.7,0.0,0.0,0.0,0,
1404,1859.0,2.9,0.0,100.8,0.0,0.0,0.0,0,
1504,1859.7,241.0,0.0,69.6,0.0,0.0,0.0,0,
1604,1866.8,229.5,159.4,67.4,0.0,0.0,0.0,0,
1704,1854.0,66.2,173.9,67.6,0.0,0.0,0.0,0,
1805,1858.6,8.1,173.9,68.2,0.0,0.0,0.0,0,
1905,1860.0,4.3,170.4,68.7,0.0,0.0,0.0,0,
2005,1864.0,6.1,147.4,68.8,0.0,0.0,0.0,0,
2105,1868.4,10.1,130.1,69.4,0.0,0.0,0.0,0,
2205,1872.7,9.6,130.1,94.2,0.0,0.0,0.0,0,
2305,1866.5,7.4,130.1,93.8,0.0,0.0,0.0,0,
2405,1862.5,5.5,130.2,100.7,0.0,0.0,0.0,0,
2605,1857.2,4.3,130.2,82.7,0.0,0.0,0.0,0,
2705,1858.9,184.0,139.8,78.1,0.0,0.0,0.0,0,
2805,1850.4,286.4,161.1,70.3,0.0,0.0,0.0,0,
2905,1876.7,91.1,179.6,69.0,0.0,0.0,0.0,0,
3005,1859.9,9.0,179.6,68.8,0.0,0.0,0.0,0,
3105,1855.9,4.8,175.4,72.4,0.0,0.0,0.0,0,
3205,1865.2,6.7,149.4,89.3,0.0,0.0,0.0,0,
3305,1865.0,3.8,124.0,80.8,0.0,0.0,0.0,0,
3405,1862.5,3.1,123.9,90.6,0.0,0.0,0.0,0,
3605,1861.6,2.4,123.9,104.4,0.0,0.0,0.0,0,
3705,1859.8,3.2,123.9,100.4,0.0,0.0,0.0,0,
3805,1858.6,3.8,123.9,100.5,0.0,0.0,0.0,0,
3905,1863.4,198.4,126.5,227.1,0.0,0.0,0.0,0,
4005,1867.4,238.3,156.5,68.7,0.0,0.0,0.0,0,
4105,1856.7,249.1,180.7,67.8,0.0,0.0,0.0,0,
4205,1861.0,293.7,200.4,68.2,0.0,0.0,0.0,0,
4305,1859.9,223.7,215.5,71.0,0.0,0.0,0.0,0,
4405,1892.0,207.5,216.3,99.8,0.0,0.0,0.0,0,
4605,1859.7,19.7,210.6,94.7,0.0,0.0,0.0,0,
4705,1849.3,10.0,210.7,94.3,0.0,0.0,0.0,0,
4805,1856.4,6.7,210.7,94.1,0.0,0.0,0.0,0,
4905,1858.5,5.2,210.7,93.1,0.0,0.0,0.0,0,
5005,1860.4,3.8,210.7,81.4,0.0,0.0,0.0,0,
5105,1859.6,3.7,210.7,94.7,0.0,0.0,0.0,0,
5205,1859.3,3.7,210.7,84.5,0.0,0.0,0.0,0,
5305,1858.7,2.9,210.7,87.3,0.0,0.0,0.0,0,
5405,1859.4,2.7,210.7,99.3,0.0,0.0,0.0,0,
5605,1850.9,268.9,210.2,69.7,0.0,0.0,0.0,0,
5705,1877.3,269.6,209.6,68.5,0.0,0.0,0.0,0,
5805,1885.2,248.4,206.6,68.6,0.0,0.0,0.0,0,
5905,1864.5,186.8,202.2,70.1,0.0,0.0,0.0,0,
6005,1866.0,117.7,196.9,130.3,969.0,5060.0,17.0,1,
6105,1863.6,141.2,189.7,159.0,906.0,4909.0,17.0,1,
6205,1873.0,19.4,188.2,155.4,806.0,4756.0,17.0,1,
6305,1851.0,18.1,188.2,101.7,806.0,4756.0,17.0,1,
6405,1849.2,11.5,188.2,92.9,806.0,4756.0,17.0,1,
6605,1858.1,3.6,188.3,82.7,806.0,4756.0,17.0,1,
6705,1860.0,4.3,188.3,88.0,806.0,4756.0,17.0,1,
6805,1857.9,2.7,188.3,92.7,806.0,4756.0,17.0,1,
6905,1859.6,2.8,188.3,85.8,806.0,4756.0,17.0,1,
7005,1861.0,2.5,188.3,82.9,806.0,4756.0,17.0,1,
7105,1861.0,2.3,188.3,98.7,806.0,4756.0,17.0,1,
7205,1847.0,403.8,194.6,68.9,1117.0,5552.0,26.0,0,
7305,1901.8,207.5,198.1,65.6,1422.0,5903.0,28.0,0,
7405,1840.7,227.0,190.9,40.0,1210.0,4981.0,28.0,0,
7605,1865.9,241.2,187.3,66.8,1450.0,5068.0,28.0,0,
7705,1861.3,245.6,192.4,43.8,1051.0,4338.0,26.0,0,
7805,1880.0,27.2,192.6,41.0,801.0,4867.0,17.0,1,
7905,1849.1,17.2,192.6,35.9,801.0,4867.0,17.0,1,
8005,1858.7,9.4,192.7,36.8,801.0,4867.0,17.0,1,
8105,1851.4,7.3,192.7,55.7,801.0,4867.0,17.0,1,
8205,1858.9,4.4,192.7,68.5,801.0,4867.0,17.0,1,
8305,1860.3,3.5,192.7,93.4,801.0,4867.0,17.0,1,
8405,1860.0,4.2,192.7,99.2,801.0,4867.0,17.0,1,
8605,1859.3,2.6,192.7,101.3,801.0,4867.0,17.0,1,
8705,1860.1,3.7,192.7,105.4,801.0,4867.0,17.0,1,
8805,1881.7,234.8,192.0,66.2,1343.0,7696.0,19.0,1,
8905,1850.3,220.7,176.0,68.1,1408.0,6776.0,18.0,1,
9005,1855.5,133.4,178.2,69.8,1176.0,5728.0,17.0,1,
9105,1862.9,145.7,170.9,80.8,964.0,5525.0,17.0,1,
9205,1882.8,125.3,161.4,93.2,849.0,5289.0,17.0,1,
9305,1868.9,161.9,154.8,90.2,749.0,4799.0,17.0,1,
9405,1862.2,38.7,152.5,69.4,695.0,4767.0,18.0,1,
9605,1852.2,6.7,152.4,89.9,695.0,4767.0,18.0,1,
9705,1857.7,5.4,152.4,91.6,695.0,4767.0,18.0,1,
9805,1859.1,3.3,152.4,80.9,695.0,4767.0,18.0,1,
9905,1859.5,2.4,152.4,99.5,695.0,4767.0,18.0,1,
10005,1862.7,3.3,152.4,102.4,695.0,4767.0,18.0,1,
10105,1859.7,2.6,152.4,106.3,695.0,4767.0,18.0,1,
10205,1860.2,3.5,152.4,101.8,695.0,4767.0,18.0,1,
10305,1862.2,3.2,152.4,92.8,695.0,4767.0,18.0,1,
10405,1860.7,154.2,152.1,67.3,1333.0,6981.0,20.0,1,
10605,1862.2,142.0,145.8,69.8,1087.0,5585.0,17.0,1,
10705,1893.0,142.5,144.7,72.5,858.0,5250.0,17.0,1,
10805,1845.9,135.0,147.4,93.9,846.0,5398.0,16.0,1,
10905,1864.9,95.0,146.9,68.3,712.0,4799.0,17.0,1,
11005,1871.1,51.4,142.7,40.7,669.0,4635.0,17.0,1,
11105,1860.1,9.6,142.7,41.4,669.0,4635.0,17.0,1,
11205,1855.7,11.3,142.7,66.7,669.0,4635.0,17.0,1,
11305,1853.8,13.8,142.7,71.3,669.0,4635.0,17.0,1,
11405,1857.8,5.1,142.7,72.5,669.0,4635.0,17.0,1,
11605,1859.2,3.5,142.7,78.5,669.0,4635.0,17.0,1,
11705,1859.0,3.2,142.7,101.8,669.0,4635.0,17.0,1,
11805,1859.9,3.4,142.7,93.9,669.0,4635.0,17.0,1,
11905,1858.8,2.6,142.7,98.8,669.0,4635.0,17.0,1,
12005,1857.5,124.3,141.7,107.6,669.0,4635.0,17.0,1,
12105,1860.2,224.3,142.3,69.0,1402.0,6714.0,17.0,1,
12205,1891.6,126.8,142.6,69.7,1177.0,5875.0,17.0,1,
12305,1851.3,100.3,147.1,71.1,906.0,5298.0,17.0,1,
12405,1850.2,98.9,144.9,78.3,794.0,4819.0,17.0,1,
12605,1876.0,90.0,141.1,92.8,607.0,4248.0,18.0,1,
12705,1862.9,11.3,140.9,65.7,607.0,4248.0,18.0,1,
12805,1849.8,12.5,140.9,66.7,607.0,4248.0,18.0,1,
12905,1855.5,6.5,140.9,67.1,607.0,4248.0,18.0,1,
13005,1860.6,3.2,140.9,67.1,607.0,4248.0,18.0,1,
13105,1860.0,4.0,140.8,57.4,607.0,4248.0,18.0,1,
13205,1858.3,4.5,140.8,73.8,607.0,4248.0,18.0,1,
13305,1859.1,2.3,140.8,100.2,607.0,4248.0,18.0,1,
13405,1859.8,2.5,140.8,108.7,607.0,4248.0,18.0,1,
13605,1860.5,48.3,140.9,109.9,607.0,4248.0,18.0,1,
13705,1868.4,157.5,143.7,66.7,1301.0,7542.0,18.0,1,
13805,1868.1,153.2,143.8,67.8,1117.0,6303.0,17.0,1,
13905,1861.3,147.4,138.9,68.7,834.0,5469.0,16.0,1,
14005,1858.2,116.4,140.5,68.2,679.0,5073.0,17.0,1,
14105,1893.5,139.9,141.6,66.8,683.0,4887.0,17.0,1,
14206,1857.2,123.2,143.4,38.8,667.0,4565.0,16.0,1,
14306,1865.2,17.0,143.3,38.3,635.0,4290.0,17.0,1,
14406,1849.6,15.0,143.3,39.6,635.0,4290.0,17.0,1,
14606,1855.6,5.1,143.3,69.8,635.0,4290.0,17.0,1,
14706,1859.3,3.7,143.3,71.2,635.0,4290.0,17.0,1,
14806,1859.8,2.7,143.3,77.0,635.0,4290.0,17.0,1,
14906,1860.7,2.3,143.3,101.0,635.0,4290.0,17.0,1,rest_end
15006,1863.8,3.4,143.3,101.3,635.0,4290.0,17.0,1,
15106,1862.5,3.1,143.3,99.9,635.0,4290.0,17.0,1,
15206,1862.6,2.7,143.3,84.9,635.0,4290.0,17.0,1,
15306,1844.9,171.9,140.3,68.6,1219.0,7309.0,19.0,1,
15406,1879.5,207.7,137.4,68.4,1074.0,6426.0,18.0,1,
15606,1877.5,75.5,128.5,69.1,662.0,4823.0,16.0,1,
15706,1863.7,131.9,125.2,76.3,748.0,4725.0,17.0,1,
15806,1845.8,77.2,123.6,93.8,617.0,4189.0,17.0,1,
15906,1880.9,21.3,120.7,79.0,605.0,3859.0,18.0,1,
16006,1857.8,13.8,120.6,53.2,605.0,3859.0,18.0,1,
16106,1849.4,8.3,120.7,65.8,605.0,3859.0,18.0,1,
16206,1857.3,5.0,120.6,65.9,605.0,3859.0,18.0,1,
16306,1858.1,3.5,120.6,65.9,605.0,3859.0,18.0,1,
16406,1860.6,3.0,120.7,99.0,605.0,3859.0,18.0,1,
16606,1859.8,3.2,120.7,70.9,605.0,3859.0,18.0,1,
16706,1859.8,2.2,120.6,83.6,605.0,3859.0,18.0,1,
16806,1860.9,3.6,120.6,84.6,605.0,3859.0,18.0,1,
16906,1844.7,208.3,119.2,68.2,1201.0,6768.0,19.0,1,
17006,1891.8,183.1,122.1,67.9,1043.0,6038.0,18.0,1,
17106,1856.2,106.0,121.4,67.3,775.0,5402.0,17.0,1,
17206,1860.1,83.1,121.4,67.0,710.0,5245.0,16.0,1,
17306,1863.1,132.2,127.5,67.1,666.0,4692.0,16.0,1,
17406,1851.0,109.7,126.5,93.0,623.0,4370.0,17.0,1,
17606,1854.2,17.1,127.4,30.1,623.0,4370.0,17.0,1,
17706,1853.8,9.7,127.4,56.4,623.0,4370.0,17.0,1,
17806,1849.2,10.6,127.5,65.7,623.0,4370.0,17.0,1,
17906,1857.7,4.6,127.5,65.6,623.0,4370.0,17.0,1,
18006,1862.0,2.9,127.5,90.2,623.0,4370.0,17.0,1,
18106,1861.6,2.6,127.5,99.2,623.0,4370.0,17.0,1,
18206,1861.0,2.1,127.4,99.3,623.0,4370.0,17.0,1,
18306,1861.2,2.6,127.4,99.1,623.0,4370.0,17.0,1,
18406,1861.6,2.6,127.4,99.2,623.0,4370.0,17.0,1,
18606,1847.2,142.7,125.6,67.4,1150.0,7072.0,18.0,1,
18706,1863.0,187.0,126.0,67.7,855.0,6103.0,17.0,1,
18806,1875.5,150.8,131.7,67.4,679.0,5385.0,17.0,1,
18906,1875.7,149.7,129.3,67.3,731.0,4945.0,18.0,1,
19006,1871.9,114.1,131.4,39.6,658.0,4460.0,18.0,1,
19106,1869.5,82.6,131.6,36.6,686.0,4348.0,18.0,1,
19206,1850.9,17.8,131.7,38.3,686.0,4348.0,18.0,1,
19306,1845.2,8.8,131.7,40.0,686.0,4348.0,18.0,1,
19406,1856.2,12.5,131.7,55.1,686.0,4348.0,18.0,1,
19606,1858.8,3.0,131.7,67.2,686.0,4348.0,18.0,1,
19706,1860.4,2.3,131.7,100.5,686.0,4348.0,18.0,1,
19806,1860.1,3.0,131.7,112.2,686.0,4348.0,18.0,1,
19906,1860.9,2.9,131.7,108.8,686.0,4348.0,18.0,1,
20006,1859.6,2.5,131.7,105.9,686.0,4348.0,18.0,1,
20106,1860.6,13.0,131.7,101.0,686.0,4348.0,18.0,1,
20206,1858.5,181.3,128.3,67.0,1120.0,7209.0,18.0,1,
20306,1863.0,153.8,127.9,67.1,821.0,5732.0,17.0,1,
20406,1891.1,124.8,122.3,67.0,763.0,5675.0,17.0,1,
20606,1861.6,128.7,117.0,67.3,622.0,4221.0,17.0,1,
20706,1862.7,122.8,118.7,67.1,572.0,3702.0,18.0,1,
20806,1867.5,16.9,118.6,65.6,641.0,3986.0,18.0,1,
20906,1846.2,10.3,118.6,65.6,641.0,3986.0,18.0,1,
21006,1854.5,12.5,118.6,65.6,641.0,3986.0,18.0,1,
21106,1857.5,7.2,118.6,54.1,641.0,3986.0,18.0,1,
21206,1856.8,6.6,118.6,72.4,641.0,3986.0,18.0,1,
21306,1863.6,3.0,118.6,100.2,641.0,3986.0,18.0,1,
21406,1862.1,3.2,118.6,99.6,641.0,3986.0,18.0,1,
21606,1861.7,2.6,118.6,101.3,641.0,3986.0,18.0,1,
21706,1861.2,2.4,118.6,101.6,641.0,3986.0,18.0,1,
21806,1850.3,256.0,122.1,65.7,1057.0,7105.0,18.0,1,
21906,1898.9,122.2,121.3,66.6,847.0,6081.0,17.0,1,
22006,1863.5,98.5,125.2,66.6,668.0,5042.0,18.0,1,
22106,1849.4,212.6,125.0,66.7,614.0,4552.0,17.0,1,
22206,1870.5,127.3,129.4,66.1,549.0,3798.0,17.0,1,
22306,1880.5,147.4,131.1,39.7,482.0,3454.0,18.0,1,
22406,1864.8,25.4,131.8,39.0,540.0,3439.0,18.0,1,
22606,1845.7,10.6,131.9,40.2,540.0,3439.0,18.0,1,
22706,1855.4,7.8,131.9,42.9,540.0,3439.0,18.0,1,
22806,1858.7,3.8,131.9,73.1,540.0,3439.0,18.0,1,
22906,1861.5,3.6,131.9,101.0,540.0,3439.0,18.0,1,
23006,1856.8,4.9,131.9,116.3,540.0,3439.0,18.0,1,
23106,1858.1,3.1,131.9,133.0,540.0,3439.0,18.0,1,
23206,1860.6,3.3,131.9,108.3,540.0,3439.0,18.0,1,
23306,1860.1,3.8,131.9,93.2,540.0,3439.0,18.0,1,
23406,1881.1,198.0,134.5,55.2,1129.0,7290.0,19.0,1,
23606,1864.0,120.4,125.6,66.9,702.0,4661.0,18.0,1,
23706,1856.2,134.1,126.1,66.9,625.0,3855.0,18.0,1,
23806,1887.4,155.3,127.0,67.0,498.0,3484.0,18.0,1,
23906,1871.7,145.9,126.5,47.6,458.0,3132.0,18.0,1,
24006,1859.7,36.5,125.6,36.9,450.0,3011.0,18.0,1,
24106,1857.8,15.5,125.6,38.9,450.0,3011.0,18.0,1,
24206,1853.2,8.2,125.6,42.2,450.0,3011.0,18.0,1,
24306,1853.4,13.0,125.6,42.3,450.0,3011.0,18.0,1,
24406,1855.0,5.9,125.6,55.1,450.0,3011.0,18.0,1,
24606,1862.2,3.2,125.6,91.5,450.0,3011.0,18.0,1,
24706,1860.4,2.8,125.6,83.0,450.0,3011.0,18.0,1,
24806,1861.8,2.2,125.6,101.8,450.0,3011.0,18.0,1,
24906,1861.7,3.1,125.6,123.3,450.0,3011.0,18.0,1,
25006,1852.2,171.9,125.2,55.2,1082.0,6395.0,21.0,1,
25106,1868.1,196.7,123.3,66.0,940.0,6289.0,19.0,1,
25206,1871.1,136.5,123.0,66.5,676.0,4995.0,17.0,1,
25306,1886.5,120.4,122.5,66.7,597.0,4379.0,17.0,1,
25406,1873.5,130.9,121.2,66.8,568.0,3872.0,18.0,1,
25606,1880.8,48.8,116.9,35.7,473.0,3035.0,18.0,1,
25706,1863.0,14.6,116.9,70.3,473.0,3035.0,18.0,1,
25806,1846.3,13.3,116.9,67.2,473.0,3035.0,18.0,1,
25906,1849.1,11.8,116.9,66.0,473.0,3035.0,18.0,1,
26006,1855.7,3.8,116.9,53.9,473.0,3035.0,18.0,1,
26106,1860.1,2.8,116.9,67.1,473.0,3035.0,18.0,1,
26206,1858.9,3.4,116.8,86.3,473.0,3035.0,18.0,1,
26306,1858.4,4.7,116.8,100.5,473.0,3035.0,18.0,1,
26406,1857.7,4.3,116.8,102.4,473.0,3035.0,18.0,1,
26606,1850.6,129.3,116.8,100.3,473.0,3035.0,18.0,1,
26706,1878.0,204.9,116.9,65.8,924.0,6204.0,19.0,1,
26806,1875.9,158.1,117.6,66.3,766.0,5385.0,18.0,1,
26906,1865.5,135.6,119.5,66.5,615.0,4420.0,18.0,1,
27006,1862.2,157.0,117.1,66.6,558.0,3882.0,17.0,1,
27106,1858.9,118.0,117.5,65.7,504.0,3420.0,19.0,1,
27206,1884.9,93.2,119.1,46.3,523.0,3474.0,19.0,1,
27306,1865.8,12.4,119.2,51.5,523.0,3474.0,19.0,1,
27406,1849.0,11.5,119.2,66.1,523.0,3474.0,19.0,1,
27606,1853.9,10.0,119.2,67.6,523.0,3474.0,19.0,1,
27706,1856.4,3.3,119.2,82.6,523.0,3474.0,19.0,1,
27806,1861.3,2.6,119.2,78.8,523.0,3474.0,19.0,1,
27906,1860.0,3.9,119.2,82.4,523.0,3474.0,19.0,1,
28006,1860.0,2.6,119.2,99.6,523.0,3474.0,19.0,1,
28106,1860.2,2.6,119.2,122.6,523.0,3474.0,19.0,1,
28206,1859.7,4.3,119.3,114.1,523.0,3474.0,19.0,1,
28306,1867.2,185.9,117.6,55.7,960.0,6353.0,18.0,1,
28406,1852.0,145.3,116.4,65.8,732.0,5099.0,18.0,1,
28606,1867.5,146.7,114.2,66.6,576.0,3971.0,17.0,1,
28706,1885.2,109.8,112.6,66.7,518.0,3334.0,18.0,1,
28806,1875.3,60.0,110.4,65.8,467.0,3351.0,19.0,1,
28906,1855.0,13.3,110.2,77.2,525.0,3243.0,19.0,1,
29006,1850.5,15.4,110.2,81.4,525.0,3243.0,19.0,1,
29106,1849.2,8.9,110.2,67.4,525.0,3243.0,19.0,1,
29206,1855.2,6.1,110.2,66.8,525.0,3243.0,19.0,1,
29306,1858.1,2.9,110.2,70.3,525.0,3243.0,19.0,1,
29406,1861.9,2.9,110.2,91.3,525.0,3243.0,19.0,1,
29606,1859.5,3.8,110.2,113.8,525.0,3243.0,19.0,1,
29706,1859.6,3.7,110.2,100.3,525.0,3243.0,19.0,1,
29806,1859.4,3.8,110.2,90.8,525.0,3243.0,19.0,1,
29906,1844.0,199.5,110.6,53.2,954.0,6161.0,20.0,1,
30006,1867.6,164.9,109.3,56.6,830.0,5458.0,18.0,1,
30106,1894.5,153.2,110.4,66.2,659.0,4741.0,18.0,1,
30206,1867.5,110.2,111.5,66.6,605.0,3950.0,18.0,1,
30306,1878.5,98.0,109.8,66.3,511.0,3462.0,18.0,1,
30406,1856.5,80.2,108.6,50.3,518.0,3481.0,18.0,1,
30606,1861.9,14.0,108.6,92.8,518.0,3481.0,18.0,1,
30706,1850.5,8.8,108.6,67.1,518.0,3481.0,18.0,1,
30806,1849.2,7.3,108.6,66.7,518.0,3481.0,18.0,1,
30906,1855.8,4.4,108.6,70.6,518.0,3481.0,18.0,1,
31006,1860.5,2.4,108.6,103.7,518.0,3481.0,18.0,1,
31106,1859.7,3.3,108.6,93.7,518.0,3481.0,18.0,1,
31206,1858.3,3.7,108.6,94.6,518.0,3481.0,18.0,1,
31306,1858.9,3.6,108.6,110.2,518.0,3481.0,18.0,1,
31406,1858.2,3.3,108.6,132.6,518.0,3481.0,18.0,1,
31606,1895.6,158.8,109.3,54.8,822.0,5446.0,18.0,1,
31706,1866.0,160.9,108.8,65.9,624.0,4444.0,17.0,1,
31806,1850.1,186.7,109.6,66.3,606.0,3985.0,18.0,1,
31906,1874.0,100.9,112.5,66.6,562.0,3624.0,19.0,1,
32006,1861.2,120.9,113.9,65.9,520.0,3528.0,19.0,1,
32106,1881.0,32.2,114.0,66.9,459.0,3200.0,19.0,1,
32206,1864.3,5.4,114.1,79.0,459.0,3200.0,19.0,1,
32306,1852.3,9.9,114.1,67.1,459.0,3200.0,19.0,1,
32406,1857.3,4.7,114.1,67.0,459.0,3200.0,19.0,1,
32606,1858.6,2.6,114.1,77.8,459.0,3200.0,19.0,1,
32706,1860.6,2.9,114.1,102.7,459.0,3200.0,19.0,1,
32806,1863.9,3.0,114.1,113.2,459.0,3200.0,19.0,1,
32906,1859.9,3.6,114.2,116.9,459.0,3200.0,19.0,1,
33006,1856.1,8.4,114.1,116.5,459.0,3200.0,19.0,1,
33106,1867.1,171.0,113.9,76.7,992.0,5504.0,21.0,1,
33206,1855.8,141.4,112.5,45.0,811.0,5075.0,19.0,1,
33306,1849.6,136.3,112.4,65.5,650.0,4150.0,18.0,1,
33406,1863.3,149.8,118.2,66.2,481.0,3457.0,18.0,1,
33606,1868.2,57.7,120.0,35.9,448.0,3206.0,19.0,1,
33706,1868.3,53.2,118.0,29.4,441.0,3159.0,20.0,1,
33806,1857.0,9.7,118.0,38.7,441.0,3159.0,20.0,1,
33906,1850.2,16.0,118.1,66.3,441.0,3159.0,20.0,1,
34006,1849.3,8.4,118.1,66.4,441.0,3159.0,20.0,1,
34106,1854.9,5.8,118.1,66.4,441.0,3159.0,20.0,1,
34206,1858.2,3.7,118.1,73.6,441.0,3159.0,20.0,1,
34306,1859.7,2.7,118.1,90.4,441.0,3159.0,20.0,1,
34406,1860.2,2.9,118.1,109.7,441.0,3159.0,20.0,1,
34606,1861.4,2.7,118.1,107.5,441.0,3159.0,20.0,1,
34706,1860.5,28.5,118.1,107.8,441.0,3159.0,20.0,1,
34806,1858.3,265.9,124.3,38.1,870.0,5237.0,20.0,1,
34906,1867.4,196.7,127.6,37.7,641.0,4963.0,18.0,1,
35006,1891.4,161.6,123.1,38.8,727.0,4676.0,18.0,1,
35106,1877.3,100.3,121.2,44.2,614.0,4210.0,20.0,1,
35206,1855.7,139.0,121.2,39.9,579.0,3869.0,20.0,1,
35306,1862.9,86.6,123.0,40.4,584.0,3692.0,20.0,1,
35406,1869.6,10.5,123.1,83.9,514.0,3352.0,20.0,1,
35606,1860.8,4.1,123.2,66.7,514.0,3352.0,20.0,1,
35706,1857.5,6.1,123.2,66.9,514.0,3352.0,20.0,1,
35806,1857.0,7.3,123.2,76.9,514.0,3352.0,20.0,1,
35906,1855.7,6.1,123.2,85.0,514.0,3352.0,20.0,1,
36006,1854.8,6.7,123.1,90.5,514.0,3352.0,20.0,1,
36106,1857.7,4.1,123.1,99.7,514.0,3352.0,20.0,1,
36206,1858.9,4.1,123.1,99.8,514.0,3352.0,20.0,1,
36306,1857.7,8.3,123.1,99.9,514.0,3352.0,20.0,1,
36406,1863.9,280.4,125.4,35.9,872.0,6084.0,21.0,1,
36606,1865.3,200.8,127.1,37.3,595.0,4450.0,14.0,1,
36706,1855.2,115.2,123.3,65.7,633.0,4236.0,19.0,1,
36807,1852.5,81.1,123.5,66.5,527.0,3616.0,20.0,1,
36907,1883.7,72.0,121.6,67.0,474.0,3452.0,20.0,1,
37007,1860.4,17.0,121.4,93.5,488.0,3499.0,21.0,1,
37107,1850.5,12.7,121.4,88.8,488.0,3499.0,21.0,1,
37207,1857.3,6.3,121.4,65.7,488.0,3499.0,21.0,1,
37307,1862.2,4.9,121.4,47.6,488.0,3499.0,21.0,1,
37407,1862.9,4.6,121.5,65.8,488.0,3499.0,21.0,1,
37607,1859.9,3.1,121.6,101.8,488.0,3499.0,21.0,1,
37707,1859.2,3.0,121.6,122.5,488.0,3499.0,21.0,1,
37807,1860.3,3.0,121.6,114.4,488.0,3499.0,21.0,1,
37907,1861.2,4.1,121.6,102.7,488.0,3499.0,21.0,1,
38007,1886.0,353.9,126.1,35.0,1365.0,6145.0,22.0,1,
38107,1841.7,287.6,135.9,35.3,728.0,5021.0,20.0,1,
38207,1863.0,198.5,137.5,35.6,597.0,4328.0,20.0,1,
38307,1860.7,150.5,138.0,36.6,510.0,3855.0,19.0,1,
38407,1874.9,72.6,138.0,67.0,652.0,4314.0,14.0,1,
38607,1839.6,30.0,138.6,93.4,524.0,3738.0,15.0,1,
38707,1856.2,12.3,138.6,93.0,524.0,3738.0,15.0,1,
38807,1856.4,5.8,138.6,65.5,524.0,3738.0,15.0,1,
38907,1868.8,8.0,138.7,39.6,524.0,3738.0,15.0,1,
39007,1865.3,4.9,138.7,42.5,524.0,3738.0,15.0,1,
39107,1856.9,6.0,138.7,91.9,524.0,3738.0,15.0,1,
39207,1856.6,4.6,138.6,89.5,524.0,3738.0,15.0,1,
39307,1857.5,5.8,138.6,102.2,524.0,3738.0,15.0,1,
39407,1857.9,3.6,138.6,109.9,524.0,3738.0,15.0,1,
39607,1852.4,274.1,138.1,46.2,905.0,5398.0,22.0,1,
39707,1863.2,281.6,137.1,35.4,1594.0,7317.0,23.0,1,
39807,1878.9,201.0,136.0,35.6,595.0,4784.0,15.0,1,
39907,1875.3,153.9,136.0,36.2,625.0,4828.0,20.0,1,
40007,1873.2,91.6,136.5,66.0,651.0,4413.0,14.0,1,
40107,1861.9,95.8,136.7,78.7,595.0,4241.0,14.0,1,
40207,1863.5,54.7,137.4,67.2,528.0,3680.0,14.0,1,
40307,1862.0,12.1,137.4,77.5,528.0,3680.0,14.0,1,
40407,1846.0,13.3,137.4,65.6,528.0,3680.0,14.0,1,
40607,1860.5,6.0,137.3,42.7,528.0,3680.0,14.0,1,
40707,1867.5,4.6,137.3,84.2,528.0,3680.0,14.0,1,
40807,1861.4,3.2,137.4,91.7,528.0,3680.0,14.0,1,
40907,1862.3,3.2,137.4,122.3,528.0,3680.0,14.0,1,
41007,1862.7,2.8,137.4,124.3,528.0,3680.0,14.0,1,
41107,1862.2,4.6,137.5,133.4,528.0,3680.0,14.0,1,
41207,1852.5,128.5,137.5,106.5,816.0,4716.0,17.0,1,
41307,1889.3,264.1,126.5,35.3,785.0,4992.0,20.0,1,
41407,1874.9,236.4,127.8,35.2,677.0,4805.0,20.0,1,
41607,1855.5,148.8,130.1,65.7,889.0,5144.0,21.0,1,
41707,1850.6,90.9,129.8,66.4,852.0,5082.0,4.0,1,
41807,1880.9,93.8,130.5,39.7,635.0,4215.0,15.0,1,
41907,1861.5,13.5,130.5,44.4,635.0,4215.0,15.0,1,
42007,1846.7,10.6,130.5,48.1,635.0,4215.0,15.0,1,
42107,1857.0,7.9,130.5,41.1,635.0,4215.0,15.0,1,
42207,1855.4,4.2,130.5,36.0,635.0,4215.0,15.0,1,
42307,1862.3,3.7,130.4,73.4,635.0,4215.0,15.0,1,
42407,1863.8,3.3,130.4,117.0,635.0,4215.0,15.0,1,
42607,1865.1,4.2,130.5,99.1,635.0,4215.0,15.0,1,
42707,1861.1,2.7,130.5,99.6,635.0,4215.0,15.0,1,
42807,1862.4,2.7,130.5,100.6,635.0,4215.0,15.0,1,
42907,1888.2,230.6,131.0,34.7,892.0,6986.0,16.0,1,
43007,1822.3,320.3,132.3,34.8,797.0,5444.0,15.0,1,
43107,1865.3,151.3,137.3,35.1,867.0,5244.0,14.0,1,
43207,1871.0,166.6,134.3,35.5,1020.0,5472.0,15.0,1,
43307,1866.9,168.4,138.8,37.5,819.0,5083.0,5.0,1,
43407,1877.4,165.4,143.2,38.6,943.0,4854.0,5.0,1,
43607,1873.4,12.1,143.9,35.2,943.0,4854.0,5.0,1,
43707,1871.0,9.9,144.0,35.9,943.0,4854.0,5.0,1,
43807,1872.3,16.5,144.1,35.1,943.0,4854.0,5.0,1,
43907,1865.9,10.2,144.2,35.8,943.0,4854.0,5.0,1,
44007,1849.1,14.1,144.1,101.7,943.0,4854.0,5.0,1,
44107,1855.0,4.3,144.1,102.0,943.0,4854.0,5.0,1,
44207,1862.2,4.3,144.1,92.6,943.0,4854.0,5.0,1,
44307,1859.3,3.1,144.1,100.1,943.0,4854.0,5.0,1,
44407,1861.2,3.5,144.1,100.6,943.0,4854.0,5.0,1,
44607,1863.2,253.2,143.4,37.1,562.0,4883.0,20.0,1,
44707,1901.6,188.8,140.3,38.7,763.0,5012.0,20.0,1,
44807,1865.6,69.4,137.5,38.4,833.0,5019.0,21.0,1,
44907,1861.5,98.5,134.5,36.8,703.0,4588.0,15.0,1,
45007,1858.4,243.9,136.4,43.9,699.0,4160.0,14.0,1,
45107,1863.7,33.2,139.0,39.1,635.0,4134.0,5.0,1,
45207,1853.2,19.9,139.1,28.3,635.0,4134.0,5.0,1,
45307,1851.1,9.5,139.1,27.6,635.0,4134.0,5.0,1,
45407,1856.3,5.1,139.2,28.0,635.0,4134.0,5.0,1,
45607,1859.4,2.7,139.1,101.4,635.0,4134.0,5.0,1,
45707,1860.7,2.6,139.0,115.3,635.0,4134.0,5.0,1,
45807,1860.5,2.2,139.0,116.8,635.0,4134.0,5.0,1,
45907,1860.4,2.9,139.0,106.3,635.0,4134.0,5.0,1,
46007,1859.9,2.9,139.0,100.0,635.0,4134.0,5.0,1,
46107,1846.8,260.1,138.5,34.6,790.0,5065.0,22.0,1,
46207,1895.8,293.7,145.5,34.8,709.0,4748.0,20.0,1,
46307,1868.5,195.2,147.0,35.3,482.0,3810.0,19.0,1,
46407,1843.1,100.9,144.5,35.7,592.0,4160.0,14.0,1,
46607,1869.8,141.0,138.6,39.3,609.0,3937.0,15.0,1,
46707,1869.3,45.7,135.1,65.6,529.0,3449.0,15.0,1,
46807,1859.4,9.7,135.1,41.5,529.0,3449.0,15.0,1,
46907,1852.8,6.0,135.0,39.5,529.0,3449.0,15.0,1,
47007,1858.8,2.6,135.0,30.1,529.0,3449.0,15.0,1,
47107,1860.0,3.7,135.0,30.2,529.0,3449.0,15.0,1,
47207,1858.0,3.6,135.0,100.9,529.0,3449.0,15.0,1,
47307,1859.0,2.1,135.0,100.8,529.0,3449.0,15.0,1,
47407,1860.3,2.3,135.0,101.0,529.0,3449.0,15.0,1,
47607,1860.2,2.0,135.0,87.5,529.0,3449.0,15.0,1,
47707,1874.5,207.4,134.6,55.9,728.0,5299.0,22.0,1,
47807,1855.4,263.2,126.4,34.8,730.0,5678.0,20.0,1,
47907,1847.1,192.9,124.3,35.2,650.0,4663.0,20.0,1,
48007,1856.9,112.2,124.6,35.7,573.0,4157.0,21.0,1,
48107,1888.2,73.6,124.0,35.8,615.0,4000.0,15.0,1,
48207,1858.8,221.2,123.9,38.3,585.0,3755.0,15.0,1,
48307,1871.9,78.9,127.6,49.9,489.0,3334.0,14.0,1,
48407,1855.9,12.7,127.6,40.0,489.0,3334.0,14.0,1,
48607,1853.4,8.1,127.7,29.4,489.0,3334.0,14.0,1,
48707,1856.0,5.7,127.7,34.8,489.0,3334.0,14.0,1,
48807,1856.7,4.7,127.7,67.4,489.0,3334.0,14.0,1,
48907,1858.1,3.6,127.7,115.3,489.0,3334.0,14.0,1,
49007,1859.2,3.0,127.7,101.7,489.0,3334.0,14.0,1,
49107,1859.7,2.4,127.7,100.1,489.0,3334.0,14.0,1,
49207,1859.9,3.0,127.7,104.5,489.0,3334.0,14.0,1,
49307,1845.8,52.7,127.7,123.5,489.0,3334.0,14.0,1,
49407,1875.2,195.2,125.5,36.1,739.0,5511.0,20.0,1,
49607,1883.8,106.6,123.5,37.7,649.0,4256.0,20.0,1,
49707,1865.0,75.8,123.4,35.3,693.0,4370.0,14.0,1,
49807,1842.8,105.6,123.4,35.6,640.0,4132.0,15.0,1,
49907,1875.4,123.0,123.7,38.7,654.0,3854.0,6.0,1,
50007,1875.8,11.2,123.7,39.3,678.0,3881.0,5.0,1,
50107,1855.8,13.5,123.7,30.2,678.0,3881.0,5.0,1,
50207,1852.8,4.6,123.7,29.0,678.0,3881.0,5.0,1,
50307,1859.2,3.1,123.6,29.9,678.0,3881.0,5.0,1,
50407,1858.4,2.9,123.6,41.3,678.0,3881.0,5.0,1,
50607,1862.3,3.4,123.6,99.0,678.0,3881.0,5.0,1,
50707,1862.6,2.6,123.6,100.0,678.0,3881.0,5.0,1,
50807,1862.6,2.3,123.6,99.0,678.0,3881.0,5.0,1,
50907,1861.6,2.2,123.6,99.2,678.0,3881.0,5.0,1,
51007,1862.9,194.0,123.0,35.9,730.0,5602.0,20.0,1,
51107,1876.5,242.9,123.1,36.0,659.0,4730.0,20.0,1,
51207,1867.8,152.1,126.9,37.0,660.0,4218.0,20.0,1,
51307,1842.9,99.8,126.6,35.6,742.0,4421.0,15.0,1,
51407,1848.7,99.2,126.5,35.0,662.0,4261.0,15.0,1,
51607,1854.9,17.6,118.8,66.4,800.0,3917.0,5.0,1,
51707,1853.0,10.1,118.8,34.9,800.0,3917.0,5.0,1,
51807,1857.7,3.7,118.8,34.8,800.0,3917.0,5.0,1,
51907,1860.8,3.6,118.8,35.2,800.0,3917.0,5.0,1,
52007,1860.8,3.0,118.8,39.3,800.0,3917.0,5.0,1,
52107,1861.8,3.6,118.8,123.2,800.0,3917.0,5.0,1,
52207,1863.7,3.9,118.8,125.2,800.0,3917.0,5.0,1,
52307,1863.9,3.8,118.8,109.7,800.0,3917.0,5.0,1,
52407,1864.3,7.8,118.8,101.9,800.0,3917.0,5.0,1,
52607,1878.4,298.4,120.0,30.1,689.0,4557.0,17.0,1,
52707,1833.4,267.7,130.7,34.2,557.0,4308.0,15.0,1,
52807,1874.6,130.6,124.0,34.8,516.0,4231.0,15.0,1,
52907,1853.0,108.5,121.2,35.8,540.0,3617.0,15.0,1,
53007,1882.6,135.6,123.1,39.6,482.0,3049.0,15.0,1,
53107,1859.6,122.2,125.6,74.7,591.0,3074.0,5.0,1,
53207,1858.0,29.5,124.8,54.0,448.0,2666.0,15.0,1,
53307,1857.3,9.8,124.8,35.2,448.0,2666.0,15.0,1,
53407,1856.9,9.8,124.8,35.7,448.0,2666.0,15.0,1,
53607,1858.2,4.3,124.8,46.4,448.0,2666.0,15.0,1,
53707,1858.9,3.9,124.8,102.4,448.0,2666.0,15.0,1,
53807,1859.5,3.7,124.8,103.9,448.0,2666.0,15.0,1,
53907,1859.8,2.9,124.8,108.6,448.0,2666.0,15.0,1,
54007,1861.7,3.4,124.8,109.8,448.0,2666.0,15.0,1,
54107,1860.8,2.6,124.7,108.7,448.0,2666.0,15.0,1,
54207,1840.6,252.4,124.9,45.0,721.0,4505.0,18.0,1,
54307,1865.0,261.1,123.3,30.1,611.0,4308.0,16.0,1,
54407,1871.1,129.7,122.8,30.3,533.0,3983.0,15.0,1,
54607,1865.3,150.4,127.6,36.2,417.0,2872.0,17.0,1,
54707,1836.3,91.3,125.9,40.9,365.0,2484.0,16.0,1,
54807,1874.1,37.0,123.7,30.1,296.0,2133.0,16.0,1,
54907,1866.5,6.3,123.8,35.2,296.0,2133.0,16.0,1,
55007,1860.3,6.5,123.8,51.1,296.0,2133.0,16.0,1,
55107,1864.1,3.2,123.8,42.7,296.0,2133.0,16.0,1,
55207,1862.0,2.9,123.8,44.3,296.0,2133.0,16.0,1,
55307,1863.0,4.4,123.8,91.5,296.0,2133.0,16.0,1,
55407,1861.3,3.1,123.8,93.0,296.0,2133.0,16.0,1,
55607,1858.9,4.1,123.8,113.0,296.0,2133.0,16.0,1,
55707,1858.5,6.1,123.8,114.0,296.0,2133.0,16.0,1,
55807,1841.9,133.4,123.8,100.4,617.0,4112.0,18.0,1,
55907,1878.9,253.7,120.3,30.0,621.0,4150.0,16.0,1,
56007,1860.8,225.5,117.4,30.0,611.0,4318.0,16.0,1,
56107,1841.3,142.0,121.4,30.3,558.0,4015.0,16.0,1,
56207,1870.6,150.7,120.5,35.6,526.0,3307.0,16.0,1,
56307,1847.2,119.1,120.3,38.6,336.0,2355.0,17.0,1,
56407,1872.7,102.5,131.0,38.3,333.0,2182.0,16.0,1,
56607,1862.4,6.0,131.0,28.1,333.0,2182.0,16.0,1,
56707,1864.6,4.1,131.0,27.7,333.0,2182.0,16.0,1,
56807,1861.5,2.6,131.0,28.2,333.0,2182.0,16.0,1,
56907,1861.4,2.1,131.0,84.0,333.0,2182.0,16.0,1,
57007,1861.0,2.7,131.0,134.0,333.0,2182.0,16.0,1,
57107,1860.9,2.1,131.0,109.3,333.0,2182.0,16.0,1,
57207,1861.3,2.0,131.0,99.9,333.0,2182.0,16.0,1,
57307,1859.2,3.9,131.0,123.0,333.0,2182.0,16.0,1,
57407,1859.0,4.6,130.9,111.4,333.0,2182.0,16.0,1,
57607,1828.5,245.9,128.3,30.2,625.0,4272.0,16.0,1,
57707,1859.5,121.4,126.7,30.2,440.0,3762.0,15.0,1,
57807,1875.3,117.1,124.1,34.7,406.0,3090.0,17.0,1,
57907,1857.7,181.4,122.3,39.8,308.0,2178.0,17.0,1,
58007,1870.5,62.4,115.9,39.2,302.0,2094.0,16.0,1,
58107,1850.0,13.9,115.7,36.9,287.0,2004.0,17.0,1,
58207,1863.0,6.4,115.7,34.5,287.0,2004.0,17.0,1,
58307,1862.8,3.3,115.7,34.7,287.0,2004.0,17.0,1,
58407,1861.2,5.1,115.7,35.8,287.0,2004.0,17.0,1,
58607,1861.8,2.8,115.7,103.9,287.0,2004.0,17.0,1,
58707,1861.6,5.0,115.7,98.8,287.0,2004.0,17.0,1,
58807,1860.4,3.2,115.7,99.2,287.0,2004.0,17.0,1,
58907,1860.9,2.1,115.7,87.3,287.0,2004.0,17.0,1,
59007,1861.0,4.9,115.8,98.7,287.0,2004.0,17.0,1,
59107,1860.0,269.9,116.9,35.8,1530.0,5810.0,25.0,0,
59207,1845.3,216.9,125.2,30.1,646.0,4310.0,16.0,1,
59307,1881.1,104.0,121.4,30.1,464.0,4180.0,15.0,1,
59407,1865.9,138.9,120.9,34.4,494.0,3499.0,16.0,1,
59607,1863.2,64.8,118.1,50.7,372.0,2433.0,16.0,1,
59707,1861.5,16.1,118.0,30.1,341.0,2202.0,15.0,1,
59807,1865.3,5.6,118.0,35.1,341.0,2202.0,15.0,1,
59907,1866.0,6.2,118.0,38.3,341.0,2202.0,15.0,1,
60007,1861.5,3.8,118.0,38.3,341.0,2202.0,15.0,1,
60107,1861.6,3.1,118.0,66.0,341.0,2202.0,15.0,1,
60207,1860.9,2.6,118.0,111.1,341.0,2202.0,15.0,1,
60307,1861.5,3.7,118.0,124.9,341.0,2202.0,15.0,1,
60407,1862.1,3.6,118.0,125.8,341.0,2202.0,15.0,1,
60607,1861.6,3.5,118.0,99.5,341.0,2202.0,15.0,1,
60707,1857.5,203.4,117.0,38.6,1539.0,5776.0,25.0,0,
60807,1871.1,236.1,108.1,36.0,706.0,4697.0,23.0,1,
60907,1868.5,188.5,118.4,35.7,521.0,4119.0,23.0,1,
61007,1843.1,156.5,119.7,35.3,477.0,3679.0,16.0,1,
61107,1847.8,125.4,122.3,35.2,380.0,2749.0,16.0,1,
61207,1871.5,122.0,125.2,30.2,324.0,2278.0,16.0,1,
61307,1854.3,30.3,125.2,37.2,341.0,2228.0,17.0,1,
61407,1863.9,5.9,125.2,36.8,341.0,2228.0,17.0,1,
61607,1862.8,3.2,125.2,35.2,341.0,2228.0,17.0,1,
61707,1861.8,2.9,125.2,36.9,341.0,2228.0,17.0,1,
61807,1862.0,3.3,125.2,105.3,341.0,2228.0,17.0,1,
61907,1861.5,3.0,125.1,133.4,341.0,2228.0,17.0,1,
62007,1861.8,2.6,125.1,132.2,341.0,2228.0,17.0,1,
62107,1860.8,2.8,125.1,114.4,341.0,2228.0,17.0,1,
62207,1861.0,2.8,125.1,102.5,341.0,2228.0,17.0,1,
62307,1884.8,201.3,131.1,38.2,768.0,4571.0,23.0,1,
62407,1836.5,271.1,130.6,47.5,720.0,4545.0,23.0,1,
62607,1850.4,128.4,121.3,40.6,617.0,4035.0,15.0,1,
62707,1874.7,124.3,117.9,35.6,409.0,3179.0,16.0,1,
62807,1872.4,60.3,120.4,68.3,382.0,2548.0,17.0,1,
62907,1850.5,41.5,115.3,40.9,326.0,2123.0,17.0,1,
63007,1856.4,7.4,115.3,34.5,326.0,2123.0,17.0,1,
63107,1866.7,6.3,115.3,38.0,326.0,2123.0,17.0,1,
63207,1863.8,3.2,115.3,40.8,326.0,2123.0,17.0,1,
63307,1861.5,3.2,115.3,37.9,326.0,2123.0,17.0,1,
63407,1860.9,2.5,115.3,90.5,326.0,2123.0,17.0,1,
63607,1861.0,2.8,115.3,113.0,326.0,2123.0,17.0,1,
63707,1861.4,4.7,115.3,100.1,326.0,2123.0,17.0,1,
63807,1859.9,4.0,115.3,92.5,326.0,2123.0,17.0,1,
63907,1855.5,92.7,114.0,94.3,326.0,2123.0,17.0,1,
64007,1863.0,278.5,118.4,30.1,752.0,4514.0,23.0,1,
64107,1873.6,167.2,116.3,29.9,662.0,4315.0,17.0,1,
64207,1863.3,208.7,117.0,30.3,517.0,4042.0,16.0,1,
64307,1877.2,144.4,123.6,35.2,521.0,3529.0,16.0,1,
64407,1850.2,230.0,128.9,39.8,378.0,2665.0,16.0,1,
64607,1870.3,8.5,132.8,28.4,378.0,2665.0,16.0,1,
64707,1859.6,6.2,132.8,28.2,378.0,2665.0,16.0,1,
64807,1866.4,4.1,132.8,29.9,378.0,2665.0,16.0,1,
64907,1861.5,3.0,132.8,35.5,378.0,2665.0,16.0,1,
65007,1859.8,2.6,132.8,86.8,378.0,2665.0,16.0,1,
65107,1861.0,3.0,132.8,139.6,378.0,2665.0,16.0,1,
65207,1861.1,2.8,132.8,140.8,378.0,2665.0,16.0,1,
65307,1862.0,3.3,132.8,123.9,378.0,2665.0,16.0,1,
65407,1861.5,3.3,132.8,111.9,378.0,2665.0,16.0,1,
65607,1866.5,275.3,131.3,27.1,743.0,4607.0,23.0,1,
65707,1875.6,257.8,131.2,28.6,591.0,4194.0,15.0,1,
65807,1847.0,227.0,134.4,29.5,479.0,4102.0,16.0,1,
65907,1860.7,142.9,133.9,34.6,601.0,3623.0,16.0,1,
66007,1865.0,116.7,133.0,36.2,373.0,2980.0,17.0,1,
66107,1850.3,49.4,127.1,34.3,343.0,2197.0,16.0,1,
66207,1861.4,10.8,127.0,29.9,366.0,2143.0,16.0,1,
66307,1871.3,23.7,127.3,29.9,366.0,2143.0,16.0,1,
66407,1857.0,8.0,127.6,38.6,366.0,2143.0,16.0,1,
66607,1861.4,25.1,127.6,55.9,366.0,2143.0,16.0,1,
66707,1862.5,7.9,128.1,55.6,366.0,2143.0,16.0,1,
66807,1861.6,3.1,128.1,55.4,366.0,2143.0,16.0,1,
66907,1861.4,25.6,128.1,55.5,366.0,2143.0,16.0,1,
67007,1862.0,8.9,128.6,54.7,366.0,2143.0,16.0,1,
67107,1862.0,3.1,128.6,66.0,366.0,2143.0,16.0,1,
67207,1888.9,258.1,125.5,43.4,761.0,4631.0,24.0,1,
67307,1838.0,237.6,125.7,34.2,614.0,4316.0,22.0,1,
67407,1847.6,139.7,121.9,30.1,479.0,4065.0,16.0,1,
67607,1864.8,86.6,113.6,37.2,413.0,2856.0,17.0,1,
67707,1866.5,46.2,112.7,40.0,378.0,2390.0,16.0,1,
67807,1853.2,21.8,112.9,35.5,320.0,1978.0,16.0,1,
67907,1860.5,6.0,112.9,38.4,320.0,1978.0,16.0,1,
68007,1862.9,4.4,112.2,36.3,320.0,1978.0,16.0,1,
68107,1864.0,3.4,112.2,34.4,320.0,1978.0,16.0,1,
68207,1862.0,3.2,112.2,35.4,320.0,1978.0,16.0,1,
68307,1862.5,2.6,111.6,87.3,320.0,1978.0,16.0,1,
68407,1862.3,3.5,111.6,109.8,320.0,1978.0,16.0,1,
68607,1855.0,4.5,111.2,66.7,320.0,1978.0,16.0,1,
68707,1862.0,3.8,111.2,56.5,320.0,1978.0,16.0,1,
68807,1856.4,225.8,112.7,45.7,502.0,4434.0,24.0,1,
68907,1854.9,247.8,114.3,30.0,665.0,4902.0,22.0,1,
69007,1872.5,154.8,115.0,30.1,523.0,4234.0,16.0,1,
69107,1877.1,141.4,113.6,34.4,617.0,3913.0,17.0,1,
69207,1852.7,198.8,114.9,36.0,467.0,3122.0,17.0,1,
69307,1844.3,65.7,119.1,66.3,389.0,2456.0,16.0,1,
69407,1871.2,33.2,119.1,34.7,357.0,2149.0,17.0,1,
69607,1864.0,7.7,119.1,40.4,357.0,2149.0,17.0,1,
69707,1864.4,5.6,119.1,36.1,357.0,2149.0,17.0,1,
69807,1863.3,3.9,119.1,38.5,357.0,2149.0,17.0,1,
69907,1861.1,3.3,119.1,93.3,357.0,2149.0,17.0,1,
70007,1861.9,3.4,119.1,106.3,357.0,2149.0,17.0,1,
70107,1862.1,2.5,119.1,102.5,357.0,2149.0,17.0,1,
70207,1861.5,3.1,118.9,90.4,357.0,2149.0,17.0,1,
70307,1861.9,2.7,118.9,99.3,357.0,2149.0,17.0,1,
70407,1856.3,145.1,118.9,110.1,491.0,4482.0,19.0,1,
70607,1870.8,160.2,114.7,30.2,597.0,4271.0,16.0,1,
70707,1846.7,203.5,116.1,34.8,570.0,4093.0,17.0,1,
70807,1850.8,140.3,118.8,36.2,447.0,3344.0,17.0,1,
70907,1865.6,73.3,115.4,36.9,347.0,2450.0,16.0,1,
71007,1874.0,55.3,115.7,30.0,320.0,2103.0,17.0,1,
71107,1860.8,9.5,115.7,30.0,320.0,2103.0,17.0,1,
71207,1858.3,6.6,115.7,50.7,320.0,2103.0,17.0,1,
71307,1866.0,5.6,115.7,46.2,320.0,2103.0,17.0,1,
71407,1862.4,4.1,115.7,37.9,320.0,2103.0,17.0,1,
71607,1861.4,2.4,115.7,112.3,320.0,2103.0,17.0,1,
71707,1861.1,3.6,115.7,123.4,320.0,2103.0,17.0,1,
71807,1861.8,3.2,115.7,110.5,320.0,2103.0,17.0,1,
71907,1860.8,3.0,115.7,88.0,320.0,2103.0,17.0,1,
72007,1861.4,48.2,115.7,89.6,320.0,2103.0,17.0,1,
72107,1868.5,294.1,117.8,29.3,751.0,4703.0,24.0,1,
72207,1839.5,211.2,119.1,29.7,643.0,4342.0,16.0,1,
72307,1864.3,153.9,120.3,30.0,510.0,4190.0,17.0,1,
72407,1866.3,157.4,116.3,34.7,500.0,3350.0,17.0,1,
72607,1864.8,112.5,124.6,30.2,330.0,2060.0,16.0,1,
72707,1855.6,12.3,124.6,35.1,323.0,1974.0,17.0,1,
72807,1857.7,5.5,124.6,38.0,323.0,1974.0,17.0,1,
72907,1862.1,4.0,124.6,37.2,323.0,1974.0,17.0,1,
73007,1860.4,3.2,124.6,38.7,323.0,1974.0,17.0,1,
73107,1859.4,4.0,124.6,77.5,323.0,1974.0,17.0,1,
73207,1858.6,3.8,124.6,93.1,323.0,1974.0,17.0,1,
73307,1859.8,4.7,124.6,94.0,323.0,1974.0,17.0,1,
73407,1857.5,4.2,124.5,122.5,323.0,1974.0,17.0,1,
73607,1860.3,3.5,124.5,136.8,323.0,1974.0,17.0,1,
73707,1842.8,251.5,123.1,34.8,786.0,4612.0,24.0,1,
73807,1863.0,205.7,124.5,29.9,639.0,4153.0,16.0,1,
73907,1872.9,127.6,123.4,30.2,454.0,3921.0,16.0,1,
74007,1869.8,119.0,122.0,34.6,479.0,3338.0,17.0,1,
74107,1853.3,75.3,119.7,42.0,362.0,2747.0,17.0,1,
74207,1858.3,136.3,117.1,44.0,335.0,2061.0,17.0,1,
74307,1876.6,17.9,115.7,35.5,339.0,1966.0,17.0,1,
74407,1859.0,5.8,115.7,30.3,339.0,1966.0,17.0,1,
74607,1862.5,4.6,115.7,26.5,339.0,1966.0,17.0,1,
74707,1862.7,4.3,115.7,40.9,339.0,1966.0,17.0,1,
74807,1861.8,4.1,115.7,93.2,339.0,1966.0,17.0,1,
74907,1861.3,4.2,115.7,93.2,339.0,1966.0,17.0,1,
75007,1860.1,4.4,115.7,99.9,339.0,1966.0,17.0,1,
75107,1861.3,3.7,115.7,101.6,339.0,1966.0,17.0,1,
75207,1861.4,3.5,115.7,101.1,339.0,1966.0,17.0,1,
75307,1850.4,222.1,114.4,38.2,797.0,4653.0,24.0,1,
75407,1885.3,208.4,103.8,30.2,654.0,4230.0,16.0,1,
75607,1851.0,158.5,115.6,34.5,544.0,3665.0,16.0,1,
75707,1860.2,149.4,118.4,34.9,377.0,2524.0,16.0,1,
75807,1857.5,119.9,119.2,28.5,346.0,2036.0,17.0,1,
75907,1867.7,51.0,124.1,29.2,333.0,1903.0,17.0,1,
76007,1862.0,8.6,124.1,29.8,333.0,1903.0,17.0,1,
76107,1864.0,6.5,124.1,28.8,333.0,1903.0,17.0,1,
76207,1863.2,5.0,124.1,28.0,333.0,1903.0,17.0,1,
76307,1861.0,5.2,124.1,29.5,333.0,1903.0,17.0,1,
76407,1861.3,5.1,124.1,82.5,333.0,1903.0,17.0,1,
76607,1861.8,5.8,124.1,90.5,333.0,1903.0,17.0,1,
76707,1861.3,3.4,124.1,93.2,333.0,1903.0,17.0,1,
76807,1861.2,2.5,124.1,94.5,333.0,1903.0,17.0,1,
76907,1882.6,193.4,124.1,77.8,472.0,4274.0,18.0,1,
77007,1841.2,199.3,127.1,30.2,806.0,4706.0,24.0,1,
77107,1846.5,219.5,129.5,34.3,550.0,4138.0,17.0,1,
77207,1862.2,133.2,121.6,34.7,562.0,3762.0,16.0,1,
77307,1883.9,93.4,124.4,36.1,422.0,3489.0,17.0,1,
77407,1855.3,98.9,120.2,43.1,294.0,2142.0,17.0,1,
77607,1855.9,6.4,111.3,35.8,294.0,2142.0,17.0,1,
77707,1862.8,6.3,111.3,38.1,294.0,2142.0,17.0,1,
77807,1864.9,5.6,111.3,35.8,294.0,2142.0,17.0,1,
77907,1859.7,4.4,111.3,44.6,294.0,2142.0,17.0,1,
78007,1860.1,3.5,111.3,88.1,294.0,2142.0,17.0,1,
78107,1860.3,4.2,111.3,82.7,294.0,2142.0,17.0,1,
78207,1861.3,3.4,111.3,93.9,294.0,2142.0,17.0,1,
78307,1860.0,4.1,111.3,94.6,294.0,2142.0,17.0,1,
78407,1860.3,3.5,111.3,99.6,294.0,2142.0,17.0,1,
78607,1867.9,215.9,107.8,34.3,801.0,4676.0,24.0,1,
78707,1858.2,205.4,109.4,34.3,554.0,4102.0,17.0,1,
78807,1877.2,132.4,108.5,34.6,547.0,3934.0,16.0,1,
78907,1861.6,86.9,104.8,35.5,524.0,3448.0,16.0,1,
79007,1841.7,57.3,104.9,65.5,350.0,2317.0,17.0,1,
79107,1862.9,60.4,106.4,39.4,339.0,1996.0,16.0,1,
79207,1869.7,9.2,106.3,34.5,339.0,1996.0,16.0,1,
79307,1859.9,5.2,106.3,28.0,339.0,1996.0,16.0,1,
79407,1863.1,6.2,106.3,27.9,339.0,1996.0,16.0,1,
79607,1860.8,8.5,106.3,88.3,339.0,1996.0,16.0,1,
79707,1858.5,3.4,106.4,93.3,339.0,1996.0,16.0,1,
79807,1861.5,4.4,106.4,104.6,339.0,1996.0,16.0,1,
79907,1863.2,3.4,106.3,104.4,339.0,1996.0,16.0,1,
80007,1862.6,3.1,106.3,101.8,339.0,1996.0,16.0,1,
80107,1862.1,3.5,106.3,100.0,339.0,1996.0,16.0,1,
80207,1866.2,213.7,104.7,35.6,700.0,4277.0,23.0,1,
80307,1870.3,191.4,108.7,34.5,608.0,4022.0,23.0,1,
80407,1849.0,147.0,106.1,34.3,419.0,3776.0,16.0,1,
80607,1852.5,80.8,111.2,35.0,373.0,2871.0,17.0,1,
80707,1879.2,84.9,110.7,38.2,343.0,2212.0,16.0,1,
80807,1855.6,14.4,110.7,30.2,315.0,1983.0,16.0,1,
80907,1862.0,4.2,110.7,29.1,315.0,1983.0,16.0,1,
81007,1863.7,3.9,110.7,27.3,315.0,1983.0,16.0,1,
81107,1860.6,2.8,110.7,27.7,315.0,1983.0,16.0,1,
81207,1859.3,5.3,110.7,66.5,315.0,1983.0,16.0,1,
81307,1856.1,6.0,110.7,99.2,315.0,1983.0,16.0,1,
81407,1859.5,4.4,110.7,108.7,315.0,1983.0,16.0,1,
81607,1863.1,5.0,110.7,112.4,315.0,1983.0,16.0,1,
81707,1861.1,4.6,110.8,110.6,315.0,1983.0,16.0,1,
81807,1881.7,223.5,111.0,36.2,730.0,4409.0,24.0,1,
81907,1834.9,203.5,108.2,34.4,613.0,4146.0,17.0,1,
82007,1868.4,125.4,105.7,34.6,473.0,3949.0,16.0,1,
82107,1864.9,195.3,113.6,35.2,593.0,3874.0,16.0,1,
82207,1870.1,74.3,109.5,66.6,384.0,2933.0,17.0,1,
82307,1875.3,68.9,109.5,30.2,345.0,2135.0,17.0,1,
82407,1844.6,19.8,107.2,30.1,309.0,1904.0,17.0,1,
82607,1865.1,4.1,107.2,66.4,309.0,1904.0,17.0,1,
82707,1861.8,4.7,107.2,40.7,309.0,1904.0,17.0,1,
82807,1862.2,5.0,107.2,72.9,309.0,1904.0,17.0,1,
82907,1860.8,5.2,107.2,100.5,309.0,1904.0,17.0,1,
83007,1856.8,5.6,107.2,104.0,309.0,1904.0,17.0,1,
83107,1858.2,4.7,107.2,105.6,309.0,1904.0,17.0,1,
83207,1860.0,3.0,107.2,91.8,309.0,1904.0,17.0,1,
83307,1860.3,3.0,107.2,103.3,309.0,1904.0,17.0,1,
83407,1852.5,202.2,106.8,42.6,436.0,4048.0,25.0,0,
83607,1882.0,216.9,120.8,34.3,496.0,4279.0,16.0,1,
83707,1859.5,213.9,121.5,34.6,536.0,3849.0,16.0,1,
83807,1849.7,131.2,123.4,34.8,401.0,3107.0,16.0,1,
83907,1869.5,67.5,123.9,28.2,316.0,2506.0,17.0,1,
84007,1855.8,35.3,124.0,28.3,325.0,2199.0,17.0,1,
84107,1862.6,8.3,124.1,30.0,325.0,2199.0,17.0,1,
84207,1862.2,5.4,124.1,35.7,325.0,2199.0,17.0,1,
84307,1864.1,4.4,124.1,35.8,325.0,2199.0,17.0,1,
84407,1862.2,2.6,124.0,36.7,325.0,2199.0,17.0,1,
84607,1862.2,3.2,124.0,101.4,325.0,2199.0,17.0,1,
84707,1861.6,2.8,123.9,99.5,325.0,2199.0,17.0,1,
84807,1862.5,2.6,123.9,100.1,325.0,2199.0,17.0,1,
84907,1861.0,2.8,123.9,99.7,325.0,2199.0,17.0,1,
85007,1854.9,224.6,130.7,37.6,695.0,4554.0,24.0,1,
85107,1880.9,310.3,132.8,45.8,786.0,4733.0,23.0,1,
85207,1865.0,160.1,138.1,46.1,569.0,4365.0,22.0,1,
85307,1838.8,147.1,131.9,36.0,533.0,4186.0,24.0,1,
85407,1864.1,147.4,126.2,35.5,409.0,3456.0,26.0,0,
85607,1856.5,61.6,127.1,36.2,356.0,2349.0,17.0,1,
85707,1857.0,7.0,127.1,37.4,356.0,2349.0,17.0,1,
85807,1860.0,14.8,127.1,37.5,356.0,2349.0,17.0,1,
85907,1865.7,14.2,127.3,37.3,356.0,2349.0,17.0,1,
86007,1861.9,3.3,127.3,30.0,356.0,2349.0,17.0,1,
86107,1861.2,2.5,127.3,28.3,356.0,2349.0,17.0,1,
86207,1862.4,2.2,127.3,24.3,356.0,2349.0,17.0,1,
86307,1860.6,2.1,127.3,66.3,356.0,2349.0,17.0,1,
86407,1860.6,2.3,127.3,98.8,356.0,2349.0,17.0,1,
86607,1861.2,39.2,127.3,98.8,356.0,2349.0,17.0,1,
86707,1869.7,297.4,125.8,35.1,763.0,4988.0,24.0,1,
86807,1855.5,219.7,121.3,34.7,654.0,4648.0,16.0,1,
86907,1848.7,157.2,121.7,34.7,581.0,4247.0,17.0,1,
87007,1885.8,119.2,119.8,35.2,512.0,3873.0,17.0,1,
87107,1867.0,75.2,119.6,66.5,341.0,2682.0,16.0,1,
87207,1851.8,67.6,118.9,65.5,303.0,2019.0,17.0,1,
87307,1866.2,11.7,119.0,35.3,346.0,2051.0,17.0,1,
87407,1863.0,3.0,119.0,39.8,346.0,2051.0,17.0,1,
87607,1860.9,3.5,118.8,36.9,346.0,2051.0,17.0,1,
87707,1858.5,4.2,118.8,67.8,346.0,2051.0,17.0,1,
87807,1857.1,4.9,118.8,93.9,346.0,2051.0,17.0,1,
87907,1857.3,6.0,118.8,101.0,346.0,2051.0,17.0,1,
88007,1858.9,2.9,118.8,107.1,346.0,2051.0,17.0,1,
88107,1861.3,2.2,118.8,102.1,346.0,2051.0,17.0,1,
88207,1862.9,2.6,118.8,108.4,346.0,2051.0,17.0,1,
88307,1861.0,273.6,120.0,29.8,780.0,5053.0,24.0,1,
88407,1867.9,180.5,116.6,29.5,608.0,4334.0,16.0,1,
88607,1878.8,104.9,114.2,34.5,519.0,3972.0,17.0,1,
88707,1840.9,127.3,114.0,46.0,331.0,2798.0,17.0,1,
88807,1856.0,60.5,114.3,46.4,271.0,1867.0,17.0,1,
88907,1866.5,15.4,114.2,30.1,280.0,1709.0,16.0,1,
89007,1862.1,3.0,114.2,30.3,280.0,1709.0,16.0,1,
89107,1864.1,4.6,114.2,37.5,280.0,1709.0,16.0,1,
89207,1865.5,3.0,114.1,35.4,280.0,1709.0,16.0,1,
89307,1860.7,2.5,114.1,46.4,280.0,1709.0,16.0,1,
89407,1859.5,3.4,114.1,100.9,280.0,1709.0,16.0,1,
89607,1859.5,2.5,114.1,107.9,280.0,1709.0,16.0,1,
89707,1859.9,2.9,114.1,103.5,280.0,1709.0,16.0,1,
89807,1859.8,2.9,114.1,91.8,280.0,1709.0,16.0,1,
89907,1868.7,208.9,107.9,68.5,798.0,5038.0,24.0,1,
90007,1864.9,248.3,107.7,34.2,714.0,4854.0,17.0,1,
90107,1846.4,185.2,112.7,30.2,517.0,4346.0,16.0,1,
90207,1868.5,173.3,118.6,34.5,602.0,4156.0,16.0,1,
90307,1844.1,93.3,119.5,35.3,394.0,2983.0,17.0,1,
90407,1877.8,58.4,118.4,29.7,299.0,2052.0,16.0,1,
90607,1860.8,4.3,118.5,34.2,299.0,2052.0,16.0,1,
90707,1863.3,4.4,118.5,66.0,299.0,2052.0,16.0,1,
90807,1865.4,3.4,118.5,39.9,299.0,2052.0,16.0,1,
90907,1860.6,3.2,118.5,41.3,299.0,2052.0,16.0,1,
91007,1861.0,2.6,118.5,115.1,299.0,2052.0,16.0,1,
91107,1861.1,2.0,118.5,123.5,299.0,2052.0,16.0,1,
91207,1860.6,3.1,118.4,114.4,299.0,2052.0,16.0,1,
91307,1860.6,2.4,118.4,99.9,299.0,2052.0,16.0,1,
91407,1860.7,2.0,118.4,100.4,299.0,2052.0,16.0,1,
91607,1815.6,275.0,120.1,35.2,770.0,4985.0,24.0,1,
91707,1860.1,192.0,121.6,34.5,732.0,4792.0,16.0,1,
91807,1869.4,162.1,116.8,34.7,593.0,4186.0,17.0,1,
91907,1864.9,81.7,117.6,35.7,385.0,3215.0,17.0,1,
92007,1871.5,124.5,125.3,30.0,326.0,2154.0,17.0,1,
92107,1850.8,93.0,132.0,30.0,314.0,1931.0,16.0,1,
92207,1856.9,8.2,132.0,29.8,314.0,1931.0,16.0,1,
92307,1863.4,5.3,132.0,29.8,314.0,1931.0,16.0,1,
92407,1867.5,5.7,132.0,30.0,314.0,1931.0,16.0,1,
92607,1858.4,2.7,132.0,81.4,314.0,1931.0,16.0,1,
92707,1860.6,3.0,132.0,123.2,314.0,1931.0,16.0,1,
92807,1861.3,2.2,132.0,110.3,314.0,1931.0,16.0,1,
92907,1861.1,2.0,132.0,99.9,314.0,1931.0,16.0,1,
93007,1861.9,2.6,132.0,99.4,314.0,1931.0,16.0,1,
93107,1862.5,87.1,132.0,100.1,314.0,1931.0,16.0,1,
93207,1848.4,263.9,129.9,35.4,787.0,4866.0,24.0,1,
93307,1880.6,197.6,129.8,34.5,596.0,4385.0,16.0,1,
93407,1861.2,166.2,129.0,34.6,563.0,4310.0,17.0,1,
93607,1863.0,99.8,126.6,36.2,272.0,2263.0,16.0,1,
93707,1846.4,141.5,124.3,29.6,305.0,1893.0,16.0,1,
93807,1869.2,13.6,124.2,28.2,305.0,1893.0,16.0,1,
93907,1860.3,4.8,124.2,29.7,305.0,1893.0,16.0,1,
94007,1867.0,5.2,124.2,29.9,305.0,1893.0,16.0,1,
94107,1863.8,2.6,124.2,30.2,305.0,1893.0,16.0,1,
94207,1860.7,2.2,124.2,38.5,305.0,1893.0,16.0,1,
94307,1861.7,2.3,124.2,100.6,305.0,1893.0,16.0,1,
94407,1861.1,2.1,124.2,109.1,305.0,1893.0,16.0,1,
94607,1861.6,2.3,124.2,109.6,305.0,1893.0,16.0,1,
94707,1861.6,42.6,124.2,104.3,305.0,1893.0,16.0,1,
94807,1875.1,307.7,131.4,29.6,796.0,5064.0,24.0,1,
94907,1868.4,192.1,126.7,29.2,627.0,4677.0,16.0,1,
95007,1839.5,168.4,128.8,29.6,517.0,4479.0,17.0,1,
95107,1867.4,110.2,126.6,30.1,439.0,3384.0,17.0,1,
95207,1858.6,94.3,125.2,38.7,314.0,2349.0,16.0,1,
95307,1867.3,67.6,126.0,51.4,301.0,2028.0,17.0,1,
95407,1855.2,13.9,119.1,35.2,292.0,1753.0,16.0,1,
95607,1863.9,6.7,119.1,37.3,292.0,1753.0,16.0,1,
95707,1867.1,4.7,119.1,39.7,292.0,1753.0,16.0,1,
95807,1862.2,2.4,119.1,54.6,292.0,1753.0,16.0,1,
95907,1861.2,2.2,119.1,104.3,292.0,1753.0,16.0,1,
96007,1861.7,2.1,119.1,101.4,292.0,1753.0,16.0,1,
96107,1861.2,2.0,119.1,100.2,292.0,1753.0,16.0,1,
96207,1860.7,2.5,119.1,99.6,292.0,1753.0,16.0,1,
96307,1860.8,2.7,119.1,100.5,292.0,1753.0,16.0,1,
96407,1887.2,240.5,115.9,36.0,934.0,5700.0,25.0,0,
96607,1853.8,161.4,113.5,34.5,533.0,4377.0,16.0,1,
96707,1881.6,162.8,115.6,34.7,487.0,3863.0,17.0,1,
96807,1861.4,136.9,117.2,36.9,331.0,2620.0,17.0,1,
96907,1858.5,86.0,118.6,36.9,369.0,2176.0,17.0,1,
97007,1857.0,22.2,118.6,37.7,319.0,1848.0,17.0,1,
97107,1859.5,4.0,118.6,36.8,319.0,1848.0,17.0,1,
97207,1864.5,4.1,118.6,36.8,319.0,1848.0,17.0,1,
97307,1865.5,3.9,118.6,39.9,319.0,1848.0,17.0,1,
97407,1861.6,2.0,118.6,67.8,319.0,1848.0,17.0,1,
97607,1861.7,2.1,118.6,108.9,319.0,1848.0,17.0,1,
97707,1861.2,2.2,118.6,108.5,319.0,1848.0,17.0,1,
97807,1861.2,2.6,118.6,104.1,319.0,1848.0,17.0,1,
97907,1861.2,2.5,118.6,106.9,319.0,1848.0,17.0,1,
98007,1856.7,246.8,124.3,45.4,597.0,4203.0,18.0,1,
98107,1857.5,251.9,122.9,45.3,720.0,4762.0,17.0,1,
98207,1882.6,178.1,122.7,44.0,523.0,4523.0,16.0,1,
98307,1859.9,130.7,120.4,35.6,499.0,4056.0,17.0,1,
98407,1846.4,84.1,120.5,35.1,378.0,3065.0,17.0,1,
98607,1860.0,40.8,136.1,36.5,305.0,1830.0,18.0,1,
98707,1863.0,5.6,136.1,28.8,305.0,1830.0,18.0,1,
98807,1862.3,4.7,136.1,27.9,305.0,1830.0,18.0,1,
98907,1866.9,5.1,136.1,28.3,305.0,1830.0,18.0,1,
99007,1863.2,3.2,136.1,36.5,305.0,1830.0,18.0,1,
99107,1862.2,2.3,136.0,99.5,305.0,1830.0,18.0,1,
99207,1861.1,1.9,136.1,105.3,305.0,1830.0,18.0,1,
99307,1862.0,3.0,136.0,103.3,305.0,1830.0,18.0,1,
99407,1862.6,2.8,136.0,100.5,305.0,1830.0,18.0,1,
99607,1860.9,108.3,130.0,106.5,468.0,4243.0,19.0,1,
99707,1886.8,265.3,127.7,35.0,739.0,4888.0,17.0,1,
99807,1863.0,173.7,126.4,34.6,568.0,4331.0,16.0,1,
99907,1833.6,152.6,126.5,34.5,573.0,4227.0,17.0,1,
100007,1859.9,97.9,126.4,35.3,387.0,3105.0,17.0,1,
100107,1862.3,90.5,112.9,52.2,323.0,2237.0,16.0,1,
100207,1865.2,70.0,107.8,30.0,364.0,2123.0,17.0,1,
100307,1858.0,8.0,107.8,30.1,364.0,2123.0,17.0,1,
100407,1859.2,3.5,107.8,30.0,364.0,2123.0,17.0,1,
100607,1863.2,3.3,107.8,29.9,364.0,2123.0,17.0,1,
100707,1862.8,3.0,107.8,80.1,364.0,2123.0,17.0,1,
100807,1863.6,3.5,107.8,100.0,364.0,2123.0,17.0,1,
100907,1862.9,2.9,107.8,109.3,364.0,2123.0,17.0,1,
101007,1864.0,4.1,107.8,113.5,364.0,2123.0,17.0,1,
101107,1867.6,5.1,107.8,110.2,364.0,2123.0,17.0,1,
101207,1864.2,9.7,107.8,98.8,364.0,2123.0,17.0,1,
101307,1866.3,169.3,110.8,30.2,875.0,5346.0,25.0,0,
101407,1846.8,209.9,109.6,30.3,550.0,4516.0,17.0,1,
101607,1876.7,131.1,117.2,34.7,445.0,3617.0,16.0,1,
101707,1862.2,72.4,117.1,35.6,249.0,2092.0,17.0,1,
101807,1856.5,92.9,121.7,29.8,309.0,2077.0,18.0,1,
101907,1864.5,11.6,121.7,29.7,284.0,1867.0,17.0,1,
102007,1859.1,4.2,121.7,28.7,284.0,1867.0,17.0,1,
102107,1863.3,4.7,121.7,28.3,284.0,1867.0,17.0,1,
102207,1863.8,2.9,121.7,29.6,284.0,1867.0,17.0,1,
102307,1859.6,3.9,121.8,69.8,284.0,1867.0,17.0,1,
102407,1859.9,2.4,121.8,99.7,284.0,1867.0,17.0,1,
102607,1858.9,2.8,121.9,98.9,284.0,1867.0,17.0,1,
102707,1861.4,2.6,121.9,87.1,284.0,1867.0,17.0,1,
102807,1860.4,2.3,122.0,90.3,284.0,1867.0,17.0,1,
102907,1843.0,260.4,124.5,30.3,745.0,4981.0,24.0,1,
103007,1874.5,232.6,127.3,30.1,636.0,4471.0,16.0,1,
103107,1876.2,150.9,131.9,34.3,525.0,4481.0,17.0,1,
103207,1851.8,152.8,132.0,34.6,540.0,4083.0,17.0,1,
103307,1855.0,72.6,128.7,35.2,360.0,3028.0,17.0,1,
103407,1861.9,80.4,122.5,35.4,391.0,2338.0,17.0,1,
103607,1862.7,3.8,123.2,39.8,391.0,2338.0,17.0,1,
103707,1863.3,3.5,123.2,41.6,391.0,2338.0,17.0,1,
103807,1864.1,4.4,123.2,39.6,391.0,2338.0,17.0,1,
103907,1861.2,4.5,123.2,54.0,391.0,2338.0,17.0,1,
104007,1857.5,3.6,123.2,102.3,391.0,2338.0,17.0,1,
104107,1861.5,3.4,123.2,101.9,391.0,2338.0,17.0,1,
104207,1863.0,2.6,123.2,107.0,391.0,2338.0,17.0,1,
104307,1861.4,2.0,123.2,111.4,391.0,2338.0,17.0,1,
104407,1862.9,3.5,123.2,99.6,391.0,2338.0,17.0,1,
104607,1881.3,235.9,124.8,30.1,682.0,4594.0,16.0,1,
104707,1831.6,186.5,117.2,34.2,533.0,4612.0,16.0,1,
104807,1850.0,137.2,117.7,34.3,481.0,3793.0,17.0,1,
104907,1871.6,91.8,119.2,34.8,363.0,2339.0,18.0,1,
105007,1857.0,66.3,118.6,35.7,266.0,1931.0,17.0,1,
105107,1867.3,29.4,118.1,29.5,345.0,2238.0,18.0,1,
105207,1861.6,4.2,118.2,38.0,345.0,2238.0,18.0,1,
105307,1866.0,7.3,118.1,49.3,345.0,2238.0,18.0,1,
105407,1867.3,3.7,118.1,44.6,345.0,2238.0,18.0,1,
105607,1861.5,2.9,118.1,99.7,345.0,2238.0,18.0,1,
105707,1861.5,2.8,118.1,100.0,345.0,2238.0,18.0,1,
105807,1862.8,2.5,118.1,102.1,345.0,2238.0,18.0,1,
105907,1862.0,3.0,118.1,110.3,345.0,2238.0,18.0,1,
106007,1859.2,3.4,118.1,122.1,345.0,2238.0,18.0,1,
106107,1875.6,233.0,117.9,55.5,491.0,4426.0,18.0,1,
106207,1833.2,230.2,114.7,30.2,702.0,4867.0,16.0,1,
106307,1840.3,180.2,115.3,30.3,616.0,4599.0,17.0,1,
106407,1879.9,131.7,113.7,34.5,598.0,4275.0,17.0,1,
106607,1856.8,80.0,111.3,39.0,300.0,2148.0,17.0,1,
106707,1875.3,53.3,112.1,29.9,390.0,2208.0,17.0,1,
106807,1860.7,7.0,112.1,34.7,390.0,2208.0,17.0,1,
106907,1865.0,4.8,112.1,38.3,390.0,2208.0,17.0,1,
107007,1866.3,4.5,112.1,29.9,390.0,2208.0,17.0,1,
107107,1859.5,3.1,112.1,40.6,390.0,2208.0,17.0,1,
107207,1862.0,2.2,112.1,78.7,390.0,2208.0,17.0,1,
107307,1860.5,2.4,112.1,92.0,390.0,2208.0,17.0,1,
107407,1859.7,2.7,112.1,101.2,390.0,2208.0,17.0,1,
107607,1860.1,2.5,112.1,103.4,390.0,2208.0,17.0,1,
107707,1862.1,88.9,112.1,99.7,461.0,4304.0,26.0,0,
107807,1850.2,236.8,108.8,30.0,738.0,4822.0,25.0,0,
107907,1881.9,173.8,104.8,34.2,597.0,4434.0,16.0,1,
108007,1871.1,143.7,108.7,34.9,513.0,4173.0,16.0,1,
108107,1845.8,82.2,107.3,36.7,415.0,3297.0,17.0,1,
108207,1866.9,96.1,112.7,37.8,300.0,2020.0,17.0,1,
108307,1861.5,118.8,115.8,30.2,341.0,2038.0,16.0,1,
108407,1868.6,12.7,115.7,30.0,341.0,2038.0,16.0,1,
108607,1865.1,4.6,115.7,38.3,341.0,2038.0,16.0,1,
108707,1863.7,2.9,115.7,37.4,341.0,2038.0,16.0,1,
108807,1861.7,1.8,115.6,49.8,341.0,2038.0,16.0,1,
108907,1861.3,2.3,115.6,108.7,341.0,2038.0,16.0,1,
109007,1860.7,2.0,115.6,98.9,341.0,2038.0,16.0,1,
109107,1860.6,2.4,115.6,100.4,341.0,2038.0,16.0,1,
109207,1861.6,2.6,115.6,104.2,341.0,2038.0,16.0,1,
109307,1862.8,3.8,115.6,100.3,341.0,2038.0,16.0,1,
109407,1882.7,248.9,112.2,45.6,784.0,4983.0,25.0,0,
109607,1836.3,142.1,111.3,34.6,668.0,4434.0,17.0,1,
109707,1856.3,122.6,115.2,34.9,476.0,4029.0,4.0,1,
109807,1871.8,217.2,116.1,35.5,300.0,2213.0,17.0,1,
109907,1856.2,86.5,120.8,29.2,339.0,2146.0,17.0,1,
110007,1858.4,13.2,117.4,28.1,326.0,2020.0,17.0,1,
110107,1861.2,3.9,117.5,28.5,326.0,2020.0,17.0,1,
110207,1863.6,4.1,117.5,29.1,326.0,2020.0,17.0,1,
110307,1863.8,2.7,117.5,35.4,326.0,2020.0,17.0,1,
110407,1860.3,3.2,117.5,73.2,326.0,2020.0,17.0,1,
110607,1858.5,3.7,117.6,100.8,326.0,2020.0,17.0,1,
110707,1857.9,4.9,117.7,112.1,326.0,2020.0,17.0,1,
110807,1858.3,2.9,117.7,112.7,326.0,2020.0,17.0,1,
110907,1860.4,2.7,117.7,111.3,326.0,2020.0,17.0,1,
111007,1863.1,227.8,120.5,36.2,889.0,5683.0,18.0,1,
111107,1844.2,231.6,122.1,34.5,663.0,4754.0,17.0,1,
111207,1865.8,142.7,123.2,34.4,623.0,4297.0,16.0,1,
111307,1878.0,111.0,126.7,34.7,504.0,4060.0,18.0,1,
111407,1856.0,96.9,126.6,37.1,298.0,2547.0,18.0,1,
111607,1858.9,21.9,116.8,30.2,306.0,1906.0,17.0,1,
111707,1861.6,4.5,116.8,34.5,306.0,1906.0,17.0,1,
111807,1861.9,2.8,116.8,29.1,306.0,1906.0,17.0,1,
111907,1861.3,3.7,116.8,29.4,306.0,1906.0,17.0,1,
112007,1862.7,2.3,116.8,43.4,306.0,1906.0,17.0,1,
112107,1862.8,2.5,116.8,99.4,306.0,1906.0,17.0,1,
112207,1861.0,3.0,116.8,99.6,306.0,1906.0,17.0,1,
112307,1859.5,2.3,116.8,82.6,306.0,1906.0,17.0,1,
112407,1860.2,1.9,116.8,93.0,306.0,1906.0,17.0,1,
112607,1849.5,139.1,114.5,39.4,775.0,5091.0,17.0,1,
112707,1867.3,219.4,109.0,36.3,653.0,4616.0,17.0,1,
112807,1884.7,144.8,110.3,35.4,540.0,4556.0,18.0,1,
112907,1853.6,99.8,98.8,34.9,553.0,4001.0,17.0,1,
113007,1847.0,72.6,98.6,35.6,375.0,3021.0,17.0,1,
113107,1860.8,73.9,96.5,36.6,339.0,2049.0,17.0,1,
113207,1858.9,32.9,96.2,30.2,321.0,1901.0,17.0,1,
113307,1862.7,5.2,96.2,35.7,321.0,1901.0,17.0,1,
113407,1860.4,4.0,96.2,52.0,321.0,1901.0,17.0,1,
113607,1861.1,2.1,96.2,42.2,321.0,1901.0,17.0,1,
113707,1861.8,2.8,96.2,99.5,321.0,1901.0,17.0,1,
113807,1862.3,2.5,96.2,109.8,321.0,1901.0,17.0,1,
113907,1860.9,2.4,96.1,113.1,321.0,1901.0,17.0,1,
114007,1859.5,2.8,96.2,112.6,321.0,1901.0,17.0,1,
114107,1861.0,2.5,96.1,102.2,321.0,1901.0,17.0,1,
114207,1869.0,135.5,96.3,69.8,479.0,4070.0,19.0,1,
114307,1879.0,214.9,96.3,34.4,739.0,4850.0,17.0,1,
114407,1840.8,196.6,99.4,34.4,597.0,4440.0,16.0,1,
114607,1873.0,144.9,110.2,35.3,379.0,3079.0,17.0,1,
114707,1864.4,134.6,118.2,35.8,380.0,2400.0,16.0,1,
114807,1867.1,70.1,119.6,29.8,330.0,1879.0,17.0,1,
114907,1857.7,8.6,119.6,36.5,330.0,1879.0,17.0,1,
115007,1861.6,5.0,119.6,29.9,330.0,1879.0,17.0,1,
115107,1863.7,3.5,119.6,27.2,330.0,1879.0,17.0,1,
115207,1862.6,2.6,119.6,38.6,330.0,1879.0,17.0,1,
115307,1860.7,2.2,119.6,69.7,330.0,1879.0,17.0,1,
115407,1860.6,1.8,119.6,100.0,330.0,1879.0,17.0,1,
115607,1861.1,2.1,119.6,99.7,330.0,1879.0,17.0,1,
115707,1861.7,2.1,119.6,108.7,330.0,1879.0,17.0,1,
115807,1861.5,39.7,119.6,102.1,330.0,1879.0,17.0,1,
115907,1851.6,211.0,122.1,35.4,781.0,5099.0,17.0,1,
116007,1851.3,192.8,121.9,35.7,583.0,4702.0,17.0,1,
116107,1875.9,157.2,124.4,35.2,547.0,4363.0,17.0,1,
116207,1869.6,134.9,125.1,30.1,444.0,3365.0,17.0,1,
116307,1856.5,89.5,122.1,29.8,352.0,2428.0,17.0,1,
116407,1859.7,78.7,113.4,27.5,327.0,1922.0,18.0,1,
116607,1860.4,3.6,113.4,28.0,327.0,1922.0,18.0,1,
116707,1862.0,3.1,113.4,37.8,327.0,1922.0,18.0,1,
116807,1863.5,2.8,113.4,35.8,327.0,1922.0,18.0,1,
116907,1859.7,3.1,113.4,67.1,327.0,1922.0,18.0,1,
117007,1860.4,2.6,113.4,101.0,327.0,1922.0,18.0,1,
117107,1861.1,2.0,113.4,100.2,327.0,1922.0,18.0,1,
117207,1861.0,1.9,113.4,102.3,327.0,1922.0,18.0,1,
117307,1861.1,2.6,113.4,101.7,327.0,1922.0,18.0,1,
117407,1860.6,2.5,113.5,99.9,327.0,1922.0,18.0,1,
117607,1880.4,214.1,113.1,34.3,619.0,4666.0,17.0,1,
117707,1876.4,142.9,119.0,34.4,580.0,4592.0,17.0,1,
117807,1834.9,219.6,118.8,34.8,512.0,3917.0,17.0,1,
117907,1861.0,92.8,119.9,38.5,299.0,2336.0,17.0,1,
118007,1871.7,94.2,119.7,30.2,327.0,1818.0,18.0,1,
118107,1864.8,16.2,120.7,29.4,305.0,1812.0,17.0,1,
118207,1861.4,4.6,120.7,34.3,305.0,1812.0,17.0,1,
118307,1864.9,4.0,120.7,38.9,305.0,1812.0,17.0,1,
118407,1862.7,2.8,120.7,39.1,305.0,1812.0,17.0,1,
118607,1859.3,3.5,120.7,88.2,305.0,1812.0,17.0,1,
118707,1860.0,2.1,120.7,77.1,305.0,1812.0,17.0,1,
118807,1861.5,2.8,120.7,89.2,305.0,1812.0,17.0,1,
118907,1861.2,2.3,120.7,99.7,305.0,1812.0,17.0,1,
119007,1860.4,2.1,120.7,99.5,305.0,1812.0,17.0,1,
119107,1866.0,216.0,121.0,35.7,824.0,5499.0,18.0,1,
119207,1866.2,216.7,117.5,34.4,685.0,4666.0,16.0,1,
119307,1838.0,235.0,111.4,34.6,514.0,4691.0,17.0,1,
119407,1856.7,128.5,113.8,34.8,498.0,3814.0,17.0,1,
119607,1856.4,95.5,112.2,29.7,294.0,1958.0,17.0,1,
119707,1864.8,27.9,111.6,30.0,329.0,1799.0,17.0,1,
119807,1858.8,6.7,111.7,36.7,329.0,1799.0,17.0,1,
119907,1858.8,3.1,111.8,37.1,329.0,1799.0,17.0,1,
120007,1863.2,4.8,111.8,28.4,329.0,1799.0,17.0,1,
120107,1863.5,2.5,111.8,43.6,329.0,1799.0,17.0,1,
120207,1860.2,2.6,111.7,99.2,329.0,1799.0,17.0,1,
120307,1861.4,2.4,111.7,99.0,329.0,1799.0,17.0,1,
120407,1860.7,2.4,111.7,90.5,329.0,1799.0,17.0,1,
120607,1860.9,2.5,111.7,100.0,329.0,1799.0,17.0,1,
120707,1855.6,214.3,112.9,52.7,461.0,4222.0,19.0,1,
120807,1853.7,238.9,119.3,29.9,785.0,4962.0,17.0,1,
120907,1852.8,177.0,118.6,30.2,521.0,4744.0,16.0,1,
121007,1883.4,122.7,114.7,34.5,512.0,4050.0,17.0,1,
121107,1860.1,70.0,107.1,35.6,336.0,2891.0,18.0,1,
121207,1848.8,84.5,109.5,40.0,294.0,2121.0,17.0,1,
121307,1875.7,57.6,114.6,34.5,321.0,1846.0,18.0,1,
121407,1859.6,7.3,114.6,36.4,321.0,1846.0,18.0,1,
121607,1864.0,5.8,114.6,38.2,321.0,1846.0,18.0,1,
121707,1864.6,2.2,114.6,46.9,321.0,1846.0,18.0,1,
121807,1860.7,2.7,114.6,99.5,321.0,1846.0,18.0,1,
121907,1861.3,2.5,114.6,98.8,321.0,1846.0,18.0,1,
122007,1860.3,2.3,114.6,98.7,321.0,1846.0,18.0,1,
122107,1860.5,2.3,114.6,99.8,321.0,1846.0,18.0,1,
122207,1861.3,2.0,114.6,100.8,321.0,1846.0,18.0,1,
122307,1862.5,99.5,113.7,131.5,435.0,4038.0,19.0,1,
122407,1860.1,255.6,111.2,34.3,761.0,5192.0,17.0,1,
122607,1868.3,154.3,115.9,34.5,544.0,4278.0,16.0,1,
122707,1843.8,99.5,116.9,35.3,458.0,3807.0,17.0,1,
122807,1869.6,171.5,124.1,36.9,312.0,2109.0,16.0,1,
122907,1860.4,121.0,124.0,30.2,322.0,1966.0,16.0,1,
123007,1861.5,11.2,124.0,28.5,322.0,1966.0,16.0,1,
123107,1857.1,4.0,124.0,28.1,322.0,1966.0,16.0,1,
123207,1860.8,3.3,124.0,29.9,322.0,1966.0,16.0,1,
123307,1862.3,3.0,124.0,30.3,322.0,1966.0,16.0,1,
123407,1859.0,3.1,124.0,56.5,322.0,1966.0,16.0,1,
123607,1860.1,2.5,124.0,113.3,322.0,1966.0,16.0,1,
123707,1860.7,2.4,124.0,108.5,322.0,1966.0,16.0,1,
123807,1859.6,2.3,124.0,99.2,322.0,1966.0,16.0,1,
123907,1860.7,16.8,124.0,92.1,322.0,1966.0,16.0,1,
124007,1891.6,235.0,121.4,35.1,741.0,5151.0,17.0,1,
124107,1840.3,191.2,118.5,34.8,589.0,4455.0,16.0,1,
124207,1842.3,153.8,117.1,34.8,474.0,4118.0,17.0,1,
124307,1870.8,101.6,120.6,35.5,420.0,3369.0,17.0,1,
124407,1866.5,85.9,116.5,44.8,289.0,2198.0,16.0,1,
124607,1852.7,13.3,106.0,34.4,318.0,1749.0,17.0,1,
124707,1858.6,4.1,106.0,34.6,318.0,1749.0,17.0,1,
124807,1862.3,3.9,106.0,36.2,318.0,1749.0,17.0,1,
124907,1866.2,3.3,106.0,37.1,318.0,1749.0,17.0,1,
125007,1860.4,2.1,106.0,76.9,318.0,1749.0,17.0,1,
125107,1860.8,2.4,106.0,102.1,318.0,1749.0,17.0,1,
125207,1860.4,2.2,106.0,99.3,318.0,1749.0,17.0,1,
125307,1860.7,1.7,106.0,99.6,318.0,1749.0,17.0,1,
125407,1861.9,2.3,106.0,101.7,318.0,1749.0,17.0,1,
125607,1859.3,188.7,104.5,37.0,790.0,5273.0,25.0,0,
125707,1848.4,213.1,106.8,34.9,661.0,4676.0,17.0,1,
125807,1883.3,143.2,105.4,34.7,482.0,4394.0,17.0,1,
125907,1863.1,130.9,105.5,34.9,487.0,3661.0,16.0,1,
126007,1856.1,75.9,105.2,40.1,329.0,2534.0,21.0,1,
126107,1863.8,99.1,105.1,30.0,341.0,1998.0,17.0,1,
126207,1858.6,20.7,105.3,30.0,288.0,1787.0,17.0,1,
126307,1859.2,6.0,105.3,34.6,288.0,1787.0,17.0,1,
126407,1860.8,2.7,105.3,26.9,288.0,1787.0,17.0,1,
126607,1861.9,2.7,105.3,43.3,288.0,1787.0,17.0,1,
126707,1860.6,2.2,105.3,100.2,288.0,1787.0,17.0,1,
126807,1860.2,2.2,105.3,101.5,288.0,1787.0,17.0,1,
126907,1860.3,2.5,105.4,102.0,288.0,1787.0,17.0,1,
127007,1861.0,1.9,105.4,100.2,288.0,1787.0,17.0,1,
127107,1860.8,2.0,105.4,99.9,288.0,1787.0,17.0,1,
127207,1843.0,161.1,107.3,34.6,803.0,5610.0,18.0,1,
127307,1883.6,243.5,106.7,34.7,662.0,4772.0,17.0,1,
127407,1865.4,163.7,109.1,34.6,531.0,4325.0,16.0,1,
127607,1866.8,80.9,103.8,30.2,290.0,2401.0,17.0,1,
127707,1857.2,97.0,104.0,36.2,288.0,1886.0,16.0,1,
127807,1871.7,35.0,103.8,29.9,320.0,1912.0,17.0,1,
127907,1861.0,6.1,103.8,30.1,320.0,1912.0,17.0,1,
128007,1859.6,2.9,103.8,35.2,320.0,1912.0,17.0,1,
128107,1864.4,4.8,103.8,36.2,320.0,1912.0,17.0,1,
128207,1862.9,2.5,103.8,41.3,320.0,1912.0,17.0,1,
128307,1860.5,1.8,103.8,99.8,320.0,1912.0,17.0,1,
128407,1861.5,2.5,103.8,102.0,320.0,1912.0,17.0,1,
128607,1861.3,1.9,103.7,99.9,320.0,1912.0,17.0,1,
128707,1861.0,2.4,103.7,98.9,320.0,1912.0,17.0,1,
128807,1872.2,133.6,103.5,56.8,426.0,3962.0,19.0,1,
128907,1868.5,140.2,102.0,34.7,753.0,5243.0,18.0,1,
129007,1830.1,182.2,96.9,34.8,560.0,4513.0,17.0,1,
129107,1858.4,133.5,97.4,35.1,475.0,3790.0,17.0,1,
129207,1876.6,85.4,95.2,35.7,342.0,3025.0,18.0,1,
129307,1864.4,70.3,95.4,37.6,275.0,2194.0,17.0,1,
129407,1869.4,68.7,98.7,30.0,389.0,2395.0,18.0,1,
129607,1858.4,4.8,98.7,28.8,389.0,2395.0,18.0,1,
129707,1863.7,4.4,98.7,26.9,389.0,2395.0,18.0,1,
129807,1864.5,3.1,98.7,26.7,389.0,2395.0,18.0,1,
129907,1859.2,3.1,98.7,74.2,389.0,2395.0,18.0,1,
130007,1860.8,2.8,98.7,99.1,389.0,2395.0,18.0,1,
130107,1861.1,2.0,98.7,100.2,389.0,2395.0,18.0,1,
130207,1860.9,2.5,98.7,99.0,389.0,2395.0,18.0,1,
130307,1860.7,2.1,98.7,90.3,389.0,2395.0,18.0,1,
130407,1850.8,108.9,99.0,84.0,389.0,2395.0,18.0,1,
130607,1865.1,185.5,103.7,34.2,585.0,4209.0,17.0,1,
130707,1884.2,117.6,103.9,34.5,505.0,4353.0,17.0,1,
130807,1859.6,109.3,103.6,34.8,372.0,3123.0,27.0,0,
130907,1857.9,102.9,107.3,38.6,276.0,2148.0,16.0,1,
131007,1865.8,81.2,103.7,30.0,362.0,2002.0,17.0,1,
131107,1868.6,11.0,103.8,29.4,362.0,2002.0,17.0,1,
131207,1857.4,6.3,103.8,36.3,362.0,2002.0,17.0,1,
131307,1857.1,4.4,103.8,49.3,362.0,2002.0,17.0,1,
131407,1865.2,3.1,103.8,66.2,362.0,2002.0,17.0,1,
131607,1860.0,2.1,103.8,94.2,362.0,2002.0,17.0,1,
131707,1860.7,2.9,103.8,102.4,362.0,2002.0,17.0,1,
131807,1860.7,2.3,103.8,102.4,362.0,2002.0,17.0,1,
131907,1860.5,2.3,103.8,100.8,362.0,2002.0,17.0,1,
132007,1861.0,25.8,103.8,108.9,362.0,2002.0,17.0,1,
132107,1854.7,227.9,110.3,28.8,768.0,5263.0,18.0,1,
132207,1878.5,184.6,107.4,29.6,575.0,4281.0,16.0,1,
132307,1858.4,246.0,107.1,34.2,530.0,4477.0,17.0,1,
132407,1845.4,128.7,117.4,34.9,449.0,3595.0,17.0,1,
132607,1858.0,76.7,113.7,28.1,341.0,1956.0,17.0,1,
132707,1869.2,14.1,113.6,28.5,344.0,1814.0,17.0,1,
132807,1858.3,6.2,113.6,34.9,344.0,1814.0,17.0,1,
132907,1857.5,4.1,113.6,46.3,344.0,1814.0,17.0,1,
133007,1865.7,4.4,113.6,38.2,344.0,1814.0,17.0,1,
133107,1861.8,2.3,113.5,66.6,344.0,1814.0,17.0,1,
133207,1860.1,2.7,113.5,100.1,344.0,1814.0,17.0,1,
133307,1861.4,2.6,113.5,99.8,344.0,1814.0,17.0,1,
133407,1859.8,2.8,113.5,99.9,344.0,1814.0,17.0,1,
133607,1860.3,2.8,113.6,100.2,344.0,1814.0,17.0,1,
133707,1891.4,198.7,104.9,56.9,746.0,5278.0,18.0,1,
133807,1835.3,236.1,109.1,36.0,708.0,4885.0,17.0,1,
133907,1844.8,159.6,108.4,34.8,568.0,4428.0,17.0,1,
134007,1872.3,145.9,99.5,34.9,432.0,3416.0,17.0,1,
134107,1864.6,81.5,99.5,36.2,336.0,2455.0,17.0,1,
134207,1871.0,98.6,106.5,34.7,323.0,1967.0,17.0,1,
134307,1850.8,24.6,106.5,35.1,374.0,2153.0,18.0,1,
134407,1859.2,7.2,106.5,30.1,374.0,2153.0,18.0,1,
134607,1864.5,6.4,106.5,30.1,374.0,2153.0,18.0,1,
134707,1864.8,3.6,106.5,48.7,374.0,2153.0,18.0,1,
134807,1861.5,2.1,106.4,106.6,374.0,2153.0,18.0,1,
134907,1861.6,2.6,106.4,102.0,374.0,2153.0,18.0,1,
135007,1861.4,2.4,106.4,100.5,374.0,2153.0,18.0,1,
135107,1861.1,2.2,106.4,101.8,374.0,2153.0,18.0,1,
135207,1860.4,2.6,106.4,104.2,374.0,2153.0,18.0,1,
135307,1864.8,152.9,106.2,47.1,451.0,4151.0,19.0,1,
135407,1848.0,206.0,102.7,35.0,655.0,4695.0,17.0,1,
135607,1866.5,92.1,100.2,34.6,485.0,3773.0,16.0,1,
135707,1859.2,76.0,97.6,35.4,354.0,2750.0,17.0,1,
135807,1868.7,139.4,91.6,65.5,304.0,1873.0,18.0,1,
135907,1856.2,42.9,93.4,30.2,303.0,1787.0,17.0,1,
136007,1861.9,7.4,93.4,29.9,303.0,1787.0,17.0,1,
136107,1857.7,3.0,93.4,29.3,303.0,1787.0,17.0,1,
136207,1864.1,5.3,93.4,30.1,303.0,1787.0,17.0,1,
136307,1865.2,3.3,93.4,36.8,303.0,1787.0,17.0,1,
136407,1860.3,2.2,93.4,112.6,303.0,1787.0,17.0,1,
136607,1861.4,2.5,93.4,105.8,303.0,1787.0,17.0,1,
136707,1860.3,1.9,93.4,103.7,303.0,1787.0,17.0,1,
136807,1861.6,4.0,93.4,100.4,303.0,1787.0,17.0,1,
136907,1853.8,91.8,93.2,90.7,426.0,3984.0,19.0,1,
137007,1882.6,206.7,92.7,35.8,701.0,4981.0,25.0,0,
137107,1879.6,119.5,93.3,35.3,550.0,4601.0,18.0,1,
137207,1838.4,232.0,95.2,35.1,508.0,4101.0,17.0,1,
137307,1866.0,113.2,105.5,35.7,304.0,2526.0,17.0,1,
137407,1869.4,133.5,111.4,29.9,256.0,1796.0,18.0,1,
137607,1859.5,8.4,110.5,30.0,256.0,1796.0,18.0,1,
137707,1855.9,5.1,110.5,28.3,256.0,1796.0,18.0,1,
137807,1861.5,3.5,110.5,28.0,256.0,1796.0,18.0,1,
137907,1862.8,2.9,110.5,37.5,256.0,1796.0,18.0,1,
138007,1857.9,4.5,110.6,77.7,256.0,1796.0,18.0,1,
138107,1859.5,3.0,110.6,99.7,256.0,1796.0,18.0,1,
138207,1858.9,2.9,110.6,101.9,256.0,1796.0,18.0,1,
138307,1859.4,3.5,110.6,104.7,256.0,1796.0,18.0,1,
138407,1859.9,2.2,110.6,92.0,256.0,1796.0,18.0,1,
138607,1886.6,211.6,115.4,84.8,714.0,5123.0,25.0,0,
138707,1834.3,253.7,117.5,41.8,588.0,4726.0,17.0,1,
138807,1845.4,157.3,119.9,34.7,474.0,4048.0,17.0,1,
138907,1882.4,103.7,118.6,35.3,331.0,2695.0,27.0,0,
139007,1860.8,121.1,116.9,36.2,224.0,1961.0,16.0,1,
139107,1860.6,91.6,121.4,29.8,217.0,1653.0,17.0,1,
139207,1863.0,12.6,121.4,29.8,229.0,1660.0,17.0,1,
139307,1859.8,4.2,121.4,28.2,229.0,1660.0,17.0,1,
139407,1860.2,4.0,121.4,27.9,229.0,1660.0,17.0,1,
139607,1864.7,3.0,121.3,77.8,229.0,1660.0,17.0,1,
139707,1858.9,2.6,121.3,88.6,229.0,1660.0,17.0,1,
139807,1860.7,2.3,121.3,99.4,229.0,1660.0,17.0,1,
139907,1861.0,2.1,121.3,100.6,229.0,1660.0,17.0,1,
140007,1859.7,2.5,121.2,99.6,229.0,1660.0,17.0,1,
140107,1860.1,3.3,121.3,100.0,229.0,1660.0,17.0,1,
140207,1861.7,224.2,118.6,35.2,813.0,5656.0,26.0,0,
140307,1855.4,217.1,120.5,37.0,592.0,4603.0,17.0,1,
140407,1877.0,127.1,119.0,35.4,478.0,4185.0,17.0,1,
140607,1839.7,181.7,116.4,34.8,227.0,2024.0,17.0,1,
140707,1862.3,89.7,113.7,35.8,262.0,1726.0,17.0,1,
140807,1862.6,17.7,113.7,36.0,252.0,1613.0,16.0,1,
140907,1859.9,5.6,113.7,28.3,252.0,1613.0,16.0,1,
141007,1858.6,4.1,113.7,27.6,252.0,1613.0,16.0,1,
141107,1864.7,4.8,113.7,36.7,252.0,1613.0,16.0,1,
141207,1862.3,3.2,113.7,52.9,252.0,1613.0,16.0,1,
141307,1859.6,2.7,113.7,102.2,252.0,1613.0,16.0,1,
141407,1861.2,2.2,113.7,108.9,252.0,1613.0,16.0,1,
141607,1860.0,3.2,113.7,102.3,252.0,1613.0,16.0,1,
141707,1861.1,2.5,113.7,99.2,252.0,1613.0,16.0,1,
141807,1864.7,150.8,113.7,41.0,806.0,5625.0,26.0,0,
141907,1868.9,192.3,110.2,35.8,629.0,4681.0,17.0,1,
142007,1871.4,165.1,107.6,35.3,530.0,4354.0,17.0,1,
142107,1843.9,163.0,106.1,35.0,464.0,3585.0,17.0,1,
142207,1849.8,88.3,105.7,35.1,299.0,2151.0,17.0,1,
142307,1879.8,69.1,94.9,30.0,321.0,1896.0,17.0,1,
142407,1851.3,25.5,95.0,34.7,310.0,1888.0,17.0,1,
142607,1856.2,6.1,95.0,46.6,310.0,1888.0,17.0,1,
142707,1859.8,4.1,95.1,44.5,310.0,1888.0,17.0,1,
142807,1861.2,4.0,95.1,51.1,310.0,1888.0,17.0,1,
142907,1859.1,2.6,95.1,87.5,310.0,1888.0,17.0,1,
143007,1860.3,2.0,95.1,68.8,310.0,1888.0,17.0,1,
143107,1860.0,2.9,95.1,69.0,310.0,1888.0,17.0,1,
143207,1860.1,2.6,95.1,80.0,310.0,1888.0,17.0,1,
143307,1860.2,2.0,95.2,100.9,310.0,1888.0,17.0,1,
143407,1881.6,121.7,95.1,49.0,426.0,3918.0,26.0,0,
143607,1862.0,161.9,103.6,36.1,566.0,4634.0,18.0,1,
143707,1855.3,135.5,102.6,35.5,460.0,3689.0,17.0,1,
143807,1885.9,74.7,98.4,34.7,276.0,2376.0,17.0,1,
143907,1861.9,69.8,98.4,35.0,250.0,1870.0,16.0,1,
144007,1857.0,48.1,98.7,36.7,323.0,1794.0,17.0,1,
144107,1855.3,6.1,98.7,40.8,323.0,1794.0,17.0,1,
144207,1857.4,4.9,98.7,37.3,323.0,1794.0,17.0,1,
144307,1860.4,3.3,98.7,36.6,323.0,1794.0,17.0,1,
144407,1863.5,2.2,98.7,41.9,323.0,1794.0,17.0,1,
144607,1860.2,2.8,98.7,110.3,323.0,1794.0,17.0,1,
144707,1860.4,2.2,98.7,108.1,323.0,1794.0,17.0,1,
144807,1860.9,2.5,98.6,104.7,323.0,1794.0,17.0,1,
144907,1860.4,2.2,98.6,100.1,323.0,1794.0,17.0,1,
145007,1849.9,66.0,98.6,99.8,323.0,1794.0,17.0,1,
145107,1867.0,151.5,87.9,34.9,673.0,4955.0,25.0,0,
145207,1870.0,145.6,86.1,34.9,503.0,4395.0,16.0,1,
145307,1874.9,103.2,85.2,35.0,497.0,4036.0,17.0,1,
145407,1875.9,80.4,82.7,35.4,356.0,2913.0,18.0,1,
145607,1860.8,79.5,89.4,35.2,295.0,1845.0,17.0,1,
145707,1868.8,9.6,89.4,28.9,295.0,1845.0,17.0,1,
145807,1857.8,6.0,89.4,27.2,295.0,1845.0,17.0,1,
145907,1858.0,4.1,89.4,26.2,295.0,1845.0,17.0,1,
146007,1864.4,3.0,89.4,26.9,295.0,1845.0,17.0,1,
146107,1860.9,3.2,89.4,91.6,295.0,1845.0,17.0,1,
146207,1860.1,2.4,89.4,134.6,295.0,1845.0,17.0,1,
146307,1860.9,1.9,89.4,134.0,295.0,1845.0,17.0,1,
146407,1860.7,2.9,89.4,123.0,295.0,1845.0,17.0,1,
146607,1860.4,1.8,89.4,123.7,295.0,1845.0,17.0,1,
146707,1872.9,165.1,88.9,36.2,787.0,5601.0,26.0,0,
146807,1866.8,297.7,90.9,35.1,588.0,4691.0,17.0,1,
146907,1848.5,156.4,109.8,35.1,458.0,4021.0,17.0,1,
147007,1866.7,129.9,118.2,34.5,366.0,3019.0,18.0,1,
147107,1853.3,81.3,118.2,28.7,283.0,1926.0,17.0,1,
147207,1876.9,124.9,118.9,29.5,315.0,1819.0,16.0,1,
147307,1855.1,15.7,118.8,29.9,314.0,1899.0,17.0,1,
147407,1858.4,5.6,118.8,29.8,314.0,1899.0,17.0,1,
147607,1863.2,4.4,118.8,27.5,314.0,1899.0,17.0,1,
147707,1862.8,3.0,118.8,51.6,314.0,1899.0,17.0,1,
147807,1860.2,2.0,118.8,91.5,314.0,1899.0,17.0,1,
147907,1861.0,2.4,118.8,92.2,314.0,1899.0,17.0,1,
148007,1861.1,2.4,118.8,99.7,314.0,1899.0,17.0,1,
148107,1860.6,2.0,118.8,110.5,314.0,1899.0,17.0,1,
148207,1860.3,2.3,118.8,109.2,314.0,1899.0,17.0,1,
148307,1876.1,175.8,118.3,36.6,731.0,5506.0,26.0,0,
148407,1838.0,194.0,118.0,36.2,631.0,4693.0,25.0,0,
148607,1860.4,157.3,91.8,34.8,426.0,3374.0,17.0,1,
148707,1878.8,78.2,97.2,34.6,259.0,2235.0,16.0,1,
148807,1868.6,78.9,96.6,34.7,221.0,1519.0,16.0,1,
148907,1848.9,21.0,90.0,34.9,251.0,1625.0,16.0,1,
149007,1860.2,4.9,90.0,37.1,251.0,1625.0,16.0,1,
149107,1858.0,3.7,90.0,40.7,251.0,1625.0,16.0,1,
149207,1862.7,4.2,89.9,42.4,251.0,1625.0,16.0,1,
149307,1864.5,3.1,89.9,47.5,251.0,1625.0,16.0,1,
149407,1860.0,2.7,89.9,105.3,251.0,1625.0,16.0,1,
149607,1860.7,1.9,90.0,89.4,251.0,1625.0,16.0,1,
149707,1860.7,2.3,90.0,99.0,251.0,1625.0,16.0,1,
149807,1860.9,2.4,89.9,99.9,251.0,1625.0,16.0,1,
149907,1843.7,132.1,89.9,44.6,421.0,3747.0,26.0,0,
150007,1865.8,222.8,98.5,35.4,634.0,4630.0,17.0,1,
150107,1873.8,129.5,99.2,35.5,485.0,4243.0,16.0,1,
150207,1865.1,94.8,98.5,35.8,465.0,3584.0,17.0,1,
150307,1855.0,88.5,99.6,34.8,349.0,2820.0,28.0,0,
150407,1858.1,76.6,99.6,34.3,242.0,1574.0,17.0,1,
150607,1861.3,6.2,99.7,36.5,242.0,1574.0,17.0,1,
150707,1857.5,4.8,99.7,37.2,242.0,1574.0,17.0,1,
150807,1861.1,4.4,99.7,38.7,242.0,1574.0,17.0,1,
150907,1864.0,2.8,99.7,43.5,242.0,1574.0,17.0,1,
151007,1859.8,2.8,99.8,103.3,242.0,1574.0,17.0,1,
151107,1860.0,2.0,99.8,123.4,242.0,1574.0,17.0,1,
151207,1860.8,2.5,99.8,110.6,242.0,1574.0,17.0,1,
151307,1861.0,2.1,99.8,100.5,242.0,1574.0,17.0,1,
151407,1860.0,2.0,99.8,100.2,242.0,1574.0,17.0,1,
151607,1886.4,180.8,90.1,36.6,806.0,5342.0,26.0,0,
151707,1856.5,143.6,90.3,35.5,540.0,4533.0,17.0,1,
151807,1848.8,120.6,90.1,35.2,447.0,3982.0,17.0,1,
151907,1867.7,91.0,83.5,35.3,335.0,2657.0,28.0,0,
152007,1857.4,89.5,83.8,36.8,216.0,1798.0,17.0,1,
152107,1873.5,64.5,84.8,34.8,284.0,1825.0,16.0,1,
152207,1859.3,9.7,84.8,41.3,284.0,1825.0,16.0,1,
152307,1858.1,4.4,84.8,41.8,284.0,1825.0,16.0,1,
152407,1860.1,5.9,84.8,41.6,284.0,1825.0,16.0,1,
152607,1860.8,2.6,84.8,88.9,284.0,1825.0,16.0,1,
152707,1860.2,2.8,84.8,115.0,284.0,1825.0,16.0,1,
152807,1861.4,3.0,84.8,102.5,284.0,1825.0,16.0,1,
152907,1862.3,2.3,84.7,91.3,284.0,1825.0,16.0,1,
153007,1861.9,2.3,84.7,112.1,284.0,1825.0,16.0,1,
153107,1861.3,1.5,84.7,112.0,284.0,1825.0,16.0,1,
153207,1867.2,186.7,93.4,34.7,706.0,5002.0,25.0,0,
153307,1838.8,179.1,89.7,34.5,561.0,4590.0,16.0,1,
153407,1870.5,146.4,91.5,34.7,458.0,3899.0,17.0,1,
153607,1868.7,82.1,95.6,37.6,240.0,1835.0,17.0,1,
153707,1859.7,121.7,96.8,30.0,267.0,1673.0,17.0,1,
153807,1864.5,14.8,98.0,29.5,305.0,1960.0,16.0,1,
153907,1859.1,4.6,98.0,36.9,305.0,1960.0,16.0,1,
154007,1859.1,4.0,98.0,36.2,305.0,1960.0,16.0,1,
154107,1866.2,3.9,98.0,38.8,305.0,1960.0,16.0,1,
154207,1861.4,3.1,98.0,66.1,305.0,1960.0,16.0,1,
154307,1860.0,2.0,98.0,98.9,305.0,1960.0,16.0,1,
154407,1861.0,2.0,98.0,101.0,305.0,1960.0,16.0,1,
154607,1861.5,2.6,98.1,101.4,305.0,1960.0,16.0,1,
154707,1860.4,2.1,98.1,99.1,305.0,1960.0,16.0,1,
154807,1842.2,158.3,93.0,36.4,753.0,5352.0,26.0,0,
154907,1877.3,174.0,92.3,35.4,566.0,4230.0,17.0,1,
155007,1874.8,121.4,91.4,35.6,475.0,4200.0,17.0,1,
155107,1857.3,76.1,90.1,36.6,419.0,3116.0,27.0,0,
155207,1848.3,91.1,86.9,37.8,231.0,2140.0,27.0,0,
155307,1863.2,84.9,85.0,30.1,242.0,1540.0,17.0,1,
155407,1866.4,20.4,85.5,29.6,256.0,1644.0,16.0,1,
155607,1858.5,3.2,85.5,39.0,256.0,1644.0,16.0,1,
155707,1864.2,4.4,85.5,38.4,256.0,1644.0,16.0,1,
155807,1865.6,3.4,85.5,48.6,256.0,1644.0,16.0,1,
155907,1860.9,2.0,85.4,99.8,256.0,1644.0,16.0,1,
156007,1861.6,2.5,85.4,99.6,256.0,1644.0,16.0,1,
156107,1862.2,2.3,85.4,100.5,256.0,1644.0,16.0,1,
156207,1861.3,2.3,85.4,103.1,256.0,1644.0,16.0,1,
156307,1861.9,2.8,85.4,100.0,256.0,1644.0,16.0,1,
156407,1857.2,125.6,86.0,41.3,727.0,5491.0,26.0,0,
156607,1848.0,176.1,96.7,35.1,506.0,4200.0,16.0,1,
156707,1852.0,112.0,96.7,35.4,463.0,3530.0,17.0,1,
156807,1867.0,115.8,96.6,30.3,241.0,2048.0,17.0,1,
156907,1861.5,118.9,101.3,30.1,259.0,1778.0,16.0,1,
157007,1870.5,38.9,101.7,30.2,292.0,1839.0,16.0,1,
157107,1862.5,5.7,101.7,28.1,292.0,1839.0,16.0,1,
157207,1858.5,3.4,101.7,28.1,292.0,1839.0,16.0,1,
157307,1864.8,5.7,101.7,27.7,292.0,1839.0,16.0,1,
157407,1864.0,3.0,101.7,43.6,292.0,1839.0,16.0,1,
157607,1862.5,2.2,101.7,99.2,292.0,1839.0,16.0,1,
157707,1862.0,2.6,101.7,100.5,292.0,1839.0,16.0,1,
157807,1862.0,2.6,101.7,103.2,292.0,1839.0,16.0,1,
157907,1862.2,2.5,101.7,100.0,292.0,1839.0,16.0,1,
158007,1881.5,86.1,101.5,46.7,419.0,3800.0,26.0,0,
158107,1834.6,160.3,101.0,35.5,737.0,5160.0,26.0,0,
158207,1844.2,144.8,92.6,35.5,432.0,4306.0,17.0,1,
158307,1874.0,116.8,92.1,35.8,428.0,3491.0,17.0,1,
158407,1870.3,92.8,91.9,35.7,293.0,2313.0,28.0,0,
158607,1866.0,56.9,86.3,29.4,225.0,1555.0,17.0,1,
158707,1856.9,7.5,86.3,29.6,225.0,1555.0,17.0,1,
158807,1860.1,3.7,86.3,28.8,225.0,1555.0,17.0,1,
158907,1860.7,4.3,86.3,27.6,225.0,1555.0,17.0,1,
159007,1865.9,4.2,86.3,30.2,225.0,1555.0,17.0,1,
159107,1861.8,2.6,86.3,87.4,225.0,1555.0,17.0,1,
159207,1859.7,2.5,86.3,100.2,225.0,1555.0,17.0,1,
159307,1861.1,2.4,86.4,113.2,225.0,1555.0,17.0,1,
159407,1860.9,2.1,86.4,105.6,225.0,1555.0,17.0,1,
159607,1849.2,76.6,86.4,101.4,225.0,1555.0,17.0,1,
159707,1856.7,141.7,85.8,35.9,667.0,4726.0,25.0,0,
159807,1874.4,151.5,86.9,35.6,479.0,4376.0,17.0,1,
159907,1882.2,86.0,85.6,35.7,487.0,4086.0,18.0,1,
160007,1841.1,81.0,85.6,35.4,341.0,2756.0,27.0,0,
160107,1856.1,84.7,86.2,35.1,236.0,1927.0,17.0,1,
160207,1867.1,58.3,81.5,34.3,245.0,1611.0,17.0,1,
160307,1868.3,8.9,81.6,29.9,245.0,1611.0,17.0,1,
160407,1859.1,4.2,81.6,44.8,245.0,1611.0,17.0,1,
160607,1866.9,4.7,81.6,67.1,245.0,1611.0,17.0,1,
160707,1861.5,2.2,81.6,89.5,245.0,1611.0,17.0,1,
160807,1860.1,2.3,81.6,98.9,245.0,1611.0,17.0,1,
160907,1861.9,2.4,81.6,78.2,245.0,1611.0,17.0,1,
161007,1860.8,2.0,81.6,76.8,245.0,1611.0,17.0,1,
161107,1860.7,2.1,81.6,90.4,245.0,1611.0,17.0,1,
161207,1861.1,18.8,81.6,100.0,245.0,1611.0,17.0,1,
161307,1859.0,113.4,82.0,37.3,708.0,5238.0,26.0,0,
161407,1877.5,161.7,80.2,35.4,546.0,4466.0,17.0,1,
161607,1843.2,92.7,82.2,35.8,315.0,2591.0,27.0,0,
161707,1875.0,91.8,83.7,34.8,235.0,1903.0,16.0,1,
161807,1862.3,105.3,88.1,30.1,271.0,1739.0,16.0,1,
161907,1864.1,14.2,88.0,29.9,248.0,1584.0,18.0,1,
162007,1858.5,5.9,88.0,29.4,248.0,1584.0,18.0,1,
162107,1859.8,3.4,88.0,27.2,248.0,1584.0,18.0,1,
162207,1868.0,6.2,88.0,27.0,248.0,1584.0,18.0,1,
162307,1863.4,3.3,88.0,68.7,248.0,1584.0,18.0,1,
162407,1860.6,2.4,88.0,109.5,248.0,1584.0,18.0,1,
162607,1861.1,2.3,88.0,100.4,248.0,1584.0,18.0,1,
162707,1861.3,2.7,88.0,101.5,248.0,1584.0,18.0,1,
162807,1860.2,1.9,88.0,103.3,248.0,1584.0,18.0,1,
162907,1855.5,147.4,88.4,37.2,714.0,5453.0,26.0,0,
163007,1857.5,153.7,88.4,35.2,684.0,4972.0,18.0,1,
163107,1854.1,107.3,84.4,35.1,467.0,4153.0,17.0,1,
163207,1875.9,77.6,83.7,35.3,413.0,3185.0,17.0,1,
163307,1879.2,123.0,82.7,35.8,275.0,2136.0,17.0,1,
163407,1845.5,118.6,82.9,34.8,358.0,1938.0,17.0,1,
163607,1860.0,6.5,80.4,29.6,358.0,1938.0,17.0,1,
163707,1857.6,3.0,80.5,26.7,358.0,1938.0,17.0,1,
163807,1865.2,6.0,80.5,26.5,358.0,1938.0,17.0,1,
163907,1863.3,2.6,80.5,35.2,358.0,1938.0,17.0,1,
164007,1859.7,2.0,80.5,100.4,358.0,1938.0,17.0,1,
164107,1861.6,2.1,80.5,88.0,358.0,1938.0,17.0,1,
164207,1861.3,2.2,80.5,100.8,358.0,1938.0,17.0,1,
164307,1861.3,2.1,80.5,103.9,358.0,1938.0,17.0,1,
164407,1861.9,2.3,80.5,122.1,358.0,1938.0,17.0,1,
164607,1875.0,158.6,82.3,35.3,698.0,4904.0,18.0,1,
164707,1862.1,233.3,83.6,34.9,480.0,4312.0,17.0,1,
164807,1876.6,102.4,94.3,35.1,426.0,3371.0,17.0,1,
164907,1850.8,82.2,93.0,34.9,285.0,2273.0,16.0,1,
165007,1844.5,64.8,92.1,30.2,286.0,1775.0,17.0,1,
165107,1881.2,27.6,90.4,30.1,286.0,1619.0,17.0,1,
165207,1862.0,5.9,90.4,34.7,286.0,1619.0,17.0,1,
165307,1857.5,4.0,90.4,66.7,286.0,1619.0,17.0,1,
165407,1862.7,4.3,90.4,66.1,286.0,1619.0,17.0,1,
165607,1860.9,2.5,90.3,101.0,286.0,1619.0,17.0,1,
165707,1862.0,2.2,90.3,102.4,286.0,1619.0,17.0,1,
165807,1861.4,1.7,90.3,108.6,286.0,1619.0,17.0,1,
165907,1861.5,2.4,90.3,109.7,286.0,1619.0,17.0,1,
166007,1862.6,2.5,90.3,102.2,286.0,1619.0,17.0,1,
166107,1863.8,126.8,91.4,71.5,408.0,3908.0,19.0,1,
166207,1870.7,164.0,94.8,35.5,648.0,4770.0,17.0,1,
166307,1849.4,144.4,93.4,34.8,483.0,4117.0,17.0,1,
166407,1870.8,118.5,96.6,35.1,461.0,3911.0,18.0,1,
166607,1873.7,68.3,96.9,35.0,309.0,1837.0,17.0,1,
166707,1873.9,54.0,97.3,34.9,300.0,1844.0,16.0,1,
166807,1859.9,6.5,97.3,37.3,300.0,1844.0,16.0,1,
166907,1859.5,3.3,97.3,68.0,300.0,1844.0,16.0,1,
167007,1861.2,3.6,97.3,68.8,300.0,1844.0,16.0,1,
167107,1865.0,3.2,97.3,67.2,300.0,1844.0,16.0,1,
167207,1858.8,4.1,97.3,82.8,300.0,1844.0,16.0,1,
167307,1859.1,2.9,97.3,108.6,300.0,1844.0,16.0,1,
167407,1859.0,4.4,97.4,100.6,300.0,1844.0,16.0,1,
167607,1859.5,2.7,97.4,90.3,300.0,1844.0,16.0,1,
167707,1860.4,40.5,97.4,108.5,300.0,1844.0,16.0,1,
167807,1849.4,192.1,94.1,39.4,657.0,5034.0,26.0,0,
167907,1856.3,133.1,92.6,35.7,505.0,4366.0,17.0,1,
168007,1874.3,144.6,79.4,35.3,439.0,3560.0,28.0,0,
168107,1860.0,89.7,81.2,35.4,266.0,2027.0,28.0,0,
168207,1874.3,93.6,81.6,34.7,183.0,1499.0,17.0,1,
168307,1853.9,60.0,81.3,34.7,200.0,1377.0,17.0,1,
168407,1862.5,8.0,81.3,30.0,202.0,1361.0,18.0,1,
168607,1856.3,8.1,81.3,48.4,202.0,1361.0,18.0,1,
168707,1863.5,3.5,81.4,65.5,202.0,1361.0,18.0,1,
168807,1862.3,2.1,81.3,74.4,202.0,1361.0,18.0,1,
168907,1860.1,3.1,81.3,85.8,202.0,1361.0,18.0,1,
169007,1859.7,3.1,81.3,83.0,202.0,1361.0,18.0,1,
169107,1860.6,2.6,81.2,89.6,202.0,1361.0,18.0,1,
169207,1861.0,2.5,81.2,86.7,202.0,1361.0,18.0,1,
169307,1859.6,3.7,81.2,78.8,202.0,1361.0,18.0,1,
169407,1835.1,155.0,82.7,36.5,693.0,5240.0,18.0,1,
169607,1864.4,103.5,83.0,35.1,462.0,4200.0,16.0,1,
169707,1847.8,74.8,81.2,35.2,395.0,3022.0,17.0,1,
169807,1866.3,129.3,82.3,35.2,289.0,2098.0,18.0,1,
169907,1852.8,63.2,83.5,30.2,269.0,1593.0,16.0,1,
170007,1875.7,13.5,83.5,29.7,268.0,1493.0,17.0,1,
170107,1860.2,5.6,83.5,29.0,268.0,1493.0,17.0,1,
170207,1859.1,3.8,83.5,29.8,268.0,1493.0,17.0,1,
170307,1860.4,2.5,83.5,42.0,268.0,1493.0,17.0,1,
170407,1860.4,3.0,83.5,72.1,268.0,1493.0,17.0,1,
170607,1859.9,2.0,83.5,98.9,268.0,1493.0,17.0,1,
170707,1860.3,3.4,83.5,100.3,268.0,1493.0,17.0,1,
170807,1860.5,3.1,83.5,90.6,268.0,1493.0,17.0,1,
170907,1860.0,2.5,83.5,90.9,268.0,1493.0,17.0,1,
171007,1859.7,118.8,83.0,42.4,730.0,5575.0,26.0,0,
171107,1883.0,141.0,92.0,35.1,720.0,5058.0,18.0,1,
171207,1836.7,139.5,91.0,34.8,496.0,4486.0,17.0,1,
171307,1859.2,102.1,90.4,34.9,397.0,3092.0,17.0,1,
171407,1875.4,110.0,90.6,36.0,238.0,1971.0,18.0,1,
171607,1870.2,25.9,90.8,30.0,214.0,1439.0,18.0,1,
171707,1863.3,4.0,90.8,30.0,214.0,1439.0,18.0,1,
171807,1862.2,4.5,90.8,36.4,214.0,1439.0,18.0,1,
171907,1862.7,4.7,90.7,44.6,214.0,1439.0,18.0,1,
172007,1859.1,4.0,90.8,83.6,214.0,1439.0,18.0,1,
172107,1860.3,3.2,90.8,102.1,214.0,1439.0,18.0,1,
172207,1860.2,4.2,90.8,112.8,214.0,1439.0,18.0,1,
172307,1864.0,4.4,90.7,111.6,214.0,1439.0,18.0,1,
172407,1864.7,4.1,90.7,100.5,214.0,1439.0,18.0,1,
172607,1866.6,133.2,89.9,88.9,402.0,2958.0,28.0,0,
172707,1850.1,173.0,80.1,99.8,577.0,4787.0,27.0,0,
172807,1846.1,151.6,76.8,100.6,425.0,3699.0,19.0,1,
172907,1872.4,117.1,80.0,99.7,351.0,2600.0,28.0,0,
173007,1859.4,88.3,80.0,36.0,205.0,1369.0,28.0,0,
173107,1852.5,68.0,78.4,35.4,201.0,1377.0,18.0,1,
173207,1878.8,40.5,79.3,44.0,169.0,1303.0,3.0,1,
173307,1857.3,6.4,79.3,40.6,169.0,1303.0,3.0,1,
173407,1856.5,5.7,79.5,29.2,169.0,1303.0,3.0,1,
173607,1860.1,2.8,79.6,34.7,169.0,1303.0,3.0,1,
173707,1861.5,3.6,79.5,99.6,169.0,1303.0,3.0,1,
173807,1858.9,4.7,79.6,93.2,169.0,1303.0,3.0,1,
173907,1859.0,2.4,79.7,91.1,169.0,1303.0,3.0,1,
174007,1863.2,5.1,79.7,86.2,169.0,1303.0,3.0,1,
174107,1863.3,3.4,79.7,83.4,169.0,1303.0,3.0,1,
174207,1849.3,75.0,79.8,78.8,388.0,3203.0,28.0,0,
174307,1857.2,204.0,84.4,50.8,523.0,4320.0,18.0,1,
174407,1873.3,93.8,82.3,48.1,437.0,3967.0,18.0,1,
174607,1845.2,96.2,80.9,37.0,303.0,2243.0,18.0,1,
174707,1858.0,74.3,80.9,35.8,266.0,1681.0,17.0,1,
174807,1867.9,48.9,77.4,28.3,240.0,1582.0,18.0,1,
174907,1865.9,7.3,77.5,29.6,240.0,1582.0,18.0,1,
175007,1861.4,3.9,77.3,29.3,240.0,1582.0,18.0,1,
175107,1861.5,2.6,77.2,29.0,240.0,1582.0,18.0,1,
175207,1864.1,3.7,77.1,29.5,240.0,1582.0,18.0,1,
175307,1861.6,3.1,77.1,98.9,240.0,1582.0,18.0,1,
175407,1859.6,3.0,77.1,99.8,240.0,1582.0,18.0,1,
175607,1861.3,2.4,77.0,89.8,240.0,1582.0,18.0,1,
175707,1860.5,2.8,77.1,92.0,240.0,1582.0,18.0,1,
175807,1860.8,1.6,77.1,93.0,240.0,1582.0,18.0,1,
175907,1868.6,113.2,83.0,35.7,797.0,5519.0,18.0,1,
176007,1856.0,207.1,85.7,35.2,655.0,4634.0,17.0,1,
176107,1852.7,201.7,88.6,35.1,519.0,4329.0,16.0,1,
176207,1848.1,98.7,92.9,34.9,414.0,3282.0,17.0,1,
176307,1875.8,102.1,99.2,35.0,270.0,2178.0,17.0,1,
176407,1862.6,145.8,115.1,29.2,259.0,1907.0,16.0,1,
176607,1860.5,4.4,115.5,37.9,259.0,1907.0,16.0,1,
176707,1861.4,3.7,115.5,30.2,259.0,1907.0,16.0,1,
176807,1864.6,3.2,115.5,25.5,259.0,1907.0,16.0,1,
176907,1862.5,3.5,115.5,66.6,259.0,1907.0,16.0,1,
177007,1860.2,2.8,115.5,102.2,259.0,1907.0,16.0,1,
177107,1861.5,2.7,115.5,100.6,259.0,1907.0,16.0,1,
177207,1860.6,2.8,115.5,100.0,259.0,1907.0,16.0,1,
177307,1861.3,2.7,115.5,100.8,259.0,1907.0,16.0,1,
177407,1862.5,3.0,115.4,122.3,259.0,1907.0,16.0,1,
177607,1854.4,207.4,116.8,35.7,613.0,4659.0,17.0,1,
177707,1866.9,187.9,119.4,36.2,500.0,4337.0,16.0,1,
177807,1870.6,96.4,117.5,36.4,424.0,3403.0,17.0,1,
177907,1880.9,97.0,117.1,34.5,345.0,2403.0,18.0,1,
178007,1843.0,80.7,105.5,30.0,259.0,1807.0,17.0,1,
178107,1867.6,20.1,101.7,29.7,232.0,1707.0,17.0,1,
178207,1860.8,4.1,101.7,35.8,232.0,1707.0,17.0,1,
178307,1860.4,3.2,101.7,39.1,232.0,1707.0,17.0,1,
178407,1864.3,3.4,101.7,37.5,232.0,1707.0,17.0,1,
178607,1861.6,2.1,101.7,98.7,232.0,1707.0,17.0,1,
178707,1862.0,2.4,101.7,99.6,232.0,1707.0,17.0,1,
178807,1860.9,2.4,101.7,101.4,232.0,1707.0,17.0,1,
178907,1860.7,2.5,101.7,101.8,232.0,1707.0,17.0,1,
179007,1860.9,2.2,101.7,101.9,232.0,1707.0,17.0,1,
179107,1843.2,145.9,102.5,52.3,717.0,5689.0,19.0,1,
179207,1886.1,132.0,100.4,35.4,691.0,4982.0,18.0,1,
179307,1862.8,267.0,95.3,34.8,488.0,4401.0,17.0,1,
179407,1856.0,92.1,102.0,35.3,457.0,3534.0,17.0,1,
179607,1845.2,81.5,105.8,35.4,246.0,1722.0,17.0,1,
179707,1879.7,32.4,106.1,30.0,265.0,1651.0,17.0,1,
179807,1862.4,5.0,106.1,29.3,265.0,1651.0,17.0,1,
179907,1858.7,3.4,106.1,38.9,265.0,1651.0,17.0,1,
180007,1861.3,3.0,106.2,52.3,265.0,1651.0,17.0,1,
180107,1863.2,2.5,106.2,66.6,265.0,1651.0,17.0,1,
180207,1861.0,2.3,106.2,117.2,265.0,1651.0,17.0,1,
180307,1860.5,2.1,106.2,122.2,265.0,1651.0,17.0,1,
180407,1861.2,2.5,106.2,101.4,265.0,1651.0,17.0,1,
180607,1860.9,2.3,106.2,101.5,265.0,1651.0,17.0,1,
180707,1870.0,145.5,109.8,42.5,426.0,4066.0,19.0,1,
180807,1864.7,272.0,108.5,36.0,687.0,5041.0,18.0,1,
180907,1840.9,168.2,116.9,35.5,502.0,4476.0,17.0,1,
181007,1865.8,192.7,109.1,35.9,437.0,3489.0,17.0,1,
181107,1854.5,105.9,101.0,29.2,274.0,2348.0,28.0,0,
181207,1871.4,83.0,101.7,29.6,237.0,1829.0,16.0,1,
181307,1862.0,70.3,101.4,29.1,244.0,1632.0,16.0,1,
181407,1857.3,5.9,101.4,28.1,244.0,1632.0,16.0,1,
181607,1859.1,3.4,101.4,39.7,244.0,1632.0,16.0,1,
181707,1861.8,2.4,101.5,39.5,244.0,1632.0,16.0,1,
181807,1862.7,2.9,101.4,98.6,244.0,1632.0,16.0,1,
181907,1861.1,2.5,101.4,100.2,244.0,1632.0,16.0,1,
182007,1860.4,2.0,101.4,99.6,244.0,1632.0,16.0,1,
182107,1861.0,2.5,101.4,101.2,244.0,1632.0,16.0,1,
182207,1860.9,2.2,101.4,103.1,244.0,1632.0,16.0,1,
182307,1871.4,33.5,101.2,130.5,244.0,1632.0,16.0,1,
182407,1841.5,175.0,96.3,35.6,686.0,5381.0,18.0,1,
182607,1868.7,104.3,87.0,35.3,479.0,3898.0,17.0,1,
182707,1868.1,68.8,80.7,35.8,334.0,2763.0,27.0,0,
182807,1862.6,125.6,81.4,35.8,248.0,2016.0,17.0,1,
182907,1856.6,125.3,83.2,29.8,244.0,1686.0,17.0,1,
183007,1864.5,10.8,84.3,29.8,238.0,1614.0,16.0,1,
183107,1859.1,3.7,84.3,34.8,238.0,1614.0,16.0,1,
183207,1860.3,2.7,84.3,36.1,238.0,1614.0,16.0,1,
183307,1859.8,2.5,84.3,36.4,238.0,1614.0,16.0,1,
183407,1861.9,2.6,84.4,52.9,238.0,1614.0,16.0,1,
183607,1862.2,2.9,84.3,106.3,238.0,1614.0,16.0,1,
183707,1861.6,2.2,84.3,99.4,238.0,1614.0,16.0,1,
183807,1861.0,1.9,84.3,78.7,238.0,1614.0,16.0,1,
183907,1860.4,2.9,84.3,83.1,238.0,1614.0,16.0,1,
184007,1852.2,143.9,83.6,36.0,675.0,5301.0,18.0,1,
184107,1886.4,134.4,85.0,35.4,640.0,4633.0,17.0,1,
184207,1857.3,188.2,84.5,35.2,454.0,4348.0,17.0,1,
184307,1848.8,89.5,88.8,35.6,400.0,3268.0,17.0,1,
184407,1864.4,111.6,91.7,36.2,259.0,2121.0,17.0,1,
184607,1866.0,21.8,93.2,37.7,262.0,1683.0,16.0,1,
184707,1859.8,4.5,93.2,35.2,262.0,1683.0,16.0,1,
184807,1862.5,5.7,93.1,29.2,262.0,1683.0,16.0,1,
184907,1863.6,3.7,93.1,29.8,262.0,1683.0,16.0,1,
185007,1862.4,3.0,93.1,35.3,262.0,1683.0,16.0,1,
185107,1862.3,3.3,93.1,72.9,262.0,1683.0,16.0,1,
185207,1864.2,4.2,93.1,75.6,262.0,1683.0,16.0,1,
185307,1863.5,3.0,93.1,78.5,262.0,1683.0,16.0,1,
185407,1863.2,5.0,93.1,99.9,262.0,1683.0,16.0,1,
185607,1882.8,127.7,93.8,40.8,774.0,5598.0,19.0,1,
185707,1852.7,242.0,94.9,35.7,670.0,4919.0,18.0,1,
185807,1838.7,151.8,100.9,35.3,500.0,4338.0,17.0,1,
185907,1862.8,111.6,100.6,35.1,417.0,3287.0,18.0,1,
186007,1859.7,96.0,96.9,35.9,249.0,2218.0,17.0,1,
186107,1876.8,84.1,98.0,35.5,268.0,1785.0,16.0,1,
186207,1851.0,23.8,93.0,30.1,271.0,1682.0,17.0,1,
186307,1860.8,5.3,93.0,30.1,271.0,1682.0,17.0,1,
186407,1859.1,4.1,93.0,29.1,271.0,1682.0,17.0,1,
186607,1860.3,3.6,93.0,39.1,271.0,1682.0,17.0,1,
186707,1861.2,2.7,93.0,88.8,271.0,1682.0,17.0,1,
186807,1861.5,2.7,93.1,99.8,271.0,1682.0,17.0,1,
186907,1861.5,3.1,93.1,101.0,271.0,1682.0,17.0,1,
187007,1861.8,2.6,93.1,101.0,271.0,1682.0,17.0,1,
187107,1861.8,3.7,93.1,90.5,271.0,1682.0,17.0,1,
187207,1876.6,127.0,94.4,38.2,445.0,4022.0,19.0,1,
187307,1839.5,181.0,95.0,36.2,658.0,4904.0,17.0,1,
187407,1878.5,162.7,98.6,36.0,481.0,4317.0,17.0,1,
187607,1870.5,91.4,102.9,35.0,276.0,2441.0,18.0,1,
187707,1855.3,123.7,105.2,30.1,266.0,1905.0,18.0,1,
187807,1856.4,38.7,105.3,29.9,264.0,1692.0,17.0,1,
187907,1860.3,4.8,105.3,36.7,264.0,1692.0,17.0,1,
188007,1859.1,2.9,105.3,28.1,264.0,1692.0,17.0,1,
188107,1863.1,3.6,105.3,28.3,264.0,1692.0,17.0,1,
188207,1862.1,3.3,105.3,36.8,264.0,1692.0,17.0,1,
188307,1860.4,2.6,105.3,69.0,264.0,1692.0,17.0,1,
188407,1860.5,4.9,105.3,93.2,264.0,1692.0,17.0,1,
188607,1862.3,2.5,105.3,101.9,264.0,1692.0,17.0,1,
188707,1861.6,2.9,105.3,100.6,264.0,1692.0,17.0,1,
188807,1853.5,81.3,104.1,99.3,429.0,3868.0,20.0,1,
188907,1874.8,173.1,103.2,36.3,707.0,5175.0,18.0,1,
189007,1876.8,246.0,100.4,35.3,522.0,4466.0,17.0,1,
189107,1853.0,245.8,103.0,35.0,452.0,4204.0,17.0,1,
189207,1855.3,117.3,110.4,35.2,343.0,2905.0,17.0,1,
189307,1862.8,77.5,107.4,28.8,261.0,1957.0,16.0,1,
189407,1860.7,57.0,106.5,29.2,308.0,1760.0,16.0,1,
189607,1860.2,3.5,106.5,40.9,308.0,1760.0,16.0,1,
189707,1864.9,4.1,106.5,54.2,308.0,1760.0,16.0,1,
189807,1864.8,3.5,106.4,51.0,308.0,1760.0,16.0,1,
189907,1863.0,3.0,106.4,69.2,308.0,1760.0,16.0,1,
190007,1862.0,2.4,106.4,89.8,308.0,1760.0,16.0,1,
190107,1861.9,2.3,106.3,80.0,308.0,1760.0,16.0,1,
190207,1862.0,3.2,106.3,88.1,308.0,1760.0,16.0,1,
190307,1862.4,3.2,106.3,86.4,308.0,1760.0,16.0,1,
190407,1861.9,123.2,106.3,85.6,308.0,1760.0,16.0,1,
190607,1835.8,233.2,121.6,39.4,616.0,4772.0,17.0,1,
190707,1846.1,135.1,117.7,36.1,528.0,4216.0,17.0,1,
190807,1872.1,147.6,113.1,35.9,389.0,3070.0,16.0,1,
190907,1862.8,154.0,123.9,36.5,304.0,2257.0,16.0,1,
191007,1872.5,77.2,124.1,36.7,323.0,1827.0,16.0,1,
191107,1853.4,11.7,124.0,36.5,318.0,1791.0,16.0,1,
191207,1857.8,6.8,124.1,35.5,318.0,1791.0,16.0,1,
191307,1859.8,3.2,124.1,36.7,318.0,1791.0,16.0,1,
191407,1863.7,3.4,124.1,47.4,318.0,1791.0,16.0,1,
191607,1861.3,2.1,124.2,92.0,318.0,1791.0,16.0,1,
191707,1861.3,2.5,124.2,92.9,318.0,1791.0,16.0,1,
191807,1861.1,2.3,124.2,99.5,318.0,1791.0,16.0,1,
191907,1860.8,2.3,124.2,101.5,318.0,1791.0,16.0,1,
192007,1861.0,2.5,124.2,105.8,318.0,1791.0,16.0,1,
192107,1864.4,189.7,125.6,37.3,769.0,5519.0,18.0,1,
192207,1845.4,187.5,125.8,39.0,601.0,4648.0,17.0,1,
192307,1882.9,134.1,124.2,39.1,516.0,4397.0,17.0,1,
192407,1873.4,194.6,123.1,35.2,447.0,3435.0,16.0,1,
192607,1861.3,93.8,116.2,34.9,335.0,1913.0,16.0,1,
192707,1861.2,19.4,116.3,36.1,320.0,1770.0,16.0,1,
192807,1858.7,7.0,116.3,29.7,320.0,1770.0,16.0,1,
192907,1858.5,3.9,116.3,29.6,320.0,1770.0,16.0,1,
193007,1865.0,3.5,116.3,36.2,320.0,1770.0,16.0,1,
193107,1861.8,2.3,116.3,66.0,320.0,1770.0,16.0,1,
193207,1861.3,3.0,116.3,107.9,320.0,1770.0,16.0,1,
193307,1861.5,2.9,116.3,108.2,320.0,1770.0,16.0,1,
193407,1861.0,2.7,116.3,107.6,320.0,1770.0,16.0,1,
193607,1862.7,2.8,116.2,102.7,320.0,1770.0,16.0,1,
193707,1861.2,114.0,101.0,43.6,772.0,5628.0,19.0,1,
193807,1871.5,191.3,101.0,35.9,670.0,5009.0,17.0,1,
193907,1885.3,151.7,101.9,35.2,511.0,4385.0,17.0,1,
194007,1847.5,111.8,100.2,35.0,501.0,3961.0,17.0,1,
194107,1855.1,90.1,95.8,35.8,332.0,2391.0,17.0,1,
194207,1881.5,149.8,99.7,38.3,325.0,2023.0,16.0,1,
194307,1861.0,31.9,99.7,37.2,337.0,1989.0,16.0,1,
194407,1865.5,6.6,99.6,34.8,337.0,1989.0,16.0,1,
194607,1869.3,6.1,99.4,29.1,337.0,1989.0,16.0,1,
194707,1862.4,2.9,99.4,41.3,337.0,1989.0,16.0,1,
194807,1860.2,3.3,99.4,106.7,337.0,1989.0,16.0,1,
194907,1858.2,3.1,99.4,110.4,337.0,1989.0,16.0,1,
195007,1860.7,2.6,99.5,105.3,337.0,1989.0,16.0,1,
195107,1860.5,3.2,99.5,91.2,337.0,1989.0,16.0,1,
195207,1860.9,2.9,99.5,90.8,337.0,1989.0,16.0,1,
195307,1869.2,62.1,99.3,66.0,485.0,4052.0,20.0,1,
195407,1875.3,211.8,100.9,36.9,692.0,5087.0,17.0,1,
195607,1842.0,154.5,101.9,35.2,517.0,3859.0,17.0,1,
195707,1885.4,116.3,113.8,35.1,319.0,2655.0,17.0,1,
195807,1868.6,83.1,113.8,34.4,326.0,2032.0,17.0,1,
195907,1861.2,50.2,107.3,34.4,306.0,1799.0,17.0,1,
196007,1855.5,6.5,107.5,34.2,306.0,1799.0,17.0,1,
196107,1859.0,3.7,107.6,39.3,306.0,1799.0,17.0,1,
196207,1864.6,4.9,107.7,51.5,306.0,1799.0,17.0,1,
196307,1863.7,2.4,107.7,47.6,306.0,1799.0,17.0,1,
196407,1860.8,2.1,107.6,93.1,306.0,1799.0,17.0,1,
196607,1861.8,2.0,107.5,98.7,306.0,1799.0,17.0,1,
196707,1861.1,2.4,107.5,87.8,306.0,1799.0,17.0,1,
196807,1860.5,1.8,107.5,89.9,306.0,1799.0,17.0,1,
196907,1845.8,58.6,107.5,93.5,306.0,1799.0,17.0,1,
197007,1872.4,218.0,110.5,47.7,719.0,5311.0,17.0,1,
197107,1859.7,207.4,111.3,41.2,541.0,4578.0,16.0,1,
197207,1870.7,131.9,113.3,34.6,522.0,4281.0,17.0,1,
197307,1878.7,141.9,109.1,34.3,383.0,3007.0,17.0,1,
197407,1840.1,77.2,109.1,28.7,314.0,2139.0,17.0,1,
197607,1867.6,9.5,109.2,36.1,314.0,2139.0,17.0,1,
197707,1856.8,6.7,109.3,36.5,314.0,2139.0,17.0,1,
197807,1859.8,3.1,109.4,29.2,314.0,2139.0,17.0,1,
197907,1860.8,2.8,109.4,30.2,314.0,2139.0,17.0,1,
198007,1860.4,3.2,109.5,72.2,314.0,2139.0,17.0,1,
198107,1859.6,2.3,109.5,86.2,314.0,2139.0,17.0,1,
198207,1860.6,2.3,109.5,87.6,314.0,2139.0,17.0,1,
198307,1859.6,3.5,109.6,90.3,314.0,2139.0,17.0,1,
198407,1859.8,3.6,109.6,90.4,314.0,2139.0,17.0,1,
198607,1864.1,227.1,110.9,36.4,719.0,5395.0,17.0,1,
198707,1864.2,221.3,112.5,35.7,627.0,4884.0,17.0,1,
198807,1878.4,149.8,110.4,35.3,500.0,4500.0,17.0,1,
198907,1846.5,247.4,114.8,35.1,471.0,3574.0,16.0,1,
199007,1839.8,88.3,113.6,34.2,305.0,2285.0,17.0,1,
199107,1883.0,69.6,113.4,34.2,335.0,1944.0,16.0,1,
199207,1855.1,13.4,113.4,29.9,329.0,1837.0,16.0,1,
199307,1858.4,5.4,113.4,36.2,329.0,1837.0,16.0,1,
199407,1858.7,2.9,113.4,38.0,329.0,1837.0,16.0,1,
199607,1859.6,3.0,113.4,66.2,329.0,1837.0,16.0,1,
199707,1860.1,2.0,113.4,99.4,329.0,1837.0,16.0,1,
199807,1860.4,2.8,113.4,92.7,329.0,1837.0,16.0,1,
199907,1860.4,3.0,113.4,111.7,329.0,1837.0,16.0,1,
200007,1860.3,2.8,113.4,99.9,329.0,1837.0,16.0,1,
200107,1861.0,2.5,113.4,93.3,329.0,1837.0,16.0,1,
200207,1890.0,128.7,111.3,39.4,777.0,5840.0,19.0,1,
200307,1831.8,213.6,107.6,36.6,690.0,5000.0,17.0,1,
200407,1861.0,149.9,105.4,35.4,499.0,4368.0,16.0,1,
200607,1866.3,80.5,97.2,35.7,290.0,2546.0,16.0,1,
200707,1875.5,103.3,99.8,36.1,276.0,2057.0,16.0,1,
200807,1844.6,23.7,99.8,36.8,290.0,1864.0,16.0,1,
200907,1860.7,4.3,99.8,30.2,290.0,1864.0,16.0,1,
201007,1858.4,4.3,99.8,28.6,290.0,1864.0,16.0,1,
201107,1859.5,3.0,99.8,29.5,290.0,1864.0,16.0,1,
201207,1860.0,2.3,99.8,42.6,290.0,1864.0,16.0,1,
201307,1860.5,2.7,99.8,89.9,290.0,1864.0,16.0,1,
201407,1860.1,2.4,99.8,98.7,290.0,1864.0,16.0,1,
201607,1860.3,2.6,99.8,99.3,290.0,1864.0,16.0,1,
201707,1860.4,2.1,99.8,87.1,290.0,1864.0,16.0,1,
201807,1869.1,167.9,111.0,34.3,480.0,4093.0,19.0,1,
201907,1842.1,211.4,111.4,35.0,681.0,5032.0,17.0,1,
202007,1886.1,133.4,111.3,35.2,516.0,4483.0,16.0,1,
202107,1858.0,96.3,111.8,35.2,491.0,4116.0,17.0,1,
202207,1876.2,84.9,110.5,35.3,334.0,2910.0,26.0,0,
202307,1852.1,137.8,110.5,35.4,272.0,2227.0,17.0,1,
202407,1851.5,46.0,110.7,36.0,286.0,1969.0,16.0,1,
202607,1860.0,4.1,110.7,29.2,286.0,1969.0,16.0,1,
202707,1861.2,3.3,110.7,30.0,286.0,1969.0,16.0,1,
202807,1864.4,3.6,110.6,38.5,286.0,1969.0,16.0,1,
202907,1861.4,2.4,110.6,84.5,286.0,1969.0,16.0,1,
203007,1860.7,2.3,110.6,92.3,286.0,1969.0,16.0,1,
203107,1861.3,2.5,110.6,101.8,286.0,1969.0,16.0,1,
203207,1860.9,2.1,110.6,107.3,286.0,1969.0,16.0,1,
203307,1860.4,2.1,110.6,108.9,286.0,1969.0,16.0,1,
203407,1852.1,80.6,100.8,105.5,453.0,3791.0,20.0,1,
203607,1878.2,266.1,102.6,35.2,518.0,4229.0,16.0,1,
203707,1836.6,148.2,106.9,34.9,518.0,4339.0,17.0,1,
203807,1863.8,131.3,108.7,35.0,414.0,3238.0,26.0,0,
203907,1858.2,108.2,108.8,28.2,279.0,2422.0,17.0,1,
204007,1858.8,79.7,108.5,29.7,316.0,1949.0,16.0,1,
204107,1859.2,7.8,108.4,30.0,316.0,1949.0,16.0,1,
204207,1858.2,5.2,108.5,35.1,316.0,1949.0,16.0,1,
204307,1859.9,3.1,108.5,30.0,316.0,1949.0,16.0,1,
204407,1860.5,3.2,108.5,30.2,316.0,1949.0,16.0,1,
204607,1861.6,3.2,108.6,100.6,316.0,1949.0,16.0,1,
204707,1862.9,2.8,108.5,100.6,316.0,1949.0,16.0,1,
204807,1861.4,2.7,108.5,100.3,316.0,1949.0,16.0,1,
204907,1861.0,2.5,108.5,99.9,316.0,1949.0,16.0,1,
205007,1862.0,113.6,108.5,101.2,316.0,1949.0,16.0,1,
205107,1896.1,190.8,115.2,35.8,713.0,5430.0,17.0,1,
205207,1831.8,190.3,112.7,35.7,619.0,4793.0,17.0,1,
205307,1843.6,151.7,107.5,35.6,494.0,4269.0,17.0,1,
205407,1882.3,97.5,106.6,36.0,390.0,3185.0,26.0,0,
205607,1872.0,95.1,110.6,30.2,301.0,2134.0,16.0,1,
205707,1847.8,11.6,110.6,29.9,284.0,1997.0,17.0,1,
205807,1859.5,4.2,110.6,28.9,284.0,1997.0,17.0,1,
205907,1858.8,3.9,110.6,28.0,284.0,1997.0,17.0,1,
206007,1859.7,2.1,110.6,35.3,284.0,1997.0,17.0,1,
206107,1861.3,2.6,110.6,66.3,284.0,1997.0,17.0,1,
206207,1863.2,3.3,110.5,102.8,284.0,1997.0,17.0,1,
206307,1861.4,2.6,110.6,98.9,284.0,1997.0,17.0,1,
206407,1861.3,3.0,110.6,92.3,284.0,1997.0,17.0,1,
206607,1860.9,2.2,110.6,90.0,284.0,1997.0,17.0,1,
206707,1864.9,194.0,114.5,30.1,699.0,5270.0,20.0,1,
206807,1851.8,143.0,109.2,34.5,529.0,4265.0,17.0,1,
206907,1881.0,102.6,105.9,35.1,495.0,4086.0,17.0,1,
207007,1874.3,61.7,97.0,35.9,415.0,3130.0,18.0,1,
207107,1841.2,72.8,95.3,35.4,287.0,2299.0,17.0,1,
207207,1861.9,70.6,88.7,30.2,327.0,2024.0,17.0,1,
207307,1862.3,15.2,88.4,35.1,339.0,1974.0,17.0,1,
207407,1859.5,3.8,88.4,45.9,339.0,1974.0,17.0,1,
207607,1861.2,2.5,88.4,29.7,339.0,1974.0,17.0,1,
207707,1861.6,2.6,88.3,45.6,339.0,1974.0,17.0,1,
207807,1860.6,3.5,88.4,99.5,339.0,1974.0,17.0,1,
207907,1859.0,3.5,88.4,100.3,339.0,1974.0,17.0,1,
208007,1859.0,2.7,88.5,99.1,339.0,1974.0,17.0,1,
208107,1859.3,3.0,88.5,100.1,339.0,1974.0,17.0,1,
208207,1860.3,3.0,88.6,131.9,339.0,1974.0,17.0,1,
208307,1865.8,126.8,76.5,94.6,689.0,5457.0,20.0,1,
208407,1866.6,219.1,75.0,90.6,560.0,4587.0,18.0,1,
208607,1849.8,102.8,83.0,35.6,394.0,3218.0,17.0,1,
208707,1843.7,98.4,83.4,34.7,221.0,1821.0,18.0,1,
208807,1875.4,72.9,83.8,35.2,224.0,1699.0,17.0,1,
208907,1852.0,25.6,83.6,158.1,223.0,1787.0,17.0,1,
209007,1858.6,6.7,83.7,220.0,223.0,1787.0,17.0,1,
209107,1853.6,8.2,83.8,85.1,223.0,1787.0,17.0,1,
209207,1855.2,10.1,84.0,28.2,223.0,1787.0,17.0,1,
209307,1848.7,12.7,84.3,29.7,223.0,1787.0,17.0,1,
209407,1852.3,8.3,84.5,102.9,223.0,1787.0,17.0,1,
209607,1864.3,8.4,84.4,86.1,223.0,1787.0,17.0,1,
209707,1886.1,28.9,84.1,100.0,223.0,1787.0,17.0,1,
209807,1891.0,20.7,83.8,110.3,223.0,1787.0,17.0,1,
209907,1896.8,75.0,83.4,66.1,545.0,3880.0,19.0,1,
210007,1850.3,147.4,85.3,38.0,700.0,4950.0,18.0,1,
210107,1869.8,124.2,74.3,35.6,500.0,3917.0,19.0,1,
210207,1844.6,181.1,85.4,35.1,425.0,3278.0,18.0,1,
210307,1872.6,92.8,86.5,34.3,327.0,2194.0,18.0,1,
210407,1872.6,73.5,87.2,29.4,321.0,1894.0,18.0,1,
210607,1852.5,11.1,87.5,29.4,321.0,1894.0,18.0,1,
210707,1850.8,10.3,87.6,29.5,321.0,1894.0,18.0,1,
210807,1857.5,3.3,87.5,30.0,321.0,1894.0,18.0,1,
210907,1859.6,3.5,87.3,48.0,321.0,1894.0,18.0,1,
211007,1858.9,3.0,87.1,76.8,321.0,1894.0,18.0,1,
211107,1859.1,2.9,87.0,100.3,321.0,1894.0,18.0,1,
211207,1858.8,2.9,87.1,102.1,321.0,1894.0,18.0,1,
211307,1860.5,2.1,87.3,106.3,321.0,1894.0,18.0,1,
211407,1860.3,2.0,87.6,110.4,321.0,1894.0,18.0,1,
211607,1856.9,179.8,89.8,70.3,733.0,5205.0,18.0,1,
211707,1877.1,153.8,101.5,36.1,636.0,4857.0,18.0,1,
211807,1864.5,77.8,102.1,34.8,544.0,4228.0,17.0,1,
211907,1881.9,69.3,94.1,34.6,417.0,3179.0,17.0,1,
212007,1851.2,103.1,95.0,35.7,260.0,2447.0,16.0,1,
212107,1847.9,70.8,96.8,69.9,280.0,2104.0,16.0,1,
212207,1872.5,8.0,96.9,29.9,280.0,2104.0,16.0,1,
212307,1862.0,3.6,96.7,29.1,280.0,2104.0,16.0,1,
212407,1862.0,3.6,96.7,27.9,280.0,2104.0,16.0,1,
212607,1867.3,4.4,96.5,65.8,280.0,2104.0,16.0,1,
212707,1858.7,4.9,96.5,99.2,280.0,2104.0,16.0,1,
212807,1859.7,2.6,96.5,73.4,280.0,2104.0,16.0,1,
212907,1859.8,2.3,96.5,90.0,280.0,2104.0,16.0,1,
213007,1860.6,3.5,96.5,100.1,280.0,2104.0,16.0,1,
213107,1858.0,25.3,96.5,99.3,280.0,2104.0,16.0,1,
213207,1874.8,191.3,98.0,66.0,775.0,5260.0,17.0,1,
213307,1860.3,204.3,96.1,36.0,724.0,4933.0,18.0,1,
213407,1842.9,168.6,101.1,35.2,557.0,4831.0,17.0,1,
213607,1845.5,151.9,109.2,39.4,350.0,2671.0,16.0,1,
213707,1877.4,76.4,110.4,65.7,353.0,2377.0,16.0,1,
213807,1851.4,14.7,110.5,29.8,338.0,2236.0,16.0,1,
213907,1860.0,3.6,110.5,29.5,338.0,2236.0,16.0,1,
214007,1863.0,4.3,110.5,28.1,338.0,2236.0,16.0,1,
214107,1867.5,5.8,110.5,35.2,338.0,2236.0,16.0,1,
214207,1861.8,4.2,110.5,66.3,338.0,2236.0,16.0,1,
214307,1860.3,2.6,110.5,99.6,338.0,2236.0,16.0,1,
214407,1860.9,2.5,110.5,102.3,338.0,2236.0,16.0,1,
214607,1860.8,2.9,110.5,101.3,338.0,2236.0,16.0,1,
214707,1860.4,2.1,110.5,108.9,338.0,2236.0,16.0,1,
214807,1891.7,180.8,109.5,35.8,834.0,6213.0,19.0,1,
214907,1823.9,222.1,109.5,36.3,734.0,4998.0,17.0,1,
215007,1852.2,157.1,108.4,35.7,564.0,4696.0,17.0,1,
215107,1872.7,138.1,107.3,35.3,495.0,3829.0,17.0,1,
215207,1861.2,70.6,107.2,35.7,352.0,2972.0,17.0,1,
215307,1871.8,69.8,99.2,42.2,349.0,2416.0,16.0,1,
215407,1843.4,21.3,99.1,40.0,302.0,2164.0,16.0,1,
215607,1861.4,4.9,99.1,48.3,302.0,2164.0,16.0,1,
215707,1867.7,10.6,99.1,37.2,302.0,2164.0,16.0,1,
215807,1871.5,5.4,99.1,42.2,302.0,2164.0,16.0,1,
215907,1859.6,2.9,99.1,99.3,302.0,2164.0,16.0,1,
216007,1861.8,3.1,99.1,102.0,302.0,2164.0,16.0,1,
216107,1860.6,2.8,99.1,113.0,302.0,2164.0,16.0,1,
216207,1859.4,2.1,99.1,122.6,302.0,2164.0,16.0,1,
216307,1861.9,2.7,99.1,111.2,302.0,2164.0,16.0,1,
216407,1860.8,139.5,99.1,42.2,484.0,4105.0,19.0,1,
216607,1885.6,154.4,99.0,34.9,641.0,4841.0,16.0,1,
216707,1860.0,157.4,106.0,35.0,564.0,3993.0,16.0,1,
216807,1846.6,94.3,104.4,36.1,356.0,3088.0,17.0,1,
216907,1870.1,147.3,106.6,36.7,320.0,2594.0,17.0,1,
217007,1854.5,41.2,108.6,30.1,323.0,2109.0,17.0,1,
217107,1861.0,5.7,108.6,34.5,323.0,2109.0,17.0,1,
217207,1860.5,5.6,108.6,34.6,323.0,2109.0,17.0,1,
217307,1868.7,9.6,108.6,30.1,323.0,2109.0,17.0,1,
217407,1872.1,6.7,108.6,36.8,323.0,2109.0,17.0,1,
217607,1862.4,3.0,108.5,100.2,323.0,2109.0,17.0,1,
217707,1860.7,2.6,108.6,108.8,323.0,2109.0,17.0,1,
217807,1860.0,2.7,108.5,106.2,323.0,2109.0,17.0,1,
217907,1860.2,2.5,108.6,99.7,323.0,2109.0,17.0,1,
218007,1850.3,91.3,108.6,101.9,528.0,4209.0,19.0,1,
218107,1881.6,207.3,108.8,35.5,771.0,5137.0,17.0,1,
218207,1869.9,192.5,108.4,34.9,668.0,5130.0,17.0,1,
218307,1834.6,145.5,107.1,34.9,561.0,4543.0,17.0,1,
218407,1857.6,107.1,102.1,35.7,353.0,2920.0,16.0,1,
218607,1855.8,63.6,106.3,37.2,316.0,2043.0,16.0,1,
218707,1858.3,6.7,106.3,30.1,316.0,2043.0,16.0,1,
218807,1859.2,4.2,106.3,34.6,316.0,2043.0,16.0,1,
218907,1863.6,3.5,106.3,39.2,316.0,2043.0,16.0,1,
219007,1868.6,7.3,106.3,42.4,316.0,2043.0,16.0,1,
219107,1865.2,2.8,106.3,71.8,316.0,2043.0,16.0,1,
219207,1861.1,2.6,106.3,132.0,316.0,2043.0,16.0,1,
219307,1861.7,2.6,106.3,122.9,316.0,2043.0,16.0,1,
219407,1860.5,2.9,106.3,99.6,316.0,2043.0,16.0,1,
219607,1859.8,1.5,106.3,123.1,316.0,2043.0,16.0,1,
219707,1869.8,209.2,106.3,35.8,788.0,5307.0,17.0,1,
219807,1847.7,205.9,107.5,35.1,732.0,4987.0,17.0,1,
219907,1845.2,142.6,106.4,34.9,578.0,4504.0,17.0,1,
220007,1883.6,111.4,107.1,35.3,408.0,3375.0,17.0,1,
220107,1859.7,107.4,102.6,38.0,352.0,2709.0,16.0,1,
220207,1851.3,73.4,102.4,30.3,303.0,2247.0,16.0,1,
220307,1864.7,11.5,102.4,30.1,307.0,2097.0,16.0,1,
220407,1859.2,5.5,102.4,34.9,307.0,2097.0,16.0,1,
220607,1872.6,9.3,102.4,39.3,307.0,2097.0,16.0,1,
220707,1864.7,3.0,102.4,66.9,307.0,2097.0,16.0,1,
220807,1861.8,3.5,102.4,113.4,307.0,2097.0,16.0,1,
220907,1862.8,2.7,102.4,101.1,307.0,2097.0,16.0,1,
221007,1861.0,2.3,102.4,100.4,307.0,2097.0,16.0,1,
221107,1861.0,2.6,102.4,109.9,307.0,2097.0,16.0,1,
221207,1861.4,3.1,102.4,101.7,307.0,2097.0,16.0,1,
221307,1856.5,166.1,102.7,36.5,752.0,4972.0,18.0,1,
221407,1850.3,217.9,102.8,34.9,734.0,4992.0,17.0,1,
221607,1873.1,108.6,112.0,35.2,526.0,4014.0,17.0,1,
221707,1832.7,198.4,113.0,37.8,368.0,2920.0,17.0,1,
221807,1865.3,106.3,122.2,36.6,381.0,2270.0,16.0,1,
221907,1867.3,19.4,122.2,30.0,302.0,2168.0,16.0,1,
222007,1864.5,5.5,122.2,28.6,302.0,2168.0,16.0,1,
222107,1868.1,7.7,122.2,27.8,302.0,2168.0,16.0,1,
222207,1871.2,10.7,122.2,29.5,302.0,2168.0,16.0,1,
222307,1869.7,5.1,122.2,49.5,302.0,2168.0,16.0,1,
222407,1863.2,3.1,122.2,98.8,302.0,2168.0,16.0,1,
222607,1861.3,2.9,122.2,102.5,302.0,2168.0,16.0,1,
222707,1860.1,3.4,122.2,102.4,302.0,2168.0,16.0,1,
222807,1859.2,3.3,122.2,101.2,302.0,2168.0,16.0,1,
222907,1866.5,163.6,126.6,71.3,846.0,5881.0,18.0,1,
223007,1869.6,240.1,126.8,50.2,740.0,5264.0,17.0,1,
223107,1851.5,172.6,127.1,34.3,690.0,4896.0,16.0,1,
223207,1858.0,142.4,120.2,34.3,626.0,4367.0,17.0,1,
223307,1844.7,100.4,121.2,35.2,385.0,3081.0,17.0,1,
223407,1884.1,66.9,107.2,39.8,351.0,2628.0,17.0,1,
223607,1860.6,5.5,107.2,38.6,351.0,2628.0,17.0,1,
223707,1860.6,3.2,107.3,66.0,351.0,2628.0,17.0,1,
223807,1865.3,5.8,107.3,43.0,351.0,2628.0,17.0,1,
223907,1864.8,3.6,107.4,40.2,351.0,2628.0,17.0,1,
224007,1859.5,3.1,107.4,106.0,351.0,2628.0,17.0,1,
224107,1863.3,4.0,107.4,101.0,351.0,2628.0,17.0,1,
224207,1862.5,2.6,107.4,99.7,351.0,2628.0,17.0,1,
224307,1860.9,3.1,107.4,99.8,351.0,2628.0,17.0,1,
224407,1860.6,2.6,107.4,100.3,351.0,2628.0,17.0,1,
224607,1832.5,236.5,102.2,36.1,772.0,5196.0,17.0,1,
224707,1858.8,202.4,110.0,35.2,662.0,4910.0,17.0,1,
224807,1857.2,169.1,110.0,35.2,564.0,4338.0,17.0,1,
224907,1879.6,121.8,113.5,36.1,354.0,3092.0,16.0,1,
225007,1862.2,211.3,117.8,36.3,349.0,2739.0,15.0,1,
225107,1847.8,53.8,120.8,29.1,302.0,2195.0,17.0,1,
225207,1857.0,6.8,120.8,28.5,302.0,2195.0,17.0,1,
225307,1861.1,4.9,120.8,28.7,302.0,2195.0,17.0,1,
225407,1860.6,4.6,120.8,29.6,302.0,2195.0,17.0,1,
225607,1859.1,3.8,120.8,69.2,302.0,2195.0,17.0,1,
225707,1860.4,2.5,120.9,72.3,302.0,2195.0,17.0,1,
225807,1860.4,2.2,120.9,86.3,302.0,2195.0,17.0,1,
225907,1859.8,2.8,120.9,110.0,302.0,2195.0,17.0,1,
226007,1860.7,2.8,120.9,105.3,302.0,2195.0,17.0,1,
226107,1848.1,82.7,121.0,73.7,302.0,2195.0,17.0,1,
226207,1864.6,245.0,128.0,54.4,781.0,5377.0,17.0,1,
226307,1878.0,229.9,126.8,34.7,627.0,4742.0,16.0,1,
226407,1862.7,139.8,126.7,30.3,609.0,4673.0,17.0,1,
226607,1853.4,81.2,123.0,36.0,363.0,2853.0,17.0,1,
226707,1853.4,60.7,117.8,29.2,291.0,2109.0,16.0,1,
226807,1868.2,8.5,117.8,29.7,291.0,2109.0,16.0,1,
226907,1859.8,4.3,117.8,38.7,291.0,2109.0,16.0,1,
227007,1862.7,4.7,117.8,50.5,291.0,2109.0,16.0,1,
227107,1869.1,7.5,117.8,42.1,291.0,2109.0,16.0,1,
227207,1863.9,4.7,117.7,70.2,291.0,2109.0,16.0,1,
227307,1857.5,2.9,117.7,93.0,291.0,2109.0,16.0,1,
227407,1861.0,3.0,117.7,94.6,291.0,2109.0,16.0,1,
227607,1860.8,2.3,117.7,98.8,291.0,2109.0,16.0,1,
227707,1861.0,1.8,117.7,102.4,291.0,2109.0,16.0,1,
227807,1878.0,222.7,117.1,82.1,793.0,5435.0,17.0,1,
227907,1856.6,292.4,114.2,42.1,714.0,4960.0,17.0,1,
228007,1841.3,172.7,114.3,30.2,570.0,4858.0,16.0,1,
228107,1864.5,128.8,113.6,34.9,419.0,3704.0,17.0,1,
228207,1853.2,84.6,113.8,36.4,377.0,2970.0,17.0,1,
228307,1880.8,55.7,114.0,29.8,331.0,2521.0,16.0,1,
228407,1853.5,14.1,114.1,30.0,317.0,2467.0,17.0,1,
228607,1863.7,6.2,114.1,43.6,317.0,2467.0,17.0,1,
228707,1872.0,10.0,114.0,35.4,317.0,2467.0,17.0,1,
228807,1866.2,3.4,114.1,40.0,317.0,2467.0,17.0,1,
228907,1858.9,2.6,114.0,82.4,317.0,2467.0,17.0,1,
229007,1862.4,2.9,114.0,75.6,317.0,2467.0,17.0,1,
229107,1859.1,2.8,114.0,88.7,317.0,2467.0,17.0,1,
229207,1860.9,3.0,114.0,100.5,317.0,2467.0,17.0,1,
229307,1861.8,2.3,114.0,102.2,317.0,2467.0,17.0,1,
229407,1892.2,126.4,108.5,37.1,898.0,6265.0,19.0,1,
229607,1856.8,160.1,102.8,35.1,694.0,4788.0,17.0,1,
229707,1879.1,130.3,103.0,35.2,544.0,4099.0,17.0,1,
229807,1859.6,74.6,102.7,36.9,364.0,3175.0,17.0,1,
229907,1867.5,75.7,102.8,36.7,334.0,2697.0,17.0,1,
230007,1856.4,22.9,102.7,35.1,325.0,2328.0,17.0,1,
230107,1862.2,4.9,102.7,36.6,325.0,2328.0,17.0,1,
230207,1863.8,4.5,102.7,66.1,325.0,2328.0,17.0,1,
230307,1868.0,9.0,102.7,44.9,325.0,2328.0,17.0,1,
230407,1867.3,3.7,102.7,55.3,325.0,2328.0,17.0,1,
230607,1859.8,2.1,102.7,82.0,325.0,2328.0,17.0,1,
230707,1859.9,3.0,102.7,82.5,325.0,2328.0,17.0,1,
230807,1860.6,2.3,102.7,111.8,325.0,2328.0,17.0,1,
230907,1859.8,2.2,102.7,113.3,325.0,2328.0,17.0,1,
231007,1855.9,136.8,102.3,42.4,845.0,6332.0,19.0,1,
231107,1854.1,237.6,105.4,37.1,754.0,4953.0,17.0,1,
231207,1883.0,200.9,108.6,35.5,611.0,4861.0,16.0,1,
231307,1853.7,132.8,108.1,35.1,567.0,4427.0,17.0,1,
231407,1842.5,122.1,108.4,36.1,358.0,3248.0,16.0,1,
231607,1858.6,37.3,113.1,29.9,329.0,2452.0,16.0,1,
231707,1860.6,5.9,113.2,29.7,329.0,2452.0,16.0,1,
231807,1859.3,3.4,113.2,36.3,329.0,2452.0,16.0,1,
231907,1863.9,7.2,113.2,37.2,329.0,2452.0,16.0,1,
232007,1870.5,5.4,113.2,39.2,329.0,2452.0,16.0,1,
232107,1858.3,3.9,113.3,102.4,329.0,2452.0,16.0,1,
232207,1860.4,2.6,113.3,104.5,329.0,2452.0,16.0,1,
232307,1859.2,3.3,113.3,100.5,329.0,2452.0,16.0,1,
232407,1860.4,2.3,113.3,101.4,329.0,2452.0,16.0,1,
232607,1856.9,143.3,113.2,104.2,471.0,3938.0,19.0,1,
232707,1885.7,284.2,117.6,65.9,816.0,5586.0,17.0,1,
232807,1858.4,229.6,123.6,34.3,653.0,4859.0,16.0,1,
232907,1832.1,164.5,121.9,30.1,590.0,4826.0,16.0,1,
233007,1857.2,148.0,124.8,34.6,381.0,3284.0,16.0,1,
233107,1876.1,78.8,120.5,30.1,354.0,2768.0,17.0,1,
233207,1864.7,62.2,120.4,29.9,304.0,2307.0,16.0,1,
233307,1854.7,7.3,120.4,36.9,304.0,2307.0,16.0,1,
233407,1858.8,5.2,120.4,39.7,304.0,2307.0,16.0,1,
233607,1870.4,6.5,120.4,37.0,304.0,2307.0,16.0,1,
233707,1859.4,6.5,120.4,76.1,304.0,2307.0,16.0,1,
233807,1858.5,2.4,120.4,93.3,304.0,2307.0,16.0,1,
233907,1860.7,3.0,120.4,100.4,304.0,2307.0,16.0,1,
234007,1859.9,2.3,120.4,100.9,304.0,2307.0,16.0,1,
234107,1861.3,2.1,120.4,100.4,304.0,2307.0,16.0,1,
234207,1860.4,5.4,120.4,109.8,304.0,2307.0,16.0,1,
234307,1859.0,260.9,118.2,35.7,882.0,6168.0,18.0,1,
234407,1838.9,214.9,117.0,34.6,714.0,5102.0,17.0,1,
234607,1885.4,93.4,112.7,34.7,414.0,3679.0,17.0,1,
234707,1858.6,206.1,111.7,51.6,352.0,2934.0,17.0,1,
234807,1856.2,85.9,119.5,66.6,330.0,2464.0,16.0,1,
234907,1862.3,11.0,119.5,37.3,299.0,2180.0,16.0,1,
235007,1859.4,3.6,119.5,30.0,299.0,2180.0,16.0,1,
235107,1866.9,9.3,119.5,27.9,299.0,2180.0,16.0,1,
235207,1873.4,9.6,119.5,28.3,299.0,2180.0,16.0,1,
235307,1863.9,4.4,119.5,71.0,299.0,2180.0,16.0,1,
235407,1859.0,2.1,119.5,134.2,299.0,2180.0,16.0,1,
235607,1861.4,2.4,119.5,112.0,299.0,2180.0,16.0,1,
235707,1860.3,3.0,119.5,110.9,299.0,2180.0,16.0,1,
235807,1859.6,2.9,119.5,101.9,299.0,2180.0,16.0,1,
235907,1840.8,219.6,121.3,37.5,811.0,5687.0,17.0,1,
236007,1866.4,245.7,116.9,38.2,709.0,4960.0,17.0,1,
236107,1875.6,177.5,118.4,35.5,537.0,4862.0,16.0,1,
236207,1853.8,226.4,118.7,29.9,450.0,3948.0,17.0,1,
236307,1844.7,84.8,123.1,30.2,397.0,3094.0,16.0,1,
236407,1869.7,68.8,115.1,35.8,329.0,2383.0,17.0,1,
236607,1859.8,5.2,115.0,38.3,329.0,2383.0,17.0,1,
236707,1859.3,3.3,115.0,47.1,329.0,2383.0,17.0,1,
236807,1864.9,7.2,115.1,38.3,329.0,2383.0,17.0,1,
236907,1866.4,3.9,115.1,44.7,329.0,2383.0,17.0,1,
237007,1858.0,2.9,115.1,101.7,329.0,2383.0,17.0,1,
237107,1860.8,2.8,115.1,100.2,329.0,2383.0,17.0,1,
237207,1858.7,2.9,115.1,101.7,329.0,2383.0,17.0,1,
237307,1860.5,2.6,115.1,109.2,329.0,2383.0,17.0,1,
237407,1861.5,2.3,115.1,111.7,329.0,2383.0,17.0,1,
237607,1888.8,279.2,112.4,35.4,754.0,5158.0,17.0,1,
237707,1841.2,176.5,113.1,35.0,581.0,4823.0,16.0,1,
237807,1845.1,148.3,112.0,34.7,483.0,4054.0,17.0,1,
237907,1874.1,112.7,117.5,35.4,399.0,3080.0,16.0,1,
238007,1865.0,62.1,117.4,37.0,346.0,2521.0,16.0,1,
238107,1865.9,25.3,117.5,29.9,303.0,2230.0,16.0,1,
238207,1860.5,4.7,117.5,34.8,303.0,2230.0,16.0,1,
238307,1864.0,5.6,117.5,66.4,303.0,2230.0,16.0,1,
238407,1867.8,8.2,117.5,39.9,303.0,2230.0,16.0,1,
238607,1858.0,4.1,117.5,108.1,303.0,2230.0,16.0,1,
238707,1860.5,2.1,117.5,94.0,303.0,2230.0,16.0,1,
238807,1860.6,2.6,117.4,100.2,303.0,2230.0,16.0,1,
238907,1861.3,2.1,117.4,100.2,303.0,2230.0,16.0,1,
239007,1861.2,2.0,117.4,101.4,303.0,2230.0,16.0,1,
239107,1884.1,131.4,117.3,46.3,483.0,4108.0,19.0,1,
239207,1826.0,208.0,118.0,35.4,757.0,5217.0,16.0,1,
239307,1841.4,222.4,117.2,35.6,630.0,5046.0,17.0,1,
239407,1880.6,153.6,120.3,35.2,554.0,4556.0,17.0,1,
239607,1847.9,72.3,114.6,36.3,369.0,2806.0,16.0,1,
239707,1869.8,68.3,117.1,30.3,330.0,2317.0,16.0,1,
239807,1861.0,6.7,117.0,37.0,330.0,2317.0,16.0,1,
239907,1863.6,5.0,117.0,38.8,330.0,2317.0,16.0,1,
240007,1867.4,7.9,117.0,40.6,330.0,2317.0,16.0,1,
240107,1869.2,4.3,117.0,38.1,330.0,2317.0,16.0,1,
240207,1858.5,3.4,117.0,74.3,330.0,2317.0,16.0,1,
240307,1861.4,2.5,117.0,108.7,330.0,2317.0,16.0,1,
240407,1860.3,2.5,117.0,111.8,330.0,2317.0,16.0,1,
240607,1860.6,2.2,117.0,102.3,330.0,2317.0,16.0,1,
240707,1850.5,95.2,117.1,100.4,330.0,2317.0,16.0,1,
240807,1853.4,185.2,116.5,35.3,767.0,5232.0,17.0,1,
240907,1871.5,223.7,116.6,35.4,645.0,4712.0,17.0,1,
241007,1885.8,164.7,115.4,35.6,582.0,5003.0,17.0,1,
241107,1835.6,210.3,115.8,34.5,436.0,3728.0,17.0,1,
241207,1856.2,75.0,115.7,30.1,389.0,2762.0,16.0,1,
241307,1873.8,64.3,113.3,34.4,308.0,2222.0,17.0,1,
241407,1864.1,8.5,113.3,36.8,308.0,2222.0,17.0,1,
241607,1865.5,6.0,113.3,50.6,308.0,2222.0,17.0,1,
241707,1869.9,6.9,113.3,38.4,308.0,2222.0,17.0,1,
241807,1860.2,5.5,113.3,66.7,308.0,2222.0,17.0,1,
241907,1857.9,2.9,113.3,98.9,308.0,2222.0,17.0,1,
242007,1860.0,2.9,113.3,99.7,308.0,2222.0,17.0,1,
242107,1859.5,3.0,113.3,100.4,308.0,2222.0,17.0,1,
242207,1860.0,2.3,113.4,99.3,308.0,2222.0,17.0,1,
242307,1860.5,3.5,113.4,85.6,308.0,2222.0,17.0,1,
242407,1861.1,225.7,112.5,35.8,796.0,5730.0,18.0,1,
242607,1844.0,176.9,114.9,35.1,618.0,4729.0,16.0,1,
242707,1840.5,149.2,114.8,35.4,471.0,3731.0,17.0,1,
242807,1881.6,77.2,111.1,65.6,388.0,2910.0,16.0,1,
242907,1860.7,53.6,111.0,66.2,325.0,2443.0,16.0,1,
243007,1866.5,11.5,111.0,34.5,319.0,2258.0,17.0,1,
243107,1861.8,3.1,111.0,66.7,319.0,2258.0,17.0,1,
243207,1866.2,7.8,111.0,68.9,319.0,2258.0,17.0,1,
243307,1872.4,9.8,111.0,47.4,319.0,2258.0,17.0,1,
243407,1863.4,4.2,111.0,65.6,319.0,2258.0,17.0,1,
243607,1861.3,2.8,111.0,82.9,319.0,2258.0,17.0,1,
243707,1859.6,2.7,111.0,86.7,319.0,2258.0,17.0,1,
243807,1860.2,2.3,111.0,100.2,319.0,2258.0,17.0,1,
243907,1859.9,2.8,111.0,112.1,319.0,2258.0,17.0,1,
244007,1852.3,212.1,114.9,36.6,855.0,5926.0,18.0,1,
244107,1855.5,242.5,118.4,30.3,720.0,4829.0,17.0,1,
244207,1849.8,240.6,125.6,35.1,621.0,4827.0,16.0,1,
244307,1884.4,146.0,125.5,36.8,527.0,3973.0,17.0,1,
244407,1875.4,144.9,130.7,30.3,441.0,3231.0,17.0,1,
244607,1877.0,18.8,131.6,29.6,322.0,2385.0,17.0,1,
244707,1860.1,3.6,131.6,30.0,322.0,2385.0,17.0,1,
244807,1862.3,3.2,131.6,44.5,322.0,2385.0,17.0,1,
244907,1867.8,8.8,131.6,39.3,322.0,2385.0,17.0,1,
245007,1869.9,4.8,131.6,38.7,322.0,2385.0,17.0,1,
245107,1859.8,4.1,131.5,133.6,322.0,2385.0,17.0,1,
245207,1860.7,2.2,131.6,102.0,322.0,2385.0,17.0,1,
245307,1860.1,2.2,131.6,100.3,322.0,2385.0,17.0,1,
245407,1859.8,2.2,131.6,101.4,322.0,2385.0,17.0,1,
245607,1846.5,191.5,133.2,43.6,862.0,6178.0,18.0,1,
245707,1876.8,200.9,130.3,29.7,748.0,5133.0,17.0,1,
245807,1862.1,195.7,129.2,34.5,616.0,4881.0,17.0,1,
245907,1876.0,146.3,121.6,35.5,543.0,4529.0,16.0,1,
246007,1840.2,223.6,118.2,30.2,388.0,3366.0,17.0,1,
246107,1849.0,73.6,121.6,30.0,345.0,2601.0,16.0,1,
246207,1880.5,33.3,121.5,30.0,314.0,2338.0,16.0,1,
246307,1860.1,5.3,121.5,34.8,314.0,2338.0,16.0,1,
246407,1860.2,3.8,121.5,39.0,314.0,2338.0,16.0,1,
246607,1863.1,3.3,121.6,38.6,314.0,2338.0,16.0,1,
246707,1859.1,3.3,121.6,98.7,314.0,2338.0,16.0,1,
246807,1860.3,1.8,121.6,98.8,314.0,2338.0,16.0,1,
246907,1861.7,2.5,121.6,102.2,314.0,2338.0,16.0,1,
247007,1861.4,2.5,121.6,100.5,314.0,2338.0,16.0,1,
247107,1862.2,2.1,121.6,99.2,314.0,2338.0,16.0,1,
247207,1877.7,109.1,116.7,72.6,467.0,4001.0,20.0,1,
247307,1868.8,240.4,117.0,34.8,795.0,5548.0,18.0,1,
247407,1842.6,239.3,119.6,34.8,636.0,4781.0,17.0,1,
247607,1851.4,162.0,127.6,34.8,386.0,3407.0,17.0,1,
247707,1883.9,66.7,122.8,34.4,384.0,2946.0,16.0,1,
247807,1861.6,105.7,127.0,27.8,326.0,2441.0,16.0,1,
247907,1854.8,9.5,127.1,29.6,326.0,2441.0,16.0,1,
248007,1865.8,5.0,127.0,38.1,326.0,2441.0,16.0,1,
248107,1864.8,4.6,127.0,36.5,326.0,2441.0,16.0,1,
248207,1865.7,3.3,126.9,28.2,326.0,2441.0,16.0,1,
248307,1861.1,2.3,126.9,75.1,326.0,2441.0,16.0,1,
248407,1860.5,3.0,126.9,102.1,326.0,2441.0,16.0,1,
248607,1860.5,1.8,126.9,100.1,326.0,2441.0,16.0,1,
248707,1861.1,2.4,127.0,110.8,326.0,2441.0,16.0,1,
248807,1860.7,28.5,127.0,116.3,326.0,2441.0,16.0,1,
248907,1850.2,241.7,127.1,35.4,813.0,5793.0,18.0,1,
249007,1863.6,249.1,131.8,34.9,661.0,4894.0,17.0,1,
249107,1864.8,180.9,132.3,34.9,593.0,4776.0,16.0,1,
249207,1874.9,147.1,127.1,35.2,434.0,3713.0,17.0,1,
249307,1872.5,101.1,126.2,65.8,438.0,3115.0,17.0,1,
249407,1834.4,67.6,124.4,46.6,341.0,2582.0,17.0,1,
249607,1863.1,4.8,121.7,37.4,341.0,2582.0,17.0,1,
249707,1868.3,8.5,121.7,39.0,341.0,2582.0,17.0,1,
249807,1871.5,6.5,121.7,36.5,341.0,2582.0,17.0,1,
249907,1858.5,5.6,121.7,55.3,341.0,2582.0,17.0,1,
250007,1860.9,2.7,121.7,104.6,341.0,2582.0,17.0,1,
250107,1860.1,4.7,121.7,99.8,341.0,2582.0,17.0,1,
250207,1858.9,3.1,121.7,99.9,341.0,2582.0,17.0,1,
250307,1862.0,2.6,121.7,103.3,341.0,2582.0,17.0,1,
250407,1859.6,2.4,121.7,111.5,341.0,2582.0,17.0,1,
250607,1885.9,272.4,124.0,34.8,772.0,5139.0,18.0,1,
250707,1857.4,237.4,124.4,34.6,580.0,5035.0,17.0,1,
250807,1846.5,156.5,125.5,34.8,510.0,4199.0,17.0,1,
250907,1865.8,115.2,125.9,36.0,395.0,3162.0,17.0,1,
251007,1848.5,78.8,125.6,67.1,334.0,2523.0,16.0,1,
251107,1870.0,15.8,126.5,30.3,334.0,2523.0,16.0,1,
251207,1861.0,3.9,126.5,41.9,334.0,2523.0,16.0,1,
251307,1861.4,3.1,126.5,66.0,334.0,2523.0,16.0,1,
251407,1863.3,3.0,126.5,37.8,334.0,2523.0,16.0,1,
251607,1859.2,2.7,126.5,100.5,334.0,2523.0,16.0,1,
251707,1859.3,3.2,126.5,110.6,334.0,2523.0,16.0,1,
251807,1859.8,2.2,126.5,100.9,334.0,2523.0,16.0,1,
251907,1860.6,2.2,126.5,92.5,334.0,2523.0,16.0,1,
252007,1860.7,2.3,126.5,98.9,334.0,2523.0,16.0,1,
252107,1885.5,201.6,127.6,67.7,892.0,6306.0,18.0,1,
252207,1854.3,264.0,126.8,35.6,766.0,5313.0,18.0,1,
252307,1839.4,210.5,121.5,34.9,579.0,4927.0,17.0,1,
252407,1869.8,174.7,124.5,35.1,537.0,4318.0,17.0,1,
252607,1882.9,69.3,129.6,30.0,360.0,2649.0,16.0,1,
252707,1845.8,24.9,128.5,29.3,314.0,2338.0,16.0,1,
252807,1858.9,5.0,128.5,28.8,314.0,2338.0,16.0,1,
252907,1860.2,3.6,128.5,35.9,314.0,2338.0,16.0,1,
253007,1867.5,7.8,128.5,37.7,314.0,2338.0,16.0,1,
253107,1869.3,4.2,128.4,44.3,314.0,2338.0,16.0,1,
253207,1857.5,5.7,128.4,110.6,314.0,2338.0,16.0,1,
253307,1858.0,3.3,128.5,100.6,314.0,2338.0,16.0,1,
253407,1858.7,3.1,128.5,99.7,314.0,2338.0,16.0,1,
253607,1859.9,2.4,128.5,99.3,314.0,2338.0,16.0,1,
253707,1877.6,129.4,128.5,45.3,494.0,4157.0,19.0,1,
253807,1830.1,275.4,125.7,35.7,801.0,5515.0,17.0,1,
253907,1876.0,275.5,136.3,34.9,575.0,4873.0,16.0,1,
254007,1865.6,223.4,132.4,34.8,548.0,4731.0,17.0,1,
254107,1884.3,138.4,135.7,35.0,383.0,3488.0,26.0,0,
254207,1855.2,124.0,134.2,28.2,378.0,2835.0,16.0,1,
254307,1853.5,45.2,134.5,29.3,317.0,2492.0,16.0,1,
254407,1860.5,5.4,134.5,29.2,317.0,2492.0,16.0,1,
254607,1860.8,3.4,134.5,35.5,317.0,2492.0,16.0,1,
254707,1867.8,6.3,134.5,36.1,317.0,2492.0,16.0,1,
254807,1861.8,4.7,134.5,100.0,317.0,2492.0,16.0,1,
254907,1858.0,2.4,134.5,100.1,317.0,2492.0,16.0,1,
255007,1860.4,3.1,134.5,99.6,317.0,2492.0,16.0,1,
255107,1859.7,2.8,134.5,99.8,317.0,2492.0,16.0,1,
255207,1860.6,2.4,134.4,98.6,317.0,2492.0,16.0,1,
255307,1847.2,92.1,134.4,101.2,455.0,4039.0,19.0,1,
255407,1878.3,226.8,134.1,38.8,786.0,5441.0,17.0,1,
255607,1873.8,178.0,129.6,34.5,511.0,4730.0,16.0,1,
255707,1849.5,251.3,130.0,34.6,414.0,3707.0,25.0,0,
255807,1841.4,99.4,130.0,34.5,379.0,2986.0,17.0,1,
255907,1884.8,76.2,130.0,29.4,314.0,2448.0,16.0,1,
256007,1861.5,8.6,129.9,28.0,314.0,2448.0,16.0,1,
256107,1862.6,3.7,129.9,30.2,314.0,2448.0,16.0,1,
256207,1864.4,4.7,129.8,38.3,314.0,2448.0,16.0,1,
256307,1868.3,6.5,129.8,38.0,314.0,2448.0,16.0,1,
256407,1862.6,3.2,129.8,66.8,314.0,2448.0,16.0,1,
256607,1861.3,2.1,129.8,108.7,314.0,2448.0,16.0,1,
256707,1860.7,1.8,129.8,109.4,314.0,2448.0,16.0,1,
256807,1860.8,2.3,129.8,101.4,314.0,2448.0,16.0,1,
256907,1860.8,3.6,129.8,89.8,314.0,2448.0,16.0,1,
257007,1870.8,138.9,127.1,35.3,835.0,6079.0,18.0,1,
257107,1837.5,263.5,122.6,35.4,689.0,4865.0,17.0,1,
257207,1855.2,204.6,128.6,35.9,546.0,4904.0,17.0,1,
257307,1852.1,143.6,127.9,34.8,434.0,3817.0,26.0,0,
257407,1885.1,75.6,119.9,30.0,394.0,3151.0,16.0,1,
257607,1863.5,11.4,118.5,35.1,331.0,2478.0,17.0,1,
257707,1861.4,3.8,118.5,78.0,331.0,2478.0,17.0,1,
257807,1864.0,4.0,118.5,53.8,331.0,2478.0,17.0,1,
257907,1868.1,9.6,118.5,38.8,331.0,2478.0,17.0,1,
258007,1866.7,4.3,118.5,51.5,331.0,2478.0,17.0,1,
258107,1857.7,3.8,118.5,136.8,331.0,2478.0,17.0,1,
258207,1859.9,3.0,118.5,124.4,331.0,2478.0,17.0,1,
258307,1857.9,3.5,118.5,123.7,331.0,2478.0,17.0,1,
258407,1860.5,2.4,118.5,100.0,331.0,2478.0,17.0,1,
258607,1849.3,236.5,120.0,36.0,890.0,6497.0,18.0,1,
258707,1869.2,185.1,119.7,34.7,626.0,4025.0,17.0,1,
258807,1855.1,179.7,109.6,35.0,558.0,4952.0,17.0,1,
258907,1884.0,130.1,107.7,36.0,529.0,4221.0,16.0,1,
259007,1866.9,104.0,107.5,37.6,401.0,3120.0,16.0,1,
259107,1832.0,60.7,107.3,30.1,357.0,2776.0,16.0,1,
259207,1870.8,18.0,107.3,30.2,322.0,2319.0,16.0,1,
259307,1862.2,4.1,107.3,45.7,322.0,2319.0,16.0,1,
259407,1862.7,3.2,107.3,66.8,322.0,2319.0,16.0,1,
259607,1866.6,4.6,107.3,48.4,322.0,2319.0,16.0,1,
259707,1855.8,5.5,107.3,105.6,322.0,2319.0,16.0,1,
259807,1860.0,2.8,107.3,99.4,322.0,2319.0,16.0,1,
259907,1860.5,2.8,107.3,100.0,322.0,2319.0,16.0,1,
260007,1859.7,2.1,107.3,112.6,322.0,2319.0,16.0,1,
260107,1859.6,3.0,107.3,101.6,322.0,2319.0,16.0,1,
260207,1856.1,199.7,108.8,56.7,906.0,6243.0,18.0,1,
260307,1868.9,255.8,117.3,29.6,779.0,5223.0,17.0,1,
260407,1878.9,232.2,122.5,30.0,597.0,4887.0,17.0,1,
260607,1839.0,124.4,131.6,34.6,429.0,3237.0,17.0,1,
260707,1877.1,70.3,134.0,28.1,356.0,2665.0,16.0,1,
260807,1856.4,32.0,134.0,28.9,321.0,2550.0,17.0,1,
260907,1860.0,5.0,134.0,34.3,321.0,2550.0,17.0,1,
261007,1860.5,3.2,134.0,40.5,321.0,2550.0,17.0,1,
261107,1868.0,9.8,134.0,37.0,321.0,2550.0,17.0,1,
261207,1871.2,5.2,134.0,36.0,321.0,2550.0,17.0,1,
261307,1856.9,5.4,134.0,135.0,321.0,2550.0,17.0,1,
261407,1860.8,3.1,134.0,144.5,321.0,2550.0,17.0,1,
261607,1858.4,3.4,134.0,106.3,321.0,2550.0,17.0,1,
261707,1860.6,2.2,134.0,100.1,321.0,2550.0,17.0,1,
261807,1874.0,88.1,131.6,51.1,505.0,4130.0,20.0,1,
261907,1868.3,278.4,126.6,35.8,763.0,5224.0,17.0,1,
262007,1840.2,215.4,127.0,35.2,691.0,5094.0,17.0,1,
262107,1839.1,172.0,123.9,34.9,557.0,4675.0,17.0,1,
262207,1881.4,137.9,118.5,35.5,406.0,3534.0,17.0,1,
262307,1869.8,180.2,117.0,39.1,406.0,3048.0,17.0,1,
262407,1857.7,56.7,121.5,35.0,321.0,2384.0,16.0,1,
262607,1860.4,3.8,121.5,35.5,321.0,2384.0,16.0,1,
262707,1864.2,9.1,121.5,37.8,321.0,2384.0,16.0,1,
262807,1874.3,8.8,121.5,37.9,321.0,2384.0,16.0,1,
262907,1859.6,6.6,121.5,69.0,321.0,2384.0,16.0,1,
263007,1858.1,2.6,121.5,101.5,321.0,2384.0,16.0,1,
263107,1859.7,3.4,121.5,99.6,321.0,2384.0,16.0,1,
263207,1859.8,2.7,121.5,99.0,321.0,2384.0,16.0,1,
263307,1860.1,2.6,121.5,99.7,321.0,2384.0,16.0,1,
263407,1846.8,59.5,121.5,99.5,321.0,2384.0,16.0,1,
263607,1846.3,279.7,128.8,38.6,703.0,4918.0,17.0,1,
263707,1889.0,203.0,137.9,30.3,567.0,4956.0,16.0,1,
263807,1866.8,212.6,138.4,29.9,452.0,3700.0,16.0,1,
263907,1836.8,78.2,139.6,28.2,432.0,3084.0,16.0,1,
264007,1870.6,64.9,140.1,29.2,320.0,2252.0,16.0,1,
264107,1870.3,8.1,140.0,29.9,320.0,2252.0,16.0,1,
264207,1860.8,3.2,140.0,28.7,320.0,2252.0,16.0,1,
264307,1860.9,3.0,140.0,29.4,320.0,2252.0,16.0,1,
264407,1866.0,4.8,140.1,35.5,320.0,2252.0,16.0,1,
264607,1859.4,2.6,140.1,99.5,320.0,2252.0,16.0,1,
264707,1860.8,2.6,140.1,108.8,320.0,2252.0,16.0,1,
264807,1860.0,2.1,140.1,114.4,320.0,2252.0,16.0,1,
264907,1860.2,2.7,140.1,116.3,320.0,2252.0,16.0,1,
265007,1860.3,2.4,140.1,99.7,320.0,2252.0,16.0,1,
265107,1848.7,200.8,138.6,35.3,846.0,5993.0,18.0,1,
265207,1884.2,282.0,132.8,35.1,711.0,4990.0,17.0,1,
265307,1867.5,264.9,125.7,35.3,586.0,5113.0,17.0,1,
