Time(ms),Raw_ADC
0,1865
1,1865
2,1865
3,1863
4,1863
5,1865
6,1862
7,1859
8,1863
9,1863
10,1862
11,1864
12,1866
13,1862
14,1862
15,1856
16,1863
17,1863
18,1862
19,1863
20,1861
21,1865
22,1866
23,1864
24,1856
25,1856
26,1856
27,1856
28,1857
29,1852
30,1850
31,1861
32,1866
33,1861
34,1862
35,1863
36,1865
37,1861
38,1862
39,1858
40,1862
41,1861
42,1861
43,1861
44,1863
45,1863
46,1863
47,1862
48,1862
49,1863
50,1862
51,1860
52,1861
53,1859
54,1857
55,1856
56,1857
57,1856
58,1856
59,1863
60,1861
61,1860
62,1860
63,1859
64,1863
65,1862
66,1861
67,1861
68,1861
69,1859
70,1859
71,1861
72,1863
73,1861
74,1861
75,1860
76,1862
77,1861
78,1861
79,1860
80,1862
81,1865
82,1863
83,1861
84,1856
85,1856
86,1856
87,1856
88,1855
89,1861
90,1862
91,1862
92,1862
93,1861
94,1863
95,1863
96,1865
97,1862
98,1862
99,1865
100,1866
101,1861
102,1862
103,1862
104,1859
105,1862
106,1861
107,1862
108,1861
109,1863
110,1860
111,1862
112,1859
113,1861
114,1856
115,1856
116,1855
117,1853
118,1856
119,1854
120,1855
121,1865
122,1865
123,1863
124,1862
125,1863
126,1862
127,1862
128,1859
129,1861
130,1860
131,1861
132,1862
133,1866
134,1863
135,1863
136,1860
137,1862
138,1863
139,1863
140,1862
141,1861
142,1863
143,1863
144,1856
145,1855
146,1856
147,1856
148,1856
149,1854
150,1861
151,1859
152,1862
153,1861
154,1862
155,1861
156,1861
157,1863
158,1862
159,1861
160,1859
161,1863
162,1862
163,1862
164,1862
165,1862
166,1863
167,1866
168,1864
169,1861
170,1859
171,1864
172,1862
173,1862
174,1855
175,1856
176,1856
177,1856
178,1856
179,1861
180,1862
181,1860
182,1860
183,1861
184,1863
185,1862
186,1863
187,1862
188,1858
189,1862
190,1859
191,1859
192,1863
193,1863
194,1862
195,1861
196,1862
197,1863
198,1863
199,1862
200,1863
201,1857
202,1857
203,1855
204,1856
205,1857
206,1856
207,1856
208,1855
209,1855
210,1859
211,1861
212,1862
213,1866
214,1856
215,1859
216,1863
217,1862
218,1862
219,1861
220,1863
221,1862
222,1863
223,1863
224,1862
225,1861
226,1860
227,1863
228,1862
229,1863
230,1861
231,1865
232,1862
233,1863
234,1856
235,1856
236,1857
237,1856
238,1856
239,1850
240,1863
241,1862
242,1863
243,1866
244,1863
245,1863
246,1863
247,1861
248,1862
249,1861
250,1864
251,1862
252,1862
253,1862
254,1862
255,1863
256,1865
257,1863
258,1863
259,1863
260,1863
261,1865
262,1865
263,1863
264,1857
265,1858
266,1858
267,1856
268,1856
269,1865
270,1863
271,1861
272,1863
273,1866
274,1862
275,1862
276,1867
277,1862
278,1863
279,1862
280,1859
281,1863
282,1862
283,1861
284,1863
285,1863
286,1863
287,1863
288,1863
289,1861
290,1863
291,1865
292,1862
293,1862
294,1856
295,1859
296,1856
297,1858
298,1857
299,1863
300,1863
301,1857
302,1861
303,1862
304,1861
305,1861
306,1863
307,1861
308,1861
309,1862
310,1862
311,1860
312,1861
313,1861
314,1856
315,1861
316,1860
317,1863
318,1863
319,1861
320,1865
321,1863
322,1863
323,1861
324,1858
325,1856
326,1856
327,1856
328,1856
329,1855
330,1856
331,1862
332,1859
333,1861
334,1862
335,1863
336,1863
337,1863
338,1863
339,1862
340,1862
341,1861
342,1861
343,1863
344,1861
345,1860
346,1859
347,1862
348,1862
349,1860
350,1862
351,1863
352,1863
353,1008
354,1616
355,1863
356,1874
357,1877
358,1884
359,1890
360,1904
361,1925
362,1904
363,1849
364,1813
365,1810
366,1826
367,1857
368,1909
369,1985
370,2077
371,2130
372,2150
373,2149
374,2174
375,2273
376,2393
377,2410
378,2259
379,2003
380,1681
381,1388
382,1261
383,1281
384,1097
385,1197
386,1695
387,1763
388,1787
389,1808
390,1824
391,1857
392,1891
393,1877
394,1839
395,1817
396,1827
397,1851
398,1878
399,1921
400,1983
401,2035
402,2086
403,2103
404,2118
405,2197
406,2321
407,2430
408,2380
409,2176
410,1846
411,1502
412,1283
413,1269
414,1394
415,1685
416,1141
417,1763
418,1833
419,1830
420,1833
421,1849
422,1883
423,1915
424,1879
425,1840
426,1833
427,1855
428,1884
429,1920
430,1969
431,2033
432,2090
433,2118
434,2135
435,2202
436,2349
437,2478
438,2445
439,2211
440,1840
441,1457
442,1238
443,1243
444,1417
445,1617
446,2678
447,1021
448,1782
449,1856
450,1855
451,1851
452,1861
453,1894
454,1900
455,1856
456,1829
457,1840
458,1864
459,1904
460,1952
461,2017
462,2090
463,2129
464,2162
465,2208
466,2346
467,2471
468,2477
469,2234
470,1857
471,1451
472,1184
473,1203
474,1409
475,1628
476,1740
477,1936
478,883
479,1745
480,1874
481,1862
482,1854
483,1865
484,1891
485,1886
486,1843
487,1820
488,1840
489,1872
490,1915
491,1978
492,2059
493,2119
494,2158
495,2185
496,2271
497,2421
498,2517
499,2363
500,2000
501,1535
502,1200
503,1141
504,1327
505,1579
506,1721
507,1791
508,1820
509,961
510,1660
511,1879
512,1866
513,1856
514,1863
515,1887
516,1875
517,1826
518,1809
519,1834
520,1871
521,1919
522,1987
523,2075
524,2131
525,2174
526,2209
527,2331
528,2480
529,2496
530,2247
531,1814
532,1353
533,1120
534,1186
535,1456
536,1665
537,1759
538,1803
539,1820
540,1843
541,1847
542,1851
543,1856
544,1859
545,1863
546,1861
547,1863
548,1865
549,1869
550,1870
551,1869
552,1863
553,1863
554,1862
555,1863
556,1862
557,1866
558,1870
559,1872
560,1872
561,1872
562,1872
563,1874
564,1859
565,1850
566,1851
567,1854
568,1846
569,1851
570,1856
571,1858
572,1863
573,1866
574,1865
575,1862
576,1862
577,1858
578,1856
579,1859
580,1862
581,1865
582,1863
583,1867
584,1861
585,1861
586,1861
587,1860
588,1858
589,1861
590,1866
591,1860
592,1862
593,1863
594,1856
595,1856
596,1858
597,1856
598,1855
599,1858
600,1859
601,1860
602,1859
603,1859
604,1861
605,1861
606,1859
607,1861
608,1859
609,1861
610,1860
611,1856
612,1856
613,1855
614,1852
615,1855
616,1857
617,1856
618,1855
619,1856
620,1854
621,1856
622,1855
623,1855
624,1856
625,1849
626,1847
627,1841
628,1840
629,1841
630,1847
631,1848
632,1856
633,1856
634,1854
635,1855
636,1854
637,1855
638,1855
639,1857
640,1857
641,1855
642,1855
643,1855
644,1855
645,1856
646,1855
647,1856
648,1855
649,1856
650,1857
651,1856
652,1856
653,1854
654,1850
655,1851
656,1849
657,1850
658,1854
659,1856
660,1856
661,1855
662,1857
663,1855
664,1855
665,1856
666,1855
667,1856
668,1854
669,1857
670,1856
671,1856
672,1856
673,1856
674,1856
675,1856
676,1856
677,1856
678,1857
679,1855
680,1854
681,1855
682,1855
683,1861
684,1851
685,1850
686,1847
687,1851
688,1846
689,1856
690,1854
691,1853
692,1854
693,1855
694,1855
695,1854
696,1856
697,1855
698,1856
699,1855
700,1854
701,1855
702,1855
703,1854
704,1856
705,1854
706,1856
707,1855
708,1855
709,1854
710,1856
711,1856
712,1855
713,1857
714,1849
715,1851
716,1853
717,1851
718,1853
719,1858
720,1858
721,1859
722,1856
723,1856
724,1857
725,1859
726,1857
727,1858
728,1858
729,1858
730,1858
731,1858
732,1861
733,1859
734,1861
735,1857
736,1859
737,1861
738,1859
739,1859
740,1862
741,1860
742,1859
743,1860
744,1856
745,1856
746,1856
747,1855
748,1855
749,1852
750,1851
751,1852
752,1861
753,1862
754,1862
755,1862
756,1863
757,1863
758,1862
759,1862
760,1862
761,1861
762,1862
763,1859
764,1859
765,1863
766,1861
767,1862
768,1861
769,1865
770,1861
771,1862
772,1862
773,1865
774,1858
775,1856
776,1857
777,1858
778,1859
779,1863
780,1864
781,1865
782,1865
783,1866
784,1866
785,1866
786,1862
787,1866
788,1863
789,1865
790,1868
791,1866
792,1863
793,1862
794,1865
795,1867
796,1865
797,1867
798,1865
799,1863
800,1863
801,1863
802,1863
803,1865
804,1857
805,1859
806,1858
807,1857
808,1859
809,1865
810,1867
811,1863
812,1862
813,1863
814,1865
815,1866
816,1863
817,1866
818,1866
819,1865
820,1866
821,1865
822,1865
823,1867
824,1867
825,1865
826,1869
827,1865
828,1866
829,1863
830,1863
831,1864
832,1865
833,1865
834,1857
835,1858
836,1859
837,1856
838,1859
839,1853
840,1856
841,1856
842,1862
843,1866
844,1865
845,1862
846,1865
847,1863
848,1863
849,1863
850,1866
851,1864
852,1863
853,1861
854,1862
855,1863
856,1862
857,1863
858,1865
859,1863
860,1861
861,1862
862,1862
863,1863
864,1857
865,1856
866,1856
867,1857
868,1855
869,1862
870,1861
871,1860
872,1863
873,1863
874,1867
875,1863
876,1862
877,1862
878,1863
879,1862
880,1863
881,1861
882,1863
883,1865
884,1862
885,1862
886,1863
887,1865
888,1862
889,1862
890,1862
891,1860
892,1862
893,1862
894,1856
895,1857
896,1856
897,1856
898,1854
899,1861
900,1863
901,1863
902,1863
903,1862
904,1859
905,1863
906,1860
907,1861
908,1862
909,1862
910,1861
911,1861
912,1863
913,1862
914,1863
915,1865
916,1861
917,1863
918,1860
919,1861
920,1856
921,1856
922,1857
923,1857
924,1856
925,1856
926,1858
927,1856
928,1856
929,1855
930,1853
931,1851
932,1859
933,1861
934,1861
935,1860
936,1861
937,1862
938,1863
939,1865
940,1861
941,1863
942,1861
943,1861
944,1862
945,1859
946,1862
947,1859
948,1864
949,1861
950,1862
951,1863
952,1861
953,1861
954,1856
955,1856
956,1857
957,1856
958,1858
959,1862
960,1862
961,1862
962,1860
963,1861
964,1861
965,1859
966,1862
967,1861
968,1858
969,1862
970,1862
971,1863
972,1859
973,1861
974,1862
975,1861
976,1861
977,1862
978,1861
979,1861
980,1862
981,1863
982,1861
983,1859
984,1856
985,1855
986,1855
987,1855
988,1856
989,1858
990,1863
991,1862
992,1863
993,1862
994,1861
995,1860
996,1862
997,1862
998,1858
999,1862
1000,1862
1001,1859
1002,1858
1003,1862
1004,1861
1005,1858
1006,1860
1007,1860
1008,1861
1009,1859
1010,1862
1011,1865
1012,1862
1013,1863
1014,1856
1015,1855
1016,1856
1017,1856
1018,1855
1019,1861
1020,1862
1021,1862
1022,1862
1023,1862
1024,1862
1025,1860
1026,1862
1027,1862
1028,1862
1029,1862
1030,1861
1031,1860
1032,1863
1033,1863
1034,1862
1035,1863
1036,1862
1037,1865
1038,1862
1039,1865
1040,1863
1041,1863
1042,1863
1043,1864
1044,1856
1045,1856
1046,1855
1047,1856
1048,1855
1049,1854
1050,1856
1051,1856
1052,1861
1053,1862
1054,1861
1055,1862
1056,1860
1057,1861
1058,1860
1059,1860
1060,1863
1061,1861
1062,1863
1063,1861
1064,1861
1065,1859
1066,1863
1067,1863
1068,1859
1069,1859
1070,1861
1071,1861
1072,1861
1073,1863
1074,1856
1075,1856
1076,1854
1077,1857
1078,1856
1079,1862
1080,1862
1081,1865
1082,1865
1083,1860
1084,1861
1085,1864
1086,1863
1087,1860
1088,1859
1089,1861
1090,1860
1091,1866
1092,1862
1093,1862
1094,1859
1095,1862
1096,1859
1097,1861
1098,1861
1099,1859
1100,1862
1101,1861
1102,1863
1103,1859
1104,1856
1105,1856
1106,1853
1107,1856
1108,1861
1109,1861
1110,1859
1111,1859
1112,1860
1113,1859
1114,1859
1115,1861
1116,1859
1117,1861
1118,1860
1119,1862
1120,1861
1121,1861
1122,1861
1123,1863
1124,1860
1125,1862
1126,1863
1127,1864
1128,1861
1129,1861
1130,1862
1131,1862
1132,1863
1133,1865
1134,1857
1135,1857
1136,1856
1137,1855
1138,1856
1139,1854
1140,1856
1141,1853
1142,1865
1143,1863
1144,1865
1145,1863
1146,1863
1147,1862
1148,1862
1149,1860
1150,1861
1151,1859
1152,1863
1153,1862
1154,1861
1155,1861
1156,1861
1157,1863
1158,1863
1159,1862
1160,1861
1161,1858
1162,1866
1163,1871
1164,1863
1165,1862
1166,1860
1167,1859
1168,1853
1169,1853
1170,1856
1171,1856
1172,1860
1173,1863
1174,1860
1175,1860
1176,1861
1177,1861
1178,1862
1179,1859
1180,1861
1181,1860
1182,1862
1183,1859
1184,1859
1185,1862
1186,1859
1187,1859
1188,1861
1189,1857
1190,1859
1191,1862
1192,1861
1193,1857
1194,1854
1195,1856
1196,1856
1197,1855
1198,1855
1199,1862
1200,1858
1201,1861
1202,1859
1203,1859
1204,1861
1205,1860
1206,1857
1207,1859
1208,1860
1209,1859
1210,1859
1211,1858
1212,1859
1213,1859
1214,1857
1215,1859
1216,1859
1217,1858
1218,1859
1219,1849
1220,1853
1221,1853
1222,1853
1223,1854
1224,1854
1225,1854
1226,1854
1227,1855
1228,1861
1229,1862
1230,1859
1231,1859
1232,1861
1233,1860
1234,1861
1235,1857
1236,1859
1237,1861
1238,1861
1239,1862
1240,1862
1241,1864
1242,1862
1243,1858
1244,1857
1245,1860
1246,1856
1247,1858
1248,1861
1249,1858
1250,1862
1251,1859
1252,1861
1253,1862
1254,1857
1255,1857
1256,1856
1257,1856
1258,1856
1259,1858
1260,1862
1261,1857
1262,1868
1263,1865
1264,1859
1265,1857
1266,1854
1267,1852
1268,1859
1269,1859
1270,1858
1271,1860
1272,1862
1273,1861
1274,1862
1275,1859
1276,1859
1277,1858
1278,1860
1279,1861
1280,1859
1281,1861
1282,1862
1283,1859
1284,1854
1285,1856
1286,1857
1287,1855
1288,1855
1289,1859
1290,1859
1291,1861
1292,1860
1293,1859
1294,1863
1295,1857
1296,1858
1297,1863
1298,1858
1299,1857
1300,1859
1301,1856
1302,1860
1303,1857
1304,1860
1305,1859
1306,1857
1307,1858
1308,1857
1309,1860
1310,1859
1311,1856
1312,1858
1313,1859
1314,1854
1315,1857
1316,1856
1317,1856
1318,1856
1319,1859
1320,1859
1321,1856
1322,1857
1323,1858
1324,1859
1325,1861
1326,1861
1327,1862
1328,1859
1329,1861
1330,1861
1331,1857
1332,1856
1333,1856
1334,1856
1335,1859
1336,1857
1337,1856
1338,1858
1339,1859
1340,1859
1341,1857
1342,1859
1343,1858
1344,1854
1345,1854
1346,1856
1347,1856
1348,1856
1349,1850
1350,1856
1351,1857
1352,1867
1353,1865
1354,1863
1355,1858
1356,1856
1357,1855
1358,1855
1359,1858
1360,1857
1361,1857
1362,1860
1363,1860
1364,1860
1365,1860
1366,1857
1367,1858
1368,1861
1369,1862
1370,1861
1371,1858
1372,1859
1373,1859
1374,1855
1375,1854
1376,1854
1377,1853
1378,1853
1379,1858
1380,1861
1381,1860
1382,1856
1383,1859
1384,1861
1385,1861
1386,1861
1387,1861
1388,1862
1389,1861
1390,1859
1391,1857
1392,1857
1393,1860
1394,1861
1395,1862
1396,1863
1397,1862
1398,1860
1399,1857
1400,1857
1401,1860
1402,1863
1403,1865
1404,1854
1405,1853
1406,1856
1407,1853
1408,1856
1409,1859
1410,1860
1411,1860
1412,1862
1413,1859
1414,1859
1415,1861
1416,1863
1417,1859
1418,1856
1419,1859
1420,1850
1421,1858
1422,1857
1423,1861
1424,1858
1425,1857
1426,1857
1427,1857
1428,1860
1429,1869
1430,1872
1431,1870
1432,1866
1433,1860
1434,1849
1435,1846
1436,1852
1437,1856
1438,1855
1439,1854
1440,1854
1441,1852
1442,1858
1443,1858
1444,1863
1445,1862
1446,1863
1447,1862
1448,1863
1449,1859
1450,1861
1451,1861
1452,1865
1453,1859
1454,1857
1455,1858
1456,1858
1457,1859
1458,1861
1459,1862
1460,1861
1461,1861
1462,1859
1463,1858
1464,1854
1465,1856
1466,1856
1467,1854
1468,1855
1469,1863
1470,1859
1471,1861
1472,1861
1473,1862
1474,1861
1475,1862
1476,1860
1477,1861
1478,1862
1479,1862
1480,1863
1481,1860
1482,1861
1483,1861
1484,1857
1485,1857
1486,1861
1487,1861
1488,1859
1489,1863
1490,1865
1491,1862
1492,1859
1493,1858
1494,1852
1495,1855
1496,1853
1497,1853
1498,1855
1499,1862
1500,1860
1501,1861
1502,1861
1503,1862
1504,1863
1505,1862
1506,1860
1507,1861
1508,1861
1509,1857
1510,1859
1511,1861
1512,1861
1513,1859
1514,1859
1515,1863
1516,1865
1517,1864
1518,1856
1519,1857
1520,1856
1521,1853
1522,1845
1523,1841
1524,1851
1525,1852
1526,1853
1527,1857
1528,1855
1529,1854
1530,1863
1531,1861
1532,1861
1533,1859
1534,1861
1535,1859
1536,1859
1537,1862
1538,1859
1539,1861
1540,1862
1541,1859
1542,1861
1543,1859
1544,1861
1545,1859
1546,1860
1547,1862
1548,1907
1549,1207
1550,1702
1551,1878
1552,1872
1553,1856
1554,1847
1555,1847
1556,1865
1557,1892
1558,1887
1559,1838
1560,1812
1561,1810
1562,1840
1563,1865
1564,1904
1565,1954
1566,2003
1567,2039
1568,2095
1569,2160
1570,2266
1571,2405
1572,2483
1573,2384
1574,2123
1575,1799
1576,1470
1577,1234
1578,1225
1579,1346
1580,1206
1581,1310
1582,1712
1583,1787
1584,1815
1585,1830
1586,1845
1587,1874
1588,1898
1589,1846
1590,1805
1591,1810
1592,1831
1593,1860
1594,1921
1595,2000
1596,2083
1597,2138
1598,2167
1599,2202
1600,2275
1601,2419
1602,2505
1603,2395
1604,2074
1605,1664
1606,1285
1607,1088
1608,1153
1609,1377
1610,1618
1611,1474
1612,1372
1613,1778
1614,1833
1615,1858
1616,1857
1617,1869
1618,1895
1619,1872
1620,1814
1621,1805
1622,1843
1623,1881
1624,1936
1625,2013
1626,2098
1627,2157
1628,2178
1629,2197
1630,2252
1631,2395
1632,2481
1633,2403
1634,2097
1635,1687
1636,1287
1637,1078
1638,1150
1639,1397
1640,1643
1641,1763
1642,2094
1643,1242
1644,1769
1645,1839
1646,1851
1647,1856
1648,1871
1649,1888
1650,1872
1651,1817
1652,1817
1653,1855
1654,1902
1655,1967
1656,2054
1657,2124
1658,2161
1659,2193
1660,2238
1661,2361
1662,2500
1663,2514
1664,2258
1665,1813
1666,1366
1667,1070
1668,1089
1669,1346
1670,1618
1671,1763
1672,1835
1673,2747
1674,1179
1675,1743
1676,1818
1677,1838
1678,1849
1679,1879
1680,1898
1681,1851
1682,1810
1683,1830
1684,1872
1685,1927
1686,2000
1687,2096
1688,2161
1689,2193
1690,2213
1691,2285
1692,2453
1693,2553
1694,2416
1695,1990
1696,1497
1697,1121
1698,1050
1699,1255
1700,1555
1701,1735
1702,1811
1703,1846
1704,1904
1705,1200
1706,1659
1707,1827
1708,1846
1709,1860
1710,1879
1711,1904
1712,1840
1713,1785
1714,1810
1715,1863
1716,1936
1717,2011
1718,2116
1719,2176
1720,2210
1721,2230
1722,2318
1723,2489
1724,2541
1725,2288
1726,1829
1727,1339
1728,1050
1729,1105
1730,1391
1731,1655
1732,1778
1733,1830
1734,1847
1735,1859
1736,1314
1737,1566
1738,1823
1739,1831
1740,1840
1741,1862
1742,1899
1743,1825
1744,1778
1745,1813
1746,1872
1747,1938
1748,2023
1749,2119
1750,2180
1751,2215
1752,2231
1753,2334
1754,2489
1755,2512
1756,2219
1757,1728
1758,1263
1759,1042
1760,1159
1761,1473
1762,1701
1763,1799
1764,1837
1765,1846
1766,1853
1767,1859
1768,1862
1769,1872
1770,1874
1771,1872
1772,1872
1773,1873
1774,1875
1775,1871
1776,1872
1777,1871
1778,1870
1779,1878
1780,1878
1781,1876
1782,1873
1783,1872
1784,1868
1785,1861
1786,1859
1787,1863
1788,1865
1789,1865
1790,1870
1791,1871
1792,1872
1793,1875
1794,1875
1795,1877
1796,1872
1797,1866
1798,1862
1799,1856
1800,1846
1801,1850
1802,1859
1803,1867
1804,1872
1805,1872
1806,1872
1807,1872
1808,1881
1809,1856
1810,1843
1811,1847
1812,1859
1813,1863
1814,1859
1815,1862
1816,1870
1817,1872
1818,1867
1819,1856
1820,1856
1821,1863
1822,1861
1823,1853
1824,1849
1825,1851
1826,1850
1827,1850
1828,1850
1829,1856
1830,1859
1831,1858
1832,1862
1833,1859
1834,1859
1835,1859
1836,1857
1837,1856
1838,1856
1839,1861
1840,1859
1841,1856
1842,1855
1843,1857
1844,1860
1845,1862
1846,1859
1847,1861
1848,1860
1849,1861
1850,1861
1851,1857
1852,1858
1853,1859
1854,1855
1855,1854
1856,1855
1857,1855
1858,1853
1859,1852
1860,1857
1861,1859
1862,1859
1863,1859
1864,1859
1865,1859
1866,1860
1867,1859
1868,1859
1869,1861
1870,1861
1871,1859
1872,1858
1873,1859
1874,1859
1875,1859
1876,1859
1877,1859
1878,1859
1879,1856
1880,1856
1881,1860
1882,1859
1883,1858
1884,1855
1885,1854
1886,1857
1887,1857
1888,1853
1889,1861
1890,1857
1891,1859
1892,1856
1893,1856
1894,1858
1895,1862
1896,1859
1897,1858
1898,1862
1899,1865
1900,1866
1901,1863
1902,1858
1903,1842
1904,1849
1905,1854
1906,1857
1907,1857
1908,1856
1909,1859
1910,1856
1911,1857
1912,1856
1913,1857
1914,1851
1915,1855
1916,1853
1917,1853
1918,1852
1919,1856
1920,1854
1921,1859
1922,1859
1923,1859
1924,1859
1925,1857
1926,1857
1927,1858
1928,1858
1929,1859
1930,1861
1931,1860
1932,1861
1933,1860
1934,1862
1935,1860
1936,1859
1937,1861
1938,1860
1939,1858
1940,1858
1941,1862
1942,1859
1943,1858
1944,1853
1945,1856
1946,1857
1947,1856
1948,1857
1949,1856
1950,1856
1951,1855
1952,1860
1953,1857
1954,1854
1955,1861
1956,1862
1957,1861
1958,1862
1959,1863
1960,1861
1961,1863
1962,1863
1963,1861
1964,1865
1965,1864
1966,1865
1967,1865
1968,1862
1969,1860
1970,1865
1971,1863
1972,1861
1973,1863
1974,1857
1975,1862
1976,1860
1977,1858
1978,1849
1979,1867
1980,1862
1981,1865
1982,1869
1983,1871
1984,1872
1985,1870
1986,1866
1987,1856
1988,1854
1989,1859
1990,1867
1991,1870
1992,1861
1993,1865
1994,1867
1995,1867
1996,1872
1997,1871
1998,1867
1999,1863
2000,1856
2001,1856
2002,1862
2003,1863
2004,1856
2005,1857
2006,1857
2007,1857
2008,1855
2009,1857
2010,1859
2011,1861
2012,1863
2013,1865
2014,1866
2015,1866
2016,1867
2017,1865
2018,1866
2019,1863
2020,1863
2021,1866
2022,1866
2023,1867
2024,1869
2025,1872
2026,1872
2027,1869
2028,1866
2029,1861
2030,1858
2031,1858
2032,1863
2033,1867
2034,1861
2035,1859
2036,1863
2037,1860
2038,1857
2039,1856
2040,1856
2041,1856
2042,1866
2043,1867
2044,1867
2045,1864
2046,1866
2047,1867
2048,1866
2049,1866
2050,1871
2051,1866
2052,1867
2053,1866
2054,1866
2055,1862
2056,1863
2057,1862
2058,1863
2059,1864
2060,1863
2061,1867
2062,1872
2063,1872
2064,1859
2065,1860
2066,1858
2067,1856
2068,1855
2069,1863
2070,1867
2071,1866
2072,1870
2073,1871
2074,1869
2075,1862
2076,1866
2077,1866
2078,1863
2079,1867
2080,1869
2081,1871
2082,1872
2083,1872
2084,1869
2085,1867
2086,1863
2087,1863
2088,1868
2089,1871
2090,1874
2091,1873
2092,1872
2093,1873
2094,1865
2095,1856
2096,1849
2097,1856
2098,1859
2099,1861
2100,1863
2101,1867
2102,1875
2103,1875
2104,1872
2105,1872
2106,1871
2107,1861
2108,1858
2109,1866
2110,1860
2111,1853
2112,1861
2113,1870
2114,1872
2115,1869
2116,1870
2117,1871
2118,1872
2119,1867
2120,1859
2121,1856
2122,1857
2123,1860
2124,1861
2125,1861
2126,1862
2127,1860
2128,1863
2129,1861
2130,1861
2131,1862
2132,1872
2133,1872
2134,1872
2135,1872
2136,1872
2137,1872
2138,1871
2139,1869
2140,1870
2141,1872
2142,1869
2143,1867
2144,1869
2145,1869
2146,1869
2147,1872
2148,1872
2149,1872
2150,1871
2151,1872
2152,1872
2153,1874
2154,1872
2155,1872
2156,1872
2157,1866
2158,1863
2159,1861
2160,1853
2161,1853
2162,1865
2163,1869
2164,1868
2165,1870
2166,1872
2167,1886
2168,1879
2169,1872
2170,1867
2171,1873
2172,1882
2173,1882
2174,1879
2175,1875
2176,1863
2177,1851
2178,1863
2179,1872
2180,1872
2181,1866
2182,1863
2183,1869
2184,1867
2185,1869
2186,1863
2187,1866
2188,1868
2189,1875
2190,1877
2191,1874
2192,1874
2193,1873
2194,1872
2195,1872
2196,1873
2197,1872
2198,1874
2199,1874
2200,1873
2201,1873
2202,1875
2203,1877
2204,1874
2205,1874
2206,1875
2207,1874
2208,1874
2209,1874
2210,1873
2211,1877
2212,1878
2213,1876
2214,1872
2215,1870
2216,1872
2217,1872
2218,1872
2219,1873
2220,1875
2221,1874
2222,1875
2223,1875
2224,1874
2225,1875
2226,1877
2227,1874
2228,1872
2229,1872
2230,1873
2231,1873
2232,1872
2233,1871
2234,1872
2235,1875
2236,1874
2237,1874
2238,1883
2239,1883
2240,1881
2241,1879
2242,1878
2243,1879
2244,1872
2245,1867
2246,1863
2247,1867
2248,1861
2249,1859
2250,1871
2251,1868
2252,1877
2253,1879
2254,1872
2255,1870
2256,1866
2257,1861
2258,1872
2259,1874
2260,1876
2261,1873
2262,1872
2263,1873
2264,1873
2265,1872
2266,1873
2267,1873
2268,1872
2269,1873
2270,1873
2271,1873
2272,1872
2273,1874
2274,1866
2275,1872
2276,1870
2277,1870
2278,1865
2279,1872
2280,1872
2281,1874
2282,1873
2283,1873
2284,1873
2285,1872
2286,1871
2287,1872
2288,1872
2289,1871
2290,1872
2291,1877
2292,1877
2293,1872
2294,1872
2295,1877
2296,1876
2297,1873
2298,1866
2299,1861
2300,1868
2301,1871
2302,1874
2303,1875
2304,1871
2305,1872
2306,1872
2307,1872
2308,1872
2309,1875
2310,1879
2311,1877
2312,1865
2313,1865
2314,1858
2315,1856
2316,1866
2317,1872
2318,1872
2319,1873
2320,1871
2321,1872
2322,1869
2323,1869
2324,1869
2325,1862
2326,1863
2327,1868
2328,1865
2329,1866
2330,1868
2331,1872
2332,1872
2333,1871
2334,1863
2335,1868
2336,1872
2337,1872
2338,1869
2339,1863
2340,1866
2341,1861
2342,1873
2343,1874
2344,1874
2345,1875
2346,1872
2347,1872
2348,1872
2349,1874
2350,1872
2351,1868
2352,1869
2353,1872
2354,1872
2355,1871
2356,1872
2357,1872
2358,1872
2359,1872
2360,1872
2361,1860
2362,1857
2363,1856
2364,1853
2365,1856
2366,1859
2367,1859
2368,1858
2369,1862
2370,1856
2371,1847
2372,1856
2373,1859
2374,1857
2375,1853
2376,1855
2377,1861
2378,1861
2379,1857
2380,1858
2381,1859
2382,1862
2383,1861
2384,1863
2385,1863
2386,1867
2387,1869
2388,1869
2389,1869
2390,1870
2391,1863
2392,1866
2393,1866
2394,1867
2395,1867
2396,1862
2397,1867
2398,1867
2399,1872
2400,1874
2401,1872
2402,1874
2403,1877
2404,1875
2405,1876
2406,1875
2407,1875
2408,1875
2409,1875
2410,1874
2411,1873
2412,1877
2413,1872
2414,1865
2415,1861
2416,1862
2417,1863
2418,1865
2419,1870
2420,1865
2421,1857
2422,1849
2423,1854
2424,1856
2425,1858
2426,1859
2427,1859
2428,1857
2429,1851
2430,1856
2431,1846
2432,1855
2433,1858
2434,1866
2435,1865
2436,1866
2437,1869
2438,1869
2439,1870
2440,1872
2441,1872
2442,1872
2443,1872
2444,1869
2445,1867
2446,1867
2447,1867
2448,1857
2449,1856
2450,1862
2451,1863
2452,1866
2453,1871
2454,1865
2455,1862
2456,1860
2457,1858
2458,1862
2459,1863
2460,1859
2461,1858
2462,1863
2463,1869
2464,1872
2465,1870
2466,1872
2467,1871
2468,1857
2469,1840
2470,1840
2471,1853
2472,1856
2473,1856
2474,1856
2475,1855
2476,1852
2477,1851
2478,1854
2479,1855
2480,1855
2481,1855
2482,1855
2483,1856
2484,1856
2485,1858
2486,1859
2487,1855
2488,1854
2489,1861
2490,1856
2491,1855
2492,1856
2493,1859
2494,1857
2495,1859
2496,1865
2497,1867
2498,1871
2499,1869
2500,1865
2501,1867
2502,1863
2503,1864
2504,1869
2505,1866
2506,1867
2507,1871
2508,1868
2509,1869
2510,1869
2511,1869
2512,1868
2513,1869
2514,1863
2515,1862
2516,1861
2517,1863
2518,1861
2519,1867
2520,1871
2521,1868
2522,1867
2523,1867
2524,1867
2525,1869
2526,1869
2527,1868
2528,1869
2529,1867
2530,1870
2531,1871
2532,1871
2533,1866
2534,1870
2535,1866
2536,1858
2537,1861
2538,1868
2539,1870
2540,1871
2541,1866
2542,1855
2543,1855
2544,1850
2545,1847
2546,1845
2547,1853
2548,1851
2549,1850
2550,1854
2551,1858
2552,1869
2553,1866
2554,1861
2555,1861
2556,1862
2557,1857
2558,1853
2559,1856
2560,1856
2561,1856
2562,1855
2563,1856
2564,1856
2565,1856
2566,1856
2567,1860
2568,1860
2569,1856
2570,1856
2571,1856
2572,1857
2573,1857
2574,1854
2575,1854
2576,1850
2577,1851
2578,1854
2579,1857
2580,1856
2581,1857
2582,1856
2583,1857
2584,1856
2585,1857
2586,1857
2587,1857
2588,1859
2589,1860
2590,1856
2591,1859
2592,1857
2593,1857
2594,1859
2595,1859
2596,1859
2597,1857
2598,1857
2599,1856
2600,1858
2601,1858
2602,1856
2603,1858
2604,1853
2605,1854
2606,1854
2607,1853
2608,1850
2609,1861
2610,1860
2611,1859
2612,1859
2613,1856
2614,1853
2615,1849
2616,1854
2617,1856
2618,1858
2619,1857
2620,1849
2621,1856
2622,1859
2623,1859
2624,1859
2625,1859
2626,1859
2627,1852
2628,1852
2629,1854
2630,1853
2631,1856
2632,1856
2633,1856
2634,1851
2635,1854
2636,1852
2637,1855
2638,1851
2639,1851
2640,1852
2641,1853
2642,1858
2643,1859
2644,1863
2645,1856
2646,1847
2647,1853
2648,1859
2649,1861
2650,1861
2651,1860
2652,1859
2653,1858
2654,1857
2655,1857
2656,1858
2657,1859
2658,1861
2659,1861
2660,1860
2661,1863
2662,1860
2663,1866
2664,1858
2665,1855
2666,1855
2667,1855
2668,1858
2669,1861
2670,1862
2671,1860
2672,1861
2673,1861
2674,1861
2675,1858
2676,1860
2677,1859
2678,1861
2679,1859
2680,1862
2681,1861
2682,1861
2683,1860
2684,1862
2685,1858
2686,1858
2687,1860
2688,1859
2689,1858
2690,1857
2691,1858
2692,1861
2693,1860
2694,1856
2695,1854
2696,1854
2697,1856
2698,1855
2699,1856
2700,1857
2701,1861
2702,1858
2703,1858
2704,1856
2705,1853
2706,1856
2707,1856
2708,1859
2709,1857
2710,1856
2711,1856
2712,1857
2713,1860
2714,1863
2715,1862
2716,1858
2717,1855
2718,1852
2719,1856
2720,1850
2721,1846
2722,1849
2723,1851
2724,1851
2725,1854
2726,1854
2727,1856
2728,1855
2729,1847
2730,1847
2731,1851
2732,1859
2733,1861
2734,1862
2735,1859
2736,1865
2737,1863
2738,1859
2739,1862
2740,1862
2741,1868
2742,1866
2743,1856
2744,1853
2745,1857
2746,1861
2747,1863
2748,1863
2749,1861
2750,1861
2751,1863
2752,1862
2753,1863
2754,1856
2755,1855
2756,1856
2757,1858
2758,1858
2759,1867
2760,1867
2761,1868
2762,1866
2763,1863
2764,1861
2765,1707
2766,1335
2767,1839
2768,1881
2769,1872
2770,1871
2771,1872
2772,1872
2773,1886
2774,1904
2775,1889
2776,1835
2777,1799
2778,1808
2779,1843
2780,1911
2781,1996
2782,2096
2783,2158
2784,2179
2785,2192
2786,2236
2787,2358
2788,2442
2789,2350
2790,2074
2791,1731
2792,1403
2793,1217
2794,1232
2795,1390
2796,2502
2797,959
2798,1661
2799,1808
2800,1873
2801,1903
2802,1900
2803,1901
2804,1918
2805,1913
2806,1831
2807,1727
2808,1745
2809,1818
2810,1900
2811,2005
2812,2112
2813,2170
2814,2178
2815,2162
2816,2201
2817,2311
2818,2407
2819,2318
2820,1995
2821,1603
2822,1269
2823,1125
2824,1249
2825,1501
2826,1689
2827,1942
2828,1038
2829,1657
2830,1835
2831,1888
2832,1919
2833,1911
2834,1904
2835,1925
2836,1904
2837,1771
2838,1739
2839,1810
2840,1889
2841,1983
2842,2093
2843,2165
2844,2192
2845,2178
2846,2181
2847,2293
2848,2441
2849,2400
2850,2096
2851,1662
2852,1275
2853,1113
2854,1239
2855,1511
2856,1695
2857,1786
2858,1830
2859,1157
2860,1589
2861,1830
2862,1872
2863,1902
2864,1896
2865,1894
2866,1920
2867,1857
2868,1751
2869,1776
2870,1846
2871,1933
2872,2042
2873,2142
2874,2192
2875,2204
2876,2174
2877,2244
2878,2417
2879,2500
2880,2250
2881,1792
2882,1343
2883,1101
2884,1182
2885,1473
2886,1686
2887,1786
2888,1828
2889,1846
2890,1318
2891,1482
2892,1814
2893,1867
2894,1905
2895,1906
2896,1904
2897,1904
2898,1803
2899,1725
2900,1791
2901,1878
2902,1968
2903,2083
2904,2166
2905,2217
2906,2192
2907,2183
2908,2325
2909,2512
2910,2433
2911,2036
2912,1525
2913,1141
2914,1125
2915,1373
2916,1641
2917,1761
2918,1810
2919,1834
2920,1855
2921,1859
2922,1277
2923,1782
2924,1842
2925,1892
2926,1899
2927,1891
2928,1904
2929,1808
2930,1744
2931,1808
2932,1893
2933,1979
2934,2091
2935,2182
2936,2229
2937,2189
2938,2180
2939,2330
2940,2502
2941,2334
2942,1907
2943,1408
2944,1127
2945,1198
2946,1491
2947,1688
2948,1776
2949,1821
2950,1840
2951,1856
2952,2772
2953,1101
2954,1754
2955,1843
2956,1893
2957,1919
2958,1916
2959,1900
2960,1765
2961,1719
2962,1776
2963,1858
2964,1952
2965,2082
2966,2194
2967,2240
2968,2199
2969,2235
2970,2382
2971,2480
2972,2286
2973,1831
2974,1355
2975,1127
2976,1245
2977,1535
2978,1709
2979,1781
2980,1834
2981,1855
2982,1861
2983,1859
2984,1856
2985,1847
2986,1849
2987,1861
2988,1863
2989,1868
2990,1869
2991,1872
2992,1877
2993,1878
2994,1878
2995,1871
2996,1865
2997,1859
2998,1859
2999,1859
3000,1861
3001,1872
3002,1871
3003,1867
3004,1866
3005,1868
3006,1865
3007,1870
3008,1872
3009,1870
3010,1871
3011,1870
3012,1865
3013,1857
3014,1860
3015,1863
3016,1863
3017,1863
3018,1864
3019,1869
3020,1856
3021,1850
3022,1851
3023,1854
3024,1857
3025,1862
3026,1863
3027,1861
3028,1856
3029,1854
3030,1847
3031,1853
3032,1859
3033,1860
3034,1865
3035,1868
3036,1865
3037,1862
3038,1863
3039,1861
3040,1843
3041,1845
3042,1857
3043,1859
3044,1857
3045,1860
3046,1859
3047,1864
3048,1859
3049,1861
3050,1859
3051,1858
3052,1861
3053,1864
3054,1856
3055,1857
3056,1860
3057,1858
3058,1840
3059,1846
3060,1855
3061,1857
3062,1855
3063,1862
3064,1862
3065,1861
3066,1859
3067,1861
3068,1862
3069,1859
3070,1862
3071,1860
3072,1863
3073,1862
3074,1859
3075,1856
3076,1858
3077,1862
3078,1863
3079,1859
3080,1859
3081,1859
3082,1865
3083,1863
3084,1855
3085,1857
3086,1855
3087,1855
3088,1859
3089,1857
3090,1856
3091,1856
3092,1858
3093,1857
3094,1864
3095,1863
3096,1861
3097,1861
3098,1858
3099,1859
3100,1862
3101,1859
3102,1857
3103,1856
3104,1855
3105,1857
3106,1860
3107,1856
3108,1854
3109,1852
3110,1856
3111,1856
3112,1859
3113,1857
3114,1853
3115,1852
3116,1853
3117,1854
3118,1847
3119,1851
3120,1855
3121,1856
3122,1855
3123,1855
3124,1854
3125,1854
3126,1857
3127,1856
3128,1853
3129,1853
3130,1855
3131,1856
3132,1856
3133,1857
3134,1855
3135,1856
3136,1856
3137,1856
3138,1857
3139,1856
3140,1853
3141,1850
3142,1851
3143,1855
3144,1847
3145,1851
3146,1847
3147,1850
3148,1851
3149,1845
3150,1842
3151,1846
3152,1857
3153,1861
3154,1859
3155,1855
3156,1854
3157,1852
3158,1854
3159,1855
3160,1855
3161,1856
3162,1859
3163,1858
3164,1856
3165,1856
3166,1856
3167,1856
3168,1853
3169,1855
3170,1857
3171,1859
3172,1859
3173,1857
3174,1855
3175,1856
3176,1852
3177,1856
3178,1857
3179,1859
3180,1859
3181,1857
3182,1859
3183,1863
3184,1865
3185,1862
3186,1859
3187,1858
3188,1857
3189,1857
3190,1859
3191,1857
3192,1862
3193,1863
3194,1863
3195,1862
3196,1863
3197,1862
3198,1863
3199,1865
3200,1863
3201,1865
3202,1866
3203,1866
3204,1859
3205,1858
3206,1858
3207,1853
3208,1860
3209,1862
3210,1865
3211,1863
3212,1867
3213,1869
3214,1869
3215,1866
3216,1869
3217,1870
3218,1870
3219,1868
3220,1869
3221,1869
3222,1866
3223,1867
3224,1867
3225,1866
3226,1866
3227,1866
3228,1866
3229,1869
3230,1865
3231,1865
3232,1863
3233,1862
3234,1859
3235,1865
3236,1863
3237,1859
3238,1859
3239,1861
3240,1854
3241,1851
3242,1863
3243,1872
3244,1872
3245,1865
3246,1861
3247,1866
3248,1862
3249,1859
3250,1862
3251,1864
3252,1865
3253,1868
3254,1870
3255,1872
3256,1872
3257,1873
3258,1872
3259,1869
3260,1852
3261,1841
3262,1852
3263,1861
3264,1857
3265,1858
3266,1860
3267,1861
3268,1861
3269,1871
3270,1869
3271,1866
3272,1862
3273,1867
3274,1869
3275,1870
3276,1869
3277,1868
3278,1869
3279,1867
3280,1869
3281,1871
3282,1867
3283,1869
3284,1869
3285,1870
3286,1872
3287,1872
3288,1869
3289,1870
3290,1869
3291,1871
3292,1872
3293,1872
3294,1866
3295,1866
3296,1865
3297,1865
3298,1870
3299,1870
3300,1871
3301,1871
3302,1869
3303,1869
3304,1871
3305,1871
3306,1867
3307,1869
3308,1867
3309,1870
3310,1872
3311,1868
3312,1868
3313,1870
3314,1870
3315,1868
3316,1872
3317,1867
3318,1867
3319,1869
3320,1859
3321,1858
3322,1860
3323,1861
3324,1860
3325,1862
3326,1861
3327,1858
3328,1856
3329,1858
3330,1858
3331,1857
3332,1869
3333,1866
3334,1867
3335,1863
3336,1867
3337,1867
3338,1869
3339,1869
3340,1870
3341,1867
3342,1868
3343,1862
3344,1861
3345,1863
3346,1865
3347,1863
3348,1865
3349,1868
3350,1866
3351,1866
3352,1866
3353,1863
3354,1856
3355,1857
3356,1861
3357,1861
3358,1865
3359,1872
3360,1872
3361,1867
3362,1863
3363,1857
3364,1857
3365,1861
3366,1866
3367,1866
3368,1867
3369,1865
3370,1865
3371,1867
3372,1867
3373,1865
3374,1867
3375,1867
3376,1866
3377,1867
3378,1865
3379,1865
3380,1867
3381,1867
3382,1867
3383,1865
3384,1858
3385,1859
3386,1856
3387,1858
3388,1866
3389,1863
3390,1867
3391,1867
3392,1867
3393,1867
3394,1865
3395,1862
3396,1867
3397,1866
3398,1865
3399,1865
3400,1866
3401,1867
3402,1865
3403,1863
3404,1865
3405,1866
3406,1866
3407,1863
3408,1863
3409,1863
3410,1863
3411,1867
3412,1865
3413,1865
3414,1857
3415,1858
3416,1856
3417,1857
3418,1865
3419,1866
3420,1863
3421,1863
3422,1863
3423,1863
3424,1862
3425,1863
3426,1862
3427,1861
3428,1860
3429,1863
3430,1866
3431,1862
3432,1862
3433,1861
3434,1863
3435,1863
3436,1861
3437,1860
3438,1863
3439,1866
3440,1865
3441,1862
3442,1861
3443,1863
3444,1856
3445,1856
3446,1856
3447,1856
3448,1856
3449,1856
3450,1859
3451,1858
3452,1857
3453,1859
3454,1865
3455,1863
3456,1863
3457,1863
3458,1865
3459,1862
3460,1865
3461,1866
3462,1861
3463,1860
3464,1864
3465,1863
3466,1862
3467,1862
3468,1863
3469,1865
3470,1866
3471,1865
3472,1860
3473,1866
3474,1856
3475,1857
3476,1857
3477,1856
3478,1856
3479,1865
3480,1863
3481,1863
3482,1866
3483,1866
3484,1867
3485,1863
3486,1866
3487,1866
3488,1866
3489,1866
3490,1865
3491,1865
3492,1862
3493,1863
3494,1866
3495,1863
3496,1866
3497,1865
3498,1867
3499,1863
3500,1863
3501,1867
3502,1863
3503,1867
3504,1857
3505,1859
3506,1860
3507,1859
3508,1866
3509,1865
3510,1867
3511,1865
3512,1865
3513,1867
3514,1863
3515,1865
3516,1866
3517,1865
3518,1863
3519,1867
3520,1857
3521,1863
3522,1866
3523,1866
3524,1865
3525,1863
3526,1865
3527,1867
3528,1865
3529,1865
3530,1866
3531,1866
3532,1863
3533,1867
3534,1859
3535,1855
3536,1857
3537,1858
3538,1857
3539,1857
3540,1856
3541,1856
3542,1863
3543,1866
3544,1866
3545,1865
3546,1864
3547,1864
3548,1863
3549,1862
3550,1863
3551,1862
3552,1863
3553,1867
3554,1864
3555,1866
3556,1861
3557,1863
3558,1863
3559,1866
3560,1868
3561,1866
3562,1865
3563,1863
3564,1859
3565,1857
3566,1857
3567,1856
3568,1863
3569,1865
3570,1868
3571,1866
3572,1860
3573,1865
3574,1864
3575,1866
3576,1863
3577,1862
3578,1867
3579,1865
3580,1867
3581,1865
3582,1867
3583,1863
3584,1863
3585,1869
3586,1867
3587,1867
3588,1865
3589,1867
3590,1867
3591,1870
3592,1869
3593,1865
3594,1856
3595,1859
3596,1859
3597,1858
3598,1859
3599,1865
3600,1863
3601,1866
3602,1863
3603,1863
3604,1867
3605,1862
3606,1863
3607,1865
3608,1862
3609,1863
3610,1862
3611,1861
3612,1863
3613,1862
3614,1865
3615,1862
3616,1862
3617,1863
3618,1866
3619,1867
3620,1857
3621,1859
3622,1856
3623,1856
3624,1856
3625,1858
3626,1857
3627,1857
3628,1855
3629,1855
3630,1857
3631,1853
3632,1856
3633,1862
3634,1863
3635,1861
3636,1865
3637,1863
3638,1866
3639,1861
3640,1863
3641,1862
3642,1863
3643,1861
3644,1863
3645,1865
3646,1860
3647,1862
3648,1862
3649,1862
3650,1862
3651,1863
3652,1862
3653,1865
3654,1859
3655,1856
3656,1857
3657,1856
3658,1857
3659,1862
3660,1863
3661,1863
3662,1863
3663,1861
3664,1863
3665,1865
3666,1862
3667,1862
3668,1863
3669,1863
3670,1860
3671,1865
3672,1861
3673,1861
3674,1863
3675,1863
3676,1865
3677,1863
3678,1863
3679,1864
3680,1866
3681,1863
3682,1866
3683,1862
3684,1856
3685,1857
3686,1856
3687,1857
3688,1867
3689,1863
3690,1862
3691,1863
3692,1862
3693,1866
3694,1863
3695,1863
3696,1861
3697,1864
3698,1861
3699,1863
3700,1861
3701,1863
3702,1863
3703,1863
3704,1863
3705,1861
3706,1860
3707,1859
3708,1861
3709,1860
3710,1863
3711,1862
3712,1862
3713,1858
3714,1856
3715,1856
3716,1856
3717,1856
3718,1862
3719,1861
3720,1861
3721,1859
3722,1861
3723,1862
3724,1863
3725,1861
3726,1859
3727,1861
3728,1860
3729,1859
3730,1862
3731,1862
3732,1861
3733,1860
3734,1861
3735,1862
3736,1861
3737,1861
3738,1859
3739,1860
3740,1862
3741,1861
3742,1863
3743,1860
3744,1856
3745,1857
3746,1858
3747,1857
3748,1858
3749,1856
3750,1856
3751,1852
3752,1856
3753,1855
3754,1860
3755,1861
3756,1859
3757,1858
3758,1862
3759,1862
3760,1863
3761,1862
3762,1863
3763,1865
3764,1862
3765,1861
3766,1863
3767,1860
3768,1859
3769,1858
3770,1857
3771,1858
3772,1858
3773,1858
3774,1854
3775,1857
3776,1856
3777,1855
3778,1855
3779,1861
3780,1866
3781,1863
3782,1863
3783,1861
3784,1859
3785,1856
3786,1859
3787,1860
3788,1862
3789,1861
3790,1860
3791,1857
3792,1861
3793,1859
3794,1860
3795,1859
3796,1861
3797,1859
3798,1861
3799,1858
3800,1861
3801,1859
3802,1862
3803,1859
3804,1853
3805,1855
3806,1853
3807,1855
3808,1858
3809,1857
3810,1858
3811,1859
3812,1859
3813,1859
3814,1858
3815,1860
3816,1862
3817,1859
3818,1858
3819,1859
3820,1859
3821,1859
3822,1859
3823,1860
3824,1859
3825,1858
3826,1860
3827,1862
3828,1859
3829,1861
3830,1857
3831,1859
3832,1861
3833,1859
3834,1854
3835,1857
3836,1856
3837,1859
3838,1856
3839,1851
3840,1847
3841,1842
3842,1855
3843,1861
3844,1861
3845,1860
3846,1861
3847,1860
3848,1859
3849,1857
3850,1858
3851,1859
3852,1861
3853,1861
3854,1859
3855,1859
3856,1859
3857,1860
3858,1861
3859,1861
3860,1860
3861,1859
3862,1859
3863,1857
3864,1854
3865,1855
3866,1856
3867,1855
3868,1853
3869,1865
3870,1861
3871,1862
3872,1863
3873,1860
3874,1862
3875,1861
3876,1861
3877,1860
3878,1862
3879,1860
3880,1856
3881,1856
3882,1856
3883,1859
3884,1859
3885,1859
3886,1861
3887,1860
3888,1861
3889,1862
3890,1858
3891,1858
3892,1862
3893,1863
3894,1858
3895,1859
3896,1863
3897,1857
3898,1863
3899,1859
3900,1853
3901,1854
3902,1856
3903,1859
3904,1861
3905,1869
3906,1872
3907,1869
3908,1866
3909,1859
3910,1858
3911,1851
3912,1854
3913,1858
3914,1863
3915,1863
3916,1861
3917,1863
3918,1862
3919,1853
3920,1853
3921,1851
3922,1856
3923,1854
3924,1855
3925,1856
3926,1856
3927,1856
3928,1855
3929,1854
3930,1851
3931,1851
3932,1858
3933,1861
3934,1862
3935,1865
3936,1866
3937,1865
3938,1866
3939,1866
3940,1861
3941,1863
3942,1863
3943,1863
3944,1862
3945,1863
3946,1864
3947,1866
3948,1860
3949,1863
3950,1861
3951,1858
3952,1861
3953,1861
3954,1856
3955,1856
3956,1856
3957,1856
3958,1855
3959,1863
3960,1861
3961,1859
3962,1862
3963,1865
3964,1860
3965,1862
3966,1866
3967,1863
3968,1862
3969,1860
3970,1861
3971,1867
3972,1870
3973,1871
3974,1868
3975,1865
3976,1859
3977,1858
3978,1857
3979,1853
3980,1860
3981,2347
3982,1138
3983,1698
3984,1845
3985,1933
3986,1951
3987,1927
3988,1926
3989,1938
3990,1939
3991,1780
3992,1675
3993,1729
3994,1795
3995,1843
3996,1920
3997,2011
3998,2105
3999,2163
4000,2214
4001,2263
4002,2325
4003,2410
4004,2426
4005,2274
4006,1963
4007,1600
4008,1275
4009,1132
4010,1191
4011,1398
4012,1619
4013,1231
4014,1482
4015,1782
4016,1878
4017,1937
4018,1939
4019,1927
4020,1921
4021,1866
4022,1696
4023,1695
4024,1783
4025,1857
4026,1936
4027,2029
4028,2119
4029,2165
4030,2198
4031,2234
4032,2305
4033,2416
4034,2459
4035,2287
4036,1904
4037,1478
4038,1159
4039,1090
4040,1270
4041,1535
4042,1724
4043,1808
4044,1488
4045,1443
4046,1808
4047,1872
4048,1920
4049,1923
4050,1929
4051,1939
4052,1865
4053,1741
4054,1758
4055,1840
4056,1914
4057,2002
4058,2091
4059,2156
4060,2196
4061,2228
4062,2293
4063,2419
4064,2513
4065,2389
4066,1981
4067,1493
4068,1133
4069,1084
4070,1275
4071,1569
4072,1740
4073,1814
4074,1840
4075,1904
4076,1291
4077,1780
4078,1850
4079,1930
4080,1950
4081,1935
4082,1904
4083,1791
4084,1735
4085,1797
4086,1883
4087,1948
4088,2036
4089,2132
4090,2189
4091,2225
4092,2273
4093,2384
4094,2520
4095,2487
4096,2128
4097,1609
4098,1177
4099,1023
4100,1226
4101,1535
4102,1724
4103,1808
4104,1841
4105,1856
4106,2727
4107,1151
4108,1745
4109,1835
4110,1877
4111,1904
4112,1909
4113,1898
4114,1793
4115,1755
4116,1823
4117,1910
4118,1998
4119,2097
4120,2173
4121,2221
4122,2255
4123,2327
4124,2471
4125,2559
4126,2325
4127,1840
4128,1318
4129,1040
4130,1122
4131,1437
4132,1691
4133,1794
4134,1830
4135,1850
4136,1859
4137,2084
4138,1111
4139,1677
4140,1811
4141,1863
4142,1917
4143,1934
4144,1907
4145,1775
4146,1742
4147,1807
4148,1897
4149,1999
4150,2105
4151,2179
4152,2229
4153,2255
4154,2336
4155,2510
4156,2559
4157,2253
4158,1701
4159,1203
4160,1041
4161,1230
4162,1535
4163,1724
4164,1795
4165,1836
4166,1855
4167,1857
4168,1851
4169,1187
4170,1599
4171,1817
4172,1859
4173,1900
4174,1919
4175,1904
4176,1767
4177,1741
4178,1810
4179,1904
4180,2003
4181,2121
4182,2195
4183,2249
4184,2270
4185,2375
4186,2538
4187,2512
4188,2134
4189,1565
4190,1136
4191,1084
4192,1347
4193,1637
4194,1773
4195,1822
4196,1837
4197,1843
4198,1858
4199,1865
4200,1395
4201,1475
4202,1804
4203,1838
4204,1862
4205,1891
4206,1898
4207,1786
4208,1765
4209,1837
4210,1934
4211,2023
4212,2128
4213,2207
4214,2247
4215,2250
4216,2363
4217,2517
4218,2482
4219,2093
4220,1523
4221,1127
4222,1117
4223,1404
4224,1673
4225,1767
4226,1807
4227,1840
4228,1840
4229,1840
4230,1846
4231,1827
4232,1299
4233,1783
4234,1827
4235,1850
4236,1886
4237,1901
4238,1785
4239,1751
4240,1802
4241,1886
4242,2000
4243,2115
4244,2198
4245,2246
4246,2267
4247,2388
4248,2545
4249,2493
4250,2080
4251,1503
4252,1135
4253,1140
4254,1424
4255,1680
4256,1790
4257,1811
4258,1826
4259,1842
4260,1853
4261,1858
4262,2731
4263,1133
4264,1755
4265,1824
4266,1844
4267,1874
4268,1891
4269,1779
4270,1745
4271,1805
4272,1890
4273,1995
4274,2111
4275,2192
4276,2241
4277,2268
4278,2376
4279,2513
4280,2505
4281,2114
4282,1535
4283,1143
4284,1136
4285,1413
4286,1662
4287,1783
4288,1829
4289,1850
4290,1857
4291,1862
4292,1865
4293,2085
4294,1007
4295,1684
4296,1811
4297,1840
4298,1875
4299,1903
4300,1794
4301,1744
4302,1794
4303,1871
4304,1965
4305,2081
4306,2190
4307,2257
4308,2294
4309,2384
4310,2519
4311,2516
4312,2135
4313,1581
4314,1169
4315,1126
4316,1397
4317,1638
4318,1778
4319,1808
4320,1830
4321,1855
4322,1861
4323,1863
4324,1869
4325,1103
4326,1605
4327,1799
4328,1823
4329,1849
4330,1883
4331,1814
4332,1771
4333,1803
4334,1867
4335,1955
4336,2062
4337,2167
4338,2249
4339,2277
4340,2359
4341,2493
4342,2533
4343,2211
4344,1646
4345,1210
4346,1133
4347,1367
4348,1648
4349,1782
4350,1813
4351,1819
4352,1840
4353,1856
4354,1860
4355,1865
4356,1329
4357,1474
4358,1792
4359,1825
4360,1853
4361,1890
4362,1839
4363,1757
4364,1776
4365,1839
4366,1933
4367,2038
4368,2151
4369,2235
4370,2255
4371,2322
4372,2451
4373,2543
4374,2271
4375,1733
4376,1263
4377,1136
4378,1349
4379,1623
4380,1771
4381,1821
4382,1827
4383,1841
4384,1853
4385,1854
4386,1854
4387,1648
4388,1355
4389,1794
4390,1826
4391,1847
4392,1887
4393,1856
4394,1769
4395,1789
4396,1854
4397,1925
4398,2030
4399,2129
4400,2224
4401,2228
4402,2299
4403,2448
4404,2530
4405,2319
4406,1789
4407,1287
4408,1142
4409,1314
4410,1591
4411,1741
4412,1814
4413,1831
4414,1840
4415,1855
4416,1859
4417,1861
4418,2511
4419,1141
4420,1758
4421,1826
4422,1842
4423,1874
4424,1873
4425,1782
4426,1776
4427,1823
4428,1894
4429,1999
4430,2112
4431,2202
4432,2240
4433,2293
4434,2410
4435,2518
4436,2374
4437,1911
4438,1392
4439,1143
4440,1250
4441,1534
4442,1730
4443,1815
4444,1850
4445,1863
4446,1872
4447,1886
4448,1890
4449,2075
4450,960
4451,1712
4452,1807
4453,1817
4454,1862
4455,1891
4456,1785
4457,1748
4458,1810
4459,1879
4460,1970
4461,2090
4462,2186
4463,2215
4464,2240
4465,2351
4466,2494
4467,2410
4468,2010
4469,1520
4470,1218
4471,1241
4472,1493
4473,1707
4474,1803
4475,1839
4476,1856
4477,1858
4478,1860
4479,1862
4480,1860
4481,1050
4482,1621
4483,1824
4484,1837
4485,1856
4486,1898
4487,1826
4488,1776
4489,1809
4490,1865
4491,1958
4492,2065
4493,2167
4494,2213
4495,2236
4496,2320
4497,2466
4498,2480
4499,2145
4500,1649
4501,1298
4502,1250
4503,1474
4504,1682
4505,1792
4506,1839
4507,1846
4508,1856
4509,1861
4510,1866
4511,1857
4512,1175
4513,1519
4514,1807
4515,1826
4516,1859
4517,1920
4518,1858
4519,1791
4520,1804
4521,1841
4522,1920
4523,2021
4524,2128
4525,2191
4526,2203
4527,2282
4528,2431
4529,2491
4530,2213
4531,1734
4532,1359
4533,1258
4534,1431
4535,1667
4536,1782
4537,1826
4538,1841
4539,1855
4540,1856
4541,1856
4542,1858
4543,1749
4544,1306
4545,1808
4546,1841
4547,1853
4548,1881
4549,1858
4550,1782
4551,1805
4552,1854
4553,1930
4554,2014
4555,2112
4556,2177
4557,2162
4558,2203
4559,2352
4560,2477
4561,2327
4562,1909
4563,1488
4564,1311
4565,1421
4566,1633
4567,1761
4568,1824
4569,1841
4570,1856
4571,1861
4572,1863
4573,1869
4574,2729
4575,1072
4576,1778
4577,1841
4578,1819
4579,1857
4580,1902
4581,1808
4582,1801
4583,1841
4584,1891
4585,1983
4586,2098
4587,2176
4588,2171
4589,2166
4590,2257
4591,2432
4592,2385
4593,2019
4594,1585
4595,1360
4596,1421
4597,1617
4598,1757
4599,1825
4600,1839
4601,1846
4602,1860
4603,1870
4604,1869
4605,1859
4606,1858
4607,1853
4608,1856
4609,1874
4610,1895
4611,1901
4612,1889
4613,1872
4614,1857
4615,1862
4616,1861
4617,1851
4618,1855
4619,1865
4620,1847
4621,1835
4622,1841
4623,1857
4624,1866
4625,1868
4626,1870
4627,1872
4628,1872
4629,1876
4630,1872
4631,1871
4632,1872
4633,1871
4634,1871
4635,1886
4636,1902
4637,1911
4638,1915
4639,1909
4640,1893
4641,1836
4642,1789
4643,1804
4644,1853
4645,1874
4646,1881
4647,1874
4648,1887
4649,1867
4650,1825
4651,1824
4652,1840
4653,1851
4654,1857
4655,1857
4656,1859
4657,1868
4658,1870
4659,1870
4660,1871
4661,1874
4662,1874
4663,1878
4664,1885
4665,1882
4666,1869
4667,1856
4668,1843
4669,1842
4670,1846
4671,1846
4672,1842
4673,1825
4674,1829
4675,1840
4676,1842
4677,1843
4678,1846
4679,1856
4680,1854
4681,1853
4682,1853
4683,1850
4684,1851
4685,1852
4686,1851
4687,1851
4688,1847
4689,1850
4690,1851
4691,1850
4692,1849
4693,1855
4694,1855
4695,1862
4696,1855
4697,1849
4698,1845
4699,1843
4700,1840
4701,1829
4702,1835
4703,1840
4704,1840
4705,1843
4706,1844
4707,1850
4708,1851
4709,1851
4710,1853
4711,1853
4712,1854
4713,1851
4714,1856
4715,1856
4716,1856
4717,1859
4718,1872
4719,1873
4720,1881
4721,1885
4722,1872
4723,1831
4724,1840
4725,1847
4726,1838
4727,1829
4728,1820
4729,1829
4730,1838
4731,1840
4732,1838
4733,1835
4734,1833
4735,1840
4736,1837
4737,1835
4738,1833
4739,1834
4740,1839
4741,1840
4742,1840
4743,1841
4744,1840
4745,1830
4746,1831
4747,1833
4748,1834
4749,1835
4750,1839
4751,1838
4752,1837
4753,1843
4754,1846
4755,1847
4756,1843
4757,1840
4758,1840
4759,1840
4760,1843
4761,1849
4762,1854
4763,1857
4764,1850
4765,1850
4766,1844
4767,1840
4768,1839
4769,1839
4770,1842
4771,1842
4772,1849
4773,1849
4774,1855
4775,1859
4776,1859
4777,1856
4778,1856
4779,1855
4780,1855
4781,1861
4782,1867
4783,1865
4784,1867
4785,1868
4786,1870
4787,1870
4788,1870
4789,1868
4790,1869
4791,1878
4792,1876
4793,1873
4794,1869
4795,1865
4796,1855
4797,1857
4798,1859
4799,1868
4800,1843
4801,1840
4802,1847
4803,1854
4804,1861
4805,1863
4806,1872
4807,1867
4808,1855
4809,1856
4810,1861
4811,1863
4812,1866
4813,1865
4814,1863
4815,1865
4816,1867
4817,1871
4818,1855
4819,1866
4820,1862
4821,1863
4822,1855
4823,1856
4824,1859
4825,1857
4826,1861
4827,1857
4828,1847
4829,1845
4830,1852
4831,1854
4832,1863
4833,1867
4834,1872
4835,1866
4836,1856
4837,1855
4838,1856
4839,1859
4840,1856
4841,1851
4842,1852
4843,1856
4844,1857
4845,1861
4846,1870
4847,1862
4848,1852
4849,1846
4850,1847
4851,1847
4852,1841
4853,1847
4854,1849
4855,1849
4856,1847
4857,1848
4858,1849
4859,1854
4860,1853
4861,1856
4862,1858
4863,1849
4864,1849
4865,1850
4866,1846
4867,1845
4868,1850
4869,1852
4870,1847
4871,1844
4872,1847
4873,1851
4874,1853
4875,1856
4876,1856
4877,1857
4878,1856
4879,1858
4880,1856
4881,1857
4882,1857
4883,1861
4884,1855
4885,1854
4886,1856
4887,1859
4888,1857
4889,1863
4890,1862
4891,1861
4892,1863
4893,1861
4894,1867
4895,1868
4896,1867
4897,1867
4898,1860
4899,1857
4900,1864
4901,1867
4902,1872
4903,1872
4904,1869
4905,1863
4906,1859
4907,1862
4908,1863
4909,1862
4910,1868
4911,1861
4912,1857
4913,1850
4914,1846
4915,1850
4916,1853
4917,1856
4918,1863
4919,1862
4920,1856
4921,1856
4922,1862
4923,1867
4924,1871
4925,1862
4926,1856
4927,1856
4928,1856
4929,1858
4930,1855
4931,1847
4932,1851
4933,1853
4934,1854
4935,1853
4936,1856
4937,1855
4938,1855
4939,1851
4940,1856
4941,1859
4942,1856
4943,1854
4944,1840
4945,1840
4946,1847
4947,1850
4948,1845
4949,1841
4950,1840
4951,1839
4952,1842
4953,1850
4954,1856
4955,1859
4956,1855
4957,1851
4958,1852
4959,1854
4960,1855
4961,1857
4962,1863
4963,1859
4964,1856
4965,1855
4966,1849
4967,1853
4968,1858
4969,1858
4970,1858
4971,1862
4972,1861
4973,1860
4974,1855
4975,1857
4976,1858
4977,1859
4978,1857
4979,1866
4980,1866
4981,1867
4982,1865
4983,1866
4984,1868
4985,1868
4986,1867
4987,1869
4988,1869
4989,1869
4990,1870
4991,1867
4992,1867
4993,1869
4994,1870
4995,1869
4996,1871
4997,1871
4998,1870
4999,1864
5000,1867
5001,1866
5002,1870
5003,1865
5004,1858
5005,1861
5006,1857
5007,1856
5008,1863
5009,1862
5010,1865
5011,1860
5012,1862
5013,1859
5014,1857
5015,1859
5016,1861
5017,1857
5018,1856
5019,1856
5020,1859
5021,1857
5022,1858
5023,1857
5024,1858
5025,1859
5026,1859
5027,1859
5028,1861
5029,1860
5030,1867
5031,1862
5032,1862
5033,1858
5034,1850
5035,1843
5036,1841
5037,1843
5038,1853
5039,1851
5040,1852
5041,1853
5042,1857
5043,1857
5044,1858
5045,1860
5046,1860
5047,1856
5048,1858
5049,1863
5050,1860
5051,1857
5052,1862
5053,1863
5054,1861
5055,1859
5056,1861
5057,1863
5058,1866
5059,1866
5060,1866
5061,1864
5062,1861
5063,1862
5064,1858
5065,1860
5066,1857
5067,1857
5068,1858
5069,1866
5070,1861
5071,1861
5072,1865
5073,1867
5074,1870
5075,1869
5076,1869
5077,1868
5078,1863
5079,1860
5080,1863
5081,1866
5082,1870
5083,1870
5084,1872
5085,1870
5086,1861
5087,1865
5088,1866
5089,1865
5090,1863
5091,1859
5092,1859
5093,1863
5094,1856
5095,1856
5096,1856
5097,1855
5098,1859
5099,1860
5100,1863
5101,1862
5102,1860
5103,1863
5104,1859
5105,1859
5106,1857
5107,1857
5108,1858
5109,1860
5110,1859
5111,1856
5112,1857
5113,1861
5114,1859
5115,1858
5116,1859
5117,1858
5118,1862
5119,1861
5120,1855
5121,1849
5122,1854
5123,1852
5124,1853
5125,1853
5126,1853
5127,1856
5128,1853
5129,1853
5130,1856
5131,1854
5132,1861
5133,1861
5134,1858
5135,1862
5136,1863
5137,1863
5138,1866
5139,1867
5140,1862
5141,1856
5142,1855
5143,1851
5144,1854
5145,1857
5146,1860
5147,1862
5148,1862
5149,1861
5150,1862
5151,1863
5152,1863
5153,1867
5154,1858
5155,1855
5156,1853
5157,1854
5158,1856
5159,1863
5160,1859
5161,1861
5162,1863
5163,1862
5164,1859
5165,1859
5166,1864
5167,1862
5168,1863
5169,1862
5170,1861
5171,1858
5172,1858
5173,1863
5174,1867
5175,1867
5176,1863
5177,1862
5178,1860
5179,1861
5180,1864
5181,1866
5182,1863
5183,1861
5184,1858
5185,1856
5186,1856
5187,1855
5188,1862
5189,1862
5190,1862
5191,1865
5192,1863
5193,1863
5194,1859
5195,1863
5196,1862
5197,1859
5198,1862
5199,1859
5200,1859
5201,1861
5202,1862
5203,1861
5204,1859
5205,1861
5206,1862
5207,1861
5208,1863
5209,1863
5210,1865
5211,1866
5212,1864
5213,1859
5214,1847
5215,1847
5216,1848
5217,1851
5218,1858
5219,1861
5220,1859
5221,1859
5222,1863
5223,1862
5224,1862
5225,1861
5226,1856
5227,1859
5228,1859
5229,1855
5230,1856
5231,1861
5232,1865
5233,1867
5234,1867
5235,1866
5236,1857
5237,1851
5238,1853
5239,1856
5240,1860
5241,1859
5242,1861
5243,1859
5244,1855
5245,1853
5246,1856
5247,1856
5248,1856
5249,1858
5250,1856
5251,1855
5252,1862
5253,1859
5254,1859
5255,1860
5256,1861
5257,1862
5258,1863
5259,1862
5260,1863
5261,1863
5262,1862
5263,1861
5264,1866
5265,1859
5266,1858
5267,1862
5268,1861
5269,1867
5270,1870
5271,1862
5272,1857
5273,1856
5274,1852
5275,1853
5276,1853
5277,1857
5278,1855
5279,1858
5280,1862
5281,1859
5282,1859
5283,1859
5284,1859
5285,1859
5286,1860
5287,1861
5288,1859
5289,1862
5290,1861
5291,1860
5292,1859
5293,1861
5294,1859
5295,1858
5296,1858
5297,1860
5298,1858
5299,1856
5300,1858
5301,1859
5302,1861
5303,1859
5304,1852
5305,1856
5306,1856
5307,1852
5308,1853
5309,1859
5310,1859
5311,1857
5312,1859
5313,1862
5314,1861
5315,1860
5316,1857
5317,1860
5318,1860
5319,1856
5320,1859
5321,1863
5322,1859
5323,1861
5324,1859
5325,1857
5326,1862
5327,1859
5328,1861
5329,1862
5330,1861
5331,1861
5332,1861
5333,1858
5334,1855
5335,1856
5336,1855
5337,1856
5338,1855
5339,1853
5340,1851
5341,1853
5342,1862
5343,1862
5344,1862
5345,1860
5346,1860
5347,1858
5348,1861
5349,1859
5350,1861
5351,1861
5352,1860
5353,1859
5354,1859
5355,1859
5356,1863
5357,1862
5358,1862
5359,1862
5360,1861
5361,1865
5362,1861
5363,1861
5364,1856
5365,1857
5366,1851
5367,1847
5368,1851
5369,1859
5370,1863
5371,1866
5372,1862
5373,1861
5374,1865
5375,1856
5376,1857
5377,1858
5378,1858
5379,1860
5380,1859
5381,1858
5382,1858
5383,1859
5384,1861
5385,1862
5386,1859
5387,1862
5388,1860
5389,1862
5390,1858
5391,1858
5392,1860
5393,1860
5394,1855
5395,1852
5396,1855
5397,1855
5398,1862
5399,1859
5400,1859
5401,1859
5402,1859
5403,1857
5404,1861
5405,1860
5406,1861
5407,1862
5408,1862
5409,1860
5410,1859
5411,1861
5412,1862
5413,1861
5414,1858
5415,1860
5416,1861
5417,1858
5418,1859
5419,1862
5420,1857
5421,1856
5422,1856
5423,1856
5424,1856
5425,1856
5426,1856
5427,1856
5428,1853
5429,1855
5430,1853
5431,1855
5432,1861
5433,1862
5434,1860
5435,1862
5436,1862
5437,1861
5438,1862
5439,1862
5440,1861
5441,1861
5442,1858
5443,1862
5444,1862
5445,1863
5446,1859
5447,1859
5448,1857
5449,1859
5450,1857
5451,1863
5452,1861
5453,1857
5454,1853
5455,1855
5456,1855
5457,1856
5458,1856
5459,1863
5460,1858
5461,1866
5462,1860
5463,1860
5464,1862
5465,1865
5466,1859
5467,1856
5468,1859
5469,1859
5470,1858
5471,1861
5472,1862
5473,1861
5474,1861
5475,1859
5476,1861
5477,1861
5478,1859
5479,1860
5480,1863
5481,1861
5482,1860
5483,1858
5484,1855
5485,1857
5486,1856
5487,1858
5488,1862
5489,1863
5490,1863
5491,1859
5492,1857
5493,1858
5494,1863
5495,1861
5496,1860
5497,1861
5498,1859
5499,1863
5500,1859
5501,1862
5502,1860
5503,1859
5504,1862
5505,1860
5506,1859
5507,1862
5508,1863
5509,1861
5510,1863
5511,1865
5512,1863
5513,1863
5514,1855
5515,1856
5516,1857
5517,1856
5518,1863
5519,1863
5520,1863
5521,1861
5522,1862
5523,1861
5524,1861
5525,1860
5526,1859
5527,1860
5528,1861
5529,1861
5530,1860
5531,1859
5532,1863
5533,1863
5534,1865
5535,1861
5536,1865
5537,1860
5538,1862
5539,1863
5540,1859
5541,1861
5542,1861
5543,1861
5544,1854
5545,1855
5546,1856
5547,1857
5548,1856
5549,1853
5550,1855
5551,1856
5552,1862
5553,1862
5554,1861
5555,1862
5556,1866
5557,1861
5558,1863
5559,1863
5560,1863
5561,1861
5562,1863
5563,1865
5564,1862
5565,1865
5566,1864
5567,1865
5568,1862
5569,1860
5570,1863
5571,1863
5572,1863
5573,1863
5574,1856
5575,1856
5576,1856
5577,1857
5578,1858
5579,1867
5580,1865
5581,1861
5582,1862
5583,1862
5584,1863
5585,1865
5586,1863
5587,1863
5588,1865
5589,1863
5590,1862
5591,1862
5592,1861
5593,1862
5594,1863
5595,1865
5596,1861
5597,1863
5598,1866
5599,1862
5600,1861
5601,1862
5602,1865
5603,2117
5604,1213
5605,1650
5606,1833
5607,1886
5608,1920
5609,1927
5610,1920
5611,1924
5612,1925
5613,1826
5614,1680
5615,1695
5616,1781
5617,1872
5618,1978
5619,2110
5620,2182
5621,2240
5622,2268
5623,2320
5624,2414
5625,2461
5626,2307
5627,1959
5628,1590
5629,1282
5630,1132
5631,1219
5632,1467
5633,1661
5634,1744
5635,1299
5636,1494
5637,1779
5638,1935
5639,2067
5640,2078
5641,2030
5642,1963
5643,1861
5644,1563
5645,1501
5646,1680
5647,1831
5648,1963
5649,2095
5650,2188
5651,2224
5652,2241
5653,2288
5654,2373
5655,2421
5656,2258
5657,1889
5658,1442
5659,1161
5660,1123
5661,1333
5662,1609
5663,1759
5664,1818
5665,1847
5666,1535
5667,1423
5668,1789
5669,1900
5670,2032
5671,2059
5672,2009
5673,1957
5674,1783
5675,1567
5676,1660
5677,1815
5678,1951
5679,2059
5680,2154
5681,2224
5682,2257
5683,2299
5684,2407
5685,2513
5686,2399
5687,2005
5688,1506
5689,1145
5690,1104
5691,1336
5692,1620
5693,1775
5694,1837
5695,1865
5696,1875
5697,1922
5698,1314
5699,1788
5700,1855
5701,1936
5702,1962
5703,1951
5704,1921
5705,1792
5706,1723
5707,1773
5708,1883
5709,2000
5710,2117
5711,2206
5712,2262
5713,2295
5714,2397
5715,2522
5716,2515
5717,2198
5718,1670
5719,1201
5720,1067
5721,1264
5722,1575
5723,1746
5724,1819
5725,1853
5726,1867
5727,1872
5728,2736
5729,1152
5730,1747
5731,1824
5732,1895
5733,1933
5734,1940
5735,1926
5736,1803
5737,1748
5738,1810
5739,1920
5740,2043
5741,2158
5742,2244
5743,2285
5744,2316
5745,2427
5746,2542
5747,2431
5748,1993
5749,1451
5750,1086
5751,1147
5752,1455
5753,1701
5754,1808
5755,1849
5756,1862
5757,1872
5758,1877
5759,2115
5760,1019
5761,1728
5762,1845
5763,1918
5764,1983
5765,1972
5766,1909
5767,1727
5768,1669
5769,1751
5770,1883
5771,2010
5772,2147
5773,2245
5774,2254
5775,2277
5776,2396
5777,2527
5778,2369
5779,1918
5780,1389
5781,1126
5782,1262
5783,1563
5784,1723
5785,1779
5786,1797
5787,1834
5788,1856
5789,1870
5790,1871
5791,1090
5792,1626
5793,1838
5794,1905
5795,1989
5796,2005
5797,1949
5798,1734
5799,1637
5800,1719
5801,1856
5802,2001
5803,2156
5804,2255
5805,2243
5806,2256
5807,2383
5808,2527
5809,2383
5810,1918
5811,1397
5812,1178
5813,1352
5814,1622
5815,1744
5816,1767
5817,1789
5818,1835
5819,1851
5820,1855
5821,1862
5822,1295
5823,1472
5824,1824
5825,1863
5826,1919
5827,1968
5828,1962
5829,1815
5830,1712
5831,1751
5832,1871
5833,1986
5834,2137
5835,2242
5836,2235
5837,2229
5838,2342
5839,2497
5840,2369
5841,1917
5842,1405
5843,1209
5844,1358
5845,1621
5846,1759
5847,1821
5848,1842
5849,1853
5850,1856
5851,1858
5852,1865
5853,1603
5854,1328
5855,1813
5856,1887
5857,1942
5858,1998
5859,1989
5860,1791
5861,1649
5862,1685
5863,1798
5864,1941
5865,2117
5866,2237
5867,2223
5868,2192
5869,2292
5870,2454
5871,2357
5872,1954
5873,1472
5874,1261
5875,1392
5876,1625
5877,1751
5878,1812
5879,1841
5880,1854
5881,1856
5882,1858
5883,1857
5884,2768
5885,1033
5886,1760
5887,1889
5888,1958
5889,1991
5890,1997
5891,1819
5892,1649
5893,1662
5894,1767
5895,1897
5896,2073
5897,2224
5898,2225
5899,2181
5900,2267
5901,2434
5902,2384
5903,2029
5904,1575
5905,1325
5906,1413
5907,1627
5908,1757
5909,1802
5910,1803
5911,1811
5912,1839
5913,1851
5914,1847
5915,2266
5916,879
5917,1718
5918,1878
5919,1936
5920,2002
5921,2015
5922,1840
5923,1641
5924,1614
5925,1715
5926,1890
5927,2070
5928,2207
5929,2224
5930,2176
5931,2245
5932,2414
5933,2414
5934,2080
5935,1608
5936,1317
5937,1363
5938,1593
5939,1735
5940,1803
5941,1837
5942,1857
5943,1870
5944,1867
5945,1866
5946,1863
5947,882
5948,1621
5949,1862
5950,1932
5951,1971
5952,1997
5953,1867
5954,1690
5955,1626
5956,1719
5957,1903
5958,2073
5959,2192
5960,2225
5961,2191
5962,2249
5963,2399
5964,2432
5965,2151
5966,1697
5967,1370
5968,1325
5969,1529
5970,1711
5971,1796
5972,1825
5973,1842
5974,1856
5975,1858
5976,1860
5977,1858
5978,1088
5979,1483
5980,1833
5981,1916
5982,1971
5983,2003
5984,1877
5985,1675
5986,1619
5987,1714
5988,1895
5989,2042
5990,2147
5991,2190
5992,2157
5993,2197
5994,2341
5995,2427
5996,2206
5997,1783
5998,1441
5999,1366
6000,1523
6001,1697
6002,1796
6003,1829
6004,1840
6005,1855
6006,1859
6007,1865
6008,1867
6009,1755
6010,1251
6011,1806
6012,1872
6013,1906
6014,1947
6015,1901
6016,1729
6017,1655
6018,1739
6019,1901
6020,2032
6021,2125
6022,2192
6023,2157
6024,2155
6025,2282
6026,2421
6027,2285
6028,1906
6029,1535
6030,1353
6031,1466
6032,1648
6033,1766
6034,1821
6035,1823
6036,1843
6037,1856
6038,1866
6039,1881
6040,2815
6041,1046
6042,1794
6043,1879
6044,1886
6045,1906
6046,1877
6047,1735
6048,1653
6049,1721
6050,1871
6051,2023
6052,2126
6053,2201
6054,2171
6055,2176
6056,2258
6057,2382
6058,2314
6059,1984
6060,1604
6061,1374
6062,1433
6063,1623
6064,1758
6065,1818
6066,1846
6067,1863
6068,1854
6069,1854
6070,1855
6071,2032
6072,807
6073,1698
6074,1847
6075,1858
6076,1875
6077,1914
6078,1785
6079,1678
6080,1707
6081,1857
6082,2014
6083,2107
6084,2177
6085,2167
6086,2155
6087,2224
6088,2368
6089,2377
6090,2107
6091,1712
6092,1429
6093,1408
6094,1564
6095,1708
6096,1792
6097,1831
6098,1846
6099,1851
6100,1862
6101,1862
6102,1870
6103,854
6104,1625
6105,1859
6106,1898
6107,1920
6108,1952
6109,1822
6110,1664
6111,1682
6112,1846
6113,2020
6114,2123
6115,2192
6116,2170
6117,2115
6118,2158
6119,2288
6120,2357
6121,2175
6122,1818
6123,1535
6124,1451
6125,1533
6126,1668
6127,1775
6128,1824
6129,1854
6130,1865
6131,1869
6132,1856
6133,1855
6134,1116
6135,1473
6136,1854
6137,1904
6138,1936
6139,1969
6140,1863
6141,1661
6142,1644
6143,1795
6144,1968
6145,2079
6146,2159
6147,2175
6148,2158
6149,2195
6150,2291
6151,2375
6152,2214
6153,1861
6154,1558
6155,1433
6156,1517
6157,1664
6158,1774
6159,1829
6160,1840
6161,1847
6162,1858
6163,1870
6164,1872
6165,1520
6166,1322
6167,1839
6168,1889
6169,1888
6170,1931
6171,1872
6172,1712
6173,1650
6174,1756
6175,1931
6176,2061
6177,2142
6178,2183
6179,2151
6180,2171
6181,2267
6182,2367
6183,2248
6184,1934
6185,1643
6186,1490
6187,1520
6188,1642
6189,1745
6190,1811
6191,1843
6192,1856
6193,1858
6194,1854
6195,1853
6196,2801
6197,975
6198,1779
6199,1883
6200,1893
6201,1919
6202,1920
6203,1769
6204,1655
6205,1723
6206,1902
6207,2046
6208,2130
6209,2180
6210,2146
6211,2139
6212,2217
6213,2336
6214,2271
6215,2020
6216,1718
6217,1535
6218,1530
6219,1630
6220,1730
6221,1802
6222,1821
6223,1837
6224,1855
6225,1867
6226,1872
6227,1865
6228,1845
6229,1837
6230,1840
6231,1850
6232,1857
6233,1857
6234,1856
6235,1857
6236,1846
6237,1845
6238,1846
6239,1846
6240,1855
6241,1862
6242,1872
6243,1872
6244,1879
6245,1885
6246,1879
6247,1872
6248,1860
6249,1843
6250,1847
6251,1856
6252,1871
6253,1878
6254,1881
6255,1874
6256,1857
6257,1849
6258,1851
6259,1867
6260,1874
6261,1890
6262,1890
6263,1877
6264,1866
6265,1853
6266,1842
6267,1842
6268,1845
6269,1849
6270,1856
6271,1859
6272,1867
6273,1877
6274,1883
6275,1892
6276,1886
6277,1884
6278,1863
6279,1840
6280,1840
6281,1858
6282,1868
6283,1870
6284,1870
6285,1871
6286,1873
6287,1872
6288,1863
6289,1859
6290,1850
6291,1856
6292,1866
6293,1859
6294,1847
6295,1850
6296,1849
6297,1839
6298,1840
6299,1840
6300,1853
6301,1855
6302,1856
6303,1854
6304,1850
6305,1851
6306,1851
6307,1849
6308,1849
6309,1852
6310,1853
6311,1849
6312,1849
6313,1847
6314,1845
6315,1851
6316,1845
6317,1854
6318,1857
6319,1856
6320,1845
6321,1847
6322,1849
6323,1844
6324,1843
6325,1846
6326,1851
6327,1852
6328,1855
6329,1851
6330,1854
6331,1854
6332,1858
6333,1858
6334,1853
6335,1859
6336,1870
6337,1870
6338,1869
6339,1872
6340,1869
6341,1867
6342,1868
6343,1867
6344,1870
6345,1871
6346,1871
6347,1869
6348,1863
6349,1865
6350,1866
6351,1867
6352,1863
6353,1861
6354,1847
6355,1840
6356,1840
6357,1846
6358,1841
6359,1845
6360,1840
6361,1843
6362,1840
6363,1835
6364,1837
6365,1835
6366,1835
6367,1840
6368,1839
6369,1840
6370,1840
6371,1842
6372,1843
6373,1840
6374,1842
6375,1847
6376,1840
6377,1839
6378,1841
6379,1850
6380,1852
6381,1849
6382,1851
6383,1856
6384,1847
6385,1849
6386,1843
6387,1840
6388,1846
6389,1850
6390,1853
6391,1849
6392,1852
6393,1851
6394,1850
6395,1849
6396,1846
6397,1849
6398,1847
6399,1845
6400,1846
6401,1853
6402,1855
6403,1853
6404,1845
6405,1840
6406,1840
6407,1840
6408,1842
6409,1847
6410,1851
6411,1846
6412,1843
6413,1835
6414,1824
6415,1825
6416,1827
6417,1826
6418,1831
6419,1830
6420,1834
6421,1839
6422,1842
6423,1843
6424,1845
6425,1840
6426,1838
6427,1838
6428,1840
6429,1841
6430,1843
6431,1849
6432,1851
6433,1847
6434,1853
6435,1854
6436,1851
6437,1852
6438,1853
6439,1856
6440,1857
6441,1859
6442,1859
6443,1857
6444,1846
6445,1843
6446,1840
6447,1845
6448,1847
6449,1845
6450,1847
6451,1845
6452,1861
6453,1861
6454,1857
6455,1854
6456,1855
6457,1856
6458,1857
6459,1859
6460,1857
6461,1856
6462,1851
6463,1856
6464,1860
6465,1856
6466,1855
6467,1853
6468,1852
6469,1853
6470,1856
6471,1855
6472,1856
6473,1856
6474,1847
6475,1847
6476,1854
6477,1853
6478,1853
6479,1855
6480,1855
6481,1856
6482,1857
6483,1856
6484,1857
6485,1856
6486,1856
6487,1855
6488,1854
6489,1850
6490,1855
6491,1856
6492,1856
6493,1855
6494,1853
6495,1853
6496,1850
6497,1850
6498,1850
6499,1851
6500,1850
6501,1854
6502,1853
6503,1854
6504,1843
6505,1843
6506,1843
6507,1842
6508,1847
6509,1847
6510,1850
6511,1850
6512,1850
6513,1847
6514,1850
6515,1847
6516,1847
6517,1850
6518,1851
6519,1853
6520,1853
6521,1853
6522,1855
6523,1855
6524,1850
6525,1845
6526,1849
6527,1851
6528,1845
6529,1840
6530,1840
6531,1845
6532,1851
6533,1846
6534,1841
6535,1841
6536,1845
6537,1852
6538,1850
6539,1841
6540,1840
6541,1841
6542,1851
6543,1854
6544,1853
6545,1853
6546,1853
6547,1855
6548,1855
6549,1855
6550,1853
6551,1851
6552,1853
6553,1856
6554,1856
6555,1856
6556,1855
6557,1855
6558,1855
6559,1857
6560,1859
6561,1858
6562,1859
6563,1856
6564,1853
6565,1853
6566,1854
6567,1855
6568,1858
6569,1857
6570,1858
6571,1859
6572,1859
6573,1858
6574,1862
6575,1861
6576,1861
6577,1858
6578,1858
6579,1859
6580,1858
6581,1857
6582,1859
6583,1859
6584,1858
6585,1859
6586,1856
6587,1858
6588,1857
6589,1857
6590,1857
6591,1858
6592,1857
6593,1856
6594,1851
6595,1850
6596,1853
6597,1855
6598,1851
6599,1855
6600,1856
6601,1860
6602,1857
6603,1858
6604,1856
6605,1859
6606,1857
6607,1855
6608,1856
6609,1853
6610,1850
6611,1855
6612,1855
6613,1849
6614,1853
6615,1854
6616,1857
6617,1859
6618,1853
6619,1856
6620,1851
6621,1850
6622,1853
6623,1855
6624,1853
6625,1855
6626,1853
6627,1854
6628,1853
6629,1851
6630,1852
6631,1852
6632,1851
6633,1856
6634,1857
6635,1859
6636,1863
6637,1862
6638,1860
6639,1859
6640,1858
6641,1859
6642,1862
6643,1861
6644,1862
6645,1861
6646,1862
6647,1860
6648,1862
6649,1864
6650,1866
6651,1862
6652,1861
6653,1861
6654,1857
6655,1856
6656,1856
6657,1855
6658,1857
6659,1864
6660,1861
6661,1862
6662,1860
6663,1861
6664,1863
6665,1861
6666,1861
6667,1862
6668,1862
6669,1865
6670,1862
6671,1863
6672,1866
6673,1863
6674,1864
6675,1862
6676,1862
6677,1862
6678,1857
6679,1857
6680,1858
6681,1859
6682,1860
6683,1859
6684,1856
6685,1854
6686,1855
6687,1856
6688,1855
6689,1862
6690,1860
6691,1861
6692,1859
6693,1859
6694,1859
6695,1858
6696,1859
6697,1859
6698,1859
6699,1858
6700,1860
6701,1859
6702,1860
6703,1859
6704,1856
6705,1859
6706,1859
6707,1858
6708,1861
6709,1858
6710,1858
6711,1859
6712,1859
6713,1862
6714,1856
6715,1856
6716,1856
6717,1856
6718,1855
6719,1856
6720,1856
6721,1857
6722,1859
6723,1862
6724,1859
6725,1859
6726,1860
6727,1863
6728,1861
6729,1866
6730,1862
6731,1862
6732,1863
6733,1863
6734,1862
6735,1863
6736,1862
6737,1863
6738,1863
6739,1863
6740,1866
6741,1866
6742,1867
6743,1866
6744,1861
6745,1859
6746,1857
6747,1855
6748,1851
6749,1847
6750,1853
6751,1853
6752,1862
6753,1862
6754,1863
6755,1865
6756,1865
6757,1861
6758,1863
6759,1862
6760,1861
6761,1860
6762,1861
6763,1864
6764,1865
6765,1865
6766,1865
6767,1862
6768,1861
6769,1862
6770,1864
6771,1863
6772,1862
6773,1861
6774,1854
6775,1855
6776,1856
6777,1856
6778,1856
6779,1860
6780,1861
6781,1858
6782,1860
6783,1859
6784,1858
6785,1859
6786,1857
6787,1861
6788,1860
6789,1861
6790,1860
6791,1860
6792,1860
6793,1859
6794,1860
6795,1859
6796,1861
6797,1860
6798,1859
6799,1861
6800,1859
6801,1862
6802,1859
6803,1857
6804,1854
6805,1854
6806,1854
6807,1852
6808,1842
6809,1857
6810,1858
6811,1859
6812,1857
6813,1856
6814,1855
6815,1856
6816,1856
6817,1857
6818,1855
6819,1859
6820,1861
6821,1863
6822,1866
6823,1861
6824,1859
6825,1853
6826,1850
6827,1855
6828,1857
6829,1856
6830,1859
6831,1857
6832,1861
6833,1862
6834,1857
6835,1855
6836,1856
6837,1858
6838,1856
6839,1856
6840,1855
6841,1852
6842,1858
6843,1856
6844,1858
6845,1861
6846,1859
6847,1859
6848,1859
6849,1857
6850,1859
6851,1858
6852,1858
6853,1859
6854,1859
6855,1858
6856,1857
6857,1858
6858,1858
6859,1859
6860,1861
6861,1861
6862,1859
6863,1859
6864,1853
6865,1856
6866,1857
6867,1852
6868,1854
6869,1858
6870,1858
6871,1861
6872,1861
6873,1862
6874,1862
6875,1860
6876,1861
6877,1861
6878,1858
6879,1862
6880,1861
6881,1861
6882,1856
6883,1857
6884,1861
6885,1863
6886,1863
6887,1861
6888,1861
6889,1862
6890,1859
6891,1860
6892,1859
6893,1859
6894,1855
6895,1857
6896,1857
6897,1854
6898,1855
6899,1863
6900,1866
6901,1863
6902,1865
6903,1865
6904,1865
6905,1862
6906,1860
6907,1862
6908,1863
6909,1861
6910,1861
6911,1861
6912,1862
6913,1861
6914,1860
6915,1861
6916,1860
6917,1861
6918,1861
6919,1859
6920,1857
6921,1858
6922,1857
6923,1854
6924,1851
6925,1851
6926,1855
6927,1854
6928,1854
6929,1850
6930,1854
6931,1850
6932,1862
6933,1862
6934,1863
6935,1861
6936,1862
6937,1860
6938,1861
6939,1859
6940,1860
6941,1863
6942,1862
6943,1862
6944,1863
6945,1861
6946,1859
6947,1863
6948,1859
6949,1863
6950,1861
6951,1863
6952,1859
6953,1860
6954,1854
6955,1854
6956,1855
6957,1854
6958,1855
6959,1861
6960,1862
6961,1861
6962,1862
6963,1859
6964,1862
6965,1858
6966,1856
6967,1856
6968,1857
6969,1859
6970,1862
6971,1860
6972,1861
6973,1861
6974,1860
6975,1861
6976,1860
6977,1859
6978,1861
6979,1862
6980,1863
6981,1862
6982,1859
6983,1859
6984,1854
6985,1856
6986,1856
6987,1856
6988,1856
6989,1861
6990,1863
6991,1859
6992,1858
6993,1859
6994,1861
6995,1861
6996,1861
6997,1864
6998,1862
6999,1863
7000,1862
7001,1861
7002,1861
7003,1861
7004,1862
7005,1861
7006,1866
7007,1864
7008,1861
7009,1862
7010,1859
7011,1860
7012,1861
7013,1863
7014,1856
7015,1855
7016,1855
7017,1855
7018,1862
7019,1865
7020,1861
7021,1863
7022,1859
7023,1863
7024,1863
7025,1859
7026,1862
7027,1861
7028,1866
7029,1866
7030,1863
7031,1862
7032,1862
7033,1861
7034,1861
7035,1859
7036,1861
7037,1862
7038,1861
7039,1865
7040,1861
7041,1861
7042,1863
7043,1861
7044,1856
7045,1855
7046,1856
7047,1855
7048,1858
7049,1855
7050,1855
7051,1853
7052,1862
7053,1861
7054,1865
7055,1860
7056,1862
7057,1865
7058,1861
7059,1862
7060,1862
7061,1863
7062,1860
7063,1861
7064,1859
7065,1861
7066,1861
7067,1861
7068,1863
7069,1862
7070,1863
7071,1860
7072,1863
7073,1865
7074,1857
7075,1858
7076,1859
7077,1857
7078,1856
7079,1862
7080,1857
7081,1862
7082,1861
7083,1862
7084,1863
7085,1865
7086,1863
7087,1863
7088,1862
7089,1861
7090,1864
7091,1865
7092,1865
7093,1863
7094,1863
7095,1863
7096,1863
7097,1859
7098,1863
7099,1862
7100,1866
7101,1866
7102,1863
7103,1866
7104,1857
7105,1856
7106,1855
7107,1858
7108,1855
7109,1866
7110,1861
7111,1861
7112,1859
7113,1860
7114,1861
7115,1861
7116,1859
7117,1861
7118,1856
7119,1863
7120,1862
7121,1861
7122,1866
7123,1862
7124,1862
7125,1866
7126,1862
7127,1863
7128,1865
7129,1861
7130,1863
7131,1863
7132,1863
7133,1865
7134,1856
7135,1858
7136,1857
7137,1856
7138,1856
7139,1852
7140,1854
7141,1854
7142,1866
7143,1862
7144,1866
7145,1863
7146,1863
7147,1866
7148,1866
7149,1865
7150,1866
7151,1862
7152,1862
7153,1863
7154,1861
7155,1863
7156,1863
7157,1862
7158,1863
7159,1863
7160,1865
7161,1862
7162,1863
7163,1866
7164,1860
7165,1856
7166,1859
7167,1857
7168,1856
7169,1862
7170,1859
7171,1861
7172,1862
7173,1863
7174,1862
7175,1860
7176,1859
7177,1861
7178,1862
7179,1861
7180,1859
7181,1863
7182,1862
7183,1859
7184,1864
7185,1863
7186,1861
7187,1862
7188,1861
7189,1861
7190,1861
7191,1861
7192,1862
7193,1861
7194,1855
7195,1855
7196,1856
7197,1855
7198,1855
7199,1861
7200,1861
7201,1860
7202,1861
7203,1861
7204,1858
7205,1860
7206,1860
7207,1858
7208,1858
7209,1859
7210,1859
7211,1861
7212,1860
7213,1861
7214,1858
7215,1862
7216,1861
7217,1862
7218,1856
7219,1859
7220,1854
7221,1856
7222,1855
7223,1856
7224,1856
7225,2151
7226,1178
7227,1657
7228,1824
7229,1855
7230,1872
7231,1871
7232,1879
7233,1908
7234,1920
7235,1814
7236,1718
7237,1760
7238,1829
7239,1904
7240,2006
7241,2122
7242,2199
7243,2239
7244,2273
7245,2358
7246,2461
7247,2451
7248,2206
7249,1822
7250,1440
7251,1179
7252,1168
7253,1360
7254,1594
7255,1715
7256,1777
7257,1272
7258,1511
7259,1784
7260,1874
7261,1936
7262,1936
7263,1927
7264,1934
7265,1862
7266,1689
7267,1689
7268,1791
7269,1899
7270,2010
7271,2128
7272,2207
7273,2229
7274,2256
7275,2354
7276,2445
7277,2416
7278,2125
7279,1674
7280,1255
7281,1088
7282,1222
7283,1510
7284,1702
7285,1790
7286,1840
7287,1858
7288,1581
7289,1417
7290,1791
7291,1837
7292,1870
7293,1882
7294,1895
7295,1917
7296,1842
7297,1767
7298,1808
7299,1898
7300,2000
7301,2101
7302,2179
7303,2239
7304,2274
7305,2372
7306,2497
7307,2534
7308,2273
7309,1774
7310,1283
7311,1075
7312,1203
7313,1506
7314,1705
7315,1799
7316,1843
7317,1862
7318,1869
7319,1857
7320,1307
7321,1776
7322,1835
7323,1883
7324,1904
7325,1917
7326,1902
7327,1782
7328,1742
7329,1808
7330,1911
7331,2026
7332,2134
7333,2219
7334,2255
7335,2318
7336,2451
7337,2559
7338,2406
7339,1942
7340,1408
7341,1084
7342,1136
7343,1435
7344,1675
7345,1791
7346,1837
7347,1853
7348,1862
7349,1864
7350,2651
7351,1155
7352,1744
7353,1819
7354,1872
7355,1916
7356,1934
7357,1908
7358,1776
7359,1744
7360,1809
7361,1920
7362,2047
7363,2160
7364,2241
7365,2277
7366,2347
7367,2462
7368,2537
7369,2322
7370,1807
7371,1294
7372,1076
7373,1245
7374,1535
7375,1712
7376,1793
7377,1826
7378,1840
7379,1860
7380,1865
7381,1973
7382,1104
7383,1678
7384,1808
7385,1855
7386,1897
7387,1919
7388,1895
7389,1744
7390,1730
7391,1797
7392,1919
7393,2064
7394,2189
7395,2272
7396,2281
7397,2325
7398,2443
7399,2526
7400,2279
7401,1749
7402,1264
7403,1109
7404,1308
7405,1600
7406,1749
7407,1808
7408,1831
7409,1846
7410,1856
7411,1859
7412,1866
7413,1156
7414,1616
7415,1812
7416,1840
7417,1862
7418,1883
7419,1867
7420,1738
7421,1715
7422,1783
7423,1911
7424,2062
7425,2179
7426,2268
7427,2274
7428,2306
7429,2434
7430,2507
7431,2256
7432,1744
7433,1255
7434,1119
7435,1344
7436,1613
7437,1745
7438,1814
7439,1836
7440,1850
7441,1851
7442,1856
7443,1866
7444,1457
7445,1451
7446,1808
7447,1825
7448,1877
7449,1931
7450,1919
7451,1771
7452,1693
7453,1748
7454,1867
7455,2015
7456,2156
7457,2250
7458,2235
7459,2247
7460,2367
7461,2496
7462,2322
7463,1874
7464,1395
7465,1214
7466,1364
7467,1603
7468,1746
7469,1797
7470,1791
7471,1806
7472,1838
7473,1854
7474,1863
7475,1974
7476,1255
7477,1776
7478,1839
7479,1901
7480,1943
7481,1954
7482,1808
7483,1692
7484,1738
7485,1856
7486,1986
7487,2119
7488,2226
7489,2211
7490,2210
7491,2306
7492,2465
7493,2386
7494,1981
7495,1510
7496,1248
7497,1325
7498,1568
7499,1730
7500,1810
7501,1847
7502,1866
7503,1871
7504,1872
7505,1867
7506,2825
7507,1068
7508,1728
7509,1817
7510,1875
7511,1936
7512,1957
7513,1798
7514,1667
7515,1707
7516,1819
7517,1953
7518,2112
7519,2221
7520,2205
7521,2182
7522,2260
7523,2413
7524,2362
7525,2011
7526,1534
7527,1262
7528,1297
7529,1519
7530,1691
7531,1781
7532,1833
7533,1853
7534,1858
7535,1859
7536,1863
7537,1973
7538,1023
7539,1680
7540,1831
7541,1872
7542,1934
7543,1977
7544,1825
7545,1666
7546,1687
7547,1806
7548,1968
7549,2127
7550,2250
7551,2257
7552,2218
7553,2264
7554,2386
7555,2379
7556,2075
7557,1633
7558,1332
7559,1314
7560,1503
7561,1681
7562,1782
7563,1825
7564,1856
7565,1872
7566,1882
7567,1885
7568,1863
7569,1078
7570,1612
7571,1808
7572,1840
7573,1883
7574,1952
7575,1845
7576,1700
7577,1698
7578,1792
7579,1936
7580,2104
7581,2226
7582,2245
7583,2207
7584,2235
7585,2365
7586,2416
7587,2170
7588,1745
7589,1408
7590,1302
7591,1449
7592,1633
7593,1757
7594,1804
7595,1813
7596,1840
7597,1856
7598,1871
7599,1883
7600,1299
7601,1505
7602,1826
7603,1853
7604,1863
7605,1894
7606,1812
7607,1713
7608,1724
7609,1805
7610,1934
7611,2084
7612,2199
7613,2250
7614,2197
7615,2209
7616,2323
7617,2415
7618,2257
7619,1840
7620,1474
7621,1333
7622,1424
7623,1610
7624,1742
7625,1812
7626,1838
7627,1849
7628,1863
7629,1869
7630,1867
7631,1914
7632,1266
7633,1799
7634,1858
7635,1882
7636,1935
7637,1903
7638,1762
7639,1719
7640,1753
7641,1872
7642,2013
7643,2127
7644,2209
7645,2187
7646,2198
7647,2293
7648,2420
7649,2332
7650,1982
7651,1599
7652,1370
7653,1366
7654,1530
7655,1683
7656,1785
7657,1835
7658,1856
7659,1865
7660,1864
7661,1860
7662,2823
7663,1040
7664,1755
7665,1847
7666,1862
7667,1904
7668,1920
7669,1789
7670,1722
7671,1766
7672,1863
7673,1985
7674,2107
7675,2207
7676,2180
7677,2166
7678,2237
7679,2369
7680,2350
7681,2077
7682,1701
7683,1452
7684,1393
7685,1505
7686,1667
7687,1774
7688,1826
7689,1843
7690,1856
7691,1857
7692,1857
7693,1967
7694,913
7695,1722
7696,1849
7697,1870
7698,1911
7699,1936
7700,1771
7701,1664
7702,1712
7703,1828
7704,1969
7705,2096
7706,2195
7707,2189
7708,2138
7709,2181
7710,2311
7711,2363
7712,2160
7713,1803
7714,1527
7715,1425
7716,1486
7717,1623
7718,1731
7719,1804
7720,1829
7721,1845
7722,1857
7723,1861
7724,1866
7725,1006
7726,1603
7727,1839
7728,1860
7729,1882
7730,1949
7731,1841
7732,1724
7733,1713
7734,1787
7735,1926
7736,2080
7737,2183
7738,2191
7739,2128
7740,2147
7741,2262
7742,2350
7743,2223
7744,1907
7745,1617
7746,1455
7747,1469
7748,1594
7749,1707
7750,1786
7751,1836
7752,1857
7753,1856
7754,1847
7755,1863
7756,1287
7757,1435
7758,1811
7759,1866
7760,1893
7761,1950
7762,1850
7763,1705
7764,1680
7765,1763
7766,1902
7767,2038
7768,2161
7769,2209
7770,2163
7771,2173
7772,2272
7773,2373
7774,2259
7775,1984
7776,1675
7777,1483
7778,1449
7779,1535
7780,1681
7781,1789
7782,1839
7783,1853
7784,1859
7785,1857
7786,1855
7787,1862
7788,1259
7789,1807
7790,1845
7791,1854
7792,1915
7793,1890
7794,1746
7795,1712
7796,1769
7797,1899
7798,2047
7799,2159
7800,2193
7801,2171
7802,2160
7803,2224
7804,2310
7805,2288
7806,2083
7807,1773
7808,1535
7809,1471
7810,1531
7811,1648
7812,1728
7813,1792
7814,1837
7815,1853
7816,1856
7817,1858
7818,2751
7819,1045
7820,1758
7821,1846
7822,1872
7823,1925
7824,1934
7825,1775
7826,1682
7827,1727
7828,1859
7829,2015
7830,2107
7831,2176
7832,2143
7833,2123
7834,2190
7835,2304
7836,2304
7837,2127
7838,1856
7839,1634
7840,1503
7841,1504
7842,1613
7843,1716
7844,1787
7845,1827
7846,1852
7847,1862
7848,1867
7849,1866
7850,1857
7851,1851
7852,1855
7853,1859
7854,1857
7855,1859
7856,1858
7857,1861
7858,1867
7859,1862
7860,1866
7861,1862
7862,1869
7863,1873
7864,1875
7865,1881
7866,1872
7867,1870
7868,1857
7869,1857
7870,1855
7871,1844
7872,1842
7873,1858
7874,1870
7875,1874
7876,1878
7877,1873
7878,1872
7879,1872
7880,1871
7881,1856
7882,1860
7883,1873
7884,1856
7885,1854
7886,1846
7887,1845
7888,1856
7889,1863
7890,1877
7891,1882
7892,1886
7893,1875
7894,1863
7895,1865
7896,1859
7897,1845
7898,1850
7899,1856
7900,1871
7901,1863
7902,1861
7903,1862
7904,1868
7905,1867
7906,1863
7907,1868
7908,1872
7909,1872
7910,1863
7911,1861
7912,1870
7913,1868
7914,1856
7915,1854
7916,1847
7917,1841
7918,1850
7919,1858
7920,1851
7921,1861
7922,1853
7923,1849
7924,1844
7925,1844
7926,1844
7927,1847
7928,1851
7929,1853
7930,1851
7931,1853
7932,1855
7933,1857
7934,1862
7935,1866
7936,1859
7937,1856
7938,1843
7939,1838
7940,1833
7941,1840
7942,1847
7943,1854
7944,1856
7945,1867
7946,1872
7947,1866
7948,1859
7949,1846
7950,1829
7951,1828
7952,1846
7953,1856
7954,1857
7955,1856
7956,1856
7957,1850
7958,1841
7959,1840
7960,1848
7961,1856
7962,1851
7963,1846
7964,1844
7965,1854
7966,1862
7967,1856
7968,1851
7969,1840
7970,1810
7971,1818
7972,1825
7973,1830
7974,1829
7975,1830
7976,1826
7977,1825
7978,1834
7979,1831
7980,1830
7981,1830
7982,1835
7983,1837
7984,1837
7985,1839
7986,1840
7987,1840
7988,1841
7989,1843
7990,1843
7991,1843
7992,1846
7993,1851
7994,1854
7995,1851
7996,1853
7997,1851
7998,1855
7999,1855
8000,1856
8001,1856
8002,1856
8003,1859
8004,1851
8005,1855
8006,1851
8007,1847
8008,1847
8009,1846
8010,1844
8011,1849
8012,1852
8013,1843
8014,1840
8015,1841
8016,1841
8017,1833
8018,1840
8019,1841
8020,1837
8021,1826
8022,1823
8023,1824
8024,1827
8025,1838
8026,1841
8027,1840
8028,1841
8029,1841
8030,1835
8031,1826
8032,1837
8033,1841
8034,1840
8035,1840
8036,1843
8037,1847
8038,1847
8039,1846
8040,1849
8041,1852
8042,1859
8043,1862
8044,1862
8045,1861
8046,1859
8047,1860
8048,1863
8049,1869
8050,1869
8051,1869
8052,1871
8053,1871
8054,1872
8055,1872
8056,1873
8057,1872
8058,1875
8059,1874
8060,1872
8061,1877
8062,1878
8063,1879
8064,1875
8065,1872
8066,1869
8067,1861
8068,1866
8069,1874
8070,1875
8071,1874
8072,1874
8073,1875
8074,1874
8075,1878
8076,1875
8077,1874
8078,1878
8079,1875
8080,1875
8081,1873
8082,1872
8083,1873
8084,1872
8085,1872
8086,1872
8087,1872
8088,1873
8089,1874
8090,1874
8091,1872
8092,1869
8093,1870
8094,1863
8095,1866
8096,1866
8097,1862
8098,1857
8099,1868
8100,1868
8101,1862
8102,1861
8103,1857
8104,1858
8105,1859
8106,1859
8107,1858
8108,1855
8109,1853
8110,1855
8111,1854
8112,1854
8113,1853
8114,1856
8115,1851
8116,1851
8117,1840
8118,1841
8119,1834
8120,1834
8121,1839
8122,1838
8123,1840
8124,1841
8125,1843
8126,1843
8127,1843
8128,1842
8129,1834
8130,1830
8131,1835
8132,1843
8133,1849
8134,1845
8135,1845
8136,1841
8137,1842
8138,1845
8139,1846
8140,1847
8141,1845
8142,1846
8143,1846
8144,1849
8145,1855
8146,1853
8147,1853
8148,1851
8149,1847
8150,1845
8151,1852
8152,1855
8153,1856
8154,1843
8155,1845
8156,1851
8157,1850
8158,1851
8159,1857
8160,1856
8161,1854
8162,1850
8163,1851
8164,1856
8165,1861
8166,1859
8167,1856
8168,1846
8169,1843
8170,1851
8171,1855
8172,1856
8173,1859
8174,1856
8175,1858
8176,1857
8177,1861
8178,1858
8179,1856
8180,1856
8181,1863
8182,1858
8183,1857
8184,1851
8185,1855
8186,1856
8187,1850
8188,1851
8189,1858
8190,1860
8191,1858
8192,1859
8193,1864
8194,1859
8195,1859
8196,1858
8197,1859
8198,1859
8199,1859
8200,1858
8201,1858
8202,1859
8203,1862
8204,1858
8205,1856
8206,1857
8207,1858
8208,1858
8209,1855
8210,1855
8211,1857
8212,1858
8213,1856
8214,1850
8215,1851
8216,1850
8217,1849
8218,1851
8219,1843
8220,1855
8221,1855
8222,1855
8223,1857
8224,1861
8225,1863
8226,1862
8227,1857
8228,1855
8229,1852
8230,1847
8231,1853
8232,1856
8233,1856
8234,1856
8235,1859
8236,1858
8237,1856
8238,1857
8239,1859
8240,1857
8241,1859
8242,1859
8243,1863
8244,1856
8245,1856
8246,1855
8247,1853
8248,1851
8249,1845
8250,1861
8251,1863
8252,1862
8253,1862
8254,1859
8255,1859
8256,1859
8257,1862
8258,1863
8259,1860
8260,1862
8261,1861
8262,1862
8263,1859
8264,1863
8265,1870
8266,1869
8267,1866
8268,1863
8269,1867
8270,1867
8271,1858
8272,1861
8273,1862
8274,1856
8275,1858
8276,1859
8277,1857
8278,1859
8279,1867
8280,1869
8281,1872
8282,1871
8283,1872
8284,1869
8285,1861
8286,1847
8287,1853
8288,1859
8289,1862
8290,1865
8291,1866
8292,1859
8293,1862
8294,1862
8295,1867
8296,1861
8297,1859
8298,1857
8299,1858
8300,1857
8301,1859
8302,1859
8303,1863
8304,1857
8305,1858
8306,1861
8307,1856
8308,1851
8309,1859
8310,1857
8311,1859
8312,1859
8313,1858
8314,1857
8315,1857
8316,1859
8317,1856
8318,1854
8319,1861
8320,1864
8321,1859
8322,1859
8323,1859
8324,1861
8325,1856
8326,1858
8327,1860
8328,1861
8329,1862
8330,1861
8331,1863
8332,1863
8333,1859
8334,1852
8335,1854
8336,1855
8337,1856
8338,1856
8339,1856
8340,1861
8341,1861
8342,1864
8343,1867
8344,1872
8345,1871
8346,1872
8347,1862
8348,1850
8349,1853
8350,1855
8351,1861
8352,1862
8353,1863
8354,1863
8355,1863
8356,1862
8357,1863
8358,1869
8359,1864
8360,1865
8361,1864
8362,1862
8363,1867
8364,1856
8365,1856
8366,1858
8367,1856
8368,1859
8369,1855
8370,1856
8371,1855
8372,1863
8373,1865
8374,1865
8375,1866
8376,1862
8377,1861
8378,1860
8379,1861
8380,1866
8381,1864
8382,1865
8383,1863
8384,1863
8385,1865
8386,1861
8387,1863
8388,1861
8389,1861
8390,1858
8391,1860
8392,1865
8393,1864
8394,1856
8395,1856
8396,1856
8397,1856
8398,1856
8399,1865
8400,1866
8401,1861
8402,1863
8403,1865
8404,1866
8405,1865
8406,1867
8407,1866
8408,1861
8409,1856
8410,1855
8411,1859
8412,1858
8413,1857
8414,1860
8415,1863
8416,1866
8417,1859
8418,1855
8419,1860
8420,1854
8421,1855
8422,1854
8423,1855
8424,1857
8425,1856
8426,1855
8427,1856
8428,1856
8429,1851
8430,1857
8431,1855
8432,1863
8433,1861
8434,1861
8435,1862
8436,1863
8437,1862
8438,1860
8439,1860
8440,1861
8441,1861
8442,1865
8443,1867
8444,1868
8445,1869
8446,1865
8447,1857
8448,1855
8449,1856
8450,1861
8451,1861
8452,1861
8453,1865
8454,1858
8455,1856
8456,1856
8457,1856
8458,1845
8459,1865
8460,1862
8461,1863
8462,1863
8463,1860
8464,1860
8465,1862
8466,1862
8467,1865
8468,1866
8469,1861
8470,1859
8471,1862
8472,1859
8473,1860
8474,1861
8475,1859
8476,1860
8477,1860
8478,1859
8479,1859
8480,1860
8481,1857
8482,1857
8483,1858
8484,1856
8485,1857
8486,1856
8487,1854
8488,1856
8489,1863
8490,1865
8491,1864
8492,1862
8493,1866
8494,1868
8495,1867
8496,1867
8497,1863
8498,1852
8499,1846
8500,1854
8501,1857
8502,1861
8503,1859
8504,1860
8505,1859
8506,1861
8507,1857
8508,1860
8509,1860
8510,1857
8511,1859
8512,1858
8513,1861
8514,1854
8515,1853
8516,1856
8517,1856
8518,1856
8519,1853
8520,1860
8521,1859
8522,1861
8523,1859
8524,1862
8525,1859
8526,1862
8527,1863
8528,1861
8529,1863
8530,1862
8531,1860
8532,1862
8533,1866
8534,1863
8535,1861
8536,1865
8537,1862
8538,1862
8539,1861
8540,1865
8541,1865
8542,1866
8543,1859
8544,1856
8545,1856
8546,1856
8547,1858
8548,1856
8549,1856
8550,1863
8551,1863
8552,1861
8553,1862
8554,1862
8555,1861
8556,1861
8557,1863
8558,1861
8559,1859
8560,1863
8561,1863
8562,1866
8563,1865
8564,1867
8565,1857
8566,1854
8567,1859
8568,1863
8569,1869
8570,1869
8571,1866
8572,1858
8573,1856
8574,1851
8575,1853
8576,1855
8577,1856
8578,1857
8579,1859
8580,1859
8581,1863
8582,1863
8583,1865
8584,1860
8585,1858
8586,1860
8587,1861
8588,1866
8589,1865
8590,1862
8591,1860
8592,1863
8593,1860
8594,1857
8595,1861
8596,1858
8597,1859
8598,1861
8599,1862
8600,1865
8601,1861
8602,1859
8603,1863
8604,1851
8605,1856
8606,1855
8607,1856
8608,1855
8609,1858
8610,1859
8611,1859
8612,1861
8613,1861
8614,1862
8615,1862
8616,1861
8617,1862
8618,1846
8619,1858
8620,1855
8621,1861
8622,1865
8623,1862
8624,1861
8625,1861
8626,1861
8627,1861
8628,1862
8629,1862
8630,1866
8631,1863
8632,1861
8633,1860
8634,1853
8635,1856
8636,1859
8637,1859
8638,1856
8639,1846
8640,1845
8641,1856
8642,1853
8643,1858
8644,1860
8645,1861
8646,1865
8647,1863
8648,1862
8649,1863
8650,1866
8651,1866
8652,1863
8653,1859
8654,1856
8655,1856
8656,1856
8657,1860
8658,1864
8659,1863
8660,1862
8661,1862
8662,1862
8663,1860
8664,1857
8665,1855
8666,1854
8667,1856
8668,1842
8669,1861
8670,1862
8671,1862
8672,1859
8673,1863
8674,1861
8675,1859
8676,1861
8677,1862
8678,1862
8679,1863
8680,1861
8681,1861
8682,1862
8683,1858
8684,1863
8685,1861
8686,1862
8687,1863
8688,1862
8689,1860
8690,1862
8691,1863
8692,1860
8693,1859
8694,1856
8695,1856
8696,1856
8697,1857
8698,1855
8699,1858
8700,1860
8701,1859
8702,1859
8703,1859
8704,1858
8705,1860
8706,1862
8707,1859
8708,1859
8709,1862
8710,1860
8711,1863
8712,1859
8713,1860
8714,1863
8715,1861
8716,1861
8717,1859
8718,1863
8719,1861
8720,1857
8721,1857
8722,1861
8723,1856
8724,1854
8725,1850
8726,1846
8727,1854
8728,1853
8729,1852
8730,1855
8731,1855
8732,1861
8733,1862
8734,1862
8735,1862
8736,1862
8737,1862
8738,1864
8739,1862
8740,1863
8741,1861
8742,1860
8743,1861
8744,1866
8745,1863
8746,1862
8747,1863
8748,1860
8749,1863
8750,1866
8751,1866
8752,1869
8753,1866
8754,1853
8755,1843
8756,1851
8757,1855
8758,1853
8759,1861
8760,1861
8761,1865
8762,1862
8763,1866
8764,1863
8765,1863
8766,1861
8767,1862
8768,1861
8769,1861
8770,1865
8771,1866
8772,1863
8773,1863
8774,1864
8775,1862
8776,1863
8777,1861
8778,1861
8779,1859
8780,1861
8781,1863
8782,1862
8783,1865
8784,1855
8785,1856
8786,1856
8787,1858
8788,1860
8789,1867
8790,1863
8791,1857
8792,1857
8793,1857
8794,1859
8795,1856
8796,1858
8797,1859
8798,1863
8799,1863
8800,1863
8801,1863
8802,1862
8803,1865
8804,1865
8805,1863
8806,1863
8807,1866
8808,1862
8809,1859
8810,1861
8811,1862
8812,1866
8813,1865
8814,1857
8815,1851
8816,1841
8817,1853
8818,1856
8819,1853
8820,1863
8821,1866
8822,1862
8823,1859
8824,1861
8825,1862
8826,1862
8827,1863
8828,1862
8829,1865
8830,1863
8831,1861
8832,1862
8833,1863
8834,1863
8835,1862
8836,1863
8837,1863
8838,1862
8839,1861
8840,1862
8841,1862
8842,1863
8843,1866
8844,1857
8845,1856
8846,1857
8847,2111
8848,1245
8849,1647
8850,1834
8851,1929
8852,1977
8853,1971
8854,1949
8855,1938
8856,1905
8857,1695
8858,1601
8859,1692
8860,1799
8861,1900
8862,2015
8863,2131
8864,2206
8865,2239
8866,2265
8867,2358
8868,2461
8869,2419
8870,2134
8871,1760
8872,1392
8873,1179
8874,1189
8875,1392
8876,1613
8877,1729
8878,1793
8879,1332
8880,1523
8881,1806
8882,1930
8883,2032
8884,2031
8885,1999
8886,1967
8887,1811
8888,1523
8889,1577
8890,1744
8891,1899
8892,2047
8893,2173
8894,2242
8895,2239
8896,2229
8897,2320
8898,2437
8899,2373
8900,2032
8901,1582
8902,1215
8903,1094
8904,1258
8905,1535
8906,1718
8907,1805
8908,1840
8909,1871
8910,1569
8911,1429
8912,1788
8913,1851
8914,1923
8915,1940
8916,1941
8917,1936
8918,1759
8919,1661
8920,1741
8921,1865
8922,2000
8923,2131
8924,2224
8925,2270
8926,2278
8927,2376
8928,2501
8929,2494
8930,2176
8931,1664
8932,1217
8933,1088
8934,1275
8935,1555
8936,1727
8937,1813
8938,1857
8939,1874
8940,1882
8941,1946
8942,1310
8943,1786
8944,1860
8945,1962
8946,1995
8947,1972
8948,1898
8949,1702
8950,1666
8951,1769
8952,1910
8953,2065
8954,2165
8955,2243
8956,2272
8957,2323
8958,2449
8959,2546
8960,2375
8961,1902
8962,1373
8963,1094
8964,1171
8965,1462
8966,1686
8967,1793
8968,1840
8969,1872
8970,1879
8971,1887
8972,2438
8973,1203
8974,1767
8975,1835
8976,1899
8977,1931
8978,1939
8979,1904
8980,1747
8981,1727
8982,1821
8983,1963
8984,2112
8985,2224
8986,2288
8987,2274
8988,2331
8989,2455
8990,2512
8991,2277
8992,1763
8993,1277
8994,1104
8995,1299
8996,1584
8997,1744
8998,1823
8999,1865
9000,1879
9001,1886
9002,1884
9003,2119
9004,1067
9005,1702
9006,1840
9007,1877
9008,1937
9009,1968
9010,1946
9011,1759
9012,1659
9013,1734
9014,1897
9015,2063
9016,2194
9017,2251
9018,2244
9019,2286
9020,2413
9021,2481
9022,2256
9023,1776
9024,1322
9025,1181
9026,1355
9027,1615
9028,1744
9029,1802
9030,1835
9031,1857
9032,1872
9033,1872
9034,1874
9035,1121
9036,1616
9037,1824
9038,1872
9039,1936
9040,1978
9041,1939
9042,1747
9043,1660
9044,1734
9045,1897
9046,2041
9047,2184
9048,2256
9049,2227
9050,2259
9051,2395
9052,2484
9053,2278
9054,1783
9055,1341
9056,1186
9057,1355
9058,1600
9059,1754
9060,1813
9061,1843
9062,1861
9063,1867
9064,1867
9065,1869
9066,1335
9067,1470
9068,1808
9069,1849
9070,1891
9071,1933
9072,1933
9073,1770
9074,1680
9075,1742
9076,1871
9077,2015
9078,2182
9079,2282
9080,2245
9081,2228
9082,2334
9083,2445
9084,2262
9085,1837
9086,1425
9087,1269
9088,1389
9089,1603
9090,1744
9091,1807
9092,1839
9093,1856
9094,1861
9095,1868
9096,1869
9097,1808
9098,1277
9099,1786
9100,1854
9101,1882
9102,1921
9103,1958
9104,1802
9105,1681
9106,1719
9107,1835
9108,2000
9109,2171
9110,2265
9111,2224
9112,2192
9113,2267
9114,2371
9115,2282
9116,1921
9117,1535
9118,1322
9119,1375
9120,1575
9121,1712
9122,1792
9123,1826
9124,1843
9125,1856
9126,1865
9127,1867
9128,2447
9129,1121
9130,1776
9131,1870
9132,1894
9133,1923
9134,1968
9135,1786
9136,1643
9137,1652
9138,1776
9139,1947
9140,2127
9141,2238
9142,2214
9143,2191
9144,2254
9145,2371
9146,2329
9147,2026
9148,1637
9149,1390
9150,1395
9151,1563
9152,1693
9153,1777
9154,1825
9155,1851
9156,1857
9157,1862
9158,1865
9159,2093
9160,943
9161,1683
9162,1862
9163,1925
9164,1962
9165,2007
9166,1844
9167,1651
9168,1618
9169,1733
9170,1911
9171,2096
9172,2221
9173,2225
9174,2183
9175,2224
9176,2342
9177,2357
9178,2110
9179,1741
9180,1458
9181,1393
9182,1514
9183,1669
9184,1776
9185,1823
9186,1835
9187,1847
9188,1860
9189,1871
9190,1870
9191,1023
9192,1591
9193,1850
9194,1918
9195,1959
9196,2010
9197,1861
9198,1655
9199,1598
9200,1705
9201,1897
9202,2083
9203,2201
9204,2209
9205,2175
9206,2192
9207,2290
9208,2351
9209,2177
9210,1840
9211,1535
9212,1433
9213,1501
9214,1648
9215,1757
9216,1821
9217,1840
9218,1855
9219,1862
9220,1865
9221,1862
9222,1265
9223,1450
9224,1825
9225,1890
9226,1921
9227,1970
9228,1895
9229,1691
9230,1625
9231,1722
9232,1923
9233,2091
9234,2195
9235,2214
9236,2154
9237,2153
9238,2261
9239,2352
9240,2224
9241,1910
9242,1615
9243,1454
9244,1463
9245,1596
9246,1712
9247,1789
9248,1829
9249,1853
9250,1861
9251,1867
9252,1866
9253,1771
9254,1265
9255,1796
9256,1862
9257,1876
9258,1922
9259,1904
9260,1753
9261,1660
9262,1726
9263,1904
9264,2065
9265,2157
9266,2189
9267,2159
9268,2171
9269,2255
9270,2345
9271,2266
9272,2015
9273,1725
9274,1519
9275,1471
9276,1579
9277,1680
9278,1735
9279,1791
9280,1827
9281,1847
9282,1853
9283,1856
9284,2445
9285,1104
9286,1782
9287,1874
9288,1925
9289,1969
9290,1936
9291,1693
9292,1590
9293,1715
9294,1890
9295,2064
9296,2162
9297,2197
9298,2128
9299,2123
9300,2209
9301,2320
9302,2294
9303,2055
9304,1748
9305,1535
9306,1471
9307,1535
9308,1666
9309,1758
9310,1811
9311,1840
9312,1851
9313,1856
9314,1863
9315,2067
9316,871
9317,1714
9318,1868
9319,1889
9320,1911
9321,1945
9322,1765
9323,1616
9324,1666
9325,1838
9326,2009
9327,2112
9328,2179
9329,2176
9330,2159
9331,2206
9332,2317
9333,2320
9334,2142
9335,1857
9336,1616
9337,1479
9338,1499
9339,1619
9340,1744
9341,1808
9342,1834
9343,1840
9344,1840
9345,1842
9346,1862
9347,857
9348,1673
9349,1862
9350,1872
9351,1885
9352,1933
9353,1807
9354,1652
9355,1662
9356,1808
9357,1973
9358,2105
9359,2192
9360,2213
9361,2176
9362,2186
9363,2270
9364,2294
9365,2145
9366,1915
9367,1710
9368,1574
9369,1523
9370,1594
9371,1680
9372,1746
9373,1799
9374,1837
9375,1855
9376,1863
9377,1866
9378,1166
9379,1472
9380,1829
9381,1870
9382,1886
9383,1936
9384,1861
9385,1702
9386,1652
9387,1775
9388,1953
9389,2097
9390,2160
9391,2191
9392,2160
9393,2159
9394,2224
9395,2284
9396,2197
9397,1989
9398,1767
9399,1610
9400,1535
9401,1580
9402,1668
9403,1725
9404,1780
9405,1829
9406,1856
9407,1867
9408,1869
9409,1526
9410,1321
9411,1811
9412,1870
9413,1878
9414,1921
9415,1902
9416,1712
9417,1626
9418,1737
9419,1933
9420,2095
9421,2174
9422,2207
9423,2179
9424,2133
9425,2174
9426,2261
9427,2226
9428,2056
9429,1805
9430,1645
9431,1535
9432,1535
9433,1649
9434,1714
9435,1766
9436,1815
9437,1842
9438,1856
9439,1863
9440,2767
9441,1033
9442,1776
9443,1859
9444,1866
9445,1900
9446,1935
9447,1764
9448,1638
9449,1706
9450,1892
9451,2066
9452,2144
9453,2192
9454,2158
9455,2129
9456,2169
9457,2253
9458,2256
9459,2112
9460,1893
9461,1715
9462,1602
9463,1561
9464,1616
9465,1683
9466,1757
9467,1818
9468,1841
9469,1857
9470,1859
9471,1862
9472,1862
9473,1860
9474,1847
9475,1856
9476,1855
9477,1857
9478,1858
9479,1868
9480,1863
9481,1857
9482,1859
9483,1859
9484,1859
9485,1863
9486,1873
9487,1881
9488,1879
9489,1874
9490,1875
9491,1867
9492,1852
9493,1851
9494,1841
9495,1847
9496,1845
9497,1850
9498,1853
9499,1856
9500,1865
9501,1865
9502,1865
9503,1867
9504,1863
9505,1861
9506,1859
9507,1861
9508,1863
9509,1866
9510,1866
9511,1871
9512,1877
9513,1888
9514,1891
9515,1878
9516,1861
9517,1839
9518,1840
9519,1855
9520,1857
9521,1869
9522,1864
9523,1865
9524,1866
9525,1863
9526,1863
9527,1866
9528,1868
9529,1869
9530,1867
9531,1859
9532,1862
9533,1868
9534,1856
9535,1850
9536,1844
9537,1849
9538,1856
9539,1854
9540,1859
9541,1856
9542,1845
9543,1839
9544,1851
9545,1862
9546,1861
9547,1851
9548,1858
9549,1857
9550,1847
9551,1846
9552,1854
9553,1851
9554,1854
9555,1855
9556,1851
9557,1850
9558,1853
9559,1855
9560,1856
9561,1855
9562,1847
9563,1847
9564,1843
9565,1840
9566,1843
9567,1840
9568,1847
9569,1846
9570,1842
9571,1842
9572,1845
9573,1846
9574,1845
9575,1846
9576,1845
9577,1846
9578,1850
9579,1851
9580,1851
9581,1847
9582,1847
9583,1840
9584,1839
9585,1841
9586,1843
9587,1843
9588,1841
9589,1850
9590,1854
9591,1849
9592,1846
9593,1840
9594,1824
9595,1822
9596,1822
9597,1824
9598,1828
9599,1836
9600,1837
9601,1837
9602,1827
9603,1824
9604,1826
9605,1826
9606,1830
9607,1831
9608,1837
9609,1840
9610,1840
9611,1840
9612,1842
9613,1842
9614,1841
9615,1844
9616,1845
9617,1847
9618,1854
9619,1853
9620,1850
9621,1846
9622,1847
9623,1850
9624,1845
9625,1852
9626,1853
9627,1853
9628,1850
9629,1843
9630,1855
9631,1847
9632,1843
9633,1855
9634,1857
9635,1856
9636,1854
9637,1854
9638,1847
9639,1845
9640,1840
9641,1839
9642,1840
9643,1840
9644,1840
9645,1840
9646,1840
9647,1840
9648,1840
9649,1841
9650,1842
9651,1846
9652,1850
9653,1847
9654,1840
9655,1842
9656,1843
9657,1847
9658,1853
9659,1856
9660,1851
9661,1847
9662,1856
9663,1857
9664,1861
9665,1867
9666,1863
9667,1857
9668,1858
9669,1866
9670,1866
9671,1867
9672,1866
9673,1868
9674,1867
9675,1867
9676,1867
9677,1866
9678,1868
9679,1866
9680,1869
9681,1869
9682,1871
9683,1870
9684,1859
9685,1862
9686,1859
9687,1862
9688,1865
9689,1869
9690,1867
9691,1867
9692,1871
9693,1867
9694,1863
9695,1868
9696,1868
9697,1869
9698,1871
9699,1867
9700,1865
9701,1869
9702,1869
9703,1867
9704,1870
9705,1872
9706,1865
9707,1860
9708,1857
9709,1865
9710,1862
9711,1861
9712,1861
9713,1860
9714,1857
9715,1856
9716,1861
9717,1859
9718,1856
9719,1856
9720,1857
9721,1867
9722,1870
9723,1867
9724,1863
9725,1858
9726,1855
9727,1852
9728,1852
9729,1856
9730,1858
9731,1856
9732,1856
9733,1856
9734,1858
9735,1856
9736,1855
9737,1856
9738,1857
9739,1855
9740,1851
9741,1854
9742,1852
9743,1855
9744,1850
9745,1848
9746,1847
9747,1846
9748,1846
9749,1845
9750,1857
9751,1853
9752,1855
9753,1855
9754,1856
9755,1853
9756,1855
9757,1854
9758,1854
9759,1855
9760,1856
9761,1856
9762,1856
9763,1856
9764,1856
9765,1853
9766,1854
9767,1854
9768,1855
9769,1856
9770,1856
9771,1863
9772,1859
9773,1858
9774,1852
9775,1851
9776,1854
9777,1854
9778,1854
9779,1860
9780,1860
9781,1858
9782,1859
9783,1859
9784,1859
9785,1857
9786,1859
9787,1859
9788,1859
9789,1861
9790,1860
9791,1861
9792,1863
9793,1863
9794,1861
9795,1863
9796,1862
9797,1863
9798,1861
9799,1859
9800,1858
9801,1868
9802,1872
9803,1872
9804,1867
9805,1865
9806,1859
9807,1846
9808,1839
9809,1854
9810,1855
9811,1859
9812,1859
9813,1860
9814,1859
9815,1858
9816,1861
9817,1856
9818,1858
9819,1856
9820,1859
9821,1858
9822,1859
9823,1861
9824,1859
9825,1859
9826,1859
9827,1858
9828,1858
9829,1860
9830,1858
9831,1859
9832,1860
9833,1860
9834,1856
9835,1854
9836,1854
9837,1853
9838,1850
9839,1849
9840,1853
9841,1857
9842,1861
9843,1863
9844,1860
9845,1859
9846,1858
9847,1857
9848,1858
9849,1858
9850,1862
9851,1862
9852,1859
9853,1860
9854,1860
9855,1857
9856,1859
9857,1858
9858,1857
9859,1861
9860,1860
9861,1860
9862,1861
9863,1862
9864,1855
9865,1855
9866,1856
9867,1857
9868,1855
9869,1842
9870,1861
9871,1863
9872,1863
9873,1863
9874,1862
9875,1859
9876,1861
9877,1862
9878,1861
9879,1865
9880,1863
9881,1862
9882,1862
9883,1862
9884,1863
9885,1864
9886,1863
9887,1866
9888,1863
9889,1865
9890,1863
9891,1862
9892,1862
9893,1863
9894,1857
9895,1857
9896,1856
9897,1856
9898,1856
9899,1863
9900,1861
9901,1860
9902,1861
9903,1862
9904,1857
9905,1856
9906,1859
9907,1865
9908,1862
9909,1867
9910,1866
9911,1861
9912,1859
9913,1856
9914,1855
9915,1856
9916,1858
9917,1861
9918,1858
9919,1856
9920,1854
9921,1856
9922,1855
9923,1854
9924,1854
9925,1856
9926,1861
9927,1857
9928,1856
9929,1852
9930,1861
9931,1860
9932,1856
9933,1857
9934,1858
9935,1858
9936,1861
9937,1858
9938,1861
9939,1859
9940,1860
9941,1857
9942,1861
9943,1859
9944,1859
9945,1862
9946,1862
9947,1858
9948,1859
9949,1859
9950,1858
9951,1859
9952,1859
9953,1861
9954,1856
9955,1856
9956,1856
9957,1856
9958,1855
9959,1855
9960,1851
9961,1865
9962,1863
9963,1862
9964,1862
9965,1862
9966,1862
9967,1863
9968,1861
9969,1863
9970,1863
9971,1862
9972,1863
9973,1862
9974,1859
9975,1861
9976,1862
9977,1863
9978,1862
9979,1859
9980,1863
9981,1862
9982,1859
9983,1861
9984,1859
9985,1861
9986,1856
9987,1854
9988,1856
9989,1862
9990,1865
9991,1863
9992,1860
9993,1861
9994,1863
9995,1866
9996,1862
9997,1861
9998,1862
9999,1860
10000,1860
10001,1861
10002,1863
10003,1863
10004,1861
10005,1863
10006,1863
10007,1863
10008,1864
10009,1866
10010,1865
10011,1863
10012,1863
10013,1862
10014,1857
10015,1858
10016,1856
10017,1858
10018,1858
10019,1855
10020,1855
10021,1863
10022,1863
10023,1862
10024,1866
10025,1863
10026,1863
10027,1861
10028,1861
10029,1861
10030,1862
10031,1861
10032,1866
10033,1863
10034,1861
10035,1867
10036,1865
10037,1862
10038,1865
10039,1865
10040,1865
10041,1866
10042,1865
10043,1863
10044,1859
10045,1856
10046,1858
10047,1858
10048,1857
10049,1843
10050,1863
10051,1867
10052,1865
10053,1863
10054,1865
10055,1865
10056,1867
10057,1866
10058,1862
10059,1865
10060,1863
10061,1866
10062,1866
10063,1863
10064,1865
10065,1866
10066,1866
10067,1866
10068,1862
10069,1863
10070,1863
10071,1866
10072,1866
10073,1862
10074,1857
10075,1859
10076,1858
10077,1858
10078,1858
10079,1866
10080,1866
10081,1865
10082,1866
10083,1866
10084,1863
10085,1867
10086,1866
10087,1863
10088,1865
10089,1864
10090,1863
10091,1863
10092,1863
10093,1862
10094,1862
10095,1865
10096,1866
10097,1868
10098,1866
10099,1869
10100,1867
10101,1862
10102,1863
10103,1861
10104,1854
10105,1856
10106,1858
10107,1856
10108,1855
10109,1862
10110,1860
10111,1863
10112,1860
10113,1865
10114,1866
10115,1859
10116,1858
10117,1852
10118,1863
10119,1856
10120,1862
10121,1861
10122,1863
10123,1862
10124,1861
10125,1859
10126,1861
10127,1859
10128,1861
10129,1863
10130,1867
10131,1865
10132,1862
10133,1858
10134,1844
10135,1847
10136,1851
10137,1854
10138,1856
10139,1854
10140,1851
10141,1861
10142,1861
10143,1861
10144,1859
10145,1860
10146,1861
10147,1866
10148,1869
10149,1871
10150,1868
10151,1862
10152,1859
10153,1856
10154,1855
10155,1856
10156,1861
10157,1859
10158,1860
10159,1863
10160,1862
10161,1866
10162,1860
10163,1860
10164,1855
10165,1856
10166,1856
10167,1854
10168,1854
10169,1853
10170,1862
10171,1863
10172,1859
10173,1861
10174,1863
10175,1863
10176,1859
10177,1857
10178,1862
10179,1862
10180,1862
10181,1862
10182,1862
10183,1862
10184,1861
10185,1861
10186,1858
10187,1861
10188,1860
10189,1863
10190,1862
10191,1861
10192,1862
10193,1861
10194,1856
10195,1856
10196,1856
10197,1857
10198,1856
10199,1859
10200,1859
10201,1863
10202,1859
10203,1861
10204,1863
10205,1861
10206,1858
10207,1862
10208,1862
10209,1863
10210,1863
10211,1860
10212,1860
10213,1858
10214,1861
10215,1859
10216,1860
10217,1859
10218,1858
10219,1853
10220,1854
10221,1854
10222,1857
10223,1856
10224,1856
10225,1856
10226,1858
10227,1855
10228,1854
10229,1854
10230,1854
10231,1853
10232,1859
10233,1861
10234,1862
10235,1862
10236,1861
10237,1862
10238,1867
10239,1867
10240,1863
10241,1858
10242,1856
10243,1856
10244,1857
10245,1857
10246,1860
10247,1867
10248,1865
10249,1866
10250,1869
10251,1866
10252,1856
10253,1854
10254,1846
10255,1847
10256,1850
10257,1852
10258,1855
10259,1866
10260,1861
10261,1862
10262,1859
10263,1862
10264,1863
10265,1867
10266,1870
10267,1872
10268,1871
10269,1865
10270,1857
10271,1855
10272,1856
10273,1857
10274,1858
10275,1858
10276,1859
10277,1863
10278,1865
10279,1866
10280,1865
10281,1862
10282,1862
10283,1864
10284,1855
10285,1857
10286,1859
10287,1859
10288,1856
10289,1865
10290,1861
10291,1861
10292,1866
10293,1862
10294,1863
10295,1869
10296,1867
10297,1863
10298,1861
10299,1862
10300,1861
10301,1861
10302,1869
10303,1863
10304,1866
10305,1861
10306,1861
10307,1863
10308,1865
10309,1867
10310,1867
10311,1862
10312,1863
10313,1867
10314,1857
10315,1856
10316,1858
10317,1859
10318,1860
10319,1855
10320,1853
10321,1863
10322,1862
10323,1865
10324,1863
10325,1865
10326,1867
10327,1864
10328,1862
10329,1862
10330,1863
10331,1865
10332,1863
10333,1867
10334,1860
10335,1862
10336,1865
10337,1863
10338,1861
10339,1861
10340,1866
10341,1866
10342,1863
10343,1863
10344,1856
10345,1856
10346,1857
10347,1858
10348,1859
10349,1859
10350,1865
10351,1861
10352,1862
10353,1865
10354,1864
10355,1865
10356,1869
10357,1865
10358,1866
10359,1862
10360,1857
10361,1856
10362,1861
10363,1862
10364,1860
10365,1861
10366,1861
10367,1861
10368,1863
10369,1865
10370,1861
10371,1866
10372,1872
10373,1871
10374,1861
10375,1859
10376,1856
10377,1851
10378,1854
10379,1862
10380,1862
10381,1863
10382,1865
10383,1866
10384,1862
10385,1862
10386,1862
10387,1859
10388,1857
10389,1859
10390,1863
10391,1867
10392,1865
10393,1868
10394,1869
10395,1865
10396,1861
10397,1860
10398,1862
10399,1861
10400,1862
10401,1858
10402,1858
10403,1858
10404,1855
10405,1856
10406,1855
10407,1856
10408,1855
10409,1858
10410,1863
10411,1861
10412,1861
10413,1863
10414,1862
10415,1863
10416,1861
10417,1853
10418,1860
10419,1856
10420,1861
10421,1859
10422,1863
10423,1862
10424,1866
10425,1862
10426,1861
10427,1859
10428,1863
10429,1863
10430,1861
10431,1862
10432,1862
10433,1860
10434,1856
10435,1856
10436,1855
10437,1856
10438,1857
10439,1855
10440,1858
10441,1854
10442,1861
10443,1862
10444,1867
10445,1866
10446,1872
10447,1868
10448,1866
10449,1859
10450,1857
10451,1860
10452,1862
10453,1862
10454,1861
10455,1860
10456,1859
10457,1859
10458,1858
10459,1861
10460,1862
10461,1861
10462,1861
10463,1863
10464,1854
10465,1856
10466,1856
10467,1859
10468,1860
10469,2089
10470,1097
10471,1677
10472,1840
10473,1888
10474,1915
10475,1920
10476,1918
10477,1938
10478,1921
10479,1770
10480,1682
10481,1735
10482,1813
10483,1904
10484,2021
10485,2134
10486,2206
10487,2224
10488,2269
10489,2388
10490,2501
10491,2434
10492,2128
10493,1728
10494,1373
10495,1168
10496,1217
10497,1450
10498,1642
10499,1746
10500,1797
10501,1194
10502,1535
10503,1802
10504,1894
10505,1979
10506,1984
10507,1974
10508,1949
10509,1791
10510,1584
10511,1655
10512,1805
10513,1934
10514,2070
10515,2181
10516,2243
10517,2224
10518,2230
10519,2337
10520,2458
10521,2352
10522,1983
10523,1510
10524,1183
10525,1135
10526,1328
10527,1587
10528,1729
10529,1806
10530,1840
10531,1855
10532,1449
10533,1451
10534,1803
10535,1868
10536,1950
10537,1969
10538,1971
10539,1940
10540,1761
10541,1650
10542,1731
10543,1856
10544,1995
10545,2129
10546,2229
10547,2262
10548,2270
10549,2380
10550,2517
10551,2463
10552,2112
10553,1584
10554,1179
10555,1108
10556,1335
10557,1583
10558,1731
10559,1819
10560,1860
10561,1874
10562,1882
10563,1890
10564,1306
10565,1793
10566,1843
10567,1910
10568,1949
10569,1967
10570,1919
10571,1753
10572,1707
10573,1802
10574,1920
10575,2064
10576,2186
10577,2263
10578,2271
10579,2320
10580,2451
10581,2537
10582,2320
10583,1827
10584,1325
10585,1108
10586,1259
10587,1530
10588,1713
10589,1815
10590,1862
10591,1881
10592,1887
10593,1893
10594,2457
10595,1182
10596,1791
10597,1846
10598,1887
10599,1907
10600,1934
10601,1921
10602,1783
10603,1762
10604,1840
10605,1963
10606,2118
10607,2227
10608,2274
10609,2256
10610,2317
10611,2462
10612,2491
10613,2214
10614,1697
10615,1297
10616,1216
10617,1413
10618,1639
10619,1756
10620,1797
10621,1825
10622,1843
10623,1861
10624,1870
10625,2087
10626,938
10627,1703
10628,1827
10629,1867
10630,1898
10631,1933
10632,1920
10633,1770
10634,1726
10635,1791
10636,1921
10637,2073
10638,2214
10639,2275
10640,2247
10641,2293
10642,2427
10643,2451
10644,2162
10645,1659
10646,1303
10647,1233
10648,1431
10649,1637
10650,1763
10651,1818
10652,1846
10653,1869
10654,1883
10655,1895
10656,1900
10657,990
10658,1628
10659,1821
10660,1850
10661,1895
10662,1906
10663,1891
10664,1737
10665,1691
10666,1770
10667,1901
10668,2058
10669,2211
10670,2273
10671,2234
10672,2245
10673,2375
10674,2416
10675,2177
10676,1737
10677,1391
10678,1297
10679,1466
10680,1647
10681,1758
10682,1818
10683,1839
10684,1857
10685,1866
10686,1875
10687,1872
10688,1235
10689,1469
10690,1807
10691,1845
10692,1899
10693,1942
10694,1951
10695,1753
10696,1668
10697,1729
10698,1862
10699,2032
10700,2195
10701,2255
10702,2223
10703,2239
10704,2331
10705,2415
10706,2224
10707,1814
10708,1460
10709,1328
10710,1447
10711,1630
10712,1754
10713,1818
10714,1835
10715,1840
10716,1841
10717,1837
10718,1851
10719,1760
10720,1262
10721,1793
10722,1859
10723,1905
10724,1964
10725,2005
10726,1824
10727,1667
10728,1680
10729,1790
10730,1946
10731,2117
10732,2213
10733,2192
10734,2192
10735,2288
10736,2375
10737,2253
10738,1903
10739,1532
10740,1380
10741,1430
10742,1600
10743,1729
10744,1808
10745,1847
10746,1862
10747,1872
10748,1872
10749,1870
10750,2755
10751,1009
10752,1745
10753,1872
10754,1904
10755,1920
10756,1962
10757,1808
10758,1682
10759,1674
10760,1776
10761,1935
10762,2112
10763,2219
10764,2191
10765,2173
10766,2231
10767,2349
10768,2288
10769,2002
10770,1659
10771,1457
10772,1445
10773,1579
10774,1711
10775,1797
10776,1831
10777,1855
10778,1861
10779,1865
10780,1869
10781,2093
10782,855
10783,1691
10784,1855
10785,1913
10786,1965
10787,2002
10788,1823
10789,1648
10790,1615
10791,1725
10792,1895
10793,2096
10794,2224
10795,2222
10796,2177
10797,2211
10798,2313
10799,2314
10800,2079
10801,1742
10802,1504
10803,1456
10804,1557
10805,1673
10806,1761
10807,1819
10808,1847
10809,1860
10810,1862
10811,1872
10812,1873
10813,927
10814,1599
10815,1856
10816,1907
10817,1911
10818,1969
10819,1856
10820,1686
10821,1622
10822,1705
10823,1885
10824,2082
10825,2199
10826,2195
10827,2178
10828,2224
10829,2288
10830,2304
10831,2122
10832,1825
10833,1583
10834,1472
10835,1515
10836,1637
10837,1742
10838,1805
10839,1845
10840,1875
10841,1882
10842,1883
10843,1863
10844,1085
10845,1471
10846,1823
10847,1898
10848,1924
10849,1982
10850,1902
10851,1692
10852,1595
10853,1681
10854,1887
10855,2086
10856,2193
10857,2210
10858,2175
10859,2213
10860,2295
10861,2335
10862,2165
10863,1853
10864,1629
10865,1507
10866,1499
10867,1616
10868,1732
10869,1806
10870,1840
10871,1855
10872,1850
10873,1847
10874,1851
10875,1530
10876,1299
10877,1797
10878,1879
10879,1937
10880,1983
10881,1920
10882,1680
10883,1559
10884,1661
10885,1872
10886,2071
10887,2175
10888,2195
10889,2172
10890,2186
10891,2261
10892,2347
10893,2253
10894,1995
10895,1728
10896,1535
10897,1501
10898,1561
10899,1647
10900,1745
10901,1811
10902,1851
10903,1856
10904,1851
10905,1858
10906,2397
10907,1110
10908,1778
10909,1859
10910,1873
10911,1911
10912,1917
10913,1744
10914,1634
10915,1709
10916,1881
10917,2055
10918,2160
10919,2208
10920,2159
10921,2159
10922,2209
10923,2290
10924,2256
10925,2043
10926,1784
10927,1625
10928,1535
10929,1557
10930,1648
10931,1743
10932,1785
10933,1811
10934,1839
10935,1854
10936,1859
10937,2091
10938,822
10939,1709
10940,1851
10941,1882
10942,1906
10943,1954
10944,1790
10945,1639
10946,1682
10947,1839
10948,2000
10949,2115
10950,2183
10951,2183
10952,2181
10953,2222
10954,2297
10955,2275
10956,2069
10957,1826
10958,1655
10959,1557
10960,1535
10961,1614
10962,1702
10963,1776
10964,1821
10965,1841
10966,1862
10967,1872
10968,1872
10969,837
10970,1627
10971,1840
10972,1859
10973,1883
10974,1938
10975,1829
10976,1662
10977,1651
10978,1801
10979,1978
10980,2109
10981,2183
10982,2192
10983,2160
10984,2183
10985,2256
10986,2287
10987,2159
10988,1936
10989,1744
10990,1634
10991,1575
10992,1585
10993,1657
10994,1740
10995,1802
10996,1830
10997,1842
10998,1858
10999,1863
11000,1093
11001,1488
11002,1833
11003,1851
11004,1854
11005,1930
11006,1876
11007,1712
11008,1664
11009,1777
11010,1947
11011,2097
11012,2162
11013,2177
11014,2160
11015,2185
11016,2237
11017,2269
11018,2182
11019,2003
11020,1795
11021,1680
11022,1589
11023,1581
11024,1638
11025,1707
11026,1778
11027,1830
11028,1850
11029,1854
11030,1857
11031,1451
11032,1343
11033,1821
11034,1861
11035,1872
11036,1923
11037,1884
11038,1712
11039,1641
11040,1744
11041,1926
11042,2097
11043,2173
11044,2192
11045,2151
11046,2142
11047,2203
11048,2263
11049,2201
11050,2027
11051,1840
11052,1698
11053,1610
11054,1584
11055,1622
11056,1697
11057,1755
11058,1812
11059,1845
11060,1858
11061,1866
11062,2705
11063,1043
11064,1789
11065,1856
11066,1863
11067,1904
11068,1923
11069,1761
11070,1627
11071,1694
11072,1873
11073,2046
11074,2139
11075,2171
11076,2138
11077,2127
11078,2187
11079,2254
11080,2233
11081,2095
11082,1894
11083,1745
11084,1636
11085,1585
11086,1616
11087,1674
11088,1742
11089,1798
11090,1827
11091,1843
11092,1853
11093,1856
11094,1847
11095,1850
11096,1857
11097,1860
11098,1861
11099,1872
11100,1869
11101,1856
11102,1855
11103,1857
11104,1847
11105,1838
11106,1850
11107,1861
11108,1871
11109,1875
11110,1873
11111,1870
11112,1856
11113,1846
11114,1856
11115,1856
11116,1856
11117,1871
11118,1894
11119,1891
11120,1875
11121,1859
11122,1835
11123,1819
11124,1824
11125,1840
11126,1853
11127,1854
11128,1858
11129,1854
11130,1858
11131,1866
11132,1871
11133,1871
11134,1869
11135,1866
11136,1872
11137,1872
11138,1871
11139,1862
11140,1862
11141,1866
11142,1865
11143,1867
11144,1870
11145,1874
11146,1881
11147,1872
11148,1873
11149,1872
11150,1873
11151,1869
11152,1871
11153,1866
11154,1854
11155,1855
11156,1856
11157,1856
11158,1856
11159,1860
11160,1870
11161,1875
11162,1872
11163,1867
11164,1851
11165,1840
11166,1850
11167,1856
11168,1859
11169,1859
11170,1858
11171,1857
11172,1856
11173,1858
11174,1858
11175,1859
11176,1863
11177,1859
11178,1859
11179,1856
11180,1855
11181,1853
11182,1858
11183,1859
11184,1856
11185,1854
11186,1850
11187,1841
11188,1846
11189,1856
11190,1862
11191,1859
11192,1856
11193,1856
11194,1856
11195,1857
11196,1858
11197,1859
11198,1858
11199,1863
11200,1861
11201,1862
11202,1859
11203,1860
11204,1858
11205,1857
11206,1856
11207,1856
11208,1851
11209,1853
11210,1857
11211,1859
11212,1856
11213,1854
11214,1845
11215,1845
11216,1845
11217,1845
11218,1842
11219,1838
11220,1838
11221,1845
11222,1846
11223,1845
11224,1843
11225,1843
11226,1836
11227,1829
11228,1839
11229,1840
11230,1841
11231,1842
11232,1846
11233,1843
11234,1847
11235,1848
11236,1854
11237,1856
11238,1855
11239,1852
11240,1843
11241,1844
11242,1855
11243,1855
11244,1849
11245,1847
11246,1849
11247,1853
11248,1850
11249,1844
11250,1857
11251,1860
11252,1861
11253,1861
11254,1862
11255,1861
11256,1857
11257,1856
11258,1858
11259,1863
11260,1863
11261,1862
11262,1863
11263,1863
11264,1861
11265,1865
11266,1862
11267,1863
11268,1867
11269,1866
11270,1858
11271,1856
11272,1863
11273,1867
11274,1859
11275,1856
11276,1854
11277,1851
11278,1850
11279,1856
11280,1866
11281,1869
11282,1865
11283,1857
11284,1862
11285,1866
11286,1862
11287,1866
11288,1866
11289,1870
11290,1871
11291,1871
11292,1871
11293,1870
11294,1862
11295,1865
11296,1867
11297,1867
11298,1870
11299,1871
11300,1871
11301,1870
11302,1866
11303,1856
11304,1851
11305,1851
11306,1840
11307,1834
11308,1835
11309,1846
11310,1845
11311,1841
11312,1840
11313,1846
11314,1841
11315,1842
11316,1837
11317,1841
11318,1849
11319,1849
11320,1850
11321,1851
11322,1847
11323,1853
11324,1858
11325,1862
11326,1863
11327,1866
11328,1867
11329,1866
11330,1867
11331,1867
11332,1867
11333,1867
11334,1859
11335,1857
11336,1860
11337,1865
11338,1862
11339,1858
11340,1857
11341,1857
11342,1862
11343,1863
11344,1862
11345,1864
11346,1866
11347,1867
11348,1865
11349,1861
11350,1862
11351,1858
11352,1857
11353,1859
11354,1856
11355,1856
11356,1857
11357,1859
11358,1861
11359,1856
11360,1856
11361,1857
11362,1859
11363,1860
11364,1854
11365,1856
11366,1855
11367,1851
11368,1842
11369,1853
11370,1855
11371,1854
11372,1854
11373,1856
11374,1854
11375,1855
11376,1855
11377,1854
11378,1852
11379,1850
11380,1850
11381,1848
11382,1849
11383,1849
11384,1851
11385,1850
11386,1847
11387,1843
11388,1847
11389,1849
11390,1850
11391,1847
11392,1846
11393,1847
11394,1840
11395,1842
11396,1841
11397,1840
11398,1840
11399,1850
11400,1852
11401,1849
11402,1847
11403,1847
11404,1850
11405,1843
11406,1841
11407,1841
11408,1842
11409,1840
11410,1840
11411,1842
11412,1845
11413,1847
11414,1847
11415,1850
11416,1840
11417,1843
11418,1854
11419,1843
11420,1841
11421,1842
11422,1843
11423,1843
11424,1847
11425,1846
11426,1845
11427,1850
11428,1851
11429,1847
11430,1850
11431,1859
11432,1859
11433,1853
11434,1846
11435,1852
11436,1856
11437,1856
11438,1857
11439,1856
11440,1857
11441,1862
11442,1862
11443,1859
11444,1859
11445,1861
11446,1862
11447,1860
11448,1861
11449,1862
11450,1863
11451,1862
11452,1862
11453,1865
11454,1859
11455,1857
11456,1860
11457,1857
11458,1857
11459,1856
11460,1869
11461,1868
11462,1867
11463,1867
11464,1865
11465,1865
11466,1867
11467,1870
11468,1872
11469,1870
11470,1869
11471,1869
11472,1872
11473,1870
11474,1869
11475,1869
11476,1872
11477,1868
11478,1867
11479,1867
11480,1867
11481,1870
11482,1869
11483,1867
11484,1862
11485,1863
11486,1859
11487,1859
11488,1859
11489,1870
11490,1867
11491,1871
11492,1867
11493,1866
11494,1863
11495,1865
11496,1870
11497,1866
11498,1863
11499,1865
11500,1866
11501,1863
11502,1868
11503,1869
11504,1867
11505,1864
11506,1861
11507,1859
11508,1856
11509,1856
11510,1861
11511,1862
11512,1863
11513,1866
11514,1860
11515,1856
11516,1856
11517,1852
11518,1845
11519,1857
11520,1856
11521,1861
11522,1857
11523,1857
11524,1859
11525,1861
11526,1861
11527,1858
11528,1859
11529,1862
11530,1862
11531,1858
11532,1858
11533,1858
11534,1859
11535,1862
11536,1859
11537,1863
11538,1861
11539,1862
11540,1864
11541,1862
11542,1861
11543,1861
11544,1856
11545,1855
11546,1856
11547,1857
11548,1858
11549,1853
11550,1856
11551,1856
11552,1865
11553,1866
11554,1865
11555,1867
11556,1867
11557,1865
11558,1862
11559,1866
11560,1867
11561,1866
11562,1865
11563,1862
11564,1863
11565,1863
11566,1863
11567,1865
11568,1867
11569,1865
11570,1866
11571,1862
11572,1866
11573,1867
11574,1858
11575,1857
11576,1859
11577,1859
11578,1858
11579,1867
11580,1868
11581,1868
11582,1865
11583,1865
11584,1861
11585,1865
11586,1866
11587,1865
11588,1862
11589,1866
11590,1863
11591,1862
11592,1860
11593,1860
11594,1861
11595,1861
11596,1862
11597,1867
11598,1863
11599,1861
11600,1865
11601,1861
11602,1860
11603,1861
11604,1855
11605,1857
11606,1856
11607,1858
11608,1858
11609,1866
11610,1861
11611,1856
11612,1856
11613,1855
11614,1855
11615,1856
11616,1857
11617,1861
11618,1853
11619,1859
11620,1861
11621,1863
11622,1862
11623,1860
11624,1862
11625,1859
11626,1862
11627,1861
11628,1861
11629,1862
11630,1861
11631,1866
11632,1862
11633,1862
11634,1855
11635,1856
11636,1856
11637,1858
11638,1857
11639,1856
11640,1856
11641,1854
11642,1855
11643,1859
11644,1857
11645,1859
11646,1862
11647,1861
11648,1865
11649,1866
11650,1863
11651,1861
11652,1861
11653,1861
11654,1861
11655,1863
11656,1861
11657,1862
11658,1867
11659,1863
11660,1863
11661,1865
11662,1861
11663,1859
11664,1855
11665,1855
11666,1856
11667,1856
11668,1855
11669,1859
11670,1861
11671,1862
11672,1858
11673,1859
11674,1861
11675,1859
11676,1859
11677,1859
11678,1861
11679,1860
11680,1859
11681,1858
11682,1858
11683,1857
11684,1859
11685,1861
11686,1860
11687,1859
11688,1857
11689,1860
11690,1861
11691,1858
11692,1859
11693,1858
11694,1852
11695,1855
11696,1855
11697,1856
11698,1855
11699,1859
11700,1859
11701,1861
11702,1863
11703,1863
11704,1865
11705,1861
11706,1856
11707,1853
11708,1856
11709,1858
11710,1858
11711,1862
11712,1859
11713,1862
11714,1858
11715,1858
11716,1861
11717,1856
11718,1857
11719,1855
11720,1855
11721,1854
11722,1854
11723,1856
11724,1855
11725,1857
11726,1856
11727,1855
11728,1853
11729,1851
11730,1858
11731,1852
11732,1859
11733,1859
11734,1859
11735,1858
11736,1861
11737,1861
11738,1859
11739,1860
11740,1861
11741,1859
11742,1859
11743,1862
11744,1859
11745,1859
11746,1858
11747,1857
11748,1860
11749,1856
11750,1861
11751,1861
11752,1859
11753,1861
11754,1855
11755,1855
11756,1855
11757,1856
11758,1854
11759,1858
11760,1861
11761,1866
11762,1861
11763,1857
11764,1860
11765,1863
11766,1859
11767,1861
11768,1862
11769,1858
11770,1860
11771,1861
11772,1863
11773,1861
11774,1863
11775,1862
11776,1861
11777,1861
11778,1862
11779,1863
11780,1862
11781,1861
11782,1862
11783,1858
11784,1855
11785,1856
11786,1856
11787,1855
11788,1856
11789,1866
11790,1866
11791,1866
11792,1866
11793,1866
11794,1856
11795,1854
11796,1859
11797,1859
11798,1859
11799,1859
11800,1859
11801,1857
11802,1858
11803,1861
11804,1859
11805,1862
11806,1863
11807,1864
11808,1861
11809,1863
11810,1859
11811,1861
11812,1863
11813,1862
11814,1856
11815,1856
11816,1856
11817,1857
11818,1854
11819,1863
11820,1863
11821,1862
11822,1862
11823,1862
11824,1865
11825,1862
11826,1862
11827,1861
11828,1861
11829,1862
11830,1863
11831,1859
11832,1859
11833,1863
11834,1863
11835,1859
11836,1859
11837,1859
11838,1860
11839,1862
11840,1862
11841,1862
11842,1863
11843,1862
11844,1857
11845,1854
11846,1856
11847,1856
11848,1854
11849,1851
11850,1856
11851,1854
11852,1861
11853,1861
11854,1859
11855,1861
11856,1862
11857,1861
11858,1861
11859,1859
11860,1863
11861,1861
11862,1859
11863,1861
11864,1862
11865,1862
11866,1863
11867,1858
11868,1858
11869,1859
11870,1859
11871,1863
11872,1862
11873,1865
11874,1856
11875,1856
11876,1856
11877,1856
11878,1851
11879,1859
11880,1859
11881,1863
11882,1860
11883,1861
11884,1861
11885,1860
11886,1859
11887,1862
11888,1858
11889,1859
11890,1859
11891,1859
11892,1858
11893,1861
11894,1861
11895,1859
11896,1863
11897,1859
11898,1859
11899,1863
11900,1859
11901,1859
11902,1857
11903,1858
11904,1854
11905,1854
11906,1855
11907,1854
11908,1854
11909,1858
11910,1861
11911,1858
11912,1858
11913,1857
11914,1858
11915,1862
11916,1860
11917,1859
11918,1859
