Time(ms),Raw_ADC
0,1863
1,1853
2,1856
3,1853
4,1856
5,1857
6,1855
7,1845
8,1840
9,1855
10,1863
11,1870
12,1875
13,1878
14,1872
15,1872
16,1866
17,1858
18,1856
19,1856
20,1854
21,1858
22,1857
23,1854
24,1841
25,1840
26,1863
27,1879
28,1886
29,1893
30,1881
31,1857
32,1824
33,1848
34,2964
35,858
36,1839
37,2149
38,2203
39,2224
40,2220
41,2064
42,1830
43,1786
44,1904
45,1952
46,2015
47,2170
48,2260
49,2336
50,2304
51,2181
52,2039
53,1905
54,1794
55,1686
56,1583
57,1490
58,1433
59,1399
60,1392
61,1425
62,1495
63,1586
64,1666
65,1712
66,901
67,1520
68,2047
69,2198
70,2242
71,2281
72,2128
73,1808
74,1798
75,1994
76,2032
77,2128
78,2219
79,2274
80,2262
81,2169
82,1985
83,1807
84,1663
85,1575
86,1633
87,1680
88,1665
89,1652
90,1670
91,1655
92,1643
93,1653
94,1631
95,1643
96,1679
97,1341
98,1255
99,2005
100,2240
101,2288
102,2316
103,2204
104,1838
105,1785
106,1984
107,2031
108,2098
109,2154
110,2207
111,2246
112,2165
113,1961
114,1728
115,1502
116,1535
117,1655
118,1678
119,1733
120,1793
121,1803
122,1766
123,1726
124,1698
125,1680
126,1674
127,1680
128,2173
129,979
130,1911
131,2218
132,2270
133,2279
134,2160
135,1771
136,1806
137,2017
138,2087
139,2192
140,2176
141,2183
142,2192
143,2038
144,1791
145,1488
146,1410
147,1535
148,1614
149,1699
150,1795
151,1826
152,1792
153,1742
154,1731
155,1726
156,1734
157,1727
158,1733
159,1872
160,832
161,1715
162,2149
163,2249
164,2266
165,2180
166,1821
167,1879
168,2032
169,2113
170,2243
171,2215
172,2134
173,2111
174,1905
175,1615
176,1382
177,1466
178,1531
179,1628
180,1780
181,1872
182,1885
183,1847
184,1813
185,1826
186,1823
187,1791
188,1776
189,1796
190,1831
191,1042
192,1487
193,2047
194,2199
195,2243
196,2153
197,1901
198,2015
199,2102
200,2064
201,2160
202,2137
203,2032
204,1927
205,1750
206,1486
207,1456
208,1518
209,1573
210,1721
211,1850
212,1898
213,1886
214,1871
215,1874
216,1871
217,1821
218,1763
219,1776
220,1822
221,1853
222,2030
223,1081
224,1904
225,2128
226,2195
227,2151
228,1942
229,1994
230,2085
231,2112
232,2263
233,2294
234,2157
235,1929
236,1626
237,1367
238,1424
239,1469
240,1599
241,1734
242,1826
243,1870
244,1877
245,1877
246,1872
247,1858
248,1837
249,1798
250,1805
251,1832
252,1859
253,2267
254,799
255,1749
256,2064
257,2133
258,2127
259,1998
260,2035
261,2112
262,2149
263,2314
264,2343
265,2173
266,1863
267,1467
268,1360
269,1424
270,1522
271,1700
272,1808
273,1846
274,1818
275,1779
276,1820
277,1853
278,1845
279,1809
280,1801
281,1818
282,1858
283,1904
284,1936
285,945
286,1647
287,2030
288,2079
289,2087
290,2000
291,1997
292,2056
293,2122
294,2281
295,2317
296,2139
297,1818
298,1467
299,1382
300,1403
301,1565
302,1719
303,1804
304,1840
305,1848
306,1849
307,1854
308,1858
309,1869
310,1843
311,1837
312,1853
313,1869
314,1871
315,1870
316,1664
317,1173
318,1878
319,2058
320,2096
321,2039
322,2035
323,2083
324,2106
325,2261
326,2319
327,2153
328,1795
329,1459
330,1433
331,1474
332,1630
333,1751
334,1792
335,1807
336,1802
337,1791
338,1818
339,1850
340,1847
341,1826
342,1823
343,1840
344,1856
345,1862
346,1869
347,2773
348,881
349,1770
350,1997
351,2041
352,2000
353,2039
354,2064
355,2075
356,2215
357,2245
358,2091
359,1776
360,1488
361,1470
362,1535
363,1712
364,1825
365,1867
366,1845
367,1782
368,1741
369,1776
370,1819
371,1829
372,1813
373,1808
374,1808
375,1811
376,1835
377,1843
378,1855
379,1021
380,1583
381,1937
382,2000
383,1978
384,2038
385,2044
386,2046
387,2175
388,2234
389,2108
390,1801
391,1488
392,1453
393,1526
394,1667
395,1758
396,1789
397,1806
398,1807
399,1806
400,1810
401,1818
402,1830
403,1841
404,1846
405,1835
406,1827
407,1837
408,1837
409,1849
410,1488
411,1296
412,1870
413,1979
414,1949
415,2000
416,2064
417,2015
418,2128
419,2203
420,2129
421,1874
422,1579
423,1489
424,1531
425,1655
426,1765
427,1794
428,1801
429,1809
430,1829
431,1840
432,1856
433,1855
434,1840
435,1830
436,1833
437,1834
438,1837
439,1840
440,1838
441,2790
442,1134
443,1690
444,1937
445,1957
446,1979
447,2087
448,2019
449,2093
450,2181
451,2165
452,1959
453,1646
454,1531
455,1565
456,1677
457,1779
458,1831
459,1859
460,1846
461,1828
462,1834
463,1851
464,1867
465,1857
466,1840
467,1821
468,1808
469,1806
470,1818
471,1840
472,1863
473,1283
474,1489
475,1923
476,2035
477,2021
478,2114
479,2011
480,1984
481,2103
482,2141
483,2021
484,1797
485,1643
486,1598
487,1605
488,1723
489,1808
490,1837
491,1833
492,1834
493,1829
494,1840
495,1858
496,1873
497,1877
498,1861
499,1840
500,1825
501,1834
502,1850
503,1861
504,1493
505,1323
506,1844
507,1967
508,1939
509,2077
510,2046
511,1993
512,2134
513,2202
514,2117
515,1873
516,1615
517,1567
518,1614
519,1722
520,1796
521,1831
522,1841
523,1845
524,1818
525,1823
526,1859
527,1881
528,1885
529,1872
530,1855
531,1838
532,1840
533,1856
534,1854
535,2235
536,1203
537,1739
538,1961
539,1958
540,1999
541,2063
542,1976
543,2090
544,2182
545,2171
546,1971
547,1690
548,1581
549,1600
550,1694
551,1802
552,1859
553,1874
554,1859
555,1825
556,1802
557,1814
558,1831
559,1843
560,1847
561,1854
562,1857
563,1861
564,1859
565,1872
566,2103
567,1274
568,1600
569,1969
570,2019
571,1986
572,2064
573,1979
574,1997
575,2103
576,2141
577,2028
578,1813
579,1685
580,1649
581,1648
582,1728
583,1789
584,1811
585,1822
586,1811
587,1813
588,1835
589,1855
590,1856
591,1853
592,1846
593,1856
594,1870
595,1886
596,1891
597,1895
598,1430
599,1417
600,1884
601,1967
602,1932
603,2037
604,2039
605,2032
606,2149
607,2183
608,2085
609,1843
610,1623
611,1605
612,1646
613,1726
614,1776
615,1803
616,1808
617,1824
618,1825
619,1843
620,1863
621,1881
622,1879
623,1863
624,1839
625,1830
626,1846
627,1859
628,1857
629,2113
630,1215
631,1746
632,1953
633,1949
634,2013
635,2087
636,1993
637,2083
638,2163
639,2139
640,1926
641,1659
642,1581
643,1616
644,1718
645,1817
646,1867
647,1887
648,1873
649,1846
650,1817
651,1827
652,1843
653,1844
654,1846
655,1840
656,1840
657,1839
658,1847
659,1861
660,1871
661,1872
662,1871
663,1872
664,1870
665,1870
666,1870
667,1860
668,1856
669,1856
670,1855
671,1861
672,1866
673,1860
674,1854
675,1854
676,1862
677,1861
678,1865
679,1869
680,1867
681,1857
682,1858
683,1862
684,1855
685,1853
686,1840
687,1843
688,1859
689,1867
690,1856
691,1844
692,1847
693,1855
694,1871
695,1886
696,1884
697,1872
698,1861
699,1856
700,1847
701,1842
702,1843
703,1845
704,1853
705,1851
706,1854
707,1843
708,1844
709,1856
710,1856
711,1857
712,1862
713,1858
714,1855
715,1851
716,1849
717,1846
718,1849
719,1844
720,1843
721,1853
722,1857
723,1851
724,1846
725,1842
726,1854
727,1863
728,1872
729,1873
730,1871
731,1861
732,1849
733,1841
734,1838
735,1845
736,1852
737,1858
738,1855
739,1856
740,1846
741,1843
742,1857
743,1862
744,1857
745,1859
746,1857
747,1857
748,1857
749,1853
750,1843
751,1842
752,1859
753,1860
754,1863
755,1864
756,1859
757,1855
758,1851
759,1865
760,1870
761,1873
762,1883
763,1883
764,1874
765,1871
766,1861
767,1852
768,1856
769,1866
770,1862
771,1866
772,1866
773,1858
774,1851
775,1837
776,1856
777,1872
778,1888
779,1887
780,1883
781,1873
782,1863
783,1870
784,1872
785,1873
786,1873
787,1872
788,1874
789,1877
790,1872
791,1871
792,1879
793,1882
794,1889
795,1883
796,1885
797,1883
798,1879
799,1877
800,1882
801,1877
802,1877
803,1872
804,1870
805,1867
806,1872
807,1866
808,1872
809,1882
810,1883
811,1873
812,1873
813,1875
814,1876
815,1874
816,1872
817,1871
818,1866
819,1869
820,1857
821,1872
822,1874
823,1879
824,1870
825,1863
826,1877
827,1882
828,1883
829,1882
830,1883
831,1878
832,1873
833,1871
834,1865
835,1867
836,1869
837,1871
838,1871
839,1872
840,1870
841,1872
842,1882
843,1880
844,1875
845,1881
846,1882
847,1882
848,1885
849,1878
850,1871
851,1869
852,1870
853,1867
854,1868
855,1872
856,1873
857,1872
858,1871
859,1873
860,1878
861,1881
862,1883
863,1881
864,1872
865,1872
866,1866
867,1856
868,1863
869,1866
870,1849
871,1863
872,1870
873,1866
874,1866
875,1863
876,1867
877,1872
878,1882
879,1888
880,1879
881,1872
882,1869
883,1865
884,1858
885,1860
886,1859
887,1859
888,1859
889,1861
890,1856
891,1857
892,1869
893,1872
894,1872
895,1872
896,1872
897,1872
898,1872
899,1860
900,1856
901,1856
902,1865
903,1866
904,1872
905,1870
906,1868
907,1855
908,1851
909,1868
910,1874
911,1881
912,1877
913,1877
914,1874
915,1871
916,1870
917,1867
918,1843
919,1856
920,1861
921,1870
922,1871
923,1867
924,1850
925,1852
926,1859
927,1866
928,1859
929,1861
930,1866
931,1869
932,1869
933,1866
934,1861
935,1856
936,1859
937,1863
938,1881
939,1876
940,1866
941,1859
942,1872
943,1873
944,1876
945,1875
946,1871
947,1872
948,1872
949,1870
950,1863
951,1872
952,1889
953,1904
954,1903
955,1841
956,1807
957,1807
958,1842
959,1875
960,1894
961,1902
962,1900
963,1898
964,1887
965,1874
966,1855
967,1841
968,1846
969,1854
970,1862
971,1872
972,1872
973,1843
974,1849
975,1861
976,1872
977,1881
978,1883
979,1888
980,1888
981,1883
982,1856
983,1850
984,1859
985,1897
986,1909
987,1917
988,1894
989,1835
990,1837
991,1840
992,1863
993,1877
994,1876
995,1881
996,1875
997,1870
998,1863
999,1863
1000,1866
1001,1872
1002,1872
1003,1870
1004,1872
1005,1870
1006,1871
1007,1866
1008,1866
1009,1874
1010,1873
1011,1875
1012,1877
1013,1879
1014,1872
1015,1867
1016,1866
1017,1861
1018,1866
1019,1863
1020,1863
1021,1862
1022,1869
1023,1865
1024,1862
1025,1861
1026,1869
1027,1872
1028,1867
1029,1867
1030,1867
1031,1872
1032,1870
1033,1858
1034,1855
1035,1849
1036,1856
1037,1853
1038,1840
1039,1846
1040,1841
1041,1839
1042,1847
1043,1862
1044,1872
1045,1861
1046,1863
1047,1871
1048,1865
1049,1870
1050,1883
1051,1895
1052,1863
1053,1834
1054,1801
1055,1808
1056,1825
1057,1835
1058,1847
1059,1859
1060,1862
1061,1877
1062,1890
1063,1869
1064,1840
1065,1845
1066,1873
1067,1872
1068,1857
1069,1859
1070,1858
1071,1863
1072,1865
1073,1867
1074,1856
1075,1862
1076,1872
1077,1872
1078,1884
1079,1886
1080,1881
1081,1877
1082,1875
1083,1863
1084,1863
1085,1863
1086,1859
1087,1857
1088,1861
1089,1861
1090,1862
1091,1857
1092,1866
1093,1872
1094,1873
1095,1875
1096,1876
1097,1875
1098,1872
1099,1872
1100,1867
1101,1862
1102,1863
1103,1862
1104,1858
1105,1859
1106,1857
1107,1849
1108,1856
1109,1871
1110,1873
1111,1873
1112,1878
1113,1872
1114,1872
1115,1866
1116,1867
1117,1864
1118,1858
1119,1861
1120,1854
1121,1871
1122,1869
1123,1863
1124,1861
1125,1863
1126,1872
1127,1875
1128,1873
1129,1877
1130,1878
1131,1872
1132,1871
1133,1868
1134,1858
1135,1861
1136,1858
1137,1859
1138,1857
1139,1854
1140,1855
1141,1863
1142,1872
1143,1878
1144,1883
1145,1881
1146,1880
1147,1872
1148,1862
1149,1856
1150,1850
1151,1851
1152,1856
1153,1862
1154,1869
1155,1870
1156,1871
1157,1858
1158,1859
1159,1871
1160,1878
1161,1882
1162,1883
1163,1878
1164,1875
1165,1867
1166,1858
1167,1866
1168,1872
1169,1871
1170,1873
1171,1872
1172,1872
1173,1872
1174,1872
1175,1877
1176,1885
1177,1889
1178,1895
1179,1899
1180,1900
1181,1893
1182,1892
1183,1887
1184,1885
1185,1887
1186,1883
1187,1885
1188,1880
1189,1878
1190,1871
1191,1863
1192,1867
1193,1866
1194,1857
1195,1860
1196,1855
1197,1847
1198,1845
1199,1843
1200,1841
1201,1841
1202,1840
1203,1840
1204,1841
1205,1840
1206,1839
1207,1836
1208,1840
1209,1845
1210,1847
1211,1854
1212,1852
1213,1853
1214,1842
1215,1840
1216,1838
1217,1839
1218,1837
1219,1840
1220,1840
1221,1842
1222,1843
1223,1843
1224,1840
1225,1843
1226,1854
1227,1857
1228,1860
1229,1856
1230,1859
1231,1863
1232,1869
1233,1863
1234,1863
1235,1870
1236,1867
1237,1872
1238,1872
1239,1872
1240,1872
1241,1870
1242,1875
1243,1882
1244,1882
1245,1885
1246,1884
1247,1881
1248,1878
1249,1873
1250,1871
1251,1870
1252,1872
1253,1873
1254,1867
1255,1867
1256,1864
1257,1860
1258,1872
1259,1875
1260,1873
1261,1875
1262,1874
1263,1871
1264,1862
1265,1863
1266,1862
1267,1859
1268,1872
1269,1875
1270,1876
1271,1872
1272,1840
1273,1821
1274,1855
1275,1856
1276,1856
1277,1859
1278,1856
1279,1861
1280,1860
1281,1858
1282,1857
1283,1855
1284,1844
1285,1843
1286,1847
1287,1855
1288,1860
1289,1859
1290,1852
1291,1847
1292,1861
1293,1867
1294,1872
1295,1874
1296,1873
1297,1872
1298,1861
1299,1861
1300,1857
1301,1854
1302,1857
1303,1857
1304,1863
1305,1862
1306,1857
1307,1850
1308,1850
1309,1862
1310,1870
1311,1873
1312,1873
1313,1874
1314,1861
1315,1855
1316,1854
1317,1853
1318,1858
1319,1856
1320,1856
1321,1859
1322,1859
1323,1850
1324,1847
1325,1857
1326,1868
1327,1872
1328,1874
1329,1877
1330,1873
1331,1871
1332,1866
1333,1861
1334,1859
1335,1861
1336,1858
1337,1865
1338,1861
1339,1865
1340,1856
1341,1851
1342,1858
1343,1862
1344,1863
1345,1867
1346,1869
1347,1872
1348,1885
1349,1902
1350,1895
1351,1866
1352,1834
1353,1796
1354,1827
1355,1840
1356,1835
1357,1837
1358,1843
1359,1858
1360,1867
1361,1872
1362,1873
1363,1874
1364,1870
1365,1868
1366,1863
1367,1857
1368,1859
1369,1860
1370,1863
1371,1863
1372,1866
1373,1856
1374,1845
1375,1855
1376,1866
1377,1871
1378,1878
1379,1877
1380,1875
1381,1872
1382,1867
1383,1858
1384,1856
1385,1858
1386,1862
1387,1862
1388,1863
1389,1858
1390,1851
1391,1842
1392,1857
1393,1866
1394,1872
1395,1877
1396,1872
1397,1869
1398,1866
1399,1861
1400,1856
1401,1856
1402,1861
1403,1859
1404,1856
1405,1856
1406,1854
1407,1849
1408,1856
1409,1867
1410,1872
1411,1877
1412,1882
1413,1879
1414,1874
1415,1871
1416,1860
1417,1850
1418,1842
1419,1854
1420,1849
1421,1859
1422,1862
1423,1858
1424,1850
1425,1856
1426,1868
1427,1869
1428,1872
1429,1874
1430,1872
1431,1872
1432,1862
1433,1858
1434,1850
1435,1854
1436,1850
1437,1855
1438,1854
1439,1855
1440,1843
1441,1843
1442,1860
1443,1870
1444,1875
1445,1875
1446,1873
1447,1871
1448,1865
1449,1863
1450,1857
1451,1857
1452,1861
1453,1856
1454,1862
1455,1859
1456,1856
1457,1847
1458,1849
1459,1862
1460,1867
1461,1872
1462,1876
1463,1874
1464,1867
1465,1859
1466,1857
1467,1852
1468,1859
1469,1856
1470,1856
1471,1856
1472,1857
1473,1851
1474,1846
1475,1857
1476,1869
1477,1873
1478,1878
1479,1878
1480,1874
1481,1872
1482,1871
1483,1861
1484,1856
1485,1857
1486,1856
1487,1861
1488,1860
1489,1860
1490,1853
1491,1849
1492,1861
1493,1867
1494,1867
1495,1870
1496,1866
1497,1866
1498,1865
1499,1868
1500,1856
1501,1856
1502,1859
1503,1855
1504,1856
1505,1858
1506,1855
1507,1844
1508,1845
1509,1856
1510,1867
1511,1876
1512,1877
1513,1876
1514,1867
1515,1856
1516,1859
1517,1853
1518,1841
1519,1850
1520,1857
1521,1866
1522,1872
1523,1859
1524,1833
1525,1840
1526,1856
1527,1856
1528,1856
1529,1859
1530,1862
1531,1868
1532,1867
1533,1859
1534,1855
1535,1861
1536,1861
1537,1861
1538,1859
1539,1858
1540,1849
1541,1850
1542,1858
1543,1869
1544,1872
1545,1879
1546,1875
1547,1872
1548,1870
1549,1868
1550,1857
1551,1855
1552,1861
1553,1860
1554,1856
1555,1856
1556,1851
1557,1840
1558,1851
1559,1865
1560,1872
1561,1874
1562,1874
1563,1872
1564,1870
1565,1863
1566,1861
1567,1855
1568,1856
1569,1856
1570,1857
1571,1857
1572,1859
1573,1852
1574,1843
1575,1855
1576,1864
1577,1871
1578,1872
1579,1873
1580,1874
1581,1869
1582,1865
1583,1859
1584,1847
1585,1856
1586,1851
1587,1856
1588,1862
1589,1862
1590,1851
1591,1847
1592,1861
1593,1872
1594,1875
1595,1879
1596,1874
1597,1872
1598,1863
1599,1861
1600,1861
1601,1857
1602,1858
1603,1857
1604,1861
1605,1861
1606,1857
1607,1847
1608,1858
1609,1866
1610,1872
1611,1874
1612,1875
1613,1873
1614,1862
1615,1857
1616,1853
1617,1843
1618,1857
1619,1859
1620,1862
1621,1862
1622,1861
1623,1856
1624,1847
1625,1854
1626,1862
1627,1870
1628,1872
1629,1875
1630,1873
1631,1872
1632,1870
1633,1862
1634,1856
1635,1857
1636,1853
1637,1847
1638,1846
1639,1854
1640,1851
1641,1849
1642,1857
1643,1866
1644,1863
1645,1872
1646,1869
1647,1870
1648,1862
1649,1857
1650,1855
1651,1855
1652,1863
1653,1861
1654,1865
1655,1863
1656,1859
1657,1852
1658,1847
1659,1856
1660,1870
1661,1874
1662,1350
1663,1375
1664,2055
1665,2228
1666,2273
1667,2298
1668,2243
1669,1959
1670,1728
1671,1751
1672,1831
1673,1854
1674,1902
1675,2055
1676,2192
1677,2306
1678,2319
1679,2251
1680,2123
1681,1952
1682,1827
1683,1725
1684,1616
1685,1534
1686,1522
1687,1493
1688,1459
1689,1478
1690,1534
1691,1584
1692,1641
1693,2523
1694,858
1695,1776
1696,2106
1697,2207
1698,2271
1699,2241
1700,1920
1701,1648
1702,1817
1703,1936
1704,1979
1705,2070
1706,2151
1707,2243
1708,2283
1709,2236
1710,2111
1711,1917
1712,1785
1713,1680
1714,1635
1715,1691
1716,1685
1717,1621
1718,1607
1719,1621
1720,1609
1721,1623
1722,1662
1723,1684
1724,1883
1725,785
1726,1619
1727,2094
1728,2242
1729,2302
1730,2289
1731,1967
1732,1679
1733,1886
1734,1999
1735,2007
1736,2053
1737,2077
1738,2181
1739,2249
1740,2192
1741,2019
1742,1855
1743,1680
1744,1585
1745,1659
1746,1714
1747,1712
1748,1719
1749,1741
1750,1723
1751,1697
1752,1699
1753,1728
1754,1747
1755,1753
1756,1091
1757,1296
1758,1967
1759,2192
1760,2246
1761,2251
1762,2000
1763,1740
1764,1927
1765,1997
1766,2015
1767,2045
1768,2034
1769,2128
1770,2256
1771,2241
1772,2052
1773,1799
1774,1519
1775,1481
1776,1600
1777,1642
1778,1713
1779,1812
1780,1859
1781,1834
1782,1781
1783,1757
1784,1757
1785,1750
1786,1744
1787,1691
1788,1033
1789,1886
1790,2131
1791,2177
1792,2182
1793,1950
1794,1698
1795,1929
1796,1993
1797,2065
1798,2170
1799,2192
1800,2242
1801,2306
1802,2186
1803,1901
1804,1583
1805,1379
1806,1456
1807,1519
1808,1584
1809,1727
1810,1834
1811,1870
1812,1841
1813,1794
1814,1783
1815,1779
1816,1771
1817,1759
1818,2231
1819,755
1820,1712
1821,2086
1822,2166
1823,2160
1824,1949
1825,1703
1826,1929
1827,2023
1828,2088
1829,2185
1830,2254
1831,2279
1832,2310
1833,2143
1834,1841
1835,1493
1836,1408
1837,1488
1838,1502
1839,1609
1840,1770
1841,1861
1842,1895
1843,1880
1844,1847
1845,1843
1846,1831
1847,1807
1848,1786
1849,1791
1850,871
1851,1522
1852,2054
1853,2189
1854,2204
1855,1984
1856,1705
1857,1906
1858,1984
1859,2063
1860,2180
1861,2256
1862,2258
1863,2226
1864,2026
1865,1713
1866,1427
1867,1461
1868,1497
1869,1535
1870,1681
1871,1807
1872,1863
1873,1870
1874,1854
1875,1840
1876,1833
1877,1838
1878,1824
1879,1813
1880,1821
1881,1641
1882,1168
1883,1957
1884,2160
1885,2209
1886,2064
1887,1776
1888,1938
1889,2009
1890,2033
1891,2137
1892,2224
1893,2230
1894,2181
1895,1986
1896,1648
1897,1424
1898,1478
1899,1489
1900,1567
1901,1714
1902,1809
1903,1858
1904,1872
1905,1853
1906,1842
1907,1842
1908,1834
1909,1830
1910,1822
1911,1847
1912,2892
1913,893
1914,1862
1915,2142
1916,2197
1917,2091
1918,1840
1919,1970
1920,2033
1921,2067
1922,2173
1923,2246
1924,2224
1925,2144
1926,1919
1927,1535
1928,1427
1929,1485
1930,1495
1931,1609
1932,1746
1933,1803
1934,1835
1935,1859
1936,1850
1937,1850
1938,1857
1939,1864
1940,1856
1941,1862
1942,1891
1943,1904
1944,880
1945,1614
1946,2063
1947,2176
1948,2143
1949,1921
1950,1950
1951,2032
1952,2059
1953,2160
1954,2225
1955,2202
1956,2102
1957,1875
1958,1519
1959,1429
1960,1473
1961,1503
1962,1642
1963,1765
1964,1814
1965,1838
1966,1839
1967,1830
1968,1840
1969,1857
1970,1868
1971,1870
1972,1873
1973,1867
1974,1859
1975,1269
1976,1361
1977,1984
1978,2163
1979,2171
1980,2000
1981,1995
1982,2061
1983,2059
1984,2160
1985,2236
1986,2215
1987,2111
1988,1874
1989,1501
1990,1411
1991,1443
1992,1520
1993,1664
1994,1763
1995,1808
1996,1831
1997,1841
1998,1840
1999,1840
2000,1850
2001,1867
2002,1872
2003,1883
2004,1888
2005,1887
2006,2365
2007,990
2008,1887
2009,2143
2010,2182
2011,2053
2012,2007
2013,2030
2014,2011
2015,2133
2016,2176
2017,2138
2018,2033
2019,1838
2020,1534
2021,1491
2022,1535
2023,1584
2024,1683
2025,1776
2026,1822
2027,1844
2028,1839
2029,1838
2030,1847
2031,1859
2032,1857
2033,1846
2034,1842
2035,1854
2036,1856
2037,1882
2038,860
2039,1645
2040,2019
2041,2112
2042,2064
2043,2081
2044,2102
2045,2029
2046,2128
2047,2192
2048,2185
2049,2077
2050,1899
2051,1584
2052,1467
2053,1483
2054,1535
2055,1671
2056,1744
2057,1775
2058,1801
2059,1821
2060,1842
2061,1867
2062,1881
2063,1879
2064,1871
2065,1867
2066,1867
2067,1866
2068,1877
2069,1226
2070,1390
2071,1967
2072,2127
2073,2078
2074,2082
2075,2096
2076,1989
2077,2091
2078,2180
2079,2176
2080,2085
2081,1918
2082,1605
2083,1455
2084,1471
2085,1535
2086,1671
2087,1774
2088,1814
2089,1829
2090,1817
2091,1819
2092,1850
2093,1867
2094,1869
2095,1868
2096,1863
2097,1870
2098,1879
2099,1890
2100,2016
2101,1126
2102,1918
2103,2130
2104,2115
2105,2066
2106,2097
2107,1939
2108,2007
2109,2134
2110,2143
2111,2075
2112,1931
2113,1666
2114,1517
2115,1531
2116,1571
2117,1664
2118,1741
2119,1775
2120,1805
2121,1821
2122,1830
2123,1822
2124,1830
2125,1856
2126,1874
2127,1885
2128,1887
2129,1882
2130,1875
2131,2359
2132,869
2133,1731
2134,2029
2135,2069
2136,2029
2137,2155
2138,2001
2139,2017
2140,2133
2141,2153
2142,2096
2143,1957
2144,1717
2145,1531
2146,1520
2147,1557
2148,1667
2149,1753
2150,1783
2151,1803
2152,1813
2153,1820
2154,1832
2155,1846
2156,1856
2157,1859
2158,1874
2159,1885
2160,1887
2161,1889
2162,1879
2163,1173
2164,1439
2165,1958
2166,2078
2167,1998
2168,2137
2169,2058
2170,1991
2171,2107
2172,2133
2173,2086
2174,1969
2175,1795
2176,1584
2177,1535
2178,1535
2179,1648
2180,1744
2181,1792
2182,1814
2183,1818
2184,1814
2185,1826
2186,1846
2187,1872
2188,1874
2189,1873
2190,1858
2191,1859
2192,1873
2193,1885
2194,1751
2195,1197
2196,1892
2197,2047
2198,1983
2199,2098
2200,2114
2201,2011
2202,2092
2203,2118
2204,2075
2205,1983
2206,1827
2207,1571
2208,1510
2209,1520
2210,1617
2211,1728
2212,1782
2213,1807
2214,1810
2215,1819
2216,1818
2217,1812
2218,1829
2219,1840
2220,1846
2221,1840
2222,1840
2223,1845
2224,1856
2225,2538
2226,1040
2227,1730
2228,2023
2229,2000
2230,1989
2231,2141
2232,2020
2233,2033
2234,2098
2235,2062
2236,1987
2237,1881
2238,1644
2239,1510
2240,1522
2241,1591
2242,1694
2243,1754
2244,1785
2245,1814
2246,1826
2247,1836
2248,1840
2249,1836
2250,1839
2251,1842
2252,1851
2253,1856
2254,1858
2255,1862
2256,1856
2257,1286
2258,1439
2259,1949
2260,2039
2261,1987
2262,2183
2263,2061
2264,1987
2265,2096
2266,2085
2267,2030
2268,1971
2269,1787
2270,1565
2271,1534
2272,1557
2273,1639
2274,1719
2275,1776
2276,1809
2277,1842
2278,1862
2279,1868
2280,1870
2281,1875
2282,1875
2283,1867
2284,1867
2285,1869
2286,1867
2287,1872
2288,1872
2289,1869
2290,1858
2291,1857
2292,1868
2293,1872
2294,1877
2295,1879
2296,1872
2297,1870
2298,1867
2299,1866
2300,1863
2301,1857
2302,1856
2303,1856
2304,1852
2305,1845
2306,1843
2307,1840
2308,1855
2309,1861
2310,1863
2311,1870
2312,1869
2313,1865
2314,1859
2315,1860
2316,1853
2317,1846
2318,1845
2319,1851
2320,1846
2321,1854
2322,1853
2323,1844
2324,1843
2325,1857
2326,1862
2327,1867
2328,1871
2329,1870
2330,1863
2331,1859
2332,1851
2333,1841
2334,1840
2335,1842
2336,1842
2337,1851
2338,1853
2339,1846
2340,1840
2341,1840
2342,1863
2343,1872
2344,1872
2345,1867
2346,1858
2347,1853
2348,1853
2349,1855
2350,1851
2351,1856
2352,1855
2353,1856
2354,1856
2355,1857
2356,1853
2357,1851
2358,1859
2359,1872
2360,1873
2361,1875
2362,1877
2363,1875
2364,1869
2365,1868
2366,1868
2367,1862
2368,1872
2369,1870
2370,1874
2371,1873
2372,1873
2373,1862
2374,1858
2375,1870
2376,1872
2377,1879
2378,1887
2379,1891
2380,1890
2381,1883
2382,1884
2383,1873
2384,1872
2385,1885
2386,1881
2387,1887
2388,1882
2389,1874
2390,1872
2391,1876
2392,1894
2393,1901
2394,1894
2395,1893
2396,1890
2397,1890
2398,1894
2399,1888
2400,1883
2401,1885
2402,1883
2403,1887
2404,1884
2405,1887
2406,1879
2407,1873
2408,1886
2409,1904
2410,1910
2411,1915
2412,1914
2413,1904
2414,1893
2415,1882
2416,1877
2417,1886
2418,1883
2419,1883
2420,1898
2421,1882
2422,1879
2423,1856
2424,1856
2425,1878
2426,1902
2427,1907
2428,1917
2429,1894
2430,1872
2431,1875
2432,1886
2433,1872
2434,1869
2435,1874
2436,1872
2437,1878
2438,1875
2439,1875
2440,1866
2441,1873
2442,1879
2443,1891
2444,1893
2445,1902
2446,1906
2447,1914
2448,1904
2449,1892
2450,1871
2451,1859
2452,1875
2453,1894
2454,1883
2455,1840
2456,1829
2457,1838
2458,1865
2459,1875
2460,1886
2461,1893
2462,1892
2463,1885
2464,1875
2465,1873
2466,1869
2467,1861
2468,1872
2469,1873
2470,1872
2471,1872
2472,1879
2473,1870
2474,1866
2475,1877
2476,1882
2477,1886
2478,1894
2479,1894
2480,1886
2481,1873
2482,1875
2483,1871
2484,1871
2485,1867
2486,1873
2487,1865
2488,1856
2489,1862
2490,1858
2491,1867
2492,1877
2493,1886
2494,1889
2495,1894
2496,1891
2497,1881
2498,1874
2499,1872
2500,1871
2501,1871
2502,1872
2503,1873
2504,1873
2505,1873
2506,1867
2507,1859
2508,1869
2509,1876
2510,1881
2511,1885
2512,1889
2513,1885
2514,1870
2515,1867
2516,1858
2517,1856
2518,1869
2519,1867
2520,1871
2521,1865
2522,1869
2523,1857
2524,1856
2525,1870
2526,1872
2527,1878
2528,1883
2529,1883
2530,1875
2531,1872
2532,1872
2533,1859
2534,1856
2535,1862
2536,1863
2537,1865
2538,1865
2539,1859
2540,1853
2541,1855
2542,1869
2543,1873
2544,1875
2545,1876
2546,1876
2547,1872
2548,1867
2549,1857
2550,1854
2551,1859
2552,1856
2553,1870
2554,1867
2555,1867
2556,1859
2557,1856
2558,1865
2559,1872
2560,1882
2561,1885
2562,1883
2563,1885
2564,1877
2565,1872
2566,1865
2567,1859
2568,1860
2569,1861
2570,1862
2571,1863
2572,1866
2573,1855
2574,1849
2575,1861
2576,1869
2577,1872
2578,1884
2579,1882
2580,1875
2581,1872
2582,1869
2583,1861
2584,1861
2585,1863
2586,1865
2587,1858
2588,1858
2589,1856
2590,1856
2591,1856
2592,1872
2593,1879
2594,1887
2595,1894
2596,1885
2597,1876
2598,1876
2599,1872
2600,1866
2601,1858
2602,1855
2603,1861
2604,1857
2605,1861
2606,1851
2607,1843
2608,1862
2609,1869
2610,1872
2611,1883
2612,1886
2613,1884
2614,1872
2615,1858
2616,1853
2617,1852
2618,1854
2619,1846
2620,1842
2621,1854
2622,1854
2623,1853
2624,1854
2625,1870
2626,1867
2627,1869
2628,1872
2629,1873
2630,1879
2631,1879
2632,1872
2633,1857
2634,1835
2635,1830
2636,1845
2637,1854
2638,1851
2639,1845
2640,1840
2641,1843
2642,1863
2643,1871
2644,1873
2645,1878
2646,1873
2647,1872
2648,1867
2649,1866
2650,1856
2651,1858
2652,1856
2653,1856
2654,1857
2655,1860
2656,1851
2657,1846
2658,1855
2659,1862
2660,1869
2661,1874
2662,1873
2663,1872
2664,1856
2665,1856
2666,1853
2667,1855
2668,1872
2669,1871
2670,1873
2671,1840
2672,1840
2673,1841
2674,1840
2675,1853
2676,1868
2677,1872
2678,1875
2679,1878
2680,1872
2681,1869
2682,1862
2683,1853
2684,1850
2685,1853
2686,1856
2687,1860
2688,1861
2689,1855
2690,1845
2691,1855
2692,1865
2693,1869
2694,1866
2695,1867
2696,1863
2697,1862
2698,1862
2699,1858
2700,1851
2701,1856
2702,1855
2703,1861
2704,1859
2705,1870
2706,1861
2707,1857
2708,1871
2709,1859
2710,1869
2711,1879
2712,1872
2713,1857
2714,1856
2715,1858
2716,1855
2717,1853
2718,1855
2719,1849
2720,1851
2721,1856
2722,1854
2723,1844
2724,1842
2725,1856
2726,1859
2727,1867
2728,1871
2729,1871
2730,1863
2731,1847
2732,1866
2733,1859
2734,1856
2735,1857
2736,1858
2737,1860
2738,1860
2739,1853
2740,1843
2741,1856
2742,1865
2743,1872
2744,1879
2745,1885
2746,1886
2747,1875
2748,1863
2749,1847
2750,1840
2751,1853
2752,1856
2753,1859
2754,1853
2755,1856
2756,1845
2757,1841
2758,1860
2759,1869
2760,1873
2761,1873
2762,1876
2763,1872
2764,1869
2765,1865
2766,1856
2767,1854
2768,1859
2769,1859
2770,1859
2771,1858
2772,1855
2773,1849
2774,1849
2775,1865
2776,1872
2777,1875
2778,1879
2779,1874
2780,1872
2781,1859
2782,1859
2783,1856
2784,1857
2785,1867
2786,1857
2787,1856
2788,1863
2789,1857
2790,1850
2791,1856
2792,1867
2793,1872
2794,1877
2795,1877
2796,1874
2797,1871
2798,1866
2799,1861
2800,1855
2801,1858
2802,1857
2803,1860
2804,1860
2805,1860
2806,1854
2807,1847
2808,1863
2809,1870
2810,1873
2811,1881
2812,1882
2813,1876
2814,1856
2815,1851
2816,1843
2817,1842
2818,1856
2819,1856
2820,1856
2821,1862
2822,1861
2823,1854
2824,1855
2825,1867
2826,1872
2827,1876
2828,1885
2829,1879
2830,1875
2831,1872
2832,1866
2833,1856
2834,1858
2835,1863
2836,1860
2837,1861
2838,1867
2839,1862
2840,1856
2841,1863
2842,1873
2843,1872
2844,1861
2845,1857
2846,1858
2847,1856
2848,1855
2849,1852
2850,1849
2851,1844
2852,1847
2853,1851
2854,1862
2855,1865
2856,1856
2857,1849
2858,1856
2859,1861
2860,1871
2861,1872
2862,1869
2863,1872
2864,1868
2865,1870
2866,1863
2867,1856
2868,1862
2869,1861
2870,1866
2871,1865
2872,1860
2873,1853
2874,1843
2875,1857
2876,1869
2877,1872
2878,1873
2879,1872
2880,1871
2881,1866
2882,1862
2883,1857
2884,1856
2885,1855
2886,1856
2887,1858
2888,1857
2889,1855
2890,1850
2891,1846
2892,1856
2893,1866
2894,1872
2895,1873
2896,1872
2897,1871
2898,1869
2899,1862
2900,1860
2901,1861
2902,1856
2903,1861
2904,1847
2905,1845
2906,1841
2907,1840
2908,1859
2909,1866
2910,1872
2911,1872
2912,1874
2913,1872
2914,1869
2915,1863
2916,1858
2917,1855
2918,1856
2919,1859
2920,1855
2921,1863
2922,1861
2923,1849
2924,1845
2925,1856
2926,1862
2927,1872
2928,1873
2929,1872
2930,1872
2931,1865
2932,1863
2933,1857
2934,1853
2935,1856
2936,1853
2937,1854
2938,1856
2939,1844
2940,1840
2941,1846
2942,1863
2943,1869
2944,1871
2945,1872
2946,1870
2947,1870
2948,1865
2949,1860
2950,1858
2951,1856
2952,1855
2953,1861
2954,1857
2955,1856
2956,1855
2957,1847
2958,1856
2959,1868
2960,1873
2961,1873
2962,1872
2963,1869
2964,1858
2965,1857
2966,1856
2967,1849
2968,1858
2969,1856
2970,1867
2971,1866
2972,1865
2973,1853
2974,1856
2975,1865
2976,1872
2977,1873
2978,1876
2979,1875
2980,1871
2981,1866
2982,1862
2983,1856
2984,1856
2985,1856
2986,1858
2987,1858
2988,1861
2989,1856
2990,1847
2991,1856
2992,1869
2993,1875
2994,1872
2995,1875
2996,1870
2997,1862
2998,1859
2999,1851
3000,1850
3001,1858
3002,1857
3003,1858
3004,1859
3005,1861
3006,1854
3007,1847
3008,1859
3009,1869
3010,1872
3011,1873
3012,1872
3013,1870
3014,1863
3015,1865
3016,1861
3017,1854
3018,1856
3019,1855
3020,1853
3021,1851
3022,1848
3023,1840
3024,1841
3025,1854
3026,1859
3027,1866
3028,1866
3029,1856
3030,1861
3031,1853
3032,1863
3033,1853
3034,1854
3035,1858
3036,1861
3037,1862
3038,1861
3039,1855
3040,1846
3041,1855
3042,1866
3043,1871
3044,1875
3045,1875
3046,1870
3047,1861
3048,1862
3049,1862
3050,1857
3051,1859
3052,1852
3053,1859
3054,1856
3055,1856
3056,1846
3057,1842
3058,1863
3059,1871
3060,1873
3061,1875
3062,1876
3063,1872
3064,1872
3065,1869
3066,1861
3067,1858
3068,1862
3069,1858
3070,1863
3071,1860
3072,1857
3073,1852
3074,1855
3075,1866
3076,1870
3077,1872
3078,1873
3079,1871
3080,1865
3081,1867
3082,1865
3083,1861
3084,1856
3085,1854
3086,1853
3087,1852
3088,1859
3089,1854
3090,1845
3091,1857
3092,1866
3093,1871
3094,1872
3095,1872
3096,1872
3097,1867
3098,1861
3099,1858
3100,1855
3101,1856
3102,1854
3103,1858
3104,1859
3105,1863
3106,1853
3107,1847
3108,1858
3109,1867
3110,1871
3111,1875
3112,1877
3113,1869
3114,1840
3115,1848
3116,1840
3117,1840
3118,1855
3119,1856
3120,1854
3121,1858
3122,1857
3123,1853
3124,1851
3125,1861
3126,1871
3127,1872
3128,1872
3129,1865
3130,1862
3131,1872
3132,1866
3133,1851
3134,1851
3135,1844
3136,1850
3137,1860
3138,1862
3139,1854
3140,1847
3141,1856
3142,1866
3143,1870
3144,1871
3145,1867
3146,1859
3147,1859
3148,1855
3149,1851
3150,1856
3151,1863
3152,1865
3153,1862
3154,1861
3155,1859
3156,1861
3157,1861
3158,1875
3159,1866
3160,1863
3161,1873
3162,1875
3163,1874
3164,1870
3165,1869
3166,1859
3167,1850
3168,1847
3169,1856
3170,1866
3171,1871
3172,1845
3173,1840
3174,1844
3175,1858
3176,1862
3177,1867
3178,1874
3179,1873
3180,1870
3181,1867
3182,1859
3183,1854
3184,1855
3185,1859
3186,1861
3187,1859
3188,1867
3189,1872
3190,1870
3191,1872
3192,1863
3193,1831
3194,1860
3195,1889
3196,1884
3197,1862
3198,1863
3199,1861
3200,1857
3201,1850
3202,1840
3203,1854
3204,1851
3205,1854
3206,1843
3207,1842
3208,1862
3209,1860
3210,1855
3211,1858
3212,1872
3213,1895
3214,1913
3215,1919
3216,1890
3217,1830
3218,1789
3219,1811
3220,1830
3221,1843
3222,1841
3223,1840
3224,1854
3225,1865
3226,1867
3227,1872
3228,1873
3229,1872
3230,1871
3231,1866
3232,1865
3233,1858
3234,1852
3235,1853
3236,1856
3237,1857
3238,1858
3239,1855
3240,1846
3241,1858
3242,1872
3243,1879
3244,1878
3245,1873
3246,1870
3247,1872
3248,1874
3249,1862
3250,1855
3251,1861
3252,1857
3253,1866
3254,1859
3255,1861
3256,1851
3257,1845
3258,1856
3259,1869
3260,1885
3261,1892
3262,1882
3263,1866
3264,1843
3265,1869
3266,1872
3267,1845
3268,1827
3269,1847
3270,1862
3271,1863
3272,1860
3273,1847
3274,1853
3275,1863
3276,1869
3277,1872
3278,1874
3279,1872
3280,1869
3281,1859
3282,1857
3283,1854
3284,1856
3285,1857
3286,1862
3287,1863
3288,1868
3289,2234
3290,693
3291,1818
3292,2219
3293,2313
3294,2353
3295,2288
3296,1933
3297,1787
3298,1875
3299,1821
3300,1826
3301,1873
3302,1906
3303,1975
3304,2053
3305,2095
3306,2087
3307,2065
3308,2003
3309,1906
3310,1825
3311,1739
3312,1682
3313,1692
3314,1680
3315,1648
3316,1600
3317,1599
3318,1647
3319,1680
3320,1723
3321,819
3322,1447
3323,2023
3324,2193
3325,2261
3326,2235
3327,1872
3328,1731
3329,1967
3330,1957
3331,1907
3332,1915
3333,1938
3334,2032
3335,2106
3336,2157
3337,2145
3338,2027
3339,1879
3340,1762
3341,1679
3342,1724
3343,1776
3344,1750
3345,1727
3346,1749
3347,1736
3348,1699
3349,1700
3350,1722
3351,1743
3352,1875
3353,992
3354,1849
3355,2143
3356,2218
3357,2208
3358,1962
3359,1844
3360,2058
3361,2028
3362,1957
3363,1929
3364,1947
3365,2011
3366,2133
3367,2232
3368,2227
3369,2083
3370,1914
3371,1706
3372,1648
3373,1702
3374,1722
3375,1751
3376,1808
3377,1846
3378,1831
3379,1794
3380,1781
3381,1777
3382,1770
3383,2313
3384,541
3385,1646
3386,2055
3387,2191
3388,2203
3389,1955
3390,1819
3391,2012
3392,1979
3393,1943
3394,1961
3395,1978
3396,2047
3397,2199
3398,2279
3399,2175
3400,1966
3401,1715
3402,1490
3403,1531
3404,1580
3405,1577
3406,1629
3407,1705
3408,1747
3409,1749
3410,1752
3411,1772
3412,1808
3413,1840
3414,1842
3415,666
3416,1584
3417,2073
3418,2224
3419,2233
3420,1995
3421,1808
3422,1919
3423,1928
3424,1968
3425,2038
3426,2091
3427,2193
3428,2319
3429,2308
3430,2110
3431,1842
3432,1520
3433,1399
3434,1486
3435,1515
3436,1600
3437,1728
3438,1824
3439,1856
3440,1858
3441,1861
3442,1858
3443,1842
3444,1823
3445,1808
3446,1295
3447,1231
3448,1935
3449,2134
3450,2179
3451,2001
3452,1916
3453,2022
3454,1983
3455,1988
3456,1991
3457,2003
3458,2115
3459,2251
3460,2239
3461,2058
3462,1806
3463,1535
3464,1529
3465,1555
3466,1568
3467,1663
3468,1778
3469,1830
3470,1854
3471,1854
3472,1851
3473,1838
3474,1811
3475,1811
3476,1814
3477,2816
3478,837
3479,1862
3480,2178
3481,2257
3482,2101
3483,2001
3484,2070
3485,1984
3486,1974
3487,1959
3488,1936
3489,1984
3490,2109
3491,2086
3492,1906
3493,1659
3494,1507
3495,1572
3496,1589
3497,1619
3498,1699
3499,1781
3500,1822
3501,1846
3502,1856
3503,1866
3504,1858
3505,1847
3506,1821
3507,1818
3508,1856
3509,637
3510,1682
3511,2100
3512,2211
3513,2111
3514,2002
3515,2035
3516,1986
3517,2029
3518,2039
3519,2055
3520,2112
3521,2192
3522,2102
3523,1841
3524,1529
3525,1488
3526,1520
3527,1555
3528,1680
3529,1803
3530,1859
3531,1874
3532,1872
3533,1870
3534,1855
3535,1835
3536,1823
3537,1820
3538,1837
3539,1846
3540,1089
3541,1354
3542,1947
3543,2126
3544,2111
3545,2061
3546,2096
3547,2033
3548,2091
3549,2146
3550,2160
3551,2202
3552,2237
3553,2062
3554,1705
3555,1425
3556,1411
3557,1423
3558,1519
3559,1677
3560,1767
3561,1815
3562,1841
3563,1850
3564,1846
3565,1853
3566,1847
3567,1840
3568,1852
3569,1874
3570,1900
3571,2832
3572,923
3573,1883
3574,2135
3575,2184
3576,2080
3577,2095
3578,2008
3579,2059
3580,2181
3581,2192
3582,2154
3583,2117
3584,1905
3585,1520
3586,1394
3587,1456
3588,1504
3589,1610
3590,1711
3591,1788
3592,1819
3593,1830
3594,1823
3595,1841
3596,1856
3597,1843
3598,1837
3599,1839
3600,1850
3601,1865
3602,1884
3603,679
3604,1672
3605,2038
3606,2139
3607,2064
3608,2134
3609,2093
3610,2093
3611,2247
3612,2275
3613,2192
3614,2064
3615,1818
3616,1445
3617,1373
3618,1393
3619,1488
3620,1649
3621,1744
3622,1790
3623,1807
3624,1821
3625,1833
3626,1848
3627,1867
3628,1872
3629,1855
3630,1839
3631,1845
3632,1855
3633,1862
3634,1006
3635,1452
3636,1975
3637,2123
3638,2091
3639,2186
3640,2119
3641,2032
3642,2209
3643,2256
3644,2185
3645,2062
3646,1819
3647,1466
3648,1379
3649,1391
3650,1513
3651,1665
3652,1744
3653,1794
3654,1830
3655,1840
3656,1840
3657,1859
3658,1872
3659,1857
3660,1860
3661,1858
3662,1845
3663,1843
3664,1859
3665,2247
3666,1010
3667,1840
3668,2059
3669,2057
3670,2130
3671,2169
3672,1986
3673,2113
3674,2246
3675,2211
3676,2090
3677,1875
3678,1531
3679,1420
3680,1435
3681,1535
3682,1691
3683,1761
3684,1791
3685,1809
3686,1811
3687,1829
3688,1851
3689,1853
3690,1853
3691,1856
3692,1850
3693,1858
3694,1881
3695,1904
3696,2384
3697,818
3698,1762
3699,2042
3700,2064
3701,2059
3702,2165
3703,2005
3704,2064
3705,2212
3706,2175
3707,2073
3708,1905
3709,1603
3710,1489
3711,1520
3712,1612
3713,1725
3714,1789
3715,1821
3716,1805
3717,1779
3718,1777
3719,1810
3720,1829
3721,1850
3722,1856
3723,1844
3724,1851
3725,1870
3726,1878
3727,1883
3728,1107
3729,1483
3730,1968
3731,2079
3732,2032
3733,2193
3734,2096
3735,1999
3736,2174
3737,2226
3738,2157
3739,1986
3740,1701
3741,1479
3742,1461
3743,1506
3744,1640
3745,1743
3746,1789
3747,1810
3748,1829
3749,1825
3750,1841
3751,1855
3752,1871
3753,1872
3754,1857
3755,1850
3756,1851
3757,1859
3758,1874
3759,1883
3760,1150
3761,1874
3762,2047
3763,2022
3764,2155
3765,2150
3766,1953
3767,2105
3768,2221
3769,2163
3770,2033
3771,1806
3772,1519
3773,1456
3774,1488
3775,1626
3776,1752
3777,1809
3778,1840
3779,1843
3780,1838
3781,1835
3782,1834
3783,1838
3784,1846
3785,1847
3786,1851
3787,1859
3788,1874
3789,1881
3790,2593
3791,911
3792,1762
3793,2018
3794,2029
3795,2091
3796,2176
3797,1959
3798,2043
3799,2192
3800,2165
3801,2066
3802,1906
3803,1611
3804,1490
3805,1517
3806,1581
3807,1681
3808,1772
3809,1808
3810,1825
3811,1831
3812,1839
3813,1854
3814,1868
3815,1879
3816,1871
3817,1859
3818,1843
3819,1856
3820,1859
3821,1872
3822,1052
3823,1535
3824,1953
3825,2038
3826,2032
3827,2237
3828,2064
3829,2029
3830,2199
3831,2207
3832,2110
3833,1959
3834,1665
3835,1485
3836,1473
3837,1533
3838,1663
3839,1740
3840,1775
3841,1808
3842,1839
3843,1847
3844,1856
3845,1867
3846,1878
3847,1882
3848,1871
3849,1856
3850,1866
3851,1883
3852,1898
3853,1535
3854,1314
3855,1918
3856,2035
3857,1971
3858,2159
3859,2106
3860,1968
3861,2142
3862,2211
3863,2133
3864,2000
3865,1760
3866,1520
3867,1510
3868,1555
3869,1641
3870,1725
3871,1769
3872,1791
3873,1808
3874,1829
3875,1857
3876,1872
3877,1883
3878,1899
3879,1887
3880,1869
3881,1862
3882,1862
3883,1858
3884,2963
3885,966
3886,1755
3887,2007
3888,2019
3889,2103
3890,2175
3891,1963
3892,2065
3893,2211
3894,2170
3895,2071
3896,1897
3897,1595
3898,1499
3899,1493
3900,1593
3901,1712
3902,1775
3903,1808
3904,1837
3905,1847
3906,1847
3907,1854
3908,1872
3909,1872
3910,1867
3911,1861
3912,1857
3913,1872
3914,1885
3915,1897
3916,1890
3917,1895
3918,1889
3919,1874
3920,1849
3921,1841
3922,1840
3923,1837
3924,1840
3925,1847
3926,1855
3927,1863
3928,1869
3929,1868
3930,1874
3931,1872
3932,1861
3933,1856
3934,1860
3935,1855
3936,1855
3937,1847
3938,1840
3939,1831
3940,1837
3941,1851
3942,1856
3943,1861
3944,1858
3945,1856
3946,1858
3947,1859
3948,1862
3949,1856
3950,1851
3951,1850
3952,1853
3953,1856
3954,1849
3955,1851
3956,1840
3957,1842
3958,1850
3959,1858
3960,1877
3961,1873
3962,1856
3963,1847
3964,1852
3965,1850
3966,1830
3967,1839
3968,1843
3969,1850
3970,1857
3971,1862
3972,1857
3973,1850
3974,1855
3975,1866
3976,1872
3977,1873
3978,1877
3979,1872
3980,1871
3981,1860
3982,1851
3983,1843
3984,1847
3985,1845
3986,1849
3987,1845
3988,1856
3989,1847
3990,1846
3991,1858
3992,1872
3993,1879
3994,1872
3995,1870
3996,1866
3997,1867
3998,1866
3999,1859
4000,1856
4001,1856
4002,1853
4003,1857
4004,1863
4005,1862
4006,1853
4007,1856
4008,1866
4009,1872
4010,1878
4011,1885
4012,1883
4013,1878
4014,1869
4015,1867
4016,1855
4017,1851
4018,1850
4019,1858
4020,1867
4021,1872
4022,1861
4023,1851
4024,1861
4025,1873
4026,1882
4027,1886
4028,1882
4029,1881
4030,1882
4031,1879
4032,1872
4033,1870
4034,1871
4035,1872
4036,1886
4037,1877
4038,1872
4039,1860
4040,1863
4041,1877
4042,1887
4043,1889
4044,1881
4045,1877
4046,1883
4047,1883
4048,1876
4049,1869
4050,1869
4051,1869
4052,1875
4053,1878
4054,1879
4055,1875
4056,1870
4057,1871
4058,1882
4059,1881
4060,1878
4061,1889
4062,1889
4063,1882
4064,1879
4065,1874
4066,1871
4067,1868
4068,1871
4069,1873
4070,1882
4071,1883
4072,1872
4073,1866
4074,1856
4075,1863
4076,1875
4077,1887
4078,1895
4079,1882
4080,1874
4081,1872
4082,1871
4083,1862
4084,1867
4085,1865
4086,1871
4087,1872
4088,1869
4089,1859
4090,1856
4091,1866
4092,1872
4093,1868
4094,1872
4095,1875
4096,1877
4097,1870
4098,1872
4099,1870
4100,1867
4101,1872
4102,1871
4103,1872
4104,1865
4105,1857
4106,1853
4107,1857
4108,1872
4109,1882
4110,1883
4111,1885
4112,1882
4113,1878
4114,1872
4115,1867
4116,1867
4117,1871
4118,1871
4119,1875
4120,1867
4121,1862
4122,1860
4123,1857
4124,1869
4125,1877
4126,1874
4127,1878
4128,1885
4129,1879
4130,1873
4131,1870
4132,1862
4133,1867
4134,1870
4135,1870
4136,1865
4137,1872
4138,1854
4139,1843
4140,1853
4141,1851
4142,1865
4143,1870
4144,1883
4145,1885
4146,1879
4147,1875
4148,1872
4149,1869
4150,1859
4151,1862
4152,1856
4153,1859
4154,1862
4155,1865
4156,1863
4157,1866
4158,1874
4159,1878
4160,1883
4161,1886
4162,1883
4163,1877
4164,1870
4165,1862
4166,1855
4167,1855
4168,1865
4169,1864
4170,1865
4171,1862
4172,1861
4173,1863
4174,1872
4175,1872
4176,1875
4177,1883
4178,1886
4179,1889
4180,1882
4181,1879
4182,1871
4183,1869
4184,1868
4185,1866
4186,1872
4187,1872
4188,1873
4189,1866
4190,1865
4191,1881
4192,1889
4193,1887
4194,1872
4195,1872
4196,1872
4197,1869
4198,1875
4199,1872
4200,1871
4201,1869
4202,1870
4203,1872
4204,1872
4205,1874
4206,1865
4207,1863
4208,1874
4209,1879
4210,1883
4211,1883
4212,1881
4213,1876
4214,1872
4215,1873
4216,1870
4217,1871
4218,1872
4219,1871
4220,1872
4221,1881
4222,1872
4223,1857
4224,1857
4225,1869
4226,1871
4227,1875
4228,1878
4229,1874
4230,1878
4231,1877
4232,1872
4233,1869
4234,1872
4235,1868
4236,1872
4237,1867
4238,1867
4239,1859
4240,1859
4241,1872
4242,1878
4243,1881
4244,1886
4245,1884
4246,1880
4247,1873
4248,1867
4249,1859
4250,1859
4251,1872
4252,1881
4253,1890
4254,1867
4255,1844
4256,1840
4257,1862
4258,1867
4259,1854
4260,1861
4261,1872
4262,1874
4263,1870
4264,1863
4265,1861
4266,1852
4267,1856
4268,1857
4269,1862
4270,1863
4271,1861
4272,1853
4273,1847
4274,1862
4275,1872
4276,1876
4277,1875
4278,1875
4279,1872
4280,1870
4281,1866
4282,1856
4283,1854
4284,1854
4285,1853
4286,1856
4287,1855
4288,1856
4289,1842
4290,1850
4291,1865
4292,1870
4293,1873
4294,1872
4295,1873
4296,1871
4297,1866
4298,1859
4299,1854
4300,1856
4301,1861
4302,1858
4303,1863
4304,1866
4305,1859
4306,1852
4307,1857
4308,1868
4309,1871
4310,1872
4311,1873
4312,1872
4313,1869
4314,1855
4315,1849
4316,1841
4317,1839
4318,1845
4319,1850
4320,1847
4321,1857
4322,1854
4323,1845
4324,1857
4325,1862
4326,1866
4327,1872
4328,1882
4329,1878
4330,1865
4331,1861
4332,1855
4333,1853
4334,1859
4335,1854
4336,1858
4337,1857
4338,1854
4339,1843
4340,1849
4341,1870
4342,1874
4343,1878
4344,1872
4345,1872
4346,1870
4347,1868
4348,1862
4349,1843
4350,1840
4351,1840
4352,1849
4353,1853
4354,1857
4355,1863
4356,1867
4357,1872
4358,1871
4359,1861
4360,1872
4361,1885
4362,1874
4363,1869
4364,1866
4365,1861
4366,1841
4367,1854
4368,1855
4369,1859
4370,1866
4371,1867
4372,1857
4373,1853
4374,1857
4375,1869
4376,1872
4377,1872
4378,1872
4379,1872
4380,1867
4381,1865
4382,1857
4383,1854
4384,1857
4385,1856
4386,1860
4387,1861
4388,1867
4389,1861
4390,1861
4391,1869
4392,1866
4393,1859
4394,1861
4395,1867
4396,1858
4397,1855
4398,1851
4399,1845
4400,1850
4401,1862
4402,1868
4403,1872
4404,1862
4405,1856
4406,1855
4407,1849
4408,1847
4409,1842
4410,1853
4411,1863
4412,1866
4413,1867
4414,1867
4415,1854
4416,1849
4417,1856
4418,1840
4419,1847
4420,1855
4421,1858
4422,1847
4423,1844
4424,1856
4425,1871
4426,1873
4427,1876
4428,1875
4429,1872
4430,1872
4431,1867
4432,1861
4433,1859
4434,1851
4435,1847
4436,1858
4437,1863
4438,1869
4439,1858
4440,1851
4441,1861
4442,1878
4443,1882
4444,1884
4445,1877
4446,1872
4447,1872
4448,1870
4449,1859
4450,1860
4451,1866
4452,1868
4453,1867
4454,1869
4455,1870
4456,1872
4457,1898
4458,1922
4459,1934
4460,1923
4461,1887
4462,1833
4463,1801
4464,1815
4465,1834
4466,1840
4467,1848
4468,1854
4469,1859
4470,1862
4471,1860
4472,1851
4473,1840
4474,1857
4475,1870
4476,1873
4477,1876
4478,1877
4479,1872
4480,1872
4481,1873
4482,1871
4483,1869
4484,1872
4485,1872
4486,1854
4487,1853
4488,1872
4489,1856
4490,1843
4491,1860
4492,1871
4493,1876
4494,1872
4495,1866
4496,1856
4497,1856
4498,1860
4499,1856
4500,1857
4501,1859
4502,1857
4503,1857
4504,1861
4505,1856
4506,1847
4507,1854
4508,1862
4509,1870
4510,1872
4511,1872
4512,1872
4513,1872
4514,1874
4515,1877
4516,1872
4517,1865
4518,1855
4519,1850
4520,1826
4521,1826
4522,1837
4523,1840
4524,1853
4525,1867
4526,1874
4527,1875
4528,1871
4529,1862
4530,1859
4531,1858
4532,1854
4533,1852
4534,1846
4535,1844
4536,1871
4537,1887
4538,1898
4539,1891
4540,1858
4541,1808
4542,1825
4543,1855
4544,1858
4545,1871
4546,1870
4547,1843
4548,1850
4549,1851
4550,1851
4551,1855
4552,1856
4553,1862
4554,1859
4555,1856
4556,1848
4557,1862
4558,1887
4559,1917
4560,1931
4561,1900
4562,1862
4563,1840
4564,1819
4565,1839
4566,1825
4567,1825
4568,1842
4569,1855
4570,1856
4571,1854
4572,1850
4573,1845
4574,1859
4575,1870
4576,1872
4577,1874
4578,1872
4579,1871
4580,1862
4581,1862
4582,1855
4583,1849
4584,1847
4585,1845
4586,1856
4587,1847
4588,1849
4589,1846
4590,1851
4591,1859
4592,1867
4593,1872
4594,1873
4595,1873
4596,1872
4597,1861
4598,1856
4599,1850
4600,1854
4601,1849
4602,1853
4603,1856
4604,1855
4605,1847
4606,1845
4607,1854
4608,1863
4609,1871
4610,1873
4611,1872
4612,1872
4613,1869
4614,1859
4615,1859
4616,1853
4617,1856
4618,1858
4619,1859
4620,1860
4621,1861
4622,1853
4623,1847
4624,1859
4625,1872
4626,1872
4627,1872
4628,1874
4629,1873
4630,1872
4631,1872
4632,1863
4633,1859
4634,1867
4635,1867
4636,1871
4637,1863
4638,1853
4639,1847
4640,1853
4641,1859
4642,1863
4643,1871
4644,1869
4645,1872
4646,1868
4647,1862
4648,1865
4649,1856
4650,1856
4651,1856
4652,1867
4653,1872
4654,1875
4655,1872
4656,1866
4657,1871
4658,1874
4659,1885
4660,1882
4661,1872
4662,1871
4663,1872
4664,1870
4665,1869
4666,1862
4667,1869
4668,1863
4669,1870
4670,1869
4671,1869
4672,1858
4673,1855
4674,1859
4675,1872
4676,1873
4677,1876
4678,1881
4679,1875
4680,1872
4681,1872
4682,1859
4683,1858
4684,1861
4685,1862
4686,1870
4687,1869
4688,1859
4689,1851
4690,1855
4691,1869
4692,1873
4693,1874
4694,1878
4695,1875
4696,1872
4697,1865
4698,1861
4699,1853
4700,1851
4701,1853
4702,1854
4703,1851
4704,1852
4705,1844
4706,1840
4707,1843
4708,1862
4709,1869
4710,1872
4711,1872
4712,1865
4713,1859
4714,1857
4715,1856
4716,1850
4717,1856
4718,1847
4719,1856
4720,1854
4721,1862
4722,1853
4723,1853
4724,1863
4725,1872
4726,1875
4727,1879
4728,1875
4729,1873
4730,1873
4731,1865
4732,1850
4733,1841
4734,1847
4735,1847
4736,1855
4737,1857
4738,1854
4739,1850
4740,1851
4741,1856
4742,1871
4743,1874
4744,1877
4745,1875
4746,1872
4747,1871
4748,1867
4749,1859
4750,1859
4751,1860
4752,1863
4753,1867
4754,1867
4755,1858
4756,1851
4757,1858
4758,1868
4759,1872
4760,1872
4761,1876
4762,1873
4763,1865
4764,1856
4765,1851
4766,1849
4767,1853
4768,1856
4769,1858
4770,1857
4771,1859
4772,1847
4773,1847
4774,1858
4775,1866
4776,1869
4777,1873
4778,1875
4779,1871
4780,1867
4781,1862
4782,1858
4783,1856
4784,1857
4785,1855
4786,1859
4787,1858
4788,1856
4789,1854
4790,1855
4791,1869
4792,1872
4793,1872
4794,1872
4795,1870
4796,1867
4797,1865
4798,1866
4799,1856
4800,1855
4801,1851
4802,1857
4803,1856
4804,1857
4805,1853
4806,1847
4807,1855
4808,1863
4809,1872
4810,1873
4811,1872
4812,1871
4813,1867
4814,1862
4815,1856
4816,1853
4817,1856
4818,1841
4819,1855
4820,1854
4821,1855
4822,1847
4823,1848
4824,1857
4825,1863
4826,1865
4827,1869
4828,1867
4829,1858
4830,1860
4831,1855
4832,1851
4833,1850
4834,1856
4835,1854
4836,1856
4837,1857
4838,1855
4839,1847
4840,1851
4841,1863
4842,1871
4843,1872
4844,1875
4845,1872
4846,1872
4847,1867
4848,1862
4849,1858
4850,1858
4851,1856
4852,1857
4853,1862
4854,1857
4855,1851
4856,1842
4857,1850
4858,1866
4859,1871
4860,1873
4861,1875
4862,1872
4863,1869
4864,1862
4865,1853
4866,1847
4867,1855
4868,1856
4869,1859
4870,1858
4871,1856
4872,1850
4873,1845
4874,1858
4875,1867
4876,1874
4877,1874
4878,1872
4879,1871
4880,1866
4881,1859
4882,1855
4883,1853
4884,1847
4885,1851
4886,1857
4887,1855
4888,1859
4889,1847
4890,1845
4891,1856
4892,1866
4893,1872
4894,1873
4895,1872
4896,1871
4897,1867
4898,1859
4899,1855
4900,1858
4901,1859
4902,1863
4903,1860
4904,1862
4905,1853
4906,1845
4907,1857
4908,1868
4909,1872
4910,1872
4911,1876
4912,1872
4913,1870
4914,1858
4915,1852
4916,1847
4917,1955
4918,1225
4919,1994
4920,2221
4921,2265
4922,2279
4923,2258
4924,2103
4925,1837
4926,1718
4927,1801
4928,1863
4929,1962
4930,2087
4931,2175
4932,2235
4933,2256
4934,2199
4935,2096
4936,1947
4937,1797
4938,1686
4939,1598
4940,1531
4941,1504
4942,1489
4943,1474
4944,1483
4945,1535
4946,1609
4947,1664
4948,2073
4949,689
4950,1706
4951,2071
4952,2176
4953,2225
4954,2247
4955,2080
4956,1767
4957,1734
4958,1914
4959,1971
4960,2079
4961,2202
4962,2262
4963,2275
4964,2224
4965,2113
4966,1917
4967,1765
4968,1679
4969,1634
4970,1635
4971,1648
4972,1617
4973,1569
4974,1571
4975,1613
4976,1639
4977,1676
4978,1712
4979,1729
4980,803
4981,1514
4982,2074
4983,2259
4984,2318
4985,2343
4986,2206
4987,1779
4988,1631
4989,1840
4990,1950
4991,2099
4992,2207
4993,2224
4994,2245
4995,2219
4996,2096
4997,1875
4998,1706
4999,1584
5000,1573
5001,1642
5002,1671
5003,1671
5004,1681
5005,1696
5006,1692
5007,1693
5008,1705
5009,1722
5010,1741
5011,1556
5012,1137
5013,1943
5014,2209
5015,2285
5016,2295
5017,2186
5018,1741
5019,1674
5020,1923
5021,2016
5022,2121
5023,2157
5024,2147
5025,2240
5026,2269
5027,2130
5028,1872
5029,1627
5030,1429
5031,1458
5032,1535
5033,1570
5034,1618
5035,1690
5036,1744
5037,1745
5038,1744
5039,1761
5040,1803
5041,1830
5042,2941
5043,828
5044,1862
5045,2187
5046,2257
5047,2261
5048,2161
5049,1766
5050,1712
5051,1941
5052,2042
5053,2182
5054,2247
5055,2224
5056,2287
5057,2260
5058,2023
5059,1721
5060,1442
5061,1326
5062,1415
5063,1489
5064,1532
5065,1651
5066,1756
5067,1808
5068,1818
5069,1824
5070,1826
5071,1831
5072,1803
5073,1779
5074,661
5075,1632
5076,2103
5077,2224
5078,2237
5079,2163
5080,1786
5081,1728
5082,1950
5083,2058
5084,2203
5085,2290
5086,2315
5087,2353
5088,2301
5089,2039
5090,1725
5091,1424
5092,1328
5093,1413
5094,1479
5095,1535
5096,1674
5097,1776
5098,1813
5099,1809
5100,1817
5101,1840
5102,1854
5103,1849
5104,1843
5105,1076
5106,1332
5107,2037
5108,2224
5109,2250
5110,2177
5111,1779
5112,1691
5113,1910
5114,1958
5115,2096
5116,2224
5117,2320
5118,2394
5119,2369
5120,2134
5121,1799
5122,1435
5123,1293
5124,1395
5125,1438
5126,1515
5127,1660
5128,1776
5129,1830
5130,1843
5131,1840
5132,1835
5133,1846
5134,1857
5135,1834
5136,2647
5137,875
5138,1890
5139,2192
5140,2241
5141,2211
5142,1840
5143,1639
5144,1888
5145,1964
5146,2085
5147,2192
5148,2285
5149,2365
5150,2394
5151,2224
5152,1897
5153,1525
5154,1344
5155,1399
5156,1424
5157,1477
5158,1628
5159,1762
5160,1838
5161,1870
5162,1871
5163,1863
5164,1861
5165,1867
5166,1867
5167,2035
5168,641
5169,1739
5170,2166
5171,2277
5172,2256
5173,1925
5174,1675
5175,1901
5176,1957
5177,2054
5178,2154
5179,2233
5180,2313
5181,2375
5182,2226
5183,1933
5184,1583
5185,1384
5186,1438
5187,1439
5188,1463
5189,1581
5190,1712
5191,1801
5192,1851
5193,1861
5194,1858
5195,1854
5196,1867
5197,1873
5198,1874
5199,1008
5200,1424
5201,2081
5202,2256
5203,2283
5204,2055
5205,1648
5206,1862
5207,1959
5208,2022
5209,2127
5210,2227
5211,2293
5212,2363
5213,2262
5214,1966
5215,1607
5216,1360
5217,1395
5218,1424
5219,1460
5220,1595
5221,1743
5222,1825
5223,1867
5224,1890
5225,1891
5226,1890
5227,1885
5228,1868
5229,1845
5230,2047
5231,987
5232,1920
5233,2192
5234,2255
5235,2119
5236,1664
5237,1837
5238,1968
5239,2000
5240,2112
5241,2224
5242,2289
5243,2354
5244,2282
5245,2000
5246,1666
5247,1398
5248,1405
5249,1424
5250,1431
5251,1531
5252,1686
5253,1781
5254,1826
5255,1845
5256,1859
5257,1885
5258,1902
5259,1897
5260,1877
5261,2155
5262,684
5263,1803
5264,2211
5265,2311
5266,2240
5267,1778
5268,1749
5269,1960
5270,2006
5271,2093
5272,2149
5273,2213
5274,2303
5275,2303
5276,2085
5277,1754
5278,1444
5279,1399
5280,1438
5281,1443
5282,1535
5283,1681
5284,1776
5285,1823
5286,1854
5287,1857
5288,1853
5289,1858
5290,1879
5291,1901
5292,1904
5293,816
5294,1600
5295,2157
5296,2316
5297,2291
5298,1882
5299,1719
5300,1953
5301,1997
5302,2068
5303,2135
5304,2198
5305,2263
5306,2293
5307,2129
5308,1826
5309,1489
5310,1392
5311,1455
5312,1461
5313,1535
5314,1679
5315,1766
5316,1809
5317,1835
5318,1836
5319,1829
5320,1837
5321,1861
5322,1868
5323,1877
5324,1468
5325,1255
5326,2059
5327,2297
5328,2321
5329,2023
5330,1709
5331,1934
5332,1977
5333,2025
5334,2080
5335,2144
5336,2229
5337,2315
5338,2193
5339,1899
5340,1568
5341,1423
5342,1468
5343,1467
5344,1521
5345,1645
5346,1743
5347,1792
5348,1818
5349,1829
5350,1843
5351,1859
5352,1873
5353,1886
5354,1891
5355,2928
5356,810
5357,1883
5358,2240
5359,2320
5360,2142
5361,1728
5362,1897
5363,1989
5364,2014
5365,2046
5366,2101
5367,2177
5368,2311
5369,2275
5370,2002
5371,1666
5372,1425
5373,1447
5374,1456
5375,1502
5376,1623
5377,1735
5378,1811
5379,1840
5380,1845
5381,1845
5382,1842
5383,1871
5384,1881
5385,1889
5386,1898
5387,757
5388,1627
5389,2141
5390,2305
5391,2251
5392,1829
5393,1852
5394,1983
5395,2000
5396,2017
5397,2070
5398,2135
5399,2257
5400,2288
5401,2094
5402,1776
5403,1475
5404,1447
5405,1459
5406,1472
5407,1579
5408,1687
5409,1769
5410,1818
5411,1846
5412,1859
5413,1867
5414,1872
5415,1875
5416,1882
5417,1889
5418,1136
5419,1392
5420,2055
5421,2266
5422,2253
5423,1904
5424,1807
5425,1985
5426,2007
5427,2039
5428,2074
5429,2119
5430,2247
5431,2307
5432,2123
5433,1804
5434,1488
5435,1436
5436,1461
5437,1471
5438,1568
5439,1680
5440,1761
5441,1810
5442,1844
5443,1867
5444,1876
5445,1879
5446,1881
5447,1882
5448,1886
5449,2587
5450,933
5451,1914
5452,2224
5453,2283
5454,2022
5455,1759
5456,1936
5457,1999
5458,2043
5459,2082
5460,2132
5461,2223
5462,2320
5463,2186
5464,1878
5465,1535
5466,1424
5467,1456
5468,1451
5469,1535
5470,1658
5471,1750
5472,1794
5473,1821
5474,1849
5475,1862
5476,1873
5477,1886
5478,1893
5479,1895
5480,1968
5481,668
5482,1730
5483,2149
5484,2269
5485,2127
5486,1798
5487,1935
5488,1999
5489,2026
5490,2057
5491,2119
5492,2193
5493,2322
5494,2256
5495,1977
5496,1616
5497,1430
5498,1453
5499,1456
5500,1520
5501,1648
5502,1743
5503,1792
5504,1818
5505,1833
5506,1835
5507,1849
5508,1861
5509,1883
5510,1902
5511,1911
5512,1125
5513,1429
5514,2079
5515,2284
5516,2245
5517,1897
5518,1901
5519,2002
5520,2021
5521,2029
5522,2067
5523,2109
5524,2238
5525,2242
5526,2033
5527,1711
5528,1477
5529,1488
5530,1503
5531,1535
5532,1625
5533,1712
5534,1759
5535,1798
5536,1825
5537,1841
5538,1849
5539,1855
5540,1872
5541,1885
5542,1899
5543,1904
5544,1903
5545,1895
5546,1889
5547,1887
5548,1877
5549,1871
5550,1872
5551,1868
5552,1872
5553,1879
5554,1873
5555,1860
5556,1855
5557,1867
5558,1872
5559,1873
5560,1873
5561,1873
5562,1876
5563,1878
5564,1878
5565,1869
5566,1856
5567,1856
5568,1855
5569,1857
5570,1855
5571,1849
5572,1842
5573,1843
5574,1849
5575,1856
5576,1861
5577,1862
5578,1860
5579,1867
5580,1857
5581,1857
5582,1850
5583,1849
5584,1854
5585,1855
5586,1856
5587,1861
5588,1854
5589,1845
5590,1856
5591,1869
5592,1872
5593,1871
5594,1870
5595,1865
5596,1863
5597,1859
5598,1852
5599,1841
5600,1851
5601,1857
5602,1859
5603,1854
5604,1842
5605,1837
5606,1835
5607,1846
5608,1856
5609,1869
5610,1872
5611,1872
5612,1865
5613,1859
5614,1855
5615,1840
5616,1839
5617,1842
5618,1843
5619,1858
5620,1856
5621,1855
5622,1846
5623,1846
5624,1856
5625,1857
5626,1866
5627,1872
5628,1874
5629,1863
5630,1854
5631,1850
5632,1843
5633,1840
5634,1839
5635,1840
5636,1849
5637,1859
5638,1858
5639,1852
5640,1855
5641,1866
5642,1869
5643,1872
5644,1871
5645,1863
5646,1867
5647,1868
5648,1863
5649,1858
5650,1856
5651,1854
5652,1857
5653,1856
5654,1860
5655,1857
5656,1855
5657,1861
5658,1867
5659,1867
5660,1866
5661,1870
5662,1872
5663,1872
5664,1859
5665,1856
5666,1853
5667,1850
5668,1846
5669,1857
5670,1863
5671,1861
5672,1847
5673,1847
5674,1859
5675,1863
5676,1871
5677,1875
5678,1873
5679,1872
5680,1872
5681,1867
5682,1857
5683,1856
5684,1851
5685,1854
5686,1856
5687,1868
5688,1865
5689,1859
5690,1866
5691,1872
5692,1872
5693,1865
5694,1857
5695,1856
5696,1853
5697,1853
5698,1845
5699,1851
5700,1856
5701,1854
5702,1854
5703,1849
5704,1852
5705,1847
5706,1846
5707,1869
5708,1875
5709,1876
5710,1883
5711,1887
5712,1881
5713,1875
5714,1872
5715,1856
5716,1852
5717,1852
5718,1853
5719,1859
5720,1856
5721,1847
5722,1835
5723,1838
5724,1855
5725,1863
5726,1872
5727,1881
5728,1873
5729,1863
5730,1866
5731,1864
5732,1856
5733,1859
5734,1855
5735,1853
5736,1856
5737,1857
5738,1869
5739,1878
5740,1891
5741,1895
5742,1865
5743,1853
5744,1841
5745,1855
5746,1861
5747,1859
5748,1850
5749,1850
5750,1856
5751,1861
5752,1863
5753,1858
5754,1859
5755,1857
5756,1859
5757,1874
5758,1886
5759,1895
5760,1904
5761,1903
5762,1894
5763,1882
5764,1872
5765,1872
5766,1874
5767,1881
5768,1875
5769,1883
5770,1875
5771,1872
5772,1869
5773,1871
5774,1888
5775,1890
5776,1891
5777,1889
5778,1887
5779,1889
5780,1885
5781,1873
5782,1863
5783,1865
5784,1856
5785,1843
5786,1840
5787,1843
5788,1842
5789,1846
5790,1855
5791,1863
5792,1867
5793,1872
5794,1871
5795,1872
5796,1870
5797,1862
5798,1858
5799,1855
5800,1856
5801,1856
5802,1861
5803,1858
5804,1859
5805,1854
5806,1847
5807,1859
5808,1869
5809,1871
5810,1873
5811,1873
5812,1872
5813,1873
5814,1867
5815,1863
5816,1868
5817,1862
5818,1859
5819,1870
5820,1878
5821,1887
5822,1875
5823,1879
5824,1893
5825,1901
5826,1903
5827,1904
5828,1906
5829,1904
5830,1902
5831,1902
5832,1891
5833,1890
5834,1890
5835,1888
5836,1886
5837,1891
5838,1889
5839,1873
5840,1877
5841,1887
5842,1889
5843,1892
5844,1886
5845,1879
5846,1872
5847,1867
5848,1862
5849,1851
5850,1852
5851,1846
5852,1857
5853,1856
5854,1856
5855,1845
5856,1839
5857,1850
5858,1855
5859,1861
5860,1861
5861,1857
5862,1854
5863,1849
5864,1845
5865,1837
5866,1838
5867,1840
5868,1840
5869,1840
5870,1840
5871,1840
5872,1830
5873,1831
5874,1839
5875,1844
5876,1847
5877,1851
5878,1843
5879,1846
5880,1843
5881,1838
5882,1837
5883,1839
5884,1838
5885,1839
5886,1840
5887,1840
5888,1833
5889,1829
5890,1840
5891,1850
5892,1855
5893,1857
5894,1856
5895,1856
5896,1852
5897,1851
5898,1845
5899,1840
5900,1842
5901,1840
5902,1846
5903,1846
5904,1842
5905,1835
5906,1829
5907,1840
5908,1846
5909,1857
5910,1857
5911,1860
5912,1862
5913,1859
5914,1857
5915,1847
5916,1844
5917,1850
5918,1840
5919,1856
5920,1854
5921,1851
5922,1846
5923,1849
5924,1863
5925,1872
5926,1871
5927,1872
5928,1869
5929,1866
5930,1867
5931,1863
5932,1857
5933,1861
5934,1856
5935,1859
5936,1859
5937,1861
5938,1853
5939,1842
5940,1856
5941,1866
5942,1875
5943,1881
5944,1881
5945,1877
5946,1872
5947,1870
5948,1867
5949,1863
5950,1866
5951,1867
5952,1867
5953,1858
5954,1865
5955,1860
5956,1859
5957,1873
5958,1875
5959,1879
5960,1881
5961,1878
5962,1879
5963,1875
5964,1867
5965,1858
5966,1859
5967,1859
5968,1854
5969,1865
5970,1863
5971,1860
5972,1855
5973,1856
5974,1870
5975,1872
5976,1875
5977,1877
5978,1873
5979,1870
5980,1867
5981,1861
5982,1856
5983,1860
5984,1855
5985,1858
5986,1857
5987,1858
5988,1856
5989,1855
5990,1863
5991,1872
5992,1874
5993,1874
5994,1870
5995,1858
5996,1846
5997,1844
5998,1840
5999,1851
6000,1856
6001,1856
6002,1862
6003,1863
6004,1863
6005,1855
6006,1853
6007,1862
6008,1869
6009,1872
6010,1874
6011,1878
6012,1873
6013,1871
6014,1866
6015,1857
6016,1857
6017,1861
6018,1861
6019,1859
6020,1858
6021,1854
6022,1847
6023,1851
6024,1864
6025,1872
6026,1872
6027,1874
6028,1872
6029,1870
6030,1872
6031,1869
6032,1859
6033,1863
6034,1859
6035,1863
6036,1865
6037,1862
6038,1855
6039,1850
6040,1859
6041,1867
6042,1872
6043,1872
6044,1872
6045,1871
6046,1867
6047,1862
6048,1859
6049,1854
6050,1855
6051,1856
6052,1857
6053,1856
6054,1853
6055,1842
6056,1844
6057,1856
6058,1863
6059,1866
6060,1874
6061,1872
6062,1869
6063,1865
6064,1866
6065,1856
6066,1854
6067,1856
6068,1854
6069,1853
6070,1851
6071,1842
6072,1840
6073,1847
6074,1857
6075,1862
6076,1869
6077,1873
6078,1871
6079,1865
6080,1859
6081,1855
6082,1850
6083,1851
6084,1847
6085,1854
6086,1852
6087,1850
6088,1840
6089,1843
6090,1850
6091,1858
6092,1864
6093,1872
6094,1872
6095,1867
6096,1860
6097,1856
6098,1855
6099,1856
6100,1856
6101,1853
6102,1857
6103,1855
6104,1859
6105,1850
6106,1846
6107,1858
6108,1866
6109,1870
6110,1872
6111,1870
6112,1866
6113,1861
6114,1853
6115,1843
6116,1844
6117,1845
6118,1845
6119,1856
6120,1856
6121,1852
6122,1845
6123,1849
6124,1861
6125,1867
6126,1871
6127,1872
6128,1872
6129,1867
6130,1866
6131,1859
6132,1855
6133,1854
6134,1855
6135,1861
6136,1858
6137,1861
6138,1855
6139,1850
6140,1859
6141,1870
6142,1872
6143,1876
6144,1871
6145,1869
6146,1863
6147,1856
6148,1843
6149,1839
6150,1841
6151,1839
6152,1850
6153,1855
6154,1858
6155,1853
6156,1853
6157,1862
6158,1871
6159,1872
6160,1874
6161,1873
6162,1870
6163,1865
6164,1860
6165,1857
6166,1856
6167,1858
6168,1858
6169,1862
6170,1860
6171,1856
6172,1845
6173,1847
6174,1857
6175,1865
6176,1868
6177,1872
6178,1869
6179,1872
6180,1869
6181,1865
6182,1858
6183,1855
6184,1855
6185,1859
6186,1860
6187,1860
6188,1854
6189,1847
6190,1859
6191,1867
6192,1872
6193,1875
6194,1874
6195,1872
6196,1870
6197,1867
6198,1861
6199,1856
6200,1861
6201,1860
6202,1863
6203,1861
6204,1853
6205,1843
6206,1841
6207,1854
6208,1861
6209,1872
6210,1874
6211,1872
6212,1871
6213,1866
6214,1857
6215,1851
6216,1850
6217,1853
6218,1848
6219,1859
6220,1861
6221,1856
6222,1850
6223,1851
6224,1862
6225,1871
6226,1872
6227,1873
6228,1872
6229,1868
6230,1863
6231,1857
6232,1853
6233,1854
6234,1845
6235,1854
6236,1853
6237,1855
6238,1842
6239,1839
6240,1850
6241,1855
6242,1865
6243,1869
6244,1869
6245,1866
6246,1861
6247,1858
6248,1855
6249,1847
6250,1851
6251,1854
6252,1856
6253,1857
6254,1859
6255,1851
6256,1851
6257,1861
6258,1866
6259,1869
6260,1872
6261,1872
6262,1871
6263,1860
6264,1852
6265,1844
6266,1843
6267,1846
6268,1845
6269,1856
6270,1856
6271,1854
6272,1846
6273,1854
6274,1863
6275,1870
6276,1872
6277,1872
6278,1872
6279,1870
6280,1861
6281,1859
6282,1856
6283,1856
6284,1853
6285,1856
6286,1858
6287,1859
6288,1854
6289,1847
6290,1858
6291,1868
6292,1871
6293,1872
6294,1869
6295,1862
6296,1857
6297,1856
6298,1849
6299,1855
6300,1857
6301,1859
6302,1862
6303,1861
6304,1861
6305,1855
6306,1856
6307,1868
6308,1872
6309,1876
6310,1882
6311,1876
6312,1874
6313,1867
6314,1866
6315,1859
6316,1855
6317,1855
6318,1845
6319,1850
6320,1852
6321,1847
6322,1843
6323,1850
6324,1859
6325,1866
6326,1869
6327,1869
6328,1871
6329,1861
6330,1862
6331,1858
6332,1854
6333,1856
6334,1855
6335,1859
6336,1856
6337,1856
6338,1847
6339,1847
6340,1856
6341,1863
6342,1872
6343,1874
6344,1872
6345,1872
6346,1865
6347,1863
6348,1855
6349,1853
6350,1855
6351,1855
6352,1861
6353,1859
6354,1858
6355,1846
6356,1846
6357,1857
6358,1866
6359,1869
6360,1876
6361,1873
6362,1872
6363,1868
6364,1866
6365,1856
6366,1856
6367,1855
6368,1853
6369,1855
6370,1858
6371,1853
6372,1847
6373,1856
6374,1863
6375,1871
6376,1872
6377,1872
6378,1872
6379,1865
6380,1862
6381,1857
6382,1853
6383,1853
6384,1845
6385,1850
6386,1851
6387,1853
6388,1841
6389,1846
6390,1856
6391,1865
6392,1870
6393,1873
6394,1873
6395,1871
6396,1864
6397,1862
6398,1855
6399,1856
6400,1856
6401,1856
6402,1858
6403,1854
6404,1856
6405,1849
6406,1845
6407,1858
6408,1869
6409,1870
6410,1872
6411,1872
6412,1871
6413,1857
6414,1853
6415,1842
6416,1845
6417,1847
6418,1845
6419,1857
6420,1851
6421,1854
6422,1848
6423,1853
6424,1865
6425,1871
6426,1872
6427,1875
6428,1872
6429,1867
6430,1859
6431,1857
6432,1851
6433,1855
6434,1856
6435,1857
6436,1859
6437,1862
6438,1852
6439,1850
6440,1859
6441,1866
6442,1873
6443,1878
6444,1872
6445,1869
6446,1862
6447,1857
6448,1855
6449,1849
6450,1855
6451,1850
6452,1866
6453,1865
6454,1860
6455,1854
6456,1850
6457,1863
6458,1871
6459,1875
6460,1876
6461,1875
6462,1872
6463,1867
6464,1857
6465,1854
6466,1857
6467,1857
6468,1858
6469,1859
6470,1859
6471,1853
6472,1843
6473,1851
6474,1854
6475,1862
6476,1867
6477,1867
6478,1869
6479,1872
6480,1871
6481,1862
6482,1855
6483,1855
6484,1851
6485,1854
6486,1850
6487,1856
6488,1850
6489,1846
6490,1858
6491,1865
6492,1871
6493,1871
6494,1872
6495,1872
6496,1863
6497,1859
6498,1854
6499,1854
6500,1855
6501,1853
6502,1856
6503,1856
6504,1849
6505,1840
6506,1842
6507,1856
6508,1859
6509,1871
6510,1874
6511,1873
6512,1872
6513,1862
6514,1863
6515,1855
6516,1855
6517,1856
6518,1850
6519,1858
6520,1855
6521,1853
6522,1846
6523,1854
6524,1866
6525,1872
6526,1872
6527,1874
6528,1872
6529,1870
6530,1862
6531,1856
6532,1851
6533,1855
6534,1843
6535,1850
6536,1851
6537,1853
6538,1841
6539,1840
6540,1850
6541,1855
6542,1867
6543,1872
6544,1874
6545,637
6546,1664
6547,2138
6548,2237
6549,2255
6550,2269
6551,2250
6552,2067
6553,1776
6554,1690
6555,1776
6556,1808
6557,1897
6558,2018
6559,2109
6560,2198
6561,2241
6562,2208
6563,2125
6564,1987
6565,1867
6566,1759
6567,1662
6568,1601
6569,1596
6570,1566
6571,1511
6572,1498
6573,1567
6574,1648
6575,1707
6576,1136
6577,1233
6578,1963
6579,2155
6580,2195
6581,2215
6582,2195
6583,1997
6584,1678
6585,1682
6586,1840
6587,1901
6588,1995
6589,2077
6590,2190
6591,2235
6592,2240
6593,2151
6594,1969
6595,1838
6596,1711
6597,1642
6598,1651
6599,1664
6600,1603
6601,1568
6602,1585
6603,1620
6604,1647
6605,1680
6606,1725
6607,2693
6608,864
6609,1863
6610,2185
6611,2263
6612,2293
6613,2289
6614,2092
6615,1649
6616,1599
6617,1840
6618,1934
6619,2079
6620,2172
6621,2224
6622,2257
6623,2244
6624,2106
6625,1902
6626,1703
6627,1558
6628,1579
6629,1606
6630,1599
6631,1601
6632,1648
6633,1699
6634,1734
6635,1762
6636,1781
6637,1803
6638,1867
6639,590
6640,1670
6641,2122
6642,2240
6643,2275
6644,2278
6645,2118
6646,1663
6647,1630
6648,1862
6649,1909
6650,2033
6651,2091
6652,2128
6653,2225
6654,2227
6655,2067
6656,1852
6657,1627
6658,1512
6659,1606
6660,1666
6661,1675
6662,1722
6663,1777
6664,1787
6665,1750
6666,1740
6667,1756
6668,1776
6669,1782
6670,1053
6671,1279
6672,1968
6673,2174
6674,2231
6675,2243
6676,2160
6677,1751
6678,1627
6679,1893
6680,2000
6681,2123
6682,2179
6683,2166
6684,2240
6685,2289
6686,2113
6687,1846
6688,1526
6689,1411
6690,1494
6691,1531
6692,1581
6693,1693
6694,1801
6695,1850
6696,1853
6697,1851
6698,1841
6699,1831
6700,1811
6701,1967
6702,971
6703,1883
6704,2133
6705,2170
6706,2176
6707,2122
6708,1761
6709,1687
6710,1927
6711,2031
6712,2176
6713,2255
6714,2239
6715,2256
6716,2255
6717,2046
6718,1749
6719,1465
6720,1401
6721,1468
6722,1471
6723,1535
6724,1679
6725,1783
6726,1840
6727,1843
6728,1849
6729,1859
6730,1859
6731,1856
6732,1994
6733,602
6734,1712
6735,2142
6736,2233
6737,2239
6738,2169
6739,1821
6740,1609
6741,1889
6742,2002
6743,2130
6744,2225
6745,2229
6746,2202
6747,2225
6748,2063
6749,1780
6750,1487
6751,1424
6752,1493
6753,1488
6754,1561
6755,1684
6756,1790
6757,1849
6758,1847
6759,1851
6760,1866
6761,1872
6762,1870
6763,1852
6764,853
6765,1446
6766,2058
6767,2213
6768,2235
6769,2199
6770,1887
6771,1567
6772,1811
6773,1934
6774,2070
6775,2208
6776,2286
6777,2320
6778,2315
6779,2130
6780,1825
6781,1493
6782,1424
6783,1486
6784,1486
6785,1535
6786,1677
6787,1776
6788,1808
6789,1808
6790,1822
6791,1843
6792,1863
6793,1879
6794,1882
6795,1562
6796,1169
6797,2001
6798,2234
6799,2270
6800,2242
6801,1954
6802,1535
6803,1791
6804,1921
6805,2032
6806,2167
6807,2253
6808,2293
6809,2317
6810,2155
6811,1851
6812,1520
6813,1430
6814,1478
6815,1459
6816,1519
6817,1652
6818,1747
6819,1809
6820,1829
6821,1839
6822,1839
6823,1857
6824,1875
6825,1881
6826,2480
6827,717
6828,1842
6829,2215
6830,2293
6831,2287
6832,2091
6833,1625
6834,1734
6835,1904
6836,1975
6837,2124
6838,2219
6839,2257
6840,2298
6841,2175
6842,1911
6843,1584
6844,1434
6845,1484
6846,1473
6847,1517
6848,1641
6849,1744
6850,1808
6851,1833
6852,1841
6853,1851
6854,1857
6855,1861
6856,1867
6857,1876
6858,764
6859,1600
6860,2158
6861,2294
6862,2301
6863,2179
6864,1701
6865,1665
6866,1902
6867,1936
6868,2086
6869,2209
6870,2263
6871,2299
6872,2218
6873,1975
6874,1653
6875,1456
6876,1478
6877,1475
6878,1491
6879,1601
6880,1712
6881,1785
6882,1824
6883,1843
6884,1856
6885,1872
6886,1876
6887,1883
6888,1874
6889,1417
6890,1243
6891,2061
6892,2290
6893,2325
6894,2254
6895,1835
6896,1586
6897,1872
6898,1910
6899,2057
6900,2184
6901,2252
6902,2303
6903,2283
6904,2064
6905,1709
6906,1441
6907,1463
6908,1483
6909,1488
6910,1590
6911,1707
6912,1777
6913,1814
6914,1834
6915,1851
6916,1863
6917,1870
6918,1871
6919,1876
6920,2735
6921,877
6922,1908
6923,2243
6924,2309
6925,2278
6926,1961
6927,1607
6928,1854
6929,1877
6930,2006
6931,2156
6932,2230
6933,2285
6934,2290
6935,2110
6936,1806
6937,1489
6938,1444
6939,1456
6940,1457
6941,1535
6942,1680
6943,1776
6944,1827
6945,1853
6946,1863
6947,1865
6948,1867
6949,1873
6950,1882
6951,1885
6952,667
6953,1670
6954,2163
6955,2276
6956,2278
6957,2103
6958,1647
6959,1807
6960,1923
6961,1968
6962,2128
6963,2227
6964,2275
6965,2305
6966,2187
6967,1905
6968,1557
6969,1433
6970,1466
6971,1440
6972,1488
6973,1627
6974,1734
6975,1802
6976,1830
6977,1855
6978,1868
6979,1871
6980,1875
6981,1881
6982,1882
6983,1031
6984,1408
6985,2102
6986,2291
6987,2307
6988,2165
6989,1689
6990,1735
6991,1917
6992,1914
6993,2083
6994,2193
6995,2254
6996,2311
6997,2229
6998,1970
6999,1627
7000,1456
7001,1473
7002,1466
7003,1493
7004,1613
7005,1712
7006,1774
7007,1818
7008,1849
7009,1870
7010,1879
7011,1886
7012,1889
7013,1888
7014,2470
7015,927
7016,1934
7017,2241
7018,2300
7019,2250
7020,1857
7021,1655
7022,1903
7023,1872
7024,2021
7025,2167
7026,2241
7027,2292
7028,2288
7029,2082
7030,1755
7031,1486
7032,1469
7033,1466
7034,1459
7035,1573
7036,1690
7037,1767
7038,1805
7039,1828
7040,1856
7041,1873
7042,1891
7043,1901
7044,1894
7045,1953
7046,636
7047,1744
7048,2187
7049,2288
7050,2275
7051,1984
7052,1629
7053,1895
7054,1886
7055,1963
7056,2128
7057,2221
7058,2269
7059,2304
7060,2159
7061,1874
7062,1563
7063,1488
7064,1489
7065,1472
7066,1535
7067,1667
7068,1750
7069,1792
7070,1824
7071,1839
7072,1846
7073,1869
7074,1879
7075,1893
7076,1898
7077,945
7078,1472
7079,2113
7080,2277
7081,2281
7082,2095
7083,1661
7084,1840
7085,1936
7086,1936
7087,2098
7088,2191
7089,2225
7090,2294
7091,2211
7092,1968
7093,1642
7094,1489
7095,1503
7096,1471
7097,1510
7098,1625
7099,1721
7100,1785
7101,1811
7102,1839
7103,1854
7104,1854
7105,1859
7106,1870
7107,1890
7108,1679
7109,1168
7110,2034
7111,2291
7112,2320
7113,2192
7114,1718
7115,1757
7116,1950
7117,1896
7118,2033
7119,2149
7120,2182
7121,2260
7122,2235
7123,2031
7124,1711
7125,1504
7126,1511
7127,1488
7128,1503
7129,1607
7130,1712
7131,1773
7132,1808
7133,1834
7134,1841
7135,1857
7136,1867
7137,1872
7138,1870
7139,2515
7140,720
7141,1843
7142,2233
7143,2318
7144,2256
7145,1854
7146,1695
7147,1969
7148,1902
7149,2000
7150,2134
7151,2198
7152,2256
7153,2261
7154,2070
7155,1770
7156,1507
7157,1490
7158,1493
7159,1489
7160,1589
7161,1707
7162,1776
7163,1814
7164,1830
7165,1840
7166,1855
7167,1861
7168,1872
7169,1881
7170,1889
7171,1886
7172,1882
7173,1891
7174,1894
7175,1897
7176,1898
7177,1898
7178,1891
7179,1884
7180,1877
7181,1867
7182,1859
7183,1866
7184,1859
7185,1866
7186,1865
7187,1863
7188,1854
7189,1850
7190,1866
7191,1872
7192,1873
7193,1874
7194,1869
7195,1860
7196,1857
7197,1849
7198,1841
7199,1852
7200,1851
7201,1856
7202,1857
7203,1856
7204,1851
7205,1843
7206,1849
7207,1858
7208,1869
7209,1872
7210,1872
7211,1872
7212,1867
7213,1862
7214,1857
7215,1854
7216,1854
7217,1852
7218,1846
7219,1845
7220,1855
7221,1851
7222,1844
7223,1856
7224,1863
7225,1866
7226,1865
7227,1864
7228,1857
7229,1854
7230,1856
7231,1850
7232,1844
7233,1853
7234,1851
7235,1856
7236,1856
7237,1849
7238,1840
7239,1840
7240,1854
7241,1863
7242,1879
7243,1883
7244,1872
7245,1859
7246,1846
7247,1856
7248,1855
7249,1857
7250,1862
7251,1862
7252,1861
7253,1857
7254,1840
7255,1833
7256,1840
7257,1851
7258,1858
7259,1862
7260,1872
7261,1872
7262,1872
7263,1870
7264,1863
7265,1854
7266,1852
7267,1849
7268,1840
7269,1837
7270,1846
7271,1847
7272,1855
7273,1867
7274,1869
7275,1873
7276,1878
7277,1885
7278,1883
7279,1872
7280,1873
7281,1871
7282,1861
7283,1851
7284,1841
7285,1853
7286,1866
7287,1873
7288,1860
7289,1871
7290,1879
7291,1873
7292,1869
7293,1861
7294,1856
7295,1841
7296,1840
7297,1844
7298,1850
7299,1861
7300,1872
7301,1870
7302,1868
7303,1868
7304,1863
7305,1853
7306,1865
7307,1876
7308,1884
7309,1889
7310,1891
7311,1873
7312,1869
7313,1862
7314,1849
7315,1844
7316,1845
7317,1847
7318,1855
7319,1859
7320,1855
7321,1854
7322,1851
7323,1861
7324,1882
7325,1887
7326,1893
7327,1894
7328,1882
7329,1872
7330,1872
7331,1863
7332,1863
7333,1863
7334,1859
7335,1868
7336,1863
7337,1865
7338,1857
7339,1851
7340,1861
7341,1872
7342,1883
7343,1895
7344,1887
7345,1879
7346,1866
7347,1856
7348,1840
7349,1840
7350,1847
7351,1857
7352,1866
7353,1861
7354,1853
7355,1848
7356,1856
7357,1872
7358,1881
7359,1887
7360,1883
7361,1876
7362,1872
7363,1869
7364,1863
7365,1857
7366,1856
7367,1854
7368,1851
7369,1843
7370,1846
7371,1851
7372,1840
7373,1846
7374,1855
7375,1861
7376,1863
7377,1857
7378,1851
7379,1853
7380,1861
7381,1860
7382,1858
7383,1863
7384,1856
7385,1863
7386,1866
7387,1870
7388,1856
7389,1850
7390,1858
7391,1863
7392,1865
7393,1872
7394,1877
7395,1879
7396,1877
7397,1871
7398,1861
7399,1859
7400,1859
7401,1855
7402,1853
7403,1856
7404,1852
7405,1848
7406,1843
7407,1849
7408,1855
7409,1865
7410,1867
7411,1869
7412,1863
7413,1860
7414,1857
7415,1854
7416,1859
7417,1855
7418,1850
7419,1856
7420,1861
7421,1850
7422,1845
7423,1851
7424,1854
7425,1867
7426,1877
7427,1878
7428,1877
7429,1871
7430,1857
7431,1846
7432,1855
7433,1851
7434,1840
7435,1845
7436,1844
7437,1845
7438,1840
7439,1839
7440,1851
7441,1850
7442,1863
7443,1869
7444,1869
7445,1863
7446,1847
7447,1841
7448,1840
7449,1843
7450,1855
7451,1867
7452,1861
7453,1853
7454,1845
7455,1842
7456,1851
7457,1865
7458,1871
7459,1871
7460,1862
7461,1850
7462,1846
7463,1845
7464,1835
7465,1841
7466,1851
7467,1851
7468,1850
7469,1858
7470,1860
7471,1850
7472,1843
7473,1849
7474,1849
7475,1856
7476,1867
7477,1870
7478,1869
7479,1862
7480,1856
7481,1846
7482,1853
7483,1858
7484,1866
7485,1862
7486,1857
7487,1847
7488,1837
7489,1840
7490,1856
7491,1864
7492,1872
7493,1874
7494,1874
7495,1872
7496,1859
7497,1858
7498,1852
7499,1851
7500,1846
7501,1854
7502,1859
7503,1865
7504,1853
7505,1840
7506,1850
7507,1865
7508,1867
7509,1871
7510,1871
7511,1866
7512,1859
7513,1866
7514,1863
7515,1861
7516,1863
7517,1859
7518,1839
7519,1830
7520,1847
7521,1858
7522,1847
7523,1848
7524,1850
7525,1862
7526,1872
7527,1872
7528,1862
7529,1850
7530,1861
7531,1856
7532,1856
7533,1866
7534,1857
7535,1857
7536,1855
7537,1853
7538,1846
7539,1851
7540,1870
7541,1873
7542,1877
7543,1879
7544,1871
7545,1867
7546,1866
7547,1857
7548,1850
7549,1851
7550,1856
7551,1856
7552,1858
7553,1856
7554,1841
7555,1840
7556,1844
7557,1856
7558,1866
7559,1867
7560,1871
7561,1867
7562,1858
7563,1852
7564,1850
7565,1856
7566,1865
7567,1867
7568,1867
7569,1860
7570,1858
7571,1851
7572,1849
7573,1859
7574,1866
7575,1868
7576,1872
7577,1878
7578,1877
7579,1872
7580,1869
7581,1857
7582,1853
7583,1856
7584,1856
7585,1872
7586,1862
7587,1847
7588,1837
7589,1835
7590,1847
7591,1867
7592,1873
7593,1877
7594,1875
7595,1872
7596,1866
7597,1862
7598,1853
7599,1851
7600,1853
7601,1859
7602,1860
7603,1859
7604,1862
7605,1858
7606,1866
7607,1872
7608,1874
7609,1883
7610,1884
7611,1872
7612,1862
7613,1853
7614,1843
7615,1854
7616,1856
7617,1855
7618,1854
7619,1857
7620,1858
7621,1854
7622,1857
7623,1871
7624,1872
7625,1872
7626,1872
7627,1872
7628,1870
7629,1863
7630,1860
7631,1854
7632,1851
7633,1856
7634,1854
7635,1858
7636,1856
7637,1849
7638,1840
7639,1849
7640,1865
7641,1872
7642,1875
7643,1877
7644,1871
7645,1856
7646,1853
7647,1846
7648,1843
7649,1849
7650,1859
7651,1858
7652,1867
7653,1866
7654,1856
7655,1843
7656,1855
7657,1863
7658,1872
7659,1877
7660,1882
7661,1872
7662,1863
7663,1863
7664,1858
7665,1853
7666,1856
7667,1851
7668,1856
7669,1857
7670,1860
7671,1853
7672,1851
7673,1862
7674,1862
7675,1869
7676,1866
7677,1862
7678,1860
7679,1866
7680,1861
7681,1856
7682,1855
7683,1856
7684,1853
7685,1860
7686,1859
7687,1856
7688,1849
7689,1852
7690,1863
7691,1866
7692,1872
7693,1874
7694,1872
7695,1867
7696,1862
7697,1861
7698,1852
7699,1850
7700,1851
7701,1856
7702,1857
7703,1859
7704,1845
7705,1842
7706,1850
7707,1855
7708,1862
7709,1871
7710,1873
7711,1872
7712,1869
7713,1866
7714,1857
7715,1854
7716,1858
7717,1857
7718,1849
7719,1853
7720,1856
7721,1854
7722,1847
7723,1861
7724,1872
7725,1870
7726,1869
7727,1871
7728,1869
7729,1863
7730,1863
7731,1856
7732,1856
7733,1856
7734,1847
7735,1854
7736,1855
7737,1850
7738,1839
7739,1840
7740,1851
7741,1857
7742,1873
7743,1879
7744,1875
7745,1872
7746,1863
7747,1860
7748,1856
7749,1856
7750,1857
7751,1859
7752,1862
7753,1861
7754,1851
7755,1840
7756,1845
7757,1860
7758,1867
7759,1871
7760,1873
7761,1870
7762,1865
7763,1859
7764,1847
7765,1840
7766,1847
7767,1845
7768,1852
7769,1851
7770,1858
7771,1853
7772,1847
7773,1859
7774,1866
7775,1872
7776,1874
7777,1872
7778,1871
7779,1863
7780,1862
7781,1855
7782,1854
7783,1857
7784,1858
7785,1865
7786,1865
7787,1857
7788,1847
7789,1853
7790,1863
7791,1863
7792,1872
7793,1873
7794,1871
7795,1862
7796,1856
7797,1855
7798,1847
7799,1856
7800,1856
7801,1858
7802,1862
7803,1861
7804,1851
7805,1840
7806,1845
7807,1860
7808,1866
7809,1868
7810,1869
7811,1869
7812,1860
7813,1861
7814,1856
7815,1853
7816,1856
7817,1855
7818,1854
7819,1851
7820,1850
7821,1841
7822,1840
7823,1850
7824,1860
7825,1867
7826,1872
7827,1872
7828,1869
7829,1856
7830,1858
7831,1854
7832,1850
7833,1856
7834,1857
7835,1858
7836,1857
7837,1853
7838,1845
7839,1850
7840,1861
7841,1872
7842,1872
7843,1873
7844,1872
7845,1869
7846,1861
7847,1857
7848,1851
7849,1854
7850,1856
7851,1857
7852,1858
7853,1861
7854,1850
7855,1845
7856,1855
7857,1863
7858,1863
7859,1867
7860,1873
7861,1872
7862,1869
7863,1863
7864,1855
7865,1852
7866,1855
7867,1855
7868,1857
7869,1856
7870,1856
7871,1849
7872,1847
7873,1860
7874,1867
7875,1872
7876,1872
7877,1872
7878,1869
7879,1862
7880,1858
7881,1853
7882,1852
7883,1854
7884,1846
7885,1854
7886,1855
7887,1850
7888,1841
7889,1852
7890,1865
7891,1872
7892,1872
7893,1872
7894,1872
7895,1869
7896,1861
7897,1858
7898,1851
7899,1854
7900,1855
7901,1858
7902,1856
7903,1858
7904,1855
7905,1844
7906,1851
7907,1861
7908,1867
7909,1871
7910,1871
7911,1870
7912,1865
7913,1855
7914,1842
7915,1840
7916,1851
7917,1846
7918,1853
7919,1858
7920,1857
7921,1845
7922,1844
7923,1861
7924,1870
7925,1875
7926,1879
7927,1874
7928,1873
7929,1863
7930,1861
7931,1851
7932,1851
7933,1855
7934,1856
7935,1857
7936,1857
7937,1851
7938,1840
7939,1843
7940,1856
7941,1863
7942,1869
7943,1872
7944,1865
7945,1862
7946,1859
7947,1856
7948,1849
7949,1845
7950,1849
7951,1847
7952,1859
7953,1859
7954,1850
7955,1845
7956,1859
7957,1867
7958,1872
7959,1874
7960,1873
7961,1871
7962,1867
7963,1865
7964,1857
7965,1855
7966,1860
7967,1858
7968,1859
7969,1856
7970,1853
7971,1844
7972,1846
7973,1859
7974,1861
7975,1869
7976,1870
7977,1866
7978,1862
7979,1861
7980,1858
7981,1851
7982,1851
7983,1854
7984,1855
7985,1859
7986,1857
7987,1854
7988,1846
7989,1851
7990,1866
7991,1872
7992,1874
7993,1875
7994,1873
7995,1871
7996,1868
7997,1861
7998,1855
7999,1858
8000,1857
8001,1858
8002,1860
8003,1857
8004,1843
8005,1840
8006,1853
8007,1861
8008,1867
8009,1871
8010,1872
8011,1871
8012,1866
8013,1863
8014,1856
8015,1850
8016,1850
8017,1853
8018,1859
8019,1859
8020,1867
8021,1856
8022,1854
8023,1861
8024,1871
8025,1873
8026,1874
8027,1872
8028,1869
8029,1862
8030,1856
8031,1853
8032,1851
8033,1855
8034,1850
8035,1854
8036,1858
8037,1848
8038,1835
8039,1839
8040,1857
8041,1863
8042,1873
8043,1878
8044,1872
8045,1870
8046,1861
8047,1857
8048,1853
8049,1856
8050,1853
8051,1855
8052,1856
8053,1863
8054,1856
8055,1847
8056,1855
8057,1865
8058,1872
8059,1877
8060,1879
8061,1877
8062,1871
8063,1865
8064,1851
8065,1845
8066,1847
8067,1849
8068,1849
8069,1855
8070,1856
8071,1849
8072,1847
8073,1861
8074,1870
8075,1872
8076,1872
8077,1871
8078,1862
8079,1859
8080,1858
8081,1853
8082,1853
8083,1854
8084,1852
8085,1855
8086,1857
8087,1852
8088,1845
8089,1853
8090,1869
8091,1877
8092,1881
8093,1882
8094,1872
8095,1856
8096,1847
8097,1840
8098,1840
8099,1851
8100,1853
8101,1855
8102,1852
8103,1853
8104,1850
8105,1847
8106,1863
8107,1873
8108,1875
8109,1874
8110,1877
8111,1874
8112,1870
8113,1867
8114,1856
8115,1849
8116,1856
8117,1855
8118,1857
8119,1854
8120,1855
8121,1841
8122,1841
8123,1851
8124,1859
8125,1862
8126,1871
8127,1869
8128,1861
8129,1856
8130,1856
8131,1855
8132,1853
8133,1853
8134,1854
8135,1857
8136,1861
8137,1856
8138,1851
8139,1855
8140,1863
8141,1871
8142,1872
8143,1877
8144,1875
8145,1870
8146,1863
8147,1855
8148,1850
8149,1853
8150,1857
8151,1859
8152,1856
8153,1858
8154,1842
8155,1840
8156,1853
8157,1860
8158,1859
8159,1859
8160,1873
8161,1873
8162,1871
8163,1870
8164,1861
8165,1858
8166,1856
8167,1854
8168,1858
8169,1858
8170,1858
8171,1847
8172,2489
8173,951
8174,1958
8175,2256
8176,2320
8177,2340
8178,2347
8179,2233
8180,1958
8181,1675
8182,1662
8183,1715
8184,1731
8185,1761
8186,1760
8187,1853
8188,2011
8189,2112
8190,2155
8191,2153
8192,2097
8193,2010
8194,1863
8195,1754
8196,1734
8197,1712
8198,1665
8199,1616
8200,1607
8201,1662
8202,1705
8203,1747
8204,592
8205,1625
8206,2160
8207,2299
8208,2349
8209,2352
8210,2224
8211,1847
8212,1467
8213,1634
8214,1712
8215,1762
8216,1834
8217,1887
8218,2014
8219,2129
8220,2165
8221,2097
8222,1984
8223,1871
8224,1734
8225,1729
8226,1765
8227,1724
8228,1680
8229,1698
8230,1748
8231,1758
8232,1773
8233,1801
8234,1808
8235,987
8236,1327
8237,2037
8238,2258
8239,2319
8240,2337
8241,2256
8242,1855
8243,1521
8244,1731
8245,1832
8246,1887
8247,1894
8248,1842
8249,1991
8250,2160
8251,2213
8252,2130
8253,1953
8254,1710
8255,1633
8256,1670
8257,1648
8258,1635
8259,1701
8260,1778
8261,1817
8262,1808
8263,1823
8264,1798
8265,1817
8266,2128
8267,943
8268,1894
8269,2181
8270,2245
8271,2242
8272,2165
8273,1834
8274,1535
8275,1807
8276,1897
8277,1969
8278,2035
8279,2055
8280,2128
8281,2235
8282,2206
8283,2057
8284,1787
8285,1591
8286,1610
8287,1594
8288,1535
8289,1621
8290,1729
8291,1791
8292,1824
8293,1843
8294,1862
8295,1863
8296,1842
8297,2022
8298,594
8299,1701
8300,2111
8301,2219
8302,2239
8303,2176
8304,1840
8305,1593
8306,1895
8307,1968
8308,2033
8309,2094
8310,2047
8311,2035
8312,2138
8313,2085
8314,1879
8315,1619
8316,1584
8317,1600
8318,1580
8319,1619
8320,1721
8321,1791
8322,1818
8323,1846
8324,1870
8325,1886
8326,1878
8327,1860
8328,1834
8329,747
8330,1520
8331,2128
8332,2315
8333,2364
8334,2298
8335,1968
8336,1602
8337,1879
8338,1942
8339,2005
8340,2085
8341,1994
8342,1861
8343,1915
8344,1881
8345,1695
8346,1584
8347,1600
8348,1568
8349,1607
8350,1705
8351,1797
8352,1847
8353,1872
8354,1873
8355,1884
8356,1897
8357,1869
8358,1841
8359,1846
8360,1693
8361,1135
8362,2014
8363,2291
8364,2343
8365,2303
8366,2059
8367,1685
8368,1859
8369,1935
8370,2011
8371,2097
8372,2070
8373,1997
8374,1951
8375,1831
8376,1617
8377,1584
8378,1589
8379,1567
8380,1636
8381,1728
8382,1786
8383,1817
8384,1840
8385,1849
8386,1858
8387,1870
8388,1866
8389,1872
8390,1881
8391,2843
8392,811
8393,1904
8394,2256
8395,2345
8396,2320
8397,2116
8398,1769
8399,1857
8400,1887
8401,1975
8402,2113
8403,2127
8404,2010
8405,1888
8406,1712
8407,1569
8408,1564
8409,1535
8410,1600
8411,1706
8412,1779
8413,1808
8414,1815
8415,1839
8416,1857
8417,1867
8418,1871
8419,1874
8420,1879
8421,1872
8422,1868
8423,709
8424,1658
8425,2154
8426,2289
8427,2298
8428,2157
8429,1883
8430,1908
8431,1909
8432,1990
8433,2147
8434,2155
8435,2000
8436,1823
8437,1601
8438,1522
8439,1520
8440,1535
8441,1651
8442,1748
8443,1803
8444,1826
8445,1839
8446,1847
8447,1858
8448,1872
8449,1874
8450,1872
8451,1872
8452,1870
8453,1869
8454,1220
8455,1309
8456,1993
8457,2175
8458,2210
8459,2128
8460,1970
8461,2003
8462,2009
8463,2045
8464,2182
8465,2173
8466,1985
8467,1744
8468,1535
8469,1520
8470,1504
8471,1576
8472,1683
8473,1761
8474,1797
8475,1825
8476,1840
8477,1845
8478,1855
8479,1866
8480,1858
8481,1851
8482,1851
8483,1855
8484,1850
8485,2839
8486,847
8487,1812
8488,2061
8489,2127
8490,2096
8491,2017
8492,2000
8493,2043
8494,2046
8495,2182
8496,2192
8497,1984
8498,1696
8499,1521
8500,1498
8501,1499
8502,1600
8503,1694
8504,1738
8505,1755
8506,1788
8507,1811
8508,1840
8509,1860
8510,1873
8511,1877
8512,1851
8513,1846
8514,1837
8515,1828
8516,1871
8517,816
8518,1642
8519,1988
8520,2031
8521,2007
8522,1979
8523,2031
8524,2065
8525,2043
8526,2175
8527,2193
8528,1983
8529,1681
8530,1513
8531,1488
8532,1510
8533,1616
8534,1704
8535,1747
8536,1766
8537,1771
8538,1778
8539,1805
8540,1831
8541,1841
8542,1843
8543,1845
8544,1833
8545,1830
8546,1828
8547,1821
8548,1388
8549,1269
8550,1855
8551,1973
8552,1971
8553,1947
8554,2013
8555,2043
8556,2029
8557,2131
8558,2203
8559,2062
8560,1759
8561,1535
8562,1518
8563,1525
8564,1616
8565,1705
8566,1749
8567,1767
8568,1791
8569,1806
8570,1814
8571,1815
8572,1810
8573,1813
8574,1819
8575,1831
8576,1836
8577,1834
8578,1826
8579,2224
8580,1088
8581,1730
8582,1936
8583,1955
8584,1923
8585,2019
8586,2027
8587,2013
8588,2085
8589,2183
8590,2107
8591,1841
8592,1613
8593,1573
8594,1565
8595,1635
8596,1731
8597,1786
8598,1807
8599,1807
8600,1798
8601,1801
8602,1805
8603,1818
8604,1811
8605,1815
8606,1834
8607,1841
8608,1841
8609,1855
8610,2157
8611,1254
8612,1533
8613,1905
8614,1968
8615,1929
8616,2029
8617,2032
8618,2015
8619,2109
8620,2177
8621,2131
8622,1909
8623,1680
8624,1584
8625,1568
8626,1618
8627,1713
8628,1771
8629,1799
8630,1813
8631,1820
8632,1831
8633,1847
8634,1854
8635,1864
8636,1859
8637,1843
8638,1840
8639,1850
8640,1856
8641,1863
8642,1535
8643,1313
8644,1849
8645,1995
8646,1968
8647,2015
8648,2086
8649,1998
8650,2063
8651,2160
8652,2179
8653,2003
8654,1766
8655,1610
8656,1577
8657,1585
8658,1677
8659,1760
8660,1799
8661,1813
8662,1823
8663,1837
8664,1838
8665,1840
8666,1851
8667,1846
8668,1853
8669,1857
8670,1858
8671,1856
8672,1872
8673,2229
8674,1282
8675,1759
8676,1991
8677,1971
8678,1943
8679,2087
8680,2003
8681,2017
8682,2125
8683,2171
8684,2076
8685,1855
8686,1654
8687,1609
8688,1602
8689,1649
8690,1743
8691,1809
8692,1852
8693,1862
8694,1840
8695,1835
8696,1838
8697,1833
8698,1831
8699,1841
8700,1850
8701,1863
8702,1857
8703,1856
8704,2295
8705,1341
8706,1505
8707,1915
8708,1982
8709,1936
8710,2075
8711,2064
8712,2064
8713,2135
8714,2176
8715,2106
8716,1927
8717,1707
8718,1585
8719,1535
8720,1584
8721,1665
8722,1739
8723,1792
8724,1817
8725,1835
8726,1843
8727,1847
8728,1855
8729,1856
8730,1861
8731,1862
8732,1868
8733,1863
8734,1862
8735,1863
8736,1521
8737,1337
8738,1822
8739,1967
8740,1930
8741,2044
8742,2093
8743,2041
8744,2128
8745,2179
8746,2154
8747,1984
8748,1790
8749,1622
8750,1567
8751,1566
8752,1648
8753,1731
8754,1762
8755,1799
8756,1838
8757,1853
8758,1861
8759,1865
8760,1873
8761,1875
8762,1871
8763,1859
8764,1855
8765,1861
8766,1869
8767,2022
8768,1330
8769,1707
8770,1942
8771,1925
8772,1995
8773,2103
8774,2000
8775,2090
8776,2169
8777,2174
8778,2042
8779,1872
8780,1675
8781,1586
8782,1566
8783,1626
8784,1712
8785,1775
8786,1809
8787,1815
8788,1821
8789,1844
8790,1856
8791,1867
8792,1874
8793,1877
8794,1874
8795,1871
8796,1870
8797,1867
8798,1863
8799,1869
8800,1862
8801,1867
8802,1863
8803,1867
8804,1858
8805,1855
8806,1866
8807,1868
8808,1867
8809,1867
8810,1864
8811,1861
8812,1862
8813,1858
8814,1845
8815,1839
8816,1840
8817,1840
8818,1847
8819,1858
8820,1856
8821,1855
8822,1855
8823,1866
8824,1867
8825,1867
8826,1866
8827,1858
8828,1855
8829,1853
8830,1856
8831,1851
8832,1853
8833,1841
8834,1847
8835,1863
8836,1865
8837,1854
8838,1844
8839,1851
8840,1859
8841,1869
8842,1874
8843,1874
8844,1866
8845,1859
8846,1855
8847,1851
8848,1846
8849,1846
8850,1851
8851,1851
8852,1858
8853,1857
8854,1841
8855,1840
8856,1860
8857,1869
8858,1870
8859,1872
8860,1872
8861,1870
8862,1851
8863,1846
8864,1842
8865,1856
8866,1861
8867,1865
8868,1871
8869,1865
8870,1856
8871,1850
8872,1854
8873,1869
8874,1867
8875,1870
8876,1872
8877,1872
8878,1866
8879,1872
8880,1867
8881,1859
8882,1860
8883,1857
8884,1857
8885,1855
8886,1860
8887,1858
8888,1856
8889,1863
8890,1871
8891,1873
8892,1875
8893,1873
8894,1878
8895,1877
8896,1874
8897,1867
8898,1858
8899,1861
8900,1861
8901,1867
8902,1872
8903,1872
8904,1859
8905,1857
8906,1872
8907,1879
8908,1887
8909,1894
8910,1890
8911,1883
8912,1873
8913,1873
8914,1872
8915,1873
8916,1877
8917,1879
8918,1879
8919,1889
8920,1886
8921,1875
8922,1877
8923,1893
8924,1900
8925,1903
8926,1905
8927,1901
8928,1899
8929,1893
8930,1889
8931,1883
8932,1885
8933,1884
8934,1881
8935,1889
8936,1888
8937,1875
8938,1872
8939,1877
8940,1890
8941,1887
8942,1902
8943,1906
8944,1903
8945,1904
8946,1904
8947,1897
8948,1894
8949,1898
8950,1894
8951,1902
8952,1901
8953,1899
8954,1885
8955,1885
8956,1899
8957,1904
8958,1904
8959,1911
8960,1906
8961,1903
8962,1893
8963,1890
8964,1874
8965,1874
8966,1877
8967,1877
8968,1883
8969,1887
8970,1879
8971,1872
8972,1875
8973,1889
8974,1890
8975,1896
8976,1897
8977,1893
8978,1891
8979,1884
8980,1872
8981,1866
8982,1869
8983,1871
8984,1872
8985,1875
8986,1873
8987,1865
8988,1858
8989,1869
8990,1878
8991,1885
8992,1888
8993,1891
8994,1877
8995,1870
8996,1863
8997,1858
8998,1853
8999,1863
9000,1862
9001,1867
9002,1861
9003,1862
9004,1855
9005,1854
9006,1865
9007,1869
9008,1872
9009,1873
9010,1879
9011,1873
9012,1863
9013,1859
9014,1855
9015,1856
9016,1859
9017,1856
9018,1862
9019,1859
9020,1853
9021,1841
9022,1846
9023,1855
9024,1856
9025,1864
9026,1872
9027,1870
9028,1867
9029,1858
9030,1858
9031,1854
9032,1856
9033,1856
9034,1858
9035,1856
9036,1857
9037,1851
9038,1844
9039,1857
9040,1872
9041,1873
9042,1875
9043,1875
9044,1879
9045,1872
9046,1861
9047,1852
9048,1855
9049,1860
9050,1863
9051,1867
9052,1868
9053,1863
9054,1843
9055,1845
9056,1862
9057,1868
9058,1872
9059,1874
9060,1872
9061,1873
9062,1872
9063,1872
9064,1866
9065,1866
9066,1867
9067,1863
9068,1863
9069,1856
9070,1855
9071,1855
9072,1863
9073,1882
9074,1886
9075,1887
9076,1887
9077,1882
9078,1872
9079,1869
9080,1862
9081,1860
9082,1866
9083,1866
9084,1861
9085,1859
9086,1861
9087,1854
9088,1845
9089,1866
9090,1872
9091,1877
9092,1888
9093,1887
9094,1887
9095,1881
9096,1875
9097,1869
9098,1857
9099,1869
9100,1870
9101,1869
9102,1866
9103,1865
9104,1856
9105,1857
9106,1869
9107,1872
9108,1872
9109,1874
9110,1875
9111,1878
9112,1872
9113,1872
9114,1855
9115,1856
9116,1854
9117,1854
9118,1857
9119,1866
9120,1853
9121,1854
9122,1855
9123,1871
9124,1873
9125,1875
9126,1879
9127,1879
9128,1872
9129,1871
9130,1864
9131,1856
9132,1856
9133,1857
9134,1859
9135,1859
9136,1862
9137,1857
9138,1854
9139,1863
9140,1872
9141,1875
9142,1874
9143,1874
9144,1867
9145,1861
9146,1859
9147,1852
9148,1845
9149,1842
9150,1840
9151,1845
9152,1860
9153,1856
9154,1847
9155,1847
9156,1868
9157,1877
9158,1877
9159,1879
9160,1877
9161,1872
9162,1870
9163,1867
9164,1863
9165,1861
9166,1860
9167,1865
9168,1867
9169,1859
9170,1847
9171,1837
9172,1843
9173,1859
9174,1859
9175,1869
9176,1872
9177,1871
9178,1867
9179,1870
9180,1862
9181,1856
9182,1860
9183,1861
9184,1866
9185,1865
9186,1863
9187,1852
9188,1844
9189,1850
9190,1867
9191,1872
9192,1877
9193,1882
9194,1876
9195,1872
9196,1865
9197,1863
9198,1860
9199,1867
9200,1862
9201,1863
9202,1862
9203,1858
9204,1843
9205,1840
9206,1856
9207,1866
9208,1870
9209,1876
9210,1873
9211,1872
9212,1867
9213,1861
9214,1855
9215,1853
9216,1857
9217,1857
9218,1855
9219,1862
9220,1854
9221,1847
9222,1854
9223,1861
9224,1864
9225,1874
9226,1882
9227,1877
9228,1872
9229,1863
9230,1856
9231,1851
9232,1855
9233,1856
9234,1855
9235,1855
9236,1856
9237,1843
9238,1840
9239,1849
9240,1857
9241,1862
9242,1872
9243,1872
9244,1870
9245,1863
9246,1865
9247,1856
9248,1854
9249,1863
9250,1859
9251,1862
9252,1857
9253,1857
9254,1850
9255,1845
9256,1857
9257,1867
9258,1876
9259,1883
9260,1882
9261,1874
9262,1872
9263,1862
9264,1851
9265,1850
9266,1843
9267,1839
9268,1837
9269,1844
9270,1843
9271,1840
9272,1843
9273,1856
9274,1863
9275,1870
9276,1872
9277,1872
9278,1870
9279,1869
9280,1859
9281,1855
9282,1856
9283,1855
9284,1857
9285,1857
9286,1861
9287,1854
9288,1847
9289,1857
9290,1866
9291,1872
9292,1875
9293,1872
9294,1865
9295,1860
9296,1857
9297,1853
9298,1847
9299,1859
9300,1857
9301,1867
9302,1866
9303,1866
9304,1849
9305,1849
9306,1863
9307,1870
9308,1867
9309,1865
9310,1869
9311,1865
9312,1864
9313,1863
9314,1858
9315,1855
9316,1854
9317,1856
9318,1852
9319,1855
9320,1850
9321,1843
9322,1855
9323,1867
9324,1870
9325,1872
9326,1872
9327,1872
9328,1869
9329,1861
9330,1850
9331,1853
9332,1856
9333,1857
9334,1857
9335,1856
9336,1861
9337,1854
9338,1845
9339,1858
9340,1870
9341,1874
9342,1881
9343,1882
9344,1877
9345,1872
9346,1871
9347,1858
9348,1850
9349,1856
9350,1857
9351,1858
9352,1857
9353,1855
9354,1841
9355,1845
9356,1859
9357,1869
9358,1865
9359,1865
9360,1874
9361,1872
9362,1867
9363,1857
9364,1854
9365,1852
9366,1856
9367,1853
9368,1856
9369,1859
9370,1855
9371,1846
9372,1855
9373,1868
9374,1870
9375,1874
9376,1874
9377,1874
9378,1872
9379,1869
9380,1862
9381,1856
9382,1861
9383,1858
9384,1856
9385,1857
9386,1856
9387,1852
9388,1843
9389,1863
9390,1870
9391,1872
9392,1877
9393,1881
9394,1873
9395,1869
9396,1862
9397,1855
9398,1853
9399,1856
9400,1856
9401,1863
9402,1867
9403,1867
9404,1855
9405,1853
9406,1865
9407,1871
9408,1872
9409,1876
9410,1876
9411,1872
9412,1869
9413,1859
9414,1849
9415,1853
9416,1852
9417,1853
9418,1858
9419,1862
9420,1859
9421,1845
9422,1856
9423,1865
9424,1870
9425,1872
9426,1872
9427,1871
9428,1867
9429,1862
9430,1856
9431,1856
9432,1865
9433,1867
9434,1870
9435,1870
9436,1871
9437,1855
9438,1851
9439,1867
9440,1872
9441,1872
9442,1877
9443,1877
9444,1872
9445,1863
9446,1860
9447,1854
9448,1851
9449,1855
9450,1853
9451,1856
9452,1861
9453,1859
9454,1850
9455,1847
9456,1867
9457,1874
9458,1878
9459,1881
9460,1875
9461,1870
9462,1865
9463,1861
9464,1856
9465,1855
9466,1854
9467,1853
9468,1857
9469,1853
9470,1843
9471,1840
9472,1849
9473,1863
9474,1863
9475,1871
9476,1872
9477,1872
9478,1870
9479,1872
9480,1857
9481,1850
9482,1854
9483,1855
9484,1859
9485,1861
9486,1862
9487,1856
9488,1851
9489,1863
9490,1872
9491,1875
9492,1878
9493,1876
9494,1873
9495,1868
9496,1859
9497,1855
9498,1853
9499,1856
9500,1856
9501,1858
9502,1856
9503,1854
9504,1845
9505,1847
9506,1863
9507,1870
9508,1872
9509,1878
9510,1870
9511,1869
9512,1870
9513,1867
9514,1858
9515,1857
9516,1859
9517,1856
9518,1844
9519,1850
9520,1840
9521,1840
9522,1850
9523,1859
9524,1866
9525,1872
9526,1874
9527,1872
9528,1871
9529,1865
9530,1856
9531,1853
9532,1856
9533,1854
9534,1851
9535,1850
9536,1851
9537,1841
9538,1841
9539,1850
9540,1862
9541,1868
9542,1878
9543,1875
9544,1873
9545,1869
9546,1863
9547,1856
9548,1855
9549,1856
9550,1859
9551,1863
9552,1859
9553,1857
9554,1850
9555,1852
9556,1862
9557,1872
9558,1872
9559,1875
9560,1872
9561,1871
9562,1867
9563,1859
9564,1850
9565,1846
9566,1849
9567,1850
9568,1853
9569,1857
9570,1855
9571,1849
9572,1857
9573,1867
9574,1869
9575,1872
9576,1872
9577,1872
9578,1869
9579,1865
9580,1856
9581,1850
9582,1853
9583,1855
9584,1862
9585,1866
9586,1867
9587,1851
9588,1846
9589,1859
9590,1865
9591,1866
9592,1866
9593,1868
9594,1862
9595,1857
9596,1856
9597,1845
9598,1846
9599,1856
9600,1856
9601,1861
9602,1859
9603,1856
9604,1851
9605,1851
9606,1862
9607,1867
9608,1872
9609,1873
9610,1869
9611,1869
9612,1861
9613,1855
9614,1850
9615,1851
9616,1847
9617,1853
9618,1847
9619,1852
9620,1845
9621,1840
9622,1843
9623,1855
9624,1866
9625,1869
9626,1871
9627,1866
9628,1858
9629,1860
9630,1856
9631,1858
9632,1863
9633,1859
9634,1857
9635,1857
9636,1852
9637,1842
9638,1842
9639,1858
9640,1868
9641,1872
9642,1874
9643,1873
9644,1872
9645,1865
9646,1863
9647,1856
9648,1853
9649,1856
9650,1853
9651,1856
9652,1855
9653,1855
9654,1840
9655,1846
9656,1857
9657,1861
9658,1865
9659,1863
9660,1871
9661,1867
9662,1859
9663,1859
9664,1852
9665,1856
9666,1855
9667,1851
9668,1854
9669,1858
9670,1853
9671,1851
9672,1861
9673,1873
9674,1877
9675,1882
9676,1885
9677,1879
9678,1872
9679,1859
9680,1847
9681,1843
9682,1851
9683,1849
9684,1847
9685,1851
9686,1853
9687,1844
9688,1840
9689,1859
9690,1866
9691,1873
9692,1872
9693,1874
9694,1870
9695,1863
9696,1862
9697,1857
9698,1856
9699,1859
9700,1856
9701,1859
9702,1859
9703,1858
9704,1847
9705,1850
9706,1859
9707,1869
9708,1874
9709,1875
9710,1873
9711,1871
9712,1866
9713,1854
9714,1843
9715,1850
9716,1847
9717,1850
9718,1845
9719,1856
9720,1850
9721,1840
9722,1854
9723,1863
9724,1872
9725,1877
9726,1871
9727,1862
9728,1866
9729,1867
9730,1860
9731,1856
9732,1856
9733,1854
9734,1859
9735,1856
9736,1857
9737,1851
9738,1847
9739,1858
9740,1871
9741,1873
9742,1875
9743,1873
9744,1869
9745,1865
9746,1857
9747,1847
9748,1846
9749,1844
9750,1840
9751,1845
9752,1856
9753,1854
9754,1844
9755,1851
9756,1862
9757,1872
9758,1875
9759,1876
9760,1872
9761,1870
9762,1863
9763,1857
9764,1855
9765,1855
9766,1856
9767,1857
9768,1857
9769,1857
9770,1851
9771,1843
9772,1857
9773,1871
9774,1872
9775,1874
9776,1874
9777,1873
9778,1868
9779,1872
9780,1862
9781,1855
9782,1857
9783,1857
9784,1856
9785,1853
9786,1857
9787,1854
9788,1851
9789,1858
9790,1867
9791,1871
9792,1873
9793,1872
9794,1871
9795,1863
9796,1862
9797,1855
9798,1855
9799,1856
9800,1184
9801,1477
9802,2022
9803,2157
9804,2181
9805,2206
9806,2123
9807,2023
9808,1922
9809,1840
9810,1729
9811,1744
9812,1780
9813,1827
9814,1866
9815,2022
9816,2160
9817,2222
9818,2236
9819,2176
9820,2080
9821,1923
9822,1790
9823,1735
9824,1749
9825,1720
9826,1645
9827,1584
9828,1586
9829,1633
9830,1662
9831,2018
9832,971
9833,1870
9834,2175
9835,2231
9836,2224
9837,2089
9838,1840
9839,1578
9840,1653
9841,1789
9842,1877
9843,1919
9844,1948
9845,2055
9846,2179
9847,2261
9848,2251
9849,2117
9850,1964
9851,1766
9852,1667
9853,1698
9854,1697
9855,1638
9856,1653
9857,1727
9858,1776
9859,1792
9860,1807
9861,1811
9862,2115
9863,811
9864,1710
9865,2129
9866,2205
9867,2160
9868,1989
9869,1701
9870,1579
9871,1757
9872,1847
9873,1906
9874,1954
9875,2007
9876,2134
9877,2288
9878,2362
9879,2284
9880,2107
9881,1853
9882,1659
9883,1662
9884,1665
9885,1612
9886,1600
9887,1651
9888,1719
9889,1786
9890,1823
9891,1845
9892,1851
9893,1840
9894,948
9895,1518
9896,2037
9897,2169
9898,2181
9899,2071
9900,1707
9901,1610
9902,1798
9903,1875
9904,1918
9905,1983
9906,2070
9907,2192
9908,2298
9909,2311
9910,2177
9911,1959
9912,1690
9913,1619
9914,1624
9915,1581
9916,1583
9917,1667
9918,1744
9919,1797
9920,1823
9921,1841
9922,1872
9923,1874
9924,1851
9925,1503
9926,1166
9927,1953
9928,2205
9929,2253
9930,2154
9931,1791
9932,1649
9933,1886
9934,1940
9935,1962
9936,1987
9937,1997
9938,2069
9939,2174
9940,2170
9941,2031
9942,1796
9943,1654
9944,1659
9945,1616
9946,1584
9947,1650
9948,1744
9949,1801
9950,1831
9951,1859
9952,1868
9953,1846
9954,1845
9955,1853
9956,2848
9957,869
9958,1872
9959,2229
9960,2329
9961,2256
9962,1961
9963,1817
9964,1954
9965,1910
9966,1924
9967,1982
9968,1996
9969,2016
9970,2066
9971,2003
9972,1846
9973,1666
9974,1650
9975,1634
9976,1602
9977,1659
9978,1743
9979,1804
9980,1823
9981,1844
9982,1861
9983,1871
9984,1876
9985,1872
9986,1866
9987,1849
9988,874
9989,1610
9990,2112
9991,2256
9992,2249
9993,2031
9994,1902
9995,1983
9996,1926
9997,1958
9998,2035
9999,2084
10000,2062
10001,2043
10002,1952
10003,1731
10004,1602
10005,1598
10006,1573
10007,1621
10008,1731
10009,1799
10010,1823
10011,1842
10012,1854
10013,1858
10014,1858
10015,1870
10016,1867
10017,1869
10018,1872
10019,1225
10020,1363
10021,1989
10022,2175
10023,2197
10024,2047
10025,1989
10026,2030
10027,1973
10028,1991
10029,2064
10030,2111
10031,2064
10032,1979
10033,1811
10034,1629
10035,1599
10036,1557
10037,1579
10038,1674
10039,1762
10040,1807
10041,1829
10042,1849
10043,1856
10044,1857
10045,1858
10046,1866
10047,1858
10048,1857
10049,1858
10050,2519
10051,951
10052,1852
10053,2091
10054,2128
10055,2031
10056,2011
10057,2007
10058,1996
10059,2074
10060,2143
10061,2160
10062,2057
10063,1899
10064,1661
10065,1526
10066,1518
10067,1525
10068,1618
10069,1725
10070,1762
10071,1773
10072,1783
10073,1805
10074,1827
10075,1845
10076,1855
10077,1861
10078,1858
10079,1866
10080,1856
10081,1857
10082,890
10083,1618
10084,1990
10085,2074
10086,2012
10087,2011
10088,1997
10089,1984
10090,2063
10091,2142
10092,2179
10093,2066
10094,1904
10095,1661
10096,1531
10097,1511
10098,1535
10099,1648
10100,1731
10101,1776
10102,1792
10103,1797
10104,1799
10105,1825
10106,1845
10107,1853
10108,1856
10109,1865
10110,1858
10111,1856
10112,1854
10113,1264
10114,1362
10115,1907
10116,2021
10117,1984
10118,1990
10119,2066
10120,2002
10121,2041
10122,2116
10123,2155
10124,2063
10125,1891
10126,1674
10127,1582
10128,1535
10129,1578
10130,1667
10131,1741
10132,1779
10133,1792
10134,1794
10135,1806
10136,1824
10137,1818
10138,1815
10139,1839
10140,1847
10141,1853
10142,1863
10143,1862
10144,2434
10145,1022
10146,1776
10147,1973
10148,1973
10149,1944
10150,2080
10151,2024
10152,2033
10153,2118
10154,2146
10155,2079
10156,1926
10157,1719
10158,1602
10159,1572
10160,1587
10161,1677
10162,1749
10163,1782
10164,1783
10165,1791
10166,1797
10167,1815
10168,1825
10169,1842
10170,1840
10171,1840
10172,1846
10173,1856
10174,1858
10175,2169
10176,1125
10177,1630
10178,1936
10179,1968
10180,1920
10181,2076
10182,2047
10183,2022
10184,2111
10185,2150
10186,2103
10187,1942
10188,1735
10189,1600
10190,1565
10191,1585
10192,1670
10193,1745
10194,1775
10195,1789
10196,1799
10197,1807
10198,1815
10199,1831
10200,1838
10201,1840
10202,1842
10203,1842
10204,1841
10205,1855
10206,1875
10207,1486
10208,1360
10209,1897
10210,1997
10211,1921
10212,2059
10213,2085
10214,1978
10215,2055
10216,2110
10217,2099
10218,1978
10219,1825
10220,1635
10221,1595
10222,1591
10223,1638
10224,1713
10225,1770
10226,1797
10227,1808
10228,1815
10229,1823
10230,1826
10231,1842
10232,1857
10233,1858
10234,1857
10235,1857
10236,1853
10237,1842
10238,2189
10239,1222
10240,1731
10241,1955
10242,1936
10243,2034
10244,2130
10245,1985
10246,2027
10247,2103
10248,2096
10249,2014
10250,1904
10251,1702
10252,1610
10253,1574
10254,1613
10255,1721
10256,1802
10257,1840
10258,1843
10259,1834
10260,1842
10261,1849
10262,1851
10263,1856
10264,1844
10265,1841
10266,1840
10267,1841
10268,1850
10269,2301
10270,1309
10271,1511
10272,1905
10273,1938
10274,1958
10275,2143
10276,2042
10277,2032
10278,2112
10279,2107
10280,2047
10281,1968
10282,1778
10283,1619
10284,1577
10285,1591
10286,1664
10287,1725
10288,1765
10289,1808
10290,1837
10291,1844
10292,1860
10293,1869
10294,1871
10295,1865
10296,1859
10297,1857
10298,1857
10299,1856
10300,1857
10301,1511
10302,1335
10303,1826
10304,1935
10305,1908
10306,2121
10307,2075
10308,2007
10309,2093
10310,2111
10311,2064
10312,2004
10313,1851
10314,1655
10315,1597
10316,1578
10317,1649
10318,1725
10319,1776
10320,1791
10321,1797
10322,1830
10323,1840
10324,1855
10325,1870
10326,1879
10327,1873
10328,1867
10329,1866
10330,1871
10331,1878
10332,2022
10333,1334
10334,1768
10335,1968
10336,1889
10337,2027
10338,2076
10339,1981
10340,2052
10341,2096
10342,2059
10343,2021
10344,1913
10345,1710
10346,1647
10347,1633
10348,1662
10349,1712
10350,1751
10351,1779
10352,1806
10353,1808
10354,1805
10355,1829
10356,1855
10357,1872
10358,1886
10359,1889
10360,1888
10361,1887
10362,1877
10363,2935
10364,1366
10365,1535
10366,1904
10367,1908
10368,2023
10369,2112
10370,1978
10371,2001
10372,2091
10373,2056
10374,2032
10375,1979
10376,1783
10377,1667
10378,1613
10379,1620
10380,1696
10381,1751
10382,1791
10383,1808
10384,1827
10385,1839
10386,1840
10387,1840
10388,1850
10389,1858
10390,1857
10391,1867
10392,1875
10393,1881
10394,1881
10395,1520
10396,1392
10397,1825
10398,1917
10399,1929
10400,2125
10401,2032
10402,1993
10403,2073
10404,2043
10405,2026
10406,2027
10407,1867
10408,1686
10409,1634
10410,1621
10411,1682
10412,1753
10413,1783
10414,1802
10415,1821
10416,1829
10417,1840
10418,1842
10419,1858
10420,1851
10421,1853
10422,1867
10423,1875
10424,1879
10425,1883
10426,1885
10427,1879
10428,1873
10429,1872
10430,1862
10431,1857
10432,1859
10433,1856
10434,1853
10435,1845
10436,1845
10437,1840
10438,1840
10439,1850
10440,1863
10441,1861
10442,1872
10443,1871
10444,1870
10445,1862
10446,1857
10447,1852
10448,1850
10449,1851
10450,1855
10451,1856
10452,1856
10453,1847
10454,1842
10455,1854
10456,1859
10457,1865
10458,1872
10459,1873
10460,1872
10461,1863
10462,1857
10463,1855
10464,1843
10465,1854
10466,1855
10467,1853
10468,1851
10469,1856
10470,1841
10471,1840
10472,1853
10473,1859
10474,1867
10475,1872
10476,1872
10477,1870
10478,1862
10479,1860
10480,1854
10481,1850
10482,1854
10483,1856
10484,1859
10485,1859
10486,1855
10487,1847
10488,1846
10489,1858
10490,1867
10491,1871
10492,1874
10493,1878
10494,1867
10495,1859
10496,1856
10497,1853
10498,1850
10499,1858
10500,1859
10501,1856
10502,1856
10503,1853
10504,1847
10505,1856
10506,1872
10507,1879
10508,1879
10509,1877
10510,1872
10511,1871
10512,1868
10513,1858
10514,1855
10515,1857
10516,1855
10517,1859
10518,1855
10519,1857
10520,1854
10521,1852
10522,1867
10523,1873
10524,1879
10525,1885
10526,1885
10527,1877
10528,1872
10529,1871
10530,1861
10531,1865
10532,1868
10533,1863
10534,1871
10535,1870
10536,1868
10537,1858
10538,1863
10539,1877
10540,1882
10541,1883
10542,1888
10543,1886
10544,1886
10545,1879
10546,1874
10547,1877
10548,1879
10549,1881
10550,1884
10551,1883
10552,1882
10553,1874
10554,1862
10555,1872
10556,1878
10557,1881
10558,1887
10559,1887
10560,1886
10561,1889
10562,1882
10563,1883
10564,1874
10565,1879
10566,1881
10567,1886
10568,1886
10569,1886
10570,1877
10571,1875
10572,1889
10573,1900
10574,1904
10575,1904
10576,1904
10577,1901
10578,1895
10579,1889
10580,1882
10581,1883
10582,1889
10583,1889
10584,1887
10585,1887
10586,1884
10587,1873
10588,1874
10589,1897
10590,1904
10591,1904
10592,1907
10593,1908
10594,1906
10595,1905
10596,1902
10597,1893
10598,1894
10599,1899
10600,1904
10601,1903
10602,1903
10603,1890
10604,1877
10605,1877
10606,1894
10607,1907
10608,1911
10609,1914
10610,1910
10611,1905
10612,1904
10613,1895
10614,1885
10615,1887
10616,1885
10617,1887
10618,1885
10619,1891
10620,1881
10621,1872
10622,1896
10623,1903
10624,1904
10625,1905
10626,1903
10627,1895
10628,1889
10629,1887
10630,1883
10631,1885
10632,1882
10633,1875
10634,1883
10635,1882
10636,1876
10637,1869
10638,1871
10639,1885
10640,1888
10641,1892
10642,1893
10643,1890
10644,1877
10645,1874
10646,1871
10647,1863
10648,1863
10649,1865
10650,1863
10651,1860
10652,1870
10653,1861
10654,1853
10655,1863
10656,1872
10657,1879
10658,1883
10659,1883
10660,1879
10661,1875
10662,1872
10663,1860
10664,1856
10665,1862
10666,1856
10667,1865
10668,1866
10669,1862
10670,1851
10671,1847
10672,1866
10673,1872
10674,1867
10675,1872
10676,1873
10677,1872
10678,1865
10679,1866
10680,1856
10681,1856
10682,1856
10683,1856
10684,1860
10685,1860
10686,1859
10687,1849
10688,1853
10689,1869
10690,1874
10691,1878
10692,1880
10693,1873
10694,1867
10695,1861
10696,1857
10697,1849
10698,1856
10699,1855
10700,1857
10701,1857
10702,1858
10703,1846
10704,1833
10705,1843
10706,1856
10707,1862
10708,1867
10709,1874
10710,1872
10711,1866
10712,1858
10713,1854
10714,1850
10715,1859
10716,1861
10717,1870
10718,1856
10719,1856
10720,1844
10721,1831
10722,1855
10723,1866
10724,1874
10725,1875
10726,1881
10727,1873
10728,1867
10729,1867
10730,1856
10731,1855
10732,1862
10733,1858
10734,1856
10735,1857
10736,1853
10737,1843
10738,1847
10739,1856
10740,1865
10741,1869
10742,1877
10743,1875
10744,1871
10745,1866
10746,1857
10747,1851
10748,1851
10749,1857
10750,1861
10751,1865
10752,1869
10753,1855
10754,1847
10755,1856
10756,1871
10757,1874
10758,1874
10759,1878
10760,1877
10761,1872
10762,1870
10763,1861
10764,1855
10765,1856
10766,1853
10767,1858
10768,1856
10769,1863
10770,1856
10771,1855
10772,1868
10773,1875
10774,1882
10775,1879
10776,1874
10777,1871
10778,1870
10779,1871
10780,1862
10781,1862
10782,1859
10783,1856
10784,1859
10785,1863
10786,1859
10787,1853
10788,1855
10789,1867
10790,1872
10791,1873
10792,1879
10793,1874
10794,1864
10795,1859
10796,1855
10797,1847
10798,1851
10799,1859
10800,1869
10801,1859
10802,1863
10803,1854
10804,1846
10805,1858
10806,1867
10807,1874
10808,1877
10809,1879
10810,1875
10811,1873
10812,1871
10813,1866
10814,1862
10815,1867
10816,1865
10817,1868
10818,1858
10819,1858
10820,1847
10821,1843
10822,1856
10823,1867
10824,1870
10825,1872
10826,1872
10827,1872
10828,1863
10829,1856
10830,1850
10831,1855
10832,1858
10833,1856
10834,1857
10835,1857
10836,1856
10837,1853
10838,1857
10839,1872
10840,1877
10841,1881
10842,1882
10843,1881
10844,1874
10845,1872
10846,1865
10847,1861
10848,1862
10849,1859
10850,1863
10851,1866
10852,1867
10853,1856
10854,1841
10855,1855
10856,1866
10857,1872
10858,1874
10859,1874
10860,1872
10861,1869
10862,1867
10863,1861
10864,1857
10865,1859
10866,1857
10867,1861
10868,1857
10869,1862
10870,1853
10871,1849
10872,1863
10873,1874
10874,1878
10875,1878
10876,1879
10877,1877
10878,1872
10879,1871
10880,1858
10881,1856
10882,1854
10883,1854
10884,1856
10885,1856
10886,1855
10887,1841
10888,1845
10889,1862
10890,1867
10891,1873
10892,1879
10893,1875
10894,1874
10895,1871
10896,1865
10897,1858
10898,1857
10899,1857
10900,1861
10901,1859
10902,1858
10903,1849
10904,1841
10905,1856
10906,1868
10907,1872
10908,1877
10909,1877
10910,1875
10911,1872
10912,1871
10913,1862
10914,1851
10915,1850
10916,1849
10917,1858
10918,1856
10919,1862
10920,1848
10921,1842
10922,1863
10923,1872
10924,1876
10925,1880
10926,1876
10927,1875
10928,1872
10929,1868
10930,1859
10931,1860
10932,1861
10933,1861
10934,1868
10935,1866
10936,1858
10937,1850
10938,1851
10939,1866
10940,1872
10941,1876
10942,1879
10943,1875
10944,1871
10945,1866
10946,1857
10947,1849
10948,1849
10949,1843
10950,1854
10951,1858
10952,1872
10953,1865
10954,1856
10955,1861
10956,1872
10957,1872
10958,1878
10959,1879
10960,1875
10961,1872
10962,1870
10963,1866
10964,1861
10965,1865
10966,1865
10967,1867
10968,1865
10969,1863
10970,1855
10971,1850
10972,1860
10973,1871
10974,1870
10975,1875
10976,1875
10977,1871
10978,1860
10979,1866
10980,1856
10981,1855
10982,1858
10983,1859
10984,1860
10985,1865
10986,1856
10987,1847
10988,1852
10989,1867
10990,1873
10991,1879
10992,1883
10993,1879
10994,1874
10995,1869
10996,1865
10997,1856
10998,1857
10999,1856
11000,1862
11001,1864
11002,1866
11003,1856
11004,1840
11005,1851
11006,1855
11007,1866
11008,1871
11009,1878
11010,1877
11011,1868
11012,1866
11013,1858
11014,1855
11015,1857
11016,1855
11017,1860
11018,1859
11019,1856
11020,1852
11021,1841
11022,1866
11023,1872
11024,1877
11025,1884
11026,1881
11027,1872
11028,1871
11029,1867
11030,1858
11031,1856
11032,1859
11033,1860
11034,1857
11035,1857
11036,1851
11037,1840
11038,1844
11039,1859
11040,1869
11041,1869
11042,1883
11043,1878
11044,1873
11045,1870
11046,1862
11047,1856
11048,1858
11049,1856
11050,1858
11051,1863
11052,1865
11053,1853
11054,1841
11055,1855
11056,1867
11057,1873
11058,1882
11059,1882
11060,1878
11061,1872
11062,1872
11063,1865
11064,1852
11065,1857
11066,1854
11067,1855
11068,1851
11069,1859
11070,1850
11071,1845
11072,1862
11073,1870
11074,1875
11075,1881
11076,1879
11077,1874
11078,1871
11079,1865
11080,1856
11081,1856
11082,1857
11083,1854
11084,1858
11085,1865
11086,1859
11087,1854
11088,1856
11089,1869
11090,1872
11091,1875
11092,1883
11093,1878
11094,1872
11095,1866
11096,1856
11097,1849
11098,1847
11099,1854
11100,1857
11101,1857
11102,1861
11103,1853
11104,1845
11105,1859
11106,1866
11107,1873
11108,1875
11109,1876
11110,1873
11111,1872
11112,1870
11113,1857
11114,1855
11115,1858
11116,1855
11117,1860
11118,1855
11119,1852
11120,1840
11121,1840
11122,1856
11123,1866
11124,1872
11125,1873
11126,1872
11127,1872
11128,1863
11129,1857
11130,1850
11131,1856
11132,1856
11133,1857
11134,1857
11135,1857
11136,1854
11137,1845
11138,1856
11139,1862
11140,1872
11141,1877
11142,1880
11143,1875
11144,1870
11145,1867
11146,1859
11147,1855
11148,1857
11149,1856
11150,1863
11151,1860
11152,1861
11153,1855
11154,1840
11155,1851
11156,1865
11157,1872
11158,1875
11159,1872
11160,1877
11161,1872
11162,1872
11163,1863
11164,1860
11165,1863
11166,1859
11167,1866
11168,1862
11169,1861
11170,1851
11171,1851
11172,1865
11173,1872
11174,1878
11175,1882
11176,1879
11177,1875
11178,1872
11179,1870
11180,1860
11181,1857
11182,1861
11183,1861
11184,1858
11185,1858
11186,1851
11187,1844
11188,1850
11189,1870
11190,1875
11191,1882
11192,1885
11193,1878
11194,1872
11195,1863
11196,1856
11197,1851
11198,1856
11199,1854
11200,1857
11201,1857
11202,1859
11203,1850
11204,1843
11205,1858
11206,1868
11207,1872
11208,1878
11209,1881
11210,1877
11211,1867
11212,1862
11213,1856
11214,1849
11215,1855
11216,1849
11217,1856
11218,1855
11219,1859
11220,1851
11221,1840
11222,1863
11223,1871
11224,1873
11225,1879
11226,1879
11227,1872
11228,1868
11229,1865
11230,1856
11231,1854
11232,1857
11233,1854
11234,1857
11235,1862
11236,1855
11237,1843
11238,1854
11239,1866
11240,1870
11241,1875
11242,1878
11243,1877
11244,1866
11245,1860
11246,1856
11247,1853
11248,1854
11249,1847
11250,1851
11251,1850
11252,1859
11253,1853
11254,1845
11255,1861
11256,1871
11257,1873
11258,1877
11259,1879
11260,1877
11261,1872
11262,1871
11263,1859
11264,1856
11265,1862
11266,1855
11267,1858
11268,1857
11269,1856
11270,1845
11271,1849
11272,1861
11273,1868
11274,1872
11275,1873
11276,1872
11277,1867
11278,1860
11279,1862
11280,1855
11281,1851
11282,1854
11283,1851
11284,1856
11285,1857
11286,1851
11287,1843
11288,1850
11289,1872
11290,1873
11291,1877
11292,1879
11293,1876
11294,1872
11295,1865
11296,1856
11297,1856
11298,1855
11299,1855
11300,1862
11301,1857
11302,1858
11303,1847
11304,1841
11305,1856
11306,1869
11307,1872
11308,1877
11309,1879
11310,1875
11311,1869
11312,1865
11313,1856
11314,1855
11315,1858
11316,1858
11317,1860
11318,1855
11319,1859
11320,1847
11321,1840
11322,1862
11323,1872
11324,1875
11325,1879
11326,1877
11327,1872
11328,1869
11329,1859
11330,1850
11331,1852
11332,1854
11333,1856
11334,1856
11335,1856
11336,1849
11337,1843
11338,1851
11339,1859
11340,1869
11341,1872
11342,1881
11343,1882
11344,1872
11345,1871
11346,1861
11347,1855
11348,1856
11349,1857
11350,1864
11351,1860
11352,1860
11353,1850
11354,1844
11355,1857
11356,1867
11357,1872
11358,1878
11359,1882
11360,1875
11361,1871
11362,1872
11363,1863
11364,1853
11365,1855
11366,1853
11367,1856
11368,1856
11369,1861
11370,1853
11371,1851
11372,1863
11373,1872
11374,1881
11375,1885
11376,1882
11377,1875
11378,1872
11379,1863
11380,1855
11381,1858
11382,1856
11383,1859
11384,1856
11385,1855
11386,1847
11387,1840
11388,1843
11389,1859
11390,1869
11391,1874
11392,1883
11393,1882
11394,1868
11395,1865
11396,1854
11397,1852
11398,1847
11399,1855
11400,1856
11401,1856
11402,1857
11403,1847
11404,1841
11405,1856
11406,1867
11407,1872
11408,1893
11409,1885
11410,1872
11411,1869
11412,1865
11413,1856
11414,1853
11415,1856
11416,1854
11417,1861
11418,1866
11419,1854
11420,1838
11421,1840
11422,1858
11423,1877
11424,1872
11425,1874
11426,1872
11427,2069
11428,735
11429,1769
11430,2208
11431,2300
11432,2299
11433,2285
11434,2098
11435,1773
11436,1614
11437,1611
11438,1729
11439,1883
11440,1894
11441,1899
11442,1959
11443,2071
11444,2166
11445,2203
11446,2192
11447,2143
11448,2028
11449,1914
11450,1806
11451,1706
11452,1666
11453,1642
11454,1616
11455,1617
11456,1617
11457,1643
11458,1696
11459,907
11460,1392
11461,2093
11462,2284
11463,2299
11464,2270
11465,1988
11466,1535
11467,1535
11468,1679
11469,1843
11470,1866
11471,1898
11472,1963
11473,2081
11474,2188
11475,2250
11476,2224
11477,2110
11478,1968
11479,1851
11480,1727
11481,1675
11482,1695
11483,1650
11484,1584
11485,1600
11486,1642
11487,1680
11488,1712
11489,1758
11490,1843
11491,1088
11492,2032
11493,2346
11494,2414
11495,2387
11496,2066
11497,1494
11498,1519
11499,1695
11500,1819
11501,1866
11502,1925
11503,1968
11504,2063
11505,2192
11506,2244
11507,2199
11508,2064
11509,1919
11510,1771
11511,1689
11512,1712
11513,1701
11514,1655
11515,1666
11516,1713
11517,1767
11518,1794
11519,1808
11520,1797
11521,2404
11522,688
11523,1778
11524,2213
11525,2333
11526,2352
11527,2103
11528,1571
11529,1623
11530,1766
11531,1821
11532,1874
11533,1917
11534,1969
11535,2096
11536,2217
11537,2224
11538,2130
11539,1969
11540,1804
11541,1670
11542,1667
11543,1699
11544,1678
11545,1683
11546,1720
11547,1753
11548,1770
11549,1739
11550,1737
11551,1790
11552,1831
11553,742
11554,1627
11555,2215
11556,2402
11557,2437
11558,2204
11559,1648
11560,1689
11561,1840
11562,1883
11563,1915
11564,1938
11565,1975
11566,2087
11567,2199
11568,2192
11569,2038
11570,1842
11571,1646
11572,1577
11573,1611
11574,1611
11575,1622
11576,1677
11577,1741
11578,1779
11579,1811
11580,1833
11581,1851
11582,1870
11583,1884
11584,1292
11585,1337
11586,2112
11587,2374
11588,2432
11589,2286
11590,1744
11591,1697
11592,1862
11593,1890
11594,1955
11595,1998
11596,2023
11597,2112
11598,2179
11599,2103
11600,1911
11601,1707
11602,1520
11603,1499
11604,1522
11605,1535
11606,1629
11607,1728
11608,1808
11609,1842
11610,1854
11611,1859
11612,1872
11613,1865
11614,1856
11615,2938
11616,818
11617,1913
11618,2332
11619,2448
11620,2361
11621,1840
11622,1637
11623,1872
11624,1946
11625,2026
11626,2080
11627,2093
11628,2121
11629,2161
11630,2064
11631,1856
11632,1630
11633,1473
11634,1485
11635,1510
11636,1535
11637,1623
11638,1739
11639,1808
11640,1846
11641,1872
11642,1904
11643,1915
11644,1891
11645,1873
11646,1865
11647,687
11648,1666
11649,2202
11650,2383
11651,2373
11652,1968
11653,1659
11654,1872
11655,1941
11656,1996
11657,2042
11658,2073
11659,2115
11660,2182
11661,2108
11662,1900
11663,1657
11664,1491
11665,1515
11666,1523
11667,1559
11668,1645
11669,1735
11670,1787
11671,1823
11672,1861
11673,1884
11674,1885
11675,1903
11676,1904
11677,1893
11678,1187
11679,1360
11680,2057
11681,2292
11682,2320
11683,2062
11684,1792
11685,1899
11686,1942
11687,1959
11688,1988
11689,2032
11690,2097
11691,2198
11692,2160
11693,1974
11694,1711
11695,1535
11696,1535
11697,1526
11698,1558
11699,1652
11700,1754
11701,1808
11702,1829
11703,1826
11704,1828
11705,1855
11706,1875
11707,1891
11708,1898
11709,2262
11710,1061
11711,1972
11712,2271
11713,2327
11714,2135
11715,1886
11716,1904
11717,1940
11718,1950
11719,1949
11720,1968
11721,2021
11722,2160
11723,2147
11724,1963
11725,1702
11726,1569
11727,1589
11728,1575
11729,1584
11730,1655
11731,1744
11732,1791
11733,1831
11734,1843
11735,1854
11736,1859
11737,1859
11738,1879
11739,1895
11740,1975
11741,641
11742,1754
11743,2154
11744,2270
11745,2175
11746,1933
11747,1925
11748,1971
11749,2009
11750,2000
11751,2003
11752,2055
11753,2150
11754,2139
11755,1972
11756,1715
11757,1557
11758,1561
11759,1554
11760,1586
11761,1680
11762,1755
11763,1792
11764,1822
11765,1840
11766,1854
11767,1869
11768,1872
11769,1867
11770,1865
11771,1872
11772,950
11773,1474
11774,2053
11775,2230
11776,2197
11777,2019
11778,1977
11779,1979
11780,2007
11781,1997
11782,1997
11783,2026
11784,2138
11785,2170
11786,2001
11787,1731
11788,1567
11789,1576
11790,1558
11791,1598
11792,1695
11793,1766
11794,1802
11795,1819
11796,1833
11797,1843
11798,1861
11799,1867
11800,1879
11801,1886
11802,1889
11803,2022
11804,1062
11805,1909
11806,2149
11807,2178
11808,2041
11809,2045
11810,2007
11811,2031
11812,2032
11813,2000
11814,1988
11815,2090
11816,2166
11817,2039
11818,1783
11819,1597
11820,1572
11821,1535
11822,1584
11823,1677
11824,1764
11825,1818
11826,1846
11827,1855
11828,1850
11829,1858
11830,1869
11831,1871
11832,1871
11833,1875
11834,2272
11835,663
11836,1761
11837,2040
11838,2128
11839,2031
11840,2075
11841,2039
11842,2030
11843,2045
11844,1986
11845,1967
11846,2061
11847,2183
11848,2115
11849,1878
11850,1629
11851,1570
11852,1535
11853,1559
11854,1636
11855,1734
11856,1793
11857,1831
11858,1858
11859,1872
11860,1883
11861,1886
11862,1879
11863,1872
11864,1872
11865,1875
11866,768
11867,1535
11868,2000
11869,2134
11870,2055
11871,2065
11872,2057
11873,2000
11874,2033
11875,2010
11876,1974
11877,2034
11878,2173
11879,2133
11880,1923
11881,1671
11882,1593
11883,1584
11884,1584
11885,1649
11886,1728
11887,1766
11888,1805
11889,1839
11890,1862
11891,1876
11892,1891
11893,1893
11894,1891
11895,1887
11896,1887
11897,1570
11898,1199
11899,1921
11900,2112
11901,2081
11902,2021
11903,2063
11904,1971
11905,2013
11906,2007
11907,1957
11908,1991
11909,2171
11910,2182
11911,2000
11912,1728
11913,1605
11914,1587
11915,1578
11916,1621
11917,1714
11918,1773
11919,1803
11920,1811
11921,1822
11922,1854
11923,1867
11924,1874
