Time(ms),Raw_ADC,ENV_Value,RMS,MDF,MW_Amp,MW_Area,MW_Latency,MW_Valid,Marker
0,1904.3,10.2,0.0,0.0,0.0,0.0,0.0,0,
100,1899.1,36.1,0.0,0.0,0.0,0.0,0.0,0,
200,1896.2,33.9,0.0,0.0,0.0,0.0,0.0,0,
300,1897.4,35.1,0.0,0.0,0.0,0.0,0.0,0,
400,1893.3,32.7,0.0,0.0,0.0,0.0,0.0,0,
500,1895.5,33.4,0.0,0.0,0.0,0.0,0.0,0,
600,1897.2,35.0,0.0,0.0,0.0,0.0,0.0,0,
700,1894.9,36.0,0.0,0.0,0.0,0.0,0.0,0,
800,1894.7,33.1,0.0,0.0,0.0,0.0,0.0,0,
900,1896.3,34.2,0.0,0.0,0.0,0.0,0.0,0,
1000,1895.0,35.4,0.0,0.0,0.0,0.0,0.0,0,
1100,1891.4,32.6,0.0,0.0,0.0,0.0,0.0,0,
1200,1896.5,29.4,0.0,0.0,0.0,0.0,0.0,0,
1300,1890.3,34.7,0.0,0.0,0.0,0.0,0.0,0,
1400,1896.7,35.7,0.0,0.0,0.0,0.0,0.0,0,
1500,1895.2,34.0,0.0,0.0,0.0,0.0,0.0,0,
1600,1894.9,35.7,0.0,0.0,0.0,0.0,0.0,0,
1700,1895.4,33.0,0.0,0.0,0.0,0.0,0.0,0,
1800,1896.8,34.7,0.0,0.0,0.0,0.0,0.0,0,
1900,1895.1,36.6,0.0,0.0,0.0,0.0,0.0,0,
2000,1892.9,31.2,0.0,0.0,0.0,0.0,0.0,0,
2100,1896.8,34.8,0.0,0.0,0.0,0.0,0.0,0,
2200,1894.1,35.2,0.0,0.0,0.0,0.0,0.0,0,
2300,1888.3,29.9,0.0,0.0,0.0,0.0,0.0,0,
2400,1896.1,31.4,0.0,0.0,0.0,0.0,0.0,0,
2500,1891.8,33.8,0.0,0.0,0.0,0.0,0.0,0,
2600,1895.4,33.3,0.0,0.0,0.0,0.0,0.0,0,
2700,1896.8,34.4,0.0,0.0,0.0,0.0,0.0,0,
2800,1894.8,36.6,0.0,0.0,0.0,0.0,0.0,0,
2900,1895.8,33.9,0.0,0.0,0.0,0.0,0.0,0,
3000,1895.4,29.6,0.0,0.0,0.0,0.0,0.0,0,
3100,1894.5,11.6,0.0,0.0,0.0,0.0,0.0,0,
3200,1895.5,11.7,0.0,0.0,0.0,0.0,0.0,0,
3300,1894.6,10.3,0.0,0.0,0.0,0.0,0.0,0,
3400,1891.5,11.6,0.0,0.0,0.0,0.0,0.0,0,
3500,1893.1,12.5,0.0,0.0,0.0,0.0,0.0,0,
3600,1893.2,11.8,0.0,0.0,0.0,0.0,0.0,0,
3700,1892.4,11.8,0.0,0.0,0.0,0.0,0.0,0,
3800,1895.3,12.2,0.0,0.0,0.0,0.0,0.0,0,
3900,1896.6,10.5,0.0,0.0,0.0,0.0,0.0,0,
4000,1893.6,10.6,0.0,0.0,0.0,0.0,0.0,0,
4100,1893.9,12.3,0.0,0.0,0.0,0.0,0.0,0,
4200,1896.6,12.6,0.0,0.0,0.0,0.0,0.0,0,
4300,1890.3,12.9,0.0,0.0,0.0,0.0,0.0,0,
4400,1891.3,13.9,0.0,0.0,0.0,0.0,0.0,0,
4500,1895.1,10.8,0.0,0.0,0.0,0.0,0.0,0,
4600,1891.5,12.0,0.0,0.0,0.0,0.0,0.0,0,
4700,1891.6,13.4,0.0,0.0,0.0,0.0,0.0,0,
4800,1896.1,11.1,0.0,0.0,0.0,0.0,0.0,0,
4900,1893.0,11.2,0.0,0.0,0.0,0.0,0.0,0,
5000,1891.6,13.3,0.0,0.0,0.0,0.0,0.0,0,
5100,1895.3,11.1,0.0,0.0,0.0,0.0,0.0,0,
5200,1892.6,11.2,0.0,0.0,0.0,0.0,0.0,0,
5300,1891.6,14.9,0.0,0.0,0.0,0.0,0.0,0,
5400,1895.3,11.3,0.0,0.0,0.0,0.0,0.0,0,
5500,1890.7,12.2,0.0,0.0,0.0,0.0,0.0,0,
5600,1893.7,12.8,0.0,0.0,0.0,0.0,0.0,0,
5700,1895.5,11.0,0.0,0.0,0.0,0.0,0.0,0,
5800,1892.5,11.2,0.0,0.0,0.0,0.0,0.0,0,
5900,1893.7,12.9,0.0,0.0,0.0,0.0,0.0,0,
6000,1895.1,11.1,0.0,0.0,0.0,0.0,0.0,0,
6100,1889.0,14.3,0.0,0.0,0.0,0.0,0.0,0,
6200,1892.8,13.5,0.0,0.0,0.0,0.0,0.0,0,
6300,1894.6,11.3,0.0,0.0,0.0,0.0,0.0,0,
6400,1892.1,11.5,0.0,0.0,0.0,0.0,0.0,0,
6500,1889.8,15.3,0.0,0.0,0.0,0.0,0.0,0,
6600,1894.4,11.7,0.0,0.0,0.0,0.0,0.0,0,
6700,1889.9,12.4,0.0,0.0,0.0,0.0,0.0,0,
6800,1892.8,13.4,0.0,0.0,0.0,0.0,0.0,0,
6900,1894.2,11.4,0.0,0.0,0.0,0.0,0.0,0,
7000,1890.5,16.1,0.0,0.0,0.0,0.0,0.0,0,
7100,1892.4,13.7,0.0,0.0,0.0,0.0,0.0,0,
7200,1894.7,11.9,0.0,0.0,0.0,0.0,0.0,0,
7300,1891.5,11.7,0.0,0.0,0.0,0.0,0.0,0,
7400,1893.2,13.3,0.0,0.0,0.0,0.0,0.0,0,
7500,1893.3,11.9,0.0,0.0,0.0,0.0,0.0,0,
7600,1892.0,11.5,0.0,0.0,0.0,0.0,0.0,0,
7700,1888.9,16.1,0.0,0.0,0.0,0.0,0.0,0,
7800,1891.8,12.8,0.0,0.0,0.0,0.0,0.0,0,
7900,1888.6,12.9,0.0,0.0,0.0,0.0,0.0,0,
8000,1892.1,14.0,0.0,0.0,0.0,0.0,0.0,0,
8100,1893.8,14.7,0.0,0.0,0.0,0.0,0.0,0,
8200,1887.4,13.9,0.0,0.0,0.0,0.0,0.0,0,
8300,1891.9,14.4,0.0,0.0,0.0,0.0,0.0,0,
8400,1893.8,9.6,0.0,0.0,0.0,0.0,0.0,0,
8500,1890.1,12.9,0.0,0.0,0.0,0.0,0.0,0,
8600,1891.0,15.8,0.0,0.0,0.0,0.0,0.0,0,
8700,1892.2,11.7,0.0,0.0,0.0,0.0,0.0,0,
8800,1889.4,12.7,0.0,0.0,0.0,0.0,0.0,0,
8900,1891.7,14.4,0.0,0.0,0.0,0.0,0.0,0,
9000,1894.3,11.3,0.0,0.0,0.0,0.0,0.0,0,
9100,1891.7,11.7,0.0,0.0,0.0,0.0,0.0,0,
9200,1891.0,14.0,0.0,0.0,0.0,0.0,0.0,0,
9300,1894.6,11.3,0.0,0.0,0.0,0.0,0.0,0,
9400,1892.0,11.4,0.0,0.0,0.0,0.0,0.0,0,
9500,1893.0,13.9,0.0,0.0,0.0,0.0,0.0,0,
9600,1894.6,11.3,0.0,0.0,0.0,0.0,0.0,0,
9700,1891.7,11.5,0.0,0.0,0.0,0.0,0.0,0,
9800,1892.1,14.3,0.0,0.0,0.0,0.0,0.0,0,
9900,1894.3,11.3,0.0,0.0,0.0,0.0,0.0,0,
10000,1891.6,11.4,0.0,0.0,0.0,0.0,0.0,0,
10100,1892.8,13.7,0.0,0.0,0.0,0.0,0.0,0,
10200,1891.9,11.8,0.0,0.0,0.0,0.0,0.0,0,
10300,1891.0,12.2,0.0,0.0,0.0,0.0,0.0,0,
10400,1892.8,13.8,0.0,0.0,0.0,0.0,0.0,0,
10500,1892.6,11.6,0.0,0.0,0.0,0.0,0.0,0,
10600,1890.5,13.6,0.0,0.0,0.0,0.0,0.0,0,
10700,1892.6,13.9,0.0,0.0,0.0,0.0,0.0,0,
10800,1892.6,15.1,0.0,0.0,0.0,0.0,0.0,0,
10900,1890.0,11.9,0.0,0.0,0.0,0.0,0.0,0,
11000,1891.4,14.3,0.0,0.0,0.0,0.0,0.0,0,
11100,1894.4,11.7,0.0,0.0,0.0,0.0,0.0,0,
11200,1892.4,11.5,0.0,0.0,0.0,0.0,0.0,0,
11300,1891.1,14.2,0.0,0.0,0.0,0.0,0.0,0,
11400,1890.4,13.6,0.0,0.0,0.0,0.0,0.0,0,
11500,1890.9,11.7,0.0,0.0,0.0,0.0,0.0,0,
11600,1892.5,13.7,0.0,0.0,0.0,0.0,0.0,0,
11700,1894.1,14.7,0.0,0.0,0.0,0.0,0.0,0,
11800,1889.5,11.9,0.0,0.0,0.0,0.0,0.0,0,
11900,1892.8,13.7,0.0,0.0,0.0,0.0,0.0,0,
12000,1893.5,11.3,0.0,0.0,0.0,0.0,0.0,0,
12100,1889.5,13.2,0.0,0.0,0.0,0.0,0.0,0,
12200,1892.2,14.3,0.0,0.0,0.0,0.0,0.0,0,
12300,1893.9,11.4,0.0,0.0,0.0,0.0,0.0,0,
12400,1890.9,11.8,0.0,0.0,0.0,0.0,0.0,0,
12500,1892.6,13.8,0.0,0.0,0.0,0.0,0.0,0,
12600,1893.9,11.8,0.0,0.0,0.0,0.0,0.0,0,
12700,1891.0,11.8,0.0,0.0,0.0,0.0,0.0,0,
12800,1892.9,14.3,0.0,0.0,0.0,0.0,0.0,0,
12900,1893.5,12.0,0.0,0.0,0.0,0.0,0.0,0,
13000,1891.2,11.5,0.0,0.0,0.0,0.0,0.0,0,
13100,1891.6,13.9,0.0,0.0,0.0,0.0,0.0,0,
13200,1893.2,11.7,0.0,0.0,0.0,0.0,0.0,0,
13300,1889.6,12.5,0.0,0.0,0.0,0.0,0.0,0,
13400,1891.7,13.9,0.0,0.0,0.0,0.0,0.0,0,
13500,1893.8,12.0,0.0,0.0,0.0,0.0,0.0,0,
13600,1891.1,11.7,0.0,0.0,0.0,0.0,0.0,0,
13700,1892.1,14.3,0.0,0.0,0.0,0.0,0.0,0,
13800,1894.0,12.0,0.0,0.0,0.0,0.0,0.0,0,
13900,1891.3,14.5,0.0,0.0,0.0,0.0,0.0,0,
14000,1891.9,14.6,0.0,0.0,0.0,0.0,0.0,0,
14100,1893.4,11.8,0.0,0.0,0.0,0.0,0.0,0,
14200,1889.3,13.1,0.0,0.0,0.0,0.0,0.0,0,
14300,1892.0,14.5,0.0,0.0,0.0,0.0,0.0,0,
14400,1893.9,12.4,0.0,0.0,0.0,0.0,0.0,0,
14500,1890.7,12.3,0.0,0.0,0.0,0.0,0.0,0,
14600,1891.5,14.6,0.0,0.0,0.0,0.0,0.0,0,
14700,1892.6,12.6,0.0,0.0,0.0,0.0,0.0,0,
14800,1889.7,12.3,0.0,0.0,0.0,0.0,0.0,0,
14900,1891.1,14.9,0.0,0.0,0.0,0.0,0.0,0,
15000,1892.9,12.9,0.0,0.0,0.0,0.0,0.0,0,rest_end
15100,1888.4,13.2,0.0,0.0,0.0,0.0,0.0,0,
15200,1888.0,15.9,0.0,0.0,0.0,0.0,0.0,0,
15300,1891.6,14.1,0.0,0.0,0.0,0.0,0.0,0,
15400,1889.2,12.8,0.0,0.0,0.0,0.0,0.0,0,
15500,1890.7,15.1,0.0,0.0,0.0,0.0,0.0,0,
15600,1890.4,13.2,0.0,0.0,0.0,0.0,0.0,0,
15700,1889.7,12.8,0.0,0.0,0.0,0.0,0.0,0,
15800,1891.5,15.0,0.0,0.0,0.0,0.0,0.0,0,
15900,1892.3,12.9,0.0,0.0,0.0,0.0,0.0,0,
16000,1889.4,12.7,0.0,0.0,0.0,0.0,0.0,0,
16100,1890.4,15.3,0.0,0.0,0.0,0.0,0.0,0,
16200,1891.8,13.1,0.0,0.0,0.0,0.0,0.0,0,
16300,1887.2,14.2,0.0,0.0,0.0,0.0,0.0,0,
16400,1888.1,18.2,0.0,0.0,0.0,0.0,0.0,0,
16500,1891.5,13.5,0.0,0.0,0.0,0.0,0.0,0,
16600,1888.9,12.8,0.0,0.0,0.0,0.0,0.0,0,
16700,1890.4,15.2,0.0,0.0,0.0,0.0,0.0,0,
16800,1890.3,13.7,0.0,0.0,0.0,0.0,0.0,0,
16900,1889.1,12.8,0.0,0.0,0.0,0.0,0.0,0,
17000,1888.4,16.3,0.0,0.0,0.0,0.0,0.0,0,
17100,1892.1,13.3,0.0,0.0,0.0,0.0,0.0,0,
17200,1888.8,13.0,0.0,0.0,0.0,0.0,0.0,0,
17300,1892.1,13.7,0.0,0.0,0.0,0.0,0.0,0,
17400,1890.6,13.6,0.0,0.0,0.0,0.0,0.0,0,
17500,1888.6,13.8,0.0,0.0,0.0,0.0,0.0,0,
17600,1890.3,15.2,0.0,0.0,0.0,0.0,0.0,0,
17700,1891.8,13.5,0.0,0.0,0.0,0.0,0.0,0,
17800,1887.9,13.0,0.0,0.0,0.0,0.0,0.0,0,
17900,1890.7,15.9,0.0,0.0,0.0,0.0,0.0,0,
18000,1891.4,13.5,0.0,0.0,0.0,0.0,0.0,0,
18100,1888.1,13.2,0.0,0.0,0.0,0.0,0.0,0,
18200,1889.9,15.9,0.0,0.0,0.0,0.0,0.0,0,
18300,1889.3,14.8,0.0,0.0,0.0,0.0,0.0,0,
18400,1885.9,14.7,0.0,0.0,0.0,0.0,0.0,0,
18500,1890.3,16.1,0.0,0.0,0.0,0.0,0.0,0,
18600,1891.9,13.5,0.0,0.0,0.0,0.0,0.0,0,
18700,1888.9,12.7,0.0,0.0,0.0,0.0,0.0,0,
18800,1890.9,15.7,0.0,0.0,0.0,0.0,0.0,0,
18900,1892.7,12.7,0.0,0.0,0.0,0.0,0.0,0,
19000,1889.8,12.6,0.0,0.0,0.0,0.0,0.0,0,
19100,1890.6,15.8,0.0,0.0,0.0,0.0,0.0,0,
19200,1892.7,12.8,0.0,0.0,0.0,0.0,0.0,0,
19300,1886.9,13.9,0.0,0.0,0.0,0.0,0.0,0,
19400,1890.7,16.1,0.0,0.0,0.0,0.0,0.0,0,
19500,1892.2,13.0,0.0,0.0,0.0,0.0,0.0,0,
19600,1888.8,12.5,0.0,0.0,0.0,0.0,0.0,0,
19700,1890.8,15.9,0.0,0.0,0.0,0.0,0.0,0,
19800,1892.0,13.4,0.0,0.0,0.0,0.0,0.0,0,
19900,1886.1,14.1,0.0,0.0,0.0,0.0,0.0,0,
20000,1890.5,16.3,0.0,0.0,0.0,0.0,0.0,0,
20100,1892.3,13.1,0.0,0.0,0.0,0.0,0.0,0,
20200,1889.3,12.7,0.0,0.0,0.0,0.0,0.0,0,
20300,1891.1,16.0,0.0,0.0,0.0,0.0,0.0,0,
20400,1892.4,13.0,0.0,0.0,0.0,0.0,0.0,0,
20500,1889.5,12.7,0.0,0.0,0.0,0.0,0.0,0,
20600,1891.1,15.7,0.0,0.0,0.0,0.0,0.0,0,
20700,1892.2,12.9,0.0,0.0,0.0,0.0,0.0,0,
20800,1889.1,12.6,0.0,0.0,0.0,0.0,0.0,0,
20900,1891.0,15.8,0.0,0.0,0.0,0.0,0.0,0,
21000,1892.3,13.0,0.0,0.0,0.0,0.0,0.0,0,
21100,1889.4,12.5,0.0,0.0,0.0,0.0,0.0,0,
21200,1890.9,15.4,0.0,0.0,0.0,0.0,0.0,0,
21300,1891.8,12.9,0.0,0.0,0.0,0.0,0.0,0,
21400,1889.7,12.5,0.0,0.0,0.0,0.0,0.0,0,
21500,1890.7,15.7,0.0,0.0,0.0,0.0,0.0,0,
21600,1892.5,12.9,0.0,0.0,0.0,0.0,0.0,0,
21700,1889.8,12.7,0.0,0.0,0.0,0.0,0.0,0,
21800,1890.5,17.5,0.0,0.0,0.0,0.0,0.0,0,
21900,1892.4,12.9,0.0,0.0,0.0,0.0,0.0,0,
22000,1889.7,12.8,0.0,0.0,0.0,0.0,0.0,0,
22100,1890.6,16.8,0.0,0.0,0.0,0.0,0.0,0,
22200,1889.6,14.3,0.0,0.0,0.0,0.0,0.0,0,
22300,1889.2,13.8,0.0,0.0,0.0,0.0,0.0,0,
22400,1890.2,15.8,0.0,0.0,0.0,0.0,0.0,0,
22500,1892.1,13.2,0.0,0.0,0.0,0.0,0.0,0,
22600,1889.1,13.0,0.0,0.0,0.0,0.0,0.0,0,
22700,1891.1,16.0,0.0,0.0,0.0,0.0,0.0,0,
22800,1891.9,16.7,0.0,0.0,0.0,0.0,0.0,0,
22900,1887.0,13.2,0.0,0.0,0.0,0.0,0.0,0,
23000,1892.6,13.6,0.0,0.0,0.0,0.0,0.0,0,
23100,1887.5,14.0,0.0,0.0,0.0,0.0,0.0,0,
23200,1889.1,12.8,0.0,0.0,0.0,0.0,0.0,0,
23300,1890.3,15.8,0.0,0.0,0.0,0.0,0.0,0,
23400,1891.7,13.4,0.0,0.0,0.0,0.0,0.0,0,
23500,1889.0,12.9,0.0,0.0,0.0,0.0,0.0,0,
23600,1890.5,15.8,0.0,0.0,0.0,0.0,0.0,0,
23700,1891.6,13.6,0.0,0.0,0.0,0.0,0.0,0,
23800,1886.8,15.2,0.0,0.0,0.0,0.0,0.0,0,
23900,1890.1,16.4,0.0,0.0,0.0,0.0,0.0,0,
24000,1892.0,13.6,0.0,0.0,0.0,0.0,0.0,0,
24100,1888.8,12.8,0.0,0.0,0.0,0.0,0.0,0,
24200,1887.2,18.9,0.0,0.0,0.0,0.0,0.0,0,
24300,1890.9,13.8,0.0,0.0,0.0,0.0,0.0,0,
24400,1888.4,13.0,0.0,0.0,0.0,0.0,0.0,0,
24500,1889.8,16.1,0.0,0.0,0.0,0.0,0.0,0,
24600,1891.6,13.8,0.0,0.0,0.0,0.0,0.0,0,
24700,1888.7,12.8,0.0,0.0,0.0,0.0,0.0,0,
24800,1887.6,18.9,0.0,0.0,0.0,0.0,0.0,0,
24900,1892.0,13.9,0.0,0.0,0.0,0.0,0.0,0,
25000,1888.6,13.2,0.0,0.0,0.0,0.0,0.0,0,
25100,1889.4,16.7,0.0,0.0,0.0,0.0,0.0,0,
25200,1891.0,14.6,0.0,0.0,0.0,0.0,0.0,0,
25300,1885.4,16.2,0.0,0.0,0.0,0.0,0.0,0,
25400,1888.9,17.2,0.0,0.0,0.0,0.0,0.0,0,
25500,1891.3,14.9,0.0,0.0,0.0,0.0,0.0,0,
25600,1886.7,16.2,0.0,0.0,0.0,0.0,0.0,0,
25700,1886.5,17.9,0.0,0.0,0.0,0.0,0.0,0,
25800,1890.5,14.9,0.0,0.0,0.0,0.0,0.0,0,
25900,1887.3,13.9,0.0,0.0,0.0,0.0,0.0,0,
26000,1889.2,16.9,0.0,0.0,0.0,0.0,0.0,0,
26100,1890.7,14.8,0.0,0.0,0.0,0.0,0.0,0,
26200,1887.4,13.9,0.0,0.0,0.0,0.0,0.0,0,
26300,1889.3,17.7,0.0,0.0,0.0,0.0,0.0,0,
26400,1890.6,18.3,0.0,0.0,0.0,0.0,0.0,0,
26500,1885.4,14.4,0.0,0.0,0.0,0.0,0.0,0,
26600,1889.1,17.2,0.0,0.0,0.0,0.0,0.0,0,
26700,1890.5,14.9,0.0,0.0,0.0,0.0,0.0,0,
26800,1887.3,14.0,0.0,0.0,0.0,0.0,0.0,0,
26900,1889.0,17.1,0.0,0.0,0.0,0.0,0.0,0,
27000,1890.1,15.2,0.0,0.0,0.0,0.0,0.0,0,
27100,1886.6,14.0,0.0,0.0,0.0,0.0,0.0,0,
27200,1888.6,17.0,0.0,0.0,0.0,0.0,0.0,0,
27300,1890.2,15.3,0.0,0.0,0.0,0.0,0.0,0,
27400,1886.7,15.1,0.0,0.0,0.0,0.0,0.0,0,
27500,1889.0,17.4,0.0,0.0,0.0,0.0,0.0,0,
27600,1889.9,15.5,0.0,0.0,0.0,0.0,0.0,0,
27700,1883.4,17.9,0.0,0.0,0.0,0.0,0.0,0,
27800,1888.0,17.4,0.0,0.0,0.0,0.0,0.0,0,
27900,1889.9,15.6,0.0,0.0,0.0,0.0,0.0,0,
28000,1883.4,15.3,0.0,0.0,0.0,0.0,0.0,0,
28100,1888.2,17.6,0.0,0.0,0.0,0.0,0.0,0,
28200,1885.8,17.2,0.0,0.0,0.0,0.0,0.0,0,
28300,1883.6,16.0,0.0,0.0,0.0,0.0,0.0,0,
28400,1888.7,17.9,0.0,0.0,0.0,0.0,0.0,0,
28500,1885.6,17.7,0.0,0.0,0.0,0.0,0.0,0,
28600,1884.5,16.0,0.0,0.0,0.0,0.0,0.0,0,
28700,1888.4,18.1,0.0,0.0,0.0,0.0,0.0,0,
28800,1886.9,20.7,0.0,0.0,0.0,0.0,0.0,0,
28900,1881.5,16.1,0.0,0.0,0.0,0.0,0.0,0,
29000,1887.5,19.4,0.0,0.0,0.0,0.0,0.0,0,
29100,1887.0,16.3,0.0,0.0,0.0,0.0,0.0,0,
29200,1883.6,16.0,0.0,0.0,0.0,0.0,0.0,0,
29300,1888.4,18.5,0.0,0.0,0.0,0.0,0.0,0,
29400,1889.8,15.7,0.0,0.0,0.0,0.0,0.0,0,
29500,1882.5,16.2,0.0,0.0,0.0,0.0,0.0,0,
29600,1886.7,20.6,0.0,0.0,0.0,0.0,0.0,0,
29700,1890.3,15.1,0.0,0.0,0.0,0.0,0.0,0,
29800,1884.6,17.0,0.0,0.0,0.0,0.0,0.0,0,
29900,1887.3,19.4,0.0,0.0,0.0,0.0,0.0,0,
30000,1887.7,15.5,0.0,0.0,0.0,0.0,0.0,0,
30100,1886.1,15.5,0.0,0.0,0.0,0.0,0.0,0,
30200,1886.8,20.7,0.0,0.0,0.0,0.0,0.0,0,
30300,1890.5,15.1,0.0,0.0,0.0,0.0,0.0,0,
30400,1886.8,14.1,0.0,0.0,0.0,0.0,0.0,0,
30500,1889.0,18.0,0.0,0.0,0.0,0.0,0.0,0,
30600,1890.5,14.8,0.0,0.0,0.0,0.0,0.0,0,
30700,1887.1,13.7,0.0,0.0,0.0,0.0,0.0,0,
30800,1888.7,18.0,0.0,0.0,0.0,0.0,0.0,0,
30900,1884.5,16.2,0.0,0.0,0.0,0.0,0.0,0,
31000,1885.9,14.3,0.0,0.0,0.0,0.0,0.0,0,
31100,1888.2,18.4,0.0,0.0,0.0,0.0,0.0,0,
31200,1887.9,16.8,0.0,0.0,0.0,0.0,0.0,0,
31300,1886.7,14.2,0.0,0.0,0.0,0.0,0.0,0,
31400,1888.8,17.7,0.0,0.0,0.0,0.0,0.0,0,
31500,1889.9,14.8,0.0,0.0,0.0,0.0,0.0,0,
31600,1887.1,13.7,0.0,0.0,0.0,0.0,0.0,0,
31700,1888.0,17.9,0.0,0.0,0.0,0.0,0.0,0,
31800,1889.9,14.5,0.0,0.0,0.0,0.0,0.0,0,
31900,1886.9,13.9,0.0,0.0,0.0,0.0,0.0,0,
32000,1887.6,19.3,0.0,0.0,0.0,0.0,0.0,0,
32100,1887.0,20.0,0.0,0.0,0.0,0.0,0.0,0,
32200,1884.9,14.4,0.0,0.0,0.0,0.0,0.0,0,
32300,1886.6,20.6,0.0,0.0,0.0,0.0,0.0,0,
32400,1890.2,15.4,0.0,0.0,0.0,0.0,0.0,0,
32500,1885.2,15.1,0.0,0.0,0.0,0.0,0.0,0,
32600,1888.5,18.1,0.0,0.0,0.0,0.0,0.0,0,
32700,1890.4,14.4,0.0,0.0,0.0,0.0,0.0,0,
32800,1887.0,13.9,0.0,0.0,0.0,0.0,0.0,0,
32900,1888.6,17.9,0.0,0.0,0.0,0.0,0.0,0,
33000,1890.4,15.0,0.0,0.0,0.0,0.0,0.0,0,
33100,1884.9,16.6,0.0,0.0,0.0,0.0,0.0,0,
33200,1888.1,18.2,0.0,0.0,0.0,0.0,0.0,0,
33300,1889.7,15.2,0.0,0.0,0.0,0.0,0.0,0,
33400,1884.9,16.3,0.0,0.0,0.0,0.0,0.0,0,
33500,1888.5,18.2,0.0,0.0,0.0,0.0,0.0,0,
33600,1890.0,15.1,0.0,0.0,0.0,0.0,0.0,0,
33700,1886.9,14.3,0.0,0.0,0.0,0.0,0.0,0,
33800,1888.2,19.5,0.0,0.0,0.0,0.0,0.0,0,
33900,1882.3,21.0,0.0,0.0,0.0,0.0,0.0,0,
34000,1884.4,14.7,0.0,0.0,0.0,0.0,0.0,0,
34100,1888.7,18.6,0.0,0.0,0.0,0.0,0.0,0,
34200,1886.0,18.3,0.0,0.0,0.0,0.0,0.0,0,
34300,1883.9,15.8,0.0,0.0,0.0,0.0,0.0,0,
34400,1885.5,21.7,0.0,0.0,0.0,0.0,0.0,0,
34500,1889.9,15.7,0.0,0.0,0.0,0.0,0.0,0,
34600,1883.5,15.8,0.0,0.0,0.0,0.0,0.0,0,
34700,1888.0,19.0,0.0,0.0,0.0,0.0,0.0,0,
34800,1884.8,16.4,0.0,0.0,0.0,0.0,0.0,0,
34900,1886.6,14.4,0.0,0.0,0.0,0.0,0.0,0,
35000,1888.6,18.3,0.0,0.0,0.0,0.0,0.0,0,
35100,1887.6,15.7,0.0,0.0,0.0,0.0,0.0,0,
35200,1886.6,14.3,0.0,0.0,0.0,0.0,0.0,0,
35300,1885.9,21.1,0.0,0.0,0.0,0.0,0.0,0,
35400,1887.0,18.5,0.0,0.0,0.0,0.0,0.0,0,
35500,1887.6,13.1,0.0,0.0,0.0,0.0,0.0,0,
35600,1887.9,18.7,0.0,0.0,0.0,0.0,0.0,0,
35700,1887.2,16.1,0.0,0.0,0.0,0.0,0.0,0,
35800,1884.1,15.5,0.0,0.0,0.0,0.0,0.0,0,
35900,1887.9,18.3,0.0,0.0,0.0,0.0,0.0,0,
36000,1886.8,17.1,0.0,0.0,0.0,0.0,0.0,0,
36100,1884.9,15.2,0.0,0.0,0.0,0.0,0.0,0,
36200,1887.4,18.5,0.0,0.0,0.0,0.0,0.0,0,
36300,1885.9,19.3,0.0,0.0,0.0,0.0,0.0,0,
36400,1879.0,20.6,0.0,0.0,0.0,0.0,0.0,0,
36500,1889.1,17.6,0.0,0.0,0.0,0.0,0.0,0,
36600,1883.9,13.9,0.0,0.0,0.0,0.0,0.0,0,
36700,1885.4,16.2,0.0,0.0,0.0,0.0,0.0,0,
36800,1886.6,20.3,0.0,0.0,0.0,0.0,0.0,0,
36900,1883.0,17.8,0.0,0.0,0.0,0.0,0.0,0,
37000,1884.6,15.6,0.0,0.0,0.0,0.0,0.0,0,
37100,1887.4,18.9,0.0,0.0,0.0,0.0,0.0,0,
37200,1886.3,17.4,0.0,0.0,0.0,0.0,0.0,0,
37300,1884.6,15.5,0.0,0.0,0.0,0.0,0.0,0,
37400,1886.6,20.2,0.0,0.0,0.0,0.0,0.0,0,
37500,1883.6,19.9,0.0,0.0,0.0,0.0,0.0,0,
37600,1883.6,15.7,0.0,0.0,0.0,0.0,0.0,0,
37700,1884.8,20.8,0.0,0.0,0.0,0.0,0.0,0,
37800,1885.6,17.6,0.0,0.0,0.0,0.0,0.0,0,
37900,1884.0,15.5,0.0,0.0,0.0,0.0,0.0,0,
38000,1885.2,22.1,0.0,0.0,0.0,0.0,0.0,0,
38100,1885.3,18.6,0.0,0.0,0.0,0.0,0.0,0,
38200,1883.4,15.9,0.0,0.0,0.0,0.0,0.0,0,
38300,1887.2,19.2,0.0,0.0,0.0,0.0,0.0,0,
38400,1886.1,17.6,0.0,0.0,0.0,0.0,0.0,0,
38500,1883.4,15.8,0.0,0.0,0.0,0.0,0.0,0,
38600,1886.9,19.5,0.0,0.0,0.0,0.0,0.0,0,
38700,1888.2,17.2,0.0,0.0,0.0,0.0,0.0,0,
38800,1884.1,15.9,0.0,0.0,0.0,0.0,0.0,0,
38900,1889.2,17.5,0.0,0.0,0.0,0.0,0.0,0,
39000,1883.0,18.3,0.0,0.0,0.0,0.0,0.0,0,
39100,1883.6,16.1,0.0,0.0,0.0,0.0,0.0,0,
39200,1886.9,20.0,0.0,0.0,0.0,0.0,0.0,0,
39300,1885.0,18.8,0.0,0.0,0.0,0.0,0.0,0,
39400,1883.6,16.1,0.0,0.0,0.0,0.0,0.0,0,
39500,1886.4,21.3,0.0,0.0,0.0,0.0,0.0,0,
39600,1885.7,18.4,0.0,0.0,0.0,0.0,0.0,0,
39700,1883.8,16.2,0.0,0.0,0.0,0.0,0.0,0,
39800,1886.9,20.0,0.0,0.0,0.0,0.0,0.0,0,
39900,1884.7,18.9,0.0,0.0,0.0,0.0,0.0,0,
40000,1880.4,17.3,0.0,0.0,0.0,0.0,0.0,0,
40100,1886.8,20.5,0.0,0.0,0.0,0.0,0.0,0,
40200,1885.5,19.7,0.0,0.0,0.0,0.0,0.0,0,
40300,1883.8,16.1,0.0,0.0,0.0,0.0,0.0,0,
40400,1886.4,20.3,0.0,0.0,0.0,0.0,0.0,0,
40500,1884.8,18.9,0.0,0.0,0.0,0.0,0.0,0,
40600,1880.6,17.4,0.0,0.0,0.0,0.0,0.0,0,
40700,1886.4,20.1,0.0,0.0,0.0,0.0,0.0,0,
40800,1887.9,21.4,0.0,0.0,0.0,0.0,0.0,0,
40900,1881.6,17.3,0.0,0.0,0.0,0.0,0.0,0,
41000,1882.9,23.4,0.0,0.0,0.0,0.0,0.0,0,
41100,1889.6,22.1,0.0,0.0,0.0,0.0,0.0,0,
41200,1876.2,22.5,0.0,0.0,0.0,0.0,0.0,0,
41300,1881.4,21.8,0.0,0.0,0.0,0.0,0.0,0,
41400,1888.0,17.1,0.0,0.0,0.0,0.0,0.0,0,
41500,1880.8,17.1,0.0,0.0,0.0,0.0,0.0,0,
41600,1885.8,20.4,0.0,0.0,0.0,0.0,0.0,0,
41700,1887.8,17.0,0.0,0.0,0.0,0.0,0.0,0,
41800,1884.4,15.4,0.0,0.0,0.0,0.0,0.0,0,
41900,1886.3,20.2,0.0,0.0,0.0,0.0,0.0,0,
42000,1885.2,25.0,0.0,0.0,0.0,0.0,0.0,0,
42100,1881.2,16.1,0.0,0.0,0.0,0.0,0.0,0,
42200,1885.6,20.3,0.0,0.0,0.0,0.0,0.0,0,
42300,1885.2,19.3,0.0,0.0,0.0,0.0,0.0,0,
42400,1886.5,13.5,0.0,0.0,0.0,0.0,0.0,0,
42500,1881.3,22.6,0.0,0.0,0.0,0.0,0.0,0,
42600,1884.7,25.6,0.0,0.0,0.0,0.0,0.0,0,
42700,1882.1,16.0,0.0,0.0,0.0,0.0,0.0,0,
42800,1883.9,23.4,0.0,0.0,0.0,0.0,0.0,0,
42900,1887.8,16.9,0.0,0.0,0.0,0.0,0.0,0,
43000,1884.1,15.7,0.0,0.0,0.0,0.0,0.0,0,
43100,1887.0,20.0,0.0,0.0,0.0,0.0,0.0,0,
43200,1887.3,22.0,0.0,0.0,0.0,0.0,0.0,0,
43300,1882.2,15.7,0.0,0.0,0.0,0.0,0.0,0,
43400,1886.4,19.7,0.0,0.0,0.0,0.0,0.0,0,
43500,1887.7,16.7,0.0,0.0,0.0,0.0,0.0,0,
43600,1884.6,15.1,0.0,0.0,0.0,0.0,0.0,0,
43700,1885.4,19.9,0.0,0.0,0.0,0.0,0.0,0,
43800,1888.5,16.6,0.0,0.0,0.0,0.0,0.0,0,
43900,1884.4,15.4,0.0,0.0,0.0,0.0,0.0,0,
44000,1886.1,19.7,0.0,0.0,0.0,0.0,0.0,0,
44100,1887.7,17.0,0.0,0.0,0.0,0.0,0.0,0,
44200,1884.5,15.2,0.0,0.0,0.0,0.0,0.0,0,
44300,1883.9,22.5,0.0,0.0,0.0,0.0,0.0,0,
44400,1885.0,19.7,0.0,0.0,0.0,0.0,0.0,0,
44500,1880.0,19.6,0.0,0.0,0.0,0.0,0.0,0,
44600,1884.7,20.7,0.0,0.0,0.0,0.0,0.0,0,
44700,1888.1,16.9,0.0,0.0,0.0,0.0,0.0,0,
44800,1884.1,15.5,0.0,0.0,0.0,0.0,0.0,0,
44900,1890.0,16.1,0.0,0.0,0.0,0.0,0.0,0,
45000,1888.1,25.2,0.0,0.0,0.0,0.0,0.0,0,
45100,1877.0,17.7,0.0,0.0,0.0,0.0,0.0,0,
45200,1886.0,20.1,0.0,0.0,0.0,0.0,0.0,0,
45300,1885.0,19.3,0.0,0.0,0.0,0.0,0.0,0,
45400,1881.6,16.9,0.0,0.0,0.0,0.0,0.0,0,
45500,1885.0,20.5,0.0,0.0,0.0,0.0,0.0,0,
45600,1887.5,16.9,0.0,0.0,0.0,0.0,0.0,0,
45700,1883.6,15.5,0.0,0.0,0.0,0.0,0.0,0,
45800,1887.5,17.9,0.0,0.0,0.0,0.0,0.0,0,
45900,1885.1,20.1,0.0,0.0,0.0,0.0,0.0,0,
46000,1883.4,15.7,0.0,0.0,0.0,0.0,0.0,0,
46100,1885.2,20.3,0.0,0.0,0.0,0.0,0.0,0,
46200,1887.3,17.3,0.0,0.0,0.0,0.0,0.0,0,
46300,1883.3,17.4,0.0,0.0,0.0,0.0,0.0,0,
46400,1876.5,25.6,0.0,0.0,0.0,0.0,0.0,0,
46500,1884.7,21.1,0.0,0.0,0.0,0.0,0.0,0,
46600,1879.7,17.9,0.0,0.0,0.0,0.0,0.0,0,
46700,1884.9,20.5,0.0,0.0,0.0,0.0,0.0,0,
46800,1887.4,17.9,0.0,0.0,0.0,0.0,0.0,0,
46900,1883.9,15.5,0.0,0.0,0.0,0.0,0.0,0,
47000,1882.8,21.1,0.0,0.0,0.0,0.0,0.0,0,
47100,1886.9,17.6,0.0,0.0,0.0,0.0,0.0,0,
47200,1883.3,15.9,0.0,0.0,0.0,0.0,0.0,0,
47300,1884.6,20.8,0.0,0.0,0.0,0.0,0.0,0,
47400,1885.8,18.9,0.0,0.0,0.0,0.0,0.0,0,
47500,1876.8,19.3,0.0,0.0,0.0,0.0,0.0,0,
47600,1880.5,25.0,0.0,0.0,0.0,0.0,0.0,0,
47700,1882.4,23.3,0.0,0.0,0.0,0.0,0.0,0,
47800,1881.1,17.0,0.0,0.0,0.0,0.0,0.0,0,
47900,1883.5,21.4,0.0,0.0,0.0,0.0,0.0,0,
48000,1885.7,18.8,0.0,0.0,0.0,0.0,0.0,0,
48100,1881.8,16.5,0.0,0.0,0.0,0.0,0.0,0,
48200,1884.7,21.2,0.0,0.0,0.0,0.0,0.0,0,
48300,1886.0,23.4,0.0,0.0,0.0,0.0,0.0,0,
48400,1878.6,17.2,0.0,0.0,0.0,0.0,0.0,0,
48500,1881.3,25.2,0.0,0.0,0.0,0.0,0.0,0,
48600,1885.4,23.6,0.0,0.0,0.0,0.0,0.0,0,
48700,1876.7,18.8,0.0,0.0,0.0,0.0,0.0,0,
48800,1880.4,23.2,0.0,0.0,0.0,0.0,0.0,0,
48900,1885.6,19.5,0.0,0.0,0.0,0.0,0.0,0,
49000,1878.7,18.8,0.0,0.0,0.0,0.0,0.0,0,
49100,1886.2,19.5,0.0,0.0,0.0,0.0,0.0,0,
49200,1883.2,27.0,0.0,0.0,0.0,0.0,0.0,0,
49300,1874.5,20.3,0.0,0.0,0.0,0.0,0.0,0,
49400,1883.6,22.7,0.0,0.0,0.0,0.0,0.0,0,
49500,1885.4,19.9,0.0,0.0,0.0,0.0,0.0,0,
49600,1881.1,18.8,0.0,0.0,0.0,0.0,0.0,0,
49700,1877.7,23.2,0.0,0.0,0.0,0.0,0.0,0,
49800,1882.1,29.9,0.0,0.0,0.0,0.0,0.0,0,
49900,1874.1,19.9,0.0,0.0,0.0,0.0,0.0,0,
50000,1883.0,22.7,0.0,0.0,0.0,0.0,0.0,0,
50100,1882.0,23.5,0.0,0.0,0.0,0.0,0.0,0,
50200,1880.0,17.6,0.0,0.0,0.0,0.0,0.0,0,
50300,1880.3,23.4,0.0,0.0,0.0,0.0,0.0,0,
50400,1884.3,24.1,0.0,0.0,0.0,0.0,0.0,0,
50500,1879.0,22.5,0.0,0.0,0.0,0.0,0.0,0,
50600,1878.1,24.0,0.0,0.0,0.0,0.0,0.0,0,
50700,1884.5,20.0,0.0,0.0,0.0,0.0,0.0,0,
50800,1874.6,26.5,0.0,0.0,0.0,0.0,0.0,0,
50900,1877.8,24.3,0.0,0.0,0.0,0.0,0.0,0,
51000,1884.0,20.9,0.0,0.0,0.0,0.0,0.0,0,
51100,1879.2,17.8,0.0,0.0,0.0,0.0,0.0,0,
51200,1882.9,22.8,0.0,0.0,0.0,0.0,0.0,0,
51300,1884.3,20.3,0.0,0.0,0.0,0.0,0.0,0,
51400,1877.7,21.2,0.0,0.0,0.0,0.0,0.0,0,
51500,1882.0,23.3,0.0,0.0,0.0,0.0,0.0,0,
51600,1884.3,24.9,0.0,0.0,0.0,0.0,0.0,0,
51700,1877.1,18.3,0.0,0.0,0.0,0.0,0.0,0,
51800,1883.3,22.4,0.0,0.0,0.0,0.0,0.0,0,
51900,1881.2,24.2,0.0,0.0,0.0,0.0,0.0,0,
52000,1879.3,19.0,0.0,0.0,0.0,0.0,0.0,0,
52100,1873.0,27.8,0.0,0.0,0.0,0.0,0.0,0,
52200,1879.8,29.2,0.0,0.0,0.0,0.0,0.0,0,
52300,1877.5,17.7,0.0,0.0,0.0,0.0,0.0,0,
52400,1882.5,22.6,0.0,0.0,0.0,0.0,0.0,0,
52500,1885.3,24.7,0.0,0.0,0.0,0.0,0.0,0,
52600,1872.7,26.8,0.0,0.0,0.0,0.0,0.0,0,
52700,1881.1,23.6,0.0,0.0,0.0,0.0,0.0,0,
52800,1884.4,19.3,0.0,0.0,0.0,0.0,0.0,0,
52900,1877.7,18.7,0.0,0.0,0.0,0.0,0.0,0,
53000,1881.7,21.0,0.0,0.0,0.0,0.0,0.0,0,
53100,1881.1,20.7,0.0,0.0,0.0,0.0,0.0,0,
53200,1871.0,28.9,0.0,0.0,0.0,0.0,0.0,0,
53300,1876.4,25.2,0.0,0.0,0.0,0.0,0.0,0,
53400,1884.5,19.7,0.0,0.0,0.0,0.0,0.0,0,
53500,1880.3,17.0,0.0,0.0,0.0,0.0,0.0,0,
53600,1883.1,22.5,0.0,0.0,0.0,0.0,0.0,0,
53700,1881.3,29.0,0.0,0.0,0.0,0.0,0.0,0,
53800,1877.0,17.6,0.0,0.0,0.0,0.0,0.0,0,
53900,1879.6,23.8,0.0,0.0,0.0,0.0,0.0,0,
54000,1885.0,19.4,0.0,0.0,0.0,0.0,0.0,0,
54100,1876.4,26.3,0.0,0.0,0.0,0.0,0.0,0,
54200,1880.3,23.7,0.0,0.0,0.0,0.0,0.0,0,
54300,1880.8,32.8,0.0,0.0,0.0,0.0,0.0,0,
54400,1871.7,19.9,0.0,0.0,0.0,0.0,0.0,0,
54500,1879.5,26.1,0.0,0.0,0.0,0.0,0.0,0,
54600,1884.3,19.8,0.0,0.0,0.0,0.0,0.0,0,
54700,1880.9,16.6,0.0,0.0,0.0,0.0,0.0,0,
54800,1878.8,26.1,0.0,0.0,0.0,0.0,0.0,0,
54900,1879.5,24.7,0.0,0.0,0.0,0.0,0.0,0,
55000,1880.0,17.3,0.0,0.0,0.0,0.0,0.0,0,
55100,1882.3,22.4,0.0,0.0,0.0,0.0,0.0,0,
55200,1879.8,24.7,0.0,0.0,0.0,0.0,0.0,0,
55300,1877.5,21.2,0.0,0.0,0.0,0.0,0.0,0,
55400,1878.9,22.1,0.0,0.0,0.0,0.0,0.0,0,
55500,1879.7,28.4,0.0,0.0,0.0,0.0,0.0,0,
55600,1874.6,18.9,0.0,0.0,0.0,0.0,0.0,0,
55700,1881.2,23.0,0.0,0.0,0.0,0.0,0.0,0,
55800,1882.2,22.5,0.0,0.0,0.0,0.0,0.0,0,
55900,1880.6,17.2,0.0,0.0,0.0,0.0,0.0,0,
56000,1882.8,22.1,0.0,0.0,0.0,0.0,0.0,0,
56100,1885.0,19.7,0.0,0.0,0.0,0.0,0.0,0,
56200,1878.4,20.5,0.0,0.0,0.0,0.0,0.0,0,
56300,1878.5,26.0,0.0,0.0,0.0,0.0,0.0,0,
56400,1890.0,25.5,0.0,0.0,0.0,0.0,0.0,0,
56500,1870.5,21.0,0.0,0.0,0.0,0.0,0.0,0,
56600,1876.7,24.3,0.0,0.0,0.0,0.0,0.0,0,
56700,1884.5,26.1,0.0,0.0,0.0,0.0,0.0,0,
56800,1877.9,17.5,0.0,0.0,0.0,0.0,0.0,0,
56900,1882.7,22.1,0.0,0.0,0.0,0.0,0.0,0,
57000,1884.7,19.5,0.0,0.0,0.0,0.0,0.0,0,
57100,1877.1,18.7,0.0,0.0,0.0,0.0,0.0,0,
57200,1880.5,23.1,0.0,0.0,0.0,0.0,0.0,0,
57300,1884.3,20.1,0.0,0.0,0.0,0.0,0.0,0,
57400,1878.6,20.2,0.0,0.0,0.0,0.0,0.0,0,
57500,1883.1,20.3,0.0,0.0,0.0,0.0,0.0,0,
57600,1882.4,20.2,0.0,0.0,0.0,0.0,0.0,0,
57700,1876.6,18.9,0.0,0.0,0.0,0.0,0.0,0,
57800,1878.6,26.3,0.0,0.0,0.0,0.0,0.0,0,
57900,1881.0,21.0,0.0,0.0,0.0,0.0,0.0,0,
58000,1876.2,27.7,0.0,0.0,0.0,0.0,0.0,0,
58100,1876.1,27.7,0.0,0.0,0.0,0.0,0.0,0,
58200,1883.3,20.7,0.0,0.0,0.0,0.0,0.0,0,
58300,1879.7,22.1,0.0,0.0,0.0,0.0,0.0,0,
58400,1880.7,23.0,0.0,0.0,0.0,0.0,0.0,0,
58500,1883.6,22.3,0.0,0.0,0.0,0.0,0.0,0,
58600,1872.7,29.9,0.0,0.0,0.0,0.0,0.0,0,
58700,1875.8,26.1,0.0,0.0,0.0,0.0,0.0,0,
58800,1875.3,24.5,0.0,0.0,0.0,0.0,0.0,0,
58900,1873.6,20.2,0.0,0.0,0.0,0.0,0.0,0,
59000,1875.7,25.9,0.0,0.0,0.0,0.0,0.0,0,
59100,1882.6,29.0,0.0,0.0,0.0,0.0,0.0,0,
59200,1870.0,20.8,0.0,0.0,0.0,0.0,0.0,0,
59300,1882.0,21.9,0.0,0.0,0.0,0.0,0.0,0,
59400,1879.2,22.6,0.0,0.0,0.0,0.0,0.0,0,
59500,1877.1,18.5,0.0,0.0,0.0,0.0,0.0,0,
59600,1880.2,24.6,0.0,0.0,0.0,0.0,0.0,0,
59700,1881.6,22.2,0.0,0.0,0.0,0.0,0.0,0,
59800,1874.5,22.6,0.0,0.0,0.0,0.0,0.0,0,
59900,1874.3,27.2,0.0,0.0,0.0,0.0,0.0,0,
60000,1880.8,22.5,0.0,0.0,0.0,0.0,0.0,0,
60100,1874.4,24.5,0.0,0.0,0.0,0.0,0.0,0,
60200,1878.7,25.2,0.0,0.0,0.0,0.0,0.0,0,
60300,1881.2,22.9,0.0,0.0,0.0,0.0,0.0,0,
60400,1879.3,15.5,0.0,0.0,0.0,0.0,0.0,0,
60500,1877.1,25.0,0.0,0.0,0.0,0.0,0.0,0,
60600,1881.2,27.8,0.0,0.0,0.0,0.0,0.0,0,
60700,1871.1,20.8,0.0,0.0,0.0,0.0,0.0,0,
60800,1879.0,25.0,0.0,0.0,0.0,0.0,0.0,0,
60900,1878.3,27.1,0.0,0.0,0.0,0.0,0.0,0,
61000,1869.8,30.9,0.0,0.0,0.0,0.0,0.0,0,
61100,1872.7,26.7,0.0,0.0,0.0,0.0,0.0,0,
61200,1879.7,24.4,0.0,0.0,0.0,0.0,0.0,0,
61300,1869.1,26.2,0.0,0.0,0.0,0.0,0.0,0,
61400,1877.3,25.7,0.0,0.0,0.0,0.0,0.0,0,
61500,1877.5,25.6,0.0,0.0,0.0,0.0,0.0,0,
61600,1870.2,25.7,0.0,0.0,0.0,0.0,0.0,0,
61700,1876.6,26.0,0.0,0.0,0.0,0.0,0.0,0,
61800,1880.1,23.7,0.0,0.0,0.0,0.0,0.0,0,
61900,1872.4,20.7,0.0,0.0,0.0,0.0,0.0,0,
62000,1872.0,29.3,0.0,0.0,0.0,0.0,0.0,0,
62100,1875.8,28.1,0.0,0.0,0.0,0.0,0.0,0,
62200,1873.9,19.7,0.0,0.0,0.0,0.0,0.0,0,
62300,1874.6,26.4,0.0,0.0,0.0,0.0,0.0,0,
62400,1879.9,27.8,0.0,0.0,0.0,0.0,0.0,0,
62500,1872.7,19.3,0.0,0.0,0.0,0.0,0.0,0,
62600,1880.8,22.1,0.0,0.0,0.0,0.0,0.0,0,
62700,1870.6,30.3,0.0,0.0,0.0,0.0,0.0,0,
62800,1873.4,19.9,0.0,0.0,0.0,0.0,0.0,0,
62900,1874.7,28.7,0.0,0.0,0.0,0.0,0.0,0,
63000,1880.9,23.6,0.0,0.0,0.0,0.0,0.0,0,
63100,1872.3,20.2,0.0,0.0,0.0,0.0,0.0,0,
63200,1869.9,30.3,0.0,0.0,0.0,0.0,0.0,0,
63300,1879.7,22.7,0.0,0.0,0.0,0.0,0.0,0,
63400,1869.3,22.4,0.0,0.0,0.0,0.0,0.0,0,
63500,1876.0,23.5,0.0,0.0,0.0,0.0,0.0,0,
63600,1873.3,27.0,0.0,0.0,0.0,0.0,0.0,0,
63700,1868.1,27.1,0.0,0.0,0.0,0.0,0.0,0,
63800,1876.2,25.8,0.0,0.0,0.0,0.0,0.0,0,
63900,1876.0,24.2,0.0,0.0,0.0,0.0,0.0,0,
64000,1868.8,26.7,0.0,0.0,0.0,0.0,0.0,0,
64100,1872.3,29.2,0.0,0.0,0.0,0.0,0.0,0,
64200,1871.7,33.5,0.0,0.0,0.0,0.0,0.0,0,
64300,1867.5,21.3,0.0,0.0,0.0,0.0,0.0,0,
64400,1876.8,25.7,0.0,0.0,0.0,0.0,0.0,0,
64500,1880.6,22.2,0.0,0.0,0.0,0.0,0.0,0,
64600,1875.9,18.2,0.0,0.0,0.0,0.0,0.0,0,
64700,1874.4,26.9,0.0,0.0,0.0,0.0,0.0,0,
64800,1879.7,22.8,0.0,0.0,0.0,0.0,0.0,0,
64900,1876.5,17.9,0.0,0.0,0.0,0.0,0.0,0,
65000,1874.8,28.6,0.0,0.0,0.0,0.0,0.0,0,
65100,1880.2,22.4,0.0,0.0,0.0,0.0,0.0,0,
65200,1872.6,23.7,0.0,0.0,0.0,0.0,0.0,0,
65300,1876.7,25.1,0.0,0.0,0.0,0.0,0.0,0,
65400,1877.9,23.5,0.0,0.0,0.0,0.0,0.0,0,
65500,1876.6,21.4,0.0,0.0,0.0,0.0,0.0,0,
65600,1874.8,28.3,0.0,0.0,0.0,0.0,0.0,0,
65700,1880.2,22.4,0.0,0.0,0.0,0.0,0.0,0,
65800,1876.5,17.9,0.0,0.0,0.0,0.0,0.0,0,
65900,1877.6,24.6,0.0,0.0,0.0,0.0,0.0,0,
66000,1873.8,26.5,0.0,0.0,0.0,0.0,0.0,0,
66100,1872.8,23.4,0.0,0.0,0.0,0.0,0.0,0,
66200,1876.2,25.3,0.0,0.0,0.0,0.0,0.0,0,
66300,1877.4,25.0,0.0,0.0,0.0,0.0,0.0,0,
66400,1868.0,23.0,0.0,0.0,0.0,0.0,0.0,0,
66500,1879.8,22.1,0.0,0.0,0.0,0.0,0.0,0,
66600,1870.4,34.3,0.0,0.0,0.0,0.0,0.0,0,
66700,1869.8,23.9,0.0,0.0,0.0,0.0,0.0,0,
66800,1872.6,26.1,0.0,0.0,0.0,0.0,0.0,0,
66900,1876.8,24.1,0.0,0.0,0.0,0.0,0.0,0,
67000,1875.1,18.5,0.0,0.0,0.0,0.0,0.0,0,
67100,1878.6,25.3,0.0,0.0,0.0,0.0,0.0,0,
67200,1879.9,22.7,0.0,0.0,0.0,0.0,0.0,0,
67300,1875.6,18.4,0.0,0.0,0.0,0.0,0.0,0,
67400,1874.9,25.1,0.0,0.0,0.0,0.0,0.0,0,
67500,1874.1,26.8,0.0,0.0,0.0,0.0,0.0,0,
67600,1868.6,23.7,0.0,0.0,0.0,0.0,0.0,0,
67700,1865.8,29.2,0.0,0.0,0.0,0.0,0.0,0,
67800,1878.2,27.6,0.0,0.0,0.0,0.0,0.0,0,
67900,1872.2,19.1,0.0,0.0,0.0,0.0,0.0,0,
68000,1873.6,25.6,0.0,0.0,0.0,0.0,0.0,0,
68100,1879.1,23.1,0.0,0.0,0.0,0.0,0.0,0,
68200,1873.7,19.6,0.0,0.0,0.0,0.0,0.0,0,
68300,1876.6,25.1,0.0,0.0,0.0,0.0,0.0,0,
68400,1879.5,22.8,0.0,0.0,0.0,0.0,0.0,0,
68500,1869.7,32.5,0.0,0.0,0.0,0.0,0.0,0,
68600,1872.5,26.4,0.0,0.0,0.0,0.0,0.0,0,
68700,1879.0,22.8,0.0,0.0,0.0,0.0,0.0,0,
68800,1870.9,21.1,0.0,0.0,0.0,0.0,0.0,0,
68900,1876.0,25.9,0.0,0.0,0.0,0.0,0.0,0,
69000,1872.2,28.2,0.0,0.0,0.0,0.0,0.0,0,
69100,1871.2,20.7,0.0,0.0,0.0,0.0,0.0,0,
69200,1875.3,26.1,0.0,0.0,0.0,0.0,0.0,0,
69300,1878.5,23.5,0.0,0.0,0.0,0.0,0.0,0,
69400,1873.9,19.0,0.0,0.0,0.0,0.0,0.0,0,
69500,1877.5,25.4,0.0,0.0,0.0,0.0,0.0,0,
69600,1879.4,22.5,0.0,0.0,0.0,0.0,0.0,0,
69700,1864.1,35.1,0.0,0.0,0.0,0.0,0.0,0,
69800,1863.3,34.3,0.0,0.0,0.0,0.0,0.0,0,
69900,1870.7,28.5,0.0,0.0,0.0,0.0,0.0,0,
70000,1870.4,20.8,0.0,0.0,0.0,0.0,0.0,0,
70100,1871.6,29.1,0.0,0.0,0.0,0.0,0.0,0,
70200,1871.9,27.5,0.0,0.0,0.0,0.0,0.0,0,
70300,1870.4,20.8,0.0,0.0,0.0,0.0,0.0,0,
70400,1869.3,28.5,0.0,0.0,0.0,0.0,0.0,0,
70500,1872.5,28.7,0.0,0.0,0.0,0.0,0.0,0,
70600,1867.8,26.2,0.0,0.0,0.0,0.0,0.0,0,
70700,1872.9,27.7,0.0,0.0,0.0,0.0,0.0,0,
70800,1868.5,31.0,0.0,0.0,0.0,0.0,0.0,0,
70900,1866.2,23.7,0.0,0.0,0.0,0.0,0.0,0,
71000,1872.8,27.8,0.0,0.0,0.0,0.0,0.0,0,
71100,1875.9,25.7,0.0,0.0,0.0,0.0,0.0,0,
71200,1867.8,23.1,0.0,0.0,0.0,0.0,0.0,0,
71300,1873.7,27.2,0.0,0.0,0.0,0.0,0.0,0,
71400,1875.8,25.7,0.0,0.0,0.0,0.0,0.0,0,
71500,1867.6,23.0,0.0,0.0,0.0,0.0,0.0,0,
71600,1869.4,28.6,0.0,0.0,0.0,0.0,0.0,0,
71700,1874.5,26.4,0.0,0.0,0.0,0.0,0.0,0,
71800,1869.0,32.1,0.0,0.0,0.0,0.0,0.0,0,
71900,1861.8,34.7,0.0,0.0,0.0,0.0,0.0,0,
72000,1869.2,29.2,0.0,0.0,0.0,0.0,0.0,0,
72100,1861.9,35.4,0.0,0.0,0.0,0.0,0.0,0,
72200,1859.1,33.3,0.0,0.0,0.0,0.0,0.0,0,
72300,1869.5,36.3,0.0,0.0,0.0,0.0,0.0,0,
72400,1865.0,22.7,0.0,0.0,0.0,0.0,0.0,0,
72500,1872.3,28.1,0.0,0.0,0.0,0.0,0.0,0,
72600,1874.2,31.0,0.0,0.0,0.0,0.0,0.0,0,
72700,1863.0,24.5,0.0,0.0,0.0,0.0,0.0,0,
72800,1871.7,28.3,0.0,0.0,0.0,0.0,0.0,0,
72900,1867.5,31.9,0.0,0.0,0.0,0.0,0.0,0,
73000,1864.0,36.6,0.0,0.0,0.0,0.0,0.0,0,
73100,1868.3,29.4,0.0,0.0,0.0,0.0,0.0,0,
73200,1867.4,31.7,0.0,0.0,0.0,0.0,0.0,0,
73300,1867.4,22.4,0.0,0.0,0.0,0.0,0.0,0,
73400,1869.6,31.2,0.0,0.0,0.0,0.0,0.0,0,
73500,1869.2,29.4,0.0,0.0,0.0,0.0,0.0,0,
73600,1871.8,29.8,0.0,0.0,0.0,0.0,0.0,0,
73700,1867.0,32.9,0.0,0.0,0.0,0.0,0.0,0,
73800,1873.0,27.8,0.0,0.0,0.0,0.0,0.0,0,
73900,1864.5,25.0,0.0,0.0,0.0,0.0,0.0,0,
74000,1868.7,32.2,0.0,0.0,0.0,0.0,0.0,0,
74100,1868.8,32.4,0.0,0.0,0.0,0.0,0.0,0,
74200,1867.2,22.6,0.0,0.0,0.0,0.0,0.0,0,
74300,1870.6,29.8,0.0,0.0,0.0,0.0,0.0,0,
74400,1866.0,34.1,0.0,0.0,0.0,0.0,0.0,0,
74500,1864.2,25.8,0.0,0.0,0.0,0.0,0.0,0,
74600,1870.8,28.8,0.0,0.0,0.0,0.0,0.0,0,
74700,1870.2,27.5,0.0,0.0,0.0,0.0,0.0,0,
74800,1865.7,28.1,0.0,0.0,0.0,0.0,0.0,0,
74900,1870.6,28.4,0.0,0.0,0.0,0.0,0.0,0,
75000,1874.2,25.9,0.0,0.0,0.0,0.0,0.0,0,
75100,1865.4,23.7,0.0,0.0,0.0,0.0,0.0,0,
75200,1870.9,28.4,0.0,0.0,0.0,0.0,0.0,0,
75300,1870.1,31.0,0.0,0.0,0.0,0.0,0.0,0,
75400,1862.2,31.4,0.0,0.0,0.0,0.0,0.0,0,
75500,1868.4,29.6,0.0,0.0,0.0,0.0,0.0,0,
75600,1867.1,38.2,0.0,0.0,0.0,0.0,0.0,0,
75700,1860.7,29.7,0.0,0.0,0.0,0.0,0.0,0,
75800,1868.8,29.1,0.0,0.0,0.0,0.0,0.0,0,
75900,1873.7,25.9,0.0,0.0,0.0,0.0,0.0,0,
76000,1869.7,20.4,0.0,0.0,0.0,0.0,0.0,0,
76100,1866.3,33.8,0.0,0.0,0.0,0.0,0.0,0,
76200,1869.2,30.1,0.0,0.0,0.0,0.0,0.0,0,
76300,1865.9,23.5,0.0,0.0,0.0,0.0,0.0,0,
76400,1870.0,28.0,0.0,0.0,0.0,0.0,0.0,0,
76500,1874.1,35.1,0.0,0.0,0.0,0.0,0.0,0,
76600,1854.5,29.5,0.0,0.0,0.0,0.0,0.0,0,
76700,1866.3,33.0,0.0,0.0,0.0,0.0,0.0,0,
76800,1872.6,26.4,0.0,0.0,0.0,0.0,0.0,0,
76900,1865.7,23.1,0.0,0.0,0.0,0.0,0.0,0,
77000,1869.7,28.3,0.0,0.0,0.0,0.0,0.0,0,
77100,1873.8,25.8,0.0,0.0,0.0,0.0,0.0,0,
77200,1865.5,31.1,0.0,0.0,0.0,0.0,0.0,0,
77300,1862.0,30.6,0.0,0.0,0.0,0.0,0.0,0,
77400,1869.8,28.1,0.0,0.0,0.0,0.0,0.0,0,
77500,1869.0,21.0,0.0,0.0,0.0,0.0,0.0,0,
77600,1865.8,33.8,0.0,0.0,0.0,0.0,0.0,0,
77700,1868.1,28.6,0.0,0.0,0.0,0.0,0.0,0,
77800,1864.5,33.7,0.0,0.0,0.0,0.0,0.0,0,
77900,1867.2,29.0,0.0,0.0,0.0,0.0,0.0,0,
78000,1866.6,31.2,0.0,0.0,0.0,0.0,0.0,0,
78100,1867.6,21.9,0.0,0.0,0.0,0.0,0.0,0,
78200,1866.5,28.9,0.0,0.0,0.0,0.0,0.0,0,
78300,1869.6,32.7,0.0,0.0,0.0,0.0,0.0,0,
78400,1865.2,22.2,0.0,0.0,0.0,0.0,0.0,0,
78500,1867.1,28.5,0.0,0.0,0.0,0.0,0.0,0,
78600,1873.0,30.9,0.0,0.0,0.0,0.0,0.0,0,
78700,1863.3,24.1,0.0,0.0,0.0,0.0,0.0,0,
78800,1869.1,28.2,0.0,0.0,0.0,0.0,0.0,0,
78900,1870.0,30.3,0.0,0.0,0.0,0.0,0.0,0,
79000,1866.8,22.5,0.0,0.0,0.0,0.0,0.0,0,
79100,1870.3,28.9,0.0,0.0,0.0,0.0,0.0,0,
79200,1872.6,26.9,0.0,0.0,0.0,0.0,0.0,0,
79300,1863.4,24.9,0.0,0.0,0.0,0.0,0.0,0,
79400,1869.6,29.1,0.0,0.0,0.0,0.0,0.0,0,
79500,1869.3,32.5,0.0,0.0,0.0,0.0,0.0,0,
79600,1858.0,31.7,0.0,0.0,0.0,0.0,0.0,0,
79700,1868.8,26.6,0.0,0.0,0.0,0.0,0.0,0,
79800,1869.1,37.5,0.0,0.0,0.0,0.0,0.0,0,
79900,1854.0,30.1,0.0,0.0,0.0,0.0,0.0,0,
80000,1860.3,37.1,0.0,0.0,0.0,0.0,0.0,0,
80100,1866.0,34.9,0.0,0.0,0.0,0.0,0.0,0,
80200,1857.6,28.6,0.0,0.0,0.0,0.0,0.0,0,
80300,1864.0,35.8,0.0,0.0,0.0,0.0,0.0,0,
80400,1866.2,30.3,0.0,0.0,0.0,0.0,0.0,0,
80500,1865.5,26.2,0.0,0.0,0.0,0.0,0.0,0,
80600,1860.4,32.5,0.0,0.0,0.0,0.0,0.0,0,
80700,1866.1,28.5,0.0,0.0,0.0,0.0,0.0,0,
80800,1858.1,34.8,0.0,0.0,0.0,0.0,0.0,0,
80900,1865.3,31.1,0.0,0.0,0.0,0.0,0.0,0,
81000,1864.1,33.0,0.0,0.0,0.0,0.0,0.0,0,
81100,1861.4,31.3,0.0,0.0,0.0,0.0,0.0,0,
81200,1858.5,34.2,0.0,0.0,0.0,0.0,0.0,0,
81300,1869.5,36.4,0.0,0.0,0.0,0.0,0.0,0,
81400,1854.6,39.7,0.0,0.0,0.0,0.0,0.0,0,
81500,1862.7,32.7,0.0,0.0,0.0,0.0,0.0,0,
81600,1864.4,35.5,0.0,0.0,0.0,0.0,0.0,0,
81700,1858.4,29.7,0.0,0.0,0.0,0.0,0.0,0,
81800,1861.1,33.0,0.0,0.0,0.0,0.0,0.0,0,
81900,1862.7,34.5,0.0,0.0,0.0,0.0,0.0,0,
82000,1853.3,44.4,0.0,0.0,0.0,0.0,0.0,0,
82100,1852.9,43.8,0.0,0.0,0.0,0.0,0.0,0,
82200,1864.5,36.6,0.0,0.0,0.0,0.0,0.0,0,
82300,1855.6,30.5,0.0,0.0,0.0,0.0,0.0,0,
82400,1860.7,38.3,0.0,0.0,0.0,0.0,0.0,0,
82500,1866.5,31.6,0.0,0.0,0.0,0.0,0.0,0,
82600,1860.4,29.5,0.0,0.0,0.0,0.0,0.0,0,
82700,1863.8,28.9,0.0,0.0,0.0,0.0,0.0,0,
82800,1863.2,37.2,0.0,0.0,0.0,0.0,0.0,0,
82900,1855.5,34.5,0.0,0.0,0.0,0.0,0.0,0,
83000,1867.4,25.8,0.0,0.0,0.0,0.0,0.0,0,
83100,1865.6,43.8,0.0,0.0,0.0,0.0,0.0,0,
83200,1854.9,30.4,0.0,0.0,0.0,0.0,0.0,0,
83300,1864.7,30.0,0.0,0.0,0.0,0.0,0.0,0,
83400,1861.1,36.0,0.0,0.0,0.0,0.0,0.0,0,
83500,1860.5,27.5,0.0,0.0,0.0,0.0,0.0,0,
83600,1867.9,27.5,0.0,0.0,0.0,0.0,0.0,0,
83700,1864.5,31.6,0.0,0.0,0.0,0.0,0.0,0,
83800,1858.3,30.0,0.0,0.0,0.0,0.0,0.0,0,
83900,1867.3,27.8,0.0,0.0,0.0,0.0,0.0,0,
84000,1864.5,36.1,0.0,0.0,0.0,0.0,0.0,0,
84100,1858.1,28.2,0.0,0.0,0.0,0.0,0.0,0,
84200,1867.7,27.3,0.0,0.0,0.0,0.0,0.0,0,
84300,1856.8,44.0,0.0,0.0,0.0,0.0,0.0,0,
84400,1853.1,33.0,0.0,0.0,0.0,0.0,0.0,0,
84500,1866.2,28.3,0.0,0.0,0.0,0.0,0.0,0,
84600,1863.0,33.4,0.0,0.0,0.0,0.0,0.0,0,
84700,1860.6,27.7,0.0,0.0,0.0,0.0,0.0,0,
84800,1862.7,29.2,0.0,0.0,0.0,0.0,0.0,0,
84900,1861.3,38.0,0.0,0.0,0.0,0.0,0.0,0,
85000,1853.5,32.4,0.0,0.0,0.0,0.0,0.0,0,
85100,1866.1,28.2,0.0,0.0,0.0,0.0,0.0,0,
85200,1862.9,43.8,0.0,0.0,0.0,0.0,0.0,0,
85300,1851.8,41.6,0.0,0.0,0.0,0.0,0.0,0,
85400,1857.3,34.0,0.0,0.0,0.0,0.0,0.0,0,
85500,1847.8,49.1,0.0,0.0,0.0,0.0,0.0,0,
85600,1849.0,42.1,0.0,0.0,0.0,0.0,0.0,0,
85700,1861.8,30.4,0.0,0.0,0.0,0.0,0.0,0,
85800,1851.3,43.5,0.0,0.0,0.0,0.0,0.0,0,
85900,1856.6,31.0,0.0,0.0,0.0,0.0,0.0,0,
86000,1860.3,30.2,0.0,0.0,0.0,0.0,0.0,0,
86100,1858.2,38.9,0.0,0.0,0.0,0.0,0.0,0,
86200,1858.8,28.8,0.0,0.0,0.0,0.0,0.0,0,
86300,1867.0,27.4,0.0,0.0,0.0,0.0,0.0,0,
86400,1854.4,40.5,0.0,0.0,0.0,0.0,0.0,0,
86500,1851.6,45.0,0.0,0.0,0.0,0.0,0.0,0,
86600,1861.3,30.5,0.0,0.0,0.0,0.0,0.0,0,
86700,1857.0,39.0,0.0,0.0,0.0,0.0,0.0,0,
86800,1856.3,35.9,0.0,0.0,0.0,0.0,0.0,0,
86900,1863.6,29.2,0.0,0.0,0.0,0.0,0.0,0,
87000,1862.2,31.8,0.0,0.0,0.0,0.0,0.0,0,
87100,1860.7,27.4,0.0,0.0,0.0,0.0,0.0,0,
87200,1865.5,28.3,0.0,0.0,0.0,0.0,0.0,0,
87300,1866.5,38.6,0.0,0.0,0.0,0.0,0.0,0,
87400,1850.3,32.8,0.0,0.0,0.0,0.0,0.0,0,
87500,1855.9,33.2,0.0,0.0,0.0,0.0,0.0,0,
87600,1853.0,50.8,0.0,0.0,0.0,0.0,0.0,0,
87700,1851.2,31.7,0.0,0.0,0.0,0.0,0.0,0,
87800,1863.9,29.9,0.0,0.0,0.0,0.0,0.0,0,
87900,1856.8,38.3,0.0,0.0,0.0,0.0,0.0,0,
88000,1856.5,38.0,0.0,0.0,0.0,0.0,0.0,0,
88100,1861.5,30.9,0.0,0.0,0.0,0.0,0.0,0,
88200,1854.3,37.7,0.0,0.0,0.0,0.0,0.0,0,
88300,1854.8,32.9,0.0,0.0,0.0,0.0,0.0,0,
88400,1863.8,29.5,0.0,0.0,0.0,0.0,0.0,0,
88500,1862.2,32.1,0.0,0.0,0.0,0.0,0.0,0,
88600,1859.7,28.5,0.0,0.0,0.0,0.0,0.0,0,
88700,1858.6,31.0,0.0,0.0,0.0,0.0,0.0,0,
88800,1858.7,36.3,0.0,0.0,0.0,0.0,0.0,0,
88900,1859.4,28.6,0.0,0.0,0.0,0.0,0.0,0,
89000,1867.8,24.0,0.0,0.0,0.0,0.0,0.0,0,
89100,1856.4,37.3,0.0,0.0,0.0,0.0,0.0,0,
89200,1858.4,29.5,0.0,0.0,0.0,0.0,0.0,0,
89300,1860.0,31.2,0.0,0.0,0.0,0.0,0.0,0,
89400,1857.8,39.6,0.0,0.0,0.0,0.0,0.0,0,
89500,1855.5,30.8,0.0,0.0,0.0,0.0,0.0,0,
89600,1861.0,30.7,0.0,0.0,0.0,0.0,0.0,0,
89700,1857.3,50.0,0.0,0.0,0.0,0.0,0.0,0,
89800,1845.1,37.5,0.0,0.0,0.0,0.0,0.0,0,
89900,1858.8,32.4,0.0,0.0,0.0,0.0,0.0,0,
90000,1861.1,32.3,0.0,0.0,0.0,0.0,0.0,0,
90100,1856.0,32.5,0.0,0.0,0.0,0.0,0.0,0,
90200,1864.2,29.7,0.0,0.0,0.0,0.0,0.0,0,
90300,1858.1,36.8,0.0,0.0,0.0,0.0,0.0,0,
90400,1854.3,33.2,0.0,0.0,0.0,0.0,0.0,0,
90500,1862.9,30.8,0.0,0.0,0.0,0.0,0.0,0,
90600,1852.5,39.8,0.0,0.0,0.0,0.0,0.0,0,
90700,1853.5,41.5,0.0,0.0,0.0,0.0,0.0,0,
90800,1851.1,37.8,0.0,0.0,0.0,0.0,0.0,0,
90900,1851.2,41.3,0.0,0.0,0.0,0.0,0.0,0,
91000,1852.6,34.7,0.0,0.0,0.0,0.0,0.0,0,
91100,1862.9,30.5,0.0,0.0,0.0,0.0,0.0,0,
91200,1852.8,37.4,0.0,0.0,0.0,0.0,0.0,0,
91300,1852.4,44.0,0.0,0.0,0.0,0.0,0.0,0,
91400,1860.1,32.0,0.0,0.0,0.0,0.0,0.0,0,
91500,1857.9,35.4,0.0,0.0,0.0,0.0,0.0,0,
91600,1857.6,30.9,0.0,0.0,0.0,0.0,0.0,0,
91700,1860.0,31.8,0.0,0.0,0.0,0.0,0.0,0,
91800,1856.5,40.2,0.0,0.0,0.0,0.0,0.0,0,
91900,1851.4,34.9,0.0,0.0,0.0,0.0,0.0,0,
92000,1859.8,34.4,0.0,0.0,0.0,0.0,0.0,0,
92100,1850.2,54.9,0.0,0.0,0.0,0.0,0.0,0,
92200,1847.8,34.9,0.0,0.0,0.0,0.0,0.0,0,
92300,1854.6,35.5,0.0,0.0,0.0,0.0,0.0,0,
92400,1857.2,35.9,0.0,0.0,0.0,0.0,0.0,0,
92500,1856.2,32.7,0.0,0.0,0.0,0.0,0.0,0,
92600,1860.9,32.5,0.0,0.0,0.0,0.0,0.0,0,
92700,1857.6,38.3,0.0,0.0,0.0,0.0,0.0,0,
92800,1853.3,41.0,0.0,0.0,0.0,0.0,0.0,0,
92900,1854.9,35.7,0.0,0.0,0.0,0.0,0.0,0,
93000,1857.2,33.2,0.0,0.0,0.0,0.0,0.0,0,
93100,1845.5,52.0,0.0,0.0,0.0,0.0,0.0,0,
93200,1856.8,35.5,0.0,0.0,0.0,0.0,0.0,0,
93300,1856.2,37.7,0.0,0.0,0.0,0.0,0.0,0,
93400,1848.2,39.7,0.0,0.0,0.0,0.0,0.0,0,
93500,1857.0,38.6,0.0,0.0,0.0,0.0,0.0,0,
93600,1856.2,38.8,0.0,0.0,0.0,0.0,0.0,0,
93700,1849.3,38.6,0.0,0.0,0.0,0.0,0.0,0,
93800,1852.8,40.6,0.0,0.0,0.0,0.0,0.0,0,
93900,1859.6,37.3,0.0,0.0,0.0,0.0,0.0,0,
94000,1852.6,38.9,0.0,0.0,0.0,0.0,0.0,0,
94100,1853.6,44.3,0.0,0.0,0.0,0.0,0.0,0,
94200,1855.5,39.1,0.0,0.0,0.0,0.0,0.0,0,
94300,1854.2,34.0,0.0,0.0,0.0,0.0,0.0,0,
94400,1857.7,38.1,0.0,0.0,0.0,0.0,0.0,0,
94500,1860.5,37.0,0.0,0.0,0.0,0.0,0.0,0,
94600,1852.1,39.3,0.0,0.0,0.0,0.0,0.0,0,
94700,1854.2,41.3,0.0,0.0,0.0,0.0,0.0,0,
94800,1858.8,38.3,0.0,0.0,0.0,0.0,0.0,0,
94900,1852.4,42.3,0.0,0.0,0.0,0.0,0.0,0,
95000,1851.1,41.3,0.0,0.0,0.0,0.0,0.0,0,
95100,1856.3,39.9,0.0,0.0,0.0,0.0,0.0,0,
95200,1847.4,51.1,0.0,0.0,0.0,0.0,0.0,0,
95300,1850.4,46.0,0.0,0.0,0.0,0.0,0.0,0,
95400,1857.5,39.5,0.0,0.0,0.0,0.0,0.0,0,
95500,1852.6,35.6,0.0,0.0,0.0,0.0,0.0,0,
95600,1855.8,39.5,0.0,0.0,0.0,0.0,0.0,0,
95700,1858.8,36.7,0.0,0.0,0.0,0.0,0.0,0,
95800,1847.8,40.6,0.0,0.0,0.0,0.0,0.0,0,
95900,1851.6,45.9,0.0,0.0,0.0,0.0,0.0,0,
96000,1857.1,40.3,0.0,0.0,0.0,0.0,0.0,0,
96100,1848.4,39.8,0.0,0.0,0.0,0.0,0.0,0,
96200,1851.8,45.3,0.0,0.0,0.0,0.0,0.0,0,
96300,1849.5,44.2,0.0,0.0,0.0,0.0,0.0,0,
96400,1847.8,40.2,0.0,0.0,0.0,0.0,0.0,0,
96500,1854.3,40.9,0.0,0.0,0.0,0.0,0.0,0,
96600,1857.5,38.2,0.0,0.0,0.0,0.0,0.0,0,
96700,1848.9,48.9,0.0,0.0,0.0,0.0,0.0,0,
96800,1848.5,43.6,0.0,0.0,0.0,0.0,0.0,0,
96900,1857.0,42.0,0.0,0.0,0.0,0.0,0.0,0,
97000,1841.4,49.2,0.0,0.0,0.0,0.0,0.0,0,
97100,1851.2,43.2,0.0,0.0,0.0,0.0,0.0,0,
97200,1853.4,41.5,0.0,0.0,0.0,0.0,0.0,0,
97300,1850.0,42.1,0.0,0.0,0.0,0.0,0.0,0,
97400,1848.4,44.0,0.0,0.0,0.0,0.0,0.0,0,
97500,1853.5,40.8,0.0,0.0,0.0,0.0,0.0,0,
97600,1849.1,39.2,0.0,0.0,0.0,0.0,0.0,0,
97700,1854.5,41.0,0.0,0.0,0.0,0.0,0.0,0,
97800,1863.7,36.8,0.0,0.0,0.0,0.0,0.0,0,
97900,1845.4,41.1,0.0,0.0,0.0,0.0,0.0,0,
98000,1853.7,44.0,0.0,0.0,0.0,0.0,0.0,0,
98100,1857.8,38.5,0.0,0.0,0.0,0.0,0.0,0,
98200,1843.5,48.4,0.0,0.0,0.0,0.0,0.0,0,
98300,1852.5,42.2,0.0,0.0,0.0,0.0,0.0,0,
98400,1858.2,37.9,0.0,0.0,0.0,0.0,0.0,0,
98500,1844.5,52.0,0.0,0.0,0.0,0.0,0.0,0,
98600,1846.1,45.5,0.0,0.0,0.0,0.0,0.0,0,
98700,1856.8,39.6,0.0,0.0,0.0,0.0,0.0,0,
98800,1852.0,36.2,0.0,0.0,0.0,0.0,0.0,0,
98900,1851.8,45.5,0.0,0.0,0.0,0.0,0.0,0,
99000,1857.0,39.3,0.0,0.0,0.0,0.0,0.0,0,
99100,1847.1,45.9,0.0,0.0,0.0,0.0,0.0,0,
99200,1852.8,42.7,0.0,0.0,0.0,0.0,0.0,0,
99300,1853.4,39.7,0.0,0.0,0.0,0.0,0.0,0,
99400,1849.6,38.7,0.0,0.0,0.0,0.0,0.0,0,
99500,1851.3,46.2,0.0,0.0,0.0,0.0,0.0,0,
99600,1854.5,34.7,0.0,0.0,0.0,0.0,0.0,0,
99700,1844.4,53.2,0.0,0.0,0.0,0.0,0.0,0,
99800,1844.3,46.8,0.0,0.0,0.0,0.0,0.0,0,
99900,1852.1,44.5,0.0,0.0,0.0,0.0,0.0,0,
100000,1847.4,40.0,0.0,0.0,0.0,0.0,0.0,0,
100100,1853.4,42.1,0.0,0.0,0.0,0.0,0.0,0,
100200,1856.8,39.2,0.0,0.0,0.0,0.0,0.0,0,
100300,1845.4,46.5,0.0,0.0,0.0,0.0,0.0,0,
100400,1848.1,45.6,0.0,0.0,0.0,0.0,0.0,0,
100500,1851.7,51.3,0.0,0.0,0.0,0.0,0.0,0,
100600,1844.5,45.4,0.0,0.0,0.0,0.0,0.0,0,
100700,1853.0,45.2,0.0,0.0,0.0,0.0,0.0,0,
100800,1845.3,54.6,0.0,0.0,0.0,0.0,0.0,0,
100900,1843.1,39.9,0.0,0.0,0.0,0.0,0.0,0,
101000,1853.1,42.4,0.0,0.0,0.0,0.0,0.0,0,
101100,1856.3,38.2,0.0,0.0,0.0,0.0,0.0,0,
101200,1848.0,40.5,0.0,0.0,0.0,0.0,0.0,0,
101300,1849.3,49.3,0.0,0.0,0.0,0.0,0.0,0,
101400,1851.1,44.0,0.0,0.0,0.0,0.0,0.0,0,
101500,1847.7,41.0,0.0,0.0,0.0,0.0,0.0,0,
101600,1852.9,42.9,0.0,0.0,0.0,0.0,0.0,0,
101700,1854.4,44.6,0.0,0.0,0.0,0.0,0.0,0,
101800,1840.2,56.4,0.0,0.0,0.0,0.0,0.0,0,
101900,1845.1,46.9,0.0,0.0,0.0,0.0,0.0,0,
102000,1851.0,43.8,0.0,0.0,0.0,0.0,0.0,0,
102100,1849.1,39.2,0.0,0.0,0.0,0.0,0.0,0,
102200,1852.3,43.1,0.0,0.0,0.0,0.0,0.0,0,
102300,1851.9,43.5,0.0,0.0,0.0,0.0,0.0,0,
102400,1846.7,41.5,0.0,0.0,0.0,0.0,0.0,0,
102500,1850.7,44.7,0.0,0.0,0.0,0.0,0.0,0,
102600,1855.0,41.1,0.0,0.0,0.0,0.0,0.0,0,
102700,1850.0,39.4,0.0,0.0,0.0,0.0,0.0,0,
102800,1851.2,44.1,0.0,0.0,0.0,0.0,0.0,0,
102900,1846.5,47.2,0.0,0.0,0.0,0.0,0.0,0,
103000,1842.2,50.4,0.0,0.0,0.0,0.0,0.0,0,
103100,1851.5,41.8,0.0,0.0,0.0,0.0,0.0,0,
103200,1849.4,46.0,0.0,0.0,0.0,0.0,0.0,0,
103300,1847.3,40.5,0.0,0.0,0.0,0.0,0.0,0,
103400,1848.6,47.5,0.0,0.0,0.0,0.0,0.0,0,
103500,1850.4,45.8,0.0,0.0,0.0,0.0,0.0,0,
103600,1845.4,43.8,0.0,0.0,0.0,0.0,0.0,0,
103700,1850.2,45.4,0.0,0.0,0.0,0.0,0.0,0,
103800,1846.4,49.4,0.0,0.0,0.0,0.0,0.0,0,
103900,1846.0,42.1,0.0,0.0,0.0,0.0,0.0,0,
104000,1839.7,51.6,0.0,0.0,0.0,0.0,0.0,0,
104100,1843.2,50.2,0.0,0.0,0.0,0.0,0.0,0,
104200,1845.1,42.1,0.0,0.0,0.0,0.0,0.0,0,
104300,1850.0,46.1,0.0,0.0,0.0,0.0,0.0,0,
104400,1846.7,48.1,0.0,0.0,0.0,0.0,0.0,0,
104500,1843.0,45.0,0.0,0.0,0.0,0.0,0.0,0,
104600,1846.5,51.9,0.0,0.0,0.0,0.0,0.0,0,
104700,1847.4,47.5,0.0,0.0,0.0,0.0,0.0,0,
104800,1842.3,45.5,0.0,0.0,0.0,0.0,0.0,0,
104900,1848.9,47.1,0.0,0.0,0.0,0.0,0.0,0,
105000,1851.4,45.6,0.0,0.0,0.0,0.0,0.0,0,
105100,1843.2,46.4,0.0,0.0,0.0,0.0,0.0,0,
105200,1842.1,54.5,0.0,0.0,0.0,0.0,0.0,0,
105300,1839.0,61.4,0.0,0.0,0.0,0.0,0.0,0,
105400,1840.6,45.6,0.0,0.0,0.0,0.0,0.0,0,
105500,1849.3,48.8,0.0,0.0,0.0,0.0,0.0,0,
105600,1847.0,49.0,0.0,0.0,0.0,0.0,0.0,0,
105700,1842.7,48.8,0.0,0.0,0.0,0.0,0.0,0,
105800,1840.7,54.8,0.0,0.0,0.0,0.0,0.0,0,
105900,1846.0,51.7,0.0,0.0,0.0,0.0,0.0,0,
106000,1844.0,44.0,0.0,0.0,0.0,0.0,0.0,0,
106100,1847.6,47.8,0.0,0.0,0.0,0.0,0.0,0,
106200,1850.9,50.3,0.0,0.0,0.0,0.0,0.0,0,
106300,1839.8,47.2,0.0,0.0,0.0,0.0,0.0,0,
106400,1844.1,50.8,0.0,0.0,0.0,0.0,0.0,0,
106500,1846.2,49.3,0.0,0.0,0.0,0.0,0.0,0,
106600,1846.2,47.9,0.0,0.0,0.0,0.0,0.0,0,
106700,1850.2,42.7,0.0,0.0,0.0,0.0,0.0,0,
106800,1844.5,52.1,0.0,0.0,0.0,0.0,0.0,0,
106900,1842.4,49.8,0.0,0.0,0.0,0.0,0.0,0,
107000,1848.7,43.6,0.0,0.0,0.0,0.0,0.0,0,
107100,1840.1,55.5,0.0,0.0,0.0,0.0,0.0,0,
107200,1838.0,46.9,0.0,0.0,0.0,0.0,0.0,0,
107300,1847.1,48.3,0.0,0.0,0.0,0.0,0.0,0,
107400,1843.0,63.2,0.0,0.0,0.0,0.0,0.0,0,
107500,1834.8,55.0,0.0,0.0,0.0,0.0,0.0,0,
107600,1844.9,50.0,0.0,0.0,0.0,0.0,0.0,0,
107700,1850.2,46.3,0.0,0.0,0.0,0.0,0.0,0,
107800,1842.0,45.8,0.0,0.0,0.0,0.0,0.0,0,
107900,1847.4,47.8,0.0,0.0,0.0,0.0,0.0,0,
108000,1846.9,47.2,0.0,0.0,0.0,0.0,0.0,0,
108100,1841.1,46.6,0.0,0.0,0.0,0.0,0.0,0,
108200,1847.0,48.8,0.0,0.0,0.0,0.0,0.0,0,
108300,1850.1,46.2,0.0,0.0,0.0,0.0,0.0,0,
108400,1843.5,48.8,0.0,0.0,0.0,0.0,0.0,0,
108500,1845.3,49.5,0.0,0.0,0.0,0.0,0.0,0,
108600,1846.5,52.7,0.0,0.0,0.0,0.0,0.0,0,
108700,1837.7,48.3,0.0,0.0,0.0,0.0,0.0,0,
108800,1839.1,52.5,0.0,0.0,0.0,0.0,0.0,0,
108900,1849.1,53.4,0.0,0.0,0.0,0.0,0.0,0,
109000,1838.8,50.5,0.0,0.0,0.0,0.0,0.0,0,
109100,1842.8,50.6,0.0,0.0,0.0,0.0,0.0,0,
109200,1849.3,46.7,0.0,0.0,0.0,0.0,0.0,0,
109300,1845.3,42.4,0.0,0.0,0.0,0.0,0.0,0,
109400,1844.4,53.4,0.0,0.0,0.0,0.0,0.0,0,
109500,1849.8,50.7,0.0,0.0,0.0,0.0,0.0,0,
109600,1842.3,43.6,0.0,0.0,0.0,0.0,0.0,0,
109700,1841.6,56.5,0.0,0.0,0.0,0.0,0.0,0,
109800,1846.3,52.2,0.0,0.0,0.0,0.0,0.0,0,
109900,1840.7,47.1,0.0,0.0,0.0,0.0,0.0,0,
110000,1849.5,44.3,0.0,0.0,0.0,0.0,0.0,0,
110100,1841.8,49.3,0.0,0.0,0.0,0.0,0.0,0,
110200,1840.1,47.2,0.0,0.0,0.0,0.0,0.0,0,
110300,1846.0,50.4,0.0,0.0,0.0,0.0,0.0,0,
110400,1845.3,48.3,0.0,0.0,0.0,0.0,0.0,0,
110500,1839.8,47.5,0.0,0.0,0.0,0.0,0.0,0,
110600,1842.7,51.3,0.0,0.0,0.0,0.0,0.0,0,
110700,1845.3,48.6,0.0,0.0,0.0,0.0,0.0,0,
110800,1840.0,47.4,0.0,0.0,0.0,0.0,0.0,0,
110900,1840.0,58.5,0.0,0.0,0.0,0.0,0.0,0,
111000,1843.5,50.2,0.0,0.0,0.0,0.0,0.0,0,
111100,1843.6,44.3,0.0,0.0,0.0,0.0,0.0,0,
111200,1846.0,49.9,0.0,0.0,0.0,0.0,0.0,0,
111300,1841.5,50.9,0.0,0.0,0.0,0.0,0.0,0,
111400,1839.7,48.0,0.0,0.0,0.0,0.0,0.0,0,
111500,1835.3,59.9,0.0,0.0,0.0,0.0,0.0,0,
111600,1846.1,49.7,0.0,0.0,0.0,0.0,0.0,0,
111700,1840.4,51.4,0.0,0.0,0.0,0.0,0.0,0,
111800,1845.8,47.1,0.0,0.0,0.0,0.0,0.0,0,
111900,1836.9,53.1,0.0,0.0,0.0,0.0,0.0,0,
112000,1840.1,51.0,0.0,0.0,0.0,0.0,0.0,0,
112100,1844.1,51.2,0.0,0.0,0.0,0.0,0.0,0,
112200,1847.9,48.2,0.0,0.0,0.0,0.0,0.0,0,
112300,1842.9,45.3,0.0,0.0,0.0,0.0,0.0,0,
112400,1845.7,49.7,0.0,0.0,0.0,0.0,0.0,0,
112500,1845.0,52.2,0.0,0.0,0.0,0.0,0.0,0,
112600,1838.5,49.4,0.0,0.0,0.0,0.0,0.0,0,
112700,1847.5,46.3,0.0,0.0,0.0,0.0,0.0,0,
112800,1840.2,45.0,0.0,0.0,0.0,0.0,0.0,0,
112900,1841.3,58.4,0.0,0.0,0.0,0.0,0.0,0,
113000,1838.3,50.8,0.0,0.0,0.0,0.0,0.0,0,
113100,1833.1,51.6,0.0,0.0,0.0,0.0,0.0,0,
113200,1835.8,53.3,0.0,0.0,0.0,0.0,0.0,0,
113300,1844.1,51.8,0.0,0.0,0.0,0.0,0.0,0,
113400,1849.0,51.8,0.0,0.0,0.0,0.0,0.0,0,
113500,1833.6,52.7,0.0,0.0,0.0,0.0,0.0,0,
113600,1842.5,53.0,0.0,0.0,0.0,0.0,0.0,0,
113700,1838.0,55.4,0.0,0.0,0.0,0.0,0.0,0,
113800,1842.0,42.4,0.0,0.0,0.0,0.0,0.0,0,
113900,1838.0,54.4,0.0,0.0,0.0,0.0,0.0,0,
114000,1838.2,62.3,0.0,0.0,0.0,0.0,0.0,0,
114100,1835.6,50.5,0.0,0.0,0.0,0.0,0.0,0,
114200,1842.9,52.7,0.0,0.0,0.0,0.0,0.0,0,
114300,1841.6,54.2,0.0,0.0,0.0,0.0,0.0,0,
114400,1839.1,48.7,0.0,0.0,0.0,0.0,0.0,0,
114500,1843.1,53.1,0.0,0.0,0.0,0.0,0.0,0,
114600,1841.5,54.0,0.0,0.0,0.0,0.0,0.0,0,
114700,1839.4,48.2,0.0,0.0,0.0,0.0,0.0,0,
114800,1832.5,59.0,0.0,0.0,0.0,0.0,0.0,0,
114900,1839.7,55.1,0.0,0.0,0.0,0.0,0.0,0,
115000,1830.8,60.8,0.0,0.0,0.0,0.0,0.0,0,
115100,1841.8,50.5,0.0,0.0,0.0,0.0,0.0,0,
115200,1834.3,67.8,0.0,0.0,0.0,0.0,0.0,0,
115300,1824.1,68.3,0.0,0.0,0.0,0.0,0.0,0,
115400,1830.9,60.1,0.0,0.0,0.0,0.0,0.0,0,
115500,1842.3,54.5,0.0,0.0,0.0,0.0,0.0,0,
115600,1834.8,53.5,0.0,0.0,0.0,0.0,0.0,0,
115700,1837.6,60.2,0.0,0.0,0.0,0.0,0.0,0,
115800,1842.9,54.2,0.0,0.0,0.0,0.0,0.0,0,
115900,1834.7,53.3,0.0,0.0,0.0,0.0,0.0,0,
116000,1836.7,56.7,0.0,0.0,0.0,0.0,0.0,0,
116100,1836.4,59.3,0.0,0.0,0.0,0.0,0.0,0,
116200,1829.3,58.0,0.0,0.0,0.0,0.0,0.0,0,
116300,1838.5,56.6,0.0,0.0,0.0,0.0,0.0,0,
116400,1835.9,59.9,0.0,0.0,0.0,0.0,0.0,0,
116500,1832.8,55.6,0.0,0.0,0.0,0.0,0.0,0,
116600,1834.7,57.6,0.0,0.0,0.0,0.0,0.0,0,
116700,1833.6,61.8,0.0,0.0,0.0,0.0,0.0,0,
116800,1832.3,55.8,0.0,0.0,0.0,0.0,0.0,0,
116900,1839.2,55.9,0.0,0.0,0.0,0.0,0.0,0,
117000,1839.5,58.5,0.0,0.0,0.0,0.0,0.0,0,
117100,1836.0,52.3,0.0,0.0,0.0,0.0,0.0,0,
117200,1839.7,55.3,0.0,0.0,0.0,0.0,0.0,0,
117300,1836.0,60.8,0.0,0.0,0.0,0.0,0.0,0,
117400,1832.4,55.7,0.0,0.0,0.0,0.0,0.0,0,
117500,1831.7,59.4,0.0,0.0,0.0,0.0,0.0,0,
117600,1841.6,56.0,0.0,0.0,0.0,0.0,0.0,0,
117700,1835.3,53.6,0.0,0.0,0.0,0.0,0.0,0,
117800,1839.1,55.9,0.0,0.0,0.0,0.0,0.0,0,
117900,1840.0,63.1,0.0,0.0,0.0,0.0,0.0,0,
118000,1833.9,51.5,0.0,0.0,0.0,0.0,0.0,0,
118100,1840.3,58.3,0.0,0.0,0.0,0.0,0.0,0,
118200,1842.9,53.7,0.0,0.0,0.0,0.0,0.0,0,
118300,1833.9,53.7,0.0,0.0,0.0,0.0,0.0,0,
118400,1837.1,60.6,0.0,0.0,0.0,0.0,0.0,0,
118500,1838.4,64.6,0.0,0.0,0.0,0.0,0.0,0,
118600,1833.1,52.3,0.0,0.0,0.0,0.0,0.0,0,
118700,1842.3,50.9,0.0,0.0,0.0,0.0,0.0,0,
118800,1829.5,61.6,0.0,0.0,0.0,0.0,0.0,0,
118900,1834.9,54.1,0.0,0.0,0.0,0.0,0.0,0,
119000,1839.2,56.1,0.0,0.0,0.0,0.0,0.0,0,
119100,1838.5,56.3,0.0,0.0,0.0,0.0,0.0,0,
119200,1832.6,62.2,0.0,0.0,0.0,0.0,0.0,0,
119300,1835.6,58.7,0.0,0.0,0.0,0.0,0.0,0,
119400,1841.6,54.7,0.0,0.0,0.0,0.0,0.0,0,
119500,1836.7,52.2,0.0,0.0,0.0,0.0,0.0,0,
119600,1832.1,63.1,0.0,0.0,0.0,0.0,0.0,0,
119700,1837.5,62.7,0.0,0.0,0.0,0.0,0.0,0,
119800,1829.5,61.2,0.0,0.0,0.0,0.0,0.0,0,
119900,1835.0,59.2,0.0,0.0,0.0,0.0,0.0,0,
120000,1838.4,62.9,0.0,0.0,0.0,0.0,0.0,0,
120100,1829.1,61.3,0.0,0.0,0.0,0.0,0.0,0,
120200,1837.3,57.6,0.0,0.0,0.0,0.0,0.0,0,
120300,1841.2,55.0,0.0,0.0,0.0,0.0,0.0,0,
120400,1833.5,54.6,0.0,0.0,0.0,0.0,0.0,0,
120500,1833.8,63.3,0.0,0.0,0.0,0.0,0.0,0,
120600,1840.8,55.8,0.0,0.0,0.0,0.0,0.0,0,
120700,1834.0,58.2,0.0,0.0,0.0,0.0,0.0,0,
120800,1832.7,60.6,0.0,0.0,0.0,0.0,0.0,0,
120900,1840.6,55.1,0.0,0.0,0.0,0.0,0.0,0,
121000,1831.9,55.7,0.0,0.0,0.0,0.0,0.0,0,
121100,1835.0,63.3,0.0,0.0,0.0,0.0,0.0,0,
121200,1839.8,60.9,0.0,0.0,0.0,0.0,0.0,0,
121300,1829.0,56.7,0.0,0.0,0.0,0.0,0.0,0,
121400,1837.5,58.2,0.0,0.0,0.0,0.0,0.0,0,
121500,1837.5,57.2,0.0,0.0,0.0,0.0,0.0,0,
121600,1835.1,53.1,0.0,0.0,0.0,0.0,0.0,0,
121700,1835.2,63.8,0.0,0.0,0.0,0.0,0.0,0,
121800,1839.5,56.8,0.0,0.0,0.0,0.0,0.0,0,
121900,1834.9,53.2,0.0,0.0,0.0,0.0,0.0,0,
122000,1834.7,58.8,0.0,0.0,0.0,0.0,0.0,0,
122100,1840.0,56.4,0.0,0.0,0.0,0.0,0.0,0,
122200,1835.4,52.5,0.0,0.0,0.0,0.0,0.0,0,
122300,1838.1,57.6,0.0,0.0,0.0,0.0,0.0,0,
122400,1843.4,56.0,0.0,0.0,0.0,0.0,0.0,0,
122500,1833.1,53.6,0.0,0.0,0.0,0.0,0.0,0,
122600,1837.5,57.8,0.0,0.0,0.0,0.0,0.0,0,
122700,1840.2,56.3,0.0,0.0,0.0,0.0,0.0,0,
122800,1835.1,53.2,0.0,0.0,0.0,0.0,0.0,0,
122900,1838.1,57.6,0.0,0.0,0.0,0.0,0.0,0,
123000,1840.1,56.0,0.0,0.0,0.0,0.0,0.0,0,
123100,1835.7,52.4,0.0,0.0,0.0,0.0,0.0,0,
123200,1843.7,48.2,0.0,0.0,0.0,0.0,0.0,0,
123300,1834.0,61.1,0.0,0.0,0.0,0.0,0.0,0,
123400,1832.6,53.9,0.0,0.0,0.0,0.0,0.0,0,
123500,1838.2,57.5,0.0,0.0,0.0,0.0,0.0,0,
123600,1840.1,55.8,0.0,0.0,0.0,0.0,0.0,0,
123700,1835.1,53.6,0.0,0.0,0.0,0.0,0.0,0,
123800,1837.1,58.6,0.0,0.0,0.0,0.0,0.0,0,
123900,1839.6,56.3,0.0,0.0,0.0,0.0,0.0,0,
124000,1833.4,55.8,0.0,0.0,0.0,0.0,0.0,0,
124100,1840.2,53.6,0.0,0.0,0.0,0.0,0.0,0,
124200,1837.6,57.5,0.0,0.0,0.0,0.0,0.0,0,
124300,1835.1,55.8,0.0,0.0,0.0,0.0,0.0,0,
124400,1836.6,58.9,0.0,0.0,0.0,0.0,0.0,0,
124500,1835.6,58.6,0.0,0.0,0.0,0.0,0.0,0,
124600,1834.6,56.1,0.0,0.0,0.0,0.0,0.0,0,
124700,1835.9,60.0,0.0,0.0,0.0,0.0,0.0,0,
124800,1837.9,53.2,0.0,0.0,0.0,0.0,0.0,0,
124900,1833.9,63.4,0.0,0.0,0.0,0.0,0.0,0,
125000,1834.3,61.3,0.0,0.0,0.0,0.0,0.0,0,
125100,1837.3,59.5,0.0,0.0,0.0,0.0,0.0,0,
125200,1832.5,58.6,0.0,0.0,0.0,0.0,0.0,0,
125300,1835.8,60.2,0.0,0.0,0.0,0.0,0.0,0,
125400,1837.5,53.7,0.0,0.0,0.0,0.0,0.0,0,
125500,1834.2,62.7,0.0,0.0,0.0,0.0,0.0,0,
125600,1834.3,57.9,0.0,0.0,0.0,0.0,0.0,0,
125700,1833.3,61.6,0.0,0.0,0.0,0.0,0.0,0,
125800,1831.1,59.9,0.0,0.0,0.0,0.0,0.0,0,
125900,1833.7,61.9,0.0,0.0,0.0,0.0,0.0,0,
126000,1836.5,60.8,0.0,0.0,0.0,0.0,0.0,0,
126100,1831.4,59.6,0.0,0.0,0.0,0.0,0.0,0,
126200,1834.1,61.4,0.0,0.0,0.0,0.0,0.0,0,
126300,1836.6,60.1,0.0,0.0,0.0,0.0,0.0,0,
126400,1831.8,59.1,0.0,0.0,0.0,0.0,0.0,0,
126500,1828.0,64.9,0.0,0.0,0.0,0.0,0.0,0,
126600,1831.2,62.1,0.0,0.0,0.0,0.0,0.0,0,
126700,1829.1,68.7,0.0,0.0,0.0,0.0,0.0,0,
126800,1822.7,67.8,0.0,0.0,0.0,0.0,0.0,0,
126900,1833.8,56.0,0.0,0.0,0.0,0.0,0.0,0,
127000,1835.4,64.0,0.0,0.0,0.0,0.0,0.0,0,
127100,1826.6,65.4,0.0,0.0,0.0,0.0,0.0,0,
127200,1830.5,64.2,0.0,0.0,0.0,0.0,0.0,0,
127300,1829.1,61.6,0.0,0.0,0.0,0.0,0.0,0,
127400,1831.9,63.7,0.0,0.0,0.0,0.0,0.0,0,
127500,1834.9,54.7,0.0,0.0,0.0,0.0,0.0,0,
127600,1831.7,66.4,0.0,0.0,0.0,0.0,0.0,0,
127700,1830.1,64.7,0.0,0.0,0.0,0.0,0.0,0,
127800,1832.2,64.3,0.0,0.0,0.0,0.0,0.0,0,
127900,1830.9,65.5,0.0,0.0,0.0,0.0,0.0,0,
128000,1830.2,64.6,0.0,0.0,0.0,0.0,0.0,0,
128100,1830.9,66.8,0.0,0.0,0.0,0.0,0.0,0,
128200,1828.1,63.0,0.0,0.0,0.0,0.0,0.0,0,
128300,1830.6,64.3,0.0,0.0,0.0,0.0,0.0,0,
128400,1834.2,61.5,0.0,0.0,0.0,0.0,0.0,0,
128500,1835.5,62.1,0.0,0.0,0.0,0.0,0.0,0,
128600,1819.6,70.6,0.0,0.0,0.0,0.0,0.0,0,
128700,1827.9,68.2,0.0,0.0,0.0,0.0,0.0,0,
128800,1826.9,63.4,0.0,0.0,0.0,0.0,0.0,0,
128900,1825.3,70.5,0.0,0.0,0.0,0.0,0.0,0,
129000,1833.4,62.4,0.0,0.0,0.0,0.0,0.0,0,
129100,1829.8,60.8,0.0,0.0,0.0,0.0,0.0,0,
129200,1831.2,64.4,0.0,0.0,0.0,0.0,0.0,0,
129300,1834.9,61.5,0.0,0.0,0.0,0.0,0.0,0,
129400,1827.5,67.6,0.0,0.0,0.0,0.0,0.0,0,
129500,1830.3,64.6,0.0,0.0,0.0,0.0,0.0,0,
129600,1834.9,55.5,0.0,0.0,0.0,0.0,0.0,0,
129700,1828.8,73.0,0.0,0.0,0.0,0.0,0.0,0,
129800,1828.1,66.0,0.0,0.0,0.0,0.0,0.0,0,
129900,1830.0,67.5,0.0,0.0,0.0,0.0,0.0,0,
130000,1825.4,70.1,0.0,0.0,0.0,0.0,0.0,0,
130100,1823.3,68.7,0.0,0.0,0.0,0.0,0.0,0,
130200,1833.2,63.3,0.0,0.0,0.0,0.0,0.0,0,
130300,1828.6,61.8,0.0,0.0,0.0,0.0,0.0,0,
130400,1834.4,61.1,0.0,0.0,0.0,0.0,0.0,0,
130500,1829.8,64.0,0.0,0.0,0.0,0.0,0.0,0,
130600,1824.7,70.1,0.0,0.0,0.0,0.0,0.0,0,
130700,1827.9,67.9,0.0,0.0,0.0,0.0,0.0,0,
130800,1825.5,70.1,0.0,0.0,0.0,0.0,0.0,0,
130900,1826.6,63.7,0.0,0.0,0.0,0.0,0.0,0,
131000,1829.9,66.3,0.0,0.0,0.0,0.0,0.0,0,
131100,1830.6,64.5,0.0,0.0,0.0,0.0,0.0,0,
131200,1827.9,62.5,0.0,0.0,0.0,0.0,0.0,0,
131300,1831.2,64.8,0.0,0.0,0.0,0.0,0.0,0,
131400,1834.4,61.5,0.0,0.0,0.0,0.0,0.0,0,
131500,1829.1,61.1,0.0,0.0,0.0,0.0,0.0,0,
131600,1831.2,64.7,0.0,0.0,0.0,0.0,0.0,0,
131700,1834.1,55.6,0.0,0.0,0.0,0.0,0.0,0,
131800,1828.0,74.8,0.0,0.0,0.0,0.0,0.0,0,
131900,1829.4,63.3,0.0,0.0,0.0,0.0,0.0,0,
132000,1830.1,63.4,0.0,0.0,0.0,0.0,0.0,0,
132100,1828.1,62.1,0.0,0.0,0.0,0.0,0.0,0,
132200,1831.1,64.8,0.0,0.0,0.0,0.0,0.0,0,
132300,1836.5,56.9,0.0,0.0,0.0,0.0,0.0,0,
132400,1825.1,75.0,0.0,0.0,0.0,0.0,0.0,0,
132500,1826.7,67.4,0.0,0.0,0.0,0.0,0.0,0,
132600,1832.0,63.1,0.0,0.0,0.0,0.0,0.0,0,
132700,1825.7,69.3,0.0,0.0,0.0,0.0,0.0,0,
132800,1827.6,67.3,0.0,0.0,0.0,0.0,0.0,0,
132900,1832.4,63.0,0.0,0.0,0.0,0.0,0.0,0,
133000,1828.9,61.9,0.0,0.0,0.0,0.0,0.0,0,
133100,1826.5,72.1,0.0,0.0,0.0,0.0,0.0,0,
133200,1826.8,70.7,0.0,0.0,0.0,0.0,0.0,0,
133300,1827.2,63.7,0.0,0.0,0.0,0.0,0.0,0,
133400,1832.3,61.1,0.0,0.0,0.0,0.0,0.0,0,
133500,1829.9,63.1,0.0,0.0,0.0,0.0,0.0,0,
133600,1827.7,63.4,0.0,0.0,0.0,0.0,0.0,0,
133700,1826.5,67.9,0.0,0.0,0.0,0.0,0.0,0,
133800,1831.6,57.7,0.0,0.0,0.0,0.0,0.0,0,
133900,1826.4,76.2,0.0,0.0,0.0,0.0,0.0,0,
134000,1831.9,58.0,0.0,0.0,0.0,0.0,0.0,0,
134100,1825.4,66.0,0.0,0.0,0.0,0.0,0.0,0,
134200,1827.0,63.9,0.0,0.0,0.0,0.0,0.0,0,
134300,1829.1,66.3,0.0,0.0,0.0,0.0,0.0,0,
134400,1829.1,67.9,0.0,0.0,0.0,0.0,0.0,0,
134500,1826.7,63.9,0.0,0.0,0.0,0.0,0.0,0,
134600,1829.6,66.2,0.0,0.0,0.0,0.0,0.0,0,
134700,1832.1,63.7,0.0,0.0,0.0,0.0,0.0,0,
134800,1828.8,65.8,0.0,0.0,0.0,0.0,0.0,0,
134900,1828.5,67.0,0.0,0.0,0.0,0.0,0.0,0,
135000,1832.7,59.4,0.0,0.0,0.0,0.0,0.0,0,
135100,1828.6,67.7,0.0,0.0,0.0,0.0,0.0,0,
135200,1828.1,66.8,0.0,0.0,0.0,0.0,0.0,0,
135300,1832.9,58.9,0.0,0.0,0.0,0.0,0.0,0,
135400,1827.3,69.8,0.0,0.0,0.0,0.0,0.0,0,
135500,1823.6,74.6,0.0,0.0,0.0,0.0,0.0,0,
135600,1820.5,71.4,0.0,0.0,0.0,0.0,0.0,0,
135700,1823.2,67.4,0.0,0.0,0.0,0.0,0.0,0,
135800,1827.2,68.7,0.0,0.0,0.0,0.0,0.0,0,
135900,1829.3,66.0,0.0,0.0,0.0,0.0,0.0,0,
136000,1822.9,72.4,0.0,0.0,0.0,0.0,0.0,0,
136100,1825.8,69.2,0.0,0.0,0.0,0.0,0.0,0,
136200,1827.7,66.9,0.0,0.0,0.0,0.0,0.0,0,
136300,1823.9,78.5,0.0,0.0,0.0,0.0,0.0,0,
136400,1819.7,71.9,0.0,0.0,0.0,0.0,0.0,0,
136500,1823.9,70.8,0.0,0.0,0.0,0.0,0.0,0,
136600,1821.4,78.0,0.0,0.0,0.0,0.0,0.0,0,
136700,1823.1,72.8,0.0,0.0,0.0,0.0,0.0,0,
136800,1827.3,69.4,0.0,0.0,0.0,0.0,0.0,0,
136900,1821.1,79.2,0.0,0.0,0.0,0.0,0.0,0,
137000,1821.6,71.7,0.0,0.0,0.0,0.0,0.0,0,
137100,1827.6,69.8,0.0,0.0,0.0,0.0,0.0,0,
137200,1828.6,67.8,0.0,0.0,0.0,0.0,0.0,0,
137300,1818.6,75.5,0.0,0.0,0.0,0.0,0.0,0,
137400,1822.9,71.6,0.0,0.0,0.0,0.0,0.0,0,
137500,1822.1,68.8,0.0,0.0,0.0,0.0,0.0,0,
137600,1823.8,71.2,0.0,0.0,0.0,0.0,0.0,0,
137700,1823.0,72.7,0.0,0.0,0.0,0.0,0.0,0,
137800,1820.9,69.7,0.0,0.0,0.0,0.0,0.0,0,
137900,1824.4,70.6,0.0,0.0,0.0,0.0,0.0,0,
138000,1827.3,64.3,0.0,0.0,0.0,0.0,0.0,0,
138100,1824.0,73.1,0.0,0.0,0.0,0.0,0.0,0,
138200,1823.9,71.1,0.0,0.0,0.0,0.0,0.0,0,
138300,1827.1,69.9,0.0,0.0,0.0,0.0,0.0,0,
138400,1822.0,70.8,0.0,0.0,0.0,0.0,0.0,0,
138500,1825.0,70.0,0.0,0.0,0.0,0.0,0.0,0,
138600,1826.9,70.5,0.0,0.0,0.0,0.0,0.0,0,
138700,1819.3,75.7,0.0,0.0,0.0,0.0,0.0,0,
138800,1818.2,73.9,0.0,0.0,0.0,0.0,0.0,0,
138900,1822.4,72.3,0.0,0.0,0.0,0.0,0.0,0,
139000,1820.1,78.7,0.0,0.0,0.0,0.0,0.0,0,
139100,1817.0,74.8,0.0,0.0,0.0,0.0,0.0,0,
139200,1825.1,71.8,0.0,0.0,0.0,0.0,0.0,0,
139300,1820.3,72.5,0.0,0.0,0.0,0.0,0.0,0,
139400,1822.2,72.6,0.0,0.0,0.0,0.0,0.0,0,
139500,1823.5,73.3,0.0,0.0,0.0,0.0,0.0,0,
139600,1819.6,70.9,0.0,0.0,0.0,0.0,0.0,0,
139700,1823.4,71.7,0.0,0.0,0.0,0.0,0.0,0,
139800,1823.0,75.6,0.0,0.0,0.0,0.0,0.0,0,
139900,1819.7,71.9,0.0,0.0,0.0,0.0,0.0,0,
140000,1817.8,75.2,0.0,0.0,0.0,0.0,0.0,0,
140100,1825.6,69.8,0.0,0.0,0.0,0.0,0.0,0,
140200,1821.9,69.4,0.0,0.0,0.0,0.0,0.0,0,
140300,1823.2,72.0,0.0,0.0,0.0,0.0,0.0,0,
140400,1826.5,69.8,0.0,0.0,0.0,0.0,0.0,0,
140500,1823.8,75.2,0.0,0.0,0.0,0.0,0.0,0,
140600,1821.0,72.5,0.0,0.0,0.0,0.0,0.0,0,
140700,1826.1,69.8,0.0,0.0,0.0,0.0,0.0,0,
140800,1817.5,77.3,0.0,0.0,0.0,0.0,0.0,0,
140900,1821.1,75.0,0.0,0.0,0.0,0.0,0.0,0,
141000,1825.0,70.3,0.0,0.0,0.0,0.0,0.0,0,
141100,1820.1,72.7,0.0,0.0,0.0,0.0,0.0,0,
141200,1822.7,73.2,0.0,0.0,0.0,0.0,0.0,0,
141300,1821.6,73.2,0.0,0.0,0.0,0.0,0.0,0,
141400,1818.9,73.2,0.0,0.0,0.0,0.0,0.0,0,
141500,1822.1,74.0,0.0,0.0,0.0,0.0,0.0,0,
141600,1825.3,66.7,0.0,0.0,0.0,0.0,0.0,0,
141700,1821.0,76.5,0.0,0.0,0.0,0.0,0.0,0,
141800,1820.7,74.9,0.0,0.0,0.0,0.0,0.0,0,
141900,1824.4,73.1,0.0,0.0,0.0,0.0,0.0,0,
142000,1818.7,78.7,0.0,0.0,0.0,0.0,0.0,0,
142100,1821.4,74.0,0.0,0.0,0.0,0.0,0.0,0,
142200,1824.5,71.0,0.0,0.0,0.0,0.0,0.0,0,
142300,1817.5,79.3,0.0,0.0,0.0,0.0,0.0,0,
142400,1813.8,79.4,0.0,0.0,0.0,0.0,0.0,0,
142500,1822.8,72.8,0.0,0.0,0.0,0.0,0.0,0,
142600,1818.9,72.9,0.0,0.0,0.0,0.0,0.0,0,
142700,1822.0,74.0,0.0,0.0,0.0,0.0,0.0,0,
142800,1824.2,69.6,0.0,0.0,0.0,0.0,0.0,0,
142900,1815.7,84.7,0.0,0.0,0.0,0.0,0.0,0,
143000,1818.2,75.8,0.0,0.0,0.0,0.0,0.0,0,
143100,1816.1,75.2,0.0,0.0,0.0,0.0,0.0,0,
143200,1818.4,74.1,0.0,0.0,0.0,0.0,0.0,0,
143300,1822.1,73.4,0.0,0.0,0.0,0.0,0.0,0,
143400,1823.8,70.7,0.0,0.0,0.0,0.0,0.0,0,
143500,1819.9,70.2,0.0,0.0,0.0,0.0,0.0,0,
143600,1822.0,74.0,0.0,0.0,0.0,0.0,0.0,0,
143700,1823.6,70.5,0.0,0.0,0.0,0.0,0.0,0,
143800,1821.4,73.8,0.0,0.0,0.0,0.0,0.0,0,
143900,1821.6,73.5,0.0,0.0,0.0,0.0,0.0,0,
144000,1823.5,71.0,0.0,0.0,0.0,0.0,0.0,0,
144100,1814.5,73.2,0.0,0.0,0.0,0.0,0.0,0,
144200,1823.3,74.3,0.0,0.0,0.0,0.0,0.0,0,
144300,1823.3,71.1,0.0,0.0,0.0,0.0,0.0,0,
144400,1819.7,70.4,0.0,0.0,0.0,0.0,0.0,0,
144500,1818.5,75.4,0.0,0.0,0.0,0.0,0.0,0,
144600,1823.8,73.6,0.0,0.0,0.0,0.0,0.0,0,
144700,1819.8,77.3,0.0,0.0,0.0,0.0,0.0,0,
144800,1816.3,81.5,0.0,0.0,0.0,0.0,0.0,0,
144900,1821.1,73.0,0.0,0.0,0.0,0.0,0.0,0,
145000,1818.6,70.3,0.0,0.0,0.0,0.0,0.0,0,
145100,1814.4,79.6,0.0,0.0,0.0,0.0,0.0,0,
145200,1821.0,73.2,0.0,0.0,0.0,0.0,0.0,0,
145300,1815.7,84.3,0.0,0.0,0.0,0.0,0.0,0,
145400,1816.3,77.5,0.0,0.0,0.0,0.0,0.0,0,
145500,1818.4,80.6,0.0,0.0,0.0,0.0,0.0,0,
145600,1816.3,73.7,0.0,0.0,0.0,0.0,0.0,0,
145700,1816.4,77.2,0.0,0.0,0.0,0.0,0.0,0,
145800,1820.7,73.6,0.0,0.0,0.0,0.0,0.0,0,
145900,1817.3,73.1,0.0,0.0,0.0,0.0,0.0,0,
146000,1820.5,75.3,0.0,0.0,0.0,0.0,0.0,0,
146100,1821.7,72.7,0.0,0.0,0.0,0.0,0.0,0,
146200,1813.8,74.0,0.0,0.0,0.0,0.0,0.0,0,
146300,1816.7,77.9,0.0,0.0,0.0,0.0,0.0,0,
146400,1820.9,73.1,0.0,0.0,0.0,0.0,0.0,0,
146500,1816.8,74.1,0.0,0.0,0.0,0.0,0.0,0,
146600,1820.6,74.9,0.0,0.0,0.0,0.0,0.0,0,
146700,1818.8,78.6,0.0,0.0,0.0,0.0,0.0,0,
146800,1811.5,84.1,0.0,0.0,0.0,0.0,0.0,0,
146900,1815.8,79.3,0.0,0.0,0.0,0.0,0.0,0,
147000,1818.8,76.1,0.0,0.0,0.0,0.0,0.0,0,
147100,1814.8,76.0,0.0,0.0,0.0,0.0,0.0,0,
147200,1818.4,77.1,0.0,0.0,0.0,0.0,0.0,0,
147300,1819.8,79.1,0.0,0.0,0.0,0.0,0.0,0,
147400,1814.2,76.5,0.0,0.0,0.0,0.0,0.0,0,
147500,1813.4,84.5,0.0,0.0,0.0,0.0,0.0,0,
147600,1817.2,78.3,0.0,0.0,0.0,0.0,0.0,0,
147700,1813.5,75.3,0.0,0.0,0.0,0.0,0.0,0,
147800,1812.8,80.3,0.0,0.0,0.0,0.0,0.0,0,
147900,1815.3,84.8,0.0,0.0,0.0,0.0,0.0,0,
148000,1813.2,77.6,0.0,0.0,0.0,0.0,0.0,0,
148100,1816.7,78.3,0.0,0.0,0.0,0.0,0.0,0,
148200,1818.4,76.7,0.0,0.0,0.0,0.0,0.0,0,
148300,1813.4,77.3,0.0,0.0,0.0,0.0,0.0,0,
148400,1822.0,68.0,0.0,0.0,0.0,0.0,0.0,0,
148500,1821.1,84.3,0.0,0.0,0.0,0.0,0.0,0,
148600,1800.5,91.5,0.0,0.0,0.0,0.0,0.0,0,
148700,1812.9,81.5,0.0,0.0,0.0,0.0,0.0,0,
148800,1816.2,79.0,0.0,0.0,0.0,0.0,0.0,0,
148900,1812.4,79.0,0.0,0.0,0.0,0.0,0.0,0,
149000,1815.0,79.8,0.0,0.0,0.0,0.0,0.0,0,
149100,1817.6,83.4,0.0,0.0,0.0,0.0,0.0,0,
149200,1807.8,80.3,0.0,0.0,0.0,0.0,0.0,0,
149300,1814.7,80.0,0.0,0.0,0.0,0.0,0.0,0,
149400,1816.3,78.6,0.0,0.0,0.0,0.0,0.0,0,
149500,1811.9,78.8,0.0,0.0,0.0,0.0,0.0,0,
149600,1815.2,79.9,0.0,0.0,0.0,0.0,0.0,0,
149700,1816.8,78.5,0.0,0.0,0.0,0.0,0.0,0,
149800,1811.5,79.7,0.0,0.0,0.0,0.0,0.0,0,
149900,1814.4,80.2,0.0,0.0,0.0,0.0,0.0,0,
150000,1812.9,81.4,0.0,0.0,0.0,0.0,0.0,0,
150100,1810.6,80.1,0.0,0.0,0.0,0.0,0.0,0,
150200,1814.2,81.0,0.0,0.0,0.0,0.0,0.0,0,
150300,1815.8,79.1,0.0,0.0,0.0,0.0,0.0,0,
150400,1811.2,80.0,0.0,0.0,0.0,0.0,0.0,0,
150500,1813.8,81.2,0.0,0.0,0.0,0.0,0.0,0,
150600,1815.9,79.4,0.0,0.0,0.0,0.0,0.0,0,
150700,1810.8,80.1,0.0,0.0,0.0,0.0,0.0,0,
150800,1814.8,81.5,0.0,0.0,0.0,0.0,0.0,0,
150900,1815.4,80.2,0.0,0.0,0.0,0.0,0.0,0,
151000,1810.3,80.5,0.0,0.0,0.0,0.0,0.0,0,
151100,1813.4,81.5,0.0,0.0,0.0,0.0,0.0,0,
151200,1819.5,80.3,0.0,0.0,0.0,0.0,0.0,0,
151300,1807.3,81.3,0.0,0.0,0.0,0.0,0.0,0,
151400,1812.6,82.1,0.0,0.0,0.0,0.0,0.0,0,
151500,1811.9,86.4,0.0,0.0,0.0,0.0,0.0,0,
151600,1807.9,80.9,0.0,0.0,0.0,0.0,0.0,0,
151700,1812.7,82.0,0.0,0.0,0.0,0.0,0.0,0,
151800,1816.0,79.8,0.0,0.0,0.0,0.0,0.0,0,
151900,1810.3,79.5,0.0,0.0,0.0,0.0,0.0,0,
152000,1812.1,82.8,0.0,0.0,0.0,0.0,0.0,0,
152100,1815.7,80.0,0.0,0.0,0.0,0.0,0.0,0,
152200,1810.6,79.4,0.0,0.0,0.0,0.0,0.0,0,
152300,1815.7,78.5,0.0,0.0,0.0,0.0,0.0,0,
152400,1811.6,86.1,0.0,0.0,0.0,0.0,0.0,0,
152500,1808.7,80.7,0.0,0.0,0.0,0.0,0.0,0,
152600,1811.8,83.6,0.0,0.0,0.0,0.0,0.0,0,
152700,1814.8,80.5,0.0,0.0,0.0,0.0,0.0,0,
152800,1809.6,80.3,0.0,0.0,0.0,0.0,0.0,0,
152900,1812.5,83.8,0.0,0.0,0.0,0.0,0.0,0,
153000,1814.6,86.0,0.0,0.0,0.0,0.0,0.0,0,
153100,1803.6,92.6,0.0,0.0,0.0,0.0,0.0,0,
153200,1808.9,86.1,0.0,0.0,0.0,0.0,0.0,0,
153300,1813.6,82.0,0.0,0.0,0.0,0.0,0.0,0,
153400,1808.1,81.5,0.0,0.0,0.0,0.0,0.0,0,
153500,1811.9,84.3,0.0,0.0,0.0,0.0,0.0,0,
153600,1813.4,81.9,0.0,0.0,0.0,0.0,0.0,0,
153700,1804.5,83.6,0.0,0.0,0.0,0.0,0.0,0,
153800,1811.2,85.6,0.0,0.0,0.0,0.0,0.0,0,
153900,1813.0,81.1,0.0,0.0,0.0,0.0,0.0,0,
154000,1806.8,91.4,0.0,0.0,0.0,0.0,0.0,0,
154100,1809.9,85.2,0.0,0.0,0.0,0.0,0.0,0,
154200,1813.4,80.7,0.0,0.0,0.0,0.0,0.0,0,
154300,1809.4,81.3,0.0,0.0,0.0,0.0,0.0,0,
154400,1813.0,82.8,0.0,0.0,0.0,0.0,0.0,0,
154500,1816.8,88.5,0.0,0.0,0.0,0.0,0.0,0,
154600,1802.2,82.7,0.0,0.0,0.0,0.0,0.0,0,
154700,1810.6,85.0,0.0,0.0,0.0,0.0,0.0,0,
154800,1809.3,91.7,0.0,0.0,0.0,0.0,0.0,0,
154900,1807.3,81.3,0.0,0.0,0.0,0.0,0.0,0,
155000,1810.0,85.2,0.0,0.0,0.0,0.0,0.0,0,
155100,1813.5,81.4,0.0,0.0,0.0,0.0,0.0,0,
155200,1808.9,80.1,0.0,0.0,0.0,0.0,0.0,0,
155300,1811.0,83.8,0.0,0.0,0.0,0.0,0.0,0,
155400,1813.3,81.7,0.0,0.0,0.0,0.0,0.0,0,
155500,1809.4,81.0,0.0,0.0,0.0,0.0,0.0,0,
155600,1811.4,84.0,0.0,0.0,0.0,0.0,0.0,0,
155700,1812.1,88.3,0.0,0.0,0.0,0.0,0.0,0,
155800,1800.6,84.6,0.0,0.0,0.0,0.0,0.0,0,
155900,1806.9,87.5,0.0,0.0,0.0,0.0,0.0,0,
156000,1807.7,92.8,0.0,0.0,0.0,0.0,0.0,0,
156100,1806.1,83.5,0.0,0.0,0.0,0.0,0.0,0,
156200,1809.8,85.4,0.0,0.0,0.0,0.0,0.0,0,
156300,1811.4,82.8,0.0,0.0,0.0,0.0,0.0,0,
156400,1808.2,80.6,0.0,0.0,0.0,0.0,0.0,0,
156500,1809.9,85.4,0.0,0.0,0.0,0.0,0.0,0,
156600,1812.0,82.1,0.0,0.0,0.0,0.0,0.0,0,
156700,1803.7,84.0,0.0,0.0,0.0,0.0,0.0,0,
156800,1810.0,85.9,0.0,0.0,0.0,0.0,0.0,0,
156900,1807.9,90.4,0.0,0.0,0.0,0.0,0.0,0,
157000,1806.2,84.6,0.0,0.0,0.0,0.0,0.0,0,
157100,1809.2,86.0,0.0,0.0,0.0,0.0,0.0,0,
157200,1808.5,90.7,0.0,0.0,0.0,0.0,0.0,0,
157300,1805.9,84.4,0.0,0.0,0.0,0.0,0.0,0,
157400,1803.9,94.8,0.0,0.0,0.0,0.0,0.0,0,
157500,1808.3,85.4,0.0,0.0,0.0,0.0,0.0,0,
157600,1805.0,83.1,0.0,0.0,0.0,0.0,0.0,0,
157700,1809.6,86.0,0.0,0.0,0.0,0.0,0.0,0,
157800,1810.3,84.2,0.0,0.0,0.0,0.0,0.0,0,
157900,1805.2,82.7,0.0,0.0,0.0,0.0,0.0,0,
158000,1806.1,88.1,0.0,0.0,0.0,0.0,0.0,0,
158100,1809.4,85.0,0.0,0.0,0.0,0.0,0.0,0,
158200,1804.1,83.3,0.0,0.0,0.0,0.0,0.0,0,
158300,1809.3,86.7,0.0,0.0,0.0,0.0,0.0,0,
158400,1807.8,91.5,0.0,0.0,0.0,0.0,0.0,0,
158500,1798.8,89.2,0.0,0.0,0.0,0.0,0.0,0,
158600,1806.8,88.3,0.0,0.0,0.0,0.0,0.0,0,
158700,1809.4,85.2,0.0,0.0,0.0,0.0,0.0,0,
158800,1804.6,83.5,0.0,0.0,0.0,0.0,0.0,0,
158900,1807.4,88.1,0.0,0.0,0.0,0.0,0.0,0,
159000,1809.4,85.4,0.0,0.0,0.0,0.0,0.0,0,
159100,1803.5,84.2,0.0,0.0,0.0,0.0,0.0,0,
159200,1807.4,88.9,0.0,0.0,0.0,0.0,0.0,0,
159300,1809.0,86.2,0.0,0.0,0.0,0.0,0.0,0,
159400,1799.0,89.3,0.0,0.0,0.0,0.0,0.0,0,
159500,1804.8,90.7,0.0,0.0,0.0,0.0,0.0,0,
159600,1806.3,89.0,0.0,0.0,0.0,0.0,0.0,0,
159700,1801.7,88.7,0.0,0.0,0.0,0.0,0.0,0,
159800,1804.6,90.3,0.0,0.0,0.0,0.0,0.0,0,
159900,1806.4,89.1,0.0,0.0,0.0,0.0,0.0,0,
160000,1801.0,86.4,0.0,0.0,0.0,0.0,0.0,0,
160100,1802.0,97.0,0.0,0.0,0.0,0.0,0.0,0,
160200,1804.8,90.5,0.0,0.0,0.0,0.0,0.0,0,
160300,1800.7,87.8,0.0,0.0,0.0,0.0,0.0,0,
160400,1804.2,90.4,0.0,0.0,0.0,0.0,0.0,0,
160500,1802.5,95.3,0.0,0.0,0.0,0.0,0.0,0,
160600,1800.6,90.1,0.0,0.0,0.0,0.0,0.0,0,
160700,1802.4,92.2,0.0,0.0,0.0,0.0,0.0,0,
160800,1805.3,90.2,0.0,0.0,0.0,0.0,0.0,0,
160900,1800.4,90.7,0.0,0.0,0.0,0.0,0.0,0,
161000,1803.2,91.8,0.0,0.0,0.0,0.0,0.0,0,
161100,1805.2,90.5,0.0,0.0,0.0,0.0,0.0,0,
161200,1800.4,89.7,0.0,0.0,0.0,0.0,0.0,0,
161300,1803.8,91.4,0.0,0.0,0.0,0.0,0.0,0,
161400,1805.0,90.7,0.0,0.0,0.0,0.0,0.0,0,
161500,1799.9,91.2,0.0,0.0,0.0,0.0,0.0,0,
161600,1802.8,92.1,0.0,0.0,0.0,0.0,0.0,0,
161700,1804.9,90.9,0.0,0.0,0.0,0.0,0.0,0,
161800,1798.0,89.3,0.0,0.0,0.0,0.0,0.0,0,
161900,1799.5,94.3,0.0,0.0,0.0,0.0,0.0,0,
162000,1800.2,102.0,0.0,0.0,0.0,0.0,0.0,0,
162100,1797.7,91.0,0.0,0.0,0.0,0.0,0.0,0,
162200,1801.1,93.8,0.0,0.0,0.0,0.0,0.0,0,
162300,1803.2,92.1,0.0,0.0,0.0,0.0,0.0,0,
162400,1798.6,90.2,0.0,0.0,0.0,0.0,0.0,0,
162500,1807.7,83.6,0.0,0.0,0.0,0.0,0.0,0,
162600,1802.1,101.2,0.0,0.0,0.0,0.0,0.0,0,
162700,1789.3,96.3,0.0,0.0,0.0,0.0,0.0,0,
162800,1800.5,94.7,0.0,0.0,0.0,0.0,0.0,0,
162900,1802.4,93.5,0.0,0.0,0.0,0.0,0.0,0,
163000,1792.2,95.3,0.0,0.0,0.0,0.0,0.0,0,
163100,1796.2,97.5,0.0,0.0,0.0,0.0,0.0,0,
163200,1801.5,93.6,0.0,0.0,0.0,0.0,0.0,0,
163300,1796.8,94.4,0.0,0.0,0.0,0.0,0.0,0,
163400,1800.0,96.2,0.0,0.0,0.0,0.0,0.0,0,
163500,1798.5,102.9,0.0,0.0,0.0,0.0,0.0,0,
163600,1794.4,95.5,0.0,0.0,0.0,0.0,0.0,0,
163700,1799.9,96.1,0.0,0.0,0.0,0.0,0.0,0,
163800,1801.2,94.0,0.0,0.0,0.0,0.0,0.0,0,
163900,1792.2,96.4,0.0,0.0,0.0,0.0,0.0,0,
164000,1794.7,95.9,0.0,0.0,0.0,0.0,0.0,0,
164100,1799.2,105.8,0.0,0.0,0.0,0.0,0.0,0,
164200,1781.0,102.3,0.0,0.0,0.0,0.0,0.0,0,
164300,1798.3,98.6,0.0,0.0,0.0,0.0,0.0,0,
164400,1797.4,111.8,0.0,0.0,0.0,0.0,0.0,0,
164500,1784.8,95.7,0.0,0.0,0.0,0.0,0.0,0,
164600,1800.1,97.3,0.0,0.0,0.0,0.0,0.0,0,
164700,1801.1,94.2,0.0,0.0,0.0,0.0,0.0,0,
164800,1795.0,91.4,0.0,0.0,0.0,0.0,0.0,0,
164900,1800.9,96.2,0.0,0.0,0.0,0.0,0.0,0,
165000,1801.6,99.2,0.0,0.0,0.0,0.0,0.0,0,
165100,1792.4,93.3,0.0,0.0,0.0,0.0,0.0,0,
165200,1797.3,99.0,0.0,0.0,0.0,0.0,0.0,0,
165300,1801.5,92.9,0.0,0.0,0.0,0.0,0.0,0,
165400,1793.3,102.2,0.0,0.0,0.0,0.0,0.0,0,
165500,1799.5,93.1,0.0,0.0,0.0,0.0,0.0,0,
165600,1797.0,94.8,0.0,0.0,0.0,0.0,0.0,0,
165700,1791.2,96.2,0.0,0.0,0.0,0.0,0.0,0,
165800,1798.2,98.6,0.0,0.0,0.0,0.0,0.0,0,
165900,1800.2,93.7,0.0,0.0,0.0,0.0,0.0,0,
166000,1794.5,92.7,0.0,0.0,0.0,0.0,0.0,0,
166100,1798.5,97.8,0.0,0.0,0.0,0.0,0.0,0,
166200,1797.2,102.1,0.0,0.0,0.0,0.0,0.0,0,
166300,1790.4,97.2,0.0,0.0,0.0,0.0,0.0,0,
166400,1799.5,94.3,0.0,0.0,0.0,0.0,0.0,0,
166500,1793.3,96.5,0.0,0.0,0.0,0.0,0.0,0,
166600,1793.1,100.9,0.0,0.0,0.0,0.0,0.0,0,
166700,1796.1,99.1,0.0,0.0,0.0,0.0,0.0,0,
166800,1792.7,103.0,0.0,0.0,0.0,0.0,0.0,0,
166900,1793.8,95.2,0.0,0.0,0.0,0.0,0.0,0,
167000,1796.1,98.8,0.0,0.0,0.0,0.0,0.0,0,
167100,1797.0,98.1,0.0,0.0,0.0,0.0,0.0,0,
167200,1793.2,99.5,0.0,0.0,0.0,0.0,0.0,0,
167300,1796.4,98.4,0.0,0.0,0.0,0.0,0.0,0,
167400,1801.9,95.3,0.0,0.0,0.0,0.0,0.0,0,
167500,1786.5,105.5,0.0,0.0,0.0,0.0,0.0,0,
167600,1792.2,102.0,0.0,0.0,0.0,0.0,0.0,0,
167700,1802.3,101.8,0.0,0.0,0.0,0.0,0.0,0,
167800,1780.1,102.7,0.0,0.0,0.0,0.0,0.0,0,
167900,1795.7,99.5,0.0,0.0,0.0,0.0,0.0,0,
168000,1798.7,96.1,0.0,0.0,0.0,0.0,0.0,0,
168100,1792.6,94.9,0.0,0.0,0.0,0.0,0.0,0,
168200,1797.1,99.5,0.0,0.0,0.0,0.0,0.0,0,
168300,1798.8,95.8,0.0,0.0,0.0,0.0,0.0,0,
168400,1791.9,105.8,0.0,0.0,0.0,0.0,0.0,0,
168500,1794.4,100.2,0.0,0.0,0.0,0.0,0.0,0,
168600,1798.0,99.1,0.0,0.0,0.0,0.0,0.0,0,
168700,1792.4,95.8,0.0,0.0,0.0,0.0,0.0,0,
168800,1791.8,98.2,0.0,0.0,0.0,0.0,0.0,0,
168900,1794.1,103.9,0.0,0.0,0.0,0.0,0.0,0,
169000,1789.2,98.7,0.0,0.0,0.0,0.0,0.0,0,
169100,1791.4,106.5,0.0,0.0,0.0,0.0,0.0,0,
169200,1796.0,98.2,0.0,0.0,0.0,0.0,0.0,0,
169300,1793.5,102.6,0.0,0.0,0.0,0.0,0.0,0,
169400,1793.0,100.7,0.0,0.0,0.0,0.0,0.0,0,
169500,1797.3,97.8,0.0,0.0,0.0,0.0,0.0,0,
169600,1783.6,108.5,0.0,0.0,0.0,0.0,0.0,0,
169700,1792.3,102.3,0.0,0.0,0.0,0.0,0.0,0,
169800,1795.6,99.0,0.0,0.0,0.0,0.0,0.0,0,
169900,1793.0,105.6,0.0,0.0,0.0,0.0,0.0,0,
170000,1789.4,103.2,0.0,0.0,0.0,0.0,0.0,0,
170100,1795.5,98.3,0.0,0.0,0.0,0.0,0.0,0,
170200,1790.9,97.3,0.0,0.0,0.0,0.0,0.0,0,
170300,1794.9,101.2,0.0,0.0,0.0,0.0,0.0,0,
170400,1795.4,99.2,0.0,0.0,0.0,0.0,0.0,0,
170500,1790.0,97.7,0.0,0.0,0.0,0.0,0.0,0,
170600,1794.0,102.1,0.0,0.0,0.0,0.0,0.0,0,
170700,1794.1,108.1,0.0,0.0,0.0,0.0,0.0,0,
170800,1790.3,98.8,0.0,0.0,0.0,0.0,0.0,0,
170900,1792.7,102.3,0.0,0.0,0.0,0.0,0.0,0,
171000,1795.8,99.0,0.0,0.0,0.0,0.0,0.0,0,
171100,1789.4,98.7,0.0,0.0,0.0,0.0,0.0,0,
171200,1793.3,102.3,0.0,0.0,0.0,0.0,0.0,0,
171300,1791.7,100.6,0.0,0.0,0.0,0.0,0.0,0,
171400,1789.0,98.6,0.0,0.0,0.0,0.0,0.0,0,
171500,1791.5,104.5,0.0,0.0,0.0,0.0,0.0,0,
171600,1791.9,102.8,0.0,0.0,0.0,0.0,0.0,0,
171700,1783.7,105.2,0.0,0.0,0.0,0.0,0.0,0,
171800,1790.3,105.6,0.0,0.0,0.0,0.0,0.0,0,
171900,1791.5,112.2,0.0,0.0,0.0,0.0,0.0,0,
172000,1779.9,119.3,0.0,0.0,0.0,0.0,0.0,0,
172100,1783.8,109.2,0.0,0.0,0.0,0.0,0.0,0,
172200,1791.5,104.4,0.0,0.0,0.0,0.0,0.0,0,
172300,1783.8,108.3,0.0,0.0,0.0,0.0,0.0,0,
172400,1786.6,107.3,0.0,0.0,0.0,0.0,0.0,0,
172500,1789.7,110.8,0.0,0.0,0.0,0.0,0.0,0,
172600,1785.0,104.9,0.0,0.0,0.0,0.0,0.0,0,
172700,1788.6,106.7,0.0,0.0,0.0,0.0,0.0,0,
172800,1788.7,111.0,0.0,0.0,0.0,0.0,0.0,0,
172900,1785.5,104.3,0.0,0.0,0.0,0.0,0.0,0,
173000,1788.2,106.5,0.0,0.0,0.0,0.0,0.0,0,
173100,1785.3,113.2,0.0,0.0,0.0,0.0,0.0,0,
173200,1783.4,106.9,0.0,0.0,0.0,0.0,0.0,0,
173300,1787.8,106.6,0.0,0.0,0.0,0.0,0.0,0,
173400,1790.5,104.9,0.0,0.0,0.0,0.0,0.0,0,
173500,1784.6,103.3,0.0,0.0,0.0,0.0,0.0,0,
173600,1783.7,109.7,0.0,0.0,0.0,0.0,0.0,0,
173700,1789.7,105.8,0.0,0.0,0.0,0.0,0.0,0,
173800,1783.4,107.5,0.0,0.0,0.0,0.0,0.0,0,
173900,1786.7,108.6,0.0,0.0,0.0,0.0,0.0,0,
174000,1790.1,111.5,0.0,0.0,0.0,0.0,0.0,0,
174100,1779.6,108.4,0.0,0.0,0.0,0.0,0.0,0,
174200,1787.1,109.1,0.0,0.0,0.0,0.0,0.0,0,
174300,1788.0,106.7,0.0,0.0,0.0,0.0,0.0,0,
174400,1783.4,107.7,0.0,0.0,0.0,0.0,0.0,0,
174500,1786.7,109.5,0.0,0.0,0.0,0.0,0.0,0,
174600,1785.0,108.1,0.0,0.0,0.0,0.0,0.0,0,
174700,1780.3,107.0,0.0,0.0,0.0,0.0,0.0,0,
174800,1787.7,109.5,0.0,0.0,0.0,0.0,0.0,0,
174900,1787.5,107.5,0.0,0.0,0.0,0.0,0.0,0,
175000,1782.5,107.9,0.0,0.0,0.0,0.0,0.0,0,
175100,1786.1,110.2,0.0,0.0,0.0,0.0,0.0,0,
175200,1783.4,114.1,0.0,0.0,0.0,0.0,0.0,0,
175300,1778.2,111.9,0.0,0.0,0.0,0.0,0.0,0,
175400,1784.3,111.7,0.0,0.0,0.0,0.0,0.0,0,
175500,1785.4,116.1,0.0,0.0,0.0,0.0,0.0,0,
175600,1778.3,108.6,0.0,0.0,0.0,0.0,0.0,0,
175700,1785.6,111.4,0.0,0.0,0.0,0.0,0.0,0,
175800,1785.5,109.5,0.0,0.0,0.0,0.0,0.0,0,
175900,1781.2,109.8,0.0,0.0,0.0,0.0,0.0,0,
176000,1783.8,111.8,0.0,0.0,0.0,0.0,0.0,0,
176100,1785.4,108.2,0.0,0.0,0.0,0.0,0.0,0,
176200,1781.1,107.4,0.0,0.0,0.0,0.0,0.0,0,
176300,1786.2,110.7,0.0,0.0,0.0,0.0,0.0,0,
176400,1783.0,114.0,0.0,0.0,0.0,0.0,0.0,0,
176500,1781.0,108.8,0.0,0.0,0.0,0.0,0.0,0,
176600,1782.4,115.8,0.0,0.0,0.0,0.0,0.0,0,
176700,1786.2,108.1,0.0,0.0,0.0,0.0,0.0,0,
176800,1780.8,103.8,0.0,0.0,0.0,0.0,0.0,0,
176900,1781.2,113.3,0.0,0.0,0.0,0.0,0.0,0,
177000,1785.6,108.3,0.0,0.0,0.0,0.0,0.0,0,
177100,1781.5,108.6,0.0,0.0,0.0,0.0,0.0,0,
177200,1784.4,111.1,0.0,0.0,0.0,0.0,0.0,0,
177300,1787.1,114.4,0.0,0.0,0.0,0.0,0.0,0,
177400,1775.4,111.6,0.0,0.0,0.0,0.0,0.0,0,
177500,1783.4,111.1,0.0,0.0,0.0,0.0,0.0,0,
177600,1785.0,111.1,0.0,0.0,0.0,0.0,0.0,0,
177700,1772.6,126.7,0.0,0.0,0.0,0.0,0.0,0,
177800,1774.1,117.7,0.0,0.0,0.0,0.0,0.0,0,
177900,1783.5,110.2,0.0,0.0,0.0,0.0,0.0,0,
178000,1775.4,119.9,0.0,0.0,0.0,0.0,0.0,0,
178100,1775.5,117.2,0.0,0.0,0.0,0.0,0.0,0,
178200,1783.4,110.6,0.0,0.0,0.0,0.0,0.0,0,
178300,1778.1,109.4,0.0,0.0,0.0,0.0,0.0,0,
178400,1778.9,115.8,0.0,0.0,0.0,0.0,0.0,0,
178500,1783.0,117.9,0.0,0.0,0.0,0.0,0.0,0,
178600,1771.8,117.9,0.0,0.0,0.0,0.0,0.0,0,
178700,1779.4,114.6,0.0,0.0,0.0,0.0,0.0,0,
178800,1781.5,116.8,0.0,0.0,0.0,0.0,0.0,0,
178900,1778.7,111.7,0.0,0.0,0.0,0.0,0.0,0,
179000,1782.3,113.1,0.0,0.0,0.0,0.0,0.0,0,
179100,1784.2,110.0,0.0,0.0,0.0,0.0,0.0,0,
179200,1778.3,109.2,0.0,0.0,0.0,0.0,0.0,0,
179300,1783.0,114.0,0.0,0.0,0.0,0.0,0.0,0,
179400,1781.7,112.8,0.0,0.0,0.0,0.0,0.0,0,
179500,1777.6,114.6,0.0,0.0,0.0,0.0,0.0,0,
179600,1778.8,116.0,0.0,0.0,0.0,0.0,0.0,0,
179700,1783.0,110.8,0.0,0.0,0.0,0.0,0.0,0,
179800,1777.6,110.0,0.0,0.0,0.0,0.0,0.0,0,
179900,1783.5,113.2,0.0,0.0,0.0,0.0,0.0,0,
180000,1783.4,111.0,0.0,0.0,0.0,0.0,0.0,0,
180100,1781.6,110.0,0.0,0.0,0.0,0.0,0.0,0,
180200,1784.3,104.7,0.0,0.0,0.0,0.0,0.0,0,
180300,1776.8,118.7,0.0,0.0,0.0,0.0,0.0,0,
180400,1772.2,121.0,0.0,0.0,0.0,0.0,0.0,0,
180500,1777.7,116.4,0.0,0.0,0.0,0.0,0.0,0,
180600,1781.5,112.5,0.0,0.0,0.0,0.0,0.0,0,
180700,1776.8,110.8,0.0,0.0,0.0,0.0,0.0,0,
180800,1781.1,117.1,0.0,0.0,0.0,0.0,0.0,0,
180900,1781.1,113.2,0.0,0.0,0.0,0.0,0.0,0,
181000,1776.0,111.5,0.0,0.0,0.0,0.0,0.0,0,
181100,1780.8,115.7,0.0,0.0,0.0,0.0,0.0,0,
181200,1781.2,112.7,0.0,0.0,0.0,0.0,0.0,0,
181300,1776.5,111.7,0.0,0.0,0.0,0.0,0.0,0,
181400,1777.3,116.4,0.0,0.0,0.0,0.0,0.0,0,
181500,1781.1,113.7,0.0,0.0,0.0,0.0,0.0,0,
181600,1772.0,115.5,0.0,0.0,0.0,0.0,0.0,0,
181700,1778.6,116.7,0.0,0.0,0.0,0.0,0.0,0,
181800,1780.7,119.0,0.0,0.0,0.0,0.0,0.0,0,
181900,1774.4,121.9,0.0,0.0,0.0,0.0,0.0,0,
182000,1776.3,117.8,0.0,0.0,0.0,0.0,0.0,0,
182100,1780.0,119.4,0.0,0.0,0.0,0.0,0.0,0,
182200,1778.3,112.0,0.0,0.0,0.0,0.0,0.0,0,
182300,1770.4,118.6,0.0,0.0,0.0,0.0,0.0,0,
182400,1776.9,126.3,0.0,0.0,0.0,0.0,0.0,0,
182500,1766.6,118.5,0.0,0.0,0.0,0.0,0.0,0,
182600,1772.9,125.5,0.0,0.0,0.0,0.0,0.0,0,
182700,1777.6,116.6,0.0,0.0,0.0,0.0,0.0,0,
182800,1777.5,122.6,0.0,0.0,0.0,0.0,0.0,0,
182900,1773.0,119.9,0.0,0.0,0.0,0.0,0.0,0,
183000,1779.0,116.2,0.0,0.0,0.0,0.0,0.0,0,
183100,1774.7,115.8,0.0,0.0,0.0,0.0,0.0,0,
183200,1776.1,118.3,0.0,0.0,0.0,0.0,0.0,0,
183300,1777.9,120.9,0.0,0.0,0.0,0.0,0.0,0,
183400,1765.0,122.0,0.0,0.0,0.0,0.0,0.0,0,
183500,1774.9,121.0,0.0,0.0,0.0,0.0,0.0,0,
183600,1775.9,115.0,0.0,0.0,0.0,0.0,0.0,0,
183700,1769.2,120.1,0.0,0.0,0.0,0.0,0.0,0,
183800,1774.6,121.1,0.0,0.0,0.0,0.0,0.0,0,
183900,1773.0,124.4,0.0,0.0,0.0,0.0,0.0,0,
184000,1770.1,120.5,0.0,0.0,0.0,0.0,0.0,0,
184100,1773.2,121.0,0.0,0.0,0.0,0.0,0.0,0,
184200,1774.5,123.5,0.0,0.0,0.0,0.0,0.0,0,
184300,1771.3,125.6,0.0,0.0,0.0,0.0,0.0,0,
184400,1772.0,122.1,0.0,0.0,0.0,0.0,0.0,0,
184500,1775.8,120.2,0.0,0.0,0.0,0.0,0.0,0,
184600,1770.4,119.0,0.0,0.0,0.0,0.0,0.0,0,
184700,1768.1,124.2,0.0,0.0,0.0,0.0,0.0,0,
184800,1774.2,121.7,0.0,0.0,0.0,0.0,0.0,0,
184900,1768.5,122.4,0.0,0.0,0.0,0.0,0.0,0,
185000,1772.1,123.4,0.0,0.0,0.0,0.0,0.0,0,
185100,1774.1,121.5,0.0,0.0,0.0,0.0,0.0,0,
185200,1771.9,114.0,0.0,0.0,0.0,0.0,0.0,0,
185300,1766.7,131.5,0.0,0.0,0.0,0.0,0.0,0,
185400,1771.8,122.9,0.0,0.0,0.0,0.0,0.0,0,
185500,1764.2,123.7,0.0,0.0,0.0,0.0,0.0,0,
185600,1772.2,124.6,0.0,0.0,0.0,0.0,0.0,0,
185700,1772.9,122.5,0.0,0.0,0.0,0.0,0.0,0,
185800,1766.7,123.0,0.0,0.0,0.0,0.0,0.0,0,
185900,1771.5,124.6,0.0,0.0,0.0,0.0,0.0,0,
186000,1768.0,124.8,0.0,0.0,0.0,0.0,0.0,0,
186100,1762.1,135.1,0.0,0.0,0.0,0.0,0.0,0,
186200,1762.0,129.8,0.0,0.0,0.0,0.0,0.0,0,
186300,1770.3,124.5,0.0,0.0,0.0,0.0,0.0,0,
186400,1765.9,124.4,0.0,0.0,0.0,0.0,0.0,0,
186500,1769.9,125.8,0.0,0.0,0.0,0.0,0.0,0,
186600,1766.8,128.7,0.0,0.0,0.0,0.0,0.0,0,
186700,1763.6,125.5,0.0,0.0,0.0,0.0,0.0,0,
186800,1770.8,126.4,0.0,0.0,0.0,0.0,0.0,0,
186900,1770.5,124.9,0.0,0.0,0.0,0.0,0.0,0,
187000,1764.1,126.1,0.0,0.0,0.0,0.0,0.0,0,
187100,1770.3,126.9,0.0,0.0,0.0,0.0,0.0,0,
187200,1770.1,124.7,0.0,0.0,0.0,0.0,0.0,0,
187300,1765.3,124.7,0.0,0.0,0.0,0.0,0.0,0,
187400,1768.3,127.5,0.0,0.0,0.0,0.0,0.0,0,
187500,1770.1,125.0,0.0,0.0,0.0,0.0,0.0,0,
187600,1759.7,128.0,0.0,0.0,0.0,0.0,0.0,0,
187700,1769.0,128.0,0.0,0.0,0.0,0.0,0.0,0,
187800,1769.3,125.9,0.0,0.0,0.0,0.0,0.0,0,
187900,1763.8,125.9,0.0,0.0,0.0,0.0,0.0,0,
188000,1768.9,127.9,0.0,0.0,0.0,0.0,0.0,0,
188100,1765.6,127.4,0.0,0.0,0.0,0.0,0.0,0,
188200,1764.2,126.6,0.0,0.0,0.0,0.0,0.0,0,
188300,1767.8,127.7,0.0,0.0,0.0,0.0,0.0,0,
188400,1769.6,128.3,0.0,0.0,0.0,0.0,0.0,0,
188500,1765.0,124.1,0.0,0.0,0.0,0.0,0.0,0,
188600,1766.3,129.3,0.0,0.0,0.0,0.0,0.0,0,
188700,1769.4,125.1,0.0,0.0,0.0,0.0,0.0,0,
188800,1762.3,130.1,0.0,0.0,0.0,0.0,0.0,0,
188900,1765.5,130.1,0.0,0.0,0.0,0.0,0.0,0,
189000,1769.5,124.5,0.0,0.0,0.0,0.0,0.0,0,
189100,1763.5,124.1,0.0,0.0,0.0,0.0,0.0,0,
189200,1771.0,123.3,0.0,0.0,0.0,0.0,0.0,0,
189300,1762.9,127.4,0.0,0.0,0.0,0.0,0.0,0,
189400,1763.1,125.1,0.0,0.0,0.0,0.0,0.0,0,
189500,1767.3,128.3,0.0,0.0,0.0,0.0,0.0,0,
189600,1765.8,130.2,0.0,0.0,0.0,0.0,0.0,0,
189700,1763.2,126.6,0.0,0.0,0.0,0.0,0.0,0,
189800,1766.6,129.5,0.0,0.0,0.0,0.0,0.0,0,
189900,1769.2,124.7,0.0,0.0,0.0,0.0,0.0,0,
190000,1763.6,126.3,0.0,0.0,0.0,0.0,0.0,0,
190100,1766.9,129.3,0.0,0.0,0.0,0.0,0.0,0,
190200,1768.0,126.0,0.0,0.0,0.0,0.0,0.0,0,
190300,1763.2,126.8,0.0,0.0,0.0,0.0,0.0,0,
190400,1769.2,125.4,0.0,0.0,0.0,0.0,0.0,0,
190500,1760.7,128.6,0.0,0.0,0.0,0.0,0.0,0,
190600,1762.8,126.8,0.0,0.0,0.0,0.0,0.0,0,
190700,1761.5,131.7,0.0,0.0,0.0,0.0,0.0,0,
190800,1767.3,126.3,0.0,0.0,0.0,0.0,0.0,0,
190900,1763.6,126.9,0.0,0.0,0.0,0.0,0.0,0,
191000,1765.9,129.6,0.0,0.0,0.0,0.0,0.0,0,
191100,1767.2,132.9,0.0,0.0,0.0,0.0,0.0,0,
191200,1759.0,128.8,0.0,0.0,0.0,0.0,0.0,0,
191300,1767.3,127.4,0.0,0.0,0.0,0.0,0.0,0,
191400,1758.8,130.6,0.0,0.0,0.0,0.0,0.0,0,
191500,1761.5,128.5,0.0,0.0,0.0,0.0,0.0,0,
191600,1763.9,131.0,0.0,0.0,0.0,0.0,0.0,0,
191700,1766.5,127.6,0.0,0.0,0.0,0.0,0.0,0,
191800,1756.9,130.7,0.0,0.0,0.0,0.0,0.0,0,
191900,1761.2,137.5,0.0,0.0,0.0,0.0,0.0,0,
192000,1761.5,137.7,0.0,0.0,0.0,0.0,0.0,0,
192100,1760.4,129.8,0.0,0.0,0.0,0.0,0.0,0,
192200,1761.2,135.9,0.0,0.0,0.0,0.0,0.0,0,
192300,1760.6,131.5,0.0,0.0,0.0,0.0,0.0,0,
192400,1759.9,130.3,0.0,0.0,0.0,0.0,0.0,0,
192500,1762.5,132.1,0.0,0.0,0.0,0.0,0.0,0,
192600,1765.0,129.7,0.0,0.0,0.0,0.0,0.0,0,
192700,1755.5,132.4,0.0,0.0,0.0,0.0,0.0,0,
192800,1766.6,133.6,0.0,0.0,0.0,0.0,0.0,0,
192900,1756.3,143.3,0.0,0.0,0.0,0.0,0.0,0,
193000,1750.4,132.6,0.0,0.0,0.0,0.0,0.0,0,
193100,1759.0,138.0,0.0,0.0,0.0,0.0,0.0,0,
193200,1759.0,133.1,0.0,0.0,0.0,0.0,0.0,0,
193300,1753.3,134.8,0.0,0.0,0.0,0.0,0.0,0,
193400,1754.9,137.9,0.0,0.0,0.0,0.0,0.0,0,
193500,1762.4,132.1,0.0,0.0,0.0,0.0,0.0,0,
193600,1758.4,132.1,0.0,0.0,0.0,0.0,0.0,0,
193700,1760.3,137.4,0.0,0.0,0.0,0.0,0.0,0,
193800,1758.3,134.0,0.0,0.0,0.0,0.0,0.0,0,
193900,1754.3,136.8,0.0,0.0,0.0,0.0,0.0,0,
194000,1752.2,143.6,0.0,0.0,0.0,0.0,0.0,0,
194100,1760.0,134.3,0.0,0.0,0.0,0.0,0.0,0,
194200,1757.2,133.5,0.0,0.0,0.0,0.0,0.0,0,
194300,1759.1,134.9,0.0,0.0,0.0,0.0,0.0,0,
194400,1762.4,132.5,0.0,0.0,0.0,0.0,0.0,0,
194500,1753.0,135.6,0.0,0.0,0.0,0.0,0.0,0,
194600,1759.1,136.1,0.0,0.0,0.0,0.0,0.0,0,
194700,1761.1,133.3,0.0,0.0,0.0,0.0,0.0,0,
194800,1755.5,141.5,0.0,0.0,0.0,0.0,0.0,0,
194900,1756.9,137.4,0.0,0.0,0.0,0.0,0.0,0,
195000,1757.5,138.0,0.0,0.0,0.0,0.0,0.0,0,
195100,1755.8,135.0,0.0,0.0,0.0,0.0,0.0,0,
195200,1759.0,136.0,0.0,0.0,0.0,0.0,0.0,0,
195300,1757.3,136.4,0.0,0.0,0.0,0.0,0.0,0,
195400,1755.5,134.3,0.0,0.0,0.0,0.0,0.0,0,
195500,1758.6,136.5,0.0,0.0,0.0,0.0,0.0,0,
195600,1756.3,133.4,0.0,0.0,0.0,0.0,0.0,0,
195700,1752.3,137.7,0.0,0.0,0.0,0.0,0.0,0,
195800,1755.6,141.4,0.0,0.0,0.0,0.0,0.0,0,
195900,1757.2,141.3,0.0,0.0,0.0,0.0,0.0,0,
196000,1750.2,137.7,0.0,0.0,0.0,0.0,0.0,0,
196100,1752.8,147.3,0.0,0.0,0.0,0.0,0.0,0,
196200,1751.3,142.9,0.0,0.0,0.0,0.0,0.0,0,
196300,1748.1,146.4,0.0,0.0,0.0,0.0,0.0,0,
196400,1752.5,143.4,0.0,0.0,0.0,0.0,0.0,0,
196500,1754.7,139.9,0.0,0.0,0.0,0.0,0.0,0,
196600,1747.9,141.6,0.0,0.0,0.0,0.0,0.0,0,
196700,1753.1,145.1,0.0,0.0,0.0,0.0,0.0,0,
196800,1754.4,143.3,0.0,0.0,0.0,0.0,0.0,0,
196900,1745.7,140.6,0.0,0.0,0.0,0.0,0.0,0,
197000,1752.9,142.9,0.0,0.0,0.0,0.0,0.0,0,
197100,1748.6,144.4,0.0,0.0,0.0,0.0,0.0,0,
197200,1744.4,144.0,0.0,0.0,0.0,0.0,0.0,0,
197300,1752.6,144.1,0.0,0.0,0.0,0.0,0.0,0,
197400,1749.6,144.1,0.0,0.0,0.0,0.0,0.0,0,
197500,1748.4,141.8,0.0,0.0,0.0,0.0,0.0,0,
197600,1751.9,143.7,0.0,0.0,0.0,0.0,0.0,0,
197700,1753.9,141.9,0.0,0.0,0.0,0.0,0.0,0,
197800,1747.4,141.3,0.0,0.0,0.0,0.0,0.0,0,
197900,1752.5,143.5,0.0,0.0,0.0,0.0,0.0,0,
198000,1754.3,145.1,0.0,0.0,0.0,0.0,0.0,0,
198100,1746.5,141.4,0.0,0.0,0.0,0.0,0.0,0,
198200,1752.5,144.8,0.0,0.0,0.0,0.0,0.0,0,
198300,1752.9,142.1,0.0,0.0,0.0,0.0,0.0,0,
198400,1741.3,147.2,0.0,0.0,0.0,0.0,0.0,0,
198500,1748.6,149.5,0.0,0.0,0.0,0.0,0.0,0,
198600,1747.1,152.0,0.0,0.0,0.0,0.0,0.0,0,
198700,1740.5,144.8,0.0,0.0,0.0,0.0,0.0,0,
198800,1751.0,145.8,0.0,0.0,0.0,0.0,0.0,0,
198900,1751.2,137.8,0.0,0.0,0.0,0.0,0.0,0,
199000,1747.2,146.2,0.0,0.0,0.0,0.0,0.0,0,
199100,1748.8,147.0,0.0,0.0,0.0,0.0,0.0,0,
199200,1751.4,146.5,0.0,0.0,0.0,0.0,0.0,0,
199300,1742.7,148.2,0.0,0.0,0.0,0.0,0.0,0,
199400,1748.5,146.7,0.0,0.0,0.0,0.0,0.0,0,
199500,1747.9,149.9,0.0,0.0,0.0,0.0,0.0,0,
199600,1740.7,149.8,0.0,0.0,0.0,0.0,0.0,0,
199700,1751.8,148.3,0.0,0.0,0.0,0.0,0.0,0,
199800,1737.1,152.0,0.0,0.0,0.0,0.0,0.0,0,
199900,1750.5,140.1,0.0,0.0,0.0,0.0,0.0,0,
200000,1740.3,154.1,0.0,0.0,0.0,0.0,0.0,0,
200100,1744.4,148.2,0.0,0.0,0.0,0.0,0.0,0,
200200,1743.1,146.3,0.0,0.0,0.0,0.0,0.0,0,
200300,1742.1,151.2,0.0,0.0,0.0,0.0,0.0,0,
200400,1748.5,152.7,0.0,0.0,0.0,0.0,0.0,0,
200500,1737.2,155.2,0.0,0.0,0.0,0.0,0.0,0,
200600,1744.8,150.2,0.0,0.0,0.0,0.0,0.0,0,
200700,1744.6,152.4,0.0,0.0,0.0,0.0,0.0,0,
200800,1740.7,153.8,0.0,0.0,0.0,0.0,0.0,0,
200900,1745.2,149.9,0.0,0.0,0.0,0.0,0.0,0,
201000,1747.9,147.7,0.0,0.0,0.0,0.0,0.0,0,
201100,1736.7,156.2,0.0,0.0,0.0,0.0,0.0,0,
201200,1737.0,157.9,0.0,0.0,0.0,0.0,0.0,0,
201300,1747.1,148.1,0.0,0.0,0.0,0.0,0.0,0,
201400,1742.2,145.2,0.0,0.0,0.0,0.0,0.0,0,
201500,1747.4,149.9,0.0,0.0,0.0,0.0,0.0,0,
201600,1748.5,146.3,0.0,0.0,0.0,0.0,0.0,0,
201700,1740.2,150.8,0.0,0.0,0.0,0.0,0.0,0,
201800,1743.3,152.3,0.0,0.0,0.0,0.0,0.0,0,
201900,1747.1,147.0,0.0,0.0,0.0,0.0,0.0,0,
202000,1741.6,146.3,0.0,0.0,0.0,0.0,0.0,0,
202100,1745.8,153.1,0.0,0.0,0.0,0.0,0.0,0,
202200,1738.8,151.1,0.0,0.0,0.0,0.0,0.0,0,
202300,1740.2,147.3,0.0,0.0,0.0,0.0,0.0,0,
202400,1744.6,151.7,0.0,0.0,0.0,0.0,0.0,0,
202500,1749.7,150.3,0.0,0.0,0.0,0.0,0.0,0,
202600,1738.1,147.1,0.0,0.0,0.0,0.0,0.0,0,
202700,1740.4,153.5,0.0,0.0,0.0,0.0,0.0,0,
202800,1746.1,148.2,0.0,0.0,0.0,0.0,0.0,0,
202900,1737.3,153.4,0.0,0.0,0.0,0.0,0.0,0,
203000,1742.7,152.1,0.0,0.0,0.0,0.0,0.0,0,
203100,1741.7,150.7,0.0,0.0,0.0,0.0,0.0,0,
203200,1740.0,147.5,0.0,0.0,0.0,0.0,0.0,0,
203300,1744.5,151.3,0.0,0.0,0.0,0.0,0.0,0,
203400,1742.3,153.4,0.0,0.0,0.0,0.0,0.0,0,
203500,1739.2,148.8,0.0,0.0,0.0,0.0,0.0,0,
203600,1746.5,153.8,0.0,0.0,0.0,0.0,0.0,0,
203700,1741.2,153.5,0.0,0.0,0.0,0.0,0.0,0,
203800,1731.8,155.2,0.0,0.0,0.0,0.0,0.0,0,
203900,1739.2,155.2,0.0,0.0,0.0,0.0,0.0,0,
204000,1743.9,150.7,0.0,0.0,0.0,0.0,0.0,0,
204100,1740.5,152.5,0.0,0.0,0.0,0.0,0.0,0,
204200,1738.3,154.3,0.0,0.0,0.0,0.0,0.0,0,
204300,1744.5,153.2,0.0,0.0,0.0,0.0,0.0,0,
204400,1739.2,149.0,0.0,0.0,0.0,0.0,0.0,0,
204500,1745.5,148.0,0.0,0.0,0.0,0.0,0.0,0,
204600,1742.3,151.0,0.0,0.0,0.0,0.0,0.0,0,
204700,1739.1,149.4,0.0,0.0,0.0,0.0,0.0,0,
204800,1741.9,152.8,0.0,0.0,0.0,0.0,0.0,0,
204900,1743.9,156.6,0.0,0.0,0.0,0.0,0.0,0,
205000,1736.2,152.1,0.0,0.0,0.0,0.0,0.0,0,
205100,1740.4,154.5,0.0,0.0,0.0,0.0,0.0,0,
205200,1743.4,151.3,0.0,0.0,0.0,0.0,0.0,0,
205300,1738.2,155.5,0.0,0.0,0.0,0.0,0.0,0,
205400,1741.4,151.4,0.0,0.0,0.0,0.0,0.0,0,
205500,1738.8,153.5,0.0,0.0,0.0,0.0,0.0,0,
205600,1734.7,156.2,0.0,0.0,0.0,0.0,0.0,0,
205700,1742.0,151.3,0.0,0.0,0.0,0.0,0.0,0,
205800,1738.5,153.2,0.0,0.0,0.0,0.0,0.0,0,
205900,1736.3,151.4,0.0,0.0,0.0,0.0,0.0,0,
206000,1743.5,149.8,0.0,0.0,0.0,0.0,0.0,0,
206100,1732.2,159.3,0.0,0.0,0.0,0.0,0.0,0,
206200,1735.4,155.9,0.0,0.0,0.0,0.0,0.0,0,
206300,1740.4,152.1,0.0,0.0,0.0,0.0,0.0,0,
206400,1738.3,154.6,0.0,0.0,0.0,0.0,0.0,0,
206500,1735.2,153.0,0.0,0.0,0.0,0.0,0.0,0,
206600,1741.4,152.8,0.0,0.0,0.0,0.0,0.0,0,
206700,1732.6,152.2,0.0,0.0,0.0,0.0,0.0,0,
206800,1734.9,155.9,0.0,0.0,0.0,0.0,0.0,0,
206900,1739.9,154.0,0.0,0.0,0.0,0.0,0.0,0,
207000,1729.2,163.0,0.0,0.0,0.0,0.0,0.0,0,
207100,1732.0,158.7,0.0,0.0,0.0,0.0,0.0,0,
207200,1734.9,156.6,0.0,0.0,0.0,0.0,0.0,0,
207300,1731.0,158.9,0.0,0.0,0.0,0.0,0.0,0,
207400,1729.4,161.1,0.0,0.0,0.0,0.0,0.0,0,
207500,1737.9,155.4,0.0,0.0,0.0,0.0,0.0,0,
207600,1734.5,157.3,0.0,0.0,0.0,0.0,0.0,0,
207700,1729.8,161.1,0.0,0.0,0.0,0.0,0.0,0,
207800,1736.9,155.5,0.0,0.0,0.0,0.0,0.0,0,
207900,1735.0,157.3,0.0,0.0,0.0,0.0,0.0,0,
208000,1727.4,161.8,0.0,0.0,0.0,0.0,0.0,0,
208100,1735.6,160.2,0.0,0.0,0.0,0.0,0.0,0,
208200,1726.4,164.0,0.0,0.0,0.0,0.0,0.0,0,
208300,1731.0,165.6,0.0,0.0,0.0,0.0,0.0,0,
208400,1730.4,160.9,0.0,0.0,0.0,0.0,0.0,0,
208500,1730.7,167.0,0.0,0.0,0.0,0.0,0.0,0,
208600,1725.3,163.3,0.0,0.0,0.0,0.0,0.0,0,
208700,1734.2,159.8,0.0,0.0,0.0,0.0,0.0,0,
208800,1731.0,161.8,0.0,0.0,0.0,0.0,0.0,0,
208900,1728.1,162.1,0.0,0.0,0.0,0.0,0.0,0,
209000,1734.4,159.0,0.0,0.0,0.0,0.0,0.0,0,
209100,1728.0,167.5,0.0,0.0,0.0,0.0,0.0,0,
209200,1726.4,164.2,0.0,0.0,0.0,0.0,0.0,0,
209300,1728.1,164.9,0.0,0.0,0.0,0.0,0.0,0,
209400,1719.4,170.1,0.0,0.0,0.0,0.0,0.0,0,
209500,1721.5,167.1,0.0,0.0,0.0,0.0,0.0,0,
209600,1729.9,163.3,0.0,0.0,0.0,0.0,0.0,0,
209700,1723.8,166.9,0.0,0.0,0.0,0.0,0.0,0,
209800,1721.3,167.4,0.0,0.0,0.0,0.0,0.0,0,
209900,1730.8,162.3,0.0,0.0,0.0,0.0,0.0,0,
210000,1724.6,171.4,0.0,0.0,0.0,0.0,0.0,0,
210100,1724.1,166.4,0.0,0.0,0.0,0.0,0.0,0,
210200,1731.4,162.4,0.0,0.0,0.0,0.0,0.0,0,
210300,1727.4,165.8,0.0,0.0,0.0,0.0,0.0,0,
210400,1724.7,166.0,0.0,0.0,0.0,0.0,0.0,0,
210500,1730.3,163.2,0.0,0.0,0.0,0.0,0.0,0,
210600,1727.9,165.5,0.0,0.0,0.0,0.0,0.0,0,
210700,1720.9,167.8,0.0,0.0,0.0,0.0,0.0,0,
210800,1729.1,164.2,0.0,0.0,0.0,0.0,0.0,0,
210900,1726.2,167.1,0.0,0.0,0.0,0.0,0.0,0,
211000,1723.4,167.4,0.0,0.0,0.0,0.0,0.0,0,
211100,1730.0,163.8,0.0,0.0,0.0,0.0,0.0,0,
211200,1726.4,166.7,0.0,0.0,0.0,0.0,0.0,0,
211300,1723.0,166.2,0.0,0.0,0.0,0.0,0.0,0,
211400,1728.4,164.6,0.0,0.0,0.0,0.0,0.0,0,
211500,1726.2,168.3,0.0,0.0,0.0,0.0,0.0,0,
211600,1722.1,167.8,0.0,0.0,0.0,0.0,0.0,0,
211700,1724.2,167.2,0.0,0.0,0.0,0.0,0.0,0,
211800,1721.1,173.9,0.0,0.0,0.0,0.0,0.0,0,
211900,1717.4,171.1,0.0,0.0,0.0,0.0,0.0,0,
212000,1726.9,166.7,0.0,0.0,0.0,0.0,0.0,0,
212100,1724.2,169.0,0.0,0.0,0.0,0.0,0.0,0,
212200,1721.0,167.9,0.0,0.0,0.0,0.0,0.0,0,
212300,1727.5,166.1,0.0,0.0,0.0,0.0,0.0,0,
212400,1724.0,169.8,0.0,0.0,0.0,0.0,0.0,0,
212500,1720.2,168.6,0.0,0.0,0.0,0.0,0.0,0,
212600,1726.4,167.2,0.0,0.0,0.0,0.0,0.0,0,
212700,1722.5,170.5,0.0,0.0,0.0,0.0,0.0,0,
212800,1720.6,170.1,0.0,0.0,0.0,0.0,0.0,0,
212900,1727.3,166.3,0.0,0.0,0.0,0.0,0.0,0,
213000,1718.8,170.8,0.0,0.0,0.0,0.0,0.0,0,
213100,1720.6,169.6,0.0,0.0,0.0,0.0,0.0,0,
213200,1727.0,169.1,0.0,0.0,0.0,0.0,0.0,0,
213300,1722.3,176.9,0.0,0.0,0.0,0.0,0.0,0,
213400,1716.0,171.2,0.0,0.0,0.0,0.0,0.0,0,
213500,1725.2,168.1,0.0,0.0,0.0,0.0,0.0,0,
213600,1721.9,169.9,0.0,0.0,0.0,0.0,0.0,0,
213700,1723.1,177.0,0.0,0.0,0.0,0.0,0.0,0,
213800,1722.3,169.5,0.0,0.0,0.0,0.0,0.0,0,
213900,1721.3,170.4,0.0,0.0,0.0,0.0,0.0,0,
214000,1719.6,170.5,0.0,0.0,0.0,0.0,0.0,0,
214100,1724.5,168.7,0.0,0.0,0.0,0.0,0.0,0,
214200,1720.9,171.5,0.0,0.0,0.0,0.0,0.0,0,
214300,1719.1,171.2,0.0,0.0,0.0,0.0,0.0,0,
214400,1724.0,169.1,0.0,0.0,0.0,0.0,0.0,0,
214500,1716.4,174.6,0.0,0.0,0.0,0.0,0.0,0,
214600,1719.0,169.9,0.0,0.0,0.0,0.0,0.0,0,
214700,1723.2,169.9,0.0,0.0,0.0,0.0,0.0,0,
214800,1720.5,171.6,0.0,0.0,0.0,0.0,0.0,0,
214900,1718.3,171.7,0.0,0.0,0.0,0.0,0.0,0,
215000,1719.1,172.4,0.0,0.0,0.0,0.0,0.0,0,
215100,1719.5,172.9,0.0,0.0,0.0,0.0,0.0,0,
215200,1718.8,171.4,0.0,0.0,0.0,0.0,0.0,0,
215300,1719.4,172.3,0.0,0.0,0.0,0.0,0.0,0,
215400,1719.8,180.5,0.0,0.0,0.0,0.0,0.0,0,
215500,1710.7,175.4,0.0,0.0,0.0,0.0,0.0,0,
215600,1716.6,174.5,0.0,0.0,0.0,0.0,0.0,0,
215700,1718.2,174.6,0.0,0.0,0.0,0.0,0.0,0,
215800,1713.1,175.1,0.0,0.0,0.0,0.0,0.0,0,
215900,1720.8,172.6,0.0,0.0,0.0,0.0,0.0,0,
216000,1713.8,182.8,0.0,0.0,0.0,0.0,0.0,0,
216100,1714.4,174.1,0.0,0.0,0.0,0.0,0.0,0,
216200,1719.8,173.3,0.0,0.0,0.0,0.0,0.0,0,
216300,1716.5,178.5,0.0,0.0,0.0,0.0,0.0,0,
216400,1711.7,174.6,0.0,0.0,0.0,0.0,0.0,0,
216500,1718.2,174.1,0.0,0.0,0.0,0.0,0.0,0,
216600,1709.6,180.1,0.0,0.0,0.0,0.0,0.0,0,
216700,1710.9,181.3,0.0,0.0,0.0,0.0,0.0,0,
216800,1713.3,178.6,0.0,0.0,0.0,0.0,0.0,0,
216900,1713.8,178.1,0.0,0.0,0.0,0.0,0.0,0,
217000,1714.8,174.1,0.0,0.0,0.0,0.0,0.0,0,
217100,1718.9,174.8,0.0,0.0,0.0,0.0,0.0,0,
217200,1711.2,178.6,0.0,0.0,0.0,0.0,0.0,0,
217300,1713.7,175.2,0.0,0.0,0.0,0.0,0.0,0,
217400,1718.9,173.7,0.0,0.0,0.0,0.0,0.0,0,
217500,1711.6,179.8,0.0,0.0,0.0,0.0,0.0,0,
217600,1711.7,176.7,0.0,0.0,0.0,0.0,0.0,0,
217700,1717.6,176.4,0.0,0.0,0.0,0.0,0.0,0,
217800,1710.4,180.6,0.0,0.0,0.0,0.0,0.0,0,
217900,1708.3,180.1,0.0,0.0,0.0,0.0,0.0,0,
218000,1716.2,177.3,0.0,0.0,0.0,0.0,0.0,0,
218100,1714.2,187.1,0.0,0.0,0.0,0.0,0.0,0,
218200,1707.2,179.0,0.0,0.0,0.0,0.0,0.0,0,
218300,1713.3,178.9,0.0,0.0,0.0,0.0,0.0,0,
218400,1712.5,180.4,0.0,0.0,0.0,0.0,0.0,0,
218500,1710.6,177.9,0.0,0.0,0.0,0.0,0.0,0,
218600,1714.5,179.2,0.0,0.0,0.0,0.0,0.0,0,
218700,1711.7,180.8,0.0,0.0,0.0,0.0,0.0,0,
218800,1710.0,178.5,0.0,0.0,0.0,0.0,0.0,0,
218900,1715.2,178.6,0.0,0.0,0.0,0.0,0.0,0,
219000,1711.8,181.1,0.0,0.0,0.0,0.0,0.0,0,
219100,1708.9,179.9,0.0,0.0,0.0,0.0,0.0,0,
219200,1716.1,178.8,0.0,0.0,0.0,0.0,0.0,0,
219300,1707.4,184.3,0.0,0.0,0.0,0.0,0.0,0,
219400,1703.9,193.9,0.0,0.0,0.0,0.0,0.0,0,
219500,1710.4,181.9,0.0,0.0,0.0,0.0,0.0,0,
219600,1708.2,190.5,0.0,0.0,0.0,0.0,0.0,0,
219700,1700.7,187.5,0.0,0.0,0.0,0.0,0.0,0,
219800,1709.9,183.3,0.0,0.0,0.0,0.0,0.0,0,
219900,1704.1,189.9,0.0,0.0,0.0,0.0,0.0,0,
220000,1703.6,185.5,0.0,0.0,0.0,0.0,0.0,0,
220100,1710.9,182.7,0.0,0.0,0.0,0.0,0.0,0,
220200,1706.8,187.1,0.0,0.0,0.0,0.0,0.0,0,
220300,1704.2,184.6,0.0,0.0,0.0,0.0,0.0,0,
220400,1710.1,183.6,0.0,0.0,0.0,0.0,0.0,0,
220500,1701.4,189.3,0.0,0.0,0.0,0.0,0.0,0,
220600,1703.1,185.7,0.0,0.0,0.0,0.0,0.0,0,
220700,1703.6,187.5,0.0,0.0,0.0,0.0,0.0,0,
220800,1704.7,184.0,0.0,0.0,0.0,0.0,0.0,0,
220900,1701.7,188.9,0.0,0.0,0.0,0.0,0.0,0,
221000,1708.8,184.9,0.0,0.0,0.0,0.0,0.0,0,
221100,1701.3,199.7,0.0,0.0,0.0,0.0,0.0,0,
221200,1696.6,189.6,0.0,0.0,0.0,0.0,0.0,0,
221300,1701.6,191.1,0.0,0.0,0.0,0.0,0.0,0,
221400,1702.0,191.1,0.0,0.0,0.0,0.0,0.0,0,
221500,1696.9,192.3,0.0,0.0,0.0,0.0,0.0,0,
221600,1706.3,187.5,0.0,0.0,0.0,0.0,0.0,0,
221700,1703.2,190.7,0.0,0.0,0.0,0.0,0.0,0,
221800,1696.5,192.5,0.0,0.0,0.0,0.0,0.0,0,
221900,1709.3,185.1,0.0,0.0,0.0,0.0,0.0,0,
222000,1698.2,193.0,0.0,0.0,0.0,0.0,0.0,0,
222100,1699.2,189.4,0.0,0.0,0.0,0.0,0.0,0,
222200,1705.9,188.0,0.0,0.0,0.0,0.0,0.0,0,
222300,1701.7,191.7,0.0,0.0,0.0,0.0,0.0,0,
222400,1698.7,190.3,0.0,0.0,0.0,0.0,0.0,0,
222500,1705.5,187.8,0.0,0.0,0.0,0.0,0.0,0,
222600,1698.1,194.8,0.0,0.0,0.0,0.0,0.0,0,
222700,1695.7,194.7,0.0,0.0,0.0,0.0,0.0,0,
222800,1699.2,192.2,0.0,0.0,0.0,0.0,0.0,0,
222900,1693.6,202.7,0.0,0.0,0.0,0.0,0.0,0,
223000,1695.0,193.7,0.0,0.0,0.0,0.0,0.0,0,
223100,1702.4,191.0,0.0,0.0,0.0,0.0,0.0,0,
223200,1696.1,198.7,0.0,0.0,0.0,0.0,0.0,0,
223300,1695.1,193.4,0.0,0.0,0.0,0.0,0.0,0,
223400,1702.3,191.2,0.0,0.0,0.0,0.0,0.0,0,
223500,1699.1,195.2,0.0,0.0,0.0,0.0,0.0,0,
223600,1695.4,193.4,0.0,0.0,0.0,0.0,0.0,0,
223700,1701.8,191.9,0.0,0.0,0.0,0.0,0.0,0,
223800,1697.8,195.7,0.0,0.0,0.0,0.0,0.0,0,
223900,1694.5,195.4,0.0,0.0,0.0,0.0,0.0,0,
224000,1700.8,192.8,0.0,0.0,0.0,0.0,0.0,0,
224100,1697.2,201.7,0.0,0.0,0.0,0.0,0.0,0,
224200,1690.9,195.5,0.0,0.0,0.0,0.0,0.0,0,
224300,1701.8,192.3,0.0,0.0,0.0,0.0,0.0,0,
224400,1697.7,195.2,0.0,0.0,0.0,0.0,0.0,0,
224500,1695.4,193.2,0.0,0.0,0.0,0.0,0.0,0,
224600,1698.7,194.3,0.0,0.0,0.0,0.0,0.0,0,
224700,1696.4,195.8,0.0,0.0,0.0,0.0,0.0,0,
224800,1691.3,197.6,0.0,0.0,0.0,0.0,0.0,0,
224900,1694.0,196.4,0.0,0.0,0.0,0.0,0.0,0,
225000,1693.7,198.1,0.0,0.0,0.0,0.0,0.0,0,
225100,1690.7,205.0,0.0,0.0,0.0,0.0,0.0,0,
225200,1696.3,196.1,0.0,0.0,0.0,0.0,0.0,0,
225300,1690.2,199.5,0.0,0.0,0.0,0.0,0.0,0,
225400,1692.6,195.9,0.0,0.0,0.0,0.0,0.0,0,
225500,1693.3,197.6,0.0,0.0,0.0,0.0,0.0,0,
225600,1693.7,198.3,0.0,0.0,0.0,0.0,0.0,0,
225700,1692.7,196.1,0.0,0.0,0.0,0.0,0.0,0,
225800,1697.6,195.5,0.0,0.0,0.0,0.0,0.0,0,
225900,1694.5,198.2,0.0,0.0,0.0,0.0,0.0,0,
226000,1689.0,204.6,0.0,0.0,0.0,0.0,0.0,0,
226100,1695.0,197.8,0.0,0.0,0.0,0.0,0.0,0,
226200,1692.5,199.8,0.0,0.0,0.0,0.0,0.0,0,
226300,1692.6,203.2,0.0,0.0,0.0,0.0,0.0,0,
226400,1695.0,197.6,0.0,0.0,0.0,0.0,0.0,0,
226500,1692.8,199.5,0.0,0.0,0.0,0.0,0.0,0,
226600,1691.2,197.6,0.0,0.0,0.0,0.0,0.0,0,
226700,1696.0,196.8,0.0,0.0,0.0,0.0,0.0,0,
226800,1693.0,200.7,0.0,0.0,0.0,0.0,0.0,0,
226900,1690.5,198.2,0.0,0.0,0.0,0.0,0.0,0,
227000,1695.3,198.0,0.0,0.0,0.0,0.0,0.0,0,
227100,1692.2,200.7,0.0,0.0,0.0,0.0,0.0,0,
227200,1690.4,198.1,0.0,0.0,0.0,0.0,0.0,0,
227300,1694.9,198.5,0.0,0.0,0.0,0.0,0.0,0,
227400,1692.2,200.6,0.0,0.0,0.0,0.0,0.0,0,
227500,1688.3,203.7,0.0,0.0,0.0,0.0,0.0,0,
227600,1687.0,203.0,0.0,0.0,0.0,0.0,0.0,0,
227700,1680.7,219.4,0.0,0.0,0.0,0.0,0.0,0,
227800,1680.8,204.7,0.0,0.0,0.0,0.0,0.0,0,
227900,1691.3,202.3,0.0,0.0,0.0,0.0,0.0,0,
228000,1687.9,204.4,0.0,0.0,0.0,0.0,0.0,0,
228100,1684.6,208.1,0.0,0.0,0.0,0.0,0.0,0,
228200,1689.8,203.4,0.0,0.0,0.0,0.0,0.0,0,
228300,1688.0,204.4,0.0,0.0,0.0,0.0,0.0,0,
228400,1686.0,202.9,0.0,0.0,0.0,0.0,0.0,0,
228500,1691.7,203.2,0.0,0.0,0.0,0.0,0.0,0,
228600,1684.2,206.7,0.0,0.0,0.0,0.0,0.0,0,
228700,1685.1,203.4,0.0,0.0,0.0,0.0,0.0,0,
228800,1687.0,204.9,0.0,0.0,0.0,0.0,0.0,0,
228900,1686.3,211.4,0.0,0.0,0.0,0.0,0.0,0,
229000,1681.4,204.8,0.0,0.0,0.0,0.0,0.0,0,
229100,1689.8,205.1,0.0,0.0,0.0,0.0,0.0,0,
229200,1682.4,208.1,0.0,0.0,0.0,0.0,0.0,0,
229300,1683.3,205.6,0.0,0.0,0.0,0.0,0.0,0,
229400,1685.0,207.7,0.0,0.0,0.0,0.0,0.0,0,
229500,1681.9,213.7,0.0,0.0,0.0,0.0,0.0,0,
229600,1681.7,209.2,0.0,0.0,0.0,0.0,0.0,0,
229700,1681.6,217.4,0.0,0.0,0.0,0.0,0.0,0,
229800,1685.4,209.4,0.0,0.0,0.0,0.0,0.0,0,
229900,1678.0,211.4,0.0,0.0,0.0,0.0,0.0,0,
230000,1686.0,207.3,0.0,0.0,0.0,0.0,0.0,0,
230100,1683.4,209.2,0.0,0.0,0.0,0.0,0.0,0,
230200,1681.0,207.6,0.0,0.0,0.0,0.0,0.0,0,
230300,1686.9,206.8,0.0,0.0,0.0,0.0,0.0,0,
230400,1682.9,210.1,0.0,0.0,0.0,0.0,0.0,0,
230500,1679.1,216.0,0.0,0.0,0.0,0.0,0.0,0,
230600,1684.2,209.0,0.0,0.0,0.0,0.0,0.0,0,
230700,1678.2,213.4,0.0,0.0,0.0,0.0,0.0,0,
230800,1679.1,209.6,0.0,0.0,0.0,0.0,0.0,0,
230900,1684.9,208.5,0.0,0.0,0.0,0.0,0.0,0,
231000,1679.2,215.8,0.0,0.0,0.0,0.0,0.0,0,
231100,1678.1,210.7,0.0,0.0,0.0,0.0,0.0,0,
231200,1680.9,215.0,0.0,0.0,0.0,0.0,0.0,0,
231300,1685.4,215.6,0.0,0.0,0.0,0.0,0.0,0,
231400,1672.8,213.4,0.0,0.0,0.0,0.0,0.0,0,
231500,1681.2,213.1,0.0,0.0,0.0,0.0,0.0,0,
231600,1677.2,216.3,0.0,0.0,0.0,0.0,0.0,0,
231700,1674.8,214.3,0.0,0.0,0.0,0.0,0.0,0,
231800,1675.1,215.8,0.0,0.0,0.0,0.0,0.0,0,
231900,1675.9,217.7,0.0,0.0,0.0,0.0,0.0,0,
232000,1673.6,218.0,0.0,0.0,0.0,0.0,0.0,0,
232100,1679.4,214.1,0.0,0.0,0.0,0.0,0.0,0,
232200,1675.5,218.3,0.0,0.0,0.0,0.0,0.0,0,
232300,1672.5,216.3,0.0,0.0,0.0,0.0,0.0,0,
232400,1678.7,214.6,0.0,0.0,0.0,0.0,0.0,0,
232500,1675.3,218.6,0.0,0.0,0.0,0.0,0.0,0,
232600,1671.6,217.4,0.0,0.0,0.0,0.0,0.0,0,
232700,1674.8,224.9,0.0,0.0,0.0,0.0,0.0,0,
232800,1675.7,220.1,0.0,0.0,0.0,0.0,0.0,0,
232900,1670.0,218.9,0.0,0.0,0.0,0.0,0.0,0,
233000,1672.9,218.5,0.0,0.0,0.0,0.0,0.0,0,
233100,1671.9,227.1,0.0,0.0,0.0,0.0,0.0,0,
233200,1665.2,221.0,0.0,0.0,0.0,0.0,0.0,0,
233300,1675.3,217.6,0.0,0.0,0.0,0.0,0.0,0,
233400,1672.2,221.8,0.0,0.0,0.0,0.0,0.0,0,
233500,1669.0,221.5,0.0,0.0,0.0,0.0,0.0,0,
233600,1675.3,218.2,0.0,0.0,0.0,0.0,0.0,0,
233700,1669.5,224.0,0.0,0.0,0.0,0.0,0.0,0,
233800,1663.9,224.9,0.0,0.0,0.0,0.0,0.0,0,
233900,1668.9,221.9,0.0,0.0,0.0,0.0,0.0,0,
234000,1666.2,228.7,0.0,0.0,0.0,0.0,0.0,0,
234100,1662.4,226.5,0.0,0.0,0.0,0.0,0.0,0,
234200,1671.3,222.2,0.0,0.0,0.0,0.0,0.0,0,
234300,1668.5,224.9,0.0,0.0,0.0,0.0,0.0,0,
234400,1665.9,223.5,0.0,0.0,0.0,0.0,0.0,0,
234500,1671.9,221.3,0.0,0.0,0.0,0.0,0.0,0,
234600,1668.4,225.7,0.0,0.0,0.0,0.0,0.0,0,
234700,1664.6,224.3,0.0,0.0,0.0,0.0,0.0,0,
234800,1671.6,222.1,0.0,0.0,0.0,0.0,0.0,0,
234900,1667.0,226.7,0.0,0.0,0.0,0.0,0.0,0,
235000,1657.4,235.6,0.0,0.0,0.0,0.0,0.0,0,
235100,1667.3,225.5,0.0,0.0,0.0,0.0,0.0,0,
235200,1665.2,228.4,0.0,0.0,0.0,0.0,0.0,0,
235300,1662.0,226.9,0.0,0.0,0.0,0.0,0.0,0,
235400,1667.1,225.5,0.0,0.0,0.0,0.0,0.0,0,
235500,1661.1,230.3,0.0,0.0,0.0,0.0,0.0,0,
235600,1659.4,233.3,0.0,0.0,0.0,0.0,0.0,0,
235700,1665.8,226.6,0.0,0.0,0.0,0.0,0.0,0,
235800,1664.0,223.5,0.0,0.0,0.0,0.0,0.0,0,
235900,1662.1,230.1,0.0,0.0,0.0,0.0,0.0,0,
236000,1666.1,226.4,0.0,0.0,0.0,0.0,0.0,0,
236100,1659.2,233.7,0.0,0.0,0.0,0.0,0.0,0,
236200,1657.3,235.5,0.0,0.0,0.0,0.0,0.0,0,
236300,1664.1,228.1,0.0,0.0,0.0,0.0,0.0,0,
236400,1662.6,230.0,0.0,0.0,0.0,0.0,0.0,0,
236500,1658.5,237.4,0.0,0.0,0.0,0.0,0.0,0,
236600,1663.8,228.2,0.0,0.0,0.0,0.0,0.0,0,
236700,1662.3,236.8,0.0,0.0,0.0,0.0,0.0,0,
236800,1655.9,232.7,0.0,0.0,0.0,0.0,0.0,0,
236900,1663.4,229.2,0.0,0.0,0.0,0.0,0.0,0,
237000,1661.1,243.7,0.0,0.0,0.0,0.0,0.0,0,
237100,1649.3,233.0,0.0,0.0,0.0,0.0,0.0,0,
237200,1662.8,230.0,0.0,0.0,0.0,0.0,0.0,0,
237300,1660.6,232.1,0.0,0.0,0.0,0.0,0.0,0,
237400,1658.8,229.8,0.0,0.0,0.0,0.0,0.0,0,
237500,1664.1,229.6,0.0,0.0,0.0,0.0,0.0,0,
237600,1656.6,233.5,0.0,0.0,0.0,0.0,0.0,0,
237700,1657.5,231.1,0.0,0.0,0.0,0.0,0.0,0,
237800,1658.4,232.2,0.0,0.0,0.0,0.0,0.0,0,
237900,1659.0,233.6,0.0,0.0,0.0,0.0,0.0,0,
238000,1657.0,231.6,0.0,0.0,0.0,0.0,0.0,0,
238100,1662.2,230.9,0.0,0.0,0.0,0.0,0.0,0,
238200,1658.6,233.7,0.0,0.0,0.0,0.0,0.0,0,
238300,1650.9,237.8,0.0,0.0,0.0,0.0,0.0,0,
238400,1660.0,232.6,0.0,0.0,0.0,0.0,0.0,0,
238500,1657.8,234.9,0.0,0.0,0.0,0.0,0.0,0,
238600,1650.4,248.0,0.0,0.0,0.0,0.0,0.0,0,
238700,1656.5,235.6,0.0,0.0,0.0,0.0,0.0,0,
238800,1651.4,238.7,0.0,0.0,0.0,0.0,0.0,0,
238900,1650.0,238.2,0.0,0.0,0.0,0.0,0.0,0,
239000,1652.1,242.0,0.0,0.0,0.0,0.0,0.0,0,
239100,1653.6,239.6,0.0,0.0,0.0,0.0,0.0,0,
239200,1652.8,238.2,0.0,0.0,0.0,0.0,0.0,0,
239300,1654.9,237.8,0.0,0.0,0.0,0.0,0.0,0,
239400,1654.5,238.1,0.0,0.0,0.0,0.0,0.0,0,
239500,1652.6,236.5,0.0,0.0,0.0,0.0,0.0,0,
239600,1654.3,241.1,0.0,0.0,0.0,0.0,0.0,0,
239700,1653.3,240.0,0.0,0.0,0.0,0.0,0.0,0,
239800,1651.2,237.3,0.0,0.0,0.0,0.0,0.0,0,
239900,1657.2,236.8,0.0,0.0,0.0,0.0,0.0,0,
