Time(ms),Raw_ADC,ENV_Value,RMS,MDF,MW_Amp,MW_Area,MW_Latency,MW_Valid,Marker
0,0.0,123.7,0.0,0.0,0.0,0.0,0.0,0,
100,0.0,137.2,0.0,0.0,0.0,0.0,0.0,0,
200,0.0,132.1,0.0,0.0,0.0,0.0,0.0,0,
300,0.0,128.7,0.0,0.0,0.0,0.0,0.0,0,
400,0.0,76.2,0.0,0.0,0.0,0.0,0.0,0,
500,0.0,19.3,0.0,0.0,0.0,0.0,0.0,0,
600,0.0,14.4,0.0,0.0,0.0,0.0,0.0,0,
700,0.0,15.3,0.0,0.0,0.0,0.0,0.0,0,
800,0.0,16.2,0.0,0.0,0.0,0.0,0.0,0,
900,0.0,15.2,0.0,0.0,0.0,0.0,0.0,0,
1000,0.0,15.7,0.0,0.0,0.0,0.0,0.0,0,
1100,0.0,14.0,0.0,0.0,0.0,0.0,0.0,0,
1200,0.0,14.8,0.0,0.0,0.0,0.0,0.0,0,
1300,0.0,18.2,0.0,0.0,0.0,0.0,0.0,0,
1400,0.0,25.2,0.0,0.0,0.0,0.0,0.0,0,
1500,0.0,87.1,0.0,0.0,0.0,0.0,0.0,0,
1600,0.0,94.8,0.0,0.0,279.0,2190.0,9.0,1,
1700,0.0,78.0,0.0,0.0,279.0,2190.0,9.0,1,
1800,0.0,90.4,0.0,0.0,279.0,2190.0,9.0,1,
1900,0.0,146.0,0.0,0.0,436.0,3499.0,9.0,1,
2000,0.0,102.8,0.0,0.0,447.0,3677.0,6.0,1,
2100,0.0,22.0,0.0,0.0,447.0,3677.0,6.0,1,
2200,0.0,18.4,0.0,0.0,447.0,3677.0,6.0,1,
2300,0.0,15.5,0.0,0.0,447.0,3677.0,6.0,1,
2400,0.0,15.5,0.0,0.0,447.0,3677.0,6.0,1,
2500,0.0,16.3,0.0,0.0,447.0,3677.0,6.0,1,
2600,0.0,15.7,0.0,0.0,447.0,3677.0,6.0,1,
2700,0.0,16.2,0.0,0.0,447.0,3677.0,6.0,1,
2800,0.0,15.3,0.0,0.0,447.0,3677.0,6.0,1,
2900,0.0,13.8,0.0,0.0,447.0,3677.0,6.0,1,
3000,0.0,55.4,0.0,0.0,447.0,3677.0,6.0,1,
3100,0.0,156.1,0.0,0.0,271.0,2190.0,13.0,1,
3200,0.0,136.6,0.0,0.0,271.0,2190.0,13.0,1,
3300,0.0,192.7,0.0,0.0,550.0,4349.0,6.0,1,
3400,0.0,148.6,0.0,0.0,558.0,3923.0,6.0,1,
3500,0.0,138.6,0.0,0.0,549.0,4105.0,5.0,1,
3600,0.0,112.8,0.0,0.0,549.0,4105.0,5.0,1,
3700,0.0,20.7,0.0,0.0,549.0,4105.0,5.0,1,
3800,0.0,14.1,0.0,0.0,549.0,4105.0,5.0,1,
3900,0.0,14.1,0.0,0.0,549.0,4105.0,5.0,1,
4000,0.0,16.4,0.0,0.0,549.0,4105.0,5.0,1,
4100,0.0,18.1,0.0,0.0,549.0,4105.0,5.0,1,
4200,0.0,13.6,0.0,0.0,549.0,4105.0,5.0,1,
4300,0.0,14.0,0.0,0.0,549.0,4105.0,5.0,1,
4400,0.0,14.4,0.0,0.0,549.0,4105.0,5.0,1,
4500,0.0,15.8,0.0,0.0,549.0,4105.0,5.0,1,
4600,0.0,26.9,0.0,0.0,549.0,4105.0,5.0,1,
4700,0.0,118.5,0.0,0.0,374.0,2777.0,12.0,1,
4800,0.0,158.7,0.0,0.0,510.0,3729.0,11.0,1,
4900,0.0,139.4,0.0,0.0,491.0,3961.0,5.0,1,
5000,0.0,166.1,0.0,0.0,491.0,3961.0,5.0,1,
5100,0.0,180.9,0.0,0.0,532.0,4295.0,6.0,1,
5200,0.0,157.7,0.0,0.0,503.0,4110.0,6.0,1,
5300,0.0,22.8,0.0,0.0,473.0,4015.0,6.0,1,
5400,0.0,17.9,0.0,0.0,473.0,4015.0,6.0,1,
5500,0.0,18.5,0.0,0.0,473.0,4015.0,6.0,1,
5600,0.0,15.7,0.0,0.0,473.0,4015.0,6.0,1,
5700,0.0,14.7,0.0,0.0,473.0,4015.0,6.0,1,
5800,0.0,16.2,0.0,0.0,473.0,4015.0,6.0,1,
5900,0.0,14.0,0.0,0.0,473.0,4015.0,6.0,1,
6000,0.0,13.9,0.0,0.0,473.0,4015.0,6.0,1,
6100,0.0,16.4,0.0,0.0,473.0,4015.0,6.0,1,
6200,0.0,24.7,0.0,0.0,473.0,4015.0,6.0,1,
6300,0.0,94.9,0.0,0.0,473.0,4015.0,6.0,1,
6400,0.0,142.3,0.0,0.0,473.0,4015.0,6.0,1,
6500,0.0,196.9,0.0,0.0,579.0,4578.0,11.0,1,
6600,0.0,150.8,0.0,0.0,579.0,4535.0,6.0,1,
6700,0.0,155.1,0.0,0.0,579.0,4535.0,6.0,1,
6800,0.0,161.3,0.0,0.0,500.0,3818.0,6.0,1,
6900,0.0,24.3,0.0,0.0,483.0,3852.0,6.0,1,
7000,0.0,15.6,0.0,0.0,483.0,3852.0,6.0,1,
7100,0.0,13.9,0.0,0.0,483.0,3852.0,6.0,1,
7200,0.0,14.7,0.0,0.0,483.0,3852.0,6.0,1,
7300,0.0,15.5,0.0,0.0,483.0,3852.0,6.0,1,
7400,0.0,15.5,0.0,0.0,483.0,3852.0,6.0,1,
7500,0.0,12.5,0.0,0.0,483.0,3852.0,6.0,1,
7600,0.0,15.1,0.0,0.0,483.0,3852.0,6.0,1,
7700,0.0,15.6,0.0,0.0,483.0,3852.0,6.0,1,
7800,0.0,14.6,0.0,0.0,483.0,3852.0,6.0,1,
7900,0.0,120.1,0.0,0.0,509.0,3574.0,11.0,1,
8000,0.0,159.3,0.0,0.0,546.0,3997.0,11.0,1,
8100,0.0,172.9,0.0,0.0,546.0,3997.0,11.0,1,
8200,0.0,188.5,0.0,0.0,553.0,4414.0,6.0,1,
8300,0.0,150.1,0.0,0.0,485.0,4222.0,6.0,1,
8400,0.0,153.0,0.0,0.0,537.0,4210.0,5.0,1,
8500,0.0,28.4,0.0,0.0,537.0,4210.0,5.0,1,
8600,0.0,15.8,0.0,0.0,537.0,4210.0,5.0,1,
8700,0.0,16.9,0.0,0.0,537.0,4210.0,5.0,1,
8800,0.0,13.5,0.0,0.0,537.0,4210.0,5.0,1,
8900,0.0,15.4,0.0,0.0,537.0,4210.0,5.0,1,
9000,0.0,13.4,0.0,0.0,537.0,4210.0,5.0,1,
9100,0.0,15.1,0.0,0.0,537.0,4210.0,5.0,1,
9200,0.0,15.4,0.0,0.0,537.0,4210.0,5.0,1,
9300,0.0,14.6,0.0,0.0,537.0,4210.0,5.0,1,
9400,0.0,15.2,0.0,0.0,537.0,4210.0,5.0,1,
9500,0.0,105.7,0.0,0.0,248.0,2062.0,13.0,1,
9600,0.0,162.5,0.0,0.0,527.0,4238.0,12.0,1,
9700,0.0,154.1,0.0,0.0,480.0,4167.0,12.0,1,
9800,0.0,159.5,0.0,0.0,480.0,4167.0,12.0,1,
9900,0.0,179.5,0.0,0.0,549.0,4410.0,6.0,1,
10000,0.0,150.1,0.0,0.0,525.0,4047.0,5.0,1,
10100,0.0,26.8,0.0,0.0,487.0,3763.0,5.0,1,
10200,0.0,14.5,0.0,0.0,487.0,3763.0,5.0,1,
10300,0.0,15.6,0.0,0.0,487.0,3763.0,5.0,1,
10400,0.0,14.8,0.0,0.0,487.0,3763.0,5.0,1,
10500,0.0,14.2,0.0,0.0,487.0,3763.0,5.0,1,
10600,0.0,13.8,0.0,0.0,487.0,3763.0,5.0,1,
10700,0.0,13.5,0.0,0.0,487.0,3763.0,5.0,1,
10800,0.0,14.1,0.0,0.0,487.0,3763.0,5.0,1,
10900,0.0,13.9,0.0,0.0,487.0,3763.0,5.0,1,
11000,0.0,13.2,0.0,0.0,487.0,3763.0,5.0,1,
11100,0.0,79.7,0.0,0.0,487.0,3763.0,5.0,1,
11200,0.0,131.6,0.0,0.0,487.0,3763.0,5.0,1,
11300,0.0,171.1,0.0,0.0,522.0,4102.0,6.0,1,
11400,0.0,169.6,0.0,0.0,525.0,4471.0,4.0,1,
11500,0.0,133.6,0.0,0.0,525.0,4471.0,4.0,1,
11600,0.0,156.2,0.0,0.0,487.0,3807.0,6.0,1,
11700,0.0,32.8,0.0,0.0,480.0,3685.0,6.0,1,
11800,0.0,17.0,0.0,0.0,480.0,3685.0,6.0,1,
11900,0.0,14.7,0.0,0.0,480.0,3685.0,6.0,1,
12000,0.0,14.4,0.0,0.0,480.0,3685.0,6.0,1,
12100,0.0,16.8,0.0,0.0,480.0,3685.0,6.0,1,
12200,0.0,18.8,0.0,0.0,480.0,3685.0,6.0,1,
12300,0.0,15.1,0.0,0.0,480.0,3685.0,6.0,1,
12400,0.0,16.4,0.0,0.0,480.0,3685.0,6.0,1,
12500,0.0,14.0,0.0,0.0,480.0,3685.0,6.0,1,
12600,0.0,17.1,0.0,0.0,480.0,3685.0,6.0,1,
12700,0.0,97.4,0.0,0.0,270.0,2298.0,6.0,1,
12800,0.0,106.4,0.0,0.0,365.0,2963.0,6.0,1,
12900,0.0,153.1,0.0,0.0,365.0,2963.0,6.0,1,
13000,0.0,188.7,0.0,0.0,558.0,4435.0,6.0,1,
13100,0.0,156.5,0.0,0.0,502.0,3807.0,5.0,1,
13200,0.0,123.9,0.0,0.0,502.0,3807.0,5.0,1,
13300,0.0,35.8,0.0,0.0,502.0,3807.0,5.0,1,
13400,0.0,15.0,0.0,0.0,502.0,3807.0,5.0,1,
13500,0.0,13.5,0.0,0.0,502.0,3807.0,5.0,1,
13600,0.0,15.1,0.0,0.0,502.0,3807.0,5.0,1,
13700,0.0,16.4,0.0,0.0,502.0,3807.0,5.0,1,
13800,0.0,13.1,0.0,0.0,502.0,3807.0,5.0,1,
13900,0.0,15.7,0.0,0.0,502.0,3807.0,5.0,1,
14000,0.0,13.2,0.0,0.0,502.0,3807.0,5.0,1,
14100,0.0,12.8,0.0,0.0,502.0,3807.0,5.0,1,
14200,0.0,14.8,0.0,0.0,502.0,3807.0,5.0,1,
14300,0.0,125.0,0.0,0.0,317.0,2434.0,13.0,1,
14400,0.0,152.8,0.0,0.0,365.0,3467.0,12.0,1,
14500,0.0,149.3,0.0,0.0,490.0,4241.0,6.0,1,
14600,0.0,146.8,0.0,0.0,490.0,4241.0,6.0,1,
14700,0.0,180.5,0.0,0.0,494.0,3627.0,6.0,1,
14800,0.0,157.5,0.0,0.0,516.0,3862.0,5.0,1,
14900,0.0,40.4,0.0,0.0,481.0,3516.0,5.0,1,rest_end
15000,0.0,15.6,0.0,0.0,481.0,3516.0,5.0,1,
15100,0.0,13.4,0.0,0.0,481.0,3516.0,5.0,1,
15200,0.0,13.6,0.0,0.0,481.0,3516.0,5.0,1,
15300,0.0,14.1,0.0,0.0,481.0,3516.0,5.0,1,
15400,0.0,16.7,0.0,0.0,481.0,3516.0,5.0,1,
15500,0.0,14.3,0.0,0.0,481.0,3516.0,5.0,1,
15600,0.0,16.8,0.0,0.0,481.0,3516.0,5.0,1,
15700,0.0,15.9,0.0,0.0,481.0,3516.0,5.0,1,
15800,0.0,16.4,0.0,0.0,481.0,3516.0,5.0,1,
15900,0.0,74.8,0.0,0.0,481.0,3516.0,5.0,1,
16000,0.0,161.5,0.0,0.0,522.0,4063.0,12.0,1,
16100,0.0,199.0,0.0,0.0,534.0,4527.0,6.0,1,
16200,0.0,153.4,0.0,0.0,543.0,4248.0,6.0,1,
16300,0.0,129.2,0.0,0.0,543.0,4248.0,6.0,1,
16400,0.0,180.8,0.0,0.0,457.0,3662.0,6.0,1,
16500,0.0,51.5,0.0,0.0,462.0,3431.0,6.0,1,
16600,0.0,17.0,0.0,0.0,462.0,3431.0,6.0,1,
16700,0.0,15.1,0.0,0.0,462.0,3431.0,6.0,1,
16800,0.0,14.9,0.0,0.0,462.0,3431.0,6.0,1,
16900,0.0,13.0,0.0,0.0,462.0,3431.0,6.0,1,
17000,0.0,17.1,0.0,0.0,462.0,3431.0,6.0,1,
17100,0.0,14.7,0.0,0.0,462.0,3431.0,6.0,1,
17200,0.0,13.9,0.0,0.0,462.0,3431.0,6.0,1,
17300,0.0,14.2,0.0,0.0,462.0,3431.0,6.0,1,
17400,0.0,13.5,0.0,0.0,462.0,3431.0,6.0,1,
17500,0.0,66.6,0.0,0.0,212.0,1457.0,13.0,1,
17600,0.0,100.8,0.0,0.0,305.0,2779.0,6.0,1,
17700,0.0,167.7,0.0,0.0,305.0,2779.0,6.0,1,
17800,0.0,203.3,0.0,0.0,524.0,4279.0,6.0,1,
17900,0.0,143.1,0.0,0.0,506.0,4028.0,6.0,1,
18000,0.0,122.7,0.0,0.0,506.0,3850.0,6.0,1,
18100,0.0,52.0,0.0,0.0,506.0,3850.0,6.0,1,
18200,0.0,16.2,0.0,0.0,506.0,3850.0,6.0,1,
18300,0.0,14.1,0.0,0.0,506.0,3850.0,6.0,1,
18400,0.0,13.0,0.0,0.0,506.0,3850.0,6.0,1,
18500,0.0,16.7,0.0,0.0,506.0,3850.0,6.0,1,
18600,0.0,14.3,0.0,0.0,506.0,3850.0,6.0,1,
18700,0.0,13.4,0.0,0.0,506.0,3850.0,6.0,1,
18800,0.0,15.5,0.0,0.0,506.0,3850.0,6.0,1,
18900,0.0,16.5,0.0,0.0,506.0,3850.0,6.0,1,
19000,0.0,14.4,0.0,0.0,506.0,3850.0,6.0,1,
19100,0.0,94.7,0.0,0.0,197.0,1528.0,5.0,1,
19200,0.0,121.5,0.0,0.0,354.0,2797.0,13.0,1,
19300,0.0,144.8,0.0,0.0,448.0,4076.0,6.0,1,
19400,0.0,158.1,0.0,0.0,448.0,4076.0,6.0,1,
19500,0.0,178.9,0.0,0.0,472.0,3783.0,6.0,1,
19600,0.0,129.4,0.0,0.0,507.0,3487.0,6.0,1,
19700,0.0,61.1,0.0,0.0,442.0,3368.0,6.0,1,
19800,0.0,17.9,0.0,0.0,442.0,3368.0,6.0,1,
19900,0.0,14.2,0.0,0.0,442.0,3368.0,6.0,1,
20000,0.0,15.7,0.0,0.0,442.0,3368.0,6.0,1,
20100,0.0,13.2,0.0,0.0,442.0,3368.0,6.0,1,
20200,0.0,15.2,0.0,0.0,442.0,3368.0,6.0,1,
20300,0.0,16.3,0.0,0.0,442.0,3368.0,6.0,1,
20400,0.0,13.6,0.0,0.0,442.0,3368.0,6.0,1,
20500,0.0,12.9,0.0,0.0,442.0,3368.0,6.0,1,
20600,0.0,13.8,0.0,0.0,442.0,3368.0,6.0,1,
20700,0.0,54.8,0.0,0.0,442.0,3368.0,6.0,1,
20800,0.0,130.3,0.0,0.0,322.0,2908.0,5.0,1,
20900,0.0,136.2,0.0,0.0,379.0,3286.0,14.0,1,
21000,0.0,150.8,0.0,0.0,516.0,4540.0,11.0,1,
21100,0.0,142.5,0.0,0.0,488.0,4103.0,9.0,1,
21200,0.0,174.5,0.0,0.0,473.0,3433.0,6.0,1,
21300,0.0,82.6,0.0,0.0,430.0,3248.0,6.0,1,
21400,0.0,16.4,0.0,0.0,430.0,3248.0,6.0,1,
21500,0.0,17.4,0.0,0.0,430.0,3248.0,6.0,1,
21600,0.0,15.6,0.0,0.0,430.0,3248.0,6.0,1,
21700,0.0,16.0,0.0,0.0,430.0,3248.0,6.0,1,
21800,0.0,15.5,0.0,0.0,430.0,3248.0,6.0,1,
21900,0.0,15.4,0.0,0.0,430.0,3248.0,6.0,1,
22000,0.0,12.6,0.0,0.0,430.0,3248.0,6.0,1,
22100,0.0,14.1,0.0,0.0,430.0,3248.0,6.0,1,
22200,0.0,14.3,0.0,0.0,430.0,3248.0,6.0,1,
22300,0.0,68.9,0.0,0.0,183.0,1380.0,13.0,1,
22400,0.0,118.4,0.0,0.0,330.0,2796.0,16.0,1,
22500,0.0,140.6,0.0,0.0,330.0,2796.0,16.0,1,
22600,0.0,176.7,0.0,0.0,454.0,4200.0,6.0,1,
22700,0.0,138.2,0.0,0.0,505.0,3565.0,6.0,1,
22800,0.0,133.8,0.0,0.0,446.0,3381.0,6.0,1,
22900,0.0,80.9,0.0,0.0,446.0,3381.0,6.0,1,
23000,0.0,19.5,0.0,0.0,446.0,3381.0,6.0,1,
23100,0.0,13.5,0.0,0.0,446.0,3381.0,6.0,1,
23200,0.0,13.8,0.0,0.0,446.0,3381.0,6.0,1,
23300,0.0,18.6,0.0,0.0,446.0,3381.0,6.0,1,
23400,0.0,13.1,0.0,0.0,446.0,3381.0,6.0,1,
23500,0.0,12.6,0.0,0.0,446.0,3381.0,6.0,1,
23600,0.0,13.5,0.0,0.0,446.0,3381.0,6.0,1,
23700,0.0,15.8,0.0,0.0,446.0,3381.0,6.0,1,
23800,0.0,14.5,0.0,0.0,446.0,3381.0,6.0,1,
23900,0.0,48.9,0.0,0.0,446.0,3381.0,6.0,1,
24000,0.0,150.1,0.0,0.0,381.0,3033.0,14.0,1,
24100,0.0,143.0,0.0,0.0,386.0,3797.0,6.0,1,
24200,0.0,144.0,0.0,0.0,476.0,4118.0,6.0,1,
24300,0.0,147.2,0.0,0.0,496.0,3570.0,6.0,1,
24400,0.0,125.5,0.0,0.0,483.0,3219.0,6.0,1,
24500,0.0,91.6,0.0,0.0,407.0,2974.0,6.0,1,
24600,0.0,20.8,0.0,0.0,407.0,2974.0,6.0,1,
24700,0.0,16.1,0.0,0.0,407.0,2974.0,6.0,1,
24800,0.0,15.5,0.0,0.0,407.0,2974.0,6.0,1,
24900,0.0,13.3,0.0,0.0,407.0,2974.0,6.0,1,
25000,0.0,14.7,0.0,0.0,407.0,2974.0,6.0,1,
25100,0.0,13.3,0.0,0.0,407.0,2974.0,6.0,1,
25200,0.0,13.9,0.0,0.0,407.0,2974.0,6.0,1,
25300,0.0,17.0,0.0,0.0,407.0,2974.0,6.0,1,
25400,0.0,14.9,0.0,0.0,407.0,2974.0,6.0,1,
25500,0.0,38.1,0.0,0.0,407.0,2974.0,6.0,1,
25600,0.0,104.6,0.0,0.0,407.0,2974.0,6.0,1,
25700,0.0,183.0,0.0,0.0,459.0,3716.0,11.0,1,
25800,0.0,161.3,0.0,0.0,492.0,4011.0,6.0,1,
25900,0.0,130.8,0.0,0.0,492.0,3582.0,6.0,1,
26000,0.0,125.0,0.0,0.0,492.0,3582.0,6.0,1,
26100,0.0,127.7,0.0,0.0,400.0,2900.0,6.0,1,
26200,0.0,20.9,0.0,0.0,400.0,2900.0,6.0,1,
26300,0.0,18.9,0.0,0.0,400.0,2900.0,6.0,1,
26400,0.0,18.1,0.0,0.0,400.0,2900.0,6.0,1,
26500,0.0,17.6,0.0,0.0,400.0,2900.0,6.0,1,
26600,0.0,15.4,0.0,0.0,400.0,2900.0,6.0,1,
26700,0.0,14.6,0.0,0.0,400.0,2900.0,6.0,1,
26800,0.0,15.9,0.0,0.0,400.0,2900.0,6.0,1,
26900,0.0,17.0,0.0,0.0,400.0,2900.0,6.0,1,
27000,0.0,13.9,0.0,0.0,400.0,2900.0,6.0,1,
27100,0.0,53.4,0.0,0.0,400.0,2900.0,6.0,1,
27200,0.0,109.0,0.0,0.0,355.0,2952.0,15.0,1,
27300,0.0,129.4,0.0,0.0,375.0,3135.0,5.0,1,
27400,0.0,194.4,0.0,0.0,448.0,3857.0,7.0,1,
27500,0.0,161.8,0.0,0.0,465.0,3279.0,6.0,1,
27600,0.0,115.2,0.0,0.0,400.0,2986.0,6.0,1,
27700,0.0,101.5,0.0,0.0,400.0,2986.0,6.0,1,
27800,0.0,22.3,0.0,0.0,400.0,2986.0,6.0,1,
27900,0.0,16.7,0.0,0.0,400.0,2986.0,6.0,1,
28000,0.0,13.7,0.0,0.0,400.0,2986.0,6.0,1,
28100,0.0,16.3,0.0,0.0,400.0,2986.0,6.0,1,
28200,0.0,18.7,0.0,0.0,400.0,2986.0,6.0,1,
28300,0.0,16.4,0.0,0.0,400.0,2986.0,6.0,1,
28400,0.0,15.2,0.0,0.0,400.0,2986.0,6.0,1,
28500,0.0,17.0,0.0,0.0,400.0,2986.0,6.0,1,
28600,0.0,13.6,0.0,0.0,400.0,2986.0,6.0,1,
28700,0.0,50.2,0.0,0.0,400.0,2986.0,6.0,1,
28800,0.0,131.3,0.0,0.0,224.0,2221.0,5.0,1,
28900,0.0,138.8,0.0,0.0,367.0,3304.0,16.0,1,
29000,0.0,100.0,0.0,0.0,301.0,2874.0,5.0,1,
29100,0.0,182.2,0.0,0.0,455.0,3891.0,8.0,1,
29200,0.0,171.2,0.0,0.0,415.0,3338.0,6.0,1,
29300,0.0,114.9,0.0,0.0,391.0,2928.0,6.0,1,
29400,0.0,20.6,0.0,0.0,391.0,2928.0,6.0,1,
29500,0.0,14.0,0.0,0.0,391.0,2928.0,6.0,1,
29600,0.0,16.3,0.0,0.0,391.0,2928.0,6.0,1,
29700,0.0,15.0,0.0,0.0,391.0,2928.0,6.0,1,
29800,0.0,14.2,0.0,0.0,391.0,2928.0,6.0,1,
29900,0.0,14.7,0.0,0.0,391.0,2928.0,6.0,1,
30000,0.0,17.7,0.0,0.0,391.0,2928.0,6.0,1,
30100,0.0,15.5,0.0,0.0,391.0,2928.0,6.0,1,
30200,0.0,14.5,0.0,0.0,391.0,2928.0,6.0,1,
30300,0.0,16.0,0.0,0.0,391.0,2928.0,6.0,1,
30400,0.0,96.5,0.0,0.0,391.0,2928.0,6.0,1,
30500,0.0,204.1,0.0,0.0,476.0,4446.0,10.0,1,
30600,0.0,151.4,0.0,0.0,519.0,3882.0,6.0,1,
30700,0.0,110.6,0.0,0.0,441.0,3676.0,6.0,1,
30800,0.0,134.6,0.0,0.0,393.0,2881.0,7.0,1,
30900,0.0,152.1,0.0,0.0,384.0,2626.0,6.0,1,
31000,0.0,24.1,0.0,0.0,358.0,2606.0,6.0,1,
31100,0.0,17.1,0.0,0.0,358.0,2606.0,6.0,1,
31200,0.0,16.5,0.0,0.0,358.0,2606.0,6.0,1,
31300,0.0,13.7,0.0,0.0,358.0,2606.0,6.0,1,
31400,0.0,16.5,0.0,0.0,358.0,2606.0,6.0,1,
31500,0.0,16.2,0.0,0.0,358.0,2606.0,6.0,1,
31600,0.0,13.6,0.0,0.0,358.0,2606.0,6.0,1,
31700,0.0,13.5,0.0,0.0,358.0,2606.0,6.0,1,
31800,0.0,13.8,0.0,0.0,358.0,2606.0,6.0,1,
31900,0.0,11.8,0.0,0.0,358.0,2606.0,6.0,1,
32000,0.0,94.3,0.0,0.0,273.0,2016.0,4.0,1,
32100,0.0,134.4,0.0,0.0,445.0,4027.0,11.0,1,
32200,0.0,192.6,0.0,0.0,433.0,3865.0,9.0,1,
32300,0.0,150.9,0.0,0.0,450.0,3530.0,8.0,1,
32400,0.0,108.6,0.0,0.0,405.0,2826.0,6.0,1,
32500,0.0,97.4,0.0,0.0,366.0,2706.0,6.0,1,
32600,0.0,24.2,0.0,0.0,366.0,2706.0,6.0,1,
32700,0.0,14.9,0.0,0.0,366.0,2706.0,6.0,1,
32800,0.0,15.2,0.0,0.0,366.0,2706.0,6.0,1,
32900,0.0,14.3,0.0,0.0,366.0,2706.0,6.0,1,
33000,0.0,14.7,0.0,0.0,366.0,2706.0,6.0,1,
33100,0.0,15.5,0.0,0.0,366.0,2706.0,6.0,1,
33200,0.0,13.8,0.0,0.0,366.0,2706.0,6.0,1,
33300,0.0,15.1,0.0,0.0,366.0,2706.0,6.0,1,
33400,0.0,16.5,0.0,0.0,366.0,2706.0,6.0,1,
33500,0.0,15.2,0.0,0.0,366.0,2706.0,6.0,1,
33600,0.0,105.9,0.0,0.0,223.0,1732.0,4.0,1,
33700,0.0,122.4,0.0,0.0,286.0,2560.0,3.0,1,
33800,0.0,111.3,0.0,0.0,320.0,2969.0,12.0,1,
33900,0.0,149.6,0.0,0.0,352.0,3291.0,6.0,1,
34000,0.0,157.1,0.0,0.0,422.0,3241.0,6.0,1,
34100,0.0,114.4,0.0,0.0,373.0,2844.0,6.0,1,
34200,0.0,30.9,0.0,0.0,375.0,2656.0,6.0,1,
34300,0.0,14.4,0.0,0.0,375.0,2656.0,6.0,1,
34400,0.0,14.1,0.0,0.0,375.0,2656.0,6.0,1,
34500,0.0,16.0,0.0,0.0,375.0,2656.0,6.0,1,
34600,0.0,14.7,0.0,0.0,375.0,2656.0,6.0,1,
34700,0.0,13.3,0.0,0.0,375.0,2656.0,6.0,1,
34800,0.0,15.3,0.0,0.0,375.0,2656.0,6.0,1,
34900,0.0,14.3,0.0,0.0,375.0,2656.0,6.0,1,
35000,0.0,15.6,0.0,0.0,375.0,2656.0,6.0,1,
35100,0.0,14.3,0.0,0.0,375.0,2656.0,6.0,1,
35200,0.0,64.2,0.0,0.0,375.0,2656.0,6.0,1,
35300,0.0,132.0,0.0,0.0,288.0,2747.0,14.0,1,
35400,0.0,163.5,0.0,0.0,389.0,3474.0,11.0,1,
35500,0.0,136.1,0.0,0.0,421.0,3599.0,6.0,1,
35600,0.0,129.2,0.0,0.0,404.0,3044.0,5.0,1,
35700,0.0,137.3,0.0,0.0,352.0,2485.0,6.0,1,
35800,0.0,34.4,0.0,0.0,378.0,2704.0,7.0,1,
35900,0.0,15.5,0.0,0.0,378.0,2704.0,7.0,1,
36000,0.0,14.2,0.0,0.0,378.0,2704.0,7.0,1,
36100,0.0,13.7,0.0,0.0,378.0,2704.0,7.0,1,
36200,0.0,15.3,0.0,0.0,378.0,2704.0,7.0,1,
36300,0.0,15.6,0.0,0.0,378.0,2704.0,7.0,1,
36400,0.0,13.3,0.0,0.0,378.0,2704.0,7.0,1,
36500,0.0,14.2,0.0,0.0,378.0,2704.0,7.0,1,
36600,0.0,14.6,0.0,0.0,378.0,2704.0,7.0,1,
36700,0.0,15.2,0.0,0.0,378.0,2704.0,7.0,1,
36800,0.0,64.7,0.0,0.0,207.0,1306.0,2.0,1,
36900,0.0,87.6,0.0,0.0,219.0,2066.0,3.0,1,
37000,0.0,121.4,0.0,0.0,302.0,2935.0,12.0,1,
37100,0.0,125.1,0.0,0.0,268.0,2496.0,6.0,1,
37200,0.0,140.9,0.0,0.0,440.0,3685.0,10.0,1,
37300,0.0,135.4,0.0,0.0,423.0,2973.0,6.0,1,
37401,0.0,36.0,0.0,0.0,379.0,2995.0,6.0,1,
37501,0.0,18.4,0.0,0.0,379.0,2995.0,6.0,1,
37601,0.0,14.5,0.0,0.0,379.0,2995.0,6.0,1,
37701,0.0,17.0,0.0,0.0,379.0,2995.0,6.0,1,
37801,0.0,17.8,0.0,0.0,379.0,2995.0,6.0,1,
37901,0.0,14.7,0.0,0.0,379.0,2995.0,6.0,1,
38001,0.0,15.2,0.0,0.0,379.0,2995.0,6.0,1,
38101,0.0,15.1,0.0,0.0,379.0,2995.0,6.0,1,
38201,0.0,15.1,0.0,0.0,379.0,2995.0,6.0,1,
38301,0.0,14.9,0.0,0.0,379.0,2995.0,6.0,1,
38401,0.0,54.0,0.0,0.0,180.0,1181.0,2.0,1,
38501,0.0,153.2,0.0,0.0,322.0,2660.0,4.0,1,
38601,0.0,105.7,0.0,0.0,213.0,2083.0,4.0,1,
38701,0.0,105.5,0.0,0.0,297.0,2949.0,4.0,1,
38801,0.0,141.2,0.0,0.0,367.0,3295.0,10.0,1,
38901,0.0,143.8,0.0,0.0,355.0,2977.0,3.0,1,
39001,0.0,45.0,0.0,0.0,345.0,2656.0,6.0,1,
39101,0.0,17.4,0.0,0.0,345.0,2656.0,6.0,1,
39201,0.0,14.6,0.0,0.0,345.0,2656.0,6.0,1,
39301,0.0,15.6,0.0,0.0,345.0,2656.0,6.0,1,
39401,0.0,15.6,0.0,0.0,345.0,2656.0,6.0,1,
39501,0.0,15.1,0.0,0.0,345.0,2656.0,6.0,1,
39601,0.0,16.0,0.0,0.0,345.0,2656.0,6.0,1,
39701,0.0,14.7,0.0,0.0,345.0,2656.0,6.0,1,
39801,0.0,16.3,0.0,0.0,345.0,2656.0,6.0,1,
39901,0.0,18.4,0.0,0.0,345.0,2656.0,6.0,1,
40001,0.0,55.1,0.0,0.0,345.0,2656.0,6.0,1,
40101,0.0,55.7,0.0,0.0,231.0,1507.0,4.0,1,
40201,0.0,164.4,0.0,0.0,329.0,2769.0,4.0,1,
40301,0.0,118.1,0.0,0.0,243.0,2347.0,5.0,1,
40401,0.0,93.8,0.0,0.0,259.0,2146.0,5.0,1,
40501,0.0,107.8,0.0,0.0,288.0,2365.0,5.0,1,
40601,0.0,55.1,0.0,0.0,358.0,2949.0,10.0,1,
40701,0.0,16.9,0.0,0.0,358.0,2949.0,10.0,1,
40801,0.0,15.0,0.0,0.0,358.0,2949.0,10.0,1,
40901,0.0,14.9,0.0,0.0,358.0,2949.0,10.0,1,
41001,0.0,14.6,0.0,0.0,358.0,2949.0,10.0,1,
41101,0.0,18.5,0.0,0.0,358.0,2949.0,10.0,1,
41201,0.0,13.7,0.0,0.0,358.0,2949.0,10.0,1,
41301,0.0,15.7,0.0,0.0,358.0,2949.0,10.0,1,
41401,0.0,14.3,0.0,0.0,358.0,2949.0,10.0,1,
41501,0.0,11.6,0.0,0.0,358.0,2949.0,10.0,1,
41601,0.0,75.0,0.0,0.0,168.0,1112.0,5.0,1,
41701,0.0,95.5,0.0,0.0,273.0,2149.0,3.0,1,
41801,0.0,82.9,0.0,0.0,256.0,2258.0,6.0,1,
41901,0.0,140.6,0.0,0.0,263.0,1931.0,6.0,1,
42001,0.0,132.7,0.0,0.0,300.0,2463.0,6.0,1,
42101,0.0,118.9,0.0,0.0,384.0,3423.0,10.0,1,
42201,0.0,55.2,0.0,0.0,364.0,3179.0,8.0,1,
42301,0.0,14.1,0.0,0.0,364.0,3179.0,8.0,1,
42401,0.0,13.8,0.0,0.0,364.0,3179.0,8.0,1,
42501,0.0,13.3,0.0,0.0,364.0,3179.0,8.0,1,
42601,0.0,14.1,0.0,0.0,364.0,3179.0,8.0,1,
42701,0.0,13.5,0.0,0.0,364.0,3179.0,8.0,1,
42801,0.0,16.4,0.0,0.0,364.0,3179.0,8.0,1,
42901,0.0,14.8,0.0,0.0,364.0,3179.0,8.0,1,
43001,0.0,12.3,0.0,0.0,364.0,3179.0,8.0,1,
43101,0.0,13.1,0.0,0.0,364.0,3179.0,8.0,1,
43201,0.0,53.3,0.0,0.0,364.0,3179.0,8.0,1,
43301,0.0,110.0,0.0,0.0,209.0,1756.0,7.0,1,
43401,0.0,79.6,0.0,0.0,222.0,1895.0,5.0,1,
43501,0.0,96.3,0.0,0.0,227.0,1758.0,7.0,1,
43601,0.0,134.3,0.0,0.0,367.0,2995.0,6.0,1,
43701,0.0,132.8,0.0,0.0,334.0,2627.0,6.0,1,
43801,0.0,54.7,0.0,0.0,310.0,2467.0,6.0,1,
43901,0.0,16.1,0.0,0.0,310.0,2467.0,6.0,1,
44001,0.0,15.4,0.0,0.0,310.0,2467.0,6.0,1,
44101,0.0,18.2,0.0,0.0,310.0,2467.0,6.0,1,
44201,0.0,13.6,0.0,0.0,310.0,2467.0,6.0,1,
44301,0.0,17.4,0.0,0.0,310.0,2467.0,6.0,1,
44401,0.0,14.5,0.0,0.0,310.0,2467.0,6.0,1,
44501,0.0,15.5,0.0,0.0,310.0,2467.0,6.0,1,
44601,0.0,15.3,0.0,0.0,310.0,2467.0,6.0,1,
44701,0.0,15.6,0.0,0.0,310.0,2467.0,6.0,1,
44801,0.0,28.2,0.0,0.0,310.0,2467.0,6.0,1,
44901,0.0,55.8,0.0,0.0,310.0,2467.0,6.0,1,
45001,0.0,93.5,0.0,0.0,205.0,1656.0,8.0,1,
45101,0.0,99.9,0.0,0.0,255.0,2257.0,7.0,1,
45201,0.0,101.4,0.0,0.0,301.0,2776.0,7.0,1,
45301,0.0,84.6,0.0,0.0,301.0,2776.0,7.0,1,
45401,0.0,72.2,0.0,0.0,321.0,2386.0,7.0,1,
45501,0.0,19.8,0.0,0.0,321.0,2386.0,7.0,1,
45601,0.0,15.3,0.0,0.0,321.0,2386.0,7.0,1,
45701,0.0,17.5,0.0,0.0,321.0,2386.0,7.0,1,
45801,0.0,21.0,0.0,0.0,321.0,2386.0,7.0,1,
45901,0.0,15.5,0.0,0.0,321.0,2386.0,7.0,1,
46001,0.0,14.8,0.0,0.0,321.0,2386.0,7.0,1,
46101,0.0,14.3,0.0,0.0,321.0,2386.0,7.0,1,
46201,0.0,14.7,0.0,0.0,321.0,2386.0,7.0,1,
46301,0.0,16.1,0.0,0.0,321.0,2386.0,7.0,1,
46401,0.0,65.6,0.0,0.0,321.0,2386.0,7.0,1,
46501,0.0,99.8,0.0,0.0,278.0,2182.0,8.0,1,
46601,0.0,67.7,0.0,0.0,243.0,2070.0,6.0,1,
46701,0.0,65.3,0.0,0.0,243.0,2070.0,6.0,1,
46801,0.0,108.8,0.0,0.0,290.0,2528.0,6.0,1,
46901,0.0,104.2,0.0,0.0,299.0,2409.0,7.0,1,
47001,0.0,68.7,0.0,0.0,289.0,2256.0,7.0,1,
47101,0.0,19.5,0.0,0.0,289.0,2256.0,7.0,1,
47201,0.0,19.2,0.0,0.0,289.0,2256.0,7.0,1,
47301,0.0,15.8,0.0,0.0,289.0,2256.0,7.0,1,
47401,0.0,16.8,0.0,0.0,289.0,2256.0,7.0,1,
47501,0.0,14.4,0.0,0.0,289.0,2256.0,7.0,1,
47601,0.0,14.8,0.0,0.0,289.0,2256.0,7.0,1,
47701,0.0,16.1,0.0,0.0,289.0,2256.0,7.0,1,
47801,0.0,16.7,0.0,0.0,289.0,2256.0,7.0,1,
47901,0.0,15.3,0.0,0.0,289.0,2256.0,7.0,1,
48001,0.0,27.0,0.0,0.0,289.0,2256.0,7.0,1,
48101,0.0,42.9,0.0,0.0,186.0,1206.0,2.0,1,
48201,0.0,73.9,0.0,0.0,180.0,1686.0,4.0,1,
48301,0.0,97.8,0.0,0.0,279.0,1707.0,5.0,1,
48401,0.0,70.0,0.0,0.0,303.0,1778.0,5.0,1,
48501,0.0,85.1,0.0,0.0,303.0,1778.0,5.0,1,
48601,0.0,120.5,0.0,0.0,416.0,3006.0,6.0,1,
48701,0.0,18.9,0.0,0.0,411.0,2838.0,6.0,1,
48801,0.0,13.4,0.0,0.0,411.0,2838.0,6.0,1,
48901,0.0,16.6,0.0,0.0,411.0,2838.0,6.0,1,
49001,0.0,15.0,0.0,0.0,411.0,2838.0,6.0,1,
49101,0.0,17.1,0.0,0.0,411.0,2838.0,6.0,1,
49201,0.0,15.4,0.0,0.0,411.0,2838.0,6.0,1,
49301,0.0,13.7,0.0,0.0,411.0,2838.0,6.0,1,
49401,0.0,16.1,0.0,0.0,411.0,2838.0,6.0,1,
49501,0.0,13.7,0.0,0.0,411.0,2838.0,6.0,1,
49601,0.0,61.2,0.0,0.0,411.0,2838.0,6.0,1,
49701,0.0,92.9,0.0,0.0,235.0,1982.0,12.0,1,
49801,0.0,92.8,0.0,0.0,288.0,2006.0,4.0,1,
49901,0.0,103.5,0.0,0.0,299.0,2673.0,5.0,1,
50001,0.0,162.4,0.0,0.0,356.0,2893.0,6.0,1,
50101,0.0,116.9,0.0,0.0,376.0,2561.0,6.0,1,
50201,0.0,88.4,0.0,0.0,348.0,2357.0,6.0,1,
50301,0.0,20.1,0.0,0.0,348.0,2357.0,6.0,1,
50401,0.0,16.1,0.0,0.0,348.0,2357.0,6.0,1,
50501,0.0,14.0,0.0,0.0,348.0,2357.0,6.0,1,
50601,0.0,14.0,0.0,0.0,348.0,2357.0,6.0,1,
50701,0.0,12.6,0.0,0.0,348.0,2357.0,6.0,1,
50801,0.0,14.2,0.0,0.0,348.0,2357.0,6.0,1,
50901,0.0,15.6,0.0,0.0,348.0,2357.0,6.0,1,
51001,0.0,15.3,0.0,0.0,348.0,2357.0,6.0,1,
51101,0.0,14.9,0.0,0.0,348.0,2357.0,6.0,1,
51201,0.0,14.8,0.0,0.0,348.0,2357.0,6.0,1,
51301,0.0,97.5,0.0,0.0,348.0,2357.0,6.0,1,
51401,0.0,143.7,0.0,0.0,270.0,2259.0,12.0,1,
51501,0.0,117.6,0.0,0.0,356.0,3085.0,6.0,1,
51601,0.0,96.3,0.0,0.0,389.0,2898.0,6.0,1,
51701,0.0,128.5,0.0,0.0,361.0,2219.0,7.0,1,
51801,0.0,120.3,0.0,0.0,386.0,2173.0,6.0,1,
51901,0.0,20.7,0.0,0.0,369.0,2077.0,6.0,1,
52001,0.0,16.4,0.0,0.0,369.0,2077.0,6.0,1,
52101,0.0,16.1,0.0,0.0,369.0,2077.0,6.0,1,
52201,0.0,14.5,0.0,0.0,369.0,2077.0,6.0,1,
52301,0.0,15.4,0.0,0.0,369.0,2077.0,6.0,1,
52401,0.0,13.6,0.0,0.0,369.0,2077.0,6.0,1,
52501,0.0,14.3,0.0,0.0,369.0,2077.0,6.0,1,
52601,0.0,14.9,0.0,0.0,369.0,2077.0,6.0,1,
52701,0.0,16.1,0.0,0.0,369.0,2077.0,6.0,1,
52801,0.0,15.1,0.0,0.0,369.0,2077.0,6.0,1,
52901,0.0,53.4,0.0,0.0,369.0,2077.0,6.0,1,
53001,0.0,48.3,0.0,0.0,369.0,2077.0,6.0,1,
53101,0.0,75.5,0.0,0.0,205.0,1082.0,6.0,1,
53201,0.0,63.2,0.0,0.0,377.0,1726.0,6.0,1,
53301,0.0,43.0,0.0,0.0,377.0,1726.0,6.0,1,
53401,0.0,71.7,0.0,0.0,377.0,1726.0,6.0,1,
53501,0.0,20.5,0.0,0.0,356.0,1687.0,5.0,1,
53601,0.0,17.1,0.0,0.0,356.0,1687.0,5.0,1,
53701,0.0,17.1,0.0,0.0,356.0,1687.0,5.0,1,
53801,0.0,16.0,0.0,0.0,356.0,1687.0,5.0,1,
53901,0.0,14.9,0.0,0.0,356.0,1687.0,5.0,1,
54001,0.0,18.8,0.0,0.0,356.0,1687.0,5.0,1,
54101,0.0,16.6,0.0,0.0,356.0,1687.0,5.0,1,
54201,0.0,16.1,0.0,0.0,356.0,1687.0,5.0,1,
54301,0.0,16.6,0.0,0.0,356.0,1687.0,5.0,1,
54401,0.0,16.1,0.0,0.0,356.0,1687.0,5.0,1,
54501,0.0,94.6,0.0,0.0,385.0,2628.0,6.0,1,
54601,0.0,58.9,0.0,0.0,354.0,2131.0,7.0,1,
54701,0.0,67.2,0.0,0.0,354.0,2131.0,7.0,1,
54801,0.0,90.1,0.0,0.0,310.0,1474.0,6.0,1,
54901,0.0,51.5,0.0,0.0,260.0,1248.0,6.0,1,
55001,0.0,26.2,0.0,0.0,260.0,1248.0,6.0,1,
55101,0.0,17.2,0.0,0.0,260.0,1248.0,6.0,1,
55201,0.0,14.0,0.0,0.0,260.0,1248.0,6.0,1,
55301,0.0,14.1,0.0,0.0,260.0,1248.0,6.0,1,
55401,0.0,15.4,0.0,0.0,260.0,1248.0,6.0,1,
55501,0.0,13.1,0.0,0.0,260.0,1248.0,6.0,1,
55601,0.0,19.3,0.0,0.0,260.0,1248.0,6.0,1,
55701,0.0,15.2,0.0,0.0,260.0,1248.0,6.0,1,
55801,0.0,14.6,0.0,0.0,260.0,1248.0,6.0,1,
55901,0.0,15.4,0.0,0.0,260.0,1248.0,6.0,1,
56001,0.0,13.4,0.0,0.0,260.0,1248.0,6.0,1,
56101,0.0,64.9,0.0,0.0,260.0,1248.0,6.0,1,
56201,0.0,84.9,0.0,0.0,268.0,1928.0,7.0,1,
56301,0.0,61.0,0.0,0.0,177.0,1218.0,6.0,1,
56401,0.0,70.1,0.0,0.0,177.0,1218.0,6.0,1,
56501,0.0,89.1,0.0,0.0,177.0,1218.0,6.0,1,
56601,0.0,101.0,0.0,0.0,252.0,1983.0,4.0,1,
56701,0.0,28.7,0.0,0.0,307.0,2402.0,7.0,1,
56801,0.0,15.0,0.0,0.0,307.0,2402.0,7.0,1,
56901,0.0,13.9,0.0,0.0,307.0,2402.0,7.0,1,
57001,0.0,15.0,0.0,0.0,307.0,2402.0,7.0,1,
57101,0.0,15.5,0.0,0.0,307.0,2402.0,7.0,1,
57201,0.0,16.2,0.0,0.0,307.0,2402.0,7.0,1,
57301,0.0,15.8,0.0,0.0,307.0,2402.0,7.0,1,
57401,0.0,14.4,0.0,0.0,307.0,2402.0,7.0,1,
57501,0.0,13.6,0.0,0.0,307.0,2402.0,7.0,1,
57601,0.0,15.0,0.0,0.0,307.0,2402.0,7.0,1,
57701,0.0,58.5,0.0,0.0,206.0,1698.0,4.0,1,
57801,0.0,91.7,0.0,0.0,206.0,1698.0,4.0,1,
57901,0.0,112.2,0.0,0.0,281.0,2227.0,10.0,1,
58001,0.0,91.6,0.0,0.0,323.0,2630.0,9.0,1,
58101,0.0,79.0,0.0,0.0,323.0,2630.0,9.0,1,
58201,0.0,87.6,0.0,0.0,323.0,2630.0,9.0,1,
58301,0.0,28.6,0.0,0.0,279.0,1957.0,9.0,1,
58401,0.0,14.0,0.0,0.0,279.0,1957.0,9.0,1,
58501,0.0,17.3,0.0,0.0,279.0,1957.0,9.0,1,
58601,0.0,17.3,0.0,0.0,279.0,1957.0,9.0,1,
58701,0.0,15.7,0.0,0.0,279.0,1957.0,9.0,1,
58801,0.0,15.6,0.0,0.0,279.0,1957.0,9.0,1,
58901,0.0,15.5,0.0,0.0,279.0,1957.0,9.0,1,
59001,0.0,14.9,0.0,0.0,279.0,1957.0,9.0,1,
59101,0.0,22.1,0.0,0.0,279.0,1957.0,9.0,1,
59201,0.0,16.4,0.0,0.0,279.0,1957.0,9.0,1,
59301,0.0,127.6,0.0,0.0,414.0,3299.0,12.0,1,
59401,0.0,111.7,0.0,0.0,406.0,3543.0,10.0,1,
59501,0.0,90.1,0.0,0.0,406.0,3543.0,10.0,1,
59601,0.0,99.0,0.0,0.0,341.0,2268.0,6.0,1,
59701,0.0,80.5,0.0,0.0,325.0,2001.0,5.0,1,
59801,0.0,77.0,0.0,0.0,325.0,2001.0,5.0,1,
59901,0.0,24.9,0.0,0.0,325.0,2001.0,5.0,1,
60001,0.0,14.5,0.0,0.0,325.0,2001.0,5.0,1,
60101,0.0,14.8,0.0,0.0,325.0,2001.0,5.0,1,
60201,0.0,14.6,0.0,0.0,325.0,2001.0,5.0,1,
60301,0.0,15.1,0.0,0.0,325.0,2001.0,5.0,1,
60401,0.0,15.5,0.0,0.0,325.0,2001.0,5.0,1,
60501,0.0,14.6,0.0,0.0,325.0,2001.0,5.0,1,
60601,0.0,13.1,0.0,0.0,325.0,2001.0,5.0,1,
60701,0.0,16.0,0.0,0.0,325.0,2001.0,5.0,1,
60801,0.0,14.8,0.0,0.0,325.0,2001.0,5.0,1,
60901,0.0,80.6,0.0,0.0,325.0,2001.0,5.0,1,
61001,0.0,81.4,0.0,0.0,435.0,2266.0,5.0,1,
61101,0.0,75.2,0.0,0.0,435.0,2266.0,5.0,1,
61201,0.0,73.1,0.0,0.0,435.0,2266.0,5.0,1,
61301,0.0,63.7,0.0,0.0,316.0,1284.0,6.0,1,
61401,0.0,50.0,0.0,0.0,340.0,1554.0,6.0,1,
61501,0.0,24.4,0.0,0.0,340.0,1554.0,6.0,1,
61601,0.0,14.4,0.0,0.0,340.0,1554.0,6.0,1,
61701,0.0,13.6,0.0,0.0,340.0,1554.0,6.0,1,
61801,0.0,14.3,0.0,0.0,340.0,1554.0,6.0,1,
61901,0.0,15.6,0.0,0.0,340.0,1554.0,6.0,1,
62001,0.0,15.4,0.0,0.0,340.0,1554.0,6.0,1,
62101,0.0,16.2,0.0,0.0,340.0,1554.0,6.0,1,
62201,0.0,16.4,0.0,0.0,340.0,1554.0,6.0,1,
62301,0.0,14.4,0.0,0.0,340.0,1554.0,6.0,1,
62401,0.0,16.2,0.0,0.0,340.0,1554.0,6.0,1,
62501,0.0,87.8,0.0,0.0,340.0,1554.0,6.0,1,
62601,0.0,64.2,0.0,0.0,340.0,1554.0,6.0,1,
62701,0.0,72.0,0.0,0.0,243.0,1263.0,6.0,1,
62801,0.0,29.6,0.0,0.0,187.0,871.0,5.0,1,
62901,0.0,31.8,0.0,0.0,187.0,871.0,5.0,1,
63001,0.0,35.3,0.0,0.0,108.0,620.0,5.0,1,
63101,0.0,24.3,0.0,0.0,125.0,671.0,3.0,1,
63201,0.0,15.1,0.0,0.0,125.0,671.0,3.0,1,
63301,0.0,18.4,0.0,0.0,125.0,671.0,3.0,1,
63401,0.0,16.5,0.0,0.0,125.0,671.0,3.0,1,
63501,0.0,16.4,0.0,0.0,125.0,671.0,3.0,1,
63601,0.0,15.1,0.0,0.0,125.0,671.0,3.0,1,
63701,0.0,14.1,0.0,0.0,125.0,671.0,3.0,1,
63801,0.0,13.6,0.0,0.0,125.0,671.0,3.0,1,
63901,0.0,17.1,0.0,0.0,125.0,671.0,3.0,1,
64001,0.0,14.9,0.0,0.0,125.0,671.0,3.0,1,
64101,0.0,70.0,0.0,0.0,125.0,671.0,3.0,1,
64201,0.0,61.0,0.0,0.0,125.0,671.0,3.0,1,
64301,0.0,47.5,0.0,0.0,125.0,671.0,3.0,1,
64401,0.0,55.4,0.0,0.0,156.0,857.0,6.0,1,
64501,0.0,29.2,0.0,0.0,114.0,629.0,6.0,1,
64601,0.0,29.8,0.0,0.0,114.0,629.0,6.0,1,
64701,0.0,19.4,0.0,0.0,107.0,524.0,6.0,1,
64801,0.0,15.0,0.0,0.0,107.0,524.0,6.0,1,
64901,0.0,16.8,0.0,0.0,107.0,524.0,6.0,1,
65001,0.0,15.9,0.0,0.0,107.0,524.0,6.0,1,
65101,0.0,15.2,0.0,0.0,107.0,524.0,6.0,1,
65201,0.0,15.3,0.0,0.0,107.0,524.0,6.0,1,
65301,0.0,14.5,0.0,0.0,107.0,524.0,6.0,1,
65401,0.0,14.5,0.0,0.0,107.0,524.0,6.0,1,
65501,0.0,17.6,0.0,0.0,107.0,524.0,6.0,1,
65601,0.0,17.1,0.0,0.0,107.0,524.0,6.0,1,
65701,0.0,81.2,0.0,0.0,384.0,2590.0,6.0,1,
65801,0.0,70.8,0.0,0.0,274.0,1634.0,7.0,1,
65901,0.0,34.8,0.0,0.0,274.0,1634.0,7.0,1,
66001,0.0,31.1,0.0,0.0,274.0,1634.0,7.0,1,
66101,0.0,51.8,0.0,0.0,89.0,624.0,9.0,1,
66201,0.0,26.1,0.0,0.0,139.0,517.0,7.0,1,
66301,0.0,20.4,0.0,0.0,139.0,517.0,7.0,1,
66401,0.0,16.4,0.0,0.0,139.0,517.0,7.0,1,
66501,0.0,17.4,0.0,0.0,139.0,517.0,7.0,1,
66601,0.0,15.6,0.0,0.0,139.0,517.0,7.0,1,
66701,0.0,16.1,0.0,0.0,139.0,517.0,7.0,1,
66801,0.0,16.4,0.0,0.0,139.0,517.0,7.0,1,
66901,0.0,16.8,0.0,0.0,139.0,517.0,7.0,1,
67001,0.0,14.2,0.0,0.0,139.0,517.0,7.0,1,
67101,0.0,14.4,0.0,0.0,139.0,517.0,7.0,1,
67201,0.0,15.2,0.0,0.0,139.0,517.0,7.0,1,
67301,0.0,48.1,0.0,0.0,139.0,517.0,7.0,1,
67401,0.0,94.6,0.0,0.0,340.0,1623.0,7.0,1,
67501,0.0,68.5,0.0,0.0,198.0,1171.0,5.0,1,
67601,0.0,58.3,0.0,0.0,198.0,1171.0,5.0,1,
67701,0.0,71.5,0.0,0.0,198.0,1171.0,5.0,1,
67801,0.0,129.7,0.0,0.0,298.0,2617.0,6.0,1,
67901,0.0,73.4,0.0,0.0,330.0,2578.0,7.0,1,
68001,0.0,17.1,0.0,0.0,330.0,2578.0,7.0,1,
68101,0.0,15.1,0.0,0.0,330.0,2578.0,7.0,1,
68201,0.0,18.1,0.0,0.0,330.0,2578.0,7.0,1,
68301,0.0,13.9,0.0,0.0,330.0,2578.0,7.0,1,
68401,0.0,14.5,0.0,0.0,330.0,2578.0,7.0,1,
68501,0.0,16.4,0.0,0.0,330.0,2578.0,7.0,1,
68601,0.0,19.1,0.0,0.0,330.0,2578.0,7.0,1,
68701,0.0,15.1,0.0,0.0,330.0,2578.0,7.0,1,
68801,0.0,16.9,0.0,0.0,330.0,2578.0,7.0,1,
68901,0.0,54.1,0.0,0.0,330.0,2578.0,7.0,1,
69001,0.0,121.0,0.0,0.0,330.0,2578.0,7.0,1,
69101,0.0,142.6,0.0,0.0,403.0,3298.0,8.0,1,
69201,0.0,134.7,0.0,0.0,385.0,2679.0,6.0,1,
69301,0.0,87.9,0.0,0.0,378.0,2655.0,7.0,1,
69401,0.0,74.0,0.0,0.0,378.0,2655.0,7.0,1,
69501,0.0,90.8,0.0,0.0,314.0,2135.0,6.0,1,
69601,0.0,16.7,0.0,0.0,314.0,2135.0,6.0,1,
69701,0.0,14.1,0.0,0.0,314.0,2135.0,6.0,1,
69801,0.0,14.4,0.0,0.0,314.0,2135.0,6.0,1,
69901,0.0,15.4,0.0,0.0,314.0,2135.0,6.0,1,
70001,0.0,15.5,0.0,0.0,314.0,2135.0,6.0,1,
70101,0.0,15.2,0.0,0.0,314.0,2135.0,6.0,1,
70201,0.0,14.1,0.0,0.0,314.0,2135.0,6.0,1,
70301,0.0,14.9,0.0,0.0,314.0,2135.0,6.0,1,
70401,0.0,14.7,0.0,0.0,314.0,2135.0,6.0,1,
70501,0.0,60.1,0.0,0.0,314.0,2135.0,6.0,1,
70601,0.0,113.7,0.0,0.0,380.0,3339.0,8.0,1,
70701,0.0,110.3,0.0,0.0,380.0,3339.0,8.0,1,
70801,0.0,110.0,0.0,0.0,380.0,3339.0,8.0,1,
70901,0.0,134.2,0.0,0.0,349.0,2238.0,5.0,1,
71001,0.0,87.3,0.0,0.0,384.0,2373.0,6.0,1,
71101,0.0,65.9,0.0,0.0,384.0,2373.0,6.0,1,
71201,0.0,18.7,0.0,0.0,384.0,2373.0,6.0,1,
71301,0.0,12.3,0.0,0.0,384.0,2373.0,6.0,1,
71401,0.0,15.4,0.0,0.0,384.0,2373.0,6.0,1,
71501,0.0,15.1,0.0,0.0,384.0,2373.0,6.0,1,
71601,0.0,16.1,0.0,0.0,384.0,2373.0,6.0,1,
71701,0.0,14.9,0.0,0.0,384.0,2373.0,6.0,1,
71801,0.0,15.5,0.0,0.0,384.0,2373.0,6.0,1,
71901,0.0,15.3,0.0,0.0,384.0,2373.0,6.0,1,
72001,0.0,13.0,0.0,0.0,384.0,2373.0,6.0,1,
72101,0.0,23.3,0.0,0.0,384.0,2373.0,6.0,1,
72201,0.0,73.0,0.0,0.0,164.0,1156.0,6.0,1,
72301,0.0,61.7,0.0,0.0,152.0,994.0,6.0,1,
72401,0.0,36.0,0.0,0.0,164.0,1191.0,6.0,1,
72501,0.0,71.1,0.0,0.0,164.0,1191.0,6.0,1,
72601,0.0,144.2,0.0,0.0,382.0,2821.0,5.0,1,
72701,0.0,99.4,0.0,0.0,344.0,2645.0,6.0,1,
72801,0.0,21.8,0.0,0.0,344.0,2645.0,6.0,1,
72901,0.0,16.9,0.0,0.0,344.0,2645.0,6.0,1,
73001,0.0,13.8,0.0,0.0,344.0,2645.0,6.0,1,
73101,0.0,16.1,0.0,0.0,344.0,2645.0,6.0,1,
73201,0.0,12.8,0.0,0.0,344.0,2645.0,6.0,1,
73301,0.0,12.9,0.0,0.0,344.0,2645.0,6.0,1,
73401,0.0,15.5,0.0,0.0,344.0,2645.0,6.0,1,
73501,0.0,12.9,0.0,0.0,344.0,2645.0,6.0,1,
73601,0.0,13.4,0.0,0.0,344.0,2645.0,6.0,1,
73701,0.0,14.4,0.0,0.0,344.0,2645.0,6.0,1,
73801,0.0,93.5,0.0,0.0,344.0,2645.0,6.0,1,
73901,0.0,124.4,0.0,0.0,344.0,2645.0,6.0,1,
74001,0.0,109.3,0.0,0.0,332.0,2561.0,6.0,1,
74101,0.0,76.0,0.0,0.0,325.0,2417.0,7.0,1,
74201,0.0,66.5,0.0,0.0,325.0,2417.0,7.0,1,
74301,0.0,111.7,0.0,0.0,286.0,1859.0,6.0,1,
74401,0.0,20.9,0.0,0.0,308.0,1919.0,6.0,1,
74501,0.0,14.0,0.0,0.0,308.0,1919.0,6.0,1,
74601,0.0,16.3,0.0,0.0,308.0,1919.0,6.0,1,
74701,0.0,16.3,0.0,0.0,308.0,1919.0,6.0,1,
74801,0.0,16.7,0.0,0.0,308.0,1919.0,6.0,1,
74901,0.0,17.2,0.0,0.0,308.0,1919.0,6.0,1,
75001,0.0,16.1,0.0,0.0,308.0,1919.0,6.0,1,
75101,0.0,12.9,0.0,0.0,308.0,1919.0,6.0,1,
75201,0.0,15.0,0.0,0.0,308.0,1919.0,6.0,1,
75301,0.0,14.3,0.0,0.0,308.0,1919.0,6.0,1,
75401,0.0,70.7,0.0,0.0,214.0,1459.0,5.0,1,
75501,0.0,40.0,0.0,0.0,138.0,926.0,10.0,1,
75601,0.0,50.3,0.0,0.0,138.0,926.0,10.0,1,
75701,0.0,106.0,0.0,0.0,314.0,2623.0,7.0,1,
75801,0.0,88.1,0.0,0.0,354.0,2497.0,5.0,1,
75901,0.0,72.6,0.0,0.0,290.0,2057.0,7.0,1,
76001,0.0,24.0,0.0,0.0,290.0,2057.0,7.0,1,
76101,0.0,15.8,0.0,0.0,290.0,2057.0,7.0,1,
76201,0.0,15.4,0.0,0.0,290.0,2057.0,7.0,1,
76301,0.0,20.2,0.0,0.0,290.0,2057.0,7.0,1,
76401,0.0,16.7,0.0,0.0,290.0,2057.0,7.0,1,
76501,0.0,15.2,0.0,0.0,290.0,2057.0,7.0,1,
76601,0.0,16.0,0.0,0.0,290.0,2057.0,7.0,1,
76701,0.0,15.7,0.0,0.0,290.0,2057.0,7.0,1,
76801,0.0,16.6,0.0,0.0,290.0,2057.0,7.0,1,
76901,0.0,15.9,0.0,0.0,290.0,2057.0,7.0,1,
77001,0.0,90.0,0.0,0.0,290.0,2057.0,7.0,1,
77101,0.0,120.3,0.0,0.0,375.0,2819.0,6.0,1,
77201,0.0,93.2,0.0,0.0,344.0,2565.0,6.0,1,
77301,0.0,87.5,0.0,0.0,344.0,2565.0,6.0,1,
77401,0.0,84.6,0.0,0.0,296.0,1810.0,7.0,1,
77501,0.0,83.8,0.0,0.0,300.0,1845.0,5.0,1,
77601,0.0,27.4,0.0,0.0,261.0,1820.0,6.0,1,
77701,0.0,16.4,0.0,0.0,261.0,1820.0,6.0,1,
77801,0.0,14.2,0.0,0.0,261.0,1820.0,6.0,1,
77901,0.0,14.5,0.0,0.0,261.0,1820.0,6.0,1,
78001,0.0,15.1,0.0,0.0,261.0,1820.0,6.0,1,
78101,0.0,14.9,0.0,0.0,261.0,1820.0,6.0,1,
78201,0.0,15.5,0.0,0.0,261.0,1820.0,6.0,1,
78301,0.0,17.6,0.0,0.0,261.0,1820.0,6.0,1,
78401,0.0,16.8,0.0,0.0,261.0,1820.0,6.0,1,
78501,0.0,15.8,0.0,0.0,261.0,1820.0,6.0,1,
78601,0.0,76.8,0.0,0.0,261.0,1820.0,6.0,1,
78701,0.0,86.4,0.0,0.0,261.0,1820.0,6.0,1,
78801,0.0,104.1,0.0,0.0,348.0,2412.0,8.0,1,
78901,0.0,94.4,0.0,0.0,304.0,1969.0,6.0,1,
79001,0.0,84.4,0.0,0.0,304.0,1969.0,6.0,1,
79101,0.0,67.8,0.0,0.0,304.0,1969.0,6.0,1,
79201,0.0,26.9,0.0,0.0,293.0,1833.0,6.0,1,
79301,0.0,15.9,0.0,0.0,293.0,1833.0,6.0,1,
79401,0.0,16.3,0.0,0.0,293.0,1833.0,6.0,1,
79501,0.0,17.9,0.0,0.0,293.0,1833.0,6.0,1,
79601,0.0,22.1,0.0,0.0,293.0,1833.0,6.0,1,
79701,0.0,15.2,0.0,0.0,293.0,1833.0,6.0,1,
79801,0.0,16.7,0.0,0.0,293.0,1833.0,6.0,1,
79901,0.0,18.2,0.0,0.0,293.0,1833.0,6.0,1,
80001,0.0,16.4,0.0,0.0,293.0,1833.0,6.0,1,
80101,0.0,14.1,0.0,0.0,293.0,1833.0,6.0,1,
80201,0.0,95.8,0.0,0.0,243.0,1878.0,5.0,1,
80301,0.0,85.5,0.0,0.0,273.0,1996.0,8.0,1,
80401,0.0,61.5,0.0,0.0,273.0,1996.0,8.0,1,
80501,0.0,75.4,0.0,0.0,273.0,1996.0,8.0,1,
80601,0.0,97.3,0.0,0.0,240.0,1861.0,4.0,1,
80701,0.0,81.8,0.0,0.0,314.0,2027.0,4.0,1,
80801,0.0,29.6,0.0,0.0,314.0,2027.0,4.0,1,
80901,0.0,18.1,0.0,0.0,314.0,2027.0,4.0,1,
81001,0.0,16.5,0.0,0.0,314.0,2027.0,4.0,1,
81101,0.0,16.1,0.0,0.0,314.0,2027.0,4.0,1,
81201,0.0,16.8,0.0,0.0,314.0,2027.0,4.0,1,
81301,0.0,16.1,0.0,0.0,314.0,2027.0,4.0,1,
81401,0.0,16.5,0.0,0.0,314.0,2027.0,4.0,1,
81501,0.0,16.2,0.0,0.0,314.0,2027.0,4.0,1,
81601,0.0,19.0,0.0,0.0,314.0,2027.0,4.0,1,
81701,0.0,13.9,0.0,0.0,314.0,2027.0,4.0,1,
81801,0.0,85.6,0.0,0.0,314.0,2027.0,4.0,1,
81901,0.0,150.2,0.0,0.0,369.0,2670.0,7.0,1,
82001,0.0,102.4,0.0,0.0,325.0,2236.0,7.0,1,
82101,0.0,69.6,0.0,0.0,325.0,2236.0,7.0,1,
82201,0.0,68.4,0.0,0.0,325.0,2236.0,7.0,1,
82301,0.0,116.3,0.0,0.0,298.0,1859.0,6.0,1,
82401,0.0,32.5,0.0,0.0,290.0,1670.0,5.0,1,
82501,0.0,16.7,0.0,0.0,290.0,1670.0,5.0,1,
82601,0.0,15.5,0.0,0.0,290.0,1670.0,5.0,1,
82701,0.0,13.6,0.0,0.0,290.0,1670.0,5.0,1,
82801,0.0,16.0,0.0,0.0,290.0,1670.0,5.0,1,
82901,0.0,14.2,0.0,0.0,290.0,1670.0,5.0,1,
83001,0.0,17.5,0.0,0.0,290.0,1670.0,5.0,1,
83101,0.0,13.8,0.0,0.0,290.0,1670.0,5.0,1,
83201,0.0,19.6,0.0,0.0,290.0,1670.0,5.0,1,
83301,0.0,18.4,0.0,0.0,290.0,1670.0,5.0,1,
83401,0.0,37.2,0.0,0.0,290.0,1670.0,5.0,1,
83501,0.0,38.5,0.0,0.0,290.0,1670.0,5.0,1,
83601,0.0,83.3,0.0,0.0,186.0,1048.0,5.0,1,
83701,0.0,122.4,0.0,0.0,391.0,2749.0,6.0,1,
83801,0.0,82.0,0.0,0.0,345.0,2552.0,7.0,1,
83901,0.0,74.8,0.0,0.0,345.0,2552.0,7.0,1,
84001,0.0,35.6,0.0,0.0,291.0,2115.0,6.0,1,
84101,0.0,17.3,0.0,0.0,291.0,2115.0,6.0,1,
84201,0.0,15.0,0.0,0.0,291.0,2115.0,6.0,1,
84301,0.0,16.6,0.0,0.0,291.0,2115.0,6.0,1,
84401,0.0,16.0,0.0,0.0,291.0,2115.0,6.0,1,
84501,0.0,13.5,0.0,0.0,291.0,2115.0,6.0,1,
84601,0.0,15.4,0.0,0.0,291.0,2115.0,6.0,1,
84701,0.0,15.0,0.0,0.0,291.0,2115.0,6.0,1,
84801,0.0,15.8,0.0,0.0,291.0,2115.0,6.0,1,
84901,0.0,18.1,0.0,0.0,291.0,2115.0,6.0,1,
85001,0.0,76.6,0.0,0.0,193.0,1513.0,9.0,1,
85101,0.0,65.8,0.0,0.0,189.0,1318.0,6.0,1,
85201,0.0,86.4,0.0,0.0,205.0,1531.0,7.0,1,
85301,0.0,103.5,0.0,0.0,205.0,1531.0,7.0,1,
85401,0.0,117.8,0.0,0.0,280.0,1970.0,7.0,1,
85501,0.0,68.4,0.0,0.0,303.0,1955.0,7.0,1,
85601,0.0,37.3,0.0,0.0,303.0,1955.0,7.0,1,
85701,0.0,16.2,0.0,0.0,303.0,1955.0,7.0,1,
85801,0.0,15.7,0.0,0.0,303.0,1955.0,7.0,1,
85901,0.0,16.8,0.0,0.0,303.0,1955.0,7.0,1,
86001,0.0,17.0,0.0,0.0,303.0,1955.0,7.0,1,
86101,0.0,16.3,0.0,0.0,303.0,1955.0,7.0,1,
86201,0.0,15.8,0.0,0.0,303.0,1955.0,7.0,1,
86301,0.0,15.1,0.0,0.0,303.0,1955.0,7.0,1,
86401,0.0,16.7,0.0,0.0,303.0,1955.0,7.0,1,
86501,0.0,16.4,0.0,0.0,303.0,1955.0,7.0,1,
86601,0.0,51.1,0.0,0.0,303.0,1955.0,7.0,1,
86701,0.0,118.8,0.0,0.0,305.0,2552.0,10.0,1,
86801,0.0,96.9,0.0,0.0,325.0,2447.0,5.0,1,
86901,0.0,72.1,0.0,0.0,319.0,2445.0,5.0,1,
87001,0.0,83.8,0.0,0.0,319.0,2445.0,5.0,1,
87101,0.0,110.1,0.0,0.0,270.0,2075.0,7.0,1,
87201,0.0,44.2,0.0,0.0,290.0,1894.0,6.0,1,
87301,0.0,19.0,0.0,0.0,290.0,1894.0,6.0,1,
87401,0.0,15.6,0.0,0.0,290.0,1894.0,6.0,1,
87501,0.0,16.2,0.0,0.0,290.0,1894.0,6.0,1,
87601,0.0,14.9,0.0,0.0,290.0,1894.0,6.0,1,
87701,0.0,15.4,0.0,0.0,290.0,1894.0,6.0,1,
87801,0.0,14.5,0.0,0.0,290.0,1894.0,6.0,1,
87901,0.0,13.7,0.0,0.0,290.0,1894.0,6.0,1,
88001,0.0,14.2,0.0,0.0,290.0,1894.0,6.0,1,
88101,0.0,14.3,0.0,0.0,290.0,1894.0,6.0,1,
88201,0.0,48.0,0.0,0.0,290.0,1894.0,6.0,1,
88301,0.0,92.7,0.0,0.0,290.0,1894.0,6.0,1,
88401,0.0,102.7,0.0,0.0,292.0,2148.0,8.0,1,
88501,0.0,87.2,0.0,0.0,267.0,2031.0,6.0,1,
88601,0.0,61.4,0.0,0.0,311.0,2129.0,7.0,1,
88701,0.0,77.3,0.0,0.0,311.0,2129.0,7.0,1,
88801,0.0,53.9,0.0,0.0,277.0,1641.0,7.0,1,
88901,0.0,15.2,0.0,0.0,277.0,1641.0,7.0,1,
89001,0.0,17.2,0.0,0.0,277.0,1641.0,7.0,1,
89101,0.0,14.9,0.0,0.0,277.0,1641.0,7.0,1,
89201,0.0,16.6,0.0,0.0,277.0,1641.0,7.0,1,
89301,0.0,14.8,0.0,0.0,277.0,1641.0,7.0,1,
89401,0.0,15.9,0.0,0.0,277.0,1641.0,7.0,1,
89501,0.0,13.8,0.0,0.0,277.0,1641.0,7.0,1,
89601,0.0,17.6,0.0,0.0,277.0,1641.0,7.0,1,
89701,0.0,14.0,0.0,0.0,277.0,1641.0,7.0,1,
89801,0.0,42.1,0.0,0.0,277.0,1641.0,7.0,1,
89901,0.0,37.4,0.0,0.0,178.0,1139.0,5.0,1,
90001,0.0,38.9,0.0,0.0,178.0,1139.0,5.0,1,
90101,0.0,110.1,0.0,0.0,288.0,2222.0,8.0,1,
90201,0.0,94.3,0.0,0.0,333.0,2390.0,5.0,1,
90301,0.0,74.5,0.0,0.0,320.0,2354.0,5.0,1,
90401,0.0,66.6,0.0,0.0,321.0,2184.0,7.0,1,
90501,0.0,17.9,0.0,0.0,321.0,2184.0,7.0,1,
90601,0.0,14.6,0.0,0.0,321.0,2184.0,7.0,1,
90701,0.0,13.9,0.0,0.0,321.0,2184.0,7.0,1,
90801,0.0,16.0,0.0,0.0,321.0,2184.0,7.0,1,
90901,0.0,16.1,0.0,0.0,321.0,2184.0,7.0,1,
91001,0.0,17.1,0.0,0.0,321.0,2184.0,7.0,1,
91101,0.0,14.5,0.0,0.0,321.0,2184.0,7.0,1,
91201,0.0,15.8,0.0,0.0,321.0,2184.0,7.0,1,
91301,0.0,13.9,0.0,0.0,321.0,2184.0,7.0,1,
91401,0.0,52.1,0.0,0.0,321.0,2184.0,7.0,1,
91501,0.0,82.1,0.0,0.0,221.0,1633.0,6.0,1,
91601,0.0,85.5,0.0,0.0,291.0,2581.0,7.0,1,
91701,0.0,97.4,0.0,0.0,291.0,2581.0,7.0,1,
91801,0.0,108.7,0.0,0.0,285.0,2100.0,7.0,1,
91901,0.0,81.2,0.0,0.0,309.0,2069.0,7.0,1,
92001,0.0,57.2,0.0,0.0,286.0,1790.0,6.0,1,
92101,0.0,17.8,0.0,0.0,286.0,1790.0,6.0,1,
92201,0.0,16.6,0.0,0.0,286.0,1790.0,6.0,1,
92301,0.0,15.6,0.0,0.0,286.0,1790.0,6.0,1,
92401,0.0,14.0,0.0,0.0,286.0,1790.0,6.0,1,
92501,0.0,15.9,0.0,0.0,286.0,1790.0,6.0,1,
92601,0.0,15.8,0.0,0.0,286.0,1790.0,6.0,1,
92701,0.0,16.7,0.0,0.0,286.0,1790.0,6.0,1,
92801,0.0,13.9,0.0,0.0,286.0,1790.0,6.0,1,
92901,0.0,15.5,0.0,0.0,286.0,1790.0,6.0,1,
93001,0.0,38.9,0.0,0.0,286.0,1790.0,6.0,1,
93101,0.0,97.1,0.0,0.0,286.0,1790.0,6.0,1,
93201,0.0,106.3,0.0,0.0,364.0,2402.0,6.0,1,
93301,0.0,79.6,0.0,0.0,297.0,2310.0,7.0,1,
93401,0.0,79.6,0.0,0.0,297.0,2310.0,7.0,1,
93501,0.0,88.0,0.0,0.0,265.0,1715.0,7.0,1,
93601,0.0,83.1,0.0,0.0,300.0,1865.0,4.0,1,
93701,0.0,21.1,0.0,0.0,309.0,1902.0,6.0,1,
93801,0.0,17.0,0.0,0.0,309.0,1902.0,6.0,1,
93901,0.0,16.2,0.0,0.0,309.0,1902.0,6.0,1,
94001,0.0,15.6,0.0,0.0,309.0,1902.0,6.0,1,
94101,0.0,16.4,0.0,0.0,309.0,1902.0,6.0,1,
94201,0.0,16.5,0.0,0.0,309.0,1902.0,6.0,1,
94301,0.0,16.6,0.0,0.0,309.0,1902.0,6.0,1,
94401,0.0,16.0,0.0,0.0,309.0,1902.0,6.0,1,
94501,0.0,18.6,0.0,0.0,309.0,1902.0,6.0,1,
94601,0.0,27.6,0.0,0.0,309.0,1902.0,6.0,1,
94701,0.0,56.3,0.0,0.0,309.0,1902.0,6.0,1,
94801,0.0,72.9,0.0,0.0,309.0,1902.0,6.0,1,
94901,0.0,109.8,0.0,0.0,343.0,2453.0,6.0,1,
95001,0.0,73.4,0.0,0.0,284.0,1820.0,7.0,1,
95101,0.0,79.4,0.0,0.0,284.0,1820.0,7.0,1,
95201,0.0,90.3,0.0,0.0,248.0,1731.0,6.0,1,
95301,0.0,21.1,0.0,0.0,266.0,1883.0,7.0,1,
95401,0.0,13.8,0.0,0.0,266.0,1883.0,7.0,1,
95501,0.0,18.1,0.0,0.0,266.0,1883.0,7.0,1,
95601,0.0,17.0,0.0,0.0,266.0,1883.0,7.0,1,
95701,0.0,15.9,0.0,0.0,266.0,1883.0,7.0,1,
95801,0.0,15.9,0.0,0.0,266.0,1883.0,7.0,1,
95901,0.0,16.4,0.0,0.0,266.0,1883.0,7.0,1,
96001,0.0,15.3,0.0,0.0,266.0,1883.0,7.0,1,
96101,0.0,14.3,0.0,0.0,266.0,1883.0,7.0,1,
96201,0.0,17.0,0.0,0.0,266.0,1883.0,7.0,1,
96301,0.0,81.4,0.0,0.0,184.0,1578.0,3.0,1,
96401,0.0,92.8,0.0,0.0,199.0,1568.0,5.0,1,
96501,0.0,91.9,0.0,0.0,199.0,1568.0,5.0,1,
96601,0.0,106.8,0.0,0.0,318.0,2196.0,7.0,1,
96701,0.0,79.8,0.0,0.0,259.0,1681.0,5.0,1,
96801,0.0,90.3,0.0,0.0,353.0,2250.0,6.0,1,
96901,0.0,17.8,0.0,0.0,353.0,2250.0,6.0,1,
97001,0.0,17.4,0.0,0.0,353.0,2250.0,6.0,1,
97101,0.0,17.3,0.0,0.0,353.0,2250.0,6.0,1,
97201,0.0,15.9,0.0,0.0,353.0,2250.0,6.0,1,
97301,0.0,14.3,0.0,0.0,353.0,2250.0,6.0,1,
97401,0.0,15.4,0.0,0.0,353.0,2250.0,6.0,1,
97501,0.0,15.5,0.0,0.0,353.0,2250.0,6.0,1,
97601,0.0,15.3,0.0,0.0,353.0,2250.0,6.0,1,
97701,0.0,13.7,0.0,0.0,353.0,2250.0,6.0,1,
97801,0.0,16.0,0.0,0.0,353.0,2250.0,6.0,1,
97901,0.0,59.1,0.0,0.0,353.0,2250.0,6.0,1,
98001,0.0,122.5,0.0,0.0,287.0,2606.0,12.0,1,
98101,0.0,120.4,0.0,0.0,339.0,2547.0,6.0,1,
98201,0.0,87.9,0.0,0.0,343.0,2551.0,5.0,1,
98301,0.0,94.8,0.0,0.0,333.0,1946.0,6.0,1,
98401,0.0,95.4,0.0,0.0,291.0,1803.0,6.0,1,
98501,0.0,22.1,0.0,0.0,295.0,1778.0,4.0,1,
98601,0.0,16.2,0.0,0.0,295.0,1778.0,4.0,1,
98701,0.0,16.0,0.0,0.0,295.0,1778.0,4.0,1,
98801,0.0,13.5,0.0,0.0,295.0,1778.0,4.0,1,
98901,0.0,14.6,0.0,0.0,295.0,1778.0,4.0,1,
99001,0.0,14.7,0.0,0.0,295.0,1778.0,4.0,1,
99101,0.0,16.0,0.0,0.0,295.0,1778.0,4.0,1,
99201,0.0,15.3,0.0,0.0,295.0,1778.0,4.0,1,
99301,0.0,14.4,0.0,0.0,295.0,1778.0,4.0,1,
99401,0.0,14.1,0.0,0.0,295.0,1778.0,4.0,1,
99501,0.0,58.9,0.0,0.0,200.0,1180.0,4.0,1,
99601,0.0,64.5,0.0,0.0,200.0,1180.0,4.0,1,
99701,0.0,108.6,0.0,0.0,242.0,1657.0,4.0,1,
99801,0.0,85.1,0.0,0.0,245.0,1359.0,5.0,1,
99901,0.0,103.6,0.0,0.0,335.0,2599.0,5.0,1,
100001,0.0,110.5,0.0,0.0,347.0,2643.0,5.0,1,
100101,0.0,26.2,0.0,0.0,382.0,2275.0,6.0,1,
100201,0.0,15.7,0.0,0.0,382.0,2275.0,6.0,1,
100301,0.0,12.8,0.0,0.0,382.0,2275.0,6.0,1,
100401,0.0,15.1,0.0,0.0,382.0,2275.0,6.0,1,
100501,0.0,15.2,0.0,0.0,382.0,2275.0,6.0,1,
100601,0.0,14.9,0.0,0.0,382.0,2275.0,6.0,1,
100701,0.0,16.1,0.0,0.0,382.0,2275.0,6.0,1,
100801,0.0,16.9,0.0,0.0,382.0,2275.0,6.0,1,
100901,0.0,15.4,0.0,0.0,382.0,2275.0,6.0,1,
101001,0.0,14.1,0.0,0.0,382.0,2275.0,6.0,1,
101101,0.0,96.4,0.0,0.0,168.0,1356.0,3.0,1,
101201,0.0,62.6,0.0,0.0,204.0,1397.0,2.0,1,
101301,0.0,45.2,0.0,0.0,220.0,1307.0,3.0,1,
101401,0.0,131.0,0.0,0.0,240.0,1868.0,4.0,1,
101501,0.0,102.9,0.0,0.0,266.0,1769.0,3.0,1,
101601,0.0,69.8,0.0,0.0,177.0,1252.0,5.0,1,
101701,0.0,22.9,0.0,0.0,232.0,1619.0,4.0,1,
101801,0.0,16.4,0.0,0.0,232.0,1619.0,4.0,1,
101901,0.0,15.0,0.0,0.0,232.0,1619.0,4.0,1,
102001,0.0,13.9,0.0,0.0,232.0,1619.0,4.0,1,
102101,0.0,15.6,0.0,0.0,232.0,1619.0,4.0,1,
102201,0.0,15.2,0.0,0.0,232.0,1619.0,4.0,1,
102301,0.0,14.5,0.0,0.0,232.0,1619.0,4.0,1,
102401,0.0,14.4,0.0,0.0,232.0,1619.0,4.0,1,
102501,0.0,14.3,0.0,0.0,232.0,1619.0,4.0,1,
102601,0.0,14.0,0.0,0.0,232.0,1619.0,4.0,1,
102701,0.0,102.1,0.0,0.0,253.0,2116.0,5.0,1,
102801,0.0,143.7,0.0,0.0,284.0,2165.0,6.0,1,
102901,0.0,125.6,0.0,0.0,387.0,3318.0,11.0,1,
103001,0.0,102.7,0.0,0.0,364.0,3217.0,6.0,1,
103101,0.0,140.9,0.0,0.0,340.0,2294.0,6.0,1,
103201,0.0,125.6,0.0,0.0,349.0,2008.0,6.0,1,
103301,0.0,31.2,0.0,0.0,309.0,1909.0,6.0,1,
103401,0.0,15.9,0.0,0.0,309.0,1909.0,6.0,1,
103501,0.0,15.9,0.0,0.0,309.0,1909.0,6.0,1,
103601,0.0,14.8,0.0,0.0,309.0,1909.0,6.0,1,
103701,0.0,14.4,0.0,0.0,309.0,1909.0,6.0,1,
103801,0.0,14.4,0.0,0.0,309.0,1909.0,6.0,1,
103901,0.0,14.2,0.0,0.0,309.0,1909.0,6.0,1,
104001,0.0,15.8,0.0,0.0,309.0,1909.0,6.0,1,
104101,0.0,16.0,0.0,0.0,309.0,1909.0,6.0,1,
104201,0.0,15.4,0.0,0.0,309.0,1909.0,6.0,1,
104301,0.0,71.1,0.0,0.0,213.0,1882.0,3.0,1,
104401,0.0,106.3,0.0,0.0,277.0,2611.0,12.0,1,
104501,0.0,170.9,0.0,0.0,346.0,2956.0,5.0,1,
104601,0.0,116.0,0.0,0.0,306.0,2596.0,5.0,1,
104701,0.0,74.0,0.0,0.0,308.0,2167.0,5.0,1,
104801,0.0,94.6,0.0,0.0,308.0,2167.0,5.0,1,
104901,0.0,36.4,0.0,0.0,290.0,1948.0,5.0,1,
105001,0.0,15.5,0.0,0.0,290.0,1948.0,5.0,1,
105101,0.0,14.1,0.0,0.0,290.0,1948.0,5.0,1,
105201,0.0,15.2,0.0,0.0,290.0,1948.0,5.0,1,
105301,0.0,16.3,0.0,0.0,290.0,1948.0,5.0,1,
105401,0.0,13.3,0.0,0.0,290.0,1948.0,5.0,1,
105501,0.0,13.4,0.0,0.0,290.0,1948.0,5.0,1,
105601,0.0,13.9,0.0,0.0,290.0,1948.0,5.0,1,
105701,0.0,15.4,0.0,0.0,290.0,1948.0,5.0,1,
105801,0.0,15.6,0.0,0.0,290.0,1948.0,5.0,1,
105901,0.0,75.1,0.0,0.0,209.0,1699.0,2.0,1,
106001,0.0,109.3,0.0,0.0,378.0,2920.0,8.0,1,
106101,0.0,88.3,0.0,0.0,343.0,2842.0,8.0,1,
106201,0.0,126.5,0.0,0.0,314.0,2053.0,7.0,1,
106301,0.0,81.7,0.0,0.0,237.0,1605.0,7.0,1,
106401,0.0,64.2,0.0,0.0,254.0,1742.0,6.0,1,
106501,0.0,32.2,0.0,0.0,254.0,1742.0,6.0,1,
106601,0.0,16.5,0.0,0.0,254.0,1742.0,6.0,1,
106701,0.0,16.8,0.0,0.0,254.0,1742.0,6.0,1,
106801,0.0,15.5,0.0,0.0,254.0,1742.0,6.0,1,
106901,0.0,18.5,0.0,0.0,254.0,1742.0,6.0,1,
107001,0.0,14.6,0.0,0.0,254.0,1742.0,6.0,1,
107101,0.0,15.7,0.0,0.0,254.0,1742.0,6.0,1,
107201,0.0,15.3,0.0,0.0,254.0,1742.0,6.0,1,
107301,0.0,14.8,0.0,0.0,254.0,1742.0,6.0,1,
107401,0.0,17.4,0.0,0.0,254.0,1742.0,6.0,1,
107501,0.0,53.2,0.0,0.0,254.0,1742.0,6.0,1,
107601,0.0,78.0,0.0,0.0,153.0,1364.0,4.0,1,
107701,0.0,53.0,0.0,0.0,191.0,1256.0,4.0,1,
107801,0.0,83.7,0.0,0.0,191.0,1256.0,4.0,1,
107901,0.0,128.2,0.0,0.0,317.0,2229.0,6.0,1,
108001,0.0,90.5,0.0,0.0,307.0,1965.0,6.0,1,
108101,0.0,36.4,0.0,0.0,288.0,1844.0,6.0,1,
108201,0.0,15.2,0.0,0.0,288.0,1844.0,6.0,1,
108301,0.0,16.3,0.0,0.0,288.0,1844.0,6.0,1,
108401,0.0,19.1,0.0,0.0,288.0,1844.0,6.0,1,
108501,0.0,15.5,0.0,0.0,288.0,1844.0,6.0,1,
108601,0.0,14.4,0.0,0.0,288.0,1844.0,6.0,1,
108701,0.0,15.5,0.0,0.0,288.0,1844.0,6.0,1,
108801,0.0,16.0,0.0,0.0,288.0,1844.0,6.0,1,
108901,0.0,16.1,0.0,0.0,288.0,1844.0,6.0,1,
109001,0.0,15.5,0.0,0.0,288.0,1844.0,6.0,1,
109101,0.0,39.6,0.0,0.0,288.0,1844.0,6.0,1,
109201,0.0,116.6,0.0,0.0,288.0,1844.0,6.0,1,
109301,0.0,126.5,0.0,0.0,358.0,3009.0,9.0,1,
109401,0.0,86.3,0.0,0.0,301.0,2241.0,7.0,1,
109501,0.0,67.9,0.0,0.0,301.0,2238.0,6.0,1,
109601,0.0,105.9,0.0,0.0,310.0,1880.0,4.0,1,
109701,0.0,50.0,0.0,0.0,234.0,1604.0,6.0,1,
109801,0.0,17.4,0.0,0.0,234.0,1604.0,6.0,1,
109901,0.0,16.0,0.0,0.0,234.0,1604.0,6.0,1,
110001,0.0,14.6,0.0,0.0,234.0,1604.0,6.0,1,
110101,0.0,18.0,0.0,0.0,234.0,1604.0,6.0,1,
110201,0.0,17.8,0.0,0.0,234.0,1604.0,6.0,1,
110301,0.0,14.3,0.0,0.0,234.0,1604.0,6.0,1,
110401,0.0,15.5,0.0,0.0,234.0,1604.0,6.0,1,
110501,0.0,17.2,0.0,0.0,234.0,1604.0,6.0,1,
110601,0.0,16.0,0.0,0.0,234.0,1604.0,6.0,1,
110701,0.0,53.4,0.0,0.0,190.0,1681.0,5.0,1,
110801,0.0,74.4,0.0,0.0,222.0,1698.0,6.0,1,
110901,0.0,110.7,0.0,0.0,222.0,1698.0,6.0,1,
111001,0.0,110.9,0.0,0.0,311.0,2488.0,6.0,1,
111101,0.0,83.8,0.0,0.0,304.0,2045.0,6.0,1,
111201,0.0,73.0,0.0,0.0,231.0,1805.0,6.0,1,
111301,0.0,44.6,0.0,0.0,231.0,1805.0,6.0,1,
111401,0.0,16.6,0.0,0.0,231.0,1805.0,6.0,1,
111501,0.0,16.3,0.0,0.0,231.0,1805.0,6.0,1,
111601,0.0,13.1,0.0,0.0,231.0,1805.0,6.0,1,
111701,0.0,14.2,0.0,0.0,231.0,1805.0,6.0,1,
111801,0.0,17.3,0.0,0.0,231.0,1805.0,6.0,1,
111901,0.0,14.3,0.0,0.0,231.0,1805.0,6.0,1,
112001,0.0,16.3,0.0,0.0,231.0,1805.0,6.0,1,
112101,0.0,17.0,0.0,0.0,231.0,1805.0,6.0,1,
112201,0.0,14.2,0.0,0.0,231.0,1805.0,6.0,1,
112301,0.0,39.0,0.0,0.0,231.0,1805.0,6.0,1,
112401,0.0,66.1,0.0,0.0,225.0,1386.0,5.0,1,
112501,0.0,81.9,0.0,0.0,281.0,1912.0,6.0,1,
112601,0.0,61.8,0.0,0.0,237.0,1688.0,5.0,1,
112701,0.0,83.0,0.0,0.0,241.0,1538.0,6.0,1,
112801,0.0,62.4,0.0,0.0,207.0,1169.0,5.0,1,
112901,0.0,42.8,0.0,0.0,249.0,1234.0,5.0,1,
113001,0.0,15.4,0.0,0.0,249.0,1234.0,5.0,1,
113101,0.0,14.8,0.0,0.0,249.0,1234.0,5.0,1,
113201,0.0,15.2,0.0,0.0,249.0,1234.0,5.0,1,
113301,0.0,14.2,0.0,0.0,249.0,1234.0,5.0,1,
113401,0.0,15.4,0.0,0.0,249.0,1234.0,5.0,1,
113501,0.0,14.6,0.0,0.0,249.0,1234.0,5.0,1,
113601,0.0,15.5,0.0,0.0,249.0,1234.0,5.0,1,
113701,0.0,14.2,0.0,0.0,249.0,1234.0,5.0,1,
113801,0.0,15.6,0.0,0.0,249.0,1234.0,5.0,1,
113901,0.0,35.3,0.0,0.0,249.0,1234.0,5.0,1,
114001,0.0,63.5,0.0,0.0,249.0,1234.0,5.0,1,
114101,0.0,79.5,0.0,0.0,206.0,1481.0,6.0,1,
114201,0.0,77.8,0.0,0.0,230.0,1654.0,5.0,1,
114301,0.0,59.5,0.0,0.0,230.0,1654.0,5.0,1,
114401,0.0,84.5,0.0,0.0,250.0,1406.0,5.0,1,
114501,0.0,93.3,0.0,0.0,274.0,1788.0,5.0,1,
114601,0.0,18.7,0.0,0.0,350.0,2589.0,5.0,1,
114701,0.0,12.5,0.0,0.0,350.0,2589.0,5.0,1,
114801,0.0,14.8,0.0,0.0,350.0,2589.0,5.0,1,
114901,0.0,14.7,0.0,0.0,350.0,2589.0,5.0,1,
115001,0.0,13.0,0.0,0.0,350.0,2589.0,5.0,1,
115101,0.0,14.4,0.0,0.0,350.0,2589.0,5.0,1,
115201,0.0,16.4,0.0,0.0,350.0,2589.0,5.0,1,
115301,0.0,14.8,0.0,0.0,350.0,2589.0,5.0,1,
115401,0.0,14.1,0.0,0.0,350.0,2589.0,5.0,1,
115501,0.0,40.6,0.0,0.0,350.0,2589.0,5.0,1,
115601,0.0,52.6,0.0,0.0,350.0,2589.0,5.0,1,
115701,0.0,78.1,0.0,0.0,350.0,2589.0,5.0,1,
115801,0.0,71.6,0.0,0.0,240.0,1361.0,5.0,1,
115901,0.0,78.5,0.0,0.0,270.0,1672.0,5.0,1,
116001,0.0,57.9,0.0,0.0,270.0,1672.0,5.0,1,
116101,0.0,91.1,0.0,0.0,275.0,1524.0,6.0,1,
116201,0.0,18.2,0.0,0.0,311.0,1769.0,4.0,1,
116301,0.0,12.4,0.0,0.0,311.0,1769.0,4.0,1,
116401,0.0,13.5,0.0,0.0,311.0,1769.0,4.0,1,
116501,0.0,15.7,0.0,0.0,311.0,1769.0,4.0,1,
116601,0.0,14.0,0.0,0.0,311.0,1769.0,4.0,1,
116701,0.0,13.3,0.0,0.0,311.0,1769.0,4.0,1,
116801,0.0,11.6,0.0,0.0,311.0,1769.0,4.0,1,
116901,0.0,12.9,0.0,0.0,311.0,1769.0,4.0,1,
117001,0.0,14.3,0.0,0.0,311.0,1769.0,4.0,1,
117101,0.0,66.2,0.0,0.0,311.0,1769.0,4.0,1,
117201,0.0,96.2,0.0,0.0,179.0,1351.0,3.0,1,
117301,0.0,54.7,0.0,0.0,234.0,1164.0,4.0,1,
117401,0.0,54.0,0.0,0.0,234.0,1164.0,4.0,1,
117501,0.0,63.1,0.0,0.0,224.0,1091.0,4.0,1,
117601,0.0,81.2,0.0,0.0,225.0,1429.0,4.0,1,
117701,0.0,55.5,0.0,0.0,240.0,1204.0,3.0,1,
117801,0.0,18.5,0.0,0.0,240.0,1204.0,3.0,1,
117901,0.0,14.9,0.0,0.0,240.0,1204.0,3.0,1,
118001,0.0,12.1,0.0,0.0,240.0,1204.0,3.0,1,
118101,0.0,15.5,0.0,0.0,240.0,1204.0,3.0,1,
118201,0.0,14.5,0.0,0.0,240.0,1204.0,3.0,1,
118301,0.0,14.4,0.0,0.0,240.0,1204.0,3.0,1,
118401,0.0,13.6,0.0,0.0,240.0,1204.0,3.0,1,
118501,0.0,15.3,0.0,0.0,240.0,1204.0,3.0,1,
118601,0.0,13.6,0.0,0.0,240.0,1204.0,3.0,1,
118701,0.0,13.6,0.0,0.0,240.0,1204.0,3.0,1,
118801,0.0,81.1,0.0,0.0,162.0,1211.0,6.0,1,
118901,0.0,98.8,0.0,0.0,221.0,1322.0,5.0,1,
119001,0.0,83.3,0.0,0.0,261.0,2003.0,5.0,1,
119101,0.0,76.1,0.0,0.0,261.0,2003.0,5.0,1,
119201,0.0,76.0,0.0,0.0,204.0,1490.0,6.0,1,
119301,0.0,89.4,0.0,0.0,246.0,1292.0,3.0,1,
119401,0.0,22.3,0.0,0.0,297.0,1894.0,5.0,1,
119501,0.0,16.0,0.0,0.0,297.0,1894.0,5.0,1,
119601,0.0,15.7,0.0,0.0,297.0,1894.0,5.0,1,
119701,0.0,16.0,0.0,0.0,297.0,1894.0,5.0,1,
119801,0.0,15.5,0.0,0.0,297.0,1894.0,5.0,1,
119901,0.0,15.1,0.0,0.0,297.0,1894.0,5.0,1,
120001,0.0,14.1,0.0,0.0,297.0,1894.0,5.0,1,
120101,0.0,15.2,0.0,0.0,297.0,1894.0,5.0,1,
120201,0.0,16.0,0.0,0.0,297.0,1894.0,5.0,1,
120301,0.0,15.4,0.0,0.0,297.0,1894.0,5.0,1,
120401,0.0,39.5,0.0,0.0,297.0,1894.0,5.0,1,
120501,0.0,86.1,0.0,0.0,297.0,1894.0,5.0,1,
120601,0.0,127.0,0.0,0.0,231.0,1531.0,6.0,1,
120701,0.0,67.5,0.0,0.0,226.0,1188.0,5.0,1,
120801,0.0,76.1,0.0,0.0,185.0,1151.0,6.0,1,
120901,0.0,101.4,0.0,0.0,387.0,2874.0,6.0,1,
121001,0.0,26.0,0.0,0.0,370.0,2917.0,6.0,1,
121101,0.0,15.0,0.0,0.0,370.0,2917.0,6.0,1,
121201,0.0,14.5,0.0,0.0,370.0,2917.0,6.0,1,
121301,0.0,13.3,0.0,0.0,370.0,2917.0,6.0,1,
121401,0.0,17.1,0.0,0.0,370.0,2917.0,6.0,1,
121501,0.0,19.4,0.0,0.0,370.0,2917.0,6.0,1,
121601,0.0,14.6,0.0,0.0,370.0,2917.0,6.0,1,
121701,0.0,18.0,0.0,0.0,370.0,2917.0,6.0,1,
121801,0.0,17.2,0.0,0.0,370.0,2917.0,6.0,1,
121901,0.0,13.1,0.0,0.0,370.0,2917.0,6.0,1,
122001,0.0,75.5,0.0,0.0,139.0,1058.0,3.0,1,
122101,0.0,77.4,0.0,0.0,279.0,2103.0,5.0,1,
122201,0.0,54.1,0.0,0.0,279.0,2103.0,5.0,1,
122301,0.0,121.6,0.0,0.0,295.0,1846.0,6.0,1,
122401,0.0,118.5,0.0,0.0,367.0,3006.0,6.0,1,
122501,0.0,97.0,0.0,0.0,352.0,2752.0,6.0,1,
122601,0.0,26.8,0.0,0.0,352.0,2752.0,6.0,1,
122701,0.0,18.2,0.0,0.0,352.0,2752.0,6.0,1,
122801,0.0,14.5,0.0,0.0,352.0,2752.0,6.0,1,
122901,0.0,14.6,0.0,0.0,352.0,2752.0,6.0,1,
123001,0.0,15.6,0.0,0.0,352.0,2752.0,6.0,1,
123101,0.0,15.7,0.0,0.0,352.0,2752.0,6.0,1,
123201,0.0,15.3,0.0,0.0,352.0,2752.0,6.0,1,
123301,0.0,16.5,0.0,0.0,352.0,2752.0,6.0,1,
123401,0.0,14.2,0.0,0.0,352.0,2752.0,6.0,1,
123501,0.0,17.0,0.0,0.0,352.0,2752.0,6.0,1,
123601,0.0,60.4,0.0,0.0,352.0,2752.0,6.0,1,
123701,0.0,109.7,0.0,0.0,248.0,2019.0,16.0,1,
123801,0.0,68.3,0.0,0.0,254.0,1742.0,5.0,1,
123901,0.0,38.8,0.0,0.0,253.0,1341.0,4.0,1,
124001,0.0,135.4,0.0,0.0,379.0,2574.0,6.0,1,
124101,0.0,124.4,0.0,0.0,392.0,2963.0,6.0,1,
124201,0.0,32.5,0.0,0.0,355.0,2649.0,4.0,1,
124301,0.0,15.2,0.0,0.0,355.0,2649.0,4.0,1,
124401,0.0,13.6,0.0,0.0,355.0,2649.0,4.0,1,
124501,0.0,15.8,0.0,0.0,355.0,2649.0,4.0,1,
124601,0.0,14.1,0.0,0.0,355.0,2649.0,4.0,1,
124701,0.0,16.2,0.0,0.0,355.0,2649.0,4.0,1,
124801,0.0,15.5,0.0,0.0,355.0,2649.0,4.0,1,
124901,0.0,12.7,0.0,0.0,355.0,2649.0,4.0,1,
125001,0.0,15.2,0.0,0.0,355.0,2649.0,4.0,1,
125101,0.0,15.4,0.0,0.0,355.0,2649.0,4.0,1,
125201,0.0,46.2,0.0,0.0,355.0,2649.0,4.0,1,
125301,0.0,73.2,0.0,0.0,355.0,2649.0,4.0,1,
125401,0.0,112.8,0.0,0.0,193.0,1663.0,4.0,1,
125501,0.0,79.0,0.0,0.0,226.0,1702.0,4.0,1,
125601,0.0,48.3,0.0,0.0,196.0,1232.0,5.0,1,
125701,0.0,112.3,0.0,0.0,235.0,1496.0,5.0,1,
125801,0.0,29.1,0.0,0.0,236.0,1294.0,5.0,1,
125901,0.0,15.3,0.0,0.0,236.0,1294.0,5.0,1,
126001,0.0,17.4,0.0,0.0,236.0,1294.0,5.0,1,
126101,0.0,13.7,0.0,0.0,236.0,1294.0,5.0,1,
126201,0.0,13.7,0.0,0.0,236.0,1294.0,5.0,1,
126301,0.0,14.8,0.0,0.0,236.0,1294.0,5.0,1,
126401,0.0,14.3,0.0,0.0,236.0,1294.0,5.0,1,
126501,0.0,16.0,0.0,0.0,236.0,1294.0,5.0,1,
126601,0.0,15.0,0.0,0.0,236.0,1294.0,5.0,1,
126701,0.0,13.1,0.0,0.0,236.0,1294.0,5.0,1,
126801,0.0,56.6,0.0,0.0,196.0,1239.0,4.0,1,
126901,0.0,59.0,0.0,0.0,234.0,1310.0,3.0,1,
127001,0.0,70.1,0.0,0.0,234.0,1310.0,3.0,1,
127101,0.0,99.3,0.0,0.0,257.0,1352.0,3.0,1,
127201,0.0,74.2,0.0,0.0,272.0,1660.0,5.0,1,
127301,0.0,55.0,0.0,0.0,279.0,1568.0,5.0,1,
127401,0.0,30.4,0.0,0.0,279.0,1568.0,5.0,1,
127501,0.0,16.4,0.0,0.0,279.0,1568.0,5.0,1,
127601,0.0,14.1,0.0,0.0,279.0,1568.0,5.0,1,
127701,0.0,16.8,0.0,0.0,279.0,1568.0,5.0,1,
127801,0.0,17.2,0.0,0.0,279.0,1568.0,5.0,1,
127901,0.0,12.5,0.0,0.0,279.0,1568.0,5.0,1,
128001,0.0,17.3,0.0,0.0,279.0,1568.0,5.0,1,
128101,0.0,15.0,0.0,0.0,279.0,1568.0,5.0,1,
128201,0.0,15.9,0.0,0.0,279.0,1568.0,5.0,1,
128301,0.0,13.7,0.0,0.0,279.0,1568.0,5.0,1,
128401,0.0,63.1,0.0,0.0,154.0,1018.0,3.0,1,
128501,0.0,87.2,0.0,0.0,203.0,1707.0,4.0,1,
128601,0.0,87.4,0.0,0.0,271.0,2166.0,5.0,1,
128701,0.0,76.7,0.0,0.0,271.0,2166.0,5.0,1,
128801,0.0,98.7,0.0,0.0,238.0,1490.0,4.0,1,
128901,0.0,80.2,0.0,0.0,247.0,1428.0,5.0,1,
129001,0.0,42.1,0.0,0.0,376.0,2417.0,5.0,1,
129101,0.0,17.2,0.0,0.0,376.0,2417.0,5.0,1,
129201,0.0,13.6,0.0,0.0,376.0,2417.0,5.0,1,
129301,0.0,16.6,0.0,0.0,376.0,2417.0,5.0,1,
129401,0.0,16.3,0.0,0.0,376.0,2417.0,5.0,1,
129501,0.0,15.9,0.0,0.0,376.0,2417.0,5.0,1,
129601,0.0,16.6,0.0,0.0,376.0,2417.0,5.0,1,
129701,0.0,14.4,0.0,0.0,376.0,2417.0,5.0,1,
129801,0.0,15.8,0.0,0.0,376.0,2417.0,5.0,1,
129901,0.0,16.2,0.0,0.0,376.0,2417.0,5.0,1,
130001,0.0,37.1,0.0,0.0,376.0,2417.0,5.0,1,
130101,0.0,89.2,0.0,0.0,202.0,1698.0,4.0,1,
130201,0.0,82.8,0.0,0.0,232.0,1562.0,6.0,1,
130301,0.0,66.4,0.0,0.0,245.0,1656.0,3.0,1,
130401,0.0,65.7,0.0,0.0,245.0,1656.0,3.0,1,
130501,0.0,98.2,0.0,0.0,238.0,1455.0,3.0,1,
130601,0.0,37.9,0.0,0.0,252.0,1174.0,5.0,1,
130701,0.0,15.6,0.0,0.0,252.0,1174.0,5.0,1,
130801,0.0,15.3,0.0,0.0,252.0,1174.0,5.0,1,
130901,0.0,15.9,0.0,0.0,252.0,1174.0,5.0,1,
131001,0.0,16.3,0.0,0.0,252.0,1174.0,5.0,1,
131101,0.0,13.5,0.0,0.0,252.0,1174.0,5.0,1,
131201,0.0,13.2,0.0,0.0,252.0,1174.0,5.0,1,
131301,0.0,14.0,0.0,0.0,252.0,1174.0,5.0,1,
131401,0.0,15.2,0.0,0.0,252.0,1174.0,5.0,1,
131501,0.0,16.1,0.0,0.0,252.0,1174.0,5.0,1,
131601,0.0,60.9,0.0,0.0,161.0,1222.0,3.0,1,
131701,0.0,60.2,0.0,0.0,179.0,1477.0,4.0,1,
131801,0.0,88.3,0.0,0.0,179.0,1477.0,4.0,1,
131901,0.0,98.6,0.0,0.0,232.0,1619.0,5.0,1,
132001,0.0,83.9,0.0,0.0,219.0,1741.0,4.0,1,
132101,0.0,70.8,0.0,0.0,301.0,1320.0,4.0,1,
132201,0.0,44.6,0.0,0.0,249.0,1487.0,5.0,1,
132301,0.0,20.8,0.0,0.0,249.0,1487.0,5.0,1,
132401,0.0,14.6,0.0,0.0,249.0,1487.0,5.0,1,
132501,0.0,15.4,0.0,0.0,249.0,1487.0,5.0,1,
132601,0.0,15.0,0.0,0.0,249.0,1487.0,5.0,1,
132701,0.0,12.4,0.0,0.0,249.0,1487.0,5.0,1,
132801,0.0,15.5,0.0,0.0,249.0,1487.0,5.0,1,
132901,0.0,16.7,0.0,0.0,249.0,1487.0,5.0,1,
133001,0.0,14.9,0.0,0.0,249.0,1487.0,5.0,1,
133101,0.0,13.6,0.0,0.0,249.0,1487.0,5.0,1,
133201,0.0,54.7,0.0,0.0,249.0,1487.0,5.0,1,
133301,0.0,107.5,0.0,0.0,243.0,2246.0,16.0,1,
133401,0.0,93.0,0.0,0.0,228.0,2130.0,12.0,1,
133501,0.0,82.1,0.0,0.0,203.0,2072.0,6.0,1,
133601,0.0,85.8,0.0,0.0,206.0,1460.0,4.0,1,
133701,0.0,77.6,0.0,0.0,253.0,1631.0,3.0,1,
133801,0.0,44.2,0.0,0.0,268.0,1314.0,4.0,1,
133901,0.0,18.4,0.0,0.0,268.0,1314.0,4.0,1,
134001,0.0,13.4,0.0,0.0,268.0,1314.0,4.0,1,
134101,0.0,14.4,0.0,0.0,268.0,1314.0,4.0,1,
134201,0.0,16.9,0.0,0.0,268.0,1314.0,4.0,1,
134301,0.0,13.8,0.0,0.0,268.0,1314.0,4.0,1,
134401,0.0,14.1,0.0,0.0,268.0,1314.0,4.0,1,
134501,0.0,15.9,0.0,0.0,268.0,1314.0,4.0,1,
134601,0.0,14.3,0.0,0.0,268.0,1314.0,4.0,1,
134701,0.0,16.3,0.0,0.0,268.0,1314.0,4.0,1,
134801,0.0,32.5,0.0,0.0,268.0,1314.0,4.0,1,
134901,0.0,81.3,0.0,0.0,144.0,1352.0,7.0,1,
135001,0.0,114.4,0.0,0.0,237.0,1916.0,4.0,1,
135101,0.0,78.6,0.0,0.0,200.0,1557.0,4.0,1,
135201,0.0,75.2,0.0,0.0,248.0,1556.0,4.0,1,
135301,0.0,83.3,0.0,0.0,276.0,1425.0,5.0,1,
135401,0.0,87.8,0.0,0.0,390.0,2747.0,4.0,1,
135501,0.0,18.6,0.0,0.0,390.0,2747.0,4.0,1,
135601,0.0,18.4,0.0,0.0,390.0,2747.0,4.0,1,
135701,0.0,15.7,0.0,0.0,390.0,2747.0,4.0,1,
135801,0.0,16.7,0.0,0.0,390.0,2747.0,4.0,1,
135901,0.0,17.0,0.0,0.0,390.0,2747.0,4.0,1,
136001,0.0,13.4,0.0,0.0,390.0,2747.0,4.0,1,
136101,0.0,15.2,0.0,0.0,390.0,2747.0,4.0,1,
136201,0.0,14.8,0.0,0.0,390.0,2747.0,4.0,1,
136301,0.0,15.8,0.0,0.0,390.0,2747.0,4.0,1,
136401,0.0,47.1,0.0,0.0,390.0,2747.0,4.0,1,
136501,0.0,64.2,0.0,0.0,209.0,1610.0,2.0,1,
136601,0.0,89.8,0.0,0.0,209.0,1610.0,2.0,1,
136701,0.0,119.9,0.0,0.0,208.0,1749.0,4.0,1,
136801,0.0,85.2,0.0,0.0,203.0,1513.0,6.0,1,
136901,0.0,96.4,0.0,0.0,333.0,2552.0,4.0,1,
137001,0.0,122.5,0.0,0.0,364.0,2738.0,6.0,1,
137101,0.0,23.6,0.0,0.0,372.0,2721.0,6.0,1,
137201,0.0,16.3,0.0,0.0,372.0,2721.0,6.0,1,
137301,0.0,14.8,0.0,0.0,372.0,2721.0,6.0,1,
137401,0.0,14.7,0.0,0.0,372.0,2721.0,6.0,1,
137501,0.0,15.1,0.0,0.0,372.0,2721.0,6.0,1,
137601,0.0,14.7,0.0,0.0,372.0,2721.0,6.0,1,
137701,0.0,14.1,0.0,0.0,372.0,2721.0,6.0,1,
137801,0.0,14.8,0.0,0.0,372.0,2721.0,6.0,1,
137901,0.0,15.4,0.0,0.0,372.0,2721.0,6.0,1,
138001,0.0,68.5,0.0,0.0,372.0,2721.0,6.0,1,
138101,0.0,77.5,0.0,0.0,191.0,1383.0,3.0,1,
138201,0.0,96.9,0.0,0.0,318.0,2587.0,14.0,1,
138301,0.0,76.2,0.0,0.0,311.0,2509.0,5.0,1,
138401,0.0,137.7,0.0,0.0,301.0,2160.0,6.0,1,
138501,0.0,75.7,0.0,0.0,204.0,1181.0,4.0,1,
138601,0.0,81.9,0.0,0.0,272.0,1667.0,5.0,1,
138701,0.0,19.6,0.0,0.0,272.0,1667.0,5.0,1,
138801,0.0,16.2,0.0,0.0,272.0,1667.0,5.0,1,
138901,0.0,17.2,0.0,0.0,272.0,1667.0,5.0,1,
139001,0.0,17.6,0.0,0.0,272.0,1667.0,5.0,1,
139101,0.0,18.7,0.0,0.0,272.0,1667.0,5.0,1,
139201,0.0,15.6,0.0,0.0,272.0,1667.0,5.0,1,
139301,0.0,16.8,0.0,0.0,272.0,1667.0,5.0,1,
139401,0.0,14.7,0.0,0.0,272.0,1667.0,5.0,1,
139501,0.0,14.7,0.0,0.0,272.0,1667.0,5.0,1,
139601,0.0,15.7,0.0,0.0,272.0,1667.0,5.0,1,
139701,0.0,109.6,0.0,0.0,220.0,1486.0,5.0,1,
139801,0.0,81.0,0.0,0.0,212.0,1369.0,4.0,1,
139901,0.0,81.0,0.0,0.0,243.0,2056.0,5.0,1,
140001,0.0,60.9,0.0,0.0,243.0,2056.0,5.0,1,
140101,0.0,116.4,0.0,0.0,253.0,1604.0,5.0,1,
140201,0.0,72.3,0.0,0.0,250.0,1393.0,5.0,1,
140301,0.0,17.8,0.0,0.0,200.0,1064.0,5.0,1,
140401,0.0,13.3,0.0,0.0,200.0,1064.0,5.0,1,
140501,0.0,13.0,0.0,0.0,200.0,1064.0,5.0,1,
140601,0.0,16.9,0.0,0.0,200.0,1064.0,5.0,1,
140701,0.0,14.3,0.0,0.0,200.0,1064.0,5.0,1,
140801,0.0,13.9,0.0,0.0,200.0,1064.0,5.0,1,
140901,0.0,14.6,0.0,0.0,200.0,1064.0,5.0,1,
141001,0.0,13.0,0.0,0.0,200.0,1064.0,5.0,1,
141101,0.0,13.3,0.0,0.0,200.0,1064.0,5.0,1,
141201,0.0,14.9,0.0,0.0,200.0,1064.0,5.0,1,
141301,0.0,37.4,0.0,0.0,200.0,1064.0,5.0,1,
141401,0.0,125.7,0.0,0.0,248.0,1805.0,5.0,1,
141501,0.0,97.7,0.0,0.0,230.0,1424.0,6.0,1,
141601,0.0,68.4,0.0,0.0,248.0,1483.0,4.0,1,
141701,0.0,80.5,0.0,0.0,251.0,1624.0,4.0,1,
141801,0.0,154.1,0.0,0.0,396.0,3021.0,6.0,1,
141901,0.0,26.7,0.0,0.0,398.0,2742.0,5.0,1,
142001,0.0,14.3,0.0,0.0,398.0,2742.0,5.0,1,
142101,0.0,16.5,0.0,0.0,398.0,2742.0,5.0,1,
142201,0.0,13.1,0.0,0.0,398.0,2742.0,5.0,1,
142301,0.0,15.9,0.0,0.0,398.0,2742.0,5.0,1,
142401,0.0,17.0,0.0,0.0,398.0,2742.0,5.0,1,
142501,0.0,15.5,0.0,0.0,398.0,2742.0,5.0,1,
142601,0.0,14.0,0.0,0.0,398.0,2742.0,5.0,1,
142701,0.0,14.9,0.0,0.0,398.0,2742.0,5.0,1,
142801,0.0,14.1,0.0,0.0,398.0,2742.0,5.0,1,
142901,0.0,66.7,0.0,0.0,200.0,1262.0,4.0,1,
143001,0.0,68.6,0.0,0.0,233.0,1754.0,5.0,1,
143101,0.0,106.4,0.0,0.0,243.0,1436.0,5.0,1,
143201,0.0,149.0,0.0,0.0,362.0,2865.0,6.0,1,
143301,0.0,108.9,0.0,0.0,389.0,2934.0,5.0,1,
143401,0.0,93.4,0.0,0.0,394.0,2830.0,5.0,1,
143501,0.0,25.4,0.0,0.0,394.0,2830.0,5.0,1,
143601,0.0,15.6,0.0,0.0,394.0,2830.0,5.0,1,
143701,0.0,15.2,0.0,0.0,394.0,2830.0,5.0,1,
143801,0.0,14.5,0.0,0.0,394.0,2830.0,5.0,1,
143901,0.0,17.7,0.0,0.0,394.0,2830.0,5.0,1,
144001,0.0,14.9,0.0,0.0,394.0,2830.0,5.0,1,
144101,0.0,13.5,0.0,0.0,394.0,2830.0,5.0,1,
144201,0.0,15.8,0.0,0.0,394.0,2830.0,5.0,1,
144301,0.0,14.2,0.0,0.0,394.0,2830.0,5.0,1,
144401,0.0,19.4,0.0,0.0,394.0,2830.0,5.0,1,
144501,0.0,110.8,0.0,0.0,189.0,1618.0,6.0,1,
144601,0.0,90.0,0.0,0.0,201.0,1777.0,6.0,1,
144701,0.0,94.5,0.0,0.0,316.0,2677.0,12.0,1,
144801,0.0,123.0,0.0,0.0,320.0,2740.0,11.0,1,
144901,0.0,149.3,0.0,0.0,346.0,2638.0,5.0,1,
145001,0.0,92.1,0.0,0.0,342.0,2237.0,5.0,1,
145101,0.0,25.7,0.0,0.0,379.0,2263.0,5.0,1,
145201,0.0,16.7,0.0,0.0,379.0,2263.0,5.0,1,
145301,0.0,16.6,0.0,0.0,379.0,2263.0,5.0,1,
145401,0.0,14.5,0.0,0.0,379.0,2263.0,5.0,1,
145501,0.0,15.0,0.0,0.0,379.0,2263.0,5.0,1,
145601,0.0,14.3,0.0,0.0,379.0,2263.0,5.0,1,
145701,0.0,14.0,0.0,0.0,379.0,2263.0,5.0,1,
145801,0.0,13.0,0.0,0.0,379.0,2263.0,5.0,1,
145901,0.0,13.7,0.0,0.0,379.0,2263.0,5.0,1,
146001,0.0,14.0,0.0,0.0,379.0,2263.0,5.0,1,
146101,0.0,86.5,0.0,0.0,379.0,2263.0,5.0,1,
146201,0.0,110.0,0.0,0.0,448.0,2016.0,6.0,1,
146301,0.0,85.7,0.0,0.0,465.0,2123.0,5.0,1,
146401,0.0,46.5,0.0,0.0,465.0,2123.0,5.0,1,
146501,0.0,62.8,0.0,0.0,465.0,2123.0,5.0,1,
146601,0.0,86.2,0.0,0.0,320.0,1351.0,5.0,1,
146701,0.0,23.9,0.0,0.0,225.0,1027.0,5.0,1,
146801,0.0,15.6,0.0,0.0,225.0,1027.0,5.0,1,
146901,0.0,11.7,0.0,0.0,225.0,1027.0,5.0,1,
147001,0.0,13.2,0.0,0.0,225.0,1027.0,5.0,1,
147101,0.0,11.5,0.0,0.0,225.0,1027.0,5.0,1,
147201,0.0,14.8,0.0,0.0,225.0,1027.0,5.0,1,
147301,0.0,13.1,0.0,0.0,225.0,1027.0,5.0,1,
147401,0.0,13.3,0.0,0.0,225.0,1027.0,5.0,1,
147501,0.0,13.2,0.0,0.0,225.0,1027.0,5.0,1,
147601,0.0,14.4,0.0,0.0,225.0,1027.0,5.0,1,
147701,0.0,69.1,0.0,0.0,225.0,1027.0,5.0,1,
147801,0.0,81.5,0.0,0.0,225.0,1027.0,5.0,1,
147901,0.0,87.4,0.0,0.0,427.0,1861.0,6.0,1,
148001,0.0,54.8,0.0,0.0,169.0,1108.0,6.0,1,
148101,0.0,33.1,0.0,0.0,184.0,937.0,6.0,1,
148201,0.0,48.7,0.0,0.0,184.0,937.0,6.0,1,
148301,0.0,19.7,0.0,0.0,180.0,844.0,5.0,1,
148401,0.0,14.0,0.0,0.0,180.0,844.0,5.0,1,
148501,0.0,16.4,0.0,0.0,180.0,844.0,5.0,1,
148601,0.0,12.3,0.0,0.0,180.0,844.0,5.0,1,
148701,0.0,17.3,0.0,0.0,180.0,844.0,5.0,1,
148801,0.0,15.7,0.0,0.0,180.0,844.0,5.0,1,
148901,0.0,13.0,0.0,0.0,180.0,844.0,5.0,1,
149001,0.0,15.2,0.0,0.0,180.0,844.0,5.0,1,
149101,0.0,15.5,0.0,0.0,180.0,844.0,5.0,1,
149201,0.0,12.1,0.0,0.0,180.0,844.0,5.0,1,
149301,0.0,88.4,0.0,0.0,394.0,2760.0,5.0,1,
149401,0.0,57.0,0.0,0.0,406.0,2166.0,5.0,1,
149501,0.0,68.6,0.0,0.0,406.0,2166.0,5.0,1,
149601,0.0,51.7,0.0,0.0,406.0,2166.0,5.0,1,
149701,0.0,57.3,0.0,0.0,214.0,1015.0,4.0,1,
149801,0.0,23.7,0.0,0.0,267.0,1134.0,5.0,1,
149901,0.0,18.3,0.0,0.0,267.0,1134.0,5.0,1,
150001,0.0,16.1,0.0,0.0,267.0,1134.0,5.0,1,
150101,0.0,12.9,0.0,0.0,267.0,1134.0,5.0,1,
150201,0.0,13.5,0.0,0.0,267.0,1134.0,5.0,1,
150301,0.0,15.5,0.0,0.0,267.0,1134.0,5.0,1,
150401,0.0,15.1,0.0,0.0,267.0,1134.0,5.0,1,
150501,0.0,15.3,0.0,0.0,267.0,1134.0,5.0,1,
150601,0.0,14.1,0.0,0.0,267.0,1134.0,5.0,1,
150701,0.0,13.1,0.0,0.0,267.0,1134.0,5.0,1,
150801,0.0,14.5,0.0,0.0,267.0,1134.0,5.0,1,
150901,0.0,73.2,0.0,0.0,267.0,1134.0,5.0,1,
151001,0.0,91.6,0.0,0.0,431.0,2091.0,6.0,1,
151101,0.0,39.2,0.0,0.0,405.0,1482.0,7.0,1,
151201,0.0,47.7,0.0,0.0,405.0,1482.0,7.0,1,
151301,0.0,58.9,0.0,0.0,405.0,1482.0,7.0,1,
151401,0.0,70.1,0.0,0.0,263.0,1506.0,5.0,1,
151501,0.0,35.0,0.0,0.0,280.0,1574.0,6.0,1,
151601,0.0,15.7,0.0,0.0,280.0,1574.0,6.0,1,
151701,0.0,16.1,0.0,0.0,280.0,1574.0,6.0,1,
151801,0.0,15.7,0.0,0.0,280.0,1574.0,6.0,1,
151901,0.0,13.5,0.0,0.0,280.0,1574.0,6.0,1,
152001,0.0,13.9,0.0,0.0,280.0,1574.0,6.0,1,
152101,0.0,13.4,0.0,0.0,280.0,1574.0,6.0,1,
152201,0.0,13.1,0.0,0.0,280.0,1574.0,6.0,1,
152301,0.0,14.2,0.0,0.0,280.0,1574.0,6.0,1,
152401,0.0,14.6,0.0,0.0,280.0,1574.0,6.0,1,
152501,0.0,86.8,0.0,0.0,280.0,1574.0,6.0,1,
152601,0.0,81.7,0.0,0.0,280.0,1574.0,6.0,1,
152701,0.0,93.3,0.0,0.0,381.0,1985.0,7.0,1,
152801,0.0,46.6,0.0,0.0,432.0,1760.0,6.0,1,
152901,0.0,73.8,0.0,0.0,432.0,1760.0,6.0,1,
153001,0.0,90.7,0.0,0.0,236.0,2039.0,5.0,1,
153101,0.0,50.5,0.0,0.0,274.0,1911.0,5.0,1,
153201,0.0,16.8,0.0,0.0,274.0,1911.0,5.0,1,
153301,0.0,13.1,0.0,0.0,274.0,1911.0,5.0,1,
153401,0.0,14.3,0.0,0.0,274.0,1911.0,5.0,1,
153501,0.0,14.4,0.0,0.0,274.0,1911.0,5.0,1,
153601,0.0,16.5,0.0,0.0,274.0,1911.0,5.0,1,
153701,0.0,15.2,0.0,0.0,274.0,1911.0,5.0,1,
153801,0.0,14.4,0.0,0.0,274.0,1911.0,5.0,1,
153901,0.0,16.4,0.0,0.0,274.0,1911.0,5.0,1,
154001,0.0,15.9,0.0,0.0,274.0,1911.0,5.0,1,
154101,0.0,37.2,0.0,0.0,274.0,1911.0,5.0,1,
154201,0.0,87.9,0.0,0.0,274.0,1911.0,5.0,1,
154301,0.0,103.3,0.0,0.0,274.0,1911.0,5.0,1,
154401,0.0,106.2,0.0,0.0,252.0,2194.0,5.0,1,
154501,0.0,72.0,0.0,0.0,283.0,2510.0,6.0,1,
154601,0.0,75.4,0.0,0.0,283.0,2510.0,6.0,1,
154701,0.0,55.5,0.0,0.0,287.0,1816.0,9.0,1,
154801,0.0,15.0,0.0,0.0,287.0,1816.0,9.0,1,
154901,0.0,13.3,0.0,0.0,287.0,1816.0,9.0,1,
155001,0.0,15.7,0.0,0.0,287.0,1816.0,9.0,1,
155101,0.0,17.1,0.0,0.0,287.0,1816.0,9.0,1,
155201,0.0,16.1,0.0,0.0,287.0,1816.0,9.0,1,
155301,0.0,14.0,0.0,0.0,287.0,1816.0,9.0,1,
155401,0.0,15.6,0.0,0.0,287.0,1816.0,9.0,1,
155501,0.0,15.2,0.0,0.0,287.0,1816.0,9.0,1,
155601,0.0,14.2,0.0,0.0,287.0,1816.0,9.0,1,
155701,0.0,37.1,0.0,0.0,287.0,1816.0,9.0,1,
155801,0.0,36.1,0.0,0.0,177.0,969.0,7.0,1,
155901,0.0,33.6,0.0,0.0,177.0,969.0,7.0,1,
156001,0.0,52.2,0.0,0.0,135.0,827.0,6.0,1,
156101,0.0,56.4,0.0,0.0,178.0,1030.0,5.0,1,
156201,0.0,52.0,0.0,0.0,178.0,1030.0,5.0,1,
156301,0.0,50.9,0.0,0.0,178.0,1030.0,5.0,1,
156401,0.0,16.2,0.0,0.0,178.0,1030.0,5.0,1,
156501,0.0,16.6,0.0,0.0,178.0,1030.0,5.0,1,
156601,0.0,14.9,0.0,0.0,178.0,1030.0,5.0,1,
156701,0.0,14.6,0.0,0.0,178.0,1030.0,5.0,1,
156801,0.0,12.9,0.0,0.0,178.0,1030.0,5.0,1,
156901,0.0,15.0,0.0,0.0,178.0,1030.0,5.0,1,
157001,0.0,15.1,0.0,0.0,178.0,1030.0,5.0,1,
157101,0.0,15.0,0.0,0.0,178.0,1030.0,5.0,1,
157201,0.0,14.7,0.0,0.0,178.0,1030.0,5.0,1,
157301,0.0,37.8,0.0,0.0,178.0,1030.0,5.0,1,
157401,0.0,73.6,0.0,0.0,222.0,1621.0,7.0,1,
157501,0.0,67.8,0.0,0.0,210.0,1658.0,5.0,1,
157601,0.0,69.6,0.0,0.0,210.0,1658.0,5.0,1,
157701,0.0,99.7,0.0,0.0,248.0,2065.0,4.0,1,
157801,0.0,87.2,0.0,0.0,250.0,2131.0,5.0,1,
157901,0.0,66.2,0.0,0.0,250.0,2131.0,5.0,1,
158001,0.0,18.1,0.0,0.0,250.0,2131.0,5.0,1,
158101,0.0,13.3,0.0,0.0,250.0,2131.0,5.0,1,
158201,0.0,12.5,0.0,0.0,250.0,2131.0,5.0,1,
158301,0.0,12.9,0.0,0.0,250.0,2131.0,5.0,1,
158401,0.0,15.0,0.0,0.0,250.0,2131.0,5.0,1,
158501,0.0,16.8,0.0,0.0,250.0,2131.0,5.0,1,
158601,0.0,13.3,0.0,0.0,250.0,2131.0,5.0,1,
158701,0.0,13.3,0.0,0.0,250.0,2131.0,5.0,1,
158801,0.0,13.0,0.0,0.0,250.0,2131.0,5.0,1,
158901,0.0,27.4,0.0,0.0,250.0,2131.0,5.0,1,
159001,0.0,61.5,0.0,0.0,250.0,2131.0,5.0,1,
159101,0.0,73.6,0.0,0.0,129.0,940.0,9.0,1,
159201,0.0,64.7,0.0,0.0,208.0,1827.0,10.0,1,
159301,0.0,77.8,0.0,0.0,208.0,1827.0,10.0,1,
159401,0.0,95.5,0.0,0.0,228.0,1988.0,6.0,1,
159501,0.0,74.0,0.0,0.0,283.0,1991.0,7.0,1,
159601,0.0,16.2,0.0,0.0,283.0,1991.0,7.0,1,
159701,0.0,12.5,0.0,0.0,283.0,1991.0,7.0,1,
159801,0.0,13.3,0.0,0.0,283.0,1991.0,7.0,1,
159901,0.0,13.3,0.0,0.0,283.0,1991.0,7.0,1,
160001,0.0,13.4,0.0,0.0,283.0,1991.0,7.0,1,
160101,0.0,13.7,0.0,0.0,283.0,1991.0,7.0,1,
160201,0.0,13.2,0.0,0.0,283.0,1991.0,7.0,1,
160301,0.0,15.4,0.0,0.0,283.0,1991.0,7.0,1,
160401,0.0,13.5,0.0,0.0,283.0,1991.0,7.0,1,
160501,0.0,22.5,0.0,0.0,283.0,1991.0,7.0,1,
160601,0.0,87.0,0.0,0.0,283.0,1991.0,7.0,1,
160701,0.0,68.5,0.0,0.0,283.0,1991.0,7.0,1,
160801,0.0,92.3,0.0,0.0,239.0,1973.0,7.0,1,
160901,0.0,64.2,0.0,0.0,235.0,1729.0,7.0,1,
161001,0.0,75.9,0.0,0.0,235.0,1729.0,7.0,1,
161101,0.0,67.1,0.0,0.0,235.0,1729.0,7.0,1,
161201,0.0,16.2,0.0,0.0,259.0,1497.0,4.0,1,
161301,0.0,11.3,0.0,0.0,259.0,1497.0,4.0,1,
161401,0.0,13.3,0.0,0.0,259.0,1497.0,4.0,1,
161501,0.0,12.3,0.0,0.0,259.0,1497.0,4.0,1,
161601,0.0,12.3,0.0,0.0,259.0,1497.0,4.0,1,
161701,0.0,14.1,0.0,0.0,259.0,1497.0,4.0,1,
161801,0.0,13.0,0.0,0.0,259.0,1497.0,4.0,1,
161901,0.0,15.6,0.0,0.0,259.0,1497.0,4.0,1,
162001,0.0,14.0,0.0,0.0,259.0,1497.0,4.0,1,
162101,0.0,13.7,0.0,0.0,259.0,1497.0,4.0,1,
162201,0.0,81.9,0.0,0.0,337.0,2045.0,5.0,1,
162301,0.0,53.8,0.0,0.0,337.0,2045.0,5.0,1,
162401,0.0,54.3,0.0,0.0,337.0,2045.0,5.0,1,
162501,0.0,75.1,0.0,0.0,226.0,1777.0,7.0,1,
162601,0.0,66.8,0.0,0.0,296.0,1637.0,5.0,1,
162701,0.0,60.5,0.0,0.0,296.0,1637.0,5.0,1,
162801,0.0,17.6,0.0,0.0,296.0,1637.0,5.0,1,
162901,0.0,16.2,0.0,0.0,296.0,1637.0,5.0,1,
163001,0.0,15.0,0.0,0.0,296.0,1637.0,5.0,1,
163101,0.0,12.5,0.0,0.0,296.0,1637.0,5.0,1,
163201,0.0,13.7,0.0,0.0,296.0,1637.0,5.0,1,
163301,0.0,13.8,0.0,0.0,296.0,1637.0,5.0,1,
163401,0.0,11.9,0.0,0.0,296.0,1637.0,5.0,1,
163501,0.0,12.3,0.0,0.0,296.0,1637.0,5.0,1,
163601,0.0,12.4,0.0,0.0,296.0,1637.0,5.0,1,
163701,0.0,13.5,0.0,0.0,296.0,1637.0,5.0,1,
163801,0.0,87.9,0.0,0.0,296.0,1637.0,5.0,1,
163901,0.0,106.4,0.0,0.0,361.0,1883.0,6.0,1,
164001,0.0,79.0,0.0,0.0,227.0,1673.0,5.0,1,
164101,0.0,81.6,0.0,0.0,227.0,1673.0,5.0,1,
164201,0.0,87.3,0.0,0.0,227.0,1673.0,5.0,1,
164301,0.0,90.5,0.0,0.0,296.0,1878.0,5.0,1,
164401,0.0,21.7,0.0,0.0,283.0,1919.0,6.0,1,
164501,0.0,15.1,0.0,0.0,283.0,1919.0,6.0,1,
164601,0.0,12.5,0.0,0.0,283.0,1919.0,6.0,1,
164701,0.0,15.4,0.0,0.0,283.0,1919.0,6.0,1,
164801,0.0,14.1,0.0,0.0,283.0,1919.0,6.0,1,
164901,0.0,13.9,0.0,0.0,283.0,1919.0,6.0,1,
165001,0.0,11.8,0.0,0.0,283.0,1919.0,6.0,1,
165101,0.0,14.2,0.0,0.0,283.0,1919.0,6.0,1,
165201,0.0,12.2,0.0,0.0,283.0,1919.0,6.0,1,
165301,0.0,12.7,0.0,0.0,283.0,1919.0,6.0,1,
165401,0.0,57.4,0.0,0.0,283.0,1919.0,6.0,1,
165501,0.0,115.0,0.0,0.0,283.0,1919.0,6.0,1,
165601,0.0,144.3,0.0,0.0,346.0,2797.0,6.0,1,
165701,0.0,108.2,0.0,0.0,326.0,2334.0,5.0,1,
165801,0.0,77.6,0.0,0.0,326.0,2334.0,5.0,1,
165901,0.0,67.6,0.0,0.0,326.0,2334.0,5.0,1,
166001,0.0,21.5,0.0,0.0,281.0,1818.0,5.0,1,
166101,0.0,13.4,0.0,0.0,281.0,1818.0,5.0,1,
166201,0.0,11.7,0.0,0.0,281.0,1818.0,5.0,1,
166301,0.0,11.4,0.0,0.0,281.0,1818.0,5.0,1,
166401,0.0,13.5,0.0,0.0,281.0,1818.0,5.0,1,
166501,0.0,14.2,0.0,0.0,281.0,1818.0,5.0,1,
166601,0.0,13.2,0.0,0.0,281.0,1818.0,5.0,1,
166701,0.0,12.5,0.0,0.0,281.0,1818.0,5.0,1,
166801,0.0,11.8,0.0,0.0,281.0,1818.0,5.0,1,
166901,0.0,13.2,0.0,0.0,281.0,1818.0,5.0,1,
167001,0.0,91.8,0.0,0.0,174.0,1231.0,12.0,1,
167101,0.0,131.4,0.0,0.0,403.0,3737.0,10.0,1,
167201,0.0,102.0,0.0,0.0,403.0,3737.0,10.0,1,
167301,0.0,131.4,0.0,0.0,357.0,2442.0,6.0,1,
167401,0.0,114.4,0.0,0.0,333.0,2073.0,5.0,1,
167501,0.0,75.0,0.0,0.0,305.0,1952.0,5.0,1,
167601,0.0,21.4,0.0,0.0,305.0,1952.0,5.0,1,
167701,0.0,13.3,0.0,0.0,305.0,1952.0,5.0,1,
167801,0.0,12.5,0.0,0.0,305.0,1952.0,5.0,1,
167901,0.0,14.2,0.0,0.0,305.0,1952.0,5.0,1,
168001,0.0,13.3,0.0,0.0,305.0,1952.0,5.0,1,
168101,0.0,10.8,0.0,0.0,305.0,1952.0,5.0,1,
168201,0.0,11.8,0.0,0.0,305.0,1952.0,5.0,1,
168301,0.0,14.3,0.0,0.0,305.0,1952.0,5.0,1,
168401,0.0,13.0,0.0,0.0,305.0,1952.0,5.0,1,
168501,0.0,12.2,0.0,0.0,305.0,1952.0,5.0,1,
168601,0.0,135.4,0.0,0.0,396.0,3765.0,11.0,1,
168701,0.0,168.4,0.0,0.0,398.0,3468.0,10.0,1,
168801,0.0,92.0,0.0,0.0,348.0,2542.0,5.0,1,
168901,0.0,68.3,0.0,0.0,348.0,2542.0,5.0,1,
169001,0.0,108.9,0.0,0.0,283.0,1846.0,6.0,1,
169101,0.0,89.4,0.0,0.0,287.0,1864.0,6.0,1,
169201,0.0,21.9,0.0,0.0,287.0,1864.0,6.0,1,
169301,0.0,12.5,0.0,0.0,287.0,1864.0,6.0,1,
169401,0.0,12.9,0.0,0.0,287.0,1864.0,6.0,1,
169501,0.0,12.4,0.0,0.0,287.0,1864.0,6.0,1,
169601,0.0,12.9,0.0,0.0,287.0,1864.0,6.0,1,
169701,0.0,11.0,0.0,0.0,287.0,1864.0,6.0,1,
169801,0.0,11.1,0.0,0.0,287.0,1864.0,6.0,1,
169901,0.0,13.4,0.0,0.0,287.0,1864.0,6.0,1,
170001,0.0,12.3,0.0,0.0,287.0,1864.0,6.0,1,
170101,0.0,13.2,0.0,0.0,287.0,1864.0,6.0,1,
170201,0.0,102.7,0.0,0.0,287.0,1864.0,6.0,1,
170301,0.0,148.9,0.0,0.0,395.0,3452.0,10.0,1,
170401,0.0,124.9,0.0,0.0,320.0,2372.0,6.0,1,
170501,0.0,77.0,0.0,0.0,321.0,2025.0,6.0,1,
170601,0.0,58.1,0.0,0.0,321.0,2025.0,6.0,1,
170701,0.0,108.4,0.0,0.0,287.0,1743.0,6.0,1,
170801,0.0,31.4,0.0,0.0,275.0,1751.0,6.0,1,
170901,0.0,15.3,0.0,0.0,275.0,1751.0,6.0,1,
171001,0.0,11.5,0.0,0.0,275.0,1751.0,6.0,1,
171101,0.0,14.4,0.0,0.0,275.0,1751.0,6.0,1,
171201,0.0,15.1,0.0,0.0,275.0,1751.0,6.0,1,
171301,0.0,10.5,0.0,0.0,275.0,1751.0,6.0,1,
171401,0.0,12.1,0.0,0.0,275.0,1751.0,6.0,1,
171501,0.0,11.0,0.0,0.0,275.0,1751.0,6.0,1,
171601,0.0,14.4,0.0,0.0,275.0,1751.0,6.0,1,
171701,0.0,14.8,0.0,0.0,275.0,1751.0,6.0,1,
171801,0.0,49.9,0.0,0.0,165.0,1377.0,4.0,1,
171901,0.0,122.9,0.0,0.0,165.0,1377.0,4.0,1,
172001,0.0,138.7,0.0,0.0,342.0,2682.0,6.0,1,
172101,0.0,111.2,0.0,0.0,345.0,2260.0,5.0,1,
172201,0.0,69.8,0.0,0.0,330.0,2080.0,5.0,1,
172301,0.0,58.4,0.0,0.0,330.0,2080.0,5.0,1,
172401,0.0,33.1,0.0,0.0,282.0,1848.0,6.0,1,
172501,0.0,12.8,0.0,0.0,282.0,1848.0,6.0,1,
172601,0.0,12.4,0.0,0.0,282.0,1848.0,6.0,1,
172701,0.0,12.1,0.0,0.0,282.0,1848.0,6.0,1,
172801,0.0,12.3,0.0,0.0,282.0,1848.0,6.0,1,
172901,0.0,13.5,0.0,0.0,282.0,1848.0,6.0,1,
173001,0.0,9.6,0.0,0.0,282.0,1848.0,6.0,1,
173101,0.0,10.8,0.0,0.0,282.0,1848.0,6.0,1,
173201,0.0,13.5,0.0,0.0,282.0,1848.0,6.0,1,
173301,0.0,12.8,0.0,0.0,282.0,1848.0,6.0,1,
173401,0.0,80.9,0.0,0.0,177.0,1376.0,3.0,1,
173501,0.0,131.3,0.0,0.0,401.0,3490.0,12.0,1,
173601,0.0,110.0,0.0,0.0,444.0,3920.0,11.0,1,
173701,0.0,126.9,0.0,0.0,357.0,2319.0,6.0,1,
173801,0.0,104.1,0.0,0.0,316.0,1897.0,6.0,1,
173901,0.0,71.1,0.0,0.0,334.0,1913.0,6.0,1,
174001,0.0,31.0,0.0,0.0,334.0,1913.0,6.0,1,
174101,0.0,13.0,0.0,0.0,334.0,1913.0,6.0,1,
174201,0.0,13.7,0.0,0.0,334.0,1913.0,6.0,1,
174301,0.0,13.0,0.0,0.0,334.0,1913.0,6.0,1,
174401,0.0,12.0,0.0,0.0,334.0,1913.0,6.0,1,
174501,0.0,12.7,0.0,0.0,334.0,1913.0,6.0,1,
174601,0.0,11.6,0.0,0.0,334.0,1913.0,6.0,1,
174701,0.0,13.6,0.0,0.0,334.0,1913.0,6.0,1,
174801,0.0,12.2,0.0,0.0,334.0,1913.0,6.0,1,
174901,0.0,13.0,0.0,0.0,334.0,1913.0,6.0,1,
175001,0.0,51.3,0.0,0.0,334.0,1913.0,6.0,1,
175101,0.0,179.0,0.0,0.0,483.0,4092.0,11.0,1,
175201,0.0,110.7,0.0,0.0,396.0,3050.0,6.0,1,
175301,0.0,71.2,0.0,0.0,357.0,2557.0,6.0,1,
175401,0.0,107.0,0.0,0.0,278.0,1876.0,7.0,1,
175501,0.0,98.4,0.0,0.0,304.0,1739.0,6.0,1,
175601,0.0,42.5,0.0,0.0,291.0,1873.0,6.0,1,
175701,0.0,13.7,0.0,0.0,291.0,1873.0,6.0,1,
175801,0.0,12.5,0.0,0.0,291.0,1873.0,6.0,1,
175901,0.0,13.3,0.0,0.0,291.0,1873.0,6.0,1,
176001,0.0,10.5,0.0,0.0,291.0,1873.0,6.0,1,
176101,0.0,11.6,0.0,0.0,291.0,1873.0,6.0,1,
176201,0.0,13.5,0.0,0.0,291.0,1873.0,6.0,1,
176301,0.0,14.1,0.0,0.0,291.0,1873.0,6.0,1,
176401,0.0,13.1,0.0,0.0,291.0,1873.0,6.0,1,
176501,0.0,12.2,0.0,0.0,291.0,1873.0,6.0,1,
176601,0.0,36.1,0.0,0.0,291.0,1873.0,6.0,1,
176701,0.0,147.6,0.0,0.0,291.0,1873.0,6.0,1,
176801,0.0,146.2,0.0,0.0,367.0,2774.0,6.0,1,
176901,0.0,81.7,0.0,0.0,321.0,2195.0,6.0,1,
177001,0.0,62.7,0.0,0.0,321.0,2195.0,6.0,1,
177101,0.0,106.2,0.0,0.0,295.0,1887.0,6.0,1,
177201,0.0,56.1,0.0,0.0,297.0,1790.0,6.0,1,
177301,0.0,14.2,0.0,0.0,297.0,1790.0,6.0,1,
177401,0.0,12.7,0.0,0.0,297.0,1790.0,6.0,1,
177501,0.0,13.3,0.0,0.0,297.0,1790.0,6.0,1,
177601,0.0,11.7,0.0,0.0,297.0,1790.0,6.0,1,
177701,0.0,14.1,0.0,0.0,297.0,1790.0,6.0,1,
177801,0.0,12.3,0.0,0.0,297.0,1790.0,6.0,1,
177901,0.0,11.3,0.0,0.0,297.0,1790.0,6.0,1,
178001,0.0,11.7,0.0,0.0,297.0,1790.0,6.0,1,
178101,0.0,12.6,0.0,0.0,297.0,1790.0,6.0,1,
178201,0.0,43.0,0.0,0.0,297.0,1790.0,6.0,1,
178301,0.0,126.1,0.0,0.0,168.0,1548.0,11.0,1,
178401,0.0,126.7,0.0,0.0,168.0,1548.0,11.0,1,
178501,0.0,115.3,0.0,0.0,291.0,1989.0,6.0,1,
178601,0.0,76.1,0.0,0.0,290.0,1954.0,6.0,1,
178701,0.0,58.5,0.0,0.0,290.0,1954.0,6.0,1,
178801,0.0,62.8,0.0,0.0,323.0,1945.0,6.0,1,
178901,0.0,14.0,0.0,0.0,323.0,1945.0,6.0,1,
179001,0.0,12.2,0.0,0.0,323.0,1945.0,6.0,1,
179101,0.0,11.1,0.0,0.0,323.0,1945.0,6.0,1,
179201,0.0,17.5,0.0,0.0,323.0,1945.0,6.0,1,
179301,0.0,12.7,0.0,0.0,323.0,1945.0,6.0,1,
179401,0.0,14.0,0.0,0.0,323.0,1945.0,6.0,1,
179501,0.0,12.6,0.0,0.0,323.0,1945.0,6.0,1,
179601,0.0,10.9,0.0,0.0,323.0,1945.0,6.0,1,
179701,0.0,11.9,0.0,0.0,323.0,1945.0,6.0,1,
179801,0.0,60.5,0.0,0.0,323.0,1945.0,6.0,1,
179901,0.0,125.8,0.0,0.0,278.0,2638.0,14.0,1,
180001,0.0,121.1,0.0,0.0,467.0,4113.0,11.0,1,
180101,0.0,104.7,0.0,0.0,467.0,4113.0,11.0,1,
180201,0.0,114.6,0.0,0.0,351.0,1902.0,6.0,1,
180301,0.0,68.6,0.0,0.0,321.0,1791.0,6.0,1,
180401,0.0,55.7,0.0,0.0,321.0,1791.0,6.0,1,
180501,0.0,13.9,0.0,0.0,321.0,1791.0,6.0,1,
180601,0.0,12.7,0.0,0.0,321.0,1791.0,6.0,1,
180701,0.0,14.6,0.0,0.0,321.0,1791.0,6.0,1,
180801,0.0,12.3,0.0,0.0,321.0,1791.0,6.0,1,
180901,0.0,11.4,0.0,0.0,321.0,1791.0,6.0,1,
181001,0.0,13.8,0.0,0.0,321.0,1791.0,6.0,1,
181101,0.0,13.6,0.0,0.0,321.0,1791.0,6.0,1,
181201,0.0,13.0,0.0,0.0,321.0,1791.0,6.0,1,
181301,0.0,11.8,0.0,0.0,321.0,1791.0,6.0,1,
181401,0.0,28.0,0.0,0.0,321.0,1791.0,6.0,1,
181501,0.0,164.4,0.0,0.0,500.0,4120.0,11.0,1,
181601,0.0,124.4,0.0,0.0,410.0,3231.0,6.0,1,
181701,0.0,69.8,0.0,0.0,323.0,2200.0,6.0,1,
181801,0.0,80.9,0.0,0.0,323.0,2200.0,6.0,1,
181901,0.0,112.5,0.0,0.0,296.0,1887.0,6.0,1,
182001,0.0,73.4,0.0,0.0,285.0,1954.0,5.0,1,
182101,0.0,16.6,0.0,0.0,285.0,1954.0,5.0,1,
182201,0.0,14.5,0.0,0.0,285.0,1954.0,5.0,1,
182301,0.0,12.0,0.0,0.0,285.0,1954.0,5.0,1,
182401,0.0,13.2,0.0,0.0,285.0,1954.0,5.0,1,
182501,0.0,13.3,0.0,0.0,285.0,1954.0,5.0,1,
182601,0.0,13.1,0.0,0.0,285.0,1954.0,5.0,1,
182701,0.0,13.0,0.0,0.0,285.0,1954.0,5.0,1,
182801,0.0,10.5,0.0,0.0,285.0,1954.0,5.0,1,
182901,0.0,13.6,0.0,0.0,285.0,1954.0,5.0,1,
183001,0.0,30.4,0.0,0.0,285.0,1954.0,5.0,1,
183101,0.0,57.7,0.0,0.0,157.0,1405.0,2.0,1,
183201,0.0,111.3,0.0,0.0,240.0,2300.0,4.0,1,
183301,0.0,120.4,0.0,0.0,277.0,2400.0,11.0,1,
183401,0.0,83.3,0.0,0.0,310.0,2782.0,11.0,1,
183501,0.0,77.5,0.0,0.0,310.0,2782.0,11.0,1,
183601,0.0,108.7,0.0,0.0,291.0,1885.0,6.0,1,
183701,0.0,19.6,0.0,0.0,309.0,1907.0,6.0,1,
183801,0.0,13.1,0.0,0.0,309.0,1907.0,6.0,1,
183901,0.0,13.4,0.0,0.0,309.0,1907.0,6.0,1,
184001,0.0,12.1,0.0,0.0,309.0,1907.0,6.0,1,
184101,0.0,13.5,0.0,0.0,309.0,1907.0,6.0,1,
184201,0.0,14.2,0.0,0.0,309.0,1907.0,6.0,1,
184301,0.0,16.1,0.0,0.0,309.0,1907.0,6.0,1,
184401,0.0,15.0,0.0,0.0,309.0,1907.0,6.0,1,
184501,0.0,13.1,0.0,0.0,309.0,1907.0,6.0,1,
184601,0.0,14.6,0.0,0.0,309.0,1907.0,6.0,1,
184701,0.0,72.6,0.0,0.0,208.0,1848.0,12.0,1,
184801,0.0,97.8,0.0,0.0,208.0,1848.0,12.0,1,
184901,0.0,118.8,0.0,0.0,295.0,2422.0,5.0,1,
185001,0.0,95.8,0.0,0.0,271.0,2188.0,6.0,1,
185101,0.0,66.4,0.0,0.0,266.0,2106.0,5.0,1,
185201,0.0,71.6,0.0,0.0,266.0,2106.0,5.0,1,
185301,0.0,16.4,0.0,0.0,266.0,2106.0,5.0,1,
185401,0.0,14.7,0.0,0.0,266.0,2106.0,5.0,1,
185501,0.0,13.3,0.0,0.0,266.0,2106.0,5.0,1,
185601,0.0,12.4,0.0,0.0,266.0,2106.0,5.0,1,
185701,0.0,13.8,0.0,0.0,266.0,2106.0,5.0,1,
185801,0.0,11.5,0.0,0.0,266.0,2106.0,5.0,1,
185901,0.0,12.5,0.0,0.0,266.0,2106.0,5.0,1,
186001,0.0,12.3,0.0,0.0,266.0,2106.0,5.0,1,
186101,0.0,17.1,0.0,0.0,266.0,2106.0,5.0,1,
186201,0.0,15.3,0.0,0.0,266.0,2106.0,5.0,1,
186301,0.0,66.6,0.0,0.0,170.0,1069.0,3.0,1,
186401,0.0,78.0,0.0,0.0,206.0,1600.0,5.0,1,
186501,0.0,73.7,0.0,0.0,179.0,1404.0,5.0,1,
186601,0.0,83.2,0.0,0.0,383.0,1604.0,5.0,1,
186701,0.0,92.2,0.0,0.0,292.0,2181.0,5.0,1,
186801,0.0,73.5,0.0,0.0,255.0,1975.0,4.0,1,
186901,0.0,20.7,0.0,0.0,255.0,1975.0,4.0,1,
187001,0.0,12.4,0.0,0.0,255.0,1975.0,4.0,1,
187101,0.0,14.1,0.0,0.0,255.0,1975.0,4.0,1,
187201,0.0,14.9,0.0,0.0,255.0,1975.0,4.0,1,
187301,0.0,13.1,0.0,0.0,255.0,1975.0,4.0,1,
187401,0.0,15.6,0.0,0.0,255.0,1975.0,4.0,1,
187501,0.0,13.8,0.0,0.0,255.0,1975.0,4.0,1,
187601,0.0,15.1,0.0,0.0,255.0,1975.0,4.0,1,
187701,0.0,15.4,0.0,0.0,255.0,1975.0,4.0,1,
187801,0.0,13.5,0.0,0.0,255.0,1975.0,4.0,1,
187901,0.0,53.1,0.0,0.0,255.0,1975.0,4.0,1,
188001,0.0,63.8,0.0,0.0,184.0,1315.0,5.0,1,
188101,0.0,46.0,0.0,0.0,207.0,1149.0,7.0,1,
188201,0.0,57.0,0.0,0.0,207.0,1149.0,7.0,1,
188301,0.0,66.3,0.0,0.0,207.0,1149.0,7.0,1,
188401,0.0,61.8,0.0,0.0,208.0,1291.0,4.0,1,
188501,0.0,22.2,0.0,0.0,239.0,1393.0,5.0,1,
188601,0.0,16.0,0.0,0.0,239.0,1393.0,5.0,1,
188701,0.0,15.7,0.0,0.0,239.0,1393.0,5.0,1,
188801,0.0,16.2,0.0,0.0,239.0,1393.0,5.0,1,
188901,0.0,16.4,0.0,0.0,239.0,1393.0,5.0,1,
189001,0.0,14.8,0.0,0.0,239.0,1393.0,5.0,1,
189101,0.0,14.5,0.0,0.0,239.0,1393.0,5.0,1,
189201,0.0,14.9,0.0,0.0,239.0,1393.0,5.0,1,
189301,0.0,17.3,0.0,0.0,239.0,1393.0,5.0,1,
189401,0.0,15.3,0.0,0.0,239.0,1393.0,5.0,1,
189501,0.0,60.5,0.0,0.0,239.0,1393.0,5.0,1,
189601,0.0,42.8,0.0,0.0,239.0,1393.0,5.0,1,
189701,0.0,46.9,0.0,0.0,138.0,779.0,6.0,1,
189801,0.0,33.4,0.0,0.0,116.0,643.0,8.0,1,
189901,0.0,46.8,0.0,0.0,116.0,643.0,8.0,1,
190001,0.0,54.3,0.0,0.0,116.0,643.0,8.0,1,
190101,0.0,24.8,0.0,0.0,222.0,1202.0,5.0,1,
190201,0.0,12.7,0.0,0.0,222.0,1202.0,5.0,1,
190301,0.0,17.1,0.0,0.0,222.0,1202.0,5.0,1,
190401,0.0,16.9,0.0,0.0,222.0,1202.0,5.0,1,
190501,0.0,15.1,0.0,0.0,222.0,1202.0,5.0,1,
190601,0.0,16.7,0.0,0.0,222.0,1202.0,5.0,1,
190701,0.0,18.1,0.0,0.0,222.0,1202.0,5.0,1,
190801,0.0,13.9,0.0,0.0,222.0,1202.0,5.0,1,
190901,0.0,16.9,0.0,0.0,222.0,1202.0,5.0,1,
191001,0.0,14.2,0.0,0.0,222.0,1202.0,5.0,1,
191101,0.0,48.3,0.0,0.0,100.0,707.0,12.0,1,
191201,0.0,50.1,0.0,0.0,100.0,707.0,12.0,1,
191301,0.0,33.0,0.0,0.0,100.0,707.0,12.0,1,
191401,0.0,58.3,0.0,0.0,284.0,1489.0,6.0,1,
191501,0.0,61.9,0.0,0.0,299.0,1618.0,6.0,1,
191601,0.0,66.0,0.0,0.0,299.0,1618.0,6.0,1,
191701,0.0,28.2,0.0,0.0,299.0,1618.0,6.0,1,
191801,0.0,18.6,0.0,0.0,299.0,1618.0,6.0,1,
191901,0.0,15.4,0.0,0.0,299.0,1618.0,6.0,1,
192001,0.0,18.1,0.0,0.0,299.0,1618.0,6.0,1,
192101,0.0,16.1,0.0,0.0,299.0,1618.0,6.0,1,
192201,0.0,13.2,0.0,0.0,299.0,1618.0,6.0,1,
192301,0.0,16.3,0.0,0.0,299.0,1618.0,6.0,1,
192401,0.0,18.0,0.0,0.0,299.0,1618.0,6.0,1,
192501,0.0,14.0,0.0,0.0,299.0,1618.0,6.0,1,
192601,0.0,13.7,0.0,0.0,299.0,1618.0,6.0,1,
192701,0.0,74.3,0.0,0.0,299.0,1618.0,6.0,1,
192801,0.0,131.2,0.0,0.0,292.0,2360.0,11.0,1,
192901,0.0,94.9,0.0,0.0,261.0,1953.0,5.0,1,
193001,0.0,63.0,0.0,0.0,261.0,1953.0,5.0,1,
193101,0.0,54.7,0.0,0.0,261.0,1953.0,5.0,1,
193201,0.0,91.7,0.0,0.0,250.0,1444.0,6.0,1,
193301,0.0,23.9,0.0,0.0,254.0,1374.0,5.0,1,
193401,0.0,16.2,0.0,0.0,254.0,1374.0,5.0,1,
193501,0.0,14.5,0.0,0.0,254.0,1374.0,5.0,1,
193601,0.0,15.7,0.0,0.0,254.0,1374.0,5.0,1,
193701,0.0,14.7,0.0,0.0,254.0,1374.0,5.0,1,
193801,0.0,17.2,0.0,0.0,254.0,1374.0,5.0,1,
193901,0.0,15.0,0.0,0.0,254.0,1374.0,5.0,1,
194001,0.0,16.6,0.0,0.0,254.0,1374.0,5.0,1,
194101,0.0,15.7,0.0,0.0,254.0,1374.0,5.0,1,
194201,0.0,14.3,0.0,0.0,254.0,1374.0,5.0,1,
194301,0.0,61.0,0.0,0.0,254.0,1374.0,5.0,1,
194401,0.0,66.8,0.0,0.0,254.0,1374.0,5.0,1,
194501,0.0,79.1,0.0,0.0,268.0,1145.0,6.0,1,
194601,0.0,56.8,0.0,0.0,161.0,925.0,6.0,1,
194701,0.0,41.2,0.0,0.0,161.0,925.0,6.0,1,
194801,0.0,30.5,0.0,0.0,161.0,925.0,6.0,1,
194901,0.0,29.4,0.0,0.0,142.0,1091.0,6.0,1,
195001,0.0,18.1,0.0,0.0,142.0,1091.0,6.0,1,
195101,0.0,17.5,0.0,0.0,142.0,1091.0,6.0,1,
195201,0.0,17.1,0.0,0.0,142.0,1091.0,6.0,1,
195301,0.0,16.1,0.0,0.0,142.0,1091.0,6.0,1,
195401,0.0,15.1,0.0,0.0,142.0,1091.0,6.0,1,
195501,0.0,16.8,0.0,0.0,142.0,1091.0,6.0,1,
195601,0.0,17.0,0.0,0.0,142.0,1091.0,6.0,1,
195701,0.0,14.1,0.0,0.0,142.0,1091.0,6.0,1,
195801,0.0,14.5,0.0,0.0,142.0,1091.0,6.0,1,
195901,0.0,114.3,0.0,0.0,361.0,2828.0,9.0,1,
196001,0.0,85.9,0.0,0.0,402.0,2814.0,7.0,1,
196101,0.0,59.6,0.0,0.0,402.0,2814.0,7.0,1,
196201,0.0,79.7,0.0,0.0,402.0,2814.0,7.0,1,
196301,0.0,84.8,0.0,0.0,210.0,1405.0,5.0,1,
196401,0.0,48.7,0.0,0.0,188.0,1419.0,7.0,1,
196501,0.0,27.2,0.0,0.0,188.0,1419.0,7.0,1,
196601,0.0,16.2,0.0,0.0,188.0,1419.0,7.0,1,
196701,0.0,13.6,0.0,0.0,188.0,1419.0,7.0,1,
196801,0.0,17.3,0.0,0.0,188.0,1419.0,7.0,1,
196901,0.0,16.0,0.0,0.0,188.0,1419.0,7.0,1,
197001,0.0,17.8,0.0,0.0,188.0,1419.0,7.0,1,
197101,0.0,14.9,0.0,0.0,188.0,1419.0,7.0,1,
197201,0.0,16.7,0.0,0.0,188.0,1419.0,7.0,1,
197301,0.0,19.2,0.0,0.0,188.0,1419.0,7.0,1,
197401,0.0,14.3,0.0,0.0,188.0,1419.0,7.0,1,
197501,0.0,68.1,0.0,0.0,188.0,1419.0,7.0,1,
197601,0.0,129.0,0.0,0.0,401.0,2812.0,8.0,1,
197701,0.0,67.6,0.0,0.0,265.0,1678.0,7.0,1,
197801,0.0,53.3,0.0,0.0,265.0,1678.0,7.0,1,
197901,0.0,51.4,0.0,0.0,265.0,1678.0,7.0,1,
198001,0.0,89.4,0.0,0.0,214.0,1164.0,5.0,1,
198101,0.0,39.8,0.0,0.0,224.0,1229.0,6.0,1,
198201,0.0,18.1,0.0,0.0,224.0,1229.0,6.0,1,
198301,0.0,16.1,0.0,0.0,224.0,1229.0,6.0,1,
198401,0.0,16.0,0.0,0.0,224.0,1229.0,6.0,1,
198501,0.0,16.5,0.0,0.0,224.0,1229.0,6.0,1,
198601,0.0,17.2,0.0,0.0,224.0,1229.0,6.0,1,
198701,0.0,14.6,0.0,0.0,224.0,1229.0,6.0,1,
198801,0.0,14.4,0.0,0.0,224.0,1229.0,6.0,1,
198901,0.0,15.8,0.0,0.0,224.0,1229.0,6.0,1,
199001,0.0,16.1,0.0,0.0,224.0,1229.0,6.0,1,
199101,0.0,68.1,0.0,0.0,224.0,1229.0,6.0,1,
199201,0.0,68.2,0.0,0.0,224.0,1229.0,6.0,1,
199301,0.0,77.2,0.0,0.0,224.0,1229.0,6.0,1,
199401,0.0,85.2,0.0,0.0,252.0,1896.0,7.0,1,
199501,0.0,58.5,0.0,0.0,239.0,1889.0,6.0,1,
199601,0.0,52.5,0.0,0.0,239.0,1889.0,6.0,1,
199701,0.0,56.8,0.0,0.0,243.0,1769.0,5.0,1,
199801,0.0,17.6,0.0,0.0,243.0,1769.0,5.0,1,
199901,0.0,15.2,0.0,0.0,243.0,1769.0,5.0,1,
200001,0.0,15.5,0.0,0.0,243.0,1769.0,5.0,1,
200101,0.0,16.3,0.0,0.0,243.0,1769.0,5.0,1,
200201,0.0,14.6,0.0,0.0,243.0,1769.0,5.0,1,
200301,0.0,16.3,0.0,0.0,243.0,1769.0,5.0,1,
200401,0.0,13.7,0.0,0.0,243.0,1769.0,5.0,1,
200501,0.0,14.4,0.0,0.0,243.0,1769.0,5.0,1,
200601,0.0,16.6,0.0,0.0,243.0,1769.0,5.0,1,
200701,0.0,64.1,0.0,0.0,243.0,1769.0,5.0,1,
200801,0.0,78.6,0.0,0.0,405.0,2616.0,8.0,1,
200901,0.0,61.7,0.0,0.0,405.0,2616.0,8.0,1,
201001,0.0,68.1,0.0,0.0,405.0,2616.0,8.0,1,
201101,0.0,78.1,0.0,0.0,185.0,1455.0,6.0,1,
201201,0.0,46.9,0.0,0.0,217.0,1354.0,6.0,1,
201301,0.0,37.1,0.0,0.0,217.0,1354.0,6.0,1,
201401,0.0,16.1,0.0,0.0,217.0,1354.0,6.0,1,
201501,0.0,15.4,0.0,0.0,217.0,1354.0,6.0,1,
201601,0.0,18.2,0.0,0.0,217.0,1354.0,6.0,1,
201701,0.0,18.3,0.0,0.0,217.0,1354.0,6.0,1,
201801,0.0,13.2,0.0,0.0,217.0,1354.0,6.0,1,
201901,0.0,17.1,0.0,0.0,217.0,1354.0,6.0,1,
202001,0.0,16.1,0.0,0.0,217.0,1354.0,6.0,1,
202101,0.0,15.6,0.0,0.0,217.0,1354.0,6.0,1,
202201,0.0,16.5,0.0,0.0,217.0,1354.0,6.0,1,
202301,0.0,43.1,0.0,0.0,217.0,1354.0,6.0,1,
202401,0.0,83.6,0.0,0.0,353.0,2102.0,5.0,1,
202501,0.0,60.9,0.0,0.0,160.0,1262.0,7.0,1,
202601,0.0,63.8,0.0,0.0,160.0,1262.0,7.0,1,
202701,0.0,88.4,0.0,0.0,160.0,1262.0,7.0,1,
202801,0.0,94.6,0.0,0.0,228.0,2018.0,6.0,1,
202901,0.0,67.5,0.0,0.0,279.0,1952.0,5.0,1,
203001,0.0,18.7,0.0,0.0,279.0,1952.0,5.0,1,
203101,0.0,16.3,0.0,0.0,279.0,1952.0,5.0,1,
203201,0.0,16.4,0.0,0.0,279.0,1952.0,5.0,1,
203301,0.0,17.3,0.0,0.0,279.0,1952.0,5.0,1,
203401,0.0,15.0,0.0,0.0,279.0,1952.0,5.0,1,
203501,0.0,16.5,0.0,0.0,279.0,1952.0,5.0,1,
203601,0.0,15.3,0.0,0.0,279.0,1952.0,5.0,1,
203701,0.0,13.8,0.0,0.0,279.0,1952.0,5.0,1,
203801,0.0,18.2,0.0,0.0,279.0,1952.0,5.0,1,
203901,0.0,36.6,0.0,0.0,279.0,1952.0,5.0,1,
204001,0.0,83.1,0.0,0.0,279.0,1952.0,5.0,1,
204101,0.0,87.7,0.0,0.0,256.0,2127.0,12.0,1,
204201,0.0,70.7,0.0,0.0,256.0,1772.0,6.0,1,
204301,0.0,65.5,0.0,0.0,259.0,1860.0,6.0,1,
204401,0.0,88.6,0.0,0.0,259.0,1860.0,6.0,1,
204501,0.0,91.6,0.0,0.0,235.0,1708.0,4.0,1,
204601,0.0,20.8,0.0,0.0,297.0,1995.0,6.0,1,
204701,0.0,15.3,0.0,0.0,297.0,1995.0,6.0,1,
204801,0.0,14.1,0.0,0.0,297.0,1995.0,6.0,1,
204901,0.0,14.4,0.0,0.0,297.0,1995.0,6.0,1,
205001,0.0,16.3,0.0,0.0,297.0,1995.0,6.0,1,
205101,0.0,15.4,0.0,0.0,297.0,1995.0,6.0,1,
205201,0.0,16.4,0.0,0.0,297.0,1995.0,6.0,1,
205301,0.0,16.0,0.0,0.0,297.0,1995.0,6.0,1,
205401,0.0,14.9,0.0,0.0,297.0,1995.0,6.0,1,
205501,0.0,16.6,0.0,0.0,297.0,1995.0,6.0,1,
205601,0.0,59.3,0.0,0.0,162.0,1172.0,3.0,1,
205701,0.0,71.8,0.0,0.0,162.0,1172.0,3.0,1,
205801,0.0,76.8,0.0,0.0,213.0,1377.0,4.0,1,
205901,0.0,62.2,0.0,0.0,245.0,1698.0,5.0,1,
206001,0.0,64.1,0.0,0.0,249.0,1515.0,6.0,1,
206101,0.0,75.4,0.0,0.0,249.0,1515.0,6.0,1,
206201,0.0,19.1,0.0,0.0,220.0,1568.0,5.0,1,
206301,0.0,15.5,0.0,0.0,220.0,1568.0,5.0,1,
206401,0.0,15.8,0.0,0.0,220.0,1568.0,5.0,1,
206501,0.0,16.2,0.0,0.0,220.0,1568.0,5.0,1,
206601,0.0,16.1,0.0,0.0,220.0,1568.0,5.0,1,
206701,0.0,14.7,0.0,0.0,220.0,1568.0,5.0,1,
206801,0.0,15.8,0.0,0.0,220.0,1568.0,5.0,1,
206901,0.0,18.6,0.0,0.0,220.0,1568.0,5.0,1,
207001,0.0,14.4,0.0,0.0,220.0,1568.0,5.0,1,
207101,0.0,15.1,0.0,0.0,220.0,1568.0,5.0,1,
207201,0.0,63.0,0.0,0.0,235.0,1587.0,7.0,1,
207301,0.0,68.5,0.0,0.0,235.0,1587.0,7.0,1,
207401,0.0,63.5,0.0,0.0,235.0,1587.0,7.0,1,
207501,0.0,74.2,0.0,0.0,227.0,1654.0,6.0,1,
207601,0.0,79.1,0.0,0.0,258.0,1838.0,6.0,1,
207701,0.0,65.0,0.0,0.0,248.0,1954.0,5.0,1,
207801,0.0,20.5,0.0,0.0,248.0,1954.0,5.0,1,
207901,0.0,17.0,0.0,0.0,248.0,1954.0,5.0,1,
208001,0.0,13.3,0.0,0.0,248.0,1954.0,5.0,1,
208101,0.0,16.4,0.0,0.0,248.0,1954.0,5.0,1,
208201,0.0,17.6,0.0,0.0,248.0,1954.0,5.0,1,
208301,0.0,16.5,0.0,0.0,248.0,1954.0,5.0,1,
208401,0.0,20.3,0.0,0.0,248.0,1954.0,5.0,1,
208501,0.0,16.5,0.0,0.0,248.0,1954.0,5.0,1,
208601,0.0,17.1,0.0,0.0,248.0,1954.0,5.0,1,
208701,0.0,14.4,0.0,0.0,248.0,1954.0,5.0,1,
208801,0.0,66.4,0.0,0.0,248.0,1954.0,5.0,1,
208901,0.0,62.7,0.0,0.0,315.0,1467.0,6.0,1,
209001,0.0,66.6,0.0,0.0,372.0,1469.0,5.0,1,
209101,0.0,42.5,0.0,0.0,372.0,1469.0,5.0,1,
209201,0.0,50.2,0.0,0.0,372.0,1469.0,5.0,1,
209301,0.0,68.8,0.0,0.0,160.0,1197.0,6.0,1,
209401,0.0,23.5,0.0,0.0,182.0,1289.0,8.0,1,
209501,0.0,17.1,0.0,0.0,182.0,1289.0,8.0,1,
209601,0.0,15.5,0.0,0.0,182.0,1289.0,8.0,1,
209701,0.0,16.2,0.0,0.0,182.0,1289.0,8.0,1,
209801,0.0,14.4,0.0,0.0,182.0,1289.0,8.0,1,
209901,0.0,16.1,0.0,0.0,182.0,1289.0,8.0,1,
210001,0.0,19.8,0.0,0.0,182.0,1289.0,8.0,1,
210101,0.0,15.0,0.0,0.0,182.0,1289.0,8.0,1,
210201,0.0,16.2,0.0,0.0,182.0,1289.0,8.0,1,
210301,0.0,16.8,0.0,0.0,182.0,1289.0,8.0,1,
210401,0.0,81.4,0.0,0.0,279.0,1974.0,6.0,1,
210501,0.0,72.7,0.0,0.0,279.0,1974.0,6.0,1,
210601,0.0,53.6,0.0,0.0,279.0,1974.0,6.0,1,
210701,0.0,90.9,0.0,0.0,188.0,1550.0,8.0,1,
210801,0.0,57.5,0.0,0.0,192.0,1703.0,6.0,1,
210901,0.0,53.0,0.0,0.0,192.0,1703.0,6.0,1,
211001,0.0,21.1,0.0,0.0,192.0,1703.0,6.0,1,
211101,0.0,14.7,0.0,0.0,192.0,1703.0,6.0,1,
211201,0.0,15.4,0.0,0.0,192.0,1703.0,6.0,1,
211301,0.0,17.7,0.0,0.0,192.0,1703.0,6.0,1,
211401,0.0,16.4,0.0,0.0,192.0,1703.0,6.0,1,
211501,0.0,16.8,0.0,0.0,192.0,1703.0,6.0,1,
211601,0.0,15.9,0.0,0.0,192.0,1703.0,6.0,1,
211701,0.0,15.4,0.0,0.0,192.0,1703.0,6.0,1,
211801,0.0,14.4,0.0,0.0,192.0,1703.0,6.0,1,
211901,0.0,18.1,0.0,0.0,192.0,1703.0,6.0,1,
212001,0.0,130.8,0.0,0.0,422.0,2581.0,7.0,1,
212101,0.0,100.7,0.0,0.0,393.0,2458.0,7.0,1,
212201,0.0,57.9,0.0,0.0,393.0,2458.0,7.0,1,
212301,0.0,59.5,0.0,0.0,393.0,2458.0,7.0,1,
212401,0.0,114.3,0.0,0.0,278.0,1852.0,6.0,1,
212501,0.0,78.1,0.0,0.0,243.0,1840.0,7.0,1,
212601,0.0,24.5,0.0,0.0,243.0,1840.0,7.0,1,
212701,0.0,18.2,0.0,0.0,243.0,1840.0,7.0,1,
212801,0.0,15.1,0.0,0.0,243.0,1840.0,7.0,1,
212901,0.0,16.0,0.0,0.0,243.0,1840.0,7.0,1,
213001,0.0,16.9,0.0,0.0,243.0,1840.0,7.0,1,
213101,0.0,16.0,0.0,0.0,243.0,1840.0,7.0,1,
213201,0.0,16.7,0.0,0.0,243.0,1840.0,7.0,1,
213301,0.0,17.7,0.0,0.0,243.0,1840.0,7.0,1,
213401,0.0,16.7,0.0,0.0,243.0,1840.0,7.0,1,
213501,0.0,14.6,0.0,0.0,243.0,1840.0,7.0,1,
213601,0.0,44.5,0.0,0.0,243.0,1840.0,7.0,1,
213701,0.0,129.0,0.0,0.0,326.0,2257.0,10.0,1,
213801,0.0,92.7,0.0,0.0,301.0,2139.0,7.0,1,
213901,0.0,63.2,0.0,0.0,197.0,1647.0,5.0,1,
214001,0.0,48.6,0.0,0.0,197.0,1647.0,5.0,1,
214101,0.0,90.8,0.0,0.0,184.0,1405.0,7.0,1,
214201,0.0,29.0,0.0,0.0,220.0,1641.0,8.0,1,
214301,0.0,15.8,0.0,0.0,220.0,1641.0,8.0,1,
214401,0.0,16.8,0.0,0.0,220.0,1641.0,8.0,1,
214501,0.0,16.0,0.0,0.0,220.0,1641.0,8.0,1,
214601,0.0,14.7,0.0,0.0,220.0,1641.0,8.0,1,
214701,0.0,14.3,0.0,0.0,220.0,1641.0,8.0,1,
214801,0.0,15.0,0.0,0.0,220.0,1641.0,8.0,1,
214901,0.0,14.8,0.0,0.0,220.0,1641.0,8.0,1,
215001,0.0,17.0,0.0,0.0,220.0,1641.0,8.0,1,
215101,0.0,16.5,0.0,0.0,220.0,1641.0,8.0,1,
215201,0.0,71.1,0.0,0.0,220.0,1641.0,8.0,1,
215301,0.0,83.8,0.0,0.0,220.0,1641.0,8.0,1,
215401,0.0,98.8,0.0,0.0,218.0,1641.0,9.0,1,
215501,0.0,74.4,0.0,0.0,276.0,1755.0,8.0,1,
215601,0.0,70.3,0.0,0.0,276.0,1755.0,8.0,1,
215701,0.0,60.4,0.0,0.0,276.0,1755.0,8.0,1,
215801,0.0,34.6,0.0,0.0,292.0,1929.0,6.0,1,
215901,0.0,18.5,0.0,0.0,292.0,1929.0,6.0,1,
216001,0.0,16.4,0.0,0.0,292.0,1929.0,6.0,1,
216101,0.0,17.2,0.0,0.0,292.0,1929.0,6.0,1,
216201,0.0,17.2,0.0,0.0,292.0,1929.0,6.0,1,
216301,0.0,17.1,0.0,0.0,292.0,1929.0,6.0,1,
216401,0.0,16.4,0.0,0.0,292.0,1929.0,6.0,1,
216501,0.0,18.6,0.0,0.0,292.0,1929.0,6.0,1,
216601,0.0,15.0,0.0,0.0,292.0,1929.0,6.0,1,
216701,0.0,18.2,0.0,0.0,292.0,1929.0,6.0,1,
216801,0.0,54.1,0.0,0.0,174.0,1044.0,5.0,1,
216901,0.0,32.4,0.0,0.0,174.0,1044.0,5.0,1,
217001,0.0,45.8,0.0,0.0,174.0,1044.0,5.0,1,
217101,0.0,101.2,0.0,0.0,406.0,1742.0,5.0,1,
217201,0.0,81.0,0.0,0.0,552.0,2127.0,5.0,1,
217301,0.0,52.7,0.0,0.0,552.0,2127.0,5.0,1,
217401,0.0,28.0,0.0,0.0,552.0,2127.0,5.0,1,
217501,0.0,17.3,0.0,0.0,552.0,2127.0,5.0,1,
217601,0.0,19.5,0.0,0.0,552.0,2127.0,5.0,1,
217701,0.0,18.2,0.0,0.0,552.0,2127.0,5.0,1,
217801,0.0,14.6,0.0,0.0,552.0,2127.0,5.0,1,
217901,0.0,13.6,0.0,0.0,552.0,2127.0,5.0,1,
218001,0.0,14.8,0.0,0.0,552.0,2127.0,5.0,1,
218101,0.0,19.6,0.0,0.0,552.0,2127.0,5.0,1,
218201,0.0,15.0,0.0,0.0,552.0,2127.0,5.0,1,
218301,0.0,14.4,0.0,0.0,552.0,2127.0,5.0,1,
218401,0.0,109.1,0.0,0.0,395.0,1893.0,6.0,1,
218501,0.0,84.6,0.0,0.0,286.0,1890.0,6.0,1,
218601,0.0,35.4,0.0,0.0,286.0,1890.0,6.0,1,
218701,0.0,40.4,0.0,0.0,286.0,1890.0,6.0,1,
218801,0.0,74.3,0.0,0.0,145.0,898.0,7.0,1,
218901,0.0,69.1,0.0,0.0,216.0,1748.0,11.0,1,
219001,0.0,44.6,0.0,0.0,216.0,1748.0,11.0,1,
219101,0.0,15.0,0.0,0.0,216.0,1748.0,11.0,1,
219201,0.0,16.1,0.0,0.0,216.0,1748.0,11.0,1,
219301,0.0,15.6,0.0,0.0,216.0,1748.0,11.0,1,
219401,0.0,15.2,0.0,0.0,216.0,1748.0,11.0,1,
219502,0.0,15.3,0.0,0.0,216.0,1748.0,11.0,1,
219602,0.0,15.5,0.0,0.0,216.0,1748.0,11.0,1,
219702,0.0,18.9,0.0,0.0,216.0,1748.0,11.0,1,
219802,0.0,13.4,0.0,0.0,216.0,1748.0,11.0,1,
219902,0.0,12.6,0.0,0.0,216.0,1748.0,11.0,1,
220002,0.0,40.7,0.0,0.0,216.0,1748.0,11.0,1,
220102,0.0,96.0,0.0,0.0,318.0,1619.0,7.0,1,
220202,0.0,65.1,0.0,0.0,279.0,1420.0,5.0,1,
220302,0.0,68.9,0.0,0.0,279.0,1420.0,5.0,1,
220402,0.0,85.6,0.0,0.0,279.0,1420.0,5.0,1,
220502,0.0,128.5,0.0,0.0,299.0,2487.0,6.0,1,
220602,0.0,50.8,0.0,0.0,263.0,2105.0,7.0,1,
220702,0.0,15.1,0.0,0.0,263.0,2105.0,7.0,1,
220802,0.0,15.1,0.0,0.0,263.0,2105.0,7.0,1,
220902,0.0,16.6,0.0,0.0,263.0,2105.0,7.0,1,
221002,0.0,12.9,0.0,0.0,263.0,2105.0,7.0,1,
221102,0.0,16.7,0.0,0.0,263.0,2105.0,7.0,1,
221202,0.0,16.0,0.0,0.0,263.0,2105.0,7.0,1,
221302,0.0,14.8,0.0,0.0,263.0,2105.0,7.0,1,
221402,0.0,16.2,0.0,0.0,263.0,2105.0,7.0,1,
221502,0.0,16.2,0.0,0.0,263.0,2105.0,7.0,1,
221602,0.0,31.9,0.0,0.0,263.0,2105.0,7.0,1,
221702,0.0,43.9,0.0,0.0,263.0,2105.0,7.0,1,
221802,0.0,73.7,0.0,0.0,263.0,2105.0,7.0,1,
221902,0.0,71.5,0.0,0.0,209.0,1139.0,5.0,1,
222002,0.0,75.4,0.0,0.0,277.0,1778.0,5.0,1,
222102,0.0,80.2,0.0,0.0,277.0,1778.0,5.0,1,
222202,0.0,67.3,0.0,0.0,410.0,2458.0,6.0,1,
222302,0.0,16.7,0.0,0.0,410.0,2458.0,6.0,1,
222402,0.0,14.0,0.0,0.0,410.0,2458.0,6.0,1,
222502,0.0,12.9,0.0,0.0,410.0,2458.0,6.0,1,
222602,0.0,15.0,0.0,0.0,410.0,2458.0,6.0,1,
222702,0.0,15.3,0.0,0.0,410.0,2458.0,6.0,1,
222802,0.0,15.3,0.0,0.0,410.0,2458.0,6.0,1,
222902,0.0,15.2,0.0,0.0,410.0,2458.0,6.0,1,
223002,0.0,17.9,0.0,0.0,410.0,2458.0,6.0,1,
223102,0.0,16.2,0.0,0.0,410.0,2458.0,6.0,1,
223202,0.0,42.3,0.0,0.0,410.0,2458.0,6.0,1,
223302,0.0,51.8,0.0,0.0,176.0,995.0,5.0,1,
223402,0.0,57.6,0.0,0.0,175.0,1206.0,6.0,1,
223502,0.0,44.8,0.0,0.0,175.0,1206.0,6.0,1,
223602,0.0,74.5,0.0,0.0,245.0,1310.0,6.0,1,
223702,0.0,69.1,0.0,0.0,248.0,1243.0,5.0,1,
223802,0.0,71.4,0.0,0.0,394.0,2518.0,5.0,1,
223902,0.0,17.6,0.0,0.0,394.0,2518.0,5.0,1,
224002,0.0,15.1,0.0,0.0,394.0,2518.0,5.0,1,
224102,0.0,15.0,0.0,0.0,394.0,2518.0,5.0,1,
224202,0.0,17.2,0.0,0.0,394.0,2518.0,5.0,1,
224302,0.0,14.4,0.0,0.0,394.0,2518.0,5.0,1,
224402,0.0,16.7,0.0,0.0,394.0,2518.0,5.0,1,
224502,0.0,15.8,0.0,0.0,394.0,2518.0,5.0,1,
224602,0.0,15.4,0.0,0.0,394.0,2518.0,5.0,1,
224702,0.0,14.5,0.0,0.0,394.0,2518.0,5.0,1,
224802,0.0,26.5,0.0,0.0,394.0,2518.0,5.0,1,
224902,0.0,71.1,0.0,0.0,176.0,1373.0,5.0,1,
225002,0.0,94.5,0.0,0.0,291.0,2307.0,6.0,1,
225102,0.0,74.7,0.0,0.0,267.0,2197.0,6.0,1,
225202,0.0,101.3,0.0,0.0,267.0,2197.0,6.0,1,
225302,0.0,113.2,0.0,0.0,400.0,2195.0,6.0,1,
225402,0.0,78.1,0.0,0.0,357.0,2168.0,5.0,1,
225502,0.0,16.8,0.0,0.0,357.0,2168.0,5.0,1,
225602,0.0,15.6,0.0,0.0,357.0,2168.0,5.0,1,
225702,0.0,15.2,0.0,0.0,357.0,2168.0,5.0,1,
225802,0.0,16.9,0.0,0.0,357.0,2168.0,5.0,1,
225902,0.0,15.8,0.0,0.0,357.0,2168.0,5.0,1,
226002,0.0,16.4,0.0,0.0,357.0,2168.0,5.0,1,
226102,0.0,14.5,0.0,0.0,357.0,2168.0,5.0,1,
226202,0.0,14.5,0.0,0.0,357.0,2168.0,5.0,1,
226302,0.0,14.6,0.0,0.0,357.0,2168.0,5.0,1,
226402,0.0,39.5,0.0,0.0,357.0,2168.0,5.0,1,
226502,0.0,40.7,0.0,0.0,134.0,915.0,3.0,1,
226602,0.0,63.1,0.0,0.0,134.0,915.0,3.0,1,
226702,0.0,65.0,0.0,0.0,255.0,1071.0,6.0,1,
226802,0.0,57.7,0.0,0.0,229.0,1359.0,3.0,1,
226902,0.0,107.3,0.0,0.0,229.0,1359.0,3.0,1,
227002,0.0,115.3,0.0,0.0,382.0,2680.0,5.0,1,
227102,0.0,21.9,0.0,0.0,414.0,2606.0,6.0,1,
227202,0.0,16.3,0.0,0.0,414.0,2606.0,6.0,1,
227302,0.0,14.6,0.0,0.0,414.0,2606.0,6.0,1,
227402,0.0,15.2,0.0,0.0,414.0,2606.0,6.0,1,
227502,0.0,16.0,0.0,0.0,414.0,2606.0,6.0,1,
227602,0.0,15.3,0.0,0.0,414.0,2606.0,6.0,1,
227702,0.0,15.3,0.0,0.0,414.0,2606.0,6.0,1,
227802,0.0,15.1,0.0,0.0,414.0,2606.0,6.0,1,
227902,0.0,14.6,0.0,0.0,414.0,2606.0,6.0,1,
228002,0.0,16.6,0.0,0.0,414.0,2606.0,6.0,1,
228102,0.0,62.7,0.0,0.0,141.0,1025.0,6.0,1,
228202,0.0,64.7,0.0,0.0,204.0,1129.0,5.0,1,
228302,0.0,45.7,0.0,0.0,204.0,1129.0,5.0,1,
228402,0.0,61.7,0.0,0.0,192.0,991.0,6.0,1,
228502,0.0,54.9,0.0,0.0,238.0,1062.0,5.0,1,
228602,0.0,85.3,0.0,0.0,238.0,1062.0,5.0,1,
228702,0.0,22.4,0.0,0.0,238.0,1062.0,5.0,1,
228802,0.0,16.1,0.0,0.0,238.0,1062.0,5.0,1,
228902,0.0,18.5,0.0,0.0,238.0,1062.0,5.0,1,
229002,0.0,15.7,0.0,0.0,238.0,1062.0,5.0,1,
229102,0.0,15.5,0.0,0.0,238.0,1062.0,5.0,1,
229202,0.0,16.0,0.0,0.0,238.0,1062.0,5.0,1,
229302,0.0,13.7,0.0,0.0,238.0,1062.0,5.0,1,
229402,0.0,14.0,0.0,0.0,238.0,1062.0,5.0,1,
229502,0.0,15.3,0.0,0.0,238.0,1062.0,5.0,1,
229602,0.0,14.5,0.0,0.0,238.0,1062.0,5.0,1,
229702,0.0,42.3,0.0,0.0,170.0,1272.0,4.0,1,
229802,0.0,106.5,0.0,0.0,217.0,1576.0,6.0,1,
229902,0.0,64.9,0.0,0.0,239.0,1715.0,6.0,1,
230002,0.0,42.9,0.0,0.0,239.0,1715.0,6.0,1,
230102,0.0,86.4,0.0,0.0,317.0,1907.0,6.0,1,
230202,0.0,114.2,0.0,0.0,364.0,2691.0,6.0,1,
230302,0.0,23.9,0.0,0.0,430.0,2717.0,5.0,1,
230402,0.0,15.5,0.0,0.0,430.0,2717.0,5.0,1,
230502,0.0,15.3,0.0,0.0,430.0,2717.0,5.0,1,
230602,0.0,14.4,0.0,0.0,430.0,2717.0,5.0,1,
230702,0.0,15.5,0.0,0.0,430.0,2717.0,5.0,1,
230802,0.0,16.2,0.0,0.0,430.0,2717.0,5.0,1,
230902,0.0,14.1,0.0,0.0,430.0,2717.0,5.0,1,
231002,0.0,17.1,0.0,0.0,430.0,2717.0,5.0,1,
231102,0.0,18.2,0.0,0.0,430.0,2717.0,5.0,1,
231202,0.0,15.4,0.0,0.0,430.0,2717.0,5.0,1,
231302,0.0,30.1,0.0,0.0,430.0,2717.0,5.0,1,
231402,0.0,49.2,0.0,0.0,430.0,2717.0,5.0,1,
231502,0.0,105.1,0.0,0.0,182.0,1232.0,5.0,1,
231602,0.0,57.3,0.0,0.0,188.0,1117.0,5.0,1,
231702,0.0,43.7,0.0,0.0,188.0,1117.0,5.0,1,
231802,0.0,37.9,0.0,0.0,188.0,1117.0,5.0,1,
231902,0.0,21.5,0.0,0.0,214.0,1177.0,4.0,1,
232002,0.0,16.7,0.0,0.0,214.0,1177.0,4.0,1,
232102,0.0,15.4,0.0,0.0,214.0,1177.0,4.0,1,
232202,0.0,15.2,0.0,0.0,214.0,1177.0,4.0,1,
232302,0.0,16.2,0.0,0.0,214.0,1177.0,4.0,1,
232402,0.0,15.6,0.0,0.0,214.0,1177.0,4.0,1,
232502,0.0,13.9,0.0,0.0,214.0,1177.0,4.0,1,
232602,0.0,15.5,0.0,0.0,214.0,1177.0,4.0,1,
232702,0.0,14.9,0.0,0.0,214.0,1177.0,4.0,1,
232802,0.0,15.1,0.0,0.0,214.0,1177.0,4.0,1,
232902,0.0,58.3,0.0,0.0,142.0,806.0,3.0,1,
233002,0.0,51.4,0.0,0.0,178.0,926.0,6.0,1,
233102,0.0,51.8,0.0,0.0,178.0,926.0,6.0,1,
233202,0.0,107.3,0.0,0.0,202.0,1003.0,5.0,1,
233302,0.0,62.8,0.0,0.0,184.0,1064.0,3.0,1,
233402,0.0,43.5,0.0,0.0,218.0,1055.0,4.0,1,
233502,0.0,19.7,0.0,0.0,218.0,1055.0,4.0,1,
233602,0.0,17.6,0.0,0.0,218.0,1055.0,4.0,1,
233702,0.0,17.7,0.0,0.0,218.0,1055.0,4.0,1,
233802,0.0,15.0,0.0,0.0,218.0,1055.0,4.0,1,
233902,0.0,15.1,0.0,0.0,218.0,1055.0,4.0,1,
234002,0.0,16.4,0.0,0.0,218.0,1055.0,4.0,1,
234102,0.0,16.3,0.0,0.0,218.0,1055.0,4.0,1,
234202,0.0,16.9,0.0,0.0,218.0,1055.0,4.0,1,
234302,0.0,12.1,0.0,0.0,218.0,1055.0,4.0,1,
234402,0.0,14.5,0.0,0.0,218.0,1055.0,4.0,1,
234502,0.0,101.6,0.0,0.0,336.0,2132.0,7.0,1,
234602,0.0,93.4,0.0,0.0,438.0,1984.0,6.0,1,
234702,0.0,59.4,0.0,0.0,374.0,1836.0,6.0,1,
234802,0.0,47.8,0.0,0.0,374.0,1836.0,6.0,1,
234902,0.0,103.1,0.0,0.0,344.0,1647.0,6.0,1,
235002,0.0,71.4,0.0,0.0,329.0,1472.0,5.0,1,
235102,0.0,20.5,0.0,0.0,329.0,1472.0,5.0,1,
235202,0.0,13.0,0.0,0.0,329.0,1472.0,5.0,1,
235302,0.0,15.6,0.0,0.0,329.0,1472.0,5.0,1,
235402,0.0,17.4,0.0,0.0,329.0,1472.0,5.0,1,
235502,0.0,16.0,0.0,0.0,329.0,1472.0,5.0,1,
235602,0.0,14.7,0.0,0.0,329.0,1472.0,5.0,1,
235702,0.0,14.7,0.0,0.0,329.0,1472.0,5.0,1,
235802,0.0,14.0,0.0,0.0,329.0,1472.0,5.0,1,
235902,0.0,14.4,0.0,0.0,329.0,1472.0,5.0,1,
236002,0.0,13.5,0.0,0.0,329.0,1472.0,5.0,1,
236102,0.0,67.5,0.0,0.0,329.0,1472.0,5.0,1,
236202,0.0,102.1,0.0,0.0,329.0,1472.0,5.0,1,
236302,0.0,100.6,0.0,0.0,469.0,1926.0,5.0,1,
236402,0.0,72.4,0.0,0.0,469.0,1926.0,5.0,1,
236502,0.0,60.2,0.0,0.0,469.0,1926.0,5.0,1,
236602,0.0,110.2,0.0,0.0,422.0,1908.0,5.0,1,
236702,0.0,26.9,0.0,0.0,420.0,1678.0,5.0,1,
236802,0.0,15.5,0.0,0.0,420.0,1678.0,5.0,1,
236902,0.0,13.7,0.0,0.0,420.0,1678.0,5.0,1,
237002,0.0,12.3,0.0,0.0,420.0,1678.0,5.0,1,
237102,0.0,12.2,0.0,0.0,420.0,1678.0,5.0,1,
237202,0.0,12.4,0.0,0.0,420.0,1678.0,5.0,1,
237302,0.0,13.1,0.0,0.0,420.0,1678.0,5.0,1,
237402,0.0,11.3,0.0,0.0,420.0,1678.0,5.0,1,
237502,0.0,10.7,0.0,0.0,420.0,1678.0,5.0,1,
237602,0.0,14.1,0.0,0.0,420.0,1678.0,5.0,1,
237702,0.0,63.1,0.0,0.0,420.0,1678.0,5.0,1,
237802,0.0,60.8,0.0,0.0,420.0,1678.0,5.0,1,
237902,0.0,86.1,0.0,0.0,420.0,1678.0,5.0,1,
238002,0.0,91.6,0.0,0.0,386.0,1910.0,5.0,1,
238102,0.0,60.3,0.0,0.0,386.0,1910.0,5.0,1,
238202,0.0,47.2,0.0,0.0,386.0,1910.0,5.0,1,
238302,0.0,25.6,0.0,0.0,341.0,1635.0,6.0,1,
238402,0.0,13.2,0.0,0.0,341.0,1635.0,6.0,1,
238502,0.0,13.6,0.0,0.0,341.0,1635.0,6.0,1,
238602,0.0,14.9,0.0,0.0,341.0,1635.0,6.0,1,
238702,0.0,11.7,0.0,0.0,341.0,1635.0,6.0,1,
238802,0.0,12.2,0.0,0.0,341.0,1635.0,6.0,1,
238902,0.0,12.3,0.0,0.0,341.0,1635.0,6.0,1,
239002,0.0,12.1,0.0,0.0,341.0,1635.0,6.0,1,
239102,0.0,12.5,0.0,0.0,341.0,1635.0,6.0,1,
239202,0.0,14.1,0.0,0.0,341.0,1635.0,6.0,1,
239302,0.0,98.3,0.0,0.0,480.0,2459.0,7.0,1,
239402,0.0,68.8,0.0,0.0,421.0,2214.0,7.0,1,
239502,0.0,64.9,0.0,0.0,421.0,2214.0,7.0,1,
239602,0.0,84.6,0.0,0.0,421.0,2214.0,7.0,1,
239702,0.0,96.0,0.0,0.0,421.0,1969.0,6.0,1,
239802,0.0,56.5,0.0,0.0,394.0,1958.0,6.0,1,
239902,0.0,28.1,0.0,0.0,394.0,1958.0,6.0,1,
240002,0.0,14.1,0.0,0.0,394.0,1958.0,6.0,1,
240102,0.0,14.1,0.0,0.0,394.0,1958.0,6.0,1,
240202,0.0,14.1,0.0,0.0,394.0,1958.0,6.0,1,
240302,0.0,11.7,0.0,0.0,394.0,1958.0,6.0,1,
240402,0.0,13.9,0.0,0.0,394.0,1958.0,6.0,1,
240502,0.0,12.0,0.0,0.0,394.0,1958.0,6.0,1,
240602,0.0,14.9,0.0,0.0,394.0,1958.0,6.0,1,
240702,0.0,16.5,0.0,0.0,394.0,1958.0,6.0,1,
240802,0.0,15.8,0.0,0.0,394.0,1958.0,6.0,1,
240902,0.0,82.7,0.0,0.0,394.0,1958.0,6.0,1,
241002,0.0,117.2,0.0,0.0,504.0,2406.0,6.0,1,
241102,0.0,77.2,0.0,0.0,479.0,2157.0,6.0,1,
241202,0.0,77.2,0.0,0.0,479.0,2157.0,6.0,1,
241302,0.0,97.0,0.0,0.0,479.0,2157.0,6.0,1,
241402,0.0,107.9,0.0,0.0,521.0,2175.0,5.0,1,
241502,0.0,42.5,0.0,0.0,505.0,2148.0,4.0,1,
241602,0.0,15.9,0.0,0.0,505.0,2148.0,4.0,1,
241702,0.0,15.3,0.0,0.0,505.0,2148.0,4.0,1,
241802,0.0,14.2,0.0,0.0,505.0,2148.0,4.0,1,
241902,0.0,13.6,0.0,0.0,505.0,2148.0,4.0,1,
242002,0.0,14.9,0.0,0.0,505.0,2148.0,4.0,1,
242102,0.0,15.3,0.0,0.0,505.0,2148.0,4.0,1,
242202,0.0,13.9,0.0,0.0,505.0,2148.0,4.0,1,
242302,0.0,12.8,0.0,0.0,505.0,2148.0,4.0,1,
242402,0.0,15.2,0.0,0.0,505.0,2148.0,4.0,1,
242502,0.0,62.8,0.0,0.0,505.0,2148.0,4.0,1,
242602,0.0,87.4,0.0,0.0,505.0,2148.0,4.0,1,
242702,0.0,125.5,0.0,0.0,559.0,2470.0,6.0,1,
242802,0.0,72.0,0.0,0.0,518.0,2275.0,5.0,1,
242902,0.0,65.5,0.0,0.0,518.0,2275.0,5.0,1,
243002,0.0,92.9,0.0,0.0,518.0,2275.0,5.0,1,
243102,0.0,51.3,0.0,0.0,506.0,2049.0,5.0,1,
243202,0.0,13.1,0.0,0.0,506.0,2049.0,5.0,1,
243302,0.0,14.3,0.0,0.0,506.0,2049.0,5.0,1,
243402,0.0,13.2,0.0,0.0,506.0,2049.0,5.0,1,
243502,0.0,13.4,0.0,0.0,506.0,2049.0,5.0,1,
243602,0.0,15.1,0.0,0.0,506.0,2049.0,5.0,1,
243702,0.0,12.1,0.0,0.0,506.0,2049.0,5.0,1,
243802,0.0,13.5,0.0,0.0,506.0,2049.0,5.0,1,
243902,0.0,12.8,0.0,0.0,506.0,2049.0,5.0,1,
244002,0.0,13.0,0.0,0.0,506.0,2049.0,5.0,1,
244102,0.0,69.6,0.0,0.0,506.0,2049.0,5.0,1,
244202,0.0,80.2,0.0,0.0,563.0,3008.0,6.0,1,
244302,0.0,94.4,0.0,0.0,563.0,3008.0,6.0,1,
244402,0.0,118.3,0.0,0.0,546.0,2312.0,6.0,1,
244502,0.0,80.0,0.0,0.0,512.0,2428.0,5.0,1,
244602,0.0,63.9,0.0,0.0,512.0,2428.0,5.0,1,
244702,0.0,55.6,0.0,0.0,512.0,2428.0,5.0,1,
244802,0.0,15.7,0.0,0.0,512.0,2428.0,5.0,1,
244902,0.0,15.8,0.0,0.0,512.0,2428.0,5.0,1,
245002,0.0,14.4,0.0,0.0,512.0,2428.0,5.0,1,
245102,0.0,12.6,0.0,0.0,512.0,2428.0,5.0,1,
245202,0.0,14.0,0.0,0.0,512.0,2428.0,5.0,1,
245302,0.0,11.9,0.0,0.0,512.0,2428.0,5.0,1,
245402,0.0,14.0,0.0,0.0,512.0,2428.0,5.0,1,
245502,0.0,13.5,0.0,0.0,512.0,2428.0,5.0,1,
245602,0.0,12.9,0.0,0.0,512.0,2428.0,5.0,1,
245702,0.0,79.6,0.0,0.0,512.0,2428.0,5.0,1,
245802,0.0,79.9,0.0,0.0,467.0,2050.0,7.0,1,
245902,0.0,72.7,0.0,0.0,462.0,2100.0,6.0,1,
246002,0.0,85.7,0.0,0.0,462.0,2100.0,6.0,1,
246102,0.0,116.9,0.0,0.0,496.0,2320.0,6.0,1,
246202,0.0,66.0,0.0,0.0,463.0,1888.0,5.0,1,
246302,0.0,61.4,0.0,0.0,463.0,1888.0,5.0,1,
246402,0.0,15.6,0.0,0.0,463.0,1888.0,5.0,1,
246502,0.0,11.0,0.0,0.0,463.0,1888.0,5.0,1,
246602,0.0,14.3,0.0,0.0,463.0,1888.0,5.0,1,
246702,0.0,12.6,0.0,0.0,463.0,1888.0,5.0,1,
246802,0.0,14.3,0.0,0.0,463.0,1888.0,5.0,1,
246902,0.0,13.9,0.0,0.0,463.0,1888.0,5.0,1,
247002,0.0,13.9,0.0,0.0,463.0,1888.0,5.0,1,
247102,0.0,14.1,0.0,0.0,463.0,1888.0,5.0,1,
247202,0.0,12.6,0.0,0.0,463.0,1888.0,5.0,1,
247302,0.0,62.0,0.0,0.0,463.0,1888.0,5.0,1,
247402,0.0,106.8,0.0,0.0,507.0,2431.0,7.0,1,
247502,0.0,73.0,0.0,0.0,436.0,1912.0,6.0,1,
247602,0.0,66.1,0.0,0.0,433.0,1844.0,6.0,1,
247702,0.0,81.2,0.0,0.0,433.0,1844.0,6.0,1,
247802,0.0,103.4,0.0,0.0,427.0,1976.0,6.0,1,
247902,0.0,60.0,0.0,0.0,438.0,1779.0,5.0,1,
248002,0.0,19.0,0.0,0.0,438.0,1779.0,5.0,1,
248102,0.0,12.4,0.0,0.0,438.0,1779.0,5.0,1,
248202,0.0,14.4,0.0,0.0,438.0,1779.0,5.0,1,
248302,0.0,13.0,0.0,0.0,438.0,1779.0,5.0,1,
248402,0.0,13.3,0.0,0.0,438.0,1779.0,5.0,1,
248502,0.0,12.4,0.0,0.0,438.0,1779.0,5.0,1,
248602,0.0,13.0,0.0,0.0,438.0,1779.0,5.0,1,
248702,0.0,11.9,0.0,0.0,438.0,1779.0,5.0,1,
248802,0.0,13.1,0.0,0.0,438.0,1779.0,5.0,1,
248902,0.0,25.0,0.0,0.0,438.0,1779.0,5.0,1,
249002,0.0,88.8,0.0,0.0,438.0,1779.0,5.0,1,
249102,0.0,114.5,0.0,0.0,485.0,2458.0,6.0,1,
249202,0.0,69.6,0.0,0.0,459.0,1925.0,5.0,1,
249302,0.0,69.8,0.0,0.0,459.0,1925.0,5.0,1,
249402,0.0,90.1,0.0,0.0,459.0,1925.0,5.0,1,
249502,0.0,101.0,0.0,0.0,473.0,2077.0,5.0,1,
249602,0.0,18.0,0.0,0.0,444.0,1983.0,5.0,1,
249702,0.0,13.6,0.0,0.0,444.0,1983.0,5.0,1,
249802,0.0,12.8,0.0,0.0,444.0,1983.0,5.0,1,
249902,0.0,12.8,0.0,0.0,444.0,1983.0,5.0,1,
250002,0.0,15.6,0.0,0.0,444.0,1983.0,5.0,1,
250102,0.0,13.5,0.0,0.0,444.0,1983.0,5.0,1,
250202,0.0,13.0,0.0,0.0,444.0,1983.0,5.0,1,
250302,0.0,11.8,0.0,0.0,444.0,1983.0,5.0,1,
250402,0.0,13.1,0.0,0.0,444.0,1983.0,5.0,1,
250502,0.0,13.3,0.0,0.0,444.0,1983.0,5.0,1,
250602,0.0,70.6,0.0,0.0,444.0,1983.0,5.0,1,
250702,0.0,84.2,0.0,0.0,444.0,1983.0,5.0,1,
250802,0.0,102.9,0.0,0.0,463.0,2318.0,6.0,1,
250902,0.0,67.8,0.0,0.0,409.0,1712.0,6.0,1,
251002,0.0,58.2,0.0,0.0,409.0,1712.0,6.0,1,
251102,0.0,74.2,0.0,0.0,409.0,1712.0,6.0,1,
251202,0.0,18.2,0.0,0.0,334.0,1485.0,6.0,1,
251302,0.0,14.6,0.0,0.0,334.0,1485.0,6.0,1,
251402,0.0,13.9,0.0,0.0,334.0,1485.0,6.0,1,
251502,0.0,14.7,0.0,0.0,334.0,1485.0,6.0,1,
251602,0.0,11.9,0.0,0.0,334.0,1485.0,6.0,1,
251702,0.0,12.3,0.0,0.0,334.0,1485.0,6.0,1,
251802,0.0,13.3,0.0,0.0,334.0,1485.0,6.0,1,
251902,0.0,15.5,0.0,0.0,334.0,1485.0,6.0,1,
252002,0.0,12.5,0.0,0.0,334.0,1485.0,6.0,1,
252102,0.0,12.6,0.0,0.0,334.0,1485.0,6.0,1,
252202,0.0,78.8,0.0,0.0,453.0,2207.0,7.0,1,
252302,0.0,68.1,0.0,0.0,424.0,2174.0,6.0,1,
252402,0.0,77.7,0.0,0.0,424.0,2174.0,6.0,1,
252502,0.0,103.5,0.0,0.0,421.0,2109.0,6.0,1,
252602,0.0,54.6,0.0,0.0,415.0,1671.0,5.0,1,
252702,0.0,53.7,0.0,0.0,415.0,1671.0,5.0,1,
252802,0.0,17.7,0.0,0.0,415.0,1671.0,5.0,1,
252902,0.0,12.5,0.0,0.0,415.0,1671.0,5.0,1,
253002,0.0,13.6,0.0,0.0,415.0,1671.0,5.0,1,
253102,0.0,13.2,0.0,0.0,415.0,1671.0,5.0,1,
253202,0.0,13.1,0.0,0.0,415.0,1671.0,5.0,1,
253302,0.0,13.9,0.0,0.0,415.0,1671.0,5.0,1,
253402,0.0,13.1,0.0,0.0,415.0,1671.0,5.0,1,
253502,0.0,11.9,0.0,0.0,415.0,1671.0,5.0,1,
253602,0.0,12.9,0.0,0.0,415.0,1671.0,5.0,1,
253702,0.0,14.5,0.0,0.0,415.0,1671.0,5.0,1,
253802,0.0,97.4,0.0,0.0,426.0,2308.0,7.0,1,
253902,0.0,72.5,0.0,0.0,414.0,2051.0,6.0,1,
254002,0.0,62.9,0.0,0.0,414.0,2051.0,6.0,1,
254102,0.0,71.7,0.0,0.0,414.0,2051.0,6.0,1,
254202,0.0,91.0,0.0,0.0,420.0,1812.0,6.0,1,
254302,0.0,50.1,0.0,0.0,351.0,1460.0,5.0,1,
254402,0.0,18.8,0.0,0.0,351.0,1460.0,5.0,1,
254502,0.0,13.2,0.0,0.0,351.0,1460.0,5.0,1,
254602,0.0,14.1,0.0,0.0,351.0,1460.0,5.0,1,
254702,0.0,14.4,0.0,0.0,351.0,1460.0,5.0,1,
254802,0.0,13.3,0.0,0.0,351.0,1460.0,5.0,1,
254902,0.0,12.4,0.0,0.0,351.0,1460.0,5.0,1,
255002,0.0,12.1,0.0,0.0,351.0,1460.0,5.0,1,
255102,0.0,11.6,0.0,0.0,351.0,1460.0,5.0,1,
255202,0.0,13.5,0.0,0.0,351.0,1460.0,5.0,1,
255302,0.0,11.5,0.0,0.0,351.0,1460.0,5.0,1,
255402,0.0,90.0,0.0,0.0,351.0,1460.0,5.0,1,
255502,0.0,97.3,0.0,0.0,409.0,2072.0,5.0,1,
255602,0.0,58.3,0.0,0.0,411.0,1636.0,6.0,1,
255702,0.0,58.5,0.0,0.0,411.0,1636.0,6.0,1,
255802,0.0,93.9,0.0,0.0,411.0,1636.0,6.0,1,
255902,0.0,81.3,0.0,0.0,364.0,1675.0,6.0,1,
256002,0.0,21.7,0.0,0.0,378.0,1625.0,5.0,1,
256102,0.0,13.7,0.0,0.0,378.0,1625.0,5.0,1,
256202,0.0,11.1,0.0,0.0,378.0,1625.0,5.0,1,
256302,0.0,13.7,0.0,0.0,378.0,1625.0,5.0,1,
256402,0.0,14.1,0.0,0.0,378.0,1625.0,5.0,1,
256502,0.0,12.9,0.0,0.0,378.0,1625.0,5.0,1,
256602,0.0,14.2,0.0,0.0,378.0,1625.0,5.0,1,
256702,0.0,13.3,0.0,0.0,378.0,1625.0,5.0,1,
256802,0.0,14.8,0.0,0.0,378.0,1625.0,5.0,1,
256902,0.0,11.6,0.0,0.0,378.0,1625.0,5.0,1,
257002,0.0,74.7,0.0,0.0,378.0,1625.0,5.0,1,
257102,0.0,107.0,0.0,0.0,378.0,1625.0,5.0,1,
257202,0.0,91.2,0.0,0.0,417.0,2019.0,6.0,1,
257302,0.0,69.6,0.0,0.0,467.0,1960.0,6.0,1,
257402,0.0,66.8,0.0,0.0,467.0,1960.0,6.0,1,
257502,0.0,108.9,0.0,0.0,407.0,1775.0,6.0,1,
257602,0.0,24.0,0.0,0.0,467.0,1928.0,5.0,1,
257702,0.0,14.8,0.0,0.0,467.0,1928.0,5.0,1,
257802,0.0,12.2,0.0,0.0,467.0,1928.0,5.0,1,
257902,0.0,15.1,0.0,0.0,467.0,1928.0,5.0,1,
258002,0.0,12.2,0.0,0.0,467.0,1928.0,5.0,1,
258102,0.0,14.2,0.0,0.0,467.0,1928.0,5.0,1,
258202,0.0,14.0,0.0,0.0,467.0,1928.0,5.0,1,
258302,0.0,12.7,0.0,0.0,467.0,1928.0,5.0,1,
258402,0.0,13.2,0.0,0.0,467.0,1928.0,5.0,1,
258502,0.0,14.1,0.0,0.0,467.0,1928.0,5.0,1,
258602,0.0,68.1,0.0,0.0,467.0,1928.0,5.0,1,
258702,0.0,75.2,0.0,0.0,467.0,1928.0,5.0,1,
258802,0.0,110.2,0.0,0.0,439.0,1975.0,6.0,1,
258902,0.0,73.0,0.0,0.0,424.0,1970.0,6.0,1,
259002,0.0,57.4,0.0,0.0,424.0,1970.0,6.0,1,
259102,0.0,76.8,0.0,0.0,424.0,1970.0,6.0,1,
259202,0.0,25.6,0.0,0.0,404.0,1568.0,6.0,1,
259302,0.0,15.1,0.0,0.0,404.0,1568.0,6.0,1,
259402,0.0,14.2,0.0,0.0,404.0,1568.0,6.0,1,
259502,0.0,12.8,0.0,0.0,404.0,1568.0,6.0,1,
259602,0.0,11.6,0.0,0.0,404.0,1568.0,6.0,1,
259702,0.0,13.6,0.0,0.0,404.0,1568.0,6.0,1,
259802,0.0,13.3,0.0,0.0,404.0,1568.0,6.0,1,
259902,0.0,13.8,0.0,0.0,404.0,1568.0,6.0,1,
260002,0.0,13.7,0.0,0.0,404.0,1568.0,6.0,1,
260102,0.0,14.9,0.0,0.0,404.0,1568.0,6.0,1,
260202,0.0,62.3,0.0,0.0,397.0,2235.0,8.0,1,
260302,0.0,64.2,0.0,0.0,397.0,2235.0,8.0,1,
260402,0.0,72.2,0.0,0.0,397.0,2235.0,8.0,1,
260502,0.0,94.1,0.0,0.0,369.0,1812.0,6.0,1,
260602,0.0,55.3,0.0,0.0,349.0,1771.0,6.0,1,
260702,0.0,45.3,0.0,0.0,349.0,1771.0,6.0,1,
260802,0.0,23.0,0.0,0.0,349.0,1771.0,6.0,1,
260902,0.0,12.6,0.0,0.0,349.0,1771.0,6.0,1,
261002,0.0,15.0,0.0,0.0,349.0,1771.0,6.0,1,
261102,0.0,11.8,0.0,0.0,349.0,1771.0,6.0,1,
261202,0.0,15.4,0.0,0.0,349.0,1771.0,6.0,1,
261302,0.0,14.5,0.0,0.0,349.0,1771.0,6.0,1,
261402,0.0,13.1,0.0,0.0,349.0,1771.0,6.0,1,
261502,0.0,13.9,0.0,0.0,349.0,1771.0,6.0,1,
261602,0.0,12.9,0.0,0.0,349.0,1771.0,6.0,1,
261702,0.0,13.2,0.0,0.0,349.0,1771.0,6.0,1,
261802,0.0,92.1,0.0,0.0,387.0,2167.0,8.0,1,
261902,0.0,67.1,0.0,0.0,409.0,2096.0,8.0,1,
262002,0.0,52.7,0.0,0.0,409.0,2096.0,8.0,1,
262102,0.0,88.7,0.0,0.0,377.0,1585.0,6.0,1,
262202,0.0,72.6,0.0,0.0,321.0,1419.0,6.0,1,
262302,0.0,50.4,0.0,0.0,321.0,1419.0,6.0,1,
262402,0.0,26.5,0.0,0.0,321.0,1419.0,6.0,1,
262502,0.0,14.4,0.0,0.0,321.0,1419.0,6.0,1,
262602,0.0,13.7,0.0,0.0,321.0,1419.0,6.0,1,
262702,0.0,13.2,0.0,0.0,321.0,1419.0,6.0,1,
262802,0.0,12.3,0.0,0.0,321.0,1419.0,6.0,1,
262902,0.0,14.8,0.0,0.0,321.0,1419.0,6.0,1,
263002,0.0,15.5,0.0,0.0,321.0,1419.0,6.0,1,
263102,0.0,12.6,0.0,0.0,321.0,1419.0,6.0,1,
263202,0.0,12.8,0.0,0.0,321.0,1419.0,6.0,1,
263302,0.0,13.4,0.0,0.0,321.0,1419.0,6.0,1,
263402,0.0,90.5,0.0,0.0,441.0,2232.0,7.0,1,
263502,0.0,92.0,0.0,0.0,437.0,1941.0,7.0,1,
263602,0.0,66.5,0.0,0.0,437.0,1941.0,7.0,1,
263702,0.0,51.5,0.0,0.0,437.0,1941.0,7.0,1,
263802,0.0,92.4,0.0,0.0,365.0,1594.0,6.0,1,
263902,0.0,63.4,0.0,0.0,354.0,1482.0,6.0,1,
264002,0.0,30.5,0.0,0.0,354.0,1482.0,6.0,1,
264102,0.0,12.4,0.0,0.0,354.0,1482.0,6.0,1,
264202,0.0,15.0,0.0,0.0,354.0,1482.0,6.0,1,
264302,0.0,12.7,0.0,0.0,354.0,1482.0,6.0,1,
264402,0.0,12.0,0.0,0.0,354.0,1482.0,6.0,1,
264502,0.0,12.8,0.0,0.0,354.0,1482.0,6.0,1,
264602,0.0,11.1,0.0,0.0,354.0,1482.0,6.0,1,
264702,0.0,14.4,0.0,0.0,354.0,1482.0,6.0,1,
264802,0.0,13.1,0.0,0.0,354.0,1482.0,6.0,1,
264902,0.0,11.9,0.0,0.0,354.0,1482.0,6.0,1,
265002,0.0,61.4,0.0,0.0,354.0,1482.0,6.0,1,
265102,0.0,99.7,0.0,0.0,465.0,1921.0,7.0,1,
265202,0.0,80.7,0.0,0.0,419.0,1912.0,6.0,1,
265302,0.0,55.3,0.0,0.0,419.0,1912.0,6.0,1,
265402,0.0,49.2,0.0,0.0,419.0,1912.0,6.0,1,
265502,0.0,88.0,0.0,0.0,324.0,1484.0,6.0,1,
265602,0.0,34.8,0.0,0.0,342.0,1436.0,5.0,1,
265702,0.0,14.0,0.0,0.0,342.0,1436.0,5.0,1,
265802,0.0,12.5,0.0,0.0,342.0,1436.0,5.0,1,
265902,0.0,13.2,0.0,0.0,342.0,1436.0,5.0,1,
266002,0.0,12.6,0.0,0.0,342.0,1436.0,5.0,1,
266102,0.0,13.0,0.0,0.0,342.0,1436.0,5.0,1,
266202,0.0,13.7,0.0,0.0,342.0,1436.0,5.0,1,
266302,0.0,12.5,0.0,0.0,342.0,1436.0,5.0,1,
266402,0.0,11.2,0.0,0.0,342.0,1436.0,5.0,1,
266502,0.0,12.1,0.0,0.0,342.0,1436.0,5.0,1,
266602,0.0,55.6,0.0,0.0,342.0,1436.0,5.0,1,
266702,0.0,82.1,0.0,0.0,342.0,1436.0,5.0,1,
266802,0.0,98.9,0.0,0.0,442.0,1889.0,5.0,1,
266902,0.0,73.6,0.0,0.0,432.0,1721.0,6.0,1,
267002,0.0,59.7,0.0,0.0,432.0,1721.0,6.0,1,
267102,0.0,63.1,0.0,0.0,398.0,1723.0,6.0,1,
267202,0.0,49.2,0.0,0.0,409.0,1741.0,6.0,1,
267302,0.0,14.2,0.0,0.0,409.0,1741.0,6.0,1,
267402,0.0,13.2,0.0,0.0,409.0,1741.0,6.0,1,
267502,0.0,12.9,0.0,0.0,409.0,1741.0,6.0,1,
267602,0.0,14.2,0.0,0.0,409.0,1741.0,6.0,1,
267702,0.0,14.0,0.0,0.0,409.0,1741.0,6.0,1,
267802,0.0,12.3,0.0,0.0,409.0,1741.0,6.0,1,
267902,0.0,14.1,0.0,0.0,409.0,1741.0,6.0,1,
268002,0.0,14.5,0.0,0.0,409.0,1741.0,6.0,1,
268102,0.0,13.7,0.0,0.0,409.0,1741.0,6.0,1,
268202,0.0,58.6,0.0,0.0,409.0,1741.0,6.0,1,
268302,0.0,64.7,0.0,0.0,409.0,1741.0,6.0,1,
268402,0.0,103.3,0.0,0.0,411.0,2057.0,5.0,1,
268502,0.0,73.2,0.0,0.0,369.0,1903.0,6.0,1,
268602,0.0,73.7,0.0,0.0,369.0,1903.0,6.0,1,
268702,0.0,61.0,0.0,0.0,369.0,1903.0,6.0,1,
268802,0.0,66.6,0.0,0.0,377.0,1799.0,6.0,1,
268902,0.0,15.4,0.0,0.0,377.0,1799.0,6.0,1,
269002,0.0,13.7,0.0,0.0,377.0,1799.0,6.0,1,
269102,0.0,14.0,0.0,0.0,377.0,1799.0,6.0,1,
269202,0.0,12.7,0.0,0.0,377.0,1799.0,6.0,1,
269302,0.0,13.8,0.0,0.0,377.0,1799.0,6.0,1,
269402,0.0,14.1,0.0,0.0,377.0,1799.0,6.0,1,
269502,0.0,12.8,0.0,0.0,377.0,1799.0,6.0,1,
269602,0.0,11.8,0.0,0.0,377.0,1799.0,6.0,1,
269702,0.0,11.3,0.0,0.0,377.0,1799.0,6.0,1,
269802,0.0,52.0,0.0,0.0,377.0,1799.0,6.0,1,
269902,0.0,88.2,0.0,0.0,377.0,1799.0,6.0,1,
270002,0.0,68.8,0.0,0.0,377.0,1799.0,6.0,1,
270102,0.0,82.4,0.0,0.0,407.0,1936.0,6.0,1,
270202,0.0,63.9,0.0,0.0,382.0,1872.0,6.0,1,
270302,0.0,66.3,0.0,0.0,382.0,1872.0,6.0,1,
270402,0.0,69.9,0.0,0.0,375.0,1448.0,6.0,1,
270502,0.0,16.5,0.0,0.0,396.0,1473.0,6.0,1,
270602,0.0,16.5,0.0,0.0,396.0,1473.0,6.0,1,
270702,0.0,14.2,0.0,0.0,396.0,1473.0,6.0,1,
270802,0.0,16.9,0.0,0.0,396.0,1473.0,6.0,1,
270902,0.0,14.1,0.0,0.0,396.0,1473.0,6.0,1,
271002,0.0,11.6,0.0,0.0,396.0,1473.0,6.0,1,
271102,0.0,10.9,0.0,0.0,396.0,1473.0,6.0,1,
271202,0.0,13.3,0.0,0.0,396.0,1473.0,6.0,1,
271302,0.0,12.5,0.0,0.0,396.0,1473.0,6.0,1,
271402,0.0,39.1,0.0,0.0,396.0,1473.0,6.0,1,
271502,0.0,83.2,0.0,0.0,457.0,2254.0,6.0,1,
271602,0.0,82.3,0.0,0.0,457.0,2254.0,6.0,1,
271702,0.0,77.4,0.0,0.0,418.0,1823.0,6.0,1,
271802,0.0,65.2,0.0,0.0,382.0,1758.0,5.0,1,
271902,0.0,71.5,0.0,0.0,382.0,1758.0,5.0,1,
272002,0.0,81.0,0.0,0.0,382.0,1758.0,5.0,1,
272102,0.0,15.9,0.0,0.0,382.0,1758.0,5.0,1,
272202,0.0,12.6,0.0,0.0,382.0,1758.0,5.0,1,
272302,0.0,12.9,0.0,0.0,382.0,1758.0,5.0,1,
272402,0.0,12.6,0.0,0.0,382.0,1758.0,5.0,1,
272502,0.0,15.2,0.0,0.0,382.0,1758.0,5.0,1,
272602,0.0,15.0,0.0,0.0,382.0,1758.0,5.0,1,
272702,0.0,12.1,0.0,0.0,382.0,1758.0,5.0,1,
272802,0.0,13.5,0.0,0.0,382.0,1758.0,5.0,1,
272902,0.0,15.3,0.0,0.0,382.0,1758.0,5.0,1,
273002,0.0,12.2,0.0,0.0,382.0,1758.0,5.0,1,
273102,0.0,70.1,0.0,0.0,483.0,2359.0,6.0,1,
273202,0.0,81.8,0.0,0.0,483.0,2359.0,6.0,1,
273302,0.0,82.6,0.0,0.0,483.0,2359.0,6.0,1,
273402,0.0,73.4,0.0,0.0,374.0,1671.0,5.0,1,
273502,0.0,53.3,0.0,0.0,376.0,1642.0,6.0,1,
273602,0.0,72.5,0.0,0.0,376.0,1642.0,6.0,1,
273702,0.0,18.0,0.0,0.0,376.0,1642.0,6.0,1,
273802,0.0,13.8,0.0,0.0,376.0,1642.0,6.0,1,
273902,0.0,15.3,0.0,0.0,376.0,1642.0,6.0,1,
274002,0.0,12.7,0.0,0.0,376.0,1642.0,6.0,1,
274102,0.0,12.8,0.0,0.0,376.0,1642.0,6.0,1,
274202,0.0,12.3,0.0,0.0,376.0,1642.0,6.0,1,
274302,0.0,14.5,0.0,0.0,376.0,1642.0,6.0,1,
