Time(ms),Raw_ADC
0,1659
0.25,1649
0.5,1627
0.75,1677
1,1718
1.25,1757
1.5,1788
1.75,1825
2,1845
2.25,1893
2.5,1930
2.75,1904
3,1915
3.25,1917
3.5,2106
3.75,1946
4,1968
4.25,1998
4.5,2033
4.75,2029
5,2054
5.25,1999
5.5,2068
5.75,2015
6,1994
6.25,1957
6.5,1880
6.75,1805
7,1721
7.25,1677
7.5,1650
7.75,1648
8,1622
8.25,1631
8.5,1680
8.75,1728
9,1766
9.25,1847
9.5,1840
9.75,1857
10,1865
10.25,1883
10.5,1909
10.75,1914
11,1918
11.25,2134
11.5,1926
11.75,1964
12,1983
12.25,2007
12.5,2056
12.75,2033
13,2083
13.25,2030
13.5,2061
13.75,2030
14,1951
14.25,1852
14.5,1767
14.75,1693
15,1674
15.25,1616
15.5,1624
15.75,1635
16,1667
16.25,1680
16.5,1726
16.75,1781
17,1807
17.25,1840
17.5,1879
17.75,1853
18,1890
18.25,1883
18.5,1873
18.75,1901
19,2098
19.25,1936
19.5,1987
19.75,2000
20,2029
20.25,2060
20.5,2068
20.75,2057
21,2062
21.25,2067
21.5,2024
21.75,1920
22,1861
22.25,1754
22.5,1694
22.75,1680
23,1673
23.25,1661
23.5,1630
23.75,1643
24,1676
24.25,1734
24.5,1773
24.75,1830
25,1859
25.25,1863
25.5,1905
25.75,1903
26,1890
26.25,1856
26.5,1890
26.75,2064
27,1903
27.25,1946
27.5,1989
27.75,2030
28,2059
28.25,2062
28.5,2080
28.75,2064
29,2046
29.25,1979
29.5,1968
29.75,1833
30,1760
30.25,1723
30.5,1687
30.75,1638
31,1614
31.25,1600
31.5,1626
31.75,1670
32,1726
32.25,1829
32.5,1840
32.75,1852
33,1882
33.25,1902
33.5,1904
33.75,1904
34,1891
34.25,1908
34.5,2043
34.75,1913
35,1978
35.25,2000
35.5,2038
35.75,2086
36,2078
36.25,2089
36.5,2081
36.75,2032
37,2005
37.25,1921
37.5,1840
37.75,1773
38,1705
38.25,1703
38.5,1673
38.75,1648
39,1616
39.25,1621
39.5,1648
39.75,1722
40,1787
40.25,1815
40.5,1885
40.75,1896
41,1912
41.25,1895
41.5,1918
41.75,1922
42,1532
42.25,2022
42.5,1941
42.75,2010
43,2019
43.25,2007
43.5,2032
43.75,2096
44,2092
44.25,2064
44.5,2054
44.75,2000
45,1927
45.25,1798
45.5,1733
45.75,1712
46,1686
46.25,1699
46.5,1648
46.75,1615
47,1654
47.25,1679
47.5,1701
47.75,1761
48,1808
48.25,1869
48.5,1892
48.75,1904
49,1922
49.25,1920
49.5,1911
49.75,1052
50,1991
50.25,1935
50.5,2005
50.75,2020
51,2058
51.25,2029
51.5,2062
51.75,2064
52,2075
52.25,2002
52.5,2014
52.75,1893
53,1819
53.25,1721
53.5,1711
53.75,1715
54,1703
54.25,1671
54.5,1631
54.75,1658
55,1694
55.25,1717
55.5,1778
55.75,1783
56,1819
56.25,1842
56.5,1891
56.75,1901
57,1902
57.25,1877
57.5,878
57.75,1973
58,1952
58.25,1999
58.5,2081
58.75,2064
59,2067
59.25,2089
59.5,2058
59.75,2047
60,1989
60.25,1954
60.5,1854
60.75,1771
61,1742
61.25,1741
61.5,1712
61.75,1692
62,1664
62.25,1648
62.5,1696
62.75,1691
63,1733
63.25,1776
63.5,1829
63.75,1834
64,1844
64.25,1862
64.5,1904
64.75,1903
65,1873
65.25,1014
65.5,1957
65.75,1946
66,1995
66.25,2023
66.5,2075
66.75,2087
67,2102
67.25,2089
67.5,2082
67.75,2021
68,1971
68.25,1830
68.5,1743
68.75,1717
69,1725
69.25,1701
69.5,1692
69.75,1674
70,1696
70.25,1664
70.5,1690
70.75,1738
71,1788
71.25,1840
71.5,1853
71.75,1851
72,1889
72.25,1895
72.5,1872
72.75,1877
73,1463
73.25,1955
73.5,1956
73.75,2017
74,2015
74.25,2066
74.5,2081
74.75,2087
75,2112
75.25,2083
75.5,2042
75.75,1965
76,1870
76.25,1762
76.5,1716
76.75,1707
77,1678
77.25,1669
77.5,1656
77.75,1664
78,1654
78.25,1705
78.5,1749
78.75,1767
79,1819
79.25,1855
79.5,1902
79.75,1881
80,1898
80.25,1905
80.5,1906
80.75,1834
81,1925
81.25,1905
81.5,2003
81.75,2058
82,2074
82.25,2091
82.5,2069
82.75,2087
83,2069
83.25,2006
83.5,1952
83.75,1851
84,1797
84.25,1743
84.5,1750
84.75,1705
85,1683
85.25,1631
85.5,1661
85.75,1697
86,1664
86.25,1726
86.5,1761
86.75,1809
87,1847
87.25,1869
87.5,1881
87.75,1883
88,1920
88.25,1897
88.5,1949
88.75,1917
89,1934
89.25,1990
89.5,2000
89.75,2079
90,2079
90.25,2095
90.5,2079
90.75,2066
91,2037
91.25,1930
91.5,1857
91.75,1802
92,1719
92.25,1741
92.5,1714
92.75,1651
93,1655
93.25,1618
93.5,1644
93.75,1658
94,1744
94.25,1776
94.5,1810
94.75,1824
95,1871
95.25,1878
95.5,1897
95.75,1904
96,1925
96.25,2081
96.5,1923
96.75,1939
97,2035
97.25,2032
97.5,2059
97.75,2053
98,2079
98.25,2068
98.5,2043
98.75,2010
99,1946
99.25,1868
99.5,1789
99.75,1771
100,1735
100.25,1723
100.5,1735
100.75,1692
101,1663
101.25,1672
101.5,1679
101.75,1707
102,1756
102.25,1783
102.5,1834
102.75,1858
103,1898
103.25,1904
103.5,1875
103.75,1910
104,2087
104.25,1953
104.5,1961
104.75,2027
105,2063
105.25,2031
105.5,2096
105.75,2069
106,2044
106.25,2005
106.5,1968
106.75,1907
107,1840
107.25,1824
107.5,1771
107.75,1764
108,1743
108.25,1715
108.5,1707
108.75,1680
109,1664
109.25,1693
109.5,1724
109.75,1749
110,1780
110.25,1798
110.5,1851
110.75,1891
111,1851
111.25,1899
111.5,1905
111.75,2006
112,1940
112.25,1985
112.5,2037
112.75,2084
113,2093
113.25,2113
113.5,2064
113.75,2062
114,2030
114.25,1962
114.5,1889
114.75,1840
115,1785
115.25,1782
115.5,1744
115.75,1758
116,1728
116.25,1685
116.5,1664
116.75,1686
117,1734
117.25,1747
117.5,1789
117.75,1782
118,1780
118.25,1824
118.5,1840
118.75,1855
119,1884
119.25,1893
119.5,1889
119.75,1904
120,1900
120.25,1911
120.5,1904
120.75,1917
121,1910
121.25,1872
121.5,1893
121.75,1904
122,1882
122.25,1870
122.5,1867
122.75,1863
123,1844
123.25,1893
123.5,1881
123.75,1855
124,1887
124.25,1874
124.5,1881
124.75,1873
125,1914
125.25,1856
125.5,1875
125.75,1869
126,1896
126.25,1846
126.5,1843
126.75,1840
127,1837
127.25,1860
127.5,1826
127.75,1872
128,1876
128.25,1872
128.5,1877
128.75,1872
129,1873
129.25,1883
129.5,1855
129.75,1854
130,1839
130.25,1875
130.5,1873
130.75,1842
131,1840
131.25,1822
131.5,1814
131.75,1855
132,1870
132.25,1856
132.5,1901
132.75,1876
133,1869
133.25,1863
133.5,1872
133.75,1874
134,1845
134.25,1867
134.5,1856
134.75,1871
135,1831
135.25,1840
135.5,1840
135.75,1870
136,1857
136.25,1870
136.5,1857
136.75,1897
137,1859
137.25,1872
137.5,1887
137.75,1872
138,1858
138.25,1846
138.5,1860
138.75,1808
139,1838
139.25,1843
139.5,1838
139.75,1872
140,1859
140.25,1850
140.5,1868
140.75,1871
141,1882
141.25,1855
141.5,1872
141.75,1878
142,1865
142.25,1878
142.5,1872
142.75,1886
143,1827
143.25,1831
143.5,1840
143.75,1823
144,1881
144.25,1868
144.5,1906
144.75,1882
145,1903
145.25,1877
145.5,1871
145.75,1888
146,1881
146.25,1873
146.5,1883
146.75,1862
147,1868
147.25,1835
147.5,1842
147.75,1853
148,1860
148.25,1854
148.5,1858
148.75,1858
149,1859
149.25,1842
149.5,1869
149.75,1872
150,1893
150.25,1883
150.5,1869
150.75,1856
151,1881
151.25,1843
151.5,1844
151.75,1846
152,1825
152.25,1855
152.5,1859
152.75,1866
153,1846
153.25,1840
153.5,1873
153.75,1857
154,1879
154.25,1879
154.5,1883
154.75,1856
155,1844
155.25,1875
155.5,1821
155.75,1841
156,1834
156.25,1826
156.5,1853
156.75,1862
157,1855
157.25,1847
157.5,1890
157.75,1877
158,1865
158.25,1881
158.5,1874
158.75,1883
159,1860
159.25,1858
159.5,1897
159.75,1871
160,1826
160.25,1836
160.5,1865
160.75,1870
161,1866
161.25,1872
161.5,1887
161.75,1899
162,1876
162.25,1870
162.5,1891
162.75,1907
163,1883
163.25,1871
163.5,1857
163.75,1826
164,1841
164.25,1840
164.5,1847
164.75,1858
165,1845
165.25,1882
165.5,1863
165.75,1856
166,1883
166.25,1866
166.5,1859
166.75,1863
167,1913
167.25,1841
167.5,1873
167.75,1854
168,1843
168.25,1843
168.5,1842
168.75,1843
169,1882
169.25,1855
169.5,1865
169.75,1841
170,1878
170.25,1866
170.5,1873
170.75,1860
171,1861
171.25,1895
171.5,1869
171.75,1843
172,1862
172.25,1859
172.5,1829
172.75,1850
173,1856
173.25,1856
173.5,1905
173.75,1839
174,1875
174.25,1873
174.5,1870
174.75,1870
175,1882
175.25,1850
175.5,1872
175.75,1844
176,1851
176.25,1881
176.5,1846
176.75,1846
177,1834
177.25,1856
177.5,1855
177.75,1883
178,1845
178.25,1863
178.5,1865
178.75,1865
179,1870
179.25,1857
179.5,1891
179.75,1863
180,1872
180.25,1871
180.5,1866
180.75,1846
181,1840
181.25,1869
181.5,1893
181.75,1863
182,1890
182.25,1877
182.5,1905
182.75,1882
183,1862
183.25,1872
183.5,1883
183.75,1882
184,1845
184.25,1859
184.5,1856
184.75,1886
185,1838
185.25,1853
185.5,1843
185.75,1851
186,1840
186.25,1859
186.5,1866
186.75,1881
187,1874
187.25,1870
187.5,1872
187.75,1897
188,1874
188.25,1857
188.5,1843
188.75,1847
189,1844
189.25,1835
189.5,1849
189.75,1871
190,1857
190.25,1860
190.5,1887
190.75,1905
191,1868
191.25,1876
191.5,1871
191.75,1873
192,1869
192.25,1872
192.5,1845
192.75,1891
193,1877
193.25,1840
193.5,1835
193.75,1865
194,1838
194.25,1856
194.5,1857
194.75,1847
195,1881
195.25,1886
195.5,1863
195.75,1875
196,1877
196.25,1903
196.5,1854
196.75,1877
197,1857
197.25,1838
197.5,1836
197.75,1850
198,1856
198.25,1886
198.5,1867
198.75,1875
199,1869
199.25,1867
199.5,1872
199.75,1870
200,1870
200.25,1871
200.5,1836
200.75,1855
201,1879
201.25,1841
201.5,1827
201.75,1825
202,1833
202.25,1854
202.5,1863
202.75,1872
203,1875
203.25,1870
203.5,1857
203.75,1858
204,1861
204.25,1901
204.5,1916
204.75,1870
205,1870
205.25,1904
205.5,1859
205.75,1833
206,1840
206.25,1877
206.5,1874
206.75,1882
207,1868
207.25,1867
207.5,1883
207.75,1871
208,1872
208.25,1845
208.5,1869
208.75,1866
209,1854
209.25,1853
209.5,1850
209.75,1847
210,1841
210.25,1837
210.5,1851
210.75,1904
211,1847
211.25,1866
211.5,1869
211.75,1889
212,1872
212.25,1870
212.5,1874
212.75,1877
213,1862
213.25,1866
213.5,1857
213.75,1863
214,1853
214.25,1851
214.5,1846
214.75,1850
215,1856
215.25,1895
215.5,1872
215.75,1871
216,1872
216.25,1855
216.5,1871
216.75,1871
217,1898
217.25,1878
217.5,1904
217.75,1872
218,1845
218.25,1840
218.5,1840
218.75,1839
219,1853
219.25,1862
219.5,1905
219.75,1881
220,1874
220.25,1884
220.5,1857
220.75,1845
221,1875
221.25,1887
221.5,1839
221.75,1846
222,1867
222.25,1846
222.5,1846
222.75,1841
223,1840
223.25,1834
223.5,1854
223.75,1854
224,1846
224.25,1880
224.5,1871
224.75,1871
225,1879
225.25,1872
225.5,1885
225.75,1857
226,1851
226.25,1848
226.5,1847
226.75,1835
227,1835
227.25,1865
227.5,1893
227.75,1847
228,1891
228.25,1895
228.5,1865
228.75,1867
229,1880
229.25,1874
229.5,1898
229.75,1871
230,1840
230.25,1860
230.5,1826
230.75,1840
231,1834
231.25,1839
231.5,1837
231.75,1857
232,1858
232.25,1866
232.5,1840
232.75,1870
233,1877
233.25,1854
233.5,1893
233.75,1890
234,1859
234.25,1874
234.5,1857
234.75,1840
235,1840
235.25,1815
235.5,1841
235.75,1852
236,1856
236.25,1891
236.5,1868
236.75,1872
237,1872
237.25,1870
237.5,1869
237.75,1907
238,1879
238.25,1867
238.5,1865
238.75,1846
239,1840
239.25,1830
239.5,1855
239.75,1863
240,1874
240.25,1873
240.5,1869
240.75,1843
241,1851
241.25,1872
241.5,1872
241.75,1873
242,1879
242.25,1863
242.5,1852
242.75,1868
243,1807
243.25,1847
243.5,1840
243.75,1847
244,1835
244.25,1862
244.5,1873
244.75,1865
245,1867
245.25,1887
245.5,1859
245.75,1869
246,1882
246.25,1887
246.5,1882
246.75,1850
247,1851
247.25,1859
247.5,1839
247.75,1838
248,1835
248.25,1851
248.5,1861
248.75,1847
249,1884
249.25,1880
249.5,1872
249.75,1869
250,1889
250.25,1882
250.5,1869
250.75,1885
251,1854
251.25,1872
251.5,1840
251.75,1827
252,1840
252.25,1856
252.5,1856
252.75,1890
253,1873
253.25,1877
253.5,1889
253.75,1862
254,1858
254.25,1883
254.5,1882
254.75,1861
255,1869
255.25,1852
255.5,1835
255.75,1840
256,1839
256.25,1840
256.5,1870
256.75,1858
257,1865
257.25,1862
257.5,1853
257.75,1871
258,1881
258.25,1866
258.5,1869
258.75,1871
259,1872
259.25,1855
259.5,1856
259.75,1852
260,1840
260.25,1840
260.5,1855
260.75,1877
261,1857
261.25,1871
261.5,1843
261.75,1892
262,1869
262.25,1863
262.5,1875
262.75,1877
263,1872
263.25,1872
263.5,1884
263.75,1831
264,1840
264.25,1830
264.5,1821
264.75,1856
265,1886
265.25,1872
265.5,1886
265.75,1887
266,1873
266.25,1872
266.5,1862
266.75,1883
267,1904
267.25,1873
267.5,1846
267.75,1837
268,1823
268.25,1834
268.5,1833
268.75,1823
269,1860
269.25,1867
269.5,1876
269.75,1859
270,1843
270.25,1893
270.5,1865
270.75,1868
271,1870
271.25,1872
271.5,1854
271.75,1872
272,1855
272.25,1852
272.5,1841
272.75,1825
273,1847
273.25,1855
273.5,1869
273.75,1865
274,1840
274.25,1861
274.5,1877
274.75,1866
275,1863
275.25,1859
275.5,1868
275.75,1861
276,1843
276.25,1843
276.5,1833
276.75,1844
277,1840
277.25,1843
277.5,1870
277.75,1883
278,1907
278.25,1906
278.5,1869
278.75,1872
279,1873
279.25,1889
279.5,1873
279.75,1883
280,1858
280.25,1873
280.5,1852
280.75,1836
281,1840
281.25,1865
281.5,1840
281.75,1871
282,1866
282.25,1879
282.5,1883
282.75,1868
283,1858
283.25,1856
283.5,1859
283.75,1841
284,1889
284.25,1874
284.5,1853
284.75,1840
285,1839
285.25,1837
285.5,1862
285.75,1858
286,1867
286.25,1869
286.5,1866
286.75,1862
287,1869
287.25,1872
287.5,1881
287.75,1872
288,1872
288.25,1853
288.5,1859
288.75,1869
289,1842
289.25,1825
289.5,1840
289.75,1872
290,1860
290.25,1870
290.5,1897
290.75,1843
291,1856
291.25,1872
291.5,1873
291.75,1882
292,1872
292.25,1861
292.5,1872
292.75,1889
293,1863
293.25,1843
293.5,1839
293.75,1852
294,1859
294.25,1886
294.5,1884
294.75,1839
295,1872
295.25,1872
295.5,1869
295.75,1858
296,1892
296.25,1883
296.5,1869
296.75,1855
297,1844
297.25,1840
297.5,1839
297.75,1845
298,1846
298.25,1861
298.5,1861
298.75,1858
299,1886
299.25,1841
299.5,1871
299.75,1872
300,1862
300.25,1888
300.5,1876
300.75,1885
301,1869
301.25,1831
301.5,1854
301.75,1844
302,1846
302.25,1840
302.5,1854
302.75,1872
303,1879
303.25,1863
303.5,1843
303.75,1872
304,1872
304.25,1878
304.5,1885
304.75,1855
305,1882
305.25,1863
305.5,1845
305.75,1843
306,1831
306.25,1815
306.5,1823
306.75,1850
307,1871
307.25,1877
307.5,1878
307.75,1869
308,1882
308.25,1876
308.5,1859
308.75,1899
309,1851
309.25,1874
309.5,1881
309.75,1840
310,1836
310.25,1840
310.5,1873
310.75,1866
311,1863
311.25,1899
311.5,1871
311.75,1873
312,1872
312.25,1871
312.5,1875
312.75,1872
313,1872
313.25,1870
313.5,1863
313.75,1866
314,1840
314.25,1861
314.5,1845
314.75,1853
315,1847
315.25,1854
315.5,1871
315.75,1889
316,1874
316.25,1872
316.5,1874
316.75,1909
317,1871
317.25,1871
317.5,1869
317.75,1847
318,1853
318.25,1838
318.5,1840
318.75,1831
319,1850
319.25,1866
319.5,1866
319.75,1870
320,1856
320.25,1876
320.5,1874
320.75,1867
321,1869
321.25,1890
321.5,1904
321.75,1878
322,1868
322.25,1851
322.5,1842
322.75,1845
323,1838
323.25,1847
323.5,1869
323.75,1872
324,1890
324.25,1883
324.5,1873
324.75,1871
325,1875
325.25,1866
325.5,1888
325.75,1890
326,1844
326.25,1860
326.5,1847
326.75,1840
327,1841
327.25,1851
327.5,1843
327.75,1872
328,1881
328.25,1887
328.5,1859
328.75,1863
329,1863
329.25,1867
329.5,1858
329.75,1866
330,1833
330.25,1862
330.5,1825
330.75,1840
331,1840
331.25,1827
331.5,1859
331.75,1870
332,1873
332.25,1863
332.5,1876
332.75,1874
333,1879
333.25,1867
333.5,1867
333.75,1869
334,1892
334.25,1889
334.5,1853
334.75,1841
335,1840
335.25,1842
335.5,1830
335.75,1837
336,1860
336.25,1859
336.5,1863
336.75,1875
337,1873
337.25,1863
337.5,1856
337.75,1861
338,1872
338.25,1859
338.5,1883
338.75,1827
339,1840
339.25,1834
339.5,1843
339.75,1872
340,1877
340.25,1887
340.5,1856
340.75,1904
341,1875
341.25,1872
341.5,1869
341.75,1900
342,1924
342.25,1875
342.5,1871
342.75,1883
343,1852
343.25,1831
343.5,1831
343.75,1825
344,1840
344.25,1859
344.5,1872
344.75,1877
345,1859
345.25,1878
345.5,1875
345.75,1854
346,1895
346.25,1922
346.5,1874
346.75,1846
347,1826
347.25,1850
347.5,1842
347.75,1838
348,1854
348.25,1847
348.5,1867
348.75,1886
349,1858
349.25,1870
349.5,1866
349.75,1871
350,1893
350.25,1863
350.5,1885
350.75,1856
351,1860
351.25,1846
351.5,1821
351.75,1840
352,1828
352.25,1843
352.5,1877
352.75,1872
353,1888
353.25,1858
353.5,1859
353.75,1874
354,1867
354.25,1905
354.5,1895
354.75,1873
355,1904
355.25,1839
355.5,1836
355.75,1834
356,1840
356.25,1867
356.5,1867
356.75,1849
357,1818
357.25,1850
357.5,1865
357.75,1866
358,1873
358.25,1861
358.5,1872
358.75,1872
359,1870
359.25,1852
359.5,1821
359.75,1840
360,1835
360.25,1840
360.5,1847
360.75,1869
361,1858
361.25,1878
361.5,1871
361.75,1875
362,1874
362.25,1872
362.5,1874
362.75,1889
363,1876
363.25,1886
363.5,1862
363.75,1851
364,1841
364.25,1843
364.5,1843
364.75,1847
365,1872
365.25,1874
365.5,1881
365.75,1847
366,1892
366.25,1871
366.5,1869
366.75,2023
367,1942
367.25,1936
367.5,1904
367.75,1902
368,1904
368.25,1910
368.5,1904
368.75,1867
369,1878
369.25,1858
369.5,1840
369.75,1857
370,1887
370.25,1845
370.5,1831
370.75,1831
371,1830
371.25,1841
371.5,1820
371.75,1819
372,1857
372.25,1833
372.5,1829
372.75,1824
373,1822
373.25,1863
373.5,1863
373.75,1869
374,1872
374.25,1881
374.5,1997
374.75,1916
375,1921
375.25,1918
375.5,1935
375.75,1930
376,1947
376.25,1878
376.5,1912
376.75,1879
377,1856
377.25,1862
377.5,1895
377.75,1909
378,1884
378.25,1819
378.5,1833
378.75,1829
379,1833
379.25,1843
379.5,1869
379.75,1827
380,1840
380.25,1843
380.5,1853
380.75,1808
381,1814
381.25,1813
381.5,1836
381.75,1866
382,1702
382.25,2014
382.5,1923
382.75,1901
383,1907
383.25,1931
383.5,1939
383.75,1968
384,1951
384.25,1941
384.5,1916
384.75,1894
385,1889
385.25,1898
385.5,1929
385.75,1893
386,1840
386.25,1826
386.5,1815
386.75,1822
387,1808
387.25,1792
387.5,1807
387.75,1833
388,1814
388.25,1819
388.5,1837
388.75,1840
389,1837
389.25,1838
389.5,1847
389.75,1210
390,1985
390.25,1909
390.5,1936
390.75,1913
391,1952
391.25,1951
391.5,1952
391.75,1962
392,1969
392.25,1939
392.5,1931
392.75,1900
393,1910
393.25,1895
393.5,1862
393.75,1810
394,1803
394.25,1808
394.5,1792
394.75,1776
395,1771
395.25,1771
395.5,1783
395.75,1776
396,1801
396.25,1803
396.5,1840
396.75,1867
397,1857
397.25,1872
397.5,800
397.75,1951
398,1925
398.25,1919
398.5,1933
398.75,1934
399,1950
399.25,1985
399.5,1968
399.75,1974
400,1965
400.25,1963
400.5,1942
400.75,1968
401,1941
401.25,1881
401.5,1820
401.75,1775
402,1747
402.25,1743
402.5,1747
402.75,1728
403,1734
403.25,1765
403.5,1776
403.75,1805
404,1827
404.25,1856
404.5,1859
404.75,1863
405,1895
405.25,765
405.5,1989
405.75,1906
406,1915
406.25,1904
406.5,1936
406.75,1968
407,1958
407.25,1968
407.5,1978
407.75,1958
408,1962
408.25,1939
408.5,1975
408.75,1955
409,1889
409.25,1829
409.5,1808
409.75,1776
410,1731
410.25,1706
410.5,1699
410.75,1727
411,1756
411.25,1770
411.5,1808
411.75,1840
412,1850
412.25,1865
412.5,1869
412.75,1889
413,1072
413.25,1918
413.5,1915
413.75,1936
414,1927
414.25,1926
414.5,1943
414.75,1959
415,1947
415.25,1999
415.5,1968
415.75,1984
416,1955
416.25,1946
416.5,1938
416.75,1889
417,1872
417.25,1805
417.5,1774
417.75,1719
418,1703
418.25,1679
418.5,1701
418.75,1730
419,1763
419.25,1805
419.5,1873
419.75,1857
420,1870
420.25,1892
420.5,1889
420.75,1509
421,1909
421.25,1936
421.5,1979
421.75,1964
422,1971
422.25,1931
422.5,1949
422.75,1952
423,1942
423.25,1941
423.5,1968
423.75,1962
424,1959
424.25,1925
424.5,1901
424.75,1838
425,1783
425.25,1776
425.5,1751
425.75,1722
426,1700
426.25,1744
426.5,1727
426.75,1771
427,1783
427.25,1789
427.5,1869
427.75,1866
428,1898
428.25,1920
428.5,1722
428.75,1929
429,1939
429.25,1959
429.5,1982
429.75,1933
430,1955
430.25,1952
430.5,1951
430.75,1968
431,1943
431.25,1974
431.5,1936
431.75,1967
432,1931
432.25,1891
432.5,1837
432.75,1789
433,1754
433.25,1715
433.5,1718
433.75,1729
434,1731
434.25,1761
434.5,1785
434.75,1782
435,1802
435.25,1817
435.5,1842
435.75,1853
436,1887
436.25,1878
436.5,1910
436.75,1966
437,1962
437.25,1965
437.5,1961
437.75,1984
438,1993
438.25,1991
438.5,1983
438.75,1979
439,1973
439.25,1939
439.5,1931
439.75,1898
440,1857
440.25,1808
440.5,1813
440.75,1745
441,1760
441.25,1720
441.5,1722
441.75,1744
442,1787
442.25,1807
442.5,1806
442.75,1866
443,1856
443.25,1839
443.5,1844
443.75,1849
444,1895
444.25,1915
444.5,1957
444.75,1957
445,1950
445.25,1972
445.5,1955
445.75,1986
446,1984
446.25,1971
446.5,1989
446.75,1968
447,1917
447.25,1966
447.5,1883
447.75,1847
448,1789
448.25,1795
448.5,1761
448.75,1790
449,1790
449.25,1751
449.5,1774
449.75,1787
450,1809
450.25,1819
450.5,1865
450.75,1835
451,1833
451.25,1861
451.5,1873
451.75,1967
452,1915
452.25,1919
452.5,1958
452.75,1946
453,1974
453.25,1989
453.5,1995
453.75,1984
454,1983
454.25,1984
454.5,1995
454.75,1954
455,1918
455.25,1893
455.5,1845
455.75,1786
456,1755
456.25,1750
456.5,1735
456.75,1703
457,1744
457.25,1773
457.5,1761
457.75,1813
458,1808
458.25,1831
458.5,1833
458.75,1897
459,1855
459.25,1864
459.5,2036
459.75,1898
460,1904
460.25,1921
460.5,1949
460.75,1952
461,1987
461.25,2015
461.5,2006
461.75,1985
462,1998
462.25,1984
462.5,1971
462.75,1947
463,1872
463.25,1845
463.5,1773
463.75,1739
464,1726
464.25,1707
464.5,1698
464.75,1731
465,1740
465.25,1754
465.5,1797
465.75,1790
466,1793
466.25,1844
466.5,1856
466.75,1823
467,1873
467.25,2058
467.5,1903
467.75,1913
468,1927
468.25,1949
468.5,1952
468.75,1952
469,1979
469.25,1965
469.5,2000
469.75,2007
470,1975
470.25,1973
470.5,1936
470.75,1857
471,1837
471.25,1818
471.5,1763
471.75,1763
472,1730
472.25,1726
472.5,1717
472.75,1726
473,1761
473.25,1770
473.5,1791
473.75,1830
474,1819
474.25,1891
474.5,1878
474.75,1775
475,2002
475.25,1925
475.5,1949
475.75,1962
476,1968
476.25,1969
476.5,1961
476.75,1968
477,1973
477.25,1963
477.5,1985
477.75,1980
478,1943
478.25,1936
478.5,1869
478.75,1808
479,1797
479.25,1747
479.5,1778
479.75,1739
480,1751
480.25,1724
480.5,1747
480.75,1751
481,1772
481.25,1776
481.5,1818
481.75,1863
482,1872
482.25,1878
482.5,1321
482.75,2019
483,1922
483.25,1968
483.5,1981
483.75,2030
484,2014
484.25,2013
484.5,2039
484.75,1994
485,1998
485.25,1991
485.5,1983
485.75,1890
486,1875
486.25,1797
486.5,1746
486.75,1761
487,1738
487.25,1699
487.5,1712
487.75,1711
488,1717
488.25,1749
488.5,1763
488.75,1813
489,1797
489.25,1805
489.5,1837
489.75,1845
490,1824
490.25,849
490.5,1978
490.75,1970
491,1954
491.25,1997
491.5,2017
491.75,2053
492,2039
492.25,2084
492.5,2085
492.75,2074
493,2055
493.25,1981
493.5,1921
493.75,1840
494,1794
494.25,1761
494.5,1769
494.75,1681
495,1687
495.25,1649
495.5,1674
495.75,1691
496,1735
496.25,1755
496.5,1819
496.75,1831
497,1808
497.25,1823
497.5,1838
497.75,1853
498,723
498.25,1941
498.5,1927
498.75,2007
499,2018
499.25,2079
499.5,2096
499.75,2077
500,2068
500.25,2106
500.5,2096
500.75,2021
501,1991
501.25,1872
501.5,1803
501.75,1742
502,1697
502.25,1702
502.5,1687
502.75,1680
503,1649
503.25,1684
503.5,1709
503.75,1728
504,1763
504.25,1808
504.5,1824
504.75,1837
505,1835
505.25,1867
505.5,1854
505.75,983
506,1931
506.25,1914
506.5,1968
506.75,2032
507,2022
507.25,2097
507.5,2071
507.75,2067
508,2080
508.25,2092
508.5,2032
508.75,1965
509,1861
509.25,1790
509.5,1745
509.75,1732
510,1689
510.25,1657
510.5,1650
510.75,1661
511,1711
511.25,1685
511.5,1742
511.75,1744
512,1778
512.25,1838
512.5,1838
512.75,1872
513,1851
513.25,1914
513.5,1456
513.75,1941
514,1947
514.25,1979
514.5,2006
514.75,2033
515,2081
515.25,2084
515.5,2123
515.75,2091
516,2113
516.25,2013
516.5,1922
516.75,1854
517,1798
517.25,1777
517.5,1733
517.75,1710
518,1669
518.25,1649
518.5,1654
518.75,1651
519,1687
519.25,1750
519.5,1747
519.75,1808
520,1840
520.25,1839
520.5,1863
520.75,1889
521,1920
521.25,1903
521.5,1900
521.75,1905
522,1875
522.25,1920
522.5,1872
522.75,1876
523,1872
523.25,1860
523.5,1911
523.75,1887
524,1899
524.25,1887
524.5,1894
524.75,1900
525,1877
525.25,1902
525.5,1891
525.75,1919
526,1855
526.25,1838
526.5,1849
526.75,1845
527,1852
527.25,1856
527.5,1886
527.75,1873
528,1872
528.25,1883
528.5,1845
528.75,1873
529,1872
529.25,1872
529.5,1872
529.75,1882
530,1854
530.25,1882
530.5,1839
530.75,1840
531,1829
531.25,1846
531.5,1861
531.75,1860
532,1869
532.25,1875
532.5,1876
532.75,1888
533,1871
533.25,1872
533.5,1885
533.75,1901
534,1895
534.25,1842
534.5,1877
534.75,1840
535,1851
535.25,1843
535.5,1859
535.75,1869
536,1868
536.25,1887
536.5,1894
536.75,1876
537,1883
537.25,1875
537.5,1867
537.75,1858
538,1871
538.25,1865
538.5,1868
538.75,1836
539,1849
539.25,1845
539.5,1840
539.75,1851
540,1858
540.25,1871
540.5,1833
540.75,1842
541,1872
541.25,1871
541.5,1872
541.75,1877
542,1911
542.25,1870
542.5,1872
542.75,1856
543,1838
543.25,1851
543.5,1847
543.75,1843
544,1853
544.25,1867
544.5,1896
544.75,1906
545,1931
545.25,1901
545.5,1873
545.75,1863
546,1872
546.25,1907
546.5,1872
546.75,1897
547,1875
547.25,1858
547.5,1845
547.75,1841
548,1850
548.25,1855
548.5,1859
548.75,1863
549,1866
549.25,1873
549.5,1874
549.75,1872
550,1863
550.25,1871
550.5,1915
550.75,1875
551,1875
551.25,1904
551.5,1829
551.75,1845
552,1840
552.25,1843
552.5,1858
552.75,1857
553,1875
553.25,1840
553.5,1891
553.75,1870
554,1859
554.25,1861
554.5,1888
554.75,1867
555,1856
555.25,1849
555.5,1867
555.75,1874
556,1861
556.25,1852
556.5,1853
556.75,1847
557,1891
557.25,1888
557.5,1884
557.75,1885
558,1872
558.25,1862
558.5,1883
558.75,1869
559,1887
559.25,1838
559.5,1843
559.75,1865
560,1838
560.25,1840
560.5,1798
560.75,1847
561,1856
561.25,1867
561.5,1856
561.75,1873
562,1873
562.25,1878
562.5,1885
562.75,1872
563,1871
563.25,1837
563.5,1858
563.75,1872
564,1872
564.25,1838
564.5,1840
564.75,1853
565,1841
565.25,1871
565.5,1871
565.75,1883
566,1861
566.25,1882
566.5,1875
566.75,1904
567,1869
567.25,1859
567.5,1839
567.75,1840
568,1857
568.25,1843
568.5,1817
568.75,1819
569,1843
569.25,1850
569.5,1893
569.75,1882
570,1877
570.25,1882
570.5,1872
570.75,1869
571,1840
571.25,1890
571.5,1879
571.75,1858
572,1857
572.25,1808
572.5,1842
572.75,1840
573,1826
573.25,1856
573.5,1843
573.75,1872
574,1872
574.25,1883
574.5,1895
574.75,1872
575,1876
575.25,1873
575.5,1868
575.75,1862
576,1844
576.25,1840
576.5,1851
576.75,1831
577,1829
577.25,1844
577.5,1840
577.75,1874
578,1899
578.25,1873
578.5,1857
578.75,1865
579,1869
579.25,1861
579.5,1872
579.75,1895
580,1869
580.25,1839
580.5,1865
580.75,1840
581,1862
581.25,1853
581.5,1856
581.75,1839
582,1870
582.25,1856
582.5,1856
582.75,1873
583,1872
583.25,1870
583.5,1880
583.75,1840
584,1862
584.25,1862
584.5,1857
584.75,1883
585,1839
585.25,1840
585.5,1859
585.75,1842
586,1860
586.25,1854
586.5,1872
586.75,1863
587,1860
587.25,1878
587.5,1872
587.75,1878
588,1927
588.25,1858
588.5,1879
588.75,1854
589,1842
589.25,1843
589.5,1838
589.75,1865
590,1879
590.25,1857
590.5,1888
590.75,1865
591,1840
591.25,1873
591.5,1867
591.75,1901
592,1872
592.25,1870
592.5,1830
592.75,1840
593,1840
593.25,1847
593.5,1840
593.75,1856
594,1867
594.25,1856
594.5,1874
594.75,1875
595,1874
595.25,1866
595.5,1868
595.75,1872
596,1925
596.25,1872
596.5,1895
596.75,1885
597,1872
597.25,1846
597.5,1845
597.75,1843
598,1872
598.25,1872
598.5,1863
598.75,1879
599,1855
599.25,1895
599.5,1872
599.75,1883
600,1875
600.25,1867
600.5,1859
600.75,1875
601,1833
601.25,1850
601.5,1857
601.75,1837
602,1840
602.25,1858
602.5,1841
602.75,1865
603,1877
603.25,1865
603.5,1863
603.75,1872
604,1872
604.25,1856
604.5,1875
604.75,1874
605,1870
605.25,1851
605.5,1853
605.75,1847
606,1837
606.25,1841
606.5,1836
606.75,1858
607,1856
607.25,1865
607.5,1867
607.75,1884
608,1873
608.25,1872
608.5,1858
608.75,1889
609,1887
609.25,1873
609.5,1892
609.75,1863
610,1841
610.25,1829
610.5,1847
610.75,1856
611,1871
611.25,1889
611.5,1898
611.75,1866
612,1872
612.25,1868
612.5,1877
612.75,1856
613,1894
613.25,1838
613.5,1862
613.75,1851
614,1856
614.25,1830
614.5,1830
614.75,1885
615,1847
615.25,1874
615.5,1870
615.75,1838
616,1857
616.25,1877
616.5,1867
616.75,1877
617,1827
617.25,1878
617.5,1851
617.75,1858
618,1841
618.25,1849
618.5,1823
618.75,1845
619,1867
619.25,1834
619.5,1901
619.75,1873
620,1874
620.25,1872
620.5,1871
620.75,1870
621,1878
621.25,1850
621.5,1857
621.75,1857
622,1868
622.25,1872
622.5,1840
622.75,1840
623,1819
623.25,1868
623.5,1871
623.75,1872
624,1871
624.25,1856
624.5,1871
624.75,1856
625,1857
625.25,1883
625.5,1867
625.75,1872
626,1856
626.25,1871
626.5,1862
626.75,1845
627,1840
627.25,1840
627.5,1852
627.75,1870
628,1898
628.25,1872
628.5,1840
628.75,1863
629,1858
629.25,1856
629.5,1865
629.75,1872
630,1858
630.25,1850
630.5,1862
630.75,1840
631,1837
631.25,1840
631.5,1845
631.75,1831
632,1857
632.25,1863
632.5,1872
632.75,1904
633,1873
633.25,1867
633.5,1840
633.75,1850
634,1858
634.25,1849
634.5,1834
634.75,1879
635,1843
635.25,1840
635.5,1830
635.75,1862
636,1856
636.25,1867
636.5,1854
636.75,1870
637,1872
637.25,1873
637.5,1875
637.75,1864
638,1878
638.25,1895
638.5,1867
638.75,1839
639,1847
639.25,1839
639.5,1840
639.75,1808
640,1867
640.25,1858
640.5,1856
640.75,1859
641,1894
641.25,1872
641.5,1865
641.75,1858
642,1875
642.25,1860
642.5,1848
642.75,1859
643,1863
643.25,1818
643.5,1834
643.75,1840
644,1840
644.25,1837
644.5,1863
644.75,1853
645,1880
645.25,1902
645.5,1867
645.75,1868
646,1851
646.25,1892
646.5,1883
646.75,1835
647,1840
647.25,1843
647.5,1840
647.75,1840
648,1831
648.25,1859
648.5,1872
648.75,1859
649,1876
649.25,1872
649.5,1870
649.75,1875
650,1872
650.25,1887
650.5,1874
650.75,1881
651,1894
651.25,1858
651.5,1819
651.75,1827
652,1829
652.25,1808
652.5,1855
652.75,1867
653,1898
653.25,1886
653.5,1839
653.75,1875
654,1871
654.25,1839
654.5,1887
654.75,1840
655,1856
655.25,1865
655.5,1857
655.75,1843
656,1850
656.25,1843
656.5,1819
656.75,1872
657,1854
657.25,1863
657.5,1869
657.75,1891
658,1863
658.25,1860
658.5,1831
658.75,1872
659,1872
659.25,1856
659.5,1834
659.75,1847
660,1840
660.25,1840
660.5,1827
660.75,1847
661,1859
661.25,1883
661.5,1887
661.75,1871
662,1895
662.25,1862
662.5,1879
662.75,1879
663,1871
663.25,1873
663.5,1891
663.75,1874
664,1856
664.25,1838
664.5,1841
664.75,1830
665,1846
665.25,1872
665.5,1872
665.75,1872
666,1857
666.25,1868
666.5,1860
666.75,1873
667,1872
667.25,1862
667.5,1858
667.75,1842
668,1890
668.25,1856
668.5,1842
668.75,1854
669,1855
669.25,1878
669.5,1837
669.75,1881
670,1855
670.25,1865
670.5,1879
670.75,1872
671,1885
671.25,1891
671.5,1872
671.75,1872
672,1843
672.25,1851
672.5,1846
672.75,1840
673,1829
673.25,1839
673.5,1862
673.75,1850
674,1874
674.25,1854
674.5,1879
674.75,1883
675,1883
675.25,1870
675.5,1872
675.75,1866
676,1853
676.25,1910
676.5,1874
676.75,1845
677,1837
677.25,1872
677.5,1851
677.75,1858
678,1887
678.25,1830
678.5,1866
678.75,1884
679,1872
679.25,1869
679.5,1875
679.75,1854
680,1845
680.25,1872
680.5,1856
680.75,1825
681,1841
681.25,1831
681.5,1842
681.75,1889
682,1844
682.25,1873
682.5,1870
682.75,1850
683,1867
683.25,1869
683.5,1907
683.75,1895
684,1875
684.25,1857
684.5,1840
684.75,1883
685,1846
685.25,1840
685.5,1869
685.75,1841
686,1867
686.25,1867
686.5,1871
686.75,1872
687,1904
687.25,1872
687.5,1872
687.75,1879
688,1840
688.25,1858
688.5,1844
688.75,1883
689,1856
689.25,1838
689.5,1840
689.75,1856
690,1827
690.25,1856
690.5,1857
690.75,1875
691,1840
691.25,1868
691.5,1856
691.75,1873
692,1888
692.25,1886
692.5,1871
692.75,1853
693,1845
693.25,1844
693.5,1838
693.75,1847
694,1849
694.25,1882
694.5,1847
694.75,1878
695,1863
695.25,1825
695.5,1869
695.75,1861
696,1851
696.25,1903
696.5,1870
696.75,1854
697,1839
697.25,1843
697.5,1837
697.75,1836
698,1835
698.25,1861
698.5,1849
698.75,1835
699,1887
699.25,1891
699.5,1856
699.75,1879
700,1854
700.25,1843
700.5,1893
700.75,1879
701,1856
701.25,1819
701.5,1849
701.75,1840
702,1838
702.25,1872
702.5,1851
702.75,1863
703,1872
703.25,1847
703.5,1898
703.75,1872
704,1869
704.25,1866
704.5,1866
704.75,1872
705,1886
705.25,1856
705.5,1820
705.75,1845
706,1855
706.25,1840
706.5,1856
706.75,1874
707,1854
707.25,1889
707.5,1872
707.75,1892
708,1872
708.25,1872
708.5,1883
708.75,1904
709,1855
709.25,1865
709.5,1874
709.75,1862
710,1830
710.25,1840
710.5,1833
710.75,1854
711,1819
711.25,1840
711.5,1867
711.75,1862
712,1846
712.25,1863
712.5,1872
712.75,1883
713,1873
713.25,1847
713.5,1861
713.75,1856
714,1838
714.25,1840
714.5,1840
714.75,1877
715,1885
715.25,1900
715.5,1882
715.75,1857
716,1842
716.25,1878
716.5,1861
716.75,1856
717,1874
717.25,1875
717.5,1870
717.75,1861
718,1841
718.25,1841
718.5,1851
718.75,1830
719,1837
719.25,1865
719.5,1859
719.75,1882
720,1850
720.25,1831
720.5,1865
720.75,1866
721,1882
721.25,1874
721.5,1877
721.75,1862
722,1865
722.25,1850
722.5,1852
722.75,1842
723,1839
723.25,1818
723.5,1869
723.75,1871
724,1872
724.25,1893
724.5,1893
724.75,1877
725,1867
725.25,1843
725.5,1862
725.75,1872
726,1863
726.25,1833
726.5,1814
726.75,1824
727,1836
727.25,1826
727.5,1840
727.75,1825
728,1863
728.25,1901
728.5,1899
728.75,1886
729,1875
729.25,1887
729.5,1872
729.75,1901
730,1879
730.25,1856
730.5,1856
730.75,1853
731,1846
731.25,1840
731.5,1825
731.75,1849
732,1861
732.25,1881
732.5,1872
732.75,1870
733,1872
733.25,1872
733.5,1861
733.75,1882
734,1863
734.25,1851
734.5,1846
734.75,1851
735,1839
735.25,1842
735.5,1839
735.75,1840
736,1890
736.25,1879
736.5,1861
736.75,1872
737,1883
737.25,1867
737.5,1878
737.75,1874
738,1860
738.25,1870
738.5,1871
738.75,1825
739,1827
739.25,1842
739.5,1843
739.75,1869
740,1877
740.25,1885
740.5,1891
740.75,1851
741,1869
741.25,1874
741.5,1861
741.75,1861
742,1840
742.25,1888
742.5,1859
742.75,1861
743,1857
743.25,1808
743.5,1851
743.75,1839
744,1856
744.25,1844
744.5,1867
744.75,1891
745,1858
745.25,1874
745.5,1871
745.75,1872
746,1872
746.25,1843
746.5,1851
746.75,1869
747,1856
747.25,1854
747.5,1845
747.75,1846
748,1853
748.25,1861
748.5,1856
748.75,1873
749,1822
749.25,1866
749.5,1846
749.75,1870
750,1872
750.25,1886
750.5,1904
750.75,1869
751,1882
751.25,1887
751.5,1844
751.75,1851
752,1840
752.25,1849
752.5,1848
752.75,1855
753,1891
753.25,1872
753.5,1869
753.75,1873
754,1859
754.25,1863
754.5,1872
754.75,1869
755,1869
755.25,1857
755.5,1891
755.75,1847
756,1834
756.25,1846
756.5,1841
756.75,1862
757,1846
757.25,1840
757.5,1853
757.75,1865
758,1872
758.25,1872
758.5,1891
758.75,1884
759,1868
759.25,1874
759.5,1846
759.75,1869
760,1838
760.25,1834
760.5,1831
760.75,1851
761,1873
761.25,1869
761.5,1885
761.75,1876
762,1874
762.25,1869
762.5,1866
762.75,1859
763,1847
763.25,1854
763.5,1850
763.75,1853
764,1856
764.25,1836
764.5,1846
764.75,1866
765,1898
765.25,1840
765.5,1863
765.75,1874
766,1882
766.25,1873
766.5,1863
766.75,1890
767,1850
767.25,1858
767.5,1845
767.75,1857
768,1851
768.25,1866
768.5,1146
768.75,1878
769,1909
769.25,1887
769.5,1936
769.75,1965
770,1993
770.25,1938
770.5,1916
770.75,1919
771,1923
771.25,1965
771.5,1965
771.75,2000
772,1958
772.25,1890
772.5,1813
772.75,1759
773,1753
773.25,1729
773.5,1743
773.75,1731
774,1753
774.25,1741
774.5,1799
774.75,1808
775,1809
775.25,1835
775.5,1840
775.75,1877
776,1869
776.25,1456
776.5,1908
776.75,1920
777,1942
777.25,2000
777.5,2001
777.75,1986
778,1947
778.25,1978
778.5,1961
778.75,1973
779,2064
779.25,2083
779.5,2055
779.75,1962
780,1882
780.25,1824
780.5,1757
780.75,1692
781,1673
781.25,1664
781.5,1662
781.75,1664
782,1682
782.25,1732
782.5,1798
782.75,1821
783,1846
783.25,1857
783.5,1895
783.75,1906
784,1729
784.25,1964
784.5,1935
784.75,1983
785,1985
785.25,2011
785.5,2017
785.75,1965
786,1936
786.25,1995
786.5,2125
786.75,2179
787,2153
787.25,2086
787.5,1963
787.75,1856
788,1746
788.25,1666
788.5,1614
788.75,1590
789,1568
789.25,1569
789.5,1611
789.75,1655
790,1771
790.25,1777
790.5,1825
790.75,1872
791,1893
791.25,1911
791.5,1909
791.75,1815
792,1962
792.25,2000
792.5,2032
792.75,2055
793,2065
793.25,2032
793.5,1994
793.75,2000
794,2046
794.25,2183
794.5,2206
794.75,2160
795,2001
795.25,1894
795.5,1786
795.75,1705
796,1619
796.25,1584
796.5,1503
796.75,1531
797,1584
797.25,1647
797.5,1698
797.75,1764
798,1803
798.25,1835
798.5,1883
798.75,1904
799,1931
799.25,1939
799.5,1851
799.75,1982
800,2013
800.25,2065
800.5,2064
800.75,2111
801,2125
801.25,2102
801.5,2034
801.75,2091
802,2143
802.25,2103
802.5,2077
802.75,1897
803,1805
803.25,1747
803.5,1638
803.75,1618
804,1569
804.25,1556
804.5,1535
804.75,1636
805,1679
805.25,1723
805.5,1805
805.75,1822
806,1846
806.25,1850
806.5,1887
806.75,1938
807,1923
807.25,1869
807.5,1930
807.75,2000
808,2063
808.25,2084
808.5,2105
808.75,2133
809,2042
809.25,2045
809.5,2105
809.75,2128
810,2076
810.25,1963
810.5,1840
810.75,1776
811,1662
811.25,1674
811.5,1565
811.75,1584
812,1579
812.25,1594
812.5,1655
812.75,1727
813,1813
813.25,1840
813.5,1855
813.75,1839
814,1859
814.25,1878
814.5,1889
814.75,1874
815,1944
815.25,1966
815.5,2026
815.75,2039
816,2047
816.25,2112
816.5,2123
816.75,2079
817,2116
817.25,2158
817.5,2132
817.75,2069
818,1939
818.25,1824
818.5,1746
818.75,1677
819,1634
819.25,1612
819.5,1559
819.75,1535
820,1609
820.25,1642
820.5,1738
820.75,1783
821,1823
821.25,1874
821.5,1875
821.75,1908
822,1911
822.25,1876
822.5,1793
822.75,1866
823,1935
823.25,2004
823.5,2041
823.75,2096
824,2113
824.25,2098
824.5,2077
824.75,2087
825,2131
825.25,2093
825.5,2059
825.75,1889
826,1827
826.25,1730
826.5,1708
826.75,1629
827,1579
827.25,1535
827.5,1579
827.75,1605
828,1671
828.25,1693
828.5,1792
828.75,1823
829,1866
829.25,1891
829.5,1909
829.75,1925
830,1917
830.25,1337
830.5,1931
830.75,1920
831,1986
831.25,2028
831.5,2096
831.75,2147
832,2115
832.25,2070
832.5,2064
832.75,2130
833,2087
833.25,1999
833.5,1907
833.75,1831
834,1786
834.25,1759
834.5,1675
834.75,1597
835,1579
835.25,1566
835.5,1606
835.75,1641
836,1723
836.25,1775
836.5,1821
836.75,1850
837,1899
837.25,1904
837.5,1904
837.75,1920
838,694
838.25,1917
838.5,1968
838.75,1985
839,2053
839.25,2093
839.5,2145
839.75,2123
840,2069
840.25,2094
840.5,2098
840.75,2065
841,1997
841.25,1936
841.5,1866
841.75,1784
842,1764
842.25,1719
842.5,1643
842.75,1598
843,1595
843.25,1600
843.5,1623
843.75,1678
844,1752
844.25,1757
844.5,1842
844.75,1904
845,1891
845.25,1907
845.5,1910
845.75,554
846,1905
846.25,1974
846.5,2025
846.75,2090
847,2131
847.25,2186
847.5,2096
847.75,2061
848,2036
848.25,2079
848.5,2069
848.75,1985
849,1904
849.25,1859
849.5,1759
849.75,1760
850,1699
850.25,1639
850.5,1658
850.75,1607
851,1602
851.25,1665
851.5,1697
851.75,1730
852,1777
852.25,1811
852.5,1854
852.75,1879
853,1895
853.25,1898
853.5,686
853.75,1917
854,1989
854.25,2039
854.5,2099
854.75,2127
855,2175
855.25,2114
855.5,2019
855.75,2006
856,2032
856.25,2000
856.5,1936
856.75,1904
857,1869
857.25,1809
857.5,1771
857.75,1683
858,1677
858.25,1633
858.5,1650
858.75,1648
859,1673
859.25,1696
859.5,1738
859.75,1802
860,1809
860.25,1840
860.5,1851
860.75,1867
861,1874
861.25,1023
861.5,1903
861.75,1967
862,2068
862.25,2095
862.5,2133
862.75,2176
863,2093
863.25,2064
863.5,2066
863.75,2055
864,2029
864.25,1925
864.5,1885
864.75,1857
865,1835
865.25,1780
865.5,1776
865.75,1689
866,1631
866.25,1638
866.5,1618
866.75,1666
867,1711
867.25,1770
867.5,1806
867.75,1766
868,1820
868.25,1853
868.5,1846
868.75,1858
869,1371
869.25,1892
869.5,1970
869.75,2047
870,2100
870.25,2187
870.5,2175
870.75,2096
871,2047
871.25,2080
871.5,2084
871.75,1968
872,1935
872.25,1907
872.5,1849
872.75,1814
873,1787
873.25,1707
873.5,1648
873.75,1638
874,1643
874.25,1650
874.5,1697
874.75,1710
875,1750
875.25,1771
875.5,1761
875.75,1823
876,1826
876.25,1862
876.5,1856
876.75,1531
877,1895
877.25,1945
877.5,2019
877.75,2122
878,2153
878.25,2138
878.5,2096
878.75,2061
879,2042
879.25,2071
879.5,2027
879.75,1968
880,1925
880.25,1875
880.5,1820
880.75,1776
881,1722
881.25,1671
881.5,1611
881.75,1616
882,1651
882.25,1647
882.5,1699
882.75,1715
883,1782
883.25,1807
883.5,1840
883.75,1863
884,1886
884.25,1885
884.5,1694
884.75,1920
885,1984
885.25,2029
885.5,2088
885.75,2112
886,2122
886.25,2043
886.5,2042
886.75,2089
887,2054
887.25,2003
887.5,1942
887.75,1974
888,1900
888.25,1849
888.5,1776
888.75,1753
889,1707
889.25,1642
889.5,1626
889.75,1648
890,1655
890.25,1695
890.5,1727
890.75,1755
891,1796
891.25,1845
891.5,1863
891.75,1862
892,1888
892.25,1803
892.5,1920
892.75,1975
893,2054
893.25,2099
893.5,2115
893.75,2103
894,2065
894.25,1998
894.5,2059
894.75,2033
895,1999
895.25,1917
895.5,1936
895.75,1904
896,1881
896.25,1827
896.5,1782
896.75,1713
897,1636
897.25,1639
897.5,1644
897.75,1658
898,1667
898.25,1718
898.5,1808
898.75,1776
899,1841
899.25,1849
899.5,1895
899.75,1887
900,1807
900.25,1953
900.5,2036
900.75,2066
901,2121
901.25,2127
901.5,2103
901.75,2017
902,2011
902.25,2041
902.5,2007
902.75,1968
903,1951
903.25,1920
903.5,1892
903.75,1872
904,1828
904.25,1766
904.5,1718
904.75,1701
905,1663
905.25,1657
905.5,1664
905.75,1679
906,1702
906.25,1727
906.5,1765
906.75,1837
907,1857
907.25,1890
907.5,1894
907.75,1871
908,1954
908.25,2006
908.5,2065
908.75,2107
909,2156
909.25,2079
909.5,2055
909.75,2032
910,2032
910.25,1987
910.5,1938
910.75,1920
911,1890
911.25,1894
911.5,1911
911.75,1803
912,1789
912.25,1721
912.5,1691
912.75,1654
913,1681
913.25,1669
913.5,1687
913.75,1714
914,1729
914.25,1777
914.5,1799
914.75,1814
915,1828
915.25,1860
915.5,1863
915.75,1925
916,2015
916.25,2071
916.5,2087
916.75,2154
917,2096
917.25,2035
917.5,2096
917.75,2059
918,2021
918.25,1975
918.5,1923
918.75,1911
919,1865
919.25,1863
919.5,1838
919.75,1771
920,1740
920.25,1689
920.5,1681
920.75,1671
921,1651
921.25,1712
921.5,1724
921.75,1737
922,1783
922.25,1793
922.5,1822
922.75,1840
923,1833
923.25,1860
923.5,1875
923.75,1879
924,1903
924.25,1925
924.5,1911
924.75,1906
925,1904
925.25,1901
925.5,1914
925.75,1879
926,1920
926.25,1911
926.5,1915
926.75,1872
927,1872
927.25,1846
927.5,1863
927.75,1886
928,1878
928.25,1873
928.5,1878
928.75,1856
929,1872
929.25,1889
929.5,1882
929.75,1878
930,1856
930.25,1869
930.5,1872
930.75,1837
931,1841
931.25,1843
931.5,1827
931.75,1831
932,1863
932.25,1872
932.5,1878
932.75,1899
933,1877
933.25,1875
933.5,1856
933.75,1858
934,1872
934.25,1871
934.5,1866
934.75,1859
935,1826
935.25,1839
935.5,1843
935.75,1851
936,1843
936.25,1855
936.5,1875
936.75,1871
937,1896
937.25,1872
937.5,1872
937.75,1872
938,1906
938.25,1894
938.5,1834
938.75,1819
939,1858
939.25,1846
939.5,1845
939.75,1855
940,1854
940.25,1869
940.5,1861
940.75,1861
941,1888
941.25,1883
941.5,1872
941.75,1886
942,1873
942.25,1881
942.5,1856
942.75,1868
943,1838
943.25,1840
943.5,1837
943.75,1839
944,1872
944.25,1867
944.5,1859
944.75,1856
945,1874
945.25,1875
945.5,1882
945.75,1869
946,1873
946.25,1862
946.5,1867
946.75,1882
947,1887
947.25,1840
947.5,1847
947.75,1840
948,1827
948.25,1849
948.5,1851
948.75,1834
949,1882
949.25,1903
949.5,1866
949.75,1870
950,1872
950.25,1871
950.5,1883
950.75,1859
951,1855
951.25,1855
951.5,1871
951.75,1840
952,1840
952.25,1834
952.5,1832
952.75,1865
953,1866
953.25,1866
953.5,1872
953.75,1859
954,1866
954.25,1854
954.5,1862
954.75,1883
955,1873
955.25,1837
955.5,1905
955.75,1872
956,1834
956.25,1840
956.5,1870
956.75,1846
957,1873
957.25,1895
957.5,1879
957.75,1922
958,1876
958.25,1863
958.5,1874
958.75,1851
959,1887
959.25,1850
959.5,1856
959.75,1843
960,1862
960.25,1839
960.5,1840
960.75,1850
961,1856
961.25,1866
961.5,1898
961.75,1890
962,1888
962.25,1872
962.5,1869
962.75,1883
963,1863
963.25,1872
963.5,1885
963.75,1870
964,1846
964.25,1840
964.5,1851
964.75,1852
965,1843
965.25,1856
965.5,1869
965.75,1865
966,1866
966.25,1866
966.5,1863
966.75,1865
967,1887
967.25,1901
967.5,1871
967.75,1856
968,1850
968.25,1850
968.5,1845
968.75,1843
969,1829
969.25,1862
969.5,1875
969.75,1857
970,1863
970.25,1872
970.5,1870
970.75,1871
971,1874
971.25,1889
971.5,1906
971.75,1862
972,1865
972.25,1859
972.5,1849
972.75,1837
973,1837
973.25,1859
973.5,1846
973.75,1872
974,1849
974.25,1872
974.5,1877
974.75,1875
975,1865
975.25,1895
975.5,1906
975.75,1871
976,1854
976.25,1845
976.5,1875
976.75,1827
977,1850
977.25,1841
977.5,1853
977.75,1869
978,1869
978.25,1882
978.5,1890
978.75,1866
979,1869
979.25,1865
979.5,1866
979.75,1871
980,1836
980.25,1877
980.5,1851
980.75,1845
981,1835
981.25,1838
981.5,1845
981.75,1819
982,1872
982.25,1871
982.5,1856
982.75,1870
983,1869
983.25,1873
983.5,1867
983.75,1882
984,1872
984.25,1863
984.5,1872
984.75,1840
985,1840
985.25,1831
985.5,1849
985.75,1859
986,1823
986.25,1854
986.5,1869
986.75,1899
987,1907
987.25,1871
987.5,1872
987.75,1874
988,1866
988.25,1857
988.5,1857
988.75,1863
989,1818
989.25,1838
989.5,1837
989.75,1855
990,1850
990.25,1874
990.5,1872
990.75,1861
991,1882
991.25,1874
991.5,1874
991.75,1858
992,1883
992.25,1878
992.5,1865
992.75,1857
993,1888
993.25,1835
993.5,1834
993.75,1843
994,1859
994.25,1852
994.5,1863
994.75,1872
995,1879
995.25,1859
995.5,1882
995.75,1870
996,1871
996.25,1862
996.5,1823
996.75,1856
997,1855
997.25,1870
997.5,1835
997.75,1844
998,1850
998.25,1843
998.5,1847
998.75,1858
999,1860
999.25,1873
999.5,1862
999.75,1881
1000,1871
1000.25,1853
1000.5,1891
1000.75,1872
1001,1858
1001.25,1845
1001.5,1843
1001.75,1840
1002,1840
1002.25,1862
1002.5,1839
1002.75,1851
1003,1873
1003.25,1865
1003.5,1840
1003.75,1875
1004,1866
1004.25,1882
1004.5,1870
1004.75,1830
1005,1869
1005.25,1862
1005.5,1858
1005.75,1855
1006,1831
1006.25,1837
1006.5,1823
1006.75,1808
1007,1857
1007.25,1891
1007.5,1879
1007.75,1886
1008,1855
1008.25,1876
1008.5,1872
1008.75,1874
1009,1892
1009.25,1867
1009.5,1855
1009.75,1872
1010,1837
1010.25,1843
1010.5,1831
1010.75,1858
1011,1864
1011.25,1881
1011.5,1856
1011.75,1884
1012,1892
1012.25,1874
1012.5,1875
1012.75,1879
1013,1874
1013.25,1911
1013.5,1863
1013.75,1872
1014,1857
1014.25,1839
1014.5,1840
1014.75,1828
1015,1865
1015.25,1872
1015.5,1875
1015.75,1841
1016,1856
1016.25,1881
1016.5,1884
1016.75,1861
1017,1872
1017.25,1921
1017.5,1870
1017.75,1883
1018,1867
1018.25,1843
1018.5,1837
1018.75,1835
1019,1854
1019.25,1854
1019.5,1867
1019.75,1893
1020,1873
1020.25,1904
1020.5,1869
1020.75,1873
1021,1871
1021.25,1857
1021.5,1839
1021.75,1856
1022,1873
1022.25,1838
1022.5,1829
1022.75,1842
1023,1852
1023.25,1875
1023.5,1893
1023.75,1855
1024,1861
1024.25,1877
1024.5,1866
1024.75,1872
1025,1870
1025.25,1872
1025.5,1860
1025.75,1850
1026,1857
1026.25,1871
1026.5,1867
1026.75,1840
1027,1840
1027.25,1835
1027.5,1851
1027.75,1888
1028,1847
1028.25,1878
1028.5,1855
1028.75,1886
1029,1878
1029.25,1872
1029.5,1884
1029.75,1878
1030,1878
1030.25,1877
1030.5,1851
1030.75,1844
1031,1842
1031.25,1840
1031.5,1842
1031.75,1858
1032,1873
1032.25,1872
1032.5,1895
1032.75,1875
1033,1874
1033.25,1869
1033.5,1843
1033.75,1872
1034,1873
1034.25,1870
1034.5,1840
1034.75,1862
1035,1840
1035.25,1834
1035.5,1837
1035.75,1856
1036,1853
1036.25,1878
1036.5,1888
1036.75,1879
1037,1898
1037.25,1867
1037.5,1871
1037.75,1870
1038,1904
1038.25,1872
1038.5,1886
1038.75,1871
1039,1853
1039.25,1831
1039.5,1830
1039.75,1847
1040,1859
1040.25,1815
1040.5,1892
1040.75,1886
1041,1895
1041.25,1862
1041.5,1866
1041.75,1875
1042,1898
1042.25,1925
1042.5,1872
1042.75,1857
1043,1842
1043.25,1853
1043.5,1834
1043.75,1841
1044,1830
1044.25,1819
1044.5,1849
1044.75,1824
1045,1859
1045.25,1874
1045.5,1878
1045.75,1859
1046,1877
1046.25,1874
1046.5,1872
1046.75,1890
1047,1853
1047.25,1883
1047.5,1843
1047.75,1847
1048,1839
1048.25,1847
1048.5,1859
1048.75,1869
1049,1830
1049.25,1854
1049.5,1877
1049.75,1871
1050,1871
1050.25,1868
1050.5,1901
1050.75,1883
1051,1867
1051.25,1840
1051.5,1858
1051.75,1831
1052,1851
1052.25,1841
1052.5,1863
1052.75,1870
1053,1856
1053.25,1882
1053.5,1894
1053.75,1890
1054,1872
1054.25,1872
1054.5,1874
1054.75,1927
1055,1877
1055.25,1844
1055.5,1856
1055.75,1845
1056,1834
1056.25,1837
1056.5,1840
1056.75,1866
1057,1847
1057.25,1843
1057.5,1872
1057.75,1856
1058,1883
1058.25,1882
1058.5,1887
1058.75,1866
1059,1875
1059.25,1841
1059.5,1858
1059.75,1881
1060,1856
1060.25,1851
1060.5,1858
1060.75,1849
1061,1847
1061.25,1863
1061.5,1869
1061.75,1829
1062,1899
1062.25,1872
1062.5,1872
1062.75,1851
1063,1873
1063.25,1872
1063.5,1858
1063.75,1853
1064,1827
1064.25,1844
1064.5,1827
1064.75,1839
1065,1855
1065.25,1843
1065.5,1889
1065.75,1876
1066,1861
1066.25,1891
1066.5,1873
1066.75,1851
1067,1874
1067.25,1859
1067.5,1863
1067.75,1855
1068,1856
1068.25,1864
1068.5,1845
1068.75,1841
1069,1863
1069.25,1882
1069.5,1845
1069.75,1864
1070,1855
1070.25,1862
1070.5,1856
1070.75,1868
1071,1887
1071.25,1886
1071.5,1869
1071.75,1857
1072,1886
1072.25,1841
1072.5,1854
1072.75,1853
1073,1837
1073.25,1851
1073.5,1859
1073.75,1877
1074,1857
1074.25,1874
1074.5,1901
1074.75,1869
1075,1871
1075.25,1858
1075.5,1866
1075.75,1857
1076,1835
1076.25,1855
1076.5,1866
1076.75,1841
1077,1833
1077.25,1833
1077.5,1843
1077.75,1843
1078,1872
1078.25,1872
1078.5,1875
1078.75,1849
1079,1862
1079.25,1860
1079.5,1865
1079.75,1825
1080,1855
1080.25,1838
1080.5,1872
1080.75,1826
1081,1840
1081.25,1843
1081.5,1846
1081.75,1840
1082,1847
1082.25,1881
1082.5,1867
1082.75,1858
1083,1867
1083.25,1865
1083.5,1869
1083.75,1873
1084,1872
1084.25,1850
1084.5,1867
1084.75,1851
1085,1831
1085.25,1841
1085.5,1823
1085.75,1840
1086,1851
1086.25,1869
1086.5,1870
1086.75,1862
1087,1873
1087.25,1871
1087.5,1874
1087.75,1865
1088,1872
1088.25,1882
1088.5,1871
1088.75,1875
1089,1862
1089.25,1840
1089.5,1850
1089.75,1847
1090,1853
1090.25,1869
1090.5,1872
1090.75,1877
1091,1883
1091.25,1859
1091.5,1869
1091.75,1853
1092,1887
1092.25,1889
1092.5,1874
1092.75,1852
1093,1838
1093.25,1867
1093.5,1830
1093.75,1840
1094,1840
1094.25,1879
1094.5,1845
1094.75,1877
1095,1904
1095.25,1866
1095.5,1872
1095.75,1861
1096,1861
1096.25,1868
1096.5,1842
1096.75,1864
1097,1863
1097.25,1854
1097.5,1837
1097.75,1840
1098,1840
1098.25,1842
1098.5,1883
1098.75,1865
1099,1858
1099.25,1840
1099.5,1857
1099.75,1867
1100,1872
1100.25,1872
1100.5,1876
1100.75,1872
1101,1858
1101.25,1872
1101.5,1856
1101.75,1839
1102,1824
1102.25,1840
1102.5,1851
1102.75,1887
1103,1863
1103.25,1872
1103.5,1890
1103.75,1892
1104,1875
1104.25,1867
1104.5,1895
1104.75,1882
1105,1871
1105.25,1851
1105.5,1872
1105.75,1852
1106,1842
1106.25,1844
1106.5,1831
1106.75,1872
1107,1862
1107.25,1905
1107.5,1879
1107.75,1879
1108,1867
1108.25,1867
1108.5,1868
1108.75,1865
1109,1904
1109.25,1881
1109.5,1872
1109.75,1871
1110,1840
1110.25,1840
1110.5,1840
1110.75,1861
1111,1824
1111.25,1867
1111.5,1881
1111.75,1860
1112,1847
1112.25,1874
1112.5,1872
1112.75,1878
1113,1877
1113.25,1875
1113.5,1835
1113.75,1885
1114,1874
1114.25,1863
1114.5,1845
1114.75,1841
1115,1839
1115.25,1856
1115.5,1851
1115.75,1823
1116,1889
1116.25,1891
1116.5,1872
1116.75,1862
1117,1873
1117.25,1875
1117.5,1862
1117.75,1868
1118,1869
1118.25,1849
1118.5,1851
1118.75,1845
1119,1840
1119.25,1854
1119.5,1843
1119.75,1878
1120,1872
1120.25,1865
1120.5,1866
1120.75,1872
1121,1862
1121.25,1872
1121.5,1873
1121.75,1861
1122,1854
1122.25,1830
1122.5,1835
1122.75,1840
1123,1834
1123.25,1846
1123.5,1859
1123.75,1856
1124,1865
1124.25,1872
1124.5,1871
1124.75,1872
1125,1872
1125.25,1901
1125.5,1853
1125.75,1840
1126,1846
1126.25,1859
1126.5,1861
1126.75,1859
1127,1856
1127.25,1852
1127.5,1850
1127.75,1868
1128,1847
1128.25,1856
1128.5,1865
1128.75,1875
1129,1879
1129.25,1872
1129.5,1888
1129.75,1877
1130,1870
1130.25,1866
1130.5,1861
1130.75,1809
1131,1840
1131.25,1838
1131.5,1854
1131.75,1872
1132,1858
1132.25,1843
1132.5,1860
1132.75,1877
1133,1859
1133.25,1871
1133.5,1878
1133.75,1883
1134,1866
1134.25,1871
1134.5,1872
1134.75,1872
1135,1856
1135.25,1838
1135.5,1841
1135.75,1855
1136,1838
1136.25,1863
1136.5,1868
1136.75,1858
1137,1869
1137.25,1874
1137.5,1873
1137.75,1869
1138,1871
1138.25,1852
1138.5,1843
1138.75,1843
1139,1840
1139.25,1840
1139.5,1839
1139.75,1838
1140,1842
1140.25,1808
1140.5,1870
1140.75,1904
1141,1867
1141.25,1883
1141.5,1872
1141.75,1872
1142,1920
1142.25,1904
1142.5,1881
1142.75,1882
1143,1861
1143.25,1847
1143.5,1840
1143.75,1840
1144,1835
1144.25,1837
1144.5,1819
1144.75,1858
1145,1856
1145.25,1863
1145.5,1855
1145.75,1861
1146,1850
1146.25,1879
1146.5,1872
1146.75,1871
1147,1862
1147.25,1846
1147.5,1841
1147.75,1846
1148,1840
1148.25,1837
1148.5,1854
1148.75,1857
1149,1841
1149.25,1871
1149.5,1882
1149.75,1873
1150,1874
1150.25,1855
1150.5,1872
1150.75,1872
1151,1863
1151.25,1850
1151.5,1850
1151.75,1846
1152,1821
1152.25,1838
1152.5,1853
1152.75,1859
1153,1877
1153.25,1867
1153.5,1873
1153.75,1819
1154,1863
1154.25,1866
1154.5,1872
1154.75,1870
1155,1875
1155.25,1868
1155.5,1837
1155.75,1856
1156,1841
1156.25,1845
1156.5,1819
1156.75,1881
1157,1845
1157.25,1819
1157.5,1862
1157.75,1858
1158,1897
1158.25,1870
1158.5,1871
1158.75,1872
1159,1892
1159.25,1879
1159.5,1885
1159.75,1878
1160,1845
1160.25,1838
1160.5,1845
1160.75,1811
1161,1830
1161.25,1863
1161.5,1837
1161.75,1883
1162,1907
1162.25,1868
1162.5,1871
1162.75,1839
1163,1874
1163.25,1873
1163.5,1874
1163.75,1855
1164,1882
1164.25,1841
1164.5,1830
1164.75,1847
1165,1856
1165.25,1869
1165.5,1866
1165.75,1862
1166,1872
1166.25,1872
1166.5,1872
1166.75,1871
1167,1891
1167.25,1904
1167.5,1841
1167.75,1870
1168,1854
1168.25,1857
1168.5,1841
1168.75,1835
1169,1843
1169.25,1839
1169.5,1875
1169.75,1847
1170,1882
1170.25,1872
1170.5,1841
1170.75,1906
1171,1939
1171.25,1937
1171.5,1958
1171.75,1933
1172,1940
1172.25,1879
1172.5,1856
1172.75,1840
1173,1872
1173.25,1953
1173.5,1958
1173.75,1968
1174,1942
1174.25,1934
1174.5,1904
1174.75,1857
1175,1826
1175.25,1806
1175.5,1776
1175.75,1795
1176,1797
1176.25,1741
1176.5,1819
1176.75,1791
1177,1800
1177.25,1830
1177.5,1851
1177.75,1861
1178,1646
1178.25,1790
1178.5,1918
1178.75,1968
1179,1981
1179.25,1983
1179.5,1979
1179.75,1962
1180,1879
1180.25,1878
1180.5,1853
1180.75,1925
1181,1985
1181.25,1984
1181.5,1961
1181.75,1914
1182,1887
1182.25,1825
1182.5,1856
1182.75,1814
1183,1799
1183.25,1782
1183.5,1779
1183.75,1790
1184,1819
1184.25,1802
1184.5,1806
1184.75,1822
1185,1793
1185.25,1832
1185.5,1845
1185.75,1072
1186,1875
1186.25,1939
1186.5,1965
1186.75,1971
1187,2013
1187.25,1993
1187.5,1924
1187.75,1872
1188,1906
1188.25,1917
1188.5,2002
1188.75,2059
1189,2042
1189.25,1999
1189.5,1959
1189.75,1904
1190,1881
1190.25,1823
1190.5,1783
1190.75,1743
1191,1695
1191.25,1709
1191.5,1685
1191.75,1711
1192,1719
1192.25,1744
1192.5,1806
1192.75,1846
1193,1856
1193.25,1853
1193.5,530
1193.75,1859
1194,1897
1194.25,1969
1194.5,1975
1194.75,2010
1195,2059
1195.25,1957
1195.5,1898
1195.75,1930
1196,2002
1196.25,2086
1196.5,2139
1196.75,2043
1197,2014
1197.25,1979
1197.5,1872
1197.75,1855
1198,1786
1198.25,1724
1198.5,1661
1198.75,1642
1199,1678
1199.25,1678
1199.5,1717
1199.75,1744
1200,1779
1200.25,1837
1200.5,1853
1200.75,1855
1201,1888
1201.25,384
1201.5,1854
1201.75,1946
1202,1968
1202.25,1981
1202.5,2005
1202.75,2018
1203,1997
1203.25,1939
1203.5,1990
1203.75,2080
1204,2122
1204.25,2114
1204.5,2091
1204.75,2000
1205,1957
1205.25,1882
1205.5,1793
1205.75,1729
1206,1659
1206.25,1616
1206.5,1591
1206.75,1612
1207,1666
1207.25,1714
1207.5,1739
1207.75,1835
1208,1823
1208.25,1855
1208.5,1856
1208.75,1883
1209,592
1209.25,1883
1209.5,1968
1209.75,1970
1210,2039
1210.25,2022
1210.5,2014
1210.75,1899
1211,1912
1211.25,1980
1211.5,2074
1211.75,2112
1212,2097
1212.25,2069
1212.5,2009
1212.75,1963
1213,1904
1213.25,1858
1213.5,1725
1213.75,1686
1214,1615
1214.25,1602
1214.5,1617
1214.75,1647
1215,1714
1215.25,1750
1215.5,1802
1215.75,1853
1216,1871
1216.25,1889
1216.5,1887
1216.75,964
1217,1907
1217.25,2015
1217.5,2039
1217.75,2054
1218,2070
1218.25,2035
1218.5,1953
1218.75,1927
1219,1965
1219.25,2064
1219.5,2130
1219.75,2113
1220,2044
1220.25,1980
1220.5,1915
1220.75,1859
1221,1767
1221.25,1712
1221.5,1635
1221.75,1623
1222,1626
1222.25,1628
1222.5,1669
1222.75,1693
1223,1751
1223.25,1818
1223.5,1821
1223.75,1853
1224,1863
1224.25,1891
1224.5,1314
1224.75,1921
1225,1994
1225.25,2031
1225.5,2075
1225.75,2096
1226,2059
1226.25,1967
1226.5,1963
1226.75,1984
1227,2058
1227.25,2096
1227.5,2085
1227.75,2035
1228,1975
1228.25,1914
1228.5,1819
1228.75,1808
1229,1712
1229.25,1648
1229.5,1648
1229.75,1605
1230,1638
1230.25,1712
1230.5,1755
1230.75,1757
1231,1789
1231.25,1811
1231.5,1808
1231.75,1842
1232,1888
1232.25,1466
1232.5,1910
1232.75,1994
1233,2035
1233.25,2063
1233.5,2082
1233.75,2071
1234,2054
1234.25,1999
1234.5,2015
1234.75,2043
1235,2126
1235.25,2077
1235.5,1990
1235.75,1918
1236,1865
1236.25,1827
1236.5,1762
1236.75,1707
1237,1653
1237.25,1631
1237.5,1623
1237.75,1668
1238,1691
1238.25,1730
1238.5,1771
1238.75,1776
1239,1826
1239.25,1830
1239.5,1839
1239.75,1858
1240,1570
1240.25,1934
1240.5,1997
1240.75,2075
1241,2095
1241.25,2119
1241.5,2096
1241.75,2018
1242,2038
1242.25,2068
1242.5,2134
1242.75,2141
1243,2088
1243.25,1950
1243.5,1893
1243.75,1811
1244,1743
1244.25,1715
1244.5,1659
1244.75,1619
1245,1627
1245.25,1591
1245.5,1627
1245.75,1693
1246,1735
1246.25,1791
1246.5,1814
1246.75,1827
1247,1858
1247.25,1883
1247.5,1877
1247.75,1648
1248,1921
1248.25,1995
1248.5,2054
1248.75,2080
1249,2099
1249.25,2066
1249.5,2066
1249.75,2035
1250,2096
1250.25,2158
1250.5,2127
1250.75,2096
1251,1968
1251.25,1889
1251.5,1817
1251.75,1776
1252,1670
1252.25,1629
1252.5,1599
1252.75,1600
1253,1598
1253.25,1631
1253.5,1680
1253.75,1746
1254,1760
1254.25,1808
1254.5,1822
1254.75,1902
1255,1904
1255.25,1919
1255.5,1687
1255.75,1942
1256,1995
1256.25,2032
1256.5,2078
1256.75,2124
1257,2095
1257.25,2106
1257.5,2059
1257.75,2111
1258,2173
1258.25,2129
1258.5,2071
1258.75,1981
1259,1906
1259.25,1820
1259.5,1754
1259.75,1683
1260,1619
1260.25,1586
1260.5,1575
1260.75,1565
1261,1638
1261.25,1674
1261.5,1733
1261.75,1807
1262,1807
1262.25,1848
1262.5,1867
1262.75,1889
1263,1927
1263.25,1771
1263.5,1991
1263.75,2033
1264,2071
1264.25,2083
1264.5,2126
1264.75,2102
1265,2064
1265.25,2067
1265.5,2105
1265.75,2131
1266,2119
1266.25,2032
1266.5,1949
1266.75,1886
1267,1813
1267.25,1770
1267.5,1707
1267.75,1680
1268,1634
1268.25,1607
1268.5,1589
1268.75,1632
1269,1685
1269.25,1713
1269.5,1763
1269.75,1802
1270,1821
1270.25,1893
1270.5,1871
1270.75,1710
1271,1702
1271.25,1983
1271.5,2017
1271.75,2065
1272,2107
1272.25,2122
1272.5,2096
1272.75,2089
1273,2079
1273.25,2097
1273.5,2116
1273.75,2063
1274,2030
1274.25,1949
1274.5,1899
1274.75,1853
1275,1783
1275.25,1733
1275.5,1657
1275.75,1642
1276,1645
1276.25,1618
1276.5,1635
1276.75,1661
1277,1712
1277.25,1736
1277.5,1776
1277.75,1844
1278,1872
1278.25,1890
1278.5,1200
1278.75,1779
1279,1986
1279.25,2054
1279.5,2085
1279.75,2127
1280,2159
1280.25,2101
1280.5,2032
1280.75,2071
1281,2046
1281.25,2070
1281.5,1985
1281.75,1962
1282,1943
1282.25,1906
1282.5,1850
1282.75,1775
1283,1733
1283.25,1679
1283.5,1663
1283.75,1635
1284,1599
1284.25,1636
1284.5,1681
1284.75,1737
1285,1741
1285.25,1777
1285.5,1809
1285.75,1849
1286,1845
1286.25,570
1286.5,1826
1286.75,1984
1287,2055
1287.25,2102
1287.5,2125
1287.75,2176
1288,2121
1288.25,2097
1288.5,2046
1288.75,2077
1289,2032
1289.25,1998
1289.5,1954
1289.75,1922
1290,1891
1290.25,1821
1290.5,1776
1290.75,1723
1291,1695
1291.25,1686
1291.5,1644
1291.75,1648
1292,1649
1292.25,1687
1292.5,1731
1292.75,1763
1293,1791
1293.25,1810
1293.5,1810
1293.75,1853
1294,304
1294.25,1773
1294.5,1980
1294.75,2026
1295,2098
1295.25,2125
1295.5,2167
1295.75,2099
1296,2078
1296.25,2067
1296.5,2112
1296.75,2043
1297,2005
1297.25,2017
1297.5,1931
1297.75,1887
1298,1827
1298.25,1796
1298.5,1740
1298.75,1701
1299,1677
1299.25,1661
1299.5,1657
1299.75,1667
1300,1686
1300.25,1732
1300.5,1776
1300.75,1817
1301,1813
1301.25,1817
1301.5,1872
1301.75,479
1302,1865
1302.25,1963
1302.5,2018
1302.75,2022
1303,2099
1303.25,2160
1303.5,2094
1303.75,2082
1304,2078
1304.25,2070
1304.5,1984
1304.75,1970
1305,1979
1305.25,1931
1305.5,1860
1305.75,1830
1306,1782
1306.25,1719
1306.5,1659
1306.75,1651
1307,1671
1307.25,1648
1307.5,1675
1307.75,1693
1308,1719
1308.25,1767
1308.5,1802
1308.75,1827
1309,1840
1309.25,1872
1309.5,898
1309.75,1808
1310,1998
1310.25,2030
1310.5,2071
1310.75,2126
1311,2144
1311.25,2096
1311.5,2065
1311.75,2031
1312,2083
1312.25,2006
1312.5,1974
1312.75,1993
1313,1978
1313.25,1913
1313.5,1875
1313.75,1786
1314,1763
1314.25,1683
1314.5,1664
1314.75,1648
1315,1641
1315.25,1666
1315.5,1699
1315.75,1731
1316,1797
1316.25,1802
1316.5,1810
1316.75,1837
1317,1899
1317.25,1170
1317.5,1861
1317.75,1997
1318,2014
1318.25,2112
1318.5,2110
1318.75,2121
1319,2047
1319.25,2032
1319.5,2056
1319.75,2045
1320,1983
1320.25,1986
1320.5,1999
1320.75,1978
1321,1942
1321.25,1901
1321.5,1856
1321.75,1778
1322,1754
1322.25,1684
1322.5,1648
1322.75,1653
1323,1658
1323.25,1676
1323.5,1654
1323.75,1746
1324,1792
1324.25,1826
1324.5,1855
1324.75,1866
1325,1883
1325.25,1873
1325.5,1898
1325.75,1918
1326,1930
1326.25,1895
1326.5,1915
1326.75,1863
1327,1881
1327.25,1872
1327.5,1882
1327.75,1899
1328,1915
1328.25,1893
1328.5,1893
1328.75,1873
1329,1895
1329.25,1891
1329.5,1904
1329.75,1882
1330,1879
1330.25,1854
1330.5,1869
1330.75,1823
1331,1859
1331.25,1835
1331.5,1854
1331.75,1856
1332,1855
1332.25,1847
1332.5,1895
1332.75,1887
1333,1886
1333.25,1872
1333.5,1885
1333.75,1874
1334,1866
1334.25,1865
1334.5,1850
1334.75,1847
1335,1872
1335.25,1846
1335.5,1842
1335.75,1856
1336,1852
1336.25,1859
1336.5,1899
1336.75,1855
1337,1878
1337.25,1885
1337.5,1883
1337.75,1885
1338,1871
1338.25,1872
1338.5,1855
1338.75,1853
1339,1856
1339.25,1865
1339.5,1849
1339.75,1850
1340,1854
1340.25,1899
1340.5,1866
1340.75,1872
1341,1890
1341.25,1905
1341.5,1866
1341.75,1857
1342,1855
1342.25,1893
1342.5,1872
1342.75,1850
1343,1831
1343.25,1872
1343.5,1847
1343.75,1850
1344,1856
1344.25,1856
1344.5,1826
1344.75,1865
1345,1862
1345.25,1888
1345.5,1897
1345.75,1872
1346,1886
1346.25,1875
1346.5,1851
1346.75,1862
1347,1859
1347.25,1843
1347.5,1852
1347.75,1842
1348,1845
1348.25,1840
1348.5,1832
1348.75,1845
1349,1869
1349.25,1874
1349.5,1882
1349.75,1882
1350,1885
1350.25,1868
1350.5,1872
1350.75,1875
1351,1858
1351.25,1883
1351.5,1825
1351.75,1826
1352,1837
1352.25,1844
1352.5,1840
1352.75,1808
1353,1865
1353.25,1884
1353.5,1889
1353.75,1909
1354,1879
1354.25,1875
1354.5,1877
1354.75,1890
1355,1856
1355.25,1855
1355.5,1851
1355.75,1843
1356,1845
1356.25,1833
1356.5,1834
1356.75,1866
1357,1882
1357.25,1866
1357.5,1867
1357.75,1883
1358,1876
1358.25,1876
1358.5,1881
1358.75,1894
1359,1869
1359.25,1866
1359.5,1871
1359.75,1839
1360,1872
1360.25,1845
1360.5,1845
1360.75,1872
1361,1860
1361.25,1895
1361.5,1872
1361.75,1866
1362,1873
1362.25,1861
1362.5,1866
1362.75,1866
1363,1884
1363.25,1875
1363.5,1872
1363.75,1877
1364,1841
1364.25,1855
1364.5,1841
1364.75,1841
1365,1854
1365.25,1872
1365.5,1869
1365.75,1850
1366,1856
1366.25,1849
1366.5,1878
1366.75,1872
1367,1863
1367.25,1907
1367.5,1904
1367.75,1863
1368,1886
1368.25,1875
1368.5,1838
1368.75,1831
1369,1847
1369.25,1850
1369.5,1838
1369.75,1889
1370,1905
1370.25,1878
1370.5,1895
1370.75,1868
1371,1872
1371.25,1871
1371.5,1839
1371.75,1850
1372,1856
1372.25,1854
1372.5,1828
1372.75,1840
1373,1840
1373.25,1830
1373.5,1843
1373.75,1855
1374,1894
1374.25,1859
1374.5,1869
1374.75,1872
1375,1872
1375.25,1857
1375.5,1895
1375.75,1855
1376,1866
1376.25,1871
1376.5,1871
1376.75,1856
1377,1841
1377.25,1840
1377.5,1825
1377.75,1840
1378,1867
1378.25,1867
1378.5,1888
1378.75,1889
1379,1865
1379.25,1863
1379.5,1899
1379.75,1830
1380,1899
1380.25,1868
1380.5,1874
1380.75,1859
1381,1852
1381.25,1825
1381.5,1840
1381.75,1847
1382,1872
1382.25,1872
1382.5,1901
1382.75,1894
1383,1887
1383.25,1873
1383.5,1871
1383.75,1871
1384,1871
1384.25,1858
1384.5,1856
1384.75,1863
1385,1840
1385.25,1852
1385.5,1844
1385.75,1841
1386,1852
1386.25,1870
1386.5,1857
1386.75,1867
1387,1869
1387.25,1877
1387.5,1867
1387.75,1894
1388,1906
1388.25,1905
1388.5,1873
1388.75,1865
1389,1873
1389.25,1829
1389.5,1850
1389.75,1840
1390,1840
1390.25,1856
1390.5,1865
1390.75,1873
1391,1863
1391.25,1888
1391.5,1872
1391.75,1872
1392,1906
1392.25,1901
1392.5,1911
1392.75,1899
1393,1863
1393.25,1815
1393.5,1862
1393.75,1839
1394,1838
1394.25,1839
1394.5,1836
1394.75,1872
1395,1878
1395.25,1872
1395.5,1887
1395.75,1879
1396,1872
1396.25,1873
1396.5,1877
1396.75,1872
1397,1869
1397.25,1814
1397.5,1833
1397.75,1842
1398,1842
1398.25,1855
1398.5,1837
1398.75,1858
1399,1872
1399.25,1872
1399.5,1872
1399.75,1877
1400,1882
1400.25,1871
1400.5,1863
1400.75,1866
1401,1860
1401.25,1851
1401.5,1845
1401.75,1861
1402,1829
1402.25,1838
1402.5,1850
1402.75,1885
1403,1855
1403.25,1872
1403.5,1869
1403.75,1874
1404,1870
1404.25,1874
1404.5,1840
1404.75,1872
1405,1881
1405.25,1862
1405.5,1872
1405.75,1834
1406,1855
1406.25,1840
1406.5,1848
1406.75,1841
1407,1907
1407.25,1851
1407.5,1839
1407.75,1904
1408,1907
1408.25,1869
1408.5,1863
1408.75,1877
1409,1904
1409.25,1849
1409.5,1879
1409.75,1860
1410,1863
1410.25,1841
1410.5,1842
1410.75,1829
1411,1860
1411.25,1851
1411.5,1898
1411.75,1879
1412,1872
1412.25,1873
1412.5,1879
1412.75,1871
1413,1878
1413.25,1874
1413.5,1856
1413.75,1860
1414,1821
1414.25,1875
1414.5,1843
1414.75,1839
1415,1847
1415.25,1826
1415.5,1872
1415.75,1887
1416,1840
1416.25,1857
1416.5,1865
1416.75,1862
1417,1857
1417.25,1851
1417.5,1863
1417.75,1899
1418,1872
1418.25,1833
1418.5,1861
1418.75,1831
1419,1837
1419.25,1843
1419.5,1876
1419.75,1855
1420,1864
1420.25,1839
1420.5,1851
1420.75,1872
1421,1872
1421.25,1897
1421.5,1869
1421.75,1867
1422,1855
1422.25,1856
1422.5,1829
1422.75,1842
1423,1843
1423.25,1840
1423.5,1847
1423.75,1859
1424,1855
1424.25,1879
1424.5,1851
1424.75,1874
1425,1879
1425.25,1856
1425.5,1898
1425.75,1883
1426,1861
1426.25,1886
1426.5,1874
1426.75,1844
1427,1850
1427.25,1841
1427.5,1846
1427.75,1859
1428,1864
1428.25,1862
1428.5,1883
1428.75,1926
1429,1879
1429.25,1873
1429.5,1871
1429.75,1902
1430,1879
1430.25,1861
1430.5,1826
1430.75,1870
1431,1849
1431.25,1839
1431.5,1846
1431.75,1847
1432,1856
1432.25,1840
1432.5,1841
1432.75,1902
1433,1871
1433.25,1866
1433.5,1867
1433.75,1840
1434,1856
1434.25,1872
1434.5,1859
1434.75,1904
1435,1879
1435.25,1847
1435.5,1840
1435.75,1839
1436,1845
1436.25,1859
1436.5,1875
1436.75,1889
1437,1879
1437.25,1882
1437.5,1872
1437.75,1888
1438,1861
1438.25,1875
1438.5,1870
1438.75,1855
1439,1842
1439.25,1812
1439.5,1846
1439.75,1847
1440,1847
1440.25,1856
1440.5,1870
1440.75,1862
1441,1867
1441.25,1933
1441.5,1874
1441.75,1871
1442,1870
1442.25,1872
1442.5,1878
1442.75,1846
1443,1872
1443.25,1841
1443.5,1881
1443.75,1835
1444,1834
1444.25,1855
1444.5,1856
1444.75,1862
1445,1861
1445.25,1883
1445.5,1870
1445.75,1875
1446,1866
1446.25,1852
1446.5,1863
1446.75,1857
1447,1886
1447.25,1859
1447.5,1840
1447.75,1842
1448,1843
1448.25,1840
1448.5,1854
1448.75,1859
1449,1878
1449.25,1883
1449.5,1873
1449.75,1879
1450,1871
1450.25,1855
1450.5,1883
1450.75,1883
1451,1890
1451.25,1854
1451.5,1882
1451.75,1863
1452,1849
1452.25,1840
1452.5,1831
1452.75,1839
1453,1861
1453.25,1885
1453.5,1847
1453.75,1862
1454,1870
1454.25,1867
1454.5,1843
1454.75,1858
1455,1861
1455.25,1866
1455.5,1856
1455.75,1858
1456,1856
1456.25,1843
1456.5,1840
1456.75,1841
1457,1891
1457.25,1895
1457.5,1879
1457.75,1883
1458,1878
1458.25,1872
1458.5,1871
1458.75,1919
1459,1867
1459.25,1870
1459.5,1858
1459.75,1893
1460,1885
1460.25,1845
1460.5,1841
1460.75,1827
1461,1809
1461.25,1863
1461.5,1872
1461.75,1887
1462,1872
1462.25,1877
1462.5,1871
1462.75,1856
1463,1891
1463.25,1887
1463.5,1862
1463.75,1825
1464,1855
1464.25,1856
1464.5,1842
1464.75,1843
1465,1838
1465.25,1855
1465.5,1863
1465.75,1858
1466,1879
1466.25,1903
1466.5,1879
1466.75,1872
1467,1901
1467.25,1894
1467.5,1857
1467.75,1879
1468,1850
1468.25,1852
1468.5,1842
1468.75,1840
1469,1842
1469.25,1855
1469.5,1856
1469.75,1846
1470,1883
1470.25,1841
1470.5,1882
1470.75,1872
1471,1874
1471.25,1823
1471.5,1847
1471.75,1849
1472,1853
1472.25,1852
1472.5,1857
1472.75,1840
1473,1841
1473.25,1846
1473.5,1845
1473.75,1855
1474,1877
1474.25,1866
1474.5,1879
1474.75,1875
1475,1879
1475.25,1865
1475.5,1862
1475.75,1855
1476,1857
1476.25,1853
1476.5,1850
1476.75,1872
1477,1837
1477.25,1838
1477.5,1873
1477.75,1842
1478,1875
1478.25,1865
1478.5,1858
1478.75,1872
1479,1870
1479.25,1871
1479.5,1883
1479.75,1888
1480,1879
1480.25,1872
1480.5,1883
1480.75,1864
1481,1846
1481.25,1845
1481.5,1840
1481.75,1851
1482,1843
1482.25,1862
1482.5,1873
1482.75,1842
1483,1855
1483.25,1859
1483.5,1869
1483.75,1872
1484,1861
1484.25,1841
1484.5,1851
1484.75,1827
1485,1858
1485.25,1846
1485.5,1840
1485.75,1838
1486,1849
1486.25,1873
1486.5,1866
1486.75,1865
1487,1863
1487.25,1849
1487.5,1872
1487.75,1862
1488,1876
1488.25,1921
1488.5,1866
1488.75,1837
1489,1863
1489.25,1811
1489.5,1846
1489.75,1848
1490,1852
1490.25,1871
1490.5,1853
1490.75,1856
1491,1856
1491.25,1865
1491.5,1866
1491.75,1867
1492,1878
1492.25,1875
1492.5,1869
1492.75,1855
1493,1851
1493.25,1840
1493.5,1834
1493.75,1847
1494,1841
1494.25,1862
1494.5,1878
1494.75,1863
1495,1856
1495.25,1888
1495.5,1869
1495.75,1874
1496,1872
1496.25,1899
1496.5,1882
1496.75,1878
1497,1871
1497.25,1863
1497.5,1853
1497.75,1847
1498,1851
1498.25,1822
1498.5,1857
1498.75,1852
1499,1858
1499.25,1871
1499.5,1869
1499.75,1883
1500,1867
1500.25,1857
1500.5,1869
1500.75,1885
1501,1866
1501.25,1867
1501.5,1857
1501.75,1866
1502,1848
1502.25,1840
1502.5,1833
1502.75,1872
1503,1865
1503.25,1857
1503.5,1866
1503.75,1872
1504,1874
1504.25,1874
1504.5,1887
1504.75,1891
1505,1859
1505.25,1859
1505.5,1858
1505.75,1865
1506,1867
1506.25,1830
1506.5,1852
1506.75,1839
1507,1893
1507.25,1895
1507.5,1819
1507.75,1890
1508,1867
1508.25,1869
1508.5,1872
1508.75,1869
1509,1871
1509.25,1878
1509.5,1855
1509.75,1843
1510,1890
1510.25,1859
1510.5,1841
1510.75,1851
1511,1856
1511.25,1851
1511.5,1861
1511.75,1902
1512,1861
1512.25,1877
1512.5,1870
1512.75,1869
1513,1872
1513.25,1830
1513.5,1842
1513.75,1864
1514,1856
1514.25,1873
1514.5,1850
1514.75,1842
1515,1827
1515.25,1845
1515.5,1858
1515.75,1873
1516,1888
1516.25,1869
1516.5,1872
1516.75,1878
1517,1885
1517.25,1890
1517.5,1886
1517.75,1887
1518,1860
1518.25,1879
1518.5,1863
1518.75,1835
1519,1836
1519.25,1857
1519.5,1847
1519.75,1871
1520,1865
1520.25,1875
1520.5,1874
1520.75,1856
1521,1866
1521.25,1847
1521.5,1872
1521.75,1863
1522,1893
1522.25,1866
1522.5,1851
1522.75,1854
1523,1840
1523.25,1839
1523.5,1843
1523.75,1844
1524,1887
1524.25,1850
1524.5,1863
1524.75,1893
1525,1881
1525.25,1859
1525.5,1874
1525.75,1885
1526,1866
1526.25,1871
1526.5,1867
1526.75,1855
1527,1846
1527.25,1841
1527.5,1872
1527.75,1841
1528,1856
1528.25,1851
1528.5,1881
1528.75,1885
1529,1873
1529.25,1872
1529.5,1873
1529.75,1870
1530,1875
1530.25,1838
1530.5,1846
1530.75,1861
1531,1835
1531.25,1842
1531.5,1833
1531.75,1851
1532,1874
1532.25,1846
1532.5,1861
1532.75,1867
1533,1880
1533.25,1872
1533.5,1872
1533.75,1879
1534,1865
1534.25,1872
1534.5,1894
1534.75,1848
1535,1855
1535.25,1856
1535.5,1834
1535.75,1846
1536,1839
1536.25,1874
1536.5,1842
1536.75,1882
1537,1859
1537.25,1878
1537.5,1887
1537.75,1883
1538,1883
1538.25,1889
1538.5,1856
1538.75,1856
1539,1860
1539.25,1840
1539.5,1827
1539.75,1840
1540,1822
1540.25,1869
1540.5,1865
1540.75,1841
1541,1855
1541.25,1893
1541.5,1866
1541.75,1878
1542,1867
1542.25,1873
1542.5,1877
1542.75,1857
1543,1840
1543.25,1842
1543.5,1834
1543.75,1837
1544,1824
1544.25,1840
1544.5,1841
1544.75,1852
1545,1882
1545.25,1895
1545.5,1896
1545.75,1872
1546,1872
1546.25,1877
1546.5,1869
1546.75,1874
1547,1836
1547.25,1855
1547.5,1872
1547.75,1863
1548,1840
1548.25,1838
1548.5,1847
1548.75,1860
1549,1815
1549.25,1898
1549.5,1872
1549.75,1879
1550,1872
1550.25,1865
1550.5,1872
1550.75,1874
1551,1884
1551.25,1872
1551.5,1842
1551.75,1819
1552,1842
1552.25,1838
1552.5,1853
1552.75,1858
1553,1861
1553.25,1876
1553.5,1862
1553.75,1874
1554,1861
1554.25,1878
1554.5,1872
1554.75,1886
1555,1871
1555.25,1854
1555.5,1831
1555.75,1864
1556,1872
1556.25,1840
1556.5,1839
1556.75,1850
1557,1872
1557.25,1865
1557.5,1872
1557.75,1880
1558,1847
1558.25,1877
1558.5,1867
1558.75,1861
1559,1884
1559.25,1874
1559.5,1843
1559.75,1855
1560,1846
1560.25,1857
1560.5,1830
1560.75,1840
1561,1856
1561.25,1854
1561.5,1871
1561.75,1872
1562,1851
1562.25,1863
1562.5,1872
1562.75,1875
1563,1867
1563.25,1877
1563.5,1872
1563.75,1871
1564,1853
1564.25,1820
1564.5,1833
1564.75,1842
1565,1854
1565.25,1886
1565.5,1874
1565.75,1844
1566,1871
1566.25,1850
1566.5,1855
1566.75,1869
1567,1872
1567.25,1866
1567.5,1868
1567.75,1868
1568,1858
1568.25,1851
1568.5,1846
1568.75,1846
1569,1829
1569.25,1845
1569.5,1887
1569.75,1866
1570,1885
1570.25,1863
1570.5,1854
1570.75,1871
1571,1872
1571.25,1871
1571.5,1872
1571.75,1872
1572,1866
1572.25,1482
1572.5,1866
1572.75,1893
1573,1907
1573.25,1904
1573.5,1935
1573.75,1918
1574,1887
1574.25,1851
1574.5,1903
1574.75,1887
1575,1949
1575.25,1987
1575.5,1981
1575.75,1949
1576,1936
1576.25,1890
1576.5,1858
1576.75,1817
1577,1811
1577.25,1795
1577.5,1798
1577.75,1761
1578,1789
1578.25,1805
1578.5,1785
1578.75,1842
1579,1842
1579.25,1869
1579.5,1870
1579.75,1863
1580,1535
1580.25,1889
1580.5,1956
1580.75,1968
1581,1956
1581.25,1955
1581.5,1950
1581.75,1878
1582,1850
1582.25,1872
1582.5,1925
1582.75,1995
1583,1984
1583.25,1983
1583.5,1953
1583.75,1904
1584,1917
1584.25,1871
1584.5,1871
1584.75,1840
1585,1798
1585.25,1776
1585.5,1776
1585.75,1776
1586,1783
1586.25,1776
1586.5,1791
1586.75,1851
1587,1856
1587.25,1850
1587.5,1857
1587.75,1675
1588,1915
1588.25,1978
1588.5,1946
1588.75,1942
1589,1965
1589.25,1910
1589.5,1889
1589.75,1887
1590,1929
1590.25,2009
1590.5,2038
1590.75,2071
1591,2023
1591.25,1987
1591.5,1975
1591.75,1918
1592,1872
1592.25,1814
1592.5,1775
1592.75,1703
1593,1685
1593.25,1713
1593.5,1663
1593.75,1706
1594,1737
1594.25,1773
1594.5,1793
1594.75,1806
1595,1841
1595.25,1872
1595.5,1755
1595.75,1934
1596,1968
1596.25,1989
1596.5,1967
1596.75,1994
1597,2015
1597.25,1942
1597.5,1933
1597.75,1979
1598,2034
1598.25,2090
1598.5,2077
1598.75,2000
1599,1993
1599.25,1904
1599.5,1872
1599.75,1809
1600,1761
1600.25,1712
1600.5,1687
1600.75,1653
1601,1675
1601.25,1694
1601.5,1758
1601.75,1759
1602,1769
1602.25,1792
1602.5,1826
1602.75,1840
1603,1863
1603.25,1804
1603.5,1951
1603.75,1981
1604,1998
1604.25,2026
1604.5,2016
1604.75,2012
1605,1943
1605.25,1974
1605.5,2001
1605.75,2077
1606,2079
1606.25,2018
1606.5,1965
1606.75,1925
1607,1890
1607.25,1862
1607.5,1833
1607.75,1738
1608,1701
1608.25,1661
1608.5,1659
1608.75,1701
1609,1746
1609.25,1782
1609.5,1776
1609.75,1791
1610,1840
1610.25,1854
1610.5,1853
1610.75,1744
1611,1792
1611.25,1917
1611.5,1981
1611.75,2023
1612,2062
1612.25,2053
1612.5,2041
1612.75,1963
1613,1989
1613.25,2033
1613.5,2110
1613.75,2081
1614,2026
1614.25,1955
1614.5,1907
1614.75,1865
1615,1790
1615.25,1739
1615.5,1695
1615.75,1650
1616,1648
1616.25,1645
1616.5,1680
1616.75,1721
1617,1746
1617.25,1798
1617.5,1823
1617.75,1831
1618,1843
1618.25,1844
1618.5,1253
1618.75,1785
1619,1936
1619.25,1979
1619.5,2034
1619.75,2061
1620,2109
1620.25,2087
1620.5,2010
1620.75,2015
1621,2069
1621.25,2128
1621.5,2117
1621.75,2075
1622,1999
1622.25,1914
1622.5,1822
1622.75,1750
1623,1709
1623.25,1633
1623.5,1615
1623.75,1615
1624,1605
1624.25,1712
1624.5,1750
1624.75,1776
1625,1799
1625.25,1824
1625.5,1856
1625.75,1845
1626,1871
1626.25,613
1626.5,1823
1626.75,1954
1627,1993
1627.25,2030
1627.5,2064
1627.75,2099
1628,2018
1628.25,2007
1628.5,1984
1628.75,2086
1629,2133
1629.25,2138
1629.5,2061
1629.75,1939
1630,1882
1630.25,1832
1630.5,1744
1630.75,1679
1631,1634
1631.25,1581
1631.5,1573
1631.75,1623
1632,1670
1632.25,1713
1632.5,1776
1632.75,1809
1633,1834
1633.25,1851
1633.5,1872
1633.75,1891
1634,383
1634.25,1861
1634.5,1984
1634.75,2032
1635,2039
1635.25,2063
1635.5,2102
1635.75,2061
1636,2022
1636.25,2030
1636.5,2114
1636.75,2162
1637,2139
1637.25,2033
1637.5,1939
1637.75,1879
1638,1823
1638.25,1774
1638.5,1680
1638.75,1646
1639,1600
1639.25,1583
1639.5,1594
1639.75,1642
1640,1668
1640.25,1747
1640.5,1759
1640.75,1810
1641,1834
1641.25,1881
1641.5,1888
1641.75,502
1642,1849
1642.25,2003
1642.5,2077
1642.75,2093
1643,2127
1643.25,2133
1643.5,2067
1643.75,2061
1644,2061
1644.25,2145
1644.5,2159
1644.75,2123
1645,2022
1645.25,1936
1645.5,1835
1645.75,1773
1646,1706
1646.25,1616
1646.5,1616
1646.75,1535
1647,1594
1647.25,1584
1647.5,1633
1647.75,1682
1648,1744
1648.25,1764
1648.5,1804
1648.75,1847
1649,1862
1649.25,1914
1649.5,951
1649.75,1872
1650,1995
1650.25,2059
1650.5,2089
1650.75,2106
1651,2151
1651.25,2110
1651.5,2075
1651.75,2101
1652,2102
1652.25,2111
1652.5,2066
1652.75,1930
1653,1898
1653.25,1854
1653.5,1773
1653.75,1722
1654,1665
1654.25,1625
1654.5,1594
1654.75,1588
1655,1643
1655.25,1651
1655.5,1700
1655.75,1744
1656,1790
1656.25,1798
1656.5,1840
1656.75,1872
1657,1886
1657.25,1249
1657.5,1899
1657.75,1997
1658,2080
1658.25,2111
1658.5,2138
1658.75,2183
1659,2097
1659.25,2064
1659.5,2062
1659.75,2112
1660,2085
1660.25,2019
1660.5,1925
1660.75,1874
1661,1825
1661.25,1745
1661.5,1715
1661.75,1681
1662,1655
1662.25,1616
1662.5,1618
1662.75,1632
1663,1698
1663.25,1727
1663.5,1759
1663.75,1781
1664,1810
1664.25,1829
1664.5,1856
1664.75,1872
1665,1441
1665.25,1901
1665.5,2022
1665.75,2023
1666,2115
1666.25,2112
1666.5,2178
1666.75,2109
1667,2112
1667.25,2127
1667.5,2107
1667.75,2038
1668,2013
1668.25,1955
1668.5,1903
1668.75,1825
1669,1770
1669.25,1711
1669.5,1618
1669.75,1647
1670,1650
1670.25,1599
1670.5,1648
1670.75,1671
1671,1718
1671.25,1792
1671.5,1807
1671.75,1829
1672,1855
1672.25,1844
1672.5,1865
1672.75,1558
1673,1915
1673.25,1987
1673.5,2059
1673.75,2087
1674,2118
1674.25,2131
1674.5,2092
1674.75,2111
1675,2080
1675.25,2074
1675.5,2062
1675.75,1970
1676,1956
1676.25,1939
1676.5,1902
1676.75,1763
1677,1712
1677.25,1665
1677.5,1648
1677.75,1611
1678,1623
1678.25,1637
1678.5,1681
1678.75,1744
1679,1744
1679.25,1783
1679.5,1812
1679.75,1861
1680,1883
1680.25,1857
1680.5,1647
1680.75,1939
1681,2032
1681.25,2057
1681.5,2087
1681.75,2128
1682,2127
1682.25,2093
1682.5,2081
1682.75,2080
1683,2066
1683.25,2002
1683.5,1975
1683.75,1946
1684,1936
1684.25,1899
1684.5,1801
1684.75,1721
1685,1676
1685.25,1651
1685.5,1638
1685.75,1621
1686,1630
1686.25,1654
1686.5,1702
1686.75,1744
1687,1799
1687.25,1813
1687.5,1846
1687.75,1871
1688,1895
1688.25,1698
1688.5,1955
1688.75,2057
1689,2064
1689.25,2087
1689.5,2146
1689.75,2125
1690,2026
1690.25,2032
1690.5,2069
1690.75,2032
1691,1994
1691.25,1939
1691.5,1984
1691.75,1929
1692,1889
1692.25,1846
1692.5,1790
1692.75,1713
1693,1673
1693.25,1664
1693.5,1605
1693.75,1617
1694,1647
1694.25,1711
1694.5,1729
1694.75,1761
1695,1793
1695.25,1837
1695.5,1850
1695.75,1891
1696,1713
1696.25,1979
1696.5,2039
1696.75,2079
1697,2122
1697.25,2165
1697.5,2127
1697.75,2059
1698,2039
1698.25,2045
1698.5,2002
1698.75,2003
1699,1934
1699.25,1955
1699.5,1954
1699.75,1875
1700,1849
1700.25,1776
1700.5,1762
1700.75,1728
1701,1666
1701.25,1653
1701.5,1672
1701.75,1659
1702,1686
1702.25,1712
1702.5,1776
1702.75,1781
1703,1824
1703.25,1859
1703.5,1729
1703.75,1722
1704,1979
1704.25,2047
1704.5,2096
1704.75,2119
1705,2208
1705.25,2121
1705.5,2033
1705.75,2031
1706,2059
1706.25,1999
1706.5,1951
1706.75,1903
1707,1963
1707.25,1961
1707.5,1899
1707.75,1808
1708,1798
1708.25,1731
1708.5,1689
1708.75,1644
1709,1642
1709.25,1680
1709.5,1669
1709.75,1712
1710,1742
1710.25,1762
1710.5,1780
1710.75,1792
1711,1840
1711.25,1072
1711.5,1781
1711.75,1968
1712,2034
1712.25,2084
1712.5,2112
1712.75,2171
1713,2111
1713.25,2035
1713.5,2062
1713.75,2014
1714,1991
1714.25,1926
1714.5,1939
1714.75,1947
1715,1936
1715.25,1884
1715.5,1845
1715.75,1780
1716,1766
1716.25,1697
1716.5,1680
1716.75,1671
1717,1693
1717.25,1687
1717.5,1724
1717.75,1724
1718,1737
1718.25,1809
1718.5,1813
1718.75,1818
1719,484
1719.25,1753
1719.5,1970
1719.75,2069
1720,2045
1720.25,2113
1720.5,2171
1720.75,2111
1721,2064
1721.25,2076
1721.5,2032
1721.75,1985
1722,1953
1722.25,1950
1722.5,1945
1722.75,1932
1723,1900
1723.25,1837
1723.5,1773
1723.75,1717
1724,1696
1724.25,1688
1724.5,1689
1724.75,1689
1725,1706
1725.25,1713
1725.5,1767
1725.75,1798
1726,1808
1726.25,1824
1726.5,1863
1726.75,1857
1727,1851
1727.25,1862
1727.5,1869
1727.75,1893
1728,1885
1728.25,1899
1728.5,1910
1728.75,1911
1729,1919
1729.25,1907
1729.5,1906
1729.75,1920
1730,1891
1730.25,1904
1730.5,1897
1730.75,1878
1731,1870
1731.25,1859
1731.5,1851
1731.75,1823
1732,1875
1732.25,1873
1732.5,1867
1732.75,1877
1733,1901
1733.25,1879
1733.5,1882
1733.75,1902
1734,1886
1734.25,1872
1734.5,1873
1734.75,1873
1735,1850
1735.25,1840
1735.5,1827
1735.75,1834
1736,1843
1736.25,1856
1736.5,1856
1736.75,1871
1737,1902
1737.25,1869
1737.5,1877
1737.75,1872
1738,1872
1738.25,1855
1738.5,1863
1738.75,1845
1739,1852
1739.25,1851
1739.5,1840
1739.75,1843
1740,1854
1740.25,1843
1740.5,1858
1740.75,1876
1741,1852
1741.25,1883
1741.5,1881
1741.75,1877
1742,1872
1742.25,1881
1742.5,1841
1742.75,1867
1743,1877
1743.25,1881
1743.5,1869
1743.75,1839
1744,1840
1744.25,1838
1744.5,1850
1744.75,1856
1745,1850
1745.25,1871
1745.5,1874
1745.75,1861
1746,1870
1746.25,1865
1746.5,1862
1746.75,1872
1747,1838
1747.25,1835
1747.5,1870
1747.75,1846
1748,1841
1748.25,1843
1748.5,1870
1748.75,1849
1749,1861
1749.25,1882
1749.5,1871
1749.75,1874
1750,1870
1750.25,1868
1750.5,1890
1750.75,1877
1751,1870
1751.25,1849
1751.5,1843
1751.75,1837
1752,1840
1752.25,1840
1752.5,1843
1752.75,1851
1753,1874
1753.25,1862
1753.5,1861
1753.75,1872
1754,1899
1754.25,1877
1754.5,1859
1754.75,1865
1755,1898
1755.25,1873
1755.5,1840
1755.75,1863
1756,1856
1756.25,1846
1756.5,1842
1756.75,1845
1757,1861
1757.25,1856
1757.5,1872
1757.75,1853
1758,1872
1758.25,1882
1758.5,1876
1758.75,1847
1759,1873
1759.25,1878
1759.5,1906
1759.75,1868
1760,1862
1760.25,1867
1760.5,1841
1760.75,1849
1761,1841
1761.25,1857
1761.5,1840
1761.75,1856
1762,1876
1762.25,1860
1762.5,1878
1762.75,1872
1763,1849
1763.25,1855
1763.5,1877
1763.75,1871
1764,1849
1764.25,1871
1764.5,1840
1764.75,1840
1765,1856
1765.25,1813
1765.5,1878
1765.75,1860
1766,1879
1766.25,1846
1766.5,1892
1766.75,1888
1767,1888
1767.25,1887
1767.5,1875
1767.75,1859
1768,1860
1768.25,1841
1768.5,1846
1768.75,1834
1769,1836
1769.25,1844
1769.5,1856
1769.75,1853
1770,1867
1770.25,1886
1770.5,1876
1770.75,1887
1771,1878
1771.25,1886
1771.5,1874
1771.75,1871
1772,1830
1772.25,1847
1772.5,1846
1772.75,1869
1773,1851
1773.25,1856
1773.5,1850
1773.75,1840
1774,1875
1774.25,1862
1774.5,1907
1774.75,1854
1775,1873
1775.25,1863
1775.5,1876
1775.75,1902
1776,1896
1776.25,1879
1776.5,1860
1776.75,1857
1777,1851
1777.25,1829
1777.5,1856
1777.75,1856
1778,1865
1778.25,1872
1778.5,1856
1778.75,1871
1779,1867
1779.25,1863
1779.5,1867
1779.75,1898
1780,1885
1780.25,1883
1780.5,1822
1780.75,1851
1781,1856
1781.25,1838
1781.5,1844
1781.75,1869
1782,1846
1782.25,1872
1782.5,1893
1782.75,1893
1783,1878
1783.25,1872
1783.5,1856
1783.75,1862
1784,1863
1784.25,1894
1784.5,1840
1784.75,1858
1785,1813
1785.25,1843
1785.5,1825
1785.75,1836
1786,1856
1786.25,1852
1786.5,1868
1786.75,1881
1787,1871
1787.25,1825
1787.5,1879
1787.75,1871
1788,1872
1788.25,1854
1788.5,1870
1788.75,1887
1789,1882
1789.25,1850
1789.5,1856
1789.75,1840
1790,1846
1790.25,1874
1790.5,1856
1790.75,1887
1791,1882
1791.25,1855
1791.5,1863
1791.75,1881
1792,1867
1792.25,1872
1792.5,1879
1792.75,1862
1793,1855
1793.25,1875
1793.5,1856
1793.75,1838
1794,1840
1794.25,1854
1794.5,1840
1794.75,1862
1795,1859
1795.25,1851
1795.5,1859
1795.75,1872
1796,1874
1796.25,1878
1796.5,1865
1796.75,1827
1797,1874
1797.25,1856
1797.5,1858
1797.75,1840
1798,1846
1798.25,1830
1798.5,1843
1798.75,1846
1799,1873
1799.25,1884
1799.5,1827
1799.75,1872
1800,1872
1800.25,1866
1800.5,1879
1800.75,1884
1801,1862
1801.25,1855
1801.5,1809
1801.75,1843
1802,1850
1802.25,1840
1802.5,1823
1802.75,1860
1803,1872
1803.25,1864
1803.5,1874
1803.75,1875
1804,1861
1804.25,1876
1804.5,1868
1804.75,1894
1805,1872
1805.25,1859
1805.5,1858
1805.75,1895
1806,1855
1806.25,1840
1806.5,1833
1806.75,1849
1807,1835
1807.25,1849
1807.5,1835
1807.75,1866
1808,1871
1808.25,1888
1808.5,1879
1808.75,1871
1809,1877
1809.25,1895
1809.5,1892
1809.75,1877
1810,1859
1810.25,1834
1810.5,1849
1810.75,1840
1811,1850
1811.25,1883
1811.5,1863
1811.75,1853
1812,1881
1812.25,1882
1812.5,1890
1812.75,1872
1813,1907
1813.25,1878
1813.5,1858
1813.75,1873
1814,1870
1814.25,1888
1814.5,1841
1814.75,1850
1815,1855
1815.25,1866
1815.5,1858
1815.75,1863
1816,1873
1816.25,1886
1816.5,1901
1816.75,1872
1817,1872
1817.25,1865
1817.5,1879
1817.75,1873
1818,1856
1818.25,1872
1818.5,1815
1818.75,1856
1819,1843
1819.25,1872
1819.5,1847
1819.75,1859
1820,1860
1820.25,1877
1820.5,1888
1820.75,1873
1821,1869
1821.25,1878
1821.5,1853
1821.75,1892
1822,1839
1822.25,1862
1822.5,1856
1822.75,1841
1823,1838
1823.25,1855
1823.5,1861
1823.75,1856
1824,1869
1824.25,1867
1824.5,1898
1824.75,1895
1825,1871
1825.25,1869
1825.5,1904
1825.75,1873
1826,1895
1826.25,1840
1826.5,1860
1826.75,1831
1827,1846
1827.25,1844
1827.5,1840
1827.75,1840
1828,1813
1828.25,1867
1828.5,1846
1828.75,1894
1829,1879
1829.25,1869
1829.5,1866
1829.75,1877
1830,1827
1830.25,1872
1830.5,1859
1830.75,1895
1831,1840
1831.25,1847
1831.5,1843
1831.75,1842
1832,1846
1832.25,1856
1832.5,1863
1832.75,1868
1833,1847
1833.25,1869
1833.5,1859
1833.75,1856
1834,1872
1834.25,1874
1834.5,1853
1834.75,1872
1835,1888
1835.25,1869
1835.5,1840
1835.75,1837
1836,1839
1836.25,1841
1836.5,1856
1836.75,1887
1837,1876
1837.25,1871
1837.5,1876
1837.75,1872
1838,1872
1838.25,1901
1838.5,1892
1838.75,1862
1839,1831
1839.25,1883
1839.5,1820
1839.75,1833
1840,1829
1840.25,1872
1840.5,1850
1840.75,1859
1841,1885
1841.25,1870
1841.5,1846
1841.75,1874
1842,1888
1842.25,1879
1842.5,1897
1842.75,1867
1843,1849
1843.25,1851
1843.5,1870
1843.75,1839
1844,1835
1844.25,1855
1844.5,1822
1844.75,1861
1845,1863
1845.25,1862
1845.5,1876
1845.75,1887
1846,1871
1846.25,1872
1846.5,1876
1846.75,1874
1847,1872
1847.25,1860
1847.5,1858
1847.75,1839
1848,1840
1848.25,1840
1848.5,1861
1848.75,1851
1849,1861
1849.25,1859
1849.5,1868
1849.75,1872
1850,1878
1850.25,1867
1850.5,1867
1850.75,1873
1851,1873
1851.25,1867
1851.5,1856
1851.75,1867
1852,1837
1852.25,1839
1852.5,1819
1852.75,1856
1853,1855
1853.25,1881
1853.5,1883
1853.75,1853
1854,1858
1854.25,1872
1854.5,1863
1854.75,1878
1855,1882
1855.25,1873
1855.5,1899
1855.75,1862
1856,1862
1856.25,1836
1856.5,1840
1856.75,1856
1857,1857
1857.25,1867
1857.5,1859
1857.75,1881
1858,1858
1858.25,1861
1858.5,1863
1858.75,1869
1859,1870
1859.25,1921
1859.5,1859
1859.75,1814
1860,1851
1860.25,1830
1860.5,1842
1860.75,1825
1861,1846
1861.25,1859
1861.5,1872
1861.75,1863
1862,1873
1862.25,1879
1862.5,1872
1862.75,1872
1863,1867
1863.25,1905
1863.5,1861
1863.75,1863
1864,1870
1864.25,1843
1864.5,1834
1864.75,1829
1865,1829
1865.25,1861
1865.5,1867
1865.75,1860
1866,1869
1866.25,1870
1866.5,1874
1866.75,1872
1867,1877
1867.25,1852
1867.5,1855
1867.75,1871
1868,1879
1868.25,1903
1868.5,1824
1868.75,1845
1869,1841
1869.25,1872
1869.5,1850
1869.75,1854
1870,1873
1870.25,1885
1870.5,1861
1870.75,1872
1871,1889
1871.25,1861
1871.5,1877
1871.75,1872
1872,1835
1872.25,1846
1872.5,1891
1872.75,1841
1873,1851
1873.25,1833
1873.5,1855
1873.75,1831
1874,1863
1874.25,1856
1874.5,1869
1874.75,1885
1875,1872
1875.25,1867
1875.5,1885
1875.75,1879
1876,1874
1876.25,1861
1876.5,1869
1876.75,1850
1877,1850
1877.25,1838
1877.5,1836
1877.75,1843
1878,1857
1878.25,1878
1878.5,1872
1878.75,1869
1879,1904
1879.25,1872
1879.5,1874
1879.75,1881
1880,1882
1880.25,1874
1880.5,1872
1880.75,1853
1881,1829
1881.25,1840
1881.5,1837
1881.75,1849
1882,1853
1882.25,1846
1882.5,1831
1882.75,1871
1883,1878
1883.25,1872
1883.5,1875
1883.75,1878
1884,1895
1884.25,1889
1884.5,1850
1884.75,1869
1885,1857
1885.25,1847
1885.5,1849
1885.75,1840
1886,1840
1886.25,1851
1886.5,1861
1886.75,1854
1887,1861
1887.25,1852
1887.5,1871
1887.75,1870
1888,1858
1888.25,1842
1888.5,1869
1888.75,1853
1889,1854
1889.25,1840
1889.5,1851
1889.75,1866
1890,1851
1890.25,1853
1890.5,1839
1890.75,1865
1891,1862
1891.25,1858
1891.5,1898
1891.75,1877
1892,1872
1892.25,1854
1892.5,1904
1892.75,1874
1893,1844
1893.25,1865
1893.5,1856
1893.75,1840
1894,1845
1894.25,1872
1894.5,1875
1894.75,1872
1895,1869
1895.25,1885
1895.5,1861
1895.75,1870
1896,1867
1896.25,1869
1896.5,1879
1896.75,1863
1897,1854
1897.25,1872
1897.5,1872
1897.75,1853
1898,1845
1898.25,1843
1898.5,1859
1898.75,1856
1899,1877
1899.25,1867
1899.5,1855
1899.75,1872
1900,1870
1900.25,1870
1900.5,1875
1900.75,1877
1901,1872
1901.25,1875
1901.5,1855
1901.75,1863
1902,1842
1902.25,1841
1902.5,1846
1902.75,1857
1903,1864
1903.25,1847
1903.5,1874
1903.75,1866
1904,1884
1904.25,1859
1904.5,1866
1904.75,1893
1905,1904
1905.25,1856
1905.5,1871
1905.75,1871
1906,1867
1906.25,1840
1906.5,1840
1906.75,1840
1907,1839
1907.25,1870
1907.5,1874
1907.75,1861
1908,1868
1908.25,1879
1908.5,1887
1908.75,1873
1909,1892
1909.25,1910
1909.5,1857
1909.75,1863
1910,1895
1910.25,1823
1910.5,1841
1910.75,1839
1911,1852
1911.25,1872
1911.5,1834
1911.75,1855
1912,1858
1912.25,1898
1912.5,1856
1912.75,1871
1913,1867
1913.25,1895
1913.5,1874
1913.75,1867
1914,1874
1914.25,1843
1914.5,1862
1914.75,1841
1915,1854
1915.25,1840
1915.5,1863
1915.75,1856
1916,1874
1916.25,1872
1916.5,1879
1916.75,1871
1917,1875
1917.25,1883
1917.5,1886
1917.75,1889
1918,1875
1918.25,1838
1918.5,1845
1918.75,1827
1919,1840
1919.25,1842
1919.5,1861
1919.75,1862
1920,1841
1920.25,1858
1920.5,1882
1920.75,1871
1921,1875
1921.25,1863
1921.5,1875
1921.75,1874
1922,1858
1922.25,1855
1922.5,1906
1922.75,1849
1923,1841
1923.25,1840
1923.5,1871
1923.75,1833
1924,1871
1924.25,1870
1924.5,1905
1924.75,1895
1925,1876
1925.25,1863
1925.5,1839
1925.75,1879
1926,1855
1926.25,1875
1926.5,1857
1926.75,1846
1927,1833
1927.25,1839
1927.5,1835
1927.75,1856
1928,1873
1928.25,1826
1928.5,1870
1928.75,1861
1929,1891
1929.25,1872
1929.5,1870
1929.75,1840
1930,1874
1930.25,1877
1930.5,1855
1930.75,1856
1931,1866
1931.25,1847
1931.5,1840
1931.75,1863
1932,1840
1932.25,1867
1932.5,1845
1932.75,1859
1933,1877
1933.25,1856
1933.5,1871
1933.75,1874
1934,1877
1934.25,1895
1934.5,1856
1934.75,1842
1935,1871
1935.25,1855
1935.5,1840
1935.75,1840
1936,1805
1936.25,1865
1936.5,1849
1936.75,1871
1937,1856
1937.25,1858
1937.5,1885
1937.75,1872
1938,1867
1938.25,1891
1938.5,1861
1938.75,1863
1939,1872
1939.25,1872
1939.5,1844
1939.75,1843
1940,1849
1940.25,1851
1940.5,1855
1940.75,1859
1941,1863
1941.25,1879
1941.5,1873
1941.75,1863
1942,1870
1942.25,1886
1942.5,1868
1942.75,1869
1943,1846
1943.25,1851
1943.5,1881
1943.75,1846
1944,1840
1944.25,1854
1944.5,1843
1944.75,1860
1945,1879
1945.25,1885
1945.5,1875
1945.75,1885
1946,1872
1946.25,1872
1946.5,1893
1946.75,1907
1947,1862
1947.25,1862
1947.5,1818
1947.75,1837
1948,1840
1948.25,1840
1948.5,1856
1948.75,1836
1949,1846
1949.25,1836
1949.5,1890
1949.75,1891
1950,1873
1950.25,1871
1950.5,1872
1950.75,1872
1951,1874
1951.25,1835
1951.5,1863
1951.75,1861
1952,1855
1952.25,1831
1952.5,1862
1952.75,1869
1953,1872
1953.25,1856
1953.5,1873
1953.75,1879
1954,1875
1954.25,1872
1954.5,1872
1954.75,1861
1955,1893
1955.25,1858
1955.5,1865
1955.75,1823
1956,1826
1956.25,1839
1956.5,1838
1956.75,1849
1957,1835
1957.25,1852
1957.5,1872
1957.75,1870
1958,1894
1958.25,1889
1958.5,1872
1958.75,1863
1959,1878
1959.25,1843
1959.5,1856
1959.75,1862
1960,1850
1960.25,1824
1960.5,1841
1960.75,1841
1961,1823
1961.25,1877
1961.5,1854
1961.75,1838
1962,1862
1962.25,1859
1962.5,1872
1962.75,1871
1963,1874
1963.25,1890
1963.5,1866
1963.75,1859
1964,1860
1964.25,1827
1964.5,1839
1964.75,1853
1965,1844
1965.25,1859
1965.5,1867
1965.75,1872
1966,1866
1966.25,1877
1966.5,1861
1966.75,1871
1967,1872
1967.25,1910
1967.5,1842
1967.75,1872
1968,1856
1968.25,1837
1968.5,1843
1968.75,1840
1969,1841
1969.25,1840
1969.5,1843
1969.75,1840
1970,1857
1970.25,1874
1970.5,1879
1970.75,1869
1971,1859
1971.25,1872
1971.5,1870
1971.75,1888
1972,1879
1972.25,1875
1972.5,1843
1972.75,1861
1973,1840
1973.25,1844
1973.5,1861
1973.75,1840
1974,466
1974.25,1857
1974.5,1915
1974.75,1965
1975,1939
1975.25,1946
1975.5,1936
1975.75,1944
1976,1887
1976.25,1885
1976.5,1886
1976.75,1936
1977,1981
1977.25,2002
1977.5,1971
1977.75,1936
1978,1936
1978.25,1902
1978.5,1840
1978.75,1826
1979,1790
1979.25,1762
1979.5,1757
1979.75,1765
1980,1769
1980.25,1776
1980.5,1777
1980.75,1798
1981,1821
1981.25,1825
1981.5,1823
1981.75,775
1982,1877
1982.25,1978
1982.5,1941
1982.75,1970
1983,1983
1983.25,1993
1983.5,1907
1983.75,1893
1984,1898
1984.25,1931
1984.5,2002
1984.75,2025
1985,2078
1985.25,2018
1985.5,1954
1985.75,1907
1986,1906
1986.25,1847
1986.5,1807
1986.75,1743
1987,1739
1987.25,1721
1987.5,1727
1987.75,1735
1988,1763
1988.25,1791
1988.5,1823
1988.75,1843
1989,1849
1989.25,1867
1989.5,1200
1989.75,1851
1990,1925
1990.25,1955
1990.5,2010
1990.75,1995
1991,2007
1991.25,1938
1991.5,1929
1991.75,1945
1992,2026
1992.25,2127
1992.5,2112
1992.75,2047
1993,2027
1993.25,1959
1993.5,1905
1993.75,1843
1994,1776
1994.25,1712
1994.5,1685
1994.75,1618
1995,1631
1995.25,1663
1995.5,1702
1995.75,1733
1996,1762
1996.25,1791
1996.5,1834
1996.75,1821
1997,1849
1997.25,1423
1997.5,1911
1997.75,1948
1998,1974
1998.25,2000
1998.5,2032
1998.75,2012
1999,1945
1999.25,1931
1999.5,1995
1999.75,2087
2000,2131
2000.25,2113
2000.5,2061
2000.75,2009
2001,1933
2001.25,1892
2001.5,1809
2001.75,1734
2002,1677
2002.25,1611
2002.5,1585
2002.75,1599
2003,1591
2003.25,1710
2003.5,1724
2003.75,1788
2004,1815
2004.25,1840
2004.5,1863
2004.75,1895
2005,1577
2005.25,1921
2005.5,1986
2005.75,2021
2006,2042
2006.25,2064
2006.5,2032
2006.75,1983
2007,1969
2007.25,2003
2007.5,2097
2007.75,2110
2008,2094
2008.25,2053
2008.5,1978
2008.75,1933
2009,1893
2009.25,1872
2009.5,1725
2009.75,1679
2010,1653
2010.25,1600
2010.5,1603
2010.75,1645
2011,1690
2011.25,1739
2011.5,1805
2011.75,1837
2012,1855
2012.25,1891
2012.5,1890
2012.75,1606
2013,1947
2013.25,2000
2013.5,2036
2013.75,2091
2014,2099
2014.25,2055
2014.5,1989
2014.75,1968
2015,2027
2015.25,2071
2015.5,2152
2015.75,2064
2016,2040
2016.25,1963
2016.5,1875
2016.75,1840
2017,1776
2017.25,1729
2017.5,1618
2017.75,1597
2018,1595
2018.25,1636
2018.5,1671
2018.75,1703
2019,1742
2019.25,1769
2019.5,1782
2019.75,1837
2020,1830
2020.25,1906
2020.5,1682
2020.75,1936
2021,2004
2021.25,2055
2021.5,2083
2021.75,2121
2022,2075
2022.25,2064
2022.5,2081
2022.75,2057
2023,2126
2023.25,2126
2023.5,2096
2023.75,1969
2024,1883
2024.25,1826
2024.5,1781
2024.75,1725
2025,1677
2025.25,1613
2025.5,1587
2025.75,1607
2026,1665
2026.25,1653
2026.5,1721
2026.75,1760
2027,1782
2027.25,1825
2027.5,1824
2027.75,1850
2028,1883
2028.25,1731
2028.5,1973
2028.75,2028
2029,2077
2029.25,2093
2029.5,2128
2029.75,2103
2030,2064
2030.25,2063
2030.5,2110
2030.75,2130
2031,2125
2031.25,2053
2031.5,1947
2031.75,1890
2032,1809
2032.25,1766
2032.5,1707
2032.75,1634
2033,1610
2033.25,1583
2033.5,1597
2033.75,1644
2034,1706
2034.25,1770
2034.5,1801
2034.75,1802
2035,1833
2035.25,1840
2035.5,1844
2035.75,1840
2036,1711
2036.25,1965
2036.5,1981
2036.75,2033
2037,2091
2037.25,2173
2037.5,2136
2037.75,2096
2038,2111
2038.25,2139
2038.5,2138
2038.75,2133
2039,2037
2039.25,1961
2039.5,1895
2039.75,1801
2040,1741
2040.25,1670
2040.5,1578
2040.75,1578
2041,1584
2041.25,1589
2041.5,1602
2041.75,1681
2042,1734
2042.25,1809
2042.5,1818
2042.75,1862
2043,1835
2043.25,1882
2043.5,1335
2043.75,1767
2044,1957
2044.25,1991
2044.5,2032
2044.75,2081
2045,2153
2045.25,2111
2045.5,2111
2045.75,2097
2046,2128
2046.25,2141
2046.5,2094
2046.75,2045
2047,1965
2047.25,1875
2047.5,1782
2047.75,1742
2048,1655
2048.25,1600
2048.5,1570
2048.75,1535
2049,1587
2049.25,1642
2049.5,1699
2049.75,1737
2050,1785
2050.25,1828
2050.5,1841
2050.75,1872
2051,1872
2051.25,688
2051.5,1790
2051.75,1968
2052,2010
2052.25,2035
2052.5,2096
2052.75,2156
2053,2160
2053.25,2111
2053.5,2098
2053.75,2111
2054,2081
2054.25,2055
2054.5,2000
2054.75,1951
2055,1917
2055.25,1795
2055.5,1758
2055.75,1698
2056,1630
2056.25,1584
2056.5,1582
2056.75,1583
2057,1630
2057.25,1714
2057.5,1758
2057.75,1761
2058,1826
2058.25,1858
2058.5,1888
2058.75,1889
2059,407
2059.25,1863
2059.5,1953
2059.75,1967
2060,2058
2060.25,2064
2060.5,2127
2060.75,2099
2061,2026
2061.25,2093
2061.5,2099
2061.75,2047
2062,2019
2062.25,2009
2062.5,1985
2062.75,1923
2063,1855
2063.25,1791
2063.5,1687
2063.75,1646
2064,1631
2064.25,1634
2064.5,1574
2064.75,1607
2065,1643
2065.25,1703
2065.5,1761
2065.75,1805
2066,1857
2066.25,1876
2066.5,1904
2066.75,400
2067,1840
2067.25,1969
2067.5,2027
2067.75,2085
2068,2131
2068.25,2169
2068.5,2112
2068.75,2066
2069,2039
2069.25,2062
2069.5,2024
2069.75,1998
2070,2018
2070.25,1994
2070.5,1972
2070.75,1883
2071,1803
2071.25,1749
2071.5,1690
2071.75,1642
2072,1601
2072.25,1566
2072.5,1625
2072.75,1652
2073,1712
2073.25,1744
2073.5,1791
2073.75,1808
2074,1863
2074.25,1875
2074.5,799
2074.75,1881
2075,2000
2075.25,2011
2075.5,2064
2075.75,2101
2076,2179
2076.25,2128
2076.5,2074
2076.75,2039
2077,2046
2077.25,1994
2077.5,1983
2077.75,1989
2078,2000
2078.25,1953
2078.5,1907
2078.75,1818
2079,1741
2079.25,1693
2079.5,1651
2079.75,1627
2080,1635
2080.25,1661
2080.5,1722
2080.75,1706
2081,1744
2081.25,1765
2081.5,1804
2081.75,1840
2082,1865
2082.25,1125
2082.5,1866
2082.75,1973
2083,2026
2083.25,2077
2083.5,2107
2083.75,2143
2084,2132
2084.25,2081
2084.5,2081
2084.75,2033
2085,2010
2085.25,1983
2085.5,1975
2085.75,1967
2086,1963
2086.25,1850
2086.5,1799
2086.75,1731
2087,1695
2087.25,1684
2087.5,1658
2087.75,1675
2088,1648
2088.25,1679
2088.5,1719
2088.75,1749
2089,1788
2089.25,1802
2089.5,1854
2089.75,1841
2090,1241
2090.25,1872
2090.5,2018
2090.75,2031
2091,2041
2091.25,2103
2091.5,2138
2091.75,2115
2092,2086
2092.25,2093
2092.5,2077
2092.75,2009
2093,1971
2093.25,2018
2093.5,1984
2093.75,1941
2094,1893
2094.25,1820
2094.5,1737
2094.75,1713
2095,1675
2095.25,1658
2095.5,1653
2095.75,1671
2096,1680
2096.25,1712
2096.5,1776
2096.75,1809
2097,1809
2097.25,1846
2097.5,1855
2097.75,1394
2098,1882
2098.25,1974
2098.5,1974
2098.75,2066
2099,2155
2099.25,2155
2099.5,2105
2099.75,2081
2100,2069
2100.25,2033
2100.5,2000
2100.75,1991
2101,2021
2101.25,2004
2101.5,1965
2101.75,1879
2102,1777
2102.25,1738
2102.5,1691
2102.75,1689
2103,1654
2103.25,1618
2103.5,1694
2103.75,1685
2104,1729
2104.25,1762
2104.5,1792
2104.75,1850
2105,1842
2105.25,1874
2105.5,1488
2105.75,1901
2106,2022
2106.25,2005
2106.5,2071
2106.75,2128
2107,2149
2107.25,2084
2107.5,2042
2107.75,2039
2108,2002
2108.25,2007
2108.5,1997
2108.75,2011
2109,2055
2109.25,1998
2109.5,1918
2109.75,1840
2110,1777
2110.25,1702
2110.5,1658
2110.75,1632
2111,1637
2111.25,1664
2111.5,1666
2111.75,1728
2112,1748
2112.25,1781
2112.5,1825
2112.75,1857
2113,1853
2113.25,1598
2113.5,1911
2113.75,2021
2114,2041
2114.25,2037
2114.5,2139
2114.75,2123
2115,2043
2115.25,2046
2115.5,2062
2115.75,1995
2116,1949
2116.25,2000
2116.5,2022
2116.75,2007
2117,1979
2117.25,1935
2117.5,1866
2117.75,1804
2118,1733
2118.25,1682
2118.5,1615
2118.75,1642
2119,1622
2119.25,1673
2119.5,1681
2119.75,1738
2120,1765
2120.25,1819
2120.5,1823
2120.75,1849
2121,1639
2121.25,1939
2121.5,1975
2121.75,2042
2122,2066
2122.25,2160
2122.5,2131
2122.75,2078
2123,2026
2123.25,2005
2123.5,1979
2123.75,1941
2124,1985
2124.25,2006
2124.5,2023
2124.75,1985
2125,1931
2125.25,1862
2125.5,1802
2125.75,1754
2126,1677
2126.25,1677
2126.5,1656
2126.75,1655
2127,1655
2127.25,1693
2127.5,1723
2127.75,1746
2128,1808
2128.25,1825
2128.5,1854
2128.75,1856
2129,1926
2129.25,1887
2129.5,1893
2129.75,1898
2130,1906
2130.25,1921
2130.5,1899
2130.75,1927
2131,1895
2131.25,1872
2131.5,1872
2131.75,1861
2132,1901
2132.25,1913
2132.5,1923
2132.75,1869
2133,1875
2133.25,1870
2133.5,1886
2133.75,1882
2134,1887
2134.25,1894
2134.5,1866
2134.75,1878
2135,1855
2135.25,1845
2135.5,1852
2135.75,1841
2136,1830
2136.25,1852
2136.5,1850
2136.75,1873
2137,1874
2137.25,1847
2137.5,1872
2137.75,1857
2138,1863
2138.25,1877
2138.5,1887
2138.75,1890
2139,1857
2139.25,1843
2139.5,1829
2139.75,1839
2140,1841
2140.25,1881
2140.5,1879
2140.75,1872
2141,1883
2141.25,1874
2141.5,1872
2141.75,1878
2142,1872
2142.25,1855
2142.5,1869
2142.75,1877
2143,1856
2143.25,1869
2143.5,1827
2143.75,1845
2144,1826
2144.25,1839
2144.5,1860
2144.75,1861
2145,1862
2145.25,1887
2145.5,1869
2145.75,1864
2146,1865
2146.25,1868
2146.5,1903
2146.75,1904
2147,1863
2147.25,1864
2147.5,1837
2147.75,1817
2148,1839
2148.25,1844
2148.5,1877
2148.75,1839
2149,1858
2149.25,1879
2149.5,1877
2149.75,1877
2150,1872
2150.25,1869
2150.5,1854
2150.75,1870
2151,1852
2151.25,1872
2151.5,1866
2151.75,1877
2152,1840
2152.25,1840
2152.5,1829
2152.75,1850
2153,1834
2153.25,1866
2153.5,1855
2153.75,1867
2154,1911
2154.25,1872
2154.5,1872
2154.75,1860
2155,1872
2155.25,1872
2155.5,1827
2155.75,1866
2156,1874
2156.25,1856
2156.5,1829
2156.75,1853
2157,1840
2157.25,1853
2157.5,1866
2157.75,1856
2158,1886
2158.25,1856
2158.5,1865
2158.75,1867
2159,1854
2159.25,1859
2159.5,1872
2159.75,1854
2160,1853
2160.25,1839
2160.5,1846
2160.75,1847
2161,1841
2161.25,1833
2161.5,1858
2161.75,1883
2162,1835
2162.25,1871
2162.5,1881
2162.75,1882
2163,1862
2163.25,1878
2163.5,1869
2163.75,1886
2164,1851
2164.25,1850
2164.5,1875
2164.75,1839
2165,1841
2165.25,1861
2165.5,1873
2165.75,1861
2166,1851
2166.25,1850
2166.5,1867
2166.75,1872
2167,1872
2167.25,1893
2167.5,1872
2167.75,1885
2168,1881
2168.25,1852
2168.5,1839
2168.75,1840
2169,1839
2169.25,1839
2169.5,1857
2169.75,1858
2170,1866
2170.25,1872
2170.5,1873
2170.75,1882
2171,1879
2171.25,1872
2171.5,1898
2171.75,1899
2172,1878
2172.25,1844
2172.5,1866
2172.75,1863
2173,1840
2173.25,1836
2173.5,1818
2173.75,1843
2174,1891
2174.25,1879
2174.5,1893
2174.75,1897
2175,1851
2175.25,1872
2175.5,1875
2175.75,1863
2176,1889
2176.25,1872
2176.5,1879
2176.75,1838
2177,1853
2177.25,1855
2177.5,1841
2177.75,1855
2178,1873
2178.25,1842
2178.5,1878
2178.75,1875
2179,1916
2179.25,1873
2179.5,1872
2179.75,1872
2180,1859
2180.25,1891
2180.5,1861
2180.75,1840
2181,1832
2181.25,1843
2181.5,1842
2181.75,1854
2182,1827
2182.25,1841
2182.5,1862
2182.75,1898
2183,1872
2183.25,1866
2183.5,1867
2183.75,1869
2184,1898
2184.25,1863
2184.5,1880
2184.75,1869
2185,1874
2185.25,1840
2185.5,1842
2185.75,1845
2186,1842
2186.25,1814
2186.5,1825
2186.75,1874
2187,1867
2187.25,1862
2187.5,1863
2187.75,1875
2188,1857
2188.25,1878
2188.5,1895
2188.75,1859
2189,1872
2189.25,1840
2189.5,1840
2189.75,1839
2190,1840
2190.25,1859
2190.5,1890
2190.75,1851
2191,1887
2191.25,1879
2191.5,1857
2191.75,1878
2192,1872
2192.25,1898
2192.5,1893
2192.75,1896
2193,1879
2193.25,1872
2193.5,1913
2193.75,1842
2194,1846
2194.25,1840
2194.5,1845
2194.75,1893
2195,1872
2195.25,1882
2195.5,1872
2195.75,1869
2196,1856
2196.25,1871
2196.5,1875
2196.75,1869
2197,1886
2197.25,1860
2197.5,1851
2197.75,1890
2198,1858
2198.25,1838
2198.5,1849
2198.75,1828
2199,1861
2199.25,1862
2199.5,1870
2199.75,1875
2200,1882
2200.25,1872
2200.5,1859
2200.75,1892
2201,1905
2201.25,1874
2201.5,1869
2201.75,1855
2202,1838
2202.25,1838
2202.5,1843
2202.75,1840
2203,1860
2203.25,1874
2203.5,1879
2203.75,1875
2204,1872
2204.25,1867
2204.5,1859
2204.75,1858
2205,1857
2205.25,1920
2205.5,1857
2205.75,1854
2206,1871
2206.25,1850
2206.5,1829
2206.75,1849
2207,1846
2207.25,1879
2207.5,1862
2207.75,1907
2208,1901
2208.25,1872
2208.5,1878
2208.75,1870
2209,1860
2209.25,1856
2209.5,1885
2209.75,1870
2210,1871
2210.25,1860
2210.5,1840
2210.75,1826
2211,1840
2211.25,1853
2211.5,1864
2211.75,1870
2212,1859
2212.25,1876
2212.5,1855
2212.75,1872
2213,1867
2213.25,1873
2213.5,1856
2213.75,1845
2214,1856
2214.25,1870
2214.5,1840
2214.75,1841
2215,1847
2215.25,1884
2215.5,1857
2215.75,1854
2216,1883
2216.25,1870
2216.5,1878
2216.75,1883
2217,1873
2217.25,1877
2217.5,1887
2217.75,1854
2218,1860
2218.25,1868
2218.5,1834
2218.75,1846
2219,1841
2219.25,1840
2219.5,1858
2219.75,1875
2220,1863
2220.25,1880
2220.5,1872
2220.75,1893
2221,1875
2221.25,1867
2221.5,1862
2221.75,1867
2222,1869
2222.25,1842
2222.5,1871
2222.75,1872
2223,1856
2223.25,1831
2223.5,1838
2223.75,1846
2224,1872
2224.25,1868
2224.5,1865
2224.75,1872
2225,1895
2225.25,1871
2225.5,1872
2225.75,1845
2226,1873
2226.25,1869
2226.5,1859
2226.75,1829
2227,1856
2227.25,1839
2227.5,1831
2227.75,1854
2228,1840
2228.25,1853
2228.5,1871
2228.75,1858
2229,1866
2229.25,1863
2229.5,1866
2229.75,1890
2230,1870
2230.25,1843
2230.5,1872
2230.75,1865
2231,1815
2231.25,1846
2231.5,1850
2231.75,1839
2232,1849
2232.25,1863
2232.5,1857
2232.75,1895
2233,1883
2233.25,1897
2233.5,1863
2233.75,1863
2234,1859
2234.25,1871
2234.5,1887
2234.75,1882
2235,1840
2235.25,1853
2235.5,1847
2235.75,1841
2236,1846
2236.25,1835
2236.5,1867
2236.75,1869
2237,1884
2237.25,1882
2237.5,1873
2237.75,1872
2238,1872
2238.25,1879
2238.5,1869
2238.75,1869
2239,1865
2239.25,1830
2239.5,1840
2239.75,1839
2240,1841
2240.25,1843
2240.5,1833
2240.75,1857
2241,1872
2241.25,1859
2241.5,1871
2241.75,1874
2242,1872
2242.25,1872
2242.5,1879
2242.75,1897
2243,1901
2243.25,1868
2243.5,1856
2243.75,1845
2244,1847
2244.25,1858
2244.5,1850
2244.75,1855
2245,1855
2245.25,1891
2245.5,1881
2245.75,1886
2246,1872
2246.25,1873
2246.5,1877
2246.75,1883
2247,1901
2247.25,1856
2247.5,1872
2247.75,1858
2248,1839
2248.25,1839
2248.5,1842
2248.75,1836
2249,1830
2249.25,1866
2249.5,1855
2249.75,1853
2250,1885
2250.25,1859
2250.5,1858
2250.75,1860
2251,1887
2251.25,1898
2251.5,1876
2251.75,1886
2252,1868
2252.25,1840
2252.5,1841
2252.75,1854
2253,1817
2253.25,1867
2253.5,1904
2253.75,1866
2254,1889
2254.25,1882
2254.5,1857
2254.75,1867
2255,1868
2255.25,1861
2255.5,1866
2255.75,1855
2256,1872
2256.25,1825
2256.5,1842
2256.75,1835
2257,1831
2257.25,1865
2257.5,1856
2257.75,1872
2258,1882
2258.25,1861
2258.5,1872
2258.75,1863
2259,1866
2259.25,1890
2259.5,1884
2259.75,1875
2260,1853
2260.25,1861
2260.5,1857
2260.75,1840
2261,1844
2261.25,1872
2261.5,1843
2261.75,1865
2262,1885
2262.25,1870
2262.5,1861
2262.75,1861
2263,1859
2263.25,1862
2263.5,1847
2263.75,1858
2264,1859
2264.25,1870
2264.5,1904
2264.75,1843
2265,1847
2265.25,1838
2265.5,1841
2265.75,1842
2266,1840
2266.25,1840
2266.5,1851
2266.75,1872
2267,1873
2267.25,1882
2267.5,1872
2267.75,1890
2268,1858
2268.25,1850
2268.5,1836
2268.75,1847
2269,1847
2269.25,1843
2269.5,1849
2269.75,1847
2270,1857
2270.25,1883
2270.5,1857
2270.75,1845
2271,1859
2271.25,1875
2271.5,1846
2271.75,1890
2272,1872
2272.25,1872
2272.5,1865
2272.75,1840
2273,1856
2273.25,1857
2273.5,1858
2273.75,1839
2274,1858
2274.25,1863
2274.5,1871
2274.75,1904
2275,1902
2275.25,1871
2275.5,1878
2275.75,1878
2276,1878
2276.25,1861
2276.5,1855
2276.75,1860
2277,1877
2277.25,1851
2277.5,1842
2277.75,1819
2278,1824
2278.25,1868
2278.5,1839
2278.75,1871
2279,1891
2279.25,1865
2279.5,1874
2279.75,1852
2280,1877
2280.25,1872
2280.5,1857
2280.75,1855
2281,1856
2281.25,1849
2281.5,1839
2281.75,1845
2282,1868
2282.25,1877
2282.5,1839
2282.75,1840
2283,1887
2283.25,1871
2283.5,1874
2283.75,1872
2284,1872
2284.25,1879
2284.5,1907
2284.75,1857
2285,1872
2285.25,1883
2285.5,1840
2285.75,1840
2286,1815
2286.25,1844
2286.5,1877
2286.75,1863
2287,1871
2287.25,1882
2287.5,1879
2287.75,1863
2288,1873
2288.25,1868
2288.5,1841
2288.75,1873
2289,1872
2289.25,1846
2289.5,1830
2289.75,1842
2290,1846
2290.25,1853
2290.5,1875
2290.75,1856
2291,1873
2291.25,1885
2291.5,1862
2291.75,1870
2292,1875
2292.25,1889
2292.5,1875
2292.75,1891
2293,1838
2293.25,1861
2293.5,1815
2293.75,1840
2294,1837
2294.25,1841
2294.5,1862
2294.75,1870
2295,1858
2295.25,1829
2295.5,1872
2295.75,1863
2296,1875
2296.25,1873
2296.5,1865
2296.75,1887
2297,1871
2297.25,1856
2297.5,1847
2297.75,1842
2298,1847
2298.25,1840
2298.5,1847
2298.75,1823
2299,1853
2299.25,1890
2299.5,1889
2299.75,1862
2300,1843
2300.25,1869
2300.5,1862
2300.75,1879
2301,1858
2301.25,1882
2301.5,1856
2301.75,1856
2302,1841
2302.25,1840
2302.5,1833
2302.75,1878
2303,1842
2303.25,1872
2303.5,1859
2303.75,1863
2304,1857
2304.25,1870
2304.5,1854
2304.75,1882
2305,1895
2305.25,1867
2305.5,1873
2305.75,1865
2306,1853
2306.25,1855
2306.5,1844
2306.75,1840
2307,1869
2307.25,1858
2307.5,1872
2307.75,1870
2308,1877
2308.25,1857
2308.5,1871
2308.75,1863
2309,1851
2309.25,1872
2309.5,1909
2309.75,1872
2310,1856
2310.25,1837
2310.5,1853
2310.75,1829
2311,1830
2311.25,1853
2311.5,1859
2311.75,1854
2312,1856
2312.25,1874
2312.5,1870
2312.75,1872
2313,1885
2313.25,1931
2313.5,1902
2313.75,1874
2314,1855
2314.25,1872
2314.5,1858
2314.75,1843
2315,1840
2315.25,1840
2315.5,1837
2315.75,1857
2316,1851
2316.25,1862
2316.5,1867
2316.75,1867
2317,1871
2317.25,1857
2317.5,1881
2317.75,1866
2318,1858
2318.25,1885
2318.5,1840
2318.75,1840
2319,1831
2319.25,1837
2319.5,1900
2319.75,1843
2320,1881
2320.25,1871
2320.5,1891
2320.75,1869
2321,1872
2321.25,1872
2321.5,1904
2321.75,1890
2322,1867
2322.25,1878
2322.5,1867
2322.75,1865
2323,1854
2323.25,1851
2323.5,1836
2323.75,1851
2324,1822
2324.25,1860
2324.5,1830
2324.75,1892
2325,1890
2325.25,1916
2325.5,1923
2325.75,1946
2326,1899
2326.25,1827
2326.5,1824
2326.75,1840
2327,1830
2327.25,1839
2327.5,1840
2327.75,1842
2328,1819
2328.25,1855
2328.5,1869
2328.75,1873
2329,1895
2329.25,1861
2329.5,1847
2329.75,1865
2330,1872
2330.25,1873
2330.5,1842
2330.75,1841
2331,1856
2331.25,1843
2331.5,1847
2331.75,1846
2332,1819
2332.25,1842
2332.5,1859
2332.75,1892
2333,1925
2333.25,1877
2333.5,1875
2333.75,1866
2334,1860
2334.25,1889
2334.5,1902
2334.75,1882
2335,1865
2335.25,1837
2335.5,1851
2335.75,1846
2336,1842
2336.25,1837
2336.5,1857
2336.75,1844
2337,1840
2337.25,1897
2337.5,1883
2337.75,1865
2338,1867
2338.25,1911
2338.5,1867
2338.75,1859
2339,1849
2339.25,1851
2339.5,1866
2339.75,1853
2340,1840
2340.25,1872
2340.5,1854
2340.75,1887
2341,1873
2341.25,1847
2341.5,1879
2341.75,1889
2342,1878
2342.25,1873
2342.5,1874
2342.75,1888
2343,1872
2343.25,1841
2343.5,1814
2343.75,1854
2344,1842
2344.25,1850
2344.5,1845
2344.75,1867
2345,1858
2345.25,1872
2345.5,1887
2345.75,1875
2346,1862
2346.25,1857
2346.5,1862
2346.75,1862
2347,1872
2347.25,1872
2347.5,1866
2347.75,1853
2348,1872
2348.25,1842
2348.5,1843
2348.75,1837
2349,1852
2349.25,1869
2349.5,1859
2349.75,1859
2350,1883
2350.25,1867
2350.5,1874
2350.75,1858
2351,1895
2351.25,1871
2351.5,1872
2351.75,1876
2352,1837
2352.25,1845
2352.5,1840
2352.75,1867
2353,1869
2353.25,1863
2353.5,1850
2353.75,1873
2354,1890
2354.25,1871
2354.5,1856
2354.75,1863
2355,1876
2355.25,1882
2355.5,1877
2355.75,1857
2356,1871
2356.25,1855
2356.5,1840
2356.75,1841
2357,1870
2357.25,1840
2357.5,1863
2357.75,1846
2358,1862
2358.25,1882
2358.5,1876
2358.75,1870
2359,1862
2359.25,1873
2359.5,1858
2359.75,1857
2360,1840
2360.25,1846
2360.5,1843
2360.75,1831
2361,1835
2361.25,1857
2361.5,1883
2361.75,1847
2362,1869
2362.25,1877
2362.5,1838
2362.75,1869
2363,1870
2363.25,1890
2363.5,1871
2363.75,1872
2364,1888
2364.25,1871
2364.5,1840
2364.75,1839
2365,1840
2365.25,1845
2365.5,1851
2365.75,1829
2366,1851
2366.25,1865
2366.5,1867
2366.75,1872
2367,1874
2367.25,1852
2367.5,1879
2367.75,1881
2368,1879
2368.25,1877
2368.5,1861
2368.75,1886
2369,1827
2369.25,1833
2369.5,1853
2369.75,1835
2370,1873
2370.25,1857
2370.5,1877
2370.75,1904
2371,1866
2371.25,1867
2371.5,1873
2371.75,1878
2372,1866
2372.25,1886
2372.5,1863
2372.75,1840
2373,1851
2373.25,1835
2373.5,1839
2373.75,1856
2374,1868
2374.25,1878
2374.5,1903
2374.75,1851
2375,1875
2375.25,1868
2375.5,1863
2375.75,1734
2376,1712
2376.25,1927
2376.5,1965
2376.75,1984
2377,1969
2377.25,1959
2377.5,1920
2377.75,1840
2378,1792
2378.25,1808
2378.5,1904
2378.75,1951
2379,2013
2379.25,1999
2379.5,1968
2379.75,1929
2380,1927
2380.25,1917
2380.5,1859
2380.75,1840
2381,1798
2381.25,1755
2381.5,1764
2381.75,1776
2382,1815
2382.25,1815
2382.5,1815
2382.75,1813
2383,1854
2383.25,1838
2383.5,1142
2383.75,1778
2384,1935
2384.25,1973
2384.5,1963
2384.75,1991
2385,2006
2385.25,1923
2385.5,1815
2385.75,1810
2386,1847
2386.25,1966
2386.5,2013
2386.75,2019
2387,1990
2387.25,1957
2387.5,1910
2387.75,1904
2388,1873
2388.25,1877
2388.5,1855
2388.75,1827
2389,1786
2389.25,1792
2389.5,1771
2389.75,1773
2390,1778
2390.25,1787
2390.5,1814
2390.75,1821
2391,1841
2391.25,496
2391.5,1796
2391.75,1955
2392,1975
2392.25,1979
2392.5,2005
2392.75,1991
2393,1959
2393.25,1901
2393.5,1864
2393.75,1882
2394,1991
2394.25,2026
2394.5,2023
2394.75,2012
2395,1983
2395.25,1966
2395.5,1918
2395.75,1885
2396,1835
2396.25,1786
2396.5,1745
2396.75,1717
2397,1729
2397.25,1679
2397.5,1711
2397.75,1737
2398,1763
2398.25,1779
2398.5,1783
2398.75,1842
2399,337
2399.25,1810
2399.5,1981
2399.75,1946
2400,2008
2400.25,2007
2400.5,2027
2400.75,1978
2401,1941
2401.25,1971
2401.5,2005
2401.75,2061
2402,2096
2402.25,2064
2402.5,2011
2402.75,1968
2403,1912
2403.25,1858
2403.5,1825
2403.75,1761
2404,1710
2404.25,1658
2404.5,1657
2404.75,1675
2405,1701
2405.25,1729
2405.5,1744
2405.75,1777
2406,1794
2406.25,1822
2406.5,1821
2406.75,395
2407,1826
2407.25,1984
2407.5,2014
2407.75,2013
2408,2043
2408.25,2081
2408.5,2006
2408.75,1974
2409,1967
2409.25,2074
2409.5,2094
2409.75,2102
2410,2078
2410.25,1996
2410.5,1926
2410.75,1899
2411,1856
2411.25,1777
2411.5,1712
2411.75,1683
2412,1653
2412.25,1649
2412.5,1662
2412.75,1704
2413,1738
2413.25,1775
2413.5,1816
2413.75,1829
2414,1850
2414.25,1840
2414.5,849
2414.75,1845
2415,1973
2415.25,1987
2415.5,2064
2415.75,2081
2416,2091
2416.25,2058
2416.5,2006
2416.75,2005
2417,2036
2417.25,2086
2417.5,2113
2417.75,2059
2418,2009
2418.25,1949
2418.5,1858
2418.75,1755
2419,1693
2419.25,1658
2419.5,1586
2419.75,1611
2420,1639
2420.25,1655
2420.5,1708
2420.75,1776
2421,1808
2421.25,1817
2421.5,1854
2421.75,1897
2422,1893
2422.25,1168
2422.5,1915
2422.75,2004
2423,2039
2423.25,2047
2423.5,2070
2423.75,2081
2424,1999
2424.25,1983
2424.5,2032
2424.75,2084
2425,2113
2425.25,2096
2425.5,2059
2425.75,1985
2426,1923
2426.25,1846
2426.5,1758
2426.75,1708
2427,1673
2427.25,1618
2427.5,1607
2427.75,1648
2428,1662
2428.25,1673
2428.5,1742
2428.75,1788
2429,1813
2429.25,1855
2429.5,1856
2429.75,1863
2430,1389
2430.25,1925
2430.5,2031
2430.75,2083
2431,2047
2431.25,2094
2431.5,2094
2431.75,1986
2432,1984
2432.25,2057
2432.5,2045
2432.75,2087
2433,2096
2433.25,2003
2433.5,1968
2433.75,1917
2434,1881
2434.25,1808
2434.5,1742
2434.75,1616
2435,1633
2435.25,1627
2435.5,1641
2435.75,1648
2436,1687
2436.25,1744
2436.5,1806
2436.75,1814
2437,1857
2437.25,1855
2437.5,1887
2437.75,1475
2438,1938
2438.25,2064
2438.5,2087
2438.75,2112
2439,2127
2439.25,2095
2439.5,1979
2439.75,1952
2440,1970
2440.25,2047
2440.5,2064
2440.75,2032
2441,1990
2441.25,1947
2441.5,1892
2441.75,1853
2442,1807
2442.25,1761
2442.5,1725
2442.75,1702
2443,1655
2443.25,1675
2443.5,1694
2443.75,1694
2444,1712
2444.25,1755
2444.5,1810
2444.75,1840
2445,1845
2445.25,1863
2445.5,1519
2445.75,1945
2446,2039
2446.25,2091
2446.5,2128
2446.75,2166
2447,2116
2447.25,2017
2447.5,2014
2447.75,2015
2448,2034
2448.25,2042
2448.5,2009
2448.75,1962
2449,1951
2449.25,1865
2449.5,1823
2449.75,1738
2450,1727
2450.25,1663
2450.5,1643
2450.75,1648
2451,1664
2451.25,1671
2451.5,1733
2451.75,1759
2452,1771
2452.25,1792
2452.5,1811
2452.75,1851
2453,1875
2453.25,1584
2453.5,1958
2453.75,2034
2454,2114
2454.25,2135
2454.5,2187
2454.75,2127
2455,2055
2455.25,2002
2455.5,2072
2455.75,2069
2456,2046
2456.25,2010
2456.5,1957
2456.75,1921
2457,1863
2457.25,1823
2457.5,1741
2457.75,1702
2458,1670
2458.25,1631
2458.5,1623
2458.75,1638
2459,1659
2459.25,1721
2459.5,1764
2459.75,1757
2460,1825
2460.25,1841
2460.5,1845
2460.75,1847
2461,1492
2461.25,1940
2461.5,2047
2461.75,2122
2462,2144
2462.25,2166
2462.5,2160
2462.75,2059
2463,2062
2463.25,2117
2463.5,2100
2463.75,2069
2464,2001
2464.25,2006
2464.5,1909
2464.75,1867
2465,1799
2465.25,1741
2465.5,1676
2465.75,1659
2466,1633
2466.25,1600
2466.5,1671
2466.75,1648
2467,1712
2467.25,1763
2467.5,1798
2467.75,1805
2468,1839
2468.25,1840
2468.5,1507
2468.75,1625
2469,1949
2469.25,2043
2469.5,2096
2469.75,2122
2470,2181
2470.25,2091
2470.5,2031
2470.75,2091
2471,2083
2471.25,2103
2471.5,2043
2471.75,2006
2472,1968
2472.25,1955
2472.5,1878
2472.75,1817
2473,1743
2473.25,1686
2473.5,1649
2473.75,1626
2474,1611
2474.25,1639
2474.5,1685
2474.75,1722
2475,1767
2475.25,1801
2475.5,1821
2475.75,1872
2476,1862
2476.25,814
2476.5,1677
2476.75,1998
2477,2064
2477.25,2082
2477.5,2107
2477.75,2153
2478,2085
2478.25,2063
2478.5,2067
2478.75,2091
2479,2043
2479.25,2063
2479.5,1984
2479.75,1970
2480,1939
2480.25,1889
2480.5,1834
2480.75,1729
2481,1713
2481.25,1650
2481.5,1603
2481.75,1610
2482,1626
2482.25,1661
2482.5,1707
2482.75,1731
2483,1792
2483.25,1823
2483.5,1870
2483.75,1876
2484,370
2484.25,1724
2484.5,2009
2484.75,2086
2485,2122
2485.25,2134
2485.5,2143
2485.75,2069
2486,2039
2486.25,2065
2486.5,2067
2486.75,2039
2487,1991
2487.25,1950
2487.5,1963
2487.75,1938
2488,1897
2488.25,1837
2488.5,1760
2488.75,1699
2489,1694
2489.25,1649
2489.5,1594
2489.75,1643
2490,1667
2490.25,1675
2490.5,1734
2490.75,1789
2491,1778
2491.25,1826
2491.5,1855
2491.75,323
2492,1808
2492.25,2017
2492.5,2092
2492.75,2128
2493,2143
2493.25,2181
2493.5,2061
2493.75,2028
2494,2033
2494.25,2053
2494.5,1988
2494.75,1921
2495,1947
2495.25,1968
2495.5,1979
2495.75,1901
2496,1830
2496.25,1777
2496.5,1733
2496.75,1683
2497,1645
2497.25,1633
2497.5,1655
2497.75,1664
2498,1711
2498.25,1719
2498.5,1757
2498.75,1789
2499,1842
2499.25,1869
2499.5,496
2499.75,1761
2500,2031
2500.25,2096
2500.5,2117
2500.75,2155
2501,2162
2501.25,2093
2501.5,2042
2501.75,2096
2502,2063
2502.25,1978
2502.5,1941
2502.75,1952
2503,1940
2503.25,1982
2503.5,1903
2503.75,1867
2504,1813
2504.25,1741
2504.5,1697
2504.75,1665
2505,1682
2505.25,1654
2505.5,1697
2505.75,1723
2506,1759
2506.25,1738
2506.5,1788
2506.75,1813
2507,1841
2507.25,954
2507.5,1815
2507.75,2023
2508,2082
2508.25,2124
2508.5,2166
2508.75,2167
2509,2077
2509.25,2084
2509.5,2123
2509.75,2065
2510,1983
2510.25,1950
2510.5,1971
2510.75,1933
2511,1923
2511.25,1910
2511.5,1865
2511.75,1791
2512,1712
2512.25,1705
2512.5,1675
2512.75,1674
2513,1680
2513.25,1704
2513.5,1752
2513.75,1727
2514,1761
2514.25,1774
2514.5,1795
2514.75,1837
2515,1151
2515.25,1873
2515.5,1983
2515.75,2103
2516,2095
2516.25,2174
2516.5,2142
2516.75,2064
2517,2069
2517.25,2079
2517.5,2054
2517.75,1995
2518,1968
2518.25,1968
2518.5,1951
2518.75,1898
2519,1883
2519.25,1826
2519.5,1773
2519.75,1737
2520,1691
2520.25,1680
2520.5,1649
2520.75,1689
2521,1703
2521.25,1715
2521.5,1744
2521.75,1781
2522,1808
2522.25,1825
2522.5,1855
2522.75,1395
2523,1904
2523.25,1989
2523.5,2032
2523.75,2096
2524,2149
2524.25,2087
2524.5,2042
2524.75,2032
2525,2081
2525.25,2025
2525.5,1963
2525.75,1952
2526,1969
2526.25,1968
2526.5,1938
2526.75,1899
2527,1850
2527.25,1776
2527.5,1718
2527.75,1682
2528,1680
2528.25,1662
2528.5,1715
2528.75,1719
2529,1738
2529.25,1755
2529.5,1779
2529.75,1802
2530,1865
2530.25,1878
2530.5,1847
2530.75,1845
2531,1839
2531.25,1908
2531.5,1872
2531.75,1872
2532,1875
2532.25,1895
2532.5,1878
2532.75,1887
2533,1904
2533.25,1894
2533.5,1907
2533.75,1900
2534,1904
2534.25,1905
2534.5,1909
2534.75,1893
2535,1871
2535.25,1875
2535.5,1859
2535.75,1865
2536,1856
2536.25,1891
2536.5,1859
2536.75,1870
2537,1872
2537.25,1893
2537.5,1883
2537.75,1877
2538,1872
2538.25,1898
2538.5,1867
2538.75,1858
2539,1850
2539.25,1867
2539.5,1856
2539.75,1846
2540,1845
2540.25,1851
2540.5,1840
2540.75,1861
2541,1871
2541.25,1866
2541.5,1867
2541.75,1861
2542,1871
2542.25,1877
2542.5,1875
2542.75,1881
2543,1873
2543.25,1872
2543.5,1872
2543.75,1852
2544,1843
2544.25,1850
2544.5,1849
2544.75,1846
2545,1862
2545.25,1857
2545.5,1855
2545.75,1882
2546,1874
2546.25,1862
2546.5,1862
2546.75,1867
2547,1883
2547.25,1870
2547.5,1856
2547.75,1895
2548,1851
2548.25,1843
2548.5,1840
2548.75,1842
2549,1859
2549.25,1849
2549.5,1853
2549.75,1862
2550,1887
2550.25,1872
2550.5,1873
2550.75,1873
2551,1887
2551.25,1914
2551.5,1840
2551.75,1856
2552,1855
2552.25,1854
2552.5,1854
2552.75,1841
2553,1872
2553.25,1859
2553.5,1854
2553.75,1883
2554,1840
2554.25,1902
2554.5,1878
2554.75,1872
2555,1880
2555.25,1886
2555.5,1853
2555.75,1846
2556,1867
2556.25,1853
2556.5,1839
2556.75,1837
2557,1838
2557.25,1856
2557.5,1856
2557.75,1851
2558,1876
2558.25,1873
2558.5,1886
2558.75,1872
2559,1865
2559.25,1877
2559.5,1871
2559.75,1863
2560,1863
2560.25,1876
2560.5,1834
2560.75,1849
2561,1839
2561.25,1808
2561.5,1865
2561.75,1853
2562,1872
2562.25,1872
2562.5,1866
2562.75,1876
2563,1877
2563.25,1875
2563.5,1859
2563.75,1840
2564,1858
2564.25,1811
2564.5,1863
2564.75,1843
2565,1840
2565.25,1843
2565.5,1844
2565.75,1856
2566,1857
2566.25,1866
2566.5,1878
2566.75,1872
2567,1863
2567.25,1870
2567.5,1884
2567.75,1907
2568,1863
2568.25,1866
2568.5,1856
2568.75,1857
2569,1845
2569.25,1841
2569.5,1831
2569.75,1877
2570,1862
2570.25,1871
2570.5,1872
2570.75,1889
2571,1873
2571.25,1881
2571.5,1872
2571.75,1881
2572,1875
2572.25,1872
2572.5,1863
2572.75,1871
2573,1853
2573.25,1838
2573.5,1841
2573.75,1863
2574,1846
2574.25,1866
2574.5,1847
2574.75,1872
2575,1878
2575.25,1879
2575.5,1872
2575.75,1886
2576,1863
2576.25,1867
2576.5,1869
2576.75,1872
2577,1845
2577.25,1840
2577.5,1844
2577.75,1856
2578,1861
2578.25,1868
2578.5,1854
2578.75,1877
2579,1861
2579.25,1872
2579.5,1872
2579.75,1863
2580,1867
2580.25,1871
2580.5,1872
2580.75,1872
2581,1866
2581.25,1843
2581.5,1845
2581.75,1843
2582,1856
2582.25,1835
2582.5,1879
2582.75,1886
2583,1874
2583.25,1872
2583.5,1857
2583.75,1885
2584,1877
2584.25,1857
2584.5,1873
2584.75,1861
2585,1851
2585.25,1866
2585.5,1843
2585.75,1843
2586,1836
2586.25,1845
2586.5,1839
2586.75,1844
2587,1889
2587.25,1845
2587.5,1889
2587.75,1872
2588,1863
2588.25,1851
2588.5,1878
2588.75,1855
2589,1877
2589.25,1866
2589.5,1867
2589.75,1869
2590,1845
2590.25,1859
2590.5,1877
2590.75,1854
2591,1859
2591.25,1863
2591.5,1879
2591.75,1889
2592,1868
2592.25,1873
2592.5,1857
