Time(ms),Raw_ADC,ENV_Value,RMS,MDF,MW_Amp,MW_Area,MW_Latency,MW_Valid,Marker
0,1862.3,31.5,0.0,240.0,0.0,0.0,0.0,0,
100,1861.1,31.1,0.0,240.0,0.0,0.0,0.0,0,
200,1860.6,402.7,0.0,240.0,2892.0,10186.5,3.0,1,
300,1863.4,323.4,0.0,240.0,4095.0,16254.0,3.0,1,
400,1919.7,264.3,0.0,240.0,3766.0,14035.0,4.0,1,
536,1860.9,121.0,0.0,28.8,3665.0,12909.0,4.5,1,
663,1870.2,222.1,0.0,24.3,3600.0,12665.3,4.5,1,
786,1878.3,62.9,0.0,26.7,3601.0,12522.3,4.8,1,
913,1870.1,30.5,0.0,29.4,3601.0,12522.3,4.8,1,
1037,1858.3,29.7,0.0,34.3,3601.0,12522.3,4.8,1,
1160,1858.1,30.1,0.0,41.6,3601.0,12522.3,4.8,1,
1285,1863.6,29.8,0.0,239.6,3601.0,12522.3,4.8,1,
1412,1863.2,28.3,0.0,240.0,3601.0,12522.3,4.8,1,
1537,1862.0,29.4,0.0,240.0,3601.0,12522.3,4.8,1,
1662,1862.8,31.2,245.4,240.0,3601.0,12522.3,4.8,1,
1787,1861.1,262.2,245.4,240.0,2117.0,8159.3,3.3,1,
1912,1862.3,82.7,230.6,239.8,3650.0,12214.0,3.0,1,
2039,1857.7,218.4,196.8,39.0,3895.0,14716.0,3.8,1,
2164,1889.7,304.2,173.6,25.7,3881.0,13893.0,3.3,1,
2287,1872.6,345.4,189.2,26.3,3872.0,14229.3,3.5,1,
2412,1936.5,49.1,190.6,35.0,3890.0,13684.0,3.8,1,
2537,1879.2,31.9,181.9,24.1,3890.0,13684.0,3.8,1,
2790,1859.3,30.2,182.1,46.6,3890.0,13684.0,3.8,1,
2915,1862.0,29.4,182.1,239.8,3890.0,13684.0,3.8,1,
3041,1861.8,29.4,182.1,240.0,3890.0,13684.0,3.8,1,
3167,1861.7,30.8,182.2,240.0,3890.0,13684.0,3.8,1,
3291,1861.2,29.2,182.3,240.0,3890.0,13684.0,3.8,1,
3417,1861.6,72.9,182.3,240.1,3091.0,12361.8,3.5,1,
3543,1856.3,174.9,172.8,240.0,3877.0,14349.3,3.0,1,
3668,1880.3,220.2,178.0,56.6,3994.0,14757.5,3.3,1,
3793,1913.0,240.3,186.1,35.1,3991.0,13982.5,3.3,1,
4049,1886.3,60.4,194.7,29.3,3861.0,13491.3,3.5,1,
4174,1875.6,33.3,207.0,25.4,3861.0,13491.3,3.5,1,
4298,1856.0,29.0,207.1,24.2,3861.0,13491.3,3.5,1,
4421,1860.8,31.0,207.2,41.6,3861.0,13491.3,3.5,1,
4546,1862.8,31.8,207.2,238.0,3861.0,13491.3,3.5,1,
4669,1862.0,31.9,207.2,240.0,3861.0,13491.3,3.5,1,
4794,1859.5,30.8,207.3,240.1,3861.0,13491.3,3.5,1,
4919,1860.7,30.5,207.3,240.0,3861.0,13491.3,3.5,1,
5043,1860.7,329.0,207.3,240.1,1361.0,6207.5,5.0,1,
5298,1844.7,300.7,241.7,41.5,4061.0,16225.0,3.3,1,
5421,1895.0,438.6,241.9,35.2,4065.0,15535.0,3.0,1,
5544,1948.4,471.4,265.6,25.3,4095.0,15551.3,3.0,1,
5669,1820.2,49.7,267.1,25.5,4005.0,15501.8,2.8,1,
5794,1902.3,32.1,255.1,36.2,4005.0,15501.8,2.8,1,
5918,1859.0,32.2,255.0,28.8,4005.0,15501.8,2.8,1,
6042,1860.8,29.7,255.0,30.1,4005.0,15501.8,2.8,1,
6166,1861.2,30.8,255.0,239.6,4005.0,15501.8,2.8,1,
6289,1861.6,29.8,255.1,240.1,4005.0,15501.8,2.8,1,
6543,1862.4,30.5,255.0,240.1,4005.0,15501.8,2.8,1,
6669,1861.1,290.7,254.9,240.1,1464.0,7034.0,4.5,1,
6795,1859.6,243.7,239.2,239.7,3945.0,16473.8,2.8,1,
6919,1845.7,442.5,234.9,42.7,4062.0,15952.0,3.0,1,
7042,1820.6,164.9,239.2,35.4,3985.0,15372.3,3.3,1,
7165,1897.1,340.8,206.8,23.7,3974.0,15387.3,2.8,1,
7292,1896.0,58.4,182.0,26.1,4014.0,15231.0,3.0,1,
7417,1889.4,34.4,201.5,29.6,4014.0,15231.0,3.0,1,
7540,1859.9,29.3,201.5,40.1,4014.0,15231.0,3.0,1,
7791,1860.7,29.2,201.5,239.5,4014.0,15231.0,3.0,1,
7916,1861.9,30.1,201.5,240.1,4014.0,15231.0,3.0,1,
8041,1859.9,29.5,201.5,240.1,4014.0,15231.0,3.0,1,
8166,1861.9,30.0,201.5,240.1,4014.0,15231.0,3.0,1,
8291,1861.3,266.5,201.5,240.1,1470.0,7191.0,4.3,1,
8416,1879.2,123.2,212.9,87.8,3564.0,14987.5,3.3,1,
8540,1872.3,175.0,220.6,36.1,4006.0,16485.3,3.5,1,
8665,1896.1,391.0,203.0,35.2,3945.0,14999.8,3.0,1,
8788,1926.9,258.2,223.6,36.9,3967.0,15056.3,3.0,1,
9045,1876.9,31.1,203.9,36.2,3967.0,15056.3,3.0,1,
9169,1858.0,30.9,203.9,46.9,3967.0,15056.3,3.0,1,
9293,1860.4,29.3,203.9,81.7,3967.0,15056.3,3.0,1,
9418,1860.9,31.6,203.9,240.1,3967.0,15056.3,3.0,1,
9541,1862.5,29.2,203.9,240.1,3967.0,15056.3,3.0,1,
9666,1861.5,29.8,203.8,240.1,3967.0,15056.3,3.0,1,
9791,1861.7,28.7,203.9,240.1,3967.0,15056.3,3.0,1,
9916,1860.3,266.1,203.9,240.1,2499.0,11141.5,4.3,1,
10040,1857.4,147.3,206.1,238.3,3780.0,16469.3,2.8,1,
10299,1812.4,288.4,213.8,38.8,3837.0,15049.0,2.8,1,
10424,1897.8,347.4,195.5,25.7,3818.0,14482.5,3.3,1,
10549,1875.8,41.5,196.7,26.0,3897.0,14701.3,3.3,1,
10673,1881.4,31.3,195.4,24.4,3897.0,14701.3,3.3,1,
10798,1858.1,29.9,195.4,26.7,3897.0,14701.3,3.3,1,
10923,1859.4,31.0,195.5,35.9,3897.0,14701.3,3.3,1,
11048,1861.3,30.3,195.4,239.9,3897.0,14701.3,3.3,1,
11173,1862.3,29.5,195.5,240.1,3897.0,14701.3,3.3,1,
11298,1862.1,30.1,195.4,240.1,3897.0,14701.3,3.3,1,
11552,1861.8,252.6,195.5,240.1,1362.0,6523.3,4.3,1,
11676,1853.2,180.7,196.9,47.0,3918.0,16758.5,2.8,1,
11801,1860.6,215.3,198.1,45.4,3927.0,15550.8,3.0,1,
11927,1891.9,238.5,187.0,45.6,3870.0,14964.0,3.0,1,
12051,1886.2,364.8,207.2,28.3,3834.0,14522.8,3.0,1,
12178,1864.7,41.3,228.1,37.1,3841.0,14679.8,3.3,1,
12303,1886.2,31.7,228.1,24.3,3841.0,14679.8,3.3,1,
12428,1859.7,30.6,228.1,25.2,3841.0,14679.8,3.3,1,
12553,1859.1,30.7,228.1,39.4,3841.0,14679.8,3.3,1,
12810,1860.7,30.0,228.1,240.1,3841.0,14679.8,3.3,1,
12933,1861.1,31.8,228.1,240.1,3841.0,14679.8,3.3,1,
13058,1861.3,32.2,228.1,240.1,3841.0,14679.8,3.3,1,
13183,1861.8,67.0,226.2,240.1,2674.0,12529.0,4.8,1,
13308,1857.2,131.9,209.4,166.1,3905.0,16098.0,2.8,1,
13432,1901.8,326.4,214.0,35.7,3847.0,14895.3,3.3,1,
13555,1879.7,326.8,213.1,29.7,3843.0,14859.0,3.3,1,
13680,1894.0,152.3,218.3,26.9,3830.0,14491.8,3.3,1,
13805,1882.3,68.9,196.1,25.6,3830.0,14491.8,3.3,1,
14059,1859.2,30.5,196.9,36.6,3830.0,14491.8,3.3,1,
14182,1860.5,31.9,196.9,78.9,3830.0,14491.8,3.3,1,
14304,1860.9,30.4,197.0,239.6,3830.0,14491.8,3.3,1,
14429,1861.6,29.6,196.9,240.1,3830.0,14491.8,3.3,1,
14554,1860.7,29.4,197.0,240.1,3830.0,14491.8,3.3,1,
14679,1860.3,129.6,196.9,240.1,3830.0,14491.8,3.3,1,
14805,1861.3,145.2,201.7,240.0,2861.0,13359.8,4.0,1,rest_end
14928,1863.3,317.2,211.2,55.1,3922.0,16191.3,3.0,1,
15052,1883.6,291.6,224.5,42.7,3779.0,14435.8,3.3,1,
15307,1935.3,108.6,195.0,25.1,3813.0,14440.5,3.5,1,
15432,1828.0,54.2,202.6,24.3,3813.0,14440.5,3.5,1,
15557,1864.6,30.9,202.0,29.3,3813.0,14440.5,3.5,1,
15680,1853.8,30.5,202.0,40.4,3813.0,14440.5,3.5,1,
15802,1858.5,31.0,202.0,149.5,3813.0,14440.5,3.5,1,
15925,1862.3,31.0,201.9,239.9,3813.0,14440.5,3.5,1,
16050,1861.7,30.6,202.0,240.1,3813.0,14440.5,3.5,1,
16175,1860.7,30.3,202.0,240.1,3813.0,14440.5,3.5,1,
16300,1861.0,273.8,202.0,240.1,3813.0,14440.5,3.5,1,
16555,1862.4,174.4,204.0,43.3,3879.0,16412.0,2.8,1,
16678,1916.1,297.1,199.1,44.5,3783.0,14588.0,3.5,1,
16801,1838.2,312.3,193.4,44.4,3837.0,14361.8,3.0,1,
16924,1894.9,146.7,209.0,28.7,3730.0,13890.8,3.0,1,
17047,1879.7,33.8,195.6,28.1,3730.0,13890.8,3.0,1,
17168,1860.0,31.6,195.3,27.3,3730.0,13890.8,3.0,1,
17291,1858.7,29.4,195.3,36.8,3730.0,13890.8,3.0,1,
17413,1859.7,30.1,195.3,201.3,3730.0,13890.8,3.0,1,
17536,1862.3,30.8,195.4,240.1,3730.0,13890.8,3.0,1,
17791,1861.2,29.8,195.3,240.1,3730.0,13890.8,3.0,1,
17916,1861.4,106.3,195.3,240.1,3730.0,13890.8,3.0,1,
18041,1888.0,131.5,186.9,240.1,3103.0,14803.3,3.8,1,
18166,1829.4,324.3,176.1,237.9,3829.0,15940.5,3.3,1,
18290,1877.6,407.7,176.1,35.2,3730.0,14303.8,3.0,1,
18415,1890.8,431.9,192.8,24.7,3743.0,14347.5,3.0,1,
18542,1817.3,209.1,195.3,25.0,3726.0,14012.5,3.3,1,
18669,1884.5,67.9,212.3,28.1,3726.0,14012.5,3.3,1,
18794,1874.6,31.8,213.2,35.3,3726.0,14012.5,3.3,1,
19047,1861.4,29.0,213.1,68.7,3726.0,14012.5,3.3,1,
19174,1861.6,30.4,213.2,239.5,3726.0,14012.5,3.3,1,
19299,1861.9,31.1,213.1,240.1,3726.0,14012.5,3.3,1,
19424,1861.6,28.0,213.1,240.1,3726.0,14012.5,3.3,1,
19549,1861.3,173.3,213.1,240.1,2089.0,10114.8,3.3,1,
19676,1861.8,132.7,220.3,240.0,3766.0,15699.0,3.3,1,
19801,1852.4,124.4,231.7,29.5,3617.0,14676.5,3.5,1,
19926,1941.8,115.2,228.2,24.9,3583.0,13200.8,3.5,1,
20049,1882.1,129.2,200.4,24.2,3613.0,13275.3,3.3,1,
20303,1880.8,33.9,172.0,28.5,3613.0,13275.3,3.3,1,
20426,1859.0,31.0,170.8,36.3,3613.0,13275.3,3.3,1,
20551,1860.8,29.9,170.8,45.6,3613.0,13275.3,3.3,1,
20678,1859.8,30.5,170.8,239.4,3613.0,13275.3,3.3,1,
20803,1861.5,30.3,170.8,240.1,3613.0,13275.3,3.3,1,
20928,1862.3,30.2,170.8,240.1,3613.0,13275.3,3.3,1,
21051,1862.5,32.1,170.8,240.1,3613.0,13275.3,3.3,1,
21176,1861.8,93.2,170.8,240.1,2184.0,10920.8,4.3,1,
21302,1860.7,234.3,162.8,240.0,3811.0,16182.3,3.0,1,
21558,1886.4,195.8,159.9,28.2,3406.0,11552.0,4.0,1,
21682,1887.7,202.5,192.4,26.3,3376.0,11503.5,4.3,1,
21809,1841.0,84.8,191.6,24.3,3298.0,10994.5,4.5,1,
21934,1866.2,33.3,200.2,23.9,3298.0,10994.5,4.5,1,
22061,1857.5,30.4,200.2,29.3,3298.0,10994.5,4.5,1,
22185,1863.7,32.1,200.2,34.2,3298.0,10994.5,4.5,1,
22309,1861.8,30.4,200.2,239.1,3298.0,10994.5,4.5,1,
22432,1862.3,30.3,200.2,240.1,3298.0,10994.5,4.5,1,
22557,1861.1,30.2,200.2,240.1,3298.0,10994.5,4.5,1,
22813,1861.3,259.1,200.2,240.1,1268.0,6153.3,5.0,1,
22936,1861.4,244.9,213.9,239.5,3407.0,14433.3,3.0,1,
23060,1910.6,165.1,210.8,34.3,3535.0,14373.0,3.5,1,
23183,1813.7,181.8,205.4,29.9,3391.0,12815.5,4.0,1,
23308,1878.6,293.5,187.8,24.4,3441.0,12984.8,3.3,1,
23433,1875.2,47.9,200.8,23.7,3425.0,12996.5,3.3,1,
23558,1880.7,30.5,184.2,28.6,3425.0,12996.5,3.3,1,
23683,1857.7,28.6,184.2,30.1,3425.0,12996.5,3.3,1,
23808,1860.9,26.9,184.1,37.0,3425.0,12996.5,3.3,1,
24061,1860.9,26.0,184.0,240.1,3425.0,12996.5,3.3,1,
24186,1860.7,28.1,184.0,240.1,3425.0,12996.5,3.3,1,
24311,1859.6,27.5,183.9,240.1,3425.0,12996.5,3.3,1,
24436,1861.2,190.6,184.0,240.1,1256.0,6154.5,4.3,1,
24560,1855.5,213.6,180.4,239.1,3314.0,14894.5,3.0,1,
24684,1853.6,281.6,190.2,35.5,3488.0,14558.3,2.8,1,
24811,1877.1,147.1,205.6,34.7,3469.0,13756.0,3.0,1,
24936,1866.5,285.7,206.6,30.0,3465.0,13696.0,3.0,1,
25061,1854.5,54.5,200.6,23.8,3437.0,13698.0,3.0,1,
25316,1859.0,27.2,205.9,42.0,3437.0,13698.0,3.0,1,
25439,1860.3,28.2,205.9,51.5,3437.0,13698.0,3.0,1,
25564,1859.8,28.3,205.9,240.0,3437.0,13698.0,3.0,1,
25689,1861.6,27.5,205.9,240.1,3437.0,13698.0,3.0,1,
25814,1860.8,29.3,205.9,240.1,3437.0,13698.0,3.0,1,
25939,1861.7,28.0,206.0,240.1,3437.0,13698.0,3.0,1,
26064,1861.5,374.9,205.9,240.1,1427.0,6724.0,5.8,1,
26191,1858.3,121.1,205.9,239.2,3484.0,15218.3,3.3,1,
26316,1890.0,357.8,188.3,29.0,3493.0,14593.3,3.0,1,
26570,1883.5,212.9,204.7,27.6,3415.0,13767.0,3.3,1,
26695,1868.2,46.5,194.7,26.3,3433.0,13810.8,3.3,1,
26818,1882.9,32.1,199.9,24.6,3433.0,13810.8,3.3,1,
26941,1858.1,29.4,200.2,35.7,3433.0,13810.8,3.3,1,
27066,1859.4,28.9,200.3,46.3,3433.0,13810.8,3.3,1,
27191,1860.2,29.1,200.3,238.7,3433.0,13810.8,3.3,1,
27316,1860.4,29.2,200.3,240.1,3433.0,13810.8,3.3,1,
27439,1861.5,28.5,200.4,240.1,3433.0,13810.8,3.3,1,
27563,1861.5,28.1,200.4,240.1,3433.0,13810.8,3.3,1,
27819,1870.8,279.5,199.2,99.8,3493.0,15286.0,3.3,1,
27945,1875.2,288.5,215.8,30.2,3406.0,13762.5,3.5,1,
28069,1869.7,304.4,211.4,29.3,3359.0,13041.0,3.3,1,
28193,1915.7,183.6,214.1,23.3,3359.0,12535.5,3.8,1,
28318,1823.2,38.7,209.7,23.5,3333.0,12555.8,3.8,1,
28443,1873.9,29.3,206.0,25.7,3333.0,12555.8,3.8,1,
28567,1858.1,28.3,205.7,29.1,3333.0,12555.8,3.8,1,
28692,1860.0,26.5,205.6,36.0,3333.0,12555.8,3.8,1,
28816,1861.5,28.7,205.6,239.9,3333.0,12555.8,3.8,1,
29070,1861.5,28.0,205.6,240.1,3333.0,12555.8,3.8,1,
29195,1861.7,26.7,205.5,240.1,3333.0,12555.8,3.8,1,
29321,1861.0,327.9,205.6,240.1,2702.0,12632.8,3.5,1,
29446,1860.9,229.0,214.7,49.9,3480.0,14758.3,2.8,1,
29570,1891.8,168.5,210.0,36.0,3313.0,12906.5,3.8,1,
29695,1833.8,280.4,200.8,34.9,3281.0,12220.5,3.8,1,
29820,1882.1,285.0,190.4,29.8,3294.0,11896.8,3.5,1,
29945,1893.9,37.4,202.8,24.0,3278.0,12180.3,3.5,1,
30072,1838.6,29.5,199.5,29.6,3278.0,12180.3,3.5,1,
30327,1860.5,27.5,199.7,74.8,3278.0,12180.3,3.5,1,
30452,1860.9,26.6,199.7,239.6,3278.0,12180.3,3.5,1,
30579,1860.5,26.6,199.7,240.1,3278.0,12180.3,3.5,1,
30704,1860.9,26.3,199.7,240.1,3278.0,12180.3,3.5,1,
30827,1861.5,25.7,199.6,240.1,3278.0,12180.3,3.5,1,
30952,1861.7,140.0,199.6,240.1,2854.0,13328.3,3.0,1,
31077,1848.2,186.6,185.5,50.0,3308.0,13785.8,3.0,1,
31202,1872.9,139.4,192.4,37.5,3135.0,11119.3,4.3,1,
31327,1873.6,330.1,194.2,29.9,3207.0,11378.8,4.0,1,
31585,1870.2,28.6,216.6,43.7,3207.0,11378.8,4.0,1,
31709,1873.9,24.2,216.5,24.3,3207.0,11378.8,4.0,1,
31834,1857.8,23.7,216.4,25.5,3207.0,11378.8,4.0,1,
31958,1861.9,27.4,216.3,42.0,3207.0,11378.8,4.0,1,
32082,1860.6,27.4,216.3,239.9,3207.0,11378.8,4.0,1,
32207,1861.2,25.6,216.3,240.1,3207.0,11378.8,4.0,1,
32330,1861.7,28.4,216.3,240.1,3207.0,11378.8,4.0,1,
32453,1862.2,79.5,216.3,240.1,3207.0,11378.8,4.0,1,
32580,1861.8,181.4,220.3,240.0,2796.0,12749.5,3.3,1,
32837,1808.6,395.7,211.5,38.6,3103.0,11047.0,4.0,1,
32960,1873.1,314.6,222.6,26.3,3070.0,11638.0,3.8,1,
33086,1869.6,199.0,215.9,24.3,3125.0,11372.5,4.0,1,
33211,1870.9,31.5,216.3,23.9,3125.0,11372.5,4.0,1,
33336,1858.3,27.5,216.4,27.1,3125.0,11372.5,4.0,1,
33461,1860.2,28.4,216.3,41.2,3125.0,11372.5,4.0,1,
33585,1859.3,26.9,216.4,83.2,3125.0,11372.5,4.0,1,
33709,1862.3,27.2,216.4,240.1,3125.0,11372.5,4.0,1,
33833,1862.2,27.7,216.4,240.1,3125.0,11372.5,4.0,1,
34089,1861.9,132.5,216.5,240.1,3125.0,11372.5,4.0,1,
34214,1861.3,290.9,212.3,240.1,2711.0,12349.3,3.3,1,
34339,1862.2,343.2,229.4,30.2,3289.0,12470.3,3.5,1,
34463,1876.4,288.7,237.9,29.6,3085.0,11319.8,4.0,1,
34588,1884.7,314.6,227.6,37.0,3059.0,11582.5,3.5,1,
34713,1834.0,145.4,230.7,34.4,3131.0,11533.8,4.0,1,
34841,1876.5,33.5,224.1,26.0,3131.0,11533.8,4.0,1,
34966,1857.6,28.7,224.2,26.9,3131.0,11533.8,4.0,1,
35089,1862.5,26.6,224.1,30.0,3131.0,11533.8,4.0,1,
35342,1862.0,25.9,224.1,240.1,3131.0,11533.8,4.0,1,
35467,1860.3,27.1,224.1,240.1,3131.0,11533.8,4.0,1,
35592,1861.5,25.1,224.1,240.1,3131.0,11533.8,4.0,1,
35718,1860.7,166.4,224.1,240.1,1849.0,8881.8,5.3,1,
35842,1857.0,197.7,226.2,239.9,2953.0,13222.0,3.3,1,
35967,1902.3,240.3,218.7,43.3,3066.0,12187.5,3.5,1,
36092,1815.6,296.4,217.3,40.2,3183.0,11863.0,3.8,1,
36218,1869.1,273.4,229.1,28.6,3159.0,11855.8,3.8,1,
36343,1856.0,82.0,220.2,24.7,3079.0,11500.0,3.8,1,
36598,1860.9,29.0,221.4,37.1,3079.0,11500.0,3.8,1,
36723,1860.1,27.0,221.5,42.0,3079.0,11500.0,3.8,1,
36848,1861.3,27.8,221.5,239.7,3079.0,11500.0,3.8,1,
36973,1861.4,27.3,221.5,240.1,3079.0,11500.0,3.8,1,
37098,1860.8,26.8,221.5,240.1,3079.0,11500.0,3.8,1,
37221,1862.3,26.0,221.5,240.1,3079.0,11500.0,3.8,1,
37348,1861.1,353.3,221.5,240.1,1991.0,9917.0,4.5,1,
37475,1862.8,397.6,234.8,239.5,3008.0,13887.8,3.0,1,
37599,1843.2,264.9,239.5,28.3,2940.0,11797.3,3.5,1,
37853,1865.3,300.8,236.5,26.6,3060.0,11388.8,3.8,1,
37978,1849.8,69.9,238.7,26.9,3005.0,11174.0,4.0,1,
38103,1870.3,28.3,237.4,28.1,3005.0,11174.0,4.0,1,
38228,1869.9,26.8,237.4,24.4,3005.0,11174.0,4.0,1,
38353,1858.3,26.6,237.4,26.3,3005.0,11174.0,4.0,1,
38477,1861.8,27.5,237.4,239.7,3005.0,11174.0,4.0,1,
38600,1861.3,26.9,237.4,240.1,3005.0,11174.0,4.0,1,
38725,1862.3,27.4,237.4,240.1,3005.0,11174.0,4.0,1,
38850,1861.7,27.7,237.4,240.1,3005.0,11174.0,4.0,1,
39108,1861.4,266.8,230.3,239.4,3018.0,13587.5,3.0,1,
39231,1880.3,256.0,229.8,37.8,2966.0,11199.8,3.5,1,
39358,1856.6,270.7,225.7,37.6,2878.0,10650.0,4.0,1,
39483,1872.7,303.0,222.3,29.9,2859.0,10687.3,4.0,1,
39608,1853.0,59.0,224.6,29.9,2843.0,10649.0,3.8,1,
39733,1909.3,28.5,230.1,30.0,2843.0,10649.0,3.8,1,
39854,1858.2,27.1,230.0,29.6,2843.0,10649.0,3.8,1,
39979,1861.6,29.4,230.0,40.1,2843.0,10649.0,3.8,1,
40102,1860.9,27.6,230.0,239.3,2843.0,10649.0,3.8,1,
40358,1863.5,26.2,230.0,240.1,2843.0,10649.0,3.8,1,
40483,1861.4,25.9,230.0,240.1,2843.0,10649.0,3.8,1,
40608,1860.9,117.9,230.0,240.1,2568.0,12903.3,3.3,1,
40733,1860.8,380.1,223.0,238.6,3109.0,13152.3,3.0,1,
40856,1872.6,255.1,219.4,42.2,2982.0,11249.8,3.5,1,
40979,1859.2,299.8,216.5,39.3,3005.0,11286.5,3.5,1,
41105,1899.8,330.7,218.1,22.5,2996.0,11475.3,3.3,1,
41230,1822.8,43.9,210.0,22.4,3089.0,11520.3,3.3,1,
41355,1871.4,28.1,196.4,22.9,3089.0,11520.3,3.3,1,
41610,1858.8,25.9,196.5,36.8,3089.0,11520.3,3.3,1,
41733,1860.3,26.6,196.5,239.9,3089.0,11520.3,3.3,1,
41860,1861.3,26.6,196.5,240.1,3089.0,11520.3,3.3,1,
41985,1861.2,27.8,196.6,240.0,3089.0,11520.3,3.3,1,
42109,1861.3,27.9,196.6,240.1,3089.0,11520.3,3.3,1,
42232,1862.4,283.9,196.6,240.1,1742.0,8372.5,4.5,1,
42360,1857.4,295.4,204.0,166.3,3062.0,13327.5,3.0,1,
42485,1882.7,305.0,204.8,36.1,3187.0,12957.5,3.0,1,
42608,1827.5,351.7,212.3,35.8,3117.0,12617.5,3.3,1,
42862,1890.8,42.1,223.2,22.3,3088.0,12117.5,3.3,1,
42987,1838.9,27.5,222.4,23.6,3088.0,12117.5,3.3,1,
43112,1859.9,28.9,222.4,28.5,3088.0,12117.5,3.3,1,
43237,1859.6,26.8,222.4,41.2,3088.0,12117.5,3.3,1,
43362,1861.3,28.1,222.4,240.0,3088.0,12117.5,3.3,1,
43487,1860.1,26.4,222.4,240.0,3088.0,12117.5,3.3,1,
43610,1861.0,27.1,222.4,240.1,3088.0,12117.5,3.3,1,
43735,1860.6,27.0,222.4,240.0,3088.0,12117.5,3.3,1,
43859,1862.4,173.0,222.4,240.0,2248.0,10936.0,3.5,1,
44114,1862.2,369.8,231.1,29.7,3119.0,12402.5,3.3,1,
44239,1911.6,255.9,233.7,23.9,3085.0,12222.8,3.3,1,
44362,1806.7,305.8,233.8,23.1,3107.0,12067.5,3.5,1,
44487,1873.5,40.9,227.3,23.5,3069.0,11854.8,3.3,1,
44612,1877.8,29.4,229.0,23.2,3069.0,11854.8,3.3,1,
44737,1860.3,26.8,229.1,28.4,3069.0,11854.8,3.3,1,
44862,1858.9,26.9,229.1,35.7,3069.0,11854.8,3.3,1,
44987,1860.8,28.6,229.1,239.9,3069.0,11854.8,3.3,1,
45110,1862.2,27.0,229.0,240.0,3069.0,11854.8,3.3,1,
45365,1861.5,27.3,228.9,240.0,3069.0,11854.8,3.3,1,
45493,1861.5,351.9,228.9,240.0,2334.0,11685.0,3.5,1,
45618,1843.0,381.8,232.3,76.7,3059.0,13463.5,3.0,1,
45742,1804.8,375.8,222.8,42.1,2964.0,11257.0,3.8,1,
45870,1874.6,317.6,217.7,23.9,2735.0,10656.0,3.5,1,
45995,1869.7,280.6,223.9,26.2,2906.0,11240.8,3.8,1,
46120,1872.2,35.2,221.7,40.0,3006.0,10986.0,3.5,1,
46245,1861.1,27.7,221.8,34.5,3006.0,10986.0,3.5,1,
46369,1858.9,28.3,221.8,34.4,3006.0,10986.0,3.5,1,
46622,1862.3,26.4,221.7,240.0,3006.0,10986.0,3.5,1,
46747,1860.4,29.3,221.7,240.0,3006.0,10986.0,3.5,1,
46872,1859.8,27.2,221.8,240.0,3006.0,10986.0,3.5,1,
46995,1862.0,27.4,221.8,240.0,3006.0,10986.0,3.5,1,
47119,1861.8,243.2,221.8,240.0,2402.0,12015.5,3.0,1,
47242,1856.1,345.9,214.9,103.2,3095.0,13117.3,3.0,1,
47370,1873.4,180.8,222.2,34.7,2947.0,11442.8,3.5,1,
47495,1885.4,229.5,213.7,35.4,3021.0,11435.8,3.5,1,
47620,1822.2,274.4,209.0,34.4,3031.0,11624.3,3.5,1,
47875,1868.1,27.9,211.3,23.9,3031.0,11624.3,3.5,1,
48000,1858.8,26.8,211.4,25.8,3031.0,11624.3,3.5,1,
48124,1859.7,28.1,211.4,40.9,3031.0,11624.3,3.5,1,
48249,1861.6,28.7,211.4,240.0,3031.0,11624.3,3.5,1,
48372,1861.0,26.4,211.4,240.0,3031.0,11624.3,3.5,1,
48497,1862.2,29.4,211.4,240.0,3031.0,11624.3,3.5,1,
48620,1860.4,121.2,211.4,240.0,3031.0,11624.3,3.5,1,
48744,1860.2,210.7,214.3,239.9,830.0,4001.8,4.8,1,
48869,1874.6,204.8,214.3,35.9,3030.0,13489.3,2.5,1,
49125,1856.5,229.6,216.3,29.6,3143.0,13562.0,3.3,1,
49248,1868.4,138.3,211.8,24.7,3126.0,13290.0,2.8,1,
49371,1868.8,27.4,204.0,23.9,3126.0,13290.0,2.8,1,
49495,1869.6,28.6,203.9,23.8,3126.0,13290.0,2.8,1,
49619,1861.5,26.8,203.9,25.3,3126.0,13290.0,2.8,1,
49743,1860.7,26.4,203.9,142.5,3126.0,13290.0,2.8,1,
49867,1862.5,27.5,203.9,240.0,3126.0,13290.0,2.8,1,
49992,1862.1,26.7,203.8,240.0,3126.0,13290.0,2.8,1,
50117,1861.4,28.1,203.8,240.0,3126.0,13290.0,2.8,1,
50372,1862.1,329.6,201.4,239.9,1322.0,5768.5,4.3,1,
50495,1860.8,313.6,207.7,45.5,2981.0,13781.0,2.8,1,
50620,1857.6,402.3,213.4,30.1,3107.0,12925.8,3.0,1,
50745,1844.7,394.6,205.7,29.8,3048.0,12251.0,3.3,1,
50868,1858.5,220.0,218.4,34.4,3065.0,12177.0,3.0,1,
50992,1872.8,33.2,237.2,29.3,3065.0,12177.0,3.0,1,
51117,1872.9,28.5,237.2,36.6,3065.0,12177.0,3.0,1,
51241,1861.4,26.9,237.2,42.8,3065.0,12177.0,3.0,1,
51365,1860.6,27.5,237.2,45.6,3065.0,12177.0,3.0,1,
51620,1862.1,24.7,237.2,240.0,3065.0,12177.0,3.0,1,
51744,1862.0,26.1,237.1,240.0,3065.0,12177.0,3.0,1,
51869,1861.5,213.5,237.2,240.0,3065.0,12177.0,3.0,1,
51995,1861.4,363.4,240.2,239.8,2699.0,12845.8,3.3,1,
52120,1881.3,211.2,246.2,44.5,2896.0,11118.8,3.5,1,
52245,1862.9,301.0,249.4,36.3,2603.0,9397.0,4.0,1,
52369,1872.9,343.8,248.3,29.2,2574.0,9448.3,3.8,1,
52494,1851.1,135.4,251.8,25.0,2922.0,10488.3,3.3,1,
52619,1903.9,28.7,240.7,22.4,2922.0,10488.3,3.3,1,
52874,1857.7,26.9,240.7,26.7,2922.0,10488.3,3.3,1,
52998,1858.5,27.2,240.7,48.5,2922.0,10488.3,3.3,1,
53121,1863.0,24.2,240.7,240.0,2922.0,10488.3,3.3,1,
53244,1861.0,23.2,240.6,240.0,2922.0,10488.3,3.3,1,
53369,1861.1,22.4,240.6,240.0,2922.0,10488.3,3.3,1,
53494,1862.6,165.7,240.6,240.0,912.0,4169.8,3.0,1,
53620,1861.4,266.0,241.2,239.7,2688.0,12527.8,3.0,1,
53744,1858.1,222.3,236.1,34.5,2990.0,11710.8,3.3,1,
53869,1863.9,247.0,237.3,36.4,2868.0,11273.8,3.3,1,
54124,1832.2,83.0,213.5,28.4,2961.0,10958.5,3.5,1,
54249,1870.0,27.2,204.8,23.8,2961.0,10958.5,3.5,1,
54374,1859.2,22.4,204.8,24.4,2961.0,10958.5,3.5,1,
54498,1859.1,23.9,204.7,30.2,2961.0,10958.5,3.5,1,
54621,1860.1,23.4,204.7,239.3,2961.0,10958.5,3.5,1,
54746,1860.6,23.9,204.7,240.0,2961.0,10958.5,3.5,1,
54871,1861.1,25.4,204.8,240.0,2961.0,10958.5,3.5,1,
54996,1860.7,23.1,204.8,240.0,2961.0,10958.5,3.5,1,
55121,1860.4,211.4,204.8,240.0,931.0,4867.8,3.8,1,
55375,1882.0,242.2,197.1,36.3,3082.0,12884.3,3.0,1,
55500,1824.7,343.1,188.9,26.1,3005.0,12368.8,3.0,1,
55625,1877.1,438.7,183.1,26.7,2957.0,11735.8,3.0,1,
55750,1893.1,77.9,213.1,22.3,2983.0,11915.5,3.0,1,
55875,1832.2,27.0,213.0,23.7,2983.0,11915.5,3.0,1,
55999,1860.9,28.7,213.0,24.1,2983.0,11915.5,3.0,1,
56122,1859.8,25.4,213.1,25.7,2983.0,11915.5,3.0,1,
56247,1860.4,24.2,213.1,239.0,2983.0,11915.5,3.0,1,
56372,1861.3,24.3,213.1,239.9,2983.0,11915.5,3.0,1,
56628,1861.3,24.4,213.1,240.0,2983.0,11915.5,3.0,1,
56752,1863.4,209.9,213.0,240.0,964.0,4307.8,8.5,1,
56879,1858.6,288.3,215.0,239.8,2533.0,11984.8,3.0,1,
57006,1858.4,210.8,217.4,29.7,2906.0,11093.8,3.3,1,
57134,1849.9,261.5,215.9,29.9,2888.0,11073.0,3.0,1,
57259,1811.3,244.9,218.0,35.5,2897.0,11438.0,3.0,1,
57383,1869.5,54.8,197.2,24.7,2881.0,11456.8,3.0,1,
57508,1866.6,25.2,198.0,24.2,2881.0,11456.8,3.0,1,
57635,1864.2,25.2,198.1,29.9,2881.0,11456.8,3.0,1,
57889,1860.3,25.2,198.0,239.8,2881.0,11456.8,3.0,1,
58013,1862.1,24.5,197.9,240.0,2881.0,11456.8,3.0,1,
58138,1860.8,24.7,198.0,240.0,2881.0,11456.8,3.0,1,
58263,1861.7,25.6,197.9,240.0,2881.0,11456.8,3.0,1,
58388,1861.2,329.5,198.0,240.0,1166.0,5647.3,3.0,1,
58513,1851.9,348.9,199.3,239.3,2682.0,12638.0,3.3,1,
58638,1808.8,304.9,210.2,28.4,2970.0,11702.8,3.3,1,
58761,1879.5,371.1,208.8,24.3,2966.0,11532.0,2.8,1,
58886,1865.0,384.1,217.1,23.4,3022.0,11678.8,3.0,1,
59142,1882.7,24.4,226.4,23.3,3022.0,11678.8,3.0,1,
59267,1857.5,26.3,226.4,25.4,3022.0,11678.8,3.0,1,
59390,1856.6,24.1,226.5,39.7,3022.0,11678.8,3.0,1,
59513,1861.1,24.1,226.5,239.9,3022.0,11678.8,3.0,1,
59638,1860.5,22.3,226.5,240.0,3022.0,11678.8,3.0,1,
59763,1862.0,22.8,226.4,240.0,3022.0,11678.8,3.0,1,
59888,1860.9,22.5,226.5,240.0,3022.0,11678.8,3.0,1,
60013,1860.2,203.5,226.4,240.0,369.0,2061.3,2.3,1,
60138,1861.7,257.8,222.4,176.4,1221.0,4592.3,4.0,1,
60392,1894.4,266.7,213.4,35.8,3056.0,12197.5,2.8,1,
60517,1802.8,312.6,208.1,28.9,3025.0,12144.3,3.3,1,
60642,1872.1,35.2,201.3,28.1,3027.0,11966.5,2.8,1,
60767,1866.8,25.6,201.5,28.3,3027.0,11966.5,2.8,1,
60890,1858.7,23.0,201.5,26.0,3027.0,11966.5,2.8,1,
61015,1858.1,25.0,201.4,28.7,3027.0,11966.5,2.8,1,
61139,1861.7,26.1,201.5,240.0,3027.0,11966.5,2.8,1,
61262,1863.5,24.0,201.4,240.0,3027.0,11966.5,2.8,1,
61387,1859.5,25.4,201.5,240.0,3027.0,11966.5,2.8,1,
61642,1861.3,212.5,201.6,240.0,873.0,3740.8,2.8,1,
61765,1871.0,265.7,209.1,37.9,2702.0,11173.5,3.3,1,
61890,1845.8,286.3,216.2,34.4,3109.0,13738.5,2.5,1,
62015,1853.2,278.0,222.6,34.3,3055.0,13060.3,2.5,1,
62140,1884.2,303.4,219.9,24.0,3042.0,12202.0,2.8,1,
62265,1834.6,38.2,221.4,28.5,3043.0,11826.8,2.8,1,
62389,1884.7,27.9,223.5,36.2,3043.0,11826.8,2.8,1,
62512,1860.9,25.4,223.5,34.2,3043.0,11826.8,2.8,1,
62635,1859.4,28.1,223.5,35.5,3043.0,11826.8,2.8,1,
62889,1861.7,27.2,223.6,240.1,3043.0,11826.8,2.8,1,
63014,1861.2,26.6,223.5,240.0,3043.0,11826.8,2.8,1,
63139,1861.2,27.2,223.6,240.0,3043.0,11826.8,2.8,1,
63264,1861.6,252.4,223.6,240.0,512.0,2608.8,3.0,1,
63389,1861.7,211.8,224.3,77.3,1515.0,5800.3,4.0,1,
63514,1861.7,374.2,215.1,26.6,2864.0,12403.0,3.0,1,
63639,1817.7,265.8,221.8,26.9,2944.0,12649.3,2.8,1,
63764,1864.6,301.4,225.7,30.0,2874.0,12033.8,2.8,1,
63889,1874.6,37.0,227.7,28.9,2966.0,11764.8,2.8,1,
64142,1858.4,28.1,226.2,25.1,2966.0,11764.8,2.8,1,
64267,1858.6,29.1,226.3,39.7,2966.0,11764.8,2.8,1,
64391,1861.4,27.3,226.3,240.0,2966.0,11764.8,2.8,1,
64514,1860.9,26.1,226.3,240.1,2966.0,11764.8,2.8,1,
64639,1861.6,27.6,226.3,240.1,2966.0,11764.8,2.8,1,
64762,1862.8,27.2,226.3,240.1,2966.0,11764.8,2.8,1,
64888,1862.1,332.6,226.3,240.1,800.0,3765.8,3.0,1,
65013,1865.6,165.8,228.3,47.1,1789.0,6727.8,3.0,1,
65138,1856.7,272.6,233.5,35.4,2671.0,10768.8,2.8,1,
65392,1861.3,184.9,219.5,29.8,2722.0,11080.0,2.8,1,
65517,1865.7,32.1,211.5,27.3,2800.0,10658.0,2.8,1,
65642,1861.2,30.5,211.5,23.7,2800.0,10658.0,2.8,1,
65768,1861.3,30.2,211.6,24.5,2800.0,10658.0,2.8,1,
65892,1859.6,27.3,211.6,70.6,2800.0,10658.0,2.8,1,
66016,1861.0,28.9,211.6,239.8,2800.0,10658.0,2.8,1,
66139,1861.8,26.4,211.6,240.0,2800.0,10658.0,2.8,1,
66262,1861.7,28.0,211.6,240.1,2800.0,10658.0,2.8,1,
66385,1861.7,28.1,211.6,240.1,2800.0,10658.0,2.8,1,
66642,1860.4,312.9,198.6,98.8,2748.0,11416.8,2.8,1,
66767,1876.1,199.9,212.6,35.2,2995.0,12239.5,2.5,1,
66891,1833.1,270.4,215.4,44.0,3039.0,12154.3,3.0,1,
67015,1861.1,257.8,216.2,36.4,2882.0,11668.8,3.0,1,
67140,1866.7,35.4,211.3,29.3,2882.0,11668.8,3.0,1,
67264,1862.4,27.4,211.4,24.6,2882.0,11668.8,3.0,1,
67388,1859.3,28.6,211.3,29.9,2882.0,11668.8,3.0,1,
67515,1859.0,28.4,211.3,53.6,2882.0,11668.8,3.0,1,
67639,1862.2,27.1,211.3,240.0,2882.0,11668.8,3.0,1,
67892,1861.0,29.0,211.4,240.0,2882.0,11668.8,3.0,1,
68017,1861.9,48.8,211.4,240.0,2882.0,11668.8,3.0,1,
68141,1863.7,324.2,211.8,240.0,1897.0,7733.5,3.0,1,
68266,1854.7,308.9,229.6,40.8,2801.0,11457.8,2.8,1,
68390,1850.0,273.2,214.9,25.9,3094.0,12369.0,2.8,1,
68513,1868.9,250.6,223.6,24.2,2938.0,11630.3,2.8,1,
68638,1895.2,166.0,219.0,24.0,2910.0,11625.8,2.8,1,
68765,1822.1,36.4,218.1,23.4,2910.0,11625.8,2.8,1,
68890,1883.0,31.9,218.2,24.1,2910.0,11625.8,2.8,1,
69145,1860.4,31.1,218.2,239.6,2910.0,11625.8,2.8,1,
69270,1860.8,31.7,218.3,240.0,2910.0,11625.8,2.8,1,
69395,1862.0,32.0,218.3,240.1,2910.0,11625.8,2.8,1,
69520,1862.5,30.8,218.4,240.1,2910.0,11625.8,2.8,1,
69645,1862.6,176.0,218.4,240.0,2910.0,11625.8,2.8,1,
69770,1861.0,344.3,221.4,240.0,1363.0,5693.0,3.3,1,
69893,1859.8,212.0,217.2,35.7,2746.0,11474.5,2.5,1,
70018,1860.6,352.9,211.3,34.5,2782.0,12110.8,2.8,1,
70143,1844.5,384.3,208.8,26.2,2798.0,11523.3,2.8,1,
70399,1868.1,36.5,219.6,28.6,2798.0,11523.3,2.8,1,
70522,1863.7,32.4,219.6,26.0,2798.0,11523.3,2.8,1,
70646,1859.9,31.1,219.6,28.1,2798.0,11523.3,2.8,1,
70771,1859.8,34.3,219.6,239.3,2798.0,11523.3,2.8,1,
70896,1862.3,35.4,219.6,240.0,2798.0,11523.3,2.8,1,
71021,1862.1,33.4,219.7,240.0,2798.0,11523.3,2.8,1,
71146,1863.2,32.4,219.7,240.0,2798.0,11523.3,2.8,1,
71269,1860.8,152.2,219.7,240.0,2798.0,11523.3,2.8,1,
71392,1859.8,209.4,221.8,239.9,671.0,2412.5,4.8,1,
71651,1855.7,293.0,223.6,29.9,3047.0,13580.3,3.0,1,
71776,1857.5,287.1,228.3,34.6,2992.0,13209.0,3.0,1,
71900,1905.0,104.8,224.5,27.9,2962.0,12759.5,2.5,1,
72023,1806.9,35.8,223.4,24.3,2962.0,12759.5,2.5,1,
72146,1859.9,33.1,223.4,34.2,2962.0,12759.5,2.5,1,
72270,1860.2,34.0,223.5,47.2,2962.0,12759.5,2.5,1,
72395,1857.9,30.9,223.5,239.8,2962.0,12759.5,2.5,1,
72520,1862.1,33.6,223.5,240.1,2962.0,12759.5,2.5,1,
72643,1862.1,32.0,223.4,240.1,2962.0,12759.5,2.5,1,
72898,1860.8,306.2,223.4,240.1,545.0,2583.8,5.8,1,
73023,1860.1,240.8,229.8,239.8,1200.0,4428.3,4.8,1,
73148,1846.2,353.5,238.3,43.0,2871.0,12995.3,2.5,1,
73273,1902.0,342.8,236.8,24.2,2960.0,11992.0,2.8,1,
73398,1813.4,366.4,225.6,23.7,2878.0,12264.0,3.0,1,
73522,1878.4,91.2,229.8,25.3,2928.0,11036.0,2.8,1,
73647,1867.6,33.0,231.9,28.7,2928.0,11036.0,2.8,1,
73772,1860.3,33.5,231.9,25.9,2928.0,11036.0,2.8,1,
73897,1859.3,32.7,231.9,25.8,2928.0,11036.0,2.8,1,
74153,1861.1,31.6,231.9,240.1,2928.0,11036.0,2.8,1,
74278,1861.1,32.6,231.9,240.1,2928.0,11036.0,2.8,1,
74403,1861.9,31.3,231.9,240.1,2928.0,11036.0,2.8,1,
74529,1861.1,215.3,231.9,240.1,605.0,2741.5,5.8,1,
74653,1865.5,277.7,220.4,239.9,1201.0,7230.5,4.5,1,
74778,1855.3,319.1,215.0,30.1,3024.0,13667.8,2.8,1,
74902,1863.7,272.2,214.0,24.1,2962.0,12289.3,3.0,1,
75025,1861.9,313.0,215.4,26.2,2704.0,11297.8,3.0,1,
75150,1816.9,74.8,204.0,29.7,2763.0,10507.0,2.8,1,
75406,1860.9,33.5,200.6,27.6,2763.0,10507.0,2.8,1,
75528,1859.5,32.7,200.6,45.2,2763.0,10507.0,2.8,1,
75651,1862.4,33.8,200.5,239.9,2763.0,10507.0,2.8,1,
75776,1860.8,33.1,200.5,240.1,2763.0,10507.0,2.8,1,
75901,1859.7,33.7,200.6,240.1,2763.0,10507.0,2.8,1,
76026,1860.6,33.1,200.6,240.1,2763.0,10507.0,2.8,1,
76151,1861.4,73.8,200.6,240.1,782.0,3263.8,5.3,1,
76278,1861.9,220.8,200.0,239.9,1376.0,4630.3,4.8,1,
76401,1850.9,236.4,195.7,35.1,2521.0,12205.5,2.8,1,
76657,1874.1,313.6,185.2,34.9,2890.0,11355.8,2.8,1,
76783,1872.3,56.1,188.1,24.2,2750.0,10517.0,3.0,1,
76908,1867.2,34.3,183.5,28.1,2750.0,10517.0,3.0,1,
77031,1862.4,33.2,183.6,34.9,2750.0,10517.0,3.0,1,
77156,1859.5,32.8,183.7,39.8,2750.0,10517.0,3.0,1,
77281,1859.5,33.3,183.7,239.8,2750.0,10517.0,3.0,1,
77404,1861.3,33.0,183.7,240.1,2750.0,10517.0,3.0,1,
77527,1862.8,32.6,183.6,240.1,2750.0,10517.0,3.0,1,
77650,1861.6,34.3,183.6,240.1,2750.0,10517.0,3.0,1,
77907,1867.9,381.8,179.5,239.8,1475.0,7240.8,4.3,1,
78032,1850.1,388.7,190.3,34.9,2532.0,11487.5,2.8,1,
78157,1863.5,174.3,190.7,37.1,2640.0,10796.0,3.0,1,
78282,1879.6,160.3,188.8,43.6,2941.0,11641.3,2.5,1,
78407,1824.1,52.6,180.7,35.5,2861.0,10981.3,2.8,1,
78530,1867.4,33.4,185.7,24.1,2861.0,10981.3,2.8,1,
78655,1859.8,33.1,185.7,25.3,2861.0,10981.3,2.8,1,
78779,1859.7,32.8,185.6,42.9,2861.0,10981.3,2.8,1,
78904,1861.1,32.7,185.6,240.0,2861.0,10981.3,2.8,1,
79159,1860.2,34.4,185.7,240.1,2861.0,10981.3,2.8,1,
79283,1861.4,33.9,185.7,240.1,2861.0,10981.3,2.8,1,
79409,1862.0,271.3,185.7,240.1,779.0,3251.3,5.3,1,
79534,1861.4,257.1,204.3,142.8,1734.0,7235.5,3.8,1,
79659,1889.7,344.4,198.7,29.0,2699.0,12241.5,2.5,1,
79784,1810.6,347.2,206.1,27.6,2957.0,12711.3,2.8,1,
79907,1868.9,283.4,222.9,22.7,2992.0,12173.8,2.8,1,
80031,1873.5,50.5,228.5,22.7,2994.0,12209.8,2.8,1,
80156,1874.3,34.1,225.4,23.1,2994.0,12209.8,2.8,1,
80410,1860.0,31.5,225.4,82.8,2994.0,12209.8,2.8,1,
80533,1859.2,33.9,225.4,240.1,2994.0,12209.8,2.8,1,
80658,1862.1,33.1,225.4,240.1,2994.0,12209.8,2.8,1,
80781,1861.2,34.4,225.4,240.1,2994.0,12209.8,2.8,1,
80906,1862.1,32.1,225.4,240.1,2994.0,12209.8,2.8,1,
81031,1861.3,142.8,225.4,240.2,916.0,3890.0,4.8,1,
81156,1857.1,275.0,218.0,178.6,2202.0,10969.8,3.0,1,
81281,1858.3,338.9,227.5,34.5,2994.0,12253.5,2.8,1,
81406,1863.8,288.4,232.8,29.0,2801.0,11445.0,3.0,1,
81661,1859.6,45.1,224.9,29.1,2913.0,11229.8,3.0,1,
81789,1882.3,32.8,224.3,24.3,2913.0,11229.8,3.0,1,
81913,1859.4,35.3,224.2,26.4,2913.0,11229.8,3.0,1,
82037,1860.2,33.7,224.3,77.6,2913.0,11229.8,3.0,1,
82160,1860.4,32.6,224.2,240.1,2913.0,11229.8,3.0,1,
82283,1861.8,34.4,224.3,240.1,2913.0,11229.8,3.0,1,
82408,1862.5,33.6,224.2,240.1,2913.0,11229.8,3.0,1,
82535,1861.6,32.4,224.3,240.1,2913.0,11229.8,3.0,1,
82661,1861.9,389.5,224.2,240.1,1307.0,5525.5,5.0,1,
82916,1880.9,346.6,221.8,30.0,3009.0,12302.8,2.5,1,
83041,1869.4,332.6,211.8,26.2,2889.0,11938.0,2.8,1,
83168,1873.6,236.2,213.6,23.5,2872.0,11920.5,3.3,1,
83293,1854.4,39.4,211.7,23.2,2993.0,11659.8,2.8,1,
83418,1879.0,34.2,211.6,25.7,2993.0,11659.8,2.8,1,
83541,1857.4,34.1,211.8,29.8,2993.0,11659.8,2.8,1,
83664,1858.3,33.9,211.8,148.5,2993.0,11659.8,2.8,1,
83789,1860.4,33.9,211.8,239.8,2993.0,11659.8,2.8,1,
83914,1861.5,32.7,211.8,240.1,2993.0,11659.8,2.8,1,
84169,1861.2,31.0,211.8,240.1,2993.0,11659.8,2.8,1,
84292,1861.0,200.2,212.2,240.1,1673.0,7788.0,3.8,1,
84418,1858.4,295.7,209.0,48.1,2760.0,13297.3,2.8,1,
84543,1860.2,209.6,213.2,26.1,2909.0,11907.5,2.8,1,
84668,1859.9,227.3,204.9,24.8,2998.0,11949.8,2.8,1,
84793,1872.5,278.1,209.1,29.0,2903.0,11029.0,3.3,1,
84918,1838.1,39.9,224.4,29.9,2903.0,11029.0,3.3,1,
85041,1859.5,33.9,224.4,26.9,2903.0,11029.0,3.3,1,
85165,1858.5,33.7,224.3,27.9,2903.0,11029.0,3.3,1,
85422,1861.6,32.4,224.2,240.0,2903.0,11029.0,3.3,1,
85545,1861.7,33.1,224.2,240.1,2903.0,11029.0,3.3,1,
85669,1861.3,33.0,224.2,240.1,2903.0,11029.0,3.3,1,
85792,1861.9,106.5,224.2,240.1,2903.0,11029.0,3.3,1,
85918,1861.1,229.9,225.2,240.1,1679.0,7359.8,4.5,1,
86043,1867.5,319.4,214.3,108.6,2720.0,12810.0,2.5,1,
86169,1848.6,345.6,214.3,39.5,2927.0,12419.3,2.8,1,
86294,1851.4,254.8,224.7,35.1,2990.0,12287.0,2.5,1,
86419,1876.0,127.4,223.0,24.0,2924.0,11384.3,3.0,1,
86675,1861.8,34.6,209.3,28.0,2924.0,11384.3,3.0,1,
86800,1859.6,32.0,209.3,29.6,2924.0,11384.3,3.0,1,
86926,1861.3,32.8,209.3,239.6,2924.0,11384.3,3.0,1,
87050,1862.2,33.5,209.4,240.1,2924.0,11384.3,3.0,1,
87175,1863.2,33.3,209.3,240.1,2924.0,11384.3,3.0,1,
87300,1862.2,36.0,209.4,240.1,2924.0,11384.3,3.0,1,
87425,1861.8,85.4,209.4,240.1,2924.0,11384.3,3.0,1,
87550,1864.5,214.8,205.9,240.0,1190.0,4112.3,4.8,1,
87676,1855.7,367.1,214.9,41.5,2589.0,11912.8,2.8,1,
87931,1852.5,227.5,210.4,23.8,2910.0,12846.3,2.8,1,
88056,1818.9,125.7,208.2,28.2,2902.0,12339.8,2.8,1,
88181,1879.9,38.8,208.7,27.8,2902.0,12339.8,2.8,1,
88306,1879.1,32.7,208.7,28.2,2902.0,12339.8,2.8,1,
88428,1859.1,34.6,208.7,36.2,2902.0,12339.8,2.8,1,
88551,1860.2,33.1,208.7,239.8,2902.0,12339.8,2.8,1,
88674,1863.4,34.9,208.7,240.1,2902.0,12339.8,2.8,1,
88799,1860.3,35.4,208.7,240.1,2902.0,12339.8,2.8,1,
88924,1861.1,34.4,208.7,240.1,2902.0,12339.8,2.8,1,
89180,1861.2,159.0,215.5,240.0,2008.0,8765.8,3.5,1,
89305,1854.6,231.6,198.8,34.9,2890.0,12095.3,2.8,1,
89433,1882.4,318.8,177.6,29.7,2733.0,11370.5,2.8,1,
89558,1875.7,353.7,186.1,26.1,2767.0,11477.5,2.8,1,
89684,1869.9,100.7,184.7,24.2,2865.0,11441.5,2.8,1,
89809,1881.2,35.8,185.9,28.5,2865.0,11441.5,2.8,1,
89932,1849.4,36.4,185.9,28.2,2865.0,11441.5,2.8,1,
90057,1860.1,35.2,185.9,28.5,2865.0,11441.5,2.8,1,
90182,1862.0,34.7,185.9,239.6,2865.0,11441.5,2.8,1,
90437,1860.1,34.8,186.0,240.1,2865.0,11441.5,2.8,1,
90560,1861.0,34.0,186.0,240.1,2865.0,11441.5,2.8,1,
90685,1862.2,244.5,186.0,240.1,638.0,3124.5,5.5,1,
90810,1861.6,221.3,187.8,239.8,2184.0,9647.5,3.0,1,
90935,1856.7,288.3,195.2,43.2,2885.0,11956.5,3.0,1,
91060,1864.0,376.4,202.0,27.1,2785.0,11408.5,3.0,1,
91185,1899.2,176.5,216.2,28.0,2821.0,11620.5,3.0,1,
91309,1814.2,74.6,210.3,27.7,2816.0,11517.8,3.0,1,
91433,1871.6,36.5,206.3,25.5,2816.0,11517.8,3.0,1,
91689,1859.3,35.0,206.3,42.1,2816.0,11517.8,3.0,1,
91814,1858.4,35.3,206.3,240.0,2816.0,11517.8,3.0,1,
91939,1862.6,35.1,206.4,240.1,2816.0,11517.8,3.0,1,
92063,1861.3,35.3,206.3,240.1,2816.0,11517.8,3.0,1,
92188,1862.4,35.6,206.3,240.1,2816.0,11517.8,3.0,1,
92313,1861.4,95.5,206.3,240.1,800.0,3038.3,5.3,1,
92440,1849.7,210.5,202.9,239.7,2206.0,10294.5,2.8,1,
92565,1908.4,320.3,204.0,43.0,3000.0,12130.0,2.8,1,
92689,1804.2,303.2,211.9,34.4,2893.0,11411.8,2.5,1,
92944,1876.7,57.4,220.7,22.4,2864.0,11746.3,2.8,1,
93069,1854.4,34.8,218.6,22.8,2864.0,11746.3,2.8,1,
93191,1861.0,34.8,218.5,23.9,2864.0,11746.3,2.8,1,
93315,1859.2,36.5,218.5,37.6,2864.0,11746.3,2.8,1,
93437,1861.7,35.5,218.5,239.9,2864.0,11746.3,2.8,1,
93560,1862.4,34.5,218.5,240.1,2864.0,11746.3,2.8,1,
93685,1862.1,33.6,218.6,240.1,2864.0,11746.3,2.8,1,
93810,1861.4,35.4,218.5,240.1,2864.0,11746.3,2.8,1,
93936,1860.5,197.8,218.6,240.1,896.0,3336.5,5.3,1,
94191,1860.3,305.8,214.7,41.8,2825.0,11364.3,2.5,1,
94317,1865.0,360.3,206.5,25.6,2722.0,10651.0,3.3,1,
94442,1819.9,435.0,203.9,24.1,2584.0,10513.3,2.8,1,
94567,1871.5,56.5,199.1,22.8,2591.0,10556.0,3.0,1,
94692,1878.5,35.3,199.6,23.5,2591.0,10556.0,3.0,1,
94816,1860.2,34.8,199.8,29.3,2591.0,10556.0,3.0,1,
94939,1859.5,35.5,199.7,44.6,2591.0,10556.0,3.0,1,
95062,1859.9,35.9,199.7,240.0,2591.0,10556.0,3.0,1,
95187,1861.0,34.0,199.7,240.1,2591.0,10556.0,3.0,1,
95443,1861.6,35.5,199.8,240.1,2591.0,10556.0,3.0,1,
95568,1860.9,115.1,199.8,240.1,1006.0,4404.3,5.0,1,
95692,1847.5,246.9,197.6,239.4,2268.0,10222.0,2.8,1,
95818,1902.8,296.7,200.8,34.3,2811.0,11554.8,2.8,1,
95943,1883.3,304.5,200.0,25.1,2749.0,11196.3,2.8,1,
96068,1871.2,243.7,198.1,22.9,2576.0,10588.0,2.8,1,
96193,1865.8,49.8,185.6,23.4,2596.0,10524.3,2.8,1,
96317,1865.1,36.4,187.2,24.3,2596.0,10524.3,2.8,1,
96440,1859.7,35.5,187.1,28.1,2596.0,10524.3,2.8,1,
96695,1858.9,37.4,187.1,240.1,2596.0,10524.3,2.8,1,
96818,1861.5,35.3,187.2,240.1,2596.0,10524.3,2.8,1,
96943,1862.4,35.7,187.2,240.1,2596.0,10524.3,2.8,1,
97068,1860.9,35.1,187.2,240.1,2596.0,10524.3,2.8,1,
97191,1863.1,196.5,187.1,240.1,1413.0,5698.5,4.8,1,
97317,1858.9,242.5,200.2,238.6,2584.0,12187.0,2.8,1,
97442,1861.3,237.8,199.0,28.1,2711.0,11244.0,2.8,1,
97567,1882.6,225.6,193.1,28.5,2845.0,11453.5,3.0,1,
97692,1822.7,237.5,182.5,29.3,2643.0,10143.0,2.8,1,
97947,1869.3,35.1,183.0,38.2,2643.0,10143.0,2.8,1,
98072,1859.0,35.0,183.0,39.1,2643.0,10143.0,2.8,1,
98197,1858.6,35.5,183.0,84.6,2643.0,10143.0,2.8,1,
98322,1862.1,36.6,182.9,240.1,2643.0,10143.0,2.8,1,
98447,1861.3,35.2,182.9,240.1,2643.0,10143.0,2.8,1,
98570,1860.5,36.2,182.9,240.1,2643.0,10143.0,2.8,1,
98693,1860.8,36.9,183.0,240.1,2643.0,10143.0,2.8,1,
98817,1861.2,216.8,183.0,240.1,1014.0,3979.3,5.0,1,
98943,1876.6,307.9,171.1,239.3,2329.0,11495.3,2.8,1,
99199,1872.0,238.1,183.2,28.0,2803.0,11707.3,2.8,1,
99323,1878.6,284.1,195.9,29.1,2751.0,10917.0,2.8,1,
99448,1868.6,40.5,195.7,29.6,2627.0,10586.3,2.8,1,
99573,1869.1,35.6,195.6,35.0,2627.0,10586.3,2.8,1,
99698,1861.0,34.8,195.6,28.0,2627.0,10586.3,2.8,1,
99823,1859.3,36.4,195.6,233.4,2627.0,10586.3,2.8,1,
99946,1860.8,36.0,195.6,240.0,2627.0,10586.3,2.8,1,
100069,1858.7,36.8,195.7,240.1,2627.0,10586.3,2.8,1,
100192,1859.1,35.7,195.7,240.1,2627.0,10586.3,2.8,1,
100447,1861.4,267.3,195.6,240.1,1441.0,5954.5,4.8,1,
100572,1855.0,249.1,201.1,238.9,2419.0,11622.5,2.8,1,
100698,1865.8,173.3,201.4,45.6,2601.0,10196.3,2.8,1,
100821,1870.1,282.6,191.5,36.5,2643.0,10084.0,2.8,1,
100946,1863.8,248.2,194.7,35.2,2544.0,10246.0,2.8,1,
101071,1875.0,41.1,188.2,28.4,2646.0,10710.8,3.0,1,
101196,1869.8,37.2,188.2,23.7,2646.0,10710.8,3.0,1,
101320,1858.3,36.1,188.2,25.4,2646.0,10710.8,3.0,1,
101445,1860.2,36.4,188.2,71.0,2646.0,10710.8,3.0,1,
101699,1860.4,35.1,188.1,240.1,2646.0,10710.8,3.0,1,
101824,1861.0,36.3,188.1,240.1,2646.0,10710.8,3.0,1,
101949,1861.1,89.7,188.1,240.1,2646.0,10710.8,3.0,1,
102074,1860.8,230.3,193.6,240.0,1396.0,5594.0,4.3,1,
102199,1870.2,237.0,199.6,40.9,2902.0,12296.0,2.5,1,
102322,1846.8,239.0,205.3,24.4,2668.0,10955.5,3.0,1,
102447,1876.6,263.6,210.7,23.3,2705.0,10800.0,2.5,1,
102572,1852.1,188.6,204.4,23.8,2749.0,10797.8,2.8,1,
102697,1895.0,37.8,206.6,28.1,2749.0,10797.8,2.8,1,
102950,1858.7,35.6,206.6,40.1,2749.0,10797.8,2.8,1,
103073,1860.8,34.3,206.6,239.3,2749.0,10797.8,2.8,1,
103198,1861.0,34.9,206.6,240.1,2749.0,10797.8,2.8,1,
103323,1861.7,35.3,206.6,240.1,2749.0,10797.8,2.8,1,
103448,1860.0,35.0,206.6,240.1,2749.0,10797.8,2.8,1,
103573,1862.3,129.5,206.6,240.1,2749.0,10797.8,2.8,1,
103697,1859.9,205.4,203.8,240.1,1444.0,5705.8,4.3,1,
103820,1859.5,227.8,190.5,85.3,2785.0,12598.8,2.8,1,
103945,1858.0,240.9,181.2,30.2,2636.0,10779.0,2.8,1,
104199,1847.3,171.7,176.1,24.3,2731.0,10615.0,2.8,1,
104324,1873.0,38.4,173.6,29.7,2731.0,10615.0,2.8,1,
104448,1858.8,35.1,173.7,28.1,2731.0,10615.0,2.8,1,
104571,1859.5,35.6,173.7,27.5,2731.0,10615.0,2.8,1,
104695,1857.9,36.8,173.7,238.8,2731.0,10615.0,2.8,1,
104820,1860.8,36.6,173.7,240.1,2731.0,10615.0,2.8,1,
104945,1860.2,35.4,173.8,240.1,2731.0,10615.0,2.8,1,
105070,1861.1,34.3,173.7,240.1,2731.0,10615.0,2.8,1,
105195,1861.8,209.1,173.7,240.1,2731.0,10615.0,2.8,1,
105450,1870.9,181.0,171.5,51.8,2697.0,12310.5,2.8,1,
105575,1837.0,256.1,164.1,34.7,2775.0,11021.5,3.0,1,
105700,1879.2,288.8,164.1,23.5,2758.0,10961.5,3.0,1,
105825,1860.2,134.7,163.4,24.3,2647.0,9992.3,2.8,1,
105949,1840.3,35.7,165.1,29.4,2647.0,9992.3,2.8,1,
106072,1858.4,35.6,165.1,34.5,2647.0,9992.3,2.8,1,
106197,1860.9,35.0,165.1,35.7,2647.0,9992.3,2.8,1,
106320,1859.3,35.9,165.0,237.8,2647.0,9992.3,2.8,1,
106443,1860.2,36.2,165.0,240.1,2647.0,9992.3,2.8,1,
106700,1862.3,35.6,165.0,240.1,2647.0,9992.3,2.8,1,
106827,1861.0,194.4,165.0,240.1,923.0,4339.8,5.3,1,
106953,1858.5,283.5,174.7,239.9,2205.0,10089.8,2.8,1,
107078,1861.2,253.8,196.0,37.3,2816.0,11699.5,3.3,1,
107201,1848.8,320.7,199.6,26.1,2797.0,11413.3,2.8,1,
107326,1897.9,195.3,210.0,23.7,2633.0,10620.5,3.0,1,
107450,1877.4,99.4,208.8,24.6,2726.0,10499.5,3.0,1,
107575,1870.1,37.0,205.5,27.4,2726.0,10499.5,3.0,1,
107699,1864.4,34.9,205.5,30.1,2726.0,10499.5,3.0,1,
107954,1861.3,35.2,205.4,239.9,2726.0,10499.5,3.0,1,
108077,1861.0,35.7,205.4,240.1,2726.0,10499.5,3.0,1,
108200,1861.7,34.9,205.5,240.1,2726.0,10499.5,3.0,1,
108323,1860.5,35.8,205.5,240.1,2726.0,10499.5,3.0,1,
108451,1860.9,235.0,205.5,240.1,599.0,2820.5,5.0,1,
108578,1852.4,294.2,203.8,239.9,2020.0,8619.3,3.0,1,
108702,1881.2,206.3,200.7,36.9,2869.0,12397.8,2.8,1,
108827,1828.9,285.3,205.2,24.1,2819.0,11505.3,2.8,1,
108951,1870.9,300.7,199.1,23.4,2716.0,11141.3,3.0,1,
109207,1819.7,37.2,205.3,22.9,2716.0,11141.3,3.0,1,
109332,1887.3,36.1,205.3,28.7,2716.0,11141.3,3.0,1,
109456,1858.8,35.5,205.3,43.5,2716.0,11141.3,3.0,1,
109580,1860.6,36.0,205.3,239.9,2716.0,11141.3,3.0,1,
109705,1861.0,35.6,205.3,240.1,2716.0,11141.3,3.0,1,
109828,1861.0,33.9,205.3,240.1,2716.0,11141.3,3.0,1,
109951,1862.6,36.0,205.3,240.1,2716.0,11141.3,3.0,1,
110076,1861.8,182.9,205.3,240.1,700.0,3458.3,5.0,1,
110201,1862.3,267.9,197.4,240.0,2040.0,8783.5,3.3,1,
110456,1905.5,332.9,195.2,34.4,2722.0,11020.5,2.8,1,
110581,1812.7,291.6,201.3,29.6,2833.0,11482.5,2.8,1,
110706,1874.9,67.8,198.3,26.1,2760.0,11087.8,2.8,1,
110831,1874.6,37.1,192.9,23.8,2760.0,11087.8,2.8,1,
110956,1858.7,34.0,192.9,36.7,2760.0,11087.8,2.8,1,
111078,1857.4,35.5,192.9,53.9,2760.0,11087.8,2.8,1,
111201,1862.0,35.1,192.9,239.9,2760.0,11087.8,2.8,1,
111326,1862.9,35.0,192.8,240.1,2760.0,11087.8,2.8,1,
111451,1862.8,34.8,192.8,240.1,2760.0,11087.8,2.8,1,
111706,1861.9,142.4,192.8,240.1,664.0,2931.3,5.3,1,
111831,1861.6,208.8,193.8,240.0,2142.0,9313.5,2.8,1,
111956,1846.1,260.8,196.8,47.9,2874.0,12069.0,2.5,1,
112081,1858.6,309.5,190.9,24.3,2769.0,11343.8,2.8,1,
112208,1874.7,193.0,199.3,22.4,2732.0,11533.3,3.3,1,
112333,1878.0,57.9,196.9,22.9,2752.0,11157.3,3.0,1,
112458,1892.9,37.4,197.3,24.3,2752.0,11157.3,3.0,1,
112581,1859.1,34.8,197.3,30.2,2752.0,11157.3,3.0,1,
112706,1860.1,34.2,197.3,130.6,2752.0,11157.3,3.0,1,
112963,1860.1,35.9,197.4,240.1,2752.0,11157.3,3.0,1,
113088,1862.4,35.5,197.4,240.1,2752.0,11157.3,3.0,1,
113211,1862.4,35.4,197.4,240.1,2752.0,11157.3,3.0,1,
113336,1862.0,151.6,197.4,240.1,768.0,3557.3,5.0,1,
113461,1860.9,126.2,195.3,239.9,2401.0,10685.3,3.0,1,
113586,1863.8,279.0,192.6,42.3,2639.0,10407.8,3.0,1,
113711,1887.4,306.0,188.7,28.9,2546.0,10400.5,3.0,1,
113836,1876.2,379.3,160.8,24.7,2379.0,9646.8,3.0,1,
113960,1871.3,54.9,185.9,27.8,2476.0,9932.3,2.8,1,
114213,1861.2,34.3,183.4,29.5,2476.0,9932.3,2.8,1,
114338,1860.5,36.4,183.4,45.5,2476.0,9932.3,2.8,1,
114463,1860.5,35.5,183.4,240.0,2476.0,9932.3,2.8,1,
114588,1861.1,36.3,183.4,240.1,2476.0,9932.3,2.8,1,
114711,1860.4,36.6,183.3,240.1,2476.0,9932.3,2.8,1,
114836,1861.7,35.9,183.4,240.1,2476.0,9932.3,2.8,1,
114962,1861.6,196.1,183.4,240.1,914.0,4098.0,4.8,1,
115089,1869.2,212.6,186.9,239.7,2395.0,10322.5,2.5,1,
115215,1844.0,269.7,189.9,34.9,2576.0,10044.8,2.8,1,
115470,1867.6,228.1,210.2,25.9,2351.0,9577.3,3.0,1,
115597,1843.9,44.0,200.0,24.1,2411.0,9396.0,2.8,1,
115721,1884.9,35.8,198.9,25.6,2411.0,9396.0,2.8,1,
115846,1860.2,35.9,199.0,34.2,2411.0,9396.0,2.8,1,
115969,1860.5,35.0,198.9,238.6,2411.0,9396.0,2.8,1,
116092,1860.6,37.7,198.9,240.1,2411.0,9396.0,2.8,1,
116215,1859.9,35.2,198.9,240.1,2411.0,9396.0,2.8,1,
116341,1860.6,35.4,198.9,240.1,2411.0,9396.0,2.8,1,
116466,1862.2,34.8,198.9,240.1,2411.0,9396.0,2.8,1,
116722,1860.8,289.9,200.3,239.3,2563.0,11276.3,2.8,1,
116847,1880.6,263.8,199.4,27.1,2459.0,9634.8,2.8,1,
116972,1827.9,261.3,186.1,23.6,2385.0,9696.3,2.8,1,
117097,1872.9,164.5,164.0,23.8,2341.0,9500.0,3.0,1,
117222,1872.2,37.9,160.6,34.9,2356.0,8859.5,3.0,1,
117347,1863.4,34.3,160.3,29.1,2356.0,8859.5,3.0,1,
117470,1859.9,36.9,160.2,27.5,2356.0,8859.5,3.0,1,
117595,1860.6,36.1,160.2,239.4,2356.0,8859.5,3.0,1,
117718,1861.5,35.5,160.2,240.1,2356.0,8859.5,3.0,1,
117973,1862.3,35.0,160.2,240.1,2356.0,8859.5,3.0,1,
118098,1860.5,35.9,160.3,240.1,2356.0,8859.5,3.0,1,
118221,1860.8,293.3,160.3,240.1,991.0,4338.8,3.0,1,
118348,1853.2,271.0,165.4,239.6,2633.0,11442.5,3.0,1,
118473,1853.1,271.3,165.5,39.5,2532.0,10216.0,2.8,1,
118599,1877.4,262.0,167.9,29.7,2424.0,10104.0,2.5,1,
118724,1865.8,188.2,178.2,30.1,2439.0,9854.5,3.0,1,
118849,1858.3,38.5,185.3,28.7,2533.0,9945.3,2.5,1,
118972,1885.0,37.8,185.3,24.8,2533.0,9945.3,2.5,1,
119229,1859.8,35.5,185.4,238.6,2533.0,9945.3,2.5,1,
119354,1860.8,35.5,185.4,240.1,2533.0,9945.3,2.5,1,
119479,1860.8,36.0,185.4,240.1,2533.0,9945.3,2.5,1,
119602,1863.4,36.5,185.3,240.1,2533.0,9945.3,2.5,1,
119727,1861.9,62.6,185.3,240.1,2533.0,9945.3,2.5,1,
119852,1862.7,197.4,186.3,240.1,1795.0,8380.8,2.8,1,
119977,1859.6,229.0,180.2,237.9,2652.0,11255.0,2.3,1,
120102,1872.6,217.8,177.7,26.4,2511.0,9663.5,3.3,1,
120227,1834.5,203.6,170.5,25.6,2433.0,9289.5,2.8,1,
120481,1852.4,40.0,153.5,24.0,2433.0,9289.5,2.8,1,
120605,1881.7,34.9,153.6,25.3,2433.0,9289.5,2.8,1,
120729,1859.7,36.5,153.6,30.0,2433.0,9289.5,2.8,1,
120854,1860.2,34.2,153.6,116.1,2433.0,9289.5,2.8,1,
120979,1861.0,34.5,153.6,240.1,2433.0,9289.5,2.8,1,
121103,1861.7,34.6,153.5,240.1,2433.0,9289.5,2.8,1,
121228,1862.4,35.7,153.5,240.1,2433.0,9289.5,2.8,1,
121351,1860.0,151.9,153.5,240.1,2433.0,9289.5,2.8,1,
121477,1861.9,200.3,158.2,240.1,597.0,2415.3,2.5,1,
121733,1858.0,307.9,159.6,26.9,2792.0,11264.3,2.8,1,
121857,1862.0,183.8,173.1,24.0,2642.0,10588.0,3.0,1,
121984,1871.3,116.6,176.9,28.6,2531.0,10353.5,3.0,1,
122109,1843.6,38.1,175.8,29.0,2531.0,10353.5,3.0,1,
122234,1886.8,33.7,175.8,24.4,2531.0,10353.5,3.0,1,
122359,1859.8,34.5,175.8,28.3,2531.0,10353.5,3.0,1,
122482,1860.2,32.9,175.8,239.3,2531.0,10353.5,3.0,1,
122607,1862.1,34.2,175.8,240.1,2531.0,10353.5,3.0,1,
122732,1860.8,35.3,175.8,240.1,2531.0,10353.5,3.0,1,
122987,1860.8,69.5,175.8,240.1,416.0,2103.8,5.3,1,
123112,1861.1,92.3,172.0,240.1,1554.0,6344.5,4.5,1,
123237,1862.4,248.9,169.5,43.0,2495.0,11372.0,2.8,1,
123362,1849.4,271.9,165.5,26.9,2657.0,11070.8,2.8,1,
123487,1856.3,296.3,167.0,28.6,2643.0,10355.0,3.0,1,
123613,1875.4,94.6,179.3,29.4,2565.0,10515.5,3.0,1,
123738,1869.0,35.8,179.6,25.2,2565.0,10515.5,3.0,1,
123861,1860.3,34.7,179.6,24.3,2565.0,10515.5,3.0,1,
123986,1860.2,34.5,179.6,25.6,2565.0,10515.5,3.0,1,
124242,1863.4,36.4,179.5,240.1,2565.0,10515.5,3.0,1,
124365,1861.1,33.3,179.6,240.1,2565.0,10515.5,3.0,1,
124488,1861.7,32.5,179.5,240.1,2565.0,10515.5,3.0,1,
124611,1862.5,229.6,179.5,240.1,439.0,2124.8,5.3,1,
124738,1864.0,183.2,193.6,239.9,1309.0,5033.5,4.8,1,
124863,1860.3,256.6,203.8,30.1,2539.0,11417.3,3.0,1,
124988,1857.6,317.0,198.7,29.6,2704.0,11263.3,3.0,1,
125111,1852.9,288.6,198.5,29.7,2720.0,10441.8,2.8,1,
125234,1897.5,90.5,193.3,29.2,2610.0,10906.0,2.8,1,
125487,1857.8,34.7,190.1,25.4,2610.0,10906.0,2.8,1,
125610,1859.2,34.4,190.2,38.9,2610.0,10906.0,2.8,1,
125733,1859.8,34.7,190.2,239.9,2610.0,10906.0,2.8,1,
125979,1861.5,33.4,190.2,240.1,2610.0,10906.0,2.8,1,
126350,1862.3,254.3,183.0,240.0,1973.0,9150.5,3.5,1,
126473,1859.3,230.2,174.2,35.6,2838.0,12612.3,2.8,1,
126724,1845.8,279.9,177.6,26.3,2706.0,10379.5,3.0,1,
126847,1870.3,87.1,181.2,24.1,2593.0,10451.3,2.8,1,
126972,1866.4,34.2,177.8,27.6,2593.0,10451.3,2.8,1,
127095,1860.5,34.3,177.8,28.4,2593.0,10451.3,2.8,1,
127219,1860.2,33.6,177.7,43.1,2593.0,10451.3,2.8,1,
127342,1862.0,36.1,177.7,239.9,2593.0,10451.3,2.8,1,
127465,1861.8,35.0,177.7,240.1,2593.0,10451.3,2.8,1,
127588,1862.2,33.6,177.7,240.1,2593.0,10451.3,2.8,1,
127711,1862.0,35.0,177.7,240.1,2593.0,10451.3,2.8,1,
127968,1865.8,260.0,184.1,239.9,1606.0,7754.0,3.8,1,
128091,1856.0,248.7,190.5,36.1,2757.0,12521.0,2.8,1,
128215,1860.3,239.7,188.7,24.6,2861.0,11365.0,2.8,1,
128340,1901.2,292.7,190.5,23.1,2761.0,10675.3,2.8,1,
128465,1821.7,74.1,195.1,23.4,2642.0,10371.3,2.8,1,
128593,1875.2,37.5,194.5,24.4,2642.0,10371.3,2.8,1,
128718,1875.8,35.7,194.5,26.7,2642.0,10371.3,2.8,1,
128841,1859.8,34.8,194.5,27.1,2642.0,10371.3,2.8,1,
128966,1861.5,33.6,194.5,239.8,2642.0,10371.3,2.8,1,
129222,1861.7,33.7,194.5,240.1,2642.0,10371.3,2.8,1,
129348,1862.3,35.3,194.5,240.1,2642.0,10371.3,2.8,1,
129471,1862.3,202.0,194.4,240.1,495.0,2284.8,5.8,1,
129596,1861.2,213.0,197.2,239.7,1095.0,5085.5,4.8,1,
129721,1849.9,303.8,189.3,30.1,2495.0,11103.0,3.0,1,
129846,1812.3,296.9,191.6,29.4,2871.0,11356.5,3.3,1,
129971,1880.6,212.5,192.2,29.0,2638.0,10541.0,2.8,1,
130096,1872.0,69.3,184.8,23.0,2667.0,10244.3,3.0,1,
130219,1875.8,36.6,185.9,23.8,2667.0,10244.3,3.0,1,
130472,1860.1,33.6,185.9,38.6,2667.0,10244.3,3.0,1,
130599,1860.8,31.9,185.9,240.0,2667.0,10244.3,3.0,1,
145380,1862.3,34.0,39.6,240.1,2667.0,10244.3,3.0,0,
145505,1862.3,34.0,39.9,240.1,2667.0,10244.3,3.0,0,
145630,1862.1,33.9,39.9,240.1,2667.0,10244.3,3.0,0,
145755,1861.0,33.4,39.7,240.1,2667.0,10244.3,3.0,0,
145879,1861.5,34.1,39.6,240.1,2667.0,10244.3,3.0,0,
146002,1861.1,36.1,39.5,240.1,2667.0,10244.3,3.0,0,
146127,1860.5,34.4,39.5,240.1,2667.0,10244.3,3.0,0,
146383,1860.7,34.2,39.5,240.1,2667.0,10244.3,3.0,0,
146508,1860.7,33.5,39.7,240.1,2667.0,10244.3,3.0,0,
146631,1860.6,33.3,39.7,240.1,2667.0,10244.3,3.0,0,
146755,1861.9,34.9,39.7,240.1,2667.0,10244.3,3.0,0,
146879,1861.5,32.3,39.8,240.1,2667.0,10244.3,3.0,0,
147004,1861.0,33.5,39.7,240.1,2667.0,10244.3,3.0,0,
147129,1862.5,35.3,39.7,240.1,2667.0,10244.3,3.0,0,
147254,1861.5,33.8,39.8,240.1,2667.0,10244.3,3.0,0,
147379,1860.8,34.9,40.0,240.1,2667.0,10244.3,3.0,0,
147632,1861.8,34.2,40.3,240.1,2667.0,10244.3,3.0,0,
147757,1862.4,35.6,40.4,240.1,2667.0,10244.3,3.0,0,
147882,1859.7,35.7,40.3,240.1,2667.0,10244.3,3.0,0,
148007,1861.1,35.8,40.5,240.1,2667.0,10244.3,3.0,0,
148130,1861.9,33.3,40.6,240.1,2667.0,10244.3,3.0,0,
148254,1861.0,34.6,40.7,240.1,2667.0,10244.3,3.0,0,
148381,1862.2,35.1,40.8,240.1,2667.0,10244.3,3.0,0,
148506,1861.2,35.2,40.9,240.1,2667.0,10244.3,3.0,0,
148629,1862.2,33.2,41.1,240.1,2667.0,10244.3,3.0,0,
148882,1861.9,35.1,41.0,240.1,2667.0,10244.3,3.0,0,
149007,1860.2,34.2,41.0,240.1,2667.0,10244.3,3.0,0,
149132,1861.4,33.0,40.8,240.1,2667.0,10244.3,3.0,0,
149257,1861.8,33.9,40.7,240.1,2667.0,10244.3,3.0,0,
149382,1860.7,33.8,40.5,240.1,2667.0,10244.3,3.0,0,
149507,1861.9,35.5,40.5,240.1,2667.0,10244.3,3.0,0,
149630,1860.8,32.9,40.5,240.1,2667.0,10244.3,3.0,0,
149756,1862.2,35.1,40.4,240.1,2667.0,10244.3,3.0,0,
149881,1862.6,33.4,40.4,240.1,2667.0,10244.3,3.0,0,
150136,1863.0,34.2,40.3,240.1,2667.0,10244.3,3.0,0,
150259,1862.0,34.6,40.2,240.1,2667.0,10244.3,3.0,0,
150382,1860.8,34.8,40.2,240.1,2667.0,10244.3,3.0,0,
150505,1860.9,33.4,40.3,240.1,2667.0,10244.3,3.0,0,
150630,1861.4,33.6,40.2,240.1,2667.0,10244.3,3.0,0,
150755,1862.4,33.9,40.3,240.1,2667.0,10244.3,3.0,0,
150880,1859.9,33.0,40.4,240.1,2667.0,10244.3,3.0,0,
151005,1861.2,99.9,40.5,240.1,352.0,1800.3,3.0,1,
151129,1859.4,142.3,75.9,238.8,305.0,1792.5,3.0,1,
151383,1864.1,35.2,112.9,28.0,305.0,1792.5,3.0,1,
151505,1861.9,33.2,112.9,28.4,305.0,1792.5,3.0,1,
151629,1861.7,33.4,112.9,36.0,305.0,1792.5,3.0,1,
151753,1861.2,34.9,112.9,239.3,305.0,1792.5,3.0,1,
151878,1861.8,34.5,113.0,240.1,305.0,1792.5,3.0,1,
152001,1860.3,35.8,112.9,240.1,305.0,1792.5,3.0,1,
152126,1862.7,35.0,113.0,240.1,305.0,1792.5,3.0,1,
152249,1861.3,118.1,113.0,240.1,305.0,1792.5,3.0,1,
152375,1862.8,193.0,118.1,240.0,1572.0,7204.5,3.0,1,
152629,1842.0,40.5,149.3,34.5,2516.0,11587.0,2.5,1,
152753,1876.3,35.4,137.2,29.6,2516.0,11587.0,2.5,1,
152878,1860.3,34.6,126.9,29.5,2516.0,11587.0,2.5,1,
153003,1860.9,32.6,110.0,39.0,2516.0,11587.0,2.5,1,
153128,1861.1,34.3,110.0,240.1,2516.0,11587.0,2.5,1,
153253,1860.7,33.2,110.0,240.1,2516.0,11587.0,2.5,1,
153378,1861.4,32.4,110.0,240.1,2516.0,11587.0,2.5,1,
153501,1862.3,34.8,110.0,240.1,2516.0,11587.0,2.5,1,
153627,1860.8,259.9,109.9,240.1,1311.0,5963.5,5.0,1,
153884,1816.1,115.7,149.5,29.7,2649.0,10833.0,2.8,1,
154009,1875.1,238.0,155.9,27.0,2754.0,10930.8,2.5,1,
154132,1876.0,226.0,162.7,28.3,2519.0,10468.3,3.0,1,
154257,1884.6,42.7,164.6,28.0,2658.0,10396.5,2.8,1,
154382,1864.1,35.9,164.7,29.4,2658.0,10396.5,2.8,1,
154505,1856.4,33.7,164.8,36.5,2658.0,10396.5,2.8,1,
154628,1860.1,34.8,164.8,238.9,2658.0,10396.5,2.8,1,
154753,1861.0,35.5,164.8,240.0,2658.0,10396.5,2.8,1,
154878,1860.4,34.4,164.8,240.0,2658.0,10396.5,2.8,1,
155132,1861.0,42.5,164.9,240.0,2658.0,10396.5,2.8,1,
155258,1860.0,171.9,165.5,240.0,1529.0,7178.5,3.3,1,
155383,1859.1,250.4,163.5,207.8,2437.0,11961.3,2.5,1,
155508,1859.5,284.8,163.5,26.1,2544.0,10529.5,2.8,1,
155631,1867.2,219.5,173.6,24.1,2636.0,10120.5,2.8,1,
155756,1863.3,218.4,179.8,26.2,2663.0,10474.5,3.3,1,
155881,1873.5,40.6,174.6,28.8,2663.0,10474.5,3.3,1,
156005,1876.1,36.8,174.6,29.8,2663.0,10474.5,3.3,1,
156129,1857.9,35.7,174.6,36.1,2663.0,10474.5,3.3,1,
156383,1860.8,34.6,174.7,240.0,2663.0,10474.5,3.3,1,
156508,1860.6,36.9,174.7,240.1,2663.0,10474.5,3.3,1,
156633,1859.8,35.6,174.7,240.1,2663.0,10474.5,3.3,1,
156758,1861.5,145.7,174.7,240.1,2663.0,10474.5,3.3,1,
156883,1862.3,201.6,177.3,240.0,1845.0,8609.5,2.8,1,
157008,1870.1,295.0,171.4,55.1,2594.0,12111.5,2.8,1,
157131,1831.3,172.3,169.4,29.9,2484.0,9805.0,3.3,1,
157256,1879.8,212.5,155.8,28.0,2493.0,9474.3,2.5,1,
157384,1852.0,119.9,159.8,25.1,2351.0,9178.8,3.0,1,
157639,1857.1,34.4,166.3,25.4,2351.0,9178.8,3.0,1,
157762,1858.3,35.8,166.3,35.2,2351.0,9178.8,3.0,1,
157885,1861.6,35.2,166.2,239.3,2351.0,9178.8,3.0,1,
158010,1862.0,34.8,166.2,240.0,2351.0,9178.8,3.0,1,
158133,1862.0,35.2,166.1,240.1,2351.0,9178.8,3.0,1,
158258,1861.3,36.3,166.1,240.1,2351.0,9178.8,3.0,1,
158383,1861.8,137.8,166.1,240.1,2351.0,9178.8,3.0,1,
158509,1860.5,211.7,164.6,240.0,1991.0,9354.3,2.8,1,
158632,1856.8,241.8,163.0,234.9,2737.0,11867.0,2.5,1,
158890,1864.4,199.6,170.9,34.9,2440.0,9420.3,2.8,1,
159015,1854.6,108.5,160.8,29.7,2352.0,9350.8,2.8,1,
159139,1873.2,37.7,155.6,25.9,2352.0,9350.8,2.8,1,
159262,1858.0,35.0,155.7,25.5,2352.0,9350.8,2.8,1,
159389,1861.4,34.6,155.6,42.2,2352.0,9350.8,2.8,1,
159514,1859.9,34.6,155.7,239.8,2352.0,9350.8,2.8,1,
159639,1862.1,34.0,155.6,240.1,2352.0,9350.8,2.8,1,
159764,1861.5,34.2,155.7,240.1,2352.0,9350.8,2.8,1,
159890,1861.7,36.4,155.7,240.0,2352.0,9350.8,2.8,1,
160145,1862.8,312.5,164.0,240.0,2123.0,10086.3,2.8,1,
160272,1845.6,319.1,186.7,29.4,2690.0,11988.3,2.5,1,
160397,1854.3,288.6,186.2,25.4,2612.0,9969.5,2.8,1,
160520,1881.6,270.3,187.9,25.8,2493.0,9655.0,2.8,1,
160643,1892.5,95.0,194.8,29.8,2572.0,10280.8,2.8,1,
160767,1850.9,36.3,191.5,28.0,2572.0,10280.8,2.8,1,
160891,1859.2,36.5,191.5,29.9,2572.0,10280.8,2.8,1,
161016,1859.8,36.3,191.6,43.7,2572.0,10280.8,2.8,1,
161141,1860.5,36.3,191.6,239.8,2572.0,10280.8,2.8,1,
161393,1859.4,35.8,191.6,240.1,2572.0,10280.8,2.8,1,
161518,1862.1,36.1,191.6,240.1,2572.0,10280.8,2.8,1,
161643,1862.8,90.2,191.6,240.1,877.0,4009.5,5.5,1,
161770,1857.7,219.2,183.1,240.0,1826.0,8846.8,2.8,1,
161895,1863.3,273.8,163.2,87.7,2642.0,11757.8,2.8,1,
162019,1851.0,273.1,167.5,26.5,2507.0,10014.8,3.0,1,
162142,1847.2,272.1,175.3,24.2,2376.0,9712.8,2.8,1,
162267,1877.3,76.2,170.2,24.8,2513.0,9669.0,3.0,1,
162392,1866.7,38.2,169.5,26.2,2513.0,9669.0,3.0,1,
162646,1860.7,34.9,169.5,39.1,2513.0,9669.0,3.0,1,
162769,1861.2,35.6,169.5,239.9,2513.0,9669.0,3.0,1,
162892,1861.9,37.0,169.5,240.0,2513.0,9669.0,3.0,1,
163017,1861.6,35.1,169.5,240.0,2513.0,9669.0,3.0,1,
163142,1863.2,36.4,169.5,240.1,2513.0,9669.0,3.0,1,
163267,1860.3,132.3,169.5,240.1,1421.0,7264.5,4.3,1,
163393,1861.2,262.8,171.4,240.0,2680.0,11566.0,2.5,1,
163518,1845.3,184.9,181.3,42.0,2585.0,10364.5,3.3,1,
163641,1879.5,188.2,183.0,25.5,2464.0,9884.0,3.0,1,
163897,1886.6,63.9,177.9,24.1,2431.0,9662.8,2.8,1,
164022,1822.1,37.9,178.7,23.9,2431.0,9662.8,2.8,1,
164147,1859.6,36.3,178.7,24.0,2431.0,9662.8,2.8,1,
164270,1859.0,35.8,178.7,36.0,2431.0,9662.8,2.8,1,
164393,1860.5,36.5,178.7,239.8,2431.0,9662.8,2.8,1,
164518,1862.7,35.2,178.7,240.1,2431.0,9662.8,2.8,1,
164643,1861.0,35.7,178.6,240.1,2431.0,9662.8,2.8,1,
164768,1862.3,37.6,178.7,240.0,2431.0,9662.8,2.8,1,
164893,1862.4,203.7,178.7,240.1,1169.0,5182.8,5.5,1,
165153,1847.6,297.8,171.7,28.0,2733.0,10835.5,3.0,1,
165278,1888.7,240.8,182.2,24.2,2498.0,9836.0,3.0,1,
165403,1836.9,374.9,181.0,24.2,2442.0,9816.3,3.0,1,
165528,1875.2,48.3,183.3,29.4,2443.0,9737.3,2.5,1,
165651,1867.3,35.9,177.4,35.5,2443.0,9737.3,2.5,1,
165774,1860.9,35.1,177.4,37.6,2443.0,9737.3,2.5,1,
165901,1859.5,36.6,177.4,43.7,2443.0,9737.3,2.5,1,
166025,1860.8,37.0,177.4,239.9,2443.0,9737.3,2.5,1,
166150,1861.4,35.8,177.4,240.0,2443.0,9737.3,2.5,1,
166403,1862.6,36.1,177.4,240.0,2443.0,9737.3,2.5,1,
166530,1862.6,185.0,177.3,240.1,1913.0,8527.3,3.0,1,
166656,1860.3,268.3,167.8,239.6,2818.0,12053.3,2.8,1,
166780,1838.8,200.5,181.3,35.6,2521.0,10033.3,2.8,1,
166905,1887.1,247.5,170.7,34.7,2353.0,9762.0,3.0,1,
167030,1865.5,177.8,174.5,27.8,2374.0,9018.8,2.8,1,
167153,1827.8,45.8,175.0,24.3,2446.0,9268.0,2.8,1,
167278,1886.0,38.9,177.1,24.0,2446.0,9268.0,2.8,1,
167402,1858.1,37.9,177.2,26.2,2446.0,9268.0,2.8,1,
167657,1862.7,35.2,177.2,240.0,2446.0,9268.0,2.8,1,
167781,1861.3,36.5,177.2,240.0,2446.0,9268.0,2.8,1,
167906,1862.4,34.6,177.2,240.0,2446.0,9268.0,2.8,1,
168031,1861.1,36.1,177.3,240.0,2446.0,9268.0,2.8,1,
168157,1862.4,235.6,177.3,240.0,1746.0,8538.0,3.0,1,
168282,1857.0,212.4,192.1,91.6,2616.0,12204.8,2.8,1,
168407,1844.8,229.1,186.1,26.1,2704.0,10826.3,2.5,1,
168531,1893.3,217.1,191.0,25.9,2419.0,9811.0,2.8,1,
168656,1878.2,305.0,193.1,28.8,2422.0,9730.0,3.0,1,
168914,1867.4,35.4,193.7,27.9,2422.0,9730.0,3.0,1,
169038,1861.3,36.3,193.7,29.9,2422.0,9730.0,3.0,1,
169161,1861.4,35.2,193.6,40.0,2422.0,9730.0,3.0,1,
169285,1862.3,33.9,193.6,240.0,2422.0,9730.0,3.0,1,
169410,1861.6,36.0,193.6,240.1,2422.0,9730.0,3.0,1,
169535,1862.8,36.9,193.5,240.0,2422.0,9730.0,3.0,1,
169660,1861.9,36.4,193.5,240.0,2422.0,9730.0,3.0,1,
169785,1861.8,237.9,193.5,240.0,1889.0,9228.3,2.5,1,
169911,1875.6,280.1,173.8,239.2,2558.0,11375.8,2.8,1,
170167,1876.3,148.1,190.7,29.1,2521.0,9930.3,3.0,1,
170294,1877.3,211.0,178.7,25.0,2411.0,9887.0,2.5,1,
170419,1826.6,40.7,167.0,24.4,2411.0,9887.0,2.5,1,
170542,1859.2,37.4,167.0,29.5,2411.0,9887.0,2.5,1,
170667,1861.4,35.6,167.0,37.0,2411.0,9887.0,2.5,1,
170791,1860.7,33.5,167.0,239.7,2411.0,9887.0,2.5,1,
170915,1862.5,34.5,167.0,240.0,2411.0,9887.0,2.5,1,
171038,1862.9,36.2,167.0,240.1,2411.0,9887.0,2.5,1,
171163,1862.0,33.9,167.0,240.0,2411.0,9887.0,2.5,1,
171419,1862.3,216.1,167.8,240.0,2163.0,9840.0,2.8,1,
171544,1847.2,264.1,182.6,79.1,2761.0,11708.0,3.0,1,
171669,1896.0,187.5,179.4,39.2,2548.0,10103.5,2.5,1,
171794,1822.9,200.0,162.5,29.2,2368.0,9797.8,2.8,1,
171918,1874.4,189.8,166.1,39.7,2522.0,10641.0,2.8,1,
172041,1868.1,38.7,175.9,36.7,2522.0,10641.0,2.8,1,
172164,1861.8,34.8,175.9,36.4,2522.0,10641.0,2.8,1,
172289,1860.1,35.9,175.9,36.7,2522.0,10641.0,2.8,1,
172414,1860.6,34.7,175.9,238.9,2522.0,10641.0,2.8,1,
172667,1861.8,35.0,176.0,240.1,2522.0,10641.0,2.8,1,
172790,1860.5,34.6,176.0,240.0,2522.0,10641.0,2.8,1,
172914,1861.2,92.1,176.0,240.1,2522.0,10641.0,2.8,1,
173040,1883.7,218.7,175.9,240.0,2509.0,11473.5,2.8,1,
173166,1810.1,312.0,158.9,239.4,2800.0,11236.3,2.8,1,
173291,1878.9,274.4,163.5,35.2,2595.0,10814.5,2.5,1,
173416,1876.3,278.1,168.6,28.9,2678.0,10476.0,2.5,1,
173540,1826.4,123.7,169.3,24.9,2625.0,10138.8,2.8,1,
173664,1877.7,38.3,159.7,25.3,2625.0,10138.8,2.8,1,
173917,1860.3,34.1,159.7,36.5,2625.0,10138.8,2.8,1,
174044,1860.9,35.9,159.7,239.7,2625.0,10138.8,2.8,1,
174167,1860.2,36.7,159.7,240.0,2625.0,10138.8,2.8,1,
174290,1861.7,33.8,159.7,240.1,2625.0,10138.8,2.8,1,
174414,1861.4,35.5,159.7,240.1,2625.0,10138.8,2.8,1,
174541,1860.2,35.2,159.8,240.0,2625.0,10138.8,2.8,1,
174666,1862.5,35.2,158.7,240.1,2625.0,10138.8,2.8,1,
174791,1860.0,35.2,149.2,240.1,2625.0,10138.8,2.8,1,
174916,1860.8,34.7,125.0,240.1,2625.0,10138.8,2.8,1,
175169,1859.8,34.6,72.0,240.1,2625.0,10138.8,2.8,1,
175294,1862.5,34.7,41.5,240.1,2625.0,10138.8,2.8,1,
175419,1862.6,32.7,41.2,240.1,2625.0,10138.8,2.8,1,
175544,1862.4,33.4,41.2,240.1,2625.0,10138.8,2.8,1,
175669,1858.8,33.0,40.9,240.1,2625.0,10138.8,2.8,1,medium
175792,1859.8,33.3,40.7,240.0,2625.0,10138.8,2.8,1,
175917,1862.3,32.7,40.3,240.1,2625.0,10138.8,2.8,1,
176042,1861.5,32.8,40.2,240.1,2625.0,10138.8,2.8,1,
176167,1861.4,33.7,40.0,240.1,2625.0,10138.8,2.8,1,
176421,1860.5,32.6,39.6,240.1,2625.0,10138.8,2.8,1,
176546,1861.3,32.8,39.3,240.1,2625.0,10138.8,2.8,1,
