Time(ms),Raw_ADC,ENV_Value,RMS,MDF,MW_Amp,MW_Area,MW_Latency,MW_Valid,Marker
0,1862.4,36.7,0.0,0.0,0.0,0.0,0.0,0,
100,1859.6,37.6,0.0,0.0,0.0,0.0,0.0,0,
200,1860.2,39.8,0.0,0.0,0.0,0.0,0.0,0,
300,1859.2,39.5,0.0,0.0,0.0,0.0,0.0,0,
417,1860.7,42.6,0.0,298.5,0.0,0.0,0.0,0,
517,1852.4,265.2,0.0,283.4,4031.0,12763.0,2.0,0,
617,1877.5,437.3,0.0,88.3,4095.0,13416.0,2.0,0,
717,1966.2,150.4,0.0,73.4,4095.0,12616.0,2.0,0,
817,1830.6,268.7,0.0,45.6,4095.0,13271.0,2.0,0,
917,1860.3,332.9,0.0,50.1,4095.0,11953.0,2.0,0,
1017,1890.8,180.1,0.0,46.4,4095.0,13536.0,2.0,0,
1117,1875.2,88.7,0.0,41.5,4095.0,12496.0,2.0,0,
1217,1855.4,43.5,0.0,48.6,4095.0,12496.0,2.0,0,
1317,1871.5,43.8,0.0,72.4,4095.0,12496.0,2.0,0,
1417,1865.2,40.9,0.0,74.8,4095.0,12496.0,2.0,0,
1517,1860.2,39.3,218.9,178.7,4095.0,12496.0,2.0,0,
1618,1863.3,41.4,218.9,299.2,4095.0,12496.0,2.0,0,
1718,1860.9,41.5,218.9,298.6,4095.0,12496.0,2.0,0,
1818,1860.5,39.5,218.9,298.0,4095.0,12496.0,2.0,0,
1918,1860.8,43.9,218.9,298.6,4095.0,12496.0,2.0,0,
2018,1860.5,42.9,218.9,299.3,4095.0,12496.0,2.0,0,
2118,1857.3,75.5,221.2,298.7,3097.0,10103.0,2.0,0,
2218,1946.1,264.6,223.6,239.7,4095.0,14333.0,2.0,0,
2318,1824.3,295.9,212.0,114.4,4095.0,12505.0,2.0,0,
2518,1902.2,188.1,205.6,48.5,4095.0,12789.0,2.0,0,
2618,1884.0,266.7,205.3,69.5,4095.0,12269.0,2.0,0,
2718,1895.3,87.7,202.9,41.5,4095.0,13597.0,2.0,0,
2818,1863.0,46.3,202.8,57.0,4095.0,13597.0,2.0,0,
2918,1860.4,43.1,202.9,107.2,4095.0,13597.0,2.0,0,
3018,1858.2,42.4,203.0,144.9,4095.0,13597.0,2.0,0,
3118,1860.0,43.0,203.0,197.4,4095.0,13597.0,2.0,0,
3218,1860.8,45.6,203.0,284.1,4095.0,13597.0,2.0,0,
3318,1860.9,43.6,203.1,297.0,4095.0,13597.0,2.0,0,
3518,1859.4,44.7,203.2,242.4,4095.0,13597.0,2.0,0,
3618,1859.6,42.3,203.3,298.0,4095.0,13597.0,2.0,0,
3718,1878.5,233.3,206.5,280.3,4095.0,13597.0,2.0,0,
3818,1853.8,202.8,205.5,41.0,4095.0,14170.0,2.0,0,
3918,1915.2,170.8,213.3,38.8,4095.0,13125.0,2.0,0,
4018,1894.0,220.7,210.2,41.6,4095.0,12957.0,2.0,0,
4118,1921.0,312.1,206.3,81.2,4095.0,12920.0,2.0,0,
4218,1893.8,145.5,206.7,130.3,4095.0,13616.0,2.0,0,
4318,1886.1,154.0,215.8,80.8,4095.0,13274.0,2.0,0,
4518,1860.1,41.0,215.8,75.8,4095.0,13274.0,2.0,0,
4618,1858.6,44.0,215.8,90.0,4095.0,13274.0,2.0,0,
4718,1860.3,41.9,215.8,200.1,4095.0,13274.0,2.0,0,
4818,1860.8,40.5,215.7,298.4,4095.0,13274.0,2.0,0,
4918,1862.0,41.8,215.7,297.9,4095.0,13274.0,2.0,0,
5018,1858.8,42.6,215.6,280.1,4095.0,13274.0,2.0,0,
5118,1860.1,42.4,215.6,298.4,4095.0,13274.0,2.0,0,
5218,1856.3,45.7,215.6,298.9,4095.0,13274.0,2.0,0,
5318,1860.0,50.9,215.7,298.4,4095.0,13274.0,2.0,0,
5518,1896.5,361.7,200.9,46.2,4095.0,14002.0,2.0,0,
5618,1946.5,162.0,209.7,40.4,4095.0,13173.0,2.0,0,
5718,1856.7,164.6,215.6,48.2,4095.0,12759.0,2.0,0,
5818,1891.3,277.7,217.9,70.3,4080.0,12941.0,2.0,0,
5918,1910.9,296.2,205.7,41.2,4095.0,13309.0,2.0,0,
6018,1880.6,64.9,216.3,44.3,3969.0,11607.0,2.0,0,
6118,1865.1,43.7,216.2,81.5,3969.0,11607.0,2.0,0,
6218,1862.0,40.9,216.2,75.0,3969.0,11607.0,2.0,0,
6318,1860.7,39.7,216.1,55.8,3969.0,11607.0,2.0,0,
6518,1859.8,43.5,216.1,298.3,3969.0,11607.0,2.0,0,
6618,1859.6,41.5,216.1,298.5,3969.0,11607.0,2.0,0,
6718,1859.1,40.2,216.0,298.1,3969.0,11607.0,2.0,0,
6818,1858.8,41.9,215.9,298.1,3969.0,11607.0,2.0,0,
6918,1859.6,40.8,215.8,298.4,3969.0,11607.0,2.0,0,
7018,1877.8,86.0,228.6,43.0,3791.0,15352.0,3.0,1,
7118,1961.2,216.7,234.5,34.6,3917.0,12769.0,2.0,0,
7218,1818.3,247.1,231.6,40.2,4095.0,12643.0,2.0,0,
7318,1909.9,258.5,225.4,44.1,4095.0,12690.0,2.0,0,
7518,1905.1,209.4,237.7,72.4,3889.0,12384.0,2.0,0,
7618,1883.3,70.1,233.4,71.5,4095.0,12836.0,2.0,0,
7718,1860.5,47.2,233.5,73.1,4095.0,12836.0,2.0,0,
7818,1858.0,42.2,233.5,94.5,4095.0,12836.0,2.0,0,
7918,1858.5,41.5,233.6,158.7,4095.0,12836.0,2.0,0,
8018,1858.6,39.6,233.7,240.2,4095.0,12836.0,2.0,0,
8118,1861.8,39.0,233.6,241.1,4095.0,12836.0,2.0,0,
8218,1858.4,42.3,233.7,241.0,4095.0,12836.0,2.0,0,
8318,1860.1,39.4,233.6,294.4,4095.0,12836.0,2.0,0,
8518,1859.4,43.2,233.6,298.4,4095.0,12836.0,2.0,0,
8618,1911.2,241.9,224.4,296.3,3470.0,11782.0,3.0,1,
8718,1829.3,176.5,218.9,98.7,4095.0,13917.0,2.0,0,
8818,1926.5,163.9,218.4,65.9,4031.0,13049.0,2.0,0,
8918,1912.1,190.3,221.6,72.8,3865.0,12444.0,2.0,0,
9018,1884.9,330.6,213.9,135.7,4095.0,12973.0,2.0,0,
9118,1952.2,185.0,205.6,108.2,4015.0,13008.0,2.0,0,
9218,1869.5,121.5,212.2,46.5,3878.0,12182.0,2.0,0,
9318,1861.2,57.4,212.4,70.7,3878.0,12182.0,2.0,0,
9518,1858.8,51.7,212.6,138.0,3878.0,12182.0,2.0,0,
9618,1855.7,51.0,212.8,239.3,3878.0,12182.0,2.0,0,
9718,1865.5,48.3,212.9,298.8,3878.0,12182.0,2.0,0,
9818,1861.6,53.0,213.1,298.5,3878.0,12182.0,2.0,0,
9918,1860.5,50.2,213.3,298.2,3878.0,12182.0,2.0,0,
10018,1859.5,49.8,213.4,298.3,3878.0,12182.0,2.0,0,
10118,1859.4,52.1,213.6,298.3,3878.0,12182.0,2.0,0,
10218,1849.7,60.0,213.9,297.9,3139.0,10500.0,3.0,1,
10318,1884.7,226.4,215.1,123.3,3730.0,13850.0,2.0,0,
10518,1905.7,219.1,222.6,88.9,3901.0,11866.0,2.0,0,
10618,1932.3,177.0,227.7,86.1,3649.0,12252.0,2.0,0,
10718,1873.9,295.2,234.3,71.3,3686.0,11695.0,2.0,0,
10818,1886.8,184.8,232.6,48.0,3925.0,12846.0,2.0,0,
10918,1874.0,56.0,232.5,71.1,3925.0,12846.0,2.0,0,
11018,1860.0,48.3,232.4,91.1,3925.0,12846.0,2.0,0,
11118,1855.5,48.7,232.4,89.3,3925.0,12846.0,2.0,0,
11218,1856.3,51.8,232.4,76.4,3925.0,12846.0,2.0,0,
11318,1859.7,51.1,232.4,274.4,3925.0,12846.0,2.0,0,
11518,1856.9,51.5,232.4,281.9,3925.0,12846.0,2.0,0,
11618,1857.0,53.8,232.4,281.4,3925.0,12846.0,2.0,0,
11718,1857.7,51.5,232.5,298.3,3925.0,12846.0,2.0,0,
11818,1858.8,162.8,232.5,298.6,3925.0,12846.0,2.0,0,
11918,1877.7,279.8,234.6,157.1,3823.0,12427.0,2.0,0,
12018,1930.6,132.1,232.7,36.5,3725.0,12585.0,2.0,0,
12118,1876.7,235.9,229.1,30.2,3600.0,12516.0,2.0,0,
12218,1898.7,321.6,227.1,48.0,3504.0,11006.0,2.0,0,
12318,1924.1,212.0,216.2,72.5,3653.0,11831.0,2.0,0,
12518,1871.9,58.7,216.2,105.9,3583.0,11409.0,2.0,0,
12618,1860.5,54.9,216.2,158.0,3583.0,11409.0,2.0,0,
12718,1859.3,48.7,216.3,188.5,3583.0,11409.0,2.0,0,
12818,1855.2,53.1,216.3,205.2,3583.0,11409.0,2.0,0,
12918,1857.1,57.0,216.4,240.9,3583.0,11409.0,2.0,0,
13018,1860.2,55.8,216.6,298.0,3583.0,11409.0,2.0,0,
13118,1860.6,53.5,216.7,298.3,3583.0,11409.0,2.0,0,
13218,1860.9,54.5,216.7,298.2,3583.0,11409.0,2.0,0,
13318,1860.2,55.9,216.7,298.0,3583.0,11409.0,2.0,0,
13518,1927.8,259.2,217.7,221.1,2953.0,10407.0,2.0,0,
13618,1826.7,287.6,218.3,43.9,3822.0,14963.0,2.0,0,
13718,1924.5,239.7,213.9,46.1,3682.0,12533.0,2.0,0,
13818,1919.5,223.2,227.6,72.8,3575.0,11943.0,2.0,0,
13918,1895.9,288.7,239.5,71.6,3483.0,11697.0,2.0,0,
14018,1940.2,389.0,241.8,41.8,3634.0,12241.0,2.0,0,
14118,1849.6,98.0,250.9,67.0,3535.0,11835.0,2.0,0,
14218,1858.0,63.9,251.2,81.5,3535.0,11835.0,2.0,0,
14318,1858.6,57.9,251.3,82.7,3535.0,11835.0,2.0,0,
14518,1859.7,51.7,251.3,212.1,3535.0,11835.0,2.0,0,
14618,1859.5,52.0,251.1,265.1,3535.0,11835.0,2.0,0,
14718,1859.3,50.6,251.0,299.4,3535.0,11835.0,2.0,0,
14818,1859.4,51.2,251.0,299.6,3535.0,11835.0,2.0,0,rest_end
14918,1859.2,51.3,250.9,299.6,3535.0,11835.0,2.0,0,
15018,1860.2,52.1,250.8,299.3,3535.0,11835.0,2.0,0,
15118,1846.8,70.7,244.4,298.4,3620.0,15871.0,3.0,1,
15218,1904.1,185.2,239.5,71.1,3687.0,14125.0,2.0,0,
15319,1910.5,237.1,242.6,99.7,3678.0,12923.0,2.0,0,
15519,1978.0,156.7,218.0,92.8,3951.0,12535.0,2.0,0,
15619,1852.1,274.5,218.6,72.6,4095.0,16316.0,2.0,0,
15719,1896.3,77.0,197.7,69.8,4095.0,15415.0,3.0,1,
15819,1861.1,57.2,197.6,42.0,4095.0,15415.0,3.0,1,
15919,1861.3,54.7,197.4,37.8,4095.0,15415.0,3.0,1,
16019,1857.2,54.9,197.5,41.2,4095.0,15415.0,3.0,1,
16119,1856.8,55.3,197.6,239.3,4095.0,15415.0,3.0,1,
16219,1859.7,58.3,197.8,241.4,4095.0,15415.0,3.0,1,
16319,1859.1,56.8,197.9,274.0,4095.0,15415.0,3.0,1,
16519,1859.1,57.1,198.3,263.4,4095.0,15415.0,3.0,1,
16619,1858.4,57.4,198.4,241.1,4095.0,15415.0,3.0,1,
16719,1870.6,249.2,203.9,247.6,2674.0,8864.0,2.0,0,
16819,1881.5,321.0,212.9,41.5,4095.0,15865.0,2.0,0,
16919,1902.6,194.9,217.3,38.3,3981.0,12699.0,2.0,0,
17019,1964.7,156.2,218.4,41.1,3825.0,12238.0,2.0,0,
17119,1852.9,312.2,225.0,66.7,3920.0,11840.0,2.0,0,
17219,1905.6,260.2,224.1,41.6,4095.0,12424.0,2.0,0,
17319,1914.4,122.9,232.0,46.1,4095.0,12563.0,2.0,0,
17519,1857.3,55.0,232.1,130.6,4095.0,12563.0,2.0,0,
17619,1856.2,56.5,232.2,125.8,4095.0,12563.0,2.0,0,
17719,1856.3,63.1,232.3,177.6,4095.0,12563.0,2.0,0,
17819,1858.2,61.6,232.5,298.2,4095.0,12563.0,2.0,0,
17919,1861.3,62.5,232.6,298.2,4095.0,12563.0,2.0,0,
18019,1860.8,58.4,232.7,284.8,4095.0,12563.0,2.0,0,
18119,1859.0,55.9,232.7,275.8,4095.0,12563.0,2.0,0,
18219,1858.2,55.3,232.7,273.2,4095.0,12563.0,2.0,0,
18319,1857.3,55.9,232.7,298.1,4095.0,12563.0,2.0,0,
18519,1908.8,212.4,227.2,92.3,4095.0,14580.0,2.0,0,
18619,1883.6,236.6,221.8,94.2,4095.0,13090.0,2.0,0,
18719,1925.8,184.9,209.0,109.3,4095.0,12536.0,2.0,0,
18819,1906.6,185.5,217.0,80.6,4095.0,11989.0,2.0,0,
18919,1912.9,333.8,218.6,77.6,3850.0,10823.0,2.0,0,
19019,1867.0,69.8,221.5,79.7,3936.0,11891.0,2.0,0,
19119,1859.9,57.2,221.4,71.1,3936.0,11891.0,2.0,0,
19219,1862.8,56.9,221.3,51.7,3936.0,11891.0,2.0,0,
19319,1849.0,53.7,221.2,41.8,3936.0,11891.0,2.0,0,
19519,1859.3,53.1,220.7,279.8,3936.0,11891.0,2.0,0,
19619,1860.5,53.2,220.5,242.3,3936.0,11891.0,2.0,0,
19719,1860.3,52.4,220.4,267.4,3936.0,11891.0,2.0,0,
19819,1859.7,50.7,220.2,297.9,3936.0,11891.0,2.0,0,
19919,1858.8,50.1,220.1,298.3,3936.0,11891.0,2.0,0,
20019,1876.3,94.4,210.5,221.2,4095.0,19544.0,3.0,1,
20119,1897.7,149.8,207.1,30.1,4095.0,13608.0,2.0,0,
20219,1922.4,196.2,215.6,84.7,3999.0,12083.0,2.0,0,
20319,1901.2,314.9,220.6,123.6,3766.0,11567.0,2.0,0,
20519,1876.7,150.0,208.9,71.3,4047.0,12033.0,2.0,0,
20619,1881.0,76.3,208.0,92.5,4095.0,12273.0,2.0,0,
20719,1859.2,58.8,207.9,115.9,4095.0,12273.0,2.0,0,
20819,1861.9,54.9,207.9,114.5,4095.0,12273.0,2.0,0,
20919,1858.2,50.8,207.8,117.2,4095.0,12273.0,2.0,0,
21019,1858.6,54.1,207.7,238.4,4095.0,12273.0,2.0,0,
21119,1860.5,51.0,207.7,266.6,4095.0,12273.0,2.0,0,
21219,1863.3,46.7,207.7,275.9,4095.0,12273.0,2.0,0,
21319,1850.8,47.2,207.7,241.1,4095.0,12273.0,2.0,0,
21519,1855.5,44.0,207.5,279.5,4095.0,12273.0,2.0,0,
21619,1871.3,184.8,213.6,205.1,4095.0,12297.0,2.0,0,
21719,1870.6,219.9,219.5,82.3,4095.0,14275.0,2.0,0,
21819,1922.6,301.2,209.9,89.6,4095.0,13486.0,2.0,0,
21919,1988.8,139.2,210.6,92.9,4061.0,12776.0,2.0,0,
22019,1853.0,154.0,212.5,106.6,3969.0,12874.0,2.0,0,
22119,1903.7,285.2,212.1,130.2,3699.0,12904.0,2.0,0,
22219,1919.1,74.3,207.6,107.5,3757.0,11422.0,2.0,0,
22319,1855.3,55.2,207.5,143.3,3757.0,11422.0,2.0,0,
22519,1823.3,62.5,209.3,207.9,3757.0,11422.0,2.0,0,
22619,1874.6,60.3,209.4,114.9,3757.0,11422.0,2.0,0,
22719,1855.1,53.5,209.7,51.9,3757.0,11422.0,2.0,0,
22819,1830.8,66.7,210.1,100.8,3757.0,11422.0,2.0,0,
22919,1794.6,65.2,211.2,82.4,3757.0,11422.0,2.0,0,
23019,1845.3,10.0,211.0,108.3,3757.0,11422.0,2.0,0,
23119,1863.1,7.3,210.6,117.4,3757.0,11422.0,2.0,0,
23219,1859.3,107.8,205.9,117.1,3757.0,11422.0,2.0,0,
23319,1866.2,74.5,203.5,111.1,478.0,3027.0,28.0,0,
23519,1818.7,146.7,188.0,44.0,3564.0,12966.0,2.0,0,
23619,1899.8,224.0,170.5,41.9,3976.0,14493.0,2.0,0,
23719,1934.0,172.7,180.4,69.7,4095.0,13809.0,2.0,0,
23819,1906.9,163.4,189.2,40.7,4095.0,12391.0,2.0,0,
23919,1869.3,49.1,189.0,39.7,4095.0,12391.0,2.0,0,
24019,1864.0,46.2,187.5,42.0,4095.0,12391.0,2.0,0,
24119,1863.5,43.8,186.4,48.3,4095.0,12391.0,2.0,0,
24219,1861.0,40.8,186.0,90.8,4095.0,12391.0,2.0,0,
24319,1858.6,43.6,185.9,269.5,4095.0,12391.0,2.0,0,
24519,1859.0,42.0,183.2,268.1,4095.0,12391.0,2.0,0,
24619,1860.3,42.4,182.9,298.1,4095.0,12391.0,2.0,0,
24719,1859.9,43.3,183.4,298.4,4095.0,12391.0,2.0,0,
24819,1853.7,156.4,183.9,298.0,4095.0,12391.0,2.0,0,
24919,1918.5,219.6,178.8,54.7,3972.0,18397.0,3.0,1,
25019,1851.0,221.5,182.3,29.8,4095.0,13257.0,2.0,0,
25119,1925.9,189.1,191.3,46.5,4095.0,12914.0,2.0,0,
25219,1906.5,191.7,205.2,71.8,3957.0,12984.0,2.0,0,
25319,1891.2,286.1,198.6,72.3,4095.0,13556.0,2.0,0,
25519,1848.3,54.2,195.8,72.7,4095.0,12628.0,2.0,0,
25619,1857.9,43.9,195.8,72.6,4095.0,12628.0,2.0,0,
25719,1859.1,42.7,195.8,70.5,4095.0,12628.0,2.0,0,
25819,1859.5,43.5,195.8,68.5,4095.0,12628.0,2.0,0,
25919,1857.3,43.3,195.9,240.3,4095.0,12628.0,2.0,0,
26019,1858.0,44.8,196.0,298.1,4095.0,12628.0,2.0,0,
26119,1860.2,43.6,195.9,298.1,4095.0,12628.0,2.0,0,
26219,1858.5,47.9,196.0,279.5,4095.0,12628.0,2.0,0,
26319,1858.7,44.0,196.1,294.6,4095.0,12628.0,2.0,0,
26519,1872.4,143.9,202.3,239.6,3887.0,14095.0,2.0,0,
26619,1910.7,195.3,207.1,216.8,3966.0,12048.0,2.0,0,
26719,1891.7,279.7,209.4,165.8,3792.0,11639.0,2.0,0,
26819,1924.2,178.9,203.2,91.5,4095.0,12685.0,2.0,0,
26919,1897.4,134.7,206.0,72.4,4085.0,12176.0,2.0,0,
27019,1893.4,246.1,210.3,108.5,3998.0,12459.0,2.0,0,
27119,1884.7,61.7,205.1,113.1,4095.0,12604.0,2.0,0,
27219,1860.4,49.2,205.2,110.5,4095.0,12604.0,2.0,0,
27319,1858.5,46.1,205.3,145.5,4095.0,12604.0,2.0,0,
27519,1861.1,42.3,205.3,242.4,4095.0,12604.0,2.0,0,
27619,1858.6,41.5,205.3,272.1,4095.0,12604.0,2.0,0,
27719,1860.1,41.4,205.3,245.1,4095.0,12604.0,2.0,0,
27819,1859.6,41.7,205.2,270.5,4095.0,12604.0,2.0,0,
27919,1862.6,44.8,205.1,298.1,4095.0,12604.0,2.0,0,
28019,1858.4,41.8,205.1,281.3,4095.0,12604.0,2.0,0,
28119,1853.8,235.2,210.1,178.2,2432.0,10014.0,2.0,0,
28219,1897.0,315.7,204.3,71.3,4095.0,14011.0,2.0,0,
28319,1960.3,130.3,205.2,75.5,4095.0,12848.0,2.0,0,
28519,1887.7,291.2,213.4,88.1,3888.0,12518.0,2.0,0,
28619,1908.3,291.1,209.8,72.9,4095.0,12323.0,2.0,0,
28719,1898.0,87.1,213.6,82.4,3942.0,11758.0,2.0,0,
28819,1857.8,51.6,213.5,130.4,3942.0,11758.0,2.0,0,
28919,1855.7,48.2,213.6,138.2,3942.0,11758.0,2.0,0,
29019,1858.5,47.0,213.6,155.1,3942.0,11758.0,2.0,0,
29119,1856.2,52.1,213.8,238.0,3942.0,11758.0,2.0,0,
29219,1858.2,50.5,214.0,298.6,3942.0,11758.0,2.0,0,
29319,1861.2,49.4,214.1,298.1,3942.0,11758.0,2.0,0,
29519,1857.7,52.5,214.5,281.7,3942.0,11758.0,2.0,0,
29619,1859.6,50.1,214.6,298.3,3942.0,11758.0,2.0,0,
29719,1852.3,98.1,213.4,275.5,2788.0,10162.0,3.0,1,
29819,1953.1,88.3,196.2,104.9,4095.0,18422.0,3.0,1,
29919,1810.9,138.4,181.5,68.6,4095.0,16874.0,3.0,1,
30019,1898.7,184.4,167.3,74.7,4095.0,12610.0,2.0,0,
30119,1902.3,216.5,170.3,226.5,4095.0,11174.0,2.0,0,
30219,1891.2,211.0,165.2,195.7,4095.0,11699.0,2.0,0,
30319,1887.5,176.8,181.1,93.0,3997.0,10796.0,2.0,0,
30519,1859.1,50.1,181.1,80.7,3997.0,10796.0,2.0,0,
30619,1858.2,52.0,181.1,70.4,3997.0,10796.0,2.0,0,
30719,1858.3,48.6,181.0,53.4,3997.0,10796.0,2.0,0,
30819,1856.1,47.9,180.9,298.6,3997.0,10796.0,2.0,0,
30919,1857.2,50.1,180.9,283.5,3997.0,10796.0,2.0,0,
31019,1859.3,47.1,180.8,298.2,3997.0,10796.0,2.0,0,
31119,1858.5,47.9,180.8,281.4,3997.0,10796.0,2.0,0,
31219,1859.7,49.7,180.7,279.4,3997.0,10796.0,2.0,0,
31319,1907.3,68.3,180.6,298.2,3997.0,10796.0,2.0,0,
31519,1914.2,248.3,190.7,67.7,4095.0,13065.0,2.0,0,
31619,1903.2,174.5,211.8,125.9,4095.0,11908.0,2.0,0,
31719,1888.9,302.8,217.6,86.9,4095.0,12286.0,2.0,0,
31819,1950.7,363.8,217.8,69.8,4095.0,12337.0,2.0,0,
31919,1858.8,145.1,213.0,69.9,4095.0,12590.0,2.0,0,
32019,1872.0,55.3,210.3,70.1,4095.0,12590.0,2.0,0,
32119,1859.9,49.7,210.3,72.5,4095.0,12590.0,2.0,0,
32219,1865.4,48.4,210.2,93.9,4095.0,12590.0,2.0,0,
32319,1861.1,46.8,210.2,177.0,4095.0,12590.0,2.0,0,
32519,1860.5,45.7,210.0,280.0,4095.0,12590.0,2.0,0,
32619,1859.4,45.8,210.0,297.7,4095.0,12590.0,2.0,0,
32719,1861.2,47.0,210.0,298.0,4095.0,12590.0,2.0,0,
32819,1860.8,44.6,209.9,298.0,4095.0,12590.0,2.0,0,
32919,1859.5,45.5,209.9,285.3,4095.0,12590.0,2.0,0,
33019,1878.1,180.1,220.7,237.5,4030.0,14756.0,2.0,0,
33119,1888.8,243.8,237.3,71.0,4095.0,12465.0,2.0,0,
33219,1898.4,396.8,222.5,70.1,4095.0,13405.0,2.0,0,
33319,1945.9,159.1,231.0,72.7,4095.0,12113.0,2.0,0,
33519,1896.3,248.9,221.0,48.3,4095.0,12239.0,2.0,0,
33619,1893.5,65.1,220.2,65.7,4095.0,11204.0,2.0,0,
33719,1861.8,52.7,220.2,132.5,4095.0,11204.0,2.0,0,
33819,1865.3,49.4,220.3,158.7,4095.0,11204.0,2.0,0,
33919,1860.6,50.9,220.3,218.5,4095.0,11204.0,2.0,0,
34019,1860.5,48.9,220.4,268.2,4095.0,11204.0,2.0,0,
34119,1858.0,50.1,220.4,290.1,4095.0,11204.0,2.0,0,
34219,1860.0,50.3,220.5,298.0,4095.0,11204.0,2.0,0,
34319,1858.7,48.8,220.6,298.1,4095.0,11204.0,2.0,0,
34519,1861.4,49.7,220.6,262.0,4095.0,11204.0,2.0,0,
34619,1854.2,299.5,211.8,240.3,4095.0,17634.0,3.0,1,
34719,1920.1,168.3,207.1,75.3,4095.0,13866.0,2.0,0,
34819,1893.1,123.1,208.5,79.5,4095.0,12016.0,2.0,0,
34919,1886.5,303.6,208.5,87.4,4095.0,12045.0,2.0,0,
35019,1895.1,279.2,207.5,71.9,4095.0,12288.0,2.0,0,
35119,1917.6,170.6,210.3,44.6,4095.0,12462.0,2.0,0,
35219,1876.9,107.5,225.5,50.0,3935.0,11522.0,2.0,0,
35319,1858.8,52.7,225.4,72.5,3935.0,11522.0,2.0,0,
35519,1859.0,47.3,225.5,47.9,3935.0,11522.0,2.0,0,
35619,1856.0,48.2,225.5,70.6,3935.0,11522.0,2.0,0,
35719,1859.7,48.7,225.4,241.9,3935.0,11522.0,2.0,0,
35819,1860.8,49.6,225.4,272.5,3935.0,11522.0,2.0,0,
35919,1861.5,50.0,225.3,259.9,3935.0,11522.0,2.0,0,
36019,1858.3,47.1,225.3,267.4,3935.0,11522.0,2.0,0,
36119,1857.7,49.2,225.3,276.3,3935.0,11522.0,2.0,0,
36219,1926.8,154.2,231.4,298.1,3748.0,11491.0,2.0,0,
36319,1822.8,224.8,236.7,200.7,3998.0,14395.0,2.0,0,
36519,1900.7,219.5,239.1,77.3,4095.0,12430.0,2.0,0,
36619,1904.1,164.3,239.8,47.1,4095.0,11841.0,2.0,0,
36719,1952.2,234.7,239.7,39.7,4095.0,12748.0,2.0,0,
36819,1841.8,62.5,219.3,84.2,4095.0,15508.0,3.0,1,
36919,1862.0,53.9,219.3,93.3,4095.0,15508.0,3.0,1,
37019,1860.8,50.4,219.3,70.0,4095.0,15508.0,3.0,1,
37119,1861.2,48.4,219.2,43.3,4095.0,15508.0,3.0,1,
37219,1859.0,49.6,219.2,239.4,4095.0,15508.0,3.0,1,
37319,1856.9,48.5,219.2,298.2,4095.0,15508.0,3.0,1,
37519,1860.6,50.2,219.3,242.6,4095.0,15508.0,3.0,1,
37619,1859.4,47.5,219.3,242.3,4095.0,15508.0,3.0,1,
37719,1859.2,45.6,219.4,240.9,4095.0,15508.0,3.0,1,
37819,1855.6,180.3,218.3,238.9,4095.0,15508.0,3.0,1,
37919,1890.1,242.1,208.7,94.1,4095.0,15125.0,2.0,0,
38019,1909.2,156.4,221.3,82.4,4095.0,13154.0,2.0,0,
38119,1903.0,292.2,219.7,76.7,4053.0,13106.0,2.0,0,
38219,1960.4,264.5,217.1,72.0,4095.0,12066.0,2.0,0,
38319,1847.4,155.4,216.0,69.6,4095.0,12616.0,2.0,0,
38519,1869.0,54.8,228.1,125.7,4095.0,12616.0,2.0,0,
38619,1861.0,51.2,228.0,131.1,4095.0,12616.0,2.0,0,
38719,1858.0,54.6,228.1,131.4,4095.0,12616.0,2.0,0,
38819,1858.8,48.8,228.2,184.1,4095.0,12616.0,2.0,0,
38919,1853.9,51.6,228.2,247.8,4095.0,12616.0,2.0,0,
39019,1856.0,50.7,228.2,277.8,4095.0,12616.0,2.0,0,
39119,1857.7,45.8,228.3,297.9,4095.0,12616.0,2.0,0,
39219,1858.9,48.7,228.2,279.8,4095.0,12616.0,2.0,0,
39319,1860.0,49.7,228.2,242.5,4095.0,12616.0,2.0,0,
39519,1878.9,160.1,221.1,239.5,4095.0,12816.0,2.0,0,
39619,1874.8,351.6,206.4,216.9,4095.0,16429.0,2.0,0,
39719,1966.9,197.8,202.1,200.3,4095.0,13261.0,2.0,0,
39819,1847.8,177.8,205.0,101.3,4095.0,12553.0,2.0,0,
39919,1907.8,177.0,200.7,68.7,4095.0,12812.0,2.0,0,
40019,1905.6,341.9,209.9,92.8,4055.0,11354.0,2.0,0,
40119,1886.1,66.8,209.8,147.1,4095.0,11881.0,2.0,0,
40219,1860.4,50.5,209.8,77.6,4095.0,11881.0,2.0,0,
40319,1858.2,48.2,209.7,66.5,4095.0,11881.0,2.0,0,
40519,1858.0,46.8,209.6,237.7,4095.0,11881.0,2.0,0,
40619,1861.4,47.9,209.4,241.0,4095.0,11881.0,2.0,0,
40719,1859.9,51.3,209.4,250.5,4095.0,11881.0,2.0,0,
40819,1861.6,45.9,209.4,285.7,4095.0,11881.0,2.0,0,
40919,1848.8,44.8,209.4,242.7,4095.0,11881.0,2.0,0,
41019,1836.3,39.7,209.6,240.7,4095.0,11881.0,2.0,0,
41119,1859.5,144.2,208.8,239.6,4095.0,16646.0,3.0,1,
41219,1917.2,142.9,207.5,81.5,3961.0,14555.0,2.0,0,
41319,1840.9,222.0,207.9,76.8,4095.0,12604.0,2.0,0,
41519,1913.2,377.6,198.0,91.2,4095.0,13307.0,2.0,0,
41619,1912.6,136.7,206.5,92.2,4095.0,12891.0,2.0,0,
41719,1888.0,90.1,203.4,74.2,4095.0,12010.0,2.0,0,
41819,1869.3,57.4,203.3,82.7,4095.0,12010.0,2.0,0,
41919,1876.4,48.5,203.1,93.6,4095.0,12010.0,2.0,0,
42019,1872.5,44.7,202.9,90.4,4095.0,12010.0,2.0,0,
42119,1867.5,44.5,202.7,105.2,4095.0,12010.0,2.0,0,
42219,1855.8,42.6,202.7,240.2,4095.0,12010.0,2.0,0,
42319,1856.4,47.9,202.7,279.4,4095.0,12010.0,2.0,0,
42519,1854.2,44.2,202.7,279.6,4095.0,12010.0,2.0,0,
42619,1855.4,44.5,202.2,251.9,4095.0,12010.0,2.0,0,
42719,1869.9,185.8,218.4,87.9,2692.0,9253.0,3.0,1,
42819,1866.0,226.2,214.5,29.1,3468.0,13739.0,2.0,0,
42919,1899.6,414.3,223.4,29.3,3376.0,11285.0,2.0,0,
43019,1900.5,168.7,230.4,44.1,3549.0,11880.0,2.0,0,
43119,1926.8,183.0,246.1,92.0,3473.0,11459.0,2.0,0,
43219,1855.5,270.6,245.1,80.8,3696.0,11683.0,2.0,0,
43319,1902.4,77.2,239.9,47.6,3615.0,12341.0,2.0,0,
43519,1861.5,49.2,240.1,100.6,3615.0,12341.0,2.0,0,
43619,1857.5,51.1,240.3,184.0,3615.0,12341.0,2.0,0,
43719,1856.2,47.8,240.5,233.1,3615.0,12341.0,2.0,0,
43819,1858.5,47.8,240.6,298.4,3615.0,12341.0,2.0,0,
43919,1857.7,46.8,240.6,298.4,3615.0,12341.0,2.0,0,
44019,1857.9,47.7,240.6,298.6,3615.0,12341.0,2.0,0,
44119,1859.6,48.8,240.6,298.7,3615.0,12341.0,2.0,0,
44219,1858.9,47.9,240.6,298.6,3615.0,12341.0,2.0,0,
44319,1851.3,146.6,225.6,298.6,3477.0,13564.0,3.0,1,
44519,1897.3,131.6,232.4,164.4,3519.0,13336.0,2.0,0,
44619,1942.0,205.9,222.5,132.4,3439.0,12049.0,2.0,0,
44719,1830.6,272.6,210.0,134.0,3563.0,11333.0,2.0,0,
44819,1907.7,219.4,208.2,135.6,3563.0,11496.0,2.0,0,
44919,1901.5,134.3,212.3,71.8,3494.0,11006.0,2.0,0,
45019,1867.5,57.8,212.3,44.9,3494.0,11006.0,2.0,0,
45119,1860.3,49.4,212.3,83.8,3494.0,11006.0,2.0,0,
45219,1856.7,47.3,212.3,157.8,3494.0,11006.0,2.0,0,
45319,1858.3,47.5,212.2,237.8,3494.0,11006.0,2.0,0,
45519,1858.1,45.9,212.2,279.9,3494.0,11006.0,2.0,0,
45619,1860.1,45.7,212.2,277.2,3494.0,11006.0,2.0,0,
45719,1859.5,46.4,212.1,279.4,3494.0,11006.0,2.0,0,
45819,1859.2,43.6,212.1,273.1,3494.0,11006.0,2.0,0,
45919,1861.0,39.2,212.1,277.5,3494.0,11006.0,2.0,0,
46019,1886.8,217.3,214.2,115.3,3599.0,14525.0,2.0,0,
46119,1947.0,302.2,224.5,73.5,3577.0,12050.0,2.0,0,
46219,1833.2,196.1,223.0,87.4,3845.0,12782.0,2.0,0,
46319,1921.1,208.3,231.6,72.2,3683.0,11434.0,2.0,0,
46519,1896.9,330.5,228.5,40.1,3917.0,13510.0,2.0,0,
46619,1877.6,63.2,234.6,69.7,3600.0,11629.0,2.0,0,
46719,1858.9,49.5,234.6,125.5,3600.0,11629.0,2.0,0,
46819,1858.9,51.3,234.6,134.0,3600.0,11629.0,2.0,0,
46919,1858.7,48.5,234.7,117.5,3600.0,11629.0,2.0,0,
47019,1856.1,49.1,234.7,241.0,3600.0,11629.0,2.0,0,
47119,1859.5,47.5,234.7,276.9,3600.0,11629.0,2.0,0,
47219,1858.4,50.2,234.8,281.9,3600.0,11629.0,2.0,0,
47319,1857.7,48.5,234.9,295.7,3600.0,11629.0,2.0,0,
47519,1857.8,52.3,235.0,298.3,3600.0,11629.0,2.0,0,
47619,1916.2,286.9,229.0,226.8,4061.0,14135.0,3.0,1,
47719,1821.7,155.7,224.0,79.2,4095.0,15347.0,2.0,0,
47819,1919.7,190.6,223.3,92.6,3970.0,13719.0,2.0,0,
47919,1885.5,290.1,219.9,116.5,3679.0,12012.0,2.0,0,
48019,1887.6,277.2,209.0,86.0,4007.0,12622.0,2.0,0,
48119,1973.3,139.8,216.0,56.6,4095.0,17052.0,2.0,0,
48219,1829.6,58.4,207.2,71.6,4095.0,15619.0,3.0,1,
48319,1864.8,56.2,207.2,44.0,4095.0,15619.0,3.0,1,
48519,1858.1,52.3,207.3,56.9,4095.0,15619.0,3.0,1,
48619,1857.6,50.9,207.4,260.2,4095.0,15619.0,3.0,1,
48719,1858.6,50.4,207.4,260.7,4095.0,15619.0,3.0,1,
48819,1858.0,50.6,207.4,282.4,4095.0,15619.0,3.0,1,
48919,1857.6,53.1,207.5,298.5,4095.0,15619.0,3.0,1,
49019,1857.6,54.5,207.5,298.6,4095.0,15619.0,3.0,1,
49119,1857.7,53.2,207.6,298.8,4095.0,15619.0,3.0,1,
49219,1863.2,102.2,207.4,298.0,4095.0,15604.0,3.0,1,
49319,1901.0,197.4,204.6,86.9,4045.0,13805.0,2.0,0,
49519,1904.9,200.8,206.5,74.9,4053.0,13505.0,2.0,0,
49619,1930.3,134.9,204.5,73.9,4000.0,12154.0,2.0,0,
49719,1870.5,306.8,209.7,72.9,3924.0,12491.0,2.0,0,
49819,1899.9,86.2,216.9,72.7,4095.0,13363.0,2.0,0,
49919,1857.0,53.3,217.1,51.4,4095.0,13363.0,2.0,0,
50019,1858.6,51.5,217.1,69.4,4095.0,13363.0,2.0,0,
50119,1854.5,53.6,217.1,130.7,4095.0,13363.0,2.0,0,
50219,1857.5,52.5,217.1,231.3,4095.0,13363.0,2.0,0,
50319,1857.5,55.1,217.2,298.3,4095.0,13363.0,2.0,0,
50519,1859.3,54.3,217.3,298.0,4095.0,13363.0,2.0,0,
50619,1858.9,52.4,217.3,297.9,4095.0,13363.0,2.0,0,
50719,1859.6,53.8,217.3,261.6,4095.0,13363.0,2.0,0,
50819,1860.8,214.2,220.7,241.0,2592.0,8651.0,2.0,0,
50919,1876.0,348.9,219.1,147.3,4095.0,14762.0,2.0,0,
51019,1918.8,171.4,226.7,136.2,4095.0,14714.0,2.0,0,
51119,1876.5,154.8,229.3,93.0,4095.0,12760.0,2.0,0,
51219,1882.8,352.8,234.6,50.4,4049.0,12827.0,2.0,0,
51319,1904.7,348.1,221.7,48.4,4095.0,12937.0,2.0,0,
51519,1865.6,56.9,232.7,48.1,4095.0,12937.0,2.0,0,
51619,1860.5,53.9,232.7,90.7,4095.0,12937.0,2.0,0,
51719,1859.0,54.4,232.7,142.4,4095.0,12937.0,2.0,0,
51819,1858.5,51.4,232.7,218.8,4095.0,12937.0,2.0,0,
51919,1858.9,58.3,232.7,240.8,4095.0,12937.0,2.0,0,
52019,1860.6,56.3,232.7,240.8,4095.0,12937.0,2.0,0,
52119,1856.6,56.1,232.9,240.8,4095.0,12937.0,2.0,0,
52219,1859.3,57.2,232.9,241.2,4095.0,12937.0,2.0,0,
52319,1859.5,54.6,232.9,263.5,4095.0,12937.0,2.0,0,
52519,1919.9,197.9,237.3,53.7,4095.0,13878.0,2.0,0,
52620,1834.5,185.8,234.1,35.9,4095.0,15216.0,2.0,0,
52720,1891.5,210.4,223.4,37.3,4095.0,14783.0,2.0,0,
52820,1913.3,254.7,223.3,51.5,4095.0,13338.0,2.0,0,
52920,1905.6,171.5,214.2,134.9,4095.0,13538.0,2.0,0,
53020,1961.9,235.4,208.6,69.9,4026.0,13463.0,2.0,0,
53120,1820.3,65.9,208.8,49.4,4095.0,12599.0,2.0,0,
53220,1857.8,53.7,208.8,110.5,4095.0,12599.0,2.0,0,
53320,1855.5,53.3,208.9,144.5,4095.0,12599.0,2.0,0,
53520,1854.8,57.0,209.0,298.6,4095.0,12599.0,2.0,0,
53620,1857.0,58.0,209.0,298.4,4095.0,12599.0,2.0,0,
53720,1858.5,57.7,209.0,298.7,4095.0,12599.0,2.0,0,
53820,1858.5,56.3,209.0,298.4,4095.0,12599.0,2.0,0,
53920,1858.4,55.9,209.1,277.4,4095.0,12599.0,2.0,0,
54020,1859.6,50.8,209.1,272.5,4095.0,12599.0,2.0,0,
54120,1847.5,240.3,197.2,239.5,3677.0,13796.0,2.0,0,
54220,1895.2,229.8,194.1,68.5,4095.0,15679.0,2.0,0,
54320,1917.8,185.9,198.6,88.3,4095.0,13243.0,2.0,0,
54520,1962.8,349.2,212.8,71.9,4095.0,13527.0,2.0,0,
54620,1827.3,143.7,213.3,40.3,4095.0,13539.0,2.0,0,
54720,1890.7,75.7,213.8,44.3,4095.0,15568.0,2.0,0,
54820,1860.4,58.6,213.8,89.7,4095.0,15568.0,2.0,0,
54920,1863.9,56.2,213.8,91.3,4095.0,15568.0,2.0,0,
55020,1856.7,52.8,213.7,80.1,4095.0,15568.0,2.0,0,
55120,1856.5,53.3,213.7,219.9,4095.0,15568.0,2.0,0,
55220,1857.1,55.5,213.6,269.2,4095.0,15568.0,2.0,0,
55320,1861.9,79.6,213.8,298.0,4095.0,15568.0,2.0,0,
55520,1857.3,88.9,215.1,69.5,4095.0,15568.0,2.0,0,
55620,1849.9,334.5,222.8,66.4,4095.0,15568.0,2.0,0,
55720,1872.0,479.8,306.2,65.6,4095.0,29854.0,19.0,1,
55820,1885.9,177.3,306.6,69.1,3862.0,13587.0,2.0,0,
55920,1914.0,530.3,313.2,70.7,4095.0,18182.0,2.0,0,
56020,1944.6,619.7,353.5,70.3,4095.0,32325.0,2.0,0,
56120,1860.4,650.3,402.6,56.4,3204.0,21716.0,28.0,0,
56220,1900.0,429.4,425.4,29.4,4095.0,17059.0,2.0,0,
56320,1894.3,106.7,424.2,28.6,4095.0,14329.0,2.0,0,
56520,1866.9,65.1,424.4,28.6,4095.0,14329.0,2.0,0,
56620,1860.7,66.9,424.5,29.3,4095.0,14329.0,2.0,0,
56720,1859.8,51.0,424.5,177.2,4095.0,14329.0,2.0,0,
56820,1858.8,48.1,424.5,239.7,4095.0,14329.0,2.0,0,
56920,1857.9,39.6,424.3,178.4,4095.0,14329.0,2.0,0,
57020,1858.0,43.3,424.0,237.9,4095.0,14329.0,2.0,0,
57120,1858.4,40.9,423.5,284.4,4095.0,14329.0,2.0,0,
57220,1858.3,39.3,422.0,269.9,4095.0,14329.0,2.0,0,
57320,1867.1,279.1,394.1,239.3,3379.0,11218.0,2.0,0,
57520,1939.9,125.7,369.7,93.8,4041.0,13450.0,2.0,0,
57620,1857.4,263.1,342.0,91.8,3917.0,14984.0,2.0,0,
57720,1897.3,301.5,278.6,72.3,3903.0,12798.0,2.0,0,
57820,1912.9,384.1,231.2,57.1,4095.0,12360.0,2.0,0,
57920,1920.0,122.6,231.3,77.3,3980.0,13058.0,2.0,0,
58020,1863.1,47.9,230.8,78.9,3980.0,13058.0,2.0,0,
58120,1862.2,45.8,230.6,79.9,3980.0,13058.0,2.0,0,
58220,1857.2,46.2,230.2,100.1,3980.0,13058.0,2.0,0,
58320,1856.6,43.9,230.0,220.4,3980.0,13058.0,2.0,0,
58520,1858.5,46.9,229.9,268.9,3980.0,13058.0,2.0,0,
58620,1858.9,42.9,230.0,298.1,3980.0,13058.0,2.0,0,
58720,1859.4,44.9,230.0,293.5,3980.0,13058.0,2.0,0,
58820,1859.8,44.4,230.0,253.7,3980.0,13058.0,2.0,0,
58920,1874.9,88.2,228.4,241.1,3980.0,13058.0,2.0,0,
59020,1894.5,151.4,218.0,100.4,3855.0,18876.0,2.0,0,
59120,1853.6,222.1,205.9,38.1,3934.0,14149.0,2.0,0,
59220,1902.5,389.1,203.6,39.7,3839.0,11973.0,2.0,0,
59320,1916.9,146.4,203.1,85.0,3985.0,13313.0,2.0,0,
59520,1872.1,243.5,206.8,72.1,4095.0,13641.0,2.0,0,
59620,1867.9,54.2,208.4,43.3,3761.0,12123.0,2.0,0,
59720,1857.8,46.9,208.5,39.7,3761.0,12123.0,2.0,0,
59820,1856.1,46.8,208.6,67.8,3761.0,12123.0,2.0,0,
59920,1857.8,45.2,208.6,77.7,3761.0,12123.0,2.0,0,
60020,1858.8,45.0,208.6,240.8,3761.0,12123.0,2.0,0,
60120,1858.6,42.6,208.6,267.0,3761.0,12123.0,2.0,0,
60220,1859.6,43.9,208.6,241.5,3761.0,12123.0,2.0,0,
60320,1858.7,45.5,208.6,241.2,3761.0,12123.0,2.0,0,
60520,1858.6,49.1,208.7,243.2,3761.0,12123.0,2.0,0,
60620,1854.0,172.7,208.6,238.4,4095.0,20198.0,3.0,1,
60720,1893.4,208.4,218.7,67.2,4095.0,14673.0,2.0,0,
60820,1904.0,161.3,218.1,46.3,4095.0,13763.0,2.0,0,
60920,1966.8,304.0,213.8,68.5,3973.0,13391.0,2.0,0,
61020,1824.7,207.5,204.6,79.2,4095.0,13176.0,2.0,0,
61120,1913.5,190.0,200.6,46.7,4095.0,13758.0,2.0,0,
61220,1873.4,60.4,202.3,39.3,4095.0,13469.0,2.0,0,
61320,1854.8,44.7,202.3,66.5,4095.0,13469.0,2.0,0,
61520,1854.9,48.4,202.4,122.9,4095.0,13469.0,2.0,0,
61620,1857.7,47.4,202.5,239.4,4095.0,13469.0,2.0,0,
61720,1860.8,47.0,202.6,243.2,4095.0,13469.0,2.0,0,
61820,1861.0,46.5,202.6,260.8,4095.0,13469.0,2.0,0,
61920,1860.7,46.5,202.6,278.6,4095.0,13469.0,2.0,0,
62020,1860.6,45.4,202.6,279.8,4095.0,13469.0,2.0,0,
62120,1859.3,46.2,202.6,298.1,4095.0,13469.0,2.0,0,
62220,1878.1,146.6,205.9,298.4,4095.0,13426.0,2.0,0,
62320,1887.5,222.8,217.3,231.3,4095.0,15505.0,2.0,0,
62520,1824.2,191.2,210.7,76.1,4095.0,14277.0,2.0,0,
62620,1923.2,215.2,219.0,72.1,4095.0,15047.0,2.0,0,
62720,1889.3,235.7,224.4,49.1,4095.0,13015.0,2.0,0,
62820,1882.7,67.9,219.7,41.6,4095.0,13989.0,2.0,0,
62920,1860.4,49.8,219.7,55.0,4095.0,13989.0,2.0,0,
63020,1858.8,48.1,219.8,91.1,4095.0,13989.0,2.0,0,
63120,1856.4,45.3,219.7,153.5,4095.0,13989.0,2.0,0,
63220,1858.3,47.5,219.7,227.1,4095.0,13989.0,2.0,0,
63320,1857.8,47.0,219.7,285.8,4095.0,13989.0,2.0,0,
63520,1856.7,46.2,219.8,298.2,4095.0,13989.0,2.0,0,
63620,1857.9,49.3,219.8,298.2,4095.0,13989.0,2.0,0,
63720,1859.1,47.3,219.9,266.5,4095.0,13989.0,2.0,0,
63820,1863.8,339.0,226.7,237.4,3310.0,11981.0,2.0,0,
63920,1944.0,260.3,218.8,40.1,4095.0,16352.0,2.0,0,
64020,1830.8,132.6,217.5,39.1,4095.0,14780.0,2.0,0,
64120,1915.5,197.2,218.7,41.3,4095.0,14122.0,2.0,0,
64220,1885.5,298.3,213.0,72.4,4095.0,12782.0,2.0,0,
64320,1882.5,231.1,205.4,50.2,4095.0,14631.0,2.0,0,
64520,1861.4,53.2,209.2,89.3,4095.0,14631.0,2.0,0,
64620,1858.0,46.2,209.2,90.5,4095.0,14631.0,2.0,0,
64720,1857.5,50.5,209.3,99.6,4095.0,14631.0,2.0,0,
64820,1857.8,48.9,209.3,221.0,4095.0,14631.0,2.0,0,
64920,1858.0,47.2,209.3,240.9,4095.0,14631.0,2.0,0,
65020,1859.8,48.8,209.3,240.5,4095.0,14631.0,2.0,0,
65120,1859.0,50.1,209.3,241.0,4095.0,14631.0,2.0,0,
65220,1859.7,47.3,209.3,278.5,4095.0,14631.0,2.0,0,
65320,1857.4,49.7,209.4,243.1,4095.0,14631.0,2.0,0,
65520,1858.5,175.0,208.2,88.0,4095.0,16526.0,2.0,0,
65620,1903.8,204.1,219.5,73.0,4095.0,14316.0,2.0,0,
65720,1899.9,328.1,228.4,81.7,4095.0,12035.0,2.0,0,
65820,1912.5,152.2,226.4,72.4,4095.0,14203.0,2.0,0,
65920,1919.8,125.3,225.6,70.3,4095.0,12177.0,2.0,0,
66020,1853.8,239.4,229.9,81.6,4091.0,12648.0,2.0,0,
66120,1874.5,60.6,230.5,79.8,4091.0,12648.0,2.0,0,
66220,1858.4,51.2,230.5,73.1,4091.0,12648.0,2.0,0,
66320,1855.9,49.2,230.5,68.3,4091.0,12648.0,2.0,0,
66520,1857.8,48.7,230.6,240.7,4091.0,12648.0,2.0,0,
66620,1856.9,49.8,230.6,241.1,4091.0,12648.0,2.0,0,
66720,1858.5,48.2,230.6,243.2,4091.0,12648.0,2.0,0,
66820,1859.4,47.1,230.6,269.1,4091.0,12648.0,2.0,0,
66920,1857.9,48.8,230.6,243.1,4091.0,12648.0,2.0,0,
67020,1858.6,54.1,230.6,278.4,4091.0,12648.0,2.0,0,
67120,1862.0,264.8,224.9,188.5,4095.0,15116.0,2.0,0,
67220,1898.9,375.4,210.7,67.2,4095.0,14932.0,2.0,0,
67320,1935.6,131.6,216.8,55.3,4095.0,14300.0,2.0,0,
67520,1876.1,344.0,226.3,57.1,4095.0,13964.0,2.0,0,
67620,1904.6,326.5,222.5,47.8,4095.0,13433.0,2.0,0,
67720,1872.7,71.8,229.2,41.6,4095.0,11297.0,2.0,0,
67820,1860.3,51.6,229.1,41.5,4095.0,11297.0,2.0,0,
67920,1862.4,48.7,229.0,71.1,4095.0,11297.0,2.0,0,
68020,1859.0,49.0,228.9,78.3,4095.0,11297.0,2.0,0,
68120,1860.7,47.5,228.8,178.2,4095.0,11297.0,2.0,0,
68220,1857.6,47.8,228.9,265.7,4095.0,11297.0,2.0,0,
68320,1860.5,48.7,228.8,241.1,4095.0,11297.0,2.0,0,
68520,1860.4,50.0,228.8,240.5,4095.0,11297.0,2.0,0,
68620,1861.4,49.4,228.8,240.5,4095.0,11297.0,2.0,0,
68720,1890.2,94.9,227.1,240.1,4095.0,19281.0,3.0,1,
68820,1946.6,157.5,217.7,87.2,4095.0,15009.0,2.0,0,
68920,1835.4,226.4,215.5,68.4,4095.0,14619.0,2.0,0,
69020,1906.3,254.6,200.4,41.7,4095.0,15070.0,2.0,0,
69120,1914.2,211.8,213.3,47.8,4095.0,13386.0,2.0,0,
69220,1882.9,257.5,212.1,71.7,4095.0,12500.0,2.0,0,
69320,1886.0,86.6,205.9,49.2,4095.0,14100.0,2.0,0,
69520,1863.2,131.3,207.2,108.3,4095.0,14100.0,2.0,0,
69620,1852.1,81.1,210.4,186.9,4095.0,14100.0,2.0,0,
69720,1860.0,68.5,211.1,65.4,4095.0,14100.0,2.0,0,
69820,1859.8,119.7,212.9,56.7,4095.0,14100.0,2.0,0,
69920,1837.5,110.5,216.2,57.4,4095.0,14100.0,2.0,0,
70020,1845.5,95.2,217.7,57.5,4095.0,14100.0,2.0,0,
70120,1855.9,102.0,219.2,57.2,4095.0,14100.0,2.0,0,
70220,1865.1,308.9,226.7,69.6,4095.0,14100.0,2.0,0,
70320,1959.8,890.1,296.2,55.8,4095.0,33660.0,5.0,1,
70520,1907.7,177.1,331.5,29.7,4095.0,15321.0,2.0,0,
70620,1890.4,162.2,334.5,29.9,4095.0,13355.0,2.0,0,
70720,1880.1,321.5,329.8,57.0,4095.0,12784.0,2.0,0,
70820,1948.1,355.2,324.3,79.3,4095.0,14115.0,2.0,0,
70920,1832.4,99.9,327.7,69.5,4095.0,12230.0,2.0,0,
71020,1858.3,53.1,327.5,71.2,4095.0,12230.0,2.0,0,
71120,1860.4,52.9,327.2,88.1,4095.0,12230.0,2.0,0,
71220,1855.0,49.5,325.0,152.9,4095.0,12230.0,2.0,0,
71320,1855.3,51.7,324.7,250.3,4095.0,12230.0,2.0,0,
71520,1859.4,51.7,321.6,298.1,4095.0,12230.0,2.0,0,
71620,1859.1,49.1,320.4,280.1,4095.0,12230.0,2.0,0,
71720,1860.3,50.6,319.4,297.9,4095.0,12230.0,2.0,0,
71820,1859.0,49.4,315.7,297.9,4095.0,12230.0,2.0,0,
71920,1843.9,99.4,278.9,242.4,3977.0,14109.0,3.0,1,
72020,1903.1,180.2,212.8,55.9,4095.0,15540.0,2.0,0,
72120,1866.7,194.2,213.6,41.5,4095.0,14838.0,2.0,0,
72220,1878.1,325.3,207.0,41.5,4095.0,14822.0,2.0,0,
72320,1946.3,173.8,210.4,57.3,4095.0,14095.0,2.0,0,
72520,1888.0,188.1,205.9,40.9,4095.0,12698.0,2.0,0,
72620,1866.3,59.9,205.8,56.3,4095.0,12698.0,2.0,0,
72720,1852.7,50.3,205.9,93.4,4095.0,12698.0,2.0,0,
72820,1852.6,52.2,206.0,93.3,4095.0,12698.0,2.0,0,
72920,1852.4,50.8,206.1,92.4,4095.0,12698.0,2.0,0,
73020,1857.5,50.0,206.1,241.9,4095.0,12698.0,2.0,0,
73120,1859.5,53.8,206.1,298.5,4095.0,12698.0,2.0,0,
73220,1857.1,53.1,206.3,298.3,4095.0,12698.0,2.0,0,
73320,1860.3,50.1,206.3,263.3,4095.0,12698.0,2.0,0,
73520,1859.3,70.5,206.3,278.9,4095.0,12698.0,2.0,0,
73620,1866.8,324.2,219.8,123.0,3538.0,13298.0,2.0,0,
73720,1873.2,163.3,213.1,39.4,4095.0,16513.0,2.0,0,
73820,1919.6,176.3,215.9,37.6,4095.0,14274.0,2.0,0,
73920,1857.5,201.5,216.3,37.8,4095.0,13504.0,2.0,0,
74020,1898.6,332.5,220.3,39.5,4095.0,13531.0,2.0,0,
74120,1903.3,278.3,221.7,47.4,4095.0,13722.0,2.0,0,
74220,1868.9,66.8,222.3,40.7,4095.0,13975.0,2.0,0,
74320,1856.2,53.6,222.4,35.9,4095.0,13975.0,2.0,0,
74520,1853.1,52.7,222.5,69.1,4095.0,13975.0,2.0,0,
74620,1857.0,53.8,222.5,240.8,4095.0,13975.0,2.0,0,
74720,1856.5,55.1,222.6,298.2,4095.0,13975.0,2.0,0,
74820,1858.4,52.8,222.6,298.0,4095.0,13975.0,2.0,0,
74920,1856.2,51.7,222.7,274.0,4095.0,13975.0,2.0,0,
75020,1859.6,56.1,222.8,242.2,4095.0,13975.0,2.0,0,
75120,1859.7,51.9,222.9,241.6,4095.0,13975.0,2.0,0,
75220,1900.8,128.0,200.7,243.1,4095.0,17572.0,3.0,1,
75320,1873.5,155.5,211.3,85.8,4048.0,15404.0,2.0,0,
75520,1911.0,289.6,215.5,39.8,4095.0,14353.0,2.0,0,
75620,1914.3,251.1,218.7,46.8,4095.0,13042.0,2.0,0,
75720,1935.4,231.3,216.2,73.0,4065.0,14652.0,2.0,0,
75820,1849.5,73.6,214.1,72.9,4095.0,14441.0,2.0,0,
75920,1856.6,54.9,214.1,74.4,4095.0,14441.0,2.0,0,
76020,1854.0,54.7,214.1,112.1,4095.0,14441.0,2.0,0,
76120,1854.9,54.4,214.1,155.8,4095.0,14441.0,2.0,0,
76220,1855.2,56.8,214.1,242.8,4095.0,14441.0,2.0,0,
76320,1857.3,54.9,214.2,298.5,4095.0,14441.0,2.0,0,
76520,1857.5,53.3,214.1,298.8,4095.0,14441.0,2.0,0,
76620,1856.2,54.1,214.2,298.6,4095.0,14441.0,2.0,0,
76720,1859.0,54.2,214.2,298.8,4095.0,14441.0,2.0,0,
76820,1863.8,138.5,218.8,297.9,3569.0,11241.0,2.0,0,
76920,1876.9,277.0,209.6,122.7,4095.0,15726.0,2.0,0,
77020,1915.1,301.2,201.8,82.5,4095.0,15225.0,2.0,0,
77120,1907.7,195.3,205.7,74.8,4095.0,13394.0,2.0,0,
77220,1961.8,245.1,209.9,72.5,4095.0,14829.0,2.0,0,
77320,1823.2,350.7,213.6,70.4,4095.0,13662.0,2.0,0,
77520,1859.3,58.1,216.6,42.1,4095.0,13662.0,2.0,0,
77620,1859.0,54.2,216.6,76.8,4095.0,13662.0,2.0,0,
77720,1858.0,56.3,216.6,136.6,4095.0,13662.0,2.0,0,
77820,1860.0,57.3,216.6,197.3,4095.0,13662.0,2.0,0,
77920,1858.6,58.6,216.6,284.0,4095.0,13662.0,2.0,0,
78020,1858.3,59.9,216.6,297.9,4095.0,13662.0,2.0,0,
78120,1859.6,58.7,216.7,298.1,4095.0,13662.0,2.0,0,
78220,1861.6,58.5,216.8,298.7,4095.0,13662.0,2.0,0,
78320,1862.2,59.3,216.8,298.7,4095.0,13662.0,2.0,0,
78520,1902.3,363.6,222.1,94.2,4095.0,16312.0,2.0,0,
78620,1899.2,132.0,230.3,50.9,4095.0,13536.0,2.0,0,
78720,1969.8,297.9,238.4,71.9,4094.0,14062.0,2.0,0,
78820,1811.2,230.9,240.8,93.3,4095.0,13543.0,2.0,0,
78920,1916.3,112.7,223.8,71.1,4095.0,18423.0,3.0,1,
79020,1896.9,158.2,220.5,38.9,4093.0,12949.0,2.0,0,
79120,1863.6,66.6,220.6,39.5,4093.0,12949.0,2.0,0,
79220,1858.8,60.5,220.6,52.0,4093.0,12949.0,2.0,0,
79320,1856.6,60.5,220.7,81.8,4093.0,12949.0,2.0,0,
79520,1856.9,61.5,220.8,298.3,4093.0,12949.0,2.0,0,
79620,1857.7,58.5,220.9,298.4,4093.0,12949.0,2.0,0,
79720,1857.0,64.3,220.9,298.8,4093.0,12949.0,2.0,0,
79820,1858.9,59.8,221.0,298.9,4093.0,12949.0,2.0,0,
79920,1860.0,59.7,221.1,298.5,4093.0,12949.0,2.0,0,
80020,1859.7,81.1,221.1,297.9,4093.0,12949.0,2.0,0,
80120,1870.5,241.1,215.3,163.3,4095.0,15357.0,2.0,0,
80220,1961.3,308.6,203.3,67.9,4095.0,16223.0,2.0,0,
80320,1842.0,227.1,201.8,101.1,4095.0,13736.0,2.0,0,
80520,1893.8,281.7,217.9,71.4,4059.0,13813.0,2.0,0,
80620,1885.1,446.5,219.8,41.8,4095.0,13424.0,2.0,0,
80720,1887.8,77.9,234.1,57.5,3779.0,12311.0,2.0,0,
80820,1858.3,62.9,234.0,69.7,3779.0,12311.0,2.0,0,
80920,1857.7,61.5,234.0,57.3,3779.0,12311.0,2.0,0,
81020,1856.9,61.2,234.0,52.4,3779.0,12311.0,2.0,0,
81120,1855.8,60.2,234.1,239.6,3779.0,12311.0,2.0,0,
81220,1860.8,63.0,234.0,298.3,3779.0,12311.0,2.0,0,
81320,1858.8,62.3,234.1,298.2,3779.0,12311.0,2.0,0,
81520,1858.4,61.0,234.1,299.2,3779.0,12311.0,2.0,0,
81620,1857.2,60.9,234.2,298.9,3779.0,12311.0,2.0,0,
81720,1908.8,108.4,231.5,240.8,4095.0,18808.0,3.0,1,
81820,1872.5,141.4,222.2,56.5,4095.0,19231.0,2.0,0,
81920,1914.5,225.5,210.6,29.6,4095.0,14743.0,2.0,0,
82020,1893.7,412.8,204.8,30.0,3935.0,13115.0,2.0,0,
82120,1897.4,191.4,207.6,68.0,4095.0,14075.0,2.0,0,
82220,1931.3,184.7,213.7,73.1,3959.0,13915.0,2.0,0,
82320,1853.7,79.4,202.3,72.7,4095.0,13186.0,2.0,0,
82520,1861.2,59.5,202.3,49.6,4095.0,13186.0,2.0,0,
82620,1858.2,59.6,202.2,124.8,4095.0,13186.0,2.0,0,
82720,1854.8,59.5,202.2,240.3,4095.0,13186.0,2.0,0,
82820,1860.7,59.5,202.2,298.0,4095.0,13186.0,2.0,0,
82920,1858.3,62.8,202.1,298.3,4095.0,13186.0,2.0,0,
83020,1860.5,59.6,202.0,294.1,4095.0,13186.0,2.0,0,
83120,1859.7,59.1,202.0,269.2,4095.0,13186.0,2.0,0,
83220,1860.4,56.0,201.9,280.3,4095.0,13186.0,2.0,0,
83320,1873.5,182.7,210.7,239.9,4029.0,13226.0,2.0,0,
83520,1900.3,267.8,239.3,144.6,4095.0,14198.0,2.0,0,
83620,1934.1,150.5,239.3,80.5,4023.0,14153.0,2.0,0,
83720,1876.5,232.4,237.1,40.1,3894.0,13627.0,2.0,0,
83820,1889.0,367.7,238.4,70.6,3695.0,12169.0,2.0,0,
83920,1914.2,102.0,238.3,72.1,3796.0,13988.0,2.0,0,
84020,1858.6,65.0,238.2,77.9,3796.0,13988.0,2.0,0,
84120,1861.6,62.0,238.3,92.0,3796.0,13988.0,2.0,0,
84220,1857.3,62.9,238.3,106.4,3796.0,13988.0,2.0,0,
84320,1859.0,64.3,238.3,237.6,3796.0,13988.0,2.0,0,
84520,1857.2,64.8,238.4,298.7,3796.0,13988.0,2.0,0,
84620,1858.0,64.7,238.5,299.0,3796.0,13988.0,2.0,0,
84720,1858.2,65.5,238.6,299.5,3796.0,13988.0,2.0,0,
84820,1857.5,63.2,238.7,299.0,3796.0,13988.0,2.0,0,
84920,1857.7,113.2,233.6,298.0,4095.0,18014.0,3.0,1,
85020,1906.1,158.2,235.9,73.7,4095.0,20217.0,2.0,0,
85120,1943.6,223.2,220.2,39.9,3893.0,15056.0,2.0,0,
85220,1830.7,273.9,220.2,40.5,4095.0,15082.0,2.0,0,
85320,1916.7,231.0,213.4,79.9,4095.0,13542.0,2.0,0,
85520,1889.7,195.9,215.0,87.8,3692.0,12576.0,2.0,0,
85620,1862.1,72.4,215.2,41.1,3692.0,12576.0,2.0,0,
85720,1863.5,61.9,215.1,41.5,3692.0,12576.0,2.0,0,
85820,1861.2,62.6,215.1,70.5,3692.0,12576.0,2.0,0,
85920,1859.0,62.9,215.1,113.9,3692.0,12576.0,2.0,0,
86020,1860.5,64.8,215.1,299.1,3692.0,12576.0,2.0,0,
86120,1855.6,63.3,215.1,299.6,3692.0,12576.0,2.0,0,
86220,1857.8,64.6,215.1,299.5,3692.0,12576.0,2.0,0,
86320,1858.5,65.8,215.1,298.8,3692.0,12576.0,2.0,0,
86520,1859.8,179.5,215.3,298.8,3692.0,12576.0,2.0,0,
86620,1956.7,246.6,207.2,118.0,4095.0,20581.0,3.0,1,
86720,1804.0,348.6,223.7,56.5,3885.0,13858.0,2.0,0,
86820,1927.3,167.3,227.8,71.1,4095.0,13669.0,2.0,0,
86920,1911.7,222.7,239.7,72.5,3983.0,14137.0,2.0,0,
87020,1884.3,187.9,236.9,82.0,4095.0,13853.0,2.0,0,
87120,1963.6,153.3,225.7,56.8,4095.0,17938.0,3.0,1,
87220,1813.1,68.6,223.0,37.0,4095.0,17773.0,3.0,1,
87320,1861.0,63.4,223.0,28.9,4095.0,17773.0,3.0,1,
87520,1859.1,62.0,223.0,100.9,4095.0,17773.0,3.0,1,
87620,1855.4,61.8,223.0,298.5,4095.0,17773.0,3.0,1,
87720,1858.4,62.3,222.9,298.7,4095.0,17773.0,3.0,1,
87820,1856.8,61.2,222.9,299.0,4095.0,17773.0,3.0,1,
87920,1858.5,62.1,222.8,298.5,4095.0,17773.0,3.0,1,
88020,1857.6,62.4,222.7,298.8,4095.0,17773.0,3.0,1,
88120,1861.7,64.1,222.6,299.0,4095.0,17773.0,3.0,1,
88220,1873.0,200.0,229.6,253.6,4095.0,15880.0,2.0,0,
88320,1922.1,189.0,238.9,158.5,4016.0,14898.0,2.0,0,
88520,1889.2,318.9,218.1,93.2,4095.0,13626.0,2.0,0,
88620,1979.1,148.5,217.0,137.2,4069.0,14328.0,2.0,0,
88720,1841.6,266.5,235.1,110.5,3855.0,12812.0,2.0,0,
88820,1890.9,75.2,238.2,71.2,4043.0,12813.0,2.0,0,
88920,1859.1,66.0,238.2,71.4,4043.0,12813.0,2.0,0,
89020,1863.3,62.6,238.2,94.2,4043.0,12813.0,2.0,0,
89120,1858.2,63.6,238.3,176.4,4043.0,12813.0,2.0,0,
89220,1859.2,63.2,238.2,284.1,4043.0,12813.0,2.0,0,
89320,1859.0,59.8,238.2,298.4,4043.0,12813.0,2.0,0,
89520,1856.2,62.0,238.3,276.6,4043.0,12813.0,2.0,0,
89620,1858.9,62.9,238.3,298.1,4043.0,12813.0,2.0,0,
89720,1859.8,59.6,238.2,298.9,4043.0,12813.0,2.0,0,
89820,1870.9,316.0,246.5,239.4,3774.0,15702.0,2.0,0,
89920,1901.8,310.5,235.5,46.5,4095.0,15994.0,2.0,0,
90020,1911.8,148.7,236.9,43.8,4078.0,13126.0,2.0,0,
90120,1936.5,233.8,238.2,70.1,3917.0,14526.0,2.0,0,
90220,1853.5,364.2,249.2,134.3,3920.0,13653.0,2.0,0,
90320,1912.0,234.5,232.7,76.6,4095.0,14423.0,2.0,0,
90520,1860.3,62.4,236.2,88.8,4095.0,14423.0,2.0,0,
90620,1861.1,60.2,236.1,91.3,4095.0,14423.0,2.0,0,
90720,1860.5,60.5,236.0,80.2,4095.0,14423.0,2.0,0,
90820,1852.5,62.9,236.1,219.0,4095.0,14423.0,2.0,0,
90920,1860.8,63.7,236.1,300.1,4095.0,14423.0,2.0,0,
91020,1857.1,61.2,236.1,299.8,4095.0,14423.0,2.0,0,
91120,1858.7,60.6,236.0,299.0,4095.0,14423.0,2.0,0,
91220,1859.0,58.9,235.9,298.9,4095.0,14423.0,2.0,0,
91320,1857.8,59.6,235.8,299.2,4095.0,14423.0,2.0,0,
91520,1934.7,165.3,227.6,109.5,4095.0,15503.0,2.0,0,
91620,1884.7,266.2,237.0,99.3,3906.0,13691.0,2.0,0,
91720,1885.8,252.1,236.4,104.2,4095.0,14449.0,2.0,0,
91820,1917.5,193.4,226.3,71.5,4095.0,14239.0,2.0,0,
91920,1891.9,222.4,233.7,42.3,4095.0,13627.0,2.0,0,
92020,1888.5,194.7,242.6,48.8,3906.0,11610.0,2.0,0,
92120,1863.8,70.0,242.7,71.9,3906.0,11610.0,2.0,0,
92220,1861.8,61.6,242.7,80.8,3906.0,11610.0,2.0,0,
92320,1862.9,62.0,242.7,84.1,3906.0,11610.0,2.0,0,
92520,1857.3,61.3,242.5,298.3,3906.0,11610.0,2.0,0,
92620,1858.5,62.7,242.4,298.5,3906.0,11610.0,2.0,0,
92720,1860.0,60.5,242.4,299.1,3906.0,11610.0,2.0,0,
92820,1858.4,61.2,242.5,299.5,3906.0,11610.0,2.0,0,
92920,1859.3,61.5,242.5,299.3,3906.0,11610.0,2.0,0,
93020,1928.0,182.9,244.7,299.6,3906.0,11610.0,2.0,0,
93120,1825.5,335.7,249.2,246.3,4095.0,17168.0,2.0,0,
93220,1931.5,279.4,241.3,171.5,4095.0,13871.0,2.0,0,
93320,1912.0,234.6,260.3,99.8,4095.0,14367.0,2.0,0,
93520,1944.2,204.2,254.0,56.2,4095.0,13503.0,2.0,0,
93620,1831.3,166.1,248.9,70.6,4095.0,13701.0,2.0,0,
93720,1881.6,62.5,245.2,89.7,4095.0,13701.0,2.0,0,
93820,1860.2,62.8,245.2,94.4,4095.0,13701.0,2.0,0,
93920,1863.2,61.2,245.2,131.7,4095.0,13701.0,2.0,0,
94020,1860.3,60.1,245.2,195.1,4095.0,13701.0,2.0,0,
94120,1858.1,60.9,245.2,298.3,4095.0,13701.0,2.0,0,
94220,1851.8,56.9,245.3,299.6,4095.0,13701.0,2.0,0,
94320,1856.2,58.9,245.3,298.7,4095.0,13701.0,2.0,0,
94520,1859.6,56.5,245.2,298.0,4095.0,13701.0,2.0,0,
94620,1858.7,55.9,245.1,298.4,4095.0,13701.0,2.0,0,
94720,1894.0,157.1,245.7,173.4,4095.0,14913.0,2.0,0,
94820,1887.4,270.8,240.6,74.3,4095.0,15161.0,2.0,0,
94920,1892.2,376.3,231.9,109.8,4087.0,12886.0,2.0,0,
95020,1977.0,147.2,229.8,103.2,4095.0,14034.0,2.0,0,
95120,1823.3,209.4,225.7,75.3,4095.0,13268.0,2.0,0,
95220,1878.9,319.8,236.6,85.9,4095.0,12656.0,2.0,0,
95320,1890.3,73.3,236.0,99.5,4095.0,13014.0,2.0,0,
95520,1862.9,58.2,235.9,99.0,4095.0,13014.0,2.0,0,
95620,1860.9,56.8,235.8,158.1,4095.0,13014.0,2.0,0,
95720,1860.5,57.8,235.8,298.1,4095.0,13014.0,2.0,0,
95820,1861.2,56.5,235.6,298.9,4095.0,13014.0,2.0,0,
95920,1859.0,56.1,235.5,298.6,4095.0,13014.0,2.0,0,
96020,1858.9,55.8,235.5,298.4,4095.0,13014.0,2.0,0,
96120,1856.3,54.6,235.5,299.0,4095.0,13014.0,2.0,0,
96220,1860.5,56.6,235.5,299.2,4095.0,13014.0,2.0,0,
96320,1868.1,238.2,228.3,298.1,4095.0,20076.0,3.0,1,
96520,1974.2,140.4,218.5,109.9,4095.0,14148.0,2.0,0,
96620,1833.2,230.4,212.8,130.5,4095.0,13584.0,2.0,0,
96720,1901.9,331.8,217.4,135.7,4049.0,12204.0,2.0,0,
96820,1907.1,421.0,204.1,112.3,4095.0,13495.0,2.0,0,
96920,1875.2,101.1,218.3,88.8,4095.0,12195.0,2.0,0,
97020,1859.3,58.7,218.3,85.5,4095.0,12195.0,2.0,0,
97120,1861.0,57.5,218.2,66.6,4095.0,12195.0,2.0,0,
97220,1861.6,57.2,218.2,40.3,4095.0,12195.0,2.0,0,
97320,1858.7,55.9,218.2,101.5,4095.0,12195.0,2.0,0,
97520,1858.9,55.3,218.3,298.8,4095.0,12195.0,2.0,0,
97620,1858.9,57.0,218.3,299.2,4095.0,12195.0,2.0,0,
97720,1860.1,58.3,218.2,299.8,4095.0,12195.0,2.0,0,
97820,1861.2,54.8,218.3,299.5,4095.0,12195.0,2.0,0,
97920,1883.4,143.3,231.0,219.4,4095.0,17049.0,3.0,1,
98020,1928.3,221.6,231.9,30.1,3919.0,16058.0,2.0,0,
98120,1855.4,317.2,246.4,39.4,4095.0,13319.0,2.0,0,
98220,1915.7,349.5,244.6,56.0,4095.0,13664.0,2.0,0,
98320,1905.9,184.5,257.6,72.4,4095.0,13451.0,2.0,0,
98520,1867.6,99.0,246.4,69.9,4095.0,13911.0,2.0,0,
98620,1861.9,61.0,246.4,93.4,4095.0,13911.0,2.0,0,
98720,1862.2,57.5,246.4,148.9,4095.0,13911.0,2.0,0,
98820,1861.0,55.2,246.4,188.8,4095.0,13911.0,2.0,0,
98920,1859.6,58.8,246.4,227.1,4095.0,13911.0,2.0,0,
99020,1857.5,60.5,246.5,299.0,4095.0,13911.0,2.0,0,
99120,1860.5,58.8,246.5,298.7,4095.0,13911.0,2.0,0,
99220,1859.4,59.2,246.5,298.5,4095.0,13911.0,2.0,0,
99320,1859.4,59.9,246.6,298.0,4095.0,13911.0,2.0,0,
99520,1869.1,246.3,242.4,240.1,4095.0,13911.0,2.0,0,
99620,1885.9,271.5,248.4,50.4,4095.0,15616.0,2.0,0,
99720,1923.7,180.7,234.2,40.0,4095.0,14041.0,2.0,0,
99820,1889.3,184.9,241.1,41.1,4095.0,13368.0,2.0,0,
99920,1917.4,263.0,235.1,72.2,3763.0,11720.0,2.0,0,
100020,1861.1,133.6,227.6,72.1,4095.0,13629.0,2.0,0,
100120,1884.2,113.9,230.3,86.7,4095.0,12157.0,2.0,0,
100220,1872.1,64.1,230.3,135.0,4095.0,12157.0,2.0,0,
100320,1858.2,62.0,230.3,151.9,4095.0,12157.0,2.0,0,
100520,1855.5,55.8,230.4,232.3,4095.0,12157.0,2.0,0,
100620,1857.4,57.3,230.3,298.9,4095.0,12157.0,2.0,0,
100720,1854.9,57.2,230.3,298.7,4095.0,12157.0,2.0,0,
100820,1857.7,54.4,230.3,298.4,4095.0,12157.0,2.0,0,
100920,1859.3,57.5,230.2,298.3,4095.0,12157.0,2.0,0,
101020,1860.0,58.4,230.2,298.3,4095.0,12157.0,2.0,0,
101120,1858.9,52.5,230.2,298.0,4095.0,12157.0,2.0,0,
101220,1886.0,193.2,216.3,240.9,4089.0,16569.0,2.0,0,
101320,1896.5,242.7,217.0,227.2,4081.0,13866.0,2.0,0,
101520,1850.2,210.8,210.3,136.1,4095.0,13265.0,2.0,0,
101620,1899.6,221.4,215.7,93.6,4095.0,12812.0,2.0,0,
101720,1883.8,414.2,228.6,72.3,3909.0,12390.0,2.0,0,
101820,1872.2,81.8,231.7,73.0,4027.0,12512.0,2.0,0,
101920,1861.2,63.7,231.7,56.9,4027.0,12512.0,2.0,0,
102020,1861.7,57.3,231.6,39.2,4027.0,12512.0,2.0,0,
102120,1861.6,60.2,231.5,37.5,4027.0,12512.0,2.0,0,
102220,1859.4,61.0,231.5,239.2,4027.0,12512.0,2.0,0,
102320,1857.1,57.0,231.6,298.4,4027.0,12512.0,2.0,0,
102520,1859.9,55.3,231.6,298.2,4027.0,12512.0,2.0,0,
102620,1861.4,58.3,231.6,298.7,4027.0,12512.0,2.0,0,
102720,1859.3,58.6,231.6,298.7,4027.0,12512.0,2.0,0,
102820,1869.8,123.7,239.1,140.1,4095.0,19736.0,3.0,1,
102920,1988.3,144.5,235.5,27.9,4095.0,14449.0,2.0,0,
103020,1817.4,284.7,245.0,39.1,4095.0,14255.0,2.0,0,
103120,1908.7,343.6,248.1,85.8,3862.0,12025.0,2.0,0,
103220,1919.6,165.2,242.4,72.0,4095.0,14132.0,2.0,0,
103320,1882.6,146.0,246.9,66.8,4095.0,13513.0,2.0,0,
103520,1860.6,62.7,231.2,134.6,4095.0,13513.0,2.0,0,
103620,1861.0,58.6,231.2,154.4,4095.0,13513.0,2.0,0,
103720,1859.6,57.7,231.3,189.9,4095.0,13513.0,2.0,0,
103820,1857.4,67.1,231.5,249.7,4095.0,13513.0,2.0,0,
103920,1856.9,67.8,231.8,298.7,4095.0,13513.0,2.0,0,
104020,1857.3,72.5,232.2,298.5,4095.0,13513.0,2.0,0,
104120,1856.7,115.4,233.4,298.1,4095.0,13513.0,2.0,0,
104220,1850.7,290.9,242.0,278.6,4095.0,13513.0,2.0,0,
104320,1843.8,566.4,266.4,57.1,2513.0,19064.0,18.0,1,
104520,1890.7,356.7,389.8,36.9,4095.0,19643.0,3.0,1,
104620,1934.1,306.8,381.0,39.2,4095.0,13889.0,2.0,0,
104720,1914.4,172.3,386.8,39.2,4095.0,14091.0,2.0,0,
104820,1896.8,207.9,380.4,52.3,4095.0,13726.0,2.0,0,
104920,1941.2,270.6,378.9,71.1,4095.0,13326.0,2.0,0,
105020,1873.8,159.3,380.5,93.6,4095.0,15055.0,2.0,0,
105120,1864.0,89.1,381.4,130.7,4095.0,15055.0,2.0,0,
105220,1857.0,209.2,383.2,101.4,4095.0,15055.0,2.0,0,
105320,1872.0,125.6,391.9,100.3,4095.0,15055.0,2.0,0,
105520,1844.3,424.0,396.0,57.1,4095.0,15055.0,2.0,0,
105620,1886.9,1543.7,520.3,56.4,4095.0,41898.0,5.0,1,
105720,1951.6,346.9,575.0,28.0,4095.0,28772.0,11.0,1,
105820,1846.5,408.3,576.5,27.8,4095.0,28772.0,11.0,1,
105920,1819.5,937.4,645.1,28.0,4030.0,33411.0,9.0,1,
106020,1901.0,1077.3,691.7,27.4,4095.0,29836.0,17.0,1,
106120,1905.2,378.6,699.8,27.5,3910.0,19234.0,12.0,1,
106220,1880.9,234.9,699.4,28.3,4095.0,14491.0,2.0,0,
106320,1913.5,268.4,694.7,29.7,4095.0,13963.0,2.0,0,
106520,1872.4,185.9,697.0,40.0,4095.0,13188.0,2.0,0,
106620,1882.3,214.3,701.0,66.6,4095.0,11511.0,2.0,0,
106720,1874.1,148.0,701.6,54.8,4095.0,11511.0,2.0,0,
106820,1854.3,87.9,701.4,66.2,4095.0,11511.0,2.0,0,
106920,1847.8,356.4,699.3,57.2,4095.0,11511.0,2.0,0,
107020,1853.7,577.3,715.2,51.3,1973.0,15502.0,17.0,1,
107120,1856.0,477.9,726.1,29.8,1607.0,12319.0,17.0,1,
107220,1861.1,451.2,680.3,29.3,1748.0,14235.0,2.0,0,
107320,1865.2,426.6,609.8,29.4,1623.0,13276.0,18.0,1,
107520,1859.7,364.8,563.6,29.6,1446.0,11742.0,2.0,0,
107620,1858.5,540.4,460.5,29.6,2680.0,14698.0,26.0,0,
107720,1889.8,1472.2,462.4,29.6,3257.0,20353.0,28.0,0,
107820,1947.4,280.9,511.0,28.4,4095.0,13852.0,2.0,0,
107920,1858.7,232.6,511.3,28.2,4095.0,15696.0,2.0,0,
108020,1868.1,307.5,516.3,28.5,4095.0,12926.0,2.0,0,
108120,1897.0,441.3,516.9,28.9,3439.0,11664.0,2.0,0,
108220,1888.0,208.7,511.7,71.5,4095.0,12950.0,2.0,0,
108320,1864.7,55.4,513.9,56.3,4095.0,13084.0,2.0,0,
108520,1860.0,66.4,509.9,39.3,4095.0,13084.0,2.0,0,
108620,1856.2,51.1,493.5,140.8,4095.0,13084.0,2.0,0,
108720,1859.6,57.8,477.8,298.0,4095.0,13084.0,2.0,0,
108820,1866.6,61.5,466.0,299.1,4095.0,13084.0,2.0,0,
108920,1853.2,63.2,454.2,298.1,4095.0,13084.0,2.0,0,
109020,1860.4,62.6,443.8,298.3,4095.0,13084.0,2.0,0,
109120,1858.0,57.3,434.8,299.1,4095.0,13084.0,2.0,0,
109220,1861.1,53.8,426.0,298.9,4095.0,13084.0,2.0,0,
109320,1948.3,119.1,381.6,237.6,4085.0,13494.0,2.0,0,
109520,1893.1,238.6,241.0,81.3,4095.0,13515.0,2.0,0,
109620,1890.0,119.5,231.7,41.8,4095.0,13829.0,2.0,0,
109720,1880.3,173.0,237.4,41.3,4095.0,13126.0,2.0,0,
109820,1941.6,321.4,232.1,71.1,4095.0,11668.0,2.0,0,
109920,1818.9,70.1,234.0,41.8,4095.0,13204.0,2.0,0,
110020,1860.9,48.0,233.9,42.1,4095.0,13204.0,2.0,0,
110120,1865.4,46.3,233.4,75.1,4095.0,13204.0,2.0,0,
110220,1863.1,46.1,232.9,100.2,4095.0,13204.0,2.0,0,
110320,1855.5,42.3,232.9,243.1,4095.0,13204.0,2.0,0,
110520,1861.6,45.0,232.1,260.0,4095.0,13204.0,2.0,0,
110620,1860.7,45.2,231.7,262.5,4095.0,13204.0,2.0,0,
110720,1862.6,42.8,231.3,275.9,4095.0,13204.0,2.0,0,
110820,1860.1,46.4,231.0,297.9,4095.0,13204.0,2.0,0,
110920,1837.4,131.9,223.3,259.1,4095.0,17028.0,3.0,1,
111020,1919.3,272.4,207.1,106.0,4095.0,14374.0,2.0,0,
111120,1876.6,192.6,225.3,118.0,4095.0,14644.0,2.0,0,
111220,1871.3,270.5,222.8,92.8,4095.0,12888.0,2.0,0,
111320,1952.0,326.4,217.0,77.9,4095.0,13431.0,2.0,0,
111520,1884.0,108.0,216.6,42.7,4095.0,12515.0,2.0,0,
111620,1859.9,48.7,216.6,41.5,4095.0,12515.0,2.0,0,
111720,1862.4,46.8,216.6,71.5,4095.0,12515.0,2.0,0,
111820,1857.2,43.4,216.7,82.2,4095.0,12515.0,2.0,0,
111920,1860.7,44.8,216.6,137.1,4095.0,12515.0,2.0,0,
112020,1860.4,44.3,216.6,253.7,4095.0,12515.0,2.0,0,
112120,1860.2,46.0,216.7,278.7,4095.0,12515.0,2.0,0,
112220,1860.6,44.3,216.6,298.1,4095.0,12515.0,2.0,0,
112320,1861.0,45.9,216.7,254.5,4095.0,12515.0,2.0,0,
112520,1877.9,65.2,216.1,279.2,3887.0,13822.0,4.0,1,
112620,1867.1,262.1,218.9,138.4,4095.0,14692.0,2.0,0,
112720,1868.1,393.8,217.4,72.5,4095.0,13253.0,2.0,0,
112820,1934.8,98.7,218.9,72.7,4095.0,13950.0,2.0,0,
112920,1838.1,203.9,221.9,46.4,4095.0,13104.0,2.0,0,
113020,1881.5,279.4,215.0,52.1,4095.0,12062.0,2.0,0,
113120,1889.8,93.2,207.1,77.6,4095.0,14296.0,2.0,0,
113220,1863.5,51.0,207.2,73.2,4095.0,14296.0,2.0,0,
113320,1862.8,49.9,207.2,105.1,4095.0,14296.0,2.0,0,
113520,1857.3,48.2,207.3,221.3,4095.0,14296.0,2.0,0,
113620,1861.4,45.8,207.3,241.0,4095.0,14296.0,2.0,0,
113720,1859.2,44.2,207.3,241.1,4095.0,14296.0,2.0,0,
113820,1860.6,46.2,207.3,241.2,4095.0,14296.0,2.0,0,
113920,1859.2,45.1,207.3,241.1,4095.0,14296.0,2.0,0,
114020,1859.3,44.3,207.3,279.2,4095.0,14296.0,2.0,0,
114120,1861.5,67.0,207.3,285.8,4095.0,14296.0,2.0,0,
114220,1908.6,115.6,211.0,237.8,4095.0,13956.0,2.0,0,
114320,1854.5,206.4,205.4,194.9,4095.0,14497.0,2.0,0,
114520,1902.5,314.0,187.5,73.1,4095.0,13718.0,2.0,0,
114620,1897.3,172.2,196.9,77.7,4095.0,14161.0,2.0,0,
114720,1919.7,214.5,203.7,56.7,4095.0,13536.0,2.0,0,
114820,1833.5,56.4,203.5,42.0,4095.0,12883.0,2.0,0,
114920,1860.1,49.2,203.5,87.8,4095.0,12883.0,2.0,0,
115020,1860.0,47.1,203.5,106.8,4095.0,12883.0,2.0,0,
115120,1860.6,44.1,203.4,190.3,4095.0,12883.0,2.0,0,
115220,1862.8,46.2,203.4,298.0,4095.0,12883.0,2.0,0,
115320,1861.1,45.8,203.4,246.7,4095.0,12883.0,2.0,0,
115520,1860.0,44.8,203.4,243.2,4095.0,12883.0,2.0,0,
115620,1858.7,46.1,203.4,241.5,4095.0,12883.0,2.0,0,
115720,1860.5,43.8,203.3,263.0,4095.0,12883.0,2.0,0,
115820,1839.8,257.2,204.1,239.4,4095.0,18947.0,3.0,1,
115920,1880.5,361.0,210.4,79.0,4095.0,12901.0,2.0,0,
116020,1892.7,134.1,214.8,69.8,4095.0,14221.0,2.0,0,
116120,1875.2,248.1,229.3,69.9,4095.0,13767.0,2.0,0,
116220,1950.6,237.6,222.7,69.5,4095.0,13651.0,2.0,0,
116320,1824.2,153.0,215.1,39.4,4095.0,14755.0,2.0,0,
116520,1857.3,47.0,225.7,81.0,4095.0,14755.0,2.0,0,
116620,1859.4,47.7,225.7,71.5,4095.0,14755.0,2.0,0,
116720,1858.7,47.6,225.8,47.2,4095.0,14755.0,2.0,0,
116820,1858.0,46.7,225.9,141.4,4095.0,14755.0,2.0,0,
116920,1860.7,46.0,225.9,298.1,4095.0,14755.0,2.0,0,
117020,1860.3,48.0,226.0,290.7,4095.0,14755.0,2.0,0,
117120,1859.2,46.1,226.0,242.5,4095.0,14755.0,2.0,0,
117220,1860.0,46.5,226.0,241.2,4095.0,14755.0,2.0,0,
117320,1860.0,43.8,226.0,242.7,4095.0,14755.0,2.0,0,
117520,1866.9,236.0,234.9,253.9,4095.0,14602.0,2.0,0,
117620,1874.4,272.8,223.0,101.1,4095.0,12924.0,2.0,0,
117720,1963.9,318.1,213.6,46.8,4095.0,13795.0,2.0,0,
117820,1820.8,186.3,219.9,56.3,4095.0,14222.0,2.0,0,
117920,1882.0,205.3,221.8,72.4,4095.0,13071.0,2.0,0,
118020,1884.0,64.0,208.5,71.0,4095.0,13334.0,2.0,0,
118120,1860.5,47.0,208.5,90.4,4095.0,13334.0,2.0,0,
118220,1859.7,43.5,208.5,140.3,4095.0,13334.0,2.0,0,
118320,1857.7,49.3,208.4,190.0,4095.0,13334.0,2.0,0,
118520,1861.3,43.8,208.4,241.5,4095.0,13334.0,2.0,0,
118620,1858.3,45.2,208.4,241.0,4095.0,13334.0,2.0,0,
118720,1862.3,48.2,208.4,244.5,4095.0,13334.0,2.0,0,
118820,1859.9,46.0,208.4,242.2,4095.0,13334.0,2.0,0,
118920,1861.7,45.4,208.4,241.5,4095.0,13334.0,2.0,0,
119020,1864.8,282.1,207.1,241.0,4095.0,17577.0,3.0,1,
119120,1859.1,422.7,204.3,52.0,4095.0,14899.0,2.0,0,
119220,1942.3,122.9,214.2,42.6,4095.0,13204.0,2.0,0,
119320,1822.0,229.0,217.9,43.3,4095.0,14052.0,2.0,0,
119520,1883.9,400.1,206.3,70.7,4095.0,14213.0,2.0,0,
119620,1880.6,128.8,225.0,65.8,4095.0,13203.0,2.0,0,
119720,1861.6,51.3,225.1,71.4,4095.0,13203.0,2.0,0,
119820,1859.5,50.0,225.1,66.4,4095.0,13203.0,2.0,0,
119920,1857.3,48.6,225.2,84.2,4095.0,13203.0,2.0,0,
120020,1859.8,45.9,225.2,206.2,4095.0,13203.0,2.0,0,
120120,1861.3,45.3,225.2,261.2,4095.0,13203.0,2.0,0,
120220,1862.0,45.4,225.1,241.9,4095.0,13203.0,2.0,0,
120320,1862.2,41.6,225.1,240.9,4095.0,13203.0,2.0,0,
120520,1859.5,49.0,225.1,245.0,4095.0,13203.0,2.0,0,
120620,1858.0,82.2,225.1,298.2,4095.0,13203.0,2.0,0,
120720,1900.1,181.7,220.1,137.0,3631.0,14213.0,2.0,0,
120820,1830.5,251.9,207.5,79.8,4095.0,13454.0,2.0,0,
120920,1900.7,254.2,198.8,116.3,4095.0,14132.0,2.0,0,
121020,1894.2,137.8,205.4,131.2,4095.0,14406.0,2.0,0,
121120,1896.0,225.9,212.4,82.8,4095.0,13493.0,2.0,0,
121220,1883.6,289.7,197.8,72.2,4095.0,13769.0,2.0,0,
121320,1845.1,59.1,203.6,70.7,4095.0,13097.0,2.0,0,
121520,1860.5,46.9,203.5,72.9,4095.0,13097.0,2.0,0,
121620,1859.0,46.6,203.5,56.3,4095.0,13097.0,2.0,0,
121720,1860.8,47.1,203.5,237.7,4095.0,13097.0,2.0,0,
121820,1861.2,46.2,203.5,241.1,4095.0,13097.0,2.0,0,
121920,1860.5,47.0,203.6,241.1,4095.0,13097.0,2.0,0,
122020,1860.5,46.2,203.6,242.4,4095.0,13097.0,2.0,0,
122120,1859.6,45.6,203.6,241.5,4095.0,13097.0,2.0,0,
122220,1859.5,45.5,203.6,280.6,4095.0,13097.0,2.0,0,
122320,1863.9,281.8,208.8,159.1,4095.0,15061.0,2.0,0,
122520,1865.5,261.4,233.0,41.9,4095.0,14938.0,2.0,0,
122620,1930.5,297.0,229.4,41.4,4095.0,14362.0,2.0,0,
122720,1848.6,114.4,220.1,39.7,4095.0,13559.0,2.0,0,
122820,1874.3,189.6,234.3,43.2,4095.0,12917.0,2.0,0,
122920,1878.5,60.1,226.7,72.1,4095.0,13311.0,2.0,0,
123020,1859.7,50.5,226.8,66.2,4095.0,13311.0,2.0,0,
123120,1862.7,48.8,226.8,84.6,4095.0,13311.0,2.0,0,
123220,1855.1,48.9,226.9,189.2,4095.0,13311.0,2.0,0,
123320,1863.1,48.3,226.9,251.1,4095.0,13311.0,2.0,0,
123520,1860.7,48.6,226.9,241.7,4095.0,13311.0,2.0,0,
123620,1859.8,47.0,226.9,240.9,4095.0,13311.0,2.0,0,
123720,1859.9,47.4,227.0,240.5,4095.0,13311.0,2.0,0,
123820,1858.3,46.3,227.0,241.0,4095.0,13311.0,2.0,0,
123920,1873.7,219.9,227.5,239.5,3463.0,13576.0,2.0,0,
124020,1869.5,253.5,210.7,73.7,4095.0,15314.0,2.0,0,
124120,1943.3,362.8,204.6,88.3,4095.0,13349.0,2.0,0,
124220,1812.0,199.4,214.2,92.5,4095.0,14240.0,2.0,0,
124320,1875.3,248.1,218.6,71.5,4095.0,13636.0,2.0,0,
124520,1892.9,89.1,220.7,70.9,4095.0,12962.0,2.0,0,
124620,1861.9,53.3,220.7,71.7,4095.0,12962.0,2.0,0,
124720,1860.9,47.2,220.7,72.5,4095.0,12962.0,2.0,0,
124820,1861.3,48.9,220.6,92.7,4095.0,12962.0,2.0,0,
124920,1863.2,48.2,220.5,239.6,4095.0,12962.0,2.0,0,
125020,1859.0,45.8,220.5,242.1,4095.0,12962.0,2.0,0,
125120,1859.4,45.4,220.5,242.5,4095.0,12962.0,2.0,0,
125220,1856.6,46.6,220.5,278.8,4095.0,12962.0,2.0,0,
125320,1860.3,47.6,220.5,297.9,4095.0,12962.0,2.0,0,
125520,1845.2,117.5,220.2,278.4,4095.0,16906.0,3.0,1,
125620,1948.4,130.5,222.9,83.0,4095.0,13399.0,2.0,0,
125720,1788.3,282.5,233.8,71.7,4095.0,13840.0,2.0,0,
125820,1887.0,373.0,231.5,72.3,4095.0,13093.0,2.0,0,
125920,1899.9,164.4,225.4,41.7,4095.0,13841.0,2.0,0,
126020,1872.2,180.9,231.6,41.0,4095.0,14157.0,2.0,0,
126120,1885.5,149.3,224.5,71.3,4095.0,11957.0,2.0,0,
126220,1858.0,56.3,224.6,65.6,4095.0,11957.0,2.0,0,
126320,1863.3,49.9,224.5,71.4,4095.0,11957.0,2.0,0,
126520,1859.9,50.3,224.6,94.3,4095.0,11957.0,2.0,0,
126620,1858.3,51.8,224.6,268.0,4095.0,11957.0,2.0,0,
126720,1858.4,48.1,224.7,278.8,4095.0,11957.0,2.0,0,
126820,1860.3,48.6,224.7,280.3,4095.0,11957.0,2.0,0,
126920,1857.5,45.9,224.7,241.1,4095.0,11957.0,2.0,0,
127020,1859.9,49.8,224.6,240.5,4095.0,11957.0,2.0,0,
127120,1902.2,153.7,226.0,240.9,4095.0,11957.0,2.0,0,
127220,1818.0,345.9,232.3,163.6,4095.0,13969.0,2.0,0,
127320,1891.7,307.6,226.1,85.1,4095.0,13814.0,2.0,0,
127520,1872.6,260.1,225.4,41.7,4095.0,12981.0,2.0,0,
127620,1927.5,291.3,224.9,69.6,4095.0,13703.0,2.0,0,
127720,1844.5,140.0,222.9,68.0,4095.0,14209.0,2.0,0,
127820,1878.8,56.3,222.1,66.9,4095.0,14209.0,2.0,0,
127920,1860.0,51.0,222.1,84.6,4095.0,14209.0,2.0,0,
128020,1861.8,49.6,222.1,135.4,4095.0,14209.0,2.0,0,
128120,1861.1,48.8,222.1,189.3,4095.0,14209.0,2.0,0,
128220,1857.4,47.8,222.0,278.9,4095.0,14209.0,2.0,0,
128320,1857.3,47.1,222.1,298.2,4095.0,14209.0,2.0,0,
128520,1857.8,52.4,222.1,277.4,4095.0,14209.0,2.0,0,
128620,1859.4,49.0,222.1,262.5,4095.0,14209.0,2.0,0,
128720,1859.0,52.3,222.1,279.0,4095.0,14209.0,2.0,0,
128820,1877.7,125.3,224.6,155.2,4095.0,14092.0,2.0,0,
128920,1857.7,291.1,226.7,53.2,4095.0,14890.0,2.0,0,
129020,1900.7,389.0,225.7,49.0,4095.0,13264.0,2.0,0,
129120,1893.0,113.0,227.0,43.7,4095.0,12834.0,2.0,0,
129220,1856.1,210.4,229.8,55.0,4095.0,13346.0,2.0,0,
129320,1876.4,296.7,231.2,69.7,3982.0,12190.0,2.0,0,
129520,1859.2,52.8,230.8,70.2,3982.0,12190.0,2.0,0,
129620,1860.0,51.5,230.9,82.1,3982.0,12190.0,2.0,0,
129720,1859.7,47.6,230.9,112.7,3982.0,12190.0,2.0,0,
129820,1861.3,50.5,230.9,240.2,3982.0,12190.0,2.0,0,
129920,1856.9,46.6,230.9,244.2,3982.0,12190.0,2.0,0,
130020,1861.3,50.2,230.9,245.1,3982.0,12190.0,2.0,0,
130120,1859.3,47.5,230.9,261.1,3982.0,12190.0,2.0,0,
130220,1860.4,48.5,230.8,294.9,3982.0,12190.0,2.0,0,
130320,1858.9,48.3,230.8,298.5,3982.0,12190.0,2.0,0,
130520,1921.7,131.1,207.4,29.2,4080.0,13775.0,2.0,0,
130620,1835.6,205.9,207.0,48.6,4095.0,14242.0,2.0,0,
130720,1861.0,334.2,215.8,92.0,4095.0,13810.0,2.0,0,
130820,1906.4,216.9,209.0,72.3,4095.0,13773.0,2.0,0,
130920,1896.7,150.1,208.9,41.6,4095.0,13363.0,2.0,0,
131020,1869.5,103.1,220.1,39.3,4095.0,11906.0,2.0,0,
131120,1860.0,53.2,220.1,67.0,4095.0,11906.0,2.0,0,
131220,1861.3,51.7,220.1,72.2,4095.0,11906.0,2.0,0,
131320,1861.0,48.4,220.1,49.6,4095.0,11906.0,2.0,0,
131520,1859.9,51.5,220.1,278.4,4095.0,11906.0,2.0,0,
131620,1860.7,49.9,220.1,281.3,4095.0,11906.0,2.0,0,
131720,1860.6,49.6,220.1,297.8,4095.0,11906.0,2.0,0,
131820,1861.7,49.1,220.1,264.2,4095.0,11906.0,2.0,0,
131920,1861.1,47.6,220.1,250.3,4095.0,11906.0,2.0,0,
132020,1935.3,166.1,224.3,240.6,3317.0,12179.0,2.0,0,
132120,1786.8,281.0,230.1,163.9,4095.0,14304.0,2.0,0,
132220,1885.0,371.7,235.4,172.1,4095.0,13189.0,2.0,0,
132320,1899.6,125.8,223.9,114.6,4095.0,13786.0,2.0,0,
132520,1948.3,310.9,223.8,69.0,4095.0,13906.0,2.0,0,
132620,1827.0,93.6,213.4,81.9,4095.0,13042.0,2.0,0,
132720,1858.9,55.5,213.5,78.8,4095.0,13042.0,2.0,0,
132820,1860.1,50.0,213.5,92.0,4095.0,13042.0,2.0,0,
132920,1853.7,47.5,213.6,141.3,4095.0,13042.0,2.0,0,
133020,1860.6,49.5,213.6,239.1,4095.0,13042.0,2.0,0,
133120,1858.8,50.0,213.6,298.2,4095.0,13042.0,2.0,0,
133220,1858.9,47.1,213.6,280.6,4095.0,13042.0,2.0,0,
133320,1859.5,46.4,213.6,242.6,4095.0,13042.0,2.0,0,
133520,1858.3,48.8,213.7,253.0,4095.0,13042.0,2.0,0,
133620,1844.2,95.7,210.8,268.6,3971.0,16358.0,3.0,1,
133720,1893.7,131.8,206.3,177.4,4095.0,13254.0,2.0,0,
133820,1862.3,272.7,212.5,125.2,4095.0,14450.0,2.0,0,
133920,1882.9,353.5,207.6,104.2,4095.0,13604.0,2.0,0,
134020,1964.0,106.3,208.2,72.6,4095.0,13010.0,2.0,0,
134120,1821.6,251.9,222.6,43.1,4095.0,13649.0,2.0,0,
134220,1878.4,249.8,231.9,39.8,4095.0,12183.0,2.0,0,
134320,1870.1,58.5,231.9,40.8,4095.0,12183.0,2.0,0,
134520,1858.5,49.8,231.8,41.7,4095.0,12183.0,2.0,0,
134620,1858.6,49.5,231.8,40.9,4095.0,12183.0,2.0,0,
134720,1860.6,47.0,231.8,240.0,4095.0,12183.0,2.0,0,
134820,1857.9,48.9,231.8,240.7,4095.0,12183.0,2.0,0,
134920,1857.6,46.7,231.8,244.9,4095.0,12183.0,2.0,0,
135020,1860.5,48.7,231.8,294.1,4095.0,12183.0,2.0,0,
135120,1860.0,49.3,231.7,298.8,4095.0,12183.0,2.0,0,
135220,1860.7,33.6,231.7,298.1,4095.0,12183.0,2.0,0,
135320,1878.8,100.7,229.8,227.4,4095.0,18431.0,3.0,1,
135520,1916.1,186.4,222.4,93.6,4095.0,13928.0,2.0,0,
135620,1825.6,245.2,218.4,99.4,4095.0,13417.0,2.0,0,
135720,1896.1,268.3,198.6,91.7,4095.0,13900.0,2.0,0,
135820,1895.6,165.9,195.0,89.9,4095.0,13376.0,2.0,0,
135920,1869.5,57.5,189.3,70.2,4095.0,14077.0,2.0,0,
136020,1857.7,49.9,189.4,88.2,4095.0,14077.0,2.0,0,
136120,1860.0,50.4,189.4,136.2,4095.0,14077.0,2.0,0,
136220,1859.4,50.5,189.3,207.0,4095.0,14077.0,2.0,0,
136320,1860.8,48.9,189.3,240.7,4095.0,14077.0,2.0,0,
136520,1859.3,45.9,189.4,241.2,4095.0,14077.0,2.0,0,
136620,1861.8,47.9,189.4,241.3,4095.0,14077.0,2.0,0,
136720,1860.1,49.5,189.3,285.6,4095.0,14077.0,2.0,0,
136820,1861.1,51.5,189.4,299.0,4095.0,14077.0,2.0,0,
136920,1915.8,197.8,196.7,246.3,3623.0,13271.0,2.0,0,
137020,1833.1,251.3,202.8,106.1,3919.0,13154.0,2.0,0,
137120,1861.6,247.0,194.8,114.2,4095.0,14778.0,2.0,0,
137220,1897.9,147.3,202.1,70.1,4095.0,12492.0,2.0,0,
137320,1870.5,312.0,209.6,41.8,4095.0,13598.0,2.0,0,
137520,1838.5,79.3,210.7,56.6,4095.0,12373.0,2.0,0,
137620,1856.0,53.2,210.8,41.4,4095.0,12373.0,2.0,0,
137720,1860.2,51.3,210.8,67.0,4095.0,12373.0,2.0,0,
137820,1854.3,52.0,210.9,74.3,4095.0,12373.0,2.0,0,
137920,1859.6,48.1,210.9,216.1,4095.0,12373.0,2.0,0,
138020,1860.2,47.8,210.9,297.1,4095.0,12373.0,2.0,0,
138120,1858.5,50.3,210.9,279.9,4095.0,12373.0,2.0,0,
138220,1860.9,47.2,210.9,243.0,4095.0,12373.0,2.0,0,
138320,1862.4,51.1,210.9,242.9,4095.0,12373.0,2.0,0,
138520,1852.5,136.3,212.4,239.4,4095.0,17541.0,3.0,1,
138620,1884.0,141.7,207.2,28.3,4033.0,12931.0,2.0,0,
138720,1867.1,276.3,218.4,29.3,4095.0,13896.0,2.0,0,
138820,1891.6,294.2,207.5,67.9,4095.0,14532.0,2.0,0,
138920,1949.5,155.2,210.3,83.7,4095.0,12483.0,2.0,0,
139020,1818.4,240.2,211.4,90.5,4095.0,13252.0,2.0,0,
139120,1877.0,134.1,214.6,77.6,4095.0,12628.0,2.0,0,
139220,1859.3,53.8,214.5,72.0,4095.0,12628.0,2.0,0,
139320,1857.8,54.9,214.6,73.9,4095.0,12628.0,2.0,0,
139520,1860.5,49.0,214.5,80.3,4095.0,12628.0,2.0,0,
139620,1860.8,47.7,214.5,298.5,4095.0,12628.0,2.0,0,
139720,1856.4,49.9,214.5,266.1,4095.0,12628.0,2.0,0,
139820,1858.6,49.6,214.6,240.9,4095.0,12628.0,2.0,0,
139920,1859.3,50.5,214.6,252.6,4095.0,12628.0,2.0,0,
140020,1860.6,48.0,214.6,270.4,4095.0,12628.0,2.0,0,
140120,1858.1,199.1,213.3,240.6,2701.0,10109.0,2.0,0,
140220,1873.9,297.9,218.8,156.0,4092.0,13421.0,2.0,0,
140320,1867.9,188.2,212.7,152.6,4095.0,14561.0,2.0,0,
140520,1791.1,300.2,225.4,40.8,4095.0,13584.0,2.0,0,
140620,1886.4,323.3,221.5,70.5,4095.0,14229.0,2.0,0,
140720,1901.1,155.0,222.5,70.2,4095.0,12469.0,2.0,0,
140820,1864.2,57.6,222.6,43.1,4095.0,12469.0,2.0,0,
140920,1859.9,52.2,222.6,87.0,4095.0,12469.0,2.0,0,
141020,1862.3,51.5,222.6,155.3,4095.0,12469.0,2.0,0,
141120,1859.3,51.7,222.6,241.0,4095.0,12469.0,2.0,0,
141220,1857.3,50.6,222.7,242.2,4095.0,12469.0,2.0,0,
141320,1860.4,50.3,222.6,281.1,4095.0,12469.0,2.0,0,
141520,1858.7,49.7,222.6,295.5,4095.0,12469.0,2.0,0,
141620,1861.2,51.5,222.6,298.0,4095.0,12469.0,2.0,0,
141720,1858.5,57.1,222.6,298.0,4095.0,12469.0,2.0,0,
141820,1865.6,145.3,217.4,238.3,3668.0,13853.0,2.0,0,
141920,1907.3,238.6,214.0,83.0,3860.0,13206.0,2.0,0,
142020,1828.5,178.1,203.6,93.8,4095.0,15284.0,2.0,0,
142120,1898.5,182.6,208.0,93.3,4095.0,12742.0,2.0,0,
142220,1876.9,370.8,222.1,81.6,4095.0,13755.0,2.0,0,
142320,1886.2,289.1,206.8,71.2,4095.0,14659.0,2.0,0,
142520,1861.3,52.2,210.5,69.8,4095.0,14659.0,2.0,0,
142620,1862.1,55.1,210.5,105.8,4095.0,14659.0,2.0,0,
142720,1855.8,52.3,210.5,106.5,4095.0,14659.0,2.0,0,
142820,1858.4,49.9,210.5,239.6,4095.0,14659.0,2.0,0,
142920,1859.0,51.2,210.5,242.8,4095.0,14659.0,2.0,0,
143020,1858.6,51.3,210.5,271.4,4095.0,14659.0,2.0,0,
143120,1859.0,53.8,210.6,298.0,4095.0,14659.0,2.0,0,
143220,1860.6,53.1,210.6,298.3,4095.0,14659.0,2.0,0,
143320,1857.5,47.4,210.6,298.1,4095.0,14659.0,2.0,0,
143520,1852.6,189.9,213.4,292.2,3853.0,13318.0,2.0,0,
143620,1875.3,292.9,227.5,228.9,4095.0,14153.0,2.0,0,
143720,1897.0,236.2,223.4,90.9,4095.0,14987.0,2.0,0,
143820,1912.8,146.8,211.8,70.1,4095.0,13891.0,2.0,0,
143920,1873.6,260.4,211.8,74.9,4095.0,13618.0,2.0,0,
144020,1865.0,65.1,209.4,70.0,4095.0,14620.0,2.0,0,
144120,1858.3,52.5,209.5,67.3,4095.0,14620.0,2.0,0,
144220,1862.4,53.6,209.5,93.6,4095.0,14620.0,2.0,0,
144320,1855.9,50.6,209.5,176.7,4095.0,14620.0,2.0,0,
144520,1859.3,53.1,209.5,241.7,4095.0,14620.0,2.0,0,
144620,1858.8,51.6,209.5,298.7,4095.0,14620.0,2.0,0,
144720,1859.3,49.5,209.5,299.2,4095.0,14620.0,2.0,0,
144820,1861.0,47.9,209.5,298.4,4095.0,14620.0,2.0,0,
144920,1859.6,52.2,209.4,298.0,4095.0,14620.0,2.0,0,
145020,1852.6,272.7,215.3,238.8,3118.0,11816.0,2.0,0,
145120,1885.4,287.4,211.5,42.5,3778.0,12315.0,2.0,0,
145220,1881.8,152.7,207.7,40.6,4095.0,14271.0,2.0,0,
145320,1932.4,212.8,204.3,41.3,4095.0,12750.0,2.0,0,
145520,1890.7,211.6,200.0,71.0,4095.0,14905.0,2.0,0,
145620,1885.5,116.9,206.0,69.8,4095.0,12867.0,2.0,0,
145720,1860.3,57.2,206.0,45.4,4095.0,12867.0,2.0,0,
145820,1857.4,53.8,206.1,68.2,4095.0,12867.0,2.0,0,
145920,1857.6,54.3,206.1,74.5,4095.0,12867.0,2.0,0,
146020,1857.1,48.4,206.1,138.1,4095.0,12867.0,2.0,0,
146120,1857.6,52.7,206.1,269.2,4095.0,12867.0,2.0,0,
146220,1859.9,54.5,206.1,298.1,4095.0,12867.0,2.0,0,
146320,1860.2,50.1,206.1,298.1,4095.0,12867.0,2.0,0,
146520,1858.4,50.7,206.1,268.9,4095.0,12867.0,2.0,0,
146620,1871.8,142.2,205.7,297.4,4054.0,18203.0,4.0,1,
146720,1869.1,330.8,208.4,103.4,4095.0,14562.0,2.0,0,
146820,1958.0,353.9,205.0,50.0,4095.0,14972.0,2.0,0,
146920,1811.3,170.1,216.8,45.2,4095.0,14704.0,2.0,0,
147020,1886.1,229.2,221.9,48.9,4095.0,13456.0,2.0,0,
147120,1886.5,389.9,225.3,82.2,4095.0,12268.0,2.0,0,
147220,1901.8,119.5,222.1,80.0,4095.0,14378.0,2.0,0,
147320,1864.0,56.8,222.1,71.2,4095.0,14378.0,2.0,0,
147520,1862.3,51.2,222.0,141.0,4095.0,14378.0,2.0,0,
147620,1861.2,52.2,221.9,226.9,4095.0,14378.0,2.0,0,
147720,1859.2,53.0,221.8,241.2,4095.0,14378.0,2.0,0,
147820,1861.0,49.2,221.8,282.5,4095.0,14378.0,2.0,0,
147920,1859.8,48.9,221.8,298.0,4095.0,14378.0,2.0,0,
148020,1860.5,50.8,221.7,268.8,4095.0,14378.0,2.0,0,
148120,1861.4,51.7,221.7,275.3,4095.0,14378.0,2.0,0,
148220,1846.2,100.0,221.7,298.2,4095.0,14378.0,2.0,0,
148320,1950.0,127.8,223.4,124.8,3834.0,13103.0,2.0,0,
148520,1881.9,322.9,229.0,69.5,4095.0,13285.0,2.0,0,
148620,1886.9,185.2,226.7,40.1,4095.0,13252.0,2.0,0,
148720,1869.7,197.0,241.6,44.3,4095.0,13524.0,2.0,0,
148820,1940.1,289.2,244.0,73.1,4050.0,12322.0,2.0,0,
148920,1814.8,64.0,245.1,46.3,4095.0,12291.0,2.0,0,
149020,1860.6,51.2,245.1,45.6,4095.0,12291.0,2.0,0,
149120,1858.5,53.9,245.2,49.4,4095.0,12291.0,2.0,0,
149220,1855.0,49.5,245.3,68.5,4095.0,12291.0,2.0,0,
149320,1857.5,49.7,245.3,250.4,4095.0,12291.0,2.0,0,
149520,1859.9,51.9,245.4,284.2,4095.0,12291.0,2.0,0,
149620,1860.4,49.9,245.4,298.2,4095.0,12291.0,2.0,0,
149720,1860.3,51.8,245.4,298.0,4095.0,12291.0,2.0,0,
149820,1859.4,54.7,245.5,297.9,4095.0,12291.0,2.0,0,
149920,1852.4,188.5,250.6,34.8,4095.0,19218.0,3.0,1,
150020,1897.4,168.2,232.9,28.5,3925.0,12871.0,2.0,0,
150120,1870.8,204.4,235.5,29.7,4095.0,13824.0,2.0,0,
150220,1898.4,271.0,232.9,45.5,4095.0,12695.0,2.0,0,
150320,1889.2,315.6,224.3,70.4,4095.0,12869.0,2.0,0,
150520,1874.5,63.7,221.3,71.4,4095.0,14193.0,2.0,0,
150620,1860.5,52.4,221.3,57.3,4095.0,14193.0,2.0,0,
150720,1858.8,53.4,221.3,85.1,4095.0,14193.0,2.0,0,
150820,1855.8,50.4,221.4,136.5,4095.0,14193.0,2.0,0,
150920,1861.3,52.9,221.3,241.6,4095.0,14193.0,2.0,0,
151020,1859.2,50.7,221.3,279.2,4095.0,14193.0,2.0,0,
151120,1859.2,51.6,221.3,251.2,4095.0,14193.0,2.0,0,
151220,1859.6,53.1,221.3,241.0,4095.0,14193.0,2.0,0,
151320,1860.0,50.7,221.3,240.9,4095.0,14193.0,2.0,0,
151520,1878.8,160.2,210.0,240.1,3458.0,11170.0,2.0,0,
151620,1857.8,318.1,216.5,188.5,4072.0,13638.0,2.0,0,
151720,1915.1,342.7,216.5,134.0,4095.0,15386.0,2.0,0,
151820,1853.0,118.5,218.8,65.8,4095.0,12735.0,2.0,0,
151920,1868.0,250.4,228.0,52.5,4095.0,13747.0,2.0,0,
152020,1879.3,315.4,216.6,88.2,3889.0,12059.0,2.0,0,
152120,1891.7,83.9,216.7,71.4,4095.0,12197.0,2.0,0,
152220,1860.5,56.7,216.6,72.3,4095.0,12197.0,2.0,0,
152320,1859.3,53.4,216.6,122.3,4095.0,12197.0,2.0,0,
152520,1860.5,52.7,216.6,247.5,4095.0,12197.0,2.0,0,
152620,1860.8,51.5,216.6,280.2,4095.0,12197.0,2.0,0,
152720,1859.2,50.3,216.6,274.4,4095.0,12197.0,2.0,0,
152820,1860.0,53.0,216.6,272.2,4095.0,12197.0,2.0,0,
152920,1859.9,52.4,216.6,254.4,4095.0,12197.0,2.0,0,
153020,1861.5,52.8,216.6,281.0,4095.0,12197.0,2.0,0,
153120,1855.2,110.2,212.3,281.3,4077.0,17021.0,3.0,1,
153220,1942.4,137.4,210.9,134.3,4095.0,14616.0,2.0,0,
153320,1800.4,238.8,209.2,103.7,4095.0,13506.0,2.0,0,
153520,1881.4,343.0,193.1,70.8,4095.0,12993.0,2.0,0,
153620,1886.0,159.4,203.6,49.8,4095.0,13631.0,2.0,0,
153720,1870.9,142.2,201.2,41.5,4095.0,12910.0,2.0,0,
153820,1863.5,56.6,201.2,65.6,4095.0,12910.0,2.0,0,
153920,1860.4,55.0,201.2,94.4,4095.0,12910.0,2.0,0,
154020,1852.4,53.7,201.2,122.7,4095.0,12910.0,2.0,0,
154120,1860.0,53.7,201.3,135.5,4095.0,12910.0,2.0,0,
154220,1859.8,55.7,201.3,298.2,4095.0,12910.0,2.0,0,
154320,1862.1,51.3,201.3,298.3,4095.0,12910.0,2.0,0,
154520,1857.3,53.8,201.4,290.3,4095.0,12910.0,2.0,0,
154620,1863.1,52.7,201.4,281.1,4095.0,12910.0,2.0,0,
154720,1926.5,310.9,209.9,238.0,4095.0,12910.0,2.0,0,
154820,1795.2,263.7,218.2,30.0,3771.0,14387.0,2.0,0,
154920,1884.1,351.4,231.1,29.1,4090.0,13884.0,2.0,0,
155020,1888.2,377.4,228.1,40.9,4095.0,13594.0,2.0,0,
155120,1876.5,266.6,243.6,54.7,4095.0,14502.0,2.0,0,
155220,1951.3,315.4,237.7,41.9,4095.0,13426.0,2.0,0,
155320,1799.0,160.9,237.5,39.9,4095.0,14973.0,2.0,0,
155520,1862.9,54.1,237.3,92.8,4095.0,14973.0,2.0,0,
155620,1858.5,51.0,237.1,94.3,4095.0,14973.0,2.0,0,
155720,1860.5,53.7,237.1,124.3,4095.0,14973.0,2.0,0,
155820,1859.7,52.7,237.1,241.0,4095.0,14973.0,2.0,0,
155920,1860.5,53.2,237.1,241.7,4095.0,14973.0,2.0,0,
156020,1862.1,52.4,237.0,248.3,4095.0,14973.0,2.0,0,
156120,1861.2,49.2,236.9,298.2,4095.0,14973.0,2.0,0,
156220,1861.0,47.7,236.9,298.0,4095.0,14973.0,2.0,0,
156320,1861.3,97.4,236.9,273.8,4095.0,14973.0,2.0,0,
156520,1873.0,182.1,236.8,41.6,4057.0,14173.0,2.0,0,
156620,1869.4,313.8,234.6,48.9,4095.0,14494.0,2.0,0,
156720,1936.5,205.0,216.7,81.2,4095.0,14582.0,2.0,0,
156820,1832.9,174.1,214.9,69.9,4095.0,14816.0,2.0,0,
156920,1883.7,210.7,220.6,39.8,4095.0,13244.0,2.0,0,
157020,1876.7,63.4,218.9,70.4,4095.0,13539.0,2.0,0,
157120,1857.4,52.3,219.0,87.9,4095.0,13539.0,2.0,0,
157220,1859.8,53.1,218.9,114.7,4095.0,13539.0,2.0,0,
157320,1855.7,50.7,219.0,189.3,4095.0,13539.0,2.0,0,
157520,1858.8,51.7,219.0,295.7,4095.0,13539.0,2.0,0,
157620,1858.9,50.3,219.0,298.1,4095.0,13539.0,2.0,0,
157720,1860.2,51.2,219.1,298.1,4095.0,13539.0,2.0,0,
157820,1861.3,52.4,219.0,298.0,4095.0,13539.0,2.0,0,
157920,1860.7,51.6,219.1,298.1,4095.0,13539.0,2.0,0,
158020,1858.2,305.7,217.0,221.0,2943.0,11404.0,2.0,0,
158120,1900.5,390.2,211.4,67.1,3957.0,14931.0,2.0,0,
158220,1897.6,138.8,215.3,70.7,4095.0,15010.0,2.0,0,
158320,1840.7,279.8,230.5,69.7,4095.0,14944.0,2.0,0,
158520,1883.2,206.0,221.1,39.4,4095.0,13645.0,2.0,0,
158620,1872.9,93.7,229.0,40.0,4095.0,13562.0,2.0,0,
158720,1859.4,54.6,228.9,72.7,4095.0,13562.0,2.0,0,
158820,1862.9,52.1,228.9,74.7,4095.0,13562.0,2.0,0,
158920,1859.8,52.1,228.9,57.1,4095.0,13562.0,2.0,0,
159020,1860.5,51.9,228.8,140.5,4095.0,13562.0,2.0,0,
159120,1858.7,51.8,228.9,298.2,4095.0,13562.0,2.0,0,
159220,1861.4,48.9,228.8,279.7,4095.0,13562.0,2.0,0,
159320,1861.0,50.0,228.8,243.0,4095.0,13562.0,2.0,0,
159520,1858.1,50.2,228.9,241.0,4095.0,13562.0,2.0,0,
159620,1913.9,116.0,227.1,242.8,3725.0,15356.0,4.0,1,
159720,1837.9,151.5,225.2,57.0,3534.0,13300.0,2.0,0,
159820,1852.4,306.2,221.3,67.7,3868.0,13293.0,2.0,0,
159920,1883.1,313.9,201.4,114.1,4095.0,14351.0,2.0,0,
160020,1881.9,139.8,205.6,81.7,4095.0,13035.0,2.0,0,
160120,1930.7,224.4,205.1,47.9,4095.0,14308.0,2.0,0,
160220,1816.4,103.5,200.3,72.7,4095.0,14242.0,2.0,0,
160320,1863.2,49.7,200.2,90.1,4095.0,14242.0,2.0,0,
160520,1853.0,47.5,200.3,94.7,4095.0,14242.0,2.0,0,
160620,1857.6,47.8,200.2,146.4,4095.0,14242.0,2.0,0,
160720,1859.8,47.2,200.1,267.0,4095.0,14242.0,2.0,0,
160820,1860.4,50.3,200.1,266.0,4095.0,14242.0,2.0,0,
160920,1860.5,51.2,200.1,251.2,4095.0,14242.0,2.0,0,
161020,1860.9,50.1,200.1,270.0,4095.0,14242.0,2.0,0,
161120,1858.6,51.2,200.1,253.2,4095.0,14242.0,2.0,0,
161220,1848.9,223.0,204.0,239.9,2866.0,11200.0,2.0,0,
161320,1881.6,266.2,207.7,109.4,4031.0,15127.0,2.0,0,
161520,1876.3,282.0,214.4,88.0,4095.0,14182.0,2.0,0,
161620,1940.1,356.4,223.2,72.7,4095.0,13996.0,2.0,0,
161720,1799.2,148.4,221.3,71.5,4095.0,13522.0,2.0,0,
161820,1884.8,170.6,221.7,41.2,4095.0,14176.0,2.0,0,
161920,1878.1,58.4,221.8,39.8,4095.0,14176.0,2.0,0,
162020,1858.2,52.0,221.9,125.5,4095.0,14176.0,2.0,0,
162120,1853.9,50.9,221.9,189.8,4095.0,14176.0,2.0,0,
162220,1856.4,48.6,221.9,240.7,4095.0,14176.0,2.0,0,
162320,1859.3,54.1,221.9,242.0,4095.0,14176.0,2.0,0,
162520,1858.6,51.6,222.1,240.5,4095.0,14176.0,2.0,0,
162620,1859.9,50.7,222.1,240.9,4095.0,14176.0,2.0,0,
162720,1861.2,48.4,222.1,275.9,4095.0,14176.0,2.0,0,
162820,1858.4,52.6,222.1,297.9,4095.0,14176.0,2.0,0,
162920,1864.7,243.4,217.1,176.8,3709.0,13922.0,2.0,0,
163020,1866.3,436.8,207.6,66.5,4095.0,15795.0,2.0,0,
163120,1952.5,157.0,216.8,92.9,4095.0,14652.0,2.0,0,
163220,1810.3,240.1,215.5,70.9,4095.0,13416.0,2.0,0,
163320,1873.9,264.3,216.5,41.5,4095.0,14266.0,2.0,0,
163520,1866.3,67.8,219.6,112.1,4095.0,12628.0,2.0,0,
163620,1859.6,50.5,219.6,104.1,4095.0,12628.0,2.0,0,
163720,1857.0,49.7,219.6,94.2,4095.0,12628.0,2.0,0,
163820,1855.0,49.0,219.6,92.5,4095.0,12628.0,2.0,0,
163920,1858.1,48.6,219.6,239.6,4095.0,12628.0,2.0,0,
164020,1858.9,50.6,219.6,298.2,4095.0,12628.0,2.0,0,
164120,1862.5,50.8,219.6,280.3,4095.0,12628.0,2.0,0,
164220,1857.9,52.3,219.6,241.1,4095.0,12628.0,2.0,0,
164320,1857.7,50.4,219.7,254.6,4095.0,12628.0,2.0,0,
164520,1883.9,154.7,225.5,240.0,4095.0,14417.0,2.0,0,
164620,1911.8,175.3,235.0,90.4,4012.0,14135.0,2.0,0,
164720,1806.9,343.8,236.9,65.7,4095.0,14983.0,2.0,0,
164820,1899.3,290.4,227.3,41.3,4095.0,15628.0,2.0,0,
164920,1888.0,123.5,232.8,40.9,4095.0,13230.0,2.0,0,
165020,1890.1,294.8,234.8,57.2,4095.0,14758.0,2.0,0,
165120,1855.2,67.4,229.6,78.8,4095.0,14834.0,2.0,0,
165220,1856.9,51.3,229.6,81.8,4095.0,14834.0,2.0,0,
165320,1860.6,50.8,229.6,80.5,4095.0,14834.0,2.0,0,
165520,1857.1,48.2,229.6,249.6,4095.0,14834.0,2.0,0,
165620,1858.7,53.1,229.6,298.1,4095.0,14834.0,2.0,0,
165720,1858.7,48.1,229.7,267.3,4095.0,14834.0,2.0,0,
165820,1861.5,49.5,229.6,275.0,4095.0,14834.0,2.0,0,
165920,1859.0,49.7,229.5,279.8,4095.0,14834.0,2.0,0,
166020,1857.8,49.1,229.5,271.8,4095.0,14834.0,2.0,0,
166120,1865.0,257.7,229.9,239.4,3984.0,16252.0,4.0,1,
166220,1861.4,236.3,219.5,66.7,4095.0,14987.0,2.0,0,
166320,1876.0,207.7,219.9,71.8,4009.0,13315.0,2.0,0,
166520,1915.0,291.6,224.9,39.6,4095.0,15170.0,2.0,0,
166620,1850.1,137.4,224.8,41.9,4095.0,13290.0,2.0,0,
166720,1873.9,121.6,229.3,91.9,4095.0,12539.0,2.0,0,
166820,1860.8,56.0,229.3,113.4,4095.0,12539.0,2.0,0,
166920,1860.5,53.3,229.3,87.7,4095.0,12539.0,2.0,0,
167020,1852.7,53.5,229.4,76.9,4095.0,12539.0,2.0,0,
167120,1859.6,53.5,229.4,151.9,4095.0,12539.0,2.0,0,
167220,1858.5,49.6,229.4,241.9,4095.0,12539.0,2.0,0,
167320,1858.6,48.8,229.3,242.1,4095.0,12539.0,2.0,0,
167520,1858.8,48.8,229.4,241.7,4095.0,12539.0,2.0,0,
167620,1860.3,50.1,229.4,241.3,4095.0,12539.0,2.0,0,
167720,1850.8,119.8,229.9,242.2,3983.0,17735.0,3.0,1,
167820,1882.2,167.2,219.2,68.5,4095.0,14146.0,2.0,0,
167920,1870.4,393.0,212.9,38.5,3371.0,11888.0,2.0,0,
168020,1943.2,401.3,207.8,88.0,4069.0,14854.0,2.0,0,
168120,1818.6,180.3,218.3,71.9,4081.0,13654.0,2.0,0,
168220,1864.7,324.2,228.9,42.8,4095.0,14956.0,2.0,0,
168320,1883.5,229.6,229.8,42.6,4095.0,12875.0,2.0,0,
168520,1860.0,49.6,229.8,73.0,4095.0,12875.0,2.0,0,
168620,1857.7,51.2,229.7,89.9,4095.0,12875.0,2.0,0,
168720,1856.7,50.9,229.7,91.2,4095.0,12875.0,2.0,0,
168820,1859.1,48.3,229.8,240.7,4095.0,12875.0,2.0,0,
168920,1860.8,53.8,229.7,281.1,4095.0,12875.0,2.0,0,
169020,1862.0,52.4,229.7,279.3,4095.0,12875.0,2.0,0,
169120,1858.1,50.5,229.8,261.7,4095.0,12875.0,2.0,0,
169220,1860.2,52.7,229.8,260.1,4095.0,12875.0,2.0,0,
169320,1858.4,209.8,229.8,266.5,4095.0,12875.0,2.0,0,
169520,1955.9,177.6,242.9,124.6,3939.0,14460.0,2.0,0,
169620,1789.7,268.1,243.0,93.2,4077.0,13646.0,2.0,0,
169720,1891.2,254.3,228.5,50.2,4095.0,15552.0,2.0,0,
169820,1893.0,177.1,223.3,70.3,4095.0,13309.0,2.0,0,
169920,1870.2,257.4,227.2,90.0,4095.0,13179.0,2.0,0,
170020,1881.8,62.8,218.5,83.4,4088.0,12752.0,2.0,0,
170120,1858.5,52.2,218.5,89.1,4088.0,12752.0,2.0,0,
170220,1861.1,52.8,218.4,103.7,4088.0,12752.0,2.0,0,
170320,1859.3,50.5,218.5,221.6,4088.0,12752.0,2.0,0,
170520,1858.2,51.8,218.5,298.2,4088.0,12752.0,2.0,0,
170620,1858.8,51.8,218.5,278.7,4088.0,12752.0,2.0,0,
170720,1858.3,51.9,218.5,264.3,4088.0,12752.0,2.0,0,
170820,1860.0,51.2,218.5,279.2,4088.0,12752.0,2.0,0,
170920,1858.5,49.5,218.5,298.2,4088.0,12752.0,2.0,0,
171020,1907.0,249.1,212.5,238.4,4095.0,19405.0,3.0,1,
171120,1811.1,207.4,204.8,69.3,4095.0,15507.0,2.0,0,
171220,1911.4,216.8,204.6,87.8,4095.0,15143.0,2.0,0,
171320,1874.5,231.6,214.9,73.2,4095.0,13597.0,2.0,0,
171520,1928.6,183.3,215.6,84.0,4047.0,13586.0,2.0,0,
171620,1829.0,83.3,222.1,77.0,3742.0,11668.0,2.0,0,
171720,1860.0,53.4,222.1,47.5,3742.0,11668.0,2.0,0,
171820,1859.4,51.2,222.1,72.0,3742.0,11668.0,2.0,0,
171920,1856.6,48.8,222.1,81.9,3742.0,11668.0,2.0,0,
172020,1860.0,50.9,222.0,177.6,3742.0,11668.0,2.0,0,
172120,1860.2,49.9,222.0,283.4,3742.0,11668.0,2.0,0,
172220,1860.4,51.6,222.0,242.2,3742.0,11668.0,2.0,0,
172320,1859.3,49.3,222.0,241.0,3742.0,11668.0,2.0,0,
172520,1859.6,51.7,222.0,264.3,3742.0,11668.0,2.0,0,
172620,1860.7,167.0,225.2,298.3,4095.0,14955.0,2.0,0,
172720,1878.3,231.5,226.5,268.6,4095.0,16194.0,2.0,0,
172820,1890.3,334.8,215.5,202.8,4095.0,15683.0,2.0,0,
172920,1922.6,156.9,213.9,131.2,4095.0,14866.0,2.0,0,
173020,1879.0,178.9,222.4,75.1,4095.0,13559.0,2.0,0,
173120,1835.9,388.0,231.6,71.9,4095.0,13693.0,2.0,0,
173220,1901.0,87.4,224.0,56.2,4095.0,14387.0,2.0,0,
173320,1860.2,52.0,224.0,56.8,4095.0,14387.0,2.0,0,
173520,1858.4,53.3,224.1,139.5,4095.0,14387.0,2.0,0,
173620,1859.3,49.9,224.1,237.0,4095.0,14387.0,2.0,0,
173720,1858.1,51.4,224.1,274.0,4095.0,14387.0,2.0,0,
173820,1859.5,51.2,224.2,275.8,4095.0,14387.0,2.0,0,
173920,1859.8,49.5,224.2,243.2,4095.0,14387.0,2.0,0,
174020,1858.7,49.4,224.2,240.8,4095.0,14387.0,2.0,0,
174120,1857.3,50.5,224.1,241.4,4095.0,14387.0,2.0,0,
174220,1856.5,278.9,222.5,241.1,3992.0,17928.0,3.0,1,
174320,1887.9,141.3,229.8,66.0,4095.0,14996.0,2.0,0,
174520,1815.5,359.7,252.2,47.5,4095.0,13823.0,2.0,0,
174620,1875.8,199.1,245.2,41.2,4095.0,15017.0,2.0,0,
174720,1880.6,183.3,236.5,42.9,4095.0,13779.0,2.0,0,
174820,1872.5,183.2,244.4,56.7,4052.0,12291.0,2.0,0,
174920,1865.4,56.7,244.3,45.0,4052.0,12291.0,2.0,0,
175020,1856.5,50.0,244.3,43.4,4052.0,12291.0,2.0,0,
175120,1858.2,52.9,244.3,41.7,4052.0,12291.0,2.0,0,
175220,1859.5,48.4,244.3,46.6,4052.0,12291.0,2.0,0,
175320,1857.7,52.5,244.3,297.2,4052.0,12291.0,2.0,0,
175520,1858.0,52.8,244.4,295.5,4052.0,12291.0,2.0,0,
175620,1859.7,52.0,244.4,280.1,4052.0,12291.0,2.0,0,
175720,1858.5,50.0,244.4,282.2,4052.0,12291.0,2.0,0,
175820,1869.1,89.5,244.4,268.3,4052.0,12291.0,2.0,0,
175920,1938.4,299.1,234.0,177.3,4095.0,20429.0,3.0,1,
176020,1799.2,179.9,222.3,74.1,4095.0,14637.0,2.0,0,
176120,1894.4,204.6,216.7,67.6,4095.0,14738.0,2.0,0,
176220,1869.9,281.9,225.8,48.7,4095.0,13736.0,2.0,0,
176320,1873.1,416.7,219.1,41.9,4095.0,13929.0,2.0,0,
176520,1800.5,61.6,220.8,40.9,4095.0,14703.0,2.0,0,
176620,1859.6,54.4,220.8,40.1,4095.0,14703.0,2.0,0,
176720,1858.0,50.0,220.8,71.0,4095.0,14703.0,2.0,0,
176820,1857.4,47.6,220.9,140.6,4095.0,14703.0,2.0,0,
176920,1858.4,47.5,220.8,241.2,4095.0,14703.0,2.0,0,
177020,1859.8,51.2,220.8,250.7,4095.0,14703.0,2.0,0,
177120,1857.8,50.6,220.8,244.8,4095.0,14703.0,2.0,0,
177220,1861.6,51.8,220.8,241.3,4095.0,14703.0,2.0,0,
177320,1860.0,48.0,220.7,240.9,4095.0,14703.0,2.0,0,
177520,1858.9,162.8,226.9,239.4,4035.0,14108.0,2.0,0,
177620,1870.9,277.4,227.9,117.6,4095.0,15489.0,2.0,0,
177720,1890.4,325.9,216.8,145.2,4095.0,15399.0,2.0,0,
177820,1872.1,145.4,209.7,103.1,4095.0,13657.0,2.0,0,
177920,1951.8,189.5,211.4,71.9,4095.0,14418.0,2.0,0,
178020,1800.0,312.4,198.6,92.3,4095.0,13539.0,2.0,0,
178120,1893.1,73.0,201.5,109.8,4095.0,13365.0,2.0,0,
178220,1858.7,51.4,201.4,82.2,4095.0,13365.0,2.0,0,
178320,1858.1,48.6,201.4,79.9,4095.0,13365.0,2.0,0,
178520,1859.1,48.7,201.4,233.7,4095.0,13365.0,2.0,0,
178620,1858.7,46.0,201.3,240.4,4095.0,13365.0,2.0,0,
178720,1859.5,49.8,201.3,241.0,4095.0,13365.0,2.0,0,
178820,1858.5,48.8,201.3,246.0,4095.0,13365.0,2.0,0,
178920,1859.9,48.1,201.3,246.7,4095.0,13365.0,2.0,0,
179020,1858.7,48.1,201.3,241.2,4095.0,13365.0,2.0,0,
179120,1858.0,282.4,199.0,239.9,4079.0,19164.0,3.0,1,
179220,1879.5,162.8,206.7,44.9,4039.0,14219.0,2.0,0,
179320,1891.2,288.8,214.2,41.4,4095.0,15067.0,2.0,0,
179520,1840.1,165.8,223.3,48.8,4095.0,14142.0,2.0,0,
179620,1890.8,202.5,227.4,41.5,4095.0,14531.0,2.0,0,
179720,1877.4,116.5,232.4,42.0,4095.0,13123.0,2.0,0,
179820,1857.9,54.6,232.5,72.3,4095.0,13123.0,2.0,0,
179920,1857.8,49.3,232.6,77.6,4095.0,13123.0,2.0,0,
180020,1855.0,51.6,232.5,81.8,4095.0,13123.0,2.0,0,
180120,1859.7,49.6,232.6,102.4,4095.0,13123.0,2.0,0,
180220,1859.9,52.1,232.6,279.9,4095.0,13123.0,2.0,0,
180320,1861.6,49.8,232.6,270.8,4095.0,13123.0,2.0,0,
180520,1860.8,49.3,232.7,254.3,4095.0,13123.0,2.0,0,
180620,1858.2,47.1,232.6,260.3,4095.0,13123.0,2.0,0,
180720,1858.4,227.0,235.0,239.3,3662.0,13884.0,2.0,0,
180820,1926.2,375.7,231.1,144.0,4095.0,17009.0,2.0,0,
180920,1845.3,161.4,231.4,150.9,4095.0,14476.0,2.0,0,
181020,1858.8,208.0,223.3,87.5,4095.0,13519.0,2.0,0,
181120,1876.9,230.4,224.0,46.6,4095.0,13337.0,2.0,0,
181220,1884.6,354.1,215.4,78.4,4095.0,13663.0,2.0,0,
181320,1890.7,125.8,212.4,91.5,4095.0,13535.0,2.0,0,
181520,1855.9,49.0,212.4,83.6,4095.0,13535.0,2.0,0,
181620,1857.3,51.4,212.3,94.2,4095.0,13535.0,2.0,0,
181720,1859.2,50.1,212.4,227.6,4095.0,13535.0,2.0,0,
181820,1859.2,47.7,212.3,241.1,4095.0,13535.0,2.0,0,
181920,1858.4,48.8,212.4,240.9,4095.0,13535.0,2.0,0,
182020,1859.8,48.3,212.3,240.9,4095.0,13535.0,2.0,0,
182120,1858.8,50.1,212.3,241.2,4095.0,13535.0,2.0,0,
182220,1859.4,50.0,212.3,276.3,4095.0,13535.0,2.0,0,
182320,1916.2,85.4,210.2,266.9,4095.0,13535.0,2.0,0,
182520,1856.4,361.0,215.8,72.1,4095.0,15158.0,2.0,0,
182620,1890.8,271.8,207.6,76.7,4095.0,15990.0,2.0,0,
182720,1895.8,161.6,208.3,44.8,4095.0,13904.0,2.0,0,
182820,1950.9,275.9,216.3,45.9,4095.0,14886.0,2.0,0,
182920,1788.6,293.3,213.0,82.7,4095.0,13118.0,2.0,0,
183020,1875.8,60.3,215.8,50.8,4095.0,13118.0,2.0,0,
183120,1860.5,51.1,215.8,48.1,4095.0,13118.0,2.0,0,
183220,1860.2,52.2,215.8,72.6,4095.0,13118.0,2.0,0,
183320,1857.8,49.3,215.8,87.4,4095.0,13118.0,2.0,0,
183520,1857.2,49.4,215.8,241.0,4095.0,13118.0,2.0,0,
183620,1860.9,47.7,215.8,240.5,4095.0,13118.0,2.0,0,
183720,1859.3,48.6,215.8,240.5,4095.0,13118.0,2.0,0,
183820,1859.6,50.0,215.8,250.0,4095.0,13118.0,2.0,0,
183920,1859.4,47.0,215.8,248.9,4095.0,13118.0,2.0,0,
184020,1865.2,261.9,211.5,239.1,4095.0,19191.0,3.0,1,
184120,1880.1,193.6,210.5,67.3,4095.0,14339.0,2.0,0,
184220,1861.9,239.5,214.5,40.4,4095.0,14840.0,2.0,0,
184320,1950.3,252.1,210.3,40.6,4095.0,16243.0,2.0,0,
184520,1892.1,207.2,216.2,108.4,4095.0,14590.0,2.0,0,
184620,1879.7,59.2,208.1,81.1,4095.0,15665.0,2.0,0,
184720,1861.5,51.9,208.1,83.1,4095.0,15665.0,2.0,0,
184820,1858.9,47.9,208.0,134.1,4095.0,15665.0,2.0,0,
184920,1853.1,46.2,208.1,207.6,4095.0,15665.0,2.0,0,
185020,1856.8,49.3,208.1,241.3,4095.0,15665.0,2.0,0,
185120,1858.7,47.3,208.1,242.1,4095.0,15665.0,2.0,0,
185220,1860.2,48.8,208.1,241.1,4095.0,15665.0,2.0,0,
185320,1859.3,48.3,208.1,242.4,4095.0,15665.0,2.0,0,
185520,1858.3,48.3,208.1,270.2,4095.0,15665.0,2.0,0,
185620,1862.4,197.9,213.0,239.5,3689.0,13659.0,2.0,0,
185720,1867.8,352.1,200.3,94.0,3981.0,15252.0,2.0,0,
185820,1925.8,164.6,199.7,80.5,4095.0,16158.0,2.0,0,
185920,1830.5,166.3,204.3,47.6,4095.0,13396.0,2.0,0,
186020,1875.3,330.5,222.3,41.1,4095.0,14573.0,2.0,0,
186120,1883.0,393.4,212.0,70.0,4095.0,15673.0,2.0,0,
186220,1885.0,84.6,219.2,39.8,4094.0,13393.0,2.0,0,
186320,1861.0,50.9,219.2,40.0,4094.0,13393.0,2.0,0,
186520,1854.3,45.3,219.3,135.3,4094.0,13393.0,2.0,0,
186620,1860.2,47.5,219.2,239.7,4094.0,13393.0,2.0,0,
186720,1857.0,47.2,219.2,243.1,4094.0,13393.0,2.0,0,
186820,1858.5,49.1,219.3,241.1,4094.0,13393.0,2.0,0,
186920,1860.8,49.0,219.3,241.1,4094.0,13393.0,2.0,0,
187020,1858.7,47.1,219.3,241.2,4094.0,13393.0,2.0,0,
187120,1858.5,48.8,219.2,270.6,4094.0,13393.0,2.0,0,
187220,1879.0,126.9,218.0,242.9,3962.0,17164.0,3.0,1,
187320,1879.5,169.9,227.0,71.2,4077.0,15435.0,2.0,0,
187520,1892.5,247.2,226.4,40.0,4095.0,16423.0,2.0,0,
187620,1889.0,191.3,213.2,43.8,4095.0,14777.0,2.0,0,
187720,1917.0,270.2,219.9,76.7,4095.0,14428.0,2.0,0,
187820,1838.2,166.9,224.2,47.8,4095.0,14034.0,2.0,0,
187920,1863.1,55.8,224.1,56.9,4095.0,14034.0,2.0,0,
188020,1857.6,49.3,224.1,74.7,4095.0,14034.0,2.0,0,
188120,1856.3,48.6,224.1,72.5,4095.0,14034.0,2.0,0,
188220,1857.2,46.4,224.1,74.0,4095.0,14034.0,2.0,0,
188320,1860.7,47.9,224.1,241.3,4095.0,14034.0,2.0,0,
188520,1860.4,45.6,224.0,241.9,4095.0,14034.0,2.0,0,
188620,1858.3,48.6,224.0,241.2,4095.0,14034.0,2.0,0,
188720,1863.2,48.1,223.9,279.4,4095.0,14034.0,2.0,0,
188820,1868.2,200.0,225.8,278.4,4095.0,14034.0,2.0,0,
188920,1858.3,224.5,216.7,177.5,4095.0,15203.0,2.0,0,
189020,1890.0,209.8,213.7,141.1,4083.0,15605.0,2.0,0,
189120,1868.6,189.4,217.9,74.8,4095.0,14766.0,2.0,0,
189220,1933.3,270.3,217.2,42.4,4095.0,15678.0,2.0,0,
189320,1821.8,370.0,219.7,71.1,4095.0,15163.0,2.0,0,
189520,1879.6,55.7,212.5,73.0,4095.0,15163.0,2.0,0,
189620,1856.0,49.2,212.4,75.7,4095.0,15163.0,2.0,0,
189720,1859.4,49.3,212.5,113.8,4095.0,15163.0,2.0,0,
189820,1859.4,49.2,212.4,237.0,4095.0,15163.0,2.0,0,
189920,1859.3,47.2,212.4,240.7,4095.0,15163.0,2.0,0,
190020,1858.8,48.8,212.4,240.7,4095.0,15163.0,2.0,0,
190120,1860.0,50.0,212.5,240.9,4095.0,15163.0,2.0,0,
190220,1859.5,48.1,212.5,241.9,4095.0,15163.0,2.0,0,
190320,1859.6,49.4,212.6,241.7,4095.0,15163.0,2.0,0,
190520,1865.8,155.3,208.0,237.5,4095.0,15213.0,2.0,0,
190620,1863.8,365.0,212.4,104.9,3999.0,13492.0,2.0,0,
190720,1961.1,158.1,208.9,87.2,4095.0,15684.0,2.0,0,
190820,1796.0,175.2,213.5,71.7,4095.0,14264.0,2.0,0,
190920,1875.3,308.1,220.0,70.6,4095.0,14405.0,2.0,0,
191020,1889.5,263.6,203.7,47.9,4095.0,15719.0,2.0,0,
191120,1875.8,58.7,205.2,46.5,4095.0,13315.0,2.0,0,
191220,1858.8,50.7,205.2,72.3,4095.0,13315.0,2.0,0,
191320,1860.2,51.7,205.2,102.5,4095.0,13315.0,2.0,0,
191520,1856.8,51.7,205.1,240.0,4095.0,13315.0,2.0,0,
191620,1859.3,46.4,205.2,241.1,4095.0,13315.0,2.0,0,
191720,1859.1,49.7,205.1,279.8,4095.0,13315.0,2.0,0,
191820,1861.3,47.8,205.1,282.3,4095.0,13315.0,2.0,0,
191920,1858.7,49.1,205.1,248.8,4095.0,13315.0,2.0,0,
192020,1859.7,46.5,205.1,240.7,4095.0,13315.0,2.0,0,
192120,1864.7,125.2,204.3,237.5,3957.0,16768.0,3.0,1,
192220,1947.2,207.3,209.5,71.6,4095.0,15480.0,2.0,0,
192320,1791.6,328.8,217.0,47.3,4095.0,14431.0,2.0,0,
192520,1885.6,203.1,209.0,48.6,4095.0,14646.0,2.0,0,
192620,1879.7,240.0,215.2,70.1,4061.0,14043.0,2.0,0,
192720,1880.5,63.7,212.8,39.9,4095.0,15132.0,2.0,0,
192820,1857.5,50.9,212.8,75.0,4095.0,15132.0,2.0,0,
192920,1861.3,52.1,212.9,166.0,4095.0,15132.0,2.0,0,
193020,1859.7,50.2,212.9,227.5,4095.0,15132.0,2.0,0,
193120,1860.3,49.7,212.9,240.6,4095.0,15132.0,2.0,0,
193220,1860.9,51.8,212.8,240.7,4095.0,15132.0,2.0,0,
193320,1858.9,51.9,212.9,240.8,4095.0,15132.0,2.0,0,
193520,1860.6,51.6,212.9,240.8,4095.0,15132.0,2.0,0,
193620,1859.2,50.1,212.9,240.9,4095.0,15132.0,2.0,0,
193720,1888.0,219.0,215.5,240.5,3988.0,18827.0,3.0,1,
193820,1828.7,235.3,206.2,78.7,3920.0,14824.0,2.0,0,
193920,1893.6,155.0,197.9,52.4,4095.0,16222.0,2.0,0,
194020,1877.1,217.3,201.7,48.6,4095.0,14644.0,2.0,0,
194120,1899.8,318.9,196.5,50.9,4095.0,14855.0,2.0,0,
194220,1896.7,199.4,196.5,71.3,4087.0,14368.0,2.0,0,
194320,1859.7,120.9,207.3,65.7,4000.0,12726.0,2.0,0,
194520,1860.9,49.1,207.3,69.7,4000.0,12726.0,2.0,0,
194620,1857.3,50.6,207.3,79.5,4000.0,12726.0,2.0,0,
194720,1856.7,47.5,207.3,155.6,4000.0,12726.0,2.0,0,
194820,1860.0,50.0,207.4,280.9,4000.0,12726.0,2.0,0,
194920,1860.3,52.4,207.4,297.0,4000.0,12726.0,2.0,0,
195020,1859.3,47.7,207.4,260.6,4000.0,12726.0,2.0,0,
195120,1860.1,49.3,207.4,240.8,4000.0,12726.0,2.0,0,
195220,1857.5,50.7,207.4,240.9,4000.0,12726.0,2.0,0,
195320,1850.0,116.5,208.2,242.7,3912.0,13073.0,2.0,0,
195520,1865.7,350.3,202.4,124.9,4095.0,15679.0,2.0,0,
195620,1925.5,157.7,204.1,68.0,4095.0,14300.0,2.0,0,
195720,1841.7,176.1,216.6,45.9,4095.0,14661.0,2.0,0,
195820,1859.6,334.8,225.8,49.3,4092.0,13270.0,2.0,0,
195920,1889.9,128.9,215.6,41.9,4054.0,15065.0,2.0,0,
196020,1872.7,55.0,215.4,54.5,4054.0,15065.0,2.0,0,
196120,1859.7,49.8,215.5,88.5,4054.0,15065.0,2.0,0,
196220,1861.5,49.5,215.5,131.0,4054.0,15065.0,2.0,0,
196320,1860.9,49.0,215.4,167.2,4054.0,15065.0,2.0,0,
196520,1859.9,48.3,215.3,242.4,4054.0,15065.0,2.0,0,
196620,1856.9,51.8,215.4,241.7,4054.0,15065.0,2.0,0,
196720,1860.4,51.7,215.4,241.0,4054.0,15065.0,2.0,0,
196820,1860.4,49.5,215.3,240.3,4054.0,15065.0,2.0,0,
196920,1859.3,197.8,215.4,240.4,4054.0,15065.0,2.0,0,
197020,1881.5,186.6,217.2,152.3,4095.0,13956.0,2.0,0,
197120,1940.1,241.4,230.5,84.9,4095.0,15097.0,2.0,0,
197220,1778.4,336.2,239.6,47.1,4095.0,15083.0,2.0,0,
197320,1875.4,288.0,228.9,40.0,4095.0,15431.0,2.0,0,
197520,1883.3,249.7,236.6,40.6,4095.0,14373.0,2.0,0,
197620,1869.7,61.3,236.9,40.5,4068.0,13552.0,2.0,0,
197720,1859.2,50.9,236.9,69.6,4068.0,13552.0,2.0,0,
197820,1858.0,48.6,236.9,124.6,4068.0,13552.0,2.0,0,
197920,1857.5,51.8,237.0,235.6,4068.0,13552.0,2.0,0,
198020,1859.6,48.9,237.0,278.9,4068.0,13552.0,2.0,0,
198120,1861.7,49.6,237.0,278.3,4068.0,13552.0,2.0,0,
198220,1859.6,47.4,237.0,278.8,4068.0,13552.0,2.0,0,
198320,1860.5,49.0,236.9,279.3,4068.0,13552.0,2.0,0,
198520,1858.9,48.3,236.9,240.4,4068.0,13552.0,2.0,0,
198620,1926.2,276.8,231.5,227.8,4095.0,18723.0,3.0,1,
198720,1794.0,208.4,221.2,72.9,4095.0,15390.0,2.0,0,
198820,1891.4,169.0,211.0,49.3,4095.0,15389.0,2.0,0,
198920,1871.5,243.9,222.9,46.1,4095.0,15066.0,2.0,0,
199020,1864.4,366.6,211.9,41.5,4095.0,14964.0,2.0,0,
199120,1963.9,154.7,207.2,39.6,4095.0,15370.0,2.0,0,
199220,1806.0,84.9,212.9,40.0,4095.0,13843.0,2.0,0,
199320,1858.9,49.1,212.9,70.4,4095.0,13843.0,2.0,0,
199520,1861.7,48.2,212.9,78.9,4095.0,13843.0,2.0,0,
199620,1859.3,47.7,212.8,202.1,4095.0,13843.0,2.0,0,
199720,1861.8,50.8,212.8,241.1,4095.0,13843.0,2.0,0,
199820,1859.4,47.6,212.8,240.9,4095.0,13843.0,2.0,0,
199920,1862.4,52.2,212.9,240.4,4095.0,13843.0,2.0,0,
200020,1857.8,47.6,212.9,240.4,4095.0,13843.0,2.0,0,
200120,1860.5,49.1,212.9,240.5,4095.0,13843.0,2.0,0,
200220,1858.0,134.8,216.4,248.0,4014.0,13626.0,2.0,0,
200320,1888.7,265.3,215.0,239.0,4095.0,15876.0,2.0,0,
200520,1878.8,166.2,209.8,81.0,4095.0,14339.0,2.0,0,
200620,1923.3,180.9,215.1,71.6,4095.0,14553.0,2.0,0,
200720,1817.2,340.5,224.3,71.7,4082.0,14254.0,2.0,0,
200820,1899.5,80.1,218.9,40.9,4095.0,15050.0,2.0,0,
200920,1858.6,51.9,218.9,55.3,4095.0,15050.0,2.0,0,
201020,1862.1,47.7,218.9,94.1,4095.0,15050.0,2.0,0,
201120,1856.9,50.2,218.9,177.3,4095.0,15050.0,2.0,0,
201220,1859.4,48.6,219.0,240.0,4095.0,15050.0,2.0,0,
201320,1858.9,49.7,219.0,243.0,4095.0,15050.0,2.0,0,
201520,1857.3,47.7,219.0,278.4,4095.0,15050.0,2.0,0,
201620,1859.3,48.5,219.0,264.3,4095.0,15050.0,2.0,0,
201720,1862.3,50.3,218.9,241.8,4095.0,15050.0,2.0,0,
201820,1860.3,228.6,217.2,240.4,3934.0,18136.0,3.0,1,
201920,1886.2,186.9,220.3,74.8,4095.0,14913.0,2.0,0,
202020,1899.5,204.2,219.8,51.9,4095.0,14795.0,2.0,0,
202120,1850.2,253.8,217.0,52.5,4095.0,14361.0,2.0,0,
202220,1853.9,375.8,217.6,41.2,4095.0,13546.0,2.0,0,
202320,1888.2,201.8,212.4,40.7,4095.0,15101.0,2.0,0,
202520,1867.1,55.7,215.7,38.7,4095.0,15101.0,2.0,0,
202620,1860.3,49.4,215.7,50.0,4095.0,15101.0,2.0,0,
202720,1857.8,49.4,215.7,87.0,4095.0,15101.0,2.0,0,
202820,1857.3,48.9,215.7,117.1,4095.0,15101.0,2.0,0,
202920,1858.2,49.1,215.7,240.5,4095.0,15101.0,2.0,0,
203020,1861.3,51.4,215.8,242.7,4095.0,15101.0,2.0,0,
203120,1861.8,49.5,215.8,265.8,4095.0,15101.0,2.0,0,
203220,1858.8,48.7,215.8,245.8,4095.0,15101.0,2.0,0,
203320,1858.2,48.2,215.9,241.0,4095.0,15101.0,2.0,0,
203520,1932.9,264.4,213.1,40.1,4095.0,19933.0,3.0,1,
203620,1801.0,361.1,222.7,29.2,4095.0,15037.0,2.0,0,
203720,1878.7,164.7,221.0,38.8,4095.0,13495.0,2.0,0,
203820,1874.5,211.8,229.9,42.8,4095.0,14532.0,2.0,0,
203920,1872.2,308.7,217.1,72.0,3907.0,12286.0,2.0,0,
204020,1947.2,151.7,215.1,44.8,4095.0,14187.0,2.0,0,
204120,1805.8,53.3,213.7,46.6,4095.0,15474.0,2.0,0,
204220,1861.2,47.9,213.7,104.7,4095.0,15474.0,2.0,0,
204320,1860.8,48.9,213.6,168.3,4095.0,15474.0,2.0,0,
204520,1859.4,49.3,213.6,240.3,4095.0,15474.0,2.0,0,
204620,1858.3,49.1,213.6,240.5,4095.0,15474.0,2.0,0,
204720,1857.8,49.6,213.6,241.0,4095.0,15474.0,2.0,0,
204820,1861.0,49.4,213.6,281.5,4095.0,15474.0,2.0,0,
204920,1860.3,50.9,213.6,277.3,4095.0,15474.0,2.0,0,
205020,1857.9,47.0,213.6,245.8,4095.0,15474.0,2.0,0,
205120,1862.7,164.0,217.8,174.8,4095.0,13938.0,2.0,0,
205220,1873.3,265.0,221.0,83.2,4095.0,15286.0,2.0,0,
205320,1881.3,299.3,213.3,73.1,4095.0,14835.0,2.0,0,
205520,1969.6,180.4,209.9,70.7,4095.0,14226.0,2.0,0,
205620,1799.3,290.4,211.5,75.2,4049.0,13656.0,2.0,0,
205720,1892.1,65.1,212.5,65.8,3950.0,13219.0,2.0,0,
205820,1859.1,49.6,212.5,74.3,3950.0,13219.0,2.0,0,
205920,1857.6,50.2,212.5,152.1,3950.0,13219.0,2.0,0,
206020,1856.1,49.9,212.6,245.6,3950.0,13219.0,2.0,0,
206120,1860.7,47.7,212.6,278.1,3950.0,13219.0,2.0,0,
206220,1860.4,48.3,212.6,241.4,3950.0,13219.0,2.0,0,
206320,1860.0,48.9,212.6,240.9,3950.0,13219.0,2.0,0,
206520,1858.8,49.6,212.5,241.5,3950.0,13219.0,2.0,0,
206620,1859.2,49.7,212.5,241.0,3950.0,13219.0,2.0,0,
206720,1851.7,216.6,204.6,240.2,4095.0,19101.0,3.0,1,
206820,1880.0,229.7,202.6,77.9,4095.0,14484.0,2.0,0,
206920,1863.3,164.4,206.4,43.6,4082.0,13966.0,2.0,0,
207020,1928.7,275.0,207.9,41.3,4095.0,14304.0,2.0,0,
207120,1804.5,214.1,201.4,48.4,4095.0,14779.0,2.0,0,
207220,1896.8,161.8,195.7,41.0,4095.0,14418.0,2.0,0,
207320,1877.7,104.5,201.9,39.5,4095.0,13973.0,2.0,0,
207520,1859.4,46.2,201.8,103.5,4095.0,13973.0,2.0,0,
207620,1859.4,47.7,201.6,82.3,4095.0,13973.0,2.0,0,
207720,1858.6,50.1,201.6,132.1,4095.0,13973.0,2.0,0,
207820,1859.3,46.6,201.6,298.6,4095.0,13973.0,2.0,0,
207920,1858.1,46.7,201.6,290.4,4095.0,13973.0,2.0,0,
208020,1861.5,47.8,201.5,242.3,4095.0,13973.0,2.0,0,
208120,1859.9,48.2,201.5,243.0,4095.0,13973.0,2.0,0,
208220,1859.3,49.1,201.5,264.7,4095.0,13973.0,2.0,0,
208320,1867.1,140.4,204.3,267.8,3928.0,13835.0,2.0,0,
208520,1882.5,171.7,199.0,124.8,4095.0,15297.0,2.0,0,
208620,1836.6,148.3,191.2,74.8,4095.0,14303.0,2.0,0,
208720,1880.0,258.0,203.2,73.2,4095.0,14858.0,2.0,0,
208820,1880.8,354.5,208.8,73.2,4095.0,14171.0,2.0,0,
208920,1886.0,96.1,203.3,41.8,4095.0,14186.0,2.0,0,
209020,1863.3,47.8,203.2,55.8,4095.0,14186.0,2.0,0,
209120,1860.0,48.8,203.2,108.6,4095.0,14186.0,2.0,0,
209220,1860.3,48.5,203.2,188.6,4095.0,14186.0,2.0,0,
209320,1860.2,44.9,203.2,240.9,4095.0,14186.0,2.0,0,
209520,1856.9,50.4,203.2,299.8,4095.0,14186.0,2.0,0,
209620,1859.7,45.7,203.2,299.8,4095.0,14186.0,2.0,0,
209720,1859.8,45.3,203.1,299.2,4095.0,14186.0,2.0,0,
209820,1861.1,47.5,203.1,298.3,4095.0,14186.0,2.0,0,
209920,1897.6,96.5,201.7,298.3,4095.0,14186.0,2.0,0,
210020,1826.7,181.0,215.4,53.3,4095.0,14688.0,2.0,0,
210120,1851.2,265.6,219.5,37.9,4095.0,14587.0,2.0,0,
210220,1880.9,353.6,228.7,37.6,4095.0,14518.0,2.0,0,
210320,1890.8,192.4,218.6,39.9,4095.0,14976.0,2.0,0,
210520,1821.0,258.9,224.1,39.6,4095.0,14449.0,2.0,0,
210620,1865.5,55.5,224.7,66.6,4095.0,13954.0,2.0,0,
210720,1860.8,48.0,224.7,71.4,4095.0,13954.0,2.0,0,
210820,1859.0,45.2,224.7,47.8,4095.0,13954.0,2.0,0,
210920,1858.7,48.4,224.7,68.7,4095.0,13954.0,2.0,0,
211020,1859.2,47.8,224.8,280.2,4095.0,13954.0,2.0,0,
211120,1858.2,50.3,224.8,241.1,4095.0,13954.0,2.0,0,
211220,1859.6,48.9,224.8,240.9,4095.0,13954.0,2.0,0,
211320,1857.0,51.5,224.9,242.2,4095.0,13954.0,2.0,0,
211520,1858.5,72.3,225.0,241.0,4095.0,13954.0,2.0,0,
211620,1851.3,193.1,210.1,110.9,4095.0,18840.0,3.0,1,
211720,1890.2,355.5,206.7,38.5,4095.0,16781.0,2.0,0,
211820,1874.8,168.3,219.4,44.6,4095.0,15018.0,2.0,0,
211920,1940.0,328.2,214.7,70.4,4095.0,14103.0,2.0,0,
212020,1799.4,232.2,214.5,55.0,4095.0,16002.0,2.0,0,
212120,1876.7,181.4,206.6,39.2,4095.0,14633.0,2.0,0,
212220,1882.3,60.1,207.3,38.5,4095.0,15478.0,2.0,0,
212320,1861.9,48.6,207.3,72.8,4095.0,15478.0,2.0,0,
212520,1856.5,49.8,207.4,153.8,4095.0,15478.0,2.0,0,
212620,1858.8,51.8,207.5,240.7,4095.0,15478.0,2.0,0,
212720,1860.3,49.7,207.5,269.7,4095.0,15478.0,2.0,0,
212820,1857.4,50.5,207.5,261.5,4095.0,15478.0,2.0,0,
212920,1857.5,53.8,207.4,260.5,4095.0,15478.0,2.0,0,
213020,1859.1,50.7,207.5,268.2,4095.0,15478.0,2.0,0,
213120,1859.9,49.0,207.5,279.1,4095.0,15478.0,2.0,0,
213220,1874.5,188.5,214.5,152.9,4095.0,14945.0,2.0,0,
213320,1858.0,279.1,217.3,36.2,4033.0,13280.0,2.0,0,
213520,1796.9,215.8,198.4,40.2,4095.0,15608.0,2.0,0,
213620,1880.5,259.2,214.8,72.8,4095.0,14001.0,2.0,0,
213720,1870.4,292.4,216.8,70.4,4095.0,13951.0,2.0,0,
213820,1891.4,76.8,216.2,45.5,4095.0,14347.0,2.0,0,
213920,1859.0,50.5,216.3,75.6,4095.0,14347.0,2.0,0,
214020,1860.2,53.9,216.3,123.8,4095.0,14347.0,2.0,0,
214120,1859.6,52.2,216.3,202.4,4095.0,14347.0,2.0,0,
214220,1858.6,48.4,216.3,273.0,4095.0,14347.0,2.0,0,
214320,1858.7,52.0,216.3,274.6,4095.0,14347.0,2.0,0,
214520,1859.8,49.2,216.3,240.6,4095.0,14347.0,2.0,0,
214620,1858.8,50.0,216.3,240.5,4095.0,14347.0,2.0,0,
214720,1859.2,48.9,216.2,241.1,4095.0,14347.0,2.0,0,
214820,1853.4,79.0,207.5,241.1,4044.0,17662.0,3.0,1,
214920,1921.9,163.1,211.6,79.5,4095.0,15615.0,2.0,0,
215020,1824.6,254.3,219.6,48.5,4095.0,14012.0,2.0,0,
215120,1880.4,377.5,229.5,46.5,4095.0,14357.0,2.0,0,
215220,1889.8,236.8,215.6,47.3,4095.0,14945.0,2.0,0,
215320,1891.8,193.5,220.5,40.2,4095.0,14151.0,2.0,0,
215520,1861.4,56.5,227.0,72.1,4095.0,14151.0,2.0,0,
215620,1858.8,54.5,227.0,81.9,4095.0,14151.0,2.0,0,
215720,1858.1,52.4,227.0,65.8,4095.0,14151.0,2.0,0,
215820,1858.1,54.1,227.1,55.0,4095.0,14151.0,2.0,0,
215920,1859.3,52.9,227.1,298.6,4095.0,14151.0,2.0,0,
216020,1859.9,49.4,227.1,297.9,4095.0,14151.0,2.0,0,
216120,1859.4,49.1,227.1,240.8,4095.0,14151.0,2.0,0,
216220,1859.1,51.1,227.1,240.8,4095.0,14151.0,2.0,0,
216320,1859.1,51.2,227.1,262.3,4095.0,14151.0,2.0,0,
216520,1841.0,220.6,222.8,226.0,4064.0,14991.0,2.0,0,
216620,1881.3,163.9,214.8,104.5,4095.0,14731.0,2.0,0,
216720,1875.1,157.9,220.9,66.2,4095.0,14949.0,2.0,0,
216820,1909.5,333.8,212.1,48.8,4095.0,13110.0,2.0,0,
216920,1844.6,342.3,215.9,41.5,4095.0,15382.0,2.0,0,
217020,1851.7,137.1,211.6,40.2,4095.0,13977.0,2.0,0,
217120,1883.5,58.1,211.4,41.1,4095.0,13977.0,2.0,0,
217220,1859.0,51.6,211.5,73.5,4095.0,13977.0,2.0,0,
217320,1860.4,52.6,211.4,125.5,4095.0,13977.0,2.0,0,
217520,1859.3,49.9,211.3,282.6,4095.0,13977.0,2.0,0,
217620,1861.5,51.7,211.3,242.4,4095.0,13977.0,2.0,0,
217720,1860.9,51.2,211.3,240.8,4095.0,13977.0,2.0,0,
217820,1857.9,50.7,211.3,241.0,4095.0,13977.0,2.0,0,
217920,1863.4,51.2,211.2,279.9,4095.0,13977.0,2.0,0,
218020,1860.2,44.7,211.2,242.2,4095.0,13977.0,2.0,0,
218120,1865.0,260.6,225.6,89.2,4095.0,16426.0,2.0,0,
218220,1867.7,281.2,225.7,37.6,4095.0,16068.0,2.0,0,
218320,1948.3,148.6,223.1,34.2,4095.0,14478.0,2.0,0,
218520,1867.4,251.4,229.7,47.0,4095.0,14060.0,2.0,0,
218620,1883.7,259.2,213.0,48.5,4095.0,16297.0,2.0,0,
218720,1879.4,66.7,217.1,57.1,4095.0,13887.0,2.0,0,
218820,1861.3,53.7,217.0,98.8,4095.0,13887.0,2.0,0,
218920,1862.1,54.0,217.0,122.8,4095.0,13887.0,2.0,0,
219020,1860.8,53.5,217.0,98.7,4095.0,13887.0,2.0,0,
219120,1860.9,51.7,217.1,240.3,4095.0,13887.0,2.0,0,
219220,1860.5,53.3,217.1,279.6,4095.0,13887.0,2.0,0,
219320,1861.8,53.5,217.1,281.2,4095.0,13887.0,2.0,0,
219520,1859.0,52.5,217.1,241.1,4095.0,13887.0,2.0,0,
219620,1860.6,54.2,217.2,240.9,4095.0,13887.0,2.0,0,
219720,1864.1,83.5,199.8,240.1,4095.0,17981.0,3.0,1,
219820,1972.6,218.2,200.1,57.4,4095.0,17126.0,2.0,0,
219920,1785.2,310.8,209.4,54.2,4095.0,15070.0,2.0,0,
220020,1893.8,271.8,203.8,69.5,4095.0,14917.0,2.0,0,
220120,1889.5,202.7,200.6,69.7,4095.0,14762.0,2.0,0,
220220,1874.4,176.6,215.4,40.7,4095.0,14238.0,2.0,0,
220320,1880.6,64.5,211.7,39.7,4095.0,14613.0,2.0,0,
220520,1861.7,52.7,211.7,136.5,4095.0,14613.0,2.0,0,
220620,1862.5,50.0,211.7,202.1,4095.0,14613.0,2.0,0,
220720,1858.6,51.1,211.6,240.6,4095.0,14613.0,2.0,0,
220820,1860.2,51.5,211.7,240.6,4095.0,14613.0,2.0,0,
220920,1860.2,52.1,211.6,247.1,4095.0,14613.0,2.0,0,
221020,1859.0,50.6,211.6,245.8,4095.0,14613.0,2.0,0,
221120,1861.5,50.7,211.6,268.9,4095.0,14613.0,2.0,0,
221220,1859.4,50.1,211.6,277.5,4095.0,14613.0,2.0,0,
221320,1902.1,309.1,217.3,239.1,4095.0,20313.0,3.0,1,
221520,1909.6,161.0,217.1,39.6,4095.0,14918.0,2.0,0,
221620,1878.5,222.8,229.8,40.7,4095.0,15128.0,2.0,0,
221720,1873.9,318.3,222.7,48.2,4095.0,14810.0,2.0,0,
221820,1935.1,173.5,217.7,41.8,4095.0,14560.0,2.0,0,
221920,1836.1,114.4,223.1,45.2,4095.0,13672.0,2.0,0,
222020,1862.4,59.5,223.1,72.5,4095.0,13672.0,2.0,0,
222120,1860.5,51.7,223.1,89.6,4095.0,13672.0,2.0,0,
222220,1861.5,53.5,223.1,100.1,4095.0,13672.0,2.0,0,
222320,1857.3,52.7,223.2,225.6,4095.0,13672.0,2.0,0,
222520,1861.1,54.4,223.2,272.5,4095.0,13672.0,2.0,0,
222620,1859.0,51.0,223.2,298.0,4095.0,13672.0,2.0,0,
222720,1859.4,52.4,223.3,297.9,4095.0,13672.0,2.0,0,
222820,1857.0,51.8,223.3,298.0,4095.0,13672.0,2.0,0,
222920,1846.9,141.5,226.9,274.8,4095.0,17239.0,3.0,1,
223020,1871.3,287.7,219.0,41.5,4095.0,16751.0,2.0,0,
223120,1889.0,412.6,213.3,39.5,4095.0,15836.0,2.0,0,
223220,1910.8,161.6,208.3,42.7,4095.0,14300.0,2.0,0,
223320,1886.5,203.3,210.3,48.2,4095.0,16032.0,2.0,0,
223520,1893.6,116.1,204.7,69.7,4095.0,15263.0,2.0,0,
223620,1875.6,57.8,204.6,71.2,4095.0,15263.0,2.0,0,
223720,1858.6,50.7,204.5,137.0,4095.0,15263.0,2.0,0,
223820,1859.8,52.5,204.5,194.4,4095.0,15263.0,2.0,0,
223920,1860.0,53.8,204.5,198.0,4095.0,15263.0,2.0,0,
224020,1859.9,53.3,204.6,240.7,4095.0,15263.0,2.0,0,
224120,1856.5,49.7,204.6,240.4,4095.0,15263.0,2.0,0,
224220,1860.2,51.7,204.6,240.8,4095.0,15263.0,2.0,0,
224320,1858.1,53.2,204.6,273.3,4095.0,15263.0,2.0,0,
224520,1858.8,192.6,204.6,241.2,4095.0,15263.0,2.0,0,
224620,1878.4,203.4,210.0,102.6,4095.0,13764.0,2.0,0,
224720,1925.6,228.6,213.3,51.3,4095.0,14684.0,2.0,0,
224820,1812.2,260.7,204.6,41.7,4095.0,16476.0,2.0,0,
224920,1878.5,418.2,215.4,40.5,4095.0,14183.0,2.0,0,
225020,1903.6,182.2,222.1,50.5,4095.0,14827.0,2.0,0,
225120,1877.8,216.9,225.2,43.4,4095.0,14870.0,2.0,0,
225220,1879.1,61.6,227.2,44.4,4095.0,13497.0,2.0,0,
225320,1860.7,55.3,227.2,100.0,4095.0,13497.0,2.0,0,
225520,1860.4,54.0,227.1,240.4,4095.0,13497.0,2.0,0,
225620,1859.3,52.5,227.2,275.1,4095.0,13497.0,2.0,0,
225720,1860.6,53.5,227.1,252.1,4095.0,13497.0,2.0,0,
225820,1857.5,54.7,227.2,241.0,4095.0,13497.0,2.0,0,
225920,1857.9,54.0,227.3,241.8,4095.0,13497.0,2.0,0,
226020,1859.6,70.7,227.4,260.6,4095.0,13497.0,2.0,0,
226120,1857.7,63.2,227.9,278.7,4095.0,13497.0,2.0,0,
226220,1926.8,277.8,222.0,238.8,4095.0,19323.0,3.0,1,
226320,1798.4,367.1,227.1,74.9,4095.0,14181.0,2.0,0,
226520,1876.8,212.7,236.1,43.0,4095.0,15451.0,2.0,0,
226620,1875.2,345.9,214.6,41.7,4095.0,15091.0,2.0,0,
226720,1963.1,154.1,214.7,70.2,4095.0,14459.0,2.0,0,
226820,1796.1,92.6,224.6,71.4,4095.0,13948.0,2.0,0,
226920,1857.7,54.8,224.7,74.5,4095.0,13948.0,2.0,0,
227020,1859.9,53.0,224.7,74.9,4095.0,13948.0,2.0,0,
227120,1861.3,52.2,224.7,67.4,4095.0,13948.0,2.0,0,
227220,1859.9,52.1,224.6,154.7,4095.0,13948.0,2.0,0,
227320,1857.5,51.5,224.7,242.1,4095.0,13948.0,2.0,0,
227520,1857.6,49.9,224.5,298.3,4095.0,13948.0,2.0,0,
227620,1857.5,51.8,224.5,298.4,4095.0,13948.0,2.0,0,
227720,1860.5,50.3,223.9,298.0,4095.0,13948.0,2.0,0,
227820,1851.7,167.4,227.9,298.0,4095.0,15557.0,2.0,0,
227920,1883.8,289.0,227.7,285.5,4095.0,15475.0,2.0,0,
228020,1887.4,262.1,207.9,164.8,4095.0,16343.0,2.0,0,
228120,1883.4,163.9,209.9,66.0,4095.0,14569.0,2.0,0,
228220,1960.1,220.9,214.8,69.9,4095.0,14686.0,2.0,0,
228320,1798.0,321.5,217.7,71.4,4095.0,14662.0,2.0,0,
228520,1859.6,56.1,205.8,82.1,4095.0,14662.0,2.0,0,
228620,1859.7,53.0,205.8,151.9,4095.0,14662.0,2.0,0,
228720,1860.0,53.9,205.8,220.1,4095.0,14662.0,2.0,0,
228820,1859.8,55.6,205.8,241.2,4095.0,14662.0,2.0,0,
228920,1854.9,52.1,205.9,296.9,4095.0,14662.0,2.0,0,
229020,1857.8,50.1,205.9,242.9,4095.0,14662.0,2.0,0,
229120,1860.1,50.4,205.8,242.8,4095.0,14662.0,2.0,0,
229220,1859.5,46.8,205.7,298.1,4095.0,14662.0,2.0,0,
229320,1857.8,48.1,205.7,298.9,4095.0,14662.0,2.0,0,
229520,1882.9,210.1,218.5,45.4,4095.0,16346.0,2.0,0,
229620,1889.8,226.8,228.8,39.0,4095.0,15115.0,2.0,0,
229720,1893.2,271.4,229.3,39.4,4095.0,16033.0,2.0,0,
229820,1837.1,238.5,223.7,43.8,4095.0,14473.0,2.0,0,
229920,1895.6,176.6,224.2,70.4,4095.0,13144.0,2.0,0,
230020,1871.9,157.9,225.4,41.0,4095.0,13629.0,2.0,0,
230120,1867.9,52.4,225.3,65.5,4095.0,13629.0,2.0,0,
230220,1858.4,48.7,225.2,94.3,4095.0,13629.0,2.0,0,
230320,1860.7,49.0,225.1,123.6,4095.0,13629.0,2.0,0,
230520,1858.0,48.8,225.0,279.3,4095.0,13629.0,2.0,0,
230620,1859.6,49.9,224.9,276.9,4095.0,13629.0,2.0,0,
230720,1857.0,47.5,224.9,276.9,4095.0,13629.0,2.0,0,
230820,1859.8,46.6,224.9,298.2,4095.0,13629.0,2.0,0,
230920,1858.7,48.0,224.8,298.4,4095.0,13629.0,2.0,0,
231020,1858.6,207.5,224.8,297.9,4095.0,13629.0,2.0,0,
231120,1897.2,261.3,204.8,77.7,4095.0,18951.0,3.0,1,
231220,1858.2,149.9,193.8,38.6,4095.0,15452.0,2.0,0,
231320,1869.3,166.0,195.1,79.3,4095.0,13613.0,2.0,0,
231520,1880.5,455.7,199.5,71.2,4026.0,13537.0,2.0,0,
231620,1923.1,171.7,206.1,50.5,4040.0,13255.0,2.0,0,
231720,1823.6,57.8,204.2,43.2,4095.0,14256.0,2.0,0,
231820,1860.5,54.8,204.3,56.7,4095.0,14256.0,2.0,0,
231920,1861.8,53.5,204.4,93.6,4095.0,14256.0,2.0,0,
232020,1861.2,50.9,204.4,166.5,4095.0,14256.0,2.0,0,
232120,1858.0,49.2,204.4,240.9,4095.0,14256.0,2.0,0,
232220,1859.2,49.6,204.4,241.2,4095.0,14256.0,2.0,0,
232320,1858.5,50.4,204.4,241.0,4095.0,14256.0,2.0,0,
232520,1858.6,48.7,204.6,242.3,4095.0,14256.0,2.0,0,
232620,1859.2,49.4,204.6,275.5,4095.0,14256.0,2.0,0,
232720,1854.5,209.6,219.3,77.2,4095.0,15760.0,2.0,0,
232820,1879.9,233.2,221.6,30.3,4095.0,15746.0,2.0,0,
232920,1890.5,285.7,217.0,29.6,4095.0,16595.0,2.0,0,
233020,1896.1,192.6,217.8,29.9,4095.0,15069.0,2.0,0,
233120,1953.1,222.9,217.7,48.2,4095.0,14291.0,2.0,0,
233220,1797.3,310.9,206.6,50.9,4095.0,14726.0,2.0,0,
233320,1889.5,73.5,208.4,74.9,4095.0,14512.0,2.0,0,
233520,1855.5,48.0,208.3,194.5,4095.0,14512.0,2.0,0,
233620,1861.6,49.0,208.3,239.6,4095.0,14512.0,2.0,0,
233720,1861.6,48.9,208.2,242.5,4095.0,14512.0,2.0,0,
233820,1858.5,47.9,208.2,241.0,4095.0,14512.0,2.0,0,
233920,1858.9,48.6,208.2,241.1,4095.0,14512.0,2.0,0,
234020,1859.6,46.7,208.1,242.1,4095.0,14512.0,2.0,0,
234120,1859.6,47.3,208.0,240.9,4095.0,14512.0,2.0,0,
234220,1859.7,46.6,208.0,240.2,4095.0,14512.0,2.0,0,
234320,1848.0,242.8,189.7,240.4,4059.0,17800.0,3.0,1,
234520,1866.3,203.7,213.6,40.9,4095.0,14641.0,2.0,0,
234620,1942.4,291.3,211.1,40.3,4095.0,15011.0,2.0,0,
234720,1796.3,261.4,212.7,40.0,4095.0,15598.0,2.0,0,
234820,1883.1,158.7,216.1,41.4,4047.0,13544.0,2.0,0,
234920,1876.9,117.1,225.9,41.2,4095.0,13593.0,2.0,0,
235020,1860.5,53.6,225.8,43.6,4095.0,13593.0,2.0,0,
235120,1859.1,52.5,225.8,65.8,4095.0,13593.0,2.0,0,
235220,1848.8,47.9,226.0,55.9,4095.0,13593.0,2.0,0,
235320,1862.5,48.6,226.0,82.6,4095.0,13593.0,2.0,0,
235520,1861.8,49.3,226.0,240.2,4095.0,13593.0,2.0,0,
235620,1859.5,51.0,226.0,240.3,4095.0,13593.0,2.0,0,
235720,1856.5,50.6,226.1,240.7,4095.0,13593.0,2.0,0,
235820,1858.9,50.6,226.2,241.1,4095.0,13593.0,2.0,0,
235920,1861.1,258.1,232.2,240.1,3951.0,15515.0,2.0,0,
236020,1871.3,354.4,224.5,40.8,4095.0,15606.0,2.0,0,
236120,1926.8,144.2,221.4,38.2,4095.0,14234.0,2.0,0,
236220,1813.9,193.3,229.1,40.5,4095.0,14561.0,2.0,0,
236320,1880.5,306.0,238.8,41.9,4095.0,14499.0,2.0,0,
236520,1881.4,104.8,221.3,43.4,4095.0,14739.0,2.0,0,
236620,1866.0,52.9,221.3,86.3,4095.0,14739.0,2.0,0,
236720,1859.1,51.3,221.4,142.5,4095.0,14739.0,2.0,0,
236820,1852.2,50.8,221.4,169.4,4095.0,14739.0,2.0,0,
236920,1858.0,49.6,221.4,220.2,4095.0,14739.0,2.0,0,
237020,1857.6,46.7,221.4,241.0,4095.0,14739.0,2.0,0,
237120,1858.2,51.9,221.5,240.8,4095.0,14739.0,2.0,0,
237220,1857.0,48.3,221.5,240.7,4095.0,14739.0,2.0,0,
237320,1859.1,48.9,221.5,240.9,4095.0,14739.0,2.0,0,
237520,1877.7,76.6,219.6,241.1,4095.0,14739.0,2.0,0,
237620,1883.1,147.8,221.3,91.6,4095.0,14938.0,2.0,0,
237720,1824.2,208.9,216.3,47.9,4095.0,15315.0,2.0,0,
237820,1883.1,360.2,226.1,45.5,4095.0,12899.0,2.0,0,
237920,1895.0,381.6,210.8,42.8,4095.0,15187.0,2.0,0,
238020,1917.7,138.5,222.0,41.5,4063.0,13765.0,2.0,0,
238120,1868.7,262.5,224.3,69.5,4048.0,13100.0,2.0,0,
238220,1843.0,62.1,225.5,71.3,4095.0,13208.0,2.0,0,
238320,1855.6,52.5,225.5,69.3,4095.0,13208.0,2.0,0,
238520,1854.9,51.9,225.8,41.4,4095.0,13208.0,2.0,0,
238620,1873.5,49.3,225.5,240.7,4095.0,13208.0,2.0,0,
238720,1861.9,48.6,225.5,240.6,4095.0,13208.0,2.0,0,
238820,1861.1,47.8,225.4,240.5,4095.0,13208.0,2.0,0,
238920,1861.5,51.4,225.3,240.8,4095.0,13208.0,2.0,0,
239020,1859.0,47.9,225.3,240.9,4095.0,13208.0,2.0,0,
239120,1859.9,50.3,225.2,240.4,4095.0,13208.0,2.0,0,
239220,1845.9,259.6,222.5,218.0,4095.0,16369.0,2.0,0,
239320,1883.2,154.7,221.8,41.0,4095.0,15048.0,2.0,0,
239520,1932.3,227.9,209.0,47.9,4095.0,13113.0,2.0,0,
239620,1819.6,324.5,202.1,40.7,4095.0,15414.0,2.0,0,
239720,1862.8,281.5,204.5,40.1,4095.0,15206.0,2.0,0,
239820,1883.9,83.0,218.9,40.9,4048.0,13164.0,2.0,0,
239920,1859.3,52.7,218.9,41.9,4048.0,13164.0,2.0,0,
240020,1862.5,49.4,218.7,71.0,4048.0,13164.0,2.0,0,
240120,1842.2,47.1,218.7,74.3,4048.0,13164.0,2.0,0,
240220,1856.7,48.8,218.9,145.3,4048.0,13164.0,2.0,0,
240320,1854.0,48.6,219.1,240.7,4048.0,13164.0,2.0,0,
240520,1881.4,49.5,219.1,240.9,4048.0,13164.0,2.0,0,
240620,1867.5,48.9,219.0,240.8,4048.0,13164.0,2.0,0,
240720,1863.2,50.8,219.0,241.0,4048.0,13164.0,2.0,0,
240820,1876.9,202.4,223.9,185.7,3970.0,14447.0,2.0,0,
240920,1858.4,283.9,224.7,74.3,4095.0,14035.0,2.0,0,
241020,1953.6,350.8,225.4,55.4,4095.0,14794.0,2.0,0,
241120,1807.3,180.2,232.4,48.1,4095.0,15105.0,2.0,0,
241220,1879.3,208.1,236.6,47.6,4095.0,13537.0,2.0,0,
241320,1871.1,274.6,221.9,56.2,4095.0,14673.0,2.0,0,
241520,1859.1,53.2,210.1,122.2,4095.0,14673.0,2.0,0,
241620,1855.7,50.4,210.2,156.8,4095.0,14673.0,2.0,0,
241720,1859.7,48.9,209.9,215.5,4095.0,14673.0,2.0,0,
241820,1861.2,48.5,209.8,240.0,4095.0,14673.0,2.0,0,
241920,1856.1,51.3,209.7,240.4,4095.0,14673.0,2.0,0,
242020,1859.1,48.1,209.6,240.3,4095.0,14673.0,2.0,0,
242120,1858.7,46.4,209.8,240.6,4095.0,14673.0,2.0,0,
242220,1858.5,50.7,209.9,245.5,4095.0,14673.0,2.0,0,
242320,1856.2,48.0,210.1,298.2,4095.0,14673.0,2.0,0,
242520,1949.2,146.9,205.3,67.4,3953.0,13969.0,2.0,0,
242620,1791.4,298.4,216.4,54.1,4095.0,15088.0,2.0,0,
242720,1879.1,370.0,215.7,55.4,4095.0,13146.0,2.0,0,
242820,1889.1,183.8,214.6,41.1,4095.0,14744.0,2.0,0,
242920,1869.0,209.9,228.6,41.0,4095.0,14550.0,2.0,0,
243020,1874.0,159.1,233.3,70.3,3895.0,12687.0,2.0,0,
243120,1862.6,57.1,233.3,49.8,3895.0,12687.0,2.0,0,
243220,1859.3,50.5,233.2,71.5,3895.0,12687.0,2.0,0,
243320,1858.2,48.0,233.2,82.4,3895.0,12687.0,2.0,0,
243520,1858.8,53.1,233.3,240.4,3895.0,12687.0,2.0,0,
243620,1862.0,53.7,233.3,240.8,3895.0,12687.0,2.0,0,
243720,1859.8,49.0,233.3,241.0,3895.0,12687.0,2.0,0,
243820,1859.9,48.0,233.2,240.8,3895.0,12687.0,2.0,0,
243920,1860.0,48.9,233.2,240.8,3895.0,12687.0,2.0,0,
244020,1901.8,201.7,235.5,259.4,3895.0,12687.0,2.0,0,
244120,1816.8,351.8,242.5,77.3,3944.0,14194.0,2.0,0,
244220,1887.9,335.4,232.0,50.0,4095.0,14327.0,2.0,0,
244320,1880.7,247.0,250.0,42.6,4095.0,13974.0,2.0,0,
244520,1888.1,158.9,233.9,39.5,3996.0,13343.0,2.0,0,
244620,1834.8,153.4,229.7,52.4,4012.0,14980.0,2.0,0,
244720,1883.4,54.5,229.4,70.1,4012.0,14980.0,2.0,0,
244820,1858.7,50.4,229.4,40.0,4012.0,14980.0,2.0,0,
244920,1857.9,51.7,229.4,38.3,4012.0,14980.0,2.0,0,
245020,1859.7,46.2,229.4,122.2,4012.0,14980.0,2.0,0,
245120,1859.9,49.3,229.3,243.7,4012.0,14980.0,2.0,0,
245220,1857.8,50.3,229.4,285.1,4012.0,14980.0,2.0,0,
245320,1860.4,47.9,229.3,241.9,4012.0,14980.0,2.0,0,
245520,1861.5,50.1,229.3,241.2,4012.0,14980.0,2.0,0,
245620,1858.8,56.5,229.3,240.5,4012.0,14980.0,2.0,0,
245720,1860.1,243.6,231.5,110.3,4093.0,15590.0,2.0,0,
245820,1873.1,409.2,231.3,39.5,4095.0,14068.0,2.0,0,
245920,1919.8,402.2,217.0,41.3,4095.0,14970.0,2.0,0,
246020,1845.7,170.8,224.6,40.8,4095.0,14150.0,2.0,0,
246120,1842.2,327.8,235.7,40.3,4095.0,15371.0,2.0,0,
246220,1886.7,298.8,231.6,43.0,4095.0,15236.0,2.0,0,
246320,1879.3,70.9,236.0,40.4,4095.0,13494.0,2.0,0,
246520,1859.3,52.8,236.0,71.0,4095.0,13494.0,2.0,0,
246620,1855.7,54.7,236.1,78.5,4095.0,13494.0,2.0,0,
246720,1856.7,55.1,236.2,239.8,4095.0,13494.0,2.0,0,
246820,1858.8,52.9,236.2,265.9,4095.0,13494.0,2.0,0,
246920,1861.0,54.5,236.2,249.8,4095.0,13494.0,2.0,0,
247020,1858.0,51.3,236.3,241.8,4095.0,13494.0,2.0,0,
247120,1858.7,49.5,236.3,242.5,4095.0,13494.0,2.0,0,
247220,1858.4,49.3,236.4,258.8,4095.0,13494.0,2.0,0,
247320,1876.5,136.6,229.9,240.9,4095.0,19935.0,3.0,1,
247520,1784.8,315.6,228.6,67.4,4095.0,14906.0,2.0,0,
247620,1873.7,322.1,219.7,70.6,4095.0,15843.0,2.0,0,
247720,1890.9,149.3,211.2,41.2,4095.0,13899.0,2.0,0,
247820,1878.6,267.6,222.6,39.2,4095.0,14817.0,2.0,0,
247920,1868.9,79.2,220.7,40.9,4095.0,15642.0,2.0,0,
248020,1859.7,54.7,220.7,39.5,4095.0,15642.0,2.0,0,
248120,1859.9,53.3,220.8,37.8,4095.0,15642.0,2.0,0,
248220,1859.0,51.2,220.7,40.5,4095.0,15642.0,2.0,0,
248320,1862.7,51.1,220.5,238.7,4095.0,15642.0,2.0,0,
248520,1863.0,51.6,220.5,266.0,4095.0,15642.0,2.0,0,
248620,1862.1,51.5,220.4,242.4,4095.0,15642.0,2.0,0,
248720,1861.4,50.8,220.4,241.5,4095.0,15642.0,2.0,0,
248820,1858.9,52.3,220.3,240.7,4095.0,15642.0,2.0,0,
248920,1926.5,220.1,222.7,239.6,4064.0,17508.0,3.0,1,
249020,1798.5,192.0,221.6,72.9,4095.0,16457.0,2.0,0,
249120,1881.9,223.8,220.2,74.5,4095.0,14695.0,2.0,0,
249220,1872.0,254.5,229.3,49.0,4095.0,13936.0,2.0,0,
249320,1868.3,306.4,218.4,39.4,4095.0,15675.0,2.0,0,
249520,1819.8,135.2,217.2,44.9,3899.0,12538.0,2.0,0,
249620,1858.6,59.2,217.3,48.0,3899.0,12538.0,2.0,0,
249720,1857.9,51.4,217.3,47.7,3899.0,12538.0,2.0,0,
249820,1855.9,51.6,217.3,49.5,3899.0,12538.0,2.0,0,
249920,1855.3,52.6,217.4,158.0,3899.0,12538.0,2.0,0,
250020,1856.6,53.9,217.5,281.3,3899.0,12538.0,2.0,0,
250120,1859.5,53.9,217.6,279.5,3899.0,12538.0,2.0,0,
250220,1859.8,52.9,217.6,242.7,3899.0,12538.0,2.0,0,
250320,1857.1,53.4,217.7,240.7,3899.0,12538.0,2.0,0,
250520,1848.6,190.6,222.5,240.2,4038.0,18519.0,3.0,1,
250620,1885.0,197.5,217.8,28.3,4095.0,14546.0,2.0,0,
250720,1865.2,344.8,205.0,28.3,4095.0,15340.0,2.0,0,
250820,1879.9,225.0,202.6,41.1,4095.0,15792.0,2.0,0,
250920,1923.0,157.7,209.7,69.7,4095.0,13534.0,2.0,0,
251020,1806.5,297.6,210.5,42.5,4095.0,15064.0,2.0,0,
251120,1879.3,168.9,202.6,50.5,4095.0,15534.0,2.0,0,
251220,1878.5,59.5,202.9,72.1,4095.0,15534.0,2.0,0,
251320,1858.7,51.5,202.9,46.1,4095.0,15534.0,2.0,0,
251520,1853.0,54.5,202.9,50.1,4095.0,15534.0,2.0,0,
251620,1857.8,52.7,203.0,240.6,4095.0,15534.0,2.0,0,
251720,1859.7,53.6,202.9,242.0,4095.0,15534.0,2.0,0,
251820,1862.1,49.5,202.9,240.8,4095.0,15534.0,2.0,0,
251920,1860.4,51.2,202.9,240.7,4095.0,15534.0,2.0,0,
252020,1858.2,53.2,202.9,240.8,4095.0,15534.0,2.0,0,
252120,1857.2,220.1,202.9,240.8,4095.0,15534.0,2.0,0,
252220,1875.0,139.3,210.1,92.7,4095.0,14702.0,2.0,0,
252320,1894.1,201.1,222.6,71.9,4095.0,14644.0,2.0,0,
252520,1844.9,211.4,216.4,39.8,4095.0,15484.0,2.0,0,
252620,1892.7,190.5,221.8,40.7,4095.0,13925.0,2.0,0,
252720,1869.2,330.2,228.6,70.2,4095.0,14327.0,2.0,0,
252820,1884.1,66.1,227.6,69.8,4095.0,14264.0,2.0,0,
252920,1861.5,56.1,227.5,72.3,4095.0,14264.0,2.0,0,
253020,1860.0,53.7,227.5,92.2,4095.0,14264.0,2.0,0,
253120,1857.8,51.3,227.5,195.3,4095.0,14264.0,2.0,0,
253220,1856.8,51.1,227.4,249.6,4095.0,14264.0,2.0,0,
253320,1856.8,50.4,227.4,240.9,4095.0,14264.0,2.0,0,
253520,1859.6,51.4,227.4,243.2,4095.0,14264.0,2.0,0,
253620,1860.3,52.3,227.3,243.0,4095.0,14264.0,2.0,0,
