Time(ms),Raw_ADC
0,1975
1,1920
2,1878
3,1829
4,1810
5,1819
6,1834
7,1838
8,1872
9,1861
10,1863
11,2250
12,1809
13,1747
14,1759
15,1782
16,1839
17,1925
18,1936
19,1910
20,1815
21,1776
22,1799
23,1792
24,1799
25,1811
26,1817
27,1834
28,1899
29,1962
30,1973
31,1951
32,1931
33,1872
34,1830
35,1821
36,1843
37,1850
38,1853
39,1854
40,1853
41,1844
42,1872
43,1837
44,1737
45,1759
46,1781
47,1904
48,1995
49,1986
50,1907
51,1770
52,1748
53,1773
54,1792
55,1801
56,1810
57,1806
58,1831
59,1843
60,1935
61,1991
62,1969
63,1951
64,1901
65,1846
66,1831
67,1831
68,1822
69,1819
70,1815
71,1843
72,1854
73,1861
74,1881
75,1760
76,1759
77,1771
78,1811
79,1959
80,1985
81,1954
82,1791
83,1776
84,1776
85,1793
86,1796
87,1808
88,1822
89,1819
90,1843
91,1942
92,1982
93,1975
94,1953
95,1902
96,1856
97,1853
98,1831
99,1840
100,1823
101,1825
102,1828
103,1856
104,1856
105,1907
106,1755
107,1773
108,1772
109,1789
110,1806
111,1877
112,1916
113,1920
114,1857
115,1811
116,1809
117,1801
118,1809
119,1836
120,1834
121,1918
122,1972
123,1985
124,1953
125,1918
126,1854
127,1819
128,1821
129,1852
130,1847
131,1845
132,1849
133,1846
134,1846
135,1855
136,2002
137,1756
138,1751
139,1776
140,1789
141,1806
142,1859
143,1946
144,1952
145,1850
146,1801
147,1793
148,1807
149,1835
150,1856
151,1876
152,1887
153,1906
154,1918
155,1918
156,1904
157,1870
158,1833
159,1840
160,1847
161,1872
162,1859
163,1869
164,1855
165,1854
166,1853
167,2044
168,1749
169,1744
170,1771
171,1781
172,1873
173,1953
174,1967
175,1842
176,1776
177,1792
178,1788
179,1791
180,1808
181,1808
182,1851
183,1903
184,1949
185,1967
186,1974
187,1949
188,1888
189,1841
190,1829
191,1838
192,1827
193,1841
194,1839
195,1840
196,1859
197,1856
198,2243
199,1747
200,1744
201,1762
202,1778
203,1807
204,1866
205,1932
206,1885
207,1804
208,1793
209,1803
210,1808
211,1806
212,1825
213,1847
214,1911
215,1950
216,1979
217,1963
218,1937
219,1878
220,1842
221,1844
222,1834
223,1837
224,1824
225,1825
226,1854
227,1855
228,1853
229,2448
230,1746
231,1744
232,1771
233,1775
234,1788
235,1840
236,1933
237,1945
238,1830
239,1804
240,1787
241,1817
242,1810
243,1840
244,1882
245,1938
246,1977
247,1952
248,1925
249,1904
250,1874
251,1838
252,1834
253,1823
254,1842
255,1834
256,1847
257,1873
258,1840
259,1856
260,2675
261,1779
262,1744
263,1762
264,1770
265,1796
266,1886
267,1965
268,1943
269,1814
270,1776
271,1789
272,1815
273,1811
274,1855
275,1895
276,1918
277,1935
278,1951
279,1958
280,1948
281,1887
282,1829
283,1840
284,1813
285,1818
286,1808
287,1820
288,1834
289,1840
290,1875
291,2815
292,1779
293,1744
294,1776
295,1766
296,1792
297,1823
298,1969
299,1971
300,1838
301,1776
302,1785
303,1793
304,1813
305,1811
306,1861
307,1909
308,1947
309,1954
310,1961
311,1962
312,1889
313,1856
314,1840
315,1828
316,1824
317,1829
318,1829
319,1838
320,1843
321,1843
322,2240
323,1802
324,1763
325,1759
326,1772
327,1790
328,1797
329,1910
330,1984
331,1853
332,1803
333,1799
334,1808
335,1815
336,1822
337,1861
338,1911
339,1947
340,1954
341,1954
342,1934
343,1883
344,1834
345,1843
346,1826
347,1834
348,1835
349,1827
350,1856
351,1841
352,1844
353,1911
354,1831
355,1739
356,1753
357,1786
358,1776
359,1846
360,1970
361,1984
362,1834
363,1763
364,1792
365,1797
366,1807
367,1842
368,1861
369,1913
370,1927
371,1935
372,1930
373,1920
374,1880
375,1845
376,1839
377,1833
378,1842
379,1831
380,1845
381,1846
382,1855
383,1856
384,1854
385,1851
386,1761
387,1750
388,1767
389,1776
390,1814
391,1989
392,2007
393,1813
394,1776
395,1788
396,1793
397,1824
398,1845
399,1857
400,1882
401,1925
402,1963
403,1963
404,1979
405,1908
406,1854
407,1815
408,1808
409,1824
410,1837
411,1839
412,1859
413,1847
414,1859
415,1845
416,1898
417,1743
418,1746
419,1783
420,1782
421,1794
422,1904
423,2012
424,1891
425,1776
426,1775
427,1791
428,1808
429,1846
430,1876
431,1895
432,1919
433,1943
434,1946
435,1942
436,1902
437,1867
438,1837
439,1826
440,1818
441,1835
442,1857
443,1856
444,1855
445,1854
446,1843
447,1955
448,1739
449,1744
450,1761
451,1769
452,1789
453,1891
454,2032
455,1892
456,1793
457,1776
458,1793
459,1808
460,1838
461,1850
462,1917
463,1936
464,1951
465,1967
466,1947
467,1899
468,1841
469,1819
470,1811
471,1824
472,1834
473,1850
474,1869
475,1851
476,1860
477,1865
478,1862
479,1863
480,1862
481,1865
482,1847
483,1870
484,1856
485,1846
486,1855
487,1857
488,1865
489,1861
490,1857
491,1872
492,1882
493,1879
494,1875
495,1872
496,1869
497,1841
498,1861
499,1853
500,1861
501,1866
502,1844
503,1851
504,1851
505,1852
506,1842
507,1843
508,1879
509,1856
510,1847
511,1882
512,1872
513,1863
514,1841
515,1840
516,1866
517,1840
518,1843
519,1847
520,1840
521,1863
522,1850
523,1872
524,1872
525,1871
526,1872
527,1863
528,1870
529,1866
530,1872
531,1871
532,1887
533,1858
534,1857
535,1840
536,1823
537,1856
538,1870
539,1872
540,1872
541,1872
542,1868
543,1867
544,1866
545,1872
546,1884
547,1870
548,1856
549,1862
550,1861
551,1849
552,1856
553,1861
554,1855
555,1856
556,1867
557,1857
558,1872
559,1884
560,1886
561,1911
562,1882
563,1872
564,1872
565,1865
566,1856
567,1869
568,1850
569,1855
570,1881
571,1846
572,1856
573,1872
574,1840
575,1870
576,1875
577,1872
578,1855
579,1839
580,1855
581,1867
582,1850
583,1858
584,1849
585,1854
586,1854
587,1836
588,1865
589,1869
590,1875
591,1863
592,1873
593,1872
594,1857
595,1862
596,1840
597,1811
598,1831
599,1853
600,1840
601,1850
602,1845
603,1861
604,1872
605,1881
606,1878
607,1859
608,1867
609,1872
610,1866
611,1888
612,1872
613,1866
614,1866
615,1854
616,1843
617,1850
618,1847
619,1851
620,1870
621,1856
622,1843
623,1866
624,1861
625,1870
626,1867
627,1862
628,1869
629,1859
630,1853
631,1855
632,1843
633,1860
634,1840
635,1845
636,1850
637,1862
638,1867
639,1873
640,1861
641,1890
642,1858
643,1856
644,1857
645,1885
646,1876
647,1871
648,1885
649,1856
650,1808
651,1839
652,1849
653,1850
654,1851
655,1843
656,1851
657,1847
658,1870
659,1870
660,1868
661,1856
662,1870
663,1862
664,1859
665,1861
666,1875
667,1855
668,1847
669,1843
670,1846
671,1863
672,1857
673,1879
674,1880
675,1865
676,1854
677,1861
678,1883
679,1892
680,1893
681,1904
682,1885
683,1858
684,1834
685,1817
686,1827
687,1847
688,1850
689,1835
690,1843
691,1866
692,1882
693,1894
694,1905
695,1904
696,1892
697,1888
698,1840
699,1809
700,1839
701,1840
702,1842
703,1857
704,1857
705,1842
706,1840
707,1881
708,1872
709,1871
710,1867
711,1868
712,1840
713,1856
714,1850
715,1840
716,1841
717,1855
718,1855
719,1845
720,1845
721,1866
722,1879
723,1879
724,1876
725,1873
726,1863
727,1872
728,1847
729,1871
730,1847
731,1841
732,1847
733,1863
734,1869
735,1857
736,1855
737,1872
738,1872
739,1853
740,1856
741,1877
742,1899
743,1891
744,1879
745,1898
746,1895
747,1865
748,1789
749,1789
750,1840
751,1861
752,1872
753,1859
754,1840
755,1846
756,1872
757,1880
758,1899
759,1876
760,1825
761,1811
762,1841
763,1841
764,1851
765,1855
766,1857
767,1861
768,1853
769,1838
770,1853
771,1872
772,1887
773,1858
774,1872
775,1872
776,1861
777,1856
778,1855
779,1840
780,1853
781,1851
782,1869
783,1851
784,1862
785,1859
786,1870
787,1890
788,1872
789,1858
790,1872
791,1856
792,1872
793,1868
794,1861
795,1866
796,1865
797,1856
798,1866
799,1872
800,1863
801,1843
802,1866
803,1874
804,1899
805,1895
806,1904
807,1862
808,1827
809,1814
810,1829
811,1855
812,1861
813,1873
814,1858
815,1858
816,1852
817,1840
818,1833
819,1840
820,1823
821,1839
822,1852
823,1867
824,1881
825,1877
826,1867
827,1885
828,1874
829,1863
830,1867
831,1840
832,1837
833,1856
834,1850
835,1843
836,1840
837,1844
838,1855
839,1855
840,1871
841,1870
842,1858
843,1870
844,1855
845,1863
846,1862
847,1872
848,1851
849,1850
850,1856
851,1863
852,1859
853,1840
854,1840
855,1846
856,1871
857,1879
858,1883
859,1874
860,1872
861,1890
862,1877
863,1859
864,1863
865,1855
866,1840
867,1842
868,1845
869,1850
870,1859
871,1857
872,1860
873,1870
874,1886
875,1905
876,1906
877,1899
878,1893
879,1847
880,1803
881,1791
882,1817
883,1839
884,1861
885,1872
886,1887
887,1862
888,1870
889,1843
890,1823
891,1858
892,1866
893,1856
894,1837
895,1847
896,1846
897,1840
898,1844
899,1841
900,1857
901,1859
902,1859
903,1850
904,1873
905,1871
906,1862
907,1862
908,1884
909,1871
910,1855
911,1869
912,1857
913,1858
914,1856
915,1862
916,1865
917,1854
918,1843
919,1841
920,1856
921,1853
922,1856
923,1863
924,1871
925,1866
926,1846
927,1863
928,1871
929,1846
930,1857
931,1857
932,1865
933,1851
934,1854
935,1840
936,1857
937,1874
938,1861
939,1869
940,1845
941,1862
942,1859
943,1872
944,1871
945,1868
946,1861
947,1855
948,1865
949,1863
950,1857
951,1856
952,1842
953,1857
954,1862
955,1869
956,1860
957,1841
958,1872
959,1867
960,1854
961,1867
962,1869
963,1867
964,1851
965,1873
966,1849
967,1853
968,1847
969,1841
970,1840
971,1870
972,1851
973,1856
974,1867
975,1883
976,1867
977,1875
978,1885
979,1873
980,1858
981,1872
982,1850
983,1843
984,1842
985,1823
986,1833
987,1840
988,1856
989,1843
990,1863
991,1858
992,1865
993,1869
994,1872
995,1863
996,1871
997,1863
998,1850
999,1861
1000,1861
1001,1859
1002,1846
1003,1851
1004,1855
1005,1872
1006,1881
1007,1869
1008,1876
1009,1872
1010,1878
1011,1879
1012,1872
1013,1857
1014,1851
1015,1866
1016,1851
1017,1844
1018,1840
1019,1839
1020,1845
1021,1849
1022,1867
1023,1873
1024,1878
1025,1887
1026,1871
1027,1877
1028,1871
1029,1872
1030,1850
1031,1855
1032,1856
1033,1869
1034,1847
1035,1840
1036,1872
1037,1863
1038,1877
1039,1877
1040,1868
1041,1891
1042,1859
1043,1851
1044,1857
1045,1841
1046,1866
1047,1862
1048,1839
1049,1834
1050,1851
1051,1840
1052,1850
1053,1856
1054,1873
1055,1890
1056,1885
1057,1872
1058,1858
1059,1854
1060,1841
1061,1861
1062,1854
1063,1856
1064,1865
1065,1867
1066,1844
1067,1847
1068,1855
1069,1870
1070,1907
1071,1902
1072,1894
1073,1885
1074,1861
1075,1829
1076,1830
1077,1847
1078,1861
1079,1876
1080,1856
1081,1863
1082,1854
1083,1856
1084,1840
1085,1838
1086,1853
1087,1855
1088,1874
1089,1876
1090,1872
1091,1865
1092,1869
1093,1868
1094,1865
1095,1870
1096,1868
1097,1857
1098,1856
1099,1846
1100,1858
1101,1850
1102,1843
1103,1856
1104,1857
1105,1843
1106,1857
1107,1872
1108,1863
1109,1874
1110,1857
1111,1872
1112,1869
1113,1856
1114,1851
1115,1834
1116,1850
1117,1847
1118,1847
1119,1853
1120,1849
1121,1854
1122,1869
1123,1883
1124,1875
1125,1871
1126,1855
1127,1851
1128,1866
1129,1882
1130,1867
1131,1843
1132,1841
1133,1855
1134,1845
1135,1844
1136,1849
1137,1851
1138,1876
1139,1867
1140,1855
1141,1873
1142,1856
1143,1862
1144,1871
1145,1879
1146,1859
1147,1834
1148,1840
1149,1856
1150,1871
1151,1859
1152,1837
1153,1827
1154,1840
1155,1866
1156,1886
1157,1866
1158,1858
1159,1858
1160,1856
1161,1881
1162,1865
1163,1857
1164,1861
1165,1838
1166,1826
1167,1842
1168,1841
1169,1852
1170,1866
1171,1870
1172,1866
1173,1861
1174,1872
1175,1865
1176,1863
1177,1859
1178,1867
1179,1863
1180,1870
1181,1842
1182,1835
1183,1843
1184,1847
1185,1861
1186,1861
1187,1872
1188,1866
1189,1872
1190,1856
1191,1831
1192,1875
1193,1870
1194,1857
1195,1882
1196,1851
1197,1858
1198,1842
1199,1855
1200,1853
1201,1853
1202,1836
1203,1853
1204,1868
1205,1859
1206,1871
1207,1872
1208,1872
1209,1865
1210,1863
1211,1875
1212,1866
1213,1868
1214,1847
1215,1847
1216,1862
1217,1853
1218,1846
1219,1859
1220,1855
1221,1862
1222,1873
1223,1873
1224,1871
1225,1867
1226,1858
1227,1843
1228,1870
1229,1856
1230,1861
1231,1855
1232,1858
1233,1849
1234,1841
1235,1845
1236,1859
1237,1838
1238,1859
1239,1853
1240,1867
1241,1866
1242,1872
1243,1871
1244,1857
1245,1887
1246,1863
1247,1858
1248,1854
1249,1855
1250,1840
1251,1835
1252,1829
1253,1853
1254,1855
1255,1872
1256,1867
1257,1865
1258,1869
1259,1858
1260,1863
1261,1873
1262,1862
1263,1859
1264,1855
1265,1847
1266,1857
1267,1843
1268,1843
1269,1840
1270,1857
1271,1870
1272,1858
1273,1874
1274,1865
1275,1871
1276,1857
1277,1877
1278,1884
1279,1873
1280,1865
1281,1857
1282,1852
1283,1841
1284,1844
1285,1840
1286,1831
1287,1854
1288,1858
1289,1846
1290,1851
1291,1885
1292,1873
1293,1871
1294,1877
1295,1871
1296,1867
1297,1861
1298,1860
1299,1861
1300,1857
1301,1839
1302,1842
1303,1856
1304,1861
1305,1855
1306,1858
1307,1873
1308,1875
1309,1869
1310,1859
1311,1869
1312,1853
1313,1856
1314,1857
1315,1847
1316,1855
1317,1843
1318,1842
1319,1856
1320,1838
1321,1855
1322,1866
1323,1869
1324,1879
1325,1871
1326,1866
1327,1865
1328,1867
1329,1877
1330,1857
1331,1867
1332,1882
1333,1863
1334,1851
1335,1844
1336,1856
1337,1857
1338,1863
1339,1878
1340,1894
1341,1877
1342,1867
1343,1863
1344,1871
1345,1858
1346,1862
1347,1845
1348,1856
1349,1841
1350,1843
1351,1839
1352,1854
1353,1851
1354,1857
1355,1861
1356,1856
1357,1867
1358,1867
1359,1872
1360,1872
1361,1879
1362,1860
1363,1863
1364,1845
1365,1818
1366,1855
1367,1851
1368,1846
1369,1866
1370,1847
1371,1866
1372,1858
1373,1865
1374,1875
1375,1883
1376,1865
1377,1852
1378,1858
1379,1866
1380,1861
1381,1866
1382,1855
1383,1854
1384,1843
1385,1839
1386,1847
1387,1865
1388,1872
1389,1867
1390,1863
1391,1895
1392,1877
1393,1870
1394,1871
1395,1883
1396,1867
1397,1847
1398,1866
1399,1840
1400,1841
1401,1855
1402,1846
1403,1853
1404,1872
1405,1856
1406,1851
1407,1854
1408,1857
1409,1871
1410,1871
1411,1873
1412,1867
1413,1861
1414,1863
1415,1841
1416,1870
1417,1856
1418,1857
1419,1856
1420,1852
1421,1866
1422,1867
1423,1853
1424,1862
1425,1859
1426,1865
1427,1865
1428,1866
1429,1865
1430,1857
1431,1858
1432,1861
1433,1867
1434,1851
1435,1843
1436,1861
1437,1853
1438,1861
1439,1842
1440,1856
1441,1858
1442,1869
1443,1870
1444,1874
1445,1859
1446,1861
1447,1854
1448,1855
1449,1855
1450,1845
1451,1854
1452,1850
1453,1856
1454,1857
1455,1866
1456,1855
1457,1856
1458,1881
1459,1872
1460,1873
1461,1873
1462,1853
1463,1861
1464,1850
1465,1846
1466,1852
1467,1843
1468,1843
1469,1830
1470,1844
1471,1872
1472,1857
1473,1841
1474,1744
1475,1749
1476,1759
1477,1795
1478,1921
1479,1941
1480,1920
1481,1915
1482,1877
1483,1847
1484,1805
1485,1776
1486,1783
1487,1794
1488,1797
1489,1807
1490,1838
1491,1915
1492,1947
1493,1969
1494,1998
1495,1971
1496,1918
1497,1879
1498,1839
1499,1807
1500,1821
1501,1818
1502,1835
1503,1840
1504,1872
1505,1731
1506,1738
1507,1753
1508,1791
1509,1905
1510,1937
1511,1942
1512,1919
1513,1876
1514,1797
1515,1781
1516,1761
1517,1780
1518,1797
1519,1801
1520,1823
1521,1821
1522,1935
1523,2000
1524,1988
1525,1965
1526,1911
1527,1858
1528,1821
1529,1814
1530,1809
1531,1818
1532,1839
1533,1843
1534,1847
1535,1904
1536,1746
1537,1765
1538,1763
1539,1790
1540,1961
1541,1998
1542,1986
1543,1936
1544,1792
1545,1757
1546,1751
1547,1763
1548,1770
1549,1802
1550,1798
1551,1819
1552,1813
1553,1841
1554,1969
1555,1979
1556,1975
1557,1920
1558,1886
1559,1840
1560,1830
1561,1823
1562,1825
1563,1838
1564,1851
1565,1846
1566,2019
1567,1744
1568,1747
1569,1760
1570,1774
1571,1852
1572,1963
1573,1974
1574,1952
1575,1865
1576,1776
1577,1776
1578,1777
1579,1785
1580,1795
1581,1815
1582,1819
1583,1862
1584,1950
1585,1982
1586,1971
1587,1936
1588,1877
1589,1822
1590,1809
1591,1839
1592,1844
1593,1850
1594,1847
1595,1882
1596,1853
1597,2128
1598,1754
1599,1769
1600,1762
1601,1787
1602,1821
1603,1917
1604,1922
1605,1872
1606,1834
1607,1806
1608,1808
1609,1821
1610,1823
1611,1843
1612,1850
1613,1879
1614,1899
1615,1921
1616,1936
1617,1930
1618,1906
1619,1872
1620,1809
1621,1811
1622,1835
1623,1843
1624,1865
1625,1869
1626,1867
1627,1851
1628,2288
1629,1750
1630,1750
1631,1764
1632,1773
1633,1918
1634,1959
1635,1941
1636,1939
1637,1791
1638,1757
1639,1771
1640,1778
1641,1805
1642,1803
1643,1818
1644,1813
1645,1887
1646,1949
1647,1959
1648,1951
1649,1926
1650,1883
1651,1808
1652,1820
1653,1833
1654,1856
1655,1827
1656,1839
1657,1851
1658,1854
1659,2492
1660,1769
1661,1750
1662,1769
1663,1839
1664,2078
1665,2079
1666,2043
1667,1930
1668,1731
1669,1707
1670,1727
1671,1751
1672,1764
1673,1775
1674,1785
1675,1807
1676,1811
1677,1830
1678,1906
1679,2000
1680,1955
1681,1883
1682,1846
1683,1824
1684,1812
1685,1821
1686,1826
1687,1857
1688,1850
1689,1855
1690,2752
1691,1792
1692,1760
1693,1776
1694,1805
1695,1889
1696,1967
1697,1927
1698,1870
1699,1805
1700,1785
1701,1792
1702,1790
1703,1811
1704,1810
1705,1814
1706,1840
1707,1886
1708,1980
1709,1979
1710,1983
1711,1950
1712,1898
1713,1840
1714,1811
1715,1805
1716,1827
1717,1829
1718,1834
1719,1830
1720,1839
1721,2647
1722,1775
1723,1753
1724,1744
1725,1783
1726,1881
1727,1975
1728,1941
1729,1905
1730,1792
1731,1776
1732,1775
1733,1791
1734,1795
1735,1801
1736,1823
1737,1829
1738,1893
1739,1965
1740,1961
1741,1955
1742,1934
1743,1878
1744,1820
1745,1818
1746,1831
1747,1837
1748,1840
1749,1867
1750,1846
1751,1852
1752,2096
1753,1797
1754,1773
1755,1755
1756,1783
1757,1806
1758,1933
1759,1936
1760,1921
1761,1871
1762,1798
1763,1782
1764,1782
1765,1808
1766,1825
1767,1823
1768,1842
1769,1914
1770,1966
1771,1959
1772,1963
1773,1929
1774,1882
1775,1834
1776,1827
1777,1833
1778,1851
1779,1855
1780,1849
1781,1843
1782,1850
1783,1959
1784,1815
1785,1749
1786,1766
1787,1785
1788,1794
1789,1904
1790,1925
1791,1934
1792,1855
1793,1787
1794,1808
1795,1801
1796,1803
1797,1805
1798,1827
1799,1883
1800,1936
1801,1949
1802,1959
1803,1968
1804,1909
1805,1846
1806,1812
1807,1811
1808,1826
1809,1843
1810,1849
1811,1845
1812,1856
1813,1854
1814,1855
1815,1847
1816,1745
1817,1749
1818,1778
1819,1771
1820,1921
1821,1948
1822,1942
1823,1847
1824,1790
1825,1777
1826,1788
1827,1807
1828,1801
1829,1820
1830,1865
1831,1931
1832,1942
1833,1967
1834,1931
1835,1891
1836,1852
1837,1843
1838,1819
1839,1825
1840,1852
1841,1852
1842,1861
1843,1870
1844,1885
1845,1867
1846,1913
1847,1727
1848,1743
1849,1769
1850,1786
1851,1851
1852,1906
1853,1970
1854,1881
1855,1789
1856,1786
1857,1803
1858,1824
1859,1819
1860,1837
1861,1888
1862,1936
1863,1939
1864,1947
1865,2003
1866,1940
1867,1808
1868,1790
1869,1773
1870,1808
1871,1840
1872,1859
1873,1862
1874,1871
1875,1859
1876,1854
1877,1969
1878,1728
1879,1754
1880,1777
1881,1787
1882,1863
1883,1925
1884,1954
1885,1887
1886,1783
1887,1789
1888,1792
1889,1810
1890,1819
1891,1874
1892,1894
1893,1926
1894,1954
1895,1989
1896,1987
1897,1938
1898,1850
1899,1810
1900,1791
1901,1797
1902,1814
1903,1849
1904,1845
1905,1855
1906,1851
1907,1859
1908,2015
1909,1735
1910,1743
1911,1762
1912,1781
1913,1870
1914,1911
1915,1990
1916,1904
1917,1777
1918,1769
1919,1772
1920,1776
1921,1799
1922,1840
1923,1898
1924,1933
1925,1977
1926,1975
1927,1925
1928,1889
1929,1851
1930,1829
1931,1807
1932,1813
1933,1830
1934,1840
1935,1840
1936,1840
1937,1842
1938,1854
1939,2197
1940,1754
1941,1762
1942,1762
1943,1785
1944,1791
1945,1904
1946,1998
1947,1940
1948,1804
1949,1797
1950,1787
1951,1798
1952,1815
1953,1817
1954,1859
1955,1920
1956,1984
1957,1965
1958,1974
1959,1915
1960,1854
1961,1839
1962,1831
1963,1834
1964,1829
1965,1843
1966,1830
1967,1833
1968,1814
1969,1840
1970,2387
1971,1755
1972,1761
1973,1767
1974,1789
1975,1840
1976,1929
1977,1995
1978,1917
1979,1775
1980,1766
1981,1776
1982,1807
1983,1845
1984,1838
1985,1862
1986,1904
1987,1968
1988,1947
1989,1938
1990,1922
1991,1866
1992,1840
1993,1830
1994,1833
1995,1847
1996,1849
1997,1849
1998,1847
1999,1859
2000,1859
2001,2619
2002,1766
2003,1751
2004,1758
2005,1781
2006,1778
2007,1885
2008,2016
2009,1970
2010,1808
2011,1762
2012,1768
2013,1789
2014,1775
2015,1817
2016,1839
2017,1922
2018,1968
2019,1981
2020,1981
2021,1943
2022,1877
2023,1828
2024,1807
2025,1806
2026,1859
2027,1855
2028,1831
2029,1834
2030,1856
2031,1863
2032,2841
2033,1775
2034,1726
2035,1738
2036,1766
2037,1792
2038,1791
2039,1917
2040,1985
2041,1840
2042,1787
2043,1783
2044,1808
2045,1839
2046,1869
2047,1903
2048,1918
2049,1935
2050,1935
2051,1933
2052,1916
2053,1872
2054,1837
2055,1833
2056,1818
2057,1833
2058,1875
2059,1849
2060,1845
2061,1862
2062,1856
2063,2322
2064,1782
2065,1738
2066,1761
2067,1763
2068,1807
2069,1927
2070,1978
2071,1922
2072,1781
2073,1775
2074,1777
2075,1791
2076,1806
2077,1827
2078,1856
2079,1922
2080,1951
2081,1967
2082,1965
2083,1968
2084,1856
2085,1793
2086,1823
2087,1830
2088,1849
2089,1855
2090,1845
2091,1863
2092,1859
2093,1853
2094,1840
2095,1875
2096,1859
2097,1847
2098,1858
2099,1838
2100,1854
2101,1852
2102,1851
2103,1863
2104,1871
2105,1872
2106,1895
2107,1909
2108,1904
2109,1886
2110,1872
2111,1863
2112,1856
2113,1840
2114,1855
2115,1856
2116,1855
2117,1827
2118,1841
2119,1859
2120,1851
2121,1851
2122,1854
2123,1904
2124,1847
2125,1836
2126,1866
2127,1872
2128,1854
2129,1843
2130,1857
2131,1860
2132,1889
2133,1857
2134,1834
2135,1840
2136,1846
2137,1869
2138,1885
2139,1893
2140,1875
2141,1875
2142,1866
2143,1857
2144,1867
2145,1866
2146,1845
2147,1863
2148,1867
2149,1872
2150,1849
2151,1856
2152,1869
2153,1856
2154,1869
2155,1858
2156,1872
2157,1878
2158,1872
2159,1863
2160,1863
2161,1862
2162,1851
2163,1861
2164,1856
2165,1856
2166,1874
2167,1866
2168,1851
2169,1883
2170,1870
2171,1887
2172,1883
2173,1900
2174,1919
2175,1872
2176,1858
2177,1872
2178,1877
2179,1840
2180,1818
2181,1812
2182,1827
2183,1837
2184,1859
2185,1856
2186,1856
2187,1870
2188,1878
2189,1890
2190,1906
2191,1894
2192,1856
2193,1853
2194,1843
2195,1857
2196,1846
2197,1843
2198,1847
2199,1842
2200,1819
2201,1822
2202,1828
2203,1849
2204,1845
2205,1845
2206,1872
2207,1887
2208,1882
2209,1882
2210,1872
2211,1879
2212,1871
2213,1871
2214,1855
2215,1867
2216,1838
2217,1831
2218,1840
2219,1841
2220,1862
2221,1872
2222,1870
2223,1852
2224,1841
2225,1866
2226,1872
2227,1885
2228,1851
2229,1868
2230,1855
2231,1869
2232,1871
2233,1854
2234,1843
2235,1869
2236,1869
2237,1840
2238,1855
2239,1860
2240,1873
2241,1881
2242,1883
2243,1861
2244,1852
2245,1860
2246,1852
2247,1855
2248,1855
2249,1831
2250,1850
2251,1846
2252,1856
2253,1856
2254,1865
2255,1868
2256,1867
2257,1872
2258,1874
2259,1866
2260,1869
2261,1872
2262,1867
2263,1862
2264,1854
2265,1840
2266,1873
2267,1848
2268,1850
2269,1879
2270,1871
2271,1872
2272,1875
2273,1872
2274,1859
2275,1847
2276,1840
2277,1841
2278,1863
2279,1866
2280,1869
2281,1869
2282,1872
2283,1846
2284,1833
2285,1827
2286,1855
2287,1861
2288,1859
2289,1858
2290,1868
2291,1872
2292,1866
2293,1873
2294,1867
2295,1888
2296,1862
2297,1865
2298,1873
2299,1840
2300,1855
2301,1847
2302,1858
2303,1855
2304,1843
2305,1842
2306,1847
2307,1845
2308,1866
2309,1856
2310,1862
2311,1872
2312,1851
2313,1855
2314,1853
2315,1856
2316,1850
2317,1840
2318,1840
2319,1847
2320,1847
2321,1863
2322,1866
2323,1859
2324,1842
2325,1872
2326,1881
2327,1872
2328,1867
2329,1869
2330,1859
2331,1844
2332,1853
2333,1863
2334,1852
2335,1858
2336,1872
2337,1850
2338,1867
2339,1855
2340,1838
2341,1850
2342,1855
2343,1871
2344,1862
2345,1877
2346,1867
2347,1859
2348,1850
2349,1858
2350,1842
2351,1842
2352,1854
2353,1862
2354,1854
2355,1869
2356,1855
2357,1878
2358,1882
2359,1866
2360,1861
2361,1882
2362,1855
2363,1871
2364,1867
2365,1847
2366,1856
2367,1850
2368,1853
2369,1862
2370,1862
2371,1870
2372,1862
2373,1858
2374,1872
2375,1872
2376,1862
2377,1860
2378,1881
2379,1887
2380,1867
2381,1857
2382,1837
2383,1847
2384,1847
2385,1828
2386,1840
2387,1843
2388,1850
2389,1887
2390,1872
2391,1872
2392,1884
2393,1875
2394,1872
2395,1831
2396,1850
2397,1859
2398,1837
2399,1872
2400,1853
2401,1851
2402,1851
2403,1856
2404,1872
2405,1872
2406,1855
2407,1873
2408,1871
2409,1863
2410,1872
2411,1871
2412,1884
2413,1857
2414,1843
2415,1883
2416,1873
2417,1841
2418,1850
2419,1856
2420,1872
2421,1863
2422,1855
2423,1861
2424,1877
2425,1857
2426,1861
2427,1872
2428,1853
2429,1847
2430,1845
2431,1874
2432,1863
2433,1851
2434,1840
2435,1843
2436,1856
2437,1875
2438,1857
2439,1871
2440,1863
2441,1875
2442,1872
2443,1874
2444,1878
2445,1867
2446,1856
2447,1867
2448,1857
2449,1873
2450,1843
2451,1847
2452,1856
2453,1853
2454,1864
2455,1855
2456,1857
2457,1858
2458,1871
2459,1872
2460,1886
2461,1885
2462,1875
2463,1869
2464,1861
2465,1827
2466,1853
2467,1831
2468,1840
2469,1856
2470,1855
2471,1855
2472,1857
2473,1873
2474,1881
2475,1875
2476,1872
2477,1875
2478,1877
2479,1870
2480,1872
2481,1861
2482,1849
2483,1851
2484,1839
2485,1830
2486,1840
2487,1842
2488,1849
2489,1863
2490,1872
2491,1885
2492,1873
2493,1869
2494,1877
2495,1868
2496,1871
2497,1854
2498,1854
2499,1858
2500,1856
2501,1850
2502,1853
2503,1856
2504,1862
2505,1856
2506,1870
2507,1869
2508,1869
2509,1874
2510,1866
2511,1873
2512,1857
2513,1853
2514,1865
2515,1847
2516,1840
2517,1841
2518,1839
2519,1842
2520,1837
2521,1861
2522,1856
2523,1872
2524,1872
2525,1869
2526,1871
2527,1884
2528,1875
2529,1862
2530,1856
2531,1861
2532,1851
2533,1853
2534,1859
2535,1859
2536,1853
2537,1850
2538,1855
2539,1875
2540,1867
2541,1872
2542,1872
2543,1859
2544,1866
2545,1858
2546,1864
2547,1852
2548,1855
2549,1856
2550,1841
2551,1852
2552,1861
2553,1858
2554,1862
2555,1855
2556,1866
2557,1870
2558,1858
2559,1870
2560,1873
2561,1873
2562,1875
2563,1850
2564,1868
2565,1852
2566,1855
2567,1852
2568,1847
2569,1856
2570,1840
2571,1872
2572,1887
2573,1866
2574,1870
2575,1861
2576,1861
2577,1847
2578,1862
2579,1867
2580,1858
2581,1872
2582,1857
2583,1856
2584,1865
2585,1861
2586,1859
2587,1863
2588,1856
2589,1871
2590,1857
2591,1867
2592,1872
2593,1874
2594,1880
2595,1861
2596,1859
2597,1853
2598,1856
2599,1873
2600,1854
2601,1854
2602,1843
2603,1865
2604,1863
2605,1851
2606,1857
2607,1863
2608,1872
2609,1866
2610,1869
2611,1863
2612,1867
2613,1871
2614,1859
2615,1855
2616,1847
2617,1840
2618,1841
2619,1856
2620,1877
2621,1876
2622,1863
2623,1856
2624,1869
2625,1871
2626,1871
2627,1875
2628,1855
2629,1864
2630,1845
2631,1845
2632,1847
2633,1840
2634,1837
2635,1850
2636,1854
2637,1853
2638,1851
2639,1867
2640,1855
2641,1865
2642,1877
2643,1856
2644,1861
2645,1854
2646,1861
2647,1867
2648,1855
2649,1840
2650,1850
2651,1853
2652,1872
2653,1851
2654,1871
2655,1865
2656,1872
2657,1859
2658,1862
2659,1858
2660,1862
2661,1880
2662,1869
2663,1865
2664,1856
2665,1866
2666,1861
2667,1851
2668,1847
2669,1852
2670,1855
2671,1860
2672,1872
2673,1872
2674,1860
2675,1868
2676,1865
2677,1869
2678,1856
2679,1860
2680,1869
2681,1870
2682,1870
2683,1857
2684,1847
2685,1856
2686,1865
2687,1858
2688,1871
2689,1862
2690,1826
2691,1856
2692,1870
2693,1872
2694,1871
2695,1878
2696,1855
2697,1865
2698,1873
2699,1850
2700,1851
2701,1851
2702,1872
2703,1870
2704,1871
2705,1858
2706,1858
2707,1866
2708,1878
2709,1870
2710,1861
2711,1872
2712,1872
2713,1846
2714,1856
2715,1827
2716,1845
2717,1841
2718,1861
2719,1854
2720,1856
2721,1866
2722,1871
2723,1893
2724,1874
2725,1867
2726,1870
2727,1868
2728,1858
2729,1858
2730,1858
2731,1857
2732,1856
2733,1857
2734,1848
2735,1858
2736,1853
2737,1861
2738,1855
2739,1872
2740,1875
2741,1873
2742,1862
2743,1853
2744,1863
2745,1878
2746,1858
2747,1860
2748,1854
2749,1877
2750,1856
2751,1856
2752,1862
2753,1851
2754,1873
2755,1855
2756,1843
2757,1857
2758,1856
2759,1853
2760,1858
2761,1873
2762,1875
2763,1855
2764,1871
2765,1847
2766,1841
2767,1851
2768,1847
2769,1853
2770,1840
2771,1863
2772,1870
2773,1883
2774,1871
2775,1873
2776,1869
2777,1872
2778,1856
2779,1859
2780,1853
2781,1866
2782,1844
2783,1853
2784,1857
2785,1842
2786,1855
2787,1870
2788,1861
2789,1878
2790,1859
2791,1881
2792,1869
2793,1881
2794,1878
2795,1871
2796,1860
2797,1854
2798,1866
2799,1856
2800,1855
2801,1842
2802,1844
2803,1862
2804,1861
2805,1854
2806,1845
2807,1869
2808,1871
2809,1870
2810,1859
2811,1874
2812,1861
2813,1856
2814,1846
2815,1869
2816,1850
2817,1843
2818,1840
2819,1840
2820,1850
2821,1869
2822,1866
2823,1883
2824,1859
2825,1871
2826,1867
2827,1875
2828,1839
2829,1872
2830,1862
2831,1846
2832,1845
2833,1870
2834,1846
2835,1857
2836,1853
2837,1856
2838,1858
2839,1863
2840,1859
2841,1872
2842,1872
2843,1862
2844,1870
2845,1871
2846,1861
2847,1845
2848,1840
2849,1853
2850,1853
2851,1855
2852,1852
2853,1877
2854,1871
2855,1874
2856,1874
2857,1866
2858,1857
2859,1828
2860,1846
2861,1871
2862,1867
2863,1853
2864,1857
2865,1855
2866,1848
2867,1854
2868,1843
2869,1856
2870,1851
2871,1859
2872,1866
2873,1869
2874,1877
2875,1871
2876,1860
2877,1873
2878,1869
2879,1865
2880,1847
2881,1854
2882,1849
2883,1853
2884,1846
2885,1855
2886,1853
2887,1854
2888,1855
2889,1863
2890,1889
2891,1878
2892,1889
2893,1877
2894,1879
2895,1863
2896,1840
2897,1846
2898,1875
2899,1863
2900,1849
2901,1856
2902,1861
2903,1861
2904,1869
2905,1840
2906,1857
2907,1856
2908,1867
2909,1857
2910,1863
2911,1873
2912,1901
2913,1881
2914,1882
2915,1893
2916,1885
2917,1851
2918,1827
2919,1822
2920,1835
2921,1840
2922,1853
2923,1858
2924,1845
2925,1865
2926,1856
2927,1870
2928,1872
2929,1875
2930,1865
2931,1851
2932,1871
2933,1867
2934,1850
2935,1814
2936,1842
2937,1850
2938,1855
2939,1853
2940,1874
2941,1857
2942,1870
2943,1866
2944,1878
2945,1874
2946,1855
2947,1841
2948,1855
2949,1861
2950,1854
2951,1854
2952,1845
2953,1854
2954,1846
2955,1845
2956,1843
2957,1845
2958,1867
2959,1872
2960,1878
2961,1886
2962,1872
2963,1881
2964,1865
2965,1857
2966,1840
2967,1841
2968,1837
2969,1851
2970,1857
2971,1863
2972,1860
2973,1869
2974,1865
2975,1872
2976,1863
2977,1854
2978,1869
2979,1867
2980,1871
2981,1857
2982,1853
2983,1851
2984,1835
2985,1840
2986,1859
2987,1873
2988,1879
2989,1873
2990,1867
2991,1890
2992,1871
2993,1863
2994,1856
2995,1857
2996,1851
2997,1840
2998,1807
2999,1835
3000,1845
3001,1847
3002,1855
3003,1853
3004,1858
3005,1858
3006,1863
3007,1889
3008,1882
3009,1854
3010,1865
3011,1874
3012,1885
3013,1855
3014,1858
3015,1846
3016,1872
3017,1840
3018,1850
3019,1861
3020,1857
3021,1856
3022,1840
3023,1872
3024,1856
3025,1869
3026,1872
3027,1871
3028,1889
3029,1866
3030,1841
3031,1855
3032,1851
3033,1842
3034,1838
3035,1841
3036,1857
3037,1845
3038,1867
3039,1860
3040,1856
3041,1846
3042,1856
3043,1872
3044,1873
3045,1859
3046,1861
3047,1846
3048,1872
3049,1856
3050,1844
3051,1843
3052,1859
3053,1857
3054,1861
3055,1861
3056,1858
3057,1863
3058,1872
3059,1856
3060,1868
3061,1872
3062,1859
3063,1858
3064,1850
3065,1847
3066,1853
3067,1858
3068,1872
3069,1869
3070,1843
3071,1856
3072,1863
3073,1878
3074,1865
3075,1872
3076,1865
3077,1883
3078,1873
3079,1866
3080,1851
3081,1859
3082,1845
3083,1857
3084,1840
3085,1838
3086,1856
3087,1873
3088,1867
3089,2559
3090,1742
3091,1726
3092,1738
3093,1760
3094,1922
3095,1989
3096,1947
3097,1937
3098,1921
3099,1830
3100,1761
3101,1745
3102,1745
3103,1776
3104,1783
3105,1798
3106,1809
3107,1892
3108,1967
3109,1984
3110,2000
3111,2014
3112,1975
3113,1883
3114,1823
3115,1776
3116,1791
3117,1805
3118,1813
3119,1829
3120,2663
3121,1735
3122,1713
3123,1731
3124,1773
3125,1973
3126,2015
3127,2005
3128,1975
3129,1875
3130,1729
3131,1723
3132,1715
3133,1755
3134,1778
3135,1776
3136,1794
3137,1810
3138,1811
3139,1943
3140,2002
3141,1985
3142,1946
3143,1892
3144,1849
3145,1805
3146,1815
3147,1813
3148,1850
3149,1847
3150,1840
3151,2446
3152,1786
3153,1728
3154,1749
3155,1771
3156,2107
3157,2177
3158,2117
3159,2033
3160,1831
3161,1655
3162,1671
3163,1712
3164,1725
3165,1733
3166,1767
3167,1776
3168,1799
3169,1796
3170,1814
3171,1824
3172,1985
3173,1968
3174,1925
3175,1845
3176,1845
3177,1846
3178,1858
3179,1855
3180,1855
3181,1849
3182,2015
3183,1811
3184,1757
3185,1766
3186,1775
3187,2163
3188,2254
3189,2174
3190,2043
3191,1685
3192,1638
3193,1670
3194,1706
3195,1744
3196,1745
3197,1750
3198,1797
3199,1786
3200,1803
3201,1809
3202,1808
3203,1859
3204,1951
3205,1933
3206,1877
3207,1844
3208,1837
3209,1843
3210,1872
3211,1884
3212,1886
3213,1859
3214,1839
3215,1753
3216,1762
3217,1771
3218,2185
3219,2271
3220,2207
3221,1956
3222,1648
3223,1635
3224,1680
3225,1705
3226,1729
3227,1762
3228,1762
3229,1779
3230,1789
3231,1803
3232,1801
3233,1838
3234,1949
3235,1904
3236,1871
3237,1840
3238,1829
3239,1837
3240,1841
3241,1883
3242,1886
3243,1879
3244,1899
3245,1876
3246,1746
3247,1751
3248,1776
3249,2178
3250,2280
3251,2192
3252,1955
3253,1618
3254,1645
3255,1680
3256,1705
3257,1713
3258,1744
3259,1770
3260,1779
3261,1795
3262,1789
3263,1819
3264,1881
3265,1938
3266,1915
3267,1841
3268,1808
3269,1828
3270,1855
3271,1872
3272,1872
3273,1872
3274,1885
3275,1885
3276,1937
3277,1733
3278,1757
3279,1773
3280,2087
3281,2175
3282,2106
3283,1935
3284,1680
3285,1691
3286,1710
3287,1731
3288,1747
3289,1764
3290,1797
3291,1790
3292,1803
3293,1813
3294,1864
3295,2005
3296,2007
3297,1904
3298,1846
3299,1808
3300,1810
3301,1822
3302,1823
3303,1851
3304,1859
3305,1865
3306,1862
3307,2017
3308,1746
3309,1760
3310,1767
3311,1995
3312,2171
3313,2086
3314,1919
3315,1692
3316,1706
3317,1722
3318,1759
3319,1756
3320,1790
3321,1782
3322,1802
3323,1808
3324,1793
3325,1889
3326,1998
3327,2001
3328,1943
3329,1872
3330,1843
3331,1807
3332,1831
3333,1840
3334,1828
3335,1852
3336,1865
3337,1847
3338,2099
3339,1740
3340,1754
3341,1768
3342,1887
3343,2094
3344,2071
3345,1963
3346,1735
3347,1728
3348,1745
3349,1744
3350,1767
3351,1785
3352,1791
3353,1803
3354,1819
3355,1836
3356,1938
3357,2009
3358,1996
3359,1919
3360,1850
3361,1844
3362,1831
3363,1852
3364,1850
3365,1842
3366,1842
3367,1833
3368,1839
3369,2233
3370,1774
3371,1773
3372,1778
3373,1934
3374,2224
3375,2199
3376,2018
3377,1695
3378,1695
3379,1710
3380,1723
3381,1755
3382,1726
3383,1767
3384,1797
3385,1806
3386,1824
3387,1825
3388,1856
3389,1999
3390,1953
3391,1897
3392,1853
3393,1831
3394,1829
3395,1837
3396,1846
3397,1840
3398,1861
3399,1855
3400,2336
3401,1765
3402,1746
3403,1777
3404,1791
3405,1949
3406,2029
3407,2013
3408,1808
3409,1744
3410,1776
3411,1771
3412,1779
3413,1792
3414,1810
3415,1835
3416,1828
3417,1925
3418,1961
3419,1962
3420,1939
3421,1883
3422,1856
3423,1847
3424,1814
3425,1843
3426,1861
3427,1854
3428,1865
3429,1871
3430,1861
3431,2734
3432,1766
3433,1731
3434,1751
3435,1776
3436,1840
3437,1970
3438,1988
3439,1887
3440,1760
3441,1759
3442,1775
3443,1793
3444,1808
3445,1824
3446,1829
3447,1866
3448,1937
3449,1959
3450,1955
3451,1936
3452,1872
3453,1847
3454,1838
3455,1840
3456,1861
3457,1869
3458,1828
3459,1840
3460,1845
3461,1879
3462,2805
3463,1775
3464,1738
3465,1756
3466,1779
3467,1894
3468,1979
3469,2004
3470,1851
3471,1758
3472,1767
3473,1787
3474,1779
3475,1805
3476,1811
3477,1812
3478,1855
3479,1968
3480,1991
3481,1987
3482,1959
3483,1873
3484,1819
3485,1790
3486,1792
3487,1850
3488,1842
3489,1846
3490,1845
3491,1858
3492,1855
3493,2207
3494,1797
3495,1742
3496,1749
3497,1782
3498,1869
3499,1988
3500,2031
3501,1872
3502,1769
3503,1751
3504,1768
3505,1776
3506,1792
3507,1805
3508,1815
3509,1851
3510,1933
3511,1979
3512,2000
3513,1978
3514,1878
3515,1805
3516,1807
3517,1793
3518,1809
3519,1826
3520,1827
3521,1871
3522,1872
3523,1863
3524,2042
3525,1792
3526,1729
3527,1754
3528,1781
3529,1887
3530,1971
3531,2023
3532,1862
3533,1743
3534,1753
3535,1763
3536,1791
3537,1798
3538,1808
3539,1808
3540,1824
3541,1911
3542,1997
3543,2004
3544,1968
3545,1903
3546,1835
3547,1823
3548,1786
3549,1840
3550,1839
3551,1845
3552,1842
3553,1859
3554,1867
3555,1867
3556,1861
3557,1744
3558,1743
3559,1761
3560,1863
3561,1984
3562,2035
3563,1932
3564,1761
3565,1762
3566,1776
3567,1776
3568,1794
3569,1795
3570,1834
3571,1890
3572,1927
3573,1966
3574,1978
3575,1939
3576,1904
3577,1863
3578,1833
3579,1815
3580,1830
3581,1856
3582,1838
3583,1839
3584,1839
3585,1838
3586,1855
3587,1906
3588,1747
3589,1744
3590,1775
3591,1840
3592,1981
3593,2057
3594,1954
3595,1753
3596,1751
3597,1775
3598,1767
3599,1794
3600,1797
3601,1808
3602,1835
3603,1890
3604,1967
3605,1990
3606,1986
3607,1932
3608,1856
3609,1836
3610,1830
3611,1840
3612,1855
3613,1856
3614,1856
3615,1842
3616,1856
3617,1843
3618,1965
3619,1727
3620,1735
3621,1771
3622,1801
3623,1949
3624,2041
3625,1968
3626,1766
3627,1747
3628,1765
3629,1765
3630,1785
3631,1808
3632,1841
3633,1872
3634,1907
3635,1941
3636,1968
3637,1946
3638,1883
3639,1852
3640,1827
3641,1830
3642,1825
3643,1838
3644,1857
3645,1866
3646,1856
3647,1851
3648,1869
3649,2065
3650,1737
3651,1744
3652,1773
3653,1777
3654,1909
3655,2018
3656,1984
3657,1767
3658,1747
3659,1771
3660,1794
3661,1797
3662,1799
3663,1802
3664,1872
3665,1957
3666,1967
3667,1953
3668,1947
3669,1917
3670,1859
3671,1833
3672,1834
3673,1827
3674,1862
3675,1869
3676,1872
3677,1882
3678,1855
3679,1840
3680,2172
3681,1742
3682,1728
3683,1750
3684,1800
3685,1968
3686,2054
3687,1970
3688,1760
3689,1726
3690,1751
3691,1765
3692,1787
3693,1791
3694,1808
3695,1868
3696,1938
3697,1978
3698,1983
3699,1978
3700,1909
3701,1830
3702,1789
3703,1783
3704,1823
3705,1845
3706,1840
3707,1855
3708,1861
3709,1856
3710,1867
3711,1872
3712,1874
3713,1867
3714,1869
3715,1863
3716,1840
3717,1835
3718,1835
3719,1851
3720,1872
3721,1870
3722,1889
3723,1894
3724,1890
3725,1876
3726,1888
3727,1893
3728,1875
3729,1870
3730,1869
3731,1841
3732,1853
3733,1842
3734,1818
3735,1822
3736,1833
3737,1851
3738,1868
3739,1871
3740,1890
3741,1885
3742,1871
3743,1875
3744,1872
3745,1869
3746,1872
3747,1867
3748,1846
3749,1861
3750,1856
3751,1857
3752,1873
3753,1871
3754,1865
3755,1867
3756,1857
3757,1850
3758,1873
3759,1872
3760,1872
3761,1872
3762,1859
3763,1862
3764,1852
3765,1843
3766,1861
3767,1840
3768,1834
3769,1851
3770,1883
3771,1863
3772,1873
3773,1880
3774,1885
3775,1871
3776,1863
3777,1881
3778,1869
3779,1866
3780,1863
3781,1875
3782,1854
3783,1844
3784,1846
3785,1854
3786,1861
3787,1855
3788,1870
3789,1869
3790,1876
3791,1875
3792,1872
3793,1887
3794,1887
3795,1883
3796,1882
3797,1899
3798,1874
3799,1862
3800,1840
3801,1803
3802,1808
3803,1828
3804,1865
3805,1869
3806,1884
3807,1867
3808,1872
3809,1872
3810,1872
3811,1858
3812,1869
3813,1878
3814,1856
3815,1840
3816,1843
3817,1826
3818,1817
3819,1839
3820,1869
3821,1850
3822,1854
3823,1872
3824,1875
3825,1871
3826,1858
3827,1855
3828,1842
3829,1857
3830,1869
3831,1857
3832,1871
3833,1869
3834,1861
3835,1868
3836,1857
3837,1808
3838,1836
3839,1843
3840,1850
3841,1875
3842,1872
3843,1863
3844,1870
3845,1862
3846,1861
3847,1850
3848,1855
3849,1847
3850,1854
3851,1845
3852,1843
3853,1849
3854,1870
3855,1872
3856,1863
3857,1863
3858,1868
3859,1871
3860,1868
3861,1863
3862,1872
3863,1871
3864,1853
3865,1840
3866,1850
3867,1829
3868,1831
3869,1862
3870,1862
3871,1872
3872,1877
3873,1885
3874,1862
3875,1872
3876,1877
3877,1911
3878,1899
3879,1901
3880,1881
3881,1837
3882,1840
3883,1820
3884,1827
3885,1823
3886,1840
3887,1857
3888,1872
3889,1875
3890,1872
3891,1895
3892,1877
3893,1878
3894,1885
3895,1877
3896,1861
3897,1869
3898,1847
3899,1846
3900,1823
3901,1829
3902,1857
3903,1857
3904,1856
3905,1858
3906,1856
3907,1872
3908,1873
3909,1871
3910,1872
3911,1869
3912,1872
3913,1862
3914,1862
3915,1839
3916,1851
3917,1861
3918,1872
3919,1853
3920,1842
3921,1840
3922,1825
3923,1847
3924,1865
3925,1854
3926,1878
3927,1904
3928,1861
3929,1843
3930,1841
3931,1842
3932,1842
3933,1843
3934,1840
3935,1839
3936,1840
3937,1865
3938,1851
3939,1871
3940,1859
3941,1875
3942,1863
3943,1866
3944,1863
3945,1883
3946,1872
3947,1863
3948,1865
3949,1878
3950,1856
3951,1827
3952,1805
3953,1834
3954,1861
3955,1872
3956,1872
3957,1861
3958,1878
3959,1872
3960,1861
3961,1851
3962,1850
3963,1860
3964,1851
3965,1881
3966,1856
3967,1851
3968,1840
3969,1847
3970,1861
3971,1849
3972,1855
3973,1873
3974,1889
3975,1878
3976,1879
3977,1871
3978,1892
3979,1853
3980,1843
3981,1841
3982,1861
3983,1846
3984,1846
3985,1838
3986,1872
3987,1879
3988,1886
3989,1882
3990,1890
3991,1859
3992,1857
3993,1840
3994,1856
3995,1872
3996,1862
3997,1861
3998,1842
3999,1857
4000,1840
4001,1839
4002,1841
4003,1869
4004,1873
4005,1870
4006,1865
4007,1883
4008,1881
4009,1873
4010,1840
4011,1834
4012,1855
4013,1885
4014,1883
4015,1871
4016,1855
4017,1835
4018,1831
4019,1835
4020,1856
4021,1869
4022,1856
4023,1866
4024,1872
4025,1869
4026,1871
4027,1875
4028,1883
4029,1872
4030,1867
4031,1857
4032,1833
4033,1846
4034,1850
4035,1856
4036,1845
4037,1856
4038,1851
4039,1869
4040,1866
4041,1891
4042,1887
4043,1872
4044,1889
4045,1880
4046,1841
4047,1829
4048,1831
4049,1855
4050,1842
4051,1834
4052,1865
4053,1829
4054,1856
4055,1853
4056,1856
4057,1879
4058,1879
4059,1874
4060,1869
4061,1872
4062,1872
4063,1846
4064,1845
4065,1859
4066,1855
4067,1847
4068,1856
4069,1867
4070,1894
4071,1875
4072,1884
4073,1895
4074,1873
4075,1840
4076,1840
4077,1835
4078,1872
4079,1862
4080,1854
4081,1847
4082,1854
4083,1840
4084,1823
4085,1834
4086,1842
4087,1881
4088,1873
4089,1867
4090,1863
4091,1873
4092,1867
4093,1887
4094,1886
4095,1875
4096,1884
4097,1872
4098,1872
4099,1840
4100,1815
4101,1815
4102,1824
4103,1830
4104,1861
4105,1872
4106,1874
4107,1889
4108,1877
4109,1879
4110,1872
4111,1872
4112,1873
4113,1859
4114,1883
4115,1859
4116,1869
4117,1851
4118,1821
4119,1839
4120,1835
4121,1855
4122,1879
4123,1866
4124,1889
4125,1868
4126,1867
4127,1869
4128,1874
4129,1871
4130,1843
4131,1842
4132,1877
4133,1850
4134,1846
4135,1847
4136,1846
4137,1863
4138,1853
4139,1858
4140,1862
4141,1872
4142,1866
4143,1872
4144,1882
4145,1897
4146,1883
4147,1872
4148,1872
4149,1843
4150,1851
4151,1841
4152,1815
4153,1840
4154,1853
4155,1863
4156,1871
4157,1872
4158,1877
4159,1867
4160,1871
4161,1863
4162,1872
4163,1859
4164,1871
4165,1857
4166,1855
4167,1840
4168,1829
4169,1826
4170,1830
4171,1855
4172,1881
4173,1876
4174,1893
4175,1883
4176,1879
4177,1891
4178,1882
4179,1870
4180,1856
4181,1861
4182,1833
4183,1837
4184,1838
4185,1863
4186,1862
4187,1856
4188,1854
4189,1862
4190,1860
4191,1875
4192,1866
4193,1863
4194,1879
4195,1860
4196,1863
4197,1863
4198,1855
4199,1858
4200,1853
4201,1847
4202,1850
4203,1835
4204,1853
4205,1857
4206,1858
4207,1872
4208,1872
4209,1875
4210,1872
4211,1881
4212,1877
4213,1846
4214,1859
4215,1840
4216,1840
4217,1845
4218,1840
4219,1856
4220,1855
4221,1876
4222,1885
4223,1895
4224,1891
4225,1843
4226,1808
4227,1850
4228,1842
4229,1862
4230,1867
4231,1877
4232,1872
4233,1845
4234,1837
4235,1824
4236,1838
4237,1851
4238,1873
4239,1855
4240,1875
4241,1872
4242,1879
4243,1873
4244,1875
4245,1869
4246,1862
4247,1872
4248,1865
4249,1858
4250,1849
4251,1855
4252,1849
4253,1861
4254,1892
4255,1883
4256,1873
4257,1856
4258,1854
4259,1851
4260,1875
4261,1866
4262,1868
4263,1839
4264,1846
4265,1846
4266,1851
4267,1843
4268,1838
4269,1842
4270,1872
4271,1853
4272,1856
4273,1861
4274,1879
4275,1878
4276,1872
4277,1872
4278,1893
4279,1865
4280,1869
4281,1856
4282,1830
4283,1842
4284,1846
4285,1854
4286,1840
4287,1852
4288,1867
4289,1872
4290,1841
4291,1873
4292,1882
4293,1872
4294,1885
4295,1875
4296,1865
4297,1863
4298,1856
4299,1856
4300,1840
4301,1841
4302,1861
4303,1853
4304,1877
4305,1870
4306,1867
4307,1897
4308,1883
4309,1875
4310,1851
4311,1844
4312,1856
4313,1853
4314,1866
4315,1870
4316,1851
4317,1851
4318,1856
4319,1844
4320,1853
4321,1839
4322,1860
4323,1872
4324,1876
4325,1875
4326,1873
4327,1883
4328,1895
4329,1853
4330,1852
4331,1856
4332,1842
4333,1840
4334,1840
4335,1839
4336,1859
4337,1872
4338,1862
4339,1867
4340,1866
4341,1876
4342,1874
4343,1872
4344,1866
4345,1842
4346,1854
4347,1849
4348,1841
4349,1862
4350,1851
4351,1854
4352,1864
4353,1853
4354,1847
4355,1854
4356,1863
4357,1866
4358,1856
4359,1853
4360,1873
4361,1872
4362,1875
4363,1870
4364,1851
4365,1875
4366,1858
4367,1853
4368,1857
4369,1859
4370,1853
4371,1851
4372,1855
4373,1882
4374,1891
4375,1889
4376,1871
4377,1873
4378,1853
4379,1864
4380,1825
4381,1824
4382,1847
4383,1849
4384,1845
4385,1849
4386,1857
4387,1865
4388,1869
4389,1885
4390,1892
4391,1885
4392,1890
4393,1872
4394,1872
4395,1873
4396,1847
4397,1847
4398,1860
4399,1855
4400,1858
4401,1855
4402,1853
4403,1851
4404,1853
4405,1859
4406,1853
4407,1855
4408,1861
4409,1866
4410,1872
4411,1875
4412,1872
4413,1857
4414,1861
4415,1850
4416,1856
4417,1856
4418,1847
4419,1850
4420,1862
4421,1865
4422,1857
4423,1872
4424,1872
4425,1873
4426,1872
4427,1873
4428,1875
4429,1871
4430,1863
4431,1862
4432,1844
4433,1852
4434,1851
4435,1828
4436,1823
4437,1854
4438,1859
4439,1857
4440,1855
4441,1872
4442,1872
4443,1868
4444,1879
4445,1888
4446,1872
4447,1867
4448,1871
4449,1840
4450,1837
4451,1842
4452,1845
4453,1855
4454,1872
4455,1869
4456,1875
4457,1862
4458,1856
4459,1868
4460,1871
4461,1903
4462,1894
4463,1864
4464,1860
4465,1850
4466,1839
4467,1817
4468,1806
4469,1825
4470,1855
4471,1867
4472,1858
4473,1862
4474,1891
4475,1885
4476,1875
4477,1878
4478,1867
4479,1849
4480,1857
4481,1856
4482,1835
4483,1845
4484,1847
4485,1840
4486,1847
4487,1871
4488,1860
4489,1867
4490,1877
4491,1891
4492,1877
4493,1869
4494,1877
4495,1871
4496,1853
4497,1853
4498,1841
4499,1840
4500,1841
4501,1847
4502,1857
4503,1847
4504,1859
4505,1875
4506,1840
4507,1846
4508,1866
4509,1872
4510,1877
4511,1897
4512,1886
4513,1873
4514,1857
4515,1855
4516,1840
4517,1840
4518,1852
4519,1850
4520,1875
4521,1867
4522,1872
4523,1854
4524,1868
4525,1858
4526,1870
4527,1883
4528,1913
4529,1897
4530,1898
4531,1902
4532,1858
4533,1794
4534,1789
4535,1825
4536,1823
4537,1840
4538,1866
4539,1870
4540,1880
4541,1879
4542,1886
4543,1856
4544,1865
4545,1851
4546,1853
4547,1847
4548,1849
4549,1847
4550,1852
4551,1843
4552,1847
4553,1846
4554,1867
4555,1850
4556,1871
4557,1895
4558,1879
4559,1867
4560,1859
4561,1901
4562,1867
4563,1850
4564,1841
4565,1872
4566,1849
4567,1840
4568,1840
4569,1846
4570,1856
4571,1855
4572,1869
4573,1872
4574,1869
4575,1884
4576,1872
4577,1878
4578,1881
4579,1875
4580,1861
4581,1845
4582,1868
4583,1842
4584,1843
4585,1829
4586,1835
4587,1863
4588,1869
4589,1870
4590,1856
4591,1874
4592,1872
4593,1883
4594,1886
4595,1872
4596,1862
4597,1853
4598,1855
4599,1858
4600,1826
4601,1840
4602,1849
4603,1843
4604,1855
4605,1869
4606,1861
4607,1873
4608,1872
4609,1872
4610,1865
4611,1873
4612,1868
4613,1866
4614,1855
4615,1856
4616,1833
4617,1835
4618,1840
4619,1854
4620,1850
4621,1847
4622,1872
4623,1870
4624,1866
4625,1882
4626,1882
4627,1883
4628,1875
4629,1874
4630,1863
4631,1855
4632,1872
4633,1855
4634,1826
4635,1802
4636,1819
4637,1851
4638,1861
4639,1839
4640,1869
4641,1875
4642,1859
4643,1863
4644,1866
4645,1872
4646,1863
4647,1866
4648,1858
4649,1841
4650,1815
4651,1819
4652,1843
4653,1849
4654,1862
4655,1858
4656,1879
4657,1857
4658,1866
4659,1867
4660,1866
4661,1868
4662,1859
4663,1872
4664,1856
4665,1855
4666,1855
4667,1840
4668,1842
4669,1853
4670,1871
4671,1858
4672,1850
4673,1867
4674,1889
4675,1863
4676,1871
4677,1875
4678,1874
4679,1873
4680,1874
4681,1862
4682,1841
4683,1840
4684,1838
4685,1851
4686,1859
4687,1857
4688,1863
4689,1867
4690,1875
4691,1872
4692,1873
4693,1855
4694,1874
4695,1875
4696,1872
4697,1863
4698,1867
4699,1840
4700,1845
4701,1841
4702,1851
4703,1846
4704,1857
4705,1867
4706,1963
4707,1737
4708,1748
4709,1765
4710,1927
4711,2106
4712,2073
4713,2035
4714,1985
4715,1751
4716,1667
4717,1703
4718,1714
4719,1746
4720,1776
4721,1771
4722,1793
4723,1807
4724,1809
4725,1819
4726,1940
4727,2034
4728,2005
4729,1947
4730,1897
4731,1840
4732,1810
4733,1805
4734,1814
4735,1837
4736,1823
4737,2096
4738,1744
4739,1758
4740,1750
4741,1974
4742,2228
4743,2179
4744,2119
4745,1983
4746,1651
4747,1634
4748,1675
4749,1687
4750,1717
4751,1727
4752,1759
4753,1776
4754,1786
4755,1789
4756,1825
4757,1846
4758,1984
4759,1963
4760,1872
4761,1819
4762,1813
4763,1837
4764,1838
4765,1843
4766,1840
4767,1840
4768,2238
4769,1775
4770,1756
4771,1770
4772,1819
4773,2143
4774,2147
4775,2089
4776,1939
4777,1691
4778,1705
4779,1719
4780,1744
4781,1774
4782,1776
4783,1786
4784,1799
4785,1802
4786,1819
4787,1826
4788,1838
4789,1895
4790,1936
4791,1891
4792,1856
4793,1841
4794,1855
4795,1850
4796,1870
4797,1873
4798,1850
4799,2331
4800,1786
4801,1778
4802,1778
4803,1818
4804,2038
4805,2065
4806,2035
4807,1885
4808,1728
4809,1738
4810,1762
4811,1776
4812,1779
4813,1794
4814,1794
4815,1811
4816,1819
4817,1812
4818,1838
4819,1840
4820,1938
4821,1938
4822,1878
4823,1859
4824,1856
4825,1838
4826,1841
4827,1863
4828,1882
4829,1865
4830,2688
4831,1787
4832,1774
4833,1776
4834,1792
4835,2047
4836,2107
4837,2027
4838,1840
4839,1715
4840,1730
4841,1763
4842,1779
4843,1776
4844,1792
4845,1805
4846,1811
4847,1808
4848,1824
4849,1853
4850,1907
4851,1954
4852,1911
4853,1872
4854,1819
4855,1826
4856,1809
4857,1837
4858,1866
4859,1871
4860,1883
4861,2847
4862,1800
4863,1769
4864,1769
4865,1788
4866,1968
4867,2000
4868,1972
4869,1835
4870,1765
4871,1755
4872,1781
4873,1789
4874,1808
4875,1807
4876,1820
4877,1831
4878,1819
4879,1831
4880,1934
4881,1999
4882,1960
4883,1900
4884,1841
4885,1809
4886,1805
4887,1813
4888,1847
4889,1873
4890,1861
4891,1865
4892,2221
4893,1809
4894,1761
4895,1775
4896,1805
4897,2066
4898,2148
4899,2025
4900,1777
4901,1713
4902,1733
4903,1745
4904,1773
4905,1791
4906,1803
4907,1809
4908,1809
4909,1819
4910,1819
4911,1825
4912,1875
4913,1955
4914,1899
4915,1842
4916,1836
4917,1814
4918,1830
4919,1829
4920,1856
4921,1855
4922,1873
4923,1920
4924,1863
4925,1778
4926,1794
4927,1794
4928,1807
4929,1936
4930,1946
4931,1870
4932,1795
4933,1799
4934,1808
4935,1821
4936,1840
4937,1837
4938,1840
4939,1834
4940,1840
4941,1877
4942,1985
4943,1991
4944,1961
4945,1886
4946,1835
4947,1808
4948,1813
4949,1809
4950,1809
4951,1822
4952,1841
4953,1857
4954,1869
4955,1887
4956,1780
4957,1765
4958,1789
4959,1808
4960,1934
4961,1995
4962,1904
4963,1795
4964,1792
4965,1803
4966,1797
4967,1822
4968,1815
4969,1821
4970,1840
4971,1851
4972,1863
4973,1968
4974,1999
4975,1967
4976,1899
4977,1835
4978,1806
4979,1812
4980,1844
4981,1834
4982,1862
4983,1838
4984,1837
4985,1829
4986,1887
4987,1759
4988,1775
4989,1794
4990,1810
4991,1846
4992,1934
4993,1926
4994,1825
4995,1804
4996,1806
4997,1810
4998,1824
4999,1837
5000,1842
5001,1842
5002,1842
5003,1920
5004,1973
5005,1979
5006,1910
5007,1854
5008,1835
5009,1826
5010,1823
5011,1839
5012,1850
5013,1856
5014,1847
5015,1862
5016,1852
5017,1975
5018,1765
5019,1778
5020,1795
5021,1807
5022,1823
5023,1872
5024,1966
5025,1845
5026,1798
5027,1808
5028,1822
5029,1819
5030,1833
5031,1840
5032,1840
5033,1845
5034,1919
5035,1983
5036,1995
5037,1939
5038,1872
5039,1828
5040,1808
5041,1815
5042,1840
5043,1860
5044,1871
5045,1869
5046,1875
5047,1865
5048,2076
5049,1756
5050,1763
5051,1791
5052,1799
5053,1827
5054,1969
5055,1987
5056,1820
5057,1799
5058,1789
5059,1803
5060,1821
5061,1808
5062,1821
5063,1831
5064,1840
5065,1869
5066,1975
5067,1984
5068,1927
5069,1857
5070,1823
5071,1812
5072,1814
5073,1870
5074,1855
5075,1862
5076,1869
5077,1869
5078,1874
5079,2208
5080,1757
5081,1762
5082,1777
5083,1790
5084,1840
5085,1962
5086,2002
5087,1815
5088,1765
5089,1787
5090,1802
5091,1808
5092,1818
5093,1813
5094,1823
5095,1842
5096,1926
5097,1957
5098,1958
5099,1931
5100,1872
5101,1831
5102,1803
5103,1792
5104,1826
5105,1845
5106,1839
5107,1862
5108,1869
5109,1881
5110,2371
5111,1780
5112,1761
5113,1785
5114,1786
5115,1808
5116,1891
5117,1946
5118,1840
5119,1795
5120,1809
5121,1813
5122,1821
5123,1830
5124,1808
5125,1839
5126,1841
5127,1920
5128,1979
5129,1986
5130,1939
5131,1878
5132,1809
5133,1808
5134,1807
5135,1811
5136,1830
5137,1855
5138,1870
5139,1869
5140,1868
5141,2599
5142,1782
5143,1770
5144,1775
5145,1791
5146,1859
5147,1963
5148,1987
5149,1831
5150,1776
5151,1771
5152,1796
5153,1803
5154,1814
5155,1840
5156,1844
5157,1811
5158,1839
5159,1965
5160,2054
5161,2016
5162,1903
5163,1814
5164,1809
5165,1793
5166,1806
5167,1834
5168,1833
5169,1840
5170,1873
5171,1856
5172,2723
5173,1796
5174,1766
5175,1781
5176,1794
5177,1979
5178,2064
5179,2067
5180,1789
5181,1723
5182,1744
5183,1769
5184,1779
5185,1779
5186,1794
5187,1814
5188,1833
5189,1832
5190,1843
5191,1954
5192,1951
5193,1885
5194,1867
5195,1856
5196,1840
5197,1862
5198,1870
5199,1847
5200,1839
5201,1850
5202,1863
5203,2426
5204,1809
5205,1781
5206,1787
5207,1792
5208,1798
5209,1822
5210,1998
5211,1907
5212,1797
5213,1794
5214,1794
5215,1807
5216,1835
5217,1823
5218,1823
5219,1830
5220,1849
5221,1969
5222,1977
5223,1964
5224,1910
5225,1850
5226,1846
5227,1841
5228,1847
5229,1856
5230,1855
5231,1857
5232,1840
5233,1827
5234,1968
5235,1837
5236,1757
5237,1771
5238,1777
5239,1796
5240,1833
5241,2018
5242,1899
5243,1776
5244,1797
5245,1810
5246,1797
5247,1802
5248,1838
5249,1835
5250,1837
5251,1856
5252,1959
5253,1963
5254,1941
5255,1920
5256,1872
5257,1839
5258,1840
5259,1840
5260,1840
5261,1851
5262,1855
5263,1849
5264,1856
5265,1849
5266,1849
5267,1759
5268,1765
5269,1781
5270,1787
5271,1898
5272,2019
5273,1922
5274,1798
5275,1776
5276,1801
5277,1806
5278,1787
5279,1808
5280,1823
5281,1814
5282,1860
5283,1964
5284,1975
5285,1968
5286,1883
5287,1831
5288,1823
5289,1822
5290,1846
5291,1855
5292,1857
5293,1867
5294,1859
5295,1879
5296,1869
5297,1904
5298,1747
5299,1759
5300,1777
5301,1799
5302,1849
5303,2000
5304,1923
5305,1791
5306,1802
5307,1814
5308,1807
5309,1810
5310,1814
5311,1815
5312,1847
5313,1904
5314,1967
5315,1968
5316,1959
5317,1914
5318,1822
5319,1797
5320,1802
5321,1854
5322,1858
5323,1847
5324,1853
5325,1857
5326,1860
5327,1872
5328,1889
5329,1873
5330,1872
5331,1865
5332,1865
5333,1850
5334,1845
5335,1841
5336,1825
5337,1849
5338,1871
5339,1886
5340,1888
5341,1898
5342,1898
5343,1881
5344,1882
5345,1883
5346,1851
5347,1834
5348,1815
5349,1839
5350,1839
5351,1828
5352,1853
5353,1862
5354,1872
5355,1867
5356,1865
5357,1881
5358,1869
5359,1867
5360,1879
5361,1872
5362,1871
5363,1862
5364,1866
5365,1849
5366,1846
5367,1847
5368,1839
5369,1850
5370,1856
5371,1879
5372,1863
5373,1893
5374,1884
5375,1872
5376,1871
5377,1874
5378,1895
5379,1856
5380,1859
5381,1872
5382,1861
5383,1850
5384,1845
5385,1840
5386,1849
5387,1859
5388,1861
5389,1863
5390,1872
5391,1863
5392,1866
5393,1877
5394,1887
5395,1872
5396,1861
5397,1857
5398,1866
5399,1856
5400,1856
5401,1856
5402,1872
5403,1867
5404,1870
5405,1861
5406,1854
5407,1872
5408,1865
5409,1854
5410,1862
5411,1883
5412,1868
5413,1870
5414,1894
5415,1876
5416,1855
5417,1855
5418,1840
5419,1834
5420,1875
5421,1872
5422,1865
5423,1857
5424,1862
5425,1848
5426,1851
5427,1890
5428,1909
5429,1891
5430,1870
5431,1865
5432,1834
5433,1837
5434,1840
5435,1846
5436,1840
5437,1843
5438,1853
5439,1869
5440,1870
5441,1870
5442,1873
5443,1870
5444,1887
5445,1868
5446,1867
5447,1862
5448,1840
5449,1825
5450,1835
5451,1829
5452,1849
5453,1866
5454,1856
5455,1857
5456,1841
5457,1843
5458,1857
5459,1861
5460,1878
5461,1872
5462,1872
5463,1857
5464,1859
5465,1866
5466,1847
5467,1839
5468,1834
5469,1847
5470,1854
5471,1867
5472,1860
5473,1871
5474,1862
5475,1861
5476,1868
5477,1901
5478,1889
5479,1875
5480,1851
5481,1855
5482,1844
5483,1837
5484,1839
5485,1839
5486,1855
5487,1853
5488,1869
5489,1875
5490,1872
5491,1878
5492,1870
5493,1865
5494,1889
5495,1867
5496,1857
5497,1842
5498,1856
5499,1845
5500,1844
5501,1842
5502,1853
5503,1852
5504,1869
5505,1870
5506,1869
5507,1879
5508,1895
5509,1891
5510,1885
5511,1886
5512,1871
5513,1883
5514,1863
5515,1806
5516,1827
5517,1823
5518,1811
5519,1819
5520,1831
5521,1837
5522,1866
5523,1884
5524,1877
5525,1885
5526,1893
5527,1895
5528,1868
5529,1843
5530,1859
5531,1850
5532,1840
5533,1840
5534,1842
5535,1847
5536,1873
5537,1857
5538,1869
5539,1893
5540,1891
5541,1899
5542,1870
5543,1854
5544,1834
5545,1842
5546,1863
5547,1857
5548,1847
5549,1855
5550,1854
5551,1851
5552,1853
5553,1853
5554,1853
5555,1865
5556,1882
5557,1855
5558,1878
5559,1872
5560,1872
5561,1873
5562,1869
5563,1867
5564,1866
5565,1874
5566,1841
5567,1850
5568,1861
5569,1852
5570,1855
5571,1866
5572,1860
5573,1876
5574,1883
5575,1859
5576,1858
5577,1872
5578,1895
5579,1871
5580,1862
5581,1851
5582,1859
5583,1840
5584,1842
5585,1859
5586,1849
5587,1865
5588,1872
5589,1856
5590,1844
5591,1873
5592,1875
5593,1861
5594,1863
5595,1842
5596,1858
5597,1869
5598,1845
5599,1852
5600,1840
5601,1850
5602,1859
5603,1843
5604,1861
5605,1855
5606,1856
5607,1851
5608,1869
5609,1863
5610,1872
5611,1888
5612,1878
5613,1871
5614,1873
5615,1879
5616,1859
5617,1871
5618,1863
5619,1852
5620,1872
5621,1859
5622,1851
5623,1843
5624,1853
5625,1855
5626,1845
5627,1869
5628,1872
5629,1858
5630,1861
5631,1819
5632,1849
5633,1843
5634,1840
5635,1864
5636,1846
5637,1847
5638,1840
5639,1843
5640,1842
5641,1881
5642,1865
5643,1861
5644,1872
5645,1887
5646,1861
5647,1866
5648,1872
5649,1854
5650,1825
5651,1837
5652,1858
5653,1857
5654,1856
5655,1870
5656,1871
5657,1873
5658,1877
5659,1867
5660,1872
5661,1886
5662,1862
5663,1871
5664,1875
5665,1845
5666,1833
5667,1840
5668,1855
5669,1871
5670,1879
5671,1863
5672,1872
5673,1857
5674,1871
5675,1871
5676,1861
5677,1879
5678,1866
5679,1871
5680,1851
5681,1866
5682,1853
5683,1838
5684,1846
5685,1851
5686,1884
5687,1882
5688,1877
5689,1879
5690,1866
5691,1845
5692,1842
5693,1852
5694,1886
5695,1859
5696,1856
5697,1846
5698,1840
5699,1852
5700,1841
5701,1855
5702,1856
5703,1863
5704,1842
5705,1846
5706,1861
5707,1886
5708,1872
5709,1875
5710,1865
5711,1872
5712,1868
5713,1862
5714,1865
5715,1866
5716,1855
5717,1842
5718,1841
5719,1840
5720,1856
5721,1854
5722,1842
5723,1872
5724,1875
5725,1870
5726,1872
5727,1876
5728,1866
5729,1871
5730,1866
5731,1861
5732,1843
5733,1836
5734,1829
5735,1811
5736,1840
5737,1847
5738,1849
5739,1868
5740,1892
5741,1872
5742,1869
5743,1854
5744,1865
5745,1879
5746,1867
5747,1856
5748,1844
5749,1851
5750,1858
5751,1840
5752,1857
5753,1854
5754,1873
5755,1871
5756,1881
5757,1892
5758,1886
5759,1869
5760,1872
5761,1888
5762,1863
5763,1856
5764,1856
5765,1871
5766,1852
5767,1847
5768,1841
5769,1848
5770,1850
5771,1854
5772,1841
5773,1857
5774,1862
5775,1869
5776,1879
5777,1891
5778,1897
5779,1872
5780,1863
5781,1856
5782,1865
5783,1851
5784,1846
5785,1861
5786,1840
5787,1855
5788,1857
5789,1858
5790,1893
5791,1874
5792,1874
5793,1889
5794,1895
5795,1897
5796,1871
5797,1872
5798,1847
5799,1840
5800,1822
5801,1854
5802,1855
5803,1853
5804,1849
5805,1845
5806,1867
5807,1872
5808,1871
5809,1872
5810,1894
5811,1872
5812,1877
5813,1863
5814,1861
5815,1855
5816,1827
5817,1830
5818,1840
5819,1839
5820,1844
5821,1861
5822,1854
5823,1871
5824,1877
5825,1866
5826,1882
5827,1884
5828,1871
5829,1875
5830,1869
5831,1863
5832,1849
5833,1847
5834,1842
5835,1856
5836,1869
5837,1864
5838,1879
5839,1867
5840,1871
5841,1872
5842,1873
5843,1873
5844,1891
5845,1856
5846,1850
5847,1851
5848,1865
5849,1843
5850,1839
5851,1856
5852,1858
5853,1853
5854,1842
5855,1863
5856,1870
5857,1859
5858,1865
5859,1871
5860,1888
5861,1866
5862,1872
5863,1859
5864,1847
5865,1862
5866,1850
5867,1855
5868,1842
5869,1869
5870,1875
5871,1868
5872,1846
5873,1859
5874,1861
5875,1851
5876,1850
5877,1867
5878,1870
5879,1869
5880,1860
5881,1825
5882,1857
5883,1855
5884,1848
5885,1873
5886,1847
5887,1845
5888,1845
5889,1869
5890,1872
5891,1879
5892,1867
5893,1882
5894,1883
5895,1862
5896,1867
5897,1875
5898,1855
5899,1851
5900,1853
5901,1846
5902,1845
5903,1850
5904,1870
5905,1865
5906,1865
5907,1866
5908,1872
5909,1871
5910,1855
5911,1872
5912,1873
5913,1854
5914,1851
5915,1854
5916,1834
5917,1840
5918,1855
5919,1854
5920,1862
5921,1871
5922,1857
5923,1862
5924,1859
5925,1867
5926,1861
5927,1876
5928,1878
5929,1861
5930,1855
5931,1860
5932,1849
5933,1840
5934,1845
5935,1842
5936,1851
5937,1848
5938,1861
5939,1866
5940,1868
5941,1869
5942,1867
5943,1858
5944,1882
5945,1872
5946,1858
5947,1878
5948,1871
5949,1863
5950,1855
5951,1845
5952,1847
5953,1861
5954,1853
5955,1854
5956,1877
5957,1854
5958,1857
5959,1867
5960,1894
5961,1868
5962,1885
5963,1872
5964,1878
5965,1856
5966,1850
5967,1851
5968,1834
5969,1815
5970,1844
5971,1858
5972,1862
5973,1866
5974,1856
5975,1858
5976,1875
5977,1886
5978,1865
5979,1877
5980,1863
5981,1867
5982,1859
5983,1826
5984,1840
5985,1841
5986,1846
5987,1871
5988,1882
5989,1874
5990,1889
5991,1883
5992,1883
5993,1890
5994,1887
5995,1858
5996,1839
5997,1840
5998,1825
5999,1831
6000,1843
6001,1840
6002,1855
6003,1873
6004,1865
6005,1875
6006,1863
6007,1874
6008,1860
6009,1866
6010,1859
6011,1863
6012,1859
6013,1872
6014,1855
6015,1844
6016,1842
6017,1843
6018,1840
6019,1871
6020,1862
6021,1858
6022,1862
6023,1850
6024,1880
6025,1872
6026,1867
6027,1877
6028,1887
6029,1863
6030,1850
6031,1872
6032,1849
6033,1853
6034,1825
6035,1828
6036,1855
6037,1850
6038,1856
6039,1857
6040,1869
6041,1869
6042,1861
6043,1872
6044,1872
6045,1883
6046,1867
6047,1874
6048,1857
6049,1872
6050,1851
6051,1839
6052,1835
6053,1866
6054,1873
6055,1858
6056,1885
6057,1872
6058,1837
6059,1849
6060,1857
6061,1872
6062,1869
6063,1849
6064,1860
6065,1857
6066,1840
6067,1840
6068,1863
6069,1855
6070,1861
6071,1861
6072,1855
6073,1872
6074,1887
6075,1878
6076,1877
6077,1879
6078,1865
6079,1872
6080,1847
6081,1846
6082,1863
6083,1845
6084,1840
6085,1855
6086,1847
6087,1856
6088,1851
6089,1851
6090,1881
6091,1873
6092,1862
6093,1872
6094,1873
6095,1887
6096,1859
6097,1879
6098,1858
6099,1851
6100,1823
6101,1837
6102,1840
6103,1854
6104,1846
6105,1882
6106,1869
6107,1862
6108,1870
6109,1874
6110,1882
6111,1876
6112,1883
6113,1889
6114,1885
6115,1847
6116,1834
6117,1818
6118,1827
6119,1815
6120,1841
6121,1855
6122,1858
6123,1887
6124,1872
6125,1876
6126,1881
6127,1881
6128,1884
6129,1877
6130,1869
6131,1874
6132,1872
6133,1856
6134,1835
6135,1837
6136,1856
6137,1855
6138,1853
6139,1865
6140,1877
6141,1861
6142,1862
6143,1858
6144,1861
6145,1871
6146,1863
6147,1845
6148,1854
6149,1855
6150,1856
6151,1837
6152,1842
6153,1843
6154,1872
6155,1856
6156,1874
6157,1887
6158,1872
6159,1869
6160,1872
6161,1857
6162,1871
6163,1866
6164,1856
6165,1847
6166,1847
6167,1844
6168,1858
6169,1845
6170,1870
6171,1870
6172,1875
6173,1889
6174,1884
6175,1868
6176,1866
6177,1868
6178,1870
6179,1856
6180,1861
6181,1847
6182,1867
6183,1856
6184,1845
6185,1853
6186,1849
6187,1859
6188,1877
6189,1909
6190,1899
6191,1903
6192,1884
6193,1858
6194,1851
6195,1841
6196,1823
6197,1853
6198,1856
6199,1846
6200,1855
6201,1837
6202,1846
6203,1845
6204,1856
6205,1872
6206,1870
6207,1872
6208,1857
6209,1865
6210,1872
6211,1868
6212,1869
6213,1858
6214,1872
6215,1830
6216,1855
6217,1849
6218,1841
6219,1839
6220,1860
6221,1872
6222,1875
6223,1885
6224,1890
6225,1888
6226,1872
6227,1857
6228,1857
6229,1853
6230,1868
6231,1862
6232,1852
6233,1851
6234,1840
6235,1843
6236,1836
6237,1858
6238,1849
6239,1869
6240,1870
6241,1859
6242,1869
6243,1869
6244,1897
6245,1872
6246,1856
6247,1860
6248,1844
6249,1856
6250,1846
6251,1853
6252,1850
6253,1870
6254,1866
6255,1871
6256,1882
6257,1873
6258,1871
6259,1879
6260,1872
6261,1887
6262,1859
6263,1868
6264,1855
6265,1856
6266,1840
6267,1839
6268,1855
6269,1846
6270,1857
6271,1872
6272,1865
6273,1866
6274,1872
6275,1868
6276,1863
6277,1867
6278,1874
6279,1874
6280,1865
6281,1869
6282,1871
6283,1846
6284,1841
6285,1831
6286,1836
6287,1856
6288,1851
6289,1877
6290,1867
6291,1879
6292,1875
6293,1881
6294,1872
6295,1862
6296,1835
6297,1849
6298,1852
6299,1847
6300,1840
6301,1856
6302,1856
6303,1854
6304,1855
6305,1856
6306,1856
6307,1869
6308,1877
6309,1855
6310,1872
6311,1883
6312,1870
6313,1851
6314,1866
6315,1872
6316,1850
6317,1850
6318,1839
6319,1852
6320,1870
6321,1855
6322,1902
6323,1838
6324,1755
6325,1779
6326,1792
6327,1818
6328,2020
6329,2000
6330,1990
6331,1976
6332,1792
6333,1739
6334,1744
6335,1767
6336,1791
6337,1786
6338,1788
6339,1818
6340,1834
6341,1824
6342,1833
6343,1847
6344,1968
6345,2031
6346,1935
6347,1868
6348,1809
6349,1808
6350,1808
6351,1815
6352,1826
6353,1830
6354,1865
6355,1782
6356,1793
6357,1802
6358,1902
6359,2095
6360,2086
6361,2069
6362,1941
6363,1725
6364,1722
6365,1731
6366,1754
6367,1771
6368,1789
6369,1809
6370,1808
6371,1805
6372,1815
6373,1822
6374,1831
6375,1904
6376,1927
6377,1880
6378,1824
6379,1831
6380,1850
6381,1844
6382,1845
6383,1841
6384,1849
6385,1922
6386,1791
6387,1798
6388,1819
6389,1833
6390,2096
6391,2118
6392,2046
6393,1889
6394,1717
6395,1729
6396,1763
6397,1763
6398,1782
6399,1799
6400,1809
6401,1803
6402,1826
6403,1811
6404,1840
6405,1840
6406,1835
6407,1897
6408,1891
6409,1845
6410,1843
6411,1847
6412,1847
6413,1861
6414,1851
6415,1853
6416,2000
6417,1799
6418,1802
6419,1818
6420,1810
6421,2001
6422,2094
6423,2080
6424,1878
6425,1740
6426,1743
6427,1773
6428,1789
6429,1799
6430,1791
6431,1818
6432,1840
6433,1835
6434,1841
6435,1839
6436,1829
6437,1839
6438,1850
6439,1849
6440,1862
6441,1857
6442,1855
6443,1858
6444,1872
6445,1863
6446,1842
6447,2063
6448,1824
6449,1824
6450,1811
6451,1815
6452,1839
6453,2011
6454,1978
6455,1827
6456,1803
6457,1802
6458,1809
6459,1811
6460,1831
6461,1820
6462,1831
6463,1837
6464,1851
6465,1842
6466,1844
6467,1859
6468,1949
6469,1889
6470,1856
6471,1834
6472,1847
6473,1843
6474,1851
6475,1861
6476,1858
6477,1869
6478,2222
6479,1802
6480,1795
6481,1805
6482,1810
6483,1854
6484,1985
6485,1954
6486,1808
6487,1797
6488,1793
6489,1813
6490,1822
6491,1826
6492,1834
6493,1847
6494,1809
6495,1835
6496,1850
6497,1861
6498,1872
6499,1903
6500,1862
6501,1841
6502,1847
6503,1841
6504,1866
6505,1857
6506,1840
6507,1858
6508,1863
6509,2331
6510,1826
6511,1827
6512,1819
6513,1811
6514,1904
6515,2016
6516,1958
6517,1813
6518,1799
6519,1815
6520,1805
6521,1824
6522,1823
6523,1855
6524,1835
6525,1843
6526,1839
6527,1847
6528,1843
6529,1860
6530,1933
6531,1888
6532,1861
6533,1839
6534,1853
6535,1851
6536,1855
6537,1850
6538,1845
6539,1853
6540,2547
6541,1824
6542,1802
6543,1814
6544,1814
6545,1828
6546,1887
6547,1921
6548,1844
6549,1813
6550,1835
6551,1837
6552,1841
6553,1856
6554,1851
6555,1841
6556,1853
6557,1847
6558,1853
6559,1857
6560,1939
6561,1959
6562,1886
6563,1865
6564,1852
6565,1831
6566,1839
6567,1841
6568,1826
6569,1847
6570,1851
6571,2771
6572,1837
6573,1804
6574,1807
6575,1809
6576,1835
6577,1962
6578,1961
6579,1857
6580,1806
6581,1817
6582,1835
6583,1827
6584,1829
6585,1840
6586,1839
6587,1837
6588,1840
6589,1834
6590,1846
6591,1873
6592,1936
6593,1899
6594,1882
6595,1846
6596,1838
6597,1853
6598,1840
6599,1847
6600,1839
6601,1841
6602,2370
6603,1840
6604,1793
6605,1799
6606,1813
6607,1830
6608,1840
6609,1925
6610,1902
6611,1838
6612,1823
6613,1820
6614,1823
6615,1870
6616,1840
6617,1841
6618,1859
6619,1859
6620,1851
6621,1845
6622,1945
6623,1947
6624,1876
6625,1839
6626,1840
6627,1839
6628,1843
6629,1843
6630,1843
6631,1837
6632,1810
6633,1963
6634,1872
6635,1806
6636,1804
6637,1822
6638,1826
6639,1831
6640,1943
6641,1937
6642,1824
6643,1823
6644,1829
6645,1834
6646,1835
6647,1834
6648,1841
6649,1843
6650,1853
6651,1859
6652,1854
6653,1872
6654,1931
6655,1906
6656,1862
6657,1849
6658,1843
6659,1861
6660,1855
6661,1859
6662,1866
6663,1855
6664,1853
6665,1875
6666,1789
6667,1799
6668,1799
6669,1808
6670,1811
6671,1822
6672,1856
6673,1854
6674,1834
6675,1850
6676,1852
6677,1840
6678,1839
6679,1854
6680,1847
6681,1861
6682,1856
6683,1922
6684,1961
6685,1936
6686,1846
6687,1831
6688,1816
6689,1830
6690,1840
6691,1845
6692,1856
6693,1875
6694,1873
6695,1877
6696,1924
6697,1774
6698,1790
6699,1808
6700,1810
6701,1815
6702,1930
6703,1923
6704,1808
6705,1814
6706,1820
6707,1813
6708,1835
6709,1831
6710,1843
6711,1840
6712,1853
6713,1857
6714,1915
6715,1957
6716,1917
6717,1849
6718,1814
6719,1828
6720,1829
6721,1830
6722,1835
6723,1859
6724,1868
6725,1868
6726,1885
6727,1967
6728,1787
6729,1791
6730,1804
6731,1808
6732,1828
6733,1915
6734,1923
6735,1814
6736,1809
6737,1819
6738,1828
6739,1822
6740,1846
6741,1840
6742,1843
6743,1838
6744,1848
6745,1870
6746,1959
6747,1938
6748,1872
6749,1851
6750,1830
6751,1824
6752,1839
6753,1851
6754,1849
6755,1853
6756,1865
6757,1863
6758,2064
6759,1789
6760,1796
6761,1808
6762,1824
6763,1826
6764,1904
6765,1968
6766,1831
6767,1806
6768,1804
6769,1815
6770,1829
6771,1840
6772,1851
6773,1840
6774,1849
6775,1849
6776,1936
6777,2000
6778,1968
6779,1875
6780,1821
6781,1806
6782,1821
6783,1825
6784,1831
6785,1840
6786,1826
6787,1843
6788,1863
6789,2177
6790,1813
6791,1794
6792,1805
6793,1799
6794,1842
6795,1984
6796,1994
6797,1812
6798,1797
6799,1803
6800,1815
6801,1814
6802,1818
6803,1828
6804,1850
6805,1857
6806,1845
6807,1840
6808,1874
6809,1936
6810,1889
6811,1867
6812,1843
6813,1840
6814,1840
6815,1855
6816,1855
6817,1851
6818,1866
6819,1850
6820,2283
6821,1798
6822,1792
6823,1808
6824,1815
6825,1830
6826,1981
6827,2005
6828,1821
6829,1792
6830,1807
6831,1836
6832,1808
6833,1826
6834,1840
6835,1846
6836,1839
6837,1851
6838,1839
6839,1883
6840,1969
6841,1895
6842,1859
6843,1843
6844,1849
6845,1842
6846,1855
6847,1861
6848,1851
6849,1855
6850,1841
6851,2480
6852,1799
6853,1790
6854,1799
6855,1813
6856,1814
6857,1940
6858,1989
6859,1826
6860,1800
6861,1794
6862,1823
6863,1825
6864,1833
6865,1831
6866,1839
6867,1840
6868,1839
6869,1856
6870,1882
6871,1969
6872,1914
6873,1866
6874,1851
6875,1837
6876,1829
6877,1851
6878,1885
6879,1861
6880,1863
6881,1872
6882,2757
6883,1808
6884,1778
6885,1795
6886,1799
6887,1815
6888,1872
6889,1997
6890,1887
6891,1805
6892,1808
6893,1804
6894,1825
6895,1838
6896,1834
6897,1843
6898,1837
6899,1849
6900,1855
6901,1890
6902,1943
6903,1891
6904,1855
6905,1843
6906,1836
6907,1840
6908,1868
6909,1858
6910,1871
6911,1875
6912,1866
6913,2682
6914,1808
6915,1782
6916,1791
6917,1805
6918,1809
6919,1826
6920,1968
6921,1851
6922,1801
6923,1819
6924,1814
6925,1831
6926,1819
6927,1841
6928,1837
6929,1839
6930,1841
6931,1875
6932,1969
6933,1931
6934,1883
6935,1842
6936,1814
6937,1829
6938,1838
6939,1849
6940,1878
6941,1885
6942,1883
6943,1879
6944,1896
6945,1880
6946,1868
6947,1869
6948,1851
6949,1840
6950,1835
6951,1851
6952,1841
6953,1858
6954,1856
6955,1851
6956,1861
6957,1875
6958,1862
6959,1861
6960,1885
6961,1886
6962,1879
6963,1856
6964,1875
6965,1870
6966,1842
6967,1834
6968,1830
6969,1843
6970,1853
6971,1859
6972,1869
6973,1866
6974,1883
6975,1873
6976,1871
6977,1879
6978,1883
6979,1871
6980,1848
6981,1872
6982,1845
6983,1854
6984,1858
6985,1843
6986,1856
6987,1856
6988,1872
6989,1883
6990,1873
6991,1872
6992,1871
6993,1877
6994,1878
6995,1872
6996,1872
6997,1840
6998,1857
6999,1843
7000,1831
7001,1849
7002,1856
7003,1858
7004,1858
7005,1872
7006,1878
7007,1872
7008,1872
7009,1890
7010,1883
7011,1878
7012,1872
7013,1871
7014,1853
7015,1856
7016,1836
7017,1831
7018,1827
7019,1846
7020,1853
7021,1866
7022,1871
7023,1894
7024,1889
7025,1899
7026,1905
7027,1904
7028,1872
7029,1856
7030,1831
7031,1827
7032,1839
7033,1865
7034,1851
7035,1857
7036,1843
7037,1837
7038,1855
7039,1871
7040,1867
7041,1870
7042,1873
7043,1893
7044,1889
7045,1873
7046,1875
7047,1841
7048,1838
7049,1823
7050,1830
7051,1856
7052,1853
7053,1863
7054,1873
7055,1864
7056,1850
7057,1872
7058,1870
7059,1862
7060,1869
7061,1856
7062,1866
7063,1842
7064,1859
7065,1854
7066,1851
7067,1849
7068,1861
7069,1859
7070,1867
7071,1863
7072,1839
7073,1852
7074,1857
7075,1867
7076,1856
7077,1872
7078,1867
7079,1856
7080,1861
7081,1845
7082,1839
7083,1838
7084,1840
7085,1843
7086,1850
7087,1863
7088,1860
7089,1872
7090,1872
7091,1870
7092,1871
7093,1872
7094,1895
7095,1872
7096,1862
7097,1859
7098,1872
7099,1856
7100,1841
7101,1835
7102,1856
7103,1856
7104,1866
7105,1847
7106,1879
7107,1885
7108,1871
7109,1869
7110,1861
7111,1851
7112,1854
7113,1845
7114,1862
7115,1869
7116,1845
7117,1853
7118,1856
7119,1845
7120,1847
7121,1845
7122,1851
7123,1883
7124,1875
7125,1881
7126,1878
7127,1870
7128,1866
7129,1842
7130,1843
7131,1837
7132,1854
7133,1846
7134,1852
7135,1843
7136,1854
7137,1857
7138,1872
7139,1869
7140,1889
7141,1894
7142,1889
7143,1895
7144,1875
7145,1851
7146,1831
7147,1841
7148,1840
7149,1862
7150,1866
7151,1856
7152,1852
7153,1874
7154,1872
7155,1850
7156,1836
7157,1853
7158,1856
7159,1872
7160,1892
7161,1879
7162,1869
7163,1851
7164,1872
7165,1857
7166,1850
7167,1845
7168,1827
7169,1852
7170,1859
7171,1857
7172,1872
7173,1871
7174,1873
7175,1866
7176,1870
7177,1873
7178,1871
7179,1861
7180,1863
7181,1875
7182,1856
7183,1845
7184,1840
7185,1847
7186,1857
7187,1872
7188,1872
7189,1897
7190,1866
7191,1867
7192,1869
7193,1883
7194,1889
7195,1865
7196,1860
7197,1847
7198,1862
7199,1859
7200,1857
7201,1868
7202,1845
7203,1858
7204,1851
7205,1844
7206,1866
7207,1854
7208,1871
7209,1863
7210,1865
7211,1873
7212,1866
7213,1856
7214,1846
7215,1868
7216,1850
7217,1843
7218,1830
7219,1850
7220,1847
7221,1856
7222,1866
7223,1875
7224,1879
7225,1881
7226,1877
7227,1888
7228,1889
7229,1875
7230,1859
7231,1853
7232,1820
7233,1825
7234,1826
7235,1854
7236,1873
7237,1870
7238,1872
7239,1863
7240,1855
7241,1878
7242,1891
7243,1885
7244,1867
7245,1855
7246,1843
7247,1858
7248,1856
7249,1850
7250,1827
7251,1837
7252,1857
7253,1866
7254,1852
7255,1870
7256,1872
7257,1869
7258,1855
7259,1856
7260,1874
7261,1872
7262,1867
7263,1858
7264,1862
7265,1867
7266,1858
7267,1840
7268,1863
7269,1859
7270,1872
7271,1863
7272,1863
7273,1861
7274,1858
7275,1877
7276,1867
7277,1867
7278,1873
7279,1869
7280,1858
7281,1865
7282,1855
7283,1852
7284,1841
7285,1854
7286,1858
7287,1863
7288,1879
7289,1869
7290,1843
7291,1852
7292,1860
7293,1847
7294,1863
7295,1863
7296,1867
7297,1853
7298,1838
7299,1845
7300,1845
7301,1853
7302,1850
7303,1860
7304,1879
7305,1874
7306,1873
7307,1861
7308,1871
7309,1860
7310,1885
7311,1883
7312,1867
7313,1868
7314,1861
7315,1851
7316,1851
7317,1838
7318,1856
7319,1855
7320,1859
7321,1856
7322,1870
7323,1860
7324,1874
7325,1872
7326,1882
7327,1877
7328,1862
7329,1850
7330,1859
7331,1851
7332,1855
7333,1847
7334,1856
7335,1869
7336,1865
7337,1853
7338,1872
7339,1868
7340,1888
7341,1866
7342,1850
7343,1861
7344,1895
7345,1872
7346,1867
7347,1859
7348,1831
7349,1836
7350,1837
7351,1818
7352,1831
7353,1846
7354,1853
7355,1861
7356,1879
7357,1890
7358,1886
7359,1863
7360,1879
7361,1852
7362,1840
7363,1859
7364,1851
7365,1837
7366,1854
7367,1850
7368,1829
7369,1872
7370,1863
7371,1867
7372,1872
7373,1882
7374,1873
7375,1861
7376,1855
7377,1856
7378,1860
7379,1857
7380,1856
7381,1862
7382,1853
7383,1846
7384,1849
7385,1847
7386,1853
7387,1852
7388,1872
7389,1876
7390,1865
7391,1874
7392,1875
7393,1872
7394,1882
7395,1883
7396,1867
7397,1856
7398,1857
7399,1840
7400,1846
7401,1840
7402,1859
7403,1853
7404,1871
7405,1871
7406,1867
7407,1872
7408,1869
7409,1874
7410,1882
7411,1897
7412,1892
7413,1881
7414,1870
7415,1872
7416,1812
7417,1814
7418,1814
7419,1834
7420,1825
7421,1862
7422,1885
7423,1863
7424,1888
7425,1890
7426,1877
7427,1888
7428,1869
7429,1840
7430,1840
7431,1839
7432,1840
7433,1837
7434,1829
7435,1840
7436,1838
7437,1853
7438,1847
7439,1859
7440,1887
7441,1865
7442,1886
7443,1894
7444,1886
7445,1863
7446,1872
7447,1879
7448,1847
7449,1844
7450,1839
7451,1849
7452,1855
7453,1856
7454,1867
7455,1878
7456,1885
7457,1872
7458,1873
7459,1874
7460,1881
7461,1869
7462,1866
7463,1854
7464,1862
7465,1859
7466,1852
7467,1841
7468,1831
7469,1856
7470,1858
7471,1867
7472,1872
7473,1867
7474,1875
7475,1872
7476,1872
7477,1882
7478,1865
7479,1861
7480,1843
7481,1863
7482,1859
7483,1851
7484,1857
7485,1846
7486,1843
7487,1865
7488,1860
7489,1876
7490,1872
7491,1877
7492,1872
7493,1861
7494,1862
7495,1871
7496,1859
7497,1840
7498,1842
7499,1840
7500,1840
7501,1845
7502,1840
7503,1855
7504,1859
7505,1850
7506,1867
7507,1878
7508,1889
7509,1882
7510,1905
7511,1903
7512,1886
7513,1845
7514,1830
7515,1826
7516,1840
7517,1847
7518,1842
7519,1857
7520,1841
7521,1843
7522,1838
7523,1858
7524,1854
7525,1860
7526,1863
7527,1872
7528,1890
7529,1872
7530,1867
7531,1840
7532,1842
7533,1840
7534,1849
7535,1842
7536,1867
7537,1856
7538,1867
7539,1867
7540,1858
7541,1875
7542,1874
7543,1879
7544,1885
7545,1861
7546,1856
7547,1858
7548,1865
7549,1851
7550,1851
7551,1846
7552,1858
7553,1872
7554,1859
7555,1867
7556,1856
7557,1860
7558,1874
7559,1871
7560,1887
7561,1875
7562,1878
7563,1859
7564,1863
7565,1823
7566,1834
7567,1841
7568,1828
7569,1846
7570,1865
7571,1857
7572,1867
7573,1875
7574,1865
7575,1872
7576,1877
7577,1877
7578,1872
7579,1855
7580,1855
7581,1845
7582,1840
7583,1840
7584,1838
7585,1853
7586,1856
7587,1863
7588,1865
7589,1869
7590,1876
7591,1866
7592,1871
7593,1891
7594,1879
7595,1857
7596,1858
7597,1854
7598,1863
7599,1856
7600,1847
7601,1843
7602,1845
7603,1856
7604,1845
7605,1865
7606,1863
7607,1875
7608,1871
7609,1873
7610,1872
7611,1876
7612,1872
7613,1858
7614,1830
7615,1856
7616,1841
7617,1838
7618,1818
7619,1843
7620,1856
7621,1857
7622,1857
7623,1882
7624,1872
7625,1873
7626,1872
7627,1875
7628,1863
7629,1859
7630,1855
7631,1850
7632,1846
7633,1851
7634,1850
7635,1857
7636,1869
7637,1863
7638,1863
7639,1881
7640,1869
7641,1870
7642,1873
7643,1873
7644,1871
7645,1865
7646,1861
7647,1850
7648,1825
7649,1843
7650,1840
7651,1821
7652,1829
7653,1826
7654,1861
7655,1866
7656,1872
7657,1882
7658,1875
7659,1856
7660,1872
7661,1883
7662,1871
7663,1862
7664,1872
7665,1867
7666,1849
7667,1847
7668,1830
7669,1863
7670,1858
7671,1871
7672,1886
7673,1889
7674,1887
7675,1874
7676,1862
7677,1872
7678,1853
7679,1839
7680,1840
7681,1843
7682,1853
7683,1862
7684,1846
7685,1858
7686,1861
7687,1866
7688,1856
7689,1902
7690,1876
7691,1865
7692,1865
7693,1864
7694,1870
7695,1856
7696,1872
7697,1869
7698,1857
7699,1854
7700,1847
7701,1853
7702,1851
7703,1847
7704,1840
7705,1856
7706,1871
7707,1885
7708,1871
7709,1872
7710,1872
7711,1853
7712,1846
7713,1843
7714,1846
7715,1856
7716,1850
7717,1845
7718,1873
7719,1855
7720,1847
7721,1863
7722,1872
7723,1855
7724,1878
7725,1878
7726,1879
7727,1887
7728,1869
7729,1866
7730,1858
7731,1862
7732,1855
7733,1856
7734,1840
7735,1847
7736,1840
7737,1867
7738,1871
7739,1870
7740,1856
7741,1859
7742,1871
7743,1856
7744,1853
7745,1861
7746,1861
7747,1867
7748,1854
7749,1847
7750,1844
7751,1840
7752,1855
7753,1852
7754,1868
7755,1872
7756,1879
7757,1883
7758,1885
7759,1875
7760,1876
7761,1879
7762,1885
7763,1853
7764,1840
7765,1856
7766,1847
7767,1840
7768,1835
7769,1838
7770,1835
7771,1845
7772,1843
7773,1861
7774,1874
7775,1875
7776,1886
7777,1879
7778,1874
7779,1869
7780,1867
7781,1850
7782,1857
7783,1853
7784,1843
7785,1859
7786,1853
7787,1866
7788,1865
7789,1903
7790,1872
7791,1882
7792,1877
7793,1897
7794,1862
7795,1855
7796,1853
7797,1856
7798,1867
7799,1851
7800,1842
7801,1831
7802,1849
7803,1850
7804,1863
7805,1861
7806,1868
7807,1876
7808,1863
7809,1871
7810,1872
7811,1879
7812,1871
7813,1862
7814,1889
7815,1867
7816,1854
7817,1845
7818,1834
7819,1841
7820,1856
7821,1856
7822,1859
7823,1855
7824,1859
7825,1865
7826,1872
7827,1872
7828,1869
7829,1871
7830,1871
7831,1872
7832,1882
7833,1841
7834,1856
7835,1846
7836,1842
7837,1843
7838,1840
7839,1847
7840,1858
7841,1862
7842,1867
7843,1880
7844,1869
7845,1870
7846,1871
7847,1854
7848,1874
7849,1862
7850,1860
7851,1857
7852,1842
7853,1856
7854,1846
7855,1867
7856,1857
7857,1872
7858,1872
7859,1871
7860,1868
7861,1882
7862,1875
7863,1859
7864,1869
7865,1840
7866,1845
7867,1843
7868,1835
7869,1855
7870,1841
7871,1849
7872,1854
7873,1855
7874,1872
7875,1872
7876,1883
7877,1885
7878,1866
7879,1860
7880,1856
7881,1846
7882,1856
7883,1859
7884,1858
7885,1849
7886,1856
7887,1846
7888,1853
7889,1850
7890,1873
7891,1878
7892,1871
7893,1877
7894,1871
7895,1870
7896,1859
7897,1856
7898,1882
7899,1862
7900,1851
7901,1841
7902,1855
7903,1843
7904,1851
7905,1871
7906,1855
7907,1871
7908,1863
7909,1867
7910,1872
7911,1885
7912,1872
7913,1853
7914,1861
7915,1851
7916,1855
7917,1846
7918,1872
7919,1849
7920,1840
7921,1854
7922,1853
7923,1851
7924,1871
7925,1875
7926,1891
7927,1893
7928,1886
7929,1877
7930,1864
7931,1854
7932,1841
7933,1844
7934,1854
7935,1842
7936,1854
7937,1855
7938,1856
7939,2526
7940,1823
7941,1792
7942,1808
7943,1791
7944,1809
7945,1843
7946,1840
7947,1839
7948,1887
7949,1845
7950,1840
7951,1840
7952,1838
7953,1837
7954,1856
7955,1851
7956,1842
7957,1842
7958,1843
7959,1856
7960,1857
7961,1867
7962,1937
7963,1893
7964,1883
7965,1840
7966,1840
7967,1843
7968,1866
7969,1853
7970,2723
7971,1833
7972,1803
7973,1806
7974,1821
7975,1833
7976,1834
7977,1913
7978,1955
7979,1905
7980,1811
7981,1805
7982,1811
7983,1813
7984,1836
7985,1837
7986,1841
7987,1838
7988,1840
7989,1853
7990,1842
7991,1850
7992,1866
7993,1921
7994,1894
7995,1850
7996,1855
7997,1835
7998,1849
7999,1850
8000,1856
8001,2759
8002,1830
8003,1799
8004,1810
8005,1834
8006,1819
8007,1875
8008,2037
8009,2004
8010,1889
8011,1792
8012,1789
8013,1793
8014,1807
8015,1815
8016,1833
8017,1823
8018,1808
8019,1840
8020,1837
8021,1851
8022,1861
8023,1855
8024,1854
8025,1854
8026,1845
8027,1856
8028,1858
8029,1861
8030,1856
8031,1856
8032,2053
8033,1873
8034,1801
8035,1811
8036,1821
8037,1819
8038,1805
8039,1845
8040,1839
8041,1847
8042,1842
8043,1858
8044,1843
8045,1838
8046,1840
8047,1847
8048,1851
8049,1856
8050,1855
8051,1847
8052,1849
8053,1857
8054,1872
8055,1856
8056,1852
8057,1856
8058,1857
8059,1869
8060,1854
8061,1857
8062,1859
8063,1857
8064,1871
8065,1820
8066,1826
8067,1823
8068,1811
8069,1845
8070,1875
8071,1925
8072,1840
8073,1818
8074,1835
8075,1836
8076,1840
8077,1840
8078,1842
8079,1840
8080,1842
8081,1838
8082,1863
8083,1847
8084,1845
8085,1863
8086,1869
8087,1865
8088,1872
8089,1853
8090,1865
8091,1855
8092,1859
8093,1858
8094,1872
8095,1925
8096,1809
8097,1810
8098,1821
8099,1905
8100,2169
8101,2165
8102,2018
8103,1744
8104,1726
8105,1728
8106,1758
8107,1776
8108,1787
8109,1791
8110,1808
8111,1793
8112,1825
8113,1814
8114,1831
8115,1841
8116,1840
8117,1840
8118,1856
8119,1859
8120,1843
8121,1858
8122,1856
8123,1849
8124,1862
8125,1859
8126,1958
8127,1813
8128,1808
8129,1815
8130,1833
8131,1810
8132,1850
8133,1858
8134,1834
8135,1843
8136,1840
8137,1840
8138,1843
8139,1865
8140,1834
8141,1855
8142,1856
8143,1840
8144,1853
8145,1859
8146,1861
8147,1869
8148,1872
8149,1856
8150,1861
8151,1855
8152,1861
8153,1856
8154,1847
8155,1857
8156,1856
8157,1999
8158,1819
8159,1827
8160,1821
8161,1813
8162,1835
8163,1830
8164,1837
8165,1837
8166,1843
8167,1846
8168,1879
8169,1845
8170,1847
8171,1861
8172,1856
8173,1872
8174,1854
8175,1858
8176,1853
8177,1858
8178,1888
8179,1873
8180,1863
8181,1854
8182,1843
8183,1851
8184,1855
8185,1857
8186,1864
8187,1872
8188,2078
8189,1809
8190,1813
8191,1818
8192,1828
8193,1845
8194,1845
8195,1881
8196,1855
8197,1835
8198,1870
8199,1840
8200,1854
8201,1841
8202,1839
8203,1856
8204,1847
8205,1868
8206,1847
8207,1860
8208,1855
8209,1860
8210,1865
8211,1861
8212,1850
8213,1859
8214,1862
8215,1861
8216,1853
8217,1855
8218,1873
8219,2143
8220,1814
8221,1825
8222,1818
8223,1827
8224,1831
8225,1835
8226,1830
8227,1840
8228,1843
8229,1858
8230,1843
8231,1865
8232,1859
8233,1853
8234,1861
8235,1854
8236,1856
8237,1859
8238,1857
8239,1861
8240,1872
8241,1867
8242,1867
8243,1882
8244,1850
8245,1867
8246,1851
8247,1866
8248,1855
8249,1859
8250,2304
8251,1831
8252,1823
8253,1815
8254,1815
8255,1834
8256,1982
8257,1981
8258,1815
8259,1809
8260,1815
8261,1822
8262,1814
8263,1826
8264,1840
8265,1825
8266,1843
8267,1846
8268,1829
8269,1861
8270,1856
8271,1859
8272,1856
8273,1867
8274,1858
8275,1860
8276,1869
8277,1860
8278,1853
8279,1850
8280,1847
8281,2479
8282,1820
8283,1805
8284,1808
8285,1830
8286,1829
8287,1837
8288,1844
8289,1857
8290,1838
8291,1841
8292,1849
8293,1855
8294,1856
8295,1853
8296,1842
8297,1859
8298,1859
8299,1858
8300,1859
8301,1867
8302,1861
8303,1859
8304,1863
8305,1847
8306,1870
8307,1855
8308,1862
8309,1849
8310,1847
8311,1850
8312,2768
8313,1850
8314,1817
8315,1817
8316,1815
8317,1826
8318,1829
8319,1827
8320,1850
8321,1849
8322,1856
8323,1861
8324,1853
8325,1854
8326,1856
8327,1854
8328,1849
8329,1869
8330,1861
8331,1857
8332,1852
8333,1869
8334,1869
8335,1856
8336,1862
8337,1849
8338,1846
8339,1856
8340,1855
8341,1866
8342,1858
8343,2490
8344,1854
8345,1808
8346,1812
8347,1833
8348,1830
8349,1835
8350,1840
8351,1854
8352,1843
8353,1851
8354,1866
8355,1846
8356,1861
8357,1856
8358,1851
8359,1859
8360,1856
8361,1853
8362,1858
8363,1866
8364,1859
8365,1868
8366,1857
8367,1859
8368,1872
8369,1871
8370,1872
8371,1871
8372,1855
8373,1866
8374,1890
8375,1883
8376,1826
8377,1814
8378,1820
8379,1829
8380,1835
8381,1843
8382,1860
8383,1840
8384,1846
8385,1851
8386,1855
8387,1850
8388,1847
8389,1846
8390,1859
8391,1862
8392,1863
8393,1879
8394,1869
8395,1862
8396,1854
8397,1853
8398,1845
8399,1858
8400,1858
8401,1870
8402,1855
8403,1851
8404,1855
8405,1863
8406,1907
8407,1811
8408,1814
8409,1831
8410,1822
8411,1833
8412,1872
8413,1908
8414,1831
8415,1815
8416,1833
8417,1840
8418,1871
8419,1840
8420,1847
8421,1846
8422,1851
8423,1872
8424,1853
8425,1857
8426,1856
8427,1856
8428,1855
8429,1872
8430,1871
8431,1841
8432,1854
8433,1840
8434,1856
8435,1855
8436,1870
8437,1953
8438,1818
8439,1817
8440,1808
8441,1823
8442,1837
8443,1871
8444,1931
8445,1846
8446,1838
8447,1837
8448,1851
8449,1843
8450,1850
8451,1854
8452,1853
8453,1855
8454,1855
8455,1841
8456,1841
8457,1857
8458,1869
8459,1849
8460,1856
8461,1843
8462,1842
8463,1855
8464,1861
8465,1851
8466,1860
8467,1857
8468,1991
8469,1829
8470,1810
8471,1822
8472,1838
8473,1835
8474,1841
8475,1871
8476,1854
8477,1826
8478,1843
8479,1857
8480,1856
8481,1843
8482,1853
8483,1847
8484,1859
8485,1862
8486,1871
8487,1849
8488,1855
8489,1872
8490,1855
8491,1855
8492,1859
8493,1840
8494,1873
8495,1861
8496,1871
8497,1872
8498,1855
8499,2081
8500,1820
8501,1821
8502,1809
8503,1823
8504,1828
8505,1913
8506,1966
8507,1818
8508,1815
8509,1818
8510,1837
8511,1840
8512,1845
8513,1831
8514,1840
8515,1837
8516,1842
8517,1850
8518,1851
8519,1853
8520,1846
8521,1845
8522,1846
8523,1843
8524,1858
8525,1857
8526,1851
8527,1850
8528,1864
8529,1857
8530,2192
8531,1822
8532,1807
8533,1825
8534,1835
8535,1827
8536,1839
8537,1860
8538,1835
8539,1841
8540,1824
8541,1847
8542,1850
8543,1848
8544,1842
8545,1847
8546,1851
8547,1859
8548,1852
8549,1859
8550,1861
8551,1855
8552,1856
8553,1851
8554,1846
8555,1856
8556,1857
8557,1865
8558,1855
8559,1853
8560,1855
8561,1851
8562,1857
8563,1860
8564,1867
8565,1863
8566,1862
8567,1869
8568,1873
8569,1884
8570,1863
8571,1851
8572,1862
8573,1856
8574,1865
8575,1867
8576,1859
8577,1872
8578,1870
8579,1863
8580,1860
8581,1857
8582,1854
8583,1856
8584,1849
8585,1856
8586,1845
8587,1867
8588,1882
8589,1882
8590,1899
8591,1875
8592,1865
8593,1881
8594,1881
8595,1858
8596,1857
8597,1863
8598,1849
8599,1855
8600,1853
8601,1850
8602,1844
8603,1858
8604,1867
8605,1873
8606,1866
8607,1868
8608,1872
8609,1861
8610,1874
8611,1873
8612,1861
8613,1860
8614,1853
8615,1846
8616,1850
8617,1846
8618,1854
8619,1855
8620,1852
8621,1862
8622,1875
8623,1903
8624,1881
8625,1872
8626,1874
8627,1874
8628,1866
8629,1854
8630,1847
8631,1850
8632,1845
8633,1842
8634,1849
8635,1856
8636,1855
8637,1861
8638,1856
8639,1861
8640,1858
8641,1887
8642,1906
8643,1915
8644,1911
8645,1862
8646,1838
8647,1833
8648,1834
8649,1829
8650,1839
8651,1852
8652,1847
8653,1869
8654,1875
8655,1874
8656,1888
8657,1878
8658,1854
8659,1859
8660,1869
8661,1874
8662,1869
8663,1878
8664,1866
8665,1872
8666,1840
8667,1837
8668,1835
8669,1842
8670,1845
8671,1846
8672,1884
8673,1904
8674,1914
8675,1903
8676,1869
8677,1841
8678,1841
8679,1824
8680,1836
8681,1830
8682,1841
8683,1839
8684,1856
8685,1843
8686,1837
8687,1846
8688,1870
8689,1867
8690,1878
8691,1863
8692,1872
8693,1870
8694,1872
8695,1872
8696,1858
8697,1860
8698,1853
8699,1853
8700,1845
8701,1840
8702,1869
8703,1835
8704,1866
8705,1846
8706,1859
8707,1870
8708,1871
8709,1872
8710,1875
8711,1872
8712,1861
8713,1855
8714,1840
8715,1851
8716,1853
8717,1845
8718,1849
8719,1857
8720,1849
8721,1842
8722,1839
8723,1867
8724,1853
8725,1861
8726,1862
8727,1846
8728,1861
8729,1850
8730,1865
8731,1863
8732,1847
8733,1846
8734,1862
8735,1853
8736,1856
8737,1856
8738,1872
8739,1872
8740,1872
8741,1853
8742,1865
8743,1855
8744,1870
8745,1866
8746,1869
8747,1865
8748,1861
8749,1863
8750,1860
8751,1845
8752,1849
8753,1856
8754,1845
8755,1854
8756,1861
8757,1855
8758,1860
8759,1856
8760,1859
8761,1853
8762,1860
8763,1866
8764,1868
8765,1845
8766,1857
8767,1853
8768,1847
8769,1871
8770,1861
8771,1872
8772,1863
8773,1854
8774,1863
8775,1858
8776,1855
8777,1863
8778,1857
8779,1863
8780,1870
8781,1859
8782,1860
8783,1868
8784,1852
8785,1863
8786,1856
8787,1857
8788,1849
8789,1850
8790,1856
8791,1856
8792,1853
8793,1870
8794,1851
8795,1858
8796,1856
8797,1858
8798,1868
8799,1857
8800,1862
8801,1859
8802,1863
8803,1865
8804,1870
8805,1867
8806,1852
8807,1859
8808,1870
8809,1871
8810,1863
8811,1857
8812,1857
8813,1861
8814,1858
8815,1873
8816,1857
8817,1851
8818,1856
8819,1855
8820,1861
8821,1857
8822,1856
8823,1862
8824,1856
8825,1855
8826,1865
8827,1853
8828,1872
8829,1859
8830,1851
8831,1861
8832,1861
8833,1854
8834,1864
8835,1856
8836,1872
8837,1847
8838,1872
8839,1861
8840,1864
8841,1862
8842,1863
8843,1857
8844,1869
8845,1871
8846,1865
8847,1868
8848,1866
8849,1859
8850,1856
8851,1859
8852,1841
8853,1878
8854,1873
8855,1873
8856,1883
8857,1887
8858,1872
8859,1841
8860,1850
8861,1842
8862,1849
8863,1845
8864,1850
8865,1847
8866,1859
8867,1855
8868,1851
8869,1878
8870,1845
8871,1866
8872,1855
8873,1866
8874,1858
8875,1862
8876,1844
8877,1862
8878,1863
8879,1862
8880,1845
8881,1857
8882,1862
8883,1851
8884,1857
8885,1863
8886,1872
8887,1856
8888,1863
8889,1856
8890,1861
8891,1869
8892,1859
8893,1869
8894,1888
8895,1862
8896,1870
8897,1882
8898,1856
8899,1865
8900,1862
8901,1849
8902,1877
8903,1845
8904,1856
8905,1863
8906,1859
8907,1865
8908,1863
8909,1859
8910,1854
8911,1859
8912,1851
8913,1846
8914,1869
8915,1851
8916,1863
8917,1858
8918,1857
8919,1871
8920,1871
8921,1850
8922,1846
8923,1854
8924,1863
8925,1873
8926,1901
8927,1893
8928,1899
8929,1885
8930,1870
8931,1838
8932,1847
8933,1854
8934,1850
8935,1847
8936,1853
8937,1857
8938,1839
8939,1840
8940,1861
8941,1855
8942,1856
8943,1851
8944,1851
8945,1850
8946,1858
8947,1857
8948,1847
8949,1866
8950,1865
8951,1847
8952,1853
8953,1856
8954,1867
8955,1849
8956,1843
8957,1867
8958,1851
8959,1863
8960,1858
8961,1871
8962,1866
8963,1865
8964,1853
8965,1870
8966,1859
8967,1861
8968,1859
8969,1872
8970,1851
8971,1872
8972,1866
8973,1873
8974,1856
8975,1862
8976,1855
8977,1886
8978,1899
8979,1872
8980,1857
8981,1863
8982,1859
8983,1854
8984,1845
8985,1856
8986,1872
8987,1846
8988,1867
8989,1875
8990,1872
8991,1862
8992,1863
8993,1866
8994,1866
8995,1869
8996,1861
8997,1862
8998,1875
8999,1859
9000,1856
9001,1845
9002,1870
9003,1855
9004,1847
9005,1859
9006,1869
9007,1855
9008,1861
9009,1867
9010,1863
9011,1861
9012,1858
9013,1862
9014,1863
9015,1861
9016,1855
9017,1851
9018,1861
9019,1847
9020,1862
9021,1863
9022,1859
9023,1856
9024,1859
9025,1861
9026,1863
9027,1861
9028,1873
9029,1866
9030,1867
9031,1847
9032,1847
9033,1850
9034,1859
9035,1861
9036,1865
9037,1866
9038,1853
9039,1851
9040,1861
9041,1871
9042,1884
9043,1895
9044,1903
9045,1885
9046,1853
9047,1851
9048,1852
9049,1842
9050,1851
9051,1858
9052,1854
9053,1859
9054,1849
9055,1850
9056,1859
9057,1855
9058,1867
9059,1868
9060,1855
9061,1841
9062,1851
9063,1867
9064,1863
9065,1856
9066,1862
9067,1858
9068,1854
9069,1867
9070,1869
9071,1858
9072,1866
9073,1868
9074,1863
9075,1866
9076,1879
9077,1872
9078,1873
9079,1872
9080,1872
9081,1857
9082,1846
9083,1847
9084,1859
9085,1850
9086,1850
9087,1853
9088,1860
9089,1879
9090,1867
9091,1856
9092,1857
9093,1871
9094,1873
9095,1857
9096,1863
9097,1879
9098,1883
9099,1857
9100,1856
9101,1866
9102,1855
9103,1856
9104,1858
9105,1864
9106,1846
9107,1872
9108,1872
9109,1856
9110,1866
9111,1861
9112,1861
9113,1872
9114,1861
9115,1869
9116,1840
9117,1854
9118,1847
9119,1851
9120,1859
9121,1843
9122,1840
9123,1862
9124,1855
9125,1860
9126,1855
9127,1862
9128,1867
9129,1881
9130,1850
9131,1862
9132,1853
9133,1858
9134,1851
9135,1849
9136,1854
9137,1865
9138,1866
9139,1872
9140,1866
9141,1863
9142,1877
9143,1878
9144,1861
9145,1875
9146,1854
9147,1851
9148,1857
9149,1856
9150,1854
9151,1849
9152,1855
9153,1845
9154,1860
9155,1846
9156,1860
9157,1856
9158,1862
9159,1863
9160,1862
9161,1856
9162,1866
9163,1872
9164,1878
9165,1861
9166,1865
9167,1862
9168,1862
9169,1855
9170,1862
9171,1872
9172,1864
9173,1867
9174,1872
9175,1867
9176,1862
9177,1876
9178,1870
9179,1869
9180,1859
9181,1850
9182,1845
9183,1856
9184,1856
9185,1859
9186,1856
9187,1871
9188,1862
9189,1858
9190,1859
9191,1863
9192,1867
9193,1867
9194,1870
9195,1877
9196,1872
9197,1872
9198,1863
9199,1854
9200,1855
9201,1853
9202,1853
9203,1857
9204,1852
9205,1857
9206,1861
9207,1858
9208,1846
9209,1868
9210,1849
9211,1843
9212,1860
9213,1861
9214,1871
9215,1859
9216,1847
9217,1847
9218,1855
9219,1866
9220,1859
9221,1867
9222,1871
9223,1876
9224,1861
9225,1865
9226,1859
9227,1842
9228,1870
9229,1863
9230,1872
9231,1851
9232,1847
9233,1864
9234,1867
9235,1856
9236,1870
9237,1847
9238,1863
9239,1860
9240,1853
9241,1867
9242,1875
9243,1863
9244,1840
9245,1847
9246,1857
9247,1866
9248,1854
9249,1853
9250,1855
9251,1865
9252,1852
9253,1856
9254,1869
9255,1857
9256,1863
9257,1861
9258,1850
9259,1873
9260,1862
9261,1868
9262,1879
9263,1870
9264,1862
9265,1860
9266,1858
9267,1854
9268,1853
9269,1862
9270,1861
9271,1869
9272,1861
9273,1851
9274,1856
9275,1856
9276,1872
9277,1861
9278,1857
9279,1872
9280,1863
9281,1855
9282,1863
9283,1849
9284,1850
9285,1855
9286,1856
9287,1854
9288,1862
9289,1863
9290,1881
9291,1867
9292,1857
9293,1856
9294,1870
9295,1858
9296,1878
9297,1872
9298,1861
9299,1856
9300,1858
9301,1868
9302,1854
9303,1863
9304,1845
9305,1871
9306,1866
9307,1861
9308,1855
9309,1854
9310,1860
9311,1867
9312,1869
9313,1855
9314,1867
9315,1867
9316,1858
9317,1851
9318,1859
9319,1872
9320,1861
9321,1863
9322,1859
9323,1856
9324,1863
9325,1863
9326,1874
9327,1851
9328,1853
9329,1855
9330,1855
9331,1856
9332,1844
9333,1841
9334,1861
9335,1856
9336,1846
9337,1856
9338,1856
9339,1840
9340,1874
9341,1862
9342,1854
9343,1859
9344,1877
9345,1865
9346,1862
9347,1869
9348,1870
9349,1862
9350,1861
9351,1870
9352,1857
9353,1859
9354,1868
9355,1869
9356,1854
9357,1861
9358,1861
9359,1859
9360,1856
9361,1871
9362,1857
9363,1850
9364,1871
9365,1871
9366,1857
9367,1851
9368,1861
9369,1843
9370,1858
9371,1853
9372,1861
9373,1862
9374,1861
9375,1861
9376,1865
9377,1867
9378,1870
9379,1860
9380,1883
9381,1885
9382,1873
9383,1851
9384,1847
9385,1862
9386,1868
9387,1857
9388,1870
9389,1871
9390,1851
9391,1857
9392,1867
9393,1863
9394,1862
9395,1861
9396,1877
9397,1859
9398,1855
9399,1856
9400,1858
9401,1850
9402,1870
9403,1869
9404,1853
9405,1870
9406,1858
9407,1857
9408,1856
9409,1853
9410,1860
9411,1851
9412,1870
9413,1867
9414,1872
9415,1845
9416,1853
9417,1859
9418,1855
9419,1843
9420,1855
9421,1851
9422,1853
9423,1855
9424,1855
9425,1859
9426,1845
9427,1854
9428,1859
9429,1868
9430,1872
9431,1864
9432,1860
9433,1866
9434,1871
9435,1858
9436,1857
9437,1851
9438,1868
9439,1859
9440,1856
9441,1857
9442,1872
9443,1869
9444,1869
9445,1873
9446,1862
9447,1861
9448,1853
9449,1866
9450,1858
9451,1849
9452,1850
9453,1849
9454,1858
9455,1866
9456,1851
9457,1860
9458,1862
9459,1870
9460,1853
9461,1856
9462,1863
9463,1856
9464,1874
9465,1858
9466,1856
9467,1863
9468,1865
9469,1851
9470,1855
9471,1856
9472,1858
9473,1873
9474,1866
9475,1866
9476,1850
9477,1866
9478,1857
9479,1856
9480,1865
9481,1859
9482,1859
9483,1869
9484,1861
9485,1867
9486,1865
9487,1857
9488,1855
9489,1867
9490,1855
9491,1867
9492,1850
9493,1862
9494,1859
9495,1859
9496,1857
9497,1855
9498,1896
9499,1867
9500,1862
9501,1871
9502,1859
9503,1856
9504,1857
9505,1877
9506,1869
9507,1869
9508,1852
9509,1859
9510,1851
9511,1850
9512,1857
9513,1849
9514,1883
9515,1869
9516,1862
9517,1853
9518,1857
9519,1866
9520,1861
9521,1841
9522,1851
9523,1849
9524,1865
9525,1857
9526,1877
9527,1839
9528,1858
9529,1858
9530,1872
9531,1865
9532,1855
9533,1856
9534,1857
9535,1851
9536,1856
9537,1866
9538,1851
9539,1855
9540,1865
9541,1861
9542,1845
9543,1854
9544,1854
9545,1850
9546,1847
9547,1870
9548,1854
9549,1857
9550,1859
9551,1853
9552,1869
9553,1867
9554,1867
9555,1862
9556,1998
9557,1817
9558,1828
9559,1814
9560,1831
9561,1845
9562,1846
9563,1853
9564,1851
9565,1839
9566,1848
9567,1855
9568,1856
9569,1856
9570,1851
9571,1841
9572,1847
9573,1867
9574,1860
9575,1856
9576,1854
9577,1870
9578,1861
9579,1879
9580,1882
9581,1870
9582,1855
9583,1861
9584,1858
9585,1856
9586,1855
9587,2144
9588,1829
9589,1806
9590,1835
9591,1821
9592,1823
9593,1836
9594,1833
9595,1853
9596,1849
9597,1863
9598,1839
9599,1851
9600,1849
9601,1854
9602,1858
9603,1844
9604,1846
9605,1850
9606,1847
9607,1856
9608,1851
9609,1865
9610,1856
9611,1843
9612,1861
9613,1858
9614,1840
9615,1861
9616,1856
9617,1866
9618,2235
9619,1829
9620,1810
9621,1827
9622,1819
9623,1840
9624,1866
9625,2000
9626,1989
9627,1846
9628,1787
9629,1819
9630,1810
9631,1805
9632,1827
9633,1833
9634,1828
9635,1838
9636,1837
9637,1856
9638,1839
9639,1851
9640,1848
9641,1853
9642,1850
9643,1854
9644,1845
9645,1857
9646,1870
9647,1854
9648,1843
9649,2384
9650,1834
9651,1811
9652,1825
9653,1834
9654,1845
9655,1842
9656,1839
9657,1854
9658,1853
9659,1840
9660,1847
9661,1855
9662,1840
9663,1845
9664,1850
9665,1859
9666,1856
9667,1845
9668,1854
9669,1871
9670,1867
9671,1855
9672,1875
9673,1870
9674,1857
9675,1861
9676,1865
9677,1855
9678,1854
9679,1867
9680,2582
9681,1857
9682,1813
9683,1826
9684,1815
9685,1830
9686,1851
9687,1968
9688,1929
9689,1807
9690,1808
9691,1818
9692,1814
9693,1838
9694,1846
9695,1838
9696,1843
9697,1852
9698,1847
9699,1851
9700,1856
9701,1863
9702,1859
9703,1856
9704,1857
9705,1851
9706,1860
9707,1856
9708,1855
9709,1859
9710,1851
9711,2670
9712,1855
9713,1795
9714,1818
9715,1823
9716,1854
9717,2077
9718,2066
9719,1914
9720,1769
9721,1769
9722,1771
9723,1782
9724,1808
9725,1815
9726,1827
9727,1825
9728,1831
9729,1855
9730,1831
9731,1835
9732,1847
9733,1847
9734,1843
9735,1847
9736,1857
9737,1847
9738,1859
9739,1838
9740,1858
9741,1870
9742,2394
9743,1865
9744,1812
9745,1822
9746,1819
9747,1838
9748,1834
9749,1898
9750,1862
9751,1821
9752,1840
9753,1831
9754,1825
9755,1837
9756,1838
9757,1847
9758,1843
9759,1851
9760,1846
9761,1861
9762,1856
9763,1854
9764,1859
9765,1840
9766,1855
9767,1862
9768,1859
9769,1863
9770,1866
9771,1863
9772,1872
9773,1947
9774,1873
9775,1818
9776,1827
9777,1811
9778,1833
9779,1843
9780,1826
9781,1833
9782,1840
9783,1839
9784,1840
9785,1846
9786,1861
9787,1847
9788,1853
9789,1851
9790,1858
9791,1859
9792,1872
9793,1853
9794,1863
9795,1870
9796,1857
9797,1856
9798,1841
9799,1859
9800,1862
9801,1856
9802,1841
9803,1869
9804,1846
9805,1907
9806,1823
9807,1811
9808,1835
9809,1825
9810,1829
9811,1840
9812,1847
9813,1850
9814,1841
9815,1839
9816,1849
9817,1845
9818,1856
9819,1840
9820,1851
9821,1838
9822,1849
9823,1869
9824,1857
9825,1859
9826,1865
9827,1869
9828,1863
9829,1879
9830,1856
9831,1846
9832,1859
9833,1856
9834,1854
9835,1859
9836,1942
9837,1810
9838,1824
9839,1816
9840,1829
9841,1827
9842,1847
9843,1835
9844,1829
9845,1840
9846,1843
9847,1836
9848,1840
9849,1847
9850,1855
9851,1865
9852,1855
9853,1865
9854,1867
9855,1843
9856,1851
9857,1861
9858,1856
9859,1856
9860,1857
9861,1858
9862,1856
9863,1865
9864,1861
9865,1870
9866,1866
9867,1987
9868,1819
9869,1818
9870,1818
9871,1823
9872,1829
9873,1834
9874,1842
9875,1845
9876,1835
9877,1860
9878,1851
9879,1863
9880,1853
9881,1855
9882,1856
9883,1866
9884,1863
9885,1858
9886,1840
9887,1866
9888,1855
9889,1870
9890,1857
9891,1856
9892,1851
9893,1863
9894,1856
9895,1866
9896,1857
9897,1872
9898,2079
9899,1816
9900,1812
9901,1818
9902,1841
9903,1827
9904,1831
9905,1846
9906,1840
9907,1852
9908,1840
9909,1840
9910,1849
9911,1840
9912,1860
9913,1856
9914,1862
9915,1855
9916,1856
9917,1853
9918,1861
9919,1855
9920,1871
9921,1847
9922,1858
9923,1879
9924,1855
9925,1858
9926,1851
9927,1873
9928,1851
9929,2191
9930,1829
9931,1833
9932,1813
9933,1831
9934,1819
9935,1834
9936,1842
9937,1826
9938,1843
9939,1859
9940,1859
9941,1851
9942,1862
9943,1862
9944,1854
9945,1856
9946,1853
9947,1852
9948,1862
9949,1863
9950,1861
9951,1871
9952,1855
9953,1863
9954,1865
9955,1861
9956,1851
9957,1857
9958,1857
9959,1869
9960,2240
9961,1820
9962,1809
9963,1801
9964,1822
9965,1837
9966,1833
9967,1841
9968,1840
9969,1831
9970,1843
9971,1848
9972,1838
9973,1869
9974,1853
9975,1859
9976,1867
9977,1855
9978,1855
9979,1850
9980,1859
9981,1865
9982,1871
9983,1863
9984,1856
9985,1870
9986,1869
9987,1850
9988,1855
9989,1862
9990,1857
9991,2512
9992,1824
9993,1808
9994,1809
9995,1823
9996,1833
9997,1839
9998,1984
9999,1853
10000,1825
10001,1817
10002,1830
10003,1839
10004,1846
10005,1856
10006,1842
10007,1846
10008,1843
10009,1842
10010,1861
10011,1862
10012,1856
10013,1853
10014,1868
10015,1856
10016,1856
10017,1843
10018,1851
10019,1871
10020,1869
10021,1847
10022,2614
10023,1839
10024,1808
10025,1815
10026,1815
10027,1819
10028,1841
10029,1850
10030,1840
10031,1838
10032,1843
10033,1847
10034,1857
10035,1856
10036,1860
10037,1857
10038,1862
10039,1846
10040,1843
10041,1858
10042,1854
10043,1851
10044,1875
10045,1863
10046,1854
10047,1845
10048,1859
10049,1861
10050,1862
10051,1861
10052,1849
10053,2352
10054,1847
10055,1808
10056,1821
10057,1831
10058,1840
10059,1835
10060,1995
10061,1871
10062,1820
10063,1825
10064,1840
10065,1811
10066,1840
10067,1850
10068,1840
10069,1849
10070,1847
10071,1850
10072,1856
10073,1837
10074,1856
10075,1856
10076,1845
10077,1872
10078,1853
10079,1853
10080,1864
10081,1861
10082,1863
10083,1845
10084,1939
10085,1882
10086,1813
10087,1817
10088,1832
10089,1830
10090,1830
10091,1838
10092,1854
10093,1846
10094,1834
10095,1861
10096,1841
10097,1858
10098,1841
10099,1855
10100,1858
10101,1857
10102,1863
10103,1870
10104,1861
10105,1869
10106,1856
10107,1855
10108,1853
10109,1857
10110,1851
10111,1856
10112,1852
10113,1867
10114,1847
10115,1860
10116,1888
10117,1802
10118,1814
10119,1837
10120,1834
10121,1839
10122,1829
10123,1878
10124,1840
10125,1841
10126,1830
10127,1845
10128,1847
10129,1866
10130,1856
10131,1851
10132,1857
10133,1841
10134,1847
10135,1858
10136,1861
10137,1860
10138,1862
10139,1869
10140,1866
10141,1847
10142,1864
10143,1845
10144,1858
10145,1851
10146,1859
10147,1922
10148,1810
10149,1814
10150,1819
10151,1827
10152,1830
10153,1827
10154,1841
10155,1846
10156,1840
10157,1849
10158,1857
10159,1843
10160,1857
10161,1856
10162,1843
10163,1867
10164,1862
10165,1861
10166,1853
10167,1868
10168,1857
10169,1854
10170,1860
10171,1855
10172,1843
10173,1847
10174,1859
10175,1856
10176,1864
10177,1883
10178,1862
10179,1856
10180,1882
10181,1856
10182,1856
10183,1866
10184,1855
10185,1862
10186,1878
10187,1872
10188,1870
10189,1871
10190,1850
10191,1855
10192,1872
10193,1858
10194,1887
10195,1872
10196,1868
10197,1872
10198,1859
10199,1859
10200,1858
10201,1866
10202,1866
10203,1851
10204,1860
10205,1849
10206,1855
10207,1867
10208,1871
10209,1853
10210,1852
10211,1870
10212,1871
10213,1850
10214,1841
10215,1842
10216,1860
10217,1859
10218,1857
10219,1851
10220,1856
10221,1852
10222,1858
10223,1850
10224,1858
10225,1862
10226,1866
10227,1859
10228,1869
10229,1850
10230,1867
10231,1861
10232,1856
10233,1867
10234,1855
10235,1858
10236,1862
10237,1851
10238,1847
10239,1870
10240,1862
10241,1869
10242,1855
10243,1857
10244,1853
10245,1860
10246,1870
10247,1871
10248,1847
10249,1861
10250,1862
10251,1873
10252,1858
10253,1867
10254,1864
10255,1862
10256,1837
10257,1865
10258,1860
10259,1871
10260,1861
10261,1845
10262,1877
10263,1887
10264,1911
10265,1920
10266,1866
10267,1840
10268,1851
10269,1857
10270,1844
10271,1850
10272,1854
10273,1874
10274,1857
10275,1869
10276,1891
10277,1905
10278,1889
10279,1851
10280,1849
10281,1831
10282,1856
10283,1843
10284,1845
10285,1846
10286,1855
10287,1851
10288,1857
10289,1850
10290,1857
10291,1860
10292,1855
10293,1858
10294,1869
10295,1871
10296,1863
10297,1869
10298,1871
10299,1862
10300,1856
10301,1853
10302,1845
10303,1850
10304,1863
10305,1872
10306,1856
10307,1855
10308,1857
10309,1851
10310,1857
10311,1847
10312,1858
10313,1859
10314,1846
10315,1871
10316,1859
10317,1854
10318,1860
10319,1856
10320,1859
10321,1859
10322,1856
10323,1845
10324,1856
10325,1855
10326,1867
10327,1858
10328,1855
10329,1869
10330,1847
10331,1863
10332,1861
10333,1866
10334,1856
10335,1855
10336,1863
10337,1865
10338,1869
10339,1863
10340,1839
10341,1857
10342,1855
10343,1857
10344,1842
10345,1872
10346,1856
10347,1857
10348,1866
10349,1861
10350,1856
10351,1872
10352,1842
10353,1856
10354,1859
10355,1871
10356,1869
10357,1867
10358,1855
10359,1872
10360,1863
10361,1864
10362,1851
10363,1871
10364,1865
10365,1858
10366,1858
10367,1867
10368,1850
10369,1863
10370,1856
10371,1868
10372,1876
10373,1876
10374,1861
10375,1861
10376,1867
10377,1868
10378,1857
10379,1862
10380,1860
10381,1872
10382,1865
10383,1849
10384,1863
10385,1862
10386,1860
10387,1857
10388,1871
10389,1856
10390,1875
10391,1866
10392,1869
10393,1864
10394,1864
10395,1861
10396,1872
10397,1834
10398,1856
10399,1862
10400,1865
10401,1855
10402,1856
10403,1869
10404,1868
10405,1855
10406,1861
10407,1867
10408,1861
10409,1870
10410,1862
10411,1872
10412,1857
10413,1838
10414,1872
10415,1857
10416,1862
10417,1853
10418,1867
10419,1839
10420,1854
10421,1847
10422,1856
10423,1894
10424,1857
10425,1856
10426,1865
10427,1873
10428,1845
10429,1877
10430,1859
10431,1865
10432,1861
10433,1855
10434,1862
10435,1865
10436,1866
10437,1846
10438,1849
10439,1855
10440,1870
10441,1857
10442,1868
10443,1842
10444,1848
10445,1851
10446,1846
10447,1872
10448,1863
10449,1856
10450,1857
10451,1863
10452,1876
10453,1855
10454,1865
10455,1855
10456,1850
10457,1858
10458,1856
10459,1861
10460,1866
10461,1853
10462,1856
10463,1871
10464,1844
10465,1853
10466,1862
10467,1861
10468,1851
10469,1864
10470,1861
10471,1859
10472,1855
10473,1847
10474,1863
10475,1859
10476,1872
10477,1857
10478,1856
10479,1856
10480,1859
10481,1853
10482,1870
10483,1870
10484,1866
10485,1863
10486,1857
10487,1872
10488,1855
10489,1863
10490,1870
10491,1857
10492,1855
10493,1872
10494,1857
10495,1867
10496,1859
10497,1857
10498,1859
10499,1863
10500,1856
10501,1850
10502,1855
10503,1859
10504,1863
10505,1862
10506,1872
10507,1855
10508,1861
10509,1857
10510,1859
10511,1853
10512,1869
10513,1850
10514,1840
10515,1879
10516,1863
10517,1866
10518,1857
10519,1853
10520,1857
10521,1863
10522,1870
10523,1855
10524,1855
10525,1861
10526,1857
10527,1860
10528,1862
10529,1858
10530,1851
10531,1842
10532,1851
10533,1862
10534,1859
10535,1862
10536,1871
10537,1867
10538,1847
10539,1843
10540,1858
10541,1867
10542,1855
10543,1862
10544,1860
10545,1857
10546,1856
10547,1863
10548,1872
10549,1861
10550,1859
10551,1855
10552,1866
10553,1862
10554,1861
10555,1853
10556,1857
10557,1857
10558,1855
10559,1857
10560,1855
10561,1858
10562,1851
10563,1862
10564,1883
10565,1872
10566,1852
10567,1866
10568,1854
10569,1867
10570,1870
10571,1867
10572,1879
10573,1873
10574,1863
10575,1859
10576,1869
10577,1867
10578,1865
10579,1855
10580,1879
10581,1865
10582,1856
10583,1872
10584,1862
10585,1861
10586,1863
10587,1851
10588,1857
10589,1856
10590,1858
10591,1863
10592,1853
10593,1858
10594,1861
10595,1851
10596,1858
10597,1865
10598,1860
10599,1857
10600,1866
10601,1875
10602,1875
10603,1856
10604,1867
10605,1871
10606,1854
10607,1863
10608,1867
10609,1858
10610,1861
10611,1846
10612,1859
10613,1869
10614,1873
10615,1858
10616,1858
10617,1855
10618,1856
10619,1870
10620,1855
10621,1858
10622,1841
10623,1847
10624,1853
10625,1858
10626,1847
10627,1853
10628,1855
10629,1875
10630,1856
10631,1861
10632,1861
10633,1858
10634,1850
10635,1863
10636,1850
10637,1874
10638,1867
10639,1856
10640,1856
10641,1869
10642,1855
10643,1866
10644,1853
10645,1868
10646,1866
10647,1860
10648,1866
10649,1862
10650,1863
10651,1845
10652,1854
10653,1853
10654,1842
10655,1855
10656,1853
10657,1866
10658,1870
10659,1861
10660,1856
10661,1853
10662,1849
10663,1867
10664,1866
10665,1863
10666,1863
10667,1856
10668,1859
10669,1843
10670,1858
10671,1868
10672,1861
10673,1877
10674,1863
10675,1863
10676,1869
10677,1862
10678,1853
10679,1856
10680,1869
10681,1863
10682,1863
10683,1859
10684,1855
10685,1853
10686,1842
10687,1861
10688,1866
10689,1863
10690,1858
10691,1858
10692,1861
10693,1856
10694,1855
10695,1863
10696,1851
10697,1871
10698,1847
10699,1865
10700,1866
10701,1870
10702,1874
10703,1865
10704,1872
10705,1857
10706,1875
10707,1867
10708,1869
10709,1853
10710,1851
10711,1857
10712,1858
10713,1854
10714,1866
10715,1867
10716,1860
10717,1869
10718,1861
10719,1859
10720,1867
10721,1857
10722,1842
10723,1830
10724,1859
10725,1861
10726,1856
10727,1870
10728,1858
10729,1871
10730,1871
10731,1877
10732,1859
10733,1872
10734,1855
10735,1856
10736,1870
10737,1869
10738,1851
10739,1850
10740,1869
10741,1866
10742,1850
10743,1843
10744,1841
10745,1854
10746,1857
10747,1852
10748,1851
10749,1856
10750,1862
10751,1866
10752,1844
10753,1862
10754,1856
10755,1837
10756,1840
10757,1859
10758,1866
10759,1874
10760,1861
10761,1867
10762,1871
10763,1855
10764,1856
10765,1859
10766,1871
10767,1865
10768,1869
10769,1860
10770,1851
10771,1856
10772,1871
10773,1869
10774,1863
10775,1861
10776,1849
10777,1856
10778,1855
10779,1856
10780,1872
10781,1855
10782,1863
10783,1856
10784,1872
10785,1856
10786,1867
10787,1870
10788,1863
10789,1856
10790,1860
10791,1863
10792,1858
10793,1866
10794,1855
10795,1859
10796,1869
10797,1851
10798,1871
10799,1859
10800,1858
10801,1854
10802,1868
10803,1858
10804,1851
10805,1857
10806,1855
10807,1865
10808,1862
10809,1849
10810,1854
10811,1850
10812,1860
10813,1863
10814,1845
10815,1864
10816,1856
10817,1851
10818,1863
10819,1860
10820,1855
10821,1864
10822,1868
10823,1863
10824,1861
10825,1865
10826,1872
10827,1856
10828,1867
10829,1856
10830,1866
10831,1851
10832,1846
10833,1851
10834,1854
10835,1853
10836,1871
10837,1853
10838,1847
10839,1855
10840,1855
10841,1860
10842,1858
10843,1870
10844,1872
10845,1860
10846,1865
10847,1857
10848,1875
10849,1863
10850,1862
10851,1862
10852,1858
10853,1862
10854,1867
10855,1862
10856,1862
10857,1856
10858,1853
10859,1867
10860,1856
10861,1855
10862,1857
10863,1870
10864,1872
10865,1856
10866,1856
10867,1860
10868,1855
10869,1857
10870,1872
10871,1865
10872,1869
10873,1867
10874,1859
10875,1863
10876,1858
10877,1856
10878,1858
10879,1867
10880,1872
10881,1872
10882,1857
10883,1872
10884,1857
10885,1856
10886,1853
10887,1858
10888,1859
10889,1861
10890,1854
10891,1856
10892,1862
10893,1855
10894,1857
10895,1858
10896,1856
10897,1872
10898,1862
10899,1862
10900,1862
10901,1850
10902,1872
10903,1870
10904,1868
10905,1872
10906,1856
10907,1853
10908,1856
10909,1866
10910,1863
10911,1863
10912,1869
10913,1853
10914,1867
10915,1879
10916,1857
10917,1867
10918,1856
10919,1840
10920,1850
10921,1854
10922,1853
10923,1861
10924,1856
10925,1856
10926,1845
10927,1875
10928,1870
10929,1873
10930,1872
10931,1853
10932,1863
10933,1851
10934,1857
10935,1863
10936,1870
10937,1853
10938,1852
10939,1861
10940,1865
10941,1869
10942,1862
10943,1863
10944,1872
10945,1863
10946,1867
10947,1844
10948,1872
10949,1867
10950,1863
10951,1869
10952,1872
10953,1857
10954,1855
10955,1853
10956,1855
10957,1857
10958,1852
10959,1863
10960,1853
10961,1853
10962,1870
10963,1851
10964,1858
10965,1856
10966,1858
10967,1865
10968,1853
10969,1865
10970,1866
10971,1848
10972,1861
10973,1875
10974,1856
10975,1863
10976,1868
10977,1847
10978,1861
10979,1856
10980,1864
10981,1870
10982,1862
10983,1863
10984,1870
10985,1859
10986,1860
10987,1872
10988,1872
10989,1864
10990,1862
10991,1865
10992,1869
10993,1858
10994,1879
10995,1866
10996,1871
10997,1891
10998,1872
10999,1857
11000,1867
11001,1871
11002,1856
11003,1862
11004,1857
11005,1866
11006,1851
11007,1855
11008,1859
11009,1858
11010,1851
11011,1854
11012,1869
11013,1871
11014,1885
11015,1857
11016,1874
11017,1853
11018,1846
11019,1840
11020,1852
11021,1861
11022,1869
11023,1847
11024,1857
11025,1858
11026,1851
11027,1849
11028,1852
11029,1853
11030,1861
11031,1856
11032,1854
11033,1858
11034,1859
11035,1856
11036,1856
11037,1858
11038,1858
11039,1867
11040,1856
11041,1858
11042,1847
11043,1843
11044,1838
11045,1840
11046,1860
11047,1828
11048,1851
11049,1859
11050,1857
11051,1869
11052,1872
11053,1872
11054,1856
11055,1869
11056,1859
11057,1856
11058,1869
11059,1872
11060,1867
11061,1867
11062,1867
11063,1861
11064,1859
11065,1867
11066,1866
11067,1858
11068,1863
11069,1870
11070,1857
11071,1851
11072,1855
11073,1867
11074,1863
11075,1865
11076,1874
11077,1878
11078,1884
11079,1858
11080,1872
11081,1876
11082,1865
11083,1855
11084,1853
11085,1853
11086,1863
11087,1847
11088,1852
11089,1868
11090,1861
11091,1869
11092,1872
11093,1874
11094,1883
11095,1866
11096,1852
11097,1841
11098,1862
11099,1859
11100,1853
11101,1843
11102,1867
11103,1863
11104,1856
11105,1859
11106,1860
11107,1861
11108,1860
11109,1856
11110,1866
11111,1869
11112,1867
11113,1874
11114,1889
11115,1861
11116,1871
11117,1863
11118,1845
11119,1849
11120,1853
11121,1856
11122,1871
11123,1858
11124,1854
11125,1862
11126,1851
11127,1878
11128,1863
11129,1863
11130,1859
11131,1857
11132,1849
11133,1856
11134,1859
11135,1850
11136,1857
11137,1862
11138,1861
11139,1871
11140,1859
11141,1865
11142,1870
11143,1883
11144,1869
11145,1862
11146,1860
11147,1862
11148,1843
11149,1853
11150,1854
11151,1856
11152,1871
11153,1855
11154,1858
11155,1858
11156,1852
11157,1865
11158,1867
11159,1861
11160,1865
11161,1866
11162,1865
11163,1858
11164,1845
11165,1846
11166,1857
11167,1859
11168,1867
11169,1870
11170,1856
11171,1853
11172,1953
11173,1890
11174,1814
11175,1814
11176,1815
11177,1834
11178,1842
11179,1827
11180,1846
11181,1839
11182,1855
11183,1851
11184,1849
11185,1854
11186,1859
11187,1846
11188,1856
11189,1845
11190,1840
11191,1856
11192,1862
11193,1859
11194,1872
11195,1914
11196,1938
11197,1853
11198,1841
11199,1844
11200,1847
11201,1850
11202,1856
11203,1849
11204,1911
11205,1793
11206,1797
11207,1823
11208,1821
11209,1825
11210,1840
11211,1841
11212,1850
11213,1840
11214,1846
11215,1846
11216,1843
11217,1851
11218,1847
11219,1853
11220,1862
11221,1857
11222,1854
11223,1859
11224,1854
11225,1853
11226,1859
11227,1851
11228,1845
11229,1853
11230,1871
11231,1863
11232,1850
11233,1870
11234,1855
11235,1969
11236,1821
11237,1808
11238,1815
11239,1819
11240,1825
11241,1836
11242,1842
11243,1846
11244,1856
11245,1853
11246,1850
11247,1856
11248,1859
11249,1857
11250,1856
11251,1856
11252,1841
11253,1859
11254,1856
11255,1861
11256,1871
11257,1855
11258,1856
11259,1866
11260,1861
11261,1847
11262,1853
11263,1856
11264,1853
11265,1855
11266,2032
11267,1827
11268,1816
11269,1827
11270,1840
11271,1839
11272,1920
11273,1987
11274,1936
11275,1819
11276,1805
11277,1819
11278,1819
11279,1838
11280,1840
11281,1839
11282,1849
11283,1846
11284,1847
11285,1850
11286,1858
11287,1861
11288,1856
11289,1847
11290,1862
11291,1858
11292,1863
11293,1856
11294,1850
11295,1859
11296,1863
11297,2110
11298,1797
11299,1822
11300,1824
11301,1823
11302,1850
11303,2032
11304,2000
11305,1904
11306,1795
11307,1801
11308,1808
11309,1810
11310,1813
11311,1808
11312,1817
11313,1824
11314,1809
11315,1847
11316,1840
11317,1851
11318,1847
11319,1856
11320,1847
11321,1842
11322,1862
11323,1853
11324,1857
11325,1857
11326,1856
11327,1855
11328,2147
11329,1831
11330,1834
11331,1828
11332,1819
11333,1831
11334,1859
11335,1936
11336,1835
11337,1810
11338,1819
11339,1829
11340,1831
11341,1842
11342,1846
11343,1840
11344,1841
11345,1853
11346,1856
11347,1853
11348,1851
11349,1859
11350,1859
11351,1859
11352,1869
11353,1856
11354,1856
11355,1869
11356,1850
11357,1869
11358,1863
11359,2381
11360,1829
11361,1813
11362,1813
11363,1838
11364,1834
11365,1968
11366,1959
11367,1827
11368,1816
11369,1825
11370,1835
11371,1830
11372,1831
11373,1840
11374,1835
11375,1840
11376,1834
11377,1850
11378,1851
11379,1855
11380,1841
11381,1844
11382,1847
11383,1859
11384,1865
11385,1851
11386,1850
11387,1846
11388,1852
11389,1874
11390,2466
11391,1829
11392,1809
11393,1814
11394,1824
11395,1838
11396,1949
11397,1950
11398,1857
11399,1821
11400,1816
11401,1838
11402,1823
11403,1835
11404,1815
11405,1839
11406,1834
11407,1850
11408,1846
11409,1857
11410,1849
11411,1853
11412,1854
11413,1861
11414,1862
11415,1855
11416,1861
11417,1854
11418,1865
11419,1872
11420,1856
11421,2742
11422,1847
11423,1828
11424,1811
11425,1828
11426,1820
11427,1843
11428,1941
11429,1872
11430,1822
11431,1821
11432,1828
11433,1830
11434,1839
11435,1840
11436,1844
11437,1856
11438,1860
11439,1845
11440,1856
11441,1849
11442,1845
11443,1853
11444,1871
11445,1857
11446,1862
11447,1859
11448,1829
11449,1863
11450,1860
11451,1872
11452,2493
11453,1850
11454,1824
11455,1821
11456,1805
11457,1840
11458,1841
11459,1835
11460,1847
11461,1834
11462,1852
11463,1840
11464,1845
11465,1821
11466,1851
11467,1856
11468,1850
11469,1857
11470,1856
11471,1847
11472,1855
11473,1887
11474,1865
11475,1858
11476,1860
11477,1867
11478,1858
11479,1868
11480,1855
11481,1856
11482,1858
11483,1900
11484,1873
11485,1813
11486,1814
11487,1817
11488,1829
11489,1829
11490,1846
11491,1865
11492,1835
11493,1845
11494,1838
11495,1843
11496,1861
11497,1852
11498,1855
11499,1858
11500,1859
11501,1866
11502,1856
11503,1855
11504,1856
11505,1855
11506,1853
11507,1862
11508,1866
11509,1855
11510,1869
11511,1858
11512,1853
11513,1861
11514,1851
11515,1893
11516,1809
11517,1807
11518,1823
11519,1840
11520,1830
11521,1963
11522,1901
11523,1831
11524,1819
11525,1828
11526,1835
11527,1830
11528,1842
11529,1846
11530,1843
11531,1857
11532,1840
11533,1846
11534,1841
11535,1856
11536,1846
11537,1845
11538,1853
11539,1860
11540,1859
11541,1861
11542,1858
11543,1866
11544,1847
11545,1862
11546,1919
11547,1808
11548,1819
11549,1830
11550,1835
11551,1829
11552,1858
11553,1935
11554,1833
11555,1830
11556,1838
11557,1826
11558,1840
11559,1838
11560,1854
11561,1846
11562,1846
11563,1840
11564,1823
11565,1845
11566,1865
11567,1855
11568,1847
11569,1852
11570,1867
11571,1857
11572,1859
11573,1865
11574,1865
11575,1864
11576,1853
11577,1968
11578,1826
11579,1821
11580,1822
11581,1837
11582,1825
11583,1840
11584,1904
11585,1842
11586,1828
11587,1838
11588,1837
11589,1856
11590,1840
11591,1851
11592,1845
11593,1853
11594,1831
11595,1855
11596,1853
11597,1867
11598,1877
11599,1856
11600,1861
11601,1853
11602,1860
11603,1861
11604,1851
11605,1870
11606,1879
11607,1850
11608,2079
11609,1815
11610,1807
11611,1818
11612,1834
11613,1840
11614,1840
11615,1841
11616,1847
11617,1849
11618,1840
11619,1829
11620,1847
11621,1856
11622,1854
11623,1852
11624,1857
11625,1856
11626,1861
11627,1866
11628,1857
11629,1873
11630,1872
11631,1854
11632,1860
11633,1863
11634,1859
11635,1853
11636,1847
11637,1856
11638,1865
11639,2181
11640,1811
11641,1806
11642,1814
11643,1818
11644,1817
11645,1862
11646,1968
11647,1827
11648,1817
11649,1825
11650,1831
11651,1854
11652,1838
11653,1845
11654,1850
11655,1855
11656,1844
11657,1856
11658,1853
11659,1857
11660,1859
11661,1856
11662,1858
11663,1870
11664,1859
11665,1877
11666,1853
11667,1856
11668,1856
11669,1857
11670,2247
11671,1811
11672,1810
11673,1812
11674,1828
11675,1847
11676,2034
11677,2014
11678,1797
11679,1795
11680,1794
11681,1799
11682,1811
11683,1826
11684,1823
11685,1827
11686,1834
11687,1840
11688,1843
11689,1841
11690,1851
11691,1858
11692,1854
11693,1869
11694,1851
11695,1858
11696,1855
11697,1873
11698,1852
11699,1861
11700,1855
11701,2512
11702,1827
11703,1809
11704,1817
11705,1831
11706,1811
11707,1840
11708,1866
11709,1863
11710,1840
11711,1851
11712,1855
11713,1856
11714,1854
11715,1840
11716,1859
11717,1861
11718,1846
11719,1856
11720,1854
11721,1902
11722,1904
11723,1861
11724,1853
11725,1851
11726,1835
11727,1845
11728,1860
11729,1863
11730,1844
11731,1847
11732,2789
11733,1839
11734,1805
11735,1807
11736,1825
11737,1833
11738,1888
11739,2006
11740,1837
11741,1814
11742,1822
11743,1822
11744,1822
11745,1840
11746,1840
11747,1846
11748,1839
11749,1843
11750,1855
11751,1842
11752,1846
11753,1856
11754,1851
11755,1869
11756,1862
11757,1855
11758,1860
11759,1869
11760,1862
11761,1854
11762,1872
11763,2341
11764,1859
11765,1814
11766,1809
11767,1829
11768,1823
11769,1827
11770,1965
11771,1873
11772,1845
11773,1826
11774,1827
11775,1838
11776,1834
11777,1861
11778,1854
11779,1841
11780,1840
11781,1849
11782,1859
11783,1898
11784,1865
11785,1853
11786,1856
11787,1859
11788,1858
11789,1851
11790,1845
11791,1853
11792,1858
11793,1867
11794,1861
11795,1853
11796,1850
11797,1856
11798,1865
11799,1866
11800,1869
11801,1876
11802,1861
11803,1865
11804,1877
11805,1886
11806,1875
11807,1893
11808,1887
11809,1894
11810,1878
11811,1866
11812,1866
11813,1867
11814,1836
11815,1855
11816,1830
11817,1850
11818,1846
11819,1849
11820,1854
11821,1837
11822,1865
11823,1876
11824,1878
11825,1875
11826,1895
11827,1872
11828,1860
11829,1871
11830,1863
11831,1856
11832,1847
11833,1849
11834,1865
11835,1861
11836,1860
11837,1862
11838,1867
11839,1872
11840,1869
11841,1866
11842,1870
11843,1878
11844,1874
11845,1863
11846,1857
11847,1841
11848,1840
11849,1847
11850,1842
11851,1837
11852,1840
11853,1856
11854,1865
11855,1875
11856,1853
11857,1876
11858,1876
11859,1871
11860,1872
11861,1885
11862,1874
11863,1867
11864,1850
11865,1854
11866,1855
11867,1841
11868,1859
11869,1853
11870,1872
11871,1872
11872,1868
11873,1872
11874,1872
11875,1862
11876,1893
11877,1894
11878,1872
11879,1857
11880,1862
11881,1872
11882,1866
11883,1867
11884,1849
11885,1829
11886,1834
11887,1833
11888,1873
11889,1898
11890,1923
11891,1903
11892,1888
11893,1851
11894,1840
11895,1840
11896,1854
11897,1855
11898,1850
11899,1851
11900,1846
11901,1835
11902,1876
11903,1870
11904,1882
11905,1887
11906,1869
11907,1853
11908,1849
11909,1843
11910,1863
11911,1868
11912,1856
11913,1857
11914,1856
11915,1840
11916,1850
