Time(ms),Raw_ADC
0,1867
1,1879
2,1891
3,1863
4,1891
5,1851
6,1839
7,1867
8,1854
9,1840
10,1829
11,1836
12,1817
13,1872
14,1857
15,1882
16,1869
17,1861
18,1872
19,1874
20,1872
21,1870
22,1852
23,1840
24,1859
25,1840
26,1822
27,1828
28,1838
29,1858
30,1869
31,1857
32,1885
33,1886
34,1885
35,1875
36,1879
37,1895
38,1858
39,1846
40,1826
41,1840
42,1833
43,1825
44,1841
45,1840
46,1872
47,1872
48,1874
49,1898
50,1887
51,1875
52,1872
53,1877
54,1898
55,1854
56,1827
57,1834
58,1839
59,1825
60,1833
61,1838
62,1839
63,1872
64,1872
65,1889
66,1879
67,1885
68,1879
69,1881
70,1877
71,1872
72,1843
73,1833
74,1856
75,1851
76,1836
77,1830
78,1841
79,1851
80,1854
81,1872
82,1872
83,1893
84,1872
85,1874
86,1867
87,1873
88,1857
89,1840
90,1823
91,1831
92,1838
93,1820
94,1823
95,1847
96,1881
97,1863
98,1871
99,1887
100,1908
101,1894
102,1885
103,1914
104,1917
105,1836
106,1811
107,1872
108,1826
109,1823
110,1830
111,1840
112,1847
113,1867
114,1883
115,1883
116,1911
117,1872
118,1872
119,1879
120,1872
121,1872
122,1855
123,1839
124,1851
125,1840
126,1819
127,1835
128,1857
129,1857
130,1872
131,1871
132,1871
133,1889
134,1881
135,1883
136,1874
137,1876
138,1867
139,1838
140,1851
141,1842
142,1837
143,1822
144,1819
145,1838
146,1856
147,1852
148,1863
149,1902
150,1882
151,1872
152,1872
153,1876
154,1894
155,1851
156,1846
157,1840
158,1840
159,1830
160,1815
161,1831
162,1857
163,1870
164,1872
165,1887
166,1899
167,1882
168,1883
169,1879
170,1902
171,1886
172,1847
173,1841
174,1838
175,1838
176,1831
177,1825
178,1853
179,1846
180,1871
181,1867
182,1872
183,1892
184,1872
185,1875
186,1874
187,1874
188,1866
189,1851
190,1855
191,1845
192,1831
193,1823
194,1834
195,1834
196,1879
197,1863
198,1873
199,1883
200,1900
201,1878
202,1882
203,1876
204,1887
205,1840
206,1808
207,1808
208,1840
209,1812
210,1819
211,1837
212,1866
213,1870
214,1871
215,1877
216,1891
217,1878
218,1872
219,1868
220,1875
221,1872
222,1857
223,1851
224,1874
225,1847
226,1840
227,1826
228,1851
229,1859
230,1869
231,1867
232,1903
233,1889
234,1875
235,1873
236,1884
237,1875
238,1843
239,1825
240,1843
241,1843
242,1833
243,1829
244,1850
245,1847
246,1887
247,1874
248,1879
249,1875
250,1881
251,1883
252,1872
253,1884
254,1887
255,1861
256,1831
257,1831
258,1859
259,1830
260,1822
261,1810
262,1849
263,1873
264,1857
265,1872
266,1874
267,1879
268,1875
269,1875
270,1885
271,1892
272,1861
273,1840
274,1826
275,1840
276,1825
277,1833
278,1850
279,1840
280,1871
281,1871
282,1869
283,1875
284,1877
285,1885
286,1872
287,1892
288,1870
289,1843
290,1840
291,1838
292,1847
293,1822
294,1811
295,1830
296,1854
297,1869
298,1853
299,1881
300,1894
301,1890
302,1885
303,1887
304,1885
305,1862
306,1849
307,1831
308,1843
309,1834
310,1819
311,1841
312,1838
313,1873
314,1867
315,1861
316,1923
317,1887
318,1873
319,1886
320,1904
321,1882
322,1863
323,1841
324,1884
325,1830
326,1815
327,1819
328,1831
329,1829
330,1853
331,1871
332,1863
333,1881
334,1883
335,1882
336,1867
337,1895
338,1870
339,1857
340,1833
341,1866
342,1824
343,1826
344,1833
345,1855
346,1859
347,1874
348,1872
349,1872
350,1890
351,1872
352,1879
353,1867
354,1901
355,1857
356,1842
357,1817
358,1870
359,1829
360,1825
361,1825
362,1834
363,1873
364,1867
365,1870
366,1883
367,1877
368,1877
369,1885
370,1885
371,1879
372,1856
373,1843
374,1830
375,1827
376,1831
377,1830
378,1853
379,1829
380,1863
381,1871
382,1872
383,1907
384,1881
385,1877
386,1898
387,1862
388,1865
389,1837
390,1849
391,1825
392,1827
393,1827
394,1834
395,1850
396,1856
397,1862
398,1869
399,1535
400,1395
401,1965
402,1985
403,1938
404,1933
405,1904
406,1872
407,1874
408,1858
409,1799
410,1760
411,1796
412,1827
413,1882
414,1911
415,1975
416,2160
417,2366
418,2673
419,2832
420,2713
421,2409
422,1979
423,1517
424,1131
425,911
426,1005
427,1295
428,1555
429,1663
430,2112
431,1104
432,1879
433,1941
434,1943
435,1936
436,1935
437,1872
438,1903
439,1843
440,1761
441,1775
442,1822
443,1873
444,1919
445,1993
446,2209
447,2502
448,2806
449,2880
450,2604
451,2130
452,1650
453,1145
454,866
455,1001
456,1349
457,1593
458,1715
459,1754
460,1781
461,2739
462,977
463,1897
464,2003
465,2005
466,1996
467,1981
468,1931
469,1936
470,1881
471,1883
472,1899
473,1911
474,1906
475,1961
476,2047
477,2283
478,2605
479,2813
480,2681
481,2290
482,1785
483,1296
484,901
485,991
486,1346
487,1578
488,1683
489,1760
490,1790
491,1830
492,2198
493,858
494,1830
495,1968
496,1936
497,1931
498,1925
499,1950
500,1971
501,1923
502,1879
503,1922
504,1956
505,1949
506,1968
507,2082
508,2306
509,2623
510,2793
511,2638
512,2161
513,1659
514,1119
515,829
516,1110
517,1421
518,1655
519,1773
520,1808
521,1858
522,1857
523,1881
524,763
525,1764
526,1968
527,1962
528,1931
529,1891
530,1888
531,1905
532,1863
533,1888
534,1859
535,1930
536,1997
537,2084
538,2178
539,2367
540,2690
541,2861
542,2602
543,2067
544,1492
545,1018
546,826
547,1092
548,1442
549,1629
550,1763
551,1782
552,1834
553,1873
554,1898
555,981
556,1677
557,2021
558,2010
559,1925
560,1840
561,1829
562,1885
563,1984
564,2047
565,2007
566,2013
567,1936
568,1849
569,1990
570,2363
571,2749
572,2889
573,2559
574,1999
575,1471
576,939
577,784
578,1072
579,1429
580,1663
581,1762
582,1808
583,1871
584,1870
585,1891
586,1141
587,1600
588,1984
589,1959
590,1911
591,1885
592,1849
593,1869
594,1875
595,1901
596,1904
597,1923
598,1983
599,2083
600,2213
601,2491
602,2816
603,2927
604,2593
605,2064
606,1430
607,896
608,880
609,1127
610,1458
611,1637
612,1718
613,1794
614,1837
615,1887
616,1915
617,1487
618,1427
619,1982
620,1981
621,1975
622,1909
623,1885
624,1856
625,1869
626,1776
627,1775
628,1863
629,1967
630,2021
631,2167
632,2435
633,2779
634,2875
635,2619
636,2084
637,1482
638,1006
639,889
640,1191
641,1450
642,1629
643,1697
644,1758
645,1818
646,1854
647,1875
648,2471
649,1132
650,1895
651,1955
652,1934
653,1919
654,1920
655,1947
656,1966
657,1894
658,1859
659,1872
660,1890
661,1968
662,2114
663,2382
664,2738
665,2899
666,2623
667,2176
668,1571
669,1037
670,898
671,1197
672,1515
673,1628
674,1683
675,1745
676,1763
677,1785
678,1824
679,2503
680,947
681,1877
682,1993
683,2000
684,1941
685,1937
686,1967
687,1950
688,1894
689,1887
690,1879
691,1915
692,1967
693,2047
694,2241
695,2621
696,2815
697,2596
698,2186
699,1635
700,1232
701,1075
702,1302
703,1506
704,1651
705,1597
706,1677
707,1759
708,1837
709,1834
710,1902
711,816
712,1810
713,1988
714,1958
715,1975
716,1993
717,2032
718,2006
719,1875
720,1856
721,1857
722,1827
723,1879
724,2061
725,2299
726,2559
727,2736
728,2586
729,2176
730,1657
731,1167
732,1072
733,1308
734,1565
735,1671
736,1663
737,1695
738,1765
739,1807
740,1840
741,1881
742,795
743,1758
744,1939
745,1936
746,1891
747,1913
748,1943
749,1969
750,1906
751,1863
752,1884
753,1939
754,1982
755,2112
756,2320
757,2624
758,2816
759,2646
760,2171
761,1535
762,1057
763,951
764,1233
765,1535
766,1738
767,1780
768,1753
769,1772
770,1808
771,1850
772,1856
773,1034
774,1584
775,1993
776,1967
777,1915
778,1892
779,1933
780,2011
781,1950
782,1940
783,1961
784,1899
785,1840
786,1982
787,2261
788,2518
789,2729
790,2666
791,2267
792,1769
793,1169
794,939
795,1171
796,1459
797,1675
798,1712
799,1726
800,1780
801,1836
802,1863
803,1904
804,1351
805,1504
806,1954
807,1950
808,1944
809,1887
810,1868
811,1919
812,1889
813,1825
814,1794
815,1825
816,1938
817,2083
818,2247
819,2551
820,2893
821,2783
822,2403
823,1808
824,1264
825,1017
826,1077
827,1387
828,1643
829,1705
830,1713
831,1714
832,1763
833,1809
834,1843
835,1648
836,1371
837,1930
838,1937
839,1893
840,1869
841,1902
842,1968
843,1866
844,1808
845,1841
846,1891
847,2005
848,2110
849,2266
850,2506
851,2758
852,2755
853,2453
854,1891
855,1232
856,883
857,1078
858,1422
859,1583
860,1669
861,1742
862,1782
863,1828
864,1865
865,1911
866,2347
867,1131
868,1890
869,1942
870,1910
871,1923
872,1895
873,1952
874,1904
875,1835
876,1866
877,1904
878,1982
879,2067
880,2182
881,2399
882,2659
883,2702
884,2443
885,1910
886,1360
887,1056
888,1201
889,1424
890,1631
891,1683
892,1679
893,1695
894,1729
895,1782
896,1833
897,2369
898,945
899,1881
900,1991
901,1939
902,1907
903,1941
904,1978
905,1918
906,1812
907,1802
908,1843
909,1957
910,2047
911,2177
912,2413
913,2659
914,2734
915,2477
916,1999
917,1426
918,1061
919,1103
920,1328
921,1600
922,1680
923,1713
924,1759
925,1811
926,1793
927,1779
928,1814
929,803
930,1791
931,1987
932,1965
933,1978
934,1939
935,1947
936,1867
937,1831
938,1881
939,1907
940,1974
941,2123
942,2174
943,2288
944,2517
945,2659
946,2514
947,2075
948,1522
949,1104
950,1104
951,1325
952,1599
953,1753
954,1782
955,1801
956,1767
957,1769
958,1779
959,1803
960,895
961,1714
962,1984
963,1970
964,1945
965,1929
966,1952
967,1941
968,1833
969,1822
970,1872
971,1946
972,2027
973,2125
974,2294
975,2539
976,2688
977,2585
978,2201
979,1642
980,1182
981,1010
982,1255
983,1535
984,1659
985,1721
986,1755
987,1829
988,1872
989,1874
990,1838
991,1081
992,1525
993,1862
994,1872
995,1899
996,1904
997,1995
998,1996
999,1904
1000,1881
1001,1857
1002,1927
1003,2015
1004,2032
1005,2270
1006,2512
1007,2710
1008,2598
1009,2253
1010,1678
1011,1149
1012,976
1013,1185
1014,1535
1015,1783
1016,1840
1017,1834
1018,1820
1019,1805
1020,1823
1021,1855
1022,1816
1023,1845
1024,1847
1025,1851
1026,1841
1027,1858
1028,1903
1029,1886
1030,1925
1031,1914
1032,1889
1033,1885
1034,1903
1035,1920
1036,1936
1037,1906
1038,1914
1039,1877
1040,1808
1041,1763
1042,1804
1043,1781
1044,1808
1045,1836
1046,1855
1047,1903
1048,1894
1049,1903
1050,1892
1051,1854
1052,1835
1053,1870
1054,1910
1055,1904
1056,1875
1057,1871
1058,1853
1059,1843
1060,1827
1061,1843
1062,1847
1063,1840
1064,1861
1065,1849
1066,1901
1067,1934
1068,1869
1069,1851
1070,1851
1071,1846
1072,1856
1073,1850
1074,1842
1075,1833
1076,1839
1077,1836
1078,1855
1079,1862
1080,1845
1081,1840
1082,1845
1083,1882
1084,1857
1085,1882
1086,1872
1087,1872
1088,1872
1089,1859
1090,1858
1091,1873
1092,1852
1093,1845
1094,1817
1095,1824
1096,1815
1097,1855
1098,1872
1099,1883
1100,1895
1101,1876
1102,1878
1103,1882
1104,1889
1105,1873
1106,1825
1107,1847
1108,1846
1109,1847
1110,1824
1111,1823
1112,1846
1113,1868
1114,1861
1115,1872
1116,1876
1117,1898
1118,1875
1119,1873
1120,1886
1121,1849
1122,1861
1123,1830
1124,1838
1125,1840
1126,1834
1127,1826
1128,1845
1129,1846
1130,1867
1131,1863
1132,1873
1133,1872
1134,1869
1135,1862
1136,1862
1137,1872
1138,1879
1139,1847
1140,1823
1141,1833
1142,1859
1143,1826
1144,1826
1145,1838
1146,1825
1147,1855
1148,1861
1149,1861
1150,1903
1151,1874
1152,1882
1153,1887
1154,1865
1155,1882
1156,1856
1157,1849
1158,1901
1159,1830
1160,1826
1161,1846
1162,1841
1163,1872
1164,1843
1165,1857
1166,1872
1167,1873
1168,1875
1169,1891
1170,1891
1171,1870
1172,1866
1173,1833
1174,1839
1175,1855
1176,1833
1177,1814
1178,1831
1179,1831
1180,1873
1181,1872
1182,1872
1183,1895
1184,1886
1185,1878
1186,1887
1187,1881
1188,1873
1189,1866
1190,1840
1191,1879
1192,1842
1193,1825
1194,1815
1195,1831
1196,1844
1197,1862
1198,1851
1199,1868
1200,1887
1201,1877
1202,1882
1203,1892
1204,1865
1205,1894
1206,1842
1207,1840
1208,1856
1209,1830
1210,1825
1211,1825
1212,1871
1213,1863
1214,1857
1215,1869
1216,1889
1217,1909
1218,1871
1219,1877
1220,1871
1221,1889
1222,1854
1223,1841
1224,1827
1225,1842
1226,1838
1227,1823
1228,1819
1229,1870
1230,1865
1231,1854
1232,1887
1233,1868
1234,1890
1235,1879
1236,1869
1237,1873
1238,1887
1239,1857
1240,1846
1241,1859
1242,1831
1243,1820
1244,1818
1245,1831
1246,1840
1247,1875
1248,1871
1249,1874
1250,1899
1251,1874
1252,1874
1253,1874
1254,1871
1255,1874
1256,1850
1257,1840
1258,1848
1259,1843
1260,1821
1261,1812
1262,1842
1263,1903
1264,1872
1265,1870
1266,1862
1267,1904
1268,1877
1269,1890
1270,1904
1271,1891
1272,1887
1273,1863
1274,1833
1275,1811
1276,1834
1277,1827
1278,1829
1279,1841
1280,1857
1281,1857
1282,1872
1283,1887
1284,1905
1285,1877
1286,1872
1287,1867
1288,1898
1289,1853
1290,1841
1291,1859
1292,1875
1293,1833
1294,1824
1295,1830
1296,1845
1297,1872
1298,1872
1299,1870
1300,1909
1301,1884
1302,1883
1303,1875
1304,1871
1305,1876
1306,1851
1307,1846
1308,1834
1309,1840
1310,1814
1311,1830
1312,1863
1313,1842
1314,1872
1315,1853
1316,1861
1317,1907
1318,1873
1319,1884
1320,1917
1321,1882
1322,1869
1323,1845
1324,1839
1325,1829
1326,1837
1327,1826
1328,1837
1329,1840
1330,1867
1331,1872
1332,1867
1333,1870
1334,1901
1335,1873
1336,1872
1337,1881
1338,1878
1339,1865
1340,1853
1341,1831
1342,1866
1343,1824
1344,1818
1345,1872
1346,1815
1347,1872
1348,1859
1349,1872
1350,1898
1351,1873
1352,1882
1353,1890
1354,1874
1355,1889
1356,1855
1357,1840
1358,1853
1359,1820
1360,1822
1361,1827
1362,1841
1363,1837
1364,1871
1365,1878
1366,1891
1367,1890
1368,1878
1369,1885
1370,1901
1371,1898
1372,1874
1373,1850
1374,1827
1375,1871
1376,1839
1377,1819
1378,1833
1379,1847
1380,1875
1381,1876
1382,1880
1383,1886
1384,1908
1385,1875
1386,1866
1387,1889
1388,1895
1389,1863
1390,1860
1391,1833
1392,1851
1393,1829
1394,1808
1395,1825
1396,1853
1397,1872
1398,1879
1399,1872
1400,1922
1401,1885
1402,1878
1403,1873
1404,1879
1405,1903
1406,1840
1407,1840
1408,1819
1409,1841
1410,1819
1411,1826
1412,1840
1413,1824
1414,1872
1415,1881
1416,1867
1417,1899
1418,1883
1419,1884
1420,1874
1421,1891
1422,1873
1423,1838
1424,1841
1425,1863
1426,1834
1427,1827
1428,1825
1429,1838
1430,1838
1431,1872
1432,1874
1433,1889
1434,1891
1435,1878
1436,1882
1437,1885
1438,1888
1439,1846
1440,1845
1441,1853
1442,1859
1443,1827
1444,1822
1445,1841
1446,1844
1447,1869
1448,1872
1449,1877
1450,1877
1451,1904
1452,1889
1453,1872
1454,1886
1455,1883
1456,1863
1457,1831
1458,1835
1459,1846
1460,1823
1461,1830
1462,1847
1463,1840
1464,1863
1465,1872
1466,1881
1467,1919
1468,1878
1469,1872
1470,1885
1471,1883
1472,1872
1473,1839
1474,1841
1475,1840
1476,1881
1477,1835
1478,1839
1479,1840
1480,1857
1481,1874
1482,1872
1483,1920
1484,1919
1485,1877
1486,1883
1487,1866
1488,1904
1489,1862
1490,1831
1491,1837
1492,1830
1493,1840
1494,1823
1495,1850
1496,1861
1497,1871
1498,1867
1499,1870
1500,1878
1501,1894
1502,1876
1503,1878
1504,1861
1505,1883
1506,1860
1507,1856
1508,1867
1509,1840
1510,1827
1511,1826
1512,1837
1513,1817
1514,1867
1515,1872
1516,1878
1517,1919
1518,1883
1519,1883
1520,1876
1521,1892
1522,1875
1523,1831
1524,1838
1525,1818
1526,1821
1527,1814
1528,1828
1529,1845
1530,1843
1531,1863
1532,1879
1533,1906
1534,1851
1535,1882
1536,1888
1537,1895
1538,1870
1539,1867
1540,1856
1541,1842
1542,1831
1543,1828
1544,1819
1545,1844
1546,1856
1547,1872
1548,1860
1549,1881
1550,1894
1551,1906
1552,1877
1553,1875
1554,1872
1555,1867
1556,1854
1557,1833
1558,1840
1559,1811
1560,1822
1561,1817
1562,1847
1563,1854
1564,1872
1565,1874
1566,1883
1567,1894
1568,1882
1569,1878
1570,1888
1571,1870
1572,1871
1573,1850
1574,1829
1575,1831
1576,1850
1577,1836
1578,1829
1579,1846
1580,1901
1581,1872
1582,1878
1583,1883
1584,1909
1585,1872
1586,1867
1587,1890
1588,1878
1589,1867
1590,1843
1591,1835
1592,1862
1593,1834
1594,1825
1595,1839
1596,1828
1597,1875
1598,1874
1599,1866
1600,1883
1601,1898
1602,1879
1603,1882
1604,1878
1605,1873
1606,1845
1607,1834
1608,1803
1609,1850
1610,1823
1611,1837
1612,1849
1613,1817
1614,1866
1615,1858
1616,1865
1617,1881
1618,1873
1619,1877
1620,1897
1621,1885
1622,1855
1623,1851
1624,1844
1625,1840
1626,1851
1627,1813
1628,1839
1629,1861
1630,1893
1631,1878
1632,1866
1633,1901
1634,1921
1635,1885
1636,1882
1637,1887
1638,1879
1639,1871
1640,1843
1641,1836
1642,1844
1643,1839
1644,1818
1645,1839
1646,1819
1647,1862
1648,1863
1649,1869
1650,1861
1651,1867
1652,1872
1653,1870
1654,1879
1655,1871
1656,1861
1657,1849
1658,1837
1659,1865
1660,1821
1661,1830
1662,1853
1663,1823
1664,1873
1665,1865
1666,1875
1667,1872
1668,1884
1669,1882
1670,1872
1671,1875
1672,1871
1673,1849
1674,1838
1675,1831
1676,1834
1677,1831
1678,1823
1679,1862
1680,1873
1681,1874
1682,1857
1683,1871
1684,1867
1685,1874
1686,1871
1687,1876
1688,1878
1689,1871
1690,1856
1691,1854
1692,1869
1693,1841
1694,1829
1695,1830
1696,1843
1697,1871
1698,1872
1699,1874
1700,1904
1701,1871
1702,1869
1703,1874
1704,1872
1705,1860
1706,1847
1707,1838
1708,1814
1709,1872
1710,1823
1711,1826
1712,1843
1713,1838
1714,1878
1715,1866
1716,1875
1717,1885
1718,1872
1719,1872
1720,1874
1721,1877
1722,1872
1723,1842
1724,1838
1725,1846
1726,1840
1727,1829
1728,1837
1729,1842
1730,1842
1731,1873
1732,1858
1733,1883
1734,1910
1735,1871
1736,1879
1737,1872
1738,1900
1739,1857
1740,1840
1741,1824
1742,1833
1743,1840
1744,1827
1745,1843
1746,1842
1747,1872
1748,1863
1749,1889
1750,1876
1751,1914
1752,1888
1753,1872
1754,1898
1755,1898
1756,1858
1757,1856
1758,1839
1759,1842
1760,1823
1761,1821
1762,1840
1763,1837
1764,1862
1765,1879
1766,1865
1767,1905
1768,1877
1769,1877
1770,1889
1771,1879
1772,1859
1773,1858
1774,1845
1775,1847
1776,1861
1777,1821
1778,1835
1779,1830
1780,1821
1781,1872
1782,1888
1783,1888
1784,1889
1785,1881
1786,1882
1787,1872
1788,1860
1789,1874
1790,1861
1791,1835
1792,1863
1793,1840
1794,1818
1795,1824
1796,1835
1797,1863
1798,1859
1799,1865
1800,1858
1801,1875
1802,1882
1803,1886
1804,1919
1805,1860
1806,1863
1807,1843
1808,1808
1809,1830
1810,1813
1811,1811
1812,1850
1813,1840
1814,1869
1815,1871
1816,1870
1817,1881
1818,1873
1819,1874
1820,1881
1821,1873
1822,1883
1823,1840
1824,1840
1825,1889
1826,1839
1827,1825
1828,1821
1829,1839
1830,1827
1831,1862
1832,1865
1833,1882
1834,1895
1835,1886
1836,1886
1837,1888
1838,1885
1839,1871
1840,1835
1841,1833
1842,1866
1843,1840
1844,1825
1845,1822
1846,1835
1847,1865
1848,1872
1849,1874
1850,1878
1851,1915
1852,1875
1853,1887
1854,1872
1855,1872
1856,1853
1857,1831
1858,1808
1859,1858
1860,1830
1861,1824
1862,1821
1863,1851
1864,1871
1865,1869
1866,1866
1867,1924
1868,1878
1869,1882
1870,1872
1871,1890
1872,1872
1873,1853
1874,1839
1875,1841
1876,1846
1877,1810
1878,1820
1879,1851
1880,1862
1881,1886
1882,1872
1883,1886
1884,1887
1885,1872
1886,1887
1887,1904
1888,1899
1889,1871
1890,1846
1891,1835
1892,1824
1893,1840
1894,1827
1895,1833
1896,1825
1897,1866
1898,1882
1899,1881
1900,1891
1901,1898
1902,1889
1903,1877
1904,1871
1905,1904
1906,1853
1907,1843
1908,1855
1909,1847
1910,1835
1911,1825
1912,1831
1913,1843
1914,1864
1915,1856
1916,1865
1917,1875
1918,1876
1919,1875
1920,1872
1921,1887
1922,1883
1923,1848
1924,1838
1925,1839
1926,1846
1927,1825
1928,1818
1929,1866
1930,1843
1931,1872
1932,1872
1933,1868
1934,1895
1935,1885
1936,1885
1937,1893
1938,1899
1939,1869
1940,1844
1941,1843
1942,1818
1943,1857
1944,1817
1945,1823
1946,1840
1947,1841
1948,1872
1949,1863
1950,1872
1951,1869
1952,1877
1953,1877
1954,1877
1955,1875
1956,1861
1957,1853
1958,1830
1959,1858
1960,1825
1961,1818
1962,1823
1963,1840
1964,1867
1965,1859
1966,1871
1967,1872
1968,1887
1969,1884
1970,1873
1971,1875
1972,1882
1973,1846
1974,1828
1975,1808
1976,1845
1977,1823
1978,1835
1979,1856
1980,1855
1981,1883
1982,1869
1983,1872
1984,1875
1985,1874
1986,1877
1987,1885
1988,1875
1989,1878
1990,1847
1991,1847
1992,1878
1993,1840
1994,1834
1995,1822
1996,1840
1997,1863
1998,1862
1999,1879
2000,1867
2001,1895
2002,1883
2003,1889
2004,1872
2005,1936
2006,1860
2007,1829
2008,1834
2009,1834
2010,1822
2011,1813
2012,1825
2013,1850
2014,1869
2015,1875
2016,1875
2017,1887
2018,1974
2019,782
2020,1834
2021,2000
2022,1971
2023,1904
2024,1888
2025,1887
2026,1869
2027,1855
2028,1810
2029,1762
2030,1777
2031,1835
2032,1862
2033,1904
2034,1971
2035,2077
2036,2301
2037,2592
2038,2814
2039,2765
2040,2480
2041,2107
2042,1718
2043,1329
2044,975
2045,953
2046,1177
2047,1476
2048,1649
2049,1731
2050,803
2051,1666
2052,1949
2053,1963
2054,1963
2055,1938
2056,1903
2057,1844
2058,1803
2059,1780
2060,1756
2061,1799
2062,1872
2063,1938
2064,2008
2065,2139
2066,2385
2067,2760
2068,2965
2069,2790
2070,2352
2071,1843
2072,1358
2073,918
2074,836
2075,1118
2076,1477
2077,1616
2078,1723
2079,1779
2080,1873
2081,1054
2082,1627
2083,1968
2084,2015
2085,1947
2086,1937
2087,1889
2088,1921
2089,1935
2090,1838
2091,1840
2092,1886
2093,1939
2094,2000
2095,2023
2096,2178
2097,2523
2098,2855
2099,2865
2100,2549
2101,2099
2102,1482
2103,946
2104,823
2105,1130
2106,1403
2107,1594
2108,1668
2109,1760
2110,1814
2111,1854
2112,1483
2113,1409
2114,1974
2115,1968
2116,1935
2117,1914
2118,1843
2119,1882
2120,1921
2121,1904
2122,1953
2123,1939
2124,1936
2125,1958
2126,1999
2127,2151
2128,2461
2129,2785
2130,2774
2131,2455
2132,1955
2133,1374
2134,961
2135,866
2136,1191
2137,1527
2138,1703
2139,1808
2140,1793
2141,1834
2142,1857
2143,2117
2144,1191
2145,1921
2146,1999
2147,1945
2148,1920
2149,1889
2150,1899
2151,1873
2152,1891
2153,1915
2154,1931
2155,1943
2156,1978
2157,2039
2158,2235
2159,2544
2160,2823
2161,2794
2162,2391
2163,1867
2164,1296
2165,832
2166,876
2167,1285
2168,1581
2169,1728
2170,1838
2171,1909
2172,1917
2173,1886
2174,2638
2175,1023
2176,1824
2177,1905
2178,1872
2179,1850
2180,1841
2181,1887
2182,1904
2183,1940
2184,1939
2185,1889
2186,1925
2187,1979
2188,2096
2189,2319
2190,2627
2191,2883
2192,2777
2193,2347
2194,1735
2195,1134
2196,773
2197,899
2198,1298
2199,1600
2200,1757
2201,1826
2202,1852
2203,1861
2204,1891
2205,2426
2206,879
2207,1902
2208,2019
2209,2002
2210,1939
2211,1883
2212,1835
2213,1872
2214,1863
2215,1849
2216,1853
2217,1901
2218,1974
2219,2112
2220,2290
2221,2608
2222,2896
2223,2786
2224,2337
2225,1763
2226,1209
2227,799
2228,923
2229,1273
2230,1515
2231,1689
2232,1765
2233,1834
2234,1899
2235,1905
2236,1927
2237,809
2238,1817
2239,1979
2240,1922
2241,1868
2242,1846
2243,1852
2244,1861
2245,1855
2246,1833
2247,1872
2248,1921
2249,2000
2250,2097
2251,2271
2252,2610
2253,2903
2254,2857
2255,2453
2256,1799
2257,1152
2258,789
2259,970
2260,1315
2261,1597
2262,1728
2263,1792
2264,1835
2265,1862
2266,1904
2267,1927
2268,942
2269,1686
2270,1944
2271,1896
2272,1901
2273,1879
2274,1868
2275,1905
2276,1872
2277,1812
2278,1819
2279,1853
2280,1917
2281,2066
2282,2253
2283,2554
2284,2817
2285,2832
2286,2434
2287,1846
2288,1239
2289,904
2290,982
2291,1347
2292,1600
2293,1705
2294,1715
2295,1739
2296,1807
2297,1858
2298,1884
2299,1200
2300,1535
2301,1973
2302,1979
2303,1966
2304,1925
2305,1950
2306,1974
2307,1881
2308,1856
2309,1872
2310,1872
2311,1906
2312,1983
2313,2178
2314,2462
2315,2809
2316,2896
2317,2489
2318,1926
2319,1300
2320,912
2321,1014
2322,1324
2323,1599
2324,1665
2325,1666
2326,1733
2327,1774
2328,1809
2329,1867
2330,1607
2331,1441
2332,2032
2333,2045
2334,1967
2335,1908
2336,1904
2337,1917
2338,1853
2339,1795
2340,1802
2341,1787
2342,1862
2343,2014
2344,2192
2345,2455
2346,2785
2347,2811
2348,2502
2349,1968
2350,1348
2351,970
2352,1058
2353,1344
2354,1575
2355,1665
2356,1713
2357,1751
2358,1803
2359,1872
2360,1872
2361,2239
2362,1232
2363,1963
2364,1964
2365,1921
2366,1911
2367,1894
2368,1973
2369,1964
2370,1871
2371,1839
2372,1835
2373,1872
2374,1953
2375,2148
2376,2411
2377,2694
2378,2836
2379,2595
2380,2032
2381,1424
2382,930
2383,979
2384,1303
2385,1589
2386,1711
2387,1741
2388,1744
2389,1837
2390,1850
2391,1866
2392,2751
2393,1173
2394,1865
2395,1881
2396,1854
2397,1869
2398,1917
2399,2000
2400,1963
2401,1856
2402,1814
2403,1843
2404,1947
2405,2083
2406,2158
2407,2380
2408,2699
2409,2833
2410,2608
2411,2083
2412,1406
2413,943
2414,998
2415,1313
2416,1601
2417,1771
2418,1824
2419,1741
2420,1691
2421,1741
2422,1786
2423,1984
2424,811
2425,1835
2426,1925
2427,1919
2428,1905
2429,1919
2430,1993
2431,1966
2432,1789
2433,1783
2434,1842
2435,1938
2436,2035
2437,2141
2438,2389
2439,2723
2440,2894
2441,2675
2442,2142
2443,1582
2444,949
2445,848
2446,1171
2447,1509
2448,1655
2449,1712
2450,1769
2451,1821
2452,1853
2453,1883
2454,1913
2455,811
2456,1791
2457,1936
2458,1907
2459,1910
2460,1903
2461,1988
2462,1926
2463,1759
2464,1751
2465,1815
2466,1943
2467,2069
2468,2205
2469,2431
2470,2775
2471,2928
2472,2692
2473,2163
2474,1480
2475,945
2476,898
2477,1152
2478,1462
2479,1647
2480,1680
2481,1774
2482,1815
2483,1879
2484,1904
2485,1925
2486,987
2487,1722
2488,2009
2489,1999
2490,1910
2491,1838
2492,1943
2493,1953
2494,1729
2495,1713
2496,1779
2497,1887
2498,1983
2499,2096
2500,2313
2501,2689
2502,2907
2503,2775
2504,2302
2505,1694
2506,1129
2507,896
2508,1102
2509,1425
2510,1578
2511,1648
2512,1714
2513,1806
2514,1872
2515,1932
2516,1953
2517,1249
2518,1620
2519,1936
2520,1877
2521,1872
2522,1896
2523,1975
2524,1984
2525,1779
2526,1808
2527,1840
2528,1863
2529,1973
2530,2139
2531,2379
2532,2654
2533,2910
2534,2754
2535,2303
2536,1639
2537,1067
2538,830
2539,1046
2540,1388
2541,1586
2542,1649
2543,1731
2544,1772
2545,1813
2546,1839
2547,1886
2548,1774
2549,1396
2550,1999
2551,2023
2552,1954
2553,1914
2554,1937
2555,1975
2556,1774
2557,1733
2558,1859
2559,1937
2560,2038
2561,2101
2562,2226
2563,2438
2564,2722
2565,2752
2566,2416
2567,1891
2568,1290
2569,884
2570,1046
2571,1395
2572,1648
2573,1701
2574,1717
2575,1776
2576,1802
2577,1821
2578,1840
2579,2454
2580,1103
2581,1921
2582,1962
2583,1935
2584,1930
2585,1994
2586,2032
2587,1774
2588,1748
2589,1872
2590,1943
2591,2017
2592,2127
2593,2276
2594,2421
2595,2686
2596,2767
2597,2478
2598,1927
2599,1309
2600,944
2601,1067
2602,1350
2603,1600
2604,1715
2605,1766
2606,1760
2607,1743
2608,1776
2609,1815
2610,2522
2611,926
2612,1856
2613,1935
2614,1925
2615,1934
2616,2018
2617,2106
2618,1886
2619,1789
2620,1885
2621,1925
2622,1936
2623,2002
2624,2138
2625,2362
2626,2699
2627,2798
2628,2550
2629,2070
2630,1442
2631,1011
2632,957
2633,1244
2634,1591
2635,1701
2636,1757
2637,1772
2638,1774
2639,1833
2640,1828
2641,1827
2642,1840
2643,1894
2644,1877
2645,1857
2646,1893
2647,1870
2648,1929
2649,1923
2650,1936
2651,1973
2652,1919
2653,1911
2654,1902
2655,1888
2656,1891
2657,1873
2658,1875
2659,1871
2660,1907
2661,1882
2662,1789
2663,1776
2664,1831
2665,1840
2666,1825
2667,1841
2668,1840
2669,1872
2670,1871
2671,1859
2672,1855
2673,1871
2674,1872
2675,1847
2676,1851
2677,1831
2678,1826
2679,1850
2680,1910
2681,1911
2682,1867
2683,1871
2684,1891
2685,1883
2686,1861
2687,1854
2688,1823
2689,1872
2690,1829
2691,1815
2692,1827
2693,1855
2694,1842
2695,1850
2696,1856
2697,1875
2698,1843
2699,1874
2700,1877
2701,1939
2702,1907
2703,1886
2704,1856
2705,1858
2706,1837
2707,1801
2708,1809
2709,1808
2710,1823
2711,1819
2712,1823
2713,1858
2714,1813
2715,1858
2716,1869
2717,1889
2718,1872
2719,1883
2720,1873
2721,1862
2722,1886
2723,1862
2724,1840
2725,1831
2726,1853
2727,1835
2728,1817
2729,1822
2730,1833
2731,1856
2732,1850
2733,1866
2734,1878
2735,1885
2736,1874
2737,1867
2738,1890
2739,1895
2740,1857
2741,1849
2742,1845
2743,1837
2744,1825
2745,1822
2746,1840
2747,1863
2748,1865
2749,1874
2750,1882
2751,1910
2752,1875
2753,1875
2754,1872
2755,1877
2756,1878
2757,1845
2758,1834
2759,1834
2760,1823
2761,1818
2762,1840
2763,1844
2764,1865
2765,1863
2766,1863
2767,1865
2768,1909
2769,1879
2770,1885
2771,1904
2772,1881
2773,1864
2774,1841
2775,1845
2776,1838
2777,1827
2778,1822
2779,1842
2780,1847
2781,1891
2782,1874
2783,1876
2784,1889
2785,1873
2786,1872
2787,1856
2788,1869
2789,1886
2790,1872
2791,1841
2792,1821
2793,1856
2794,1823
2795,1824
2796,1840
2797,1826
2798,1867
2799,1872
2800,1873
2801,1873
2802,1877
2803,1886
2804,1904
2805,1899
2806,1891
2807,1845
2808,1829
2809,1831
2810,1855
2811,1813
2812,1831
2813,1847
2814,1844
2815,1867
2816,1851
2817,1858
2818,1872
2819,1872
2820,1872
2821,1904
2822,1856
2823,1865
2824,1850
2825,1835
2826,1871
2827,1840
2828,1837
2829,1856
2830,1872
2831,1857
2832,1865
2833,1869
2834,1905
2835,1898
2836,1871
2837,1877
2838,1889
2839,1889
2840,1861
2841,1840
2842,1798
2843,1827
2844,1819
2845,1826
2846,1815
2847,1861
2848,1870
2849,1855
2850,1871
2851,1899
2852,1887
2853,1882
2854,1887
2855,1885
2856,1893
2857,1850
2858,1836
2859,1863
2860,1855
2861,1819
2862,1818
2863,1855
2864,1898
2865,1870
2866,1872
2867,1892
2868,1936
2869,1885
2870,1889
2871,1906
2872,1889
2873,1874
2874,1849
2875,1859
2876,1849
2877,1841
2878,1819
2879,1835
2880,1863
2881,1867
2882,1863
2883,1872
2884,1899
2885,1883
2886,1884
2887,1879
2888,1898
2889,1891
2890,1872
2891,1863
2892,1851
2893,1857
2894,1840
2895,1826
2896,1857
2897,1872
2898,1887
2899,1870
2900,1880
2901,1919
2902,1895
2903,1887
2904,1878
2905,1887
2906,1904
2907,1851
2908,1830
2909,1856
2910,1853
2911,1829
2912,1839
2913,1840
2914,1853
2915,1875
2916,1877
2917,1865
2918,1911
2919,1895
2920,1898
2921,1910
2922,1888
2923,1872
2924,1858
2925,1831
2926,1855
2927,1852
2928,1839
2929,1848
2930,1878
2931,1871
2932,1885
2933,1886
2934,1901
2935,1903
2936,1887
2937,1892
2938,1889
2939,1850
2940,1865
2941,1851
2942,1856
2943,1844
2944,1838
2945,1837
2946,1839
2947,1867
2948,1874
2949,1872
2950,1877
2951,1904
2952,1903
2953,1882
2954,1885
2955,1875
2956,1892
2957,1872
2958,1847
2959,1844
2960,1867
2961,1840
2962,1834
2963,1840
2964,1898
2965,1870
2966,1871
2967,1872
2968,1911
2969,1887
2970,1891
2971,1873
2972,1905
2973,1887
2974,1871
2975,1853
2976,1842
2977,1837
2978,1840
2979,1831
2980,1862
2981,1862
2982,1872
2983,1885
2984,1881
2985,1895
2986,1883
2987,1892
2988,1890
2989,1939
2990,1872
2991,1855
2992,1843
2993,1830
2994,1825
2995,1819
2996,1823
2997,1838
2998,1872
2999,1872
3000,1883
3001,1888
3002,1901
3003,1891
3004,1894
3005,1872
3006,1857
3007,1850
3008,1856
3009,1837
3010,1853
3011,1819
3012,1842
3013,1840
3014,1903
3015,1869
3016,1863
3017,1872
3018,1889
3019,1871
3020,1877
3021,1888
3022,1874
3023,1869
3024,1854
3025,1835
3026,1827
3027,1845
3028,1815
3029,1833
3030,1836
3031,1884
3032,1859
3033,1884
3034,1886
3035,1895
3036,1877
3037,1885
3038,1891
3039,1910
3040,1867
3041,1840
3042,1823
3043,1844
3044,1829
3045,1823
3046,1833
3047,1850
3048,1877
3049,1863
3050,1870
3051,1895
3052,1874
3053,1888
3054,1885
3055,1877
3056,1898
3057,1840
3058,1839
3059,1854
3060,1857
3061,1818
3062,1821
3063,1833
3064,1851
3065,1876
3066,1872
3067,1868
3068,1872
3069,1875
3070,1882
3071,1872
3072,1890
3073,1858
3074,1851
3075,1840
3076,1834
3077,1823
3078,1815
3079,1830
3080,1829
3081,1872
3082,1873
3083,1882
3084,1872
3085,1886
3086,1872
3087,1872
3088,1863
3089,1872
3090,1871
3091,1853
3092,1863
3093,1839
3094,1827
3095,1818
3096,1829
3097,1853
3098,1869
3099,1862
3100,1878
3101,1904
3102,1904
3103,1873
3104,1870
3105,1892
3106,1841
3107,1870
3108,1840
3109,1904
3110,1857
3111,1823
3112,1809
3113,1858
3114,1840
3115,1856
3116,1857
3117,1884
3118,1893
3119,1873
3120,1859
3121,1891
3122,1890
3123,1860
3124,1855
3125,1842
3126,1834
3127,1872
3128,1833
3129,1825
3130,1844
3131,1856
3132,1857
3133,1863
3134,1877
3135,1894
3136,1879
3137,1890
3138,1893
3139,1896
3140,1867
3141,1843
3142,1842
3143,1871
3144,1830
3145,1815
3146,1843
3147,1819
3148,1865
3149,1858
3150,1853
3151,1902
3152,1903
3153,1872
3154,1883
3155,1887
3156,1886
3157,1851
3158,1842
3159,1846
3160,1857
3161,1819
3162,1834
3163,1830
3164,1841
3165,1873
3166,1867
3167,1882
3168,1898
3169,1883
3170,1883
3171,1888
3172,1872
3173,1882
3174,1853
3175,1827
3176,1857
3177,1842
3178,1824
3179,1825
3180,1833
3181,1850
3182,1863
3183,1856
3184,1859
3185,1890
3186,1883
3187,1890
3188,1885
3189,1916
3190,1869
3191,1840
3192,1835
3193,1859
3194,1839
3195,1828
3196,1839
3197,1857
3198,1865
3199,1871
3200,1872
3201,1867
3202,1877
3203,1872
3204,1869
3205,1887
3206,1887
3207,1841
3208,1829
3209,1861
3210,1827
3211,1825
3212,1826
3213,1846
3214,1878
3215,1881
3216,1875
3217,1857
3218,1900
3219,1885
3220,1881
3221,1871
3222,1888
3223,1873
3224,1842
3225,1859
3226,1826
3227,1820
3228,1823
3229,1825
3230,1840
3231,1904
3232,1873
3233,1870
3234,1885
3235,1901
3236,1876
3237,1882
3238,1878
3239,1875
3240,1854
3241,1845
3242,1847
3243,1860
3244,1839
3245,1822
3246,1835
3247,1840
3248,1855
3249,1865
3250,1877
3251,1896
3252,1899
3253,1872
3254,1869
3255,1885
3256,1898
3257,1855
3258,1847
3259,1853
3260,1863
3261,1824
3262,1819
3263,1836
3264,1823
3265,1866
3266,1872
3267,1872
3268,1887
3269,1872
3270,1888
3271,1867
3272,1882
3273,1872
3274,1858
3275,1846
3276,1863
3277,1872
3278,1833
3279,1838
3280,1843
3281,1838
3282,1863
3283,1867
3284,1890
3285,1899
3286,1891
3287,1883
3288,1895
3289,1879
3290,1871
3291,1840
3292,1840
3293,1813
3294,1838
3295,1818
3296,1815
3297,1827
3298,1869
3299,1872
3300,1875
3301,1901
3302,1872
3303,1885
3304,1882
3305,1871
3306,1904
3307,1856
3308,1837
3309,1869
3310,1836
3311,1815
3312,1819
3313,1840
3314,1841
3315,1865
3316,1870
3317,1879
3318,1863
3319,1877
3320,1872
3321,1871
3322,1883
3323,1877
3324,1841
3325,1840
3326,1838
3327,1813
3328,1819
3329,1815
3330,1829
3331,1849
3332,1875
3333,1893
3334,1876
3335,1914
3336,1885
3337,1880
3338,1911
3339,1874
3340,1866
3341,1840
3342,1839
3343,1824
3344,1837
3345,1823
3346,1840
3347,1846
3348,1887
3349,1860
3350,1872
3351,1886
3352,1906
3353,1873
3354,1879
3355,1872
3356,1874
3357,1857
3358,1835
3359,1831
3360,1840
3361,1825
3362,1812
3363,1840
3364,1869
3365,1867
3366,1862
3367,1867
3368,1886
3369,1889
3370,1877
3371,1878
3372,1887
3373,1883
3374,1847
3375,1846
3376,1808
3377,1823
3378,1814
3379,1820
3380,1853
3381,1858
3382,1874
3383,1871
3384,1845
3385,1902
3386,1878
3387,1873
3388,1893
3389,1895
3390,1869
3391,1839
3392,1835
3393,1853
3394,1835
3395,1826
3396,1826
3397,1845
3398,1870
3399,1869
3400,1881
3401,1891
3402,1906
3403,1873
3404,1882
3405,1883
3406,1899
3407,1858
3408,1845
3409,1827
3410,1851
3411,1826
3412,1822
3413,1831
3414,1859
3415,1869
3416,1861
3417,1857
3418,1861
3419,1887
3420,1878
3421,1888
3422,1885
3423,1881
3424,1851
3425,1842
3426,1826
3427,1847
3428,1827
3429,1835
3430,1850
3431,1862
3432,1867
3433,1872
3434,1872
3435,1897
3436,1882
3437,1884
3438,1894
3439,1873
3440,1872
3441,1838
3442,1839
3443,1843
3444,1834
3445,1819
3446,1823
3447,1843
3448,1842
3449,1869
3450,1883
3451,1868
3452,1867
3453,1872
3454,1872
3455,1890
3456,1878
3457,1864
3458,1845
3459,1854
3460,1842
3461,1827
3462,1827
3463,1844
3464,1838
3465,1863
3466,1872
3467,1860
3468,1921
3469,1879
3470,1882
3471,1889
3472,1874
3473,1883
3474,1837
3475,1840
3476,1828
3477,1823
3478,1819
3479,1825
3480,1841
3481,1830
3482,1865
3483,1872
3484,1903
3485,1903
3486,1883
3487,1879
3488,1891
3489,1883
3490,1867
3491,1856
3492,1840
3493,1854
3494,1854
3495,1826
3496,1829
3497,1854
3498,1872
3499,1872
3500,1872
3501,1886
3502,1857
3503,1872
3504,1875
3505,1882
3506,1865
3507,1855
3508,1847
3509,1823
3510,1841
3511,1829
3512,1819
3513,1841
3514,1843
3515,1863
3516,1861
3517,1877
3518,1872
3519,1862
3520,1873
3521,1872
3522,1869
3523,1885
3524,1852
3525,1825
3526,1847
3527,1840
3528,1831
3529,1824
3530,1856
3531,1856
3532,1871
3533,1865
3534,1863
3535,1872
3536,1871
3537,1875
3538,1872
3539,1872
3540,1876
3541,1840
3542,1843
3543,1873
3544,1837
3545,1827
3546,1831
3547,1851
3548,1853
3549,1866
3550,1884
3551,1893
3552,1894
3553,1893
3554,1888
3555,1901
3556,1902
3557,1860
3558,1846
3559,1826
3560,1837
3561,1830
3562,1823
3563,1847
3564,1842
3565,1871
3566,1857
3567,1858
3568,1863
3569,1890
3570,1873
3571,1879
3572,1882
3573,1878
3574,1861
3575,1840
3576,1866
3577,1842
3578,1821
3579,1819
3580,1840
3581,1853
3582,1869
3583,1854
3584,1861
3585,1891
3586,1878
3587,1878
3588,1886
3589,1878
3590,1873
3591,1851
3592,1839
3593,1843
3594,1824
3595,1814
3596,1839
3597,1853
3598,1868
3599,1864
3600,1889
3601,1866
3602,1903
3603,1885
3604,1875
3605,1857
3606,1856
3607,1856
3608,1838
3609,1847
3610,1854
3611,1824
3612,1810
3613,1836
3614,1849
3615,1863
3616,1881
3617,1869
3618,1874
3619,1873
3620,1874
3621,1867
3622,1872
3623,1882
3624,1840
3625,1837
3626,1849
3627,1840
3628,1818
3629,1822
3630,1839
3631,1822
3632,1872
3633,1875
3634,1883
3635,1881
3636,1883
3637,1885
3638,1763
3639,1232
3640,1953
3641,1982
3642,1936
3643,1887
3644,1899
3645,1843
3646,1840
3647,1839
3648,1799
3649,1809
3650,1821
3651,1824
3652,1885
3653,1943
3654,2023
3655,2192
3656,2443
3657,2723
3658,2883
3659,2702
3660,2348
3661,1963
3662,1534
3663,1147
3664,880
3665,939
3666,1201
3667,1509
3668,1701
3669,2221
3670,1072
3671,1874
3672,1934
3673,1907
3674,1882
3675,1873
3676,1815
3677,1839
3678,1808
3679,1804
3680,1843
3681,1886
3682,1950
3683,1990
3684,2070
3685,2233
3686,2509
3687,2864
3688,2959
3689,2704
3690,2243
3691,1716
3692,1210
3693,801
3694,848
3695,1136
3696,1474
3697,1661
3698,1755
3699,1822
3700,2655
3701,905
3702,1894
3703,1998
3704,1969
3705,1969
3706,1955
3707,1905
3708,1909
3709,1931
3710,1877
3711,1886
3712,1910
3713,1922
3714,1969
3715,2094
3716,2279
3717,2631
3718,2970
3719,2878
3720,2451
3721,1940
3722,1374
3723,925
3724,709
3725,970
3726,1387
3727,1642
3728,1710
3729,1757
3730,1808
3731,1850
3732,715
3733,1805
3734,1998
3735,1991
3736,1968
3737,1938
3738,1907
3739,1942
3740,1947
3741,1937
3742,1930
3743,1936
3744,1904
3745,1968
3746,2039
3747,2284
3748,2595
3749,2897
3750,2804
3751,2403
3752,1940
3753,1329
3754,865
3755,848
3756,1189
3757,1456
3758,1622
3759,1732
3760,1791
3761,1833
3762,1852
3763,717
3764,1742
3765,1994
3766,1957
3767,1935
3768,1887
3769,1885
3770,1963
3771,1974
3772,1965
3773,1872
3774,1859
3775,1895
3776,1951
3777,2065
3778,2302
3779,2687
3780,2906
3781,2713
3782,2293
3783,1750
3784,1160
3785,832
3786,941
3787,1269
3788,1531
3789,1690
3790,1771
3791,1781
3792,1809
3793,1835
3794,925
3795,1602
3796,1971
3797,1938
3798,1950
3799,1933
3800,1906
3801,1914
3802,1995
3803,1941
3804,1879
3805,1918
3806,1972
3807,2013
3808,2135
3809,2386
3810,2694
3811,2881
3812,2671
3813,2189
3814,1630
3815,1075
3816,736
3817,902
3818,1313
3819,1584
3820,1706
3821,1792
3822,1838
3823,1872
3824,1885
3825,1243
3826,1478
3827,1946
3828,1934
3829,1873
3830,1845
3831,1857
3832,1930
3833,1955
3834,1914
3835,1937
3836,1909
3837,1947
3838,2035
3839,2137
3840,2385
3841,2742
3842,2880
3843,2705
3844,2218
3845,1625
3846,1015
3847,754
3848,950
3849,1328
3850,1607
3851,1719
3852,1823
3853,1829
3854,1863
3855,1919
3856,2064
3857,1262
3858,1936
3859,1964
3860,1924
3861,1894
3862,1873
3863,1939
3864,1962
3865,1896
3866,1827
3867,1877
3868,1968
3869,2064
3870,2179
3871,2397
3872,2746
3873,2955
3874,2733
3875,2239
3876,1668
3877,1087
3878,733
3879,892
3880,1297
3881,1555
3882,1682
3883,1776
3884,1828
3885,1883
3886,1904
3887,2848
3888,1072
3889,1958
3890,1983
3891,1917
3892,1882
3893,1890
3894,1941
3895,1890
3896,1808
3897,1819
3898,1873
3899,1945
3900,2003
3901,2138
3902,2367
3903,2689
3904,2950
3905,2801
3906,2314
3907,1745
3908,1111
3909,747
3910,882
3911,1273
3912,1535
3913,1701
3914,1763
3915,1818
3916,1840
3917,1873
3918,2330
3919,800
3920,1839
3921,1982
3922,1977
3923,2008
3924,1984
3925,2010
3926,1984
3927,1882
3928,1818
3929,1774
3930,1839
3931,1946
3932,2065
3933,2304
3934,2592
3935,2862
3936,2775
3937,2333
3938,1817
3939,1253
3940,850
3941,947
3942,1300
3943,1558
3944,1635
3945,1675
3946,1751
3947,1839
3948,1856
3949,1888
3950,784
3951,1844
3952,2079
3953,2032
3954,1977
3955,1936
3956,1925
3957,1907
3958,1822
3959,1815
3960,1839
3961,1867
3962,1918
3963,2018
3964,2224
3965,2559
3966,2846
3967,2810
3968,2435
3969,1921
3970,1311
3971,880
3972,938
3973,1291
3974,1580
3975,1668
3976,1705
3977,1739
3978,1787
3979,1823
3980,1867
3981,869
3982,1703
3983,2043
3984,2041
3985,2055
3986,2006
3987,1985
3988,1935
3989,1805
3990,1744
3991,1775
3992,1836
3993,1952
3994,2080
3995,2192
3996,2451
3997,2736
3998,2768
3999,2479
4000,1983
4001,1390
4002,1008
4003,944
4004,1248
4005,1518
4006,1660
4007,1735
4008,1791
4009,1829
4010,1856
4011,1858
4012,1125
4013,1535
4014,1934
4015,1920
4016,1913
4017,1929
4018,1955
4019,2032
4020,1893
4021,1811
4022,1867
4023,1923
4024,1983
4025,2032
4026,2154
4027,2407
4028,2717
4029,2832
4030,2587
4031,2084
4032,1424
4033,919
4034,917
4035,1239
4036,1530
4037,1655
4038,1707
4039,1771
4040,1829
4041,1856
4042,1870
4043,1385
4044,1470
4045,1929
4046,1907
4047,1889
4048,1937
4049,1974
4050,2003
4051,1840
4052,1815
4053,1806
4054,1908
4055,2057
4056,2121
4057,2223
4058,2446
4059,2751
4060,2797
4061,2459
4062,1970
4063,1394
4064,912
4065,887
4066,1213
4067,1503
4068,1673
4069,1745
4070,1809
4071,1852
4072,1857
4073,1872
4074,2255
4075,1195
4076,1936
4077,1965
4078,1911
4079,1869
4080,1923
4081,2011
4082,1875
4083,1787
4084,1853
4085,1913
4086,2010
4087,2133
4088,2207
4089,2416
4090,2735
4091,2844
4092,2559
4093,2096
4094,1499
4095,959
4096,839
4097,1173
4098,1503
4099,1650
4100,1722
4101,1789
4102,1835
4103,1815
4104,1850
4105,2800
4106,976
4107,1908
4108,1982
4109,1959
4110,1996
4111,2000
4112,2009
4113,1785
4114,1656
4115,1787
4116,1859
4117,1959
4118,2077
4119,2203
4120,2387
4121,2747
4122,2896
4123,2682
4124,2192
4125,1584
4126,1055
4127,872
4128,1079
4129,1403
4130,1621
4131,1712
4132,1776
4133,1808
4134,1838
4135,1875
4136,2011
4137,832
4138,1855
4139,1968
4140,1936
4141,1873
4142,1910
4143,2017
4144,1873
4145,1694
4146,1775
4147,1870
4148,1947
4149,2047
4150,2182
4151,2342
4152,2624
4153,2854
4154,2727
4155,2326
4156,1774
4157,1195
4158,861
4159,999
4160,1342
4161,1600
4162,1638
4163,1725
4164,1779
4165,1813
4166,1859
4167,1857
4168,816
4169,1750
4170,1975
4171,1953
4172,1950
4173,1957
4174,2059
4175,1893
4176,1697
4177,1775
4178,1840
4179,1907
4180,2000
4181,2109
4182,2305
4183,2593
4184,2882
4185,2790
4186,2411
4187,1847
4188,1247
4189,915
4190,1040
4191,1328
4192,1570
4193,1617
4194,1629
4195,1719
4196,1775
4197,1815
4198,1878
4199,976
4200,1711
4201,1987
4202,1984
4203,1923
4204,1942
4205,2062
4206,1955
4207,1717
4208,1762
4209,1857
4210,1937
4211,2032
4212,2090
4213,2188
4214,2462
4215,2794
4216,2735
4217,2433
4218,1951
4219,1421
4220,950
4221,966
4222,1267
4223,1526
4224,1657
4225,1717
4226,1742
4227,1782
4228,1808
4229,1821
4230,1201
4231,1481
4232,1946
4233,1964
4234,1957
4235,1967
4236,2070
4237,2000
4238,1745
4239,1770
4240,1858
4241,1931
4242,1995
4243,2047
4244,2173
4245,2430
4246,2743
4247,2828
4248,2486
4249,2001
4250,1418
4251,954
4252,966
4253,1265
4254,1531
4255,1666
4256,1745
4257,1807
4258,1830
4259,1825
4260,1872
4261,1915
4262,1899
4263,1905
4264,1910
4265,1915
4266,1903
4267,1889
4268,1882
4269,1904
4270,1872
4271,1906
4272,1919
4273,1923
4274,1873
4275,1830
4276,1809
4277,1833
4278,1825
4279,1825
4280,1840
4281,1870
4282,1911
4283,1906
4284,1903
4285,1911
4286,1887
4287,1851
4288,1859
4289,1840
4290,1837
4291,1825
4292,1843
4293,1851
4294,1845
4295,1827
4296,1807
4297,1855
4298,1872
4299,1890
4300,1870
4301,1872
4302,1898
4303,1872
4304,1870
4305,1866
4306,1869
4307,1872
4308,1858
4309,1856
4310,1847
4311,1856
4312,1843
4313,1838
4314,1819
4315,1840
4316,1824
4317,1840
4318,1875
4319,1903
4320,1864
4321,1879
4322,1887
4323,1904
4324,1879
4325,1851
4326,1817
4327,1839
4328,1828
4329,1819
4330,1822
4331,1840
4332,1865
4333,1866
4334,1873
4335,1895
4336,1878
4337,1872
4338,1872
4339,1898
4340,1914
4341,1854
4342,1854
4343,1858
4344,1856
4345,1813
4346,1832
4347,1831
4348,1824
4349,1855
4350,1862
4351,1859
4352,1888
4353,1872
4354,1874
4355,1869
4356,1874
4357,1872
4358,1851
4359,1848
4360,1855
4361,1835
4362,1836
4363,1831
4364,1865
4365,1838
4366,1867
4367,1861
4368,1881
4369,1894
4370,1874
4371,1879
4372,1872
4373,1884
4374,1860
4375,1829
4376,1840
4377,1843
4378,1827
4379,1821
4380,1823
4381,1830
4382,1861
4383,1871
4384,1872
4385,1901
4386,1904
4387,1870
4388,1872
4389,1877
4390,1891
4391,1857
4392,1835
4393,1830
4394,1835
4395,1819
4396,1826
4397,1828
4398,1854
4399,1872
4400,1873
4401,1877
4402,1918
4403,1887
4404,1872
4405,1883
4406,1878
4407,1847
4408,1830
4409,1831
4410,1835
4411,1831
4412,1819
4413,1827
4414,1840
4415,1846
4416,1859
4417,1860
4418,1894
4419,1862
4420,1871
4421,1877
4422,1875
4423,1908
4424,1871
4425,1839
4426,1850
4427,1849
4428,1840
4429,1820
4430,1839
4431,1852
4432,1850
4433,1847
4434,1866
4435,1881
4436,1889
4437,1879
4438,1872
4439,1870
4440,1885
4441,1846
4442,1850
4443,1855
4444,1877
4445,1829
4446,1827
4447,1859
4448,1850
4449,1872
4450,1866
4451,1868
4452,1898
4453,1883
4454,1879
4455,1873
4456,1894
4457,1875
4458,1849
4459,1862
4460,1908
4461,1847
4462,1814
4463,1824
4464,1843
4465,1854
4466,1862
4467,1862
4468,1856
4469,1881
4470,1885
4471,1886
4472,1869
4473,1879
4474,1869
4475,1847
4476,1846
4477,1845
4478,1847
4479,1838
4480,1829
4481,1840
4482,1870
4483,1874
4484,1887
4485,1906
4486,1904
4487,1886
4488,1872
4489,1876
4490,1904
4491,1854
4492,1840
4493,1823
4494,1859
4495,1826
4496,1822
4497,1827
4498,1843
4499,1871
4500,1875
4501,1871
4502,1886
4503,1895
4504,1885
4505,1873
4506,1887
4507,1879
4508,1870
4509,1831
4510,1840
4511,1841
4512,1829
4513,1844
4514,1871
4515,1851
4516,1872
4517,1863
4518,1865
4519,1907
4520,1872
4521,1875
4522,1872
4523,1888
4524,1874
4525,1851
4526,1828
4527,1890
4528,1840
4529,1830
4530,1834
4531,1840
4532,1872
4533,1865
4534,1877
4535,1904
4536,1899
4537,1875
4538,1885
4539,1902
4540,1901
4541,1871
4542,1854
4543,1859
4544,1877
4545,1839
4546,1831
4547,1806
4548,1863
4549,1870
4550,1871
4551,1872
4552,1883
4553,1888
4554,1887
4555,1887
4556,1882
4557,1872
4558,1845
4559,1862
4560,1804
4561,1856
4562,1838
4563,1840
4564,1870
4565,1872
4566,1882
4567,1875
4568,1863
4569,1903
4570,1887
4571,1887
4572,1872
4573,1886
4574,1883
4575,1857
4576,1839
4577,1852
4578,1831
4579,1833
4580,1830
4581,1844
4582,1845
4583,1872
4584,1865
4585,1867
4586,1861
4587,1873
4588,1878
4589,1885
4590,1886
4591,1870
4592,1843
4593,1851
4594,1852
4595,1840
4596,1835
4597,1835
4598,1843
4599,1866
4600,1871
4601,1859
4602,1919
4603,1875
4604,1873
4605,1879
4606,1874
4607,1890
4608,1849
4609,1840
4610,1854
4611,1831
4612,1823
4613,1826
4614,1844
4615,1837
4616,1869
4617,1857
4618,1872
4619,1889
4620,1871
4621,1877
4622,1879
4623,1895
4624,1874
4625,1847
4626,1838
4627,1877
4628,1815
4629,1833
4630,1838
4631,1843
4632,1859
4633,1872
4634,1868
4635,1859
4636,1867
4637,1881
4638,1878
4639,1873
4640,1906
4641,1857
4642,1844
4643,1856
4644,1854
4645,1823
4646,1826
4647,1849
4648,1837
4649,1870
4650,1863
4651,1862
4652,1877
4653,1900
4654,1887
4655,1883
4656,1872
4657,1889
4658,1853
4659,1831
4660,1843
4661,1808
4662,1819
4663,1839
4664,1840
4665,1845
4666,1872
4667,1872
4668,1867
4669,1885
4670,1883
4671,1877
4672,1882
4673,1862
4674,1873
4675,1853
4676,1840
4677,1821
4678,1840
4679,1828
4680,1840
4681,1851
4682,1889
4683,1865
4684,1866
4685,1885
4686,1858
4687,1877
4688,1872
4689,1890
4690,1872
4691,1857
4692,1839
4693,1840
4694,1827
4695,1834
4696,1831
4697,1824
4698,1854
4699,1865
4700,1869
4701,1878
4702,1904
4703,1904
4704,1882
4705,1878
4706,1883
4707,1837
4708,1840
4709,1840
4710,1795
4711,1849
4712,1820
4713,1828
4714,1851
4715,1835
4716,1871
4717,1878
4718,1893
4719,1887
4720,1888
4721,1887
4722,1872
4723,1880
4724,1866
4725,1845
4726,1833
4727,1844
4728,1819
4729,1819
4730,1827
4731,1837
4732,1847
4733,1872
4734,1869
4735,1866
4736,1875
4737,1872
4738,1872
4739,1870
4740,1883
4741,1854
4742,1839
4743,1851
4744,1874
4745,1835
4746,1828
4747,1839
4748,1849
4749,1876
4750,1871
4751,1872
4752,1886
4753,1893
4754,1878
4755,1871
4756,1891
4757,1883
4758,1849
4759,1840
4760,1867
4761,1851
4762,1824
4763,1825
4764,1842
4765,1861
4766,1868
4767,1869
4768,1872
4769,1913
4770,1879
4771,1885
4772,1885
4773,1867
4774,1873
4775,1836
4776,1823
4777,1837
4778,1839
4779,1817
4780,1826
4781,1846
4782,1875
4783,1863
4784,1872
4785,1885
4786,1918
4787,1873
4788,1885
4789,1902
4790,1872
4791,1862
4792,1846
4793,1838
4794,1835
4795,1827
4796,1821
4797,1839
4798,1851
4799,1883
4800,1856
4801,1863
4802,1878
4803,1901
4804,1876
4805,1879
4806,1873
4807,1899
4808,1856
4809,1838
4810,1840
4811,1869
4812,1831
4813,1841
4814,1840
4815,1839
4816,1872
4817,1883
4818,1878
4819,1908
4820,1872
4821,1869
4822,1872
4823,1873
4824,1860
4825,1840
4826,1837
4827,1840
4828,1815
4829,1807
4830,1819
4831,1843
4832,1890
4833,1861
4834,1873
4835,1863
4836,1915
4837,1884
4838,1869
4839,1890
4840,1882
4841,1865
4842,1845
4843,1823
4844,1840
4845,1835
4846,1823
4847,1826
4848,1839
4849,1886
4850,1863
4851,1867
4852,1904
4853,1889
4854,1887
4855,1872
4856,1851
4857,1872
4858,1837
4859,1817
4860,1836
4861,1873
4862,1827
4863,1831
4864,1833
4865,1851
4866,1869
4867,1860
4868,1872
4869,1910
4870,1887
4871,1879
4872,1885
4873,1871
4874,1872
4875,1842
4876,1839
4877,1840
4878,1843
4879,1814
4880,1835
4881,1819
4882,1868
4883,1859
4884,1856
4885,1887
4886,1892
4887,1872
4888,1875
4889,1882
4890,1899
4891,1856
4892,1857
4893,1829
4894,1872
4895,1840
4896,1827
4897,1823
4898,1842
4899,1873
4900,1878
4901,1869
4902,1885
4903,1871
4904,1879
4905,1874
4906,1881
4907,1891
4908,1857
4909,1826
4910,1840
4911,1855
4912,1830
4913,1823
4914,1823
4915,1839
4916,1870
4917,1872
4918,1898
4919,1941
4920,1889
4921,1883
4922,1873
4923,1890
4924,1859
4925,1833
4926,1826
4927,1804
4928,1837
4929,1822
4930,1823
4931,1849
4932,1852
4933,1872
4934,1867
4935,1869
4936,1903
4937,1873
4938,1883
4939,1881
4940,1889
4941,1863
4942,1844
4943,1830
4944,1819
4945,1833
4946,1822
4947,1840
4948,1830
4949,1857
4950,1858
4951,1872
4952,1919
4953,1889
4954,1892
4955,1882
4956,1869
4957,1841
4958,1840
4959,1840
4960,1826
4961,1869
4962,1829
4963,1830
4964,1856
4965,1849
4966,1867
4967,1870
4968,1863
4969,1863
4970,1879
4971,1881
4972,1881
4973,1885
4974,1871
4975,1840
4976,1829
4977,1845
4978,1840
4979,1818
4980,1837
4981,1843
4982,1858
4983,1871
4984,1873
4985,1896
4986,1871
4987,1873
4988,1884
4989,1871
4990,1878
4991,1865
4992,1854
4993,1837
4994,1842
4995,1838
4996,1825
4997,1835
4998,1847
4999,1861
5000,1871
5001,1895
5002,1868
5003,1887
5004,1871
5005,1877
5006,1882
5007,1885
5008,1861
5009,1857
5010,1851
5011,1839
5012,1802
5013,1807
5014,1822
5015,1836
5016,1874
5017,1873
5018,1879
5019,1872
5020,1857
5021,1872
5022,1879
5023,1882
5024,1884
5025,1859
5026,1840
5027,1855
5028,1863
5029,1828
5030,1833
5031,1831
5032,1840
5033,1854
5034,1871
5035,1884
5036,1902
5037,1872
5038,1872
5039,1867
5040,1877
5041,1862
5042,1843
5043,1834
5044,1833
5045,1829
5046,1823
5047,1825
5048,1846
5049,1867
5050,1871
5051,1887
5052,1887
5053,1894
5054,1869
5055,1872
5056,1886
5057,1879
5058,1855
5059,1856
5060,1851
5061,1855
5062,1827
5063,1825
5064,1812
5065,1845
5066,1876
5067,1861
5068,1867
5069,1895
5070,1888
5071,1870
5072,1870
5073,1873
5074,1883
5075,1850
5076,1854
5077,1822
5078,1862
5079,1819
5080,1839
5081,1862
5082,1843
5083,1844
5084,1857
5085,1870
5086,1917
5087,1876
5088,1885
5089,1898
5090,1907
5091,1872
5092,1841
5093,1839
5094,1830
5095,1854
5096,1815
5097,1831
5098,1837
5099,1870
5100,1871
5101,1876
5102,1884
5103,1864
5104,1877
5105,1878
5106,1885
5107,1891
5108,1850
5109,1829
5110,1825
5111,1840
5112,1820
5113,1822
5114,1841
5115,1834
5116,1867
5117,1858
5118,1874
5119,1879
5120,1874
5121,1872
5122,1873
5123,1862
5124,1876
5125,1851
5126,1825
5127,1809
5128,1850
5129,1823
5130,1823
5131,1843
5132,1842
5133,1872
5134,1879
5135,1875
5136,1889
5137,1874
5138,1881
5139,1873
5140,1862
5141,1872
5142,1837
5143,1851
5144,1833
5145,1844
5146,1830
5147,1841
5148,1847
5149,1861
5150,1875
5151,1872
5152,1871
5153,1883
5154,1869
5155,1850
5156,1871
5157,1878
5158,1857
5159,1849
5160,1885
5161,1822
5162,1808
5163,1817
5164,1839
5165,1847
5166,1883
5167,1872
5168,1872
5169,1877
5170,1871
5171,1874
5172,1867
5173,1854
5174,1875
5175,1845
5176,1838
5177,1872
5178,1831
5179,1825
5180,1835
5181,1865
5182,1885
5183,1872
5184,1863
5185,1870
5186,1872
5187,1876
5188,1875
5189,1889
5190,1888
5191,1872
5192,1841
5193,1829
5194,1840
5195,1840
5196,1824
5197,1837
5198,1827
5199,1842
5200,1871
5201,1862
5202,1882
5203,1875
5204,1887
5205,1886
5206,1878
5207,1890
5208,1864
5209,1851
5210,1837
5211,1855
5212,1833
5213,1825
5214,1821
5215,1849
5216,1855
5217,1871
5218,1859
5219,1893
5220,1887
5221,1875
5222,1868
5223,1858
5224,1883
5225,1855
5226,1840
5227,1840
5228,1811
5229,1822
5230,1829
5231,1856
5232,1830
5233,1872
5234,1872
5235,1847
5236,1918
5237,1888
5238,1886
5239,1889
5240,1880
5241,1861
5242,1830
5243,1835
5244,1846
5245,1814
5246,1822
5247,1821
5248,1840
5249,1837
5250,1857
5251,1861
5252,1886
5253,1890
5254,1892
5255,1891
5256,1887
5257,1903
5258,784
5259,1663
5260,1966
5261,1966
5262,1877
5263,1866
5264,1861
5265,1821
5266,1836
5267,1839
5268,1807
5269,1829
5270,1875
5271,1879
5272,1932
5273,1987
5274,2062
5275,2231
5276,2507
5277,2807
5278,2883
5279,2688
5280,2320
5281,1922
5282,1485
5283,1054
5284,817
5285,887
5286,1210
5287,1492
5288,1663
5289,1013
5290,1438
5291,1879
5292,1899
5293,1861
5294,1874
5295,1865
5296,1798
5297,1827
5298,1809
5299,1840
5300,1886
5301,1946
5302,2005
5303,2098
5304,2152
5305,2351
5306,2698
5307,2978
5308,2935
5309,2531
5310,2031
5311,1529
5312,1023
5313,688
5314,771
5315,1175
5316,1535
5317,1703
5318,1778
5319,1815
5320,1481
5321,1407
5322,2016
5323,2070
5324,2005
5325,1984
5326,1917
5327,1847
5328,1839
5329,1744
5330,1760
5331,1872
5332,1924
5333,1995
5334,2057
5335,2181
5336,2490
5337,2855
5338,3045
5339,2777
5340,2294
5341,1762
5342,1199
5343,753
5344,682
5345,1073
5346,1409
5347,1630
5348,1744
5349,1815
5350,1856
5351,1840
5352,1280
5353,1955
5354,2000
5355,1986
5356,1996
5357,1920
5358,1872
5359,1872
5360,1843
5361,1865
5362,1871
5363,1884
5364,1942
5365,2042
5366,2201
5367,2518
5368,2874
5369,2995
5370,2677
5371,2194
5372,1649
5373,1092
5374,811
5375,854
5376,1228
5377,1521
5378,1664
5379,1721
5380,1786
5381,1837
5382,2661
5383,1088
5384,1942
5385,2019
5386,2047
5387,1969
5388,1910
5389,1913
5390,1905
5391,1891
5392,1891
5393,1886
5394,1939
5395,1936
5396,2012
5397,2206
5398,2515
5399,2854
5400,2958
5401,2612
5402,2134
5403,1570
5404,989
5405,730
5406,967
5407,1346
5408,1535
5409,1653
5410,1730
5411,1819
5412,1846
5413,2106
5414,880
5415,1906
5416,2064
5417,1987
5418,1917
5419,1872
5420,1861
5421,1855
5422,1842
5423,1843
5424,1872
5425,1914
5426,1973
5427,2077
5428,2249
5429,2543
5430,2871
5431,2957
5432,2559
5433,2094
5434,1482
5435,946
5436,788
5437,973
5438,1360
5439,1609
5440,1706
5441,1775
5442,1799
5443,1840
5444,1865
5445,793
5446,1797
5447,2056
5448,2096
5449,2038
5450,1943
5451,1903
5452,1888
5453,1855
5454,1813
5455,1861
5456,1875
5457,1885
5458,1973
5459,2201
5460,2515
5461,2813
5462,2896
5463,2559
5464,2017
5465,1423
5466,938
5467,753
5468,1014
5469,1430
5470,1654
5471,1776
5472,1840
5473,1858
5474,1862
5475,1872
5476,907
5477,1689
5478,1923
5479,1918
5480,1871
5481,1866
5482,1874
5483,1907
5484,1915
5485,1921
5486,1953
5487,1973
5488,2015
5489,2101
5490,2288
5491,2559
5492,2842
5493,2887
5494,2535
5495,1999
5496,1387
5497,866
5498,794
5499,1085
5500,1453
5501,1638
5502,1765
5503,1849
5504,1878
5505,1872
5506,1882
5507,1094
5508,1555
5509,1882
5510,1876
5511,1881
5512,1871
5513,1875
5514,1901
5515,1939
5516,1957
5517,1936
5518,1963
5519,1985
5520,2065
5521,2256
5522,2528
5523,2853
5524,2907
5525,2531
5526,1986
5527,1378
5528,938
5529,795
5530,1100
5531,1424
5532,1555
5533,1648
5534,1744
5535,1819
5536,1893
5537,1905
5538,1671
5539,1521
5540,2110
5541,2125
5542,2017
5543,1906
5544,1824
5545,1791
5546,1742
5547,1764
5548,1797
5549,1831
5550,1931
5551,2063
5552,2224
5553,2548
5554,2847
5555,2927
5556,2601
5557,2099
5558,1519
5559,981
5560,826
5561,1074
5562,1436
5563,1582
5564,1622
5565,1686
5566,1776
5567,1858
5568,1902
5569,2368
5570,1133
5571,1935
5572,2001
5573,1986
5574,1979
5575,1965
5576,1914
5577,1874
5578,1834
5579,1824
5580,1857
5581,1920
5582,2035
5583,2188
5584,2455
5585,2796
5586,2967
5587,2645
5588,2113
5589,1506
5590,963
5591,887
5592,1124
5593,1441
5594,1621
5595,1691
5596,1732
5597,1745
5598,1785
5599,1820
5600,2811
5601,1075
5602,1935
5603,2071
5604,1995
5605,1953
5606,1938
5607,1940
5608,1937
5609,1843
5610,1808
5611,1906
5612,1897
5613,1957
5614,2139
5615,2448
5616,2800
5617,2949
5618,2673
5619,2193
5620,1597
5621,967
5622,815
5623,1057
5624,1367
5625,1584
5626,1689
5627,1735
5628,1840
5629,1835
5630,1857
5631,1971
5632,799
5633,1833
5634,1951
5635,1931
5636,1934
5637,1904
5638,1917
5639,1968
5640,1898
5641,1872
5642,1874
5643,1930
5644,2038
5645,2190
5646,2401
5647,2739
5648,2886
5649,2677
5650,2192
5651,1595
5652,1090
5653,923
5654,1089
5655,1411
5656,1616
5657,1714
5658,1723
5659,1749
5660,1792
5661,1869
5662,1855
5663,824
5664,1693
5665,1888
5666,1915
5667,1895
5668,1885
5669,1955
5670,2005
5671,1915
5672,1872
5673,1908
5674,1967
5675,2011
5676,2145
5677,2361
5678,2661
5679,2877
5680,2746
5681,2257
5682,1627
5683,1088
5684,801
5685,990
5686,1386
5687,1597
5688,1725
5689,1783
5690,1821
5691,1857
5692,1862
5693,1872
5694,1038
5695,1657
5696,2014
5697,1983
5698,1949
5699,1898
5700,1899
5701,1883
5702,1803
5703,1845
5704,1867
5705,1916
5706,2003
5707,2129
5708,2343
5709,2646
5710,2947
5711,2829
5712,2306
5713,1632
5714,1081
5715,758
5716,912
5717,1269
5718,1559
5719,1729
5720,1790
5721,1803
5722,1831
5723,1859
5724,1897
5725,1210
5726,1573
5727,1932
5728,1922
5729,1872
5730,1849
5731,1929
5732,1995
5733,1909
5734,1859
5735,1904
5736,1952
5737,2002
5738,2157
5739,2331
5740,2627
5741,2883
5742,2789
5743,2373
5744,1792
5745,1207
5746,806
5747,881
5748,1235
5749,1517
5750,1671
5751,1717
5752,1782
5753,1841
5754,1847
5755,1872
5756,1662
5757,1381
5758,1981
5759,1944
5760,1920
5761,1938
5762,1924
5763,1915
5764,1840
5765,1792
5766,1803
5767,1871
5768,1989
5769,2135
5770,2314
5771,2614
5772,2924
5773,2941
5774,2544
5775,1915
5776,1255
5777,848
5778,923
5779,1205
5780,1471
5781,1639
5782,1712
5783,1788
5784,1857
5785,1886
5786,1967
5787,2357
5788,1248
5789,1953
5790,1909
5791,1888
5792,1879
5793,1878
5794,1947
5795,1896
5796,1779
5797,1777
5798,1849
5799,1947
5800,2062
5801,2219
5802,2499
5803,2821
5804,2912
5805,2599
5806,2042
5807,1492
5808,1065
5809,926
5810,1211
5811,1437
5812,1569
5813,1623
5814,1702
5815,1787
5816,1856
5817,1884
5818,2655
5819,898
5820,1883
5821,1961
5822,1911
5823,1908
5824,1953
5825,1975
5826,1887
5827,1790
5828,1808
5829,1809
5830,1933
5831,2054
5832,2200
5833,2459
5834,2800
5835,2961
5836,2702
5837,2186
5838,1516
5839,1023
5840,875
5841,1159
5842,1395
5843,1572
5844,1645
5845,1745
5846,1744
5847,1783
5848,1837
5849,1879
5850,827
5851,1829
5852,1968
5853,1959
5854,1921
5855,1950
5856,2023
5857,1998
5858,1840
5859,1778
5860,1811
5861,1917
5862,2015
5863,2137
5864,2363
5865,2699
5866,2901
5867,2720
5868,2282
5869,1695
5870,1093
5871,859
5872,1072
5873,1408
5874,1583
5875,1653
5876,1694
5877,1731
5878,1785
5879,1859
5880,1904
5881,1959
5882,1970
5883,2001
5884,2003
5885,1930
5886,1904
5887,1847
5888,1851
5889,1863
5890,1872
5891,1904
5892,1893
5893,1889
5894,1788
5895,1789
5896,1806
5897,1843
5898,1887
5899,1869
5900,1861
5901,1862
5902,1867
5903,1921
5904,1899
5905,1907
5906,1893
5907,1858
5908,1856
5909,1835
5910,1827
5911,1872
5912,1879
5913,1847
5914,1862
5915,1847
5916,1847
5917,1855
5918,1846
5919,1860
5920,1873
5921,1899
5922,1925
5923,1935
5924,1925
5925,1858
5926,1823
5927,1788
5928,1822
5929,1813
5930,1818
5931,1807
5932,1850
5933,1872
5934,1855
5935,1869
5936,1889
5937,1882
5938,1872
5939,1857
5940,1862
5941,1871
5942,1850
5943,1845
5944,1841
5945,1874
5946,1829
5947,1840
5948,1862
5949,1903
5950,1872
5951,1870
5952,1869
5953,1874
5954,1869
5955,1878
5956,1887
5957,1885
5958,1877
5959,1840
5960,1821
5961,1819
5962,1829
5963,1827
5964,1829
5965,1831
5966,1840
5967,1862
5968,1864
5969,1840
5970,1872
5971,1869
5972,1877
5973,1869
5974,1899
5975,1872
5976,1845
5977,1840
5978,1825
5979,1829
5980,1819
5981,1837
5982,1835
5983,1864
5984,1882
5985,1873
5986,1879
5987,1886
5988,1865
5989,1859
5990,1886
5991,1893
5992,1857
5993,1831
5994,1813
5995,1861
5996,1815
5997,1828
5998,1856
5999,1840
6000,1859
6001,1861
6002,1859
6003,1885
6004,1869
6005,1869
6006,1869
6007,1872
6008,1862
6009,1839
6010,1841
6011,1827
6012,1823
6013,1838
6014,1834
6015,1843
6016,1857
6017,1860
6018,1854
6019,1860
6020,1857
6021,1869
6022,1872
6023,1872
6024,1899
6025,1856
6026,1840
6027,1829
6028,1840
6029,1826
6030,1818
6031,1843
6032,1861
6033,1885
6034,1871
6035,1862
6036,1882
6037,1858
6038,1857
6039,1894
6040,1891
6041,1897
6042,1851
6043,1822
6044,1838
6045,1834
6046,1823
6047,1808
6048,1846
6049,1841
6050,1881
6051,1872
6052,1871
6053,1904
6054,1873
6055,1831
6056,1854
6057,1876
6058,1885
6059,1857
6060,1851
6061,1855
6062,1871
6063,1847
6064,1847
6065,1841
6066,1827
6067,1859
6068,1857
6069,1861
6070,1878
6071,1877
6072,1872
6073,1854
6074,1875
6075,1877
6076,1849
6077,1858
6078,1875
6079,1833
6080,1822
6081,1845
6082,1849
6083,1863
6084,1855
6085,1856
6086,1878
6087,1887
6088,1872
6089,1890
6090,1865
6091,1894
6092,1855
6093,1843
6094,1860
6095,1829
6096,1823
6097,1826
6098,1843
6099,1843
6100,1873
6101,1873
6102,1868
6103,1871
6104,1874
6105,1877
6106,1897
6107,1904
6108,1895
6109,1872
6110,1843
6111,1840
6112,1811
6113,1818
6114,1840
6115,1837
6116,1833
6117,1850
6118,1847
6119,1846
6120,1859
6121,1870
6122,1878
6123,1872
6124,1897
6125,1872
6126,1863
6127,1825
6128,1817
6129,1823
6130,1819
6131,1823
6132,1835
6133,1886
6134,1887
6135,1888
6136,1877
6137,1879
6138,1878
6139,1877
6140,1871
6141,1891
6142,1835
6143,1833
6144,1847
6145,1839
6146,1821
6147,1819
6148,1847
6149,1825
6150,1866
6151,1866
6152,1873
6153,1886
6154,1875
6155,1891
6156,1913
6157,1897
6158,1917
6159,1859
6160,1822
6161,1808
6162,1831
6163,1807
6164,1822
6165,1838
6166,1858
6167,1872
6168,1874
6169,1859
6170,1911
6171,1894
6172,1888
6173,1885
6174,1872
6175,1874
6176,1842
6177,1821
6178,1836
6179,1825
6180,1823
6181,1840
6182,1840
6183,1860
6184,1869
6185,1885
6186,1871
6187,1883
6188,1873
6189,1872
6190,1880
6191,1904
6192,1859
6193,1847
6194,1833
6195,1834
6196,1835
6197,1829
6198,1872
6199,1850
6200,1874
6201,1873
6202,1870
6203,1859
6204,1883
6205,1871
6206,1874
6207,1863
6208,1856
6209,1842
6210,1821
6211,1835
6212,1839
6213,1835
6214,1833
6215,1839
6216,1843
6217,1871
6218,1874
6219,1859
6220,1866
6221,1871
6222,1875
6223,1867
6224,1875
6225,1874
6226,1835
6227,1856
6228,1841
6229,1847
6230,1825
6231,1847
6232,1850
6233,1836
6234,1859
6235,1872
6236,1878
6237,1872
6238,1871
6239,1870
6240,1875
6241,1876
6242,1872
6243,1854
6244,1841
6245,1857
6246,1828
6247,1817
6248,1843
6249,1840
6250,1865
6251,1863
6252,1870
6253,1856
6254,1899
6255,1873
6256,1877
6257,1882
6258,1891
6259,1870
6260,1851
6261,1841
6262,1858
6263,1824
6264,1809
6265,1853
6266,1856
6267,1856
6268,1851
6269,1872
6270,1853
6271,1872
6272,1886
6273,1882
6274,1872
6275,1878
6276,1856
6277,1855
6278,1861
6279,1885
6280,1809
6281,1815
6282,1837
6283,1854
6284,1872
6285,1867
6286,1872
6287,1883
6288,1878
6289,1886
6290,1891
6291,1885
6292,1862
6293,1838
6294,1847
6295,1856
6296,1823
6297,1818
6298,1828
6299,1835
6300,1861
6301,1875
6302,1875
6303,1878
6304,1871
6305,1882
6306,1874
6307,1887
6308,1887
6309,1843
6310,1847
6311,1839
6312,1850
6313,1819
6314,1823
6315,1840
6316,1851
6317,1871
6318,1870
6319,1872
6320,1904
6321,1872
6322,1871
6323,1863
6324,1890
6325,1888
6326,1841
6327,1816
6328,1837
6329,1856
6330,1806
6331,1837
6332,1855
6333,1882
6334,1890
6335,1889
6336,1888
6337,1898
6338,1878
6339,1867
6340,1901
6341,1875
6342,1867
6343,1840
6344,1851
6345,1833
6346,1837
6347,1829
6348,1829
6349,1840
6350,1877
6351,1885
6352,1883
6353,1904
6354,1887
6355,1877
6356,1856
6357,1861
6358,1870
6359,1840
6360,1839
6361,1903
6362,1867
6363,1837
6364,1847
6365,1847
6366,1837
6367,1866
6368,1861
6369,1873
6370,1917
6371,1893
6372,1904
6373,1904
6374,1900
6375,1861
6376,1825
6377,1830
6378,1815
6379,1815
6380,1822
6381,1839
6382,1838
6383,1872
6384,1859
6385,1872
6386,1873
6387,1875
6388,1870
6389,1887
6390,1882
6391,1867
6392,1865
6393,1845
6394,1856
6395,1876
6396,1835
6397,1829
6398,1847
6399,1838
6400,1872
6401,1875
6402,1867
6403,1873
6404,1879
6405,1878
6406,1887
6407,1887
6408,1919
6409,1871
6410,1842
6411,1887
6412,1859
6413,1834
6414,1830
6415,1839
6416,1795
6417,1841
6418,1859
6419,1887
6420,1876
6421,1881
6422,1883
6423,1895
6424,1870
6425,1871
6426,1866
6427,1867
6428,1866
6429,1863
6430,1825
6431,1810
6432,1822
6433,1817
6434,1830
6435,1851
6436,1870
6437,1911
6438,1884
6439,1894
6440,1904
6441,1884
6442,1858
6443,1845
6444,1839
6445,1855
6446,1831
6447,1828
6448,1837
6449,1838
6450,1874
6451,1883
6452,1899
6453,1937
6454,1882
6455,1859
6456,1868
6457,1872
6458,1869
6459,1845
6460,1840
6461,1840
6462,1841
6463,1826
6464,1842
6465,1839
6466,1837
6467,1866
6468,1873
6469,1890
6470,1902
6471,1881
6472,1894
6473,1890
6474,1858
6475,1886
6476,1842
6477,1842
6478,1837
6479,1816
6480,1833
6481,1835
6482,1859
6483,1904
6484,1871
6485,1875
6486,1902
6487,1880
6488,1882
6489,1894
6490,1878
6491,1884
6492,1862
6493,1845
6494,1850
6495,1866
6496,1840
6497,1833
6498,1846
6499,1867
6500,1883
6501,1871
6502,1891
6503,1866
6504,1870
6505,1842
6506,1858
6507,1858
6508,1867
6509,1850
6510,1840
6511,1818
6512,1842
6513,1826
6514,1828
6515,1838
6516,1843
6517,1859
6518,1872
6519,1872
6520,1889
6521,1885
6522,1894
6523,1874
6524,1874
6525,1877
6526,1862
6527,1840
6528,1837
6529,1842
6530,1835
6531,1817
6532,1826
6533,1863
6534,1868
6535,1865
6536,1887
6537,1863
6538,1863
6539,1872
6540,1875
6541,1890
6542,1859
6543,1846
6544,1839
6545,1824
6546,1840
6547,1825
6548,1840
6549,1872
6550,1865
6551,1872
6552,1878
6553,1891
6554,1890
6555,1883
6556,1893
6557,1909
6558,1917
6559,1857
6560,1846
6561,1840
6562,1845
6563,1831
6564,1823
6565,1845
6566,1840
6567,1866
6568,1841
6569,1855
6570,1866
6571,1873
6572,1882
6573,1883
6574,1879
6575,1874
6576,1868
6577,1849
6578,1838
6579,1861
6580,1829
6581,1831
6582,1855
6583,1840
6584,1871
6585,1883
6586,1868
6587,1865
6588,1872
6589,1876
6590,1867
6591,1872
6592,1861
6593,1834
6594,1851
6595,1840
6596,1843
6597,1834
6598,1847
6599,1854
6600,1836
6601,1858
6602,1869
6603,1888
6604,1885
6605,1877
6606,1883
6607,1873
6608,1905
6609,1846
6610,1831
6611,1857
6612,1853
6613,1815
6614,1817
6615,1821
6616,1813
6617,1873
6618,1888
6619,1876
6620,1903
6621,1879
6622,1877
6623,1859
6624,1857
6625,1862
6626,1838
6627,1829
6628,1833
6629,1836
6630,1810
6631,1840
6632,1856
6633,1835
6634,1863
6635,1867
6636,1895
6637,1890
6638,1893
6639,1902
6640,1884
6641,1904
6642,1869
6643,1838
6644,1823
6645,1807
6646,1833
6647,1821
6648,1835
6649,1840
6650,1856
6651,1860
6652,1872
6653,1872
6654,1871
6655,1859
6656,1871
6657,1859
6658,1873
6659,1844
6660,1841
6661,1795
6662,1847
6663,1834
6664,1823
6665,1839
6666,1842
6667,1878
6668,1871
6669,1872
6670,1895
6671,1875
6672,1882
6673,1894
6674,1883
6675,1875
6676,1861
6677,1842
6678,1839
6679,1833
6680,1824
6681,1818
6682,1851
6683,1867
6684,1866
6685,1869
6686,1872
6687,1872
6688,1872
6689,1876
6690,1849
6691,1887
6692,1866
6693,1850
6694,1843
6695,1865
6696,1838
6697,1831
6698,1836
6699,1856
6700,1861
6701,1861
6702,1871
6703,1872
6704,1904
6705,1886
6706,1877
6707,1887
6708,1874
6709,1857
6710,1847
6711,1840
6712,1839
6713,1824
6714,1816
6715,1847
6716,1829
6717,1856
6718,1855
6719,1863
6720,1904
6721,1875
6722,1875
6723,1883
6724,1898
6725,1872
6726,1847
6727,1824
6728,1824
6729,1865
6730,1814
6731,1825
6732,1838
6733,1831
6734,1872
6735,1874
6736,1874
6737,1877
6738,1869
6739,1871
6740,1875
6741,1878
6742,1882
6743,1856
6744,1842
6745,1883
6746,1822
6747,1815
6748,1837
6749,1842
6750,1855
6751,1866
6752,1885
6753,1887
6754,1899
6755,1883
6756,1875
6757,1859
6758,1877
6759,1856
6760,1837
6761,1856
6762,1867
6763,1839
6764,1822
6765,1845
6766,1831
6767,1868
6768,1859
6769,1873
6770,1913
6771,1883
6772,1882
6773,1872
6774,1860
6775,1872
6776,1847
6777,1849
6778,1800
6779,1842
6780,1815
6781,1827
6782,1823
6783,1840
6784,1872
6785,1885
6786,1905
6787,1899
6788,1882
6789,1872
6790,1872
6791,1872
6792,1871
6793,1853
6794,1839
6795,1851
6796,1861
6797,1830
6798,1829
6799,1853
6800,1904
6801,1881
6802,1890
6803,1875
6804,1875
6805,1860
6806,1873
6807,1876
6808,1872
6809,1856
6810,1842
6811,1834
6812,1815
6813,1831
6814,1826
6815,1831
6816,1847
6817,1859
6818,1875
6819,1862
6820,1893
6821,1863
6822,1878
6823,1862
6824,1886
6825,1871
6826,1856
6827,1830
6828,1827
6829,1851
6830,1825
6831,1823
6832,1854
6833,1860
6834,1867
6835,1856
6836,1853
6837,1900
6838,1869
6839,1873
6840,1872
6841,1872
6842,1872
6843,1852
6844,1840
6845,1827
6846,1833
6847,1838
6848,1825
6849,1853
6850,1863
6851,1865
6852,1870
6853,1867
6854,1913
6855,1885
6856,1885
6857,1883
6858,1891
6859,1857
6860,1840
6861,1826
6862,1840
6863,1846
6864,1840
6865,1840
6866,1844
6867,1872
6868,1869
6869,1843
6870,1874
6871,1882
6872,1881
6873,1879
6874,1875
6875,1870
6876,1842
6877,2721
6878,979
6879,1865
6880,1949
6881,1919
6882,1891
6883,1904
6884,1872
6885,1843
6886,1824
6887,1819
6888,1846
6889,1859
6890,1872
6891,1874
6892,1927
6893,1969
6894,2127
6895,2384
6896,2645
6897,2901
6898,2863
6899,2559
6900,2160
6901,1713
6902,1205
6903,882
6904,799
6905,1038
6906,1373
6907,1622
6908,2142
6909,804
6910,1730
6911,1904
6912,1919
6913,1872
6914,1859
6915,1815
6916,1802
6917,1828
6918,1824
6919,1863
6920,1930
6921,1933
6922,2012
6923,2095
6924,2242
6925,2503
6926,2864
6927,2988
6928,2737
6929,2261
6930,1735
6931,1239
6932,791
6933,727
6934,999
6935,1386
6936,1655
6937,1807
6938,1831
6939,1866
6940,925
6941,1780
6942,2046
6943,1968
6944,1934
6945,1942
6946,1853
6947,1841
6948,1844
6949,1882
6950,1905
6951,1906
6952,1945
6953,2025
6954,2127
6955,2316
6956,2653
6957,2971
6958,2960
6959,2523
6960,1978
6961,1477
6962,997
6963,693
6964,816
6965,1255
6966,1595
6967,1753
6968,1831
6969,1845
6970,1877
6971,1041
6972,1643
6973,2003
6974,1970
6975,1995
6976,1904
6977,1863
6978,1883
6979,1940
6980,1873
6981,1835
6982,1897
6983,1915
6984,2000
6985,2062
6986,2251
6987,2603
6988,2893
6989,2887
6990,2503
6991,2004
6992,1488
6993,930
6994,723
6995,986
6996,1344
6997,1606
6998,1725
6999,1787
7000,1865
7001,1894
7002,1322
7003,1520
7004,2030
7005,2019
7006,2000
7007,1926
7008,1846
7009,1859
7010,1890
7011,1834
7012,1872
7013,1867
7014,1887
7015,1984
7016,2064
7017,2258
7018,2591
7019,2889
7020,2885
7021,2513
7022,2005
7023,1440
7024,919
7025,805
7026,1067
7027,1393
7028,1621
7029,1782
7030,1777
7031,1808
7032,1851
7033,1749
7034,1359
7035,1927
7036,1949
7037,1927
7038,1855
7039,1841
7040,1975
7041,1986
7042,1887
7043,1842
7044,1877
7045,1931
7046,1950
7047,2027
7048,2239
7049,2559
7050,2947
7051,2862
7052,2456
7053,1936
7054,1359
7055,880
7056,830
7057,1168
7058,1519
7059,1660
7060,1714
7061,1762
7062,1805
7063,1817
7064,2434
7065,1162
7066,1890
7067,1958
7068,1926
7069,1902
7070,1914
7071,2016
7072,1969
7073,1876
7074,1904
7075,1927
7076,1936
7077,1996
7078,2101
7079,2253
7080,2555
7081,2839
7082,2822
7083,2416
7084,1875
7085,1279
7086,852
7087,865
7088,1188
7089,1520
7090,1702
7091,1806
7092,1840
7093,1847
7094,1872
7095,2512
7096,1092
7097,1856
7098,1937
7099,1934
7100,1906
7101,1930
7102,1970
7103,1907
7104,1839
7105,1822
7106,1840
7107,1884
7108,1990
7109,2096
7110,2304
7111,2591
7112,2807
7113,2788
7114,2390
7115,1822
7116,1218
7117,841
7118,885
7119,1221
7120,1535
7121,1695
7122,1777
7123,1841
7124,1904
7125,1881
7126,1924
7127,829
7128,1776
7129,1910
7130,1853
7131,1833
7132,1915
7133,1955
7134,1974
7135,1846
7136,1858
7137,1889
7138,1930
7139,2011
7140,2112
7141,2302
7142,2559
7143,2887
7144,2849
7145,2435
7146,1846
7147,1263
7148,851
7149,875
7150,1218
7151,1535
7152,1646
7153,1709
7154,1827
7155,1840
7156,1871
7157,1905
7158,916
7159,1769
7160,1987
7161,1942
7162,1903
7163,1916
7164,1986
7165,1941
7166,1811
7167,1808
7168,1839
7169,1904
7170,2007
7171,2098
7172,2241
7173,2559
7174,2915
7175,2857
7176,2442
7177,1889
7178,1246
7179,881
7180,873
7181,1177
7182,1500
7183,1630
7184,1743
7185,1813
7186,1861
7187,1926
7188,1905
7189,1019
7190,1693
7191,1946
7192,1890
7193,1867
7194,1893
7195,1971
7196,1996
7197,1810
7198,1745
7199,1797
7200,1925
7201,2061
7202,2162
7203,2337
7204,2613
7205,2906
7206,2903
7207,2463
7208,1856
7209,1251
7210,843
7211,902
7212,1205
7213,1433
7214,1630
7215,1722
7216,1781
7217,1828
7218,1866
7219,1891
7220,1440
7221,1522
7222,1958
7223,1937
7224,1907
7225,1957
7226,1967
7227,1983
7228,1819
7229,1714
7230,1767
7231,1847
7232,1966
7233,2069
7234,2256
7235,2518
7236,2830
7237,2928
7238,2594
7239,2089
7240,1427
7241,927
7242,887
7243,1142
7244,1431
7245,1606
7246,1734
7247,1739
7248,1777
7249,1851
7250,1872
7251,1969
7252,1309
7253,1925
7254,1965
7255,1904
7256,1930
7257,2055
7258,2111
7259,1872
7260,1701
7261,1769
7262,1875
7263,1953
7264,2020
7265,2165
7266,2439
7267,2742
7268,2821
7269,2545
7270,2112
7271,1535
7272,981
7273,897
7274,1163
7275,1489
7276,1630
7277,1687
7278,1740
7279,1783
7280,1799
7281,1835
7282,2731
7283,1057
7284,1879
7285,1958
7286,1925
7287,1951
7288,2031
7289,2126
7290,1901
7291,1726
7292,1767
7293,1811
7294,1929
7295,2038
7296,2167
7297,2390
7298,2704
7299,2848
7300,2624
7301,2160
7302,1588
7303,1063
7304,917
7305,1136
7306,1457
7307,1655
7308,1712
7309,1775
7310,1805
7311,1831
7312,1837
7313,2225
7314,897
7315,1835
7316,1914
7317,1903
7318,1927
7319,2006
7320,2123
7321,1936
7322,1717
7323,1781
7324,1911
7325,1989
7326,2036
7327,2129
7328,2333
7329,2651
7330,2812
7331,2656
7332,2257
7333,1629
7334,1114
7335,907
7336,1081
7337,1380
7338,1584
7339,1670
7340,1743
7341,1802
7342,1856
7343,1875
7344,1859
7345,871
7346,1749
7347,1940
7348,1930
7349,1920
7350,1909
7351,2073
7352,1872
7353,1659
7354,1774
7355,1867
7356,1963
7357,2073
7358,2176
7359,2349
7360,2607
7361,2755
7362,2675
7363,2304
7364,1755
7365,1168
7366,864
7367,1040
7368,1367
7369,1600
7370,1695
7371,1742
7372,1781
7373,1843
7374,1875
7375,1919
7376,986
7377,1696
7378,1946
7379,1926
7380,1899
7381,1942
7382,2096
7383,1918
7384,1719
7385,1750
7386,1852
7387,1935
7388,2007
7389,2123
7390,2317
7391,2559
7392,2777
7393,2717
7394,2382
7395,1859
7396,1328
7397,846
7398,885
7399,1252
7400,1522
7401,1697
7402,1773
7403,1816
7404,1838
7405,1864
7406,1894
7407,1232
7408,1587
7409,2003
7410,1955
7411,1926
7412,1963
7413,2064
7414,1893
7415,1626
7416,1650
7417,1821
7418,1923
7419,2006
7420,2123
7421,2247
7422,2527
7423,2786
7424,2790
7425,2529
7426,1989
7427,1393
7428,1011
7429,1004
7430,1214
7431,1442
7432,1579
7433,1664
7434,1748
7435,1794
7436,1842
7437,1872
7438,1602
7439,1491
7440,2037
7441,2032
7442,1930
7443,1842
7444,1936
7445,1936
7446,1679
7447,1653
7448,1767
7449,1879
7450,1958
7451,2110
7452,2230
7453,2489
7454,2804
7455,2815
7456,2559
7457,2109
7458,1503
7459,1041
7460,944
7461,1168
7462,1451
7463,1616
7464,1678
7465,1735
7466,1808
7467,1840
7468,1866
7469,2141
7470,1232
7471,1934
7472,1955
7473,1936
7474,1957
7475,2096
7476,2064
7477,1744
7478,1663
7479,1807
7480,1884
7481,1937
7482,2043
7483,2181
7484,2399
7485,2690
7486,2834
7487,2683
7488,2246
7489,1571
7490,1068
7491,963
7492,1155
7493,1408
7494,1562
7495,1670
7496,1712
7497,1755
7498,1811
7499,1847
7500,1875
7501,1918
7502,1930
7503,1943
7504,1943
7505,1938
7506,1926
7507,1898
7508,1881
7509,1859
7510,1867
7511,1872
7512,1895
7513,1890
7514,1850
7515,1851
7516,1875
7517,1884
7518,1872
7519,1873
7520,1889
7521,1890
7522,1878
7523,1872
7524,1900
7525,1894
7526,1843
7527,1817
7528,1819
7529,1829
7530,1849
7531,1815
7532,1845
7533,1869
7534,1926
7535,1879
7536,1787
7537,1789
7538,1840
7539,1872
7540,1874
7541,1891
7542,1856
7543,1867
7544,1856
7545,1872
7546,1865
7547,1849
7548,1838
7549,1845
7550,1822
7551,1861
7552,1857
7553,1849
7554,1863
7555,1865
7556,1859
7557,1872
7558,1871
7559,1877
7560,1844
7561,1842
7562,1858
7563,1840
7564,1830
7565,1834
7566,1833
7567,1866
7568,1867
7569,1866
7570,1874
7571,1874
7572,1857
7573,1872
7574,1889
7575,1879
7576,1867
7577,1839
7578,1841
7579,1809
7580,1834
7581,1830
7582,1838
7583,1840
7584,1889
7585,1869
7586,1890
7587,1883
7588,1874
7589,1879
7590,1887
7591,1903
7592,1894
7593,1855
7594,1829
7595,1826
7596,1815
7597,1803
7598,1811
7599,1809
7600,1811
7601,1870
7602,1875
7603,1870
7604,1877
7605,1902
7606,1875
7607,1861
7608,1863
7609,1876
7610,1843
7611,1844
7612,1830
7613,1845
7614,1834
7615,1826
7616,1834
7617,1866
7618,1855
7619,1863
7620,1865
7621,1895
7622,1877
7623,1879
7624,1878
7625,1861
7626,1861
7627,1853
7628,1840
7629,1859
7630,1840
7631,1825
7632,1818
7633,1841
7634,1842
7635,1862
7636,1871
7637,1886
7638,1868
7639,1872
7640,1875
7641,1888
7642,1890
7643,1854
7644,1821
7645,1827
7646,1847
7647,1821
7648,1819
7649,1835
7650,1835
7651,1872
7652,1862
7653,1872
7654,1926
7655,1875
7656,1887
7657,1894
7658,1908
7659,1904
7660,1822
7661,1814
7662,1817
7663,1872
7664,1810
7665,1815
7666,1808
7667,1874
7668,1879
7669,1878
7670,1894
7671,1866
7672,1871
7673,1873
7674,1870
7675,1886
7676,1879
7677,1863
7678,1871
7679,1903
7680,1853
7681,1813
7682,1792
7683,1777
7684,1830
7685,1855
7686,1897
7687,1875
7688,1858
7689,1872
7690,1872
7691,1867
7692,1866
7693,1866
7694,1845
7695,1840
7696,1858
7697,1822
7698,1819
7699,1827
7700,1840
7701,1872
7702,1872
7703,1874
7704,1866
7705,1851
7706,1871
7707,1867
7708,1857
7709,1872
7710,1856
7711,1838
7712,1845
7713,1876
7714,1833
7715,1829
7716,1855
7717,1872
7718,1872
7719,1856
7720,1861
7721,1903
7722,1882
7723,1877
7724,1869
7725,1889
7726,1866
7727,1835
7728,1851
7729,1854
7730,1854
7731,1834
7732,1839
7733,1874
7734,1842
7735,1856
7736,1872
7737,1872
7738,1889
7739,1879
7740,1865
7741,1861
7742,1855
7743,1853
7744,1841
7745,1843
7746,1852
7747,1837
7748,1840
7749,1849
7750,1840
7751,1876
7752,1861
7753,1875
7754,1907
7755,1870
7756,1869
7757,1891
7758,1898
7759,1882
7760,1872
7761,1845
7762,1848
7763,1840
7764,1808
7765,1822
7766,1840
7767,1819
7768,1865
7769,1886
7770,1867
7771,1904
7772,1879
7773,1882
7774,1873
7775,1887
7776,1871
7777,1855
7778,1836
7779,1838
7780,1839
7781,1831
7782,1824
7783,1870
7784,1870
7785,1867
7786,1857
7787,1895
7788,1913
7789,1882
7790,1889
7791,1891
7792,1904
7793,1861
7794,1837
7795,1857
7796,1838
7797,1831
7798,1813
7799,1831
7800,1845
7801,1878
7802,1872
7803,1872
7804,1868
7805,1887
7806,1878
7807,1876
7808,1872
7809,1872
7810,1848
7811,1833
7812,1830
7813,1883
7814,1826
7815,1837
7816,1859
7817,1851
7818,1872
7819,1872
7820,1852
7821,1920
7822,1875
7823,1873
7824,1883
7825,1883
7826,1871
7827,1849
7828,1831
7829,1811
7830,1856
7831,1823
7832,1837
7833,1847
7834,1866
7835,1875
7836,1875
7837,1889
7838,1890
7839,1875
7840,1877
7841,1888
7842,1888
7843,1863
7844,1838
7845,1837
7846,1845
7847,1835
7848,1827
7849,1840
7850,1852
7851,1889
7852,1874
7853,1893
7854,1878
7855,1868
7856,1856
7857,1872
7858,1888
7859,1874
7860,1842
7861,1845
7862,1841
7863,1856
7864,1831
7865,1821
7866,1845
7867,1838
7868,1874
7869,1869
7870,1871
7871,1904
7872,1879
7873,1882
7874,1882
7875,1904
7876,1890
7877,1843
7878,1836
7879,1843
7880,1847
7881,1820
7882,1834
7883,1855
7884,1860
7885,1858
7886,1867
7887,1871
7888,1876
7889,1872
7890,1877
7891,1881
7892,1889
7893,1872
7894,1842
7895,1854
7896,1851
7897,1841
7898,1837
7899,1839
7900,1850
7901,1882
7902,1857
7903,1857
7904,1870
7905,1867
7906,1859
7907,1867
7908,1885
7909,1879
7910,1857
7911,1837
7912,1840
7913,1875
7914,1823
7915,1813
7916,1840
7917,1839
7918,1862
7919,1872
7920,1862
7921,1920
7922,1875
7923,1872
7924,1872
7925,1881
7926,1885
7927,1855
7928,1846
7929,1885
7930,1833
7931,1826
7932,1829
7933,1829
7934,1849
7935,1870
7936,1872
7937,1871
7938,1924
7939,1874
7940,1872
7941,1888
7942,1904
7943,1859
7944,1834
7945,1851
7946,1854
7947,1833
7948,1822
7949,1822
7950,1849
7951,1869
7952,1872
7953,1877
7954,1888
7955,1873
7956,1886
7957,1873
7958,1875
7959,1881
7960,1858
7961,1853
7962,1835
7963,1845
7964,1827
7965,1825
7966,1844
7967,1865
7968,1883
7969,1875
7970,1871
7971,1890
7972,1872
7973,1871
7974,1864
7975,1871
7976,1872
7977,1849
7978,1842
7979,1844
7980,1843
7981,1814
7982,1833
7983,1835
7984,1819
7985,1872
7986,1870
7987,1868
7988,1887
7989,1874
7990,1872
7991,1892
7992,1865
7993,1872
7994,1855
7995,1844
7996,1850
7997,1840
7998,1837
7999,1846
8000,1847
8001,1874
8002,1872
8003,1878
8004,1893
8005,1872
8006,1851
8007,1859
8008,1851
8009,1913
8010,1855
8011,1847
8012,1847
8013,1865
8014,1825
8015,1827
8016,1842
8017,1816
8018,1867
8019,1865
8020,1873
8021,1879
8022,1883
8023,1878
8024,1866
8025,1879
8026,1883
8027,1855
8028,1834
8029,1831
8030,1857
8031,1823
8032,1822
8033,1825
8034,1840
8035,1863
8036,1858
8037,1871
8038,1873
8039,1872
8040,1871
8041,1904
8042,1879
8043,1866
8044,1840
8045,1851
8046,1872
8047,1846
8048,1829
8049,1840
8050,1842
8051,1879
8052,1872
8053,1872
8054,1890
8055,1887
8056,1864
8057,1872
8058,1883
8059,1911
8060,1858
8061,1847
8062,1814
8063,1847
8064,1822
8065,1819
8066,1795
8067,1834
8068,1863
8069,1859
8070,1872
8071,1877
8072,1874
8073,1874
8074,1874
8075,1873
8076,1876
8077,1841
8078,1842
8079,1826
8080,1843
8081,1823
8082,1838
8083,1866
8084,1865
8085,1871
8086,1873
8087,1871
8088,1888
8089,1885
8090,1880
8091,1859
8092,1878
8093,1863
8094,1839
8095,1840
8096,1839
8097,1839
8098,1821
8099,1831
8100,1842
8101,1887
8102,1874
8103,1855
8104,1898
8105,1885
8106,1871
8107,1871
8108,1876
8109,1886
8110,1843
8111,1841
8112,1825
8113,1852
8114,1834
8115,1826
8116,1831
8117,1849
8118,1863
8119,1871
8120,1865
8121,1861
8122,1885
8123,1872
8124,1873
8125,1867
8126,1856
8127,1831
8128,1838
8129,1835
8130,1872
8131,1822
8132,1835
8133,1845
8134,1842
8135,1877
8136,1874
8137,1872
8138,1888
8139,1875
8140,1871
8141,1843
8142,1887
8143,1869
8144,1840
8145,1842
8146,1857
8147,1854
8148,1835
8149,1838
8150,1854
8151,1882
8152,1872
8153,1863
8154,1872
8155,1886
8156,1859
8157,1869
8158,1872
8159,1886
8160,1861
8161,1853
8162,1866
8163,1858
8164,1833
8165,1819
8166,1810
8167,1809
8168,1867
8169,1871
8170,1859
8171,1886
8172,1893
8173,1872
8174,1871
8175,1870
8176,1890
8177,1855
8178,1847
8179,1838
8180,1854
8181,1823
8182,1829
8183,1856
8184,1852
8185,1872
8186,1856
8187,1873
8188,1904
8189,1882
8190,1877
8191,1874
8192,1891
8193,1873
8194,1843
8195,1845
8196,1868
8197,1850
8198,1821
8199,1840
8200,1825
8201,1869
8202,1877
8203,1872
8204,1888
8205,1883
8206,1879
8207,1878
8208,1907
8209,1889
8210,1867
8211,1856
8212,1851
8213,1855
8214,1825
8215,1822
8216,1840
8217,1840
8218,1849
8219,1843
8220,1856
8221,1891
8222,1872
8223,1877
8224,1879
8225,1872
8226,1871
8227,1859
8228,1840
8229,1830
8230,1862
8231,1827
8232,1840
8233,1860
8234,1872
8235,1874
8236,1872
8237,1865
8238,1885
8239,1872
8240,1877
8241,1872
8242,1891
8243,1879
8244,1842
8245,1828
8246,1849
8247,1827
8248,1821
8249,1825
8250,1838
8251,1851
8252,1867
8253,1885
8254,1903
8255,1893
8256,1879
8257,1887
8258,1874
8259,1887
8260,1861
8261,1838
8262,1827
8263,1844
8264,1831
8265,1823
8266,1840
8267,1830
8268,1871
8269,1859
8270,1873
8271,1886
8272,1903
8273,1890
8274,1859
8275,1887
8276,1871
8277,1842
8278,1842
8279,1841
8280,1823
8281,1827
8282,1837
8283,1859
8284,1840
8285,1882
8286,1869
8287,1875
8288,1866
8289,1863
8290,1869
8291,1867
8292,1892
8293,1846
8294,1849
8295,1852
8296,1849
8297,1843
8298,1840
8299,1840
8300,1868
8301,1867
8302,1857
8303,1869
8304,1861
8305,1866
8306,1871
8307,1872
8308,1882
8309,1873
8310,1865
8311,1838
8312,1844
8313,1879
8314,1839
8315,1830
8316,1829
8317,1838
8318,1875
8319,1857
8320,1876
8321,1855
8322,1885
8323,1881
8324,1874
8325,1887
8326,1878
8327,1855
8328,1844
8329,1844
8330,1818
8331,1825
8332,1826
8333,1847
8334,1853
8335,1869
8336,1856
8337,1856
8338,1916
8339,1867
8340,1862
8341,1862
8342,1840
8343,1872
8344,1841
8345,1843
8346,1825
8347,1829
8348,1823
8349,1831
8350,1841
8351,1872
8352,1872
8353,1877
8354,1863
8355,1897
8356,1876
8357,1881
8358,1875
8359,1878
8360,1858
8361,1840
8362,1840
8363,1843
8364,1839
8365,1824
8366,1826
8367,1831
8368,1853
8369,1872
8370,1865
8371,1879
8372,1894
8373,1863
8374,1877
8375,1857
8376,1883
8377,1858
8378,1829
8379,1837
8380,1872
8381,1826
8382,1835
8383,1838
8384,1885
8385,1877
8386,1886
8387,1880
8388,1891
8389,1878
8390,1883
8391,1878
8392,1872
8393,1885
8394,1834
8395,1808
8396,1845
8397,1846
8398,1828
8399,1847
8400,1854
8401,1872
8402,1851
8403,1854
8404,1875
8405,1899
8406,1872
8407,1889
8408,1872
8409,1917
8410,1866
8411,1845
8412,1822
8413,1844
8414,1840
8415,1833
8416,1835
8417,1862
8418,1893
8419,1856
8420,1867
8421,1887
8422,1847
8423,1860
8424,1878
8425,1872
8426,1878
8427,1843
8428,1834
8429,1831
8430,1826
8431,1827
8432,1840
8433,1844
8434,1866
8435,1871
8436,1872
8437,1872
8438,1903
8439,1879
8440,1879
8441,1874
8442,1870
8443,1879
8444,1845
8445,1838
8446,1841
8447,1843
8448,1827
8449,1834
8450,1839
8451,1888
8452,1872
8453,1883
8454,1865
8455,1895
8456,1871
8457,1874
8458,1865
8459,1876
8460,1873
8461,1852
8462,1851
8463,1888
8464,1840
8465,1830
8466,1829
8467,1836
8468,1876
8469,1857
8470,1862
8471,1885
8472,1873
8473,1883
8474,1881
8475,1903
8476,1859
8477,1865
8478,1840
8479,1839
8480,1831
8481,1829
8482,1825
8483,1811
8484,1831
8485,1871
8486,1867
8487,1859
8488,1892
8489,1891
8490,1883
8491,1875
8492,1886
8493,1904
8494,1857
8495,1839
8496,1842
8497,1286
8498,1404
8499,1927
8500,1946
8501,1933
8502,1927
8503,1904
8504,1861
8505,1855
8506,1822
8507,1802
8508,1840
8509,1867
8510,1872
8511,1863
8512,1904
8513,1978
8514,2064
8515,2288
8516,2626
8517,2846
8518,2864
8519,2588
8520,2213
8521,1852
8522,1389
8523,975
8524,807
8525,991
8526,1296
8527,1518
8528,1518
8529,1179
8530,1791
8531,1883
8532,1905
8533,1984
8534,1945
8535,1919
8536,1872
8537,1824
8538,1797
8539,1789
8540,1833
8541,1914
8542,1999
8543,2064
8544,2170
8545,2444
8546,2767
8547,2879
8548,2733
8549,2282
8550,1809
8551,1323
8552,943
8553,722
8554,989
8555,1381
8556,1648
8557,1767
8558,1831
8559,2559
8560,1102
8561,1874
8562,1957
8563,1968
8564,1936
8565,1876
8566,1849
8567,1845
8568,1871
8569,1914
8570,1980
8571,2030
8572,2029
8573,2073
8574,2123
8575,2307
8576,2559
8577,2816
8578,2847
8579,2544
8580,2035
8581,1575
8582,1051
8583,720
8584,775
8585,1173
8586,1520
8587,1712
8588,1797
8589,1849
8590,2725
8591,1059
8592,1904
8593,2010
8594,1954
8595,1933
8596,1899
8597,1872
8598,1810
8599,1830
8600,1873
8601,1878
8602,1925
8603,1968
8604,2006
8605,2111
8606,2313
8607,2639
8608,2930
8609,2928
8610,2527
8611,2009
8612,1471
8613,951
8614,755
8615,880
8616,1265
8617,1535
8618,1724
8619,1792
8620,1826
8621,1908
8622,865
8623,1792
8624,2031
8625,2033
8626,2023
8627,1936
8628,1905
8629,1891
8630,1905
8631,1883
8632,1840
8633,1856
8634,1910
8635,1989
8636,2077
8637,2281
8638,2645
8639,2913
8640,2865
8641,2490
8642,1974
8643,1446
8644,935
8645,770
8646,1008
8647,1329
8648,1535
8649,1687
8650,1761
8651,1799
8652,1839
8653,976
8654,1747
8655,2032
8656,1982
8657,1952
8658,1922
8659,1951
8660,1968
8661,1902
8662,1834
8663,1801
8664,1837
8665,1878
8666,1988
8667,2123
8668,2343
8669,2706
8670,2983
8671,2891
8672,2455
8673,1880
8674,1307
8675,839
8676,820
8677,1080
8678,1413
8679,1584
8680,1703
8681,1779
8682,1808
8683,1839
8684,1199
8685,1580
8686,1965
8687,1935
8688,1949
8689,1882
8690,1922
8691,2017
8692,2031
8693,1937
8694,1898
8695,1886
8696,1971
8697,1994
8698,2090
8699,2316
8700,2634
8701,2864
8702,2800
8703,2369
8704,1815
8705,1280
8706,829
8707,846
8708,1143
8709,1463
8710,1633
8711,1734
8712,1776
8713,1826
8714,1859
8715,1491
8716,1477
8717,1968
8718,1965
8719,1873
8720,1851
8721,1946
8722,1991
8723,1904
8724,1808
8725,1825
8726,1900
8727,1959
8728,2057
8729,2160
8730,2368
8731,2670
8732,2899
8733,2789
8734,2331
8735,1823
8736,1219
8737,804
8738,851
8739,1203
8740,1495
8741,1695
8742,1793
8743,1820
8744,1826
8745,1823
8746,2001
8747,1366
8748,1890
8749,1911
8750,1872
8751,1850
8752,1936
8753,2000
8754,1939
8755,1883
8756,1867
8757,1856
8758,1933
8759,2064
8760,2160
8761,2378
8762,2678
8763,2896
8764,2751
8765,2307
8766,1758
8767,1149
8768,787
8769,880
8770,1232
8771,1513
8772,1687
8773,1757
8774,1824
8775,1853
8776,1904
8777,2823
8778,1119
8779,1857
8780,1894
8781,1893
8782,1872
8783,1919
8784,2011
8785,1915
8786,1820
8787,1851
8788,1926
8789,1955
8790,2045
8791,2161
8792,2359
8793,2682
8794,2900
8795,2830
8796,2401
8797,1872
8798,1167
8799,733
8800,811
8801,1169
8802,1487
8803,1659
8804,1763
8805,1858
8806,1890
8807,1930
8808,2303
8809,912
8810,1859
8811,1951
8812,1911
8813,1861
8814,1838
8815,1904
8816,1843
8817,1783
8818,1859
8819,1863
8820,1935
8821,2037
8822,2150
8823,2353
8824,2695
8825,2955
8826,2914
8827,2482
8828,1935
8829,1247
8830,791
8831,779
8832,1120
8833,1455
8834,1621
8835,1698
8836,1761
8837,1822
8838,1877
8839,1938
8840,889
8841,1840
8842,1960
8843,1937
8844,1883
8845,1904
8846,1968
8847,1924
8848,1812
8849,1820
8850,1840
8851,1946
8852,2019
8853,2114
8854,2288
8855,2628
8856,2873
8857,2854
8858,2471
8859,1936
8860,1309
8861,833
8862,834
8863,1170
8864,1490
8865,1626
8866,1707
8867,1763
8868,1889
8869,1870
8870,1901
8871,1019
8872,1695
8873,1936
8874,1907
8875,1894
8876,1950
8877,2001
8878,1971
8879,1873
8880,1890
8881,1868
8882,1878
8883,1936
8884,2020
8885,2222
8886,2506
8887,2830
8888,2866
8889,2559
8890,2042
8891,1447
8892,970
8893,910
8894,1142
8895,1427
8896,1561
8897,1651
8898,1703
8899,1755
8900,1834
8901,1853
8902,1168
8903,1693
8904,2047
8905,2037
8906,1968
8907,1945
8908,1963
8909,1919
8910,1808
8911,1786
8912,1793
8913,1872
8914,1957
8915,2021
8916,2162
8917,2453
8918,2740
8919,2830
8920,2531
8921,2097
8922,1535
8923,999
8924,877
8925,1174
8926,1489
8927,1620
8928,1680
8929,1749
8930,1827
8931,1839
8932,1845
8933,1600
8934,1368
8935,1932
8936,1937
8937,1936
8938,1936
8939,1975
8940,1995
8941,1872
8942,1813
8943,1854
8944,1879
8945,1949
8946,2046
8947,2146
8948,2396
8949,2729
8950,2881
8951,2694
8952,2192
8953,1581
8954,1055
8955,887
8956,1061
8957,1399
8958,1585
8959,1645
8960,1728
8961,1783
8962,1821
8963,1851
8964,2201
8965,1173
8966,1907
8967,1970
8968,1946
8969,1937
8970,1968
8971,2018
8972,1921
8973,1814
8974,1819
8975,1861
8976,1998
8977,2075
8978,2195
8979,2411
8980,2711
8981,2867
8982,2659
8983,2173
8984,1571
8985,1057
8986,796
8987,1010
8988,1355
8989,1581
8990,1685
8991,1790
8992,1870
8993,1901
8994,1898
8995,2851
8996,1011
8997,1846
8998,1914
8999,1862
9000,1840
9001,1938
9002,1979
9003,1893
9004,1837
9005,1847
9006,1865
9007,1962
9008,2067
9009,2171
9010,2371
9011,2709
9012,2929
9013,2766
9014,2266
9015,1657
9016,1082
9017,814
9018,942
9019,1327
9020,1572
9021,1698
9022,1791
9023,1814
9024,1856
9025,1872
9026,2130
9027,873
9028,1798
9029,1903
9030,1855
9031,1886
9032,1917
9033,2011
9034,1941
9035,1837
9036,1845
9037,1917
9038,2010
9039,2035
9040,2112
9041,2318
9042,2635
9043,2875
9044,2743
9045,2309
9046,1763
9047,1243
9048,837
9049,902
9050,1234
9051,1497
9052,1694
9053,1729
9054,1783
9055,1835
9056,1866
9057,1877
9058,921
9059,1815
9060,1979
9061,1907
9062,1884
9063,1926
9064,1966
9065,1875
9066,1759
9067,1807
9068,1869
9069,1967
9070,2033
9071,2116
9072,2322
9073,2643
9074,2909
9075,2878
9076,2416
9077,1824
9078,1231
9079,866
9080,954
9081,1211
9082,1477
9083,1627
9084,1695
9085,1772
9086,1810
9087,1843
9088,1861
9089,1085
9090,1675
9091,2021
9092,1974
9093,1974
9094,1930
9095,1956
9096,1899
9097,1808
9098,1759
9099,1807
9100,1918
9101,2033
9102,2129
9103,2285
9104,2544
9105,2807
9106,2880
9107,2514
9108,1955
9109,1364
9110,985
9111,913
9112,1158
9113,1401
9114,1535
9115,1616
9116,1705
9117,1792
9118,1825
9119,1872
9120,1904
9121,1922
9122,1931
9123,1938
9124,1932
9125,1919
9126,1926
9127,1920
9128,1904
9129,1897
9130,1890
9131,1878
9132,1873
9133,1877
9134,1903
9135,1868
9136,1897
9137,1885
9138,1872
9139,1874
9140,1856
9141,1863
9142,1868
9143,1872
9144,1856
9145,1841
9146,1835
9147,1854
9148,1840
9149,1827
9150,1840
9151,1840
9152,1861
9153,1875
9154,1874
9155,1937
9156,1907
9157,1872
9158,1856
9159,1860
9160,1882
9161,1855
9162,1861
9163,1867
9164,1846
9165,1826
9166,1831
9167,1856
9168,1890
9169,1847
9170,1835
9171,1870
9172,1904
9173,1882
9174,1882
9175,1884
9176,1857
9177,1861
9178,1837
9179,1827
9180,1872
9181,1819
9182,1815
9183,1838
9184,1847
9185,1860
9186,1877
9187,1874
9188,1871
9189,1869
9190,1878
9191,1867
9192,1840
9193,1843
9194,1843
9195,1841
9196,1808
9197,1838
9198,1831
9199,1823
9200,1840
9201,1861
9202,1871
9203,1855
9204,1873
9205,1885
9206,1885
9207,1863
9208,1869
9209,1875
9210,1862
9211,1846
9212,1843
9213,1862
9214,1853
9215,1831
9216,1821
9217,1831
9218,1872
9219,1870
9220,1834
9221,1875
9222,1899
9223,1872
9224,1877
9225,1879
9226,1863
9227,1854
9228,1850
9229,1828
9230,1812
9231,1827
9232,1816
9233,1819
9234,1856
9235,1855
9236,1863
9237,1875
9238,1865
9239,1885
9240,1871
9241,1866
9242,1897
9243,1877
9244,1859
9245,1828
9246,1831
9247,1859
9248,1833
9249,1827
9250,1831
9251,1822
9252,1867
9253,1862
9254,1873
9255,1910
9256,1871
9257,1877
9258,1872
9259,1871
9260,1874
9261,1845
9262,1841
9263,1822
9264,1872
9265,1818
9266,1829
9267,1823
9268,1861
9269,1869
9270,1858
9271,1870
9272,1898
9273,1873
9274,1873
9275,1877
9276,1863
9277,1864
9278,1840
9279,1834
9280,1856
9281,1866
9282,1815
9283,1840
9284,1861
9285,1872
9286,1863
9287,1872
9288,1885
9289,1870
9290,1872
9291,1866
9292,1862
9293,1879
9294,1863
9295,1846
9296,1856
9297,1850
9298,1827
9299,1824
9300,1840
9301,1859
9302,1878
9303,1873
9304,1863
9305,1882
9306,1862
9307,1871
9308,1856
9309,1904
9310,1887
9311,1847
9312,1839
9313,1837
9314,1867
9315,1829
9316,1826
9317,1840
9318,1846
9319,1866
9320,1867
9321,1874
9322,1878
9323,1872
9324,1872
9325,1885
9326,1895
9327,1873
9328,1855
9329,1837
9330,1863
9331,1837
9332,1819
9333,1825
9334,1837
9335,1841
9336,1858
9337,1872
9338,1855
9339,1887
9340,1878
9341,1874
9342,1889
9343,1899
9344,1870
9345,1851
9346,1840
9347,1857
9348,1825
9349,1817
9350,1821
9351,1856
9352,1871
9353,1862
9354,1875
9355,1904
9356,1882
9357,1882
9358,1873
9359,1873
9360,1872
9361,1863
9362,1856
9363,1867
9364,1856
9365,1813
9366,1831
9367,1842
9368,1841
9369,1872
9370,1882
9371,1891
9372,1901
9373,1878
9374,1879
9375,1874
9376,1860
9377,1864
9378,1852
9379,1840
9380,1813
9381,1851
9382,1834
9383,1842
9384,1856
9385,1850
9386,1863
9387,1856
9388,1872
9389,1921
9390,1882
9391,1886
9392,1897
9393,1879
9394,1869
9395,1850
9396,1856
9397,1843
9398,1840
9399,1838
9400,1851
9401,1854
9402,1872
9403,1867
9404,1868
9405,1882
9406,1887
9407,1877
9408,1872
9409,1878
9410,1887
9411,1855
9412,1834
9413,1830
9414,1852
9415,1815
9416,1825
9417,1846
9418,1843
9419,1863
9420,1872
9421,1865
9422,1887
9423,1875
9424,1889
9425,1865
9426,1861
9427,1882
9428,1865
9429,1833
9430,1835
9431,1839
9432,1840
9433,1833
9434,1830
9435,1872
9436,1872
9437,1873
9438,1871
9439,1889
9440,1888
9441,1876
9442,1910
9443,1925
9444,1871
9445,1846
9446,1855
9447,1873
9448,1840
9449,1814
9450,1821
9451,1855
9452,1886
9453,1875
9454,1886
9455,1905
9456,1883
9457,1872
9458,1865
9459,1876
9460,1875
9461,1857
9462,1840
9463,1845
9464,1867
9465,1829
9466,1819
9467,1835
9468,1861
9469,1871
9470,1866
9471,1870
9472,1893
9473,1874
9474,1867
9475,1877
9476,1863
9477,1910
9478,1841
9479,1849
9480,1845
9481,1854
9482,1822
9483,1837
9484,1834
9485,1857
9486,1861
9487,1875
9488,1862
9489,1907
9490,1886
9491,1882
9492,1894
9493,1841
9494,1858
9495,1854
9496,1821
9497,1858
9498,1840
9499,1833
9500,1842
9501,1854
9502,1872
9503,1877
9504,1876
9505,1867
9506,1876
9507,1867
9508,1870
9509,1874
9510,1878
9511,1856
9512,1845
9513,1795
9514,1866
9515,1835
9516,1826
9517,1839
9518,1855
9519,1861
9520,1856
9521,1872
9522,1883
9523,1876
9524,1875
9525,1883
9526,1875
9527,1860
9528,1849
9529,1827
9530,1809
9531,1861
9532,1839
9533,1823
9534,1841
9535,1847
9536,1866
9537,1872
9538,1886
9539,1881
9540,1872
9541,1875
9542,1882
9543,1891
9544,1853
9545,1838
9546,1829
9547,1851
9548,1840
9549,1830
9550,1834
9551,1840
9552,1847
9553,1855
9554,1872
9555,1893
9556,1887
9557,1872
9558,1880
9559,1879
9560,1876
9561,1855
9562,1843
9563,1824
9564,1862
9565,1815
9566,1815
9567,1840
9568,1871
9569,1865
9570,1862
9571,1882
9572,1913
9573,1871
9574,1877
9575,1872
9576,1887
9577,1882
9578,1847
9579,1842
9580,1840
9581,1838
9582,1818
9583,1823
9584,1849
9585,1827
9586,1872
9587,1877
9588,1840
9589,1903
9590,1878
9591,1879
9592,1905
9593,1886
9594,1874
9595,1838
9596,1840
9597,1849
9598,1837
9599,1826
9600,1831
9601,1840
9602,1871
9603,1869
9604,1894
9605,1875
9606,1891
9607,1888
9608,1874
9609,1872
9610,1873
9611,1856
9612,1847
9613,1840
9614,1840
9615,1826
9616,1822
9617,1829
9618,1821
9619,1866
9620,1872
9621,1859
9622,1850
9623,1887
9624,1871
9625,1877
9626,1861
9627,1872
9628,1847
9629,1831
9630,1824
9631,1839
9632,1822
9633,1824
9634,1834
9635,1850
9636,1863
9637,1866
9638,1858
9639,1914
9640,1875
9641,1881
9642,1863
9643,1893
9644,1872
9645,1840
9646,1853
9647,1843
9648,1821
9649,1822
9650,1827
9651,1842
9652,1856
9653,1862
9654,1885
9655,1872
9656,1874
9657,1869
9658,1883
9659,1893
9660,1894
9661,1867
9662,1843
9663,1839
9664,1843
9665,1819
9666,1814
9667,1831
9668,1829
9669,1870
9670,1874
9671,1861
9672,1861
9673,1908
9674,1883
9675,1872
9676,1881
9677,1879
9678,1855
9679,1840
9680,1841
9681,1852
9682,1821
9683,1831
9684,1846
9685,1881
9686,1869
9687,1856
9688,1866
9689,1885
9690,1882
9691,1877
9692,1872
9693,1903
9694,1879
9695,1869
9696,1843
9697,1833
9698,1838
9699,1831
9700,1838
9701,1882
9702,1840
9703,1869
9704,1877
9705,1904
9706,1877
9707,1881
9708,1885
9709,1873
9710,1872
9711,1856
9712,1850
9713,1823
9714,1823
9715,1824
9716,1817
9717,1823
9718,1834
9719,1861
9720,1855
9721,1871
9722,1857
9723,1872
9724,1872
9725,1872
9726,1871
9727,1911
9728,1854
9729,1845
9730,1829
9731,1858
9732,1829
9733,1835
9734,1826
9735,1840
9736,1867
9737,1863
9738,1862
9739,1896
9740,1872
9741,1872
9742,1889
9743,1891
9744,1873
9745,1839
9746,1849
9747,1824
9748,1823
9749,1822
9750,1820
9751,1825
9752,1860
9753,1867
9754,1869
9755,1878
9756,1876
9757,1873
9758,1870
9759,1866
9760,1870
9761,1859
9762,1854
9763,1847
9764,1839
9765,1838
9766,1823
9767,1856
9768,1858
9769,1883
9770,1862
9771,1890
9772,1872
9773,1872
9774,1892
9775,1857
9776,1861
9777,1893
9778,1850
9779,1846
9780,1839
9781,1872
9782,1831
9783,1835
9784,1853
9785,1845
9786,1867
9787,1872
9788,1872
9789,1918
9790,1877
9791,1879
9792,1891
9793,1877
9794,1853
9795,1846
9796,1845
9797,1875
9798,1850
9799,1830
9800,1840
9801,1850
9802,1909
9803,1858
9804,1870
9805,1883
9806,1883
9807,1869
9808,1877
9809,1872
9810,1869
9811,1857
9812,1850
9813,1840
9814,1850
9815,1831
9816,1824
9817,1838
9818,1839
9819,1851
9820,1863
9821,1875
9822,1904
9823,1874
9824,1885
9825,1872
9826,1875
9827,1874
9828,1863
9829,1839
9830,1821
9831,1878
9832,1824
9833,1839
9834,1823
9835,1872
9836,1874
9837,1872
9838,1875
9839,1873
9840,1872
9841,1871
9842,1882
9843,1885
9844,1875
9845,1851
9846,1839
9847,1841
9848,1825
9849,1825
9850,1831
9851,1871
9852,1902
9853,1868
9854,1870
9855,1887
9856,1893
9857,1878
9858,1879
9859,1877
9860,1831
9861,1859
9862,1826
9863,1840
9864,1863
9865,1830
9866,1811
9867,1837
9868,1840
9869,1872
9870,1873
9871,1869
9872,1907
9873,1879
9874,1879
9875,1869
9876,1886
9877,1856
9878,1869
9879,1851
9880,1833
9881,1849
9882,1824
9883,1835
9884,1845
9885,1845
9886,1875
9887,1872
9888,1876
9889,1887
9890,1885
9891,1884
9892,1885
9893,1885
9894,1872
9895,1827
9896,1838
9897,1814
9898,1810
9899,1819
9900,1835
9901,1842
9902,1925
9903,1867
9904,1879
9905,1888
9906,1870
9907,1873
9908,1887
9909,1879
9910,1859
9911,1856
9912,1853
9913,1835
9914,1839
9915,1839
9916,1825
9917,1839
9918,1831
9919,1851
9920,1872
9921,1853
9922,1881
9923,1882
9924,1875
9925,1875
9926,1860
9927,1866
9928,1851
9929,1839
9930,1845
9931,1821
9932,1829
9933,1825
9934,1842
9935,1841
9936,1872
9937,1874
9938,1870
9939,1889
9940,1883
9941,1875
9942,1878
9943,1885
9944,1872
9945,1851
9946,1834
9947,1815
9948,1867
9949,1822
9950,1829
9951,1847
9952,1870
9953,1861
9954,1876
9955,1863
9956,1909
9957,1878
9958,1870
9959,1880
9960,1887
9961,1868
9962,1841
9963,1841
9964,1858
9965,1840
9966,1829
9967,1840
9968,1875
9969,1878
9970,1875
9971,1871
9972,1879
9973,1879
9974,1885
9975,1872
9976,1885
9977,1872
9978,1847
9979,1831
9980,1840
9981,1863
9982,1830
9983,1822
9984,1849
9985,1829
9986,1863
9987,1851
9988,1870
9989,1872
9990,1887
9991,1878
9992,1879
9993,1882
9994,1887
9995,1849
9996,1852
9997,1849
9998,1839
9999,1824
10000,1842
10001,1842
10002,1877
10003,1862
10004,1863
10005,1857
10006,1915
10007,1884
10008,1879
10009,1901
10010,1898
10011,1869
10012,1839
10013,1833
10014,1838
10015,1840
10016,1818
10017,1826
10018,1840
10019,1843
10020,1867
10021,1878
10022,1872
10023,1902
10024,1885
10025,1883
10026,1879
10027,1925
10028,1853
10029,1831
10030,1849
10031,1835
10032,1832
10033,1825
10034,1837
10035,1828
10036,1870
10037,1877
10038,1879
10039,1901
10040,1886
10041,1881
10042,1879
10043,1871
10044,1872
10045,1837
10046,1826
10047,1852
10048,1857
10049,1808
10050,1824
10051,1869
10052,1846
10053,1870
10054,1878
10055,1870
10056,1915
10057,1873
10058,1872
10059,1871
10060,1872
10061,1872
10062,1840
10063,1819
10064,1856
10065,1847
10066,1825
10067,1833
10068,1825
10069,1875
10070,1869
10071,1878
10072,1887
10073,1873
10074,1883
10075,1873
10076,1874
10077,1873
10078,1855
10079,1843
10080,1840
10081,1861
10082,1825
10083,1827
10084,1838
10085,1870
10086,1872
10087,1857
10088,1872
10089,1878
10090,1872
10091,1872
10092,1873
10093,1870
10094,1878
10095,1858
10096,1836
10097,1902
10098,1840
10099,1826
10100,1840
10101,1841
10102,1832
10103,1871
10104,1872
10105,1870
10106,1873
10107,1872
10108,1873
10109,1872
10110,1877
10111,1863
10112,1850
10113,1841
10114,1837
10115,1849
10116,1845
10117,850
10118,1747
10119,1965
10120,1951
10121,1917
10122,1927
10123,1885
10124,1847
10125,1852
10126,1819
10127,1783
10128,1803
10129,1818
10130,1857
10131,1889
10132,1970
10133,2082
10134,2286
10135,2547
10136,2841
10137,2975
10138,2739
10139,2354
10140,1981
10141,1521
10142,1082
10143,791
10144,758
10145,1008
10146,1350
10147,1573
10148,963
10149,1524
10150,1873
10151,1921
10152,1946
10153,1999
10154,1941
10155,1851
10156,1845
10157,1763
10158,1744
10159,1745
10160,1866
10161,1980
10162,2045
10163,2163
10164,2338
10165,2670
10166,2967
10167,2961
10168,2623
10169,2167
10170,1634
10171,1155
10172,747
10173,705
10174,985
10175,1423
10176,1703
10177,1781
10178,1834
10179,1200
10180,1526
10181,1914
10182,1914
10183,1877
10184,1881
10185,1841
10186,1865
10187,1871
10188,1889
10189,1904
10190,1971
10191,2023
10192,2077
10193,2155
10194,2269
10195,2483
10196,2870
10197,3091
10198,2787
10199,2286
10200,1755
10201,1293
10202,811
10203,606
10204,819
10205,1286
10206,1622
10207,1750
10208,1814
10209,1862
10210,1642
10211,1417
10212,1957
10213,1947
10214,1911
10215,1901
10216,1825
10217,1834
10218,1843
10219,1859
10220,1913
10221,1936
10222,1991
10223,2039
10224,2134
10225,2288
10226,2559
10227,2879
10228,3040
10229,2752
10230,2253
10231,1728
10232,1198
10233,679
10234,546
10235,885
10236,1373
10237,1650
10238,1753
10239,1841
10240,1872
10241,1941
10242,1355
10243,1989
10244,2067
10245,1985
10246,1921
10247,1851
10248,1856
10249,1846
10250,1843
10251,1856
10252,1929
10253,1956
10254,2029
10255,2110
10256,2266
10257,2541
10258,2894
10259,3058
10260,2769
10261,2207
10262,1657
10263,1095
10264,704
10265,658
10266,997
10267,1410
10268,1626
10269,1825
10270,1830
10271,1866
10272,2757
10273,1153
10274,1955
10275,2039
10276,2021
10277,1936
10278,1903
10279,1867
10280,1853
10281,1837
10282,1805
10283,1839
10284,1894
10285,1995
10286,2101
10287,2239
10288,2545
10289,2928
10290,3026
10291,2768
10292,2248
10293,1658
10294,1133
10295,695
10296,706
10297,1082
10298,1485
10299,1622
10300,1729
10301,1807
10302,1883
10303,2294
10304,995
10305,1894
10306,2020
10307,1939
10308,1911
10309,1930
10310,1955
10311,1987
10312,1913
10313,1842
10314,1854
10315,1883
10316,1939
10317,2038
10318,2192
10319,2455
10320,2835
10321,3033
10322,2752
10323,2254
10324,1689
10325,1104
10326,726
10327,769
10328,1169
10329,1462
10330,1651
10331,1754
10332,1802
10333,1827
10334,1867
10335,947
10336,1755
10337,1971
10338,1936
10339,1934
10340,1915
10341,1950
10342,2010
10343,1929
10344,1861
10345,1872
10346,1866
10347,1933
10348,2032
10349,2135
10350,2411
10351,2779
10352,2947
10353,2787
10354,2303
10355,1716
10356,1154
10357,757
10358,823
10359,1182
10360,1467
10361,1642
10362,1715
10363,1774
10364,1813
10365,1863
10366,1044
10367,1683
10368,1934
10369,1968
10370,1911
10371,1926
10372,1983
10373,1991
10374,1883
10375,1866
10376,1899
10377,1943
10378,1974
10379,2037
10380,2177
10381,2400
10382,2733
10383,2944
10384,2735
10385,2295
10386,1698
10387,1118
10388,734
10389,811
10390,1159
10391,1485
10392,1675
10393,1749
10394,1818
10395,1849
10396,1843
10397,1344
10398,1535
10399,1931
10400,1955
10401,1909
10402,1865
10403,1927
10404,1950
10405,1862
10406,1869
10407,1861
10408,1883
10409,1966
10410,2055
10411,2176
10412,2378
10413,2706
10414,2928
10415,2785
10416,2322
10417,1791
10418,1232
10419,816
10420,805
10421,1159
10422,1447
10423,1680
10424,1740
10425,1808
10426,1853
10427,1899
10428,1764
10429,1371
10430,1934
10431,1918
10432,1865
10433,1850
10434,1904
10435,1952
10436,1898
10437,1835
10438,1855
10439,1905
10440,2015
10441,2043
10442,2153
10443,2397
10444,2719
10445,2958
10446,2848
10447,2363
10448,1791
10449,1202
10450,748
10451,721
10452,1139
10453,1464
10454,1655
10455,1758
10456,1843
10457,1872
10458,1898
10459,2149
10460,1267
10461,1974
10462,1971
10463,1910
10464,1920
10465,1907
10466,1925
10467,1831
10468,1763
10469,1813
10470,1885
10471,1974
10472,2054
10473,2199
10474,2386
10475,2712
10476,2961
10477,2847
10478,2390
10479,1840
10480,1296
10481,881
10482,788
10483,1085
10484,1414
10485,1606
10486,1686
10487,1769
10488,1825
10489,1855
10490,2711
10491,1063
10492,1903
10493,1966
10494,1919
10495,1903
10496,1914
10497,1968
10498,1904
10499,1789
10500,1797
10501,1851
10502,1931
10503,2038
10504,2163
10505,2316
10506,2599
10507,2895
10508,2891
10509,2477
10510,1991
10511,1403
10512,886
10513,740
10514,1042
10515,1430
10516,1587
10517,1678
10518,1742
10519,1840
10520,1851
10521,1973
10522,950
10523,1859
10524,1971
10525,1930
10526,1926
10527,1914
10528,1979
10529,1921
10530,1790
10531,1776
10532,1835
10533,1924
10534,2019
10535,2160
10536,2289
10537,2585
10538,2929
10539,2919
10540,2559
10541,2000
10542,1435
10543,975
10544,816
10545,1012
10546,1337
10547,1559
10548,1664
10549,1744
10550,1781
10551,1824
10552,1876
10553,961
10554,1751
10555,1955
10556,1957
10557,1922
10558,1957
10559,2028
10560,1993
10561,1840
10562,1808
10563,1856
10564,1915
10565,2003
10566,2081
10567,2228
10568,2535
10569,2877
10570,2896
10571,2603
10572,2038
10573,1531
10574,999
10575,774
10576,1002
10577,1380
10578,1573
10579,1639
10580,1717
10581,1793
10582,1811
10583,1850
10584,1159
10585,1620
10586,1995
10587,1943
10588,1898
10589,1921
10590,1979
10591,1970
10592,1794
10593,1808
10594,1868
10595,1936
10596,2006
10597,2096
10598,2198
10599,2448
10600,2763
10601,2922
10602,2672
10603,2198
10604,1609
10605,1056
10606,816
10607,919
10608,1266
10609,1535
10610,1670
10611,1778
10612,1790
10613,1806
10614,1841
10615,1453
10616,1462
10617,1978
10618,2015
10619,2021
10620,2001
10621,2026
10622,2011
10623,1825
10624,1696
10625,1783
10626,1872
10627,1975
10628,2045
10629,2163
10630,2383
10631,2656
10632,2797
10633,2701
10634,2331
10635,1778
10636,1212
10637,844
10638,845
10639,1215
10640,1490
10641,1659
10642,1739
10643,1809
10644,1861
10645,1855
10646,1882
10647,1322
10648,1947
10649,1947
10650,1910
10651,1931
10652,1958
10653,2019
10654,1833
10655,1743
10656,1837
10657,1883
10658,1959
10659,2062
10660,2171
10661,2386
10662,2664
10663,2848
10664,2749
10665,2353
10666,1822
10667,1232
10668,824
10669,813
10670,1168
10671,1478
10672,1609
10673,1781
10674,1805
10675,1840
10676,1861
10677,2646
10678,1157
10679,1897
10680,1922
10681,1885
10682,1883
10683,1946
10684,2045
10685,1866
10686,1743
10687,1824
10688,1890
10689,2005
10690,2083
10691,2175
10692,2339
10693,2666
10694,2875
10695,2814
10696,2421
10697,1936
10698,1379
10699,885
10700,784
10701,1079
10702,1405
10703,1612
10704,1679
10705,1766
10706,1863
10707,1913
10708,2432
10709,1008
10710,1886
10711,1953
10712,1886
10713,1875
10714,1925
10715,2060
10716,1837
10717,1669
10718,1759
10719,1872
10720,1984
10721,2063
10722,2175
10723,2347
10724,2587
10725,2819
10726,2814
10727,2536
10728,2078
10729,1437
10730,931
10731,759
10732,1001
10733,1328
10734,1564
10735,1680
10736,1756
10737,1817
10738,1843
10739,1892
10740,1899
10741,1903
10742,1925
10743,1945
10744,1965
10745,1927
10746,1913
10747,1891
10748,1907
10749,1877
10750,1888
10751,1919
10752,1907
10753,1920
10754,1937
10755,1927
10756,1871
10757,1866
10758,1823
10759,1834
10760,1894
10761,1906
10762,1882
10763,1849
10764,1844
10765,1840
10766,1809
10767,1826
10768,1840
10769,1862
10770,1865
10771,1879
10772,1865
10773,1863
10774,1874
10775,1901
10776,1880
10777,1886
10778,1894
10779,1856
10780,1840
10781,1855
10782,1819
10783,1819
10784,1854
10785,1845
10786,1897
10787,1867
10788,1891
10789,1862
10790,1881
10791,1861
10792,1849
10793,1856
10794,1850
10795,1850
10796,1850
10797,1845
10798,1847
10799,1840
10800,1819
10801,1830
10802,1821
10803,1851
10804,1872
10805,1859
10806,1904
10807,1877
10808,1883
10809,1890
10810,1906
10811,1840
10812,1869
10813,1841
10814,1831
10815,1849
10816,1828
10817,1833
10818,1855
10819,1877
10820,1870
10821,1859
10822,1847
10823,1867
10824,1856
10825,1869
10826,1863
10827,1871
10828,1847
10829,1837
10830,1826
10831,1840
10832,1846
10833,1836
10834,1835
10835,1846
10836,1872
10837,1837
10838,1846
10839,1862
10840,1882
10841,1874
10842,1885
10843,1876
10844,1898
10845,1856
10846,1834
10847,1825
10848,1864
10849,1829
10850,1829
10851,1846
10852,1840
10853,1866
10854,1872
10855,1863
10856,1889
10857,1882
10858,1875
10859,1878
10860,1871
10861,1872
10862,1846
10863,1833
10864,1835
10865,1837
10866,1825
10867,1825
10868,1840
10869,1860
10870,1867
10871,1862
10872,1872
10873,1899
10874,1875
10875,1872
10876,1862
10877,1902
10878,1891
10879,1850
10880,1842
10881,1840
10882,1846
10883,1825
10884,1838
10885,1872
10886,1851
10887,1863
10888,1862
10889,1882
10890,1903
10891,1879
10892,1887
10893,1872
10894,1871
10895,1861
10896,1829
10897,1849
10898,1872
10899,1835
10900,1825
10901,1827
10902,1835
10903,1873
10904,1856
10905,1872
10906,1915
10907,1893
10908,1873
10909,1882
10910,1886
10911,1874
10912,1855
10913,1855
10914,1829
10915,1835
10916,1808
10917,1801
10918,1840
10919,1813
10920,1854
10921,1871
10922,1876
10923,1879
10924,1886
10925,1879
10926,1872
10927,1881
10928,1883
10929,1859
10930,1840
10931,1853
10932,1846
10933,1837
10934,1831
10935,1840
10936,1872
10937,1861
10938,1862
10939,1886
10940,1898
10941,1870
10942,1883
10943,1872
10944,1908
10945,1855
10946,1839
10947,1821
10948,1844
10949,1838
10950,1833
10951,1830
10952,1829
10953,1886
10954,1871
10955,1871
10956,1858
10957,1915
10958,1872
10959,1876
10960,1875
10961,1887
10962,1856
10963,1829
10964,1834
10965,1879
10966,1834
10967,1823
10968,1856
10969,1847
10970,1878
10971,1884
10972,1881
10973,1877
10974,1873
10975,1867
10976,1869
10977,1898
10978,1881
10979,1843
10980,1841
10981,1855
10982,1850
10983,1827
10984,1841
10985,1843
10986,1886
10987,1870
10988,1865
10989,1878
10990,1877
10991,1874
10992,1877
10993,1863
10994,1904
10995,1863
10996,1840
10997,1840
10998,1863
10999,1842
11000,1822
11001,1838
11002,1846
11003,1872
11004,1874
11005,1881
11006,1862
11007,1882
11008,1885
11009,1878
11010,1871
11011,1871
11012,1856
11013,1840
11014,1827
11015,1815
11016,1840
11017,1833
11018,1815
11019,1882
11020,1867
11021,1878
11022,1872
11023,1903
11024,1879
11025,1875
11026,1873
11027,1869
11028,1871
11029,1850
11030,1859
11031,1862
11032,1831
11033,1815
11034,1824
11035,1829
11036,1840
11037,1872
11038,1867
11039,1865
11040,1882
11041,1865
11042,1872
11043,1903
11044,1904
11045,1871
11046,1854
11047,1847
11048,1849
11049,1837
11050,1830
11051,1840
11052,1846
11053,1876
11054,1877
11055,1870
11056,1877
11057,1887
11058,1887
11059,1885
11060,1867
11061,1909
11062,1854
11063,1845
11064,1842
11065,1853
11066,1837
11067,1817
11068,1821
11069,1836
11070,1867
11071,1871
11072,1872
11073,1903
11074,1905
11075,1874
11076,1872
11077,1902
11078,1877
11079,1869
11080,1851
11081,1856
11082,1871
11083,1825
11084,1840
11085,1826
11086,1839
11087,1872
11088,1872
11089,1869
11090,1893
11091,1881
11092,1882
11093,1872
11094,1889
11095,1870
11096,1853
11097,1822
11098,1840
11099,1845
11100,1821
11101,1821
11102,1845
11103,1873
11104,1874
11105,1869
11106,1890
11107,1877
11108,1875
11109,1884
11110,1877
11111,1889
11112,1856
11113,1833
11114,1829
11115,1858
11116,1831
11117,1827
11118,1822
11119,1855
11120,1859
11121,1866
11122,1871
11123,1915
11124,1886
11125,1869
11126,1856
11127,1853
11128,1872
11129,1845
11130,1840
11131,1815
11132,1844
11133,1815
11134,1824
11135,1843
11136,1840
11137,1867
11138,1857
11139,1893
11140,1914
11141,1881
11142,1874
11143,1863
11144,1874
11145,1875
11146,1840
11147,1840
11148,1843
11149,1845
11150,1822
11151,1824
11152,1840
11153,1862
11154,1872
11155,1856
11156,1875
11157,1917
11158,1873
11159,1874
11160,1890
11161,1921
11162,1872
11163,1846
11164,1844
11165,1837
11166,1835
11167,1828
11168,1843
11169,1823
11170,1882
11171,1871
11172,1874
11173,1871
11174,1899
11175,1872
11176,1877
11177,1877
11178,1880
11179,1840
11180,1850
11181,1809
11182,1854
11183,1818
11184,1817
11185,1838
11186,1867
11187,1862
11188,1856
11189,1885
11190,1906
11191,1887
11192,1878
11193,1894
11194,1878
11195,1866
11196,1838
11197,1852
11198,1853
11199,1857
11200,1824
11201,1827
11202,1869
11203,1851
11204,1859
11205,1859
11206,1879
11207,1915
11208,1873
11209,1872
11210,1862
11211,1877
11212,1857
11213,1831
11214,1835
11215,1830
11216,1828
11217,1819
11218,1840
11219,1847
11220,1871
11221,1856
11222,1872
11223,1904
11224,1904
11225,1875
11226,1870
11227,1882
11228,1886
11229,1849
11230,1861
11231,1819
11232,1837
11233,1817
11234,1827
11235,1839
11236,1825
11237,1866
11238,1879
11239,1875
11240,1875
11241,1882
11242,1881
11243,1888
11244,1872
11245,1872
11246,1840
11247,1840
11248,1856
11249,1819
11250,1819
11251,1841
11252,1817
11253,1849
11254,1863
11255,1872
11256,1886
11257,1902
11258,1878
11259,1890
11260,1888
11261,1874
11262,1861
11263,1837
11264,1830
11265,1850
11266,1833
11267,1825
11268,1836
11269,1853
11270,1870
11271,1882
11272,1873
11273,1920
11274,1886
11275,1875
11276,1870
11277,1862
11278,1893
11279,1861
11280,1851
11281,1851
11282,1853
11283,1827
11284,1819
11285,1826
11286,1844
11287,1874
11288,1873
11289,1854
11290,1879
11291,1872
11292,1877
11293,1869
11294,1904
11295,1901
11296,1847
11297,1829
11298,1842
11299,1851
11300,1837
11301,1822
11302,1866
11303,1859
11304,1859
11305,1867
11306,1870
11307,1898
11308,1872
11309,1887
11310,1886
11311,1855
11312,1858
11313,1847
11314,1827
11315,1878
11316,1837
11317,1821
11318,1839
11319,1815
11320,1855
11321,1872
11322,1869
11323,1877
11324,1870
11325,1883
11326,1874
11327,1885
11328,1870
11329,1858
11330,1851
11331,1825
11332,1842
11333,1827
11334,1826
11335,1835
11336,1838
11337,1861
11338,1865
11339,1863
11340,1882
11341,1876
11342,1882
11343,1885
11344,1869
11345,1888
11346,1847
11347,1840
11348,1845
11349,1831
11350,1831
11351,1823
11352,1845
11353,1834
11354,1858
11355,1874
11356,1838
11357,1871
11358,1877
11359,1879
11360,1909
11361,1911
11362,1866
11363,1843
11364,1840
11365,1840
11366,1829
11367,1814
11368,1831
11369,1831
11370,1847
11371,1876
11372,1885
11373,1878
11374,1877
11375,1882
11376,1872
11377,1871
11378,1904
11379,1860
11380,1844
11381,1856
11382,1842
11383,1826
11384,1809
11385,1837
11386,1854
11387,1870
11388,1867
11389,1870
11390,1892
11391,1879
11392,1874
11393,1869
11394,1872
11395,1873
11396,1841
11397,1840
11398,1840
11399,1866
11400,1824
11401,1837
11402,1831
11403,1895
11404,1867
11405,1862
11406,1867
11407,1873
11408,1877
11409,1872
11410,1877
11411,1887
11412,1862
11413,1835
11414,1828
11415,1869
11416,1833
11417,1826
11418,1823
11419,1851
11420,1874
11421,1872
11422,1874
11423,1885
11424,1897
11425,1869
11426,1872
11427,1866
11428,1874
11429,1856
11430,1831
11431,1829
11432,1869
11433,1829
11434,1825
11435,1846
11436,1856
11437,1872
11438,1877
11439,1878
11440,1871
11441,1881
11442,1878
11443,1886
11444,1871
11445,1877
11446,1855
11447,1840
11448,1825
11449,1834
11450,1824
11451,1831
11452,1858
11453,1856
11454,1872
11455,1876
11456,1841
11457,1905
11458,1875
11459,1874
11460,1856
11461,1874
11462,1869
11463,1851
11464,1861
11465,1838
11466,1841
11467,1831
11468,1838
11469,1826
11470,1895
11471,1864
11472,1902
11473,1891
11474,1894
11475,1885
11476,1872
11477,1872
11478,1895
11479,1855
11480,1847
11481,1871
11482,1845
11483,1824
11484,1825
11485,1835
11486,1875
11487,1863
11488,1870
11489,1879
11490,1902
11491,1879
11492,1878
11493,1872
11494,1893
11495,1882
11496,1850
11497,1840
11498,1845
11499,1827
11500,1839
11501,1835
11502,1860
11503,1889
11504,1870
11505,1864
11506,1866
11507,1889
11508,1874
11509,1886
11510,1876
11511,1886
11512,1870
11513,1867
11514,1839
11515,1840
11516,1830
11517,1818
11518,1819
11519,1841
11520,1874
11521,1872
11522,1863
11523,1873
11524,1889
11525,1876
11526,1875
11527,1867
11528,1907
11529,1859
11530,1851
11531,1867
11532,1844
11533,1824
11534,1827
11535,1851
11536,1823
11537,1871
11538,1871
11539,1875
11540,1887
11541,1882
11542,1874
11543,1872
11544,1883
11545,1874
11546,1840
11547,1840
11548,1811
11549,1842
11550,1815
11551,1831
11552,1827
11553,1872
11554,1869
11555,1875
11556,1872
11557,1885
11558,1878
11559,1877
11560,1878
11561,1891
11562,1870
11563,1841
11564,1840
11565,1840
11566,1839
11567,1823
11568,1826
11569,1843
11570,1865
11571,1867
11572,1871
11573,1895
11574,1890
11575,1872
11576,1866
11577,1872
11578,1902
11579,1840
11580,1850
11581,1853
11582,1850
11583,1825
11584,1827
11585,1856
11586,1826
11587,1867
11588,1865
11589,1875
11590,1894
11591,1886
11592,1876
11593,1873
11594,1872
11595,1859
11596,1853
11597,1846
11598,1851
11599,1827
11600,1823
11601,1815
11602,1840
11603,1838
11604,1875
11605,1868
11606,1854
11607,1889
11608,1873
11609,1877
11610,1862
11611,1888
11612,1872
11613,1857
11614,1838
11615,1840
11616,1855
11617,1826
11618,1823
11619,1831
11620,1861
11621,1845
11622,1872
11623,1909
11624,1918
11625,1893
11626,1885
11627,1894
11628,1910
11629,1842
11630,1838
11631,1850
11632,1855
11633,1831
11634,1828
11635,1808
11636,1825
11637,1859
11638,1867
11639,1856
11640,1884
11641,1862
11642,1869
11643,1872
11644,1865
11645,1882
11646,1843
11647,1840
11648,1825
11649,1872
11650,1831
11651,1826
11652,1850
11653,1835
11654,1872
11655,1879
11656,1884
11657,1888
11658,1875
11659,1886
11660,1868
11661,1892
11662,1875
11663,1855
11664,1839
11665,1873
11666,1830
11667,1802
11668,1819
11669,1821
11670,1872
11671,1877
11672,1887
11673,1886
11674,1883
11675,1872
11676,1865
11677,1870
11678,1873
11679,1844
11680,1851
11681,1833
11682,1863
11683,1845
11684,1842
11685,1856
11686,1859
11687,1882
11688,1870
11689,1856
11690,1877
11691,1872
11692,1865
11693,1869
11694,1887
11695,1891
11696,1846
11697,1821
11698,1813
11699,1854
11700,1819
11701,1819
11702,1824
11703,1858
11704,1866
11705,1875
11706,1902
11707,1906
11708,1871
11709,1872
11710,1866
11711,1878
11712,1874
11713,1845
11714,1862
11715,1875
11716,1865
11717,1829
11718,1829
11719,1840
11720,1831
11721,1863
11722,1857
11723,1863
11724,1888
11725,1875
11726,1871
11727,1857
11728,1900
11729,1856
11730,1840
11731,1831
11732,1846
11733,1834
11734,1820
11735,1825
11736,2144
11737,1201
11738,1905
11739,1985
11740,1989
11741,1926
11742,1911
11743,1879
11744,1857
11745,1863
11746,1809
11747,1797
11748,1815
11749,1835
11750,1827
11751,1887
11752,1994
11753,2090
11754,2326
11755,2617
11756,2912
11757,2935
11758,2682
11759,2294
11760,1859
11761,1409
11762,1022
11763,754
11764,825
11765,1167
11766,1443
11767,2483
11768,965
11769,1755
11770,1873
11771,1898
11772,1895
11773,1873
11774,1868
11775,1849
11776,1851
11777,1851
11778,1892
11779,1847
11780,1883
11781,1927
11782,2010
11783,2099
11784,2337
11785,2685
11786,3024
11787,3004
11788,2586
11789,2078
11790,1579
11791,1098
11792,725
11793,717
11794,1123
11795,1507
11796,1698
11797,1776
11798,2240
11799,1126
11800,1830
11801,1907
11802,1899
11803,1876
11804,1926
11805,1871
11806,1874
11807,1886
11808,1882
11809,1914
11810,1930
11811,1911
11812,1944
11813,2022
11814,2185
11815,2448
11816,2831
11817,3004
11818,2795
11819,2285
11820,1765
11821,1239
11822,753
11823,633
11824,933
11825,1386
11826,1662
11827,1783
11828,1825
11829,1807
11830,991
11831,1712
11832,1959
11833,1946
11834,1912
11835,1856
11836,1839
11837,1910
11838,1959
11839,1972
11840,1937
11841,1888
11842,1936
11843,1977
11844,2058
11845,2162
11846,2489
11847,2822
11848,3007
11849,2716
11850,2207
11851,1679
11852,1134
11853,795
11854,720
11855,1040
11856,1392
11857,1681
11858,1785
11859,1853
11860,1871
11861,1102
11862,1675
11863,1985
11864,1984
11865,1941
11866,1886
11867,1851
11868,1849
11869,1874
11870,1882
11871,1885
11872,1890
11873,1934
11874,2007
11875,2089
11876,2258
11877,2599
11878,2918
11879,2981
11880,2710
11881,2146
11882,1610
11883,1073
11884,652
11885,711
11886,1098
11887,1489
11888,1683
11889,1808
11890,1827
11891,1904
11892,1395
11893,1579
11894,1995
11895,1962
11896,1923
11897,1845
11898,1852
11899,1878
11900,1913
11901,1865
11902,1845
11903,1856
11904,1930
11905,2000
11906,2067
11907,2241
11908,2544
11909,2923
11910,3025
11911,2718
11912,2227
11913,1623
11914,997
11915,631
11916,769
11917,1094
11918,1430
11919,1667
11920,1770
11921,1869
11922,1894
11923,1625
11924,1501
11925,1956
11926,2000
11927,1951
11928,1907
11929,1888
11930,1946
11931,1982
11932,1847
11933,1757
11934,1776
11935,1882
11936,1966
11937,2065
11938,2254
11939,2559
11940,2898
11941,3021
11942,2695
11943,2176
11944,1636
11945,1081
