Time(ms),Raw_ADC,ENV_Value,RMS,MDF,MW_Amp,MW_Area,MW_Latency,MW_Valid,Marker
0,1859.5,24.1,0.0,0.0,0.0,0.0,0.0,0,
100,1860.8,23.7,0.0,0.0,0.0,0.0,0.0,0,
200,1859.4,24.7,0.0,0.0,0.0,0.0,0.0,0,
300,1857.8,24.9,0.0,0.0,0.0,0.0,0.0,0,
417,1858.5,22.8,0.0,265.2,0.0,0.0,0.0,0,
517,1859.9,25.0,0.0,264.7,0.0,0.0,0.0,0,
617,1860.7,23.0,0.0,264.7,0.0,0.0,0.0,0,
717,1855.6,184.5,0.0,117.1,0.0,0.0,0.0,0,
817,1878.4,142.4,0.0,91.1,0.0,0.0,0.0,0,
917,1859.5,98.7,0.0,86.2,806.0,5472.0,3.0,1,
1017,1849.8,184.9,0.0,86.8,907.0,5893.0,4.0,1,
1117,1873.4,69.8,0.0,93.4,815.0,5111.0,3.0,1,
1217,1851.8,99.1,0.0,101.8,830.0,5357.0,3.0,1,
1317,1856.5,46.2,0.0,102.3,830.0,4950.0,4.0,1,
1417,1860.4,26.9,0.0,92.0,830.0,4950.0,4.0,1,
1517,1862.0,26.4,112.4,66.4,830.0,4950.0,4.0,1,
1617,1859.4,23.8,112.4,66.9,830.0,4950.0,4.0,1,
1717,1861.5,24.2,112.4,71.1,830.0,4950.0,4.0,1,
1817,1859.1,23.3,112.3,178.6,830.0,4950.0,4.0,1,
1918,1858.7,24.4,112.4,187.1,830.0,4950.0,4.0,1,
2018,1860.5,23.2,112.4,201.0,830.0,4950.0,4.0,1,
2118,1859.4,23.5,112.3,265.4,830.0,4950.0,4.0,1,
2218,1860.1,23.7,112.3,226.1,830.0,4950.0,4.0,1,
2318,1871.8,87.6,107.6,199.6,688.0,5608.0,4.0,1,
2518,1832.8,82.2,91.3,67.3,799.0,5619.0,3.0,1,
2618,1873.8,262.1,96.2,66.9,936.0,6163.0,4.0,1,
2718,1876.1,246.1,113.0,66.7,1117.0,4243.0,2.0,0,
2818,1857.5,294.7,140.1,66.3,2283.0,6260.0,2.0,0,
2918,1834.7,75.8,150.1,131.4,867.0,4918.0,4.0,1,
3018,1863.8,27.9,149.9,163.9,867.0,4918.0,4.0,1,
3118,1860.5,24.2,150.0,133.7,867.0,4918.0,4.0,1,
3218,1859.1,24.4,150.0,122.2,867.0,4918.0,4.0,1,
3318,1861.2,24.9,150.0,93.3,867.0,4918.0,4.0,1,
3518,1861.3,23.0,150.0,252.5,867.0,4918.0,4.0,1,
3618,1859.4,27.0,150.0,243.4,867.0,4918.0,4.0,1,
3718,1859.0,23.7,150.0,187.4,867.0,4918.0,4.0,1,
3818,1859.1,25.0,150.0,189.6,867.0,4918.0,4.0,1,
3918,1849.5,137.0,150.4,212.5,867.0,4918.0,4.0,1,
4018,1900.5,102.0,151.0,71.5,1011.0,6516.0,4.0,1,
4118,1850.8,72.8,150.4,66.5,751.0,4737.0,4.0,1,
4218,1844.3,180.1,149.4,66.4,896.0,5514.0,4.0,1,
4318,1867.0,278.6,155.3,66.6,1020.0,3952.0,2.0,0,
4518,1850.6,306.4,170.2,44.6,991.0,4390.0,2.0,0,
4618,1863.0,37.0,173.1,226.7,537.0,2904.0,2.0,0,
4718,1859.1,22.1,173.0,131.5,537.0,2904.0,2.0,0,
4818,1862.1,23.1,173.0,81.8,537.0,2904.0,2.0,0,
4918,1857.2,23.5,173.0,41.8,537.0,2904.0,2.0,0,
5018,1859.2,22.2,173.0,92.8,537.0,2904.0,2.0,0,
5118,1861.0,23.2,173.0,209.0,537.0,2904.0,2.0,0,
5218,1860.7,24.7,173.0,187.4,537.0,2904.0,2.0,0,
5318,1858.6,24.8,173.0,198.7,537.0,2904.0,2.0,0,
5518,1860.9,25.2,173.0,259.1,537.0,2904.0,2.0,0,
5618,1878.7,94.3,173.8,90.5,860.0,6431.0,4.0,1,
5718,1857.1,64.8,173.7,65.7,883.0,5630.0,3.0,1,
5818,1838.5,89.8,173.4,66.0,938.0,6130.0,4.0,1,
5918,1876.3,227.0,168.9,66.4,783.0,4097.0,2.0,0,
6018,1876.0,261.8,168.8,66.3,1801.0,5616.0,2.0,0,
6118,1831.1,337.2,166.8,77.0,1282.0,4307.0,2.0,0,
6218,1859.7,44.0,167.2,226.2,562.0,3011.0,2.0,0,
6318,1858.8,27.3,167.2,139.9,562.0,3011.0,2.0,0,
6518,1859.0,25.0,167.2,45.2,562.0,3011.0,2.0,0,
6619,1859.5,23.4,167.2,77.2,562.0,3011.0,2.0,0,
6719,1860.2,22.7,167.2,217.2,562.0,3011.0,2.0,0,
6819,1861.0,22.4,167.2,238.4,562.0,3011.0,2.0,0,
6919,1858.1,23.8,167.2,239.1,562.0,3011.0,2.0,0,
7019,1860.6,24.2,167.2,228.0,562.0,3011.0,2.0,0,
7119,1860.4,24.7,167.2,248.0,562.0,3011.0,2.0,0,
7219,1869.5,96.9,164.0,147.5,868.0,6064.0,4.0,1,
7319,1867.6,88.1,164.4,67.6,824.0,5527.0,4.0,1,
7519,1854.2,293.3,171.7,66.8,974.0,3912.0,2.0,0,
7619,1862.8,298.8,173.1,65.8,1390.0,5330.0,12.0,1,
7719,1858.8,334.8,175.2,37.9,2343.0,5676.0,2.0,0,
7819,1856.3,67.4,175.5,195.3,538.0,3178.0,2.0,0,
7919,1859.2,29.6,175.6,163.6,538.0,3178.0,2.0,0,
8019,1860.5,24.6,175.6,93.8,538.0,3178.0,2.0,0,
8119,1859.5,24.6,175.6,69.0,538.0,3178.0,2.0,0,
8219,1860.0,23.8,175.6,71.3,538.0,3178.0,2.0,0,
8319,1860.7,25.4,175.6,185.9,538.0,3178.0,2.0,0,
8519,1859.3,24.8,175.6,241.1,538.0,3178.0,2.0,0,
8619,1859.2,23.9,175.6,234.3,538.0,3178.0,2.0,0,
8719,1860.2,26.6,175.6,241.3,538.0,3178.0,2.0,0,
8819,1869.0,75.1,175.5,225.6,848.0,5543.0,5.0,1,
8919,1869.4,56.7,175.0,69.1,881.0,5651.0,3.0,1,
9019,1833.7,76.4,174.3,67.0,858.0,5410.0,4.0,1,
9119,1878.0,99.9,165.3,66.7,832.0,5054.0,4.0,1,
9219,1876.9,93.6,147.0,66.4,850.0,5149.0,3.0,1,
9319,1854.3,65.4,117.0,66.3,790.0,5101.0,4.0,1,
9519,1860.8,24.2,72.8,65.5,790.0,5101.0,4.0,1,
9619,1858.4,23.2,72.8,66.6,790.0,5101.0,4.0,1,
9719,1859.2,23.3,72.7,67.2,790.0,5101.0,4.0,1,
9819,1860.1,23.1,72.7,90.6,790.0,5101.0,4.0,1,
9919,1860.1,24.6,72.7,235.7,790.0,5101.0,4.0,1,
10019,1860.1,21.9,72.6,241.6,790.0,5101.0,4.0,1,
10119,1860.8,25.2,72.6,252.7,790.0,5101.0,4.0,1,
10219,1860.2,24.8,72.6,216.5,790.0,5101.0,4.0,1,
10319,1860.5,24.1,72.7,206.5,790.0,5101.0,4.0,1,
10519,1899.3,115.4,76.5,66.8,1018.0,6665.0,4.0,1,
10619,1856.4,90.0,77.5,66.4,881.0,5839.0,4.0,1,
10719,1841.9,181.1,78.6,66.5,887.0,5220.0,4.0,1,
10819,1871.3,296.8,110.5,66.6,1051.0,4753.0,2.0,0,
10919,1864.5,278.3,139.2,65.5,2049.0,6002.0,2.0,0,
11019,1844.1,127.4,164.9,65.9,566.0,3811.0,11.0,1,
11119,1862.6,29.5,164.9,194.7,566.0,3811.0,11.0,1,
11219,1859.9,23.8,164.9,131.5,566.0,3811.0,11.0,1,
11319,1860.6,24.9,164.9,93.5,566.0,3811.0,11.0,1,
11519,1859.5,24.7,165.0,231.5,566.0,3811.0,11.0,1,
11619,1861.3,25.0,165.0,227.2,566.0,3811.0,11.0,1,
11719,1861.9,26.1,165.0,189.1,566.0,3811.0,11.0,1,
11819,1861.6,24.1,165.0,209.7,566.0,3811.0,11.0,1,
11919,1859.7,21.3,164.9,266.9,566.0,3811.0,11.0,1,
12019,1859.0,70.5,164.9,246.8,830.0,5804.0,7.0,1,
12119,1877.3,100.6,165.2,71.2,964.0,6302.0,4.0,1,
12219,1857.8,92.5,165.5,66.0,886.0,5984.0,4.0,1,
12319,1842.0,98.5,165.7,66.4,996.0,6009.0,4.0,1,
12519,1881.6,287.2,165.2,66.6,2136.0,5913.0,2.0,0,
12619,1824.4,223.2,171.3,67.0,588.0,3791.0,2.0,0,
12719,1865.1,32.1,170.8,183.9,588.0,3791.0,2.0,0,
12819,1862.7,23.4,170.7,106.7,588.0,3791.0,2.0,0,
12919,1859.9,23.4,170.7,91.0,588.0,3791.0,2.0,0,
13019,1860.2,23.9,170.7,74.7,588.0,3791.0,2.0,0,
13119,1861.9,23.1,170.7,112.2,588.0,3791.0,2.0,0,
13219,1860.5,24.3,170.7,260.6,588.0,3791.0,2.0,0,
13319,1858.5,24.2,170.7,258.9,588.0,3791.0,2.0,0,
13519,1861.5,25.2,170.7,206.7,588.0,3791.0,2.0,0,
13619,1859.1,25.1,170.7,217.4,588.0,3791.0,2.0,0,
13719,1863.5,260.1,175.4,81.5,1187.0,5992.0,2.0,0,
13819,1869.3,263.2,186.1,37.8,1144.0,5648.0,2.0,0,
13919,1854.0,254.7,203.8,36.8,2102.0,7160.0,2.0,0,
14019,1849.2,245.7,206.0,99.1,946.0,5370.0,2.0,0,
14119,1862.0,280.9,205.7,227.1,1668.0,5999.0,2.0,0,
14219,1867.3,302.3,200.4,225.9,2403.0,6136.0,2.0,0,
14319,1849.8,36.8,198.3,225.8,782.0,4077.0,2.0,0,
14519,1858.5,23.9,198.3,101.4,782.0,4077.0,2.0,0,
14619,1860.6,26.0,198.3,90.8,782.0,4077.0,2.0,0,
14719,1859.8,25.0,198.3,99.1,782.0,4077.0,2.0,0,
14819,1861.8,23.1,198.3,123.7,782.0,4077.0,2.0,0,rest_end
14919,1858.4,25.8,198.3,132.2,782.0,4077.0,2.0,0,
15019,1859.5,27.3,198.4,156.5,782.0,4077.0,2.0,0,
15119,1860.1,24.3,198.4,150.0,782.0,4077.0,2.0,0,
15219,1860.1,21.3,198.4,115.7,782.0,4077.0,2.0,0,
15319,1865.8,173.3,201.1,69.3,868.0,5776.0,4.0,1,
15519,1828.2,83.3,175.2,35.5,823.0,5398.0,4.0,1,
15619,1880.5,155.7,158.9,38.0,778.0,4751.0,4.0,1,
15719,1874.1,97.5,147.5,69.2,867.0,5854.0,4.0,1,
15819,1853.0,52.7,117.8,100.2,841.0,4640.0,4.0,1,
15920,1848.6,29.5,96.3,94.4,793.0,4756.0,4.0,1,
16020,1861.7,22.7,96.3,73.5,793.0,4756.0,4.0,1,
16120,1862.2,26.1,96.4,67.2,793.0,4756.0,4.0,1,
16220,1861.7,26.0,96.4,70.6,793.0,4756.0,4.0,1,
16320,1859.5,27.7,96.4,92.9,793.0,4756.0,4.0,1,
16520,1860.3,25.5,96.4,206.2,793.0,4756.0,4.0,1,
16620,1860.2,22.9,96.4,243.3,793.0,4756.0,4.0,1,
16720,1859.9,27.3,96.4,245.1,793.0,4756.0,4.0,1,
16820,1861.0,23.4,96.4,265.8,793.0,4756.0,4.0,1,
16920,1841.8,111.0,97.2,102.6,901.0,5634.0,5.0,1,
17020,1893.4,106.4,87.4,65.5,728.0,5488.0,4.0,1,
17120,1858.6,93.7,87.8,66.0,846.0,5920.0,4.0,1,
17220,1842.0,65.2,83.7,66.3,824.0,5018.0,4.0,1,
17320,1871.7,96.7,80.7,66.4,845.0,5575.0,3.0,1,
17520,1848.5,30.5,81.4,66.2,787.0,4822.0,4.0,1,
17620,1859.5,23.7,81.4,66.5,787.0,4822.0,4.0,1,
17720,1861.9,25.6,81.4,67.2,787.0,4822.0,4.0,1,
17820,1860.0,24.1,81.4,68.3,787.0,4822.0,4.0,1,
17920,1861.7,23.8,81.4,101.8,787.0,4822.0,4.0,1,
18020,1862.2,23.5,81.3,228.5,787.0,4822.0,4.0,1,
18120,1859.7,22.7,81.3,216.4,787.0,4822.0,4.0,1,
18220,1860.7,24.4,81.3,207.9,787.0,4822.0,4.0,1,
18320,1860.4,24.6,81.3,200.0,787.0,4822.0,4.0,1,
18520,1853.0,158.1,80.5,177.0,767.0,5343.0,5.0,1,
18620,1883.9,258.6,108.2,39.9,1332.0,5305.0,2.0,0,
18720,1852.2,262.7,126.7,37.4,1868.0,6798.0,2.0,0,
18820,1850.2,323.1,163.5,39.6,1489.0,5301.0,2.0,0,
18920,1870.0,265.9,178.1,226.0,1150.0,5499.0,2.0,0,
19020,1871.7,242.3,191.7,187.3,2128.0,5332.0,2.0,0,
19120,1835.9,82.8,205.8,158.7,572.0,3783.0,2.0,0,
19220,1861.8,25.1,205.8,197.8,572.0,3783.0,2.0,0,
19320,1861.7,24.2,205.8,132.8,572.0,3783.0,2.0,0,
19520,1859.9,22.8,205.8,86.2,572.0,3783.0,2.0,0,
19620,1860.4,23.7,205.8,212.8,572.0,3783.0,2.0,0,
19720,1861.6,26.0,205.8,217.6,572.0,3783.0,2.0,0,
19820,1860.0,25.1,205.8,219.9,572.0,3783.0,2.0,0,
19920,1861.8,24.2,205.7,236.8,572.0,3783.0,2.0,0,
20020,1861.1,23.9,205.7,247.9,572.0,3783.0,2.0,0,
20120,1836.3,93.1,206.0,247.9,658.0,5196.0,5.0,1,
20220,1893.0,120.0,201.0,35.6,867.0,5189.0,4.0,1,
20320,1861.1,92.3,189.2,30.2,759.0,5693.0,4.0,1,
20520,1859.0,291.9,152.9,65.6,982.0,4937.0,2.0,0,
20620,1861.1,242.6,156.2,65.6,1716.0,5049.0,2.0,0,
20720,1858.3,90.9,148.1,35.5,2316.0,5518.0,2.0,0,
20820,1860.7,30.1,148.1,109.3,2316.0,5518.0,2.0,0,
20920,1862.0,22.8,148.1,141.9,2316.0,5518.0,2.0,0,
21020,1860.3,22.7,148.1,131.9,2316.0,5518.0,2.0,0,
21120,1862.3,22.0,148.1,124.3,2316.0,5518.0,2.0,0,
21220,1859.7,24.0,148.1,226.9,2316.0,5518.0,2.0,0,
21320,1861.4,23.1,148.1,213.6,2316.0,5518.0,2.0,0,
21520,1861.6,24.6,148.1,230.7,2316.0,5518.0,2.0,0,
21620,1859.4,23.9,148.1,238.1,2316.0,5518.0,2.0,0,
21720,1858.2,73.4,148.1,214.2,813.0,5546.0,6.0,1,
21820,1856.7,188.8,146.4,69.5,869.0,5518.0,6.0,1,
21920,1864.8,74.7,150.1,67.2,978.0,6621.0,4.0,1,
22020,1835.9,95.6,149.7,69.2,1013.0,6148.0,4.0,1,
22120,1871.1,213.2,146.9,69.3,901.0,5844.0,4.0,1,
22220,1878.5,270.0,148.9,67.0,1634.0,4992.0,2.0,0,
22320,1845.2,141.4,146.8,35.3,2293.0,5735.0,2.0,0,
22520,1861.7,23.7,146.5,125.2,2293.0,5735.0,2.0,0,
22620,1860.4,23.3,146.5,125.4,2293.0,5735.0,2.0,0,
22720,1861.1,24.7,146.5,112.6,2293.0,5735.0,2.0,0,
22820,1862.4,22.2,146.5,144.1,2293.0,5735.0,2.0,0,
22920,1861.0,25.2,146.5,208.8,2293.0,5735.0,2.0,0,
23020,1860.8,24.3,146.5,241.3,2293.0,5735.0,2.0,0,
23120,1861.3,23.8,146.5,242.9,2293.0,5735.0,2.0,0,
23220,1860.9,24.9,146.5,232.6,2293.0,5735.0,2.0,0,
23320,1859.2,21.0,146.5,259.0,2293.0,5735.0,2.0,0,
23520,1885.5,142.7,151.1,67.1,997.0,6707.0,4.0,1,
23620,1863.5,75.1,151.4,68.6,960.0,5802.0,4.0,1,
23720,1834.7,71.6,151.8,69.1,835.0,5771.0,4.0,1,
23820,1869.7,283.7,143.9,68.8,1280.0,5404.0,2.0,0,
23920,1872.7,294.8,138.7,66.1,1918.0,5468.0,2.0,0,
24020,1858.0,40.1,141.8,36.3,607.0,3956.0,12.0,1,
24120,1860.3,23.7,141.8,88.3,607.0,3956.0,12.0,1,
24220,1861.9,21.5,141.7,85.8,607.0,3956.0,12.0,1,
24320,1860.8,26.2,141.7,67.9,607.0,3956.0,12.0,1,
24520,1860.6,24.8,141.7,208.2,607.0,3956.0,12.0,1,
24620,1860.9,23.7,141.7,202.1,607.0,3956.0,12.0,1,
24720,1861.6,24.7,141.7,248.4,607.0,3956.0,12.0,1,
24820,1859.9,24.6,141.8,265.1,607.0,3956.0,12.0,1,
24920,1860.3,21.3,141.8,270.8,607.0,3956.0,12.0,1,
25020,1850.0,76.7,141.8,102.5,749.0,4628.0,5.0,1,
25120,1860.7,77.4,129.3,37.0,904.0,6154.0,3.0,1,
25220,1860.0,77.6,127.5,37.5,934.0,5684.0,4.0,1,
25320,1864.9,88.7,126.7,65.7,832.0,5296.0,4.0,1,
25520,1882.7,223.0,128.0,40.7,1513.0,4477.0,2.0,0,
25620,1854.7,43.7,119.5,35.7,732.0,4315.0,2.0,0,
25720,1859.3,25.5,119.5,40.2,732.0,4315.0,2.0,0,
25820,1861.5,26.4,119.6,92.6,732.0,4315.0,2.0,0,
25920,1860.8,22.4,119.6,86.7,732.0,4315.0,2.0,0,
26020,1861.2,26.1,119.6,93.2,732.0,4315.0,2.0,0,
26120,1861.5,26.0,119.6,228.9,732.0,4315.0,2.0,0,
26220,1859.9,26.4,119.6,229.5,732.0,4315.0,2.0,0,
26320,1858.6,22.2,119.6,230.8,732.0,4315.0,2.0,0,
26520,1859.5,27.1,119.6,212.1,732.0,4315.0,2.0,0,
26620,1836.9,88.2,119.3,125.9,740.0,4663.0,6.0,1,
26720,1868.1,94.7,119.7,37.7,883.0,5992.0,4.0,1,
26820,1872.0,232.2,138.1,37.2,1305.0,4201.0,2.0,0,
26920,1871.4,225.3,150.6,35.7,2170.0,5730.0,2.0,0,
27020,1830.3,397.9,178.6,37.2,1874.0,5828.0,2.0,0,
27120,1869.9,267.6,186.7,227.1,991.0,4054.0,2.0,0,
27220,1870.4,53.4,185.6,158.5,669.0,4031.0,2.0,0,
27320,1860.2,25.0,185.5,90.6,669.0,4031.0,2.0,0,
27520,1859.5,24.6,185.5,37.9,669.0,4031.0,2.0,0,
27620,1860.5,24.4,185.5,55.6,669.0,4031.0,2.0,0,
27720,1861.1,26.9,185.5,219.0,669.0,4031.0,2.0,0,
27820,1859.4,24.8,185.5,244.4,669.0,4031.0,2.0,0,
27920,1860.4,24.1,185.5,245.1,669.0,4031.0,2.0,0,
28020,1860.7,25.1,185.5,264.9,669.0,4031.0,2.0,0,
28120,1859.5,29.3,185.5,232.4,669.0,4031.0,2.0,0,
28220,1864.2,84.1,185.7,188.5,643.0,4177.0,5.0,1,
28320,1852.6,60.0,185.2,65.6,889.0,5940.0,4.0,1,
28520,1875.9,89.7,165.8,65.9,715.0,4368.0,4.0,1,
28620,1848.4,85.3,128.2,66.1,814.0,5248.0,4.0,1,
28720,1867.1,160.3,91.6,66.2,797.0,4180.0,4.0,1,
28820,1864.2,50.0,78.6,87.5,792.0,4897.0,4.0,1,
28920,1861.5,29.6,78.7,100.5,792.0,4897.0,4.0,1,
29020,1860.5,24.6,78.7,98.7,792.0,4897.0,4.0,1,
29120,1862.0,23.8,78.7,90.1,792.0,4897.0,4.0,1,
29220,1860.0,25.6,78.7,90.6,792.0,4897.0,4.0,1,
29320,1860.2,26.6,78.7,213.0,792.0,4897.0,4.0,1,
29520,1859.8,27.1,78.7,238.5,792.0,4897.0,4.0,1,
29620,1861.3,25.1,78.7,232.2,792.0,4897.0,4.0,1,
29720,1861.0,22.0,78.7,232.5,792.0,4897.0,4.0,1,
29820,1867.0,83.4,79.2,200.5,601.0,4850.0,7.0,1,
29920,1853.9,73.5,78.0,66.3,668.0,4548.0,4.0,1,
30020,1851.4,80.7,77.1,65.8,694.0,4466.0,5.0,1,
30120,1888.2,54.3,76.3,66.1,706.0,4333.0,4.0,1,
30220,1852.0,58.2,74.7,66.1,847.0,5281.0,4.0,1,
30320,1830.8,129.4,75.2,65.9,781.0,4442.0,4.0,1,
30520,1861.4,29.2,75.2,99.1,781.0,4442.0,4.0,1,
30620,1862.3,24.8,75.2,92.4,781.0,4442.0,4.0,1,
30720,1859.1,25.6,75.2,89.7,781.0,4442.0,4.0,1,
30820,1860.6,24.3,75.2,88.2,781.0,4442.0,4.0,1,
30920,1861.1,26.8,75.2,233.7,781.0,4442.0,4.0,1,
31020,1860.3,27.4,75.2,204.9,781.0,4442.0,4.0,1,
31120,1860.6,28.3,75.2,219.5,781.0,4442.0,4.0,1,
31220,1860.6,27.3,75.2,229.6,781.0,4442.0,4.0,1,
31320,1860.9,27.5,75.3,212.9,781.0,4442.0,4.0,1,
31520,1862.5,45.9,75.2,102.9,721.0,4767.0,6.0,1,
31620,1835.9,55.7,74.8,57.1,1055.0,6401.0,5.0,1,
31720,1857.7,173.9,89.0,66.1,954.0,5835.0,5.0,1,
31820,1888.4,99.2,94.6,89.0,915.0,6133.0,4.0,1,
31920,1832.5,70.9,95.3,91.1,787.0,4713.0,4.0,1,
32020,1871.4,134.5,94.6,84.0,575.0,3986.0,2.0,0,
32120,1854.5,29.1,93.9,67.1,575.0,3986.0,2.0,0,
32220,1859.2,24.3,93.9,40.6,575.0,3986.0,2.0,0,
32320,1859.5,28.1,93.9,37.8,575.0,3986.0,2.0,0,
32520,1861.1,25.1,93.9,176.7,575.0,3986.0,2.0,0,
32620,1860.2,25.3,93.9,248.6,575.0,3986.0,2.0,0,
32720,1861.2,25.6,93.9,266.2,575.0,3986.0,2.0,0,
32820,1860.3,24.5,93.8,260.9,575.0,3986.0,2.0,0,
32920,1862.0,24.6,93.8,249.6,575.0,3986.0,2.0,0,
33020,1861.6,37.1,93.8,242.2,575.0,3986.0,2.0,0,
33120,1865.0,54.8,94.5,81.2,637.0,4330.0,5.0,1,
33220,1876.2,82.0,95.1,38.7,882.0,5775.0,4.0,1,
33320,1848.6,154.0,87.6,65.5,850.0,5372.0,5.0,1,
33520,1843.0,81.9,86.6,89.5,775.0,5114.0,4.0,1,
33620,1855.3,105.3,87.6,88.6,708.0,4610.0,4.0,1,
33720,1860.5,30.9,78.9,71.9,784.0,5440.0,3.0,1,
33820,1859.6,25.1,79.0,67.0,784.0,5440.0,3.0,1,
33920,1860.2,25.0,79.0,68.2,784.0,5440.0,3.0,1,
34020,1860.3,26.0,79.0,85.4,784.0,5440.0,3.0,1,
34120,1859.9,26.8,79.0,189.6,784.0,5440.0,3.0,1,
34220,1860.1,26.1,79.0,243.6,784.0,5440.0,3.0,1,
34320,1859.9,25.6,79.1,243.1,784.0,5440.0,3.0,1,
34520,1862.1,23.1,79.1,240.9,784.0,5440.0,3.0,1,
34620,1861.3,26.3,79.1,245.8,784.0,5440.0,3.0,1,
34720,1873.9,59.4,78.9,137.2,638.0,4265.0,6.0,1,
34820,1871.7,58.5,78.9,43.9,1016.0,6415.0,4.0,1,
34920,1835.1,68.6,78.1,45.8,790.0,5028.0,5.0,1,
35020,1877.7,200.5,85.1,65.9,778.0,4876.0,5.0,1,
35120,1862.7,94.2,87.1,91.3,777.0,5018.0,4.0,1,
35220,1848.0,80.6,88.0,91.6,806.0,5639.0,4.0,1,
35320,1851.0,35.3,87.9,89.6,810.0,5875.0,4.0,1,
35520,1861.3,21.4,87.9,66.4,810.0,5875.0,4.0,1,
35620,1862.5,25.7,87.9,66.3,810.0,5875.0,4.0,1,
35720,1862.1,25.3,87.9,111.2,810.0,5875.0,4.0,1,
35820,1860.6,24.1,87.9,221.6,810.0,5875.0,4.0,1,
35920,1862.0,24.3,87.9,232.6,810.0,5875.0,4.0,1,
36020,1861.8,25.3,87.9,231.5,810.0,5875.0,4.0,1,
36120,1858.4,26.1,87.9,230.9,810.0,5875.0,4.0,1,
36220,1861.1,26.2,88.0,237.2,810.0,5875.0,4.0,1,
36320,1857.3,66.3,87.9,199.8,571.0,3824.0,7.0,1,
36520,1843.5,66.6,87.4,43.9,677.0,4092.0,5.0,1,
36620,1860.1,183.0,83.1,65.9,759.0,4875.0,5.0,1,
36720,1864.5,82.5,81.3,88.6,742.0,4919.0,4.0,1,
36820,1835.4,79.7,80.5,93.7,708.0,4652.0,4.0,1,
36920,1868.7,37.9,80.1,91.6,804.0,5847.0,4.0,1,
37020,1859.8,24.7,80.1,75.4,804.0,5847.0,4.0,1,
37120,1861.9,25.5,80.1,66.7,804.0,5847.0,4.0,1,
37220,1860.7,25.9,80.1,66.7,804.0,5847.0,4.0,1,
37320,1861.3,23.9,80.1,100.8,804.0,5847.0,4.0,1,
37520,1860.7,24.6,80.1,205.3,804.0,5847.0,4.0,1,
37620,1860.4,24.7,80.2,215.9,804.0,5847.0,4.0,1,
37720,1860.3,22.9,80.1,231.5,804.0,5847.0,4.0,1,
37820,1860.4,23.1,80.0,236.3,804.0,5847.0,4.0,1,
37920,1859.1,73.8,80.1,235.1,616.0,3875.0,7.0,1,
38020,1882.7,54.6,80.1,65.6,877.0,5996.0,5.0,1,
38120,1854.2,82.9,81.1,46.1,930.0,5726.0,4.0,1,
38220,1830.5,87.8,81.7,65.7,825.0,5693.0,4.0,1,
38320,1893.2,232.8,94.8,66.0,1174.0,5492.0,2.0,0,
38520,1842.2,85.2,145.3,37.2,2080.0,5925.0,2.0,0,
38620,1860.4,28.4,145.3,123.9,2080.0,5925.0,2.0,0,
38720,1861.8,23.2,145.3,100.2,2080.0,5925.0,2.0,0,
38820,1860.0,24.3,145.3,94.7,2080.0,5925.0,2.0,0,
38920,1861.1,24.8,145.3,100.1,2080.0,5925.0,2.0,0,
39020,1859.5,24.5,145.3,245.2,2080.0,5925.0,2.0,0,
39120,1860.3,26.5,145.3,239.4,2080.0,5925.0,2.0,0,
39220,1860.3,24.5,145.3,212.6,2080.0,5925.0,2.0,0,
39320,1860.2,24.8,145.3,206.6,2080.0,5925.0,2.0,0,
39520,1856.0,95.1,145.6,219.7,654.0,4805.0,5.0,1,
39620,1857.6,77.3,149.1,56.4,695.0,5022.0,4.0,1,
39720,1883.0,106.2,149.5,36.9,1067.0,6438.0,4.0,1,
39820,1834.9,71.2,149.9,37.1,906.0,5731.0,4.0,1,
39920,1871.4,276.5,152.0,65.5,1070.0,5527.0,2.0,0,
40020,1863.9,220.5,151.5,39.7,1673.0,5289.0,2.0,0,
40120,1846.1,138.7,145.3,35.8,693.0,4468.0,2.0,0,
40220,1861.7,29.3,145.2,146.4,693.0,4468.0,2.0,0,
40320,1858.4,21.5,145.2,133.4,693.0,4468.0,2.0,0,
40520,1862.1,26.6,145.2,69.5,693.0,4468.0,2.0,0,
40620,1860.1,21.8,145.2,235.6,693.0,4468.0,2.0,0,
40720,1861.6,24.5,145.2,242.0,693.0,4468.0,2.0,0,
40820,1861.7,25.6,145.2,248.2,693.0,4468.0,2.0,0,
40920,1859.7,25.7,145.2,258.8,693.0,4468.0,2.0,0,
41020,1861.0,23.9,145.2,248.8,693.0,4468.0,2.0,0,
41120,1864.8,54.4,145.2,245.4,593.0,4478.0,7.0,1,
41220,1852.0,120.7,145.9,80.2,746.0,5043.0,4.0,1,
41320,1874.6,83.3,146.0,66.1,1009.0,6442.0,4.0,1,
41520,1885.2,247.1,146.5,65.9,904.0,5389.0,2.0,0,
41620,1863.8,196.1,142.0,56.0,1112.0,4912.0,2.0,0,
41720,1861.9,169.1,132.6,35.4,827.0,5001.0,2.0,0,
41820,1849.6,28.6,130.7,67.3,827.0,5001.0,2.0,0,
41920,1861.1,25.3,130.7,157.9,827.0,5001.0,2.0,0,
42020,1861.1,24.0,130.7,131.0,827.0,5001.0,2.0,0,
42120,1861.0,22.3,130.7,101.4,827.0,5001.0,2.0,0,
42220,1861.3,23.9,130.7,135.9,827.0,5001.0,2.0,0,
42320,1861.8,25.0,130.7,212.7,827.0,5001.0,2.0,0,
42520,1862.1,24.8,130.6,201.1,827.0,5001.0,2.0,0,
42620,1862.7,23.4,130.6,185.0,827.0,5001.0,2.0,0,
42720,1861.4,29.9,130.6,204.4,827.0,5001.0,2.0,0,
42820,1824.9,54.6,130.8,77.9,533.0,3910.0,7.0,1,
42920,1903.3,103.6,126.2,48.8,1056.0,7029.0,4.0,1,
43020,1845.4,77.2,126.9,65.6,928.0,5771.0,4.0,1,
43120,1849.9,83.6,120.5,65.9,1086.0,6885.0,5.0,1,
43220,1860.9,216.1,113.4,66.2,881.0,4651.0,2.0,0,
43320,1860.0,224.2,115.3,65.8,1755.0,6342.0,2.0,0,
43520,1859.0,25.3,106.8,81.4,1755.0,6342.0,2.0,0,
43620,1859.4,24.9,106.9,85.1,1755.0,6342.0,2.0,0,
43720,1860.6,25.0,106.9,67.3,1755.0,6342.0,2.0,0,
43820,1858.5,26.0,106.9,148.5,1755.0,6342.0,2.0,0,
43920,1858.0,22.0,107.0,233.8,1755.0,6342.0,2.0,0,
44020,1857.9,23.4,106.9,235.6,1755.0,6342.0,2.0,0,
44120,1858.9,26.8,107.0,238.1,1755.0,6342.0,2.0,0,
44220,1860.0,22.1,107.0,265.1,1755.0,6342.0,2.0,0,
44320,1858.1,24.4,107.0,245.4,1755.0,6342.0,2.0,0,
44520,1869.0,235.7,114.9,66.2,1044.0,5885.0,2.0,0,
44620,1864.5,201.9,126.4,41.8,1159.0,5222.0,2.0,0,
44720,1844.3,237.1,147.0,35.8,2399.0,7750.0,2.0,0,
44820,1859.3,241.3,166.6,93.7,890.0,4696.0,2.0,0,
44920,1877.0,236.8,167.3,227.1,1267.0,5943.0,2.0,0,
45020,1856.5,44.7,165.6,158.0,881.0,5367.0,2.0,0,
45120,1857.7,27.9,165.6,68.1,881.0,5367.0,2.0,0,
45220,1859.3,24.1,165.7,36.0,881.0,5367.0,2.0,0,
45320,1859.9,24.2,165.7,36.1,881.0,5367.0,2.0,0,
45520,1859.4,23.8,165.6,243.0,881.0,5367.0,2.0,0,
45620,1859.1,26.3,165.6,242.1,881.0,5367.0,2.0,0,
45720,1858.8,25.2,165.6,242.0,881.0,5367.0,2.0,0,
45820,1858.4,24.3,165.7,236.0,881.0,5367.0,2.0,0,
45920,1857.6,24.5,165.6,236.1,881.0,5367.0,2.0,0,
46020,1860.2,57.2,165.8,204.6,536.0,3603.0,6.0,1,
46120,1835.6,92.7,165.3,66.3,850.0,5851.0,4.0,1,
46220,1878.5,288.1,174.1,65.5,993.0,4392.0,2.0,0,
46320,1867.2,291.4,176.2,35.6,2265.0,7137.0,2.0,0,
46520,1857.2,125.2,177.9,130.3,929.0,5416.0,5.0,1,
46620,1879.3,39.0,171.7,91.1,934.0,6210.0,4.0,1,
46720,1857.7,24.1,171.7,78.3,934.0,6210.0,4.0,1,
46820,1858.0,24.5,171.6,72.4,934.0,6210.0,4.0,1,
46920,1859.7,21.9,171.7,68.0,934.0,6210.0,4.0,1,
47020,1859.2,22.6,171.7,99.9,934.0,6210.0,4.0,1,
47120,1860.8,25.0,171.7,176.7,934.0,6210.0,4.0,1,
47220,1857.9,24.1,171.7,231.6,934.0,6210.0,4.0,1,
47320,1857.3,24.5,171.7,260.6,934.0,6210.0,4.0,1,
47520,1859.1,22.0,171.7,189.8,934.0,6210.0,4.0,1,
47620,1872.1,66.3,171.8,187.6,535.0,3609.0,6.0,1,
47720,1840.4,62.8,171.3,66.5,895.0,5937.0,5.0,1,
47820,1854.6,68.3,153.1,65.8,954.0,5751.0,4.0,1,
47920,1858.0,63.0,137.8,65.9,1034.0,6310.0,4.0,1,
48020,1869.0,89.9,83.0,66.1,1026.0,6146.0,5.0,1,
48120,1850.1,239.9,91.1,66.3,977.0,4949.0,2.0,0,
48220,1873.2,83.7,105.5,38.9,923.0,4899.0,2.0,0,
48320,1858.8,28.2,105.5,35.7,923.0,4899.0,2.0,0,
48520,1861.4,23.6,105.4,35.4,923.0,4899.0,2.0,0,
48620,1859.3,24.9,105.4,36.4,923.0,4899.0,2.0,0,
48720,1858.8,23.0,105.4,210.6,923.0,4899.0,2.0,0,
48820,1858.7,24.2,105.4,220.2,923.0,4899.0,2.0,0,
48920,1857.4,24.6,105.4,213.5,923.0,4899.0,2.0,0,
49020,1860.4,25.1,105.4,234.3,923.0,4899.0,2.0,0,
49120,1859.7,25.3,105.4,212.3,923.0,4899.0,2.0,0,
49220,1870.2,82.0,105.5,213.8,601.0,4404.0,7.0,1,
49320,1830.6,54.5,105.8,68.6,696.0,5132.0,5.0,1,
49520,1859.3,166.0,125.4,67.0,696.0,5132.0,5.0,1,
49620,1863.1,84.1,126.2,69.0,1087.0,6681.0,4.0,1,
49720,1826.7,217.1,115.7,68.3,897.0,5767.0,5.0,1,
49820,1873.3,130.2,117.1,67.8,936.0,5335.0,2.0,0,
49920,1861.5,27.6,117.1,38.0,936.0,5335.0,2.0,0,
50020,1858.8,24.0,117.1,35.3,936.0,5335.0,2.0,0,
50120,1859.4,25.8,117.1,35.1,936.0,5335.0,2.0,0,
50220,1858.7,23.8,117.2,35.5,936.0,5335.0,2.0,0,
50320,1858.7,22.9,117.2,165.6,936.0,5335.0,2.0,0,
50520,1857.8,23.1,117.1,214.0,936.0,5335.0,2.0,0,
50620,1859.1,24.3,117.1,247.6,936.0,5335.0,2.0,0,
50720,1859.5,25.7,117.1,259.8,936.0,5335.0,2.0,0,
50820,1875.1,44.8,117.1,248.8,563.0,4250.0,6.0,1,
50920,1852.7,62.0,117.2,90.3,664.0,4888.0,4.0,1,
51020,1846.0,96.1,117.6,66.3,919.0,6450.0,5.0,1,
51120,1859.3,282.1,121.2,66.4,884.0,4848.0,2.0,0,
51220,1873.7,238.9,135.9,66.5,1976.0,7028.0,2.0,0,
51320,1835.2,235.1,165.8,53.0,1969.0,5636.0,2.0,0,
51520,1850.9,30.1,161.5,92.9,1969.0,5636.0,2.0,0,
51620,1859.1,26.0,161.5,68.6,1969.0,5636.0,2.0,0,
51720,1856.1,22.9,161.5,69.0,1969.0,5636.0,2.0,0,
51820,1858.2,25.1,161.5,70.4,1969.0,5636.0,2.0,0,
51920,1858.7,25.4,161.5,157.9,1969.0,5636.0,2.0,0,
52020,1858.2,25.1,161.6,243.8,1969.0,5636.0,2.0,0,
52120,1860.5,24.6,161.6,227.7,1969.0,5636.0,2.0,0,
52220,1859.0,25.2,161.6,204.7,1969.0,5636.0,2.0,0,
52320,1859.8,23.4,161.6,202.8,1969.0,5636.0,2.0,0,
52520,1867.2,63.0,162.4,71.7,510.0,4128.0,4.0,1,
52620,1845.5,103.5,162.5,53.4,1048.0,6909.0,5.0,1,
52720,1858.6,154.5,158.9,65.7,947.0,5803.0,5.0,1,
52820,1881.6,243.7,157.8,65.7,1355.0,6374.0,2.0,0,
52920,1838.1,258.1,147.4,46.0,1971.0,5402.0,2.0,0,
53020,1847.4,263.2,146.9,46.1,793.0,5172.0,2.0,0,
53120,1874.3,38.6,147.9,107.9,824.0,4773.0,2.0,0,
53220,1859.4,24.6,147.9,82.9,824.0,4773.0,2.0,0,
53320,1858.8,25.3,147.9,38.1,824.0,4773.0,2.0,0,
53520,1858.2,24.0,147.9,70.5,824.0,4773.0,2.0,0,
53620,1859.0,23.0,147.9,210.9,824.0,4773.0,2.0,0,
53720,1857.7,25.0,147.9,212.3,824.0,4773.0,2.0,0,
53820,1858.5,22.6,147.9,201.2,824.0,4773.0,2.0,0,
53920,1857.9,25.5,147.9,196.4,824.0,4773.0,2.0,0,
54020,1859.3,25.3,147.9,217.8,824.0,4773.0,2.0,0,
54120,1878.3,62.7,147.3,164.1,595.0,4405.0,6.0,1,
54220,1857.3,88.2,147.6,65.7,1029.0,6837.0,5.0,1,
54320,1833.0,160.3,147.4,65.9,904.0,5621.0,5.0,1,
54520,1871.2,250.8,148.0,50.8,2044.0,6226.0,2.0,0,
54620,1837.0,183.3,151.3,39.8,862.0,6441.0,4.0,1,
54720,1863.2,42.0,150.5,93.4,820.0,4861.0,2.0,0,
54820,1858.9,24.6,150.4,93.6,820.0,4861.0,2.0,0,
54920,1858.2,24.9,150.4,67.2,820.0,4861.0,2.0,0,
55020,1859.2,25.7,150.4,39.4,820.0,4861.0,2.0,0,
55120,1859.0,23.5,150.4,42.8,820.0,4861.0,2.0,0,
55220,1858.8,25.3,150.4,254.4,820.0,4861.0,2.0,0,
55320,1857.1,24.4,150.4,261.8,820.0,4861.0,2.0,0,
55520,1859.1,27.5,150.4,248.2,820.0,4861.0,2.0,0,
55620,1861.1,27.2,150.5,242.2,820.0,4861.0,2.0,0,
55720,1874.9,59.8,150.5,202.4,536.0,3869.0,6.0,1,
55820,1850.7,84.7,150.8,66.0,936.0,6466.0,4.0,1,
55920,1859.2,102.9,150.7,66.0,877.0,5485.0,5.0,1,
56020,1862.5,244.7,146.6,66.1,890.0,5536.0,2.0,0,
56120,1873.1,267.7,145.4,36.1,1759.0,5617.0,2.0,0,
56220,1828.4,158.4,146.2,34.9,2001.0,5524.0,2.0,0,
56320,1860.4,54.4,145.0,91.6,763.0,4522.0,2.0,0,
56520,1861.3,24.2,145.0,79.1,763.0,4522.0,2.0,0,
56620,1858.7,23.1,145.0,42.2,763.0,4522.0,2.0,0,
56720,1858.4,25.9,145.0,39.9,763.0,4522.0,2.0,0,
56820,1861.9,25.1,145.0,178.2,763.0,4522.0,2.0,0,
56920,1858.7,24.8,145.0,216.7,763.0,4522.0,2.0,0,
57020,1858.6,24.9,145.0,217.4,763.0,4522.0,2.0,0,
57120,1858.7,24.9,145.0,218.5,763.0,4522.0,2.0,0,
57220,1859.3,23.7,145.0,230.8,763.0,4522.0,2.0,0,
57320,1873.4,81.6,145.4,197.6,500.0,3694.0,7.0,1,
57520,1849.5,98.0,146.5,66.3,913.0,6086.0,5.0,1,
57620,1837.1,198.2,142.1,66.2,898.0,5957.0,5.0,1,
57720,1892.8,219.7,141.8,66.6,1074.0,5537.0,2.0,0,
57820,1837.6,298.1,133.9,67.0,2115.0,5988.0,2.0,0,
57920,1847.0,71.2,139.3,67.0,811.0,6127.0,4.0,1,
58020,1857.0,23.7,139.3,94.0,811.0,6127.0,4.0,1,
58120,1857.8,23.7,139.3,93.9,811.0,6127.0,4.0,1,
58220,1857.7,22.1,139.3,91.1,811.0,6127.0,4.0,1,
58320,1860.5,25.4,139.3,89.0,811.0,6127.0,4.0,1,
58520,1860.2,25.9,139.3,231.4,811.0,6127.0,4.0,1,
58620,1860.6,24.6,139.3,217.8,811.0,6127.0,4.0,1,
58720,1859.6,23.2,139.3,228.7,811.0,6127.0,4.0,1,
58820,1859.9,27.2,139.3,215.6,811.0,6127.0,4.0,1,
58920,1858.9,74.9,139.6,202.1,296.0,2529.0,8.0,1,
59020,1856.6,61.5,138.4,48.1,492.0,3875.0,4.0,1,
59120,1879.1,82.3,136.6,44.0,820.0,5391.0,5.0,1,
59220,1829.7,73.8,132.6,65.4,819.0,5416.0,4.0,1,
59320,1875.0,105.4,123.1,66.2,901.0,5787.0,4.0,1,
59520,1842.0,66.9,70.6,74.2,772.0,5456.0,4.0,1,
59620,1861.5,24.0,70.6,70.3,772.0,5456.0,4.0,1,
59720,1859.8,25.5,70.7,66.5,772.0,5456.0,4.0,1,
59820,1859.3,26.0,70.8,66.2,772.0,5456.0,4.0,1,
59920,1860.4,23.5,70.8,70.6,772.0,5456.0,4.0,1,
60020,1860.0,24.9,70.7,207.3,772.0,5456.0,4.0,1,
60120,1857.3,24.5,70.7,228.7,772.0,5456.0,4.0,1,
60220,1858.7,25.9,70.8,227.6,772.0,5456.0,4.0,1,
60320,1858.7,23.9,70.7,219.1,772.0,5456.0,4.0,1,
60520,1855.7,45.1,70.4,245.1,772.0,5456.0,4.0,1,
60620,1851.6,158.1,81.3,83.8,669.0,4996.0,4.0,1,
60720,1887.4,105.2,83.5,65.7,833.0,5716.0,4.0,1,
60820,1850.0,78.6,85.5,54.5,872.0,5838.0,4.0,1,
60920,1838.3,203.6,82.3,65.5,865.0,6220.0,4.0,1,
61020,1882.8,229.3,104.4,66.1,1023.0,4353.0,2.0,0,
61120,1859.7,174.1,124.5,40.9,729.0,4619.0,2.0,0,
61220,1855.0,31.7,124.4,40.4,729.0,4619.0,2.0,0,
61320,1858.5,26.2,124.4,103.8,729.0,4619.0,2.0,0,
61520,1859.7,26.8,124.4,78.4,729.0,4619.0,2.0,0,
61620,1858.4,25.4,124.4,132.2,729.0,4619.0,2.0,0,
61720,1860.4,24.0,124.4,185.0,729.0,4619.0,2.0,0,
61820,1859.6,23.5,124.4,201.5,729.0,4619.0,2.0,0,
61920,1858.8,26.1,124.4,217.3,729.0,4619.0,2.0,0,
62020,1859.9,27.4,124.4,236.6,729.0,4619.0,2.0,0,
62120,1860.5,26.4,124.4,266.5,729.0,4619.0,2.0,0,
62220,1846.3,58.5,124.9,88.1,550.0,4409.0,7.0,1,
62320,1857.1,92.4,117.5,65.5,806.0,5511.0,6.0,1,
62520,1847.0,107.1,117.3,66.2,896.0,6332.0,4.0,1,
62620,1845.7,172.3,107.7,66.4,881.0,6043.0,5.0,1,
62720,1861.1,96.9,96.5,68.5,803.0,5655.0,4.0,1,
62820,1875.0,32.0,86.5,81.0,808.0,5963.0,4.0,1,
62920,1856.5,23.6,86.5,71.9,808.0,5963.0,4.0,1,
63020,1857.1,25.7,86.4,68.5,808.0,5963.0,4.0,1,
63120,1859.7,25.2,86.4,66.9,808.0,5963.0,4.0,1,
63220,1859.0,24.3,86.4,137.3,808.0,5963.0,4.0,1,
63320,1860.5,25.3,86.4,208.2,808.0,5963.0,4.0,1,
63520,1859.1,23.8,86.4,266.8,808.0,5963.0,4.0,1,
63620,1857.3,26.5,86.4,263.3,808.0,5963.0,4.0,1,
63720,1857.3,23.5,86.3,235.5,808.0,5963.0,4.0,1,
63820,1871.2,83.4,85.6,170.3,460.0,3965.0,5.0,1,
63920,1837.8,95.9,86.8,65.8,886.0,5922.0,6.0,1,
64020,1866.8,182.2,97.9,66.1,912.0,5958.0,5.0,1,
64120,1854.2,99.8,101.6,70.0,775.0,5828.0,4.0,1,
64220,1858.3,108.1,99.9,70.0,672.0,4506.0,5.0,1,
64320,1861.8,156.4,97.4,68.7,685.0,4824.0,5.0,1,
64520,1857.5,23.1,97.7,88.2,685.0,4824.0,5.0,1,
64620,1858.5,23.5,97.7,82.0,685.0,4824.0,5.0,1,
64720,1859.1,24.2,97.7,70.7,685.0,4824.0,5.0,1,
64820,1860.1,25.8,97.7,92.9,685.0,4824.0,5.0,1,
64920,1858.4,24.5,97.6,236.6,685.0,4824.0,5.0,1,
65020,1860.3,24.0,97.7,213.2,685.0,4824.0,5.0,1,
65120,1860.7,25.7,97.7,212.5,685.0,4824.0,5.0,1,
65220,1858.9,26.4,97.7,246.3,685.0,4824.0,5.0,1,
65320,1860.0,22.3,97.7,235.7,685.0,4824.0,5.0,1,
65520,1835.4,94.4,98.4,65.9,1037.0,6884.0,5.0,1,
65620,1874.6,107.6,91.9,66.1,951.0,5772.0,5.0,1,
65720,1861.5,237.5,107.8,66.0,1258.0,5789.0,2.0,0,
65820,1867.5,256.4,121.8,35.6,2153.0,5623.0,2.0,0,
65920,1830.2,114.9,140.3,35.5,723.0,5395.0,4.0,1,
66020,1867.8,58.2,140.8,130.2,758.0,4643.0,2.0,0,
66120,1856.7,27.0,140.9,105.8,758.0,4643.0,2.0,0,
66220,1860.8,25.0,140.9,75.8,758.0,4643.0,2.0,0,
66320,1858.6,24.7,140.9,39.3,758.0,4643.0,2.0,0,
66520,1858.8,24.5,140.9,217.9,758.0,4643.0,2.0,0,
66620,1859.2,24.2,140.9,298.1,758.0,4643.0,2.0,0,
66720,1859.8,20.7,140.9,298.4,758.0,4643.0,2.0,0,
66820,1859.5,21.3,140.9,247.8,758.0,4643.0,2.0,0,
66920,1859.1,22.3,140.8,219.0,758.0,4643.0,2.0,0,
67020,1879.4,89.7,142.6,133.8,559.0,3571.0,6.0,1,
67120,1856.8,98.3,142.0,40.7,813.0,5798.0,5.0,1,
67220,1850.4,99.7,142.2,41.2,800.0,5124.0,5.0,1,
67320,1846.2,188.2,132.2,65.5,768.0,5055.0,5.0,1,
67520,1837.7,86.0,90.5,68.4,860.0,5506.0,4.0,1,
67620,1854.7,88.4,99.4,67.2,748.0,3977.0,2.0,0,
67720,1857.8,25.7,99.3,40.0,748.0,3977.0,2.0,0,
67820,1858.4,23.8,99.2,36.4,748.0,3977.0,2.0,0,
67920,1857.1,22.2,99.2,36.0,748.0,3977.0,2.0,0,
68020,1857.9,21.7,99.1,36.3,748.0,3977.0,2.0,0,
68120,1859.1,24.5,99.2,230.4,748.0,3977.0,2.0,0,
68220,1859.0,23.7,99.1,237.5,748.0,3977.0,2.0,0,
68320,1859.5,24.5,99.2,230.8,748.0,3977.0,2.0,0,
68520,1859.3,22.4,99.2,208.3,748.0,3977.0,2.0,0,
68620,1873.7,113.8,97.3,199.9,572.0,4396.0,7.0,1,
68720,1856.6,128.5,101.7,55.6,603.0,5003.0,4.0,1,
68820,1856.1,135.5,104.6,55.1,752.0,5526.0,5.0,1,
68920,1837.8,117.5,102.3,65.8,742.0,5352.0,4.0,1,
69020,1875.0,219.6,113.2,65.9,1210.0,5410.0,2.0,0,
69120,1861.4,299.1,131.3,36.2,1850.0,5652.0,2.0,0,
69220,1830.6,171.8,154.9,37.1,777.0,4447.0,2.0,0,
69320,1864.4,29.3,154.8,125.3,777.0,4447.0,2.0,0,
69520,1858.8,21.3,154.8,39.4,777.0,4447.0,2.0,0,
69620,1859.1,22.8,154.8,37.0,777.0,4447.0,2.0,0,
69720,1859.0,19.4,154.8,203.4,777.0,4447.0,2.0,0,
69820,1858.8,20.8,154.8,203.1,777.0,4447.0,2.0,0,
69920,1859.8,20.6,154.8,202.5,777.0,4447.0,2.0,0,
70020,1859.6,22.0,154.7,211.6,777.0,4447.0,2.0,0,
70120,1858.5,24.3,154.7,246.5,777.0,4447.0,2.0,0,
70220,1850.7,49.1,154.7,250.8,777.0,4447.0,2.0,0,
70320,1871.0,101.0,154.4,66.0,693.0,5279.0,3.0,1,
70520,1833.8,83.9,150.4,65.9,670.0,5135.0,4.0,1,
70620,1856.5,168.5,146.7,66.3,749.0,5594.0,4.0,1,
70720,1881.2,114.4,134.1,75.7,638.0,5069.0,4.0,1,
70820,1839.5,104.9,92.8,85.0,728.0,5464.0,5.0,1,
70920,1859.6,29.7,85.8,73.5,728.0,5464.0,5.0,1,
71020,1859.0,19.4,85.9,66.9,728.0,5464.0,5.0,1,
71120,1859.5,22.0,85.8,66.0,728.0,5464.0,5.0,1,
71220,1860.3,25.1,85.9,65.7,728.0,5464.0,5.0,1,
71320,1859.1,21.0,85.9,116.3,728.0,5464.0,5.0,1,
71520,1859.2,22.5,86.1,184.2,728.0,5464.0,5.0,1,
71620,1858.6,23.3,86.1,189.8,728.0,5464.0,5.0,1,
71720,1860.0,24.3,86.2,190.4,728.0,5464.0,5.0,1,
71820,1859.3,19.6,86.2,234.3,728.0,5464.0,5.0,1,
71920,1844.0,144.5,88.7,68.9,644.0,4741.0,5.0,1,
72020,1866.0,146.5,92.6,47.0,742.0,5436.0,4.0,1,
72120,1864.4,146.7,97.7,65.8,763.0,5872.0,5.0,1,
72220,1848.6,153.1,98.1,66.3,747.0,5122.0,5.0,1,
72320,1879.0,103.3,96.2,66.5,681.0,4783.0,4.0,1,
72520,1857.3,30.2,95.9,66.1,751.0,5127.0,5.0,1,
72620,1859.5,24.6,95.9,66.4,751.0,5127.0,5.0,1,
72720,1857.0,24.0,95.9,65.7,751.0,5127.0,5.0,1,
72820,1858.6,23.7,95.8,57.1,751.0,5127.0,5.0,1,
72920,1858.5,26.0,95.8,125.0,751.0,5127.0,5.0,1,
73020,1858.8,26.8,95.9,235.8,751.0,5127.0,5.0,1,
73120,1859.2,24.5,95.9,234.9,751.0,5127.0,5.0,1,
73220,1859.8,25.1,96.0,232.0,751.0,5127.0,5.0,1,
73320,1860.2,23.0,96.0,232.5,751.0,5127.0,5.0,1,
73520,1843.1,185.5,101.8,68.0,731.0,5377.0,4.0,1,
73620,1867.8,172.8,105.7,42.8,679.0,5447.0,5.0,1,
73720,1877.0,121.5,105.9,56.3,613.0,4931.0,4.0,1,
73820,1822.1,155.4,103.8,66.0,719.0,5745.0,4.0,1,
73920,1881.2,155.9,105.7,66.3,625.0,4228.0,6.0,1,
74020,1867.5,140.1,108.9,66.4,643.0,5036.0,4.0,1,
74120,1865.5,37.3,109.9,67.8,699.0,5567.0,5.0,1,
74220,1856.9,25.3,109.9,67.6,699.0,5567.0,5.0,1,
74320,1858.3,23.4,109.9,66.5,699.0,5567.0,5.0,1,
74520,1858.9,23.8,110.0,93.3,699.0,5567.0,5.0,1,
74620,1860.7,23.2,110.0,250.8,699.0,5567.0,5.0,1,
74720,1860.4,22.5,110.0,265.9,699.0,5567.0,5.0,1,
74820,1859.2,24.5,109.9,246.2,699.0,5567.0,5.0,1,
74920,1859.9,24.3,109.9,239.2,699.0,5567.0,5.0,1,
75020,1859.9,24.0,109.9,235.7,699.0,5567.0,5.0,1,
75120,1870.3,142.2,106.3,150.1,478.0,3977.0,20.0,1,
75220,1811.5,215.4,108.3,51.9,810.0,6648.0,5.0,1,
75320,1891.4,187.6,114.3,65.7,646.0,5340.0,5.0,1,
75520,1853.6,139.8,117.7,66.6,634.0,4493.0,5.0,1,
75620,1846.2,184.2,116.8,67.1,634.0,5074.0,5.0,1,
75720,1870.3,54.8,121.3,68.2,634.0,5074.0,5.0,1,
75820,1855.5,25.9,121.3,71.0,634.0,5074.0,5.0,1,
75920,1859.6,24.6,121.3,70.6,634.0,5074.0,5.0,1,
76020,1859.6,25.7,121.3,70.6,634.0,5074.0,5.0,1,
76120,1860.1,23.9,121.3,78.9,634.0,5074.0,5.0,1,
76220,1860.5,23.0,121.4,218.0,634.0,5074.0,5.0,1,
76320,1859.4,25.4,121.4,239.6,634.0,5074.0,5.0,1,
76520,1859.2,24.0,121.4,219.9,634.0,5074.0,5.0,1,
76620,1861.2,23.5,121.4,210.1,634.0,5074.0,5.0,1,
76720,1873.0,131.4,121.5,157.8,521.0,4163.0,4.0,1,
76820,1849.2,131.7,117.1,49.6,779.0,5697.0,4.0,1,
76920,1854.3,167.8,109.8,56.8,633.0,4797.0,5.0,1,
77020,1862.9,205.0,112.8,65.9,633.0,4797.0,5.0,1,
77120,1860.1,155.1,115.1,66.8,688.0,5230.0,4.0,1,
77220,1845.0,146.3,112.3,67.0,775.0,5532.0,5.0,1,
77320,1868.8,78.1,112.0,66.9,775.0,5532.0,5.0,1,
77520,1859.3,26.1,112.1,69.7,775.0,5532.0,5.0,1,
77620,1860.7,24.8,112.1,69.1,775.0,5532.0,5.0,1,
77720,1857.9,25.7,112.1,70.1,775.0,5532.0,5.0,1,
77820,1857.3,24.6,112.0,237.6,775.0,5532.0,5.0,1,
77920,1858.8,23.7,112.0,228.9,775.0,5532.0,5.0,1,
78020,1859.8,22.1,112.0,239.5,775.0,5532.0,5.0,1,
78120,1859.2,24.2,112.0,240.3,775.0,5532.0,5.0,1,
78220,1858.2,23.3,112.0,277.2,775.0,5532.0,5.0,1,
78320,1881.0,167.1,115.8,186.1,775.0,5532.0,5.0,1,
78520,1843.7,172.6,124.1,67.2,682.0,5387.0,5.0,1,
78620,1856.8,195.6,121.7,66.5,745.0,5894.0,5.0,1,
78720,1880.4,206.2,126.9,66.3,745.0,5894.0,5.0,1,
78820,1860.0,102.8,129.1,67.1,646.0,5181.0,4.0,1,
78920,1836.4,86.2,123.2,67.2,746.0,5382.0,5.0,1,
79020,1861.4,27.5,122.8,67.1,746.0,5382.0,5.0,1,
79120,1857.9,24.3,122.8,66.4,746.0,5382.0,5.0,1,
79220,1857.0,24.5,122.8,53.8,746.0,5382.0,5.0,1,
79320,1856.6,24.7,122.7,56.9,746.0,5382.0,5.0,1,
79520,1860.3,24.5,122.8,254.3,746.0,5382.0,5.0,1,
79620,1859.6,26.9,122.8,216.0,746.0,5382.0,5.0,1,
79720,1859.1,24.1,122.8,189.1,746.0,5382.0,5.0,1,
79820,1859.5,26.7,122.8,213.8,746.0,5382.0,5.0,1,
79920,1850.4,52.8,121.9,232.7,746.0,5382.0,5.0,1,
80020,1873.5,188.9,119.1,57.4,769.0,6470.0,4.0,1,
80120,1878.5,171.7,119.2,46.2,687.0,5626.0,5.0,1,
80220,1839.1,150.6,119.3,65.8,673.0,5682.0,19.0,1,
80320,1850.2,194.5,117.0,66.3,783.0,6365.0,5.0,1,
80520,1829.4,149.5,121.3,67.1,759.0,5607.0,5.0,1,
80620,1861.1,30.3,121.3,67.0,759.0,5607.0,5.0,1,
80720,1860.7,25.2,121.4,66.8,759.0,5607.0,5.0,1,
80820,1859.5,24.8,121.4,65.6,759.0,5607.0,5.0,1,
80920,1858.6,25.6,121.5,53.5,759.0,5607.0,5.0,1,
81020,1858.8,25.2,121.5,137.9,759.0,5607.0,5.0,1,
81120,1858.7,25.3,121.5,183.5,759.0,5607.0,5.0,1,
81220,1857.7,24.1,121.4,194.5,759.0,5607.0,5.0,1,
81320,1861.2,25.3,121.4,212.0,759.0,5607.0,5.0,1,
81520,1859.6,21.1,121.4,233.3,759.0,5607.0,5.0,1,
81620,1847.7,179.7,124.1,50.4,643.0,5005.0,4.0,1,
81720,1857.7,150.8,122.3,38.0,658.0,5685.0,4.0,1,
81820,1885.6,159.4,120.4,41.1,675.0,5997.0,4.0,1,
81920,1827.6,173.9,115.6,66.0,779.0,5644.0,5.0,1,
82020,1877.0,186.2,113.0,66.4,780.0,5168.0,5.0,1,
82120,1855.2,175.3,119.0,36.4,780.0,5168.0,5.0,1,
82220,1858.9,36.2,118.1,66.2,866.0,5899.0,5.0,1,
82320,1858.0,26.6,118.1,66.8,866.0,5899.0,5.0,1,
82520,1858.1,25.4,118.0,66.5,866.0,5899.0,5.0,1,
82620,1859.9,25.6,118.0,122.3,866.0,5899.0,5.0,1,
82720,1860.3,25.4,118.0,226.7,866.0,5899.0,5.0,1,
82820,1861.2,23.2,118.0,204.8,866.0,5899.0,5.0,1,
82920,1858.0,27.6,118.0,208.9,866.0,5899.0,5.0,1,
83020,1859.4,25.4,118.0,211.0,866.0,5899.0,5.0,1,
83120,1860.5,22.8,118.0,208.2,866.0,5899.0,5.0,1,
83220,1862.2,198.8,117.9,71.7,715.0,5961.0,4.0,1,
83320,1830.7,194.6,120.5,39.4,635.0,5548.0,5.0,1,
83520,1854.7,183.3,132.3,65.5,635.0,5548.0,5.0,1,
83620,1845.5,129.3,129.1,66.4,670.0,4705.0,5.0,1,
83720,1862.3,192.3,129.1,66.9,722.0,5109.0,5.0,1,
83820,1866.0,44.7,130.3,68.9,722.0,5109.0,5.0,1,
83920,1856.3,27.8,130.3,68.7,722.0,5109.0,5.0,1,
84020,1860.5,23.8,130.4,68.0,722.0,5109.0,5.0,1,
84120,1859.2,24.7,130.4,68.5,722.0,5109.0,5.0,1,
84220,1858.7,26.8,130.4,85.1,722.0,5109.0,5.0,1,
84320,1859.7,26.6,130.4,242.9,722.0,5109.0,5.0,1,
84520,1859.4,27.3,130.4,253.1,722.0,5109.0,5.0,1,
84620,1856.6,23.6,130.3,240.1,722.0,5109.0,5.0,1,
84720,1859.0,24.7,130.4,207.0,722.0,5109.0,5.0,1,
84820,1880.9,164.2,130.5,87.9,534.0,4629.0,19.0,1,
84920,1831.7,206.0,129.7,41.4,700.0,6066.0,5.0,1,
85020,1865.7,164.6,127.7,53.9,639.0,5026.0,6.0,1,
85120,1864.2,198.6,126.8,65.8,673.0,5387.0,5.0,1,
85220,1880.5,126.4,130.6,66.5,710.0,5008.0,5.0,1,
85320,1833.2,136.2,124.8,66.9,824.0,6154.0,5.0,1,
85520,1859.2,28.0,121.9,67.3,824.0,6154.0,5.0,1,
85620,1857.7,25.4,121.9,67.2,824.0,6154.0,5.0,1,
85720,1858.2,28.3,121.9,68.2,824.0,6154.0,5.0,1,
85820,1859.9,24.3,121.9,75.5,824.0,6154.0,5.0,1,
85920,1860.3,25.2,121.9,233.2,824.0,6154.0,5.0,1,
86020,1860.9,25.7,121.9,229.1,824.0,6154.0,5.0,1,
86120,1859.6,23.1,121.9,200.8,824.0,6154.0,5.0,1,
86220,1862.1,26.1,121.9,198.5,824.0,6154.0,5.0,1,
86320,1859.8,27.3,122.0,209.2,824.0,6154.0,5.0,1,
86520,1868.2,198.0,124.1,46.6,698.0,6101.0,4.0,1,
86620,1868.8,159.7,124.9,49.7,602.0,5124.0,5.0,1,
86720,1832.0,177.0,119.2,65.8,929.0,6529.0,5.0,1,
86820,1871.0,237.7,115.7,66.2,805.0,4880.0,2.0,0,
86920,1870.1,275.5,140.2,65.6,1395.0,5509.0,2.0,0,
87020,1838.7,94.5,156.0,42.8,2029.0,6303.0,2.0,0,
87120,1857.3,30.3,155.9,48.9,2029.0,6303.0,2.0,0,
87220,1860.4,26.0,155.9,72.7,2029.0,6303.0,2.0,0,
87320,1858.4,24.7,155.9,77.9,2029.0,6303.0,2.0,0,
87520,1856.7,26.6,155.9,231.3,2029.0,6303.0,2.0,0,
87620,1857.4,26.5,155.9,231.3,2029.0,6303.0,2.0,0,
87720,1860.8,25.4,155.9,209.8,2029.0,6303.0,2.0,0,
87820,1858.8,26.3,155.9,208.4,2029.0,6303.0,2.0,0,
87920,1859.5,24.2,155.9,210.9,2029.0,6303.0,2.0,0,
88020,1863.6,95.0,156.0,203.3,433.0,3030.0,4.0,1,
88120,1848.8,177.6,152.8,56.5,730.0,6251.0,5.0,1,
88220,1872.9,173.8,151.6,40.5,678.0,5528.0,4.0,1,
88320,1853.5,182.7,153.0,65.7,779.0,6162.0,6.0,1,
88520,1878.0,241.8,154.9,65.5,801.0,5370.0,2.0,0,
88620,1849.3,145.9,144.8,34.8,512.0,3452.0,2.0,0,
88720,1861.6,32.7,144.6,34.9,512.0,3452.0,2.0,0,
88820,1861.2,24.1,144.6,43.5,512.0,3452.0,2.0,0,
88920,1859.4,26.7,144.6,48.7,512.0,3452.0,2.0,0,
89020,1856.8,28.3,144.6,40.4,512.0,3452.0,2.0,0,
89120,1859.5,23.8,144.6,229.8,512.0,3452.0,2.0,0,
89220,1861.7,23.1,144.5,264.7,512.0,3452.0,2.0,0,
89320,1858.4,21.3,144.5,220.2,512.0,3452.0,2.0,0,
89520,1859.8,24.5,144.3,200.4,512.0,3452.0,2.0,0,
89620,1853.8,46.5,144.4,204.7,512.0,3452.0,2.0,0,
89720,1842.7,190.3,146.9,56.8,560.0,4863.0,4.0,1,
89820,1865.2,176.9,147.4,36.7,702.0,5259.0,5.0,1,
89920,1874.7,170.8,149.9,36.4,702.0,5259.0,5.0,1,
90020,1827.7,133.4,147.4,65.7,862.0,5353.0,5.0,1,
90120,1882.7,165.8,133.7,66.4,721.0,4664.0,5.0,1,
90220,1862.4,139.9,123.1,66.7,706.0,4838.0,4.0,1,
90320,1861.7,31.5,119.0,68.0,706.0,4838.0,4.0,1,
90520,1858.0,26.4,119.0,67.3,706.0,4838.0,4.0,1,
90620,1857.5,28.9,119.0,67.5,706.0,4838.0,4.0,1,
90720,1858.5,27.5,119.0,171.5,706.0,4838.0,4.0,1,
90820,1858.5,24.9,119.0,163.3,706.0,4838.0,4.0,1,
90920,1859.6,27.1,119.1,155.5,706.0,4838.0,4.0,1,
91020,1859.9,26.7,119.2,208.7,706.0,4838.0,4.0,1,
91120,1860.4,26.3,119.3,212.0,706.0,4838.0,4.0,1,
91220,1859.5,20.4,119.3,200.0,706.0,4838.0,4.0,1,
91320,1872.2,220.6,122.5,66.6,752.0,6199.0,5.0,1,
91520,1891.7,205.7,125.9,40.7,604.0,4649.0,6.0,1,
91620,1854.9,153.1,130.1,65.8,672.0,4727.0,5.0,1,
91720,1848.8,123.7,128.8,66.7,704.0,5532.0,4.0,1,
91820,1853.2,174.9,126.2,67.0,756.0,5479.0,5.0,1,
91920,1864.9,36.4,127.9,68.6,756.0,5479.0,5.0,1,
92020,1857.7,27.9,127.9,68.5,756.0,5479.0,5.0,1,
92120,1860.8,27.4,127.9,68.3,756.0,5479.0,5.0,1,
92220,1858.5,26.0,127.9,68.5,756.0,5479.0,5.0,1,
92320,1860.3,23.8,127.8,82.4,756.0,5479.0,5.0,1,
92520,1859.4,23.7,127.7,238.2,756.0,5479.0,5.0,1,
92620,1860.2,24.3,127.7,254.6,756.0,5479.0,5.0,1,
92720,1859.8,25.8,127.7,264.6,756.0,5479.0,5.0,1,
92820,1858.8,26.1,127.7,252.5,756.0,5479.0,5.0,1,
92920,1887.0,205.2,129.9,73.8,714.0,6129.0,4.0,1,
93020,1847.1,184.5,127.4,66.0,604.0,5102.0,5.0,1,
93120,1856.9,204.4,124.1,65.5,819.0,6164.0,5.0,1,
93220,1859.0,300.1,131.5,65.5,574.0,4364.0,2.0,0,
93320,1870.5,146.8,141.9,57.6,965.0,4056.0,2.0,0,
93520,1860.9,39.9,135.0,37.8,714.0,4714.0,5.0,1,
93620,1857.0,26.5,135.0,54.2,714.0,4714.0,5.0,1,
93720,1858.3,24.7,135.1,53.2,714.0,4714.0,5.0,1,
93820,1860.1,25.6,135.0,50.6,714.0,4714.0,5.0,1,
93920,1859.0,24.1,135.0,91.5,714.0,4714.0,5.0,1,
94020,1859.3,27.8,135.1,210.3,714.0,4714.0,5.0,1,
94120,1858.5,25.9,135.1,206.0,714.0,4714.0,5.0,1,
94220,1858.8,27.3,135.2,211.7,714.0,4714.0,5.0,1,
94320,1860.1,26.4,135.2,213.0,714.0,4714.0,5.0,1,
94520,1868.2,163.6,132.7,125.8,616.0,4922.0,5.0,1,
94620,1864.5,168.9,131.4,39.4,670.0,5396.0,4.0,1,
94720,1860.6,157.2,129.9,38.1,669.0,5768.0,4.0,1,
94820,1845.6,165.2,123.8,65.8,765.0,5412.0,5.0,1,
94920,1879.7,201.4,108.2,66.2,765.0,5412.0,5.0,1,
95020,1857.3,292.2,128.4,48.9,1669.0,5826.0,2.0,0,
95120,1843.6,62.2,143.4,41.7,2048.0,5953.0,2.0,0,
95220,1856.9,24.5,143.4,39.1,2048.0,5953.0,2.0,0,
95320,1857.8,23.0,143.4,69.7,2048.0,5953.0,2.0,0,
95520,1857.5,23.1,143.4,86.2,2048.0,5953.0,2.0,0,
95620,1858.6,26.5,143.3,244.3,2048.0,5953.0,2.0,0,
95720,1860.3,24.2,143.3,239.9,2048.0,5953.0,2.0,0,
95820,1860.5,24.2,143.3,238.3,2048.0,5953.0,2.0,0,
95920,1857.7,26.9,143.3,217.6,2048.0,5953.0,2.0,0,
96020,1859.2,25.9,143.3,225.7,2048.0,5953.0,2.0,0,
96120,1848.7,211.3,147.2,101.7,873.0,6393.0,5.0,1,
96220,1859.6,238.9,158.0,35.8,648.0,5305.0,4.0,1,
96320,1887.7,168.8,159.7,35.3,622.0,5425.0,4.0,1,
96520,1846.5,169.8,159.3,65.8,697.0,4965.0,6.0,1,
96620,1884.2,163.0,151.7,66.5,717.0,5624.0,5.0,1,
96720,1851.5,66.6,133.9,66.9,619.0,4271.0,5.0,1,
96820,1862.4,26.6,133.9,66.9,619.0,4271.0,5.0,1,
96920,1860.7,25.6,133.9,66.3,619.0,4271.0,5.0,1,
97020,1861.1,25.9,134.0,54.5,619.0,4271.0,5.0,1,
97120,1860.0,26.4,134.1,57.1,619.0,4271.0,5.0,1,
97220,1858.3,26.0,134.1,204.1,619.0,4271.0,5.0,1,
97320,1857.1,23.8,134.1,234.0,619.0,4271.0,5.0,1,
97520,1861.3,24.2,134.1,196.6,619.0,4271.0,5.0,1,
97620,1860.5,24.0,134.1,232.8,619.0,4271.0,5.0,1,
97720,1873.8,136.5,134.6,239.4,766.0,5580.0,4.0,1,
97820,1833.1,202.7,121.4,36.4,653.0,5637.0,6.0,1,
97920,1859.8,189.6,124.6,35.6,636.0,5175.0,5.0,1,
98020,1881.0,192.7,130.5,37.7,711.0,5561.0,5.0,1,
98120,1847.8,138.6,127.6,66.2,676.0,5332.0,6.0,1,
98220,1864.9,239.2,129.0,66.7,582.0,4852.0,14.0,1,
98320,1859.1,135.3,136.9,66.3,588.0,3421.0,2.0,0,
98520,1859.8,24.4,136.7,34.9,588.0,3421.0,2.0,0,
98620,1859.2,25.0,136.6,34.7,588.0,3421.0,2.0,0,
98720,1858.7,25.5,136.6,35.3,588.0,3421.0,2.0,0,
98820,1858.8,23.8,136.6,211.8,588.0,3421.0,2.0,0,
98920,1859.2,26.0,136.6,242.1,588.0,3421.0,2.0,0,
99020,1858.3,22.4,136.6,241.2,588.0,3421.0,2.0,0,
99120,1859.1,23.1,136.6,242.2,588.0,3421.0,2.0,0,
99220,1858.1,25.7,136.6,251.7,588.0,3421.0,2.0,0,
99320,1859.2,43.1,136.6,250.1,588.0,3421.0,2.0,0,
99520,1833.4,142.9,128.9,36.0,604.0,4798.0,4.0,1,
99620,1874.6,223.3,126.1,36.3,799.0,5961.0,5.0,1,
99720,1854.4,143.1,131.7,65.9,799.0,5961.0,5.0,1,
99820,1854.3,141.9,129.8,66.9,730.0,5710.0,5.0,1,
99920,1856.9,242.6,131.6,67.1,491.0,3730.0,14.0,1,
100020,1861.5,34.5,131.2,66.6,453.0,3275.0,13.0,1,
100120,1857.7,24.0,131.2,35.3,453.0,3275.0,13.0,1,
100220,1858.7,24.2,131.2,34.7,453.0,3275.0,13.0,1,
100320,1858.9,23.3,131.1,34.4,453.0,3275.0,13.0,1,
100520,1859.4,24.5,131.2,236.9,453.0,3275.0,13.0,1,
100620,1859.8,24.2,131.2,276.1,453.0,3275.0,13.0,1,
100720,1859.6,23.3,131.2,273.4,453.0,3275.0,13.0,1,
100820,1860.3,24.7,131.2,237.4,453.0,3275.0,13.0,1,
100920,1858.4,98.2,131.2,235.0,453.0,3275.0,13.0,1,
101020,1882.9,173.1,136.0,41.1,686.0,5716.0,5.0,1,
101120,1836.3,148.7,134.8,39.2,634.0,5102.0,4.0,1,
101220,1864.4,170.9,132.1,44.6,850.0,6266.0,4.0,1,
101320,1862.6,158.6,128.7,66.1,888.0,6160.0,5.0,1,
101520,1826.9,139.7,124.3,66.6,703.0,4943.0,5.0,1,
101620,1859.7,35.2,116.1,66.8,675.0,4471.0,5.0,1,
101720,1860.4,27.7,116.2,66.3,675.0,4471.0,5.0,1,
101820,1858.1,21.8,116.2,56.3,675.0,4471.0,5.0,1,
101920,1858.3,25.0,116.2,57.4,675.0,4471.0,5.0,1,
102020,1861.3,24.3,116.2,133.0,675.0,4471.0,5.0,1,
102120,1860.3,25.2,116.2,239.0,675.0,4471.0,5.0,1,
102220,1858.4,26.5,116.2,217.0,675.0,4471.0,5.0,1,
102320,1859.9,25.3,116.2,200.7,675.0,4471.0,5.0,1,
102520,1859.5,23.8,116.2,214.2,675.0,4471.0,5.0,1,
102620,1864.2,194.6,114.9,75.6,632.0,4918.0,7.0,1,
102720,1863.7,148.7,115.1,66.8,636.0,5401.0,5.0,1,
102820,1872.5,167.2,116.5,66.7,795.0,6267.0,4.0,1,
102920,1827.2,133.9,110.2,66.6,686.0,4690.0,5.0,1,
103020,1874.2,215.7,114.6,66.2,659.0,4817.0,2.0,0,
103120,1861.4,283.6,129.2,36.1,1404.0,5269.0,2.0,0,
103220,1852.9,52.6,141.7,35.0,528.0,3692.0,2.0,0,
103320,1857.8,25.5,141.7,36.0,528.0,3692.0,2.0,0,
103520,1859.1,21.3,141.6,37.1,528.0,3692.0,2.0,0,
103620,1858.3,25.8,141.6,48.7,528.0,3692.0,2.0,0,
103720,1857.9,23.5,141.6,189.3,528.0,3692.0,2.0,0,
103820,1859.8,25.5,141.6,207.4,528.0,3692.0,2.0,0,
103920,1860.0,22.7,141.6,207.3,528.0,3692.0,2.0,0,
104020,1858.8,24.9,141.6,228.9,528.0,3692.0,2.0,0,
104120,1859.3,25.3,141.6,243.9,528.0,3692.0,2.0,0,
104220,1857.0,169.8,142.5,118.1,611.0,4897.0,5.0,1,
104320,1837.1,184.3,139.9,35.7,752.0,5808.0,6.0,1,
104520,1850.4,290.0,170.5,42.7,1662.0,5852.0,2.0,0,
104620,1844.7,193.3,172.1,36.0,868.0,5991.0,4.0,1,
104720,1876.6,280.2,175.1,41.2,902.0,4577.0,2.0,0,
104820,1858.9,59.2,166.6,69.8,1027.0,4125.0,2.0,0,
104920,1859.0,25.0,166.6,38.1,1027.0,4125.0,2.0,0,
105020,1857.9,25.3,166.6,37.0,1027.0,4125.0,2.0,0,
105120,1858.2,24.0,166.6,57.0,1027.0,4125.0,2.0,0,
105220,1858.7,25.5,166.6,71.4,1027.0,4125.0,2.0,0,
105320,1860.3,22.4,166.6,189.4,1027.0,4125.0,2.0,0,
105520,1859.3,24.5,166.6,213.2,1027.0,4125.0,2.0,0,
105620,1858.1,26.4,166.7,210.3,1027.0,4125.0,2.0,0,
105720,1858.0,24.1,166.7,229.0,1027.0,4125.0,2.0,0,
105820,1867.0,135.3,167.1,169.7,708.0,5251.0,4.0,1,
105920,1842.9,152.4,166.4,36.1,713.0,5399.0,4.0,1,
106020,1862.7,213.4,160.5,35.8,733.0,5892.0,4.0,1,
106120,1870.0,280.2,154.8,54.9,900.0,4376.0,2.0,0,
106220,1834.7,312.5,161.5,65.7,2055.0,6296.0,2.0,0,
106320,1868.4,240.4,171.3,46.8,841.0,5200.0,2.0,0,
106520,1860.3,27.9,171.9,131.6,841.0,5200.0,2.0,0,
106620,1856.1,24.0,171.9,35.6,841.0,5200.0,2.0,0,
106720,1858.1,24.5,171.9,30.3,841.0,5200.0,2.0,0,
106820,1859.8,26.0,171.9,34.8,841.0,5200.0,2.0,0,
106920,1860.1,24.8,171.9,253.6,841.0,5200.0,2.0,0,
107020,1859.8,25.1,171.9,234.8,841.0,5200.0,2.0,0,
107120,1858.7,27.3,171.9,233.4,841.0,5200.0,2.0,0,
107220,1859.3,23.1,171.9,234.1,841.0,5200.0,2.0,0,
107320,1859.7,24.6,171.9,226.6,841.0,5200.0,2.0,0,
107520,1861.8,122.7,171.8,37.9,741.0,5383.0,4.0,1,
107620,1827.3,134.6,170.3,35.7,769.0,6055.0,4.0,1,
107720,1881.0,217.3,162.2,37.8,830.0,5859.0,6.0,1,
107820,1865.7,204.7,155.0,65.8,1381.0,5892.0,2.0,0,
107920,1855.5,336.5,149.1,36.6,2190.0,6292.0,2.0,0,
108020,1838.0,117.3,155.9,44.9,1810.0,4615.0,2.0,0,
108120,1859.9,25.1,155.7,93.8,1810.0,4615.0,2.0,0,
108220,1859.0,24.2,155.7,69.9,1810.0,4615.0,2.0,0,
108320,1858.7,26.0,155.7,70.5,1810.0,4615.0,2.0,0,
108520,1858.3,24.5,155.7,174.7,1810.0,4615.0,2.0,0,
108620,1861.1,24.7,155.7,184.1,1810.0,4615.0,2.0,0,
108720,1859.1,23.1,155.7,240.1,1810.0,4615.0,2.0,0,
108820,1859.1,25.1,155.7,248.7,1810.0,4615.0,2.0,0,
108920,1858.9,25.0,155.7,245.0,1810.0,4615.0,2.0,0,
109020,1852.1,49.2,155.7,253.2,1810.0,4615.0,2.0,0,
109120,1887.2,145.3,156.6,45.0,790.0,5416.0,4.0,1,
109220,1859.5,147.4,157.4,35.3,703.0,5954.0,5.0,1,
109320,1848.5,148.0,158.3,36.0,741.0,5047.0,6.0,1,
109520,1880.2,290.4,149.9,66.1,1266.0,5050.0,2.0,0,
109620,1827.5,136.0,145.8,36.9,617.0,4144.0,5.0,1,
109720,1861.8,30.1,145.4,35.3,617.0,4144.0,5.0,1,
109820,1858.8,25.0,145.4,66.2,617.0,4144.0,5.0,1,
109920,1859.0,22.9,145.4,87.0,617.0,4144.0,5.0,1,
110020,1858.2,25.3,145.4,85.3,617.0,4144.0,5.0,1,
110120,1859.4,25.6,145.4,214.8,617.0,4144.0,5.0,1,
110220,1859.0,24.2,145.4,215.5,617.0,4144.0,5.0,1,
110320,1858.2,24.8,145.3,212.4,617.0,4144.0,5.0,1,
110520,1858.5,24.6,145.3,229.5,617.0,4144.0,5.0,1,
110620,1859.3,22.9,145.3,228.4,617.0,4144.0,5.0,1,
110720,1849.7,203.8,144.5,73.4,819.0,5703.0,5.0,1,
110820,1857.6,148.0,150.2,40.8,707.0,5888.0,4.0,1,
110920,1880.2,171.0,150.4,66.3,894.0,6576.0,5.0,1,
111020,1828.8,121.2,149.4,66.8,767.0,5344.0,4.0,1,
111120,1880.9,206.1,140.6,66.4,999.0,5523.0,2.0,0,
111220,1858.7,273.8,121.4,36.6,1495.0,4581.0,2.0,0,
111320,1857.6,36.5,129.1,35.5,653.0,3897.0,2.0,0,
111520,1860.9,21.4,129.1,36.6,653.0,3897.0,2.0,0,
111620,1857.7,25.0,129.1,36.1,653.0,3897.0,2.0,0,
111720,1856.8,26.0,129.1,73.9,653.0,3897.0,2.0,0,
111820,1860.0,24.7,129.1,240.0,653.0,3897.0,2.0,0,
111920,1860.0,26.2,129.1,233.8,653.0,3897.0,2.0,0,
112020,1860.4,25.8,129.1,219.4,653.0,3897.0,2.0,0,
112120,1860.0,24.0,129.2,231.1,653.0,3897.0,2.0,0,
112220,1859.5,25.6,129.2,230.4,653.0,3897.0,2.0,0,
112320,1849.2,149.0,129.7,86.7,688.0,5127.0,7.0,1,
112520,1887.5,263.8,137.2,36.6,1189.0,6283.0,2.0,0,
112620,1843.9,241.7,153.6,56.4,2155.0,5644.0,2.0,0,
112720,1844.8,243.9,158.6,46.8,928.0,6044.0,5.0,1,
112820,1887.9,169.8,165.7,73.4,1107.0,3998.0,2.0,0,
112920,1859.6,35.7,156.5,89.1,545.0,3865.0,5.0,1,
113020,1858.5,25.9,156.5,43.1,545.0,3865.0,5.0,1,
113120,1859.1,26.5,156.5,44.7,545.0,3865.0,5.0,1,
113220,1858.2,27.5,156.5,66.7,545.0,3865.0,5.0,1,
113320,1859.9,26.3,156.5,132.7,545.0,3865.0,5.0,1,
113520,1857.9,26.8,156.5,233.8,545.0,3865.0,5.0,1,
113620,1860.3,25.9,156.5,252.4,545.0,3865.0,5.0,1,
113720,1858.2,27.5,156.5,250.3,545.0,3865.0,5.0,1,
113820,1859.9,27.7,156.5,241.6,545.0,3865.0,5.0,1,
113920,1871.7,151.8,156.6,138.5,623.0,4800.0,7.0,1,
114020,1828.7,109.9,156.0,35.9,863.0,6097.0,5.0,1,
114120,1871.3,222.2,151.8,35.6,819.0,5687.0,2.0,0,
114220,1872.9,257.1,144.1,35.8,893.0,4334.0,2.0,0,
114320,1842.2,281.9,155.0,35.6,1763.0,6572.0,2.0,0,
114520,1863.3,73.6,163.0,196.3,476.0,3662.0,12.0,1,
114620,1858.1,28.9,163.0,104.6,476.0,3662.0,12.0,1,
114720,1858.4,25.4,163.0,35.2,476.0,3662.0,12.0,1,
114820,1858.6,23.6,163.0,34.5,476.0,3662.0,12.0,1,
114920,1857.5,25.9,163.0,35.7,476.0,3662.0,12.0,1,
115020,1860.4,28.1,163.0,265.0,476.0,3662.0,12.0,1,
115120,1860.1,26.6,163.0,213.0,476.0,3662.0,12.0,1,
115220,1861.4,27.1,163.0,188.0,476.0,3662.0,12.0,1,
115320,1858.2,27.7,163.0,201.6,476.0,3662.0,12.0,1,
115520,1864.6,130.0,163.6,154.8,723.0,5820.0,6.0,1,
115620,1863.8,116.1,163.1,36.4,807.0,5589.0,4.0,1,
115720,1834.7,156.1,159.8,35.5,986.0,6943.0,5.0,1,
115820,1872.5,277.7,162.2,39.4,742.0,4140.0,2.0,0,
115920,1855.3,205.9,160.7,36.0,1370.0,6441.0,2.0,0,
116020,1859.0,297.6,166.6,35.4,1823.0,5878.0,2.0,0,
116120,1851.5,81.3,161.9,68.8,1344.0,4727.0,2.0,0,
116220,1860.5,25.9,161.9,93.9,1344.0,4727.0,2.0,0,
116320,1860.9,25.9,161.9,67.2,1344.0,4727.0,2.0,0,
116520,1858.1,25.5,161.9,69.3,1344.0,4727.0,2.0,0,
116620,1859.3,25.7,161.9,265.6,1344.0,4727.0,2.0,0,
116720,1859.2,26.4,161.9,266.6,1344.0,4727.0,2.0,0,
116820,1859.5,26.7,161.9,249.9,1344.0,4727.0,2.0,0,
116920,1858.6,25.6,161.9,231.5,1344.0,4727.0,2.0,0,
117020,1860.2,27.1,161.9,250.4,1344.0,4727.0,2.0,0,
117120,1870.3,119.4,162.1,250.7,732.0,5778.0,5.0,1,
117220,1870.4,107.6,161.5,65.6,795.0,5495.0,6.0,1,
117320,1834.0,147.0,161.6,37.9,877.0,6448.0,5.0,1,
117520,1863.5,105.0,143.7,66.2,402.0,3397.0,3.0,1,
117620,1867.9,122.1,117.2,67.2,729.0,4692.0,6.0,1,
117720,1832.1,74.6,93.6,68.6,685.0,4727.0,5.0,1,
117820,1860.1,26.9,93.1,67.0,685.0,4727.0,5.0,1,
117920,1859.6,25.0,93.1,65.5,685.0,4727.0,5.0,1,
118020,1859.7,26.3,93.1,65.6,685.0,4727.0,5.0,1,
118120,1859.7,27.2,93.1,66.4,685.0,4727.0,5.0,1,
118220,1861.3,23.7,93.2,248.0,685.0,4727.0,5.0,1,
118320,1860.5,25.2,93.2,259.9,685.0,4727.0,5.0,1,
118520,1860.0,25.7,93.2,239.0,685.0,4727.0,5.0,1,
118620,1858.9,25.6,93.2,249.3,685.0,4727.0,5.0,1,
118720,1842.8,56.1,93.2,239.2,685.0,4727.0,5.0,1,
118820,1883.6,169.8,100.7,65.8,690.0,5231.0,7.0,1,
118920,1859.2,160.0,107.8,65.8,880.0,6295.0,4.0,1,
119020,1860.1,148.6,108.1,66.4,768.0,5174.0,5.0,1,
119120,1836.5,194.7,105.4,66.4,803.0,5291.0,5.0,1,
119220,1884.3,161.3,117.8,65.9,803.0,5291.0,5.0,1,
119320,1850.4,115.7,118.3,67.0,701.0,4843.0,4.0,1,
119520,1859.9,25.0,118.6,66.6,701.0,4843.0,4.0,1,
119620,1860.1,23.8,118.6,65.9,701.0,4843.0,4.0,1,
119720,1859.2,26.1,118.6,65.9,701.0,4843.0,4.0,1,
119820,1858.7,27.7,118.6,146.7,701.0,4843.0,4.0,1,
119920,1861.3,24.3,118.6,184.7,701.0,4843.0,4.0,1,
120020,1860.5,25.4,118.6,230.3,701.0,4843.0,4.0,1,
120120,1859.6,26.1,118.5,265.7,701.0,4843.0,4.0,1,
120220,1860.0,24.0,118.5,263.6,701.0,4843.0,4.0,1,
120320,1859.5,24.0,118.5,252.0,701.0,4843.0,4.0,1,
120520,1844.4,215.8,109.9,36.1,787.0,5731.0,6.0,1,
120620,1889.2,156.0,119.4,43.1,933.0,6637.0,4.0,1,
120720,1838.5,120.3,115.7,66.5,678.0,5098.0,5.0,1,
120820,1856.3,190.0,103.9,66.6,784.0,5336.0,5.0,1,
120920,1874.7,136.1,121.7,66.0,877.0,4093.0,2.0,0,
121020,1856.4,33.2,121.3,36.1,733.0,5084.0,4.0,1,
121120,1858.5,23.3,121.3,37.2,733.0,5084.0,4.0,1,
121220,1858.4,26.5,121.3,41.4,733.0,5084.0,4.0,1,
121320,1859.5,24.7,121.3,66.1,733.0,5084.0,4.0,1,
121520,1861.5,27.9,121.3,166.0,733.0,5084.0,4.0,1,
121620,1860.8,24.7,121.3,183.8,733.0,5084.0,4.0,1,
121720,1859.1,23.3,121.3,204.2,733.0,5084.0,4.0,1,
121820,1859.2,26.3,121.3,220.2,733.0,5084.0,4.0,1,
121920,1858.7,25.1,121.3,228.8,733.0,5084.0,4.0,1,
122020,1871.5,112.5,121.0,105.0,705.0,5006.0,6.0,1,
122120,1830.8,131.4,117.7,37.9,854.0,6227.0,5.0,1,
122220,1874.5,256.6,121.8,38.6,1087.0,5666.0,2.0,0,
122320,1866.1,269.9,131.7,35.9,1520.0,5386.0,2.0,0,
122520,1873.9,161.9,157.6,91.6,723.0,4590.0,5.0,1,
122620,1866.2,44.2,159.1,105.8,723.0,4590.0,5.0,1,
122720,1859.6,24.9,159.1,79.3,723.0,4590.0,5.0,1,
122820,1858.8,24.8,159.1,70.6,723.0,4590.0,5.0,1,
122920,1861.5,23.6,159.1,69.8,723.0,4590.0,5.0,1,
123020,1860.1,23.6,159.1,83.6,723.0,4590.0,5.0,1,
123120,1860.3,24.7,159.0,220.1,723.0,4590.0,5.0,1,
123220,1859.1,24.7,159.0,243.9,723.0,4590.0,5.0,1,
123320,1858.6,24.3,159.0,262.2,723.0,4590.0,5.0,1,
123520,1859.5,25.6,159.0,241.9,723.0,4590.0,5.0,1,
123620,1882.0,162.6,162.1,86.2,599.0,4534.0,6.0,1,
123720,1857.2,127.7,163.9,66.7,817.0,6061.0,4.0,1,
123820,1828.3,162.2,157.0,65.8,760.0,5688.0,4.0,1,
123920,1881.1,174.6,152.8,65.7,814.0,5437.0,5.0,1,
124020,1866.7,137.5,130.3,66.6,784.0,5078.0,5.0,1,
124120,1839.7,94.5,113.8,67.9,627.0,3933.0,5.0,1,
124220,1855.3,49.1,110.8,69.0,606.0,4077.0,5.0,1,
124320,1857.4,25.1,110.8,76.4,606.0,4077.0,5.0,1,
124520,1858.7,24.4,110.8,77.9,606.0,4077.0,5.0,1,
124620,1860.0,23.1,110.8,85.2,606.0,4077.0,5.0,1,
124720,1859.4,25.9,110.8,221.1,606.0,4077.0,5.0,1,
124820,1860.3,27.7,110.8,266.3,606.0,4077.0,5.0,1,
124920,1859.3,26.6,110.8,261.8,606.0,4077.0,5.0,1,
125020,1859.0,23.5,110.8,234.8,606.0,4077.0,5.0,1,
125120,1859.0,23.2,110.7,238.5,606.0,4077.0,5.0,1,
125220,1859.5,137.1,107.9,170.8,632.0,5189.0,5.0,1,
125320,1879.8,162.6,111.5,65.5,821.0,6028.0,4.0,1,
125520,1842.2,121.4,106.6,66.7,704.0,5128.0,5.0,1,
125620,1857.2,276.0,107.5,66.5,1024.0,5059.0,2.0,0,
125720,1878.8,274.7,132.6,35.8,1681.0,4219.0,2.0,0,
125820,1833.2,67.6,141.8,35.0,703.0,4608.0,5.0,1,
125920,1860.7,27.2,141.8,67.9,703.0,4608.0,5.0,1,
126020,1860.4,22.3,141.8,92.2,703.0,4608.0,5.0,1,
126120,1857.7,24.4,141.8,92.5,703.0,4608.0,5.0,1,
126220,1859.3,23.8,141.8,91.7,703.0,4608.0,5.0,1,
126320,1861.3,23.8,141.8,205.5,703.0,4608.0,5.0,1,
126520,1860.7,22.3,141.8,247.1,703.0,4608.0,5.0,1,
126620,1858.9,23.8,141.8,240.9,703.0,4608.0,5.0,1,
126720,1860.2,24.8,141.8,250.6,703.0,4608.0,5.0,1,
126820,1856.8,119.8,141.9,260.2,660.0,5174.0,7.0,1,
126920,1856.4,196.9,141.4,43.1,570.0,4317.0,6.0,1,
127020,1856.3,335.3,155.9,51.3,1227.0,5903.0,2.0,0,
127120,1862.3,167.2,172.9,66.0,1575.0,5022.0,13.0,1,
127220,1857.2,206.3,172.7,39.9,981.0,5108.0,2.0,0,
127320,1882.9,256.4,168.0,40.0,1163.0,3624.0,2.0,0,
127520,1862.5,31.9,174.3,46.2,1163.0,3624.0,2.0,0,
127620,1856.8,24.0,174.3,67.1,1163.0,3624.0,2.0,0,
127720,1857.4,25.5,174.3,44.8,1163.0,3624.0,2.0,0,
127820,1858.3,23.1,174.3,41.0,1163.0,3624.0,2.0,0,
127920,1859.4,24.1,174.3,231.5,1163.0,3624.0,2.0,0,
128020,1859.2,24.0,174.3,246.2,1163.0,3624.0,2.0,0,
128120,1859.5,25.2,174.3,232.3,1163.0,3624.0,2.0,0,
128220,1858.4,23.7,174.3,216.9,1163.0,3624.0,2.0,0,
128320,1858.1,23.7,174.3,214.2,1163.0,3624.0,2.0,0,
128520,1856.6,188.0,176.2,41.1,689.0,5783.0,4.0,1,
128620,1868.8,193.3,172.2,38.0,762.0,6402.0,4.0,1,
128720,1879.9,159.4,150.9,66.0,709.0,5089.0,5.0,1,
128820,1824.7,155.2,152.6,66.9,760.0,6119.0,4.0,1,
128920,1868.5,239.1,148.5,66.5,941.0,4549.0,2.0,0,
129020,1864.7,203.6,140.8,41.9,1241.0,4759.0,2.0,0,
129120,1859.9,32.1,136.7,35.2,807.0,4719.0,2.0,0,
129220,1858.7,23.9,136.7,35.0,807.0,4719.0,2.0,0,
129320,1859.5,23.3,136.6,35.1,807.0,4719.0,2.0,0,
129520,1857.4,24.3,136.6,170.3,807.0,4719.0,2.0,0,
129620,1858.1,23.9,136.6,219.7,807.0,4719.0,2.0,0,
129720,1860.0,23.0,136.6,213.9,807.0,4719.0,2.0,0,
129820,1858.6,21.2,136.6,250.0,807.0,4719.0,2.0,0,
129920,1861.1,22.9,136.6,269.4,807.0,4719.0,2.0,0,
130020,1858.1,25.2,136.6,252.3,807.0,4719.0,2.0,0,
130120,1865.1,210.5,139.3,47.5,747.0,6095.0,6.0,1,
130220,1830.0,302.3,138.9,36.7,875.0,6755.0,6.0,1,
130320,1884.4,256.8,154.0,35.9,930.0,3910.0,2.0,0,
130520,1860.2,259.5,187.7,35.7,753.0,4451.0,2.0,0,
130620,1870.6,230.2,184.8,165.0,1097.0,5256.0,2.0,0,
130720,1858.4,39.3,184.7,157.2,750.0,4654.0,2.0,0,
130820,1859.6,23.8,184.7,65.7,750.0,4654.0,2.0,0,
130920,1860.1,23.7,184.7,35.1,750.0,4654.0,2.0,0,
131020,1860.2,24.6,184.7,35.1,750.0,4654.0,2.0,0,
131120,1859.7,25.5,184.7,76.4,750.0,4654.0,2.0,0,
131220,1860.3,23.5,184.7,184.4,750.0,4654.0,2.0,0,
131320,1859.8,24.1,184.7,178.3,750.0,4654.0,2.0,0,
131520,1857.4,24.9,184.7,230.9,750.0,4654.0,2.0,0,
131620,1857.8,24.8,184.7,249.6,750.0,4654.0,2.0,0,
131720,1859.7,197.2,184.6,56.9,681.0,5363.0,7.0,1,
131820,1838.5,212.9,185.1,36.7,837.0,6350.0,5.0,1,
131920,1880.9,254.4,181.7,37.3,769.0,4317.0,2.0,0,
132020,1868.5,297.7,176.0,35.9,1218.0,5740.0,2.0,0,
132120,1821.0,341.9,178.2,35.4,2192.0,6316.0,2.0,0,
132220,1884.9,275.5,182.6,72.1,647.0,4311.0,2.0,0,
132320,1860.0,52.0,183.9,132.8,837.0,5190.0,2.0,0,
132520,1859.9,24.3,183.9,36.0,837.0,5190.0,2.0,0,
132620,1859.3,25.4,183.9,34.6,837.0,5190.0,2.0,0,
132720,1856.6,26.2,183.9,36.9,837.0,5190.0,2.0,0,
132820,1860.1,26.4,183.9,260.0,837.0,5190.0,2.0,0,
132920,1859.7,24.0,183.9,245.5,837.0,5190.0,2.0,0,
133020,1859.9,24.2,184.0,230.8,837.0,5190.0,2.0,0,
133120,1861.0,26.2,183.9,242.4,837.0,5190.0,2.0,0,
133220,1859.2,25.1,183.9,248.5,837.0,5190.0,2.0,0,
133320,1874.9,181.7,183.9,91.6,619.0,4838.0,6.0,1,
133520,1833.3,184.9,179.2,37.5,808.0,5317.0,5.0,1,
133620,1891.3,171.5,175.7,41.0,869.0,6240.0,4.0,1,
133720,1847.8,171.5,156.3,66.1,812.0,5540.0,5.0,1,
133820,1845.8,183.0,130.6,66.9,792.0,5370.0,5.0,1,
133920,1860.1,61.4,125.2,66.8,792.0,5370.0,5.0,1,
134020,1856.6,27.7,125.2,67.2,792.0,5370.0,5.0,1,
134120,1859.0,24.6,125.1,69.4,792.0,5370.0,5.0,1,
134220,1858.7,25.1,125.1,69.5,792.0,5370.0,5.0,1,
134320,1859.6,26.3,125.1,71.8,792.0,5370.0,5.0,1,
134520,1859.4,24.2,125.1,215.7,792.0,5370.0,5.0,1,
134620,1858.6,24.4,125.1,220.8,792.0,5370.0,5.0,1,
134720,1858.5,25.2,125.1,249.4,792.0,5370.0,5.0,1,
134820,1859.4,26.7,125.1,243.7,792.0,5370.0,5.0,1,
134920,1863.8,198.5,129.7,104.7,792.0,5370.0,5.0,1,
135020,1884.9,196.7,127.9,66.8,846.0,6674.0,4.0,1,
135120,1837.7,201.6,127.3,65.9,823.0,5918.0,5.0,1,
135220,1870.4,247.5,129.4,65.8,713.0,5026.0,2.0,0,
135320,1861.9,203.5,135.7,37.7,1312.0,5984.0,2.0,0,
135520,1843.0,110.2,162.3,37.8,858.0,5023.0,2.0,0,
135620,1862.1,28.9,162.3,133.5,858.0,5023.0,2.0,0,
135720,1858.9,24.4,162.3,67.2,858.0,5023.0,2.0,0,
135820,1859.4,26.0,162.3,36.0,858.0,5023.0,2.0,0,
135920,1859.7,25.9,162.3,36.0,858.0,5023.0,2.0,0,
136020,1858.6,26.6,162.3,235.9,858.0,5023.0,2.0,0,
136120,1859.3,27.5,162.3,210.3,858.0,5023.0,2.0,0,
136220,1858.0,25.7,162.3,230.6,858.0,5023.0,2.0,0,
136320,1858.5,23.8,162.3,231.8,858.0,5023.0,2.0,0,
136520,1863.1,140.2,160.0,240.7,797.0,6036.0,6.0,1,
136620,1876.3,181.3,160.1,43.6,832.0,7076.0,4.0,1,
136720,1845.4,206.0,160.1,40.6,826.0,6148.0,5.0,1,
136820,1858.6,182.8,159.5,65.7,750.0,5649.0,5.0,1,
136920,1863.4,227.7,155.5,66.1,995.0,5183.0,2.0,0,
137020,1885.4,276.5,154.3,65.6,1103.0,4686.0,13.0,1,
137120,1832.8,183.6,160.7,35.8,618.0,4339.0,2.0,0,
137220,1858.7,32.2,160.4,66.5,618.0,4339.0,2.0,0,
137320,1860.4,29.6,160.4,81.8,618.0,4339.0,2.0,0,
137520,1858.7,28.4,160.4,40.8,618.0,4339.0,2.0,0,
137620,1859.8,26.2,160.4,171.8,618.0,4339.0,2.0,0,
137720,1860.5,26.7,160.4,231.3,618.0,4339.0,2.0,0,
137820,1859.8,27.1,160.4,227.5,618.0,4339.0,2.0,0,
137920,1860.2,28.2,160.5,243.5,618.0,4339.0,2.0,0,
138020,1857.6,26.3,160.5,246.5,618.0,4339.0,2.0,0,
138120,1838.7,51.0,160.5,286.1,618.0,4339.0,2.0,0,
138220,1874.1,226.5,162.4,51.7,751.0,6244.0,5.0,1,
138320,1867.4,288.4,176.8,38.0,1049.0,5042.0,2.0,0,
138520,1825.8,370.4,207.4,35.8,1084.0,5424.0,14.0,1,
138620,1870.2,273.7,210.4,131.4,554.0,3873.0,13.0,1,
138720,1862.5,209.4,201.5,158.8,1776.0,6429.0,2.0,0,
138820,1858.6,34.9,199.5,101.4,793.0,5117.0,2.0,0,
138920,1859.1,26.5,199.6,66.1,793.0,5117.0,2.0,0,
139020,1859.6,25.9,199.6,38.2,793.0,5117.0,2.0,0,
139120,1859.2,26.7,199.5,41.5,793.0,5117.0,2.0,0,
139220,1860.1,25.0,199.5,187.5,793.0,5117.0,2.0,0,
139320,1857.3,25.9,199.6,230.4,793.0,5117.0,2.0,0,
139520,1858.6,25.6,199.6,218.9,793.0,5117.0,2.0,0,
139620,1861.0,25.9,199.6,209.0,793.0,5117.0,2.0,0,
139720,1860.7,23.5,199.5,217.9,793.0,5117.0,2.0,0,
139820,1862.1,220.5,200.5,54.4,760.0,6301.0,4.0,1,
139920,1837.6,213.2,193.5,37.2,848.0,6670.0,6.0,1,
140020,1875.2,149.8,186.5,37.7,848.0,6670.0,6.0,1,
140120,1843.7,194.5,160.3,66.1,806.0,6022.0,5.0,1,
140220,1859.1,179.7,145.6,67.0,678.0,4622.0,5.0,1,
140320,1875.7,162.4,136.5,67.3,678.0,4622.0,5.0,1,
140520,1857.7,27.7,131.6,68.4,678.0,4622.0,5.0,1,
140620,1859.4,27.5,131.6,68.3,678.0,4622.0,5.0,1,
140720,1859.9,23.4,131.6,67.5,678.0,4622.0,5.0,1,
140820,1860.1,24.9,131.6,117.5,678.0,4622.0,5.0,1,
140920,1858.6,26.6,131.6,202.3,678.0,4622.0,5.0,1,
141020,1859.5,26.4,131.6,219.4,678.0,4622.0,5.0,1,
141120,1857.7,25.6,131.6,248.0,678.0,4622.0,5.0,1,
141220,1857.7,28.5,131.6,246.7,678.0,4622.0,5.0,1,
141320,1859.8,25.1,131.6,250.5,678.0,4622.0,5.0,1,
141520,1843.6,236.3,129.2,46.6,786.0,6458.0,6.0,1,
141620,1875.7,212.9,128.0,65.5,739.0,5215.0,6.0,1,
141720,1870.9,272.4,147.8,65.6,1273.0,6062.0,2.0,0,
141820,1818.8,181.5,164.1,40.6,2210.0,6210.0,2.0,0,
141920,1886.3,193.9,162.5,35.9,703.0,5440.0,5.0,1,
142020,1860.2,44.1,161.2,67.2,806.0,5507.0,5.0,1,
142120,1857.4,27.5,161.2,74.8,806.0,5507.0,5.0,1,
142220,1858.8,25.9,161.2,68.6,806.0,5507.0,5.0,1,
142320,1858.8,25.9,161.2,67.0,806.0,5507.0,5.0,1,
142520,1859.8,25.0,161.3,226.6,806.0,5507.0,5.0,1,
142620,1858.3,24.5,161.2,243.4,806.0,5507.0,5.0,1,
142720,1859.8,25.6,161.2,244.7,806.0,5507.0,5.0,1,
142820,1859.1,27.0,161.2,245.4,806.0,5507.0,5.0,1,
142920,1857.6,24.7,161.2,230.3,806.0,5507.0,5.0,1,
143020,1876.2,149.9,160.8,139.7,618.0,5057.0,6.0,1,
143120,1862.6,208.2,158.5,49.5,870.0,6822.0,6.0,1,
143220,1816.0,143.2,155.6,56.6,769.0,5024.0,5.0,1,
143320,1893.3,237.7,153.1,65.6,1058.0,6199.0,2.0,0,
143520,1845.9,292.2,164.7,35.0,1102.0,5155.0,2.0,0,
143620,1859.3,72.9,167.4,157.9,821.0,4343.0,2.0,0,
143720,1860.7,29.0,167.4,130.8,821.0,4343.0,2.0,0,
143820,1857.8,26.2,167.5,37.5,821.0,4343.0,2.0,0,
143920,1857.7,25.2,167.5,35.0,821.0,4343.0,2.0,0,
144020,1859.5,24.1,167.5,35.5,821.0,4343.0,2.0,0,
144120,1857.3,24.7,167.5,238.2,821.0,4343.0,2.0,0,
144220,1857.6,27.3,167.5,217.4,821.0,4343.0,2.0,0,
144320,1859.7,24.2,167.5,216.5,821.0,4343.0,2.0,0,
144520,1858.4,23.4,167.5,245.2,821.0,4343.0,2.0,0,
144620,1857.1,151.8,168.0,168.7,621.0,5043.0,6.0,1,
144720,1891.4,193.3,167.5,50.5,889.0,6672.0,5.0,1,
144820,1840.5,149.2,166.0,53.5,762.0,5024.0,5.0,1,
144920,1856.8,191.5,157.6,65.8,900.0,6117.0,5.0,1,
145020,1860.9,268.6,156.9,65.9,1167.0,4751.0,2.0,0,
145120,1853.9,295.5,150.7,35.9,2043.0,5912.0,2.0,0,
145220,1843.2,118.5,160.2,38.8,758.0,4337.0,2.0,0,
145320,1863.0,28.9,160.1,130.3,758.0,4337.0,2.0,0,
145520,1860.4,25.3,160.1,37.0,758.0,4337.0,2.0,0,
145620,1857.8,25.3,160.1,36.2,758.0,4337.0,2.0,0,
145720,1859.9,27.9,160.1,241.2,758.0,4337.0,2.0,0,
145820,1859.6,26.7,160.1,225.9,758.0,4337.0,2.0,0,
145920,1858.8,25.2,160.1,214.5,758.0,4337.0,2.0,0,
146020,1858.2,26.1,160.1,228.8,758.0,4337.0,2.0,0,
146120,1858.1,26.8,160.1,279.2,758.0,4337.0,2.0,0,
146220,1857.8,124.1,160.2,277.6,664.0,5060.0,5.0,1,
146320,1881.8,202.0,163.4,40.0,878.0,7099.0,5.0,1,
146520,1839.9,182.5,166.4,44.6,880.0,6504.0,4.0,1,
146620,1858.7,218.8,170.2,66.0,946.0,4427.0,2.0,0,
146720,1883.3,222.2,163.4,41.6,1405.0,5729.0,2.0,0,
146820,1839.7,173.3,155.7,35.8,648.0,3887.0,2.0,0,
146920,1854.2,32.2,155.6,70.4,648.0,3887.0,2.0,0,
147020,1858.7,26.0,155.6,131.1,648.0,3887.0,2.0,0,
147120,1858.8,25.2,155.6,88.8,648.0,3887.0,2.0,0,
147220,1857.5,26.5,155.6,65.7,648.0,3887.0,2.0,0,
147320,1859.6,25.3,155.6,156.5,648.0,3887.0,2.0,0,
147520,1860.5,27.1,155.6,201.2,648.0,3887.0,2.0,0,
147620,1859.2,24.1,155.6,212.2,648.0,3887.0,2.0,0,
147720,1858.1,25.9,155.6,235.1,648.0,3887.0,2.0,0,
147820,1841.7,37.2,155.6,241.2,648.0,3887.0,2.0,0,
147920,1859.8,182.0,153.6,56.8,828.0,6502.0,5.0,1,
148020,1866.7,195.9,157.2,43.3,726.0,5229.0,5.0,1,
148120,1879.5,156.4,156.2,66.0,805.0,6017.0,4.0,1,
148220,1833.8,174.4,148.5,66.7,819.0,5400.0,5.0,1,
148320,1861.5,176.3,143.4,66.8,742.0,5046.0,5.0,1,
148520,1855.3,31.0,120.1,68.6,742.0,5046.0,5.0,1,
148620,1858.7,23.1,120.1,67.3,742.0,5046.0,5.0,1,
148720,1859.3,23.1,120.1,65.8,742.0,5046.0,5.0,1,
148820,1858.3,24.8,120.1,49.5,742.0,5046.0,5.0,1,
148920,1859.3,23.8,120.1,183.7,742.0,5046.0,5.0,1,
149020,1860.0,25.5,120.1,268.1,742.0,5046.0,5.0,1,
149120,1858.3,24.4,120.0,272.9,742.0,5046.0,5.0,1,
149220,1858.9,24.0,120.0,245.1,742.0,5046.0,5.0,1,
149320,1858.3,25.7,120.0,216.9,742.0,5046.0,5.0,1,
149520,1866.4,190.7,118.9,68.2,840.0,6807.0,4.0,1,
149620,1833.8,207.7,113.4,38.0,826.0,5790.0,6.0,1,
149720,1869.6,149.4,120.4,36.7,826.0,5790.0,6.0,1,
149820,1864.3,143.7,118.3,65.9,812.0,5056.0,5.0,1,
149920,1845.4,161.7,112.2,66.9,615.0,4207.0,5.0,1,
150020,1883.9,140.1,110.6,67.2,788.0,5161.0,5.0,1,
150120,1856.4,35.4,110.4,78.4,786.0,4869.0,5.0,1,
150220,1856.9,25.5,110.4,74.4,786.0,4869.0,5.0,1,
150320,1859.9,24.8,110.4,66.1,786.0,4869.0,5.0,1,
150520,1860.2,24.9,110.5,201.3,786.0,4869.0,5.0,1,
150620,1860.1,21.5,110.5,233.5,786.0,4869.0,5.0,1,
150720,1859.2,23.9,110.5,230.2,786.0,4869.0,5.0,1,
150820,1859.3,23.6,110.5,249.4,786.0,4869.0,5.0,1,
150920,1859.1,24.4,110.5,243.7,786.0,4869.0,5.0,1,
151020,1860.0,22.6,110.5,240.2,786.0,4869.0,5.0,1,
151120,1863.0,154.6,112.7,80.4,573.0,4987.0,6.0,1,
151220,1850.4,186.8,110.2,40.2,819.0,5626.0,6.0,1,
151320,1860.0,211.3,106.9,39.8,692.0,4896.0,5.0,1,
151520,1825.8,131.6,115.8,66.9,726.0,4648.0,5.0,1,
151620,1873.4,161.8,117.1,67.2,704.0,5274.0,5.0,1,
151720,1864.2,53.3,125.6,67.2,408.0,3585.0,14.0,1,
151820,1856.9,24.2,125.5,52.5,408.0,3585.0,14.0,1,
151920,1859.9,22.2,125.5,36.8,408.0,3585.0,14.0,1,
152020,1859.5,24.6,125.5,35.4,408.0,3585.0,14.0,1,
152120,1860.1,23.2,125.5,39.0,408.0,3585.0,14.0,1,
152220,1860.0,25.5,125.5,227.0,408.0,3585.0,14.0,1,
152320,1856.6,25.3,125.5,228.7,408.0,3585.0,14.0,1,
152520,1859.1,23.7,125.5,216.8,408.0,3585.0,14.0,1,
152620,1856.4,23.8,125.5,215.0,408.0,3585.0,14.0,1,
152720,1875.1,150.2,124.9,146.5,613.0,5151.0,6.0,1,
152820,1868.9,198.0,125.3,50.5,857.0,6455.0,6.0,1,
152920,1816.7,158.0,123.2,65.5,724.0,5176.0,5.0,1,
153020,1894.7,207.1,122.9,65.7,891.0,5569.0,2.0,0,
153120,1862.3,246.2,134.1,35.6,1554.0,4411.0,2.0,0,
153220,1850.9,331.2,160.1,35.0,1985.0,6089.0,2.0,0,
153320,1847.7,78.4,165.3,131.4,702.0,3714.0,2.0,0,
153520,1860.8,21.6,165.3,66.1,702.0,3714.0,2.0,0,
153620,1857.3,25.1,165.3,35.8,702.0,3714.0,2.0,0,
153720,1858.6,24.5,165.3,36.1,702.0,3714.0,2.0,0,
153820,1859.8,25.4,165.3,195.8,702.0,3714.0,2.0,0,
153920,1858.1,24.4,165.3,207.4,702.0,3714.0,2.0,0,
154020,1858.9,22.7,165.3,195.0,702.0,3714.0,2.0,0,
154120,1858.9,24.3,165.3,196.1,702.0,3714.0,2.0,0,
154220,1860.3,26.0,165.3,209.1,702.0,3714.0,2.0,0,
154320,1845.8,156.1,166.3,182.8,631.0,5222.0,7.0,1,
154520,1850.9,157.1,166.2,38.0,746.0,5556.0,5.0,1,
154620,1850.6,162.5,162.1,65.5,960.0,6596.0,5.0,1,
154720,1859.7,288.3,165.8,66.1,842.0,3577.0,2.0,0,
154820,1863.4,271.1,166.1,38.5,1397.0,4743.0,13.0,1,
154920,1849.6,100.0,164.9,35.7,2099.0,4988.0,2.0,0,
155020,1863.9,26.8,164.9,92.9,2099.0,4988.0,2.0,0,
155120,1859.9,23.2,164.9,100.3,2099.0,4988.0,2.0,0,
155220,1859.2,24.3,164.9,94.6,2099.0,4988.0,2.0,0,
155320,1858.0,24.7,164.9,94.4,2099.0,4988.0,2.0,0,
155520,1860.9,24.8,164.9,189.7,2099.0,4988.0,2.0,0,
155620,1858.7,24.1,164.9,188.9,2099.0,4988.0,2.0,0,
155720,1858.2,24.5,165.0,199.9,2099.0,4988.0,2.0,0,
155820,1859.2,23.1,164.9,230.1,2099.0,4988.0,2.0,0,
155920,1859.8,106.3,164.9,246.2,624.0,4985.0,7.0,1,
156020,1845.4,223.3,164.5,55.0,924.0,6613.0,5.0,1,
156120,1866.8,191.3,168.8,44.5,924.0,6613.0,5.0,1,
156220,1860.5,133.7,169.4,66.0,975.0,6185.0,5.0,1,
156320,1842.7,141.2,162.0,66.8,724.0,4091.0,5.0,1,
156520,1862.2,189.6,146.9,56.1,594.0,3510.0,2.0,0,
156620,1854.1,31.8,146.9,35.0,594.0,3510.0,2.0,0,
156720,1859.1,24.5,146.9,34.7,594.0,3510.0,2.0,0,
156820,1860.9,21.9,147.0,35.0,594.0,3510.0,2.0,0,
156920,1859.5,25.1,146.9,35.5,594.0,3510.0,2.0,0,
157020,1858.0,23.3,146.9,169.5,594.0,3510.0,2.0,0,
157120,1857.8,23.6,146.9,244.4,594.0,3510.0,2.0,0,
157220,1859.6,23.2,146.9,244.6,594.0,3510.0,2.0,0,
157320,1858.3,23.9,146.9,213.2,594.0,3510.0,2.0,0,
157520,1858.2,38.1,146.9,241.4,594.0,3510.0,2.0,0,
157620,1851.8,160.5,146.0,66.5,816.0,5950.0,6.0,1,
157720,1857.1,227.7,143.5,37.2,761.0,5070.0,6.0,1,
157820,1882.3,220.7,153.4,35.6,1235.0,6106.0,2.0,0,
157920,1849.1,241.0,166.7,35.2,2240.0,5384.0,2.0,0,
158020,1829.4,154.2,170.8,35.7,670.0,4438.0,5.0,1,
158120,1891.7,250.3,163.3,100.8,903.0,3468.0,2.0,0,
158220,1854.8,34.4,161.8,89.4,501.0,3062.0,2.0,0,
158320,1860.0,24.9,161.8,35.9,501.0,3062.0,2.0,0,
158520,1858.6,23.4,161.8,34.2,501.0,3062.0,2.0,0,
158620,1859.6,22.0,161.8,91.5,501.0,3062.0,2.0,0,
158720,1859.7,24.4,161.7,247.0,501.0,3062.0,2.0,0,
158820,1860.5,24.3,161.7,267.3,501.0,3062.0,2.0,0,
158920,1859.8,24.6,161.7,242.7,501.0,3062.0,2.0,0,
159020,1859.7,24.2,161.7,221.3,501.0,3062.0,2.0,0,
159120,1859.3,24.4,161.7,221.3,501.0,3062.0,2.0,0,
159220,1875.9,171.4,162.1,68.7,865.0,6531.0,5.0,1,
159320,1835.1,155.9,161.5,37.4,776.0,4991.0,6.0,1,
159520,1885.3,290.4,154.9,41.7,1295.0,4669.0,2.0,0,
159620,1840.1,213.0,172.7,43.5,1858.0,4909.0,2.0,0,
159720,1867.2,295.5,173.9,36.7,783.0,3638.0,2.0,0,
159820,1857.3,42.4,173.9,70.1,506.0,2946.0,2.0,0,
159920,1860.2,24.4,173.9,65.7,506.0,2946.0,2.0,0,
160020,1859.7,23.1,173.9,35.0,506.0,2946.0,2.0,0,
160120,1858.4,25.4,174.0,30.2,506.0,2946.0,2.0,0,
160220,1860.5,25.1,174.0,39.4,506.0,2946.0,2.0,0,
160320,1859.6,24.6,174.0,218.3,506.0,2946.0,2.0,0,
160520,1858.8,23.7,174.0,252.9,506.0,2946.0,2.0,0,
160620,1857.8,23.7,174.0,236.7,506.0,2946.0,2.0,0,
160720,1860.3,27.5,174.0,236.7,506.0,2946.0,2.0,0,
160820,1862.0,146.3,174.5,94.3,743.0,5447.0,5.0,1,
160920,1865.9,144.0,173.9,41.3,665.0,4474.0,6.0,1,
161020,1838.1,180.7,170.3,39.4,643.0,4792.0,6.0,1,
161120,1882.2,305.5,174.9,37.8,1179.0,4847.0,2.0,0,
161220,1854.3,285.4,164.3,34.8,1623.0,4957.0,2.0,0,
161320,1849.0,295.3,176.3,34.8,1071.0,4628.0,2.0,0,
161520,1859.6,27.3,174.3,130.2,1071.0,4628.0,2.0,0,
161620,1860.0,23.2,174.2,36.0,1071.0,4628.0,2.0,0,
161720,1859.3,25.7,174.2,34.9,1071.0,4628.0,2.0,0,
161820,1859.9,22.8,174.2,37.5,1071.0,4628.0,2.0,0,
161920,1859.4,24.9,174.2,214.0,1071.0,4628.0,2.0,0,
162020,1859.8,26.6,174.2,216.7,1071.0,4628.0,2.0,0,
162120,1860.3,22.2,174.2,214.2,1071.0,4628.0,2.0,0,
162220,1859.7,22.3,174.2,215.4,1071.0,4628.0,2.0,0,
162320,1860.3,25.2,174.2,240.7,1071.0,4628.0,2.0,0,
162520,1877.8,151.4,172.8,57.2,838.0,5765.0,5.0,1,
162620,1824.0,147.7,173.8,56.7,659.0,4893.0,5.0,1,
162720,1880.6,183.7,162.7,65.8,850.0,5533.0,6.0,1,
162820,1864.6,234.1,155.6,65.9,1188.0,4212.0,2.0,0,
162920,1861.6,313.4,148.8,36.0,2302.0,6012.0,2.0,0,
163020,1837.2,90.8,156.6,40.7,464.0,2852.0,2.0,0,
163120,1859.1,25.5,156.5,122.5,464.0,2852.0,2.0,0,
163220,1857.6,24.3,156.5,68.6,464.0,2852.0,2.0,0,
163320,1859.1,24.5,156.6,37.8,464.0,2852.0,2.0,0,
163520,1861.3,25.0,156.5,240.4,464.0,2852.0,2.0,0,
163620,1859.4,26.5,156.5,234.4,464.0,2852.0,2.0,0,
163720,1857.6,24.5,156.6,225.6,464.0,2852.0,2.0,0,
163820,1859.5,26.6,156.6,171.5,464.0,2852.0,2.0,0,
163920,1857.0,25.3,156.6,124.6,464.0,2852.0,2.0,0,
164020,1839.8,113.2,156.7,136.2,462.0,3378.0,4.0,1,
164120,1885.6,156.1,157.7,39.6,477.0,3609.0,5.0,1,
164220,1871.0,136.1,157.2,35.6,571.0,4060.0,5.0,1,
164320,1849.7,161.4,156.5,35.8,735.0,4858.0,5.0,1,
164520,1863.4,119.8,133.7,66.2,580.0,3841.0,5.0,1,
164620,1853.9,72.3,93.7,67.2,644.0,3072.0,5.0,1,
164720,1862.0,25.5,93.6,69.1,644.0,3072.0,5.0,1,
164820,1860.3,24.2,93.6,37.7,644.0,3072.0,5.0,1,
164920,1856.8,23.3,93.6,36.1,644.0,3072.0,5.0,1,
165020,1859.5,23.2,93.6,50.4,644.0,3072.0,5.0,1,
165120,1857.7,22.8,93.5,170.4,644.0,3072.0,5.0,1,
165220,1858.3,23.1,93.5,188.3,644.0,3072.0,5.0,1,
165320,1858.7,24.5,93.4,177.2,644.0,3072.0,5.0,1,
165520,1859.8,23.5,93.4,185.3,644.0,3072.0,5.0,1,
165620,1861.4,95.7,93.2,212.5,539.0,4483.0,3.0,1,
165720,1837.9,155.0,93.7,45.5,721.0,4709.0,5.0,1,
165820,1865.8,116.1,95.8,35.5,531.0,3603.0,5.0,1,
165920,1863.4,131.7,96.1,65.7,670.0,4678.0,4.0,1,
166020,1842.3,145.3,93.7,71.7,651.0,4476.0,5.0,1,
166120,1869.8,237.2,104.3,69.4,750.0,4103.0,2.0,0,
166220,1873.6,154.1,117.2,36.1,434.0,2047.0,2.0,0,
166320,1853.0,31.3,117.2,35.4,434.0,2047.0,2.0,0,
166520,1859.7,24.2,117.2,35.3,434.0,2047.0,2.0,0,
166620,1859.0,24.2,117.2,35.6,434.0,2047.0,2.0,0,
166720,1859.4,25.7,117.2,243.4,434.0,2047.0,2.0,0,
166820,1861.2,25.4,117.3,259.1,434.0,2047.0,2.0,0,
166920,1858.6,24.9,117.3,252.1,434.0,2047.0,2.0,0,
167020,1861.9,21.8,117.3,268.3,434.0,2047.0,2.0,0,
167120,1858.8,25.7,117.3,254.8,434.0,2047.0,2.0,0,
167220,1858.5,22.7,117.3,236.7,434.0,2047.0,2.0,0,
167320,1854.6,138.9,116.5,70.3,644.0,5050.0,5.0,1,
167520,1877.9,206.1,120.5,35.7,644.0,5050.0,5.0,1,
167620,1869.1,105.7,121.9,66.0,749.0,4457.0,5.0,1,
167720,1818.3,119.7,120.0,67.0,769.0,5055.0,5.0,1,
167820,1889.3,130.3,107.2,67.0,779.0,4898.0,5.0,1,
167920,1852.3,29.3,101.2,68.4,779.0,4898.0,5.0,1,
168020,1861.1,27.5,101.2,70.3,779.0,4898.0,5.0,1,
168120,1859.2,27.1,101.2,70.0,779.0,4898.0,5.0,1,
168220,1859.4,24.9,101.3,70.2,779.0,4898.0,5.0,1,
168320,1861.0,26.5,101.3,142.5,779.0,4898.0,5.0,1,
168520,1860.5,25.0,101.3,234.7,779.0,4898.0,5.0,1,
168620,1858.3,26.1,101.3,199.9,779.0,4898.0,5.0,1,
168720,1858.5,24.1,101.4,85.2,779.0,4898.0,5.0,1,
168820,1859.6,22.0,101.4,73.4,779.0,4898.0,5.0,1,
168920,1882.3,140.0,101.3,75.2,738.0,5279.0,6.0,1,
169020,1862.2,127.2,100.8,46.5,691.0,4776.0,6.0,1,
169120,1823.3,148.1,95.5,57.5,931.0,5776.0,5.0,1,
169220,1897.7,247.3,112.5,65.7,807.0,3596.0,2.0,0,
169320,1851.8,283.7,132.5,35.5,1969.0,5650.0,2.0,0,
169520,1853.6,36.4,158.2,72.3,630.0,3468.0,5.0,1,
169620,1855.3,23.3,158.2,99.1,630.0,3468.0,5.0,1,
169720,1858.7,22.6,158.2,93.1,630.0,3468.0,5.0,1,
169820,1860.3,24.3,158.1,90.3,630.0,3468.0,5.0,1,
169920,1861.3,23.0,158.1,155.9,630.0,3468.0,5.0,1,
170020,1859.0,21.3,158.1,228.7,630.0,3468.0,5.0,1,
170120,1857.5,23.3,158.1,205.6,630.0,3468.0,5.0,1,
170220,1857.8,23.7,158.0,203.6,630.0,3468.0,5.0,1,
170320,1858.7,23.6,158.0,207.9,630.0,3468.0,5.0,1,
170520,1845.1,190.8,159.4,139.8,628.0,4672.0,7.0,1,
170620,1895.4,132.0,161.6,35.1,755.0,5174.0,5.0,1,
170720,1839.1,153.2,161.8,34.8,974.0,6266.0,5.0,1,
170820,1856.5,172.6,150.4,36.1,754.0,4505.0,5.0,1,
170920,1864.4,228.6,149.1,65.8,823.0,4213.0,2.0,0,
171020,1863.0,251.7,130.8,46.2,2007.0,5005.0,2.0,0,
171120,1849.2,48.5,139.6,43.2,2127.0,4726.0,2.0,0,
171220,1858.0,23.9,139.6,69.3,2127.0,4726.0,2.0,0,
171320,1859.5,24.1,139.6,93.7,2127.0,4726.0,2.0,0,
171520,1858.9,24.3,139.6,105.9,2127.0,4726.0,2.0,0,
171620,1857.7,24.7,139.6,246.9,2127.0,4726.0,2.0,0,
171720,1858.3,23.5,139.6,221.5,2127.0,4726.0,2.0,0,
171820,1858.9,24.3,139.6,208.9,2127.0,4726.0,2.0,0,
171920,1861.2,25.0,139.7,236.6,2127.0,4726.0,2.0,0,
172020,1860.0,24.6,139.6,262.4,2127.0,4726.0,2.0,0,
172120,1847.9,124.0,139.3,238.2,662.0,4811.0,7.0,1,
172220,1868.4,147.1,140.5,42.1,595.0,4113.0,6.0,1,
172320,1862.8,111.3,139.4,34.6,696.0,5003.0,5.0,1,
172520,1858.7,218.2,134.9,36.6,729.0,4595.0,5.0,1,
172620,1878.0,254.6,134.6,30.2,1152.0,3711.0,2.0,0,
172720,1853.2,72.2,126.6,34.6,570.0,2690.0,2.0,0,
172820,1859.0,26.9,126.6,35.1,570.0,2690.0,2.0,0,
172920,1858.7,25.6,126.7,35.8,570.0,2690.0,2.0,0,
173020,1857.4,25.5,126.7,36.4,570.0,2690.0,2.0,0,
173120,1860.0,23.8,126.7,40.4,570.0,2690.0,2.0,0,
173220,1860.5,23.2,126.7,175.8,570.0,2690.0,2.0,0,
173320,1858.1,22.9,126.7,220.8,570.0,2690.0,2.0,0,
173520,1859.5,22.9,126.6,250.5,570.0,2690.0,2.0,0,
173620,1860.5,23.9,126.6,251.5,570.0,2690.0,2.0,0,
173720,1846.2,113.9,127.2,206.7,636.0,5329.0,4.0,1,
173820,1856.4,120.7,126.1,65.6,693.0,4611.0,7.0,1,
173920,1871.4,237.6,130.4,35.5,851.0,5217.0,2.0,0,
174020,1876.3,265.6,145.8,35.6,1501.0,5033.0,2.0,0,
174120,1837.0,324.0,168.4,35.1,1799.0,5348.0,2.0,0,
174220,1852.8,274.3,172.1,47.7,853.0,4603.0,2.0,0,
174320,1873.4,116.6,171.1,164.2,321.0,2421.0,13.0,1,
174520,1858.3,24.0,171.1,35.3,321.0,2421.0,13.0,1,
174620,1860.2,22.5,171.0,34.2,321.0,2421.0,13.0,1,
174720,1862.2,24.7,171.0,34.8,321.0,2421.0,13.0,1,
174820,1861.4,24.9,171.0,234.1,321.0,2421.0,13.0,1,
174920,1860.8,23.9,171.0,263.3,321.0,2421.0,13.0,1,
175020,1859.0,24.7,171.0,234.7,321.0,2421.0,13.0,1,
175120,1857.6,23.3,171.0,211.8,321.0,2421.0,13.0,1,
175220,1858.9,24.3,171.1,220.3,321.0,2421.0,13.0,1,
175320,1873.1,89.8,171.1,200.9,661.0,5370.0,5.0,1,
175520,1833.5,112.8,169.7,35.1,742.0,5329.0,5.0,1,
175620,1867.7,277.9,168.2,35.4,971.0,5247.0,2.0,0,
175720,1874.6,243.5,160.9,35.4,1055.0,3744.0,2.0,0,
175820,1834.1,284.3,168.6,35.2,1494.0,5278.0,2.0,0,
175920,1874.3,164.9,166.1,94.5,456.0,2785.0,2.0,0,
176020,1850.9,31.9,165.7,163.1,456.0,2785.0,2.0,0,
176120,1860.3,24.9,165.7,67.2,456.0,2785.0,2.0,0,
176220,1859.3,22.9,165.7,35.1,456.0,2785.0,2.0,0,
176320,1859.0,22.0,165.7,30.2,456.0,2785.0,2.0,0,
176520,1861.1,25.1,165.7,210.9,456.0,2785.0,2.0,0,
176620,1858.9,23.0,165.7,227.8,456.0,2785.0,2.0,0,
176720,1859.2,26.1,165.7,239.6,456.0,2785.0,2.0,0,
176820,1858.3,28.3,165.7,228.5,456.0,2785.0,2.0,0,
176920,1860.9,74.6,165.7,244.5,456.0,2785.0,2.0,0,
177020,1871.2,122.1,166.0,56.6,726.0,5194.0,6.0,1,
177120,1864.3,133.1,166.3,36.8,771.0,5662.0,6.0,1,
177220,1836.0,186.1,158.9,43.6,860.0,5597.0,6.0,1,
177320,1877.0,249.5,156.0,65.8,976.0,4845.0,2.0,0,
177520,1866.1,145.2,155.8,35.5,1837.0,4627.0,2.0,0,
177620,1853.0,28.5,150.9,91.1,610.0,3833.0,6.0,1,
177720,1858.7,23.4,150.9,88.9,610.0,3833.0,6.0,1,
177820,1859.1,25.7,150.9,70.5,610.0,3833.0,6.0,1,
177920,1859.2,25.0,150.9,69.5,610.0,3833.0,6.0,1,
178020,1858.8,24.6,151.0,143.5,610.0,3833.0,6.0,1,
178120,1859.1,25.7,151.0,219.0,610.0,3833.0,6.0,1,
178220,1859.7,26.2,151.0,226.6,610.0,3833.0,6.0,1,
178320,1859.8,26.2,151.0,219.4,610.0,3833.0,6.0,1,
178520,1859.3,23.9,151.0,225.7,610.0,3833.0,6.0,1,
178620,1865.4,155.7,152.7,91.8,695.0,5060.0,6.0,1,
178720,1875.5,97.2,152.0,34.8,644.0,4774.0,6.0,1,
178820,1816.9,159.4,151.7,34.8,872.0,5981.0,5.0,1,
178920,1880.8,153.6,142.5,36.1,728.0,4612.0,5.0,1,
179020,1859.4,187.8,139.7,34.5,728.0,4612.0,5.0,1,
179120,1863.4,138.6,104.7,65.8,734.0,4243.0,5.0,1,
179220,1844.4,37.1,104.8,66.5,629.0,3988.0,5.0,1,
179320,1858.9,24.3,104.9,66.1,629.0,3988.0,5.0,1,
179520,1860.4,27.7,104.9,48.8,629.0,3988.0,5.0,1,
179620,1859.9,28.0,104.9,107.5,629.0,3988.0,5.0,1,
179720,1860.1,26.6,104.9,261.7,629.0,3988.0,5.0,1,
179820,1858.1,26.9,104.9,248.7,629.0,3988.0,5.0,1,
179920,1857.9,24.1,104.8,240.1,629.0,3988.0,5.0,1,
180020,1860.4,25.5,104.8,210.6,629.0,3988.0,5.0,1,
180120,1858.7,24.4,104.8,208.5,629.0,3988.0,5.0,1,
180220,1827.4,156.6,106.6,126.0,733.0,4966.0,7.0,1,
180320,1905.7,127.9,109.8,38.5,790.0,5715.0,6.0,1,
180520,1850.1,125.9,110.1,66.0,797.0,4744.0,5.0,1,
180620,1845.7,209.3,105.4,66.0,876.0,5240.0,2.0,0,
180720,1876.9,258.6,114.5,34.9,1044.0,3826.0,2.0,0,
180820,1857.4,60.6,127.5,34.9,404.0,2868.0,2.0,0,
180920,1857.3,26.5,127.4,35.1,404.0,2868.0,2.0,0,
181020,1859.7,25.9,127.4,35.2,404.0,2868.0,2.0,0,
181120,1859.7,25.1,127.4,35.3,404.0,2868.0,2.0,0,
181220,1859.5,23.7,127.4,38.0,404.0,2868.0,2.0,0,
181320,1858.3,26.4,127.4,234.4,404.0,2868.0,2.0,0,
181520,1860.9,25.6,127.4,270.0,404.0,2868.0,2.0,0,
181620,1859.2,28.1,127.4,264.8,404.0,2868.0,2.0,0,
181720,1860.5,25.3,127.5,266.4,404.0,2868.0,2.0,0,
181820,1857.0,143.9,127.4,169.9,717.0,5013.0,7.0,1,
181920,1847.9,107.3,122.4,36.9,623.0,4623.0,7.0,1,
182020,1862.5,147.7,126.7,35.6,864.0,5859.0,5.0,1,
182120,1869.8,121.6,125.5,56.4,786.0,4927.0,5.0,1,
182220,1840.7,140.3,123.7,66.2,914.0,5880.0,5.0,1,
182320,1871.4,239.4,127.8,56.3,807.0,3783.0,2.0,0,
182520,1857.8,29.1,119.4,34.9,807.0,3783.0,2.0,0,
182620,1858.6,26.7,119.4,34.6,807.0,3783.0,2.0,0,
182720,1859.7,24.1,119.4,34.3,807.0,3783.0,2.0,0,
182820,1859.2,25.5,119.4,35.7,807.0,3783.0,2.0,0,
182920,1860.1,25.3,119.4,211.3,807.0,3783.0,2.0,0,
183020,1862.0,24.4,119.4,248.3,807.0,3783.0,2.0,0,
183120,1861.5,25.5,119.4,246.3,807.0,3783.0,2.0,0,
183220,1859.4,26.6,119.5,233.6,807.0,3783.0,2.0,0,
183320,1859.9,24.1,119.4,218.8,807.0,3783.0,2.0,0,
183520,1844.8,114.2,119.6,36.0,697.0,4717.0,7.0,1,
183620,1857.5,186.2,120.4,35.0,780.0,5821.0,6.0,1,
183720,1877.6,262.0,141.4,35.9,808.0,4243.0,2.0,0,
183820,1856.7,285.5,153.2,35.8,2072.0,6626.0,2.0,0,
183920,1826.4,326.2,174.3,35.5,755.0,3863.0,2.0,0,
184020,1874.8,120.1,177.3,164.4,481.0,3152.0,2.0,0,
184120,1863.3,29.8,177.3,135.5,481.0,3152.0,2.0,0,
184220,1859.7,24.5,177.3,36.0,481.0,3152.0,2.0,0,
184320,1858.8,26.2,177.3,34.4,481.0,3152.0,2.0,0,
184520,1858.5,25.1,177.3,217.1,481.0,3152.0,2.0,0,
184620,1859.0,27.0,177.3,217.2,481.0,3152.0,2.0,0,
184720,1859.0,25.0,177.3,215.9,481.0,3152.0,2.0,0,
184820,1859.7,24.1,177.4,213.9,481.0,3152.0,2.0,0,
184920,1860.6,24.4,177.3,232.2,481.0,3152.0,2.0,0,
185020,1880.1,87.0,177.3,261.8,699.0,5803.0,6.0,1,
185120,1861.8,118.8,177.2,38.2,618.0,4693.0,6.0,1,
185220,1837.2,159.6,177.7,35.3,856.0,6083.0,5.0,1,
185320,1856.3,282.0,169.8,36.3,752.0,4285.0,2.0,0,
185520,1830.8,316.3,168.7,35.2,1534.0,4631.0,2.0,0,
185620,1872.2,184.5,171.2,37.9,342.0,2820.0,13.0,1,
185720,1851.4,32.6,170.7,130.5,342.0,2820.0,13.0,1,
185820,1859.4,24.7,170.7,66.3,342.0,2820.0,13.0,1,
185920,1859.6,24.7,170.7,35.2,342.0,2820.0,13.0,1,
186020,1859.7,25.5,170.7,34.4,342.0,2820.0,13.0,1,
186120,1859.2,27.3,170.7,156.7,342.0,2820.0,13.0,1,
186220,1859.0,25.1,170.7,232.8,342.0,2820.0,13.0,1,
186320,1857.7,22.7,170.7,217.2,342.0,2820.0,13.0,1,
186520,1859.3,27.7,170.7,217.2,342.0,2820.0,13.0,1,
186620,1858.6,62.9,170.7,213.0,342.0,2820.0,13.0,1,
186720,1869.2,117.7,170.5,49.8,691.0,5085.0,7.0,1,
186820,1875.0,123.1,169.7,35.7,731.0,5552.0,6.0,1,
186920,1833.6,166.5,165.7,36.9,724.0,4572.0,6.0,1,
187020,1883.4,209.2,160.1,56.7,724.0,4572.0,6.0,1,
187120,1855.0,161.6,142.7,65.9,858.0,5534.0,5.0,1,
187220,1846.7,124.1,109.8,66.8,688.0,4112.0,5.0,1,
187320,1850.5,33.2,101.4,66.6,740.0,4741.0,5.0,1,
187520,1857.7,25.0,101.4,45.6,740.0,4741.0,5.0,1,
187620,1860.1,25.2,101.4,53.9,740.0,4741.0,5.0,1,
187720,1858.4,25.0,101.3,134.1,740.0,4741.0,5.0,1,
187820,1857.9,25.5,101.3,176.0,740.0,4741.0,5.0,1,
187920,1861.4,28.0,101.4,202.3,740.0,4741.0,5.0,1,
188020,1860.0,27.3,101.5,217.0,740.0,4741.0,5.0,1,
188120,1860.3,24.0,101.5,233.6,740.0,4741.0,5.0,1,
188220,1858.8,26.9,101.5,267.7,740.0,4741.0,5.0,1,
188320,1868.4,147.9,104.8,91.1,704.0,4814.0,6.0,1,
188520,1825.8,159.9,105.4,34.9,827.0,5553.0,5.0,1,
188620,1882.2,255.8,102.9,36.1,836.0,5287.0,5.0,1,
188720,1862.1,248.0,120.8,30.2,1109.0,4559.0,2.0,0,
188820,1857.5,252.5,141.9,34.7,2056.0,4341.0,2.0,0,
188920,1845.8,42.3,148.2,35.1,2056.0,4341.0,2.0,0,
189020,1858.1,26.7,148.2,93.1,2056.0,4341.0,2.0,0,
189120,1860.5,27.2,148.2,101.3,2056.0,4341.0,2.0,0,
189220,1858.1,27.0,148.2,102.4,2056.0,4341.0,2.0,0,
189320,1860.4,25.8,148.2,116.4,2056.0,4341.0,2.0,0,
189520,1860.0,25.5,148.2,274.0,2056.0,4341.0,2.0,0,
189620,1859.7,26.0,148.2,239.7,2056.0,4341.0,2.0,0,
189720,1859.5,26.7,148.2,220.4,2056.0,4341.0,2.0,0,
189820,1860.2,30.3,148.2,218.0,2056.0,4341.0,2.0,0,
189920,1824.7,130.0,148.4,141.6,698.0,4795.0,7.0,1,
190020,1894.6,150.6,149.6,36.9,625.0,4535.0,7.0,1,
190120,1862.0,158.9,150.6,50.3,906.0,5868.0,5.0,1,
190220,1852.0,120.2,149.7,66.1,677.0,4532.0,5.0,1,
190320,1847.6,248.1,142.1,65.9,755.0,4768.0,2.0,0,
190520,1864.2,56.7,126.9,35.3,570.0,3527.0,2.0,0,
190620,1859.6,26.9,126.9,35.3,570.0,3527.0,2.0,0,
190720,1860.3,26.5,126.9,35.4,570.0,3527.0,2.0,0,
190820,1858.3,26.8,126.9,35.2,570.0,3527.0,2.0,0,
190920,1860.2,27.5,126.9,37.4,570.0,3527.0,2.0,0,
191020,1859.6,26.9,126.9,263.1,570.0,3527.0,2.0,0,
191120,1860.0,25.5,126.9,239.3,570.0,3527.0,2.0,0,
191220,1859.3,27.6,127.0,233.2,570.0,3527.0,2.0,0,
191320,1859.3,28.0,127.0,200.3,570.0,3527.0,2.0,0,
191520,1855.7,139.2,128.2,157.6,656.0,4665.0,7.0,1,
191620,1845.0,120.3,124.0,36.5,658.0,5036.0,5.0,1,
191720,1867.3,332.8,136.5,35.6,692.0,4574.0,2.0,0,
191820,1868.4,248.1,150.2,35.9,1216.0,3574.0,2.0,0,
191920,1841.5,296.0,175.0,35.4,2082.0,6138.0,2.0,0,
192020,1876.4,204.5,176.9,54.6,512.0,2723.0,2.0,0,
192120,1861.2,71.7,173.3,163.9,613.0,4041.0,2.0,0,
192220,1857.8,30.2,173.3,67.4,613.0,4041.0,2.0,0,
192320,1859.7,24.7,173.3,42.2,613.0,4041.0,2.0,0,
192520,1859.1,26.9,173.3,35.9,613.0,4041.0,2.0,0,
192620,1859.9,26.8,173.3,183.9,613.0,4041.0,2.0,0,
192720,1860.4,27.5,173.3,196.2,613.0,4041.0,2.0,0,
192820,1860.1,28.7,173.3,203.0,613.0,4041.0,2.0,0,
192920,1860.7,28.6,173.3,220.5,613.0,4041.0,2.0,0,
193020,1858.5,26.5,173.3,252.5,613.0,4041.0,2.0,0,
193120,1871.4,141.6,173.6,215.3,692.0,5667.0,7.0,1,
193220,1845.3,126.9,173.9,37.0,717.0,5293.0,5.0,1,
193320,1850.9,172.0,171.8,35.9,823.0,5615.0,5.0,1,
193520,1864.7,159.0,136.8,65.9,838.0,5576.0,5.0,1,
193620,1816.7,129.1,113.6,67.0,624.0,3727.0,5.0,1,
193720,1874.9,81.0,106.1,67.2,569.0,3545.0,5.0,1,
193820,1866.0,29.4,106.2,66.8,569.0,3545.0,5.0,1,
193920,1860.1,27.8,106.2,69.0,569.0,3545.0,5.0,1,
194020,1858.0,28.1,106.2,70.3,569.0,3545.0,5.0,1,
194120,1860.2,26.0,106.2,70.2,569.0,3545.0,5.0,1,
194220,1860.3,27.1,106.2,220.1,569.0,3545.0,5.0,1,
194320,1859.8,28.4,106.2,216.3,569.0,3545.0,5.0,1,
194520,1860.3,25.9,106.2,226.3,569.0,3545.0,5.0,1,
194620,1861.5,26.8,106.3,243.7,569.0,3545.0,5.0,1,
194720,1884.9,84.4,106.3,249.9,710.0,5735.0,7.0,1,
194820,1856.9,99.5,105.2,56.2,620.0,4515.0,7.0,1,
194920,1846.3,143.1,102.9,37.3,835.0,5702.0,6.0,1,
195020,1842.9,142.4,96.8,41.8,459.0,3156.0,6.0,1,
195120,1887.3,113.5,91.1,65.7,379.0,2966.0,6.0,1,
195220,1843.7,119.1,88.1,67.1,737.0,4404.0,5.0,1,
195320,1859.8,110.7,87.3,72.0,762.0,4456.0,4.0,1,
195520,1858.2,24.4,86.6,71.8,762.0,4456.0,4.0,1,
195620,1858.9,23.7,86.6,72.8,762.0,4456.0,4.0,1,
195720,1859.5,25.1,86.6,72.8,762.0,4456.0,4.0,1,
195820,1859.2,27.5,86.6,229.9,762.0,4456.0,4.0,1,
195920,1859.6,26.3,86.6,260.8,762.0,4456.0,4.0,1,
196020,1859.3,27.4,86.5,250.2,762.0,4456.0,4.0,1,
196120,1860.5,27.9,86.6,233.9,762.0,4456.0,4.0,1,
196220,1858.2,26.7,86.5,232.4,762.0,4456.0,4.0,1,
196320,1859.7,37.6,86.5,234.1,762.0,4456.0,4.0,1,
196520,1884.8,167.9,89.6,38.8,897.0,6494.0,6.0,1,
196620,1826.1,181.4,93.4,44.8,786.0,5164.0,5.0,1,
196720,1881.1,226.6,105.5,38.3,786.0,5164.0,5.0,1,
196820,1857.1,149.6,112.0,65.7,798.0,4979.0,5.0,1,
196920,1837.7,131.8,113.0,66.6,606.0,4237.0,5.0,1,
197020,1859.6,34.9,109.7,66.5,664.0,4710.0,5.0,1,
197120,1860.1,28.3,109.8,51.0,664.0,4710.0,5.0,1,
197220,1860.0,25.2,109.8,39.9,664.0,4710.0,5.0,1,
197320,1858.8,26.7,109.9,43.7,664.0,4710.0,5.0,1,
197520,1860.2,25.4,109.9,205.7,664.0,4710.0,5.0,1,
197620,1859.9,26.9,109.9,189.4,664.0,4710.0,5.0,1,
197720,1858.7,26.4,109.9,196.5,664.0,4710.0,5.0,1,
197820,1858.8,25.7,109.8,188.6,664.0,4710.0,5.0,1,
197920,1859.8,26.6,109.8,237.9,664.0,4710.0,5.0,1,
198020,1853.2,132.8,110.5,79.9,720.0,4778.0,7.0,1,
198120,1884.3,146.0,111.3,37.7,858.0,6558.0,4.0,1,
198220,1848.3,152.8,109.9,39.8,786.0,5179.0,5.0,1,
198320,1853.8,204.1,103.1,65.9,809.0,5427.0,5.0,1,
198520,1869.2,286.7,127.7,34.8,1985.0,5040.0,2.0,0,
198620,1849.5,49.5,137.9,35.4,608.0,3707.0,2.0,0,
198720,1857.0,26.3,137.9,66.9,608.0,3707.0,2.0,0,
198820,1859.4,26.8,137.9,65.6,608.0,3707.0,2.0,0,
198920,1860.2,27.2,137.9,40.3,608.0,3707.0,2.0,0,
199020,1860.9,26.9,137.9,75.3,608.0,3707.0,2.0,0,
199120,1859.1,25.6,137.9,242.9,608.0,3707.0,2.0,0,
199220,1859.9,24.2,137.9,229.2,608.0,3707.0,2.0,0,
199320,1859.5,26.8,137.9,229.8,608.0,3707.0,2.0,0,
199520,1858.8,29.6,137.9,241.5,608.0,3707.0,2.0,0,
199620,1830.9,137.1,138.9,106.5,659.0,4575.0,7.0,1,
199720,1893.9,158.8,139.4,41.2,785.0,6158.0,4.0,1,
199820,1864.5,150.6,141.5,41.5,799.0,4923.0,5.0,1,
199920,1846.7,135.0,141.1,65.7,791.0,5145.0,5.0,1,
200020,1854.1,176.5,132.6,65.6,739.0,4975.0,5.0,1,
200120,1863.1,272.2,134.2,65.5,689.0,3438.0,13.0,1,
200220,1867.5,50.8,124.9,35.1,708.0,4224.0,2.0,0,
200320,1858.5,26.3,124.9,35.0,708.0,4224.0,2.0,0,
200520,1860.1,24.6,124.9,35.6,708.0,4224.0,2.0,0,
200620,1857.2,24.4,124.9,57.1,708.0,4224.0,2.0,0,
200720,1859.1,25.3,124.9,219.7,708.0,4224.0,2.0,0,
200820,1859.1,25.4,124.9,189.1,708.0,4224.0,2.0,0,
200920,1860.1,26.0,124.9,216.8,708.0,4224.0,2.0,0,
201020,1858.7,26.1,124.9,243.3,708.0,4224.0,2.0,0,
201120,1859.3,25.5,124.9,261.1,708.0,4224.0,2.0,0,
201220,1856.3,124.1,124.0,229.7,651.0,4350.0,7.0,1,
201320,1843.8,194.5,122.4,65.5,724.0,5594.0,6.0,1,
201520,1854.3,121.8,122.2,66.0,855.0,5497.0,5.0,1,
201620,1850.0,147.4,121.8,66.2,692.0,4525.0,6.0,1,
201720,1863.4,253.5,124.0,66.0,666.0,3219.0,28.0,0,
201820,1863.8,87.7,125.2,35.2,560.0,3650.0,2.0,0,
201920,1859.2,26.9,125.1,34.9,560.0,3650.0,2.0,0,
202020,1859.3,25.6,125.1,34.7,560.0,3650.0,2.0,0,
202120,1858.7,23.5,125.1,34.4,560.0,3650.0,2.0,0,
202220,1859.9,25.0,125.1,34.6,560.0,3650.0,2.0,0,
202320,1860.5,25.6,125.2,219.7,560.0,3650.0,2.0,0,
202520,1861.5,26.8,125.1,201.5,560.0,3650.0,2.0,0,
202620,1860.0,26.1,125.2,236.4,560.0,3650.0,2.0,0,
202720,1858.4,25.2,125.2,235.3,560.0,3650.0,2.0,0,
202820,1870.2,123.2,125.3,198.1,647.0,5363.0,7.0,1,
202920,1827.5,119.7,124.9,65.6,677.0,5158.0,7.0,1,
203020,1874.2,153.5,121.7,56.9,806.0,5142.0,5.0,1,
203120,1869.0,198.7,133.5,65.5,1024.0,4934.0,2.0,0,
203220,1862.2,301.0,147.0,35.5,2214.0,6261.0,2.0,0,
203320,1829.8,159.5,155.9,35.9,694.0,4126.0,5.0,1,
203520,1863.2,25.5,145.4,76.2,694.0,4126.0,5.0,1,
203620,1860.2,26.1,145.4,69.1,694.0,4126.0,5.0,1,
203720,1860.6,23.9,145.4,70.8,694.0,4126.0,5.0,1,
203820,1859.9,23.9,145.4,72.3,694.0,4126.0,5.0,1,
203920,1860.6,26.9,145.4,212.4,694.0,4126.0,5.0,1,
204020,1859.7,25.0,145.4,242.6,694.0,4126.0,5.0,1,
204120,1860.3,23.7,145.4,246.0,694.0,4126.0,5.0,1,
204220,1859.3,24.6,145.3,239.6,694.0,4126.0,5.0,1,
204320,1860.5,25.7,145.4,246.3,694.0,4126.0,5.0,1,
204520,1863.0,118.4,145.2,51.2,590.0,4789.0,6.0,1,
204620,1849.3,175.9,145.5,38.0,746.0,5561.0,6.0,1,
204720,1845.4,179.7,138.2,56.8,852.0,5412.0,6.0,1,
204820,1890.6,170.8,136.3,44.9,852.0,5412.0,6.0,1,
204920,1834.7,129.8,110.8,66.5,627.0,4020.0,5.0,1,
205020,1870.8,172.9,113.4,66.9,416.0,3750.0,13.0,1,
205120,1850.8,31.2,113.0,66.0,416.0,3750.0,13.0,1,
205220,1859.0,26.8,113.0,35.6,416.0,3750.0,13.0,1,
205320,1858.0,22.9,112.9,35.2,416.0,3750.0,13.0,1,
205520,1861.1,24.7,113.0,122.3,416.0,3750.0,13.0,1,
205620,1861.8,26.5,113.0,227.0,416.0,3750.0,13.0,1,
205720,1860.8,25.6,113.0,221.4,416.0,3750.0,13.0,1,
205820,1860.6,24.7,113.1,239.0,416.0,3750.0,13.0,1,
205920,1859.4,22.7,113.1,244.8,416.0,3750.0,13.0,1,
206020,1860.7,160.0,113.0,235.1,416.0,3750.0,13.0,1,
206120,1866.2,104.1,118.6,37.7,646.0,4656.0,6.0,1,
206220,1883.5,148.0,119.0,36.9,776.0,5953.0,5.0,1,
206320,1830.2,144.9,116.5,38.9,774.0,4911.0,5.0,1,
206520,1862.9,263.6,126.8,34.9,1763.0,4884.0,2.0,0,
206620,1834.3,163.5,153.2,34.9,1823.0,4678.0,13.0,1,
206720,1866.6,34.2,147.1,68.2,666.0,4684.0,4.0,1,
206820,1857.8,25.3,147.1,92.9,666.0,4684.0,4.0,1,
206920,1861.7,26.0,147.1,89.7,666.0,4684.0,4.0,1,
207020,1859.8,24.0,147.1,83.2,666.0,4684.0,4.0,1,
207120,1860.3,24.9,147.1,169.3,666.0,4684.0,4.0,1,
207220,1859.8,25.5,147.1,215.5,666.0,4684.0,4.0,1,
207320,1861.0,26.2,147.1,183.1,666.0,4684.0,4.0,1,
207520,1860.7,23.3,147.1,231.9,666.0,4684.0,4.0,1,
207620,1861.4,25.9,147.1,199.9,666.0,4684.0,4.0,1,
207720,1866.6,159.1,146.2,77.2,640.0,4769.0,6.0,1,
207820,1883.2,182.9,147.3,37.7,1017.0,6888.0,5.0,1,
207920,1842.7,139.6,148.5,37.8,831.0,5223.0,5.0,1,
208020,1850.1,173.4,142.1,47.1,901.0,5557.0,5.0,1,
208120,1874.3,228.2,138.8,35.0,996.0,4569.0,2.0,0,
208220,1860.5,284.9,132.4,34.8,2097.0,5520.0,2.0,0,
208320,1851.4,47.8,142.7,35.6,652.0,4206.0,2.0,0,
208520,1861.0,26.3,142.7,70.4,652.0,4206.0,2.0,0,
208620,1861.6,25.5,142.7,43.8,652.0,4206.0,2.0,0,
208720,1859.7,25.9,142.7,75.2,652.0,4206.0,2.0,0,
208820,1861.9,24.3,142.7,238.7,652.0,4206.0,2.0,0,
208920,1861.8,22.8,142.7,259.0,652.0,4206.0,2.0,0,
209020,1859.9,24.9,142.7,251.4,652.0,4206.0,2.0,0,
209120,1861.8,26.5,142.7,231.7,652.0,4206.0,2.0,0,
209220,1860.7,23.8,142.7,245.4,652.0,4206.0,2.0,0,
209320,1844.5,115.8,143.5,167.1,602.0,4176.0,7.0,1,
209520,1869.6,140.5,137.8,54.6,751.0,4899.0,5.0,1,
209620,1841.0,139.3,137.6,65.8,878.0,5847.0,5.0,1,
209720,1867.8,232.2,134.5,65.7,862.0,3794.0,2.0,0,
209820,1855.5,279.6,135.1,37.2,1204.0,4180.0,2.0,0,
209920,1865.6,64.8,130.7,35.1,646.0,3887.0,2.0,0,
210020,1857.3,26.5,130.7,35.3,646.0,3887.0,2.0,0,
210120,1860.4,24.3,130.7,36.0,646.0,3887.0,2.0,0,
210220,1860.3,23.6,130.6,37.1,646.0,3887.0,2.0,0,
210320,1861.4,26.0,130.6,40.5,646.0,3887.0,2.0,0,
210520,1861.3,25.3,130.6,240.4,646.0,3887.0,2.0,0,
210620,1860.4,26.1,130.6,261.0,646.0,3887.0,2.0,0,
210720,1859.5,23.5,130.6,246.9,646.0,3887.0,2.0,0,
210820,1860.3,24.7,130.6,237.2,646.0,3887.0,2.0,0,
210920,1857.6,119.0,130.8,174.7,641.0,4329.0,7.0,1,
211020,1851.5,173.8,133.2,56.1,763.0,5921.0,5.0,1,
211120,1880.0,156.9,133.2,43.9,758.0,5123.0,5.0,1,
211220,1839.6,126.4,133.2,57.3,836.0,5357.0,5.0,1,
211320,1870.0,227.4,135.0,65.5,815.0,5119.0,5.0,1,
211520,1861.0,65.3,115.1,35.8,682.0,4654.0,5.0,1,
211620,1860.6,25.4,115.1,36.6,682.0,4654.0,5.0,1,
211720,1859.7,26.0,115.1,39.3,682.0,4654.0,5.0,1,
211820,1860.8,27.2,115.1,41.8,682.0,4654.0,5.0,1,
211920,1859.7,26.5,115.1,51.5,682.0,4654.0,5.0,1,
212020,1860.4,26.1,115.1,240.3,682.0,4654.0,5.0,1,
212120,1863.1,26.9,115.1,241.8,682.0,4654.0,5.0,1,
212220,1861.7,25.7,115.2,234.2,682.0,4654.0,5.0,1,
212320,1859.9,28.5,115.2,228.0,682.0,4654.0,5.0,1,
212520,1870.3,112.8,115.2,216.8,582.0,4485.0,7.0,1,
212620,1812.0,120.1,115.0,66.1,632.0,5038.0,6.0,1,
212720,1894.7,129.4,110.6,65.5,609.0,4164.0,5.0,1,
212820,1865.0,132.3,109.4,65.7,766.0,5292.0,5.0,1,
212920,1852.3,165.5,110.9,65.7,752.0,5010.0,5.0,1,
213020,1851.2,149.3,90.8,66.2,657.0,3920.0,6.0,1,
213120,1870.8,82.7,89.5,66.5,754.0,4865.0,4.0,1,
213220,1867.7,27.3,89.5,72.9,754.0,4865.0,4.0,1,
213320,1859.7,26.3,89.5,71.2,754.0,4865.0,4.0,1,
213520,1861.5,25.7,89.6,54.5,754.0,4865.0,4.0,1,
213620,1862.9,27.5,89.6,175.6,754.0,4865.0,4.0,1,
213720,1859.3,24.0,89.5,200.1,754.0,4865.0,4.0,1,
213820,1858.5,25.9,89.4,217.8,754.0,4865.0,4.0,1,
213920,1861.5,25.8,89.4,230.4,754.0,4865.0,4.0,1,
214020,1860.8,24.6,89.4,234.8,754.0,4865.0,4.0,1,
214120,1881.5,59.2,89.4,250.8,619.0,4709.0,6.0,1,
214220,1842.5,117.6,89.8,66.8,673.0,5329.0,6.0,1,
214320,1852.5,151.3,90.6,51.1,678.0,4590.0,6.0,1,
214520,1871.8,258.1,123.1,35.4,1941.0,6212.0,2.0,0,
214620,1833.8,139.9,134.0,34.6,537.0,3599.0,5.0,1,
214720,1883.0,184.5,142.6,48.5,411.0,3623.0,2.0,0,
214820,1854.4,32.9,142.4,74.5,411.0,3623.0,2.0,0,
214920,1859.4,23.9,142.4,66.0,411.0,3623.0,2.0,0,
215020,1858.7,23.5,142.4,35.8,411.0,3623.0,2.0,0,
215120,1862.0,25.5,142.3,30.0,411.0,3623.0,2.0,0,
215220,1861.0,26.4,142.3,89.0,411.0,3623.0,2.0,0,
215320,1859.1,26.9,142.3,235.4,411.0,3623.0,2.0,0,
215520,1860.6,29.1,142.4,169.9,411.0,3623.0,2.0,0,
215620,1860.5,23.5,142.4,102.3,411.0,3623.0,2.0,0,
215720,1858.3,24.9,142.4,101.9,411.0,3623.0,2.0,0,
215820,1860.7,185.9,145.3,65.5,706.0,5549.0,4.0,1,
215920,1866.0,203.9,150.8,40.4,739.0,5453.0,4.0,1,
216020,1856.0,179.4,151.0,65.4,595.0,4335.0,6.0,1,
216120,1887.3,192.6,142.8,65.9,688.0,4769.0,4.0,1,
216220,1856.4,156.7,125.8,67.2,567.0,3594.0,5.0,1,
216320,1840.6,164.5,124.8,69.8,672.0,4528.0,5.0,1,
216520,1857.7,25.6,117.4,66.5,672.0,4528.0,5.0,1,
216620,1860.6,26.2,117.4,66.8,672.0,4528.0,5.0,1,
216720,1859.5,25.5,117.4,67.1,672.0,4528.0,5.0,1,
216820,1863.7,26.9,117.4,124.7,672.0,4528.0,5.0,1,
216920,1861.1,27.3,117.5,217.8,672.0,4528.0,5.0,1,
217020,1861.1,25.7,117.4,218.9,672.0,4528.0,5.0,1,
217120,1859.0,25.3,117.4,215.4,672.0,4528.0,5.0,1,
217220,1860.4,26.5,117.3,232.1,672.0,4528.0,5.0,1,
217320,1858.7,24.8,117.3,250.0,672.0,4528.0,5.0,1,
217520,1882.9,224.1,121.0,39.1,784.0,5618.0,5.0,1,
217620,1837.1,193.4,120.5,42.6,604.0,4633.0,5.0,1,
217720,1856.4,189.5,120.6,65.9,641.0,4965.0,5.0,1,
217820,1877.2,163.6,124.4,66.3,540.0,3737.0,5.0,1,
217920,1848.3,155.3,123.7,68.7,634.0,4525.0,5.0,1,
218020,1854.8,40.6,122.5,72.7,633.0,4294.0,5.0,1,
218120,1860.3,27.6,122.6,66.7,633.0,4294.0,5.0,1,
218220,1858.9,25.5,122.5,37.9,633.0,4294.0,5.0,1,
218320,1858.1,24.1,122.6,39.0,633.0,4294.0,5.0,1,
218520,1860.4,24.6,122.5,218.6,633.0,4294.0,5.0,1,
218620,1859.6,25.0,122.4,251.8,633.0,4294.0,5.0,1,
218720,1861.2,24.1,122.4,251.1,633.0,4294.0,5.0,1,
218820,1860.7,25.8,122.4,250.9,633.0,4294.0,5.0,1,
218920,1861.0,25.3,122.5,238.9,633.0,4294.0,5.0,1,
219020,1845.7,201.6,123.9,77.1,582.0,4507.0,7.0,1,
219120,1870.1,246.7,130.5,39.0,824.0,6642.0,5.0,1,
219220,1870.4,199.9,133.3,51.6,570.0,4130.0,5.0,1,
219320,1839.5,216.4,132.2,65.9,725.0,5396.0,5.0,1,
219520,1853.7,162.6,132.3,65.9,589.0,4454.0,4.0,1,
219620,1861.8,56.6,132.9,67.0,617.0,4305.0,5.0,1,
219720,1858.9,26.4,132.8,67.2,617.0,4305.0,5.0,1,
219820,1859.9,21.4,132.9,44.5,617.0,4305.0,5.0,1,
219920,1860.6,24.6,132.8,37.4,617.0,4305.0,5.0,1,
220020,1858.7,22.9,132.8,44.6,617.0,4305.0,5.0,1,
220120,1859.9,23.3,132.8,245.8,617.0,4305.0,5.0,1,
220220,1860.3,25.3,132.8,251.3,617.0,4305.0,5.0,1,
220320,1861.2,25.7,132.8,269.1,617.0,4305.0,5.0,1,
220520,1860.6,24.9,132.8,214.7,617.0,4305.0,5.0,1,
220620,1855.1,175.9,133.3,137.5,534.0,4207.0,21.0,1,
220720,1851.1,254.2,131.0,38.3,753.0,6241.0,5.0,1,
220820,1887.2,193.6,129.2,37.3,597.0,4788.0,5.0,1,
220920,1838.0,180.0,127.9,54.0,748.0,5442.0,5.0,1,
221020,1865.4,163.1,125.3,66.0,634.0,4638.0,6.0,1,
221120,1864.3,142.2,126.4,65.9,692.0,4182.0,6.0,1,
221220,1866.1,64.6,124.5,65.9,569.0,3963.0,5.0,1,
221320,1862.2,23.5,124.5,67.1,569.0,3963.0,5.0,1,
221520,1860.3,25.4,124.5,38.0,569.0,3963.0,5.0,1,
221620,1861.9,23.6,124.5,40.5,569.0,3963.0,5.0,1,
221720,1859.8,25.9,124.5,219.5,569.0,3963.0,5.0,1,
221820,1862.1,27.1,124.6,265.8,569.0,3963.0,5.0,1,
221920,1861.7,25.3,124.6,251.5,569.0,3963.0,5.0,1,
222020,1860.7,26.3,124.6,263.2,569.0,3963.0,5.0,1,
222120,1859.9,24.4,124.6,271.3,569.0,3963.0,5.0,1,
222220,1879.9,175.0,125.1,214.0,634.0,4872.0,4.0,1,
222320,1804.9,251.3,126.6,37.8,820.0,6594.0,6.0,1,
222520,1865.4,183.7,126.3,36.1,656.0,5167.0,5.0,1,
222620,1860.4,194.5,127.1,65.8,560.0,3800.0,5.0,1,
222720,1845.4,158.3,126.3,67.3,557.0,3996.0,5.0,1,
222820,1867.0,104.9,129.1,66.2,647.0,4608.0,5.0,1,
222920,1867.9,29.7,129.0,67.2,647.0,4608.0,5.0,1,
223020,1858.4,24.4,129.1,67.3,647.0,4608.0,5.0,1,
223120,1859.5,24.3,129.1,65.8,647.0,4608.0,5.0,1,
223220,1859.9,27.0,129.0,43.4,647.0,4608.0,5.0,1,
223320,1859.4,25.5,129.0,261.7,647.0,4608.0,5.0,1,
223520,1860.6,24.7,129.0,242.9,647.0,4608.0,5.0,1,
223620,1860.2,26.3,129.0,238.7,647.0,4608.0,5.0,1,
223720,1859.8,25.5,129.0,237.6,647.0,4608.0,5.0,1,
223820,1879.6,73.8,129.0,252.1,643.0,5061.0,5.0,1,
223920,1842.1,263.8,130.7,40.2,873.0,6826.0,5.0,1,
224020,1860.5,244.2,136.4,36.9,705.0,4964.0,6.0,1,
224120,1858.2,203.1,138.8,36.0,673.0,4848.0,5.0,1,
224220,1868.4,192.6,141.5,45.2,662.0,4725.0,5.0,1,
224320,1835.1,167.4,140.5,66.5,648.0,4466.0,5.0,1,
224520,1856.7,31.5,141.4,66.7,648.0,4466.0,5.0,1,
224620,1860.2,24.4,141.4,67.9,648.0,4466.0,5.0,1,
224720,1860.0,23.2,141.3,68.1,648.0,4466.0,5.0,1,
224820,1861.1,27.5,141.4,67.6,648.0,4466.0,5.0,1,
224920,1861.1,22.3,141.4,203.5,648.0,4466.0,5.0,1,
225020,1859.8,27.5,141.4,247.7,648.0,4466.0,5.0,1,
225120,1859.8,24.2,141.4,220.5,648.0,4466.0,5.0,1,
225220,1863.4,25.0,141.4,220.4,648.0,4466.0,5.0,1,
225320,1862.8,28.0,141.5,231.1,648.0,4466.0,5.0,1,
225520,1875.7,246.5,142.3,39.8,756.0,5972.0,6.0,1,
225620,1852.7,225.0,138.8,36.3,738.0,5295.0,5.0,1,
225720,1849.4,189.4,136.3,36.1,598.0,4344.0,5.0,1,
225820,1883.0,209.3,135.9,41.0,633.0,4393.0,5.0,1,
225920,1864.8,159.0,134.6,66.5,495.0,3620.0,5.0,1,
226020,1820.0,192.3,133.4,66.9,654.0,4759.0,5.0,1,
226120,1872.0,34.8,132.1,65.9,606.0,4048.0,5.0,1,
226220,1860.0,24.0,132.1,36.7,606.0,4048.0,5.0,1,
226320,1860.7,23.6,132.1,35.8,606.0,4048.0,5.0,1,
226520,1860.1,26.6,132.1,152.3,606.0,4048.0,5.0,1,
226620,1860.3,24.5,132.1,247.1,606.0,4048.0,5.0,1,
226720,1859.2,25.2,132.1,248.0,606.0,4048.0,5.0,1,
226820,1860.6,23.3,132.1,239.8,606.0,4048.0,5.0,1,
226920,1858.0,25.3,131.9,253.0,606.0,4048.0,5.0,1,
227020,1859.6,25.0,131.9,240.6,606.0,4048.0,5.0,1,
227120,1866.7,218.8,133.7,55.8,792.0,6449.0,4.0,1,
227220,1885.1,247.8,133.9,36.9,683.0,5147.0,5.0,1,
227320,1853.2,185.1,132.9,36.0,606.0,4645.0,5.0,1,
227520,1884.2,160.8,134.3,66.0,699.0,4766.0,5.0,1,
227620,1853.5,185.8,135.1,66.2,716.0,4952.0,5.0,1,
227720,1853.4,43.5,134.7,67.1,672.0,4286.0,5.0,1,
227820,1859.0,25.0,134.7,66.6,672.0,4286.0,5.0,1,
227920,1860.3,20.7,134.7,37.8,672.0,4286.0,5.0,1,
228020,1857.2,23.0,134.6,38.2,672.0,4286.0,5.0,1,
228120,1859.8,25.3,134.6,68.9,672.0,4286.0,5.0,1,
228220,1862.5,26.5,134.7,241.4,672.0,4286.0,5.0,1,
228320,1861.4,24.3,134.7,220.9,672.0,4286.0,5.0,1,
228520,1860.4,24.0,134.7,214.8,672.0,4286.0,5.0,1,
228620,1861.5,26.8,134.7,221.4,672.0,4286.0,5.0,1,
228720,1858.9,222.7,133.5,74.4,656.0,5026.0,20.0,1,
228820,1846.1,258.7,135.2,36.5,819.0,6004.0,6.0,1,
228920,1884.1,184.9,134.5,35.8,666.0,5027.0,5.0,1,
229020,1849.4,224.3,134.4,35.9,774.0,5362.0,5.0,1,
229120,1862.9,174.9,135.0,66.0,548.0,3731.0,5.0,1,
229220,1866.7,187.2,136.4,66.1,679.0,4969.0,4.0,1,
229320,1864.4,57.3,136.0,66.3,628.0,4199.0,5.0,1,
229520,1859.8,24.4,136.0,47.1,628.0,4199.0,5.0,1,
229620,1860.6,24.4,136.1,39.8,628.0,4199.0,5.0,1,
229720,1860.7,24.8,136.1,55.6,628.0,4199.0,5.0,1,
229820,1863.4,24.9,136.1,202.2,628.0,4199.0,5.0,1,
229920,1863.1,23.3,136.1,201.8,628.0,4199.0,5.0,1,
230020,1859.9,24.0,136.1,166.2,628.0,4199.0,5.0,1,
230120,1860.6,24.0,136.2,227.4,628.0,4199.0,5.0,1,
230220,1860.8,23.9,136.1,250.9,628.0,4199.0,5.0,1,
230320,1869.1,233.0,139.1,112.9,760.0,5036.0,19.0,1,
230520,1861.6,224.7,144.4,35.7,701.0,5687.0,6.0,1,
230620,1854.0,209.5,147.5,35.8,776.0,5706.0,5.0,1,
230720,1861.0,188.0,146.3,65.8,649.0,4684.0,5.0,1,
230820,1843.4,189.3,147.6,66.6,639.0,5224.0,5.0,1,
230920,1874.2,76.1,149.2,65.5,639.0,5224.0,5.0,1,
231020,1860.9,25.9,149.2,66.9,639.0,5224.0,5.0,1,
231120,1860.9,23.7,149.2,68.1,639.0,5224.0,5.0,1,
231220,1858.9,22.8,149.2,68.3,639.0,5224.0,5.0,1,
231320,1857.9,22.7,149.2,69.0,639.0,5224.0,5.0,1,
231520,1860.4,23.2,149.1,215.0,639.0,5224.0,5.0,1,
231620,1860.5,24.2,149.1,220.8,639.0,5224.0,5.0,1,
231720,1861.2,24.5,149.1,246.6,639.0,5224.0,5.0,1,
231820,1861.4,24.9,149.1,246.0,639.0,5224.0,5.0,1,
231920,1890.2,211.0,149.9,208.3,806.0,5558.0,19.0,1,
232020,1825.8,281.2,150.4,36.5,889.0,7264.0,6.0,1,
232120,1867.6,212.6,146.8,35.9,684.0,5197.0,6.0,1,
232220,1864.7,216.6,148.5,36.1,707.0,5339.0,6.0,1,
232320,1884.3,182.7,149.2,66.0,681.0,4597.0,5.0,1,
232520,1853.0,105.4,145.3,67.1,690.0,4691.0,5.0,1,
232620,1863.9,27.4,145.1,66.8,690.0,4691.0,5.0,1,
232720,1859.1,25.6,145.0,66.6,690.0,4691.0,5.0,1,
232820,1861.0,24.2,145.1,66.7,690.0,4691.0,5.0,1,
232920,1858.6,24.0,145.1,67.2,690.0,4691.0,5.0,1,
233020,1860.8,25.7,145.1,228.7,690.0,4691.0,5.0,1,
233120,1861.1,23.7,145.1,247.9,690.0,4691.0,5.0,1,
233220,1859.4,22.8,145.1,269.5,690.0,4691.0,5.0,1,
233320,1861.5,23.0,145.1,249.7,690.0,4691.0,5.0,1,
233520,1875.0,130.2,145.0,236.8,690.0,4691.0,5.0,1,
233620,1865.2,266.5,146.0,41.7,852.0,6948.0,6.0,1,
233720,1873.9,205.0,145.1,39.5,696.0,5218.0,6.0,1,
233820,1829.8,227.9,142.0,50.1,824.0,6158.0,5.0,1,
233920,1875.2,273.6,151.5,65.9,814.0,4497.0,2.0,0,
234020,1855.1,338.9,170.9,35.8,1780.0,5783.0,13.0,1,
234120,1851.3,192.8,188.0,35.3,654.0,4456.0,5.0,1,
234220,1853.7,31.6,187.9,66.8,654.0,4456.0,5.0,1,
234320,1858.3,24.6,187.9,69.7,654.0,4456.0,5.0,1,
234520,1860.2,24.9,187.9,66.0,654.0,4456.0,5.0,1,
234620,1861.0,25.3,187.9,150.3,654.0,4456.0,5.0,1,
234720,1859.5,25.2,187.9,214.3,654.0,4456.0,5.0,1,
234820,1864.5,24.1,187.9,221.1,654.0,4456.0,5.0,1,
234920,1860.5,24.8,187.9,209.8,654.0,4456.0,5.0,1,
235020,1859.9,27.6,187.9,208.9,654.0,4456.0,5.0,1,
235120,1861.2,28.5,187.9,201.9,654.0,4456.0,5.0,1,
235220,1859.1,298.3,191.1,36.0,942.0,7571.0,5.0,1,
235320,1877.6,222.4,190.7,34.7,756.0,5678.0,5.0,1,
235520,1868.3,273.3,190.4,65.6,492.0,4389.0,13.0,1,
235620,1873.8,184.4,179.5,65.6,721.0,5577.0,5.0,1,
235720,1824.4,192.1,154.0,39.4,664.0,4435.0,5.0,1,
235820,1870.7,36.7,152.9,52.8,630.0,3766.0,5.0,1,
235920,1857.6,26.0,152.9,52.1,630.0,3766.0,5.0,1,
236020,1859.9,25.8,153.0,37.6,630.0,3766.0,5.0,1,
236120,1860.4,24.9,153.0,40.4,630.0,3766.0,5.0,1,
236220,1861.6,25.7,153.0,134.3,630.0,3766.0,5.0,1,
236320,1861.5,23.9,153.0,229.5,630.0,3766.0,5.0,1,
236520,1861.0,25.5,153.0,241.0,630.0,3766.0,5.0,1,
236620,1860.5,25.1,152.9,275.6,630.0,3766.0,5.0,1,
236720,1860.9,23.4,152.9,277.1,630.0,3766.0,5.0,1,
236820,1840.6,261.9,151.5,41.4,827.0,6502.0,7.0,1,
236920,1887.0,210.0,148.5,36.2,716.0,5455.0,5.0,1,
237020,1868.2,166.0,144.9,43.1,764.0,5843.0,5.0,1,
237120,1818.9,193.5,141.2,65.9,707.0,4428.0,5.0,1,
237220,1888.0,184.0,133.8,66.5,695.0,4694.0,5.0,1,
237320,1866.0,177.0,135.1,67.0,671.0,4280.0,5.0,1,
237520,1859.1,25.9,134.3,67.0,671.0,4280.0,5.0,1,
237620,1861.0,25.0,134.3,54.4,671.0,4280.0,5.0,1,
237720,1858.6,25.6,134.2,44.2,671.0,4280.0,5.0,1,
237820,1859.9,25.2,134.2,71.6,671.0,4280.0,5.0,1,
237920,1862.3,24.8,134.2,245.7,671.0,4280.0,5.0,1,
238020,1859.1,61.6,134.2,236.8,671.0,4280.0,5.0,1,
238120,1865.3,27.6,135.5,80.0,671.0,4280.0,5.0,1,
238220,1857.3,26.5,135.5,54.2,671.0,4280.0,5.0,1,
238320,1858.7,25.2,135.5,53.5,671.0,4280.0,5.0,1,
238520,1826.1,253.6,139.6,35.4,786.0,5628.0,6.0,1,
238620,1890.0,213.0,145.5,35.5,766.0,5960.0,5.0,1,
238720,1862.3,199.0,146.9,41.6,708.0,4604.0,5.0,1,
238820,1850.2,171.4,143.7,66.5,647.0,4902.0,5.0,1,
238920,1859.6,287.6,151.1,66.4,727.0,4495.0,14.0,1,
239020,1867.3,68.5,157.7,35.4,390.0,3342.0,14.0,1,
239120,1858.8,25.9,157.7,34.9,390.0,3342.0,14.0,1,
239220,1862.0,27.5,157.7,34.3,390.0,3342.0,14.0,1,
239320,1861.1,26.9,157.7,29.8,390.0,3342.0,14.0,1,
239520,1861.0,25.7,157.7,240.4,390.0,3342.0,14.0,1,
239620,1861.1,25.6,157.8,242.1,390.0,3342.0,14.0,1,
239720,1862.7,26.7,156.7,240.6,390.0,3342.0,14.0,1,
239820,1859.4,24.9,156.7,239.0,390.0,3342.0,14.0,1,
239920,1860.2,26.4,156.7,238.9,390.0,3342.0,14.0,1,
240020,1870.5,212.8,157.5,144.8,706.0,5559.0,20.0,1,
240120,1846.6,256.3,153.3,35.0,725.0,5343.0,5.0,1,
240220,1868.5,216.6,150.5,34.9,724.0,5232.0,5.0,1,
240320,1859.6,251.2,164.8,35.4,936.0,4997.0,14.0,1,
240520,1836.8,298.2,195.7,35.9,1204.0,5380.0,13.0,1,
240620,1874.1,99.1,195.1,130.1,415.0,3601.0,13.0,1,
240720,1860.9,27.7,195.1,99.6,415.0,3601.0,13.0,1,
240820,1857.8,26.5,195.1,35.8,415.0,3601.0,13.0,1,
240920,1859.0,26.0,195.1,34.6,415.0,3601.0,13.0,1,
241020,1859.4,26.2,195.1,34.7,415.0,3601.0,13.0,1,
241120,1858.5,27.4,195.1,239.4,415.0,3601.0,13.0,1,
241220,1861.8,27.1,195.1,262.5,415.0,3601.0,13.0,1,
241320,1860.6,27.5,195.1,260.9,415.0,3601.0,13.0,1,
241520,1860.5,26.3,195.2,229.1,415.0,3601.0,13.0,1,
241620,1888.0,182.2,195.4,237.4,759.0,5029.0,4.0,1,
241720,1838.0,233.5,194.6,35.8,748.0,5897.0,6.0,1,
241820,1862.4,192.1,192.1,35.4,658.0,5298.0,6.0,1,
241920,1858.4,189.9,183.6,37.0,741.0,5588.0,6.0,1,
242020,1887.9,280.2,183.7,65.6,942.0,4494.0,13.0,1,
242120,1847.4,272.2,173.4,35.3,1987.0,6178.0,14.0,1,
242220,1838.0,115.7,168.5,35.2,577.0,4163.0,6.0,1,
242320,1866.0,29.7,168.4,65.9,577.0,4163.0,6.0,1,
242520,1857.7,26.7,168.4,66.1,577.0,4163.0,6.0,1,
242620,1858.1,26.5,168.4,52.8,577.0,4163.0,6.0,1,
242720,1860.4,27.3,168.4,232.7,577.0,4163.0,6.0,1,
242820,1860.3,28.1,168.4,238.3,577.0,4163.0,6.0,1,
242920,1861.8,30.0,168.4,218.2,577.0,4163.0,6.0,1,
243020,1861.8,27.7,168.4,227.5,577.0,4163.0,6.0,1,
243120,1859.7,25.9,168.4,234.3,577.0,4163.0,6.0,1,
243220,1859.9,73.2,168.4,238.8,577.0,4163.0,6.0,1,
243320,1872.5,236.6,169.2,36.5,779.0,6075.0,6.0,1,
243520,1829.0,211.5,168.7,36.0,730.0,5180.0,5.0,1,
243620,1865.1,174.6,162.3,65.9,690.0,4957.0,5.0,1,
243720,1872.7,192.0,143.7,66.2,810.0,5334.0,5.0,1,
243820,1846.0,156.4,132.9,66.9,630.0,3943.0,5.0,1,
243920,1858.0,33.6,132.3,67.1,630.0,3943.0,5.0,1,
244020,1859.6,27.8,132.3,65.6,630.0,3943.0,5.0,1,
244120,1859.7,27.6,132.3,40.2,630.0,3943.0,5.0,1,
244220,1860.0,26.4,132.4,46.0,630.0,3943.0,5.0,1,
244320,1859.4,27.1,132.4,185.3,630.0,3943.0,5.0,1,
244520,1860.3,26.9,132.4,240.1,630.0,3943.0,5.0,1,
244620,1860.2,25.7,132.3,239.9,630.0,3943.0,5.0,1,
244720,1860.0,28.6,132.3,237.6,630.0,3943.0,5.0,1,
244820,1860.8,19.9,132.3,217.8,630.0,3943.0,5.0,1,
244920,1848.1,266.8,133.9,37.2,805.0,6435.0,7.0,1,
245020,1874.8,234.3,137.1,34.8,787.0,6470.0,5.0,1,
245120,1857.6,221.3,139.8,35.4,834.0,5502.0,5.0,1,
245220,1856.7,208.8,137.5,65.8,700.0,4678.0,5.0,1,
245320,1878.3,256.6,143.2,66.2,964.0,5378.0,2.0,0,
245520,1870.3,46.2,164.6,34.8,426.0,3642.0,12.0,1,
245620,1859.7,25.4,164.6,35.8,426.0,3642.0,12.0,1,
245720,1861.0,27.0,164.6,36.4,426.0,3642.0,12.0,1,
245820,1860.7,27.1,164.6,36.7,426.0,3642.0,12.0,1,
245920,1860.1,29.3,164.6,82.3,426.0,3642.0,12.0,1,
246020,1860.6,28.2,164.7,238.1,426.0,3642.0,12.0,1,
246120,1858.7,29.2,164.6,238.4,426.0,3642.0,12.0,1,
246220,1858.5,27.1,164.6,238.1,426.0,3642.0,12.0,1,
246320,1861.1,27.0,164.7,230.2,426.0,3642.0,12.0,1,
246520,1846.4,218.5,164.7,40.1,754.0,5943.0,6.0,1,
246620,1876.7,180.3,161.4,34.5,706.0,5135.0,5.0,1,
246720,1875.8,201.7,156.7,34.9,864.0,5938.0,5.0,1,
246820,1815.8,162.4,155.1,37.4,723.0,4070.0,5.0,1,
246920,1884.8,225.1,153.5,66.3,575.0,4117.0,13.0,1,
247020,1866.8,251.8,152.0,36.0,1067.0,3454.0,13.0,1,
247120,1859.9,47.9,143.5,34.9,1067.0,3454.0,13.0,1,
247220,1859.1,26.4,143.5,35.1,1067.0,3454.0,13.0,1,
247320,1859.5,28.3,143.5,37.8,1067.0,3454.0,13.0,1,
247520,1862.4,27.3,143.5,76.2,1067.0,3454.0,13.0,1,
247620,1860.6,26.7,143.5,212.9,1067.0,3454.0,13.0,1,
247720,1860.4,27.6,143.5,241.5,1067.0,3454.0,13.0,1,
247820,1859.1,27.0,143.5,251.8,1067.0,3454.0,13.0,1,
247920,1860.1,28.0,143.5,249.2,1067.0,3454.0,13.0,1,
248020,1860.0,27.6,143.5,249.0,1067.0,3454.0,13.0,1,
248120,1866.1,242.0,143.7,76.9,723.0,5367.0,6.0,1,
248220,1817.9,215.5,144.9,34.8,698.0,4812.0,6.0,1,
248320,1892.3,292.8,151.3,34.9,678.0,4873.0,6.0,1,
248520,1849.0,187.7,171.6,35.7,766.0,5406.0,5.0,1,
248620,1861.0,245.4,169.9,35.7,861.0,3607.0,2.0,0,
248720,1865.6,58.3,167.1,65.5,722.0,3534.0,13.0,1,
248820,1859.3,25.8,167.1,39.3,722.0,3534.0,13.0,1,
248920,1857.9,26.5,167.1,36.8,722.0,3534.0,13.0,1,
249020,1860.3,27.0,167.1,51.9,722.0,3534.0,13.0,1,
249120,1858.0,26.7,167.1,69.1,722.0,3534.0,13.0,1,
249220,1858.9,26.8,167.1,230.8,722.0,3534.0,13.0,1,
249320,1859.4,26.8,167.1,239.5,722.0,3534.0,13.0,1,
249520,1861.0,26.3,167.1,238.9,722.0,3534.0,13.0,1,
249620,1861.5,26.0,167.0,238.6,722.0,3534.0,13.0,1,
249720,1869.1,208.1,168.3,89.9,721.0,5806.0,6.0,1,
249820,1841.5,235.9,169.4,34.4,742.0,5420.0,5.0,1,
249920,1870.0,294.7,174.9,35.0,678.0,5064.0,14.0,1,
250020,1860.5,207.6,164.7,35.5,1100.0,5061.0,2.0,0,
250120,1848.6,226.2,171.5,35.4,2207.0,6608.0,13.0,1,
250220,1863.0,156.3,166.2,35.8,370.0,2738.0,5.0,1,
250320,1871.4,65.6,161.5,91.4,662.0,4019.0,4.0,1,
250520,1862.8,24.7,161.4,56.0,662.0,4019.0,4.0,1,
250620,1859.7,26.0,161.4,46.7,662.0,4019.0,4.0,1,
250720,1859.5,26.7,161.4,54.5,662.0,4019.0,4.0,1,
250820,1860.9,26.0,161.4,236.4,662.0,4019.0,4.0,1,
250920,1860.5,26.5,161.4,200.5,662.0,4019.0,4.0,1,
251020,1860.3,27.1,161.5,207.4,662.0,4019.0,4.0,1,
251120,1862.0,27.4,161.5,239.9,662.0,4019.0,4.0,1,
251220,1860.7,26.8,161.5,232.6,662.0,4019.0,4.0,1,
251320,1883.1,130.9,161.9,204.4,629.0,4522.0,4.0,1,
251520,1840.2,193.2,149.5,34.5,594.0,4980.0,4.0,1,
251620,1864.5,213.0,139.0,35.4,651.0,4342.0,4.0,1,
251720,1888.4,181.4,127.0,65.9,672.0,4883.0,4.0,1,
251820,1849.3,223.9,118.3,65.7,752.0,4996.0,4.0,1,
251920,1844.5,114.2,124.0,66.4,678.0,4041.0,5.0,1,
252020,1864.4,29.7,123.9,66.5,678.0,4041.0,5.0,1,
252120,1860.5,24.1,123.9,66.4,678.0,4041.0,5.0,1,
252220,1860.4,27.7,123.9,66.7,678.0,4041.0,5.0,1,
252320,1861.1,25.1,123.9,66.7,678.0,4041.0,5.0,1,
252520,1861.2,23.8,123.9,251.2,678.0,4041.0,5.0,1,
252620,1860.3,26.0,123.9,240.2,678.0,4041.0,5.0,1,
252720,1860.3,24.8,123.8,238.3,678.0,4041.0,5.0,1,
252820,1861.7,28.6,123.9,220.4,678.0,4041.0,5.0,1,
252920,1867.6,69.1,123.8,219.1,678.0,4041.0,5.0,1,
253020,1868.6,204.1,133.1,35.0,653.0,5056.0,5.0,1,
253120,1873.5,186.8,135.4,34.6,690.0,5189.0,5.0,1,
253220,1844.0,211.7,133.4,35.4,705.0,4725.0,5.0,1,
253320,1854.2,192.2,134.4,65.8,672.0,3920.0,5.0,1,
253520,1851.5,160.8,134.9,88.1,657.0,4351.0,5.0,1,
253620,1858.6,32.9,134.4,67.4,657.0,4351.0,5.0,1,
253720,1858.1,23.8,134.3,65.9,657.0,4351.0,5.0,1,
253820,1859.1,22.7,134.3,52.3,657.0,4351.0,5.0,1,
253920,1860.9,25.7,134.3,54.0,657.0,4351.0,5.0,1,
254020,1862.7,27.2,134.3,148.0,657.0,4351.0,5.0,1,
254120,1862.3,23.7,134.4,151.6,657.0,4351.0,5.0,1,
254220,1860.6,23.6,134.4,153.8,657.0,4351.0,5.0,1,
254320,1861.7,26.5,134.3,201.3,657.0,4351.0,5.0,1,
254520,1860.1,21.1,134.3,240.9,657.0,4351.0,5.0,1,
254620,1846.8,209.6,130.2,36.0,687.0,5174.0,7.0,1,
254720,1868.1,194.3,133.7,35.7,680.0,5692.0,5.0,1,
254820,1866.4,219.7,135.4,50.2,792.0,5645.0,5.0,1,
254920,1841.6,198.3,134.3,66.4,653.0,4526.0,5.0,1,
255020,1888.8,197.7,136.0,66.3,653.0,4526.0,5.0,1,
255120,1859.5,176.5,133.7,66.8,626.0,3765.0,4.0,1,
255220,1855.4,36.4,133.3,89.8,613.0,3640.0,5.0,1,
255320,1860.4,25.4,133.3,66.8,613.0,3640.0,5.0,1,
255520,1859.8,25.5,133.4,41.3,613.0,3640.0,5.0,1,
255620,1860.9,23.4,133.3,133.8,613.0,3640.0,5.0,1,
255720,1861.1,25.6,133.3,240.2,613.0,3640.0,5.0,1,
255820,1861.8,26.1,133.3,239.5,613.0,3640.0,5.0,1,
255920,1862.1,27.0,133.4,239.3,613.0,3640.0,5.0,1,
256020,1860.0,25.2,133.4,239.0,613.0,3640.0,5.0,1,
256120,1860.9,24.9,133.4,238.7,613.0,3640.0,5.0,1,
256220,1852.0,223.2,135.7,38.4,662.0,5062.0,6.0,1,
256320,1853.0,230.4,136.8,34.4,668.0,4831.0,6.0,1,
256520,1839.7,182.6,139.7,65.8,580.0,4096.0,5.0,1,
256620,1858.8,170.6,136.4,66.8,623.0,4755.0,5.0,1,
256720,1867.8,170.2,135.9,66.5,615.0,3984.0,5.0,1,
256820,1870.6,43.1,135.6,68.4,520.0,3350.0,5.0,1,
256920,1858.6,24.4,135.6,67.9,520.0,3350.0,5.0,1,
257020,1861.9,24.1,135.6,65.5,520.0,3350.0,5.0,1,
257120,1861.5,25.1,135.6,40.9,520.0,3350.0,5.0,1,
257220,1861.8,27.3,135.6,57.4,520.0,3350.0,5.0,1,
257320,1861.1,26.7,135.6,228.1,520.0,3350.0,5.0,1,
257520,1861.6,24.6,135.6,243.0,520.0,3350.0,5.0,1,
257620,1863.4,26.4,135.6,252.4,520.0,3350.0,5.0,1,
257720,1862.0,24.5,135.6,239.9,520.0,3350.0,5.0,1,
257820,1878.1,179.9,131.6,105.7,485.0,3677.0,21.0,1,
257920,1819.4,213.7,129.3,34.5,672.0,5102.0,6.0,1,
258020,1888.0,232.5,130.0,35.0,694.0,5584.0,6.0,1,
258120,1862.6,188.8,131.8,39.7,566.0,4100.0,5.0,1,
258220,1869.4,197.4,133.7,66.6,704.0,5333.0,5.0,1,
258320,1849.4,177.7,134.0,66.9,606.0,4084.0,5.0,1,
258520,1861.1,26.7,134.8,66.5,606.0,4084.0,5.0,1,
258620,1860.1,24.8,134.8,67.1,606.0,4084.0,5.0,1,
258720,1860.5,23.8,134.8,67.3,606.0,4084.0,5.0,1,
258820,1860.6,26.9,134.8,70.0,606.0,4084.0,5.0,1,
258920,1859.9,25.2,134.7,240.6,606.0,4084.0,5.0,1,
259020,1861.4,24.0,134.8,240.6,606.0,4084.0,5.0,1,
259120,1861.0,23.5,134.7,239.4,606.0,4084.0,5.0,1,
259220,1860.8,24.9,134.7,264.7,606.0,4084.0,5.0,1,
259320,1862.4,26.3,134.7,248.4,606.0,4084.0,5.0,1,
259520,1859.9,209.3,140.8,34.8,659.0,5014.0,5.0,1,
259620,1855.2,220.7,139.1,35.0,790.0,5809.0,5.0,1,
259720,1861.1,176.8,135.2,35.9,739.0,5272.0,5.0,1,
259820,1868.6,160.8,135.1,66.4,630.0,4472.0,4.0,1,
259920,1839.6,174.4,132.9,67.7,636.0,3798.0,5.0,1,
260020,1859.6,79.7,132.0,69.8,635.0,4083.0,5.0,1,
260120,1862.2,26.7,132.0,66.2,635.0,4083.0,5.0,1,
260220,1859.3,25.3,132.0,65.8,635.0,4083.0,5.0,1,
260320,1861.5,25.6,132.0,66.1,635.0,4083.0,5.0,1,
260520,1859.7,21.8,132.0,254.0,635.0,4083.0,5.0,1,
260620,1861.4,26.0,132.0,239.0,635.0,4083.0,5.0,1,
260720,1862.4,24.9,132.0,239.9,635.0,4083.0,5.0,1,
260820,1862.1,25.7,132.1,240.0,635.0,4083.0,5.0,1,
260920,1860.7,28.1,132.0,240.6,635.0,4083.0,5.0,1,
261020,1873.4,191.8,133.3,239.7,758.0,6097.0,5.0,1,
261120,1857.2,218.1,135.0,34.5,679.0,5324.0,5.0,1,
261220,1862.9,247.8,137.9,34.2,795.0,6464.0,20.0,1,
261320,1838.6,195.7,138.6,35.3,623.0,4071.0,5.0,1,
261520,1873.4,177.4,140.5,65.9,591.0,3927.0,5.0,1,
261620,1832.7,101.9,137.9,67.3,486.0,3227.0,5.0,1,
261720,1860.5,27.3,137.8,67.3,486.0,3227.0,5.0,1,
261820,1858.2,25.4,137.8,37.1,486.0,3227.0,5.0,1,
261920,1860.8,24.1,137.8,37.1,486.0,3227.0,5.0,1,
262020,1861.1,24.9,137.8,42.1,486.0,3227.0,5.0,1,
262120,1861.1,24.1,137.8,220.4,486.0,3227.0,5.0,1,
262220,1861.5,25.2,137.9,219.8,486.0,3227.0,5.0,1,
262320,1861.2,24.6,137.8,239.4,486.0,3227.0,5.0,1,
262520,1860.6,24.9,137.8,237.4,486.0,3227.0,5.0,1,
262620,1855.4,69.9,137.8,234.4,486.0,3227.0,5.0,1,
262720,1851.4,220.3,135.6,36.4,517.0,4212.0,22.0,1,
262820,1878.7,190.2,134.4,34.8,517.0,4212.0,22.0,1,
262920,1862.6,195.5,127.4,36.0,672.0,4918.0,5.0,1,
263020,1826.4,164.1,126.4,65.7,511.0,3796.0,5.0,1,
263120,1890.5,176.4,126.8,65.8,511.0,3796.0,5.0,1,
263220,1851.3,138.9,127.6,66.4,532.0,3456.0,5.0,1,
263320,1864.7,29.7,127.4,67.0,532.0,3456.0,5.0,1,
263520,1858.5,24.0,127.4,36.7,532.0,3456.0,5.0,1,
263620,1858.7,24.6,127.4,41.9,532.0,3456.0,5.0,1,
263720,1862.0,22.9,127.3,167.9,532.0,3456.0,5.0,1,
263820,1862.4,25.6,127.3,245.3,532.0,3456.0,5.0,1,
263920,1861.3,23.9,127.4,243.7,532.0,3456.0,5.0,1,
264020,1860.6,24.6,127.4,240.0,532.0,3456.0,5.0,1,
264120,1860.8,26.2,127.4,238.7,532.0,3456.0,5.0,1,
264220,1861.8,19.0,127.3,237.3,532.0,3456.0,5.0,1,
