Time(ms),Raw_ADC
0,1877
1,1865
2,1872
3,1878
4,1872
5,1856
6,1945
7,1954
8,1936
9,1862
10,1828
11,1791
12,1757
13,1753
14,1779
15,1851
16,1887
17,1885
18,1882
19,1887
20,1888
21,1875
22,1879
23,1968
24,1938
25,1887
26,1869
27,1830
28,1783
29,1764
30,1755
31,1818
32,1872
33,1879
34,1885
35,1872
36,1885
37,1908
38,1888
39,1919
40,1968
41,1926
42,1881
43,1834
44,1840
45,1776
46,1744
47,1747
48,1781
49,1861
50,1863
51,1860
52,1856
53,1887
54,1872
55,1863
56,1963
57,1968
58,1916
59,1883
60,1808
61,1802
62,1747
63,1740
64,1765
65,1863
66,1895
67,1873
68,1893
69,1873
70,1891
71,1892
72,1903
73,2000
74,1953
75,1878
76,1806
77,1798
78,1776
79,1751
80,1786
81,1828
82,1873
83,1856
84,1854
85,1872
86,1920
87,1858
88,1862
89,1923
90,1968
91,1935
92,1892
93,1843
94,1809
95,1809
96,1758
97,1767
98,1854
99,1865
100,1883
101,1870
102,1870
103,1893
104,1889
105,1872
106,1939
107,1971
108,1934
109,1862
110,1840
111,1811
112,1773
113,1763
114,1781
115,1845
116,1879
117,1872
118,1858
119,1875
120,1875
121,1878
122,1882
123,1958
124,1950
125,1904
126,1867
127,1834
128,1805
129,1744
130,1760
131,1803
132,1875
133,1867
134,1901
135,1867
136,1873
137,1902
138,1869
139,1914
140,1965
141,1917
142,1877
143,1831
144,1808
145,1787
146,1750
147,1776
148,1826
149,1847
150,1872
151,1872
152,1863
153,1867
154,1872
155,1867
156,1971
157,1942
158,1901
159,1872
160,1827
161,1808
162,1758
163,1753
164,1790
165,1863
166,1892
167,1887
168,1869
169,1858
170,1868
171,1867
172,1889
173,1950
174,1952
175,1894
176,1840
177,1823
178,1774
179,1755
180,1776
181,1807
182,1869
183,1873
184,1861
185,1884
186,1904
187,1905
188,1873
189,1925
190,1950
191,1921
192,1883
193,1825
194,1830
195,1759
196,1758
197,1771
198,1843
199,1852
200,1886
201,1865
202,1875
203,1870
204,1872
205,1866
206,1952
207,1959
208,1898
209,1856
210,1831
211,1837
212,1773
213,1765
214,1786
215,1849
216,1854
217,1872
218,1875
219,1884
220,1884
221,1879
222,1883
223,1936
224,1929
225,1898
226,1853
227,1823
228,1782
229,1767
230,1771
231,1810
232,1865
233,1893
234,1866
235,1859
236,1913
237,1909
238,1862
239,1927
240,1957
241,1923
242,1869
243,1850
244,1859
245,1776
246,1751
247,1777
248,1857
249,1873
250,1870
251,1882
252,1890
253,1904
254,1889
255,1873
256,1953
257,1930
258,1904
259,1877
260,1822
261,1817
262,1774
263,1773
264,1776
265,1843
266,1861
267,1850
268,1876
269,1885
270,1914
271,1888
272,1889
273,1919
274,1954
275,1904
276,1867
277,1833
278,1796
279,1759
280,1774
281,1819
282,1828
283,1883
284,1898
285,1899
286,1882
287,1890
288,1882
289,1942
290,1954
291,1910
292,1890
293,1842
294,1835
295,1776
296,1747
297,1758
298,1818
299,1859
300,1864
301,1871
302,1886
303,1903
304,1886
305,1871
306,1950
307,1961
308,1919
309,1871
310,1822
311,1808
312,1763
313,1776
314,1776
315,1866
316,1904
317,1875
318,1875
319,1884
320,1903
321,1875
322,1898
323,1979
324,1927
325,1872
326,1821
327,1811
328,1813
329,1755
330,1771
331,1805
332,1889
333,1883
334,1872
335,1871
336,1889
337,1891
338,1879
339,1917
340,1951
341,1925
342,1870
343,1825
344,1853
345,1811
346,1763
347,1777
348,1866
349,1873
350,1874
351,1857
352,1870
353,1870
354,1873
355,1874
356,1936
357,1968
358,1910
359,1859
360,1835
361,1798
362,1786
363,1787
364,1797
365,1890
366,1843
367,1861
368,1845
369,1929
370,1869
371,1873
372,1900
373,1954
374,1925
375,1889
376,1844
377,1834
378,1798
379,1758
380,1774
381,1841
382,1881
383,1902
384,1861
385,1863
386,1863
387,1866
388,1867
389,1942
390,1946
391,1919
392,1872
393,1827
394,1809
395,1795
396,1760
397,1779
398,1861
399,1870
400,1874
401,1886
402,1867
403,1902
404,1891
405,1878
406,1965
407,1933
408,1892
409,1847
410,1824
411,1797
412,1755
413,1754
414,1810
415,1858
416,1839
417,1898
418,1868
419,1866
420,1865
421,1857
422,1902
423,1978
424,1915
425,1872
426,1843
427,1837
428,1782
429,1760
430,1775
431,1808
432,1865
433,1872
434,1878
435,1887
436,1870
437,1886
438,1879
439,1962
440,1955
441,1942
442,1855
443,1826
444,1806
445,1755
446,1775
447,1776
448,1857
449,1872
450,1861
451,1849
452,1879
453,1882
454,1882
455,1879
456,1933
457,1962
458,1896
459,1856
460,1830
461,1755
462,1765
463,1781
464,1791
465,1859
466,1897
467,1857
468,1884
469,1887
470,1885
471,1863
472,1893
473,1952
474,1937
475,1882
476,1851
477,1831
478,1806
479,1757
480,1778
481,1853
482,1855
483,1876
484,1872
485,1870
486,1885
487,1884
488,1875
489,1942
490,1967
491,1937
492,1874
493,1833
494,1817
495,1785
496,1751
497,1781
498,1863
499,1879
500,1874
501,1872
502,1858
503,1887
504,1869
505,1871
506,1968
507,1933
508,1885
509,1867
510,1822
511,1822
512,1777
513,1779
514,1803
515,1879
516,1840
517,1873
518,1875
519,1889
520,1895
521,1874
522,1908
523,1966
524,1951
525,1881
526,1857
527,1841
528,1777
529,1747
530,1770
531,1856
532,1871
533,1870
534,1863
535,1875
536,1885
537,1872
538,1888
539,1959
540,1956
541,1935
542,1873
543,1819
544,1811
545,1781
546,1755
547,1770
548,1867
549,1870
550,1874
551,1885
552,1878
553,1894
554,1883
555,1879
556,1968
557,1965
558,1895
559,1844
560,1831
561,1808
562,1769
563,1761
564,1793
565,1869
566,1887
567,1854
568,1872
569,1901
570,1882
571,1863
572,1920
573,1964
574,1911
575,1872
576,1840
577,1829
578,1781
579,1757
580,1777
581,1838
582,1918
583,1863
584,1861
585,1871
586,1879
587,1874
588,1876
589,1934
590,1941
591,1886
592,1891
593,1833
594,1829
595,1770
596,1754
597,1764
598,1863
599,1863
600,1883
601,1879
602,1904
603,1865
604,1877
605,1879
606,1977
607,1911
608,1897
609,1862
610,1807
611,1802
612,1760
613,1787
614,1798
615,1873
616,1888
617,1886
618,1855
619,1876
620,1877
621,1865
622,1910
623,1963
624,1922
625,1873
626,1846
627,1852
628,1777
629,1766
630,1779
631,1845
632,1862
633,1857
634,1857
635,1860
636,1882
637,1877
638,1883
639,1926
640,1968
641,1904
642,1856
643,1821
644,1795
645,1787
646,1765
647,1808
648,1889
649,1863
650,1878
651,1851
652,1850
653,1890
654,1861
655,1864
656,1952
657,1921
658,1894
659,1856
660,1819
661,1779
662,1762
663,1777
664,1815
665,1859
666,1904
667,1867
668,1878
669,1880
670,1881
671,1879
672,1922
673,1946
674,1926
675,1861
676,1838
677,1830
678,1792
679,1755
680,1780
681,1827
682,1849
683,1878
684,1862
685,1863
686,1858
687,1871
688,1852
689,1968
690,1982
691,1906
692,1862
693,1820
694,1841
695,1792
696,1771
697,1794
698,1875
699,1885
700,1877
701,1859
702,1872
703,1872
704,1875
705,1885
706,1969
707,1910
708,1893
709,1862
710,1853
711,1802
712,1762
713,1763
714,1789
715,1861
716,1879
717,1856
718,1863
719,1871
720,1883
721,1886
722,1920
723,1947
724,1902
725,1859
726,1825
727,1826
728,1758
729,1765
730,1783
731,1843
732,1873
733,1887
734,1872
735,1869
736,1873
737,1882
738,1866
739,1938
740,1951
741,1893
742,1871
743,1845
744,1795
745,1777
746,1744
747,1771
748,1859
749,1873
750,1882
751,1887
752,1877
753,1869
754,1870
755,1869
756,1950
757,1878
758,1875
759,1856
760,1843
761,1782
762,1763
763,1791
764,1833
765,1872
766,1895
767,1901
768,1899
769,1886
770,1868
771,1867
772,1921
773,1966
774,1920
775,1873
776,1826
777,1808
778,1801
779,1760
780,1783
781,1834
782,1890
783,1891
784,1871
785,1869
786,1886
787,1878
788,1883
789,1926
790,1953
791,1898
792,1873
793,1838
794,1818
795,1762
796,1761
797,1776
798,1877
799,1867
800,1866
801,1868
802,1878
803,1914
804,1867
805,1879
806,1961
807,1919
808,1891
809,1856
810,1846
811,1825
812,1777
813,1794
814,1810
815,1886
816,1889
817,1856
818,1871
819,1887
820,1905
821,1863
822,1920
823,1951
824,1888
825,1872
826,1821
827,1808
828,1795
829,1759
830,1785
831,1857
832,1862
833,1878
834,1854
835,1855
836,1873
837,1896
838,1878
839,1920
840,1932
841,1911
842,1847
843,1829
844,1818
845,1777
846,1777
847,1783
848,1862
849,1875
850,1881
851,1867
852,1892
853,1929
854,1876
855,1886
856,1923
857,1905
858,1883
859,1843
860,1823
861,1795
862,1753
863,1769
864,1789
865,1866
866,1872
867,1872
868,1867
869,1868
870,1901
871,1871
872,1911
873,1953
874,1926
875,1881
876,1867
877,1829
878,1778
879,1770
880,1786
881,1830
882,1869
883,1863
884,1887
885,1888
886,1873
887,1892
888,1871
889,1953
890,1947
891,1918
892,1867
893,1818
894,1774
895,1774
896,1776
897,1797
898,1859
899,1847
900,1875
901,1875
902,1904
903,1915
904,1869
905,1880
906,1925
907,1931
908,1876
909,1866
910,1847
911,1808
912,1761
913,1776
914,1808
915,1857
916,1887
917,1865
918,1860
919,1878
920,1877
921,1877
922,1913
923,1963
924,1923
925,1874
926,1838
927,1839
928,1793
929,1747
930,1776
931,1829
932,1869
933,1869
934,1834
935,1854
936,1890
937,1867
938,1867
939,1961
940,1952
941,1910
942,1856
943,1825
944,1771
945,1779
946,1754
947,1770
948,1872
949,1891
950,1872
951,1872
952,1910
953,1901
954,1877
955,1897
956,1971
957,1915
958,2618
959,1109
960,2038
961,2182
962,2205
963,2142
964,2097
965,1962
966,1853
967,1799
968,1793
969,1723
970,1753
971,1757
972,1798
973,1822
974,1869
975,1859
976,1858
977,1888
978,1846
979,1808
980,1823
981,1893
982,1885
983,1903
984,1872
985,1872
986,1885
987,1865
988,1856
989,2047
990,839
991,2003
992,2317
993,2288
994,2218
995,1995
996,1797
997,1701
998,1712
999,1715
1000,1789
1001,1793
1002,1729
1003,1757
1004,1838
1005,1916
1006,2039
1007,2007
1008,1937
1009,1889
1010,1850
1011,1851
1012,1791
1013,1776
1014,1802
1015,1826
1016,1858
1017,1888
1018,1874
1019,1890
1020,1877
1021,442
1022,1989
1023,2439
1024,2349
1025,2211
1026,2031
1027,1812
1028,1673
1029,1650
1030,1806
1031,1811
1032,1731
1033,1721
1034,1821
1035,1894
1036,1987
1037,1938
1038,1931
1039,2010
1040,2015
1041,1970
1042,1904
1043,1827
1044,1787
1045,1748
1046,1705
1047,1712
1048,1824
1049,1842
1050,1840
1051,1863
1052,241
1053,1825
1054,2294
1055,2241
1056,2251
1057,2065
1058,1844
1059,1759
1060,1861
1061,1963
1062,1726
1063,1642
1064,1792
1065,1894
1066,1949
1067,1904
1068,1932
1069,1937
1070,1950
1071,1936
1072,1983
1073,1979
1074,1877
1075,1835
1076,1751
1077,1724
1078,1716
1079,1727
1080,1754
1081,1795
1082,1887
1083,38
1084,1711
1085,2272
1086,2192
1087,2019
1088,1878
1089,1859
1090,1968
1091,2195
1092,2116
1093,1845
1094,1735
1095,1755
1096,1819
1097,1840
1098,1920
1099,1914
1100,1931
1101,1949
1102,1952
1103,1919
1104,1851
1105,1840
1106,1892
1107,1865
1108,1814
1109,1808
1110,1804
1111,1809
1112,1754
1113,1766
1114,84
1115,1575
1116,2199
1117,1987
1118,1795
1119,1685
1120,1707
1121,2014
1122,2410
1123,2382
1124,2033
1125,1915
1126,1937
1127,1904
1128,1859
1129,1827
1130,1853
1131,1947
1132,1943
1133,1913
1134,1885
1135,1809
1136,1771
1137,1791
1138,1824
1139,1917
1140,1921
1141,1872
1142,1840
1143,1831
1144,1790
1145,398
1146,1392
1147,2096
1148,2085
1149,1915
1150,1718
1151,1818
1152,2157
1153,2370
1154,2097
1155,1841
1156,1935
1157,1965
1158,1934
1159,1890
1160,1871
1161,1866
1162,1802
1163,1805
1164,1821
1165,1831
1166,1803
1167,1802
1168,1847
1169,1854
1170,1847
1171,1858
1172,1912
1173,1931
1174,1906
1175,1843
1176,1723
1177,1248
1178,1984
1179,1982
1180,1829
1181,1691
1182,1840
1183,2211
1184,2367
1185,2082
1186,1806
1187,1815
1188,1911
1189,2006
1190,2046
1191,1975
1192,1919
1193,1879
1194,1838
1195,1742
1196,1679
1197,1703
1198,1764
1199,1826
1200,1811
1201,1893
1202,1873
1203,1870
1204,1855
1205,1889
1206,1935
1207,2326
1208,1194
1209,2060
1210,2134
1211,1856
1212,1583
1213,1712
1214,2160
1215,2319
1216,2087
1217,1817
1218,1856
1219,1905
1220,1955
1221,1965
1222,2001
1223,2032
1224,1965
1225,1883
1226,1809
1227,1739
1228,1665
1229,1670
1230,1712
1231,1819
1232,1855
1233,1863
1234,1862
1235,1879
1236,1895
1237,1892
1238,2446
1239,850
1240,2113
1241,2266
1242,2037
1243,1670
1244,1745
1245,2073
1246,2166
1247,1993
1248,1795
1249,1791
1250,1899
1251,1964
1252,1995
1253,1975
1254,1931
1255,1957
1256,1991
1257,1910
1258,1787
1259,1741
1260,1728
1261,1668
1262,1710
1263,1757
1264,1872
1265,1936
1266,1902
1267,1847
1268,1880
1269,2061
1270,614
1271,1959
1272,2303
1273,2118
1274,1777
1275,1744
1276,2128
1277,2256
1278,2007
1279,1745
1280,1737
1281,1909
1282,1987
1283,1958
1284,1936
1285,1957
1286,1939
1287,1878
1288,1813
1289,1862
1290,1859
1291,1827
1292,1823
1293,1815
1294,1779
1295,1745
1296,1764
1297,1766
1298,1849
1299,1891
1300,1872
1301,239
1302,1850
1303,2240
1304,2011
1305,1737
1306,1805
1307,2254
1308,2323
1309,2117
1310,1835
1311,1765
1312,1823
1313,1872
1314,1915
1315,1958
1316,1959
1317,1914
1318,1891
1319,1850
1320,1779
1321,1791
1322,1879
1323,1929
1324,1917
1325,1888
1326,1811
1327,1819
1328,1776
1329,1751
1330,1747
1331,1849
1332,104
1333,1778
1334,2219
1335,2094
1336,1798
1337,1700
1338,2143
1339,2352
1340,2202
1341,1914
1342,1847
1343,1903
1344,1899
1345,1875
1346,1853
1347,1896
1348,1905
1349,1887
1350,1789
1351,1775
1352,1773
1353,1826
1354,1824
1355,1875
1356,1937
1357,1933
1358,1882
1359,1845
1360,1836
1361,1795
1362,1776
1363,0
1364,1658
1365,2192
1366,2091
1367,1790
1368,1680
1369,2184
1370,2298
1371,2177
1372,1965
1373,1904
1374,1953
1375,1971
1376,1934
1377,1906
1378,1841
1379,1798
1380,1753
1381,1777
1382,1769
1383,1787
1384,1808
1385,1840
1386,1886
1387,1867
1388,1872
1389,1935
1390,1925
1391,1894
1392,1853
1393,1856
1394,0
1395,1527
1396,2094
1397,2077
1398,1808
1399,1648
1400,2106
1401,2205
1402,2187
1403,1911
1404,1807
1405,1943
1406,2039
1407,2018
1408,1985
1409,1925
1410,1840
1411,1790
1412,1677
1413,1662
1414,1737
1415,1805
1416,1829
1417,1855
1418,1873
1419,1908
1420,1890
1421,1881
1422,1935
1423,1955
1424,1906
1425,669
1426,1414
1427,2101
1428,2063
1429,1741
1430,1489
1431,2044
1432,2288
1433,2243
1434,1936
1435,1835
1436,1920
1437,1986
1438,2003
1439,2073
1440,2040
1441,1936
1442,1841
1443,1727
1444,1681
1445,1686
1446,1713
1447,1753
1448,1830
1449,1893
1450,1836
1451,1835
1452,1891
1453,1891
1454,1885
1455,1903
1456,1571
1457,1311
1458,2137
1459,2192
1460,1904
1461,1531
1462,1920
1463,2170
1464,2225
1465,1967
1466,1796
1467,1873
1468,1956
1469,1987
1470,1999
1471,1962
1472,1956
1473,1917
1474,1826
1475,1759
1476,1754
1477,1774
1478,1743
1479,1757
1480,1808
1481,1871
1482,1878
1483,1868
1484,1877
1485,1884
1486,1922
1487,2137
1488,1155
1489,2192
1490,2270
1491,1947
1492,1535
1493,1986
1494,2207
1495,2150
1496,1910
1497,1712
1498,1866
1499,1979
1500,2018
1501,2000
1502,1974
1503,1922
1504,1828
1505,1781
1506,1833
1507,1840
1508,1828
1509,1796
1510,1738
1511,1755
1512,1776
1513,1835
1514,1846
1515,1873
1516,1872
1517,1889
1518,2642
1519,883
1520,2070
1521,2231
1522,1987
1523,1639
1524,1968
1525,2241
1526,2256
1527,1986
1528,1750
1529,1776
1530,1876
1531,1984
1532,2023
1533,1969
1534,1902
1535,1821
1536,1780
1537,1762
1538,1805
1539,1873
1540,1889
1541,1851
1542,1826
1543,1833
1544,1807
1545,1799
1546,1776
1547,1803
1548,1878
1549,2067
1550,546
1551,1968
1552,2239
1553,1997
1554,1616
1555,1902
1556,2325
1557,2333
1558,2096
1559,1802
1560,1811
1561,1879
1562,1919
1563,1923
1564,1959
1565,1891
1566,1801
1567,1744
1568,1731
1569,1811
1570,1824
1571,1854
1572,1929
1573,1931
1574,1904
1575,1874
1576,1875
1577,1813
1578,1777
1579,1776
1580,1822
1581,1883
1582,1862
1583,1876
1584,1874
1585,1850
1586,1851
1587,1873
1588,1885
1589,1936
1590,1940
1591,1920
1592,1858
1593,1847
1594,1826
1595,1776
1596,1762
1597,1802
1598,1840
1599,1872
1600,1874
1601,1865
1602,1904
1603,1891
1604,1870
1605,1903
1606,1936
1607,1931
1608,1895
1609,1862
1610,1855
1611,1805
1612,1767
1613,1783
1614,1854
1615,1869
1616,1863
1617,1858
1618,1857
1619,1882
1620,1871
1621,1849
1622,1930
1623,1952
1624,1915
1625,1871
1626,1870
1627,1832
1628,1787
1629,1762
1630,1800
1631,1847
1632,1872
1633,1866
1634,1871
1635,1877
1636,1901
1637,1875
1638,1879
1639,1922
1640,1931
1641,1904
1642,1867
1643,1829
1644,1776
1645,1770
1646,1762
1647,1802
1648,1855
1649,1862
1650,1860
1651,1877
1652,1887
1653,1899
1654,1868
1655,1909
1656,1942
1657,1930
1658,1887
1659,1847
1660,1821
1661,1791
1662,1767
1663,1781
1664,1858
1665,1845
1666,1856
1667,1856
1668,1871
1669,1913
1670,1877
1671,1869
1672,1936
1673,1950
1674,1886
1675,1870
1676,1828
1677,1808
1678,1777
1679,1777
1680,1794
1681,1853
1682,1872
1683,1871
1684,1860
1685,1879
1686,1884
1687,1871
1688,1873
1689,1949
1690,1926
1691,1899
1692,1859
1693,1838
1694,1791
1695,1793
1696,1787
1697,1807
1698,1871
1699,1903
1700,1897
1701,1879
1702,1895
1703,1897
1704,1878
1705,1903
1706,1931
1707,1872
1708,1847
1709,1846
1710,1846
1711,1780
1712,1760
1713,1779
1714,1814
1715,1856
1716,1869
1717,1855
1718,1875
1719,1872
1720,1873
1721,1866
1722,1903
1723,1934
1724,1905
1725,1877
1726,1850
1727,1824
1728,1797
1729,1776
1730,1781
1731,1853
1732,1857
1733,1885
1734,1835
1735,1871
1736,1882
1737,1862
1738,1873
1739,1904
1740,1921
1741,1885
1742,1872
1743,1855
1744,1808
1745,1774
1746,1776
1747,1810
1748,1872
1749,1850
1750,1858
1751,1877
1752,1898
1753,1895
1754,1902
1755,1922
1756,1948
1757,1950
1758,1863
1759,1836
1760,1872
1761,1808
1762,1755
1763,1781
1764,1837
1765,1875
1766,1856
1767,1840
1768,1850
1769,1857
1770,1869
1771,1875
1772,1920
1773,1956
1774,1883
1775,1861
1776,1840
1777,1814
1778,1783
1779,1781
1780,1791
1781,1858
1782,1872
1783,1868
1784,1873
1785,1863
1786,1903
1787,1869
1788,1884
1789,1920
1790,1965
1791,1884
1792,1840
1793,1825
1794,1818
1795,1763
1796,1771
1797,1828
1798,1843
1799,1875
1800,1862
1801,1871
1802,1872
1803,1893
1804,1872
1805,1927
1806,1931
1807,1915
1808,1872
1809,1843
1810,1856
1811,1813
1812,1775
1813,1785
1814,1830
1815,1882
1816,1883
1817,1878
1818,1857
1819,1886
1820,1888
1821,1872
1822,1937
1823,1938
1824,1890
1825,1843
1826,1823
1827,1829
1828,1776
1829,1748
1830,1771
1831,1855
1832,1866
1833,1865
1834,1845
1835,1885
1836,1885
1837,1871
1838,1881
1839,1962
1840,1929
1841,1901
1842,1850
1843,1833
1844,1817
1845,1776
1846,1778
1847,1808
1848,1858
1849,1856
1850,1887
1851,1860
1852,1863
1853,1890
1854,1872
1855,1915
1856,1923
1857,1923
1858,1859
1859,1851
1860,1835
1861,1808
1862,1775
1863,1791
1864,1840
1865,1856
1866,1877
1867,1869
1868,1879
1869,1888
1870,1872
1871,1871
1872,1929
1873,1955
1874,1920
1875,1877
1876,1823
1877,1835
1878,1803
1879,1761
1880,1808
1881,1864
1882,1890
1883,1850
1884,1871
1885,1871
1886,1893
1887,1872
1888,1877
1889,1961
1890,1943
1891,1895
1892,1849
1893,1828
1894,1801
1895,1776
1896,1779
1897,1808
1898,1870
1899,1879
1900,1875
1901,1859
1902,1872
1903,1887
1904,1863
1905,1904
1906,1941
1907,1906
1908,1889
1909,1866
1910,1830
1911,1795
1912,1758
1913,1771
1914,1800
1915,1826
1916,1871
1917,1872
1918,1876
1919,1859
1920,1870
1921,1870
1922,1923
1923,1952
1924,1920
1925,1881
1926,1839
1927,1837
1928,1778
1929,1757
1930,1778
1931,1870
1932,1887
1933,1861
1934,1846
1935,1868
1936,1861
1937,1861
1938,1885
1939,1906
1940,1962
1941,1904
1942,1856
1943,1824
1944,1795
1945,1759
1946,1760
1947,1811
1948,1836
1949,1872
1950,1856
1951,1881
1952,1874
1953,1871
1954,1883
1955,1929
1956,1948
1957,1899
1958,1866
1959,1854
1960,1833
1961,1783
1962,1765
1963,1783
1964,1810
1965,1838
1966,1874
1967,1868
1968,1851
1969,1907
1970,1883
1971,1883
1972,1955
1973,1954
1974,1914
1975,1872
1976,1830
1977,1816
1978,1790
1979,1773
1980,1801
1981,1868
1982,1860
1983,1863
1984,1870
1985,1894
1986,1903
1987,1877
1988,1887
1989,1963
1990,1927
1991,1874
1992,1853
1993,1856
1994,1787
1995,1782
1996,1778
1997,1840
1998,1856
1999,1875
2000,1879
2001,1865
2002,1904
2003,1887
2004,1870
2005,1917
2006,1937
2007,1922
2008,1881
2009,1845
2010,1853
2011,1807
2012,1774
2013,1791
2014,1857
2015,1854
2016,1874
2017,1847
2018,1866
2019,1835
2020,1867
2021,1871
2022,1919
2023,1927
2024,1897
2025,1874
2026,1840
2027,1823
2028,1792
2029,1783
2030,1789
2031,1865
2032,1872
2033,1859
2034,1854
2035,1886
2036,1870
2037,1857
2038,1886
2039,1909
2040,1922
2041,1890
2042,1847
2043,1821
2044,1764
2045,1774
2046,1777
2047,1846
2048,1863
2049,1856
2050,1858
2051,1875
2052,1883
2053,1899
2054,1872
2055,1905
2056,1936
2057,1904
2058,1866
2059,1837
2060,1827
2061,1815
2062,1765
2063,1783
2064,1846
2065,1858
2066,1856
2067,1840
2068,1865
2069,1903
2070,1887
2071,1880
2072,1926
2073,1927
2074,1915
2075,1863
2076,1840
2077,1815
2078,1791
2079,1789
2080,1808
2081,1861
2082,1856
2083,1843
2084,1856
2085,1874
2086,1868
2087,1877
2088,1891
2089,1954
2090,1919
2091,1889
2092,1855
2093,1840
2094,1771
2095,1764
2096,1777
2097,1806
2098,1838
2099,1871
2100,1868
2101,1869
2102,1870
2103,1878
2104,1879
2105,1919
2106,1944
2107,1932
2108,1887
2109,1862
2110,1862
2111,1790
2112,1770
2113,1787
2114,1865
2115,1858
2116,1847
2117,1859
2118,1864
2119,1815
2120,1858
2121,1867
2122,1942
2123,1950
2124,1890
2125,1875
2126,1821
2127,1818
2128,1792
2129,1772
2130,1789
2131,1852
2132,1857
2133,1855
2134,1861
2135,1889
2136,1904
2137,1887
2138,1895
2139,1938
2140,1934
2141,1895
2142,1853
2143,1828
2144,1821
2145,1766
2146,1776
2147,1831
2148,1879
2149,1881
2150,1858
2151,1872
2152,1882
2153,1876
2154,1853
2155,1915
2156,1951
2157,1914
2158,1875
2159,1840
2160,1859
2161,1824
2162,1775
2163,1786
2164,1855
2165,1863
2166,1877
2167,1887
2168,1887
2169,1904
2170,1879
2171,1878
2172,1953
2173,1955
2174,1905
2175,1866
2176,1858
2177,1807
2178,1776
2179,1771
2180,1792
2181,1855
2182,1859
2183,1882
2184,1868
2185,1875
2186,1890
2187,1859
2188,1885
2189,1935
2190,1930
2191,1874
2192,1840
2193,1838
2194,1803
2195,1773
2196,1782
2197,1808
2198,1856
2199,1868
2200,1871
2201,1879
2202,1887
2203,1872
2204,1886
2205,1918
2206,1961
2207,1945
2208,1874
2209,1840
2210,1814
2211,1792
2212,1751
2213,1790
2214,1840
2215,1876
2216,1865
2217,1869
2218,1841
2219,1907
2220,1877
2221,1872
2222,1934
2223,1939
2224,1911
2225,1870
2226,1830
2227,1799
2228,1777
2229,1775
2230,1789
2231,1850
2232,1888
2233,1855
2234,1881
2235,1895
2236,1883
2237,1889
2238,1904
2239,1954
2240,1936
2241,1888
2242,1853
2243,1834
2244,1791
2245,1763
2246,1781
2247,1840
2248,1872
2249,1869
2250,1869
2251,1867
2252,1880
2253,1872
2254,1845
2255,1906
2256,1936
2257,1936
2258,1891
2259,1861
2260,1872
2261,1815
2262,1763
2263,1782
2264,1846
2265,1863
2266,1877
2267,1885
2268,1871
2269,1884
2270,1885
2271,1879
2272,1955
2273,1965
2274,1909
2275,1872
2276,1831
2277,1834
2278,1774
2279,1763
2280,1807
2281,1859
2282,1859
2283,1875
2284,1857
2285,1861
2286,1902
2287,1879
2288,1915
2289,1969
2290,1947
2291,1897
2292,1830
2293,1819
2294,1790
2295,1748
2296,1765
2297,1843
2298,1870
2299,1885
2300,1871
2301,1872
2302,1875
2303,1881
2304,1861
2305,1914
2306,1942
2307,1914
2308,1872
2309,1841
2310,1805
2311,1808
2312,1766
2313,1791
2314,1848
2315,1862
2316,1880
2317,1872
2318,1867
2319,1927
2320,1883
2321,1881
2322,1950
2323,1939
2324,1906
2325,1872
2326,1823
2327,1803
2328,1759
2329,1763
2330,1803
2331,1861
2332,1866
2333,1874
2334,1874
2335,1863
2336,1861
2337,1877
2338,1887
2339,1942
2340,1937
2341,1900
2342,1853
2343,1826
2344,1778
2345,1763
2346,1775
2347,1811
2348,1845
2349,1857
2350,1863
2351,1855
2352,1891
2353,1879
2354,1865
2355,1920
2356,1965
2357,1936
2358,1886
2359,1846
2360,1810
2361,1815
2362,1762
2363,1790
2364,1837
2365,1840
2366,1866
2367,1872
2368,1866
2369,1853
2370,1882
2371,1889
2372,1968
2373,1950
2374,1909
2375,1866
2376,1811
2377,1798
2378,1759
2379,1758
2380,1791
2381,1853
2382,1871
2383,1861
2384,1872
2385,1889
2386,1878
2387,1876
2388,1910
2389,1949
2390,1939
2391,1879
2392,1839
2393,1829
2394,1797
2395,1761
2396,1770
2397,1842
2398,1844
2399,1890
2400,1869
2401,1866
2402,1898
2403,1899
2404,1870
2405,1945
2406,1968
2407,1934
2408,1873
2409,1830
2410,1807
2411,1783
2412,1750
2413,1789
2414,1854
2415,1850
2416,1866
2417,1858
2418,1869
2419,1917
2420,1872
2421,1872
2422,1951
2423,1958
2424,1903
2425,1850
2426,1821
2427,1786
2428,1756
2429,1758
2430,1777
2431,1855
2432,1891
2433,1862
2434,1873
2435,1882
2436,1879
2437,1876
2438,1891
2439,1955
2440,1936
2441,1885
2442,1871
2443,1856
2444,1787
2445,1776
2446,1779
2447,1821
2448,1856
2449,1860
2450,1872
2451,1872
2452,1890
2453,1887
2454,1843
2455,1902
2456,1949
2457,1917
2458,1861
2459,1846
2460,1804
2461,1782
2462,1757
2463,1761
2464,1840
2465,1868
2466,1871
2467,1867
2468,1847
2469,1872
2470,1884
2471,1886
2472,1969
2473,1954
2474,1910
2475,1882
2476,1855
2477,1794
2478,1776
2479,1758
2480,1789
2481,1859
2482,1856
2483,1875
2484,1872
2485,1889
2486,1878
2487,1885
2488,1911
2489,1959
2490,1958
2491,1886
2492,1858
2493,1844
2494,1831
2495,1755
2496,1771
2497,1824
2498,1852
2499,1869
2500,1872
2501,1878
2502,1881
2503,1885
2504,1903
2505,1950
2506,1967
2507,1951
2508,1872
2509,1840
2510,1814
2511,1786
2512,1742
2513,1766
2514,1835
2515,1881
2516,1864
2517,1856
2518,1853
2519,1903
2520,1886
2521,1887
2522,1967
2523,1936
2524,1904
2525,1879
2526,1856
2527,1809
2528,1766
2529,1757
2530,1810
2531,1838
2532,1882
2533,1886
2534,1899
2535,1898
2536,1884
2537,1872
2538,1895
2539,1961
2540,1945
2541,1891
2542,1866
2543,1871
2544,1791
2545,1746
2546,1767
2547,1826
2548,1847
2549,1872
2550,1869
2551,1873
2552,1867
2553,1889
2554,1867
2555,1946
2556,1943
2557,1927
2558,1887
2559,1856
2560,1810
2561,1775
2562,1754
2563,1790
2564,1857
2565,1867
2566,1877
2567,1878
2568,1894
2569,1905
2570,1879
2571,1887
2572,1970
2573,1943
2574,1898
2575,1860
2576,430
2577,1690
2578,2000
2579,2032
2580,2011
2581,2039
2582,1984
2583,1879
2584,1833
2585,1857
2586,1862
2587,1808
2588,1861
2589,1939
2590,1893
2591,1855
2592,1851
2593,1872
2594,1888
2595,1851
2596,1873
2597,1903
2598,1890
2599,1874
2600,1838
2601,1804
2602,1808
2603,1806
2604,1794
2605,1866
2606,1885
2607,446
2608,1673
2609,2096
2610,2160
2611,2055
2612,1987
2613,1887
2614,1829
2615,1790
2616,1797
2617,1811
2618,1831
2619,1872
2620,1839
2621,1840
2622,1961
2623,1981
2624,1958
2625,1904
2626,1873
2627,1875
2628,1808
2629,1789
2630,1826
2631,1840
2632,1826
2633,1808
2634,1846
2635,1850
2636,1893
2637,1870
2638,471
2639,1674
2640,2218
2641,2304
2642,2204
2643,2086
2644,1882
2645,1690
2646,1653
2647,1727
2648,1856
2649,1842
2650,1793
2651,1808
2652,1870
2653,1905
2654,1929
2655,2000
2656,2033
2657,1991
2658,1955
2659,1906
2660,1853
2661,1786
2662,1731
2663,1724
2664,1789
2665,1794
2666,1810
2667,1817
2668,1825
2669,1747
2670,1377
2671,2165
2672,2399
2673,2300
2674,2160
2675,1947
2676,1759
2677,1679
2678,1686
2679,1813
2680,1790
2681,1733
2682,1769
2683,1851
2684,1911
2685,1951
2686,1964
2687,1943
2688,1974
2689,2011
2690,1985
2691,1890
2692,1811
2693,1776
2694,1671
2695,1680
2696,1712
2697,1803
2698,1831
2699,1867
2700,2556
2701,1243
2702,2135
2703,2332
2704,2256
2705,2245
2706,2064
2707,1817
2708,1711
2709,1829
2710,1876
2711,1727
2712,1634
2713,1728
2714,1825
2715,1899
2716,1917
2717,1922
2718,1936
2719,1951
2720,1917
2721,1911
2722,1920
2723,1892
2724,1815
2725,1791
2726,1744
2727,1749
2728,1745
2729,1745
2730,1802
2731,2601
2732,1093
2733,2031
2734,2293
2735,2201
2736,2099
2737,1932
2738,1838
2739,1862
2740,1997
2741,1984
2742,1777
2743,1728
2744,1765
2745,1795
2746,1847
2747,1905
2748,1945
2749,1936
2750,1953
2751,1911
2752,1902
2753,1853
2754,1812
2755,1875
2756,1873
2757,1851
2758,1842
2759,1801
2760,1786
2761,1766
2762,1901
2763,688
2764,1971
2765,2303
2766,2208
2767,2154
2768,1971
2769,1823
2770,1794
2771,1979
2772,1933
2773,1819
2774,1809
2775,1851
2776,1878
2777,1863
2778,1833
2779,1840
2780,1864
2781,1878
2782,1882
2783,1833
2784,1817
2785,1785
2786,1815
2787,1807
2788,1861
2789,1945
2790,1904
2791,1875
2792,1862
2793,1834
2794,464
2795,1795
2796,2198
2797,2150
2798,2065
2799,1926
2800,1837
2801,1840
2802,2016
2803,1931
2804,1779
2805,1881
2806,1927
2807,1977
2808,1937
2809,1901
2810,1878
2811,1853
2812,1811
2813,1796
2814,1811
2815,1776
2816,1786
2817,1790
2818,1825
2819,1867
2820,1865
2821,1877
2822,1920
2823,1947
2824,1906
2825,301
2826,1818
2827,2271
2828,2140
2829,2055
2830,1898
2831,1873
2832,1928
2833,2032
2834,1875
2835,1719
2836,1759
2837,1837
2838,1919
2839,1997
2840,1971
2841,1925
2842,1871
2843,1810
2844,1776
2845,1689
2846,1690
2847,1765
2848,1787
2849,1836
2850,1871
2851,1871
2852,1871
2853,1888
2854,1871
2855,1936
2856,247
2857,1757
2858,2309
2859,2257
2860,2158
2861,1877
2862,1780
2863,1917
2864,2043
2865,1818
2866,1690
2867,1750
2868,1865
2869,1923
2870,1936
2871,1941
2872,1971
2873,1974
2874,1898
2875,1809
2876,1742
2877,1726
2878,1682
2879,1732
2880,1789
2881,1850
2882,1871
2883,1861
2884,1877
2885,1885
2886,1903
2887,131
2888,1716
2889,2367
2890,2322
2891,2143
2892,1885
2893,1818
2894,1914
2895,1955
2896,1797
2897,1733
2898,1851
2899,1904
2900,1943
2901,1940
2902,1936
2903,1941
2904,1908
2905,1934
2906,1887
2907,1809
2908,1759
2909,1762
2910,1760
2911,1751
2912,1771
2913,1791
2914,1856
2915,1873
2916,1892
2917,1882
2918,804
2919,1474
2920,2257
2921,2365
2922,2288
2923,2011
2924,1836
2925,1987
2926,2019
2927,1858
2928,1639
2929,1705
2930,1813
2931,1907
2932,1941
2933,1937
2934,1920
2935,1899
2936,1872
2937,1801
2938,1809
2939,1854
2940,1846
2941,1840
2942,1811
2943,1827
2944,1813
2945,1779
2946,1802
2947,1872
2948,1904
2949,1778
2950,1296
2951,2162
2952,2354
2953,2177
2954,1904
2955,1904
2956,2138
2957,2128
2958,1906
2959,1705
2960,1712
2961,1763
2962,1823
2963,1866
2964,1931
2965,1926
2966,1904
2967,1843
2968,1777
2969,1781
2970,1783
2971,1857
2972,1915
2973,1951
2974,1913
2975,1859
2976,1841
2977,1819
2978,1769
2979,1783
2980,2530
2981,1041
2982,2107
2983,2308
2984,2144
2985,1865
2986,1792
2987,2068
2988,2162
2989,2032
2990,1804
2991,1815
2992,1872
2993,1871
2994,1852
2995,1857
2996,1846
2997,1885
2998,1842
2999,1779
3000,1758
3001,1776
3002,1830
3003,1855
3004,1872
3005,1920
3006,1952
3007,1909
3008,1870
3009,1847
3010,1824
3011,2368
3012,805
3013,1947
3014,2282
3015,2107
3016,1805
3017,1727
3018,2059
3019,2176
3020,2019
3021,1838
3022,1937
3023,1999
3024,1994
3025,1989
3026,1953
3027,1861
3028,1789
3029,1723
3030,1679
3031,1729
3032,1779
3033,1797
3034,1808
3035,1841
3036,1856
3037,1875
3038,1937
3039,1973
3040,1935
3041,1904
3042,2002
3043,587
3044,1885
3045,2186
3046,2019
3047,1729
3048,1701
3049,2057
3050,2192
3051,2108
3052,1894
3053,1857
3054,1918
3055,2003
3056,2062
3057,1993
3058,1941
3059,1840
3060,1742
3061,1650
3062,1650
3063,1710
3064,1805
3065,1819
3066,1838
3067,1843
3068,1904
3069,1916
3070,1891
3071,1892
3072,1938
3073,1968
3074,407
3075,1857
3076,2241
3077,2047
3078,1695
3079,1584
3080,2028
3081,2219
3082,2121
3083,1883
3084,1837
3085,1926
3086,1991
3087,1991
3088,1999
3089,2000
3090,1920
3091,1806
3092,1727
3093,1698
3094,1722
3095,1717
3096,1769
3097,1846
3098,1871
3099,1875
3100,1872
3101,1889
3102,1872
3103,1873
3104,1884
3105,127
3106,1872
3107,2298
3108,2097
3109,1776
3110,1601
3111,1977
3112,2141
3113,2096
3114,1878
3115,1827
3116,1911
3117,2002
3118,2059
3119,2015
3120,1959
3121,1901
3122,1839
3123,1777
3124,1750
3125,1766
3126,1789
3127,1734
3128,1742
3129,1760
3130,1814
3131,1847
3132,1895
3133,1895
3134,1893
3135,1908
3136,23
3137,1753
3138,2313
3139,2256
3140,1872
3141,1671
3142,2015
3143,2183
3144,2075
3145,1821
3146,1763
3147,1898
3148,1965
3149,1991
3150,1956
3151,1943
3152,1868
3153,1771
3154,1712
3155,1804
3156,1840
3157,1851
3158,1817
3159,1833
3160,1805
3161,1792
3162,1790
3163,1808
3164,1863
3165,1872
3166,1878
3167,114
3168,1583
3169,2223
3170,2182
3171,1872
3172,1678
3173,2100
3174,2274
3175,2224
3176,1959
3177,1766
3178,1809
3179,1901
3180,1989
3181,2000
3182,1962
3183,1885
3184,1750
3185,1728
3186,1742
3187,1778
3188,1870
3189,1917
3190,1889
3191,1870
3192,1835
3193,1851
3194,1806
3195,1781
3196,1793
3197,1892
3198,1874
3199,1881
3200,1888
3201,1879
3202,1904
3203,1895
3204,1873
3205,1956
3206,1936
3207,1906
3208,1846
3209,1821
3210,1829
3211,1776
3212,1763
3213,1808
3214,1865
3215,1872
3216,1866
3217,1894
3218,1882
3219,1891
3220,1874
3221,1888
3222,1904
3223,1916
3224,1894
3225,1872
3226,1848
3227,1774
3228,1771
3229,1776
3230,1808
3231,1845
3232,1874
3233,1866
3234,1884
3235,1901
3236,1883
3237,1894
3238,1917
3239,1934
3240,1922
3241,1885
3242,1842
3243,1839
3244,1758
3245,1744
3246,1765
3247,1841
3248,1871
3249,1867
3250,1853
3251,1895
3252,1906
3253,1885
3254,1879
3255,1955
3256,1942
3257,1910
3258,1866
3259,1840
3260,1776
3261,1759
3262,1731
3263,1759
3264,1839
3265,1885
3266,1861
3267,1855
3268,1847
3269,1851
3270,1865
3271,1895
3272,1977
3273,1943
3274,1901
3275,1871
3276,1841
3277,1809
3278,1761
3279,1763
3280,1807
3281,1850
3282,1868
3283,1861
3284,1877
3285,1872
3286,1901
3287,1872
3288,1931
3289,1968
3290,1933
3291,1886
3292,1856
3293,1823
3294,1767
3295,1744
3296,1771
3297,1849
3298,1846
3299,1881
3300,1891
3301,1872
3302,1889
3303,1887
3304,1883
3305,1939
3306,1968
3307,1934
3308,1875
3309,1834
3310,1807
3311,1754
3312,1759
3313,1783
3314,1860
3315,1915
3316,1904
3317,1897
3318,1901
3319,1894
3320,1872
3321,1882
3322,1961
3323,1943
3324,1868
3325,1821
3326,1803
3327,1808
3328,1743
3329,1759
3330,1811
3331,1855
3332,1903
3333,1867
3334,1891
3335,1879
3336,1878
3337,1860
3338,1921
3339,1958
3340,1919
3341,1868
3342,1841
3343,1810
3344,1769
3345,1744
3346,1767
3347,1820
3348,1856
3349,1872
3350,1873
3351,1877
3352,1906
3353,1895
3354,1873
3355,1951
3356,1951
3357,1914
3358,1873
3359,1840
3360,1812
3361,1759
3362,1759
3363,1780
3364,1846
3365,1872
3366,1872
3367,1887
3368,1892
3369,1909
3370,1904
3371,1904
3372,1951
3373,1950
3374,1894
3375,1846
3376,1809
3377,1791
3378,1749
3379,1757
3380,1786
3381,1841
3382,1850
3383,1859
3384,1869
3385,1894
3386,1894
3387,1870
3388,1927
3389,1941
3390,1941
3391,1882
3392,1854
3393,1819
3394,1807
3395,1765
3396,1773
3397,1839
3398,1877
3399,1877
3400,1850
3401,1874
3402,1909
3403,1895
3404,1887
3405,1934
3406,1943
3407,1894
3408,1859
3409,1807
3410,1808
3411,1755
3412,1765
3413,1776
3414,1862
3415,1856
3416,1869
3417,1883
3418,1867
3419,1886
3420,1875
3421,1895
3422,1955
3423,1967
3424,1895
3425,1843
3426,1840
3427,1769
3428,1762
3429,1767
3430,1810
3431,1904
3432,1861
3433,1853
3434,1871
3435,1883
3436,1891
3437,1887
3438,1903
3439,1947
3440,1937
3441,1887
3442,1824
3443,1803
3444,1777
3445,1759
3446,1760
3447,1829
3448,1813
3449,1871
3450,1867
3451,1899
3452,1894
3453,1879
3454,1885
3455,1959
3456,1962
3457,1909
3458,1881
3459,1829
3460,1810
3461,1749
3462,1747
3463,1779
3464,1856
3465,1881
3466,1863
3467,1879
3468,1875
3469,1906
3470,1889
3471,1902
3472,1968
3473,1927
3474,1878
3475,1846
3476,1823
3477,1791
3478,1751
3479,1761
3480,1809
3481,1873
3482,1872
3483,1872
3484,1874
3485,1882
3486,1885
3487,1881
3488,1921
3489,1959
3490,1936
3491,1874
3492,1851
3493,1840
3494,1797
3495,1745
3496,1765
3497,1857
3498,1847
3499,1872
3500,1902
3501,1872
3502,1871
3503,1887
3504,1873
3505,1939
3506,1966
3507,1915
3508,1860
3509,1828
3510,1802
3511,1772
3512,1746
3513,1774
3514,1861
3515,1875
3516,1872
3517,1860
3518,1882
3519,1885
3520,1877
3521,1906
3522,1961
3523,1930
3524,1908
3525,1840
3526,1797
3527,1779
3528,1743
3529,1759
3530,1784
3531,1870
3532,1860
3533,1878
3534,1869
3535,1894
3536,1898
3537,1879
3538,1919
3539,1978
3540,1920
3541,1856
3542,1828
3543,1845
3544,1757
3545,1758
3546,1756
3547,1843
3548,1878
3549,1884
3550,1881
3551,1888
3552,1895
3553,1893
3554,1892
3555,1951
3556,1965
3557,1902
3558,1869
3559,1815
3560,1786
3561,1763
3562,1765
3563,1792
3564,1850
3565,1871
3566,1872
3567,1883
3568,1886
3569,1883
3570,1883
3571,1893
3572,1967
3573,1911
3574,1888
3575,1841
3576,1830
3577,1791
3578,1750
3579,1765
3580,1829
3581,1871
3582,1863
3583,1871
3584,1888
3585,1887
3586,1886
3587,1867
3588,1956
3589,1969
3590,1923
3591,1872
3592,1838
3593,1837
3594,1808
3595,1739
3596,1763
3597,1843
3598,1843
3599,1859
3600,1863
3601,1875
3602,1855
3603,1889
3604,1883
3605,1939
3606,1952
3607,1905
3608,1869
3609,1840
3610,1811
3611,1763
3612,1771
3613,1823
3614,1855
3615,1873
3616,1872
3617,1887
3618,1873
3619,1897
3620,1875
3621,1921
3622,1968
3623,1962
3624,1887
3625,1837
3626,1820
3627,1775
3628,1744
3629,1760
3630,1825
3631,1841
3632,1888
3633,1881
3634,1888
3635,1899
3636,1885
3637,1879
3638,1923
3639,1967
3640,1923
3641,1872
3642,1844
3643,1843
3644,1776
3645,1751
3646,1791
3647,1842
3648,1878
3649,1875
3650,1883
3651,1875
3652,1859
3653,1883
3654,1872
3655,1955
3656,1947
3657,1914
3658,1872
3659,1840
3660,1759
3661,1757
3662,1759
3663,1793
3664,1833
3665,1859
3666,1858
3667,1848
3668,1885
3669,1905
3670,1887
3671,1903
3672,1968
3673,1958
3674,1895
3675,1860
3676,1842
3677,1808
3678,1762
3679,1769
3680,1820
3681,1863
3682,1863
3683,1872
3684,1870
3685,1869
3686,1877
3687,1886
3688,1921
3689,1958
3690,1923
3691,1872
3692,1843
3693,1802
3694,1759
3695,1746
3696,1763
3697,1843
3698,1869
3699,1863
3700,1868
3701,1871
3702,1891
3703,1881
3704,1879
3705,1963
3706,1965
3707,1906
3708,1862
3709,1825
3710,1808
3711,1759
3712,1744
3713,1783
3714,1851
3715,1870
3716,1860
3717,1870
3718,1892
3719,1911
3720,1880
3721,1910
3722,1963
3723,1942
3724,1895
3725,1845
3726,1793
3727,1787
3728,1755
3729,1763
3730,1840
3731,1870
3732,1893
3733,1873
3734,1888
3735,1880
3736,1895
3737,1872
3738,1952
3739,1978
3740,1921
3741,1889
3742,1825
3743,1825
3744,1766
3745,1734
3746,1778
3747,1840
3748,1856
3749,1875
3750,1889
3751,1863
3752,1889
3753,1877
3754,1882
3755,1967
3756,1966
3757,1910
3758,1876
3759,1853
3760,1807
3761,1776
3762,1762
3763,1803
3764,1847
3765,1872
3766,1841
3767,1895
3768,1867
3769,1867
3770,1871
3771,1924
3772,1963
3773,1904
3774,1879
3775,1840
3776,1835
3777,1780
3778,1747
3779,1757
3780,1830
3781,1883
3782,1872
3783,1897
3784,1906
3785,1929
3786,1901
3787,1877
3788,1936
3789,1953
3790,1923
3791,1875
3792,1865
3793,1829
3794,1786
3795,1753
3796,1774
3797,1845
3798,1855
3799,1882
3800,1879
3801,1893
3802,1891
3803,1876
3804,1872
3805,1919
3806,1934
3807,1895
3808,1856
3809,1835
3810,1795
3811,1758
3812,1734
3813,1779
3814,1849
3815,1870
3816,1890
3817,1871
3818,1881
3819,1906
3820,1870
3821,1919
3822,1957
3823,1920
3824,1893
3825,1861
3826,1855
3827,1789
3828,1750
3829,1767
3830,1813
3831,1859
3832,1877
3833,1862
3834,1883
3835,1867
3836,1874
3837,1883
3838,1943
3839,1946
3840,1915
3841,1866
3842,1839
3843,1833
3844,1775
3845,1751
3846,1751
3847,1845
3848,1872
3849,1874
3850,1859
3851,1861
3852,1882
3853,1886
3854,1886
3855,1962
3856,1939
3857,1904
3858,1857
3859,1842
3860,1808
3861,1765
3862,1746
3863,1809
3864,1860
3865,1862
3866,1848
3867,1892
3868,1872
3869,1891
3870,1878
3871,1923
3872,1971
3873,1936
3874,1878
3875,1845
3876,1830
3877,1775
3878,1760
3879,1773
3880,1831
3881,1840
3882,1888
3883,1875
3884,1871
3885,1908
3886,1878
3887,1878
3888,1947
3889,1946
3890,1905
3891,1883
3892,1833
3893,1810
3894,1743
3895,1724
3896,1757
3897,1838
3898,1869
3899,1856
3900,1881
3901,1883
3902,1892
3903,1887
3904,1893
3905,1964
3906,1977
3907,1923
3908,1878
3909,1811
3910,1783
3911,1758
3912,1759
3913,1813
3914,1843
3915,1875
3916,1890
3917,1887
3918,1874
3919,1889
3920,1878
3921,1909
3922,1951
3923,1930
3924,1887
3925,1840
3926,1835
3927,1779
3928,1744
3929,1757
3930,1839
3931,1856
3932,1862
3933,1872
3934,1881
3935,1863
3936,1895
3937,1886
3938,1930
3939,1956
3940,1924
3941,1901
3942,1840
3943,1811
3944,1776
3945,1746
3946,1765
3947,1840
3948,1851
3949,1861
3950,1883
3951,1875
3952,1900
3953,1887
3954,1892
3955,1935
3956,1939
3957,1915
3958,1865
3959,1843
3960,1808
3961,1757
3962,1744
3963,1791
3964,1856
3965,1881
3966,1886
3967,1886
3968,1901
3969,1904
3970,1872
3971,1904
3972,1962
3973,1949
3974,1903
3975,1842
3976,1840
3977,1784
3978,1744
3979,1765
3980,1843
3981,1884
3982,1878
3983,1849
3984,1878
3985,1875
3986,1884
3987,1867
3988,1945
3989,1951
3990,1915
3991,1870
3992,1828
3993,1817
3994,1793
3995,1755
3996,1783
3997,1855
3998,1857
3999,1872
4000,1861
4001,1882
4002,1921
4003,1887
4004,1890
4005,1971
4006,1955
4007,1900
4008,1856
4009,1846
4010,1807
4011,1767
4012,1747
4013,1801
4014,1851
4015,1859
4016,1860
4017,1861
4018,1865
4019,1882
4020,1872
4021,1921
4022,1951
4023,1923
4024,1903
4025,1855
4026,1835
4027,1790
4028,1748
4029,1764
4030,1815
4031,1862
4032,1877
4033,1887
4034,1877
4035,1903
4036,1885
4037,1876
4038,1952
4039,1976
4040,1933
4041,1883
4042,1840
4043,1808
4044,1795
4045,1774
4046,1770
4047,1871
4048,1879
4049,1874
4050,1872
4051,1872
4052,1856
4053,1868
4054,1878
4055,1925
4056,1925
4057,1905
4058,1859
4059,1838
4060,1831
4061,1769
4062,1763
4063,1795
4064,1870
4065,1858
4066,1875
4067,1881
4068,1882
4069,1885
4070,1899
4071,1919
4072,1968
4073,1920
4074,1886
4075,1856
4076,1845
4077,1783
4078,1750
4079,1776
4080,1829
4081,1872
4082,1871
4083,1874
4084,1873
4085,1892
4086,1899
4087,1889
4088,1936
4089,1967
4090,1927
4091,1877
4092,1842
4093,1791
4094,1761
4095,1755
4096,1782
4097,1843
4098,1829
4099,1872
4100,1850
4101,1872
4102,1894
4103,1875
4104,1883
4105,1942
4106,1941
4107,1898
4108,1849
4109,1835
4110,1792
4111,1775
4112,1774
4113,1807
4114,1860
4115,1873
4116,1883
4117,1872
4118,1892
4119,1886
4120,1897
4121,1904
4122,1971
4123,1951
4124,1887
4125,1846
4126,1830
4127,1804
4128,1763
4129,1767
4130,1854
4131,1883
4132,1880
4133,1887
4134,1878
4135,1883
4136,1872
4137,1872
4138,1951
4139,1952
4140,1926
4141,1872
4142,1874
4143,1838
4144,1765
4145,1763
4146,1772
4147,1862
4148,1869
4149,1888
4150,1857
4151,1867
4152,1855
4153,1839
4154,1844
4155,1941
4156,1926
4157,1901
4158,1873
4159,1858
4160,1792
4161,1769
4162,1751
4163,1792
4164,1799
4165,1839
4166,1843
4167,1870
4168,1909
4169,1885
4170,1873
4171,1913
4172,1962
4173,1919
4174,1891
4175,1863
4176,1824
4177,1791
4178,1744
4179,1754
4180,1798
4181,1840
4182,1856
4183,1862
4184,1859
4185,1840
4186,1893
4187,1894
4188,1967
4189,1962
4190,1935
4191,1879
4192,1840
4193,2607
4194,1119
4195,1962
4196,2234
4197,2261
4198,2167
4199,2066
4200,1869
4201,1779
4202,1787
4203,1813
4204,1786
4205,1820
4206,1894
4207,1817
4208,1782
4209,1790
4210,1821
4211,1823
4212,1835
4213,1875
4214,1914
4215,1904
4216,1853
4217,1809
4218,1815
4219,1826
4220,1819
4221,1870
4222,1930
4223,1898
4224,2543
4225,1076
4226,2029
4227,2219
4228,2134
4229,2074
4230,2006
4231,1790
4232,1763
4233,1797
4234,1831
4235,1826
4236,1808
4237,1761
4238,1845
4239,1968
4240,1968
4241,1958
4242,1930
4243,1886
4244,1847
4245,1791
4246,1762
4247,1808
4248,1792
4249,1782
4250,1799
4251,1803
4252,1855
4253,1851
4254,1866
4255,1983
4256,784
4257,2007
4258,2295
4259,2235
4260,2126
4261,1932
4262,1711
4263,1689
4264,1791
4265,1941
4266,1813
4267,1725
4268,1771
4269,1889
4270,1917
4271,2000
4272,2031
4273,1975
4274,1933
4275,1864
4276,1825
4277,1690
4278,1646
4279,1664
4280,1729
4281,1814
4282,1841
4283,1829
4284,1850
4285,1886
4286,1879
4287,460
4288,1969
4289,2481
4290,2358
4291,2217
4292,1987
4293,1735
4294,1634
4295,1726
4296,1791
4297,1776
4298,1670
4299,1725
4300,1830
4301,1871
4302,1907
4303,1904
4304,1914
4305,1931
4306,1914
4307,1801
4308,1718
4309,1704
4310,1691
4311,1686
4312,1709
4313,1779
4314,1801
4315,1849
4316,1865
4317,1872
4318,223
4319,1821
4320,2382
4321,2384
4322,2301
4323,2031
4324,1801
4325,1801
4326,1905
4327,1893
4328,1631
4329,1578
4330,1783
4331,1851
4332,1936
4333,1953
4334,1918
4335,1911
4336,1898
4337,1843
4338,1837
4339,1840
4340,1821
4341,1822
4342,1797
4343,1796
4344,1743
4345,1745
4346,1776
4347,1854
4348,1867
4349,176
4350,1687
4351,2315
4352,2312
4353,2185
4354,1977
4355,1937
4356,2043
4357,2111
4358,1987
4359,1718
4360,1649
4361,1711
4362,1792
4363,1855
4364,1907
4365,1943
4366,1903
4367,1866
4368,1822
4369,1792
4370,1808
4371,1875
4372,1934
4373,1910
4374,1870
4375,1840
4376,1813
4377,1793
4378,1759
4379,1786
4380,304
4381,1555
4382,2269
4383,2293
4384,2134
4385,1846
4386,1770
4387,1931
4388,2187
4389,2160
4390,1887
4391,1813
4392,1867
4393,1889
4394,1857
4395,1847
4396,1840
4397,1872
4398,1799
4399,1755
4400,1782
4401,1835
4402,1900
4403,1883
4404,1898
4405,1934
4406,1954
4407,1888
4408,1841
4409,1863
4410,1806
4411,937
4412,1311
4413,2127
4414,2288
4415,2079
4416,1813
4417,1815
4418,2063
4419,2216
4420,2064
4421,1854
4422,1871
4423,1921
4424,1968
4425,1947
4426,1888
4427,1831
4428,1743
4429,1683
4430,1703
4431,1712
4432,1787
4433,1839
4434,1857
4435,1869
4436,1874
4437,1874
4438,1951
4439,1996
4440,1931
4441,1909
4442,2064
4443,1199
4444,2067
4445,2229
4446,2027
4447,1745
4448,1740
4449,2022
4450,2173
4451,2074
4452,1847
4453,1808
4454,1945
4455,2097
4456,2043
4457,1983
4458,1891
4459,1793
4460,1678
4461,1600
4462,1642
4463,1755
4464,1811
4465,1850
4466,1872
4467,1848
4468,1886
4469,1898
4470,1889
4471,1950
4472,1982
4473,2736
4474,1098
4475,2066
4476,2246
4477,1966
4478,1619
4479,1649
4480,2075
4481,2236
4482,2111
4483,1849
4484,1807
4485,1936
4486,2019
4487,2032
4488,2070
4489,1993
4490,1879
4491,1724
4492,1673
4493,1681
4494,1703
4495,1734
4496,1796
4497,1837
4498,1862
4499,1877
4500,1878
4501,1875
4502,1884
4503,1859
4504,2366
4505,880
4506,2098
4507,2367
4508,2119
4509,1737
4510,1637
4511,1962
4512,2118
4513,2081
4514,1860
4515,1807
4516,1939
4517,2003
4518,2037
4519,1981
4520,1919
4521,1890
4522,1817
4523,1763
4524,1776
4525,1791
4526,1808
4527,1791
4528,1751
4529,1771
4530,1815
4531,1891
4532,1879
4533,1874
4534,1923
4535,2158
4536,651
4537,1987
4538,2365
4539,2155
4540,1789
4541,1713
4542,2067
4543,2187
4544,2045
4545,1744
4546,1756
4547,1935
4548,1977
4549,2005
4550,1953
4551,1937
4552,1821
4553,1728
4554,1736
4555,1833
4556,1891
4557,1864
4558,1848
4559,1843
4560,1809
4561,1778
4562,1771
4563,1789
4564,1879
4565,1872
4566,1895
4567,207
4568,1862
4569,2288
4570,2109
4571,1867
4572,1787
4573,2192
4574,2288
4575,2198
4576,1909
4577,1755
4578,1797
4579,1875
4580,1958
4581,1953
4582,1906
4583,1769
4584,1709
4585,1738
4586,1776
4587,1823
4588,1934
4589,1970
4590,1925
4591,1861
4592,1838
4593,1788
4594,1770
4595,1758
4596,1791
4597,1850
4598,31
4599,1781
4600,2260
4601,2195
4602,1847
4603,1659
4604,2082
4605,2369
4606,2307
4607,1982
4608,1815
4609,1877
4610,1890
4611,1872
4612,1861
4613,1856
4614,1759
4615,1708
4616,1706
4617,1775
4618,1827
4619,1878
4620,1891
4621,1951
4622,1979
4623,1939
4624,1895
4625,1835
4626,1806
4627,1762
4628,1726
4629,0
4630,1630
4631,2224
4632,2172
4633,1823
4634,1632
4635,2070
4636,2247
4637,2271
4638,2081
4639,1937
4640,1961
4641,1973
4642,1955
4643,1887
4644,1782
4645,1675
4646,1603
4647,1700
4648,1761
4649,1807
4650,1827
4651,1909
4652,1929
4653,1919
4654,1917
4655,1967
4656,1957
4657,1903
4658,1863
4659,1835
4660,320
4661,1442
4662,2064
4663,2067
4664,1819
4665,1579
4666,1987
4667,2268
4668,2288
4669,2032
4670,1869
4671,1974
4672,2079
4673,2044
4674,1984
4675,1855
4676,1769
4677,1616
4678,1591
4679,1648
4680,1775
4681,1827
4682,1854
4683,1868
4684,1909
4685,1863
4686,1892
4687,1894
4688,1954
4689,1979
4690,1929
4691,1047
4692,1390
4693,2083
4694,2070
4695,1781
4696,1520
4697,1925
4698,2234
4699,2266
4700,2064
4701,1871
4702,1936
4703,1981
4704,2011
4705,2070
4706,2000
4707,1825
4708,1711
4709,1662
4710,1659
4711,1665
4712,1712
4713,1705
4714,1757
4715,1789
4716,1841
4717,1968
4718,2022
4719,1990
4720,1940
4721,1995
4722,2112
4723,1264
4724,2106
4725,2242
4726,1970
4727,1554
4728,1796
4729,2075
4730,2207
4731,2037
4732,1838
4733,1904
4734,1965
4735,2000
4736,1996
4737,1933
4738,1907
4739,1809
4740,1746
4741,1744
4742,1758
4743,1754
4744,1776
4745,1787
4746,1813
4747,1875
4748,1904
4749,1872
4750,1851
4751,1851
4752,1875
4753,2638
4754,985
4755,2145
4756,2334
4757,2023
4758,1613
4759,1791
4760,2104
4761,2142
4762,1979
4763,1813
4764,1886
4765,1957
4766,2000
4767,2025
4768,1957
4769,1856
4770,1728
4771,1781
4772,1856
4773,1877
4774,1826
4775,1822
4776,1809
4777,1775
4778,1749
4779,1779
4780,1861
4781,1858
4782,1879
4783,1867
4784,2347
4785,782
4786,2017
4787,2274
4788,2095
4789,1744
4790,1837
4791,2143
4792,2247
4793,2067
4794,1759
4795,1776
4796,1878
4797,1971
4798,1994
4799,1948
4800,1857
4801,1786
4802,1735
4803,1750
4804,1822
4805,1921
4806,1936
4807,1894
4808,1847
4809,1845
4810,1806
4811,1745
4812,1772
4813,1831
4814,1870
4815,1883
4816,1899
4817,1882
4818,1907
4819,1905
4820,1905
4821,1949
4822,1960
4823,1946
4824,1895
4825,1839
4826,1802
4827,1731
4828,1737
4829,1746
4830,1827
4831,1847
4832,1867
4833,1877
4834,1866
4835,1861
4836,1889
4837,1883
4838,1945
4839,1937
4840,1914
4841,1846
4842,1821
4843,1806
4844,1767
4845,1767
4846,1808
4847,1851
4848,1852
4849,1877
4850,1889
4851,1903
4852,1885
4853,1872
4854,1898
4855,1964
4856,1966
4857,1898
4858,1850
4859,1815
4860,1788
4861,1746
4862,1757
4863,1794
4864,1853
4865,1885
4866,1866
4867,1889
4868,1893
4869,1887
4870,1894
4871,1941
4872,1959
4873,1941
4874,1874
4875,1838
4876,1835
4877,1791
4878,1745
4879,1746
4880,1847
4881,1853
4882,1878
4883,1863
4884,1867
4885,1862
4886,1871
4887,1879
4888,1945
4889,1948
4890,1914
4891,1872
4892,1839
4893,1808
4894,1759
4895,1773
4896,1794
4897,1850
4898,1846
4899,1879
4900,1895
4901,1880
4902,1895
4903,1878
4904,1917
4905,1968
4906,1953
4907,1904
4908,1857
4909,1834
4910,1782
4911,1744
4912,1761
4913,1804
4914,1859
4915,1873
4916,1871
4917,1872
4918,1867
4919,1899
4920,1882
4921,1936
4922,1946
4923,1911
4924,1871
4925,1823
4926,1840
4927,1778
4928,1738
4929,1782
4930,1845
4931,1833
4932,1859
4933,1886
4934,1869
4935,1872
4936,1881
4937,1873
4938,1931
4939,1968
4940,1893
4941,1882
4942,1840
4943,1802
4944,1755
4945,1765
4946,1779
4947,1845
4948,1878
4949,1853
4950,1844
4951,1885
4952,1890
4953,1891
4954,1930
4955,1973
4956,1904
4957,1852
4958,1822
4959,1810
4960,1795
4961,1748
4962,1766
4963,1847
4964,1872
4965,1863
4966,1872
4967,1859
4968,1857
4969,1887
4970,1863
4971,1949
4972,1965
4973,1935
4974,1875
4975,1846
4976,1813
4977,1763
4978,1730
4979,1777
4980,1843
4981,1849
4982,1856
4983,1861
4984,1869
4985,1892
4986,1891
4987,1905
4988,1972
4989,1969
4990,1906
4991,1831
4992,1811
4993,1799
4994,1755
4995,1749
4996,1798
4997,1856
4998,1869
4999,1883
5000,1875
5001,1886
5002,1879
5003,1874
5004,1910
5005,1952
5006,1945
5007,1887
5008,1840
5009,1839
5010,1790
5011,1752
5012,1771
5013,1808
5014,1895
5015,1892
5016,1865
5017,1888
5018,1869
5019,1872
5020,1861
5021,1925
5022,1965
5023,1922
5024,1856
5025,1818
5026,1816
5027,1770
5028,1755
5029,1773
5030,1854
5031,1891
5032,1863
5033,1873
5034,1891
5035,1933
5036,1879
5037,1888
5038,1976
5039,1966
5040,1903
5041,1856
5042,1835
5043,1805
5044,1758
5045,1729
5046,1778
5047,1863
5048,1875
5049,1885
5050,1873
5051,1902
5052,1915
5053,1890
5054,1925
5055,1973
5056,1939
5057,1914
5058,1852
5059,1835
5060,1786
5061,1749
5062,1770
5063,1840
5064,1850
5065,1869
5066,1869
5067,1883
5068,1883
5069,1902
5070,1889
5071,1952
5072,1968
5073,1910
5074,1889
5075,1842
5076,1830
5077,1798
5078,1744
5079,1749
5080,1837
5081,1863
5082,1886
5083,1873
5084,1909
5085,1920
5086,1876
5087,1877
5088,1943
5089,1958
5090,1907
5091,1860
5092,1829
5093,1839
5094,1771
5095,1761
5096,1819
5097,1858
5098,1872
5099,1872
5100,1884
5101,1879
5102,1873
5103,1879
5104,1904
5105,1962
5106,1923
5107,1875
5108,1856
5109,1837
5110,1777
5111,1747
5112,1762
5113,1842
5114,1857
5115,1872
5116,1882
5117,1856
5118,1900
5119,1897
5120,1889
5121,1925
5122,1953
5123,1936
5124,1873
5125,1840
5126,1792
5127,1791
5128,1752
5129,1765
5130,1845
5131,1864
5132,1872
5133,1872
5134,1890
5135,1869
5136,1879
5137,1894
5138,1946
5139,1966
5140,1922
5141,1855
5142,1822
5143,1798
5144,1759
5145,1765
5146,1815
5147,1855
5148,1872
5149,1883
5150,1872
5151,1904
5152,1901
5153,1883
5154,1906
5155,1968
5156,1950
5157,1886
5158,1836
5159,1819
5160,1786
5161,1751
5162,1763
5163,1824
5164,1874
5165,1859
5166,1893
5167,1855
5168,1900
5169,1910
5170,1891
5171,1924
5172,1984
5173,1930
5174,1874
5175,1825
5176,1826
5177,1790
5178,1756
5179,1765
5180,1857
5181,1867
5182,1872
5183,1873
5184,1891
5185,1894
5186,1886
5187,1880
5188,1940
5189,1963
5190,1914
5191,1873
5192,1847
5193,1795
5194,1755
5195,1744
5196,1789
5197,1847
5198,1903
5199,1890
5200,1883
5201,1917
5202,1887
5203,1878
5204,1934
5205,1968
5206,1913
5207,1887
5208,1849
5209,1808
5210,1778
5211,1745
5212,1773
5213,1856
5214,1827
5215,1862
5216,1872
5217,1863
5218,1883
5219,1895
5220,1867
5221,1936
5222,1938
5223,1917
5224,1878
5225,1843
5226,1828
5227,1783
5228,1757
5229,1749
5230,1846
5231,1885
5232,1877
5233,1856
5234,1883
5235,1891
5236,1882
5237,1891
5238,1983
5239,1966
5240,1902
5241,1859
5242,1840
5243,1826
5244,1759
5245,1749
5246,1792
5247,1840
5248,1871
5249,1871
5250,1872
5251,1913
5252,1898
5253,1869
5254,1919
5255,1962
5256,1941
5257,1879
5258,1869
5259,1823
5260,1787
5261,1739
5262,1766
5263,1857
5264,1840
5265,1877
5266,1859
5267,1889
5268,1909
5269,1888
5270,1873
5271,1957
5272,1957
5273,1893
5274,1874
5275,1835
5276,1839
5277,1781
5278,1766
5279,1765
5280,1834
5281,1869
5282,1878
5283,1888
5284,1875
5285,1903
5286,1881
5287,1874
5288,1917
5289,1957
5290,1919
5291,1861
5292,1853
5293,1813
5294,1773
5295,1758
5296,1796
5297,1818
5298,1875
5299,1876
5300,1871
5301,1872
5302,1877
5303,1872
5304,1897
5305,1941
5306,1908
5307,1888
5308,1854
5309,1831
5310,1773
5311,1749
5312,1764
5313,1834
5314,1840
5315,1871
5316,1870
5317,1877
5318,1868
5319,1886
5320,1877
5321,1941
5322,1963
5323,1920
5324,1867
5325,1841
5326,1827
5327,1774
5328,1746
5329,1787
5330,1859
5331,1855
5332,1872
5333,1872
5334,1875
5335,1874
5336,1870
5337,1889
5338,1941
5339,1962
5340,1891
5341,1866
5342,1856
5343,1778
5344,1747
5345,1754
5346,1794
5347,1846
5348,1874
5349,1857
5350,1882
5351,1885
5352,1904
5353,1872
5354,1903
5355,1964
5356,1937
5357,1895
5358,1847
5359,1827
5360,1791
5361,1744
5362,1766
5363,1822
5364,1863
5365,1865
5366,1872
5367,1857
5368,1882
5369,1904
5370,1887
5371,1946
5372,1927
5373,1883
5374,1847
5375,1827
5376,1803
5377,1760
5378,1770
5379,1750
5380,1833
5381,1855
5382,1858
5383,1858
5384,1872
5385,1891
5386,1875
5387,1894
5388,1990
5389,1951
5390,1899
5391,1861
5392,1831
5393,1775
5394,1765
5395,1771
5396,1808
5397,1862
5398,1851
5399,1891
5400,1866
5401,1882
5402,1893
5403,1867
5404,1901
5405,1954
5406,1910
5407,1903
5408,1856
5409,1826
5410,1787
5411,1746
5412,1771
5413,1852
5414,1867
5415,1877
5416,1854
5417,1866
5418,1859
5419,1885
5420,1877
5421,1937
5422,1947
5423,1897
5424,1855
5425,1831
5426,1835
5427,1781
5428,1771
5429,1776
5430,1844
5431,1873
5432,1873
5433,1863
5434,1871
5435,1920
5436,1883
5437,1885
5438,1963
5439,1945
5440,1897
5441,1840
5442,1849
5443,1819
5444,1775
5445,1772
5446,1837
5447,1855
5448,1865
5449,1857
5450,1853
5451,1895
5452,1875
5453,1872
5454,1890
5455,1940
5456,1936
5457,1887
5458,1834
5459,1831
5460,1803
5461,1765
5462,1781
5463,1861
5464,1856
5465,1872
5466,1857
5467,1883
5468,1908
5469,1875
5470,1875
5471,1920
5472,1962
5473,1909
5474,1850
5475,1856
5476,1808
5477,1780
5478,1782
5479,1805
5480,1849
5481,1882
5482,1846
5483,1872
5484,1886
5485,1891
5486,1869
5487,1879
5488,1921
5489,1910
5490,1879
5491,1843
5492,1862
5493,1804
5494,1771
5495,1776
5496,1840
5497,1840
5498,1898
5499,1871
5500,1872
5501,1872
5502,1881
5503,1868
5504,1918
5505,1954
5506,1911
5507,1879
5508,1847
5509,1861
5510,1801
5511,1771
5512,1781
5513,1875
5514,1857
5515,1861
5516,1855
5517,1872
5518,1861
5519,1872
5520,1871
5521,1938
5522,1926
5523,1883
5524,1866
5525,1841
5526,1829
5527,1791
5528,1765
5529,1794
5530,1855
5531,1885
5532,1868
5533,1883
5534,1875
5535,1878
5536,1861
5537,1881
5538,1968
5539,1921
5540,1898
5541,1842
5542,1814
5543,1783
5544,1771
5545,1777
5546,1830
5547,1858
5548,1867
5549,1858
5550,1872
5551,1878
5552,1883
5553,1863
5554,1921
5555,1934
5556,1932
5557,1870
5558,1822
5559,1829
5560,1789
5561,1777
5562,1786
5563,1872
5564,1867
5565,1869
5566,1872
5567,1886
5568,1894
5569,1886
5570,1874
5571,1951
5572,1943
5573,1916
5574,1858
5575,1840
5576,1801
5577,1785
5578,1758
5579,1803
5580,1856
5581,1861
5582,1872
5583,1847
5584,1875
5585,1904
5586,1887
5587,1890
5588,1964
5589,1935
5590,1876
5591,1854
5592,1835
5593,1801
5594,1775
5595,1782
5596,1840
5597,1890
5598,1867
5599,1865
5600,1861
5601,1884
5602,1886
5603,1872
5604,1913
5605,1941
5606,1929
5607,1860
5608,1837
5609,1866
5610,1789
5611,1774
5612,1781
5613,1872
5614,1849
5615,1872
5616,1902
5617,1880
5618,1893
5619,1867
5620,1865
5621,1922
5622,1919
5623,1904
5624,1865
5625,1856
5626,1804
5627,1783
5628,1776
5629,1791
5630,1847
5631,1850
5632,1857
5633,1891
5634,1856
5635,1882
5636,1866
5637,1887
5638,1974
5639,1936
5640,1874
5641,1842
5642,1859
5643,1822
5644,1776
5645,1778
5646,1840
5647,1869
5648,1892
5649,1886
5650,1894
5651,1855
5652,1891
5653,1863
5654,1921
5655,1961
5656,1913
5657,1874
5658,1835
5659,1818
5660,1792
5661,1771
5662,1782
5663,1859
5664,1854
5665,1867
5666,1858
5667,1872
5668,1864
5669,1875
5670,1877
5671,1934
5672,1959
5673,1899
5674,1876
5675,1858
5676,1808
5677,1783
5678,1762
5679,1812
5680,1847
5681,1875
5682,1866
5683,1872
5684,1877
5685,1876
5686,1857
5687,1893
5688,1958
5689,1919
5690,1898
5691,1842
5692,1835
5693,1776
5694,1771
5695,1776
5696,1827
5697,1869
5698,1872
5699,1873
5700,1886
5701,1891
5702,1883
5703,1852
5704,1936
5705,1951
5706,1925
5707,1871
5708,1842
5709,1858
5710,1820
5711,1762
5712,1789
5713,1857
5714,1869
5715,1866
5716,1861
5717,1867
5718,1889
5719,1875
5720,1878
5721,1926
5722,1922
5723,1894
5724,1846
5725,1831
5726,1776
5727,1778
5728,1770
5729,1779
5730,1851
5731,1883
5732,1870
5733,1872
5734,1869
5735,1882
5736,1876
5737,1890
5738,1967
5739,1931
5740,1878
5741,1856
5742,1834
5743,1785
5744,1770
5745,1781
5746,1850
5747,1855
5748,1872
5749,1869
5750,1859
5751,1872
5752,1894
5753,1886
5754,1934
5755,1962
5756,1933
5757,1865
5758,1813
5759,1840
5760,1775
5761,1751
5762,1792
5763,1857
5764,1875
5765,1899
5766,1866
5767,1913
5768,1871
5769,1871
5770,1879
5771,1936
5772,1943
5773,1906
5774,1857
5775,1827
5776,1791
5777,1776
5778,1746
5779,1785
5780,1862
5781,1856
5782,1856
5783,1872
5784,1887
5785,1872
5786,1862
5787,1887
5788,1937
5789,1927
5790,1899
5791,1862
5792,1832
5793,1823
5794,1771
5795,1781
5796,1844
5797,1871
5798,1874
5799,1869
5800,1879
5801,1873
5802,1878
5803,1863
5804,1922
5805,1936
5806,1892
5807,1872
5808,1841
5809,1835
5810,1783
5811,322
5812,1762
5813,2256
5814,2320
5815,2208
5816,2098
5817,1963
5818,1817
5819,1793
5820,1831
5821,1890
5822,1837
5823,1834
5824,1773
5825,1721
5826,1717
5827,1774
5828,1839
5829,1870
5830,1927
5831,1936
5832,1917
5833,1872
5834,1835
5835,1811
5836,1825
5837,1840
5838,1905
5839,1905
5840,1855
5841,1840
5842,174
5843,1600
5844,2069
5845,2113
5846,2131
5847,2032
5848,1919
5849,1826
5850,1841
5851,1934
5852,1917
5853,1859
5854,1859
5855,1889
5856,1927
5857,1936
5858,1937
5859,1936
5860,1884
5861,1847
5862,1827
5863,1883
5864,1811
5865,1795
5866,1757
5867,1778
5868,1847
5869,1823
5870,1840
5871,1933
5872,1909
5873,483
5874,1578
5875,2145
5876,2234
5877,2106
5878,2002
5879,1839
5880,1803
5881,1780
5882,1968
5883,1968
5884,1856
5885,1795
5886,1872
5887,1938
5888,2030
5889,2023
5890,1968
5891,1923
5892,1841
5893,1789
5894,1680
5895,1666
5896,1705
5897,1787
5898,1818
5899,1845
5900,1855
5901,1863
5902,1886
5903,1886
5904,1182
5905,1488
5906,2205
5907,2316
5908,2139
5909,2013
5910,1810
5911,1718
5912,1799
5913,2011
5914,1933
5915,1781
5916,1791
5917,1882
5918,1983
5919,1981
5920,1975
5921,2000
5922,1991
5923,1877
5924,1781
5925,1712
5926,1703
5927,1691
5928,1722
5929,1783
5930,1834
5931,1858
5932,1863
5933,1865
5934,1893
5935,2246
5936,1235
5937,2189
5938,2455
5939,2307
5940,2097
5941,1872
5942,1791
5943,1851
5944,1919
5945,1798
5946,1734
5947,1795
5948,1878
5949,1936
5950,1964
5951,1983
5952,1952
5953,1862
5954,1874
5955,1807
5956,1776
5957,1757
5958,1773
5959,1765
5960,1763
5961,1751
5962,1777
5963,1872
5964,1879
5965,1887
5966,2662
5967,1009
5968,2088
5969,2307
5970,2124
5971,2070
5972,1847
5973,1897
5974,2010
5975,2075
5976,1853
5977,1738
5978,1805
5979,1895
5980,1984
5981,1969
5982,1961
5983,1910
5984,1872
5985,1744
5986,1726
5987,1769
5988,1874
5989,1913
5990,1872
5991,1861
5992,1867
5993,1801
5994,1757
5995,1761
5996,1811
5997,2193
5998,689
5999,1975
6000,2335
6001,2199
6002,2043
6003,1808
6004,1983
6005,2166
6006,2160
6007,1873
6008,1769
6009,1872
6010,1886
6011,1875
6012,1903
6013,1926
6014,1873
6015,1789
6016,1710
6017,1712
6018,1795
6019,1807
6020,1836
6021,1925
6022,1943
6023,1909
6024,1877
6025,1847
6026,1831
6027,1808
6028,1810
6029,429
6030,1903
6031,2306
6032,2135
6033,1907
6034,1728
6035,2034
6036,2176
6037,2147
6038,1971
6039,1901
6040,1936
6041,1953
6042,1968
6043,1931
6044,1813
6045,1747
6046,1713
6047,1685
6048,1728
6049,1764
6050,1808
6051,1810
6052,1840
6053,1874
6054,1973
6055,1973
6056,1931
6057,1902
6058,1863
6059,1856
6060,242
6061,1749
6062,2170
6063,2171
6064,1957
6065,1712
6066,1996
6067,2155
6068,2128
6069,1904
6070,1866
6071,2043
6072,2079
6073,2023
6074,1984
6075,1902
6076,1738
6077,1605
6078,1586
6079,1647
6080,1773
6081,1819
6082,1847
6083,1854
6084,1879
6085,1867
6086,1889
6087,1935
6088,1940
6089,1909
6090,1894
6091,124
6092,1758
6093,2158
6094,2044
6095,1796
6096,1675
6097,2010
6098,2193
6099,2131
6100,1920
6101,1920
6102,1985
6103,2029
6104,2095
6105,2069
6106,1947
6107,1792
6108,1665
6109,1597
6110,1655
6111,1689
6112,1746
6113,1825
6114,1872
6115,1861
6116,1884
6117,1867
6118,1903
6119,1894
6120,1897
6121,1942
6122,31
6123,1648
6124,2178
6125,2161
6126,1822
6127,1535
6128,1877
6129,2038
6130,2143
6131,1989
6132,1873
6133,1986
6134,2082
6135,2086
6136,2032
6137,1989
6138,1886
6139,1757
6140,1718
6141,1731
6142,1775
6143,1753
6144,1726
6145,1743
6146,1824
6147,1871
6148,1920
6149,1863
6150,1879
6151,1876
6152,1899
6153,118
6154,1643
6155,2267
6156,2185
6157,1830
6158,1531
6159,1917
6160,2092
6161,2097
6162,1908
6163,1887
6164,1971
6165,2032
6166,2093
6167,2037
6168,1935
6169,1808
6170,1715
6171,1776
6172,1828
6173,1826
6174,1769
6175,1781
6176,1792
6177,1776
6178,1822
6179,1843
6180,1881
6181,1907
6182,1886
6183,1890
6184,1165
6185,1297
6186,2140
6187,2266
6188,2039
6189,1729
6190,2006
6191,2141
6192,2113
6193,1919
6194,1750
6195,1861
6196,1979
6197,2069
6198,2032
6199,1930
6200,1808
6201,1706
6202,1713
6203,1750
6204,1856
6205,1913
6206,1881
6207,1847
6208,1829
6209,1823
6210,1791
6211,1783
6212,1797
6213,1867
6214,1877
6215,2254
6216,1093
6217,2096
6218,2304
6219,2046
6220,1694
6221,2075
6222,2233
6223,2170
6224,1996
6225,1806
6226,1872
6227,1892
6228,1918
6229,1943
6230,1924
6231,1803
6232,1723
6233,1706
6234,1746
6235,1811
6236,1842
6237,1921
6238,1982
6239,1952
6240,1904
6241,1866
6242,1805
6243,1803
6244,1746
6245,1771
6246,2525
6247,799
6248,2059
6249,2255
6250,2002
6251,1584
6252,1851
6253,2112
6254,2270
6255,2176
6256,1923
6257,1968
6258,2047
6259,2074
6260,2000
6261,1872
6262,1755
6263,1722
6264,1717
6265,1749
6266,1792
6267,1811
6268,1850
6269,1835
6270,1854
6271,1979
6272,1963
6273,1924
6274,1861
6275,1843
6276,1808
6277,2348
6278,633
6279,1938
6280,2256
6281,2032
6282,1588
6283,1840
6284,2144
6285,2208
6286,2064
6287,1922
6288,1994
6289,2096
6290,2079
6291,2042
6292,1967
6293,1776
6294,1630
6295,1607
6296,1690
6297,1755
6298,1836
6299,1849
6300,1866
6301,1885
6302,1889
6303,1882
6304,1953
6305,1943
6306,1925
6307,1895
6308,2015
6309,341
6310,1836
6311,2158
6312,1954
6313,1593
6314,1821
6315,2139
6316,2222
6317,2135
6318,1920
6319,1921
6320,2033
6321,2151
6322,2115
6323,2005
6324,1827
6325,1709
6326,1652
6327,1626
6328,1697
6329,1765
6330,1843
6331,1860
6332,1865
6333,1893
6334,1867
6335,1894
6336,1875
6337,1895
6338,1951
6339,1949
6340,240
6341,1853
6342,2209
6343,2000
6344,1515
6345,1658
6346,2079
6347,2197
6348,2137
6349,1950
6350,1920
6351,2027
6352,2090
6353,2064
6354,2064
6355,1940
6356,1777
6357,1697
6358,1697
6359,1728
6360,1723
6361,1728
6362,1767
6363,1823
6364,1840
6365,1858
6366,1891
6367,1919
6368,1917
6369,1918
6370,1917
6371,80
6372,1852
6373,2255
6374,2062
6375,1597
6376,1628
6377,1974
6378,2160
6379,2174
6380,1923
6381,1918
6382,2021
6383,2039
6384,2064
6385,2005
6386,1875
6387,1781
6388,1777
6389,1788
6390,1776
6391,1778
6392,1777
6393,1750
6394,1765
6395,1790
6396,1873
6397,1871
6398,1881
6399,1862
6400,1882
6401,1882
6402,0
6403,1623
6404,2287
6405,2270
6406,1807
6407,1620
6408,2029
6409,2147
6410,2112
6411,1865
6412,1829
6413,1973
6414,2075
6415,2041
6416,2017
6417,1922
6418,1782
6419,1706
6420,1733
6421,1811
6422,1861
6423,1859
6424,1858
6425,1838
6426,1839
6427,1793
6428,1791
6429,1836
6430,1867
6431,1879
6432,1884
6433,1904
6434,1895
6435,1914
6436,1882
6437,1915
6438,1958
6439,1920
6440,1875
6441,1847
6442,1808
6443,1789
6444,1757
6445,1771
6446,1815
6447,1851
6448,1901
6449,1854
6450,1866
6451,1882
6452,1895
6453,1877
6454,1945
6455,1952
6456,1914
6457,1867
6458,1841
6459,1802
6460,1786
6461,1751
6462,1789
6463,1846
6464,1867
6465,1878
6466,1872
6467,1883
6468,1893
6469,1875
6470,1891
6471,1936
6472,1961
6473,1886
6474,1840
6475,1833
6476,1815
6477,1761
6478,1766
6479,1817
6480,1859
6481,1873
6482,1844
6483,1871
6484,1872
6485,1877
6486,1863
6487,1902
6488,1931
6489,1925
6490,1883
6491,1830
6492,1840
6493,1805
6494,1767
6495,1779
6496,1840
6497,1872
6498,1872
6499,1857
6500,1891
6501,1901
6502,1879
6503,1871
6504,1926
6505,1938
6506,1894
6507,1856
6508,1826
6509,1770
6510,1775
6511,1765
6512,1781
6513,1865
6514,1876
6515,1879
6516,1862
6517,1901
6518,1869
6519,1886
6520,1888
6521,1906
6522,1921
6523,1889
6524,1866
6525,1849
6526,1811
6527,1770
6528,1774
6529,1838
6530,1845
6531,1846
6532,1859
6533,1872
6534,1878
6535,1869
6536,1870
6537,1898
6538,1942
6539,1900
6540,1862
6541,1843
6542,1834
6543,1785
6544,1762
6545,1776
6546,1810
6547,1867
6548,1867
6549,1859
6550,1894
6551,1862
6552,1874
6553,1877
6554,1950
6555,1953
6556,1903
6557,1856
6558,1847
6559,1827
6560,1776
6561,1776
6562,1801
6563,1858
6564,1881
6565,1871
6566,1872
6567,1857
6568,1876
6569,1870
6570,1878
6571,1918
6572,1946
6573,1890
6574,1861
6575,1829
6576,1809
6577,1770
6578,1776
6579,1828
6580,1884
6581,1889
6582,1870
6583,1878
6584,1875
6585,1888
6586,1865
6587,1918
6588,1938
6589,1925
6590,1883
6591,1854
6592,1853
6593,1817
6594,1777
6595,1778
6596,1871
6597,1850
6598,1857
6599,1875
6600,1855
6601,1860
6602,1871
6603,1873
6604,1924
6605,1958
6606,1897
6607,1865
6608,1853
6609,1823
6610,1776
6611,1767
6612,1811
6613,1869
6614,1847
6615,1862
6616,1874
6617,1856
6618,1898
6619,1875
6620,1895
6621,1930
6622,1936
6623,1879
6624,1855
6625,1808
6626,1805
6627,1763
6628,1776
6629,1856
6630,1864
6631,1901
6632,1873
6633,1886
6634,1878
6635,1875
6636,1868
6637,1914
6638,1966
6639,1904
6640,1894
6641,1841
6642,1826
6643,1808
6644,1757
6645,1780
6646,1829
6647,1875
6648,1863
6649,1867
6650,1891
6651,1881
6652,1883
6653,1874
6654,1921
6655,1911
6656,1882
6657,1865
6658,1823
6659,1796
6660,1771
6661,1753
6662,1808
6663,1879
6664,1872
6665,1870
6666,1873
6667,1877
6668,1890
6669,1879
6670,1892
6671,1973
6672,1921
6673,1885
6674,1854
6675,1837
6676,1799
6677,1765
6678,1776
6679,1824
6680,1882
6681,1872
6682,1872
6683,1861
6684,1867
6685,1862
6686,1856
6687,1923
6688,1957
6689,1931
6690,1874
6691,1854
6692,1840
6693,1774
6694,1762
6695,1793
6696,1856
6697,1874
6698,1890
6699,1874
6700,1849
6701,1882
6702,1878
6703,1872
6704,1950
6705,1934
6706,1895
6707,1849
6708,1851
6709,1795
6710,1775
6711,1769
6712,1803
6713,1872
6714,1872
6715,1865
6716,1856
6717,1865
6718,1856
6719,1870
6720,1887
6721,1943
6722,1920
6723,1888
6724,1846
6725,1854
6726,1791
6727,1772
6728,1786
6729,1845
6730,1891
6731,1867
6732,1876
6733,1873
6734,1864
6735,1876
6736,1882
6737,1931
6738,1946
6739,1905
6740,1867
6741,1843
6742,1814
6743,1776
6744,1762
6745,1782
6746,1845
6747,1872
6748,1870
6749,1872
6750,1877
6751,1895
6752,1886
6753,1875
6754,1955
6755,1918
6756,1882
6757,1872
6758,1821
6759,1812
6760,1776
6761,1781
6762,1804
6763,1856
6764,1871
6765,1852
6766,1869
6767,1877
6768,1909
6769,1867
6770,1904
6771,1947
6772,1946
6773,1886
6774,1856
6775,1823
6776,1840
6777,1762
6778,1776
6779,1821
6780,1858
6781,1888
6782,1876
6783,1873
6784,1872
6785,1881
6786,1863
6787,1937
6788,1948
6789,1934
6790,1876
6791,1830
6792,1842
6793,1827
6794,1766
6795,1776
6796,1855
6797,1872
6798,1873
6799,1863
6800,1879
6801,1886
6802,1877
6803,1873
6804,1936
6805,1927
6806,1891
6807,1863
6808,1836
6809,1824
6810,1787
6811,1775
6812,1783
6813,1872
6814,1854
6815,1872
6816,1879
6817,1904
6818,1894
6819,1888
6820,1893
6821,1938
6822,1936
6823,1872
6824,1845
6825,1814
6826,1801
6827,1771
6828,1777
6829,1809
6830,1858
6831,1870
6832,1872
6833,1888
6834,1899
6835,1897
6836,1873
6837,1935
6838,1936
6839,1935
6840,1854
6841,1840
6842,1823
6843,1783
6844,1759
6845,1775
6846,1854
6847,1865
6848,1881
6849,1883
6850,1886
6851,1910
6852,1872
6853,1876
6854,1922
6855,1951
6856,1903
6857,1878
6858,1856
6859,1771
6860,1775
6861,1771
6862,1791
6863,1859
6864,1870
6865,1870
6866,1869
6867,1866
6868,1875
6869,1866
6870,1904
6871,1950
6872,1937
6873,1879
6874,1839
6875,1823
6876,1797
6877,1765
6878,1779
6879,1853
6880,1863
6881,1870
6882,1856
6883,1873
6884,1870
6885,1889
6886,1877
6887,1911
6888,1945
6889,1920
6890,1875
6891,1843
6892,1809
6893,1831
6894,1771
6895,1792
6896,1856
6897,1857
6898,1850
6899,1873
6900,1844
6901,1923
6902,1889
6903,1891
6904,1938
6905,1954
6906,1918
6907,1871
6908,1854
6909,1835
6910,1775
6911,1771
6912,1802
6913,1859
6914,1886
6915,1863
6916,1857
6917,1881
6918,1886
6919,1869
6920,1921
6921,1953
6922,1937
6923,1876
6924,1854
6925,1806
6926,1801
6927,1749
6928,1770
6929,1840
6930,1875
6931,1874
6932,1851
6933,1880
6934,1895
6935,1889
6936,1867
6937,1936
6938,1954
6939,1931
6940,1882
6941,1856
6942,1796
6943,1767
6944,1763
6945,1773
6946,1859
6947,1872
6948,1874
6949,1872
6950,1854
6951,1907
6952,1884
6953,1879
6954,1928
6955,1931
6956,1893
6957,1845
6958,1818
6959,1808
6960,1761
6961,1774
6962,1806
6963,1863
6964,1882
6965,1850
6966,1873
6967,1872
6968,1875
6969,1871
6970,1885
6971,1946
6972,1936
6973,1876
6974,1840
6975,1808
6976,1803
6977,1771
6978,1776
6979,1871
6980,1871
6981,1859
6982,1883
6983,1874
6984,1887
6985,1902
6986,1875
6987,1919
6988,1951
6989,1882
6990,1870
6991,1843
6992,1819
6993,1759
6994,1770
6995,1779
6996,1859
6997,1887
6998,1869
6999,1877
7000,1871
7001,1872
7002,1879
7003,1874
7004,1959
7005,1965
7006,1899
7007,1863
7008,1836
7009,1831
7010,1791
7011,1764
7012,1802
7013,1867
7014,1873
7015,1862
7016,1859
7017,1859
7018,1882
7019,1861
7020,1904
7021,1958
7022,1942
7023,1890
7024,1850
7025,1825
7026,1787
7027,1750
7028,1767
7029,1842
7030,1865
7031,1882
7032,1840
7033,1879
7034,1904
7035,1890
7036,1869
7037,1932
7038,1952
7039,1923
7040,1882
7041,1841
7042,1825
7043,1776
7044,1755
7045,1792
7046,1850
7047,1855
7048,1869
7049,1869
7050,1862
7051,1867
7052,1880
7053,1879
7054,1936
7055,1939
7056,1890
7057,1852
7058,1817
7059,1776
7060,1778
7061,1796
7062,1826
7063,1860
7064,1879
7065,1872
7066,1879
7067,1872
7068,1878
7069,1876
7070,1891
7071,1955
7072,1925
7073,1878
7074,1849
7075,1791
7076,1798
7077,1758
7078,1779
7079,1839
7080,1862
7081,1865
7082,1870
7083,1872
7084,1892
7085,1885
7086,1875
7087,1921
7088,1949
7089,1918
7090,1872
7091,1859
7092,1840
7093,1798
7094,1761
7095,1778
7096,1848
7097,1867
7098,1872
7099,1874
7100,1861
7101,1891
7102,1877
7103,1872
7104,1955
7105,1919
7106,1883
7107,1858
7108,1847
7109,1824
7110,1776
7111,1776
7112,1807
7113,1866
7114,1856
7115,1859
7116,1866
7117,1897
7118,1908
7119,1856
7120,1898
7121,1953
7122,1935
7123,1872
7124,1857
7125,1827
7126,1819
7127,1776
7128,1791
7129,1860
7130,1866
7131,1875
7132,1857
7133,1886
7134,1915
7135,1883
7136,1872
7137,1936
7138,1947
7139,1919
7140,1856
7141,1846
7142,1806
7143,1798
7144,1783
7145,1788
7146,1859
7147,1873
7148,1864
7149,1839
7150,1890
7151,1894
7152,1875
7153,1887
7154,1970
7155,1936
7156,1885
7157,1863
7158,1835
7159,1817
7160,1785
7161,1781
7162,1799
7163,1872
7164,1872
7165,1866
7166,1853
7167,1885
7168,1862
7169,1869
7170,1904
7171,1938
7172,1943
7173,1883
7174,1839
7175,1825
7176,1796
7177,1772
7178,1785
7179,1849
7180,1856
7181,1872
7182,1863
7183,1858
7184,1872
7185,1873
7186,1880
7187,1941
7188,1950
7189,1914
7190,1874
7191,1837
7192,1823
7193,1787
7194,1765
7195,1791
7196,1844
7197,1842
7198,1860
7199,1882
7200,1866
7201,1861
7202,1880
7203,1879
7204,1923
7205,1926
7206,1887
7207,1869
7208,1858
7209,1819
7210,1775
7211,1778
7212,1829
7213,1855
7214,1891
7215,1877
7216,1858
7217,1890
7218,1900
7219,1871
7220,1895
7221,1947
7222,1938
7223,1887
7224,1847
7225,1808
7226,1789
7227,1755
7228,1776
7229,1858
7230,1864
7231,1877
7232,1866
7233,1872
7234,1878
7235,1892
7236,1874
7237,1930
7238,1936
7239,1910
7240,1868
7241,1836
7242,1822
7243,1777
7244,1763
7245,1769
7246,1851
7247,1856
7248,1872
7249,1873
7250,1888
7251,1898
7252,1873
7253,1887
7254,1952
7255,1931
7256,1902
7257,1853
7258,1806
7259,1805
7260,1771
7261,1774
7262,1799
7263,1875
7264,1860
7265,1845
7266,1875
7267,1890
7268,1891
7269,1888
7270,1930
7271,1968
7272,1925
7273,1878
7274,1826
7275,1838
7276,1758
7277,1759
7278,1776
7279,1877
7280,1903
7281,1888
7282,1920
7283,1878
7284,1889
7285,1875
7286,1863
7287,1904
7288,1923
7289,1874
7290,1850
7291,1841
7292,1803
7293,1761
7294,1754
7295,1795
7296,1860
7297,1863
7298,1878
7299,1895
7300,1876
7301,1902
7302,1867
7303,1893
7304,1911
7305,1925
7306,1904
7307,1867
7308,1850
7309,1776
7310,1760
7311,1779
7312,1815
7313,1861
7314,1873
7315,1888
7316,1861
7317,1874
7318,1872
7319,1863
7320,1902
7321,1947
7322,1918
7323,1873
7324,1839
7325,1837
7326,1810
7327,1769
7328,1779
7329,1857
7330,1856
7331,1862
7332,1887
7333,1866
7334,1856
7335,1889
7336,1876
7337,1936
7338,1940
7339,1927
7340,1890
7341,1815
7342,1808
7343,1793
7344,1790
7345,1786
7346,1861
7347,1861
7348,1873
7349,1872
7350,1899
7351,1892
7352,1883
7353,1883
7354,1926
7355,1914
7356,1899
7357,1854
7358,1854
7359,1826
7360,1776
7361,1776
7362,1812
7363,1866
7364,1899
7365,1877
7366,1856
7367,1872
7368,1894
7369,1881
7370,1910
7371,1959
7372,1907
7373,1871
7374,1856
7375,1824
7376,1802
7377,1759
7378,1776
7379,1834
7380,1890
7381,1872
7382,1872
7383,1871
7384,1875
7385,1878
7386,1878
7387,1936
7388,1943
7389,1919
7390,1864
7391,1821
7392,1807
7393,1782
7394,1767
7395,1791
7396,1859
7397,1900
7398,1871
7399,1875
7400,1894
7401,1895
7402,1873
7403,1893
7404,1971
7405,1919
7406,1857
7407,1823
7408,1829
7409,1798
7410,1763
7411,1776
7412,1803
7413,1843
7414,1872
7415,1867
7416,1863
7417,1887
7418,1875
7419,1865
7420,1914
7421,1950
7422,1913
7423,1872
7424,1829
7425,1846
7426,1802
7427,1761
7428,2145
7429,1306
7430,2104
7431,2334
7432,2265
7433,2224
7434,2096
7435,1903
7436,1776
7437,1839
7438,1867
7439,1810
7440,1745
7441,1729
7442,1702
7443,1697
7444,1766
7445,1809
7446,1904
7447,1926
7448,1931
7449,1936
7450,1938
7451,1904
7452,1867
7453,1838
7454,1888
7455,1882
7456,1845
7457,1787
7458,1805
7459,2359
7460,912
7461,1941
7462,2245
7463,2240
7464,2192
7465,2011
7466,1822
7467,1770
7468,1847
7469,1889
7470,1887
7471,1852
7472,1792
7473,1811
7474,1863
7475,1897
7476,1872
7477,1842
7478,1863
7479,1956
7480,1939
7481,1904
7482,1829
7483,1808
7484,1790
7485,1806
7486,1811
7487,1875
7488,1926
7489,1888
7490,2271
7491,828
7492,1974
7493,2255
7494,2129
7495,2064
7496,1952
7497,1792
7498,1749
7499,1892
7500,1941
7501,1835
7502,1729
7503,1808
7504,1936
7505,1990
7506,1967
7507,1936
7508,1911
7509,1875
7510,1814
7511,1793
7512,1799
7513,1762
7514,1781
7515,1783
7516,1818
7517,1853
7518,1871
7519,1862
7520,1921
7521,1952
7522,525
7523,1925
7524,2349
7525,2223
7526,2118
7527,1886
7528,1721
7529,1829
7530,1995
7531,1947
7532,1747
7533,1712
7534,1867
7535,1898
7536,1921
7537,2017
7538,2014
7539,1972
7540,1918
7541,1873
7542,1825
7543,1721
7544,1691
7545,1717
7546,1806
7547,1837
7548,1846
7549,1857
7550,1855
7551,1887
7552,1875
7553,304
7554,1995
7555,2453
7556,2321
7557,2192
7558,1930
7559,1742
7560,1805
7561,1925
7562,1885
7563,1704
7564,1725
7565,1826
7566,1926
7567,1943
7568,1946
7569,1935
7570,1963
7571,1983
7572,1900
7573,1829
7574,1747
7575,1714
7576,1727
7577,1727
7578,1769
7579,1809
7580,1856
7581,1879
7582,1883
7583,1872
7584,80
7585,1717
7586,2320
7587,2384
7588,2259
7589,1951
7590,1800
7591,1961
7592,2019
7593,1826
7594,1640
7595,1699
7596,1871
7597,1920
7598,1936
7599,1936
7600,1951
7601,1917
7602,1903
7603,1863
7604,1839
7605,1811
7606,1792
7607,1803
7608,1791
7609,1776
7610,1750
7611,1780
7612,1826
7613,1899
7614,1878
7615,142
7616,1584
7617,2257
7618,2302
7619,2110
7620,1853
7621,1887
7622,2119
7623,2176
7624,1904
7625,1703
7626,1715
7627,1774
7628,1842
7629,1919
7630,1934
7631,1939
7632,1918
7633,1873
7634,1831
7635,1768
7636,1786
7637,1871
7638,1934
7639,1868
7640,1821
7641,1807
7642,1769
7643,1755
7644,1776
7645,1795
7646,782
7647,1409
7648,2176
7649,2295
7650,2036
7651,1722
7652,1783
7653,2138
7654,2302
7655,2095
7656,1859
7657,1863
7658,1912
7659,1925
7660,1890
7661,1883
7662,1921
7663,1882
7664,1807
7665,1744
7666,1732
7667,1782
7668,1792
7669,1795
7670,1880
7671,1953
7672,1974
7673,1893
7674,1858
7675,1850
7676,1813
7677,1701
7678,1147
7679,2097
7680,2245
7681,2000
7682,1603
7683,1798
7684,2183
7685,2264
7686,2080
7687,1946
7688,1958
7689,2015
7690,1989
7691,1970
7692,1917
7693,1839
7694,1749
7695,1711
7696,1699
7697,1740
7698,1775
7699,1798
7700,1826
7701,1855
7702,1881
7703,1914
7704,1959
7705,1907
7706,1889
7707,1868
7708,2347
7709,1117
7710,1967
7711,2131
7712,1915
7713,1535
7714,1802
7715,2158
7716,2259
7717,2121
7718,1897
7719,1921
7720,2065
7721,2139
7722,2064
7723,1986
7724,1892
7725,1779
7726,1630
7727,1594
7728,1651
7729,1751
7730,1786
7731,1793
7732,1833
7733,1887
7734,1904
7735,1917
7736,1888
7737,1939
7738,1968
7739,2593
7740,937
7741,2000
7742,2207
7743,1897
7744,1437
7745,1712
7746,2140
7747,2245
7748,2123
7749,1894
7750,1910
7751,2021
7752,2079
7753,2081
7754,2079
7755,1972
7756,1792
7757,1685
7758,1663
7759,1662
7760,1697
7761,1723
7762,1776
7763,1807
7764,1866
7765,1882
7766,1895
7767,1887
7768,1884
7769,1857
7770,2039
7771,594
7772,1973
7773,2219
7774,1968
7775,1534
7776,1661
7777,2085
7778,2226
7779,2192
7780,1930
7781,1914
7782,1980
7783,2033
7784,2053
7785,1987
7786,1904
7787,1855
7788,1763
7789,1731
7790,1751
7791,1781
7792,1782
7793,1774
7794,1760
7795,1792
7796,1845
7797,1858
7798,1875
7799,1872
7800,1888
7801,1904
7802,335
7803,1919
7804,2336
7805,2096
7806,1646
7807,1737
7808,2112
7809,2174
7810,2064
7811,1811
7812,1839
7813,1982
7814,2073
7815,2034
7816,1981
7817,1904
7818,1776
7819,1714
7820,1783
7821,1872
7822,1863
7823,1818
7824,1807
7825,1787
7826,1791
7827,1780
7828,1800
7829,1861
7830,1851
7831,1883
7832,1892
7833,114
7834,1824
7835,2234
7836,2068
7837,1715
7838,1749
7839,2179
7840,2269
7841,2192
7842,1886
7843,1808
7844,1904
7845,1966
7846,2019
7847,2007
7848,1900
7849,1763
7850,1708
7851,1722
7852,1766
7853,1843
7854,1926
7855,1915
7856,1884
7857,1871
7858,1856
7859,1790
7860,1771
7861,1791
7862,1841
7863,1855
7864,0
7865,1642
7866,2209
7867,2154
7868,1776
7869,1632
7870,2135
7871,2342
7872,2265
7873,1975
7874,1856
7875,1917
7876,1955
7877,1947
7878,1924
7879,1904
7880,1766
7881,1711
7882,1733
7883,1767
7884,1826
7885,1843
7886,1855
7887,1936
7888,1949
7889,1908
7890,1855
7891,1840
7892,1806
7893,1770
7894,1775
7895,154
7896,1488
7897,2192
7898,2174
7899,1814
7900,1615
7901,2043
7902,2234
7903,2289
7904,2091
7905,1955
7906,2002
7907,2000
7908,1991
7909,1954
7910,1815
7911,1697
7912,1694
7913,1707
7914,1733
7915,1821
7916,1815
7917,1854
7918,1862
7919,1855
7920,1926
7921,1958
7922,1916
7923,1887
7924,1856
7925,1823
7926,487
7927,1328
7928,2054
7929,2112
7930,1771
7931,1554
7932,2093
7933,2261
7934,2261
7935,2009
7936,1883
7937,2028
7938,2127
7939,2095
7940,2003
7941,1906
7942,1776
7943,1629
7944,1622
7945,1675
7946,1787
7947,1859
7948,1875
7949,1822
7950,1807
7951,1898
7952,1914
7953,1940
7954,1966
7955,1951
7956,1897
7957,1917
7958,1223
7959,2010
7960,2085
7961,1787
7962,1516
7963,1978
7964,2224
7965,2256
7966,2087
7967,1871
7968,1959
7969,2009
7970,2094
7971,2096
7972,1979
7973,1824
7974,1680
7975,1645
7976,1635
7977,1694
7978,1747
7979,1855
7980,1866
7981,1877
7982,1886
7983,1904
7984,1911
7985,1879
7986,1885
7987,1941
7988,2693
7989,1006
7990,2029
7991,2179
7992,1846
7993,1413
7994,1760
7995,2171
7996,2311
7997,2097
7998,1876
7999,1919
8000,2030
8001,2055
8002,2041
8003,1997
8004,1917
8005,1769
8006,1727
8007,1723
8008,1744
8009,1724
8010,1736
8011,1765
8012,1815
8013,1879
8014,1883
8015,1883
8016,1856
8017,1886
8018,1899
8019,2340
8020,725
8021,2082
8022,2289
8023,1973
8024,1535
8025,1791
8026,2118
8027,2186
8028,2003
8029,1860
8030,1895
8031,1997
8032,2063
8033,2039
8034,1941
8035,1840
8036,1733
8037,1779
8038,1818
8039,1830
8040,1840
8041,1853
8042,1808
8043,1737
8044,1717
8045,1791
8046,1882
8047,1903
8048,1889
8049,1918
8050,1897
8051,1917
8052,1869
8053,1919
8054,1936
8055,1917
8056,1895
8057,1840
8058,1875
8059,1808
8060,1755
8061,1775
8062,1826
8063,1868
8064,1875
8065,1851
8066,1888
8067,1853
8068,1885
8069,1872
8070,1939
8071,1938
8072,1899
8073,1870
8074,1838
8075,1839
8076,1781
8077,1766
8078,1779
8079,1847
8080,1902
8081,1883
8082,1890
8083,1872
8084,1885
8085,1867
8086,1874
8087,1934
8088,1925
8089,1902
8090,1840
8091,1838
8092,1782
8093,1766
8094,1769
8095,1818
8096,1851
8097,1857
8098,1875
8099,1862
8100,1905
8101,1895
8102,1859
8103,1895
8104,1941
8105,1904
8106,1887
8107,1812
8108,1806
8109,1792
8110,1744
8111,1776
8112,1863
8113,1873
8114,1871
8115,1869
8116,1877
8117,1878
8118,1877
8119,1850
8120,1934
8121,1938
8122,1884
8123,1855
8124,1847
8125,1808
8126,1763
8127,1765
8128,1783
8129,1855
8130,1869
8131,1857
8132,1878
8133,1897
8134,1903
8135,1877
8136,1878
8137,1926
8138,1929
8139,1883
8140,1850
8141,1835
8142,1770
8143,1777
8144,1776
8145,1819
8146,1857
8147,1859
8148,1872
8149,1870
8150,1873
8151,1863
8152,1882
8153,1932
8154,1937
8155,1919
8156,1872
8157,1872
8158,1809
8159,1792
8160,1759
8161,1783
8162,1846
8163,1887
8164,1863
8165,1876
8166,1865
8167,1887
8168,1893
8169,1883
8170,1936
8171,1956
8172,1903
8173,1844
8174,1825
8175,1820
8176,1764
8177,1772
8178,1825
8179,1863
8180,1886
8181,1872
8182,1881
8183,1879
8184,1897
8185,1872
8186,1874
8187,1939
8188,1907
8189,1890
8190,1858
8191,1830
8192,1810
8193,1772
8194,1765
8195,1836
8196,1875
8197,1853
8198,1872
8199,1872
8200,1872
8201,1887
8202,1877
8203,1910
8204,1943
8205,1926
8206,1885
8207,1853
8208,1832
8209,1776
8210,1763
8211,1783
8212,1855
8213,1856
8214,1856
8215,1871
8216,1869
8217,1890
8218,1879
8219,1859
8220,1931
8221,1942
8222,1902
8223,1871
8224,1843
8225,1829
8226,1779
8227,1751
8228,1773
8229,1852
8230,1869
8231,1872
8232,1857
8233,1872
8234,1878
8235,1872
8236,1887
8237,1968
8238,1933
8239,1890
8240,1867
8241,1826
8242,1826
8243,1774
8244,1779
8245,1813
8246,1867
8247,1872
8248,1837
8249,1874
8250,1890
8251,1883
8252,1862
8253,1902
8254,1949
8255,1925
8256,1882
8257,1839
8258,1851
8259,1819
8260,1758
8261,1783
8262,1869
8263,1870
8264,1879
8265,1872
8266,1872
8267,1879
8268,1881
8269,1872
8270,1922
8271,1943
8272,1919
8273,1856
8274,1840
8275,1826
8276,1778
8277,1776
8278,1801
8279,1856
8280,1887
8281,1855
8282,1866
8283,1875
8284,1893
8285,1875
8286,1883
8287,1963
8288,1937
8289,1876
8290,1856
8291,1847
8292,1807
8293,1774
8294,1775
8295,1805
8296,1873
8297,1858
8298,1858
8299,1871
8300,1862
8301,1876
8302,1870
8303,1910
8304,1951
8305,1913
8306,1875
8307,1845
8308,1806
8309,1801
8310,1760
8311,1778
8312,1822
8313,1862
8314,1853
8315,1856
8316,1861
8317,1853
8318,1885
8319,1876
8320,1936
8321,1936
8322,1891
8323,1871
8324,1808
8325,1840
8326,1783
8327,1761
8328,1789
8329,1863
8330,1887
8331,1877
8332,1865
8333,1883
8334,1871
8335,1871
8336,1874
8337,1957
8338,1919
8339,1877
8340,1840
8341,1842
8342,1815
8343,1775
8344,1776
8345,1810
8346,1854
8347,1863
8348,1882
8349,1874
8350,1867
8351,1887
8352,1857
8353,1931
8354,1957
8355,1935
8356,1890
8357,1840
8358,1821
8359,1797
8360,1764
8361,1779
8362,1862
8363,1854
8364,1872
8365,1856
8366,1873
8367,1922
8368,1878
8369,1872
8370,1930
8371,1951
8372,1925
8373,1845
8374,1855
8375,1810
8376,1776
8377,1771
8378,1802
8379,1868
8380,1887
8381,1874
8382,1867
8383,1872
8384,1892
8385,1872
8386,1891
8387,1954
8388,1931
8389,1879
8390,1851
8391,1829
8392,1776
8393,1773
8394,1776
8395,1830
8396,1867
8397,1894
8398,1864
8399,1867
8400,1872
8401,1898
8402,1863
8403,1913
8404,1954
8405,1895
8406,1873
8407,1819
8408,1845
8409,1789
8410,1778
8411,1783
8412,1877
8413,1879
8414,1867
8415,1874
8416,1888
8417,1867
8418,1886
8419,1874
8420,1924
8421,1978
8422,1894
8423,1871
8424,1839
8425,1811
8426,1781
8427,1754
8428,1792
8429,1851
8430,1862
8431,1861
8432,1878
8433,1874
8434,1870
8435,1878
8436,1890
8437,1955
8438,1905
8439,1889
8440,1868
8441,1842
8442,1791
8443,1774
8444,1776
8445,1809
8446,1857
8447,1883
8448,1857
8449,1869
8450,1899
8451,1889
8452,1877
8453,1927
8454,1951
8455,1903
8456,1883
8457,1851
8458,1796
8459,1762
8460,1759
8461,1780
8462,1847
8463,1872
8464,1888
8465,1870
8466,1885
8467,1885
8468,1880
8469,1872
8470,1919
8471,1905
8472,1904
8473,1857
8474,1845
8475,1849
8476,1792
8477,1783
8478,1786
8479,1854
8480,1863
8481,1863
8482,1856
8483,1881
8484,1862
8485,1871
8486,1886
8487,1919
8488,1915
8489,1889
8490,1858
8491,1831
8492,1819
8493,1767
8494,1778
8495,1823
8496,1842
8497,1872
8498,1883
8499,1889
8500,1878
8501,1877
8502,1858
8503,1914
8504,1949
8505,1907
8506,1876
8507,1839
8508,1809
8509,1783
8510,1763
8511,1779
8512,1863
8513,1859
8514,1873
8515,1857
8516,1872
8517,1872
8518,1872
8519,1872
8520,1937
8521,1927
8522,1899
8523,1872
8524,1853
8525,1808
8526,1784
8527,1763
8528,1789
8529,1857
8530,1872
8531,1883
8532,1860
8533,1869
8534,1861
8535,1883
8536,1902
8537,1952
8538,1933
8539,1884
8540,1869
8541,1834
8542,1807
8543,1773
8544,1776
8545,1807
8546,1840
8547,1872
8548,1851
8549,1853
8550,1886
8551,1886
8552,1869
8553,1914
8554,1950
8555,1920
8556,1854
8557,1845
8558,1819
8559,1797
8560,1765
8561,1779
8562,1861
8563,1862
8564,1873
8565,1881
8566,1866
8567,1899
8568,1879
8569,1877
8570,1931
8571,1933
8572,1909
8573,1867
8574,1839
8575,1808
8576,1761
8577,1782
8578,1780
8579,1858
8580,1876
8581,1872
8582,1861
8583,1870
8584,1913
8585,1885
8586,1897
8587,1952
8588,1918
8589,1888
8590,1840
8591,1827
8592,1807
8593,1767
8594,1777
8595,1798
8596,1843
8597,1866
8598,1870
8599,1882
8600,1878
8601,1889
8602,1866
8603,1936
8604,1950
8605,1911
8606,1869
8607,1840
8608,1803
8609,1798
8610,1755
8611,1779
8612,1851
8613,1881
8614,1872
8615,1877
8616,1885
8617,1901
8618,1877
8619,1877
8620,1936
8621,1939
8622,1921
8623,1875
8624,1840
8625,1811
8626,1794
8627,1776
8628,1791
8629,1866
8630,1895
8631,1881
8632,1881
8633,1899
8634,1878
8635,1870
8636,1899
8637,1950
8638,1959
8639,1873
8640,1847
8641,1814
8642,1811
8643,1766
8644,1779
8645,1813
8646,1857
8647,1881
8648,1879
8649,1867
8650,1904
8651,1871
8652,1872
8653,1926
8654,1954
8655,1917
8656,1872
8657,1833
8658,1840
8659,1779
8660,1763
8661,1799
8662,1855
8663,1857
8664,1882
8665,1857
8666,1879
8667,1883
8668,1869
8669,1872
8670,1933
8671,1922
8672,1902
8673,1845
8674,1821
8675,1814
8676,1774
8677,1770
8678,1812
8679,1866
8680,1862
8681,1878
8682,1876
8683,1886
8684,1866
8685,1890
8686,1918
8687,1953
8688,1918
8689,1885
8690,1835
8691,1843
8692,1814
8693,1760
8694,1775
8695,1835
8696,1860
8697,1860
8698,1845
8699,1889
8700,1887
8701,1877
8702,1871
8703,1937
8704,1936
8705,1899
8706,1874
8707,1839
8708,1805
8709,1818
8710,1766
8711,1793
8712,1850
8713,1897
8714,1863
8715,1857
8716,1905
8717,1851
8718,1874
8719,1873
8720,1937
8721,1936
8722,1877
8723,1882
8724,1856
8725,1817
8726,1783
8727,1779
8728,1783
8729,1870
8730,1875
8731,1873
8732,1877
8733,1885
8734,1910
8735,1872
8736,1886
8737,1952
8738,1909
8739,1878
8740,1863
8741,1826
8742,1838
8743,1762
8744,1780
8745,1843
8746,1872
8747,1884
8748,1866
8749,1873
8750,1877
8751,1882
8752,1867
8753,1922
8754,1945
8755,1917
8756,1872
8757,1838
8758,1808
8759,1777
8760,1763
8761,1795
8762,1859
8763,1866
8764,1863
8765,1867
8766,1888
8767,1878
8768,1872
8769,1879
8770,1925
8771,1932
8772,1904
8773,1872
8774,1826
8775,1822
8776,1769
8777,1762
8778,1808
8779,1853
8780,1863
8781,1882
8782,1880
8783,1872
8784,1878
8785,1872
8786,1894
8787,1950
8788,1917
8789,1876
8790,1846
8791,1823
8792,1781
8793,1760
8794,1779
8795,1811
8796,1851
8797,1856
8798,1857
8799,1890
8800,1904
8801,1892
8802,1887
8803,1947
8804,1955
8805,1904
8806,1866
8807,1831
8808,1802
8809,1808
8810,1779
8811,1771
8812,1854
8813,1878
8814,1871
8815,1858
8816,1848
8817,1853
8818,1870
8819,1872
8820,1927
8821,1922
8822,1888
8823,1862
8824,1840
8825,1821
8826,1775
8827,1763
8828,1829
8829,1872
8830,1872
8831,1862
8832,1872
8833,1872
8834,1879
8835,1873
8836,1914
8837,1940
8838,1934
8839,1887
8840,1840
8841,1859
8842,1783
8843,1768
8844,1780
8845,1812
8846,1854
8847,1865
8848,1875
8849,1859
8850,1890
8851,1885
8852,1869
8853,1939
8854,1949
8855,1900
8856,1873
8857,1827
8858,1804
8859,1799
8860,1776
8861,1788
8862,1857
8863,1858
8864,1875
8865,1862
8866,1873
8867,1898
8868,1878
8869,1881
8870,1950
8871,1939
8872,1887
8873,1845
8874,1815
8875,1773
8876,1771
8877,1782
8878,1791
8879,1858
8880,1878
8881,1872
8882,1875
8883,1857
8884,1890
8885,1872
8886,1930
8887,1950
8888,1928
8889,1890
8890,1858
8891,1829
8892,1783
8893,1761
8894,1778
8895,1839
8896,1883
8897,1870
8898,1877
8899,1863
8900,1893
8901,1879
8902,1863
8903,1918
8904,1950
8905,1889
8906,1871
8907,1824
8908,1840
8909,1783
8910,1776
8911,1776
8912,1855
8913,1878
8914,1872
8915,1872
8916,1898
8917,1891
8918,1883
8919,1874
8920,1959
8921,1964
8922,1888
8923,1869
8924,1842
8925,1815
8926,1778
8927,1781
8928,1805
8929,1853
8930,1867
8931,1861
8932,1856
8933,1868
8934,1883
8935,1866
8936,1904
8937,1948
8938,1914
8939,1867
8940,1833
8941,1812
8942,1786
8943,1772
8944,1780
8945,1827
8946,1851
8947,1874
8948,1866
8949,1873
8950,1857
8951,1872
8952,1874
8953,1918
8954,1946
8955,1915
8956,1850
8957,1854
8958,1811
8959,1798
8960,1765
8961,1776
8962,1855
8963,1886
8964,1872
8965,1872
8966,1881
8967,1879
8968,1877
8969,1872
8970,1949
8971,1920
8972,1903
8973,1848
8974,1838
8975,1801
8976,1769
8977,1787
8978,1806
8979,1882
8980,1863
8981,1873
8982,1869
8983,1874
8984,1877
8985,1873
8986,1910
8987,1957
8988,1911
8989,1875
8990,1851
8991,1837
8992,1799
8993,1773
8994,1778
8995,1827
8996,1860
8997,1869
8998,1861
8999,1901
9000,1883
9001,1888
9002,1874
9003,1942
9004,1953
9005,1924
9006,1869
9007,1837
9008,1801
9009,1775
9010,1758
9011,1773
9012,1850
9013,1867
9014,1871
9015,1858
9016,1900
9017,1870
9018,1862
9019,1879
9020,1927
9021,1945
9022,1911
9023,1858
9024,1840
9025,1808
9026,1755
9027,1764
9028,1831
9029,1863
9030,1872
9031,1867
9032,1861
9033,1893
9034,1905
9035,1873
9036,1907
9037,1962
9038,1925
9039,1879
9040,1840
9041,1799
9042,1808
9043,1758
9044,1780
9045,1861
9046,172
9047,1824
9048,2259
9049,2224
9050,2210
9051,2069
9052,1959
9053,1910
9054,1902
9055,1929
9056,1895
9057,1856
9058,1744
9059,1677
9060,1704
9061,1827
9062,1907
9063,1947
9064,1934
9065,1919
9066,1911
9067,1896
9068,1867
9069,1842
9070,1863
9071,1869
9072,1842
9073,1799
9074,1810
9075,1751
9076,1758
9077,21
9078,1657
9079,2224
9080,2221
9081,2094
9082,2026
9083,1939
9084,1845
9085,1887
9086,2030
9087,1993
9088,1827
9089,1758
9090,1831
9091,1920
9092,1900
9093,1852
9094,1863
9095,1917
9096,1918
9097,1887
9098,1859
9099,1777
9100,1744
9101,1766
9102,1791
9103,1892
9104,1926
9105,1905
9106,1842
9107,1840
9108,201
9109,1511
9110,2143
9111,2235
9112,2193
9113,2144
9114,1955
9115,1874
9116,1936
9117,1956
9118,1777
9119,1717
9120,1886
9121,1982
9122,1963
9123,1930
9124,1926
9125,1873
9126,1809
9127,1781
9128,1762
9129,1712
9130,1754
9131,1777
9132,1799
9133,1850
9134,1895
9135,1882
9136,1939
9137,1970
9138,1936
9139,1255
9140,1343
9141,2123
9142,2218
9143,2063
9144,1965
9145,1855
9146,1962
9147,2002
9148,2032
9149,1808
9150,1743
9151,1833
9152,1901
9153,2014
9154,2010
9155,1983
9156,1924
9157,1850
9158,1781
9159,1681
9160,1657
9161,1663
9162,1775
9163,1843
9164,1849
9165,1859
9166,1891
9167,1924
9168,1895
9169,1912
9170,1782
9171,1359
9172,2181
9173,2292
9174,2072
9175,1793
9176,1648
9177,1839
9178,1994
9179,2006
9180,1845
9181,1886
9182,1975
9183,1994
9184,2003
9185,1980
9186,1987
9187,1983
9188,1904
9189,1776
9190,1716
9191,1712
9192,1727
9193,1728
9194,1765
9195,1825
9196,1850
9197,1874
9198,1878
9199,1874
9200,1919
9201,2629
9202,879
9203,2129
9204,2346
9205,2128
9206,1811
9207,1710
9208,1936
9209,2058
9210,1969
9211,1789
9212,1855
9213,1961
9214,2031
9215,2063
9216,2000
9217,1998
9218,1894
9219,1835
9220,1803
9221,1789
9222,1786
9223,1806
9224,1799
9225,1773
9226,1753
9227,1778
9228,1838
9229,1862
9230,1871
9231,1866
9232,2368
9233,682
9234,1998
9235,2265
9236,2115
9237,1838
9238,1827
9239,2062
9240,2147
9241,2063
9242,1808
9243,1777
9244,1902
9245,2028
9246,2029
9247,1991
9248,1962
9249,1883
9250,1776
9251,1712
9252,1728
9253,1838
9254,1904
9255,1842
9256,1851
9257,1823
9258,1797
9259,1806
9260,1804
9261,1808
9262,1887
9263,1929
9264,327
9265,1910
9266,2279
9267,2092
9268,1756
9269,1723
9270,2081
9271,2249
9272,2171
9273,1936
9274,1829
9275,1904
9276,1931
9277,1943
9278,1941
9279,1950
9280,1867
9281,1755
9282,1724
9283,1744
9284,1811
9285,1813
9286,1903
9287,1939
9288,1929
9289,1879
9290,1855
9291,1806
9292,1767
9293,1767
9294,1791
9295,27
9296,1794
9297,2235
9298,2126
9299,1778
9300,1712
9301,2085
9302,2195
9303,2230
9304,2029
9305,1936
9306,1974
9307,2000
9308,1998
9309,1928
9310,1849
9311,1787
9312,1712
9313,1710
9314,1751
9315,1768
9316,1840
9317,1856
9318,1859
9319,1883
9320,1983
9321,1954
9322,1899
9323,1873
9324,1866
9325,1791
9326,0
9327,1614
9328,2162
9329,2099
9330,1754
9331,1638
9332,2071
9333,2218
9334,2208
9335,1970
9336,1945
9337,2061
9338,2118
9339,2070
9340,2000
9341,1882
9342,1766
9343,1630
9344,1613
9345,1685
9346,1782
9347,1812
9348,1833
9349,1858
9350,1885
9351,1882
9352,1885
9353,1949
9354,1966
9355,1922
9356,1865
9357,0
9358,1535
9359,2117
9360,2093
9361,1758
9362,1605
9363,2000
9364,2180
9365,2213
9366,1975
9367,1858
9368,1953
9369,2066
9370,2160
9371,2093
9372,1979
9373,1840
9374,1728
9375,1627
9376,1631
9377,1682
9378,1791
9379,1833
9380,1863
9381,1863
9382,1870
9383,1898
9384,1875
9385,1889
9386,1931
9387,1943
9388,511
9389,1477
9390,2144
9391,2167
9392,1791
9393,1466
9394,1889
9395,2182
9396,2239
9397,2028
9398,1857
9399,1955
9400,2058
9401,2059
9402,2019
9403,2067
9404,1946
9405,1781
9406,1694
9407,1694
9408,1723
9409,1739
9410,1760
9411,1766
9412,1821
9413,1842
9414,1865
9415,1889
9416,1899
9417,1873
9418,1875
9419,1227
9420,1372
9421,2192
9422,2244
9423,1879
9424,1506
9425,1872
9426,2103
9427,2154
9428,2011
9429,1861
9430,1953
9431,2032
9432,2075
9433,2062
9434,2003
9435,1872
9436,1789
9437,1776
9438,1769
9439,1777
9440,1777
9441,1776
9442,1776
9443,1749
9444,1788
9445,1855
9446,1889
9447,1880
9448,1883
9449,1879
9450,1746
9451,1195
9452,2128
9453,2299
9454,1969
9455,1584
9456,1941
9457,2185
9458,2240
9459,1972
9460,1757
9461,1856
9462,1996
9463,2059
9464,2054
9465,1995
9466,1894
9467,1789
9468,1699
9469,1760
9470,1863
9471,1887
9472,1840
9473,1832
9474,1823
9475,1834
9476,1769
9477,1779
9478,1808
9479,1871
9480,1894
9481,2559
9482,816
9483,2045
9484,2259
9485,2001
9486,1637
9487,1953
9488,2259
9489,2262
9490,2064
9491,1808
9492,1828
9493,1898
9494,1966
9495,2019
9496,1968
9497,1890
9498,1762
9499,1682
9500,1717
9501,1790
9502,1817
9503,1902
9504,1921
9505,1873
9506,1854
9507,1853
9508,1803
9509,1791
9510,1774
9511,1838
9512,2387
9513,732
9514,2003
9515,2265
9516,2000
9517,1591
9518,1828
9519,2192
9520,2366
9521,2181
9522,1883
9523,1857
9524,1936
9525,1938
9526,1936
9527,1894
9528,1876
9529,1766
9530,1696
9531,1728
9532,1787
9533,1822
9534,1855
9535,1845
9536,1940
9537,1934
9538,1920
9539,1866
9540,1822
9541,1799
9542,1803
9543,1879
9544,381
9545,1942
9546,2288
9547,2059
9548,1619
9549,1783
9550,2211
9551,2317
9552,2160
9553,1951
9554,1987
9555,2001
9556,2010
9557,2005
9558,1925
9559,1808
9560,1677
9561,1643
9562,1703
9563,1768
9564,1796
9565,1817
9566,1856
9567,1883
9568,1853
9569,1878
9570,1921
9571,1923
9572,1914
9573,1927
9574,1872
9575,138
9576,1762
9577,2175
9578,2041
9579,1648
9580,1703
9581,2144
9582,2301
9583,2208
9584,1923
9585,1870
9586,2001
9587,2094
9588,2070
9589,1995
9590,1880
9591,1710
9592,1621
9593,1603
9594,1697
9595,1797
9596,1808
9597,1838
9598,1841
9599,1917
9600,1898
9601,1889
9602,1885
9603,1964
9604,1966
9605,1920
9606,0
9607,1712
9608,2187
9609,2046
9610,1651
9611,1566
9612,2093
9613,2295
9614,2229
9615,1943
9616,1872
9617,1966
9618,2002
9619,2046
9620,2094
9621,1988
9622,1807
9623,1680
9624,1648
9625,1635
9626,1674
9627,1722
9628,1813
9629,1840
9630,1867
9631,1888
9632,1885
9633,1915
9634,1901
9635,1884
9636,1934
9637,9
9638,1664
9639,2244
9640,2121
9641,1764
9642,1524
9643,1969
9644,2209
9645,2247
9646,1985
9647,1850
9648,1931
9649,1986
9650,2043
9651,2006
9652,1938
9653,1871
9654,1814
9655,1723
9656,1735
9657,1749
9658,1753
9659,1729
9660,1727
9661,1789
9662,1870
9663,1906
9664,1878
9665,1905
9666,1913
9667,1920
9668,1901
9669,1911
9670,1965
9671,1947
9672,1890
9673,1853
9674,1826
9675,1809
9676,1770
9677,1779
9678,1859
9679,1858
9680,1872
9681,1882
9682,1867
9683,1889
9684,1889
9685,1879
9686,1921
9687,1946
9688,1917
9689,1865
9690,1822
9691,1811
9692,1782
9693,1763
9694,1771
9695,1851
9696,1893
9697,1872
9698,1871
9699,1905
9700,1891
9701,1883
9702,1878
9703,1926
9704,1938
9705,1911
9706,1849
9707,1825
9708,1795
9709,1766
9710,1778
9711,1794
9712,1844
9713,1872
9714,1851
9715,1876
9716,1885
9717,1883
9718,1871
9719,1915
9720,1947
9721,1945
9722,1875
9723,1849
9724,1835
9725,1798
9726,1758
9727,1775
9728,1837
9729,1856
9730,1882
9731,1862
9732,1879
9733,1867
9734,1883
9735,1859
9736,1937
9737,1943
9738,1900
9739,1854
9740,1840
9741,1822
9742,1747
9743,1776
9744,1809
9745,1831
9746,1871
9747,1873
9748,1858
9749,1857
9750,1840
9751,1871
9752,1875
9753,1936
9754,1934
9755,1901
9756,1854
9757,1836
9758,1797
9759,1776
9760,1783
9761,1789
9762,1869
9763,1875
9764,1854
9765,1897
9766,1862
9767,1879
9768,1853
9769,1891
9770,1955
9771,1932
9772,1875
9773,1840
9774,1814
9775,1786
9776,1755
9777,1776
9778,1845
9779,1844
9780,1850
9781,1867
9782,1897
9783,1918
9784,1920
9785,1899
9786,1960
9787,1947
9788,1891
9789,1841
9790,1811
9791,1808
9792,1777
9793,1757
9794,1764
9795,1847
9796,1854
9797,1856
9798,1865
9799,1883
9800,1882
9801,1872
9802,1874
9803,1939
9804,1933
9805,1886
9806,1845
9807,1834
9808,1828
9809,1781
9810,1776
9811,1793
9812,1864
9813,1893
9814,1885
9815,1879
9816,1893
9817,1899
9818,1889
9819,1904
9820,1957
9821,1939
9822,1882
9823,1871
9824,1842
9825,1778
9826,1763
9827,1776
9828,1854
9829,1859
9830,1880
9831,1858
9832,1883
9833,1869
9834,1872
9835,1870
9836,1929
9837,1926
9838,1891
9839,1868
9840,1811
9841,1813
9842,1783
9843,1759
9844,1786
9845,1846
9846,1867
9847,1856
9848,1872
9849,1866
9850,1871
9851,1874
9852,1879
9853,1927
9854,1917
9855,1894
9856,1847
9857,1838
9858,1824
9859,1776
9860,1775
9861,1803
9862,1857
9863,1858
9864,1868
9865,1889
9866,1867
9867,1877
9868,1847
9869,1887
9870,1953
9871,1926
9872,1876
9873,1859
9874,1859
9875,1771
9876,1770
9877,1776
9878,1823
9879,1863
9880,1872
9881,1891
9882,1875
9883,1882
9884,1885
9885,1879
9886,1945
9887,1931
9888,1891
9889,1847
9890,1839
9891,1791
9892,1786
9893,1764
9894,1776
9895,1861
9896,1863
9897,1877
9898,1865
9899,1889
9900,1866
9901,1869
9902,1872
9903,1917
9904,1936
9905,1881
9906,1847
9907,1839
9908,1808
9909,1776
9910,1774
9911,1817
9912,1853
9913,1856
9914,1883
9915,1887
9916,1869
9917,1891
9918,1868
9919,1909
9920,1949
9921,1929
9922,1861
9923,1841
9924,1808
9925,1783
9926,1771
9927,1777
9928,1808
9929,1872
9930,1878
9931,1860
9932,1873
9933,1867
9934,1881
9935,1872
9936,1953
9937,1936
9938,1920
9939,1866
9940,1833
9941,1808
9942,1760
9943,1773
9944,1783
9945,1860
9946,1888
9947,1867
9948,1872
9949,1910
9950,1878
9951,1876
9952,1885
9953,1962
9954,1957
9955,1883
9956,1853
9957,1819
9958,1808
9959,1770
9960,1776
9961,1837
9962,1873
9963,1872
9964,1861
9965,1885
9966,1889
9967,1894
9968,1879
9969,1922
9970,1945
9971,1950
9972,1887
9973,1849
9974,1825
9975,1766
9976,1754
9977,1787
9978,1811
9979,1869
9980,1881
9981,1873
9982,1870
9983,1917
9984,1874
9985,1872
9986,1921
9987,1933
9988,1909
9989,1874
9990,1834
9991,1813
9992,1776
9993,1770
9994,1806
9995,1856
9996,1859
9997,1865
9998,1858
9999,1879
10000,1881
10001,1872
10002,1890
10003,1904
10004,1965
10005,1895
10006,1867
10007,1846
10008,1837
10009,1772
10010,1778
10011,1809
10012,1854
10013,1872
10014,1852
10015,1851
10016,1872
10017,1854
10018,1866
10019,1903
10020,1951
10021,1936
10022,1885
10023,1850
10024,1844
10025,1786
10026,1755
10027,1777
10028,1877
10029,1843
10030,1865
10031,1890
10032,1887
10033,1870
10034,1877
10035,1878
10036,1954
10037,1938
10038,1891
10039,1872
10040,1856
10041,1810
10042,1808
10043,1774
10044,1803
10045,1856
10046,1862
10047,1845
10048,1887
10049,1875
10050,1887
10051,1866
10052,1891
10053,1933
10054,1922
10055,1888
10056,1843
10057,1845
10058,1825
10059,1767
10060,1777
10061,1833
10062,1845
10063,1882
10064,1883
10065,1849
10066,1886
10067,1901
10068,1872
10069,1916
10070,1968
10071,1919
10072,1882
10073,1854
10074,1840
10075,1783
10076,1751
10077,1780
10078,1807
10079,1863
10080,1881
10081,1851
10082,1877
10083,1899
10084,1881
10085,1872
10086,1931
10087,1917
10088,1904
10089,1868
10090,1840
10091,1838
10092,1781
10093,1762
10094,1793
10095,1854
10096,1869
10097,1880
10098,1872
10099,1882
10100,1872
10101,1872
10102,1893
10103,1927
10104,1951
10105,1882
10106,1837
10107,1813
10108,1769
10109,1761
10110,1772
10111,1797
10112,1854
10113,1868
10114,1868
10115,1856
10116,1882
10117,1893
10118,1877
10119,1921
10120,1951
10121,1922
10122,1881
10123,1839
10124,1812
10125,1778
10126,1760
10127,1777
10128,1824
10129,1861
10130,1870
10131,1847
10132,1893
10133,1904
10134,1877
10135,1873
10136,1949
10137,1968
10138,1890
10139,1844
10140,1810
10141,1808
10142,1779
10143,1759
10144,1814
10145,1856
10146,1863
10147,1874
10148,1856
10149,1895
10150,1873
10151,1888
10152,1902
10153,1945
10154,1930
10155,1883
10156,1849
10157,1815
10158,1772
10159,1767
10160,1779
10161,1837
10162,1862
10163,1875
10164,1855
10165,1853
10166,1858
10167,1883
10168,1868
10169,1920
10170,1951
10171,1923
10172,1865
10173,1850
10174,1812
10175,1801
10176,1774
10177,1792
10178,1849
10179,1863
10180,1870
10181,1867
10182,1872
10183,1831
10184,1879
10185,1872
10186,1927
10187,1952
10188,1907
10189,1856
10190,1831
10191,1808
10192,1776
10193,1757
10194,1793
10195,1859
10196,1877
10197,1879
10198,1883
10199,1895
10200,1887
10201,1861
10202,1892
10203,1941
10204,1937
10205,1877
10206,1856
10207,1805
10208,1791
10209,1767
10210,1779
10211,1846
10212,1856
10213,1870
10214,1887
10215,1882
10216,1883
10217,1872
10218,1871
10219,1934
10220,1941
10221,1917
10222,1887
10223,1853
10224,1799
10225,1783
10226,1763
10227,1777
10228,1850
10229,1872
10230,1855
10231,1872
10232,1853
10233,1863
10234,1891
10235,1884
10236,1939
10237,1899
10238,1901
10239,1859
10240,1841
10241,1798
10242,1775
10243,1757
10244,1791
10245,1874
10246,1846
10247,1861
10248,1853
10249,1889
10250,1885
10251,1872
10252,1899
10253,1951
10254,1936
10255,1879
10256,1855
10257,1824
10258,1781
10259,1744
10260,1761
10261,1791
10262,1862
10263,1873
10264,1857
10265,1895
10266,1889
10267,1904
10268,1885
10269,1926
10270,1969
10271,1917
10272,1866
10273,1840
10274,1825
10275,1783
10276,1766
10277,1790
10278,1861
10279,1886
10280,1871
10281,1872
10282,1859
10283,1870
10284,1870
10285,1867
10286,1917
10287,1921
10288,1909
10289,1882
10290,1849
10291,1835
10292,1776
10293,1774
10294,1807
10295,1870
10296,1870
10297,1870
10298,1858
10299,1875
10300,1904
10301,1872
10302,1915
10303,1953
10304,1921
10305,1877
10306,1847
10307,1833
10308,1753
10309,1772
10310,1776
10311,1843
10312,1889
10313,1867
10314,1856
10315,1866
10316,1855
10317,1879
10318,1875
10319,1940
10320,1952
10321,1891
10322,1866
10323,1840
10324,1799
10325,1793
10326,1773
10327,1788
10328,1860
10329,1875
10330,1869
10331,1889
10332,1871
10333,1872
10334,1882
10335,1874
10336,1933
10337,1934
10338,1904
10339,1870
10340,1855
10341,1795
10342,1776
10343,1761
10344,1800
10345,1871
10346,1866
10347,1872
10348,1861
10349,1868
10350,1885
10351,1858
10352,1904
10353,1950
10354,1942
10355,1881
10356,1870
10357,1836
10358,1827
10359,1761
10360,1776
10361,1829
10362,1861
10363,1879
10364,1877
10365,1871
10366,1891
10367,1893
10368,1887
10369,1919
10370,1947
10371,1902
10372,1871
10373,1810
10374,1809
10375,1792
10376,1763
10377,1797
10378,1841
10379,1853
10380,1879
10381,1870
10382,1881
10383,1888
10384,1883
10385,1874
10386,1942
10387,1939
10388,1901
10389,1854
10390,1844
10391,1821
10392,1782
10393,1771
10394,1814
10395,1869
10396,1897
10397,1856
10398,1883
10399,1876
10400,1872
10401,1867
10402,1898
10403,1956
10404,1921
10405,1875
10406,1806
10407,1837
10408,1791
10409,1766
10410,1774
10411,1857
10412,1872
10413,1869
10414,1885
10415,1879
10416,1872
10417,1878
10418,1863
10419,1936
10420,1936
10421,1931
10422,1877
10423,1846
10424,1794
10425,1791
10426,1760
10427,1793
10428,1866
10429,1856
10430,1853
10431,1881
10432,1880
10433,1889
10434,1871
10435,1873
10436,1919
10437,1945
10438,1892
10439,1840
10440,1824
10441,1808
10442,1772
10443,1771
10444,1826
10445,1872
10446,1858
10447,1873
10448,1867
10449,1903
10450,1887
10451,1876
10452,1904
10453,1943
10454,1915
10455,1870
10456,1831
10457,1856
10458,1771
10459,1760
10460,1777
10461,1829
10462,1856
10463,1885
10464,1869
10465,1862
10466,1871
10467,1871
10468,1871
10469,1919
10470,1957
10471,1919
10472,1877
10473,1853
10474,1849
10475,1799
10476,1763
10477,1788
10478,1843
10479,1853
10480,1866
10481,1878
10482,1875
10483,1882
10484,1872
10485,1875
10486,1936
10487,1941
10488,1889
10489,1865
10490,1850
10491,1822
10492,1773
10493,1767
10494,1808
10495,1866
10496,1881
10497,1860
10498,1862
10499,1887
10500,1908
10501,1873
10502,1918
10503,1936
10504,1901
10505,1871
10506,1843
10507,1821
10508,1771
10509,1761
10510,1778
10511,1824
10512,1863
10513,1865
10514,1874
10515,1863
10516,1855
10517,1899
10518,1886
10519,1931
10520,1942
10521,1918
10522,1876
10523,1840
10524,1823
10525,1772
10526,1771
10527,1771
10528,1863
10529,1872
10530,1870
10531,1886
10532,1851
10533,1894
10534,1867
10535,1868
10536,1921
10537,1937
10538,1884
10539,1859
10540,1818
10541,1815
10542,1766
10543,1783
10544,1809
10545,1867
10546,1863
10547,1873
10548,1862
10549,1889
10550,1883
10551,1878
10552,1914
10553,1953
10554,1931
10555,1886
10556,1845
10557,1822
10558,1797
10559,1760
10560,1767
10561,1807
10562,1845
10563,1881
10564,1871
10565,1890
10566,1915
10567,1894
10568,1874
10569,1947
10570,1934
10571,1900
10572,1867
10573,1833
10574,1841
10575,1789
10576,1769
10577,1795
10578,1850
10579,1855
10580,1862
10581,1834
10582,1847
10583,1856
10584,1863
10585,1879
10586,1954
10587,1932
10588,1884
10589,1854
10590,1840
10591,1825
10592,1764
10593,1779
10594,1808
10595,1880
10596,1905
10597,1877
10598,1867
10599,1911
10600,1905
10601,1904
10602,1950
10603,1968
10604,1962
10605,1873
10606,1805
10607,1791
10608,1775
10609,1745
10610,1774
10611,1808
10612,1888
10613,1858
10614,1845
10615,1854
10616,1877
10617,1856
10618,1862
10619,1965
10620,1968
10621,1936
10622,1870
10623,1845
10624,1797
10625,1785
10626,1749
10627,1752
10628,1839
10629,1852
10630,1869
10631,1872
10632,1907
10633,1875
10634,1894
10635,1915
10636,2005
10637,1931
10638,1882
10639,1847
10640,1794
10641,1787
10642,1744
10643,1776
10644,1813
10645,1850
10646,1872
10647,1853
10648,1855
10649,1871
10650,1883
10651,1879
10652,1911
10653,1974
10654,1921
10655,1876
10656,1839
10657,1821
10658,1791
10659,1759
10660,1793
10661,1885
10662,1882
10663,2534
10664,1291
10665,2065
10666,2291
10667,2226
10668,2189
10669,2182
10670,2063
10671,1883
10672,1827
10673,1765
10674,1685
10675,1663
10676,1690
10677,1707
10678,1754
10679,1823
10680,1849
10681,1904
10682,1919
10683,1990
10684,1997
10685,1981
10686,2010
10687,1935
10688,1782
10689,1741
10690,1766
10691,1759
10692,1741
10693,1737
10694,2443
10695,970
10696,2064
10697,2354
10698,2279
10699,2215
10700,2087
10701,1894
10702,1851
10703,1875
10704,1855
10705,1824
10706,1721
10707,1659
10708,1682
10709,1774
10710,1840
10711,1971
10712,1965
10713,1968
10714,1946
10715,1911
10716,1879
10717,1840
10718,1809
10719,1856
10720,1881
10721,1815
10722,1837
10723,1818
10724,1800
10725,1998
10726,629
10727,1921
10728,2341
10729,2253
10730,2174
10731,2013
10732,1839
10733,1808
10734,1880
10735,1951
10736,1920
10737,1826
10738,1792
10739,1845
10740,1888
10741,1906
10742,1850
10743,1853
10744,1892
10745,1901
10746,1845
10747,1808
10748,1778
10749,1781
10750,1805
10751,1795
10752,1888
10753,1961
10754,1904
10755,1904
10756,1858
10757,457
10758,1872
10759,2301
10760,2243
10761,2215
10762,1997
10763,1831
10764,1883
10765,1987
10766,1967
10767,1761
10768,1699
10769,1822
10770,1915
10771,1961
10772,1927
10773,1887
10774,1851
10775,1803
10776,1747
10777,1699
10778,1744
10779,1779
10780,1799
10781,1839
10782,1851
10783,1870
10784,1886
10785,1901
10786,1995
10787,1965
10788,309
10789,1881
10790,2279
10791,2122
10792,1904
10793,1631
10794,1739
10795,1978
10796,2128
10797,2019
10798,1843
10799,1903
10800,1978
10801,1994
10802,2077
10803,2054
10804,2002
10805,1935
10806,1834
10807,1707
10808,1664
10809,1664
10810,1700
10811,1791
10812,1817
10813,1856
10814,1863
10815,1872
10816,1874
10817,1893
10818,1890
10819,103
10820,1842
10821,2303
10822,2213
10823,2022
10824,1623
10825,1781
10826,2032
10827,2117
10828,1932
10829,1755
10830,1815
10831,1904
10832,1992
10833,2017
10834,1968
10835,1963
10836,1933
10837,1869
10838,1745
10839,1715
10840,1742
10841,1675
10842,1710
10843,1750
10844,1863
10845,1907
10846,1872
10847,1861
10848,1884
10849,1899
10850,144
10851,1601
10852,2239
10853,2254
10854,1968
10855,1575
10856,1862
10857,2182
10858,2198
10859,1969
10860,1771
10861,1835
10862,1958
10863,2000
10864,1999
10865,1978
10866,1935
10867,1853
10868,1737
10869,1757
10870,1817
10871,1840
10872,1803
10873,1798
10874,1818
10875,1787
10876,1790
10877,1783
10878,1843
10879,1879
10880,1872
10881,318
10882,1520
10883,2205
10884,2142
10885,1873
10886,1623
10887,1990
10888,2286
10889,2353
10890,2100
10891,1831
10892,1793
10893,1872
10894,1968
10895,2007
10896,1970
10897,1904
10898,1776
10899,1679
10900,1701
10901,1757
10902,1860
10903,1890
10904,1878
10905,1862
10906,1846
10907,1810
10908,1808
10909,1779
10910,1788
10911,1882
10912,1139
10913,1353
10914,2128
10915,2192
10916,1890
10917,1499
10918,1897
10919,2349
10920,2477
10921,2193
10922,1879
10923,1842
10924,1899
10925,1917
10926,1917
10927,1907
10928,1887
10929,1775
10930,1702
10931,1723
10932,1775
10933,1808
10934,1819
10935,1866
10936,1921
10937,1947
10938,1920
10939,1857
10940,1855
10941,1808
10942,1778
10943,2462
10944,1038
10945,2070
10946,2253
10947,1980
10948,1570
10949,1904
10950,2211
10951,2323
10952,2150
10953,1947
10954,1906
10955,1951
10956,1984
10957,1943
10958,1891
10959,1787
10960,1683
10961,1679
10962,1687
10963,1776
10964,1821
10965,1827
10966,1890
10967,1879
10968,1857
10969,1892
10970,1904
10971,1885
10972,1905
10973,1914
10974,2651
10975,895
10976,1963
10977,2130
10978,1887
10979,1530
10980,1814
10981,2213
10982,2384
10983,2167
10984,1862
10985,1901
10986,2045
10987,2055
10988,2027
10989,1948
10990,1863
10991,1740
10992,1597
10993,1617
10994,1715
10995,1789
10996,1819
10997,1837
10998,1855
10999,1839
11000,1894
11001,1886
11002,1931
11003,1978
11004,1905
11005,2256
11006,711
11007,1929
11008,2190
11009,1901
11010,1483
11011,1774
11012,2134
11013,2342
11014,2176
11015,1915
11016,1923
11017,1975
11018,2014
11019,2075
11020,2036
11021,1915
11022,1763
11023,1671
11024,1637
11025,1653
11026,1682
11027,1771
11028,1837
11029,1873
11030,1877
11031,1894
11032,1899
11033,1892
11034,1893
11035,1923
11036,2000
11037,464
11038,1935
11039,2215
11040,2019
11041,1574
11042,1647
11043,2071
11044,2320
11045,2176
11046,1892
11047,1883
11048,1968
11049,2004
11050,2022
11051,1969
11052,1947
11053,1843
11054,1741
11055,1711
11056,1712
11057,1773
11058,1769
11059,1761
11060,1790
11061,1862
11062,1873
11063,1872
11064,1872
11065,1885
11066,1921
11067,1892
11068,170
11069,1941
11070,2278
11071,2055
11072,1581
11073,1600
11074,2064
11075,2269
11076,2174
11077,1866
11078,1868
11079,1967
11080,2039
11081,2035
11082,2032
11083,1936
11084,1793
11085,1760
11086,1795
11087,1786
11088,1806
11089,1814
11090,1792
11091,1790
11092,1744
11093,1807
11094,1862
11095,1900
11096,1872
11097,1855
11098,1893
11099,0
11100,1733
11101,2274
11102,2215
11103,1818
11104,1648
11105,2069
11106,2264
11107,2273
11108,1867
11109,1769
11110,1861
11111,1985
11112,2017
11113,2003
11114,1906
11115,1802
11116,1751
11117,1706
11118,1749
11119,1856
11120,1893
11121,1856
11122,1838
11123,1829
11124,1808
11125,1776
11126,1802
11127,1840
11128,1873
11129,1874
11130,46
11131,1595
11132,2224
11133,2182
11134,1780
11135,1584
11136,2134
11137,2379
11138,2265
11139,1955
11140,1835
11141,1837
11142,1904
11143,1936
11144,1941
11145,1906
11146,1805
11147,1724
11148,1709
11149,1767
11150,1809
11151,1814
11152,1903
11153,1936
11154,1914
11155,1884
11156,1871
11157,1829
11158,1793
11159,1776
11160,1790
11161,647
11162,1420
11163,2190
11164,2211
11165,1863
11166,1535
11167,1991
11168,2282
11169,2407
11170,2110
11171,1905
11172,1938
11173,1962
11174,1953
11175,1910
11176,1815
11177,1746
11178,1702
11179,1715
11180,1735
11181,1827
11182,1852
11183,1855
11184,1853
11185,1887
11186,1957
11187,1959
11188,1895
11189,1858
11190,1815
11191,1808
11192,1113
11193,1233
11194,2128
11195,2195
11196,1838
11197,1485
11198,1965
11199,2295
11200,2336
11201,2036
11202,1936
11203,2026
11204,2028
11205,2044
11206,2000
11207,1909
11208,1742
11209,1605
11210,1626
11211,1716
11212,1771
11213,1810
11214,1833
11215,1859
11216,1872
11217,1872
11218,1889
11219,1973
11220,1936
11221,1906
11222,1876
11223,2592
11224,985
11225,1959
11226,2097
11227,1820
11228,1488
11229,1933
11230,2302
11231,2325
11232,2102
11233,1855
11234,1919
11235,2023
11236,2113
11237,2061
11238,1955
11239,1812
11240,1682
11241,1639
11242,1639
11243,1698
11244,1759
11245,1830
11246,1846
11247,1858
11248,1891
11249,1878
11250,1898
11251,1885
11252,1959
11253,1971
11254,2501
11255,839
11256,1984
11257,2224
11258,1887
11259,1426
11260,1738
11261,2223
11262,2338
11263,2112
11264,1842
11265,1919
11266,1978
11267,2037
11268,2036
11269,2021
11270,1926
11271,1771
11272,1665
11273,1671
11274,1687
11275,1697
11276,1744
11277,1793
11278,1860
11279,1888
11280,1847
11281,1904
11282,1893
11283,1904
11284,1888
11285,1926
11286,1959
11287,1949
11288,1887
11289,1863
11290,1838
11291,1805
11292,1770
11293,1782
11294,1840
11295,1872
11296,1882
11297,1854
11298,1882
11299,1871
11300,1879
11301,1872
11302,1926
11303,1963
11304,1888
11305,1861
11306,1840
11307,1808
11308,1776
11309,1776
11310,1793
11311,1859
11312,1861
11313,1872
11314,1872
11315,1892
11316,1890
11317,1873
11318,1881
11319,1958
11320,1931
11321,1875
11322,1841
11323,1840
11324,1774
11325,1773
11326,1776
11327,1841
11328,1872
11329,1867
11330,1867
11331,1869
11332,1859
11333,1888
11334,1859
11335,1914
11336,1945
11337,1902
11338,1878
11339,1836
11340,1798
11341,1790
11342,1759
11343,1775
11344,1808
11345,1878
11346,1866
11347,1857
11348,1886
11349,1871
11350,1892
11351,1866
11352,1951
11353,1947
11354,1904
11355,1873
11356,1835
11357,1827
11358,1776
11359,1767
11360,1806
11361,1845
11362,1875
11363,1866
11364,1855
11365,1874
11366,1872
11367,1867
11368,1875
11369,1962
11370,1937
11371,1891
11372,1847
11373,1833
11374,1794
11375,1764
11376,1774
11377,1808
11378,1861
11379,1858
11380,1887
11381,1870
11382,1872
11383,1899
11384,1879
11385,1892
11386,1941
11387,1939
11388,1875
11389,1853
11390,1809
11391,1793
11392,1762
11393,1778
11394,1814
11395,1869
11396,1857
11397,1867
11398,1856
11399,1899
11400,1878
11401,1872
11402,1946
11403,1946
11404,1906
11405,1865
11406,1846
11407,1827
11408,1787
11409,1749
11410,1781
11411,1860
11412,1885
11413,1855
11414,1869
11415,1879
11416,1887
11417,1872
11418,1887
11419,1939
11420,1923
11421,1893
11422,1840
11423,1834
11424,1798
11425,1760
11426,1773
11427,1826
11428,1869
11429,1845
11430,1859
11431,1863
11432,1871
11433,1893
11434,1871
11435,1915
11436,1936
11437,1920
11438,1879
11439,1841
11440,1863
11441,1797
11442,1760
11443,1778
11444,1882
11445,1872
11446,1873
11447,1874
11448,1865
11449,1893
11450,1878
11451,1872
11452,1930
11453,1944
11454,1894
11455,1846
11456,1847
11457,1797
11458,1774
11459,1754
11460,1776
11461,1859
11462,1877
11463,1857
11464,1862
11465,1856
11466,1856
11467,1874
11468,1887
11469,1954
11470,1941
11471,1888
11472,1840
11473,1862
11474,1796
11475,1763
11476,1774
11477,1808
11478,1863
11479,1843
11480,1883
11481,1875
11482,1873
11483,1885
11484,1863
11485,1911
11486,1949
11487,1911
11488,1883
11489,1839
11490,1831
11491,1776
11492,1760
11493,1779
11494,1814
11495,1875
11496,1888
11497,1875
11498,1839
11499,1872
11500,1878
11501,1874
11502,1936
11503,1942
11504,1904
11505,1870
11506,1826
11507,1818
11508,1775
11509,1765
11510,1778
11511,1871
11512,1885
11513,1873
11514,1847
11515,1888
11516,1895
11517,1861
11518,1886
11519,1984
11520,1938
11521,1898
11522,1842
11523,1836
11524,1798
11525,1759
11526,1776
11527,1839
11528,1861
11529,1875
11530,1883
11531,1897
11532,1879
11533,1873
11534,1859
11535,1915
11536,1947
11537,1906
11538,1869
11539,1839
11540,1805
11541,1785
11542,1753
11543,1781
11544,1838
11545,1862
11546,1847
11547,1862
11548,1875
11549,1843
11550,1882
11551,1877
11552,1939
11553,1947
11554,1919
11555,1855
11556,1842
11557,1806
11558,1765
11559,1771
11560,1790
11561,1842
11562,1855
11563,1865
11564,1879
11565,1872
11566,1872
11567,1872
11568,1887
11569,1950
11570,1923
11571,1887
11572,1871
11573,1851
11574,1781
11575,1755
11576,1771
11577,1813
11578,1829
11579,1862
11580,1875
11581,1888
11582,1883
11583,1899
11584,1866
11585,1929
11586,1941
11587,1911
11588,1859
11589,1840
11590,1824
11591,1763
11592,1767
11593,1779
11594,1843
11595,1886
11596,1872
11597,1887
11598,1877
11599,1882
11600,1877
11601,1874
11602,1930
11603,1939
11604,1897
11605,1848
11606,1840
11607,1791
11608,1776
11609,1759
11610,1783
11611,1867
11612,1875
11613,1866
11614,1859
11615,1922
11616,1899
11617,1862
11618,1888
11619,1965
11620,1931
11621,1888
11622,1857
11623,1843
11624,1805
11625,1765
11626,1776
11627,1825
11628,1851
11629,1878
11630,1902
11631,1898
11632,1872
11633,1891
11634,1870
11635,1910
11636,1937
11637,1914
11638,1872
11639,1811
11640,1831
11641,1805
11642,1771
11643,1790
11644,1856
11645,1866
11646,1865
11647,1853
11648,1873
11649,1894
11650,1879
11651,1873
11652,1937
11653,1953
11654,1903
11655,1855
11656,1825
11657,1798
11658,1784
11659,1779
11660,1805
11661,1856
11662,1843
11663,1861
11664,1850
11665,1851
11666,1872
11667,1866
11668,1889
11669,1946
11670,1947
11671,1907
11672,1840
11673,1833
11674,1766
11675,1763
11676,1772
11677,1829
11678,1838
11679,1872
11680,1865
11681,1860
11682,1887
11683,1901
11684,1863
11685,1937
11686,1939
11687,1915
11688,1889
11689,1839
11690,1843
11691,1787
11692,1762
11693,1776
11694,1856
11695,1869
11696,1870
11697,1887
11698,1856
11699,1913
11700,1875
11701,1870
11702,1921
11703,1949
11704,1891
11705,1866
11706,1841
11707,1808
11708,1785
11709,1775
11710,1806
11711,1854
11712,1875
11713,1871
11714,1872
11715,1863
11716,1897
11717,1878
11718,1904
11719,1951
11720,1918
11721,1888
11722,1843
11723,1826
11724,1797
11725,1755
11726,1770
11727,1824
11728,1856
11729,1867
11730,1881
11731,1872
11732,1894
11733,1888
11734,1879
11735,1933
11736,1940
11737,1890
11738,1884
11739,1863
11740,1834
11741,1777
11742,1761
11743,1797
11744,1856
11745,1866
11746,1892
11747,1861
11748,1876
11749,1877
11750,1876
11751,1873
11752,1921
11753,1955
11754,1899
11755,1855
11756,1831
11757,1817
11758,1762
11759,1771
11760,1788
11761,1871
11762,1873
11763,1865
11764,1856
11765,1882
11766,1876
11767,1872
11768,1903
11769,1957
11770,1919
11771,1884
11772,1847
11773,1825
11774,1790
11775,1766
11776,1776
11777,1828
11778,1877
11779,1861
11780,1883
11781,1868
11782,1902
11783,1891
11784,1862
11785,1915
11786,1938
11787,1905
11788,1855
11789,1831
11790,1846
11791,1782
11792,1767
11793,1771
11794,1861
11795,1878
11796,1903
11797,1898
11798,1868
11799,1915
11800,1869
11801,1862
11802,1915
11803,1973
11804,1891
11805,1854
11806,1826
11807,1803
11808,1774
11809,1793
11810,1823
11811,1867
11812,1874
11813,1865
11814,1845
11815,1862
11816,1863
11817,1864
11818,1895
11819,1949
11820,1926
11821,1872
11822,1850
11823,1818
11824,1827
11825,1765
11826,1780
11827,1818
11828,1872
11829,1862
11830,1867
11831,1889
11832,1883
11833,1892
11834,1869
11835,1949
11836,1961
11837,1901
11838,1875
11839,1808
11840,1829
11841,1804
11842,1763
11843,1776
11844,1840
11845,1867
11846,1875
11847,1865
11848,1857
11849,1888
11850,1873
11851,1871
11852,1942
11853,1920
11854,1886
11855,1840
11856,1834
11857,1793
11858,1779
11859,1774
11860,1808
11861,1856
11862,1887
11863,1872
11864,1848
11865,1879
11866,1895
11867,1871
11868,1890
11869,1954
11870,1933
11871,1887
11872,1845
11873,1829
11874,1812
11875,1758
11876,1776
11877,1840
11878,1845
11879,1877
11880,1876
11881,1869
11882,1883
11883,1891
11884,1879
11885,1933
11886,1947
11887,1920
11888,1874
11889,1842
11890,1794
11891,1778
11892,1756
11893,1791
11894,1859
11895,1866
11896,1873
11897,1866
11898,1872
11899,1875
11900,1874
11901,1881
11902,1924
11903,1938
11904,1891
11905,1865
11906,1840
11907,1795
11908,1771
11909,1760
11910,1818
11911,1854
11912,1894
11913,1882
11914,1870
11915,1909
11916,1882
11917,1870
11918,1875
11919,1963
11920,1923
11921,1885
11922,1836
11923,1838
11924,1818
11925,1751
11926,1773
11927,1842
11928,1886
