Time(ms),Raw_ADC
0,1861
1,1862
2,1874
3,1885
4,1855
5,1841
6,1836
7,1856
8,1898
9,1863
10,1861
11,1861
12,1854
13,1867
14,1870
15,1899
16,1920
17,1869
18,791
19,1846
20,2041
21,2219
22,2053
23,1619
24,1892
25,2036
26,1957
27,1867
28,1895
29,1888
30,1853
31,1853
32,1922
33,1943
34,1936
35,1894
36,1872
37,1830
38,1842
39,1845
40,1855
41,1829
42,1845
43,1851
44,1858
45,1863
46,1871
47,1872
48,1884
49,494
50,1841
51,2033
52,2267
53,2146
54,1617
55,1837
56,1975
57,1905
58,1856
59,1879
60,1847
61,1842
62,1867
63,1904
64,1930
65,1979
66,1957
67,1939
68,1887
69,1891
70,1836
71,1822
72,1789
73,1773
74,1808
75,1851
76,1839
77,1872
78,1901
79,1895
80,0
81,1834
82,2086
83,2304
84,2192
85,1697
86,1849
87,2016
88,1933
89,1827
90,1834
91,1819
92,1819
93,1833
94,1875
95,1924
96,1965
97,1954
98,1936
99,1951
100,1935
101,1895
102,1846
103,1822
104,1785
105,1776
106,1782
107,1808
108,1830
109,1863
110,1872
111,0
112,1774
113,2043
114,2281
115,2286
116,1753
117,1855
118,2032
119,1987
120,1861
121,1794
122,1774
123,1756
124,1818
125,1855
126,1881
127,1936
128,1931
129,1951
130,1949
131,1935
132,1983
133,1939
134,1863
135,1809
136,1769
137,1785
138,1779
139,1779
140,1805
141,1827
142,106
143,1699
144,2032
145,2280
146,2290
147,1773
148,1835
149,2064
150,2027
151,1869
152,1834
153,1821
154,1767
155,1760
156,1806
157,1860
158,1938
159,1925
160,1947
161,1953
162,1968
163,1953
164,1931
165,1915
166,1887
167,1823
168,1792
169,1788
170,1759
171,1777
172,1791
173,1186
174,1605
175,1984
176,2224
177,2298
178,1831
179,1819
180,2077
181,2096
182,1970
183,1887
184,1823
185,1785
186,1757
187,1782
188,1819
189,1838
190,1875
191,1903
192,1922
193,1940
194,1929
195,1939
196,1904
197,1872
198,1847
199,1845
200,1813
201,1799
202,1819
203,1803
204,1793
205,1809
206,1809
207,1821
208,1871
209,1858
210,1898
211,1909
212,1895
213,1905
214,1915
215,1918
216,1905
217,1875
218,1840
219,1827
220,1833
221,1808
222,1805
223,1818
224,1870
225,1875
226,1875
227,1901
228,1898
229,1904
230,1898
231,1897
232,1914
233,1904
234,1866
235,1835
236,1809
237,1782
238,1798
239,1813
240,1821
241,1840
242,1869
243,1891
244,1870
245,1856
246,1891
247,1895
248,1877
249,1888
250,1885
251,1854
252,1834
253,1833
254,1809
255,1807
256,1809
257,1837
258,1847
259,1877
260,1881
261,1891
262,1885
263,1905
264,1901
265,1907
266,1918
267,1872
268,1856
269,1840
270,1803
271,1802
272,1803
273,1806
274,1847
275,1871
276,1869
277,1876
278,1891
279,1904
280,1890
281,1879
282,1910
283,1910
284,1872
285,1856
286,1833
287,1799
288,1797
289,1808
290,1831
291,1855
292,1872
293,1875
294,1870
295,1907
296,1893
297,1892
298,1886
299,1949
300,1893
301,1830
302,1851
303,1811
304,1808
305,1814
306,1806
307,1840
308,1861
309,1887
310,1858
311,1878
312,1918
313,1899
314,1919
315,1918
316,1918
317,1871
318,1830
319,1809
320,1826
321,1808
322,1804
323,1819
324,1849
325,1846
326,1847
327,1851
328,1872
329,1902
330,1897
331,1905
332,1911
333,1887
334,1855
335,1853
336,1827
337,1827
338,1799
339,1802
340,1809
341,1842
342,1866
343,1872
344,1893
345,1885
346,1906
347,1899
348,1883
349,1885
350,1880
351,1859
352,1857
353,1808
354,1794
355,1778
356,1792
357,1813
358,1843
359,1861
360,1887
361,1881
362,1900
363,1900
364,1886
365,1904
366,1895
367,1869
368,1851
369,1845
370,1799
371,1802
372,1807
373,1802
374,1860
375,1865
376,1872
377,1885
378,1886
379,1889
380,1893
381,1910
382,1918
383,1915
384,1860
385,1845
386,1824
387,1797
388,1802
389,1811
390,1831
391,1843
392,1872
393,1872
394,1882
395,1904
396,1895
397,1899
398,1878
399,1914
400,1880
401,1856
402,1838
403,1810
404,1791
405,1797
406,1795
407,1825
408,1872
409,1872
410,1879
411,1874
412,1902
413,1879
414,1904
415,1895
416,1904
417,1860
418,1821
419,1796
420,1809
421,1802
422,1807
423,1808
424,1870
425,1857
426,1874
427,1888
428,1892
429,1897
430,1910
431,1886
432,1915
433,1890
434,1872
435,1840
436,1827
437,1822
438,1799
439,1805
440,1820
441,1854
442,1872
443,1867
444,1869
445,1873
446,1891
447,1894
448,1902
449,1904
450,1889
451,1868
452,1856
453,1837
454,1807
455,1813
456,1821
457,1828
458,1872
459,1874
460,1899
461,1882
462,1910
463,1903
464,1922
465,1911
466,1884
467,1872
468,1840
469,1840
470,1828
471,1795
472,1806
473,1815
474,1800
475,1872
476,1858
477,1910
478,1882
479,1936
480,1890
481,1892
482,1870
483,1853
484,1839
485,1818
486,1835
487,1805
488,1806
489,1819
490,1829
491,1851
492,1869
493,1872
494,1895
495,1904
496,1900
497,1900
498,1915
499,1918
500,1894
501,1835
502,1830
503,1840
504,1808
505,1810
506,1795
507,1823
508,1878
509,1864
510,1877
511,1899
512,1887
513,1887
514,1903
515,1905
516,1921
517,1865
518,1843
519,1843
520,1834
521,1805
522,1807
523,1806
524,1865
525,1873
526,1863
527,1894
528,1902
529,1906
530,1890
531,1899
532,1903
533,1904
534,1861
535,1844
536,1820
537,1777
538,1808
539,1814
540,1825
541,1857
542,1867
543,1889
544,1874
545,1905
546,1899
547,1903
548,1899
549,1937
550,1882
551,1859
552,1847
553,1821
554,1823
555,1793
556,1808
557,1843
558,1858
559,1871
560,1882
561,1892
562,1881
563,1904
564,1887
565,1902
566,1904
567,1858
568,1839
569,1829
570,1830
571,1799
572,1805
573,1835
574,1805
575,1873
576,1856
577,1886
578,1904
579,1891
580,1903
581,1905
582,1905
583,1892
584,1869
585,1835
586,1818
587,1823
588,1808
589,1823
590,1820
591,1857
592,1868
593,1879
594,1887
595,1877
596,1893
597,1891
598,1901
599,1914
600,1889
601,1840
602,1840
603,1810
604,1791
605,1808
606,1791
607,1823
608,1870
609,1875
610,1905
611,1916
612,1903
613,1915
614,1903
615,1909
616,1902
617,1867
618,1844
619,1822
620,1807
621,1794
622,1801
623,1795
624,1872
625,1877
626,1859
627,1898
628,1883
629,1904
630,1899
631,1888
632,1909
633,1891
634,1855
635,1826
636,1806
637,1792
638,1811
639,1812
640,1827
641,1858
642,1881
643,1899
644,1900
645,1890
646,1894
647,1890
648,1889
649,1918
650,1885
651,1867
652,1846
653,1811
654,1790
655,1794
656,1809
657,1814
658,1850
659,1862
660,1863
661,1883
662,1891
663,1893
664,1907
665,1923
666,1925
667,1870
668,1856
669,1840
670,1811
671,1808
672,1807
673,1817
674,1837
675,1873
676,1879
677,1869
678,1881
679,1898
680,1904
681,1901
682,1899
683,1895
684,1843
685,1841
686,1821
687,1805
688,1787
689,1811
690,1831
691,1856
692,1867
693,1891
694,1891
695,1877
696,1904
697,1900
698,1879
699,1918
700,1891
701,1865
702,1858
703,1825
704,1803
705,1798
706,1808
707,1856
708,1854
709,1871
710,1883
711,1888
712,1891
713,1882
714,1895
715,1917
716,1919
717,1872
718,1843
719,1838
720,1815
721,1805
722,1803
723,1829
724,1823
725,1863
726,1856
727,1888
728,1903
729,1903
730,1903
731,1903
732,1933
733,1899
734,1854
735,1840
736,1813
737,1809
738,1805
739,1822
740,1829
741,1850
742,1875
743,1872
744,1885
745,1862
746,1894
747,1885
748,1926
749,1904
750,1883
751,1840
752,1840
753,1825
754,1812
755,1804
756,1820
757,1818
758,1878
759,1868
760,1854
761,1886
762,1901
763,1899
764,1895
765,1911
766,1914
767,1872
768,1849
769,1856
770,1816
771,1792
772,1803
773,1823
774,1834
775,1855
776,1861
777,1889
778,1872
779,1903
780,1904
781,1914
782,1904
783,1889
784,1875
785,1856
786,1811
787,1794
788,1791
789,1814
790,1837
791,1837
792,1872
793,1882
794,1872
795,1883
796,1894
797,1899
798,1927
799,1922
800,1874
801,1839
802,1845
803,1823
804,1793
805,1802
806,1791
807,1833
808,1849
809,1850
810,1873
811,1889
812,1900
813,1901
814,1913
815,1906
816,1906
817,1857
818,1839
819,1839
820,1818
821,1806
822,1804
823,1840
824,1861
825,1875
826,1881
827,1890
828,1899
829,1896
830,1895
831,1904
832,1906
833,1875
834,1861
835,1834
836,1808
837,1827
838,1799
839,1808
840,1815
841,1829
842,1869
843,1866
844,1886
845,1888
846,1902
847,1904
848,1908
849,1925
850,1881
851,1859
852,1847
853,1821
854,1809
855,1798
856,1805
857,1837
858,1865
859,1867
860,1899
861,1902
862,1904
863,1889
864,1891
865,1904
866,1887
867,1857
868,1830
869,1838
870,1824
871,1803
872,1803
873,1847
874,1852
875,1872
876,1887
877,1871
878,1885
879,1895
880,1901
881,1905
882,1925
883,1905
884,1861
885,1845
886,1833
887,1834
888,1795
889,1798
890,1817
891,1858
892,1870
893,1894
894,1879
895,1920
896,1894
897,1893
898,1893
899,1917
900,1874
901,1865
902,1841
903,1823
904,1805
905,1803
906,1803
907,1863
908,1862
909,1861
910,1888
911,1903
912,1895
913,1903
914,1907
915,1923
916,1885
917,1863
918,1843
919,1840
920,1798
921,1795
922,1802
923,1842
924,1808
925,1867
926,1855
927,1890
928,1895
929,1890
930,1893
931,1914
932,1911
933,1890
934,1857
935,1857
936,1825
937,1822
938,1813
939,1793
940,1813
941,1860
942,1882
943,1875
944,1874
945,1894
946,1903
947,1899
948,1893
949,1930
950,1877
951,1857
952,1837
953,1828
954,1808
955,1802
956,1808
957,1823
958,1861
959,1872
960,1861
961,1881
962,1910
963,1904
964,1891
965,1917
966,1878
967,1868
968,1840
969,1854
970,1802
971,1804
972,1808
973,1783
974,1823
975,1856
976,1861
977,1879
978,1878
979,1897
980,1902
981,1905
982,1933
983,1893
984,1846
985,1839
986,1850
987,1801
988,1797
989,1802
990,1827
991,1845
992,1871
993,1857
994,1885
995,1890
996,1904
997,1901
998,1888
999,1927
1000,1872
1001,1858
1002,1854
1003,1817
1004,1799
1005,1805
1006,1814
1007,1834
1008,1854
1009,1871
1010,1889
1011,1882
1012,1904
1013,1893
1014,1876
1015,1903
1016,1919
1017,1863
1018,1852
1019,1840
1020,1818
1021,1808
1022,1804
1023,1855
1024,1853
1025,1856
1026,1873
1027,1887
1028,1901
1029,1904
1030,1901
1031,1888
1032,1917
1033,1889
1034,1858
1035,1842
1036,1823
1037,1814
1038,1799
1039,1810
1040,1826
1041,1829
1042,1873
1043,1877
1044,1883
1045,1871
1046,1891
1047,1891
1048,1901
1049,1909
1050,1865
1051,1846
1052,1830
1053,1821
1054,1808
1055,1802
1056,1801
1057,1833
1058,1873
1059,1863
1060,1904
1061,1895
1062,1903
1063,1884
1064,1905
1065,1916
1066,1893
1067,1859
1068,1839
1069,1834
1070,1786
1071,1798
1072,1802
1073,1833
1074,1825
1075,1843
1076,1870
1077,1872
1078,1872
1079,1899
1080,1901
1081,1898
1082,1921
1083,1889
1084,1853
1085,1847
1086,1828
1087,1793
1088,1795
1089,1822
1090,1840
1091,1842
1092,1872
1093,1873
1094,1871
1095,1883
1096,1905
1097,1898
1098,1883
1099,1903
1100,1859
1101,1849
1102,1847
1103,1813
1104,1799
1105,1795
1106,1793
1107,1842
1108,1862
1109,1863
1110,1887
1111,1893
1112,1904
1113,1893
1114,1897
1115,1920
1116,1873
1117,1858
1118,1818
1119,1839
1120,1805
1121,1808
1122,1804
1123,1849
1124,1843
1125,1873
1126,1877
1127,1887
1128,1872
1129,1904
1130,1900
1131,1910
1132,1926
1133,1877
1134,1858
1135,1842
1136,1818
1137,1810
1138,1779
1139,1801
1140,1828
1141,1855
1142,1868
1143,1898
1144,1869
1145,1886
1146,1904
1147,1901
1148,1874
1149,1915
1150,1877
1151,1852
1152,1821
1153,1841
1154,1805
1155,1804
1156,1809
1157,1831
1158,1858
1159,1863
1160,1889
1161,1883
1162,1903
1163,1899
1164,1889
1165,1920
1166,1894
1167,1858
1168,1850
1169,1833
1170,1806
1171,1809
1172,1799
1173,1821
1174,1842
1175,1873
1176,1866
1177,1884
1178,1905
1179,1901
1180,1897
1181,1898
1182,1930
1183,1897
1184,1852
1185,1845
1186,1813
1187,1804
1188,1795
1189,1789
1190,1839
1191,1822
1192,1845
1193,1879
1194,1879
1195,1879
1196,1891
1197,1890
1198,1901
1199,771
1200,1717
1201,1955
1202,2055
1203,2103
1204,2121
1205,2105
1206,1985
1207,1937
1208,2029
1209,1958
1210,1892
1211,1793
1212,1787
1213,1747
1214,1757
1215,1771
1216,1782
1217,1783
1218,1834
1219,1856
1220,1867
1221,1846
1222,1829
1223,1855
1224,1834
1225,1835
1226,1842
1227,1897
1228,1914
1229,1903
1230,1889
1231,1535
1232,1983
1233,2137
1234,2227
1235,2219
1236,2113
1237,1898
1238,1943
1239,1917
1240,1850
1241,1765
1242,1739
1243,1746
1244,1775
1245,1791
1246,1823
1247,1853
1248,1924
1249,1940
1250,1913
1251,1886
1252,1859
1253,1856
1254,1831
1255,1822
1256,1836
1257,1835
1258,1881
1259,1881
1260,1865
1261,1895
1262,1355
1263,1937
1264,2115
1265,2227
1266,2194
1267,2014
1268,1846
1269,1920
1270,1888
1271,1808
1272,1776
1273,1778
1274,1775
1275,1823
1276,1847
1277,1898
1278,1913
1279,1943
1280,1930
1281,1927
1282,1955
1283,1910
1284,1883
1285,1855
1286,1845
1287,1811
1288,1808
1289,1827
1290,1808
1291,1819
1292,1862
1293,1190
1294,1909
1295,2092
1296,2198
1297,2199
1298,1979
1299,1937
1300,1976
1301,1936
1302,1842
1303,1812
1304,1750
1305,1744
1306,1787
1307,1845
1308,1867
1309,1935
1310,1930
1311,1923
1312,1929
1313,1936
1314,1925
1315,1931
1316,1901
1317,1883
1318,1875
1319,1845
1320,1803
1321,1776
1322,1794
1323,1806
1324,1057
1325,1870
1326,2007
1327,2175
1328,2145
1329,1909
1330,1950
1331,2043
1332,2033
1333,1918
1334,1824
1335,1771
1336,1775
1337,1778
1338,1776
1339,1814
1340,1867
1341,1902
1342,1904
1343,1886
1344,1917
1345,1910
1346,1920
1347,1908
1348,1936
1349,1920
1350,1847
1351,1810
1352,1816
1353,1779
1354,1772
1355,842
1356,1793
1357,2034
1358,2205
1359,2181
1360,1891
1361,1950
1362,2077
1363,2010
1364,1904
1365,1884
1366,1872
1367,1808
1368,1802
1369,1818
1370,1791
1371,1838
1372,1861
1373,1872
1374,1888
1375,1883
1376,1882
1377,1910
1378,1885
1379,1915
1380,1892
1381,1872
1382,1903
1383,1873
1384,1851
1385,1827
1386,309
1387,1742
1388,1938
1389,2143
1390,2178
1391,1856
1392,1887
1393,2038
1394,2014
1395,1915
1396,1847
1397,1869
1398,1860
1399,1889
1400,1859
1401,1863
1402,1878
1403,1893
1404,1840
1405,1833
1406,1846
1407,1851
1408,1889
1409,1904
1410,1921
1411,1893
1412,1875
1413,1861
1414,1878
1415,1885
1416,1872
1417,0
1418,1741
1419,1962
1420,2119
1421,2145
1422,1790
1423,1802
1424,1997
1425,2031
1426,1931
1427,1872
1428,1870
1429,1840
1430,1847
1431,1889
1432,1931
1433,1927
1434,1903
1435,1904
1436,1865
1437,1823
1438,1820
1439,1829
1440,1855
1441,1840
1442,1840
1443,1830
1444,1839
1445,1872
1446,1871
1447,1890
1448,0
1449,1762
1450,2001
1451,2170
1452,2224
1453,1847
1454,1767
1455,1968
1456,1959
1457,1834
1458,1840
1459,1838
1460,1826
1461,1853
1462,1905
1463,1914
1464,1961
1465,1981
1466,1918
1467,1899
1468,1872
1469,1872
1470,1838
1471,1809
1472,1849
1473,1833
1474,1822
1475,1849
1476,1847
1477,1840
1478,1854
1479,511
1480,1648
1481,2002
1482,2206
1483,2273
1484,1860
1485,1765
1486,1926
1487,1950
1488,1821
1489,1753
1490,1840
1491,1837
1492,1856
1493,1882
1494,1920
1495,1941
1496,1967
1497,1966
1498,1955
1499,1940
1500,1904
1501,1887
1502,1857
1503,1810
1504,1783
1505,1776
1506,1799
1507,1826
1508,1838
1509,1865
1510,909
1511,1639
1512,2009
1513,2225
1514,2327
1515,1949
1516,1799
1517,1989
1518,1985
1519,1863
1520,1753
1521,1776
1522,1761
1523,1771
1524,1807
1525,1873
1526,1927
1527,1923
1528,1953
1529,1935
1530,1920
1531,1923
1532,1964
1533,1902
1534,1851
1535,1793
1536,1791
1537,1773
1538,1776
1539,1801
1540,1822
1541,1751
1542,1490
1543,1997
1544,2211
1545,2323
1546,1910
1547,1759
1548,2065
1549,2121
1550,1950
1551,1883
1552,1846
1553,1776
1554,1750
1555,1775
1556,1803
1557,1882
1558,1918
1559,1923
1560,1937
1561,1936
1562,1930
1563,1919
1564,1924
1565,1919
1566,1873
1567,1824
1568,1799
1569,1808
1570,1798
1571,1787
1572,1804
1573,1287
1574,1909
1575,2161
1576,2320
1577,2016
1578,1728
1579,1984
1580,2079
1581,1947
1582,1910
1583,1867
1584,1800
1585,1776
1586,1799
1587,1816
1588,1859
1589,1867
1590,1911
1591,1905
1592,1933
1593,1967
1594,1954
1595,1941
1596,1902
1597,1857
1598,1872
1599,1872
1600,1822
1601,1825
1602,1815
1603,1806
1604,1212
1605,1858
1606,2096
1607,2302
1608,2046
1609,1726
1610,1972
1611,2087
1612,1974
1613,1879
1614,1845
1615,1850
1616,1856
1617,1808
1618,1835
1619,1864
1620,1850
1621,1845
1622,1839
1623,1856
1624,1857
1625,1894
1626,1896
1627,1877
1628,1866
1629,1872
1630,1869
1631,1893
1632,1937
1633,1881
1634,1856
1635,1046
1636,1836
1637,2039
1638,2247
1639,2061
1640,1654
1641,1907
1642,2064
1643,1968
1644,1889
1645,1879
1646,1866
1647,1853
1648,1891
1649,1887
1650,1911
1651,1922
1652,1905
1653,1840
1654,1849
1655,1849
1656,1873
1657,1863
1658,1863
1659,1837
1660,1845
1661,1851
1662,1863
1663,1881
1664,1897
1665,1904
1666,657
1667,1858
1668,2070
1669,2277
1670,2107
1671,1617
1672,1814
1673,1979
1674,1931
1675,1865
1676,1883
1677,1869
1678,1847
1679,1874
1680,1905
1681,1961
1682,1984
1683,1937
1684,1904
1685,1885
1686,1862
1687,1855
1688,1831
1689,1791
1690,1799
1691,1811
1692,1826
1693,1857
1694,1865
1695,1871
1696,1895
1697,459
1698,1873
1699,2110
1700,2311
1701,2173
1702,1655
1703,1808
1704,2011
1705,1931
1706,1836
1707,1789
1708,1817
1709,1805
1710,1840
1711,1872
1712,1936
1713,1963
1714,1949
1715,1959
1716,1927
1717,1903
1718,1904
1719,1844
1720,1808
1721,1773
1722,1774
1723,1783
1724,1831
1725,1849
1726,1871
1727,1872
1728,0
1729,1801
1730,2081
1731,2313
1732,2295
1733,1745
1734,1808
1735,2029
1736,1968
1737,1823
1738,1761
1739,1758
1740,1766
1741,1818
1742,1851
1743,1922
1744,1967
1745,1955
1746,1961
1747,1947
1748,1955
1749,1947
1750,1903
1751,1856
1752,1808
1753,1762
1754,1758
1755,1757
1756,1775
1757,1783
1758,1853
1759,0
1760,1750
1761,2077
1762,2320
1763,2285
1764,1762
1765,1869
1766,2056
1767,1983
1768,1845
1769,1820
1770,1799
1771,1767
1772,1764
1773,1799
1774,1856
1775,1923
1776,1920
1777,1936
1778,1939
1779,1946
1780,1942
1781,1945
1782,1904
1783,1862
1784,1803
1785,1795
1786,1788
1787,1782
1788,1774
1789,1815
1790,583
1791,1616
1792,2011
1793,2267
1794,2320
1795,1831
1796,1792
1797,2059
1798,2102
1799,1984
1800,1858
1801,1819
1802,1776
1803,1791
1804,1792
1805,1828
1806,1872
1807,1898
1808,1919
1809,1923
1810,1918
1811,1939
1812,1923
1813,1903
1814,1879
1815,1863
1816,1857
1817,1831
1818,1838
1819,1819
1820,1806
1821,1779
1822,1787
1823,1835
1824,1850
1825,1871
1826,1889
1827,1893
1828,1903
1829,1897
1830,1898
1831,1933
1832,1904
1833,1893
1834,1861
1835,1828
1836,1815
1837,1817
1838,1807
1839,1828
1840,1835
1841,1863
1842,1859
1843,1841
1844,1854
1845,1862
1846,1888
1847,1904
1848,1920
1849,1905
1850,1881
1851,1857
1852,1844
1853,1808
1854,1801
1855,1812
1856,1838
1857,1872
1858,1863
1859,1867
1860,1892
1861,1883
1862,1886
1863,1898
1864,1910
1865,1920
1866,1897
1867,1869
1868,1845
1869,1834
1870,1791
1871,1798
1872,1813
1873,1840
1874,1840
1875,1859
1876,1870
1877,1882
1878,1865
1879,1903
1880,1903
1881,1911
1882,1935
1883,1887
1884,1870
1885,1835
1886,1826
1887,1805
1888,1803
1889,1822
1890,1826
1891,1827
1892,1860
1893,1858
1894,1857
1895,1915
1896,1898
1897,1874
1898,1911
1899,1925
1900,1872
1901,1857
1902,1853
1903,1813
1904,1798
1905,1807
1906,1836
1907,1803
1908,1865
1909,1873
1910,1873
1911,1886
1912,1889
1913,1906
1914,1878
1915,1920
1916,1885
1917,1870
1918,1859
1919,1823
1920,1789
1921,1804
1922,1799
1923,1823
1924,1806
1925,1859
1926,1872
1927,1894
1928,1878
1929,1904
1930,1901
1931,1892
1932,1948
1933,1881
1934,1854
1935,1849
1936,1819
1937,1812
1938,1812
1939,1829
1940,1825
1941,1840
1942,1875
1943,1883
1944,1877
1945,1914
1946,1893
1947,1887
1948,1904
1949,1906
1950,1851
1951,1844
1952,1849
1953,1834
1954,1809
1955,1810
1956,1791
1957,1806
1958,1834
1959,1841
1960,1857
1961,1878
1962,1901
1963,1907
1964,1923
1965,1937
1966,1894
1967,1871
1968,1846
1969,1827
1970,1806
1971,1808
1972,1797
1973,1829
1974,1854
1975,1849
1976,1851
1977,1883
1978,1893
1979,1901
1980,1900
1981,1935
1982,1890
1983,1891
1984,1853
1985,1818
1986,1806
1987,1808
1988,1808
1989,1801
1990,1818
1991,1863
1992,1870
1993,1873
1994,1878
1995,1897
1996,1895
1997,1898
1998,1886
1999,1904
2000,1830
2001,1815
2002,1827
2003,1795
2004,1788
2005,1808
2006,1813
2007,1831
2008,1871
2009,1872
2010,1899
2011,1930
2012,1914
2013,1899
2014,1917
2015,1906
2016,1872
2017,1862
2018,1823
2019,1834
2020,1823
2021,1826
2022,1841
2023,1845
2024,1855
2025,1869
2026,1904
2027,1894
2028,1897
2029,1890
2030,1898
2031,1879
2032,1910
2033,1869
2034,1839
2035,1837
2036,1811
2037,1798
2038,1791
2039,1790
2040,1832
2041,1851
2042,1882
2043,1903
2044,1880
2045,1917
2046,1897
2047,1910
2048,1906
2049,1898
2050,1868
2051,1860
2052,1821
2053,1802
2054,1810
2055,1805
2056,1826
2057,1859
2058,1872
2059,1879
2060,1904
2061,1886
2062,1900
2063,1902
2064,1891
2065,1910
2066,1882
2067,1860
2068,1840
2069,1821
2070,1799
2071,1813
2072,1802
2073,1813
2074,1856
2075,1870
2076,1875
2077,1877
2078,1903
2079,1899
2080,1902
2081,1867
2082,1885
2083,1881
2084,1862
2085,1840
2086,1812
2087,1801
2088,1805
2089,1818
2090,1813
2091,1841
2092,1867
2093,1856
2094,1870
2095,1907
2096,1897
2097,1886
2098,1921
2099,1922
2100,1871
2101,1862
2102,1841
2103,1833
2104,1805
2105,1806
2106,1808
2107,1814
2108,1873
2109,1867
2110,1885
2111,1901
2112,1901
2113,1900
2114,1887
2115,1905
2116,1882
2117,1849
2118,1846
2119,1815
2120,1821
2121,1802
2122,1802
2123,1823
2124,1828
2125,1857
2126,1878
2127,1873
2128,1911
2129,1897
2130,1889
2131,1871
2132,1938
2133,1877
2134,1866
2135,1846
2136,1808
2137,1808
2138,1803
2139,1799
2140,1818
2141,1863
2142,1882
2143,1875
2144,1879
2145,1889
2146,1910
2147,1904
2148,1920
2149,1881
2150,1856
2151,1854
2152,1833
2153,1809
2154,1796
2155,1794
2156,1827
2157,1837
2158,1856
2159,1877
2160,1886
2161,1890
2162,1904
2163,1902
2164,1904
2165,1923
2166,1903
2167,1851
2168,1840
2169,1834
2170,1789
2171,1808
2172,1802
2173,1818
2174,1843
2175,1872
2176,1872
2177,1869
2178,1875
2179,1889
2180,1904
2181,1937
2182,1904
2183,1878
2184,1862
2185,1819
2186,1814
2187,1807
2188,1806
2189,1810
2190,1822
2191,1861
2192,1891
2193,1879
2194,1893
2195,1892
2196,1903
2197,1901
2198,1904
2199,1916
2200,1874
2201,1861
2202,1839
2203,1824
2204,1798
2205,1805
2206,1856
2207,1846
2208,1871
2209,1885
2210,1885
2211,1876
2212,1897
2213,1898
2214,1904
2215,1904
2216,1885
2217,1857
2218,1840
2219,1808
2220,1798
2221,1818
2222,1815
2223,1827
2224,1858
2225,1870
2226,1885
2227,1882
2228,1871
2229,1895
2230,1899
2231,1886
2232,1891
2233,1879
2234,1835
2235,1840
2236,1821
2237,1804
2238,1806
2239,1796
2240,1843
2241,1860
2242,1877
2243,1867
2244,1887
2245,1885
2246,1901
2247,1873
2248,1919
2249,1900
2250,1858
2251,1840
2252,1846
2253,1799
2254,1790
2255,1803
2256,1795
2257,1817
2258,1857
2259,1867
2260,1871
2261,1873
2262,1883
2263,1889
2264,1904
2265,1921
2266,1904
2267,1870
2268,1838
2269,1831
2270,1801
2271,1799
2272,1808
2273,1828
2274,1826
2275,1869
2276,1875
2277,1897
2278,1882
2279,1898
2280,1890
2281,1870
2282,1909
2283,1877
2284,1845
2285,1830
2286,1792
2287,1801
2288,1798
2289,1819
2290,1821
2291,1856
2292,1872
2293,1888
2294,1877
2295,1878
2296,1904
2297,1906
2298,1930
2299,1904
2300,1859
2301,1840
2302,1840
2303,1809
2304,1790
2305,1794
2306,1834
2307,1840
2308,1859
2309,1871
2310,1890
2311,1883
2312,1901
2313,1901
2314,1913
2315,1904
2316,1904
2317,1841
2318,1841
2319,1843
2320,1821
2321,1808
2322,1806
2323,1817
2324,1841
2325,1874
2326,1872
2327,1893
2328,1911
2329,1904
2330,1901
2331,1904
2332,1907
2333,1890
2334,1850
2335,1825
2336,1811
2337,1790
2338,1794
2339,1827
2340,1854
2341,1861
2342,1869
2343,1883
2344,1881
2345,1904
2346,1904
2347,1893
2348,1927
2349,1910
2350,1872
2351,1856
2352,1831
2353,1806
2354,1792
2355,1802
2356,1841
2357,1840
2358,1865
2359,1863
2360,1885
2361,1841
2362,1895
2363,1895
2364,1887
2365,1889
2366,1901
2367,1856
2368,1829
2369,1823
2370,1791
2371,1786
2372,1807
2373,1822
2374,1861
2375,1867
2376,1885
2377,1882
2378,1898
2379,1904
2380,1904
2381,1941
2382,1904
2383,1884
2384,1872
2385,1853
2386,1827
2387,1805
2388,1807
2389,1808
2390,1842
2391,1867
2392,1881
2393,1872
2394,1883
2395,1902
2396,1893
2397,1883
2398,1919
2399,1904
2400,1863
2401,1831
2402,1842
2403,1799
2404,1799
2405,1801
2406,1847
2407,1827
2408,1879
2409,1879
2410,1887
2411,1881
2412,1903
2413,1903
2414,1911
2415,1936
2416,1895
2417,1849
2418,1840
2419,1831
2420,1811
2421,1798
2422,1812
2423,1824
2424,1840
2425,1861
2426,1875
2427,1872
2428,1903
2429,1890
2430,1894
2431,1902
2432,1917
2433,1877
2434,1840
2435,1840
2436,1824
2437,1808
2438,1802
2439,1802
2440,1838
2441,1872
2442,1872
2443,1889
2444,1901
2445,1879
2446,1887
2447,1911
2448,1908
2449,1894
2450,1863
2451,1855
2452,1843
2453,1808
2454,1796
2455,1799
2456,1811
2457,1839
2458,1865
2459,1874
2460,1870
2461,1886
2462,1895
2463,1904
2464,1888
2465,1910
2466,1887
2467,1863
2468,1840
2469,1824
2470,1814
2471,1790
2472,1807
2473,1811
2474,1854
2475,1873
2476,1894
2477,1873
2478,1888
2479,1901
2480,1895
2481,1904
2482,1904
2483,1870
2484,1847
2485,1839
2486,1822
2487,1796
2488,1794
2489,1799
2490,1829
2491,1862
2492,1877
2493,1872
2494,1882
2495,1893
2496,1903
2497,1892
2498,1926
2499,1922
2500,1871
2501,1840
2502,1841
2503,1831
2504,1793
2505,1795
2506,1823
2507,1851
2508,1859
2509,1863
2510,1890
2511,1878
2512,1903
2513,1898
2514,1889
2515,1909
2516,1877
2517,1857
2518,1834
2519,1813
2520,1806
2521,1785
2522,1799
2523,1810
2524,1819
2525,1869
2526,1891
2527,1870
2528,1901
2529,1895
2530,1897
2531,1907
2532,1904
2533,1871
2534,1840
2535,1844
2536,1810
2537,1803
2538,1808
2539,1818
2540,1852
2541,1882
2542,1882
2543,1874
2544,1883
2545,1891
2546,1877
2547,1902
2548,1910
2549,1895
2550,1859
2551,1845
2552,1839
2553,1824
2554,1794
2555,1799
2556,1818
2557,1840
2558,1856
2559,1878
2560,1894
2561,1887
2562,1904
2563,1903
2564,1891
2565,1906
2566,1879
2567,1857
2568,1835
2569,1836
2570,1805
2571,1802
2572,1812
2573,1827
2574,1850
2575,1855
2576,1873
2577,1881
2578,1895
2579,1893
2580,1906
2581,1911
2582,1927
2583,1874
2584,1859
2585,1837
2586,1798
2587,1792
2588,1797
2589,1807
2590,1798
2591,1872
2592,1881
2593,1875
2594,1901
2595,1910
2596,1909
2597,1892
2598,1913
2599,1887
2600,1859
2601,1857
2602,1840
2603,1808
2604,1799
2605,1795
2606,1829
2607,1835
2608,1854
2609,1875
2610,1880
2611,1841
2612,1901
2613,1901
2614,1894
2615,1922
2616,1887
2617,1870
2618,1827
2619,1817
2620,1803
2621,1806
2622,1795
2623,1824
2624,1872
2625,1872
2626,1878
2627,1887
2628,1908
2629,1895
2630,1895
2631,1909
2632,1907
2633,1874
2634,1839
2635,1832
2636,1808
2637,1793
2638,1796
2639,1825
2640,1840
2641,1872
2642,1878
2643,1886
2644,1899
2645,1907
2646,1897
2647,1879
2648,1905
2649,1909
2650,1863
2651,1845
2652,1818
2653,1811
2654,1789
2655,1806
2656,1835
2657,1857
2658,1867
2659,1879
2660,1884
2661,1908
2662,1899
2663,1897
2664,1891
2665,1889
2666,1874
2667,1856
2668,1834
2669,1808
2670,1807
2671,1793
2672,1801
2673,1846
2674,1872
2675,1859
2676,1869
2677,1891
2678,1909
2679,1903
2680,1904
2681,1917
2682,1911
2683,1871
2684,1847
2685,1831
2686,1810
2687,1803
2688,1799
2689,1824
2690,1797
2691,1888
2692,1877
2693,1891
2694,1879
2695,1887
2696,1897
2697,1883
2698,1907
2699,1899
2700,1855
2701,1831
2702,1826
2703,1836
2704,1808
2705,1808
2706,1825
2707,1840
2708,1869
2709,1863
2710,1879
2711,1872
2712,1890
2713,1895
2714,1909
2715,1917
2716,1884
2717,1877
2718,1843
2719,1829
2720,1809
2721,1789
2722,1803
2723,1819
2724,1847
2725,1862
2726,1875
2727,1879
2728,1906
2729,1894
2730,1904
2731,1907
2732,1909
2733,1878
2734,1839
2735,1811
2736,1810
2737,1806
2738,1808
2739,1837
2740,1852
2741,1861
2742,1847
2743,1871
2744,1881
2745,1902
2746,1879
2747,1886
2748,1911
2749,1903
2750,1861
2751,1857
2752,1850
2753,1828
2754,1799
2755,1791
2756,1817
2757,1856
2758,1863
2759,1871
2760,1879
2761,1875
2762,1904
2763,1895
2764,1879
2765,1890
2766,1889
2767,1870
2768,1834
2769,1826
2770,1808
2771,1811
2772,1826
2773,1827
2774,1854
2775,1858
2776,1882
2777,1872
2778,1879
2779,1899
2780,1902
2781,1907
2782,1897
2783,1872
2784,1850
2785,1846
2786,1840
2787,1803
2788,1802
2789,1814
2790,1834
2791,1863
2792,1878
2793,1872
2794,1883
2795,1905
2796,1889
2797,1899
2798,1919
2799,1901
2800,1882
2801,1842
2802,1843
2803,1791
2804,1808
2805,1819
2806,1824
2807,1861
2808,1866
2809,1872
2810,1875
2811,1891
2812,1889
2813,1893
2814,1904
2815,1933
2816,608
2817,1721
2818,1937
2819,2034
2820,2124
2821,2138
2822,2160
2823,2133
2824,2060
2825,2034
2826,2061
2827,1959
2828,1862
2829,1737
2830,1686
2831,1713
2832,1705
2833,1664
2834,1677
2835,1718
2836,1779
2837,1803
2838,1821
2839,1829
2840,1871
2841,1883
2842,1878
2843,1886
2844,1914
2845,1905
2846,1907
2847,1042
2848,1731
2849,1973
2850,2089
2851,2151
2852,2130
2853,2082
2854,1971
2855,1839
2856,1907
2857,1965
2858,1875
2859,1770
2860,1737
2861,1747
2862,1758
2863,1767
2864,1799
2865,1894
2866,1910
2867,1893
2868,1904
2869,1855
2870,1847
2871,1830
2872,1846
2873,1847
2874,1872
2875,1865
2876,1887
2877,1857
2878,1807
2879,1631
2880,1959
2881,2077
2882,2128
2883,2112
2884,2062
2885,1901
2886,1851
2887,1943
2888,1919
2889,1865
2890,1778
2891,1796
2892,1776
2893,1782
2894,1837
2895,1872
2896,1920
2897,1954
2898,1963
2899,1931
2900,1898
2901,1857
2902,1839
2903,1835
2904,1811
2905,1815
2906,1813
2907,1823
2908,1834
2909,1859
2910,1535
2911,1914
2912,2064
2913,2176
2914,2190
2915,2123
2916,1904
2917,1936
2918,1903
2919,1821
2920,1779
2921,1744
2922,1709
2923,1730
2924,1757
2925,1834
2926,1872
2927,1909
2928,1936
2929,1941
2930,1940
2931,1936
2932,1933
2933,1905
2934,1872
2935,1827
2936,1827
2937,1798
2938,1781
2939,1776
2940,1825
2941,1433
2942,1910
2943,2022
2944,2175
2945,2197
2946,2092
2947,1903
2948,2015
2949,2005
2950,1901
2951,1804
2952,1755
2953,1728
2954,1712
2955,1748
2956,1821
2957,1867
2958,1917
2959,1929
2960,1913
2961,1943
2962,1933
2963,1923
2964,1921
2965,1936
2966,1904
2967,1859
2968,1839
2969,1795
2970,1776
2971,1789
2972,1083
2973,1854
2974,1983
2975,2178
2976,2241
2977,2112
2978,1905
2979,2006
2980,1983
2981,1926
2982,1831
2983,1774
2984,1735
2985,1744
2986,1742
2987,1776
2988,1820
2989,1872
2990,1890
2991,1894
2992,1935
2993,1937
2994,1918
2995,1943
2996,1919
2997,1914
2998,1904
2999,1853
3000,1846
3001,1813
3002,1790
3003,990
3004,1823
3005,1872
3006,2100
3007,2165
3008,2027
3009,1941
3010,2018
3011,2020
3012,1916
3013,1817
3014,1818
3015,1801
3016,1790
3017,1799
3018,1831
3019,1841
3020,1854
3021,1856
3022,1856
3023,1872
3024,1918
3025,1923
3026,1911
3027,1890
3028,1904
3029,1874
3030,1859
3031,1881
3032,1901
3033,1862
3034,326
3035,1840
3036,1874
3037,1997
3038,2038
3039,1907
3040,1805
3041,2045
3042,2075
3043,1966
3044,1888
3045,1865
3046,1825
3047,1838
3048,1872
3049,1885
3050,1921
3051,1887
3052,1879
3053,1854
3054,1840
3055,1821
3056,1856
3057,1873
3058,1887
3059,1874
3060,1840
3061,1843
3062,1854
3063,1861
3064,1887
3065,0
3066,1833
3067,1935
3068,2031
3069,2075
3070,1894
3071,1808
3072,1949
3073,2002
3074,1936
3075,1857
3076,1840
3077,1847
3078,1872
3079,1898
3080,1909
3081,1957
3082,1957
3083,1903
3084,1901
3085,1843
3086,1856
3087,1844
3088,1840
3089,1853
3090,1819
3091,1837
3092,1830
3093,1835
3094,1863
3095,1868
3096,0
3097,1787
3098,2015
3099,2175
3100,2193
3101,1913
3102,1862
3103,1951
3104,1936
3105,1834
3106,1808
3107,1824
3108,1809
3109,1840
3110,1863
3111,1873
3112,1952
3113,1957
3114,1929
3115,1933
3116,1914
3117,1889
3118,1872
3119,1841
3120,1823
3121,1787
3122,1806
3123,1808
3124,1844
3125,1877
3126,1877
3127,291
3128,1755
3129,2000
3130,2190
3131,2288
3132,2013
3133,1917
3134,1957
3135,1907
3136,1837
3137,1788
3138,1798
3139,1762
3140,1793
3141,1833
3142,1879
3143,1925
3144,1907
3145,1931
3146,1941
3147,1936
3148,1934
3149,1937
3150,1876
3151,1863
3152,1818
3153,1809
3154,1794
3155,1769
3156,1795
3157,1851
3158,1514
3159,1694
3160,1979
3161,2174
3162,2304
3163,2032
3164,1935
3165,2060
3166,2000
3167,1888
3168,1830
3169,1773
3170,1735
3171,1723
3172,1746
3173,1790
3174,1872
3175,1889
3176,1905
3177,1926
3178,1936
3179,1936
3180,1938
3181,1950
3182,1905
3183,1849
3184,1824
3185,1809
3186,1781
3187,1776
3188,1786
3189,1786
3190,1584
3191,1959
3192,2160
3193,2320
3194,2041
3195,1905
3196,1968
3197,1974
3198,1920
3199,1873
3200,1839
3201,1779
3202,1733
3203,1741
3204,1765
3205,1811
3206,1864
3207,1873
3208,1918
3209,1909
3210,1939
3211,1919
3212,1923
3213,1907
3214,1872
3215,1881
3216,1844
3217,1814
3218,1799
3219,1807
3220,1792
3221,1459
3222,1905
3223,2079
3224,2288
3225,2000
3226,1817
3227,1972
3228,2041
3229,1923
3230,1885
3231,1895
3232,1818
3233,1802
3234,1808
3235,1827
3236,1845
3237,1841
3238,1841
3239,1869
3240,1859
3241,1888
3242,1905
3243,1904
3244,1893
3245,1869
3246,1853
3247,1861
3248,1873
3249,1872
3250,1857
3251,1841
3252,1264
3253,1886
3254,2013
3255,2241
3256,2036
3257,1734
3258,1917
3259,2000
3260,1904
3261,1840
3262,1882
3263,1859
3264,1813
3265,1855
3266,1870
3267,1873
3268,1875
3269,1878
3270,1853
3271,1859
3272,1862
3273,1871
3274,1909
3275,1865
3276,1844
3277,1845
3278,1862
3279,1856
3280,1854
3281,1901
3282,1871
3283,1033
3284,1902
3285,2027
3286,2192
3287,2045
3288,1690
3289,1903
3290,2043
3291,1948
3292,1894
3293,1898
3294,1840
3295,1826
3296,1853
3297,1880
3298,1952
3299,1943
3300,1917
3301,1904
3302,1865
3303,1856
3304,1836
3305,1819
3306,1821
3307,1815
3308,1821
3309,1835
3310,1844
3311,1859
3312,1885
3313,1887
3314,743
3315,1921
3316,2068
3317,2261
3318,2141
3319,1718
3320,1835
3321,1961
3322,1889
3323,1829
3324,1839
3325,1822
3326,1812
3327,1828
3328,1870
3329,1933
3330,1954
3331,1959
3332,1962
3333,1937
3334,1904
3335,1875
3336,1847
3337,1803
3338,1782
3339,1776
3340,1786
3341,1815
3342,1830
3343,1856
3344,1855
3345,523
3346,1910
3347,2067
3348,2322
3349,2218
3350,1776
3351,1876
3352,1961
3353,1867
3354,1792
3355,1786
3356,1792
3357,1791
3358,1831
3359,1856
3360,1902
3361,1937
3362,1947
3363,1950
3364,1936
3365,1988
3366,1926
3367,1899
3368,1858
3369,1792
3370,1767
3371,1747
3372,1754
3373,1793
3374,1842
3375,1868
3376,0
3377,1843
3378,2055
3379,2321
3380,2336
3381,1886
3382,1902
3383,1983
3384,1927
3385,1808
3386,1751
3387,1727
3388,1719
3389,1777
3390,1793
3391,1872
3392,1918
3393,1929
3394,1945
3395,1950
3396,1955
3397,1935
3398,1947
3399,1893
3400,1853
3401,1810
3402,1795
3403,1798
3404,1776
3405,1781
3406,1823
3407,80
3408,1791
3409,2002
3410,2256
3411,2283
3412,1863
3413,1872
3414,2014
3415,2005
3416,1869
3417,1822
3418,1802
3419,1740
3420,1729
3421,1758
3422,1805
3423,1882
3424,1922
3425,1940
3426,1949
3427,1941
3428,1949
3429,1926
3430,1913
3431,1901
3432,1849
3433,1813
3434,1814
3435,1810
3436,1786
3437,1794
3438,1804
3439,1853
3440,1870
3441,1874
3442,1904
3443,1891
3444,1882
3445,1894
3446,1893
3447,1895
3448,1901
3449,1885
3450,1840
3451,1822
3452,1819
3453,1819
3454,1794
3455,1820
3456,1821
3457,1849
3458,1872
3459,1872
3460,1891
3461,1917
3462,1913
3463,1906
3464,1893
3465,1921
3466,1876
3467,1862
3468,1833
3469,1830
3470,1824
3471,1818
3472,1822
3473,1835
3474,1867
3475,1856
3476,1869
3477,1865
3478,1867
3479,1891
3480,1888
3481,1905
3482,1872
3483,1845
3484,1846
3485,1867
3486,1817
3487,1808
3488,1808
3489,1812
3490,1849
3491,1856
3492,1871
3493,1878
3494,1901
3495,1903
3496,1905
3497,1904
3498,1930
3499,1904
3500,1854
3501,1832
3502,1817
3503,1811
3504,1797
3505,1801
3506,1807
3507,1831
3508,1871
3509,1855
3510,1878
3511,1889
3512,1903
3513,1900
3514,1925
3515,1918
3516,1873
3517,1844
3518,1835
3519,1808
3520,1802
3521,1808
3522,1799
3523,1821
3524,1839
3525,1871
3526,1898
3527,1894
3528,1888
3529,1903
3530,1901
3531,1917
3532,1891
3533,1875
3534,1848
3535,1809
3536,1811
3537,1781
3538,1798
3539,1814
3540,1850
3541,1865
3542,1859
3543,1871
3544,1907
3545,1905
3546,1898
3547,1914
3548,1926
3549,1893
3550,1859
3551,1838
3552,1809
3553,1808
3554,1789
3555,1814
3556,1808
3557,1840
3558,1856
3559,1872
3560,1882
3561,1909
3562,1901
3563,1899
3564,1925
3565,1922
3566,1869
3567,1856
3568,1839
3569,1803
3570,1810
3571,1799
3572,1829
3573,1833
3574,1847
3575,1872
3576,1872
3577,1899
3578,1877
3579,1877
3580,1904
3581,1922
3582,1873
3583,1879
3584,1869
3585,1866
3586,1804
3587,1792
3588,1800
3589,1787
3590,1835
3591,1857
3592,1866
3593,1893
3594,1879
3595,1904
3596,1893
3597,1883
3598,1904
3599,1901
3600,1861
3601,1839
3602,1827
3603,1818
3604,1797
3605,1819
3606,1835
3607,1870
3608,1851
3609,1865
3610,1884
3611,1862
3612,1889
3613,1889
3614,1856
3615,1893
3616,1877
3617,1840
3618,1830
3619,1818
3620,1803
3621,1806
3622,1822
3623,1845
3624,1856
3625,1863
3626,1877
3627,1875
3628,1877
3629,1877
3630,1882
3631,1919
3632,1915
3633,1871
3634,1838
3635,1815
3636,1792
3637,1791
3638,1805
3639,1853
3640,1858
3641,1868
3642,1858
3643,1878
3644,1883
3645,1901
3646,1891
3647,1898
3648,1905
3649,1882
3650,1851
3651,1835
3652,1829
3653,1807
3654,1791
3655,1783
3656,1829
3657,1803
3658,1873
3659,1865
3660,1874
3661,1887
3662,1898
3663,1899
3664,1882
3665,1915
3666,1882
3667,1847
3668,1819
3669,1818
3670,1808
3671,1808
3672,1828
3673,1828
3674,1870
3675,1866
3676,1867
3677,1871
3678,1900
3679,1903
3680,1907
3681,1911
3682,1906
3683,1863
3684,1849
3685,1821
3686,1805
3687,1789
3688,1793
3689,1759
3690,1830
3691,1860
3692,1855
3693,1899
3694,1890
3695,1906
3696,1897
3697,1889
3698,1909
3699,1891
3700,1856
3701,1827
3702,1823
3703,1799
3704,1792
3705,1805
3706,1819
3707,1887
3708,1855
3709,1872
3710,1869
3711,1904
3712,1891
3713,1899
3714,1919
3715,1905
3716,1875
3717,1853
3718,1831
3719,1798
3720,1802
3721,1804
3722,1799
3723,1840
3724,1859
3725,1876
3726,1867
3727,1895
3728,1905
3729,1889
3730,1904
3731,1935
3732,1936
3733,1867
3734,1840
3735,1829
3736,1796
3737,1791
3738,1798
3739,1851
3740,1851
3741,1862
3742,1882
3743,1865
3744,1883
3745,1897
3746,1893
3747,1914
3748,1906
3749,1881
3750,1865
3751,1851
3752,1829
3753,1808
3754,1805
3755,1816
3756,1829
3757,1857
3758,1868
3759,1855
3760,1883
3761,1879
3762,1895
3763,1895
3764,1893
3765,1921
3766,1872
3767,1872
3768,1866
3769,1829
3770,1803
3771,1798
3772,1801
3773,1795
3774,1879
3775,1855
3776,1887
3777,1886
3778,1895
3779,1892
3780,1901
3781,1931
3782,1891
3783,1869
3784,1841
3785,1844
3786,1808
3787,1793
3788,1805
3789,1807
3790,1847
3791,1869
3792,1888
3793,1883
3794,1871
3795,1906
3796,1904
3797,1909
3798,1913
3799,1893
3800,1847
3801,1851
3802,1824
3803,1808
3804,1791
3805,1788
3806,1809
3807,1825
3808,1861
3809,1883
3810,1889
3811,1884
3812,1895
3813,1895
3814,1937
3815,1930
3816,1883
3817,1864
3818,1854
3819,1819
3820,1805
3821,1802
3822,1803
3823,1838
3824,1851
3825,1854
3826,1893
3827,1875
3828,1894
3829,1904
3830,1904
3831,1921
3832,1913
3833,1868
3834,1841
3835,1819
3836,1819
3837,1805
3838,1802
3839,1822
3840,1807
3841,1858
3842,1857
3843,1873
3844,1887
3845,1894
3846,1894
3847,1890
3848,1914
3849,1891
3850,1856
3851,1840
3852,1827
3853,1798
3854,1791
3855,1819
3856,1839
3857,1850
3858,1872
3859,1881
3860,1898
3861,1900
3862,1903
3863,1902
3864,1921
3865,1901
3866,1867
3867,1847
3868,1838
3869,1808
3870,1806
3871,1805
3872,1824
3873,1824
3874,1870
3875,1891
3876,1870
3877,1893
3878,1889
3879,1905
3880,1885
3881,1921
3882,1916
3883,1870
3884,1863
3885,1818
3886,1826
3887,1802
3888,1798
3889,1802
3890,1841
3891,1866
3892,1869
3893,1895
3894,1909
3895,1893
3896,1892
3897,1911
3898,1919
3899,1906
3900,1856
3901,1840
3902,1819
3903,1807
3904,1815
3905,1811
3906,1821
3907,1840
3908,1867
3909,1874
3910,1886
3911,1884
3912,1901
3913,1900
3914,1862
3915,1910
3916,1875
3917,1865
3918,1843
3919,1847
3920,1811
3921,1808
3922,1831
3923,1850
3924,1861
3925,1846
3926,1888
3927,1878
3928,1920
3929,1887
3930,1881
3931,1904
3932,1918
3933,1856
3934,1846
3935,1835
3936,1808
3937,1804
3938,1802
3939,1795
3940,1843
3941,1860
3942,1883
3943,1875
3944,1890
3945,1904
3946,1894
3947,1903
3948,1936
3949,1886
3950,1858
3951,1837
3952,1811
3953,1832
3954,1789
3955,1803
3956,1836
3957,1838
3958,1876
3959,1858
3960,1870
3961,1883
3962,1894
3963,1898
3964,1930
3965,1908
3966,1872
3967,1855
3968,1839
3969,1823
3970,1805
3971,1805
3972,1796
3973,1842
3974,1866
3975,1883
3976,1887
3977,1891
3978,1909
3979,1881
3980,1886
3981,1906
3982,1936
3983,1865
3984,1852
3985,1845
3986,1814
3987,1776
3988,1793
3989,1834
3990,1847
3991,1869
3992,1877
3993,1889
3994,1904
3995,1897
3996,1894
3997,1902
3998,1916
3999,1904
4000,1858
4001,1844
4002,1838
4003,1807
4004,1793
4005,1799
4006,1827
4007,1845
4008,1863
4009,1865
4010,1904
4011,1898
4012,1906
4013,1902
4014,1937
4015,1904
4016,1872
4017,1861
4018,1844
4019,1847
4020,1795
4021,1793
4022,1820
4023,1850
4024,1874
4025,1872
4026,1892
4027,1875
4028,1878
4029,1904
4030,1895
4031,1923
4032,1888
4033,1877
4034,1861
4035,1838
4036,1806
4037,1796
4038,1805
4039,1840
4040,1842
4041,1872
4042,1870
4043,1885
4044,1898
4045,1895
4046,1898
4047,1883
4048,1920
4049,1879
4050,1849
4051,1850
4052,1820
4053,1809
4054,1818
4055,1805
4056,1826
4057,1854
4058,1872
4059,1879
4060,1883
4061,1910
4062,1885
4063,1897
4064,1893
4065,1915
4066,1882
4067,1838
4068,1831
4069,1823
4070,1803
4071,1802
4072,1810
4073,1831
4074,1856
4075,1872
4076,1859
4077,1869
4078,1902
4079,1907
4080,1889
4081,1930
4082,1904
4083,1871
4084,1831
4085,1857
4086,1835
4087,1797
4088,1798
4089,1808
4090,1830
4091,1872
4092,1877
4093,1877
4094,1894
4095,1897
4096,1893
4097,1890
4098,1915
4099,1883
4100,1865
4101,1838
4102,1828
4103,1805
4104,1815
4105,1809
4106,1827
4107,1821
4108,1866
4109,1867
4110,1875
4111,1922
4112,1902
4113,1891
4114,1919
4115,1906
4116,1872
4117,1860
4118,1850
4119,1829
4120,1809
4121,1808
4122,1830
4123,1815
4124,1859
4125,1882
4126,1873
4127,1893
4128,1903
4129,1893
4130,1897
4131,1933
4132,1904
4133,1876
4134,1841
4135,1846
4136,1828
4137,1804
4138,1802
4139,1802
4140,1795
4141,1844
4142,1841
4143,1870
4144,1873
4145,1887
4146,1895
4147,1887
4148,1942
4149,1910
4150,1864
4151,1840
4152,1825
4153,1814
4154,1808
4155,1824
4156,1814
4157,1854
4158,1875
4159,1883
4160,1886
4161,1889
4162,1893
4163,1895
4164,1920
4165,1904
4166,1875
4167,1853
4168,1833
4169,1818
4170,1805
4171,1808
4172,1807
4173,1841
4174,1865
4175,1874
4176,1888
4177,1893
4178,1903
4179,1896
4180,1905
4181,1921
4182,1920
4183,1879
4184,1844
4185,1813
4186,1777
4187,1807
4188,1806
4189,1819
4190,1859
4191,1895
4192,1902
4193,1890
4194,1895
4195,1878
4196,1857
4197,1860
4198,1910
4199,1872
4200,1855
4201,1830
4202,1809
4203,1802
4204,1779
4205,1794
4206,1829
4207,1851
4208,1869
4209,1861
4210,1900
4211,1875
4212,1898
4213,1895
4214,1911
4215,1917
4216,1875
4217,1848
4218,1840
4219,1810
4220,1807
4221,1806
4222,1826
4223,1829
4224,1858
4225,1864
4226,1885
4227,1889
4228,1900
4229,1879
4230,1883
4231,1920
4232,1921
4233,1869
4234,1847
4235,1823
4236,1799
4237,1783
4238,1804
4239,1829
4240,1840
4241,1872
4242,1875
4243,1874
4244,1899
4245,1907
4246,1899
4247,1904
4248,1903
4249,1891
4250,1851
4251,1853
4252,1826
4253,1809
4254,1801
4255,1808
4256,1839
4257,1845
4258,1865
4259,1887
4260,1859
4261,1893
4262,1886
4263,1888
4264,1907
4265,1918
4266,1872
4267,1859
4268,1842
4269,1813
4270,1811
4271,1808
4272,1825
4273,1823
4274,1871
4275,1902
4276,1873
4277,1904
4278,1913
4279,1891
4280,1901
4281,1907
4282,1873
4283,1855
4284,1847
4285,1824
4286,1776
4287,1798
4288,1793
4289,1833
4290,1859
4291,1872
4292,1879
4293,1876
4294,1909
4295,1904
4296,1894
4297,1907
4298,1903
4299,1913
4300,1888
4301,1845
4302,1822
4303,1787
4304,1776
4305,1797
4306,1808
4307,1840
4308,1827
4309,1851
4310,1862
4311,1898
4312,1890
4313,1879
4314,1910
4315,1911
4316,1862
4317,1844
4318,1833
4319,1815
4320,1795
4321,1799
4322,1793
4323,1825
4324,1871
4325,1870
4326,1904
4327,1897
4328,1906
4329,1887
4330,1889
4331,1927
4332,1904
4333,1872
4334,1853
4335,1822
4336,1776
4337,1787
4338,1808
4339,1821
4340,1866
4341,1874
4342,1875
4343,1890
4344,1888
4345,1901
4346,1890
4347,1875
4348,1899
4349,1887
4350,1861
4351,1833
4352,1808
4353,1813
4354,1814
4355,1795
4356,1837
4357,1852
4358,1851
4359,1872
4360,1889
4361,1882
4362,1899
4363,1890
4364,1916
4365,1890
4366,1866
4367,1876
4368,1840
4369,1813
4370,1803
4371,1802
4372,1825
4373,1829
4374,1891
4375,1881
4376,1879
4377,1875
4378,1884
4379,1868
4380,1921
4381,1934
4382,1925
4383,1877
4384,1847
4385,1801
4386,1819
4387,1783
4388,1808
4389,1823
4390,1840
4391,1861
4392,1893
4393,1890
4394,1877
4395,1904
4396,1897
4397,1896
4398,1911
4399,1883
4400,1835
4401,1849
4402,1833
4403,1805
4404,1800
4405,1792
4406,1819
4407,1849
4408,1854
4409,1872
4410,1870
4411,1901
4412,1895
4413,1914
4414,1920
4415,1905
4416,1873
4417,1856
4418,1842
4419,1829
4420,1801
4421,1803
4422,1830
4423,1843
4424,1857
4425,1883
4426,1900
4427,1887
4428,1915
4429,1912
4430,1903
4431,1919
4432,1904
4433,0
4434,1782
4435,1984
4436,2177
4437,2274
4438,2251
4439,2205
4440,2060
4441,1946
4442,1947
4443,1935
4444,1843
4445,1762
4446,1712
4447,1690
4448,1635
4449,1645
4450,1645
4451,1706
4452,1761
4453,1796
4454,1840
4455,1829
4456,1849
4457,1881
4458,1903
4459,1922
4460,1925
4461,1927
4462,1923
4463,1903
4464,400
4465,1770
4466,1971
4467,2103
4468,2173
4469,2165
4470,2063
4471,1847
4472,1922
4473,1958
4474,1936
4475,1823
4476,1760
4477,1743
4478,1750
4479,1759
4480,1783
4481,1863
4482,1889
4483,1906
4484,1887
4485,1872
4486,1843
4487,1831
4488,1830
4489,1847
4490,1857
4491,1883
4492,1889
4493,1878
4494,1898
4495,1153
4496,1643
4497,1967
4498,2087
4499,2134
4500,2126
4501,1961
4502,1810
4503,1966
4504,1927
4505,1875
4506,1824
4507,1813
4508,1813
4509,1818
4510,1842
4511,1904
4512,1910
4513,1949
4514,1951
4515,1938
4516,1906
4517,1886
4518,1873
4519,1846
4520,1819
4521,1823
4522,1811
4523,1867
4524,1859
4525,1836
4526,1831
4527,1535
4528,1968
4529,2062
4530,2143
4531,2171
4532,1969
4533,1888
4534,2002
4535,2018
4536,1827
4537,1757
4538,1728
4539,1750
4540,1774
4541,1833
4542,1872
4543,1935
4544,1934
4545,1939
4546,1934
4547,1953
4548,1947
4549,1913
4550,1888
4551,1845
4552,1830
4553,1814
4554,1775
4555,1792
4556,1786
4557,1826
4558,1439
4559,1923
4560,2038
4561,2177
4562,2160
4563,1920
4564,1997
4565,2134
4566,2058
4567,1859
4568,1771
4569,1735
4570,1711
4571,1725
4572,1770
4573,1791
4574,1893
4575,1917
4576,1934
4577,1919
4578,1922
4579,1902
4580,1907
4581,1950
4582,1924
4583,1879
4584,1840
4585,1798
4586,1808
4587,1776
4588,1775
4589,1297
4590,1881
4591,2019
4592,2172
4593,2160
4594,1914
4595,1986
4596,2107
4597,2064
4598,1930
4599,1817
4600,1778
4601,1739
4602,1733
4603,1773
4604,1797
4605,1844
4606,1882
4607,1892
4608,1905
4609,1929
4610,1917
4611,1939
4612,1917
4613,1894
4614,1914
4615,1898
4616,1856
4617,1842
4618,1829
4619,1808
4620,898
4621,1812
4622,1936
4623,2089
4624,2147
4625,1881
4626,1959
4627,2106
4628,2089
4629,1917
4630,1878
4631,1863
4632,1830
4633,1790
4634,1791
4635,1823
4636,1831
4637,1856
4638,1834
4639,1862
4640,1889
4641,1891
4642,1911
4643,1904
4644,1910
4645,1904
4646,1880
4647,1870
4648,1876
4649,1863
4650,1827
4651,613
4652,1826
4653,1925
4654,2079
4655,2112
4656,1841
4657,1929
4658,2110
4659,2067
4660,1892
4661,1837
4662,1831
4663,1804
4664,1841
4665,1875
4666,1874
4667,1887
4668,1898
4669,1885
4670,1842
4671,1839
4672,1859
4673,1863
4674,1902
4675,1909
4676,1895
4677,1875
4678,1854
4679,1867
4680,1856
4681,1899
4682,144
4683,1840
4684,1971
4685,2128
4686,2145
4687,1818
4688,1817
4689,2023
4690,2032
4691,1883
4692,1845
4693,1839
4694,1834
4695,1851
4696,1872
4697,1919
4698,1974
4699,1934
4700,1881
4701,1872
4702,1846
4703,1826
4704,1831
4705,1840
4706,1839
4707,1845
4708,1847
4709,1841
4710,1849
4711,1909
4712,1894
4713,0
4714,1847
4715,2040
4716,2160
4717,2166
4718,1825
4719,1776
4720,1998
4721,2009
4722,1843
4723,1807
4724,1840
4725,1807
4726,1801
4727,1852
4728,1905
4729,1941
4730,1938
4731,1949
4732,1937
4733,1901
4734,1863
4735,1850
4736,1817
4737,1808
4738,1807
4739,1790
4740,1804
4741,1831
4742,1847
4743,1865
4744,166
4745,1785
4746,2005
4747,2163
4748,2240
4749,1904
4750,1830
4751,2014
4752,2038
4753,1874
4754,1790
4755,1785
4756,1795
4757,1781
4758,1822
4759,1878
4760,1913
4761,1966
4762,1936
4763,1918
4764,1935
4765,1919
4766,1895
4767,1872
4768,1837
4769,1807
4770,1776
4771,1767
4772,1797
4773,1809
4774,1843
4775,832
4776,1700
4777,1989
4778,2167
4779,2256
4780,1965
4781,1823
4782,2060
4783,2096
4784,1914
4785,1823
4786,1829
4787,1745
4788,1765
4789,1792
4790,1876
4791,1915
4792,1937
4793,1931
4794,1932
4795,1921
4796,1919
4797,1932
4798,1936
4799,1899
4800,1835
4801,1822
4802,1783
4803,1776
4804,1793
4805,1776
4806,1616
4807,1587
4808,1968
4809,2102
4810,2218
4811,1977
4812,1758
4813,2059
4814,2171
4815,2014
4816,1886
4817,1830
4818,1813
4819,1754
4820,1759
4821,1795
4822,1845
4823,1840
4824,1920
4825,1919
4826,1936
4827,1923
4828,1914
4829,1914
4830,1894
4831,1901
4832,1857
4833,1840
4834,1829
4835,1803
4836,1797
4837,1788
4838,1415
4839,1897
4840,2066
4841,2190
4842,1995
4843,1749
4844,2015
4845,2157
4846,2003
4847,1890
4848,1916
4849,1845
4850,1808
4851,1827
4852,1817
4853,1849
4854,1860
4855,1841
4856,1857
4857,1851
4858,1889
4859,1885
4860,1904
4861,1904
4862,1877
4863,1881
4864,1890
4865,1872
4866,1855
4867,1821
4868,1822
4869,1269
4870,1867
4871,1997
4872,2160
4873,1970
4874,1710
4875,1968
4876,2151
4877,2011
4878,1920
4879,1902
4880,1878
4881,1881
4882,1867
4883,1871
4884,1882
4885,1873
4886,1853
4887,1842
4888,1825
4889,1862
4890,1843
4891,1875
4892,1874
4893,1881
4894,1855
4895,1859
4896,1873
4897,1857
4898,1916
4899,1872
4900,1136
4901,1907
4902,2000
4903,2155
4904,2003
4905,1663
4906,1862
4907,2079
4908,2021
4909,1886
4910,1884
4911,1877
4912,1872
4913,1872
4914,1904
4915,1951
4916,1901
4917,1874
4918,1856
4919,1853
4920,1837
4921,1843
4922,1840
4923,1819
4924,1834
4925,1815
4926,1809
4927,1861
4928,1867
4929,1883
4930,1871
4931,930
4932,1942
4933,2033
4934,2176
4935,2038
4936,1663
4937,1843
4938,2064
4939,2015
4940,1905
4941,1886
4942,1851
4943,1839
4944,1871
4945,1887
4946,1923
4947,1964
4948,1947
4949,1906
4950,1886
4951,1877
4952,1845
4953,1831
4954,1837
4955,1782
4956,1763
4957,1818
4958,1827
4959,1852
4960,1872
4961,1890
4962,752
4963,1919
4964,2076
4965,2180
4966,2129
4967,1722
4968,1867
4969,2077
4970,1977
4971,1845
4972,1829
4973,1782
4974,1828
4975,1829
4976,1869
4977,1899
4978,1953
4979,1936
4980,1953
4981,1955
4982,1937
4983,1899
4984,1856
4985,1840
4986,1792
4987,1749
4988,1776
4989,1782
4990,1823
4991,1840
4992,1865
4993,186
4994,1891
4995,2047
4996,2196
4997,2195
4998,1775
4999,1843
5000,2031
5001,2025
5002,1885
5003,1806
5004,1830
5005,1802
5006,1817
5007,1859
5008,1889
5009,1955
5010,1936
5011,1919
5012,1943
5013,1931
5014,1937
5015,1911
5016,1870
5017,1837
5018,1799
5019,1792
5020,1777
5021,1776
5022,1792
5023,1839
5024,0
5025,1793
5026,2021
5027,2185
5028,2191
5029,1811
5030,1842
5031,2114
5032,2100
5033,1922
5034,1872
5035,1815
5036,1780
5037,1770
5038,1787
5039,1852
5040,1890
5041,1911
5042,1909
5043,1919
5044,1937
5045,1921
5046,1920
5047,1921
5048,1882
5049,1840
5050,1811
5051,1811
5052,1791
5053,1792
5054,1794
5055,1799
5056,1840
5057,1828
5058,1858
5059,1884
5060,1902
5061,1903
5062,1904
5063,1927
5064,1907
5065,1895
5066,1874
5067,1839
5068,1838
5069,1808
5070,1797
5071,1808
5072,1837
5073,1838
5074,1878
5075,1890
5076,1897
5077,1883
5078,1904
5079,1904
5080,1891
5081,1911
5082,1900
5083,1855
5084,1852
5085,1828
5086,1803
5087,1802
5088,1789
5089,1813
5090,1827
5091,1855
5092,1877
5093,1890
5094,1885
5095,1891
5096,1888
5097,1916
5098,1887
5099,1878
5100,1873
5101,1865
5102,1824
5103,1783
5104,1808
5105,1821
5106,1825
5107,1843
5108,1870
5109,1876
5110,1889
5111,1897
5112,1892
5113,1902
5114,1918
5115,1910
5116,1871
5117,1846
5118,1818
5119,1813
5120,1802
5121,1803
5122,1799
5123,1790
5124,1857
5125,1863
5126,1874
5127,1885
5128,1894
5129,1890
5130,1873
5131,1914
5132,1872
5133,1840
5134,1817
5135,1839
5136,1808
5137,1817
5138,1812
5139,1840
5140,1860
5141,1867
5142,1862
5143,1862
5144,1876
5145,1891
5146,1897
5147,1904
5148,1937
5149,1879
5150,1855
5151,1843
5152,1808
5153,1808
5154,1793
5155,1805
5156,1824
5157,1854
5158,1857
5159,1882
5160,1878
5161,1879
5162,1899
5163,1916
5164,1905
5165,1901
5166,1873
5167,1851
5168,1837
5169,1808
5170,1797
5171,1806
5172,1824
5173,1830
5174,1875
5175,1869
5176,1877
5177,1858
5178,1885
5179,1893
5180,1918
5181,1911
5182,1886
5183,1861
5184,1856
5185,1808
5186,1799
5187,1805
5188,1808
5189,1819
5190,1837
5191,1861
5192,1855
5193,1867
5194,1894
5195,1893
5196,1898
5197,1887
5198,1889
5199,1878
5200,1870
5201,1851
5202,1818
5203,1797
5204,1807
5205,1803
5206,1822
5207,1867
5208,1863
5209,1879
5210,1879
5211,1881
5212,1901
5213,1904
5214,1917
5215,1895
5216,1875
5217,1831
5218,1821
5219,1794
5220,1787
5221,1798
5222,1826
5223,1830
5224,1867
5225,1877
5226,1890
5227,1896
5228,1906
5229,1900
5230,1906
5231,1903
5232,1895
5233,1875
5234,1849
5235,1840
5236,1811
5237,1799
5238,1799
5239,1821
5240,1865
5241,1867
5242,1866
5243,1877
5244,1873
5245,1891
5246,1890
5247,1920
5248,1902
5249,1873
5250,1849
5251,1847
5252,1840
5253,1807
5254,1803
5255,1801
5256,1805
5257,1855
5258,1872
5259,1875
5260,1893
5261,1897
5262,1887
5263,1893
5264,1914
5265,1894
5266,1869
5267,1845
5268,1839
5269,1808
5270,1804
5271,1799
5272,1805
5273,1821
5274,1869
5275,1853
5276,1885
5277,1887
5278,1890
5279,1885
5280,1898
5281,1903
5282,1889
5283,1861
5284,1847
5285,1827
5286,1820
5287,1792
5288,1802
5289,1819
5290,1827
5291,1871
5292,1874
5293,1881
5294,1889
5295,1901
5296,1901
5297,1935
5298,1896
5299,1886
5300,1845
5301,1847
5302,1825
5303,1808
5304,1801
5305,1799
5306,1819
5307,1842
5308,1859
5309,1878
5310,1889
5311,1894
5312,1904
5313,1898
5314,1920
5315,1905
5316,1870
5317,1841
5318,1827
5319,1812
5320,1794
5321,1802
5322,1781
5323,1852
5324,1860
5325,1870
5326,1872
5327,1873
5328,1903
5329,1902
5330,1891
5331,1925
5332,1884
5333,1866
5334,1843
5335,1815
5336,1810
5337,1789
5338,1789
5339,1811
5340,1831
5341,1856
5342,1879
5343,1904
5344,1875
5345,1899
5346,1897
5347,1886
5348,1903
5349,1886
5350,1842
5351,1850
5352,1815
5353,1818
5354,1803
5355,1810
5356,1846
5357,1857
5358,1885
5359,1872
5360,1885
5361,1898
5362,1886
5363,1909
5364,1906
5365,1919
5366,1855
5367,1849
5368,1831
5369,1783
5370,1795
5371,1801
5372,1794
5373,1840
5374,1872
5375,1881
5376,1882
5377,1879
5378,1904
5379,1897
5380,1884
5381,1900
5382,1907
5383,1871
5384,1855
5385,1847
5386,1816
5387,1808
5388,1797
5389,1838
5390,1840
5391,1856
5392,1871
5393,1881
5394,1903
5395,1898
5396,1891
5397,1879
5398,1904
5399,1889
5400,1857
5401,1845
5402,1831
5403,1822
5404,1803
5405,1799
5406,1809
5407,1861
5408,1859
5409,1889
5410,1879
5411,1882
5412,1890
5413,1902
5414,1916
5415,1936
5416,1871
5417,1856
5418,1857
5419,1808
5420,1793
5421,1806
5422,1848
5423,1809
5424,1872
5425,1876
5426,1876
5427,1872
5428,1893
5429,1889
5430,1901
5431,1921
5432,1888
5433,1844
5434,1809
5435,1815
5436,1808
5437,1805
5438,1795
5439,1824
5440,1862
5441,1872
5442,1882
5443,1898
5444,1904
5445,1903
5446,1901
5447,1901
5448,1918
5449,1884
5450,1856
5451,1851
5452,1808
5453,1796
5454,1797
5455,1791
5456,1817
5457,1839
5458,1872
5459,1893
5460,1885
5461,1904
5462,1891
5463,1895
5464,1929
5465,1903
5466,1861
5467,1833
5468,1845
5469,1819
5470,1799
5471,1798
5472,1834
5473,1819
5474,1866
5475,1879
5476,1889
5477,1878
5478,1903
5479,1897
5480,1888
5481,1931
5482,1872
5483,1862
5484,1835
5485,1807
5486,1792
5487,1789
5488,1809
5489,1826
5490,1867
5491,1865
5492,1872
5493,1884
5494,1920
5495,1895
5496,1898
5497,1929
5498,1909
5499,1890
5500,1857
5501,1846
5502,1826
5503,1811
5504,1805
5505,1799
5506,1846
5507,1853
5508,1882
5509,1878
5510,1889
5511,1893
5512,1887
5513,1895
5514,1903
5515,1905
5516,1856
5517,1823
5518,1821
5519,1799
5520,1806
5521,1805
5522,1856
5523,1854
5524,1856
5525,1863
5526,1878
5527,1904
5528,1905
5529,1897
5530,1890
5531,1895
5532,1886
5533,1853
5534,1846
5535,1856
5536,1802
5537,1808
5538,1802
5539,1845
5540,1822
5541,1871
5542,1891
5543,1888
5544,1886
5545,1882
5546,1895
5547,1855
5548,1920
5549,1879
5550,1850
5551,1829
5552,1821
5553,1801
5554,1803
5555,1806
5556,1835
5557,1870
5558,1873
5559,1875
5560,1885
5561,1918
5562,1904
5563,1904
5564,1914
5565,1904
5566,1866
5567,1855
5568,1835
5569,1776
5570,1806
5571,1803
5572,1857
5573,1840
5574,1854
5575,1873
5576,1866
5577,1879
5578,1901
5579,1892
5580,1888
5581,1932
5582,1877
5583,1875
5584,1833
5585,1841
5586,1813
5587,1791
5588,1819
5589,1818
5590,1827
5591,1857
5592,1889
5593,1882
5594,1913
5595,1906
5596,1900
5597,1925
5598,1925
5599,1890
5600,1851
5601,1840
5602,1840
5603,1806
5604,1802
5605,1807
5606,1835
5607,1851
5608,1858
5609,1883
5610,1887
5611,1892
5612,1886
5613,1891
5614,1930
5615,1907
5616,1866
5617,1840
5618,1837
5619,1810
5620,1794
5621,1805
5622,1845
5623,1857
5624,1857
5625,1872
5626,1891
5627,1855
5628,1904
5629,1902
5630,1903
5631,1914
5632,1899
5633,1866
5634,1849
5635,1807
5636,1808
5637,1813
5638,1795
5639,1813
5640,1821
5641,1868
5642,1859
5643,1885
5644,1904
5645,1899
5646,1894
5647,1875
5648,1920
5649,1873
5650,1856
5651,1846
5652,1808
5653,1809
5654,1803
5655,1798
5656,1826
5657,1851
5658,1847
5659,1899
5660,1891
5661,1898
5662,1879
5663,1903
5664,1922
5665,1872
5666,1872
5667,1836
5668,1842
5669,1803
5670,1799
5671,1806
5672,1855
5673,1840
5674,1870
5675,1872
5676,1878
5677,1871
5678,1901
5679,1900
5680,1891
5681,1895
5682,1887
5683,1871
5684,1845
5685,1811
5686,1819
5687,1809
5688,1820
5689,1826
5690,1842
5691,1870
5692,1894
5693,1886
5694,1926
5695,1885
5696,1894
5697,1879
5698,1907
5699,1881
5700,1856
5701,1840
5702,1818
5703,1803
5704,1799
5705,1819
5706,1849
5707,1843
5708,1887
5709,1863
5710,1876
5711,1893
5712,1883
5713,1887
5714,1916
5715,1906
5716,1871
5717,1842
5718,1833
5719,1803
5720,1805
5721,1802
5722,1856
5723,1844
5724,1867
5725,1865
5726,1853
5727,1872
5728,1894
5729,1889
5730,1875
5731,1911
5732,1889
5733,1846
5734,1847
5735,1825
5736,1806
5737,1809
5738,1808
5739,1824
5740,1879
5741,1872
5742,1865
5743,1877
5744,1898
5745,1903
5746,1897
5747,1890
5748,1913
5749,1874
5750,1855
5751,1838
5752,1802
5753,1806
5754,1807
5755,1793
5756,1811
5757,1862
5758,1866
5759,1863
5760,1881
5761,1904
5762,1904
5763,1904
5764,1904
5765,1901
5766,1872
5767,1840
5768,1839
5769,1805
5770,1794
5771,1807
5772,1807
5773,1840
5774,1866
5775,1883
5776,1860
5777,1901
5778,1905
5779,1902
5780,1903
5781,1911
5782,1878
5783,1863
5784,1856
5785,1820
5786,1808
5787,1783
5788,1800
5789,1813
5790,1857
5791,1856
5792,1879
5793,1887
5794,1904
5795,1895
5796,1895
5797,1912
5798,1916
5799,1877
5800,1861
5801,1826
5802,1823
5803,1807
5804,1807
5805,1822
5806,1826
5807,1869
5808,1872
5809,1879
5810,1893
5811,1898
5812,1904
5813,1890
5814,1916
5815,1882
5816,1866
5817,1822
5818,1834
5819,1789
5820,1790
5821,1803
5822,1837
5823,1861
5824,1862
5825,1870
5826,1887
5827,1873
5828,1897
5829,1899
5830,1909
5831,1910
5832,1894
5833,1865
5834,1838
5835,1826
5836,1793
5837,1809
5838,1809
5839,1835
5840,1850
5841,1872
5842,1898
5843,1878
5844,1887
5845,1894
5846,1893
5847,1907
5848,1907
5849,1870
5850,1856
5851,1840
5852,1834
5853,1799
5854,1807
5855,1804
5856,1837
5857,1867
5858,1891
5859,1871
5860,1889
5861,1904
5862,1903
5863,1882
5864,1927
5865,1894
5866,1877
5867,1853
5868,1834
5869,1797
5870,1797
5871,1802
5872,1814
5873,1851
5874,1861
5875,1865
5876,1889
5877,1862
5878,1890
5879,1894
5880,1914
5881,1926
5882,1882
5883,1856
5884,1819
5885,1810
5886,1809
5887,1808
5888,1794
5889,1822
5890,1854
5891,1858
5892,1893
5893,1872
5894,1907
5895,1909
5896,1903
5897,1905
5898,1914
5899,1866
5900,1851
5901,1826
5902,1770
5903,1803
5904,1803
5905,1809
5906,1841
5907,1858
5908,1857
5909,1887
5910,1890
5911,1900
5912,1904
5913,1915
5914,1925
5915,1876
5916,1869
5917,1827
5918,1856
5919,1809
5920,1787
5921,1807
5922,1830
5923,1847
5924,1857
5925,1873
5926,1891
5927,1866
5928,1900
5929,1899
5930,1883
5931,1901
5932,1904
5933,1875
5934,1857
5935,1829
5936,1810
5937,1783
5938,1789
5939,1824
5940,1854
5941,1847
5942,1877
5943,1867
5944,1878
5945,1894
5946,1903
5947,1904
5948,1914
5949,1876
5950,1855
5951,1837
5952,1836
5953,1808
5954,1804
5955,1807
5956,1857
5957,1870
5958,1862
5959,1895
5960,1888
5961,1903
5962,1886
5963,1886
5964,1913
5965,1904
5966,1875
5967,1833
5968,1825
5969,1793
5970,1813
5971,1803
5972,1827
5973,1840
5974,1872
5975,1866
5976,1872
5977,1889
5978,1904
5979,1909
5980,1926
5981,1936
5982,1888
5983,1843
5984,1819
5985,1813
5986,1807
5987,1806
5988,1797
5989,1830
5990,1840
5991,1872
5992,1895
5993,1875
5994,1875
5995,1890
5996,1894
5997,1907
5998,1899
5999,1875
6000,1858
6001,1851
6002,1840
6003,1810
6004,1808
6005,1823
6006,1831
6007,1858
6008,1889
6009,1865
6010,1879
6011,1907
6012,1895
6013,1904
6014,1936
6015,1889
6016,1861
6017,1825
6018,1812
6019,1810
6020,1799
6021,1803
6022,1812
6023,1840
6024,1862
6025,1875
6026,1882
6027,1870
6028,1883
6029,1885
6030,1904
6031,1900
6032,1891
6033,1866
6034,1855
6035,1831
6036,1798
6037,1808
6038,1804
6039,1839
6040,1876
6041,1877
6042,1889
6043,1863
6044,1901
6045,1885
6046,1903
6047,1915
6048,1933
6049,1874
6050,0
6051,1816
6052,1952
6053,2112
6054,2204
6055,2225
6056,2217
6057,2146
6058,1990
6059,2000
6060,2018
6061,1942
6062,1809
6063,1687
6064,1665
6065,1631
6066,1611
6067,1611
6068,1639
6069,1724
6070,1800
6071,1839
6072,1869
6073,1881
6074,1888
6075,1879
6076,1867
6077,1875
6078,1919
6079,1921
6080,1937
6081,181
6082,1851
6083,1997
6084,2143
6085,2253
6086,2218
6087,2129
6088,1886
6089,1808
6090,1937
6091,1933
6092,1831
6093,1750
6094,1712
6095,1702
6096,1703
6097,1735
6098,1782
6099,1840
6100,1857
6101,1890
6102,1886
6103,1863
6104,1858
6105,1871
6106,1886
6107,1895
6108,1915
6109,1902
6110,1882
6111,1905
6112,467
6113,1744
6114,1984
6115,2066
6116,2159
6117,2132
6118,2017
6119,1764
6120,1873
6121,1958
6122,1939
6123,1842
6124,1808
6125,1767
6126,1795
6127,1834
6128,1863
6129,1901
6130,1927
6131,1942
6132,1904
6133,1877
6134,1885
6135,1837
6136,1829
6137,1830
6138,1826
6139,1857
6140,1863
6141,1857
6142,1894
6143,1221
6144,1681
6145,1988
6146,2105
6147,2191
6148,2178
6149,1921
6150,1763
6151,1968
6152,2031
6153,1909
6154,1797
6155,1776
6156,1801
6157,1797
6158,1813
6159,1882
6160,1907
6161,1954
6162,1927
6163,1937
6164,1954
6165,1911
6166,1891
6167,1863
6168,1851
6169,1819
6170,1808
6171,1794
6172,1803
6173,1796
6174,1835
6175,1559
6176,1937
6177,2101
6178,2175
6179,2141
6180,1875
6181,1915
6182,2083
6183,2064
6184,1906
6185,1801
6186,1756
6187,1703
6188,1737
6189,1785
6190,1861
6191,1907
6192,1929
6193,1909
6194,1910
6195,1936
6196,1937
6197,1943
6198,1973
6199,1923
6200,1899
6201,1859
6202,1773
6203,1762
6204,1761
6205,1767
6206,1305
6207,1901
6208,1988
6209,2096
6210,2080
6211,1845
6212,1931
6213,2128
6214,2142
6215,1936
6216,1840
6217,1799
6218,1758
6219,1761
6220,1759
6221,1808
6222,1866
6223,1856
6224,1906
6225,1921
6226,1907
6227,1935
6228,1924
6229,1914
6230,1901
6231,1897
6232,1871
6233,1830
6234,1825
6235,1792
6236,1792
6237,1205
6238,1847
6239,1961
6240,2093
6241,2063
6242,1795
6243,1950
6244,2143
6245,2081
6246,1934
6247,1921
6248,1904
6249,1850
6250,1821
6251,1840
6252,1851
6253,1856
6254,1845
6255,1846
6256,1869
6257,1872
6258,1878
6259,1890
6260,1903
6261,1909
6262,1895
6263,1895
6264,1895
6265,1874
6266,1849
6267,1838
6268,1043
6269,1819
6270,1939
6271,2090
6272,2054
6273,1762
6274,1936
6275,2097
6276,2045
6277,1929
6278,1884
6279,1873
6280,1871
6281,1879
6282,1869
6283,1874
6284,1870
6285,1879
6286,1839
6287,1842
6288,1821
6289,1853
6290,1885
6291,1877
6292,1885
6293,1876
6294,1874
6295,1866
6296,1859
6297,1897
6298,1889
6299,762
6300,1843
6301,1984
6302,2135
6303,2064
6304,1751
6305,1888
6306,2063
6307,2022
6308,1899
6309,1858
6310,1875
6311,1838
6312,1843
6313,1856
6314,1923
6315,1968
6316,1902
6317,1879
6318,1863
6319,1843
6320,1818
6321,1818
6322,1835
6323,1843
6324,1845
6325,1839
6326,1853
6327,1871
6328,1882
6329,1878
6330,165
6331,1883
6332,2035
6333,2141
6334,2119
6335,1759
6336,1850
6337,2030
6338,1986
6339,1876
6340,1857
6341,1829
6342,1813
6343,1825
6344,1862
6345,1894
6346,1933
6347,1951
6348,1939
6349,1904
6350,1875
6351,1858
6352,1861
6353,1811
6354,1815
6355,1795
6356,1821
6357,1830
6358,1827
6359,1855
6360,1869
6361,0
6362,1823
6363,2019
6364,2176
6365,2143
6366,1793
6367,1885
6368,2091
6369,2032
6370,1850
6371,1799
6372,1815
6373,1798
6374,1835
6375,1870
6376,1901
6377,1921
6378,1939
6379,1935
6380,1927
6381,1927
6382,1913
6383,1886
6384,1850
6385,1811
6386,1785
6387,1797
6388,1791
6389,1810
6390,1844
6391,1872
6392,144
6393,1749
6394,2032
6395,2146
6396,2160
6397,1884
6398,1867
6399,2085
6400,2066
6401,1872
6402,1851
6403,1805
6404,1778
6405,1779
6406,1814
6407,1872
6408,1918
6409,1923
6410,1918
6411,1936
6412,1904
6413,1904
6414,1927
6415,1914
6416,1868
6417,1811
6418,1808
6419,1807
6420,1785
6421,1808
6422,1802
6423,814
6424,1671
6425,1984
6426,2096
6427,2194
6428,1907
6429,1838
6430,2109
6431,2119
6432,1956
6433,1871
6434,1808
6435,1782
6436,1750
6437,1777
6438,1807
6439,1861
6440,1882
6441,1895
6442,1916
6443,1922
6444,1904
6445,1904
6446,1921
6447,1910
6448,1893
6449,1838
6450,1806
6451,1791
6452,1820
6453,1789
6454,1599
6455,1556
6456,1931
6457,2093
6458,2170
6459,1929
6460,1791
6461,2059
6462,2111
6463,1995
6464,1931
6465,1905
6466,1838
6467,1802
6468,1820
6469,1819
6470,1842
6471,1858
6472,1875
6473,1882
6474,1890
6475,1891
6476,1904
6477,1934
6478,1899
6479,1877
6480,1878
6481,1886
6482,1874
6483,1843
6484,1840
6485,1795
6486,1451
6487,1887
6488,2017
6489,2135
6490,1908
6491,1741
6492,2000
6493,2113
6494,1990
6495,1904
6496,1904
6497,1902
6498,1872
6499,1852
6500,1850
6501,1868
6502,1871
6503,1835
6504,1831
6505,1843
6506,1854
6507,1871
6508,1879
6509,1894
6510,1867
6511,1879
6512,1893
6513,1869
6514,1902
6515,1911
6516,1855
6517,1389
6518,1902
6519,2022
6520,2121
6521,1918
6522,1690
6523,1965
6524,2115
6525,1983
6526,1890
6527,1890
6528,1877
6529,1858
6530,1853
6531,1903
6532,1899
6533,1887
6534,1888
6535,1843
6536,1839
6537,1808
6538,1808
6539,1831
6540,1871
6541,1839
6542,1848
6543,1871
6544,1888
6545,1895
6546,1901
6547,1903
6548,1297
6549,1956
6550,2075
6551,2214
6552,1998
6553,1677
6554,1893
6555,2029
6556,1965
6557,1879
6558,1872
6559,1843
6560,1843
6561,1841
6562,1872
6563,1902
6564,1964
6565,1925
6566,1885
6567,1869
6568,1842
6569,1807
6570,1808
6571,1803
6572,1811
6573,1818
6574,1846
6575,1857
6576,1882
6577,1881
6578,1889
6579,904
6580,1943
6581,2103
6582,2209
6583,2057
6584,1701
6585,1887
6586,2032
6587,1936
6588,1821
6589,1831
6590,1853
6591,1851
6592,1858
6593,1872
6594,1892
6595,1945
6596,1926
6597,1936
6598,1939
6599,1904
6600,1878
6601,1869
6602,1852
6603,1801
6604,1791
6605,1822
6606,1857
6607,1851
6608,1858
6609,1857
6610,781
6611,1921
6612,2078
6613,2261
6614,2187
6615,1780
6616,1926
6617,2063
6618,1951
6619,1821
6620,1799
6621,1757
6622,1773
6623,1780
6624,1829
6625,1882
6626,1907
6627,1929
6628,1933
6629,1929
6630,1922
6631,1925
6632,1910
6633,1869
6634,1842
6635,1777
6636,1776
6637,1761
6638,1774
6639,1804
6640,1840
6641,118
6642,1860
6643,2054
6644,2254
6645,2176
6646,1775
6647,1918
6648,2086
6649,2031
6650,1883
6651,1847
6652,1831
6653,1751
6654,1760
6655,1790
6656,1853
6657,1900
6658,1919
6659,1908
6660,1919
6661,1933
6662,1930
6663,1926
6664,1933
6665,1898
6666,1841
6667,1833
6668,1796
6669,1803
6670,1783
6671,1776
6672,1824
6673,1813
6674,1873
6675,1882
6676,1872
6677,1893
6678,1901
6679,1903
6680,1909
6681,1922
6682,1885
6683,1886
6684,1838
6685,1803
6686,1805
6687,1791
6688,1795
6689,1822
6690,1843
6691,1871
6692,1894
6693,1868
6694,1929
6695,1894
6696,1902
6697,1920
6698,1920
6699,1872
6700,1827
6701,1814
6702,1808
6703,1792
6704,1807
6705,1828
6706,1837
6707,1858
6708,1875
6709,1882
6710,1879
6711,1895
6712,1904
6713,1891
6714,1910
6715,1854
6716,1831
6717,1844
6718,1840
6719,1767
6720,1793
6721,1809
6722,1819
6723,1846
6724,1875
6725,1863
6726,1882
6727,1860
6728,1898
6729,1899
6730,1878
6731,1895
6732,1890
6733,1862
6734,1843
6735,1824
6736,1808
6737,1791
6738,1808
6739,1817
6740,1868
6741,1872
6742,1870
6743,1887
6744,1881
6745,1887
6746,1899
6747,1910
6748,1897
6749,1869
6750,1853
6751,1837
6752,1814
6753,1797
6754,1808
6755,1821
6756,1803
6757,1869
6758,1869
6759,1875
6760,1860
6761,1899
6762,1905
6763,1883
6764,1928
6765,1885
6766,1857
6767,1849
6768,1840
6769,1808
6770,1807
6771,1790
6772,1836
6773,1829
6774,1867
6775,1858
6776,1856
6777,1879
6778,1900
6779,1904
6780,1915
6781,1931
6782,1872
6783,1840
6784,1823
6785,1826
6786,1823
6787,1808
6788,1831
6789,1819
6790,1847
6791,1869
6792,1877
6793,1877
6794,1872
6795,1895
6796,1904
6797,1904
6798,1877
6799,1842
6800,1840
6801,1822
6802,1824
6803,1795
6804,1808
6805,1802
6806,1835
6807,1867
6808,1865
6809,1872
6810,1904
6811,1895
6812,1902
6813,1889
6814,1918
6815,1911
6816,1858
6817,1836
6818,1831
6819,1808
6820,1808
6821,1819
6822,1837
6823,1825
6824,1871
6825,1879
6826,1878
6827,1917
6828,1897
6829,1898
6830,1913
6831,1882
6832,1894
6833,1867
6834,1857
6835,1791
6836,1793
6837,1785
6838,1811
6839,1825
6840,1851
6841,1855
6842,1867
6843,1872
6844,1915
6845,1883
6846,1888
6847,1910
6848,1879
6849,1869
6850,1866
6851,1840
6852,1814
6853,1804
6854,1804
6855,1826
6856,1836
6857,1861
6858,1877
6859,1892
6860,1879
6861,1887
6862,1898
6863,1898
6864,1915
6865,1872
6866,1847
6867,1841
6868,1825
6869,1827
6870,1801
6871,1808
6872,1823
6873,1841
6874,1869
6875,1883
6876,1883
6877,1896
6878,1898
6879,1899
6880,1904
6881,1906
6882,1878
6883,1861
6884,1839
6885,1808
6886,1809
6887,1807
6888,1808
6889,1835
6890,1853
6891,1863
6892,1881
6893,1876
6894,1920
6895,1879
6896,1882
6897,1903
6898,1893
6899,1869
6900,1845
6901,1843
6902,1823
6903,1803
6904,1807
6905,1808
6906,1854
6907,1852
6908,1872
6909,1879
6910,1889
6911,1907
6912,1904
6913,1904
6914,1903
6915,1874
6916,1876
6917,1847
6918,1853
6919,1808
6920,1806
6921,1803
6922,1835
6923,1854
6924,1871
6925,1877
6926,1879
6927,1915
6928,1892
6929,1888
6930,1906
6931,1915
6932,1882
6933,1840
6934,1827
6935,1825
6936,1797
6937,1794
6938,1815
6939,1841
6940,1843
6941,1869
6942,1879
6943,1879
6944,1881
6945,1888
6946,1893
6947,1903
6948,1905
6949,1870
6950,1869
6951,1851
6952,1807
6953,1797
6954,1803
6955,1835
6956,1837
6957,1860
6958,1872
6959,1875
6960,1884
6961,1891
6962,1902
6963,1902
6964,1907
6965,1895
6966,1870
6967,1840
6968,1830
6969,1837
6970,1808
6971,1806
6972,1807
6973,1842
6974,1869
6975,1872
6976,1870
6977,1883
6978,1910
6979,1898
6980,1902
6981,1904
6982,1882
6983,1845
6984,1849
6985,1807
6986,1802
6987,1806
6988,1825
6989,1829
6990,1887
6991,1877
6992,1895
6993,1887
6994,1889
6995,1903
6996,1897
6997,1931
6998,1927
6999,1878
7000,1849
7001,1842
7002,1822
7003,1802
7004,1806
7005,1810
7006,1853
7007,1881
7008,1872
7009,1874
7010,1889
7011,1913
7012,1890
7013,1895
7014,1937
7015,1884
7016,1870
7017,1839
7018,1808
7019,1798
7020,1798
7021,1824
7022,1822
7023,1848
7024,1862
7025,1865
7026,1859
7027,1904
7028,1899
7029,1895
7030,1901
7031,1920
7032,1886
7033,1851
7034,1849
7035,1807
7036,1797
7037,1808
7038,1819
7039,1863
7040,1841
7041,1867
7042,1874
7043,1881
7044,1917
7045,1895
7046,1875
7047,1910
7048,1887
7049,1857
7050,1840
7051,1841
7052,1820
7053,1804
7054,1806
7055,1814
7056,1847
7057,1855
7058,1882
7059,1897
7060,1893
7061,1911
7062,1904
7063,1905
7064,1924
7065,1895
7066,1858
7067,1840
7068,1844
7069,1799
7070,1793
7071,1808
7072,1840
7073,1862
7074,1871
7075,1886
7076,1882
7077,1879
7078,1897
7079,1895
7080,1907
7081,1885
7082,1881
7083,1843
7084,1835
7085,1810
7086,1808
7087,1808
7088,1803
7089,1827
7090,1844
7091,1884
7092,1890
7093,1887
7094,1879
7095,1889
7096,1908
7097,1917
7098,1898
7099,1883
7100,1847
7101,1840
7102,1827
7103,1798
7104,1805
7105,1825
7106,1839
7107,1862
7108,1878
7109,1875
7110,1895
7111,1900
7112,1891
7113,1887
7114,1936
7115,1917
7116,1857
7117,1845
7118,1842
7119,1808
7120,1793
7121,1796
7122,1815
7123,1871
7124,1877
7125,1872
7126,1886
7127,1894
7128,1899
7129,1901
7130,1878
7131,1893
7132,1883
7133,1871
7134,1849
7135,1818
7136,1808
7137,1804
7138,1803
7139,1840
7140,1860
7141,1853
7142,1861
7143,1897
7144,1894
7145,1887
7146,1907
7147,1920
7148,1920
7149,1875
7150,1821
7151,1837
7152,1829
7153,1801
7154,1806
7155,1838
7156,1842
7157,1874
7158,1877
7159,1872
7160,1894
7161,1895
7162,1899
7163,1893
7164,1920
7165,1879
7166,1855
7167,1822
7168,1815
7169,1795
7170,1798
7171,1808
7172,1840
7173,1877
7174,1863
7175,1867
7176,1891
7177,1872
7178,1904
7179,1903
7180,1885
7181,1914
7182,1883
7183,1858
7184,1855
7185,1818
7186,1801
7187,1802
7188,1792
7189,1841
7190,1843
7191,1875
7192,1872
7193,1881
7194,1922
7195,1889
7196,1878
7197,1897
7198,1902
7199,1862
7200,1833
7201,1856
7202,1830
7203,1809
7204,1806
7205,1846
7206,1799
7207,1865
7208,1878
7209,1866
7210,1877
7211,1906
7212,1894
7213,1913
7214,1919
7215,1892
7216,1872
7217,1835
7218,1802
7219,1802
7220,1805
7221,1797
7222,1840
7223,1838
7224,1854
7225,1875
7226,1885
7227,1903
7228,1902
7229,1888
7230,1905
7231,1897
7232,1872
7233,1853
7234,1835
7235,1814
7236,1803
7237,1799
7238,1808
7239,1849
7240,1859
7241,1881
7242,1895
7243,1882
7244,1891
7245,1887
7246,1889
7247,1904
7248,1894
7249,1872
7250,1859
7251,1815
7252,1815
7253,1803
7254,1805
7255,1805
7256,1803
7257,1857
7258,1873
7259,1881
7260,1856
7261,1895
7262,1898
7263,1903
7264,1914
7265,1910
7266,1859
7267,1850
7268,1821
7269,1798
7270,1808
7271,1798
7272,1841
7273,1847
7274,1869
7275,1892
7276,1892
7277,1891
7278,1900
7279,1894
7280,1919
7281,1916
7282,1879
7283,1864
7284,1834
7285,1808
7286,1796
7287,1795
7288,1791
7289,1821
7290,1872
7291,1871
7292,1890
7293,1886
7294,1919
7295,1887
7296,1885
7297,1920
7298,1891
7299,1874
7300,1848
7301,1834
7302,1839
7303,1803
7304,1804
7305,1856
7306,1835
7307,1863
7308,1871
7309,1887
7310,1879
7311,1895
7312,1895
7313,1898
7314,1908
7315,1865
7316,1861
7317,1841
7318,1842
7319,1807
7320,1806
7321,1799
7322,1831
7323,1851
7324,1871
7325,1890
7326,1895
7327,1879
7328,1901
7329,1897
7330,1887
7331,1933
7332,1871
7333,1840
7334,1835
7335,1840
7336,1810
7337,1799
7338,1803
7339,1829
7340,1858
7341,1868
7342,1894
7343,1895
7344,1921
7345,1884
7346,1908
7347,1920
7348,1907
7349,1865
7350,1835
7351,1845
7352,1803
7353,1810
7354,1804
7355,1857
7356,1856
7357,1862
7358,1872
7359,1863
7360,1874
7361,1899
7362,1899
7363,1895
7364,1918
7365,1894
7366,1871
7367,1849
7368,1840
7369,1823
7370,1802
7371,1820
7372,1823
7373,1840
7374,1873
7375,1872
7376,1890
7377,1898
7378,1902
7379,1902
7380,1936
7381,1921
7382,1901
7383,1872
7384,1856
7385,1826
7386,1803
7387,1785
7388,1791
7389,1825
7390,1869
7391,1870
7392,1871
7393,1888
7394,1898
7395,1891
7396,1897
7397,1921
7398,1887
7399,1886
7400,1843
7401,1845
7402,1817
7403,1811
7404,1804
7405,1840
7406,1840
7407,1861
7408,1870
7409,1892
7410,1870
7411,1903
7412,1898
7413,1884
7414,1910
7415,1901
7416,1860
7417,1845
7418,1836
7419,1822
7420,1809
7421,1795
7422,1842
7423,1850
7424,1873
7425,1875
7426,1887
7427,1899
7428,1891
7429,1891
7430,1873
7431,1923
7432,1871
7433,1853
7434,1840
7435,1798
7436,1799
7437,1803
7438,1808
7439,1814
7440,1856
7441,1853
7442,1874
7443,1888
7444,1890
7445,1902
7446,1899
7447,1914
7448,1917
7449,1869
7450,1845
7451,1831
7452,1824
7453,1826
7454,1813
7455,1823
7456,1846
7457,1872
7458,1853
7459,1883
7460,1881
7461,1890
7462,1881
7463,1894
7464,1908
7465,1892
7466,1855
7467,1833
7468,1841
7469,1810
7470,1797
7471,1793
7472,1845
7473,1841
7474,1856
7475,1867
7476,1883
7477,1917
7478,1898
7479,1900
7480,1899
7481,1904
7482,1898
7483,1850
7484,1835
7485,1810
7486,1808
7487,1808
7488,1814
7489,1842
7490,1870
7491,1858
7492,1891
7493,1893
7494,1910
7495,1897
7496,1885
7497,1915
7498,1893
7499,1867
7500,1858
7501,1839
7502,1808
7503,1796
7504,1807
7505,1831
7506,1846
7507,1873
7508,1884
7509,1886
7510,1898
7511,1904
7512,1898
7513,1895
7514,1919
7515,1890
7516,1863
7517,1841
7518,1825
7519,1813
7520,1788
7521,1810
7522,1831
7523,1861
7524,1856
7525,1891
7526,1885
7527,1904
7528,1887
7529,1897
7530,1920
7531,1901
7532,1877
7533,1869
7534,1855
7535,1835
7536,1811
7537,1806
7538,1804
7539,1839
7540,1866
7541,1866
7542,1899
7543,1885
7544,1914
7545,1895
7546,1910
7547,1914
7548,1920
7549,1882
7550,1853
7551,1841
7552,1839
7553,1810
7554,1808
7555,1859
7556,1856
7557,1863
7558,1888
7559,1865
7560,1872
7561,1897
7562,1891
7563,1895
7564,1922
7565,1894
7566,1861
7567,1851
7568,1825
7569,1808
7570,1807
7571,1808
7572,1826
7573,1854
7574,1867
7575,1871
7576,1904
7577,1879
7578,1904
7579,1907
7580,1954
7581,1908
7582,1878
7583,1856
7584,1838
7585,1804
7586,1793
7587,1808
7588,1830
7589,1844
7590,1882
7591,1888
7592,1875
7593,1875
7594,1873
7595,1872
7596,1879
7597,1902
7598,1886
7599,1859
7600,1849
7601,1835
7602,1809
7603,1797
7604,1806
7605,1786
7606,1854
7607,1870
7608,1866
7609,1888
7610,1903
7611,1894
7612,1892
7613,1879
7614,1918
7615,1889
7616,1871
7617,1840
7618,1828
7619,1808
7620,1811
7621,1809
7622,1830
7623,1843
7624,1859
7625,1877
7626,1891
7627,1904
7628,1893
7629,1898
7630,1925
7631,1911
7632,1888
7633,1847
7634,1836
7635,1829
7636,1808
7637,1800
7638,1802
7639,1823
7640,1862
7641,1856
7642,1885
7643,1899
7644,1905
7645,1885
7646,1887
7647,1907
7648,1911
7649,1858
7650,1850
7651,1835
7652,1803
7653,1806
7654,1808
7655,1840
7656,1855
7657,1869
7658,1888
7659,1875
7660,1882
7661,1899
7662,1899
7663,1909
7664,1897
7665,1870
7666,1846
7667,507
7668,1851
7669,1938
7670,2118
7671,2161
7672,2175
7673,2164
7674,2106
7675,2010
7676,1978
7677,2026
7678,1952
7679,1791
7680,1690
7681,1651
7682,1638
7683,1646
7684,1648
7685,1665
7686,1709
7687,1767
7688,1831
7689,1856
7690,1887
7691,1872
7692,1913
7693,1935
7694,1932
7695,1949
7696,1945
7697,1941
7698,16
7699,1839
7700,1997
7701,2160
7702,2170
7703,2156
7704,2089
7705,1978
7706,1831
7707,1855
7708,1855
7709,1794
7710,1722
7711,1721
7712,1728
7713,1728
7714,1759
7715,1774
7716,1814
7717,1870
7718,1887
7719,1893
7720,1879
7721,1885
7722,1872
7723,1868
7724,1861
7725,1891
7726,1886
7727,1923
7728,1903
7729,35
7730,1835
7731,2034
7732,2139
7733,2179
7734,2183
7735,2107
7736,1909
7737,1786
7738,1871
7739,1838
7740,1814
7741,1745
7742,1751
7743,1750
7744,1773
7745,1805
7746,1823
7747,1906
7748,1910
7749,1904
7750,1891
7751,1871
7752,1872
7753,1815
7754,1833
7755,1845
7756,1855
7757,1872
7758,1874
7759,1874
7760,529
7761,1783
7762,1987
7763,2160
7764,2259
7765,2224
7766,2111
7767,1850
7768,1810
7769,1869
7770,1854
7771,1775
7772,1713
7773,1713
7774,1712
7775,1723
7776,1798
7777,1836
7778,1903
7779,1938
7780,1963
7781,1957
7782,1921
7783,1888
7784,1877
7785,1852
7786,1839
7787,1829
7788,1838
7789,1845
7790,1851
7791,1326
7792,1724
7793,1968
7794,2128
7795,2237
7796,2224
7797,2106
7798,1871
7799,1899
7800,1943
7801,1905
7802,1771
7803,1697
7804,1680
7805,1696
7806,1734
7807,1791
7808,1835
7809,1913
7810,1925
7811,1936
7812,1922
7813,1936
7814,1935
7815,1901
7816,1876
7817,1853
7818,1842
7819,1822
7820,1801
7821,1788
7822,1813
7823,1535
7824,1923
7825,2038
7826,2156
7827,2142
7828,1974
7829,1777
7830,1971
7831,2064
7832,2001
7833,1870
7834,1799
7835,1749
7836,1733
7837,1753
7838,1789
7839,1840
7840,1914
7841,1904
7842,1918
7843,1914
7844,1921
7845,1915
7846,1906
7847,1918
7848,1919
7849,1863
7850,1841
7851,1819
7852,1802
7853,1789
7854,1443
7855,1861
7856,1980
7857,2102
7858,2119
7859,1950
7860,1800
7861,2006
7862,2110
7863,2023
7864,1904
7865,1817
7866,1769
7867,1766
7868,1785
7869,1795
7870,1834
7871,1865
7872,1866
7873,1904
7874,1894
7875,1904
7876,1902
7877,1917
7878,1910
7879,1917
7880,1925
7881,1904
7882,1860
7883,1853
7884,1841
7885,1296
7886,1845
7887,1939
7888,2095
7889,2084
7890,1941
7891,1823
7892,2007
7893,2098
7894,1977
7895,1867
7896,1817
7897,1820
7898,1806
7899,1806
7900,1840
7901,1836
7902,1833
7903,1826
7904,1840
7905,1847
7906,1877
7907,1887
7908,1873
7909,1904
7910,1909
7911,1904
7912,1894
7913,1872
7914,1926
7915,1868
7916,1170
7917,1872
7918,1927
7919,2038
7920,2023
7921,1875
7922,1751
7923,2023
7924,2086
7925,1964
7926,1873
7927,1876
7928,1817
7929,1821
7930,1855
7931,1892
7932,1904
7933,1904
7934,1879
7935,1872
7936,1838
7937,1839
7938,1829
7939,1826
7940,1865
7941,1891
7942,1871
7943,1859
7944,1872
7945,1855
7946,1861
7947,1075
7948,1916
7949,1965
7950,2058
7951,2059
7952,1853
7953,1744
7954,1968
7955,2060
7956,1936
7957,1858
7958,1853
7959,1838
7960,1841
7961,1869
7962,1884
7963,1917
7964,1967
7965,1906
7966,1886
7967,1866
7968,1856
7969,1835
7970,1829
7971,1819
7972,1839
7973,1833
7974,1856
7975,1840
7976,1851
7977,1857
7978,675
7979,1892
7980,2005
7981,2111
7982,2099
7983,1911
7984,1790
7985,2000
7986,2058
7987,1911
7988,1808
7989,1787
7990,1819
7991,1850
7992,1843
7993,1872
7994,1926
7995,1924
7996,1912
7997,1933
7998,1927
7999,1882
8000,1872
8001,1849
8002,1836
8003,1805
8004,1808
8005,1808
8006,1814
8007,1834
8008,1841
8009,197
8010,1852
8011,1987
8012,2098
8013,2144
8014,1968
8015,1815
8016,2045
8017,2092
8018,1915
8019,1808
8020,1776
8021,1766
8022,1773
8023,1818
8024,1842
8025,1903
8026,1932
8027,1914
8028,1919
8029,1918
8030,1934
8031,1926
8032,1904
8033,1861
8034,1854
8035,1797
8036,1776
8037,1773
8038,1803
8039,1797
8040,0
8041,1773
8042,1949
8043,2075
8044,2150
8045,1980
8046,1825
8047,2055
8048,2175
8049,1979
8050,1843
8051,1803
8052,1776
8053,1756
8054,1769
8055,1819
8056,1872
8057,1904
8058,1918
8059,1904
8060,1942
8061,1927
8062,1917
8063,1900
8064,1938
8065,1894
8066,1840
8067,1830
8068,1821
8069,1798
8070,1795
8071,502
8072,1682
8073,1927
8074,2063
8075,2159
8076,1989
8077,1745
8078,2000
8079,2157
8080,2065
8081,1928
8082,1854
8083,1823
8084,1787
8085,1762
8086,1794
8087,1822
8088,1859
8089,1856
8090,1891
8091,1907
8092,1925
8093,1910
8094,1917
8095,1898
8096,1901
8097,1887
8098,1880
8099,1833
8100,1817
8101,1825
8102,762
8103,1649
8104,1883
8105,2007
8106,2089
8107,1971
8108,1725
8109,1968
8110,2165
8111,2058
8112,1904
8113,1893
8114,1887
8115,1851
8116,1830
8117,1859
8118,1870
8119,1851
8120,1840
8121,1853
8122,1855
8123,1887
8124,1882
8125,1885
8126,1902
8127,1903
8128,1887
8129,1877
8130,1886
8131,1888
8132,1856
8133,1703
8134,1586
8135,1866
8136,1966
8137,2039
8138,1955
8139,1679
8140,1897
8141,2170
8142,2043
8143,1902
8144,1878
8145,1863
8146,1859
8147,1895
8148,1882
8149,1897
8150,1904
8151,1888
8152,1857
8153,1841
8154,1840
8155,1840
8156,1872
8157,1871
8158,1871
8159,1865
8160,1890
8161,1867
8162,1867
8163,1869
8164,1879
8165,1461
8166,1936
8167,1978
8168,2047
8169,1970
8170,1680
8171,1793
8172,2086
8173,2099
8174,1921
8175,1878
8176,1869
8177,1869
8178,1893
8179,1902
8180,1935
8181,1949
8182,1909
8183,1873
8184,1863
8185,1840
8186,1822
8187,1815
8188,1827
8189,1850
8190,1857
8191,1838
8192,1843
8193,1859
8194,1870
8195,1867
8196,1301
8197,1967
8198,2014
8199,2112
8200,2057
8201,1729
8202,1734
8203,2020
8204,2054
8205,1904
8206,1846
8207,1843
8208,1857
8209,1863
8210,1915
8211,1922
8212,1936
8213,1934
8214,1950
8215,1906
8216,1881
8217,1868
8218,1841
8219,1833
8220,1798
8221,1811
8222,1827
8223,1820
8224,1825
8225,1853
8226,1862
8227,1263
8228,1953
8229,2016
8230,2144
8231,2128
8232,1776
8233,1805
8234,2046
8235,2034
8236,1872
8237,1798
8238,1779
8239,1751
8240,1839
8241,1867
8242,1899
8243,1921
8244,1946
8245,1937
8246,1915
8247,1936
8248,1926
8249,1878
8250,1855
8251,1847
8252,1798
8253,1789
8254,1779
8255,1798
8256,1783
8257,1835
8258,858
8259,1899
8260,2029
8261,2119
8262,2103
8263,1805
8264,1808
8265,2085
8266,2119
8267,1930
8268,1828
8269,1809
8270,1781
8271,1797
8272,1838
8273,1894
8274,1923
8275,1919
8276,1907
8277,1915
8278,1921
8279,1910
8280,1934
8281,1932
8282,1887
8283,1846
8284,1823
8285,1808
8286,1776
8287,1776
8288,1774
8289,1821
8290,1867
8291,1866
8292,1890
8293,1886
8294,1890
8295,1903
8296,1907
8297,1920
8298,1910
8299,1865
8300,1855
8301,1850
8302,1814
8303,1792
8304,1810
8305,1823
8306,1838
8307,1862
8308,1872
8309,1887
8310,1887
8311,1895
8312,1892
8313,1895
8314,1907
8315,1872
8316,1855
8317,1834
8318,1814
8319,1808
8320,1808
8321,1815
8322,1837
8323,1859
8324,1863
8325,1872
8326,1869
8327,1896
8328,1897
8329,1901
8330,1919
8331,1897
8332,1861
8333,1851
8334,1837
8335,1804
8336,1791
8337,1800
8338,1820
8339,1819
8340,1859
8341,1857
8342,1874
8343,1875
8344,1886
8345,1907
8346,1879
8347,1919
8348,1875
8349,1858
8350,1835
8351,1826
8352,1808
8353,1810
8354,1818
8355,1828
8356,1857
8357,1867
8358,1865
8359,1872
8360,1851
8361,1903
8362,1898
8363,1887
8364,1935
8365,1875
8366,1838
8367,1838
8368,1839
8369,1811
8370,1809
8371,1822
8372,1835
8373,1852
8374,1869
8375,1888
8376,1892
8377,1907
8378,1887
8379,1904
8380,1919
8381,1909
8382,1872
8383,1846
8384,1831
8385,1819
8386,1803
8387,1806
8388,1802
8389,1819
8390,1847
8391,1879
8392,1899
8393,1893
8394,1906
8395,1881
8396,1874
8397,1915
8398,1887
8399,1885
8400,1870
8401,1839
8402,1809
8403,1805
8404,1811
8405,1820
8406,1840
8407,1872
8408,1872
8409,1890
8410,1873
8411,1895
8412,1879
8413,1869
8414,1872
8415,1878
8416,1846
8417,1835
8418,1826
8419,1792
8420,1795
8421,1810
8422,1834
8423,1846
8424,1857
8425,1872
8426,1890
8427,1882
8428,1893
8429,1872
8430,1906
8431,1906
8432,1879
8433,1859
8434,1856
8435,1819
8436,1808
8437,1808
8438,1804
8439,1854
8440,1856
8441,1853
8442,1872
8443,1871
8444,1903
8445,1897
8446,1902
8447,1919
8448,1879
8449,1873
8450,1849
8451,1825
8452,1799
8453,1820
8454,1818
8455,1819
8456,1843
8457,1866
8458,1856
8459,1895
8460,1878
8461,1899
8462,1892
8463,1904
8464,1889
8465,1877
8466,1841
8467,1845
8468,1831
8469,1808
8470,1825
8471,1802
8472,1840
8473,1851
8474,1853
8475,1872
8476,1878
8477,1871
8478,1899
8479,1886
8480,1921
8481,1920
8482,1872
8483,1840
8484,1798
8485,1808
8486,1794
8487,1802
8488,1819
8489,1840
8490,1859
8491,1862
8492,1878
8493,1879
8494,1901
8495,1894
8496,1879
8497,1917
8498,1879
8499,1858
8500,1839
8501,1801
8502,1809
8503,1808
8504,1808
8505,1822
8506,1857
8507,1859
8508,1869
8509,1885
8510,1905
8511,1897
8512,1895
8513,1903
8514,1924
8515,1876
8516,1863
8517,1835
8518,1810
8519,1815
8520,1806
8521,1840
8522,1855
8523,1872
8524,1870
8525,1885
8526,1872
8527,1883
8528,1904
8529,1895
8530,1896
8531,1907
8532,1855
8533,1811
8534,1793
8535,1823
8536,1797
8537,1799
8538,1806
8539,1809
8540,1839
8541,1875
8542,1878
8543,1877
8544,1906
8545,1906
8546,1875
8547,1919
8548,1904
8549,1855
8550,1851
8551,1838
8552,1843
8553,1808
8554,1815
8555,1825
8556,1840
8557,1878
8558,1872
8559,1872
8560,1874
8561,1897
8562,1900
8563,1904
8564,1870
8565,1883
8566,1847
8567,1845
8568,1815
8569,1811
8570,1790
8571,1807
8572,1824
8573,1867
8574,1862
8575,1881
8576,1872
8577,1872
8578,1886
8579,1889
8580,1903
8581,1889
8582,1873
8583,1857
8584,1854
8585,1830
8586,1797
8587,1808
8588,1826
8589,1830
8590,1867
8591,1871
8592,1881
8593,1879
8594,1904
8595,1894
8596,1904
8597,1920
8598,1897
8599,1851
8600,1850
8601,1828
8602,1808
8603,1794
8604,1793
8605,1821
8606,1843
8607,1862
8608,1877
8609,1879
8610,1873
8611,1897
8612,1895
8613,1905
8614,1933
8615,1874
8616,1852
8617,1838
8618,1830
8619,1822
8620,1824
8621,1819
8622,1839
8623,1858
8624,1872
8625,1872
8626,1897
8627,1903
8628,1891
8629,1903
8630,1919
8631,1905
8632,1865
8633,1849
8634,1840
8635,1808
8636,1791
8637,1801
8638,1827
8639,1844
8640,1861
8641,1870
8642,1879
8643,1879
8644,1887
8645,1898
8646,1904
8647,1904
8648,1904
8649,1862
8650,1847
8651,1834
8652,1840
8653,1807
8654,1813
8655,1838
8656,1843
8657,1868
8658,1876
8659,1884
8660,1871
8661,1903
8662,1899
8663,1893
8664,1911
8665,1874
8666,1846
8667,1840
8668,1840
8669,1815
8670,1798
8671,1803
8672,1835
8673,1859
8674,1875
8675,1873
8676,1877
8677,1880
8678,1894
8679,1905
8680,1905
8681,1905
8682,1877
8683,1847
8684,1843
8685,1820
8686,1799
8687,1806
8688,1823
8689,1847
8690,1868
8691,1874
8692,1889
8693,1895
8694,1898
8695,1897
8696,1874
8697,1904
8698,1903
8699,1858
8700,1840
8701,1840
8702,1798
8703,1799
8704,1824
8705,1825
8706,1855
8707,1857
8708,1883
8709,1903
8710,1871
8711,1901
8712,1899
8713,1881
8714,1916
8715,1891
8716,1867
8717,1834
8718,1805
8719,1807
8720,1792
8721,1799
8722,1831
8723,1853
8724,1873
8725,1856
8726,1879
8727,1919
8728,1890
8729,1895
8730,1906
8731,1906
8732,1868
8733,1854
8734,1833
8735,1839
8736,1801
8737,1808
8738,1802
8739,1827
8740,1870
8741,1877
8742,1883
8743,1895
8744,1887
8745,1883
8746,1904
8747,1909
8748,1890
8749,1856
8750,1841
8751,1869
8752,1824
8753,1808
8754,1802
8755,1827
8756,1840
8757,1854
8758,1885
8759,1887
8760,1914
8761,1895
8762,1898
8763,1879
8764,1903
8765,1877
8766,1852
8767,1855
8768,1823
8769,1812
8770,1808
8771,1826
8772,1843
8773,1873
8774,1872
8775,1889
8776,1878
8777,1893
8778,1894
8779,1888
8780,1904
8781,1927
8782,1870
8783,1837
8784,1835
8785,1818
8786,1795
8787,1803
8788,1795
8789,1807
8790,1860
8791,1877
8792,1888
8793,1883
8794,1898
8795,1899
8796,1882
8797,1914
8798,1904
8799,1874
8800,1845
8801,1828
8802,1808
8803,1797
8804,1810
8805,1826
8806,1837
8807,1873
8808,1889
8809,1875
8810,1910
8811,1895
8812,1893
8813,1881
8814,1901
8815,1872
8816,1852
8817,1846
8818,1802
8819,1811
8820,1814
8821,1831
8822,1845
8823,1856
8824,1872
8825,1872
8826,1881
8827,1904
8828,1895
8829,1893
8830,1909
8831,1894
8832,1872
8833,1830
8834,1826
8835,1845
8836,1808
8837,1808
8838,1808
8839,1825
8840,1872
8841,1875
8842,1884
8843,1877
8844,1904
8845,1887
8846,1899
8847,1904
8848,1891
8849,1869
8850,1824
8851,1831
8852,1807
8853,1803
8854,1797
8855,1840
8856,1859
8857,1867
8858,1906
8859,1885
8860,1885
8861,1902
8862,1893
8863,1886
8864,1914
8865,1887
8866,1867
8867,1862
8868,1823
8869,1802
8870,1798
8871,1810
8872,1808
8873,1868
8874,1864
8875,1863
8876,1873
8877,1919
8878,1895
8879,1886
8880,1899
8881,1907
8882,1873
8883,1857
8884,1840
8885,1830
8886,1807
8887,1809
8888,1804
8889,1847
8890,1872
8891,1862
8892,1870
8893,1886
8894,1897
8895,1885
8896,1879
8897,1916
8898,1890
8899,1862
8900,1826
8901,1840
8902,1825
8903,1812
8904,1827
8905,1834
8906,1847
8907,1863
8908,1870
8909,1871
8910,1898
8911,1902
8912,1891
8913,1888
8914,1891
8915,1878
8916,1861
8917,1836
8918,1825
8919,1807
8920,1806
8921,1825
8922,1843
8923,1856
8924,1867
8925,1872
8926,1888
8927,1920
8928,1894
8929,1878
8930,1919
8931,1922
8932,1872
8933,1857
8934,1849
8935,1801
8936,1799
8937,1804
8938,1821
8939,1850
8940,1871
8941,1872
8942,1875
8943,1886
8944,1904
8945,1885
8946,1904
8947,1918
8948,1872
8949,1861
8950,1856
8951,1843
8952,1835
8953,1808
8954,1809
8955,1833
8956,1821
8957,1867
8958,1870
8959,1877
8960,1904
8961,1894
8962,1895
8963,1906
8964,1890
8965,1862
8966,1847
8967,1834
8968,1819
8969,1822
8970,1813
8971,1819
8972,1836
8973,1869
8974,1872
8975,1879
8976,1899
8977,1904
8978,1894
8979,1889
8980,1911
8981,1883
8982,1875
8983,1859
8984,1851
8985,1804
8986,1810
8987,1808
8988,1827
8989,1858
8990,1872
8991,1870
8992,1878
8993,1889
8994,1899
8995,1879
8996,1890
8997,1898
8998,1886
8999,1882
9000,1835
9001,1833
9002,1814
9003,1792
9004,1810
9005,1824
9006,1856
9007,1864
9008,1877
9009,1886
9010,1899
9011,1904
9012,1894
9013,1913
9014,1891
9015,1876
9016,1871
9017,1834
9018,1831
9019,1808
9020,1794
9021,1824
9022,1830
9023,1863
9024,1872
9025,1883
9026,1902
9027,1895
9028,1892
9029,1888
9030,1907
9031,1903
9032,1877
9033,1834
9034,1847
9035,1808
9036,1806
9037,1804
9038,1822
9039,1809
9040,1870
9041,1871
9042,1873
9043,1905
9044,1895
9045,1885
9046,1906
9047,1915
9048,1877
9049,1856
9050,1854
9051,1833
9052,1834
9053,1797
9054,1795
9055,1834
9056,1857
9057,1865
9058,1873
9059,1882
9060,1890
9061,1895
9062,1893
9063,1904
9064,1879
9065,1878
9066,1868
9067,1846
9068,1822
9069,1808
9070,1804
9071,1824
9072,1833
9073,1868
9074,1870
9075,1887
9076,1904
9077,1892
9078,1890
9079,1879
9080,1914
9081,1898
9082,1875
9083,1851
9084,1840
9085,1840
9086,1796
9087,1799
9088,1797
9089,1850
9090,1869
9091,1869
9092,1878
9093,1888
9094,1894
9095,1893
9096,1897
9097,1919
9098,1887
9099,1860
9100,1857
9101,1837
9102,1797
9103,1810
9104,1819
9105,1827
9106,1835
9107,1869
9108,1896
9109,1893
9110,1894
9111,1904
9112,1890
9113,1884
9114,1899
9115,1872
9116,1846
9117,1835
9118,1826
9119,1801
9120,1808
9121,1834
9122,1838
9123,1826
9124,1874
9125,1885
9126,1872
9127,1909
9128,1890
9129,1875
9130,1910
9131,1904
9132,1869
9133,1854
9134,1826
9135,1826
9136,1805
9137,1805
9138,1805
9139,1825
9140,1870
9141,1882
9142,1873
9143,1874
9144,1893
9145,1894
9146,1876
9147,1904
9148,1879
9149,1851
9150,1840
9151,1819
9152,1816
9153,1799
9154,1825
9155,1815
9156,1854
9157,1865
9158,1863
9159,1873
9160,1906
9161,1902
9162,1894
9163,1923
9164,1911
9165,1879
9166,1856
9167,1840
9168,1811
9169,1814
9170,1802
9171,1794
9172,1841
9173,1872
9174,1872
9175,1887
9176,1877
9177,1887
9178,1893
9179,1885
9180,1906
9181,1902
9182,1876
9183,1856
9184,1826
9185,1815
9186,1805
9187,1806
9188,1851
9189,1823
9190,1865
9191,1888
9192,1888
9193,1879
9194,1904
9195,1887
9196,1887
9197,1921
9198,1890
9199,1865
9200,1857
9201,1821
9202,1812
9203,1802
9204,1803
9205,1834
9206,1855
9207,1857
9208,1870
9209,1877
9210,1885
9211,1895
9212,1893
9213,1879
9214,1899
9215,1888
9216,1861
9217,1857
9218,1813
9219,1808
9220,1808
9221,1828
9222,1823
9223,1883
9224,1886
9225,1891
9226,1887
9227,1881
9228,1905
9229,1897
9230,1917
9231,1931
9232,1867
9233,1839
9234,1809
9235,1825
9236,1802
9237,1798
9238,1823
9239,1822
9240,1863
9241,1869
9242,1889
9243,1894
9244,1895
9245,1898
9246,1886
9247,1922
9248,1873
9249,1862
9250,1843
9251,1857
9252,1793
9253,1799
9254,1799
9255,1820
9256,1854
9257,1870
9258,1856
9259,1883
9260,1893
9261,1901
9262,1890
9263,1925
9264,1887
9265,1868
9266,1866
9267,1840
9268,1840
9269,1805
9270,1810
9271,1824
9272,1839
9273,1839
9274,1875
9275,1894
9276,1890
9277,1889
9278,1904
9279,1904
9280,1911
9281,1889
9282,1849
9283,1839
9284,1023
9285,1871
9286,1885
9287,1920
9288,1937
9289,2001
9290,2061
9291,2027
9292,1984
9293,2039
9294,2064
9295,2022
9296,1903
9297,1837
9298,1791
9299,1791
9300,1782
9301,1781
9302,1776
9303,1783
9304,1801
9305,1829
9306,1892
9307,1874
9308,1874
9309,1875
9310,1895
9311,1906
9312,1895
9313,1885
9314,1877
9315,827
9316,1861
9317,1934
9318,2000
9319,2036
9320,2031
9321,2015
9322,1973
9323,1910
9324,1942
9325,1981
9326,1885
9327,1778
9328,1761
9329,1790
9330,1799
9331,1850
9332,1820
9333,1834
9334,1845
9335,1842
9336,1835
9337,1846
9338,1872
9339,1871
9340,1891
9341,1911
9342,1908
9343,1911
9344,1903
9345,1895
9346,83
9347,1870
9348,2003
9349,2102
9350,2140
9351,2112
9352,2071
9353,1937
9354,1849
9355,1874
9356,1886
9357,1830
9358,1777
9359,1749
9360,1749
9361,1776
9362,1806
9363,1814
9364,1852
9365,1870
9366,1894
9367,1895
9368,1849
9369,1841
9370,1842
9371,1840
9372,1858
9373,1874
9374,1902
9375,1911
9376,1878
9377,0
9378,1808
9379,1968
9380,2064
9381,2106
9382,2063
9383,2023
9384,1894
9385,1804
9386,1919
9387,1957
9388,1903
9389,1808
9390,1801
9391,1797
9392,1822
9393,1847
9394,1897
9395,1913
9396,1923
9397,1955
9398,1925
9399,1878
9400,1872
9401,1846
9402,1827
9403,1813
9404,1813
9405,1856
9406,1840
9407,1843
9408,335
9409,1735
9410,1998
9411,2102
9412,2167
9413,2209
9414,2127
9415,1873
9416,1813
9417,1942
9418,1889
9419,1809
9420,1735
9421,1742
9422,1737
9423,1759
9424,1805
9425,1847
9426,1885
9427,1918
9428,1968
9429,1979
9430,1997
9431,1978
9432,1918
9433,1857
9434,1795
9435,1775
9436,1799
9437,1785
9438,1808
9439,640
9440,1649
9441,1954
9442,2011
9443,2079
9444,2085
9445,2003
9446,1779
9447,1919
9448,2039
9449,2045
9450,1908
9451,1799
9452,1792
9453,1765
9454,1776
9455,1819
9456,1855
9457,1901
9458,1919
9459,1923
9460,1927
9461,1940
9462,1920
9463,1916
9464,1916
9465,1867
9466,1844
9467,1834
9468,1802
9469,1795
9470,1781
9471,1451
9472,1886
9473,2017
9474,2066
9475,2080
9476,1970
9477,1761
9478,1920
9479,2077
9480,2114
9481,1966
9482,1861
9483,1828
9484,1789
9485,1790
9486,1814
9487,1820
9488,1837
9489,1886
9490,1898
9491,1887
9492,1898
9493,1921
9494,1923
9495,1904
9496,1920
9497,1915
9498,1885
9499,1829
9500,1814
9501,1811
9502,1455
9503,1855
9504,1936
9505,1986
9506,2037
9507,1914
9508,1728
9509,1931
9510,2122
9511,2106
9512,1957
9513,1913
9514,1879
9515,1863
9516,1843
9517,1856
9518,1839
9519,1847
9520,1840
9521,1827
9522,1873
9523,1893
9524,1891
9525,1891
9526,1902
9527,1903
9528,1903
9529,1886
9530,1883
9531,1840
9532,1843
9533,1296
9534,1887
9535,1958
9536,2013
9537,2034
9538,1884
9539,1691
9540,1959
9541,2158
9542,2032
9543,1895
9544,1868
9545,1847
9546,1835
9547,1843
9548,1857
9549,1861
9550,1866
9551,1872
9552,1822
9553,1840
9554,1841
9555,1847
9556,1903
9557,1888
9558,1882
9559,1882
9560,1856
9561,1872
9562,1869
9563,1884
9564,1150
9565,1899
9566,1968
9567,2086
9568,2093
9569,1877
9570,1681
9571,1917
9572,2077
9573,1984
9574,1875
9575,1859
9576,1842
9577,1843
9578,1851
9579,1874
9580,1933
9581,1940
9582,1926
9583,1885
9584,1867
9585,1855
9586,1814
9587,1814
9588,1837
9589,1833
9590,1867
9591,1865
9592,1859
9593,1854
9594,1870
9595,995
9596,1887
9597,2064
9598,2141
9599,2154
9600,1907
9601,1744
9602,1923
9603,2015
9604,1915
9605,1835
9606,1799
9607,1826
9608,1851
9609,1854
9610,1872
9611,1888
9612,1935
9613,1966
9614,1945
9615,1904
9616,1881
9617,1875
9618,1829
9619,1808
9620,1814
9621,1826
9622,1822
9623,1856
9624,1843
9625,1869
9626,750
9627,1900
9628,2022
9629,2163
9630,2194
9631,1958
9632,1801
9633,1969
9634,2039
9635,1891
9636,1778
9637,1748
9638,1732
9639,1786
9640,1825
9641,1851
9642,1911
9643,1943
9644,1932
9645,1931
9646,1939
9647,1941
9648,1904
9649,1868
9650,1850
9651,1834
9652,1796
9653,1786
9654,1814
9655,1827
9656,1853
9657,249
9658,1826
9659,2015
9660,2190
9661,2224
9662,1974
9663,1857
9664,2014
9665,2091
9666,1941
9667,1841
9668,1805
9669,1738
9670,1739
9671,1776
9672,1809
9673,1877
9674,1923
9675,1909
9676,1918
9677,1940
9678,1924
9679,1936
9680,1934
9681,1920
9682,1872
9683,1859
9684,1838
9685,1817
9686,1791
9687,1787
9688,0
9689,1756
9690,1978
9691,2128
9692,2210
9693,1979
9694,1808
9695,2001
9696,2142
9697,2031
9698,1886
9699,1819
9700,1778
9701,1743
9702,1727
9703,1783
9704,1822
9705,1871
9706,1873
9707,1890
9708,1911
9709,1914
9710,1929
9711,1918
9712,1923
9713,1891
9714,1913
9715,1863
9716,1855
9717,1827
9718,1797
9719,38
9720,1664
9721,1926
9722,2097
9723,2210
9724,1994
9725,1770
9726,1987
9727,2110
9728,1989
9729,1856
9730,1863
9731,1846
9732,1782
9733,1763
9734,1823
9735,1831
9736,1849
9737,1858
9738,1851
9739,1878
9740,1895
9741,1904
9742,1910
9743,1920
9744,1919
9745,1889
9746,1893
9747,1903
9748,1866
9749,1835
9750,656
9751,1648
9752,1901
9753,2032
9754,2142
9755,1951
9756,1741
9757,1961
9758,2117
9759,2031
9760,1878
9761,1859
9762,1839
9763,1819
9764,1847
9765,1834
9766,1840
9767,1875
9768,1869
9769,1842
9770,1840
9771,1845
9772,1872
9773,1886
9774,1887
9775,1886
9776,1872
9777,1899
9778,1879
9779,1877
9780,1904
9781,1599
9782,1650
9783,1951
9784,2064
9785,2113
9786,1946
9787,1663
9788,1890
9789,2063
9790,2002
9791,1881
9792,1859
9793,1843
9794,1838
9795,1851
9796,1895
9797,1937
9798,1943
9799,1919
9800,1875
9801,1857
9802,1826
9803,1839
9804,1835
9805,1830
9806,1852
9807,1870
9808,1868
9809,1862
9810,1888
9811,1869
9812,1872
9813,1448
9814,1970
9815,2093
9816,2191
9817,2064
9818,1714
9819,1833
9820,2019
9821,1979
9822,1846
9823,1843
9824,1822
9825,1795
9826,1822
9827,1856
9828,1910
9829,1954
9830,1975
9831,1941
9832,1889
9833,1884
9834,1881
9835,1812
9836,1801
9837,1799
9838,1840
9839,1825
9840,1856
9841,1866
9842,1875
9843,1851
9844,1338
9845,1946
9846,2069
9847,2223
9848,2067
9849,1761
9850,1890
9851,2090
9852,1999
9853,1860
9854,1804
9855,1797
9856,1822
9857,1840
9858,1854
9859,1909
9860,1949
9861,1936
9862,1926
9863,1958
9864,1939
9865,1888
9866,1872
9867,1851
9868,1830
9869,1811
9870,1797
9871,1791
9872,1818
9873,1827
9874,1839
9875,1114
9876,1930
9877,2043
9878,2223
9879,2160
9880,1840
9881,1901
9882,2081
9883,2073
9884,1895
9885,1808
9886,1753
9887,1735
9888,1741
9889,1786
9890,1856
9891,1889
9892,1915
9893,1926
9894,1934
9895,1916
9896,1915
9897,1930
9898,1906
9899,1883
9900,1857
9901,1827
9902,1814
9903,1793
9904,1797
9905,1799
9906,1824
9907,1840
9908,1855
9909,1893
9910,1904
9911,1907
9912,1904
9913,1939
9914,1933
9915,1872
9916,1847
9917,1851
9918,1810
9919,1809
9920,1806
9921,1827
9922,1857
9923,1873
9924,1870
9925,1873
9926,1872
9927,1901
9928,1875
9929,1894
9930,1911
9931,1914
9932,1873
9933,1843
9934,1831
9935,1840
9936,1806
9937,1795
9938,1799
9939,1853
9940,1857
9941,1850
9942,1856
9943,1882
9944,1906
9945,1898
9946,1893
9947,1887
9948,1897
9949,1850
9950,1849
9951,1842
9952,1830
9953,1817
9954,1817
9955,1812
9956,1840
9957,1872
9958,1859
9959,1878
9960,1873
9961,1878
9962,1891
9963,1928
9964,1921
9965,1871
9966,1842
9967,1825
9968,1827
9969,1802
9970,1808
9971,1807
9972,1832
9973,1866
9974,1861
9975,1887
9976,1881
9977,1894
9978,1904
9979,1900
9980,1914
9981,1906
9982,1872
9983,1853
9984,1839
9985,1825
9986,1787
9987,1800
9988,1829
9989,1857
9990,1872
9991,1883
9992,1890
9993,1894
9994,1898
9995,1893
9996,1912
9997,1904
9998,1904
9999,1851
10000,1833
10001,1841
10002,1799
10003,1808
10004,1809
10005,1829
10006,1865
10007,1855
10008,1877
10009,1881
10010,1911
10011,1901
10012,1901
10013,1920
10014,1904
10015,1872
10016,1840
10017,1801
10018,1836
10019,1792
10020,1795
10021,1831
10022,1842
10023,1867
10024,1865
10025,1889
10026,1894
10027,1913
10028,1904
10029,1895
10030,1932
10031,1904
10032,1871
10033,1859
10034,1843
10035,1790
10036,1806
10037,1793
10038,1799
10039,1837
10040,1859
10041,1871
10042,1869
10043,1890
10044,1902
10045,1890
10046,1894
10047,1920
10048,1882
10049,1856
10050,1840
10051,1813
10052,1818
10053,1792
10054,1815
10055,1822
10056,1870
10057,1861
10058,1872
10059,1867
10060,1909
10061,1893
10062,1903
10063,1903
10064,1918
10065,1875
10066,1851
10067,1845
10068,1818
10069,1808
10070,1799
10071,1825
10072,1821
10073,1887
10074,1871
10075,1879
10076,1869
10077,1901
10078,1890
10079,1886
10080,1927
10081,1873
10082,1869
10083,1850
10084,1848
10085,1803
10086,1792
10087,1801
10088,1847
10089,1864
10090,1867
10091,1895
10092,1890
10093,1900
10094,1899
10095,1899
10096,1915
10097,1930
10098,1893
10099,1870
10100,1846
10101,1821
10102,1815
10103,1818
10104,1831
10105,1830
10106,1858
10107,1861
10108,1862
10109,1893
10110,1904
10111,1879
10112,1901
10113,1912
10114,1903
10115,1875
10116,1869
10117,1850
10118,1821
10119,1808
10120,1803
10121,1798
10122,1835
10123,1859
10124,1882
10125,1872
10126,1905
10127,1907
10128,1881
10129,1904
10130,1907
10131,1887
10132,1867
10133,1841
10134,1819
10135,1807
10136,1798
10137,1801
10138,1822
10139,1831
10140,1863
10141,1843
10142,1898
10143,1898
10144,1892
10145,1894
10146,1893
10147,1913
10148,1888
10149,1854
10150,1835
10151,1827
10152,1801
10153,1783
10154,1822
10155,1840
10156,1847
10157,1877
10158,1863
10159,1875
10160,1913
10161,1899
10162,1895
10163,1911
10164,1898
10165,1860
10166,1843
10167,1837
10168,1818
10169,1802
10170,1804
10171,1827
10172,1868
10173,1857
10174,1857
10175,1876
10176,1865
10177,1900
10178,1903
10179,1889
10180,1921
10181,1901
10182,1872
10183,1834
10184,1831
10185,1808
10186,1813
10187,1793
10188,1823
10189,1847
10190,1871
10191,1856
10192,1901
10193,1886
10194,1897
10195,1890
10196,1874
10197,1906
10198,1885
10199,1863
10200,1850
10201,1824
10202,1813
10203,1799
10204,1803
10205,1827
10206,1858
10207,1872
10208,1891
10209,1865
10210,1911
10211,1878
10212,1899
10213,1908
10214,1926
10215,1872
10216,1840
10217,1833
10218,1783
10219,1807
10220,1799
10221,1831
10222,1857
10223,1870
10224,1877
10225,1874
10226,1895
10227,1903
10228,1894
10229,1875
10230,1908
10231,1895
10232,1863
10233,1843
10234,1810
10235,1809
10236,1797
10237,1808
10238,1841
10239,1856
10240,1873
10241,1885
10242,1874
10243,1873
10244,1903
10245,1901
10246,1918
10247,1903
10248,1883
10249,1855
10250,1856
10251,1821
10252,1808
10253,1809
10254,1813
10255,1829
10256,1853
10257,1865
10258,1879
10259,1871
10260,1867
10261,1902
10262,1893
10263,1920
10264,1914
10265,1873
10266,1861
10267,1849
10268,1825
10269,1794
10270,1805
10271,1806
10272,1869
10273,1855
10274,1862
10275,1872
10276,1866
10277,1904
10278,1893
10279,1904
10280,1904
10281,1919
10282,1853
10283,1823
10284,1823
10285,1856
10286,1798
10287,1801
10288,1821
10289,1833
10290,1872
10291,1886
10292,1863
10293,1895
10294,1905
10295,1898
10296,1890
10297,1905
10298,1879
10299,1872
10300,1840
10301,1829
10302,1799
10303,1812
10304,1807
10305,1829
10306,1859
10307,1871
10308,1872
10309,1881
10310,1881
10311,1901
10312,1904
10313,1915
10314,1927
10315,1869
10316,1840
10317,1818
10318,1826
10319,1794
10320,1797
10321,1824
10322,1831
10323,1877
10324,1872
10325,1882
10326,1899
10327,1904
10328,1883
10329,1887
10330,1898
10331,1901
10332,1863
10333,1831
10334,1810
10335,1802
10336,1790
10337,1812
10338,1829
10339,1849
10340,1872
10341,1863
10342,1871
10343,1885
10344,1904
10345,1895
10346,1913
10347,1904
10348,1872
10349,1840
10350,1833
10351,1841
10352,1819
10353,1781
10354,1810
10355,1833
10356,1858
10357,1875
10358,1888
10359,1883
10360,1884
10361,1894
10362,1890
10363,1910
10364,1917
10365,1874
10366,1852
10367,1831
10368,1826
10369,1806
10370,1805
10371,1826
10372,1828
10373,1857
10374,1874
10375,1879
10376,1886
10377,1903
10378,1883
10379,1898
10380,1932
10381,1894
10382,1863
10383,1822
10384,1829
10385,1795
10386,1817
10387,1798
10388,1825
10389,1842
10390,1863
10391,1859
10392,1863
10393,1873
10394,1904
10395,1904
10396,1890
10397,1906
10398,1887
10399,1868
10400,1840
10401,1815
10402,1803
10403,1820
10404,1795
10405,1826
10406,1855
10407,1861
10408,1853
10409,1875
10410,1894
10411,1903
10412,1907
10413,1911
10414,1935
10415,1875
10416,1855
10417,1831
10418,1811
10419,1802
10420,1808
10421,1832
10422,1812
10423,1856
10424,1903
10425,1881
10426,1890
10427,1887
10428,1893
10429,1887
10430,1907
10431,1901
10432,1870
10433,1851
10434,1811
10435,1830
10436,1808
10437,1815
10438,1815
10439,1835
10440,1873
10441,1888
10442,1876
10443,1891
10444,1894
10445,1896
10446,1891
10447,1920
10448,1889
10449,1882
10450,1810
10451,1803
10452,1807
10453,1810
10454,1795
10455,1842
10456,1858
10457,1869
10458,1872
10459,1904
10460,1904
10461,1905
10462,1888
10463,1915
10464,1905
10465,1872
10466,1845
10467,1827
10468,1803
10469,1808
10470,1808
10471,1809
10472,1830
10473,1863
10474,1877
10475,1888
10476,1890
10477,1904
10478,1879
10479,1907
10480,1920
10481,1897
10482,1862
10483,1857
10484,1841
10485,1810
10486,1805
10487,1781
10488,1831
10489,1840
10490,1873
10491,1893
10492,1879
10493,1898
10494,1895
10495,1890
10496,1907
10497,1920
10498,1877
10499,1863
10500,1841
10501,1823
10502,1816
10503,1803
10504,1819
10505,1829
10506,1853
10507,1879
10508,1903
10509,1897
10510,1898
10511,1888
10512,1897
10513,1913
10514,1895
10515,1880
10516,1855
10517,1833
10518,1807
10519,1797
10520,1808
10521,1799
10522,1850
10523,1861
10524,1881
10525,1891
10526,1879
10527,1896
10528,1882
10529,1882
10530,1904
10531,1895
10532,1861
10533,1810
10534,1824
10535,1820
10536,1789
10537,1795
10538,1823
10539,1847
10540,1863
10541,1872
10542,1879
10543,1872
10544,1899
10545,1895
10546,1916
10547,1930
10548,1881
10549,1847
10550,1843
10551,1827
10552,1829
10553,1823
10554,1807
10555,1810
10556,1865
10557,1856
10558,1875
10559,1862
10560,1858
10561,1893
10562,1887
10563,1917
10564,1901
10565,1865
10566,1842
10567,1839
10568,1818
10569,1806
10570,1805
10571,1830
10572,1850
10573,1869
10574,1882
10575,1904
10576,1883
10577,1907
10578,1904
10579,1898
10580,1918
10581,1871
10582,1860
10583,1841
10584,1833
10585,1811
10586,1778
10587,1798
10588,1819
10589,1854
10590,1862
10591,1868
10592,1888
10593,1898
10594,1902
10595,1901
10596,1918
10597,1890
10598,1895
10599,1867
10600,1833
10601,1824
10602,1808
10603,1799
10604,1809
10605,1833
10606,1867
10607,1879
10608,1874
10609,1884
10610,1921
10611,1888
10612,1899
10613,1914
10614,1894
10615,1863
10616,1846
10617,1829
10618,1817
10619,1792
10620,1802
10621,1805
10622,1856
10623,1867
10624,1873
10625,1872
10626,1892
10627,1875
10628,1889
10629,1891
10630,1914
10631,1894
10632,1866
10633,1854
10634,1841
10635,1819
10636,1804
10637,1782
10638,1829
10639,1856
10640,1866
10641,1883
10642,1875
10643,1886
10644,1893
10645,1891
10646,1907
10647,1895
10648,1875
10649,1859
10650,1819
10651,1815
10652,1818
10653,1804
10654,1802
10655,1834
10656,1871
10657,1873
10658,1869
10659,1885
10660,1889
10661,1895
10662,1895
10663,1907
10664,1905
10665,1873
10666,1853
10667,1837
10668,1816
10669,1807
10670,1808
10671,1840
10672,1789
10673,1867
10674,1845
10675,1868
10676,1883
10677,1894
10678,1872
10679,1902
10680,1906
10681,1904
10682,1865
10683,1835
10684,1819
10685,1811
10686,1803
10687,1811
10688,1835
10689,1858
10690,1879
10691,1862
10692,1900
10693,1915
10694,1893
10695,1890
10696,1883
10697,1891
10698,1878
10699,1851
10700,1843
10701,1824
10702,1823
10703,1825
10704,1799
10705,1817
10706,1862
10707,1868
10708,1854
10709,1884
10710,1904
10711,1877
10712,1878
10713,1900
10714,1922
10715,1871
10716,1872
10717,1851
10718,1840
10719,1805
10720,1807
10721,1801
10722,1833
10723,1874
10724,1857
10725,1861
10726,1878
10727,1899
10728,1889
10729,1890
10730,1907
10731,1907
10732,1855
10733,1826
10734,1805
10735,1805
10736,1808
10737,1813
10738,1835
10739,1850
10740,1859
10741,1831
10742,1897
10743,1879
10744,1891
10745,1889
10746,1889
10747,1926
10748,1882
10749,1873
10750,1855
10751,1845
10752,1820
10753,1794
10754,1822
10755,1808
10756,1840
10757,1853
10758,1882
10759,1881
10760,1907
10761,1898
10762,1894
10763,1901
10764,1893
10765,1873
10766,1862
10767,1840
10768,1839
10769,1809
10770,1810
10771,1830
10772,1821
10773,1870
10774,1872
10775,1889
10776,1882
10777,1896
10778,1872
10779,1903
10780,1886
10781,1898
10782,1867
10783,1856
10784,1821
10785,1826
10786,1808
10787,1825
10788,1840
10789,1851
10790,1863
10791,1891
10792,1869
10793,1902
10794,1895
10795,1886
10796,1906
10797,1873
10798,1878
10799,1872
10800,1851
10801,1844
10802,1840
10803,1827
10804,1819
10805,1837
10806,1857
10807,1854
10808,1879
10809,1885
10810,1899
10811,1890
10812,1900
10813,1908
10814,1904
10815,1871
10816,1856
10817,1850
10818,1808
10819,1810
10820,1814
10821,1838
10822,1813
10823,1859
10824,1857
10825,1850
10826,1885
10827,1873
10828,1875
10829,1893
10830,1887
10831,1897
10832,1872
10833,1852
10834,1845
10835,1835
10836,1811
10837,1815
10838,1839
10839,1851
10840,1859
10841,1859
10842,1887
10843,1913
10844,1885
10845,1883
10846,1875
10847,1907
10848,1893
10849,1854
10850,1852
10851,1850
10852,1818
10853,1795
10854,1842
10855,1838
10856,1853
10857,1851
10858,1879
10859,1894
10860,1876
10861,1879
10862,1889
10863,1903
10864,1918
10865,1882
10866,1853
10867,1840
10868,1850
10869,1814
10870,1820
10871,1840
10872,1859
10873,1863
10874,1872
10875,1885
10876,1858
10877,1893
10878,1884
10879,1872
10880,1894
10881,1875
10882,1858
10883,1845
10884,1839
10885,1859
10886,1808
10887,1825
10888,1828
10889,1856
10890,1857
10891,1872
10892,1865
10893,1866
10894,1886
10895,1887
10896,1904
10897,1927
10898,1888
10899,1856
10900,1867
10901,1279
10902,1904
10903,1949
10904,2031
10905,2036
10906,2065
10907,2053
10908,2015
10909,1926
10910,1953
10911,1986
10912,1997
10913,1904
10914,1842
10915,1759
10916,1755
10917,1760
10918,1737
10919,1744
10920,1775
10921,1830
10922,1883
10923,1885
10924,1886
10925,1870
10926,1870
10927,1914
10928,1886
10929,1895
10930,1914
10931,1894
10932,1165
10933,1899
10934,1989
10935,2112
10936,2107
10937,2095
10938,2085
10939,1988
10940,1904
10941,1964
10942,1988
10943,1909
10944,1794
10945,1723
10946,1701
10947,1703
10948,1687
10949,1715
10950,1772
10951,1811
10952,1853
10953,1858
10954,1855
10955,1865
10956,1881
10957,1891
10958,1897
10959,1872
10960,1899
10961,1899
10962,1875
10963,859
10964,1917
10965,1954
10966,2044
10967,2099
10968,2114
10969,2031
10970,1902
10971,1861
10972,1961
10973,1940
10974,1836
10975,1765
10976,1737
10977,1743
10978,1762
10979,1762
10980,1831
10981,1872
10982,1887
10983,1916
10984,1902
10985,1890
10986,1862
10987,1867
10988,1872
10989,1884
10990,1888
10991,1886
10992,1862
10993,1893
10994,286
10995,1872
10996,1978
10997,2122
10998,2127
10999,2096
11000,2033
11001,1867
11002,1904
11003,1954
11004,1866
11005,1805
11006,1761
11007,1741
11008,1723
11009,1763
11010,1813
11011,1851
11012,1911
11013,1966
11014,1953
11015,1909
11016,1885
11017,1885
11018,1858
11019,1855
11020,1840
11021,1860
11022,1863
11023,1852
11024,1858
11025,0
11026,1808
11027,1954
11028,2059
11029,2109
11030,2109
11031,1995
11032,1871
11033,2003
11034,2011
11035,1904
11036,1786
11037,1744
11038,1719
11039,1714
11040,1740
11041,1779
11042,1865
11043,1898
11044,1936
11045,1930
11046,1906
11047,1936
11048,1904
11049,1890
11050,1863
11051,1857
11052,1856
11053,1841
11054,1817
11055,1836
11056,1
11057,1799
11058,1971
11059,2143
11060,2206
11061,2162
11062,1953
11063,1886
11064,2069
11065,1978
11066,1898
11067,1775
11068,1703
11069,1658
11070,1674
11071,1737
11072,1793
11073,1857
11074,1887
11075,1919
11076,1917
11077,1920
11078,1921
11079,1932
11080,1939
11081,1948
11082,1910
11083,1883
11084,1859
11085,1839
11086,1795
11087,413
11088,1715
11089,1904
11090,2096
11091,2187
11092,2143
11093,1915
11094,1874
11095,2053
11096,2017
11097,1907
11098,1795
11099,1753
11100,1727
11101,1697
11102,1710
11103,1754
11104,1829
11105,1889
11106,1913
11107,1913
11108,1887
11109,1914
11110,1913
11111,1899
11112,1895
11113,1905
11114,1895
11115,1875
11116,1840
11117,1825
11118,1563
11119,1664
11120,1903
11121,1997
11122,2143
11123,2111
11124,1891
11125,1857
11126,2045
11127,2064
11128,1946
11129,1826
11130,1795
11131,1747
11132,1754
11133,1775
11134,1812
11135,1856
11136,1870
11137,1861
11138,1882
11139,1884
11140,1879
11141,1872
11142,1890
11143,1903
11144,1906
11145,1901
11146,1874
11147,1861
11148,1861
11149,1843
11150,1622
11151,1889
11152,1972
11153,2064
11154,2038
11155,1839
11156,1845
11157,2030
11158,2019
11159,1918
11160,1809
11161,1816
11162,1808
11163,1803
11164,1850
11165,1860
11166,1891
11167,1905
11168,1866
11169,1872
11170,1872
11171,1861
11172,1894
11173,1881
11174,1879
11175,1878
11176,1887
11177,1877
11178,1864
11179,1856
11180,1866
11181,1472
11182,1896
11183,1981
11184,2109
11185,2110
11186,1867
11187,1825
11188,1999
11189,1977
11190,1895
11191,1816
11192,1804
11193,1795
11194,1786
11195,1810
11196,1856
11197,1911
11198,1915
11199,1910
11200,1885
11201,1857
11202,1867
11203,1854
11204,1851
11205,1866
11206,1869
11207,1865
11208,1857
11209,1879
11210,1887
11211,1861
11212,1318
11213,1929
11214,2010
11215,2128
11216,2123
11217,1898
11218,1853
11219,1999
11220,1967
11221,1884
11222,1786
11223,1791
11224,1775
11225,1771
11226,1792
11227,1840
11228,1900
11229,1936
11230,1927
11231,1907
11232,1893
11233,1869
11234,1877
11235,1872
11236,1861
11237,1867
11238,1871
11239,1887
11240,1862
11241,1851
11242,1849
11243,1123
11244,1907
11245,1968
11246,2062
11247,2062
11248,1872
11249,1862
11250,2064
11251,2079
11252,1920
11253,1823
11254,1776
11255,1790
11256,1802
11257,1814
11258,1863
11259,1901
11260,1906
11261,1917
11262,1906
11263,1903
11264,1918
11265,1883
11266,1871
11267,1858
11268,1854
11269,1846
11270,1840
11271,1830
11272,1854
11273,1845
11274,780
11275,1878
11276,1965
11277,2086
11278,2109
11279,1904
11280,1879
11281,2032
11282,2037
11283,1904
11284,1786
11285,1798
11286,1781
11287,1762
11288,1811
11289,1841
11290,1894
11291,1942
11292,1922
11293,1903
11294,1903
11295,1897
11296,1895
11297,1881
11298,1890
11299,1863
11300,1869
11301,1843
11302,1826
11303,1817
11304,1828
11305,272
11306,1851
11307,1941
11308,2011
11309,2035
11310,1877
11311,1841
11312,2038
11313,2112
11314,2006
11315,1858
11316,1831
11317,1799
11318,1796
11319,1815
11320,1833
11321,1881
11322,1911
11323,1904
11324,1886
11325,1883
11326,1891
11327,1901
11328,1880
11329,1870
11330,1894
11331,1889
11332,1855
11333,1846
11334,1841
11335,1812
11336,0
11337,1776
11338,1911
11339,1977
11340,2011
11341,1869
11342,1831
11343,2088
11344,2147
11345,2000
11346,1847
11347,1842
11348,1833
11349,1838
11350,1831
11351,1845
11352,1855
11353,1898
11354,1874
11355,1872
11356,1881
11357,1875
11358,1867
11359,1886
11360,1890
11361,1879
11362,1872
11363,1875
11364,1873
11365,1840
11366,1821
11367,0
11368,1779
11369,1918
11370,1959
11371,1984
11372,1866
11373,1773
11374,2027
11375,2130
11376,1991
11377,1904
11378,1866
11379,1874
11380,1865
11381,1867
11382,1857
11383,1899
11384,1895
11385,1879
11386,1860
11387,1853
11388,1865
11389,1871
11390,1872
11391,1883
11392,1883
11393,1891
11394,1872
11395,1854
11396,1848
11397,1851
11398,390
11399,1731
11400,1922
11401,1966
11402,1987
11403,1886
11404,1766
11405,2011
11406,2121
11407,2007
11408,1869
11409,1860
11410,1830
11411,1854
11412,1869
11413,1887
11414,1895
11415,1915
11416,1883
11417,1871
11418,1856
11419,1850
11420,1845
11421,1846
11422,1825
11423,1872
11424,1867
11425,1856
11426,1846
11427,1849
11428,1862
11429,1204
11430,1734
11431,1937
11432,1970
11433,1989
11434,1901
11435,1785
11436,2005
11437,2118
11438,1998
11439,1828
11440,1837
11441,1843
11442,1840
11443,1861
11444,1871
11445,1899
11446,1922
11447,1919
11448,1901
11449,1895
11450,1856
11451,1853
11452,1835
11453,1834
11454,1846
11455,1840
11456,1853
11457,1860
11458,1853
11459,1845
11460,1841
11461,1648
11462,1962
11463,2065
11464,2165
11465,2042
11466,1792
11467,1927
11468,2037
11469,1918
11470,1812
11471,1802
11472,1851
11473,1809
11474,1831
11475,1856
11476,1887
11477,1921
11478,1924
11479,1925
11480,1924
11481,1910
11482,1893
11483,1859
11484,1853
11485,1840
11486,1814
11487,1826
11488,1825
11489,1835
11490,1844
11491,1846
11492,1508
11493,1931
11494,2028
11495,2161
11496,2096
11497,1819
11498,1919
11499,2016
11500,1984
11501,1843
11502,1805
11503,1783
11504,1776
11505,1795
11506,1824
11507,1861
11508,1922
11509,1929
11510,1921
11511,1907
11512,1904
11513,1911
11514,1910
11515,1877
11516,1855
11517,1842
11518,1826
11519,1808
11520,1798
11521,1816
11522,1836
11523,1854
11524,1851
11525,1840
11526,1872
11527,1887
11528,1888
11529,1894
11530,1893
11531,1891
11532,1872
11533,1840
11534,1846
11535,1818
11536,1823
11537,1814
11538,1840
11539,1858
11540,1858
11541,1873
11542,1883
11543,1904
11544,1883
11545,1873
11546,1894
11547,1898
11548,1872
11549,1851
11550,1856
11551,1815
11552,1826
11553,1814
11554,1827
11555,1843
11556,1849
11557,1863
11558,1870
11559,1882
11560,1874
11561,1883
11562,1870
11563,1904
11564,1882
11565,1872
11566,1855
11567,1847
11568,1856
11569,1822
11570,1819
11571,1849
11572,1845
11573,1874
11574,1859
11575,1861
11576,1872
11577,1881
11578,1871
11579,1887
11580,1889
11581,1905
11582,1862
11583,1833
11584,1834
11585,1855
11586,1815
11587,1817
11588,1827
11589,1839
11590,1867
11591,1889
11592,1881
11593,1856
11594,1887
11595,1883
11596,1877
11597,1899
11598,1882
11599,1855
11600,1843
11601,1827
11602,1827
11603,1830
11604,1813
11605,1826
11606,1841
11607,1856
11608,1865
11609,1884
11610,1882
11611,1879
11612,1878
11613,1894
11614,1886
11615,1859
11616,1857
11617,1824
11618,1808
11619,1822
11620,1817
11621,1811
11622,1840
11623,1863
11624,1865
11625,1874
11626,1882
11627,1902
11628,1897
11629,1874
11630,1910
11631,1888
11632,1881
11633,1853
11634,1856
11635,1835
11636,1837
11637,1808
11638,1833
11639,1853
11640,1867
11641,1856
11642,1858
11643,1883
11644,1885
11645,1885
11646,1883
11647,1917
11648,1872
11649,1873
11650,1853
11651,1838
11652,1840
11653,1850
11654,1857
11655,1864
11656,1861
11657,1828
11658,1840
11659,1856
11660,1841
11661,1874
11662,1877
11663,1904
11664,1891
11665,1859
11666,1845
11667,1840
11668,1803
11669,1823
11670,1830
11671,1840
11672,1843
11673,1859
11674,1870
11675,1886
11676,1888
11677,1895
11678,1876
11679,1895
11680,1906
11681,1899
11682,1861
11683,1856
11684,1844
11685,1825
11686,1825
11687,1839
11688,1839
11689,1857
11690,1875
11691,1872
11692,1879
11693,1873
11694,1882
11695,1881
11696,1872
11697,1901
11698,1872
11699,1865
11700,1842
11701,1809
11702,1817
11703,1815
11704,1837
11705,1841
11706,1849
11707,1872
11708,1871
11709,1881
11710,1879
11711,1884
11712,1875
11713,1896
11714,1888
11715,1864
11716,1871
11717,1852
11718,1821
11719,1823
11720,1823
11721,1840
11722,1850
11723,1859
11724,1867
11725,1865
11726,1868
11727,1893
11728,1887
11729,1885
11730,1904
11731,1889
11732,1863
11733,1843
11734,1840
11735,1824
11736,1819
11737,1811
11738,1826
11739,1838
11740,1867
11741,1866
11742,1872
11743,1899
11744,1888
11745,1885
11746,1897
11747,1914
11748,1869
11749,1872
11750,1855
11751,1846
11752,1838
11753,1812
11754,1830
11755,1838
11756,1859
11757,1856
11758,1869
11759,1889
11760,1874
11761,1875
11762,1900
11763,1886
11764,1893
11765,1871
11766,1837
11767,1840
11768,1842
11769,1824
11770,1821
11771,1822
11772,1847
11773,1861
11774,1875
11775,1890
11776,1902
11777,1883
11778,1875
11779,1881
11780,1886
11781,1882
11782,1871
11783,1843
11784,1840
11785,1831
11786,1823
11787,1821
11788,1838
11789,1839
11790,1857
11791,1854
11792,1870
11793,1883
11794,1884
11795,1883
11796,1889
11797,1883
11798,1869
11799,1863
11800,1856
11801,1836
11802,1840
11803,1818
11804,1822
11805,1855
11806,1862
11807,1867
11808,1876
11809,1873
11810,1900
11811,1895
11812,1894
11813,1905
11814,1910
11815,1857
11816,1856
11817,1856
11818,1822
11819,1823
11820,1818
11821,1835
11822,1853
11823,1861
11824,1871
11825,1872
11826,1884
11827,1881
11828,1882
11829,1898
11830,1885
11831,1883
11832,1856
11833,1852
11834,1852
11835,1851
11836,1826
11837,1823
11838,1840
11839,1851
11840,1866
11841,1855
11842,1871
11843,1887
11844,1888
11845,1879
11846,1885
11847,1892
11848,1856
11849,1841
11850,1853
11851,1834
11852,1827
11853,1818
11854,1822
11855,1843
11856,1851
11857,1866
11858,1871
11859,1877
11860,1880
11861,1892
11862,1874
11863,1891
11864,1889
11865,1865
11866,1855
11867,1834
11868,1847
11869,1823
11870,1820
11871,1835
11872,1823
11873,1857
11874,1872
11875,1872
11876,1858
11877,1886
11878,1885
11879,1893
11880,1894
11881,1902
11882,1870
11883,1863
11884,1849
11885,1842
11886,1824
11887,1809
11888,1837
11889,1859
11890,1862
11891,1869
11892,1875
11893,1872
11894,1889
11895,1888
11896,1920
11897,1911
11898,1872
11899,1847
11900,1846
11901,1837
11902,1825
11903,1829
11904,1840
11905,1844
11906,1857
11907,1857
11908,1865
11909,1875
11910,1891
11911,1877
11912,1899
11913,1904
11914,1872
11915,1875
11916,1860
11917,1829
11918,1831
11919,1814
11920,1815
11921,1825
11922,1840
11923,1859
11924,1845
11925,1860
11926,1886
11927,1883
11928,1882
