Time(ms),Raw_ADC
0,1851
1,1831
2,1822
3,1821
4,1819
5,1846
6,1866
7,1875
8,1873
9,1874
10,1894
11,1902
12,1909
13,1891
14,1872
15,1872
16,1854
17,1853
18,1808
19,1818
20,1831
21,1831
22,1837
23,1875
24,1853
25,1873
26,1865
27,1882
28,1889
29,1867
30,1905
31,1872
32,1877
33,1853
34,1828
35,1815
36,1827
37,1826
38,1834
39,1870
40,1857
41,1871
42,1873
43,1890
44,1899
45,1905
46,1890
47,1872
48,1874
49,1849
50,1842
51,1815
52,1813
53,1818
54,1806
55,1838
56,1851
57,1872
58,1861
59,1890
60,1879
61,1881
62,1882
63,1887
64,1874
65,1870
66,1861
67,1841
68,1811
69,1809
70,1827
71,1823
72,1856
73,1863
74,1877
75,1872
76,1889
77,1885
78,1891
79,1895
80,1887
81,1882
82,1855
83,1854
84,1831
85,1814
86,1827
87,1822
88,1831
89,1869
90,1861
91,1869
92,1872
93,1886
94,1890
95,1879
96,1904
97,1906
98,1871
99,1872
100,1825
101,1810
102,1808
103,1821
104,1837
105,1840
106,1861
107,1841
108,1890
109,1869
110,1885
111,1891
112,1873
113,1898
114,1877
115,1863
116,1854
117,1831
118,1814
119,1808
120,1820
121,1815
122,1809
123,1867
124,1872
125,1872
126,1895
127,1892
128,1895
129,1887
130,1904
131,1881
132,1852
133,1846
134,1826
135,1836
136,1826
137,1840
138,1844
139,1872
140,1863
141,1863
142,1881
143,1879
144,1877
145,1887
146,1894
147,1871
148,1866
149,1880
150,1855
151,1849
152,1819
153,1825
154,1841
155,1840
156,1872
157,1856
158,1883
159,1889
160,1889
161,1909
162,1899
163,1903
164,1887
165,1868
166,1847
167,1837
168,1815
169,1820
170,1811
171,1831
172,1857
173,1847
174,1873
175,1870
176,1861
177,1881
178,1892
179,1875
180,1874
181,1873
182,1851
183,1843
184,1839
185,1815
186,1808
187,1813
188,1826
189,1859
190,1845
191,1879
192,1869
193,1879
194,1897
195,1909
196,1899
197,1915
198,1883
199,1862
200,1855
201,1839
202,1814
203,1817
204,1821
205,1831
206,1851
207,1874
208,1854
209,1872
210,1889
211,1901
212,1883
213,1891
214,1883
215,1875
216,1861
217,1843
218,1835
219,1803
220,1817
221,1830
222,1815
223,1858
224,1887
225,1887
226,1882
227,1894
228,1895
229,1877
230,1872
231,1871
232,1878
233,1852
234,1826
235,1830
236,1803
237,1803
238,1821
239,1868
240,1862
241,1878
242,1874
243,1895
244,1897
245,1895
246,1904
247,1918
248,1873
249,1850
250,1843
251,1834
252,1814
253,1822
254,1842
255,1851
256,1863
257,1872
258,1869
259,1889
260,1878
261,1905
262,1885
263,1887
264,1887
265,1872
266,1862
267,1830
268,1820
269,1822
270,1817
271,1845
272,1852
273,1865
274,1877
275,1877
276,1890
277,1887
278,1891
279,1902
280,1911
281,1875
282,1872
283,1858
284,1823
285,1822
286,1808
287,1822
288,1831
289,1854
290,1879
291,1881
292,1872
293,1887
294,1872
295,1892
296,1884
297,1879
298,1872
299,1837
300,1852
301,1812
302,1823
303,1821
304,1816
305,1840
306,1853
307,1873
308,1872
309,1881
310,1895
311,1892
312,1883
313,1903
314,1902
315,1874
316,1865
317,1829
318,1814
319,1811
320,1819
321,1847
322,1831
323,1861
324,1877
325,1851
326,1875
327,1879
328,1886
329,1899
330,1870
331,1871
332,1870
333,1842
334,1840
335,1817
336,1808
337,1835
338,1833
339,1841
340,1873
341,1874
342,1888
343,1875
344,1888
345,1899
346,1874
347,1892
348,1872
349,1842
350,1834
351,1828
352,1823
353,1821
354,1823
355,1830
356,1856
357,1838
358,1893
359,1878
360,1881
361,1898
362,1895
363,1904
364,1893
365,1866
366,1851
367,1849
368,1825
369,1821
370,1815
371,1787
372,1840
373,1854
374,1880
375,1900
376,1879
377,1901
378,1890
379,1872
380,1884
381,1888
382,1856
383,1840
384,1837
385,1814
386,1822
387,1837
388,1835
389,1855
390,1872
391,1891
392,1885
393,1887
394,1883
395,1895
396,1867
397,1904
398,1872
399,1847
400,1854
401,1823
402,1825
403,1828
404,1840
405,1825
406,1840
407,1855
408,1878
409,1879
410,1883
411,1904
412,1904
413,1888
414,1859
415,1857
416,1854
417,1826
418,1822
419,1821
420,1815
421,1786
422,1841
423,1859
424,1850
425,1875
426,1875
427,1889
428,1893
429,1875
430,1897
431,1883
432,1872
433,1827
434,1845
435,1829
436,1811
437,1811
438,1830
439,1826
440,1870
441,1869
442,1882
443,1872
444,1882
445,1887
446,1892
447,1901
448,1863
449,1876
450,1825
451,1823
452,1823
453,1824
454,1811
455,1839
456,1867
457,1857
458,1857
459,1885
460,1885
461,1887
462,1886
463,1886
464,1878
465,1866
466,1868
467,1856
468,1827
469,1824
470,1821
471,1826
472,1830
473,1869
474,1856
475,1847
476,1879
477,1888
478,1882
479,1899
480,1887
481,1879
482,1872
483,1867
484,1835
485,1815
486,1809
487,1806
488,1840
489,1825
490,1872
491,1871
492,1872
493,1890
494,1891
495,1890
496,1920
497,1899
498,1872
499,1851
500,1847
501,1814
502,1817
503,1808
504,1828
505,1824
506,1831
507,1872
508,1858
509,1889
510,1872
511,1882
512,1904
513,1907
514,1886
515,1872
516,1856
517,1839
518,1830
519,1817
520,1822
521,1856
522,1842
523,1861
524,1861
525,1872
526,1884
527,1889
528,1883
529,1906
530,1904
531,1873
532,1862
533,1861
534,1840
535,1831
536,1811
537,1826
538,1828
539,1840
540,1857
541,1863
542,1873
543,1881
544,1889
545,1894
546,1874
547,1906
548,1870
549,1847
550,1842
551,1838
552,1815
553,1815
554,1808
555,1840
556,1840
557,1870
558,1882
559,1871
560,1885
561,1885
562,1902
563,1904
564,1901
565,1867
566,1840
567,1840
568,1817
569,1820
570,1822
571,1808
572,1834
573,1859
574,1861
575,1861
576,1873
577,1888
578,1884
579,1885
580,1898
581,1897
582,1868
583,1839
584,1836
585,1829
586,1821
587,1828
588,1827
589,1841
590,1861
591,1856
592,1863
593,1897
594,1882
595,1888
596,1904
597,1885
598,1863
599,1856
600,1847
601,1827
602,1824
603,1821
604,1829
605,1845
606,1856
607,1849
608,1873
609,1855
610,1886
611,1899
612,1886
613,1897
614,1885
615,1857
616,1863
617,1855
618,1833
619,1825
620,1809
621,1831
622,1830
623,1858
624,1865
625,1875
626,1875
627,1878
628,1894
629,1879
630,1885
631,1888
632,1860
633,1861
634,1831
635,1842
636,1808
637,1822
638,1822
639,1836
640,1854
641,1869
642,1886
643,1893
644,1892
645,1896
646,1876
647,1904
648,1880
649,1858
650,1858
651,1815
652,1823
653,1795
654,1811
655,1824
656,1856
657,1867
658,1882
659,1877
660,1897
661,1883
662,1904
663,1893
664,1878
665,1865
666,1873
667,1851
668,1838
669,1822
670,1821
671,1822
672,1839
673,1853
674,1879
675,1865
676,1882
677,1892
678,1904
679,1891
680,1890
681,1867
682,1869
683,1844
684,1837
685,1823
686,1818
687,1821
688,1822
689,1850
690,1870
691,1853
692,1862
693,1897
694,1886
695,1893
696,1904
697,1902
698,1897
699,1856
700,1851
701,1813
702,1831
703,1809
704,1808
705,1833
706,1840
707,1861
708,1861
709,1863
710,1886
711,1894
712,1888
713,1898
714,1904
715,1869
716,1867
717,1860
718,1825
719,1826
720,1821
721,1826
722,1838
723,1850
724,1877
725,1872
726,1882
727,1904
728,1886
729,1886
730,1907
731,1891
732,1861
733,1857
734,1837
735,1814
736,1813
737,1810
738,1843
739,1855
740,1877
741,1878
742,1876
743,1885
744,1879
745,1887
746,1885
747,1904
748,1883
749,1856
750,1856
751,1840
752,1808
753,1802
754,1834
755,1830
756,1840
757,1865
758,1862
759,1879
760,1873
761,1893
762,1874
763,1891
764,1872
765,1881
766,1876
767,1855
768,1839
769,1817
770,1819
771,1839
772,1838
773,1870
774,1870
775,1872
776,1872
777,1877
778,1879
779,1873
780,1894
781,1882
782,1865
783,1856
784,1855
785,1813
786,1822
787,1808
788,1840
789,1846
790,1871
791,1889
792,1885
793,1884
794,1897
795,1894
796,1891
797,1908
798,1884
799,1859
800,1829
801,1837
802,1824
803,1820
804,1831
805,1840
806,1840
807,1867
808,1859
809,1891
810,1875
811,1879
812,1875
813,1887
814,1917
815,1865
816,1840
817,1825
818,1815
819,1814
820,1826
821,1834
822,1840
823,1845
824,1875
825,1869
826,1871
827,1872
828,1903
829,1903
830,1886
831,1886
832,1872
833,1850
834,1831
835,1808
836,1820
837,1815
838,1817
839,1833
840,1852
841,1874
842,1886
843,1855
844,1895
845,1896
846,1904
847,1875
848,1859
849,1855
850,1835
851,1839
852,1808
853,1806
854,1815
855,1828
856,1843
857,1863
858,1863
859,1877
860,1873
861,1904
862,1883
863,1899
864,1007
865,1344
866,1987
867,2224
868,2306
869,2266
870,2239
871,2182
872,2033
873,1839
874,1674
875,1679
876,1701
877,1769
878,1874
879,1969
880,2078
881,2127
882,2115
883,2097
884,1994
885,1878
886,1774
887,1662
888,1608
889,1594
890,1616
891,1630
892,1680
893,1730
894,1769
895,1710
896,1187
897,1943
898,2208
899,2291
900,2267
901,2236
902,2135
903,1962
904,1724
905,1614
906,1680
907,1733
908,1815
909,1956
910,2059
911,2131
912,2195
913,2176
914,2096
915,1971
916,1846
917,1707
918,1595
919,1555
920,1573
921,1613
922,1680
923,1734
924,1769
925,1839
926,1863
927,1061
928,1916
929,2256
930,2385
931,2352
932,2277
933,2131
934,1902
935,1671
936,1648
937,1653
938,1728
939,1855
940,1995
941,2110
942,2187
943,2186
944,2178
945,2096
946,1939
947,1803
948,1664
949,1570
950,1532
951,1566
952,1629
953,1678
954,1722
955,1754
956,1808
957,1841
958,1057
959,1911
960,2274
961,2426
962,2398
963,2320
964,2165
965,1803
966,1680
967,1616
968,1648
969,1751
970,1879
971,1978
972,2061
973,2178
974,2192
975,2160
976,2038
977,1918
978,1770
979,1647
980,1597
981,1590
982,1665
983,1702
984,1711
985,1730
986,1755
987,1803
988,1844
989,852
990,1840
991,2233
992,2391
993,2385
994,2305
995,2096
996,1759
997,1731
998,1673
999,1691
1000,1791
1001,1902
1002,1968
1003,2032
1004,2105
1005,2134
1006,2113
1007,2021
1008,1875
1009,1762
1010,1670
1011,1639
1012,1648
1013,1650
1014,1722
1015,1753
1016,1806
1017,1793
1018,1820
1019,1827
1020,548
1021,1741
1022,2154
1023,2375
1024,2389
1025,2288
1026,2041
1027,1726
1028,1709
1029,1712
1030,1770
1031,1871
1032,1957
1033,2017
1034,2096
1035,2122
1036,2147
1037,2091
1038,2018
1039,1854
1040,1738
1041,1612
1042,1595
1043,1616
1044,1664
1045,1723
1046,1783
1047,1810
1048,1830
1049,1859
1050,1834
1051,192
1052,1675
1053,2102
1054,2342
1055,2322
1056,2270
1057,2013
1058,1711
1059,1724
1060,1698
1061,1777
1062,1898
1063,2031
1064,2098
1065,2131
1066,2162
1067,2153
1068,2087
1069,1945
1070,1811
1071,1685
1072,1582
1073,1570
1074,1600
1075,1663
1076,1706
1077,1789
1078,1836
1079,1877
1080,1879
1081,1905
1082,16
1083,1686
1084,2096
1085,2337
1086,2315
1087,2233
1088,1917
1089,1661
1090,1712
1091,1702
1092,1780
1093,1873
1094,1996
1095,2090
1096,2139
1097,2199
1098,2176
1099,2064
1100,1960
1101,1803
1102,1652
1103,1567
1104,1531
1105,1567
1106,1633
1107,1707
1108,1778
1109,1839
1110,1871
1111,1894
1112,1905
1113,199
1114,1616
1115,2082
1116,2368
1117,2323
1118,2283
1119,2000
1120,1680
1121,1718
1122,1666
1123,1737
1124,1883
1125,1999
1126,2068
1127,2125
1128,2155
1129,2154
1130,2105
1131,2001
1132,1835
1133,1706
1134,1591
1135,1563
1136,1580
1137,1635
1138,1702
1139,1745
1140,1803
1141,1862
1142,1884
1143,1904
1144,923
1145,1461
1146,2058
1147,2381
1148,2442
1149,2320
1150,2076
1151,1680
1152,1717
1153,1643
1154,1718
1155,1834
1156,1975
1157,2085
1158,2128
1159,2179
1160,2176
1161,2103
1162,1985
1163,1849
1164,1697
1165,1593
1166,1535
1167,1616
1168,1648
1169,1697
1170,1744
1171,1794
1172,1836
1173,1882
1174,1885
1175,1757
1176,1369
1177,2047
1178,2339
1179,2416
1180,2356
1181,2139
1182,1728
1183,1753
1184,1678
1185,1666
1186,1822
1187,1943
1188,2069
1189,2101
1190,2155
1191,2152
1192,2086
1193,1967
1194,1833
1195,1709
1196,1630
1197,1616
1198,1629
1199,1680
1200,1705
1201,1742
1202,1776
1203,1801
1204,1839
1205,1840
1206,1859
1207,1299
1208,2000
1209,2335
1210,2423
1211,2362
1212,2160
1213,1766
1214,1785
1215,1726
1216,1737
1217,1872
1218,1947
1219,2012
1220,2064
1221,2106
1222,2093
1223,2069
1224,1943
1225,1808
1226,1693
1227,1614
1228,1642
1229,1666
1230,1696
1231,1745
1232,1778
1233,1819
1234,1840
1235,1844
1236,1839
1237,1847
1238,1086
1239,1891
1240,2263
1241,2428
1242,2355
1243,2193
1244,1761
1245,1753
1246,1728
1247,1750
1248,1859
1249,1985
1250,2059
1251,2108
1252,2135
1253,2119
1254,2033
1255,1942
1256,1807
1257,1671
1258,1566
1259,1589
1260,1602
1261,1675
1262,1745
1263,1795
1264,1856
1265,1858
1266,1872
1267,1835
1268,1872
1269,914
1270,1835
1271,2224
1272,2369
1273,2351
1274,2224
1275,1781
1276,1774
1277,1749
1278,1739
1279,1859
1280,1987
1281,2106
1282,2123
1283,2137
1284,2112
1285,2043
1286,1919
1287,1779
1288,1671
1289,1564
1290,1554
1291,1614
1292,1675
1293,1744
1294,1791
1295,1838
1296,1883
1297,1903
1298,1889
1299,1906
1300,816
1301,1813
1302,2176
1303,2329
1304,2301
1305,2187
1306,1757
1307,1741
1308,1744
1309,1731
1310,1851
1311,1985
1312,2076
1313,2138
1314,2172
1315,2143
1316,2064
1317,1961
1318,1810
1319,1662
1320,1567
1321,1535
1322,1595
1323,1662
1324,1738
1325,1786
1326,1819
1327,1857
1328,1889
1329,1909
1330,1927
1331,576
1332,1786
1333,2176
1334,2380
1335,2325
1336,2217
1337,1806
1338,1682
1339,1696
1340,1687
1341,1815
1342,1989
1343,2089
1344,2126
1345,2165
1346,2176
1347,2089
1348,1990
1349,1842
1350,1701
1351,1586
1352,1535
1353,1573
1354,1643
1355,1677
1356,1761
1357,1815
1358,1865
1359,1876
1360,1917
1361,1927
1362,208
1363,1756
1364,2201
1365,2417
1366,2378
1367,2251
1368,1853
1369,1694
1370,1714
1371,1646
1372,1777
1373,1947
1374,2032
1375,2082
1376,2131
1377,2150
1378,2092
1379,1987
1380,1872
1381,1759
1382,1645
1383,1587
1384,1603
1385,1648
1386,1676
1387,1726
1388,1792
1389,1803
1390,1846
1391,1893
1392,1910
1393,0
1394,1641
1395,2145
1396,2423
1397,2402
1398,2317
1399,1943
1400,1671
1401,1744
1402,1670
1403,1746
1404,1904
1405,1998
1406,2055
1407,2130
1408,2127
1409,2121
1410,2007
1411,1901
1412,1760
1413,1658
1414,1625
1415,1619
1416,1653
1417,1713
1418,1717
1419,1759
1420,1814
1421,1830
1422,1855
1423,1859
1424,327
1425,1523
1426,2091
1427,2357
1428,2416
1429,2351
1430,2015
1431,1751
1432,1759
1433,1690
1434,1774
1435,1915
1436,1987
1437,2042
1438,2115
1439,2113
1440,2109
1441,2019
1442,1920
1443,1747
1444,1663
1445,1589
1446,1625
1447,1672
1448,1715
1449,1760
1450,1792
1451,1822
1452,1810
1453,1841
1454,1849
1455,1205
1456,1409
1457,2023
1458,2352
1459,2415
1460,2355
1461,2071
1462,1712
1463,1783
1464,1722
1465,1766
1466,1936
1467,1991
1468,2064
1469,2101
1470,2103
1471,2075
1472,2000
1473,1899
1474,1757
1475,1643
1476,1585
1477,1616
1478,1665
1479,1735
1480,1775
1481,1834
1482,1849
1483,1855
1484,1855
1485,1856
1486,1857
1487,1866
1488,1872
1489,1905
1490,1910
1491,1910
1492,1919
1493,1905
1494,1917
1495,1892
1496,1902
1497,1920
1498,1899
1499,1872
1500,1866
1501,1858
1502,1823
1503,1827
1504,1814
1505,1827
1506,1857
1507,1872
1508,1866
1509,1877
1510,1872
1511,1887
1512,1893
1513,1895
1514,1915
1515,1876
1516,1861
1517,1850
1518,1817
1519,1810
1520,1812
1521,1831
1522,1833
1523,1841
1524,1867
1525,1874
1526,1875
1527,1901
1528,1891
1529,1895
1530,1890
1531,1891
1532,1885
1533,1865
1534,1856
1535,1837
1536,1823
1537,1823
1538,1833
1539,1856
1540,1857
1541,1859
1542,1873
1543,1870
1544,1885
1545,1891
1546,1885
1547,1885
1548,1894
1549,1863
1550,1836
1551,1831
1552,1814
1553,1826
1554,1808
1555,1830
1556,1826
1557,1869
1558,1853
1559,1887
1560,1875
1561,1886
1562,1888
1563,1895
1564,1876
1565,1882
1566,1872
1567,1843
1568,1830
1569,1811
1570,1805
1571,1835
1572,1830
1573,1845
1574,1872
1575,1859
1576,1889
1577,1881
1578,1872
1579,1903
1580,1901
1581,1897
1582,1869
1583,1857
1584,1819
1585,1808
1586,1823
1587,1818
1588,1818
1589,1856
1590,1851
1591,1867
1592,1873
1593,1889
1594,1888
1595,1899
1596,1906
1597,1902
1598,1893
1599,1875
1600,1855
1601,1840
1602,1815
1603,1808
1604,1840
1605,1831
1606,1839
1607,1871
1608,1883
1609,1872
1610,1895
1611,1891
1612,1888
1613,1908
1614,1890
1615,1870
1616,1843
1617,1856
1618,1835
1619,1835
1620,1824
1621,1833
1622,1840
1623,1865
1624,1863
1625,1882
1626,1863
1627,1884
1628,1904
1629,1899
1630,1904
1631,1893
1632,1863
1633,1857
1634,1856
1635,1820
1636,1821
1637,1818
1638,1808
1639,1837
1640,1845
1641,1874
1642,1863
1643,1873
1644,1874
1645,1899
1646,1878
1647,1891
1648,1886
1649,1863
1650,1857
1651,1846
1652,1822
1653,1824
1654,1826
1655,1827
1656,1842
1657,1858
1658,1874
1659,1863
1660,1891
1661,1888
1662,1886
1663,1904
1664,1909
1665,1863
1666,1856
1667,1845
1668,1840
1669,1825
1670,1809
1671,1813
1672,1837
1673,1872
1674,1851
1675,1893
1676,1866
1677,1879
1678,1887
1679,1891
1680,1895
1681,1887
1682,1874
1683,1881
1684,1855
1685,1853
1686,1825
1687,1825
1688,1840
1689,1850
1690,1851
1691,1862
1692,1856
1693,1872
1694,1897
1695,1909
1696,1910
1697,1907
1698,1890
1699,1869
1700,1856
1701,1815
1702,1813
1703,1823
1704,1808
1705,1808
1706,1823
1707,1855
1708,1871
1709,1873
1710,1883
1711,1887
1712,1894
1713,1905
1714,1908
1715,1884
1716,1861
1717,1856
1718,1819
1719,1808
1720,1830
1721,1834
1722,1840
1723,1854
1724,1859
1725,1857
1726,1862
1727,1878
1728,1894
1729,1890
1730,1875
1731,1884
1732,1867
1733,1868
1734,1846
1735,1811
1736,1818
1737,1818
1738,1840
1739,1833
1740,1856
1741,1855
1742,1873
1743,1883
1744,1883
1745,1884
1746,1889
1747,1893
1748,1872
1749,1872
1750,1855
1751,1851
1752,1835
1753,1815
1754,1822
1755,1823
1756,1862
1757,1856
1758,1885
1759,1876
1760,1887
1761,1893
1762,1890
1763,1909
1764,1893
1765,1887
1766,1872
1767,1861
1768,1833
1769,1808
1770,1791
1771,1810
1772,1831
1773,1839
1774,1874
1775,1879
1776,1874
1777,1889
1778,1895
1779,1898
1780,1895
1781,1904
1782,1872
1783,1849
1784,1854
1785,1840
1786,1825
1787,1826
1788,1824
1789,1837
1790,1863
1791,1882
1792,1879
1793,1874
1794,1875
1795,1874
1796,1895
1797,1889
1798,1871
1799,1855
1800,1849
1801,1831
1802,1837
1803,1829
1804,1822
1805,1803
1806,1840
1807,1871
1808,1865
1809,1867
1810,1909
1811,1889
1812,1887
1813,1898
1814,1885
1815,1869
1816,1855
1817,1850
1818,1837
1819,1821
1820,1808
1821,1815
1822,1811
1823,1850
1824,1856
1825,1885
1826,1872
1827,1877
1828,1887
1829,1893
1830,1867
1831,1887
1832,1875
1833,1854
1834,1848
1835,1846
1836,1815
1837,1826
1838,1827
1839,1838
1840,1857
1841,1877
1842,1891
1843,1871
1844,1901
1845,1894
1846,1892
1847,1899
1848,1905
1849,1862
1850,1847
1851,1840
1852,1832
1853,1825
1854,1813
1855,1855
1856,1838
1857,1854
1858,1842
1859,1854
1860,1883
1861,1885
1862,1893
1863,1907
1864,1892
1865,1874
1866,1856
1867,1854
1868,1839
1869,1813
1870,1840
1871,1840
1872,1835
1873,1863
1874,1872
1875,1897
1876,1888
1877,1898
1878,1888
1879,1896
1880,1902
1881,1900
1882,1879
1883,1851
1884,1840
1885,1811
1886,1809
1887,1829
1888,1838
1889,1840
1890,1863
1891,1878
1892,1901
1893,1866
1894,1887
1895,1891
1896,1904
1897,1904
1898,1879
1899,1869
1900,1853
1901,1835
1902,1837
1903,1815
1904,1822
1905,1804
1906,1845
1907,1867
1908,1875
1909,1872
1910,1863
1911,1885
1912,1895
1913,1897
1914,1883
1915,1873
1916,1858
1917,1842
1918,1831
1919,1819
1920,1824
1921,1822
1922,1821
1923,1863
1924,1866
1925,1895
1926,1883
1927,1882
1928,1885
1929,1893
1930,1875
1931,1906
1932,1871
1933,1855
1934,1847
1935,1823
1936,1824
1937,1825
1938,1833
1939,1831
1940,1877
1941,1872
1942,1890
1943,1885
1944,1893
1945,1887
1946,1895
1947,1895
1948,1872
1949,1856
1950,1845
1951,1833
1952,1837
1953,1808
1954,1824
1955,1814
1956,1842
1957,1863
1958,1870
1959,1874
1960,1881
1961,1889
1962,1891
1963,1899
1964,1898
1965,1875
1966,1869
1967,1857
1968,1840
1969,1822
1970,1819
1971,1808
1972,1832
1973,1827
1974,1856
1975,1882
1976,1872
1977,1876
1978,1882
1979,1897
1980,1872
1981,1903
1982,1872
1983,1872
1984,1839
1985,1839
1986,1808
1987,1830
1988,1814
1989,1836
1990,1835
1991,1866
1992,1859
1993,1873
1994,1868
1995,1898
1996,1887
1997,1887
1998,1885
1999,1869
2000,1847
2001,1837
2002,1834
2003,1827
2004,1820
2005,1834
2006,1826
2007,1855
2008,1854
2009,1866
2010,1889
2011,1879
2012,1892
2013,1890
2014,1895
2015,1877
2016,1867
2017,1850
2018,1839
2019,1809
2020,1823
2021,1830
2022,1830
2023,1857
2024,1872
2025,1872
2026,1879
2027,1882
2028,1890
2029,1895
2030,1870
2031,1899
2032,1872
2033,1846
2034,1825
2035,1837
2036,1807
2037,1829
2038,1824
2039,1835
2040,1872
2041,1850
2042,1872
2043,1872
2044,1873
2045,1888
2046,1882
2047,1890
2048,1905
2049,1871
2050,1854
2051,1840
2052,1809
2053,1815
2054,1825
2055,1847
2056,1840
2057,1851
2058,1863
2059,1863
2060,1872
2061,1885
2062,1904
2063,1891
2064,1887
2065,1892
2066,1858
2067,1838
2068,1845
2069,1792
2070,1811
2071,1825
2072,1818
2073,1808
2074,1867
2075,1869
2076,1872
2077,1890
2078,1883
2079,1899
2080,1916
2081,1889
2082,1870
2083,1867
2084,1832
2085,1840
2086,1807
2087,1847
2088,1813
2089,1842
2090,1843
2091,1858
2092,1894
2093,1873
2094,1883
2095,1898
2096,1901
2097,1877
2098,1894
2099,1872
2100,1847
2101,1851
2102,1820
2103,1815
2104,1819
2105,1835
2106,1835
2107,1862
2108,1872
2109,1883
2110,1879
2111,1890
2112,1883
2113,1891
2114,1894
2115,1894
2116,1865
2117,1843
2118,1840
2119,1817
2120,1807
2121,1805
2122,1830
2123,1840
2124,1861
2125,1885
2126,1877
2127,1872
2128,1888
2129,1886
2130,1875
2131,1871
2132,1872
2133,1849
2134,1856
2135,1842
2136,1818
2137,1811
2138,1813
2139,1837
2140,1848
2141,1857
2142,1899
2143,1878
2144,1886
2145,1884
2146,1883
2147,1889
2148,1898
2149,1874
2150,1866
2151,1838
2152,1813
2153,1821
2154,1814
2155,1840
2156,1819
2157,1855
2158,1855
2159,1869
2160,1883
2161,1887
2162,1905
2163,1898
2164,1900
2165,1879
2166,1872
2167,1856
2168,1833
2169,1806
2170,1811
2171,1831
2172,1838
2173,1856
2174,1873
2175,1883
2176,1885
2177,1896
2178,1887
2179,1891
2180,1882
2181,1912
2182,1867
2183,1872
2184,1834
2185,1850
2186,1821
2187,1835
2188,1815
2189,1831
2190,1866
2191,1872
2192,1894
2193,1887
2194,1901
2195,1897
2196,1898
2197,1894
2198,1873
2199,1866
2200,1881
2201,1862
2202,1840
2203,1814
2204,1821
2205,1821
2206,1854
2207,1871
2208,1885
2209,1878
2210,1875
2211,1885
2212,1872
2213,1894
2214,1887
2215,1873
2216,1858
2217,1832
2218,1818
2219,1819
2220,1811
2221,1836
2222,1816
2223,1871
2224,1863
2225,1863
2226,1872
2227,1893
2228,1892
2229,1892
2230,1879
2231,1902
2232,1871
2233,1856
2234,1847
2235,1830
2236,1823
2237,1821
2238,1812
2239,1836
2240,1846
2241,1872
2242,1880
2243,1872
2244,1862
2245,1886
2246,1892
2247,1899
2248,1878
2249,1872
2250,1835
2251,1840
2252,1836
2253,1821
2254,1821
2255,1810
2256,1849
2257,1867
2258,1870
2259,1872
2260,1873
2261,1891
2262,1875
2263,1887
2264,1898
2265,1873
2266,1869
2267,1858
2268,1839
2269,1835
2270,1820
2271,1840
2272,1825
2273,1840
2274,1855
2275,1842
2276,1858
2277,1895
2278,1886
2279,1883
2280,1886
2281,1890
2282,1870
2283,1861
2284,1831
2285,1833
2286,1825
2287,1831
2288,1822
2289,1827
2290,1840
2291,1876
2292,1885
2293,1886
2294,1887
2295,1899
2296,1885
2297,1901
2298,1886
2299,1869
2300,1851
2301,1842
2302,1838
2303,1813
2304,1815
2305,1821
2306,1827
2307,1860
2308,1871
2309,1877
2310,1879
2311,1879
2312,1902
2313,1880
2314,1897
2315,1888
2316,1874
2317,1851
2318,1818
2319,1827
2320,1815
2321,1833
2322,1825
2323,1843
2324,1861
2325,1879
2326,1877
2327,1889
2328,1891
2329,1893
2330,1898
2331,1891
2332,1887
2333,1861
2334,1863
2335,1839
2336,1815
2337,1807
2338,1801
2339,1827
2340,1840
2341,1865
2342,1856
2343,1874
2344,1874
2345,1895
2346,1902
2347,1904
2348,1895
2349,1871
2350,1856
2351,1840
2352,1850
2353,1821
2354,1815
2355,1834
2356,1831
2357,1862
2358,1879
2359,1872
2360,1885
2361,1898
2362,1904
2363,1890
2364,1888
2365,1861
2366,1858
2367,1841
2368,1823
2369,1823
2370,1821
2371,1823
2372,1840
2373,1853
2374,1855
2375,1871
2376,1876
2377,1855
2378,1889
2379,1894
2380,1889
2381,1920
2382,1890
2383,1851
2384,1844
2385,1843
2386,1822
2387,1830
2388,1824
2389,1836
2390,1859
2391,1854
2392,1887
2393,1873
2394,1874
2395,1887
2396,1883
2397,1895
2398,1886
2399,1872
2400,1871
2401,1870
2402,1808
2403,1821
2404,1823
2405,1813
2406,1838
2407,1856
2408,1881
2409,1855
2410,1879
2411,1894
2412,1891
2413,1886
2414,1900
2415,1882
2416,1867
2417,1837
2418,1829
2419,1815
2420,1798
2421,1808
2422,1829
2423,1837
2424,1846
2425,1871
2426,1861
2427,1892
2428,1888
2429,1883
2430,1872
2431,1888
2432,1897
2433,1877
2434,1870
2435,1840
2436,1834
2437,1803
2438,1840
2439,1829
2440,1865
2441,1867
2442,1870
2443,1871
2444,1883
2445,1898
2446,1902
2447,1915
2448,1903
2449,1879
2450,1867
2451,1858
2452,1841
2453,1826
2454,1819
2455,1811
2456,1826
2457,1859
2458,1856
2459,1887
2460,1883
2461,1881
2462,1895
2463,1905
2464,1896
2465,1893
2466,1863
2467,1846
2468,1840
2469,1825
2470,1826
2471,1821
2472,1827
2473,1850
2474,1853
2475,1872
2476,1872
2477,1895
2478,1886
2479,1887
2480,1885
2481,1125
2482,1345
2483,2009
2484,2235
2485,2288
2486,2251
2487,2240
2488,2191
2489,2064
2490,1933
2491,1748
2492,1648
2493,1648
2494,1727
2495,1815
2496,1932
2497,2062
2498,2110
2499,2124
2500,2112
2501,2043
2502,1911
2503,1826
2504,1716
2505,1649
2506,1610
2507,1600
2508,1637
2509,1687
2510,1725
2511,1753
2512,1744
2513,1168
2514,1937
2515,2202
2516,2288
2517,2253
2518,2227
2519,2160
2520,1991
2521,1820
2522,1635
2523,1626
2524,1680
2525,1792
2526,1919
2527,2038
2528,2130
2529,2180
2530,2169
2531,2141
2532,2011
2533,1858
2534,1731
2535,1618
2536,1554
2537,1535
2538,1600
2539,1653
2540,1729
2541,1781
2542,1851
2543,1874
2544,1045
2545,1931
2546,2267
2547,2447
2548,2400
2549,2305
2550,2175
2551,1989
2552,1740
2553,1603
2554,1606
2555,1660
2556,1783
2557,1926
2558,2080
2559,2176
2560,2192
2561,2193
2562,2123
2563,1984
2564,1840
2565,1695
2566,1585
2567,1524
2568,1531
2569,1595
2570,1652
2571,1712
2572,1773
2573,1805
2574,1850
2575,934
2576,1888
2577,2268
2578,2416
2579,2416
2580,2338
2581,2225
2582,1973
2583,1710
2584,1642
2585,1600
2586,1690
2587,1802
2588,1906
2589,2026
2590,2114
2591,2137
2592,2145
2593,2047
2594,1932
2595,1811
2596,1682
2597,1589
2598,1615
2599,1647
2600,1698
2601,1725
2602,1760
2603,1776
2604,1803
2605,1808
2606,768
2607,1820
2608,2191
2609,2397
2610,2397
2611,2310
2612,2171
2613,1839
2614,1689
2615,1668
2616,1636
2617,1735
2618,1872
2619,1962
2620,2037
2621,2110
2622,2160
2623,2128
2624,2059
2625,1921
2626,1787
2627,1687
2628,1595
2629,1616
2630,1673
2631,1707
2632,1738
2633,1791
2634,1793
2635,1830
2636,1838
2637,530
2638,1724
2639,2131
2640,2386
2641,2354
2642,2274
2643,2106
2644,1793
2645,1685
2646,1679
2647,1712
2648,1857
2649,1922
2650,1977
2651,2086
2652,2103
2653,2134
2654,2082
2655,2013
2656,1887
2657,1745
2658,1644
2659,1607
2660,1638
2661,1689
2662,1729
2663,1789
2664,1811
2665,1825
2666,1855
2667,1871
2668,321
2669,1744
2670,2087
2671,2320
2672,2294
2673,2244
2674,2059
2675,1713
2676,1679
2677,1678
2678,1712
2679,1833
2680,1953
2681,2062
2682,2143
2683,2178
2684,2157
2685,2113
2686,1989
2687,1840
2688,1703
2689,1569
2690,1521
2691,1570
2692,1645
2693,1699
2694,1747
2695,1806
2696,1851
2697,1877
2698,1892
2699,144
2700,1744
2701,2079
2702,2335
2703,2328
2704,2248
2705,2023
2706,1674
2707,1701
2708,1671
2709,1712
2710,1840
2711,1999
2712,2074
2713,2138
2714,2160
2715,2159
2716,2098
2717,1998
2718,1846
2719,1697
2720,1562
2721,1515
2722,1569
2723,1610
2724,1712
2725,1759
2726,1808
2727,1862
2728,1901
2729,1934
2730,209
2731,1641
2732,2118
2733,2386
2734,2385
2735,2271
2736,2039
2737,1680
2738,1664
2739,1601
2740,1632
2741,1792
2742,1968
2743,2064
2744,2128
2745,2191
2746,2198
2747,2127
2748,2032
2749,1842
2750,1711
2751,1579
2752,1511
2753,1535
2754,1599
2755,1678
2756,1730
2757,1783
2758,1840
2759,1863
2760,1891
2761,928
2762,1506
2763,2064
2764,2378
2765,2471
2766,2334
2767,2112
2768,1741
2769,1695
2770,1664
2771,1662
2772,1795
2773,1939
2774,2044
2775,2128
2776,2178
2777,2188
2778,2141
2779,2020
2780,1856
2781,1727
2782,1602
2783,1535
2784,1583
2785,1629
2786,1645
2787,1702
2788,1766
2789,1818
2790,1866
2791,1872
2792,1727
2793,1412
2794,2018
2795,2354
2796,2437
2797,2385
2798,2217
2799,1792
2800,1731
2801,1676
2802,1667
2803,1775
2804,1918
2805,2000
2806,2069
2807,2142
2808,2160
2809,2129
2810,1986
2811,1854
2812,1711
2813,1640
2814,1586
2815,1623
2816,1647
2817,1698
2818,1745
2819,1776
2820,1792
2821,1825
2822,1827
2823,1886
2824,1280
2825,1985
2826,2347
2827,2446
2828,2359
2829,2172
2830,1803
2831,1765
2832,1730
2833,1715
2834,1832
2835,1920
2836,2000
2837,2064
2838,2100
2839,2128
2840,2090
2841,1989
2842,1833
2843,1695
2844,1603
2845,1590
2846,1625
2847,1670
2848,1738
2849,1786
2850,1823
2851,1841
2852,1840
2853,1838
2854,1841
2855,1072
2856,1889
2857,2239
2858,2416
2859,2368
2860,2201
2861,1808
2862,1747
2863,1754
2864,1723
2865,1856
2866,1954
2867,2032
2868,2090
2869,2118
2870,2114
2871,2064
2872,1951
2873,1818
2874,1689
2875,1597
2876,1573
2877,1607
2878,1693
2879,1738
2880,1806
2881,1854
2882,1857
2883,1856
2884,1863
2885,1882
2886,1084
2887,1844
2888,2187
2889,2370
2890,2320
2891,2176
2892,1809
2893,1763
2894,1772
2895,1726
2896,1851
2897,1972
2898,2077
2899,2119
2900,2170
2901,2149
2902,2079
2903,1936
2904,1791
2905,1654
2906,1535
2907,1535
2908,1589
2909,1655
2910,1717
2911,1766
2912,1840
2913,1879
2914,1894
2915,1921
2916,1904
2917,921
2918,1872
2919,2183
2920,2347
2921,2299
2922,2191
2923,1821
2924,1701
2925,1734
2926,1706
2927,1801
2928,1953
2929,2032
2930,2128
2931,2160
2932,2149
2933,2103
2934,1982
2935,1825
2936,1683
2937,1586
2938,1558
2939,1559
2940,1667
2941,1717
2942,1769
2943,1818
2944,1845
2945,1892
2946,1899
2947,1902
2948,539
2949,1790
2950,2176
2951,2369
2952,2334
2953,2224
2954,1842
2955,1664
2956,1722
2957,1682
2958,1789
2959,1935
2960,2032
2961,2102
2962,2126
2963,2134
2964,2096
2965,2027
2966,1872
2967,1727
2968,1629
2969,1535
2970,1563
2971,1616
2972,1681
2973,1723
2974,1798
2975,1844
2976,1867
2977,1883
2978,1906
2979,103
2980,1766
2981,2176
2982,2416
2983,2367
2984,2283
2985,1925
2986,1655
2987,1709
2988,1663
2989,1762
2990,1904
2991,2032
2992,2111
2993,2181
2994,2176
2995,2140
2996,2041
2997,1895
2998,1750
2999,1648
3000,1591
3001,1578
3002,1616
3003,1655
3004,1712
3005,1770
3006,1805
3007,1838
3008,1855
3009,1855
3010,0
3011,1679
3012,2116
3013,2365
3014,2395
3015,2316
3016,1970
3017,1691
3018,1742
3019,1643
3020,1709
3021,1856
3022,1975
3023,2045
3024,2128
3025,2139
3026,2149
3027,2039
3028,1920
3029,1750
3030,1645
3031,1595
3032,1586
3033,1631
3034,1678
3035,1727
3036,1774
3037,1789
3038,1825
3039,1859
3040,1865
3041,389
3042,1581
3043,2093
3044,2395
3045,2391
3046,2311
3047,2047
3048,1706
3049,1774
3050,1722
3051,1753
3052,1857
3053,1968
3054,2042
3055,2071
3056,2110
3057,2119
3058,2032
3059,1937
3060,1786
3061,1676
3062,1601
3063,1606
3064,1666
3065,1711
3066,1762
3067,1787
3068,1802
3069,1804
3070,1824
3071,1844
3072,1193
3073,1525
3074,2018
3075,2335
3076,2428
3077,2331
3078,2093
3079,1733
3080,1797
3081,1747
3082,1719
3083,1879
3084,1983
3085,2057
3086,2083
3087,2096
3088,2079
3089,2013
3090,1918
3091,1778
3092,1639
3093,1561
3094,1620
3095,1654
3096,1714
3097,1793
3098,1819
3099,1824
3100,1859
3101,1845
3102,1850
3103,1857
3104,1865
3105,1881
3106,1893
3107,1905
3108,1894
3109,1888
3110,1906
3111,1905
3112,1930
3113,1919
3114,1911
3115,1909
3116,1878
3117,1885
3118,1873
3119,1841
3120,1823
3121,1827
3122,1840
3123,1856
3124,1870
3125,1855
3126,1872
3127,1898
3128,1885
3129,1872
3130,1887
3131,1872
3132,1872
3133,1873
3134,1858
3135,1840
3136,1823
3137,1819
3138,1829
3139,1839
3140,1856
3141,1874
3142,1868
3143,1867
3144,1882
3145,1873
3146,1881
3147,1877
3148,1879
3149,1863
3150,1829
3151,1843
3152,1830
3153,1811
3154,1809
3155,1811
3156,1819
3157,1831
3158,1866
3159,1870
3160,1874
3161,1883
3162,1879
3163,1887
3164,1872
3165,1873
3166,1872
3167,1872
3168,1857
3169,1841
3170,1819
3171,1824
3172,1850
3173,1843
3174,1855
3175,1846
3176,1878
3177,1867
3178,1879
3179,1894
3180,1888
3181,1906
3182,1885
3183,1873
3184,1851
3185,1841
3186,1825
3187,1814
3188,1826
3189,1813
3190,1817
3191,1858
3192,1870
3193,1879
3194,1865
3195,1885
3196,1897
3197,1900
3198,1903
3199,1879
3200,1877
3201,1850
3202,1831
3203,1808
3204,1804
3205,1814
3206,1829
3207,1850
3208,1872
3209,1881
3210,1863
3211,1883
3212,1884
3213,1903
3214,1939
3215,1898
3216,1884
3217,1867
3218,1846
3219,1835
3220,1815
3221,1825
3222,1808
3223,1847
3224,1862
3225,1889
3226,1885
3227,1886
3228,1887
3229,1898
3230,1891
3231,1890
3232,1858
3233,1867
3234,1847
3235,1840
3236,1809
3237,1807
3238,1815
3239,1829
3240,1840
3241,1847
3242,1851
3243,1859
3244,1889
3245,1894
3246,1890
3247,1904
3248,1885
3249,1876
3250,1859
3251,1843
3252,1846
3253,1814
3254,1825
3255,1811
3256,1840
3257,1845
3258,1879
3259,1866
3260,1877
3261,1893
3262,1882
3263,1898
3264,1913
3265,1890
3266,1879
3267,1843
3268,1844
3269,1828
3270,1823
3271,1827
3272,1840
3273,1843
3274,1851
3275,1847
3276,1867
3277,1875
3278,1902
3279,1885
3280,1897
3281,1904
3282,1901
3283,1869
3284,1839
3285,1840
3286,1833
3287,1815
3288,1822
3289,1835
3290,1835
3291,1875
3292,1873
3293,1877
3294,1883
3295,1878
3296,1890
3297,1884
3298,1892
3299,1867
3300,1855
3301,1842
3302,1840
3303,1818
3304,1824
3305,1826
3306,1835
3307,1831
3308,1873
3309,1851
3310,1870
3311,1890
3312,1890
3313,1899
3314,1875
3315,1911
3316,1877
3317,1866
3318,1867
3319,1840
3320,1808
3321,1812
3322,1803
3323,1840
3324,1843
3325,1872
3326,1879
3327,1863
3328,1898
3329,1896
3330,1884
3331,1897
3332,1871
3333,1872
3334,1858
3335,1843
3336,1837
3337,1826
3338,1828
3339,1783
3340,1850
3341,1873
3342,1877
3343,1872
3344,1872
3345,1889
3346,1881
3347,1883
3348,1898
3349,1851
3350,1862
3351,1872
3352,1840
3353,1808
3354,1810
3355,1819
3356,1835
3357,1847
3358,1855
3359,1854
3360,1872
3361,1875
3362,1894
3363,1889
3364,1917
3365,1900
3366,1872
3367,1841
3368,1857
3369,1839
3370,1811
3371,1827
3372,1812
3373,1845
3374,1863
3375,1887
3376,1881
3377,1885
3378,1895
3379,1895
3380,1896
3381,1894
3382,1877
3383,1872
3384,1845
3385,1843
3386,1810
3387,1815
3388,1819
3389,1799
3390,1841
3391,1871
3392,1870
3393,1871
3394,1872
3395,1880
3396,1887
3397,1870
3398,1881
3399,1898
3400,1875
3401,1827
3402,1838
3403,1814
3404,1808
3405,1822
3406,1826
3407,1877
3408,1863
3409,1867
3410,1872
3411,1889
3412,1891
3413,1891
3414,1897
3415,1889
3416,1875
3417,1854
3418,1859
3419,1842
3420,1818
3421,1826
3422,1810
3423,1826
3424,1854
3425,1885
3426,1872
3427,1902
3428,1890
3429,1886
3430,1891
3431,1904
3432,1879
3433,1874
3434,1886
3435,1855
3436,1818
3437,1821
3438,1819
3439,1833
3440,1847
3441,1860
3442,1891
3443,1871
3444,1880
3445,1872
3446,1873
3447,1886
3448,1887
3449,1897
3450,1847
3451,1872
3452,1847
3453,1821
3454,1808
3455,1825
3456,1836
3457,1840
3458,1860
3459,1861
3460,1864
3461,1872
3462,1883
3463,1894
3464,1887
3465,1902
3466,1875
3467,1856
3468,1872
3469,1819
3470,1809
3471,1809
3472,1826
3473,1823
3474,1856
3475,1854
3476,1858
3477,1872
3478,1878
3479,1902
3480,1878
3481,1904
3482,1883
3483,1871
3484,1872
3485,1841
3486,1815
3487,1822
3488,1822
3489,1830
3490,1842
3491,1865
3492,1872
3493,1899
3494,1890
3495,1891
3496,1902
3497,1903
3498,1899
3499,1898
3500,1859
3501,1841
3502,1841
3503,1815
3504,1812
3505,1815
3506,1835
3507,1827
3508,1859
3509,1875
3510,1878
3511,1872
3512,1891
3513,1895
3514,1875
3515,1903
3516,1881
3517,1857
3518,1852
3519,1823
3520,1808
3521,1807
3522,1834
3523,1823
3524,1840
3525,1858
3526,1878
3527,1871
3528,1877
3529,1888
3530,1893
3531,1901
3532,1872
3533,1866
3534,1839
3535,1840
3536,1814
3537,1819
3538,1815
3539,1828
3540,1819
3541,1855
3542,1862
3543,1853
3544,1881
3545,1893
3546,1879
3547,1897
3548,1885
3549,1872
3550,1869
3551,1852
3552,1837
3553,1834
3554,1821
3555,1809
3556,1826
3557,1859
3558,1856
3559,1872
3560,1873
3561,1888
3562,1894
3563,1897
3564,1877
3565,1893
3566,1882
3567,1855
3568,1841
3569,1824
3570,1804
3571,1795
3572,1808
3573,1838
3574,1840
3575,1875
3576,1879
3577,1882
3578,1901
3579,1883
3580,1878
3581,1907
3582,1894
3583,1874
3584,1834
3585,1817
3586,1811
3587,1819
3588,1823
3589,1853
3590,1837
3591,1865
3592,1872
3593,1879
3594,1872
3595,1878
3596,1871
3597,1877
3598,1885
3599,1891
3600,1857
3601,1840
3602,1852
3603,1827
3604,1819
3605,1839
3606,1824
3607,1840
3608,1855
3609,1901
3610,1890
3611,1883
3612,1891
3613,1892
3614,1905
3615,1894
3616,1889
3617,1854
3618,1856
3619,1830
3620,1806
3621,1828
3622,1829
3623,1831
3624,1842
3625,1861
3626,1866
3627,1869
3628,1891
3629,1888
3630,1881
3631,1886
3632,1908
3633,1873
3634,1847
3635,1840
3636,1825
3637,1822
3638,1823
3639,1816
3640,1845
3641,1856
3642,1861
3643,1883
3644,1874
3645,1883
3646,1891
3647,1903
3648,1895
3649,1895
3650,1866
3651,1858
3652,1858
3653,1839
3654,1828
3655,1808
3656,1809
3657,1826
3658,1846
3659,1866
3660,1871
3661,1872
3662,1896
3663,1894
3664,1904
3665,1899
3666,1872
3667,1865
3668,1843
3669,1838
3670,1839
3671,1830
3672,1838
3673,1827
3674,1846
3675,1863
3676,1869
3677,1867
3678,1892
3679,1883
3680,1905
3681,1893
3682,1904
3683,1873
3684,1849
3685,1854
3686,1818
3687,1814
3688,1813
3689,1850
3690,1839
3691,1862
3692,1874
3693,1875
3694,1883
3695,1890
3696,1887
3697,1887
3698,1902
3699,1889
3700,1866
3701,1856
3702,1843
3703,1819
3704,1815
3705,1805
3706,1828
3707,1843
3708,1862
3709,1882
3710,1872
3711,1888
3712,1887
3713,1890
3714,1888
3715,1877
3716,1869
3717,1874
3718,1847
3719,1840
3720,1809
3721,1808
3722,1840
3723,1826
3724,1852
3725,1870
3726,1878
3727,1883
3728,1902
3729,1887
3730,1903
3731,1894
3732,1884
3733,1863
3734,1849
3735,1840
3736,1827
3737,1822
3738,1823
3739,1840
3740,1825
3741,1855
3742,1854
3743,1879
3744,1872
3745,1886
3746,1895
3747,1890
3748,1890
3749,1872
3750,1872
3751,1847
3752,1839
3753,1817
3754,1814
3755,1818
3756,1828
3757,1827
3758,1867
3759,1859
3760,1878
3761,1891
3762,1887
3763,1896
3764,1909
3765,1905
3766,1866
3767,1866
3768,1854
3769,1836
3770,1814
3771,1807
3772,1822
3773,1838
3774,1870
3775,1852
3776,1869
3777,1868
3778,1883
3779,1882
3780,1903
3781,1895
3782,1910
3783,1871
3784,1859
3785,1842
3786,1808
3787,1819
3788,1823
3789,1822
3790,1828
3791,1842
3792,1872
3793,1866
3794,1877
3795,1886
3796,1902
3797,1895
3798,1907
3799,1860
3800,1867
3801,1830
3802,1836
3803,1808
3804,1808
3805,1808
3806,1821
3807,1840
3808,1859
3809,1892
3810,1901
3811,1871
3812,1887
3813,1889
3814,1906
3815,1909
3816,1883
3817,1865
3818,1824
3819,1840
3820,1815
3821,1809
3822,1821
3823,1840
3824,1859
3825,1858
3826,1872
3827,1882
3828,1889
3829,1900
3830,1895
3831,1897
3832,1902
3833,1872
3834,1845
3835,1840
3836,1819
3837,1811
3838,1814
3839,1831
3840,1829
3841,1840
3842,1867
3843,1873
3844,1902
3845,1879
3846,1872
3847,1887
3848,1883
3849,1877
3850,1872
3851,1846
3852,1844
3853,1827
3854,1810
3855,1818
3856,1840
3857,1831
3858,1857
3859,1863
3860,1856
3861,1889
3862,1882
3863,1893
3864,1883
3865,1898
3866,1866
3867,1866
3868,1856
3869,1841
3870,1821
3871,1840
3872,1814
3873,1819
3874,1851
3875,1860
3876,1861
3877,1886
3878,1889
3879,1899
3880,1889
3881,1899
3882,1886
3883,1881
3884,1870
3885,1839
3886,1844
3887,1819
3888,1822
3889,1815
3890,1831
3891,1852
3892,1866
3893,1883
3894,1877
3895,1890
3896,1879
3897,1902
3898,1884
3899,1871
3900,1871
3901,1841
3902,1840
3903,1823
3904,1813
3905,1819
3906,1845
3907,1837
3908,1861
3909,1843
3910,1855
3911,1883
3912,1898
3913,1891
3914,1883
3915,1887
3916,1894
3917,1875
3918,1845
3919,1830
3920,1803
3921,1826
3922,1812
3923,1823
3924,1859
3925,1866
3926,1855
3927,1865
3928,1872
3929,1888
3930,1884
3931,1851
3932,1893
3933,1873
3934,1862
3935,1859
3936,1821
3937,1822
3938,1822
3939,1840
3940,1839
3941,1849
3942,1879
3943,1884
3944,1891
3945,1900
3946,1892
3947,1904
3948,1891
3949,1897
3950,1872
3951,1840
3952,1845
3953,1828
3954,1810
3955,1811
3956,1817
3957,1837
3958,1839
3959,1863
3960,1872
3961,1883
3962,1888
3963,1893
3964,1894
3965,1895
3966,1882
3967,1886
3968,1847
3969,1840
3970,1808
3971,1808
3972,1831
3973,1818
3974,1866
3975,1872
3976,1853
3977,1877
3978,1879
3979,1889
3980,1892
3981,1902
3982,1899
3983,1866
3984,1847
3985,1839
3986,1836
3987,1814
3988,1815
3989,1809
3990,1851
3991,1859
3992,1859
3993,1865
3994,1887
3995,1883
3996,1903
3997,1898
3998,1904
3999,1887
4000,1872
4001,1847
4002,1840
4003,1828
4004,1821
4005,1814
4006,1788
4007,1826
4008,1845
4009,1872
4010,1866
4011,1856
4012,1879
4013,1899
4014,1872
4015,1886
4016,1895
4017,1866
4018,1858
4019,1842
4020,1822
4021,1826
4022,1807
4023,1820
4024,1871
4025,1867
4026,1864
4027,1872
4028,1881
4029,1892
4030,1898
4031,1883
4032,1892
4033,1871
4034,1856
4035,1825
4036,1808
4037,1814
4038,1827
4039,1840
4040,1844
4041,1854
4042,1907
4043,1882
4044,1866
4045,1888
4046,1883
4047,1875
4048,1867
4049,1861
4050,1867
4051,1859
4052,1837
4053,1824
4054,1813
4055,1823
4056,1862
4057,1843
4058,1861
4059,1856
4060,1862
4061,1872
4062,1885
4063,1898
4064,1902
4065,1895
4066,1890
4067,1867
4068,1845
4069,1854
4070,1840
4071,1829
4072,1840
4073,1842
4074,1861
4075,1852
4076,1858
4077,1866
4078,1891
4079,1889
4080,1897
4081,1923
4082,1897
4083,1887
4084,1872
4085,1845
4086,1809
4087,1805
4088,1809
4089,1810
4090,1823
4091,1874
4092,1877
4093,1857
4094,1857
4095,1875
4096,1893
4097,1885
4098,1574
4099,1263
4100,1999
4101,2177
4102,2196
4103,2220
4104,2215
4105,2218
4106,2128
4107,2042
4108,1952
4109,1789
4110,1628
4111,1641
4112,1745
4113,1855
4114,1973
4115,2038
4116,2085
4117,2073
4118,1991
4119,1913
4120,1829
4121,1739
4122,1673
4123,1622
4124,1631
4125,1626
4126,1681
4127,1737
4128,1783
4129,1808
4130,1137
4131,1952
4132,2208
4133,2315
4134,2293
4135,2278
4136,2220
4137,2064
4138,1941
4139,1756
4140,1586
4141,1585
4142,1706
4143,1813
4144,1915
4145,2000
4146,2093
4147,2113
4148,2047
4149,1995
4150,1873
4151,1776
4152,1648
4153,1616
4154,1617
4155,1661
4156,1710
4157,1743
4158,1802
4159,1847
4160,1876
4161,1119
4162,1963
4163,2273
4164,2465
4165,2477
4166,2397
4167,2250
4168,2061
4169,1821
4170,1533
4171,1466
4172,1566
4173,1680
4174,1859
4175,1979
4176,2077
4177,2118
4178,2126
4179,2064
4180,1966
4181,1867
4182,1738
4183,1643
4184,1616
4185,1633
4186,1670
4187,1703
4188,1762
4189,1776
4190,1815
4191,1844
4192,890
4193,1867
4194,2237
4195,2399
4196,2448
4197,2369
4198,2225
4199,2099
4200,1789
4201,1568
4202,1535
4203,1598
4204,1707
4205,1856
4206,1999
4207,2084
4208,2155
4209,2131
4210,2071
4211,1967
4212,1840
4213,1680
4214,1605
4215,1618
4216,1664
4217,1697
4218,1758
4219,1776
4220,1789
4221,1814
4222,1869
4223,884
4224,1872
4225,2245
4226,2433
4227,2422
4228,2320
4229,2174
4230,1946
4231,1670
4232,1616
4233,1617
4234,1712
4235,1797
4236,1922
4237,1969
4238,2046
4239,2091
4240,2078
4241,2017
4242,1934
4243,1799
4244,1680
4245,1616
4246,1623
4247,1681
4248,1733
4249,1792
4250,1823
4251,1822
4252,1842
4253,1856
4254,610
4255,1755
4256,2141
4257,2359
4258,2397
4259,2330
4260,2129
4261,1905
4262,1703
4263,1680
4264,1647
4265,1738
4266,1866
4267,1984
4268,2047
4269,2066
4270,2094
4271,2063
4272,1988
4273,1872
4274,1779
4275,1680
4276,1647
4277,1642
4278,1685
4279,1707
4280,1757
4281,1813
4282,1845
4283,1860
4284,1857
4285,233
4286,1726
4287,2071
4288,2290
4289,2335
4290,2249
4291,2096
4292,1881
4293,1773
4294,1710
4295,1709
4296,1781
4297,1904
4298,1990
4299,2085
4300,2096
4301,2113
4302,2058
4303,1981
4304,1857
4305,1739
4306,1638
4307,1584
4308,1611
4309,1663
4310,1741
4311,1776
4312,1836
4313,1856
4314,1872
4315,1902
4316,144
4317,1713
4318,2100
4319,2299
4320,2321
4321,2254
4322,2074
4323,1878
4324,1739
4325,1697
4326,1642
4327,1745
4328,1904
4329,1995
4330,2070
4331,2116
4332,2119
4333,2071
4334,1977
4335,1845
4336,1728
4337,1632
4338,1583
4339,1585
4340,1641
4341,1729
4342,1782
4343,1840
4344,1853
4345,1898
4346,1896
4347,0
4348,1655
4349,2091
4350,2358
4351,2458
4352,2359
4353,2175
4354,1859
4355,1673
4356,1584
4357,1573
4358,1719
4359,1875
4360,2014
4361,2074
4362,2135
4363,2151
4364,2091
4365,2030
4366,1872
4367,1756
4368,1632
4369,1563
4370,1590
4371,1603
4372,1679
4373,1721
4374,1808
4375,1826
4376,1875
4377,1905
4378,496
4379,1571
4380,2094
4381,2351
4382,2467
4383,2327
4384,2161
4385,1868
4386,1733
4387,1653
4388,1571
4389,1689
4390,1866
4391,1982
4392,2077
4393,2112
4394,2106
4395,2066
4396,2006
4397,1881
4398,1765
4399,1691
4400,1621
4401,1616
4402,1658
4403,1680
4404,1728
4405,1765
4406,1818
4407,1841
4408,1873
4409,1409
4410,1443
4411,2033
4412,2353
4413,2446
4414,2374
4415,2209
4416,1919
4417,1744
4418,1667
4419,1598
4420,1712
4421,1875
4422,1983
4423,2047
4424,2102
4425,2129
4426,2066
4427,1985
4428,1867
4429,1744
4430,1661
4431,1606
4432,1645
4433,1686
4434,1732
4435,1741
4436,1785
4437,1797
4438,1840
4439,1847
4440,1854
4441,1279
4442,1962
4443,2321
4444,2434
4445,2386
4446,2240
4447,1956
4448,1769
4449,1746
4450,1647
4451,1756
4452,1893
4453,1939
4454,2013
4455,2062
4456,2080
4457,2055
4458,1979
4459,1869
4460,1744
4461,1659
4462,1625
4463,1649
4464,1687
4465,1756
4466,1793
4467,1797
4468,1840
4469,1853
4470,1841
4471,1839
4472,1242
4473,1932
4474,2250
4475,2398
4476,2319
4477,2203
4478,1941
4479,1808
4480,1762
4481,1686
4482,1776
4483,1922
4484,1990
4485,2033
4486,2082
4487,2073
4488,2045
4489,1953
4490,1839
4491,1707
4492,1635
4493,1603
4494,1616
4495,1682
4496,1743
4497,1789
4498,1837
4499,1869
4500,1869
4501,1883
4502,1893
4503,1183
4504,1886
4505,2193
4506,2344
4507,2352
4508,2233
4509,1915
4510,1713
4511,1722
4512,1648
4513,1739
4514,1907
4515,2031
4516,2094
4517,2101
4518,2101
4519,2080
4520,1963
4521,1847
4522,1701
4523,1609
4524,1555
4525,1600
4526,1627
4527,1710
4528,1779
4529,1828
4530,1871
4531,1899
4532,1894
4533,1917
4534,865
4535,1854
4536,2158
4537,2352
4538,2279
4539,2192
4540,1883
4541,1719
4542,1770
4543,1679
4544,1782
4545,1938
4546,2027
4547,2109
4548,2128
4549,2157
4550,2102
4551,1985
4552,1863
4553,1706
4554,1588
4555,1535
4556,1569
4557,1614
4558,1701
4559,1765
4560,1811
4561,1870
4562,1898
4563,1904
4564,1905
4565,735
4566,1849
4567,2164
4568,2328
4569,2349
4570,2230
4571,1958
4572,1742
4573,1722
4574,1651
4575,1717
4576,1887
4577,1985
4578,2075
4579,2128
4580,2151
4581,2128
4582,2033
4583,1894
4584,1745
4585,1601
4586,1554
4587,1535
4588,1598
4589,1668
4590,1726
4591,1802
4592,1865
4593,1871
4594,1920
4595,1919
4596,320
4597,1794
4598,2166
4599,2410
4600,2373
4601,2259
4602,1996
4603,1728
4604,1732
4605,1626
4606,1691
4607,1855
4608,1975
4609,2055
4610,2106
4611,2138
4612,2129
4613,2061
4614,1929
4615,1808
4616,1688
4617,1601
4618,1597
4619,1609
4620,1647
4621,1707
4622,1749
4623,1829
4624,1839
4625,1872
4626,1913
4627,0
4628,1709
4629,2139
4630,2395
4631,2416
4632,2333
4633,2103
4634,1770
4635,1746
4636,1645
4637,1648
4638,1803
4639,1917
4640,2001
4641,2087
4642,2144
4643,2133
4644,2038
4645,1925
4646,1808
4647,1693
4648,1583
4649,1613
4650,1616
4651,1670
4652,1730
4653,1744
4654,1762
4655,1798
4656,1819
4657,1861
4658,48
4659,1623
4660,2089
4661,2358
4662,2418
4663,2327
4664,2128
4665,1791
4666,1812
4667,1692
4668,1713
4669,1876
4670,1968
4671,2013
4672,2075
4673,2123
4674,2082
4675,2003
4676,1889
4677,1759
4678,1673
4679,1622
4680,1637
4681,1675
4682,1712
4683,1758
4684,1777
4685,1821
4686,1838
4687,1830
4688,1843
4689,1137
4690,1435
4691,2013
4692,2316
4693,2396
4694,2317
4695,2153
4696,1849
4697,1840
4698,1760
4699,1709
4700,1833
4701,1934
4702,2022
4703,2077
4704,2071
4705,2060
4706,1994
4707,1883
4708,1786
4709,1696
4710,1621
4711,1616
4712,1659
4713,1728
4714,1773
4715,1819
4716,1849
4717,1861
4718,1893
4719,1874
4720,1871
4721,1885
4722,1883
4723,1840
4724,1872
4725,1881
4726,1873
4727,1886
4728,1889
4729,1903
4730,1909
4731,1926
4732,1910
4733,1909
4734,1872
4735,1857
4736,1828
4737,1802
4738,1813
4739,1818
4740,1817
4741,1840
4742,1867
4743,1887
4744,1899
4745,1905
4746,1909
4747,1910
4748,1936
4749,1904
4750,1861
4751,1843
4752,1829
4753,1808
4754,1802
4755,1822
4756,1841
4757,1856
4758,1859
4759,1875
4760,1867
4761,1885
4762,1895
4763,1900
4764,1895
4765,1895
4766,1874
4767,1843
4768,1830
4769,1839
4770,1817
4771,1815
4772,1823
4773,1857
4774,1840
4775,1863
4776,1845
4777,1875
4778,1882
4779,1891
4780,1883
4781,1883
4782,1901
4783,1870
4784,1859
4785,1848
4786,1836
4787,1834
4788,1823
4789,1838
4790,1839
4791,1854
4792,1868
4793,1867
4794,1885
4795,1882
4796,1886
4797,1886
4798,1894
4799,1885
4800,1872
4801,1861
4802,1852
4803,1821
4804,1812
4805,1835
4806,1821
4807,1840
4808,1840
4809,1858
4810,1856
4811,1865
4812,1903
4813,1904
4814,1901
4815,1895
4816,1873
4817,1869
4818,1862
4819,1837
4820,1825
4821,1817
4822,1815
4823,1811
4824,1837
4825,1859
4826,1854
4827,1866
4828,1868
4829,1891
4830,1877
4831,1872
4832,1879
4833,1898
4834,1867
4835,1857
4836,1843
4837,1821
4838,1834
4839,1827
4840,1822
4841,1849
4842,1862
4843,1866
4844,1861
4845,1895
4846,1899
4847,1900
4848,1909
4849,1889
4850,1870
4851,1853
4852,1834
4853,1840
4854,1801
4855,1808
4856,1824
4857,1824
4858,1858
4859,1872
4860,1869
4861,1870
4862,1877
4863,1898
4864,1885
4865,1903
4866,1883
4867,1882
4868,1850
4869,1853
4870,1830
4871,1827
4872,1828
4873,1843
4874,1827
4875,1858
4876,1870
4877,1878
4878,1867
4879,1882
4880,1887
4881,1898
4882,1897
4883,1871
4884,1858
4885,1847
4886,1840
4887,1830
4888,1831
4889,1852
4890,1841
4891,1858
4892,1863
4893,1867
4894,1855
4895,1858
4896,1881
4897,1893
4898,1872
4899,1904
4900,1870
4901,1872
4902,1859
4903,1839
4904,1811
4905,1841
4906,1830
4907,1838
4908,1857
4909,1872
4910,1881
4911,1891
4912,1879
4913,1899
4914,1878
4915,1904
4916,1909
4917,1872
4918,1844
4919,1856
4920,1822
4921,1819
4922,1827
4923,1840
4924,1815
4925,1856
4926,1878
4927,1893
4928,1871
4929,1878
4930,1899
4931,1898
4932,1902
4933,1861
4934,1870
4935,1871
4936,1831
4937,1799
4938,1817
4939,1835
4940,1836
4941,1855
4942,1868
4943,1866
4944,1886
4945,1861
4946,1879
4947,1885
4948,1903
4949,1904
4950,1881
4951,1872
4952,1858
4953,1836
4954,1814
4955,1835
4956,1808
4957,1833
4958,1847
4959,1865
4960,1865
4961,1885
4962,1898
4963,1894
4964,1901
4965,1901
4966,1892
4967,1883
4968,1856
4969,1847
4970,1827
4971,1817
4972,1823
4973,1822
4974,1840
4975,1853
4976,1881
4977,1851
4978,1872
4979,1879
4980,1867
4981,1903
4982,1904
4983,1873
4984,1871
4985,1871
4986,1859
4987,1849
4988,1823
4989,1840
4990,1819
4991,1829
4992,1869
4993,1857
4994,1863
4995,1868
4996,1890
4997,1894
4998,1907
4999,1890
5000,1868
5001,1856
5002,1861
5003,1831
5004,1817
5005,1829
5006,1823
5007,1813
5008,1856
5009,1860
5010,1882
5011,1873
5012,1875
5013,1898
5014,1877
5015,1901
5016,1904
5017,1885
5018,1843
5019,1830
5020,1823
5021,1820
5022,1821
5023,1840
5024,1835
5025,1862
5026,1870
5027,1875
5028,1874
5029,1885
5030,1889
5031,1904
5032,1904
5033,1882
5034,1859
5035,1835
5036,1815
5037,1817
5038,1810
5039,1825
5040,1830
5041,1808
5042,1857
5043,1854
5044,1859
5045,1875
5046,1899
5047,1895
5048,1889
5049,1894
5050,1883
5051,1853
5052,1827
5053,1834
5054,1827
5055,1805
5056,1826
5057,1818
5058,1839
5059,1873
5060,1872
5061,1868
5062,1879
5063,1904
5064,1900
5065,1886
5066,1872
5067,1875
5068,1851
5069,1840
5070,1826
5071,1823
5072,1825
5073,1825
5074,1835
5075,1851
5076,1850
5077,1856
5078,1881
5079,1876
5080,1875
5081,1883
5082,1890
5083,1883
5084,1871
5085,1851
5086,1846
5087,1820
5088,1804
5089,1819
5090,1834
5091,1826
5092,1856
5093,1877
5094,1889
5095,1891
5096,1885
5097,1889
5098,1873
5099,1887
5100,1871
5101,1866
5102,1863
5103,1840
5104,1821
5105,1833
5106,1834
5107,1824
5108,1856
5109,1849
5110,1875
5111,1872
5112,1877
5113,1885
5114,1893
5115,1903
5116,1902
5117,1869
5118,1855
5119,1818
5120,1846
5121,1809
5122,1813
5123,1799
5124,1823
5125,1841
5126,1866
5127,1863
5128,1886
5129,1874
5130,1901
5131,1881
5132,1898
5133,1886
5134,1867
5135,1852
5136,1847
5137,1836
5138,1805
5139,1815
5140,1837
5141,1818
5142,1859
5143,1894
5144,1895
5145,1867
5146,1887
5147,1891
5148,1883
5149,1892
5150,1885
5151,1867
5152,1840
5153,1832
5154,1810
5155,1797
5156,1811
5157,1840
5158,1831
5159,1867
5160,1877
5161,1866
5162,1889
5163,1887
5164,1900
5165,1889
5166,1873
5167,1877
5168,1865
5169,1856
5170,1840
5171,1828
5172,1826
5173,1849
5174,1842
5175,1858
5176,1858
5177,1851
5178,1862
5179,1881
5180,1908
5181,1904
5182,1885
5183,1874
5184,1857
5185,1863
5186,1843
5187,1821
5188,1821
5189,1823
5190,1855
5191,1830
5192,1863
5193,1858
5194,1866
5195,1883
5196,1897
5197,1890
5198,1907
5199,1882
5200,1866
5201,1859
5202,1842
5203,1846
5204,1823
5205,1830
5206,1840
5207,1829
5208,1858
5209,1867
5210,1893
5211,1879
5212,1870
5213,1878
5214,1885
5215,1922
5216,1904
5217,1868
5218,1846
5219,1833
5220,1806
5221,1815
5222,1819
5223,1833
5224,1831
5225,1840
5226,1881
5227,1882
5228,1895
5229,1886
5230,1903
5231,1895
5232,1899
5233,1885
5234,1872
5235,1835
5236,1845
5237,1826
5238,1813
5239,1823
5240,1808
5241,1844
5242,1868
5243,1899
5244,1858
5245,1878
5246,1887
5247,1886
5248,1872
5249,1872
5250,1885
5251,1862
5252,1865
5253,1842
5254,1818
5255,1822
5256,1813
5257,1823
5258,1844
5259,1871
5260,1877
5261,1894
5262,1890
5263,1885
5264,1895
5265,1904
5266,1901
5267,1900
5268,1857
5269,1856
5270,1831
5271,1821
5272,1827
5273,1832
5274,1817
5275,1853
5276,1866
5277,1881
5278,1875
5279,1891
5280,1887
5281,1879
5282,1903
5283,1870
5284,1865
5285,1843
5286,1853
5287,1834
5288,1818
5289,1821
5290,1851
5291,1851
5292,1846
5293,1863
5294,1870
5295,1874
5296,1891
5297,1889
5298,1905
5299,1894
5300,1895
5301,1872
5302,1856
5303,1839
5304,1818
5305,1812
5306,1835
5307,1825
5308,1853
5309,1866
5310,1872
5311,1872
5312,1879
5313,1882
5314,1894
5315,1893
5316,1904
5317,1870
5318,1851
5319,1854
5320,1813
5321,1817
5322,1827
5323,1823
5324,1848
5325,1840
5326,1855
5327,1862
5328,1884
5329,1882
5330,1884
5331,1904
5332,1894
5333,1904
5334,1855
5335,1839
5336,1856
5337,1814
5338,1821
5339,1811
5340,1845
5341,1822
5342,1852
5343,1889
5344,1872
5345,1874
5346,1883
5347,1899
5348,1885
5349,1889
5350,1891
5351,1878
5352,1835
5353,1840
5354,1829
5355,1819
5356,1839
5357,1825
5358,1840
5359,1865
5360,1890
5361,1877
5362,1889
5363,1888
5364,1884
5365,1887
5366,1899
5367,1870
5368,1871
5369,1851
5370,1823
5371,1834
5372,1823
5373,1839
5374,1839
5375,1857
5376,1858
5377,1877
5378,1878
5379,1891
5380,1903
5381,1876
5382,1894
5383,1899
5384,1856
5385,1847
5386,1845
5387,1821
5388,1825
5389,1822
5390,1825
5391,1839
5392,1855
5393,1871
5394,1891
5395,1872
5396,1890
5397,1875
5398,1887
5399,1907
5400,1882
5401,1850
5402,1860
5403,1835
5404,1823
5405,1824
5406,1824
5407,1824
5408,1842
5409,1859
5410,1888
5411,1869
5412,1897
5413,1889
5414,1894
5415,1879
5416,1909
5417,1886
5418,1863
5419,1847
5420,1806
5421,1822
5422,1802
5423,1823
5424,1842
5425,1861
5426,1869
5427,1867
5428,1861
5429,1885
5430,1885
5431,1883
5432,1884
5433,1892
5434,1867
5435,1856
5436,1851
5437,1810
5438,1815
5439,1822
5440,1825
5441,1840
5442,1856
5443,1856
5444,1878
5445,1873
5446,1879
5447,1907
5448,1904
5449,1906
5450,1886
5451,1871
5452,1835
5453,1841
5454,1812
5455,1809
5456,1825
5457,1822
5458,1821
5459,1872
5460,1874
5461,1872
5462,1878
5463,1889
5464,1894
5465,1886
5466,1907
5467,1871
5468,1855
5469,1850
5470,1821
5471,1818
5472,1807
5473,1833
5474,1833
5475,1858
5476,1866
5477,1872
5478,1877
5479,1902
5480,1893
5481,1877
5482,1904
5483,1909
5484,1858
5485,1843
5486,1821
5487,1842
5488,1808
5489,1812
5490,1818
5491,1840
5492,1841
5493,1861
5494,1857
5495,1877
5496,1901
5497,1895
5498,1878
5499,1895
5500,1899
5501,1874
5502,1860
5503,1829
5504,1820
5505,1812
5506,1817
5507,1840
5508,1835
5509,1863
5510,1889
5511,1885
5512,1891
5513,1894
5514,1889
5515,1873
5516,1875
5517,1862
5518,1856
5519,1845
5520,1824
5521,1819
5522,1830
5523,1834
5524,1827
5525,1875
5526,1872
5527,1872
5528,1882
5529,1876
5530,1904
5531,1903
5532,1904
5533,1897
5534,1879
5535,1859
5536,1824
5537,1810
5538,1820
5539,1823
5540,1845
5541,1856
5542,1867
5543,1861
5544,1859
5545,1889
5546,1881
5547,1895
5548,1881
5549,1883
5550,1887
5551,1861
5552,1831
5553,1835
5554,1809
5555,1813
5556,1837
5557,1840
5558,1810
5559,1853
5560,1881
5561,1879
5562,1904
5563,1892
5564,1900
5565,1884
5566,1903
5567,1890
5568,1863
5569,1842
5570,1825
5571,1808
5572,1837
5573,1808
5574,1817
5575,1817
5576,1856
5577,1871
5578,1872
5579,1876
5580,1886
5581,1888
5582,1890
5583,1893
5584,1872
5585,1842
5586,1835
5587,1853
5588,1821
5589,1821
5590,1839
5591,1850
5592,1861
5593,1865
5594,1883
5595,1887
5596,1891
5597,1883
5598,1892
5599,1898
5600,1897
5601,1884
5602,1877
5603,1847
5604,1811
5605,1813
5606,1804
5607,1830
5608,1842
5609,1858
5610,1887
5611,1893
5612,1879
5613,1886
5614,1888
5615,1893
5616,1887
5617,1870
5618,1859
5619,1842
5620,1817
5621,1811
5622,1817
5623,1820
5624,1832
5625,1871
5626,1863
5627,1871
5628,1873
5629,1903
5630,1892
5631,1882
5632,1901
5633,1906
5634,1872
5635,1868
5636,1865
5637,1808
5638,1813
5639,1810
5640,1809
5641,1829
5642,1847
5643,1872
5644,1866
5645,1872
5646,1889
5647,1906
5648,1895
5649,1909
5650,1889
5651,1870
5652,1840
5653,1834
5654,1838
5655,1808
5656,1835
5657,1827
5658,1867
5659,1856
5660,1862
5661,1872
5662,1875
5663,1894
5664,1893
5665,1871
5666,1868
5667,1875
5668,1856
5669,1845
5670,1852
5671,1824
5672,1818
5673,1819
5674,1825
5675,1875
5676,1866
5677,1856
5678,1885
5679,1898
5680,1905
5681,1904
5682,1901
5683,1907
5684,1863
5685,1866
5686,1851
5687,1822
5688,1825
5689,1822
5690,1813
5691,1838
5692,1860
5693,1877
5694,1874
5695,1889
5696,1879
5697,1877
5698,1897
5699,1894
5700,1899
5701,1862
5702,1857
5703,1837
5704,1837
5705,1824
5706,1810
5707,1828
5708,1855
5709,1846
5710,1875
5711,1886
5712,1886
5713,1888
5714,1895
5715,727
5716,1430
5717,2038
5718,2167
5719,2213
5720,2197
5721,2216
5722,2225
5723,2131
5724,2053
5725,1983
5726,1795
5727,1591
5728,1568
5729,1687
5730,1807
5731,1904
5732,1993
5733,2034
5734,2034
5735,2018
5736,1927
5737,1851
5738,1763
5739,1689
5740,1643
5741,1637
5742,1664
5743,1712
5744,1744
5745,1776
5746,1526
5747,1228
5748,1967
5749,2198
5750,2272
5751,2261
5752,2257
5753,2225
5754,2087
5755,1995
5756,1858
5757,1645
5758,1535
5759,1621
5760,1747
5761,1877
5762,1997
5763,2064
5764,2087
5765,2055
5766,2005
5767,1911
5768,1789
5769,1708
5770,1643
5771,1623
5772,1648
5773,1718
5774,1743
5775,1801
5776,1858
5777,1882
5778,1170
5779,1972
5780,2247
5781,2359
5782,2375
5783,2355
5784,2255
5785,2137
5786,1970
5787,1745
5788,1531
5789,1515
5790,1617
5791,1749
5792,1925
5793,2057
5794,2103
5795,2133
5796,2097
5797,1992
5798,1879
5799,1758
5800,1670
5801,1603
5802,1586
5803,1639
5804,1671
5805,1731
5806,1776
5807,1823
5808,1860
5809,1007
5810,1938
5811,2245
5812,2415
5813,2398
5814,2350
5815,2253
5816,2140
5817,1962
5818,1685
5819,1523
5820,1531
5821,1634
5822,1792
5823,1890
5824,2002
5825,2081
5826,2110
5827,2044
5828,1975
5829,1887
5830,1776
5831,1690
5832,1637
5833,1686
5834,1691
5835,1699
5836,1747
5837,1779
5838,1810
5839,1835
5840,959
5841,1887
5842,2241
5843,2426
5844,2451
5845,2365
5846,2222
5847,2096
5848,1855
5849,1578
5850,1465
5851,1555
5852,1667
5853,1838
5854,1936
5855,2019
5856,2096
5857,2093
5858,2064
5859,1977
5860,1840
5861,1711
5862,1615
5863,1612
5864,1671
5865,1703
5866,1776
5867,1824
5868,1837
5869,1858
5870,1876
5871,709
5872,1811
5873,2179
5874,2403
5875,2399
5876,2334
5877,2187
5878,2078
5879,1799
5880,1520
5881,1523
5882,1635
5883,1754
5884,1874
5885,1969
5886,2066
5887,2097
5888,2086
5889,2019
5890,1926
5891,1813
5892,1707
5893,1625
5894,1626
5895,1661
5896,1728
5897,1776
5898,1840
5899,1882
5900,1907
5901,1899
5902,592
5903,1791
5904,2086
5905,2327
5906,2405
5907,2318
5908,2150
5909,2027
5910,1756
5911,1517
5912,1535
5913,1641
5914,1776
5915,1911
5916,2006
5917,2079
5918,2127
5919,2117
5920,2032
5921,1902
5922,1761
5923,1661
5924,1585
5925,1600
5926,1664
5927,1723
5928,1770
5929,1811
5930,1862
5931,1901
5932,1915
5933,329
5934,1783
5935,2062
5936,2320
5937,2379
5938,2298
5939,2143
5940,1973
5941,1706
5942,1566
5943,1557
5944,1641
5945,1775
5946,1904
5947,2014
5948,2090
5949,2103
5950,2064
5951,1991
5952,1914
5953,1755
5954,1663
5955,1611
5956,1615
5957,1693
5958,1712
5959,1787
5960,1837
5961,1871
5962,1865
5963,1905
5964,42
5965,1678
5966,2079
5967,2363
5968,2458
5969,2363
5970,2223
5971,2011
5972,1706
5973,1535
5974,1520
5975,1584
5976,1762
5977,1921
5978,2014
5979,2096
5980,2118
5981,2093
5982,2032
5983,1933
5984,1787
5985,1687
5986,1579
5987,1584
5988,1638
5989,1691
5990,1728
5991,1795
5992,1840
5993,1872
5994,1897
5995,587
5996,1595
5997,2085
5998,2351
5999,2522
6000,2384
6001,2224
6002,2000
6003,1718
6004,1535
6005,1488
6006,1535
6007,1774
6008,1909
6009,2023
6010,2107
6011,2109
6012,2109
6013,2026
6014,1907
6015,1793
6016,1707
6017,1664
6018,1638
6019,1653
6020,1695
6021,1722
6022,1751
6023,1793
6024,1834
6025,1872
6026,1439
6027,1453
6028,2037
6029,2357
6030,2503
6031,2432
6032,2290
6033,2083
6034,1766
6035,1611
6036,1505
6037,1558
6038,1753
6039,1902
6040,1989
6041,2047
6042,2100
6043,2112
6044,2010
6045,1906
6046,1790
6047,1694
6048,1635
6049,1664
6050,1701
6051,1743
6052,1771
6053,1799
6054,1838
6055,1834
6056,1862
6057,1739
6058,1395
6059,2015
6060,2332
6061,2449
6062,2366
6063,2256
6064,2023
6065,1742
6066,1661
6067,1583
6068,1642
6069,1817
6070,1922
6071,1990
6072,2032
6073,2094
6074,2070
6075,1978
6076,1893
6077,1777
6078,1667
6079,1634
6080,1647
6081,1697
6082,1755
6083,1782
6084,1791
6085,1840
6086,1837
6087,1849
6088,1840
6089,1194
6090,1911
6091,2241
6092,2446
6093,2414
6094,2275
6095,2068
6096,1778
6097,1728
6098,1616
6099,1685
6100,1840
6101,1930
6102,2000
6103,2064
6104,2067
6105,2055
6106,1987
6107,1899
6108,1771
6109,1671
6110,1621
6111,1629
6112,1673
6113,1725
6114,1767
6115,1807
6116,1856
6117,1867
6118,1869
6119,1879
6120,1141
6121,1863
6122,2193
6123,2358
6124,2337
6125,2249
6126,2022
6127,1779
6128,1727
6129,1664
6130,1693
6131,1861
6132,1981
6133,2042
6134,2092
6135,2100
6136,2040
6137,1968
6138,1862
6139,1760
6140,1647
6141,1581
6142,1602
6143,1669
6144,1697
6145,1767
6146,1811
6147,1873
6148,1897
6149,1902
6150,1914
6151,837
6152,1845
6153,2182
6154,2405
6155,2347
6156,2256
6157,2031
6158,1774
6159,1712
6160,1659
6161,1684
6162,1845
6163,1970
6164,2032
6165,2131
6166,2145
6167,2117
6168,2042
6169,1927
6170,1775
6171,1655
6172,1554
6173,1584
6174,1606
6175,1680
6176,1744
6177,1802
6178,1838
6179,1872
6180,1872
6181,1899
6182,673
6183,1820
6184,2157
6185,2384
6186,2341
6187,2234
6188,2018
6189,1763
6190,1759
6191,1650
6192,1647
6193,1838
6194,1949
6195,2033
6196,2103
6197,2145
6198,2131
6199,2065
6200,1956
6201,1805
6202,1681
6203,1601
6204,1563
6205,1597
6206,1652
6207,1681
6208,1778
6209,1831
6210,1862
6211,1909
6212,1904
6213,433
6214,1789
6215,2187
6216,2433
6217,2422
6218,2256
6219,2031
6220,1757
6221,1712
6222,1615
6223,1598
6224,1755
6225,1931
6226,2006
6227,2087
6228,2128
6229,2161
6230,2066
6231,1968
6232,1838
6233,1738
6234,1632
6235,1594
6236,1639
6237,1658
6238,1683
6239,1731
6240,1799
6241,1823
6242,1843
6243,1894
6244,0
6245,1686
6246,2128
6247,2420
6248,2478
6249,2355
6250,2176
6251,1826
6252,1740
6253,1658
6254,1633
6255,1753
6256,1877
6257,1968
6258,2047
6259,2114
6260,2138
6261,2077
6262,1984
6263,1825
6264,1698
6265,1618
6266,1611
6267,1645
6268,1663
6269,1726
6270,1771
6271,1802
6272,1817
6273,1845
6274,1866
6275,83
6276,1614
6277,2078
6278,2334
6279,2416
6280,2305
6281,2112
6282,1872
6283,1830
6284,1744
6285,1687
6286,1830
6287,1923
6288,1971
6289,2032
6290,2053
6291,2074
6292,2031
6293,1954
6294,1826
6295,1712
6296,1630
6297,1619
6298,1679
6299,1725
6300,1771
6301,1796
6302,1824
6303,1827
6304,1830
6305,1850
6306,830
6307,1463
6308,2015
6309,2311
6310,2409
6311,2353
6312,2178
6313,1895
6314,1809
6315,1718
6316,1668
6317,1763
6318,1893
6319,1951
6320,2029
6321,2064
6322,2061
6323,2015
6324,1923
6325,1801
6326,1726
6327,1644
6328,1616
6329,1648
6330,1693
6331,1748
6332,1793
6333,1853
6334,1862
6335,1881
6336,1869
6337,1863
6338,1855
6339,1881
6340,1879
6341,1872
6342,1914
6343,1913
6344,1904
6345,1920
6346,1909
6347,1903
6348,1904
6349,1913
6350,1886
6351,1867
6352,1865
6353,1860
6354,1867
6355,1826
6356,1834
6357,1828
6358,1856
6359,1872
6360,1889
6361,1866
6362,1874
6363,1874
6364,1879
6365,1890
6366,1886
6367,1899
6368,1861
6369,1840
6370,1842
6371,1828
6372,1823
6373,1847
6374,1851
6375,1857
6376,1873
6377,1872
6378,1884
6379,1872
6380,1853
6381,1866
6382,1875
6383,1894
6384,1863
6385,1854
6386,1836
6387,1837
6388,1815
6389,1805
6390,1806
6391,1826
6392,1842
6393,1856
6394,1881
6395,1867
6396,1887
6397,1869
6398,1885
6399,1875
6400,1893
6401,1872
6402,1870
6403,1856
6404,1842
6405,1815
6406,1817
6407,1835
6408,1814
6409,1850
6410,1869
6411,1883
6412,1870
6413,1878
6414,1891
6415,1885
6416,1886
6417,1875
6418,1857
6419,1858
6420,1826
6421,1827
6422,1810
6423,1825
6424,1803
6425,1834
6426,1866
6427,1874
6428,1874
6429,1874
6430,1882
6431,1889
6432,1899
6433,1904
6434,1908
6435,1873
6436,1859
6437,1842
6438,1828
6439,1837
6440,1826
6441,1838
6442,1857
6443,1864
6444,1867
6445,1872
6446,1866
6447,1872
6448,1879
6449,1869
6450,1898
6451,1877
6452,1855
6453,1856
6454,1835
6455,1825
6456,1827
6457,1818
6458,1829
6459,1854
6460,1853
6461,1846
6462,1872
6463,1881
6464,1891
6465,1904
6466,1898
6467,1899
6468,1872
6469,1852
6470,1840
6471,1835
6472,1815
6473,1824
6474,1799
6475,1846
6476,1855
6477,1895
6478,1889
6479,1886
6480,1889
6481,1889
6482,1901
6483,1882
6484,1882
6485,1840
6486,1845
6487,1821
6488,1818
6489,1810
6490,1818
6491,1826
6492,1843
6493,1866
6494,1859
6495,1869
6496,1891
6497,1899
6498,1890
6499,1861
6500,1895
6501,1872
6502,1877
6503,1855
6504,1842
6505,1818
6506,1815
6507,1811
6508,1831
6509,1855
6510,1872
6511,1887
6512,1879
6513,1898
6514,1902
6515,1907
6516,1909
6517,1882
6518,1871
6519,1857
6520,1831
6521,1812
6522,1818
6523,1817
6524,1841
6525,1857
6526,1867
6527,1887
6528,1894
6529,1883
6530,1893
6531,1885
6532,1876
6533,1904
6534,1872
6535,1855
6536,1842
6537,1840
6538,1805
6539,1822
6540,1822
6541,1841
6542,1859
6543,1877
6544,1875
6545,1882
6546,1887
6547,1887
6548,1895
6549,1911
6550,1899
6551,1874
6552,1851
6553,1840
6554,1823
6555,1815
6556,1823
6557,1846
6558,1840
6559,1854
6560,1888
6561,1894
6562,1890
6563,1875
6564,1894
6565,1873
6566,1885
6567,1876
6568,1855
6569,1845
6570,1849
6571,1814
6572,1825
6573,1822
6574,1827
6575,1839
6576,1855
6577,1873
6578,1884
6579,1872
6580,1887
6581,1885
6582,1891
6583,1899
6584,1872
6585,1877
6586,1841
6587,1840
6588,1822
6589,1821
6590,1814
6591,1825
6592,1849
6593,1864
6594,1875
6595,1872
6596,1866
6597,1887
6598,1891
6599,1859
6600,1904
6601,1860
6602,1862
6603,1825
6604,1813
6605,1810
6606,1810
6607,1835
6608,1822
6609,1872
6610,1847
6611,1875
6612,1878
6613,1883
6614,1899
6615,1895
6616,1905
6617,1888
6618,1866
6619,1863
6620,1845
6621,1834
6622,1815
6623,1813
6624,1824
6625,1833
6626,1853
6627,1872
6628,1867
6629,1876
6630,1872
6631,1873
6632,1882
6633,1902
6634,1884
6635,1863
6636,1856
6637,1840
6638,1834
6639,1823
6640,1838
6641,1826
6642,1842
6643,1881
6644,1859
6645,1846
6646,1893
6647,1887
6648,1893
6649,1883
6650,1894
6651,1885
6652,1840
6653,1822
6654,1842
6655,1823
6656,1823
6657,1827
6658,1823
6659,1842
6660,1863
6661,1872
6662,1887
6663,1875
6664,1886
6665,1889
6666,1910
6667,1907
6668,1871
6669,1835
6670,1813
6671,1842
6672,1814
6673,1823
6674,1840
6675,1831
6676,1867
6677,1886
6678,1884
6679,1897
6680,1881
6681,1904
6682,1882
6683,1889
6684,1872
6685,1871
6686,1835
6687,1839
6688,1825
6689,1815
6690,1829
6691,1836
6692,1830
6693,1874
6694,1859
6695,1867
6696,1890
6697,1889
6698,1895
6699,1887
6700,1895
6701,1879
6702,1852
6703,1861
6704,1830
6705,1829
6706,1811
6707,1824
6708,1826
6709,1860
6710,1860
6711,1875
6712,1886
6713,1902
6714,1888
6715,1903
6716,1882
6717,1889
6718,1859
6719,1843
6720,1837
6721,1818
6722,1828
6723,1825
6724,1835
6725,1835
6726,1873
6727,1843
6728,1857
6729,1881
6730,1877
6731,1890
6732,1889
6733,1881
6734,1885
6735,1857
6736,1859
6737,1807
6738,1808
6739,1825
6740,1840
6741,1819
6742,1856
6743,1861
6744,1867
6745,1862
6746,1868
6747,1885
6748,1887
6749,1876
6750,1892
6751,1872
6752,1861
6753,1866
6754,1841
6755,1814
6756,1824
6757,1821
6758,1831
6759,1856
6760,1872
6761,1842
6762,1872
6763,1886
6764,1886
6765,1883
6766,1887
6767,1887
6768,1883
6769,1872
6770,1856
6771,1832
6772,1818
6773,1823
6774,1821
6775,1843
6776,1868
6777,1898
6778,1874
6779,1879
6780,1898
6781,1904
6782,1885
6783,1897
6784,1873
6785,1869
6786,1851
6787,1830
6788,1818
6789,1834
6790,1808
6791,1815
6792,1857
6793,1865
6794,1876
6795,1882
6796,1867
6797,1897
6798,1893
6799,1887
6800,1894
6801,1866
6802,1855
6803,1862
6804,1824
6805,1824
6806,1837
6807,1809
6808,1830
6809,1843
6810,1866
6811,1888
6812,1874
6813,1891
6814,1884
6815,1904
6816,1877
6817,1890
6818,1875
6819,1856
6820,1856
6821,1847
6822,1814
6823,1825
6824,1837
6825,1843
6826,1862
6827,1875
6828,1898
6829,1872
6830,1889
6831,1890
6832,1891
6833,1892
6834,1891
6835,1871
6836,1863
6837,1827
6838,1810
6839,1813
6840,1829
6841,1817
6842,1847
6843,1870
6844,1872
6845,1872
6846,1880
6847,1887
6848,1893
6849,1886
6850,1887
6851,1862
6852,1858
6853,1833
6854,1824
6855,1808
6856,1813
6857,1839
6858,1831
6859,1862
6860,1871
6861,1878
6862,1883
6863,1889
6864,1874
6865,1871
6866,1884
6867,1881
6868,1872
6869,1859
6870,1844
6871,1832
6872,1821
6873,1823
6874,1842
6875,1840
6876,1862
6877,1859
6878,1873
6879,1888
6880,1890
6881,1904
6882,1878
6883,1904
6884,1873
6885,1872
6886,1840
6887,1831
6888,1839
6889,1815
6890,1808
6891,1833
6892,1869
6893,1867
6894,1872
6895,1872
6896,1871
6897,1885
6898,1889
6899,1877
6900,1904
6901,1879
6902,1854
6903,1837
6904,1823
6905,1827
6906,1825
6907,1846
6908,1826
6909,1872
6910,1858
6911,1871
6912,1872
6913,1891
6914,1895
6915,1887
6916,1903
6917,1894
6918,1872
6919,1840
6920,1867
6921,1844
6922,1815
6923,1813
6924,1832
6925,1840
6926,1850
6927,1859
6928,1885
6929,1866
6930,1887
6931,1872
6932,1896
6933,1904
6934,1890
6935,1865
6936,1853
6937,1843
6938,1805
6939,1809
6940,1815
6941,1833
6942,1850
6943,1852
6944,1856
6945,1882
6946,1875
6947,1889
6948,1899
6949,1918
6950,1903
6951,1868
6952,1863
6953,1849
6954,1828
6955,1808
6956,1822
6957,1835
6958,1840
6959,1854
6960,1872
6961,1857
6962,1872
6963,1897
6964,1890
6965,1897
6966,1905
6967,1917
6968,1871
6969,1847
6970,1830
6971,1818
6972,1825
6973,1826
6974,1850
6975,1834
6976,1862
6977,1859
6978,1877
6979,1878
6980,1889
6981,1891
6982,1893
6983,1894
6984,1872
6985,1870
6986,1859
6987,1833
6988,1825
6989,1821
6990,1825
6991,1819
6992,1841
6993,1857
6994,1872
6995,1865
6996,1898
6997,1884
6998,1890
6999,1904
7000,1887
7001,1883
7002,1866
7003,1858
7004,1842
7005,1814
7006,1809
7007,1839
7008,1822
7009,1838
7010,1860
7011,1877
7012,1863
7013,1875
7014,1885
7015,1891
7016,1895
7017,1871
7018,1858
7019,1856
7020,1851
7021,1845
7022,1818
7023,1826
7024,1810
7025,1813
7026,1843
7027,1861
7028,1858
7029,1875
7030,1902
7031,1883
7032,1877
7033,1896
7034,1911
7035,1866
7036,1865
7037,1837
7038,1823
7039,1820
7040,1826
7041,1831
7042,1823
7043,1858
7044,1843
7045,1849
7046,1869
7047,1884
7048,1888
7049,1882
7050,1891
7051,1889
7052,1857
7053,1863
7054,1845
7055,1826
7056,1805
7057,1818
7058,1829
7059,1841
7060,1871
7061,1863
7062,1865
7063,1873
7064,1885
7065,1896
7066,1870
7067,1913
7068,1873
7069,1861
7070,1835
7071,1849
7072,1816
7073,1818
7074,1842
7075,1829
7076,1859
7077,1878
7078,1873
7079,1872
7080,1889
7081,1879
7082,1894
7083,1893
7084,1859
7085,1875
7086,1867
7087,1840
7088,1815
7089,1813
7090,1828
7091,1837
7092,1849
7093,1856
7094,1865
7095,1871
7096,1900
7097,1885
7098,1895
7099,1872
7100,1905
7101,1895
7102,1869
7103,1858
7104,1836
7105,1811
7106,1802
7107,1814
7108,1833
7109,1843
7110,1887
7111,1871
7112,1867
7113,1884
7114,1883
7115,1895
7116,1895
7117,1904
7118,1863
7119,1872
7120,1855
7121,1838
7122,1824
7123,1819
7124,1825
7125,1825
7126,1872
7127,1873
7128,1872
7129,1874
7130,1886
7131,1898
7132,1902
7133,1893
7134,1900
7135,1854
7136,1854
7137,1840
7138,1822
7139,1809
7140,1815
7141,1843
7142,1835
7143,1860
7144,1854
7145,1858
7146,1886
7147,1889
7148,1892
7149,1879
7150,1883
7151,1877
7152,1862
7153,1856
7154,1829
7155,1817
7156,1825
7157,1810
7158,1830
7159,1847
7160,1870
7161,1858
7162,1873
7163,1883
7164,1887
7165,1887
7166,1930
7167,1890
7168,1870
7169,1873
7170,1839
7171,1838
7172,1815
7173,1819
7174,1815
7175,1819
7176,1850
7177,1877
7178,1887
7179,1885
7180,1891
7181,1899
7182,1906
7183,1891
7184,1907
7185,1873
7186,1857
7187,1841
7188,1826
7189,1813
7190,1826
7191,1851
7192,1839
7193,1859
7194,1851
7195,1869
7196,1862
7197,1886
7198,1891
7199,1889
7200,1891
7201,1886
7202,1877
7203,1856
7204,1837
7205,1808
7206,1815
7207,1837
7208,1814
7209,1856
7210,1862
7211,1850
7212,1863
7213,1873
7214,1887
7215,1891
7216,1920
7217,1903
7218,1868
7219,1862
7220,1841
7221,1815
7222,1805
7223,1818
7224,1826
7225,1835
7226,1840
7227,1876
7228,1873
7229,1883
7230,1862
7231,1877
7232,1901
7233,1885
7234,1879
7235,1872
7236,1861
7237,1849
7238,1829
7239,1819
7240,1821
7241,1829
7242,1839
7243,1862
7244,1873
7245,1875
7246,1898
7247,1903
7248,1890
7249,1885
7250,1887
7251,1885
7252,1872
7253,1850
7254,1840
7255,1821
7256,1802
7257,1830
7258,1839
7259,1851
7260,1861
7261,1875
7262,1877
7263,1885
7264,1893
7265,1891
7266,1904
7267,1897
7268,1881
7269,1850
7270,1844
7271,1826
7272,1819
7273,1808
7274,1814
7275,1825
7276,1861
7277,1877
7278,1878
7279,1886
7280,1887
7281,1877
7282,1896
7283,1888
7284,1904
7285,1857
7286,1858
7287,1841
7288,1815
7289,1820
7290,1819
7291,1841
7292,1835
7293,1871
7294,1863
7295,1885
7296,1898
7297,1897
7298,1903
7299,1877
7300,1900
7301,1879
7302,1863
7303,1872
7304,1849
7305,1808
7306,1823
7307,1831
7308,1829
7309,1860
7310,1886
7311,1872
7312,1874
7313,1887
7314,1882
7315,1886
7316,1908
7317,1901
7318,1873
7319,1851
7320,1840
7321,1845
7322,1824
7323,1839
7324,1827
7325,1821
7326,1855
7327,1869
7328,1873
7329,1872
7330,1876
7331,1904
7332,611
7333,1418
7334,2047
7335,2198
7336,2256
7337,2256
7338,2258
7339,2231
7340,2113
7341,1984
7342,1868
7343,1677
7344,1535
7345,1600
7346,1712
7347,1843
7348,1941
7349,2021
7350,2069
7351,2055
7352,2001
7353,1951
7354,1858
7355,1750
7356,1688
7357,1648
7358,1630
7359,1643
7360,1709
7361,1748
7362,1782
7363,1750
7364,1223
7365,1962
7366,2201
7367,2319
7368,2339
7369,2320
7370,2235
7371,2096
7372,1934
7373,1711
7374,1471
7375,1510
7376,1642
7377,1787
7378,1936
7379,2005
7380,2098
7381,2114
7382,2105
7383,2009
7384,1899
7385,1792
7386,1686
7387,1625
7388,1615
7389,1637
7390,1684
7391,1753
7392,1771
7393,1833
7394,1840
7395,1162
7396,1954
7397,2297
7398,2480
7399,2480
7400,2458
7401,2283
7402,2097
7403,1851
7404,1521
7405,1409
7406,1469
7407,1660
7408,1828
7409,1973
7410,2043
7411,2114
7412,2130
7413,2070
7414,1971
7415,1858
7416,1743
7417,1679
7418,1613
7419,1615
7420,1651
7421,1705
7422,1723
7423,1773
7424,1782
7425,1829
7426,1058
7427,1909
7428,2249
7429,2420
7430,2459
7431,2362
7432,2219
7433,2038
7434,1741
7435,1507
7436,1516
7437,1627
7438,1760
7439,1904
7440,2000
7441,2109
7442,2143
7443,2145
7444,2075
7445,1936
7446,1799
7447,1707
7448,1631
7449,1589
7450,1643
7451,1680
7452,1712
7453,1739
7454,1781
7455,1799
7456,1826
7457,866
7458,1834
7459,2226
7460,2458
7461,2463
7462,2374
7463,2236
7464,1974
7465,1680
7466,1593
7467,1622
7468,1698
7469,1808
7470,1906
7471,2007
7472,2069
7473,2109
7474,2096
7475,2055
7476,1936
7477,1818
7478,1699
7479,1623
7480,1603
7481,1657
7482,1709
7483,1747
7484,1831
7485,1843
7486,1846
7487,1858
7488,847
7489,1801
7490,2147
7491,2359
7492,2402
7493,2328
7494,2138
7495,1895
7496,1686
7497,1632
7498,1617
7499,1730
7500,1891
7501,1989
7502,2043
7503,2079
7504,2096
7505,2064
7506,2001
7507,1885
7508,1758
7509,1656
7510,1589
7511,1578
7512,1616
7513,1696
7514,1744
7515,1792
7516,1834
7517,1887
7518,1882
7519,660
7520,1786
7521,2114
7522,2327
7523,2336
7524,2252
7525,2085
7526,1872
7527,1737
7528,1679
7529,1631
7530,1751
7531,1907
7532,1993
7533,2085
7534,2137
7535,2112
7536,2094
7537,2015
7538,1914
7539,1741
7540,1632
7541,1616
7542,1599
7543,1648
7544,1693
7545,1767
7546,1810
7547,1852
7548,1872
7549,1887
7550,112
7551,1738
7552,2096
7553,2352
7554,2418
7555,2331
7556,2123
7557,1846
7558,1647
7559,1626
7560,1592
7561,1759
7562,1889
7563,1965
7564,2044
7565,2103
7566,2128
7567,2123
7568,2013
7569,1907
7570,1773
7571,1653
7572,1575
7573,1601
7574,1632
7575,1697
7576,1776
7577,1805
7578,1842
7579,1870
7580,1885
7581,0
7582,1669
7583,2112
7584,2403
7585,2425
7586,2347
7587,2134
7588,1863
7589,1711
7590,1639
7591,1586
7592,1740
7593,1901
7594,1989
7595,2038
7596,2114
7597,2137
7598,2115
7599,2027
7600,1922
7601,1774
7602,1663
7603,1578
7604,1600
7605,1615
7606,1677
7607,1703
7608,1764
7609,1828
7610,1861
7611,1891
7612,550
7613,1584
7614,2093
7615,2391
7616,2480
7617,2382
7618,2185
7619,1819
7620,1680
7621,1621
7622,1557
7623,1685
7624,1833
7625,1943
7626,2039
7627,2099
7628,2139
7629,2113
7630,2039
7631,1927
7632,1815
7633,1713
7634,1619
7635,1597
7636,1635
7637,1649
7638,1697
7639,1753
7640,1801
7641,1843
7642,1859
7643,1360
7644,1435
7645,2015
7646,2367
7647,2485
7648,2396
7649,2203
7650,1860
7651,1698
7652,1674
7653,1597
7654,1729
7655,1847
7656,1945
7657,2027
7658,2097
7659,2131
7660,2109
7661,2054
7662,1920
7663,1776
7664,1653
7665,1609
7666,1642
7667,1675
7668,1712
7669,1744
7670,1792
7671,1827
7672,1815
7673,1844
7674,1863
7675,1326
7676,1965
7677,2325
7678,2455
7679,2390
7680,2225
7681,1893
7682,1740
7683,1738
7684,1647
7685,1731
7686,1871
7687,1946
7688,2023
7689,2080
7690,2091
7691,2081
7692,2000
7693,1876
7694,1771
7695,1654
7696,1634
7697,1635
7698,1680
7699,1722
7700,1786
7701,1811
7702,1854
7703,1870
7704,1849
7705,1851
7706,1251
7707,1915
7708,2242
7709,2418
7710,2365
7711,2207
7712,1871
7713,1723
7714,1741
7715,1662
7716,1773
7717,1908
7718,2006
7719,2069
7720,2124
7721,2117
7722,2069
7723,1981
7724,1842
7725,1712
7726,1600
7727,1587
7728,1621
7729,1665
7730,1733
7731,1791
7732,1840
7733,1873
7734,1902
7735,1879
7736,1863
7737,1136
7738,1853
7739,2192
7740,2381
7741,2320
7742,2198
7743,1909
7744,1700
7745,1744
7746,1669
7747,1769
7748,1934
7749,2029
7750,2102
7751,2118
7752,2127
7753,2103
7754,1959
7755,1829
7756,1679
7757,1584
7758,1588
7759,1606
7760,1664
7761,1719
7762,1781
7763,1851
7764,1859
7765,1886
7766,1920
7767,1939
7768,1159
7769,1887
7770,2205
7771,2384
7772,2331
7773,2189
7774,1877
7775,1648
7776,1702
7777,1658
7778,1758
7779,1907
7780,2018
7781,2080
7782,2142
7783,2190
7784,2128
7785,2017
7786,1871
7787,1714
7788,1574
7789,1534
7790,1563
7791,1617
7792,1671
7793,1744
7794,1821
7795,1867
7796,1872
7797,1914
7798,1924
7799,800
7800,1871
7801,2240
7802,2426
7803,2398
7804,2256
7805,1938
7806,1681
7807,1714
7808,1680
7809,1712
7810,1878
7811,1973
7812,2043
7813,2109
7814,2148
7815,2123
7816,2032
7817,1921
7818,1776
7819,1645
7820,1583
7821,1579
7822,1614
7823,1673
7824,1719
7825,1771
7826,1809
7827,1840
7828,1904
7829,1929
7830,320
7831,1792
7832,2179
7833,2455
7834,2421
7835,2288
7836,1999
7837,1681
7838,1707
7839,1641
7840,1687
7841,1840
7842,1936
7843,2025
7844,2107
7845,2143
7846,2096
7847,2033
7848,1926
7849,1799
7850,1670
7851,1616
7852,1600
7853,1623
7854,1693
7855,1710
7856,1765
7857,1807
7858,1875
7859,1862
7860,1884
7861,0
7862,1709
7863,2143
7864,2402
7865,2459
7866,2358
7867,2078
7868,1744
7869,1761
7870,1691
7871,1658
7872,1821
7873,1925
7874,1990
7875,2066
7876,2103
7877,2112
7878,2029
7879,1919
7880,1792
7881,1694
7882,1641
7883,1657
7884,1662
7885,1692
7886,1744
7887,1778
7888,1801
7889,1807
7890,1852
7891,1872
7892,15
7893,1591
7894,2082
7895,2370
7896,2418
7897,2349
7898,2155
7899,1773
7900,1773
7901,1743
7902,1703
7903,1845
7904,1946
7905,2005
7906,2057
7907,2098
7908,2093
7909,2001
7910,1918
7911,1786
7912,1666
7913,1599
7914,1597
7915,1646
7916,1699
7917,1740
7918,1776
7919,1826
7920,1841
7921,1856
7922,1849
7923,714
7924,1486
7925,2029
7926,2336
7927,2435
7928,2343
7929,2141
7930,1808
7931,1754
7932,1727
7933,1744
7934,1873
7935,1963
7936,2025
7937,2090
7938,2076
7939,2073
7940,2003
7941,1898
7942,1745
7943,1649
7944,1605
7945,1603
7946,1648
7947,1719
7948,1776
7949,1823
7950,1873
7951,1870
7952,1867
7953,1873
7954,1874
7955,1858
7956,1867
7957,1871
7958,1861
7959,1878
7960,1894
7961,1908
7962,1904
7963,1926
7964,1908
7965,1920
7966,1916
7967,1926
7968,1904
7969,1879
7970,1854
7971,1823
7972,1831
7973,1805
7974,1823
7975,1830
7976,1814
7977,1840
7978,1856
7979,1851
7980,1889
7981,1901
7982,1903
7983,1894
7984,1902
7985,1881
7986,1842
7987,1834
7988,1809
7989,1812
7990,1837
7991,1841
7992,1837
7993,1853
7994,1887
7995,1875
7996,1884
7997,1903
7998,1897
7999,1894
8000,1889
8001,1897
8002,1872
8003,1853
8004,1850
8005,1821
8006,1811
8007,1798
8008,1789
8009,1814
8010,1856
8011,1860
8012,1872
8013,1893
8014,1895
8015,1899
8016,1892
8017,1877
8018,1883
8019,1878
8020,1839
8021,1850
8022,1814
8023,1829
8024,1822
8025,1806
8026,1840
8027,1852
8028,1878
8029,1866
8030,1890
8031,1887
8032,1886
8033,1907
8034,1891
8035,1868
8036,1863
8037,1859
8038,1833
8039,1806
8040,1833
8041,1827
8042,1826
8043,1861
8044,1881
8045,1853
8046,1875
8047,1890
8048,1892
8049,1900
8050,1884
8051,1903
8052,1859
8053,1845
8054,1838
8055,1829
8056,1826
8057,1831
8058,1852
8059,1857
8060,1877
8061,1906
8062,1922
8063,1925
8064,1941
8065,1942
8066,1917
8067,1908
8068,1854
8069,1808
8070,1821
8071,1776
8072,1758
8073,1773
8074,1791
8075,1795
8076,1802
8077,1856
8078,1862
8079,1872
8080,1874
8081,1887
8082,1890
8083,1898
8084,1889
8085,1875
8086,1869
8087,1872
8088,1835
8089,1840
8090,1841
8091,1829
8092,1851
8093,1868
8094,1886
8095,1885
8096,1873
8097,1843
8098,1866
8099,1898
8100,1902
8101,1895
8102,1869
8103,1854
8104,1827
8105,1836
8106,1808
8107,1823
8108,1837
8109,1839
8110,1859
8111,1889
8112,1871
8113,1891
8114,1892
8115,1903
8116,1893
8117,1890
8118,1875
8119,1856
8120,1842
8121,1831
8122,1808
8123,1821
8124,1827
8125,1840
8126,1834
8127,1856
8128,1858
8129,1865
8130,1883
8131,1882
8132,1878
8133,1905
8134,1882
8135,1874
8136,1863
8137,1840
8138,1831
8139,1821
8140,1828
8141,1834
8142,1834
8143,1851
8144,1860
8145,1891
8146,1896
8147,1875
8148,1887
8149,1890
8150,1895
8151,1891
8152,1867
8153,1872
8154,1831
8155,1808
8156,1814
8157,1822
8158,1822
8159,1837
8160,1858
8161,1862
8162,1863
8163,1882
8164,1901
8165,1877
8166,1901
8167,1893
8168,1879
8169,1867
8170,1855
8171,1855
8172,1811
8173,1825
8174,1815
8175,1827
8176,1846
8177,1859
8178,1883
8179,1885
8180,1889
8181,1889
8182,1889
8183,1893
8184,1903
8185,1873
8186,1865
8187,1843
8188,1824
8189,1810
8190,1810
8191,1840
8192,1839
8193,1859
8194,1877
8195,1879
8196,1883
8197,1884
8198,1899
8199,1907
8200,1894
8201,1875
8202,1877
8203,1875
8204,1858
8205,1817
8206,1818
8207,1824
8208,1814
8209,1823
8210,1869
8211,1865
8212,1876
8213,1887
8214,1897
8215,1890
8216,1874
8217,1883
8218,1875
8219,1859
8220,1845
8221,1830
8222,1795
8223,1815
8224,1819
8225,1815
8226,1814
8227,1855
8228,1878
8229,1888
8230,1914
8231,1890
8232,1898
8233,1909
8234,1894
8235,1873
8236,1875
8237,1839
8238,1855
8239,1817
8240,1838
8241,1840
8242,1836
8243,1840
8244,1872
8245,1862
8246,1869
8247,1889
8248,1885
8249,1883
8250,1904
8251,1903
8252,1887
8253,1841
8254,1839
8255,1799
8256,1819
8257,1822
8258,1851
8259,1820
8260,1867
8261,1885
8262,1847
8263,1861
8264,1886
8265,1885
8266,1901
8267,1897
8268,1907
8269,1874
8270,1853
8271,1823
8272,1826
8273,1817
8274,1803
8275,1823
8276,1841
8277,1865
8278,1861
8279,1886
8280,1872
8281,1887
8282,1893
8283,1903
8284,1890
8285,1882
8286,1855
8287,1858
8288,1840
8289,1814
8290,1813
8291,1830
8292,1829
8293,1845
8294,1858
8295,1874
8296,1872
8297,1889
8298,1875
8299,1892
8300,1887
8301,1913
8302,1862
8303,1852
8304,1845
8305,1839
8306,1814
8307,1819
8308,1810
8309,1830
8310,1863
8311,1879
8312,1872
8313,1875
8314,1890
8315,1886
8316,1877
8317,1898
8318,1883
8319,1872
8320,1861
8321,1847
8322,1818
8323,1815
8324,1813
8325,1831
8326,1854
8327,1868
8328,1868
8329,1859
8330,1899
8331,1877
8332,1887
8333,1875
8334,1877
8335,1855
8336,1874
8337,1847
8338,1842
8339,1808
8340,1813
8341,1838
8342,1830
8343,1872
8344,1869
8345,1858
8346,1890
8347,1893
8348,1879
8349,1895
8350,1901
8351,1920
8352,1874
8353,1856
8354,1831
8355,1810
8356,1814
8357,1822
8358,1810
8359,1821
8360,1846
8361,1885
8362,1865
8363,1873
8364,1892
8365,1891
8366,1888
8367,1901
8368,1899
8369,1869
8370,1840
8371,1839
8372,1826
8373,1823
8374,1834
8375,1828
8376,1841
8377,1872
8378,1872
8379,1862
8380,1874
8381,1895
8382,1893
8383,1889
8384,1888
8385,1895
8386,1870
8387,1854
8388,1840
8389,1831
8390,1801
8391,1840
8392,1845
8393,1858
8394,1861
8395,1853
8396,1875
8397,1887
8398,1877
8399,1887
8400,1890
8401,1899
8402,1876
8403,1853
8404,1842
8405,1837
8406,1825
8407,1822
8408,1815
8409,1837
8410,1852
8411,1869
8412,1885
8413,1871
8414,1889
8415,1875
8416,1881
8417,1905
8418,1904
8419,1870
8420,1862
8421,1830
8422,1819
8423,1813
8424,1808
8425,1829
8426,1852
8427,1865
8428,1858
8429,1850
8430,1883
8431,1881
8432,1881
8433,1895
8434,1875
8435,1873
8436,1855
8437,1837
8438,1855
8439,1818
8440,1824
8441,1830
8442,1826
8443,1858
8444,1882
8445,1862
8446,1878
8447,1875
8448,1903
8449,1890
8450,1886
8451,1872
8452,1877
8453,1870
8454,1831
8455,1827
8456,1812
8457,1815
8458,1810
8459,1823
8460,1872
8461,1869
8462,1867
8463,1878
8464,1883
8465,1891
8466,1883
8467,1898
8468,1904
8469,1861
8470,1861
8471,1831
8472,1822
8473,1824
8474,1821
8475,1825
8476,1835
8477,1859
8478,1883
8479,1887
8480,1899
8481,1888
8482,1891
8483,1899
8484,1898
8485,1883
8486,1861
8487,1859
8488,1840
8489,1823
8490,1817
8491,1835
8492,1840
8493,1861
8494,1870
8495,1886
8496,1885
8497,1897
8498,1902
8499,1892
8500,1919
8501,1889
8502,1872
8503,1872
8504,1859
8505,1840
8506,1818
8507,1818
8508,1836
8509,1835
8510,1847
8511,1872
8512,1884
8513,1888
8514,1883
8515,1904
8516,1904
8517,1877
8518,1895
8519,1845
8520,1840
8521,1844
8522,1819
8523,1809
8524,1822
8525,1848
8526,1826
8527,1858
8528,1878
8529,1879
8530,1882
8531,1897
8532,1894
8533,1903
8534,1889
8535,1900
8536,1865
8537,1858
8538,1840
8539,1828
8540,1823
8541,1822
8542,1825
8543,1830
8544,1867
8545,1874
8546,1893
8547,1881
8548,1886
8549,1886
8550,1858
8551,1889
8552,1872
8553,1853
8554,1843
8555,1828
8556,1824
8557,1819
8558,1815
8559,1834
8560,1867
8561,1894
8562,1886
8563,1873
8564,1879
8565,1897
8566,1904
8567,1890
8568,1874
8569,1862
8570,1858
8571,1838
8572,1831
8573,1824
8574,1819
8575,1819
8576,1840
8577,1853
8578,1863
8579,1873
8580,1893
8581,1890
8582,1895
8583,1879
8584,1902
8585,1874
8586,1873
8587,1859
8588,1837
8589,1807
8590,1815
8591,1822
8592,1838
8593,1849
8594,1874
8595,1863
8596,1872
8597,1879
8598,1890
8599,1895
8600,1924
8601,1903
8602,1885
8603,1855
8604,1851
8605,1811
8606,1811
8607,1816
8608,1811
8609,1847
8610,1857
8611,1883
8612,1879
8613,1874
8614,1885
8615,1884
8616,1901
8617,1895
8618,1920
8619,1867
8620,1859
8621,1826
8622,1822
8623,1825
8624,1815
8625,1779
8626,1840
8627,1856
8628,1867
8629,1869
8630,1886
8631,1883
8632,1887
8633,1889
8634,1899
8635,1867
8636,1853
8637,1851
8638,1837
8639,1816
8640,1825
8641,1811
8642,1838
8643,1849
8644,1858
8645,1872
8646,1872
8647,1872
8648,1898
8649,1895
8650,1872
8651,1904
8652,1853
8653,1851
8654,1840
8655,1827
8656,1809
8657,1818
8658,1808
8659,1831
8660,1856
8661,1856
8662,1884
8663,1872
8664,1872
8665,1904
8666,1904
8667,1881
8668,1887
8669,1862
8670,1840
8671,1842
8672,1815
8673,1823
8674,1819
8675,1797
8676,1845
8677,1862
8678,1853
8679,1853
8680,1899
8681,1886
8682,1901
8683,1902
8684,1891
8685,1898
8686,1872
8687,1853
8688,1837
8689,1830
8690,1826
8691,1831
8692,1840
8693,1856
8694,1883
8695,1876
8696,1872
8697,1887
8698,1891
8699,1887
8700,1904
8701,1893
8702,1872
8703,1872
8704,1844
8705,1822
8706,1811
8707,1833
8708,1834
8709,1835
8710,1870
8711,1858
8712,1878
8713,1874
8714,1900
8715,1895
8716,1882
8717,1902
8718,1882
8719,1865
8720,1867
8721,1830
8722,1808
8723,1821
8724,1815
8725,1835
8726,1835
8727,1856
8728,1874
8729,1872
8730,1875
8731,1882
8732,1901
8733,1872
8734,1901
8735,1871
8736,1858
8737,1856
8738,1839
8739,1835
8740,1835
8741,1820
8742,1824
8743,1860
8744,1856
8745,1872
8746,1869
8747,1886
8748,1893
8749,1898
8750,1905
8751,1883
8752,1869
8753,1856
8754,1856
8755,1827
8756,1814
8757,1830
8758,1813
8759,1825
8760,1849
8761,1856
8762,1857
8763,1875
8764,1876
8765,1901
8766,1889
8767,1895
8768,1895
8769,1875
8770,1831
8771,1821
8772,1835
8773,1821
8774,1822
8775,1840
8776,1855
8777,1857
8778,1840
8779,1849
8780,1872
8781,1901
8782,1885
8783,1891
8784,1897
8785,1889
8786,1866
8787,1840
8788,1833
8789,1822
8790,1831
8791,1820
8792,1838
8793,1823
8794,1872
8795,1865
8796,1865
8797,1873
8798,1886
8799,1891
8800,1885
8801,1890
8802,1885
8803,1858
8804,1828
8805,1813
8806,1832
8807,1810
8808,1840
8809,1840
8810,1840
8811,1861
8812,1878
8813,1890
8814,1888
8815,1873
8816,1873
8817,1895
8818,1897
8819,1858
8820,1857
8821,1840
8822,1820
8823,1817
8824,1820
8825,1809
8826,1845
8827,1856
8828,1872
8829,1885
8830,1867
8831,1884
8832,1891
8833,1900
8834,1894
8835,1901
8836,1872
8837,1857
8838,1827
8839,1825
8840,1818
8841,1819
8842,1833
8843,1860
8844,1870
8845,1854
8846,1867
8847,1885
8848,1887
8849,1887
8850,1893
8851,1893
8852,1882
8853,1852
8854,1840
8855,1840
8856,1819
8857,1823
8858,1811
8859,1840
8860,1856
8861,1863
8862,1898
8863,1882
8864,1861
8865,1881
8866,1887
8867,1906
8868,1875
8869,1872
8870,1862
8871,1845
8872,1820
8873,1820
8874,1825
8875,1840
8876,1837
8877,1850
8878,1873
8879,1872
8880,1882
8881,1889
8882,1916
8883,1884
8884,1909
8885,1898
8886,1879
8887,1867
8888,1827
8889,1827
8890,1829
8891,1809
8892,1820
8893,1825
8894,1866
8895,1880
8896,1872
8897,1880
8898,1891
8899,1902
8900,1915
8901,1904
8902,1886
8903,1868
8904,1841
8905,1820
8906,1823
8907,1822
8908,1829
8909,1836
8910,1841
8911,1861
8912,1899
8913,1887
8914,1887
8915,1898
8916,1895
8917,1893
8918,1872
8919,1857
8920,1854
8921,1841
8922,1830
8923,1818
8924,1820
8925,1808
8926,1817
8927,1853
8928,1859
8929,1872
8930,1898
8931,1904
8932,1904
8933,1904
8934,1889
8935,1872
8936,1853
8937,1837
8938,1837
8939,1837
8940,1802
8941,1816
8942,1825
8943,1858
8944,1870
8945,1863
8946,1861
8947,1892
8948,1889
8949,889
8950,1375
8951,2013
8952,2182
8953,2233
8954,2269
8955,2302
8956,2273
8957,2187
8958,2096
8959,1955
8960,1713
8961,1520
8962,1568
8963,1703
8964,1825
8965,1917
8966,1969
8967,2011
8968,2038
8969,1985
8970,1939
8971,1866
8972,1791
8973,1705
8974,1667
8975,1639
8976,1657
8977,1697
8978,1762
8979,1772
8980,1293
8981,1295
8982,1961
8983,2199
8984,2330
8985,2354
8986,2314
8987,2253
8988,2115
8989,1947
8990,1755
8991,1506
8992,1510
8993,1643
8994,1787
8995,1889
8996,1979
8997,2059
8998,2043
8999,2032
9000,1970
9001,1907
9002,1818
9003,1746
9004,1690
9005,1652
9006,1664
9007,1709
9008,1743
9009,1783
9010,1807
9011,1856
9012,1186
9013,1967
9014,2275
9015,2487
9016,2513
9017,2480
9018,2287
9019,2047
9020,1824
9021,1520
9022,1421
9023,1535
9024,1686
9025,1831
9026,1935
9027,2019
9028,2063
9029,2077
9030,2020
9031,1936
9032,1847
9033,1757
9034,1663
9035,1639
9036,1633
9037,1687
9038,1715
9039,1753
9040,1798
9041,1808
9042,1810
9043,1057
9044,1908
9045,2284
9046,2450
9047,2469
9048,2399
9049,2231
9050,2047
9051,1766
9052,1534
9053,1530
9054,1652
9055,1792
9056,1895
9057,1981
9058,2080
9059,2117
9060,2145
9061,2045
9062,1936
9063,1807
9064,1702
9065,1633
9066,1595
9067,1647
9068,1697
9069,1742
9070,1771
9071,1792
9072,1823
9073,1847
9074,970
9075,1872
9076,2239
9077,2465
9078,2463
9079,2352
9080,2178
9081,1953
9082,1648
9083,1584
9084,1605
9085,1673
9086,1813
9087,1915
9088,1997
9089,2062
9090,2101
9091,2055
9092,2002
9093,1905
9094,1798
9095,1702
9096,1624
9097,1645
9098,1665
9099,1716
9100,1761
9101,1819
9102,1845
9103,1862
9104,1869
9105,908
9106,1793
9107,2143
9108,2391
9109,2391
9110,2311
9111,2123
9112,1854
9113,1666
9114,1621
9115,1610
9116,1753
9117,1895
9118,1976
9119,2015
9120,2087
9121,2071
9122,2039
9123,1973
9124,1889
9125,1744
9126,1670
9127,1610
9128,1633
9129,1667
9130,1723
9131,1775
9132,1834
9133,1868
9134,1901
9135,1921
9136,627
9137,1776
9138,2101
9139,2320
9140,2351
9141,2250
9142,2069
9143,1851
9144,1757
9145,1685
9146,1640
9147,1773
9148,1904
9149,1991
9150,2069
9151,2101
9152,2110
9153,2059
9154,1969
9155,1856
9156,1712
9157,1630
9158,1587
9159,1614
9160,1680
9161,1739
9162,1770
9163,1829
9164,1860
9165,1887
9166,1903
9167,445
9168,1779
9169,2117
9170,2379
9171,2429
9172,2288
9173,2093
9174,1839
9175,1706
9176,1600
9177,1623
9178,1778
9179,1897
9180,1955
9181,2060
9182,2093
9183,2119
9184,2089
9185,1989
9186,1881
9187,1753
9188,1648
9189,1584
9190,1571
9191,1623
9192,1697
9193,1750
9194,1808
9195,1863
9196,1887
9197,1873
9198,0
9199,1677
9200,2105
9201,2426
9202,2495
9203,2387
9204,2181
9205,1834
9206,1616
9207,1564
9208,1557
9209,1710
9210,1874
9211,1987
9212,2064
9213,2127
9214,2143
9215,2110
9216,2006
9217,1916
9218,1759
9219,1661
9220,1611
9221,1587
9222,1650
9223,1680
9224,1716
9225,1783
9226,1818
9227,1862
9228,1883
9229,55
9230,1649
9231,2083
9232,2379
9233,2466
9234,2357
9235,2153
9236,1856
9237,1733
9238,1663
9239,1609
9240,1730
9241,1872
9242,1939
9243,2023
9244,2098
9245,2127
9246,2087
9247,1979
9248,1868
9249,1750
9250,1647
9251,1605
9252,1648
9253,1680
9254,1722
9255,1748
9256,1801
9257,1833
9258,1847
9259,1842
9260,1126
9261,1483
9262,2022
9263,2346
9264,2454
9265,2377
9266,2224
9267,1910
9268,1725
9269,1693
9270,1640
9271,1759
9272,1872
9273,1941
9274,2011
9275,2072
9276,2101
9277,2075
9278,1991
9279,1872
9280,1759
9281,1677
9282,1622
9283,1643
9284,1689
9285,1761
9286,1765
9287,1797
9288,1822
9289,1825
9290,1829
9291,1774
9292,1299
9293,1959
9294,2291
9295,2422
9296,2352
9297,2221
9298,1878
9299,1764
9300,1749
9301,1691
9302,1798
9303,1921
9304,1987
9305,2035
9306,2067
9307,2096
9308,2042
9309,1968
9310,1826
9311,1766
9312,1650
9313,1595
9314,1626
9315,1685
9316,1731
9317,1787
9318,1839
9319,1821
9320,1841
9321,1860
9322,1853
9323,1279
9324,1920
9325,2255
9326,2406
9327,2395
9328,2228
9329,1907
9330,1760
9331,1712
9332,1648
9333,1788
9334,1947
9335,2031
9336,2063
9337,2124
9338,2115
9339,2057
9340,1959
9341,1843
9342,1681
9343,1632
9344,1569
9345,1591
9346,1638
9347,1704
9348,1773
9349,1821
9350,1860
9351,1902
9352,1909
9353,1888
9354,1208
9355,1869
9356,2169
9357,2361
9358,2327
9359,2194
9360,1872
9361,1758
9362,1750
9363,1679
9364,1777
9365,1936
9366,2023
9367,2110
9368,2133
9369,2112
9370,2038
9371,1950
9372,1840
9373,1695
9374,1599
9375,1558
9376,1583
9377,1636
9378,1708
9379,1746
9380,1805
9381,1858
9382,1879
9383,1909
9384,1928
9385,1088
9386,1891
9387,2224
9388,2419
9389,2327
9390,2201
9391,1861
9392,1710
9393,1728
9394,1664
9395,1792
9396,1938
9397,1995
9398,2076
9399,2123
9400,2117
9401,2102
9402,2014
9403,1875
9404,1735
9405,1656
9406,1586
9407,1569
9408,1643
9409,1684
9410,1735
9411,1793
9412,1837
9413,1869
9414,1903
9415,1927
9416,848
9417,1836
9418,2224
9419,2435
9420,2369
9421,2230
9422,1920
9423,1620
9424,1657
9425,1600
9426,1691
9427,1892
9428,1989
9429,2047
9430,2112
9431,2132
9432,2121
9433,2044
9434,1927
9435,1797
9436,1677
9437,1584
9438,1583
9439,1605
9440,1648
9441,1702
9442,1796
9443,1814
9444,1892
9445,1903
9446,1924
9447,448
9448,1826
9449,2186
9450,2419
9451,2421
9452,2314
9453,2002
9454,1711
9455,1729
9456,1634
9457,1677
9458,1826
9459,1938
9460,2003
9461,2106
9462,2137
9463,2128
9464,2064
9465,1953
9466,1818
9467,1726
9468,1629
9469,1605
9470,1638
9471,1662
9472,1704
9473,1745
9474,1777
9475,1825
9476,1830
9477,1861
9478,224
9479,1730
9480,2135
9481,2394
9482,2416
9483,2335
9484,2057
9485,1795
9486,1776
9487,1679
9488,1723
9489,1845
9490,1951
9491,2007
9492,2099
9493,2097
9494,2100
9495,2012
9496,1923
9497,1812
9498,1687
9499,1626
9500,1649
9501,1662
9502,1697
9503,1743
9504,1744
9505,1776
9506,1797
9507,1810
9508,1855
9509,0
9510,1643
9511,2095
9512,2368
9513,2425
9514,2375
9515,2114
9516,1751
9517,1728
9518,1710
9519,1726
9520,1847
9521,1967
9522,2003
9523,2021
9524,2064
9525,2085
9526,2011
9527,1933
9528,1819
9529,1731
9530,1630
9531,1626
9532,1650
9533,1722
9534,1769
9535,1776
9536,1822
9537,1853
9538,1863
9539,1853
9540,430
9541,1515
9542,2011
9543,2315
9544,2397
9545,2358
9546,2130
9547,1778
9548,1769
9549,1706
9550,1690
9551,1859
9552,1937
9553,2019
9554,2032
9555,2086
9556,2095
9557,2007
9558,1918
9559,1806
9560,1712
9561,1658
9562,1638
9563,1653
9564,1666
9565,1722
9566,1776
9567,1808
9568,1838
9569,1860
9570,1839
9571,1877
9572,1872
9573,1872
9574,1879
9575,1884
9576,1878
9577,1876
9578,1905
9579,1915
9580,1905
9581,1930
9582,1909
9583,1921
9584,1907
9585,1890
9586,1881
9587,1863
9588,1873
9589,1840
9590,1826
9591,1825
9592,1846
9593,1851
9594,1866
9595,1871
9596,1872
9597,1885
9598,1891
9599,1895
9600,1876
9601,1874
9602,1899
9603,1866
9604,1830
9605,1831
9606,1827
9607,1818
9608,1829
9609,1840
9610,1870
9611,1881
9612,1879
9613,1885
9614,1871
9615,1891
9616,1890
9617,1920
9618,1899
9619,1856
9620,1836
9621,1837
9622,1806
9623,1808
9624,1840
9625,1810
9626,1830
9627,1846
9628,1882
9629,1866
9630,1865
9631,1885
9632,1892
9633,1908
9634,1879
9635,1879
9636,1861
9637,1859
9638,1831
9639,1829
9640,1811
9641,1824
9642,1823
9643,1840
9644,1883
9645,1895
9646,1892
9647,1886
9648,1878
9649,1892
9650,1879
9651,1899
9652,1878
9653,1866
9654,1846
9655,1831
9656,1825
9657,1805
9658,1834
9659,1823
9660,1840
9661,1862
9662,1856
9663,1863
9664,1887
9665,1894
9666,1897
9667,1903
9668,1904
9669,1887
9670,1856
9671,1872
9672,1851
9673,1833
9674,1808
9675,1829
9676,1830
9677,1838
9678,1866
9679,1871
9680,1872
9681,1887
9682,1895
9683,1897
9684,1904
9685,1895
9686,1869
9687,1841
9688,1826
9689,1826
9690,1823
9691,1823
9692,1818
9693,1856
9694,1861
9695,1883
9696,1855
9697,1891
9698,1903
9699,1915
9700,1907
9701,1892
9702,1867
9703,1843
9704,1853
9705,1825
9706,1834
9707,1818
9708,1837
9709,1833
9710,1831
9711,1867
9712,1867
9713,1857
9714,1879
9715,1872
9716,1884
9717,1876
9718,1883
9719,1863
9720,1869
9721,1837
9722,1837
9723,1813
9724,1807
9725,1840
9726,1839
9727,1837
9728,1863
9729,1881
9730,1874
9731,1874
9732,1891
9733,1895
9734,1895
9735,1876
9736,1860
9737,1842
9738,1834
9739,1825
9740,1824
9741,1826
9742,1828
9743,1836
9744,1840
9745,1847
9746,1870
9747,1878
9748,1876
9749,1902
9750,1907
9751,1904
9752,1904
9753,1859
9754,1840
9755,1838
9756,1834
9757,1821
9758,1820
9759,1834
9760,1849
9761,1867
9762,1872
9763,1874
9764,1856
9765,1884
9766,1892
9767,1882
9768,1905
9769,1878
9770,1872
9771,1837
9772,1834
9773,1824
9774,1811
9775,1803
9776,1826
9777,1862
9778,1862
9779,1862
9780,1863
9781,1887
9782,1898
9783,1888
9784,1895
9785,1915
9786,1863
9787,1863
9788,1846
9789,1834
9790,1819
9791,1827
9792,1841
9793,1824
9794,1850
9795,1863
9796,1872
9797,1871
9798,1895
9799,1906
9800,1899
9801,1893
9802,1882
9803,1871
9804,1857
9805,1826
9806,1821
9807,1824
9808,1822
9809,1839
9810,1849
9811,1859
9812,1845
9813,1872
9814,1902
9815,1893
9816,1890
9817,1870
9818,1874
9819,1883
9820,1851
9821,1854
9822,1846
9823,1811
9824,1825
9825,1814
9826,1840
9827,1839
9828,1872
9829,1882
9830,1863
9831,1878
9832,1875
9833,1879
9834,1883
9835,1898
9836,1869
9837,1841
9838,1840
9839,1839
9840,1815
9841,1809
9842,1825
9843,1859
9844,1884
9845,1876
9846,1871
9847,1890
9848,1889
9849,1895
9850,1887
9851,1908
9852,1880
9853,1875
9854,1849
9855,1838
9856,1823
9857,1821
9858,1810
9859,1829
9860,1863
9861,1861
9862,1861
9863,1854
9864,1905
9865,1878
9866,1883
9867,1874
9868,1902
9869,1875
9870,1869
9871,1839
9872,1830
9873,1830
9874,1808
9875,1840
9876,1840
9877,1858
9878,1865
9879,1881
9880,1876
9881,1879
9882,1885
9883,1879
9884,1901
9885,1875
9886,1872
9887,1856
9888,1841
9889,1805
9890,1817
9891,1823
9892,1835
9893,1830
9894,1850
9895,1869
9896,1860
9897,1870
9898,1891
9899,1888
9900,1904
9901,1893
9902,1871
9903,1867
9904,1865
9905,1842
9906,1808
9907,1827
9908,1822
9909,1839
9910,1835
9911,1855
9912,1872
9913,1870
9914,1871
9915,1893
9916,1899
9917,1890
9918,1904
9919,1869
9920,1858
9921,1850
9922,1830
9923,1794
9924,1837
9925,1827
9926,1831
9927,1856
9928,1859
9929,1845
9930,1871
9931,1872
9932,1877
9933,1891
9934,1901
9935,1904
9936,1867
9937,1851
9938,1842
9939,1867
9940,1818
9941,1822
9942,1827
9943,1854
9944,1845
9945,1873
9946,1872
9947,1872
9948,1892
9949,1877
9950,1885
9951,1898
9952,1870
9953,1863
9954,1857
9955,1845
9956,1826
9957,1817
9958,1813
9959,1833
9960,1824
9961,1863
9962,1894
9963,1890
9964,1872
9965,1888
9966,1891
9967,1911
9968,1899
9969,1872
9970,1861
9971,1840
9972,1826
9973,1808
9974,1838
9975,1839
9976,1836
9977,1858
9978,1869
9979,1873
9980,1875
9981,1891
9982,1897
9983,1889
9984,1903
9985,1904
9986,1866
9987,1838
9988,1831
9989,1845
9990,1815
9991,1823
9992,1815
9993,1828
9994,1856
9995,1867
9996,1885
9997,1876
9998,1891
9999,1878
10000,1888
10001,1903
10002,1871
10003,1878
10004,1861
10005,1849
10006,1827
10007,1823
10008,1819
10009,1854
10010,1840
10011,1865
10012,1877
10013,1877
10014,1884
10015,1881
10016,1885
10017,1886
10018,1902
10019,1855
10020,1872
10021,1858
10022,1837
10023,1835
10024,1809
10025,1841
10026,1821
10027,1836
10028,1877
10029,1872
10030,1866
10031,1885
10032,1881
10033,1895
10034,1893
10035,1899
10036,1872
10037,1860
10038,1843
10039,1831
10040,1815
10041,1821
10042,1839
10043,1845
10044,1843
10045,1872
10046,1873
10047,1872
10048,1894
10049,1875
10050,1891
10051,1887
10052,1887
10053,1879
10054,1840
10055,1847
10056,1840
10057,1820
10058,1824
10059,1862
10060,1830
10061,1859
10062,1884
10063,1888
10064,1891
10065,1887
10066,1891
10067,1879
10068,1885
10069,1874
10070,1851
10071,1839
10072,1842
10073,1820
10074,1809
10075,1825
10076,1818
10077,1821
10078,1857
10079,1887
10080,1897
10081,1885
10082,1894
10083,1894
10084,1858
10085,1891
10086,1863
10087,1867
10088,1860
10089,1833
10090,1823
10091,1822
10092,1808
10093,1833
10094,1855
10095,1857
10096,1858
10097,1877
10098,1891
10099,1874
10100,1899
10101,1889
10102,1881
10103,1872
10104,1844
10105,1850
10106,1815
10107,1809
10108,1810
10109,1858
10110,1845
10111,1866
10112,1883
10113,1890
10114,1894
10115,1901
10116,1891
10117,1877
10118,1905
10119,1877
10120,1861
10121,1839
10122,1839
10123,1837
10124,1818
10125,1826
10126,1836
10127,1856
10128,1869
10129,1872
10130,1874
10131,1878
10132,1900
10133,1898
10134,1924
10135,1888
10136,1875
10137,1847
10138,1826
10139,1820
10140,1800
10141,1815
10142,1818
10143,1837
10144,1829
10145,1866
10146,1878
10147,1871
10148,1891
10149,1875
10150,1893
10151,1898
10152,1873
10153,1870
10154,1847
10155,1846
10156,1817
10157,1829
10158,1824
10159,1797
10160,1841
10161,1871
10162,1864
10163,1869
10164,1872
10165,1877
10166,1879
10167,1879
10168,1888
10169,1869
10170,1870
10171,1863
10172,1841
10173,1831
10174,1805
10175,1837
10176,1825
10177,1869
10178,1872
10179,1867
10180,1872
10181,1878
10182,1889
10183,1895
10184,1914
10185,1894
10186,1867
10187,1861
10188,1855
10189,1840
10190,1820
10191,1824
10192,1814
10193,1845
10194,1852
10195,1868
10196,1874
10197,1887
10198,1872
10199,1887
10200,1879
10201,1893
10202,1875
10203,1867
10204,1841
10205,1846
10206,1828
10207,1822
10208,1824
10209,1856
10210,1840
10211,1850
10212,1851
10213,1855
10214,1872
10215,1885
10216,1899
10217,1881
10218,1906
10219,1879
10220,1846
10221,1846
10222,1825
10223,1815
10224,1822
10225,1805
10226,1835
10227,1843
10228,1870
10229,1862
10230,1884
10231,1879
10232,1888
10233,1893
10234,1923
10235,1901
10236,1861
10237,1862
10238,1838
10239,1845
10240,1831
10241,1821
10242,1835
10243,1843
10244,1845
10245,1873
10246,1893
10247,1879
10248,1890
10249,1894
10250,1882
10251,1893
10252,1911
10253,1872
10254,1873
10255,1842
10256,1829
10257,1815
10258,1819
10259,1805
10260,1834
10261,1873
10262,1903
10263,1895
10264,1882
10265,1891
10266,1890
10267,1898
10268,1900
10269,1885
10270,1871
10271,1847
10272,1831
10273,1815
10274,1833
10275,1830
10276,1830
10277,1868
10278,1866
10279,1871
10280,1865
10281,1861
10282,1891
10283,1893
10284,1915
10285,1893
10286,1872
10287,1843
10288,1834
10289,1835
10290,1807
10291,1829
10292,1814
10293,1823
10294,1853
10295,1866
10296,1882
10297,1879
10298,1877
10299,1898
10300,1902
10301,1904
10302,1885
10303,1874
10304,1847
10305,1840
10306,1809
10307,1817
10308,1825
10309,1829
10310,1834
10311,1867
10312,1875
10313,1874
10314,1871
10315,1890
10316,1872
10317,1898
10318,1886
10319,1872
10320,1856
10321,1845
10322,1840
10323,1808
10324,1814
10325,1830
10326,1817
10327,1831
10328,1873
10329,1878
10330,1873
10331,1894
10332,1895
10333,1898
10334,1885
10335,1910
10336,1877
10337,1867
10338,1840
10339,1823
10340,1818
10341,1827
10342,1818
10343,1837
10344,1847
10345,1859
10346,1872
10347,1861
10348,1889
10349,1872
10350,1904
10351,1898
10352,1875
10353,1872
10354,1850
10355,1841
10356,1833
10357,1823
10358,1821
10359,1855
10360,1840
10361,1861
10362,1891
10363,1865
10364,1891
10365,1895
10366,1892
10367,1898
10368,1893
10369,1890
10370,1874
10371,1860
10372,1843
10373,1826
10374,1815
10375,1808
10376,1826
10377,1851
10378,1856
10379,1859
10380,1892
10381,1878
10382,1884
10383,1894
10384,1914
10385,1883
10386,1855
10387,1874
10388,1841
10389,1837
10390,1814
10391,1829
10392,1814
10393,1840
10394,1851
10395,1869
10396,1872
10397,1872
10398,1880
10399,1892
10400,1903
10401,1885
10402,1906
10403,1881
10404,1840
10405,1829
10406,1831
10407,1811
10408,1818
10409,1841
10410,1850
10411,1856
10412,1878
10413,1904
10414,1879
10415,1877
10416,1897
10417,1873
10418,1891
10419,1885
10420,1855
10421,1856
10422,1841
10423,1815
10424,1810
10425,1802
10426,1829
10427,1824
10428,1858
10429,1863
10430,1863
10431,1895
10432,1885
10433,1893
10434,1883
10435,1904
10436,1873
10437,1870
10438,1810
10439,1809
10440,1814
10441,1814
10442,1827
10443,1840
10444,1850
10445,1868
10446,1881
10447,1873
10448,1872
10449,1901
10450,1905
10451,1907
10452,1893
10453,1857
10454,1858
10455,1856
10456,1835
10457,1821
10458,1826
10459,1809
10460,1823
10461,1865
10462,1859
10463,1872
10464,1886
10465,1888
10466,1867
10467,1876
10468,1885
10469,1884
10470,1875
10471,1872
10472,1854
10473,1833
10474,1825
10475,1821
10476,1835
10477,1855
10478,1869
10479,1878
10480,1894
10481,1901
10482,1890
10483,1892
10484,1876
10485,1904
10486,1878
10487,1853
10488,1858
10489,1855
10490,1821
10491,1837
10492,1821
10493,1834
10494,1847
10495,1866
10496,1872
10497,1885
10498,1881
10499,1886
10500,1902
10501,1887
10502,1909
10503,1869
10504,1862
10505,1845
10506,1826
10507,1818
10508,1822
10509,1846
10510,1825
10511,1855
10512,1873
10513,1891
10514,1871
10515,1895
10516,1901
10517,1893
10518,1891
10519,1887
10520,1868
10521,1834
10522,1836
10523,1814
10524,1802
10525,1811
10526,1815
10527,1856
10528,1862
10529,1860
10530,1861
10531,1878
10532,1885
10533,1893
10534,1893
10535,1888
10536,1875
10537,1859
10538,1856
10539,1835
10540,1821
10541,1824
10542,1835
10543,1841
10544,1850
10545,1874
10546,1877
10547,1866
10548,1877
10549,1904
10550,1895
10551,1887
10552,1904
10553,1871
10554,1840
10555,1815
10556,1838
10557,1813
10558,1811
10559,1815
10560,1825
10561,1855
10562,1878
10563,1872
10564,1883
10565,1890
10566,495
10567,1409
10568,2029
10569,2168
10570,2233
10571,2255
10572,2256
10573,2256
10574,2176
10575,2067
10576,1978
10577,1751
10578,1531
10579,1535
10580,1665
10581,1810
10582,1898
10583,1974
10584,2027
10585,2045
10586,2000
10587,1941
10588,1879
10589,1798
10590,1717
10591,1693
10592,1639
10593,1659
10594,1703
10595,1713
10596,1749
10597,1269
10598,1285
10599,1974
10600,2209
10601,2321
10602,2335
10603,2311
10604,2251
10605,2117
10606,1967
10607,1780
10608,1531
10609,1488
10610,1610
10611,1771
10612,1919
10613,1983
10614,2047
10615,2062
10616,2025
10617,1984
10618,1910
10619,1797
10620,1717
10621,1648
10622,1648
10623,1633
10624,1681
10625,1712
10626,1759
10627,1791
10628,1683
10629,1302
10630,1963
10631,2282
10632,2433
10633,2459
10634,2453
10635,2321
10636,2112
10637,1904
10638,1619
10639,1457
10640,1498
10641,1637
10642,1822
10643,1919
10644,2046
10645,2111
10646,2137
10647,2099
10648,2005
10649,1894
10650,1734
10651,1648
10652,1575
10653,1568
10654,1613
10655,1658
10656,1707
10657,1754
10658,1794
10659,1846
10660,1212
10661,1968
10662,2307
10663,2455
10664,2496
10665,2399
10666,2240
10667,2073
10668,1795
10669,1511
10670,1478
10671,1605
10672,1754
10673,1853
10674,1946
10675,2072
10676,2121
10677,2125
10678,2102
10679,1959
10680,1845
10681,1690
10682,1611
10683,1573
10684,1602
10685,1655
10686,1709
10687,1750
10688,1785
10689,1808
10690,1817
10691,1124
10692,1895
10693,2247
10694,2474
10695,2509
10696,2373
10697,2234
10698,2009
10699,1686
10700,1535
10701,1565
10702,1655
10703,1785
10704,1905
10705,2003
10706,2125
10707,2118
10708,2093
10709,2033
10710,1904
10711,1785
10712,1677
10713,1586
10714,1583
10715,1639
10716,1694
10717,1749
10718,1818
10719,1840
10720,1866
10721,1872
10722,1248
10723,1851
10724,2162
10725,2416
10726,2427
10727,2303
10728,2134
10729,1874
10730,1616
10731,1520
10732,1561
10733,1697
10734,1849
10735,1967
10736,2035
10737,2070
10738,2087
10739,2071
10740,1996
10741,1911
10742,1776
10743,1648
10744,1602
10745,1616
10746,1643
10747,1711
10748,1760
10749,1832
10750,1857
10751,1878
10752,1901
10753,874
10754,1829
10755,2135
10756,2415
10757,2443
10758,2327
10759,2134
10760,1843
10761,1663
10762,1611
10763,1572
10764,1711
10765,1871
10766,1978
10767,2039
10768,2103
10769,2138
10770,2096
10771,2006
10772,1894
10773,1757
10774,1643
10775,1575
10776,1577
10777,1607
10778,1686
10779,1734
10780,1776
10781,1840
10782,1882
10783,1893
10784,420
10785,1778
10786,2128
10787,2419
10788,2454
10789,2343
10790,2135
10791,1863
10792,1653
10793,1607
10794,1606
10795,1744
10796,1874
10797,1975
10798,2027
10799,2110
10800,2128
10801,2099
10802,2047
10803,1904
10804,1776
10805,1623
10806,1584
10807,1573
10808,1623
10809,1667
10810,1721
10811,1791
10812,1837
10813,1868
10814,1879
10815,131
10816,1760
10817,2121
10818,2445
10819,2512
10820,2398
10821,2158
10822,1782
10823,1583
10824,1573
10825,1554
10826,1682
10827,1861
10828,1986
10829,2082
10830,2128
10831,2160
10832,2113
10833,2052
10834,1911
10835,1786
10836,1677
10837,1586
10838,1582
10839,1590
10840,1639
10841,1683
10842,1727
10843,1795
10844,1871
10845,1882
10846,16
10847,1623
10848,2096
10849,2374
10850,2464
10851,2408
10852,2221
10853,1867
10854,1708
10855,1664
10856,1584
10857,1712
10858,1849
10859,1958
10860,2032
10861,2098
10862,2137
10863,2095
10864,2013
10865,1907
10866,1792
10867,1678
10868,1625
10869,1634
10870,1674
10871,1710
10872,1739
10873,1757
10874,1789
10875,1808
10876,1857
10877,693
10878,1505
10879,2052
10880,2349
10881,2485
10882,2417
10883,2256
10884,1910
10885,1734
10886,1690
10887,1598
10888,1706
10889,1850
10890,1920
10891,1994
10892,2042
10893,2096
10894,2093
10895,2000
10896,1907
10897,1770
10898,1677
10899,1627
10900,1633
10901,1728
10902,1744
10903,1768
10904,1810
10905,1828
10906,1826
10907,1831
10908,1555
10909,1378
10910,1998
10911,2333
10912,2491
10913,2442
10914,2256
10915,1920
10916,1728
10917,1680
10918,1606
10919,1715
10920,1887
10921,1961
10922,2007
10923,2078
10924,2086
10925,2071
10926,1982
10927,1882
10928,1769
10929,1678
10930,1600
10931,1616
10932,1675
10933,1719
10934,1762
10935,1808
10936,1831
10937,1840
10938,1855
10939,1837
10940,1409
10941,1938
10942,2281
10943,2437
10944,2384
10945,2207
10946,1879
10947,1698
10948,1714
10949,1649
10950,1762
10951,1891
10952,2027
10953,2061
10954,2096
10955,2133
10956,2086
10957,1978
10958,1870
10959,1730
10960,1631
10961,1579
10962,1599
10963,1619
10964,1683
10965,1750
10966,1822
10967,1875
10968,1898
10969,1920
10970,1907
10971,1330
10972,1915
10973,2227
10974,2402
10975,2339
10976,2206
10977,1890
10978,1702
10979,1738
10980,1648
10981,1751
10982,1916
10983,2000
10984,2080
10985,2118
10986,2126
10987,2101
10988,2019
10989,1879
10990,1744
10991,1616
10992,1535
10993,1535
10994,1623
10995,1679
10996,1750
10997,1805
10998,1841
10999,1884
11000,1899
11001,1895
11002,1155
11003,1906
11004,2235
11005,2454
11006,2376
11007,2239
11008,1876
11009,1666
11010,1698
11011,1647
11012,1702
11013,1878
11014,1971
11015,2065
11016,2122
11017,2167
11018,2142
11019,2043
11020,1907
11021,1751
11022,1618
11023,1535
11024,1532
11025,1587
11026,1680
11027,1721
11028,1794
11029,1845
11030,1871
11031,1875
11032,1904
11033,879
11034,1891
11035,2227
11036,2459
11037,2442
11038,2330
11039,1982
11040,1647
11041,1678
11042,1584
11043,1623
11044,1833
11045,1953
11046,2073
11047,2135
11048,2176
11049,2150
11050,2091
11051,1939
11052,1840
11053,1712
11054,1593
11055,1535
11056,1569
11057,1605
11058,1680
11059,1731
11060,1776
11061,1840
11062,1880
11063,1903
11064,758
11065,1865
11066,2203
11067,2463
11068,2461
11069,2355
11070,2023
11071,1695
11072,1727
11073,1637
11074,1663
11075,1831
11076,1950
11077,2017
11078,2111
11079,2154
11080,2146
11081,2060
11082,1949
11083,1818
11084,1693
11085,1616
11086,1575
11087,1613
11088,1627
11089,1702
11090,1723
11091,1792
11092,1791
11093,1856
11094,1856
11095,306
11096,1807
11097,2166
11098,2444
11099,2480
11100,2391
11101,2047
11102,1725
11103,1727
11104,1626
11105,1621
11106,1776
11107,1879
11108,1962
11109,2032
11110,2107
11111,2139
11112,2065
11113,1982
11114,1808
11115,1713
11116,1601
11117,1575
11118,1616
11119,1666
11120,1746
11121,1777
11122,1822
11123,1823
11124,1819
11125,1842
11126,0
11127,1648
11128,2086
11129,2410
11130,2439
11131,2377
11132,2118
11133,1733
11134,1744
11135,1715
11136,1702
11137,1809
11138,1943
11139,2000
11140,2021
11141,2081
11142,2064
11143,2000
11144,1952
11145,1825
11146,1713
11147,1625
11148,1610
11149,1660
11150,1710
11151,1739
11152,1808
11153,1808
11154,1853
11155,1846
11156,1859
11157,101
11158,1586
11159,2045
11160,2352
11161,2439
11162,2379
11163,2132
11164,1730
11165,1744
11166,1690
11167,1685
11168,1842
11169,1966
11170,2026
11171,2112
11172,2136
11173,2114
11174,2064
11175,1963
11176,1840
11177,1680
11178,1600
11179,1598
11180,1570
11181,1653
11182,1710
11183,1773
11184,1839
11185,1856
11186,1872
11187,1892
11188,1885
11189,1873
11190,1872
11191,1880
11192,1860
11193,1863
11194,1889
11195,1898
11196,1899
11197,1895
11198,1910
11199,1915
11200,1917
11201,1934
11202,1929
11203,1872
11204,1871
11205,1854
11206,1862
11207,1843
11208,1839
11209,1852
11210,1829
11211,1834
11212,1868
11213,1865
11214,1878
11215,1893
11216,1889
11217,1901
11218,1893
11219,1881
11220,1870
11221,1863
11222,1840
11223,1801
11224,1817
11225,1811
11226,1818
11227,1834
11228,1859
11229,1866
11230,1874
11231,1881
11232,1892
11233,1911
11234,1899
11235,1891
11236,1901
11237,1867
11238,1840
11239,1843
11240,1824
11241,1819
11242,1825
11243,1847
11244,1856
11245,1858
11246,1861
11247,1889
11248,1889
11249,1879
11250,1875
11251,1871
11252,1872
11253,1877
11254,1845
11255,1852
11256,1823
11257,1823
11258,1826
11259,1837
11260,1833
11261,1844
11262,1861
11263,1885
11264,1889
11265,1886
11266,1882
11267,1894
11268,1886
11269,1915
11270,1890
11271,1872
11272,1862
11273,1822
11274,1821
11275,1815
11276,1842
11277,1827
11278,1850
11279,1872
11280,1898
11281,1893
11282,1874
11283,1883
11284,1903
11285,1889
11286,1894
11287,1863
11288,1849
11289,1850
11290,1847
11291,1813
11292,1819
11293,1826
11294,1830
11295,1858
11296,1869
11297,1872
11298,1865
11299,1887
11300,1893
11301,1919
11302,1904
11303,1877
11304,1876
11305,1842
11306,1839
11307,1808
11308,1833
11309,1825
11310,1813
11311,1842
11312,1849
11313,1855
11314,1869
11315,1883
11316,1888
11317,1892
11318,1888
11319,1872
11320,1871
11321,1862
11322,1840
11323,1856
11324,1825
11325,1825
11326,1840
11327,1841
11328,1860
11329,1867
11330,1883
11331,1879
11332,1885
11333,1887
11334,1882
11335,1874
11336,1869
11337,1856
11338,1837
11339,1824
11340,1823
11341,1807
11342,1810
11343,1821
11344,1837
11345,1855
11346,1871
11347,1876
11348,1877
11349,1888
11350,1893
11351,1913
11352,1914
11353,1873
11354,1874
11355,1857
11356,1843
11357,1829
11358,1804
11359,1837
11360,1845
11361,1841
11362,1872
11363,1872
11364,1870
11365,1874
11366,1886
11367,1878
11368,1891
11369,1885
11370,1879
11371,1842
11372,1822
11373,1851
11374,1819
11375,1820
11376,1840
11377,1847
11378,1843
11379,1852
11380,1888
11381,1883
11382,1904
11383,1882
11384,1891
11385,1888
11386,1888
11387,1872
11388,1850
11389,1840
11390,1834
11391,1843
11392,1807
11393,1821
11394,1851
11395,1866
11396,1869
11397,1867
11398,1893
11399,1892
11400,1890
11401,1901
11402,1915
11403,1863
11404,1856
11405,1845
11406,1840
11407,1833
11408,1829
11409,1818
11410,1840
11411,1841
11412,1846
11413,1872
11414,1867
11415,1883
11416,1902
11417,1879
11418,1903
11419,1913
11420,1878
11421,1870
11422,1838
11423,1808
11424,1817
11425,1814
11426,1793
11427,1833
11428,1863
11429,1877
11430,1855
11431,1877
11432,1879
11433,1886
11434,1872
11435,1894
11436,1877
11437,1883
11438,1850
11439,1837
11440,1827
11441,1807
11442,1808
11443,1835
11444,1857
11445,1858
11446,1890
11447,1888
11448,1882
11449,1894
11450,1897
11451,1915
11452,1904
11453,1873
11454,1855
11455,1847
11456,1834
11457,1819
11458,1803
11459,1825
11460,1827
11461,1847
11462,1869
11463,1891
11464,1872
11465,1885
11466,1896
11467,1903
11468,1893
11469,1907
11470,1874
11471,1856
11472,1860
11473,1822
11474,1815
11475,1825
11476,1813
11477,1824
11478,1853
11479,1879
11480,1875
11481,1872
11482,1893
11483,1874
11484,1893
11485,1886
11486,1874
11487,1856
11488,1872
11489,1842
11490,1840
11491,1829
11492,1830
11493,1835
11494,1808
11495,1862
11496,1885
11497,1895
11498,1884
11499,1889
11500,1892
11501,1891
11502,1889
11503,1883
11504,1882
11505,1856
11506,1831
11507,1821
11508,1795
11509,1822
11510,1842
11511,1847
11512,1870
11513,1887
11514,1872
11515,1866
11516,1887
11517,1890
11518,1893
11519,1909
11520,1858
11521,1856
11522,1844
11523,1803
11524,1818
11525,1823
11526,1809
11527,1845
11528,1851
11529,1872
11530,1872
11531,1887
11532,1897
11533,1904
11534,1892
11535,1888
11536,1904
11537,1873
11538,1854
11539,1839
11540,1823
11541,1818
11542,1829
11543,1840
11544,1819
11545,1856
11546,1856
11547,1859
11548,1887
11549,1883
11550,1890
11551,1882
11552,1895
11553,1875
11554,1882
11555,1854
11556,1850
11557,1821
11558,1830
11559,1824
11560,1819
11561,1840
11562,1870
11563,1872
11564,1894
11565,1887
11566,1898
11567,1891
11568,1900
11569,1900
11570,1874
11571,1847
11572,1842
11573,1841
11574,1821
11575,1814
11576,1799
11577,1846
11578,1842
11579,1857
11580,1875
11581,1877
11582,1875
11583,1884
11584,1878
11585,1904
11586,1873
11587,1872
11588,1858
11589,1840
11590,1821
11591,1822
11592,1824
11593,1823
11594,1859
11595,1861
11596,1867
11597,1885
11598,1898
11599,1897
11600,1896
11601,1893
11602,1895
11603,1849
11604,1856
11605,1841
11606,1825
11607,1819
11608,1808
11609,1809
11610,1827
11611,1825
11612,1872
11613,1881
11614,1868
11615,1901
11616,1883
11617,1888
11618,1846
11619,1877
11620,1863
11621,1845
11622,1837
11623,1821
11624,1821
11625,1824
11626,1837
11627,1854
11628,1865
11629,1871
11630,1883
11631,1866
11632,1895
11633,1886
11634,1899
11635,1887
11636,1884
11637,1861
11638,1853
11639,1853
11640,1825
11641,1808
11642,1814
11643,1859
11644,1855
11645,1860
11646,1869
11647,1871
11648,1881
11649,1884
11650,1895
11651,1883
11652,1905
11653,1867
11654,1859
11655,1842
11656,1840
11657,1818
11658,1809
11659,1808
11660,1835
11661,1859
11662,1863
11663,1887
11664,1880
11665,1879
11666,1884
11667,1889
11668,1907
11669,1902
11670,1872
11671,1853
11672,1838
11673,1849
11674,1824
11675,1822
11676,1808
11677,1821
11678,1856
11679,1872
11680,1881
11681,1872
11682,1887
11683,1884
11684,1885
11685,1891
11686,1904
11687,1886
11688,1865
11689,1840
11690,1824
11691,1817
11692,1828
11693,1831
11694,1843
11695,1865
11696,1869
11697,1871
11698,1893
11699,1893
11700,1889
11701,1904
11702,1885
11703,1873
11704,1870
11705,1842
11706,1840
11707,1821
11708,1812
11709,1822
11710,1840
11711,1840
11712,1871
11713,1862
11714,1861
11715,1885
11716,1901
11717,1894
11718,1916
11719,1895
11720,1881
11721,1858
11722,1841
11723,1799
11724,1810
11725,1818
11726,1835
11727,1822
11728,1861
11729,1859
11730,1872
11731,1886
11732,1874
11733,1878
11734,1869
11735,1899
11736,1904
11737,1867
11738,1861
11739,1841
11740,1829
11741,1824
11742,1818
11743,1857
11744,1840
11745,1857
11746,1871
11747,1879
11748,1899
11749,1894
11750,1893
11751,1885
11752,1904
11753,1901
11754,1882
11755,1845
11756,1840
11757,1811
11758,1808
11759,1811
11760,1823
11761,1853
11762,1856
11763,1878
11764,1883
11765,1891
11766,1895
11767,1890
11768,1919
11769,1904
11770,1873
11771,1872
11772,1844
11773,1858
11774,1813
11775,1829
11776,1843
11777,1826
11778,1850
11779,1873
11780,1878
11781,1884
11782,1885
11783,1908
11784,1904
11785,1886
11786,1875
11787,1866
11788,1856
11789,1840
11790,1842
11791,1814
11792,1822
11793,1804
11794,1830
11795,1871
11796,1862
11797,1870
11798,1878
11799,1878
11800,1895
11801,1909
11802,1893
11803,1895
11804,1861
11805,1859
11806,1833
11807,1814
11808,1808
11809,1831
11810,1833
11811,1836
11812,1861
11813,1865
11814,1861
11815,1891
11816,1883
11817,1889
11818,1916
11819,1888
11820,1875
11821,1855
11822,1848
11823,1829
11824,1827
11825,1822
11826,1831
11827,1827
11828,1850
11829,1857
11830,1856
11831,1872
11832,1886
11833,1904
11834,1904
11835,1904
11836,1903
11837,1872
11838,1861
11839,1840
11840,1826
11841,1821
11842,1825
11843,1812
11844,1835
11845,1851
11846,1867
11847,1869
11848,1858
11849,1890
11850,1896
11851,1904
11852,1895
11853,1892
11854,1871
11855,1840
11856,1835
11857,1811
11858,1839
11859,1811
11860,1840
11861,1866
11862,1857
11863,1869
11864,1873
11865,1891
11866,1893
11867,1893
11868,1914
11869,1897
11870,1878
11871,1859
11872,1842
11873,1839
11874,1809
11875,1829
11876,1835
11877,1823
11878,1869
11879,1857
11880,1873
11881,1873
11882,1901
11883,1902
11884,1872
11885,1904
11886,1906
11887,1873
11888,1870
11889,1853
11890,1833
11891,1824
11892,1823
11893,1819
11894,1843
11895,1852
11896,1894
11897,1889
11898,1875
11899,1885
11900,1886
11901,1904
11902,1899
11903,1901
11904,1857
11905,1874
11906,1845
11907,1808
11908,1829
11909,1822
11910,1823
11911,1840
11912,1858
11913,1872
11914,1872
11915,1888
11916,1883
11917,1898
11918,1917
11919,1893
11920,1865
11921,1872
11922,1840
11923,1827
11924,1830
11925,1842
11926,1821
