Time(ms),Raw_ADC,ENV_Value,RMS,MDF,MW_Amp,MW_Area,MW_Latency,MW_Valid,Marker
0,1865.2,75.7,0.0,0.0,0.0,0.0,0.0,0,
100,1861.3,36.1,0.0,0.0,0.0,0.0,0.0,0,
200,1856.8,12.7,0.0,0.0,0.0,0.0,0.0,0,
300,1861.2,11.5,0.0,0.0,0.0,0.0,0.0,0,
400,1859.6,13.2,0.0,0.0,0.0,0.0,0.0,0,
500,1859.6,10.6,0.0,195.7,0.0,0.0,0.0,0,
600,1859.2,14.2,0.0,108.4,0.0,0.0,0.0,0,
700,1859.9,9.0,0.0,84.4,0.0,0.0,0.0,0,
800,1858.7,11.4,0.0,83.4,0.0,0.0,0.0,0,
900,1859.9,11.2,0.0,82.1,0.0,0.0,0.0,0,
1000,1859.2,12.7,0.0,82.2,0.0,0.0,0.0,0,
1100,1859.9,127.5,0.0,90.9,0.0,0.0,0.0,0,
1200,1862.0,142.8,0.0,136.3,0.0,0.0,0.0,0,
1300,1846.4,125.4,0.0,157.4,0.0,0.0,0.0,0,
1400,1865.2,108.2,0.0,158.5,0.0,0.0,0.0,0,
1500,1864.0,77.9,0.0,165.7,0.0,0.0,0.0,0,
1600,1856.6,125.9,139.1,228.4,0.0,0.0,0.0,0,
1700,1854.8,58.5,140.4,232.0,0.0,0.0,0.0,0,
1800,1864.0,11.6,139.2,227.1,0.0,0.0,0.0,0,
1900,1861.4,12.8,139.2,196.0,0.0,0.0,0.0,0,
2000,1861.7,11.3,139.1,200.6,0.0,0.0,0.0,0,
2100,1860.4,13.5,139.1,217.9,0.0,0.0,0.0,0,
2200,1859.9,10.8,139.1,190.4,0.0,0.0,0.0,0,
2300,1858.6,11.2,139.1,74.9,0.0,0.0,0.0,0,
2400,1859.4,10.9,139.1,72.5,0.0,0.0,0.0,0,
2600,1858.9,11.0,139.2,69.0,0.0,0.0,0.0,0,
2700,1858.4,83.5,139.1,72.2,0.0,0.0,0.0,0,
2800,1856.3,124.9,137.8,102.9,0.0,0.0,0.0,0,
2900,1857.2,97.6,139.9,143.9,0.0,0.0,0.0,0,
3000,1855.0,81.5,138.2,158.1,0.0,0.0,0.0,0,
3100,1849.8,146.5,137.1,164.9,0.0,0.0,0.0,0,
3200,1859.0,140.8,141.6,195.6,0.0,0.0,0.0,0,
3300,1863.6,115.0,144.1,219.1,0.0,0.0,0.0,0,
3400,1855.1,16.2,143.9,225.9,0.0,0.0,0.0,0,
3600,1862.8,9.7,143.9,190.0,0.0,0.0,0.0,0,
3700,1860.0,10.0,143.8,189.6,0.0,0.0,0.0,0,
3800,1858.7,8.5,143.8,190.2,0.0,0.0,0.0,0,
3900,1858.8,9.2,143.8,68.5,0.0,0.0,0.0,0,
4000,1859.6,10.4,143.8,69.1,0.0,0.0,0.0,0,
4100,1859.1,8.9,143.8,69.8,0.0,0.0,0.0,0,
4200,1859.1,9.2,143.8,70.6,0.0,0.0,0.0,0,
4300,1859.3,9.1,143.7,74.3,0.0,0.0,0.0,0,
4400,1864.7,95.0,144.1,133.9,0.0,0.0,0.0,0,
4600,1849.4,141.2,144.0,155.8,0.0,0.0,0.0,0,
4700,1862.2,137.5,144.3,158.9,0.0,0.0,0.0,0,
4800,1864.6,100.9,143.9,216.7,0.0,0.0,0.0,0,
4900,1861.7,88.6,143.8,237.6,0.0,0.0,0.0,0,
5000,1849.2,19.5,143.2,252.9,0.0,0.0,0.0,0,
5100,1858.9,9.4,143.2,227.1,0.0,0.0,0.0,0,
5200,1861.4,11.3,143.2,190.4,0.0,0.0,0.0,0,
5300,1860.0,9.0,143.2,184.8,0.0,0.0,0.0,0,
5400,1858.6,12.1,143.2,171.7,0.0,0.0,0.0,0,
5600,1858.5,8.9,143.2,55.9,0.0,0.0,0.0,0,
5700,1858.5,9.7,143.2,68.3,0.0,0.0,0.0,0,
5800,1860.8,9.6,143.2,75.7,0.0,0.0,0.0,0,
5900,1859.5,9.6,143.2,69.4,0.0,0.0,0.0,0,
6000,1858.5,108.7,143.2,68.4,0.0,0.0,0.0,0,
6100,1851.9,160.2,144.5,146.6,0.0,0.0,0.0,0,
6200,1854.3,135.4,145.5,154.6,0.0,0.0,0.0,0,
6300,1867.7,103.7,145.7,158.0,0.0,0.0,0.0,0,
6400,1862.1,89.5,145.1,195.6,0.0,0.0,0.0,0,
6600,1859.3,28.5,143.7,249.3,0.0,0.0,0.0,0,
6700,1857.0,10.5,143.7,229.8,0.0,0.0,0.0,0,
6800,1861.2,8.7,143.7,190.1,0.0,0.0,0.0,0,
6900,1859.1,6.8,143.6,168.1,0.0,0.0,0.0,0,
7000,1859.8,9.5,143.6,163.6,0.0,0.0,0.0,0,
7100,1859.3,8.3,143.6,156.0,0.0,0.0,0.0,0,
7200,1858.6,8.3,143.6,85.3,0.0,0.0,0.0,0,
7300,1859.1,9.1,143.6,85.5,0.0,0.0,0.0,0,
7400,1858.4,10.1,143.6,82.6,0.0,0.0,0.0,0,
7600,1858.7,203.5,143.6,80.4,876.0,3511.0,3.0,1,
7700,1850.3,57.3,166.4,34.7,889.0,2632.0,3.0,1,
7800,1871.1,148.2,159.4,36.3,868.0,2490.0,3.0,1,
7900,1855.8,80.1,161.5,45.0,1053.0,2431.0,3.0,1,
8000,1853.9,19.8,159.3,80.7,934.0,2599.0,4.0,1,
8100,1860.6,27.8,149.0,36.0,725.0,2245.0,2.0,0,
8200,1852.0,17.8,137.2,27.7,903.0,2083.0,3.0,1,
8300,1864.5,8.7,134.1,28.9,903.0,2083.0,3.0,1,
8400,1859.8,9.0,134.1,27.2,903.0,2083.0,3.0,1,
8600,1859.2,8.9,134.1,30.2,903.0,2083.0,3.0,1,
8700,1858.6,8.2,134.1,56.9,903.0,2083.0,3.0,1,
8800,1859.6,9.7,134.1,99.8,903.0,2083.0,3.0,1,
8900,1858.8,8.7,134.1,86.8,903.0,2083.0,3.0,1,
9000,1858.8,8.3,134.1,99.1,903.0,2083.0,3.0,1,
9100,1858.8,9.1,134.1,106.1,903.0,2083.0,3.0,1,
9200,1859.1,125.9,134.0,117.8,903.0,2083.0,3.0,1,
9300,1864.2,42.7,100.8,37.8,1023.0,2821.0,3.0,1,
9400,1847.4,14.3,93.1,29.5,1131.0,3092.0,4.0,1,
9600,1862.4,85.8,59.4,29.0,895.0,2378.0,2.0,0,
9700,1853.0,20.4,70.8,26.2,1019.0,2438.0,3.0,1,
9800,1860.9,33.9,70.4,25.7,846.0,2663.0,4.0,1,
9900,1861.5,10.2,70.6,26.2,893.0,2593.0,3.0,1,
10000,1859.8,8.9,70.6,27.9,893.0,2593.0,3.0,1,
10100,1858.5,8.5,70.6,34.9,893.0,2593.0,3.0,1,
10200,1859.0,8.2,70.6,57.5,893.0,2593.0,3.0,1,
10300,1859.5,9.5,70.6,69.5,893.0,2593.0,3.0,1,
10400,1858.7,8.6,70.6,98.7,893.0,2593.0,3.0,1,
10600,1859.1,10.0,70.6,102.2,893.0,2593.0,3.0,1,
10700,1858.4,8.1,70.6,85.9,893.0,2593.0,3.0,1,
10800,1858.0,8.1,70.6,108.0,893.0,2593.0,3.0,1,
10900,1860.2,117.6,69.0,40.6,1098.0,2762.0,3.0,1,
11000,1856.1,87.6,71.8,27.6,1247.0,3253.0,3.0,1,
11100,1863.2,9.5,78.9,27.1,981.0,2300.0,3.0,1,
11200,1864.4,16.4,75.1,27.4,1137.0,2572.0,3.0,1,
11300,1849.8,76.3,63.3,28.5,912.0,2497.0,4.0,1,
11400,1856.4,34.7,67.4,28.7,964.0,2454.0,2.0,0,
11600,1859.8,8.8,66.7,27.2,964.0,2454.0,2.0,0,
11700,1861.7,7.7,66.7,28.3,964.0,2454.0,2.0,0,
11800,1860.3,8.8,66.7,29.2,964.0,2454.0,2.0,0,
11900,1859.2,8.2,66.7,40.0,964.0,2454.0,2.0,0,
12000,1859.3,7.8,66.7,100.5,964.0,2454.0,2.0,0,
12100,1859.7,9.3,66.7,99.4,964.0,2454.0,2.0,0,
12200,1858.8,8.6,66.7,99.4,964.0,2454.0,2.0,0,
12300,1858.6,8.3,66.7,100.7,964.0,2454.0,2.0,0,
12400,1859.3,9.3,66.7,99.8,964.0,2454.0,2.0,0,
12600,1860.1,18.1,52.1,36.9,1145.0,3056.0,3.0,1,
12700,1859.9,22.8,43.4,29.5,1344.0,3252.0,4.0,1,
12800,1844.6,16.6,47.3,29.1,1024.0,2521.0,2.0,0,
12900,1862.3,48.3,48.2,29.2,1072.0,2559.0,2.0,0,
13000,1860.4,30.5,40.6,29.0,1163.0,2731.0,3.0,1,
13100,1852.7,10.1,48.1,28.3,953.0,2621.0,4.0,1,
13200,1863.6,8.2,48.1,26.4,953.0,2621.0,4.0,1,
13300,1861.1,9.3,48.1,27.8,953.0,2621.0,4.0,1,
13400,1859.7,8.4,48.1,28.1,953.0,2621.0,4.0,1,
13600,1859.5,8.9,48.1,100.5,953.0,2621.0,4.0,1,
13700,1858.9,8.7,48.1,100.4,953.0,2621.0,4.0,1,
13800,1859.2,8.5,48.1,100.9,953.0,2621.0,4.0,1,
13900,1859.7,9.4,48.1,102.2,953.0,2621.0,4.0,1,
14000,1859.1,8.4,48.1,123.2,953.0,2621.0,4.0,1,
14100,1858.8,11.3,48.1,133.6,779.0,2907.0,3.0,1,
14200,1861.1,45.8,46.6,54.8,1291.0,3779.0,4.0,1,
14300,1849.8,92.0,51.1,29.1,955.0,2698.0,3.0,1,
14400,1860.9,29.0,53.2,29.2,1060.0,2690.0,3.0,1,
14600,1856.5,53.0,53.0,29.5,911.0,2656.0,4.0,1,
14700,1861.3,60.7,48.4,29.6,944.0,2485.0,2.0,0,
14800,1856.3,12.9,60.0,27.6,944.0,2485.0,2.0,0,rest_end
14900,1859.7,9.0,60.0,26.2,944.0,2485.0,2.0,0,
15000,1860.3,8.3,60.0,27.2,944.0,2485.0,2.0,0,
15100,1859.9,9.2,60.0,28.7,944.0,2485.0,2.0,0,
15200,1859.2,8.4,60.0,36.1,944.0,2485.0,2.0,0,
15300,1859.6,8.4,60.0,111.3,944.0,2485.0,2.0,0,
15400,1859.4,9.4,60.0,113.2,944.0,2485.0,2.0,0,
15600,1858.9,8.5,60.0,124.7,944.0,2485.0,2.0,0,
15700,1859.3,16.4,60.0,84.7,944.0,2485.0,2.0,0,
15800,1859.2,54.0,60.0,83.9,1311.0,3465.0,3.0,1,
15900,1857.6,22.5,54.6,55.4,878.0,2733.0,3.0,1,
16000,1852.4,16.8,48.1,36.2,977.0,2291.0,3.0,1,
16100,1849.0,155.8,49.0,30.1,837.0,2479.0,4.0,1,
16200,1871.8,66.0,66.8,29.4,890.0,2270.0,3.0,1,
16300,1862.3,20.6,66.8,27.0,809.0,1990.0,3.0,1,
16400,1853.2,10.3,57.0,26.7,859.0,2424.0,3.0,1,
16600,1859.5,9.1,56.9,34.6,859.0,2424.0,3.0,1,
16700,1858.5,8.8,57.0,40.2,859.0,2424.0,3.0,1,
16800,1858.8,8.5,57.0,98.7,859.0,2424.0,3.0,1,
16900,1859.5,9.3,57.0,101.8,859.0,2424.0,3.0,1,
17000,1858.9,8.6,57.0,114.9,859.0,2424.0,3.0,1,
17100,1859.3,8.4,57.0,102.5,859.0,2424.0,3.0,1,
17200,1859.2,8.7,57.0,100.3,859.0,2424.0,3.0,1,
17300,1858.8,8.4,57.0,101.6,859.0,2424.0,3.0,1,
17400,1863.8,43.0,56.9,100.5,1408.0,4000.0,3.0,1,
17600,1845.7,39.5,66.8,28.6,824.0,2623.0,2.0,0,
17700,1873.2,96.8,68.5,28.6,1040.0,2454.0,3.0,1,
17800,1855.7,37.1,54.6,29.6,958.0,2435.0,3.0,1,
17900,1852.0,16.7,56.1,30.0,951.0,2777.0,4.0,1,
18000,1857.7,9.2,56.3,27.9,1020.0,2396.0,3.0,1,
18100,1860.2,9.1,56.3,27.9,1020.0,2396.0,3.0,1,
18200,1859.7,8.6,56.3,28.7,1020.0,2396.0,3.0,1,
18300,1858.7,8.2,56.3,29.8,1020.0,2396.0,3.0,1,
18400,1859.8,8.6,56.3,56.1,1020.0,2396.0,3.0,1,
18600,1858.3,8.9,56.3,145.6,1020.0,2396.0,3.0,1,
18700,1859.0,9.0,56.3,101.1,1020.0,2396.0,3.0,1,
18800,1858.9,9.4,56.3,110.2,1020.0,2396.0,3.0,1,
18900,1858.7,8.5,56.3,137.3,1020.0,2396.0,3.0,1,
19000,1859.6,18.0,56.3,116.4,952.0,3243.0,4.0,1,
19100,1861.0,37.8,43.5,29.7,1280.0,3514.0,3.0,1,
19200,1861.0,129.5,44.4,28.6,1052.0,2719.0,3.0,1,
19300,1852.6,36.0,66.8,29.9,1041.0,2521.0,3.0,1,
19400,1854.7,10.1,61.3,27.0,881.0,2556.0,4.0,1,
19600,1860.5,13.9,58.0,29.1,902.0,2476.0,3.0,1,
19700,1859.1,9.1,58.3,29.5,902.0,2476.0,3.0,1,
19800,1859.1,8.6,58.3,29.3,902.0,2476.0,3.0,1,
19900,1859.5,8.9,58.3,28.6,902.0,2476.0,3.0,1,
20000,1858.9,8.7,58.3,35.0,902.0,2476.0,3.0,1,
20100,1858.8,8.7,58.3,103.1,902.0,2476.0,3.0,1,
20200,1859.2,9.2,58.3,104.0,902.0,2476.0,3.0,1,
20300,1858.7,9.3,58.3,100.1,902.0,2476.0,3.0,1,
20400,1858.3,8.7,58.3,102.1,902.0,2476.0,3.0,1,
20600,1858.4,195.8,58.3,102.4,800.0,2935.0,3.0,1,
20700,1865.4,24.8,77.8,38.2,1394.0,3762.0,3.0,1,
20800,1848.6,24.3,81.2,36.1,1158.0,2667.0,3.0,1,
20900,1858.1,47.0,72.0,29.7,964.0,2689.0,4.0,1,
21000,1862.6,18.3,66.7,28.5,974.0,2332.0,3.0,1,
21100,1865.5,31.3,70.9,29.1,964.0,2531.0,3.0,1,
21200,1852.3,27.1,83.8,29.8,884.0,2374.0,4.0,1,
21300,1859.9,10.0,86.1,29.5,884.0,2374.0,4.0,1,
21400,1859.4,9.6,86.1,28.9,884.0,2374.0,4.0,1,
21600,1858.8,8.6,86.1,34.2,884.0,2374.0,4.0,1,
21700,1859.9,8.7,86.1,36.5,884.0,2374.0,4.0,1,
21800,1860.2,8.7,86.1,125.7,884.0,2374.0,4.0,1,
21900,1859.7,8.2,86.1,140.8,884.0,2374.0,4.0,1,
22000,1860.1,9.1,86.0,113.6,884.0,2374.0,4.0,1,
22100,1859.5,9.0,86.0,101.4,884.0,2374.0,4.0,1,
22200,1860.0,9.4,86.0,108.2,884.0,2374.0,4.0,1,
22300,1855.3,10.2,69.2,84.4,1444.0,4038.0,3.0,1,
22400,1862.2,48.2,69.0,40.8,1211.0,2809.0,4.0,1,
22600,1863.7,29.4,81.4,26.3,1047.0,2492.0,3.0,1,
22700,1850.5,20.4,86.2,25.8,897.0,2398.0,4.0,1,
22800,1856.8,22.5,77.0,26.0,899.0,2472.0,4.0,1,
22900,1868.9,10.0,67.1,26.3,899.0,2472.0,4.0,1,
23000,1860.3,8.6,67.1,29.1,899.0,2472.0,4.0,1,
23100,1859.7,8.5,67.1,37.6,899.0,2472.0,4.0,1,
23200,1860.8,8.6,67.1,44.1,899.0,2472.0,4.0,1,
23300,1859.9,9.0,67.1,81.8,899.0,2472.0,4.0,1,
23400,1859.8,8.7,67.1,101.0,899.0,2472.0,4.0,1,
23600,1859.9,8.7,67.1,98.9,899.0,2472.0,4.0,1,
23700,1859.4,8.5,67.1,100.1,899.0,2472.0,4.0,1,
23800,1860.8,8.6,67.1,101.4,899.0,2472.0,4.0,1,
23900,1858.1,32.9,67.1,114.3,1387.0,3897.0,4.0,1,
24000,1852.7,143.3,69.0,34.3,1252.0,3308.0,4.0,1,
24100,1869.6,19.1,70.6,29.4,1046.0,2436.0,3.0,1,
24200,1854.8,27.5,63.0,29.4,1070.0,2741.0,4.0,1,
24300,1859.7,16.8,57.1,29.2,917.0,2711.0,4.0,1,
24400,1865.6,73.6,53.4,28.8,786.0,1984.0,2.0,0,
24600,1861.0,8.8,62.6,29.3,786.0,1984.0,2.0,0,
24700,1860.3,8.8,62.6,28.8,786.0,1984.0,2.0,0,
24800,1860.6,8.6,62.6,28.9,786.0,1984.0,2.0,0,
24900,1859.9,8.8,62.6,29.6,786.0,1984.0,2.0,0,
25000,1860.1,9.2,62.6,110.4,786.0,1984.0,2.0,0,
25100,1859.9,9.2,62.6,105.6,786.0,1984.0,2.0,0,
25200,1859.8,8.1,62.6,105.9,786.0,1984.0,2.0,0,
25300,1860.8,9.3,62.6,101.5,786.0,1984.0,2.0,0,
25400,1859.6,9.4,62.6,106.2,786.0,1984.0,2.0,0,
25600,1876.6,25.8,65.9,44.9,1387.0,3773.0,3.0,1,
25700,1845.4,28.4,58.7,30.0,1167.0,2770.0,4.0,1,
25800,1861.0,53.7,59.4,29.7,932.0,2876.0,4.0,1,
25900,1861.3,110.1,61.2,29.2,903.0,2096.0,3.0,1,
26000,1849.5,23.2,72.3,27.3,973.0,2777.0,3.0,1,
26100,1867.0,11.5,63.9,27.7,907.0,2537.0,3.0,1,
26200,1858.6,10.1,63.9,28.9,907.0,2537.0,3.0,1,
26300,1860.4,10.0,63.9,29.4,907.0,2537.0,3.0,1,
26400,1860.7,9.2,63.9,34.4,907.0,2537.0,3.0,1,
26600,1860.1,9.6,63.9,133.1,907.0,2537.0,3.0,1,
26700,1860.0,9.4,63.9,134.7,907.0,2537.0,3.0,1,
26800,1860.5,9.2,63.9,117.7,907.0,2537.0,3.0,1,
26900,1860.3,9.9,63.9,116.3,907.0,2537.0,3.0,1,
27000,1859.6,9.6,64.0,123.6,907.0,2537.0,3.0,1,
27100,1860.1,19.6,64.0,101.0,814.0,2990.0,3.0,1,
27200,1849.1,42.4,57.1,94.3,1357.0,3780.0,4.0,1,
27300,1859.5,63.8,58.4,76.0,1130.0,2887.0,4.0,1,
27400,1862.0,53.7,63.7,39.1,891.0,2447.0,3.0,1,
27600,1862.2,83.4,48.9,29.4,878.0,2419.0,4.0,1,
27700,1861.5,17.0,50.2,29.5,788.0,2157.0,3.0,1,
27800,1858.8,10.9,50.3,28.3,788.0,2157.0,3.0,1,
27900,1861.0,9.6,50.3,28.0,788.0,2157.0,3.0,1,
28000,1860.7,9.5,50.3,29.9,788.0,2157.0,3.0,1,
28100,1860.7,9.2,50.3,35.6,788.0,2157.0,3.0,1,
28200,1860.6,9.2,50.3,130.9,788.0,2157.0,3.0,1,
28300,1860.8,9.3,50.3,151.0,788.0,2157.0,3.0,1,
28400,1860.4,9.8,50.3,151.9,788.0,2157.0,3.0,1,
28600,1860.7,9.1,50.3,117.1,788.0,2157.0,3.0,1,
28700,1860.1,12.0,50.3,135.0,794.0,2988.0,4.0,1,
28800,1857.5,17.5,50.0,133.5,1343.0,3738.0,3.0,1,
28900,1860.0,15.6,48.7,73.8,1259.0,3183.0,3.0,1,
29000,1863.0,16.9,43.2,74.0,1184.0,2923.0,3.0,1,
29100,1853.8,63.9,39.2,76.2,1026.0,2733.0,4.0,1,
29200,1857.4,60.8,44.6,29.9,901.0,2574.0,3.0,1,
29300,1864.2,9.2,39.4,27.7,985.0,2304.0,3.0,1,
29400,1855.3,9.8,39.2,27.8,985.0,2304.0,3.0,1,
29600,1860.5,9.5,39.2,29.0,985.0,2304.0,3.0,1,
29700,1861.1,9.2,39.2,36.8,985.0,2304.0,3.0,1,
29800,1861.3,9.8,39.2,90.7,985.0,2304.0,3.0,1,
29900,1860.3,9.7,39.2,132.9,985.0,2304.0,3.0,1,
30000,1860.6,9.4,39.2,133.7,985.0,2304.0,3.0,1,
30100,1861.2,9.3,39.2,101.2,985.0,2304.0,3.0,1,
30200,1860.9,9.5,39.2,101.5,985.0,2304.0,3.0,1,
30300,1861.1,7.4,39.2,135.1,985.0,2304.0,3.0,1,
30400,1869.0,55.9,39.2,115.4,1260.0,4089.0,3.0,1,
30600,1841.4,124.1,42.1,36.2,1146.0,2496.0,3.0,1,
30700,1856.2,32.7,59.4,30.0,1019.0,3064.0,3.0,1,
30800,1862.0,47.8,50.2,29.4,969.0,2553.0,3.0,1,
30900,1853.3,31.9,51.3,29.3,1077.0,2598.0,3.0,1,
31000,1864.1,11.2,52.3,29.4,988.0,2645.0,3.0,1,
31100,1861.5,10.0,52.3,28.9,988.0,2645.0,3.0,1,
31200,1861.3,9.2,52.3,27.6,988.0,2645.0,3.0,1,
31300,1861.7,9.0,52.3,27.9,988.0,2645.0,3.0,1,
31400,1861.2,9.6,52.3,57.3,988.0,2645.0,3.0,1,
31600,1860.5,9.2,52.3,101.6,988.0,2645.0,3.0,1,
31700,1860.2,9.8,52.3,101.8,988.0,2645.0,3.0,1,
31800,1859.8,9.4,52.3,102.4,988.0,2645.0,3.0,1,
31900,1860.7,9.6,52.3,104.4,988.0,2645.0,3.0,1,
32000,1876.3,16.6,52.3,141.8,841.0,3263.0,3.0,1,
32100,1844.2,68.2,50.3,103.0,1393.0,3825.0,4.0,1,
32200,1858.4,85.4,53.6,66.3,1208.0,2961.0,3.0,1,
32300,1867.8,10.8,44.2,29.5,1082.0,2988.0,3.0,1,
32400,1864.0,12.6,43.7,29.1,1104.0,2669.0,3.0,1,
32600,1863.1,14.8,48.6,34.6,1061.0,2447.0,3.0,1,
32700,1861.4,9.8,48.6,35.6,1061.0,2447.0,3.0,1,
32800,1861.4,9.4,48.6,35.0,1061.0,2447.0,3.0,1,
32900,1860.7,9.9,48.6,35.0,1061.0,2447.0,3.0,1,
33000,1861.1,9.4,48.6,35.7,1061.0,2447.0,3.0,1,
33100,1861.2,9.2,48.6,101.0,1061.0,2447.0,3.0,1,
33200,1860.2,9.9,48.6,101.3,1061.0,2447.0,3.0,1,
33300,1860.7,9.4,48.6,102.5,1061.0,2447.0,3.0,1,
33400,1860.9,9.2,48.6,100.5,1061.0,2447.0,3.0,1,
33600,1860.4,43.3,48.6,101.6,778.0,2810.0,4.0,1,
33700,1860.0,91.8,49.8,52.6,1400.0,3668.0,3.0,1,
33800,1861.5,36.9,58.6,26.4,1157.0,3067.0,3.0,1,
33900,1848.8,13.2,52.2,28.7,1177.0,2847.0,3.0,1,
34000,1866.2,60.5,53.0,29.9,1053.0,2862.0,4.0,1,
34100,1861.2,60.2,55.5,34.3,848.0,2447.0,3.0,1,
34200,1865.3,13.8,58.3,26.2,1059.0,2696.0,3.0,1,
34300,1858.2,9.9,58.3,25.9,1059.0,2696.0,3.0,1,
34400,1861.1,10.4,58.3,27.4,1059.0,2696.0,3.0,1,
34600,1862.1,9.2,58.3,42.2,1059.0,2696.0,3.0,1,
34700,1860.6,9.8,58.3,99.5,1059.0,2696.0,3.0,1,
34800,1860.2,9.6,58.4,102.2,1059.0,2696.0,3.0,1,
34900,1860.9,9.0,58.3,110.3,1059.0,2696.0,3.0,1,
35000,1860.2,10.2,58.3,117.6,1059.0,2696.0,3.0,1,
35100,1859.7,9.8,58.4,135.7,1059.0,2696.0,3.0,1,
35200,1860.8,57.1,58.4,131.6,806.0,2998.0,3.0,1,
35300,1865.3,44.2,60.7,40.6,1388.0,4069.0,3.0,1,
35400,1847.9,14.5,55.5,37.1,1234.0,3392.0,3.0,1,
35600,1857.9,17.7,60.3,29.8,1009.0,2851.0,3.0,1,
35700,1866.0,45.6,57.4,29.1,955.0,2513.0,3.0,1,
35800,1856.9,19.0,54.9,28.7,1044.0,2576.0,3.0,1,
35900,1860.6,11.3,54.9,28.3,1044.0,2576.0,3.0,1,
36000,1860.8,9.8,54.9,34.4,1044.0,2576.0,3.0,1,
36100,1861.6,8.6,54.8,34.2,1044.0,2576.0,3.0,1,
36200,1861.3,9.8,54.9,35.0,1044.0,2576.0,3.0,1,
36300,1860.5,9.6,54.9,166.9,1044.0,2576.0,3.0,1,
36400,1861.0,9.0,54.8,117.7,1044.0,2576.0,3.0,1,
36600,1859.9,10.0,54.9,101.1,1044.0,2576.0,3.0,1,
36700,1860.9,9.0,54.9,99.4,1044.0,2576.0,3.0,1,
36800,1860.2,36.3,54.9,100.5,1044.0,2576.0,3.0,1,
36900,1860.2,19.4,51.8,76.8,1343.0,4650.0,3.0,1,
37000,1860.9,38.5,58.0,39.3,1371.0,3479.0,4.0,1,
37100,1856.0,54.7,62.3,28.7,1157.0,2933.0,4.0,1,
37200,1866.1,15.2,64.8,26.8,946.0,2875.0,3.0,1,
37300,1853.7,13.8,64.8,26.1,1053.0,2666.0,3.0,1,
37400,1857.0,29.9,63.5,28.5,992.0,3068.0,4.0,1,
37600,1861.5,9.5,62.8,28.5,992.0,3068.0,4.0,1,
37700,1860.8,10.0,62.8,29.6,992.0,3068.0,4.0,1,
37800,1860.4,9.8,62.8,35.1,992.0,3068.0,4.0,1,
37900,1861.3,9.2,62.8,42.7,992.0,3068.0,4.0,1,
38000,1860.6,10.1,62.8,99.3,992.0,3068.0,4.0,1,
38100,1860.3,9.6,62.8,105.6,992.0,3068.0,4.0,1,
38200,1861.0,8.9,62.8,133.1,992.0,3068.0,4.0,1,
38300,1860.3,10.2,62.8,153.8,992.0,3068.0,4.0,1,
38400,1859.7,9.3,62.8,144.9,992.0,3068.0,4.0,1,
38600,1852.9,75.4,62.9,99.3,1374.0,3573.0,3.0,1,
38700,1867.5,25.7,57.0,42.4,968.0,2764.0,4.0,1,
38800,1854.2,15.0,41.6,29.6,1242.0,2911.0,3.0,1,
38900,1860.3,32.4,44.8,29.3,1013.0,3033.0,4.0,1,
39000,1859.7,56.1,51.8,27.8,898.0,2345.0,3.0,1,
39100,1861.5,18.9,59.4,27.2,1083.0,2866.0,3.0,1,
39200,1862.4,10.9,59.4,28.4,1083.0,2866.0,3.0,1,
39300,1860.4,9.6,59.4,27.7,1083.0,2866.0,3.0,1,
39400,1861.5,9.4,59.4,27.7,1083.0,2866.0,3.0,1,
39600,1859.6,9.9,59.4,70.6,1083.0,2866.0,3.0,1,
39700,1860.5,9.2,59.4,123.7,1083.0,2866.0,3.0,1,
39800,1859.9,10.3,59.4,106.6,1083.0,2866.0,3.0,1,
39900,1860.1,9.8,59.4,133.1,1083.0,2866.0,3.0,1,
40000,1861.2,9.3,59.4,139.1,1083.0,2866.0,3.0,1,
40100,1860.3,155.2,59.4,133.4,1098.0,4172.0,3.0,1,
40200,1860.3,34.5,83.3,35.4,1329.0,3707.0,3.0,1,
40300,1854.7,11.0,79.8,28.4,1164.0,3215.0,3.0,1,
40400,1864.0,20.9,79.6,27.5,1165.0,2757.0,4.0,1,
40600,1864.2,29.7,79.8,28.8,1010.0,3319.0,3.0,1,
40700,1859.3,41.4,71.2,29.5,1005.0,2516.0,3.0,1,
40800,1861.3,11.6,78.6,29.1,1005.0,2516.0,3.0,1,
40900,1861.1,9.1,78.6,30.0,1005.0,2516.0,3.0,1,
41000,1861.0,10.0,78.6,30.1,1005.0,2516.0,3.0,1,
41100,1861.1,9.8,78.6,29.8,1005.0,2516.0,3.0,1,
41200,1860.9,8.9,78.6,34.9,1005.0,2516.0,3.0,1,
41300,1860.8,9.9,78.6,134.5,1005.0,2516.0,3.0,1,
41400,1860.3,9.5,78.6,135.6,1005.0,2516.0,3.0,1,
41600,1859.9,10.0,78.6,133.3,1005.0,2516.0,3.0,1,
41700,1859.9,66.0,78.6,166.0,735.0,2786.0,4.0,1,
41800,1869.5,19.0,60.7,35.2,1460.0,4357.0,3.0,1,
41900,1858.8,31.5,61.0,28.7,1271.0,3221.0,4.0,1,
42000,1850.5,53.5,64.3,28.9,1164.0,2831.0,3.0,1,
42100,1861.4,45.4,74.6,29.3,1057.0,3241.0,4.0,1,
42200,1859.5,19.9,78.8,29.1,1108.0,2355.0,3.0,1,
42300,1856.2,25.7,77.7,28.4,985.0,2766.0,4.0,1,
42400,1871.8,10.4,69.7,29.2,985.0,2766.0,4.0,1,
42600,1860.8,9.4,69.7,37.6,985.0,2766.0,4.0,1,
42700,1861.7,9.1,69.7,47.2,985.0,2766.0,4.0,1,
42800,1861.5,10.1,69.7,83.2,985.0,2766.0,4.0,1,
42900,1859.9,9.8,69.7,132.8,985.0,2766.0,4.0,1,
43000,1860.5,9.4,69.7,169.3,985.0,2766.0,4.0,1,
43100,1860.2,10.2,69.7,150.8,985.0,2766.0,4.0,1,
43200,1860.5,9.0,69.7,137.4,985.0,2766.0,4.0,1,
43300,1861.1,9.6,69.7,137.0,985.0,2766.0,4.0,1,
43400,1867.6,22.5,66.9,99.5,1303.0,4500.0,4.0,1,
43600,1863.8,57.7,61.3,35.3,1158.0,3198.0,4.0,1,
43700,1858.0,22.9,64.3,35.8,1138.0,2710.0,3.0,1,
43800,1847.0,23.6,59.7,35.3,1183.0,3262.0,4.0,1,
43900,1870.8,11.7,49.9,30.2,835.0,2306.0,4.0,1,
44000,1866.7,10.4,47.2,34.3,917.0,2376.0,4.0,1,
44100,1860.8,9.5,47.2,34.9,917.0,2376.0,4.0,1,
44200,1860.8,9.7,47.2,53.4,917.0,2376.0,4.0,1,
44300,1861.0,9.4,47.2,66.2,917.0,2376.0,4.0,1,
44400,1861.3,9.4,47.2,83.0,917.0,2376.0,4.0,1,
44600,1859.7,10.0,47.2,132.7,917.0,2376.0,4.0,1,
44700,1860.1,9.6,47.2,156.0,917.0,2376.0,4.0,1,
44800,1860.5,9.2,47.2,146.2,917.0,2376.0,4.0,1,
44900,1860.3,9.9,47.2,135.3,917.0,2376.0,4.0,1,
45000,1860.6,14.3,47.2,146.2,982.0,3941.0,4.0,1,
45100,1856.4,20.8,46.1,67.3,1299.0,3477.0,4.0,1,
45200,1859.6,32.5,46.2,67.0,1188.0,3118.0,3.0,1,
45300,1844.3,25.2,50.1,35.7,1230.0,3001.0,4.0,1,
45400,1872.1,35.4,39.3,29.5,915.0,2590.0,3.0,1,
45600,1860.0,12.1,44.4,29.8,1021.0,2850.0,4.0,1,
45700,1861.7,10.0,44.5,28.0,1021.0,2850.0,4.0,1,
45800,1860.9,9.7,44.5,27.5,1021.0,2850.0,4.0,1,
45900,1861.3,9.1,44.5,29.2,1021.0,2850.0,4.0,1,
46000,1861.9,8.8,44.5,84.9,1021.0,2850.0,4.0,1,
46100,1861.1,9.8,44.5,131.4,1021.0,2850.0,4.0,1,
46200,1861.4,9.8,44.5,131.9,1021.0,2850.0,4.0,1,
46300,1861.1,8.9,44.5,122.2,1021.0,2850.0,4.0,1,
46400,1860.9,9.9,44.5,133.8,1021.0,2850.0,4.0,1,
46600,1860.4,68.8,44.5,165.8,911.0,3569.0,4.0,1,
46700,1857.8,17.3,58.2,35.3,1466.0,4011.0,3.0,1,
46800,1850.9,23.2,57.6,28.7,1259.0,3275.0,4.0,1,
46900,1869.4,40.0,47.7,28.8,1183.0,2854.0,3.0,1,
47000,1861.5,19.8,52.5,29.1,909.0,2869.0,4.0,1,
47100,1858.0,43.9,55.4,29.9,1054.0,2435.0,3.0,1,
47200,1853.8,23.6,61.1,29.9,937.0,2519.0,3.0,1,
47300,1863.6,10.8,63.7,29.7,937.0,2519.0,3.0,1,
47400,1861.1,9.9,63.7,28.8,937.0,2519.0,3.0,1,
47600,1860.5,10.3,63.7,28.8,937.0,2519.0,3.0,1,
47700,1860.7,9.8,63.7,65.5,937.0,2519.0,3.0,1,
47800,1860.9,9.6,63.7,156.3,937.0,2519.0,3.0,1,
47900,1860.4,9.8,63.7,164.5,937.0,2519.0,3.0,1,
48000,1860.5,9.6,63.7,133.3,937.0,2519.0,3.0,1,
48100,1860.6,9.4,63.7,133.7,937.0,2519.0,3.0,1,
48200,1859.9,9.2,63.7,146.3,1022.0,3110.0,3.0,1,
48300,1862.2,61.6,61.1,77.1,1541.0,4651.0,4.0,1,
48400,1854.1,52.8,60.1,29.2,1374.0,3307.0,3.0,1,
48600,1857.7,20.5,79.3,26.3,1155.0,2656.0,3.0,1,
48700,1855.4,41.9,78.8,26.2,1026.0,3328.0,4.0,1,
48800,1865.0,55.5,70.4,27.1,929.0,2816.0,3.0,1,
48900,1856.6,12.7,72.8,28.7,929.0,2816.0,3.0,1,
49000,1861.2,9.7,72.8,26.9,929.0,2816.0,3.0,1,
49100,1860.5,10.3,72.8,27.6,929.0,2816.0,3.0,1,
49200,1860.9,9.4,72.8,28.6,929.0,2816.0,3.0,1,
49300,1860.9,9.2,72.8,35.9,929.0,2816.0,3.0,1,
49400,1860.5,9.7,72.8,102.3,929.0,2816.0,3.0,1,
49600,1860.7,9.1,72.8,102.2,929.0,2816.0,3.0,1,
49700,1860.2,10.1,72.8,113.7,929.0,2816.0,3.0,1,
49800,1860.1,41.9,72.8,101.4,929.0,2816.0,3.0,1,
49900,1858.6,56.4,73.5,86.3,1379.0,4540.0,3.0,1,
50000,1858.9,49.4,83.5,27.9,1232.0,3547.0,4.0,1,
50100,1857.8,22.0,84.2,27.1,1092.0,2556.0,3.0,1,
50200,1855.8,24.5,75.0,26.7,1210.0,3503.0,4.0,1,
50300,1869.6,54.9,70.7,27.5,872.0,2665.0,3.0,1,
50400,1857.8,16.8,74.8,29.8,947.0,2445.0,3.0,1,
50600,1860.1,10.5,69.8,28.4,947.0,2445.0,3.0,1,
50700,1859.5,10.0,69.8,27.9,947.0,2445.0,3.0,1,
50800,1860.8,8.7,69.8,34.9,947.0,2445.0,3.0,1,
50900,1860.4,9.5,69.8,68.5,947.0,2445.0,3.0,1,
51000,1860.1,10.0,69.8,101.4,947.0,2445.0,3.0,1,
51100,1860.4,9.2,69.8,99.6,947.0,2445.0,3.0,1,
51200,1859.9,9.7,69.8,99.6,947.0,2445.0,3.0,1,
51300,1859.7,9.8,69.8,101.9,947.0,2445.0,3.0,1,
51400,1860.4,9.1,69.8,99.1,947.0,2445.0,3.0,1,
51600,1853.2,17.3,61.4,71.7,1424.0,4025.0,3.0,1,
51700,1856.5,77.1,46.8,36.4,1255.0,3054.0,4.0,1,
51800,1868.3,32.7,38.1,34.5,913.0,2776.0,4.0,1,
51900,1856.9,18.3,37.6,34.7,1125.0,2906.0,3.0,1,
52000,1852.8,26.8,36.3,38.6,996.0,2605.0,3.0,1,
52100,1863.5,11.9,35.6,34.5,872.0,2330.0,3.0,1,
52200,1860.4,10.1,35.6,30.0,872.0,2330.0,3.0,1,
52300,1860.7,8.9,35.6,34.5,872.0,2330.0,3.0,1,
52400,1860.4,9.8,35.6,35.9,872.0,2330.0,3.0,1,
52600,1860.8,8.5,35.6,100.3,872.0,2330.0,3.0,1,
52700,1859.9,9.7,35.6,116.6,872.0,2330.0,3.0,1,
52800,1860.1,9.8,35.6,138.2,872.0,2330.0,3.0,1,
52900,1861.1,9.0,35.6,116.2,872.0,2330.0,3.0,1,
53000,1859.9,9.5,35.6,123.2,872.0,2330.0,3.0,1,
53100,1859.9,44.9,35.6,137.6,1290.0,4292.0,3.0,1,
53200,1847.7,69.4,39.5,29.6,1444.0,4141.0,3.0,1,
53300,1877.8,18.8,49.7,27.5,1112.0,3069.0,3.0,1,
53400,1860.9,18.5,46.4,28.7,1170.0,2983.0,3.0,1,
53600,1864.7,17.4,60.7,28.1,985.0,2689.0,4.0,1,
53700,1849.1,12.8,55.4,27.2,1033.0,2657.0,3.0,1,
53800,1870.9,9.6,55.4,27.4,1033.0,2657.0,3.0,1,
53900,1860.2,10.1,55.4,28.6,1033.0,2657.0,3.0,1,
54000,1860.0,9.7,55.4,35.7,1033.0,2657.0,3.0,1,
54100,1860.8,9.1,55.4,39.5,1033.0,2657.0,3.0,1,
54200,1860.4,9.5,55.4,109.7,1033.0,2657.0,3.0,1,
54300,1859.8,10.0,55.4,132.4,1033.0,2657.0,3.0,1,
54400,1860.8,8.8,55.4,100.0,1033.0,2657.0,3.0,1,
54600,1860.2,9.6,55.4,110.2,1033.0,2657.0,3.0,1,
54700,1860.6,31.8,55.4,100.3,990.0,3260.0,3.0,1,
54800,1867.5,61.2,53.4,49.2,1514.0,4784.0,3.0,1,
54900,1854.7,24.0,45.4,30.0,1420.0,3874.0,3.0,1,
55000,1853.1,93.8,45.8,30.1,1137.0,2728.0,3.0,1,
55100,1859.3,21.6,60.6,29.9,1105.0,2882.0,3.0,1,
55200,1850.1,39.8,45.9,30.0,1039.0,3211.0,3.0,1,
55300,1875.3,17.7,46.6,30.0,1044.0,2718.0,3.0,1,
55400,1855.6,10.6,46.7,29.9,1044.0,2718.0,3.0,1,
55600,1860.0,8.9,46.7,65.9,1044.0,2718.0,3.0,1,
55700,1859.8,9.6,46.7,79.2,1044.0,2718.0,3.0,1,
55800,1860.8,9.2,46.7,98.7,1044.0,2718.0,3.0,1,
55900,1861.2,8.6,46.7,98.8,1044.0,2718.0,3.0,1,
56000,1860.4,9.2,46.7,99.9,1044.0,2718.0,3.0,1,
56100,1860.1,9.4,46.7,135.3,1044.0,2718.0,3.0,1,
56200,1860.7,8.8,46.7,115.1,1044.0,2718.0,3.0,1,
56300,1860.1,107.0,46.7,100.2,1044.0,2718.0,3.0,1,
56400,1859.9,48.0,55.4,37.6,1482.0,4880.0,3.0,1,
56600,1865.7,17.6,65.0,27.0,1218.0,3089.0,3.0,1,
56700,1861.5,119.8,51.6,26.1,889.0,2756.0,3.0,1,
56800,1862.1,30.6,58.2,30.0,1139.0,2656.0,3.0,1,
56900,1849.7,67.5,59.6,29.9,998.0,2856.0,4.0,1,
57000,1866.8,13.1,70.4,28.8,998.0,2856.0,4.0,1,
57100,1860.7,9.3,70.4,28.9,998.0,2856.0,4.0,1,
57200,1860.3,10.2,70.4,29.5,998.0,2856.0,4.0,1,
57300,1860.5,9.8,70.4,30.2,998.0,2856.0,4.0,1,
57400,1861.1,8.7,70.4,42.5,998.0,2856.0,4.0,1,
57600,1860.0,9.5,70.4,131.5,998.0,2856.0,4.0,1,
57700,1860.8,8.7,70.4,136.1,998.0,2856.0,4.0,1,
57800,1860.8,10.0,70.4,132.7,998.0,2856.0,4.0,1,
57900,1860.8,9.9,70.4,136.6,998.0,2856.0,4.0,1,
58000,1859.0,30.3,63.1,101.5,1462.0,4836.0,4.0,1,
58100,1861.8,30.6,62.8,39.3,1337.0,3724.0,3.0,1,
58200,1872.7,146.9,54.9,34.5,1229.0,3338.0,3.0,1,
58300,1851.4,33.9,73.5,28.9,1260.0,3304.0,4.0,1,
58400,1853.6,48.8,71.2,25.3,1053.0,2634.0,4.0,1,
58600,1864.4,10.9,64.8,26.0,1158.0,3295.0,4.0,1,
58700,1861.0,9.7,64.8,28.6,1158.0,3295.0,4.0,1,
58800,1861.0,9.8,64.8,30.1,1158.0,3295.0,4.0,1,
58900,1861.1,8.8,64.8,41.7,1158.0,3295.0,4.0,1,
59000,1861.3,9.5,64.8,70.9,1158.0,3295.0,4.0,1,
59100,1862.1,9.4,64.8,102.4,1158.0,3295.0,4.0,1,
59200,1861.3,8.9,64.8,100.4,1158.0,3295.0,4.0,1,
59300,1861.2,9.9,64.8,123.6,1158.0,3295.0,4.0,1,
59400,1861.1,9.8,64.8,133.5,1158.0,3295.0,4.0,1,
59600,1860.3,137.6,64.8,132.0,1296.0,4536.0,4.0,1,
59700,1873.3,34.0,73.8,45.7,1460.0,4187.0,3.0,1,
59800,1840.5,24.9,78.1,30.1,1281.0,3567.0,4.0,1,
59900,1856.2,44.4,69.9,28.9,1121.0,2956.0,4.0,1,
60000,1865.9,72.6,63.8,27.3,1073.0,2871.0,3.0,1,
60100,1860.3,41.6,65.7,28.9,1000.0,2896.0,3.0,1,
60200,1859.5,29.5,71.4,29.2,1047.0,2682.0,3.0,1,
60300,1856.1,10.5,74.9,28.4,1047.0,2682.0,3.0,1,
60400,1860.8,8.8,74.9,26.7,1047.0,2682.0,3.0,1,
60600,1861.2,9.9,74.9,29.2,1047.0,2682.0,3.0,1,
60700,1860.9,8.5,74.9,37.0,1047.0,2682.0,3.0,1,
60800,1860.4,9.6,74.9,102.0,1047.0,2682.0,3.0,1,
60900,1860.6,9.5,74.9,109.1,1047.0,2682.0,3.0,1,
61000,1860.6,8.9,74.9,132.3,1047.0,2682.0,3.0,1,
61100,1861.2,9.8,74.9,145.8,1047.0,2682.0,3.0,1,
61200,1860.9,8.2,74.9,103.1,900.0,2959.0,4.0,1,
61300,1853.7,27.4,68.6,55.6,1631.0,4852.0,4.0,1,
61400,1860.5,32.3,64.8,28.2,1253.0,3096.0,4.0,1,
61600,1854.6,27.1,65.1,28.5,1132.0,3065.0,3.0,1,
61700,1865.5,16.6,58.2,27.3,1067.0,2585.0,4.0,1,
61800,1858.8,15.8,53.8,28.3,932.0,2329.0,3.0,1,
61900,1860.9,9.8,44.4,29.7,932.0,2329.0,3.0,1,
62000,1860.1,9.5,44.4,42.8,932.0,2329.0,3.0,1,
62100,1860.2,9.7,44.4,49.7,932.0,2329.0,3.0,1,
62200,1860.7,8.7,44.4,51.3,932.0,2329.0,3.0,1,
62300,1860.3,9.5,44.4,77.5,932.0,2329.0,3.0,1,
62400,1860.9,9.7,44.4,175.2,932.0,2329.0,3.0,1,
62600,1860.3,10.2,44.4,111.5,932.0,2329.0,3.0,1,
62700,1860.4,10.2,44.4,104.2,932.0,2329.0,3.0,1,
62800,1860.6,10.7,44.4,101.7,932.0,2329.0,3.0,1,
62900,1852.9,61.6,44.5,99.6,1468.0,4315.0,4.0,1,
63000,1863.5,85.1,54.2,29.9,1368.0,3561.0,3.0,1,
63100,1849.4,52.0,67.0,28.9,1235.0,3421.0,3.0,1,
63200,1866.6,28.0,68.3,26.1,1134.0,2571.0,4.0,1,
63300,1858.3,42.7,68.8,25.8,1094.0,2986.0,3.0,1,
63400,1866.6,112.2,74.9,25.9,998.0,2788.0,3.0,1,
63600,1860.6,10.1,83.8,25.6,998.0,2788.0,3.0,1,
63700,1860.7,9.0,83.8,26.2,998.0,2788.0,3.0,1,
63800,1860.2,9.5,83.8,28.0,998.0,2788.0,3.0,1,
63900,1861.4,10.0,83.8,30.2,998.0,2788.0,3.0,1,
64000,1861.1,9.0,83.8,105.1,998.0,2788.0,3.0,1,
64100,1860.5,10.0,83.9,100.5,998.0,2788.0,3.0,1,
64200,1860.9,10.0,83.9,101.7,998.0,2788.0,3.0,1,
64300,1861.0,8.9,83.9,100.3,998.0,2788.0,3.0,1,
64400,1860.0,10.0,83.8,100.7,998.0,2788.0,3.0,1,
64600,1854.7,30.9,77.4,66.5,1340.0,3867.0,3.0,1,
64700,1859.6,24.9,66.8,42.5,1212.0,2886.0,4.0,1,
64800,1857.7,23.2,56.1,30.2,1108.0,2829.0,4.0,1,
64900,1861.9,34.8,59.0,29.2,1053.0,3032.0,4.0,1,
65000,1855.7,21.7,56.3,29.5,1087.0,3083.0,3.0,1,
65100,1857.7,11.3,34.6,36.0,852.0,2404.0,3.0,1,
65200,1861.9,9.2,34.6,39.6,852.0,2404.0,3.0,1,
65300,1860.4,9.6,34.6,66.2,852.0,2404.0,3.0,1,
65400,1860.3,9.8,34.6,99.8,852.0,2404.0,3.0,1,
65600,1860.6,9.5,34.6,117.3,852.0,2404.0,3.0,1,
65700,1861.5,9.7,34.6,101.9,852.0,2404.0,3.0,1,
65800,1861.0,9.1,34.6,100.6,852.0,2404.0,3.0,1,
65900,1860.1,9.6,34.6,101.2,852.0,2404.0,3.0,1,
66000,1860.2,10.2,34.6,103.6,852.0,2404.0,3.0,1,
66100,1872.0,30.3,34.6,102.2,1310.0,4585.0,3.0,1,
66200,1849.9,31.1,39.9,43.3,1406.0,4129.0,4.0,1,
66300,1859.4,45.5,42.1,28.1,1244.0,3082.0,3.0,1,
66400,1867.5,28.3,42.7,29.0,977.0,2533.0,4.0,1,
66600,1862.7,66.1,38.6,35.6,1095.0,2945.0,4.0,1,
66700,1861.1,13.3,43.2,36.4,999.0,2862.0,3.0,1,
66800,1858.4,10.1,43.2,27.9,999.0,2862.0,3.0,1,
66900,1859.8,10.3,43.2,27.8,999.0,2862.0,3.0,1,
67000,1859.8,9.3,43.2,28.3,999.0,2862.0,3.0,1,
67100,1859.9,9.5,43.2,43.0,999.0,2862.0,3.0,1,
67200,1860.0,9.9,43.2,136.8,999.0,2862.0,3.0,1,
67300,1860.9,9.0,43.2,117.5,999.0,2862.0,3.0,1,
67400,1860.6,9.7,43.2,100.1,999.0,2862.0,3.0,1,
67600,1861.1,8.9,43.2,100.0,999.0,2862.0,3.0,1,
67700,1860.1,48.2,43.2,101.4,1189.0,3650.0,3.0,1,
67800,1858.7,68.0,51.0,34.2,1387.0,4182.0,3.0,1,
67900,1866.1,22.2,46.1,29.4,1107.0,2871.0,4.0,1,
68000,1853.0,20.5,44.8,29.5,1210.0,3447.0,3.0,1,
68100,1866.3,90.3,47.2,30.2,1115.0,2745.0,4.0,1,
68200,1853.4,61.0,54.8,28.1,976.0,2525.0,4.0,1,
68300,1859.7,15.7,51.4,27.4,1010.0,2945.0,3.0,1,
68400,1858.6,10.6,51.5,27.5,1010.0,2945.0,3.0,1,
68600,1860.4,9.9,51.4,29.1,1010.0,2945.0,3.0,1,
68700,1860.3,10.1,51.5,39.1,1010.0,2945.0,3.0,1,
68800,1860.9,8.6,51.5,101.4,1010.0,2945.0,3.0,1,
68900,1860.3,9.7,51.4,101.3,1010.0,2945.0,3.0,1,
69000,1860.2,9.6,51.5,101.1,1010.0,2945.0,3.0,1,
69100,1860.7,9.0,51.4,100.1,1010.0,2945.0,3.0,1,
69200,1860.8,9.8,51.4,99.8,1010.0,2945.0,3.0,1,
69300,1860.1,27.9,51.5,115.1,1253.0,4153.0,3.0,1,
69400,1866.5,39.8,43.4,67.2,1458.0,4498.0,3.0,1,
69600,1856.1,132.4,41.6,34.7,1094.0,2815.0,4.0,1,
69700,1853.7,61.2,53.6,35.2,960.0,2773.0,4.0,1,
69800,1864.4,41.3,45.2,30.3,814.0,2569.0,3.0,1,
69900,1852.8,36.6,53.1,29.6,1071.0,2808.0,3.0,1,
70000,1865.1,10.8,53.8,29.6,1071.0,2808.0,3.0,1,
70100,1860.3,10.1,53.8,29.2,1071.0,2808.0,3.0,1,
70200,1860.3,10.0,53.9,28.0,1071.0,2808.0,3.0,1,
70300,1861.3,9.0,53.9,27.4,1071.0,2808.0,3.0,1,
70400,1860.7,9.6,53.9,76.4,1071.0,2808.0,3.0,1,
70600,1861.1,8.8,53.9,108.6,1071.0,2808.0,3.0,1,
70700,1860.3,8.8,53.9,108.7,1071.0,2808.0,3.0,1,
70800,1860.7,9.3,53.9,107.8,1071.0,2808.0,3.0,1,
70900,1860.8,92.9,53.8,117.9,1071.0,2808.0,3.0,1,
71000,1858.1,45.9,64.9,36.9,1498.0,5229.0,3.0,1,
71100,1866.7,17.3,65.3,29.5,1354.0,3883.0,4.0,1,
71200,1853.0,41.6,64.4,28.9,1208.0,3481.0,4.0,1,
71300,1865.8,47.5,55.9,27.8,918.0,2695.0,3.0,1,
71400,1853.5,31.0,61.2,29.4,1009.0,2346.0,3.0,1,
71600,1870.8,19.3,76.0,28.9,1091.0,3178.0,3.0,1,
71700,1861.2,10.1,76.0,26.1,1091.0,3178.0,3.0,1,
71800,1860.4,8.5,76.0,27.4,1091.0,3178.0,3.0,1,
71900,1860.0,9.4,76.0,28.2,1091.0,3178.0,3.0,1,
72000,1860.8,9.8,76.0,29.3,1091.0,3178.0,3.0,1,
72100,1860.9,8.6,76.0,100.6,1091.0,3178.0,3.0,1,
72200,1860.4,9.3,76.0,102.8,1091.0,3178.0,3.0,1,
72300,1860.7,9.3,76.0,100.4,1091.0,3178.0,3.0,1,
72400,1861.4,8.3,76.0,100.5,1091.0,3178.0,3.0,1,
72600,1867.8,29.9,69.9,142.4,1468.0,4797.0,3.0,1,
72700,1850.9,61.4,65.6,67.4,1310.0,4130.0,4.0,1,
72800,1867.0,41.7,67.6,35.0,1039.0,3010.0,3.0,1,
72900,1853.5,43.0,70.1,29.3,1049.0,2536.0,3.0,1,
73000,1851.5,70.9,69.7,29.3,1147.0,3138.0,3.0,1,
73100,1877.3,39.2,75.1,29.3,911.0,2649.0,4.0,1,
73200,1860.7,11.2,52.6,29.0,978.0,2462.0,4.0,1,
73300,1861.3,8.4,52.6,29.4,978.0,2462.0,4.0,1,
73400,1860.3,9.6,52.6,30.0,978.0,2462.0,4.0,1,
73600,1860.2,9.0,52.6,55.8,978.0,2462.0,4.0,1,
73700,1860.2,9.8,52.6,102.0,978.0,2462.0,4.0,1,
73800,1860.4,10.6,52.6,107.3,978.0,2462.0,4.0,1,
73900,1860.4,9.1,52.6,99.7,978.0,2462.0,4.0,1,
74000,1860.3,9.4,52.6,101.8,978.0,2462.0,4.0,1,
74100,1860.8,9.8,52.6,102.5,978.0,2462.0,4.0,1,
74200,1860.3,69.8,52.7,102.7,1200.0,4116.0,4.0,1,
74300,1862.9,49.8,56.0,35.2,1375.0,4150.0,3.0,1,
74400,1854.7,89.8,58.5,29.6,1147.0,3069.0,3.0,1,
74600,1866.0,45.5,73.9,28.7,957.0,2723.0,3.0,1,
74700,1860.8,25.9,64.3,27.2,839.0,2430.0,3.0,1,
74800,1853.7,19.0,67.2,28.6,1074.0,2986.0,4.0,1,
74900,1867.8,10.0,67.3,29.0,1074.0,2986.0,4.0,1,
75000,1861.1,9.6,67.3,26.7,1074.0,2986.0,4.0,1,
75100,1860.2,8.9,67.3,28.0,1074.0,2986.0,4.0,1,
75200,1860.2,9.7,67.3,29.5,1074.0,2986.0,4.0,1,
75300,1860.5,9.7,67.3,67.3,1074.0,2986.0,4.0,1,
75400,1860.2,8.7,67.3,111.7,1074.0,2986.0,4.0,1,
75600,1860.3,9.1,67.3,98.8,1074.0,2986.0,4.0,1,
75700,1860.2,8.2,67.3,98.9,1074.0,2986.0,4.0,1,
75800,1860.8,11.4,67.3,98.9,1260.0,4386.0,3.0,1,
75900,1855.0,29.3,64.1,99.7,1530.0,4843.0,4.0,1,
76000,1870.8,29.1,64.2,44.5,1222.0,3367.0,3.0,1,
76100,1857.0,107.9,49.3,28.8,1066.0,2817.0,3.0,1,
76200,1856.3,42.3,55.4,28.3,920.0,2716.0,3.0,1,
76300,1857.6,22.0,54.7,26.3,1017.0,2512.0,4.0,1,
76400,1864.9,34.3,55.9,25.7,1015.0,2873.0,3.0,1,
76600,1860.9,8.8,54.2,29.4,1015.0,2873.0,3.0,1,
76700,1860.0,8.8,54.2,34.5,1015.0,2873.0,3.0,1,
76800,1860.3,9.1,54.2,34.2,1015.0,2873.0,3.0,1,
76900,1861.1,8.7,54.2,36.1,1015.0,2873.0,3.0,1,
77000,1860.5,8.9,54.2,116.9,1015.0,2873.0,3.0,1,
77100,1860.5,9.3,54.2,146.6,1015.0,2873.0,3.0,1,
77200,1860.8,8.2,54.2,133.0,1015.0,2873.0,3.0,1,
77300,1860.4,8.4,54.2,100.7,1015.0,2873.0,3.0,1,
77400,1861.0,121.2,54.2,101.6,1015.0,2873.0,3.0,1,
77600,1840.2,31.5,65.2,30.2,1218.0,4467.0,3.0,1,
77700,1854.3,20.2,65.0,29.8,973.0,2515.0,3.0,1,
77800,1863.9,53.6,56.5,30.0,1039.0,2782.0,4.0,1,
77900,1864.7,90.5,52.7,41.1,955.0,2899.0,4.0,1,
78000,1863.3,38.9,60.2,35.1,857.0,2414.0,3.0,1,
78100,1847.3,10.7,65.1,29.5,882.0,2485.0,4.0,1,
78200,1860.6,9.2,65.1,34.4,882.0,2485.0,4.0,1,
78300,1860.3,9.5,65.1,35.0,882.0,2485.0,4.0,1,
78400,1860.0,8.1,65.1,35.8,882.0,2485.0,4.0,1,
78600,1860.3,9.8,65.1,102.2,882.0,2485.0,4.0,1,
78700,1860.5,8.6,65.1,150.6,882.0,2485.0,4.0,1,
78800,1860.1,9.2,65.1,124.1,882.0,2485.0,4.0,1,
78900,1860.6,9.2,65.1,102.7,882.0,2485.0,4.0,1,
79000,1860.4,8.5,65.1,101.7,882.0,2485.0,4.0,1,
79100,1870.9,21.9,56.8,109.1,1468.0,5127.0,3.0,1,
79200,1847.5,105.1,55.9,56.7,1286.0,3853.0,3.0,1,
79300,1863.8,43.5,64.8,28.9,1302.0,3455.0,4.0,1,
79400,1857.8,55.9,75.5,26.1,1028.0,3111.0,4.0,1,
79600,1848.5,61.2,72.8,26.1,1045.0,2819.0,4.0,1,
79700,1858.0,12.6,63.6,26.2,874.0,2838.0,3.0,1,
79800,1862.1,9.7,63.6,25.7,874.0,2838.0,3.0,1,
79900,1860.4,8.1,63.6,25.9,874.0,2838.0,3.0,1,
80000,1859.7,9.3,63.6,26.9,874.0,2838.0,3.0,1,
80100,1860.0,9.4,63.6,40.3,874.0,2838.0,3.0,1,
80200,1860.5,8.6,63.6,99.9,874.0,2838.0,3.0,1,
80300,1860.0,8.8,63.6,101.3,874.0,2838.0,3.0,1,
80400,1859.8,9.1,63.6,110.9,874.0,2838.0,3.0,1,
80600,1859.9,9.0,63.6,133.1,874.0,2838.0,3.0,1,
80700,1860.0,16.7,63.6,135.1,1422.0,4889.0,4.0,1,
80800,1863.2,65.3,63.5,111.7,1313.0,4100.0,3.0,1,
80900,1850.8,39.1,57.2,41.1,1236.0,4001.0,3.0,1,
81000,1867.6,14.4,46.7,29.5,1106.0,2994.0,4.0,1,
81100,1852.3,24.3,45.1,28.0,1150.0,3028.0,3.0,1,
81200,1865.2,91.6,45.2,27.2,904.0,2367.0,3.0,1,
81300,1862.0,25.2,50.9,28.4,986.0,2475.0,3.0,1,
81400,1859.3,10.6,53.6,28.9,986.0,2475.0,3.0,1,
81600,1859.3,9.1,53.7,27.3,986.0,2475.0,3.0,1,
81700,1860.8,8.6,53.7,27.7,986.0,2475.0,3.0,1,
81800,1860.3,9.2,53.7,102.4,986.0,2475.0,3.0,1,
81900,1860.4,9.2,53.7,114.2,986.0,2475.0,3.0,1,
82000,1860.7,8.2,53.7,100.3,986.0,2475.0,3.0,1,
82100,1860.4,8.8,53.7,98.8,986.0,2475.0,3.0,1,
82200,1860.5,9.5,53.7,100.1,986.0,2475.0,3.0,1,
82300,1860.5,96.3,53.7,99.7,1227.0,4117.0,4.0,1,
82400,1861.4,29.0,62.3,36.2,1493.0,4656.0,3.0,1,
82600,1859.2,36.4,53.6,28.4,1094.0,2723.0,4.0,1,
82700,1866.3,69.2,58.3,27.7,1015.0,2677.0,4.0,1,
82800,1857.5,19.0,69.4,27.4,941.0,2510.0,3.0,1,
82900,1851.8,22.1,60.5,28.7,1067.0,3160.0,4.0,1,
83000,1871.1,10.4,59.4,29.2,1067.0,3160.0,4.0,1,
83100,1860.2,9.2,59.4,29.4,1067.0,3160.0,4.0,1,
83200,1860.1,8.5,59.3,29.8,1067.0,3160.0,4.0,1,
83300,1859.7,8.9,59.3,34.6,1067.0,3160.0,4.0,1,
83400,1859.5,9.1,59.3,90.2,1067.0,3160.0,4.0,1,
83600,1860.3,8.7,59.3,100.0,1067.0,3160.0,4.0,1,
83700,1859.6,9.1,59.3,116.7,1067.0,3160.0,4.0,1,
83800,1860.7,8.7,59.3,102.9,1067.0,3160.0,4.0,1,
83900,1860.2,10.8,59.3,99.9,1067.0,3160.0,4.0,1,
84000,1860.7,36.5,52.7,102.3,1616.0,5267.0,4.0,1,
84100,1853.5,44.1,50.6,65.7,1250.0,3766.0,4.0,1,
84200,1868.3,66.0,54.6,35.0,1117.0,2899.0,4.0,1,
84300,1856.5,25.3,59.1,28.6,1102.0,3470.0,3.0,1,
84400,1865.2,13.3,53.7,29.2,982.0,2579.0,4.0,1,
84600,1862.5,10.9,48.2,29.6,1006.0,2474.0,4.0,1,
84700,1861.3,8.4,48.1,34.9,1006.0,2474.0,4.0,1,
84800,1860.0,9.4,48.1,35.3,1006.0,2474.0,4.0,1,
84900,1859.9,9.4,48.1,34.9,1006.0,2474.0,4.0,1,
85000,1860.7,8.3,48.1,45.5,1006.0,2474.0,4.0,1,
85100,1860.1,9.1,48.1,117.0,1006.0,2474.0,4.0,1,
85200,1860.5,9.4,48.1,113.4,1006.0,2474.0,4.0,1,
85300,1861.3,8.6,48.1,101.5,1006.0,2474.0,4.0,1,
85400,1860.7,9.4,48.1,105.6,1006.0,2474.0,4.0,1,
85600,1857.8,103.5,48.1,104.9,1552.0,5154.0,3.0,1,
85700,1863.6,41.8,64.1,30.2,1302.0,4030.0,4.0,1,
85800,1855.0,11.0,60.5,30.2,1155.0,3070.0,3.0,1,
85900,1868.4,50.8,56.9,30.2,1179.0,3457.0,4.0,1,
86000,1854.1,138.0,53.8,29.3,1031.0,3125.0,3.0,1,
86100,1862.4,28.3,68.9,28.9,914.0,2675.0,4.0,1,
86200,1857.1,17.4,70.0,30.0,1021.0,2870.0,3.0,1,
86300,1861.5,9.8,70.0,39.6,1021.0,2870.0,3.0,1,
86400,1860.9,9.6,70.1,34.5,1021.0,2870.0,3.0,1,
86600,1859.7,9.3,70.0,34.9,1021.0,2870.0,3.0,1,
86700,1860.5,9.2,70.1,99.8,1021.0,2870.0,3.0,1,
86800,1860.8,8.7,70.0,100.7,1021.0,2870.0,3.0,1,
86900,1860.5,9.3,70.1,132.6,1021.0,2870.0,3.0,1,
87000,1860.7,9.1,70.1,138.8,1021.0,2870.0,3.0,1,
87100,1859.9,7.7,70.1,125.8,1021.0,2870.0,3.0,1,
87200,1860.8,35.6,70.1,92.7,1416.0,5133.0,4.0,1,
87300,1864.4,33.2,56.3,68.4,1311.0,3748.0,3.0,1,
87400,1858.2,80.8,60.1,37.1,1229.0,3638.0,4.0,1,
87600,1867.8,20.8,74.2,25.9,971.0,2942.0,4.0,1,
87700,1855.1,11.7,60.9,25.6,912.0,2515.0,3.0,1,
87800,1859.4,15.9,60.1,26.0,995.0,2746.0,3.0,1,
87900,1861.4,10.8,56.9,28.9,995.0,2746.0,3.0,1,
88000,1861.3,8.6,56.9,27.4,995.0,2746.0,3.0,1,
88100,1859.7,9.1,56.9,35.7,995.0,2746.0,3.0,1,
88200,1860.4,8.9,56.9,36.0,995.0,2746.0,3.0,1,
88300,1860.8,8.2,56.9,68.7,995.0,2746.0,3.0,1,
88400,1860.9,9.4,56.9,100.3,995.0,2746.0,3.0,1,
88600,1861.1,8.5,56.9,101.7,995.0,2746.0,3.0,1,
88700,1860.3,9.1,56.9,116.1,995.0,2746.0,3.0,1,
88800,1860.9,20.0,56.9,131.3,1120.0,4071.0,3.0,1,
88900,1865.5,152.5,56.6,87.8,1490.0,4482.0,3.0,1,
89000,1842.9,100.3,72.2,29.9,1175.0,3477.0,4.0,1,
89100,1866.0,34.4,68.9,28.6,1098.0,3247.0,4.0,1,
89200,1853.6,38.6,60.5,28.3,943.0,2540.0,3.0,1,
89300,1852.2,32.9,62.3,29.1,945.0,2517.0,4.0,1,
89400,1875.6,14.3,66.8,29.2,838.0,2267.0,4.0,1,
89600,1859.7,9.5,65.6,27.7,838.0,2267.0,4.0,1,
89700,1859.3,9.5,65.6,30.0,838.0,2267.0,4.0,1,
89800,1859.9,8.0,65.6,46.8,838.0,2267.0,4.0,1,
89900,1860.6,9.1,65.6,77.2,838.0,2267.0,4.0,1,
90000,1860.8,9.2,65.6,99.8,838.0,2267.0,4.0,1,
90100,1860.7,8.8,65.6,100.2,838.0,2267.0,4.0,1,
90200,1860.4,9.1,65.6,100.0,838.0,2267.0,4.0,1,
90300,1860.5,9.2,65.6,99.4,838.0,2267.0,4.0,1,
90400,1860.7,12.3,65.6,99.0,838.0,2267.0,4.0,1,
90600,1860.6,67.3,55.9,35.0,1187.0,3431.0,3.0,1,
90700,1853.4,23.0,60.0,29.1,1089.0,3037.0,4.0,1,
90800,1854.6,26.2,59.3,28.0,1172.0,3198.0,3.0,1,
90900,1876.8,61.7,56.8,26.3,958.0,3086.0,4.0,1,
91000,1859.1,25.3,53.3,28.6,973.0,2763.0,3.0,1,
91100,1856.1,10.5,54.6,29.7,962.0,3038.0,3.0,1,
91200,1860.0,9.5,54.6,28.2,962.0,3038.0,3.0,1,
91300,1860.0,8.9,54.6,27.0,962.0,3038.0,3.0,1,
91400,1859.5,8.8,54.6,27.6,962.0,3038.0,3.0,1,
91600,1860.4,8.6,54.6,101.4,962.0,3038.0,3.0,1,
91700,1860.3,9.1,54.6,139.8,962.0,3038.0,3.0,1,
91800,1860.3,9.3,54.6,146.6,962.0,3038.0,3.0,1,
91900,1860.7,8.5,54.6,131.8,962.0,3038.0,3.0,1,
92000,1860.6,9.2,54.6,122.4,962.0,3038.0,3.0,1,
92100,1864.0,32.9,65.9,37.2,1495.0,5014.0,3.0,1,
92200,1858.9,20.5,59.1,35.3,1362.0,4414.0,4.0,1,
92300,1862.8,51.0,54.2,35.3,1144.0,3250.0,3.0,1,
92400,1862.6,25.3,54.1,35.0,993.0,2693.0,3.0,1,
92600,1856.6,36.5,61.6,28.4,972.0,2624.0,4.0,1,
92700,1867.4,13.5,61.7,28.6,935.0,2588.0,3.0,1,
92800,1860.5,9.0,61.7,27.8,935.0,2588.0,3.0,1,
92900,1860.1,9.1,61.7,27.6,935.0,2588.0,3.0,1,
93000,1860.1,9.2,61.7,29.4,935.0,2588.0,3.0,1,
93100,1860.5,8.1,61.7,38.7,935.0,2588.0,3.0,1,
93200,1860.3,8.5,61.7,135.7,935.0,2588.0,3.0,1,
93300,1860.6,8.9,61.7,107.3,935.0,2588.0,3.0,1,
93400,1860.7,8.7,61.7,100.5,935.0,2588.0,3.0,1,
93600,1860.4,9.4,61.7,102.6,935.0,2588.0,3.0,1,
93700,1861.0,94.5,61.1,100.8,1294.0,4358.0,3.0,1,
93800,1872.3,24.7,69.3,39.6,1440.0,4550.0,4.0,1,
93900,1850.4,12.5,69.3,39.5,1286.0,3726.0,3.0,1,
94000,1853.7,23.1,64.6,38.6,1049.0,3284.0,3.0,1,
94100,1861.4,106.8,61.6,29.4,1082.0,2947.0,4.0,1,
94200,1863.6,20.5,73.8,35.3,887.0,2623.0,4.0,1,
94300,1866.2,10.3,73.2,27.6,960.0,2858.0,4.0,1,
94400,1854.3,8.8,72.7,27.1,960.0,2858.0,4.0,1,
94600,1859.9,8.2,72.7,28.3,960.0,2858.0,4.0,1,
94700,1860.5,8.5,72.7,88.5,960.0,2858.0,4.0,1,
94800,1860.6,9.0,72.7,106.7,960.0,2858.0,4.0,1,
94900,1860.9,8.1,72.7,101.6,960.0,2858.0,4.0,1,
95000,1860.4,8.8,72.7,102.3,960.0,2858.0,4.0,1,
95100,1861.7,9.2,72.7,145.7,960.0,2858.0,4.0,1,
95200,1860.7,8.3,72.7,131.4,960.0,2858.0,4.0,1,
95300,1860.5,130.7,72.7,101.7,1170.0,4167.0,4.0,1,
95400,1859.2,42.8,64.1,37.5,1530.0,4644.0,3.0,1,
95600,1866.9,34.3,86.2,26.3,1212.0,3480.0,3.0,1,
95700,1865.6,112.3,86.5,25.4,994.0,3085.0,3.0,1,
95800,1867.5,61.7,78.5,29.5,1017.0,2724.0,3.0,1,
95900,1845.7,38.4,81.4,34.6,1034.0,2712.0,3.0,1,
96000,1861.6,11.3,84.7,27.3,1034.0,2712.0,3.0,1,
96100,1860.9,8.9,84.7,27.3,1034.0,2712.0,3.0,1,
96200,1859.9,9.3,84.7,28.6,1034.0,2712.0,3.0,1,
96300,1859.5,9.4,84.7,29.8,1034.0,2712.0,3.0,1,
96400,1860.9,8.2,84.7,38.8,1034.0,2712.0,3.0,1,
96600,1860.3,9.5,84.7,133.3,1034.0,2712.0,3.0,1,
96700,1861.0,8.6,84.7,131.9,1034.0,2712.0,3.0,1,
96800,1860.3,9.0,84.7,105.8,1034.0,2712.0,3.0,1,
96900,1860.5,12.0,84.7,108.0,1034.0,2712.0,3.0,1,
97000,1853.2,23.1,77.7,100.5,1578.0,4831.0,4.0,1,
97100,1867.3,30.3,76.5,42.0,1352.0,3904.0,3.0,1,
97200,1857.5,133.8,53.5,37.4,1201.0,3535.0,3.0,1,
97300,1870.6,80.5,68.3,29.1,1094.0,3225.0,3.0,1,
97400,1846.7,19.1,72.8,24.9,1047.0,2937.0,3.0,1,
97600,1858.6,11.1,63.0,27.2,1047.0,2937.0,3.0,1,
97700,1860.0,9.2,63.0,29.3,1047.0,2937.0,3.0,1,
97800,1860.3,9.6,63.0,34.7,1047.0,2937.0,3.0,1,
97900,1860.5,8.4,63.0,35.6,1047.0,2937.0,3.0,1,
98000,1860.5,8.9,63.0,40.0,1047.0,2937.0,3.0,1,
98100,1860.5,9.2,63.0,136.2,1047.0,2937.0,3.0,1,
98200,1861.3,8.7,63.0,124.8,1047.0,2937.0,3.0,1,
98300,1860.4,8.7,63.0,101.8,1047.0,2937.0,3.0,1,
98400,1860.4,9.6,63.0,113.1,1047.0,2937.0,3.0,1,
98600,1860.2,16.2,63.3,99.6,1553.0,5063.0,4.0,1,
98700,1849.6,35.4,64.7,40.4,1323.0,3819.0,3.0,1,
98800,1866.5,39.4,71.3,38.4,1287.0,3784.0,4.0,1,
98900,1858.2,35.0,61.2,37.3,1304.0,3958.0,3.0,1,
99000,1863.5,55.6,45.1,34.3,1128.0,3192.0,4.0,1,
99100,1858.5,54.8,55.1,30.1,999.0,3436.0,3.0,1,
99200,1854.4,13.0,62.5,29.7,970.0,2964.0,4.0,1,
99300,1860.2,9.5,62.5,29.2,970.0,2964.0,4.0,1,
99400,1860.5,8.4,62.5,29.1,970.0,2964.0,4.0,1,
99600,1860.4,9.2,62.5,50.6,970.0,2964.0,4.0,1,
99700,1860.8,7.9,62.5,100.0,970.0,2964.0,4.0,1,
99800,1860.4,8.6,62.5,101.7,970.0,2964.0,4.0,1,
99900,1860.8,9.3,62.5,115.5,970.0,2964.0,4.0,1,
100000,1861.0,8.8,62.5,104.7,970.0,2964.0,4.0,1,
100100,1860.1,8.6,62.5,100.8,970.0,2964.0,4.0,1,
100200,1861.1,30.5,62.4,102.3,1407.0,4979.0,3.0,1,
100300,1862.1,26.4,62.7,65.6,1443.0,4505.0,4.0,1,
100400,1856.6,34.7,53.5,37.2,1121.0,3251.0,4.0,1,
100600,1859.8,21.3,72.0,26.3,970.0,2911.0,3.0,1,
100700,1856.1,49.4,69.5,25.9,997.0,2960.0,4.0,1,
100800,1870.5,12.3,57.1,26.0,908.0,2820.0,3.0,1,
100900,1856.6,8.9,57.0,27.4,908.0,2820.0,3.0,1,
101000,1860.3,8.8,57.0,40.5,908.0,2820.0,3.0,1,
101100,1860.0,9.4,57.0,66.3,908.0,2820.0,3.0,1,
101200,1860.5,9.0,57.0,78.7,908.0,2820.0,3.0,1,
101300,1860.6,9.0,57.0,100.9,908.0,2820.0,3.0,1,
101400,1860.9,8.6,57.0,100.3,908.0,2820.0,3.0,1,
101600,1860.3,9.1,57.0,102.7,908.0,2820.0,3.0,1,
101700,1861.3,8.8,57.0,107.5,908.0,2820.0,3.0,1,
101800,1861.4,56.0,57.0,140.8,1279.0,4005.0,4.0,1,
101900,1856.3,73.2,58.3,83.9,1445.0,4441.0,3.0,1,
102000,1870.1,26.3,61.4,29.2,1248.0,3698.0,4.0,1,
102100,1855.5,18.0,58.1,27.2,1195.0,3701.0,3.0,1,
102200,1864.1,122.5,35.2,30.1,1089.0,3180.0,4.0,1,
102300,1859.3,25.1,49.4,29.9,1049.0,3541.0,4.0,1,
102400,1859.9,23.2,56.2,28.4,970.0,3035.0,3.0,1,
102600,1860.5,9.6,56.2,29.7,970.0,3035.0,3.0,1,
102700,1860.2,9.0,56.2,35.2,970.0,3035.0,3.0,1,
102800,1860.5,8.9,56.2,34.5,970.0,3035.0,3.0,1,
102900,1861.1,9.4,56.2,50.0,970.0,3035.0,3.0,1,
103000,1860.8,8.9,56.2,100.7,970.0,3035.0,3.0,1,
103100,1860.7,9.0,56.2,100.2,970.0,3035.0,3.0,1,
103200,1861.2,9.2,56.2,100.9,970.0,3035.0,3.0,1,
103300,1861.2,9.2,56.2,109.8,970.0,3035.0,3.0,1,
103400,1861.3,66.4,56.2,109.2,1179.0,3774.0,3.0,1,
103600,1857.8,24.8,57.3,34.2,1231.0,3464.0,3.0,1,
103700,1869.6,139.9,60.1,34.9,1133.0,3332.0,4.0,1,
103800,1853.2,75.8,71.5,29.7,1139.0,3240.0,4.0,1,
103900,1862.5,31.0,63.1,27.7,889.0,2851.0,4.0,1,
104000,1856.2,15.9,64.0,27.2,896.0,2731.0,3.0,1,
104100,1867.4,10.5,56.7,27.6,896.0,2731.0,3.0,1,
104200,1860.6,9.7,56.7,38.1,896.0,2731.0,3.0,1,
104300,1859.8,8.8,56.7,43.6,896.0,2731.0,3.0,1,
104400,1860.4,8.8,56.7,54.2,896.0,2731.0,3.0,1,
104600,1860.5,8.9,56.7,112.6,896.0,2731.0,3.0,1,
104700,1861.0,9.5,56.7,133.6,896.0,2731.0,3.0,1,
104800,1861.2,9.3,56.7,132.1,896.0,2731.0,3.0,1,
104900,1861.1,8.9,56.7,101.9,896.0,2731.0,3.0,1,
105000,1861.3,22.6,56.7,113.4,896.0,2731.0,3.0,1,
105100,1868.9,51.2,52.6,80.4,1283.0,4477.0,3.0,1,
105200,1865.2,79.8,58.8,27.7,1372.0,4288.0,3.0,1,
105300,1846.5,98.5,70.1,24.5,1219.0,3713.0,4.0,1,
105400,1865.6,19.8,61.3,24.3,1094.0,3275.0,4.0,1,
105600,1859.8,92.9,58.9,25.9,972.0,2964.0,4.0,1,
105700,1864.8,14.3,68.2,28.1,902.0,2789.0,3.0,1,
105800,1861.1,9.0,68.2,27.6,902.0,2789.0,3.0,1,
105900,1860.6,9.6,68.1,27.3,902.0,2789.0,3.0,1,
106000,1860.4,9.6,68.2,27.4,902.0,2789.0,3.0,1,
106100,1860.9,8.8,68.2,29.2,902.0,2789.0,3.0,1,
106200,1860.9,9.2,68.2,100.4,902.0,2789.0,3.0,1,
106300,1861.0,9.8,68.2,132.9,902.0,2789.0,3.0,1,
106400,1860.5,9.2,68.2,125.0,902.0,2789.0,3.0,1,
106600,1861.3,9.3,68.2,99.6,902.0,2789.0,3.0,1,
106700,1873.7,194.7,71.8,65.8,1440.0,5194.0,3.0,1,
106800,1841.7,79.3,85.9,27.6,1346.0,4395.0,4.0,1,
106900,1868.7,23.2,76.1,26.6,1155.0,3580.0,4.0,1,
107000,1853.7,49.8,71.5,26.2,1268.0,3859.0,3.0,1,
107100,1855.3,32.7,75.0,25.6,1069.0,3502.0,4.0,1,
107200,1880.1,54.3,78.9,25.7,991.0,2966.0,4.0,1,
107300,1854.0,11.8,71.1,26.4,972.0,3074.0,4.0,1,
107400,1860.5,9.7,71.1,27.2,972.0,3074.0,4.0,1,
107600,1859.6,9.0,71.1,36.7,972.0,3074.0,4.0,1,
107700,1860.2,9.2,71.1,50.1,972.0,3074.0,4.0,1,
107800,1860.7,9.6,71.1,113.3,972.0,3074.0,4.0,1,
107900,1860.3,8.7,71.1,133.6,972.0,3074.0,4.0,1,
108000,1860.3,8.8,71.1,136.1,972.0,3074.0,4.0,1,
108100,1861.0,5.6,71.1,102.0,972.0,3074.0,4.0,1,
108200,1860.8,5.1,71.0,100.0,972.0,3074.0,4.0,1,
108300,1860.8,32.4,71.0,70.9,1255.0,4311.0,4.0,1,
108400,1860.8,33.4,43.0,85.9,1343.0,4384.0,4.0,1,
108600,1851.9,41.3,46.2,30.0,1240.0,3908.0,4.0,1,
108700,1878.3,183.3,51.3,26.3,1081.0,3340.0,3.0,1,
108800,1859.5,28.2,69.1,25.7,910.0,3160.0,3.0,1,
108900,1853.7,15.2,68.8,26.0,1024.0,3318.0,4.0,1,
109000,1870.6,5.9,68.8,29.3,1024.0,3318.0,4.0,1,
109100,1860.4,4.3,68.8,39.2,1024.0,3318.0,4.0,1,
109200,1860.2,5.4,68.7,41.1,1024.0,3318.0,4.0,1,
109300,1860.8,5.4,68.7,44.8,1024.0,3318.0,4.0,1,
109400,1860.5,4.6,68.7,68.4,1024.0,3318.0,4.0,1,
109600,1861.1,5.0,68.6,100.0,1024.0,3318.0,4.0,1,
109700,1860.5,4.2,68.6,100.4,1024.0,3318.0,4.0,1,
109800,1860.4,4.5,68.6,99.9,1024.0,3318.0,4.0,1,
109900,1861.5,17.1,68.6,98.8,1345.0,4757.0,4.0,1,
110000,1856.1,54.9,68.7,69.1,1345.0,4292.0,3.0,1,
110100,1861.9,197.2,72.9,37.6,1347.0,4156.0,3.0,1,
110200,1864.2,98.0,88.0,25.4,1254.0,3951.0,4.0,1,
110300,1860.8,22.5,84.4,25.4,1075.0,3578.0,4.0,1,
110400,1854.7,60.2,65.9,26.1,1055.0,3422.0,3.0,1,
110600,1864.3,6.3,77.0,27.1,1055.0,3422.0,3.0,1,
110700,1859.5,4.9,77.0,26.9,1055.0,3422.0,3.0,1,
110800,1860.7,5.1,77.0,27.5,1055.0,3422.0,3.0,1,
110900,1859.0,4.2,77.0,28.2,1055.0,3422.0,3.0,1,
111000,1860.6,4.2,77.0,36.6,1055.0,3422.0,3.0,1,
111100,1860.6,4.6,77.0,100.2,1055.0,3422.0,3.0,1,
111200,1860.2,3.5,77.0,100.4,1055.0,3422.0,3.0,1,
111300,1860.4,4.4,77.0,100.2,1055.0,3422.0,3.0,1,
111400,1860.8,4.4,77.0,101.8,1055.0,3422.0,3.0,1,
111600,1867.8,57.8,76.8,100.7,1474.0,4879.0,3.0,1,
111700,1851.1,80.8,78.9,35.6,1304.0,4162.0,4.0,1,
111800,1864.5,21.1,61.2,28.9,1075.0,3481.0,4.0,1,
111900,1851.3,32.3,59.6,27.9,918.0,2859.0,3.0,1,
112000,1862.4,44.7,59.9,34.5,924.0,3263.0,4.0,1,
112100,1868.7,125.0,66.9,29.5,996.0,3145.0,4.0,1,
112200,1852.9,12.3,64.6,27.5,1045.0,3056.0,3.0,1,
112300,1861.5,4.8,64.6,29.4,1045.0,3056.0,3.0,1,
112400,1860.7,3.7,64.6,29.6,1045.0,3056.0,3.0,1,
112600,1860.3,4.0,64.6,35.1,1045.0,3056.0,3.0,1,
112700,1860.6,4.2,64.6,89.8,1045.0,3056.0,3.0,1,
112800,1860.3,4.0,64.6,72.6,1045.0,3056.0,3.0,1,
112900,1861.2,5.2,64.6,88.2,1045.0,3056.0,3.0,1,
113000,1860.8,3.9,64.6,100.3,1045.0,3056.0,3.0,1,
113100,1861.2,4.5,64.6,100.6,1045.0,3056.0,3.0,1,
113200,1863.8,33.1,64.6,102.3,1091.0,3718.0,4.0,1,
113300,1857.9,17.3,57.8,94.0,1136.0,3351.0,4.0,1,
113400,1855.2,76.1,55.4,76.7,1088.0,3038.0,3.0,1,
113600,1866.2,84.1,83.4,26.0,959.0,2738.0,4.0,1,
113700,1858.0,21.3,76.3,25.2,907.0,3072.0,3.0,1,
113800,1850.9,10.7,70.9,25.5,969.0,3002.0,3.0,1,
113900,1861.8,4.4,70.9,26.3,969.0,3002.0,3.0,1,
114000,1860.6,4.4,70.9,30.2,969.0,3002.0,3.0,1,
114100,1860.3,5.0,70.9,36.7,969.0,3002.0,3.0,1,
114200,1861.1,5.0,70.9,41.3,969.0,3002.0,3.0,1,
114300,1859.8,7.6,71.0,98.7,969.0,3002.0,3.0,1,
114400,1861.2,6.1,71.0,106.0,969.0,3002.0,3.0,1,
114600,1859.2,4.5,71.1,108.3,969.0,3002.0,3.0,1,
114700,1861.4,5.8,71.1,107.9,969.0,3002.0,3.0,1,
114800,1860.8,41.3,71.1,86.6,1092.0,3641.0,4.0,1,
114900,1856.0,99.4,77.4,40.1,1195.0,3320.0,3.0,1,
115000,1854.7,33.3,89.7,25.4,1339.0,4235.0,3.0,1,
115100,1879.3,56.0,83.9,25.6,1271.0,4101.0,4.0,1,
115200,1849.7,24.5,63.3,26.2,1184.0,3880.0,3.0,1,
115300,1852.5,65.5,63.9,27.1,1003.0,3132.0,3.0,1,
115400,1862.4,36.4,66.5,28.9,1008.0,3140.0,3.0,1,
115600,1861.2,4.8,74.8,25.7,1008.0,3140.0,3.0,1,
115700,1860.8,4.1,74.8,26.3,1008.0,3140.0,3.0,1,
115800,1860.2,3.9,74.8,28.1,1008.0,3140.0,3.0,1,
115900,1861.0,5.3,74.8,35.9,1008.0,3140.0,3.0,1,
116000,1860.6,4.2,74.7,99.3,1008.0,3140.0,3.0,1,
116100,1860.9,4.6,74.7,98.7,1008.0,3140.0,3.0,1,
116200,1861.0,4.5,74.6,71.0,1008.0,3140.0,3.0,1,
116300,1860.0,4.0,74.6,69.3,1008.0,3140.0,3.0,1,
116400,1860.3,63.1,74.6,99.1,1146.0,3983.0,4.0,1,
116600,1878.8,65.1,63.5,30.0,1227.0,4082.0,4.0,1,
116700,1853.9,32.3,64.6,29.5,1106.0,3340.0,3.0,1,
116800,1854.0,82.6,68.1,29.0,1058.0,3515.0,3.0,1,
116900,1863.9,85.2,71.5,26.4,1025.0,2848.0,3.0,1,
117000,1852.5,19.5,74.6,25.4,964.0,2971.0,4.0,1,
117100,1866.5,5.5,65.5,24.9,964.0,2971.0,4.0,1,
117200,1860.2,3.3,65.5,28.8,964.0,2971.0,4.0,1,
117300,1859.8,3.2,65.5,34.8,964.0,2971.0,4.0,1,
117400,1860.0,3.3,65.5,39.6,964.0,2971.0,4.0,1,
117600,1860.3,3.1,65.5,99.6,964.0,2971.0,4.0,1,
117700,1860.6,2.8,65.5,99.5,964.0,2971.0,4.0,1,
117800,1860.5,2.2,65.5,99.0,964.0,2971.0,4.0,1,
117900,1860.9,2.8,65.5,98.7,964.0,2971.0,4.0,1,
118000,1860.9,5.9,65.5,99.5,964.0,2971.0,4.0,1,
118100,1874.3,59.6,59.3,98.8,1216.0,4722.0,3.0,1,
118200,1852.4,27.7,54.8,68.0,1132.0,3609.0,3.0,1,
118300,1852.4,24.7,64.5,26.1,1011.0,2865.0,4.0,1,
118400,1863.2,51.9,62.9,25.6,618.0,2578.0,3.0,1,
118600,1872.3,36.6,47.2,28.3,666.0,2114.0,3.0,1,
118700,1848.4,6.9,49.2,28.3,625.0,2151.0,3.0,1,
118800,1860.0,3.8,49.2,26.6,625.0,2151.0,3.0,1,
118900,1860.4,4.1,49.2,26.5,625.0,2151.0,3.0,1,
119000,1859.8,3.7,49.2,28.3,625.0,2151.0,3.0,1,
119100,1860.6,3.8,49.2,67.2,625.0,2151.0,3.0,1,
119200,1861.5,4.7,49.2,100.2,625.0,2151.0,3.0,1,
119300,1860.9,4.0,49.2,99.5,625.0,2151.0,3.0,1,
119400,1861.3,3.9,49.2,99.7,625.0,2151.0,3.0,1,
119600,1860.7,3.4,49.2,100.3,625.0,2151.0,3.0,1,
119700,1864.3,16.2,49.2,100.0,1410.0,5095.0,3.0,1,
119800,1855.6,12.8,46.8,142.8,1227.0,3931.0,4.0,1,
119900,1863.5,40.5,45.5,135.6,1002.0,3036.0,3.0,1,
120000,1861.4,24.9,33.3,66.7,828.0,2484.0,3.0,1,
120100,1860.8,17.3,32.4,28.0,916.0,2893.0,4.0,1,
120200,1853.0,52.9,27.7,26.2,876.0,3169.0,4.0,1,
120300,1862.5,9.9,32.8,27.5,851.0,2722.0,3.0,1,
120400,1863.3,5.9,32.8,35.5,851.0,2722.0,3.0,1,
120600,1860.0,4.3,32.8,47.7,851.0,2722.0,3.0,1,
120700,1860.4,4.3,32.9,65.5,851.0,2722.0,3.0,1,
120800,1860.7,3.7,32.9,78.1,851.0,2722.0,3.0,1,
120900,1860.6,4.1,32.9,99.7,851.0,2722.0,3.0,1,
121000,1860.6,7.5,32.9,113.6,851.0,2722.0,3.0,1,
121100,1860.5,8.2,32.9,102.1,851.0,2722.0,3.0,1,
121200,1861.2,9.1,33.0,99.0,851.0,2722.0,3.0,1,
121300,1860.8,20.8,33.1,67.3,1335.0,5301.0,4.0,1,
121400,1864.5,38.9,34.0,56.8,1291.0,3973.0,3.0,1,
121600,1850.0,62.3,35.8,29.5,1013.0,3070.0,3.0,1,
121700,1852.4,46.8,50.2,29.4,970.0,3037.0,4.0,1,
121800,1863.4,67.9,52.8,35.4,1030.0,3069.0,3.0,1,
121900,1861.7,22.8,54.6,36.0,792.0,2745.0,3.0,1,
122000,1859.5,10.0,55.4,29.5,792.0,2745.0,3.0,1,
122100,1860.9,9.5,55.5,26.7,792.0,2745.0,3.0,1,
122200,1861.0,10.4,55.5,26.2,792.0,2745.0,3.0,1,
122300,1860.3,9.5,55.6,27.2,792.0,2745.0,3.0,1,
122400,1860.6,9.4,55.6,81.2,792.0,2745.0,3.0,1,
122600,1860.4,8.8,55.7,101.8,792.0,2745.0,3.0,1,
122700,1860.6,8.8,55.8,111.9,792.0,2745.0,3.0,1,
122800,1860.9,10.2,55.8,150.4,792.0,2745.0,3.0,1,
122900,1860.4,13.1,55.8,140.6,1408.0,4813.0,4.0,1,
123000,1883.5,14.9,55.2,134.1,1374.0,5027.0,3.0,1,
123100,1838.6,28.3,56.4,103.4,1143.0,3892.0,4.0,1,
123200,1856.7,47.2,56.5,42.6,1032.0,2977.0,4.0,1,
123300,1865.1,181.2,47.3,37.7,914.0,3009.0,3.0,1,
123400,1860.0,55.7,71.6,35.8,770.0,2554.0,3.0,1,
123600,1858.9,13.1,77.0,25.6,770.0,2554.0,3.0,1,
123700,1861.2,10.7,77.0,25.6,770.0,2554.0,3.0,1,
123800,1860.3,9.0,77.0,28.4,770.0,2554.0,3.0,1,
123900,1860.7,9.3,77.0,29.9,770.0,2554.0,3.0,1,
124000,1861.0,9.7,77.0,71.6,770.0,2554.0,3.0,1,
124100,1860.2,8.9,77.0,103.0,770.0,2554.0,3.0,1,
124200,1860.2,9.1,77.0,103.9,770.0,2554.0,3.0,1,
124300,1860.6,9.6,77.0,132.3,770.0,2554.0,3.0,1,
124400,1860.0,8.6,77.0,102.9,770.0,2554.0,3.0,1,
124600,1858.6,19.2,77.1,130.5,1474.0,5053.0,4.0,1,
124700,1859.1,53.6,77.0,143.0,1191.0,3603.0,4.0,1,
124800,1863.8,183.3,80.2,46.8,1066.0,3183.0,3.0,1,
124900,1858.4,39.2,95.1,26.2,978.0,2850.0,3.0,1,
125000,1865.0,36.3,81.6,25.0,846.0,3148.0,4.0,1,
125100,1857.7,43.1,74.1,25.5,904.0,2847.0,3.0,1,
125200,1864.8,13.3,69.7,36.6,885.0,2710.0,4.0,1,
125300,1859.4,9.0,69.7,41.2,885.0,2710.0,4.0,1,
125400,1859.9,8.6,69.7,34.2,885.0,2710.0,4.0,1,
125600,1860.2,8.7,69.7,35.7,885.0,2710.0,4.0,1,
125700,1860.4,8.7,69.7,100.7,885.0,2710.0,4.0,1,
125800,1860.9,9.7,69.7,133.4,885.0,2710.0,4.0,1,
125900,1860.3,8.8,69.7,130.4,885.0,2710.0,4.0,1,
126000,1860.5,8.7,69.7,113.0,885.0,2710.0,4.0,1,
126100,1860.7,10.0,69.7,102.1,885.0,2710.0,4.0,1,
126200,1856.2,87.8,69.7,102.3,1554.0,5368.0,3.0,1,
126300,1861.8,37.6,81.7,38.7,1188.0,4147.0,4.0,1,
126400,1852.5,36.6,78.0,38.0,1035.0,3133.0,3.0,1,
126600,1853.6,120.6,55.8,30.2,771.0,2651.0,3.0,1,
126700,1858.5,40.7,69.6,26.3,930.0,2808.0,4.0,1,
126800,1854.8,15.5,69.5,25.6,947.0,2964.0,3.0,1,
126900,1861.9,9.2,69.4,27.9,947.0,2964.0,3.0,1,
127000,1860.9,10.3,69.4,29.6,947.0,2964.0,3.0,1,
127100,1859.2,8.8,69.4,35.4,947.0,2964.0,3.0,1,
127200,1860.7,8.9,69.4,41.8,947.0,2964.0,3.0,1,
127300,1860.9,10.4,69.4,142.3,947.0,2964.0,3.0,1,
127400,1860.0,8.8,69.5,148.2,947.0,2964.0,3.0,1,
127600,1861.0,10.2,69.5,123.3,947.0,2964.0,3.0,1,
127700,1860.0,9.2,69.5,103.6,947.0,2964.0,3.0,1,
127800,1859.8,22.2,69.5,102.4,1454.0,5294.0,4.0,1,
127900,1858.4,19.2,54.7,99.0,1409.0,4635.0,3.0,1,
128000,1860.4,80.7,57.0,53.4,1055.0,3296.0,4.0,1,
128100,1855.2,120.5,60.2,36.7,885.0,2678.0,4.0,1,
128200,1860.6,26.7,69.2,27.6,972.0,3095.0,4.0,1,
128300,1855.4,42.2,54.0,28.5,822.0,2930.0,3.0,1,
128400,1857.8,32.9,54.8,28.7,675.0,2168.0,3.0,1,
128600,1860.0,9.0,54.8,36.4,675.0,2168.0,3.0,1,
128700,1860.3,8.7,54.8,46.2,675.0,2168.0,3.0,1,
128800,1860.5,9.7,54.8,73.1,675.0,2168.0,3.0,1,
128900,1859.9,9.2,54.8,68.7,675.0,2168.0,3.0,1,
129000,1860.5,8.5,54.8,74.5,675.0,2168.0,3.0,1,
129100,1860.7,9.5,54.8,115.3,675.0,2168.0,3.0,1,
129200,1860.6,9.2,54.8,131.4,675.0,2168.0,3.0,1,
129300,1860.8,9.1,54.8,135.6,675.0,2168.0,3.0,1,
129400,1860.8,15.9,54.8,125.2,1449.0,5252.0,3.0,1,
129600,1857.4,94.2,59.9,28.6,1116.0,3260.0,3.0,1,
129700,1864.5,22.8,67.5,29.2,1011.0,3177.0,4.0,1,
129800,1855.1,39.5,55.6,29.4,877.0,2678.0,3.0,1,
129900,1864.1,79.2,58.4,29.3,931.0,2880.0,4.0,1,
130000,1862.5,60.5,62.8,28.6,779.0,2820.0,3.0,1,
130100,1854.4,12.2,69.6,26.2,779.0,2820.0,3.0,1,
130200,1860.1,9.1,69.6,26.2,779.0,2820.0,3.0,1,
130300,1860.7,9.0,69.6,35.4,779.0,2820.0,3.0,1,
130400,1860.2,7.9,69.6,37.7,779.0,2820.0,3.0,1,
130600,1861.2,9.7,69.6,99.5,779.0,2820.0,3.0,1,
130700,1860.6,8.4,69.6,102.1,779.0,2820.0,3.0,1,
130800,1860.6,8.6,69.6,132.7,779.0,2820.0,3.0,1,
130900,1861.3,10.2,69.6,105.9,779.0,2820.0,3.0,1,
131000,1860.1,126.1,69.6,93.7,779.0,2820.0,3.0,1,
131100,1855.9,60.8,79.9,35.7,1486.0,4821.0,4.0,1,
131200,1865.6,39.5,84.8,28.3,1171.0,3847.0,4.0,1,
131300,1854.0,30.0,74.9,27.9,943.0,2877.0,3.0,1,
131400,1866.2,58.1,75.4,28.4,992.0,3029.0,4.0,1,
131600,1859.9,30.9,77.0,30.0,741.0,2658.0,4.0,1,
131700,1855.5,11.9,69.4,26.2,741.0,2658.0,4.0,1,
131800,1860.5,10.2,69.5,27.6,741.0,2658.0,4.0,1,
131900,1860.2,9.0,69.5,29.8,741.0,2658.0,4.0,1,
132000,1860.5,9.1,69.5,53.7,741.0,2658.0,4.0,1,
132100,1860.8,9.4,69.5,76.3,741.0,2658.0,4.0,1,
132200,1860.7,9.0,69.5,99.4,741.0,2658.0,4.0,1,
132300,1860.8,8.8,69.5,99.9,741.0,2658.0,4.0,1,
132400,1860.9,9.0,69.5,131.8,741.0,2658.0,4.0,1,
132600,1860.8,8.8,69.5,124.5,741.0,2658.0,4.0,1,
132700,1868.9,58.6,57.3,103.9,1469.0,5355.0,4.0,1,
132800,1863.9,27.4,48.2,100.8,1247.0,4258.0,3.0,1,
132900,1860.9,95.8,49.4,36.3,1157.0,3568.0,4.0,1,
133000,1849.4,131.5,54.6,29.6,920.0,2976.0,4.0,1,
133100,1861.2,32.8,64.2,29.6,891.0,2886.0,4.0,1,
133200,1853.4,24.4,55.6,29.9,913.0,3129.0,3.0,1,
133300,1862.8,11.2,55.4,29.7,855.0,3101.0,3.0,1,
133400,1861.0,11.2,55.2,29.9,855.0,3101.0,3.0,1,
133600,1860.4,9.8,55.3,39.7,855.0,3101.0,3.0,1,
133700,1859.9,9.6,55.3,65.6,855.0,3101.0,3.0,1,
133800,1860.6,9.1,55.3,90.1,855.0,3101.0,3.0,1,
133900,1860.7,9.7,55.3,110.8,855.0,3101.0,3.0,1,
134000,1860.4,9.1,55.3,99.9,855.0,3101.0,3.0,1,
134100,1860.6,9.1,55.3,102.2,855.0,3101.0,3.0,1,
134200,1861.3,9.7,55.3,144.3,855.0,3101.0,3.0,1,
134300,1857.1,64.5,55.3,143.7,1423.0,5349.0,3.0,1,
134400,1875.0,35.7,66.5,28.8,1256.0,4303.0,4.0,1,
134600,1865.2,25.8,67.1,27.1,965.0,3018.0,4.0,1,
134700,1854.6,39.2,56.9,28.2,930.0,2926.0,3.0,1,
134800,1850.8,100.5,58.3,29.5,832.0,2783.0,3.0,1,
134900,1874.4,17.3,69.6,29.0,700.0,2364.0,3.0,1,
135000,1855.5,9.8,69.6,39.7,700.0,2364.0,3.0,1,
135100,1861.3,10.3,69.5,41.7,700.0,2364.0,3.0,1,
135200,1860.3,9.8,69.6,42.4,700.0,2364.0,3.0,1,
135300,1860.5,9.2,69.6,46.5,700.0,2364.0,3.0,1,
135400,1861.0,9.7,69.6,84.4,700.0,2364.0,3.0,1,
135600,1860.7,9.4,69.6,147.0,700.0,2364.0,3.0,1,
135700,1861.0,9.4,69.6,135.7,700.0,2364.0,3.0,1,
135800,1860.7,9.9,69.6,125.6,700.0,2364.0,3.0,1,
135900,1860.7,16.7,69.6,136.3,1410.0,5223.0,3.0,1,
136000,1861.2,108.6,61.7,140.3,1292.0,4753.0,4.0,1,
136100,1863.1,34.4,61.6,44.8,1146.0,3740.0,3.0,1,
136200,1853.5,53.5,61.2,29.6,1051.0,3316.0,4.0,1,
136300,1853.6,34.3,72.0,28.3,973.0,2806.0,3.0,1,
136400,1879.3,75.0,71.9,28.8,891.0,3088.0,3.0,1,
136600,1859.8,11.9,64.8,30.0,891.0,3088.0,3.0,1,
136700,1859.9,11.1,64.8,27.5,891.0,3088.0,3.0,1,
136800,1860.0,10.4,64.8,27.4,891.0,3088.0,3.0,1,
136900,1860.4,10.2,64.8,28.4,891.0,3088.0,3.0,1,
137000,1860.0,10.4,64.8,40.2,891.0,3088.0,3.0,1,
137100,1860.5,10.3,64.8,100.6,891.0,3088.0,3.0,1,
137200,1860.8,10.0,64.8,111.9,891.0,3088.0,3.0,1,
137300,1860.5,10.3,64.8,115.4,891.0,3088.0,3.0,1,
137400,1860.5,9.6,64.8,109.6,891.0,3088.0,3.0,1,
137600,1855.8,21.6,65.6,101.3,1455.0,5147.0,3.0,1,
137700,1864.1,46.6,55.2,55.6,1320.0,4384.0,4.0,1,
137800,1864.3,209.9,52.8,29.4,1101.0,3234.0,3.0,1,
137900,1868.1,36.3,64.6,27.4,983.0,3338.0,3.0,1,
138000,1849.5,30.4,67.4,26.1,961.0,2868.0,3.0,1,
138100,1858.4,20.9,64.8,28.5,909.0,3218.0,4.0,1,
138200,1869.3,11.2,62.6,29.6,909.0,3218.0,4.0,1,
138300,1861.3,10.4,62.6,30.1,909.0,3218.0,4.0,1,
138400,1859.9,10.1,62.6,35.1,909.0,3218.0,4.0,1,
138600,1860.2,9.6,62.6,68.1,909.0,3218.0,4.0,1,
138700,1861.2,9.9,62.6,101.0,909.0,3218.0,4.0,1,
138800,1860.7,10.6,62.6,142.2,909.0,3218.0,4.0,1,
138900,1861.0,9.6,62.6,109.1,909.0,3218.0,4.0,1,
139000,1861.0,9.6,62.6,102.3,909.0,3218.0,4.0,1,
139100,1860.5,9.5,62.6,134.2,909.0,3218.0,4.0,1,
139200,1858.2,22.2,62.6,133.2,1551.0,5283.0,4.0,1,
139300,1873.3,23.2,61.8,105.4,1225.0,4213.0,4.0,1,
139400,1854.5,24.3,61.2,90.5,1099.0,3580.0,3.0,1,
139600,1861.9,79.9,30.0,66.8,1070.0,3400.0,4.0,1,
139700,1863.9,196.6,38.9,34.6,888.0,2957.0,3.0,1,
139800,1855.7,23.7,64.5,26.0,973.0,3505.0,3.0,1,
139900,1861.9,12.8,64.5,25.0,973.0,3505.0,3.0,1,
140000,1860.4,10.6,64.5,24.9,973.0,3505.0,3.0,1,
140100,1860.3,10.2,64.5,26.1,973.0,3505.0,3.0,1,
140200,1860.5,9.6,64.5,29.1,973.0,3505.0,3.0,1,
140300,1860.5,9.7,64.5,99.2,973.0,3505.0,3.0,1,
140400,1860.5,8.2,64.5,100.5,973.0,3505.0,3.0,1,
140600,1860.3,9.2,64.5,99.4,973.0,3505.0,3.0,1,
140700,1861.0,8.4,64.4,74.1,973.0,3505.0,3.0,1,
140800,1879.5,53.6,64.4,94.0,1462.0,5663.0,4.0,1,
140900,1844.1,17.4,65.4,99.9,1332.0,4581.0,3.0,1,
141000,1852.6,48.6,70.3,76.1,1132.0,3482.0,3.0,1,
141100,1858.2,129.1,71.1,38.8,1117.0,3364.0,4.0,1,
141200,1864.2,85.1,88.1,27.4,941.0,2804.0,4.0,1,
141300,1868.9,24.5,84.9,25.8,1008.0,3238.0,3.0,1,
141400,1847.5,19.6,66.7,26.1,914.0,3025.0,3.0,1,
141600,1860.7,8.7,65.6,35.2,914.0,3025.0,3.0,1,
141700,1861.1,8.0,65.5,40.9,914.0,3025.0,3.0,1,
141800,1860.2,9.1,65.5,66.4,914.0,3025.0,3.0,1,
141900,1860.7,8.4,65.5,79.9,914.0,3025.0,3.0,1,
142000,1861.0,8.1,65.5,99.8,914.0,3025.0,3.0,1,
142100,1860.7,8.6,65.5,132.5,914.0,3025.0,3.0,1,
142200,1860.9,8.3,65.5,124.0,914.0,3025.0,3.0,1,
142300,1860.6,8.2,65.5,101.0,914.0,3025.0,3.0,1,
142400,1860.5,16.9,65.5,100.8,1430.0,5278.0,3.0,1,
142600,1864.5,90.5,74.4,30.0,1237.0,3937.0,3.0,1,
142700,1855.9,56.2,81.3,27.5,1095.0,3332.0,4.0,1,
142800,1878.7,25.8,68.3,25.4,943.0,3151.0,3.0,1,
142900,1845.3,70.7,62.1,25.9,996.0,3139.0,4.0,1,
143000,1860.9,47.0,64.4,29.3,1051.0,3331.0,3.0,1,
143100,1858.1,9.8,72.8,27.7,1051.0,3331.0,3.0,1,
143200,1860.2,8.7,72.8,26.2,1051.0,3331.0,3.0,1,
143300,1860.3,9.1,72.8,26.4,1051.0,3331.0,3.0,1,
143400,1860.4,8.2,72.8,27.5,1051.0,3331.0,3.0,1,
143600,1860.7,8.7,72.8,98.9,1051.0,3331.0,3.0,1,
143700,1860.5,9.0,72.8,80.8,1051.0,3331.0,3.0,1,
143800,1861.1,8.3,72.8,93.2,1051.0,3331.0,3.0,1,
143900,1860.3,9.0,72.8,101.9,1051.0,3331.0,3.0,1,
144000,1860.5,15.8,72.8,100.9,1466.0,5485.0,4.0,1,
144100,1862.2,32.0,72.9,132.6,1489.0,4930.0,3.0,1,
144200,1851.9,68.2,63.5,111.1,1310.0,4489.0,3.0,1,
144300,1877.6,39.5,48.7,67.8,1075.0,3399.0,3.0,1,
144400,1844.1,22.0,48.9,36.0,1083.0,3051.0,4.0,1,
144600,1865.3,32.8,46.1,29.0,836.0,3016.0,4.0,1,
144700,1858.5,12.0,30.8,36.7,836.0,3016.0,4.0,1,
144800,1859.0,9.7,30.9,37.1,836.0,3016.0,4.0,1,
144900,1861.1,8.1,30.9,35.9,836.0,3016.0,4.0,1,
145000,1860.8,8.3,30.9,36.5,836.0,3016.0,4.0,1,
145100,1861.2,9.4,30.9,49.2,836.0,3016.0,4.0,1,
145200,1861.4,8.5,30.9,101.2,836.0,3016.0,4.0,1,
145300,1860.8,8.1,30.9,113.3,836.0,3016.0,4.0,1,
145400,1860.5,9.5,30.9,108.1,836.0,3016.0,4.0,1,
145600,1861.3,8.6,30.9,132.8,836.0,3016.0,4.0,1,
145700,1865.7,31.9,33.5,93.1,1453.0,5456.0,3.0,1,
145800,1863.9,61.4,40.1,34.8,1261.0,4176.0,3.0,1,
145900,1850.5,49.5,50.7,28.9,1257.0,4376.0,4.0,1,
146000,1862.4,46.6,53.6,36.3,1115.0,3541.0,3.0,1,
146100,1865.1,113.1,55.1,35.9,911.0,2991.0,4.0,1,
146200,1851.5,94.5,64.7,34.6,894.0,2857.0,3.0,1,
146300,1862.0,18.3,78.7,26.6,888.0,3113.0,3.0,1,
146400,1860.2,10.5,78.7,26.4,888.0,3113.0,3.0,1,
146600,1859.9,9.1,78.8,29.4,888.0,3113.0,3.0,1,
146700,1860.4,8.9,78.8,37.6,888.0,3113.0,3.0,1,
146800,1861.0,9.5,78.8,86.3,888.0,3113.0,3.0,1,
146900,1860.4,10.0,78.8,112.1,888.0,3113.0,3.0,1,
147000,1860.4,9.9,78.8,135.4,888.0,3113.0,3.0,1,
147100,1860.4,9.6,78.8,124.9,888.0,3113.0,3.0,1,
147200,1860.2,10.2,78.9,111.2,888.0,3113.0,3.0,1,
147300,1867.9,23.0,79.3,100.3,1435.0,5365.0,4.0,1,
147400,1849.4,35.3,75.0,30.1,1272.0,4431.0,4.0,1,
147600,1856.9,37.7,77.9,29.5,1126.0,3668.0,3.0,1,
147700,1865.3,23.9,77.3,29.7,1136.0,3554.0,4.0,1,
147800,1863.0,61.0,72.3,29.4,910.0,2761.0,3.0,1,
147900,1857.9,25.9,59.3,29.6,1022.0,3283.0,3.0,1,
148000,1861.1,13.6,59.7,34.5,1022.0,3283.0,3.0,1,
148100,1860.2,10.5,59.8,29.7,1022.0,3283.0,3.0,1,
148200,1860.0,9.9,59.8,38.3,1022.0,3283.0,3.0,1,
148300,1860.6,9.7,59.8,43.4,1022.0,3283.0,3.0,1,
148400,1860.6,11.1,59.8,67.1,1022.0,3283.0,3.0,1,
148600,1860.0,9.9,59.8,101.0,1022.0,3283.0,3.0,1,
148700,1859.9,11.1,59.8,110.1,1022.0,3283.0,3.0,1,
148800,1860.2,10.6,59.8,153.7,1022.0,3283.0,3.0,1,
148900,1860.7,93.3,59.8,139.0,1422.0,5592.0,3.0,1,
149000,1859.4,61.4,72.0,34.3,1253.0,4411.0,4.0,1,
149100,1856.3,23.8,72.2,29.7,1216.0,4267.0,3.0,1,
149200,1871.4,132.2,63.0,29.1,1090.0,3556.0,4.0,1,
149300,1853.9,105.5,70.1,28.4,1122.0,3511.0,4.0,1,
149400,1857.4,22.8,74.2,26.9,1043.0,3404.0,4.0,1,
149600,1869.8,10.9,67.5,28.8,1043.0,3404.0,4.0,1,
149700,1860.5,9.3,67.4,29.7,1043.0,3404.0,4.0,1,
149800,1860.8,9.1,67.4,35.9,1043.0,3404.0,4.0,1,
149900,1860.5,9.1,67.4,42.6,1043.0,3404.0,4.0,1,
150000,1860.6,8.6,67.4,78.0,1043.0,3404.0,4.0,1,
150100,1860.8,7.9,67.4,100.4,1043.0,3404.0,4.0,1,
150200,1860.0,9.7,67.3,134.0,1043.0,3404.0,4.0,1,
150300,1860.8,8.5,67.3,109.7,1043.0,3404.0,4.0,1,
150400,1861.3,8.2,67.3,99.5,1043.0,3404.0,4.0,1,
150600,1864.8,65.3,68.5,38.7,1450.0,5050.0,3.0,1,
150700,1867.2,67.1,71.9,29.5,1303.0,4159.0,3.0,1,
150800,1849.3,68.3,79.8,25.7,1140.0,3819.0,4.0,1,
150900,1864.6,32.3,71.2,25.0,979.0,3530.0,4.0,1,
151000,1853.0,57.2,67.8,25.6,991.0,3238.0,3.0,1,
151100,1855.9,43.1,70.0,29.3,1031.0,3070.0,4.0,1,
151200,1867.0,12.5,78.1,27.4,1031.0,3070.0,4.0,1,
151300,1860.1,8.3,78.1,26.1,1031.0,3070.0,4.0,1,
151400,1860.0,9.1,78.1,26.7,1031.0,3070.0,4.0,1,
151600,1860.6,8.2,78.1,45.0,1031.0,3070.0,4.0,1,
151700,1860.0,8.7,78.1,115.4,1031.0,3070.0,4.0,1,
151800,1860.6,8.6,78.1,102.1,1031.0,3070.0,4.0,1,
151900,1860.9,8.1,78.1,99.6,1031.0,3070.0,4.0,1,
152000,1860.4,9.3,78.1,101.4,1031.0,3070.0,4.0,1,
152100,1860.8,10.1,78.1,103.0,1031.0,3070.0,4.0,1,
152200,1872.1,51.0,74.3,102.2,1524.0,5231.0,3.0,1,
152300,1841.7,36.9,70.0,42.1,1350.0,4908.0,4.0,1,
152400,1865.2,53.5,54.5,36.7,1085.0,3994.0,4.0,1,
152600,1852.5,58.0,65.2,34.6,979.0,2787.0,3.0,1,
152700,1879.7,32.1,68.8,29.4,822.0,2744.0,4.0,1,
152800,1850.1,12.0,58.7,29.2,985.0,3275.0,3.0,1,
152900,1860.1,10.8,58.7,29.6,985.0,3275.0,3.0,1,
153000,1861.5,9.5,58.7,35.4,985.0,3275.0,3.0,1,
153100,1860.6,8.1,58.8,46.5,985.0,3275.0,3.0,1,
153200,1860.3,9.3,58.8,66.6,985.0,3275.0,3.0,1,
153300,1860.8,8.9,58.8,70.9,985.0,3275.0,3.0,1,
153400,1860.6,8.5,58.8,100.5,985.0,3275.0,3.0,1,
153600,1860.4,8.9,58.8,99.9,985.0,3275.0,3.0,1,
153700,1860.4,8.4,58.8,100.0,985.0,3275.0,3.0,1,
153800,1859.8,90.0,58.7,102.4,1397.0,5620.0,4.0,1,
153900,1854.7,33.5,60.0,36.5,1387.0,4845.0,3.0,1,
154000,1854.2,50.6,61.6,29.3,1215.0,4108.0,4.0,1,
154100,1855.0,18.6,68.0,29.1,1130.0,3510.0,3.0,1,
154200,1883.6,142.4,58.9,29.2,915.0,3224.0,3.0,1,
154300,1853.6,49.8,62.7,29.6,958.0,3046.0,3.0,1,
154400,1852.0,17.2,64.9,29.1,737.0,2618.0,4.0,1,
154600,1860.9,8.0,64.8,27.3,737.0,2618.0,4.0,1,
154700,1860.6,9.4,64.8,29.5,737.0,2618.0,4.0,1,
154800,1860.6,8.7,64.8,56.3,737.0,2618.0,4.0,1,
154900,1860.9,7.1,64.8,99.2,737.0,2618.0,4.0,1,
155000,1860.6,8.8,64.8,99.3,737.0,2618.0,4.0,1,
155100,1861.0,8.5,64.8,99.7,737.0,2618.0,4.0,1,
155200,1861.1,8.3,64.8,101.3,737.0,2618.0,4.0,1,
155300,1860.6,8.7,64.8,107.4,737.0,2618.0,4.0,1,
155400,1861.0,17.3,64.8,101.7,1473.0,5535.0,3.0,1,
155600,1863.1,45.9,58.0,114.5,1213.0,4135.0,3.0,1,
155700,1870.3,33.9,52.3,66.3,1040.0,3534.0,3.0,1,
155800,1851.6,19.8,53.1,28.2,1095.0,3586.0,3.0,1,
155900,1853.8,28.4,38.6,28.1,1019.0,3205.0,4.0,1,
156000,1866.8,19.4,35.6,28.6,930.0,3312.0,4.0,1,
156100,1859.7,8.2,35.7,37.5,930.0,3312.0,4.0,1,
156200,1859.7,8.9,35.7,42.9,930.0,3312.0,4.0,1,
156300,1861.2,8.4,35.7,43.1,930.0,3312.0,4.0,1,
156400,1861.0,7.3,35.6,45.5,930.0,3312.0,4.0,1,
156600,1860.7,8.6,35.7,100.4,930.0,3312.0,4.0,1,
156700,1860.2,7.4,35.7,101.3,930.0,3312.0,4.0,1,
156800,1860.4,8.8,35.7,102.3,930.0,3312.0,4.0,1,
156900,1860.6,8.3,35.7,99.4,930.0,3312.0,4.0,1,
157000,1860.5,54.8,35.7,99.4,1446.0,5253.0,4.0,1,
157100,1875.0,69.4,38.0,85.0,1326.0,4615.0,4.0,1,
157200,1855.5,22.0,39.7,42.4,1326.0,4481.0,3.0,1,
157300,1850.8,43.4,31.8,30.2,1270.0,4301.0,3.0,1,
157400,1859.0,72.5,29.6,26.0,1027.0,3325.0,4.0,1,
157600,1873.5,24.2,55.0,27.1,1041.0,3732.0,3.0,1,
157700,1850.9,11.2,55.0,26.0,1041.0,3732.0,3.0,1,
157800,1858.8,10.0,55.0,27.1,1041.0,3732.0,3.0,1,
157900,1861.4,7.7,55.0,36.5,1041.0,3732.0,3.0,1,
158000,1860.2,8.8,55.0,76.8,1041.0,3732.0,3.0,1,
158100,1861.0,8.4,55.0,93.8,1041.0,3732.0,3.0,1,
158200,1861.2,7.4,55.0,91.7,1041.0,3732.0,3.0,1,
158300,1860.9,8.6,55.0,100.6,1041.0,3732.0,3.0,1,
158400,1861.1,8.5,55.0,102.5,1041.0,3732.0,3.0,1,
158600,1860.3,41.3,55.0,133.4,1041.0,3732.0,3.0,1,
158700,1871.7,40.9,54.1,67.0,1509.0,5563.0,3.0,1,
158800,1848.6,80.9,63.0,25.7,1190.0,3645.0,3.0,1,
158900,1862.4,86.7,67.5,25.4,1165.0,3878.0,3.0,1,
159000,1869.6,99.0,73.0,25.6,906.0,2903.0,4.0,1,
159100,1869.8,46.9,73.0,26.9,933.0,2928.0,3.0,1,
159200,1847.6,140.9,62.7,29.4,958.0,3068.0,3.0,1,
159300,1861.6,16.5,78.1,29.1,933.0,3051.0,3.0,1,
159400,1859.7,7.7,78.1,29.1,933.0,3051.0,3.0,1,
159600,1860.2,8.4,78.1,30.1,933.0,3051.0,3.0,1,
159700,1860.8,7.3,78.1,35.5,933.0,3051.0,3.0,1,
159800,1860.3,9.0,78.1,76.2,933.0,3051.0,3.0,1,
159900,1860.7,8.6,78.1,113.8,933.0,3051.0,3.0,1,
160000,1861.1,8.0,78.1,114.1,933.0,3051.0,3.0,1,
160100,1860.8,8.8,78.1,101.1,933.0,3051.0,3.0,1,
160200,1861.2,8.5,78.1,101.3,933.0,3051.0,3.0,1,
160300,1858.0,35.0,77.5,100.7,1453.0,5336.0,4.0,1,
160400,1865.8,62.5,77.1,37.3,1356.0,4709.0,3.0,1,
160600,1876.1,31.5,65.4,26.3,1257.0,4482.0,4.0,1,
160700,1845.7,44.5,61.4,26.5,1166.0,3568.0,3.0,1,
160800,1862.0,108.6,62.8,28.5,989.0,3498.0,3.0,1,
160900,1861.7,16.2,54.3,34.9,853.0,3098.0,4.0,1,
161000,1863.0,9.3,54.3,26.3,853.0,3098.0,4.0,1,
161100,1861.5,8.6,54.3,26.8,853.0,3098.0,4.0,1,
161200,1861.2,7.7,54.3,27.4,853.0,3098.0,4.0,1,
161300,1860.7,9.2,54.3,28.0,853.0,3098.0,4.0,1,
161400,1861.0,8.8,54.3,85.4,853.0,3098.0,4.0,1,
161600,1860.6,8.6,54.3,100.4,853.0,3098.0,4.0,1,
161700,1861.1,8.5,54.3,101.5,853.0,3098.0,4.0,1,
161800,1861.0,7.8,54.3,101.8,853.0,3098.0,4.0,1,
161900,1860.7,89.7,54.3,101.4,1447.0,5544.0,4.0,1,
162000,1855.6,25.6,60.6,49.6,1342.0,4962.0,3.0,1,
162100,1871.3,40.7,56.6,29.9,1178.0,4033.0,4.0,1,
162200,1852.5,56.6,55.4,28.9,1153.0,3536.0,3.0,1,
162300,1864.7,50.5,64.5,28.1,959.0,3180.0,4.0,1,
162400,1857.5,35.5,65.5,27.5,1008.0,3303.0,3.0,1,
162600,1870.6,10.9,56.4,29.6,1008.0,3303.0,3.0,1,
162700,1860.8,7.7,56.4,34.6,1008.0,3303.0,3.0,1,
162800,1861.0,9.0,56.4,36.7,1008.0,3303.0,3.0,1,
162900,1860.8,8.6,56.4,53.6,1008.0,3303.0,3.0,1,
163000,1861.5,7.6,56.4,78.1,1008.0,3303.0,3.0,1,
163100,1861.0,8.5,56.4,99.7,1008.0,3303.0,3.0,1,
163200,1861.2,8.5,56.4,99.9,1008.0,3303.0,3.0,1,
163300,1860.9,7.5,56.4,100.0,1008.0,3303.0,3.0,1,
163400,1860.7,8.4,56.4,101.2,1008.0,3303.0,3.0,1,
163600,1865.5,24.8,50.6,104.3,1416.0,4914.0,3.0,1,
163700,1848.7,42.1,47.8,102.5,1262.0,4943.0,4.0,1,
163800,1866.8,85.6,47.8,88.0,1105.0,3765.0,3.0,1,
163900,1855.4,94.2,51.9,27.8,1120.0,3398.0,3.0,1,
164000,1859.5,54.4,62.2,25.6,1153.0,3852.0,3.0,1,
164100,1874.8,24.7,61.5,25.5,969.0,3419.0,4.0,1,
164200,1850.0,9.1,60.6,26.0,969.0,3419.0,4.0,1,
164300,1859.3,10.0,60.6,28.3,969.0,3419.0,4.0,1,
164400,1860.7,9.4,60.6,41.3,969.0,3419.0,4.0,1,
164600,1860.3,9.7,60.6,67.9,969.0,3419.0,4.0,1,
164700,1860.6,9.7,60.6,87.3,969.0,3419.0,4.0,1,
164800,1860.8,8.5,60.6,98.8,969.0,3419.0,4.0,1,
164900,1860.4,9.4,60.6,100.1,969.0,3419.0,4.0,1,
165000,1860.1,9.1,60.7,100.8,969.0,3419.0,4.0,1,
165100,1860.5,16.0,60.7,100.3,969.0,3419.0,4.0,1,
165200,1860.6,34.8,67.8,41.9,1440.0,5374.0,4.0,1,
165300,1856.0,25.2,69.1,30.2,1308.0,4730.0,3.0,1,
165400,1860.4,65.8,68.2,29.6,1238.0,3778.0,4.0,1,
165600,1861.1,30.8,46.3,29.3,928.0,3003.0,3.0,1,
165700,1849.4,29.7,43.7,28.7,963.0,3498.0,3.0,1,
165800,1864.7,13.2,44.3,29.8,963.0,3498.0,3.0,1,
165900,1861.0,9.6,44.4,48.5,963.0,3498.0,3.0,1,
166000,1861.5,8.7,44.4,55.6,963.0,3498.0,3.0,1,
166100,1860.0,9.3,44.4,57.2,963.0,3498.0,3.0,1,
166200,1860.8,9.3,44.4,71.5,963.0,3498.0,3.0,1,
166300,1860.7,8.9,44.4,100.4,963.0,3498.0,3.0,1,
166400,1860.6,9.4,44.4,100.0,963.0,3498.0,3.0,1,
166600,1860.8,8.1,44.4,137.7,963.0,3498.0,3.0,1,
166700,1860.2,8.9,44.3,133.4,963.0,3498.0,3.0,1,
166800,1859.7,38.8,44.4,133.1,1617.0,5823.0,4.0,1,
166900,1864.1,25.3,36.3,35.0,1296.0,4279.0,3.0,1,
167000,1874.5,81.9,35.2,29.1,1088.0,3675.0,3.0,1,
167100,1853.7,63.4,35.1,29.4,966.0,2882.0,3.0,1,
167200,1854.8,25.8,45.9,29.7,763.0,2838.0,4.0,1,
167300,1861.8,46.7,45.8,28.3,626.0,2335.0,3.0,1,
167400,1865.1,17.6,47.8,28.3,775.0,2892.0,4.0,1,
167600,1861.0,9.7,47.1,42.3,775.0,2892.0,4.0,1,
167700,1860.4,10.4,47.1,43.9,775.0,2892.0,4.0,1,
167800,1861.4,13.9,47.2,52.1,775.0,2892.0,4.0,1,
167900,1861.0,10.3,47.3,74.9,775.0,2892.0,4.0,1,
168000,1860.8,11.4,47.3,65.6,775.0,2892.0,4.0,1,
168100,1860.9,9.3,47.4,72.4,775.0,2892.0,4.0,1,
168200,1860.0,9.7,47.5,79.3,775.0,2892.0,4.0,1,
168300,1861.0,11.1,47.5,74.5,775.0,2892.0,4.0,1,
168400,1852.5,193.8,47.5,79.4,1055.0,3461.0,3.0,1,
168600,1840.4,28.3,74.7,28.2,1201.0,3757.0,4.0,1,
168700,1862.1,47.5,72.8,27.5,1006.0,3011.0,4.0,1,
168800,1863.3,166.6,73.1,26.2,1087.0,3195.0,3.0,1,
168900,1852.5,47.7,88.8,28.6,991.0,3423.0,3.0,1,
169000,1874.1,33.4,93.2,28.3,991.0,3254.0,3.0,1,
169100,1854.0,11.5,94.6,28.3,991.0,3254.0,3.0,1,
169200,1859.0,9.6,94.6,27.5,991.0,3254.0,3.0,1,
169300,1861.0,9.2,94.6,29.1,991.0,3254.0,3.0,1,
169400,1860.3,9.8,94.5,52.8,991.0,3254.0,3.0,1,
169600,1861.4,8.9,94.5,78.2,991.0,3254.0,3.0,1,
169700,1860.1,9.5,94.4,94.7,991.0,3254.0,3.0,1,
169800,1860.3,9.9,94.4,112.4,991.0,3254.0,3.0,1,
169900,1861.0,8.9,94.4,110.0,991.0,3254.0,3.0,1,
170000,1860.6,15.7,94.4,101.4,1088.0,3677.0,3.0,1,
170100,1848.2,51.2,78.4,66.7,1446.0,5029.0,3.0,1,
170200,1863.7,24.1,80.2,38.4,1154.0,3725.0,3.0,1,
170300,1861.4,59.4,76.9,29.3,923.0,2845.0,4.0,1,
170400,1853.6,41.6,72.4,28.2,1063.0,3485.0,3.0,1,
170600,1854.3,22.3,60.0,38.2,1065.0,3720.0,4.0,1,
170700,1858.3,10.5,56.1,29.2,1065.0,3720.0,4.0,1,
170800,1860.6,9.0,56.1,29.5,1065.0,3720.0,4.0,1,
170900,1861.3,9.5,56.1,34.7,1065.0,3720.0,4.0,1,
171000,1861.3,9.5,56.1,45.0,1065.0,3720.0,4.0,1,
171100,1861.4,8.7,56.0,76.2,1065.0,3720.0,4.0,1,
171200,1861.0,9.3,56.0,100.6,1065.0,3720.0,4.0,1,
171300,1861.2,9.7,56.0,116.0,1065.0,3720.0,4.0,1,
171400,1861.1,8.7,56.0,134.7,1065.0,3720.0,4.0,1,
171600,1860.6,19.3,56.0,134.1,1455.0,5276.0,4.0,1,
171700,1863.5,24.8,56.2,132.6,1410.0,4900.0,4.0,1,
171800,1861.3,39.6,48.9,83.7,1275.0,4671.0,3.0,1,
171900,1855.1,17.5,61.9,34.8,1200.0,4016.0,4.0,1,
172000,1866.4,28.8,59.9,29.4,1140.0,3689.0,3.0,1,
172100,1858.7,106.9,57.8,28.5,1018.0,3629.0,4.0,1,
172200,1857.7,52.9,55.1,27.5,925.0,3293.0,3.0,1,
172300,1861.0,11.8,59.4,27.1,925.0,3293.0,3.0,1,
172400,1860.0,11.0,59.4,27.0,925.0,3293.0,3.0,1,
172600,1861.4,8.5,59.4,29.5,925.0,3293.0,3.0,1,
172700,1861.0,9.0,59.4,54.5,925.0,3293.0,3.0,1,
172800,1861.3,9.3,59.4,77.2,925.0,3293.0,3.0,1,
172900,1861.2,8.4,59.4,99.7,925.0,3293.0,3.0,1,
173000,1861.3,9.0,59.4,100.4,925.0,3293.0,3.0,1,
173100,1861.6,9.3,59.4,134.2,925.0,3293.0,3.0,1,
173200,1861.0,43.0,59.4,108.2,925.0,3293.0,3.0,1,
173300,1860.8,35.3,63.2,47.2,1487.0,5691.0,3.0,1,
173400,1869.7,21.0,63.7,29.6,1266.0,4398.0,4.0,1,
173600,1859.9,28.4,50.3,27.1,1034.0,3924.0,4.0,1,
173700,1848.6,71.6,50.4,28.1,1054.0,3392.0,3.0,1,
173800,1861.5,72.8,43.2,28.1,1054.0,3562.0,3.0,1,
173900,1865.2,18.1,48.5,28.7,1038.0,3836.0,4.0,1,
174000,1861.2,10.6,48.6,29.3,1038.0,3836.0,4.0,1,
174100,1860.7,8.9,48.5,30.2,1038.0,3836.0,4.0,1,
174200,1860.2,9.5,48.5,37.6,1038.0,3836.0,4.0,1,
174300,1861.1,9.7,48.5,55.7,1038.0,3836.0,4.0,1,
174400,1861.0,9.1,48.5,77.4,1038.0,3836.0,4.0,1,
174600,1860.7,9.9,48.5,110.9,1038.0,3836.0,4.0,1,
174700,1861.1,8.7,48.6,123.2,1038.0,3836.0,4.0,1,
174800,1860.8,9.2,48.6,99.6,1038.0,3836.0,4.0,1,
174900,1877.8,22.6,46.1,101.0,1392.0,5392.0,4.0,1,
175000,1845.0,34.4,51.5,45.1,1327.0,5173.0,3.0,1,
175100,1852.6,28.4,54.9,30.0,1223.0,4265.0,3.0,1,
175200,1862.0,88.7,55.2,28.9,1183.0,3689.0,4.0,1,
175300,1866.2,82.3,69.5,29.1,1041.0,3598.0,4.0,1,
175400,1869.6,38.8,68.6,29.2,1022.0,3603.0,3.0,1,
175600,1858.2,10.4,61.3,28.4,1022.0,3603.0,3.0,1,
175700,1860.1,9.1,61.3,35.2,1022.0,3603.0,3.0,1,
175800,1860.6,9.8,61.4,40.6,1022.0,3603.0,3.0,1,
175900,1860.6,9.3,61.4,47.0,1022.0,3603.0,3.0,1,
176000,1860.3,9.0,61.4,68.5,1022.0,3603.0,3.0,1,
176100,1860.6,9.6,61.4,74.1,1022.0,3603.0,3.0,1,
176200,1860.3,9.5,61.4,99.1,1022.0,3603.0,3.0,1,
176300,1860.2,9.1,61.4,99.2,1022.0,3603.0,3.0,1,
176400,1860.9,10.1,61.4,101.7,1022.0,3603.0,3.0,1,
176600,1851.5,49.6,71.7,34.8,1423.0,5187.0,4.0,1,
176700,1868.8,75.5,69.0,29.8,1276.0,4003.0,3.0,1,
176800,1855.7,174.4,75.5,29.4,1114.0,4075.0,3.0,1,
176900,1879.2,37.6,78.1,28.6,1211.0,3896.0,4.0,1,
177000,1847.5,34.7,75.6,26.0,1186.0,3796.0,3.0,1,
177100,1861.7,22.0,76.3,25.7,1009.0,3824.0,4.0,1,
177200,1859.3,10.8,76.3,26.3,1009.0,3824.0,4.0,1,
177300,1860.3,10.0,76.3,27.6,1009.0,3824.0,4.0,1,
177400,1860.4,9.7,76.3,29.3,1009.0,3824.0,4.0,1,
177600,1860.1,9.2,76.3,93.0,1009.0,3824.0,4.0,1,
177700,1860.9,9.8,76.3,110.6,1009.0,3824.0,4.0,1,
177800,1860.2,9.5,76.3,100.0,1009.0,3824.0,4.0,1,
177900,1860.8,9.7,76.3,99.6,1009.0,3824.0,4.0,1,
178000,1860.7,10.4,76.3,107.1,1009.0,3824.0,4.0,1,
178100,1860.5,22.4,76.3,101.8,1492.0,5295.0,3.0,1,
178200,1863.4,90.0,66.4,84.9,1365.0,5532.0,4.0,1,
178300,1850.4,30.7,66.5,37.5,1346.0,4943.0,3.0,1,
178400,1870.9,44.3,64.6,29.9,1247.0,4096.0,4.0,1,
178600,1861.6,40.7,56.8,28.5,1071.0,3688.0,4.0,1,
178700,1856.2,32.1,56.6,29.1,1100.0,3798.0,3.0,1,
178800,1867.0,11.5,56.7,29.8,1100.0,3798.0,3.0,1,
178900,1860.0,9.9,56.7,35.3,1100.0,3798.0,3.0,1,
179000,1860.0,9.7,56.7,37.9,1100.0,3798.0,3.0,1,
179100,1860.3,9.5,56.7,41.8,1100.0,3798.0,3.0,1,
179200,1860.5,9.8,56.7,69.1,1100.0,3798.0,3.0,1,
179300,1860.5,9.4,56.7,101.7,1100.0,3798.0,3.0,1,
179400,1860.8,9.8,56.7,101.6,1100.0,3798.0,3.0,1,
179600,1860.2,9.7,56.7,102.4,1100.0,3798.0,3.0,1,
179700,1860.6,11.3,56.7,105.1,1100.0,3798.0,3.0,1,
179800,1860.3,39.1,56.8,108.6,1483.0,5613.0,4.0,1,
179900,1867.1,47.5,52.5,83.5,1262.0,4749.0,3.0,1,
180000,1856.2,35.8,61.5,34.8,1239.0,4415.0,4.0,1,
180100,1858.0,31.9,49.4,28.0,1078.0,3544.0,3.0,1,
180200,1861.9,18.3,44.5,27.9,1013.0,3280.0,4.0,1,
180300,1862.3,59.6,44.1,29.4,919.0,3160.0,3.0,1,
180400,1869.5,14.8,50.1,30.2,957.0,3344.0,4.0,1,
180600,1860.7,9.7,50.1,35.6,957.0,3344.0,4.0,1,
180700,1860.8,9.5,50.1,34.6,957.0,3344.0,4.0,1,
180800,1860.8,9.6,50.1,45.2,957.0,3344.0,4.0,1,
180900,1860.6,9.4,50.1,108.0,957.0,3344.0,4.0,1,
181000,1861.0,11.3,50.1,109.7,957.0,3344.0,4.0,1,
181100,1860.6,9.7,50.1,109.6,957.0,3344.0,4.0,1,
181200,1860.1,9.7,50.1,109.7,957.0,3344.0,4.0,1,
181300,1860.6,10.1,50.1,110.0,957.0,3344.0,4.0,1,
181400,1865.3,49.2,50.1,103.5,1441.0,6101.0,4.0,1,
181600,1857.2,37.5,49.8,37.7,1156.0,3645.0,3.0,1,
181700,1863.8,52.5,41.9,30.2,1181.0,3907.0,3.0,1,
181800,1866.6,43.3,45.2,29.8,1126.0,3918.0,4.0,1,
181900,1863.9,32.8,45.8,34.4,1067.0,3660.0,3.0,1,
182000,1849.4,23.9,47.5,35.7,853.0,2973.0,3.0,1,
182100,1860.1,13.9,47.4,35.2,853.0,2973.0,3.0,1,
182200,1861.5,10.6,47.4,30.1,853.0,2973.0,3.0,1,
182300,1861.3,8.9,47.4,29.5,853.0,2973.0,3.0,1,
182400,1861.8,9.8,47.4,29.7,853.0,2973.0,3.0,1,
182600,1861.2,9.3,47.4,99.2,853.0,2973.0,3.0,1,
182700,1861.2,10.0,47.4,101.6,853.0,2973.0,3.0,1,
182800,1861.4,10.1,47.4,125.3,853.0,2973.0,3.0,1,
182900,1861.0,9.3,47.4,132.9,853.0,2973.0,3.0,1,
183000,1861.4,20.7,47.4,102.5,1466.0,5510.0,3.0,1,
183100,1859.1,23.6,46.6,113.9,1407.0,5377.0,4.0,1,
183200,1869.6,22.8,46.0,115.1,1194.0,3625.0,4.0,1,
183300,1868.8,52.5,46.0,72.4,938.0,3157.0,3.0,1,
183400,1851.4,43.5,59.1,29.6,839.0,2961.0,4.0,1,
183600,1862.2,21.9,67.9,29.4,913.0,3469.0,3.0,1,
183700,1861.2,14.0,61.8,34.2,913.0,3469.0,3.0,1,
183800,1860.3,12.4,61.8,37.7,913.0,3469.0,3.0,1,
183900,1861.7,10.2,61.8,39.7,913.0,3469.0,3.0,1,
184000,1861.7,10.6,61.8,51.5,913.0,3469.0,3.0,1,
184100,1861.1,9.0,61.8,81.0,913.0,3469.0,3.0,1,
184200,1862.1,10.0,61.8,82.8,913.0,3469.0,3.0,1,
184300,1861.8,10.4,61.8,100.6,913.0,3469.0,3.0,1,
184400,1861.1,8.8,61.8,107.8,913.0,3469.0,3.0,1,
184600,1861.4,23.1,61.8,88.7,1064.0,3561.0,3.0,1,
184700,1859.9,104.3,61.9,79.4,1389.0,5379.0,4.0,1,
184800,1883.3,58.7,66.7,48.8,992.0,3150.0,3.0,1,
184900,1845.6,69.4,73.0,29.5,959.0,3015.0,3.0,1,
185000,1864.1,25.4,74.7,28.4,932.0,3093.0,3.0,1,
185100,1864.9,99.2,66.2,28.9,738.0,2876.0,3.0,1,
185200,1848.6,62.0,68.8,29.9,883.0,3081.0,3.0,1,
185300,1870.7,27.0,72.1,29.6,883.0,3081.0,3.0,1,
185400,1860.6,10.7,72.5,26.2,883.0,3081.0,3.0,1,
185600,1861.5,9.2,72.5,29.2,883.0,3081.0,3.0,1,
185700,1862.0,9.6,72.5,57.6,883.0,3081.0,3.0,1,
185800,1862.0,9.7,72.5,83.9,883.0,3081.0,3.0,1,
185900,1861.8,8.9,72.5,87.9,883.0,3081.0,3.0,1,
186000,1862.2,9.3,72.4,108.2,883.0,3081.0,3.0,1,
186100,1861.8,10.1,72.4,133.6,883.0,3081.0,3.0,1,
186200,1861.4,9.2,72.4,132.7,883.0,3081.0,3.0,1,
186300,1870.1,82.9,73.4,71.2,1600.0,5689.0,4.0,1,
186400,1847.4,92.7,71.7,37.2,1256.0,4513.0,4.0,1,
186600,1860.3,32.9,58.9,27.7,748.0,2698.0,3.0,1,
186700,1850.9,88.1,60.0,29.8,741.0,2626.0,4.0,1,
186800,1878.3,155.9,60.1,35.4,824.0,2825.0,4.0,1,
186900,1855.5,28.9,66.0,34.6,701.0,2488.0,3.0,1,
187000,1862.6,19.9,65.8,29.7,701.0,2488.0,3.0,1,
187100,1862.1,10.7,66.0,34.6,701.0,2488.0,3.0,1,
187200,1862.5,9.7,66.0,38.9,701.0,2488.0,3.0,1,
187300,1862.7,10.4,66.0,50.9,701.0,2488.0,3.0,1,
187400,1861.9,8.8,66.0,75.8,701.0,2488.0,3.0,1,
187600,1862.0,10.1,66.0,130.6,701.0,2488.0,3.0,1,
187700,1861.4,8.9,66.0,102.5,701.0,2488.0,3.0,1,
187800,1861.3,9.2,66.0,101.7,701.0,2488.0,3.0,1,
187900,1860.8,21.0,65.9,100.9,1469.0,5225.0,4.0,1,
188000,1856.8,35.9,61.5,99.1,1344.0,5183.0,3.0,1,
188100,1855.2,15.5,59.7,38.6,1209.0,3974.0,4.0,1,
188200,1858.5,82.1,59.4,29.7,1143.0,3704.0,3.0,1,
188300,1874.5,25.3,69.0,29.0,993.0,3410.0,3.0,1,
188400,1850.9,78.8,68.0,29.6,1049.0,3762.0,3.0,1,
188600,1864.4,9.6,64.5,29.7,1049.0,3762.0,3.0,1,
188700,1861.0,9.1,64.2,30.2,1049.0,3762.0,3.0,1,
188800,1861.8,10.2,64.2,35.2,1049.0,3762.0,3.0,1,
188900,1861.5,8.6,64.2,37.9,1049.0,3762.0,3.0,1,
189000,1861.5,9.5,64.2,49.7,1049.0,3762.0,3.0,1,
189100,1861.8,10.2,64.2,99.7,1049.0,3762.0,3.0,1,
189200,1861.8,9.0,64.2,100.4,1049.0,3762.0,3.0,1,
189300,1862.1,8.8,64.2,100.0,1049.0,3762.0,3.0,1,
189400,1862.2,10.0,64.2,99.8,1049.0,3762.0,3.0,1,
189600,1864.7,21.6,65.4,67.2,1282.0,4624.0,3.0,1,
189700,1870.1,57.4,61.7,35.2,1165.0,4438.0,4.0,1,
189800,1859.8,23.3,62.8,29.3,1178.0,3886.0,3.0,1,
189900,1849.1,114.6,51.0,29.1,1104.0,3566.0,3.0,1,
190000,1860.7,46.2,61.3,29.7,987.0,3229.0,3.0,1,
190100,1866.1,17.8,45.2,29.6,984.0,3652.0,3.0,1,
190200,1860.4,9.5,44.8,29.6,984.0,3652.0,3.0,1,
190300,1861.2,9.8,44.8,34.3,984.0,3652.0,3.0,1,
190400,1861.5,8.9,44.8,35.9,984.0,3652.0,3.0,1,
190600,1862.4,10.1,44.8,84.6,984.0,3652.0,3.0,1,
190700,1861.2,8.9,44.8,99.4,984.0,3652.0,3.0,1,
190800,1861.3,9.0,44.8,99.4,984.0,3652.0,3.0,1,
190900,1862.0,9.9,44.8,86.9,984.0,3652.0,3.0,1,
191000,1861.4,8.6,44.8,100.1,984.0,3652.0,3.0,1,
191100,1862.1,82.1,44.8,131.1,1080.0,3858.0,4.0,1,
191200,1879.7,60.6,52.9,45.9,1346.0,5538.0,3.0,1,
191300,1838.0,27.6,60.0,28.6,1195.0,4451.0,4.0,1,
191400,1861.6,60.0,58.8,28.4,1079.0,3592.0,4.0,1,
191600,1866.5,37.3,61.3,28.7,989.0,3503.0,3.0,1,
191700,1863.2,24.1,59.9,27.3,1040.0,3608.0,4.0,1,
191800,1861.4,11.5,59.9,27.4,1040.0,3608.0,4.0,1,
191900,1859.3,9.1,60.0,36.6,1040.0,3608.0,4.0,1,
192000,1862.1,9.0,60.0,49.5,1040.0,3608.0,4.0,1,
192100,1861.7,10.6,60.0,51.9,1040.0,3608.0,4.0,1,
192200,1861.5,8.7,60.0,92.6,1040.0,3608.0,4.0,1,
192300,1862.0,9.1,60.0,139.6,1040.0,3608.0,4.0,1,
192400,1861.9,9.8,60.0,132.4,1040.0,3608.0,4.0,1,
192600,1861.5,8.7,60.0,114.8,1040.0,3608.0,4.0,1,
192700,1862.0,15.2,60.0,116.3,1040.0,3608.0,4.0,1,
192800,1856.2,35.1,56.6,131.3,1529.0,5640.0,3.0,1,
192900,1857.5,19.5,45.0,93.8,1295.0,4814.0,3.0,1,
193000,1868.5,90.2,44.3,87.6,1161.0,4188.0,4.0,1,
193100,1853.5,99.6,48.2,43.8,1168.0,3999.0,3.0,1,
193200,1877.6,78.2,55.2,26.3,1161.0,3884.0,3.0,1,
193300,1853.8,42.3,65.4,26.7,945.0,3426.0,4.0,1,
193400,1858.1,12.1,65.8,27.6,954.0,3335.0,3.0,1,
193600,1861.6,10.0,65.8,35.2,954.0,3335.0,3.0,1,
193700,1860.9,9.2,65.8,37.8,954.0,3335.0,3.0,1,
193800,1861.4,9.0,65.8,75.1,954.0,3335.0,3.0,1,
193900,1861.8,9.6,65.8,116.6,954.0,3335.0,3.0,1,
194000,1861.7,9.0,65.8,116.5,954.0,3335.0,3.0,1,
194100,1861.6,8.7,65.8,101.6,954.0,3335.0,3.0,1,
194200,1861.7,9.9,65.8,101.8,954.0,3335.0,3.0,1,
194300,1861.6,9.1,65.8,102.3,954.0,3335.0,3.0,1,
194400,1861.5,68.0,74.4,37.3,1517.0,5909.0,4.0,1,
194600,1847.5,38.5,80.3,29.6,1134.0,3659.0,4.0,1,
194700,1879.7,125.9,76.4,29.5,1015.0,3169.0,4.0,1,
194800,1856.5,54.1,76.3,29.4,907.0,3294.0,3.0,1,
194900,1853.3,34.8,69.2,29.5,969.0,3305.0,3.0,1,
195000,1859.6,13.4,68.8,29.9,885.0,3329.0,4.0,1,
195100,1863.5,10.2,68.8,30.2,885.0,3329.0,4.0,1,
195200,1861.0,9.0,68.8,35.4,885.0,3329.0,4.0,1,
195300,1861.4,8.8,68.8,43.1,885.0,3329.0,4.0,1,
195400,1861.4,9.5,68.8,56.4,885.0,3329.0,4.0,1,
195600,1861.6,8.7,68.8,81.7,885.0,3329.0,4.0,1,
195700,1862.0,10.2,68.8,101.8,885.0,3329.0,4.0,1,
195800,1861.4,8.6,68.8,124.9,885.0,3329.0,4.0,1,
195900,1861.5,9.0,68.8,111.5,885.0,3329.0,4.0,1,
196000,1861.7,56.4,68.8,101.7,1426.0,5495.0,3.0,1,
196100,1860.3,24.2,60.8,35.4,1392.0,4969.0,3.0,1,
196200,1867.0,66.9,55.7,29.6,1162.0,4460.0,3.0,1,
196300,1859.0,38.1,57.7,29.9,989.0,3555.0,3.0,1,
196400,1853.4,45.2,65.2,29.7,1034.0,3636.0,4.0,1,
196600,1864.0,15.5,56.2,28.3,844.0,2688.0,3.0,1,
196700,1863.1,9.2,56.4,29.9,844.0,2688.0,3.0,1,
196800,1862.0,7.9,56.3,36.7,844.0,2688.0,3.0,1,
196900,1862.0,9.4,56.3,39.8,844.0,2688.0,3.0,1,
197000,1861.8,9.0,56.3,44.7,844.0,2688.0,3.0,1,
197100,1861.9,9.0,56.3,75.5,844.0,2688.0,3.0,1,
197200,1862.0,9.7,56.3,101.9,844.0,2688.0,3.0,1,
197300,1861.9,8.5,56.3,112.1,844.0,2688.0,3.0,1,
197400,1861.8,9.2,56.3,117.3,844.0,2688.0,3.0,1,
197600,1861.7,13.2,56.3,101.1,1494.0,5663.0,4.0,1,
197700,1869.2,32.9,56.5,57.3,1294.0,4868.0,3.0,1,
197800,1849.1,22.0,59.1,41.2,1076.0,3793.0,3.0,1,
197900,1862.6,66.8,56.5,36.2,1169.0,4056.0,4.0,1,
198000,1868.2,120.4,61.9,30.2,986.0,3427.0,4.0,1,
198100,1866.7,44.6,57.2,28.8,1018.0,3618.0,3.0,1,
198200,1856.3,26.5,62.6,28.8,886.0,3300.0,4.0,1,
198300,1861.3,10.6,63.3,29.0,886.0,3300.0,4.0,1,
198400,1861.2,10.0,63.3,29.2,886.0,3300.0,4.0,1,
198600,1861.2,8.9,63.3,39.2,886.0,3300.0,4.0,1,
198700,1862.2,9.7,63.4,66.5,886.0,3300.0,4.0,1,
198800,1861.6,9.3,63.4,111.0,886.0,3300.0,4.0,1,
198900,1861.9,8.7,63.4,110.1,886.0,3300.0,4.0,1,
199000,1862.0,10.2,63.4,130.0,886.0,3300.0,4.0,1,
199100,1860.9,9.5,63.4,101.5,886.0,3300.0,4.0,1,
199200,1861.8,10.4,63.4,101.6,886.0,3300.0,4.0,1,
199300,1854.0,67.3,73.8,39.3,1419.0,5295.0,3.0,1,
199400,1863.8,31.6,69.8,35.4,1253.0,4324.0,3.0,1,
199600,1874.5,23.5,65.1,28.7,1172.0,3888.0,3.0,1,
199700,1845.9,35.4,57.5,28.8,1088.0,3847.0,4.0,1,
199800,1862.2,81.1,47.7,47.8,1048.0,3842.0,3.0,1,
199900,1864.2,15.3,51.8,56.1,1048.0,3842.0,3.0,1,
200000,1861.0,9.9,51.8,29.8,1048.0,3842.0,3.0,1,
200100,1861.4,9.5,51.8,30.0,1048.0,3842.0,3.0,1,
200200,1861.4,9.6,51.8,35.2,1048.0,3842.0,3.0,1,
200300,1861.2,9.4,51.8,38.7,1048.0,3842.0,3.0,1,
200400,1861.2,9.0,51.8,108.3,1048.0,3842.0,3.0,1,
200600,1861.4,9.3,51.8,101.7,1048.0,3842.0,3.0,1,
200700,1861.3,9.4,51.8,102.0,1048.0,3842.0,3.0,1,
200800,1861.2,20.8,51.8,100.4,1048.0,3842.0,3.0,1,
200900,1859.8,23.2,53.3,86.7,1500.0,5807.0,4.0,1,
201000,1851.3,41.1,36.6,42.0,1435.0,5342.0,3.0,1,
201100,1875.7,24.6,45.7,39.0,1093.0,3500.0,4.0,1,
201200,1852.2,63.3,45.8,36.0,1008.0,3401.0,3.0,1,
201300,1863.3,40.0,55.3,29.9,947.0,3548.0,4.0,1,
201400,1856.6,33.4,57.3,29.7,986.0,3780.0,3.0,1,
201600,1861.8,13.5,52.0,28.7,986.0,3780.0,3.0,1,
201700,1860.7,9.8,52.4,35.5,986.0,3780.0,3.0,1,
201800,1860.7,9.6,52.4,52.0,986.0,3780.0,3.0,1,
201900,1860.9,9.6,52.4,70.6,986.0,3780.0,3.0,1,
202000,1861.5,9.8,52.4,73.2,986.0,3780.0,3.0,1,
202100,1860.9,9.1,52.4,90.4,986.0,3780.0,3.0,1,
202200,1860.9,9.2,52.4,99.6,986.0,3780.0,3.0,1,
202300,1861.5,9.4,52.4,100.3,986.0,3780.0,3.0,1,
202400,1861.2,8.8,52.4,100.3,986.0,3780.0,3.0,1,
202600,1873.5,47.6,53.5,40.6,1363.0,5106.0,3.0,1,
202700,1852.9,104.8,51.0,28.6,1257.0,4138.0,4.0,1,
202800,1865.3,25.2,58.8,29.0,1135.0,3929.0,3.0,1,
202900,1853.4,81.9,51.6,35.0,1037.0,3715.0,3.0,1,
203000,1852.3,48.9,56.7,34.7,1076.0,3799.0,3.0,1,
203100,1887.5,17.9,57.5,30.0,842.0,3469.0,3.0,1,
203200,1851.6,10.7,57.5,29.5,842.0,3469.0,3.0,1,
203300,1861.2,9.8,57.2,29.9,842.0,3469.0,3.0,1,
203400,1861.1,9.9,57.2,37.4,842.0,3469.0,3.0,1,
203600,1860.8,10.0,57.2,69.0,842.0,3469.0,3.0,1,
203700,1860.7,9.5,57.2,158.0,842.0,3469.0,3.0,1,
203800,1861.8,10.1,57.2,163.7,842.0,3469.0,3.0,1,
203900,1860.9,10.5,57.2,116.0,842.0,3469.0,3.0,1,
204000,1861.5,9.7,57.2,125.2,842.0,3469.0,3.0,1,
204100,1861.3,17.1,57.2,123.7,1456.0,5561.0,4.0,1,
204200,1859.8,35.3,59.6,57.6,1384.0,5364.0,4.0,1,
204300,1862.2,45.2,54.4,28.6,1268.0,4215.0,3.0,1,
204400,1855.7,53.7,55.1,27.4,1177.0,3873.0,4.0,1,
204600,1876.7,40.4,59.4,35.5,1128.0,4149.0,3.0,1,
204700,1847.6,25.3,57.9,28.4,1115.0,4154.0,4.0,1,
204800,1864.7,13.4,58.0,27.6,1115.0,4154.0,4.0,1,
204900,1860.4,15.7,58.1,28.9,1115.0,4154.0,4.0,1,
205000,1861.3,9.7,58.3,35.0,1115.0,4154.0,4.0,1,
205100,1860.4,10.0,58.3,53.1,1115.0,4154.0,4.0,1,
205200,1861.5,9.5,58.3,70.2,1115.0,4154.0,4.0,1,
205300,1861.8,10.0,58.3,72.4,1115.0,4154.0,4.0,1,
205400,1860.9,10.7,58.3,90.3,1115.0,4154.0,4.0,1,
205600,1861.3,10.0,58.3,101.6,1115.0,4154.0,4.0,1,
205700,1861.3,13.7,58.3,101.1,1501.0,5816.0,4.0,1,
205800,1854.6,72.2,58.3,112.6,1547.0,6088.0,3.0,1,
205900,1865.6,136.9,58.6,68.5,1306.0,4189.0,4.0,1,
206000,1870.1,31.4,61.5,39.9,1288.0,4199.0,4.0,1,
206100,1861.2,24.9,60.7,36.2,1116.0,3869.0,3.0,1,
206200,1848.7,75.5,61.9,34.7,949.0,3330.0,3.0,1,
206300,1861.2,91.1,63.0,34.5,977.0,3828.0,3.0,1,
206400,1865.7,14.3,70.2,28.7,977.0,3828.0,3.0,1,
206600,1861.8,9.1,69.9,29.1,977.0,3828.0,3.0,1,
206700,1861.3,8.7,69.9,34.5,977.0,3828.0,3.0,1,
206800,1861.8,8.6,69.9,40.0,977.0,3828.0,3.0,1,
206900,1861.4,9.4,69.9,89.7,977.0,3828.0,3.0,1,
207000,1861.5,8.7,69.9,100.3,977.0,3828.0,3.0,1,
207100,1862.0,8.4,69.8,103.5,977.0,3828.0,3.0,1,
207200,1861.4,9.2,69.8,116.7,977.0,3828.0,3.0,1,
207300,1861.3,31.3,69.8,101.8,977.0,3828.0,3.0,1,
207400,1859.8,132.1,70.5,67.1,1584.0,6104.0,4.0,1,
207600,1838.1,37.2,65.2,29.8,1240.0,3964.0,4.0,1,
207700,1859.4,128.8,64.4,28.9,1144.0,3900.0,3.0,1,
207800,1861.3,94.2,78.2,28.8,1066.0,3947.0,4.0,1,
207900,1864.3,37.9,73.0,29.4,1070.0,3786.0,3.0,1,
208000,1853.8,10.6,65.9,29.4,926.0,3738.0,4.0,1,
208100,1861.7,11.5,65.9,28.8,926.0,3738.0,4.0,1,
208200,1861.3,8.9,65.9,34.6,926.0,3738.0,4.0,1,
208300,1861.3,7.1,65.9,37.3,926.0,3738.0,4.0,1,
208400,1861.2,8.2,65.9,65.6,926.0,3738.0,4.0,1,
208600,1862.2,8.7,65.9,100.1,926.0,3738.0,4.0,1,
208700,1861.0,9.7,65.9,101.8,926.0,3738.0,4.0,1,
208800,1860.3,9.7,66.0,116.7,926.0,3738.0,4.0,1,
208900,1859.7,14.2,66.0,108.7,926.0,3738.0,4.0,1,
209000,1887.5,35.3,65.6,99.2,1395.0,5847.0,3.0,1,
209100,1827.4,58.2,59.1,70.0,1391.0,5074.0,3.0,1,
209200,1864.6,83.6,65.9,39.2,1276.0,3903.0,3.0,1,
209300,1865.3,130.7,72.0,29.9,1066.0,3913.0,3.0,1,
209400,1850.9,37.7,73.6,29.7,1055.0,3920.0,4.0,1,
209600,1850.6,23.4,65.8,36.2,991.0,3794.0,3.0,1,
209700,1860.8,9.0,66.0,38.4,991.0,3794.0,3.0,1,
209800,1861.0,9.0,66.0,39.3,991.0,3794.0,3.0,1,
209900,1861.3,9.9,66.0,39.8,991.0,3794.0,3.0,1,
210000,1861.2,8.8,66.0,53.2,991.0,3794.0,3.0,1,
210100,1861.3,8.5,66.0,53.9,991.0,3794.0,3.0,1,
210200,1860.9,9.8,66.0,99.1,991.0,3794.0,3.0,1,
210300,1860.9,9.1,66.0,100.1,991.0,3794.0,3.0,1,
210400,1861.5,9.0,66.0,83.7,991.0,3794.0,3.0,1,
210600,1861.1,17.1,65.9,99.0,1501.0,5489.0,4.0,1,
210700,1863.9,67.4,76.0,45.1,1350.0,5233.0,4.0,1,
210800,1859.3,38.2,75.5,30.0,1385.0,4660.0,3.0,1,
210900,1848.5,31.0,69.6,27.3,1243.0,3949.0,4.0,1,
211000,1882.4,35.0,60.6,25.7,975.0,3622.0,4.0,1,
211100,1851.5,39.2,66.8,34.9,1138.0,4195.0,3.0,1,
211200,1858.0,27.0,75.3,34.7,1140.0,4243.0,4.0,1,
211300,1866.2,11.5,75.1,28.8,1140.0,4243.0,4.0,1,
211400,1859.7,10.3,75.2,29.5,1140.0,4243.0,4.0,1,
211600,1861.4,8.9,75.1,38.7,1140.0,4243.0,4.0,1,
211700,1861.2,9.9,75.2,65.5,1140.0,4243.0,4.0,1,
211800,1861.2,9.4,75.2,99.2,1140.0,4243.0,4.0,1,
211900,1861.4,8.8,75.1,100.2,1140.0,4243.0,4.0,1,
212000,1860.7,9.7,75.2,105.9,1140.0,4243.0,4.0,1,
212100,1861.2,9.4,75.2,108.7,1140.0,4243.0,4.0,1,
212200,1861.3,66.1,75.2,101.3,1432.0,5509.0,4.0,1,
212300,1856.0,40.7,85.1,36.1,1478.0,5580.0,3.0,1,
212400,1860.8,156.4,73.6,34.4,1367.0,4557.0,3.0,1,
212600,1856.9,29.2,82.6,30.2,1145.0,4003.0,3.0,1,
212700,1851.5,53.7,91.9,34.5,1061.0,3880.0,3.0,1,
212800,1862.8,31.1,83.2,29.8,1138.0,3874.0,4.0,1,
212900,1867.5,10.5,75.6,29.2,1138.0,3874.0,4.0,1,
213000,1859.4,8.7,75.6,28.9,1138.0,3874.0,4.0,1,
213100,1861.2,8.7,75.5,29.6,1138.0,3874.0,4.0,1,
213200,1861.0,9.5,75.5,36.9,1138.0,3874.0,4.0,1,
213300,1861.4,8.8,75.5,56.4,1138.0,3874.0,4.0,1,
213400,1861.5,8.2,75.5,131.9,1138.0,3874.0,4.0,1,
213600,1860.8,8.5,75.5,129.9,1138.0,3874.0,4.0,1,
213700,1861.1,8.6,75.5,130.0,1138.0,3874.0,4.0,1,
213800,1860.9,18.6,75.5,112.0,1138.0,3874.0,4.0,1,
213900,1868.2,16.5,71.3,132.4,1491.0,5690.0,4.0,1,
214000,1851.3,31.1,65.1,74.1,1357.0,5077.0,3.0,1,
214100,1853.8,35.1,64.1,38.5,1396.0,4931.0,3.0,1,
214200,1854.3,61.2,60.7,29.9,1134.0,3652.0,4.0,1,
214300,1869.8,208.3,61.9,29.9,1227.0,3955.0,3.0,1,
214400,1868.8,43.6,74.0,28.3,1028.0,3957.0,3.0,1,
214600,1861.1,8.5,76.6,26.4,1028.0,3957.0,3.0,1,
214700,1861.2,9.5,76.6,28.8,1028.0,3957.0,3.0,1,
214800,1860.9,8.6,76.6,35.4,1028.0,3957.0,3.0,1,
214900,1861.5,8.0,76.6,53.8,1028.0,3957.0,3.0,1,
215000,1861.7,9.4,76.6,99.7,1028.0,3957.0,3.0,1,
215100,1861.6,8.8,76.6,130.4,1028.0,3957.0,3.0,1,
215200,1862.1,8.5,76.6,124.6,1028.0,3957.0,3.0,1,
215300,1861.6,9.3,76.6,111.3,1028.0,3957.0,3.0,1,
215400,1861.1,8.7,76.6,132.9,1028.0,3957.0,3.0,1,
215600,1845.5,55.5,84.4,28.9,1158.0,4462.0,4.0,1,
215700,1865.5,78.5,90.7,28.3,1166.0,3976.0,3.0,1,
215800,1867.1,161.5,87.5,28.8,1150.0,4259.0,4.0,1,
215900,1869.4,62.9,99.8,29.1,1107.0,4062.0,4.0,1,
216000,1848.2,30.0,89.4,26.4,1060.0,3618.0,3.0,1,
216100,1857.9,14.8,84.9,25.5,1106.0,3730.0,3.0,1,
216200,1863.7,9.6,84.9,29.6,1106.0,3730.0,3.0,1,
216300,1861.2,8.7,84.9,40.3,1106.0,3730.0,3.0,1,
216400,1861.7,8.6,84.9,65.6,1106.0,3730.0,3.0,1,
216600,1861.6,8.8,84.9,114.6,1106.0,3730.0,3.0,1,
216700,1861.2,8.6,84.9,130.0,1106.0,3730.0,3.0,1,
216800,1860.8,8.5,84.9,135.7,1106.0,3730.0,3.0,1,
216900,1861.4,9.0,84.9,133.5,1106.0,3730.0,3.0,1,
217000,1861.3,8.1,84.9,102.1,1106.0,3730.0,3.0,1,
217100,1861.2,22.1,84.9,102.8,1428.0,5611.0,4.0,1,
217200,1867.0,49.2,76.8,103.8,1285.0,4914.0,4.0,1,
217300,1855.6,17.1,69.1,86.7,1130.0,3902.0,3.0,1,
217400,1870.7,111.9,62.5,44.4,1138.0,3831.0,4.0,1,
217600,1861.4,25.8,35.0,28.2,949.0,3544.0,4.0,1,
217700,1854.7,17.7,35.0,29.6,972.0,3426.0,4.0,1,
217800,1871.2,9.3,35.5,34.7,972.0,3426.0,4.0,1,
217900,1860.9,8.4,35.4,37.3,972.0,3426.0,4.0,1,
218000,1861.2,9.2,35.5,30.3,972.0,3426.0,4.0,1,
218100,1861.1,8.6,35.5,35.2,972.0,3426.0,4.0,1,
218200,1861.4,7.9,35.5,65.6,972.0,3426.0,4.0,1,
218300,1860.6,8.9,35.5,100.5,972.0,3426.0,4.0,1,
218400,1861.4,8.5,35.5,104.0,972.0,3426.0,4.0,1,
218600,1860.8,9.8,35.5,132.9,972.0,3426.0,4.0,1,
218700,1860.4,9.4,35.5,133.5,1389.0,5350.0,4.0,1,
218800,1849.3,100.7,38.3,101.7,1517.0,5679.0,3.0,1,
218900,1874.1,31.0,64.1,34.3,1283.0,4521.0,3.0,1,
219000,1856.6,19.0,63.9,29.7,1169.0,3816.0,3.0,1,
219100,1858.7,41.2,57.9,29.5,1056.0,3939.0,3.0,1,
219200,1853.3,58.4,59.7,29.7,954.0,3536.0,4.0,1,
219300,1856.8,32.6,68.9,30.1,953.0,4076.0,3.0,1,
219400,1871.8,13.9,69.3,29.5,953.0,4076.0,3.0,1,
219600,1861.7,9.4,69.4,36.6,953.0,4076.0,3.0,1,
219700,1860.0,7.6,69.4,57.4,953.0,4076.0,3.0,1,
219800,1860.4,9.8,69.5,66.9,953.0,4076.0,3.0,1,
219900,1861.7,9.1,69.5,68.7,953.0,4076.0,3.0,1,
220000,1860.8,8.7,69.5,78.2,953.0,4076.0,3.0,1,
220100,1861.0,8.6,69.5,80.1,953.0,4076.0,3.0,1,
220200,1861.5,9.1,69.5,93.8,953.0,4076.0,3.0,1,
220300,1861.7,155.6,69.4,123.7,953.0,4076.0,3.0,1,
220400,1865.1,116.4,78.6,36.5,1519.0,5795.0,4.0,1,
220600,1854.2,47.7,70.5,30.0,1141.0,3728.0,3.0,1,
220700,1863.5,188.7,70.9,29.6,1143.0,3981.0,3.0,1,
220800,1859.7,61.8,92.7,28.8,958.0,3854.0,4.0,1,
220900,1873.4,60.4,86.5,26.3,970.0,3758.0,3.0,1,
221000,1845.3,15.5,87.2,27.6,689.0,3206.0,3.0,1,
221100,1861.5,10.1,87.1,28.0,689.0,3206.0,3.0,1,
221200,1861.7,8.3,87.1,37.9,689.0,3206.0,3.0,1,
221300,1861.1,8.7,87.1,41.8,689.0,3206.0,3.0,1,
221400,1860.5,9.0,87.1,48.8,689.0,3206.0,3.0,1,
221600,1860.8,9.2,87.1,101.3,689.0,3206.0,3.0,1,
221700,1860.8,9.1,87.1,100.4,689.0,3206.0,3.0,1,
221800,1861.1,8.3,87.1,99.4,689.0,3206.0,3.0,1,
221900,1861.0,8.6,87.1,100.2,689.0,3206.0,3.0,1,
222000,1867.6,36.4,85.9,37.4,1084.0,3852.0,3.0,1,
222100,1856.0,37.8,81.9,30.0,1033.0,3290.0,4.0,1,
222200,1864.3,9.2,87.1,30.0,1178.0,3971.0,4.0,1,
222300,1867.3,42.5,82.1,30.2,1136.0,4022.0,3.0,1,
222400,1852.8,37.9,57.4,34.3,1143.0,4016.0,4.0,1,
222600,1861.7,16.7,63.3,35.2,1025.0,4087.0,3.0,1,
222700,1864.7,10.3,62.9,29.4,1025.0,4087.0,3.0,1,
222800,1859.6,9.0,62.9,27.7,1025.0,4087.0,3.0,1,
222900,1861.4,9.2,62.9,27.9,1025.0,4087.0,3.0,1,
223000,1861.2,8.0,62.9,30.3,1025.0,4087.0,3.0,1,
223100,1860.9,8.6,62.9,84.4,1025.0,4087.0,3.0,1,
223200,1860.8,9.0,62.9,99.6,1025.0,4087.0,3.0,1,
223300,1860.8,8.0,62.9,100.3,1025.0,4087.0,3.0,1,
223400,1860.4,8.8,62.9,100.3,1025.0,4087.0,3.0,1,
223600,1860.9,30.6,62.9,122.8,1584.0,5982.0,3.0,1,
223700,1862.3,90.2,52.2,76.8,1393.0,4869.0,4.0,1,
223800,1868.4,40.4,48.7,67.0,1217.0,3722.0,3.0,1,
223900,1842.1,130.9,50.2,35.8,921.0,3200.0,4.0,1,
224000,1860.9,25.7,60.9,29.0,793.0,3229.0,3.0,1,
224100,1866.4,92.6,60.3,29.5,643.0,2766.0,3.0,1,
224200,1862.4,21.0,62.4,30.2,616.0,2815.0,4.0,1,
224300,1860.0,7.4,62.1,34.2,616.0,2815.0,4.0,1,
224400,1862.3,8.8,62.3,29.4,616.0,2815.0,4.0,1,
224600,1861.1,6.5,62.2,41.7,616.0,2815.0,4.0,1,
224700,1861.9,6.8,62.2,67.1,616.0,2815.0,4.0,1,
224800,1862.2,6.2,62.2,69.9,616.0,2815.0,4.0,1,
224900,1861.5,6.8,62.1,98.7,616.0,2815.0,4.0,1,
225000,1861.8,6.2,62.1,100.3,616.0,2815.0,4.0,1,
225100,1861.9,6.1,62.1,100.4,616.0,2815.0,4.0,1,
225200,1861.5,10.4,62.1,100.0,1176.0,4530.0,3.0,1,
225300,1870.5,34.0,64.6,54.2,1365.0,4979.0,4.0,1,
225400,1842.0,18.8,63.9,35.7,1212.0,3905.0,4.0,1,
225600,1861.1,39.2,54.6,34.6,663.0,2695.0,3.0,1,
225700,1845.2,26.3,65.8,34.3,655.0,2878.0,4.0,1,
225800,1875.8,53.3,61.7,29.4,570.0,2532.0,3.0,1,
225900,1855.0,12.0,64.0,30.0,570.0,2532.0,3.0,1,
226000,1861.2,13.6,64.0,34.3,570.0,2532.0,3.0,1,
226100,1861.8,11.2,63.9,30.0,570.0,2532.0,3.0,1,
226200,1861.1,9.1,63.9,34.8,570.0,2532.0,3.0,1,
226300,1861.4,8.1,64.0,55.9,570.0,2532.0,3.0,1,
226400,1860.8,8.4,64.0,70.6,570.0,2532.0,3.0,1,
226600,1862.1,8.7,64.0,93.3,570.0,2532.0,3.0,1,
226700,1861.5,8.6,64.1,100.1,570.0,2532.0,3.0,1,
226800,1861.4,15.7,64.1,101.7,570.0,2532.0,3.0,1,
226900,1856.6,108.1,64.1,116.2,1444.0,5819.0,4.0,1,
227000,1864.4,35.0,66.5,37.4,1176.0,4210.0,3.0,1,
227100,1853.2,49.0,67.7,28.9,1318.0,4076.0,3.0,1,
227200,1851.3,30.5,65.7,28.6,1110.0,3973.0,3.0,1,
227300,1883.0,124.9,55.1,29.2,1141.0,4123.0,3.0,1,
227400,1853.2,25.8,61.6,34.3,1195.0,4132.0,3.0,1,
227600,1860.4,9.6,54.8,30.0,1195.0,4132.0,3.0,1,
227700,1862.4,9.4,54.7,29.6,1195.0,4132.0,3.0,1,
227800,1862.0,8.9,54.6,36.2,1195.0,4132.0,3.0,1,
227900,1861.6,9.1,54.6,82.8,1195.0,4132.0,3.0,1,
228000,1861.8,9.1,54.6,101.5,1195.0,4132.0,3.0,1,
228100,1861.5,9.0,54.6,99.4,1195.0,4132.0,3.0,1,
228200,1861.2,9.1,54.6,87.8,1195.0,4132.0,3.0,1,
228300,1861.4,9.8,54.6,100.5,1195.0,4132.0,3.0,1,
228400,1861.1,9.3,54.6,100.9,1195.0,4132.0,3.0,1,
228600,1857.6,87.1,46.6,29.0,1255.0,4241.0,4.0,1,
228700,1860.7,23.3,52.0,29.0,998.0,3230.0,4.0,1,
228800,1871.5,24.6,48.1,30.3,979.0,3420.0,3.0,1,
228900,1846.5,35.8,53.5,36.0,946.0,3598.0,3.0,1,
229000,1859.7,95.6,43.1,36.8,997.0,3635.0,4.0,1,
229100,1863.2,23.2,60.9,28.9,1011.0,3713.0,3.0,1,
229200,1862.9,10.4,61.0,26.3,1011.0,3713.0,3.0,1,
229300,1861.2,9.2,61.0,27.1,1011.0,3713.0,3.0,1,
229400,1861.1,8.6,61.0,27.6,1011.0,3713.0,3.0,1,
229600,1861.2,9.0,61.0,84.6,1011.0,3713.0,3.0,1,
229700,1860.8,8.7,61.0,98.9,1011.0,3713.0,3.0,1,
229800,1861.0,8.8,61.0,99.5,1011.0,3713.0,3.0,1,
229900,1861.1,9.4,61.0,100.1,1011.0,3713.0,3.0,1,
230000,1861.2,8.6,61.0,113.4,1011.0,3713.0,3.0,1,
230100,1861.0,56.0,60.8,134.8,1398.0,5667.0,3.0,1,
230200,1877.5,30.9,63.2,35.7,1286.0,5114.0,3.0,1,
230300,1849.5,18.5,59.0,34.4,1357.0,4192.0,4.0,1,
230400,1853.4,46.5,57.8,30.0,1134.0,4109.0,4.0,1,
230600,1864.7,35.1,60.4,29.3,1093.0,4380.0,3.0,1,
230700,1863.2,34.6,53.0,26.2,889.0,3382.0,3.0,1,
230800,1857.8,10.9,57.0,27.0,889.0,3382.0,3.0,1,
230900,1861.4,8.6,57.0,28.7,889.0,3382.0,3.0,1,
231000,1861.6,9.3,57.0,29.2,889.0,3382.0,3.0,1,
231100,1861.3,9.5,57.0,29.7,889.0,3382.0,3.0,1,
231200,1861.8,8.5,57.0,39.6,889.0,3382.0,3.0,1,
231300,1861.5,8.7,56.9,110.2,889.0,3382.0,3.0,1,
231400,1861.7,9.1,56.9,109.7,889.0,3382.0,3.0,1,
231600,1861.8,8.9,56.9,112.8,889.0,3382.0,3.0,1,
231700,1861.9,52.7,56.9,132.3,1397.0,5554.0,3.0,1,
231800,1855.6,160.1,58.7,34.4,1521.0,6113.0,3.0,1,
231900,1857.4,37.9,71.8,29.3,1401.0,4473.0,3.0,1,
232000,1866.9,26.6,72.0,29.6,1192.0,4149.0,3.0,1,
232100,1860.7,50.8,70.2,36.2,1128.0,3917.0,3.0,1,
232200,1865.5,75.3,66.8,37.1,1069.0,3814.0,3.0,1,
232300,1855.8,20.9,72.4,28.1,1009.0,4132.0,4.0,1,
232400,1855.8,9.4,64.7,29.2,1009.0,4132.0,4.0,1,
232600,1862.0,9.4,64.6,34.7,1009.0,4132.0,4.0,1,
232700,1861.0,8.6,64.6,42.7,1009.0,4132.0,4.0,1,
232800,1861.8,8.7,64.6,78.2,1009.0,4132.0,4.0,1,
232900,1861.8,9.2,64.6,100.1,1009.0,4132.0,4.0,1,
233000,1861.0,8.4,64.7,99.9,1009.0,4132.0,4.0,1,
233100,1861.5,8.8,64.7,100.3,1009.0,4132.0,4.0,1,
233200,1861.8,9.0,64.7,100.4,1009.0,4132.0,4.0,1,
233300,1861.6,99.7,64.7,112.8,1009.0,4132.0,4.0,1,
233400,1863.9,34.0,66.1,37.3,1402.0,5551.0,4.0,1,
233600,1848.3,63.1,52.4,35.0,1153.0,3769.0,4.0,1,
233700,1879.0,90.5,55.2,34.6,811.0,3002.0,3.0,1,
233800,1855.6,46.5,67.1,29.6,864.0,3219.0,3.0,1,
233900,1853.4,24.8,60.8,29.4,772.0,2949.0,3.0,1,
234000,1868.3,10.9,60.9,29.7,772.0,2949.0,3.0,1,
234100,1860.4,9.7,61.1,30.0,772.0,2949.0,3.0,1,
234200,1861.2,7.4,61.1,35.0,772.0,2949.0,3.0,1,
234300,1862.6,6.9,61.1,44.3,772.0,2949.0,3.0,1,
234400,1862.4,6.4,61.0,56.4,772.0,2949.0,3.0,1,
234600,1861.9,2.8,61.0,77.4,772.0,2949.0,3.0,1,
234700,1861.8,3.5,60.9,79.7,772.0,2949.0,3.0,1,
234800,1861.7,3.3,60.9,98.7,772.0,2949.0,3.0,1,
234900,1862.2,3.1,60.8,100.0,772.0,2949.0,3.0,1,
235000,1861.9,18.8,52.5,99.9,1206.0,4486.0,4.0,1,
235100,1850.1,19.2,52.9,73.3,1095.0,3409.0,3.0,1,
235200,1882.2,23.8,52.7,40.5,891.0,3000.0,3.0,1,
235300,1854.7,37.9,48.7,37.9,757.0,2802.0,3.0,1,
235400,1853.3,41.6,47.4,35.8,641.0,2595.0,4.0,1,
235600,1867.1,10.9,48.9,30.1,730.0,2653.0,4.0,1,
235700,1861.4,5.3,48.8,34.9,730.0,2653.0,4.0,1,
235800,1862.7,2.8,48.5,34.9,730.0,2653.0,4.0,1,
235900,1862.6,2.8,48.5,29.8,730.0,2653.0,4.0,1,
236000,1861.7,3.3,48.5,36.9,730.0,2653.0,4.0,1,
236100,1862.5,2.5,48.4,73.0,730.0,2653.0,4.0,1,
236200,1861.5,2.6,48.4,72.8,730.0,2653.0,4.0,1,
236300,1861.4,2.8,48.4,99.3,730.0,2653.0,4.0,1,
236400,1861.5,3.0,48.4,100.2,730.0,2653.0,4.0,1,
236600,1856.7,86.2,48.4,100.2,1249.0,4984.0,4.0,1,
236700,1877.8,20.2,51.5,66.7,1220.0,4524.0,3.0,1,
236800,1841.4,43.5,55.9,30.2,1132.0,3543.0,3.0,1,
236900,1865.7,68.5,56.5,29.6,1014.0,3161.0,4.0,1,
237000,1862.4,42.5,61.6,29.6,828.0,3206.0,3.0,1,
237100,1864.7,34.5,54.9,29.9,953.0,3423.0,3.0,1,
237200,1861.8,27.5,51.6,34.2,779.0,3064.0,3.0,1,
237300,1854.3,7.5,54.6,35.3,779.0,3064.0,3.0,1,
237400,1861.9,5.4,54.6,34.3,779.0,3064.0,3.0,1,
237600,1860.7,4.1,54.6,34.8,779.0,3064.0,3.0,1,
237700,1861.2,5.3,54.6,52.8,779.0,3064.0,3.0,1,
237800,1861.1,4.0,54.6,70.7,779.0,3064.0,3.0,1,
237900,1861.1,3.8,54.6,93.2,779.0,3064.0,3.0,1,
238000,1861.1,4.6,54.7,98.9,779.0,3064.0,3.0,1,
238100,1861.5,3.8,54.7,99.4,779.0,3064.0,3.0,1,
238200,1861.3,15.4,54.7,99.3,1387.0,5070.0,4.0,1,
238300,1854.4,43.7,51.0,99.5,1228.0,4263.0,4.0,1,
238400,1866.6,21.6,57.4,36.0,1268.0,3932.0,4.0,1,
238600,1860.0,19.8,49.2,29.8,763.0,2958.0,4.0,1,
238700,1865.3,65.3,43.3,37.9,631.0,2559.0,3.0,1,
238800,1860.4,23.4,58.7,56.8,641.0,2676.0,3.0,1,
238900,1856.5,6.6,51.6,28.1,641.0,2676.0,3.0,1,
239000,1863.0,7.8,51.7,27.5,641.0,2676.0,3.0,1,
239100,1860.1,3.0,51.8,28.3,641.0,2676.0,3.0,1,
239200,1861.7,3.0,51.8,39.3,641.0,2676.0,3.0,1,
239300,1862.1,2.0,51.8,57.1,641.0,2676.0,3.0,1,
239400,1861.5,2.7,51.8,67.3,641.0,2676.0,3.0,1,
239600,1861.3,2.1,51.8,100.0,641.0,2676.0,3.0,1,
239700,1861.4,2.5,51.7,100.0,641.0,2676.0,3.0,1,
239800,1862.2,65.3,51.7,99.6,1045.0,3812.0,3.0,1,
239900,1868.5,24.2,57.0,34.8,1155.0,4363.0,4.0,1,
240000,1857.5,17.3,51.7,28.3,1030.0,3079.0,4.0,1,
240100,1865.5,52.4,51.4,27.9,1135.0,3602.0,3.0,1,
240200,1858.0,26.0,55.6,27.9,704.0,2688.0,3.0,1,
240300,1861.8,53.5,55.8,35.8,528.0,2332.0,3.0,1,
240400,1850.9,21.0,46.1,35.3,633.0,3102.0,4.0,1,
240600,1862.8,11.0,43.2,30.1,633.0,3102.0,4.0,1,
240700,1862.1,5.6,43.2,37.5,633.0,3102.0,4.0,1,
240800,1860.9,3.1,43.2,81.0,633.0,3102.0,4.0,1,
240900,1862.2,2.0,43.2,67.9,633.0,3102.0,4.0,1,
241000,1861.7,2.2,43.2,56.3,633.0,3102.0,4.0,1,
241100,1861.4,2.2,43.2,74.2,633.0,3102.0,4.0,1,
241200,1862.1,2.2,43.2,98.7,633.0,3102.0,4.0,1,
241300,1861.7,4.2,43.2,100.0,633.0,3102.0,4.0,1,
241400,1861.5,4.5,43.2,100.3,633.0,3102.0,4.0,1,
241600,1883.6,104.7,49.7,40.7,1203.0,4865.0,4.0,1,
241700,1851.0,37.0,55.6,29.6,1398.0,4960.0,3.0,1,
241800,1852.0,56.7,50.6,29.3,1221.0,4027.0,3.0,1,
241900,1860.3,91.4,52.8,29.4,1144.0,3903.0,3.0,1,
242000,1849.9,64.9,60.9,29.7,1016.0,3791.0,4.0,1,
242100,1870.3,11.0,62.3,29.6,1092.0,3868.0,3.0,1,
242200,1861.4,6.4,62.1,34.3,1092.0,3868.0,3.0,1,
242300,1861.8,5.3,61.9,35.6,1092.0,3868.0,3.0,1,
242400,1861.5,5.1,61.8,37.5,1092.0,3868.0,3.0,1,
242600,1861.0,4.8,61.9,99.6,1092.0,3868.0,3.0,1,
242700,1860.7,7.3,61.9,101.2,1092.0,3868.0,3.0,1,
242800,1861.3,8.2,61.9,102.5,1092.0,3868.0,3.0,1,
242900,1861.4,7.4,62.0,99.1,1092.0,3868.0,3.0,1,
243000,1861.4,7.7,62.0,99.2,1092.0,3868.0,3.0,1,
243100,1877.3,17.6,62.0,108.9,1358.0,5808.0,3.0,1,
243200,1838.2,27.6,52.5,90.2,1303.0,4879.0,4.0,1,
243300,1865.0,25.2,46.3,72.7,1337.0,4621.0,4.0,1,
243400,1865.4,65.3,46.2,66.4,1122.0,3968.0,4.0,1,
243600,1873.4,26.9,30.3,29.9,1141.0,4078.0,4.0,1,
243700,1850.8,12.9,27.4,29.9,1016.0,3984.0,4.0,1,
243800,1860.7,7.8,27.5,34.5,1016.0,3984.0,4.0,1,
243900,1861.5,8.1,27.5,38.1,1016.0,3984.0,4.0,1,
244000,1861.0,9.0,27.6,36.0,1016.0,3984.0,4.0,1,
244100,1861.0,7.9,27.7,40.7,1016.0,3984.0,4.0,1,
244200,1861.2,8.3,27.7,99.6,1016.0,3984.0,4.0,1,
244300,1861.3,9.1,27.8,102.3,1016.0,3984.0,4.0,1,
244400,1861.3,8.5,27.8,100.4,1016.0,3984.0,4.0,1,
244600,1861.2,9.5,27.8,101.3,1016.0,3984.0,4.0,1,
244700,1860.3,27.9,27.9,101.0,1404.0,5629.0,4.0,1,
244800,1860.4,19.7,30.2,37.6,1333.0,5255.0,4.0,1,
244900,1865.4,32.7,28.0,34.7,1297.0,4771.0,3.0,1,
245000,1862.9,73.7,28.9,34.8,1192.0,3767.0,3.0,1,
245100,1855.9,32.6,44.6,29.8,840.0,3161.0,3.0,1,
245200,1862.8,103.9,44.0,29.5,781.0,3042.0,3.0,1,
245300,1856.8,44.4,60.2,29.5,776.0,2999.0,3.0,1,
245400,1860.6,11.4,62.0,34.4,776.0,2999.0,3.0,1,
245600,1862.1,8.3,62.0,29.9,776.0,2999.0,3.0,1,
245700,1862.1,8.1,62.0,35.2,776.0,2999.0,3.0,1,
245800,1862.3,8.8,62.0,66.9,776.0,2999.0,3.0,1,
245900,1861.3,8.2,62.0,92.4,776.0,2999.0,3.0,1,
246000,1861.9,7.8,62.0,81.8,776.0,2999.0,3.0,1,
246100,1861.8,8.4,62.0,79.1,776.0,2999.0,3.0,1,
246200,1861.2,8.6,62.0,98.9,776.0,2999.0,3.0,1,
246300,1861.3,85.1,62.0,100.3,1016.0,3729.0,4.0,1,
246400,1858.2,54.1,72.9,35.4,1423.0,5823.0,3.0,1,
246600,1854.1,118.3,74.0,28.3,1029.0,3644.0,4.0,1,
246700,1862.4,43.7,72.2,28.0,1031.0,3539.0,3.0,1,
246800,1851.8,76.0,73.6,28.9,837.0,3363.0,3.0,1,
246900,1864.5,44.3,71.3,29.0,708.0,3091.0,3.0,1,
247000,1861.6,11.3,66.1,29.3,708.0,3091.0,3.0,1,
247100,1858.9,10.2,66.1,34.7,708.0,3091.0,3.0,1,
247200,1862.1,9.0,66.2,35.4,708.0,3091.0,3.0,1,
247300,1860.8,9.3,66.2,39.8,708.0,3091.0,3.0,1,
247400,1860.5,9.0,66.2,67.0,708.0,3091.0,3.0,1,
247600,1861.3,9.3,66.2,90.2,708.0,3091.0,3.0,1,
247700,1860.4,9.7,66.2,115.1,708.0,3091.0,3.0,1,
247800,1860.5,8.7,66.2,101.7,708.0,3091.0,3.0,1,
247900,1860.9,73.9,66.2,94.6,708.0,3091.0,3.0,1,
248000,1873.5,20.3,62.2,40.6,1440.0,5823.0,4.0,1,
248100,1845.6,12.9,54.5,34.7,1195.0,4652.0,3.0,1,
248200,1855.6,28.1,54.1,34.3,1254.0,4074.0,3.0,1,
248300,1859.6,81.5,41.9,34.6,1147.0,4089.0,4.0,1,
248400,1856.5,164.5,54.1,35.1,1096.0,3913.0,4.0,1,
248600,1843.9,12.7,59.2,28.4,1080.0,4062.0,4.0,1,
248700,1859.9,8.7,59.3,29.3,1080.0,4062.0,4.0,1,
248800,1862.1,9.5,59.2,30.1,1080.0,4062.0,4.0,1,
248900,1860.8,9.4,59.2,35.8,1080.0,4062.0,4.0,1,
249000,1860.8,9.4,59.2,48.8,1080.0,4062.0,4.0,1,
249100,1861.1,9.3,59.2,90.4,1080.0,4062.0,4.0,1,
249200,1861.1,9.3,59.3,100.3,1080.0,4062.0,4.0,1,
249300,1861.1,9.2,59.3,101.1,1080.0,4062.0,4.0,1,
249400,1861.5,9.1,59.2,114.1,1080.0,4062.0,4.0,1,
249600,1871.4,43.1,56.4,151.6,1370.0,5101.0,3.0,1,
249700,1847.3,31.6,60.4,37.3,1326.0,5179.0,4.0,1,
249800,1868.6,74.6,61.8,29.8,1285.0,4597.0,3.0,1,
249900,1852.2,44.8,67.5,29.5,1151.0,4102.0,3.0,1,
250000,1879.6,72.5,59.6,29.2,1165.0,4090.0,3.0,1,
250100,1845.2,34.7,56.8,29.2,1168.0,3921.0,3.0,1,
250200,1865.3,13.1,57.0,34.7,1145.0,4082.0,3.0,1,
250300,1863.2,9.5,57.0,38.4,1145.0,4082.0,3.0,1,
250400,1860.7,9.5,57.1,38.8,1145.0,4082.0,3.0,1,
250600,1860.7,9.7,57.1,45.6,1145.0,4082.0,3.0,1,
250700,1860.4,9.8,57.1,65.5,1145.0,4082.0,3.0,1,
250800,1860.9,9.4,57.1,91.1,1145.0,4082.0,3.0,1,
250900,1861.5,9.0,57.1,100.4,1145.0,4082.0,3.0,1,
251000,1861.5,9.7,57.1,101.0,1145.0,4082.0,3.0,1,
251100,1861.4,9.1,57.1,104.5,1145.0,4082.0,3.0,1,
251200,1861.5,44.9,57.1,101.5,1447.0,5786.0,3.0,1,
251300,1864.5,78.0,54.4,84.5,1234.0,4846.0,4.0,1,
251400,1855.0,23.6,57.5,43.2,1335.0,4961.0,3.0,1,
251600,1854.0,70.5,67.1,29.8,1171.0,4105.0,4.0,1,
251700,1859.4,54.7,58.3,27.6,1150.0,4260.0,4.0,1,
251800,1855.2,23.9,62.5,28.1,1242.0,4371.0,4.0,1,
251900,1870.9,10.8,62.5,29.1,1242.0,4371.0,4.0,1,
252000,1861.7,9.6,62.5,29.5,1242.0,4371.0,4.0,1,
252100,1861.7,8.7,62.5,28.1,1242.0,4371.0,4.0,1,
252200,1861.3,9.3,62.5,27.9,1242.0,4371.0,4.0,1,
252300,1861.0,9.5,62.5,85.3,1242.0,4371.0,4.0,1,
252400,1861.3,9.2,62.5,113.2,1242.0,4371.0,4.0,1,
252600,1860.8,9.6,62.5,130.2,1242.0,4371.0,4.0,1,
252700,1861.3,9.5,62.5,125.0,1242.0,4371.0,4.0,1,
252800,1861.0,10.4,62.5,125.3,968.0,3769.0,4.0,1,
252900,1864.1,16.5,61.2,99.7,1158.0,4490.0,4.0,1,
253000,1851.9,22.5,58.3,56.0,934.0,3216.0,3.0,1,
253100,1861.4,112.1,57.7,34.9,1040.0,3507.0,3.0,1,
253200,1861.4,40.9,51.2,28.2,1042.0,3774.0,3.0,1,
253300,1851.7,39.7,50.6,27.1,1005.0,3372.0,4.0,1,
253400,1868.4,29.8,49.0,28.1,1048.0,3699.0,3.0,1,
253600,1860.1,9.3,46.2,30.2,1048.0,3699.0,3.0,1,
253700,1861.4,10.5,46.2,35.6,1048.0,3699.0,3.0,1,
253800,1860.7,9.5,46.3,37.3,1048.0,3699.0,3.0,1,
253900,1860.7,9.5,46.3,66.8,1048.0,3699.0,3.0,1,
254000,1860.9,9.3,46.3,99.3,1048.0,3699.0,3.0,1,
254100,1860.8,9.5,46.3,99.0,1048.0,3699.0,3.0,1,
254200,1861.3,9.7,46.3,100.1,1048.0,3699.0,3.0,1,
254300,1861.3,10.0,46.3,134.5,1048.0,3699.0,3.0,1,
254400,1861.8,15.6,46.3,111.2,1048.0,3699.0,3.0,1,
254600,1858.0,20.3,46.0,101.5,1154.0,4477.0,4.0,1,
254700,1856.5,58.4,48.0,80.9,1199.0,4238.0,3.0,1,
254800,1863.7,111.4,34.5,36.9,1142.0,3666.0,4.0,1,
254900,1873.1,87.0,40.2,28.4,1052.0,3702.0,4.0,1,
255000,1859.3,45.5,43.2,29.2,1030.0,3657.0,3.0,1,
255100,1850.9,11.9,42.7,29.3,981.0,3716.0,4.0,1,
255200,1860.1,9.9,42.7,29.4,981.0,3716.0,4.0,1,
255300,1861.9,9.7,42.7,35.8,981.0,3716.0,4.0,1,
255400,1860.8,9.7,42.7,42.2,981.0,3716.0,4.0,1,
255600,1862.2,9.3,42.7,83.9,981.0,3716.0,4.0,1,
255700,1861.5,9.3,42.7,71.2,981.0,3716.0,4.0,1,
255800,1861.0,9.6,42.7,73.1,981.0,3716.0,4.0,1,
255900,1861.5,9.4,42.7,82.1,981.0,3716.0,4.0,1,
256000,1861.2,9.5,42.7,100.0,981.0,3716.0,4.0,1,
256100,1866.4,53.0,50.7,41.7,1432.0,5969.0,3.0,1,
256200,1852.5,31.3,56.2,29.5,1177.0,4194.0,4.0,1,
256300,1859.4,52.6,57.2,29.1,1204.0,4159.0,3.0,1,
256400,1888.0,41.2,59.1,28.8,1201.0,4512.0,3.0,1,
256600,1852.8,28.2,61.2,28.4,1250.0,4132.0,4.0,1,
256700,1861.5,12.8,62.1,29.1,1211.0,4105.0,3.0,1,
256800,1864.3,9.6,62.2,29.5,1211.0,4105.0,3.0,1,
256900,1862.2,8.8,62.1,30.1,1211.0,4105.0,3.0,1,
257000,1861.2,9.8,62.1,37.5,1211.0,4105.0,3.0,1,
257100,1861.1,9.1,62.1,51.7,1211.0,4105.0,3.0,1,
257200,1861.5,9.3,62.1,99.2,1211.0,4105.0,3.0,1,
257300,1861.0,9.7,62.1,102.3,1211.0,4105.0,3.0,1,
257400,1861.2,9.2,62.1,111.5,1211.0,4105.0,3.0,1,
257600,1861.3,9.8,62.1,134.5,1211.0,4105.0,3.0,1,
257700,1861.0,71.3,62.1,145.5,1404.0,5559.0,3.0,1,
257800,1854.3,160.4,57.2,29.0,1220.0,4886.0,4.0,1,
257900,1887.3,29.4,68.0,28.8,1356.0,5102.0,3.0,1,
258000,1838.6,88.2,64.7,29.2,1359.0,4480.0,4.0,1,
258100,1860.6,45.5,66.5,29.5,1352.0,4476.0,3.0,1,
258200,1863.2,95.1,59.6,29.8,1066.0,3957.0,3.0,1,
258300,1852.7,20.8,64.4,29.9,1139.0,3980.0,4.0,1,
258400,1872.6,10.2,64.5,28.9,1139.0,3980.0,4.0,1,
258600,1861.7,13.6,64.5,35.7,1139.0,3980.0,4.0,1,
258700,1861.6,10.2,64.5,30.2,1139.0,3980.0,4.0,1,
258800,1861.4,9.8,64.5,90.2,1139.0,3980.0,4.0,1,
258900,1861.2,9.6,64.5,90.0,1139.0,3980.0,4.0,1,
259000,1861.5,9.2,64.5,93.1,1139.0,3980.0,4.0,1,
259100,1861.1,10.4,64.5,101.7,1139.0,3980.0,4.0,1,
259200,1861.0,9.7,64.5,101.2,1139.0,3980.0,4.0,1,
259300,1861.4,18.5,64.5,101.3,1038.0,4143.0,4.0,1,
259400,1864.9,68.2,61.8,50.9,1385.0,5623.0,4.0,1,
259600,1867.5,30.9,59.6,29.9,823.0,2939.0,4.0,1,
259700,1854.6,35.1,53.6,34.4,784.0,2812.0,3.0,1,
259800,1853.3,78.0,53.6,38.5,814.0,3009.0,4.0,1,
259900,1874.9,23.9,51.9,39.5,663.0,2589.0,4.0,1,
260000,1853.8,10.8,50.0,26.4,663.0,2589.0,4.0,1,
260100,1861.9,9.6,50.0,27.6,663.0,2589.0,4.0,1,
260200,1862.4,9.4,50.0,30.0,663.0,2589.0,4.0,1,
260300,1861.5,9.8,50.0,35.2,663.0,2589.0,4.0,1,
260400,1861.4,9.1,49.9,74.4,663.0,2589.0,4.0,1,
260600,1861.0,14.9,50.0,132.8,663.0,2589.0,4.0,1,
260700,1861.2,10.2,50.0,100.7,663.0,2589.0,4.0,1,
260800,1861.5,9.0,50.0,67.7,663.0,2589.0,4.0,1,
260900,1861.1,12.3,50.1,66.6,663.0,2589.0,4.0,1,
261000,1865.2,22.0,49.9,68.9,1599.0,6478.0,4.0,1,
261100,1858.4,26.8,39.3,55.8,1125.0,4303.0,3.0,1,
261200,1853.4,25.1,39.4,39.2,1142.0,3588.0,4.0,1,
261300,1866.9,69.4,31.4,36.4,1037.0,3633.0,3.0,1,
261400,1865.4,35.8,45.5,34.7,940.0,3557.0,3.0,1,
261600,1857.6,11.7,59.7,29.3,940.0,3557.0,3.0,1,
261700,1859.7,9.5,59.7,29.5,940.0,3557.0,3.0,1,
261800,1861.5,10.4,59.7,29.6,940.0,3557.0,3.0,1,
261900,1861.0,10.2,59.7,30.0,940.0,3557.0,3.0,1,
262000,1861.3,9.6,59.8,38.9,940.0,3557.0,3.0,1,
262100,1861.4,10.5,59.8,91.2,940.0,3557.0,3.0,1,
262200,1860.9,9.7,59.8,99.9,940.0,3557.0,3.0,1,
262300,1861.0,9.3,59.7,99.6,940.0,3557.0,3.0,1,
262400,1860.1,10.0,59.7,99.2,940.0,3557.0,3.0,1,
262600,1864.5,56.0,63.4,65.7,1244.0,4919.0,3.0,1,
262700,1860.5,13.8,65.2,27.3,1150.0,4251.0,4.0,1,
262800,1872.6,58.6,64.7,26.7,1038.0,3799.0,4.0,1,
262900,1856.5,36.8,65.0,26.7,992.0,3373.0,3.0,1,
263000,1849.8,46.0,62.2,27.8,776.0,3122.0,3.0,1,
263100,1859.8,39.3,62.4,28.3,710.0,3113.0,4.0,1,
263200,1865.0,12.5,45.0,27.7,662.0,3031.0,4.0,1,
263300,1860.6,11.4,45.1,30.2,662.0,3031.0,4.0,1,
263400,1861.9,9.5,45.1,34.8,662.0,3031.0,4.0,1,
263600,1861.0,10.1,45.1,50.9,662.0,3031.0,4.0,1,
263700,1860.3,9.5,45.1,68.6,662.0,3031.0,4.0,1,
263800,1860.9,8.5,45.1,99.7,662.0,3031.0,4.0,1,
263900,1861.0,9.5,45.1,87.0,662.0,3031.0,4.0,1,
264000,1860.9,9.4,45.1,87.4,662.0,3031.0,4.0,1,
264100,1860.8,9.0,45.1,100.7,662.0,3031.0,4.0,1,
264200,1850.3,14.0,44.3,107.6,1416.0,5846.0,4.0,1,
264300,1888.0,35.2,39.9,79.1,1408.0,5371.0,3.0,1,
264400,1834.5,22.3,43.2,42.8,1388.0,4898.0,4.0,1,
264600,1866.0,114.7,47.4,38.3,1126.0,4003.0,4.0,1,
264700,1853.1,26.9,52.4,29.3,1043.0,3839.0,3.0,1,
264800,1878.4,20.3,52.7,28.6,1005.0,3773.0,3.0,1,
264900,1850.2,11.1,53.6,28.8,1005.0,3773.0,3.0,1,
265000,1860.9,9.2,53.4,28.9,1005.0,3773.0,3.0,1,
265100,1861.0,9.7,53.4,34.2,1005.0,3773.0,3.0,1,
265200,1860.8,9.7,53.5,35.9,1005.0,3773.0,3.0,1,
265300,1861.3,9.0,53.4,66.1,1005.0,3773.0,3.0,1,
265400,1861.3,10.3,53.4,101.4,1005.0,3773.0,3.0,1,
265600,1861.2,9.0,53.4,100.3,1005.0,3773.0,3.0,1,
265700,1860.7,10.0,53.4,101.1,1005.0,3773.0,3.0,1,
265800,1860.7,38.2,53.4,114.7,1270.0,5034.0,3.0,1,
265900,1851.4,121.5,56.7,37.7,1340.0,5199.0,4.0,1,
266000,1864.0,28.4,64.3,37.5,1047.0,3720.0,3.0,1,
266100,1866.1,108.8,64.2,38.4,1175.0,4213.0,3.0,1,
266200,1849.4,46.9,70.5,37.6,1116.0,3835.0,3.0,1,
266300,1875.5,80.5,64.5,34.3,1065.0,3755.0,3.0,1,
266400,1857.6,21.9,69.6,27.7,1018.0,3777.0,4.0,1,
266600,1859.8,9.7,68.3,29.5,1018.0,3777.0,4.0,1,
266700,1861.6,10.1,68.3,35.3,1018.0,3777.0,4.0,1,
266800,1860.8,8.8,68.3,56.1,1018.0,3777.0,4.0,1,
266900,1861.3,9.5,68.3,79.4,1018.0,3777.0,4.0,1,
267000,1861.9,9.8,68.3,102.1,1018.0,3777.0,4.0,1,
267100,1861.5,9.0,68.3,105.2,1018.0,3777.0,4.0,1,
267200,1861.3,9.9,68.3,102.5,1018.0,3777.0,4.0,1,
267300,1861.4,9.6,68.3,103.5,1018.0,3777.0,4.0,1,
267400,1861.5,18.0,68.3,100.2,1410.0,5756.0,4.0,1,
267600,1859.5,26.8,62.5,75.6,1311.0,4758.0,3.0,1,
267700,1854.7,75.4,62.6,38.0,1235.0,4422.0,4.0,1,
267800,1875.7,155.2,58.2,29.1,1238.0,4352.0,4.0,1,
267900,1850.2,36.1,69.1,28.4,1103.0,3957.0,4.0,1,
268000,1855.9,40.6,63.9,29.2,1232.0,4388.0,3.0,1,
268100,1870.4,12.2,63.9,29.6,1232.0,4388.0,3.0,1,
268200,1858.8,9.8,63.9,30.1,1232.0,4388.0,3.0,1,
268300,1861.7,8.6,63.9,38.3,1232.0,4388.0,3.0,1,
268400,1861.0,9.8,63.9,38.0,1232.0,4388.0,3.0,1,
268600,1861.6,8.7,63.9,112.2,1232.0,4388.0,3.0,1,
268700,1861.0,9.5,63.9,100.4,1232.0,4388.0,3.0,1,
268800,1861.1,9.1,63.9,117.5,1232.0,4388.0,3.0,1,
268900,1861.3,8.3,63.9,104.5,1232.0,4388.0,3.0,1,
269000,1861.6,9.9,63.9,101.0,1232.0,4388.0,3.0,1,
269100,1860.3,110.8,63.5,132.3,1481.0,6000.0,3.0,1,
269200,1867.8,64.5,81.5,29.4,1203.0,4637.0,3.0,1,
269300,1858.6,135.1,84.1,29.4,1341.0,4985.0,3.0,1,
269400,1857.1,70.0,90.2,29.4,1227.0,4474.0,3.0,1,
269600,1864.0,82.7,91.0,28.9,1202.0,3964.0,3.0,1,
269700,1866.4,14.0,97.0,29.0,1177.0,4074.0,4.0,1,
269800,1861.4,8.7,97.0,29.7,1177.0,4074.0,4.0,1,
269900,1862.1,9.2,97.0,29.7,1177.0,4074.0,4.0,1,
270000,1861.5,8.9,97.0,28.4,1177.0,4074.0,4.0,1,
270100,1861.1,8.5,97.0,28.8,1177.0,4074.0,4.0,1,
270200,1861.2,9.0,97.0,132.8,1177.0,4074.0,4.0,1,
270300,1860.9,8.9,97.0,132.1,1177.0,4074.0,4.0,1,
270400,1861.0,8.6,97.0,113.5,1177.0,4074.0,4.0,1,
270600,1861.2,9.5,97.0,132.5,1177.0,4074.0,4.0,1,
270700,1878.0,160.3,97.0,107.4,1337.0,5803.0,4.0,1,
270800,1844.3,39.2,88.1,36.5,1351.0,5417.0,3.0,1,
270900,1848.3,26.3,84.3,34.9,1428.0,5098.0,4.0,1,
271000,1867.8,29.6,76.1,34.6,1111.0,3633.0,3.0,1,
271100,1869.0,150.1,66.8,34.3,1172.0,4371.0,3.0,1,
271200,1873.5,79.5,70.6,29.6,1125.0,3929.0,3.0,1,
271300,1846.8,17.2,65.4,27.9,1061.0,3835.0,4.0,1,
271400,1857.8,10.9,65.4,27.1,1061.0,3835.0,4.0,1,
271600,1862.1,4.5,65.4,29.2,1061.0,3835.0,4.0,1,
271700,1861.7,4.1,65.4,37.7,1061.0,3835.0,4.0,1,
271800,1861.4,4.7,65.3,69.9,1061.0,3835.0,4.0,1,
271900,1862.5,4.4,65.3,99.4,1061.0,3835.0,4.0,1,
272000,1862.2,4.3,65.3,100.8,1061.0,3835.0,4.0,1,
272100,1862.3,4.5,65.2,106.4,1061.0,3835.0,4.0,1,
272200,1861.9,4.6,65.2,117.6,1061.0,3835.0,4.0,1,
272300,1861.6,27.6,65.1,117.6,1309.0,5177.0,4.0,1,
272400,1858.1,51.1,50.9,111.5,1282.0,4972.0,4.0,1,
272600,1856.4,32.6,60.3,36.2,1288.0,4348.0,3.0,1,
