Time(ms),Raw_ADC,ENV_Value,RMS,MDF,MW_Amp,MW_Area,MW_Latency,MW_Valid,Marker
0,1865.2,12.4,0.0,0.0,249.0,818.0,3.0,1,
100,1850.0,38.8,0.0,0.0,241.0,874.0,4.0,1,
200,1874.8,33.7,0.0,0.0,192.0,818.0,3.0,1,
300,1865.5,9.8,0.0,0.0,223.0,1027.0,3.0,1,
400,1853.8,7.3,0.0,0.0,223.0,1027.0,3.0,1,
500,1860.8,9.5,0.0,237.4,223.0,1027.0,3.0,1,
600,1863.0,8.8,0.0,164.6,223.0,1027.0,3.0,1,
700,1863.1,5.3,0.0,131.7,223.0,1027.0,3.0,1,
800,1861.9,5.2,0.0,83.4,223.0,1027.0,3.0,1,
900,1861.0,3.6,0.0,27.8,223.0,1027.0,3.0,1,
1000,1860.6,3.1,0.0,56.9,223.0,1027.0,3.0,1,
1100,1860.6,6.5,0.0,94.3,223.0,1027.0,3.0,1,
1200,1860.5,8.6,0.0,104.3,223.0,1027.0,3.0,1,
1300,1861.0,9.3,0.0,102.1,223.0,1027.0,3.0,1,
1400,1856.4,36.9,0.0,78.6,115.0,614.0,5.0,1,
1500,1879.7,39.6,0.0,100.6,245.0,1068.0,4.0,1,
1600,1846.2,11.8,45.1,103.1,226.0,768.0,4.0,1,
1700,1853.4,34.1,42.5,102.1,252.0,846.0,4.0,1,
1800,1866.3,51.1,40.5,101.0,228.0,1005.0,3.0,1,
1900,1875.9,36.8,40.3,137.6,242.0,1017.0,4.0,1,
2000,1854.6,6.4,40.4,226.7,242.0,1017.0,4.0,1,
2100,1860.1,6.6,40.4,238.5,242.0,1017.0,4.0,1,
2200,1856.4,10.0,40.4,172.6,242.0,1017.0,4.0,1,
2300,1864.0,5.1,40.5,122.8,242.0,1017.0,4.0,1,
2400,1858.5,5.5,40.5,92.7,242.0,1017.0,4.0,1,
2600,1856.5,8.0,40.5,66.1,242.0,1017.0,4.0,1,
2700,1859.0,4.7,40.6,68.2,242.0,1017.0,4.0,1,
2800,1859.5,6.0,40.6,75.7,242.0,1017.0,4.0,1,
2900,1859.9,7.6,40.6,76.8,242.0,1017.0,4.0,1,
3000,1861.2,31.3,40.5,80.9,242.0,1017.0,4.0,1,
3100,1865.4,12.5,42.4,101.4,219.0,965.0,4.0,1,
3200,1861.6,12.2,41.7,100.8,222.0,956.0,4.0,1,
3300,1859.6,21.6,39.9,101.6,238.0,784.0,3.0,1,
3400,1863.0,35.1,37.6,108.4,195.0,889.0,4.0,1,
3600,1858.6,8.0,35.2,170.9,195.0,889.0,4.0,1,
3700,1865.8,9.8,34.3,153.7,195.0,889.0,4.0,1,
3800,1853.5,8.1,34.4,123.5,195.0,889.0,4.0,1,
3900,1855.3,7.5,34.2,91.1,195.0,889.0,4.0,1,
4000,1859.3,5.3,34.3,87.5,195.0,889.0,4.0,1,
4100,1860.0,4.7,34.3,66.7,195.0,889.0,4.0,1,
4200,1861.2,4.7,34.3,26.4,195.0,889.0,4.0,1,
4300,1861.8,4.8,34.3,28.5,195.0,889.0,4.0,1,
4400,1859.5,5.1,34.3,100.0,195.0,889.0,4.0,1,
4600,1858.9,32.2,34.2,138.2,195.0,889.0,4.0,1,
4700,1865.7,25.5,32.0,138.4,211.0,783.0,3.0,1,
4800,1865.2,77.4,32.8,144.2,220.0,892.0,4.0,1,
4900,1855.5,16.8,38.0,144.5,211.0,686.0,3.0,1,
5000,1860.7,26.2,38.1,112.8,209.0,846.0,4.0,1,
5100,1865.7,22.0,38.9,55.1,196.0,719.0,3.0,1,
5200,1853.4,12.4,38.5,49.0,196.0,719.0,3.0,1,
5300,1867.7,9.8,40.2,104.0,196.0,719.0,3.0,1,
5400,1854.6,8.7,40.2,189.6,196.0,719.0,3.0,1,
5600,1859.7,5.3,40.2,237.2,196.0,719.0,3.0,1,
5700,1861.5,5.1,40.2,173.0,196.0,719.0,3.0,1,
5800,1858.5,3.7,40.2,39.9,196.0,719.0,3.0,1,
5900,1860.4,7.8,40.2,55.0,196.0,719.0,3.0,1,
6000,1861.0,8.0,40.2,112.0,196.0,719.0,3.0,1,
6100,1861.8,7.9,40.3,122.4,196.0,719.0,3.0,1,
6200,1860.1,24.8,40.3,91.8,196.0,719.0,3.0,1,
6300,1855.8,48.4,39.1,210.7,202.0,1087.0,2.0,0,
6400,1866.0,40.4,41.5,263.4,215.0,922.0,4.0,1,
6600,1863.5,29.6,35.6,116.9,230.0,880.0,4.0,1,
6700,1866.8,47.9,36.6,106.1,263.0,1114.0,3.0,1,
6800,1867.4,16.2,37.9,115.6,271.0,1144.0,3.0,1,
6900,1850.5,11.3,36.5,130.9,271.0,1144.0,3.0,1,
7000,1855.1,12.4,36.6,152.3,271.0,1144.0,3.0,1,
7100,1847.9,28.9,36.7,157.9,271.0,1144.0,3.0,1,
7200,1857.0,11.9,37.3,165.1,271.0,1144.0,3.0,1,
7300,1869.3,10.0,37.4,68.2,271.0,1144.0,3.0,1,
7400,1856.6,8.9,37.5,29.2,271.0,1144.0,3.0,1,
7600,1861.3,8.4,37.6,69.3,271.0,1144.0,3.0,1,
7700,1859.5,9.1,37.6,199.8,271.0,1144.0,3.0,1,
7800,1859.3,9.8,37.6,200.8,271.0,1144.0,3.0,1,
7900,1852.2,41.7,36.1,178.1,237.0,1010.0,2.0,0,
8000,1876.2,109.5,37.5,92.1,210.0,1013.0,2.0,0,
8100,1848.9,23.2,49.8,91.3,271.0,858.0,3.0,1,
8200,1857.3,18.7,50.5,70.1,268.0,902.0,3.0,1,
8300,1874.5,49.6,49.3,46.1,222.0,1018.0,4.0,1,
8400,1861.5,18.8,50.6,75.6,327.0,1301.0,3.0,1,
8600,1855.0,18.1,50.0,158.9,327.0,1301.0,3.0,1,
8700,1843.3,14.0,50.1,175.7,327.0,1301.0,3.0,1,
8800,1861.0,14.2,50.0,173.7,327.0,1301.0,3.0,1,
8900,1858.8,13.4,50.2,89.8,327.0,1301.0,3.0,1,
9000,1850.6,10.3,50.2,27.4,327.0,1301.0,3.0,1,
9100,1855.2,9.2,50.2,26.9,327.0,1301.0,3.0,1,
9200,1857.4,6.2,50.2,29.5,327.0,1301.0,3.0,1,
9300,1860.9,3.9,50.2,153.3,327.0,1301.0,3.0,1,
9400,1861.7,6.7,50.2,118.0,327.0,1301.0,3.0,1,
9600,1873.8,30.4,48.5,66.2,254.0,726.0,3.0,1,
9700,1860.6,10.9,45.1,276.6,267.0,811.0,4.0,1,
9800,1854.8,45.4,34.4,270.7,263.0,834.0,3.0,1,
9900,1873.5,51.8,37.5,147.2,298.0,1015.0,3.0,1,
10000,1861.9,14.3,48.0,98.7,302.0,1349.0,4.0,1,
10100,1856.3,11.4,45.9,69.9,363.0,1398.0,3.0,1,
10200,1867.2,13.8,45.9,42.4,363.0,1398.0,3.0,1,
10300,1850.5,9.2,45.9,41.5,363.0,1398.0,3.0,1,
10400,1856.6,17.0,45.8,46.1,363.0,1398.0,3.0,1,
10600,1867.8,8.5,45.6,71.6,363.0,1398.0,3.0,1,
10700,1861.1,9.0,45.6,39.6,363.0,1398.0,3.0,1,
10800,1861.3,8.4,45.6,57.0,363.0,1398.0,3.0,1,
10900,1862.7,7.7,45.6,135.2,363.0,1398.0,3.0,1,
11000,1860.1,9.0,45.6,175.9,363.0,1398.0,3.0,1,
11100,1860.9,22.6,45.7,177.5,192.0,1081.0,4.0,1,
11200,1875.5,49.8,46.9,87.2,274.0,1048.0,4.0,1,
11300,1849.0,15.0,46.4,69.6,301.0,921.0,4.0,1,
11400,1856.1,15.9,46.0,72.0,307.0,1109.0,3.0,1,
11600,1862.2,52.4,32.9,89.3,383.0,1743.0,3.0,1,
11700,1861.5,19.4,36.2,72.3,383.0,1743.0,3.0,1,
11800,1863.0,12.2,39.1,70.5,383.0,1743.0,3.0,1,
11900,1854.6,12.2,39.0,72.6,383.0,1743.0,3.0,1,
12000,1850.8,12.3,39.0,72.2,383.0,1743.0,3.0,1,
12100,1858.0,14.5,38.8,69.2,383.0,1743.0,3.0,1,
12200,1861.5,11.5,39.1,69.8,383.0,1743.0,3.0,1,
12300,1861.4,9.3,39.1,24.5,383.0,1743.0,3.0,1,
12400,1856.7,8.4,39.1,23.4,383.0,1743.0,3.0,1,
12600,1862.5,9.2,39.1,135.4,383.0,1743.0,3.0,1,
12700,1860.8,51.7,39.1,175.3,383.0,1743.0,3.0,1,
12800,1868.0,45.6,41.8,140.3,272.0,1486.0,4.0,1,
12900,1857.6,10.6,43.9,145.0,308.0,954.0,4.0,1,
13000,1856.4,35.5,42.0,150.5,293.0,916.0,4.0,1,
13100,1865.8,44.7,46.3,106.6,294.0,1231.0,4.0,1,
13200,1874.3,12.5,47.2,106.9,254.0,1095.0,4.0,1,
13300,1849.9,24.9,45.8,154.2,277.0,1252.0,4.0,1,
13400,1864.8,11.3,44.0,143.4,277.0,1252.0,4.0,1,
13600,1852.9,11.1,43.9,154.7,277.0,1252.0,4.0,1,
13700,1857.8,9.8,44.0,164.9,277.0,1252.0,4.0,1,
13800,1858.3,11.7,43.8,156.1,277.0,1252.0,4.0,1,
13900,1852.0,8.4,43.8,28.0,277.0,1252.0,4.0,1,
14000,1860.3,9.0,43.8,27.7,277.0,1252.0,4.0,1,
14100,1859.5,8.3,43.8,65.6,277.0,1252.0,4.0,1,
14200,1860.4,8.0,43.8,211.9,277.0,1252.0,4.0,1,
14300,1858.5,34.1,43.8,211.1,277.0,1252.0,4.0,1,
14400,1864.6,44.7,43.6,116.5,202.0,1086.0,5.0,1,
14600,1861.0,32.0,41.8,66.1,371.0,1431.0,4.0,1,
14700,1864.1,60.1,40.1,70.7,384.0,1479.0,4.0,1,
14800,1865.4,8.4,43.4,72.0,466.0,1550.0,4.0,1,rest_end
14900,1847.6,24.0,42.1,71.9,512.0,1793.0,4.0,1,
15000,1866.5,4.6,43.9,69.6,492.0,1921.0,3.0,1,
15100,1861.1,14.3,43.9,69.5,492.0,1921.0,3.0,1,
15200,1850.9,9.9,43.8,69.8,492.0,1921.0,3.0,1,
15300,1860.8,5.3,43.8,70.2,492.0,1921.0,3.0,1,
15400,1865.5,8.4,43.7,75.1,492.0,1921.0,3.0,1,
15600,1859.0,2.8,43.6,35.4,492.0,1921.0,3.0,1,
15700,1859.0,3.7,43.5,66.7,492.0,1921.0,3.0,1,
15800,1858.4,4.2,43.5,112.5,492.0,1921.0,3.0,1,
15900,1857.9,3.1,43.4,133.3,492.0,1921.0,3.0,1,
16000,1858.3,51.8,43.3,141.8,219.0,994.0,3.0,1,
16100,1875.5,19.7,42.3,80.6,379.0,1638.0,4.0,1,
16200,1843.3,28.2,43.3,66.3,375.0,1671.0,4.0,1,
16300,1865.5,41.9,43.9,68.9,463.0,1785.0,4.0,1,
16400,1855.9,11.4,44.2,71.2,487.0,1698.0,4.0,1,
16600,1870.5,4.9,43.7,70.7,544.0,1846.0,4.0,1,
16700,1856.5,5.5,43.8,70.5,544.0,1846.0,4.0,1,
16800,1859.9,6.1,43.7,66.1,544.0,1846.0,4.0,1,
16900,1858.4,6.4,43.7,57.2,544.0,1846.0,4.0,1,
17000,1855.8,5.0,43.7,65.7,544.0,1846.0,4.0,1,
17100,1856.7,3.3,43.7,29.2,544.0,1846.0,4.0,1,
17200,1858.4,3.3,43.7,26.4,544.0,1846.0,4.0,1,
17300,1860.3,3.0,43.7,44.3,544.0,1846.0,4.0,1,
17400,1859.5,2.7,43.7,100.4,544.0,1846.0,4.0,1,
17600,1860.3,37.0,43.7,100.5,205.0,1158.0,4.0,1,
17700,1861.8,13.0,44.8,77.7,348.0,1383.0,4.0,1,
17800,1852.4,18.3,41.5,88.9,407.0,1727.0,3.0,1,
17900,1870.0,34.9,38.5,89.7,477.0,1872.0,4.0,1,
18000,1863.1,44.3,40.8,81.6,536.0,1825.0,4.0,1,
18100,1862.3,39.9,40.5,70.5,529.0,1664.0,3.0,1,
18200,1851.3,6.5,44.3,69.5,592.0,2191.0,4.0,1,
18300,1857.6,5.2,44.3,69.3,592.0,2191.0,4.0,1,
18400,1857.7,13.3,44.3,69.7,592.0,2191.0,4.0,1,
18600,1859.0,4.6,44.4,83.0,592.0,2191.0,4.0,1,
18700,1859.3,3.4,44.3,68.8,592.0,2191.0,4.0,1,
18800,1858.1,4.8,44.3,25.8,592.0,2191.0,4.0,1,
18900,1857.5,3.7,44.3,48.4,592.0,2191.0,4.0,1,
19000,1858.3,2.6,44.3,111.3,592.0,2191.0,4.0,1,
19100,1859.8,2.6,44.3,145.4,592.0,2191.0,4.0,1,
19200,1861.0,11.0,44.3,165.3,228.0,1347.0,2.0,0,
19300,1867.8,18.4,44.4,156.0,358.0,1927.0,4.0,1,
19400,1852.2,18.5,42.9,71.6,402.0,1749.0,4.0,1,
19600,1873.7,140.7,43.3,66.2,552.0,1885.0,4.0,1,
19700,1849.1,37.1,54.0,57.1,570.0,1864.0,3.0,1,
19800,1862.6,22.0,52.0,55.7,566.0,2101.0,4.0,1,
19900,1865.4,4.7,55.5,47.4,566.0,2101.0,4.0,1,
20000,1860.0,7.4,55.5,55.5,566.0,2101.0,4.0,1,
20100,1858.6,7.3,55.5,65.4,566.0,2101.0,4.0,1,
20200,1861.0,4.0,55.4,65.9,566.0,2101.0,4.0,1,
20300,1861.4,4.2,55.4,65.9,566.0,2101.0,4.0,1,
20400,1857.1,2.7,55.4,65.5,566.0,2101.0,4.0,1,
20600,1859.6,5.0,55.4,115.4,566.0,2101.0,4.0,1,
20700,1856.8,3.4,55.4,108.5,566.0,2101.0,4.0,1,
20800,1858.2,8.9,55.4,108.6,566.0,2101.0,4.0,1,
20900,1865.5,27.2,55.4,124.1,318.0,2104.0,4.0,1,
21000,1862.3,14.4,55.3,68.2,391.0,1615.0,4.0,1,
21100,1856.3,50.1,55.4,69.5,430.0,1697.0,3.0,1,
21200,1868.5,45.9,57.6,70.2,528.0,1889.0,4.0,1,
21300,1852.8,24.7,56.1,69.6,549.0,2003.0,4.0,1,
21400,1860.4,41.5,42.5,57.1,557.0,1987.0,4.0,1,
21600,1862.3,7.2,45.0,70.3,557.0,1987.0,4.0,1,
21700,1856.1,10.8,45.0,69.8,557.0,1987.0,4.0,1,
21800,1858.2,3.9,45.0,68.3,557.0,1987.0,4.0,1,
21900,1861.7,3.7,45.0,68.2,557.0,1987.0,4.0,1,
22000,1857.0,3.6,45.0,27.0,557.0,1987.0,4.0,1,
22100,1859.7,3.2,45.0,46.1,557.0,1987.0,4.0,1,
22200,1860.8,3.1,45.0,100.4,557.0,1987.0,4.0,1,
22300,1862.5,3.0,45.0,102.5,557.0,1987.0,4.0,1,
22400,1861.3,26.2,45.0,131.1,557.0,1987.0,4.0,1,
22600,1856.6,17.4,45.9,57.0,382.0,1630.0,4.0,1,
22700,1850.2,55.6,44.6,56.2,390.0,1849.0,4.0,1,
22800,1866.9,15.2,50.2,56.4,500.0,1760.0,3.0,1,
22900,1861.6,20.4,48.4,57.3,525.0,1839.0,4.0,1,
23000,1861.7,36.1,47.9,69.3,549.0,1905.0,4.0,1,
23100,1858.3,4.1,48.9,71.9,532.0,1919.0,4.0,1,
23200,1860.1,6.6,48.9,73.1,532.0,1919.0,4.0,1,
23300,1856.3,11.7,48.9,70.0,532.0,1919.0,4.0,1,
23400,1860.5,6.2,48.9,67.6,532.0,1919.0,4.0,1,
23600,1859.8,3.6,48.9,81.2,532.0,1919.0,4.0,1,
23700,1858.5,2.1,48.9,84.3,532.0,1919.0,4.0,1,
23800,1859.8,3.1,48.9,110.1,532.0,1919.0,4.0,1,
23900,1859.5,4.2,48.9,141.4,532.0,1919.0,4.0,1,
24000,1858.6,4.2,48.9,150.6,532.0,1919.0,4.0,1,
24100,1857.4,8.1,48.9,142.4,222.0,1177.0,4.0,1,
24200,1858.0,27.1,47.8,133.8,238.0,901.0,4.0,1,
24300,1853.8,34.1,49.2,71.4,402.0,1756.0,3.0,1,
24400,1867.2,112.3,47.5,70.1,489.0,1800.0,3.0,1,
24600,1842.5,25.0,56.0,56.2,606.0,2083.0,3.0,1,
24700,1865.7,6.6,53.1,48.3,634.0,2421.0,4.0,1,
24800,1851.2,5.2,53.2,56.9,634.0,2421.0,4.0,1,
24900,1857.2,7.6,53.2,67.0,634.0,2421.0,4.0,1,
25000,1858.6,6.6,53.2,65.5,634.0,2421.0,4.0,1,
25100,1861.1,3.5,53.1,69.0,634.0,2421.0,4.0,1,
25200,1861.3,2.9,53.1,68.5,634.0,2421.0,4.0,1,
25300,1860.8,3.1,53.1,38.6,634.0,2421.0,4.0,1,
25400,1859.7,2.7,53.1,86.5,634.0,2421.0,4.0,1,
25600,1860.1,4.1,53.1,109.3,634.0,2421.0,4.0,1,
25700,1858.6,29.0,53.1,101.8,215.0,1385.0,4.0,1,
25800,1859.2,26.3,53.7,90.6,344.0,1440.0,4.0,1,
25900,1861.4,29.8,51.6,56.2,398.0,1761.0,3.0,1,
26000,1867.3,49.5,51.6,68.6,496.0,1941.0,3.0,1,
26100,1858.7,15.7,47.6,68.0,510.0,1787.0,4.0,1,
26200,1854.1,59.4,43.3,55.0,576.0,1940.0,3.0,1,
26300,1872.9,6.5,46.8,46.2,607.0,2066.0,4.0,1,
26400,1855.1,3.0,46.8,57.5,607.0,2066.0,4.0,1,
26600,1856.7,6.8,46.8,80.0,607.0,2066.0,4.0,1,
26700,1865.8,4.5,46.8,81.5,607.0,2066.0,4.0,1,
26800,1855.9,3.7,46.8,114.7,607.0,2066.0,4.0,1,
26900,1859.4,3.1,46.8,67.1,607.0,2066.0,4.0,1,
27000,1859.5,2.9,46.8,67.8,607.0,2066.0,4.0,1,
27100,1859.3,3.4,46.8,90.5,607.0,2066.0,4.0,1,
27200,1859.3,3.1,46.8,108.8,607.0,2066.0,4.0,1,
27300,1859.9,8.8,46.8,136.2,216.0,1276.0,2.0,0,
27400,1871.8,26.7,46.5,141.0,322.0,1795.0,4.0,1,
27600,1870.4,3.8,45.9,67.2,516.0,2249.0,4.0,1,
27700,1855.8,10.0,37.4,57.3,567.0,2103.0,4.0,1,
27800,1848.4,17.1,38.0,56.9,570.0,1963.0,4.0,1,
27900,1874.4,6.6,34.6,69.5,634.0,2126.0,3.0,1,
28000,1857.1,4.6,33.2,70.1,634.0,2126.0,3.0,1,
28100,1859.8,5.1,33.2,66.9,634.0,2126.0,3.0,1,
28200,1857.2,7.8,33.2,67.0,634.0,2126.0,3.0,1,
28300,1865.7,5.5,33.2,67.9,634.0,2126.0,3.0,1,
28400,1855.2,3.2,33.2,86.7,634.0,2126.0,3.0,1,
28600,1860.3,3.2,33.2,28.4,634.0,2126.0,3.0,1,
28700,1859.8,3.1,33.2,110.2,634.0,2126.0,3.0,1,
28800,1860.1,2.8,33.2,170.0,634.0,2126.0,3.0,1,
28900,1860.2,2.7,33.2,186.9,634.0,2126.0,3.0,1,
29000,1866.1,18.3,33.2,174.2,243.0,1208.0,4.0,1,
29100,1852.6,20.3,33.0,66.7,359.0,1598.0,3.0,1,
29200,1864.3,37.6,33.1,57.5,496.0,1904.0,3.0,1,
29300,1863.6,27.8,47.4,57.1,560.0,2097.0,4.0,1,
29400,1863.0,39.5,47.0,46.8,576.0,1991.0,3.0,1,
29600,1869.0,5.6,54.7,57.1,576.0,1991.0,3.0,1,
29700,1862.7,4.6,54.7,70.9,576.0,1991.0,3.0,1,
29800,1858.6,9.2,54.7,71.3,576.0,1991.0,3.0,1,
29900,1863.5,5.0,54.7,70.7,576.0,1991.0,3.0,1,
30000,1855.7,3.4,54.7,70.3,576.0,1991.0,3.0,1,
30100,1858.6,3.8,54.7,66.9,576.0,1991.0,3.0,1,
30200,1858.8,3.5,54.7,66.7,576.0,1991.0,3.0,1,
30300,1859.6,3.1,54.7,101.6,576.0,1991.0,3.0,1,
30400,1859.4,4.1,54.7,101.5,576.0,1991.0,3.0,1,
30600,1858.9,15.3,54.7,125.3,204.0,1119.0,4.0,1,
30700,1856.0,49.6,55.0,116.2,290.0,1766.0,3.0,1,
30800,1861.8,53.4,57.5,98.9,536.0,2241.0,3.0,1,
30900,1876.7,8.2,50.4,85.0,635.0,2502.0,4.0,1,
31000,1846.0,34.7,48.7,82.1,614.0,2304.0,3.0,1,
31100,1856.5,48.1,49.1,72.4,660.0,2362.0,3.0,1,
31200,1872.2,5.8,52.8,71.7,556.0,2228.0,4.0,1,
31300,1855.5,4.6,49.7,72.9,556.0,2228.0,4.0,1,
31400,1858.8,6.7,49.7,71.5,556.0,2228.0,4.0,1,
31600,1862.2,4.1,49.7,67.1,556.0,2228.0,4.0,1,
31700,1859.1,3.5,49.7,75.3,556.0,2228.0,4.0,1,
31800,1859.3,2.6,49.7,66.0,556.0,2228.0,4.0,1,
31900,1860.1,3.5,49.7,87.5,556.0,2228.0,4.0,1,
32000,1859.1,3.9,49.7,107.4,556.0,2228.0,4.0,1,
32100,1858.4,3.2,49.7,113.4,556.0,2228.0,4.0,1,
32200,1858.7,10.5,49.7,125.9,205.0,1030.0,2.0,0,
32300,1862.3,18.6,48.0,123.3,349.0,1451.0,4.0,1,
32400,1852.4,87.9,44.1,68.4,377.0,1831.0,3.0,1,
32600,1853.8,10.2,52.6,47.3,525.0,1989.0,4.0,1,
32700,1852.2,38.4,46.5,55.0,556.0,2053.0,3.0,1,
32800,1874.9,5.3,48.1,57.3,609.0,2227.0,4.0,1,
32900,1849.2,3.8,46.9,69.8,609.0,2227.0,4.0,1,
33000,1859.6,4.5,46.9,75.4,609.0,2227.0,4.0,1,
33100,1858.3,6.7,46.9,76.3,609.0,2227.0,4.0,1,
33200,1866.3,4.5,46.9,75.5,609.0,2227.0,4.0,1,
33300,1856.7,3.1,46.9,80.3,609.0,2227.0,4.0,1,
33400,1859.2,4.5,46.9,101.4,609.0,2227.0,4.0,1,
33600,1859.2,33.9,46.9,131.6,609.0,2227.0,4.0,1,
33700,1859.7,16.3,47.6,67.3,609.0,2227.0,4.0,1,
33800,1864.4,88.3,48.0,55.7,362.0,2456.0,2.0,0,
33900,1876.9,39.6,52.3,53.8,302.0,1597.0,4.0,1,
34000,1843.7,67.4,52.6,53.8,355.0,1526.0,3.0,1,
34100,1873.0,89.0,47.7,55.1,537.0,2343.0,3.0,1,
34200,1869.7,43.2,63.3,56.9,385.0,1843.0,4.0,1,
34300,1859.8,25.9,64.5,56.6,604.0,2414.0,4.0,1,
34400,1853.3,36.8,64.4,54.2,603.0,2373.0,4.0,1,
34600,1877.6,16.1,67.9,56.9,603.0,2373.0,4.0,1,
34700,1871.5,31.8,68.1,57.3,603.0,2373.0,4.0,1,
34800,1868.7,18.1,68.5,67.1,603.0,2373.0,4.0,1,
34900,1846.0,7.5,68.8,66.5,603.0,2373.0,4.0,1,
35000,1856.3,9.9,68.8,56.7,603.0,2373.0,4.0,1,
35100,1855.3,43.1,68.9,56.7,603.0,2373.0,4.0,1,
35200,1847.3,54.9,69.6,56.9,603.0,2373.0,4.0,1,
35300,1820.0,45.2,71.6,67.8,603.0,2373.0,4.0,1,
35400,1850.0,34.8,72.2,66.5,603.0,2373.0,4.0,1,
35600,1858.2,19.6,72.3,57.4,338.0,1692.0,4.0,1,
35700,1868.9,41.5,70.8,49.7,385.0,1729.0,3.0,1,
35800,1874.7,6.4,56.6,49.8,455.0,1825.0,4.0,1,
35900,1850.7,33.3,52.7,54.1,500.0,1829.0,3.0,1,
36000,1855.5,48.0,55.8,56.5,589.0,2171.0,3.0,1,
36100,1867.5,8.1,55.3,69.8,589.0,2171.0,3.0,1,
36200,1860.2,7.9,55.0,72.5,589.0,2171.0,3.0,1,
36300,1861.9,5.6,54.8,70.8,589.0,2171.0,3.0,1,
36400,1854.1,6.5,54.3,57.3,589.0,2171.0,3.0,1,
36600,1867.3,2.9,54.0,99.6,589.0,2171.0,3.0,1,
36700,1861.0,3.8,54.0,67.3,589.0,2171.0,3.0,1,
36800,1859.1,4.9,53.5,99.9,589.0,2171.0,3.0,1,
36900,1857.9,3.5,50.4,102.0,589.0,2171.0,3.0,1,
37000,1860.2,4.5,48.7,132.2,589.0,2171.0,3.0,1,
37100,1865.7,14.3,47.3,163.9,287.0,1518.0,5.0,1,
37200,1864.3,16.2,43.7,66.6,389.0,1906.0,4.0,1,
37300,1851.0,86.3,42.8,57.4,503.0,2155.0,4.0,1,
37400,1864.8,9.0,60.8,55.3,595.0,2297.0,4.0,1,
37600,1857.7,36.8,58.0,42.7,579.0,2190.0,3.0,1,
37700,1869.0,6.0,58.4,56.7,527.0,2049.0,4.0,1,
37800,1854.4,7.4,57.5,70.5,527.0,2049.0,4.0,1,
37900,1858.5,9.1,57.5,70.0,527.0,2049.0,4.0,1,
38000,1854.7,7.5,57.5,65.8,527.0,2049.0,4.0,1,
38100,1862.8,5.0,57.5,67.5,527.0,2049.0,4.0,1,
38200,1865.0,3.8,57.5,69.9,527.0,2049.0,4.0,1,
38300,1860.4,55.7,57.4,125.4,527.0,2049.0,4.0,1,
38400,1861.0,277.4,59.0,68.6,527.0,2049.0,4.0,1,
38600,1886.6,191.6,204.8,53.4,1023.0,9558.0,4.0,1,
38700,1884.3,56.8,281.1,29.5,208.0,1158.0,5.0,1,
38800,1839.9,24.8,281.2,29.1,345.0,1744.0,4.0,1,
38900,1842.5,62.8,281.0,29.0,325.0,1593.0,3.0,1,
39000,1871.8,17.8,279.7,29.2,341.0,1476.0,3.0,1,
39100,1851.6,12.9,279.1,45.6,317.0,1388.0,4.0,1,
39200,1858.3,26.9,278.2,69.4,351.0,1424.0,3.0,1,
39300,1858.2,4.5,278.0,70.6,385.0,1504.0,4.0,1,
39400,1854.5,4.4,278.0,69.7,385.0,1504.0,4.0,1,
39600,1857.3,11.5,278.0,68.1,385.0,1504.0,4.0,1,
39700,1864.8,8.6,278.0,68.7,385.0,1504.0,4.0,1,
39800,1859.6,9.4,278.0,84.2,385.0,1504.0,4.0,1,
39900,1858.7,7.2,278.0,123.6,385.0,1504.0,4.0,1,
40000,1859.9,7.9,278.0,166.5,385.0,1504.0,4.0,1,
40100,1860.2,8.3,272.3,173.0,385.0,1504.0,4.0,1,
40200,1860.8,7.4,258.9,148.7,385.0,1504.0,4.0,1,
40300,1861.2,7.8,40.0,135.4,231.0,1456.0,4.0,1,
40400,1865.2,22.6,39.0,133.8,304.0,1705.0,4.0,1,
40600,1864.5,46.3,33.6,51.4,394.0,1839.0,3.0,1,
40700,1873.2,16.7,35.4,47.0,393.0,1668.0,4.0,1,
40800,1843.3,21.4,33.5,55.8,369.0,1499.0,3.0,1,
40900,1864.2,8.6,33.8,57.5,467.0,1755.0,3.0,1,
41000,1864.6,8.7,33.9,57.1,467.0,1755.0,3.0,1,
41100,1861.2,8.9,34.0,57.0,467.0,1755.0,3.0,1,
41200,1858.3,13.2,34.0,57.0,467.0,1755.0,3.0,1,
41300,1863.2,11.0,34.1,65.9,467.0,1755.0,3.0,1,
41400,1858.2,11.2,34.1,158.6,467.0,1755.0,3.0,1,
41600,1857.4,11.2,34.2,165.9,467.0,1755.0,3.0,1,
41700,1858.9,10.3,34.3,167.0,467.0,1755.0,3.0,1,
41800,1858.6,10.8,34.4,165.1,467.0,1755.0,3.0,1,
41900,1858.7,8.3,34.4,171.9,467.0,1755.0,3.0,1,
42000,1858.2,41.1,34.4,187.1,151.0,769.0,4.0,1,
42100,1866.3,22.2,39.5,43.0,195.0,865.0,2.0,0,
42200,1846.3,17.6,36.6,41.3,232.0,1137.0,4.0,1,
42300,1867.9,42.9,38.2,66.7,252.0,1332.0,4.0,1,
42400,1867.2,9.9,36.8,84.6,250.0,1212.0,4.0,1,
42600,1853.6,10.6,34.2,83.3,322.0,1580.0,4.0,1,
42700,1860.4,11.3,34.3,88.6,322.0,1580.0,4.0,1,
42800,1856.9,12.0,34.3,72.1,322.0,1580.0,4.0,1,
42900,1860.6,9.8,34.3,41.3,322.0,1580.0,4.0,1,
43000,1865.6,10.0,34.3,108.5,322.0,1580.0,4.0,1,
43100,1859.6,9.9,34.3,174.1,322.0,1580.0,4.0,1,
43200,1860.2,9.8,34.3,92.5,322.0,1580.0,4.0,1,
43300,1859.5,10.1,34.3,150.7,322.0,1580.0,4.0,1,
43400,1859.8,10.5,34.2,218.6,322.0,1580.0,4.0,1,
43600,1859.9,25.0,34.2,238.9,172.0,855.0,4.0,1,
43700,1868.7,14.9,28.3,115.9,219.0,1041.0,2.0,0,
43800,1856.1,19.3,26.6,93.9,242.0,1345.0,4.0,1,
43900,1844.6,49.5,26.5,103.4,209.0,1054.0,4.0,1,
44000,1867.2,13.2,38.8,75.5,240.0,1338.0,4.0,1,
44100,1853.4,18.0,36.8,44.5,234.0,1131.0,4.0,1,
44200,1858.5,12.3,39.6,42.8,231.0,1082.0,3.0,1,
44300,1860.7,8.4,41.9,56.1,231.0,1082.0,3.0,1,
44400,1859.6,8.9,41.8,55.5,231.0,1082.0,3.0,1,
44600,1866.7,8.1,41.7,36.0,231.0,1082.0,3.0,1,
44700,1861.7,7.1,41.7,85.9,231.0,1082.0,3.0,1,
44800,1860.5,8.6,41.7,106.1,231.0,1082.0,3.0,1,
44900,1859.9,8.2,41.6,133.5,231.0,1082.0,3.0,1,
45000,1861.2,7.5,41.6,138.2,231.0,1082.0,3.0,1,
45100,1860.7,8.4,41.6,174.4,231.0,1082.0,3.0,1,
45200,1859.7,33.1,41.5,196.9,155.0,815.0,4.0,1,
45300,1876.1,20.6,41.2,163.8,201.0,979.0,2.0,0,
45400,1851.3,13.0,40.3,209.6,174.0,967.0,4.0,1,
45600,1870.4,11.6,33.3,145.4,190.0,923.0,4.0,1,
45700,1860.6,10.4,31.2,90.8,250.0,1317.0,4.0,1,
45800,1849.3,9.3,28.0,79.0,276.0,1313.0,4.0,1,
45900,1862.9,8.4,23.7,71.9,276.0,1313.0,4.0,1,
46000,1859.8,9.3,23.8,57.4,276.0,1313.0,4.0,1,
46100,1857.2,12.1,23.8,35.5,276.0,1313.0,4.0,1,
46200,1870.7,8.2,23.9,68.8,276.0,1313.0,4.0,1,
46300,1860.5,8.9,23.9,122.7,276.0,1313.0,4.0,1,
46400,1860.7,8.1,23.9,114.1,276.0,1313.0,4.0,1,
46600,1860.5,8.3,23.9,122.2,276.0,1313.0,4.0,1,
46700,1860.0,8.1,23.9,102.2,276.0,1313.0,4.0,1,
46800,1859.8,27.5,23.9,124.0,131.0,739.0,5.0,1,
46900,1868.4,8.4,25.4,151.1,178.0,679.0,2.0,0,
47000,1852.9,17.8,22.8,184.6,158.0,1095.0,4.0,1,
47100,1846.5,38.6,23.4,177.9,204.0,1018.0,4.0,1,
47200,1870.0,10.8,44.3,71.4,237.0,1285.0,4.0,1,
47300,1862.5,18.5,44.0,37.4,254.0,1199.0,4.0,1,
47400,1845.5,18.7,46.1,36.1,226.0,988.0,4.0,1,
47600,1860.6,8.9,47.7,79.4,226.0,988.0,4.0,1,
47700,1858.2,11.5,47.7,72.4,226.0,988.0,4.0,1,
47800,1866.3,8.8,47.7,69.6,226.0,988.0,4.0,1,
47900,1860.8,7.7,47.7,71.2,226.0,988.0,4.0,1,
48000,1861.2,7.6,47.7,140.0,226.0,988.0,4.0,1,
48100,1860.6,8.2,47.7,154.2,226.0,988.0,4.0,1,
48200,1860.4,7.8,47.7,145.6,226.0,988.0,4.0,1,
48300,1859.8,8.2,47.7,165.4,226.0,988.0,4.0,1,
48400,1859.8,25.5,47.7,208.9,226.0,988.0,4.0,1,
48600,1859.1,14.9,48.5,101.1,149.0,643.0,2.0,0,
48700,1851.5,23.3,47.9,80.0,172.0,747.0,4.0,1,
48800,1863.4,46.6,29.5,83.1,168.0,781.0,4.0,1,
48900,1860.1,16.4,38.4,103.3,211.0,974.0,4.0,1,
49000,1852.5,30.8,37.2,66.2,204.0,999.0,4.0,1,
49100,1868.5,10.4,37.3,43.2,204.0,999.0,4.0,1,
49200,1860.6,9.3,37.3,45.7,204.0,999.0,4.0,1,
49300,1858.0,10.7,37.3,175.5,204.0,999.0,4.0,1,
49400,1864.5,8.6,37.3,262.6,204.0,999.0,4.0,1,
49600,1860.3,9.1,37.3,177.8,204.0,999.0,4.0,1,
49700,1859.3,8.2,37.3,177.7,204.0,999.0,4.0,1,
49800,1860.4,8.0,37.3,152.0,204.0,999.0,4.0,1,
49900,1860.8,8.6,37.3,156.7,204.0,999.0,4.0,1,
50000,1860.1,12.3,37.3,165.7,204.0,999.0,4.0,1,
50100,1862.2,10.6,37.1,219.6,188.0,671.0,2.0,0,
50200,1858.9,32.1,36.7,272.7,164.0,679.0,4.0,1,
50300,1847.7,31.1,39.5,264.6,160.0,681.0,4.0,1,
50400,1865.0,11.8,38.9,230.8,207.0,985.0,2.0,0,
50600,1855.7,23.4,28.4,201.5,168.0,791.0,4.0,1,
50700,1861.6,8.3,27.6,92.1,216.0,1153.0,4.0,1,
50800,1857.5,9.9,27.5,76.8,216.0,1153.0,4.0,1,
50900,1858.5,9.1,27.5,80.1,216.0,1153.0,4.0,1,
51000,1862.9,9.3,27.5,80.6,216.0,1153.0,4.0,1,
51100,1864.0,9.1,27.5,80.8,216.0,1153.0,4.0,1,
51200,1858.1,8.1,27.5,144.8,216.0,1153.0,4.0,1,
51300,1859.9,8.2,27.5,205.6,216.0,1153.0,4.0,1,
51400,1859.6,9.0,27.5,229.0,216.0,1153.0,4.0,1,
51600,1860.3,7.8,27.5,185.6,216.0,1153.0,4.0,1,
51700,1860.1,12.8,27.5,217.7,204.0,1020.0,2.0,0,
51800,1859.3,12.8,25.9,171.1,137.0,589.0,4.0,1,
51900,1854.4,23.8,22.2,92.7,172.0,805.0,4.0,1,
52000,1862.6,20.8,22.0,109.8,135.0,606.0,4.0,1,
52100,1863.6,11.3,22.2,115.1,198.0,989.0,4.0,1,
52200,1852.9,15.8,24.1,107.5,180.0,942.0,4.0,1,
52300,1862.4,10.6,21.8,102.1,157.0,700.0,2.0,0,
52400,1854.0,8.9,21.8,103.1,157.0,700.0,2.0,0,
52600,1862.3,9.2,21.8,56.3,157.0,700.0,2.0,0,
52700,1865.6,8.6,21.7,73.4,157.0,700.0,2.0,0,
52800,1859.6,8.0,21.7,157.8,157.0,700.0,2.0,0,
52900,1860.2,9.1,21.7,205.1,157.0,700.0,2.0,0,
53000,1859.3,8.2,21.7,196.4,157.0,700.0,2.0,0,
53100,1860.3,8.3,21.7,148.5,157.0,700.0,2.0,0,
53200,1860.2,9.4,21.7,198.8,157.0,700.0,2.0,0,
53300,1859.4,8.4,21.7,212.9,130.0,653.0,2.0,0,
53400,1859.6,19.6,21.6,177.7,207.0,1006.0,2.0,0,
53600,1859.6,11.6,22.2,209.8,187.0,1052.0,4.0,1,
53700,1857.8,19.0,21.6,183.3,183.0,975.0,4.0,1,
53800,1849.6,19.5,22.3,129.9,178.0,884.0,4.0,1,
53900,1863.4,13.7,25.4,102.3,206.0,1186.0,4.0,1,
54000,1856.3,9.2,25.6,79.0,206.0,1186.0,4.0,1,
54100,1859.4,9.1,25.6,78.6,206.0,1186.0,4.0,1,
54200,1860.4,8.5,25.6,76.4,206.0,1186.0,4.0,1,
54300,1866.6,8.4,25.6,80.1,206.0,1186.0,4.0,1,
54400,1861.3,9.4,25.6,170.5,206.0,1186.0,4.0,1,
54600,1860.5,9.0,25.6,212.3,206.0,1186.0,4.0,1,
54700,1860.0,9.5,25.6,211.0,206.0,1186.0,4.0,1,
54800,1859.0,8.6,25.6,208.9,206.0,1186.0,4.0,1,
54900,1859.3,15.7,25.6,232.2,146.0,925.0,4.0,1,
55000,1871.2,9.3,25.7,231.4,150.0,622.0,5.0,1,
55100,1860.9,25.3,25.1,91.5,179.0,862.0,4.0,1,
55200,1856.9,73.1,25.5,90.4,135.0,716.0,4.0,1,
55300,1856.7,16.7,47.8,89.1,174.0,900.0,4.0,1,
55400,1849.3,29.7,47.5,45.9,204.0,1230.0,4.0,1,
55600,1864.2,11.2,58.2,35.4,204.0,1230.0,4.0,1,
55700,1859.1,8.3,58.2,38.6,204.0,1230.0,4.0,1,
55800,1859.0,9.1,58.1,36.0,204.0,1230.0,4.0,1,
55900,1867.3,9.8,58.2,34.4,204.0,1230.0,4.0,1,
56000,1861.6,8.8,58.2,35.3,204.0,1230.0,4.0,1,
56100,1860.0,9.0,58.2,123.6,204.0,1230.0,4.0,1,
56200,1859.6,9.2,58.2,150.8,204.0,1230.0,4.0,1,
56300,1860.2,8.1,58.2,202.0,204.0,1230.0,4.0,1,
56400,1859.5,9.0,58.2,215.6,204.0,1230.0,4.0,1,
56600,1868.7,17.7,58.2,221.4,169.0,913.0,5.0,1,
56700,1849.1,33.5,58.5,86.6,144.0,781.0,4.0,1,
56800,1865.1,11.7,58.5,79.2,204.0,867.0,2.0,0,
56900,1853.4,31.1,42.8,112.8,168.0,871.0,5.0,1,
57000,1857.2,23.1,44.6,260.8,142.0,658.0,4.0,1,
57100,1858.0,44.0,46.7,202.1,202.0,1146.0,4.0,1,
57200,1862.0,11.0,34.5,55.7,202.0,1146.0,4.0,1,
57300,1859.9,9.9,34.5,50.5,202.0,1146.0,4.0,1,
57400,1857.5,9.8,34.5,81.8,202.0,1146.0,4.0,1,
57600,1863.1,8.3,34.5,89.0,202.0,1146.0,4.0,1,
57700,1860.3,9.3,34.5,139.5,202.0,1146.0,4.0,1,
57800,1860.0,8.0,34.5,133.0,202.0,1146.0,4.0,1,
57900,1859.9,9.2,34.5,154.1,202.0,1146.0,4.0,1,
58000,1859.2,9.8,34.5,178.1,202.0,1146.0,4.0,1,
58100,1859.3,8.3,34.5,146.7,202.0,1146.0,4.0,1,
58200,1859.6,17.3,34.5,151.1,202.0,1146.0,4.0,1,
58300,1858.8,34.0,36.7,198.4,166.0,817.0,4.0,1,
58400,1869.4,21.5,40.0,217.4,148.0,717.0,4.0,1,
58600,1850.2,33.7,49.1,91.4,163.0,942.0,4.0,1,
58700,1864.1,37.0,49.5,56.5,185.0,922.0,4.0,1,
58800,1861.4,13.3,54.4,42.6,171.0,890.0,4.0,1,
58900,1859.5,9.0,53.7,45.1,171.0,890.0,4.0,1,
59000,1859.0,8.3,53.7,46.5,171.0,890.0,4.0,1,
59100,1864.8,8.0,53.7,67.2,171.0,890.0,4.0,1,
59200,1863.9,9.0,53.7,87.8,171.0,890.0,4.0,1,
59300,1859.5,8.0,53.7,131.4,171.0,890.0,4.0,1,
59400,1860.1,8.7,53.7,112.0,171.0,890.0,4.0,1,
59600,1859.3,8.1,53.7,146.8,171.0,890.0,4.0,1,
59700,1859.6,9.0,53.7,176.1,171.0,890.0,4.0,1,
59800,1859.5,22.1,53.7,176.5,169.0,986.0,5.0,1,
59900,1847.3,22.7,51.9,204.4,165.0,745.0,4.0,1,
60000,1877.7,15.7,50.9,203.9,160.0,786.0,4.0,1,
60100,1856.5,20.2,50.9,169.4,182.0,1030.0,4.0,1,
60200,1849.8,19.0,50.9,112.6,129.0,708.0,4.0,1,
60300,1865.1,27.4,35.7,122.8,189.0,1021.0,4.0,1,
60400,1864.0,14.5,30.8,123.4,185.0,811.0,4.0,1,
60600,1858.8,8.4,30.4,75.9,185.0,811.0,4.0,1,
60700,1862.9,8.3,30.4,75.5,185.0,811.0,4.0,1,
60800,1863.6,8.3,30.4,84.3,185.0,811.0,4.0,1,
60900,1859.0,8.9,30.4,131.0,185.0,811.0,4.0,1,
61000,1859.1,8.5,30.4,157.7,185.0,811.0,4.0,1,
61100,1859.5,7.7,30.4,158.5,185.0,811.0,4.0,1,
61200,1860.0,8.5,30.4,169.0,185.0,811.0,4.0,1,
61300,1859.8,8.6,30.4,170.3,185.0,811.0,4.0,1,
61400,1859.1,11.8,30.4,167.5,98.0,530.0,5.0,1,
61600,1867.3,50.2,29.1,92.3,151.0,529.0,4.0,1,
61700,1858.6,12.6,38.7,89.3,128.0,536.0,2.0,0,
61800,1850.4,27.3,38.4,67.8,107.0,528.0,4.0,1,
61900,1861.6,53.6,40.0,41.3,115.0,461.0,4.0,1,
62000,1867.7,11.3,54.4,69.5,189.0,782.0,2.0,0,
62100,1848.2,9.4,53.0,54.4,189.0,782.0,2.0,0,
62200,1859.5,8.2,53.0,36.8,189.0,782.0,2.0,0,
62300,1862.1,7.6,53.0,36.1,189.0,782.0,2.0,0,
62400,1862.2,10.3,53.0,51.7,189.0,782.0,2.0,0,
62600,1857.0,10.8,53.0,145.9,189.0,782.0,2.0,0,
62700,1858.8,12.1,53.0,165.5,189.0,782.0,2.0,0,
62800,1858.3,11.6,53.0,177.2,189.0,782.0,2.0,0,
62900,1858.2,10.7,53.1,210.1,189.0,782.0,2.0,0,
63000,1858.8,12.3,53.1,226.0,189.0,782.0,2.0,0,
63100,1860.4,30.2,53.1,230.1,156.0,517.0,5.0,1,
63200,1870.8,48.8,53.3,237.8,150.0,669.0,4.0,1,
63300,1857.2,18.9,57.1,251.8,161.0,791.0,2.0,0,
63400,1859.7,20.0,57.4,89.3,113.0,614.0,4.0,1,
63600,1869.5,13.5,46.2,47.1,113.0,614.0,4.0,1,
63700,1859.3,11.6,45.2,88.4,113.0,614.0,4.0,1,
63800,1860.6,10.2,45.3,72.8,113.0,614.0,4.0,1,
63900,1861.9,11.7,45.4,71.7,113.0,614.0,4.0,1,
64000,1859.6,11.0,45.4,88.2,113.0,614.0,4.0,1,
64100,1857.9,8.8,45.3,175.7,113.0,614.0,4.0,1,
64200,1858.0,9.3,45.4,201.9,113.0,614.0,4.0,1,
64300,1858.9,9.2,45.3,218.0,113.0,614.0,4.0,1,
64400,1858.7,7.9,45.3,187.8,113.0,614.0,4.0,1,
64600,1859.5,133.9,45.2,238.0,153.0,775.0,5.0,1,
64700,1853.2,16.8,59.9,38.5,179.0,538.0,4.0,1,
64800,1863.9,9.3,59.5,36.3,179.0,538.0,4.0,1,
64900,1859.7,8.1,49.0,35.9,179.0,538.0,4.0,1,
65000,1863.1,7.9,47.8,35.5,179.0,538.0,4.0,1,
65100,1862.3,8.9,46.8,35.4,179.0,538.0,4.0,1,
65200,1860.3,8.5,43.4,107.0,179.0,538.0,4.0,1,
65300,1859.6,10.9,41.9,178.2,179.0,538.0,4.0,1,
65400,1860.2,12.3,41.8,146.5,179.0,538.0,4.0,1,
65600,1859.9,8.0,41.8,173.5,179.0,538.0,4.0,1,
65700,1860.4,27.6,41.8,175.2,193.0,835.0,4.0,1,
65800,1863.1,26.3,43.3,99.3,238.0,1077.0,4.0,1,
65900,1866.3,15.2,43.6,83.3,283.0,1520.0,4.0,1,
66000,1845.7,16.8,45.6,83.8,365.0,1739.0,4.0,1,
66100,1862.8,38.7,45.6,125.7,287.0,1284.0,3.0,1,
66200,1862.3,15.9,51.8,177.5,359.0,1689.0,4.0,1,
66300,1857.0,9.2,48.1,43.4,371.0,1562.0,3.0,1,
66400,1860.5,10.3,35.8,41.2,371.0,1562.0,3.0,1,
66600,1861.0,9.3,35.8,53.4,371.0,1562.0,3.0,1,
66700,1861.1,9.0,35.8,67.2,371.0,1562.0,3.0,1,
66800,1859.3,8.0,35.7,190.1,371.0,1562.0,3.0,1,
66900,1859.4,8.8,35.8,201.4,371.0,1562.0,3.0,1,
67000,1860.3,8.7,35.7,232.7,371.0,1562.0,3.0,1,
67100,1859.8,8.0,35.7,239.5,371.0,1562.0,3.0,1,
67200,1859.7,9.3,35.6,240.1,371.0,1562.0,3.0,1,
67300,1859.7,20.1,35.6,239.1,173.0,884.0,5.0,1,
67400,1866.2,8.8,35.9,148.2,209.0,811.0,4.0,1,
67600,1847.0,10.7,35.1,106.6,227.0,1140.0,4.0,1,
67700,1865.5,37.5,35.0,101.7,273.0,1312.0,3.0,1,
67800,1866.7,11.2,29.2,82.3,264.0,1283.0,4.0,1,
67900,1856.7,8.3,27.3,52.5,247.0,1183.0,4.0,1,
68000,1859.9,8.8,27.3,47.7,247.0,1183.0,4.0,1,
68100,1859.6,8.0,27.3,53.8,247.0,1183.0,4.0,1,
68200,1863.3,9.4,27.3,55.2,247.0,1183.0,4.0,1,
68300,1860.1,8.3,27.3,75.8,247.0,1183.0,4.0,1,
68400,1859.5,8.4,27.3,131.3,247.0,1183.0,4.0,1,
68600,1860.5,7.6,27.3,177.3,247.0,1183.0,4.0,1,
68700,1860.2,8.5,27.3,207.1,247.0,1183.0,4.0,1,
68800,1859.2,10.8,27.3,175.0,247.0,1183.0,4.0,1,
68900,1858.2,140.7,27.3,177.7,158.0,947.0,5.0,1,
69000,1863.9,68.2,42.1,50.3,211.0,809.0,4.0,1,
69100,1864.5,18.2,56.2,36.9,220.0,1087.0,4.0,1,
69200,1848.2,38.8,55.9,36.9,267.0,1455.0,4.0,1,
69300,1866.3,8.2,58.7,38.0,246.0,1163.0,4.0,1,
69400,1867.2,173.8,57.2,45.3,301.0,1446.0,4.0,1,
69600,1867.0,9.6,73.9,51.4,301.0,1446.0,4.0,1,
69700,1860.2,8.3,73.9,44.3,301.0,1446.0,4.0,1,
69800,1863.6,8.4,73.9,44.9,301.0,1446.0,4.0,1,
69900,1862.0,9.1,73.9,48.0,301.0,1446.0,4.0,1,
70000,1858.8,8.5,73.9,66.1,301.0,1446.0,4.0,1,
70100,1858.9,8.2,73.9,109.4,301.0,1446.0,4.0,1,
70200,1859.8,8.5,73.9,132.9,301.0,1446.0,4.0,1,
70300,1859.6,8.5,73.9,176.1,301.0,1446.0,4.0,1,
70400,1858.3,8.2,73.8,164.9,301.0,1446.0,4.0,1,
70600,1862.9,10.0,74.4,166.4,203.0,846.0,4.0,1,
70700,1855.1,23.9,55.6,175.5,208.0,1192.0,4.0,1,
70800,1860.7,24.9,57.7,168.7,238.0,1142.0,4.0,1,
70900,1859.0,12.7,56.5,157.4,303.0,1454.0,3.0,1,
71000,1863.9,12.9,56.5,144.2,260.0,1235.0,4.0,1,
71100,1854.1,18.4,49.5,82.0,278.0,1326.0,4.0,1,
71200,1862.8,9.1,31.8,72.3,278.0,1326.0,4.0,1,
71300,1860.9,7.7,31.8,71.6,278.0,1326.0,4.0,1,
71400,1860.6,8.9,31.8,66.5,278.0,1326.0,4.0,1,
71600,1858.0,8.5,31.7,70.8,278.0,1326.0,4.0,1,
71700,1858.4,8.2,31.8,145.8,278.0,1326.0,4.0,1,
71800,1859.5,8.2,31.7,117.0,278.0,1326.0,4.0,1,
71900,1859.1,7.8,31.7,108.5,278.0,1326.0,4.0,1,
72000,1860.5,8.2,31.7,112.5,278.0,1326.0,4.0,1,
72100,1859.5,8.0,31.7,133.5,278.0,1326.0,4.0,1,
72200,1853.7,35.1,30.5,164.4,165.0,732.0,5.0,1,
72300,1869.7,94.1,32.6,110.8,167.0,1015.0,5.0,1,
72400,1852.2,33.9,37.1,94.2,260.0,1356.0,4.0,1,
72600,1862.8,96.2,38.2,70.6,301.0,1404.0,3.0,1,
72700,1861.4,21.4,51.1,48.6,260.0,1144.0,4.0,1,
72800,1855.9,8.8,51.2,50.4,278.0,1269.0,4.0,1,
72900,1854.9,9.6,51.2,42.4,278.0,1269.0,4.0,1,
73000,1858.4,7.2,51.2,43.4,278.0,1269.0,4.0,1,
73100,1863.4,8.5,51.2,48.0,278.0,1269.0,4.0,1,
73200,1860.2,8.3,51.2,70.6,278.0,1269.0,4.0,1,
73300,1859.6,8.1,51.2,146.1,278.0,1269.0,4.0,1,
73400,1857.9,7.9,51.2,155.4,278.0,1269.0,4.0,1,
73600,1859.5,8.5,51.2,136.2,278.0,1269.0,4.0,1,
73700,1858.7,8.0,51.2,144.9,278.0,1269.0,4.0,1,
73800,1859.8,27.5,51.2,177.9,172.0,842.0,4.0,1,
73900,1866.7,20.4,52.2,100.6,177.0,953.0,5.0,1,
74000,1847.1,17.5,50.8,90.6,209.0,1101.0,4.0,1,
74100,1863.0,27.0,44.9,188.9,305.0,1494.0,4.0,1,
74200,1869.5,11.3,46.0,164.2,242.0,1174.0,4.0,1,
74300,1853.3,24.9,34.9,71.3,207.0,1028.0,4.0,1,
74400,1851.9,16.5,33.0,56.8,274.0,1327.0,3.0,1,
74600,1858.9,7.6,36.4,115.1,274.0,1327.0,3.0,1,
74700,1860.9,8.4,36.4,87.0,274.0,1327.0,3.0,1,
74800,1860.3,8.5,36.4,44.4,274.0,1327.0,3.0,1,
74900,1858.4,9.0,36.4,78.0,274.0,1327.0,3.0,1,
75000,1858.2,8.0,36.4,165.3,274.0,1327.0,3.0,1,
75100,1859.6,8.1,36.4,178.5,274.0,1327.0,3.0,1,
75200,1859.0,8.4,36.4,238.2,274.0,1327.0,3.0,1,
75300,1859.7,8.5,36.4,190.2,274.0,1327.0,3.0,1,
75400,1859.4,44.4,36.4,142.9,154.0,857.0,5.0,1,
75600,1854.7,30.7,41.0,35.2,231.0,1171.0,4.0,1,
75700,1864.6,35.8,41.7,41.5,219.0,1056.0,4.0,1,
75800,1866.2,87.6,43.2,72.5,257.0,1271.0,4.0,1,
75900,1850.2,21.6,45.8,229.0,231.0,1143.0,4.0,1,
76000,1861.3,8.9,42.9,90.7,199.0,932.0,3.0,1,
76100,1865.2,8.6,40.1,46.9,199.0,932.0,3.0,1,
76200,1860.0,8.4,40.1,45.8,199.0,932.0,3.0,1,
76300,1859.3,7.9,40.1,56.0,199.0,932.0,3.0,1,
76400,1860.0,8.7,40.1,81.3,199.0,932.0,3.0,1,
76600,1859.1,8.0,40.1,153.9,199.0,932.0,3.0,1,
76700,1859.2,8.1,40.1,211.1,199.0,932.0,3.0,1,
76800,1859.3,8.3,40.1,201.5,199.0,932.0,3.0,1,
76900,1860.2,7.4,40.1,200.8,199.0,932.0,3.0,1,
77000,1859.5,13.1,40.1,200.2,145.0,802.0,5.0,1,
77100,1870.5,66.8,33.2,199.0,191.0,1000.0,5.0,1,
77200,1861.7,26.0,40.4,34.5,198.0,915.0,4.0,1,
77300,1856.8,14.5,42.1,34.3,263.0,1434.0,4.0,1,
77400,1863.8,14.5,42.2,37.8,255.0,1211.0,4.0,1,
77600,1857.2,8.7,38.8,112.6,286.0,1255.0,4.0,1,
77700,1869.7,9.2,38.8,152.6,286.0,1255.0,4.0,1,
77800,1860.3,7.9,38.8,73.9,286.0,1255.0,4.0,1,
77900,1858.4,7.7,38.8,65.5,286.0,1255.0,4.0,1,
78000,1863.1,8.1,38.8,57.4,286.0,1255.0,4.0,1,
78100,1858.8,8.1,38.8,147.6,286.0,1255.0,4.0,1,
78200,1859.0,8.2,38.8,199.7,286.0,1255.0,4.0,1,
78300,1859.8,8.1,38.8,169.7,286.0,1255.0,4.0,1,
78400,1859.4,7.4,38.8,177.4,286.0,1255.0,4.0,1,
78600,1860.3,29.7,38.8,214.9,286.0,1255.0,4.0,1,
78700,1868.1,41.8,40.7,177.1,183.0,724.0,2.0,0,
78800,1851.1,28.6,35.4,123.8,224.0,1220.0,4.0,1,
78900,1858.2,10.8,29.8,107.1,293.0,1384.0,4.0,1,
79000,1864.4,55.6,29.8,79.5,308.0,1446.0,3.0,1,
79100,1862.0,21.5,32.2,66.6,260.0,1160.0,4.0,1,
79200,1851.3,115.8,32.5,51.0,273.0,1272.0,4.0,1,
79300,1864.6,12.7,43.6,43.9,324.0,1364.0,3.0,1,
79400,1861.2,8.1,44.2,46.4,324.0,1364.0,3.0,1,
79600,1864.0,6.5,44.2,30.0,324.0,1364.0,3.0,1,
79700,1858.5,7.2,44.2,34.2,324.0,1364.0,3.0,1,
79800,1858.7,7.3,44.2,55.0,324.0,1364.0,3.0,1,
79900,1858.9,6.5,44.2,228.2,324.0,1364.0,3.0,1,
80000,1859.4,7.1,44.2,184.4,324.0,1364.0,3.0,1,
80100,1859.4,6.6,44.2,166.9,324.0,1364.0,3.0,1,
80200,1859.7,6.6,44.1,185.3,324.0,1364.0,3.0,1,
80300,1858.9,104.0,44.1,215.9,182.0,1112.0,5.0,1,
80400,1856.7,23.5,51.6,217.4,180.0,865.0,4.0,1,
80600,1870.3,11.7,52.6,43.0,333.0,1547.0,4.0,1,
80700,1857.1,16.1,50.5,44.5,293.0,1363.0,4.0,1,
80800,1848.1,47.0,49.9,55.9,331.0,1358.0,4.0,1,
80900,1869.3,8.9,54.1,56.8,316.0,1332.0,4.0,1,
81000,1853.3,7.1,45.1,53.0,316.0,1332.0,4.0,1,
81100,1859.5,6.7,45.1,47.6,316.0,1332.0,4.0,1,
81200,1861.7,8.1,45.1,52.7,316.0,1332.0,4.0,1,
81300,1860.2,7.3,45.1,67.2,316.0,1332.0,4.0,1,
81400,1859.5,7.0,45.1,164.8,316.0,1332.0,4.0,1,
81600,1859.9,7.1,45.1,158.3,316.0,1332.0,4.0,1,
81700,1858.9,6.1,45.1,150.7,316.0,1332.0,4.0,1,
81800,1859.8,6.9,45.1,164.2,316.0,1332.0,4.0,1,
81900,1859.5,12.3,45.1,178.6,200.0,1025.0,2.0,0,
82000,1849.7,17.2,41.5,187.6,209.0,1311.0,5.0,1,
82100,1866.3,43.4,33.0,93.4,250.0,1115.0,4.0,1,
82200,1863.6,42.8,35.8,89.4,270.0,1352.0,3.0,1,
82300,1858.2,15.2,39.1,110.4,288.0,1295.0,4.0,1,
82400,1848.4,33.0,38.9,142.8,235.0,1135.0,4.0,1,
82600,1865.3,9.2,43.6,72.6,235.0,1135.0,4.0,1,
82700,1859.3,9.2,43.7,102.9,235.0,1135.0,4.0,1,
82800,1860.7,8.2,43.7,73.6,235.0,1135.0,4.0,1,
82900,1861.8,8.2,43.7,37.9,235.0,1135.0,4.0,1,
83000,1857.9,9.3,43.7,37.7,235.0,1135.0,4.0,1,
83100,1858.3,8.5,43.7,175.9,235.0,1135.0,4.0,1,
83200,1858.7,8.7,43.7,170.6,235.0,1135.0,4.0,1,
83300,1858.7,9.2,43.7,139.6,235.0,1135.0,4.0,1,
83400,1859.4,8.3,43.7,155.1,235.0,1135.0,4.0,1,
83600,1870.5,13.4,54.7,39.6,185.0,744.0,5.0,1,
83700,1852.2,43.0,54.7,34.4,247.0,1276.0,4.0,1,
83800,1865.9,14.9,56.2,36.0,261.0,1372.0,5.0,1,
83900,1857.0,14.8,50.1,43.2,234.0,1180.0,4.0,1,
84000,1861.4,25.2,50.2,83.4,241.0,1144.0,4.0,1,
84100,1862.2,8.0,49.4,82.9,203.0,1011.0,4.0,1,
84200,1858.3,9.6,42.7,77.6,203.0,1011.0,4.0,1,
84300,1859.7,8.8,42.7,76.9,203.0,1011.0,4.0,1,
84400,1858.5,7.4,42.7,76.4,203.0,1011.0,4.0,1,
84600,1859.3,8.6,42.7,107.6,203.0,1011.0,4.0,1,
84700,1858.9,7.6,42.7,115.7,203.0,1011.0,4.0,1,
84800,1858.5,8.7,42.7,151.3,203.0,1011.0,4.0,1,
84900,1859.6,8.1,42.7,133.5,203.0,1011.0,4.0,1,
85000,1860.0,7.3,42.7,133.0,203.0,1011.0,4.0,1,
85100,1859.1,6.4,42.7,143.8,203.0,1011.0,4.0,1,
85200,1867.1,20.1,26.6,140.3,208.0,1025.0,5.0,1,
85300,1852.4,37.9,27.0,91.1,216.0,1061.0,4.0,1,
85400,1867.1,12.4,31.1,80.8,290.0,1485.0,4.0,1,
85600,1851.4,29.5,37.2,87.6,256.0,1179.0,4.0,1,
85700,1856.3,42.2,41.4,56.4,310.0,1478.0,3.0,1,
85800,1867.4,8.9,44.3,29.8,310.0,1478.0,3.0,1,
85900,1860.7,8.4,44.3,40.1,310.0,1478.0,3.0,1,
86000,1857.3,8.1,44.3,55.2,310.0,1478.0,3.0,1,
86100,1862.4,7.8,44.3,67.4,310.0,1478.0,3.0,1,
86200,1859.6,7.4,44.3,69.2,310.0,1478.0,3.0,1,
86300,1859.1,8.3,44.3,123.7,310.0,1478.0,3.0,1,
86400,1859.7,7.6,44.3,124.1,310.0,1478.0,3.0,1,
86600,1859.3,8.4,44.3,169.2,310.0,1478.0,3.0,1,
86700,1859.6,7.9,44.3,132.2,310.0,1478.0,3.0,1,
86800,1859.5,13.3,44.3,149.0,175.0,720.0,5.0,1,
86900,1851.8,32.7,44.2,122.2,217.0,1171.0,4.0,1,
87000,1866.5,12.9,43.7,123.1,268.0,1231.0,4.0,1,
87100,1863.3,134.1,43.5,132.1,250.0,1114.0,4.0,1,
87200,1846.7,26.5,54.3,124.5,276.0,1312.0,4.0,1,
87300,1861.2,8.7,43.9,57.0,233.0,1130.0,4.0,1,
87400,1868.2,8.3,42.7,38.7,238.0,1185.0,4.0,1,
87600,1858.8,8.7,41.0,46.9,238.0,1185.0,4.0,1,
87700,1859.5,7.6,41.0,53.1,238.0,1185.0,4.0,1,
87800,1860.3,8.6,41.0,101.7,238.0,1185.0,4.0,1,
87900,1859.0,7.3,41.0,110.3,238.0,1185.0,4.0,1,
88000,1859.3,7.7,41.0,132.6,238.0,1185.0,4.0,1,
88100,1859.4,8.1,41.0,146.2,238.0,1185.0,4.0,1,
88200,1859.5,7.3,41.0,135.4,238.0,1185.0,4.0,1,
88300,1859.7,7.4,41.0,170.2,238.0,1185.0,4.0,1,
88400,1859.4,33.3,41.0,239.5,172.0,1025.0,2.0,0,
88600,1855.8,45.0,39.7,29.7,210.0,1134.0,4.0,1,
88700,1863.2,18.6,42.2,44.5,257.0,1337.0,4.0,1,
88800,1854.0,16.7,42.3,57.6,230.0,1170.0,4.0,1,
88900,1856.3,55.4,25.6,71.0,244.0,1231.0,3.0,1,
89000,1871.7,12.2,32.2,70.9,252.0,1123.0,4.0,1,
89100,1848.3,8.8,32.6,81.8,252.0,1123.0,4.0,1,
89200,1859.3,7.7,32.6,124.6,252.0,1123.0,4.0,1,
89300,1859.1,8.2,32.6,152.6,252.0,1123.0,4.0,1,
89400,1861.7,7.3,32.6,172.2,252.0,1123.0,4.0,1,
89600,1858.9,8.1,32.6,170.8,252.0,1123.0,4.0,1,
89700,1859.8,7.2,32.6,147.8,252.0,1123.0,4.0,1,
89800,1859.4,7.2,32.6,146.1,252.0,1123.0,4.0,1,
89900,1859.5,8.1,32.6,177.8,252.0,1123.0,4.0,1,
90000,1859.4,67.8,32.6,178.1,130.0,804.0,2.0,0,
90100,1856.5,19.4,35.9,85.9,185.0,785.0,5.0,1,
90200,1859.1,34.6,34.9,38.1,260.0,1246.0,4.0,1,
90300,1860.8,19.2,37.5,44.2,200.0,1119.0,4.0,1,
90400,1861.8,18.8,34.8,66.5,263.0,1255.0,4.0,1,
90600,1864.3,27.0,33.7,87.0,240.0,1198.0,3.0,1,
90700,1855.8,8.9,33.3,88.8,240.0,1198.0,3.0,1,
90800,1859.2,8.4,33.2,143.4,240.0,1198.0,3.0,1,
90900,1860.2,7.5,33.2,105.3,240.0,1198.0,3.0,1,
91000,1860.9,7.0,33.2,72.3,240.0,1198.0,3.0,1,
91100,1860.2,8.4,33.3,75.9,240.0,1198.0,3.0,1,
91200,1859.2,7.6,33.2,173.8,240.0,1198.0,3.0,1,
91300,1859.5,7.5,33.2,188.5,240.0,1198.0,3.0,1,
91400,1858.3,8.4,33.3,210.8,240.0,1198.0,3.0,1,
91600,1859.9,93.1,33.2,187.2,240.0,1198.0,3.0,1,
91700,1863.7,20.6,42.2,45.2,188.0,906.0,5.0,1,
91800,1864.1,11.0,39.6,35.6,273.0,1246.0,4.0,1,
91900,1864.1,43.4,37.6,39.7,201.0,1008.0,4.0,1,
92000,1857.5,11.4,40.4,44.2,224.0,784.0,4.0,1,
92100,1846.9,34.6,40.0,46.0,199.0,1050.0,4.0,1,
92200,1867.7,15.2,42.0,43.7,203.0,999.0,5.0,1,
92300,1856.3,8.7,38.3,75.5,205.0,930.0,4.0,1,
92400,1859.9,8.0,38.3,236.7,205.0,930.0,4.0,1,
92600,1862.0,8.5,38.3,208.7,205.0,930.0,4.0,1,
92700,1857.9,7.0,38.3,84.2,205.0,930.0,4.0,1,
92800,1858.5,7.6,38.3,141.4,205.0,930.0,4.0,1,
92900,1857.2,8.6,38.3,175.3,205.0,930.0,4.0,1,
93000,1859.5,7.2,38.3,135.2,205.0,930.0,4.0,1,
93100,1859.9,7.2,38.3,122.3,205.0,930.0,4.0,1,
93200,1859.0,8.0,38.3,140.0,205.0,930.0,4.0,1,
93300,1859.3,14.8,37.3,178.1,245.0,950.0,5.0,1,
93400,1867.1,37.1,28.4,132.4,248.0,1118.0,4.0,1,
93600,1854.3,55.7,25.9,103.4,208.0,854.0,3.0,1,
93700,1854.3,24.3,43.6,143.7,188.0,666.0,8.0,1,
93800,1860.8,13.2,43.3,76.4,184.0,797.0,4.0,1,
93900,1872.6,8.1,42.9,44.2,165.0,761.0,4.0,1,
94000,1857.0,7.7,42.9,54.0,165.0,761.0,4.0,1,
94100,1859.1,7.9,42.9,133.2,165.0,761.0,4.0,1,
94200,1862.9,7.5,42.9,125.5,165.0,761.0,4.0,1,
94300,1858.1,7.9,42.9,98.7,165.0,761.0,4.0,1,
94400,1857.2,7.8,42.9,156.7,165.0,761.0,4.0,1,
94600,1858.9,6.7,42.8,186.0,165.0,761.0,4.0,1,
94700,1859.3,7.6,42.8,178.6,165.0,761.0,4.0,1,
94800,1860.1,6.7,42.8,155.8,165.0,761.0,4.0,1,
94900,1860.5,15.6,42.8,156.5,186.0,717.0,5.0,1,
95000,1855.4,35.0,41.0,113.0,226.0,869.0,4.0,1,
95100,1873.7,15.0,42.8,66.3,221.0,1044.0,5.0,1,
95200,1853.7,12.9,41.2,83.8,185.0,619.0,4.0,1,
95300,1860.4,28.3,19.0,90.1,207.0,830.0,8.0,1,
95400,1860.8,16.6,21.9,89.9,191.0,621.0,8.0,1,
95600,1857.1,9.0,30.7,113.1,191.0,621.0,8.0,1,
95700,1859.2,7.5,30.7,71.3,191.0,621.0,8.0,1,
95800,1861.0,8.0,30.7,35.5,191.0,621.0,8.0,1,
95900,1856.8,7.9,30.7,35.2,191.0,621.0,8.0,1,
96000,1857.8,7.2,30.7,47.8,191.0,621.0,8.0,1,
96100,1858.4,7.1,30.7,177.6,191.0,621.0,8.0,1,
96200,1858.0,8.2,30.7,166.4,191.0,621.0,8.0,1,
96300,1859.4,6.6,30.7,135.5,191.0,621.0,8.0,1,
96400,1859.8,7.3,30.7,141.9,191.0,621.0,8.0,1,
96600,1850.7,42.5,44.7,37.9,226.0,807.0,4.0,1,
96700,1871.9,11.2,57.8,37.5,187.0,796.0,4.0,1,
96800,1862.2,36.4,56.4,43.0,167.0,757.0,4.0,1,
96900,1849.6,17.4,61.3,45.7,151.0,598.0,8.0,1,
97000,1860.3,10.7,60.7,44.1,147.0,762.0,4.0,1,
97100,1866.0,12.1,60.8,39.2,135.0,719.0,4.0,1,
97200,1850.6,7.0,58.3,86.0,135.0,719.0,4.0,1,
97300,1859.1,6.8,58.3,227.4,135.0,719.0,4.0,1,
97400,1860.2,8.2,58.3,280.5,135.0,719.0,4.0,1,
97600,1857.5,7.2,58.3,227.6,135.0,719.0,4.0,1,
97700,1858.1,8.4,58.3,178.2,135.0,719.0,4.0,1,
97800,1860.0,7.0,58.3,165.5,135.0,719.0,4.0,1,
97900,1859.6,7.3,58.3,135.7,135.0,719.0,4.0,1,
98000,1859.0,8.0,58.3,144.7,135.0,719.0,4.0,1,
98100,1859.9,9.2,58.3,156.6,150.0,694.0,5.0,1,
98200,1852.7,69.0,48.5,178.3,238.0,796.0,4.0,1,
98300,1874.8,36.5,48.4,29.7,240.0,1020.0,4.0,1,
98400,1857.7,168.7,56.2,28.7,224.0,767.0,4.0,1,
98600,1867.0,35.5,69.7,35.3,166.0,683.0,8.0,1,
98700,1861.3,12.1,71.6,36.8,178.0,894.0,2.0,0,
98800,1852.4,7.9,71.7,35.7,178.0,894.0,2.0,0,
98900,1859.3,8.6,71.7,45.1,178.0,894.0,2.0,0,
99000,1859.5,7.4,71.7,85.6,178.0,894.0,2.0,0,
99100,1863.5,7.0,71.8,114.2,178.0,894.0,2.0,0,
99200,1858.1,8.4,71.8,131.1,178.0,894.0,2.0,0,
99300,1859.0,7.0,71.8,110.1,178.0,894.0,2.0,0,
99400,1860.1,6.9,71.8,122.7,178.0,894.0,2.0,0,
99600,1859.7,6.9,71.8,111.2,178.0,894.0,2.0,0,
99700,1860.2,7.6,71.8,158.6,178.0,894.0,2.0,0,
99800,1864.1,89.4,71.8,166.2,226.0,691.0,5.0,1,
99900,1868.9,20.3,69.0,66.5,217.0,961.0,4.0,1,
100000,1858.8,18.7,60.2,29.5,240.0,1026.0,4.0,1,
100100,1853.2,10.7,60.8,30.1,147.0,724.0,4.0,1,
100200,1861.5,38.2,44.5,44.6,175.0,892.0,4.0,1,
100300,1871.9,19.5,34.9,83.8,190.0,942.0,4.0,1,
100400,1848.8,7.5,33.2,99.1,155.0,837.0,4.0,1,
100600,1858.8,6.9,33.1,112.1,155.0,837.0,4.0,1,
100700,1860.9,7.7,33.1,112.0,155.0,837.0,4.0,1,
100800,1859.7,6.9,33.1,117.8,155.0,837.0,4.0,1,
100900,1859.4,6.6,33.1,171.3,155.0,837.0,4.0,1,
101000,1859.1,8.2,33.1,177.2,155.0,837.0,4.0,1,
101100,1859.9,6.8,33.1,148.5,155.0,837.0,4.0,1,
101200,1860.4,6.6,33.1,166.7,155.0,837.0,4.0,1,
101300,1860.3,7.6,33.1,205.9,155.0,837.0,4.0,1,
101400,1860.3,94.8,33.1,189.0,189.0,842.0,4.0,1,
101600,1855.0,16.4,32.1,30.1,234.0,1052.0,4.0,1,
101700,1858.8,25.4,31.9,36.2,194.0,1066.0,4.0,1,
101800,1859.1,10.9,34.3,49.5,163.0,864.0,4.0,1,
101900,1862.3,84.7,33.6,108.5,209.0,1128.0,4.0,1,
102000,1854.8,11.4,48.0,133.5,210.0,982.0,4.0,1,
102100,1864.3,7.1,48.0,46.8,210.0,982.0,4.0,1,
102200,1859.2,7.9,48.0,39.0,210.0,982.0,4.0,1,
102300,1859.3,6.6,47.9,42.8,210.0,982.0,4.0,1,
102400,1861.9,6.7,48.0,46.4,210.0,982.0,4.0,1,
102600,1858.9,6.8,48.0,114.4,210.0,982.0,4.0,1,
102700,1859.7,6.8,47.9,149.2,210.0,982.0,4.0,1,
102800,1859.0,7.5,47.9,178.4,210.0,982.0,4.0,1,
102900,1859.7,6.9,47.9,170.0,210.0,982.0,4.0,1,
103000,1860.3,25.3,47.9,169.4,152.0,717.0,5.0,1,
103100,1865.2,34.3,49.0,171.6,229.0,1113.0,4.0,1,
103200,1865.4,39.7,45.3,154.3,220.0,889.0,5.0,1,
103300,1848.5,19.0,44.4,150.3,157.0,746.0,4.0,1,
103400,1856.0,12.3,44.3,111.2,176.0,925.0,4.0,1,
103600,1853.4,12.4,29.6,89.1,159.0,770.0,4.0,1,
103700,1866.1,7.8,27.1,89.7,159.0,770.0,4.0,1,
103800,1860.1,7.6,27.1,115.2,159.0,770.0,4.0,1,
103900,1858.5,6.8,27.1,133.3,159.0,770.0,4.0,1,
104000,1860.5,7.8,27.1,134.0,159.0,770.0,4.0,1,
104100,1860.0,6.9,27.1,132.9,159.0,770.0,4.0,1,
104200,1859.3,6.8,27.1,132.5,159.0,770.0,4.0,1,
104300,1858.8,7.8,27.1,148.6,159.0,770.0,4.0,1,
104400,1860.2,7.1,27.1,130.4,159.0,770.0,4.0,1,
104600,1859.0,29.7,27.1,196.9,159.0,770.0,4.0,1,
104700,1859.8,14.5,28.2,149.4,191.0,617.0,4.0,1,
104800,1866.2,107.4,28.2,136.3,207.0,852.0,5.0,1,
104900,1847.5,23.4,35.9,130.2,169.0,836.0,4.0,1,
105000,1859.3,9.1,34.7,73.1,145.0,692.0,4.0,1,
105100,1864.5,38.0,34.7,41.8,164.0,866.0,3.0,1,
105200,1865.7,17.1,36.9,46.8,138.0,684.0,4.0,1,
105300,1853.2,8.2,37.7,76.8,138.0,684.0,4.0,1,
105400,1860.1,7.6,37.7,89.3,138.0,684.0,4.0,1,
105600,1861.2,7.1,37.7,123.2,138.0,684.0,4.0,1,
105700,1858.8,6.7,37.7,134.5,138.0,684.0,4.0,1,
105800,1858.0,7.7,37.7,177.3,138.0,684.0,4.0,1,
105900,1859.2,6.7,37.7,175.5,138.0,684.0,4.0,1,
106000,1859.9,6.8,37.7,175.0,138.0,684.0,4.0,1,
106100,1858.6,7.4,37.7,187.1,138.0,684.0,4.0,1,
106200,1860.0,5.3,37.7,133.1,138.0,684.0,4.0,1,
106300,1856.3,10.7,35.6,117.8,220.0,715.0,4.0,1,
106400,1870.5,17.8,35.5,103.1,192.0,871.0,5.0,1,
106600,1862.3,29.0,26.9,214.4,149.0,769.0,4.0,1,
106700,1872.7,10.0,29.0,186.4,137.0,751.0,8.0,1,
106800,1852.9,47.4,25.9,147.0,171.0,825.0,7.0,1,
106900,1856.9,9.4,34.5,140.0,132.0,840.0,2.0,0,
107000,1859.3,8.6,34.6,69.2,132.0,840.0,2.0,0,
107100,1858.9,7.0,34.6,36.0,132.0,840.0,2.0,0,
107200,1860.6,6.9,34.6,35.3,132.0,840.0,2.0,0,
107300,1857.3,7.9,34.5,37.2,132.0,840.0,2.0,0,
107400,1859.2,6.7,34.5,101.3,132.0,840.0,2.0,0,
107600,1859.2,7.9,34.5,150.8,132.0,840.0,2.0,0,
107700,1859.8,6.6,34.5,125.1,132.0,840.0,2.0,0,
107800,1860.5,6.2,34.5,133.3,132.0,840.0,2.0,0,
107900,1860.0,14.7,34.6,143.2,192.0,771.0,4.0,1,
108000,1866.9,95.1,35.2,101.6,170.0,767.0,4.0,1,
108100,1867.1,70.8,50.1,99.1,142.0,623.0,7.0,1,
108200,1856.3,32.7,55.8,70.9,164.0,657.0,8.0,1,
108300,1872.5,16.6,56.9,39.5,145.0,772.0,2.0,0,
108400,1857.9,18.1,55.8,30.2,174.0,620.0,8.0,1,
108600,1864.5,7.3,51.5,172.2,174.0,620.0,8.0,1,
108700,1859.1,7.5,51.5,279.7,174.0,620.0,8.0,1,
108800,1856.9,7.9,51.4,262.5,174.0,620.0,8.0,1,
108900,1858.3,7.0,51.4,90.0,174.0,620.0,8.0,1,
109000,1858.1,6.6,51.4,108.5,174.0,620.0,8.0,1,
109100,1858.2,7.9,51.4,177.5,174.0,620.0,8.0,1,
109200,1859.6,7.4,51.4,137.2,174.0,620.0,8.0,1,
109300,1860.0,6.9,51.4,122.8,174.0,620.0,8.0,1,
109400,1859.0,7.8,51.4,133.3,174.0,620.0,8.0,1,
109600,1877.0,18.0,53.0,150.3,166.0,631.0,9.0,1,
109700,1856.0,48.2,40.3,138.9,148.0,627.0,7.0,1,
109800,1854.6,31.0,35.3,138.6,139.0,761.0,7.0,1,
109900,1873.4,13.1,37.4,80.6,161.0,665.0,7.0,1,
110000,1857.3,59.5,35.5,39.8,145.0,740.0,8.0,1,
110100,1858.3,16.7,38.2,77.8,143.0,694.0,7.0,1,
110200,1861.9,7.9,43.6,100.8,143.0,694.0,7.0,1,
110300,1857.9,8.5,43.6,29.5,143.0,694.0,7.0,1,
110400,1856.0,8.4,43.6,29.3,143.0,694.0,7.0,1,
110600,1855.7,8.8,43.5,45.1,143.0,694.0,7.0,1,
110700,1857.6,7.4,43.5,143.6,143.0,694.0,7.0,1,
110800,1858.1,7.0,43.5,166.4,143.0,694.0,7.0,1,
110900,1858.2,9.0,43.5,172.9,143.0,694.0,7.0,1,
111000,1858.0,8.0,43.5,155.1,143.0,694.0,7.0,1,
111100,1858.0,15.3,43.5,146.9,186.0,747.0,5.0,1,
111200,1858.5,27.0,43.4,140.9,141.0,637.0,4.0,1,
111300,1865.4,18.2,43.1,66.7,136.0,693.0,8.0,1,
111400,1847.4,11.1,36.9,57.3,178.0,627.0,8.0,1,
111600,1871.8,13.5,36.4,138.3,178.0,653.0,8.0,1,
111700,1853.7,59.0,36.4,152.0,179.0,751.0,7.0,1,
111800,1859.6,11.1,41.0,137.1,179.0,751.0,7.0,1,
111900,1860.2,9.1,41.1,46.6,179.0,751.0,7.0,1,
112000,1856.7,9.1,41.1,34.7,179.0,751.0,7.0,1,
112100,1854.2,9.1,41.1,34.3,179.0,751.0,7.0,1,
112200,1856.0,8.9,41.1,35.9,179.0,751.0,7.0,1,
112300,1856.9,10.3,41.1,183.8,179.0,751.0,7.0,1,
112400,1857.3,10.6,41.1,178.0,179.0,751.0,7.0,1,
112600,1858.8,7.5,41.2,146.0,179.0,751.0,7.0,1,
112700,1857.9,35.6,41.2,135.3,179.0,751.0,7.0,1,
112800,1862.1,11.7,43.5,122.5,212.0,636.0,2.0,0,
112900,1855.9,19.3,41.8,144.7,164.0,712.0,8.0,1,
113000,1859.6,28.3,40.6,139.3,158.0,750.0,8.0,1,
113100,1860.6,11.5,43.2,108.2,175.0,716.0,7.0,1,
113200,1866.3,46.7,43.2,93.7,172.0,695.0,8.0,1,
113300,1856.0,21.4,45.9,115.8,170.0,730.0,7.0,1,
113400,1858.1,8.6,32.2,92.1,197.0,724.0,8.0,1,
113600,1856.0,8.4,32.2,131.3,197.0,724.0,8.0,1,
113700,1858.0,8.6,32.2,149.2,197.0,724.0,8.0,1,
113800,1857.1,7.7,32.2,143.4,197.0,724.0,8.0,1,
113900,1857.0,8.2,32.2,99.3,197.0,724.0,8.0,1,
114000,1857.9,8.2,32.2,135.2,197.0,724.0,8.0,1,
114100,1858.3,7.5,32.1,151.0,197.0,724.0,8.0,1,
114200,1857.6,8.6,32.1,148.5,197.0,724.0,8.0,1,
114300,1858.3,9.9,32.1,138.8,197.0,724.0,8.0,1,
114400,1858.0,12.2,32.1,145.7,239.0,910.0,4.0,1,
114600,1857.3,12.8,30.8,36.9,186.0,638.0,8.0,1,
114700,1861.2,14.7,26.9,29.5,153.0,700.0,7.0,1,
114800,1866.3,115.6,26.9,29.4,194.0,655.0,8.0,1,
114900,1852.3,91.7,44.2,34.6,202.0,755.0,7.0,1,
115000,1863.0,13.5,53.3,41.8,160.0,762.0,8.0,1,
115100,1856.3,10.9,53.3,35.1,160.0,762.0,8.0,1,
115200,1856.7,11.8,53.3,29.1,160.0,762.0,8.0,1,
115300,1853.6,9.8,53.3,29.5,160.0,762.0,8.0,1,
115400,1854.6,9.0,53.3,35.8,160.0,762.0,8.0,1,
115600,1857.8,8.3,53.3,152.3,160.0,762.0,8.0,1,
115700,1857.6,9.9,53.3,151.4,160.0,762.0,8.0,1,
115800,1858.0,9.0,53.3,141.8,160.0,762.0,8.0,1,
115900,1858.7,8.4,53.4,152.4,160.0,762.0,8.0,1,
116000,1858.1,17.0,53.4,158.7,211.0,670.0,2.0,0,
116100,1857.8,12.1,53.2,152.9,160.0,677.0,9.0,1,
116200,1855.6,18.7,53.0,67.5,165.0,715.0,8.0,1,
116300,1868.6,45.4,52.5,43.6,171.0,760.0,7.0,1,
116400,1866.2,60.5,63.2,29.0,182.0,740.0,8.0,1,
116600,1859.7,11.3,46.7,28.1,160.0,749.0,8.0,1,
116700,1852.9,10.7,46.1,36.1,160.0,749.0,8.0,1,
116800,1857.6,10.5,46.1,43.7,160.0,749.0,8.0,1,
116900,1855.4,10.8,46.1,107.1,160.0,749.0,8.0,1,
117000,1854.9,10.5,46.1,132.3,160.0,749.0,8.0,1,
117100,1856.4,9.7,46.1,199.2,160.0,749.0,8.0,1,
117200,1857.3,10.4,46.2,197.0,160.0,749.0,8.0,1,
117300,1858.2,9.1,46.2,166.1,160.0,749.0,8.0,1,
117400,1857.6,8.7,46.2,185.3,160.0,749.0,8.0,1,
117600,1858.1,18.9,46.1,182.8,219.0,1156.0,5.0,1,
117700,1858.9,16.0,46.3,149.8,183.0,501.0,8.0,1,
117800,1859.3,34.4,46.4,66.9,192.0,715.0,8.0,1,
117900,1870.2,21.9,58.6,29.0,149.0,734.0,7.0,1,
118000,1864.2,14.2,49.9,28.5,210.0,714.0,8.0,1,
118100,1848.6,25.6,51.1,28.6,150.0,741.0,7.0,1,
118200,1870.1,46.7,45.4,42.0,157.0,650.0,7.0,1,
118300,1851.3,9.8,55.6,132.5,157.0,650.0,7.0,1,
118400,1857.8,9.0,55.5,56.3,157.0,650.0,7.0,1,
118600,1855.6,7.0,55.5,35.1,157.0,650.0,7.0,1,
118700,1856.6,8.7,55.5,36.9,157.0,650.0,7.0,1,
118800,1857.5,7.7,55.5,149.0,157.0,650.0,7.0,1,
118900,1858.9,7.5,55.5,178.5,157.0,650.0,7.0,1,
119000,1857.4,8.6,55.5,208.1,157.0,650.0,7.0,1,
119100,1857.9,7.6,55.4,167.1,157.0,650.0,7.0,1,
119200,1858.5,9.4,55.4,151.7,157.0,650.0,7.0,1,
119300,1854.3,56.7,55.3,168.2,197.0,698.0,8.0,1,
119400,1866.3,19.6,58.3,65.9,167.0,598.0,8.0,1,
119600,1855.0,14.1,42.1,34.7,191.0,694.0,7.0,1,
119700,1857.9,13.7,40.6,35.3,172.0,720.0,7.0,1,
119800,1864.5,16.5,40.6,29.9,157.0,742.0,7.0,1,
119900,1851.6,9.1,22.2,28.3,157.0,742.0,7.0,1,
120000,1859.2,8.2,22.2,28.0,157.0,742.0,7.0,1,
120100,1856.7,9.0,22.2,45.2,157.0,742.0,7.0,1,
120200,1854.7,8.6,22.2,89.6,157.0,742.0,7.0,1,
120300,1856.3,7.3,22.2,148.5,157.0,742.0,7.0,1,
120400,1857.9,7.4,22.2,186.3,157.0,742.0,7.0,1,
120600,1859.2,7.5,22.2,133.7,157.0,742.0,7.0,1,
120700,1858.9,7.4,22.2,155.2,157.0,742.0,7.0,1,
120800,1857.5,10.7,22.2,189.4,157.0,742.0,7.0,1,
120900,1870.0,12.4,22.2,154.8,190.0,641.0,5.0,1,
121000,1857.7,7.1,10.9,99.0,169.0,690.0,8.0,1,
121100,1867.5,132.0,10.5,47.0,142.0,822.0,8.0,1,
121200,1851.9,17.2,48.5,36.6,159.0,619.0,8.0,1,
121300,1854.2,47.4,48.4,36.0,178.0,818.0,8.0,1,
121400,1872.4,22.1,50.3,36.0,170.0,741.0,8.0,1,
121600,1857.9,10.7,52.6,29.0,170.0,741.0,8.0,1,
121700,1856.0,9.0,52.6,29.4,170.0,741.0,8.0,1,
121800,1860.3,8.4,52.7,35.0,170.0,741.0,8.0,1,
121900,1858.5,7.1,52.7,79.0,170.0,741.0,8.0,1,
122000,1858.2,8.7,52.7,155.9,170.0,741.0,8.0,1,
122100,1857.6,7.7,52.7,142.8,170.0,741.0,8.0,1,
122200,1858.5,7.4,52.7,141.2,170.0,741.0,8.0,1,
122300,1858.0,8.5,52.7,147.9,170.0,741.0,8.0,1,
122400,1859.2,7.7,52.7,153.7,170.0,741.0,8.0,1,
122600,1866.3,43.7,52.8,124.8,155.0,691.0,8.0,1,
122700,1859.9,12.5,57.8,29.6,182.0,723.0,2.0,0,
122800,1857.4,88.2,46.2,29.5,133.0,732.0,7.0,1,
122900,1853.4,46.9,51.4,37.0,190.0,626.0,8.0,1,
123000,1868.8,10.8,56.3,40.4,174.0,788.0,8.0,1,
123100,1851.8,10.6,52.4,36.1,196.0,808.0,8.0,1,
123200,1863.2,9.0,52.5,44.5,196.0,808.0,8.0,1,
123300,1857.7,8.6,52.5,85.5,196.0,808.0,8.0,1,
123400,1856.5,10.2,52.4,106.1,196.0,808.0,8.0,1,
123600,1856.4,7.3,52.4,130.8,196.0,808.0,8.0,1,
123700,1857.3,7.5,52.4,164.3,196.0,808.0,8.0,1,
123800,1857.8,8.8,52.4,171.2,196.0,808.0,8.0,1,
123900,1858.9,7.5,52.4,137.9,196.0,808.0,8.0,1,
124000,1858.5,7.5,52.4,152.2,196.0,808.0,8.0,1,
124100,1857.8,26.9,52.4,166.4,218.0,779.0,5.0,1,
124200,1865.9,13.8,53.8,163.7,133.0,643.0,8.0,1,
124300,1868.4,30.4,48.2,157.5,145.0,678.0,8.0,1,
124400,1847.6,9.0,51.2,137.4,206.0,747.0,8.0,1,
124600,1863.4,18.2,28.6,34.8,164.0,649.0,8.0,1,
124700,1850.4,12.0,28.5,36.9,166.0,629.0,8.0,1,
124800,1869.4,9.6,28.4,144.1,166.0,629.0,8.0,1,
124900,1858.3,8.4,28.4,148.5,166.0,629.0,8.0,1,
125000,1856.5,9.9,28.5,141.7,166.0,629.0,8.0,1,
125100,1854.1,8.0,28.4,99.5,166.0,629.0,8.0,1,
125200,1856.4,7.4,28.4,182.9,166.0,629.0,8.0,1,
125300,1857.7,8.6,28.4,208.1,166.0,629.0,8.0,1,
125400,1858.0,7.8,28.4,155.2,166.0,629.0,8.0,1,
125600,1857.4,7.8,28.4,166.2,166.0,629.0,8.0,1,
125700,1858.8,15.8,28.4,176.9,219.0,902.0,5.0,1,
125800,1867.8,26.1,26.0,177.9,143.0,576.0,4.0,1,
125900,1861.5,10.3,26.5,51.4,159.0,655.0,9.0,1,
126000,1849.0,25.2,20.8,66.8,192.0,756.0,8.0,1,
126100,1869.8,38.9,23.4,114.7,192.0,718.0,8.0,1,
126200,1859.4,13.5,33.1,136.7,150.0,758.0,8.0,1,
126300,1862.2,19.7,33.9,102.8,162.0,681.0,8.0,1,
126400,1862.0,7.6,35.5,73.4,162.0,681.0,8.0,1,
126600,1857.1,8.6,35.5,235.8,162.0,681.0,8.0,1,
126700,1855.5,8.4,35.5,269.7,162.0,681.0,8.0,1,
126800,1855.6,8.8,35.5,261.6,162.0,681.0,8.0,1,
126900,1857.1,7.6,35.5,131.7,162.0,681.0,8.0,1,
127000,1857.9,7.5,35.5,165.3,162.0,681.0,8.0,1,
127100,1857.8,8.4,35.5,171.0,162.0,681.0,8.0,1,
127200,1858.6,6.9,35.5,114.0,162.0,681.0,8.0,1,
127300,1858.5,15.5,35.5,146.4,162.0,681.0,8.0,1,
127400,1859.8,61.7,35.6,169.7,184.0,672.0,4.0,1,
127600,1853.3,29.5,49.2,28.5,181.0,658.0,8.0,1,
127700,1864.9,14.1,52.9,28.8,138.0,740.0,7.0,1,
127800,1865.3,152.4,47.6,36.7,161.0,630.0,8.0,1,
127900,1849.9,16.8,66.8,45.6,174.0,667.0,8.0,1,
128000,1861.3,9.2,66.9,37.1,157.0,683.0,8.0,1,
128100,1858.0,8.3,66.9,35.5,157.0,683.0,8.0,1,
128200,1857.1,9.4,66.9,35.6,157.0,683.0,8.0,1,
128300,1853.8,8.7,66.9,35.3,157.0,683.0,8.0,1,
128400,1855.0,6.8,66.9,41.6,157.0,683.0,8.0,1,
128600,1857.2,8.1,66.9,177.7,157.0,683.0,8.0,1,
128700,1858.1,7.6,66.9,158.1,157.0,683.0,8.0,1,
128800,1858.5,7.5,66.9,177.3,157.0,683.0,8.0,1,
128900,1857.5,8.1,66.9,177.2,157.0,683.0,8.0,1,
129000,1857.8,14.3,66.9,140.8,223.0,836.0,5.0,1,
129100,1851.9,19.6,56.2,102.2,155.0,699.0,9.0,1,
129200,1861.5,18.4,56.8,39.3,180.0,712.0,8.0,1,
129300,1862.7,12.9,52.5,29.5,158.0,734.0,7.0,1,
129400,1864.3,123.3,52.4,28.8,182.0,760.0,8.0,1,
129600,1862.8,9.0,37.3,85.3,152.0,748.0,8.0,1,
129700,1853.4,8.3,37.2,42.3,152.0,748.0,8.0,1,
129800,1857.1,9.5,37.2,37.1,152.0,748.0,8.0,1,
129900,1854.5,7.8,37.2,36.0,152.0,748.0,8.0,1,
130000,1856.2,8.1,37.2,75.4,152.0,748.0,8.0,1,
130100,1856.3,8.1,37.3,130.8,152.0,748.0,8.0,1,
130200,1857.9,7.6,37.3,125.6,152.0,748.0,8.0,1,
130300,1858.2,8.2,37.3,167.0,152.0,748.0,8.0,1,
130400,1857.6,8.4,37.3,168.0,152.0,748.0,8.0,1,
130600,1858.6,29.4,37.3,169.2,236.0,847.0,4.0,1,
130700,1864.8,21.7,37.9,101.5,203.0,576.0,9.0,1,
130800,1854.2,62.0,36.9,67.9,207.0,762.0,8.0,1,
130900,1868.1,37.1,38.9,56.7,162.0,784.0,7.0,1,
131000,1859.5,17.5,43.4,49.3,166.0,723.0,8.0,1,
131100,1855.8,21.3,41.0,47.0,190.0,707.0,8.0,1,
131200,1864.1,37.5,29.2,45.9,144.0,733.0,7.0,1,
131300,1857.2,12.7,48.7,47.1,144.0,733.0,7.0,1,
131400,1857.8,8.8,48.8,38.6,144.0,733.0,7.0,1,
131600,1854.0,9.7,48.8,30.1,144.0,733.0,7.0,1,
131700,1856.6,9.3,48.8,35.6,144.0,733.0,7.0,1,
131800,1857.1,9.2,48.8,201.7,144.0,733.0,7.0,1,
131900,1857.0,10.6,48.8,168.2,144.0,733.0,7.0,1,
132000,1857.7,9.3,48.9,134.0,144.0,733.0,7.0,1,
132100,1857.6,9.9,48.9,151.4,144.0,733.0,7.0,1,
132200,1856.7,84.4,48.9,164.7,148.0,798.0,5.0,1,
132300,1864.4,33.9,59.6,37.7,150.0,611.0,8.0,1,
132400,1857.1,23.3,60.9,34.3,162.0,806.0,8.0,1,
132600,1863.3,57.8,58.1,37.1,129.0,766.0,8.0,1,
132700,1854.5,17.8,68.0,42.3,140.0,623.0,8.0,1,
132800,1861.7,10.3,67.3,36.1,140.0,604.0,16.0,1,
132900,1858.4,8.7,55.3,36.5,140.0,604.0,16.0,1,
133000,1860.1,10.0,55.3,37.6,140.0,604.0,16.0,1,
133100,1854.3,10.3,55.3,48.6,140.0,604.0,16.0,1,
133200,1853.6,9.0,55.3,72.2,140.0,604.0,16.0,1,
133300,1855.7,8.2,55.3,111.2,140.0,604.0,16.0,1,
133400,1856.6,16.8,55.3,123.8,140.0,604.0,16.0,1,
133600,1858.2,4.3,55.4,167.3,140.0,604.0,16.0,1,
133700,1857.5,3.7,55.3,168.1,140.0,604.0,16.0,1,
133800,1858.3,21.3,55.3,168.0,140.0,604.0,16.0,1,
133900,1865.3,28.2,43.1,165.2,162.0,695.0,16.0,1,
134000,1856.5,24.6,43.1,40.1,152.0,721.0,8.0,1,
134100,1871.6,17.7,42.0,37.1,161.0,641.0,8.0,1,
134200,1863.6,13.0,46.4,34.3,126.0,604.0,8.0,1,
134300,1851.0,9.6,31.8,29.9,143.0,704.0,8.0,1,
134400,1864.6,42.3,30.2,42.6,128.0,696.0,7.0,1,
134600,1857.6,4.2,41.1,37.5,128.0,696.0,7.0,1,
134700,1858.3,6.2,41.1,29.6,128.0,696.0,7.0,1,
134800,1855.1,6.1,41.0,29.8,128.0,696.0,7.0,1,
134900,1855.0,4.6,41.0,35.9,128.0,696.0,7.0,1,
135000,1857.1,3.7,40.9,94.6,128.0,696.0,7.0,1,
135100,1858.2,4.6,40.9,101.6,128.0,696.0,7.0,1,
135200,1857.3,4.4,40.6,113.8,128.0,696.0,7.0,1,
135300,1857.6,3.9,40.6,102.3,128.0,696.0,7.0,1,
135400,1857.7,4.0,40.6,113.0,128.0,696.0,7.0,1,
135600,1864.0,70.3,38.1,99.7,155.0,683.0,9.0,1,
135700,1867.4,38.3,41.9,66.3,148.0,701.0,8.0,1,
135800,1856.8,11.1,40.7,35.5,117.0,656.0,8.0,1,
135900,1854.2,27.0,39.1,34.5,136.0,685.0,8.0,1,
136000,1869.6,38.3,41.0,35.3,146.0,749.0,4.0,1,
136100,1865.6,8.4,44.1,45.4,123.0,742.0,4.0,1,
136200,1854.6,5.3,44.1,47.0,123.0,742.0,4.0,1,
136300,1857.6,5.4,44.1,37.4,123.0,742.0,4.0,1,
136400,1855.7,5.0,44.1,35.5,123.0,742.0,4.0,1,
136600,1858.1,4.0,44.2,99.0,123.0,742.0,4.0,1,
136700,1858.4,3.9,44.2,112.3,123.0,742.0,4.0,1,
136800,1859.3,3.1,44.2,110.8,123.0,742.0,4.0,1,
136900,1858.8,4.1,44.3,109.7,123.0,742.0,4.0,1,
137000,1858.3,2.9,44.3,109.3,123.0,742.0,4.0,1,
137100,1859.2,84.6,44.3,110.0,268.0,921.0,4.0,1,
137200,1855.0,46.1,58.5,34.5,225.0,606.0,9.0,1,
137300,1872.6,14.4,63.4,34.6,219.0,719.0,9.0,1,
137400,1852.7,18.3,58.2,36.1,196.0,677.0,8.0,1,
137600,1869.8,18.5,57.9,115.1,186.0,775.0,7.0,1,
137700,1865.7,9.0,48.2,211.0,175.0,789.0,7.0,1,
137800,1855.9,4.7,49.2,229.3,175.0,789.0,7.0,1,
137900,1858.2,6.6,49.2,246.9,175.0,789.0,7.0,1,
138000,1854.5,5.3,49.2,249.3,175.0,789.0,7.0,1,
138100,1856.0,5.0,49.2,246.0,175.0,789.0,7.0,1,
138200,1856.8,5.2,49.2,150.7,175.0,789.0,7.0,1,
138300,1858.2,7.8,49.2,98.8,175.0,789.0,7.0,1,
138400,1858.8,8.3,49.2,91.0,175.0,789.0,7.0,1,
138600,1858.6,8.3,49.3,80.9,175.0,789.0,7.0,1,
138700,1858.2,20.4,49.3,154.1,258.0,977.0,4.0,1,
138800,1851.9,12.9,31.4,108.4,259.0,831.0,4.0,1,
138900,1870.2,47.8,22.5,28.6,202.0,722.0,8.0,1,
139000,1861.9,19.3,32.6,29.0,206.0,669.0,8.0,1,
139100,1852.1,145.4,32.8,29.8,213.0,851.0,7.0,1,
139200,1865.8,31.0,48.7,39.0,193.0,796.0,7.0,1,
139300,1858.6,17.5,50.9,66.0,192.0,751.0,8.0,1,
139400,1850.7,9.7,51.5,35.7,192.0,751.0,8.0,1,
139600,1857.6,10.0,51.6,105.6,192.0,751.0,8.0,1,
139700,1853.1,9.6,51.6,146.0,192.0,751.0,8.0,1,
139800,1855.1,7.9,51.7,146.4,192.0,751.0,8.0,1,
139900,1857.1,8.2,51.7,211.9,192.0,751.0,8.0,1,
140000,1857.6,8.4,51.7,219.1,192.0,751.0,8.0,1,
140100,1857.6,6.9,51.7,183.3,192.0,751.0,8.0,1,
140200,1858.0,7.5,51.7,185.3,192.0,751.0,8.0,1,
140300,1857.6,109.5,51.6,170.6,192.0,751.0,8.0,1,
140400,1855.3,39.2,61.5,38.9,214.0,718.0,17.0,1,
140600,1857.3,16.2,63.3,35.7,196.0,772.0,8.0,1,
140700,1853.0,25.9,62.0,40.0,160.0,738.0,8.0,1,
140800,1870.6,19.7,63.1,48.8,167.0,733.0,8.0,1,
140900,1852.4,19.5,50.1,42.2,158.0,741.0,8.0,1,
141000,1856.2,8.4,49.1,144.9,158.0,741.0,8.0,1,
141100,1858.8,9.1,49.1,150.4,158.0,741.0,8.0,1,
141200,1856.1,9.4,49.1,46.9,158.0,741.0,8.0,1,
141300,1855.8,8.0,49.1,35.5,158.0,741.0,8.0,1,
141400,1856.1,8.4,49.1,78.5,158.0,741.0,8.0,1,
141600,1857.2,7.7,49.1,134.3,158.0,741.0,8.0,1,
141700,1857.9,8.1,49.1,165.8,158.0,741.0,8.0,1,
141800,1857.8,8.8,49.1,166.7,158.0,741.0,8.0,1,
141900,1858.5,7.9,49.1,143.4,158.0,741.0,8.0,1,
142000,1858.6,43.0,43.8,150.4,210.0,865.0,4.0,1,
142100,1863.8,12.0,47.9,30.2,214.0,770.0,9.0,1,
142200,1858.5,19.7,37.9,29.9,171.0,774.0,7.0,1,
142300,1855.1,17.7,38.1,34.2,204.0,790.0,8.0,1,
142400,1868.0,19.3,37.9,34.7,162.0,807.0,7.0,1,
142600,1852.5,17.6,50.0,30.0,187.0,917.0,7.0,1,
142700,1855.0,9.3,52.4,27.9,187.0,917.0,7.0,1,
142800,1856.5,8.5,52.4,28.1,187.0,917.0,7.0,1,
142900,1855.2,8.4,52.4,28.5,187.0,917.0,7.0,1,
143000,1855.9,8.9,52.4,29.4,187.0,917.0,7.0,1,
143100,1857.3,8.0,52.4,39.8,187.0,917.0,7.0,1,
143200,1858.0,7.9,52.4,186.9,187.0,917.0,7.0,1,
143300,1857.8,8.7,52.4,147.9,187.0,917.0,7.0,1,
143400,1858.0,8.1,52.4,138.1,187.0,917.0,7.0,1,
143600,1858.1,13.2,52.4,134.7,234.0,910.0,4.0,1,
143700,1868.0,53.1,40.5,124.4,222.0,665.0,9.0,1,
143800,1855.4,19.5,44.8,49.5,201.0,859.0,8.0,1,
143900,1862.3,15.3,44.7,39.4,182.0,785.0,8.0,1,
144000,1865.7,19.3,44.8,38.0,191.0,818.0,8.0,1,
144100,1857.5,10.5,44.7,36.5,192.0,801.0,8.0,1,
144200,1851.3,9.0,43.8,30.2,161.0,765.0,7.0,1,
144300,1862.3,8.1,22.4,29.6,161.0,765.0,7.0,1,
144400,1857.0,9.0,22.3,29.3,161.0,765.0,7.0,1,
144600,1856.3,7.5,22.3,69.0,161.0,765.0,7.0,1,
144700,1858.1,8.2,22.3,136.7,161.0,765.0,7.0,1,
144800,1857.4,8.2,22.3,132.8,161.0,765.0,7.0,1,
144900,1858.8,7.8,22.3,116.6,161.0,765.0,7.0,1,
145000,1859.2,7.6,22.3,151.2,161.0,765.0,7.0,1,
145100,1858.2,8.6,22.3,154.6,161.0,765.0,7.0,1,
145200,1859.6,17.8,22.4,116.3,219.0,916.0,4.0,1,
145300,1869.1,82.6,22.4,102.2,217.0,683.0,8.0,1,
145400,1863.1,61.4,35.1,37.3,170.0,833.0,7.0,1,
145600,1869.2,8.9,41.5,26.9,167.0,795.0,8.0,1,
145700,1854.0,51.5,41.5,29.1,161.0,683.0,7.0,1,
145800,1851.9,22.4,52.5,75.6,170.0,785.0,8.0,1,
145900,1864.1,10.2,58.9,51.1,170.0,785.0,8.0,1,
146000,1857.3,10.6,58.9,35.8,170.0,785.0,8.0,1,
146100,1855.7,8.8,59.0,35.9,170.0,785.0,8.0,1,
146200,1857.7,8.7,59.0,36.1,170.0,785.0,8.0,1,
146300,1858.3,9.3,59.0,56.2,170.0,785.0,8.0,1,
146400,1859.6,8.3,59.1,130.7,170.0,785.0,8.0,1,
146600,1859.5,8.9,59.1,154.3,170.0,785.0,8.0,1,
146700,1860.2,8.2,59.1,143.4,170.0,785.0,8.0,1,
146800,1859.6,14.6,59.2,169.2,249.0,1026.0,5.0,1,
146900,1874.3,25.5,59.2,158.2,210.0,846.0,5.0,1,
147000,1849.5,21.5,52.1,69.4,207.0,740.0,8.0,1,
147100,1862.5,8.7,48.1,68.5,193.0,824.0,8.0,1,
147200,1869.6,22.5,48.2,130.1,183.0,652.0,8.0,1,
147300,1858.9,14.5,50.0,136.9,212.0,710.0,8.0,1,
147400,1861.5,13.4,40.2,85.8,193.0,763.0,8.0,1,
147600,1859.7,8.2,29.3,131.8,193.0,763.0,8.0,1,
147700,1855.7,8.2,29.3,146.9,193.0,763.0,8.0,1,
147800,1856.7,8.3,29.2,116.3,193.0,763.0,8.0,1,
147900,1858.8,7.5,29.2,132.1,193.0,763.0,8.0,1,
148000,1859.9,7.6,29.2,165.4,193.0,763.0,8.0,1,
148100,1859.5,8.0,29.2,167.2,193.0,763.0,8.0,1,
148200,1860.0,7.5,29.1,153.1,193.0,763.0,8.0,1,
148300,1860.2,7.8,29.1,155.4,193.0,763.0,8.0,1,
148400,1859.9,11.7,29.1,200.4,193.0,763.0,8.0,1,
148600,1853.7,26.7,37.0,52.2,189.0,783.0,8.0,1,
148700,1865.0,13.4,36.8,38.9,211.0,738.0,8.0,1,
148800,1868.3,85.2,36.8,47.9,179.0,717.0,7.0,1,
148900,1861.7,24.8,48.4,84.6,185.0,670.0,8.0,1,
149000,1855.2,28.1,48.8,39.1,192.0,853.0,8.0,1,
149100,1869.0,8.3,50.0,35.9,192.0,853.0,8.0,1,
149200,1858.2,9.2,50.0,46.1,192.0,853.0,8.0,1,
149300,1856.2,8.6,50.0,154.4,192.0,853.0,8.0,1,
149400,1856.3,7.2,50.0,271.1,192.0,853.0,8.0,1,
149600,1858.4,8.3,50.0,146.1,192.0,853.0,8.0,1,
149700,1860.0,7.4,50.0,125.5,192.0,853.0,8.0,1,
149800,1860.2,7.6,50.0,140.1,192.0,853.0,8.0,1,
149900,1859.8,8.1,50.0,141.5,192.0,853.0,8.0,1,
150000,1860.6,7.4,50.0,145.9,192.0,853.0,8.0,1,
150100,1860.2,121.1,50.0,165.7,259.0,1011.0,5.0,1,
150200,1855.6,15.1,62.4,102.5,209.0,815.0,9.0,1,
150300,1866.2,37.0,56.2,72.5,192.0,734.0,8.0,1,
150400,1868.7,19.3,58.0,39.5,208.0,752.0,8.0,1,
150600,1858.3,17.3,45.2,109.7,149.0,691.0,7.0,1,
150700,1872.0,9.4,45.2,140.2,193.0,783.0,8.0,1,
150800,1852.3,8.5,43.8,45.3,193.0,783.0,8.0,1,
150900,1857.2,8.0,43.7,35.3,193.0,783.0,8.0,1,
151000,1856.2,8.4,43.7,46.2,193.0,783.0,8.0,1,
151100,1856.6,7.9,43.7,130.3,193.0,783.0,8.0,1,
151200,1859.2,7.3,43.7,163.1,193.0,783.0,8.0,1,
151300,1859.6,7.2,43.7,166.8,193.0,783.0,8.0,1,
151400,1859.2,7.8,43.7,183.1,193.0,783.0,8.0,1,
151600,1860.5,7.3,43.7,177.3,193.0,783.0,8.0,1,
151700,1859.8,16.8,43.7,197.5,230.0,900.0,5.0,1,
151800,1858.9,46.6,35.6,109.2,182.0,644.0,8.0,1,
151900,1856.4,34.3,28.3,65.5,220.0,669.0,8.0,1,
152000,1872.1,7.7,46.9,37.1,170.0,720.0,8.0,1,
152100,1859.7,18.7,45.5,35.3,187.0,689.0,8.0,1,
152200,1856.4,11.9,44.8,34.7,188.0,735.0,8.0,1,
152300,1864.0,8.6,44.8,38.2,160.0,730.0,8.0,1,
152400,1853.0,6.1,44.8,266.3,160.0,730.0,8.0,1,
152600,1856.0,7.7,44.8,136.5,160.0,730.0,8.0,1,
152700,1857.2,6.0,44.7,83.3,160.0,730.0,8.0,1,
152800,1859.6,6.6,44.7,116.3,160.0,730.0,8.0,1,
152900,1859.1,7.0,44.7,134.6,160.0,730.0,8.0,1,
153000,1859.9,6.1,44.7,130.1,160.0,730.0,8.0,1,
153100,1860.3,6.4,44.7,164.9,160.0,730.0,8.0,1,
153200,1859.7,6.5,44.7,146.3,160.0,730.0,8.0,1,
153300,1860.4,16.8,44.7,117.9,205.0,863.0,2.0,0,
153400,1862.7,16.0,44.7,109.5,218.0,581.0,9.0,1,
153600,1864.9,31.9,20.1,142.6,166.0,695.0,8.0,1,
153700,1851.5,59.0,21.8,151.7,168.0,708.0,8.0,1,
153800,1863.6,133.4,28.7,136.8,165.0,694.0,8.0,1,
153900,1866.4,21.0,48.4,100.5,145.0,717.0,8.0,1,
154000,1858.6,7.4,51.6,49.9,145.0,717.0,8.0,1,
154100,1859.7,7.9,51.6,30.0,145.0,717.0,8.0,1,
154200,1855.8,6.2,51.6,29.2,145.0,717.0,8.0,1,
154300,1858.7,7.2,51.6,29.6,145.0,717.0,8.0,1,
154400,1858.4,6.9,51.6,39.0,145.0,717.0,8.0,1,
154600,1859.8,6.3,51.6,134.4,145.0,717.0,8.0,1,
154700,1859.7,7.1,51.6,125.3,145.0,717.0,8.0,1,
154800,1860.4,6.2,51.6,123.3,145.0,717.0,8.0,1,
154900,1860.7,7.4,51.6,125.0,145.0,717.0,8.0,1,
155000,1866.7,22.0,51.6,117.9,244.0,867.0,18.0,1,
155100,1859.7,22.0,51.6,140.4,196.0,747.0,8.0,1,
155200,1871.1,36.0,60.6,90.5,194.0,756.0,8.0,1,
155300,1858.1,13.8,61.7,52.6,170.0,718.0,8.0,1,
155400,1856.5,29.0,60.2,37.6,201.0,788.0,8.0,1,
155600,1858.9,6.0,50.2,44.1,177.0,757.0,8.0,1,
155700,1859.8,5.3,50.2,76.6,177.0,757.0,8.0,1,
155800,1856.7,6.4,50.2,38.9,177.0,757.0,8.0,1,
155900,1857.7,6.8,50.2,35.5,177.0,757.0,8.0,1,
156000,1859.2,5.9,50.2,35.7,177.0,757.0,8.0,1,
156100,1859.7,6.3,50.2,99.8,177.0,757.0,8.0,1,
156200,1859.5,6.8,50.2,132.7,177.0,757.0,8.0,1,
156300,1860.4,5.8,50.2,135.2,177.0,757.0,8.0,1,
156400,1860.5,6.3,50.2,149.2,177.0,757.0,8.0,1,
156600,1861.0,14.0,50.2,139.4,205.0,752.0,15.0,1,
156700,1864.3,23.5,48.1,108.9,163.0,697.0,8.0,1,
156800,1867.8,47.5,35.9,65.6,192.0,709.0,8.0,1,
156900,1860.1,11.6,39.0,48.1,161.0,742.0,8.0,1,
157000,1852.8,28.3,39.0,30.1,171.0,701.0,8.0,1,
157100,1869.0,40.2,40.7,29.8,163.0,745.0,8.0,1,
157200,1867.0,7.8,41.3,37.6,170.0,706.0,8.0,1,
157300,1857.3,5.7,41.4,46.8,170.0,706.0,8.0,1,
157400,1857.0,4.2,41.4,36.8,170.0,706.0,8.0,1,
157600,1860.0,4.4,41.4,34.3,170.0,706.0,8.0,1,
157700,1859.8,3.8,41.4,89.6,170.0,706.0,8.0,1,
157800,1860.2,3.4,41.3,116.2,170.0,706.0,8.0,1,
157900,1860.2,3.9,41.3,150.8,170.0,706.0,8.0,1,
158000,1859.6,3.6,41.3,138.1,170.0,706.0,8.0,1,
158100,1860.6,3.3,41.2,134.9,170.0,706.0,8.0,1,
158200,1860.5,59.8,41.2,164.1,198.0,773.0,4.0,1,
158300,1856.0,18.4,47.7,39.2,193.0,719.0,8.0,1,
158400,1874.6,10.0,48.4,34.6,181.0,808.0,9.0,1,
158600,1854.4,18.8,56.5,35.3,184.0,745.0,8.0,1,
158700,1869.6,12.3,57.8,34.5,146.0,717.0,7.0,1,
158800,1866.0,17.4,48.1,35.3,173.0,708.0,7.0,1,
158900,1855.8,5.5,51.5,35.4,173.0,708.0,7.0,1,
159000,1858.6,4.8,51.5,30.0,173.0,708.0,7.0,1,
159100,1856.8,4.3,51.5,29.5,173.0,708.0,7.0,1,
159200,1858.3,3.7,51.5,29.9,173.0,708.0,7.0,1,
159300,1859.3,3.6,51.5,38.3,173.0,708.0,7.0,1,
159400,1859.8,4.3,51.5,165.2,173.0,708.0,7.0,1,
159600,1860.1,3.9,51.5,131.1,173.0,708.0,7.0,1,
159700,1860.3,4.0,51.5,102.5,173.0,708.0,7.0,1,
159800,1860.0,51.4,51.4,122.2,219.0,742.0,4.0,1,
159900,1851.7,26.7,52.2,37.7,192.0,739.0,8.0,1,
160000,1870.6,17.8,60.4,36.6,213.0,821.0,8.0,1,
160100,1862.8,58.6,60.4,36.6,179.0,691.0,8.0,1,
160200,1853.1,18.7,52.3,36.1,178.0,690.0,8.0,1,
160300,1866.9,17.5,51.1,35.2,156.0,770.0,7.0,1,
160400,1864.5,11.0,51.1,36.6,168.0,743.0,8.0,1,
160600,1859.1,6.5,49.2,124.4,168.0,743.0,8.0,1,
160700,1854.8,4.8,49.2,145.1,168.0,743.0,8.0,1,
160800,1857.8,4.1,49.2,146.0,168.0,743.0,8.0,1,
160900,1859.1,4.6,49.2,138.8,168.0,743.0,8.0,1,
161000,1859.3,3.6,49.2,133.6,168.0,743.0,8.0,1,
161100,1859.7,4.0,49.2,165.5,168.0,743.0,8.0,1,
161200,1860.3,4.8,49.2,165.2,168.0,743.0,8.0,1,
161300,1859.6,3.7,49.2,156.7,168.0,743.0,8.0,1,
161400,1860.2,7.1,49.2,153.3,168.0,743.0,8.0,1,
161600,1866.3,10.5,42.3,29.2,220.0,741.0,8.0,1,
161700,1867.5,106.0,42.3,29.5,173.0,696.0,8.0,1,
161800,1854.8,12.9,47.3,29.8,164.0,676.0,8.0,1,
161900,1863.6,10.6,43.9,30.0,137.0,707.0,7.0,1,
162000,1863.8,105.6,43.9,30.0,146.0,705.0,7.0,1,
162100,1855.3,9.5,58.6,34.6,146.0,705.0,7.0,1,
162200,1860.7,6.1,58.6,43.5,146.0,705.0,7.0,1,
162300,1856.3,4.3,58.6,37.2,146.0,705.0,7.0,1,
162400,1857.8,3.9,58.6,35.0,146.0,705.0,7.0,1,
162600,1859.7,3.8,58.6,130.3,146.0,705.0,7.0,1,
162700,1859.3,3.9,58.6,134.5,146.0,705.0,7.0,1,
162800,1859.7,3.9,58.6,175.9,146.0,705.0,7.0,1,
162900,1860.0,4.0,58.6,158.0,146.0,705.0,7.0,1,
163000,1860.4,4.3,58.6,155.2,146.0,705.0,7.0,1,
163100,1863.7,82.6,58.6,134.9,235.0,797.0,9.0,1,
163200,1863.5,21.8,53.2,51.9,238.0,719.0,8.0,1,
163300,1868.2,15.9,55.4,29.4,173.0,722.0,8.0,1,
163400,1853.7,32.2,57.0,34.4,192.0,729.0,8.0,1,
163600,1868.0,13.4,55.8,117.0,161.0,716.0,8.0,1,
163700,1855.5,4.1,42.6,76.8,145.0,697.0,7.0,1,
163800,1857.9,5.2,38.2,35.6,145.0,697.0,7.0,1,
163900,1857.1,4.9,38.1,34.9,145.0,697.0,7.0,1,
164000,1856.7,3.6,38.1,35.7,145.0,697.0,7.0,1,
164100,1858.6,3.1,38.1,101.8,145.0,697.0,7.0,1,
164200,1858.9,3.2,38.1,111.6,145.0,697.0,7.0,1,
164300,1858.6,3.4,38.1,110.3,145.0,697.0,7.0,1,
164400,1859.9,3.2,38.1,115.9,145.0,697.0,7.0,1,
164600,1859.6,3.0,38.1,113.3,145.0,697.0,7.0,1,
164700,1859.8,37.9,38.1,101.3,231.0,787.0,4.0,1,
164800,1869.5,14.2,38.5,79.8,204.0,697.0,8.0,1,
164900,1865.9,15.7,28.5,30.1,200.0,787.0,9.0,1,
165000,1852.9,87.0,27.8,92.8,188.0,681.0,7.0,1,
165100,1862.6,31.7,43.7,137.0,155.0,714.0,7.0,1,
165200,1870.8,16.8,44.9,102.9,173.0,785.0,8.0,1,
165300,1856.6,5.4,44.8,44.0,172.0,758.0,8.0,1,
165400,1862.8,5.5,44.8,37.3,172.0,758.0,8.0,1,
165600,1857.7,2.8,44.9,36.3,172.0,758.0,8.0,1,
165700,1859.1,3.7,44.9,107.8,172.0,758.0,8.0,1,
165800,1858.9,3.1,44.9,123.4,172.0,758.0,8.0,1,
165900,1859.8,2.6,44.9,104.7,172.0,758.0,8.0,1,
166000,1859.8,2.8,44.9,106.9,172.0,758.0,8.0,1,
166100,1859.6,2.9,44.9,125.3,172.0,758.0,8.0,1,
166200,1859.7,2.6,44.9,117.1,172.0,758.0,8.0,1,
166300,1860.0,78.0,44.9,138.6,232.0,813.0,5.0,1,
166400,1863.5,27.4,49.8,48.6,170.0,670.0,8.0,1,
166600,1854.7,20.9,48.9,35.3,182.0,693.0,8.0,1,
166700,1859.9,22.6,38.3,36.2,145.0,639.0,8.0,1,
166800,1871.7,19.4,38.4,89.0,158.0,729.0,8.0,1,
166900,1854.0,11.2,38.4,82.7,170.0,723.0,8.0,1,
167000,1864.4,4.6,39.9,39.0,170.0,723.0,8.0,1,
167100,1859.2,4.0,39.9,75.9,170.0,723.0,8.0,1,
167200,1857.3,3.3,39.9,221.2,170.0,723.0,8.0,1,
167300,1858.8,3.2,39.9,235.6,170.0,723.0,8.0,1,
167400,1859.2,2.9,39.9,208.1,170.0,723.0,8.0,1,
167600,1859.5,3.1,39.9,124.8,170.0,723.0,8.0,1,
167700,1859.5,2.8,39.9,101.9,170.0,723.0,8.0,1,
167800,1860.2,2.9,39.9,108.2,170.0,723.0,8.0,1,
167900,1859.8,28.5,39.9,132.1,227.0,764.0,4.0,1,
168000,1857.1,43.3,38.0,80.9,192.0,671.0,9.0,1,
168100,1865.0,41.4,49.9,35.8,198.0,689.0,9.0,1,
168200,1856.1,18.3,61.9,34.4,184.0,758.0,8.0,1,
168300,1861.7,14.8,62.1,29.7,181.0,750.0,8.0,1,
168400,1867.8,20.2,56.9,34.8,160.0,766.0,8.0,1,
168600,1850.4,4.6,59.8,77.4,160.0,766.0,8.0,1,
168700,1860.1,5.4,59.8,74.7,160.0,766.0,8.0,1,
168800,1856.4,4.0,59.8,132.0,160.0,766.0,8.0,1,
168900,1858.7,3.3,59.8,154.4,160.0,766.0,8.0,1,
169000,1859.5,4.0,59.8,157.3,160.0,766.0,8.0,1,
169100,1859.2,3.5,59.8,125.1,160.0,766.0,8.0,1,
169200,1860.1,3.2,59.9,108.4,160.0,766.0,8.0,1,
169300,1859.8,3.4,59.9,99.1,160.0,766.0,8.0,1,
169400,1859.5,3.6,59.9,100.1,160.0,766.0,8.0,1,
169600,1855.1,38.8,59.6,109.7,212.0,707.0,4.0,1,
169700,1866.3,34.6,59.7,29.8,192.0,644.0,9.0,1,
169800,1856.3,13.6,60.1,29.2,169.0,693.0,8.0,1,
169900,1861.7,29.1,58.7,29.1,208.0,765.0,8.0,1,
170000,1868.6,76.7,59.7,29.3,158.0,755.0,7.0,1,
170100,1859.2,18.8,65.9,35.0,184.0,762.0,8.0,1,
170200,1855.5,4.5,64.9,70.3,163.0,836.0,8.0,1,
170300,1857.5,5.6,64.9,37.6,163.0,836.0,8.0,1,
170400,1856.4,4.0,64.9,35.0,163.0,836.0,8.0,1,
170600,1858.4,4.0,64.8,88.6,163.0,836.0,8.0,1,
170700,1859.4,3.3,64.8,109.3,163.0,836.0,8.0,1,
170800,1859.8,3.4,64.8,125.1,163.0,836.0,8.0,1,
170900,1859.1,3.4,64.8,104.8,163.0,836.0,8.0,1,
171000,1859.5,2.9,64.8,114.6,163.0,836.0,8.0,1,
171100,1859.5,3.3,64.8,138.7,163.0,836.0,8.0,1,
171200,1859.3,15.3,64.8,140.7,220.0,835.0,4.0,1,
171300,1868.9,41.6,52.6,98.8,217.0,685.0,8.0,1,
171400,1865.2,14.7,40.0,188.3,166.0,753.0,8.0,1,
171600,1871.9,16.2,41.6,139.4,164.0,781.0,8.0,1,
171700,1856.0,13.5,21.3,111.4,167.0,683.0,8.0,1,
171800,1849.6,5.5,21.3,154.1,141.0,712.0,7.0,1,
171900,1863.8,4.9,21.3,164.0,141.0,712.0,7.0,1,
172000,1857.9,4.3,21.3,154.7,141.0,712.0,7.0,1,
172100,1857.1,3.4,21.3,66.8,141.0,712.0,7.0,1,
172200,1859.0,3.2,21.3,68.9,141.0,712.0,7.0,1,
172300,1858.8,3.5,21.3,122.6,141.0,712.0,7.0,1,
172400,1858.8,3.2,21.3,147.1,141.0,712.0,7.0,1,
172600,1859.5,3.5,21.3,90.5,141.0,712.0,7.0,1,
172700,1859.3,3.4,21.3,102.1,141.0,712.0,7.0,1,
172800,1859.3,27.7,21.3,125.8,180.0,767.0,4.0,1,
172900,1874.8,90.3,25.0,40.9,198.0,619.0,8.0,1,
173000,1855.9,25.9,43.9,38.1,165.0,665.0,7.0,1,
173100,1857.6,26.7,43.9,29.8,197.0,743.0,8.0,1,
173200,1870.6,14.5,50.7,29.3,161.0,733.0,8.0,1,
173300,1856.5,16.4,49.3,36.8,175.0,793.0,8.0,1,
173400,1861.0,6.7,50.5,36.9,153.0,743.0,8.0,1,
173600,1858.8,4.8,50.5,172.4,153.0,743.0,8.0,1,
173700,1856.2,3.4,50.5,176.3,153.0,743.0,8.0,1,
173800,1858.7,3.5,50.5,151.0,153.0,743.0,8.0,1,
173900,1858.4,3.3,50.5,130.6,153.0,743.0,8.0,1,
174000,1859.3,3.4,50.5,133.3,153.0,743.0,8.0,1,
174100,1859.3,3.3,50.5,117.8,153.0,743.0,8.0,1,
174200,1859.2,3.8,50.5,116.7,153.0,743.0,8.0,1,
174300,1859.7,3.3,50.5,111.8,153.0,743.0,8.0,1,
174400,1859.7,37.2,50.5,133.0,237.0,844.0,5.0,1,
174600,1856.2,27.8,32.9,158.6,164.0,707.0,7.0,1,
174700,1858.1,32.8,34.4,165.7,206.0,760.0,8.0,1,
174800,1867.8,13.3,45.7,104.3,158.0,744.0,8.0,1,
174900,1861.6,100.2,45.7,36.7,160.0,690.0,8.0,1,
175000,1853.5,17.2,52.3,34.9,164.0,719.0,8.0,1,
175100,1865.9,3.9,54.7,36.9,164.0,719.0,8.0,1,
175200,1860.5,4.7,54.7,38.9,164.0,719.0,8.0,1,
175300,1856.4,4.1,54.7,35.3,164.0,719.0,8.0,1,
175400,1857.4,4.1,54.7,29.9,164.0,719.0,8.0,1,
175600,1859.4,2.8,54.7,134.7,164.0,719.0,8.0,1,
175700,1859.7,3.1,54.7,131.9,164.0,719.0,8.0,1,
175800,1860.4,3.0,54.8,125.7,164.0,719.0,8.0,1,
175900,1860.1,3.2,54.8,148.0,164.0,719.0,8.0,1,
176000,1860.1,5.0,54.8,143.2,164.0,719.0,8.0,1,
176100,1866.0,50.5,54.8,123.2,174.0,734.0,9.0,1,
176200,1853.5,22.2,59.9,34.4,176.0,682.0,9.0,1,
176300,1855.1,34.0,60.4,35.7,199.0,706.0,8.0,1,
176400,1873.8,20.0,46.7,49.2,159.0,752.0,8.0,1,
176600,1851.9,118.1,48.0,105.1,173.0,745.0,8.0,1,
176700,1865.6,8.4,50.5,103.5,171.0,636.0,7.0,1,
176800,1859.2,6.4,50.5,85.9,171.0,636.0,7.0,1,
176900,1856.4,4.2,50.5,34.7,171.0,636.0,7.0,1,
177000,1857.6,2.9,50.5,29.7,171.0,636.0,7.0,1,
177100,1859.2,3.0,50.5,30.0,171.0,636.0,7.0,1,
177200,1859.2,3.0,50.5,106.0,171.0,636.0,7.0,1,
177300,1860.0,2.7,50.5,115.3,171.0,636.0,7.0,1,
177400,1859.8,2.6,50.5,122.2,171.0,636.0,7.0,1,
177600,1860.2,2.4,50.5,115.9,171.0,636.0,7.0,1,
177700,1860.3,100.3,50.5,141.0,224.0,662.0,9.0,1,
177800,1862.1,25.0,54.9,28.0,202.0,628.0,9.0,1,
177900,1852.4,30.9,54.6,28.6,201.0,673.0,8.0,1,
178000,1871.5,68.2,55.7,35.4,144.0,647.0,7.0,1,
178100,1858.2,20.3,67.0,46.5,159.0,633.0,8.0,1,
178200,1851.8,23.0,65.9,47.8,155.0,688.0,8.0,1,
178300,1866.0,5.0,64.7,36.3,156.0,632.0,8.0,1,
178400,1855.9,4.2,57.6,35.8,156.0,632.0,8.0,1,
178600,1858.7,2.9,57.6,274.0,156.0,632.0,8.0,1,
178700,1859.0,2.7,57.6,266.4,156.0,632.0,8.0,1,
178800,1860.1,3.6,57.6,110.8,156.0,632.0,8.0,1,
178900,1859.7,4.4,57.6,157.8,156.0,632.0,8.0,1,
179000,1860.1,3.2,57.6,169.3,156.0,632.0,8.0,1,
179100,1859.8,3.2,57.6,132.2,156.0,632.0,8.0,1,
179200,1859.8,5.4,57.6,133.2,156.0,632.0,8.0,1,
179300,1859.9,22.0,57.6,143.7,227.0,727.0,2.0,0,
179400,1858.8,11.2,49.5,99.3,224.0,751.0,9.0,1,
179600,1873.4,14.4,45.7,52.8,150.0,789.0,8.0,1,
179700,1855.9,54.8,19.4,134.2,165.0,656.0,8.0,1,
179800,1861.9,22.9,28.4,151.0,176.0,730.0,8.0,1,
179900,1861.5,9.4,38.0,139.7,159.0,723.0,8.0,1,
180000,1851.4,8.2,38.1,38.1,159.0,723.0,8.0,1,
180100,1859.1,6.3,38.1,34.5,159.0,723.0,8.0,1,
180200,1858.8,3.5,38.2,29.7,159.0,723.0,8.0,1,
180300,1860.1,4.3,38.2,35.5,159.0,723.0,8.0,1,
180400,1859.4,4.0,38.2,101.2,159.0,723.0,8.0,1,
180600,1860.2,3.0,38.2,100.5,159.0,723.0,8.0,1,
180700,1859.6,3.5,38.2,125.4,159.0,723.0,8.0,1,
180800,1859.1,3.1,38.2,125.4,159.0,723.0,8.0,1,
180900,1860.4,18.1,38.2,94.1,214.0,848.0,2.0,0,
181000,1863.6,21.9,38.1,101.8,239.0,745.0,4.0,1,
181100,1858.0,20.8,39.7,109.7,181.0,640.0,8.0,1,
181200,1871.0,13.4,42.6,123.7,155.0,661.0,8.0,1,
181300,1862.5,18.6,41.6,88.0,146.0,613.0,8.0,1,
181400,1850.6,13.1,41.6,52.6,166.0,729.0,8.0,1,
181600,1858.1,5.2,25.9,278.7,166.0,729.0,8.0,1,
181700,1859.6,4.3,25.9,278.0,166.0,729.0,8.0,1,
181800,1858.3,3.1,25.8,145.6,166.0,729.0,8.0,1,
181900,1859.3,3.9,25.8,80.7,166.0,729.0,8.0,1,
182000,1858.7,3.6,25.8,100.3,166.0,729.0,8.0,1,
182100,1859.6,3.0,25.8,103.0,166.0,729.0,8.0,1,
182200,1860.1,3.7,25.8,135.4,166.0,729.0,8.0,1,
182300,1859.0,2.9,25.8,130.2,166.0,729.0,8.0,1,
182400,1860.2,3.3,25.8,116.4,166.0,729.0,8.0,1,
182600,1867.0,39.0,25.8,131.0,194.0,644.0,9.0,1,
182700,1859.6,28.2,33.2,30.0,166.0,680.0,8.0,1,
182800,1861.2,12.8,32.2,30.2,131.0,507.0,8.0,1,
182900,1864.2,99.8,32.1,44.3,111.0,621.0,8.0,1,
183000,1853.1,17.1,40.1,93.2,149.0,594.0,8.0,1,
183100,1861.5,13.9,40.1,116.2,132.0,595.0,8.0,1,
183200,1862.5,3.8,40.1,50.4,132.0,595.0,8.0,1,
183300,1859.5,3.8,40.1,37.3,132.0,595.0,8.0,1,
183400,1858.8,3.8,40.1,35.7,132.0,595.0,8.0,1,
183600,1860.0,3.1,40.1,109.9,132.0,595.0,8.0,1,
183700,1859.6,3.1,40.1,135.5,132.0,595.0,8.0,1,
183800,1859.9,2.6,40.1,152.1,132.0,595.0,8.0,1,
183900,1861.1,3.0,40.1,136.8,132.0,595.0,8.0,1,
184000,1860.6,2.7,40.1,125.8,132.0,595.0,8.0,1,
184100,1860.3,3.4,40.1,124.5,132.0,595.0,8.0,1,
184200,1868.6,63.3,40.1,131.9,180.0,660.0,5.0,1,
184300,1850.2,21.5,51.6,34.3,155.0,624.0,8.0,1,
184400,1860.8,11.7,50.5,30.3,167.0,545.0,8.0,1,
184600,1848.7,13.6,53.6,66.1,141.0,620.0,8.0,1,
184700,1863.4,31.9,48.1,47.5,158.0,661.0,8.0,1,
184800,1868.7,4.9,49.2,30.0,158.0,661.0,8.0,1,
184900,1858.1,4.0,49.2,40.1,158.0,661.0,8.0,1,
185000,1858.6,3.8,49.2,266.7,158.0,661.0,8.0,1,
185100,1860.2,2.9,49.2,268.6,158.0,661.0,8.0,1,
185200,1860.3,3.3,49.2,266.8,158.0,661.0,8.0,1,
185300,1860.0,3.0,49.2,185.9,158.0,661.0,8.0,1,
185400,1860.2,3.1,49.2,131.3,158.0,661.0,8.0,1,
185600,1859.7,3.5,49.2,178.4,158.0,661.0,8.0,1,
185700,1860.2,3.3,49.2,200.1,158.0,661.0,8.0,1,
185800,1859.6,22.4,49.2,201.4,208.0,767.0,5.0,1,
185900,1852.8,14.6,29.5,67.0,171.0,568.0,9.0,1,
186000,1863.8,11.0,25.9,27.1,198.0,729.0,8.0,1,
186100,1866.0,76.3,26.0,27.8,162.0,683.0,8.0,1,
186200,1860.9,18.6,33.7,28.3,168.0,834.0,8.0,1,
186300,1853.5,28.8,36.1,37.2,159.0,685.0,8.0,1,
186400,1871.9,10.7,37.6,46.9,154.0,674.0,8.0,1,
186600,1860.1,8.8,36.3,137.1,154.0,674.0,8.0,1,
186700,1858.6,8.0,36.3,158.5,154.0,674.0,8.0,1,
186800,1859.7,8.1,36.4,157.4,154.0,674.0,8.0,1,
186900,1859.5,8.5,36.4,176.5,154.0,674.0,8.0,1,
187000,1860.5,8.7,36.5,205.7,154.0,674.0,8.0,1,
187100,1859.6,7.4,36.5,194.4,154.0,674.0,8.0,1,
187200,1859.9,8.5,36.6,198.1,154.0,674.0,8.0,1,
187300,1860.2,8.1,36.6,197.1,154.0,674.0,8.0,1,
187400,1859.9,89.7,36.7,176.2,170.0,621.0,5.0,1,
187600,1854.6,30.6,44.3,30.3,167.0,629.0,8.0,1,
187700,1875.0,9.3,45.5,30.2,163.0,741.0,2.0,0,
187800,1859.2,22.5,35.2,35.6,154.0,654.0,8.0,1,
187900,1858.0,32.5,33.5,140.6,168.0,773.0,8.0,1,
188000,1870.8,9.2,35.9,245.1,138.0,651.0,2.0,0,
188100,1850.7,9.0,34.4,247.3,138.0,651.0,2.0,0,
188200,1860.1,8.5,34.4,155.1,138.0,651.0,2.0,0,
188300,1857.8,7.9,34.4,138.7,138.0,651.0,2.0,0,
188400,1858.9,8.0,34.4,133.7,138.0,651.0,2.0,0,
188600,1858.8,7.2,34.4,143.2,138.0,651.0,2.0,0,
188700,1859.6,8.3,34.4,175.9,138.0,651.0,2.0,0,
188800,1859.6,8.1,34.4,176.3,138.0,651.0,2.0,0,
188900,1859.7,7.1,34.3,170.9,138.0,651.0,2.0,0,
189000,1860.3,13.7,34.4,216.2,193.0,922.0,2.0,0,
189100,1865.5,61.3,32.1,174.1,206.0,519.0,8.0,1,
189200,1851.1,35.9,33.4,40.2,189.0,794.0,8.0,1,
189300,1871.1,19.1,51.4,35.5,150.0,592.0,9.0,1,
189400,1855.9,34.7,50.3,36.0,153.0,694.0,7.0,1,
189600,1867.4,16.4,56.8,35.6,164.0,713.0,8.0,1,
189700,1857.4,8.1,56.6,47.7,164.0,713.0,8.0,1,
189800,1860.1,8.1,56.6,86.9,164.0,713.0,8.0,1,
189900,1858.5,9.2,56.6,110.1,164.0,713.0,8.0,1,
190000,1858.8,9.0,56.6,124.1,164.0,713.0,8.0,1,
190100,1859.4,7.4,56.6,139.8,164.0,713.0,8.0,1,
190200,1860.0,8.8,56.6,137.1,164.0,713.0,8.0,1,
190300,1860.3,8.8,56.7,154.2,164.0,713.0,8.0,1,
190400,1859.5,7.8,56.7,153.4,164.0,713.0,8.0,1,
190600,1860.2,8.3,56.7,188.6,164.0,713.0,8.0,1,
190700,1867.9,23.9,56.7,217.1,188.0,684.0,18.0,1,
190800,1850.4,28.3,53.6,164.3,166.0,663.0,9.0,1,
190900,1871.7,12.5,38.5,152.7,185.0,710.0,2.0,0,
191000,1855.7,58.7,38.5,172.5,118.0,560.0,8.0,1,
191100,1861.7,22.4,51.3,206.1,140.0,663.0,8.0,1,
191200,1859.1,38.0,46.4,38.8,134.0,611.0,8.0,1,
191300,1869.4,9.6,59.1,34.4,129.0,521.0,8.0,1,
191400,1859.3,8.9,59.1,37.5,129.0,521.0,8.0,1,
191600,1858.2,8.4,59.1,36.2,129.0,521.0,8.0,1,
191700,1859.4,7.9,59.1,38.1,129.0,521.0,8.0,1,
191800,1860.4,8.1,59.1,186.1,129.0,521.0,8.0,1,
191900,1860.3,7.5,59.1,218.0,129.0,521.0,8.0,1,
192000,1860.6,8.0,59.1,237.8,129.0,521.0,8.0,1,
192100,1860.5,8.3,59.1,233.0,129.0,521.0,8.0,1,
192200,1860.1,7.9,59.1,215.1,129.0,521.0,8.0,1,
192300,1860.8,19.4,59.1,171.5,201.0,635.0,10.0,1,
192400,1854.8,65.1,58.7,168.6,171.0,669.0,9.0,1,
192600,1868.7,9.8,65.0,138.0,143.0,706.0,2.0,0,
192700,1856.4,35.6,52.5,52.1,125.0,560.0,7.0,1,
192800,1855.1,31.2,52.8,72.0,161.0,595.0,8.0,1,
192900,1871.2,9.5,40.4,85.7,128.0,612.0,8.0,1,
193000,1852.5,8.8,40.4,68.3,128.0,612.0,8.0,1,
193100,1858.7,8.0,40.4,106.4,128.0,612.0,8.0,1,
193200,1859.2,8.1,40.4,132.3,128.0,612.0,8.0,1,
193300,1860.0,8.2,40.4,137.0,128.0,612.0,8.0,1,
193400,1859.7,7.5,40.4,172.8,128.0,612.0,8.0,1,
193600,1860.7,7.7,40.4,215.9,128.0,612.0,8.0,1,
193700,1859.9,7.2,40.4,233.8,128.0,612.0,8.0,1,
193800,1860.3,7.9,40.4,213.1,128.0,612.0,8.0,1,
193900,1860.5,74.1,40.4,187.5,218.0,844.0,4.0,1,
194000,1863.3,18.0,44.3,57.6,198.0,604.0,9.0,1,
194100,1853.5,29.4,42.3,29.5,180.0,752.0,8.0,1,
194200,1872.9,19.4,36.0,30.1,164.0,705.0,9.0,1,
194300,1856.7,10.8,33.9,36.8,146.0,756.0,8.0,1,
194400,1853.2,21.5,30.7,142.7,159.0,652.0,8.0,1,
194600,1856.8,9.1,47.1,104.0,159.0,652.0,8.0,1,
194700,1860.6,8.4,47.1,38.4,159.0,652.0,8.0,1,
194800,1858.4,8.9,47.1,35.3,159.0,652.0,8.0,1,
194900,1859.1,7.1,47.1,30.2,159.0,652.0,8.0,1,
195000,1860.2,8.3,47.1,35.7,159.0,652.0,8.0,1,
195100,1859.9,8.3,47.1,154.8,159.0,652.0,8.0,1,
195200,1859.8,7.1,47.1,146.4,159.0,652.0,8.0,1,
195300,1860.3,8.2,47.1,142.6,159.0,652.0,8.0,1,
195400,1860.3,8.4,47.1,164.9,159.0,652.0,8.0,1,
195600,1870.1,23.7,51.4,40.5,194.0,665.0,9.0,1,
195700,1851.8,29.8,51.2,36.4,149.0,634.0,8.0,1,
195800,1870.0,48.7,52.4,40.9,148.0,661.0,8.0,1,
195900,1858.1,19.4,61.7,66.0,128.0,593.0,8.0,1,
196000,1858.0,75.4,62.7,70.7,142.0,674.0,7.0,1,
196100,1854.0,19.1,69.9,43.2,165.0,662.0,8.0,1,
196200,1867.2,8.2,60.6,41.9,165.0,662.0,8.0,1,
196300,1861.5,8.7,60.6,36.4,165.0,662.0,8.0,1,
196400,1858.8,7.2,60.6,36.1,165.0,662.0,8.0,1,
196600,1860.1,8.6,60.6,93.0,165.0,662.0,8.0,1,
196700,1859.9,7.1,60.6,122.6,165.0,662.0,8.0,1,
196800,1860.7,8.0,60.6,131.9,165.0,662.0,8.0,1,
196900,1860.8,8.6,60.6,133.2,165.0,662.0,8.0,1,
197000,1859.7,7.9,60.6,158.1,165.0,662.0,8.0,1,
197100,1860.3,8.2,60.6,164.3,165.0,662.0,8.0,1,
197200,1867.5,14.0,53.9,147.7,155.0,564.0,10.0,1,
197300,1849.2,15.6,54.0,248.0,132.0,631.0,11.0,1,
197400,1865.9,31.9,55.6,249.2,163.0,617.0,8.0,1,
197600,1859.2,22.4,54.6,146.9,138.0,583.0,8.0,1,
197700,1855.5,31.7,45.1,85.2,145.0,682.0,8.0,1,
197800,1868.6,9.9,47.4,45.4,145.0,682.0,8.0,1,
197900,1859.2,7.7,47.4,69.4,145.0,682.0,8.0,1,
198000,1859.2,8.8,47.4,100.7,145.0,682.0,8.0,1,
198100,1859.4,8.8,47.4,134.7,145.0,682.0,8.0,1,
198200,1859.3,7.3,47.4,177.7,145.0,682.0,8.0,1,
198300,1860.0,9.1,47.4,116.2,145.0,682.0,8.0,1,
198400,1859.8,8.6,47.4,155.4,145.0,682.0,8.0,1,
198600,1860.7,8.5,47.4,171.9,145.0,682.0,8.0,1,
198700,1860.7,8.7,47.4,177.6,145.0,682.0,8.0,1,
198800,1860.2,95.0,47.4,166.6,197.0,695.0,4.0,1,
198900,1853.3,18.9,55.9,44.2,208.0,671.0,9.0,1,
199000,1864.2,27.8,55.7,44.4,173.0,692.0,8.0,1,
199100,1871.4,65.1,56.5,47.5,127.0,563.0,8.0,1,
199200,1859.6,14.1,55.3,76.6,138.0,667.0,8.0,1,
199300,1852.2,23.7,55.1,50.3,116.0,569.0,8.0,1,
199400,1860.3,9.0,53.5,38.2,96.0,468.0,8.0,1,
199600,1859.4,9.3,53.4,196.6,96.0,468.0,8.0,1,
199700,1857.6,7.9,53.4,281.7,96.0,468.0,8.0,1,
199800,1859.6,8.6,53.4,272.2,96.0,468.0,8.0,1,
199900,1859.8,9.3,53.4,168.6,96.0,468.0,8.0,1,
200000,1858.9,7.5,53.4,157.8,96.0,468.0,8.0,1,
200100,1860.6,8.9,53.4,177.3,96.0,468.0,8.0,1,
200200,1859.9,9.0,53.4,158.1,96.0,468.0,8.0,1,
200300,1859.7,8.1,53.4,146.8,96.0,468.0,8.0,1,
200400,1859.8,28.2,53.4,147.3,195.0,612.0,9.0,1,
200600,1853.1,16.0,43.8,73.7,129.0,553.0,8.0,1,
200700,1866.8,20.6,43.9,105.6,136.0,556.0,8.0,1,
200800,1861.3,19.3,26.1,124.0,120.0,657.0,2.0,0,
200900,1859.8,16.9,25.7,116.6,139.0,523.0,8.0,1,
201000,1857.7,25.1,25.5,112.9,107.0,652.0,7.0,1,
201100,1859.8,9.1,35.3,130.6,107.0,652.0,7.0,1,
201200,1859.6,7.8,35.3,78.3,107.0,652.0,7.0,1,
201300,1859.1,8.5,35.3,38.6,107.0,652.0,7.0,1,
201400,1859.5,8.9,35.3,36.0,107.0,652.0,7.0,1,
201600,1860.2,8.5,35.3,156.0,107.0,652.0,7.0,1,
201700,1860.0,8.8,35.3,144.8,107.0,652.0,7.0,1,
201800,1859.7,8.2,35.3,142.7,107.0,652.0,7.0,1,
201900,1860.1,8.5,35.3,213.9,107.0,652.0,7.0,1,
202000,1859.7,32.4,35.3,220.0,191.0,866.0,4.0,1,
202100,1870.1,16.0,35.0,94.3,215.0,605.0,9.0,1,
202200,1855.4,23.9,35.0,87.7,156.0,716.0,8.0,1,
202300,1869.5,48.8,36.6,109.6,148.0,604.0,8.0,1,
202400,1867.7,10.9,41.1,154.9,120.0,593.0,2.0,0,
202600,1857.7,28.4,39.8,105.0,109.0,606.0,8.0,1,
202700,1865.8,9.0,47.1,102.7,109.0,606.0,8.0,1,
202800,1859.9,8.7,47.1,37.9,109.0,606.0,8.0,1,
202900,1858.2,8.7,47.1,34.5,109.0,606.0,8.0,1,
203000,1858.8,7.9,47.1,30.0,109.0,606.0,8.0,1,
203100,1859.5,8.6,47.1,35.9,109.0,606.0,8.0,1,
203200,1859.9,8.5,47.1,210.7,109.0,606.0,8.0,1,
203300,1859.8,8.0,47.1,185.0,109.0,606.0,8.0,1,
203400,1859.7,8.6,47.1,214.3,109.0,606.0,8.0,1,
203600,1860.1,8.8,47.1,199.3,109.0,606.0,8.0,1,
203700,1869.0,19.9,46.6,177.2,179.0,742.0,2.0,0,
203800,1849.0,22.5,46.5,168.7,160.0,581.0,8.0,1,
203900,1864.6,30.4,47.1,153.2,159.0,604.0,8.0,1,
204000,1870.2,87.8,45.8,152.6,108.0,538.0,8.0,1,
204100,1851.5,20.4,48.0,198.4,142.0,557.0,8.0,1,
204200,1861.0,13.1,48.2,144.4,102.0,556.0,4.0,1,
204300,1867.3,7.8,33.0,87.1,102.0,556.0,4.0,1,
204400,1860.3,9.0,33.0,70.6,102.0,556.0,4.0,1,
204600,1859.2,8.1,33.0,87.1,102.0,556.0,4.0,1,
204700,1859.9,8.4,33.0,135.4,102.0,556.0,4.0,1,
204800,1860.2,8.0,33.0,199.4,102.0,556.0,4.0,1,
204900,1860.3,8.2,33.0,208.4,102.0,556.0,4.0,1,
205000,1860.7,8.9,33.0,233.1,102.0,556.0,4.0,1,
205100,1860.6,7.2,33.0,236.2,102.0,556.0,4.0,1,
205200,1861.3,7.9,33.0,230.1,102.0,556.0,4.0,1,
205300,1866.0,22.9,33.0,221.6,198.0,659.0,9.0,1,
205400,1854.8,24.6,30.9,144.5,160.0,727.0,8.0,1,
205600,1866.7,119.9,30.3,130.7,140.0,774.0,8.0,1,
205700,1852.2,23.2,45.8,152.8,132.0,531.0,8.0,1,
205800,1859.3,78.1,41.4,103.2,146.0,717.0,8.0,1,
205900,1866.2,18.3,47.8,43.2,138.0,595.0,7.0,1,
206000,1859.0,9.2,54.0,41.7,138.0,595.0,7.0,1,
206100,1859.5,8.5,54.0,36.8,138.0,595.0,7.0,1,
206200,1858.6,8.7,54.0,34.3,138.0,595.0,7.0,1,
206300,1859.6,7.9,54.0,34.4,138.0,595.0,7.0,1,
206400,1860.2,8.1,54.0,41.3,138.0,595.0,7.0,1,
206600,1859.6,7.6,54.0,139.4,138.0,595.0,7.0,1,
206700,1860.4,8.5,54.0,178.7,138.0,595.0,7.0,1,
206800,1861.0,8.4,54.0,220.5,138.0,595.0,7.0,1,
206900,1860.2,47.3,53.9,197.7,233.0,843.0,2.0,0,
207000,1857.8,21.6,61.1,37.5,186.0,568.0,9.0,1,
207100,1862.6,12.5,61.0,36.7,162.0,626.0,8.0,1,
207200,1865.5,20.9,61.0,39.7,141.0,653.0,8.0,1,
207300,1861.2,13.0,57.1,86.2,131.0,636.0,8.0,1,
207400,1853.4,28.2,49.4,138.4,117.0,531.0,8.0,1,
207600,1851.1,9.3,36.8,153.2,117.0,531.0,8.0,1,
207700,1860.0,9.1,36.8,268.0,117.0,531.0,8.0,1,
207800,1858.5,8.3,36.8,303.6,117.0,531.0,8.0,1,
207900,1859.3,8.6,36.8,298.1,117.0,531.0,8.0,1,
208000,1860.3,8.9,36.8,147.7,117.0,531.0,8.0,1,
208100,1859.9,8.0,36.8,177.3,117.0,531.0,8.0,1,
208200,1860.4,8.8,36.8,168.1,117.0,531.0,8.0,1,
208300,1860.2,8.8,36.8,177.3,117.0,531.0,8.0,1,
208400,1860.2,8.1,36.8,178.7,117.0,531.0,8.0,1,
208600,1861.3,25.2,24.9,155.8,205.0,741.0,17.0,1,
208700,1856.7,25.1,24.6,67.9,171.0,520.0,8.0,1,
208800,1863.4,35.6,27.5,108.2,151.0,681.0,8.0,1,
208900,1862.3,20.7,30.6,187.0,128.0,569.0,8.0,1,
209000,1850.2,27.9,30.2,151.7,143.0,712.0,8.0,1,
209100,1867.5,14.0,32.4,125.1,111.0,597.0,7.0,1,
209200,1856.8,9.2,30.8,171.8,111.0,597.0,7.0,1,
209300,1859.5,8.8,30.8,298.0,111.0,597.0,7.0,1,
209400,1858.4,8.6,30.8,304.3,111.0,597.0,7.0,1,
209600,1859.4,8.2,30.8,177.7,111.0,597.0,7.0,1,
209700,1860.4,8.6,30.8,211.8,111.0,597.0,7.0,1,
209800,1860.1,9.1,30.8,225.7,111.0,597.0,7.0,1,
209900,1859.7,7.6,30.8,184.2,111.0,597.0,7.0,1,
210000,1860.3,8.5,30.8,200.8,111.0,597.0,7.0,1,
210100,1860.3,17.5,30.8,226.3,187.0,815.0,4.0,1,
210200,1865.5,17.3,30.7,199.6,223.0,584.0,9.0,1,
210300,1860.3,32.5,28.7,131.7,153.0,637.0,8.0,1,
210400,1869.0,22.2,28.8,188.7,158.0,642.0,8.0,1,
210600,1851.2,21.2,25.6,279.7,130.0,527.0,8.0,1,
210700,1859.2,23.3,25.2,275.7,142.0,697.0,8.0,1,
210800,1871.5,8.6,28.0,243.2,142.0,697.0,8.0,1,
210900,1860.4,8.5,28.0,241.4,142.0,697.0,8.0,1,
211000,1859.3,9.3,28.0,125.8,142.0,697.0,8.0,1,
211100,1859.1,7.7,28.0,38.1,142.0,697.0,8.0,1,
211200,1860.2,8.1,28.0,56.9,142.0,697.0,8.0,1,
211300,1860.4,8.8,28.0,216.3,142.0,697.0,8.0,1,
211400,1859.7,8.1,27.9,238.7,142.0,697.0,8.0,1,
211600,1860.3,9.1,28.0,188.4,142.0,697.0,8.0,1,
211700,1859.9,8.3,28.0,153.1,142.0,697.0,8.0,1,
211800,1869.1,24.3,28.0,177.1,157.0,775.0,5.0,1,
211900,1851.8,38.8,28.2,182.7,171.0,578.0,8.0,1,
212000,1868.4,46.9,33.3,183.8,162.0,643.0,8.0,1,
212100,1858.5,18.4,43.2,185.3,147.0,629.0,8.0,1,
212200,1860.1,19.1,43.2,132.2,171.0,724.0,8.0,1,
212300,1854.4,27.8,43.1,75.4,106.0,524.0,8.0,1,
212400,1868.3,9.9,42.3,75.6,106.0,524.0,8.0,1,
212600,1858.7,8.2,42.3,188.9,106.0,524.0,8.0,1,
212700,1858.9,8.6,42.3,155.9,106.0,524.0,8.0,1,
212800,1859.6,9.5,42.3,153.7,106.0,524.0,8.0,1,
212900,1859.7,8.3,42.3,170.3,106.0,524.0,8.0,1,
213000,1860.3,8.7,42.3,155.9,106.0,524.0,8.0,1,
213100,1860.2,8.8,42.3,171.9,106.0,524.0,8.0,1,
213200,1859.9,8.3,42.3,188.0,106.0,524.0,8.0,1,
213300,1860.3,8.9,42.3,188.3,106.0,524.0,8.0,1,
213400,1860.0,19.9,42.3,195.5,195.0,666.0,5.0,1,
213600,1870.3,16.5,41.6,170.9,144.0,520.0,8.0,1,
213700,1862.9,8.4,25.4,177.4,112.0,589.0,2.0,0,
213800,1853.4,20.9,23.4,204.6,123.0,546.0,8.0,1,
213900,1859.2,30.2,23.3,229.7,137.0,693.0,8.0,1,
214000,1866.2,11.0,26.3,251.5,141.0,626.0,8.0,1,
214100,1853.8,8.2,24.3,243.0,141.0,626.0,8.0,1,
214200,1859.8,9.1,24.3,176.5,141.0,626.0,8.0,1,
214300,1859.0,9.3,24.3,151.4,141.0,626.0,8.0,1,
214400,1859.8,8.6,24.3,147.8,141.0,626.0,8.0,1,
214600,1860.0,9.3,24.3,229.1,141.0,626.0,8.0,1,
214700,1859.7,7.9,24.3,220.0,141.0,626.0,8.0,1,
214800,1860.9,7.9,24.3,198.2,141.0,626.0,8.0,1,
214900,1860.8,9.2,24.3,239.7,141.0,626.0,8.0,1,
215000,1860.0,24.8,24.3,238.7,238.0,815.0,2.0,0,
215100,1849.5,20.7,22.0,150.7,163.0,586.0,8.0,1,
215200,1865.3,30.0,22.3,67.5,164.0,601.0,8.0,1,
215300,1866.2,125.2,25.2,232.6,124.0,570.0,8.0,1,
215400,1851.7,20.6,38.7,245.9,150.0,722.0,8.0,1,
215600,1867.0,13.0,37.0,44.2,144.0,621.0,8.0,1,
215700,1855.0,8.6,38.1,38.6,144.0,621.0,8.0,1,
215800,1860.5,9.4,38.1,110.3,144.0,621.0,8.0,1,
215900,1858.6,7.9,38.1,153.5,144.0,621.0,8.0,1,
216000,1860.0,9.2,38.1,154.7,144.0,621.0,8.0,1,
216100,1859.6,9.3,38.1,176.8,144.0,621.0,8.0,1,
216200,1859.7,7.6,38.1,176.2,144.0,621.0,8.0,1,
216300,1860.8,8.6,38.1,176.7,144.0,621.0,8.0,1,
216400,1860.7,8.7,38.1,219.9,144.0,621.0,8.0,1,
216600,1861.2,50.4,38.1,135.2,184.0,627.0,5.0,1,
216700,1860.3,30.0,40.9,77.2,205.0,696.0,4.0,1,
216800,1860.4,18.8,44.1,35.5,183.0,473.0,8.0,1,
216900,1865.0,10.1,44.2,40.9,125.0,554.0,8.0,1,
217000,1852.0,19.3,43.3,69.6,125.0,477.0,8.0,1,
217100,1858.2,32.2,33.2,135.1,136.0,684.0,8.0,1,
217200,1869.1,11.1,34.7,199.2,150.0,603.0,2.0,0,
217300,1850.8,8.4,33.2,173.3,150.0,603.0,2.0,0,
217400,1860.2,8.6,33.2,247.1,150.0,603.0,2.0,0,
217600,1859.9,8.4,33.2,281.0,150.0,603.0,2.0,0,
217700,1859.9,7.8,33.2,237.0,150.0,603.0,2.0,0,
217800,1860.9,8.7,33.2,194.6,150.0,603.0,2.0,0,
217900,1860.3,9.0,33.2,194.9,150.0,603.0,2.0,0,
218000,1859.8,7.7,33.2,218.5,150.0,603.0,2.0,0,
218100,1860.4,8.4,33.2,229.0,150.0,603.0,2.0,0,
218200,1860.4,7.2,33.2,229.0,150.0,603.0,2.0,0,
218300,1859.7,18.5,33.1,230.7,220.0,526.0,9.0,1,
218400,1866.7,29.4,22.2,67.5,191.0,634.0,8.0,1,
218600,1860.1,11.5,27.2,44.4,148.0,620.0,8.0,1,
218700,1854.8,45.7,24.0,93.5,121.0,579.0,8.0,1,
218800,1870.4,15.3,39.3,114.6,113.0,563.0,2.0,0,
218900,1857.0,8.0,38.0,38.8,121.0,486.0,8.0,1,
219000,1859.6,8.4,38.0,41.1,121.0,486.0,8.0,1,
219100,1860.0,8.3,38.0,66.2,121.0,486.0,8.0,1,
219200,1860.0,7.6,38.0,99.2,121.0,486.0,8.0,1,
219300,1860.4,8.7,38.0,75.8,121.0,486.0,8.0,1,
219400,1860.4,8.2,37.9,149.0,121.0,486.0,8.0,1,
219600,1861.2,7.8,38.0,178.0,121.0,486.0,8.0,1,
219700,1860.2,7.8,37.9,178.0,121.0,486.0,8.0,1,
219800,1861.0,6.6,37.9,140.7,121.0,486.0,8.0,1,
219900,1861.2,30.4,37.9,166.9,219.0,867.0,9.0,1,
220000,1870.3,39.5,39.6,238.2,165.0,507.0,8.0,1,
220100,1866.5,12.2,39.8,260.2,165.0,780.0,9.0,1,
220200,1854.7,25.2,38.7,232.4,159.0,643.0,8.0,1,
220300,1856.8,37.2,41.2,135.6,158.0,773.0,8.0,1,
220400,1870.3,19.2,37.4,202.5,118.0,648.0,2.0,0,
220600,1865.5,8.2,36.0,87.8,118.0,648.0,2.0,0,
220700,1860.4,7.5,36.0,88.1,118.0,648.0,2.0,0,
220800,1860.0,8.3,36.0,102.9,118.0,648.0,2.0,0,
220900,1860.2,8.2,36.0,104.8,118.0,648.0,2.0,0,
221000,1860.4,7.4,36.0,149.6,118.0,648.0,2.0,0,
221100,1860.7,8.4,35.9,166.3,118.0,648.0,2.0,0,
221200,1860.8,8.2,35.9,177.0,118.0,648.0,2.0,0,
221300,1860.1,7.5,36.0,170.3,118.0,648.0,2.0,0,
221400,1860.4,8.1,36.0,165.3,118.0,648.0,2.0,0,
221600,1856.4,30.2,34.1,136.4,160.0,771.0,9.0,1,
221700,1867.2,19.7,32.9,66.6,158.0,543.0,9.0,1,
221800,1855.8,16.8,31.7,106.1,158.0,649.0,8.0,1,
221900,1854.5,23.2,31.3,151.9,119.0,612.0,8.0,1,
222000,1863.4,32.4,23.8,254.3,124.0,747.0,8.0,1,
222100,1867.2,13.2,25.6,283.8,125.0,703.0,11.0,1,
222200,1859.3,7.2,27.3,209.8,125.0,703.0,11.0,1,
222300,1861.4,7.7,27.3,153.9,125.0,703.0,11.0,1,
222400,1860.4,8.7,27.3,219.3,125.0,703.0,11.0,1,
222600,1860.3,7.6,27.3,238.0,125.0,703.0,11.0,1,
222700,1860.7,8.3,27.3,177.1,125.0,703.0,11.0,1,
222800,1860.2,7.1,27.3,154.3,125.0,703.0,11.0,1,
222900,1860.7,7.8,27.3,135.2,125.0,703.0,11.0,1,
223000,1860.8,8.2,27.3,165.7,125.0,703.0,11.0,1,
223100,1860.7,33.2,27.3,168.6,125.0,703.0,11.0,1,
223200,1856.7,23.2,29.5,207.9,187.0,547.0,9.0,1,
223300,1870.7,17.5,29.8,208.2,182.0,656.0,9.0,1,
223400,1852.0,19.7,28.0,202.5,111.0,527.0,8.0,1,
223600,1866.3,63.2,29.4,245.9,134.0,571.0,8.0,1,
223700,1860.3,16.7,39.8,243.3,137.0,580.0,8.0,1,
223800,1852.5,9.2,39.8,154.8,137.0,580.0,8.0,1,
223900,1860.8,7.8,39.8,81.0,137.0,580.0,8.0,1,
224000,1859.8,8.0,39.8,70.0,137.0,580.0,8.0,1,
224100,1860.9,8.4,39.9,94.2,137.0,580.0,8.0,1,
224200,1859.8,8.4,39.9,124.0,137.0,580.0,8.0,1,
224300,1860.6,6.3,39.9,117.0,137.0,580.0,8.0,1,
224400,1860.9,8.1,39.9,132.9,137.0,580.0,8.0,1,
224600,1860.2,7.5,39.9,133.5,137.0,580.0,8.0,1,
224700,1860.5,6.7,39.9,133.3,137.0,580.0,8.0,1,
224800,1855.9,18.5,38.4,122.4,250.0,764.0,9.0,1,
224900,1866.7,19.2,38.1,69.0,188.0,573.0,8.0,1,
225000,1861.2,11.6,38.2,66.8,137.0,725.0,8.0,1,
225100,1851.2,37.9,38.2,74.7,171.0,636.0,8.0,1,
225200,1868.6,27.9,40.2,135.5,148.0,694.0,8.0,1,
225300,1861.2,12.2,26.7,176.9,112.0,552.0,8.0,1,
225400,1853.8,8.8,26.9,210.5,162.0,639.0,2.0,0,
225600,1860.2,7.9,27.0,131.9,162.0,639.0,2.0,0,
225700,1859.8,9.8,27.0,125.5,162.0,639.0,2.0,0,
225800,1860.1,7.1,26.9,109.8,162.0,639.0,2.0,0,
225900,1860.8,8.1,26.9,123.8,162.0,639.0,2.0,0,
226000,1860.7,8.0,26.9,122.8,162.0,639.0,2.0,0,
226100,1859.9,7.1,26.9,123.8,162.0,639.0,2.0,0,
226200,1860.7,8.4,26.9,165.1,162.0,639.0,2.0,0,
226300,1860.2,8.4,26.9,178.1,162.0,639.0,2.0,0,
226400,1860.3,23.3,26.9,145.6,186.0,630.0,9.0,1,
226600,1858.5,22.5,42.5,37.7,121.0,514.0,8.0,1,
226700,1851.8,11.6,42.6,30.3,147.0,620.0,8.0,1,
226800,1867.5,32.7,40.6,38.4,119.0,462.0,8.0,1,
226900,1860.3,17.2,43.1,43.4,138.0,720.0,9.0,1,
227000,1859.7,8.2,43.5,46.3,156.0,694.0,8.0,1,
227100,1859.1,8.1,43.5,73.9,156.0,694.0,8.0,1,
227200,1860.2,8.7,43.4,93.7,156.0,694.0,8.0,1,
227300,1858.9,7.6,43.4,125.3,156.0,694.0,8.0,1,
227400,1860.3,8.3,43.4,134.9,156.0,694.0,8.0,1,
227600,1860.4,7.3,43.4,145.6,156.0,694.0,8.0,1,
227700,1860.8,8.2,43.4,164.7,156.0,694.0,8.0,1,
227800,1860.1,7.8,43.4,138.9,156.0,694.0,8.0,1,
227900,1860.6,7.2,43.4,139.1,156.0,694.0,8.0,1,
228000,1860.4,44.1,43.4,140.0,215.0,810.0,5.0,1,
228100,1870.3,36.4,46.6,195.4,139.0,560.0,8.0,1,
228200,1861.5,11.8,35.9,212.2,159.0,647.0,9.0,1,
228300,1853.9,19.2,36.0,212.5,118.0,566.0,8.0,1,
228400,1863.5,58.9,37.2,153.8,159.0,729.0,8.0,1,
228600,1852.5,12.1,44.0,43.9,130.0,490.0,8.0,1,
228700,1862.9,8.7,44.1,38.9,130.0,490.0,8.0,1,
228800,1860.1,7.7,44.1,47.9,130.0,490.0,8.0,1,
228900,1859.8,8.3,44.1,73.8,130.0,490.0,8.0,1,
229000,1859.6,8.5,44.1,43.7,130.0,490.0,8.0,1,
229100,1859.2,7.0,44.1,102.0,130.0,490.0,8.0,1,
229200,1859.8,8.3,44.1,134.1,130.0,490.0,8.0,1,
229300,1859.9,8.6,44.1,151.3,130.0,490.0,8.0,1,
229400,1859.6,7.4,44.0,156.3,130.0,490.0,8.0,1,
229600,1859.9,19.4,44.0,136.4,204.0,661.0,5.0,1,
229700,1864.1,37.4,42.2,135.5,175.0,609.0,9.0,1,
229800,1858.2,19.8,44.4,40.7,155.0,543.0,9.0,1,
229900,1857.9,17.9,44.3,39.4,139.0,622.0,8.0,1,
230000,1856.6,15.4,44.3,46.7,118.0,554.0,8.0,1,
230100,1870.6,79.6,32.2,90.6,131.0,611.0,8.0,1,
230200,1851.8,18.2,35.6,174.6,107.0,577.0,8.0,1,
230300,1863.5,7.4,36.0,111.4,107.0,577.0,8.0,1,
230400,1860.1,8.3,36.0,38.4,107.0,577.0,8.0,1,
230600,1859.5,7.3,36.0,135.4,107.0,577.0,8.0,1,
230700,1860.4,8.1,36.1,172.5,107.0,577.0,8.0,1,
230800,1860.3,8.4,36.1,207.0,107.0,577.0,8.0,1,
230900,1859.5,7.5,36.1,200.2,107.0,577.0,8.0,1,
231000,1860.0,7.8,36.1,166.1,107.0,577.0,8.0,1,
231100,1860.3,7.8,36.1,152.7,107.0,577.0,8.0,1,
231200,1860.3,26.3,36.1,135.3,107.0,577.0,8.0,1,
231300,1863.5,38.2,37.8,175.9,157.0,604.0,9.0,1,
231400,1859.1,97.4,32.7,194.5,167.0,652.0,9.0,1,
231600,1860.8,14.6,44.0,115.8,155.0,640.0,8.0,1,
231700,1868.3,46.5,43.9,70.7,128.0,621.0,9.0,1,
231800,1851.5,19.7,45.4,47.4,117.0,545.0,8.0,1,
231900,1861.5,9.3,41.8,78.8,117.0,545.0,8.0,1,
232000,1860.3,8.0,41.8,91.4,117.0,545.0,8.0,1,
232100,1859.3,7.6,41.8,111.2,117.0,545.0,8.0,1,
232200,1859.8,7.9,41.8,134.9,117.0,545.0,8.0,1,
232300,1859.9,6.4,41.8,148.6,117.0,545.0,8.0,1,
232400,1860.1,7.2,41.8,136.4,117.0,545.0,8.0,1,
232600,1860.2,8.5,41.8,102.0,117.0,545.0,8.0,1,
232700,1859.5,8.0,41.8,102.0,117.0,545.0,8.0,1,
232800,1860.0,7.5,41.8,183.4,117.0,545.0,8.0,1,
232900,1857.8,14.4,40.6,206.0,216.0,698.0,9.0,1,
233000,1860.3,125.3,40.1,111.8,161.0,630.0,9.0,1,
233100,1853.1,22.1,53.3,40.1,157.0,594.0,8.0,1,
233200,1864.8,14.6,44.4,36.5,129.0,544.0,8.0,1,
233300,1866.5,96.9,44.4,45.0,141.0,623.0,8.0,1,
233400,1860.7,13.0,59.5,75.4,97.0,541.0,12.0,1,
233600,1858.0,8.1,57.9,34.5,97.0,541.0,12.0,1,
233700,1859.4,8.0,57.9,29.5,97.0,541.0,12.0,1,
233800,1860.1,8.3,57.9,29.6,97.0,541.0,12.0,1,
233900,1859.7,7.5,57.9,76.1,97.0,541.0,12.0,1,
234000,1860.6,8.0,57.9,163.4,97.0,541.0,12.0,1,
234100,1860.6,8.1,57.9,167.2,97.0,541.0,12.0,1,
234200,1859.9,7.5,57.9,198.7,97.0,541.0,12.0,1,
234300,1860.3,8.6,57.9,177.9,97.0,541.0,12.0,1,
234400,1860.3,8.4,57.9,146.2,97.0,541.0,12.0,1,
234600,1866.6,13.4,58.0,90.1,202.0,595.0,9.0,1,
234700,1851.6,20.7,52.4,172.7,142.0,560.0,9.0,1,
234800,1860.2,39.4,45.2,242.5,161.0,669.0,8.0,1,
234900,1867.1,54.6,47.1,234.1,120.0,599.0,8.0,1,
235000,1861.1,21.9,35.7,210.0,117.0,492.0,8.0,1,
235100,1853.8,9.8,37.3,169.4,129.0,648.0,8.0,1,
235200,1864.2,8.6,37.2,80.5,129.0,648.0,8.0,1,
235300,1860.5,8.2,37.2,74.5,129.0,648.0,8.0,1,
235400,1859.6,7.9,37.2,105.3,129.0,648.0,8.0,1,
235600,1860.5,8.1,37.2,168.1,129.0,648.0,8.0,1,
235700,1860.0,7.2,37.2,177.4,129.0,648.0,8.0,1,
235800,1860.3,7.8,37.2,185.1,129.0,648.0,8.0,1,
235900,1860.6,7.8,37.2,159.0,129.0,648.0,8.0,1,
236000,1859.9,7.6,37.2,158.3,129.0,648.0,8.0,1,
236100,1860.3,16.7,37.2,176.1,232.0,747.0,10.0,1,
236200,1872.1,101.0,37.1,175.8,137.0,607.0,8.0,1,
236300,1856.7,20.2,51.5,30.3,186.0,694.0,9.0,1,
236400,1853.5,23.5,51.2,29.4,111.0,591.0,8.0,1,
236600,1859.3,13.9,53.6,36.7,106.0,572.0,8.0,1,
236700,1853.1,12.8,52.5,39.7,114.0,484.0,8.0,1,
236800,1868.9,8.2,53.0,35.5,114.0,484.0,8.0,1,
236900,1860.6,7.4,53.0,30.1,114.0,484.0,8.0,1,
237000,1859.7,7.9,53.0,38.4,114.0,484.0,8.0,1,
237100,1860.6,7.4,53.0,44.6,114.0,484.0,8.0,1,
237200,1860.2,7.6,53.0,146.9,114.0,484.0,8.0,1,
237300,1860.4,7.1,53.0,166.1,114.0,484.0,8.0,1,
237400,1860.9,7.6,53.0,176.9,114.0,484.0,8.0,1,
237600,1860.3,7.6,53.0,195.8,114.0,484.0,8.0,1,
237700,1860.0,16.7,53.0,170.0,194.0,700.0,5.0,1,
237800,1866.1,29.7,53.0,173.5,189.0,585.0,9.0,1,
237900,1859.6,19.1,41.9,75.9,165.0,555.0,9.0,1,
238000,1854.2,27.0,39.0,72.6,124.0,556.0,8.0,1,
238100,1869.5,28.0,40.4,112.4,113.0,472.0,8.0,1,
238200,1861.1,17.7,27.5,183.8,112.0,527.0,2.0,0,
238300,1861.5,19.9,29.3,168.3,134.0,609.0,8.0,1,
238400,1861.0,7.7,30.5,104.4,134.0,609.0,8.0,1,
238600,1860.0,7.9,30.5,293.2,134.0,609.0,8.0,1,
238700,1859.4,6.8,30.5,307.0,134.0,609.0,8.0,1,
238800,1860.5,8.3,30.5,299.8,134.0,609.0,8.0,1,
238900,1860.3,8.1,30.5,146.1,134.0,609.0,8.0,1,
239000,1859.9,7.2,30.5,155.9,134.0,609.0,8.0,1,
239100,1860.8,7.7,30.5,168.1,134.0,609.0,8.0,1,
239200,1860.6,7.6,30.5,185.0,134.0,609.0,8.0,1,
239300,1860.0,9.1,30.5,214.4,134.0,609.0,8.0,1,
239400,1859.1,24.9,30.6,171.1,240.0,799.0,2.0,0,
239600,1850.8,11.8,29.5,86.0,127.0,556.0,9.0,1,
239700,1861.9,34.2,27.8,146.7,146.0,583.0,8.0,1,
239800,1869.6,9.5,24.6,195.9,134.0,597.0,2.0,0,
239900,1855.2,20.2,22.4,142.2,95.0,481.0,8.0,1,
240000,1856.5,8.8,21.8,152.3,134.0,495.0,8.0,1,
240100,1858.4,8.6,21.8,232.2,134.0,495.0,8.0,1,
240200,1859.4,7.6,21.8,274.8,134.0,495.0,8.0,1,
240300,1859.3,8.3,21.8,279.7,134.0,495.0,8.0,1,
240400,1860.2,7.8,21.8,267.9,134.0,495.0,8.0,1,
240600,1860.2,8.0,21.8,203.4,134.0,495.0,8.0,1,
240700,1860.5,7.9,21.8,211.6,134.0,495.0,8.0,1,
240800,1859.4,7.5,21.8,184.4,134.0,495.0,8.0,1,
240900,1860.4,8.5,21.8,195.4,134.0,495.0,8.0,1,
241000,1860.5,58.3,21.8,206.5,243.0,746.0,9.0,1,
241100,1858.9,21.6,42.6,35.1,155.0,607.0,9.0,1,
241200,1861.2,84.5,43.3,34.5,167.0,694.0,8.0,1,
241300,1854.4,44.2,57.0,37.9,135.0,553.0,8.0,1,
241400,1871.7,9.9,60.8,42.1,137.0,559.0,2.0,0,
241600,1858.1,5.0,59.8,46.2,159.0,665.0,2.0,0,
241700,1859.8,4.6,59.8,109.2,159.0,665.0,2.0,0,
241800,1859.6,3.9,59.7,199.0,159.0,665.0,2.0,0,
241900,1858.2,3.7,59.7,214.6,159.0,665.0,2.0,0,
242000,1858.9,3.7,59.6,173.1,159.0,665.0,2.0,0,
242100,1860.7,3.5,59.6,130.4,159.0,665.0,2.0,0,
242200,1860.1,3.7,59.6,141.1,159.0,665.0,2.0,0,
242300,1860.2,3.8,59.6,139.9,159.0,665.0,2.0,0,
242400,1860.0,3.9,59.5,111.2,159.0,665.0,2.0,0,
242600,1859.2,56.7,59.5,101.8,191.0,821.0,5.0,1,
242700,1871.3,20.3,56.3,36.0,161.0,633.0,2.0,0,
242800,1854.2,17.7,55.0,36.3,158.0,565.0,9.0,1,
242900,1856.3,31.1,42.1,40.6,160.0,620.0,8.0,1,
243000,1872.1,14.2,40.8,75.1,140.0,529.0,2.0,0,
243100,1855.9,70.9,39.3,216.8,126.0,504.0,9.0,1,
243200,1859.9,14.4,49.4,137.9,118.0,474.0,8.0,1,
243300,1863.2,3.9,53.4,79.1,118.0,474.0,8.0,1,
243400,1860.5,3.9,53.4,37.9,118.0,474.0,8.0,1,
243600,1860.0,3.5,53.5,35.8,118.0,474.0,8.0,1,
243700,1859.9,3.9,53.5,41.2,118.0,474.0,8.0,1,
243800,1859.3,3.8,53.5,141.0,118.0,474.0,8.0,1,
243900,1859.6,3.9,53.4,136.7,118.0,474.0,8.0,1,
244000,1859.2,3.7,53.4,146.5,118.0,474.0,8.0,1,
244100,1859.4,3.9,53.4,146.4,118.0,474.0,8.0,1,
244200,1859.5,29.9,53.4,133.8,193.0,621.0,5.0,1,
244300,1869.4,18.4,46.1,168.9,205.0,742.0,2.0,0,
244400,1854.7,42.2,44.8,189.7,163.0,548.0,8.0,1,
244600,1866.7,12.3,52.7,83.7,148.0,531.0,8.0,1,
244700,1866.6,12.9,52.6,36.8,130.0,524.0,9.0,1,
244800,1853.0,9.9,46.1,35.9,131.0,566.0,8.0,1,
244900,1866.9,3.1,38.5,100.3,131.0,566.0,8.0,1,
245000,1860.2,4.2,38.5,272.2,131.0,566.0,8.0,1,
245100,1858.2,4.0,38.5,273.1,131.0,566.0,8.0,1,
245200,1859.2,4.2,38.5,227.6,131.0,566.0,8.0,1,
245300,1858.5,4.1,38.4,124.5,131.0,566.0,8.0,1,
245400,1859.4,3.7,38.4,99.8,131.0,566.0,8.0,1,
245600,1858.7,4.0,38.4,122.9,131.0,566.0,8.0,1,
245700,1859.2,3.6,38.4,111.4,131.0,566.0,8.0,1,
245800,1859.4,26.2,38.4,107.5,131.0,566.0,8.0,1,
245900,1865.4,38.3,41.0,155.9,215.0,614.0,10.0,1,
246000,1855.0,41.2,40.3,169.5,169.0,603.0,9.0,1,
246100,1865.1,22.8,37.8,166.2,125.0,531.0,8.0,1,
246200,1863.9,11.0,45.8,101.9,148.0,576.0,8.0,1,
246300,1865.6,15.9,45.8,39.0,115.0,513.0,9.0,1,
246400,1853.2,14.7,45.8,35.4,119.0,556.0,8.0,1,
246600,1860.2,4.2,45.9,196.6,119.0,556.0,8.0,1,
246700,1858.6,4.1,45.8,209.9,119.0,556.0,8.0,1,
246800,1858.2,3.8,45.8,149.8,119.0,556.0,8.0,1,
246900,1859.3,4.0,45.8,103.1,119.0,556.0,8.0,1,
247000,1859.6,3.9,45.9,117.8,119.0,556.0,8.0,1,
247100,1858.6,4.0,45.9,122.3,119.0,556.0,8.0,1,
247200,1859.4,3.7,45.9,116.7,119.0,556.0,8.0,1,
247300,1859.5,4.0,45.9,133.8,119.0,556.0,8.0,1,
247400,1859.1,4.3,45.9,110.7,119.0,556.0,8.0,1,
247600,1864.6,17.8,47.2,36.9,154.0,496.0,11.0,1,
247700,1853.3,8.0,47.3,39.5,146.0,631.0,11.0,1,
247800,1869.2,33.1,26.6,79.0,152.0,541.0,8.0,1,
247900,1862.6,16.6,30.7,114.2,124.0,570.0,9.0,1,
248000,1854.9,18.8,31.5,93.8,136.0,583.0,8.0,1,
248100,1865.1,4.9,32.9,89.2,115.0,530.0,9.0,1,
248200,1858.4,5.1,32.9,132.2,115.0,530.0,9.0,1,
248300,1858.3,6.1,32.9,231.4,115.0,530.0,9.0,1,
248400,1858.1,4.6,32.9,260.1,115.0,530.0,9.0,1,
248600,1859.5,3.4,32.9,102.4,115.0,530.0,9.0,1,
248700,1859.5,3.4,32.9,106.8,115.0,530.0,9.0,1,
248800,1859.8,3.5,32.9,102.1,115.0,530.0,9.0,1,
248900,1859.3,3.9,32.9,102.5,115.0,530.0,9.0,1,
249000,1859.7,3.6,32.9,112.4,115.0,530.0,9.0,1,
249100,1859.6,16.9,32.9,117.7,238.0,820.0,2.0,0,
249200,1859.0,11.5,26.8,99.9,175.0,597.0,9.0,1,
249300,1854.8,24.6,23.3,66.2,154.0,581.0,9.0,1,
249400,1870.4,12.6,26.0,66.8,142.0,510.0,8.0,1,
249600,1860.1,20.4,20.9,265.3,128.0,638.0,8.0,1,
249700,1861.4,11.4,21.5,229.6,148.0,547.0,2.0,0,
249800,1856.3,9.2,21.6,177.6,148.0,547.0,2.0,0,
249900,1860.4,9.6,21.7,154.1,148.0,547.0,2.0,0,
250000,1858.2,10.1,21.9,148.9,148.0,547.0,2.0,0,
250100,1858.7,8.7,22.0,134.0,148.0,547.0,2.0,0,
250200,1859.7,9.0,22.1,132.5,148.0,547.0,2.0,0,
250300,1859.7,9.5,22.2,185.0,148.0,547.0,2.0,0,
250400,1859.8,8.9,22.3,233.2,148.0,547.0,2.0,0,
250600,1860.1,10.2,22.6,201.7,148.0,547.0,2.0,0,
250700,1859.4,19.6,22.7,165.1,206.0,691.0,2.0,0,
250800,1863.5,11.5,22.8,131.8,167.0,660.0,18.0,1,
250900,1855.3,24.4,22.9,57.5,146.0,681.0,8.0,1,
251000,1864.1,10.6,22.5,55.9,153.0,688.0,8.0,1,
251100,1862.4,139.3,22.3,130.7,131.0,487.0,9.0,1,
251200,1855.8,19.6,40.5,182.9,113.0,572.0,8.0,1,
251300,1863.0,10.9,41.1,90.2,147.0,605.0,8.0,1,
251400,1858.6,10.6,41.1,35.6,147.0,605.0,8.0,1,
251600,1858.0,9.6,41.1,29.7,147.0,605.0,8.0,1,
251700,1858.8,9.4,41.1,35.4,147.0,605.0,8.0,1,
251800,1860.1,10.4,41.1,117.6,147.0,605.0,8.0,1,
251900,1859.9,8.9,41.2,147.5,147.0,605.0,8.0,1,
252000,1859.8,9.0,41.2,206.4,147.0,605.0,8.0,1,
252100,1860.6,10.6,41.2,226.1,147.0,605.0,8.0,1,
252200,1859.5,8.6,41.2,210.3,147.0,605.0,8.0,1,
252300,1860.6,46.8,41.2,185.1,147.0,605.0,8.0,1,
252400,1866.4,25.2,42.8,118.0,156.0,582.0,9.0,1,
252600,1866.0,29.8,43.0,88.8,164.0,570.0,8.0,1,
252700,1864.9,12.2,43.7,201.5,162.0,748.0,9.0,1,
252800,1851.8,23.3,43.7,205.5,125.0,510.0,8.0,1,
252900,1867.8,42.8,27.1,107.9,155.0,670.0,8.0,1,
253000,1859.0,11.4,42.3,158.0,155.0,670.0,8.0,1,
253100,1860.0,9.3,42.3,74.6,155.0,670.0,8.0,1,
253200,1859.3,9.1,42.3,36.2,155.0,670.0,8.0,1,
253300,1860.0,9.7,42.3,29.9,155.0,670.0,8.0,1,
253400,1860.2,9.7,42.3,30.3,155.0,670.0,8.0,1,
253600,1860.2,10.0,42.3,237.7,155.0,670.0,8.0,1,
253700,1860.2,10.0,42.3,207.4,155.0,670.0,8.0,1,
253800,1859.9,9.2,42.3,176.8,155.0,670.0,8.0,1,
253900,1860.5,10.4,42.3,199.2,155.0,670.0,8.0,1,
254000,1868.5,30.3,41.7,189.8,209.0,861.0,5.0,1,
254100,1849.5,38.6,40.7,196.7,142.0,611.0,9.0,1,
254200,1868.9,57.7,42.8,195.6,164.0,604.0,8.0,1,
254300,1859.5,20.2,55.8,186.9,134.0,540.0,9.0,1,
254400,1854.2,21.0,56.1,72.7,143.0,642.0,8.0,1,
254600,1868.4,9.2,46.6,48.4,143.0,642.0,8.0,1,
254700,1858.1,8.4,46.6,237.8,143.0,642.0,8.0,1,
254800,1858.9,8.6,46.6,226.8,143.0,642.0,8.0,1,
254900,1860.0,8.5,46.6,172.2,143.0,642.0,8.0,1,
255000,1860.8,8.3,46.6,166.9,143.0,642.0,8.0,1,
255100,1860.4,9.0,46.6,147.4,143.0,642.0,8.0,1,
255200,1860.2,8.2,46.6,122.9,143.0,642.0,8.0,1,
255300,1860.6,7.6,46.5,147.3,143.0,642.0,8.0,1,
255400,1860.1,8.9,46.5,150.0,143.0,642.0,8.0,1,
255600,1860.1,26.6,46.5,131.1,218.0,660.0,10.0,1,
255700,1852.1,34.6,46.7,185.8,213.0,784.0,4.0,1,
255800,1869.5,17.2,49.7,182.8,157.0,577.0,8.0,1,
255900,1861.7,11.0,31.6,114.7,137.0,620.0,8.0,1,
256000,1854.6,22.9,29.4,91.2,122.0,500.0,8.0,1,
256100,1861.6,11.4,29.4,103.9,126.0,623.0,8.0,1,
256200,1867.7,9.8,29.5,149.8,117.0,690.0,13.0,1,
256300,1855.2,9.8,27.2,156.5,117.0,690.0,13.0,1,
256400,1859.4,9.6,27.3,149.3,117.0,690.0,13.0,1,
256600,1860.5,8.0,27.3,51.8,117.0,690.0,13.0,1,
256700,1860.5,8.0,27.3,144.5,117.0,690.0,13.0,1,
256800,1860.7,7.8,27.3,144.4,117.0,690.0,13.0,1,
256900,1861.0,8.5,27.3,176.2,117.0,690.0,13.0,1,
257000,1859.8,8.3,27.2,177.8,117.0,690.0,13.0,1,
257100,1861.0,7.9,27.2,167.9,117.0,690.0,13.0,1,
257200,1861.5,58.2,27.3,178.1,217.0,946.0,9.0,1,
257300,1853.6,37.8,37.9,37.8,206.0,624.0,4.0,1,
257400,1862.4,13.5,49.3,37.0,152.0,604.0,4.0,1,
257600,1853.7,13.4,50.2,40.5,158.0,654.0,8.0,1,
257700,1862.0,13.3,50.0,89.3,119.0,466.0,4.0,1,
257800,1867.0,12.8,50.0,263.8,128.0,552.0,8.0,1,
257900,1849.6,8.9,51.2,234.4,128.0,552.0,8.0,1,
258000,1859.7,7.8,51.2,281.0,128.0,552.0,8.0,1,
258100,1859.8,8.7,51.2,316.2,128.0,552.0,8.0,1,
258200,1859.8,8.8,51.2,312.7,128.0,552.0,8.0,1,
258300,1860.0,7.6,51.2,241.1,128.0,552.0,8.0,1,
258400,1860.3,8.3,51.2,166.2,128.0,552.0,8.0,1,
258600,1860.0,7.6,51.2,200.6,128.0,552.0,8.0,1,
258700,1860.6,8.0,51.2,239.6,128.0,552.0,8.0,1,
258800,1860.2,27.7,51.1,239.3,192.0,718.0,10.0,1,
258900,1859.1,30.5,43.2,140.9,207.0,771.0,9.0,1,
259000,1857.7,19.8,28.4,43.0,192.0,633.0,8.0,1,
259100,1863.0,53.8,28.6,70.8,143.0,573.0,9.0,1,
259200,1853.9,19.9,32.3,100.8,132.0,528.0,8.0,1,
259300,1859.9,33.7,32.6,243.1,127.0,602.0,8.0,1,
259400,1866.2,51.6,34.8,260.5,114.0,485.0,7.0,1,
259600,1860.5,8.4,39.2,220.6,114.0,485.0,7.0,1,
259700,1859.2,8.6,39.2,88.1,114.0,485.0,7.0,1,
259800,1860.1,7.9,39.2,39.5,114.0,485.0,7.0,1,
259900,1860.6,8.6,39.2,37.5,114.0,485.0,7.0,1,
260000,1859.6,8.3,39.2,202.3,114.0,485.0,7.0,1,
260100,1860.3,7.4,39.2,221.0,114.0,485.0,7.0,1,
260200,1860.4,8.4,39.2,218.9,114.0,485.0,7.0,1,
260300,1859.8,8.3,39.2,200.4,114.0,485.0,7.0,1,
260400,1860.5,18.6,39.2,178.4,114.0,485.0,7.0,1,
260600,1859.7,14.0,36.5,100.6,158.0,732.0,8.0,1,
260700,1867.8,44.3,36.4,148.3,175.0,634.0,8.0,1,
260800,1854.9,15.5,37.1,186.6,115.0,570.0,8.0,1,
260900,1859.6,29.5,35.5,210.7,127.0,507.0,8.0,1,
261000,1869.6,62.2,37.1,145.4,120.0,625.0,7.0,1,
261100,1858.5,11.2,44.3,114.5,124.0,648.0,12.0,1,
261200,1856.8,8.9,44.3,70.6,124.0,648.0,12.0,1,
261300,1860.5,7.4,44.3,36.3,124.0,648.0,12.0,1,
261400,1861.1,8.1,44.3,34.2,124.0,648.0,12.0,1,
261600,1860.3,7.7,44.3,201.4,124.0,648.0,12.0,1,
261700,1859.8,8.1,44.3,236.9,124.0,648.0,12.0,1,
261800,1859.6,8.2,44.3,220.5,124.0,648.0,12.0,1,
261900,1860.4,7.3,44.3,176.9,124.0,648.0,12.0,1,
262000,1860.1,8.0,44.3,207.3,124.0,648.0,12.0,1,
262100,1859.5,35.2,44.3,151.3,176.0,812.0,9.0,1,
262200,1869.2,41.6,44.8,238.5,135.0,566.0,4.0,1,
262300,1864.2,14.9,52.1,263.7,199.0,616.0,2.0,0,
262400,1855.0,16.6,50.4,137.4,127.0,553.0,8.0,1,
262600,1867.4,14.6,49.7,67.7,133.0,526.0,2.0,0,
262700,1855.4,10.0,34.1,139.1,137.0,519.0,8.0,1,
262800,1864.1,7.8,34.1,164.5,137.0,519.0,8.0,1,
262900,1859.4,7.9,34.1,166.8,137.0,519.0,8.0,1,
263000,1860.5,8.4,34.1,150.9,137.0,519.0,8.0,1,
263100,1861.5,7.5,34.1,114.0,137.0,519.0,8.0,1,
263200,1860.6,8.3,34.0,178.3,137.0,519.0,8.0,1,
263300,1860.0,8.3,34.1,156.0,137.0,519.0,8.0,1,
263400,1860.3,7.9,34.1,169.0,137.0,519.0,8.0,1,
263600,1860.1,9.3,34.1,239.5,137.0,519.0,8.0,1,
263700,1860.3,26.2,34.1,238.2,202.0,637.0,10.0,1,
263800,1858.6,59.9,33.8,247.7,164.0,736.0,4.0,1,
263900,1867.8,16.6,36.4,249.9,199.0,593.0,9.0,1,
264000,1855.0,17.5,35.3,99.6,155.0,669.0,8.0,1,
264100,1858.4,26.3,36.6,74.2,130.0,493.0,8.0,1,
264200,1869.0,17.7,38.7,91.5,129.0,714.0,7.0,1,
264300,1860.3,11.6,37.4,234.8,149.0,617.0,8.0,1,
264400,1860.3,7.7,38.6,201.8,149.0,617.0,8.0,1,
264600,1860.2,7.9,38.6,210.3,149.0,617.0,8.0,1,
264700,1860.6,8.0,38.6,219.6,149.0,617.0,8.0,1,
264800,1860.0,8.3,38.6,218.8,149.0,617.0,8.0,1,
264900,1860.3,7.3,38.6,197.3,149.0,617.0,8.0,1,
265000,1860.7,7.5,38.6,220.8,149.0,617.0,8.0,1,
265100,1860.6,8.1,38.6,170.4,149.0,617.0,8.0,1,
265200,1861.3,7.2,38.6,138.0,149.0,617.0,8.0,1,
265300,1860.7,29.5,38.6,166.1,149.0,617.0,8.0,1,
265400,1855.3,14.3,38.1,237.2,206.0,627.0,9.0,1,
265600,1849.9,24.8,42.5,235.5,160.0,654.0,9.0,1,
265700,1860.5,24.8,42.9,46.0,128.0,565.0,8.0,1,
265800,1868.2,17.4,42.2,34.3,134.0,583.0,2.0,0,
265900,1857.6,12.8,42.2,39.6,99.0,563.0,8.0,1,
266000,1853.3,9.5,42.4,115.3,99.0,563.0,8.0,1,
266100,1860.3,7.5,42.4,217.5,99.0,563.0,8.0,1,
266200,1860.8,8.0,42.4,174.1,99.0,563.0,8.0,1,
266300,1860.7,8.7,42.4,165.0,99.0,563.0,8.0,1,
266400,1860.1,8.0,42.4,175.2,99.0,563.0,8.0,1,
266600,1859.5,8.7,42.4,221.6,99.0,563.0,8.0,1,
266700,1860.5,7.7,42.4,208.4,99.0,563.0,8.0,1,
266800,1860.7,7.7,42.4,202.1,99.0,563.0,8.0,1,
266900,1860.4,10.7,42.4,208.4,99.0,563.0,8.0,1,
267000,1858.2,22.4,41.1,200.7,190.0,716.0,9.0,1,
267100,1862.4,13.5,41.1,66.4,184.0,695.0,9.0,1,
267200,1855.5,22.6,39.6,93.6,157.0,716.0,8.0,1,
267300,1856.1,43.8,23.5,202.8,160.0,669.0,8.0,1,
267400,1874.9,10.2,29.8,232.9,130.0,614.0,2.0,0,
267600,1856.5,8.7,27.9,134.4,152.0,549.0,8.0,1,
267700,1859.9,8.0,28.0,155.7,152.0,549.0,8.0,1,
267800,1860.0,8.3,28.0,275.0,152.0,549.0,8.0,1,
267900,1861.6,8.1,28.0,293.1,152.0,549.0,8.0,1,
268000,1861.2,8.3,28.0,264.9,152.0,549.0,8.0,1,
268100,1860.2,8.8,28.0,240.0,152.0,549.0,8.0,1,
268200,1860.5,7.9,28.0,239.6,152.0,549.0,8.0,1,
268300,1860.5,8.2,28.0,238.0,152.0,549.0,8.0,1,
268400,1860.1,8.5,28.0,233.9,152.0,549.0,8.0,1,
268600,1860.8,17.6,28.0,237.0,228.0,748.0,9.0,1,
268700,1863.8,108.5,27.6,171.0,173.0,574.0,9.0,1,
268800,1849.3,26.3,39.6,66.5,168.0,670.0,8.0,1,
268900,1864.2,14.5,47.3,29.9,170.0,635.0,8.0,1,
269000,1865.6,107.7,45.5,30.1,147.0,609.0,8.0,1,
269100,1852.5,20.1,55.9,36.9,115.0,551.0,8.0,1,
269200,1859.8,9.1,56.2,66.3,141.0,607.0,2.0,0,
269300,1857.5,9.9,56.2,40.8,141.0,607.0,2.0,0,
269400,1859.5,8.5,56.2,41.9,141.0,607.0,2.0,0,
269600,1860.0,8.6,56.2,130.1,141.0,607.0,2.0,0,
269700,1861.0,8.5,56.2,221.5,141.0,607.0,2.0,0,
269800,1860.7,8.7,56.2,238.4,141.0,607.0,2.0,0,
269900,1859.9,9.2,56.2,239.6,141.0,607.0,2.0,0,
270000,1860.8,8.7,56.2,238.0,141.0,607.0,2.0,0,
270100,1860.6,8.4,56.2,238.3,141.0,607.0,2.0,0,
270200,1859.8,48.9,56.2,238.9,201.0,690.0,9.0,1,
270300,1865.6,12.6,58.5,68.9,188.0,667.0,9.0,1,
270400,1851.1,28.2,59.3,34.7,126.0,598.0,8.0,1,
270600,1864.1,14.8,45.0,148.6,135.0,615.0,9.0,1,
270700,1859.9,18.3,39.7,276.3,131.0,496.0,8.0,1,
270800,1857.1,18.4,29.7,241.6,116.0,472.0,7.0,1,
270900,1862.0,4.2,37.2,169.6,116.0,472.0,7.0,1,
271000,1859.3,3.0,37.1,88.2,116.0,472.0,7.0,1,
271100,1860.1,3.4,37.1,38.5,116.0,472.0,7.0,1,
271200,1860.3,3.0,37.0,35.1,116.0,472.0,7.0,1,
271300,1859.9,3.1,36.9,42.6,116.0,472.0,7.0,1,
271400,1859.3,3.2,36.9,164.5,116.0,472.0,7.0,1,
271600,1860.4,3.0,36.7,136.9,116.0,472.0,7.0,1,
271700,1859.9,3.3,36.7,165.6,116.0,472.0,7.0,1,
271800,1859.9,15.3,36.6,165.9,200.0,730.0,2.0,0,
271900,1867.1,19.4,32.6,143.2,197.0,690.0,9.0,1,
272000,1851.5,22.5,31.2,68.9,137.0,597.0,8.0,1,
272100,1862.0,30.4,30.6,67.2,168.0,636.0,8.0,1,
272200,1871.3,71.9,32.5,131.1,132.0,605.0,8.0,1,
272300,1853.2,19.9,34.9,184.1,137.0,562.0,8.0,1,
272400,1861.4,7.9,36.3,145.9,141.0,551.0,8.0,1,
272600,1859.3,5.9,28.6,89.3,141.0,551.0,8.0,1,
272700,1860.0,3.3,28.6,112.0,141.0,551.0,8.0,1,
272800,1861.0,3.1,28.6,111.7,141.0,551.0,8.0,1,
272900,1859.9,3.4,28.6,99.4,141.0,551.0,8.0,1,
273000,1860.1,2.7,28.6,125.0,141.0,551.0,8.0,1,
273100,1860.2,2.9,28.6,138.4,141.0,551.0,8.0,1,
273200,1859.6,3.8,28.6,140.7,141.0,551.0,8.0,1,
273300,1860.6,2.8,28.6,133.2,141.0,551.0,8.0,1,
273400,1860.7,7.7,28.6,149.2,141.0,551.0,8.0,1,
273600,1856.9,22.5,30.5,239.0,155.0,628.0,8.0,1,
273700,1859.8,11.0,30.7,249.1,140.0,535.0,8.0,1,
273800,1866.3,132.1,30.7,239.6,100.0,500.0,8.0,1,
273900,1855.1,39.0,45.7,208.2,129.0,487.0,8.0,1,
274000,1865.4,11.0,44.3,89.8,129.0,519.0,8.0,1,
274100,1864.7,7.5,44.3,43.8,129.0,519.0,8.0,1,
274200,1861.0,6.3,44.3,84.2,129.0,519.0,8.0,1,
274300,1859.6,6.7,44.3,203.7,129.0,519.0,8.0,1,
274400,1860.4,6.9,44.3,278.1,129.0,519.0,8.0,1,
274600,1860.8,6.1,44.4,150.6,129.0,519.0,8.0,1,
274700,1860.4,6.7,44.4,199.4,129.0,519.0,8.0,1,
274800,1860.6,6.9,44.4,203.9,129.0,519.0,8.0,1,
274900,1860.7,6.7,44.5,200.7,129.0,519.0,8.0,1,
275000,1860.3,6.5,44.5,195.5,129.0,519.0,8.0,1,
275100,1869.5,20.9,44.5,153.9,163.0,611.0,9.0,1,
275200,1851.2,24.1,44.3,197.7,163.0,702.0,9.0,1,
275300,1872.1,13.8,43.8,204.2,181.0,649.0,9.0,1,
275400,1858.8,11.2,43.8,207.7,126.0,640.0,8.0,1,
275600,1864.9,31.9,23.3,198.8,150.0,677.0,8.0,1,
275700,1866.5,8.4,25.3,135.5,150.0,677.0,8.0,1,
275800,1860.1,7.6,25.3,134.0,150.0,677.0,8.0,1,
275900,1857.9,7.3,25.3,145.7,150.0,677.0,8.0,1,
276000,1859.7,6.8,25.3,146.7,150.0,677.0,8.0,1,
276100,1861.1,6.3,25.3,147.1,150.0,677.0,8.0,1,
276200,1860.4,6.9,25.3,198.5,150.0,677.0,8.0,1,
276300,1860.8,6.7,25.3,218.0,150.0,677.0,8.0,1,
276400,1860.9,6.9,25.3,219.8,150.0,677.0,8.0,1,
276600,1860.4,6.6,25.3,124.1,150.0,677.0,8.0,1,
276700,1860.8,31.1,25.3,135.8,150.0,677.0,8.0,1,
276800,1855.7,40.8,29.2,207.3,171.0,585.0,9.0,1,
276900,1869.6,9.6,44.8,188.7,150.0,685.0,8.0,1,
277000,1856.6,52.4,44.0,80.7,135.0,576.0,9.0,1,
277100,1859.1,22.2,47.3,40.6,160.0,680.0,8.0,1,
277200,1863.6,16.7,49.5,86.7,131.0,526.0,8.0,1,
277300,1867.3,9.0,49.5,103.6,127.0,502.0,8.0,1,
277400,1858.7,7.5,49.7,71.9,127.0,502.0,8.0,1,
277600,1859.5,6.6,49.7,310.4,127.0,502.0,8.0,1,
277700,1859.8,6.4,49.7,311.5,127.0,502.0,8.0,1,
277800,1861.0,6.7,49.7,250.9,127.0,502.0,8.0,1,
277900,1860.9,6.4,49.7,214.5,127.0,502.0,8.0,1,
