Time(ms),Raw_ADC,ENV_Value,RMS,MDF,MW_Amp,MW_Area,MW_Latency,MW_Valid,Marker
0,1829.8,184.8,0.0,0.0,1376.0,5675.0,2.0,0,
100,1861.5,128.2,0.0,0.0,1999.0,7706.0,3.0,1,
200,1857.3,65.7,0.0,0.0,3130.0,11124.0,2.0,0,
300,1863.9,40.8,0.0,0.0,3130.0,11124.0,2.0,0,
400,1857.0,38.2,0.0,0.0,3130.0,11124.0,2.0,0,
500,1852.9,41.6,0.0,39.9,3130.0,11124.0,2.0,0,
600,1856.8,37.4,0.0,43.8,3130.0,11124.0,2.0,0,
700,1856.9,39.8,0.0,239.8,3130.0,11124.0,2.0,0,
800,1857.2,39.0,0.0,240.6,3130.0,11124.0,2.0,0,
900,1858.2,40.6,0.0,240.8,3130.0,11124.0,2.0,0,
1000,1858.6,38.8,0.0,240.3,3130.0,11124.0,2.0,0,
1100,1856.6,39.8,0.0,240.3,3130.0,11124.0,2.0,0,
1200,1860.5,57.3,0.0,240.6,994.0,4272.0,3.0,1,
1300,1846.5,37.7,0.0,239.1,1022.0,5097.0,4.0,1,
1400,1876.9,60.2,0.0,29.7,1658.0,7066.0,4.0,1,
1500,1828.7,35.1,0.0,28.7,1750.0,7198.0,3.0,1,
1600,1864.8,54.9,93.6,28.5,1331.0,5514.0,3.0,1,
1700,1851.8,52.9,80.7,27.9,2783.0,10752.0,3.0,1,
1800,1856.4,103.7,75.8,28.3,3071.0,11611.0,2.0,0,
1900,1864.0,39.5,78.8,35.8,3071.0,11611.0,2.0,0,
2000,1862.5,36.8,78.7,29.5,3071.0,11611.0,2.0,0,
2100,1855.7,36.5,78.7,29.1,3071.0,11611.0,2.0,0,
2200,1854.9,39.0,78.6,29.4,3071.0,11611.0,2.0,0,
2300,1856.9,37.5,78.6,167.6,3071.0,11611.0,2.0,0,
2400,1859.2,40.0,78.5,240.4,3071.0,11611.0,2.0,0,
2600,1859.9,38.6,78.4,239.7,3071.0,11611.0,2.0,0,
2700,1859.2,39.0,78.4,239.9,3071.0,11611.0,2.0,0,
2800,1857.1,132.3,78.4,240.6,838.0,3372.0,3.0,1,
2900,1858.5,82.7,87.7,77.8,1171.0,4537.0,2.0,0,
3000,1848.0,54.4,90.1,36.0,1479.0,6313.0,3.0,1,
3100,1862.1,115.4,89.6,35.5,2256.0,8717.0,3.0,1,
3200,1849.2,200.0,97.3,35.1,2736.0,9993.0,2.0,0,
3300,1868.6,74.0,106.0,30.0,3028.0,10464.0,3.0,1,
3400,1874.0,74.3,104.8,29.9,3367.0,12025.0,3.0,1,
3600,1866.0,41.1,88.3,37.3,3367.0,12025.0,3.0,1,
3700,1857.5,37.2,88.4,68.7,3367.0,12025.0,3.0,1,
3800,1857.0,36.3,88.4,163.8,3367.0,12025.0,3.0,1,
3900,1857.2,37.9,88.3,239.8,3367.0,12025.0,3.0,1,
4000,1857.8,39.2,88.3,239.8,3367.0,12025.0,3.0,1,
4100,1858.3,38.2,88.5,239.9,3367.0,12025.0,3.0,1,
4200,1858.8,39.3,88.5,240.1,3367.0,12025.0,3.0,1,
4300,1858.0,40.3,88.6,239.8,3367.0,12025.0,3.0,1,
4400,1859.2,93.4,88.5,239.6,3367.0,12025.0,3.0,1,
4600,1848.7,130.3,103.4,44.7,1485.0,5907.0,3.0,1,
4700,1865.7,125.2,104.8,44.7,1982.0,8463.0,3.0,1,
4800,1879.7,85.6,109.2,39.5,2518.0,9680.0,3.0,1,
4900,1842.6,66.1,105.0,34.5,3047.0,11670.0,3.0,1,
5000,1836.8,101.0,118.8,35.3,3002.0,11287.0,3.0,1,
5100,1882.2,44.7,118.7,35.6,2873.0,10428.0,3.0,1,
5200,1857.9,38.2,118.7,28.8,2873.0,10428.0,3.0,1,
5300,1857.0,37.6,118.7,28.5,2873.0,10428.0,3.0,1,
5400,1857.2,40.5,118.8,29.5,2873.0,10428.0,3.0,1,
5600,1860.6,38.1,118.8,238.8,2873.0,10428.0,3.0,1,
5700,1859.1,38.5,118.7,239.4,2873.0,10428.0,3.0,1,
5800,1859.2,39.6,118.7,236.2,2873.0,10428.0,3.0,1,
5900,1856.9,40.3,118.8,238.0,2873.0,10428.0,3.0,1,
6000,1857.7,40.3,118.9,238.4,2873.0,10428.0,3.0,1,
6100,1849.7,88.4,113.7,183.5,1052.0,4040.0,3.0,1,
6200,1864.2,49.3,114.3,54.0,1464.0,6462.0,3.0,1,
6300,1879.1,66.3,106.8,39.1,1825.0,6913.0,3.0,1,
6400,1837.1,72.3,107.8,38.4,1836.0,7813.0,4.0,1,
6600,1866.9,84.1,103.9,28.8,3087.0,11706.0,3.0,1,
6700,1869.2,43.2,88.5,28.2,3042.0,12272.0,3.0,1,
6800,1859.4,36.8,88.5,28.3,3042.0,12272.0,3.0,1,
6900,1859.9,39.3,88.5,44.8,3042.0,12272.0,3.0,1,
7000,1856.6,37.0,88.5,74.9,3042.0,12272.0,3.0,1,
7100,1858.8,37.2,88.4,198.3,3042.0,12272.0,3.0,1,
7200,1857.7,38.7,88.5,239.4,3042.0,12272.0,3.0,1,
7300,1858.5,39.1,88.5,239.9,3042.0,12272.0,3.0,1,
7400,1857.1,38.9,88.5,240.1,3042.0,12272.0,3.0,1,
7600,1858.2,40.4,88.4,240.1,3042.0,12272.0,3.0,1,
7700,1844.2,40.0,88.4,239.9,887.0,4244.0,4.0,1,
7800,1886.7,75.3,86.6,215.3,1597.0,6051.0,3.0,1,
7900,1834.4,53.4,87.1,36.1,2299.0,9923.0,3.0,1,
8000,1854.2,210.4,83.4,29.7,2459.0,9331.0,3.0,1,
8100,1868.6,96.2,92.3,27.8,3118.0,11766.0,3.0,1,
8200,1855.5,69.3,99.6,28.0,3000.0,12181.0,4.0,1,
8300,1902.7,48.1,99.7,28.9,3090.0,11318.0,3.0,1,
8400,1817.7,40.8,99.4,29.2,3090.0,11318.0,3.0,1,
8600,1858.3,38.3,99.3,41.2,3090.0,11318.0,3.0,1,
8700,1857.5,38.7,99.3,229.9,3090.0,11318.0,3.0,1,
8800,1858.6,36.8,99.3,239.9,3090.0,11318.0,3.0,1,
8900,1859.8,38.8,99.4,240.3,3090.0,11318.0,3.0,1,
9000,1860.6,41.0,99.3,240.5,3090.0,11318.0,3.0,1,
9100,1859.0,38.9,99.3,240.2,3090.0,11318.0,3.0,1,
9200,1858.0,36.8,99.3,239.9,3090.0,11318.0,3.0,1,
9300,1857.2,44.3,99.2,240.0,821.0,3765.0,4.0,1,
9400,1850.0,102.9,88.4,239.4,1148.0,5638.0,3.0,1,
9600,1859.1,100.8,103.1,28.4,2928.0,11699.0,3.0,1,
9700,1848.4,97.6,96.1,28.7,2837.0,10641.0,3.0,1,
9800,1893.4,316.0,87.3,28.9,2888.0,9890.0,2.0,0,
9900,1816.4,86.5,141.3,28.8,3242.0,11910.0,3.0,1,
10000,1870.8,40.7,141.6,29.1,3242.0,11910.0,3.0,1,
10100,1859.1,33.6,141.5,28.4,3242.0,11910.0,3.0,1,
10200,1858.2,37.8,141.5,27.1,3242.0,11910.0,3.0,1,
10300,1856.5,38.7,141.5,28.0,3242.0,11910.0,3.0,1,
10400,1856.9,30.3,141.5,239.9,3242.0,11910.0,3.0,1,
10600,1855.7,39.2,141.4,178.6,3242.0,11910.0,3.0,1,
10700,1859.0,36.0,141.4,82.1,3242.0,11910.0,3.0,1,
10800,1858.1,42.9,141.4,77.6,3242.0,11910.0,3.0,1,
10900,1856.2,75.5,141.5,178.3,3242.0,11910.0,3.0,1,
11000,1865.2,55.6,142.2,234.4,1010.0,3773.0,3.0,1,
11100,1856.7,105.3,139.7,78.2,1790.0,7961.0,4.0,1,
11200,1864.1,71.8,141.6,35.2,2688.0,10377.0,3.0,1,
11300,1880.0,88.6,145.3,30.0,3186.0,12097.0,3.0,1,
11400,1829.5,62.5,142.7,29.8,3049.0,11763.0,3.0,1,
11600,1876.4,46.0,123.2,35.4,2974.0,9112.0,2.0,0,
11700,1858.1,42.1,123.2,92.0,2974.0,9112.0,2.0,0,
11800,1860.0,74.4,123.7,143.9,2974.0,9112.0,2.0,0,
11900,1855.6,77.5,125.0,176.3,2974.0,9112.0,2.0,0,
12000,1858.9,72.2,126.0,182.9,2974.0,9112.0,2.0,0,
12100,1860.9,59.7,127.0,199.4,2974.0,9112.0,2.0,0,
12200,1860.9,84.0,127.5,237.8,2974.0,9112.0,2.0,0,
12300,1861.1,128.3,130.3,177.1,2974.0,9112.0,2.0,0,
12400,1862.0,211.2,136.4,72.5,2974.0,9112.0,2.0,0,
12600,1853.0,408.6,187.0,57.1,1683.0,13341.0,10.0,1,
12700,1852.5,284.0,212.3,29.7,908.0,4063.0,3.0,1,
12800,1879.1,252.0,225.4,28.4,2499.0,9584.0,2.0,0,
12900,1829.6,107.9,235.8,28.9,2621.0,10138.0,4.0,1,
13000,1858.3,63.9,235.6,29.6,3222.0,10797.0,2.0,0,
13100,1877.2,68.5,235.1,29.9,2960.0,12374.0,3.0,1,
13200,1869.7,42.8,218.8,38.0,3120.0,11535.0,4.0,1,
13300,1860.7,39.1,218.8,43.0,3120.0,11535.0,4.0,1,
13400,1858.5,37.5,218.6,30.1,3120.0,11535.0,4.0,1,
13600,1860.5,38.1,217.2,239.3,3120.0,11535.0,4.0,1,
13700,1856.7,37.3,216.7,239.8,3120.0,11535.0,4.0,1,
13800,1859.2,40.2,216.4,239.6,3120.0,11535.0,4.0,1,
13900,1861.3,37.9,215.3,240.3,3120.0,11535.0,4.0,1,
14000,1859.5,38.0,212.1,240.1,3120.0,11535.0,4.0,1,
14100,1860.0,40.7,203.1,239.5,3120.0,11535.0,4.0,1,
14200,1865.7,30.6,178.4,239.4,1051.0,4309.0,3.0,1,
14300,1861.8,30.4,135.9,235.7,1676.0,7097.0,3.0,1,
14400,1836.7,104.1,105.8,123.1,2323.0,9616.0,4.0,1,
14600,1871.2,54.6,62.6,29.2,3224.0,12419.0,3.0,1,
14700,1900.6,164.3,92.7,29.2,3130.0,9507.0,2.0,0,
14800,1811.1,96.5,119.1,52.7,2975.0,9510.0,2.0,0,rest_end
14900,1865.5,43.0,122.9,100.0,2975.0,9510.0,2.0,0,
15000,1861.5,40.4,123.0,131.3,2975.0,9510.0,2.0,0,
15100,1860.5,36.1,123.0,106.1,2975.0,9510.0,2.0,0,
15200,1857.8,36.8,123.0,90.7,2975.0,9510.0,2.0,0,
15300,1858.7,40.7,123.0,238.7,2975.0,9510.0,2.0,0,
15400,1861.1,36.8,122.9,240.1,2975.0,9510.0,2.0,0,
15600,1859.5,35.9,122.7,240.2,2975.0,9510.0,2.0,0,
15700,1858.0,37.5,122.7,240.1,2975.0,9510.0,2.0,0,
15800,1860.2,48.1,122.7,240.1,1223.0,5491.0,4.0,1,
15900,1849.8,60.0,123.3,238.9,2150.0,8701.0,3.0,1,
16000,1873.4,70.8,125.6,71.6,2809.0,10762.0,3.0,1,
16100,1855.1,97.2,133.8,34.3,2876.0,11328.0,3.0,1,
16200,1903.7,79.9,132.7,29.6,3253.0,11708.0,4.0,1,
16300,1812.0,49.8,122.5,35.1,3113.0,12132.0,4.0,1,
16400,1871.6,57.2,99.3,36.4,2947.0,10700.0,3.0,1,
16600,1861.3,37.9,82.7,28.6,2947.0,10700.0,3.0,1,
16700,1856.8,40.6,82.7,40.0,2947.0,10700.0,3.0,1,
16800,1859.3,43.2,82.7,117.3,2947.0,10700.0,3.0,1,
16900,1859.9,42.8,82.8,240.2,2947.0,10700.0,3.0,1,
17000,1860.8,38.5,82.9,240.0,2947.0,10700.0,3.0,1,
17100,1860.3,38.3,83.0,239.9,2947.0,10700.0,3.0,1,
17200,1861.6,39.5,83.0,240.1,2947.0,10700.0,3.0,1,
17300,1860.0,39.0,83.1,240.2,2947.0,10700.0,3.0,1,
17400,1861.4,149.5,83.1,240.2,2947.0,10700.0,3.0,1,
17600,1853.5,184.1,91.0,105.5,2471.0,9549.0,4.0,1,
17700,1898.5,90.1,94.1,99.3,2843.0,10444.0,3.0,1,
17800,1820.1,189.6,87.4,65.7,2468.0,10483.0,4.0,1,
17900,1871.3,80.2,100.5,29.7,2831.0,10188.0,3.0,1,
18000,1850.4,114.6,100.8,29.5,3022.0,11826.0,4.0,1,
18100,1873.4,45.8,101.9,29.3,2914.0,11086.0,3.0,1,
18200,1858.4,44.1,102.0,29.7,2914.0,11086.0,3.0,1,
18300,1860.0,44.4,102.1,66.7,2914.0,11086.0,3.0,1,
18400,1858.2,42.1,102.2,91.5,2914.0,11086.0,3.0,1,
18600,1856.2,40.0,102.2,238.3,2914.0,11086.0,3.0,1,
18700,1862.5,43.4,102.2,239.7,2914.0,11086.0,3.0,1,
18800,1857.8,42.7,102.5,239.9,2914.0,11086.0,3.0,1,
18900,1860.1,49.5,102.7,238.1,2914.0,11086.0,3.0,1,
19000,1858.5,40.2,102.8,136.4,2914.0,11086.0,3.0,1,
19100,1850.5,63.9,99.0,100.1,1117.0,4819.0,4.0,1,
19200,1877.7,84.0,106.7,88.4,1528.0,7292.0,3.0,1,
19300,1836.9,84.1,102.5,85.0,1784.0,7416.0,3.0,1,
19400,1852.3,119.5,101.2,74.1,2107.0,8600.0,3.0,1,
19600,1878.8,90.1,101.0,42.8,2528.0,9977.0,3.0,1,
19700,1846.5,48.2,101.3,35.3,2688.0,9922.0,2.0,0,
19800,1856.2,43.1,101.3,36.1,2688.0,9922.0,2.0,0,
19900,1859.6,41.5,101.3,36.4,2688.0,9922.0,2.0,0,
20000,1858.2,37.2,101.2,36.9,2688.0,9922.0,2.0,0,
20100,1861.1,41.6,101.2,108.4,2688.0,9922.0,2.0,0,
20200,1861.4,40.7,101.1,240.3,2688.0,9922.0,2.0,0,
20300,1858.0,39.7,101.1,240.2,2688.0,9922.0,2.0,0,
20400,1860.6,40.9,101.1,239.5,2688.0,9922.0,2.0,0,
20600,1860.6,38.1,100.7,165.7,2688.0,9922.0,2.0,0,
20700,1863.6,71.1,101.2,122.5,1005.0,5031.0,3.0,1,
20800,1844.3,126.5,93.4,84.1,1168.0,4663.0,3.0,1,
20900,1854.5,132.1,100.6,26.2,1377.0,5283.0,3.0,1,
21000,1868.6,48.8,107.1,30.0,1674.0,7443.0,3.0,1,
21100,1884.1,108.9,108.6,36.1,2609.0,10298.0,3.0,1,
21200,1841.2,195.5,110.6,36.0,2805.0,11682.0,3.0,1,
21300,1840.1,63.7,123.2,34.3,2779.0,11140.0,3.0,1,
21400,1872.5,42.2,123.6,34.9,2779.0,11140.0,3.0,1,
21600,1860.8,60.2,123.9,38.2,2779.0,11140.0,3.0,1,
21700,1859.9,57.4,124.5,87.1,2779.0,11140.0,3.0,1,
21800,1860.0,58.4,124.9,240.1,2779.0,11140.0,3.0,1,
21900,1862.8,55.6,125.4,240.2,2779.0,11140.0,3.0,1,
22000,1862.5,57.9,125.8,240.2,2779.0,11140.0,3.0,1,
22100,1861.9,53.9,126.1,240.6,2779.0,11140.0,3.0,1,
22200,1860.3,57.5,126.5,259.2,2779.0,11140.0,3.0,1,
22300,1862.5,176.2,127.1,269.2,1096.0,5971.0,4.0,1,
22400,1851.4,256.8,130.7,239.4,2130.0,10509.0,3.0,1,
22600,1892.1,151.9,147.2,30.1,2478.0,9899.0,3.0,1,
22700,1818.8,141.4,151.3,39.2,2521.0,10734.0,2.0,0,
22800,1858.6,116.7,149.5,39.4,2612.0,10079.0,3.0,1,
22900,1878.8,75.6,132.6,26.9,2758.0,11188.0,3.0,1,
23000,1861.7,42.5,132.8,30.0,2758.0,11188.0,3.0,1,
23100,1856.3,39.0,132.8,38.7,2758.0,11188.0,3.0,1,
23200,1857.9,40.9,132.6,38.8,2758.0,11188.0,3.0,1,
23300,1858.5,37.8,132.0,109.0,2758.0,11188.0,3.0,1,
23400,1862.8,43.2,131.5,239.8,2758.0,11188.0,3.0,1,
23600,1860.2,37.6,130.7,241.0,2758.0,11188.0,3.0,1,
23700,1859.6,40.5,130.3,240.7,2758.0,11188.0,3.0,1,
23800,1860.0,40.2,129.9,240.6,2758.0,11188.0,3.0,1,
23900,1860.4,49.5,129.4,240.3,2758.0,11188.0,3.0,1,
24000,1851.6,108.1,127.6,239.4,1418.0,6768.0,3.0,1,
24100,1882.7,79.7,101.7,41.7,1773.0,7679.0,4.0,1,
24200,1829.5,144.0,88.6,37.0,2189.0,10245.0,4.0,1,
24300,1865.4,96.4,92.0,36.7,2345.0,9247.0,3.0,1,
24400,1861.8,62.4,85.8,29.8,2755.0,11546.0,4.0,1,
24600,1888.1,43.9,83.7,30.2,2567.0,10112.0,4.0,1,
24700,1856.6,43.9,83.8,30.2,2567.0,10112.0,4.0,1,
24800,1856.6,41.8,84.0,39.5,2567.0,10112.0,4.0,1,
24900,1859.4,41.0,84.1,87.2,2567.0,10112.0,4.0,1,
25000,1861.3,39.9,84.2,239.9,2567.0,10112.0,4.0,1,
25100,1857.9,41.4,84.1,240.1,2567.0,10112.0,4.0,1,
25200,1861.6,38.1,84.2,239.6,2567.0,10112.0,4.0,1,
25300,1859.3,41.3,84.2,239.3,2567.0,10112.0,4.0,1,
25400,1857.9,38.6,84.2,239.6,2567.0,10112.0,4.0,1,
25600,1859.2,40.8,81.5,239.9,1417.0,7298.0,3.0,1,
25700,1844.3,53.0,72.5,110.6,1669.0,7346.0,3.0,1,
25800,1856.6,134.1,73.6,36.1,1936.0,7880.0,3.0,1,
25900,1853.9,119.1,72.9,29.5,2219.0,9752.0,2.0,0,
26000,1855.4,71.0,86.8,28.3,2274.0,9150.0,3.0,1,
26100,1902.4,68.7,86.9,28.6,2697.0,10936.0,3.0,1,
26200,1824.1,45.2,87.8,28.9,2601.0,11402.0,3.0,1,
26300,1855.6,39.3,87.8,28.9,2601.0,11402.0,3.0,1,
26400,1856.6,40.4,87.7,27.9,2601.0,11402.0,3.0,1,
26600,1861.0,39.3,87.6,236.9,2601.0,11402.0,3.0,1,
26700,1860.7,40.5,87.6,240.0,2601.0,11402.0,3.0,1,
26800,1860.7,38.8,87.6,240.1,2601.0,11402.0,3.0,1,
26900,1862.2,40.5,87.6,240.6,2601.0,11402.0,3.0,1,
27000,1861.3,42.6,87.7,241.1,2601.0,11402.0,3.0,1,
27100,1858.0,39.4,87.8,240.3,2601.0,11402.0,3.0,1,
27200,1863.7,50.9,87.9,240.0,953.0,4742.0,3.0,1,
27300,1845.3,98.4,87.8,238.7,1603.0,7340.0,4.0,1,
27400,1867.0,132.3,88.7,91.2,1724.0,8158.0,4.0,1,
27600,1883.0,89.7,75.9,29.0,2604.0,11326.0,3.0,1,
27700,1812.7,138.0,77.2,35.9,2486.0,10355.0,3.0,1,
27800,1871.5,55.3,79.1,35.8,2819.0,11046.0,3.0,1,
27900,1868.8,38.8,79.0,35.5,2819.0,11046.0,3.0,1,
28000,1858.0,38.4,78.9,30.3,2819.0,11046.0,3.0,1,
28100,1857.9,42.1,78.9,38.0,2819.0,11046.0,3.0,1,
28200,1859.6,38.6,79.0,186.2,2819.0,11046.0,3.0,1,
28300,1861.2,38.7,78.9,240.1,2819.0,11046.0,3.0,1,
28400,1860.3,39.5,78.9,240.1,2819.0,11046.0,3.0,1,
28600,1860.3,38.1,78.8,239.6,2819.0,11046.0,3.0,1,
28700,1860.0,38.3,78.6,239.2,2819.0,11046.0,3.0,1,
28800,1858.3,123.3,78.6,239.8,941.0,4935.0,3.0,1,
28900,1859.9,52.1,83.0,238.0,1341.0,6479.0,3.0,1,
29000,1879.4,83.3,87.2,57.3,2228.0,9991.0,3.0,1,
29100,1836.0,105.8,94.5,37.9,2317.0,10515.0,4.0,1,
29200,1835.1,73.7,91.1,34.9,2254.0,9797.0,3.0,1,
29300,1872.2,79.5,99.1,27.1,2711.0,11275.0,3.0,1,
29400,1856.8,64.8,99.8,28.7,2603.0,10711.0,4.0,1,
29600,1857.3,37.2,99.6,28.3,2603.0,10711.0,4.0,1,
29700,1855.4,37.7,99.5,29.0,2603.0,10711.0,4.0,1,
29800,1860.6,35.5,99.5,37.8,2603.0,10711.0,4.0,1,
29900,1859.1,36.3,99.4,239.5,2603.0,10711.0,4.0,1,
30000,1860.7,40.6,99.4,157.4,2603.0,10711.0,4.0,1,
30100,1860.3,32.0,99.4,166.9,2603.0,10711.0,4.0,1,
30200,1858.6,34.8,99.4,189.9,2603.0,10711.0,4.0,1,
30300,1859.5,47.1,99.3,183.1,2603.0,10711.0,4.0,1,
30400,1860.8,29.0,99.7,116.5,2603.0,10711.0,4.0,1,
30600,1829.9,62.0,95.4,66.3,1520.0,6983.0,2.0,0,
30700,1857.2,85.1,94.6,36.9,2025.0,8885.0,3.0,1,
30800,1866.8,53.3,78.1,28.1,2144.0,9640.0,3.0,1,
30900,1849.5,180.5,76.6,28.0,2020.0,8203.0,2.0,0,
31000,1883.8,151.2,77.7,28.2,2383.0,9980.0,2.0,0,
31100,1835.8,40.5,84.5,28.2,2383.0,9980.0,2.0,0,
31200,1856.6,35.2,84.5,28.1,2383.0,9980.0,2.0,0,
31300,1858.8,36.9,84.4,28.5,2383.0,9980.0,2.0,0,
31400,1859.8,36.5,84.4,29.2,2383.0,9980.0,2.0,0,
31600,1859.8,36.1,84.5,240.4,2383.0,9980.0,2.0,0,
31700,1861.5,36.9,84.3,240.4,2383.0,9980.0,2.0,0,
31800,1858.6,35.4,84.3,240.0,2383.0,9980.0,2.0,0,
31900,1859.8,36.4,84.4,239.9,2383.0,9980.0,2.0,0,
32000,1860.5,53.5,84.0,239.8,2383.0,9980.0,2.0,0,
32100,1853.1,128.5,85.5,240.0,1338.0,6701.0,3.0,1,
32200,1855.1,82.6,89.8,93.6,2006.0,9437.0,3.0,1,
32300,1851.2,118.3,90.4,46.9,2365.0,10996.0,4.0,1,
32400,1851.4,88.5,92.9,36.8,2286.0,10376.0,4.0,1,
32600,1822.4,86.2,95.7,27.8,2494.0,9832.0,3.0,1,
32700,1866.4,39.5,88.1,28.1,2442.0,10198.0,3.0,1,
32800,1859.8,40.1,88.1,28.3,2442.0,10198.0,3.0,1,
32900,1858.0,36.6,88.1,28.8,2442.0,10198.0,3.0,1,
33000,1860.5,35.6,88.1,55.6,2442.0,10198.0,3.0,1,
33100,1860.4,36.8,88.0,238.2,2442.0,10198.0,3.0,1,
33200,1860.0,36.5,88.0,239.9,2442.0,10198.0,3.0,1,
33300,1860.1,35.2,87.9,240.2,2442.0,10198.0,3.0,1,
33400,1859.6,38.2,87.8,240.2,2442.0,10198.0,3.0,1,
33600,1859.4,33.9,87.9,239.8,2442.0,10198.0,3.0,1,
33700,1858.4,99.1,87.5,239.5,1151.0,5940.0,3.0,1,
33800,1856.6,88.6,91.2,53.9,1695.0,8365.0,3.0,1,
33900,1861.3,90.6,96.0,36.7,2473.0,11237.0,4.0,1,
34000,1913.2,96.9,97.9,29.8,2610.0,12165.0,3.0,1,
34100,1803.7,90.1,94.2,29.4,2511.0,10450.0,4.0,1,
34200,1868.1,100.4,89.9,35.3,2806.0,11361.0,2.0,0,
34300,1875.2,43.7,98.1,35.3,2815.0,11735.0,3.0,1,
34400,1864.3,35.2,98.0,29.8,2815.0,11735.0,3.0,1,
34600,1859.1,38.5,98.0,35.1,2815.0,11735.0,3.0,1,
34700,1858.9,36.8,98.0,123.3,2815.0,11735.0,3.0,1,
34800,1861.5,39.2,98.0,240.3,2815.0,11735.0,3.0,1,
34900,1856.7,36.4,98.1,240.3,2815.0,11735.0,3.0,1,
35000,1860.8,38.1,98.2,239.9,2815.0,11735.0,3.0,1,
35100,1859.8,33.8,98.2,240.1,2815.0,11735.0,3.0,1,
35200,1859.5,37.7,98.1,240.4,2815.0,11735.0,3.0,1,
35300,1859.2,81.5,98.1,240.1,919.0,5399.0,3.0,1,
35400,1859.8,58.8,88.4,200.8,1699.0,8236.0,3.0,1,
35600,1813.8,258.9,82.2,38.3,2415.0,10270.0,3.0,1,
35700,1872.5,109.4,94.9,28.5,2583.0,11881.0,3.0,1,
35800,1879.1,78.0,94.2,29.0,2719.0,10906.0,3.0,1,
35900,1877.7,54.4,84.9,28.8,2826.0,11989.0,4.0,1,
36000,1844.5,36.4,84.7,29.1,2826.0,11989.0,4.0,1,
36100,1857.5,36.1,84.8,35.6,2826.0,11989.0,4.0,1,
36200,1857.5,35.4,84.8,69.4,2826.0,11989.0,4.0,1,
36300,1859.0,34.6,84.7,137.1,2826.0,11989.0,4.0,1,
36400,1860.1,36.6,84.7,239.9,2826.0,11989.0,4.0,1,
36600,1858.9,33.9,84.6,240.1,2826.0,11989.0,4.0,1,
36700,1859.2,35.6,84.6,240.1,2826.0,11989.0,4.0,1,
36800,1860.6,34.6,84.5,240.2,2826.0,11989.0,4.0,1,
36900,1860.7,42.4,84.5,240.2,1133.0,6062.0,3.0,1,
37000,1861.2,58.7,82.5,239.5,1513.0,7504.0,4.0,1,
37100,1835.0,75.6,82.6,85.1,1907.0,8638.0,4.0,1,
37200,1869.4,47.0,82.5,57.3,2581.0,12354.0,4.0,1,
37300,1865.3,110.7,58.3,37.5,2594.0,10998.0,3.0,1,
37400,1884.0,64.6,63.3,28.2,2944.0,12278.0,4.0,1,
37600,1857.4,36.6,64.0,29.1,2944.0,12278.0,4.0,1,
37700,1857.6,36.4,64.0,29.7,2944.0,12278.0,4.0,1,
37800,1857.4,35.1,64.1,34.2,2944.0,12278.0,4.0,1,
37900,1858.9,36.9,64.2,69.9,2944.0,12278.0,4.0,1,
38000,1858.4,37.4,64.2,240.2,2944.0,12278.0,4.0,1,
38100,1859.3,36.4,64.3,239.9,2944.0,12278.0,4.0,1,
38200,1859.1,35.8,64.3,239.7,2944.0,12278.0,4.0,1,
38300,1860.0,38.3,64.2,240.3,2944.0,12278.0,4.0,1,
38400,1862.7,36.5,64.3,240.8,2944.0,12278.0,4.0,1,
38600,1848.9,71.9,81.6,140.0,1153.0,5818.0,3.0,1,
38700,1865.9,40.3,82.0,36.0,1735.0,8767.0,4.0,1,
38800,1862.1,155.5,99.5,35.2,2247.0,10085.0,4.0,1,
38900,1886.7,111.2,102.9,30.2,2742.0,12265.0,3.0,1,
39000,1821.1,176.7,102.6,29.2,2579.0,10912.0,3.0,1,
39100,1855.7,72.4,114.2,27.8,3057.0,12182.0,3.0,1,
39200,1866.4,42.0,114.7,34.6,3056.0,12573.0,3.0,1,
39300,1858.8,34.2,114.7,35.8,3056.0,12573.0,3.0,1,
39400,1856.8,36.7,114.7,34.4,3056.0,12573.0,3.0,1,
39600,1858.9,36.0,114.7,238.7,3056.0,12573.0,3.0,1,
39700,1860.3,37.1,114.7,240.1,3056.0,12573.0,3.0,1,
39800,1861.2,36.6,114.7,239.9,3056.0,12573.0,3.0,1,
39900,1859.7,35.0,114.8,239.8,3056.0,12573.0,3.0,1,
40000,1861.0,35.3,114.8,240.3,3056.0,12573.0,3.0,1,
40100,1859.7,34.7,114.7,240.5,3056.0,12573.0,3.0,1,
40200,1860.1,68.5,102.5,240.1,1042.0,5443.0,3.0,1,
40300,1840.1,105.9,107.4,91.7,1587.0,6852.0,3.0,1,
40400,1897.0,56.0,105.4,39.7,2306.0,11117.0,4.0,1,
40600,1854.8,56.5,91.2,37.6,2998.0,12651.0,4.0,1,
40700,1866.9,75.6,77.5,34.5,2740.0,10845.0,2.0,0,
40800,1874.5,43.5,77.2,29.2,2863.0,11278.0,3.0,1,
40900,1859.9,38.4,77.1,29.3,2863.0,11278.0,3.0,1,
41000,1855.2,37.5,77.2,29.7,2863.0,11278.0,3.0,1,
41100,1860.2,33.2,77.2,39.6,2863.0,11278.0,3.0,1,
41200,1861.4,33.6,77.1,237.7,2863.0,11278.0,3.0,1,
41300,1860.6,36.1,77.0,239.8,2863.0,11278.0,3.0,1,
41400,1860.4,36.0,77.0,239.6,2863.0,11278.0,3.0,1,
41600,1860.6,36.7,77.0,240.2,2863.0,11278.0,3.0,1,
41700,1857.5,35.5,77.1,240.0,2863.0,11278.0,3.0,1,
41800,1848.2,177.1,77.1,239.6,554.0,2343.0,3.0,1,
41900,1870.9,61.6,91.5,39.3,446.0,2802.0,3.0,1,
42000,1868.6,39.0,82.6,30.0,601.0,2600.0,3.0,1,
42100,1847.3,32.4,82.1,29.6,694.0,3251.0,4.0,1,
42200,1861.9,24.7,80.7,28.8,578.0,2789.0,3.0,1,
42300,1853.8,48.2,77.7,27.7,687.0,2930.0,3.0,1,
42400,1875.6,41.5,76.2,28.2,596.0,2813.0,4.0,1,
42600,1860.8,35.3,75.7,28.2,596.0,2813.0,4.0,1,
42700,1860.9,36.3,75.7,29.2,596.0,2813.0,4.0,1,
42800,1858.6,36.0,75.8,89.5,596.0,2813.0,4.0,1,
42900,1858.9,33.8,75.8,239.5,596.0,2813.0,4.0,1,
43000,1860.6,34.6,75.7,239.8,596.0,2813.0,4.0,1,
43100,1857.7,34.3,75.7,239.8,596.0,2813.0,4.0,1,
43200,1860.5,31.8,75.7,239.8,596.0,2813.0,4.0,1,
43300,1860.1,35.4,75.6,239.4,596.0,2813.0,4.0,1,
43400,1860.7,27.9,75.6,239.1,733.0,3058.0,11.0,1,
43600,1851.5,26.4,49.2,68.9,492.0,2719.0,10.0,1,
43700,1865.1,25.2,48.7,28.5,526.0,2610.0,11.0,1,
43800,1852.5,41.2,47.9,27.7,467.0,2423.0,3.0,1,
43900,1857.8,130.7,49.5,28.0,542.0,2349.0,3.0,1,
44000,1855.8,45.0,68.1,27.9,544.0,2304.0,3.0,1,
44100,1866.8,32.9,68.1,27.9,544.0,2304.0,3.0,1,
44200,1859.8,35.1,68.2,29.3,544.0,2304.0,3.0,1,
44300,1858.5,36.5,68.1,34.7,544.0,2304.0,3.0,1,
44400,1857.3,33.1,68.1,122.6,544.0,2304.0,3.0,1,
44600,1859.5,36.1,68.0,240.7,544.0,2304.0,3.0,1,
44700,1858.5,35.8,68.1,239.7,544.0,2304.0,3.0,1,
44800,1857.8,35.5,68.2,239.6,544.0,2304.0,3.0,1,
44900,1858.8,34.1,68.2,239.6,544.0,2304.0,3.0,1,
45000,1858.5,29.7,68.2,240.2,544.0,2304.0,3.0,1,
45100,1851.8,120.2,69.0,240.5,463.0,2580.0,10.0,1,
45200,1866.8,60.2,83.2,38.0,546.0,2437.0,3.0,1,
45300,1853.8,39.2,83.1,28.7,410.0,2258.0,3.0,1,
45400,1852.1,38.8,83.3,29.0,521.0,2260.0,3.0,1,
45600,1866.5,49.6,81.3,29.5,411.0,1778.0,3.0,1,
45700,1849.0,34.0,80.9,30.1,458.0,2144.0,3.0,1,
45800,1857.6,36.9,81.0,35.7,458.0,2144.0,3.0,1,
45900,1858.6,34.4,81.1,36.5,458.0,2144.0,3.0,1,
46000,1860.3,33.9,81.1,42.1,458.0,2144.0,3.0,1,
46100,1858.5,35.1,81.2,239.1,458.0,2144.0,3.0,1,
46200,1861.4,32.3,81.2,239.9,458.0,2144.0,3.0,1,
46300,1859.7,34.1,81.2,240.1,458.0,2144.0,3.0,1,
46400,1860.3,32.4,81.1,240.1,458.0,2144.0,3.0,1,
46600,1859.7,31.8,81.0,240.3,458.0,2144.0,3.0,1,
46700,1871.8,45.1,81.1,239.9,586.0,2904.0,11.0,1,
46800,1847.0,64.8,72.3,55.9,422.0,2488.0,9.0,1,
46900,1853.3,43.8,67.0,28.1,559.0,2016.0,3.0,1,
47000,1864.0,55.0,66.9,27.3,521.0,2235.0,3.0,1,
47100,1864.7,25.3,67.4,28.2,449.0,2168.0,3.0,1,
47200,1846.2,106.0,63.6,28.9,456.0,2219.0,2.0,0,
47300,1858.4,39.3,60.4,28.6,517.0,2112.0,3.0,1,
47400,1856.4,33.3,60.4,29.1,517.0,2112.0,3.0,1,
47600,1858.0,32.6,60.2,28.8,517.0,2112.0,3.0,1,
47700,1858.7,34.0,60.2,178.0,517.0,2112.0,3.0,1,
47800,1858.0,34.8,60.1,240.0,517.0,2112.0,3.0,1,
47900,1857.2,32.8,60.1,240.0,517.0,2112.0,3.0,1,
48000,1858.1,33.7,60.1,239.9,517.0,2112.0,3.0,1,
48100,1858.0,31.9,60.1,240.4,517.0,2112.0,3.0,1,
48200,1856.2,33.5,60.1,240.9,517.0,2112.0,3.0,1,
48300,1851.0,32.7,60.1,240.3,635.0,3086.0,12.0,1,
48400,1873.3,151.1,56.7,238.3,465.0,2557.0,11.0,1,
48600,1855.0,96.5,79.1,29.3,518.0,2361.0,3.0,1,
48700,1837.3,53.3,87.9,27.5,527.0,2268.0,3.0,1,
48800,1862.9,28.5,88.9,27.2,417.0,2169.0,3.0,1,
48900,1863.4,40.8,82.7,29.0,599.0,2751.0,3.0,1,
49000,1858.9,31.4,82.9,29.4,599.0,2751.0,3.0,1,
49100,1857.9,33.0,82.9,29.4,599.0,2751.0,3.0,1,
49200,1857.8,35.2,82.9,36.0,599.0,2751.0,3.0,1,
49300,1858.9,32.3,83.0,124.5,599.0,2751.0,3.0,1,
49400,1856.8,33.2,83.0,239.6,599.0,2751.0,3.0,1,
49600,1859.8,32.1,82.9,240.1,599.0,2751.0,3.0,1,
49700,1856.0,34.9,83.0,240.3,599.0,2751.0,3.0,1,
49800,1858.8,34.3,83.0,240.3,599.0,2751.0,3.0,1,
49900,1859.0,136.0,83.0,240.1,552.0,2809.0,12.0,1,
50000,1864.0,34.9,92.1,140.8,433.0,2888.0,11.0,1,
50100,1847.2,59.1,78.8,29.4,515.0,2495.0,3.0,1,
50200,1841.6,94.0,77.2,29.2,537.0,2357.0,3.0,1,
50300,1869.2,91.4,74.5,29.5,511.0,2233.0,3.0,1,
50400,1869.8,55.4,83.9,34.4,565.0,2202.0,3.0,1,
50600,1866.5,34.7,83.5,36.4,565.0,2202.0,3.0,1,
50700,1859.5,35.8,83.5,35.5,565.0,2202.0,3.0,1,
50800,1858.5,34.4,83.6,29.8,565.0,2202.0,3.0,1,
50900,1855.4,35.0,83.5,125.3,565.0,2202.0,3.0,1,
51000,1859.4,37.3,83.5,240.1,565.0,2202.0,3.0,1,
51100,1860.6,34.0,83.6,240.3,565.0,2202.0,3.0,1,
51200,1856.7,33.3,83.6,240.1,565.0,2202.0,3.0,1,
51300,1857.0,34.6,83.7,239.9,565.0,2202.0,3.0,1,
51400,1862.1,34.3,83.7,239.8,565.0,2202.0,3.0,1,
51600,1847.9,59.0,74.5,239.5,481.0,2370.0,10.0,1,
51700,1852.7,45.1,79.3,94.0,401.0,2196.0,3.0,1,
51800,1866.8,60.2,91.1,41.3,585.0,2384.0,3.0,1,
51900,1858.5,121.1,87.0,34.8,587.0,2262.0,3.0,1,
52000,1852.9,78.0,84.4,29.7,439.0,1803.0,3.0,1,
52100,1866.6,40.7,91.6,29.6,529.0,2493.0,3.0,1,
52200,1848.7,37.7,91.6,29.5,539.0,2399.0,3.0,1,
52300,1858.2,36.0,91.7,29.3,539.0,2399.0,3.0,1,
52400,1859.8,31.6,91.7,29.8,539.0,2399.0,3.0,1,
52600,1859.2,34.0,91.8,239.7,539.0,2399.0,3.0,1,
52700,1855.9,35.2,91.8,239.9,539.0,2399.0,3.0,1,
52800,1858.2,36.2,91.8,239.7,539.0,2399.0,3.0,1,
52900,1857.2,33.7,91.7,240.3,539.0,2399.0,3.0,1,
53000,1855.6,36.3,91.7,240.5,539.0,2399.0,3.0,1,
53100,1859.2,36.0,91.7,240.1,539.0,2399.0,3.0,1,
53200,1852.5,42.7,92.0,240.3,423.0,2520.0,11.0,1,
53300,1868.2,35.1,89.7,187.9,586.0,2213.0,3.0,1,
53400,1848.7,39.3,77.7,42.2,567.0,2211.0,4.0,1,
53600,1870.4,56.0,78.0,27.9,515.0,2434.0,3.0,1,
53700,1852.0,37.5,69.5,28.3,480.0,1874.0,3.0,1,
53800,1851.4,33.3,69.3,29.2,505.0,2394.0,3.0,1,
53900,1858.2,35.3,69.3,29.5,505.0,2394.0,3.0,1,
54000,1858.8,35.9,69.2,30.0,505.0,2394.0,3.0,1,
54100,1858.8,36.0,69.3,91.2,505.0,2394.0,3.0,1,
54200,1858.9,35.7,69.3,240.0,505.0,2394.0,3.0,1,
54300,1860.0,38.4,69.3,240.4,505.0,2394.0,3.0,1,
54400,1859.9,35.9,69.3,239.9,505.0,2394.0,3.0,1,
54600,1860.3,36.7,69.4,240.2,505.0,2394.0,3.0,1,
54700,1859.7,41.8,69.5,240.3,505.0,2394.0,3.0,1,
54800,1863.2,28.6,69.6,240.1,520.0,2458.0,3.0,1,
54900,1859.1,60.5,66.7,239.2,543.0,2570.0,3.0,1,
55000,1867.6,28.1,69.1,66.4,549.0,2659.0,3.0,1,
55100,1869.8,67.1,69.1,28.7,569.0,2239.0,3.0,1,
55200,1851.3,64.9,58.7,29.1,460.0,2280.0,4.0,1,
55300,1854.2,66.3,65.1,28.8,541.0,2722.0,3.0,1,
55400,1872.4,41.3,66.7,26.2,582.0,2281.0,3.0,1,
55600,1859.9,37.2,66.8,40.2,582.0,2281.0,3.0,1,
55700,1859.4,37.2,66.8,57.1,582.0,2281.0,3.0,1,
55800,1860.4,38.1,66.7,227.5,582.0,2281.0,3.0,1,
55900,1861.9,36.2,66.8,240.1,582.0,2281.0,3.0,1,
56000,1855.5,36.5,66.7,240.3,582.0,2281.0,3.0,1,
56100,1857.7,38.9,66.8,240.3,582.0,2281.0,3.0,1,
56200,1860.6,34.7,66.8,240.5,582.0,2281.0,3.0,1,
56300,1860.2,35.9,66.7,240.4,582.0,2281.0,3.0,1,
56400,1862.5,218.9,66.5,240.1,481.0,2880.0,3.0,1,
56600,1843.2,64.1,96.1,35.3,612.0,2733.0,4.0,1,
56700,1859.4,47.9,96.6,35.0,599.0,2304.0,4.0,1,
56800,1859.2,121.7,94.1,35.0,1034.0,4730.0,3.0,1,
56900,1865.3,54.7,97.5,34.8,824.0,3406.0,3.0,1,
57000,1850.6,50.6,100.1,35.1,918.0,3744.0,4.0,1,
57100,1871.0,35.8,100.1,35.5,918.0,3744.0,4.0,1,
57200,1860.3,38.3,100.1,36.1,918.0,3744.0,4.0,1,
57300,1860.3,38.6,100.1,37.8,918.0,3744.0,4.0,1,
57400,1861.6,34.7,100.1,84.5,918.0,3744.0,4.0,1,
57600,1860.6,36.1,100.0,239.9,918.0,3744.0,4.0,1,
57700,1861.2,36.9,100.0,240.1,918.0,3744.0,4.0,1,
57800,1859.3,34.9,99.9,240.5,918.0,3744.0,4.0,1,
57900,1861.5,35.4,100.0,240.2,918.0,3744.0,4.0,1,
58000,1859.9,46.4,100.0,240.2,918.0,3744.0,4.0,1,
58100,1843.3,83.8,87.7,240.3,950.0,4501.0,4.0,1,
58200,1877.3,42.1,84.4,88.8,1305.0,5210.0,3.0,1,
58300,1845.2,45.4,78.2,55.1,1786.0,7633.0,3.0,1,
58400,1862.7,58.7,78.5,45.5,1572.0,6631.0,3.0,1,
58600,1852.3,163.9,69.9,28.6,1667.0,7505.0,3.0,1,
58700,1871.1,41.8,80.0,28.6,1661.0,6693.0,3.0,1,
58800,1861.7,36.3,80.1,28.8,1661.0,6693.0,3.0,1,
58900,1859.1,36.0,80.0,29.1,1661.0,6693.0,3.0,1,
59000,1860.5,36.9,80.0,29.5,1661.0,6693.0,3.0,1,
59100,1860.4,37.2,80.0,84.5,1661.0,6693.0,3.0,1,
59200,1858.4,35.4,80.1,240.3,1661.0,6693.0,3.0,1,
59300,1859.6,35.1,80.1,240.3,1661.0,6693.0,3.0,1,
59400,1859.4,34.8,80.1,240.4,1661.0,6693.0,3.0,1,
59600,1858.4,36.3,80.1,240.1,1661.0,6693.0,3.0,1,
59700,1860.4,86.6,91.8,178.0,995.0,4019.0,3.0,1,
59800,1854.2,46.6,88.8,37.5,1439.0,6251.0,3.0,1,
59900,1852.6,75.0,102.8,37.0,1329.0,5590.0,3.0,1,
60000,1863.5,65.6,102.6,35.9,2193.0,9264.0,3.0,1,
60100,1866.4,60.5,104.9,29.6,2098.0,8621.0,3.0,1,
60200,1876.8,80.4,107.7,29.3,2209.0,8357.0,3.0,1,
60300,1830.6,40.2,99.0,35.5,2262.0,8997.0,3.0,1,
60400,1860.1,34.3,99.0,34.5,2262.0,8997.0,3.0,1,
60600,1857.6,37.5,99.0,38.0,2262.0,8997.0,3.0,1,
60700,1859.9,36.0,99.0,239.5,2262.0,8997.0,3.0,1,
60800,1859.6,37.3,99.0,239.8,2262.0,8997.0,3.0,1,
60900,1860.8,36.3,99.0,239.8,2262.0,8997.0,3.0,1,
61000,1861.1,34.2,98.9,240.2,2262.0,8997.0,3.0,1,
61100,1859.4,33.7,98.9,240.2,2262.0,8997.0,3.0,1,
61200,1858.6,35.0,99.0,240.2,2262.0,8997.0,3.0,1,
61300,1867.6,71.2,87.8,240.6,794.0,3648.0,3.0,1,
61400,1849.3,92.8,85.5,194.5,1025.0,3878.0,2.0,0,
61600,1872.6,52.9,77.1,45.6,1254.0,4944.0,3.0,1,
61700,1854.6,51.8,74.4,36.0,1579.0,6404.0,4.0,1,
61800,1842.8,58.6,63.9,27.7,1600.0,6911.0,4.0,1,
61900,1868.0,36.9,63.5,28.3,1676.0,6203.0,3.0,1,
62000,1864.3,35.8,63.7,29.1,1676.0,6203.0,3.0,1,
62100,1857.5,37.1,63.7,29.7,1676.0,6203.0,3.0,1,
62200,1860.0,36.1,63.7,43.9,1676.0,6203.0,3.0,1,
62300,1858.4,34.2,63.8,206.7,1676.0,6203.0,3.0,1,
62400,1859.9,38.3,63.8,240.0,1676.0,6203.0,3.0,1,
62600,1860.2,34.1,63.8,240.3,1676.0,6203.0,3.0,1,
62700,1858.9,37.6,63.8,240.0,1676.0,6203.0,3.0,1,
62800,1860.6,37.4,63.8,240.2,1676.0,6203.0,3.0,1,
62900,1860.7,26.4,63.9,240.4,595.0,2814.0,3.0,1,
63000,1858.8,59.7,72.0,238.1,898.0,3892.0,3.0,1,
63100,1869.0,35.3,63.7,41.0,1097.0,4160.0,3.0,1,
63200,1836.7,51.1,62.7,29.0,1308.0,5968.0,3.0,1,
63300,1854.2,148.9,62.4,28.6,1259.0,5330.0,3.0,1,
63400,1870.9,76.9,77.4,28.1,1243.0,4675.0,3.0,1,
63600,1862.3,36.9,76.5,28.5,1243.0,4675.0,3.0,1,
63700,1858.7,36.9,76.5,29.5,1243.0,4675.0,3.0,1,
63800,1857.9,36.6,76.5,30.1,1243.0,4675.0,3.0,1,
63900,1858.1,37.2,76.5,165.9,1243.0,4675.0,3.0,1,
64000,1861.0,37.4,76.5,240.0,1243.0,4675.0,3.0,1,
64100,1859.0,35.5,76.5,240.1,1243.0,4675.0,3.0,1,
64200,1860.3,36.0,76.5,240.1,1243.0,4675.0,3.0,1,
64300,1858.2,34.1,76.5,240.0,1243.0,4675.0,3.0,1,
64400,1859.6,35.4,76.4,239.8,1243.0,4675.0,3.0,1,
64600,1843.3,25.4,71.2,239.6,567.0,2636.0,10.0,1,
64700,1867.0,48.3,66.0,88.0,602.0,2902.0,3.0,1,
64800,1867.0,22.7,66.8,30.2,648.0,2637.0,3.0,1,
64900,1862.5,88.4,66.0,29.0,689.0,2612.0,3.0,1,
65000,1838.6,52.3,64.1,29.7,783.0,2820.0,3.0,1,
65100,1873.3,36.3,56.5,28.3,646.0,2616.0,3.0,1,
65200,1859.3,33.0,55.8,27.9,646.0,2616.0,3.0,1,
65300,1860.9,34.7,55.7,28.4,646.0,2616.0,3.0,1,
65400,1861.4,36.0,55.6,67.4,646.0,2616.0,3.0,1,
65600,1859.5,34.3,55.5,239.4,646.0,2616.0,3.0,1,
65700,1858.6,37.0,55.4,239.5,646.0,2616.0,3.0,1,
65800,1860.0,36.2,55.4,239.8,646.0,2616.0,3.0,1,
65900,1861.0,32.7,55.5,240.1,646.0,2616.0,3.0,1,
66000,1858.9,36.1,55.4,240.2,646.0,2616.0,3.0,1,
66100,1860.7,41.9,55.4,239.7,646.0,2616.0,3.0,1,
66200,1859.1,154.6,55.3,239.7,785.0,3704.0,3.0,1,
66300,1865.9,45.7,71.5,68.0,845.0,3599.0,3.0,1,
66400,1850.3,152.2,71.3,29.6,1168.0,4779.0,3.0,1,
66600,1884.5,46.9,76.6,28.9,1033.0,4026.0,3.0,1,
66700,1845.8,41.8,75.9,28.2,1065.0,4292.0,3.0,1,
66800,1854.9,37.0,76.4,27.7,996.0,4293.0,3.0,1,
66900,1860.5,36.7,76.4,28.1,996.0,4293.0,3.0,1,
67000,1858.3,34.0,76.5,29.7,996.0,4293.0,3.0,1,
67100,1856.6,35.4,76.5,56.0,996.0,4293.0,3.0,1,
67200,1860.5,37.6,76.4,239.9,996.0,4293.0,3.0,1,
67300,1862.0,36.7,76.5,240.2,996.0,4293.0,3.0,1,
67400,1859.2,34.3,76.5,239.8,996.0,4293.0,3.0,1,
67600,1861.1,35.9,76.5,240.0,996.0,4293.0,3.0,1,
67700,1859.2,35.7,76.5,240.0,996.0,4293.0,3.0,1,
67800,1861.3,50.7,77.8,239.8,544.0,2683.0,3.0,1,
67900,1858.1,46.3,63.2,99.7,800.0,3550.0,3.0,1,
68000,1858.7,37.7,66.3,28.6,908.0,3754.0,3.0,1,
68100,1874.2,49.0,50.5,28.4,1150.0,4846.0,3.0,1,
68200,1832.5,50.9,51.0,44.4,1066.0,4536.0,4.0,1,
68300,1861.8,33.1,51.1,47.6,912.0,3408.0,3.0,1,
68400,1866.8,47.6,54.8,28.7,1192.0,4611.0,3.0,1,
68600,1858.0,37.9,55.1,30.2,1192.0,4611.0,3.0,1,
68700,1857.9,37.0,55.1,35.1,1192.0,4611.0,3.0,1,
68800,1859.1,37.7,55.2,125.3,1192.0,4611.0,3.0,1,
68900,1860.1,37.0,55.2,240.1,1192.0,4611.0,3.0,1,
69000,1859.2,38.9,55.2,240.4,1192.0,4611.0,3.0,1,
69100,1860.8,36.1,55.3,240.4,1192.0,4611.0,3.0,1,
69200,1860.5,37.0,55.3,240.4,1192.0,4611.0,3.0,1,
69300,1859.2,36.4,55.4,239.8,1192.0,4611.0,3.0,1,
69400,1858.7,111.0,55.2,239.7,638.0,3164.0,3.0,1,
69600,1869.0,74.5,56.2,29.9,1139.0,4790.0,3.0,1,
69700,1837.5,71.5,59.9,29.4,1066.0,4264.0,3.0,1,
69800,1867.7,138.3,64.8,29.3,984.0,3698.0,3.0,1,
69900,1865.6,68.3,71.1,28.3,1106.0,4831.0,3.0,1,
70000,1864.7,36.3,70.6,38.1,979.0,3613.0,4.0,1,
70100,1855.4,35.5,68.5,41.7,979.0,3613.0,4.0,1,
70200,1859.7,39.4,68.4,39.5,979.0,3613.0,4.0,1,
70300,1860.8,36.6,68.4,56.1,979.0,3613.0,4.0,1,
70400,1858.9,36.2,68.3,238.2,979.0,3613.0,4.0,1,
70600,1860.0,38.4,68.3,240.6,979.0,3613.0,4.0,1,
70700,1861.3,37.2,68.3,240.1,979.0,3613.0,4.0,1,
70800,1858.5,39.9,68.3,239.8,979.0,3613.0,4.0,1,
70900,1861.0,36.3,68.3,240.3,979.0,3613.0,4.0,1,
71000,1857.8,29.0,68.2,240.1,510.0,2617.0,3.0,1,
71100,1852.9,53.6,62.2,239.5,673.0,3285.0,4.0,1,
71200,1856.0,126.9,63.8,116.6,781.0,3598.0,3.0,1,
71300,1864.2,73.8,71.0,47.4,1164.0,4514.0,3.0,1,
71400,1856.6,64.9,76.7,28.8,1372.0,5468.0,4.0,1,
71600,1848.8,50.1,88.9,29.4,1327.0,5488.0,3.0,1,
71700,1860.2,38.1,89.5,29.5,1327.0,5488.0,3.0,1,
71800,1857.4,39.0,89.5,28.8,1327.0,5488.0,3.0,1,
71900,1858.8,38.5,89.5,27.7,1327.0,5488.0,3.0,1,
72000,1860.2,37.9,89.6,69.0,1327.0,5488.0,3.0,1,
72100,1860.0,39.3,89.6,240.5,1327.0,5488.0,3.0,1,
72200,1859.4,37.7,89.7,240.5,1327.0,5488.0,3.0,1,
72300,1859.9,38.5,89.7,240.1,1327.0,5488.0,3.0,1,
72400,1859.5,36.0,89.7,239.9,1327.0,5488.0,3.0,1,
72600,1860.1,45.2,89.7,239.9,1327.0,5488.0,3.0,1,
72700,1863.1,210.1,90.3,239.8,509.0,2801.0,3.0,1,
72800,1863.5,71.0,102.7,85.1,968.0,4140.0,3.0,1,
72900,1845.9,107.9,101.2,30.1,967.0,4500.0,3.0,1,
73000,1876.1,134.5,97.9,27.7,1308.0,5006.0,2.0,0,
73100,1846.8,54.8,103.2,26.1,1331.0,5597.0,3.0,1,
73200,1865.2,73.0,88.2,36.0,1284.0,4806.0,3.0,1,
73300,1857.4,37.9,91.8,38.4,1445.0,5354.0,3.0,1,
73400,1859.1,36.7,91.8,35.2,1445.0,5354.0,3.0,1,
73600,1858.5,36.8,91.7,39.3,1445.0,5354.0,3.0,1,
73700,1859.3,35.9,91.7,238.6,1445.0,5354.0,3.0,1,
73800,1860.7,38.8,91.6,240.3,1445.0,5354.0,3.0,1,
73900,1861.1,39.9,91.6,239.9,1445.0,5354.0,3.0,1,
74000,1859.1,39.0,91.6,240.0,1445.0,5354.0,3.0,1,
74100,1859.4,37.6,91.6,240.1,1445.0,5354.0,3.0,1,
74200,1860.4,39.3,91.7,239.9,1445.0,5354.0,3.0,1,
74300,1870.2,70.9,92.2,240.0,512.0,2541.0,4.0,1,
74400,1842.3,82.7,82.2,56.8,869.0,3746.0,4.0,1,
74600,1846.5,41.5,86.2,29.1,1665.0,7282.0,3.0,1,
74700,1852.2,51.5,75.8,28.6,2129.0,8822.0,4.0,1,
74800,1861.4,120.6,76.6,28.1,3063.0,11807.0,2.0,0,
74900,1875.4,44.2,89.0,27.9,3019.0,12373.0,3.0,1,
75000,1862.2,40.0,89.1,28.1,3019.0,12373.0,3.0,1,
75100,1859.7,39.7,89.1,29.8,3019.0,12373.0,3.0,1,
75200,1859.5,39.0,89.2,35.1,3019.0,12373.0,3.0,1,
75300,1859.8,38.0,89.2,172.7,3019.0,12373.0,3.0,1,
75400,1861.5,38.0,89.3,239.8,3019.0,12373.0,3.0,1,
75600,1858.3,39.4,89.2,239.5,3019.0,12373.0,3.0,1,
75700,1859.7,37.0,89.3,239.2,3019.0,12373.0,3.0,1,
75800,1858.4,37.6,89.3,239.5,3019.0,12373.0,3.0,1,
75900,1861.0,108.6,89.0,239.6,2217.0,10755.0,3.0,1,
76000,1906.2,169.5,92.9,117.6,3090.0,14396.0,3.0,1,
76100,1807.0,218.9,108.8,68.5,2978.0,10962.0,2.0,0,
76200,1861.7,397.1,136.3,66.5,3309.0,12266.0,3.0,1,
76300,1881.8,203.7,163.5,67.8,3329.0,13765.0,3.0,1,
76400,1888.4,99.9,181.4,37.1,3216.0,12089.0,3.0,1,
76600,1844.0,38.9,173.4,27.9,3216.0,12089.0,3.0,1,
76700,1858.8,37.0,173.4,37.9,3216.0,12089.0,3.0,1,
76800,1857.1,38.8,173.4,42.1,3216.0,12089.0,3.0,1,
76900,1856.9,38.4,173.5,218.0,3216.0,12089.0,3.0,1,
77000,1858.0,38.4,173.5,239.9,3216.0,12089.0,3.0,1,
77100,1861.4,39.5,173.5,240.4,3216.0,12089.0,3.0,1,
77200,1860.7,39.7,173.4,240.3,3216.0,12089.0,3.0,1,
77300,1861.4,37.4,173.4,240.4,3216.0,12089.0,3.0,1,
77400,1860.8,41.2,173.4,240.1,3216.0,12089.0,3.0,1,
77600,1837.3,89.6,173.1,239.4,2890.0,13379.0,4.0,1,
77700,1873.5,78.7,163.1,70.4,3291.0,13808.0,4.0,1,
77800,1885.1,75.0,143.8,40.8,3257.0,13798.0,4.0,1,
77900,1901.4,124.4,109.4,36.7,3585.0,12826.0,3.0,1,
78000,1832.3,212.8,100.4,28.0,3115.0,10255.0,2.0,0,
78100,1859.5,190.4,129.5,29.6,2851.0,8873.0,2.0,0,
78200,1877.1,44.0,141.1,48.6,2851.0,8873.0,2.0,0,
78300,1859.6,42.5,141.0,81.5,2851.0,8873.0,2.0,0,
78400,1860.4,38.5,141.1,79.8,2851.0,8873.0,2.0,0,
78600,1858.1,36.8,141.0,159.1,2851.0,8873.0,2.0,0,
78700,1860.6,40.4,140.9,240.5,2851.0,8873.0,2.0,0,
78800,1861.0,38.9,141.0,240.4,2851.0,8873.0,2.0,0,
78900,1857.1,41.3,141.0,240.3,2851.0,8873.0,2.0,0,
79000,1864.7,51.4,141.2,239.8,2851.0,8873.0,2.0,0,
79100,1856.3,22.0,141.4,212.2,2851.0,8873.0,2.0,0,
79200,1857.2,318.0,141.3,73.4,2984.0,14532.0,4.0,1,
79300,1883.7,180.4,159.4,76.1,2956.0,10837.0,2.0,0,
79400,1908.1,254.6,182.4,89.3,3097.0,10161.0,2.0,0,
79600,1871.9,283.9,207.7,87.4,3190.0,9821.0,2.0,0,
79700,1882.1,147.4,225.5,71.3,3615.0,13652.0,3.0,1,
79800,1867.6,42.5,212.3,72.8,3655.0,13820.0,3.0,1,
79900,1860.1,37.6,212.3,41.2,3655.0,13820.0,3.0,1,
80000,1859.9,35.7,212.3,27.7,3655.0,13820.0,3.0,1,
80100,1858.0,36.8,212.3,26.8,3655.0,13820.0,3.0,1,
80200,1861.9,37.0,212.3,207.3,3655.0,13820.0,3.0,1,
80300,1859.8,32.7,212.3,240.3,3655.0,13820.0,3.0,1,
80400,1860.2,38.7,212.2,240.3,3655.0,13820.0,3.0,1,
80600,1859.2,37.8,212.3,235.0,3655.0,13820.0,3.0,1,
80700,1859.2,37.8,212.0,237.9,3655.0,13820.0,3.0,1,
80800,1854.4,161.1,219.0,210.1,2151.0,8894.0,2.0,0,
80900,1918.0,281.5,217.4,150.3,2944.0,10790.0,2.0,0,
81000,1813.3,282.3,217.8,151.2,3200.0,10837.0,2.0,0,
81100,1878.5,193.6,219.7,91.7,3077.0,9917.0,2.0,0,
81200,1868.6,177.8,225.2,39.5,2979.0,9751.0,2.0,0,
81300,1861.2,295.9,220.9,44.7,2639.0,8839.0,2.0,0,
81400,1894.1,59.6,223.5,71.3,3180.0,9887.0,2.0,0,
81600,1859.6,36.3,223.5,86.6,3180.0,9887.0,2.0,0,
81700,1860.9,38.5,223.5,123.4,3180.0,9887.0,2.0,0,
81800,1859.5,34.3,223.5,208.8,3180.0,9887.0,2.0,0,
81900,1860.9,37.9,223.5,240.0,3180.0,9887.0,2.0,0,
82000,1859.7,37.6,223.6,239.3,3180.0,9887.0,2.0,0,
82100,1860.0,38.6,223.5,239.5,3180.0,9887.0,2.0,0,
82200,1859.0,35.7,223.5,240.0,3180.0,9887.0,2.0,0,
82300,1858.7,40.1,223.5,240.2,3180.0,9887.0,2.0,0,
82400,1887.5,245.1,220.5,239.9,1943.0,8608.0,2.0,0,
82600,1867.6,172.2,227.0,98.8,3098.0,10232.0,2.0,0,
82700,1870.6,294.2,222.7,94.3,2951.0,10419.0,2.0,0,
82800,1872.3,328.8,225.4,68.6,3215.0,9903.0,2.0,0,
82900,1918.7,249.6,227.6,41.6,3508.0,11058.0,2.0,0,
83000,1830.6,108.2,229.9,41.9,2923.0,9355.0,2.0,0,
83100,1878.1,40.9,230.6,40.8,2923.0,9355.0,2.0,0,
83200,1860.9,38.3,230.6,45.6,2923.0,9355.0,2.0,0,
83300,1860.2,38.5,230.6,47.8,2923.0,9355.0,2.0,0,
83400,1858.1,36.1,230.6,41.7,2923.0,9355.0,2.0,0,
83600,1859.8,33.9,230.6,240.2,2923.0,9355.0,2.0,0,
83700,1856.6,36.1,230.6,239.9,2923.0,9355.0,2.0,0,
83800,1859.6,37.1,230.6,239.1,2923.0,9355.0,2.0,0,
83900,1859.8,37.1,230.7,239.8,2923.0,9355.0,2.0,0,
84000,1860.2,41.9,230.6,239.8,1821.0,9186.0,3.0,1,
84100,1841.7,211.5,228.5,178.7,2049.0,7896.0,2.0,0,
84200,1878.8,324.5,225.3,90.8,2213.0,8211.0,2.0,0,
84300,1887.5,169.8,231.5,80.9,2622.0,8445.0,2.0,0,
84400,1872.2,215.3,231.7,71.7,3114.0,9914.0,2.0,0,
84600,1889.5,126.2,218.4,46.7,3721.0,11470.0,2.0,0,
84700,1872.9,41.2,217.6,49.8,3721.0,11470.0,2.0,0,
84800,1860.2,36.0,217.6,79.9,3721.0,11470.0,2.0,0,
84900,1858.5,35.1,217.6,83.7,3721.0,11470.0,2.0,0,
85000,1857.7,38.2,217.6,68.5,3721.0,11470.0,2.0,0,
85100,1859.1,34.4,217.6,208.2,3721.0,11470.0,2.0,0,
85200,1858.4,37.0,217.6,239.9,3721.0,11470.0,2.0,0,
85300,1860.5,37.1,217.6,237.5,3721.0,11470.0,2.0,0,
85400,1858.3,36.4,217.6,178.0,3721.0,11470.0,2.0,0,
85600,1858.2,318.5,217.6,240.7,3721.0,11470.0,2.0,0,
85700,1858.7,65.1,230.2,53.1,2182.0,10271.0,3.0,1,
85800,1900.3,91.1,211.4,37.1,2848.0,11523.0,3.0,1,
85900,1837.6,147.3,189.4,37.1,2942.0,11134.0,3.0,1,
86000,1846.3,298.5,171.7,37.0,2166.0,8251.0,28.0,0,
86100,1882.2,357.1,175.8,39.5,2898.0,9408.0,2.0,0,
86200,1876.8,165.2,171.7,84.3,2449.0,7854.0,2.0,0,
86300,1860.5,41.3,173.0,93.0,2656.0,8470.0,2.0,0,
86400,1860.0,34.4,173.1,93.1,2656.0,8470.0,2.0,0,
86600,1858.5,39.0,173.0,164.7,2656.0,8470.0,2.0,0,
86700,1859.3,41.1,172.9,225.7,2656.0,8470.0,2.0,0,
86800,1859.0,39.1,173.1,239.4,2656.0,8470.0,2.0,0,
86900,1860.6,36.1,173.0,148.1,2656.0,8470.0,2.0,0,
87000,1860.3,34.8,173.0,78.5,2656.0,8470.0,2.0,0,
87100,1859.4,43.3,172.9,203.5,2656.0,8470.0,2.0,0,
87200,1859.8,44.3,172.9,239.9,2656.0,8470.0,2.0,0,
87300,1900.3,96.3,155.5,239.0,2448.0,11383.0,3.0,1,
87400,1822.1,227.2,156.7,79.0,2800.0,10729.0,3.0,1,
87600,1889.2,238.1,176.1,27.3,2849.0,9141.0,2.0,0,
87700,1869.0,171.2,176.7,38.7,2298.0,7672.0,2.0,0,
87800,1903.1,303.9,173.5,41.9,2448.0,8883.0,2.0,0,
87900,1835.5,49.6,181.6,48.4,2777.0,8931.0,2.0,0,
88000,1860.9,37.7,181.6,68.5,2777.0,8931.0,2.0,0,
88100,1860.4,37.2,181.6,71.6,2777.0,8931.0,2.0,0,
88200,1859.1,35.7,181.6,86.6,2777.0,8931.0,2.0,0,
88300,1859.5,34.7,181.6,177.5,2777.0,8931.0,2.0,0,
88400,1859.5,35.4,181.5,167.0,2777.0,8931.0,2.0,0,
88600,1857.2,37.1,181.5,239.6,2777.0,8931.0,2.0,0,
88700,1858.1,37.9,181.6,240.2,2777.0,8931.0,2.0,0,
88800,1858.6,32.4,181.6,239.6,2777.0,8931.0,2.0,0,
88900,1858.5,222.3,181.5,239.4,1685.0,7708.0,2.0,0,
89000,1853.9,317.8,192.9,149.8,2599.0,9436.0,2.0,0,
89100,1867.5,144.9,203.6,155.6,2580.0,8658.0,2.0,0,
89200,1857.3,254.8,212.7,152.2,2193.0,8487.0,2.0,0,
89300,1927.6,309.0,213.9,88.8,2350.0,8859.0,2.0,0,
89400,1828.6,204.4,216.3,72.8,2758.0,8464.0,2.0,0,
89600,1869.6,40.0,212.2,94.4,2758.0,8464.0,2.0,0,
89700,1858.5,35.7,212.2,93.5,2758.0,8464.0,2.0,0,
89800,1859.6,37.0,212.2,75.4,2758.0,8464.0,2.0,0,
89900,1859.4,36.5,212.2,71.5,2758.0,8464.0,2.0,0,
90000,1857.4,34.6,212.2,239.4,2758.0,8464.0,2.0,0,
90100,1859.4,35.9,212.2,240.4,2758.0,8464.0,2.0,0,
90200,1862.2,34.4,212.2,240.2,2758.0,8464.0,2.0,0,
90300,1859.5,34.1,212.1,240.0,2758.0,8464.0,2.0,0,
90400,1857.0,36.5,212.1,239.7,2758.0,8464.0,2.0,0,
90600,1843.5,131.2,204.4,177.8,2383.0,10662.0,4.0,1,
90700,1865.8,105.2,185.6,48.8,2853.0,11266.0,4.0,1,
90800,1914.1,62.3,166.0,28.5,2932.0,11788.0,4.0,1,
90900,1834.2,69.3,138.6,27.9,3210.0,11318.0,3.0,1,
91000,1864.5,213.1,108.1,29.0,3384.0,12348.0,3.0,1,
91100,1876.7,50.6,96.4,30.2,3071.0,11743.0,4.0,1,
91200,1862.7,35.2,81.6,34.6,3071.0,11743.0,4.0,1,
91300,1858.2,35.2,81.5,29.9,3071.0,11743.0,4.0,1,
91400,1860.4,36.7,81.5,30.0,3071.0,11743.0,4.0,1,
91600,1857.3,35.6,81.4,239.5,3071.0,11743.0,4.0,1,
91700,1859.8,36.0,81.4,239.4,3071.0,11743.0,4.0,1,
91800,1859.0,35.3,81.5,239.5,3071.0,11743.0,4.0,1,
91900,1860.8,37.7,81.5,240.0,3071.0,11743.0,4.0,1,
92000,1859.9,36.2,81.4,239.5,3071.0,11743.0,4.0,1,
92100,1858.5,43.8,81.4,239.6,3071.0,11743.0,4.0,1,
92200,1867.5,63.5,88.1,220.0,2193.0,11174.0,4.0,1,
92300,1877.1,82.9,88.8,29.7,2421.0,10680.0,3.0,1,
92400,1823.1,96.1,91.1,28.3,3044.0,11563.0,4.0,1,
92600,1884.5,210.4,121.0,44.2,2724.0,8543.0,2.0,0,
92700,1898.5,89.4,129.6,91.2,3433.0,12974.0,3.0,1,
92800,1839.4,38.4,130.1,99.9,3433.0,12974.0,3.0,1,
92900,1861.4,36.3,130.0,90.1,3433.0,12974.0,3.0,1,
93000,1857.8,32.5,130.1,43.7,3433.0,12974.0,3.0,1,
93100,1856.8,34.0,130.0,28.3,3433.0,12974.0,3.0,1,
93200,1857.5,34.8,130.0,239.8,3433.0,12974.0,3.0,1,
93300,1860.0,34.4,130.1,240.4,3433.0,12974.0,3.0,1,
93400,1860.8,34.5,130.0,240.6,3433.0,12974.0,3.0,1,
93600,1860.1,36.1,130.0,239.9,3433.0,12974.0,3.0,1,
93700,1859.6,56.5,130.1,240.1,3433.0,12974.0,3.0,1,
93800,1880.4,142.1,151.8,143.1,1804.0,7636.0,2.0,0,
93900,1827.6,239.8,170.2,48.8,2162.0,8349.0,2.0,0,
94000,1878.3,184.7,179.3,71.7,2782.0,9921.0,2.0,0,
94100,1876.3,84.1,186.4,72.3,2790.0,10618.0,3.0,1,
94200,1903.0,184.9,170.7,38.8,3135.0,12498.0,3.0,1,
94300,1820.9,213.7,163.5,30.3,3035.0,11005.0,3.0,1,
94400,1878.3,52.9,171.4,29.9,3233.0,11476.0,3.0,1,
94600,1859.1,34.0,171.5,27.0,3233.0,11476.0,3.0,1,
94700,1859.4,34.6,171.4,28.9,3233.0,11476.0,3.0,1,
94800,1859.3,34.0,171.4,41.2,3233.0,11476.0,3.0,1,
94900,1859.6,34.8,171.4,239.1,3233.0,11476.0,3.0,1,
95000,1860.1,37.1,171.4,238.7,3233.0,11476.0,3.0,1,
95100,1860.9,34.6,171.4,239.6,3233.0,11476.0,3.0,1,
95200,1858.0,34.4,171.5,239.8,3233.0,11476.0,3.0,1,
95300,1858.8,35.7,171.4,239.7,3233.0,11476.0,3.0,1,
95400,1844.0,142.4,153.6,239.9,1708.0,9223.0,4.0,1,
95600,1863.6,90.1,115.1,72.6,2249.0,9915.0,4.0,1,
95700,1887.8,75.2,100.1,66.3,2929.0,12007.0,4.0,1,
95800,1825.0,113.4,101.7,38.5,3532.0,13213.0,4.0,1,
95900,1872.9,71.6,95.5,28.8,3839.0,15049.0,3.0,1,
96000,1881.3,67.5,93.1,29.0,3243.0,10340.0,2.0,0,
96100,1867.7,38.2,93.1,29.8,3243.0,10340.0,2.0,0,
96200,1857.8,36.8,93.1,42.9,3243.0,10340.0,2.0,0,
96300,1857.5,36.9,93.3,84.1,3243.0,10340.0,2.0,0,
96400,1859.3,34.2,93.3,101.6,3243.0,10340.0,2.0,0,
96600,1861.0,36.9,93.4,240.0,3243.0,10340.0,2.0,0,
96700,1860.4,36.8,93.5,239.9,3243.0,10340.0,2.0,0,
96800,1858.7,38.0,93.5,239.7,3243.0,10340.0,2.0,0,
96900,1859.5,36.8,93.6,239.7,3243.0,10340.0,2.0,0,
97000,1858.9,50.6,93.7,239.9,1431.0,8440.0,4.0,1,
97100,1839.3,170.4,92.2,178.2,1847.0,7926.0,2.0,0,
97200,1906.9,294.3,118.4,85.6,2228.0,8910.0,2.0,0,
97300,1821.5,267.7,143.2,88.9,2945.0,9382.0,2.0,0,
97400,1873.1,198.1,166.2,93.4,3371.0,10928.0,2.0,0,
97600,1863.4,99.5,196.1,49.0,3709.0,11580.0,2.0,0,
97700,1880.5,38.7,195.2,51.9,3709.0,11580.0,2.0,0,
97800,1857.0,33.5,195.2,80.8,3709.0,11580.0,2.0,0,
97900,1859.8,34.7,195.1,75.5,3709.0,11580.0,2.0,0,
98000,1859.0,35.4,195.1,71.5,3709.0,11580.0,2.0,0,
98100,1858.2,32.8,195.2,236.5,3709.0,11580.0,2.0,0,
98200,1859.7,34.2,195.1,240.0,3709.0,11580.0,2.0,0,
98300,1860.4,35.6,195.1,240.0,3709.0,11580.0,2.0,0,
98400,1862.4,36.0,195.0,239.6,3709.0,11580.0,2.0,0,
98600,1858.7,57.3,194.9,240.0,1651.0,9184.0,4.0,1,
98700,1890.3,135.9,196.0,231.4,2033.0,10261.0,4.0,1,
98800,1826.8,110.4,194.4,91.3,2642.0,11749.0,3.0,1,
98900,1865.2,50.5,175.3,36.5,2764.0,11347.0,4.0,1,
99000,1869.6,255.4,154.9,29.3,2224.0,8540.0,28.0,0,
99100,1868.3,277.0,157.8,29.6,3234.0,10326.0,2.0,0,
99200,1907.2,134.4,156.6,76.4,3081.0,9782.0,2.0,0,
99300,1829.2,35.9,154.1,93.8,3081.0,9782.0,2.0,0,
99400,1860.4,31.7,154.0,73.7,3081.0,9782.0,2.0,0,
99600,1859.7,34.5,154.1,131.9,3081.0,9782.0,2.0,0,
99700,1858.1,34.1,154.1,214.5,3081.0,9782.0,2.0,0,
99800,1860.5,35.3,154.1,238.2,3081.0,9782.0,2.0,0,
99900,1857.8,31.7,154.1,239.5,3081.0,9782.0,2.0,0,
100000,1860.5,34.0,154.1,239.4,3081.0,9782.0,2.0,0,
100100,1859.6,34.3,154.1,239.5,3081.0,9782.0,2.0,0,
100200,1859.8,38.0,154.1,239.9,3081.0,9782.0,2.0,0,
100300,1859.5,59.6,152.7,238.7,1909.0,10091.0,4.0,1,
100400,1852.0,251.6,145.6,84.5,2207.0,11198.0,3.0,1,
100600,1892.5,66.3,151.4,35.3,2996.0,12550.0,4.0,1,
100700,1876.0,177.9,140.0,34.7,3413.0,13161.0,3.0,1,
100800,1829.2,216.2,120.7,34.6,3175.0,11031.0,2.0,0,
100900,1897.1,45.4,123.7,29.6,3268.0,10822.0,2.0,0,
101000,1859.6,35.3,123.8,37.1,3268.0,10822.0,2.0,0,
101100,1860.6,34.6,123.8,98.8,3268.0,10822.0,2.0,0,
101200,1860.0,33.5,123.7,167.7,3268.0,10822.0,2.0,0,
101300,1857.5,32.6,123.7,237.3,3268.0,10822.0,2.0,0,
101400,1859.9,32.3,123.7,239.6,3268.0,10822.0,2.0,0,
101600,1858.0,34.5,123.7,240.5,3268.0,10822.0,2.0,0,
101700,1861.3,32.9,123.7,240.5,3268.0,10822.0,2.0,0,
101800,1861.5,35.1,123.7,240.2,3268.0,10822.0,2.0,0,
101900,1844.3,206.7,124.4,240.2,1674.0,8366.0,2.0,0,
102000,1875.3,282.5,138.2,167.2,2266.0,9044.0,2.0,0,
102100,1898.1,190.4,154.4,195.3,2526.0,9483.0,2.0,0,
102200,1832.2,206.7,170.4,157.9,2514.0,8468.0,2.0,0,
102300,1843.8,283.5,184.6,72.3,2269.0,9521.0,2.0,0,
102400,1877.3,330.8,189.0,52.2,2521.0,8262.0,2.0,0,
102600,1863.9,36.3,198.6,103.2,2521.0,8262.0,2.0,0,
102700,1860.2,33.2,198.6,81.8,2521.0,8262.0,2.0,0,
102800,1858.7,36.1,198.6,71.5,2521.0,8262.0,2.0,0,
102900,1861.9,35.6,198.6,92.1,2521.0,8262.0,2.0,0,
103000,1859.0,34.8,198.6,239.5,2521.0,8262.0,2.0,0,
103100,1861.8,34.6,198.6,239.8,2521.0,8262.0,2.0,0,
103200,1860.4,33.4,198.6,239.7,2521.0,8262.0,2.0,0,
103300,1860.5,35.4,198.6,239.7,2521.0,8262.0,2.0,0,
103400,1860.9,32.2,198.6,238.8,2521.0,8262.0,2.0,0,
103600,1893.5,191.9,190.1,166.1,2316.0,11410.0,3.0,1,
103700,1822.2,230.2,179.3,54.3,2671.0,11441.0,3.0,1,
103800,1857.7,270.4,174.1,36.9,2635.0,11456.0,4.0,1,
103900,1875.2,76.1,171.0,28.7,2562.0,10454.0,3.0,1,
104000,1860.6,95.4,145.6,29.0,2761.0,11310.0,4.0,1,
104100,1890.5,43.6,120.9,29.3,2490.0,10399.0,3.0,1,
104200,1828.2,35.0,117.6,29.5,2490.0,10399.0,3.0,1,
104300,1858.0,35.4,117.7,37.6,2490.0,10399.0,3.0,1,
104400,1860.0,36.6,117.7,38.8,2490.0,10399.0,3.0,1,
104600,1859.4,36.4,117.7,239.9,2490.0,10399.0,3.0,1,
104700,1861.1,36.3,117.7,240.5,2490.0,10399.0,3.0,1,
104800,1860.2,35.6,117.8,239.8,2490.0,10399.0,3.0,1,
104900,1858.7,37.7,117.9,239.4,2490.0,10399.0,3.0,1,
105000,1857.0,39.1,117.9,240.0,2490.0,10399.0,3.0,1,
105100,1859.1,61.4,118.0,240.2,1622.0,9044.0,5.0,1,
105200,1859.2,179.1,118.7,238.8,2296.0,11645.0,4.0,1,
105300,1858.8,94.6,123.0,78.0,2437.0,12227.0,4.0,1,
105400,1863.3,109.2,114.2,37.6,3049.0,13464.0,4.0,1,
105600,1922.8,279.0,129.7,35.6,2103.0,7678.0,2.0,0,
105700,1813.6,106.0,154.9,49.4,2715.0,9203.0,2.0,0,
105800,1870.9,37.5,158.3,93.3,2715.0,9203.0,2.0,0,
105900,1858.8,36.3,158.2,93.4,2715.0,9203.0,2.0,0,
106000,1860.3,35.3,158.2,130.8,2715.0,9203.0,2.0,0,
106100,1860.1,35.0,158.2,189.3,2715.0,9203.0,2.0,0,
106200,1859.8,35.1,158.2,238.4,2715.0,9203.0,2.0,0,
106300,1860.8,33.6,158.2,239.8,2715.0,9203.0,2.0,0,
106400,1859.8,35.4,158.1,239.5,2715.0,9203.0,2.0,0,
106600,1861.4,33.4,158.1,239.9,2715.0,9203.0,2.0,0,
106700,1858.4,39.9,158.0,239.9,2715.0,9203.0,2.0,0,
106800,1852.9,110.7,167.1,146.7,1884.0,9920.0,4.0,1,
106900,1857.6,207.3,160.7,42.9,2378.0,10979.0,3.0,1,
107000,1860.5,193.9,158.8,39.8,2582.0,12311.0,4.0,1,
107100,1910.5,79.0,164.4,38.3,2552.0,10984.0,3.0,1,
107200,1821.3,100.8,144.7,29.4,2747.0,11832.0,3.0,1,
107300,1861.1,235.0,119.4,29.2,2488.0,10163.0,3.0,1,
107400,1879.5,44.9,119.3,29.8,2243.0,9297.0,3.0,1,
107600,1859.0,34.6,119.3,29.1,2243.0,9297.0,3.0,1,
107700,1857.9,31.7,119.4,38.5,2243.0,9297.0,3.0,1,
107800,1861.5,37.0,119.3,117.4,2243.0,9297.0,3.0,1,
107900,1859.7,36.5,119.3,240.4,2243.0,9297.0,3.0,1,
108000,1861.7,36.5,119.3,239.1,2243.0,9297.0,3.0,1,
108100,1859.9,36.1,119.4,221.1,2243.0,9297.0,3.0,1,
108200,1858.7,40.6,119.3,238.3,2243.0,9297.0,3.0,1,
108300,1861.9,37.0,119.4,239.6,2243.0,9297.0,3.0,1,
108400,1845.9,160.6,118.7,239.6,1899.0,9774.0,4.0,1,
108600,1891.7,150.5,116.8,49.4,2682.0,9602.0,2.0,0,
108700,1815.1,184.3,126.3,76.5,2551.0,9412.0,2.0,0,
108800,1871.3,295.3,143.3,131.2,1982.0,7728.0,2.0,0,
108900,1871.6,208.7,158.0,158.5,2484.0,8828.0,2.0,0,
109000,1857.0,50.6,163.1,142.2,2367.0,10153.0,3.0,1,
109100,1864.2,34.7,163.1,92.8,2367.0,10153.0,3.0,1,
109200,1861.4,39.0,163.1,91.6,2367.0,10153.0,3.0,1,
109300,1859.4,36.9,163.1,89.0,2367.0,10153.0,3.0,1,
109400,1859.8,37.5,163.1,164.6,2367.0,10153.0,3.0,1,
109600,1858.1,36.0,163.2,240.1,2367.0,10153.0,3.0,1,
109700,1860.2,34.0,163.1,240.1,2367.0,10153.0,3.0,1,
109800,1860.1,35.9,163.1,240.5,2367.0,10153.0,3.0,1,
109900,1858.6,36.5,163.1,240.6,2367.0,10153.0,3.0,1,
110000,1870.8,56.4,163.1,240.2,1728.0,9350.0,4.0,1,
110100,1860.3,171.2,162.3,188.8,2475.0,12032.0,3.0,1,
110200,1828.4,73.9,165.1,38.5,2567.0,12173.0,3.0,1,
110300,1885.0,70.9,151.3,29.1,2528.0,11213.0,4.0,1,
110400,1867.5,79.7,127.6,28.8,2925.0,12863.0,3.0,1,
110600,1825.7,55.0,102.5,34.5,2674.0,11584.0,4.0,1,
110700,1857.7,38.9,102.5,28.2,2674.0,11584.0,4.0,1,
110800,1859.6,36.8,102.6,29.4,2674.0,11584.0,4.0,1,
110900,1858.2,35.4,102.6,36.1,2674.0,11584.0,4.0,1,
111000,1857.8,35.7,102.6,108.2,2674.0,11584.0,4.0,1,
111100,1859.3,35.6,102.5,239.6,2674.0,11584.0,4.0,1,
111200,1859.3,36.2,102.5,239.8,2674.0,11584.0,4.0,1,
111300,1859.3,35.7,102.5,239.9,2674.0,11584.0,4.0,1,
111400,1862.0,36.3,102.5,239.5,2674.0,11584.0,4.0,1,
111600,1862.1,77.4,102.4,239.4,1851.0,10164.0,5.0,1,
111700,1848.3,47.5,103.6,203.2,2265.0,12258.0,4.0,1,
111800,1871.3,116.9,95.8,93.6,2648.0,12104.0,4.0,1,
111900,1876.2,151.9,110.8,67.3,3216.0,12180.0,2.0,0,
112000,1918.7,293.5,135.6,41.4,3033.0,11141.0,2.0,0,
112100,1824.1,319.6,157.6,81.8,3008.0,11333.0,2.0,0,
112200,1868.0,96.6,172.3,93.8,2942.0,10234.0,2.0,0,
112300,1875.1,38.8,175.4,80.8,2942.0,10234.0,2.0,0,
112400,1860.5,37.0,175.3,89.2,2942.0,10234.0,2.0,0,
112600,1858.3,39.7,175.3,194.4,2942.0,10234.0,2.0,0,
112700,1859.7,35.6,175.3,238.9,2942.0,10234.0,2.0,0,
112800,1859.4,39.1,175.3,239.8,2942.0,10234.0,2.0,0,
112900,1859.2,34.0,175.3,239.9,2942.0,10234.0,2.0,0,
113000,1860.3,34.1,175.3,239.9,2942.0,10234.0,2.0,0,
113100,1859.0,37.5,175.3,239.7,2942.0,10234.0,2.0,0,
113200,1858.8,32.7,175.4,239.9,2942.0,10234.0,2.0,0,
113300,1848.3,114.0,178.1,237.5,2220.0,9451.0,2.0,0,
113400,1856.0,227.9,193.6,150.7,2576.0,11606.0,2.0,0,
113600,1824.4,344.9,203.5,100.4,3339.0,12776.0,2.0,0,
113700,1871.8,156.5,210.2,81.7,3062.0,10991.0,2.0,0,
113800,1873.7,246.5,201.7,49.2,3020.0,11171.0,2.0,0,
113900,1886.2,48.3,205.4,56.2,3114.0,10982.0,2.0,0,
114000,1859.7,35.0,205.4,89.8,3114.0,10982.0,2.0,0,
114100,1861.5,37.9,205.4,135.8,3114.0,10982.0,2.0,0,
114200,1859.6,36.4,205.4,158.3,3114.0,10982.0,2.0,0,
114300,1860.6,37.3,205.4,237.6,3114.0,10982.0,2.0,0,
114400,1861.1,39.3,205.4,239.3,3114.0,10982.0,2.0,0,
114600,1859.8,39.5,205.4,239.8,3114.0,10982.0,2.0,0,
114700,1859.4,40.4,205.4,239.9,3114.0,10982.0,2.0,0,
114800,1860.4,41.0,205.4,240.1,3114.0,10982.0,2.0,0,
114900,1839.1,220.5,204.7,239.8,1721.0,9539.0,4.0,1,
115000,1914.3,139.8,199.1,50.5,2453.0,11888.0,4.0,1,
115100,1820.7,196.5,191.2,34.5,2459.0,9781.0,2.0,0,
115200,1848.3,200.4,187.1,39.5,2330.0,8724.0,2.0,0,
115300,1872.8,223.8,174.4,76.8,2659.0,9891.0,2.0,0,
115400,1860.5,72.4,172.2,93.4,2228.0,9872.0,4.0,1,
115600,1861.6,37.3,159.5,71.7,2228.0,9872.0,4.0,1,
115700,1859.7,35.8,159.5,39.3,2228.0,9872.0,4.0,1,
115800,1860.1,36.9,159.5,38.3,2228.0,9872.0,4.0,1,
115900,1862.2,37.2,159.4,88.8,2228.0,9872.0,4.0,1,
116000,1861.2,36.0,159.4,240.1,2228.0,9872.0,4.0,1,
116100,1859.9,38.4,159.4,239.6,2228.0,9872.0,4.0,1,
116200,1859.3,38.8,159.4,239.6,2228.0,9872.0,4.0,1,
116300,1859.0,35.2,159.4,239.6,2228.0,9872.0,4.0,1,
116400,1858.3,36.7,159.4,239.3,2228.0,9872.0,4.0,1,
116600,1815.4,92.5,152.9,40.8,1842.0,9723.0,4.0,1,
116700,1859.3,78.9,145.4,37.1,2112.0,9446.0,4.0,1,
116800,1873.1,64.4,129.4,36.3,1860.0,8989.0,3.0,1,
116900,1872.5,41.6,101.1,29.9,1678.0,7044.0,3.0,1,
117000,1850.1,69.0,75.6,29.4,2009.0,8549.0,4.0,1,
117100,1837.6,46.5,71.9,36.6,1803.0,8303.0,4.0,1,
117200,1870.4,34.3,72.1,41.2,1803.0,8303.0,4.0,1,
117300,1859.2,36.9,72.1,65.8,1803.0,8303.0,4.0,1,
117400,1859.5,36.8,72.3,85.7,1803.0,8303.0,4.0,1,
117600,1860.3,38.1,72.3,114.4,1803.0,8303.0,4.0,1,
117700,1860.0,39.3,72.4,150.9,1803.0,8303.0,4.0,1,
117800,1858.3,35.8,72.4,240.1,1803.0,8303.0,4.0,1,
117900,1861.2,35.7,72.3,240.3,1803.0,8303.0,4.0,1,
118000,1858.8,41.2,72.3,240.0,1803.0,8303.0,4.0,1,
118100,1860.3,64.8,72.5,239.8,1564.0,8970.0,4.0,1,
118200,1857.8,76.9,62.6,167.7,1970.0,10021.0,4.0,1,
118300,1871.7,67.6,60.8,87.2,2118.0,11499.0,4.0,1,
118400,1878.2,182.9,66.5,75.0,1952.0,8741.0,3.0,1,
118600,1849.3,51.2,85.2,29.4,1756.0,7463.0,3.0,1,
118700,1867.4,68.7,83.9,29.1,2098.0,8772.0,3.0,1,
118800,1863.0,38.5,85.9,29.3,2098.0,8772.0,3.0,1,
118900,1857.1,35.6,86.0,29.8,2098.0,8772.0,3.0,1,
119000,1860.2,35.2,85.7,36.1,2098.0,8772.0,3.0,1,
119100,1861.2,36.9,85.7,85.6,2098.0,8772.0,3.0,1,
119200,1860.5,36.0,85.8,239.3,2098.0,8772.0,3.0,1,
119300,1859.3,36.4,85.8,239.5,2098.0,8772.0,3.0,1,
119400,1858.3,35.8,85.7,239.3,2098.0,8772.0,3.0,1,
119600,1858.4,35.2,85.8,239.8,2098.0,8772.0,3.0,1,
119700,1859.2,54.9,85.7,240.2,2098.0,8772.0,3.0,1,
119800,1862.0,84.4,89.2,239.3,1744.0,10057.0,4.0,1,
119900,1884.5,81.0,89.6,47.3,2084.0,10216.0,4.0,1,
120000,1834.3,71.1,91.1,30.1,2340.0,11235.0,4.0,1,
120100,1850.2,64.4,68.6,29.9,2078.0,9167.0,3.0,1,
120200,1859.6,51.3,70.4,29.7,2346.0,10014.0,4.0,1,
120300,1854.0,54.9,71.1,28.3,2199.0,9691.0,4.0,1,
120400,1878.5,37.0,68.0,36.9,2156.0,8905.0,4.0,1,
120600,1860.0,35.6,68.0,56.9,2156.0,8905.0,4.0,1,
120700,1861.1,37.4,67.9,91.9,2156.0,8905.0,4.0,1,
120800,1862.2,35.9,67.8,239.6,2156.0,8905.0,4.0,1,
120900,1861.8,36.9,67.8,239.7,2156.0,8905.0,4.0,1,
121000,1859.8,36.6,67.8,239.1,2156.0,8905.0,4.0,1,
121100,1858.4,36.3,67.9,239.5,2156.0,8905.0,4.0,1,
121200,1861.9,33.6,67.8,240.2,2156.0,8905.0,4.0,1,
121300,1859.1,38.6,67.8,239.8,2156.0,8905.0,4.0,1,
121400,1880.4,62.0,65.0,229.1,2099.0,10895.0,4.0,1,
121600,1841.6,114.5,69.5,76.8,2564.0,11780.0,4.0,1,
121700,1867.2,218.2,70.3,86.7,2479.0,10488.0,2.0,0,
121800,1857.9,237.3,104.7,48.9,2515.0,9146.0,2.0,0,
121900,1918.9,180.1,128.0,89.2,2729.0,9681.0,2.0,0,
122000,1814.1,58.4,146.6,143.6,2419.0,8836.0,2.0,0,
122100,1861.8,36.2,146.5,131.8,2419.0,8836.0,2.0,0,
122200,1860.4,36.7,146.5,106.3,2419.0,8836.0,2.0,0,
122300,1858.3,36.3,146.6,93.5,2419.0,8836.0,2.0,0,
122400,1861.3,35.8,146.7,90.6,2419.0,8836.0,2.0,0,
122600,1860.5,34.8,146.7,239.8,2419.0,8836.0,2.0,0,
122700,1858.3,35.0,146.6,239.7,2419.0,8836.0,2.0,0,
122800,1859.8,38.1,146.6,240.3,2419.0,8836.0,2.0,0,
122900,1857.1,33.5,146.7,240.9,2419.0,8836.0,2.0,0,
123000,1866.9,101.9,153.3,237.8,1859.0,10164.0,5.0,1,
123100,1845.6,248.9,154.4,42.9,2225.0,10203.0,2.0,0,
123200,1877.6,274.3,167.2,48.8,2512.0,10873.0,2.0,0,
123300,1864.9,99.6,180.4,78.2,2747.0,12099.0,3.0,1,
123400,1902.7,168.5,168.4,46.9,2825.0,12398.0,3.0,1,
123600,1875.2,44.1,138.7,29.5,2760.0,11182.0,3.0,1,
123700,1870.3,33.9,138.7,30.2,2760.0,11182.0,3.0,1,
123800,1860.0,35.8,138.7,30.2,2760.0,11182.0,3.0,1,
123900,1860.2,36.3,138.7,35.4,2760.0,11182.0,3.0,1,
124000,1859.4,36.8,138.7,237.7,2760.0,11182.0,3.0,1,
124100,1858.4,38.9,138.7,239.8,2760.0,11182.0,3.0,1,
124200,1860.9,38.4,138.8,239.5,2760.0,11182.0,3.0,1,
124300,1859.1,36.4,138.8,239.8,2760.0,11182.0,3.0,1,
124400,1858.7,34.9,138.8,239.9,2760.0,11182.0,3.0,1,
124600,1857.8,135.6,138.9,240.1,1860.0,10232.0,4.0,1,
124700,1855.2,93.7,139.6,116.8,2059.0,11521.0,4.0,1,
124800,1880.8,90.4,124.5,38.3,2485.0,12433.0,4.0,1,
124900,1867.9,120.6,100.7,36.4,2774.0,13342.0,4.0,1,
125000,1824.0,85.7,104.7,35.9,2689.0,12193.0,4.0,1,
125100,1874.3,62.8,93.2,35.5,2866.0,12739.0,3.0,1,
125200,1859.1,55.4,89.9,38.8,2801.0,12915.0,4.0,1,
125300,1875.6,36.4,90.5,37.6,2801.0,12915.0,4.0,1,
125400,1859.8,34.6,90.5,36.7,2801.0,12915.0,4.0,1,
125600,1858.6,34.1,90.4,74.8,2801.0,12915.0,4.0,1,
125700,1858.3,33.8,90.3,240.0,2801.0,12915.0,4.0,1,
125800,1859.7,36.1,90.2,240.3,2801.0,12915.0,4.0,1,
125900,1859.5,32.7,90.2,240.4,2801.0,12915.0,4.0,1,
126000,1859.5,31.5,90.1,240.3,2801.0,12915.0,4.0,1,
126100,1860.8,36.3,90.1,238.9,2801.0,12915.0,4.0,1,
126200,1859.3,46.4,90.0,238.0,2801.0,12915.0,4.0,1,
126300,1873.6,212.4,84.7,198.7,2261.0,9564.0,2.0,0,
126400,1863.3,284.3,103.0,93.8,2563.0,11143.0,2.0,0,
126600,1870.6,151.0,141.5,93.5,3205.0,11959.0,2.0,0,
126700,1874.9,230.0,166.3,93.4,2873.0,11264.0,2.0,0,
126800,1908.6,240.6,182.1,92.3,2822.0,9973.0,2.0,0,
126900,1822.8,42.1,192.4,86.6,2822.0,9973.0,2.0,0,
127000,1860.0,35.5,192.4,100.0,2822.0,9973.0,2.0,0,
127100,1858.8,35.3,192.4,102.7,2822.0,9973.0,2.0,0,
127200,1860.1,36.2,192.4,75.3,2822.0,9973.0,2.0,0,
127300,1859.9,37.4,192.5,123.1,2822.0,9973.0,2.0,0,
127400,1860.6,37.3,192.5,239.9,2822.0,9973.0,2.0,0,
127600,1860.9,35.2,192.6,240.1,2822.0,9973.0,2.0,0,
127700,1860.0,33.8,192.6,240.2,2822.0,9973.0,2.0,0,
127800,1861.4,34.7,192.6,240.1,2822.0,9973.0,2.0,0,
127900,1876.7,93.1,193.2,239.3,2129.0,12182.0,4.0,1,
128000,1833.2,120.1,185.4,94.0,2566.0,12894.0,5.0,1,
128100,1869.7,253.1,168.2,91.3,3196.0,13609.0,2.0,0,
128200,1871.5,295.0,176.0,90.1,3463.0,12967.0,2.0,0,
128300,1947.9,180.7,176.9,114.8,3289.0,12402.0,2.0,0,
128400,1800.1,214.9,179.9,130.6,3108.0,11287.0,2.0,0,
128600,1859.6,37.0,174.4,92.8,3108.0,11287.0,2.0,0,
128700,1860.1,31.6,174.3,109.5,3108.0,11287.0,2.0,0,
128800,1860.8,36.6,174.3,157.5,3108.0,11287.0,2.0,0,
128900,1857.5,34.1,174.3,196.9,3108.0,11287.0,2.0,0,
129000,1862.7,37.2,174.2,239.9,3108.0,11287.0,2.0,0,
129100,1861.5,35.7,174.2,239.6,3108.0,11287.0,2.0,0,
129200,1859.7,36.7,174.2,239.9,3108.0,11287.0,2.0,0,
129300,1858.8,35.9,174.2,239.6,3108.0,11287.0,2.0,0,
129400,1861.3,38.0,174.2,239.7,3108.0,11287.0,2.0,0,
129600,1876.9,319.2,183.9,113.5,2383.0,11391.0,2.0,0,
129700,1862.3,125.4,204.0,130.3,2641.0,11051.0,2.0,0,
129800,1927.6,236.0,201.0,130.5,3229.0,12834.0,2.0,0,
129900,1808.3,318.7,202.8,101.6,2718.0,10788.0,2.0,0,
130000,1871.7,290.0,200.0,91.9,2886.0,10869.0,2.0,0,
130100,1871.3,71.0,202.5,93.9,2637.0,10079.0,2.0,0,
130200,1868.4,38.2,202.4,151.6,2637.0,10079.0,2.0,0,
130300,1860.9,36.6,202.4,158.1,2637.0,10079.0,2.0,0,
130400,1859.7,36.2,202.5,132.6,2637.0,10079.0,2.0,0,
130600,1860.0,36.3,202.6,239.7,2637.0,10079.0,2.0,0,
130700,1857.1,35.7,202.6,240.0,2637.0,10079.0,2.0,0,
130800,1860.9,37.0,202.6,240.4,2637.0,10079.0,2.0,0,
130900,1860.0,37.7,202.6,240.4,2637.0,10079.0,2.0,0,
131000,1859.0,38.5,202.6,240.5,2637.0,10079.0,2.0,0,
131100,1859.4,114.5,202.6,240.0,1837.0,10982.0,4.0,1,
131200,1851.4,88.9,194.7,90.3,2433.0,12662.0,5.0,1,
131300,1904.2,125.8,174.8,72.5,2585.0,13561.0,3.0,1,
131400,1820.7,110.8,167.0,67.5,2934.0,14294.0,4.0,1,
131600,1875.4,76.3,129.7,29.4,2958.0,13547.0,3.0,1,
131700,1880.4,57.6,101.4,29.6,2907.0,13032.0,4.0,1,
131800,1858.6,37.3,98.8,29.4,2907.0,13032.0,4.0,1,
131900,1861.1,37.3,98.8,34.7,2907.0,13032.0,4.0,1,
132000,1860.7,34.8,98.9,67.3,2907.0,13032.0,4.0,1,
132100,1858.0,37.3,98.8,124.7,2907.0,13032.0,4.0,1,
132200,1858.9,38.0,98.8,239.7,2907.0,13032.0,4.0,1,
132300,1858.6,35.9,98.8,239.9,2907.0,13032.0,4.0,1,
132400,1860.0,36.7,98.9,240.0,2907.0,13032.0,4.0,1,
132600,1859.9,36.6,98.8,239.7,2907.0,13032.0,4.0,1,
132700,1860.5,145.8,98.8,240.3,2907.0,13032.0,4.0,1,
132800,1890.9,316.6,115.4,154.5,1990.0,9900.0,2.0,0,
132900,1823.9,143.2,144.8,145.3,2268.0,9794.0,2.0,0,
133000,1854.1,113.2,153.4,130.8,2685.0,13686.0,3.0,1,
133100,1870.8,243.8,155.2,101.5,2983.0,14211.0,4.0,1,
133200,1900.5,158.9,164.5,93.7,3391.0,13279.0,2.0,0,
133300,1860.3,175.1,182.1,68.8,2944.0,12057.0,2.0,0,
133400,1851.4,43.9,187.6,93.5,2944.0,12057.0,2.0,0,
133600,1859.8,38.4,187.6,134.9,2944.0,12057.0,2.0,0,
133700,1859.2,38.8,187.6,206.9,2944.0,12057.0,2.0,0,
133800,1858.4,37.8,187.7,240.0,2944.0,12057.0,2.0,0,
133900,1857.8,37.4,187.7,240.0,2944.0,12057.0,2.0,0,
134000,1858.0,35.4,187.7,239.9,2944.0,12057.0,2.0,0,
134100,1860.7,36.8,187.7,240.0,2944.0,12057.0,2.0,0,
134200,1861.7,35.4,187.7,240.3,2944.0,12057.0,2.0,0,
134300,1858.4,28.5,187.7,240.4,2944.0,12057.0,2.0,0,
134400,1835.9,95.7,183.4,239.4,2169.0,10925.0,4.0,1,
134600,1872.8,103.5,150.3,34.5,2476.0,12130.0,4.0,1,
134700,1901.2,107.4,149.6,30.1,2703.0,13132.0,4.0,1,
134800,1822.4,236.3,136.4,28.8,2403.0,9854.0,2.0,0,
134900,1855.5,272.0,130.6,29.1,2586.0,9641.0,2.0,0,
135000,1867.8,50.2,132.6,84.8,2544.0,9070.0,2.0,0,
135100,1858.8,37.2,132.6,152.5,2544.0,9070.0,2.0,0,
135200,1860.2,34.2,132.6,133.3,2544.0,9070.0,2.0,0,
135300,1859.6,32.8,132.6,86.3,2544.0,9070.0,2.0,0,
135400,1860.7,36.9,132.5,116.4,2544.0,9070.0,2.0,0,
135600,1855.9,35.3,132.5,240.2,2544.0,9070.0,2.0,0,
135700,1861.2,35.3,132.5,240.0,2544.0,9070.0,2.0,0,
135800,1859.6,35.5,132.5,239.7,2544.0,9070.0,2.0,0,
135900,1857.4,35.3,132.5,239.4,2544.0,9070.0,2.0,0,
136000,1860.1,77.9,133.3,239.5,2106.0,12100.0,4.0,1,
136100,1853.3,206.6,131.3,99.5,2306.0,12375.0,5.0,1,
136200,1922.6,105.6,135.3,68.8,2934.0,14774.0,3.0,1,
136300,1819.7,200.4,134.4,29.7,2897.0,13392.0,4.0,1,
136400,1865.2,166.0,144.0,28.9,2753.0,10546.0,2.0,0,
136600,1878.7,52.5,146.2,109.0,3183.0,12502.0,2.0,0,
136700,1866.7,35.8,146.1,143.8,3183.0,12502.0,2.0,0,
136800,1861.5,33.7,146.1,168.9,3183.0,12502.0,2.0,0,
136900,1860.0,36.0,146.2,221.6,3183.0,12502.0,2.0,0,
137000,1858.5,36.6,146.2,229.7,3183.0,12502.0,2.0,0,
137100,1859.1,34.9,146.2,239.8,3183.0,12502.0,2.0,0,
137200,1861.5,36.1,146.1,240.1,3183.0,12502.0,2.0,0,
137300,1859.3,39.0,146.1,239.8,3183.0,12502.0,2.0,0,
137400,1860.3,35.2,146.2,240.0,3183.0,12502.0,2.0,0,
137600,1847.1,167.6,146.2,240.0,2115.0,11022.0,5.0,1,
137700,1913.9,299.2,158.3,117.3,2598.0,11811.0,2.0,0,
137800,1816.0,163.8,173.3,76.9,2939.0,12809.0,2.0,0,
137900,1851.0,153.4,182.4,76.1,3664.0,17533.0,3.0,1,
138000,1890.0,236.3,180.9,93.3,3509.0,16767.0,4.0,1,
138100,1879.5,136.7,180.0,133.2,3582.0,13879.0,2.0,0,
138200,1927.3,96.4,178.8,99.5,3110.0,12737.0,2.0,0,
138300,1819.9,36.7,179.1,152.5,3110.0,12737.0,2.0,0,
138400,1861.4,34.9,179.1,188.5,3110.0,12737.0,2.0,0,
138600,1859.1,35.1,179.1,221.2,3110.0,12737.0,2.0,0,
138700,1859.7,37.4,179.1,240.3,3110.0,12737.0,2.0,0,
138800,1857.1,35.6,179.2,239.8,3110.0,12737.0,2.0,0,
138900,1859.0,35.4,179.2,239.4,3110.0,12737.0,2.0,0,
139000,1862.1,37.3,179.1,239.3,3110.0,12737.0,2.0,0,
139100,1859.3,37.0,179.1,239.8,3110.0,12737.0,2.0,0,
139200,1859.9,89.3,179.1,239.8,2053.0,11835.0,4.0,1,
139300,1832.9,216.1,173.3,177.0,2404.0,12740.0,5.0,1,
139400,1867.9,90.6,155.4,86.6,2912.0,15350.0,4.0,1,
139600,1897.2,221.6,146.4,30.2,3576.0,14110.0,2.0,0,
139700,1893.1,311.3,157.1,38.7,3521.0,14361.0,2.0,0,
139800,1828.8,126.0,159.1,69.3,3837.0,14580.0,2.0,0,
139900,1880.8,39.6,160.4,72.9,3837.0,14580.0,2.0,0,
140000,1858.4,37.4,160.4,93.6,3837.0,14580.0,2.0,0,
140100,1858.7,34.0,160.5,124.8,3837.0,14580.0,2.0,0,
140200,1859.2,35.7,160.4,101.8,3837.0,14580.0,2.0,0,
140300,1858.8,37.3,160.4,225.7,3837.0,14580.0,2.0,0,
140400,1857.7,35.7,160.4,239.9,3837.0,14580.0,2.0,0,
140600,1858.5,37.6,160.5,240.1,3837.0,14580.0,2.0,0,
140700,1858.6,34.3,160.5,240.3,3837.0,14580.0,2.0,0,
140800,1859.8,137.7,160.4,240.3,3837.0,14580.0,2.0,0,
140900,1852.0,412.2,165.5,225.6,2679.0,11634.0,2.0,0,
141000,1860.2,197.7,189.8,145.7,2800.0,11803.0,2.0,0,
141100,1917.4,268.0,200.4,105.4,3533.0,14720.0,2.0,0,
141200,1858.8,352.6,207.6,93.6,3372.0,12901.0,2.0,0,
141300,1845.9,163.8,217.0,73.9,3770.0,14348.0,2.0,0,
141400,1878.7,215.9,213.2,85.7,3629.0,14321.0,2.0,0,
141600,1858.9,36.4,212.4,154.0,3629.0,14321.0,2.0,0,
141700,1861.2,36.3,212.3,159.0,3629.0,14321.0,2.0,0,
141800,1857.4,37.4,212.4,216.7,3629.0,14321.0,2.0,0,
141900,1860.8,34.6,212.3,239.4,3629.0,14321.0,2.0,0,
142000,1859.7,36.4,212.3,239.8,3629.0,14321.0,2.0,0,
142100,1858.8,37.4,212.3,240.2,3629.0,14321.0,2.0,0,
142200,1859.6,34.0,212.2,240.7,3629.0,14321.0,2.0,0,
142300,1861.7,34.9,212.1,240.9,3629.0,14321.0,2.0,0,
142400,1859.6,37.4,212.2,240.1,3629.0,14321.0,2.0,0,
142600,1920.7,254.2,192.7,94.0,2533.0,11191.0,2.0,0,
142700,1834.3,166.8,196.6,91.0,3190.0,13523.0,2.0,0,
142800,1838.5,239.3,199.8,94.7,3610.0,14207.0,2.0,0,
142900,1891.1,302.7,187.1,149.1,3375.0,13014.0,2.0,0,
143000,1878.1,176.2,195.8,136.5,3559.0,13067.0,2.0,0,
143100,1888.0,68.8,194.4,78.6,3521.0,12796.0,2.0,0,
143200,1863.5,38.0,194.4,134.1,3521.0,12796.0,2.0,0,
143300,1861.1,33.4,194.3,133.7,3521.0,12796.0,2.0,0,
143400,1858.4,34.8,194.3,84.1,3521.0,12796.0,2.0,0,
143600,1859.7,37.7,194.3,240.0,3521.0,12796.0,2.0,0,
143700,1859.5,35.2,194.3,239.8,3521.0,12796.0,2.0,0,
143800,1860.4,38.8,194.3,240.6,3521.0,12796.0,2.0,0,
143900,1860.2,36.6,194.3,240.6,3521.0,12796.0,2.0,0,
144000,1860.9,34.8,194.3,240.3,3521.0,12796.0,2.0,0,
144100,1911.2,83.4,194.5,239.9,2178.0,12593.0,4.0,1,
144200,1804.8,123.7,189.0,165.2,2229.0,12076.0,5.0,1,
144300,1852.0,178.2,175.2,90.7,2923.0,14633.0,4.0,1,
144400,1877.5,111.9,172.3,85.7,3021.0,14987.0,4.0,1,
144600,1936.7,278.8,150.0,73.3,3294.0,13734.0,2.0,0,
144700,1807.3,65.3,148.1,93.2,3214.0,12982.0,2.0,0,
144800,1873.7,38.0,146.8,130.4,3214.0,12982.0,2.0,0,
144900,1859.9,34.3,146.9,156.6,3214.0,12982.0,2.0,0,
145000,1858.6,36.9,146.9,177.5,3214.0,12982.0,2.0,0,
145100,1858.4,36.2,147.0,202.9,3214.0,12982.0,2.0,0,
145200,1857.8,35.6,147.0,239.8,3214.0,12982.0,2.0,0,
145300,1857.8,34.8,147.0,239.9,3214.0,12982.0,2.0,0,
145400,1860.5,36.3,147.0,240.0,3214.0,12982.0,2.0,0,
145600,1859.8,35.2,147.0,240.5,3214.0,12982.0,2.0,0,
145700,1859.0,145.2,146.9,240.6,2096.0,10899.0,4.0,1,
145800,1853.9,311.9,151.4,237.5,2387.0,11560.0,2.0,0,
145900,1862.3,139.6,168.7,130.2,2654.0,11339.0,2.0,0,
146000,1878.3,221.4,176.9,125.5,3087.0,12774.0,2.0,0,
146100,1916.5,277.6,185.4,139.3,3236.0,12175.0,2.0,0,
146200,1815.4,142.4,188.2,140.6,3733.0,13610.0,2.0,0,
146300,1868.0,131.5,187.3,73.1,3563.0,13963.0,2.0,0,
146400,1892.1,38.0,186.9,92.5,3563.0,13963.0,2.0,0,
146600,1857.6,38.4,186.9,232.7,3563.0,13963.0,2.0,0,
146700,1858.4,37.6,186.9,249.0,3563.0,13963.0,2.0,0,
146800,1855.7,34.7,187.0,239.9,3563.0,13963.0,2.0,0,
146900,1859.3,35.9,187.0,239.9,3563.0,13963.0,2.0,0,
147000,1859.2,35.9,187.0,239.7,3563.0,13963.0,2.0,0,
147100,1858.8,34.2,187.0,239.7,3563.0,13963.0,2.0,0,
147200,1859.4,36.3,187.0,240.3,3563.0,13963.0,2.0,0,
147300,1860.5,49.5,187.0,240.3,3563.0,13963.0,2.0,0,
147400,1838.9,217.9,184.1,239.6,2090.0,9535.0,2.0,0,
147600,1886.4,169.2,187.5,91.1,3312.0,13272.0,2.0,0,
147700,1815.5,259.5,188.4,94.5,3601.0,13512.0,2.0,0,
147800,1891.2,338.6,185.8,134.4,3374.0,13030.0,2.0,0,
147900,1885.5,336.1,195.6,93.7,3373.0,12962.0,2.0,0,
148000,1863.6,49.5,203.2,72.5,3257.0,11561.0,2.0,0,
148100,1859.0,37.6,203.2,88.6,3257.0,11561.0,2.0,0,
148200,1859.7,36.2,203.2,93.6,3257.0,11561.0,2.0,0,
148300,1856.2,35.2,203.2,86.0,3257.0,11561.0,2.0,0,
148400,1856.3,36.6,203.2,99.3,3257.0,11561.0,2.0,0,
148600,1860.6,32.8,203.2,241.0,3257.0,11561.0,2.0,0,
148700,1858.2,34.1,203.2,240.0,3257.0,11561.0,2.0,0,
148800,1858.4,34.5,203.2,240.0,3257.0,11561.0,2.0,0,
148900,1860.7,35.0,203.2,240.4,3257.0,11561.0,2.0,0,
149000,1903.1,296.1,206.6,240.2,2462.0,11170.0,2.0,0,
149100,1840.2,230.1,217.5,183.1,2502.0,10858.0,2.0,0,
149200,1830.5,281.6,213.8,131.5,2819.0,11573.0,2.0,0,
149300,1876.8,307.3,215.5,100.4,3248.0,14021.0,2.0,0,
149400,1878.2,176.7,216.0,132.0,3216.0,12309.0,2.0,0,
149600,1826.8,49.7,202.9,93.9,3002.0,12629.0,2.0,0,
149700,1859.1,31.0,202.9,157.3,3002.0,12629.0,2.0,0,
149800,1858.0,32.7,202.9,168.4,3002.0,12629.0,2.0,0,
149900,1856.2,38.7,202.9,190.3,3002.0,12629.0,2.0,0,
150000,1860.3,32.5,202.9,235.1,3002.0,12629.0,2.0,0,
150100,1861.0,35.8,202.8,240.2,3002.0,12629.0,2.0,0,
150200,1856.9,35.5,202.9,240.1,3002.0,12629.0,2.0,0,
150300,1860.0,33.9,202.9,239.9,3002.0,12629.0,2.0,0,
150400,1858.4,36.8,202.9,240.0,3002.0,12629.0,2.0,0,
150600,1860.7,149.1,201.5,239.9,2037.0,11109.0,4.0,1,
150700,1843.0,261.9,185.2,152.3,2600.0,11375.0,2.0,0,
150800,1861.1,168.9,189.9,94.2,2646.0,11697.0,2.0,0,
150900,1857.2,263.4,184.5,104.4,3238.0,13630.0,2.0,0,
151000,1948.4,295.0,184.8,94.6,3109.0,12853.0,2.0,0,
151100,1811.5,174.7,190.1,69.4,3209.0,12767.0,2.0,0,
151200,1852.0,91.5,190.9,43.8,3206.0,12137.0,2.0,0,
151300,1877.7,35.7,190.8,92.6,3206.0,12137.0,2.0,0,
151400,1857.3,34.9,190.8,124.1,3206.0,12137.0,2.0,0,
151600,1857.7,35.1,190.7,77.0,3206.0,12137.0,2.0,0,
151700,1858.7,37.1,190.8,239.3,3206.0,12137.0,2.0,0,
151800,1860.2,35.4,190.8,240.1,3206.0,12137.0,2.0,0,
151900,1860.1,35.5,190.7,240.5,3206.0,12137.0,2.0,0,
152000,1857.5,35.7,190.8,240.6,3206.0,12137.0,2.0,0,
152100,1858.8,35.1,190.8,240.4,3206.0,12137.0,2.0,0,
152200,1859.5,68.1,190.7,240.8,2190.0,12107.0,5.0,1,
152300,1852.8,222.3,188.3,188.5,2186.0,10055.0,2.0,0,
152400,1861.8,257.3,186.5,91.7,2791.0,11794.0,2.0,0,
152600,1794.0,259.7,190.3,105.2,3441.0,12746.0,2.0,0,
152700,1872.9,335.7,184.2,93.2,3347.0,12706.0,2.0,0,
152800,1883.1,84.0,189.5,57.5,2984.0,11971.0,2.0,0,
152900,1864.5,38.5,183.7,56.8,2984.0,11971.0,2.0,0,
153000,1860.6,35.5,183.7,92.8,2984.0,11971.0,2.0,0,
153100,1860.7,34.3,183.7,148.7,2984.0,11971.0,2.0,0,
153200,1858.4,34.8,183.7,194.8,2984.0,11971.0,2.0,0,
153300,1860.5,35.0,183.7,240.1,2984.0,11971.0,2.0,0,
153400,1859.2,35.6,183.7,240.2,2984.0,11971.0,2.0,0,
153600,1858.5,35.7,183.7,239.9,2984.0,11971.0,2.0,0,
153700,1858.4,35.6,183.7,240.5,2984.0,11971.0,2.0,0,
153800,1858.8,57.2,183.7,241.0,2984.0,11971.0,2.0,0,
153900,1872.1,106.5,189.2,239.3,2276.0,9703.0,2.0,0,
154000,1877.6,224.5,195.0,130.4,2429.0,10924.0,2.0,0,
154100,1818.5,290.0,190.6,143.7,2749.0,11172.0,2.0,0,
154200,1873.2,330.3,192.4,151.4,2934.0,12464.0,2.0,0,
154300,1860.8,153.2,193.7,152.4,2583.0,10155.0,2.0,0,
154400,1881.6,214.9,189.0,93.8,2742.0,10937.0,2.0,0,
154600,1861.0,34.3,193.9,157.5,2742.0,10937.0,2.0,0,
154700,1857.3,33.8,193.9,144.2,2742.0,10937.0,2.0,0,
154800,1857.5,37.2,193.9,132.8,2742.0,10937.0,2.0,0,
154900,1858.3,36.1,194.0,239.3,2742.0,10937.0,2.0,0,
155000,1859.4,37.0,194.0,240.9,2742.0,10937.0,2.0,0,
155100,1859.1,34.9,194.0,240.5,2742.0,10937.0,2.0,0,
155200,1859.9,34.6,193.9,239.6,2742.0,10937.0,2.0,0,
155300,1858.2,36.1,193.9,239.4,2742.0,10937.0,2.0,0,
155400,1860.1,32.0,193.9,239.7,2742.0,10937.0,2.0,0,
155600,1836.5,72.7,176.3,99.1,2835.0,14223.0,4.0,1,
155700,1863.8,94.6,164.8,80.6,2825.0,14555.0,5.0,1,
155800,1870.4,213.0,142.7,66.6,2988.0,13808.0,4.0,1,
155900,1924.0,109.1,130.8,35.7,3679.0,17688.0,4.0,1,
156000,1851.0,101.9,111.5,29.4,3689.0,16463.0,4.0,1,
156100,1854.1,40.5,90.3,28.9,3653.0,16412.0,4.0,1,
156200,1860.2,35.4,90.2,28.8,3653.0,16412.0,4.0,1,
156300,1859.4,32.1,90.2,38.8,3653.0,16412.0,4.0,1,
156400,1857.4,35.5,90.2,81.5,3653.0,16412.0,4.0,1,
156600,1860.1,34.5,90.2,240.1,3653.0,16412.0,4.0,1,
156700,1857.8,35.8,90.2,239.8,3653.0,16412.0,4.0,1,
156800,1860.4,34.8,90.2,240.0,3653.0,16412.0,4.0,1,
156900,1860.5,37.5,90.3,240.4,3653.0,16412.0,4.0,1,
157000,1861.4,36.1,90.3,239.6,3653.0,16412.0,4.0,1,
157100,1843.5,118.1,95.9,231.7,2286.0,10235.0,2.0,0,
157200,1865.7,252.0,122.2,149.4,2560.0,12038.0,2.0,0,
157300,1865.1,155.4,143.5,151.1,3012.0,12571.0,2.0,0,
157400,1949.7,180.1,157.0,137.0,3611.0,15242.0,2.0,0,
157600,1872.0,288.7,182.9,92.0,3785.0,14353.0,2.0,0,
157700,1894.5,66.6,198.2,130.3,3621.0,14967.0,2.0,0,
157800,1871.8,38.4,198.2,157.3,3621.0,14967.0,2.0,0,
157900,1859.3,35.4,198.3,155.2,3621.0,14967.0,2.0,0,
158000,1858.9,36.4,198.2,158.9,3621.0,14967.0,2.0,0,
158100,1857.6,35.3,198.3,239.4,3621.0,14967.0,2.0,0,
158200,1861.6,35.1,198.3,240.1,3621.0,14967.0,2.0,0,
158300,1859.9,35.3,198.2,240.5,3621.0,14967.0,2.0,0,
158400,1859.1,35.1,198.2,240.1,3621.0,14967.0,2.0,0,
158600,1857.5,34.1,198.2,240.6,3621.0,14967.0,2.0,0,
158700,1860.6,72.2,198.1,240.4,2071.0,11552.0,4.0,1,
158800,1851.0,123.4,192.9,210.7,2553.0,11098.0,2.0,0,
158900,1926.1,237.1,190.9,136.5,3055.0,13338.0,2.0,0,
159000,1811.7,320.0,191.0,143.5,3599.0,13459.0,2.0,0,
159100,1883.1,361.1,189.5,133.6,4014.0,16067.0,2.0,0,
159200,1880.2,189.0,199.9,102.0,3776.0,14491.0,2.0,0,
159300,1880.8,135.8,194.3,71.3,3943.0,13782.0,2.0,0,
159400,1881.7,39.8,201.8,91.7,3943.0,13782.0,2.0,0,
159600,1858.8,33.6,201.7,113.4,3943.0,13782.0,2.0,0,
159700,1857.6,34.2,201.7,82.6,3943.0,13782.0,2.0,0,
159800,1857.8,34.9,201.7,199.8,3943.0,13782.0,2.0,0,
159900,1858.8,35.9,201.8,240.2,3943.0,13782.0,2.0,0,
160000,1862.8,36.4,201.7,240.0,3943.0,13782.0,2.0,0,
160100,1857.9,32.7,201.8,239.9,3943.0,13782.0,2.0,0,
160200,1861.4,34.9,201.7,240.0,3943.0,13782.0,2.0,0,
160300,1859.8,57.7,201.7,239.1,2269.0,11856.0,5.0,1,
160400,1900.4,135.3,201.5,92.5,2415.0,12915.0,4.0,1,
160600,1861.8,139.3,196.4,93.5,3182.0,13035.0,2.0,0,
160700,1876.3,283.5,187.6,99.5,3625.0,13666.0,2.0,0,
160800,1903.4,291.8,183.6,93.6,4015.0,15416.0,2.0,0,
160900,1917.9,121.2,189.6,70.8,3752.0,14852.0,2.0,0,
161000,1827.4,40.9,182.2,69.4,3752.0,14852.0,2.0,0,
161100,1859.0,35.1,182.3,93.0,3752.0,14852.0,2.0,0,
161200,1859.4,33.7,182.3,157.4,3752.0,14852.0,2.0,0,
161300,1859.0,38.0,182.3,220.4,3752.0,14852.0,2.0,0,
161400,1860.8,37.3,182.3,240.3,3752.0,14852.0,2.0,0,
161600,1859.4,37.2,182.4,240.8,3752.0,14852.0,2.0,0,
161700,1860.2,35.3,182.4,239.9,3752.0,14852.0,2.0,0,
161800,1861.6,36.1,182.4,239.7,3752.0,14852.0,2.0,0,
161900,1860.1,35.4,182.4,239.7,3752.0,14852.0,2.0,0,
162000,1841.4,175.4,183.8,207.8,1998.0,8584.0,2.0,0,
162100,1864.0,273.2,197.9,139.8,2165.0,9959.0,2.0,0,
162200,1879.2,146.3,192.8,145.8,2155.0,9442.0,2.0,0,
162300,1889.7,188.0,195.5,124.2,2659.0,11629.0,2.0,0,
162400,1848.8,241.5,192.4,100.7,2492.0,10685.0,2.0,0,
162600,1878.3,42.2,180.9,109.1,2780.0,13119.0,3.0,1,
162700,1860.2,35.4,180.9,158.1,2780.0,13119.0,3.0,1,
162800,1859.2,36.5,180.9,157.5,2780.0,13119.0,3.0,1,
162900,1862.2,37.1,180.9,105.6,2780.0,13119.0,3.0,1,
163000,1857.2,36.6,181.0,220.8,2780.0,13119.0,3.0,1,
163100,1859.2,37.3,180.9,240.4,2780.0,13119.0,3.0,1,
163200,1858.0,36.6,180.9,240.0,2780.0,13119.0,3.0,1,
163300,1860.5,35.3,180.9,240.0,2780.0,13119.0,3.0,1,
163400,1861.5,35.6,180.8,240.1,2780.0,13119.0,3.0,1,
163600,1853.2,101.5,181.7,239.9,2050.0,12146.0,4.0,1,
163700,1865.3,138.9,175.0,93.1,2237.0,10034.0,2.0,0,
163800,1895.5,234.9,164.9,91.4,2719.0,12392.0,2.0,0,
163900,1837.2,296.6,166.7,117.6,2720.0,11069.0,2.0,0,
164000,1843.5,186.5,173.5,152.6,3092.0,12517.0,2.0,0,
164100,1861.6,181.3,173.1,100.9,3005.0,12785.0,2.0,0,
164200,1878.9,54.0,177.4,70.9,3214.0,13348.0,2.0,0,
164300,1867.9,37.1,177.3,115.3,3214.0,13348.0,2.0,0,
164400,1859.2,34.7,177.4,199.2,3214.0,13348.0,2.0,0,
164600,1859.6,34.1,177.3,218.0,3214.0,13348.0,2.0,0,
164700,1858.6,34.5,177.3,239.3,3214.0,13348.0,2.0,0,
164800,1862.4,34.7,177.2,239.7,3214.0,13348.0,2.0,0,
164900,1860.5,35.7,177.2,240.3,3214.0,13348.0,2.0,0,
165000,1859.2,35.5,177.2,240.2,3214.0,13348.0,2.0,0,
165100,1861.0,34.6,177.2,240.6,3214.0,13348.0,2.0,0,
165200,1845.0,132.9,177.2,249.7,2076.0,10973.0,5.0,1,
165300,1914.6,245.9,180.7,177.1,2241.0,9828.0,2.0,0,
165400,1823.2,168.4,184.7,149.9,2704.0,10954.0,2.0,0,
165600,1877.9,65.0,182.8,101.5,3066.0,14850.0,4.0,1,
165700,1858.6,92.9,170.3,69.5,3330.0,15455.0,4.0,1,
165800,1945.8,95.1,164.3,37.9,3115.0,12822.0,2.0,0,
165900,1810.3,39.6,164.8,39.9,3115.0,12822.0,2.0,0,
166000,1860.0,33.1,164.8,155.1,3115.0,12822.0,2.0,0,
166100,1858.6,32.0,164.8,225.9,3115.0,12822.0,2.0,0,
166200,1860.5,33.4,164.7,263.1,3115.0,12822.0,2.0,0,
166300,1862.2,36.1,164.7,241.7,3115.0,12822.0,2.0,0,
166400,1859.3,35.0,164.7,240.5,3115.0,12822.0,2.0,0,
166600,1859.9,35.9,164.7,241.1,3115.0,12822.0,2.0,0,
166700,1860.1,34.5,164.7,240.7,3115.0,12822.0,2.0,0,
166800,1860.3,73.5,164.6,240.7,2230.0,13526.0,4.0,1,
166900,1841.6,243.0,161.4,163.5,3221.0,16299.0,5.0,1,
167000,1871.6,248.6,153.6,87.3,3343.0,17784.0,4.0,1,
167100,1888.6,164.3,152.3,66.1,3337.0,14302.0,2.0,0,
167200,1880.9,153.5,147.4,73.1,3447.0,13890.0,2.0,0,
167300,1917.8,271.1,173.2,93.8,3171.0,13944.0,2.0,0,
167400,1809.4,122.2,181.7,92.8,3475.0,14067.0,2.0,0,
167600,1861.8,36.6,181.3,86.8,3475.0,14067.0,2.0,0,
167700,1860.2,33.5,181.4,94.1,3475.0,14067.0,2.0,0,
167800,1859.8,34.5,181.4,91.4,3475.0,14067.0,2.0,0,
167900,1862.2,39.0,181.4,220.2,3475.0,14067.0,2.0,0,
168000,1861.8,36.2,181.4,241.0,3475.0,14067.0,2.0,0,
168100,1858.7,36.3,181.5,240.8,3475.0,14067.0,2.0,0,
168200,1859.0,37.6,181.5,240.1,3475.0,14067.0,2.0,0,
168300,1860.8,34.9,181.6,239.9,3475.0,14067.0,2.0,0,
168400,1862.0,118.3,181.6,240.4,3475.0,14067.0,2.0,0,
168600,1864.1,210.5,200.3,195.7,3243.0,14124.0,2.0,0,
168700,1905.5,254.6,205.0,134.1,3558.0,14899.0,2.0,0,
168800,1902.4,282.6,208.9,104.2,3311.0,13438.0,2.0,0,
168900,1826.0,178.6,202.1,135.7,3657.0,14599.0,2.0,0,
169000,1870.7,166.7,200.4,122.6,3308.0,14836.0,2.0,0,
169100,1893.0,44.3,199.2,129.9,3329.0,14681.0,2.0,0,
169200,1860.4,34.6,199.2,167.0,3329.0,14681.0,2.0,0,
169300,1858.5,33.6,199.2,211.6,3329.0,14681.0,2.0,0,
169400,1859.2,36.2,199.2,234.8,3329.0,14681.0,2.0,0,
169600,1861.8,34.1,199.2,240.1,3329.0,14681.0,2.0,0,
169700,1860.3,36.8,199.2,240.1,3329.0,14681.0,2.0,0,
169800,1861.3,36.8,199.1,239.9,3329.0,14681.0,2.0,0,
169900,1861.0,37.4,199.1,240.0,3329.0,14681.0,2.0,0,
170000,1860.0,34.7,199.1,240.8,3329.0,14681.0,2.0,0,
170100,1844.9,232.6,196.3,239.8,2307.0,11555.0,2.0,0,
170200,1915.5,278.5,191.1,93.6,3284.0,14772.0,2.0,0,
170300,1870.7,183.0,194.2,94.1,3067.0,13807.0,2.0,0,
170400,1813.8,182.5,193.1,113.1,3364.0,14276.0,2.0,0,
170600,1882.9,294.9,199.0,75.3,3197.0,13960.0,2.0,0,
170700,1871.7,70.2,207.8,83.6,3340.0,13701.0,2.0,0,
170800,1865.6,37.1,207.8,102.9,3340.0,13701.0,2.0,0,
170900,1860.1,35.8,207.8,93.2,3340.0,13701.0,2.0,0,
171000,1860.8,35.8,207.7,43.9,3340.0,13701.0,2.0,0,
171100,1860.6,33.7,207.7,44.8,3340.0,13701.0,2.0,0,
171200,1858.9,39.1,207.7,244.7,3340.0,13701.0,2.0,0,
171300,1860.5,33.8,207.8,263.8,3340.0,13701.0,2.0,0,
171400,1862.5,33.6,207.8,244.5,3340.0,13701.0,2.0,0,
171600,1859.4,34.7,207.7,240.4,3340.0,13701.0,2.0,0,
171700,1901.0,70.3,207.9,240.8,1860.0,10542.0,4.0,1,
171800,1818.7,199.9,197.5,143.5,2057.0,9113.0,2.0,0,
171900,1844.4,345.8,192.3,93.6,2871.0,12567.0,2.0,0,
172000,1876.2,146.5,198.2,152.7,3444.0,17037.0,4.0,1,
172100,1866.4,107.5,180.7,110.7,3581.0,17113.0,4.0,1,
172200,1946.8,119.3,155.8,53.1,3582.0,18222.0,5.0,1,
172300,1818.8,67.7,132.2,39.3,3449.0,17194.0,5.0,1,
172400,1865.3,37.2,131.0,66.8,3449.0,17194.0,5.0,1,
172600,1860.2,35.1,131.0,77.9,3449.0,17194.0,5.0,1,
172700,1859.4,32.7,131.0,125.0,3449.0,17194.0,5.0,1,
172800,1860.5,32.3,131.0,269.9,3449.0,17194.0,5.0,1,
172900,1860.4,34.5,130.9,241.1,3449.0,17194.0,5.0,1,
173000,1860.1,33.5,131.0,240.8,3449.0,17194.0,5.0,1,
173100,1859.7,36.5,131.0,240.5,3449.0,17194.0,5.0,1,
173200,1861.0,35.1,130.9,240.3,3449.0,17194.0,5.0,1,
173300,1862.4,164.1,130.9,241.0,1804.0,10226.0,5.0,1,
173400,1850.5,316.7,143.3,177.2,2722.0,11645.0,2.0,0,
173600,1865.5,357.6,148.0,100.5,3266.0,13937.0,2.0,0,
173700,1945.3,137.7,178.7,93.4,3153.0,16597.0,3.0,1,
173800,1799.5,161.5,188.5,43.1,3642.0,17256.0,3.0,1,
173900,1863.0,158.7,194.7,36.7,3610.0,15690.0,2.0,0,
174000,1896.7,42.6,198.2,38.3,3610.0,15690.0,2.0,0,
174100,1861.0,37.0,198.2,72.2,3610.0,15690.0,2.0,0,
174200,1861.7,35.5,198.1,137.3,3610.0,15690.0,2.0,0,
174300,1860.0,31.9,198.1,214.1,3610.0,15690.0,2.0,0,
174400,1861.1,36.3,198.2,239.7,3610.0,15690.0,2.0,0,
174600,1860.1,34.7,198.2,240.6,3610.0,15690.0,2.0,0,
174700,1861.5,36.2,198.1,240.4,3610.0,15690.0,2.0,0,
174800,1860.0,37.4,198.2,240.2,3610.0,15690.0,2.0,0,
174900,1859.3,44.8,198.2,241.6,3610.0,15690.0,2.0,0,
175000,1840.1,276.2,193.6,243.0,2256.0,9662.0,2.0,0,
175100,1877.5,181.8,193.3,91.8,2855.0,12106.0,2.0,0,
175200,1906.1,142.8,188.9,90.2,3072.0,15099.0,3.0,1,
175300,1792.0,248.9,167.3,70.7,3003.0,12417.0,2.0,0,
175400,1870.3,328.5,180.5,39.1,2994.0,13675.0,2.0,0,
175600,1863.0,46.1,185.2,94.6,2956.0,13273.0,3.0,1,
175700,1860.5,37.1,185.1,93.7,2956.0,13273.0,3.0,1,
175800,1860.2,34.7,185.2,79.2,2956.0,13273.0,3.0,1,
175900,1857.7,36.5,185.2,67.6,2956.0,13273.0,3.0,1,
176000,1859.1,35.1,185.2,131.9,2956.0,13273.0,3.0,1,
176100,1859.6,34.6,185.2,240.7,2956.0,13273.0,3.0,1,
176200,1860.6,34.9,185.2,240.8,2956.0,13273.0,3.0,1,
176300,1859.5,36.2,185.2,240.9,2956.0,13273.0,3.0,1,
176400,1859.0,34.5,185.3,240.6,2956.0,13273.0,3.0,1,
176600,1890.7,55.3,185.3,239.0,2224.0,11413.0,4.0,1,
176700,1853.9,137.4,168.2,66.3,2545.0,12268.0,4.0,1,
176800,1830.4,196.2,160.3,51.6,2830.0,14093.0,4.0,1,
176900,1875.5,107.2,162.3,37.3,2819.0,14549.0,4.0,1,
177000,1859.7,147.6,138.0,29.7,2779.0,13660.0,4.0,1,
177100,1899.3,232.4,115.0,34.3,2885.0,14878.0,3.0,1,
177200,1840.0,57.6,115.1,30.2,2833.0,14543.0,3.0,1,
177300,1861.8,34.8,115.1,29.8,2833.0,14543.0,3.0,1,
177400,1861.3,33.9,115.0,35.9,2833.0,14543.0,3.0,1,
177600,1860.0,35.1,115.0,89.9,2833.0,14543.0,3.0,1,
177700,1860.7,34.3,114.9,276.8,2833.0,14543.0,3.0,1,
177800,1860.8,35.6,114.9,265.3,2833.0,14543.0,3.0,1,
177900,1860.6,34.7,114.8,240.8,2833.0,14543.0,3.0,1,
178000,1859.7,35.0,114.8,240.5,2833.0,14543.0,3.0,1,
178100,1859.1,36.2,114.8,241.1,2833.0,14543.0,3.0,1,
178200,1866.2,175.7,114.3,251.8,1935.0,9829.0,4.0,1,
178300,1837.3,126.9,155.5,69.7,2688.0,13290.0,3.0,1,
178400,1857.5,210.1,161.8,36.5,2851.0,14497.0,4.0,1,
178600,1927.0,143.6,165.5,27.3,3004.0,15548.0,3.0,1,
178700,1823.2,206.6,193.1,28.0,2912.0,14109.0,3.0,1,
178800,1842.1,61.0,188.4,28.2,3155.0,15069.0,3.0,1,
178900,1879.3,36.4,188.2,27.8,3155.0,15069.0,3.0,1,
179000,1862.1,34.4,188.2,29.0,3155.0,15069.0,3.0,1,
179100,1861.1,34.7,188.2,38.1,3155.0,15069.0,3.0,1,
179200,1859.9,36.5,188.1,87.6,3155.0,15069.0,3.0,1,
179300,1860.1,37.2,188.1,240.7,3155.0,15069.0,3.0,1,
179400,1859.6,35.0,188.2,241.0,3155.0,15069.0,3.0,1,
179600,1860.4,33.9,188.2,267.5,3155.0,15069.0,3.0,1,
179700,1860.6,37.5,188.2,240.5,3155.0,15069.0,3.0,1,
179800,1859.3,149.8,188.2,239.9,1760.0,9380.0,4.0,1,
179900,1852.7,171.0,180.1,195.6,2287.0,11677.0,4.0,1,
180000,1856.3,106.3,160.6,84.6,2832.0,13482.0,3.0,1,
180100,1933.7,174.3,172.2,55.3,3021.0,14767.0,3.0,1,
180200,1790.8,238.1,183.2,42.7,2906.0,13911.0,3.0,1,
180300,1858.6,94.0,177.3,39.4,3335.0,15963.0,3.0,1,
180400,1881.1,96.7,164.2,37.4,3143.0,14993.0,3.0,1,
180600,1859.6,40.5,164.1,38.2,3143.0,14993.0,3.0,1,
180700,1860.6,37.3,164.2,40.1,3143.0,14993.0,3.0,1,
180800,1859.2,36.3,164.2,46.3,3143.0,14993.0,3.0,1,
180900,1860.4,36.7,164.3,240.1,3143.0,14993.0,3.0,1,
181000,1859.2,40.6,164.3,240.0,3143.0,14993.0,3.0,1,
181100,1858.8,37.4,164.4,240.4,3143.0,14993.0,3.0,1,
181200,1862.9,37.9,164.4,240.5,3143.0,14993.0,3.0,1,
181300,1857.6,42.4,164.5,240.0,3143.0,14993.0,3.0,1,
181400,1861.2,41.5,164.5,236.8,3143.0,14993.0,3.0,1,
181600,1892.9,116.7,162.0,54.7,2610.0,13459.0,4.0,1,
181700,1807.2,105.0,155.0,35.4,2696.0,13416.0,3.0,1,
181800,1874.4,61.4,124.5,29.7,3207.0,15907.0,3.0,1,
181900,1865.2,106.4,108.9,29.0,3109.0,14501.0,4.0,1,
182000,1874.3,97.4,102.0,29.5,3227.0,15714.0,4.0,1,
182100,1870.1,38.3,88.5,29.0,3227.0,15714.0,4.0,1,
182200,1860.2,35.3,88.4,29.1,3227.0,15714.0,4.0,1,
182300,1860.3,37.7,88.3,66.1,3227.0,15714.0,4.0,1,
182400,1863.1,35.7,88.2,124.1,3227.0,15714.0,4.0,1,
182600,1859.1,37.5,88.2,240.0,3227.0,15714.0,4.0,1,
182700,1857.7,36.2,88.1,239.8,3227.0,15714.0,4.0,1,
182800,1857.5,37.7,88.1,240.5,3227.0,15714.0,4.0,1,
182900,1859.2,36.1,88.1,240.8,3227.0,15714.0,4.0,1,
183000,1858.9,33.8,88.0,240.7,3227.0,15714.0,4.0,1,
183100,1866.3,154.8,85.3,241.0,1982.0,9856.0,4.0,1,
183200,1834.7,108.2,100.2,106.8,2827.0,13511.0,3.0,1,
183300,1857.0,256.4,109.1,30.1,2939.0,14242.0,3.0,1,
183400,1872.9,97.2,144.6,36.0,2803.0,13234.0,4.0,1,
183600,1871.3,84.8,140.6,38.2,3014.0,13964.0,3.0,1,
183700,1833.9,43.2,140.2,28.7,2940.0,13462.0,3.0,1,
183800,1858.7,36.2,140.2,28.2,2940.0,13462.0,3.0,1,
183900,1860.3,33.6,140.2,30.3,2940.0,13462.0,3.0,1,
184000,1857.6,35.6,140.3,87.4,2940.0,13462.0,3.0,1,
184100,1859.0,35.6,140.3,238.8,2940.0,13462.0,3.0,1,
184200,1859.3,35.5,140.3,240.4,2940.0,13462.0,3.0,1,
184300,1861.3,36.6,140.2,240.0,2940.0,13462.0,3.0,1,
184400,1859.8,35.0,140.2,240.6,2940.0,13462.0,3.0,1,
184600,1859.2,37.3,140.1,240.4,2940.0,13462.0,3.0,1,
184700,1848.0,90.1,146.9,238.6,1548.0,7265.0,4.0,1,
184800,1861.4,208.9,137.5,37.3,2508.0,12918.0,4.0,1,
184900,1876.7,112.4,150.9,29.6,2647.0,12292.0,3.0,1,
185000,1901.6,74.2,105.3,29.5,3052.0,14455.0,3.0,1,
185100,1819.8,128.8,101.8,30.0,3010.0,13867.0,4.0,1,
185200,1847.2,142.7,103.8,34.9,3213.0,14662.0,3.0,1,
185300,1876.1,81.4,122.2,34.7,3067.0,14215.0,3.0,1,
185400,1872.2,37.1,122.1,30.1,3067.0,14215.0,3.0,1,
185600,1858.9,36.5,122.1,42.3,3067.0,14215.0,3.0,1,
185700,1860.3,33.3,122.1,50.0,3067.0,14215.0,3.0,1,
185800,1858.7,38.2,122.0,239.7,3067.0,14215.0,3.0,1,
185900,1861.2,35.6,122.0,240.0,3067.0,14215.0,3.0,1,
186000,1858.6,34.0,122.0,239.7,3067.0,14215.0,3.0,1,
186100,1859.6,36.5,122.1,239.6,3067.0,14215.0,3.0,1,
186200,1861.2,36.5,122.0,240.3,3067.0,14215.0,3.0,1,
186300,1859.9,58.4,122.0,240.4,1192.0,7131.0,4.0,1,
186400,1842.3,85.2,114.4,216.4,2317.0,10875.0,4.0,1,
186600,1812.4,159.9,139.7,30.0,2790.0,13453.0,3.0,1,
186700,1861.1,85.4,142.7,27.6,3353.0,15231.0,3.0,1,
186800,1863.5,163.9,153.3,35.0,2687.0,11502.0,2.0,0,
186900,1854.8,120.8,164.9,41.4,3076.0,11961.0,2.0,0,
187000,1877.8,42.7,165.1,93.3,3076.0,11961.0,2.0,0,
187100,1861.5,40.2,165.1,78.7,3076.0,11961.0,2.0,0,
187200,1859.3,36.5,165.1,38.6,3076.0,11961.0,2.0,0,
187300,1860.2,36.4,165.2,36.4,3076.0,11961.0,2.0,0,
187400,1859.0,34.9,165.2,189.2,3076.0,11961.0,2.0,0,
187600,1859.9,35.7,165.2,240.9,3076.0,11961.0,2.0,0,
187700,1859.8,38.1,165.2,239.9,3076.0,11961.0,2.0,0,
187800,1861.7,33.7,165.2,238.5,3076.0,11961.0,2.0,0,
187900,1858.5,41.3,165.2,239.8,579.0,2562.0,4.0,1,
188000,1862.1,44.8,164.6,240.0,587.0,3171.0,3.0,1,
188100,1864.9,48.3,165.2,101.3,931.0,3820.0,3.0,1,
188200,1852.4,67.7,130.6,38.3,1144.0,5022.0,4.0,1,
188300,1856.2,34.0,126.4,28.5,960.0,4000.0,3.0,1,
188400,1852.8,58.3,120.5,35.0,1202.0,5425.0,3.0,1,
188600,1851.3,37.5,60.7,29.8,1202.0,5425.0,3.0,1,
188700,1860.2,35.9,60.7,29.0,1202.0,5425.0,3.0,1,
188800,1860.1,36.8,60.6,29.6,1202.0,5425.0,3.0,1,
188900,1859.6,38.5,60.5,51.3,1202.0,5425.0,3.0,1,
189000,1857.6,35.0,60.6,239.7,1202.0,5425.0,3.0,1,
189100,1859.0,38.2,60.6,239.7,1202.0,5425.0,3.0,1,
189200,1859.8,36.6,60.6,240.4,1202.0,5425.0,3.0,1,
189300,1859.8,35.8,60.6,240.8,1202.0,5425.0,3.0,1,
189400,1862.2,35.6,60.5,240.6,1202.0,5425.0,3.0,1,
189600,1856.8,55.8,63.8,240.7,512.0,2169.0,4.0,1,
189700,1859.6,48.3,63.6,86.0,987.0,4427.0,3.0,1,
189800,1864.5,35.0,60.2,29.9,859.0,3568.0,3.0,1,
189900,1861.9,89.9,57.3,29.5,1082.0,4794.0,3.0,1,
190000,1848.6,41.0,69.1,29.8,996.0,4243.0,4.0,1,
190100,1848.3,51.6,67.6,29.1,1101.0,5437.0,3.0,1,
190200,1875.7,35.8,67.5,28.3,1143.0,5563.0,4.0,1,
190300,1859.8,35.8,67.4,28.5,1143.0,5563.0,4.0,1,
190400,1860.5,36.1,67.4,56.5,1143.0,5563.0,4.0,1,
190600,1859.6,35.6,67.3,240.1,1143.0,5563.0,4.0,1,
190700,1861.6,36.5,67.3,240.6,1143.0,5563.0,4.0,1,
190800,1857.9,34.2,67.3,240.3,1143.0,5563.0,4.0,1,
190900,1859.6,35.8,67.2,240.9,1143.0,5563.0,4.0,1,
191000,1860.5,35.2,67.2,241.0,1143.0,5563.0,4.0,1,
191100,1859.5,34.8,67.2,240.8,1143.0,5563.0,4.0,1,
191200,1854.6,51.3,67.7,240.5,520.0,2647.0,3.0,1,
191300,1863.3,67.7,65.3,152.6,471.0,1983.0,3.0,1,
191400,1859.3,80.0,77.9,30.0,973.0,4543.0,4.0,1,
191600,1865.0,47.9,69.5,30.0,1150.0,5544.0,3.0,1,
191700,1859.2,56.0,73.4,34.5,1060.0,5120.0,4.0,1,
191800,1853.7,39.2,73.6,34.7,1067.0,4635.0,3.0,1,
191900,1858.8,35.2,73.6,29.9,1067.0,4635.0,3.0,1,
192000,1859.2,34.4,73.6,29.7,1067.0,4635.0,3.0,1,
192100,1859.9,38.0,73.5,54.1,1067.0,4635.0,3.0,1,
192200,1858.8,38.1,73.6,237.9,1067.0,4635.0,3.0,1,
192300,1858.5,33.6,73.6,239.8,1067.0,4635.0,3.0,1,
192400,1860.1,33.0,73.5,239.3,1067.0,4635.0,3.0,1,
192600,1858.1,33.8,73.5,239.8,1067.0,4635.0,3.0,1,
192700,1858.8,33.7,73.4,239.7,1067.0,4635.0,3.0,1,
192800,1854.2,78.9,74.0,239.7,583.0,2608.0,2.0,0,
192900,1861.5,49.9,83.1,43.3,536.0,2511.0,4.0,1,
193000,1868.4,33.1,74.4,36.9,579.0,2218.0,3.0,1,
193100,1855.3,56.9,69.8,36.8,769.0,3598.0,4.0,1,
193200,1856.8,94.2,70.6,34.6,808.0,3489.0,2.0,0,
193300,1854.5,65.9,81.5,29.1,973.0,4130.0,3.0,1,
193400,1876.9,65.6,81.8,29.1,977.0,4441.0,3.0,1,
193600,1859.2,34.7,84.2,34.9,977.0,4441.0,3.0,1,
193700,1859.3,34.2,84.1,38.9,977.0,4441.0,3.0,1,
193800,1860.3,34.7,84.0,82.2,977.0,4441.0,3.0,1,
193900,1860.3,35.8,83.9,239.7,977.0,4441.0,3.0,1,
194000,1860.1,35.5,84.0,239.9,977.0,4441.0,3.0,1,
194100,1859.8,33.5,83.9,240.5,977.0,4441.0,3.0,1,
194200,1858.9,34.7,83.9,241.0,977.0,4441.0,3.0,1,
194300,1860.1,36.9,84.0,240.9,977.0,4441.0,3.0,1,
194400,1861.3,39.6,84.1,240.7,445.0,2525.0,3.0,1,
194600,1860.2,68.1,80.9,37.9,688.0,3129.0,3.0,1,
194700,1867.4,36.9,84.5,34.6,745.0,3020.0,3.0,1,
194800,1850.0,68.7,83.8,34.5,964.0,4783.0,4.0,1,
194900,1865.8,76.3,71.8,38.1,876.0,4022.0,4.0,1,
195000,1849.4,41.1,74.8,29.1,1072.0,4649.0,3.0,1,
195100,1863.0,35.2,69.5,28.2,1072.0,4649.0,3.0,1,
195200,1859.7,37.0,69.5,28.2,1072.0,4649.0,3.0,1,
195300,1859.1,32.6,69.6,39.6,1072.0,4649.0,3.0,1,
195400,1859.8,35.5,69.5,105.7,1072.0,4649.0,3.0,1,
195600,1860.2,35.0,69.6,241.0,1072.0,4649.0,3.0,1,
195700,1861.6,34.1,69.7,240.7,1072.0,4649.0,3.0,1,
195800,1860.1,36.7,69.7,241.2,1072.0,4649.0,3.0,1,
195900,1860.6,34.2,69.7,240.2,1072.0,4649.0,3.0,1,
196000,1862.9,41.5,69.6,240.1,1072.0,4649.0,3.0,1,
196100,1867.7,66.3,74.6,240.1,546.0,2467.0,3.0,1,
196200,1850.6,63.9,69.3,37.8,631.0,2449.0,4.0,1,
196300,1856.2,60.2,67.5,29.1,1103.0,5268.0,4.0,1,
196400,1872.0,104.7,74.5,28.5,1302.0,5883.0,3.0,1,
196600,1855.3,75.3,78.2,38.0,1582.0,7107.0,4.0,1,
196700,1869.2,40.3,80.1,36.6,1493.0,6562.0,3.0,1,
196800,1861.1,36.7,80.2,28.2,1493.0,6562.0,3.0,1,
196900,1860.2,36.1,80.2,29.4,1493.0,6562.0,3.0,1,
197000,1860.7,36.4,80.3,37.7,1493.0,6562.0,3.0,1,
197100,1858.9,35.3,80.3,239.3,1493.0,6562.0,3.0,1,
197200,1860.3,36.3,80.3,240.5,1493.0,6562.0,3.0,1,
197300,1859.7,35.1,80.3,240.3,1493.0,6562.0,3.0,1,
197400,1859.3,33.8,80.3,240.4,1493.0,6562.0,3.0,1,
197600,1857.9,36.1,80.4,240.3,1493.0,6562.0,3.0,1,
197700,1855.3,30.2,80.0,239.8,556.0,2577.0,3.0,1,
197800,1860.4,56.3,81.2,137.1,730.0,3089.0,3.0,1,
197900,1863.7,35.4,79.9,35.9,874.0,3844.0,3.0,1,
198000,1839.4,69.8,68.9,28.6,1036.0,5282.0,4.0,1,
198100,1869.3,61.8,61.0,28.4,999.0,4513.0,3.0,1,
198200,1869.1,49.8,60.4,28.8,1049.0,4492.0,3.0,1,
198300,1850.9,50.3,70.6,28.6,890.0,3957.0,2.0,0,
198400,1860.6,35.1,70.4,40.8,890.0,3957.0,2.0,0,
198600,1859.0,33.1,70.4,47.1,890.0,3957.0,2.0,0,
198700,1860.3,34.6,70.4,72.5,890.0,3957.0,2.0,0,
198800,1858.4,35.0,70.3,240.5,890.0,3957.0,2.0,0,
198900,1858.6,33.1,70.4,240.5,890.0,3957.0,2.0,0,
199000,1860.3,35.2,70.3,240.9,890.0,3957.0,2.0,0,
199100,1859.5,36.2,70.3,239.6,890.0,3957.0,2.0,0,
199200,1858.7,34.8,70.4,239.8,890.0,3957.0,2.0,0,
199300,1869.3,33.9,70.5,241.2,458.0,2614.0,3.0,1,
199400,1851.5,93.0,63.1,239.5,509.0,2135.0,4.0,1,
199600,1868.0,34.8,70.7,29.3,870.0,3690.0,3.0,1,
199700,1857.7,99.1,69.3,28.3,1005.0,4912.0,4.0,1,
199800,1857.9,92.2,71.6,28.7,1009.0,4334.0,3.0,1,
199900,1843.2,39.0,65.9,29.3,1053.0,4457.0,3.0,1,
200000,1866.6,35.2,63.2,28.7,1053.0,4457.0,3.0,1,
200100,1859.5,36.2,63.2,28.9,1053.0,4457.0,3.0,1,
200200,1861.5,34.2,63.1,30.1,1053.0,4457.0,3.0,1,
200300,1861.8,35.5,63.1,176.7,1053.0,4457.0,3.0,1,
200400,1858.8,35.3,63.2,242.9,1053.0,4457.0,3.0,1,
200600,1859.3,34.7,63.2,240.1,1053.0,4457.0,3.0,1,
200700,1858.0,34.4,63.2,239.6,1053.0,4457.0,3.0,1,
200800,1859.1,35.5,63.2,239.6,1053.0,4457.0,3.0,1,
200900,1860.0,139.7,63.2,240.1,608.0,2689.0,3.0,1,
201000,1862.0,60.2,76.9,142.6,786.0,3179.0,3.0,1,
201100,1852.0,138.5,71.3,41.1,773.0,3136.0,3.0,1,
201200,1841.0,98.3,85.0,36.0,1132.0,5598.0,3.0,1,
201300,1884.6,47.3,87.5,30.1,1059.0,4619.0,3.0,1,
201400,1849.5,60.8,85.2,29.6,1200.0,5059.0,3.0,1,
201600,1869.3,38.2,95.1,30.2,1200.0,5059.0,3.0,1,
201700,1860.5,33.2,95.1,40.5,1200.0,5059.0,3.0,1,
201800,1858.2,36.0,95.1,40.3,1200.0,5059.0,3.0,1,
201900,1860.6,34.2,95.1,41.1,1200.0,5059.0,3.0,1,
202000,1859.9,35.5,95.1,203.6,1200.0,5059.0,3.0,1,
202100,1858.8,34.2,95.1,240.3,1200.0,5059.0,3.0,1,
202200,1859.6,33.6,95.1,240.6,1200.0,5059.0,3.0,1,
202300,1859.2,34.7,95.1,240.4,1200.0,5059.0,3.0,1,
202400,1858.9,32.9,95.1,239.8,1200.0,5059.0,3.0,1,
202600,1852.5,86.1,85.5,238.9,432.0,2244.0,3.0,1,
202700,1847.3,53.6,87.3,88.2,722.0,2942.0,3.0,1,
202800,1873.4,26.3,73.9,72.9,591.0,2272.0,3.0,1,
202900,1841.4,118.8,70.6,39.1,774.0,3577.0,4.0,1,
203000,1866.1,91.6,76.0,28.9,806.0,3546.0,4.0,1,
203100,1866.5,53.5,76.9,29.4,700.0,3032.0,3.0,1,
203200,1852.2,35.5,60.4,28.9,831.0,3610.0,3.0,1,
203300,1861.5,34.7,60.4,28.8,831.0,3610.0,3.0,1,
203400,1859.0,33.9,60.5,34.5,831.0,3610.0,3.0,1,
203600,1859.2,38.2,60.6,238.3,831.0,3610.0,3.0,1,
203700,1858.4,32.5,60.7,239.5,831.0,3610.0,3.0,1,
203800,1858.6,33.5,60.7,238.2,831.0,3610.0,3.0,1,
203900,1859.8,35.1,60.7,239.4,831.0,3610.0,3.0,1,
204000,1859.6,34.7,60.8,239.4,831.0,3610.0,3.0,1,
204100,1861.2,35.0,60.9,239.1,831.0,3610.0,3.0,1,
204200,1861.3,36.0,58.7,238.7,463.0,2491.0,3.0,1,
204300,1848.5,168.7,56.0,152.6,452.0,2087.0,3.0,1,
204400,1860.5,64.2,76.7,30.0,749.0,3439.0,3.0,1,
204600,1850.2,121.7,72.2,28.7,802.0,3514.0,4.0,1,
204700,1862.8,148.1,75.5,29.0,1026.0,4399.0,3.0,1,
204800,1865.9,40.7,86.2,28.6,1045.0,4303.0,4.0,1,
204900,1859.9,33.8,86.2,28.2,1045.0,4303.0,4.0,1,
205000,1860.5,34.8,86.1,28.6,1045.0,4303.0,4.0,1,
205100,1858.7,34.6,86.2,29.4,1045.0,4303.0,4.0,1,
205200,1859.6,33.6,86.1,88.0,1045.0,4303.0,4.0,1,
205300,1859.7,32.9,86.1,240.6,1045.0,4303.0,4.0,1,
205400,1858.4,35.7,86.1,240.9,1045.0,4303.0,4.0,1,
205600,1861.3,31.3,86.0,240.3,1045.0,4303.0,4.0,1,
205700,1858.2,32.6,86.0,240.3,1045.0,4303.0,4.0,1,
205800,1882.0,125.0,85.9,240.8,2176.0,11937.0,4.0,1,
205900,1821.0,69.1,93.6,130.2,2942.0,14036.0,3.0,1,
206000,1864.4,135.0,79.4,67.1,2964.0,12713.0,3.0,1,
206100,1877.2,233.9,94.8,42.0,3129.0,13149.0,3.0,1,
206200,1904.5,103.8,144.8,37.3,3165.0,13523.0,3.0,1,
206300,1825.8,155.1,146.9,39.5,3312.0,13027.0,3.0,1,
206400,1843.7,52.9,144.1,39.3,3420.0,14330.0,3.0,1,
206600,1859.0,34.6,144.3,27.9,3420.0,14330.0,3.0,1,
206700,1857.7,33.2,144.3,29.8,3420.0,14330.0,3.0,1,
206800,1857.6,33.7,144.4,174.1,3420.0,14330.0,3.0,1,
206900,1859.9,34.4,144.4,240.7,3420.0,14330.0,3.0,1,
207000,1862.3,33.3,144.3,240.9,3420.0,14330.0,3.0,1,
207100,1857.9,32.5,144.3,240.4,3420.0,14330.0,3.0,1,
207200,1858.3,32.1,144.3,238.7,3420.0,14330.0,3.0,1,
207300,1856.6,33.6,144.4,238.6,3420.0,14330.0,3.0,1,
207400,1859.7,93.3,144.5,240.3,998.0,4443.0,3.0,1,
207600,1852.4,99.0,145.8,29.2,1775.0,8000.0,3.0,1,
207700,1892.5,78.6,142.8,29.4,1881.0,8026.0,4.0,1,
207800,1820.1,124.6,96.3,29.2,2729.0,11171.0,2.0,0,
207900,1868.9,54.6,103.7,27.9,2738.0,12045.0,3.0,1,
208000,1864.9,115.7,98.3,34.5,2601.0,10686.0,3.0,1,
208100,1870.1,37.4,107.1,34.3,2601.0,10686.0,3.0,1,
208200,1858.3,36.0,107.1,28.9,2601.0,10686.0,3.0,1,
208300,1858.8,32.7,107.2,28.6,2601.0,10686.0,3.0,1,
208400,1860.0,34.7,107.2,30.1,2601.0,10686.0,3.0,1,
208600,1860.7,31.3,107.0,241.0,2601.0,10686.0,3.0,1,
208700,1859.7,32.8,107.0,241.2,2601.0,10686.0,3.0,1,
208800,1861.8,32.9,107.0,240.7,2601.0,10686.0,3.0,1,
208900,1860.0,33.3,107.0,240.7,2601.0,10686.0,3.0,1,
209000,1858.5,34.9,107.0,240.8,2601.0,10686.0,3.0,1,
209100,1839.1,97.1,100.5,239.5,677.0,2887.0,4.0,1,
209200,1873.7,28.7,112.7,30.1,661.0,2797.0,3.0,1,
209300,1853.4,68.3,106.9,29.1,1159.0,5378.0,3.0,1,
209400,1856.7,33.5,105.1,29.6,1209.0,5406.0,4.0,1,
209600,1855.3,58.3,92.5,28.5,1765.0,8017.0,3.0,1,
209700,1862.6,36.4,75.6,28.7,1765.0,8017.0,3.0,1,
209800,1860.7,34.4,75.7,27.8,1765.0,8017.0,3.0,1,
209900,1858.9,32.2,75.6,27.9,1765.0,8017.0,3.0,1,
210000,1858.9,32.4,75.5,39.4,1765.0,8017.0,3.0,1,
210100,1857.3,33.2,75.5,240.5,1765.0,8017.0,3.0,1,
210200,1858.5,34.3,75.5,241.5,1765.0,8017.0,3.0,1,
210300,1860.5,33.0,75.5,241.2,1765.0,8017.0,3.0,1,
210400,1860.0,35.3,75.4,240.2,1765.0,8017.0,3.0,1,
210600,1858.7,35.8,75.5,240.7,1765.0,8017.0,3.0,1,
210700,1861.0,34.7,77.9,239.5,592.0,2499.0,3.0,1,
210800,1855.9,43.5,55.4,43.7,566.0,2454.0,4.0,1,
210900,1863.2,29.1,56.9,36.6,556.0,2266.0,3.0,1,
211000,1867.2,63.2,55.5,29.8,969.0,4184.0,3.0,1,
211100,1860.5,55.4,57.2,28.2,878.0,4356.0,3.0,1,
211200,1850.5,76.2,55.9,28.3,1005.0,4241.0,3.0,1,
211300,1863.0,41.5,60.1,29.1,1116.0,5138.0,3.0,1,
211400,1859.6,34.7,60.0,29.5,1116.0,5138.0,3.0,1,
211600,1858.0,34.0,60.1,30.0,1116.0,5138.0,3.0,1,
211700,1859.0,34.0,60.1,177.9,1116.0,5138.0,3.0,1,
211800,1861.2,34.1,60.1,240.4,1116.0,5138.0,3.0,1,
211900,1858.0,30.6,60.1,240.1,1116.0,5138.0,3.0,1,
212000,1858.8,33.1,60.2,239.3,1116.0,5138.0,3.0,1,
212100,1860.7,34.5,60.1,240.2,1116.0,5138.0,3.0,1,
212200,1859.8,32.9,60.1,240.6,1116.0,5138.0,3.0,1,
212300,1853.3,137.2,56.9,240.6,574.0,2880.0,3.0,1,
212400,1864.8,32.1,65.6,117.5,439.0,1870.0,3.0,1,
212600,1864.4,97.1,64.2,27.9,867.0,3754.0,3.0,1,
212700,1855.3,105.9,65.5,28.3,1061.0,4787.0,3.0,1,
212800,1863.3,81.1,73.6,28.2,1130.0,5087.0,3.0,1,
212900,1853.9,37.7,70.9,36.2,1045.0,4429.0,4.0,1,
213000,1862.9,35.3,71.0,36.5,1045.0,4429.0,4.0,1,
213100,1861.4,32.9,71.0,37.4,1045.0,4429.0,4.0,1,
213200,1861.0,32.9,71.0,41.8,1045.0,4429.0,4.0,1,
213300,1860.4,33.4,71.0,177.7,1045.0,4429.0,4.0,1,
213400,1860.5,35.6,70.9,240.0,1045.0,4429.0,4.0,1,
213600,1858.8,34.8,70.9,240.7,1045.0,4429.0,4.0,1,
213700,1860.7,32.5,70.9,240.9,1045.0,4429.0,4.0,1,
213800,1859.3,34.8,70.9,240.5,1045.0,4429.0,4.0,1,
213900,1859.5,110.8,71.0,241.0,520.0,2737.0,12.0,1,
214000,1850.1,81.3,67.8,185.1,432.0,2368.0,3.0,1,
214100,1879.7,34.0,71.0,29.7,849.0,3526.0,3.0,1,
214200,1848.3,79.6,69.7,29.1,1045.0,4957.0,3.0,1,
214300,1847.3,84.6,69.6,29.3,1148.0,4742.0,3.0,1,
214400,1867.1,48.3,71.1,28.9,1012.0,4266.0,3.0,1,
214600,1870.4,35.5,71.4,28.6,1012.0,4266.0,3.0,1,
214700,1860.7,33.4,71.4,29.6,1012.0,4266.0,3.0,1,
214800,1858.1,31.6,71.4,39.2,1012.0,4266.0,3.0,1,
214900,1860.7,32.9,71.4,174.8,1012.0,4266.0,3.0,1,
215000,1860.9,35.0,71.5,241.2,1012.0,4266.0,3.0,1,
215100,1857.7,36.7,71.6,241.1,1012.0,4266.0,3.0,1,
215200,1859.4,33.9,71.8,240.6,1012.0,4266.0,3.0,1,
215300,1861.6,33.8,71.9,240.7,1012.0,4266.0,3.0,1,
215400,1861.7,36.2,72.0,240.6,1012.0,4266.0,3.0,1,
215600,1850.8,109.8,68.5,239.4,459.0,2310.0,3.0,1,
215700,1856.5,86.8,74.5,40.6,865.0,4112.0,2.0,0,
215800,1866.6,46.6,78.9,28.7,862.0,4161.0,3.0,1,
215900,1864.1,76.2,75.1,30.0,1052.0,4499.0,3.0,1,
216000,1844.4,64.0,69.6,34.7,1144.0,4869.0,4.0,1,
216100,1870.6,36.1,70.9,30.3,1006.0,4370.0,4.0,1,
216200,1852.1,34.7,68.9,29.3,1006.0,4370.0,4.0,1,
216300,1856.6,34.9,69.0,29.5,1006.0,4370.0,4.0,1,
216400,1861.0,34.7,69.1,35.5,1006.0,4370.0,4.0,1,
216600,1858.4,35.4,69.4,239.8,1006.0,4370.0,4.0,1,
216700,1859.3,33.9,69.3,239.9,1006.0,4370.0,4.0,1,
216800,1860.9,33.2,69.3,240.2,1006.0,4370.0,4.0,1,
216900,1862.3,35.1,69.3,240.3,1006.0,4370.0,4.0,1,
217000,1857.7,34.6,69.2,240.2,1006.0,4370.0,4.0,1,
217100,1861.4,105.3,69.1,240.0,1006.0,4370.0,4.0,1,
217200,1867.5,53.7,80.4,229.2,558.0,2663.0,3.0,1,
217300,1855.3,19.2,72.6,29.9,676.0,2616.0,4.0,1,
217400,1855.6,61.3,67.9,28.9,985.0,4434.0,4.0,1,
217600,1872.9,40.2,66.6,29.6,1034.0,4374.0,3.0,1,
217700,1833.3,78.5,65.0,28.4,1295.0,5593.0,4.0,1,
217800,1878.9,39.3,66.6,28.0,1221.0,5425.0,3.0,1,
217900,1861.6,33.6,66.4,42.0,1221.0,5425.0,3.0,1,
218000,1860.7,37.9,66.4,82.0,1221.0,5425.0,3.0,1,
218100,1861.6,38.6,66.5,133.3,1221.0,5425.0,3.0,1,
218200,1860.4,36.4,66.4,239.9,1221.0,5425.0,3.0,1,
218300,1860.9,38.0,66.5,240.2,1221.0,5425.0,3.0,1,
218400,1861.7,36.9,66.7,240.1,1221.0,5425.0,3.0,1,
218600,1861.7,35.3,66.7,240.1,1221.0,5425.0,3.0,1,
218700,1860.6,35.8,66.8,240.0,1221.0,5425.0,3.0,1,
218800,1856.0,177.0,52.5,239.8,546.0,2860.0,10.0,1,
218900,1867.5,46.4,66.6,75.1,673.0,2543.0,3.0,1,
219000,1863.5,60.6,73.3,29.0,822.0,3435.0,3.0,1,
219100,1849.8,71.7,72.5,29.1,912.0,3164.0,3.0,1,
219200,1858.6,114.7,72.8,29.0,952.0,4036.0,3.0,1,
219300,1869.4,33.5,77.2,28.7,807.0,2901.0,3.0,1,
219400,1850.0,32.5,75.0,28.5,907.0,3408.0,3.0,1,
219600,1861.6,35.3,75.1,29.1,907.0,3408.0,3.0,1,
219700,1860.4,34.4,75.0,86.1,907.0,3408.0,3.0,1,
219800,1858.4,35.7,74.9,237.7,907.0,3408.0,3.0,1,
219900,1860.3,36.2,74.9,240.0,907.0,3408.0,3.0,1,
220000,1859.1,35.6,74.8,240.2,907.0,3408.0,3.0,1,
220100,1859.3,35.6,74.9,239.9,907.0,3408.0,3.0,1,
220200,1858.9,37.1,75.0,239.9,907.0,3408.0,3.0,1,
220300,1860.3,34.4,75.1,240.1,907.0,3408.0,3.0,1,
220400,1864.3,121.9,75.0,240.1,565.0,2704.0,3.0,1,
220600,1868.2,125.2,68.5,34.4,1119.0,4744.0,4.0,1,
220700,1856.7,264.6,85.8,29.6,992.0,3381.0,2.0,0,
220800,1853.6,166.0,116.8,36.5,1107.0,3199.0,28.0,0,
220900,1853.6,231.9,141.1,100.6,947.0,3731.0,2.0,0,
221000,1883.7,63.0,161.1,136.0,1008.0,3321.0,2.0,0,
221100,1848.4,36.1,161.4,135.2,1008.0,3321.0,2.0,0,
221200,1861.2,34.1,161.4,136.2,1008.0,3321.0,2.0,0,
221300,1859.3,34.9,161.4,188.4,1008.0,3321.0,2.0,0,
221400,1858.8,35.7,161.4,232.3,1008.0,3321.0,2.0,0,
221600,1858.8,35.1,161.4,240.3,1008.0,3321.0,2.0,0,
221700,1860.5,34.6,161.4,240.5,1008.0,3321.0,2.0,0,
221800,1862.0,33.3,161.3,240.4,1008.0,3321.0,2.0,0,
221900,1859.7,36.3,161.3,239.9,1008.0,3321.0,2.0,0,
222000,1857.6,30.2,161.4,239.8,525.0,2963.0,3.0,1,
222100,1857.2,27.4,158.3,239.6,703.0,2705.0,4.0,1,
222200,1852.6,45.4,156.1,157.4,1008.0,4061.0,3.0,1,
222300,1862.0,47.1,152.1,30.2,878.0,3693.0,3.0,1,
222400,1850.7,58.9,127.2,28.4,1285.0,5426.0,3.0,1,
222600,1835.0,122.8,68.4,29.4,1286.0,5222.0,3.0,1,
222700,1864.7,37.7,73.6,29.1,1286.0,5222.0,3.0,1,
222800,1862.1,34.2,73.5,28.7,1286.0,5222.0,3.0,1,
222900,1860.7,33.9,73.5,34.6,1286.0,5222.0,3.0,1,
223000,1860.8,35.2,73.5,35.6,1286.0,5222.0,3.0,1,
223100,1859.0,36.1,73.5,141.6,1286.0,5222.0,3.0,1,
223200,1859.0,37.3,73.5,240.3,1286.0,5222.0,3.0,1,
223300,1863.4,35.4,73.6,240.9,1286.0,5222.0,3.0,1,
223400,1860.3,37.6,73.6,240.5,1286.0,5222.0,3.0,1,
223600,1858.6,38.6,73.6,239.4,1286.0,5222.0,3.0,1,
223700,1865.5,27.7,73.8,239.5,385.0,2236.0,3.0,1,
223800,1858.6,70.3,83.1,142.3,643.0,2537.0,4.0,1,
223900,1852.7,78.9,83.2,30.1,1161.0,4642.0,4.0,1,
224000,1869.2,46.1,90.6,29.0,1010.0,4318.0,4.0,1,
224100,1850.2,63.2,94.1,28.5,1362.0,5597.0,3.0,1,
224200,1858.3,45.5,90.7,28.3,1390.0,5568.0,4.0,1,
224300,1863.1,36.6,76.5,28.5,1315.0,5020.0,3.0,1,
224400,1857.8,36.1,76.6,28.1,1315.0,5020.0,3.0,1,
224600,1859.0,34.6,76.6,89.5,1315.0,5020.0,3.0,1,
224700,1858.8,35.3,76.7,237.8,1315.0,5020.0,3.0,1,
224800,1860.9,36.0,76.7,239.8,1315.0,5020.0,3.0,1,
224900,1858.4,35.9,76.7,240.0,1315.0,5020.0,3.0,1,
225000,1860.7,37.0,76.8,240.2,1315.0,5020.0,3.0,1,
225100,1857.7,36.3,76.8,240.7,1315.0,5020.0,3.0,1,
225200,1859.0,38.6,76.8,240.9,1315.0,5020.0,3.0,1,
225300,1855.3,149.7,76.5,240.8,584.0,2598.0,3.0,1,
225400,1860.8,59.4,88.6,118.0,550.0,2693.0,3.0,1,
225600,1838.9,77.8,89.0,29.0,1528.0,7042.0,4.0,1,
225700,1866.5,55.6,89.5,28.1,1282.0,5444.0,3.0,1,
225800,1868.5,58.4,84.8,30.0,1687.0,7483.0,3.0,1,
225900,1850.6,51.0,93.8,35.2,1539.0,6633.0,3.0,1,
226000,1862.1,39.1,93.8,27.3,1539.0,6633.0,3.0,1,
226100,1860.3,37.8,93.8,27.1,1539.0,6633.0,3.0,1,
226200,1860.7,35.1,94.0,28.1,1539.0,6633.0,3.0,1,
226300,1858.5,34.6,93.9,39.8,1539.0,6633.0,3.0,1,
226400,1860.0,34.4,93.9,239.8,1539.0,6633.0,3.0,1,
226600,1859.3,35.3,93.8,240.4,1539.0,6633.0,3.0,1,
226700,1860.1,32.9,93.7,240.2,1539.0,6633.0,3.0,1,
226800,1859.7,36.0,93.6,240.0,1539.0,6633.0,3.0,1,
226900,1882.0,59.9,93.7,239.7,918.0,4512.0,4.0,1,
227000,1836.3,32.7,80.3,195.9,1004.0,4040.0,3.0,1,
227100,1855.1,105.3,79.0,88.7,1103.0,5017.0,3.0,1,
227200,1868.7,40.2,81.5,85.6,1333.0,5198.0,3.0,1,
227300,1856.2,108.3,66.5,29.5,1801.0,8093.0,3.0,1,
227400,1879.4,107.0,69.9,28.9,1914.0,7505.0,2.0,0,
227600,1864.4,35.4,64.4,29.7,1914.0,7505.0,2.0,0,
227700,1859.3,34.0,64.3,29.3,1914.0,7505.0,2.0,0,
227800,1858.9,35.0,64.2,29.8,1914.0,7505.0,2.0,0,
227900,1858.5,34.9,64.1,117.7,1914.0,7505.0,2.0,0,
228000,1861.2,35.7,64.1,240.3,1914.0,7505.0,2.0,0,
228100,1859.6,33.9,64.1,240.3,1914.0,7505.0,2.0,0,
228200,1860.8,34.2,64.1,239.7,1914.0,7505.0,2.0,0,
228300,1862.2,33.6,64.1,239.7,1914.0,7505.0,2.0,0,
228400,1858.5,34.9,64.1,240.0,1914.0,7505.0,2.0,0,
228600,1862.9,35.4,62.9,239.5,449.0,1983.0,3.0,1,
228700,1848.5,137.2,62.7,53.7,467.0,2004.0,3.0,1,
228800,1845.4,119.6,67.0,28.7,1089.0,5005.0,3.0,1,
228900,1899.0,61.1,73.3,28.3,1591.0,6811.0,3.0,1,
229000,1830.9,91.9,70.4,28.2,2086.0,9171.0,3.0,1,
229100,1850.1,48.2,70.0,28.8,2010.0,8718.0,3.0,1,
229200,1873.6,33.9,70.3,29.2,2010.0,8718.0,3.0,1,
229300,1860.5,35.2,70.2,28.1,2010.0,8718.0,3.0,1,
229400,1860.3,35.6,70.2,28.8,2010.0,8718.0,3.0,1,
229600,1858.8,37.9,70.4,240.4,2010.0,8718.0,3.0,1,
229700,1858.8,34.4,70.5,240.2,2010.0,8718.0,3.0,1,
229800,1860.8,34.8,70.5,240.0,2010.0,8718.0,3.0,1,
229900,1861.3,36.3,70.5,240.1,2010.0,8718.0,3.0,1,
230000,1858.5,35.5,70.5,240.2,2010.0,8718.0,3.0,1,
230100,1859.3,24.1,70.6,240.4,2010.0,8718.0,3.0,1,
230200,1858.4,29.0,70.1,240.2,496.0,2177.0,3.0,1,
230300,1854.5,59.6,70.0,167.5,593.0,2397.0,3.0,1,
230400,1869.0,33.3,63.8,90.8,887.0,3790.0,4.0,1,
230600,1868.0,76.3,63.5,28.9,2123.0,9240.0,3.0,1,
230700,1865.9,129.4,57.8,28.5,2190.0,8829.0,3.0,1,
230800,1858.0,39.8,69.7,34.3,2360.0,9819.0,3.0,1,
230900,1861.2,33.9,69.7,34.2,2360.0,9819.0,3.0,1,
231000,1860.8,36.5,69.8,29.5,2360.0,9819.0,3.0,1,
231100,1859.8,36.2,69.8,35.0,2360.0,9819.0,3.0,1,
231200,1860.8,34.8,69.7,237.3,2360.0,9819.0,3.0,1,
231300,1861.0,33.1,69.5,238.1,2360.0,9819.0,3.0,1,
231400,1858.8,33.9,69.5,220.6,2360.0,9819.0,3.0,1,
231600,1861.2,34.2,69.6,238.5,2360.0,9819.0,3.0,1,
231700,1862.3,31.9,69.5,239.3,2360.0,9819.0,3.0,1,
231800,1854.2,90.7,74.2,238.6,781.0,3932.0,4.0,1,
231900,1868.7,111.2,84.2,30.2,1349.0,5651.0,3.0,1,
232000,1841.8,48.7,91.5,28.8,2641.0,11023.0,3.0,1,
232100,1857.8,138.2,97.0,28.8,2494.0,10424.0,4.0,1,
232200,1869.0,87.1,95.1,28.7,2686.0,10826.0,3.0,1,
232300,1891.5,75.8,99.4,28.4,2825.0,11533.0,3.0,1,
232400,1838.7,54.9,107.5,28.7,2678.0,9009.0,2.0,0,
232600,1859.0,34.4,107.6,29.3,2678.0,9009.0,2.0,0,
232700,1860.7,35.8,107.6,29.4,2678.0,9009.0,2.0,0,
232800,1859.3,34.8,107.6,36.0,2678.0,9009.0,2.0,0,
232900,1858.6,33.2,107.6,239.7,2678.0,9009.0,2.0,0,
233000,1856.9,34.6,107.6,239.6,2678.0,9009.0,2.0,0,
233100,1859.3,35.4,107.6,239.6,2678.0,9009.0,2.0,0,
233200,1860.3,33.8,107.6,240.2,2678.0,9009.0,2.0,0,
233300,1859.0,35.8,107.6,240.4,2678.0,9009.0,2.0,0,
233400,1875.2,45.1,107.7,240.3,924.0,3634.0,3.0,1,
233600,1864.3,106.8,107.1,36.8,2466.0,10500.0,3.0,1,
233700,1874.0,87.8,107.8,28.7,2869.0,11969.0,3.0,1,
233800,1899.4,78.4,102.7,28.5,2654.0,10619.0,3.0,1,
233900,1813.5,75.7,99.3,29.4,2717.0,9925.0,2.0,0,
234000,1861.1,40.4,82.1,29.2,2893.0,11235.0,3.0,1,
234100,1874.2,31.4,81.8,29.0,2893.0,11235.0,3.0,1,
234200,1858.2,35.2,81.8,30.0,2893.0,11235.0,3.0,1,
234300,1857.9,34.4,81.8,66.4,2893.0,11235.0,3.0,1,
234400,1861.1,35.9,81.7,228.5,2893.0,11235.0,3.0,1,
234600,1859.5,34.4,81.7,239.4,2893.0,11235.0,3.0,1,
234700,1857.8,34.7,81.7,238.1,2893.0,11235.0,3.0,1,
234800,1859.0,36.3,81.7,237.9,2893.0,11235.0,3.0,1,
234900,1860.4,34.4,81.6,239.4,2893.0,11235.0,3.0,1,
235000,1863.3,119.3,81.5,240.0,963.0,4119.0,4.0,1,
235100,1863.2,64.2,85.7,235.4,1136.0,4674.0,3.0,1,
235200,1847.3,45.2,63.2,29.7,1580.0,6850.0,3.0,1,
235300,1890.5,52.2,61.2,28.3,1961.0,7671.0,3.0,1,
235400,1829.0,69.0,59.9,28.3,2126.0,8160.0,3.0,1,
235600,1854.8,62.7,65.8,29.5,1996.0,7349.0,2.0,0,
235700,1867.1,35.7,68.2,45.5,1996.0,7349.0,2.0,0,
235800,1858.7,36.2,68.2,47.4,1996.0,7349.0,2.0,0,
235900,1860.5,36.0,68.2,40.0,1996.0,7349.0,2.0,0,
236000,1860.1,33.4,68.1,48.8,1996.0,7349.0,2.0,0,
236100,1858.8,35.2,68.0,239.7,1996.0,7349.0,2.0,0,
236200,1859.5,33.4,68.0,240.2,1996.0,7349.0,2.0,0,
236300,1859.8,34.7,67.9,240.1,1996.0,7349.0,2.0,0,
236400,1856.9,32.6,67.9,239.9,1996.0,7349.0,2.0,0,
236600,1860.4,37.8,67.8,240.0,1996.0,7349.0,2.0,0,
236700,1848.0,40.7,62.4,239.9,1174.0,5936.0,4.0,1,
236800,1891.3,48.3,61.2,91.7,1577.0,6009.0,3.0,1,
236900,1820.4,43.8,61.8,52.1,2027.0,8709.0,4.0,1,
237000,1855.3,94.6,61.6,39.3,2075.0,8196.0,3.0,1,
237100,1874.2,72.1,77.3,39.1,2161.0,8192.0,3.0,1,
237200,1864.0,51.0,70.5,28.1,2180.0,8938.0,3.0,1,
237300,1854.5,31.9,68.3,27.7,2180.0,8938.0,3.0,1,
237400,1857.2,33.7,68.2,27.8,2180.0,8938.0,3.0,1,
237600,1857.2,34.1,68.2,57.3,2180.0,8938.0,3.0,1,
237700,1861.8,32.4,68.2,239.9,2180.0,8938.0,3.0,1,
237800,1858.6,35.4,68.1,240.1,2180.0,8938.0,3.0,1,
237900,1861.0,31.5,68.2,240.3,2180.0,8938.0,3.0,1,
238000,1858.1,34.8,68.2,240.7,2180.0,8938.0,3.0,1,
238100,1856.7,37.0,68.3,240.0,2180.0,8938.0,3.0,1,
238200,1858.8,33.3,68.4,239.7,2180.0,8938.0,3.0,1,
238300,1857.0,91.6,75.5,237.8,582.0,2388.0,4.0,1,
238400,1856.1,36.5,81.5,35.4,1292.0,5762.0,3.0,1,
238600,1850.1,97.6,87.7,28.0,2572.0,10758.0,4.0,1,
238700,1887.0,140.7,77.4,29.8,2818.0,11535.0,3.0,1,
238800,1858.1,78.0,94.2,36.5,2568.0,10385.0,3.0,1,
238900,1847.8,38.0,94.0,34.6,2757.0,10212.0,2.0,0,
239000,1859.4,37.3,93.9,35.5,2757.0,10212.0,2.0,0,
239100,1858.3,33.6,94.0,36.7,2757.0,10212.0,2.0,0,
239200,1861.2,31.6,94.0,67.5,2757.0,10212.0,2.0,0,
239300,1858.9,34.4,93.9,239.8,2757.0,10212.0,2.0,0,
239400,1857.9,30.3,93.8,240.0,2757.0,10212.0,2.0,0,
239600,1859.1,31.7,93.6,241.2,2757.0,10212.0,2.0,0,
239700,1860.2,31.0,93.4,250.6,2757.0,10212.0,2.0,0,
239800,1862.7,32.5,93.2,251.8,2757.0,10212.0,2.0,0,
239900,1861.1,29.7,92.8,241.1,929.0,4036.0,3.0,1,
240000,1845.0,98.0,81.4,214.5,1256.0,5482.0,4.0,1,
240100,1861.3,127.1,82.6,57.2,2109.0,9036.0,3.0,1,
240200,1897.4,74.4,80.6,29.2,2654.0,11719.0,3.0,1,
240300,1835.5,118.1,87.7,28.9,2822.0,11146.0,3.0,1,
240400,1843.5,196.0,73.2,29.1,2993.0,11956.0,2.0,0,
240600,1869.1,36.5,82.7,29.3,2993.0,11956.0,2.0,0,
240700,1861.1,33.6,82.6,39.3,2993.0,11956.0,2.0,0,
240800,1859.5,33.0,82.5,41.8,2993.0,11956.0,2.0,0,
240900,1859.8,30.9,82.5,105.5,2993.0,11956.0,2.0,0,
241000,1860.6,31.5,82.3,240.4,2993.0,11956.0,2.0,0,
241100,1857.6,32.8,82.4,240.7,2993.0,11956.0,2.0,0,
241200,1861.8,32.9,82.4,240.1,2993.0,11956.0,2.0,0,
241300,1858.8,31.5,82.5,238.8,2993.0,11956.0,2.0,0,
241400,1858.4,34.3,82.5,239.5,2993.0,11956.0,2.0,0,
241600,1847.7,114.5,110.9,114.0,1449.0,5003.0,2.0,0,
241700,1899.3,187.2,130.2,87.8,2179.0,9332.0,3.0,1,
241800,1811.5,93.9,135.8,91.1,2924.0,11733.0,2.0,0,
241900,1871.7,40.9,131.0,55.0,3145.0,13277.0,3.0,1,
242000,1870.5,96.5,128.9,36.8,3153.0,11955.0,3.0,1,
242100,1849.2,42.1,126.8,35.4,3286.0,12621.0,2.0,0,
242200,1875.5,34.9,126.7,30.2,3286.0,12621.0,2.0,0,
242300,1858.4,33.5,126.6,36.4,3286.0,12621.0,2.0,0,
242400,1860.0,32.6,126.7,47.1,3286.0,12621.0,2.0,0,
242600,1858.0,34.5,126.8,240.5,3286.0,12621.0,2.0,0,
242700,1859.9,34.7,126.8,239.9,3286.0,12621.0,2.0,0,
242800,1860.0,32.3,126.9,239.9,3286.0,12621.0,2.0,0,
242900,1859.5,31.7,126.9,240.1,3286.0,12621.0,2.0,0,
243000,1861.3,33.9,126.9,240.0,3286.0,12621.0,2.0,0,
243100,1857.2,41.6,126.9,236.2,837.0,3718.0,4.0,1,
243200,1868.8,40.5,109.4,174.2,1059.0,5099.0,4.0,1,
243300,1844.4,67.7,87.3,93.6,1444.0,6046.0,3.0,1,
243400,1845.7,63.8,80.1,34.5,2320.0,10073.0,4.0,1,
243600,1872.4,76.6,83.9,29.2,3042.0,12505.0,3.0,1,
243700,1902.9,72.3,83.4,29.7,3082.0,11502.0,3.0,1,
243800,1825.4,36.6,83.6,29.0,3082.0,11502.0,3.0,1,
243900,1858.5,34.8,83.8,28.3,3082.0,11502.0,3.0,1,
244000,1861.0,33.9,83.8,29.1,3082.0,11502.0,3.0,1,
244100,1856.7,37.2,83.9,43.9,3082.0,11502.0,3.0,1,
244200,1856.7,34.4,84.1,239.8,3082.0,11502.0,3.0,1,
244300,1859.7,37.0,84.1,240.3,3082.0,11502.0,3.0,1,
244400,1859.1,35.9,84.1,240.5,3082.0,11502.0,3.0,1,
244600,1860.2,34.1,84.3,239.9,3082.0,11502.0,3.0,1,
244700,1857.4,32.0,84.3,240.0,3082.0,11502.0,3.0,1,
244800,1849.7,96.2,96.8,231.8,980.0,4015.0,4.0,1,
244900,1857.8,124.4,97.5,40.6,1166.0,5243.0,4.0,1,
245000,1866.4,57.2,95.5,35.8,1879.0,7535.0,3.0,1,
245100,1873.8,96.9,85.2,29.2,2307.0,9795.0,3.0,1,
245200,1852.5,225.6,83.4,28.4,2308.0,8609.0,3.0,1,
245300,1842.0,114.7,99.3,35.1,2497.0,9735.0,3.0,1,
245400,1868.5,38.7,101.0,28.5,2398.0,8918.0,2.0,0,
245600,1859.0,35.6,100.9,29.6,2398.0,8918.0,2.0,0,
245700,1862.7,35.1,100.9,34.3,2398.0,8918.0,2.0,0,
245800,1859.6,36.2,100.8,178.4,2398.0,8918.0,2.0,0,
245900,1859.1,33.3,100.8,240.0,2398.0,8918.0,2.0,0,
246000,1858.2,32.9,100.7,240.4,2398.0,8918.0,2.0,0,
246100,1860.2,35.0,100.7,240.3,2398.0,8918.0,2.0,0,
246200,1860.4,34.3,100.7,240.0,2398.0,8918.0,2.0,0,
246300,1860.5,33.3,100.6,240.1,2398.0,8918.0,2.0,0,
246400,1870.0,28.7,100.9,240.4,498.0,2378.0,3.0,1,
246600,1867.8,87.9,86.3,30.1,1250.0,5262.0,3.0,1,
246700,1855.2,117.7,89.5,28.8,1498.0,6176.0,3.0,1,
246800,1858.8,87.3,96.6,28.2,1704.0,7148.0,3.0,1,
246900,1856.6,52.4,77.4,28.5,1653.0,6415.0,2.0,0,
247000,1866.1,37.6,74.5,26.3,1558.0,6069.0,3.0,1,
247100,1860.3,34.0,74.5,26.3,1558.0,6069.0,3.0,1,
247200,1858.7,30.2,74.5,27.3,1558.0,6069.0,3.0,1,
247300,1860.3,33.6,74.3,68.4,1558.0,6069.0,3.0,1,
247400,1858.6,33.4,74.3,238.1,1558.0,6069.0,3.0,1,
247600,1859.8,31.4,74.1,239.6,1558.0,6069.0,3.0,1,
247700,1858.9,32.2,74.0,240.0,1558.0,6069.0,3.0,1,
247800,1861.0,32.6,73.9,240.8,1558.0,6069.0,3.0,1,
247900,1861.2,34.6,73.9,240.7,1558.0,6069.0,3.0,1,
248000,1848.0,63.8,73.9,240.6,638.0,2444.0,3.0,1,
248100,1879.0,38.7,75.4,199.3,965.0,4047.0,3.0,1,
248200,1849.1,105.5,76.8,42.8,956.0,3591.0,3.0,1,
248300,1846.4,46.3,79.1,29.8,1632.0,6707.0,2.0,0,
248400,1868.4,38.8,68.1,29.2,1574.0,6357.0,3.0,1,
248600,1886.8,56.0,73.4,29.3,1821.0,7037.0,3.0,1,
248700,1840.8,35.8,74.7,28.8,1821.0,7037.0,3.0,1,
248800,1860.0,33.3,74.8,28.2,1821.0,7037.0,3.0,1,
248900,1858.9,33.6,74.9,29.7,1821.0,7037.0,3.0,1,
249000,1861.4,32.3,74.8,123.9,1821.0,7037.0,3.0,1,
249100,1859.2,33.0,74.8,239.8,1821.0,7037.0,3.0,1,
249200,1860.5,34.1,74.9,240.9,1821.0,7037.0,3.0,1,
249300,1860.3,32.9,74.9,240.8,1821.0,7037.0,3.0,1,
249400,1859.7,32.9,74.9,240.9,1821.0,7037.0,3.0,1,
249600,1860.0,33.9,75.0,238.4,568.0,2858.0,4.0,1,
249700,1852.6,38.9,72.8,219.6,1029.0,3640.0,3.0,1,
249800,1866.4,46.5,72.8,117.3,1221.0,5253.0,3.0,1,
249900,1863.5,57.0,62.5,87.5,1331.0,4722.0,3.0,1,
250000,1845.8,71.9,65.3,28.6,1678.0,6786.0,4.0,1,
250100,1881.7,43.7,69.4,28.1,2037.0,7995.0,3.0,1,
250200,1836.0,51.2,57.3,28.4,2203.0,8513.0,3.0,1,
250300,1867.8,33.5,54.0,28.5,2203.0,8513.0,3.0,1,
250400,1859.8,37.2,54.0,28.8,2203.0,8513.0,3.0,1,
250600,1858.2,33.4,54.2,174.3,2203.0,8513.0,3.0,1,
250700,1858.9,33.7,54.2,239.6,2203.0,8513.0,3.0,1,
250800,1859.8,31.1,54.2,239.2,2203.0,8513.0,3.0,1,
250900,1860.1,30.6,54.2,239.4,2203.0,8513.0,3.0,1,
251000,1859.6,31.7,54.2,240.4,2203.0,8513.0,3.0,1,
251100,1860.7,31.4,54.1,240.9,2203.0,8513.0,3.0,1,
251200,1859.9,28.5,54.1,241.0,2203.0,8513.0,3.0,1,
251300,1860.1,31.0,54.0,240.8,604.0,2754.0,5.0,1,
251400,1859.3,62.6,54.5,155.3,857.0,3326.0,2.0,0,
251600,1875.4,45.0,56.3,36.1,1584.0,6120.0,3.0,1,
251700,1835.0,40.5,50.5,28.2,1798.0,7853.0,4.0,1,
251800,1865.5,41.8,51.0,27.7,1807.0,7373.0,3.0,1,
251900,1871.2,35.8,50.0,39.1,1794.0,6897.0,4.0,1,
252000,1860.3,33.1,50.1,30.2,1794.0,6897.0,4.0,1,
252100,1861.1,35.3,50.0,29.9,1794.0,6897.0,4.0,1,
252200,1860.9,34.7,50.0,114.3,1794.0,6897.0,4.0,1,
252300,1859.8,32.1,50.1,240.1,1794.0,6897.0,4.0,1,
252400,1860.8,36.6,50.1,240.1,1794.0,6897.0,4.0,1,
252600,1859.7,32.1,50.5,240.4,1794.0,6897.0,4.0,1,
252700,1859.7,31.3,50.5,240.4,1794.0,6897.0,4.0,1,
252800,1859.6,30.5,50.4,240.7,1794.0,6897.0,4.0,1,
252900,1858.1,49.3,55.3,239.9,599.0,2327.0,3.0,1,
253000,1864.5,41.5,58.7,39.9,1046.0,4492.0,3.0,1,
253100,1848.2,106.2,53.7,35.8,1135.0,4627.0,4.0,1,
253200,1850.4,106.3,64.8,35.0,1943.0,8108.0,3.0,1,
253300,1866.7,51.2,67.6,30.1,1935.0,7680.0,3.0,1,
253400,1852.3,107.6,77.0,29.5,2252.0,8647.0,4.0,1,
253600,1862.0,33.0,78.5,29.8,2252.0,8647.0,4.0,1,
253700,1860.5,33.6,78.4,27.8,2252.0,8647.0,4.0,1,
253800,1860.4,34.7,78.4,26.7,2252.0,8647.0,4.0,1,
253900,1860.8,33.9,78.4,238.3,2252.0,8647.0,4.0,1,
254000,1859.8,31.8,78.3,240.5,2252.0,8647.0,4.0,1,
254100,1859.2,30.8,78.2,240.8,2252.0,8647.0,4.0,1,
254200,1859.7,31.9,78.1,240.7,2252.0,8647.0,4.0,1,
254300,1860.4,35.4,78.1,240.3,2252.0,8647.0,4.0,1,
254400,1861.6,31.8,78.1,239.8,2252.0,8647.0,4.0,1,
254600,1862.3,35.4,73.0,239.0,682.0,2524.0,3.0,1,
254700,1862.2,39.7,72.6,41.9,1179.0,4651.0,3.0,1,
254800,1851.0,153.4,63.0,37.0,1325.0,5345.0,4.0,1,
254900,1855.7,88.9,70.1,36.5,1770.0,7341.0,3.0,1,
255000,1893.8,45.0,66.6,28.5,2188.0,8744.0,3.0,1,
255100,1827.4,37.1,59.5,29.1,2255.0,8936.0,4.0,1,
255200,1868.4,31.2,59.2,29.9,2255.0,8936.0,4.0,1,
255300,1859.9,33.7,59.2,30.2,2255.0,8936.0,4.0,1,
255400,1861.6,31.9,59.1,79.0,2255.0,8936.0,4.0,1,
255600,1857.7,33.4,59.0,240.8,2255.0,8936.0,4.0,1,
255700,1859.0,32.0,59.0,240.3,2255.0,8936.0,4.0,1,
255800,1860.7,33.1,59.0,238.7,2255.0,8936.0,4.0,1,
255900,1861.6,31.5,59.0,239.4,2255.0,8936.0,4.0,1,
256000,1858.6,31.7,59.0,240.2,2255.0,8936.0,4.0,1,
256100,1858.7,58.6,59.0,240.1,757.0,2629.0,3.0,1,
256200,1847.2,123.4,60.9,171.4,811.0,3592.0,4.0,1,
256300,1864.2,33.6,65.2,28.6,1024.0,4417.0,3.0,1,
256400,1850.9,54.2,65.1,27.3,1680.0,7355.0,3.0,1,
256600,1820.3,76.3,62.7,38.8,2185.0,8460.0,2.0,0,
256700,1869.4,44.8,64.1,28.8,2273.0,9646.0,3.0,1,
256800,1865.6,32.6,64.4,29.6,2273.0,9646.0,3.0,1,
256900,1858.8,34.0,64.5,29.1,2273.0,9646.0,3.0,1,
257000,1860.1,34.5,64.5,28.9,2273.0,9646.0,3.0,1,
257100,1858.0,32.6,64.6,94.2,2273.0,9646.0,3.0,1,
257200,1861.8,31.1,64.5,240.0,2273.0,9646.0,3.0,1,
257300,1859.5,33.3,64.4,240.1,2273.0,9646.0,3.0,1,
257400,1861.9,32.6,64.5,240.4,2273.0,9646.0,3.0,1,
257600,1860.5,32.4,64.5,240.2,2273.0,9646.0,3.0,1,
257700,1859.1,114.2,64.5,239.7,2273.0,9646.0,3.0,1,
257800,1869.2,49.3,67.6,237.4,734.0,2691.0,3.0,1,
257900,1857.6,44.1,64.6,28.8,1138.0,4726.0,4.0,1,
258000,1867.5,57.0,65.0,27.5,1338.0,4965.0,2.0,0,
258100,1843.8,67.9,65.5,27.8,1808.0,7532.0,3.0,1,
258200,1861.1,101.9,67.2,29.3,1540.0,6300.0,3.0,1,
258300,1857.3,61.8,75.4,30.2,1441.0,5245.0,2.0,0,
258400,1873.7,33.0,75.4,35.5,1607.0,6145.0,4.0,1,
258600,1861.1,31.6,75.5,36.8,1607.0,6145.0,4.0,1,
258700,1861.5,32.5,75.5,91.6,1607.0,6145.0,4.0,1,
258800,1859.9,31.5,75.6,238.2,1607.0,6145.0,4.0,1,
258900,1859.5,32.5,75.5,239.1,1607.0,6145.0,4.0,1,
259000,1861.4,33.2,75.6,240.0,1607.0,6145.0,4.0,1,
259100,1859.4,33.4,75.6,241.1,1607.0,6145.0,4.0,1,
259200,1860.3,32.2,75.6,242.8,1607.0,6145.0,4.0,1,
259300,1861.6,31.1,75.5,240.1,1607.0,6145.0,4.0,1,
259400,1850.3,48.2,71.1,239.4,772.0,3420.0,4.0,1,
259600,1840.6,48.4,76.5,29.5,1722.0,6905.0,4.0,1,
259700,1864.6,46.9,76.0,28.9,1798.0,7085.0,3.0,1,
259800,1867.6,75.3,74.7,28.5,1927.0,7030.0,3.0,1,
259900,1883.4,100.2,70.3,28.5,2166.0,8512.0,3.0,1,
260000,1835.6,40.8,76.4,29.8,2179.0,8062.0,3.0,1,
260100,1861.9,33.2,76.5,30.1,2179.0,8062.0,3.0,1,
260200,1859.6,35.1,76.5,29.9,2179.0,8062.0,3.0,1,
260300,1859.0,33.1,76.5,34.5,2179.0,8062.0,3.0,1,
260400,1861.5,32.6,76.5,138.3,2179.0,8062.0,3.0,1,
