Time(ms),Raw_ADC
0,1936
1,1913
2,1888
3,1827
4,1759
5,1722
6,1731
7,1769
8,1802
9,1835
10,880
11,2314
12,1872
13,1934
14,2384
15,2685
16,2356
17,1791
18,1535
19,1535
20,1462
21,1407
22,1513
23,1717
24,1830
25,1874
26,1904
27,1920
28,1932
29,1936
30,1945
31,1959
32,1941
33,1895
34,1826
35,1753
36,1735
37,1737
38,1761
39,1783
40,1812
41,1819
42,2401
43,1943
44,1841
45,2309
46,2610
47,2559
48,1923
49,1535
50,1535
51,1494
52,1415
53,1476
54,1677
55,1806
56,1863
57,1891
58,1907
59,1930
60,1936
61,1949
62,1954
63,1938
64,1903
65,1826
66,1776
67,1746
68,1741
69,1761
70,1788
71,1814
72,1840
73,2319
74,2038
75,1807
76,2205
77,2505
78,2679
79,2064
80,1610
81,1524
82,1507
83,1429
84,1453
85,1627
86,1778
87,1855
88,1888
89,1915
90,1925
91,1935
92,1945
93,1954
94,1942
95,1910
96,1851
97,1776
98,1744
99,1757
100,1787
101,1773
102,1808
103,1855
104,1695
105,2160
106,1777
107,2021
108,2384
109,2774
110,2288
111,1648
112,1487
113,1506
114,1436
115,1425
116,1601
117,1776
118,1858
119,1889
120,1903
121,1934
122,1941
123,1946
124,1949
125,1938
126,1904
127,1842
128,1792
129,1755
130,1744
131,1759
132,1777
133,1802
134,1834
135,1856
136,1866
137,1870
138,1872
139,1872
140,1877
141,1878
142,1879
143,1879
144,1873
145,1873
146,1872
147,1871
148,1871
149,1871
150,1872
151,1873
152,1872
153,1864
154,1861
155,1871
156,1893
157,1876
158,1849
159,1857
160,1857
161,1862
162,1857
163,1851
164,1861
165,1866
166,1867
167,1866
168,1865
169,1861
170,1860
171,1857
172,1859
173,1859
174,1849
175,1850
176,1847
177,1854
178,1856
179,1859
180,1862
181,1862
182,1863
183,1861
184,1859
185,1858
186,1861
187,1856
188,1856
189,1858
190,1859
191,1861
192,1863
193,1859
194,1859
195,1860
196,1862
197,1859
198,1858
199,1860
200,1865
201,1861
202,1853
203,1847
204,1843
205,1845
206,1854
207,1859
208,1854
209,1850
210,1851
211,1864
212,1866
213,1863
214,1869
215,1863
216,1866
217,1862
218,1862
219,1859
220,1863
221,1859
222,1857
223,1861
224,1857
225,1858
226,1858
227,1857
228,1861
229,1861
230,1862
231,1866
232,1863
233,1862
234,1860
235,1856
236,1855
237,1856
238,1853
239,1853
240,1857
241,1859
242,1858
243,1857
244,1856
245,1858
246,1860
247,1863
248,1862
249,1865
250,1865
251,1863
252,1858
253,1856
254,1858
255,1861
256,1859
257,1856
258,1856
259,1856
260,1857
261,1858
262,1858
263,1858
264,1854
265,1856
266,1855
267,1853
268,1853
269,1858
270,1856
271,1856
272,1857
273,1859
274,1858
275,1859
276,1856
277,1859
278,1858
279,1859
280,1862
281,1865
282,1863
283,1862
284,1861
285,1859
286,1859
287,1859
288,1858
289,1856
290,1857
291,1858
292,1859
293,1859
294,1856
295,1855
296,1855
297,1856
298,1856
299,1863
300,1861
301,1856
302,1863
303,1867
304,1863
305,1860
306,1860
307,1856
308,1857
309,1861
310,1859
311,1859
312,1859
313,1861
314,1861
315,1862
316,1860
317,1859
318,1863
319,1861
320,1855
321,1857
322,1849
323,1854
324,1850
325,1853
326,1855
327,1855
328,1855
329,1858
330,1857
331,1859
332,1860
333,1863
334,1863
335,1860
336,1858
337,1857
338,1856
339,1855
340,1856
341,1856
342,1856
343,1855
344,1856
345,1858
346,1860
347,1862
348,1857
349,1861
350,1860
351,1858
352,1859
353,1856
354,1852
355,1850
356,1849
357,1847
358,1846
359,1855
360,1855
361,1855
362,1855
363,1855
364,1856
365,1856
366,1856
367,1854
368,1858
369,1857
370,1855
371,1856
372,1856
373,1858
374,1857
375,1856
376,1862
377,1859
378,1858
379,1861
380,1861
381,1861
382,1865
383,1863
384,1855
385,1856
386,1855
387,1856
388,1856
389,1860
390,1866
391,1867
392,1868
393,1867
394,1870
395,1872
396,1870
397,1866
398,1867
399,1869
400,1867
401,1858
402,1863
403,1862
404,1861
405,1863
406,1861
407,1860
408,1861
409,1859
410,1863
411,1863
412,1865
413,1864
414,1859
415,1857
416,1859
417,1856
418,1857
419,1854
420,1856
421,1859
422,1861
423,1859
424,1858
425,1859
426,1861
427,1860
428,1861
429,1857
430,1859
431,1857
432,1861
433,1862
434,1858
435,1858
436,1855
437,1856
438,1855
439,1855
440,1856
441,1853
442,1857
443,1856
444,1851
445,1854
446,1855
447,1855
448,1853
449,1856
450,1861
451,1859
452,1861
453,1857
454,1856
455,1857
456,1858
457,1857
458,1862
459,1858
460,1859
461,1863
462,1864
463,1862
464,1862
465,1862
466,1863
467,1862
468,1863
469,1861
470,1858
471,1860
472,1858
473,1856
474,1854
475,1853
476,1854
477,1856
478,1857
479,1865
480,1866
481,1867
482,1865
483,1864
484,1865
485,1861
486,1861
487,1861
488,1859
489,1856
490,1859
491,1860
492,1859
493,1860
494,1861
495,1861
496,1863
497,1863
498,1863
499,1862
500,1865
501,1857
502,1856
503,1855
504,1853
505,1854
506,1853
507,1851
508,1852
509,1851
510,1850
511,1863
512,1862
513,1859
514,1863
515,1861
516,1861
517,1858
518,1859
519,1857
520,1858
521,1856
522,1854
523,1859
524,1858
525,1858
526,1859
527,1857
528,1861
529,1861
530,1861
531,1861
532,1863
533,1861
534,1855
535,1856
536,1855
537,1853
538,1854
539,1850
540,1859
541,1858
542,1860
543,1861
544,1862
545,1861
546,1862
547,1864
548,1862
549,1865
550,1863
551,1865
552,1860
553,1857
554,1861
555,1859
556,1856
557,1858
558,1857
559,1861
560,1860
561,1859
562,1863
563,1862
564,1857
565,1856
566,1859
567,1857
568,1856
569,1863
570,1861
571,1858
572,1859
573,1861
574,1859
575,1861
576,1861
577,1859
578,1861
579,1865
580,1861
581,1863
582,1865
583,1863
584,1862
585,1861
586,1862
587,1858
588,1862
589,1858
590,1859
591,1857
592,1860
593,1859
594,1855
595,1856
596,1856
597,1856
598,1857
599,1863
600,1860
601,1861
602,1861
603,1856
604,1857
605,1856
606,1856
607,1856
608,1859
609,1861
610,1859
611,1861
612,1862
613,1861
614,1865
615,1863
616,1863
617,1863
618,1861
619,1861
620,1859
621,1856
622,1853
623,1856
624,1854
625,1853
626,1855
627,1854
628,1856
629,1858
630,1857
631,1854
632,1862
633,1861
634,1860
635,1860
636,1858
637,1856
638,1856
639,1856
640,1856
641,1856
642,1856
643,1855
644,1857
645,1857
646,1861
647,1863
648,1866
649,1872
650,1872
651,1867
652,1865
653,1863
654,1856
655,1857
656,1854
657,1855
658,1854
659,1861
660,1862
661,1862
662,1863
663,1866
664,1868
665,1863
666,1865
667,1863
668,1860
669,1859
670,1861
671,1859
672,1858
673,1860
674,1858
675,1861
676,1859
677,1862
678,1862
679,1861
680,1862
681,1863
682,1866
683,1862
684,1856
685,1856
686,1855
687,1856
688,1854
689,1859
690,1856
691,1857
692,1859
693,1858
694,1857
695,1863
696,1861
697,1862
698,1862
699,1863
700,1862
701,1861
702,1859
703,1857
704,1856
705,1856
706,1856
707,1857
708,1857
709,1859
710,1861
711,1861
712,1865
713,1866
714,1860
715,1856
716,1856
717,1855
718,1856
719,1856
720,1853
721,1859
722,1855
723,1862
724,1858
725,1859
726,1859
727,1858
728,1861
729,1862
730,1861
731,1862
732,1866
733,1866
734,1862
735,1860
736,1861
737,1857
738,1857
739,1856
740,1863
741,1861
742,1861
743,1859
744,1855
745,1856
746,1859
747,1857
748,1857
749,1856
750,1861
751,1862
752,1860
753,1859
754,1860
755,1861
756,1858
757,1862
758,1860
759,1861
760,1862
761,1866
762,1863
763,1862
764,1865
765,1862
766,1863
767,1865
768,1862
769,1861
770,1858
771,1856
772,1857
773,1858
774,1852
775,1854
776,1856
777,1856
778,1858
779,1863
780,1867
781,1867
782,1866
783,1863
784,1862
785,1863
786,1863
787,1861
788,1863
789,1859
790,1858
791,1861
792,1861
793,1859
794,1861
795,1862
796,1865
797,1865
798,1862
799,1863
800,1862
801,1862
802,1861
803,1859
804,1856
805,1853
806,1855
807,1854
808,1855
809,1860
810,1858
811,1863
812,1863
813,1863
814,1863
815,1866
816,1863
817,1861
818,1860
819,1863
820,1859
821,1858
822,1853
823,1861
824,1857
825,1858
826,1863
827,1859
828,1866
829,1861
830,1859
831,1862
832,1857
833,1857
834,1847
835,1853
836,1854
837,1855
838,1857
839,1856
840,1854
841,1855
842,1859
843,1861
844,1863
845,1866
846,1867
847,1866
848,1868
849,1868
850,1861
851,1857
852,1861
853,1856
854,1856
855,1858
856,1856
857,1855
858,1857
859,1861
860,1858
861,1863
862,1865
863,1866
864,1858
865,1856
866,1856
867,1857
868,1856
869,1863
870,1858
871,1858
872,1857
873,1858
874,1858
875,1858
876,1859
877,1859
878,1861
879,1862
880,1861
881,1859
882,1862
883,1859
884,1859
885,1858
886,1859
887,1857
888,1857
889,1857
890,1860
891,1856
892,1859
893,1861
894,1857
895,1857
896,1856
897,1856
898,1857
899,1864
900,1867
901,1866
902,1862
903,1861
904,1861
905,1860
906,1858
907,1860
908,1856
909,1855
910,1856
911,1855
912,1857
913,1862
914,1863
915,1862
916,1862
917,1861
918,1862
919,1857
920,1849
921,1845
922,1841
923,1846
924,1850
925,1859
926,1863
927,1870
928,1873
929,1872
930,1872
931,1866
932,1861
933,1856
934,1859
935,1857
936,1856
937,1855
938,1858
939,1857
940,1859
941,1860
942,1858
943,1857
944,1859
945,1860
946,1859
947,1866
948,1865
949,1867
950,1863
951,1862
952,1861
953,1860
954,1856
955,1856
956,1854
957,1851
958,1851
959,1855
960,1854
961,1860
962,1860
963,1859
964,1859
965,1857
966,1860
967,1858
968,1861
969,1862
970,1863
971,1861
972,1859
973,1859
974,1856
975,1858
976,1862
977,1862
978,1863
979,1862
980,1861
981,1862
982,1861
983,1860
984,1854
985,1853
986,1851
987,1855
988,1858
989,1867
990,1862
991,1863
992,1864
993,1862
994,1865
995,1862
996,1863
997,1863
998,1859
999,1862
1000,1865
1001,1862
1002,1857
1003,1852
1004,1854
1005,1857
1006,1856
1007,1858
1008,1862
1009,1862
1010,1863
1011,1867
1012,1871
1013,1872
1014,1869
1015,1862
1016,1863
1017,1856
1018,1849
1019,1840
1020,1837
1021,1846
1022,1859
1023,1872
1024,1872
1025,1866
1026,1857
1027,1857
1028,1851
1029,1849
1030,1851
1031,1856
1032,1860
1033,1862
1034,1856
1035,1859
1036,1872
1037,1878
1038,1876
1039,1870
1040,1857
1041,1855
1042,1847
1043,1847
1044,1847
1045,1857
1046,1861
1047,1861
1048,1859
1049,1859
1050,1870
1051,1867
1052,1865
1053,1860
1054,1856
1055,1856
1056,1855
1057,1856
1058,1856
1059,1861
1060,1861
1061,1861
1062,1861
1063,1864
1064,1866
1065,1866
1066,1862
1067,1861
1068,1863
1069,1862
1070,1857
1071,1857
1072,1857
1073,1857
1074,1854
1075,1855
1076,1856
1077,1856
1078,1857
1079,1866
1080,1863
1081,1867
1082,1863
1083,1863
1084,1862
1085,1860
1086,1859
1087,1857
1088,1859
1089,1859
1090,1858
1091,1858
1092,1860
1093,1862
1094,1861
1095,1865
1096,1867
1097,1863
1098,1863
1099,1866
1100,1861
1101,1865
1102,1863
1103,1859
1104,1855
1105,1852
1106,1849
1107,1848
1108,1847
1109,1856
1110,1856
1111,1855
1112,1858
1113,1861
1114,1863
1115,1865
1116,1869
1117,1866
1118,1859
1119,1855
1120,1852
1121,1855
1122,1850
1123,1861
1124,1861
1125,1861
1126,1862
1127,1865
1128,1866
1129,1867
1130,1867
1131,1867
1132,1866
1133,1863
1134,1664
1135,2403
1136,1954
1137,1882
1138,1999
1139,2164
1140,2279
1141,2368
1142,2192
1143,1935
1144,1809
1145,1639
1146,1584
1147,1599
1148,1583
1149,1573
1150,1587
1151,1657
1152,1739
1153,1799
1154,1882
1155,1925
1156,1933
1157,1936
1158,1934
1159,1905
1160,1887
1161,1877
1162,1906
1163,1890
1164,1844
1165,1807
1166,2262
1167,1954
1168,1761
1169,1863
1170,2094
1171,2292
1172,2322
1173,2046
1174,1929
1175,1836
1176,1606
1177,1517
1178,1508
1179,1505
1180,1531
1181,1625
1182,1744
1183,1841
1184,1905
1185,1933
1186,1939
1187,1940
1188,1936
1189,1941
1190,1955
1191,1948
1192,1927
1193,1886
1194,1834
1195,1781
1196,1743
1197,1597
1198,2047
1199,1777
1200,1852
1201,2112
1202,2336
1203,2314
1204,2006
1205,1921
1206,1883
1207,1680
1208,1515
1209,1490
1210,1487
1211,1555
1212,1681
1213,1799
1214,1889
1215,1927
1216,1941
1217,1938
1218,1935
1219,1941
1220,1959
1221,1945
1222,1925
1223,1907
1224,1809
1225,1744
1226,1727
1227,1727
1228,822
1229,2209
1230,1840
1231,1905
1232,2259
1233,2473
1234,2432
1235,2117
1236,1882
1237,1710
1238,1642
1239,1483
1240,1418
1241,1438
1242,1568
1243,1726
1244,1826
1245,1887
1246,1914
1247,1920
1248,1920
1249,1933
1250,1947
1251,1949
1252,1936
1253,1899
1254,1825
1255,1781
1256,1747
1257,1738
1258,1758
1259,1287
1260,2358
1261,1899
1262,1834
1263,2161
1264,2442
1265,2434
1266,2100
1267,2033
1268,1892
1269,1608
1270,1438
1271,1398
1272,1445
1273,1584
1274,1740
1275,1839
1276,1883
1277,1905
1278,1918
1279,1933
1280,1962
1281,1970
1282,1967
1283,1936
1284,1872
1285,1798
1286,1760
1287,1743
1288,1739
1289,1763
1290,1794
1291,2382
1292,1983
1293,1810
1294,2059
1295,2403
1296,2416
1297,2047
1298,2002
1299,1905
1300,1644
1301,1519
1302,1447
1303,1462
1304,1616
1305,1773
1306,1855
1307,1902
1308,1916
1309,1907
1310,1920
1311,1936
1312,1936
1313,1936
1314,1908
1315,1862
1316,1849
1317,1776
1318,1741
1319,1739
1320,1764
1321,1805
1322,2065
1323,2086
1324,1808
1325,2073
1326,2486
1327,2559
1328,2229
1329,1919
1330,1696
1331,1603
1332,1457
1333,1367
1334,1435
1335,1629
1336,1777
1337,1842
1338,1872
1339,1899
1340,1911
1341,1929
1342,1940
1343,1953
1344,1938
1345,1909
1346,1843
1347,1789
1348,1763
1349,1749
1350,1756
1351,1789
1352,1814
1353,1008
1354,2211
1355,1837
1356,1973
1357,2461
1358,2607
1359,2355
1360,1941
1361,1663
1362,1569
1363,1439
1364,1379
1365,1431
1366,1629
1367,1782
1368,1855
1369,1882
1370,1900
1371,1911
1372,1927
1373,1936
1374,1930
1375,1920
1376,1897
1377,1849
1378,1808
1379,1787
1380,1766
1381,1774
1382,1798
1383,1829
1384,1115
1385,2341
1386,1893
1387,1890
1388,2402
1389,2590
1390,2459
1391,1983
1392,1643
1393,1535
1394,1440
1395,1387
1396,1424
1397,1603
1398,1777
1399,1863
1400,1898
1401,1914
1402,1922
1403,1931
1404,1939
1405,1943
1406,1928
1407,1904
1408,1862
1409,1823
1410,1787
1411,1759
1412,1759
1413,1770
1414,1805
1415,1839
1416,2384
1417,1994
1418,1840
1419,2290
1420,2559
1421,2606
1422,2075
1423,1651
1424,1522
1425,1454
1426,1398
1427,1399
1428,1572
1429,1759
1430,1856
1431,1891
1432,1913
1433,1920
1434,1921
1435,1936
1436,1947
1437,1936
1438,1910
1439,1861
1440,1814
1441,1775
1442,1758
1443,1760
1444,1780
1445,1811
1446,1839
1447,2192
1448,2074
1449,1833
1450,2211
1451,2538
1452,2672
1453,2116
1454,1636
1455,1509
1456,1461
1457,1410
1458,1397
1459,1535
1460,1744
1461,1847
1462,1894
1463,1918
1464,1922
1465,1930
1466,1942
1467,1956
1468,1957
1469,1936
1470,1872
1471,1815
1472,1783
1473,1757
1474,1744
1475,1763
1476,1792
1477,1826
1478,1007
1479,2224
1480,1856
1481,2064
1482,2495
1483,2704
1484,2261
1485,1701
1486,1531
1487,1507
1488,1433
1489,1377
1490,1495
1491,1713
1492,1838
1493,1883
1494,1900
1495,1919
1496,1925
1497,1934
1498,1941
1499,1946
1500,1920
1501,1885
1502,1840
1503,1786
1504,1763
1505,1749
1506,1751
1507,1778
1508,1789
1509,1094
1510,2457
1511,1936
1512,1930
1513,2400
1514,2641
1515,2429
1516,1761
1517,1511
1518,1483
1519,1456
1520,1379
1521,1456
1522,1659
1523,1799
1524,1843
1525,1897
1526,1905
1527,1925
1528,1923
1529,1936
1530,1935
1531,1923
1532,1894
1533,1853
1534,1809
1535,1777
1536,1750
1537,1748
1538,1771
1539,1792
1540,1840
1541,2517
1542,2019
1543,1859
1544,2293
1545,2545
1546,2519
1547,1868
1548,1557
1549,1535
1550,1511
1551,1424
1552,1456
1553,1664
1554,1815
1555,1878
1556,1903
1557,1918
1558,1932
1559,1941
1560,1949
1561,1954
1562,1948
1563,1917
1564,1869
1565,1808
1566,1771
1567,1746
1568,1751
1569,1777
1570,1802
1571,1830
1572,2223
1573,2065
1574,1818
1575,2215
1576,2529
1577,2662
1578,2011
1579,1584
1580,1535
1581,1518
1582,1421
1583,1424
1584,1620
1585,1786
1586,1861
1587,1890
1588,1907
1589,1927
1590,1931
1591,1939
1592,1952
1593,1940
1594,1911
1595,1869
1596,1827
1597,1786
1598,1759
1599,1749
1600,1776
1601,1801
1602,1831
1603,1312
1604,2191
1605,1839
1606,2087
1607,2483
1608,2730
1609,2160
1610,1616
1611,1514
1612,1522
1613,1434
1614,1403
1615,1573
1616,1763
1617,1853
1618,1891
1619,1906
1620,1919
1621,1935
1622,1933
1623,1943
1624,1942
1625,1922
1626,1883
1627,1821
1628,1782
1629,1762
1630,1751
1631,1773
1632,1797
1633,1825
1634,886
1635,2313
1636,1875
1637,1955
1638,2415
1639,2678
1640,2366
1641,1697
1642,1488
1643,1526
1644,1448
1645,1394
1646,1527
1647,1732
1648,1843
1649,1886
1650,1914
1651,1932
1652,1936
1653,1939
1654,1950
1655,1956
1656,1932
1657,1877
1658,1824
1659,1789
1660,1773
1661,1750
1662,1765
1663,1787
1664,1808
1665,1805
1666,2401
1667,1941
1668,1856
1669,2327
1670,2621
1671,2492
1672,1841
1673,1533
1674,1516
1675,1473
1676,1406
1677,1491
1678,1709
1679,1837
1680,1879
1681,1908
1682,1922
1683,1936
1684,1936
1685,1943
1686,1951
1687,1926
1688,1884
1689,1835
1690,1789
1691,1763
1692,1757
1693,1761
1694,1787
1695,1808
1696,1839
1697,2378
1698,2015
1699,1827
1700,2262
1701,2583
1702,2631
1703,1927
1704,1535
1705,1502
1706,1475
1707,1399
1708,1461
1709,1680
1710,1821
1711,1874
1712,1904
1713,1921
1714,1936
1715,1941
1716,1952
1717,1949
1718,1930
1719,1885
1720,1840
1721,1813
1722,1779
1723,1755
1724,1747
1725,1774
1726,1803
1727,1830
1728,1941
1729,2128
1730,1822
1731,2152
1732,2497
1733,2718
1734,2096
1735,1571
1736,1505
1737,1492
1738,1404
1739,1422
1740,1623
1741,1789
1742,1862
1743,1893
1744,1929
1745,1995
1746,2000
1747,1935
1748,1895
1749,1912
1750,1893
1751,1856
1752,1824
1753,1775
1754,1744
1755,1744
1756,1770
1757,1783
1758,1811
1759,1844
1760,1867
1761,1866
1762,1861
1763,1872
1764,1883
1765,1882
1766,1878
1767,1873
1768,1875
1769,1879
1770,1881
1771,1873
1772,1872
1773,1873
1774,1885
1775,1909
1776,1911
1777,1851
1778,1835
1779,1845
1780,1868
1781,1895
1782,1901
1783,1859
1784,1829
1785,1840
1786,1855
1787,1866
1788,1862
1789,1851
1790,1843
1791,1846
1792,1856
1793,1856
1794,1856
1795,1856
1796,1857
1797,1853
1798,1856
1799,1862
1800,1863
1801,1861
1802,1861
1803,1863
1804,1863
1805,1865
1806,1854
1807,1852
1808,1855
1809,1859
1810,1857
1811,1859
1812,1861
1813,1853
1814,1855
1815,1864
1816,1863
1817,1867
1818,1865
1819,1871
1820,1859
1821,1851
1822,1845
1823,1847
1824,1849
1825,1851
1826,1855
1827,1855
1828,1854
1829,1855
1830,1854
1831,1855
1832,1856
1833,1866
1834,1860
1835,1860
1836,1859
1837,1858
1838,1857
1839,1856
1840,1857
1841,1857
1842,1856
1843,1860
1844,1858
1845,1862
1846,1857
1847,1861
1848,1871
1849,1864
1850,1861
1851,1867
1852,1867
1853,1862
1854,1852
1855,1849
1856,1848
1857,1853
1858,1849
1859,1854
1860,1851
1861,1857
1862,1861
1863,1864
1864,1867
1865,1862
1866,1863
1867,1860
1868,1861
1869,1859
1870,1857
1871,1855
1872,1856
1873,1856
1874,1857
1875,1859
1876,1860
1877,1858
1878,1861
1879,1858
1880,1860
1881,1866
1882,1863
1883,1860
1884,1856
1885,1855
1886,1853
1887,1850
1888,1850
1889,1856
1890,1856
1891,1856
1892,1856
1893,1856
1894,1859
1895,1861
1896,1862
1897,1861
1898,1863
1899,1862
1900,1865
1901,1856
1902,1851
1903,1853
1904,1856
1905,1858
1906,1857
1907,1858
1908,1857
1909,1857
1910,1858
1911,1860
1912,1863
1913,1859
1914,1855
1915,1854
1916,1856
1917,1854
1918,1855
1919,1853
1920,1847
1921,1854
1922,1851
1923,1856
1924,1856
1925,1865
1926,1867
1927,1863
1928,1862
1929,1863
1930,1863
1931,1867
1932,1865
1933,1865
1934,1862
1935,1861
1936,1861
1937,1859
1938,1859
1939,1859
1940,1861
1941,1860
1942,1859
1943,1863
1944,1858
1945,1857
1946,1857
1947,1859
1948,1859
1949,1858
1950,1863
1951,1861
1952,1861
1953,1858
1954,1856
1955,1857
1956,1857
1957,1855
1958,1855
1959,1856
1960,1857
1961,1857
1962,1860
1963,1862
1964,1862
1965,1859
1966,1863
1967,1859
1968,1861
1969,1861
1970,1859
1971,1859
1972,1858
1973,1856
1974,1852
1975,1851
1976,1853
1977,1855
1978,1855
1979,1861
1980,1861
1981,1860
1982,1856
1983,1860
1984,1859
1985,1859
1986,1858
1987,1856
1988,1854
1989,1854
1990,1853
1991,1850
1992,1841
1993,1839
1994,1843
1995,1855
1996,1863
1997,1867
1998,1875
1999,1875
2000,1872
2001,1869
2002,1867
2003,1865
2004,1855
2005,1855
2006,1852
2007,1850
2008,1851
2009,1852
2010,1856
2011,1858
2012,1858
2013,1857
2014,1863
2015,1863
2016,1861
2017,1865
2018,1864
2019,1859
2020,1861
2021,1856
2022,1862
2023,1861
2024,1863
2025,1862
2026,1863
2027,1866
2028,1865
2029,1866
2030,1867
2031,1871
2032,1869
2033,1870
2034,1859
2035,1860
2036,1859
2037,1856
2038,1858
2039,1856
2040,1856
2041,1855
2042,1861
2043,1865
2044,1863
2045,1865
2046,1863
2047,1867
2048,1867
2049,1865
2050,1863
2051,1868
2052,1872
2053,1876
2054,1861
2055,1840
2056,1846
2057,1855
2058,1854
2059,1855
2060,1855
2061,1856
2062,1859
2063,1862
2064,1854
2065,1854
2066,1856
2067,1856
2068,1855
2069,1860
2070,1857
2071,1857
2072,1857
2073,1855
2074,1854
2075,1854
2076,1858
2077,1857
2078,1857
2079,1857
2080,1858
2081,1860
2082,1861
2083,1861
2084,1858
2085,1859
2086,1857
2087,1859
2088,1856
2089,1856
2090,1861
2091,1856
2092,1857
2093,1858
2094,1853
2095,1855
2096,1851
2097,1854
2098,1857
2099,1862
2100,1869
2101,1870
2102,1867
2103,1865
2104,1862
2105,1859
2106,1859
2107,1861
2108,1861
2109,1858
2110,1859
2111,1857
2112,1859
2113,1866
2114,1863
2115,1863
2116,1857
2117,1863
2118,1859
2119,1859
2120,1857
2121,1854
2122,1854
2123,1852
2124,1854
2125,1855
2126,1856
2127,1856
2128,1856
2129,1856
2130,1856
2131,1854
2132,1860
2133,1861
2134,1859
2135,1859
2136,1860
2137,1857
2138,1858
2139,1856
2140,1857
2141,1858
2142,1859
2143,1857
2144,1857
2145,1858
2146,1858
2147,1857
2148,1861
2149,1861
2150,1862
2151,1857
2152,1856
2153,1857
2154,1853
2155,1853
2156,1853
2157,1852
2158,1854
2159,1859
2160,1859
2161,1859
2162,1859
2163,1861
2164,1858
2165,1857
2166,1863
2167,1861
2168,1857
2169,1860
2170,1858
2171,1857
2172,1860
2173,1857
2174,1858
2175,1858
2176,1859
2177,1859
2178,1863
2179,1861
2180,1859
2181,1862
2182,1861
2183,1862
2184,1856
2185,1856
2186,1856
2187,1853
2188,1851
2189,1857
2190,1859
2191,1857
2192,1859
2193,1859
2194,1857
2195,1861
2196,1863
2197,1862
2198,1863
2199,1862
2200,1865
2201,1860
2202,1862
2203,1861
2204,1858
2205,1858
2206,1858
2207,1859
2208,1860
2209,1861
2210,1859
2211,1860
2212,1863
2213,1863
2214,1859
2215,1856
2216,1845
2217,1857
2218,1856
2219,1854
2220,1855
2221,1858
2222,1851
2223,1856
2224,1858
2225,1859
2226,1859
2227,1859
2228,1858
2229,1862
2230,1861
2231,1863
2232,1861
2233,1861
2234,1860
2235,1861
2236,1862
2237,1858
2238,1857
2239,1857
2240,1858
2241,1856
2242,1855
2243,1857
2244,1854
2245,1853
2246,1853
2247,1851
2248,1856
2249,1856
2250,1867
2251,1868
2252,1867
2253,1859
2254,1863
2255,1861
2256,1858
2257,1858
2258,1856
2259,1857
2260,1858
2261,1862
2262,1861
2263,1862
2264,1861
2265,1861
2266,1863
2267,1863
2268,1861
2269,1862
2270,1859
2271,1859
2272,1861
2273,1858
2274,1851
2275,1851
2276,1854
2277,1853
2278,1856
2279,1862
2280,1860
2281,1863
2282,1865
2283,1866
2284,1862
2285,1860
2286,1861
2287,1859
2288,1859
2289,1858
2290,1858
2291,1856
2292,1857
2293,1860
2294,1861
2295,1865
2296,1865
2297,1861
2298,1865
2299,1867
2300,1867
2301,1862
2302,1861
2303,1859
2304,1853
2305,1852
2306,1850
2307,1853
2308,1855
2309,1859
2310,1859
2311,1859
2312,1863
2313,1863
2314,1862
2315,1861
2316,1861
2317,1862
2318,1858
2319,1858
2320,1858
2321,1853
2322,1857
2323,1856
2324,1857
2325,1859
2326,1858
2327,1858
2328,1857
2329,1863
2330,1863
2331,1865
2332,1861
2333,1863
2334,1857
2335,1856
2336,1856
2337,1856
2338,1855
2339,1849
2340,1851
2341,1850
2342,1856
2343,1859
2344,1858
2345,1861
2346,1861
2347,1861
2348,1863
2349,1865
2350,1863
2351,1859
2352,1860
2353,1861
2354,1857
2355,1857
2356,1857
2357,1857
2358,1861
2359,1859
2360,1861
2361,1859
2362,1863
2363,1865
2364,1857
2365,1858
2366,1858
2367,1857
2368,1857
2369,1860
2370,1857
2371,1856
2372,1856
2373,1857
2374,1855
2375,1859
2376,1864
2377,1865
2378,1863
2379,1862
2380,1863
2381,1863
2382,1862
2383,1860
2384,1858
2385,1859
2386,1859
2387,1858
2388,1857
2389,1857
2390,1856
2391,1856
2392,1858
2393,1859
2394,1856
2395,1856
2396,1856
2397,1858
2398,1861
2399,1866
2400,1865
2401,1863
2402,1863
2403,1861
2404,1859
2405,1857
2406,1854
2407,1853
2408,1851
2409,1857
2410,1857
2411,1856
2412,1861
2413,1867
2414,1868
2415,1869
2416,1863
2417,1866
2418,1861
2419,1861
2420,1856
2421,1847
2422,1847
2423,1846
2424,1849
2425,1850
2426,1848
2427,1853
2428,1855
2429,1857
2430,1858
2431,1860
2432,1866
2433,1869
2434,1867
2435,1863
2436,1858
2437,1856
2438,1856
2439,1856
2440,1855
2441,1854
2442,1857
2443,1859
2444,1858
2445,1862
2446,1867
2447,1867
2448,1870
2449,1870
2450,1869
2451,1863
2452,1863
2453,1859
2454,1854
2455,1850
2456,1845
2457,1851
2458,1851
2459,1858
2460,1861
2461,1858
2462,1865
2463,1863
2464,1865
2465,1866
2466,1867
2467,1866
2468,1865
2469,1862
2470,1857
2471,1857
2472,1856
2473,1853
2474,1852
2475,1849
2476,1851
2477,1858
2478,1868
2479,1868
2480,1869
2481,1872
2482,1871
2483,1872
2484,1859
2485,1858
2486,1856
2487,1853
2488,1851
2489,1856
2490,1855
2491,1855
2492,1855
2493,1857
2494,1858
2495,1863
2496,1863
2497,1865
2498,1869
2499,1867
2500,1867
2501,1862
2502,1859
2503,1859
2504,1856
2505,1854
2506,1853
2507,1853
2508,1855
2509,1857
2510,1856
2511,1856
2512,1863
2513,1869
2514,1859
2515,1859
2516,1862
2517,1857
2518,1856
2519,1853
2520,1852
2521,1856
2522,1841
2523,1849
2524,1851
2525,1852
2526,1856
2527,1857
2528,1859
2529,1862
2530,1866
2531,1870
2532,1868
2533,1868
2534,1863
2535,1859
2536,1861
2537,1855
2538,1855
2539,1855
2540,1855
2541,1854
2542,1856
2543,1856
2544,1856
2545,1856
2546,1860
2547,1858
2548,1862
2549,1859
2550,1859
2551,1863
2552,1859
2553,1858
2554,1856
2555,1856
2556,1854
2557,1855
2558,1855
2559,1858
2560,1856
2561,1860
2562,1862
2563,1865
2564,1865
2565,1867
2566,1866
2567,1867
2568,1862
2569,1863
2570,1858
2571,1860
2572,1856
2573,1855
2574,1847
2575,1847
2576,1854
2577,1854
2578,1856
2579,1867
2580,1867
2581,1872
2582,1869
2583,1870
2584,1866
2585,1867
2586,1862
2587,1859
2588,1855
2589,1855
2590,1856
2591,1855
2592,1858
2593,1856
2594,1859
2595,1859
2596,1859
2597,1863
2598,1869
2599,1869
2600,1870
2601,1866
2602,1863
2603,1865
2604,1856
2605,1853
2606,1847
2607,1849
2608,1846
2609,1854
2610,1856
2611,1857
2612,1863
2613,1867
2614,1872
2615,1871
2616,1872
2617,1867
2618,1865
2619,1860
2620,1850
2621,1855
2622,1851
2623,1853
2624,1854
2625,1855
2626,1858
2627,1856
2628,1856
2629,1861
2630,1863
2631,1867
2632,1867
2633,1869
2634,1861
2635,1858
2636,1856
2637,1851
2638,1850
2639,1849
2640,1847
2641,1843
2642,1853
2643,1856
2644,1856
2645,1862
2646,1865
2647,1867
2648,1869
2649,1870
2650,1867
2651,1862
2652,1859
2653,1862
2654,1857
2655,1856
2656,1851
2657,1857
2658,1856
2659,1861
2660,1862
2661,1859
2662,1866
2663,1866
2664,1867
2665,1863
2666,1866
2667,1862
2668,1856
2669,1865
2670,1857
2671,1856
2672,1851
2673,1853
2674,1850
2675,1854
2676,1860
2677,1859
2678,1861
2679,1862
2680,1866
2681,1870
2682,1870
2683,1870
2684,1863
2685,1866
2686,1862
2687,1859
2688,1856
2689,1853
2690,1851
2691,1852
2692,1856
2693,1857
2694,1856
2695,1856
2696,1857
2697,1857
2698,1867
2699,1872
2700,1867
2701,1862
2702,1859
2703,1861
2704,1857
2705,1854
2706,1854
2707,1854
2708,1854
2709,1856
2710,1859
2711,1861
2712,1865
2713,1867
2714,1868
2715,1869
2716,1871
2717,1869
2718,1863
2719,1861
2720,1856
2721,1851
2722,1847
2723,1845
2724,1845
2725,1847
2726,1850
2727,1854
2728,1854
2729,1856
2730,1856
2731,1859
2732,1862
2733,1865
2734,1866
2735,1861
2736,1862
2737,1856
2738,1854
2739,1858
2740,1856
2741,1855
2742,1854
2743,1857
2744,1859
2745,1866
2746,1866
2747,1862
2748,1871
2749,1867
2750,1863
2751,1858
2752,1858
2753,1857
2754,1858
2755,1854
2756,1850
2757,1853
2758,1840
2759,2433
2760,1968
2761,1878
2762,1997
2763,2169
2764,2305
2765,2374
2766,2169
2767,1947
2768,1744
2769,1593
2770,1669
2771,1648
2772,1616
2773,1575
2774,1571
2775,1632
2776,1725
2777,1806
2778,1863
2779,1905
2780,1923
2781,1938
2782,1930
2783,1942
2784,1952
2785,1931
2786,1897
2787,1869
2788,1840
2789,1805
2790,2331
2791,1897
2792,1722
2793,1840
2794,2077
2795,2288
2796,2261
2797,2029
2798,1917
2799,1714
2800,1648
2801,1581
2802,1580
2803,1562
2804,1568
2805,1649
2806,1760
2807,1852
2808,1906
2809,1931
2810,1936
2811,1935
2812,1942
2813,1963
2814,1963
2815,1951
2816,1922
2817,1877
2818,1819
2819,1763
2820,1715
2821,1881
2822,2000
2823,1749
2824,1852
2825,2128
2826,2363
2827,2290
2828,1989
2829,1899
2830,1812
2831,1690
2832,1535
2833,1515
2834,1514
2835,1600
2836,1732
2837,1834
2838,1897
2839,1920
2840,1925
2841,1931
2842,1936
2843,1960
2844,1970
2845,1965
2846,1924
2847,1872
2848,1811
2849,1753
2850,1724
2851,1717
2852,855
2853,2192
2854,1797
2855,1856
2856,2238
2857,2445
2858,2381
2859,2080
2860,1851
2861,1712
2862,1568
2863,1488
2864,1457
2865,1493
2866,1654
2867,1808
2868,1878
2869,1910
2870,1923
2871,1932
2872,1936
2873,1943
2874,1954
2875,1942
2876,1931
2877,1894
2878,1838
2879,1791
2880,1755
2881,1742
2882,1749
2883,1499
2884,2371
2885,1886
2886,1815
2887,2196
2888,2475
2889,2475
2890,2112
2891,1786
2892,1701
2893,1615
2894,1519
2895,1470
2896,1515
2897,1664
2898,1797
2899,1851
2900,1882
2901,1905
2902,1920
2903,1926
2904,1937
2905,1936
2906,1930
2907,1917
2908,1888
2909,1834
2910,1781
2911,1749
2912,1744
2913,1767
2914,1795
2915,2385
2916,1968
2917,1763
2918,2031
2919,2414
2920,2387
2921,2011
2922,1991
2923,1872
2924,1641
2925,1498
2926,1424
2927,1491
2928,1669
2929,1802
2930,1869
2931,1899
2932,1911
2933,1920
2934,1936
2935,1943
2936,1943
2937,1925
2938,1902
2939,1853
2940,1793
2941,1746
2942,1730
2943,1744
2944,1770
2945,1799
2946,1915
2947,2112
2948,1783
2949,2019
2950,2447
2951,2559
2952,2278
2953,1934
2954,1722
2955,1586
2956,1421
2957,1371
2958,1455
2959,1656
2960,1791
2961,1847
2962,1881
2963,1905
2964,1919
2965,1935
2966,1950
2967,1952
2968,1937
2969,1914
2970,1865
2971,1809
2972,1769
2973,1735
2974,1743
2975,1769
2976,1801
2977,887
2978,2241
2979,1831
2980,1936
2981,2415
2982,2611
2983,2414
2984,1955
2985,1689
2986,1535
2987,1425
2988,1387
2989,1433
2990,1617
2991,1776
2992,1846
2993,1885
2994,1909
2995,1919
2996,1934
2997,1949
2998,1963
2999,1957
3000,1926
3001,1872
3002,1817
3003,1769
3004,1744
3005,1746
3006,1766
3007,1791
3008,1090
3009,2337
3010,1871
3011,1856
3012,2347
3013,2586
3014,2508
3015,2009
3016,1659
3017,1532
3018,1448
3019,1405
3020,1442
3021,1616
3022,1766
3023,1838
3024,1872
3025,1897
3026,1917
3027,1930
3028,1943
3029,1953
3030,1942
3031,1915
3032,1873
3033,1840
3034,1784
3035,1815
3036,1829
3037,1694
3038,1727
3039,1794
3040,2407
3041,1947
3042,1807
3043,2258
3044,2537
3045,2645
3046,2035
3047,1634
3048,1557
3049,1478
3050,1411
3051,1427
3052,1607
3053,1776
3054,1856
3055,1881
3056,1902
3057,1911
3058,1920
3059,1937
3060,1951
3061,1940
3062,1926
3063,1893
3064,1845
3065,1794
3066,1763
3067,1761
3068,1776
3069,1791
3070,1815
3071,2121
3072,2078
3073,1785
3074,2117
3075,2454
3076,2719
3077,2160
3078,1673
3079,1559
3080,1503
3081,1428
3082,1406
3083,1565
3084,1750
3085,1840
3086,1878
3087,1898
3088,1910
3089,1923
3090,1931
3091,1936
3092,1936
3093,1929
3094,1927
3095,1878
3096,1783
3097,1750
3098,1745
3099,1767
3100,1793
3101,1811
3102,1337
3103,2177
3104,1799
3105,2011
3106,2403
3107,2724
3108,2259
3109,1719
3110,1554
3111,1518
3112,1442
3113,1403
3114,1535
3115,1738
3116,1840
3117,1879
3118,1904
3119,1913
3120,1919
3121,1934
3122,1936
3123,1937
3124,1930
3125,1927
3126,1904
3127,1791
3128,1731
3129,1730
3130,1755
3131,1783
3132,1808
3133,1040
3134,2339
3135,1872
3136,1883
3137,2327
3138,2645
3139,2470
3140,1839
3141,1556
3142,1520
3143,1453
3144,1389
3145,1486
3146,1698
3147,1826
3148,1877
3149,1903
3150,1920
3151,1935
3152,1936
3153,1955
3154,1954
3155,1943
3156,1902
3157,1853
3158,1806
3159,1767
3160,1747
3161,1753
3162,1778
3163,1798
3164,1808
3165,2419
3166,1975
3167,1856
3168,2230
3169,2483
3170,2608
3171,2004
3172,1597
3173,1520
3174,1446
3175,1360
3176,1446
3177,1667
3178,1808
3179,1871
3180,1901
3181,1921
3182,1935
3183,1945
3184,1953
3185,1955
3186,1943
3187,1917
3188,1868
3189,1817
3190,1770
3191,1743
3192,1741
3193,1771
3194,1793
3195,1820
3196,2341
3197,2030
3198,1805
3199,2192
3200,2496
3201,2707
3202,2065
3203,1600
3204,1521
3205,1473
3206,1391
3207,1422
3208,1627
3209,1789
3210,1856
3211,1893
3212,1910
3213,1927
3214,1936
3215,1948
3216,1955
3217,1947
3218,1928
3219,1889
3220,1834
3221,1796
3222,1764
3223,1742
3224,1744
3225,1767
3226,1801
3227,1745
3228,2133
3229,1799
3230,2074
3231,2411
3232,2754
3233,2250
3234,1650
3235,1520
3236,1497
3237,1409
3238,1401
3239,1584
3240,1757
3241,1840
3242,1869
3243,1903
3244,1919
3245,1936
3246,1947
3247,1957
3248,1956
3249,1935
3250,1903
3251,1840
3252,1789
3253,1758
3254,1744
3255,1760
3256,1780
3257,1801
3258,831
3259,2282
3260,1838
3261,1936
3262,2347
3263,2725
3264,2412
3265,1771
3266,1521
3267,1503
3268,1423
3269,1383
3270,1533
3271,1731
3272,1832
3273,1865
3274,1901
3275,1955
3276,1973
3277,1924
3278,1925
3279,1951
3280,1921
3281,1893
3282,1856
3283,1808
3284,1775
3285,1752
3286,1762
3287,1776
3288,1792
3289,1485
3290,2388
3291,1891
3292,1840
3293,2288
3294,2629
3295,2549
3296,1859
3297,1519
3298,1519
3299,1458
3300,1393
3301,1499
3302,1710
3303,1830
3304,1871
3305,1893
3306,1914
3307,1951
3308,1965
3309,1922
3310,1925
3311,1949
3312,1957
3313,1936
3314,1813
3315,1749
3316,1738
3317,1729
3318,1748
3319,1778
3320,1807
3321,2397
3322,1979
3323,1776
3324,2191
3325,2496
3326,2718
3327,2025
3328,1532
3329,1498
3330,1464
3331,1391
3332,1457
3333,1681
3334,1817
3335,1871
3336,1894
3337,1917
3338,1970
3339,1981
3340,1936
3341,1942
3342,1911
3343,1901
3344,1878
3345,1827
3346,1775
3347,1746
3348,1756
3349,1773
3350,1783
3351,1799
3352,1809
3353,2134
3354,1782
3355,2054
3356,2401
3357,2778
3358,2239
3359,1616
3360,1498
3361,1488
3362,1407
3363,1422
3364,1622
3365,1790
3366,1869
3367,1893
3368,1921
3369,1977
3370,1987
3371,1922
3372,1904
3373,1909
3374,1907
3375,1872
3376,1836
3377,1790
3378,1761
3379,1749
3380,1765
3381,1783
3382,1798
3383,1830
3384,1854
3385,1857
3386,1866
3387,1870
3388,1871
3389,1879
3390,1894
3391,1903
3392,1885
3393,1875
3394,1898
3395,1934
3396,1954
3397,1901
3398,1794
3399,1819
3400,1834
3401,1853
3402,1859
3403,1871
3404,1855
3405,1850
3406,1850
3407,1850
3408,1855
3409,1857
3410,1861
3411,1861
3412,1867
3413,1865
3414,1868
3415,1867
3416,1863
3417,1860
3418,1858
3419,1855
3420,1855
3421,1855
3422,1849
3423,1852
3424,1853
3425,1853
3426,1853
3427,1856
3428,1855
3429,1872
3430,1898
3431,1882
3432,1874
3433,1893
3434,1893
3435,1869
3436,1838
3437,1846
3438,1837
3439,1861
3440,1856
3441,1840
3442,1839
3443,1842
3444,1851
3445,1847
3446,1842
3447,1851
3448,1857
3449,1861
3450,1861
3451,1870
3452,1873
3453,1856
3454,1839
3455,1851
3456,1856
3457,1855
3458,1847
3459,1854
3460,1856
3461,1859
3462,1863
3463,1867
3464,1863
3465,1871
3466,1870
3467,1870
3468,1861
3469,1859
3470,1858
3471,1856
3472,1859
3473,1856
3474,1863
3475,1850
3476,1854
3477,1850
3478,1853
3479,1863
3480,1867
3481,1867
3482,1872
3483,1867
3484,1862
3485,1857
3486,1860
3487,1855
3488,1855
3489,1856
3490,1851
3491,1849
3492,1869
3493,1883
3494,1855
3495,1847
3496,1856
3497,1863
3498,1872
3499,1861
3500,1858
3501,1856
3502,1855
3503,1855
3504,1854
3505,1846
3506,1847
3507,1850
3508,1843
3509,1856
3510,1855
3511,1854
3512,1857
3513,1860
3514,1861
3515,1863
3516,1866
3517,1885
3518,1869
3519,1847
3520,1854
3521,1851
3522,1845
3523,1845
3524,1837
3525,1840
3526,1849
3527,1852
3528,1855
3529,1858
3530,1862
3531,1861
3532,1863
3533,1866
3534,1861
3535,1855
3536,1855
3537,1849
3538,1854
3539,1855
3540,1853
3541,1853
3542,1854
3543,1856
3544,1856
3545,1859
3546,1863
3547,1866
3548,1870
3549,1866
3550,1872
3551,1866
3552,1856
3553,1855
3554,1858
3555,1856
3556,1854
3557,1854
3558,1851
3559,1856
3560,1856
3561,1859
3562,1859
3563,1862
3564,1862
3565,1862
3566,1861
3567,1859
3568,1855
3569,1856
3570,1851
3571,1851
3572,1849
3573,1853
3574,1854
3575,1854
3576,1857
3577,1858
3578,1857
3579,1865
3580,1866
3581,1867
3582,1867
3583,1867
3584,1868
3585,1867
3586,1862
3587,1859
3588,1858
3589,1858
3590,1855
3591,1856
3592,1856
3593,1857
3594,1859
3595,1856
3596,1863
3597,1869
3598,1858
3599,1869
3600,1872
3601,1866
3602,1866
3603,1866
3604,1858
3605,1857
3606,1855
3607,1854
3608,1853
3609,1855
3610,1856
3611,1855
3612,1859
3613,1858
3614,1862
3615,1863
3616,1863
3617,1867
3618,1861
3619,1855
3620,1847
3621,1849
3622,1850
3623,1845
3624,1846
3625,1843
3626,1849
3627,1851
3628,1850
3629,1854
3630,1856
3631,1856
3632,1862
3633,1867
3634,1861
3635,1859
3636,1856
3637,1854
3638,1853
3639,1851
3640,1849
3641,1851
3642,1850
3643,1855
3644,1858
3645,1859
3646,1865
3647,1867
3648,1869
3649,1866
3650,1866
3651,1862
3652,1859
3653,1857
3654,1859
3655,1851
3656,1851
3657,1851
3658,1850
3659,1856
3660,1858
3661,1859
3662,1865
3663,1867
3664,1869
3665,1872
3666,1872
3667,1872
3668,1868
3669,1867
3670,1862
3671,1859
3672,1859
3673,1856
3674,1856
3675,1857
3676,1859
3677,1859
3678,1861
3679,1866
3680,1869
3681,1871
3682,1869
3683,1869
3684,1866
3685,1857
3686,1859
3687,1856
3688,1852
3689,1858
3690,1856
3691,1856
3692,1857
3693,1860
3694,1858
3695,1863
3696,1863
3697,1863
3698,1871
3699,1865
3700,1869
3701,1866
3702,1859
3703,1855
3704,1847
3705,1847
3706,1849
3707,1849
3708,1848
3709,1853
3710,1856
3711,1855
3712,1859
3713,1862
3714,1859
3715,1861
3716,1860
3717,1859
3718,1856
3719,1855
3720,1855
3721,1855
3722,1852
3723,1853
3724,1854
3725,1853
3726,1858
3727,1859
3728,1859
3729,1863
3730,1865
3731,1863
3732,1868
3733,1866
3734,1863
3735,1860
3736,1859
3737,1858
3738,1856
3739,1856
3740,1853
3741,1855
3742,1855
3743,1858
3744,1858
3745,1857
3746,1857
3747,1858
3748,1862
3749,1862
3750,1868
3751,1867
3752,1865
3753,1863
3754,1858
3755,1856
3756,1855
3757,1854
3758,1856
3759,1856
3760,1856
3761,1857
3762,1862
3763,1866
3764,1862
3765,1867
3766,1869
3767,1867
3768,1861
3769,1859
3770,1858
3771,1857
3772,1856
3773,1851
3774,1853
3775,1846
3776,1847
3777,1850
3778,1851
3779,1859
3780,1859
3781,1861
3782,1865
3783,1867
3784,1870
3785,1870
3786,1861
3787,1856
3788,1855
3789,1856
3790,1850
3791,1854
3792,1856
3793,1860
3794,1859
3795,1859
3796,1867
3797,1868
3798,1870
3799,1866
3800,1868
3801,1862
3802,1861
3803,1860
3804,1855
3805,1843
3806,1842
3807,1847
3808,1854
3809,1856
3810,1857
3811,1858
3812,1862
3813,1867
3814,1867
3815,1872
3816,1870
3817,1869
3818,1871
3819,1858
3820,1843
3821,1845
3822,1841
3823,1846
3824,1859
3825,1854
3826,1853
3827,1856
3828,1855
3829,1863
3830,1869
3831,1872
3832,1877
3833,1877
3834,1872
3835,1866
3836,1872
3837,1852
3838,1817
3839,1791
3840,1774
3841,1783
3842,1815
3843,1853
3844,1875
3845,1894
3846,1904
3847,1904
3848,1897
3849,1883
3850,1877
3851,1877
3852,1877
3853,1873
3854,1868
3855,1859
3856,1858
3857,1853
3858,1853
3859,1859
3860,1858
3861,1859
3862,1866
3863,1867
3864,1866
3865,1861
3866,1863
3867,1864
3868,1862
3869,1868
3870,1863
3871,1857
3872,1855
3873,1851
3874,1855
3875,1854
3876,1854
3877,1840
3878,1838
3879,1846
3880,1858
3881,1867
3882,1872
3883,1877
3884,1875
3885,1872
3886,1867
3887,1862
3888,1859
3889,1856
3890,1854
3891,1853
3892,1855
3893,1861
3894,1862
3895,1855
3896,1854
3897,1856
3898,1860
3899,1870
3900,1872
3901,1868
3902,1859
3903,1857
3904,1854
3905,1851
3906,1849
3907,1858
3908,1870
3909,1870
3910,1865
3911,1859
3912,1860
3913,1855
3914,1851
3915,1851
3916,1856
3917,1856
3918,1853
3919,1855
3920,1854
3921,1851
3922,1850
3923,1843
3924,1845
3925,1840
3926,1853
3927,1858
3928,1857
3929,1862
3930,1858
3931,1847
3932,1856
3933,1859
3934,1881
3935,1882
3936,1872
3937,1863
3938,1858
3939,1855
3940,1840
3941,1838
3942,1840
3943,1846
3944,1848
3945,1851
3946,1861
3947,1871
3948,1875
3949,1882
3950,1871
3951,1847
3952,1842
3953,1847
3954,1855
3955,1856
3956,1861
3957,1866
3958,1863
3959,1865
3960,1858
3961,1859
3962,1867
3963,1872
3964,1870
3965,1873
3966,1871
3967,1871
3968,1858
3969,1856
3970,1858
3971,1855
3972,1855
3973,1856
3974,1855
3975,1850
3976,1856
3977,1857
3978,1860
3979,1863
3980,1866
3981,1865
3982,1867
3983,1866
3984,1866
3985,1856
3986,1855
3987,1851
3988,1849
3989,1856
3990,1855
3991,1858
3992,1860
3993,1858
3994,1860
3995,1866
3996,1867
3997,1862
3998,1861
3999,1858
4000,1865
4001,1857
4002,1857
4003,1858
4004,1855
4005,1854
4006,1853
4007,1855
4008,1852
4009,1853
4010,1854
4011,1853
4012,1858
4013,1859
4014,1867
4015,1865
4016,1867
4017,1866
4018,1857
4019,1857
4020,1855
4021,1856
4022,1856
4023,1856
4024,1855
4025,1854
4026,1856
4027,1859
4028,1859
4029,1862
4030,1865
4031,1866
4032,1863
4033,1864
4034,1863
4035,1861
4036,1858
4037,1858
4038,1855
4039,1860
4040,1855
4041,1851
4042,1855
4043,1853
4044,1843
4045,1840
4046,1847
4047,1855
4048,1865
4049,1863
4050,1877
4051,1872
4052,1870
4053,1863
4054,1862
4055,1858
4056,1857
4057,1859
4058,1860
4059,1871
4060,1874
4061,1871
4062,1865
4063,1858
4064,1854
4065,1853
4066,1855
4067,1858
4068,1859
4069,1861
4070,1860
4071,1857
4072,1856
4073,1852
4074,1856
4075,1855
4076,1857
4077,1850
4078,1846
4079,1860
4080,1863
4081,1862
4082,1871
4083,1872
4084,1871
4085,1869
4086,1863
4087,1859
4088,1857
4089,1859
4090,1854
4091,1855
4092,1855
4093,1856
4094,1857
4095,1857
4096,1857
4097,1856
4098,1858
4099,1860
4100,1866
4101,1868
4102,1870
4103,1869
4104,1863
4105,1854
4106,1855
4107,1853
4108,1849
4109,1851
4110,1862
4111,1862
4112,1865
4113,1872
4114,1869
4115,1871
4116,1869
4117,1868
4118,1863
4119,1860
4120,1856
4121,1847
4122,1855
4123,1861
4124,1865
4125,1856
4126,1856
4127,1859
4128,1859
4129,1858
4130,1856
4131,1855
4132,1851
4133,1843
4134,1844
4135,1845
4136,1855
4137,1856
4138,1861
4139,1861
4140,1864
4141,1860
4142,1858
4143,1860
4144,1862
4145,1867
4146,1869
4147,1871
4148,1871
4149,1870
4150,1869
4151,1862
4152,1862
4153,1862
4154,1860
4155,1857
4156,1861
4157,1867
4158,1866
4159,1846
4160,1842
4161,1841
4162,1843
4163,1847
4164,1859
4165,1868
4166,1871
4167,1866
4168,1856
4169,1856
4170,1856
4171,1855
4172,1856
4173,1838
4174,1839
4175,1849
4176,1859
4177,1857
4178,1862
4179,1877
4180,1881
4181,1875
4182,1882
4183,1874
4184,1875
4185,1887
4186,1886
4187,1872
4188,1852
4189,1849
4190,1808
4191,1803
4192,1807
4193,1821
4194,1843
4195,1866
4196,1889
4197,1891
4198,1890
4199,1875
4200,1877
4201,1871
4202,1866
4203,1860
4204,1856
4205,1854
4206,1854
4207,1854
4208,1855
4209,1855
4210,1858
4211,1856
4212,1859
4213,1859
4214,1858
4215,1863
4216,1861
4217,1863
4218,1859
4219,1859
4220,1857
4221,1849
4222,1852
4223,1849
4224,1850
4225,1854
4226,1856
4227,1853
4228,1857
4229,1858
4230,1858
4231,1855
4232,1856
4233,1860
4234,1868
4235,1865
4236,1859
4237,1856
4238,1855
4239,1859
4240,1855
4241,1855
4242,1853
4243,1850
4244,1844
4245,1851
4246,1858
4247,1869
4248,1873
4249,1872
4250,1873
4251,1870
4252,1872
4253,1871
4254,1865
4255,1856
4256,1851
4257,1847
4258,1851
4259,1857
4260,1859
4261,1863
4262,1865
4263,1869
4264,1863
4265,1869
4266,1866
4267,1863
4268,1858
4269,1856
4270,1859
4271,1849
4272,1840
4273,1839
4274,1840
4275,1845
4276,1855
4277,1859
4278,1868
4279,1868
4280,1865
4281,1866
4282,1871
4283,1871
4284,1870
4285,1857
4286,1857
4287,1858
4288,1855
4289,1855
4290,1845
4291,1853
4292,1855
4293,1854
4294,1846
4295,1849
4296,1857
4297,1865
4298,1872
4299,1872
4300,1872
4301,1870
4302,1863
4303,1863
4304,1860
4305,1856
4306,1856
4307,1855
4308,1856
4309,1857
4310,1857
4311,1856
4312,1861
4313,1863
4314,1867
4315,1856
4316,1859
4317,1866
4318,1865
4319,1871
4320,1865
4321,1854
4322,1856
4323,1852
4324,1850
4325,1851
4326,1856
4327,1857
4328,1857
4329,1867
4330,1869
4331,1866
4332,1870
4333,1871
4334,1866
4335,1861
4336,1861
4337,1858
4338,1853
4339,1841
4340,1841
4341,1851
4342,1856
4343,1867
4344,1870
4345,1866
4346,1862
4347,1862
4348,1863
4349,1863
4350,1867
4351,1859
4352,1858
4353,1855
4354,1847
4355,1841
4356,1850
4357,1855
4358,1856
4359,1857
4360,1857
4361,1863
4362,1867
4363,1872
4364,1873
4365,1873
4366,1872
4367,1869
4368,1861
4369,1862
4370,1859
4371,1855
4372,1853
4373,1855
4374,1855
4375,1850
4376,1855
4377,1861
4378,1865
4379,1872
4380,1867
4381,1862
4382,1630
4383,2448
4384,1943
4385,1878
4386,2000
4387,2155
4388,2268
4389,2299
4390,2124
4391,1985
4392,1814
4393,1642
4394,1662
4395,1585
4396,1556
4397,1535
4398,1591
4399,1674
4400,1766
4401,1826
4402,1875
4403,1893
4404,1891
4405,1887
4406,1887
4407,1894
4408,1915
4409,1933
4410,1936
4411,1911
4412,1867
4413,1823
4414,2383
4415,1931
4416,1743
4417,1854
4418,2097
4419,2305
4420,2255
4421,2026
4422,1935
4423,1738
4424,1668
4425,1520
4426,1467
4427,1470
4428,1520
4429,1651
4430,1780
4431,1861
4432,1907
4433,1936
4434,1958
4435,1929
4436,1919
4437,1931
4438,1936
4439,1934
4440,1911
4441,1874
4442,1821
4443,1775
4444,1734
4445,1968
4446,2032
4447,1759
4448,1856
4449,2131
4450,2361
4451,2275
4452,2019
4453,1953
4454,1814
4455,1648
4456,1490
4457,1462
4458,1471
4459,1572
4460,1723
4461,1824
4462,1890
4463,1917
4464,1930
4465,1936
4466,1935
4467,1946
4468,1956
4469,1955
4470,1927
4471,1883
4472,1825
4473,1763
4474,1728
4475,1719
4476,915
4477,2219
4478,1795
4479,1825
4480,2160
4481,2426
4482,2317
4483,2103
4484,1975
4485,1829
4486,1627
4487,1489
4488,1454
4489,1476
4490,1602
4491,1745
4492,1841
4493,1903
4494,1915
4495,1915
4496,1925
4497,1941
4498,1954
4499,1955
4500,1937
4501,1893
4502,1831
4503,1789
4504,1753
4505,1741
4506,1746
4507,1307
4508,2382
4509,1850
4510,1746
4511,2096
4512,2416
4513,2352
4514,2112
4515,2033
4516,1877
4517,1648
4518,1467
4519,1413
4520,1472
4521,1645
4522,1776
4523,1847
4524,1891
4525,1909
4526,1907
4527,1921
4528,1936
4529,1947
4530,1945
4531,1925
4532,1893
4533,1858
4534,1808
4535,1757
4536,1739
4537,1744
4538,1775
4539,2437
4540,1939
4541,1733
4542,2026
4543,2410
4544,2446
4545,2160
4546,2043
4547,1851
4548,1602
4549,1427
4550,1378
4551,1459
4552,1662
4553,1795
4554,1853
4555,1872
4556,1895
4557,1905
4558,1929
4559,1950
4560,1952
4561,1951
4562,1925
4563,1889
4564,1877
4565,1803
4566,1752
4567,1733
4568,1740
4569,1773
4570,2160
4571,2071
4572,1754
4573,1995
4574,2420
4575,2528
4576,2337
4577,2018
4578,1671
4579,1519
4580,1385
4581,1351
4582,1456
4583,1679
4584,1817
4585,1858
4586,1877
4587,1894
4588,1912
4589,1934
4590,1939
4591,1948
4592,1940
4593,1923
4594,1887
4595,1823
4596,1785
4597,1762
4598,1755
4599,1775
4600,1797
4601,1261
4602,2221
4603,1798
4604,1909
4605,2383
4606,2543
4607,2429
4608,2032
4609,1648
4610,1501
4611,1411
4612,1356
4613,1437
4614,1664
4615,1811
4616,1867
4617,1889
4618,1904
4619,1919
4620,1930
4621,1941
4622,1949
4623,1937
4624,1910
4625,1870
4626,1820
4627,1775
4628,1753
4629,1747
4630,1753
4631,1782
4632,1116
4633,2378
4634,1865
4635,1853
4636,2345
4637,2549
4638,2559
4639,2032
4640,1607
4641,1495
4642,1408
4643,1342
4644,1407
4645,1626
4646,1794
4647,1863
4648,1892
4649,1909
4650,1926
4651,1933
4652,1942
4653,1957
4654,1945
4655,1923
4656,1885
4657,1835
4658,1783
4659,1750
4660,1739
4661,1753
4662,1783
4663,1813
4664,2457
4665,1980
4666,1798
4667,2243
4668,2507
4669,2645
4670,2181
4671,1657
4672,1503
4673,1435
4674,1354
4675,1382
4676,1591
4677,1770
4678,1853
4679,1901
4680,1920
4681,1935
4682,1939
4683,1952
4684,1962
4685,1946
4686,1921
4687,1879
4688,1835
4689,1781
4690,1746
4691,1735
4692,1745
4693,1778
4694,1807
4695,2209
4696,2096
4697,1787
4698,2128
4699,2469
4700,2704
4701,2277
4702,1712
4703,1522
4704,1455
4705,1362
4706,1368
4707,1535
4708,1746
4709,1853
4710,1895
4711,1919
4712,1936
4713,1943
4714,1950
4715,1958
4716,1951
4717,1936
4718,1899
4719,1842
4720,1777
4721,1731
4722,1712
4723,1741
4724,1765
4725,1792
4726,1199
4727,2220
4728,1808
4729,1978
4730,2398
4731,2681
4732,2383
4733,1795
4734,1535
4735,1498
4736,1397
4737,1360
4738,1520
4739,1728
4740,1829
4741,1872
4742,1904
4743,1953
4744,1947
4745,1927
4746,1937
4747,1943
4748,1938
4749,1917
4750,1879
4751,1801
4752,1757
4753,1730
4754,1738
4755,1757
4756,1782
4757,1070
4758,2359
4759,1858
4760,1872
4761,2338
4762,2635
4763,2505
4764,1901
4765,1568
4766,1520
4767,1422
4768,1357
4769,1484
4770,1706
4771,1830
4772,1878
4773,1906
4774,1941
4775,1968
4776,1938
4777,1933
4778,1945
4779,1939
4780,1919
4781,1858
4782,1777
4783,1726
4784,1728
4785,1744
4786,1769
4787,1787
4788,1814
4789,2458
4790,1939
4791,1805
4792,2247
4793,2535
4794,2626
4795,2038
4796,1593
4797,1526
4798,1454
4799,1370
4800,1451
4801,1677
4802,1820
4803,1875
4804,1904
4805,1936
4806,1973
4807,1949
4808,1920
4809,1938
4810,1947
4811,1906
4812,1839
4813,1779
4814,1754
4815,1753
4816,1759
4817,1769
4818,1786
4819,1808
4820,2439
4821,2018
4822,1762
4823,2147
4824,2457
4825,2701
4826,2176
4827,1621
4828,1520
4829,1467
4830,1379
4831,1425
4832,1643
4833,1802
4834,1857
4835,1883
4836,1904
4837,1923
4838,1930
4839,1936
4840,1951
4841,1971
4842,1965
4843,1941
4844,1953
4845,1813
4846,1622
4847,1645
4848,1707
4849,1750
4850,1787
4851,1533
4852,2171
4853,1776
4854,1990
4855,2362
4856,2740
4857,2387
4858,1735
4859,1532
4860,1493
4861,1400
4862,1391
4863,1584
4864,1761
4865,1847
4866,1882
4867,1911
4868,1932
4869,1943
4870,1949
4871,1955
4872,1949
4873,1926
4874,1858
4875,1803
4876,1781
4877,1750
4878,1734
4879,1754
4880,1814
4881,1887
4882,885
4883,2277
4884,1807
4885,1885
4886,2241
4887,2546
4888,2583
4889,1919
4890,1521
4891,1474
4892,1387
4893,1363
4894,1535
4895,1737
4896,1838
4897,1879
4898,1947
4899,2061
4900,2025
4901,1903
4902,1927
4903,1943
4904,1888
4905,1834
4906,1808
4907,1776
4908,1744
4909,1717
4910,1761
4911,1874
4912,1873
4913,1421
4914,2381
4915,1854
4916,1792
4917,2192
4918,2519
4919,2704
4920,2021
4921,1521
4922,1470
4923,1408
4924,1355
4925,1483
4926,1694
4927,1814
4928,1870
4929,1950
4930,2062
4931,2035
4932,1895
4933,1873
4934,1907
4935,1911
4936,1879
4937,1818
4938,1775
4939,1745
4940,1729
4941,1731
4942,1754
4943,1779
4944,1808
4945,2420
4946,2015
4947,1772
4948,2143
4949,2453
4950,2749
4951,2213
4952,1627
4953,1520
4954,1453
4955,1359
4956,1424
4957,1637
4958,1783
4959,1857
4960,1905
4961,1935
4962,1954
4963,1998
4964,2106
4965,2046
4966,1854
4967,1803
4968,1790
4969,1782
4970,1784
4971,1775
4972,1763
4973,1760
4974,1795
4975,1846
4976,1846
4977,2111
4978,1756
4979,1947
4980,2170
4981,2663
4982,2677
4983,1793
4984,1473
4985,1440
4986,1359
4987,1381
4988,1584
4989,1757
4990,1843
4991,1887
4992,1921
4993,1975
4994,1997
4995,1958
4996,1920
4997,1904
4998,1899
4999,1886
5000,1845
5001,1782
5002,1746
5003,1751
5004,1769
5005,1765
5006,1765
5007,1790
5008,1819
5009,1850
5010,1863
5011,1876
5012,1894
5013,1899
5014,1907
5015,1923
5016,1918
5017,1888
5018,1875
5019,1878
5020,1859
5021,1845
5022,1846
5023,1855
5024,1861
5025,1863
5026,1868
5027,1865
5028,1858
5029,1860
5030,1862
5031,1869
5032,1872
5033,1872
5034,1872
5035,1854
5036,1855
5037,1856
5038,1849
5039,1849
5040,1840
5041,1855
5042,1894
5043,1894
5044,1862
5045,1845
5046,1840
5047,1845
5048,1856
5049,1859
5050,1863
5051,1862
5052,1862
5053,1879
5054,1855
5055,1840
5056,1852
5057,1854
5058,1863
5059,1883
5060,1875
5061,1843
5062,1850
5063,1863
5064,1860
5065,1850
5066,1840
5067,1848
5068,1849
5069,1858
5070,1856
5071,1856
5072,1859
5073,1858
5074,1854
5075,1862
5076,1872
5077,1858
5078,1851
5079,1850
5080,1859
5081,1861
5082,1865
5083,1866
5084,1869
5085,1865
5086,1866
5087,1872
5088,1918
5089,1985
5090,1892
5091,1785
5092,1808
5093,1817
5094,1821
5095,1829
5096,1845
5097,1854
5098,1856
5099,1870
5100,1876
5101,1877
5102,1863
5103,1857
5104,1861
5105,1863
5106,1847
5107,1839
5108,1841
5109,1853
5110,1856
5111,1856
5112,1856
5113,1862
5114,1869
5115,1872
5116,1862
5117,1863
5118,1866
5119,1867
5120,1863
5121,1856
5122,1849
5123,1845
5124,1840
5125,1842
5126,1846
5127,1851
5128,1855
5129,1857
5130,1867
5131,1881
5132,1869
5133,1855
5134,1870
5135,1863
5136,1853
5137,1853
5138,1840
5139,1847
5140,1851
5141,1854
5142,1853
5143,1863
5144,1873
5145,1870
5146,1868
5147,1875
5148,1863
5149,1858
5150,1856
5151,1849
5152,1854
5153,1856
5154,1856
5155,1846
5156,1844
5157,1844
5158,1845
5159,1856
5160,1858
5161,1858
5162,1862
5163,1865
5164,1866
5165,1868
5166,1866
5167,1869
5168,1862
5169,1862
5170,1862
5171,1857
5172,1852
5173,1850
5174,1850
5175,1853
5176,1855
5177,1855
5178,1866
5179,1879
5180,1861
5181,1857
5182,1865
5183,1868
5184,1872
5185,1855
5186,1840
5187,1845
5188,1846
5189,1856
5190,1851
5191,1853
5192,1856
5193,1858
5194,1859
5195,1868
5196,1870
5197,1870
5198,1867
5199,1866
5200,1862
5201,1867
5202,1859
5203,1852
5204,1846
5205,1854
5206,1856
5207,1856
5208,1854
5209,1854
5210,1863
5211,1874
5212,1866
5213,1863
5214,1867
5215,1863
5216,1861
5217,1863
5218,1856
5219,1842
5220,1841
5221,1854
5222,1853
5223,1854
5224,1854
5225,1850
5226,1855
5227,1856
5228,1857
5229,1862
5230,1861
5231,1859
5232,1865
5233,1867
5234,1866
5235,1858
5236,1857
5237,1857
5238,1854
5239,1854
5240,1851
5241,1858
5242,1850
5243,1866
5244,1862
5245,1855
5246,1858
5247,1859
5248,1862
5249,1857
5250,1853
5251,1849
5252,1856
5253,1856
5254,1854
5255,1851
5256,1855
5257,1850
5258,1851
5259,1852
5260,1855
5261,1859
5262,1859
5263,1862
5264,1862
5265,1867
5266,1864
5267,1863
5268,1863
5269,1863
5270,1863
5271,1857
5272,1854
5273,1857
5274,1855
5275,1847
5276,1850
5277,1854
5278,1854
5279,1867
5280,1868
5281,1869
5282,1871
5283,1869
5284,1868
5285,1865
5286,1859
5287,1861
5288,1858
5289,1858
5290,1856
5291,1857
5292,1857
5293,1856
5294,1865
5295,1869
5296,1865
5297,1870
5298,1870
5299,1869
5300,1868
5301,1866
5302,1863
5303,1862
5304,1859
5305,1851
5306,1853
5307,1849
5308,1847
5309,1855
5310,1858
5311,1857
5312,1861
5313,1860
5314,1863
5315,1863
5316,1859
5317,1861
5318,1859
5319,1857
5320,1855
5321,1850
5322,1853
5323,1850
5324,1851
5325,1853
5326,1854
5327,1855
5328,1857
5329,1858
5330,1862
5331,1862
5332,1867
5333,1867
5334,1866
5335,1855
5336,1854
5337,1853
5338,1850
5339,1849
5340,1844
5341,1846
5342,1856
5343,1857
5344,1857
5345,1857
5346,1862
5347,1862
5348,1868
5349,1867
5350,1867
5351,1867
5352,1862
5353,1861
5354,1856
5355,1857
5356,1856
5357,1852
5358,1853
5359,1856
5360,1862
5361,1863
5362,1863
5363,1866
5364,1866
5365,1859
5366,1861
5367,1861
5368,1857
5369,1860
5370,1861
5371,1857
5372,1856
5373,1855
5374,1856
5375,1855
5376,1856
5377,1858
5378,1859
5379,1866
5380,1868
5381,1866
5382,1871
5383,1871
5384,1869
5385,1866
5386,1861
5387,1861
5388,1856
5389,1855
5390,1855
5391,1854
5392,1856
5393,1859
5394,1861
5395,1853
5396,1857
5397,1859
5398,1859
5399,1866
5400,1866
5401,1865
5402,1862
5403,1861
5404,1857
5405,1855
5406,1853
5407,1855
5408,1855
5409,1854
5410,1861
5411,1860
5412,1861
5413,1866
5414,1866
5415,1867
5416,1866
5417,1866
5418,1862
5419,1863
5420,1859
5421,1850
5422,1851
5423,1848
5424,1849
5425,1847
5426,1851
5427,1854
5428,1854
5429,1856
5430,1856
5431,1856
5432,1869
5433,1869
5434,1867
5435,1865
5436,1863
5437,1859
5438,1856
5439,1857
5440,1856
5441,1855
5442,1856
5443,1856
5444,1856
5445,1858
5446,1862
5447,1866
5448,1866
5449,1866
5450,1867
5451,1863
5452,1861
5453,1861
5454,1857
5455,1850
5456,1853
5457,1850
5458,1850
5459,1856
5460,1859
5461,1860
5462,1865
5463,1867
5464,1865
5465,1871
5466,1865
5467,1865
5468,1861
5469,1861
5470,1859
5471,1856
5472,1855
5473,1856
5474,1857
5475,1856
5476,1857
5477,1860
5478,1860
5479,1862
5480,1862
5481,1862
5482,1869
5483,1866
5484,1866
5485,1856
5486,1853
5487,1851
5488,1852
5489,1856
5490,1855
5491,1855
5492,1856
5493,1858
5494,1859
5495,1860
5496,1865
5497,1864
5498,1867
5499,1868
5500,1867
5501,1864
5502,1865
5503,1859
5504,1858
5505,1856
5506,1857
5507,1854
5508,1854
5509,1856
5510,1857
5511,1858
5512,1861
5513,1862
5514,1863
5515,1860
5516,1861
5517,1859
5518,1857
5519,1856
5520,1856
5521,1859
5522,1847
5523,1856
5524,1856
5525,1856
5526,1857
5527,1859
5528,1862
5529,1865
5530,1869
5531,1867
5532,1869
5533,1866
5534,1867
5535,1861
5536,1859
5537,1857
5538,1855
5539,1856
5540,1854
5541,1854
5542,1855
5543,1856
5544,1858
5545,1854
5546,1856
5547,1857
5548,1859
5549,1859
5550,1861
5551,1872
5552,1862
5553,1861
5554,1859
5555,1856
5556,1858
5557,1855
5558,1856
5559,1856
5560,1859
5561,1861
5562,1862
5563,1866
5564,1868
5565,1871
5566,1866
5567,1866
5568,1863
5569,1859
5570,1857
5571,1854
5572,1853
5573,1851
5574,1852
5575,1845
5576,1849
5577,1853
5578,1856
5579,1867
5580,1869
5581,1866
5582,1870
5583,1870
5584,1867
5585,1863
5586,1859
5587,1859
5588,1858
5589,1855
5590,1854
5591,1857
5592,1854
5593,1859
5594,1858
5595,1861
5596,1863
5597,1866
5598,1868
5599,1867
5600,1870
5601,1867
5602,1862
5603,1863
5604,1861
5605,1848
5606,1850
5607,1849
5608,1846
5609,1855
5610,1858
5611,1861
5612,1859
5613,1861
5614,1865
5615,1869
5616,1867
5617,1865
5618,1861
5619,1854
5620,1862
5621,1856
5622,1855
5623,1854
5624,1855
5625,1856
5626,1857
5627,1859
5628,1859
5629,1866
5630,1868
5631,1867
5632,1871
5633,1871
5634,1867
5635,1858
5636,1856
5637,1854
5638,1852
5639,1851
5640,1847
5641,1853
5642,1856
5643,1857
5644,1859
5645,1859
5646,1861
5647,1866
5648,1867
5649,1867
5650,1869
5651,1866
5652,1863
5653,1859
5654,1859
5655,1856
5656,1857
5657,1855
5658,1851
5659,1855
5660,1856
5661,1859
5662,1858
5663,1862
5664,1865
5665,1861
5666,1858
5667,1859
5668,1857
5669,1862
5670,1861
5671,1856
5672,1856
5673,1855
5674,1857
5675,1854
5676,1856
5677,1858
5678,1859
5679,1865
5680,1863
5681,1865
5682,1869
5683,1869
5684,1865
5685,1862
5686,1863
5687,1859
5688,1856
5689,1856
5690,1855
5691,1856
5692,1856
5693,1857
5694,1858
5695,1853
5696,1858
5697,1858
5698,1861
5699,1869
5700,1870
5701,1866
5702,1862
5703,1863
5704,1858
5705,1856
5706,1856
5707,1854
5708,1855
5709,1855
5710,1857
5711,1858
5712,1861
5713,1866
5714,1865
5715,1869
5716,1871
5717,1867
5718,1862
5719,1859
5720,1858
5721,1851
5722,1845
5723,1846
5724,1849
5725,1847
5726,1853
5727,1854
5728,1856
5729,1855
5730,1858
5731,1855
5732,1866
5733,1870
5734,1867
5735,1863
5736,1863
5737,1861
5738,1856
5739,1856
5740,1852
5741,1853
5742,1852
5743,1855
5744,1857
5745,1857
5746,1863
5747,1866
5748,1871
5749,1871
5750,1872
5751,1866
5752,1866
5753,1863
5754,1856
5755,1846
5756,1847
5757,1847
5758,1849
5759,1856
5760,1859
5761,1861
5762,1861
5763,1862
5764,1866
5765,1869
5766,1867
5767,1867
5768,1861
5769,1859
5770,1857
5771,1855
5772,1855
5773,1854
5774,1855
5775,1857
5776,1862
5777,1863
5778,1863
5779,1867
5780,1869
5781,1869
5782,1871
5783,1869
5784,1869
5785,1858
5786,1856
5787,1856
5788,1856
5789,1856
5790,1855
5791,1856
5792,1854
5793,1855
5794,1856
5795,1858
5796,1863
5797,1867
5798,1866
5799,1867
5800,1865
5801,1859
5802,1858
5803,1856
5804,1855
5805,1855
5806,1856
5807,1855
5808,1856
5809,1856
5810,1856
5811,1857
5812,1857
5813,1862
5814,1866
5815,1861
5816,1858
5817,1858
5818,1855
5819,1855
5820,1841
5821,1859
5822,1856
5823,1856
5824,1856
5825,1856
5826,1858
5827,1858
5828,1857
5829,1861
5830,1863
5831,1863
5832,1868
5833,1867
5834,1865
5835,1863
5836,1861
5837,1859
5838,1858
5839,1856
5840,1853
5841,1856
5842,1857
5843,1859
5844,1857
5845,1852
5846,1859
5847,1861
5848,1857
5849,1862
5850,1867
5851,1865
5852,1863
5853,1861
5854,1857
5855,1856
5856,1859
5857,1853
5858,1854
5859,1855
5860,1860
5861,1858
5862,1861
5863,1866
5864,1863
5865,1869
5866,1867
5867,1866
5868,1866
5869,1866
5870,1862
5871,1858
5872,1857
5873,1858
5874,1856
5875,1847
5876,1850
5877,1853
5878,1855
5879,1860
5880,1867
5881,1866
5882,1869
5883,1869
5884,1872
5885,1870
5886,1863
5887,1866
5888,1859
5889,1856
5890,1853
5891,1853
5892,1850
5893,1850
5894,1854
5895,1858
5896,1861
5897,1863
5898,1866
5899,1866
5900,1869
5901,1866
5902,1860
5903,1860
5904,1858
5905,1850
5906,1851
5907,1846
5908,1847
5909,1855
5910,1859
5911,1857
5912,1858
5913,1863
5914,1863
5915,1869
5916,1866
5917,1866
5918,1862
5919,1862
5920,1861
5921,1855
5922,1856
5923,1857
5924,1857
5925,1856
5926,1856
5927,1859
5928,1859
5929,1863
5930,1863
5931,1863
5932,1866
5933,1862
5934,1861
5935,1855
5936,1853
5937,1852
5938,1851
5939,1854
5940,1854
5941,1847
5942,1856
5943,1863
5944,1865
5945,1869
5946,1872
5947,1870
5948,1859
5949,1847
5950,1861
5951,1859
5952,1858
5953,1861
5954,1857
5955,1857
5956,1857
5957,1854
5958,1854
5959,1854
5960,1857
5961,1855
5962,1858
5963,1863
5964,1865
5965,1862
5966,1862
5967,1859
5968,1856
5969,1860
5970,1863
5971,1856
5972,1856
5973,1855
5974,1855
5975,1855
5976,1856
5977,1859
5978,1862
5979,1866
5980,1866
5981,1866
5982,1867
5983,1870
5984,1871
5985,1866
5986,1861
5987,1858
5988,1856
5989,1856
5990,1851
5991,1855
5992,1856
5993,1857
5994,1858
5995,1856
5996,1857
5997,1860
5998,1860
5999,1869
6000,1871
6001,1871
6002,1866
6003,1865
6004,1859
6005,1858
6006,1776
6007,2484
6008,1953
6009,1863
6010,1970
6011,2121
6012,2243
6013,2288
6014,2122
6015,1926
6016,1719
6017,1566
6018,1652
6019,1729
6020,1710
6021,1616
6022,1584
6023,1648
6024,1727
6025,1799
6026,1867
6027,1911
6028,1930
6029,1935
6030,1929
6031,1937
6032,1944
6033,1933
6034,1918
6035,1900
6036,1858
6037,1807
6038,2384
6039,1919
6040,1719
6041,1839
6042,2059
6043,2243
6044,2233
6045,2016
6046,1920
6047,1679
6048,1623
6049,1654
6050,1626
6051,1565
6052,1557
6053,1631
6054,1744
6055,1836
6056,1901
6057,1927
6058,1924
6059,1915
6060,1929
6061,1951
6062,1968
6063,1964
6064,1936
6065,1895
6066,1835
6067,1782
6068,1744
6069,1852
6070,2047
6071,1754
6072,1878
6073,2193
6074,2371
6075,2368
6076,2063
6077,1854
6078,1629
6079,1638
6080,1603
6081,1501
6082,1457
6083,1523
6084,1680
6085,1799
6086,1874
6087,1915
6088,1926
6089,1936
6090,1936
6091,1959
6092,1967
6093,1957
6094,1931
6095,1877
6096,1819
6097,1773
6098,1744
6099,1743
6100,1008
6101,2206
6102,1792
6103,1887
6104,2273
6105,2450
6106,2428
6107,2165
6108,1872
6109,1585
6110,1535
6111,1469
6112,1409
6113,1445
6114,1601
6115,1780
6116,1872
6117,1911
6118,1926
6119,1935
6120,1936
6121,1943
6122,1949
6123,1959
6124,1947
6125,1887
6126,1849
6127,1774
6128,1733
6129,1728
6130,1744
6131,1418
6132,2411
6133,1867
6134,1807
6135,2196
6136,2464
6137,2473
6138,2206
6139,1851
6140,1626
6141,1616
6142,1469
6143,1422
6144,1482
6145,1631
6146,1783
6147,1867
6148,1902
6149,1919
6150,1945
6151,1953
6152,1965
6153,1959
6154,1942
6155,1914
6156,1863
6157,1808
6158,1771
6159,1747
6160,1739
6161,1749
6162,1775
6163,2455
6164,1949
6165,1776
6166,2059
6167,2419
6168,2416
6169,2095
6170,1936
6171,1769
6172,1637
6173,1535
6174,1448
6175,1479
6176,1649
6177,1781
6178,1847
6179,1898
6180,1919
6181,1934
6182,1950
6183,1970
6184,1968
6185,1936
6186,1920
6187,1885
6188,1811
6189,1766
6190,1725
6191,1723
6192,1744
6193,1776
6194,2123
6195,2096
6196,1786
6197,1973
6198,2406
6199,2532
6200,2256
6201,1839
6202,1636
6203,1634
6204,1554
6205,1435
6206,1471
6207,1639
6208,1783
6209,1855
6210,1891
6211,1908
6212,1920
6213,1936
6214,1951
6215,1953
6216,1935
6217,1919
6218,1874
6219,1827
6220,1782
6221,1753
6222,1739
6223,1755
6224,1778
6225,1046
6226,2239
6227,1819
6228,1952
6229,2451
6230,2615
6231,2387
6232,1890
6233,1587
6234,1574
6235,1462
6236,1359
6237,1411
6238,1617
6239,1779
6240,1853
6241,1874
6242,1892
6243,1916
6244,1925
6245,1943
6246,1958
6247,1944
6248,1934
6249,1905
6250,1853
6251,1763
6252,1744
6253,1739
6254,1756
6255,1781
6256,1202
6257,2385
6258,1877
6259,1888
6260,2419
6261,2623
6262,2532
6263,1955
6264,1534
6265,1456
6266,1439
6267,1375
6268,1409
6269,1605
6270,1779
6271,1859
6272,1891
6273,1914
6274,1925
6275,1934
6276,1945
6277,1954
6278,1943
6279,1926
6280,1893
6281,1847
6282,1806
6283,1772
6284,1751
6285,1757
6286,1774
6287,1795
6288,2469
6289,1939
6290,1838
6291,2339
6292,2603
6293,2614
6294,1989
6295,1522
6296,1446
6297,1456
6298,1393
6299,1415
6300,1604
6301,1783
6302,1870
6303,1904
6304,1917
6305,1927
6306,1935
6307,1936
6308,1952
6309,1953
6310,1931
6311,1872
6312,1839
6313,1795
6314,1767
6315,1758
6316,1763
6317,1782
6318,1808
6319,2289
6320,2046
6321,1802
6322,2175
6323,2527
6324,2669
6325,2125
6326,1584
6327,1424
6328,1473
6329,1423
6330,1406
6331,1566
6332,1759
6333,1865
6334,1904
6335,1920
6336,1931
6337,1936
6338,1937
6339,1950
6340,1950
6341,1935
6342,1895
6343,1850
6344,1805
6345,1762
6346,1755
6347,1778
6348,1767
6349,1790
6350,1315
6351,2214
6352,1808
6353,2019
6354,2461
6355,2704
6356,2337
6357,1664
6358,1413
6359,1466
6360,1425
6361,1380
6362,1511
6363,1727
6364,1853
6365,1902
6366,1922
6367,1936
6368,1943
6369,1946
6370,1953
6371,1949
6372,1935
6373,1904
6374,1867
6375,1810
6376,1771
6377,1745
6378,1748
6379,1771
6380,1792
6381,1014
6382,2369
6383,1936
6384,2021
6385,2285
6386,2515
6387,2451
6388,1845
6389,1478
6390,1483
6391,1447
6392,1373
6393,1472
6394,1690
6395,1833
6396,1889
6397,1914
6398,1930
6399,1947
6400,1953
6401,1980
6402,1976
6403,1981
6404,1895
6405,1838
6406,1802
6407,1758
6408,1739
6409,1738
6410,1759
6411,1777
6412,1679
6413,2459
6414,1951
6415,1904
6416,2287
6417,2512
6418,2515
6419,1995
6420,1488
6421,1461
6422,1457
6423,1375
6424,1443
6425,1662
6426,1813
6427,1883
6428,1910
6429,1931
6430,1945
6431,1952
6432,1959
6433,1958
6434,1949
6435,1926
6436,1903
6437,1834
6438,1767
6439,1739
6440,1728
6441,1762
6442,1837
6443,1847
6444,2369
6445,2000
6446,1759
6447,2153
6448,2465
6449,2714
6450,2202
6451,1535
6452,1414
6453,1472
6454,1389
6455,1410
6456,1616
6457,1787
6458,1870
6459,1904
6460,1934
6461,1944
6462,1947
6463,1966
6464,1980
6465,1971
6466,1930
6467,1878
6468,1830
6469,1787
6470,1756
6471,1742
6472,1751
6473,1767
6474,1779
6475,1682
6476,2147
6477,1775
6478,2023
6479,2443
6480,2740
6481,2309
6482,1699
6483,1444
6484,1509
6485,1428
6486,1408
6487,1583
6488,1753
6489,1837
6490,1870
6491,1898
6492,1926
6493,1947
6494,1946
6495,1941
6496,1946
6497,1932
6498,1902
6499,1863
6500,1802
6501,1769
6502,1785
6503,1814
6504,1773
6505,1741
6506,871
6507,2288
6508,1806
6509,1885
6510,2334
6511,2645
6512,2531
6513,1845
6514,1415
6515,1492
6516,1456
6517,1398
6518,1534
6519,1725
6520,1828
6521,1873
6522,1902
6523,1934
6524,1941
6525,1950
6526,1956
6527,1973
6528,1958
6529,1897
6530,1857
6531,1809
6532,1761
6533,1730
6534,1733
6535,1744
6536,1770
6537,1621
6538,2448
6539,1890
6540,1804
6541,2273
6542,2559
6543,2601
6544,1979
6545,1450
6546,1489
6547,1479
6548,1392
6549,1483
6550,1686
6551,1810
6552,1872
6553,1904
6554,1921
6555,1937
6556,1946
6557,1950
6558,1963
6559,1968
6560,1938
6561,1870
6562,1822
6563,1802
6564,1775
6565,1719
6566,1714
6567,1754
6568,1782
6569,2470
6570,1968
6571,1767
6572,2205
6573,2526
6574,2763
6575,2123
6576,1472
6577,1439
6578,1473
6579,1392
6580,1453
6581,1650
6582,1797
6583,1873
6584,1909
6585,1927
6586,1947
6587,1962
6588,1966
6589,1962
6590,1951
6591,1919
6592,1872
6593,1814
6594,1779
6595,1758
6596,1735
6597,1744
6598,1776
6599,1799
6600,2070
6601,2087
6602,1742
6603,2032
6604,2402
6605,2767
6606,2409
6607,1627
6608,1405
6609,1477
6610,1404
6611,1404
6612,1585
6613,1760
6614,1857
6615,1905
6616,1927
6617,1953
6618,1968
6619,1958
6620,1951
6621,1939
6622,1913
6623,1866
6624,1806
6625,1764
6626,1740
6627,1733
6628,1746
6629,1770
6630,1783
6631,1807
6632,1835
6633,1858
6634,1866
6635,1873
6636,1882
6637,1881
6638,1878
6639,1877
6640,1876
6641,1877
6642,1874
6643,1890
6644,1908
6645,1886
6646,1875
6647,1897
6648,1888
6649,1871
6650,1856
6651,1853
6652,1856
6653,1858
6654,1861
6655,1856
6656,1856
6657,1859
6658,1877
6659,1869
6660,1856
6661,1872
6662,1865
6663,1847
6664,1851
6665,1850
6666,1861
6667,1867
6668,1863
6669,1858
6670,1859
6671,1859
6672,1863
6673,1867
6674,1865
6675,1856
6676,1854
6677,1854
6678,1862
6679,1894
6680,1872
6681,1850
6682,1875
6683,1878
6684,1851
6685,1833
6686,1830
6687,1847
6688,1847
6689,1853
6690,1852
6691,1857
6692,1857
6693,1859
6694,1862
6695,1858
6696,1867
6697,1879
6698,1877
6699,1873
6700,1873
6701,1875
6702,1869
6703,1845
6704,1835
6705,1837
6706,1848
6707,1847
6708,1854
6709,1853
6710,1856
6711,1859
6712,1859
6713,1861
6714,1863
6715,1855
6716,1859
6717,1859
6718,1858
6719,1858
6720,1855
6721,1857
6722,1850
6723,1857
6724,1856
6725,1854
6726,1869
6727,1885
6728,1867
6729,1859
6730,1874
6731,1861
6732,1851
6733,1855
6734,1851
6735,1856
6736,1856
6737,1855
6738,1853
6739,1852
6740,1851
6741,1854
6742,1856
6743,1856
6744,1868
6745,1878
6746,1872
6747,1861
6748,1873
6749,1868
6750,1851
6751,1854
6752,1842
6753,1847
6754,1852
6755,1851
6756,1854
6757,1849
6758,1854
6759,1853
6760,1855
6761,1856
6762,1858
6763,1859
6764,1865
6765,1866
6766,1862
6767,1872
6768,1885
6769,1863
6770,1861
6771,1870
6772,1855
6773,1847
6774,1843
6775,1830
6776,1840
6777,1846
6778,1851
6779,1851
6780,1857
6781,1864
6782,1867
6783,1867
6784,1867
6785,1862
6786,1859
6787,1858
6788,1857
6789,1856
6790,1857
6791,1859
6792,1855
6793,1856
6794,1859
6795,1858
6796,1866
6797,1863
6798,1862
6799,1869
6800,1869
6801,1861
6802,1860
6803,1860
6804,1856
6805,1850
6806,1851
6807,1847
6808,1850
6809,1845
6810,1849
6811,1857
6812,1861
6813,1863
6814,1862
6815,1865
6816,1859
6817,1862
6818,1860
6819,1859
6820,1857
6821,1856
6822,1863
6823,1861
6824,1857
6825,1855
6826,1856
6827,1856
6828,1858
6829,1862
6830,1865
6831,1863
6832,1867
6833,1865
6834,1867
6835,1856
6836,1855
6837,1857
6838,1854
6839,1850
6840,1845
6841,1853
6842,1854
6843,1857
6844,1856
6845,1856
6846,1862
6847,1863
6848,1863
6849,1866
6850,1867
6851,1866
6852,1859
6853,1861
6854,1857
6855,1857
6856,1856
6857,1852
6858,1854
6859,1853
6860,1855
6861,1855
6862,1856
6863,1862
6864,1870
6865,1867
6866,1861
6867,1862
6868,1857
6869,1867
6870,1876
6871,1887
6872,1853
6873,1833
6874,1841
6875,1844
6876,1851
6877,1854
6878,1857
6879,1861
6880,1862
6881,1863
6882,1866
6883,1863
6884,1866
6885,1862
6886,1861
6887,1859
6888,1856
6889,1855
6890,1853
6891,1854
6892,1852
6893,1856
6894,1856
6895,1855
6896,1858
6897,1862
6898,1861
6899,1870
6900,1871
6901,1867
6902,1863
6903,1862
6904,1858
6905,1855
6906,1856
6907,1855
6908,1855
6909,1855
6910,1861
6911,1862
6912,1861
6913,1868
6914,1869
6915,1872
6916,1870
6917,1871
6918,1869
6919,1865
6920,1863
6921,1863
6922,1852
6923,1851
6924,1851
6925,1853
6926,1854
6927,1857
6928,1858
6929,1859
6930,1857
6931,1859
6932,1869
6933,1871
6934,1872
6935,1872
6936,1867
6937,1861
6938,1858
6939,1856
6940,1855
6941,1855
6942,1853
6943,1855
6944,1856
6945,1859
6946,1865
6947,1865
6948,1865
6949,1866
6950,1870
6951,1867
6952,1861
6953,1857
6954,1856
6955,1847
6956,1847
6957,1849
6958,1847
6959,1845
6960,1856
6961,1857
6962,1859
6963,1866
6964,1863
6965,1869
6966,1869
6967,1871
6968,1863
6969,1863
6970,1860
6971,1856
6972,1855
6973,1859
6974,1856
6975,1855
6976,1855
6977,1862
6978,1865
6979,1864
6980,1867
6981,1867
6982,1869
6983,1866
6984,1867
6985,1857
6986,1857
6987,1855
6988,1852
6989,1857
6990,1857
6991,1856
6992,1855
6993,1858
6994,1862
6995,1859
6996,1867
6997,1867
6998,1867
6999,1867
7000,1870
7001,1863
7002,1858
7003,1858
7004,1856
7005,1856
7006,1856
7007,1855
7008,1856
7009,1857
7010,1858
7011,1858
7012,1858
7013,1867
7014,1868
7015,1863
7016,1858
7017,1862
7018,1857
7019,1856
7020,1854
7021,1858
7022,1858
7023,1860
7024,1856
7025,1855
7026,1856
7027,1858
7028,1860
7029,1863
7030,1867
7031,1866
7032,1868
7033,1867
7034,1863
7035,1858
7036,1859
7037,1857
7038,1856
7039,1856
7040,1858
7041,1859
7042,1857
7043,1860
7044,1859
7045,1856
7046,1861
7047,1861
7048,1859
7049,1865
7050,1871
7051,1869
7052,1863
7053,1858
7054,1858
7055,1856
7056,1858
7057,1856
7058,1856
7059,1856
7060,1859
7061,1861
7062,1862
7063,1867
7064,1867
7065,1870
7066,1869
7067,1868
7068,1865
7069,1862
7070,1861
7071,1856
7072,1856
7073,1856
7074,1856
7075,1850
7076,1855
7077,1854
7078,1855
7079,1863
7080,1867
7081,1866
7082,1871
7083,1868
7084,1870
7085,1866
7086,1863
7087,1861
7088,1856
7089,1857
7090,1856
7091,1856
7092,1856
7093,1856
7094,1859
7095,1859
7096,1866
7097,1868
7098,1866
7099,1870
7100,1870
7101,1869
7102,1863
7103,1862
7104,1861
7105,1849
7106,1853
7107,1851
7108,1852
7109,1857
7110,1863
7111,1863
7112,1863
7113,1863
7114,1859
7115,1863
7116,1861
7117,1866
7118,1862
7119,1861
7120,1859
7121,1856
7122,1855
7123,1856
7124,1853
7125,1856
7126,1857
7127,1859
7128,1859
7129,1862
7130,1866
7131,1867
7132,1871
7133,1867
7134,1869
7135,1856
7136,1856
7137,1856
7138,1853
7139,1851
7140,1847
7141,1850
7142,1854
7143,1856
7144,1858
7145,1861
7146,1862
7147,1866
7148,1866
7149,1870
7150,1871
7151,1867
7152,1863
7153,1861
7154,1862
7155,1859
7156,1857
7157,1854
7158,1856
7159,1855
7160,1857
7161,1859
7162,1859
7163,1863
7164,1867
7165,1861
7166,1858
7167,1859
7168,1857
7169,1863
7170,1860
7171,1856
7172,1856
7173,1856
7174,1853
7175,1854
7176,1856
7177,1862
7178,1860
7179,1863
7180,1866
7181,1869
7182,1870
7183,1867
7184,1866
7185,1859
7186,1861
7187,1862
7188,1857
7189,1859
7190,1855
7191,1856
7192,1856
7193,1857
7194,1859
7195,1853
7196,1857
7197,1860
7198,1860
7199,1869
7200,1867
7201,1868
7202,1861
7203,1862
7204,1857
7205,1854
7206,1856
7207,1853
7208,1856
7209,1853
7210,1856
7211,1859
7212,1857
7213,1862
7214,1868
7215,1867
7216,1872
7217,1868
7218,1867
7219,1861
7220,1860
7221,1859
7222,1847
7223,1854
7224,1849
7225,1850
7226,1851
7227,1854
7228,1855
7229,1856
7230,1856
7231,1859
7232,1868
7233,1868
7234,1868
7235,1866
7236,1859
7237,1859
7238,1858
7239,1856
7240,1855
7241,1855
7242,1854
7243,1856
7244,1858
7245,1859
7246,1865
7247,1869
7248,1866
7249,1871
7250,1869
7251,1863
7252,1858
7253,1859
7254,1856
7255,1846
7256,1849
7257,1843
7258,1846
7259,1853
7260,1856
7261,1856
7262,1859
7263,1861
7264,1865
7265,1865
7266,1866
7267,1867
7268,1868
7269,1862
7270,1861
7271,1857
7272,1855
7273,1857
7274,1853
7275,1854
7276,1853
7277,1857
7278,1861
7279,1861
7280,1865
7281,1864
7282,1870
7283,1871
7284,1869
7285,1858
7286,1856
7287,1857
7288,1853
7289,1855
7290,1853
7291,1856
7292,1854
7293,1856
7294,1857
7295,1858
7296,1867
7297,1866
7298,1863
7299,1867
7300,1866
7301,1866
7302,1859
7303,1861
7304,1863
7305,1858
7306,1856
7307,1850
7308,1853
7309,1856
7310,1859
7311,1858
7312,1860
7313,1866
7314,1867
7315,1859
7316,1857
7317,1861
7318,1859
7319,1856
7320,1856
7321,1855
7322,1854
7323,1856
7324,1850
7325,1853
7326,1852
7327,1857
7328,1858
7329,1862
7330,1865
7331,1869
7332,1871
7333,1865
7334,1867
7335,1866
7336,1867
7337,1862
7338,1857
7339,1853
7340,1853
7341,1854
7342,1850
7343,1855
7344,1856
7345,1854
7346,1857
7347,1859
7348,1860
7349,1865
7350,1862
7351,1869
7352,1865
7353,1862
7354,1858
7355,1855
7356,1855
7357,1853
7358,1851
7359,1851
7360,1859
7361,1857
7362,1858
7363,1862
7364,1863
7365,1865
7366,1866
7367,1867
7368,1869
7369,1867
7370,1867
7371,1860
7372,1855
7373,1857
7374,1855
7375,1845
7376,1852
7377,1854
7378,1854
7379,1856
7380,1856
7381,1859
7382,1871
7383,1869
7384,1871
7385,1867
7386,1863
7387,1859
7388,1856
7389,1853
7390,1851
7391,1855
7392,1855
7393,1855
7394,1857
7395,1859
7396,1866
7397,1867
7398,1867
7399,1869
7400,1869
7401,1865
7402,1861
7403,1861
7404,1859
7405,1847
7406,1847
7407,1846
7408,1849
7409,1855
7410,1857
7411,1857
7412,1859
7413,1866
7414,1870
7415,1871
7416,1872
7417,1871
7418,1867
7419,1863
7420,1863
7421,1858
7422,1857
7423,1856
7424,1853
7425,1851
7426,1852
7427,1856
7428,1858
7429,1857
7430,1861
7431,1863
7432,1867
7433,1867
7434,1867
7435,1858
7436,1857
7437,1856
7438,1851
7439,1848
7440,1847
7441,1849
7442,1851
7443,1855
7444,1854
7445,1857
7446,1862
7447,1863
7448,1867
7449,1873
7450,1877
7451,1871
7452,1860
7453,1862
7454,1859
7455,1854
7456,1854
7457,1850
7458,1853
7459,1856
7460,1861
7461,1861
7462,1862
7463,1867
7464,1871
7465,1863
7466,1865
7467,1869
7468,1863
7469,1870
7470,1861
7471,1856
7472,1852
7473,1853
7474,1851
7475,1847
7476,1852
7477,1856
7478,1857
7479,1859
7480,1859
7481,1863
7482,1871
7483,1870
7484,1869
7485,1863
7486,1863
7487,1862
7488,1858
7489,1855
7490,1853
7491,1855
7492,1853
7493,1857
7494,1857
7495,1855
7496,1856
7497,1857
7498,1859
7499,1869
7500,1871
7501,1871
7502,1865
7503,1861
7504,1859
7505,1856
7506,1855
7507,1851
7508,1854
7509,1853
7510,1856
7511,1856
7512,1858
7513,1863
7514,1867
7515,1870
7516,1869
7517,1869
7518,1872
7519,1861
7520,1859
7521,1856
7522,1850
7523,1851
7524,1847
7525,1845
7526,1845
7527,1851
7528,1853
7529,1857
7530,1860
7531,1868
7532,1871
7533,1863
7534,1863
7535,1859
7536,1861
7537,1861
7538,1856
7539,1856
7540,1861
7541,1858
7542,1856
7543,1857
7544,1858
7545,1861
7546,1865
7547,1869
7548,1865
7549,1870
7550,1872
7551,1871
7552,1863
7553,1859
7554,1858
7555,1847
7556,1847
7557,1843
7558,1847
7559,1843
7560,1851
7561,1857
7562,1856
7563,1863
7564,1867
7565,1869
7566,1868
7567,1867
7568,1862
7569,1861
7570,1861
7571,1857
7572,1857
7573,1859
7574,1856
7575,1852
7576,1856
7577,1857
7578,1857
7579,1860
7580,1865
7581,1865
7582,1870
7583,1867
7584,1872
7585,1863
7586,1862
7587,1861
7588,1855
7589,1856
7590,1853
7591,1851
7592,1851
7593,1854
7594,1855
7595,1857
7596,1860
7597,1861
7598,1863
7599,1866
7600,1867
7601,1866
7602,1861
7603,1857
7604,1858
7605,1856
7606,1855
7607,1846
7608,1847
7609,1851
7610,1856
7611,1858
7612,1859
7613,1865
7614,1870
7615,1865
7616,1865
7617,1866
7618,1860
7619,1861
7620,1861
7621,1860
7622,1857
7623,1855
7624,1851
7625,1847
7626,1851
7627,1854
7628,1856
7629,1857
7630,1499
7631,2461
7632,1955
7633,1917
7634,2074
7635,2222
7636,2315
7637,2331
7638,2125
7639,1897
7640,1699
7641,1519
7642,1584
7643,1657
7644,1635
7645,1535
7646,1520
7647,1597
7648,1707
7649,1805
7650,1884
7651,1905
7652,1904
7653,1894
7654,1890
7655,1909
7656,1934
7657,1931
7658,1918
7659,1904
7660,1876
7661,1836
7662,2448
7663,1946
7664,1806
7665,1968
7666,2182
7667,2334
7668,2339
7669,2064
7670,1863
7671,1554
7672,1606
7673,1695
7674,1557
7675,1423
7676,1431
7677,1567
7678,1727
7679,1840
7680,1905
7681,1935
7682,1946
7683,1939
7684,1948
7685,1968
7686,1979
7687,1979
7688,1947
7689,1902
7690,1837
7691,1779
7692,1741
7693,2087
7694,2021
7695,1767
7696,1947
7697,2275
7698,2438
7699,2439
7700,2155
7701,1891
7702,1635
7703,1686
7704,1491
7705,1314
7706,1319
7707,1431
7708,1626
7709,1784
7710,1872
7711,1910
7712,1929
7713,1936
7714,1939
7715,1962
7716,1971
7717,1969
7718,1946
7719,1901
7720,1833
7721,1783
7722,1757
7723,1751
7724,907
7725,2227
7726,1789
7727,1854
7728,2239
7729,2439
7730,2443
7731,2224
7732,1968
7733,1744
7734,1616
7735,1394
7736,1329
7737,1360
7738,1513
7739,1725
7740,1834
7741,1885
7742,1904
7743,1930
7744,1936
7745,1946
7746,1959
7747,1953
7748,1945
7749,1922
7750,1872
7751,1827
7752,1799
7753,1776
7754,1766
7755,1378
7756,2395
7757,1840
7758,1759
7759,2127
7760,2400
7761,2445
7762,2210
7763,1985
7764,1822
7765,1682
7766,1411
7767,1355
7768,1407
7769,1589
7770,1754
7771,1841
7772,1879
7773,1904
7774,1907
7775,1918
7776,1936
7777,1965
7778,1967
7779,1947
7780,1903
7781,1839
7782,1801
7783,1795
7784,1774
7785,1767
7786,1781
7787,2450
7788,1933
7789,1737
7790,2000
7791,2375
7792,2430
7793,2132
7794,1995
7795,1838
7796,1648
7797,1473
7798,1392
7799,1451
7800,1639
7801,1786
7802,1860
7803,1893
7804,1907
7805,1916
7806,1920
7807,1931
7808,1936
7809,1931
7810,1918
7811,1878
7812,1840
7813,1808
7814,1790
7815,1776
7816,1777
7817,1794
7818,2267
7819,2055
7820,1731
7821,1945
7822,2325
7823,2495
7824,2298
7825,1981
7826,1711
7827,1582
7828,1445
7829,1389
7830,1466
7831,1679
7832,1820
7833,1877
7834,1902
7835,1913
7836,1921
7837,1926
7838,1933
7839,1936
7840,1936
7841,1926
7842,1872
7843,1837
7844,1804
7845,1776
7846,1767
7847,1773
7848,1789
7849,1247
7850,2202
7851,1773
7852,1863
7853,2320
7854,2544
7855,2435
7856,2066
7857,1682
7858,1579
7859,1425
7860,1328
7861,1403
7862,1624
7863,1795
7864,1872
7865,1901
7866,1913
7867,1925
7868,1933
7869,1941
7870,1939
7871,1934
7872,1909
7873,1878
7874,1845
7875,1796
7876,1777
7877,1766
7878,1765
7879,1782
7880,1189
7881,2383
7882,1867
7883,1807
7884,2266
7885,2496
7886,2601
7887,2173
7888,1678
7889,1529
7890,1407
7891,1323
7892,1361
7893,1590
7894,1776
7895,1857
7896,1894
7897,1915
7898,1935
7899,1943
7900,1951
7901,1956
7902,1953
7903,1936
7904,1897
7905,1846
7906,1799
7907,1773
7908,1761
7909,1758
7910,1776
7911,1791
7912,2453
7913,1954
7914,1776
7915,2177
7916,2461
7917,2687
7918,2237
7919,1709
7920,1535
7921,1443
7922,1332
7923,1351
7924,1535
7925,1747
7926,1844
7927,1889
7928,1911
7929,1925
7930,1936
7931,1937
7932,1952
7933,1953
7934,1939
7935,1904
7936,1859
7937,1825
7938,1787
7939,1768
7940,1758
7941,1775
7942,1787
7943,2334
7944,2031
7945,1754
7946,2098
7947,2412
7948,2706
7949,2309
7950,1755
7951,1535
7952,1472
7953,1355
7954,1340
7955,1523
7956,1739
7957,1838
7958,1883
7959,1907
7960,1923
7961,1936
7962,1939
7963,1953
7964,1958
7965,1943
7966,1913
7967,1875
7968,1840
7969,1807
7970,1777
7971,1758
7972,1761
7973,1771
7974,1232
7975,2176
7976,1761
7977,1909
7978,2311
7979,2672
7980,2479
7981,1883
7982,1567
7983,1514
7984,1410
7985,1349
7986,1483
7987,1711
7988,1829
7989,1873
7990,1899
7991,1919
7992,1925
7993,1927
7994,1937
7995,1937
7996,1935
7997,1911
7998,1893
7999,1877
8000,1826
8001,1794
8002,1759
8003,1770
8004,1815
8005,1034
8006,2323
8007,1809
8008,1776
8009,2165
8010,2493
8011,2678
8012,2100
8013,1584
8014,1502
8015,1401
8016,1329
8017,1437
8018,1675
8019,1811
8020,1872
8021,1895
8022,1915
8023,1930
8024,1936
8025,1941
8026,1949
8027,1950
8028,1957
8029,1938
8030,1825
8031,1793
8032,1805
8033,1793
8034,1771
8035,1745
8036,1758
8037,2430
8038,1899
8039,1765
8040,2162
8041,2463
8042,2736
8043,2173
8044,1563
8045,1491
8046,1435
8047,1341
8048,1394
8049,1636
8050,1803
8051,1871
8052,1897
8053,1927
8054,1968
8055,1952
8056,1945
8057,1930
8058,1955
8059,1911
8060,1873
8061,1867
8062,1839
8063,1807
8064,1754
8065,1734
8066,1746
8067,1775
8068,2331
8069,2017
8070,1737
8071,2064
8072,2383
8073,2800
8074,2332
8075,1666
8076,1488
8077,1450
8078,1351
8079,1365
8080,1586
8081,1776
8082,1865
8083,1902
8084,1926
8085,1936
8086,1941
8087,1946
8088,1949
8089,1946
8090,1948
8091,1953
8092,1908
8093,1809
8094,1755
8095,1722
8096,1728
8097,1760
8098,1778
8099,1857
8100,2144
8101,1790
8102,1950
8103,2248
8104,2667
8105,2493
8106,1799
8107,1520
8108,1478
8109,1367
8110,1357
8111,1535
8112,1743
8113,1846
8114,1892
8115,1916
8116,1935
8117,1947
8118,1951
8119,1952
8120,1954
8121,1933
8122,1891
8123,1861
8124,1822
8125,1793
8126,1769
8127,1745
8128,1753
8129,1787
8130,875
8131,2250
8132,1778
8133,1851
8134,2253
8135,2678
8136,2658
8137,1892
8138,1488
8139,1476
8140,1387
8141,1343
8142,1488
8143,1712
8144,1829
8145,1882
8146,1911
8147,1933
8148,1946
8149,1970
8150,2008
8151,1991
8152,1919
8153,1901
8154,1863
8155,1815
8156,1779
8157,1750
8158,1741
8159,1751
8160,1774
8161,1667
8162,2423
8163,1909
8164,1804
8165,2160
8166,2416
8167,2711
8168,2163
8169,1599
8170,1521
8171,1439
8172,1347
8173,1430
8174,1650
8175,1791
8176,1857
8177,1897
8178,1918
8179,1931
8180,1942
8181,1947
8182,1968
8183,1961
8184,1920
8185,1881
8186,1847
8187,1809
8188,1789
8189,1813
8190,1840
8191,1772
8192,1721
8193,2399
8194,1916
8195,1686
8196,2038
8197,2352
8198,2807
8199,2346
8200,1629
8201,1488
8202,1446
8203,1360
8204,1413
8205,1630
8206,1779
8207,1857
8208,1889
8209,1910
8210,1932
8211,1942
8212,1946
8213,1968
8214,1984
8215,1967
8216,1946
8217,1858
8218,1742
8219,1723
8220,1739
8221,1745
8222,1765
8223,1777
8224,1872
8225,2103
8226,1731
8227,1966
8228,2311
8229,2789
8230,2448
8231,1755
8232,1502
8233,1478
8234,1380
8235,1375
8236,1569
8237,1755
8238,1844
8239,1879
8240,1904
8241,1919
8242,1935
8243,1937
8244,1943
8245,1937
8246,1936
8247,1904
8248,1866
8249,1833
8250,1792
8251,1761
8252,1776
8253,1904
8254,1935
8255,1737
8256,1712
8257,1759
8258,1806
8259,1832
8260,1846
8261,1858
8262,1867
8263,1877
8264,1887
8265,1889
8266,1893
8267,1891
8268,1886
8269,1883
8270,1876
8271,1874
8272,1872
8273,1874
8274,1867
8275,1849
8276,1847
8277,1856
8278,1857
8279,1861
8280,1866
8281,1868
8282,1872
8283,1869
8284,1872
8285,1871
8286,1862
8287,1863
8288,1858
8289,1858
8290,1860
8291,1851
8292,1846
8293,1853
8294,1854
8295,1857
8296,1862
8297,1865
8298,1866
8299,1866
8300,1865
8301,1870
8302,1872
8303,1863
8304,1854
8305,1850
8306,1847
8307,1841
8308,1845
8309,1855
8310,1858
8311,1862
8312,1856
8313,1863
8314,1866
8315,1866
8316,1870
8317,1871
8318,1869
8319,1856
8320,1856
8321,1855
8322,1853
8323,1854
8324,1851
8325,1854
8326,1855
8327,1865
8328,1865
8329,1856
8330,1861
8331,1863
8332,1869
8333,1871
8334,1863
8335,1856
8336,1854
8337,1850
8338,1853
8339,1845
8340,1849
8341,1851
8342,1847
8343,1856
8344,1858
8345,1861
8346,1863
8347,1868
8348,1866
8349,1872
8350,1870
8351,1875
8352,1876
8353,1862
8354,1855
8355,1854
8356,1855
8357,1856
8358,1855
8359,1855
8360,1854
8361,1856
8362,1857
8363,1863
8364,1859
8365,1862
8366,1861
8367,1862
8368,1865
8369,1864
8370,1860
8371,1856
8372,1856
8373,1856
8374,1851
8375,1849
8376,1849
8377,1862
8378,1872
8379,1857
8380,1856
8381,1863
8382,1870
8383,1868
8384,1868
8385,1862
8386,1863
8387,1861
8388,1854
8389,1856
8390,1855
8391,1855
8392,1850
8393,1855
8394,1853
8395,1854
8396,1857
8397,1858
8398,1860
8399,1870
8400,1872
8401,1869
8402,1866
8403,1862
8404,1859
8405,1856
8406,1856
8407,1850
8408,1851
8409,1851
8410,1855
8411,1856
8412,1856
8413,1860
8414,1865
8415,1867
8416,1866
8417,1865
8418,1863
8419,1859
8420,1861
8421,1857
8422,1850
8423,1847
8424,1843
8425,1840
8426,1840
8427,1841
8428,1846
8429,1850
8430,1856
8431,1863
8432,1881
8433,1881
8434,1874
8435,1871
8436,1870
8437,1867
8438,1859
8439,1856
8440,1856
8441,1855
8442,1856
8443,1858
8444,1858
8445,1858
8446,1867
8447,1867
8448,1867
8449,1870
8450,1871
8451,1869
8452,1862
8453,1863
8454,1856
8455,1853
8456,1849
8457,1847
8458,1848
8459,1850
8460,1853
8461,1852
8462,1854
8463,1846
8464,1850
8465,1857
8466,1868
8467,1877
8468,1879
8469,1876
8470,1871
8471,1859
8472,1853
8473,1851
8474,1847
8475,1845
8476,1846
8477,1856
8478,1859
8479,1861
8480,1861
8481,1863
8482,1866
8483,1863
8484,1858
8485,1856
8486,1856
8487,1855
8488,1852
8489,1856
8490,1854
8491,1851
8492,1850
8493,1853
8494,1855
8495,1857
8496,1862
8497,1869
8498,1863
8499,1870
8500,1863
8501,1867
8502,1860
8503,1861
8504,1861
8505,1853
8506,1853
8507,1851
8508,1854
8509,1855
8510,1856
8511,1856
8512,1856
8513,1862
8514,1860
8515,1859
8516,1857
8517,1859
8518,1859
8519,1861
8520,1859
8521,1857
8522,1852
8523,1858
8524,1856
8525,1858
8526,1865
8527,1865
8528,1866
8529,1869
8530,1870
8531,1871
8532,1872
8533,1872
8534,1871
8535,1867
8536,1862
8537,1863
8538,1857
8539,1854
8540,1853
8541,1855
8542,1854
8543,1855
8544,1853
8545,1854
8546,1859
8547,1859
8548,1857
8549,1862
8550,1860
8551,1859
8552,1855
8553,1857
8554,1856
8555,1855
8556,1853
8557,1847
8558,1851
8559,1850
8560,1853
8561,1856
8562,1855
8563,1862
8564,1861
8565,1868
8566,1867
8567,1869
8568,1863
8569,1861
8570,1862
8571,1856
8572,1855
8573,1855
8574,1843
8575,1843
8576,1849
8577,1853
8578,1853
8579,1862
8580,1863
8581,1866
8582,1870
8583,1863
8584,1867
8585,1861
8586,1863
8587,1858
8588,1853
8589,1853
8590,1852
8591,1853
8592,1853
8593,1855
8594,1859
8595,1861
8596,1865
8597,1869
8598,1869
8599,1872
8600,1872
8601,1867
8602,1863
8603,1861
8604,1852
8605,1847
8606,1849
8607,1843
8608,1846
8609,1850
8610,1853
8611,1855
8612,1856
8613,1861
8614,1866
8615,1863
8616,1863
8617,1863
8618,1867
8619,1856
8620,1869
8621,1860
8622,1856
8623,1857
8624,1851
8625,1850
8626,1853
8627,1855
8628,1856
8629,1859
8630,1863
8631,1866
8632,1864
8633,1861
8634,1856
8635,1855
8636,1854
8637,1855
8638,1851
8639,1856
8640,1855
8641,1851
8642,1845
8643,1856
8644,1856
8645,1856
8646,1862
8647,1865
8648,1867
8649,1869
8650,1865
8651,1863
8652,1856
8653,1858
8654,1859
8655,1856
8656,1856
8657,1853
8658,1854
8659,1852
8660,1856
8661,1856
8662,1856
8663,1865
8664,1862
8665,1860
8666,1860
8667,1863
8668,1862
8669,1865
8670,1861
8671,1859
8672,1858
8673,1856
8674,1856
8675,1850
8676,1854
8677,1856
8678,1857
8679,1861
8680,1867
8681,1863
8682,1870
8683,1867
8684,1869
8685,1865
8686,1861
8687,1862
8688,1856
8689,1854
8690,1855
8691,1855
8692,1852
8693,1855
8694,1853
8695,1855
8696,1858
8697,1859
8698,1859
8699,1869
8700,1871
8701,1870
8702,1866
8703,1857
8704,1858
8705,1855
8706,1855
8707,1853
8708,1855
8709,1853
8710,1854
8711,1856
8712,1857
8713,1862
8714,1863
8715,1868
8716,1869
8717,1866
8718,1858
8719,1861
8720,1861
8721,1857
8722,1850
8723,1853
8724,1843
8725,1845
8726,1845
8727,1847
8728,1850
8729,1851
8730,1854
8731,1857
8732,1871
8733,1869
8734,1872
8735,1867
8736,1863
8737,1859
8738,1856
8739,1856
8740,1855
8741,1852
8742,1850
8743,1854
8744,1859
8745,1860
8746,1866
8747,1866
8748,1870
8749,1870
8750,1871
8751,1863
8752,1858
8753,1855
8754,1849
8755,1851
8756,1851
8757,1846
8758,1851
8759,1856
8760,1856
8761,1856
8762,1856
8763,1861
8764,1861
8765,1862
8766,1867
8767,1870
8768,1872
8769,1871
8770,1869
8771,1859
8772,1855
8773,1855
8774,1853
8775,1854
8776,1853
8777,1857
8778,1861
8779,1862
8780,1861
8781,1863
8782,1870
8783,1865
8784,1861
8785,1859
8786,1855
8787,1856
8788,1851
8789,1853
8790,1853
8791,1853
8792,1853
8793,1853
8794,1856
8795,1858
8796,1865
8797,1866
8798,1866
8799,1871
8800,1871
8801,1870
8802,1862
8803,1861
8804,1859
8805,1856
8806,1855
8807,1853
8808,1854
8809,1853
8810,1857
8811,1857
8812,1859
8813,1863
8814,1858
8815,1856
8816,1862
8817,1858
8818,1857
8819,1861
8820,1859
8821,1859
8822,1858
8823,1858
8824,1854
8825,1853
8826,1854
8827,1856
8828,1856
8829,1860
8830,1861
8831,1862
8832,1869
8833,1865
8834,1868
8835,1866
8836,1863
8837,1860
8838,1856
8839,1854
8840,1853
8841,1853
8842,1854
8843,1854
8844,1852
8845,1854
8846,1857
8847,1861
8848,1859
8849,1867
8850,1865
8851,1861
8852,1855
8853,1861
8854,1858
8855,1856
8856,1853
8857,1853
8858,1854
8859,1855
8860,1857
8861,1856
8862,1861
8863,1865
8864,1866
8865,1867
8866,1867
8867,1871
8868,1866
8869,1865
8870,1862
8871,1860
8872,1856
8873,1856
8874,1847
8875,1850
8876,1845
8877,1853
8878,1852
8879,1855
8880,1859
8881,1860
8882,1863
8883,1870
8884,1874
8885,1872
8886,1867
8887,1866
8888,1858
8889,1856
8890,1856
8891,1854
8892,1851
8893,1855
8894,1858
8895,1859
8896,1869
8897,1871
8898,1869
8899,1872
8900,1869
8901,1869
8902,1865
8903,1860
8904,1851
8905,1846
8906,1846
8907,1842
8908,1846
8909,1855
8910,1856
8911,1855
8912,1855
8913,1861
8914,1863
8915,1866
8916,1859
8917,1869
8918,1862
8919,1862
8920,1862
8921,1857
8922,1856
8923,1856
8924,1854
8925,1856
8926,1856
8927,1858
8928,1858
8929,1861
8930,1867
8931,1863
8932,1869
8933,1866
8934,1859
8935,1857
8936,1858
8937,1857
8938,1853
8939,1847
8940,1850
8941,1850
8942,1854
8943,1857
8944,1859
8945,1861
8946,1866
8947,1869
8948,1870
8949,1872
8950,1871
8951,1868
8952,1863
8953,1863
8954,1858
8955,1857
8956,1856
8957,1853
8958,1854
8959,1855
8960,1856
8961,1858
8962,1858
8963,1865
8964,1861
8965,1859
8966,1861
8967,1862
8968,1858
8969,1861
8970,1861
8971,1856
8972,1856
8973,1853
8974,1849
8975,1851
8976,1856
8977,1857
8978,1856
8979,1860
8980,1867
8981,1869
8982,1869
8983,1863
8984,1866
8985,1861
8986,1859
8987,1859
8988,1863
8989,1861
8990,1856
8991,1856
8992,1856
8993,1855
8994,1853
8995,1854
8996,1857
8997,1857
8998,1863
8999,1870
9000,1872
9001,1872
9002,1863
9003,1865
9004,1861
9005,1856
9006,1857
9007,1855
9008,1856
9009,1854
9010,1856
9011,1859
9012,1857
9013,1866
9014,1867
9015,1867
9016,1871
9017,1870
9018,1861
9019,1862
9020,1859
9021,1858
9022,1851
9023,1847
9024,1843
9025,1845
9026,1847
9027,1850
9028,1854
9029,1859
9030,1863
9031,1868
9032,1871
9033,1870
9034,1872
9035,1864
9036,1860
9037,1857
9038,1855
9039,1853
9040,1857
9041,1855
9042,1852
9043,1856
9044,1858
9045,1861
9046,1862
9047,1866
9048,1871
9049,1870
9050,1870
9051,1869
9052,1865
9053,1859
9054,1853
9055,1849
9056,1847
9057,1843
9058,1850
9059,1847
9060,1849
9061,1851
9062,1853
9063,1862
9064,1867
9065,1867
9066,1869
9067,1869
9068,1866
9069,1861
9070,1859
9071,1857
9072,1855
9073,1857
9074,1854
9075,1856
9076,1856
9077,1859
9078,1863
9079,1866
9080,1870
9081,1868
9082,1870
9083,1867
9084,1857
9085,1857
9086,1856
9087,1858
9088,1854
9089,1846
9090,1856
9091,1854
9092,1856
9093,1856
9094,1858
9095,1861
9096,1869
9097,1867
9098,1867
9099,1870
9100,1872
9101,1871
9102,1862
9103,1861
9104,1858
9105,1856
9106,1855
9107,1847
9108,1853
9109,1850
9110,1856
9111,1857
9112,1857
9113,1863
9114,1865
9115,1863
9116,1861
9117,1867
9118,1861
9119,1860
9120,1855
9121,1852
9122,1850
9123,1851
9124,1851
9125,1851
9126,1858
9127,1866
9128,1868
9129,1865
9130,1865
9131,1870
9132,1871
9133,1867
9134,1870
9135,1865
9136,1861
9137,1859
9138,1856
9139,1856
9140,1856
9141,1854
9142,1853
9143,1855
9144,1853
9145,1853
9146,1858
9147,1858
9148,1859
9149,1861
9150,1861
9151,1863
9152,1866
9153,1863
9154,1858
9155,1854
9156,1855
9157,1852
9158,1852
9159,1853
9160,1857
9161,1860
9162,1862
9163,1866
9164,1870
9165,1868
9166,1867
9167,1868
9168,1865
9169,1863
9170,1859
9171,1855
9172,1856
9173,1856
9174,1845
9175,1846
9176,1846
9177,1853
9178,1856
9179,1861
9180,1867
9181,1867
9182,1870
9183,1866
9184,1870
9185,1863
9186,1861
9187,1861
9188,1856
9189,1853
9190,1854
9191,1850
9192,1853
9193,1856
9194,1856
9195,1860
9196,1863
9197,1866
9198,1869
9199,1872
9200,1871
9201,1869
9202,1862
9203,1863
9204,1855
9205,1852
9206,1846
9207,1845
9208,1847
9209,1855
9210,1857
9211,1860
9212,1859
9213,1865
9214,1866
9215,1863
9216,1866
9217,1866
9218,1858
9219,1861
9220,1861
9221,1857
9222,1853
9223,1855
9224,1851
9225,1850
9226,1849
9227,1856
9228,1853
9229,1867
9230,1871
9231,1872
9232,1872
9233,1870
9234,1863
9235,1859
9236,1856
9237,1855
9238,1847
9239,1847
9240,1850
9241,1849
9242,1856
9243,1861
9244,1861
9245,1861
9246,1863
9247,1868
9248,1867
9249,1871
9250,1869
9251,1867
9252,1861
9253,1859
9254,1714
9255,2495
9256,1948
9257,1869
9258,1986
9259,2142
9260,2260
9261,2262
9262,2084
9263,1925
9264,1711
9265,1535
9266,1674
9267,1742
9268,1697
9269,1610
9270,1584
9271,1643
9272,1731
9273,1810
9274,1863
9275,1899
9276,1904
9277,1903
9278,1895
9279,1915
9280,1939
9281,1937
9282,1941
9283,1934
9284,1898
9285,1840
9286,2382
9287,1953
9288,1729
9289,1840
9290,2066
9291,2245
9292,2217
9293,1979
9294,1831
9295,1611
9296,1655
9297,1639
9298,1616
9299,1587
9300,1575
9301,1651
9302,1771
9303,1862
9304,1917
9305,1934
9306,1935
9307,1926
9308,1924
9309,1947
9310,1967
9311,1951
9312,1935
9313,1911
9314,1862
9315,1805
9316,1753
9317,1715
9318,2047
9319,1739
9320,1836
9321,2105
9322,2311
9323,2251
9324,1961
9325,1858
9326,1727
9327,1643
9328,1572
9329,1529
9330,1492
9331,1568
9332,1719
9333,1837
9334,1902
9335,1927
9336,1940
9337,1938
9338,1936
9339,1955
9340,1966
9341,1958
9342,1934
9343,1888
9344,1835
9345,1782
9346,1744
9347,1734
9348,934
9349,2227
9350,1777
9351,1842
9352,2237
9353,2435
9354,2379
9355,2079
9356,1759
9357,1600
9358,1601
9359,1525
9360,1465
9361,1470
9362,1615
9363,1776
9364,1868
9365,1913
9366,1937
9367,1947
9368,1947
9369,1962
9370,1973
9371,1971
9372,1951
9373,1906
9374,1840
9375,1791
9376,1749
9377,1733
9378,1734
9379,1326
9380,2402
9381,1837
9382,1785
9383,2195
9384,2458
9385,2448
9386,2126
9387,1763
9388,1642
9389,1617
9390,1520
9391,1431
9392,1467
9393,1625
9394,1773
9395,1862
9396,1904
9397,1929
9398,1938
9399,1953
9400,1962
9401,1970
9402,1968
9403,1954
9404,1915
9405,1852
9406,1801
9407,1759
9408,1738
9409,1735
9410,1756
9411,2473
9412,1933
9413,1743
9414,2027
9415,2421
9416,2451
9417,2128
9418,1934
9419,1730
9420,1590
9421,1505
9422,1421
9423,1477
9424,1648
9425,1789
9426,1856
9427,1897
9428,1918
9429,1934
9430,1950
9431,1961
9432,1968
9433,1966
9434,1949
9435,1915
9436,1867
9437,1808
9438,1769
9439,1741
9440,1741
9441,1759
9442,2189
9443,2062
9444,1746
9445,2001
9446,2450
9447,2559
9448,2287
9449,1814
9450,1610
9451,1597
9452,1469
9453,1381
9454,1450
9455,1647
9456,1794
9457,1857
9458,1889
9459,1905
9460,1927
9461,1939
9462,1953
9463,1969
9464,1968
9465,1943
9466,1904
9467,1856
9468,1803
9469,1759
9470,1742
9471,1744
9472,1764
9473,964
9474,2240
9475,1786
9476,1910
9477,2427
9478,2614
9479,2486
9480,1892
9481,1557
9482,1535
9483,1426
9484,1338
9485,1411
9486,1626
9487,1792
9488,1867
9489,1893
9490,1907
9491,1921
9492,1930
9493,1948
9494,1959
9495,1954
9496,1941
9497,1911
9498,1868
9499,1822
9500,1786
9501,1763
9502,1754
9503,1776
9504,1282
9505,2399
9506,1861
9507,1838
9508,2349
9509,2594
9510,2559
9511,1975
9512,1521
9513,1467
9514,1421
9515,1360
9516,1415
9517,1621
9518,1792
9519,1872
9520,1899
9521,1922
9522,1931
9523,1946
9524,1940
9525,1943
9526,1951
9527,1951
9528,1919
9529,1873
9530,1811
9531,1776
9532,1750
9533,1744
9534,1755
9535,1776
9536,2471
9537,1935
9538,1809
9539,2288
9540,2559
9541,2645
9542,2023
9543,1507
9544,1433
9545,1424
9546,1368
9547,1415
9548,1612
9549,1792
9550,1878
9551,1915
9552,1931
9553,1942
9554,1948
9555,1951
9556,1969
9557,1993
9558,1987
9559,1963
9560,1872
9561,1763
9562,1731
9563,1726
9564,1727
9565,1754
9566,1776
9567,2215
9568,2070
9569,1776
9570,2131
9571,2494
9572,2736
9573,2254
9574,1584
9575,1422
9576,1441
9577,1392
9578,1387
9579,1555
9580,1749
9581,1857
9582,1904
9583,1921
9584,1939
9585,1950
9586,1952
9587,1961
9588,1955
9589,1945
9590,1917
9591,1872
9592,1824
9593,1783
9594,1750
9595,1744
9596,1764
9597,1780
9598,1200
9599,2224
9600,1808
9601,2031
9602,2457
9603,2745
9604,2365
9605,1664
9606,1408
9607,1447
9608,1407
9609,1363
9610,1504
9611,1714
9612,1835
9613,1891
9614,1920
9615,1938
9616,1951
9617,1953
9618,1966
9619,1959
9620,1966
9621,1921
9622,1854
9623,1811
9624,1776
9625,1755
9626,1736
9627,1749
9628,1770
9629,1097
9630,2366
9631,1854
9632,1885
9633,2383
9634,2685
9635,2559
9636,1845
9637,1427
9638,1436
9639,1418
9640,1354
9641,1453
9642,1662
9643,1808
9644,1881
9645,1910
9646,1933
9647,1949
9648,1957
9649,1963
9650,1981
9651,1993
9652,1983
9653,1920
9654,1815
9655,1777
9656,1728
9657,1710
9658,1735
9659,1761
9660,1766
9661,2455
9662,1904
9663,1823
9664,2304
9665,2624
9666,2704
9667,1984
9668,1455
9669,1427
9670,1431
9671,1353
9672,1424
9673,1641
9674,1791
9675,1871
9676,1904
9677,1926
9678,1940
9679,1952
9680,1958
9681,1957
9682,1950
9683,1933
9684,1895
9685,1872
9686,1846
9687,1807
9688,1798
9689,1737
9690,1737
9691,1776
9692,2340
9693,2010
9694,1751
9695,2139
9696,2493
9697,2811
9698,2243
9699,1535
9700,1392
9701,1451
9702,1361
9703,1387
9704,1585
9705,1758
9706,1851
9707,1891
9708,1919
9709,1933
9710,1943
9711,1953
9712,1954
9713,1959
9714,1942
9715,1918
9716,1875
9717,1831
9718,1790
9719,1759
9720,1753
9721,1767
9722,1776
9723,1519
9724,2180
9725,1794
9726,1999
9727,2381
9728,2723
9729,2398
9730,1666
9731,1393
9732,1483
9733,1403
9734,1376
9735,1535
9736,1742
9737,1847
9738,1889
9739,1919
9740,1968
9741,1982
9742,1951
9743,1982
9744,2047
9745,1958
9746,1846
9747,1843
9748,1837
9749,1782
9750,1757
9751,1738
9752,1744
9753,1765
9754,919
9755,2311
9756,1806
9757,1869
9758,2316
9759,2683
9760,2591
9761,1815
9762,1417
9763,1439
9764,1418
9765,1360
9766,1495
9767,1711
9768,1834
9769,1887
9770,1914
9771,1966
9772,2011
9773,1970
9774,1922
9775,1902
9776,1886
9777,1879
9778,1855
9779,1855
9780,1824
9781,1777
9782,1764
9783,1776
9784,1788
9785,1498
9786,2428
9787,1871
9788,1811
9789,2282
9790,2626
9791,2683
9792,1911
9793,1402
9794,1466
9795,1447
9796,1363
9797,1463
9798,1680
9799,1813
9800,1872
9801,1897
9802,1908
9803,1931
9804,1942
9805,1941
9806,1958
9807,1958
9808,1943
9809,1890
9810,1824
9811,1794
9812,1776
9813,1766
9814,1773
9815,1778
9816,1791
9817,2455
9818,1959
9819,1763
9820,2219
9821,2523
9822,2739
9823,2119
9824,1464
9825,1437
9826,1457
9827,1360
9828,1415
9829,1630
9830,1790
9831,1913
9832,1985
9833,1934
9834,1914
9835,1954
9836,1936
9837,1895
9838,1910
9839,1918
9840,1887
9841,1837
9842,1792
9843,1787
9844,1775
9845,1762
9846,1776
9847,1792
9848,1863
9849,2128
9850,1753
9851,2042
9852,2434
9853,2773
9854,2316
9855,1676
9856,1424
9857,1443
9858,1375
9859,1374
9860,1559
9861,1734
9862,1834
9863,1885
9864,1911
9865,1933
9866,1951
9867,1971
9868,2014
9869,2031
9870,1966
9871,1905
9872,1863
9873,1810
9874,1773
9875,1750
9876,1741
9877,1747
9878,1775
9879,1799
9880,1797
9881,1812
9882,1842
9883,1878
9884,1979
9885,1986
9886,1831
9887,1788
9888,1821
9889,1846
9890,1858
9891,1862
9892,1871
9893,1873
9894,1872
9895,1873
9896,1873
9897,1873
9898,1873
9899,1881
9900,1874
9901,1875
9902,1874
9903,1866
9904,1865
9905,1857
9906,1856
9907,1861
9908,1856
9909,1855
9910,1858
9911,1857
9912,1857
9913,1859
9914,1867
9915,1867
9916,1873
9917,1867
9918,1858
9919,1860
9920,1857
9921,1858
9922,1869
9923,1873
9924,1847
9925,1840
9926,1843
9927,1865
9928,1939
9929,1959
9930,1814
9931,1782
9932,1811
9933,1830
9934,1850
9935,1869
9936,1890
9937,1875
9938,1839
9939,1841
9940,1833
9941,1838
9942,1846
9943,1840
9944,1842
9945,1855
9946,1863
9947,1869
9948,1867
9949,1872
9950,1889
9951,1940
9952,1927
9953,1862
9954,1812
9955,1808
9956,1828
9957,1837
9958,1854
9959,1871
9960,1845
9961,1853
9962,1869
9963,1856
9964,1862
9965,1878
9966,1958
9967,1970
9968,1840
9969,1826
9970,1847
9971,1831
9972,1808
9973,1822
9974,1830
9975,1842
9976,1850
9977,1857
9978,1858
9979,1872
9980,1948
9981,1987
9982,1881
9983,1830
9984,1843
9985,1829
9986,1809
9987,1835
9988,1846
9989,1840
9990,1847
9991,1855
9992,1838
9993,1840
9994,1852
9995,1861
9996,1876
9997,1933
9998,1957
9999,1866
10000,1837
10001,1853
10002,1841
10003,1817
10004,1823
10005,1833
10006,1839
10007,1841
10008,1861
10009,1855
10010,1853
10011,1853
10012,1855
10013,1863
10014,1858
10015,1857
10016,1858
10017,1859
10018,1856
10019,1867
10020,1872
10021,1889
10022,1872
10023,1843
10024,1837
10025,1840
10026,1840
10027,1873
10028,1939
10029,1907
10030,1811
10031,1810
10032,1831
10033,1842
10034,1851
10035,1854
10036,1854
10037,1855
10038,1854
10039,1853
10040,1855
10041,1850
10042,1854
10043,1855
10044,1854
10045,1855
10046,1855
10047,1885
10048,1951
10049,1919
10050,1815
10051,1808
10052,1847
10053,1874
10054,1855
10055,1838
10056,1839
10057,1841
10058,1846
10059,1859
10060,1872
10061,1856
10062,1851
10063,1857
10064,1857
10065,1858
10066,1861
10067,1865
10068,1861
10069,1863
10070,1863
10071,1861
10072,1859
10073,1856
10074,1844
10075,1850
10076,1845
10077,1853
10078,1853
10079,1858
10080,1863
10081,1867
10082,1866
10083,1865
10084,1867
10085,1859
10086,1858
10087,1856
10088,1853
10089,1854
10090,1861
10091,1902
10092,1931
10093,1862
10094,1818
10095,1835
10096,1845
10097,1854
10098,1857
10099,1863
10100,1861
10101,1863
10102,1857
10103,1856
10104,1846
10105,1842
10106,1841
10107,1842
10108,1847
10109,1855
10110,1855
10111,1855
10112,1858
10113,1859
10114,1860
10115,1861
10116,1866
10117,1863
10118,1856
10119,1858
10120,1856
10121,1856
10122,1853
10123,1853
10124,1850
10125,1853
10126,1847
10127,1855
10128,1856
10129,1857
10130,1859
10131,1862
10132,1866
10133,1869
10134,1866
10135,1858
10136,1856
10137,1856
10138,1851
10139,1851
10140,1853
10141,1856
10142,1855
10143,1856
10144,1863
10145,1861
10146,1865
10147,1865
10148,1867
10149,1869
10150,1867
10151,1869
10152,1866
10153,1863
10154,1862
10155,1859
10156,1857
10157,1857
10158,1858
10159,1858
10160,1859
10161,1860
10162,1862
10163,1866
10164,1859
10165,1858
10166,1863
10167,1861
10168,1863
10169,1855
10170,1853
10171,1851
10172,1855
10173,1855
10174,1853
10175,1854
10176,1853
10177,1857
10178,1859
10179,1859
10180,1864
10181,1867
10182,1868
10183,1861
10184,1863
10185,1858
10186,1871
10187,1890
10188,1880
10189,1840
10190,1837
10191,1841
10192,1845
10193,1846
10194,1851
10195,1854
10196,1854
10197,1856
10198,1858
10199,1868
10200,1866
10201,1867
10202,1859
10203,1856
10204,1857
10205,1857
10206,1854
10207,1853
10208,1854
10209,1855
10210,1858
10211,1856
10212,1858
10213,1866
10214,1866
10215,1866
10216,1869
10217,1867
10218,1861
10219,1862
10220,1858
10221,1857
10222,1849
10223,1851
10224,1845
10225,1849
10226,1847
10227,1851
10228,1855
10229,1856
10230,1857
10231,1859
10232,1867
10233,1868
10234,1865
10235,1861
10236,1861
10237,1861
10238,1856
10239,1857
10240,1857
10241,1856
10242,1853
10243,1857
10244,1858
10245,1858
10246,1861
10247,1863
10248,1869
10249,1872
10250,1870
10251,1868
10252,1860
10253,1859
10254,1855
10255,1849
10256,1847
10257,1846
10258,1849
10259,1854
10260,1857
10261,1859
10262,1859
10263,1868
10264,1867
10265,1863
10266,1867
10267,1866
10268,1865
10269,1857
10270,1857
10271,1855
10272,1851
10273,1851
10274,1852
10275,1851
10276,1853
10277,1865
10278,1865
10279,1863
10280,1868
10281,1869
10282,1871
10283,1866
10284,1858
10285,1856
10286,1856
10287,1856
10288,1852
10289,1855
10290,1856
10291,1855
10292,1850
10293,1855
10294,1859
10295,1859
10296,1867
10297,1866
10298,1866
10299,1870
10300,1866
10301,1867
10302,1866
10303,1859
10304,1859
10305,1857
10306,1855
10307,1854
10308,1856
10309,1855
10310,1857
10311,1859
10312,1860
10313,1863
10314,1859
10315,1857
10316,1859
10317,1861
10318,1860
10319,1860
10320,1861
10321,1856
10322,1853
10323,1854
10324,1851
10325,1856
10326,1854
10327,1859
10328,1859
10329,1859
10330,1866
10331,1867
10332,1869
10333,1869
10334,1867
10335,1861
10336,1862
10337,1857
10338,1854
10339,1854
10340,1856
10341,1853
10342,1855
10343,1856
10344,1856
10345,1854
10346,1857
10347,1858
10348,1858
10349,1863
10350,1857
10351,1859
10352,1862
10353,1861
10354,1861
10355,1855
10356,1856
10357,1853
10358,1854
10359,1856
10360,1857
10361,1859
10362,1862
10363,1869
10364,1866
10365,1866
10366,1869
10367,1868
10368,1862
10369,1857
10370,1859
10371,1857
10372,1855
10373,1856
10374,1845
10375,1847
10376,1849
10377,1853
10378,1855
10379,1863
10380,1863
10381,1870
10382,1869
10383,1866
10384,1868
10385,1861
10386,1859
10387,1858
10388,1856
10389,1856
10390,1856
10391,1854
10392,1856
10393,1855
10394,1857
10395,1861
10396,1862
10397,1865
10398,1867
10399,1872
10400,1867
10401,1866
10402,1862
10403,1861
10404,1857
10405,1852
10406,1851
10407,1851
10408,1849
10409,1856
10410,1856
10411,1857
10412,1858
10413,1862
10414,1867
10415,1863
10416,1866
10417,1868
10418,1857
10419,1861
10420,1859
10421,1857
10422,1857
10423,1856
10424,1853
10425,1856
10426,1854
10427,1858
10428,1859
10429,1858
10430,1866
10431,1861
10432,1865
10433,1865
10434,1861
10435,1863
10436,1858
10437,1855
10438,1852
10439,1847
10440,1849
10441,1849
10442,1853
10443,1855
10444,1859
10445,1859
10446,1862
10447,1866
10448,1867
10449,1871
10450,1867
10451,1867
10452,1863
10453,1859
10454,1857
10455,1855
10456,1854
10457,1854
10458,1854
10459,1856
10460,1856
10461,1860
10462,1862
10463,1866
10464,1858
10465,1859
10466,1861
10467,1861
10468,1859
10469,1863
10470,1860
10471,1858
10472,1855
10473,1855
10474,1853
10475,1853
10476,1855
10477,1857
10478,1859
10479,1859
10480,1866
10481,1867
10482,1871
10483,1866
10484,1863
10485,1863
10486,1859
10487,1859
10488,1856
10489,1853
10490,1857
10491,1856
10492,1855
10493,1856
10494,1853
10495,1857
10496,1858
10497,1857
10498,1862
10499,1870
10500,1869
10501,1867
10502,1861
10503,1862
10504,1861
10505,1856
10506,1853
10507,1853
10508,1854
10509,1853
10510,1855
10511,1857
10512,1857
10513,1863
10514,1868
10515,1865
10516,1871
10517,1868
10518,1857
10519,1861
10520,1858
10521,1855
10522,1846
10523,1847
10524,1843
10525,1847
10526,1847
10527,1852
10528,1855
10529,1856
10530,1858
10531,1862
10532,1863
10533,1869
10534,1871
10535,1866
10536,1861
10537,1857
10538,1854
10539,1852
10540,1853
10541,1849
10542,1850
10543,1855
10544,1863
10545,1865
10546,1865
10547,1868
10548,1869
10549,1872
10550,1871
10551,1869
10552,1863
10553,1862
10554,1856
10555,1851
10556,1850
10557,1849
10558,1849
10559,1855
10560,1854
10561,1857
10562,1859
10563,1863
10564,1870
10565,1867
10566,1869
10567,1871
10568,1870
10569,1862
10570,1862
10571,1857
10572,1856
10573,1856
10574,1850
10575,1854
10576,1850
10577,1856
10578,1856
10579,1857
10580,1863
10581,1866
10582,1870
10583,1869
10584,1862
10585,1857
10586,1856
10587,1855
10588,1851
10589,1857
10590,1857
10591,1853
10592,1853
10593,1853
10594,1856
10595,1860
10596,1861
10597,1865
10598,1866
10599,1871
10600,1871
10601,1869
10602,1866
10603,1862
10604,1858
10605,1856
10606,1856
10607,1854
10608,1856
10609,1855
10610,1859
10611,1858
10612,1857
10613,1867
10614,1859
10615,1859
10616,1863
10617,1871
10618,1861
10619,1860
10620,1856
10621,1855
10622,1855
10623,1855
10624,1850
10625,1855
10626,1849
10627,1855
10628,1856
10629,1856
10630,1862
10631,1863
10632,1869
10633,1867
10634,1872
10635,1868
10636,1861
10637,1864
10638,1861
10639,1856
10640,1856
10641,1856
10642,1856
10643,1855
10644,1854
10645,1852
10646,1855
10647,1855
10648,1856
10649,1861
10650,1858
10651,1861
10652,1866
10653,1862
10654,1863
10655,1857
10656,1858
10657,1856
10658,1857
10659,1855
10660,1856
10661,1859
10662,1862
10663,1867
10664,1866
10665,1867
10666,1869
10667,1868
10668,1871
10669,1863
10670,1862
10671,1859
10672,1856
10673,1856
10674,1843
10675,1847
10676,1846
10677,1851
10678,1855
10679,1861
10680,1870
10681,1869
10682,1869
10683,1870
10684,1872
10685,1865
10686,1863
10687,1859
10688,1851
10689,1853
10690,1856
10691,1855
10692,1856
10693,1856
10694,1861
10695,1861
10696,1866
10697,1867
10698,1867
10699,1872
10700,1869
10701,1869
10702,1867
10703,1863
10704,1855
10705,1853
10706,1854
10707,1850
10708,1846
10709,1855
10710,1856
10711,1857
10712,1858
10713,1862
10714,1862
10715,1867
10716,1869
10717,1866
10718,1857
10719,1863
10720,1859
10721,1859
10722,1856
10723,1856
10724,1853
10725,1856
10726,1856
10727,1857
10728,1857
10729,1858
10730,1859
10731,1862
10732,1863
10733,1862
10734,1858
10735,1862
10736,1863
10737,1860
10738,1853
10739,1849
10740,1849
10741,1850
10742,1855
10743,1856
10744,1863
10745,1860
10746,1863
10747,1863
10748,1867
10749,1872
10750,1870
10751,1867
10752,1862
10753,1858
10754,1858
10755,1853
10756,1853
10757,1856
10758,1856
10759,1853
10760,1856
10761,1859
10762,1861
10763,1866
10764,1863
10765,1859
10766,1862
10767,1861
10768,1861
10769,1861
10770,1859
10771,1856
10772,1850
10773,1854
10774,1851
10775,1854
10776,1856
10777,1858
10778,1862
10779,1863
10780,1868
10781,1869
10782,1869
10783,1867
10784,1871
10785,1867
10786,1859
10787,1858
10788,1857
10789,1857
10790,1856
10791,1855
10792,1855
10793,1856
10794,1851
10795,1853
10796,1856
10797,1859
10798,1863
10799,1872
10800,1868
10801,1871
10802,1863
10803,1861
10804,1857
10805,1854
10806,1852
10807,1855
10808,1855
10809,1854
10810,1857
10811,1858
10812,1860
10813,1863
10814,1866
10815,1863
10816,1869
10817,1863
10818,1855
10819,1860
10820,1858
10821,1858
10822,1849
10823,1850
10824,1846
10825,1851
10826,1846
10827,1849
10828,1851
10829,1852
10830,1856
10831,1856
10832,1863
10833,1865
10834,1863
10835,1866
10836,1863
10837,1866
10838,1857
10839,1856
10840,1855
10841,1853
10842,1854
10843,1855
10844,1858
10845,1862
10846,1862
10847,1867
10848,1869
10849,1871
10850,1871
10851,1872
10852,1869
10853,1871
10854,1860
10855,1858
10856,1853
10857,1851
10858,1845
10859,1850
10860,1851
10861,1857
10862,1861
10863,1863
10864,1863
10865,1863
10866,1868
10867,1870
10868,1869
10869,1865
10870,1863
10871,1861
10872,1856
10873,1856
10874,1853
10875,1858
10876,1846
10877,1845
10878,1733
10879,2521
10880,1959
10881,1899
10882,2035
10883,2196
10884,2305
10885,2326
10886,2121
10887,1902
10888,1664
10889,1535
10890,1680
10891,1692
10892,1597
10893,1535
10894,1563
10895,1634
10896,1733
10897,1818
10898,1885
10899,1907
10900,1917
10901,1917
10902,1904
10903,1915
10904,1931
10905,1931
10906,1936
10907,1927
10908,1878
10909,1819
10910,2445
10911,1930
10912,1739
10913,1917
10914,2163
10915,2314
10916,2321
10917,2030
10918,1774
10919,1505
10920,1670
10921,1609
10922,1507
10923,1487
10924,1505
10925,1616
10926,1746
10927,1853
10928,1914
10929,1938
10930,1952
10931,1957
10932,1957
10933,1977
10934,1989
10935,1979
10936,1939
10937,1888
10938,1826
10939,1767
10940,1726
10941,1954
10942,2031
10943,1712
10944,1900
10945,2289
10946,2461
10947,2450
10948,2178
10949,1857
10950,1581
10951,1535
10952,1363
10953,1318
10954,1362
10955,1491
10956,1687
10957,1829
10958,1904
10959,1932
10960,1942
10961,1949
10962,1951
10963,1972
10964,1984
10965,1978
10966,1954
10967,1905
10968,1840
10969,1781
10970,1744
10971,1731
10972,944
10973,2238
10974,1758
10975,1865
10976,2301
10977,2509
10978,2498
10979,2255
10980,1829
10981,1622
10982,1475
10983,1341
10984,1346
10985,1401
10986,1563
10987,1749
10988,1858
10989,1909
10990,1930
10991,1934
10992,1936
10993,1958
10994,1983
10995,1984
10996,1965
10997,1923
10998,1847
10999,1801
11000,1765
11001,1750
11002,1752
11003,1202
11004,2374
11005,1808
11006,1790
11007,2231
11008,2481
11009,2507
11010,2230
11011,1853
11012,1711
11013,1495
11014,1349
11015,1327
11016,1406
11017,1606
11018,1770
11019,1869
11020,1907
11021,1923
11022,1934
11023,1938
11024,1954
11025,1971
11026,1968
11027,1937
11028,1895
11029,1846
11030,1830
11031,1802
11032,1774
11033,1760
11034,1770
11035,2487
11036,1907
11037,1748
11038,2129
11039,2467
11040,2545
11041,2236
11042,1857
11043,1677
11044,1497
11045,1375
11046,1328
11047,1412
11048,1631
11049,1799
11050,1876
11051,1907
11052,1923
11053,1931
11054,1937
11055,1946
11056,1954
11057,1947
11058,1933
11059,1901
11060,1858
11061,1818
11062,1782
11063,1759
11064,1759
11065,1773
11066,2305
11067,2042
11068,1747
11069,2032
11070,2413
11071,2602
11072,2337
11073,1871
11074,1600
11075,1500
11076,1408
11077,1344
11078,1436
11079,1650
11080,1807
11081,1882
11082,1905
11083,1922
11084,1939
11085,1955
11086,1968
11087,1984
11088,1987
11089,1913
11090,1877
11091,1824
11092,1777
11093,1761
11094,1749
11095,1751
11096,1775
11097,1111
11098,2230
11099,1795
11100,1905
11101,2365
11102,2595
11103,2466
11104,1968
11105,1614
11106,1505
11107,1398
11108,1328
11109,1400
11110,1616
11111,1789
11112,1872
11113,1906
11114,1930
11115,1941
11116,1951
11117,1956
11118,1954
11119,1953
11120,1936
11121,1904
11122,1851
11123,1808
11124,1771
11125,1751
11126,1745
11127,1763
11128,1185
11129,2384
11130,1845
11131,1843
11132,2313
11133,2559
11134,2559
11135,2055
11136,1607
11137,1474
11138,1380
11139,1298
11140,1367
11141,1594
11142,1779
11143,1867
11144,1899
11145,1919
11146,1938
11147,1955
11148,1967
11149,1968
11150,1964
11151,1950
11152,1918
11153,1874
11154,1826
11155,1777
11156,1749
11157,1739
11158,1750
11159,1776
11160,2477
11161,1909
11162,1786
11163,2240
11164,2529
11165,2669
11166,2109
11167,1597
11168,1499
11169,1431
11170,1344
11171,1379
11172,1587
11173,1770
11174,1857
11175,1900
11176,1918
11177,1936
11178,1941
11179,1951
11180,1965
11181,1966
11182,1953
11183,1926
11184,1871
11185,1821
11186,1783
11187,1761
11188,1744
11189,1766
11190,1782
11191,2402
11192,2009
11193,1757
11194,2137
11195,2475
11196,2726
11197,2209
11198,1645
11199,1479
11200,1447
11201,1367
11202,1375
11203,1566
11204,1757
11205,1849
11206,1889
11207,1908
11208,1923
11209,1936
11210,1939
11211,1953
11212,1957
11213,1953
11214,1926
11215,1889
11216,1849
11217,1805
11218,1776
11219,1758
11220,1761
11221,1776
11222,1728
11223,2142
11224,1744
11225,1996
11226,2411
11227,2725
11228,2347
11229,1717
11230,1466
11231,1462
11232,1386
11233,1360
11234,1521
11235,1731
11236,1847
11237,1900
11238,1918
11239,1931
11240,1941
11241,1938
11242,1949
11243,1964
11244,1958
11245,1938
11246,1878
11247,1846
11248,1874
11249,1871
11250,1711
11251,1694
11252,1731
11253,988
11254,2336
11255,1808
11256,1853
11257,2304
11258,2633
11259,2543
11260,1879
11261,1457
11262,1469
11263,1407
11264,1354
11265,1470
11266,1697
11267,1839
11268,1904
11269,1924
11270,1937
11271,1950
11272,1955
11273,1954
11274,1936
11275,1934
11276,1918
11277,1905
11278,1842
11279,1792
11280,1773
11281,1759
11282,1757
11283,1781
11284,1627
11285,2448
11286,1885
11287,1808
11288,2272
11289,2559
11290,2607
11291,1967
11292,1475
11293,1458
11294,1415
11295,1348
11296,1446
11297,1673
11298,1823
11299,1898
11300,1923
11301,1954
11302,1990
11303,2011
11304,2043
11305,2029
11306,1920
11307,1889
11308,1867
11309,1815
11310,1757
11311,1737
11312,1737
11313,1731
11314,1755
11315,1776
11316,2427
11317,2009
11318,1756
11319,2147
11320,2496
11321,2739
11322,2199
11323,1569
11324,1445
11325,1426
11326,1344
11327,1388
11328,1604
11329,1778
11330,1867
11331,1907
11332,1935
11333,1953
11334,1962
11335,1966
11336,1968
11337,1941
11338,1953
11339,1931
11340,1857
11341,1792
11342,1761
11343,1754
11344,1744
11345,1745
11346,1765
11347,1970
11348,2112
11349,1764
11350,2073
11351,2426
11352,2664
11353,2350
11354,1713
11355,1488
11356,1471
11357,1381
11358,1378
11359,1564
11360,1742
11361,1839
11362,1887
11363,1920
11364,1931
11365,1943
11366,1967
11367,1985
11368,1989
11369,1955
11370,1919
11371,1861
11372,1811
11373,1779
11374,1747
11375,1734
11376,1743
11377,1757
11378,922
11379,2252
11380,1777
11381,1890
11382,2336
11383,2712
11384,2510
11385,1858
11386,1482
11387,1445
11388,1394
11389,1360
11390,1511
11391,1699
11392,1809
11393,1869
11394,1893
11395,1915
11396,1936
11397,1962
11398,1966
11399,1974
11400,1958
11401,1935
11402,1913
11403,1856
11404,1823
11405,1784
11406,1749
11407,1735
11408,1741
11409,1573
11410,2434
11411,1858
11412,1787
11413,2251
11414,2604
11415,2689
11416,2018
11417,1488
11418,1466
11419,1421
11420,1347
11421,1450
11422,1641
11423,1776
11424,1845
11425,1909
11426,1997
11427,2016
11428,1951
11429,1949
11430,1968
11431,1931
11432,1893
11433,1870
11434,1846
11435,1811
11436,1775
11437,1744
11438,1741
11439,1744
11440,1757
11441,2470
11442,1922
11443,1723
11444,2160
11445,2499
11446,2765
11447,2203
11448,1585
11449,1449
11450,1421
11451,1354
11452,1412
11453,1622
11454,1767
11455,1845
11456,1886
11457,1911
11458,1929
11459,1949
11460,1958
11461,1965
11462,1962
11463,1950
11464,1914
11465,1862
11466,1831
11467,1803
11468,1788
11469,1785
11470,1783
11471,1797
11472,1987
11473,2081
11474,1680
11475,1947
11476,2326
11477,2723
11478,2513
11479,1727
11480,1429
11481,1416
11482,1360
11483,1378
11484,1570
11485,1754
11486,1854
11487,1901
11488,1919
11489,1941
11490,1955
11491,1956
11492,1968
11493,2000
11494,1979
11495,1922
11496,1875
11497,1811
11498,1767
11499,1734
11500,1725
11501,1755
11502,1782
11503,1799
11504,1807
11505,1808
11506,1819
11507,1837
11508,1853
11509,1871
11510,1883
11511,1889
11512,1897
11513,1903
11514,1894
11515,1870
11516,1867
11517,1872
11518,1872
11519,1872
11520,1871
11521,1871
11522,1862
11523,1865
11524,1861
11525,1863
11526,1861
11527,1867
11528,1862
11529,1861
11530,1872
11531,1875
11532,1884
11533,1883
11534,1863
11535,1853
11536,1857
11537,1858
11538,1856
11539,1854
11540,1853
11541,1839
11542,1845
11543,1872
11544,1886
11545,1875
11546,1858
11547,1854
11548,1859
11549,1856
11550,1841
11551,1858
11552,1923
11553,1985
11554,1857
11555,1769
11556,1790
11557,1813
11558,1826
11559,1835
11560,1849
11561,1895
11562,1935
11563,1900
11564,1851
11565,1824
11566,1841
11567,1857
11568,1869
11569,1855
11570,1855
11571,1851
11572,1841
11573,1844
11574,1840
11575,1841
11576,1844
11577,1849
11578,1853
11579,1859
11580,1872
11581,1882
11582,1891
11583,1899
11584,1881
11585,1875
11586,1870
11587,1871
11588,1859
11589,1882
11590,1950
11591,1874
11592,1776
11593,1792
11594,1831
11595,1842
11596,1846
11597,1846
11598,1855
11599,1862
11600,1863
11601,1871
11602,1870
11603,1866
11604,1856
11605,1855
11606,1854
11607,1853
11608,1851
11609,1857
11610,1858
11611,1860
11612,1861
11613,1860
11614,1863
11615,1871
11616,1872
11617,1872
11618,1870
11619,1869
11620,1869
11621,1863
11622,1858
11623,1853
11624,1846
11625,1852
11626,1851
11627,1854
11628,1861
11629,1915
11630,1972
11631,1874
11632,1802
11633,1818
11634,1834
11635,1840
11636,1843
11637,1847
11638,1846
11639,1841
11640,1843
11641,1841
11642,1853
11643,1854
11644,1856
11645,1856
11646,1861
11647,1865
11648,1868
11649,1871
11650,1870
11651,1867
11652,1864
11653,1865
11654,1861
11655,1857
11656,1856
11657,1853
11658,1851
11659,1850
11660,1855
11661,1858
11662,1858
11663,1863
11664,1857
11665,1855
11666,1859
11667,1859
11668,1863
11669,1868
11670,1872
11671,1869
11672,1852
11673,1850
11674,1847
11675,1850
11676,1851
11677,1854
11678,1862
11679,1866
11680,1869
11681,1871
11682,1872
11683,1872
11684,1872
11685,1867
11686,1864
11687,1862
11688,1850
11689,1840
11690,1845
11691,1846
11692,1856
11693,1863
11694,1866
11695,1863
11696,1857
11697,1859
11698,1863
11699,1872
11700,1872
11701,1873
11702,1873
11703,1869
11704,1856
11705,1852
11706,1851
11707,1851
11708,1853
11709,1853
11710,1856
11711,1858
11712,1860
11713,1863
11714,1869
11715,1867
11716,1867
11717,1868
11718,1859
11719,1860
11720,1859
11721,1857
11722,1849
11723,1849
11724,1847
11725,1850
11726,1847
11727,1849
11728,1856
11729,1857
11730,1857
11731,1862
11732,1872
11733,1873
11734,1872
11735,1867
11736,1861
11737,1859
11738,1854
11739,1846
11740,1849
11741,1846
11742,1847
11743,1849
11744,1857
11745,1859
11746,1863
11747,1867
11748,1865
11749,1869
11750,1870
11751,1871
11752,1863
11753,1857
11754,1851
11755,1847
11756,1847
11757,1851
11758,1847
11759,1865
11760,1863
11761,1862
11762,1861
11763,1866
11764,1869
11765,1869
11766,1872
11767,1869
11768,1871
11769,1866
11770,1866
11771,1865
11772,1860
11773,1857
11774,1855
11775,1856
11776,1856
11777,1859
11778,1858
11779,1859
11780,1866
11781,1869
11782,1866
11783,1870
11784,1864
11785,1866
11786,1856
11787,1855
11788,1855
11789,1857
11790,1857
11791,1854
11792,1867
11793,1880
11794,1883
11795,1846
11796,1843
11797,1858
11798,1863
11799,1867
11800,1865
11801,1869
11802,1863
11803,1862
11804,1861
11805,1861
11806,1856
11807,1856
11808,1855
11809,1855
11810,1856
11811,1860
11812,1858
11813,1863
11814,1860
11815,1861
11816,1865
11817,1860
11818,1858
11819,1854
11820,1851
11821,1858
11822,1855
11823,1855
11824,1853
11825,1854
11826,1853
11827,1857
11828,1862
11829,1855
11830,1863
11831,1867
11832,1869
11833,1870
11834,1865
11835,1864
11836,1862
11837,1863
11838,1856
11839,1856
11840,1857
11841,1855
11842,1851
11843,1854
11844,1854
11845,1854
11846,1857
11847,1861
11848,1861
11849,1863
11850,1861
11851,1868
11852,1866
11853,1863
11854,1864
11855,1857
11856,1855
11857,1855
11858,1849
11859,1844
11860,1845
11861,1853
11862,1858
11863,1870
11864,1872
11865,1872
11866,1875
11867,1872
11868,1872
11869,1865
11870,1861
11871,1858
11872,1855
11873,1852
11874,1845
11875,1852
11876,1853
11877,1854
11878,1840
11879,1849
11880,1857
11881,1867
11882,1872
11883,1876
11884,1877
11885,1871
11886,1866
11887,1859
11888,1859
11889,1854
11890,1855
11891,1849
11892,1853
11893,1852
11894,1855
11895,1857
11896,1857
11897,1867
11898,1867
11899,1872
11900,1865
11901,1868
11902,1867
11903,1862
11904,1856
11905,1854
11906,1849
11907,1850
11908,1844
11909,1854
11910,1854
11911,1856
11912,1855
11913,1859
11914,1861
11915,1862
11916,1872
11917,1871
11918,1861
