Time(ms),Raw_ADC
0,1296
1,1433
2,1535
3,1618
4,1685
5,1767
6,1808
7,1828
8,1855
9,1872
10,1887
11,1890
12,1889
13,1889
14,1893
15,1898
16,1901
17,1901
18,1898
19,1894
20,1890
21,2322
22,2074
23,1843
24,2062
25,2078
26,2277
27,2606
28,2125
29,1707
30,1403
31,1296
32,1408
33,1535
34,1627
35,1691
36,1764
37,1802
38,1817
39,1840
40,1864
41,1879
42,1885
43,1883
44,1895
45,1898
46,1899
47,1903
48,1903
49,1890
50,1877
51,1883
52,1458
53,2193
54,1872
55,2047
56,2117
57,2147
58,2559
59,2227
60,1809
61,1472
62,1292
63,1360
64,1491
65,1584
66,1657
67,1744
68,1792
69,1817
70,1844
71,1862
72,1885
73,1898
74,1903
75,1904
76,1904
77,1899
78,1894
79,1885
80,1881
81,1884
82,1883
83,1105
84,2332
85,1882
86,1995
87,2160
88,2125
89,2559
90,2359
91,1888
92,1502
93,1274
94,1328
95,1467
96,1563
97,1630
98,1714
99,1778
100,1810
101,1827
102,1859
103,1883
104,1902
105,1908
106,1908
107,1902
108,1903
109,1899
110,1891
111,1887
112,1882
113,1877
114,1877
115,2454
116,1935
117,1915
118,2142
119,2119
120,2516
121,2455
122,1942
123,1569
124,1319
125,1309
126,1449
127,1535
128,1618
129,1697
130,1766
131,1801
132,1823
133,1846
134,1872
135,1887
136,1893
137,1899
138,1909
139,1915
140,1931
141,1927
142,1904
143,1884
144,1877
145,1869
146,1855
147,1841
148,1856
149,1859
150,1869
151,1867
152,1868
153,1870
154,1872
155,1869
156,1871
157,1867
158,1863
159,1861
160,1859
161,1856
162,1856
163,1856
164,1853
165,1858
166,1856
167,1858
168,1862
169,1860
170,1862
171,1853
172,1856
173,1855
174,1856
175,1853
176,1849
177,1847
178,1847
179,1853
180,1853
181,1855
182,1857
183,1856
184,1857
185,1859
186,1865
187,1859
188,1859
189,1859
190,1865
191,1862
192,1862
193,1856
194,1856
195,1856
196,1854
197,1856
198,1856
199,1856
200,1860
201,1860
202,1857
203,1859
204,1858
205,1861
206,1861
207,1859
208,1856
209,1853
210,1860
211,1857
212,1856
213,1856
214,1856
215,1860
216,1861
217,1866
218,1866
219,1865
220,1867
221,1867
222,1868
223,1867
224,1867
225,1867
226,1864
227,1858
228,1856
229,1856
230,1858
231,1859
232,1858
233,1856
234,1861
235,1859
236,1865
237,1865
238,1872
239,1870
240,1865
241,1865
242,1863
243,1862
244,1858
245,1860
246,1858
247,1862
248,1861
249,1861
250,1863
251,1863
252,1869
253,1871
254,1872
255,1872
256,1869
257,1869
258,1871
259,1870
260,1867
261,1861
262,1860
263,1856
264,1858
265,1860
266,1862
267,1861
268,1866
269,1869
270,1867
271,1869
272,1869
273,1866
274,1863
275,1861
276,1862
277,1861
278,1859
279,1859
280,1857
281,1866
282,1862
283,1864
284,1863
285,1866
286,1862
287,1861
288,1861
289,1859
290,1860
291,1858
292,1857
293,1854
294,1853
295,1851
296,1846
297,1850
298,1847
299,1856
300,1859
301,1856
302,1866
303,1867
304,1870
305,1866
306,1861
307,1860
308,1861
309,1858
310,1859
311,1857
312,1856
313,1856
314,1856
315,1857
316,1856
317,1861
318,1863
319,1867
320,1864
321,1870
322,1868
323,1858
324,1858
325,1858
326,1851
327,1852
328,1847
329,1851
330,1856
331,1858
332,1859
333,1859
334,1861
335,1863
336,1867
337,1863
338,1869
339,1867
340,1863
341,1861
342,1859
343,1856
344,1857
345,1856
346,1855
347,1856
348,1856
349,1856
350,1861
351,1863
352,1863
353,1857
354,1859
355,1859
356,1857
357,1859
358,1863
359,1858
360,1860
361,1856
362,1856
363,1854
364,1856
365,1856
366,1857
367,1861
368,1863
369,1863
370,1863
371,1866
372,1866
373,1865
374,1860
375,1863
376,1859
377,1856
378,1854
379,1854
380,1856
381,1856
382,1860
383,1855
384,1856
385,1860
386,1862
387,1862
388,1860
389,1865
390,1859
391,1861
392,1858
393,1857
394,1860
395,1859
396,1856
397,1856
398,1858
399,1857
400,1861
401,1867
402,1865
403,1870
404,1867
405,1867
406,1866
407,1861
408,1859
409,1857
410,1857
411,1857
412,1859
413,1856
414,1850
415,1854
416,1854
417,1854
418,1861
419,1861
420,1868
421,1870
422,1868
423,1863
424,1862
425,1863
426,1859
427,1859
428,1858
429,1856
430,1856
431,1859
432,1858
433,1859
434,1862
435,1867
436,1868
437,1867
438,1870
439,1866
440,1865
441,1866
442,1859
443,1855
444,1855
445,1853
446,1850
447,1851
448,1854
449,1855
450,1861
451,1863
452,1867
453,1867
454,1870
455,1868
456,1870
457,1863
458,1862
459,1861
460,1860
461,1858
462,1857
463,1856
464,1858
465,1859
466,1861
467,1863
468,1867
469,1863
470,1866
471,1866
472,1862
473,1858
474,1856
475,1856
476,1856
477,1858
478,1853
479,1859
480,1858
481,1859
482,1860
483,1861
484,1862
485,1862
486,1867
487,1865
488,1871
489,1870
490,1863
491,1862
492,1863
493,1863
494,1859
495,1859
496,1856
497,1856
498,1858
499,1859
500,1863
501,1862
502,1857
503,1862
504,1861
505,1861
506,1862
507,1858
508,1856
509,1851
510,1857
511,1857
512,1858
513,1856
514,1856
515,1857
516,1862
517,1865
518,1866
519,1870
520,1868
521,1872
522,1871
523,1865
524,1862
525,1861
526,1858
527,1858
528,1856
529,1855
530,1855
531,1859
532,1859
533,1856
534,1858
535,1864
536,1861
537,1863
538,1867
539,1866
540,1866
541,1867
542,1862
543,1858
544,1857
545,1857
546,1858
547,1858
548,1858
549,1859
550,1860
551,1866
552,1866
553,1869
554,1869
555,1872
556,1868
557,1865
558,1867
559,1862
560,1861
561,1856
562,1856
563,1850
564,1854
565,1853
566,1854
567,1856
568,1864
569,1866
570,1867
571,1867
572,1865
573,1865
574,1863
575,1865
576,1859
577,1859
578,1856
579,1856
580,1856
581,1857
582,1857
583,1860
584,1861
585,1866
586,1866
587,1866
588,1869
589,1868
590,1865
591,1860
592,1863
593,1854
594,1851
595,1851
596,1852
597,1853
598,1853
599,1862
600,1863
601,1863
602,1865
603,1866
604,1867
605,1868
606,1863
607,1863
608,1862
609,1859
610,1858
611,1855
612,1856
613,1856
614,1855
615,1856
616,1858
617,1858
618,1858
619,1859
620,1861
621,1862
622,1859
623,1856
624,1856
625,1856
626,1855
627,1855
628,1853
629,1850
630,1858
631,1858
632,1860
633,1862
634,1862
635,1866
636,1865
637,1869
638,1869
639,1865
640,1865
641,1865
642,1862
643,1857
644,1858
645,1859
646,1856
647,1857
648,1856
649,1858
650,1858
651,1863
652,1868
653,1862
654,1862
655,1862
656,1861
657,1861
658,1866
659,1860
660,1859
661,1858
662,1855
663,1857
664,1856
665,1859
666,1859
667,1859
668,1867
669,1871
670,1859
671,1869
672,1871
673,1866
674,1866
675,1861
676,1859
677,1859
678,1859
679,1858
680,1856
681,1858
682,1858
683,1856
684,1855
685,1857
686,1859
687,1858
688,1867
689,1866
690,1866
691,1862
692,1859
693,1861
694,1857
695,1858
696,1856
697,1856
698,1857
699,1857
700,1859
701,1865
702,1862
703,1868
704,1871
705,1870
706,1866
707,1867
708,1861
709,1858
710,1856
711,1855
712,1857
713,1850
714,1852
715,1851
716,1853
717,1857
718,1858
719,1866
720,1866
721,1869
722,1867
723,1867
724,1863
725,1862
726,1859
727,1860
728,1856
729,1855
730,1856
731,1859
732,1859
733,1860
734,1865
735,1869
736,1868
737,1867
738,1872
739,1870
740,1862
741,1863
742,1861
743,1853
744,1851
745,1853
746,1852
747,1848
748,1851
749,1847
750,1859
751,1861
752,1863
753,1868
754,1869
755,1871
756,1862
757,1861
758,1856
759,1856
760,1856
761,1856
762,1858
763,1856
764,1856
765,1856
766,1857
767,1862
768,1867
769,1869
770,1870
771,1870
772,1870
773,1861
774,1856
775,1851
776,1853
777,1852
778,1850
779,1855
780,1856
781,1857
782,1859
783,1862
784,1867
785,1872
786,1878
787,1882
788,1886
789,1880
790,1870
791,1856
792,1856
793,1839
794,1838
795,1839
796,1842
797,1849
798,1855
799,1855
800,1858
801,1861
802,1865
803,1856
804,1861
805,1861
806,1857
807,1858
808,1861
809,1859
810,1862
811,1858
812,1863
813,1862
814,1857
815,1856
816,1867
817,1869
818,1860
819,1859
820,1859
821,1869
822,1872
823,1867
824,1862
825,1863
826,1861
827,1859
828,1855
829,1853
830,1851
831,1853
832,1855
833,1855
834,1859
835,1862
836,1866
837,1866
838,1863
839,1863
840,1869
841,1872
842,1871
843,1872
844,1876
845,1859
846,1840
847,1851
848,1856
849,1856
850,1862
851,1867
852,1863
853,1857
854,1859
855,1865
856,1866
857,1861
858,1862
859,1872
860,1874
861,1871
862,1866
863,1857
864,1840
865,1836
866,1840
867,1843
868,1856
869,1868
870,1867
871,1863
872,1863
873,1856
874,1856
875,1856
876,1851
877,1861
878,1858
879,1856
880,1854
881,1856
882,1858
883,1859
884,1863
885,1865
886,1872
887,1872
888,1870
889,1863
890,1861
891,1862
892,1859
893,1853
894,1853
895,1851
896,1851
897,1854
898,1855
899,1857
900,1858
901,1863
902,1862
903,1865
904,1867
905,1867
906,1866
907,1863
908,1863
909,1861
910,1858
911,1856
912,1855
913,1854
914,1857
915,1858
916,1861
917,1863
918,1861
919,1860
920,1857
921,1861
922,1857
923,1857
924,1854
925,1851
926,1852
927,1854
928,1846
929,1846
930,1856
931,1857
932,1859
933,1862
934,1863
935,1863
936,1867
937,1863
938,1865
939,1868
940,1865
941,1870
942,1865
943,1861
944,1859
945,1859
946,1857
947,1856
948,1856
949,1856
950,1861
951,1864
952,1866
953,1863
954,1862
955,1863
956,1862
957,1861
958,1863
959,1859
960,1861
961,1859
962,1859
963,1861
964,1858
965,1851
966,1854
967,1856
968,1863
969,1866
970,1869
971,1878
972,1873
973,1869
974,1863
975,1857
976,1856
977,1858
978,1857
979,1856
980,1853
981,1856
982,1853
983,1846
984,1854
985,1853
986,1857
987,1859
988,1862
989,1873
990,1872
991,1872
992,1862
993,1859
994,1857
995,1856
996,1855
997,1855
998,1857
999,1858
1000,1862
1001,1863
1002,1867
1003,1861
1004,1863
1005,1869
1006,1863
1007,1861
1008,1862
1009,1859
1010,1859
1011,1856
1012,1856
1013,1851
1014,1851
1015,1853
1016,1856
1017,1857
1018,1870
1019,1866
1020,1867
1021,1867
1022,1866
1023,1859
1024,1859
1025,1858
1026,1856
1027,1856
1028,1858
1029,1856
1030,1855
1031,1855
1032,1857
1033,1861
1034,1863
1035,1865
1036,1866
1037,1871
1038,1869
1039,1868
1040,1867
1041,1866
1042,1867
1043,1859
1044,1854
1045,1851
1046,1855
1047,1856
1048,1855
1049,1856
1050,1865
1051,1867
1052,1864
1053,1866
1054,1869
1055,1871
1056,1865
1057,1862
1058,1863
1059,1859
1060,1860
1061,1857
1062,1856
1063,1856
1064,1857
1065,1855
1066,1851
1067,1856
1068,1859
1069,1856
1070,1861
1071,1859
1072,1858
1073,1859
1074,1856
1075,1856
1076,1853
1077,1854
1078,1850
1079,1855
1080,1859
1081,1857
1082,1860
1083,1861
1084,1863
1085,1867
1086,1870
1087,1868
1088,1867
1089,1869
1090,1866
1091,1866
1092,1865
1093,1861
1094,1858
1095,1856
1096,1856
1097,1856
1098,1857
1099,1858
1100,1859
1101,1865
1102,1865
1103,1851
1104,1861
1105,1858
1106,1855
1107,1859
1108,1861
1109,1857
1110,1857
1111,1855
1112,1856
1113,1856
1114,1856
1115,1856
1116,1858
1117,1860
1118,1859
1119,1863
1120,1862
1121,1870
1122,1865
1123,1864
1124,1861
1125,1861
1126,1863
1127,1859
1128,1860
1129,1857
1130,1857
1131,1856
1132,1861
1133,1854
1134,1854
1135,1855
1136,1857
1137,1857
1138,1858
1139,1859
1140,1865
1141,1862
1142,1863
1143,1862
1144,1858
1145,1355
1146,2177
1147,1861
1148,1962
1149,2039
1150,2032
1151,1979
1152,1962
1153,1990
1154,2062
1155,2112
1156,2003
1157,1807
1158,1616
1159,1505
1160,1522
1161,1604
1162,1673
1163,1696
1164,1712
1165,1735
1166,1766
1167,1801
1168,1830
1169,1847
1170,1855
1171,1871
1172,1872
1173,1872
1174,1875
1175,1875
1176,1296
1177,2395
1178,1923
1179,1973
1180,2105
1181,2099
1182,2017
1183,1955
1184,1952
1185,2023
1186,2078
1187,1925
1188,1712
1189,1535
1190,1502
1191,1559
1192,1648
1193,1693
1194,1715
1195,1744
1196,1779
1197,1811
1198,1839
1199,1856
1200,1872
1201,1882
1202,1889
1203,1899
1204,1904
1205,1899
1206,1898
1207,1891
1208,2499
1209,1986
1210,1905
1211,2058
1212,2089
1213,2021
1214,1947
1215,1924
1216,1993
1217,2023
1218,1879
1219,1701
1220,1580
1221,1535
1222,1585
1223,1654
1224,1700
1225,1738
1226,1781
1227,1813
1228,1836
1229,1851
1230,1869
1231,1878
1232,1883
1233,1887
1234,1889
1235,1887
1236,1889
1237,1891
1238,1893
1239,2418
1240,2064
1241,1872
1242,2015
1243,2064
1244,2000
1245,1934
1246,1951
1247,2075
1248,2063
1249,1898
1250,1708
1251,1569
1252,1529
1253,1584
1254,1655
1255,1693
1256,1744
1257,1792
1258,1827
1259,1840
1260,1857
1261,1866
1262,1875
1263,1883
1264,1882
1265,1883
1266,1885
1267,1887
1268,1885
1269,1883
1270,1388
1271,2220
1272,1882
1273,1984
1274,2070
1275,2010
1276,1939
1277,2007
1278,2141
1279,2064
1280,1908
1281,1687
1282,1518
1283,1472
1284,1535
1285,1635
1286,1679
1287,1742
1288,1791
1289,1828
1290,1851
1291,1867
1292,1875
1293,1885
1294,1887
1295,1887
1296,1886
1297,1883
1298,1878
1299,1881
1300,1886
1301,1143
1302,2377
1303,1919
1304,1936
1305,2061
1306,2018
1307,1950
1308,2064
1309,2224
1310,2106
1311,1901
1312,1650
1313,1474
1314,1454
1315,1555
1316,1625
1317,1664
1318,1734
1319,1787
1320,1815
1321,1844
1322,1869
1323,1887
1324,1898
1325,1902
1326,1884
1327,1883
1328,1883
1329,1887
1330,1887
1331,1885
1332,1883
1333,2486
1334,1966
1335,1907
1336,2080
1337,2074
1338,2012
1339,2192
1340,2322
1341,2091
1342,1858
1343,1568
1344,1379
1345,1385
1346,1501
1347,1583
1348,1648
1349,1723
1350,1783
1351,1823
1352,1846
1353,1875
1354,1901
1355,1905
1356,1891
1357,1893
1358,1893
1359,1894
1360,1902
1361,1899
1362,1891
1363,1881
1364,2458
1365,2038
1366,1887
1367,2063
1368,2089
1369,2037
1370,2291
1371,2342
1372,2074
1373,1842
1374,1514
1375,1305
1376,1339
1377,1479
1378,1575
1379,1673
1380,1755
1381,1807
1382,1839
1383,1865
1384,1894
1385,1909
1386,1920
1387,1911
1388,1905
1389,1903
1390,1904
1391,1897
1392,1875
1393,1865
1394,1870
1395,1703
1396,2182
1397,1853
1398,1970
1399,2078
1400,2030
1401,2287
1402,2427
1403,2118
1404,1861
1405,1515
1406,1314
1407,1354
1408,1481
1409,1581
1410,1669
1411,1747
1412,1794
1413,1823
1414,1851
1415,1878
1416,1897
1417,1904
1418,1920
1419,1918
1420,1919
1421,1917
1422,1904
1423,1895
1424,1887
1425,1889
1426,969
1427,2292
1428,1856
1429,1891
1430,2046
1431,2016
1432,2288
1433,2487
1434,2143
1435,1861
1436,1494
1437,1296
1438,1372
1439,1502
1440,1606
1441,1691
1442,1761
1443,1793
1444,1811
1445,1834
1446,1860
1447,1883
1448,1893
1449,1895
1450,1900
1451,1910
1452,1915
1453,1906
1454,1895
1455,1895
1456,1895
1457,1891
1458,2464
1459,1938
1460,1813
1461,1998
1462,2003
1463,2197
1464,2521
1465,2225
1466,1914
1467,1535
1468,1305
1469,1377
1470,1489
1471,1600
1472,1686
1473,1751
1474,1797
1475,1826
1476,1847
1477,1872
1478,1887
1479,1903
1480,1903
1481,1904
1482,1907
1483,1897
1484,1879
1485,1872
1486,1879
1487,1888
1488,1890
1489,2448
1490,2031
1491,1819
1492,1994
1493,2032
1494,2125
1495,2512
1496,2224
1497,1920
1498,1593
1499,1335
1500,1371
1501,1482
1502,1587
1503,1680
1504,1749
1505,1791
1506,1811
1507,1834
1508,1856
1509,1873
1510,1897
1511,1907
1512,1911
1513,1905
1514,1904
1515,1886
1516,1886
1517,1888
1518,1882
1519,1874
1520,1966
1521,2128
1522,1823
1523,1977
1524,2071
1525,2074
1526,2507
1527,2286
1528,1935
1529,1611
1530,1357
1531,1373
1532,1479
1533,1578
1534,1659
1535,1734
1536,1789
1537,1827
1538,1850
1539,1869
1540,1891
1541,1916
1542,1921
1543,1925
1544,1919
1545,1904
1546,1873
1547,1866
1548,1873
1549,1875
1550,1872
1551,980
1552,2279
1553,1870
1554,1943
1555,2111
1556,2084
1557,2497
1558,2378
1559,1965
1560,1649
1561,1363
1562,1344
1563,1461
1564,1559
1565,1638
1566,1715
1567,1783
1568,1818
1569,1843
1570,1863
1571,1889
1572,1901
1573,1906
1574,1917
1575,1931
1576,1923
1577,1900
1578,1879
1579,1872
1580,1873
1581,1876
1582,1632
1583,2407
1584,1923
1585,1903
1586,2125
1587,2094
1588,2416
1589,2473
1590,2009
1591,1693
1592,1402
1593,1331
1594,1445
1595,1535
1596,1626
1597,1702
1598,1763
1599,1803
1600,1825
1601,1851
1602,1875
1603,1891
1604,1900
1605,1895
1606,1902
1607,1914
1608,1910
1609,1904
1610,1893
1611,1890
1612,1888
1613,1881
1614,2439
1615,1999
1616,1826
1617,2040
1618,2091
1619,2321
1620,2556
1621,2128
1622,1760
1623,1434
1624,1314
1625,1426
1626,1554
1627,1625
1628,1689
1629,1758
1630,1793
1631,1818
1632,1840
1633,1865
1634,1882
1635,1895
1636,1901
1637,1906
1638,1911
1639,1906
1640,1903
1641,1893
1642,1889
1643,1877
1644,1873
1645,2128
1646,2097
1647,1807
1648,1969
1649,2075
1650,2213
1651,2645
1652,2214
1653,1794
1654,1471
1655,1335
1656,1441
1657,1559
1658,1627
1659,1682
1660,1745
1661,1793
1662,1813
1663,1836
1664,1858
1665,1875
1666,1890
1667,1901
1668,1904
1669,1910
1670,1904
1671,1898
1672,1895
1673,1887
1674,1879
1675,1877
1676,1104
1677,2231
1678,1859
1679,1990
1680,2151
1681,2185
1682,2618
1683,2251
1684,1815
1685,1508
1686,1329
1687,1395
1688,1520
1689,1603
1690,1664
1691,1737
1692,1781
1693,1808
1694,1822
1695,1852
1696,1870
1697,1882
1698,1895
1699,1905
1700,1907
1701,1904
1702,1904
1703,1903
1704,1898
1705,1893
1706,1882
1707,1310
1708,2357
1709,1905
1710,1931
1711,2144
1712,2115
1713,2509
1714,2363
1715,1898
1716,1587
1717,1361
1718,1366
1719,1488
1720,1581
1721,1645
1722,1713
1723,1776
1724,1807
1725,1830
1726,1861
1727,1881
1728,1887
1729,1891
1730,1893
1731,1900
1732,1904
1733,1901
1734,1894
1735,1894
1736,1894
1737,1890
1738,1890
1739,2427
1740,1967
1741,1903
1742,2139
1743,2117
1744,2414
1745,2428
1746,1973
1747,1661
1748,1386
1749,1332
1750,1459
1751,1569
1752,1635
1753,1706
1754,1775
1755,1808
1756,1840
1757,1865
1758,1878
1759,1891
1760,1895
1761,1897
1762,1901
1763,1891
1764,1888
1765,1888
1766,1885
1767,1887
1768,1889
1769,1888
1770,1881
1771,1888
1772,1883
1773,1881
1774,1875
1775,1872
1776,1869
1777,1868
1778,1862
1779,1858
1780,1859
1781,1863
1782,1865
1783,1866
1784,1863
1785,1866
1786,1866
1787,1866
1788,1863
1789,1856
1790,1856
1791,1867
1792,1866
1793,1856
1794,1854
1795,1853
1796,1853
1797,1856
1798,1854
1799,1861
1800,1860
1801,1863
1802,1868
1803,1867
1804,1866
1805,1865
1806,1863
1807,1865
1808,1866
1809,1858
1810,1858
1811,1856
1812,1856
1813,1853
1814,1853
1815,1853
1816,1856
1817,1858
1818,1855
1819,1858
1820,1860
1821,1861
1822,1859
1823,1853
1824,1856
1825,1858
1826,1853
1827,1849
1828,1847
1829,1852
1830,1859
1831,1858
1832,1859
1833,1861
1834,1865
1835,1867
1836,1870
1837,1867
1838,1867
1839,1859
1840,1858
1841,1856
1842,1856
1843,1855
1844,1855
1845,1856
1846,1856
1847,1857
1848,1856
1849,1857
1850,1854
1851,1856
1852,1855
1853,1853
1854,1855
1855,1856
1856,1857
1857,1855
1858,1860
1859,1859
1860,1856
1861,1856
1862,1853
1863,1853
1864,1857
1865,1858
1866,1862
1867,1868
1868,1871
1869,1870
1870,1865
1871,1870
1872,1863
1873,1859
1874,1863
1875,1861
1876,1856
1877,1856
1878,1857
1879,1855
1880,1852
1881,1853
1882,1856
1883,1854
1884,1856
1885,1857
1886,1861
1887,1863
1888,1861
1889,1861
1890,1863
1891,1858
1892,1856
1893,1855
1894,1855
1895,1857
1896,1857
1897,1854
1898,1856
1899,1854
1900,1856
1901,1855
1902,1856
1903,1859
1904,1857
1905,1863
1906,1859
1907,1859
1908,1860
1909,1860
1910,1859
1911,1855
1912,1855
1913,1847
1914,1847
1915,1851
1916,1851
1917,1851
1918,1860
1919,1863
1920,1866
1921,1867
1922,1866
1923,1858
1924,1857
1925,1861
1926,1859
1927,1855
1928,1850
1929,1849
1930,1855
1931,1856
1932,1855
1933,1856
1934,1859
1935,1862
1936,1865
1937,1867
1938,1866
1939,1866
1940,1865
1941,1859
1942,1863
1943,1852
1944,1853
1945,1854
1946,1854
1947,1854
1948,1851
1949,1851
1950,1857
1951,1859
1952,1866
1953,1867
1954,1867
1955,1862
1956,1862
1957,1863
1958,1862
1959,1859
1960,1857
1961,1853
1962,1854
1963,1855
1964,1858
1965,1856
1966,1858
1967,1860
1968,1861
1969,1866
1970,1862
1971,1859
1972,1858
1973,1856
1974,1857
1975,1856
1976,1855
1977,1852
1978,1851
1979,1855
1980,1854
1981,1856
1982,1856
1983,1859
1984,1863
1985,1863
1986,1866
1987,1867
1988,1866
1989,1865
1990,1862
1991,1862
1992,1860
1993,1857
1994,1857
1995,1857
1996,1856
1997,1858
1998,1856
1999,1856
2000,1857
2001,1863
2002,1866
2003,1863
2004,1862
2005,1860
2006,1857
2007,1859
2008,1864
2009,1858
2010,1857
2011,1856
2012,1856
2013,1856
2014,1856
2015,1855
2016,1856
2017,1856
2018,1866
2019,1863
2020,1866
2021,1871
2022,1872
2023,1870
2024,1869
2025,1868
2026,1861
2027,1858
2028,1856
2029,1850
2030,1846
2031,1850
2032,1852
2033,1854
2034,1855
2035,1859
2036,1863
2037,1863
2038,1866
2039,1861
2040,1868
2041,1865
2042,1863
2043,1862
2044,1858
2045,1857
2046,1856
2047,1849
2048,1855
2049,1862
2050,1861
2051,1866
2052,1867
2053,1870
2054,1867
2055,1868
2056,1862
2057,1858
2058,1859
2059,1858
2060,1856
2061,1853
2062,1853
2063,1849
2064,1850
2065,1855
2066,1853
2067,1856
2068,1866
2069,1871
2070,1861
2071,1871
2072,1867
2073,1872
2074,1878
2075,1875
2076,1872
2077,1866
2078,1856
2079,1852
2080,1850
2081,1849
2082,1849
2083,1846
2084,1851
2085,1856
2086,1859
2087,1866
2088,1869
2089,1870
2090,1867
2091,1866
2092,1867
2093,1857
2094,1849
2095,1853
2096,1852
2097,1853
2098,1856
2099,1858
2100,1855
2101,1856
2102,1861
2103,1867
2104,1871
2105,1869
2106,1867
2107,1867
2108,1867
2109,1863
2110,1860
2111,1855
2112,1858
2113,1856
2114,1857
2115,1858
2116,1861
2117,1863
2118,1865
2119,1858
2120,1859
2121,1859
2122,1859
2123,1858
2124,1856
2125,1856
2126,1855
2127,1855
2128,1855
2129,1853
2130,1856
2131,1858
2132,1859
2133,1863
2134,1869
2135,1870
2136,1869
2137,1867
2138,1865
2139,1865
2140,1861
2141,1858
2142,1856
2143,1858
2144,1856
2145,1857
2146,1858
2147,1857
2148,1858
2149,1858
2150,1863
2151,1869
2152,1867
2153,1859
2154,1867
2155,1865
2156,1863
2157,1857
2158,1861
2159,1861
2160,1856
2161,1856
2162,1857
2163,1856
2164,1856
2165,1857
2166,1859
2167,1861
2168,1867
2169,1869
2170,1871
2171,1867
2172,1871
2173,1869
2174,1870
2175,1870
2176,1868
2177,1857
2178,1857
2179,1857
2180,1856
2181,1855
2182,1859
2183,1854
2184,1855
2185,1859
2186,1857
2187,1861
2188,1863
2189,1870
2190,1869
2191,1867
2192,1863
2193,1860
2194,1861
2195,1861
2196,1859
2197,1858
2198,1859
2199,1862
2200,1863
2201,1862
2202,1863
2203,1867
2204,1868
2205,1870
2206,1863
2207,1863
2208,1861
2209,1861
2210,1859
2211,1857
2212,1857
2213,1851
2214,1853
2215,1854
2216,1855
2217,1857
2218,1867
2219,1867
2220,1862
2221,1863
2222,1864
2223,1862
2224,1863
2225,1861
2226,1861
2227,1859
2228,1862
2229,1858
2230,1859
2231,1857
2232,1856
2233,1858
2234,1857
2235,1862
2236,1867
2237,1867
2238,1866
2239,1866
2240,1863
2241,1863
2242,1862
2243,1843
2244,1854
2245,1858
2246,1863
2247,1861
2248,1858
2249,1853
2250,1857
2251,1856
2252,1856
2253,1856
2254,1856
2255,1860
2256,1862
2257,1863
2258,1863
2259,1862
2260,1862
2261,1857
2262,1857
2263,1855
2264,1855
2265,1854
2266,1857
2267,1860
2268,1863
2269,1866
2270,1866
2271,1861
2272,1862
2273,1861
2274,1858
2275,1856
2276,1856
2277,1854
2278,1855
2279,1857
2280,1856
2281,1859
2282,1861
2283,1859
2284,1859
2285,1862
2286,1863
2287,1866
2288,1870
2289,1869
2290,1866
2291,1863
2292,1863
2293,1860
2294,1856
2295,1857
2296,1857
2297,1856
2298,1856
2299,1858
2300,1858
2301,1862
2302,1862
2303,1861
2304,1857
2305,1861
2306,1856
2307,1856
2308,1861
2309,1860
2310,1857
2311,1854
2312,1856
2313,1856
2314,1859
2315,1858
2316,1859
2317,1859
2318,1863
2319,1868
2320,1869
2321,1869
2322,1870
2323,1867
2324,1863
2325,1859
2326,1858
2327,1856
2328,1855
2329,1856
2330,1856
2331,1857
2332,1859
2333,1854
2334,1856
2335,1858
2336,1859
2337,1861
2338,1868
2339,1867
2340,1867
2341,1865
2342,1863
2343,1861
2344,1856
2345,1857
2346,1855
2347,1857
2348,1857
2349,1859
2350,1863
2351,1863
2352,1866
2353,1868
2354,1863
2355,1863
2356,1866
2357,1863
2358,1860
2359,1859
2360,1857
2361,1856
2362,1856
2363,1851
2364,1852
2365,1851
2366,1854
2367,1855
2368,1856
2369,1862
2370,1865
2371,1863
2372,1872
2373,1871
2374,1869
2375,1862
2376,1861
2377,1859
2378,1855
2379,1853
2380,1851
2381,1855
2382,1856
2383,1858
2384,1859
2385,1859
2386,1865
2387,1863
2388,1867
2389,1869
2390,1866
2391,1865
2392,1862
2393,1857
2394,1854
2395,1853
2396,1850
2397,1850
2398,1851
2399,1857
2400,1862
2401,1865
2402,1863
2403,1865
2404,1870
2405,1865
2406,1863
2407,1861
2408,1859
2409,1862
2410,1865
2411,1867
2412,1869
2413,1866
2414,1861
2415,1857
2416,1853
2417,1852
2418,1850
2419,1847
2420,1849
2421,1855
2422,1856
2423,1856
2424,1858
2425,1859
2426,1856
2427,1856
2428,1850
2429,1850
2430,1855
2431,1856
2432,1856
2433,1856
2434,1859
2435,1861
2436,1867
2437,1870
2438,1867
2439,1867
2440,1867
2441,1866
2442,1862
2443,1862
2444,1863
2445,1863
2446,1865
2447,1862
2448,1848
2449,1845
2450,1847
2451,1849
2452,1856
2453,1857
2454,1866
2455,1869
2456,1859
2457,1858
2458,1861
2459,1862
2460,1858
2461,1856
2462,1856
2463,1859
2464,1872
2465,1871
2466,1863
2467,1858
2468,1857
2469,1856
2470,1846
2471,1856
2472,1856
2473,1862
2474,1871
2475,1872
2476,1870
2477,1867
2478,1859
2479,1856
2480,1851
2481,1850
2482,1853
2483,1845
2484,1847
2485,1854
2486,1856
2487,1860
2488,1869
2489,1869
2490,1867
2491,1866
2492,1862
2493,1858
2494,1856
2495,1858
2496,1856
2497,1860
2498,1858
2499,1859
2500,1863
2501,1862
2502,1862
2503,1868
2504,1871
2505,1867
2506,1865
2507,1863
2508,1863
2509,1862
2510,1857
2511,1856
2512,1859
2513,1855
2514,1853
2515,1853
2516,1855
2517,1854
2518,1854
2519,1862
2520,1863
2521,1863
2522,1862
2523,1857
2524,1856
2525,1857
2526,1857
2527,1858
2528,1855
2529,1855
2530,1856
2531,1857
2532,1859
2533,1860
2534,1861
2535,1861
2536,1867
2537,1869
2538,1870
2539,1867
2540,1866
2541,1867
2542,1859
2543,1852
2544,1850
2545,1854
2546,1853
2547,1852
2548,1852
2549,1853
2550,1858
2551,1859
2552,1861
2553,1867
2554,1867
2555,1869
2556,1866
2557,1863
2558,1860
2559,1859
2560,1860
2561,1855
2562,1854
2563,1855
2564,1856
2565,1859
2566,1858
2567,1859
2568,1862
2569,1866
2570,1866
2571,1870
2572,1863
2573,1860
2574,1857
2575,1858
2576,1852
2577,1852
2578,1856
2579,1857
2580,1856
2581,1859
2582,1861
2583,1862
2584,1862
2585,1863
2586,1866
2587,1867
2588,1866
2589,1863
2590,1862
2591,1863
2592,1860
2593,1857
2594,1858
2595,1863
2596,1866
2597,1869
2598,1869
2599,1866
2600,1865
2601,1859
2602,1856
2603,1843
2604,1847
2605,1851
2606,1854
2607,1859
2608,1856
2609,1855
2610,1857
2611,1856
2612,1856
2613,1854
2614,1856
2615,1856
2616,1856
2617,1859
2618,1863
2619,1865
2620,1863
2621,1866
2622,1867
2623,1862
2624,1862
2625,1863
2626,1860
2627,1857
2628,1856
2629,1856
2630,1856
2631,1858
2632,1859
2633,1851
2634,1856
2635,1856
2636,1861
2637,1859
2638,1859
2639,1858
2640,1867
2641,1862
2642,1861
2643,1858
2644,1857
2645,1857
2646,1856
2647,1855
2648,1856
2649,1856
2650,1859
2651,1866
2652,1865
2653,1866
2654,1867
2655,1863
2656,1862
2657,1861
2658,1862
2659,1863
2660,1859
2661,1856
2662,1857
2663,1853
2664,1853
2665,1855
2666,1853
2667,1856
2668,1860
2669,1869
2670,1865
2671,1859
2672,1863
2673,1862
2674,1863
2675,1858
2676,1859
2677,1857
2678,1856
2679,1855
2680,1855
2681,1856
2682,1857
2683,1858
2684,1864
2685,1866
2686,1863
2687,1870
2688,1870
2689,1863
2690,1863
2691,1863
2692,1859
2693,1854
2694,1849
2695,1849
2696,1845
2697,1851
2698,1855
2699,1859
2700,1862
2701,1865
2702,1865
2703,1866
2704,1867
2705,1867
2706,1862
2707,1863
2708,1860
2709,1860
2710,1859
2711,1856
2712,1854
2713,1855
2714,1854
2715,1856
2716,1855
2717,1857
2718,1856
2719,1859
2720,1858
2721,1859
2722,1861
2723,1857
2724,1857
2725,1857
2726,1854
2727,1856
2728,1855
2729,1850
2730,1856
2731,1857
2732,1856
2733,1857
2734,1856
2735,1859
2736,1861
2737,1867
2738,1866
2739,1865
2740,1863
2741,1863
2742,1859
2743,1859
2744,1856
2745,1856
2746,1856
2747,1856
2748,1857
2749,1858
2750,1858
2751,1865
2752,1866
2753,1863
2754,1861
2755,1862
2756,1858
2757,1859
2758,1861
2759,1858
2760,1858
2761,1856
2762,1856
2763,1855
2764,1855
2765,1856
2766,1858
2767,1862
2768,1860
2769,950
2770,2259
2771,1885
2772,1947
2773,2047
2774,2035
2775,1977
2776,1947
2777,1970
2778,2030
2779,2102
2780,2042
2781,1845
2782,1638
2783,1503
2784,1515
2785,1593
2786,1666
2787,1711
2788,1723
2789,1743
2790,1772
2791,1798
2792,1821
2793,1839
2794,1847
2795,1858
2796,1865
2797,1867
2798,1874
2799,1875
2800,1680
2801,2441
2802,1947
2803,1971
2804,2128
2805,2128
2806,2047
2807,1969
2808,1952
2809,2000
2810,2054
2811,1921
2812,1712
2813,1535
2814,1483
2815,1522
2816,1621
2817,1685
2818,1723
2819,1762
2820,1793
2821,1827
2822,1847
2823,1859
2824,1870
2825,1876
2826,1887
2827,1899
2828,1890
2829,1887
2830,1888
2831,1890
2832,2481
2833,2000
2834,1909
2835,2078
2836,2114
2837,2063
2838,1979
2839,1951
2840,1985
2841,2005
2842,1874
2843,1698
2844,1567
2845,1524
2846,1561
2847,1637
2848,1693
2849,1735
2850,1786
2851,1824
2852,1843
2853,1859
2854,1874
2855,1889
2856,1894
2857,1898
2858,1893
2859,1889
2860,1887
2861,1882
2862,1882
2863,2099
2864,2127
2865,1863
2866,2007
2867,2096
2868,2054
2869,1973
2870,1982
2871,2054
2872,2064
2873,1927
2874,1724
2875,1535
2876,1483
2877,1529
2878,1619
2879,1680
2880,1733
2881,1781
2882,1814
2883,1840
2884,1862
2885,1878
2886,1891
2887,1894
2888,1898
2889,1899
2890,1896
2891,1892
2892,1888
2893,1878
2894,1195
2895,2225
2896,1865
2897,1975
2898,2090
2899,2026
2900,1969
2901,2060
2902,2169
2903,2072
2904,1922
2905,1664
2906,1470
2907,1445
2908,1535
2909,1639
2910,1680
2911,1738
2912,1782
2913,1815
2914,1836
2915,1866
2916,1883
2917,1899
2918,1890
2919,1902
2920,1891
2921,1894
2922,1886
2923,1893
2924,1893
2925,1467
2926,2413
2927,1923
2928,1915
2929,2064
2930,2032
2931,1977
2932,2118
2933,2240
2934,2104
2935,1906
2936,1614
2937,1427
2938,1408
2939,1521
2940,1622
2941,1678
2942,1740
2943,1787
2944,1814
2945,1840
2946,1861
2947,1883
2948,1901
2949,1907
2950,1908
2951,1910
2952,1908
2953,1904
2954,1900
2955,1891
2956,1883
2957,2474
2958,1969
2959,1887
2960,2064
2961,2047
2962,1989
2963,2227
2964,2296
2965,2087
2966,1878
2967,1570
2968,1378
2969,1397
2970,1520
2971,1610
2972,1669
2973,1738
2974,1781
2975,1808
2976,1840
2977,1863
2978,1879
2979,1890
2980,1894
2981,1899
2982,1897
2983,1903
2984,1902
2985,1904
2986,1904
2987,1898
2988,2221
2989,2114
2990,1872
2991,2023
2992,2098
2993,2058
2994,2334
2995,2383
2996,2118
2997,1890
2998,1530
2999,1287
3000,1306
3001,1443
3002,1559
3003,1662
3004,1745
3005,1794
3006,1822
3007,1842
3008,1866
3009,1885
3010,1897
3011,1900
3012,1904
3013,1904
3014,1902
3015,1899
3016,1893
3017,1891
3018,1889
3019,1175
3020,2239
3021,1872
3022,1968
3023,2112
3024,2080
3025,2355
3026,2464
3027,2128
3028,1849
3029,1437
3030,1230
3031,1309
3032,1466
3033,1589
3034,1677
3035,1747
3036,1795
3037,1820
3038,1846
3039,1869
3040,1891
3041,1908
3042,1915
3043,1917
3044,1907
3045,1913
3046,1904
3047,1895
3048,1886
3049,1875
3050,1250
3051,2348
3052,1895
3053,1920
3054,2119
3055,2060
3056,2253
3057,2480
3058,2158
3059,1844
3060,1452
3061,1251
3062,1334
3063,1486
3064,1600
3065,1680
3066,1755
3067,1795
3068,1825
3069,1855
3070,1872
3071,1890
3072,1890
3073,1892
3074,1911
3075,1914
3076,1899
3077,1894
3078,1891
3079,1879
3080,1873
3081,1877
3082,2431
3083,1943
3084,1920
3085,2160
3086,2119
3087,2243
3088,2518
3089,2144
3090,1801
3091,1423
3092,1239
3093,1330
3094,1474
3095,1591
3096,1659
3097,1730
3098,1781
3099,1818
3100,1842
3101,1872
3102,1891
3103,1914
3104,1925
3105,1921
3106,1919
3107,1908
3108,1890
3109,1889
3110,1885
3111,1871
3112,1863
3113,2303
3114,2047
3115,1879
3116,2125
3117,2148
3118,2175
3119,2519
3120,2218
3121,1871
3122,1501
3123,1271
3124,1322
3125,1458
3126,1582
3127,1648
3128,1712
3129,1763
3130,1803
3131,1824
3132,1853
3133,1874
3134,1898
3135,1907
3136,1906
3137,1912
3138,1915
3139,1905
3140,1890
3141,1892
3142,1892
3143,1882
3144,1486
3145,2179
3146,1872
3147,2064
3148,2153
3149,2086
3150,2497
3151,2309
3152,1936
3153,1578
3154,1301
3155,1319
3156,1455
3157,1566
3158,1638
3159,1711
3160,1767
3161,1798
3162,1823
3163,1843
3164,1872
3165,1892
3166,1902
3167,1905
3168,1910
3169,1906
3170,1904
3171,1904
3172,1900
3173,1895
3174,1886
3175,1072
3176,2320
3177,1877
3178,1948
3179,2128
3180,2078
3181,2487
3182,2443
3183,1997
3184,1632
3185,1343
3186,1307
3187,1440
3188,1558
3189,1637
3190,1702
3191,1759
3192,1799
3193,1819
3194,1840
3195,1862
3196,1878
3197,1886
3198,1897
3199,1900
3200,1897
3201,1917
3202,1914
3203,1901
3204,1887
3205,1887
3206,1894
3207,2442
3208,1942
3209,1904
3210,2138
3211,2109
3212,2425
3213,2535
3214,2064
3215,1671
3216,1345
3217,1270
3218,1402
3219,1522
3220,1603
3221,1668
3222,1744
3223,1791
3224,1810
3225,1837
3226,1865
3227,1873
3228,1885
3229,1886
3230,1904
3231,1923
3232,1908
3233,1893
3234,1895
3235,1895
3236,1889
3237,1889
3238,2407
3239,2026
3240,1874
3241,2115
3242,2115
3243,2273
3244,2559
3245,2176
3246,1771
3247,1413
3248,1273
3249,1377
3250,1499
3251,1584
3252,1649
3253,1728
3254,1783
3255,1815
3256,1839
3257,1867
3258,1885
3259,1901
3260,1904
3261,1911
3262,1905
3263,1891
3264,1893
3265,1893
3266,1889
3267,1887
3268,1883
3269,2161
3270,2111
3271,1865
3272,2086
3273,2133
3274,2198
3275,2559
3276,2220
3277,1810
3278,1474
3279,1285
3280,1358
3281,1488
3282,1571
3283,1641
3284,1724
3285,1786
3286,1821
3287,1845
3288,1867
3289,1871
3290,1883
3291,1889
3292,1897
3293,1905
3294,1899
3295,1890
3296,1887
3297,1886
3298,1883
3299,1887
3300,1065
3301,2258
3302,1885
3303,2074
3304,2194
3305,2155
3306,2544
3307,2258
3308,1839
3309,1505
3310,1280
3311,1312
3312,1465
3313,1587
3314,1648
3315,1712
3316,1769
3317,1803
3318,1815
3319,1850
3320,1872
3321,1885
3322,1887
3323,1889
3324,1901
3325,1904
3326,1903
3327,1898
3328,1889
3329,1887
3330,1888
3331,1769
3332,2430
3333,1924
3334,1953
3335,2183
3336,2121
3337,2455
3338,2422
3339,1967
3340,1614
3341,1349
3342,1308
3343,1435
3344,1535
3345,1607
3346,1671
3347,1749
3348,1795
3349,1823
3350,1846
3351,1871
3352,1887
3353,1901
3354,1901
3355,1904
3356,1904
3357,1902
3358,1898
3359,1889
3360,1879
3361,1876
3362,1875
3363,2467
3364,2005
3365,1885
3366,2131
3367,2123
3368,2363
3369,2522
3370,2067
3371,1696
3372,1392
3373,1286
3374,1398
3375,1523
3376,1600
3377,1663
3378,1735
3379,1781
3380,1808
3381,1837
3382,1861
3383,1882
3384,1904
3385,1921
3386,1932
3387,1930
3388,1919
3389,1907
3390,1873
3391,1867
3392,1881
3393,1875
3394,1865
3395,1858
3396,1858
3397,1863
3398,1866
3399,1867
3400,1871
3401,1867
3402,1869
3403,1869
3404,1870
3405,1872
3406,1868
3407,1865
3408,1861
3409,1863
3410,1864
3411,1858
3412,1856
3413,1854
3414,1847
3415,1847
3416,1851
3417,1852
3418,1862
3419,1866
3420,1865
3421,1866
3422,1867
3423,1863
3424,1863
3425,1857
3426,1857
3427,1855
3428,1855
3429,1854
3430,1852
3431,1856
3432,1855
3433,1856
3434,1857
3435,1863
3436,1860
3437,1863
3438,1863
3439,1863
3440,1862
3441,1859
3442,1858
3443,1855
3444,1849
3445,1851
3446,1850
3447,1851
3448,1853
3449,1851
3450,1860
3451,1860
3452,1859
3453,1859
3454,1863
3455,1865
3456,1859
3457,1860
3458,1851
3459,1852
3460,1856
3461,1854
3462,1850
3463,1855
3464,1855
3465,1856
3466,1857
3467,1858
3468,1857
3469,1862
3470,1865
3471,1859
3472,1861
3473,1857
3474,1856
3475,1855
3476,1853
3477,1855
3478,1851
3479,1857
3480,1856
3481,1856
3482,1857
3483,1859
3484,1863
3485,1869
3486,1870
3487,1869
3488,1870
3489,1868
3490,1869
3491,1867
3492,1862
3493,1859
3494,1861
3495,1861
3496,1863
3497,1866
3498,1866
3499,1861
3500,1863
3501,1870
3502,1872
3503,1872
3504,1872
3505,1870
3506,1867
3507,1863
3508,1863
3509,1861
3510,1863
3511,1863
3512,1859
3513,1861
3514,1865
3515,1863
3516,1863
3517,1869
3518,1872
3519,1872
3520,1872
3521,1873
3522,1874
3523,1872
3524,1869
3525,1862
3526,1862
3527,1857
3528,1856
3529,1856
3530,1856
3531,1858
3532,1861
3533,1861
3534,1862
3535,1861
3536,1860
3537,1861
3538,1861
3539,1859
3540,1867
3541,1867
3542,1863
3543,1861
3544,1862
3545,1858
3546,1858
3547,1858
3548,1861
3549,1861
3550,1865
3551,1869
3552,1867
3553,1866
3554,1871
3555,1866
3556,1867
3557,1865
3558,1866
3559,1866
3560,1859
3561,1858
3562,1857
3563,1858
3564,1852
3565,1856
3566,1857
3567,1857
3568,1864
3569,1866
3570,1869
3571,1863
3572,1870
3573,1868
3574,1866
3575,1861
3576,1858
3577,1858
3578,1856
3579,1856
3580,1858
3581,1858
3582,1857
3583,1860
3584,1862
3585,1865
3586,1870
3587,1872
3588,1870
3589,1867
3590,1865
3591,1866
3592,1861
3593,1862
3594,1851
3595,1853
3596,1851
3597,1851
3598,1851
3599,1850
3600,1859
3601,1865
3602,1866
3603,1866
3604,1867
3605,1866
3606,1866
3607,1862
3608,1860
3609,1857
3610,1856
3611,1856
3612,1856
3613,1857
3614,1856
3615,1855
3616,1857
3617,1856
3618,1856
3619,1856
3620,1856
3621,1859
3622,1859
3623,1858
3624,1857
3625,1856
3626,1854
3627,1853
3628,1853
3629,1845
3630,1856
3631,1856
3632,1860
3633,1865
3634,1866
3635,1866
3636,1867
3637,1867
3638,1865
3639,1869
3640,1867
3641,1863
3642,1863
3643,1859
3644,1856
3645,1858
3646,1856
3647,1856
3648,1859
3649,1861
3650,1858
3651,1859
3652,1859
3653,1867
3654,1862
3655,1862
3656,1858
3657,1858
3658,1860
3659,1859
3660,1857
3661,1853
3662,1856
3663,1855
3664,1859
3665,1858
3666,1856
3667,1861
3668,1865
3669,1870
3670,1860
3671,1869
3672,1869
3673,1871
3674,1867
3675,1865
3676,1865
3677,1861
3678,1856
3679,1856
3680,1857
3681,1855
3682,1856
3683,1858
3684,1856
3685,1857
3686,1859
3687,1866
3688,1863
3689,1862
3690,1861
3691,1860
3692,1861
3693,1866
3694,1861
3695,1857
3696,1856
3697,1857
3698,1857
3699,1857
3700,1862
3701,1866
3702,1865
3703,1870
3704,1870
3705,1870
3706,1865
3707,1863
3708,1859
3709,1863
3710,1857
3711,1856
3712,1856
3713,1856
3714,1853
3715,1852
3716,1850
3717,1858
3718,1863
3719,1865
3720,1871
3721,1870
3722,1867
3723,1865
3724,1862
3725,1866
3726,1861
3727,1862
3728,1858
3729,1859
3730,1856
3731,1856
3732,1856
3733,1859
3734,1862
3735,1866
3736,1865
3737,1867
3738,1868
3739,1869
3740,1865
3741,1863
3742,1864
3743,1866
3744,1854
3745,1851
3746,1852
3747,1854
3748,1854
3749,1853
3750,1861
3751,1862
3752,1865
3753,1867
3754,1871
3755,1865
3756,1866
3757,1866
3758,1866
3759,1860
3760,1859
3761,1859
3762,1857
3763,1857
3764,1858
3765,1860
3766,1861
3767,1863
3768,1867
3769,1868
3770,1862
3771,1867
3772,1866
3773,1858
3774,1859
3775,1857
3776,1857
3777,1855
3778,1847
3779,1855
3780,1856
3781,1856
3782,1856
3783,1860
3784,1864
3785,1863
3786,1868
3787,1869
3788,1869
3789,1866
3790,1866
3791,1865
3792,1863
3793,1861
3794,1858
3795,1857
3796,1859
3797,1857
3798,1857
3799,1859
3800,1863
3801,1863
3802,1866
3803,1870
3804,1861
3805,1865
3806,1865
3807,1846
3808,1865
3809,1861
3810,1856
3811,1855
3812,1856
3813,1855
3814,1858
3815,1859
3816,1859
3817,1865
3818,1859
3819,1869
3820,1871
3821,1872
3822,1867
3823,1869
3824,1866
3825,1865
3826,1859
3827,1859
3828,1855
3829,1856
3830,1856
3831,1858
3832,1856
3833,1859
3834,1857
3835,1859
3836,1861
3837,1863
3838,1862
3839,1860
3840,1866
3841,1865
3842,1863
3843,1859
3844,1856
3845,1857
3846,1855
3847,1856
3848,1858
3849,1861
3850,1860
3851,1866
3852,1870
3853,1871
3854,1870
3855,1872
3856,1869
3857,1865
3858,1862
3859,1862
3860,1861
3861,1858
3862,1856
3863,1843
3864,1853
3865,1854
3866,1856
3867,1857
3868,1866
3869,1866
3870,1861
3871,1871
3872,1869
3873,1866
3874,1867
3875,1861
3876,1856
3877,1860
3878,1858
3879,1856
3880,1856
3881,1858
3882,1859
3883,1861
3884,1864
3885,1867
3886,1872
3887,1871
3888,1871
3889,1869
3890,1863
3891,1862
3892,1863
3893,1857
3894,1854
3895,1853
3896,1852
3897,1854
3898,1853
3899,1859
3900,1862
3901,1868
3902,1865
3903,1866
3904,1866
3905,1865
3906,1865
3907,1862
3908,1867
3909,1862
3910,1863
3911,1862
3912,1856
3913,1856
3914,1853
3915,1856
3916,1861
3917,1860
3918,1856
3919,1857
3920,1860
3921,1858
3922,1859
3923,1858
3924,1856
3925,1855
3926,1853
3927,1855
3928,1851
3929,1847
3930,1859
3931,1861
3932,1861
3933,1863
3934,1868
3935,1869
3936,1867
3937,1870
3938,1868
3939,1869
3940,1870
3941,1867
3942,1863
3943,1862
3944,1859
3945,1857
3946,1857
3947,1857
3948,1856
3949,1858
3950,1863
3951,1866
3952,1869
3953,1863
3954,1858
3955,1859
3956,1865
3957,1867
3958,1872
3959,1866
3960,1863
3961,1855
3962,1851
3963,1851
3964,1852
3965,1856
3966,1857
3967,1858
3968,1861
3969,1862
3970,1858
3971,1870
3972,1867
3973,1862
3974,1861
3975,1862
3976,1859
3977,1861
3978,1858
3979,1858
3980,1860
3981,1857
3982,1860
3983,1850
3984,1859
3985,1861
3986,1863
3987,1861
3988,1859
3989,1863
3990,1863
3991,1863
3992,1858
3993,1858
3994,1856
3995,1857
3996,1856
3997,1859
3998,1860
3999,1859
4000,1864
4001,1867
4002,1867
4003,1867
4004,1865
4005,1865
4006,1861
4007,1859
4008,1857
4009,1857
4010,1859
4011,1859
4012,1855
4013,1852
4014,1841
4015,1847
4016,1854
4017,1856
4018,1869
4019,1870
4020,1871
4021,1872
4022,1872
4023,1863
4024,1866
4025,1862
4026,1859
4027,1858
4028,1857
4029,1862
4030,1859
4031,1855
4032,1856
4033,1862
4034,1871
4035,1870
4036,1871
4037,1871
4038,1871
4039,1869
4040,1863
4041,1860
4042,1856
4043,1859
4044,1849
4045,1851
4046,1845
4047,1853
4048,1855
4049,1851
4050,1860
4051,1867
4052,1874
4053,1872
4054,1870
4055,1867
4056,1867
4057,1863
4058,1859
4059,1857
4060,1856
4061,1855
4062,1853
4063,1856
4064,1855
4065,1859
4066,1859
4067,1862
4068,1862
4069,1866
4070,1859
4071,1865
4072,1861
4073,1862
4074,1862
4075,1861
4076,1858
4077,1855
4078,1855
4079,1853
4080,1853
4081,1856
4082,1856
4083,1859
4084,1859
4085,1857
4086,1869
4087,1872
4088,1872
4089,1867
4090,1863
4091,1859
4092,1856
4093,1856
4094,1855
4095,1854
4096,1855
4097,1859
4098,1865
4099,1865
4100,1869
4101,1868
4102,1867
4103,1867
4104,1857
4105,1858
4106,1858
4107,1855
4108,1853
4109,1856
4110,1856
4111,1856
4112,1857
4113,1858
4114,1861
4115,1859
4116,1862
4117,1862
4118,1862
4119,1857
4120,1867
4121,1867
4122,1869
4123,1862
4124,1861
4125,1858
4126,1858
4127,1857
4128,1854
4129,1853
4130,1854
4131,1857
4132,1859
4133,1859
4134,1853
4135,1856
4136,1858
4137,1866
4138,1866
4139,1864
4140,1872
4141,1873
4142,1866
4143,1858
4144,1855
4145,1854
4146,1850
4147,1850
4148,1856
4149,1858
4150,1856
4151,1859
4152,1865
4153,1866
4154,1868
4155,1863
4156,1862
4157,1866
4158,1866
4159,1867
4160,1870
4161,1863
4162,1859
4163,1856
4164,1851
4165,1850
4166,1847
4167,1849
4168,1855
4169,1856
4170,1856
4171,1855
4172,1861
4173,1867
4174,1868
4175,1871
4176,1860
4177,1856
4178,1855
4179,1855
4180,1856
4181,1867
4182,1867
4183,1867
4184,1872
4185,1872
4186,1872
4187,1866
4188,1867
4189,1859
4190,1853
4191,1850
4192,1849
4193,1851
4194,1847
4195,1842
4196,1843
4197,1847
4198,1848
4199,1857
4200,1861
4201,1859
4202,1863
4203,1863
4204,1861
4205,1858
4206,1865
4207,1864
4208,1872
4209,1869
4210,1873
4211,1877
4212,1870
4213,1861
4214,1856
4215,1853
4216,1841
4217,1846
4218,1849
4219,1851
4220,1851
4221,1856
4222,1856
4223,1857
4224,1862
4225,1867
4226,1867
4227,1872
4228,1872
4229,1877
4230,1875
4231,1872
4232,1866
4233,1857
4234,1853
4235,1838
4236,1839
4237,1833
4238,1840
4239,1845
4240,1856
4241,1859
4242,1856
4243,1856
4244,1853
4245,1855
4246,1851
4247,1855
4248,1858
4249,1863
4250,1868
4251,1871
4252,1872
4253,1873
4254,1874
4255,1872
4256,1867
4257,1863
4258,1860
4259,1852
4260,1849
4261,1846
4262,1849
4263,1843
4264,1847
4265,1851
4266,1856
4267,1862
4268,1869
4269,1871
4270,1861
4271,1867
4272,1867
4273,1867
4274,1867
4275,1863
4276,1859
4277,1860
4278,1857
4279,1856
4280,1856
4281,1857
4282,1859
4283,1861
4284,1855
4285,1859
4286,1859
4287,1863
4288,1859
4289,1865
4290,1865
4291,1867
4292,1861
4293,1861
4294,1865
4295,1862
4296,1858
4297,1858
4298,1860
4299,1859
4300,1856
4301,1858
4302,1861
4303,1863
4304,1867
4305,1869
4306,1870
4307,1870
4308,1871
4309,1866
4310,1861
4311,1861
4312,1858
4313,1856
4314,1852
4315,1850
4316,1847
4317,1854
4318,1857
4319,1861
4320,1862
4321,1866
4322,1866
4323,1863
4324,1858
4325,1855
4326,1856
4327,1857
4328,1861
4329,1861
4330,1867
4331,1870
4332,1866
4333,1863
4334,1863
4335,1862
4336,1866
4337,1863
4338,1869
4339,1866
4340,1865
4341,1861
4342,1861
4343,1856
4344,1849
4345,1841
4346,1840
4347,1842
4348,1854
4349,1858
4350,1867
4351,1873
4352,1872
4353,1872
4354,1870
4355,1871
4356,1869
4357,1870
4358,1869
4359,1861
4360,1859
4361,1858
4362,1855
4363,1855
4364,1856
4365,1856
4366,1859
4367,1859
4368,1860
4369,1863
4370,1859
4371,1858
4372,1860
4373,1859
4374,1857
4375,1856
4376,1856
4377,1856
4378,1850
4379,1847
4380,1850
4381,1855
4382,1857
4383,1859
4384,1867
4385,1867
4386,1869
4387,1867
4388,1868
4389,1868
4390,1866
4391,1862
4392,1859
4393,987
4394,2319
4395,1874
4396,1893
4397,1999
4398,2006
4399,1966
4400,1943
4401,1985
4402,2065
4403,2128
4404,2107
4405,1923
4406,1680
4407,1505
4408,1503
4409,1579
4410,1658
4411,1698
4412,1706
4413,1714
4414,1744
4415,1776
4416,1805
4417,1831
4418,1841
4419,1860
4420,1871
4421,1889
4422,1889
4423,1885
4424,1894
4425,2473
4426,1953
4427,1919
4428,2066
4429,2077
4430,2005
4431,1941
4432,1941
4433,2000
4434,2087
4435,2057
4436,1843
4437,1616
4438,1508
4439,1519
4440,1605
4441,1674
4442,1703
4443,1729
4444,1773
4445,1808
4446,1836
4447,1855
4448,1870
4449,1875
4450,1883
4451,1891
4452,1894
4453,1897
4454,1895
4455,1891
4456,2373
4457,2077
4458,1872
4459,2020
4460,2074
4461,2022
4462,1941
4463,1901
4464,1917
4465,2029
4466,1995
4467,1807
4468,1648
4469,1594
4470,1600
4471,1654
4472,1698
4473,1717
4474,1765
4475,1803
4476,1828
4477,1844
4478,1861
4479,1870
4480,1871
4481,1881
4482,1882
4483,1887
4484,1886
4485,1888
4486,1891
4487,1833
4488,2171
4489,1865
4490,1973
4491,2064
4492,2030
4493,1944
4494,1913
4495,1967
4496,2070
4497,1985
4498,1789
4499,1617
4500,1535
4501,1566
4502,1644
4503,1685
4504,1728
4505,1779
4506,1820
4507,1840
4508,1855
4509,1862
4510,1872
4511,1876
4512,1882
4513,1885
4514,1883
4515,1884
4516,1886
4517,1888
4518,1019
4519,2335
4520,1893
4521,1927
4522,2059
4523,2042
4524,1973
4525,1970
4526,2036
4527,2092
4528,1990
4529,1787
4530,1581
4531,1486
4532,1519
4533,1606
4534,1656
4535,1713
4536,1771
4537,1808
4538,1837
4539,1868
4540,1887
4541,1900
4542,1904
4543,1904
4544,1903
4545,1899
4546,1888
4547,1881
4548,1873
4549,1877
4550,2462
4551,1939
4552,1885
4553,2045
4554,2046
4555,1982
4556,2019
4557,2131
4558,2143
4559,1974
4560,1759
4561,1535
4562,1445
4563,1486
4564,1586
4565,1639
4566,1703
4567,1766
4568,1808
4569,1840
4570,1872
4571,1899
4572,1905
4573,1906
4574,1898
4575,1889
4576,1889
4577,1885
4578,1884
4579,1890
4580,1895
4581,2441
4582,2047
4583,1886
4584,2032
4585,2064
4586,1987
4587,2054
4588,2192
4589,2144
4590,1984
4591,1770
4592,1511
4593,1395
4594,1438
4595,1535
4596,1616
4597,1695
4598,1760
4599,1804
4600,1834
4601,1860
4602,1876
4603,1895
4604,1904
4605,1911
4606,1926
4607,1916
4608,1904
4609,1904
4610,1898
4611,1893
4612,2057
4613,2128
4614,1869
4615,2018
4616,2099
4617,2055
4618,2157
4619,2279
4620,2143
4621,1979
4622,1744
4623,1435
4624,1302
4625,1370
4626,1502
4627,1601
4628,1699
4629,1776
4630,1824
4631,1851
4632,1872
4633,1876
4634,1886
4635,1901
4636,1907
4637,1911
4638,1920
4639,1915
4640,1913
4641,1909
4642,1904
4643,959
4644,2303
4645,1884
4646,1963
4647,2106
4648,2068
4649,2156
4650,2339
4651,2202
4652,2029
4653,1777
4654,1430
4655,1250
4656,1322
4657,1463
4658,1583
4659,1686
4660,1769
4661,1808
4662,1840
4663,1865
4664,1884
4665,1901
4666,1904
4667,1907
4668,1911
4669,1917
4670,1909
4671,1904
4672,1901
4673,1898
4674,1776
4675,2451
4676,1944
4677,1927
4678,2097
4679,2087
4680,2127
4681,2365
4682,2230
4683,2053
4684,1823
4685,1456
4686,1238
4687,1296
4688,1455
4689,1578
4690,1689
4691,1770
4692,1805
4693,1831
4694,1856
4695,1877
4696,1893
4697,1904
4698,1910
4699,1914
4700,1911
4701,1908
4702,1904
4703,1904
4704,1894
4705,1888
4706,2478
4707,2019
4708,1891
4709,2082
4710,2112
4711,2110
4712,2401
4713,2301
4714,2085
4715,1854
4716,1456
4717,1213
4718,1264
4719,1430
4720,1563
4721,1669
4722,1751
4723,1796
4724,1831
4725,1859
4726,1882
4727,1899
4728,1904
4729,1904
4730,1904
4731,1906
4732,1907
4733,1905
4734,1905
4735,1903
4736,1899
4737,2229
4738,2114
4739,1863
4740,2029
4741,2105
4742,2075
4743,2405
4744,2356
4745,2107
4746,1887
4747,1498
4748,1235
4749,1266
4750,1427
4751,1557
4752,1665
4753,1749
4754,1805
4755,1834
4756,1854
4757,1871
4758,1888
4759,1903
4760,1917
4761,1922
4762,1921
4763,1915
4764,1904
4765,1893
4766,1885
4767,1887
4768,1022
4769,2247
4770,1841
4771,1938
4772,2096
4773,2063
4774,2344
4775,2478
4776,2160
4777,1930
4778,1554
4779,1250
4780,1245
4781,1402
4782,1530
4783,1639
4784,1733
4785,1791
4786,1830
4787,1858
4788,1881
4789,1904
4790,1921
4791,1933
4792,1936
4793,1926
4794,1906
4795,1889
4796,1866
4797,1865
4798,1867
4799,1287
4800,2398
4801,1906
4802,1902
4803,2082
4804,2046
4805,2288
4806,2542
4807,2208
4808,1963
4809,1595
4810,1277
4811,1261
4812,1399
4813,1526
4814,1632
4815,1721
4816,1782
4817,1811
4818,1834
4819,1859
4820,1874
4821,1892
4822,1901
4823,1904
4824,1920
4825,1929
4826,1915
4827,1909
4828,1895
4829,1889
4830,1890
4831,2481
4832,1953
4833,1842
4834,2071
4835,2079
4836,2215
4837,2587
4838,2256
4839,1973
4840,1621
4841,1295
4842,1257
4843,1395
4844,1518
4845,1616
4846,1700
4847,1770
4848,1814
4849,1841
4850,1866
4851,1885
4852,1902
4853,1909
4854,1904
4855,1899
4856,1904
4857,1906
4858,1906
4859,1899
4860,1897
4861,1889
4862,2235
4863,2103
4864,1827
4865,2000
4866,2074
4867,2093
4868,2559
4869,2367
4870,2032
4871,1731
4872,1383
4873,1269
4874,1373
4875,1491
4876,1591
4877,1682
4878,1759
4879,1801
4880,1823
4881,1854
4882,1882
4883,1893
4884,1893
4885,1899
4886,1906
4887,1914
4888,1911
4889,1914
4890,1911
4891,1907
4892,1897
4893,1447
4894,2206
4895,1840
4896,1962
4897,2085
4898,2069
4899,2527
4900,2426
4901,2047
4902,1766
4903,1410
4904,1268
4905,1361
4906,1479
4907,1583
4908,1677
4909,1758
4910,1798
4911,1827
4912,1853
4913,1871
4914,1879
4915,1891
4916,1905
4917,1908
4918,1911
4919,1910
4920,1909
4921,1906
4922,1904
4923,1907
4924,1079
4925,2355
4926,1869
4927,1894
4928,2078
4929,2032
4930,2426
4931,2519
4932,2103
4933,1814
4934,1469
4935,1280
4936,1343
4937,1463
4938,1574
4939,1675
4940,1765
4941,1808
4942,1826
4943,1840
4944,1855
4945,1865
4946,1872
4947,1879
4948,1891
4949,1904
4950,1904
4951,1907
4952,1908
4953,1909
4954,1904
4955,1903
4956,2490
4957,1973
4958,1854
4959,2054
4960,2041
4961,2279
4962,2595
4963,2160
4964,1876
4965,1556
4966,1322
4967,1335
4968,1453
4969,1535
4970,1641
4971,1730
4972,1778
4973,1811
4974,1840
4975,1871
4976,1884
4977,1898
4978,1903
4979,1904
4980,1900
4981,1902
4982,1901
4983,1887
4984,1888
4985,1887
4986,1894
4987,2417
4988,2055
4989,1814
4990,2001
4991,2064
4992,2207
4993,2650
4994,2234
4995,1902
4996,1600
4997,1351
4998,1328
4999,1437
5000,1533
5001,1630
5002,1721
5003,1786
5004,1809
5005,1837
5006,1866
5007,1881
5008,1895
5009,1904
5010,1906
5011,1895
5012,1895
5013,1909
5014,1909
5015,1907
5016,1901
5017,1891
5018,1872
5019,1871
5020,1872
5021,1874
5022,1873
5023,1873
5024,1872
5025,1872
5026,1871
5027,1869
5028,1867
5029,1861
5030,1866
5031,1867
5032,1869
5033,1869
5034,1866
5035,1862
5036,1863
5037,1861
5038,1858
5039,1852
5040,1856
5041,1858
5042,1859
5043,1857
5044,1856
5045,1859
5046,1856
5047,1856
5048,1858
5049,1863
5050,1869
5051,1866
5052,1869
5053,1869
5054,1869
5055,1865
5056,1865
5057,1856
5058,1856
5059,1858
5060,1856
5061,1856
5062,1861
5063,1855
5064,1847
5065,1852
5066,1853
5067,1854
5068,1862
5069,1863
5070,1863
5071,1868
5072,1869
5073,1863
5074,1863
5075,1859
5076,1858
5077,1856
5078,1856
5079,1856
5080,1858
5081,1858
5082,1856
5083,1857
5084,1862
5085,1865
5086,1866
5087,1867
5088,1867
5089,1868
5090,1866
5091,1865
5092,1866
5093,1861
5094,1847
5095,1850
5096,1852
5097,1855
5098,1851
5099,1856
5100,1861
5101,1864
5102,1865
5103,1866
5104,1862
5105,1863
5106,1865
5107,1861
5108,1858
5109,1856
5110,1856
5111,1851
5112,1853
5113,1852
5114,1856
5115,1856
5116,1858
5117,1872
5118,1867
5119,1863
5120,1859
5121,1858
5122,1858
5123,1856
5124,1855
5125,1851
5126,1853
5127,1851
5128,1846
5129,1843
5130,1853
5131,1854
5132,1859
5133,1857
5134,1859
5135,1861
5136,1861
5137,1861
5138,1867
5139,1870
5140,1862
5141,1862
5142,1859
5143,1857
5144,1857
5145,1856
5146,1857
5147,1856
5148,1856
5149,1856
5150,1859
5151,1866
5152,1863
5153,1865
5154,1860
5155,1856
5156,1853
5157,1857
5158,1858
5159,1857
5160,1863
5161,1864
5162,1857
5163,1855
5164,1856
5165,1858
5166,1858
5167,1859
5168,1863
5169,1865
5170,1865
5171,1859
5172,1866
5173,1867
5174,1865
5175,1861
5176,1856
5177,1856
5178,1856
5179,1855
5180,1856
5181,1856
5182,1861
5183,1863
5184,1856
5185,1856
5186,1857
5187,1858
5188,1861
5189,1865
5190,1867
5191,1866
5192,1863
5193,1859
5194,1857
5195,1854
5196,1855
5197,1856
5198,1856
5199,1855
5200,1862
5201,1865
5202,1867
5203,1868
5204,1869
5205,1869
5206,1861
5207,1863
5208,1862
5209,1857
5210,1856
5211,1855
5212,1856
5213,1857
5214,1854
5215,1848
5216,1850
5217,1855
5218,1865
5219,1866
5220,1870
5221,1867
5222,1863
5223,1863
5224,1865
5225,1862
5226,1859
5227,1859
5228,1854
5229,1855
5230,1856
5231,1856
5232,1859
5233,1856
5234,1859
5235,1861
5236,1866
5237,1867
5238,1871
5239,1870
5240,1872
5241,1872
5242,1871
5243,1850
5244,1840
5245,1850
5246,1853
5247,1857
5248,1857
5249,1857
5250,1861
5251,1854
5252,1855
5253,1857
5254,1863
5255,1866
5256,1865
5257,1867
5258,1859
5259,1855
5260,1856
5261,1855
5262,1856
5263,1855
5264,1874
5265,1879
5266,1867
5267,1871
5268,1863
5269,1858
5270,1853
5271,1855
5272,1856
5273,1861
5274,1861
5275,1857
5276,1856
5277,1856
5278,1855
5279,1854
5280,1855
5281,1857
5282,1860
5283,1865
5284,1865
5285,1868
5286,1872
5287,1869
5288,1871
5289,1872
5290,1869
5291,1859
5292,1855
5293,1855
5294,1855
5295,1856
5296,1855
5297,1859
5298,1861
5299,1859
5300,1859
5301,1861
5302,1863
5303,1867
5304,1861
5305,1859
5306,1860
5307,1862
5308,1872
5309,1871
5310,1869
5311,1858
5312,1851
5313,1840
5314,1842
5315,1851
5316,1856
5317,1865
5318,1868
5319,1872
5320,1866
5321,1868
5322,1868
5323,1865
5324,1862
5325,1858
5326,1856
5327,1856
5328,1858
5329,1865
5330,1867
5331,1872
5332,1872
5333,1861
5334,1850
5335,1861
5336,1861
5337,1857
5338,1851
5339,1851
5340,1855
5341,1862
5342,1871
5343,1862
5344,1860
5345,1856
5346,1856
5347,1857
5348,1860
5349,1861
5350,1859
5351,1868
5352,1871
5353,1872
5354,1871
5355,1867
5356,1862
5357,1861
5358,1865
5359,1860
5360,1858
5361,1857
5362,1856
5363,1857
5364,1854
5365,1855
5366,1856
5367,1859
5368,1869
5369,1869
5370,1863
5371,1870
5372,1869
5373,1866
5374,1863
5375,1867
5376,1862
5377,1857
5378,1855
5379,1856
5380,1857
5381,1863
5382,1863
5383,1863
5384,1869
5385,1869
5386,1871
5387,1868
5388,1865
5389,1866
5390,1861
5391,1862
5392,1862
5393,1860
5394,1855
5395,1856
5396,1851
5397,1851
5398,1852
5399,1859
5400,1862
5401,1866
5402,1863
5403,1863
5404,1867
5405,1869
5406,1871
5407,1871
5408,1863
5409,1862
5410,1861
5411,1859
5412,1859
5413,1860
5414,1861
5415,1863
5416,1856
5417,1856
5418,1851
5419,1856
5420,1858
5421,1860
5422,1860
5423,1863
5424,1861
5425,1855
5426,1857
5427,1869
5428,1863
5429,1860
5430,1855
5431,1851
5432,1843
5433,1855
5434,1860
5435,1869
5436,1877
5437,1867
5438,1860
5439,1867
5440,1866
5441,1866
5442,1862
5443,1860
5444,1856
5445,1857
5446,1856
5447,1858
5448,1857
5449,1858
5450,1861
5451,1865
5452,1867
5453,1869
5454,1859
5455,1861
5456,1859
5457,1860
5458,1866
5459,1866
5460,1862
5461,1859
5462,1863
5463,1859
5464,1858
5465,1859
5466,1858
5467,1867
5468,1869
5469,1873
5470,1866
5471,1872
5472,1872
5473,1866
5474,1862
5475,1858
5476,1858
5477,1859
5478,1853
5479,1855
5480,1858
5481,1859
5482,1861
5483,1857
5484,1856
5485,1857
5486,1858
5487,1865
5488,1862
5489,1867
5490,1863
5491,1867
5492,1865
5493,1861
5494,1859
5495,1861
5496,1858
5497,1855
5498,1859
5499,1857
5500,1865
5501,1867
5502,1866
5503,1862
5504,1866
5505,1862
5506,1867
5507,1866
5508,1859
5509,1865
5510,1865
5511,1855
5512,1856
5513,1851
5514,1849
5515,1853
5516,1856
5517,1860
5518,1870
5519,1867
5520,1866
5521,1867
5522,1869
5523,1862
5524,1858
5525,1863
5526,1860
5527,1857
5528,1854
5529,1853
5530,1854
5531,1856
5532,1863
5533,1856
5534,1854
5535,1858
5536,1858
5537,1866
5538,1872
5539,1873
5540,1871
5541,1865
5542,1862
5543,1867
5544,1861
5545,1859
5546,1863
5547,1856
5548,1853
5549,1849
5550,1856
5551,1859
5552,1861
5553,1863
5554,1861
5555,1868
5556,1866
5557,1869
5558,1869
5559,1866
5560,1864
5561,1863
5562,1862
5563,1862
5564,1859
5565,1856
5566,1856
5567,1858
5568,1861
5569,1863
5570,1863
5571,1859
5572,1843
5573,1829
5574,1830
5575,1839
5576,1846
5577,1855
5578,1864
5579,1874
5580,1873
5581,1869
5582,1871
5583,1871
5584,1871
5585,1869
5586,1863
5587,1869
5588,1870
5589,1865
5590,1869
5591,1863
5592,1865
5593,1863
5594,1859
5595,1856
5596,1854
5597,1857
5598,1859
5599,1862
5600,1858
5601,1858
5602,1861
5603,1863
5604,1856
5605,1859
5606,1856
5607,1856
5608,1866
5609,1856
5610,1857
5611,1858
5612,1856
5613,1856
5614,1856
5615,1861
5616,1859
5617,1863
5618,1859
5619,1872
5620,1872
5621,1876
5622,1880
5623,1877
5624,1874
5625,1870
5626,1860
5627,1847
5628,1841
5629,1840
5630,1842
5631,1840
5632,1841
5633,1844
5634,1849
5635,1855
5636,1860
5637,1863
5638,1863
5639,1859
5640,1871
5641,1871
5642,1867
5643,1872
5644,1872
5645,1853
5646,1839
5647,1835
5648,1838
5649,1833
5650,1840
5651,1871
5652,1887
5653,1883
5654,1877
5655,1875
5656,1877
5657,1873
5658,1871
5659,1867
5660,1866
5661,1865
5662,1863
5663,1855
5664,1844
5665,1850
5666,1854
5667,1857
5668,1862
5669,1853
5670,1862
5671,1869
5672,1871
5673,1869
5674,1866
5675,1859
5676,1857
5677,1854
5678,1854
5679,1856
5680,1856
5681,1859
5682,1856
5683,1856
5684,1860
5685,1861
5686,1866
5687,1861
5688,1856
5689,1853
5690,1857
5691,1868
5692,1877
5693,1877
5694,1871
5695,1871
5696,1862
5697,1861
5698,1855
5699,1863
5700,1870
5701,1869
5702,1869
5703,1868
5704,1857
5705,1847
5706,1845
5707,1847
5708,1851
5709,1847
5710,1853
5711,1872
5712,1881
5713,1869
5714,1855
5715,1850
5716,1842
5717,1840
5718,1841
5719,1852
5720,1866
5721,1867
5722,1861
5723,1862
5724,1861
5725,1851
5726,1840
5727,1834
5728,1837
5729,1841
5730,1856
5731,1863
5732,1863
5733,1867
5734,1869
5735,1869
5736,1872
5737,1872
5738,1869
5739,1869
5740,1868
5741,1866
5742,1870
5743,1879
5744,1883
5745,1871
5746,1850
5747,1850
5748,1844
5749,1843
5750,1844
5751,1858
5752,1871
5753,1863
5754,1847
5755,1846
5756,1856
5757,1861
5758,1866
5759,1869
5760,1871
5761,1865
5762,1861
5763,1858
5764,1861
5765,1860
5766,1861
5767,1865
5768,1865
5769,1870
5770,1868
5771,1873
5772,1872
5773,1872
5774,1868
5775,1863
5776,1860
5777,1858
5778,1855
5779,1845
5780,1847
5781,1852
5782,1855
5783,1856
5784,1855
5785,1862
5786,1866
5787,1871
5788,1869
5789,1872
5790,1872
5791,1867
5792,1846
5793,1826
5794,1820
5795,1823
5796,1825
5797,1840
5798,1879
5799,1885
5800,1884
5801,1889
5802,1889
5803,1888
5804,1882
5805,1877
5806,1867
5807,1857
5808,1856
5809,1866
5810,1873
5811,1873
5812,1869
5813,1861
5814,1840
5815,1834
5816,1837
5817,1840
5818,1859
5819,1863
5820,1867
5821,1866
5822,1863
5823,1860
5824,1857
5825,1857
5826,1853
5827,1850
5828,1849
5829,1850
5830,1851
5831,1861
5832,1865
5833,1870
5834,1869
5835,1869
5836,1872
5837,1873
5838,1873
5839,1872
5840,1871
5841,1862
5842,1855
5843,1843
5844,1846
5845,1849
5846,1849
5847,1852
5848,1850
5849,1852
5850,1858
5851,1866
5852,1872
5853,1871
5854,1872
5855,1867
5856,1865
5857,1866
5858,1861
5859,1861
5860,1858
5861,1853
5862,1856
5863,1861
5864,1856
5865,1857
5866,1858
5867,1863
5868,1867
5869,1865
5870,1858
5871,1856
5872,1858
5873,1856
5874,1859
5875,1861
5876,1859
5877,1862
5878,1856
5879,1860
5880,1861
5881,1862
5882,1863
5883,1863
5884,1866
5885,1866
5886,1863
5887,1860
5888,1863
5889,1858
5890,1857
5891,1859
5892,1857
5893,1858
5894,1855
5895,1856
5896,1856
5897,1856
5898,1856
5899,1854
5900,1855
5901,1857
5902,1862
5903,1871
5904,1867
5905,1872
5906,1871
5907,1867
5908,1869
5909,1868
5910,1867
5911,1862
5912,1856
5913,1855
5914,1856
5915,1856
5916,1857
5917,1858
5918,1855
5919,1866
5920,1863
5921,1867
5922,1867
5923,1865
5924,1865
5925,1860
5926,1857
5927,1858
5928,1857
5929,1858
5930,1862
5931,1863
5932,1863
5933,1862
5934,1856
5935,1855
5936,1857
5937,1861
5938,1856
5939,1849
5940,1858
5941,1856
5942,1858
5943,1856
5944,1855
5945,1859
5946,1856
5947,1857
5948,1858
5949,1857
5950,1861
5951,1867
5952,1866
5953,1871
5954,1871
5955,1869
5956,1868
5957,1869
5958,1865
5959,1861
5960,1856
5961,1853
5962,1850
5963,1854
5964,1851
5965,1854
5966,1856
5967,1863
5968,1870
5969,1867
5970,1859
5971,1868
5972,1862
5973,1866
5974,1865
5975,1859
5976,1857
5977,1859
5978,1858
5979,1857
5980,1856
5981,1859
5982,1858
5983,1858
5984,1861
5985,1865
5986,1871
5987,1867
5988,1867
5989,1867
5990,1866
5991,1868
5992,1863
5993,1861
5994,1851
5995,1853
5996,1853
5997,1851
5998,1851
5999,1857
6000,1865
6001,1865
6002,1863
6003,1866
6004,1867
6005,1865
6006,1863
6007,1863
6008,1865
6009,1859
6010,1862
6011,1857
6012,1853
6013,1847
6014,1851
6015,1851
6016,1856
6017,1393
6018,2368
6019,1919
6020,1923
6021,2064
6022,2078
6023,2028
6024,1983
6025,1983
6026,2013
6027,2033
6028,1989
6029,1840
6030,1664
6031,1522
6032,1519
6033,1586
6034,1657
6035,1699
6036,1718
6037,1735
6038,1769
6039,1794
6040,1821
6041,1840
6042,1851
6043,1859
6044,1866
6045,1872
6046,1877
6047,1886
6048,1893
6049,2463
6050,2020
6051,1930
6052,2115
6053,2144
6054,2089
6055,1999
6056,1963
6057,1977
6058,2000
6059,1951
6060,1790
6061,1604
6062,1499
6063,1501
6064,1574
6065,1664
6066,1713
6067,1739
6068,1776
6069,1817
6070,1842
6071,1863
6072,1875
6073,1887
6074,1895
6075,1899
6076,1889
6077,1891
6078,1893
6079,1892
6080,2214
6081,2097
6082,1887
6083,2061
6084,2126
6085,2081
6086,2000
6087,1951
6088,1936
6089,1990
6090,1943
6091,1789
6092,1622
6093,1535
6094,1533
6095,1607
6096,1680
6097,1718
6098,1761
6099,1808
6100,1843
6101,1866
6102,1873
6103,1887
6104,1893
6105,1899
6106,1894
6107,1898
6108,1896
6109,1890
6110,1884
6111,1157
6112,2211
6113,1872
6114,1985
6115,2111
6116,2093
6117,2011
6118,1978
6119,1971
6120,2036
6121,1958
6122,1787
6123,1603
6124,1503
6125,1511
6126,1600
6127,1667
6128,1712
6129,1764
6130,1809
6131,1840
6132,1859
6133,1872
6134,1883
6135,1885
6136,1888
6137,1895
6138,1889
6139,1889
6140,1897
6141,1904
6142,1227
6143,2382
6144,1933
6145,1936
6146,2064
6147,2059
6148,1979
6149,1959
6150,2015
6151,2064
6152,1975
6153,1807
6154,1609
6155,1509
6156,1520
6157,1603
6158,1659
6159,1703
6160,1760
6161,1792
6162,1823
6163,1847
6164,1870
6165,1879
6166,1887
6167,1898
6168,1894
6169,1901
6170,1894
6171,1893
6172,1902
6173,1902
6174,2466
6175,1997
6176,1892
6177,2064
6178,2091
6179,2021
6180,2025
6181,2085
6182,2085
6183,1968
6184,1809
6185,1600
6186,1470
6187,1466
6188,1567
6189,1641
6190,1698
6191,1754
6192,1798
6193,1833
6194,1856
6195,1873
6196,1891
6197,1891
6198,1897
6199,1901
6200,1895
6201,1886
6202,1889
6203,1889
6204,1881
6205,2207
6206,2095
6207,1900
6208,2089
6209,2155
6210,2084
6211,2083
6212,2127
6213,2099
6214,1961
6215,1777
6216,1531
6217,1385
6218,1376
6219,1513
6220,1601
6221,1680
6222,1754
6223,1808
6224,1840
6225,1861
6226,1870
6227,1878
6228,1890
6229,1904
6230,1906
6231,1925
6232,1917
6233,1909
6234,1899
6235,1895
6236,1177
6237,2229
6238,1912
6239,2038
6240,2160
6241,2101
6242,2102
6243,2169
6244,2135
6245,1973
6246,1801
6247,1555
6248,1358
6249,1331
6250,1468
6251,1582
6252,1675
6253,1755
6254,1810
6255,1843
6256,1873
6257,1897
6258,1911
6259,1920
6260,1922
6261,1911
6262,1913
6263,1894
6264,1876
6265,1869
6266,1861
6267,1217
6268,2367
6269,1915
6270,1984
6271,2145
6272,2122
6273,2107
6274,2213
6275,2177
6276,2033
6277,1882
6278,1586
6279,1332
6280,1291
6281,1421
6282,1535
6283,1651
6284,1744
6285,1801
6286,1834
6287,1863
6288,1885
6289,1904
6290,1906
6291,1911
6292,1909
6293,1913
6294,1911
6295,1904
6296,1895
6297,1889
6298,1879
6299,2467
6300,1987
6301,1949
6302,2133
6303,2133
6304,2103
6305,2240
6306,2201
6307,2057
6308,1906
6309,1596
6310,1323
6311,1274
6312,1404
6313,1535
6314,1639
6315,1724
6316,1779
6317,1814
6318,1843
6319,1875
6320,1904
6321,1917
6322,1922
6323,1919
6324,1906
6325,1904
6326,1904
6327,1903
6328,1886
6329,1871
6330,2395
6331,2054
6332,1914
6333,2119
6334,2160
6335,2112
6336,2279
6337,2261
6338,2080
6339,1927
6340,1626
6341,1329
6342,1251
6343,1375
6344,1505
6345,1616
6346,1705
6347,1776
6348,1818
6349,1839
6350,1852
6351,1875
6352,1901
6353,1911
6354,1919
6355,1921
6356,1917
6357,1917
6358,1927
6359,1919
6360,1909
6361,1764
6362,2170
6363,1892
6364,2076
6365,2167
6366,2110
6367,2259
6368,2314
6369,2118
6370,1979
6371,1687
6372,1349
6373,1230
6374,1328
6375,1471
6376,1589
6377,1695
6378,1773
6379,1813
6380,1842
6381,1872
6382,1898
6383,1908
6384,1911
6385,1918
6386,1931
6387,1933
6388,1923
6389,1920
6390,1913
6391,1898
6392,918
6393,2290
6394,1884
6395,1999
6396,2154
6397,2103
6398,2206
6399,2336
6400,2187
6401,2033
6402,1750
6403,1380
6404,1212
6405,1306
6406,1467
6407,1588
6408,1690
6409,1766
6410,1811
6411,1840
6412,1859
6413,1885
6414,1902
6415,1906
6416,1917
6417,1919
6418,1921
6419,1918
6420,1915
6421,1911
6422,1906
6423,1794
6424,2442
6425,1943
6426,1935
6427,2128
6428,2097
6429,2135
6430,2338
6431,2217
6432,2063
6433,1801
6434,1437
6435,1233
6436,1290
6437,1452
6438,1575
6439,1681
6440,1775
6441,1822
6442,1854
6443,1883
6444,1891
6445,1892
6446,1889
6447,1887
6448,1895
6449,1915
6450,1921
6451,1920
6452,1914
6453,1907
6454,1905
6455,2445
6456,2032
6457,1887
6458,2094
6459,2118
6460,2096
6461,2353
6462,2313
6463,2101
6464,1829
6465,1463
6466,1260
6467,1292
6468,1441
6469,1574
6470,1665
6471,1744
6472,1803
6473,1830
6474,1855
6475,1867
6476,1879
6477,1889
6478,1894
6479,1919
6480,1925
6481,1911
6482,1900
6483,1891
6484,1890
6485,1898
6486,2007
6487,2147
6488,1870
6489,2035
6490,2117
6491,2057
6492,2320
6493,2355
6494,2135
6495,1933
6496,1584
6497,1302
6498,1275
6499,1408
6500,1535
6501,1646
6502,1744
6503,1813
6504,1838
6505,1853
6506,1872
6507,1874
6508,1877
6509,1877
6510,1897
6511,1906
6512,1908
6513,1908
6514,1908
6515,1904
6516,1902
6517,968
6518,2279
6519,1885
6520,1977
6521,2124
6522,2037
6523,2252
6524,2393
6525,2179
6526,2005
6527,1679
6528,1354
6529,1265
6530,1390
6531,1525
6532,1631
6533,1729
6534,1789
6535,1824
6536,1829
6537,1831
6538,1847
6539,1861
6540,1885
6541,1905
6542,1914
6543,1911
6544,1910
6545,1906
6546,1904
6547,1898
6548,1518
6549,2413
6550,1920
6551,1921
6552,2110
6553,2047
6554,2163
6555,2438
6556,2239
6557,2045
6558,1733
6559,1392
6560,1253
6561,1345
6562,1486
6563,1586
6564,1680
6565,1762
6566,1810
6567,1850
6568,1878
6569,1897
6570,1904
6571,1902
6572,1914
6573,1915
6574,1909
6575,1904
6576,1904
6577,1903
6578,1895
6579,1894
6580,2434
6581,2017
6582,1878
6583,2091
6584,2107
6585,2119
6586,2474
6587,2341
6588,2065
6589,1767
6590,1418
6591,1247
6592,1300
6593,1444
6594,1557
6595,1659
6596,1745
6597,1803
6598,1829
6599,1846
6600,1864
6601,1867
6602,1881
6603,1903
6604,1938
6605,1949
6606,1933
6607,1917
6608,1904
6609,1889
6610,1888
6611,1994
6612,2131
6613,1853
6614,2001
6615,2084
6616,2023
6617,2375
6618,2378
6619,2131
6620,1913
6621,1569
6622,1299
6623,1287
6624,1423
6625,1535
6626,1648
6627,1730
6628,1776
6629,1808
6630,1840
6631,1858
6632,1871
6633,1891
6634,1913
6635,1927
6636,1928
6637,1923
6638,1918
6639,1906
6640,1899
6641,1902
6642,1888
6643,1877
6644,1870
6645,1862
6646,1866
6647,1869
6648,1872
6649,1872
6650,1874
6651,1873
6652,1873
6653,1870
6654,1872
6655,1869
6656,1868
6657,1867
6658,1865
6659,1859
6660,1858
6661,1857
6662,1857
6663,1857
6664,1862
6665,1866
6666,1865
6667,1867
6668,1866
6669,1866
6670,1865
6671,1869
6672,1870
6673,1870
6674,1863
6675,1857
6676,1855
6677,1856
6678,1857
6679,1857
6680,1856
6681,1856
6682,1858
6683,1853
6684,1853
6685,1851
6686,1857
6687,1860
6688,1858
6689,1866
6690,1861
6691,1862
6692,1861
6693,1857
6694,1859
6695,1858
6696,1856
6697,1859
6698,1855
6699,1854
6700,1856
6701,1857
6702,1858
6703,1859
6704,1861
6705,1863
6706,1866
6707,1866
6708,1859
6709,1856
6710,1855
6711,1851
6712,1851
6713,1845
6714,1850
6715,1851
6716,1855
6717,1856
6718,1863
6719,1865
6720,1867
6721,1868
6722,1866
6723,1866
6724,1865
6725,1862
6726,1858
6727,1856
6728,1855
6729,1853
6730,1854
6731,1856
6732,1857
6733,1861
6734,1862
6735,1867
6736,1871
6737,1871
6738,1868
6739,1867
6740,1866
6741,1863
6742,1858
6743,1845
6744,1847
6745,1847
6746,1849
6747,1855
6748,1851
6749,1843
6750,1853
6751,1859
6752,1863
6753,1862
6754,1869
6755,1872
6756,1875
6757,1872
6758,1865
6759,1859
6760,1857
6761,1856
6762,1855
6763,1854
6764,1855
6765,1856
6766,1862
6767,1866
6768,1867
6769,1872
6770,1869
6771,1862
6772,1859
6773,1858
6774,1858
6775,1853
6776,1847
6777,1850
6778,1845
6779,1847
6780,1853
6781,1857
6782,1858
6783,1865
6784,1865
6785,1858
6786,1865
6787,1867
6788,1872
6789,1870
6790,1870
6791,1862
6792,1858
6793,1858
6794,1858
6795,1859
6796,1857
6797,1858
6798,1856
6799,1857
6800,1853
6801,1850
6802,1865
6803,1861
6804,1863
6805,1873
6806,1886
6807,1856
6808,1854
6809,1857
6810,1859
6811,1855
6812,1845
6813,1846
6814,1846
6815,1859
6816,1862
6817,1861
6818,1859
6819,1870
6820,1869
6821,1872
6822,1869
6823,1866
6824,1862
6825,1861
6826,1856
6827,1856
6828,1859
6829,1859
6830,1866
6831,1859
6832,1861
6833,1859
6834,1865
6835,1867
6836,1867
6837,1867
6838,1869
6839,1847
6840,1860
6841,1855
6842,1855
6843,1853
6844,1855
6845,1856
6846,1856
6847,1856
6848,1858
6849,1857
6850,1866
6851,1866
6852,1869
6853,1868
6854,1872
6855,1872
6856,1869
6857,1863
6858,1863
6859,1865
6860,1861
6861,1856
6862,1856
6863,1847
6864,1853
6865,1854
6866,1855
6867,1860
6868,1867
6869,1869
6870,1870
6871,1869
6872,1870
6873,1866
6874,1868
6875,1858
6876,1860
6877,1856
6878,1858
6879,1855
6880,1856
6881,1856
6882,1855
6883,1858
6884,1863
6885,1866
6886,1871
6887,1872
6888,1869
6889,1871
6890,1867
6891,1868
6892,1862
6893,1856
6894,1852
6895,1851
6896,1850
6897,1857
6898,1853
6899,1854
6900,1859
6901,1866
6902,1868
6903,1872
6904,1868
6905,1865
6906,1863
6907,1856
6908,1859
6909,1866
6910,1862
6911,1865
6912,1870
6913,1853
6914,1845
6915,1850
6916,1858
6917,1857
6918,1858
6919,1867
6920,1862
6921,1865
6922,1857
6923,1856
6924,1853
6925,1858
6926,1854
6927,1854
6928,1856
6929,1856
6930,1861
6931,1863
6932,1872
6933,1863
6934,1868
6935,1870
6936,1872
6937,1866
6938,1862
6939,1855
6940,1856
6941,1860
6942,1859
6943,1857
6944,1853
6945,1855
6946,1856
6947,1859
6948,1867
6949,1875
6950,1882
6951,1885
6952,1872
6953,1870
6954,1859
6955,1843
6956,1844
6957,1843
6958,1855
6959,1859
6960,1858
6961,1859
6962,1855
6963,1856
6964,1861
6965,1860
6966,1862
6967,1863
6968,1861
6969,1863
6970,1870
6971,1872
6972,1872
6973,1872
6974,1871
6975,1861
6976,1860
6977,1857
6978,1857
6979,1858
6980,1858
6981,1862
6982,1867
6983,1859
6984,1860
6985,1859
6986,1856
6987,1863
6988,1865
6989,1863
6990,1861
6991,1858
6992,1862
6993,1861
6994,1862
6995,1861
6996,1863
6997,1859
6998,1858
6999,1855
7000,1858
7001,1868
7002,1873
7003,1872
7004,1869
7005,1866
7006,1865
7007,1870
7008,1861
7009,1856
7010,1855
7011,1857
7012,1872
7013,1879
7014,1889
7015,1887
7016,1866
7017,1841
7018,1849
7019,1846
7020,1846
7021,1855
7022,1866
7023,1871
7024,1862
7025,1846
7026,1849
7027,1856
7028,1856
7029,1857
7030,1854
7031,1854
7032,1856
7033,1847
7034,1852
7035,1863
7036,1875
7037,1887
7038,1887
7039,1870
7040,1867
7041,1866
7042,1856
7043,1840
7044,1840
7045,1850
7046,1858
7047,1857
7048,1855
7049,1847
7050,1855
7051,1858
7052,1867
7053,1869
7054,1867
7055,1869
7056,1867
7057,1869
7058,1867
7059,1863
7060,1860
7061,1859
7062,1857
7063,1856
7064,1857
7065,1860
7066,1857
7067,1860
7068,1867
7069,1868
7070,1870
7071,1866
7072,1867
7073,1861
7074,1856
7075,1857
7076,1855
7077,1859
7078,1861
7079,1859
7080,1863
7081,1861
7082,1854
7083,1854
7084,1856
7085,1858
7086,1862
7087,1869
7088,1872
7089,1872
7090,1861
7091,1856
7092,1856
7093,1856
7094,1855
7095,1856
7096,1859
7097,1862
7098,1863
7099,1863
7100,1874
7101,1885
7102,1893
7103,1882
7104,1865
7105,1851
7106,1843
7107,1853
7108,1850
7109,1840
7110,1834
7111,1830
7112,1840
7113,1853
7114,1865
7115,1882
7116,1886
7117,1873
7118,1872
7119,1872
7120,1870
7121,1872
7122,1872
7123,1872
7124,1871
7125,1861
7126,1843
7127,1839
7128,1836
7129,1838
7130,1850
7131,1868
7132,1892
7133,1895
7134,1882
7135,1872
7136,1865
7137,1857
7138,1851
7139,1855
7140,1856
7141,1856
7142,1854
7143,1853
7144,1853
7145,1861
7146,1859
7147,1858
7148,1862
7149,1862
7150,1862
7151,1863
7152,1867
7153,1871
7154,1872
7155,1875
7156,1872
7157,1870
7158,1867
7159,1864
7160,1863
7161,1858
7162,1853
7163,1843
7164,1853
7165,1850
7166,1854
7167,1858
7168,1861
7169,1869
7170,1867
7171,1870
7172,1862
7173,1859
7174,1856
7175,1855
7176,1857
7177,1859
7178,1861
7179,1861
7180,1869
7181,1873
7182,1858
7183,1852
7184,1853
7185,1858
7186,1862
7187,1857
7188,1867
7189,1872
7190,1863
7191,1854
7192,1853
7193,1847
7194,1850
7195,1854
7196,1855
7197,1856
7198,1856
7199,1867
7200,1871
7201,1873
7202,1877
7203,1879
7204,1877
7205,1882
7206,1879
7207,1871
7208,1862
7209,1855
7210,1847
7211,1840
7212,1838
7213,1840
7214,1847
7215,1853
7216,1853
7217,1862
7218,1858
7219,1860
7220,1866
7221,1867
7222,1859
7223,1860
7224,1857
7225,1856
7226,1856
7227,1857
7228,1856
7229,1853
7230,1861
7231,1856
7232,1856
7233,1865
7234,1867
7235,1869
7236,1867
7237,1862
7238,1863
7239,1861
7240,1862
7241,1865
7242,1858
7243,1859
7244,1861
7245,1860
7246,1858
7247,1857
7248,1860
7249,1857
7250,1863
7251,1862
7252,1862
7253,1857
7254,1859
7255,1857
7256,1856
7257,1858
7258,1861
7259,1856
7260,1859
7261,1858
7262,1857
7263,1856
7264,1861
7265,1859
7266,1860
7267,1863
7268,1865
7269,1867
7270,1865
7271,1866
7272,1862
7273,1869
7274,1871
7275,1867
7276,1862
7277,1859
7278,1857
7279,1857
7280,1856
7281,1856
7282,1856
7283,1852
7284,1854
7285,1856
7286,1859
7287,1863
7288,1859
7289,1863
7290,1866
7291,1861
7292,1859
7293,1863
7294,1868
7295,1872
7296,1869
7297,1870
7298,1872
7299,1887
7300,1879
7301,1851
7302,1829
7303,1829
7304,1847
7305,1856
7306,1856
7307,1863
7308,1866
7309,1863
7310,1856
7311,1855
7312,1856
7313,1853
7314,1852
7315,1856
7316,1862
7317,1862
7318,1865
7319,1865
7320,1867
7321,1867
7322,1867
7323,1866
7324,1863
7325,1860
7326,1858
7327,1857
7328,1853
7329,1855
7330,1853
7331,1855
7332,1856
7333,1863
7334,1866
7335,1863
7336,1867
7337,1869
7338,1870
7339,1872
7340,1870
7341,1863
7342,1865
7343,1857
7344,1856
7345,1856
7346,1854
7347,1855
7348,1856
7349,1857
7350,1862
7351,1868
7352,1867
7353,1867
7354,1865
7355,1861
7356,1857
7357,1856
7358,1857
7359,1862
7360,1862
7361,1861
7362,1862
7363,1859
7364,1862
7365,1858
7366,1861
7367,1861
7368,1865
7369,1869
7370,1861
7371,1856
7372,1851
7373,1845
7374,1843
7375,1842
7376,1847
7377,1856
7378,1862
7379,1869
7380,1872
7381,1872
7382,1866
7383,1867
7384,1871
7385,1872
7386,1872
7387,1869
7388,1863
7389,1863
7390,1859
7391,1861
7392,1858
7393,1855
7394,1851
7395,1847
7396,1844
7397,1850
7398,1853
7399,1851
7400,1845
7401,1856
7402,1868
7403,1857
7404,1866
7405,1871
7406,1877
7407,1876
7408,1873
7409,1857
7410,1843
7411,1843
7412,1854
7413,1853
7414,1856
7415,1859
7416,1878
7417,1879
7418,1866
7419,1872
7420,1872
7421,1872
7422,1859
7423,1850
7424,1851
7425,1847
7426,1846
7427,1849
7428,1858
7429,1864
7430,1858
7431,1861
7432,1867
7433,1861
7434,1867
7435,1877
7436,1875
7437,1871
7438,1859
7439,1847
7440,1845
7441,1840
7442,1843
7443,1851
7444,1855
7445,1861
7446,1861
7447,1860
7448,1856
7449,1857
7450,1865
7451,1871
7452,1874
7453,1878
7454,1873
7455,1872
7456,1866
7457,1861
7458,1861
7459,1857
7460,1855
7461,1846
7462,1840
7463,1835
7464,1835
7465,1841
7466,1857
7467,1872
7468,1873
7469,1872
7470,1872
7471,1870
7472,1867
7473,1866
7474,1871
7475,1868
7476,1861
7477,1858
7478,1858
7479,1857
7480,1856
7481,1860
7482,1859
7483,1863
7484,1866
7485,1867
7486,1869
7487,1867
7488,1867
7489,1863
7490,1863
7491,1861
7492,1856
7493,1853
7494,1852
7495,1850
7496,1850
7497,1857
7498,1854
7499,1866
7500,1866
7501,1863
7502,1869
7503,1871
7504,1870
7505,1871
7506,1869
7507,1865
7508,1859
7509,1859
7510,1855
7511,1856
7512,1857
7513,1856
7514,1857
7515,1856
7516,1844
7517,1857
7518,1859
7519,1859
7520,1863
7521,1866
7522,1863
7523,1869
7524,1871
7525,1863
7526,1855
7527,1853
7528,1843
7529,1838
7530,1840
7531,1841
7532,1846
7533,1856
7534,1871
7535,1870
7536,1871
7537,1872
7538,1871
7539,1871
7540,1866
7541,1870
7542,1871
7543,1857
7544,1845
7545,1845
7546,1850
7547,1853
7548,1857
7549,1869
7550,1867
7551,1866
7552,1862
7553,1856
7554,1855
7555,1849
7556,1851
7557,1856
7558,1870
7559,1867
7560,1872
7561,1867
7562,1861
7563,1863
7564,1861
7565,1859
7566,1862
7567,1859
7568,1862
7569,1867
7570,1863
7571,1856
7572,1865
7573,1865
7574,1859
7575,1856
7576,1861
7577,1858
7578,1857
7579,1859
7580,1863
7581,1869
7582,1861
7583,1855
7584,1859
7585,1858
7586,1866
7587,1870
7588,1865
7589,1860
7590,1867
7591,1862
7592,1866
7593,1865
7594,1859
7595,1855
7596,1847
7597,1847
7598,1851
7599,1856
7600,1859
7601,1862
7602,1863
7603,1866
7604,1865
7605,1863
7606,1861
7607,1867
7608,1859
7609,1861
7610,1859
7611,1858
7612,1856
7613,1853
7614,1854
7615,1853
7616,1858
7617,1856
7618,1861
7619,1862
7620,1866
7621,1867
7622,1867
7623,1869
7624,1863
7625,1861
7626,1861
7627,1861
7628,1856
7629,1855
7630,1856
7631,1856
7632,1859
7633,1858
7634,1860
7635,1863
7636,1869
7637,1869
7638,1870
7639,1863
7640,1866
7641,1863
7642,2399
7643,1965
7644,1879
7645,2011
7646,2047
7647,2017
7648,1971
7649,1955
7650,1981
7651,2019
7652,2021
7653,1910
7654,1747
7655,1597
7656,1535
7657,1600
7658,1662
7659,1702
7660,1715
7661,1727
7662,1750
7663,1781
7664,1801
7665,1823
7666,1841
7667,1860
7668,1879
7669,1894
7670,1906
7671,1903
7672,1888
7673,2228
7674,2077
7675,1882
7676,2042
7677,2117
7678,2085
7679,2002
7680,1955
7681,1968
7682,2026
7683,1995
7684,1839
7685,1658
7686,1535
7687,1535
7688,1609
7689,1673
7690,1712
7691,1735
7692,1759
7693,1801
7694,1835
7695,1849
7696,1858
7697,1872
7698,1876
7699,1882
7700,1889
7701,1888
7702,1887
7703,1882
7704,1275
7705,2203
7706,1899
7707,2031
7708,2143
7709,2124
7710,2035
7711,1947
7712,1925
7713,1985
7714,1931
7715,1783
7716,1642
7717,1559
7718,1557
7719,1630
7720,1698
7721,1736
7722,1759
7723,1791
7724,1823
7725,1840
7726,1855
7727,1869
7728,1879
7729,1887
7730,1887
7731,1886
7732,1885
7733,1882
7734,1886
7735,1088
7736,2341
7737,1916
7738,1952
7739,2105
7740,2113
7741,2035
7742,1969
7743,1999
7744,2096
7745,1989
7746,1801
7747,1616
7748,1520
7749,1520
7750,1599
7751,1677
7752,1712
7753,1753
7754,1801
7755,1831
7756,1850
7757,1860
7758,1871
7759,1879
7760,1887
7761,1886
7762,1882
7763,1874
7764,1874
7765,1879
7766,1883
7767,2425
7768,1968
7769,1907
7770,2080
7771,2109
7772,2042
7773,1980
7774,2075
7775,2131
7776,1985
7777,1804
7778,1593
7779,1478
7780,1487
7781,1577
7782,1651
7783,1691
7784,1744
7785,1792
7786,1826
7787,1855
7788,1881
7789,1901
7790,1911
7791,1915
7792,1906
7793,1885
7794,1870
7795,1869
7796,1871
7797,1875
7798,2320
7799,2045
7800,1883
7801,2067
7802,2128
7803,2062
7804,2000
7805,2111
7806,2149
7807,2000
7808,1827
7809,1589
7810,1430
7811,1436
7812,1535
7813,1630
7814,1674
7815,1728
7816,1775
7817,1808
7818,1840
7819,1876
7820,1902
7821,1899
7822,1897
7823,1904
7824,1904
7825,1883
7826,1872
7827,1883
7828,1888
7829,1597
7830,2178
7831,1907
7832,2047
7833,2143
7834,2090
7835,2036
7836,2160
7837,2203
7838,2034
7839,1847
7840,1565
7841,1361
7842,1355
7843,1479
7844,1587
7845,1653
7846,1726
7847,1783
7848,1821
7849,1845
7850,1872
7851,1894
7852,1905
7853,1909
7854,1920
7855,1918
7856,1904
7857,1899
7858,1904
7859,1904
7860,896
7861,2279
7862,1905
7863,2002
7864,2145
7865,2106
7866,2075
7867,2222
7868,2224
7869,2030
7870,1872
7871,1577
7872,1344
7873,1306
7874,1438
7875,1554
7876,1648
7877,1734
7878,1792
7879,1827
7880,1857
7881,1878
7882,1898
7883,1903
7884,1915
7885,1920
7886,1914
7887,1911
7888,1907
7889,1909
7890,1907
7891,1887
7892,2420
7893,1964
7894,1950
7895,2128
7896,2125
7897,2070
7898,2238
7899,2283
7900,2099
7901,1914
7902,1579
7903,1299
7904,1267
7905,1408
7906,1535
7907,1638
7908,1728
7909,1787
7910,1827
7911,1855
7912,1882
7913,1898
7914,1905
7915,1917
7916,1925
7917,1929
7918,1931
7919,1921
7920,1910
7921,1899
7922,1894
7923,2386
7924,2033
7925,1904
7926,2107
7927,2151
7928,2093
7929,2262
7930,2288
7931,2083
7932,1913
7933,1595
7934,1299
7935,1239
7936,1383
7937,1519
7938,1623
7939,1722
7940,1792
7941,1830
7942,1857
7943,1873
7944,1895
7945,1902
7946,1893
7947,1887
7948,1901
7949,1904
7950,1912
7951,1911
7952,1915
7953,1911
7954,2041
7955,2128
7956,1893
7957,2096
7958,2194
7959,2139
7960,2320
7961,2384
7962,2134
7963,1932
7964,1583
7965,1253
7966,1195
7967,1338
7968,1486
7969,1616
7970,1701
7971,1776
7972,1819
7973,1854
7974,1877
7975,1898
7976,1907
7977,1919
7978,1917
7979,1921
7980,1926
7981,1911
7982,1898
7983,1891
7984,1894
7985,981
7986,2256
7987,1905
7988,2032
7989,2189
7990,2137
7991,2271
7992,2423
7993,2181
7994,1964
7995,1634
7996,1282
7997,1179
7998,1318
7999,1487
8000,1606
8001,1706
8002,1777
8003,1816
8004,1838
8005,1855
8006,1875
8007,1899
8008,1909
8009,1914
8010,1919
8011,1920
8012,1912
8013,1906
8014,1904
8015,1901
8016,1363
8017,2391
8018,1927
8019,1962
8020,2154
8021,2128
8022,2203
8023,2439
8024,2224
8025,2019
8026,1731
8027,1355
8028,1199
8029,1303
8030,1467
8031,1584
8032,1684
8033,1765
8034,1818
8035,1851
8036,1873
8037,1887
8038,1902
8039,1907
8040,1919
8041,1917
8042,1916
8043,1915
8044,1913
8045,1911
8046,1904
8047,1897
8048,2416
8049,2018
8050,1904
8051,2128
8052,2149
8053,2128
8054,2430
8055,2303
8056,2042
8057,1789
8058,1409
8059,1206
8060,1289
8061,1446
8062,1568
8063,1658
8064,1743
8065,1797
8066,1826
8067,1852
8068,1877
8069,1906
8070,1921
8071,1933
8072,1934
8073,1932
8074,1927
8075,1915
8076,1902
8077,1904
8078,1899
8079,2186
8080,2094
8081,1862
8082,2071
8083,2143
8084,2106
8085,2415
8086,2379
8087,2102
8088,1838
8089,1470
8090,1232
8091,1280
8092,1434
8093,1535
8094,1648
8095,1723
8096,1776
8097,1809
8098,1829
8099,1863
8100,1891
8101,1914
8102,1917
8103,1934
8104,1953
8105,1939
8106,1934
8107,1920
8108,1904
8109,1891
8110,981
8111,2237
8112,1872
8113,1977
8114,2124
8115,2064
8116,2315
8117,2461
8118,2174
8119,1930
8120,1578
8121,1283
8122,1253
8123,1392
8124,1525
8125,1625
8126,1710
8127,1774
8128,1808
8129,1835
8130,1864
8131,1884
8132,1899
8133,1915
8134,1932
8135,1939
8136,1935
8137,1930
8138,1918
8139,1904
8140,1891
8141,1168
8142,2345
8143,1904
8144,1951
8145,2135
8146,2074
8147,2244
8148,2470
8149,2176
8150,1919
8151,1617
8152,1330
8153,1294
8154,1422
8155,1535
8156,1631
8157,1713
8158,1766
8159,1796
8160,1824
8161,1843
8162,1863
8163,1885
8164,1905
8165,1909
8166,1904
8167,1903
8168,1895
8169,1904
8170,1910
8171,1907
8172,1905
8173,2448
8174,1984
8175,1903
8176,2112
8177,2091
8178,2154
8179,2499
8180,2254
8181,1974
8182,1691
8183,1361
8184,1264
8185,1370
8186,1499
8187,1603
8188,1697
8189,1776
8190,1822
8191,1843
8192,1858
8193,1872
8194,1891
8195,1911
8196,1920
8197,1924
8198,1936
8199,1922
8200,1906
8201,1894
8202,1895
8203,1894
8204,2286
8205,2065
8206,1857
8207,2069
8208,2124
8209,2106
8210,2497
8211,2352
8212,2010
8213,1743
8214,1409
8215,1250
8216,1350
8217,1473
8218,1584
8219,1668
8220,1749
8221,1799
8222,1827
8223,1856
8224,1878
8225,1889
8226,1901
8227,1907
8228,1914
8229,1914
8230,1907
8231,1906
8232,1904
8233,1899
8234,1891
8235,1168
8236,2230
8237,1886
8238,2021
8239,2149
8240,2077
8241,2400
8242,2438
8243,2081
8244,1840
8245,1507
8246,1266
8247,1296
8248,1440
8249,1566
8250,1658
8251,1730
8252,1791
8253,1811
8254,1831
8255,1853
8256,1863
8257,1870
8258,1878
8259,1895
8260,1903
8261,1913
8262,1922
8263,1922
8264,1913
8265,1904
8266,1904
8267,1899
8268,1897
8269,1890
8270,1887
8271,1876
8272,1872
8273,1872
8274,1867
8275,1865
8276,1862
8277,1860
8278,1859
8279,1868
8280,1869
8281,1866
8282,1867
8283,1872
8284,1872
8285,1872
8286,1865
8287,1865
8288,1861
8289,1850
8290,1845
8291,1847
8292,1853
8293,1859
8294,1859
8295,1858
8296,1861
8297,1863
8298,1863
8299,1868
8300,1872
8301,1872
8302,1872
8303,1859
8304,1856
8305,1852
8306,1850
8307,1850
8308,1859
8309,1858
8310,1853
8311,1847
8312,1847
8313,1854
8314,1855
8315,1855
8316,1858
8317,1861
8318,1858
8319,1867
8320,1862
8321,1865
8322,1869
8323,1866
8324,1865
8325,1866
8326,1861
8327,1857
8328,1855
8329,1855
8330,1858
8331,1859
8332,1861
8333,1858
8334,1861
8335,1861
8336,1857
8337,1857
8338,1856
8339,1856
8340,1865
8341,1865
8342,1862
8343,1859
8344,1857
8345,1857
8346,1856
8347,1857
8348,1857
8349,1859
8350,1860
8351,1863
8352,1867
8353,1866
8354,1869
8355,1867
8356,1867
8357,1867
8358,1861
8359,1855
8360,1853
8361,1853
8362,1850
8363,1845
8364,1847
8365,1849
8366,1855
8367,1858
8368,1866
8369,1869
8370,1865
8371,1862
8372,1862
8373,1861
8374,1861
8375,1859
8376,1860
8377,1855
8378,1858
8379,1855
8380,1856
8381,1860
8382,1861
8383,1863
8384,1864
8385,1863
8386,1862
8387,1860
8388,1863
8389,1859
8390,1859
8391,1859
8392,1859
8393,1855
8394,1851
8395,1851
8396,1849
8397,1852
8398,1851
8399,1861
8400,1863
8401,1864
8402,1863
8403,1863
8404,1865
8405,1867
8406,1862
8407,1865
8408,1862
8409,1857
8410,1856
8411,1854
8412,1854
8413,1857
8414,1856
8415,1851
8416,1851
8417,1843
8418,1844
8419,1856
8420,1862
8421,1863
8422,1858
8423,1861
8424,1858
8425,1857
8426,1858
8427,1856
8428,1855
8429,1854
8430,1861
8431,1861
8432,1862
8433,1862
8434,1857
8435,1861
8436,1862
8437,1862
8438,1865
8439,1865
8440,1862
8441,1861
8442,1861
8443,1861
8444,1856
8445,1856
8446,1858
8447,1858
8448,1860
8449,1859
8450,1858
8451,1859
8452,1860
8453,1858
8454,1857
8455,1854
8456,1858
8457,1863
8458,1871
8459,1867
8460,1872
8461,1867
8462,1856
8463,1853
8464,1855
8465,1862
8466,1858
8467,1858
8468,1859
8469,1870
8470,1868
8471,1867
8472,1863
8473,1861
8474,1863
8475,1862
8476,1859
8477,1856
8478,1857
8479,1857
8480,1859
8481,1857
8482,1858
8483,1855
8484,1857
8485,1863
8486,1860
8487,1862
8488,1857
8489,1865
8490,1862
8491,1863
8492,1861
8493,1861
8494,1863
8495,1864
8496,1862
8497,1862
8498,1863
8499,1862
8500,1861
8501,1858
8502,1858
8503,1859
8504,1866
8505,1862
8506,1863
8507,1862
8508,1860
8509,1859
8510,1857
8511,1859
8512,1857
8513,1851
8514,1856
8515,1856
8516,1856
8517,1857
8518,1863
8519,1863
8520,1865
8521,1863
8522,1866
8523,1863
8524,1866
8525,1862
8526,1862
8527,1860
8528,1859
8529,1858
8530,1862
8531,1861
8532,1861
8533,1867
8534,1865
8535,1865
8536,1866
8537,1867
8538,1863
8539,1860
8540,1860
8541,1860
8542,1862
8543,1855
8544,1851
8545,1855
8546,1856
8547,1847
8548,1862
8549,1861
8550,1865
8551,1866
8552,1870
8553,1869
8554,1867
8555,1866
8556,1867
8557,1863
8558,1863
8559,1861
8560,1859
8561,1857
8562,1859
8563,1861
8564,1863
8565,1859
8566,1860
8567,1865
8568,1869
8569,1871
8570,1869
8571,1861
8572,1856
8573,1859
8574,1859
8575,1854
8576,1851
8577,1853
8578,1848
8579,1842
8580,1849
8581,1851
8582,1860
8583,1861
8584,1862
8585,1865
8586,1866
8587,1868
8588,1869
8589,1863
8590,1863
8591,1863
8592,1858
8593,1857
8594,1856
8595,1858
8596,1859
8597,1859
8598,1858
8599,1859
8600,1862
8601,1865
8602,1867
8603,1858
8604,1861
8605,1863
8606,1861
8607,1862
8608,1869
8609,1867
8610,1860
8611,1859
8612,1859
8613,1859
8614,1859
8615,1861
8616,1861
8617,1857
8618,1865
8619,1864
8620,1865
8621,1866
8622,1864
8623,1863
8624,1861
8625,1859
8626,1856
8627,1856
8628,1857
8629,1859
8630,1859
8631,1861
8632,1861
8633,1857
8634,1859
8635,1861
8636,1862
8637,1862
8638,1863
8639,1847
8640,1866
8641,1866
8642,1861
8643,1858
8644,1858
8645,1858
8646,1856
8647,1861
8648,1861
8649,1862
8650,1863
8651,1868
8652,1867
8653,1869
8654,1869
8655,1870
8656,1868
8657,1867
8658,1868
8659,1861
8660,1859
8661,1863
8662,1858
8663,1855
8664,1855
8665,1856
8666,1856
8667,1858
8668,1863
8669,1872
8670,1867
8671,1867
8672,1862
8673,1863
8674,1862
8675,1859
8676,1859
8677,1858
8678,1859
8679,1860
8680,1859
8681,1859
8682,1862
8683,1860
8684,1862
8685,1867
8686,1865
8687,1869
8688,1868
8689,1866
8690,1866
8691,1865
8692,1862
8693,1856
8694,1855
8695,1853
8696,1853
8697,1856
8698,1854
8699,1861
8700,1867
8701,1866
8702,1871
8703,1868
8704,1868
8705,1863
8706,1866
8707,1865
8708,1862
8709,1863
8710,1858
8711,1858
8712,1858
8713,1858
8714,1858
8715,1858
8716,1860
8717,1857
8718,1858
8719,1859
8720,1861
8721,1863
8722,1860
8723,1859
8724,1856
8725,1853
8726,1856
8727,1855
8728,1854
8729,1847
8730,1861
8731,1862
8732,1862
8733,1863
8734,1863
8735,1865
8736,1866
8737,1869
8738,1868
8739,1867
8740,1863
8741,1861
8742,1861
8743,1859
8744,1858
8745,1859
8746,1857
8747,1859
8748,1861
8749,1859
8750,1862
8751,1863
8752,1870
8753,1862
8754,1859
8755,1863
8756,1862
8757,1861
8758,1862
8759,1859
8760,1861
8761,1857
8762,1858
8763,1858
8764,1858
8765,1859
8766,1862
8767,1867
8768,1863
8769,1866
8770,1870
8771,1869
8772,1867
8773,1863
8774,1863
8775,1862
8776,1859
8777,1859
8778,1858
8779,1859
8780,1861
8781,1859
8782,1863
8783,1856
8784,1859
8785,1857
8786,1856
8787,1853
8788,1862
8789,1863
8790,1867
8791,1863
8792,1862
8793,1859
8794,1856
8795,1857
8796,1857
8797,1862
8798,1862
8799,1861
8800,1867
8801,1867
8802,1869
8803,1871
8804,1869
8805,1867
8806,1865
8807,1863
8808,1860
8809,1859
8810,1855
8811,1855
8812,1855
8813,1853
8814,1854
8815,1853
8816,1855
8817,1858
8818,1858
8819,1867
8820,1871
8821,1868
8822,1865
8823,1866
8824,1867
8825,1861
8826,1861
8827,1857
8828,1855
8829,1856
8830,1856
8831,1859
8832,1856
8833,1863
8834,1865
8835,1869
8836,1867
8837,1872
8838,1869
8839,1868
8840,1867
8841,1862
8842,1862
8843,1854
8844,1853
8845,1853
8846,1853
8847,1854
8848,1863
8849,1863
8850,1862
8851,1863
8852,1866
8853,1866
8854,1869
8855,1869
8856,1867
8857,1867
8858,1866
8859,1860
8860,1859
8861,1857
8862,1856
8863,1858
8864,1857
8865,1859
8866,1861
8867,1863
8868,1866
8869,1865
8870,1871
8871,1863
8872,1859
8873,1856
8874,1857
8875,1853
8876,1854
8877,1853
8878,1851
8879,1849
8880,1855
8881,1857
8882,1857
8883,1861
8884,1864
8885,1868
8886,1869
8887,1867
8888,1866
8889,1866
8890,1866
8891,1861
8892,1861
8893,1858
8894,1859
8895,1858
8896,1858
8897,1858
8898,1858
8899,1861
8900,1865
8901,1865
8902,1866
8903,1859
8904,1861
8905,1858
8906,1859
8907,1861
8908,1863
8909,1859
8910,1858
8911,1862
8912,1858
8913,1861
8914,1861
8915,1860
8916,1864
8917,1862
8918,1854
8919,1863
8920,1864
8921,1866
8922,1863
8923,1865
8924,1863
8925,1860
8926,1860
8927,1858
8928,1858
8929,1863
8930,1862
8931,1860
8932,1859
8933,1855
8934,1856
8935,1856
8936,1861
8937,1861
8938,1860
8939,1863
8940,1866
8941,1859
8942,1861
8943,1860
8944,1857
8945,1857
8946,1858
8947,1861
8948,1862
8949,1859
8950,1862
8951,1866
8952,1866
8953,1867
8954,1866
8955,1867
8956,1865
8957,1865
8958,1861
8959,1860
8960,1859
8961,1861
8962,1861
8963,1854
8964,1856
8965,1856
8966,1856
8967,1861
8968,1863
8969,1867
8970,1866
8971,1866
8972,1862
8973,1862
8974,1857
8975,1859
8976,1857
8977,1859
8978,1858
8979,1858
8980,1861
8981,1859
8982,1859
8983,1863
8984,1861
8985,1868
8986,1867
8987,1870
8988,1869
8989,1865
8990,1867
8991,1862
8992,1860
8993,1854
8994,1854
8995,1855
8996,1853
8997,1855
8998,1859
8999,1863
9000,1866
9001,1867
9002,1869
9003,1868
9004,1863
9005,1862
9006,1861
9007,1860
9008,1862
9009,1858
9010,1857
9011,1856
9012,1854
9013,1856
9014,1858
9015,1860
9016,1861
9017,1861
9018,1858
9019,1861
9020,1859
9021,1861
9022,1859
9023,1858
9024,1857
9025,1856
9026,1854
9027,1853
9028,1854
9029,1859
9030,1861
9031,1861
9032,1861
9033,1858
9034,1860
9035,1866
9036,1866
9037,1867
9038,1865
9039,1863
9040,1867
9041,1861
9042,1862
9043,1860
9044,1856
9045,1858
9046,1858
9047,1859
9048,1859
9049,1859
9050,1867
9051,1870
9052,1871
9053,1861
9054,1860
9055,1859
9056,1861
9057,1862
9058,1859
9059,1855
9060,1862
9061,1858
9062,1856
9063,1861
9064,1860
9065,1858
9066,1861
9067,1866
9068,1867
9069,1867
9070,1867
9071,1862
9072,1861
9073,1861
9074,1862
9075,1867
9076,1863
9077,1865
9078,1866
9079,1863
9080,1859
9081,1860
9082,1859
9083,1855
9084,1857
9085,1860
9086,1860
9087,1862
9088,1859
9089,1866
9090,1865
9091,1861
9092,1857
9093,1857
9094,1850
9095,1852
9096,1850
9097,1853
9098,1856
9099,1858
9100,1866
9101,1872
9102,1872
9103,1871
9104,1872
9105,1870
9106,1870
9107,1867
9108,1866
9109,1862
9110,1859
9111,1863
9112,1858
9113,1852
9114,1850
9115,1847
9116,1854
9117,1853
9118,1859
9119,1857
9120,1867
9121,1866
9122,1866
9123,1866
9124,1865
9125,1863
9126,1860
9127,1860
9128,1862
9129,1857
9130,1858
9131,1864
9132,1861
9133,1862
9134,1868
9135,1869
9136,1870
9137,1868
9138,1867
9139,1866
9140,1866
9141,1863
9142,1862
9143,1854
9144,1850
9145,1848
9146,1851
9147,1853
9148,1851
9149,1855
9150,1866
9151,1868
9152,1859
9153,1861
9154,1866
9155,1872
9156,1872
9157,1877
9158,1878
9159,1869
9160,1857
9161,1855
9162,1847
9163,1853
9164,1856
9165,1852
9166,1853
9167,1856
9168,1861
9169,1865
9170,1870
9171,1867
9172,1862
9173,1861
9174,1861
9175,1855
9176,1851
9177,1849
9178,1847
9179,1855
9180,1855
9181,1859
9182,1858
9183,1863
9184,1868
9185,1870
9186,1874
9187,1875
9188,1879
9189,1872
9190,1871
9191,1860
9192,1863
9193,1851
9194,1838
9195,1843
9196,1856
9197,1872
9198,1873
9199,1875
9200,1872
9201,1853
9202,1842
9203,1820
9204,1819
9205,1834
9206,1859
9207,1889
9208,1903
9209,1894
9210,1883
9211,1870
9212,1849
9213,1840
9214,1843
9215,1852
9216,1856
9217,1856
9218,1859
9219,1858
9220,1867
9221,1867
9222,1864
9223,1859
9224,1858
9225,1858
9226,1858
9227,1856
9228,1857
9229,1856
9230,1857
9231,1857
9232,1857
9233,1859
9234,1859
9235,1860
9236,1859
9237,1866
9238,1868
9239,1866
9240,1863
9241,1863
9242,1859
9243,1859
9244,1857
9245,1859
9246,1859
9247,1857
9248,1857
9249,1859
9250,1865
9251,1866
9252,1869
9253,1871
9254,1871
9255,1870
9256,1867
9257,1866
9258,1867
9259,1858
9260,1852
9261,1851
9262,1854
9263,1851
9264,1851
9265,1856
9266,2302
9267,2015
9268,1885
9269,2035
9270,2096
9271,2046
9272,1985
9273,1957
9274,1970
9275,2006
9276,2023
9277,1921
9278,1773
9279,1640
9280,1555
9281,1569
9282,1623
9283,1680
9284,1712
9285,1729
9286,1749
9287,1776
9288,1805
9289,1825
9290,1842
9291,1857
9292,1867
9293,1867
9294,1871
9295,1872
9296,1872
9297,1776
9298,2143
9299,1913
9300,2074
9301,2157
9302,2116
9303,2019
9304,1951
9305,1953
9306,1989
9307,1995
9308,1867
9309,1712
9310,1571
9311,1519
9312,1563
9313,1638
9314,1697
9315,1731
9316,1758
9317,1799
9318,1812
9319,1830
9320,1845
9321,1861
9322,1881
9323,1904
9324,1920
9325,1918
9326,1904
9327,1889
9328,851
9329,2246
9330,1904
9331,1998
9332,2132
9333,2130
9334,2047
9335,1961
9336,1934
9337,1974
9338,1970
9339,1845
9340,1710
9341,1593
9342,1535
9343,1576
9344,1641
9345,1694
9346,1731
9347,1781
9348,1815
9349,1843
9350,1862
9351,1872
9352,1886
9353,1890
9354,1889
9355,1886
9356,1888
9357,1891
9358,1900
9359,1665
9360,2374
9361,1951
9362,1936
9363,2102
9364,2128
9365,2057
9366,1984
9367,1977
9368,2045
9369,2017
9370,1883
9371,1702
9372,1533
9373,1482
9374,1535
9375,1634
9376,1685
9377,1730
9378,1776
9379,1810
9380,1840
9381,1862
9382,1875
9383,1883
9384,1891
9385,1889
9386,1889
9387,1897
9388,1892
9389,1891
9390,1889
9391,2400
9392,1995
9393,1902
9394,2063
9395,2097
9396,2031
9397,1995
9398,2055
9399,2141
9400,2064
9401,1883
9402,1662
9403,1488
9404,1448
9405,1522
9406,1623
9407,1674
9408,1728
9409,1783
9410,1820
9411,1850
9412,1872
9413,1883
9414,1890
9415,1884
9416,1874
9417,1884
9418,1894
9419,1886
9420,1898
9421,1902
9422,2002
9423,2113
9424,1904
9425,2065
9426,2135
9427,2079
9428,2035
9429,2103
9430,2160
9431,2038
9432,1863
9433,1626
9434,1427
9435,1383
9436,1477
9437,1596
9438,1650
9439,1718
9440,1777
9441,1814
9442,1840
9443,1847
9444,1849
9445,1863
9446,1874
9447,1901
9448,1909
9449,1930
9450,1926
9451,1915
9452,1914
9453,1164
9454,2224
9455,1933
9456,2059
9457,2160
9458,2109
9459,2090
9460,2166
9461,2178
9462,2023
9463,1856
9464,1594
9465,1360
9466,1301
9467,1431
9468,1567
9469,1645
9470,1729
9471,1790
9472,1829
9473,1857
9474,1873
9475,1886
9476,1893
9477,1897
9478,1898
9479,1909
9480,1911
9481,1909
9482,1910
9483,1909
9484,1140
9485,2338
9486,1938
9487,2000
9488,2166
9489,2161
9490,2151
9491,2255
9492,2236
9493,2041
9494,1875
9495,1578
9496,1300
9497,1249
9498,1392
9499,1524
9500,1626
9501,1719
9502,1787
9503,1817
9504,1851
9505,1875
9506,1899
9507,1906
9508,1913
9509,1916
9510,1918
9511,1916
9512,1909
9513,1907
9514,1904
9515,1897
9516,2415
9517,1999
9518,1936
9519,2141
9520,2171
9521,2134
9522,2259
9523,2258
9524,2093
9525,1922
9526,1623
9527,1325
9528,1245
9529,1378
9530,1520
9531,1616
9532,1699
9533,1767
9534,1811
9535,1847
9536,1872
9537,1890
9538,1902
9539,1907
9540,1918
9541,1917
9542,1911
9543,1907
9544,1904
9545,1905
9546,1903
9547,2192
9548,2092
9549,1910
9550,2115
9551,2195
9552,2151
9553,2298
9554,2329
9555,2124
9556,1936
9557,1631
9558,1309
9559,1210
9560,1331
9561,1478
9562,1591
9563,1686
9564,1760
9565,1808
9566,1840
9567,1872
9568,1909
9569,1921
9570,1929
9571,1909
9572,1920
9573,1922
9574,1911
9575,1904
9576,1910
9577,1906
9578,1482
9579,2181
9580,1891
9581,2042
9582,2163
9583,2099
9584,2249
9585,2351
9586,2158
9587,2013
9588,1725
9589,1347
9590,1211
9591,1316
9592,1476
9593,1587
9594,1685
9595,1759
9596,1805
9597,1837
9598,1859
9599,1879
9600,1904
9601,1915
9602,1925
9603,1921
9604,1919
9605,1919
9606,1909
9607,1906
9608,1904
9609,941
9610,2306
9611,1911
9612,1982
9613,2154
9614,2107
9615,2197
9616,2384
9617,2221
9618,2059
9619,1777
9620,1406
9621,1239
9622,1317
9623,1456
9624,1567
9625,1662
9626,1741
9627,1783
9628,1814
9629,1840
9630,1872
9631,1888
9632,1904
9633,1925
9634,1939
9635,1943
9636,1936
9637,1926
9638,1914
9639,1904
9640,1895
9641,2409
9642,1961
9643,1899
9644,2117
9645,2118
9646,2128
9647,2387
9648,2291
9649,2071
9650,1827
9651,1455
9652,1243
9653,1296
9654,1438
9655,1570
9656,1664
9657,1742
9658,1794
9659,1830
9660,1857
9661,1877
9662,1895
9663,1899
9664,1903
9665,1909
9666,1925
9667,1935
9668,1932
9669,1929
9670,1917
9671,1906
9672,2291
9673,2065
9674,1883
9675,2096
9676,2157
9677,2112
9678,2385
9679,2336
9680,2086
9681,1860
9682,1495
9683,1246
9684,1268
9685,1424
9686,1557
9687,1648
9688,1726
9689,1785
9690,1817
9691,1845
9692,1868
9693,1886
9694,1902
9695,1909
9696,1916
9697,1921
9698,1918
9699,1919
9700,1915
9701,1904
9702,1904
9703,1511
9704,2185
9705,1876
9706,2014
9707,2144
9708,2082
9709,2351
9710,2439
9711,2147
9712,1909
9713,1562
9714,1280
9715,1253
9716,1393
9717,1531
9718,1633
9719,1719
9720,1781
9721,1818
9722,1850
9723,1872
9724,1891
9725,1906
9726,1920
9727,1927
9728,1924
9729,1910
9730,1893
9731,1891
9732,1904
9733,1908
9734,930
9735,2307
9736,1904
9737,1965
9738,2145
9739,2080
9740,2254
9741,2479
9742,2188
9743,1947
9744,1633
9745,1328
9746,1264
9747,1380
9748,1514
9749,1604
9750,1700
9751,1775
9752,1815
9753,1842
9754,1862
9755,1885
9756,1900
9757,1907
9758,1908
9759,1910
9760,1919
9761,1917
9762,1905
9763,1904
9764,1901
9765,1906
9766,2410
9767,1954
9768,1911
9769,2128
9770,2096
9771,2160
9772,2476
9773,2239
9774,1994
9775,1720
9776,1394
9777,1269
9778,1366
9779,1503
9780,1599
9781,1680
9782,1750
9783,1802
9784,1830
9785,1855
9786,1872
9787,1891
9788,1904
9789,1915
9790,1923
9791,1920
9792,1919
9793,1914
9794,1904
9795,1901
9796,1897
9797,2352
9798,2043
9799,1882
9800,2089
9801,2107
9802,2096
9803,2462
9804,2303
9805,2027
9806,1777
9807,1443
9808,1276
9809,1353
9810,1478
9811,1584
9812,1663
9813,1734
9814,1791
9815,1824
9816,1856
9817,1878
9818,1895
9819,1904
9820,1913
9821,1918
9822,1918
9823,1920
9824,1914
9825,1908
9826,1907
9827,1903
9828,1971
9829,2127
9830,1872
9831,2035
9832,2108
9833,2030
9834,2405
9835,2384
9836,2085
9837,1847
9838,1501
9839,1289
9840,1339
9841,1462
9842,1565
9843,1643
9844,1713
9845,1778
9846,1823
9847,1856
9848,1874
9849,1891
9850,1904
9851,1907
9852,1907
9853,1923
9854,1927
9855,1920
9856,1911
9857,1909
9858,1904
9859,875
9860,2279
9861,1894
9862,1971
9863,2125
9864,2038
9865,2301
9866,2461
9867,2111
9868,1904
9869,1599
9870,1335
9871,1318
9872,1441
9873,1535
9874,1623
9875,1702
9876,1770
9877,1808
9878,1838
9879,1863
9880,1889
9881,1898
9882,1904
9883,1905
9884,1915
9885,1916
9886,1910
9887,1909
9888,1904
9889,1903
9890,1895
9891,1888
9892,1877
9893,1872
9894,1869
9895,1869
9896,1866
9897,1867
9898,1861
9899,1863
9900,1869
9901,1872
9902,1874
9903,1873
9904,1873
9905,1872
9906,1871
9907,1871
9908,1865
9909,1862
9910,1860
9911,1863
9912,1857
9913,1856
9914,1857
9915,1856
9916,1861
9917,1863
9918,1856
9919,1858
9920,1860
9921,1861
9922,1863
9923,1867
9924,1863
9925,1862
9926,1861
9927,1856
9928,1849
9929,1840
9930,1851
9931,1856
9932,1858
9933,1857
9934,1864
9935,1865
9936,1860
9937,1863
9938,1865
9939,1862
9940,1862
9941,1857
9942,1856
9943,1856
9944,1857
9945,1858
9946,1857
9947,1858
9948,1863
9949,1862
9950,1862
9951,1861
9952,1861
9953,1856
9954,1860
9955,1861
9956,1860
9957,1860
9958,1866
9959,1863
9960,1861
9961,1856
9962,1855
9963,1855
9964,1855
9965,1856
9966,1857
9967,1862
9968,1866
9969,1871
9970,1868
9971,1870
9972,1865
9973,1861
9974,1863
9975,1861
9976,1859
9977,1857
9978,1856
9979,1856
9980,1858
9981,1859
9982,1859
9983,1853
9984,1857
9985,1861
9986,1859
9987,1861
9988,1857
9989,1862
9990,1865
9991,1863
9992,1860
9993,1854
9994,1853
9995,1853
9996,1855
9997,1856
9998,1858
9999,1860
10000,1859
10001,1864
10002,1863
10003,1866
10004,1866
10005,1859
10006,1863
10007,1863
10008,1865
10009,1866
10010,1861
10011,1856
10012,1856
10013,1850
10014,1850
10015,1850
10016,1856
10017,1856
10018,1859
10019,1857
10020,1858
10021,1860
10022,1862
10023,1863
10024,1858
10025,1856
10026,1855
10027,1853
10028,1850
10029,1856
10030,1858
10031,1861
10032,1865
10033,1868
10034,1861
10035,1865
10036,1863
10037,1866
10038,1865
10039,1871
10040,1873
10041,1867
10042,1857
10043,1850
10044,1855
10045,1850
10046,1849
10047,1851
10048,1850
10049,1856
10050,1861
10051,1861
10052,1862
10053,1865
10054,1867
10055,1867
10056,1863
10057,1865
10058,1862
10059,1858
10060,1856
10061,1857
10062,1856
10063,1858
10064,1859
10065,1860
10066,1859
10067,1865
10068,1867
10069,1869
10070,1869
10071,1863
10072,1861
10073,1861
10074,1857
10075,1853
10076,1853
10077,1850
10078,1847
10079,1853
10080,1856
10081,1855
10082,1856
10083,1859
10084,1863
10085,1867
10086,1870
10087,1866
10088,1863
10089,1861
10090,1866
10091,1863
10092,1855
10093,1855
10094,1857
10095,1863
10096,1869
10097,1886
10098,1889
10099,1871
10100,1851
10101,1844
10102,1847
10103,1847
10104,1853
10105,1856
10106,1863
10107,1867
10108,1867
10109,1866
10110,1861
10111,1856
10112,1855
10113,1857
10114,1856
10115,1856
10116,1861
10117,1862
10118,1865
10119,1865
10120,1867
10121,1869
10122,1865
10123,1865
10124,1862
10125,1861
10126,1861
10127,1861
10128,1861
10129,1859
10130,1858
10131,1859
10132,1859
10133,1852
10134,1856
10135,1856
10136,1859
10137,1862
10138,1856
10139,1858
10140,1859
10141,1861
10142,1859
10143,1861
10144,1857
10145,1858
10146,1859
10147,1859
10148,1862
10149,1866
10150,1867
10151,1867
10152,1865
10153,1863
10154,1861
10155,1862
10156,1866
10157,1863
10158,1861
10159,1861
10160,1857
10161,1859
10162,1856
10163,1853
10164,1854
10165,1856
10166,1858
10167,1861
10168,1865
10169,1868
10170,1872
10171,1869
10172,1867
10173,1863
10174,1863
10175,1861
10176,1858
10177,1857
10178,1857
10179,1858
10180,1859
10181,1863
10182,1866
10183,1862
10184,1865
10185,1870
10186,1867
10187,1869
10188,1868
10189,1869
10190,1867
10191,1862
10192,1859
10193,1853
10194,1853
10195,1855
10196,1854
10197,1855
10198,1856
10199,1865
10200,1867
10201,1868
10202,1866
10203,1871
10204,1872
10205,1870
10206,1866
10207,1862
10208,1861
10209,1862
10210,1856
10211,1856
10212,1856
10213,1857
10214,1856
10215,1855
10216,1857
10217,1862
10218,1859
10219,1861
10220,1862
10221,1864
10222,1859
10223,1857
10224,1858
10225,1857
10226,1856
10227,1856
10228,1855
10229,1855
10230,1861
10231,1861
10232,1862
10233,1863
10234,1866
10235,1867
10236,1866
10237,1865
10238,1866
10239,1862
10240,1863
10241,1863
10242,1859
10243,1861
10244,1859
10245,1856
10246,1856
10247,1856
10248,1857
10249,1859
10250,1866
10251,1869
10252,1869
10253,1861
10254,1866
10255,1860
10256,1861
10257,1857
10258,1859
10259,1857
10260,1857
10261,1860
10262,1857
10263,1859
10264,1859
10265,1863
10266,1863
10267,1868
10268,1865
10269,1870
10270,1868
10271,1867
10272,1862
10273,1862
10274,1865
10275,1863
10276,1862
10277,1863
10278,1857
10279,1858
10280,1856
10281,1856
10282,1861
10283,1857
10284,1859
10285,1861
10286,1863
10287,1866
10288,1861
10289,1869
10290,1868
10291,1863
10292,1857
10293,1858
10294,1855
10295,1856
10296,1857
10297,1862
10298,1869
10299,1872
10300,1871
10301,1880
10302,1872
10303,1860
10304,1859
10305,1849
10306,1849
10307,1854
10308,1855
10309,1855
10310,1856
10311,1856
10312,1856
10313,1850
10314,1856
10315,1856
10316,1856
10317,1859
10318,1872
10319,1870
10320,1869
10321,1867
10322,1866
10323,1861
10324,1860
10325,1857
10326,1858
10327,1858
10328,1856
10329,1859
10330,1858
10331,1859
10332,1861
10333,1866
10334,1866
10335,1871
10336,1870
10337,1870
10338,1867
10339,1867
10340,1866
10341,1866
10342,1866
10343,1856
10344,1854
10345,1851
10346,1849
10347,1851
10348,1855
10349,1855
10350,1863
10351,1866
10352,1867
10353,1867
10354,1871
10355,1871
10356,1869
10357,1866
10358,1861
10359,1857
10360,1858
10361,1859
10362,1859
10363,1858
10364,1860
10365,1863
10366,1869
10367,1870
10368,1871
10369,1869
10370,1871
10371,1858
10372,1856
10373,1856
10374,1853
10375,1854
10376,1853
10377,1853
10378,1851
10379,1855
10380,1857
10381,1858
10382,1865
10383,1863
10384,1869
10385,1866
10386,1868
10387,1862
10388,1863
10389,1867
10390,1867
10391,1862
10392,1861
10393,1861
10394,1858
10395,1857
10396,1856
10397,1859
10398,1859
10399,1862
10400,1861
10401,1865
10402,1868
10403,1859
10404,1860
10405,1856
10406,1858
10407,1857
10408,1861
10409,1856
10410,1857
10411,1857
10412,1856
10413,1856
10414,1859
10415,1858
10416,1860
10417,1867
10418,1867
10419,1866
10420,1866
10421,1863
10422,1865
10423,1860
10424,1862
10425,1856
10426,1856
10427,1856
10428,1855
10429,1857
10430,1857
10431,1857
10432,1859
10433,1858
10434,1856
10435,1858
10436,1859
10437,1860
10438,1861
10439,1856
10440,1860
10441,1858
10442,1858
10443,1855
10444,1856
10445,1856
10446,1856
10447,1858
10448,1857
10449,1859
10450,1863
10451,1869
10452,1870
10453,1867
10454,1870
10455,1869
10456,1868
10457,1863
10458,1863
10459,1861
10460,1856
10461,1856
10462,1854
10463,1852
10464,1855
10465,1853
10466,1856
10467,1859
10468,1867
10469,1867
10470,1870
10471,1872
10472,1863
10473,1862
10474,1860
10475,1861
10476,1862
10477,1857
10478,1857
10479,1857
10480,1855
10481,1857
10482,1858
10483,1863
10484,1863
10485,1861
10486,1863
10487,1864
10488,1863
10489,1866
10490,1867
10491,1862
10492,1861
10493,1853
10494,1853
10495,1851
10496,1853
10497,1855
10498,1855
10499,1861
10500,1863
10501,1866
10502,1870
10503,1869
10504,1867
10505,1866
10506,1860
10507,1863
10508,1858
10509,1858
10510,1856
10511,1856
10512,1856
10513,1858
10514,1859
10515,1859
10516,1863
10517,1862
10518,1859
10519,1858
10520,1859
10521,1859
10522,1856
10523,1857
10524,1856
10525,1855
10526,1855
10527,1855
10528,1858
10529,1856
10530,1858
10531,1859
10532,1860
10533,1861
10534,1863
10535,1869
10536,1866
10537,1865
10538,1862
10539,1865
10540,1863
10541,1859
10542,1859
10543,1858
10544,1856
10545,1858
10546,1861
10547,1862
10548,1861
10549,1862
10550,1863
10551,1863
10552,1863
10553,1857
10554,1857
10555,1856
10556,1856
10557,1858
10558,1856
10559,1858
10560,1858
10561,1858
10562,1860
10563,1861
10564,1861
10565,1860
10566,1863
10567,1863
10568,1867
10569,1865
10570,1868
10571,1858
10572,1863
10573,1863
10574,1860
10575,1859
10576,1858
10577,1858
10578,1858
10579,1857
10580,1858
10581,1857
10582,1858
10583,1856
10584,1856
10585,1859
10586,1856
10587,1862
10588,1863
10589,1859
10590,1862
10591,1860
10592,1857
10593,1856
10594,1857
10595,1856
10596,1855
10597,1857
10598,1858
10599,1860
10600,1864
10601,1865
10602,1867
10603,1869
10604,1868
10605,1867
10606,1863
10607,1861
10608,1865
10609,1861
10610,1856
10611,1856
10612,1856
10613,1853
10614,1855
10615,1852
10616,1850
10617,1856
10618,1867
10619,1867
10620,1863
10621,1862
10622,1862
10623,1866
10624,1859
10625,1858
10626,1858
10627,1855
10628,1856
10629,1856
10630,1858
10631,1863
10632,1861
10633,1867
10634,1867
10635,1867
10636,1866
10637,1869
10638,1865
10639,1865
10640,1862
10641,1859
10642,1857
10643,1854
10644,1854
10645,1852
10646,1853
10647,1855
10648,1854
10649,1861
10650,1862
10651,1863
10652,1866
10653,1867
10654,1867
10655,1867
10656,1863
10657,1865
10658,1861
10659,1858
10660,1857
10661,1857
10662,1856
10663,1856
10664,1857
10665,1858
10666,1861
10667,1861
10668,1861
10669,1862
10670,1863
10671,1859
10672,1863
10673,1859
10674,1857
10675,1853
10676,1854
10677,1856
10678,1847
10679,1854
10680,1856
10681,1859
10682,1866
10683,1865
10684,1862
10685,1866
10686,1867
10687,1866
10688,1867
10689,1869
10690,1867
10691,1862
10692,1857
10693,1859
10694,1856
10695,1856
10696,1858
10697,1857
10698,1859
10699,1861
10700,1863
10701,1862
10702,1866
10703,1862
10704,1861
10705,1859
10706,1858
10707,1856
10708,1858
10709,1857
10710,1855
10711,1855
10712,1856
10713,1857
10714,1857
10715,1859
10716,1859
10717,1858
10718,1863
10719,1865
10720,1866
10721,1865
10722,1865
10723,1863
10724,1863
10725,1860
10726,1859
10727,1856
10728,1856
10729,1857
10730,1857
10731,1857
10732,1857
10733,1857
10734,1858
10735,1862
10736,1863
10737,1866
10738,1871
10739,1868
10740,1863
10741,1861
10742,1859
10743,1861
10744,1858
10745,1858
10746,1857
10747,1858
10748,1856
10749,1863
10750,1861
10751,1865
10752,1868
10753,1866
10754,1863
10755,1861
10756,1862
10757,1866
10758,1865
10759,1858
10760,1856
10761,1856
10762,1856
10763,1849
10764,1853
10765,1851
10766,1853
10767,1856
10768,1862
10769,1863
10770,1869
10771,1867
10772,1867
10773,1862
10774,1863
10775,1859
10776,1857
10777,1858
10778,1860
10779,1861
10780,1859
10781,1859
10782,1861
10783,1862
10784,1865
10785,1870
10786,1867
10787,1867
10788,1866
10789,1863
10790,1863
10791,1859
10792,1859
10793,1853
10794,1856
10795,1855
10796,1851
10797,1849
10798,1846
10799,1849
10800,1856
10801,1863
10802,1870
10803,1872
10804,1873
10805,1872
10806,1868
10807,1867
10808,1861
10809,1857
10810,1855
10811,1855
10812,1856
10813,1856
10814,1856
10815,1857
10816,1860
10817,1861
10818,1856
10819,1858
10820,1859
10821,1859
10822,1862
10823,1862
10824,1865
10825,1859
10826,1854
10827,1851
10828,1849
10829,1847
10830,1856
10831,1860
10832,1865
10833,1865
10834,1865
10835,1863
10836,1866
10837,1863
10838,1864
10839,1867
10840,1867
10841,1861
10842,1861
10843,1858
10844,1857
10845,1855
10846,1855
10847,1856
10848,1859
10849,1867
10850,1870
10851,1867
10852,1861
10853,1855
10854,1855
10855,1856
10856,1857
10857,1859
10858,1863
10859,1860
10860,1858
10861,1859
10862,1858
10863,1856
10864,1860
10865,1859
10866,1859
10867,1863
10868,1862
10869,1866
10870,1867
10871,1863
10872,1865
10873,1863
10874,1862
10875,1862
10876,1857
10877,1859
10878,1856
10879,1858
10880,1860
10881,1862
10882,1859
10883,1854
10884,1856
10885,1856
10886,1861
10887,1860
10888,1857
10889,1862
10890,2187
10891,2043
10892,1871
10893,1991
10894,2047
10895,2021
10896,1968
10897,1956
10898,1987
10899,2059
10900,2123
10901,2065
10902,1875
10903,1669
10904,1531
10905,1520
10906,1588
10907,1659
10908,1700
10909,1712
10910,1725
10911,1754
10912,1783
10913,1809
10914,1834
10915,1843
10916,1853
10917,1865
10918,1883
10919,1884
10920,1881
10921,1085
10922,2202
10923,1898
10924,2017
10925,2112
10926,2087
10927,1991
10928,1929
10929,1939
10930,2032
10931,2118
10932,2026
10933,1815
10934,1607
10935,1508
10936,1523
10937,1609
10938,1676
10939,1711
10940,1733
10941,1770
10942,1814
10943,1850
10944,1866
10945,1873
10946,1879
10947,1878
10948,1878
10949,1875
10950,1883
10951,1883
10952,957
10953,2290
10954,1914
10955,1957
10956,2076
10957,2079
10958,2001
10959,1936
10960,1930
10961,1990
10962,2063
10963,1962
10964,1792
10965,1647
10966,1581
10967,1588
10968,1648
10969,1697
10970,1725
10971,1762
10972,1802
10973,1827
10974,1845
10975,1860
10976,1872
10977,1882
10978,1882
10979,1882
10980,1883
10981,1879
10982,1883
10983,1887
10984,2384
10985,1970
10986,1904
10987,2042
10988,2070
10989,2005
10990,1947
10991,1952
10992,2063
10993,2132
10994,1996
10995,1787
10996,1609
10997,1535
10998,1567
10999,1629
11000,1669
11001,1712
11002,1759
11003,1782
11004,1808
11005,1835
11006,1855
11007,1871
11008,1879
11009,1882
11010,1888
11011,1893
11012,1889
11013,1883
11014,1876
11015,2302
11016,2032
11017,1870
11018,2015
11019,2091
11020,2043
11021,1997
11022,2032
11023,2113
11024,2111
11025,1973
11026,1766
11027,1584
11028,1494
11029,1516
11030,1598
11031,1641
11032,1690
11033,1744
11034,1789
11035,1824
11036,1851
11037,1872
11038,1885
11039,1890
11040,1903
11041,1899
11042,1892
11043,1887
11044,1883
11045,1879
11046,1355
11047,2173
11048,1883
11049,1997
11050,2101
11051,2074
11052,2030
11053,2107
11054,2160
11055,2083
11056,1930
11057,1740
11058,1535
11059,1456
11060,1488
11061,1573
11062,1616
11063,1679
11064,1735
11065,1787
11066,1826
11067,1855
11068,1883
11069,1902
11070,1904
11071,1914
11072,1910
11073,1904
11074,1895
11075,1898
11076,1897
11077,859
11078,2274
11079,1923
11080,1986
11081,2127
11082,2098
11083,2070
11084,2170
11085,2218
11086,2096
11087,1936
11088,1707
11089,1471
11090,1361
11091,1410
11092,1520
11093,1595
11094,1677
11095,1745
11096,1797
11097,1838
11098,1858
11099,1886
11100,1904
11101,1913
11102,1921
11103,1939
11104,1935
11105,1913
11106,1904
11107,1901
11108,1887
11109,2384
11110,1955
11111,1945
11112,2133
11113,2130
11114,2093
11115,2230
11116,2239
11117,2074
11118,1962
11119,1721
11120,1428
11121,1278
11122,1347
11123,1478
11124,1573
11125,1670
11126,1751
11127,1803
11128,1834
11129,1855
11130,1870
11131,1886
11132,1902
11133,1919
11134,1933
11135,1935
11136,1924
11137,1919
11138,1911
11139,1915
11140,2362
11141,2038
11142,1947
11143,2151
11144,2192
11145,2144
11146,2308
11147,2304
11148,2097
11149,1963
11150,1684
11151,1353
11152,1221
11153,1310
11154,1435
11155,1535
11156,1670
11157,1756
11158,1808
11159,1840
11160,1859
11161,1882
11162,1899
11163,1908
11164,1915
11165,1918
11166,1919
11167,1920
11168,1914
11169,1907
11170,1909
11171,1669
11172,2169
11173,1909
11174,2080
11175,2191
11176,2143
11177,2293
11178,2378
11179,2157
11180,1995
11181,1712
11182,1357
11183,1197
11184,1283
11185,1430
11186,1558
11187,1671
11188,1749
11189,1810
11190,1846
11191,1877
11192,1900
11193,1913
11194,1915
11195,1921
11196,1924
11197,1921
11198,1915
11199,1903
11200,1902
11201,1904
11202,879
11203,2294
11204,1917
11205,2005
11206,2176
11207,2143
11208,2260
11209,2419
11210,2179
11211,2006
11212,1749
11213,1362
11214,1185
11215,1280
11216,1437
11217,1562
11218,1677
11219,1759
11220,1808
11221,1838
11222,1858
11223,1887
11224,1908
11225,1919
11226,1911
11227,1907
11228,1920
11229,1920
11230,1921
11231,1903
11232,1895
11233,1787
11234,2383
11235,1963
11236,1939
11237,2149
11238,2155
11239,2217
11240,2480
11241,2261
11242,2023
11243,1746
11244,1379
11245,1205
11246,1278
11247,1418
11248,1535
11249,1653
11250,1757
11251,1809
11252,1841
11253,1863
11254,1875
11255,1889
11256,1902
11257,1904
11258,1948
11259,1967
11260,1938
11261,1927
11262,1914
11263,1903
11264,1885
11265,2372
11266,1991
11267,1893
11268,2103
11269,2133
11270,2179
11271,2487
11272,2308
11273,2061
11274,1791
11275,1409
11276,1204
11277,1283
11278,1423
11279,1535
11280,1648
11281,1741
11282,1796
11283,1825
11284,1845
11285,1872
11286,1891
11287,1899
11288,1910
11289,1923
11290,1939
11291,1938
11292,1927
11293,1915
11294,1907
11295,1904
11296,2053
11297,2107
11298,1877
11299,2064
11300,2167
11301,2149
11302,2475
11303,2394
11304,2071
11305,1817
11306,1468
11307,1229
11308,1280
11309,1423
11310,1535
11311,1634
11312,1721
11313,1779
11314,1803
11315,1842
11316,1862
11317,1873
11318,1890
11319,1908
11320,1927
11321,1939
11322,1935
11323,1936
11324,1922
11325,1903
11326,1895
11327,1015
11328,2217
11329,1873
11330,1987
11331,2154
11332,2112
11333,2401
11334,2477
11335,2104
11336,1873
11337,1535
11338,1265
11339,1263
11340,1407
11341,1520
11342,1616
11343,1709
11344,1776
11345,1813
11346,1842
11347,1872
11348,1892
11349,1905
11350,1914
11351,1921
11352,1937
11353,1935
11354,1923
11355,1914
11356,1905
11357,1905
11358,1505
11359,2356
11360,1931
11361,1915
11362,2120
11363,2091
11364,2269
11365,2541
11366,2183
11367,1938
11368,1655
11369,1319
11370,1264
11371,1392
11372,1515
11373,1609
11374,1698
11375,1769
11376,1803
11377,1820
11378,1842
11379,1872
11380,1897
11381,1914
11382,1915
11383,1917
11384,1916
11385,1919
11386,1934
11387,1925
11388,1907
11389,1897
11390,2378
11391,1999
11392,1872
11393,2065
11394,2079
11395,2165
11396,2544
11397,2256
11398,1999
11399,1731
11400,1391
11401,1267
11402,1372
11403,1491
11404,1589
11405,1678
11406,1751
11407,1799
11408,1834
11409,1862
11410,1886
11411,1903
11412,1906
11413,1904
11414,1909
11415,1907
11416,1909
11417,1904
11418,1897
11419,1895
11420,1899
11421,2195
11422,2083
11423,1869
11424,2042
11425,2112
11426,2126
11427,2559
11428,2354
11429,2000
11430,1745
11431,1410
11432,1262
11433,1345
11434,1466
11435,1555
11436,1648
11437,1737
11438,1792
11439,1827
11440,1856
11441,1873
11442,1890
11443,1899
11444,1918
11445,1937
11446,1935
11447,1930
11448,1919
11449,1913
11450,1911
11451,1900
11452,1038
11453,2202
11454,1859
11455,1963
11456,2113
11457,2083
11458,2467
11459,2470
11460,2092
11461,1842
11462,1515
11463,1287
11464,1318
11465,1436
11466,1529
11467,1619
11468,1713
11469,1783
11470,1818
11471,1843
11472,1870
11473,1892
11474,1906
11475,1915
11476,1913
11477,1906
11478,1910
11479,1904
11480,1894
11481,1896
11482,1901
11483,1200
11484,2330
11485,1910
11486,1907
11487,2107
11488,2071
11489,2363
11490,2553
11491,2162
11492,1917
11493,1601
11494,1314
11495,1295
11496,1411
11497,1519
11498,1605
11499,1697
11500,1767
11501,1811
11502,1850
11503,1879
11504,1904
11505,1904
11506,1914
11507,1921
11508,1921
11509,1917
11510,1903
11511,1899
11512,1890
11513,1877
11514,1874
11515,1877
11516,1873
11517,1872
11518,1875
11519,1873
11520,1876
11521,1875
11522,1872
11523,1872
11524,1872
11525,1869
11526,1870
11527,1862
11528,1865
11529,1869
11530,1866
11531,1866
11532,1865
11533,1870
11534,1871
11535,1869
11536,1867
11537,1869
11538,1862
11539,1858
11540,1861
11541,1859
11542,1857
11543,1849
11544,1847
11545,1856
11546,1860
11547,1861
11548,1856
11549,1845
11550,1861
11551,1861
11552,1861
11553,1862
11554,1861
11555,1858
11556,1860
11557,1859
11558,1856
11559,1856
11560,1855
11561,1856
11562,1855
11563,1858
11564,1859
11565,1861
11566,1861
11567,1863
11568,1865
11569,1867
11570,1871
11571,1866
11572,1856
11573,1858
11574,1857
11575,1855
11576,1853
11577,1852
11578,1853
11579,1849
11580,1857
11581,1856
11582,1859
11583,1861
11584,1863
11585,1866
11586,1865
11587,1870
11588,1871
11589,1868
11590,1867
11591,1865
11592,1862
11593,1862
11594,1861
11595,1855
11596,1857
11597,1857
11598,1857
11599,1861
11600,1863
11601,1857
11602,1858
11603,1855
11604,1858
11605,1855
11606,1856
11607,1858
11608,1861
11609,1863
11610,1858
11611,1854
11612,1853
11613,1855
11614,1856
11615,1856
11616,1857
11617,1862
11618,1857
11619,1863
11620,1860
11621,1861
11622,1863
11623,1863
11624,1862
11625,1858
11626,1858
11627,1856
11628,1856
11629,1856
11630,1859
11631,1857
11632,1859
11633,1855
11634,1859
11635,1862
11636,1859
11637,1861
11638,1856
11639,1856
11640,1862
11641,1856
11642,1861
11643,1856
11644,1855
11645,1855
11646,1858
11647,1855
11648,1856
11649,1857
11650,1861
11651,1863
11652,1867
11653,1869
11654,1868
11655,1866
11656,1866
11657,1861
11658,1860
11659,1856
11660,1855
11661,1853
11662,1854
11663,1846
11664,1850
11665,1851
11666,1856
11667,1856
11668,1862
11669,1865
11670,1867
11671,1866
11672,1865
11673,1866
11674,1862
11675,1863
11676,1863
11677,1859
11678,1858
11679,1856
11680,1857
11681,1856
11682,1857
11683,1859
11684,1862
11685,1866
11686,1869
11687,1866
11688,1864
11689,1863
11690,1862
11691,1859
11692,1856
11693,1845
11694,1847
11695,1851
11696,1851
11697,1855
11698,1855
11699,1859
11700,1858
11701,1865
11702,1870
11703,1869
11704,1870
11705,1863
11706,1863
11707,1862
11708,1857
11709,1857
11710,1855
11711,1856
11712,1856
11713,1855
11714,1863
11715,1862
11716,1864
11717,1859
11718,1855
11719,1856
11720,1861
11721,1867
11722,1861
11723,1861
11724,1865
11725,1867
11726,1855
11727,1850
11728,1840
11729,1840
11730,1858
11731,1857
11732,1859
11733,1861
11734,1859
11735,1869
11736,1866
11737,1866
11738,1865
11739,1862
11740,1863
11741,1862
11742,1862
11743,1861
11744,1858
11745,1855
11746,1860
11747,1859
11748,1857
11749,1859
11750,1862
11751,1860
11752,1862
11753,1858
11754,1858
11755,1857
11756,1857
11757,1854
11758,1859
11759,1859
11760,1859
11761,1860
11762,1857
11763,1861
11764,1861
11765,1862
11766,1860
11767,1863
11768,1867
11769,1869
11770,1872
11771,1872
11772,1871
11773,1867
11774,1865
11775,1857
11776,1856
11777,1853
11778,1851
11779,1853
11780,1856
11781,1859
11782,1857
11783,1855
11784,1857
11785,1858
11786,1862
11787,1863
11788,1856
11789,1861
11790,1866
11791,1862
11792,1861
11793,1857
11794,1859
11795,1860
11796,1862
11797,1861
11798,1859
11799,1865
11800,1866
11801,1865
11802,1867
11803,1870
11804,1868
11805,1867
11806,1865
11807,1861
11808,1861
11809,1859
11810,1858
11811,1859
11812,1858
11813,1854
11814,1850
11815,1855
11816,1858
11817,1857
11818,1863
11819,1867
11820,1866
11821,1867
11822,1866
11823,1868
11824,1862
11825,1859
11826,1861
11827,1859
11828,1856
11829,1857
11830,1861
11831,1859
11832,1861
11833,1863
11834,1865
11835,1861
11836,1865
11837,1866
11838,1866
11839,1865
11840,1863
11841,1863
11842,1863
11843,1855
11844,1856
11845,1857
11846,1856
11847,1856
11848,1863
11849,1866
11850,1867
11851,1865
11852,1865
11853,1870
11854,1869
11855,1861
11856,1857
11857,1858
11858,1855
11859,1857
11860,1857
11861,1857
11862,1859
11863,1859
11864,1859
11865,1860
11866,1861
11867,1863
11868,1870
11869,1872
11870,1871
11871,1863
11872,1862
11873,1859
11874,1857
11875,1855
11876,1854
11877,1851
11878,1856
11879,1858
11880,1859
11881,1862
11882,1862
11883,1867
11884,1866
11885,1868
11886,1867
11887,1867
11888,1867
11889,1865
11890,1868
11891,1868
11892,1861
11893,1859
11894,1858
11895,1861
11896,1859
11897,1861
11898,1863
11899,1863
11900,1867
11901,1866
11902,1866
11903,1858
11904,1859
11905,1858
11906,1856
11907,1857
11908,1856
11909,1853
11910,1851
11911,1856
11912,1857
11913,1863
11914,1862
11915,1861
11916,1862
11917,1867
11918,1861
