Time(ms),Raw_ADC,ENV_Value,RMS,MDF,MW_Amp,MW_Area,MW_Latency,MW_Valid,Marker
0,1860.8,4.1,0.0,0.0,0.0,0.0,0.0,0,
100,1861.0,5.4,0.0,0.0,0.0,0.0,0.0,0,
200,1860.6,4.6,0.0,0.0,0.0,0.0,0.0,0,
300,1861.3,4.2,0.0,0.0,0.0,0.0,0.0,0,
400,1860.3,196.0,0.0,0.0,0.0,0.0,0.0,0,
500,1851.0,234.2,0.0,72.0,0.0,0.0,0.0,0,
600,1897.8,230.3,0.0,67.5,0.0,0.0,0.0,0,
700,1826.2,292.3,0.0,66.9,0.0,0.0,0.0,0,
800,1855.4,303.6,0.0,67.0,0.0,0.0,0.0,0,
900,1868.3,265.4,0.0,141.7,0.0,0.0,0.0,0,
1000,1854.0,219.7,0.0,158.5,0.0,0.0,0.0,0,
1100,1865.0,15.6,0.0,158.3,0.0,0.0,0.0,0,
1200,1861.2,4.8,0.0,141.7,0.0,0.0,0.0,0,
1300,1861.2,5.5,0.0,101.5,0.0,0.0,0.0,0,
1400,1859.4,4.8,0.0,94.2,0.0,0.0,0.0,0,
1500,1860.6,3.8,0.0,91.5,0.0,0.0,0.0,0,
1600,1860.6,5.1,228.2,100.7,0.0,0.0,0.0,0,
1700,1859.3,6.8,228.2,104.2,0.0,0.0,0.0,0,
1800,1860.8,5.2,228.2,130.3,0.0,0.0,0.0,0,
1900,1860.2,6.4,228.2,101.2,0.0,0.0,0.0,0,
2000,1860.6,6.0,228.2,85.0,0.0,0.0,0.0,0,
2100,1884.5,239.7,226.7,100.1,0.0,0.0,0.0,0,
2200,1840.2,281.6,227.4,66.2,0.0,0.0,0.0,0,
2300,1847.7,305.9,226.9,66.3,0.0,0.0,0.0,0,
2400,1866.7,262.7,225.4,66.7,0.0,0.0,0.0,0,
2600,1881.5,245.2,223.3,157.8,0.0,0.0,0.0,0,
2700,1834.8,29.4,226.7,158.3,0.0,0.0,0.0,0,
2800,1867.3,9.6,226.8,157.5,0.0,0.0,0.0,0,
2900,1861.6,7.0,226.9,99.0,0.0,0.0,0.0,0,
3000,1859.8,4.2,226.9,92.8,0.0,0.0,0.0,0,
3100,1860.0,3.4,226.9,76.7,0.0,0.0,0.0,0,
3200,1860.1,4.1,226.9,57.1,0.0,0.0,0.0,0,
3300,1860.3,4.0,226.9,86.2,0.0,0.0,0.0,0,
3400,1860.5,4.6,226.9,100.4,0.0,0.0,0.0,0,
3600,1860.3,3.8,226.9,102.6,0.0,0.0,0.0,0,
3700,1860.9,269.1,226.8,101.8,0.0,0.0,0.0,0,
3800,1851.3,306.4,226.1,65.8,0.0,0.0,0.0,0,
3900,1862.7,258.0,226.0,65.9,0.0,0.0,0.0,0,
4000,1857.9,216.8,225.0,66.4,0.0,0.0,0.0,0,
4100,1880.8,224.5,227.8,67.2,0.0,0.0,0.0,0,
4200,1842.0,292.3,225.9,157.9,0.0,0.0,0.0,0,
4300,1864.3,51.2,223.7,158.5,0.0,0.0,0.0,0,
4400,1863.7,7.2,223.4,157.8,0.0,0.0,0.0,0,
4600,1861.4,6.0,223.4,123.6,0.0,0.0,0.0,0,
4700,1860.1,5.2,223.4,107.6,0.0,0.0,0.0,0,
4800,1861.0,4.5,223.4,101.3,0.0,0.0,0.0,0,
4900,1860.8,4.2,223.4,123.9,0.0,0.0,0.0,0,
5000,1860.2,4.5,223.4,115.1,0.0,0.0,0.0,0,
5100,1860.7,4.2,223.4,110.3,0.0,0.0,0.0,0,
5200,1860.8,4.5,223.4,104.6,0.0,0.0,0.0,0,
5300,1860.2,233.3,223.4,87.3,0.0,0.0,0.0,0,
5400,1846.8,260.8,223.1,66.1,0.0,0.0,0.0,0,
5600,1883.6,249.4,218.0,66.2,0.0,0.0,0.0,0,
5700,1840.4,281.6,217.9,66.8,0.0,0.0,0.0,0,
5800,1854.3,306.3,218.1,139.5,0.0,0.0,0.0,0,
5900,1859.0,115.2,219.9,158.2,0.0,0.0,0.0,0,
6000,1867.1,9.4,220.4,157.7,0.0,0.0,0.0,0,
6100,1861.0,5.2,220.4,124.6,0.0,0.0,0.0,0,
6200,1861.0,4.0,220.4,100.4,0.0,0.0,0.0,0,
6300,1860.2,4.3,220.4,99.6,0.0,0.0,0.0,0,
6400,1861.1,4.2,220.4,92.9,0.0,0.0,0.0,0,
6600,1860.0,5.1,220.4,108.5,0.0,0.0,0.0,0,
6700,1860.5,4.0,220.4,111.2,0.0,0.0,0.0,0,
6800,1860.3,3.7,220.4,112.0,0.0,0.0,0.0,0,
6900,1860.0,181.0,220.4,111.9,0.0,0.0,0.0,0,
7000,1846.5,222.8,219.6,68.2,0.0,0.0,0.0,0,
7100,1892.9,240.3,220.1,66.5,0.0,0.0,0.0,0,
7200,1833.2,280.6,219.6,66.5,0.0,0.0,0.0,0,
7300,1852.5,289.4,220.1,66.9,0.0,0.0,0.0,0,
7400,1862.7,254.7,219.8,94.2,0.0,0.0,0.0,0,
7600,1867.6,14.7,219.0,157.5,0.0,0.0,0.0,0,
7700,1861.0,4.3,219.0,130.3,0.0,0.0,0.0,0,
7800,1862.5,4.3,219.0,122.4,0.0,0.0,0.0,0,
7900,1860.8,3.9,219.0,101.1,0.0,0.0,0.0,0,
8000,1860.1,4.1,219.0,99.7,0.0,0.0,0.0,0,
8100,1860.7,4.2,219.0,130.5,0.0,0.0,0.0,0,
8200,1860.3,3.1,219.0,105.3,0.0,0.0,0.0,0,
8300,1859.9,3.7,219.0,107.7,0.0,0.0,0.0,0,
8400,1860.4,4.4,219.0,111.5,0.0,0.0,0.0,0,
8600,1889.1,229.4,219.1,195.7,0.0,0.0,0.0,0,
8700,1829.7,259.2,218.0,67.5,1240.0,7060.0,4.0,1,
8800,1852.4,184.2,215.1,66.8,1240.0,7060.0,4.0,1,
8900,1868.5,206.0,210.7,67.1,1920.0,6461.0,27.0,0,
9000,1860.8,191.5,217.9,70.5,1337.0,5181.0,2.0,0,
9100,1881.0,204.6,213.9,65.5,1375.0,5446.0,2.0,0,
9200,1832.7,22.2,202.3,37.8,1414.0,5444.0,2.0,0,
9300,1868.3,5.0,202.6,51.7,1414.0,5444.0,2.0,0,
9400,1862.2,4.6,202.6,88.8,1414.0,5444.0,2.0,0,
9600,1860.3,5.3,202.6,42.6,1414.0,5444.0,2.0,0,
9700,1860.8,4.8,202.6,66.4,1414.0,5444.0,2.0,0,
9800,1860.3,4.0,202.6,99.4,1414.0,5444.0,2.0,0,
9900,1860.7,5.6,202.6,123.3,1414.0,5444.0,2.0,0,
10000,1860.4,5.8,202.6,132.5,1414.0,5444.0,2.0,0,
10100,1860.2,4.2,202.6,106.4,1414.0,5444.0,2.0,0,
10200,1860.6,95.6,202.6,100.6,1195.0,7313.0,4.0,1,
10300,1850.1,93.5,190.2,70.6,1232.0,7135.0,4.0,1,
10400,1869.2,113.9,180.2,72.6,1267.0,7103.0,3.0,1,
10600,1873.2,91.5,129.4,66.2,1436.0,7213.0,4.0,1,
10700,1837.0,56.1,109.8,36.1,1436.0,7114.0,5.0,1,
10800,1864.1,37.9,91.3,36.6,1385.0,6809.0,4.0,1,
10900,1865.1,5.2,94.8,29.5,1385.0,6809.0,4.0,1,
11000,1861.2,3.2,94.8,28.4,1385.0,6809.0,4.0,1,
11100,1861.0,3.6,94.8,29.2,1385.0,6809.0,4.0,1,
11200,1860.1,3.4,94.8,29.6,1385.0,6809.0,4.0,1,
11300,1860.0,3.3,94.8,30.1,1385.0,6809.0,4.0,1,
11400,1860.3,3.4,94.8,132.2,1385.0,6809.0,4.0,1,
11600,1860.1,4.0,94.8,99.5,1385.0,6809.0,4.0,1,
11700,1860.2,3.7,94.8,99.4,1385.0,6809.0,4.0,1,
11800,1860.4,96.9,94.8,100.4,1204.0,7612.0,6.0,1,
11900,1856.0,157.2,93.1,67.9,1286.0,7558.0,3.0,1,
12000,1863.0,80.7,96.1,44.9,1287.0,7419.0,4.0,1,
12100,1871.0,66.7,89.0,47.8,1353.0,7240.0,4.0,1,
12200,1837.8,78.2,89.0,43.7,1368.0,6912.0,5.0,1,
12300,1861.8,62.4,94.2,40.3,1404.0,6744.0,4.0,1,
12400,1867.5,33.5,86.3,27.9,1369.0,6965.0,4.0,1,
12600,1859.9,3.8,78.3,26.2,1369.0,6965.0,4.0,1,
12700,1862.5,3.5,78.3,29.4,1369.0,6965.0,4.0,1,
12800,1860.2,3.3,78.4,42.3,1369.0,6965.0,4.0,1,
12900,1860.0,3.6,78.3,82.9,1369.0,6965.0,4.0,1,
13000,1860.2,3.5,78.3,140.7,1369.0,6965.0,4.0,1,
13100,1860.0,3.4,78.3,138.3,1369.0,6965.0,4.0,1,
13200,1860.3,3.5,78.4,132.2,1369.0,6965.0,4.0,1,
13300,1860.7,2.9,78.3,106.6,1369.0,6965.0,4.0,1,
13400,1860.0,63.3,78.3,122.7,1369.0,6965.0,4.0,1,
13600,1889.1,93.9,73.5,72.9,1278.0,7449.0,4.0,1,
13700,1832.7,78.9,74.4,75.1,1265.0,7308.0,3.0,1,
13800,1859.6,44.0,75.2,90.9,1390.0,7122.0,5.0,1,
13900,1858.3,38.4,68.0,113.9,1377.0,6786.0,4.0,1,
14000,1859.9,43.6,66.0,142.9,1373.0,6595.0,5.0,1,
14100,1861.4,7.2,63.9,110.8,1356.0,6663.0,4.0,1,
14200,1860.8,4.0,63.9,87.4,1356.0,6663.0,4.0,1,
14300,1861.5,3.6,63.9,93.2,1356.0,6663.0,4.0,1,
14400,1860.9,3.3,63.9,94.1,1356.0,6663.0,4.0,1,
14600,1859.6,3.2,63.9,115.7,1356.0,6663.0,4.0,1,
14700,1860.4,3.4,63.9,113.2,1356.0,6663.0,4.0,1,
14800,1860.3,3.3,63.9,110.9,1356.0,6663.0,4.0,1,rest_end
14900,1859.4,2.9,63.9,114.4,1356.0,6663.0,4.0,1,
15000,1859.8,3.4,63.9,100.5,1356.0,6663.0,4.0,1,
15100,1885.0,167.1,63.9,99.1,1231.0,7518.0,4.0,1,
15200,1829.8,122.5,81.0,57.0,1302.0,7453.0,3.0,1,
15300,1852.7,165.9,84.4,44.3,1271.0,7336.0,4.0,1,
15400,1861.3,77.8,94.4,35.0,1362.0,7571.0,4.0,1,
15600,1871.5,93.7,107.8,25.6,1403.0,7326.0,5.0,1,
15700,1841.7,12.3,114.8,25.5,1469.0,7538.0,4.0,1,
15800,1867.2,4.0,114.8,25.4,1469.0,7538.0,4.0,1,
15900,1861.1,3.5,114.8,25.8,1469.0,7538.0,4.0,1,
16000,1860.3,3.5,114.8,27.7,1469.0,7538.0,4.0,1,
16100,1859.0,3.9,114.8,42.7,1469.0,7538.0,4.0,1,
16200,1859.6,3.7,114.8,112.2,1469.0,7538.0,4.0,1,
16300,1859.3,3.0,114.8,116.9,1469.0,7538.0,4.0,1,
16400,1859.0,4.1,114.8,115.7,1469.0,7538.0,4.0,1,
16600,1859.8,3.3,114.8,94.0,1469.0,7538.0,4.0,1,
16700,1859.3,72.4,114.8,99.5,1233.0,8080.0,4.0,1,
16800,1840.0,99.5,108.5,75.5,1296.0,7710.0,3.0,1,
16900,1865.7,87.2,100.8,71.1,1262.0,7486.0,5.0,1,
17000,1863.8,72.8,92.7,71.4,1310.0,7394.0,5.0,1,
17100,1875.5,71.2,90.4,86.5,1290.0,6953.0,3.0,1,
17200,1841.2,83.4,77.0,86.9,1441.0,7573.0,4.0,1,
17300,1854.3,20.2,68.8,67.2,1414.0,7502.0,5.0,1,
17400,1871.5,4.7,68.6,93.6,1414.0,7502.0,5.0,1,
17600,1860.5,4.0,68.6,98.8,1414.0,7502.0,5.0,1,
17700,1859.9,3.3,68.6,94.7,1414.0,7502.0,5.0,1,
17800,1859.7,3.3,68.6,100.7,1414.0,7502.0,5.0,1,
17900,1859.4,4.1,68.6,133.1,1414.0,7502.0,5.0,1,
18000,1860.0,4.4,68.6,126.0,1414.0,7502.0,5.0,1,
18100,1860.4,3.2,68.6,102.2,1414.0,7502.0,5.0,1,
18200,1859.3,2.9,68.6,92.7,1414.0,7502.0,5.0,1,
18300,1859.8,105.2,68.6,89.3,1250.0,8377.0,7.0,1,
18400,1846.9,162.9,71.2,66.7,1261.0,7364.0,3.0,1,
18600,1879.2,139.2,91.3,65.5,1334.0,7592.0,3.0,1,
18700,1834.1,168.7,98.7,47.7,1391.0,7646.0,4.0,1,
18800,1853.0,92.9,108.5,40.0,1477.0,7826.0,4.0,1,
18900,1864.2,49.4,111.2,26.3,1449.0,7662.0,4.0,1,
19000,1866.5,5.9,115.6,25.4,1449.0,7662.0,4.0,1,
19100,1860.5,3.9,115.6,25.4,1449.0,7662.0,4.0,1,
19200,1861.5,3.6,115.6,26.3,1449.0,7662.0,4.0,1,
19300,1859.9,3.5,115.6,29.5,1449.0,7662.0,4.0,1,
19400,1859.8,3.8,115.6,45.8,1449.0,7662.0,4.0,1,
19600,1860.6,2.5,115.6,131.2,1449.0,7662.0,4.0,1,
19700,1860.0,3.0,115.6,102.4,1449.0,7662.0,4.0,1,
19800,1860.3,3.4,115.6,100.1,1449.0,7662.0,4.0,1,
19900,1860.7,70.6,115.6,99.3,1449.0,7662.0,4.0,1,
20000,1859.8,121.7,114.4,66.2,1250.0,8105.0,4.0,1,
20100,1890.8,109.5,105.9,67.4,1296.0,7759.0,4.0,1,
20200,1826.4,79.9,101.9,70.0,1248.0,7696.0,4.0,1,
20300,1852.6,78.2,96.4,92.4,1358.0,7835.0,5.0,1,
20400,1869.2,65.2,94.6,144.8,1415.0,7582.0,3.0,1,
20600,1853.3,9.4,79.2,138.4,1416.0,7494.0,3.0,1,
20700,1860.2,3.9,79.2,110.5,1416.0,7494.0,3.0,1,
20800,1860.8,3.5,79.2,86.3,1416.0,7494.0,3.0,1,
20900,1859.4,3.8,79.2,83.1,1416.0,7494.0,3.0,1,
21000,1859.6,3.1,79.3,85.0,1416.0,7494.0,3.0,1,
21100,1860.9,3.8,79.2,83.8,1416.0,7494.0,3.0,1,
21200,1859.1,3.7,79.3,79.3,1416.0,7494.0,3.0,1,
21300,1860.4,3.6,79.3,101.9,1416.0,7494.0,3.0,1,
21400,1859.3,5.0,79.3,111.0,1416.0,7494.0,3.0,1,
21600,1892.2,132.4,79.4,98.9,1178.0,7854.0,3.0,1,
21700,1821.8,117.4,86.8,37.9,1259.0,7615.0,3.0,1,
21800,1851.6,205.7,89.5,38.1,1275.0,7746.0,4.0,1,
21900,1869.5,87.5,95.6,40.3,1294.0,7588.0,3.0,1,
22000,1866.4,79.1,95.3,49.3,1348.0,7615.0,4.0,1,
22100,1864.5,79.4,98.9,38.4,1345.0,7396.0,4.0,1,
22200,1832.6,11.7,100.1,26.2,1361.0,7157.0,4.0,1,
22300,1868.3,4.0,100.1,26.0,1361.0,7157.0,4.0,1,
22400,1862.1,3.7,100.1,29.8,1361.0,7157.0,4.0,1,
22600,1858.8,4.0,100.1,36.7,1361.0,7157.0,4.0,1,
22700,1860.3,4.1,100.1,88.2,1361.0,7157.0,4.0,1,
22800,1860.7,3.8,100.1,102.3,1361.0,7157.0,4.0,1,
22900,1861.2,3.4,100.1,100.2,1361.0,7157.0,4.0,1,
23000,1860.7,3.5,100.1,103.1,1361.0,7157.0,4.0,1,
23100,1860.8,3.4,100.1,104.0,1361.0,7157.0,4.0,1,
23200,1860.5,121.3,100.0,99.6,1185.0,7867.0,4.0,1,
23300,1850.6,151.6,93.3,68.1,1243.0,7617.0,3.0,1,
23400,1871.1,75.5,99.0,66.4,1266.0,7940.0,4.0,1,
23600,1863.9,87.1,93.1,66.3,1302.0,7691.0,4.0,1,
23700,1840.6,66.1,89.0,84.3,1377.0,7706.0,5.0,1,
23800,1864.2,19.4,86.0,103.3,1368.0,7668.0,4.0,1,
23900,1867.9,5.7,86.0,81.0,1368.0,7668.0,4.0,1,
24000,1864.5,3.5,86.0,66.9,1368.0,7668.0,4.0,1,
24100,1863.0,3.1,86.0,79.5,1368.0,7668.0,4.0,1,
24200,1858.7,4.3,86.0,89.4,1368.0,7668.0,4.0,1,
24300,1860.0,3.0,86.0,88.9,1368.0,7668.0,4.0,1,
24400,1861.0,3.1,86.0,106.4,1368.0,7668.0,4.0,1,
24600,1861.2,2.7,86.0,108.9,1368.0,7668.0,4.0,1,
24700,1861.3,3.0,86.0,100.4,1368.0,7668.0,4.0,1,
24800,1860.3,199.8,86.0,100.4,1240.0,8532.0,7.0,1,
24900,1851.1,127.5,92.3,52.7,1234.0,7769.0,3.0,1,
25000,1875.4,115.4,88.2,47.4,1284.0,7984.0,4.0,1,
25100,1873.3,116.0,92.4,66.1,1310.0,7848.0,5.0,1,
25200,1839.8,79.4,98.5,70.8,1296.0,7692.0,4.0,1,
25300,1863.1,177.1,98.6,81.0,1375.0,7927.0,4.0,1,
25400,1861.2,43.3,103.1,80.5,1378.0,7772.0,4.0,1,
25600,1860.8,3.3,103.4,71.7,1378.0,7772.0,4.0,1,
25700,1861.9,3.7,103.5,66.9,1378.0,7772.0,4.0,1,
25800,1859.6,3.2,103.5,72.1,1378.0,7772.0,4.0,1,
25900,1859.1,3.2,103.5,90.6,1378.0,7772.0,4.0,1,
26000,1860.0,3.3,103.5,100.4,1378.0,7772.0,4.0,1,
26100,1861.0,3.0,103.5,100.7,1378.0,7772.0,4.0,1,
26200,1861.6,2.7,103.5,81.6,1378.0,7772.0,4.0,1,
26300,1861.3,5.0,103.5,90.7,1378.0,7772.0,4.0,1,
26400,1861.4,76.6,103.4,99.8,1378.0,7772.0,4.0,1,
26600,1885.8,143.8,102.2,66.9,1253.0,7964.0,4.0,1,
26700,1830.6,93.0,101.8,65.9,1261.0,7937.0,4.0,1,
26800,1854.9,103.1,96.4,55.6,1312.0,7999.0,4.0,1,
26900,1860.0,92.0,102.6,42.8,1333.0,7846.0,4.0,1,
27000,1869.7,104.7,101.8,40.6,1353.0,7919.0,4.0,1,
27100,1857.3,8.9,100.7,53.8,1353.0,7919.0,4.0,1,
27200,1861.9,4.0,100.6,79.6,1353.0,7919.0,4.0,1,
27300,1862.4,3.4,100.7,85.4,1353.0,7919.0,4.0,1,
27400,1860.0,3.4,100.6,83.8,1353.0,7919.0,4.0,1,
27600,1859.0,3.0,100.7,115.4,1353.0,7919.0,4.0,1,
27700,1859.5,2.8,100.7,139.8,1353.0,7919.0,4.0,1,
27800,1859.6,2.9,100.7,139.2,1353.0,7919.0,4.0,1,
27900,1860.4,2.7,100.7,115.0,1353.0,7919.0,4.0,1,
28000,1860.5,3.7,100.7,105.5,1353.0,7919.0,4.0,1,
28100,1886.8,110.3,100.7,106.7,1185.0,7868.0,3.0,1,
28200,1832.2,106.9,95.7,67.7,1204.0,7723.0,4.0,1,
28300,1846.4,102.1,92.4,67.1,1294.0,8104.0,4.0,1,
28400,1869.4,88.6,90.8,67.7,1270.0,7856.0,5.0,1,
28600,1873.8,93.8,82.1,175.1,1396.0,7947.0,4.0,1,
28700,1843.3,13.9,82.2,176.1,1384.0,7906.0,5.0,1,
28800,1870.2,3.9,82.4,110.9,1384.0,7906.0,5.0,1,
28900,1863.1,5.0,82.4,49.6,1384.0,7906.0,5.0,1,
29000,1860.8,5.0,82.4,46.2,1384.0,7906.0,5.0,1,
29100,1858.6,4.8,82.4,50.5,1384.0,7906.0,5.0,1,
29200,1860.0,4.4,82.4,72.0,1384.0,7906.0,5.0,1,
29300,1859.2,5.8,82.4,99.6,1384.0,7906.0,5.0,1,
29400,1859.4,6.4,82.4,108.4,1384.0,7906.0,5.0,1,
29600,1860.5,5.4,82.4,87.7,1384.0,7906.0,5.0,1,
29700,1859.2,121.7,82.4,89.1,1208.0,8555.0,4.0,1,
29800,1838.4,133.4,86.9,53.4,1236.0,7914.0,4.0,1,
29900,1866.3,166.4,88.1,65.6,1274.0,7990.0,4.0,1,
30000,1874.1,107.0,92.9,66.5,1223.0,7966.0,5.0,1,
30100,1871.3,94.7,99.7,68.6,1245.0,7968.0,5.0,1,
30200,1840.1,86.9,103.1,93.5,1290.0,7990.0,4.0,1,
30300,1851.2,24.4,103.8,66.3,1269.0,7791.0,5.0,1,
30400,1877.8,5.4,104.1,66.0,1269.0,7791.0,5.0,1,
30600,1860.2,5.2,104.1,70.0,1269.0,7791.0,5.0,1,
30700,1858.4,4.8,104.1,68.6,1269.0,7791.0,5.0,1,
30800,1858.2,4.3,104.1,77.0,1269.0,7791.0,5.0,1,
30900,1859.1,4.5,104.1,90.6,1269.0,7791.0,5.0,1,
31000,1859.2,4.1,104.1,90.5,1269.0,7791.0,5.0,1,
31100,1858.9,5.0,104.1,100.6,1269.0,7791.0,5.0,1,
31200,1859.9,4.1,104.1,99.4,1269.0,7791.0,5.0,1,
31300,1859.9,106.6,104.1,86.8,1248.0,8547.0,5.0,1,
31400,1855.1,156.6,102.6,56.2,1255.0,8113.0,3.0,1,
31600,1882.2,95.5,104.0,66.7,1315.0,8449.0,4.0,1,
31700,1829.0,90.0,103.2,80.8,1299.0,8207.0,4.0,1,
31800,1856.7,86.6,97.4,105.8,1286.0,8009.0,5.0,1,
31900,1864.2,84.7,96.1,142.0,1272.0,7900.0,4.0,1,
32000,1867.3,8.6,102.8,157.3,1272.0,7900.0,4.0,1,
32100,1861.2,4.5,102.8,82.1,1272.0,7900.0,4.0,1,
32200,1861.0,4.7,102.8,48.6,1272.0,7900.0,4.0,1,
32300,1858.2,4.4,102.8,44.9,1272.0,7900.0,4.0,1,
32400,1858.5,4.2,102.8,53.6,1272.0,7900.0,4.0,1,
32600,1859.6,4.6,102.8,89.0,1272.0,7900.0,4.0,1,
32700,1859.3,3.9,102.8,101.3,1272.0,7900.0,4.0,1,
32800,1860.5,4.3,102.8,111.4,1272.0,7900.0,4.0,1,
32900,1860.4,87.9,102.8,104.1,1272.0,7900.0,4.0,1,
33000,1862.7,166.9,103.4,54.9,1266.0,8129.0,3.0,1,
33100,1888.0,105.7,104.5,53.3,1299.0,8228.0,4.0,1,
33200,1824.8,103.0,100.6,53.5,1378.0,8647.0,4.0,1,
33300,1854.9,103.0,101.4,57.2,1312.0,8214.0,5.0,1,
33400,1870.2,123.1,101.3,66.9,1278.0,7997.0,3.0,1,
33600,1849.5,8.1,97.9,66.2,1278.0,7997.0,3.0,1,
33700,1862.5,5.1,97.9,40.5,1278.0,7997.0,3.0,1,
33800,1861.3,4.4,97.9,48.2,1278.0,7997.0,3.0,1,
33900,1859.4,5.4,97.9,67.0,1278.0,7997.0,3.0,1,
34000,1858.5,4.9,97.9,67.1,1278.0,7997.0,3.0,1,
34100,1858.3,4.7,97.9,117.6,1278.0,7997.0,3.0,1,
34200,1859.0,4.7,97.9,102.3,1278.0,7997.0,3.0,1,
34300,1859.3,4.6,97.9,93.7,1278.0,7997.0,3.0,1,
34400,1858.6,4.7,97.9,87.7,1278.0,7997.0,3.0,1,
34600,1897.4,141.8,97.9,109.5,1277.0,8761.0,4.0,1,
34700,1816.6,149.6,99.1,40.2,1275.0,8249.0,3.0,1,
34800,1853.1,140.7,103.4,39.6,1250.0,8107.0,4.0,1,
34900,1870.0,140.2,104.8,57.3,1247.0,8075.0,3.0,1,
35000,1876.8,96.1,109.7,67.1,1216.0,7929.0,5.0,1,
35100,1867.0,129.6,106.5,65.5,1263.0,8059.0,4.0,1,
35200,1831.1,21.4,112.2,39.0,1249.0,7720.0,4.0,1,
35300,1868.2,5.0,112.4,41.3,1249.0,7720.0,4.0,1,
35400,1862.1,5.1,112.4,39.3,1249.0,7720.0,4.0,1,
35600,1857.8,5.2,112.4,35.0,1249.0,7720.0,4.0,1,
35700,1858.2,5.0,112.4,36.5,1249.0,7720.0,4.0,1,
35800,1859.2,4.2,112.4,114.7,1249.0,7720.0,4.0,1,
35900,1858.6,4.3,112.4,105.3,1249.0,7720.0,4.0,1,
36000,1859.6,5.0,112.4,100.6,1249.0,7720.0,4.0,1,
36100,1860.0,4.6,112.4,102.0,1249.0,7720.0,4.0,1,
36200,1859.5,118.4,112.4,100.1,1276.0,9011.0,4.0,1,
36300,1847.7,190.3,108.3,67.3,1244.0,7954.0,3.0,1,
36400,1868.3,213.2,111.5,66.1,1287.0,8297.0,4.0,1,
36600,1867.0,113.9,118.0,69.9,1363.0,8433.0,4.0,1,
36700,1831.6,154.2,120.8,87.2,1377.0,8675.0,4.0,1,
36800,1852.3,35.2,127.7,80.6,1354.0,8644.0,4.0,1,
36900,1871.4,6.4,123.7,89.1,1354.0,8644.0,4.0,1,
37000,1861.0,4.5,123.7,69.5,1354.0,8644.0,4.0,1,
37100,1860.4,3.9,123.7,66.3,1354.0,8644.0,4.0,1,
37200,1859.6,4.9,123.7,66.4,1354.0,8644.0,4.0,1,
37300,1859.8,4.3,123.7,67.4,1354.0,8644.0,4.0,1,
37400,1859.0,5.6,123.7,84.9,1354.0,8644.0,4.0,1,
37600,1859.8,4.5,123.7,92.3,1354.0,8644.0,4.0,1,
37700,1859.0,4.3,123.7,87.9,1354.0,8644.0,4.0,1,
37800,1859.6,128.8,123.7,100.3,1233.0,8778.0,7.0,1,
37900,1860.0,136.7,124.3,57.0,1196.0,8146.0,4.0,1,
38000,1874.6,123.0,120.1,56.3,1223.0,7876.0,4.0,1,
38100,1866.1,121.7,117.5,65.7,1252.0,8087.0,4.0,1,
38200,1834.4,117.5,118.1,66.4,1284.0,8278.0,5.0,1,
38300,1854.2,149.7,114.9,65.5,1242.0,8075.0,3.0,1,
38400,1872.2,62.2,111.5,47.1,1270.0,8254.0,4.0,1,
38600,1860.5,4.0,111.2,86.7,1270.0,8254.0,4.0,1,
38700,1860.9,5.4,111.2,67.2,1270.0,8254.0,4.0,1,
38800,1860.6,4.0,111.2,66.5,1270.0,8254.0,4.0,1,
38900,1859.6,5.0,111.2,66.9,1270.0,8254.0,4.0,1,
39000,1859.8,6.1,111.2,113.7,1270.0,8254.0,4.0,1,
39100,1860.1,6.1,111.2,99.3,1270.0,8254.0,4.0,1,
39200,1859.2,4.9,111.2,89.1,1270.0,8254.0,4.0,1,
39300,1859.6,5.2,111.2,89.8,1270.0,8254.0,4.0,1,
39400,1860.2,96.1,111.2,86.5,1270.0,8254.0,4.0,1,
39600,1874.4,149.3,117.4,42.4,1159.0,7675.0,3.0,1,
39700,1833.7,175.6,120.6,39.9,1200.0,7996.0,4.0,1,
39800,1856.8,177.9,121.7,38.7,1241.0,8108.0,3.0,1,
39900,1871.5,214.1,124.3,37.3,1258.0,8301.0,4.0,1,
40000,1878.1,125.1,129.8,35.9,1257.0,8315.0,4.0,1,
40100,1842.2,10.9,130.7,26.9,1257.0,8315.0,4.0,1,
40200,1862.7,5.3,130.7,26.4,1257.0,8315.0,4.0,1,
40300,1861.7,3.5,130.7,37.9,1257.0,8315.0,4.0,1,
40400,1860.1,4.2,130.7,41.4,1257.0,8315.0,4.0,1,
40600,1859.7,4.6,130.7,98.9,1257.0,8315.0,4.0,1,
40700,1860.3,4.8,130.7,98.7,1257.0,8315.0,4.0,1,
40800,1860.4,4.9,130.7,106.5,1257.0,8315.0,4.0,1,
40900,1860.5,4.2,130.7,108.2,1257.0,8315.0,4.0,1,
41000,1860.2,4.9,130.7,123.6,1257.0,8315.0,4.0,1,
41100,1888.8,155.4,130.7,102.4,1178.0,8226.0,4.0,1,
41200,1825.0,110.1,131.2,38.2,1233.0,8055.0,3.0,1,
41300,1850.2,149.5,125.0,38.5,1264.0,8231.0,4.0,1,
41400,1865.4,129.3,124.6,65.7,1305.0,8559.0,4.0,1,
41600,1861.2,110.8,110.1,131.0,1324.0,8431.0,5.0,1,
41700,1837.4,19.0,108.6,157.3,1326.0,8506.0,4.0,1,
41800,1872.3,6.7,108.8,153.0,1326.0,8506.0,4.0,1,
41900,1865.8,5.3,108.8,77.4,1326.0,8506.0,4.0,1,
42000,1866.2,6.1,108.8,66.4,1326.0,8506.0,4.0,1,
42100,1865.9,5.2,108.8,65.4,1326.0,8506.0,4.0,1,
42200,1865.2,4.7,108.8,66.3,1326.0,8506.0,4.0,1,
42300,1864.3,6.3,108.7,103.8,1326.0,8506.0,4.0,1,
42400,1866.0,7.7,108.7,99.7,1326.0,8506.0,4.0,1,
42600,1864.3,4.7,108.7,99.6,1326.0,8506.0,4.0,1,
42700,1862.3,152.9,108.7,72.8,1263.0,8843.0,3.0,1,
42800,1851.8,221.7,109.0,65.7,1305.0,8507.0,4.0,1,
42900,1862.4,132.7,113.3,51.7,1260.0,8112.0,3.0,1,
43000,1879.8,122.9,112.1,47.2,1354.0,8677.0,4.0,1,
43100,1863.6,133.2,111.7,41.7,1344.0,8453.0,5.0,1,
43200,1840.6,107.5,114.9,42.2,1369.0,8840.0,4.0,1,
43300,1863.8,32.7,115.8,48.1,1361.0,8564.0,4.0,1,
43400,1869.1,6.0,115.9,41.1,1361.0,8564.0,4.0,1,
43600,1862.3,4.6,115.9,66.5,1361.0,8564.0,4.0,1,
43700,1862.9,4.8,115.8,66.0,1361.0,8564.0,4.0,1,
43800,1864.9,5.7,115.8,67.7,1361.0,8564.0,4.0,1,
43900,1863.0,4.8,115.8,100.8,1361.0,8564.0,4.0,1,
44000,1861.9,4.7,115.8,105.6,1361.0,8564.0,4.0,1,
44100,1863.7,4.4,115.8,109.0,1361.0,8564.0,4.0,1,
44200,1862.2,3.5,115.8,92.6,1361.0,8564.0,4.0,1,
44300,1861.1,117.8,115.8,91.6,1176.0,8546.0,5.0,1,
44400,1840.9,136.9,111.5,53.5,1197.0,7495.0,4.0,1,
44600,1867.9,103.0,110.9,55.2,1173.0,6914.0,4.0,1,
44700,1846.9,72.7,108.9,54.8,1195.0,7114.0,4.0,1,
44800,1846.2,122.8,103.8,48.9,1228.0,7505.0,4.0,1,
44900,1854.4,80.2,106.4,67.2,1289.0,7474.0,4.0,1,
45000,1870.9,8.8,108.7,72.5,1289.0,7474.0,4.0,1,
45100,1857.7,5.4,108.7,46.8,1289.0,7474.0,4.0,1,
45200,1856.6,5.0,108.7,40.8,1289.0,7474.0,4.0,1,
45300,1858.2,5.8,108.7,41.1,1289.0,7474.0,4.0,1,
45400,1858.0,5.0,108.7,48.7,1289.0,7474.0,4.0,1,
45600,1858.1,5.6,108.7,88.8,1289.0,7474.0,4.0,1,
45700,1859.0,4.6,108.7,86.6,1289.0,7474.0,4.0,1,
45800,1858.8,4.9,108.7,85.0,1289.0,7474.0,4.0,1,
45900,1859.6,90.1,108.7,83.2,1289.0,7474.0,4.0,1,
46000,1846.7,146.3,109.1,67.3,1098.0,7298.0,4.0,1,
46100,1883.0,119.9,110.5,44.3,1134.0,7024.0,3.0,1,
46200,1843.2,100.1,107.7,45.2,1119.0,6996.0,4.0,1,
46300,1841.8,125.3,109.9,56.2,1076.0,6811.0,4.0,1,
46400,1857.7,122.0,110.9,66.6,998.0,6654.0,5.0,1,
46600,1865.4,9.7,106.4,94.2,998.0,6654.0,5.0,1,
46700,1861.3,5.1,106.4,66.3,998.0,6654.0,5.0,1,
46800,1860.4,4.2,106.4,37.9,998.0,6654.0,5.0,1,
46900,1859.8,4.1,106.4,38.1,998.0,6654.0,5.0,1,
47000,1859.3,4.8,106.4,39.8,998.0,6654.0,5.0,1,
47100,1859.7,4.1,106.4,80.4,998.0,6654.0,5.0,1,
47200,1859.6,3.9,106.4,89.3,998.0,6654.0,5.0,1,
47300,1859.5,4.1,106.4,101.4,998.0,6654.0,5.0,1,
47400,1860.0,3.7,106.4,100.7,998.0,6654.0,5.0,1,
47600,1883.5,135.3,106.4,88.4,1096.0,7687.0,4.0,1,
47700,1835.6,127.6,104.6,44.7,1144.0,7158.0,4.0,1,
47800,1837.2,151.6,107.0,39.8,1109.0,7015.0,4.0,1,
47900,1867.2,153.7,107.5,38.8,1085.0,6896.0,4.0,1,
48000,1874.9,112.1,109.0,66.1,1013.0,6732.0,5.0,1,
48100,1872.7,101.2,108.4,90.1,957.0,6603.0,5.0,1,
48200,1850.7,16.9,106.1,72.4,1009.0,6558.0,5.0,1,
48300,1862.9,4.6,106.5,66.9,1009.0,6558.0,5.0,1,
48400,1861.0,4.7,106.5,40.4,1009.0,6558.0,5.0,1,
48600,1859.9,3.9,106.5,37.0,1009.0,6558.0,5.0,1,
48700,1860.3,5.8,106.5,53.4,1009.0,6558.0,5.0,1,
48800,1860.0,5.8,106.5,92.0,1009.0,6558.0,5.0,1,
48900,1860.4,3.9,106.5,91.9,1009.0,6558.0,5.0,1,
49000,1860.1,3.8,106.5,91.4,1009.0,6558.0,5.0,1,
49100,1859.9,4.4,106.5,85.9,1009.0,6558.0,5.0,1,
49200,1860.0,113.9,106.5,98.7,1130.0,8377.0,4.0,1,
49300,1840.8,168.1,107.0,37.8,1150.0,7299.0,3.0,1,
49400,1866.7,222.0,108.6,36.4,1136.0,7105.0,3.0,1,
49600,1875.5,129.0,128.6,40.4,1036.0,6819.0,4.0,1,
49700,1847.8,109.5,129.9,37.9,967.0,6662.0,4.0,1,
49800,1840.6,30.8,131.2,30.0,1024.0,6597.0,5.0,1,
49900,1885.0,5.0,131.1,35.7,1024.0,6597.0,5.0,1,
50000,1861.0,4.7,131.1,40.6,1024.0,6597.0,5.0,1,
50100,1860.8,4.3,131.1,36.1,1024.0,6597.0,5.0,1,
50200,1859.0,5.1,131.1,36.5,1024.0,6597.0,5.0,1,
50300,1858.1,5.5,131.1,39.4,1024.0,6597.0,5.0,1,
50400,1858.5,4.6,131.1,101.2,1024.0,6597.0,5.0,1,
50600,1858.7,5.5,131.1,82.5,1024.0,6597.0,5.0,1,
50700,1859.2,3.6,131.2,76.3,1024.0,6597.0,5.0,1,
50800,1859.9,146.8,131.1,71.3,1113.0,8296.0,4.0,1,
50900,1846.1,271.9,132.2,43.8,1102.0,7618.0,4.0,1,
51000,1875.0,151.7,138.1,45.5,1138.0,7244.0,4.0,1,
51100,1879.6,127.1,133.1,42.1,1074.0,6927.0,4.0,1,
51200,1845.5,130.1,123.9,39.6,1031.0,6722.0,4.0,1,
51300,1843.0,120.1,123.6,65.7,941.0,6416.0,4.0,1,
51400,1864.0,57.7,122.9,65.8,994.0,6422.0,5.0,1,
51600,1860.7,4.3,122.7,44.5,994.0,6422.0,5.0,1,
51700,1861.6,4.0,122.7,36.1,994.0,6422.0,5.0,1,
51800,1860.3,4.5,122.7,36.1,994.0,6422.0,5.0,1,
51900,1859.8,4.0,122.7,38.6,994.0,6422.0,5.0,1,
52000,1859.7,4.5,122.7,85.9,994.0,6422.0,5.0,1,
52100,1860.1,5.0,122.7,80.8,994.0,6422.0,5.0,1,
52200,1860.3,3.4,122.7,84.5,994.0,6422.0,5.0,1,
52300,1861.1,5.6,122.7,93.3,994.0,6422.0,5.0,1,
52400,1860.8,192.2,122.7,92.6,994.0,6422.0,5.0,1,
52600,1885.3,203.0,129.2,46.7,1171.0,7327.0,4.0,1,
52700,1835.9,135.0,134.1,45.6,1113.0,6885.0,3.0,1,
52800,1846.1,134.4,134.3,41.3,1058.0,6624.0,4.0,1,
52900,1868.5,118.4,130.5,41.2,966.0,6143.0,4.0,1,
53000,1872.9,85.8,130.3,74.7,899.0,5726.0,5.0,1,
53100,1863.4,9.3,129.6,93.4,899.0,5726.0,5.0,1,
53200,1862.9,5.3,129.6,65.6,899.0,5726.0,5.0,1,
53300,1860.3,4.4,129.6,35.4,899.0,5726.0,5.0,1,
53400,1860.3,4.2,129.6,35.7,899.0,5726.0,5.0,1,
53600,1858.7,5.1,129.6,79.0,899.0,5726.0,5.0,1,
53700,1859.2,4.2,129.6,85.7,899.0,5726.0,5.0,1,
53800,1859.5,4.2,129.6,85.0,899.0,5726.0,5.0,1,
53900,1858.9,3.8,129.6,108.8,899.0,5726.0,5.0,1,
54000,1859.2,4.2,129.7,130.0,899.0,5726.0,5.0,1,
54100,1891.5,182.9,124.3,101.3,983.0,7082.0,4.0,1,
54200,1828.4,114.2,123.1,39.1,927.0,6180.0,4.0,1,
54300,1848.9,121.8,112.0,38.0,858.0,5716.0,6.0,1,
54400,1865.9,95.4,108.4,37.7,817.0,5617.0,4.0,1,
54600,1874.7,96.0,101.6,28.1,827.0,5470.0,5.0,1,
54700,1848.1,16.4,101.9,29.9,812.0,5318.0,6.0,1,
54800,1861.1,5.3,102.0,40.0,812.0,5318.0,6.0,1,
54900,1861.2,4.5,102.0,30.2,812.0,5318.0,6.0,1,
55000,1860.3,4.9,102.0,34.6,812.0,5318.0,6.0,1,
55100,1857.3,6.1,102.0,36.0,812.0,5318.0,6.0,1,
55200,1857.0,5.2,102.0,55.5,812.0,5318.0,6.0,1,
55300,1857.8,5.2,102.0,82.4,812.0,5318.0,6.0,1,
55400,1857.9,4.7,102.0,99.4,812.0,5318.0,6.0,1,
55600,1858.8,4.6,102.0,84.2,812.0,5318.0,6.0,1,
55700,1858.6,127.8,102.0,108.4,1228.0,8848.0,4.0,1,
55800,1846.2,165.2,106.0,45.3,1264.0,8001.0,4.0,1,
55900,1873.6,188.4,100.8,40.7,1133.0,6894.0,3.0,1,
56000,1880.4,209.0,104.0,46.9,1208.0,7005.0,3.0,1,
56100,1871.2,171.0,114.9,45.8,1210.0,7302.0,4.0,1,
56200,1834.9,122.7,122.8,38.2,1147.0,7093.0,4.0,1,
56300,1853.1,35.0,126.9,29.0,1125.0,6704.0,3.0,1,
56400,1875.8,7.6,126.4,29.9,1125.0,6704.0,3.0,1,
56600,1859.2,5.0,126.4,35.5,1125.0,6704.0,3.0,1,
56700,1858.5,5.5,126.4,37.9,1125.0,6704.0,3.0,1,
56800,1857.4,4.3,126.4,55.3,1125.0,6704.0,3.0,1,
56900,1858.0,4.4,126.4,89.5,1125.0,6704.0,3.0,1,
57000,1859.1,4.9,126.4,108.9,1125.0,6704.0,3.0,1,
57100,1860.0,5.4,126.4,107.8,1125.0,6704.0,3.0,1,
57200,1858.6,5.9,126.4,101.0,1125.0,6704.0,3.0,1,
57300,1859.8,120.4,126.5,100.2,1162.0,8279.0,5.0,1,
57400,1858.0,186.6,124.5,56.2,1275.0,8786.0,3.0,1,
57600,1877.5,152.1,124.6,50.1,1155.0,6961.0,4.0,1,
57700,1834.7,122.3,120.0,41.4,1002.0,6292.0,4.0,1,
57800,1850.5,106.0,119.8,37.7,875.0,5761.0,5.0,1,
57900,1873.3,58.0,114.1,45.7,864.0,5511.0,4.0,1,
58000,1866.4,6.1,112.5,38.4,864.0,5511.0,4.0,1,
58100,1861.3,3.8,112.6,35.4,864.0,5511.0,4.0,1,
58200,1860.3,4.2,112.6,36.1,864.0,5511.0,4.0,1,
58300,1859.0,3.6,112.6,37.0,864.0,5511.0,4.0,1,
58400,1858.3,4.6,112.6,41.7,864.0,5511.0,4.0,1,
58600,1858.9,3.7,112.6,122.2,864.0,5511.0,4.0,1,
58700,1859.0,3.9,112.6,115.0,864.0,5511.0,4.0,1,
58800,1860.0,3.5,112.6,101.9,864.0,5511.0,4.0,1,
58900,1860.7,88.6,112.6,89.3,864.0,5511.0,4.0,1,
59000,1872.7,241.6,114.6,44.0,1163.0,8028.0,3.0,1,
59100,1883.5,197.5,121.0,36.9,1170.0,7642.0,4.0,1,
59200,1827.2,155.0,124.8,37.1,1149.0,7294.0,3.0,1,
59300,1854.2,174.8,127.1,37.5,1158.0,7200.0,4.0,1,
59400,1873.0,173.4,127.7,30.0,1143.0,7067.0,3.0,1,
59600,1847.2,13.8,139.2,35.1,1143.0,7067.0,3.0,1,
59700,1862.6,4.9,139.2,36.5,1143.0,7067.0,3.0,1,
59800,1861.2,4.0,139.2,36.4,1143.0,7067.0,3.0,1,
59900,1859.6,5.0,139.3,36.6,1143.0,7067.0,3.0,1,
60000,1857.6,7.0,139.2,35.5,1143.0,7067.0,3.0,1,
60100,1858.1,10.5,139.2,112.8,1143.0,7067.0,3.0,1,
60200,1858.1,5.0,139.3,100.9,1143.0,7067.0,3.0,1,
60300,1859.9,5.5,139.3,80.7,1143.0,7067.0,3.0,1,
60400,1859.8,5.2,139.3,80.6,1143.0,7067.0,3.0,1,
60600,1899.3,162.0,139.3,122.4,1146.0,8614.0,4.0,1,
60700,1822.0,145.2,134.9,36.1,1087.0,7685.0,4.0,1,
60800,1845.7,183.1,137.2,35.8,1054.0,7087.0,5.0,1,
60900,1871.9,159.2,136.8,36.0,1089.0,7088.0,4.0,1,
61000,1876.8,206.7,137.1,40.0,1096.0,6819.0,3.0,1,
61100,1875.8,178.0,138.0,35.1,1089.0,6942.0,4.0,1,
61200,1835.8,27.2,138.8,34.3,1076.0,6767.0,3.0,1,
61300,1862.0,5.2,139.5,36.5,1076.0,6767.0,3.0,1,
61400,1860.9,4.1,139.5,36.9,1076.0,6767.0,3.0,1,
61600,1860.3,3.6,139.6,36.0,1076.0,6767.0,3.0,1,
61700,1860.0,4.0,139.6,34.5,1076.0,6767.0,3.0,1,
61800,1860.3,3.5,139.5,106.5,1076.0,6767.0,3.0,1,
61900,1860.8,3.5,139.5,99.1,1076.0,6767.0,3.0,1,
62000,1860.2,3.5,139.5,101.5,1076.0,6767.0,3.0,1,
62100,1860.7,5.8,139.5,101.2,1076.0,6767.0,3.0,1,
62200,1860.5,140.9,139.5,93.8,1162.0,8841.0,5.0,1,
62300,1845.7,230.0,137.8,46.2,1163.0,8106.0,4.0,1,
62400,1872.3,168.3,140.0,46.7,1141.0,7705.0,4.0,1,
62600,1870.0,148.2,136.9,66.3,1107.0,7344.0,4.0,1,
62700,1830.0,135.1,132.5,79.7,1061.0,7148.0,3.0,1,
62800,1847.6,39.7,133.5,72.7,1058.0,7224.0,4.0,1,
62900,1874.1,5.5,129.7,66.7,1058.0,7224.0,4.0,1,
63000,1860.2,4.4,129.7,36.9,1058.0,7224.0,4.0,1,
63100,1861.2,3.1,129.7,35.9,1058.0,7224.0,4.0,1,
63200,1860.8,3.4,129.7,36.3,1058.0,7224.0,4.0,1,
63300,1861.0,4.5,129.7,38.7,1058.0,7224.0,4.0,1,
63400,1861.5,2.7,129.7,99.7,1058.0,7224.0,4.0,1,
63600,1861.8,4.0,129.7,98.7,1058.0,7224.0,4.0,1,
63700,1861.4,2.8,129.7,86.0,1058.0,7224.0,4.0,1,
63800,1860.4,191.2,129.7,106.2,1221.0,9106.0,4.0,1,
63900,1861.2,156.0,132.4,43.1,1209.0,8587.0,4.0,1,
64000,1870.0,159.4,132.2,45.2,1250.0,7967.0,4.0,1,
64100,1867.3,144.1,134.4,53.8,1203.0,7666.0,4.0,1,
64200,1830.0,159.4,132.4,66.2,1172.0,7418.0,4.0,1,
64300,1848.8,178.0,134.8,66.9,1134.0,7268.0,3.0,1,
64400,1867.9,79.2,136.7,67.6,1110.0,7336.0,4.0,1,
64600,1859.8,3.8,136.6,36.7,1110.0,7336.0,4.0,1,
64700,1860.1,3.7,136.6,35.8,1110.0,7336.0,4.0,1,
64800,1860.9,3.9,136.6,36.0,1110.0,7336.0,4.0,1,
64900,1860.0,4.0,136.7,38.2,1110.0,7336.0,4.0,1,
65000,1861.3,4.2,136.7,76.2,1110.0,7336.0,4.0,1,
65100,1861.5,6.3,136.7,76.9,1110.0,7336.0,4.0,1,
65200,1861.9,3.6,136.7,85.1,1110.0,7336.0,4.0,1,
65300,1861.9,3.6,136.7,90.4,1110.0,7336.0,4.0,1,
65400,1862.2,141.8,136.7,90.2,1110.0,7336.0,4.0,1,
65600,1875.9,153.2,136.4,30.3,1197.0,7749.0,4.0,1,
65700,1832.2,123.1,130.8,30.2,1169.0,7456.0,5.0,1,
65800,1855.2,166.9,129.1,34.8,1194.0,7811.0,3.0,1,
65900,1870.2,102.7,127.2,66.7,1282.0,7818.0,4.0,1,
66000,1882.6,113.1,121.3,76.5,1349.0,8100.0,4.0,1,
66100,1838.1,9.7,119.2,43.4,1349.0,8100.0,4.0,1,
66200,1862.5,4.1,119.2,66.4,1349.0,8100.0,4.0,1,
66300,1861.9,4.0,119.2,42.8,1349.0,8100.0,4.0,1,
66400,1861.6,3.9,119.2,37.6,1349.0,8100.0,4.0,1,
66600,1860.5,4.1,119.2,99.5,1349.0,8100.0,4.0,1,
66700,1860.5,3.5,119.2,88.8,1349.0,8100.0,4.0,1,
66800,1860.7,4.3,119.2,91.3,1349.0,8100.0,4.0,1,
66900,1860.0,3.3,119.2,93.2,1349.0,8100.0,4.0,1,
67000,1861.6,4.4,119.2,94.3,1349.0,8100.0,4.0,1,
67100,1896.2,146.9,117.6,102.3,1245.0,9164.0,4.0,1,
67200,1821.6,152.9,117.8,46.2,1259.0,8614.0,4.0,1,
67300,1850.2,195.6,117.1,40.5,1193.0,7927.0,3.0,1,
67400,1869.5,119.7,122.7,57.3,1203.0,8051.0,4.0,1,
67600,1855.0,136.6,120.4,82.3,1326.0,7981.0,4.0,1,
67700,1836.6,18.1,125.5,86.0,1367.0,7964.0,4.0,1,
67800,1864.2,4.6,125.9,41.0,1367.0,7964.0,4.0,1,
67900,1860.9,3.8,125.9,35.6,1367.0,7964.0,4.0,1,
68000,1861.0,4.4,125.9,36.1,1367.0,7964.0,4.0,1,
68100,1861.0,4.7,125.9,37.3,1367.0,7964.0,4.0,1,
68200,1860.7,5.5,125.9,51.8,1367.0,7964.0,4.0,1,
68300,1860.0,4.8,125.9,101.6,1367.0,7964.0,4.0,1,
68400,1859.3,4.0,125.9,122.4,1367.0,7964.0,4.0,1,
68600,1859.2,4.0,125.9,104.9,1367.0,7964.0,4.0,1,
68700,1860.2,186.7,125.9,100.2,1199.0,8854.0,3.0,1,
68800,1845.7,251.5,134.3,37.9,1224.0,8356.0,4.0,1,
68900,1868.1,223.6,136.1,38.3,1232.0,7990.0,4.0,1,
69000,1872.0,155.0,136.5,40.1,1173.0,7867.0,4.0,1,
69100,1861.8,156.2,141.3,65.7,1222.0,7756.0,4.0,1,
69200,1835.4,127.3,146.6,40.6,1288.0,7844.0,4.0,1,
69300,1854.0,33.2,143.7,30.0,1342.0,7974.0,4.0,1,
69400,1873.0,5.4,143.6,34.7,1342.0,7974.0,4.0,1,
69600,1861.0,3.7,143.6,36.7,1342.0,7974.0,4.0,1,
69700,1860.5,4.0,143.6,37.0,1342.0,7974.0,4.0,1,
69800,1859.3,5.4,143.6,41.4,1342.0,7974.0,4.0,1,
69900,1859.5,3.8,143.6,99.7,1342.0,7974.0,4.0,1,
70000,1859.5,4.0,143.6,70.8,1342.0,7974.0,4.0,1,
70100,1859.6,6.0,143.6,67.7,1342.0,7974.0,4.0,1,
70200,1860.1,4.5,143.6,68.9,1342.0,7974.0,4.0,1,
70300,1860.2,233.6,143.6,76.1,1215.0,9258.0,5.0,1,
70400,1858.6,182.6,139.6,36.7,1211.0,8706.0,4.0,1,
70600,1878.1,139.7,137.9,35.8,1175.0,8361.0,4.0,1,
70700,1826.0,136.4,135.5,38.5,1301.0,8227.0,4.0,1,
70800,1852.0,150.5,124.7,66.8,1332.0,7884.0,5.0,1,
70900,1872.3,84.6,129.5,57.1,1319.0,7812.0,4.0,1,
71000,1865.8,8.3,131.6,30.1,1319.0,7812.0,4.0,1,
71100,1861.2,3.5,131.6,27.7,1319.0,7812.0,4.0,1,
71200,1860.6,4.0,131.6,35.6,1319.0,7812.0,4.0,1,
71300,1859.9,4.1,131.6,36.2,1319.0,7812.0,4.0,1,
71400,1860.5,3.3,131.6,35.9,1319.0,7812.0,4.0,1,
71600,1859.0,4.7,131.6,87.3,1319.0,7812.0,4.0,1,
71700,1860.0,4.0,131.6,102.0,1319.0,7812.0,4.0,1,
71800,1859.9,3.9,131.6,102.7,1319.0,7812.0,4.0,1,
71900,1860.1,98.0,131.6,101.4,1319.0,7812.0,4.0,1,
72000,1869.9,160.0,128.7,48.4,1244.0,8630.0,4.0,1,
72100,1883.2,184.7,126.0,38.4,1227.0,8277.0,4.0,1,
72200,1823.9,140.9,123.2,37.4,1196.0,8266.0,4.0,1,
72300,1851.7,154.3,123.2,42.0,1241.0,8286.0,5.0,1,
72400,1873.4,144.2,124.3,40.7,1317.0,8145.0,3.0,1,
72600,1846.4,9.0,118.2,29.9,1317.0,8145.0,3.0,1,
72700,1862.4,4.4,118.2,37.3,1317.0,8145.0,3.0,1,
72800,1860.5,4.4,118.2,36.6,1317.0,8145.0,3.0,1,
72900,1860.5,3.3,118.2,37.9,1317.0,8145.0,3.0,1,
73000,1860.3,3.3,118.2,40.2,1317.0,8145.0,3.0,1,
73100,1859.6,4.0,118.2,80.5,1317.0,8145.0,3.0,1,
73200,1860.2,3.6,118.2,100.7,1317.0,8145.0,3.0,1,
73300,1859.9,3.7,118.2,99.8,1317.0,8145.0,3.0,1,
73400,1859.2,4.3,118.2,101.6,1317.0,8145.0,3.0,1,
73600,1896.9,174.4,118.2,107.1,1349.0,9385.0,4.0,1,
73700,1815.0,147.6,119.3,43.3,1276.0,8712.0,3.0,1,
73800,1846.1,160.8,120.5,40.4,1277.0,8429.0,4.0,1,
73900,1872.8,274.3,118.6,46.8,1256.0,8581.0,3.0,1,
74000,1877.4,133.2,129.6,54.3,1303.0,8454.0,3.0,1,
74100,1868.1,123.2,128.6,66.4,1366.0,8873.0,4.0,1,
74200,1841.9,19.4,130.0,36.2,1353.0,8750.0,4.0,1,
74300,1866.0,4.6,130.5,47.6,1353.0,8750.0,4.0,1,
74400,1860.6,4.0,130.5,65.5,1353.0,8750.0,4.0,1,
74600,1859.9,4.4,130.5,38.1,1353.0,8750.0,4.0,1,
74700,1859.9,4.2,130.5,55.9,1353.0,8750.0,4.0,1,
74800,1859.4,3.8,130.5,102.1,1353.0,8750.0,4.0,1,
74900,1858.8,4.2,130.5,107.1,1353.0,8750.0,4.0,1,
75000,1859.0,3.9,130.5,125.2,1353.0,8750.0,4.0,1,
75100,1859.5,3.5,130.5,111.8,1353.0,8750.0,4.0,1,
75200,1859.0,150.0,130.5,92.8,1384.0,9828.0,4.0,1,
75300,1833.7,206.0,132.8,45.6,1335.0,9117.0,3.0,1,
75400,1864.5,168.7,134.6,48.2,1336.0,8913.0,4.0,1,
75600,1871.5,136.5,125.2,66.4,1281.0,8819.0,4.0,1,
75700,1839.9,128.7,125.5,81.4,1324.0,8700.0,4.0,1,
75800,1840.2,38.9,127.2,92.4,1332.0,8868.0,4.0,1,
75900,1885.5,5.5,127.4,78.8,1332.0,8868.0,4.0,1,
76000,1860.7,3.9,127.4,53.9,1332.0,8868.0,4.0,1,
76100,1859.8,4.0,127.4,37.9,1332.0,8868.0,4.0,1,
76200,1859.6,4.2,127.4,38.0,1332.0,8868.0,4.0,1,
76300,1859.7,4.6,127.4,43.1,1332.0,8868.0,4.0,1,
76400,1859.0,4.1,127.4,140.1,1332.0,8868.0,4.0,1,
76600,1858.8,3.8,127.4,90.2,1332.0,8868.0,4.0,1,
76700,1859.2,3.8,127.4,111.1,1332.0,8868.0,4.0,1,
76800,1859.5,133.2,127.4,116.1,1319.0,9229.0,5.0,1,
76900,1852.6,175.4,123.8,52.1,1373.0,9327.0,3.0,1,
77000,1872.2,125.4,119.1,48.9,1358.0,8711.0,3.0,1,
77100,1874.2,186.4,117.6,55.2,1315.0,8917.0,4.0,1,
77200,1831.3,139.9,121.8,66.1,1256.0,8757.0,4.0,1,
77300,1847.2,200.6,120.9,79.8,1326.0,8631.0,3.0,1,
77400,1866.8,82.3,132.7,79.5,1335.0,8741.0,4.0,1,
77600,1860.4,3.6,132.8,35.6,1335.0,8741.0,4.0,1,
77700,1860.5,4.1,132.8,36.0,1335.0,8741.0,4.0,1,
77800,1860.5,3.2,132.8,37.4,1335.0,8741.0,4.0,1,
77900,1859.4,3.4,132.8,38.7,1335.0,8741.0,4.0,1,
78000,1859.2,3.7,132.8,99.5,1335.0,8741.0,4.0,1,
78100,1859.0,3.8,132.8,73.0,1335.0,8741.0,4.0,1,
78200,1859.0,3.2,132.8,84.6,1335.0,8741.0,4.0,1,
78300,1859.9,4.3,132.8,91.0,1335.0,8741.0,4.0,1,
78400,1859.4,89.9,132.8,90.2,1335.0,8741.0,4.0,1,
78600,1883.0,182.9,134.2,48.9,1261.0,8636.0,4.0,1,
78700,1826.7,140.8,137.0,50.3,1244.0,8661.0,4.0,1,
78800,1848.0,139.2,137.6,57.5,1237.0,8474.0,5.0,1,
78900,1865.2,203.4,131.9,66.2,1276.0,8428.0,5.0,1,
79000,1878.6,124.6,122.5,85.1,1297.0,8350.0,5.0,1,
79100,1855.3,9.9,121.3,66.7,1297.0,8350.0,5.0,1,
79200,1862.5,4.2,121.3,34.4,1297.0,8350.0,5.0,1,
79300,1860.8,3.7,121.3,35.7,1297.0,8350.0,5.0,1,
79400,1859.6,3.9,121.3,36.1,1297.0,8350.0,5.0,1,
79600,1859.0,4.6,121.3,99.3,1297.0,8350.0,5.0,1,
79700,1859.3,3.8,121.3,101.8,1297.0,8350.0,5.0,1,
79800,1859.4,4.1,121.3,99.8,1297.0,8350.0,5.0,1,
79900,1859.6,3.1,121.3,79.1,1297.0,8350.0,5.0,1,
80000,1859.3,4.5,121.3,89.2,1297.0,8350.0,5.0,1,
80100,1896.7,201.1,121.3,102.2,1266.0,9039.0,4.0,1,
80200,1819.8,148.1,125.7,43.5,1286.0,8761.0,4.0,1,
80300,1842.9,185.7,125.7,38.9,1204.0,8437.0,4.0,1,
80400,1865.0,138.7,126.3,40.2,1234.0,8480.0,4.0,1,
80600,1867.4,119.5,122.8,67.2,1329.0,8607.0,4.0,1,
80700,1844.2,18.2,122.6,67.0,1331.0,8589.0,5.0,1,
80800,1866.6,4.3,123.0,66.2,1331.0,8589.0,5.0,1,
80900,1860.3,4.1,123.0,37.0,1331.0,8589.0,5.0,1,
81000,1860.3,3.7,123.0,37.1,1331.0,8589.0,5.0,1,
81100,1859.7,3.6,123.0,37.7,1331.0,8589.0,5.0,1,
81200,1858.8,4.0,123.0,50.3,1331.0,8589.0,5.0,1,
81300,1859.0,3.8,123.0,100.7,1331.0,8589.0,5.0,1,
81400,1859.4,3.2,123.0,94.4,1331.0,8589.0,5.0,1,
81600,1859.2,4.3,123.0,93.2,1331.0,8589.0,5.0,1,
81700,1859.8,137.6,123.0,83.1,1379.0,9559.0,4.0,1,
81800,1832.6,226.9,123.9,49.3,1330.0,8872.0,3.0,1,
81900,1867.4,215.0,130.0,46.9,1339.0,8809.0,4.0,1,
82000,1883.5,145.0,129.1,40.8,1247.0,8585.0,4.0,1,
82100,1870.2,200.4,131.2,39.0,1286.0,8440.0,3.0,1,
82200,1843.0,221.8,139.3,65.9,1335.0,8868.0,4.0,1,
82300,1844.7,41.2,144.9,35.5,1325.0,8532.0,5.0,1,
82400,1884.3,6.0,145.0,26.3,1325.0,8532.0,5.0,1,
82600,1860.7,3.4,145.0,29.3,1325.0,8532.0,5.0,1,
82700,1859.4,4.2,145.0,29.1,1325.0,8532.0,5.0,1,
82800,1859.5,3.4,145.0,37.3,1325.0,8532.0,5.0,1,
82900,1859.0,3.7,145.0,72.7,1325.0,8532.0,5.0,1,
83000,1858.7,4.6,145.0,92.5,1325.0,8532.0,5.0,1,
83100,1859.4,3.9,145.0,100.8,1325.0,8532.0,5.0,1,
83200,1859.5,3.9,145.0,90.9,1325.0,8532.0,5.0,1,
83300,1859.3,140.7,145.0,79.1,1308.0,9300.0,4.0,1,
83400,1841.0,218.0,143.8,55.7,1311.0,8978.0,4.0,1,
83600,1873.4,200.7,130.2,55.6,1248.0,8243.0,3.0,1,
83700,1839.4,128.4,136.8,65.7,1252.0,8725.0,4.0,1,
83800,1842.8,155.4,129.7,40.5,1269.0,8724.0,4.0,1,
83900,1867.2,88.4,129.1,35.1,1290.0,8577.0,5.0,1,
84000,1879.5,7.6,129.2,30.0,1290.0,8577.0,5.0,1,
84100,1860.9,3.5,129.2,35.9,1290.0,8577.0,5.0,1,
84200,1859.9,3.9,129.2,35.3,1290.0,8577.0,5.0,1,
84300,1859.8,3.7,129.2,30.0,1290.0,8577.0,5.0,1,
84400,1859.8,3.9,129.2,30.0,1290.0,8577.0,5.0,1,
84600,1859.5,4.0,129.3,99.8,1290.0,8577.0,5.0,1,
84700,1859.2,3.3,129.2,99.4,1290.0,8577.0,5.0,1,
84800,1859.3,4.1,129.2,80.6,1290.0,8577.0,5.0,1,
84900,1860.0,82.5,129.2,78.5,1290.0,8577.0,5.0,1,
85000,1857.2,165.3,128.9,53.1,1326.0,9123.0,4.0,1,
85100,1880.5,153.8,126.7,49.0,1338.0,8640.0,3.0,1,
85200,1836.7,205.4,127.8,45.8,1251.0,8568.0,4.0,1,
85300,1842.5,147.7,124.7,65.5,1207.0,8511.0,4.0,1,
85400,1863.7,141.8,123.5,65.6,1216.0,8550.0,5.0,1,
85600,1851.9,10.9,118.1,36.5,1216.0,8550.0,5.0,1,
85700,1862.1,5.1,118.1,47.5,1216.0,8550.0,5.0,1,
85800,1860.8,3.8,118.1,46.0,1216.0,8550.0,5.0,1,
85900,1860.1,3.7,118.1,38.4,1216.0,8550.0,5.0,1,
86000,1858.9,4.4,118.1,38.4,1216.0,8550.0,5.0,1,
86100,1859.6,4.9,118.1,100.6,1216.0,8550.0,5.0,1,
86200,1859.0,3.3,118.1,99.6,1216.0,8550.0,5.0,1,
86300,1858.9,4.3,118.1,88.4,1216.0,8550.0,5.0,1,
86400,1859.1,3.2,118.1,86.6,1216.0,8550.0,5.0,1,
86600,1885.8,187.2,118.1,99.5,1380.0,9348.0,3.0,1,
86700,1825.0,142.1,120.9,47.3,1371.0,9004.0,4.0,1,
86800,1844.4,155.3,120.7,41.9,1304.0,8848.0,4.0,1,
86900,1863.1,146.1,120.0,51.2,1257.0,8644.0,4.0,1,
87000,1882.4,180.3,116.9,79.0,1303.0,8746.0,4.0,1,
87100,1867.3,158.9,120.4,136.1,1379.0,9016.0,4.0,1,
87200,1844.2,23.6,121.9,88.7,1371.0,8880.0,4.0,1,
87300,1866.3,4.5,122.4,65.5,1371.0,8880.0,4.0,1,
87400,1861.6,3.4,122.4,35.9,1371.0,8880.0,4.0,1,
87600,1859.3,3.6,122.4,37.0,1371.0,8880.0,4.0,1,
87700,1859.4,5.3,122.4,52.8,1371.0,8880.0,4.0,1,
87800,1858.8,4.5,122.4,105.2,1371.0,8880.0,4.0,1,
87900,1859.7,4.1,122.4,101.0,1371.0,8880.0,4.0,1,
88000,1859.9,3.6,122.4,86.6,1371.0,8880.0,4.0,1,
88100,1859.5,3.7,122.4,86.9,1371.0,8880.0,4.0,1,
88200,1859.7,108.8,122.4,91.1,1389.0,9082.0,4.0,1,
88300,1838.6,176.2,117.4,50.5,1383.0,9013.0,4.0,1,
88400,1858.0,154.5,120.0,46.9,1350.0,8589.0,4.0,1,
88600,1869.5,187.6,122.4,66.4,1316.0,8704.0,4.0,1,
88700,1844.3,132.5,125.4,92.3,1362.0,8793.0,4.0,1,
88800,1850.7,41.5,125.8,71.0,1376.0,8726.0,4.0,1,
88900,1872.8,5.1,124.6,41.3,1376.0,8726.0,4.0,1,
89000,1860.6,4.7,124.6,36.0,1376.0,8726.0,4.0,1,
89100,1860.3,4.3,124.6,36.0,1376.0,8726.0,4.0,1,
89200,1859.9,4.0,124.6,36.8,1376.0,8726.0,4.0,1,
89300,1859.5,5.0,124.6,40.7,1376.0,8726.0,4.0,1,
89400,1859.5,3.8,124.6,76.4,1376.0,8726.0,4.0,1,
89600,1859.7,3.7,124.6,79.9,1376.0,8726.0,4.0,1,
89700,1859.8,3.4,124.6,81.9,1376.0,8726.0,4.0,1,
89800,1860.0,137.4,124.6,83.6,1342.0,9439.0,4.0,1,
89900,1841.0,188.0,125.7,49.8,1404.0,9545.0,4.0,1,
90000,1877.5,178.6,126.0,44.3,1371.0,8856.0,3.0,1,
90100,1871.9,146.9,128.4,43.4,1289.0,8686.0,4.0,1,
90200,1838.9,135.1,126.5,66.0,1296.0,8891.0,4.0,1,
90300,1850.5,253.9,128.0,90.7,1304.0,8820.0,4.0,1,
90400,1859.0,82.8,129.4,93.7,1312.0,8813.0,4.0,1,
90600,1860.9,3.7,128.7,34.8,1312.0,8813.0,4.0,1,
90700,1860.4,4.0,128.7,29.8,1312.0,8813.0,4.0,1,
90800,1859.2,4.6,128.7,34.5,1312.0,8813.0,4.0,1,
90900,1859.2,4.3,128.7,38.8,1312.0,8813.0,4.0,1,
91000,1859.0,4.2,128.7,100.1,1312.0,8813.0,4.0,1,
91100,1859.1,5.0,128.7,100.3,1312.0,8813.0,4.0,1,
91200,1859.4,3.7,128.7,99.3,1312.0,8813.0,4.0,1,
91300,1859.7,4.5,128.7,74.4,1312.0,8813.0,4.0,1,
91400,1859.5,87.9,128.7,79.9,1312.0,8813.0,4.0,1,
91600,1882.5,164.3,128.6,45.1,1326.0,8466.0,4.0,1,
91700,1837.3,138.0,126.4,40.4,1277.0,8802.0,4.0,1,
91800,1854.5,193.2,126.6,48.3,1264.0,8795.0,4.0,1,
91900,1857.0,153.0,127.6,75.0,1286.0,8899.0,4.0,1,
92000,1879.9,143.3,125.9,78.7,1331.0,8925.0,4.0,1,
92100,1853.8,12.0,128.4,40.2,1331.0,8925.0,4.0,1,
92200,1862.6,4.0,128.4,34.5,1331.0,8925.0,4.0,1,
92300,1859.7,3.8,128.4,29.7,1331.0,8925.0,4.0,1,
92400,1859.4,4.3,128.4,30.0,1331.0,8925.0,4.0,1,
92600,1858.7,3.9,128.4,98.7,1331.0,8925.0,4.0,1,
92700,1858.8,3.6,128.4,99.8,1331.0,8925.0,4.0,1,
92800,1859.6,3.8,128.4,98.7,1331.0,8925.0,4.0,1,
92900,1859.5,3.7,128.4,99.3,1331.0,8925.0,4.0,1,
93000,1859.4,3.7,128.4,91.8,1331.0,8925.0,4.0,1,
93100,1887.4,150.4,128.4,69.7,1385.0,9337.0,4.0,1,
93200,1825.9,155.9,125.2,52.2,1336.0,8673.0,3.0,1,
93300,1854.3,160.4,126.5,48.3,1295.0,8837.0,4.0,1,
93400,1859.3,149.2,125.3,51.2,1330.0,9094.0,4.0,1,
93600,1865.0,120.6,122.7,48.0,1366.0,8938.0,4.0,1,
93700,1840.5,19.7,113.4,65.7,1365.0,9016.0,4.0,1,
93800,1865.2,4.4,114.0,66.3,1365.0,9016.0,4.0,1,
93900,1860.2,3.9,114.0,49.7,1365.0,9016.0,4.0,1,
94000,1860.5,3.9,114.0,38.2,1365.0,9016.0,4.0,1,
94100,1858.8,3.8,114.0,38.5,1365.0,9016.0,4.0,1,
94200,1859.8,4.4,114.0,55.4,1365.0,9016.0,4.0,1,
94300,1859.5,3.7,114.0,74.8,1365.0,9016.0,4.0,1,
94400,1859.2,4.1,114.0,93.1,1365.0,9016.0,4.0,1,
94600,1859.6,3.2,114.0,94.1,1365.0,9016.0,4.0,1,
94700,1859.4,139.3,114.0,99.4,1375.0,9209.0,3.0,1,
94800,1847.4,136.0,114.6,65.5,1342.0,8860.0,4.0,1,
94900,1860.3,151.6,112.0,54.4,1295.0,8715.0,3.0,1,
95000,1876.1,144.2,112.2,50.9,1291.0,9003.0,4.0,1,
95100,1868.9,140.0,113.6,55.6,1304.0,8824.0,4.0,1,
95200,1841.0,129.6,114.4,48.3,1309.0,8683.0,3.0,1,
95300,1850.0,37.5,115.7,39.8,1348.0,8986.0,4.0,1,
95400,1870.1,5.9,115.6,39.7,1348.0,8986.0,4.0,1,
95600,1860.2,3.5,115.6,37.4,1348.0,8986.0,4.0,1,
95700,1859.7,4.0,115.6,37.5,1348.0,8986.0,4.0,1,
95800,1859.0,3.8,115.6,45.7,1348.0,8986.0,4.0,1,
95900,1858.8,4.1,115.6,88.4,1348.0,8986.0,4.0,1,
96000,1859.3,3.7,115.6,92.9,1348.0,8986.0,4.0,1,
96100,1859.9,3.3,115.6,82.8,1348.0,8986.0,4.0,1,
96200,1859.4,4.1,115.6,101.4,1348.0,8986.0,4.0,1,
96300,1859.7,185.3,115.6,101.6,1317.0,9448.0,4.0,1,
96400,1845.4,173.4,117.2,57.2,1389.0,9393.0,4.0,1,
96600,1870.4,139.3,120.4,48.9,1270.0,8796.0,4.0,1,
96700,1835.5,119.9,117.5,47.9,1275.0,8761.0,3.0,1,
96800,1853.0,243.2,116.5,48.6,1289.0,8899.0,4.0,1,
96900,1863.5,80.4,122.8,48.4,1302.0,8834.0,4.0,1,
97000,1870.5,7.5,122.6,47.8,1302.0,8834.0,4.0,1,
97100,1859.8,4.7,122.6,36.1,1302.0,8834.0,4.0,1,
97200,1858.0,5.9,122.6,36.2,1302.0,8834.0,4.0,1,
97300,1856.0,7.4,122.5,37.4,1302.0,8834.0,4.0,1,
97400,1853.5,7.6,122.5,38.6,1302.0,8834.0,4.0,1,
97600,1854.6,5.0,122.5,69.2,1302.0,8834.0,4.0,1,
97700,1856.1,4.7,122.5,77.8,1302.0,8834.0,4.0,1,
97800,1857.4,5.1,122.5,76.1,1302.0,8834.0,4.0,1,
97900,1859.5,86.9,122.5,75.1,1302.0,8834.0,4.0,1,
98000,1861.8,165.5,122.0,49.0,1349.0,9396.0,4.0,1,
98100,1880.1,147.5,122.6,42.3,1263.0,8432.0,4.0,1,
98200,1831.2,183.0,121.1,50.8,1266.0,8340.0,3.0,1,
98300,1851.4,151.0,128.0,66.8,1174.0,8301.0,4.0,1,
98400,1863.5,143.0,128.8,93.0,1178.0,8252.0,4.0,1,
98600,1848.4,12.2,125.1,79.6,1178.0,8252.0,4.0,1,
98700,1863.9,4.3,125.1,66.2,1178.0,8252.0,4.0,1,
98800,1861.8,3.7,125.1,36.3,1178.0,8252.0,4.0,1,
98900,1861.5,3.7,125.1,36.1,1178.0,8252.0,4.0,1,
99000,1860.7,3.4,125.1,36.6,1178.0,8252.0,4.0,1,
99100,1861.3,4.2,125.0,70.5,1178.0,8252.0,4.0,1,
99200,1860.7,4.2,125.0,77.8,1178.0,8252.0,4.0,1,
99300,1860.8,3.2,125.0,100.9,1178.0,8252.0,4.0,1,
99400,1860.7,5.8,125.0,101.3,1178.0,8252.0,4.0,1,
99600,1889.6,153.4,125.0,82.6,1270.0,8969.0,4.0,1,
99700,1827.4,128.6,121.8,52.6,1280.0,8501.0,3.0,1,
99800,1844.8,132.0,123.8,49.1,1226.0,8464.0,4.0,1,
99900,1859.7,163.4,118.7,51.6,1172.0,8264.0,3.0,1,
100000,1875.2,135.4,119.3,67.0,1139.0,8129.0,4.0,1,
100100,1863.4,130.8,119.3,93.8,1126.0,7880.0,4.0,1,
100200,1843.9,20.0,117.2,94.0,1121.0,7932.0,4.0,1,
100300,1860.2,4.1,117.7,67.8,1121.0,7932.0,4.0,1,
100400,1859.5,3.8,117.7,35.6,1121.0,7932.0,4.0,1,
100600,1859.4,3.2,117.7,35.7,1121.0,7932.0,4.0,1,
100700,1859.1,3.6,117.7,47.4,1121.0,7932.0,4.0,1,
100800,1860.5,3.9,117.7,100.6,1121.0,7932.0,4.0,1,
100900,1860.6,3.3,117.7,100.0,1121.0,7932.0,4.0,1,
101000,1860.8,3.8,117.7,100.1,1121.0,7932.0,4.0,1,
101100,1861.6,3.7,117.7,99.9,1121.0,7932.0,4.0,1,
101200,1862.2,147.9,117.7,84.2,1338.0,8989.0,3.0,1,
101300,1849.0,220.8,119.0,65.5,1344.0,8994.0,4.0,1,
101400,1859.6,171.1,121.0,51.9,1341.0,8643.0,3.0,1,
101600,1871.6,135.2,122.7,41.1,1213.0,8240.0,4.0,1,
101700,1841.3,148.4,122.3,40.0,1199.0,8088.0,3.0,1,
101800,1852.8,40.4,124.7,38.9,1211.0,8368.0,3.0,1,
101900,1870.8,5.8,124.8,40.6,1211.0,8368.0,3.0,1,
102000,1861.5,3.4,124.8,39.7,1211.0,8368.0,3.0,1,
102100,1861.8,4.5,124.9,35.3,1211.0,8368.0,3.0,1,
102200,1861.0,5.3,124.9,35.6,1211.0,8368.0,3.0,1,
102300,1862.1,6.9,124.9,41.1,1211.0,8368.0,3.0,1,
102400,1860.9,6.3,124.9,88.8,1211.0,8368.0,3.0,1,
102600,1861.6,4.7,124.9,106.8,1211.0,8368.0,3.0,1,
102700,1861.2,4.6,124.9,109.7,1211.0,8368.0,3.0,1,
102800,1861.3,131.0,124.9,110.5,1330.0,9260.0,4.0,1,
102900,1844.3,183.5,123.6,56.5,1371.0,9153.0,4.0,1,
103000,1883.4,188.4,126.0,40.1,1230.0,8125.0,4.0,1,
103100,1872.8,140.9,129.4,36.0,1205.0,8340.0,5.0,1,
103200,1841.5,166.1,125.1,35.4,1232.0,8115.0,3.0,1,
103300,1854.8,134.8,129.0,28.7,1258.0,8314.0,4.0,1,
103400,1857.7,76.0,126.6,35.1,1268.0,8286.0,4.0,1,
103600,1861.7,3.8,125.9,30.0,1268.0,8286.0,4.0,1,
103700,1860.6,4.3,125.9,35.2,1268.0,8286.0,4.0,1,
103800,1860.0,3.1,125.9,35.7,1268.0,8286.0,4.0,1,
103900,1860.6,4.2,125.8,38.1,1268.0,8286.0,4.0,1,
104000,1859.8,4.2,125.8,100.0,1268.0,8286.0,4.0,1,
104100,1860.7,3.5,125.8,86.0,1268.0,8286.0,4.0,1,
104200,1860.1,3.0,125.8,79.0,1268.0,8286.0,4.0,1,
104300,1860.5,4.4,125.8,72.8,1268.0,8286.0,4.0,1,
104400,1860.4,94.1,125.8,70.3,1268.0,8286.0,4.0,1,
104600,1884.4,168.7,130.5,40.6,1263.0,8347.0,4.0,1,
104700,1840.6,135.4,123.8,35.9,1260.0,8394.0,4.0,1,
104800,1849.1,146.2,124.7,35.6,1215.0,8270.0,4.0,1,
104900,1858.8,137.3,123.4,66.2,1252.0,8245.0,4.0,1,
105000,1880.7,149.5,123.0,66.6,1260.0,8001.0,4.0,1,
105100,1857.9,11.6,124.4,65.7,1260.0,8001.0,4.0,1,
105200,1862.4,4.8,124.4,65.7,1260.0,8001.0,4.0,1,
105300,1860.2,3.7,124.4,34.8,1260.0,8001.0,4.0,1,
105400,1859.8,4.0,124.4,35.0,1260.0,8001.0,4.0,1,
105600,1858.5,4.5,124.4,99.5,1260.0,8001.0,4.0,1,
105700,1859.4,3.3,124.4,100.3,1260.0,8001.0,4.0,1,
105800,1858.7,4.7,124.4,103.7,1260.0,8001.0,4.0,1,
105900,1859.1,3.7,124.4,83.1,1260.0,8001.0,4.0,1,
106000,1859.3,3.9,124.4,69.3,1260.0,8001.0,4.0,1,
106100,1885.4,170.3,124.4,79.8,1271.0,8433.0,3.0,1,
106200,1826.9,141.0,118.3,43.0,1311.0,8495.0,4.0,1,
106300,1849.8,157.5,118.5,37.5,1211.0,7971.0,4.0,1,
106400,1861.0,175.8,117.8,43.5,1198.0,8078.0,3.0,1,
106600,1873.4,141.1,128.6,65.8,1247.0,8103.0,4.0,1,
106700,1846.2,21.4,127.9,38.2,1239.0,7997.0,3.0,1,
106800,1863.2,4.0,128.4,35.7,1239.0,7997.0,3.0,1,
106900,1861.5,3.8,128.4,35.3,1239.0,7997.0,3.0,1,
107000,1860.2,4.6,128.4,35.5,1239.0,7997.0,3.0,1,
107100,1860.7,3.8,128.4,36.0,1239.0,7997.0,3.0,1,
107200,1860.8,4.1,128.4,49.4,1239.0,7997.0,3.0,1,
107300,1859.3,4.0,128.4,86.5,1239.0,7997.0,3.0,1,
107400,1859.5,3.7,128.4,82.6,1239.0,7997.0,3.0,1,
107600,1859.8,3.8,128.4,84.1,1239.0,7997.0,3.0,1,
107700,1860.7,122.9,128.4,84.7,1380.0,9360.0,4.0,1,
107800,1840.9,168.1,127.0,40.2,1320.0,8844.0,4.0,1,
107900,1861.9,169.8,127.2,38.5,1301.0,8628.0,4.0,1,
108000,1878.6,168.3,129.0,39.5,1243.0,8524.0,4.0,1,
108100,1871.8,156.0,126.0,66.6,1270.0,8615.0,4.0,1,
108200,1842.7,126.1,120.9,93.5,1301.0,8632.0,4.0,1,
108300,1847.0,42.8,121.9,80.5,1302.0,8574.0,3.0,1,
108400,1869.5,7.3,122.2,78.4,1302.0,8574.0,3.0,1,
108600,1857.0,5.4,122.2,35.4,1302.0,8574.0,3.0,1,
108700,1856.2,5.7,122.2,35.7,1302.0,8574.0,3.0,1,
108800,1856.2,5.3,122.2,37.7,1302.0,8574.0,3.0,1,
108900,1858.1,4.1,122.2,73.5,1302.0,8574.0,3.0,1,
109000,1857.7,4.3,122.2,74.1,1302.0,8574.0,3.0,1,
109100,1857.8,4.1,122.2,74.7,1302.0,8574.0,3.0,1,
109200,1858.9,3.9,122.2,74.6,1302.0,8574.0,3.0,1,
109300,1860.0,135.5,122.2,78.8,1279.0,9391.0,4.0,1,
109400,1841.6,172.9,122.3,41.3,1299.0,8876.0,4.0,1,
109600,1875.0,187.1,120.2,42.1,1209.0,8253.0,4.0,1,
109700,1840.3,156.1,120.6,65.7,1242.0,8421.0,4.0,1,
109800,1845.7,142.2,121.3,67.2,1280.0,8244.0,4.0,1,
109900,1856.8,104.1,124.1,45.1,1287.0,8241.0,4.0,1,
110000,1872.8,7.9,127.9,39.4,1287.0,8241.0,4.0,1,
110100,1861.4,3.0,127.9,35.4,1287.0,8241.0,4.0,1,
110200,1861.2,3.4,127.9,34.9,1287.0,8241.0,4.0,1,
110300,1861.1,3.8,127.9,35.5,1287.0,8241.0,4.0,1,
110400,1861.2,3.3,127.8,37.1,1287.0,8241.0,4.0,1,
110600,1861.0,4.2,127.8,91.3,1287.0,8241.0,4.0,1,
110700,1861.5,4.2,127.8,100.3,1287.0,8241.0,4.0,1,
110800,1862.3,3.0,127.8,78.9,1287.0,8241.0,4.0,1,
110900,1860.8,89.7,127.8,67.2,1287.0,8241.0,4.0,1,
111000,1856.3,187.0,127.6,51.7,1251.0,8565.0,4.0,1,
111100,1884.8,184.1,132.2,51.8,1149.0,7412.0,3.0,1,
111200,1839.5,173.9,134.3,43.9,1107.0,7858.0,5.0,1,
111300,1840.3,131.0,135.9,40.4,1173.0,7916.0,4.0,1,
111400,1860.5,131.2,129.3,38.3,1193.0,7933.0,5.0,1,
111600,1853.9,12.5,119.2,38.4,1193.0,7933.0,5.0,1,
111700,1860.5,4.4,119.2,30.2,1193.0,7933.0,5.0,1,
111800,1858.5,3.3,119.2,35.6,1193.0,7933.0,5.0,1,
111900,1858.8,4.3,119.1,36.5,1193.0,7933.0,5.0,1,
112000,1860.5,4.2,119.1,37.8,1193.0,7933.0,5.0,1,
112100,1859.9,4.3,119.1,67.3,1193.0,7933.0,5.0,1,
112200,1859.9,5.0,119.1,73.7,1193.0,7933.0,5.0,1,
112300,1860.9,4.3,119.1,85.7,1193.0,7933.0,5.0,1,
112400,1860.7,5.3,119.1,98.7,1193.0,7933.0,5.0,1,
112600,1887.9,160.9,119.1,75.9,1255.0,8684.0,3.0,1,
112700,1827.5,156.6,115.1,44.3,1229.0,8362.0,4.0,1,
112800,1838.2,160.1,113.0,43.2,1221.0,8243.0,4.0,1,
112900,1863.9,151.4,114.8,44.7,1205.0,8105.0,4.0,1,
113000,1879.7,128.1,114.2,48.2,1136.0,7707.0,4.0,1,
113100,1871.3,106.3,114.1,47.7,1133.0,7502.0,3.0,1,
113200,1843.2,18.8,111.4,48.5,1157.0,7749.0,4.0,1,
113300,1860.4,4.6,111.9,47.8,1157.0,7749.0,4.0,1,
113400,1860.4,4.2,111.9,36.7,1157.0,7749.0,4.0,1,
113600,1860.1,2.8,111.9,35.4,1157.0,7749.0,4.0,1,
113700,1860.0,4.0,111.9,49.4,1157.0,7749.0,4.0,1,
113800,1860.5,3.7,111.9,99.2,1157.0,7749.0,4.0,1,
113900,1860.0,3.9,111.9,93.0,1157.0,7749.0,4.0,1,
114000,1860.6,4.9,111.9,76.4,1157.0,7749.0,4.0,1,
114100,1861.0,3.4,111.9,68.6,1157.0,7749.0,4.0,1,
114200,1860.0,217.4,111.9,68.3,1207.0,8577.0,4.0,1,
114300,1836.9,187.2,116.6,47.9,1244.0,8475.0,3.0,1,
114400,1867.9,152.8,117.9,45.2,1229.0,8270.0,4.0,1,
114600,1872.1,124.9,116.7,37.5,1209.0,8258.0,4.0,1,
114700,1842.7,115.1,116.5,47.2,1196.0,8147.0,4.0,1,
114800,1838.9,37.7,117.5,93.7,1233.0,8120.0,4.0,1,
114900,1883.2,6.2,117.6,68.9,1233.0,8120.0,4.0,1,
115000,1861.5,4.0,117.6,38.1,1233.0,8120.0,4.0,1,
115100,1860.5,3.9,117.6,35.7,1233.0,8120.0,4.0,1,
115200,1859.8,4.8,117.6,35.8,1233.0,8120.0,4.0,1,
115300,1860.1,4.1,117.6,38.9,1233.0,8120.0,4.0,1,
115400,1861.3,4.1,117.6,89.9,1233.0,8120.0,4.0,1,
115600,1860.6,3.5,117.6,92.3,1233.0,8120.0,4.0,1,
115700,1859.9,4.2,117.6,100.5,1233.0,8120.0,4.0,1,
115800,1860.2,159.5,117.6,94.5,1235.0,9271.0,4.0,1,
115900,1844.3,182.7,116.6,41.8,1242.0,8777.0,4.0,1,
116000,1874.3,162.0,111.6,42.2,1252.0,8484.0,4.0,1,
116100,1877.5,144.0,117.1,45.5,1220.0,8366.0,4.0,1,
116200,1838.7,126.9,118.2,65.8,1197.0,8295.0,4.0,1,
116300,1838.7,144.8,119.6,44.0,1189.0,8187.0,3.0,1,
116400,1865.9,74.5,120.6,39.4,1205.0,8081.0,4.0,1,
116600,1860.1,3.6,120.4,37.6,1205.0,8081.0,4.0,1,
116700,1859.9,4.4,120.4,35.6,1205.0,8081.0,4.0,1,
116800,1858.9,3.7,120.4,35.7,1205.0,8081.0,4.0,1,
116900,1858.3,4.6,120.4,36.7,1205.0,8081.0,4.0,1,
117000,1858.2,5.3,120.4,100.3,1205.0,8081.0,4.0,1,
117100,1859.2,4.1,120.4,99.3,1205.0,8081.0,4.0,1,
117200,1859.0,3.7,120.4,90.9,1205.0,8081.0,4.0,1,
117300,1859.7,4.1,120.4,81.6,1205.0,8081.0,4.0,1,
117400,1860.1,153.3,120.4,70.7,1205.0,8081.0,4.0,1,
117600,1883.9,147.2,120.6,45.7,1267.0,8493.0,4.0,1,
117700,1833.7,140.6,120.2,50.1,1227.0,8538.0,4.0,1,
117800,1842.7,180.5,117.6,65.8,1179.0,8203.0,3.0,1,
117900,1862.9,182.8,124.8,67.1,1201.0,8175.0,4.0,1,
118000,1880.1,122.3,125.6,41.7,1179.0,8029.0,4.0,1,
118100,1854.0,10.9,125.6,39.5,1179.0,8029.0,4.0,1,
118200,1862.6,4.3,125.6,65.4,1179.0,8029.0,4.0,1,
118300,1860.4,3.3,125.6,35.7,1179.0,8029.0,4.0,1,
118400,1859.5,4.0,125.6,35.7,1179.0,8029.0,4.0,1,
118600,1859.6,3.9,125.6,100.3,1179.0,8029.0,4.0,1,
118700,1859.4,4.9,125.6,100.0,1179.0,8029.0,4.0,1,
118800,1859.5,3.6,125.6,81.2,1179.0,8029.0,4.0,1,
118900,1859.5,4.0,125.6,83.9,1179.0,8029.0,4.0,1,
119000,1859.7,4.5,125.6,84.4,1179.0,8029.0,4.0,1,
119100,1899.8,157.3,123.5,92.5,1260.0,8944.0,4.0,1,
119200,1818.6,141.2,123.8,37.8,1192.0,8412.0,3.0,1,
119300,1840.5,162.8,124.9,36.5,1204.0,8205.0,4.0,1,
119400,1866.8,166.6,123.7,41.5,1186.0,8088.0,3.0,1,
119600,1871.2,172.9,118.2,94.4,1153.0,7819.0,4.0,1,
119700,1839.8,26.4,123.6,82.1,1156.0,7572.0,3.0,1,
119800,1863.5,3.6,123.9,66.6,1156.0,7572.0,3.0,1,
119900,1860.4,4.3,123.9,34.3,1156.0,7572.0,3.0,1,
120000,1859.9,4.0,123.9,30.2,1156.0,7572.0,3.0,1,
120100,1858.9,3.5,123.9,35.0,1156.0,7572.0,3.0,1,
120200,1858.3,4.8,123.9,48.6,1156.0,7572.0,3.0,1,
120300,1859.4,4.3,123.9,109.2,1156.0,7572.0,3.0,1,
120400,1859.1,4.8,123.9,94.7,1156.0,7572.0,3.0,1,
120600,1859.7,4.0,123.9,113.6,1156.0,7572.0,3.0,1,
120700,1859.3,130.5,123.9,122.3,1240.0,8895.0,4.0,1,
120800,1845.7,172.0,123.5,38.3,1190.0,8274.0,4.0,1,
120900,1866.8,156.5,123.2,37.4,1208.0,7981.0,3.0,1,
121000,1882.5,110.3,121.0,38.6,1172.0,7893.0,3.0,1,
121100,1874.0,147.9,117.7,47.8,1122.0,7877.0,4.0,1,
121200,1834.2,111.7,116.1,55.7,1156.0,7860.0,4.0,1,
121300,1846.2,36.2,116.4,49.5,1179.0,7746.0,3.0,1,
121400,1876.9,5.6,110.1,42.9,1179.0,7746.0,3.0,1,
121600,1860.2,4.0,110.1,34.4,1179.0,7746.0,3.0,1,
121700,1859.2,4.2,110.1,35.3,1179.0,7746.0,3.0,1,
121800,1859.7,3.5,110.1,39.5,1179.0,7746.0,3.0,1,
121900,1859.3,3.5,110.1,130.5,1179.0,7746.0,3.0,1,
122000,1859.1,4.4,110.1,109.5,1179.0,7746.0,3.0,1,
122100,1859.6,3.8,110.1,109.7,1179.0,7746.0,3.0,1,
122200,1859.4,3.5,110.1,102.2,1179.0,7746.0,3.0,1,
122300,1859.7,157.6,110.1,94.0,1246.0,9235.0,5.0,1,
122400,1855.8,178.8,110.7,41.0,1233.0,8444.0,3.0,1,
122600,1878.9,122.4,110.7,37.9,1193.0,8312.0,4.0,1,
122700,1830.3,119.3,110.6,41.3,1177.0,8095.0,3.0,1,
122800,1847.3,138.0,110.9,65.6,1185.0,8033.0,4.0,1,
122900,1865.2,66.0,112.0,49.7,1200.0,7737.0,3.0,1,
123000,1869.9,6.8,111.9,40.0,1200.0,7737.0,3.0,1,
123100,1862.0,4.0,111.9,36.5,1200.0,7737.0,3.0,1,
123200,1859.4,4.6,111.9,34.8,1200.0,7737.0,3.0,1,
123300,1858.8,4.2,111.9,35.7,1200.0,7737.0,3.0,1,
123400,1859.0,4.3,111.9,37.7,1200.0,7737.0,3.0,1,
123600,1860.0,4.2,111.9,93.6,1200.0,7737.0,3.0,1,
123700,1860.7,6.5,111.9,99.6,1200.0,7737.0,3.0,1,
123800,1859.6,7.6,112.0,99.4,1200.0,7737.0,3.0,1,
123900,1860.2,96.6,112.0,87.7,1200.0,7737.0,3.0,1,
124000,1872.9,165.8,111.6,53.8,1221.0,8803.0,4.0,1,
124100,1876.8,178.4,112.7,38.0,1204.0,8050.0,4.0,1,
124200,1829.5,149.7,116.0,36.6,1169.0,7848.0,3.0,1,
124300,1851.2,143.4,117.8,36.1,1143.0,7711.0,4.0,1,
124400,1868.4,148.6,119.9,38.4,1093.0,7225.0,3.0,1,
124600,1846.9,11.8,118.7,28.8,1093.0,7225.0,3.0,1,
124700,1863.8,5.1,118.7,30.1,1093.0,7225.0,3.0,1,
124800,1860.9,4.2,118.7,35.6,1093.0,7225.0,3.0,1,
124900,1860.0,3.7,118.7,36.3,1093.0,7225.0,3.0,1,
125000,1858.8,4.4,118.7,36.9,1093.0,7225.0,3.0,1,
125100,1859.8,4.1,118.7,87.2,1093.0,7225.0,3.0,1,
125200,1859.8,3.7,118.7,99.5,1093.0,7225.0,3.0,1,
125300,1859.6,4.6,118.7,100.2,1093.0,7225.0,3.0,1,
125400,1860.4,3.5,118.7,88.4,1093.0,7225.0,3.0,1,
125600,1897.6,161.6,118.6,100.3,1217.0,8764.0,4.0,1,
125700,1816.2,170.2,120.2,36.0,1160.0,8050.0,3.0,1,
125800,1849.7,158.6,122.6,35.7,1225.0,8231.0,4.0,1,
125900,1873.1,152.1,120.0,36.0,1190.0,8046.0,4.0,1,
126000,1886.3,128.8,118.8,65.4,1169.0,7959.0,4.0,1,
126100,1867.7,122.5,118.6,67.4,1149.0,7876.0,4.0,1,
126200,1835.2,19.0,119.4,67.5,1140.0,7846.0,4.0,1,
126300,1863.2,4.7,119.8,65.9,1140.0,7846.0,4.0,1,
126400,1860.4,3.8,119.8,35.3,1140.0,7846.0,4.0,1,
126600,1859.8,4.7,119.8,35.9,1140.0,7846.0,4.0,1,
126700,1860.0,4.2,119.8,48.0,1140.0,7846.0,4.0,1,
126800,1859.7,4.2,119.8,101.4,1140.0,7846.0,4.0,1,
126900,1859.8,4.2,119.8,102.6,1140.0,7846.0,4.0,1,
127000,1860.3,3.1,119.8,99.0,1140.0,7846.0,4.0,1,
127100,1860.0,4.5,119.8,100.2,1140.0,7846.0,4.0,1,
127200,1860.8,172.9,119.8,106.0,1229.0,9119.0,4.0,1,
127300,1844.4,254.8,121.7,35.4,1202.0,8505.0,4.0,1,
127400,1866.9,169.5,123.1,35.2,1215.0,8364.0,4.0,1,
127600,1867.0,124.5,123.1,37.3,1167.0,8050.0,4.0,1,
127700,1835.8,135.6,122.6,66.5,1142.0,7823.0,3.0,1,
127800,1850.9,36.5,123.5,82.6,1158.0,7877.0,4.0,1,
127900,1872.2,5.4,123.4,67.0,1158.0,7877.0,4.0,1,
128000,1860.2,4.3,123.4,35.0,1158.0,7877.0,4.0,1,
128100,1861.3,3.4,123.4,35.2,1158.0,7877.0,4.0,1,
128200,1859.9,3.5,123.4,35.5,1158.0,7877.0,4.0,1,
128300,1859.8,4.2,123.4,36.7,1158.0,7877.0,4.0,1,
128400,1860.1,3.7,123.4,100.4,1158.0,7877.0,4.0,1,
128600,1859.9,3.8,123.4,105.3,1158.0,7877.0,4.0,1,
128700,1860.5,3.1,123.4,113.1,1158.0,7877.0,4.0,1,
128800,1861.0,156.6,123.4,89.2,1214.0,8959.0,3.0,1,
128900,1853.7,149.5,118.2,38.9,1232.0,8836.0,4.0,1,
129000,1877.3,150.9,114.3,35.1,1186.0,8090.0,4.0,1,
129100,1870.2,133.0,112.7,35.2,1184.0,8024.0,3.0,1,
129200,1835.3,120.3,112.2,39.6,1152.0,7725.0,4.0,1,
129300,1854.6,224.6,112.6,67.4,1118.0,7410.0,3.0,1,
129400,1864.5,74.9,115.9,92.9,1087.0,7431.0,4.0,1,
129600,1861.2,3.7,115.8,34.7,1087.0,7431.0,4.0,1,
129700,1861.9,3.4,115.8,35.2,1087.0,7431.0,4.0,1,
129800,1860.8,4.1,115.8,35.5,1087.0,7431.0,4.0,1,
129900,1859.1,3.4,115.8,36.0,1087.0,7431.0,4.0,1,
130000,1860.0,3.9,115.8,115.0,1087.0,7431.0,4.0,1,
130100,1859.9,3.6,115.8,131.7,1087.0,7431.0,4.0,1,
130200,1860.5,3.3,115.8,105.8,1087.0,7431.0,4.0,1,
130300,1860.4,3.2,115.8,103.5,1087.0,7431.0,4.0,1,
130400,1860.0,137.2,115.8,111.8,1087.0,7431.0,4.0,1,
130600,1866.8,148.4,118.8,30.3,1214.0,8103.0,3.0,1,
130700,1835.8,127.9,118.4,34.8,1183.0,7932.0,4.0,1,
130800,1853.1,129.6,118.1,36.1,1122.0,7518.0,3.0,1,
130900,1872.3,126.9,117.1,45.7,1096.0,7606.0,4.0,1,
131000,1881.0,107.6,112.7,66.7,1096.0,7439.0,4.0,1,
131100,1841.0,10.3,110.5,112.6,1096.0,7439.0,4.0,1,
131200,1863.2,4.1,110.5,66.7,1096.0,7439.0,4.0,1,
131300,1860.3,3.4,110.5,35.6,1096.0,7439.0,4.0,1,
131400,1859.9,3.7,110.5,35.3,1096.0,7439.0,4.0,1,
131600,1860.1,4.0,110.5,100.9,1096.0,7439.0,4.0,1,
131700,1860.0,4.2,110.5,123.8,1096.0,7439.0,4.0,1,
131800,1860.4,3.7,110.5,115.6,1096.0,7439.0,4.0,1,
131900,1859.7,4.1,110.5,107.4,1096.0,7439.0,4.0,1,
132000,1859.7,3.3,110.5,104.1,1096.0,7439.0,4.0,1,
132100,1889.0,160.9,109.2,104.7,1217.0,8800.0,4.0,1,
132200,1824.7,166.7,109.0,38.0,1154.0,8198.0,4.0,1,
132300,1851.4,154.1,109.1,35.9,1167.0,8052.0,4.0,1,
132400,1868.7,148.5,109.5,35.7,1112.0,7798.0,4.0,1,
132600,1857.0,112.3,116.6,65.8,1118.0,7462.0,3.0,1,
132700,1843.2,18.4,116.5,36.0,1116.0,7489.0,4.0,1,
132800,1862.3,4.1,116.7,35.7,1116.0,7489.0,4.0,1,
132900,1860.8,3.6,116.7,35.3,1116.0,7489.0,4.0,1,
133000,1860.5,3.2,116.7,35.1,1116.0,7489.0,4.0,1,
133100,1859.0,3.7,116.7,35.4,1116.0,7489.0,4.0,1,
133200,1859.5,3.9,116.7,57.6,1116.0,7489.0,4.0,1,
133300,1860.0,4.1,116.7,99.5,1116.0,7489.0,4.0,1,
133400,1859.4,3.9,116.7,114.4,1116.0,7489.0,4.0,1,
133600,1859.6,3.4,116.7,116.0,1116.0,7489.0,4.0,1,
133700,1859.1,136.1,116.7,116.6,1185.0,8531.0,3.0,1,
133800,1845.7,178.1,116.1,37.7,1136.0,8166.0,4.0,1,
133900,1866.0,149.8,115.3,36.0,1083.0,7709.0,3.0,1,
134000,1875.3,120.3,114.0,36.1,1071.0,7634.0,4.0,1,
134100,1859.8,106.6,108.8,48.6,1092.0,7504.0,5.0,1,
134200,1846.0,116.8,104.3,65.8,1069.0,7214.0,4.0,1,
134300,1854.3,32.8,105.7,80.6,1127.0,7497.0,4.0,1,
134400,1868.0,5.0,105.7,92.9,1127.0,7497.0,4.0,1,
134600,1860.1,4.0,105.7,35.6,1127.0,7497.0,4.0,1,
134700,1859.1,3.6,105.7,35.7,1127.0,7497.0,4.0,1,
134800,1860.1,3.7,105.7,38.0,1127.0,7497.0,4.0,1,
134900,1859.8,3.9,105.7,99.3,1127.0,7497.0,4.0,1,
135000,1859.7,3.8,105.7,98.8,1127.0,7497.0,4.0,1,
135100,1860.0,3.2,105.7,87.6,1127.0,7497.0,4.0,1,
135200,1859.7,3.4,105.7,93.9,1127.0,7497.0,4.0,1,
135300,1860.1,227.4,105.7,94.5,1198.0,9058.0,4.0,1,
135400,1852.5,178.1,110.4,55.8,1149.0,8333.0,3.0,1,
135600,1869.6,141.1,115.2,42.2,1107.0,7788.0,4.0,1,
135700,1844.3,169.8,116.4,35.6,1075.0,7463.0,3.0,1,
135800,1856.6,136.3,123.0,29.8,1098.0,7535.0,4.0,1,
135900,1866.2,65.2,121.7,34.2,1109.0,7526.0,4.0,1,
136000,1865.3,7.2,121.8,28.2,1109.0,7526.0,4.0,1,
136100,1861.2,3.6,121.8,29.6,1109.0,7526.0,4.0,1,
136200,1860.9,4.0,121.8,34.6,1109.0,7526.0,4.0,1,
136300,1859.5,3.8,121.8,34.8,1109.0,7526.0,4.0,1,
136400,1858.8,3.2,121.8,36.0,1109.0,7526.0,4.0,1,
136600,1859.9,3.3,121.8,111.5,1109.0,7526.0,4.0,1,
136700,1859.6,3.8,121.8,101.1,1109.0,7526.0,4.0,1,
136800,1859.1,4.1,121.8,98.7,1109.0,7526.0,4.0,1,
136900,1859.6,88.8,121.8,88.4,1109.0,7526.0,4.0,1,
137000,1865.3,163.2,118.8,65.5,1175.0,8296.0,3.0,1,
137100,1873.1,135.7,116.6,50.0,1203.0,8133.0,4.0,1,
137200,1840.9,163.4,111.0,43.9,1121.0,7494.0,3.0,1,
137300,1856.0,121.4,115.3,37.8,1113.0,7781.0,4.0,1,
137400,1867.0,119.1,107.2,40.8,1132.0,7521.0,4.0,1,
137600,1845.4,9.4,106.6,36.4,1132.0,7521.0,4.0,1,
137700,1863.3,4.2,106.6,41.6,1132.0,7521.0,4.0,1,
137800,1861.1,3.4,106.6,35.5,1132.0,7521.0,4.0,1,
137900,1859.4,3.5,106.6,35.1,1132.0,7521.0,4.0,1,
138000,1859.3,3.6,106.6,35.4,1132.0,7521.0,4.0,1,
138100,1860.2,3.5,106.6,77.6,1132.0,7521.0,4.0,1,
138200,1859.8,3.3,106.6,93.4,1132.0,7521.0,4.0,1,
138300,1859.6,3.8,106.6,100.6,1132.0,7521.0,4.0,1,
138400,1860.0,3.8,106.6,111.3,1132.0,7521.0,4.0,1,
138600,1886.0,166.8,106.6,108.5,1186.0,8503.0,4.0,1,
138700,1828.8,132.3,111.2,52.7,1196.0,7951.0,3.0,1,
138800,1853.8,125.3,112.8,47.0,1179.0,8063.0,4.0,1,
138900,1865.7,138.3,109.1,40.9,1134.0,7734.0,3.0,1,
139000,1876.8,120.3,109.7,40.6,1080.0,7437.0,3.0,1,
139100,1859.7,106.6,110.8,66.8,1100.0,7387.0,4.0,1,
139200,1848.1,18.1,111.5,87.2,1087.0,7294.0,3.0,1,
139300,1862.1,4.2,111.7,65.6,1087.0,7294.0,3.0,1,
139400,1860.2,3.4,111.7,38.2,1087.0,7294.0,3.0,1,
139600,1859.0,4.0,111.7,35.0,1087.0,7294.0,3.0,1,
139700,1859.4,3.9,111.7,47.6,1087.0,7294.0,3.0,1,
139800,1859.4,3.9,111.7,103.4,1087.0,7294.0,3.0,1,
139900,1859.8,3.2,111.7,92.4,1087.0,7294.0,3.0,1,
140000,1859.4,3.5,111.7,99.2,1087.0,7294.0,3.0,1,
140100,1859.7,3.5,111.7,91.7,1087.0,7294.0,3.0,1,
140200,1860.6,140.4,111.7,69.3,1223.0,8710.0,3.0,1,
140300,1847.9,180.1,107.7,53.3,1189.0,8273.0,4.0,1,
140400,1867.0,155.3,107.9,49.5,1179.0,7977.0,3.0,1,
140600,1863.7,113.3,108.6,41.9,1129.0,7509.0,4.0,1,
140700,1845.6,134.5,107.4,46.6,1111.0,7168.0,3.0,1,
140800,1855.2,34.9,111.3,39.6,1092.0,7329.0,3.0,1,
140900,1868.4,4.5,111.4,38.7,1092.0,7329.0,3.0,1,
141000,1860.8,3.8,111.4,29.7,1092.0,7329.0,3.0,1,
141100,1860.2,2.9,111.4,29.3,1092.0,7329.0,3.0,1,
141200,1858.8,3.8,111.4,29.8,1092.0,7329.0,3.0,1,
141300,1859.5,3.7,111.4,36.1,1092.0,7329.0,3.0,1,
141400,1860.1,3.3,111.4,79.1,1092.0,7329.0,3.0,1,
141600,1860.0,3.5,111.4,94.7,1092.0,7329.0,3.0,1,
141700,1860.0,3.0,111.4,79.9,1092.0,7329.0,3.0,1,
141800,1859.5,142.4,111.4,99.3,1181.0,8952.0,4.0,1,
141900,1847.5,171.2,110.5,41.2,1236.0,8356.0,3.0,1,
142000,1877.0,199.8,110.6,36.9,1227.0,7939.0,3.0,1,
142100,1865.0,192.5,115.8,35.8,1158.0,7718.0,4.0,1,
142200,1846.6,161.2,123.9,35.1,1172.0,7589.0,3.0,1,
142300,1853.9,229.6,129.1,29.2,1175.0,7571.0,4.0,1,
142400,1863.6,70.8,132.3,25.7,1193.0,7480.0,3.0,1,
142600,1861.3,3.5,132.2,25.8,1193.0,7480.0,3.0,1,
142700,1860.0,4.1,132.2,27.9,1193.0,7480.0,3.0,1,
142800,1859.1,3.9,132.2,29.3,1193.0,7480.0,3.0,1,
142900,1859.5,3.1,132.2,36.8,1193.0,7480.0,3.0,1,
143000,1859.4,3.6,132.2,101.7,1193.0,7480.0,3.0,1,
143100,1859.2,3.1,132.2,123.9,1193.0,7480.0,3.0,1,
143200,1859.5,3.2,132.2,110.9,1193.0,7480.0,3.0,1,
143300,1859.2,3.3,132.2,94.3,1193.0,7480.0,3.0,1,
143400,1859.4,89.0,132.2,99.7,1193.0,7480.0,3.0,1,
143600,1868.2,155.3,132.4,38.2,1226.0,8014.0,4.0,1,
143700,1840.6,130.9,129.4,35.9,1193.0,7828.0,3.0,1,
143800,1855.7,125.4,124.6,36.0,1164.0,7877.0,4.0,1,
143900,1867.6,126.6,115.8,38.7,1169.0,7736.0,3.0,1,
144000,1878.5,113.1,112.0,38.7,1156.0,7570.0,3.0,1,
144100,1845.1,9.9,111.9,38.5,1156.0,7570.0,3.0,1,
144200,1863.1,4.0,111.9,37.5,1156.0,7570.0,3.0,1,
144300,1860.9,4.0,111.9,29.8,1156.0,7570.0,3.0,1,
144400,1860.0,3.1,111.9,29.7,1156.0,7570.0,3.0,1,
144600,1859.5,3.8,111.9,111.0,1156.0,7570.0,3.0,1,
144700,1859.4,3.1,111.9,135.8,1156.0,7570.0,3.0,1,
144800,1858.7,3.8,111.9,137.1,1156.0,7570.0,3.0,1,
144900,1859.7,3.5,111.9,125.2,1156.0,7570.0,3.0,1,
145000,1860.3,3.1,111.9,92.2,1156.0,7570.0,3.0,1,
145100,1886.5,162.8,111.9,100.7,1215.0,8720.0,4.0,1,
145200,1824.5,180.1,111.1,40.5,1190.0,7668.0,3.0,1,
145300,1852.9,159.2,114.3,36.1,1156.0,8075.0,4.0,1,
145400,1867.6,138.8,118.2,35.7,1131.0,7826.0,3.0,1,
145600,1865.9,113.0,125.7,29.4,1137.0,7547.0,4.0,1,
145700,1846.5,18.3,123.1,29.9,1151.0,7603.0,3.0,1,
145800,1863.6,4.3,123.3,28.4,1151.0,7603.0,3.0,1,
145900,1860.2,3.3,123.3,30.1,1151.0,7603.0,3.0,1,
146000,1859.1,4.1,123.3,34.9,1151.0,7603.0,3.0,1,
146100,1858.6,4.0,123.3,35.3,1151.0,7603.0,3.0,1,
146200,1859.4,4.0,123.3,54.9,1151.0,7603.0,3.0,1,
146300,1859.1,4.0,123.3,114.3,1151.0,7603.0,3.0,1,
146400,1860.1,2.8,123.3,100.3,1151.0,7603.0,3.0,1,
146600,1859.5,4.2,123.3,105.7,1151.0,7603.0,3.0,1,
146700,1859.9,129.9,123.3,115.9,1266.0,9243.0,4.0,1,
146800,1842.2,179.1,123.4,37.8,1222.0,8196.0,4.0,1,
146900,1861.7,180.3,123.2,35.7,1198.0,7981.0,3.0,1,
147000,1878.7,125.8,127.0,34.9,1130.0,7634.0,4.0,1,
147100,1866.7,126.4,126.7,30.1,1070.0,7251.0,4.0,1,
147200,1846.5,87.1,119.7,34.8,1081.0,7253.0,4.0,1,
147300,1854.5,37.5,119.4,66.4,1101.0,7229.0,3.0,1,
147400,1870.4,5.1,120.1,66.7,1101.0,7229.0,3.0,1,
147600,1860.1,3.7,120.1,34.3,1101.0,7229.0,3.0,1,
147700,1859.5,3.2,120.1,34.5,1101.0,7229.0,3.0,1,
147800,1859.2,3.7,120.1,35.9,1101.0,7229.0,3.0,1,
147900,1859.3,4.1,120.1,100.4,1101.0,7229.0,3.0,1,
148000,1859.5,3.7,120.1,101.5,1101.0,7229.0,3.0,1,
148100,1859.2,3.9,120.1,108.5,1101.0,7229.0,3.0,1,
148200,1859.3,3.5,120.1,99.2,1101.0,7229.0,3.0,1,
148300,1859.5,131.6,120.1,70.7,1167.0,8687.0,4.0,1,
148400,1843.8,171.1,120.0,40.5,1140.0,8097.0,4.0,1,
148600,1869.5,102.8,108.8,35.7,1141.0,7567.0,3.0,1,
148700,1840.1,204.0,108.0,37.8,1154.0,7777.0,4.0,1,
148800,1848.6,122.2,114.6,67.3,1081.0,7402.0,4.0,1,
148900,1857.8,103.1,113.7,87.1,1114.0,7315.0,3.0,1,
149000,1873.3,8.7,119.4,44.5,1114.0,7315.0,3.0,1,
149100,1861.3,3.9,119.4,37.7,1114.0,7315.0,3.0,1,
149200,1860.4,3.3,119.4,30.2,1114.0,7315.0,3.0,1,
149300,1859.3,4.1,119.4,34.2,1114.0,7315.0,3.0,1,
149400,1858.9,3.6,119.4,35.5,1114.0,7315.0,3.0,1,
149600,1859.3,4.6,119.4,117.0,1114.0,7315.0,3.0,1,
149700,1860.2,3.5,119.4,116.4,1114.0,7315.0,3.0,1,
149800,1860.2,2.7,119.4,101.0,1114.0,7315.0,3.0,1,
149900,1860.3,94.2,119.4,100.5,1114.0,7315.0,3.0,1,
150000,1862.2,150.3,119.8,47.4,1173.0,8262.0,4.0,1,
150100,1873.6,130.3,119.0,38.9,1129.0,7512.0,3.0,1,
150200,1839.7,128.7,115.5,38.4,1133.0,8004.0,4.0,1,
150300,1844.1,119.7,115.7,41.1,1058.0,7489.0,4.0,1,
150400,1862.3,117.3,113.7,65.6,1076.0,7377.0,4.0,1,
150600,1850.5,10.6,104.0,43.3,1076.0,7377.0,4.0,1,
150700,1863.4,3.6,104.0,39.1,1076.0,7377.0,4.0,1,
150800,1861.3,4.2,104.0,36.0,1076.0,7377.0,4.0,1,
150900,1860.1,4.2,104.0,36.0,1076.0,7377.0,4.0,1,
151000,1858.9,3.7,104.0,36.8,1076.0,7377.0,4.0,1,
151100,1858.6,3.6,104.0,98.9,1076.0,7377.0,4.0,1,
151200,1860.3,3.8,104.0,100.3,1076.0,7377.0,4.0,1,
151300,1860.3,4.1,104.0,98.9,1076.0,7377.0,4.0,1,
151400,1859.9,4.8,104.0,99.4,1076.0,7377.0,4.0,1,
151600,1886.9,161.7,104.0,100.1,1168.0,8398.0,3.0,1,
151700,1829.9,169.5,105.5,42.8,1117.0,7960.0,3.0,1,
151800,1842.0,156.4,108.6,41.0,1120.0,7690.0,3.0,1,
151900,1864.1,158.2,110.3,39.8,1093.0,7520.0,4.0,1,
152000,1890.3,116.1,112.3,38.2,1075.0,7220.0,4.0,1,
152100,1867.1,120.4,112.3,29.8,1059.0,6825.0,3.0,1,
152200,1850.9,17.3,111.0,29.1,1050.0,7071.0,4.0,1,
152300,1862.2,4.4,111.3,29.9,1050.0,7071.0,4.0,1,
152400,1860.9,3.5,111.3,34.5,1050.0,7071.0,4.0,1,
152600,1858.4,4.1,111.3,29.1,1050.0,7071.0,4.0,1,
152700,1859.6,3.7,111.3,49.6,1050.0,7071.0,4.0,1,
152800,1859.5,2.9,111.3,99.0,1050.0,7071.0,4.0,1,
152900,1859.2,3.9,111.3,99.2,1050.0,7071.0,4.0,1,
153000,1860.1,3.4,111.2,89.7,1050.0,7071.0,4.0,1,
153100,1860.1,3.6,111.2,83.0,1050.0,7071.0,4.0,1,
153200,1860.0,134.4,111.2,100.4,1238.0,9121.0,4.0,1,
153300,1839.8,174.4,110.3,37.7,1138.0,7918.0,4.0,1,
153400,1860.2,225.2,109.9,35.8,1119.0,7634.0,4.0,1,
153600,1860.9,113.4,119.3,56.0,1088.0,7469.0,4.0,1,
153700,1844.0,100.2,118.6,39.3,1098.0,7396.0,4.0,1,
153800,1844.3,32.4,119.5,30.1,1090.0,7327.0,4.0,1,
153900,1880.5,4.7,119.6,37.1,1090.0,7327.0,4.0,1,
154000,1861.2,3.6,119.6,35.4,1090.0,7327.0,4.0,1,
154100,1859.2,4.7,119.6,35.2,1090.0,7327.0,4.0,1,
154200,1859.0,3.6,119.6,35.2,1090.0,7327.0,4.0,1,
154300,1859.5,4.1,119.6,37.1,1090.0,7327.0,4.0,1,
154400,1859.0,4.5,119.6,99.9,1090.0,7327.0,4.0,1,
154600,1859.6,3.5,119.6,100.5,1090.0,7327.0,4.0,1,
154700,1859.6,3.9,119.6,100.4,1090.0,7327.0,4.0,1,
154800,1860.0,141.1,119.6,100.1,1163.0,8804.0,5.0,1,
154900,1840.1,181.6,119.5,38.8,1183.0,8275.0,3.0,1,
155000,1893.4,110.4,119.6,36.0,1129.0,7619.0,3.0,1,
155100,1866.8,101.1,113.1,35.5,1095.0,7722.0,4.0,1,
155200,1835.3,99.5,108.8,39.8,1093.0,7561.0,3.0,1,
155300,1850.6,111.9,105.8,93.1,1074.0,7343.0,4.0,1,
155400,1853.8,66.0,103.2,109.2,1060.0,7293.0,4.0,1,
155600,1860.5,5.1,103.4,57.5,1060.0,7293.0,4.0,1,
155700,1860.6,4.1,103.4,35.2,1060.0,7293.0,4.0,1,
155800,1858.8,3.9,103.4,35.0,1060.0,7293.0,4.0,1,
155900,1858.8,4.2,103.4,35.6,1060.0,7293.0,4.0,1,
156000,1859.6,3.6,103.4,88.0,1060.0,7293.0,4.0,1,
156100,1859.6,3.4,103.4,90.4,1060.0,7293.0,4.0,1,
156200,1859.1,4.1,103.4,98.7,1060.0,7293.0,4.0,1,
156300,1859.8,3.6,103.4,86.4,1060.0,7293.0,4.0,1,
156400,1859.7,91.7,103.4,82.3,1060.0,7293.0,4.0,1,
156600,1872.6,120.7,102.6,36.5,1118.0,7846.0,3.0,1,
156700,1829.7,118.5,103.3,36.6,1133.0,7880.0,3.0,1,
156800,1852.0,120.4,104.0,37.9,1116.0,7651.0,4.0,1,
156900,1858.0,109.2,103.9,39.9,1077.0,7193.0,3.0,1,
157000,1896.4,90.5,103.5,65.9,1085.0,7093.0,3.0,1,
157100,1840.7,9.6,102.9,79.4,1085.0,7093.0,3.0,1,
157200,1862.4,3.9,102.9,66.1,1085.0,7093.0,3.0,1,
157300,1860.5,3.9,102.9,35.3,1085.0,7093.0,3.0,1,
157400,1858.4,4.2,102.9,35.0,1085.0,7093.0,3.0,1,
157600,1859.4,3.7,102.9,86.6,1085.0,7093.0,3.0,1,
157700,1859.1,5.0,102.9,99.2,1085.0,7093.0,3.0,1,
157800,1859.7,7.2,102.9,102.3,1085.0,7093.0,3.0,1,
157900,1859.8,5.3,102.9,110.1,1085.0,7093.0,3.0,1,
158000,1860.0,3.9,102.9,89.4,1085.0,7093.0,3.0,1,
158100,1895.4,143.7,102.2,88.3,1144.0,8495.0,4.0,1,
158200,1822.4,169.0,101.1,37.0,1072.0,7696.0,3.0,1,
158300,1849.6,148.9,106.0,35.4,1064.0,7731.0,4.0,1,
158400,1860.8,130.3,107.0,34.4,1020.0,7383.0,4.0,1,
158600,1858.4,117.9,107.3,66.4,1008.0,6973.0,4.0,1,
158700,1840.5,16.6,115.0,67.2,1006.0,6906.0,4.0,1,
158800,1862.6,4.9,115.2,30.2,1006.0,6906.0,4.0,1,
158900,1860.1,4.5,115.2,34.2,1006.0,6906.0,4.0,1,
159000,1858.5,4.0,115.2,34.9,1006.0,6906.0,4.0,1,
159100,1858.5,3.5,115.2,35.2,1006.0,6906.0,4.0,1,
159200,1859.0,4.4,115.2,48.3,1006.0,6906.0,4.0,1,
159300,1859.2,3.5,115.2,130.3,1006.0,6906.0,4.0,1,
159400,1859.3,3.6,115.2,109.2,1006.0,6906.0,4.0,1,
159600,1859.5,3.8,115.2,113.8,1006.0,6906.0,4.0,1,
159700,1859.3,138.8,115.2,101.5,1188.0,8899.0,4.0,1,
159800,1842.4,196.2,115.3,34.4,1097.0,7776.0,3.0,1,
159900,1860.5,131.0,114.6,30.1,1078.0,7689.0,4.0,1,
160000,1893.0,108.0,113.7,30.1,1040.0,7414.0,4.0,1,
160100,1855.2,99.1,112.5,35.2,1041.0,7327.0,3.0,1,
160200,1839.5,91.1,112.1,80.7,1030.0,7046.0,4.0,1,
160300,1850.1,30.1,104.8,137.1,1023.0,7064.0,4.0,1,
160400,1869.3,5.8,104.7,94.2,1023.0,7064.0,4.0,1,
160600,1859.6,4.4,104.7,35.2,1023.0,7064.0,4.0,1,
160700,1858.1,5.0,104.7,35.1,1023.0,7064.0,4.0,1,
160800,1858.7,4.0,104.7,37.1,1023.0,7064.0,4.0,1,
160900,1859.5,4.1,104.7,87.8,1023.0,7064.0,4.0,1,
161000,1858.5,4.7,104.7,90.2,1023.0,7064.0,4.0,1,
161100,1858.6,3.6,104.7,107.0,1023.0,7064.0,4.0,1,
161200,1859.2,3.6,104.7,92.4,1023.0,7064.0,4.0,1,
161300,1859.5,188.4,104.7,102.4,1152.0,8821.0,3.0,1,
161400,1846.2,171.3,108.5,28.2,1108.0,8216.0,4.0,1,
161600,1855.0,113.7,106.5,29.2,1072.0,7529.0,3.0,1,
161700,1840.8,112.6,106.2,29.8,1075.0,7349.0,4.0,1,
161800,1855.8,103.6,110.2,38.4,1081.0,6933.0,3.0,1,
161900,1855.3,59.7,109.3,38.8,1049.0,7164.0,4.0,1,
162000,1875.7,6.2,109.3,35.6,1049.0,7164.0,4.0,1,
162100,1860.7,4.7,109.3,30.3,1049.0,7164.0,4.0,1,
162200,1859.4,5.5,109.3,34.8,1049.0,7164.0,4.0,1,
162300,1858.0,3.8,109.3,34.8,1049.0,7164.0,4.0,1,
162400,1858.9,4.0,109.3,36.2,1049.0,7164.0,4.0,1,
162600,1858.6,5.2,109.3,107.8,1049.0,7164.0,4.0,1,
162700,1859.3,4.4,109.3,108.9,1049.0,7164.0,4.0,1,
162800,1859.3,4.9,109.3,107.1,1049.0,7164.0,4.0,1,
162900,1859.5,93.5,109.3,94.4,1049.0,7164.0,4.0,1,
163000,1873.5,156.3,105.7,47.9,1093.0,8190.0,3.0,1,
163100,1863.7,191.2,104.5,36.5,1116.0,7707.0,3.0,1,
163200,1832.5,113.7,112.7,35.6,1090.0,7502.0,4.0,1,
163300,1857.3,119.5,114.0,34.4,1110.0,7498.0,4.0,1,
163400,1853.5,129.6,111.4,35.0,1075.0,7260.0,4.0,1,
163600,1834.4,10.6,118.3,40.7,1075.0,7260.0,4.0,1,
163700,1862.8,4.1,118.3,35.4,1075.0,7260.0,4.0,1,
163800,1859.8,3.8,118.3,35.0,1075.0,7260.0,4.0,1,
163900,1858.9,3.7,118.3,35.0,1075.0,7260.0,4.0,1,
164000,1858.3,4.6,118.3,35.4,1075.0,7260.0,4.0,1,
164100,1859.1,4.4,118.3,92.4,1075.0,7260.0,4.0,1,
164200,1858.2,3.5,118.3,98.8,1075.0,7260.0,4.0,1,
164300,1858.4,3.7,118.3,99.8,1075.0,7260.0,4.0,1,
164400,1859.0,3.3,118.3,110.2,1075.0,7260.0,4.0,1,
164600,1884.7,163.8,117.5,101.5,1210.0,8826.0,4.0,1,
164700,1821.9,146.1,122.1,35.5,1186.0,8359.0,3.0,1,
164800,1853.0,200.2,115.7,35.8,1230.0,8471.0,4.0,1,
164900,1853.4,143.0,118.9,37.9,1124.0,7380.0,3.0,1,
165000,1897.4,99.4,123.5,71.0,1110.0,7170.0,3.0,1,
165100,1852.0,132.0,118.4,38.8,1095.0,6854.0,3.0,1,
165200,1843.4,16.5,123.2,37.0,1092.0,6956.0,3.0,1,
165300,1864.2,4.4,123.3,37.7,1092.0,6956.0,3.0,1,
165400,1860.6,4.0,123.3,30.2,1092.0,6956.0,3.0,1,
165600,1859.2,4.9,123.3,35.8,1092.0,6956.0,3.0,1,
165700,1857.5,3.9,123.3,65.9,1092.0,6956.0,3.0,1,
165800,1858.1,4.7,123.3,110.4,1092.0,6956.0,3.0,1,
165900,1858.9,4.4,123.3,115.0,1092.0,6956.0,3.0,1,
166000,1859.4,4.3,123.3,106.0,1092.0,6956.0,3.0,1,
166100,1858.6,4.4,123.3,110.3,1092.0,6956.0,3.0,1,
166200,1859.3,123.2,123.3,99.7,1210.0,8706.0,3.0,1,
166300,1844.5,148.5,117.8,37.9,1176.0,8021.0,4.0,1,
166400,1856.3,146.4,116.0,36.1,1074.0,7642.0,3.0,1,
166600,1854.8,153.3,106.4,53.4,1104.0,7200.0,3.0,1,
166700,1843.0,118.0,112.3,87.0,1125.0,6917.0,3.0,1,
166800,1855.8,30.0,107.7,65.6,1089.0,7047.0,3.0,1,
166900,1866.5,5.1,108.0,30.2,1089.0,7047.0,3.0,1,
167000,1859.3,4.7,108.0,35.2,1089.0,7047.0,3.0,1,
167100,1858.9,4.5,108.0,35.5,1089.0,7047.0,3.0,1,
167200,1858.3,4.4,108.0,35.4,1089.0,7047.0,3.0,1,
167300,1858.1,4.1,108.0,35.3,1089.0,7047.0,3.0,1,
167400,1858.9,3.7,108.0,92.3,1089.0,7047.0,3.0,1,
167600,1858.4,4.1,108.0,102.1,1089.0,7047.0,3.0,1,
167700,1859.0,3.6,108.0,100.3,1089.0,7047.0,3.0,1,
167800,1859.3,135.3,108.0,99.5,1117.0,8596.0,4.0,1,
167900,1845.0,165.2,107.3,46.8,1135.0,8123.0,3.0,1,
168000,1888.8,136.9,109.3,45.4,1091.0,7666.0,3.0,1,
168100,1861.4,117.4,109.7,36.4,1109.0,7541.0,4.0,1,
168200,1842.5,91.6,110.6,35.7,1077.0,7030.0,3.0,1,
168300,1854.2,126.9,104.5,71.6,1057.0,7061.0,4.0,1,
168400,1854.0,58.5,101.6,80.6,985.0,6760.0,3.0,1,
168600,1860.1,4.3,101.6,43.6,985.0,6760.0,3.0,1,
168700,1859.9,4.4,101.6,35.4,985.0,6760.0,3.0,1,
168800,1858.6,3.7,101.6,35.1,985.0,6760.0,3.0,1,
168900,1859.0,4.3,101.6,35.3,985.0,6760.0,3.0,1,
169000,1859.3,4.0,101.6,93.7,985.0,6760.0,3.0,1,
169100,1858.8,3.9,101.6,88.5,985.0,6760.0,3.0,1,
169200,1859.1,3.6,101.6,98.7,985.0,6760.0,3.0,1,
169300,1859.9,3.9,101.6,77.9,985.0,6760.0,3.0,1,
169400,1859.3,86.9,101.6,89.4,985.0,6760.0,3.0,1,
169600,1862.2,136.0,103.1,49.4,1198.0,8033.0,4.0,1,
169700,1839.7,150.8,101.6,37.4,1133.0,7563.0,3.0,1,
169800,1856.2,211.6,105.1,35.2,1113.0,7554.0,4.0,1,
169900,1857.4,113.5,110.8,38.3,1096.0,7169.0,3.0,1,
170000,1888.3,102.5,113.0,27.9,1085.0,7030.0,3.0,1,
170100,1844.5,10.2,115.6,26.0,1085.0,7030.0,3.0,1,
170200,1862.6,4.4,115.7,26.1,1085.0,7030.0,3.0,1,
170300,1859.4,4.3,115.6,28.9,1085.0,7030.0,3.0,1,
170400,1858.9,4.2,115.6,29.2,1085.0,7030.0,3.0,1,
170600,1858.8,4.3,115.7,100.7,1085.0,7030.0,3.0,1,
170700,1859.3,6.0,115.7,101.4,1085.0,7030.0,3.0,1,
170800,1859.8,8.5,115.7,100.4,1085.0,7030.0,3.0,1,
170900,1859.0,4.7,115.7,84.1,1085.0,7030.0,3.0,1,
171000,1859.1,4.4,115.7,84.7,1085.0,7030.0,3.0,1,
171100,1884.8,164.1,115.0,85.5,1174.0,8218.0,3.0,1,
171200,1824.1,136.6,116.5,37.7,1108.0,7914.0,4.0,1,
171300,1850.6,143.8,117.3,35.3,1082.0,7681.0,3.0,1,
171400,1855.0,115.8,118.6,35.4,1066.0,7272.0,4.0,1,
171600,1852.6,120.7,120.7,37.5,1089.0,7008.0,4.0,1,
171700,1848.2,18.9,116.4,37.7,1056.0,6850.0,3.0,1,
171800,1863.0,4.9,116.5,30.1,1056.0,6850.0,3.0,1,
171900,1860.7,4.2,116.5,34.5,1056.0,6850.0,3.0,1,
172000,1859.2,4.6,116.5,30.1,1056.0,6850.0,3.0,1,
172100,1858.8,4.5,116.5,30.1,1056.0,6850.0,3.0,1,
172200,1859.6,4.8,116.5,66.2,1056.0,6850.0,3.0,1,
172300,1859.2,4.8,116.5,112.3,1056.0,6850.0,3.0,1,
172400,1858.8,4.3,116.5,117.9,1056.0,6850.0,3.0,1,
172600,1859.2,4.0,116.5,91.5,1056.0,6850.0,3.0,1,
172700,1859.3,95.8,116.5,103.0,1255.0,9310.0,4.0,1,
172800,1836.6,163.1,114.3,40.8,1206.0,8209.0,3.0,1,
172900,1854.8,131.2,113.4,39.5,1177.0,7767.0,4.0,1,
173000,1895.1,103.1,107.1,40.5,1188.0,7709.0,4.0,1,
173100,1854.7,122.3,106.4,55.6,1159.0,7283.0,3.0,1,
173200,1845.3,174.1,100.0,80.7,1157.0,7309.0,4.0,1,
173300,1851.4,32.3,105.2,81.8,1164.0,7241.0,4.0,1,
173400,1872.3,4.8,103.0,66.1,1164.0,7241.0,4.0,1,
173600,1859.7,3.4,103.0,36.0,1164.0,7241.0,4.0,1,
173700,1859.7,3.8,103.0,37.0,1164.0,7241.0,4.0,1,
173800,1859.6,3.5,103.0,66.1,1164.0,7241.0,4.0,1,
173900,1858.9,3.7,103.0,106.1,1164.0,7241.0,4.0,1,
174000,1859.7,3.5,103.0,102.0,1164.0,7241.0,4.0,1,
174100,1859.5,3.5,103.0,83.5,1164.0,7241.0,4.0,1,
174200,1859.3,3.9,103.0,93.1,1164.0,7241.0,4.0,1,
174300,1859.0,133.8,103.0,130.6,1236.0,8792.0,4.0,1,
174400,1833.1,169.8,101.3,43.5,1340.0,8610.0,4.0,1,
174600,1850.5,155.5,111.8,41.3,1289.0,7867.0,3.0,1,
174700,1843.9,120.9,116.4,39.1,1327.0,8158.0,4.0,1,
174800,1850.0,99.2,115.1,26.4,1345.0,7878.0,3.0,1,
174900,1856.0,61.1,114.1,25.8,1318.0,7741.0,4.0,1,
175000,1885.5,5.8,113.1,26.9,1318.0,7741.0,4.0,1,
175100,1859.9,3.8,113.1,35.0,1318.0,7741.0,4.0,1,
175200,1860.6,4.2,113.1,30.2,1318.0,7741.0,4.0,1,
175300,1861.0,3.8,113.2,29.0,1318.0,7741.0,4.0,1,
175400,1858.9,4.2,113.1,29.7,1318.0,7741.0,4.0,1,
175600,1859.3,3.7,113.2,101.4,1318.0,7741.0,4.0,1,
175700,1859.3,3.7,113.2,105.6,1318.0,7741.0,4.0,1,
175800,1859.9,3.6,113.2,102.6,1318.0,7741.0,4.0,1,
175900,1859.4,141.8,113.2,101.3,1318.0,7741.0,4.0,1,
176000,1871.8,158.0,116.0,43.2,1239.0,8507.0,4.0,1,
176100,1863.7,171.6,112.0,39.3,1287.0,8120.0,3.0,1,
176200,1837.0,129.3,113.4,38.4,1237.0,7954.0,4.0,1,
176300,1847.6,124.6,114.0,37.9,1263.0,7863.0,3.0,1,
176400,1855.7,162.1,113.7,35.4,1256.0,7604.0,4.0,1,
176600,1843.5,9.5,117.7,34.7,1256.0,7604.0,4.0,1,
176700,1862.1,4.4,117.7,30.1,1256.0,7604.0,4.0,1,
176800,1860.4,3.6,117.7,34.3,1256.0,7604.0,4.0,1,
176900,1860.0,5.1,117.7,29.3,1256.0,7604.0,4.0,1,
177000,1861.3,5.0,117.7,30.1,1256.0,7604.0,4.0,1,
177100,1860.5,7.8,117.7,134.1,1256.0,7604.0,4.0,1,
177200,1860.3,7.1,117.7,133.8,1256.0,7604.0,4.0,1,
177300,1860.1,5.2,117.8,132.8,1256.0,7604.0,4.0,1,
177400,1859.6,5.4,117.8,114.2,1256.0,7604.0,4.0,1,
177600,1890.6,145.7,121.4,67.6,1192.0,8712.0,4.0,1,
177700,1821.3,127.7,121.5,39.2,1163.0,8092.0,4.0,1,
177800,1846.0,164.3,117.8,40.4,1115.0,7535.0,3.0,1,
177900,1851.7,132.5,118.9,45.5,1109.0,7112.0,3.0,1,
178000,1900.2,108.3,121.2,49.5,1080.0,7024.0,4.0,1,
178100,1852.6,78.8,119.6,30.2,1086.0,6911.0,4.0,1,
178200,1846.4,15.1,116.4,41.2,1084.0,6779.0,4.0,1,
178300,1865.8,3.4,116.4,45.4,1084.0,6779.0,4.0,1,
178400,1860.4,3.9,116.4,35.5,1084.0,6779.0,4.0,1,
178600,1859.3,3.4,116.4,35.7,1084.0,6779.0,4.0,1,
178700,1858.3,3.9,116.4,78.8,1084.0,6779.0,4.0,1,
178800,1859.7,3.7,116.4,99.2,1084.0,6779.0,4.0,1,
178900,1859.7,3.2,116.4,99.3,1084.0,6779.0,4.0,1,
179000,1859.7,3.5,116.4,99.1,1084.0,6779.0,4.0,1,
179100,1860.4,4.7,116.4,101.3,1084.0,6779.0,4.0,1,
179200,1860.4,129.0,116.4,105.7,1091.0,8279.0,4.0,1,
179300,1840.9,167.4,110.5,35.8,1118.0,7547.0,4.0,1,
179400,1857.1,143.1,111.1,34.9,1134.0,7239.0,3.0,1,
179600,1856.8,144.2,104.4,37.2,1131.0,6961.0,4.0,1,
179700,1842.9,72.9,109.1,74.5,1104.0,6733.0,3.0,1,
179800,1849.7,40.2,106.1,66.6,1103.0,6562.0,3.0,1,
179900,1874.4,5.1,111.0,41.3,1103.0,6562.0,3.0,1,
180000,1861.9,4.0,111.0,34.6,1103.0,6562.0,3.0,1,
180100,1861.1,3.4,111.0,29.8,1103.0,6562.0,3.0,1,
180200,1859.9,3.8,111.0,29.9,1103.0,6562.0,3.0,1,
180300,1859.8,4.1,111.0,34.6,1103.0,6562.0,3.0,1,
180400,1860.4,3.5,111.0,72.8,1103.0,6562.0,3.0,1,
180600,1860.2,3.7,111.0,73.0,1103.0,6562.0,3.0,1,
180700,1860.3,3.8,111.0,99.9,1103.0,6562.0,3.0,1,
180800,1859.5,147.2,111.0,109.7,1177.0,8821.0,5.0,1,
180900,1840.9,145.7,110.3,38.6,1257.0,8311.0,3.0,1,
181000,1904.3,109.1,107.8,35.8,1168.0,7471.0,3.0,1,
181100,1857.4,79.0,104.9,35.6,1155.0,7385.0,4.0,1,
181200,1837.0,76.9,101.1,38.6,1126.0,7138.0,4.0,1,
181300,1854.0,80.9,101.4,67.1,1152.0,7035.0,5.0,1,
181400,1856.0,47.0,95.8,113.5,1165.0,6779.0,3.0,1,
181600,1861.1,3.3,89.5,67.2,1165.0,6779.0,3.0,1,
181700,1860.8,3.9,89.5,36.0,1165.0,6779.0,3.0,1,
181800,1859.3,3.3,89.5,35.4,1165.0,6779.0,3.0,1,
181900,1859.7,2.8,89.5,38.1,1165.0,6779.0,3.0,1,
182000,1858.7,3.3,89.5,99.4,1165.0,6779.0,3.0,1,
182100,1859.6,3.3,89.5,100.1,1165.0,6779.0,3.0,1,
182200,1859.7,3.1,89.5,99.5,1165.0,6779.0,3.0,1,
182300,1860.0,7.8,89.5,105.8,1165.0,6779.0,3.0,1,
182400,1859.4,105.4,89.5,102.0,1165.0,6779.0,3.0,1,
182600,1862.0,197.8,92.6,35.5,1138.0,7668.0,4.0,1,
182700,1827.7,151.0,103.4,34.7,1079.0,7030.0,3.0,1,
182800,1853.6,175.4,110.7,34.5,1040.0,6803.0,4.0,1,
182900,1853.7,100.8,114.8,29.5,1037.0,6696.0,4.0,1,
183000,1900.0,127.3,115.8,27.3,1026.0,6284.0,3.0,1,
183100,1837.2,10.5,118.2,29.6,1026.0,6284.0,3.0,1,
183200,1862.5,4.4,118.2,35.6,1026.0,6284.0,3.0,1,
183300,1860.0,3.6,118.2,36.0,1026.0,6284.0,3.0,1,
183400,1860.1,3.2,118.2,36.6,1026.0,6284.0,3.0,1,
183600,1858.8,3.3,118.2,102.4,1026.0,6284.0,3.0,1,
183700,1859.5,3.3,118.2,100.9,1026.0,6284.0,3.0,1,
183800,1859.1,3.3,118.2,91.0,1026.0,6284.0,3.0,1,
183900,1860.0,2.9,118.2,89.8,1026.0,6284.0,3.0,1,
184000,1859.9,8.9,118.2,87.1,1026.0,6284.0,3.0,1,
184100,1886.9,138.8,117.1,92.8,1113.0,8295.0,4.0,1,
184200,1826.8,135.4,114.8,36.6,1103.0,7944.0,4.0,1,
184300,1857.6,157.1,113.3,35.0,1087.0,7349.0,3.0,1,
184400,1857.7,176.3,106.6,34.8,1093.0,7362.0,4.0,1,
184600,1848.2,72.9,107.5,79.4,1079.0,6935.0,4.0,1,
184700,1845.8,14.4,105.5,65.6,1074.0,6926.0,4.0,1,
184800,1863.8,4.2,105.7,69.6,1074.0,6926.0,4.0,1,
184900,1860.4,3.4,105.7,44.1,1074.0,6926.0,4.0,1,
185000,1859.4,3.5,105.6,35.1,1074.0,6926.0,4.0,1,
185100,1859.7,3.3,105.7,34.8,1074.0,6926.0,4.0,1,
185200,1860.1,3.0,105.7,65.7,1074.0,6926.0,4.0,1,
185300,1859.0,3.4,105.7,125.2,1074.0,6926.0,4.0,1,
185400,1859.8,3.1,105.7,100.8,1074.0,6926.0,4.0,1,
185600,1859.9,3.0,105.7,93.9,1074.0,6926.0,4.0,1,
185700,1860.0,138.5,105.7,100.7,1208.0,8898.0,4.0,1,
185800,1848.0,185.2,108.5,29.5,1229.0,8049.0,3.0,1,
185900,1857.0,124.3,108.3,29.8,1239.0,8045.0,4.0,1,
186000,1905.1,122.5,104.5,34.3,1179.0,7584.0,4.0,1,
186100,1842.3,103.4,102.1,36.4,1208.0,7518.0,3.0,1,
186200,1844.4,88.2,103.1,40.2,1187.0,7214.0,4.0,1,
186300,1858.2,29.1,103.3,40.6,1186.0,7293.0,4.0,1,
186400,1869.8,4.2,103.6,38.8,1186.0,7293.0,4.0,1,
186600,1860.0,3.0,103.6,35.2,1186.0,7293.0,4.0,1,
186700,1860.0,3.0,103.6,35.1,1186.0,7293.0,4.0,1,
186800,1859.4,3.5,103.6,35.6,1186.0,7293.0,4.0,1,
186900,1859.8,3.2,103.6,109.4,1186.0,7293.0,4.0,1,
187000,1859.8,2.9,103.6,102.6,1186.0,7293.0,4.0,1,
187100,1859.5,3.3,103.6,100.5,1186.0,7293.0,4.0,1,
187200,1859.8,2.9,103.6,125.7,1186.0,7293.0,4.0,1,
187300,1860.8,149.3,103.6,133.4,1129.0,8656.0,4.0,1,
187400,1844.1,192.5,102.5,38.1,1088.0,7878.0,3.0,1,
187600,1848.3,126.6,106.2,34.7,1145.0,7377.0,3.0,1,
187700,1843.6,94.6,107.8,34.8,1135.0,7216.0,4.0,1,
187800,1859.0,134.5,106.2,29.3,1107.0,6759.0,3.0,1,
187900,1856.3,59.1,110.6,28.7,1055.0,6844.0,4.0,1,
188000,1874.3,5.6,110.9,28.5,1055.0,6844.0,4.0,1,
188100,1860.2,2.9,110.9,28.3,1055.0,6844.0,4.0,1,
188200,1860.1,3.2,110.9,29.7,1055.0,6844.0,4.0,1,
188300,1859.2,3.2,110.9,34.5,1055.0,6844.0,4.0,1,
188400,1860.2,3.4,110.9,36.0,1055.0,6844.0,4.0,1,
188600,1859.5,3.2,110.9,100.7,1055.0,6844.0,4.0,1,
188700,1860.0,3.5,110.9,105.8,1055.0,6844.0,4.0,1,
188800,1860.5,2.8,110.9,101.8,1055.0,6844.0,4.0,1,
188900,1859.9,85.7,110.9,102.4,1055.0,6844.0,4.0,1,
189000,1880.0,177.1,111.7,41.0,1105.0,8050.0,3.0,1,
189100,1850.9,127.7,113.5,34.2,1118.0,7466.0,4.0,1,
189200,1834.3,120.1,114.4,34.3,1054.0,7038.0,3.0,1,
189300,1858.0,109.1,114.1,34.9,1068.0,7233.0,4.0,1,
189400,1857.9,97.8,113.0,66.2,1056.0,7077.0,4.0,1,
189600,1836.4,8.4,110.7,84.8,1056.0,7077.0,4.0,1,
189700,1862.4,3.1,110.7,37.7,1056.0,7077.0,4.0,1,
189800,1859.7,3.0,110.7,35.1,1056.0,7077.0,4.0,1,
189900,1859.9,3.5,110.7,35.2,1056.0,7077.0,4.0,1,
190000,1860.3,2.9,110.7,35.1,1056.0,7077.0,4.0,1,
190100,1860.2,3.0,110.7,99.5,1056.0,7077.0,4.0,1,
190200,1859.8,3.3,110.7,100.4,1056.0,7077.0,4.0,1,
190300,1860.6,2.8,110.7,99.7,1056.0,7077.0,4.0,1,
190400,1860.2,2.9,110.7,100.4,1056.0,7077.0,4.0,1,
190600,1881.9,136.0,109.2,139.9,1161.0,8447.0,4.0,1,
190700,1832.0,126.1,100.4,37.7,1138.0,7590.0,3.0,1,
190800,1857.2,160.4,100.1,36.0,1105.0,7645.0,4.0,1,
190900,1855.4,106.5,98.5,36.1,1116.0,7409.0,4.0,1,
191000,1892.6,91.6,98.4,66.5,1088.0,7118.0,3.0,1,
191100,1845.2,83.4,98.1,93.6,1093.0,7000.0,4.0,1,
191200,1850.9,14.5,94.9,85.1,1080.0,6969.0,4.0,1,
191300,1865.0,5.3,95.1,49.8,1080.0,6969.0,4.0,1,
191400,1860.5,4.2,95.1,35.7,1080.0,6969.0,4.0,1,
191600,1859.2,4.5,95.1,30.2,1080.0,6969.0,4.0,1,
191700,1860.3,4.4,95.1,67.5,1080.0,6969.0,4.0,1,
191800,1859.9,4.1,95.1,98.8,1080.0,6969.0,4.0,1,
191900,1859.0,3.9,95.1,100.3,1080.0,6969.0,4.0,1,
192000,1860.5,4.4,95.1,106.3,1080.0,6969.0,4.0,1,
192100,1860.0,3.5,95.1,92.3,1080.0,6969.0,4.0,1,
192200,1859.9,151.1,95.1,98.9,1174.0,8400.0,3.0,1,
192300,1848.3,177.3,98.2,54.6,1186.0,8039.0,4.0,1,
192400,1860.3,132.8,103.7,41.8,1200.0,7733.0,3.0,1,
192600,1845.2,103.1,107.5,29.9,1160.0,7285.0,4.0,1,
192700,1848.2,77.3,108.5,35.2,1126.0,7191.0,4.0,1,
192800,1856.0,30.4,108.3,28.8,1101.0,7133.0,3.0,1,
192900,1869.1,5.4,108.9,30.1,1101.0,7133.0,3.0,1,
193000,1860.6,3.2,108.9,35.2,1101.0,7133.0,3.0,1,
193100,1859.7,3.2,108.9,34.4,1101.0,7133.0,3.0,1,
193200,1860.1,3.8,108.9,34.4,1101.0,7133.0,3.0,1,
193300,1859.8,3.1,108.9,36.5,1101.0,7133.0,3.0,1,
193400,1859.4,3.3,108.9,112.4,1101.0,7133.0,3.0,1,
193600,1860.1,3.1,108.9,100.4,1101.0,7133.0,3.0,1,
193700,1859.7,3.6,108.9,113.6,1101.0,7133.0,3.0,1,
193800,1860.5,147.6,108.9,112.4,1145.0,8869.0,4.0,1,
193900,1839.3,159.9,107.2,38.9,1208.0,8361.0,4.0,1,
194000,1894.7,132.6,102.3,35.8,1126.0,7558.0,4.0,1,
194100,1856.5,186.3,101.8,35.5,1110.0,7336.0,4.0,1,
194200,1842.6,90.1,106.0,36.5,1107.0,7195.0,4.0,1,
194300,1853.8,114.6,106.4,66.8,1059.0,6974.0,4.0,1,
194400,1855.5,81.6,112.1,30.2,1082.0,6880.0,3.0,1,
194600,1859.8,4.4,116.3,29.8,1082.0,6880.0,3.0,1,
194700,1859.4,4.4,116.3,30.0,1082.0,6880.0,3.0,1,
194800,1860.3,5.8,116.3,30.2,1082.0,6880.0,3.0,1,
194900,1859.1,5.9,116.3,35.4,1082.0,6880.0,3.0,1,
195000,1859.4,4.9,116.3,104.1,1082.0,6880.0,3.0,1,
195100,1860.5,5.2,116.3,104.3,1082.0,6880.0,3.0,1,
195200,1859.6,6.2,116.3,105.3,1082.0,6880.0,3.0,1,
195300,1861.5,4.7,116.3,104.0,1082.0,6880.0,3.0,1,
195400,1860.4,113.3,116.3,99.5,1082.0,6880.0,3.0,1,
195600,1862.6,148.5,117.2,38.5,1077.0,7228.0,3.0,1,
195700,1840.9,173.1,119.1,38.7,1023.0,6934.0,4.0,1,
195800,1847.2,105.6,121.3,36.1,1043.0,6883.0,4.0,1,
195900,1858.6,93.0,114.2,30.0,1056.0,6867.0,5.0,1,
196000,1896.8,87.8,108.9,26.1,1057.0,6791.0,4.0,1,
196100,1844.4,10.0,104.5,26.0,1057.0,6791.0,4.0,1,
196200,1862.6,3.8,104.5,26.3,1057.0,6791.0,4.0,1,
196300,1860.5,3.2,104.5,30.1,1057.0,6791.0,4.0,1,
196400,1859.3,4.1,104.5,29.2,1057.0,6791.0,4.0,1,
196600,1858.9,3.4,104.5,109.3,1057.0,6791.0,4.0,1,
196700,1858.9,3.5,104.4,116.0,1057.0,6791.0,4.0,1,
196800,1859.3,3.6,104.4,113.0,1057.0,6791.0,4.0,1,
196900,1859.7,3.5,104.4,105.6,1057.0,6791.0,4.0,1,
197000,1859.2,3.9,104.3,122.6,1057.0,6791.0,4.0,1,
197100,1887.9,192.9,102.9,133.8,1030.0,7789.0,4.0,1,
197200,1825.3,115.7,107.2,35.1,1024.0,7424.0,4.0,1,
197300,1848.3,116.0,103.9,34.4,955.0,6834.0,5.0,1,
197400,1859.8,143.8,102.0,34.5,959.0,6675.0,4.0,1,
197600,1850.8,61.5,101.3,66.6,959.0,6384.0,4.0,1,
197700,1848.5,13.5,99.1,30.3,961.0,6370.0,4.0,1,
197800,1864.4,4.1,99.2,30.3,961.0,6370.0,4.0,1,
197900,1860.6,3.8,99.2,34.9,961.0,6370.0,4.0,1,
198000,1861.0,3.9,99.2,35.1,961.0,6370.0,4.0,1,
198100,1860.0,4.1,99.2,35.2,961.0,6370.0,4.0,1,
198200,1859.5,3.9,99.2,67.3,961.0,6370.0,4.0,1,
198300,1859.5,3.6,99.2,103.7,961.0,6370.0,4.0,1,
198400,1860.0,3.3,99.2,99.5,961.0,6370.0,4.0,1,
198600,1860.1,4.2,99.2,106.8,961.0,6370.0,4.0,1,
198700,1860.5,111.8,99.2,77.4,1035.0,7986.0,4.0,1,
198800,1842.6,148.6,98.4,35.5,1013.0,7492.0,5.0,1,
198900,1855.6,139.6,92.6,35.0,960.0,6803.0,3.0,1,
199000,1897.3,146.9,96.3,35.1,929.0,6473.0,3.0,1,
199100,1858.4,153.8,98.2,36.3,936.0,6454.0,4.0,1,
199200,1844.2,62.4,104.7,41.2,947.0,6395.0,4.0,1,
199300,1852.8,41.6,102.8,41.0,958.0,6266.0,3.0,1,
199400,1873.5,6.1,109.6,39.8,958.0,6266.0,3.0,1,
199600,1860.9,3.6,109.6,29.7,958.0,6266.0,3.0,1,
199700,1859.5,4.1,109.6,29.8,958.0,6266.0,3.0,1,
199800,1859.6,3.7,109.6,34.2,958.0,6266.0,3.0,1,
199900,1860.0,3.7,109.6,90.2,958.0,6266.0,3.0,1,
200000,1859.5,4.0,109.6,103.3,958.0,6266.0,3.0,1,
200100,1860.2,3.7,109.6,101.1,958.0,6266.0,3.0,1,
200200,1860.3,3.5,109.6,99.5,958.0,6266.0,3.0,1,
200300,1859.6,170.4,109.6,100.9,1027.0,8286.0,5.0,1,
200400,1846.3,165.6,111.0,35.8,1049.0,7632.0,3.0,1,
200600,1857.9,131.6,109.1,35.0,1009.0,6797.0,4.0,1,
200700,1837.1,68.0,107.2,35.2,1027.0,6698.0,4.0,1,
200800,1856.4,102.0,107.2,36.4,1009.0,6626.0,4.0,1,
200900,1859.2,47.5,103.6,36.0,1002.0,6305.0,3.0,1,
201000,1875.8,5.5,95.9,38.1,1002.0,6305.0,3.0,1,
201100,1861.4,3.6,95.9,29.8,1002.0,6305.0,3.0,1,
201200,1860.4,4.3,95.9,30.0,1002.0,6305.0,3.0,1,
201300,1860.1,4.0,95.9,30.1,1002.0,6305.0,3.0,1,
201400,1859.7,3.6,95.9,35.8,1002.0,6305.0,3.0,1,
201600,1860.5,4.9,95.9,99.1,1002.0,6305.0,3.0,1,
201700,1861.0,3.7,95.9,99.5,1002.0,6305.0,3.0,1,
201800,1860.0,3.5,95.9,100.7,1002.0,6305.0,3.0,1,
201900,1860.3,97.5,95.9,88.7,1002.0,6305.0,3.0,1,
202000,1885.7,182.1,100.1,38.1,1054.0,7730.0,3.0,1,
202100,1860.4,198.2,102.6,30.1,1027.0,7383.0,4.0,1,
202200,1831.0,106.1,111.6,34.3,1026.0,7013.0,4.0,1,
202300,1858.3,133.4,112.8,30.1,1020.0,6882.0,4.0,1,
202400,1861.0,98.5,113.1,26.2,1042.0,6670.0,3.0,1,
202600,1836.8,9.4,113.2,26.3,1042.0,6670.0,3.0,1,
202700,1862.0,5.3,113.2,30.1,1042.0,6670.0,3.0,1,
202800,1861.5,3.9,113.2,34.9,1042.0,6670.0,3.0,1,
202900,1860.3,4.1,113.2,35.5,1042.0,6670.0,3.0,1,
203000,1859.5,4.3,113.3,36.0,1042.0,6670.0,3.0,1,
203100,1860.0,4.1,113.3,101.6,1042.0,6670.0,3.0,1,
203200,1859.8,3.6,113.2,100.9,1042.0,6670.0,3.0,1,
203300,1859.5,4.3,113.2,101.5,1042.0,6670.0,3.0,1,
203400,1860.2,3.7,113.2,102.4,1042.0,6670.0,3.0,1,
203600,1888.2,138.3,111.5,99.2,1090.0,8269.0,4.0,1,
203700,1823.3,166.1,104.1,35.7,1091.0,7767.0,3.0,1,
203800,1851.5,141.2,111.5,34.4,1055.0,7312.0,4.0,1,
203900,1860.6,194.0,112.7,30.0,1051.0,7062.0,4.0,1,
204000,1893.2,94.8,120.0,34.3,1079.0,6955.0,4.0,1,
204100,1850.0,168.3,120.2,34.5,1087.0,6887.0,4.0,1,
204200,1841.9,23.1,125.9,29.8,1071.0,6546.0,3.0,1,
204300,1866.0,4.8,126.0,34.9,1071.0,6546.0,3.0,1,
204400,1861.2,4.0,126.0,36.1,1071.0,6546.0,3.0,1,
204600,1860.6,3.7,126.1,35.9,1071.0,6546.0,3.0,1,
204700,1859.3,4.0,126.0,44.2,1071.0,6546.0,3.0,1,
204800,1858.7,4.3,126.0,109.7,1071.0,6546.0,3.0,1,
204900,1859.2,4.0,126.0,100.3,1071.0,6546.0,3.0,1,
205000,1860.0,3.4,126.0,98.6,1071.0,6546.0,3.0,1,
205100,1859.5,4.0,126.0,101.6,1071.0,6546.0,3.0,1,
205200,1860.2,115.4,126.0,116.0,1112.0,8438.0,5.0,1,
205300,1843.2,190.0,125.4,37.9,1097.0,7799.0,3.0,1,
205400,1862.6,192.9,120.9,35.8,1082.0,7544.0,4.0,1,
205600,1844.8,86.2,118.1,35.8,1071.0,6983.0,4.0,1,
205700,1844.0,87.0,116.9,65.7,1130.0,6962.0,4.0,1,
205800,1855.6,26.9,121.7,41.4,1108.0,6847.0,4.0,1,
205900,1869.0,5.6,115.6,40.5,1108.0,6847.0,4.0,1,
206000,1860.5,4.3,115.6,37.0,1108.0,6847.0,4.0,1,
206100,1860.9,3.7,115.6,35.6,1108.0,6847.0,4.0,1,
206200,1860.2,3.6,115.6,35.3,1108.0,6847.0,4.0,1,
206300,1859.4,3.8,115.6,36.2,1108.0,6847.0,4.0,1,
206400,1859.9,3.5,115.6,108.9,1108.0,6847.0,4.0,1,
206600,1859.0,4.1,115.6,100.3,1108.0,6847.0,4.0,1,
206700,1860.0,3.6,115.5,100.9,1108.0,6847.0,4.0,1,
206800,1859.9,192.3,115.6,101.1,1171.0,8575.0,3.0,1,
206900,1850.0,158.8,122.6,27.2,1183.0,8185.0,4.0,1,
207000,1895.5,146.0,121.3,27.3,1187.0,7831.0,4.0,1,
207100,1840.1,115.7,119.0,28.5,1115.0,7380.0,3.0,1,
207200,1842.1,103.5,120.4,29.4,1133.0,7139.0,4.0,1,
207300,1859.1,128.3,115.4,35.6,1108.0,6780.0,3.0,1,
207400,1859.1,54.7,113.1,29.9,1088.0,6833.0,3.0,1,
207600,1860.9,3.9,113.4,29.2,1088.0,6833.0,3.0,1,
207700,1860.2,4.0,113.4,29.8,1088.0,6833.0,3.0,1,
207800,1859.4,4.2,113.4,34.4,1088.0,6833.0,3.0,1,
207900,1859.8,4.1,113.4,35.8,1088.0,6833.0,3.0,1,
208000,1859.6,4.1,113.4,101.7,1088.0,6833.0,3.0,1,
208100,1858.9,4.7,113.4,100.8,1088.0,6833.0,3.0,1,
208200,1859.5,3.9,113.4,98.8,1088.0,6833.0,3.0,1,
208300,1859.3,3.9,113.4,89.6,1088.0,6833.0,3.0,1,
208400,1859.0,87.8,113.4,98.7,1088.0,6833.0,3.0,1,
208600,1846.1,133.6,100.8,36.7,1135.0,7359.0,4.0,1,
208700,1839.0,87.9,106.2,35.9,1098.0,6987.0,3.0,1,
208800,1855.9,195.1,102.9,35.6,1076.0,6960.0,4.0,1,
208900,1865.7,95.3,108.0,49.1,1048.0,6748.0,3.0,1,
209000,1884.6,76.5,104.5,91.2,1071.0,6711.0,3.0,1,
209100,1841.0,8.1,103.6,39.6,1071.0,6711.0,3.0,1,
209200,1862.0,3.8,103.6,40.7,1071.0,6711.0,3.0,1,
209300,1860.0,4.5,103.6,37.1,1071.0,6711.0,3.0,1,
209400,1860.2,3.8,103.6,35.0,1071.0,6711.0,3.0,1,
209600,1859.1,3.8,103.6,116.7,1071.0,6711.0,3.0,1,
209700,1859.8,3.4,103.6,115.0,1071.0,6711.0,3.0,1,
209800,1859.9,3.9,103.6,103.8,1071.0,6711.0,3.0,1,
209900,1859.4,3.9,103.6,99.0,1071.0,6711.0,3.0,1,
210000,1860.3,3.6,103.6,99.9,1071.0,6711.0,3.0,1,
210100,1878.3,195.2,101.2,100.4,1111.0,8285.0,4.0,1,
210200,1833.8,138.2,107.9,50.5,1102.0,7363.0,3.0,1,
210300,1858.9,227.2,103.6,38.9,1087.0,7300.0,4.0,1,
210400,1862.0,105.4,110.1,30.2,1088.0,6983.0,3.0,1,
210600,1847.7,102.2,106.0,26.2,1064.0,6634.0,4.0,1,
210700,1850.3,16.0,112.3,26.0,1069.0,6660.0,3.0,1,
210800,1865.1,5.3,112.4,26.1,1069.0,6660.0,3.0,1,
210900,1860.0,3.6,112.4,27.2,1069.0,6660.0,3.0,1,
211000,1859.9,3.7,112.4,28.5,1069.0,6660.0,3.0,1,
211100,1859.4,4.3,112.4,29.2,1069.0,6660.0,3.0,1,
211200,1859.5,3.9,112.4,53.3,1069.0,6660.0,3.0,1,
211300,1859.3,4.1,112.4,100.7,1069.0,6660.0,3.0,1,
211400,1859.3,4.1,112.4,113.4,1069.0,6660.0,3.0,1,
211600,1860.3,3.4,112.4,107.8,1069.0,6660.0,3.0,1,
211700,1859.9,143.9,112.4,102.4,1133.0,8506.0,4.0,1,
211800,1840.2,159.5,112.5,37.0,1097.0,7738.0,4.0,1,
211900,1866.4,121.8,108.5,35.4,1147.0,7592.0,4.0,1,
212000,1884.3,94.6,103.8,35.3,1073.0,7050.0,4.0,1,
212100,1848.3,189.0,101.9,38.8,1065.0,6632.0,3.0,1,
212200,1847.7,138.6,108.3,71.5,1025.0,6780.0,4.0,1,
212300,1852.4,42.0,103.6,68.2,1087.0,6828.0,3.0,1,
212400,1871.0,5.4,108.5,30.1,1087.0,6828.0,3.0,1,
212600,1860.0,5.5,108.5,29.9,1087.0,6828.0,3.0,1,
212700,1860.6,3.7,108.5,30.2,1087.0,6828.0,3.0,1,
212800,1860.0,3.6,108.5,30.2,1087.0,6828.0,3.0,1,
212900,1860.1,4.7,108.5,102.4,1087.0,6828.0,3.0,1,
213000,1859.8,3.6,108.5,108.0,1087.0,6828.0,3.0,1,
213100,1859.6,3.9,108.5,101.9,1087.0,6828.0,3.0,1,
213200,1859.2,4.3,108.5,110.7,1087.0,6828.0,3.0,1,
213300,1860.2,145.8,108.5,116.8,1058.0,8304.0,4.0,1,
213400,1841.5,158.2,108.4,39.3,1069.0,7954.0,4.0,1,
213600,1852.5,131.3,113.1,39.6,1105.0,6504.0,3.0,1,
213700,1847.6,110.2,117.1,38.3,1097.0,6653.0,4.0,1,
213800,1852.5,89.0,116.7,29.4,1047.0,6297.0,3.0,1,
213900,1868.6,50.0,109.9,26.4,1027.0,6085.0,4.0,1,
214000,1876.8,6.5,103.1,29.9,1027.0,6085.0,4.0,1,
214100,1861.5,4.2,103.2,41.5,1027.0,6085.0,4.0,1,
214200,1862.0,3.9,103.2,35.6,1027.0,6085.0,4.0,1,
214300,1862.2,3.8,103.2,30.0,1027.0,6085.0,4.0,1,
214400,1860.4,4.2,103.2,30.0,1027.0,6085.0,4.0,1,
214600,1860.5,4.1,103.2,99.4,1027.0,6085.0,4.0,1,
214700,1860.0,3.7,103.2,101.1,1027.0,6085.0,4.0,1,
214800,1861.0,3.2,103.3,101.7,1027.0,6085.0,4.0,1,
214900,1861.5,85.3,103.3,100.1,1092.0,8197.0,5.0,1,
215000,1886.0,200.2,103.0,43.4,1160.0,7968.0,3.0,1,
215100,1849.8,127.3,106.8,35.6,1121.0,7407.0,4.0,1,
215200,1837.0,92.9,105.5,34.6,1152.0,7334.0,4.0,1,
215300,1851.6,158.1,100.7,34.9,1097.0,6936.0,3.0,1,
215400,1864.9,213.6,114.0,66.2,1072.0,6655.0,3.0,1,
215600,1840.4,12.3,130.1,29.5,1072.0,6655.0,3.0,1,
215700,1861.5,5.2,130.1,29.2,1072.0,6655.0,3.0,1,
215800,1859.1,4.0,130.1,29.7,1072.0,6655.0,3.0,1,
215900,1858.9,4.5,130.1,29.9,1072.0,6655.0,3.0,1,
216000,1859.0,4.5,130.2,34.3,1072.0,6655.0,3.0,1,
216100,1859.4,4.7,130.2,85.4,1072.0,6655.0,3.0,1,
216200,1858.0,4.7,130.2,91.5,1072.0,6655.0,3.0,1,
216300,1859.3,2.6,130.2,99.9,1072.0,6655.0,3.0,1,
216400,1860.6,3.5,130.2,100.3,1072.0,6655.0,3.0,1,
216600,1890.7,219.1,128.4,125.5,1161.0,8690.0,4.0,1,
216700,1821.4,143.5,132.5,35.2,1137.0,8169.0,3.0,1,
216800,1858.0,143.9,134.0,35.3,1123.0,7538.0,4.0,1,
216900,1870.5,108.1,134.6,35.4,1069.0,7123.0,4.0,1,
217000,1896.6,104.0,123.2,30.1,1089.0,6750.0,3.0,1,
217100,1853.2,105.2,110.8,34.2,1046.0,6636.0,4.0,1,
217200,1845.4,15.4,104.3,38.4,1044.0,6325.0,3.0,1,
217300,1867.0,4.3,104.4,38.6,1044.0,6325.0,3.0,1,
217400,1862.9,4.0,104.4,38.0,1044.0,6325.0,3.0,1,
217600,1862.7,3.0,104.5,38.3,1044.0,6325.0,3.0,1,
217700,1860.6,4.0,104.6,67.6,1044.0,6325.0,3.0,1,
217800,1861.4,3.1,104.6,123.5,1044.0,6325.0,3.0,1,
217900,1862.3,3.6,104.6,100.0,1044.0,6325.0,3.0,1,
218000,1861.3,3.1,104.7,100.2,1044.0,6325.0,3.0,1,
218100,1861.5,3.2,104.7,105.2,1044.0,6325.0,3.0,1,
218200,1860.8,145.9,104.7,102.5,1195.0,9050.0,4.0,1,
218300,1844.6,186.0,102.2,29.5,1136.0,7935.0,3.0,1,
218400,1867.8,172.6,100.2,29.7,1164.0,7636.0,4.0,1,
218600,1840.3,76.5,101.5,34.3,1107.0,7050.0,4.0,1,
218700,1842.5,141.8,101.4,65.8,1127.0,6854.0,3.0,1,
218800,1859.0,26.8,113.5,67.4,1149.0,6929.0,4.0,1,
218900,1867.1,5.1,112.5,30.2,1149.0,6929.0,4.0,1,
219000,1861.0,4.0,112.5,30.1,1149.0,6929.0,4.0,1,
219100,1860.5,3.2,112.5,34.8,1149.0,6929.0,4.0,1,
219200,1859.6,4.1,112.5,35.3,1149.0,6929.0,4.0,1,
219300,1859.9,4.0,112.5,38.7,1149.0,6929.0,4.0,1,
219400,1859.9,3.6,112.5,100.5,1149.0,6929.0,4.0,1,
219600,1859.4,3.6,112.5,99.2,1149.0,6929.0,4.0,1,
219700,1859.6,3.4,112.5,76.3,1149.0,6929.0,4.0,1,
219800,1859.6,153.2,112.5,98.8,1095.0,8719.0,4.0,1,
219900,1855.5,164.1,113.6,38.1,1115.0,8020.0,4.0,1,
220000,1886.7,125.7,116.3,30.2,1152.0,7613.0,4.0,1,
220100,1837.0,150.3,114.5,30.1,1127.0,7315.0,3.0,1,
220200,1847.2,182.6,121.7,34.3,1136.0,6907.0,3.0,1,
220300,1858.4,213.5,128.7,41.8,1130.0,6960.0,4.0,1,
220400,1866.8,64.1,126.9,29.8,1080.0,6744.0,4.0,1,
220600,1860.5,4.1,129.7,29.7,1080.0,6744.0,4.0,1,
220700,1859.4,4.1,129.7,34.3,1080.0,6744.0,4.0,1,
220800,1859.8,3.6,129.7,35.1,1080.0,6744.0,4.0,1,
220900,1859.8,4.3,129.7,37.3,1080.0,6744.0,4.0,1,
221000,1858.5,4.3,129.7,102.4,1080.0,6744.0,4.0,1,
221100,1859.0,4.0,129.7,102.7,1080.0,6744.0,4.0,1,
221200,1859.0,3.6,129.7,91.1,1080.0,6744.0,4.0,1,
221300,1858.4,3.3,129.7,92.3,1080.0,6744.0,4.0,1,
221400,1860.0,87.6,129.7,105.9,1019.0,8484.0,4.0,1,
221600,1848.3,120.2,126.3,51.3,1026.0,7465.0,4.0,1,
221700,1845.5,100.6,125.6,43.0,1006.0,6673.0,3.0,1,
221800,1865.7,206.0,119.7,34.2,975.0,6582.0,4.0,1,
221900,1865.1,87.4,117.6,35.1,999.0,6392.0,4.0,1,
222000,1874.7,75.7,113.3,39.3,998.0,6235.0,4.0,1,
222100,1844.7,8.5,108.0,30.1,998.0,6235.0,4.0,1,
222200,1861.7,4.5,108.0,26.0,998.0,6235.0,4.0,1,
222300,1860.1,3.7,108.0,27.4,998.0,6235.0,4.0,1,
222400,1860.3,3.0,108.0,28.4,998.0,6235.0,4.0,1,
222600,1859.1,3.4,108.0,102.2,998.0,6235.0,4.0,1,
222700,1860.0,3.6,108.0,103.0,998.0,6235.0,4.0,1,
222800,1860.2,3.6,108.1,111.1,998.0,6235.0,4.0,1,
222900,1860.3,3.2,108.1,106.6,998.0,6235.0,4.0,1,
223000,1860.8,3.6,108.1,103.8,998.0,6235.0,4.0,1,
223100,1872.2,161.7,105.9,153.0,1133.0,7563.0,3.0,1,
223200,1836.3,197.0,106.9,34.5,1057.0,7012.0,4.0,1,
223300,1855.6,99.3,109.1,30.1,986.0,6414.0,4.0,1,
223400,1870.7,76.3,107.3,30.2,1023.0,6244.0,4.0,1,
223600,1851.5,67.9,100.2,39.3,1056.0,5996.0,3.0,1,
223700,1857.5,12.3,94.3,37.7,1075.0,6232.0,4.0,1,
223800,1866.7,3.7,94.3,52.8,1075.0,6232.0,4.0,1,
223900,1860.8,4.2,94.3,38.1,1075.0,6232.0,4.0,1,
224000,1858.6,4.0,94.3,37.5,1075.0,6232.0,4.0,1,
224100,1859.2,4.0,94.3,38.9,1075.0,6232.0,4.0,1,
224200,1859.5,3.5,94.3,93.4,1075.0,6232.0,4.0,1,
224300,1859.0,3.7,94.3,100.3,1075.0,6232.0,4.0,1,
224400,1860.7,3.6,94.3,102.0,1075.0,6232.0,4.0,1,
224600,1860.1,3.3,94.3,108.0,1075.0,6232.0,4.0,1,
224700,1860.7,137.7,94.3,100.2,1103.0,8086.0,4.0,1,
224800,1837.3,168.8,91.3,37.4,1099.0,7456.0,4.0,1,
224900,1869.2,172.4,94.9,36.9,994.0,6330.0,4.0,1,
225000,1878.6,145.1,98.8,35.9,1019.0,6095.0,3.0,1,
225100,1849.1,73.0,102.1,35.1,1073.0,6421.0,4.0,1,
225200,1848.3,55.9,101.6,30.0,1067.0,6311.0,4.0,1,
225300,1855.0,18.6,100.6,29.9,1098.0,6350.0,4.0,1,
225400,1875.9,4.4,100.5,35.9,1098.0,6350.0,4.0,1,
225600,1858.4,4.2,100.5,67.0,1098.0,6350.0,4.0,1,
225700,1858.2,3.3,100.5,38.8,1098.0,6350.0,4.0,1,
225800,1859.8,3.6,100.5,68.9,1098.0,6350.0,4.0,1,
225900,1860.4,3.8,100.5,110.8,1098.0,6350.0,4.0,1,
226000,1860.1,4.0,100.5,78.8,1098.0,6350.0,4.0,1,
226100,1859.6,3.6,100.5,76.2,1098.0,6350.0,4.0,1,
226200,1860.0,3.7,100.5,76.7,1098.0,6350.0,4.0,1,
226300,1859.7,205.8,100.5,75.7,1095.0,8334.0,5.0,1,
226400,1860.4,141.8,102.4,34.7,1171.0,8212.0,4.0,1,
226600,1845.7,83.8,97.9,34.2,1154.0,7116.0,4.0,1,
226700,1840.5,109.4,99.1,30.3,1139.0,6722.0,3.0,1,
226800,1860.8,99.4,98.2,36.1,1139.0,6723.0,4.0,1,
226900,1872.8,41.9,99.1,65.7,1153.0,6762.0,4.0,1,
227000,1857.7,5.2,99.4,37.0,1153.0,6762.0,4.0,1,
227100,1860.1,3.3,99.4,39.2,1153.0,6762.0,4.0,1,
227200,1860.0,3.2,99.4,35.7,1153.0,6762.0,4.0,1,
227300,1859.2,3.6,99.4,35.3,1153.0,6762.0,4.0,1,
227400,1859.4,3.7,99.4,35.5,1153.0,6762.0,4.0,1,
227600,1858.9,4.2,99.4,99.3,1153.0,6762.0,4.0,1,
227700,1859.4,3.6,99.4,99.2,1153.0,6762.0,4.0,1,
227800,1859.6,3.4,99.4,93.5,1153.0,6762.0,4.0,1,
227900,1860.0,123.4,99.4,100.4,1043.0,8330.0,3.0,1,
228000,1892.7,130.2,96.7,46.0,1128.0,8042.0,4.0,1,
228100,1840.2,110.3,96.6,30.0,1024.0,6753.0,3.0,1,
228200,1842.9,82.1,94.6,30.0,969.0,6311.0,4.0,1,
228300,1867.6,85.3,93.3,30.3,943.0,5700.0,3.0,1,
228400,1873.1,69.8,88.6,38.3,921.0,5510.0,3.0,1,
228600,1838.8,7.7,86.7,87.8,921.0,5510.0,3.0,1,
228700,1861.8,4.9,86.7,100.7,921.0,5510.0,3.0,1,
228800,1858.1,6.1,86.7,54.4,921.0,5510.0,3.0,1,
228900,1858.1,9.5,86.6,35.2,921.0,5510.0,3.0,1,
229000,1859.5,6.1,86.7,36.1,921.0,5510.0,3.0,1,
229100,1860.3,3.5,86.7,92.7,921.0,5510.0,3.0,1,
229200,1860.3,3.5,86.7,85.9,921.0,5510.0,3.0,1,
229300,1861.0,3.3,86.8,85.3,921.0,5510.0,3.0,1,
229400,1859.7,4.0,86.8,93.5,921.0,5510.0,3.0,1,
229600,1872.5,176.8,83.3,124.1,1014.0,8022.0,4.0,1,
229700,1834.0,194.8,92.7,35.2,915.0,6794.0,4.0,1,
229800,1867.5,96.4,96.1,34.3,865.0,5925.0,4.0,1,
229900,1876.0,63.7,94.3,30.3,799.0,5073.0,4.0,1,
230000,1870.0,71.0,95.4,30.2,764.0,4543.0,4.0,1,
230100,1847.4,85.9,98.2,35.6,714.0,4305.0,4.0,1,
230200,1855.5,11.2,101.9,30.1,689.0,4234.0,4.0,1,
230300,1863.8,3.9,101.9,29.6,689.0,4234.0,4.0,1,
230400,1861.4,3.5,101.9,30.0,689.0,4234.0,4.0,1,
230600,1859.6,7.4,101.9,35.1,689.0,4234.0,4.0,1,
230700,1859.5,4.1,101.9,100.2,689.0,4234.0,4.0,1,
230800,1860.0,3.7,101.9,93.6,689.0,4234.0,4.0,1,
230900,1858.5,4.5,101.9,92.1,689.0,4234.0,4.0,1,
231000,1859.0,4.9,101.9,92.6,689.0,4234.0,4.0,1,
231100,1859.8,4.4,101.9,87.7,689.0,4234.0,4.0,1,
231200,1859.8,162.1,101.8,80.5,1028.0,7984.0,4.0,1,
231300,1854.4,155.6,97.8,51.7,1088.0,7694.0,4.0,1,
231400,1877.2,117.4,95.4,47.8,1033.0,7090.0,4.0,1,
231600,1841.2,77.3,97.9,34.5,969.0,6003.0,5.0,1,
231700,1854.3,115.5,101.6,30.2,1039.0,6043.0,3.0,1,
231800,1864.3,19.9,105.7,29.9,1031.0,6124.0,4.0,1,
231900,1863.5,4.5,105.9,26.3,1031.0,6124.0,4.0,1,
232000,1859.7,3.4,105.9,26.3,1031.0,6124.0,4.0,1,
232100,1859.3,3.7,105.8,28.3,1031.0,6124.0,4.0,1,
232200,1859.1,4.1,105.8,29.2,1031.0,6124.0,4.0,1,
232300,1859.7,3.9,105.8,69.6,1031.0,6124.0,4.0,1,
232400,1859.4,3.8,105.8,99.3,1031.0,6124.0,4.0,1,
232600,1860.1,3.2,105.8,79.4,1031.0,6124.0,4.0,1,
232700,1859.1,3.7,105.8,70.3,1031.0,6124.0,4.0,1,
232800,1859.2,146.8,105.8,65.5,982.0,8309.0,4.0,1,
232900,1854.1,148.4,105.5,37.5,991.0,7378.0,4.0,1,
233000,1877.1,115.1,107.3,34.5,996.0,7025.0,5.0,1,
233100,1849.0,95.4,108.8,34.4,939.0,6307.0,3.0,1,
233200,1854.7,145.8,111.4,34.9,933.0,6196.0,4.0,1,
233300,1854.4,71.3,106.4,66.2,967.0,6124.0,4.0,1,
233400,1873.9,38.0,97.6,67.3,966.0,6176.0,5.0,1,
233600,1859.6,4.1,97.9,43.9,966.0,6176.0,5.0,1,
233700,1859.5,4.0,97.9,45.5,966.0,6176.0,5.0,1,
233800,1858.9,3.6,97.9,35.3,966.0,6176.0,5.0,1,
233900,1858.4,3.5,97.9,35.8,966.0,6176.0,5.0,1,
234000,1858.9,3.8,97.9,132.4,966.0,6176.0,5.0,1,
234100,1859.7,3.4,97.9,112.2,966.0,6176.0,5.0,1,
234200,1859.0,3.7,97.9,86.8,966.0,6176.0,5.0,1,
234300,1859.3,3.4,97.9,79.9,966.0,6176.0,5.0,1,
234400,1859.7,129.6,97.9,93.4,1033.0,8414.0,4.0,1,
234600,1842.4,147.4,96.0,36.9,1026.0,7133.0,3.0,1,
234700,1849.1,99.2,99.4,35.9,996.0,6733.0,4.0,1,
234800,1852.3,88.9,99.0,35.7,989.0,6538.0,3.0,1,
234900,1876.3,93.0,100.3,34.5,1005.0,6351.0,4.0,1,
235000,1870.8,91.4,103.9,29.3,1030.0,6315.0,4.0,1,
235100,1852.5,8.5,110.6,29.9,1030.0,6315.0,4.0,1,
235200,1862.1,3.5,110.6,25.9,1030.0,6315.0,4.0,1,
235300,1860.1,3.4,110.6,25.8,1030.0,6315.0,4.0,1,
235400,1858.6,3.6,110.6,26.1,1030.0,6315.0,4.0,1,
235600,1859.7,3.4,110.6,100.5,1030.0,6315.0,4.0,1,
235700,1859.2,3.3,110.6,100.4,1030.0,6315.0,4.0,1,
235800,1859.3,3.1,110.6,93.1,1030.0,6315.0,4.0,1,
235900,1860.0,3.5,110.6,70.8,1030.0,6315.0,4.0,1,
236000,1859.2,2.8,110.6,92.6,1030.0,6315.0,4.0,1,
236100,1881.0,102.5,107.6,99.1,1063.0,8185.0,4.0,1,
236200,1828.7,127.1,108.7,35.3,1047.0,7558.0,4.0,1,
236300,1861.0,124.4,104.1,35.0,1025.0,6922.0,4.0,1,
236400,1876.6,83.3,104.2,35.2,978.0,6545.0,4.0,1,
236600,1851.8,81.3,96.5,39.6,975.0,6187.0,4.0,1,
236700,1847.0,13.0,89.7,40.8,999.0,5939.0,3.0,1,
236800,1867.5,3.5,89.7,66.5,999.0,5939.0,3.0,1,
236900,1860.5,3.2,89.7,48.1,999.0,5939.0,3.0,1,
237000,1859.6,3.4,89.8,36.8,999.0,5939.0,3.0,1,
237100,1859.5,2.9,89.8,35.5,999.0,5939.0,3.0,1,
237200,1859.2,4.0,89.8,66.0,999.0,5939.0,3.0,1,
237300,1859.4,3.7,89.8,99.9,999.0,5939.0,3.0,1,
237400,1859.8,3.8,89.8,99.3,999.0,5939.0,3.0,1,
237600,1860.0,3.1,89.8,90.4,999.0,5939.0,3.0,1,
237700,1859.9,155.0,89.8,87.8,1030.0,8170.0,5.0,1,
237800,1847.3,150.9,95.3,37.6,998.0,7535.0,4.0,1,
237900,1878.3,133.4,95.8,37.8,1000.0,6626.0,3.0,1,
238000,1878.0,69.7,94.4,38.8,981.0,6492.0,4.0,1,
238100,1844.1,60.8,94.0,50.5,974.0,6339.0,4.0,1,
238200,1850.3,102.0,94.0,66.3,975.0,6231.0,3.0,1,
238300,1860.1,21.2,98.7,80.3,984.0,6143.0,4.0,1,
238400,1867.5,4.1,98.5,42.6,984.0,6143.0,4.0,1,
238600,1860.5,3.5,98.5,35.1,984.0,6143.0,4.0,1,
238700,1858.9,3.9,98.5,35.4,984.0,6143.0,4.0,1,
238800,1859.6,3.3,98.5,42.6,984.0,6143.0,4.0,1,
238900,1860.0,3.6,98.5,100.6,984.0,6143.0,4.0,1,
239000,1859.3,3.6,98.5,100.4,984.0,6143.0,4.0,1,
239100,1860.3,2.9,98.5,101.6,984.0,6143.0,4.0,1,
239200,1861.1,2.8,98.5,98.8,984.0,6143.0,4.0,1,
239300,1860.1,147.3,98.5,98.7,1041.0,8375.0,4.0,1,
239400,1865.3,187.1,92.4,36.6,1033.0,7114.0,3.0,1,
239600,1834.2,65.3,94.0,34.8,973.0,6418.0,4.0,1,
239700,1852.1,143.2,94.0,34.3,1016.0,6280.0,4.0,1,
