Time(ms),Raw_ADC,ENV_Value,RMS,MDF,MW_Amp,MW_Area,MW_Latency,MW_Valid,Marker
0,1856.9,182.8,0.0,0.0,0.0,0.0,0.0,0,
100,1844.7,240.7,0.0,0.0,1438.0,8542.0,7.0,1,
200,1851.4,209.2,0.0,0.0,1651.0,8829.0,3.0,1,
300,1886.6,318.6,0.0,0.0,2015.0,7208.0,18.0,1,
400,1827.9,344.2,0.0,0.0,1060.0,6383.0,5.0,1,
500,1869.5,246.9,0.0,68.7,2156.0,10072.0,4.0,1,
600,1863.2,251.7,0.0,92.4,1258.0,5976.0,4.0,1,
700,1854.6,196.5,0.0,29.1,1757.0,8281.0,4.0,1,
800,1861.4,190.1,0.0,28.1,1757.0,8281.0,4.0,1,
900,1857.8,188.0,0.0,28.9,1757.0,8281.0,4.0,1,
1000,1857.9,184.8,0.0,43.8,1757.0,8281.0,4.0,1,
1100,1856.3,191.0,0.0,239.3,1757.0,8281.0,4.0,1,
1200,1859.5,191.4,0.0,241.8,1757.0,8281.0,4.0,1,
1300,1857.6,188.3,0.0,241.2,1757.0,8281.0,4.0,1,
1400,1856.7,186.6,0.0,240.8,1757.0,8281.0,4.0,1,
1500,1859.3,187.0,0.0,240.9,1757.0,8281.0,4.0,1,
1600,1856.1,186.3,250.4,241.0,1757.0,8281.0,4.0,1,
1700,1851.8,274.8,251.3,241.0,1556.0,8707.0,2.0,0,
1800,1880.4,318.2,255.1,178.4,1462.0,6943.0,2.0,0,
1900,1852.1,240.7,265.8,71.1,1868.0,7380.0,2.0,0,
2000,1847.9,243.9,264.0,93.8,1737.0,8369.0,5.0,1,
2100,1866.1,195.9,257.9,94.4,1118.0,6628.0,4.0,1,
2200,1860.8,257.8,256.5,39.4,2079.0,9989.0,4.0,1,
2300,1865.0,237.7,258.7,29.9,1381.0,6731.0,4.0,1,
2400,1856.1,193.8,260.1,29.2,1381.0,6731.0,4.0,1,
2600,1858.5,183.3,260.5,38.7,1381.0,6731.0,4.0,1,
2700,1855.1,179.9,260.3,177.4,1381.0,6731.0,4.0,1,
2800,1859.5,184.4,259.9,242.8,1381.0,6731.0,4.0,1,
2900,1856.5,181.0,259.6,242.3,1381.0,6731.0,4.0,1,
3000,1860.9,173.3,259.1,242.0,1381.0,6731.0,4.0,1,
3100,1856.3,156.8,258.1,243.0,1381.0,6731.0,4.0,1,
3200,1855.3,149.3,256.5,252.9,1381.0,6731.0,4.0,1,
3300,1859.2,148.1,254.7,242.1,1381.0,6731.0,4.0,1,
3400,1858.4,172.4,246.1,240.2,1280.0,7311.0,3.0,1,
3600,1853.1,158.3,215.8,29.3,1464.0,6318.0,5.0,1,
3700,1869.9,183.8,202.4,28.4,1753.0,8205.0,4.0,1,
3800,1837.7,144.2,200.2,28.2,1269.0,5673.0,4.0,1,
3900,1857.1,225.5,194.9,28.1,1951.0,8930.0,5.0,1,
4000,1861.3,151.3,190.4,28.5,2044.0,8763.0,4.0,1,
4100,1852.7,149.1,187.5,29.4,2044.0,8763.0,4.0,1,
4200,1852.9,142.3,185.1,34.3,2044.0,8763.0,4.0,1,
4300,1850.7,147.5,182.7,87.5,2044.0,8763.0,4.0,1,
4400,1854.4,152.9,180.5,240.2,2044.0,8763.0,4.0,1,
4600,1857.5,168.7,176.9,240.4,2044.0,8763.0,4.0,1,
4700,1856.1,177.6,177.1,240.3,2044.0,8763.0,4.0,1,
4800,1858.0,175.3,178.5,240.5,2044.0,8763.0,4.0,1,
4900,1861.2,177.3,180.1,240.6,2044.0,8763.0,4.0,1,
5000,1845.0,234.4,184.5,240.4,1002.0,6130.0,6.0,1,
5100,1860.1,210.1,189.0,70.2,1643.0,8166.0,5.0,1,
5200,1890.7,257.4,196.7,29.3,1510.0,6932.0,2.0,0,
5300,1831.9,236.8,205.4,29.3,1268.0,6568.0,27.0,0,
5400,1857.3,197.8,207.7,54.4,2123.0,9063.0,2.0,0,
5600,1856.0,190.4,214.4,92.8,1152.0,6778.0,4.0,1,
5700,1858.0,195.3,217.3,29.6,680.0,5028.0,9.0,1,
5800,1855.9,197.2,219.7,29.2,724.0,5004.0,9.0,1,
5900,1854.0,204.2,223.2,35.2,694.0,4992.0,9.0,1,
6000,1863.4,186.6,225.1,37.0,756.0,4895.0,9.0,1,
6100,1857.5,206.2,228.9,40.6,642.0,5186.0,25.0,0,
6200,1861.4,222.0,230.6,39.2,642.0,5186.0,25.0,0,
6300,1858.0,200.3,232.6,37.1,608.0,4953.0,9.0,1,
6400,1855.3,226.2,234.8,37.4,705.0,5097.0,25.0,0,
6600,1843.1,310.1,238.0,34.8,1664.0,9500.0,28.0,0,
6700,1876.0,241.0,248.1,34.8,1539.0,8779.0,25.0,0,
6800,1849.6,236.4,248.6,50.3,1178.0,6989.0,5.0,1,
6900,1851.2,259.9,242.4,91.3,1925.0,8819.0,3.0,1,
7000,1857.2,166.5,240.0,91.6,1021.0,6872.0,3.0,1,
7100,1854.0,242.0,240.7,47.5,2127.0,10236.0,4.0,1,
7200,1857.4,222.0,238.1,49.6,1490.0,7867.0,4.0,1,
7300,1860.0,218.3,237.9,28.9,706.0,5048.0,9.0,1,
7400,1851.1,221.8,238.8,27.4,697.0,5112.0,9.0,1,
7600,1855.2,289.5,240.7,40.7,921.0,6540.0,9.0,1,
7700,1855.8,265.7,245.2,40.8,853.0,6097.0,9.0,1,
7800,1852.1,306.7,248.0,29.8,849.0,6869.0,25.0,0,
7900,1852.0,337.1,255.0,28.4,1000.0,8246.0,12.0,1,
8000,1848.8,383.4,260.9,29.0,1258.0,9538.0,16.0,1,
8100,1850.5,390.9,279.9,29.2,1648.0,12862.0,19.0,1,
8200,1870.6,420.2,301.1,28.8,3083.0,15958.0,19.0,1,
8300,1866.8,500.5,326.9,29.0,3069.0,19273.0,18.0,1,
8400,1869.6,432.5,352.8,29.8,1508.0,10746.0,2.0,0,
8600,1877.1,132.6,360.0,66.7,1621.0,7716.0,2.0,0,
8700,1858.5,183.8,361.1,30.1,1266.0,6452.0,4.0,1,
8800,1864.5,278.6,364.8,30.1,1311.0,7639.0,27.0,0,
8900,1931.7,955.4,403.0,35.5,4078.0,27632.0,15.0,1,
9000,2032.8,1823.2,575.8,29.4,4095.0,48964.0,9.0,1,
9100,2009.0,1873.8,749.9,27.4,4095.0,48608.0,2.0,0,
9200,2010.6,1943.1,870.6,27.4,4095.0,48490.0,12.0,1,
9300,2029.6,1954.7,994.1,27.3,4095.0,48950.0,8.0,1,
9400,1981.0,1853.7,1106.8,27.3,4095.0,51222.0,2.0,0,
9600,1754.1,194.5,1159.5,26.9,4095.0,51222.0,2.0,0,
9700,1781.1,189.2,1157.2,26.2,4095.0,51222.0,2.0,0,
9800,1821.5,176.8,1153.7,26.0,4095.0,51222.0,2.0,0,
9900,1824.8,177.7,1147.0,30.1,1149.0,6647.0,5.0,1,
10000,1850.9,237.4,1135.8,57.4,1662.0,8860.0,4.0,1,
10100,1859.5,275.8,1133.4,29.0,1277.0,7548.0,2.0,0,
10200,1819.8,279.2,1133.8,29.3,1549.0,7891.0,21.0,1,
10300,1859.0,355.6,1136.1,29.7,1594.0,7310.0,26.0,0,
10400,1857.2,163.1,1138.5,30.0,1074.0,5439.0,26.0,0,
10600,1859.0,187.3,1069.7,74.3,579.0,4688.0,9.0,1,
10700,1859.0,183.4,956.0,91.5,566.0,4680.0,26.0,0,
10800,1861.3,179.8,856.0,56.6,566.0,4680.0,26.0,0,
10900,1855.6,178.3,694.7,41.6,566.0,4680.0,26.0,0,
11000,1862.1,173.3,488.1,56.1,566.0,4680.0,26.0,0,
11100,1857.5,172.9,244.8,238.6,566.0,4680.0,26.0,0,
11200,1858.4,171.7,244.9,239.8,566.0,4680.0,26.0,0,
11300,1859.5,176.9,242.5,240.5,566.0,4680.0,26.0,0,
11400,1859.5,166.1,241.0,240.4,566.0,4680.0,26.0,0,
11600,1876.3,159.1,238.6,85.4,1071.0,6146.0,2.0,0,
11700,1845.5,291.3,237.2,83.6,730.0,5705.0,24.0,1,
11800,1859.9,169.0,236.9,88.8,1549.0,6913.0,2.0,0,
11900,1856.2,221.8,225.0,94.2,1490.0,6264.0,27.0,0,
12000,1857.7,170.0,212.4,90.9,1602.0,7510.0,2.0,0,
12100,1866.4,166.3,210.6,91.3,1589.0,7111.0,2.0,0,
12200,1859.7,171.1,208.5,91.1,1589.0,7111.0,2.0,0,
12300,1855.4,166.8,206.1,89.1,1589.0,7111.0,2.0,0,
12400,1859.4,159.4,205.0,92.8,1589.0,7111.0,2.0,0,
12600,1859.5,163.6,203.2,240.1,1589.0,7111.0,2.0,0,
12700,1859.6,168.6,202.6,240.2,1589.0,7111.0,2.0,0,
12800,1861.8,168.2,202.2,240.3,1589.0,7111.0,2.0,0,
12900,1859.7,175.1,201.8,239.9,1589.0,7111.0,2.0,0,
13000,1858.4,172.0,201.9,239.8,1589.0,7111.0,2.0,0,
13100,1883.2,181.3,202.1,240.4,972.0,5589.0,2.0,0,
13200,1828.5,200.0,208.1,178.3,1097.0,5746.0,27.0,0,
13300,1855.7,180.7,207.7,92.8,1422.0,5929.0,2.0,0,
13400,1871.3,292.8,208.2,55.1,761.0,5904.0,13.0,1,
13600,1861.9,245.6,215.2,92.6,999.0,6061.0,27.0,0,
13700,1858.6,196.1,217.4,41.1,1269.0,6464.0,2.0,0,
13800,1858.4,194.5,218.9,89.1,1269.0,6464.0,2.0,0,
13900,1855.5,192.1,220.0,104.1,1269.0,6464.0,2.0,0,
14000,1859.2,189.6,221.5,175.0,1269.0,6464.0,2.0,0,
14100,1859.6,199.3,224.4,239.8,557.0,4860.0,25.0,0,
14200,1857.2,185.1,225.7,178.2,557.0,4860.0,25.0,0,
14300,1856.5,191.6,227.0,50.7,557.0,4860.0,25.0,0,
14400,1860.6,180.2,228.1,51.4,557.0,4860.0,25.0,0,
14600,1861.2,176.2,229.6,240.4,557.0,4860.0,25.0,0,
14700,1863.0,150.8,230.0,240.6,1291.0,7840.0,5.0,1,
14800,1850.1,214.4,227.2,177.2,1395.0,7672.0,27.0,0,
14900,1865.5,163.6,224.8,80.5,1127.0,5746.0,2.0,0,rest_end
15000,1881.1,200.3,221.1,99.9,1088.0,5320.0,2.0,0,
15100,1848.4,308.2,215.0,137.9,920.0,5525.0,26.0,0,
15200,1852.6,258.5,220.0,91.9,1594.0,6306.0,2.0,0,
15300,1856.8,166.5,217.3,93.7,719.0,4768.0,18.0,1,
15400,1861.3,157.0,215.4,91.9,719.0,4768.0,18.0,1,
15600,1858.6,135.6,210.6,80.0,719.0,4768.0,18.0,1,
15700,1857.2,128.7,207.6,177.0,719.0,4768.0,18.0,1,
15800,1855.3,129.3,203.1,240.2,719.0,4768.0,18.0,1,
15900,1858.0,133.9,200.0,241.0,719.0,4768.0,18.0,1,
16000,1858.8,127.0,197.0,240.3,719.0,4768.0,18.0,1,
16100,1855.8,129.7,194.2,240.0,719.0,4768.0,18.0,1,
16200,1861.2,132.6,191.3,240.2,719.0,4768.0,18.0,1,
16300,1857.2,194.7,188.7,240.3,719.0,4768.0,18.0,1,
16400,1858.3,284.7,195.1,178.6,1075.0,4403.0,2.0,0,
16600,1839.7,163.5,194.8,65.8,546.0,4051.0,24.0,1,
16700,1862.2,211.0,194.9,39.4,1438.0,5271.0,2.0,0,
16800,1850.0,182.7,184.7,88.0,1520.0,5285.0,27.0,0,
16900,1865.6,197.3,187.6,87.1,1520.0,5942.0,2.0,0,
17000,1864.5,147.5,187.4,48.5,1520.0,5942.0,2.0,0,
17100,1862.1,147.1,186.8,39.7,1520.0,5942.0,2.0,0,
17200,1858.1,153.6,186.9,39.9,1520.0,5942.0,2.0,0,
17300,1857.8,155.0,188.0,123.6,1520.0,5942.0,2.0,0,
17400,1860.2,151.1,189.0,240.1,1520.0,5942.0,2.0,0,
17600,1860.3,171.4,191.7,240.2,1520.0,5942.0,2.0,0,
17700,1858.0,187.0,195.3,240.3,517.0,4423.0,3.0,1,
17800,1860.0,195.3,198.0,178.5,517.0,4423.0,3.0,1,
17900,1860.0,264.9,201.8,49.9,638.0,4670.0,9.0,1,
18000,1885.2,299.3,222.4,44.9,833.0,5879.0,25.0,0,
18100,1826.0,223.2,221.7,37.5,1497.0,8906.0,3.0,1,
18200,1860.5,221.8,226.3,37.5,1666.0,6682.0,2.0,0,
18300,1867.2,280.7,232.7,66.9,863.0,6187.0,2.0,0,
18400,1864.2,225.8,237.6,81.6,1904.0,7710.0,2.0,0,
18600,1850.0,163.1,236.7,36.8,1257.0,6587.0,5.0,1,
18700,1860.7,153.9,237.4,28.8,1257.0,6587.0,5.0,1,
18800,1853.5,158.4,237.9,28.0,1257.0,6587.0,5.0,1,
18900,1854.4,159.1,238.3,66.5,1257.0,6587.0,5.0,1,
19000,1857.1,157.0,238.8,240.0,1257.0,6587.0,5.0,1,
19100,1856.9,149.3,238.9,239.9,1257.0,6587.0,5.0,1,
19200,1856.4,143.2,238.3,240.0,1257.0,6587.0,5.0,1,
19300,1856.9,140.1,236.9,240.2,1257.0,6587.0,5.0,1,
19400,1860.2,134.7,234.2,239.8,1257.0,6587.0,5.0,1,
19600,1866.1,180.7,209.5,239.7,1061.0,5450.0,3.0,1,
19700,1853.2,234.1,200.2,93.0,777.0,5134.0,2.0,0,
19800,1852.8,207.4,199.6,56.5,1581.0,5437.0,28.0,0,
19900,1870.1,191.5,194.8,70.1,1242.0,5245.0,2.0,0,
20000,1869.7,275.9,190.0,87.6,664.0,4857.0,22.0,1,
20100,1847.8,186.4,185.4,88.0,1649.0,6735.0,2.0,0,
20200,1867.3,135.1,186.0,92.3,1637.0,6657.0,2.0,0,
20300,1858.5,138.0,184.6,93.8,1637.0,6657.0,2.0,0,
20400,1857.5,132.6,183.2,90.0,1637.0,6657.0,2.0,0,
20600,1854.5,127.1,179.9,239.7,1637.0,6657.0,2.0,0,
20700,1859.1,125.9,178.2,240.2,1637.0,6657.0,2.0,0,
20800,1857.8,122.9,176.7,240.0,1637.0,6657.0,2.0,0,
20900,1858.8,120.7,175.5,239.9,1637.0,6657.0,2.0,0,
21000,1856.8,110.3,174.6,239.8,1637.0,6657.0,2.0,0,
21100,1859.5,104.5,173.4,239.7,1637.0,6657.0,2.0,0,
21200,1855.5,144.7,173.7,239.6,825.0,4086.0,2.0,0,
21300,1860.6,234.6,179.2,104.4,770.0,3799.0,2.0,0,
21400,1871.6,129.6,178.1,57.3,928.0,4549.0,27.0,0,
21600,1857.2,190.7,171.3,66.8,1567.0,6267.0,2.0,0,
21700,1858.5,229.5,168.7,90.4,1392.0,5827.0,27.0,0,
21800,1860.4,149.4,173.8,88.9,1346.0,5295.0,2.0,0,
21900,1860.1,125.9,173.3,92.0,1346.0,5295.0,2.0,0,
22000,1852.7,119.9,172.6,94.1,1346.0,5295.0,2.0,0,
22100,1853.9,107.1,171.6,91.4,1346.0,5295.0,2.0,0,
22200,1858.5,90.7,169.9,178.5,1346.0,5295.0,2.0,0,
22300,1859.3,94.8,167.9,239.7,1346.0,5295.0,2.0,0,
22400,1859.0,117.5,166.9,240.2,1346.0,5295.0,2.0,0,
22600,1866.4,139.6,167.3,239.4,1346.0,5295.0,2.0,0,
22700,1860.5,145.1,168.6,238.9,1346.0,5295.0,2.0,0,
22800,1864.7,170.3,170.5,239.6,1178.0,7085.0,4.0,1,
22900,1880.3,207.4,169.4,221.0,919.0,5272.0,2.0,0,
23000,1858.8,251.1,173.4,89.9,1149.0,5641.0,2.0,0,
23100,1854.5,189.5,177.8,92.5,1749.0,6455.0,2.0,0,
23200,1859.8,233.2,181.4,92.4,1349.0,5645.0,2.0,0,
23300,1863.7,193.0,184.7,92.3,2039.0,7027.0,2.0,0,
23400,1886.9,180.7,185.2,134.7,1344.0,5711.0,2.0,0,
23600,1852.6,148.2,187.5,89.5,1344.0,5711.0,2.0,0,
23700,1851.2,151.5,189.0,68.5,1344.0,5711.0,2.0,0,
23800,1856.1,148.6,191.5,177.9,1344.0,5711.0,2.0,0,
23900,1857.6,149.2,194.2,240.3,1344.0,5711.0,2.0,0,
24000,1854.8,149.6,196.5,240.3,1344.0,5711.0,2.0,0,
24100,1853.8,150.8,198.2,240.3,1344.0,5711.0,2.0,0,
24200,1853.8,155.8,199.4,240.4,1344.0,5711.0,2.0,0,
24300,1858.3,147.3,200.1,240.2,1344.0,5711.0,2.0,0,
24400,1853.7,120.8,200.6,240.0,1344.0,5711.0,2.0,0,
24600,1856.3,203.5,197.5,91.8,1083.0,6074.0,2.0,0,
24700,1858.2,313.5,193.8,78.4,1023.0,5422.0,2.0,0,
24800,1864.1,167.7,197.6,91.2,1805.0,7173.0,2.0,0,
24900,1882.3,245.1,196.4,91.5,927.0,5194.0,22.0,1,
25000,1842.5,121.8,196.8,91.3,2073.0,8096.0,2.0,0,
25100,1859.9,145.9,193.8,102.6,2008.0,7346.0,2.0,0,
25200,1854.8,153.4,194.1,132.1,2008.0,7346.0,2.0,0,
25300,1853.0,153.8,194.2,170.4,2008.0,7346.0,2.0,0,
25400,1854.5,156.3,194.4,228.5,2008.0,7346.0,2.0,0,
25600,1855.8,162.5,194.8,240.0,2008.0,7346.0,2.0,0,
25700,1855.6,157.3,195.4,240.1,2008.0,7346.0,2.0,0,
25800,1857.6,158.6,195.4,240.2,2008.0,7346.0,2.0,0,
25900,1857.5,153.2,195.2,240.0,2008.0,7346.0,2.0,0,
26000,1853.8,154.3,195.3,239.9,2008.0,7346.0,2.0,0,
26100,1846.6,227.7,198.3,239.5,2022.0,7106.0,25.0,0,
26200,1865.4,162.6,204.2,91.0,1432.0,6732.0,2.0,0,
26300,1875.6,232.0,202.3,85.8,703.0,5814.0,23.0,1,
26400,1878.3,219.9,195.3,88.1,1219.0,6402.0,2.0,0,
26600,1868.9,208.7,193.2,91.0,1136.0,6213.0,2.0,0,
26700,1861.6,187.1,197.1,91.8,1421.0,6413.0,2.0,0,
26800,1861.6,192.2,200.7,92.3,603.0,4775.0,25.0,0,
26900,1848.3,188.7,203.8,90.8,589.0,4504.0,25.0,0,
27000,1852.4,174.5,205.4,50.6,589.0,4504.0,25.0,0,
27100,1856.4,171.5,206.5,43.8,589.0,4504.0,25.0,0,
27200,1859.0,176.7,207.6,69.1,589.0,4504.0,25.0,0,
27300,1860.9,164.2,208.1,239.4,589.0,4504.0,25.0,0,
27400,1855.7,156.8,208.5,239.6,589.0,4504.0,25.0,0,
27600,1860.0,107.6,206.9,239.6,589.0,4504.0,25.0,0,
27700,1860.7,159.5,202.9,186.6,1157.0,5509.0,3.0,1,
27800,1862.5,155.1,197.0,78.6,1308.0,5104.0,26.0,0,
27900,1862.7,107.4,195.8,35.4,1227.0,4906.0,2.0,0,
28000,1857.8,98.9,191.6,71.2,1675.0,6443.0,2.0,0,
28100,1858.1,175.4,188.2,93.5,1743.0,5992.0,27.0,0,
28200,1863.2,200.3,192.8,91.3,1756.0,7265.0,2.0,0,
28300,1864.2,145.0,197.8,91.3,1648.0,6614.0,3.0,1,
28400,1860.8,117.3,192.6,42.7,1648.0,6614.0,3.0,1,
28600,1849.4,111.4,183.3,29.0,1648.0,6614.0,3.0,1,
28700,1854.7,114.6,179.8,87.7,1648.0,6614.0,3.0,1,
28800,1855.2,114.3,176.0,239.9,1648.0,6614.0,3.0,1,
28900,1858.1,115.2,172.3,239.9,1648.0,6614.0,3.0,1,
29000,1858.0,115.2,169.3,240.0,1648.0,6614.0,3.0,1,
29100,1857.3,113.7,166.4,240.0,1648.0,6614.0,3.0,1,
29200,1858.0,108.6,165.8,240.0,1648.0,6614.0,3.0,1,
29300,1870.8,228.5,165.9,240.0,744.0,5002.0,27.0,0,
29400,1854.1,198.5,179.6,132.6,1313.0,5299.0,2.0,0,
29600,1868.5,229.8,185.5,90.1,1373.0,5330.0,2.0,0,
29700,1865.6,178.7,188.9,132.1,1714.0,6567.0,2.0,0,
29800,1884.0,125.9,184.3,102.4,1434.0,6179.0,5.0,1,
29900,1828.5,117.8,172.8,30.2,1856.0,8714.0,4.0,1,
30000,1865.6,116.2,172.1,28.6,1856.0,8714.0,4.0,1,
30100,1855.9,113.2,172.1,28.1,1856.0,8714.0,4.0,1,
30200,1847.0,116.7,172.1,57.3,1856.0,8714.0,4.0,1,
30300,1853.9,119.3,172.2,220.1,1856.0,8714.0,4.0,1,
30400,1853.8,113.3,172.5,239.9,1856.0,8714.0,4.0,1,
30600,1854.9,115.0,172.7,239.9,1856.0,8714.0,4.0,1,
30700,1858.0,111.6,172.8,239.7,1856.0,8714.0,4.0,1,
30800,1858.0,112.1,172.7,239.7,1856.0,8714.0,4.0,1,
30900,1858.4,205.5,172.8,240.0,1856.0,8714.0,4.0,1,
31000,1858.4,203.2,167.3,237.3,927.0,4651.0,2.0,0,
31100,1856.9,195.9,171.2,55.7,1390.0,5736.0,2.0,0,
31200,1872.9,213.8,169.2,56.7,1259.0,5637.0,27.0,0,
31300,1887.0,268.2,168.9,88.0,1071.0,4886.0,2.0,0,
31400,1841.4,223.0,171.3,91.0,1804.0,6680.0,2.0,0,
31600,1870.9,122.5,184.0,132.9,834.0,4958.0,23.0,1,
31700,1854.2,113.2,184.0,152.8,834.0,4958.0,23.0,1,
31800,1849.6,116.7,184.0,155.2,834.0,4958.0,23.0,1,
31900,1855.2,112.4,183.9,210.1,834.0,4958.0,23.0,1,
32000,1858.2,109.0,183.4,240.1,834.0,4958.0,23.0,1,
32100,1858.4,107.6,183.2,240.1,834.0,4958.0,23.0,1,
32200,1857.8,102.1,182.8,240.0,834.0,4958.0,23.0,1,
32300,1857.6,99.2,182.4,240.0,834.0,4958.0,23.0,1,
32400,1857.9,100.2,181.9,240.0,834.0,4958.0,23.0,1,
32600,1854.8,152.3,176.6,239.6,1307.0,6508.0,3.0,1,
32700,1867.9,187.5,175.1,68.6,950.0,4415.0,2.0,0,
32800,1869.2,230.8,173.3,66.8,1417.0,5730.0,28.0,0,
32900,1844.5,171.7,171.1,93.0,1473.0,5632.0,2.0,0,
33000,1869.9,215.5,171.4,88.4,989.0,4903.0,2.0,0,
33100,1863.0,135.6,167.2,87.7,1855.0,7856.0,5.0,1,
33200,1862.6,107.6,159.2,91.6,1441.0,5552.0,2.0,0,
33300,1856.8,104.9,158.6,84.0,1441.0,5552.0,2.0,0,
33400,1848.5,104.8,158.1,48.0,1441.0,5552.0,2.0,0,
33600,1852.7,106.2,157.5,239.7,1441.0,5552.0,2.0,0,
33700,1856.9,105.5,157.3,240.0,1441.0,5552.0,2.0,0,
33800,1854.9,110.8,157.3,239.9,1441.0,5552.0,2.0,0,
33900,1856.6,108.6,157.5,239.9,1441.0,5552.0,2.0,0,
34000,1856.8,106.6,157.8,239.9,1441.0,5552.0,2.0,0,
34100,1853.4,99.9,158.0,239.8,1441.0,5552.0,2.0,0,
34200,1863.2,111.2,158.6,239.9,954.0,4229.0,2.0,0,
34300,1866.4,164.5,154.0,77.0,1313.0,5325.0,2.0,0,
34400,1852.3,236.7,155.5,55.2,633.0,4864.0,24.0,1,
34600,1864.9,148.4,150.9,91.0,1608.0,5936.0,2.0,0,
34700,1888.0,277.6,154.8,93.4,950.0,5261.0,2.0,0,
34800,1833.9,144.0,161.3,103.7,1825.0,6775.0,2.0,0,
34900,1858.4,125.3,162.4,164.8,1825.0,6775.0,2.0,0,
35000,1848.3,126.6,163.6,99.5,1825.0,6775.0,2.0,0,
35100,1852.1,124.7,164.7,66.9,1825.0,6775.0,2.0,0,
35200,1856.0,124.4,165.5,237.6,1825.0,6775.0,2.0,0,
35300,1857.5,122.2,166.4,240.0,1825.0,6775.0,2.0,0,
35400,1856.2,116.1,167.1,239.8,1825.0,6775.0,2.0,0,
35600,1857.5,112.0,167.9,239.5,1825.0,6775.0,2.0,0,
35700,1858.9,109.5,168.1,239.3,1825.0,6775.0,2.0,0,
35800,1874.8,135.7,168.5,239.5,1194.0,7100.0,7.0,1,
35900,1834.5,212.3,175.5,123.1,803.0,4092.0,25.0,0,
36000,1869.6,180.7,180.1,47.9,1568.0,5671.0,2.0,0,
36100,1870.8,183.3,177.0,38.6,847.0,5217.0,2.0,0,
36200,1876.2,138.6,180.8,71.0,1692.0,6247.0,28.0,0,
36300,1841.5,103.9,177.4,92.4,1831.0,7503.0,2.0,0,
36400,1865.2,121.5,168.0,94.2,1628.0,6642.0,5.0,1,
36600,1850.2,124.3,167.8,75.0,1628.0,6642.0,5.0,1,
36700,1852.3,127.7,167.7,57.4,1628.0,6642.0,5.0,1,
36800,1853.8,117.9,167.8,239.2,1628.0,6642.0,5.0,1,
36900,1855.0,117.1,167.5,239.9,1628.0,6642.0,5.0,1,
37000,1856.9,112.7,167.4,239.8,1628.0,6642.0,5.0,1,
37100,1856.3,111.8,167.3,239.8,1628.0,6642.0,5.0,1,
37200,1857.9,111.3,167.2,239.7,1628.0,6642.0,5.0,1,
37300,1858.4,116.5,167.4,239.8,1628.0,6642.0,5.0,1,
37400,1872.5,140.4,167.9,239.8,1628.0,6642.0,5.0,1,
37600,1864.9,163.2,156.0,77.4,1284.0,5943.0,4.0,1,
37700,1902.2,133.2,152.6,47.8,1953.0,8950.0,4.0,1,
37800,1839.4,262.8,149.2,29.5,1863.0,6891.0,2.0,0,
37900,1861.6,215.4,158.7,29.1,1441.0,5641.0,2.0,0,
38000,1868.2,213.9,167.8,68.9,1776.0,6694.0,2.0,0,
38100,1860.7,130.8,172.9,130.1,1776.0,6694.0,2.0,0,
38200,1851.8,127.7,173.1,145.9,1776.0,6694.0,2.0,0,
38300,1847.8,127.8,173.2,89.9,1776.0,6694.0,2.0,0,
38400,1854.2,130.3,173.2,89.2,1776.0,6694.0,2.0,0,
38600,1856.8,124.5,173.9,239.9,1776.0,6694.0,2.0,0,
38700,1854.6,127.5,174.6,240.2,1776.0,6694.0,2.0,0,
38800,1856.7,127.4,175.1,240.3,1776.0,6694.0,2.0,0,
38900,1856.5,129.8,175.5,240.2,1776.0,6694.0,2.0,0,
39000,1856.8,136.7,175.9,240.1,1776.0,6694.0,2.0,0,
39100,1864.8,128.8,175.6,239.7,1059.0,5536.0,7.0,1,
39200,1873.4,140.9,176.6,55.9,1734.0,8850.0,5.0,1,
39300,1841.2,171.2,173.8,29.8,1526.0,6409.0,5.0,1,
39400,1874.9,149.0,172.3,40.2,1936.0,9057.0,4.0,1,
39600,1869.4,148.7,149.8,28.5,1338.0,6666.0,5.0,1,
39700,1859.5,129.1,144.1,27.9,1712.0,8081.0,5.0,1,
39800,1860.9,134.4,144.2,28.3,1712.0,8081.0,5.0,1,
39900,1848.3,129.1,144.5,42.5,1712.0,8081.0,5.0,1,
40000,1849.7,127.6,144.4,116.6,1712.0,8081.0,5.0,1,
40100,1855.7,128.7,144.5,240.1,1712.0,8081.0,5.0,1,
40200,1853.7,129.9,144.7,240.2,1712.0,8081.0,5.0,1,
40300,1856.5,130.9,144.7,240.1,1712.0,8081.0,5.0,1,
40400,1854.9,133.1,145.1,240.2,1712.0,8081.0,5.0,1,
40600,1857.5,131.6,145.4,240.0,1712.0,8081.0,5.0,1,
40700,1876.6,208.5,143.1,240.0,1638.0,9701.0,6.0,1,
40800,1839.3,130.9,145.6,123.9,1092.0,6049.0,5.0,1,
40900,1862.3,209.2,146.6,30.1,1976.0,9105.0,4.0,1,
41000,1875.0,120.9,149.3,28.8,1499.0,6444.0,5.0,1,
41100,1885.5,172.0,148.6,29.7,1807.0,7909.0,5.0,1,
41200,1836.3,140.8,150.5,29.4,1910.0,8336.0,4.0,1,
41300,1869.8,122.8,149.5,28.3,1489.0,6616.0,4.0,1,
41400,1858.9,130.3,149.5,28.1,1489.0,6616.0,4.0,1,
41600,1847.7,133.7,149.8,37.7,1489.0,6616.0,4.0,1,
41700,1854.0,134.1,149.9,239.6,1489.0,6616.0,4.0,1,
41800,1854.6,131.9,150.0,240.1,1489.0,6616.0,4.0,1,
41900,1853.2,133.3,150.1,240.3,1489.0,6616.0,4.0,1,
42000,1857.8,131.0,150.2,240.3,1489.0,6616.0,4.0,1,
42100,1857.5,130.3,150.0,240.1,1489.0,6616.0,4.0,1,
42200,1856.6,132.8,150.2,240.0,1489.0,6616.0,4.0,1,
42300,1845.4,138.9,150.4,240.1,1064.0,5869.0,6.0,1,
42400,1866.4,148.7,147.0,185.1,1853.0,8606.0,5.0,1,
42600,1886.4,237.3,147.0,29.7,1999.0,9444.0,5.0,1,
42700,1844.8,239.5,177.6,28.7,1716.0,7330.0,3.0,1,
42800,1870.7,212.8,181.0,29.0,1506.0,6868.0,5.0,1,
42900,1854.3,129.4,185.3,28.6,2073.0,9418.0,5.0,1,
43000,1865.7,127.5,185.6,28.3,2073.0,9418.0,5.0,1,
43100,1855.6,128.3,185.3,28.3,2073.0,9418.0,5.0,1,
43200,1843.2,132.9,185.2,29.0,2073.0,9418.0,5.0,1,
43300,1849.5,132.5,185.3,238.8,2073.0,9418.0,5.0,1,
43400,1850.2,126.7,185.6,240.5,2073.0,9418.0,5.0,1,
43600,1857.4,131.5,185.3,240.1,2073.0,9418.0,5.0,1,
43700,1853.9,132.0,185.5,240.2,2073.0,9418.0,5.0,1,
43800,1859.1,133.2,185.5,240.3,2073.0,9418.0,5.0,1,
43900,1853.9,116.5,185.7,240.2,1694.0,8963.0,6.0,1,
44000,1850.0,130.4,184.8,239.3,1238.0,6004.0,5.0,1,
44100,1901.5,148.9,185.2,104.9,1884.0,9395.0,5.0,1,
44200,1835.4,163.6,182.0,86.2,1373.0,6206.0,4.0,1,
44300,1873.2,181.9,181.1,29.5,1850.0,8409.0,4.0,1,
44400,1869.2,128.2,153.3,28.2,1705.0,7435.0,4.0,1,
44600,1863.9,127.9,149.0,28.9,1705.0,7435.0,4.0,1,
44700,1857.4,128.9,149.2,29.3,1705.0,7435.0,4.0,1,
44800,1842.5,131.5,149.5,48.7,1705.0,7435.0,4.0,1,
44900,1850.2,128.3,149.5,178.2,1705.0,7435.0,4.0,1,
45000,1853.2,127.7,149.5,240.1,1705.0,7435.0,4.0,1,
45100,1855.1,131.6,149.3,240.0,1705.0,7435.0,4.0,1,
45200,1852.9,131.0,149.6,239.9,1705.0,7435.0,4.0,1,
45300,1860.5,132.8,149.7,240.1,1705.0,7435.0,4.0,1,
45400,1858.3,133.0,150.0,240.2,1705.0,7435.0,4.0,1,
45600,1871.2,204.3,153.5,238.6,1827.0,8332.0,3.0,1,
45700,1840.8,233.9,163.8,56.8,845.0,5004.0,22.0,1,
45800,1872.5,204.8,172.4,94.0,2026.0,8486.0,2.0,0,
45900,1865.5,206.8,176.6,195.0,2241.0,7015.0,28.0,0,
46000,1876.5,238.2,193.2,134.4,1897.0,7818.0,2.0,0,
46100,1865.9,132.6,195.5,91.0,1877.0,8590.0,4.0,1,
46200,1858.1,131.2,195.7,92.4,1685.0,7031.0,5.0,1,
46300,1858.0,129.8,195.9,89.6,1685.0,7031.0,5.0,1,
46400,1843.7,133.0,195.9,68.7,1685.0,7031.0,5.0,1,
46600,1853.5,131.2,196.4,240.2,1685.0,7031.0,5.0,1,
46700,1858.9,133.7,196.5,240.3,1685.0,7031.0,5.0,1,
46800,1855.0,133.3,196.6,240.4,1685.0,7031.0,5.0,1,
46900,1854.7,136.0,196.8,240.2,1685.0,7031.0,5.0,1,
47000,1857.9,130.8,196.9,239.9,1685.0,7031.0,5.0,1,
47100,1854.7,134.3,197.0,240.0,1685.0,7031.0,5.0,1,
47200,1845.3,389.2,200.8,239.7,1679.0,6743.0,25.0,0,
47300,1860.5,177.6,212.5,94.6,1981.0,8633.0,3.0,1,
47400,1883.4,272.1,212.1,71.4,1461.0,6152.0,2.0,0,
47600,1827.0,174.3,210.3,158.4,1528.0,6271.0,2.0,0,
47700,1871.3,238.5,216.2,157.8,1626.0,6602.0,2.0,0,
47800,1865.9,135.3,220.4,105.3,2169.0,9681.0,4.0,1,
47900,1859.8,130.1,220.4,94.5,2169.0,9681.0,4.0,1,
48000,1846.7,130.4,220.5,93.6,2169.0,9681.0,4.0,1,
48100,1843.9,132.9,220.3,93.3,2169.0,9681.0,4.0,1,
48200,1852.8,129.4,220.1,239.8,2169.0,9681.0,4.0,1,
48300,1853.1,128.1,220.2,240.1,2169.0,9681.0,4.0,1,
48400,1854.5,131.7,220.0,240.1,2169.0,9681.0,4.0,1,
48600,1855.1,134.5,220.1,240.2,2169.0,9681.0,4.0,1,
48700,1856.3,134.0,220.1,240.1,2169.0,9681.0,4.0,1,
48800,1857.5,185.8,220.4,240.0,1629.0,8466.0,6.0,1,
48900,1854.6,340.3,203.4,177.3,1887.0,6186.0,26.0,0,
49000,1898.5,221.9,211.9,90.6,1956.0,8132.0,3.0,1,
49100,1845.6,168.4,208.3,89.0,1266.0,6071.0,4.0,1,
49200,1862.6,138.4,200.2,39.4,1910.0,8880.0,3.0,1,
49300,1868.3,123.5,184.7,36.5,1716.0,7016.0,5.0,1,
49400,1872.8,128.2,177.4,35.1,1387.0,6437.0,5.0,1,
49600,1856.3,132.2,177.3,29.4,1387.0,6437.0,5.0,1,
49700,1841.9,132.1,177.4,73.5,1387.0,6437.0,5.0,1,
49800,1851.3,132.2,177.7,239.6,1387.0,6437.0,5.0,1,
49900,1851.8,130.6,177.8,240.3,1387.0,6437.0,5.0,1,
50000,1853.8,130.9,178.1,240.2,1387.0,6437.0,5.0,1,
50100,1854.0,129.0,178.1,240.0,1387.0,6437.0,5.0,1,
50200,1853.0,134.2,178.0,240.1,1387.0,6437.0,5.0,1,
50300,1853.6,132.7,178.4,240.0,1387.0,6437.0,5.0,1,
50400,1846.4,142.1,178.5,239.9,996.0,7061.0,3.0,1,
50600,1826.2,226.8,170.6,87.8,1240.0,5871.0,27.0,0,
50700,1878.3,132.8,169.6,88.1,1958.0,8970.0,2.0,0,
50800,1878.8,137.0,168.0,92.9,1308.0,5941.0,4.0,1,
50900,1855.0,131.6,168.4,93.7,2022.0,9756.0,5.0,1,
51000,1878.9,132.2,169.9,45.0,1686.0,8242.0,4.0,1,
51100,1844.5,132.6,170.2,28.9,1686.0,8242.0,4.0,1,
51200,1855.4,130.1,170.4,28.5,1686.0,8242.0,4.0,1,
51300,1841.6,132.4,170.5,29.5,1686.0,8242.0,4.0,1,
51400,1848.4,136.1,170.8,177.4,1686.0,8242.0,4.0,1,
51600,1852.9,133.9,171.3,240.0,1686.0,8242.0,4.0,1,
51700,1855.8,136.9,171.6,240.1,1686.0,8242.0,4.0,1,
51800,1855.9,137.1,171.9,240.2,1686.0,8242.0,4.0,1,
51900,1856.7,132.4,172.0,240.2,1686.0,8242.0,4.0,1,
52000,1855.2,138.9,172.2,240.1,1686.0,8242.0,4.0,1,
52100,1853.8,212.4,170.5,239.3,969.0,6027.0,7.0,1,
52200,1860.3,251.2,165.8,53.8,1713.0,8532.0,2.0,0,
52300,1873.3,237.0,168.1,29.8,1171.0,5981.0,27.0,0,
52400,1880.5,154.5,174.4,30.1,2038.0,8642.0,2.0,0,
52600,1846.8,171.4,177.9,93.1,1720.0,7787.0,5.0,1,
52700,1871.9,126.7,178.1,44.4,2101.0,9545.0,5.0,1,
52800,1859.6,120.4,177.7,29.9,2101.0,9545.0,5.0,1,
52900,1840.2,124.7,177.2,35.7,2101.0,9545.0,5.0,1,
53000,1848.0,120.6,176.6,118.0,2101.0,9545.0,5.0,1,
53100,1855.6,124.0,176.0,240.1,2101.0,9545.0,5.0,1,
53200,1857.5,123.5,175.3,240.2,2101.0,9545.0,5.0,1,
53300,1854.8,123.9,174.7,240.0,2101.0,9545.0,5.0,1,
53400,1858.4,123.8,174.1,239.9,2101.0,9545.0,5.0,1,
53600,1859.2,124.2,173.1,240.2,2101.0,9545.0,5.0,1,
53700,1862.5,239.0,175.2,239.7,1586.0,8307.0,3.0,1,
53800,1872.7,269.9,181.1,91.0,1043.0,5430.0,2.0,0,
53900,1874.1,280.3,180.0,81.0,1795.0,8314.0,2.0,0,
54000,1849.7,289.7,186.9,91.9,846.0,4809.0,2.0,0,
54100,1868.5,145.7,191.3,123.0,1921.0,7622.0,2.0,0,
54200,1858.8,132.6,191.8,102.1,1583.0,6980.0,5.0,1,
54300,1870.5,127.2,190.8,93.8,1465.0,6247.0,4.0,1,
54400,1858.4,127.4,191.1,90.9,1465.0,6247.0,4.0,1,
54600,1845.5,128.8,191.7,70.7,1465.0,6247.0,4.0,1,
54700,1853.4,135.3,192.2,240.1,1465.0,6247.0,4.0,1,
54800,1854.2,135.1,193.0,240.4,1465.0,6247.0,4.0,1,
54900,1856.6,134.7,193.4,240.4,1465.0,6247.0,4.0,1,
55000,1855.1,133.0,194.1,240.1,1465.0,6247.0,4.0,1,
55100,1854.8,132.4,194.6,239.9,1465.0,6247.0,4.0,1,
55200,1858.0,133.4,195.0,239.8,1465.0,6247.0,4.0,1,
55300,1842.5,354.0,197.2,239.8,1163.0,6012.0,25.0,0,
55400,1892.3,183.7,209.2,72.2,1604.0,7540.0,2.0,0,
55600,1867.8,210.8,207.0,37.2,1940.0,9456.0,4.0,1,
55700,1878.3,197.9,219.1,92.2,1268.0,5615.0,4.0,1,
55800,1857.9,168.1,216.5,51.9,1969.0,9232.0,5.0,1,
55900,1869.2,148.7,218.8,29.1,1946.0,9287.0,5.0,1,
56000,1864.3,135.9,219.1,28.2,1946.0,9287.0,5.0,1,
56100,1853.8,134.9,219.3,27.7,1946.0,9287.0,5.0,1,
56200,1842.1,139.8,219.9,28.6,1946.0,9287.0,5.0,1,
56300,1847.5,140.0,220.4,238.2,1946.0,9287.0,5.0,1,
56400,1854.1,140.8,220.7,239.7,1946.0,9287.0,5.0,1,
56600,1853.9,135.4,221.2,240.3,1946.0,9287.0,5.0,1,
56700,1856.3,136.1,221.3,240.1,1946.0,9287.0,5.0,1,
56800,1853.9,137.0,221.5,240.1,1946.0,9287.0,5.0,1,
56900,1882.4,100.7,220.5,240.2,1500.0,8539.0,6.0,1,
57000,1826.3,178.4,198.7,237.8,1082.0,5880.0,2.0,0,
57100,1866.4,181.1,195.8,92.3,1695.0,7899.0,2.0,0,
57200,1866.8,248.4,188.4,89.1,1269.0,6010.0,27.0,0,
57300,1872.0,215.1,186.8,90.6,1976.0,9402.0,4.0,1,
57400,1886.9,219.6,185.2,92.7,1120.0,6445.0,2.0,0,
57600,1873.0,140.5,188.9,92.1,1120.0,6445.0,2.0,0,
57700,1859.3,140.7,189.2,155.9,1120.0,6445.0,2.0,0,
57800,1842.1,143.2,189.3,226.7,1120.0,6445.0,2.0,0,
57900,1848.8,139.5,189.4,240.3,1120.0,6445.0,2.0,0,
58000,1852.4,146.1,189.4,240.3,1120.0,6445.0,2.0,0,
58100,1851.3,147.4,189.7,240.2,1120.0,6445.0,2.0,0,
58200,1851.6,145.2,190.1,240.1,1120.0,6445.0,2.0,0,
58300,1853.5,146.7,190.6,240.0,1120.0,6445.0,2.0,0,
58400,1854.8,150.8,191.2,240.2,1120.0,6445.0,2.0,0,
58600,1844.9,222.1,192.0,239.4,1664.0,8510.0,3.0,1,
58700,1867.3,273.0,241.1,75.4,1202.0,5787.0,2.0,0,
58800,1890.5,186.3,243.6,28.8,1935.0,8128.0,2.0,0,
58900,1859.2,322.9,241.6,29.3,2282.0,6654.0,27.0,0,
59000,1857.6,159.1,245.1,38.9,1983.0,8783.0,2.0,0,
59100,1871.7,149.2,243.3,114.2,1483.0,7137.0,5.0,1,
59200,1865.3,145.6,240.6,94.6,1483.0,7137.0,5.0,1,
59300,1862.7,144.0,240.7,91.2,1483.0,7137.0,5.0,1,
59400,1849.7,144.3,240.7,54.6,1483.0,7137.0,5.0,1,
59600,1845.5,146.4,241.1,240.2,1483.0,7137.0,5.0,1,
59700,1854.7,143.5,240.9,240.1,1483.0,7137.0,5.0,1,
59800,1855.5,142.5,240.6,239.9,1483.0,7137.0,5.0,1,
59900,1852.6,146.3,240.4,240.2,1483.0,7137.0,5.0,1,
60000,1856.1,147.4,240.2,240.3,1483.0,7137.0,5.0,1,
60100,1856.9,141.2,239.9,240.1,1483.0,7137.0,5.0,1,
60200,1858.6,426.5,246.8,238.1,1636.0,7979.0,18.0,1,
60300,1878.5,317.0,223.8,67.2,1648.0,8414.0,26.0,0,
60400,1850.7,311.0,231.6,65.6,1320.0,6716.0,26.0,0,
60600,1864.2,278.1,253.8,131.3,2007.0,7300.0,21.0,1,
60700,1867.7,402.5,265.2,131.6,2067.0,9221.0,27.0,0,
60800,1873.2,156.6,275.6,125.8,1257.0,6296.0,10.0,1,
60900,1862.2,142.9,275.5,130.7,1257.0,6296.0,10.0,1,
61000,1848.0,141.7,275.3,91.7,1257.0,6296.0,10.0,1,
61100,1842.3,142.2,275.1,87.0,1257.0,6296.0,10.0,1,
61200,1847.7,140.0,274.8,229.4,1257.0,6296.0,10.0,1,
61300,1855.2,138.0,274.6,240.2,1257.0,6296.0,10.0,1,
61400,1858.2,136.9,274.4,240.1,1257.0,6296.0,10.0,1,
61600,1856.9,133.5,273.6,240.2,1257.0,6296.0,10.0,1,
61700,1857.5,132.3,273.1,240.1,1257.0,6296.0,10.0,1,
61800,1883.2,128.2,271.0,240.0,1627.0,8872.0,6.0,1,
61900,1824.5,190.6,257.5,117.6,1427.0,6502.0,27.0,0,
62000,1862.7,148.5,247.0,89.3,1923.0,8119.0,3.0,1,
62100,1875.4,148.6,234.6,87.7,1288.0,6292.0,5.0,1,
62200,1855.6,120.8,208.2,43.2,2184.0,9520.0,5.0,1,
62300,1886.0,153.0,187.6,29.7,1611.0,7051.0,4.0,1,
62400,1852.5,124.6,168.6,29.0,1467.0,6462.0,5.0,1,
62600,1853.5,122.5,166.1,28.7,1467.0,6462.0,5.0,1,
62700,1843.4,126.9,164.9,41.0,1467.0,6462.0,5.0,1,
62800,1847.5,126.2,164.0,239.6,1467.0,6462.0,5.0,1,
62900,1853.8,125.5,163.1,240.2,1467.0,6462.0,5.0,1,
63000,1854.5,127.5,162.5,240.2,1467.0,6462.0,5.0,1,
63100,1855.2,130.2,162.0,240.2,1467.0,6462.0,5.0,1,
63200,1856.0,128.1,161.7,240.3,1467.0,6462.0,5.0,1,
63300,1853.8,130.9,161.6,240.3,1467.0,6462.0,5.0,1,
63400,1852.9,147.6,159.9,240.2,1172.0,7637.0,4.0,1,
63600,1856.5,193.1,165.8,76.2,1335.0,6136.0,2.0,0,
63700,1871.8,174.7,169.0,92.1,2029.0,7345.0,2.0,0,
63800,1888.6,243.5,177.5,93.0,1394.0,5486.0,2.0,0,
63900,1842.1,200.8,187.9,91.2,2000.0,8356.0,2.0,0,
64000,1860.7,193.6,203.1,88.1,1789.0,8292.0,4.0,1,
64100,1868.9,129.4,203.2,80.5,1789.0,8292.0,4.0,1,
64200,1858.2,125.3,203.2,29.9,1789.0,8292.0,4.0,1,
64300,1844.3,129.3,203.4,28.9,1789.0,8292.0,4.0,1,
64400,1846.6,132.0,203.5,35.9,1789.0,8292.0,4.0,1,
64600,1858.2,129.5,203.9,240.4,1789.0,8292.0,4.0,1,
64700,1856.0,133.5,203.9,240.2,1789.0,8292.0,4.0,1,
64800,1855.9,129.0,204.2,240.1,1789.0,8292.0,4.0,1,
64900,1858.2,132.8,204.2,240.2,1789.0,8292.0,4.0,1,
65000,1859.5,136.4,204.3,240.2,1253.0,7992.0,6.0,1,
65100,1858.0,175.4,204.0,239.3,1325.0,7571.0,5.0,1,
65200,1873.0,191.0,197.2,30.0,1803.0,8547.0,5.0,1,
65300,1861.6,167.9,194.4,28.1,1292.0,6169.0,4.0,1,
65400,1856.5,169.1,189.7,28.8,1925.0,9804.0,5.0,1,
65600,1858.1,151.5,176.2,28.9,1968.0,9076.0,5.0,1,
65700,1873.4,134.6,162.3,43.4,1968.0,9076.0,5.0,1,
65800,1860.4,128.8,162.7,89.7,1968.0,9076.0,5.0,1,
65900,1849.2,135.8,162.9,88.6,1968.0,9076.0,5.0,1,
66000,1848.0,133.6,163.1,140.5,1968.0,9076.0,5.0,1,
66100,1854.5,135.1,163.3,240.4,1968.0,9076.0,5.0,1,
66200,1854.7,136.7,163.6,240.5,1968.0,9076.0,5.0,1,
66300,1853.7,139.8,164.0,240.3,1968.0,9076.0,5.0,1,
66400,1855.2,135.3,164.3,240.2,1968.0,9076.0,5.0,1,
66600,1856.2,153.9,164.8,240.3,1968.0,9076.0,5.0,1,
66700,1866.6,187.9,164.4,239.9,1702.0,8986.0,6.0,1,
66800,1846.4,168.8,161.4,90.6,1169.0,6304.0,5.0,1,
66900,1862.0,164.5,160.8,44.8,2033.0,9442.0,5.0,1,
67000,1865.2,162.5,163.7,29.0,1369.0,6078.0,5.0,1,
67100,1864.6,172.4,160.4,28.9,2004.0,9930.0,5.0,1,
67200,1900.3,114.7,160.9,28.6,1554.0,7395.0,4.0,1,
67300,1843.7,140.0,160.1,27.8,1405.0,6281.0,4.0,1,
67400,1862.7,140.5,160.7,27.7,1405.0,6281.0,4.0,1,
67600,1843.4,147.5,162.6,149.2,1405.0,6281.0,4.0,1,
67700,1851.8,154.0,163.4,240.5,1405.0,6281.0,4.0,1,
67800,1852.8,155.5,164.9,240.5,1405.0,6281.0,4.0,1,
67900,1858.6,159.5,166.4,240.5,1405.0,6281.0,4.0,1,
68000,1857.3,166.3,167.8,240.0,1405.0,6281.0,4.0,1,
68100,1854.3,169.0,169.9,240.0,1405.0,6281.0,4.0,1,
68200,1858.4,176.4,172.4,240.3,1405.0,6281.0,4.0,1,
68300,1859.3,470.9,183.0,239.7,1549.0,7160.0,25.0,0,
68400,1839.6,194.2,204.1,85.3,1876.0,9261.0,3.0,1,
68600,1865.4,407.2,222.7,35.5,2211.0,9995.0,2.0,0,
68700,1890.1,216.0,244.3,93.9,1175.0,6402.0,3.0,1,
68800,1844.1,189.4,246.5,29.7,2167.0,10803.0,4.0,1,
68900,1874.7,193.2,248.4,28.7,2245.0,10999.0,4.0,1,
69000,1866.2,199.3,251.1,28.7,2245.0,10999.0,4.0,1,
69100,1855.3,200.7,253.8,29.4,2245.0,10999.0,4.0,1,
69200,1846.0,201.9,256.3,91.0,2245.0,10999.0,4.0,1,
69300,1849.1,201.0,258.9,240.3,2245.0,10999.0,4.0,1,
69400,1848.7,203.2,261.3,240.6,2245.0,10999.0,4.0,1,
69600,1856.3,208.0,265.7,240.4,2245.0,10999.0,4.0,1,
69700,1858.2,205.3,267.7,240.7,2245.0,10999.0,4.0,1,
69800,1861.7,205.9,269.1,240.7,2245.0,10999.0,4.0,1,
69900,1858.2,211.9,271.0,240.4,1860.0,10708.0,7.0,1,
70000,1847.3,348.9,254.2,177.5,1487.0,7999.0,2.0,0,
70100,1870.1,254.7,259.8,29.6,2066.0,10031.0,4.0,1,
70200,1892.3,198.6,257.3,29.2,1115.0,6358.0,4.0,1,
70300,1841.6,186.6,236.6,29.0,2209.0,11807.0,5.0,1,
70400,1866.5,204.5,235.7,29.0,1606.0,7825.0,5.0,1,
70600,1871.1,204.5,235.7,29.6,1606.0,7825.0,5.0,1,
70700,1860.7,203.6,236.1,29.4,1606.0,7825.0,5.0,1,
70800,1850.3,209.4,236.3,57.3,1606.0,7825.0,5.0,1,
70900,1847.6,213.3,236.6,239.3,1606.0,7825.0,5.0,1,
71000,1853.2,212.8,237.0,240.5,1606.0,7825.0,5.0,1,
71100,1851.4,212.1,237.3,240.5,1606.0,7825.0,5.0,1,
71200,1855.0,208.9,237.6,240.5,1606.0,7825.0,5.0,1,
71300,1857.2,211.4,237.8,240.5,1606.0,7825.0,5.0,1,
71400,1856.5,210.9,238.2,240.4,1606.0,7825.0,5.0,1,
71600,1859.4,287.1,243.4,220.9,1825.0,9318.0,2.0,0,
71700,1869.6,260.7,239.4,56.3,2056.0,7774.0,27.0,0,
71800,1853.3,307.1,236.6,57.5,2067.0,10339.0,3.0,1,
71900,1876.1,225.7,242.0,92.8,1129.0,6800.0,4.0,1,
72000,1858.0,178.9,243.2,69.9,2204.0,12036.0,5.0,1,
72100,1882.6,206.8,243.5,29.6,1660.0,8128.0,5.0,1,
72200,1853.4,213.1,244.5,29.7,1660.0,8128.0,5.0,1,
72300,1860.8,205.1,245.5,29.5,620.0,5291.0,5.0,1,
72400,1851.1,206.1,246.0,39.7,716.0,5381.0,22.0,1,
72600,1848.0,262.4,246.8,36.1,715.0,5365.0,22.0,1,
72700,1851.2,218.7,249.3,34.8,720.0,5460.0,5.0,1,
72800,1856.8,231.7,249.7,34.6,644.0,5645.0,5.0,1,
72900,1857.5,214.0,250.4,34.2,669.0,5345.0,22.0,1,
73000,1856.7,209.4,250.2,38.5,665.0,5543.0,20.0,1,
73100,1859.5,259.9,250.0,39.1,1400.0,6691.0,27.0,0,
73200,1872.4,509.4,256.4,41.1,1103.0,6801.0,28.0,0,
73300,1854.5,484.9,263.5,51.0,1953.0,9548.0,2.0,0,
73400,1861.3,222.2,280.7,36.4,1330.0,6924.0,5.0,1,
73600,1896.5,172.1,274.7,29.0,1140.0,6643.0,5.0,1,
73700,1834.3,169.7,275.7,28.1,1949.0,9490.0,5.0,1,
73800,1876.8,159.6,273.6,28.0,2215.0,10842.0,5.0,1,
73900,1863.1,147.2,270.8,28.5,2215.0,10842.0,5.0,1,
74000,1851.1,143.7,268.1,29.3,2215.0,10842.0,5.0,1,
74100,1847.7,136.0,264.6,93.0,2215.0,10842.0,5.0,1,
74200,1851.2,137.0,261.3,240.8,2215.0,10842.0,5.0,1,
74300,1852.2,136.2,255.5,240.9,2215.0,10842.0,5.0,1,
74400,1857.8,139.3,251.7,240.7,2215.0,10842.0,5.0,1,
74600,1855.7,139.6,242.9,240.8,2215.0,10842.0,5.0,1,
74700,1857.8,137.8,239.1,240.6,2215.0,10842.0,5.0,1,
74800,1841.5,157.2,230.7,240.3,1740.0,9738.0,6.0,1,
74900,1870.3,176.3,207.2,57.2,1302.0,6500.0,5.0,1,
75000,1860.7,406.9,176.5,29.6,1876.0,8180.0,2.0,0,
75100,1887.0,187.1,211.1,29.0,1349.0,5825.0,4.0,1,
75200,1837.8,145.9,213.6,28.6,1840.0,9407.0,5.0,1,
75300,1864.7,144.5,213.1,28.4,1525.0,7668.0,4.0,1,
75400,1859.8,142.9,211.0,28.2,1312.0,5976.0,5.0,1,
75600,1855.1,157.4,210.6,54.0,1312.0,5976.0,5.0,1,
75700,1845.9,165.0,211.8,91.5,1312.0,5976.0,5.0,1,
75800,1850.7,172.7,213.4,240.2,1312.0,5976.0,5.0,1,
75900,1856.2,177.1,215.3,240.4,1312.0,5976.0,5.0,1,
76000,1855.9,173.1,217.4,240.5,1312.0,5976.0,5.0,1,
76100,1856.7,184.5,219.4,240.6,1312.0,5976.0,5.0,1,
76200,1859.4,192.6,222.1,240.8,1312.0,5976.0,5.0,1,
76300,1856.2,198.9,225.0,240.9,1312.0,5976.0,5.0,1,
76400,1850.4,176.0,225.9,240.6,1662.0,9353.0,4.0,1,
76600,1891.7,261.2,229.3,54.4,1135.0,7068.0,5.0,1,easy
76700,1847.7,195.3,193.9,28.3,2271.0,12794.0,5.0,1,
76800,1865.1,272.4,194.4,28.5,1336.0,7257.0,5.0,1,
76900,1874.2,254.4,203.4,28.9,2242.0,12470.0,4.0,1,
77000,1874.8,257.1,214.3,28.8,2262.0,11505.0,4.0,1,
77100,1864.9,231.5,219.6,29.3,2262.0,11505.0,4.0,1,
77200,1857.9,232.8,224.6,74.4,2262.0,11505.0,4.0,1,
77300,1847.2,219.8,228.4,90.3,806.0,5759.0,9.0,1,
77400,1848.8,229.0,233.8,86.6,732.0,5715.0,5.0,1,
77600,1853.0,263.2,242.5,29.9,868.0,6741.0,5.0,1,
77700,1852.1,236.0,247.5,29.6,798.0,5938.0,9.0,1,
77800,1856.8,223.6,249.5,29.6,775.0,5672.0,5.0,1,
77900,1855.5,238.8,252.3,29.6,851.0,6016.0,9.0,1,
78000,1862.6,190.7,254.5,30.2,1861.0,10803.0,6.0,1,
78100,1863.5,289.4,258.6,29.8,1151.0,7637.0,5.0,1,
78200,1842.2,243.4,263.3,29.8,2199.0,12311.0,5.0,1,
78300,1880.8,247.0,261.5,29.6,1185.0,6571.0,5.0,1,
78400,1865.0,228.4,266.1,27.9,2237.0,12646.0,5.0,1,
78600,1855.0,235.6,255.8,28.9,1683.0,9308.0,4.0,1,
78700,1863.1,237.4,254.2,28.6,782.0,5989.0,5.0,1,
78800,1860.0,234.8,252.9,28.9,886.0,6012.0,26.0,0,
78900,1853.3,294.8,253.6,38.9,845.0,6427.0,21.0,1,
79000,1846.1,280.3,255.4,37.1,838.0,6246.0,5.0,1,
79100,1847.8,270.1,255.7,29.7,893.0,6241.0,22.0,1,
79200,1848.6,293.6,255.9,29.6,795.0,6075.0,22.0,1,
79300,1850.3,256.8,255.8,29.7,901.0,6862.0,10.0,1,
79400,1853.0,302.2,257.2,29.7,1075.0,7461.0,27.0,0,
79600,1855.5,332.2,263.6,29.9,1414.0,8368.0,27.0,0,
79700,1849.2,244.0,268.7,30.1,2022.0,13917.0,6.0,1,
79800,1857.0,273.6,266.8,88.1,1143.0,7179.0,5.0,1,
79900,1870.5,283.0,273.2,89.3,2176.0,12766.0,5.0,1,
80000,1900.1,244.3,270.1,30.0,972.0,7280.0,5.0,1,
80100,1839.9,234.0,273.6,28.7,2093.0,11708.0,5.0,1,
80200,1862.0,303.8,274.2,28.5,2116.0,10909.0,5.0,1,
80300,1871.1,225.8,275.3,28.3,895.0,6185.0,5.0,1,
80400,1858.2,233.4,275.5,28.2,834.0,6475.0,5.0,1,
80600,1845.8,289.4,278.2,29.9,1383.0,8390.0,10.0,1,
80700,1851.8,282.3,281.1,30.1,1209.0,8235.0,10.0,1,
80800,1853.0,263.7,283.6,30.3,1132.0,7875.0,10.0,1,
80900,1852.9,272.6,285.1,30.3,1165.0,8124.0,10.0,1,
81000,1852.6,276.1,286.4,30.2,1284.0,8484.0,10.0,1,
81100,1857.7,287.6,287.5,30.1,1113.0,7965.0,10.0,1,
81200,1855.2,283.4,286.8,30.2,1186.0,8140.0,10.0,1,
81300,1866.6,331.4,287.4,30.2,1679.0,10545.0,17.0,1,
81400,1858.6,323.5,302.6,38.0,2255.0,13618.0,13.0,1,
81600,1840.0,271.0,306.8,36.5,2320.0,13074.0,5.0,1,
81700,1876.2,205.3,306.4,35.5,1722.0,9748.0,5.0,1,
81800,1855.3,274.9,305.8,29.2,2006.0,11168.0,3.0,1,
81900,1873.2,244.5,309.1,28.2,828.0,6436.0,5.0,1,
82000,1861.9,247.2,309.4,28.3,848.0,6440.0,5.0,1,
82100,1855.6,264.3,309.9,28.8,906.0,6492.0,5.0,1,
82200,1845.8,256.1,308.7,29.4,868.0,6642.0,5.0,1,
82300,1848.6,271.8,307.0,29.6,840.0,6847.0,22.0,1,
82400,1850.5,262.5,306.3,29.7,853.0,7093.0,10.0,1,
82600,1855.5,273.4,305.8,29.8,1027.0,7787.0,10.0,1,
82700,1855.8,286.9,305.3,29.8,1038.0,7978.0,10.0,1,
82800,1854.2,275.2,304.4,29.9,1046.0,7859.0,10.0,1,
82900,1844.2,285.5,300.7,29.9,2177.0,13652.0,6.0,1,
83000,1889.7,315.1,299.5,29.9,1183.0,8023.0,18.0,1,
83100,1830.2,339.8,301.1,29.8,2203.0,14293.0,4.0,1,
83200,1870.8,228.8,296.2,29.7,1051.0,8202.0,6.0,1,
83300,1883.4,260.6,296.2,29.5,2227.0,12986.0,4.0,1,
83400,1861.4,285.4,299.8,28.8,2193.0,11249.0,4.0,1,
83600,1864.3,295.3,301.7,28.3,914.0,6851.0,22.0,1,
83700,1860.7,301.0,302.1,49.2,908.0,6915.0,5.0,1,
83800,1847.0,310.6,302.5,43.3,1058.0,7723.0,10.0,1,
83900,1847.8,309.7,303.8,29.8,1154.0,8143.0,10.0,1,
84000,1854.7,334.0,305.6,29.7,1570.0,9039.0,10.0,1,
84100,1850.8,303.0,309.7,29.9,1650.0,9417.0,10.0,1,
84200,1852.7,314.3,312.9,30.3,1706.0,9884.0,10.0,1,
84300,1854.5,326.5,317.0,89.9,1770.0,10486.0,10.0,1,
84400,1860.2,412.7,330.3,90.5,1625.0,11517.0,16.0,1,
84600,1834.9,491.0,352.0,35.8,2578.0,17119.0,11.0,1,
84700,1876.3,407.4,363.5,65.8,1858.0,10465.0,16.0,1,
84800,1865.8,365.1,374.4,89.5,2272.0,11607.0,2.0,0,
84900,1887.3,313.4,379.4,90.3,1779.0,7647.0,2.0,0,
85000,1866.1,204.2,386.0,91.7,1641.0,7558.0,2.0,0,
85100,1855.0,258.0,386.1,147.7,2297.0,11673.0,4.0,1,
85200,1868.0,224.0,383.9,158.5,2297.0,11673.0,4.0,1,
85300,1858.6,252.5,383.2,142.7,2297.0,11673.0,4.0,1,
85400,1852.0,251.8,382.1,92.0,905.0,6876.0,22.0,1,
85600,1850.6,265.2,378.1,49.4,772.0,6085.0,25.0,0,
85700,1853.6,219.4,372.6,34.6,610.0,5129.0,5.0,1,
85800,1852.4,199.8,367.1,29.7,683.0,5076.0,22.0,1,
85900,1857.2,187.8,359.6,29.6,672.0,4994.0,9.0,1,
86000,1858.5,201.0,345.1,34.9,651.0,4894.0,22.0,1,
86100,1858.7,198.9,335.0,40.1,644.0,4947.0,22.0,1,
86200,1849.7,166.7,315.7,41.4,1130.0,6894.0,5.0,1,
86300,1859.6,161.0,292.6,37.2,2137.0,11753.0,5.0,1,
86400,1902.8,154.3,274.0,29.8,1320.0,7145.0,6.0,1,
86600,1863.5,177.4,236.1,28.3,1920.0,10240.0,5.0,1,
86700,1870.6,192.8,232.0,29.4,1458.0,7752.0,4.0,1,
86800,1860.5,179.4,225.0,28.8,1458.0,7752.0,4.0,1,
86900,1861.5,181.9,221.4,29.0,1458.0,7752.0,4.0,1,
87000,1851.1,187.7,216.1,39.5,1458.0,7752.0,4.0,1,
87100,1838.0,190.3,212.6,177.5,1458.0,7752.0,4.0,1,
87200,1849.2,195.4,207.1,241.7,1458.0,7752.0,4.0,1,
87300,1857.2,193.6,203.6,241.2,1458.0,7752.0,4.0,1,
87400,1850.5,171.1,201.9,251.6,1458.0,7752.0,4.0,1,
87600,1853.1,153.6,197.5,242.3,1458.0,7752.0,4.0,1,
87700,1850.2,157.2,191.6,280.9,1458.0,7752.0,4.0,1,
87800,1844.3,107.7,190.4,241.0,1639.0,9304.0,6.0,1,
87900,1870.6,108.1,187.7,92.2,1266.0,5863.0,4.0,1,
88000,1836.5,244.3,186.6,88.9,1753.0,7543.0,2.0,0,
88100,1853.4,223.8,193.6,79.7,1311.0,6212.0,2.0,0,
88200,1864.5,218.4,197.4,42.2,1840.0,7150.0,28.0,0,
88300,1875.1,161.8,198.3,82.8,1881.0,8044.0,3.0,1,
88400,1873.7,103.3,195.8,105.3,1788.0,7881.0,4.0,1,
88600,1855.2,98.9,187.0,35.6,1788.0,7881.0,4.0,1,
88700,1849.6,101.7,182.0,36.7,1788.0,7881.0,4.0,1,
88800,1857.5,105.2,176.5,240.3,1788.0,7881.0,4.0,1,
88900,1857.7,99.3,170.7,240.4,1788.0,7881.0,4.0,1,
89000,1860.2,102.5,164.9,240.4,1788.0,7881.0,4.0,1,
89100,1860.3,104.5,160.5,240.3,1788.0,7881.0,4.0,1,
89200,1858.7,103.8,156.9,240.4,1788.0,7881.0,4.0,1,
89300,1859.8,110.9,154.0,240.4,1788.0,7881.0,4.0,1,
89400,1892.4,104.6,149.5,240.5,1255.0,6393.0,6.0,1,
89600,1874.2,78.3,148.4,35.1,1383.0,6337.0,5.0,1,
89700,1868.4,145.0,139.3,29.0,2029.0,9680.0,4.0,1,
89800,1866.8,110.7,130.9,29.0,1895.0,9036.0,5.0,1,
89900,1859.9,195.9,126.2,28.5,1436.0,7156.0,4.0,1,
90000,1860.0,153.0,129.5,28.5,2082.0,10111.0,5.0,1,
90100,1858.0,145.8,132.8,29.4,2082.0,10111.0,5.0,1,
90200,1855.4,145.3,135.8,36.0,2082.0,10111.0,5.0,1,
90300,1845.7,147.8,138.9,43.9,2082.0,10111.0,5.0,1,
90400,1854.9,151.3,142.2,239.7,2082.0,10111.0,5.0,1,
90600,1865.8,144.9,148.1,242.3,2082.0,10111.0,5.0,1,
90700,1857.3,137.4,150.6,242.1,2082.0,10111.0,5.0,1,
90800,1863.0,141.8,152.8,245.9,2082.0,10111.0,5.0,1,
90900,1866.5,140.5,154.7,270.6,2082.0,10111.0,5.0,1,
91000,1852.0,162.0,155.6,279.3,1767.0,10706.0,6.0,1,
91100,1847.2,186.8,162.8,178.6,1299.0,5904.0,6.0,1,
91200,1864.8,168.3,166.0,47.1,2084.0,10334.0,4.0,1,
91300,1892.5,95.7,168.6,29.2,1662.0,8128.0,5.0,1,
91400,1851.5,188.2,167.4,29.1,1568.0,7615.0,5.0,1,
91600,1865.4,133.9,168.6,28.6,1229.0,6594.0,4.0,1,
91700,1865.4,147.1,168.9,28.3,1229.0,6594.0,4.0,1,
91800,1857.6,144.6,169.1,28.8,1229.0,6594.0,4.0,1,
91900,1845.0,157.9,169.5,36.8,1229.0,6594.0,4.0,1,
92000,1843.2,152.3,170.0,240.0,1229.0,6594.0,4.0,1,
92100,1852.7,152.7,170.1,279.9,1229.0,6594.0,4.0,1,
92200,1853.6,149.3,170.3,280.1,1229.0,6594.0,4.0,1,
92300,1858.2,149.8,170.5,294.4,1229.0,6594.0,4.0,1,
92400,1855.5,150.5,171.3,242.4,1229.0,6594.0,4.0,1,
92600,1856.5,130.5,172.6,277.5,1087.0,6039.0,6.0,1,
92700,1850.5,153.9,170.4,238.7,1813.0,10656.0,5.0,1,
92800,1891.5,230.8,169.8,56.1,1495.0,7306.0,5.0,1,
92900,1845.7,219.5,172.3,28.3,1660.0,8268.0,5.0,1,
93000,1872.5,144.5,174.8,27.7,1979.0,9685.0,4.0,1,
93100,1868.7,146.7,172.7,29.2,1486.0,6867.0,5.0,1,
93200,1847.6,151.1,169.1,29.9,2023.0,10186.0,4.0,1,
93300,1874.8,140.0,169.3,29.3,2023.0,10186.0,4.0,1,
93400,1858.3,138.0,168.7,28.6,2023.0,10186.0,4.0,1,
93600,1845.0,134.5,166.7,176.9,2023.0,10186.0,4.0,1,
93700,1854.5,133.2,165.7,241.2,2023.0,10186.0,4.0,1,
93800,1857.6,139.0,164.7,274.3,2023.0,10186.0,4.0,1,
93900,1854.3,132.1,164.3,280.0,2023.0,10186.0,4.0,1,
94000,1857.1,132.4,163.1,273.7,2023.0,10186.0,4.0,1,
94100,1857.5,147.9,161.9,262.0,2023.0,10186.0,4.0,1,
94200,1857.2,197.3,161.5,298.2,2023.0,10186.0,4.0,1,
94300,1878.2,144.0,164.6,239.6,1199.0,7059.0,6.0,1,
94400,1831.5,147.4,163.4,94.3,1997.0,9717.0,5.0,1,
94600,1872.0,175.6,160.2,30.0,1776.0,8586.0,5.0,1,
94700,1864.5,185.1,162.9,28.0,2092.0,10299.0,4.0,1,
94800,1897.0,139.7,164.0,28.1,1437.0,6199.0,5.0,1,
94900,1845.8,142.1,163.4,29.2,1427.0,6899.0,5.0,1,
95000,1855.7,141.4,163.6,29.2,1427.0,6899.0,5.0,1,
95100,1855.3,139.6,163.8,29.6,1427.0,6899.0,5.0,1,
95200,1844.7,151.4,164.3,91.8,1427.0,6899.0,5.0,1,
95300,1847.5,151.6,165.2,241.2,1427.0,6899.0,5.0,1,
95400,1850.4,147.1,166.4,240.6,1427.0,6899.0,5.0,1,
95600,1857.8,158.2,168.2,240.9,1427.0,6899.0,5.0,1,
95700,1857.0,160.6,170.1,240.6,1427.0,6899.0,5.0,1,
95800,1863.7,167.9,171.2,240.7,1427.0,6899.0,5.0,1,
95900,1851.8,262.6,169.2,240.4,1845.0,10815.0,6.0,1,
96000,1848.2,733.3,199.8,56.6,2171.0,13049.0,15.0,1,
96100,1872.7,719.3,288.2,28.1,4006.0,26057.0,7.0,1,
96200,1893.8,561.8,339.0,28.0,2019.0,15094.0,27.0,0,
96300,1863.5,526.3,375.3,28.1,2059.0,17231.0,19.0,1,
96400,1874.7,192.0,381.3,28.3,2196.0,11564.0,5.0,1,
96600,1860.9,149.3,383.0,29.1,2196.0,11564.0,5.0,1,
96700,1853.3,151.5,383.2,29.6,2196.0,11564.0,5.0,1,
96800,1843.3,157.1,383.6,37.9,2196.0,11564.0,5.0,1,
96900,1849.6,155.6,383.7,240.2,2196.0,11564.0,5.0,1,
97000,1853.3,156.6,383.9,240.6,2196.0,11564.0,5.0,1,
97100,1857.0,159.1,384.1,240.6,2196.0,11564.0,5.0,1,
97200,1858.6,160.2,384.2,240.9,2196.0,11564.0,5.0,1,
97300,1861.3,173.0,384.5,241.1,2196.0,11564.0,5.0,1,
97400,1859.1,168.2,384.7,241.0,2196.0,11564.0,5.0,1,
97600,1866.1,218.8,375.1,177.5,2019.0,10629.0,5.0,1,
97700,1886.5,105.6,320.5,29.9,1711.0,8686.0,5.0,1,
97800,1859.5,169.7,260.9,28.5,1521.0,7060.0,5.0,1,
97900,1849.6,142.7,205.0,28.3,2036.0,10637.0,4.0,1,
98000,1870.6,134.5,173.5,28.7,1402.0,6738.0,5.0,1,
98100,1864.6,139.2,172.8,28.5,1880.0,9475.0,5.0,1,
98200,1863.7,134.2,171.7,28.5,1880.0,9475.0,5.0,1,
98300,1859.8,144.8,171.1,29.5,1880.0,9475.0,5.0,1,
98400,1857.2,138.9,170.4,57.1,1880.0,9475.0,5.0,1,
98600,1859.2,147.5,168.4,240.7,1880.0,9475.0,5.0,1,
98700,1851.4,150.1,168.3,241.3,1880.0,9475.0,5.0,1,
98800,1854.8,149.3,167.9,242.3,1880.0,9475.0,5.0,1,
98900,1856.1,149.2,167.0,240.8,1880.0,9475.0,5.0,1,
99000,1856.4,149.2,165.5,240.7,1880.0,9475.0,5.0,1,
99100,1857.5,184.8,165.0,240.7,1798.0,10587.0,7.0,1,
99200,1881.6,170.1,166.6,221.5,1566.0,7934.0,6.0,1,
99300,1843.8,204.2,162.4,55.0,1724.0,8319.0,5.0,1,
99400,1874.2,112.3,166.4,29.5,2145.0,9728.0,5.0,1,
99600,1846.1,209.0,166.4,28.3,2142.0,10780.0,5.0,1,
99700,1907.7,113.1,171.8,28.5,1446.0,7119.0,5.0,1,
99800,1841.5,119.4,170.6,28.2,1446.0,7119.0,5.0,1,
99900,1859.5,118.6,169.8,28.3,1446.0,7119.0,5.0,1,
100000,1849.8,125.0,168.5,29.1,1446.0,7119.0,5.0,1,
100100,1858.6,130.5,167.7,178.0,1446.0,7119.0,5.0,1,
100200,1864.8,129.4,166.8,263.8,1446.0,7119.0,5.0,1,
100300,1862.0,127.6,165.5,241.6,1446.0,7119.0,5.0,1,
100400,1865.1,127.3,164.1,241.7,1446.0,7119.0,5.0,1,
100600,1845.2,139.4,161.7,298.2,1446.0,7119.0,5.0,1,
100700,1853.8,120.0,161.2,282.2,1446.0,7119.0,5.0,1,
100800,1841.3,138.0,159.4,239.3,1603.0,8894.0,3.0,1,
100900,1862.4,135.3,159.8,65.7,1937.0,9405.0,5.0,1,
101000,1882.1,170.5,157.4,39.4,1652.0,8302.0,4.0,1,
101100,1865.6,115.9,160.4,30.0,2169.0,9932.0,5.0,1,
101200,1882.3,253.0,157.5,29.2,1458.0,6433.0,5.0,1,
101300,1839.0,132.7,158.5,28.7,2074.0,10732.0,4.0,1,
101400,1870.0,132.2,159.6,28.3,2116.0,11069.0,5.0,1,
101600,1855.3,137.0,160.9,29.2,2116.0,11069.0,5.0,1,
101700,1843.4,146.8,162.0,116.6,2116.0,11069.0,5.0,1,
101800,1850.2,143.5,163.3,241.0,2116.0,11069.0,5.0,1,
101900,1854.8,142.8,164.3,240.6,2116.0,11069.0,5.0,1,
102000,1852.7,140.2,165.2,240.3,2116.0,11069.0,5.0,1,
102100,1856.8,135.7,166.2,240.5,2116.0,11069.0,5.0,1,
102200,1858.3,141.9,166.6,240.4,2116.0,11069.0,5.0,1,
102300,1861.4,140.3,166.4,240.6,2116.0,11069.0,5.0,1,
102400,1850.3,137.9,168.1,240.1,1356.0,7753.0,7.0,1,
102600,1885.0,119.0,164.8,34.6,1933.0,9460.0,5.0,1,
102700,1888.0,147.6,163.0,39.2,1482.0,6859.0,5.0,1,
102800,1844.5,154.7,163.9,40.4,2139.0,11323.0,5.0,1,
102900,1877.3,120.2,158.7,29.4,1402.0,6581.0,4.0,1,
103000,1863.3,139.7,157.5,29.0,1488.0,7380.0,4.0,1,
103100,1862.7,140.7,158.0,43.3,1488.0,7380.0,4.0,1,
103200,1858.4,141.1,158.2,88.8,1488.0,7380.0,4.0,1,
103300,1845.6,141.7,158.5,92.6,1488.0,7380.0,4.0,1,
103400,1847.2,145.6,158.3,240.9,1488.0,7380.0,4.0,1,
103600,1855.0,145.4,158.2,240.8,1488.0,7380.0,4.0,1,
103700,1859.1,144.7,158.4,240.9,1488.0,7380.0,4.0,1,
103800,1859.3,143.9,158.7,240.9,1488.0,7380.0,4.0,1,
103900,1859.1,146.2,158.7,240.6,1488.0,7380.0,4.0,1,
104000,1865.3,194.4,158.5,240.6,1821.0,10407.0,5.0,1,
104100,1869.7,122.1,163.0,69.0,1676.0,8787.0,5.0,1,
104200,1852.2,185.3,158.2,36.0,1497.0,7406.0,5.0,1,
104300,1873.4,129.7,160.0,28.2,2181.0,10989.0,4.0,1,
104400,1873.1,136.2,159.1,28.3,1481.0,6866.0,5.0,1,
104600,1884.3,145.1,166.1,29.0,1995.0,9716.0,4.0,1,
104700,1868.3,143.6,166.3,28.2,1995.0,9716.0,4.0,1,
104800,1858.0,141.7,166.6,29.3,1995.0,9716.0,4.0,1,
104900,1848.4,148.4,166.9,39.3,1995.0,9716.0,4.0,1,
105000,1848.4,148.2,166.9,240.1,1995.0,9716.0,4.0,1,
105100,1853.2,144.4,167.2,241.0,1995.0,9716.0,4.0,1,
105200,1852.8,145.0,167.4,240.9,1995.0,9716.0,4.0,1,
105300,1855.9,148.3,167.8,240.7,1995.0,9716.0,4.0,1,
105400,1858.8,148.0,167.9,240.7,1995.0,9716.0,4.0,1,
105600,1879.2,145.6,167.8,241.0,1358.0,8577.0,7.0,1,
105700,1836.2,220.1,170.6,237.6,1531.0,8805.0,6.0,1,
105800,1849.8,135.2,171.6,68.8,2102.0,10090.0,5.0,1,
105900,1876.0,176.1,175.3,38.7,1551.0,7563.0,5.0,1,
106000,1860.0,121.8,177.5,27.8,2233.0,11143.0,4.0,1,
106100,1907.5,186.4,179.1,28.3,1302.0,6872.0,3.0,1,
106200,1829.4,166.7,176.1,28.9,2132.0,10355.0,4.0,1,
106300,1871.3,152.9,176.6,28.5,2132.0,10355.0,4.0,1,
106400,1858.0,150.3,177.0,29.7,2132.0,10355.0,4.0,1,
106600,1845.2,151.5,177.7,178.6,2132.0,10355.0,4.0,1,
106700,1853.6,156.4,178.1,240.7,2132.0,10355.0,4.0,1,
106800,1855.3,150.5,178.3,240.6,2132.0,10355.0,4.0,1,
106900,1853.2,151.3,178.8,240.6,2132.0,10355.0,4.0,1,
107000,1857.8,153.5,178.8,240.6,2132.0,10355.0,4.0,1,
107100,1860.1,152.7,179.0,240.9,2132.0,10355.0,4.0,1,
107200,1858.6,153.8,179.3,240.9,2132.0,10355.0,4.0,1,
107300,1857.8,162.3,175.8,239.9,1874.0,9978.0,6.0,1,
107400,1857.6,188.2,174.7,106.8,1670.0,8474.0,5.0,1,
107600,1897.7,177.4,176.8,29.6,1385.0,6743.0,4.0,1,
107700,1852.8,161.0,179.0,27.7,2261.0,11309.0,5.0,1,
107800,1859.0,105.4,175.9,36.2,1298.0,6752.0,5.0,1,
107900,1883.3,149.6,174.1,50.7,1298.0,6752.0,5.0,1,
108000,1865.4,150.2,174.0,37.3,1298.0,6752.0,5.0,1,
108100,1855.5,155.6,173.9,42.9,1298.0,6752.0,5.0,1,
108200,1844.1,157.7,174.2,149.6,1298.0,6752.0,5.0,1,
108300,1846.3,156.0,174.6,240.7,1298.0,6752.0,5.0,1,
108400,1851.6,155.0,174.6,240.7,1298.0,6752.0,5.0,1,
108600,1859.9,150.9,174.9,241.0,1298.0,6752.0,5.0,1,
108700,1858.8,157.5,174.9,240.8,1298.0,6752.0,5.0,1,
108800,1858.7,155.1,174.8,240.8,1298.0,6752.0,5.0,1,
108900,1860.5,142.5,174.4,240.2,1736.0,9359.0,5.0,1,
109000,1868.9,139.7,178.5,57.1,1884.0,9545.0,5.0,1,
109100,1875.5,188.0,175.3,45.0,1416.0,7143.0,4.0,1,
109200,1853.4,158.0,172.2,44.8,2166.0,11353.0,4.0,1,
109300,1879.3,139.3,170.6,29.2,1435.0,6645.0,4.0,1,
109400,1859.9,122.2,169.6,28.1,2273.0,11679.0,5.0,1,
109600,1862.0,153.3,170.0,29.8,2273.0,11679.0,5.0,1,
109700,1856.3,157.5,169.9,56.0,2273.0,11679.0,5.0,1,
109800,1847.3,151.7,169.8,94.3,2273.0,11679.0,5.0,1,
109900,1847.4,151.5,169.3,240.4,2273.0,11679.0,5.0,1,
110000,1850.4,156.5,169.2,240.7,2273.0,11679.0,5.0,1,
110100,1856.0,153.5,169.2,240.7,2273.0,11679.0,5.0,1,
110200,1856.4,153.7,169.3,240.3,2273.0,11679.0,5.0,1,
110300,1856.8,158.1,169.2,240.4,2273.0,11679.0,5.0,1,
110400,1861.6,157.3,169.2,240.8,2273.0,11679.0,5.0,1,
110600,1853.2,197.7,169.0,90.3,1417.0,7710.0,5.0,1,
110700,1863.7,270.6,178.7,29.4,2120.0,8855.0,2.0,0,
110800,1867.4,274.6,202.3,29.7,1363.0,6652.0,2.0,0,
110900,1859.7,396.0,214.2,88.3,1998.0,9592.0,3.0,1,
111000,1906.4,206.0,251.7,94.3,1262.0,7098.0,4.0,1,
111100,1834.7,153.5,252.4,41.5,1357.0,6865.0,5.0,1,
111200,1865.5,150.4,252.2,29.7,1357.0,6865.0,5.0,1,
111300,1858.3,153.5,252.2,29.9,1357.0,6865.0,5.0,1,
111400,1847.4,157.2,252.1,57.6,1357.0,6865.0,5.0,1,
111600,1855.8,151.7,252.0,241.0,1357.0,6865.0,5.0,1,
111700,1855.6,151.9,251.8,241.1,1357.0,6865.0,5.0,1,
111800,1857.9,155.0,251.5,240.8,1357.0,6865.0,5.0,1,
111900,1855.8,155.1,251.7,240.6,1357.0,6865.0,5.0,1,
112000,1856.8,155.5,251.7,241.0,1357.0,6865.0,5.0,1,
112100,1867.6,110.1,251.2,240.7,1446.0,8388.0,4.0,1,
112200,1849.8,152.9,247.5,184.9,1891.0,10298.0,5.0,1,
112300,1883.5,163.1,240.8,66.6,1516.0,8156.0,5.0,1,
112400,1860.8,165.3,229.7,40.1,2274.0,10668.0,5.0,1,
112600,1844.4,138.1,171.1,28.3,2011.0,10842.0,4.0,1,
112700,1872.4,159.6,169.7,29.4,1797.0,9285.0,5.0,1,
112800,1870.7,149.3,170.0,29.0,1797.0,9285.0,5.0,1,
112900,1861.9,146.5,169.9,28.2,1797.0,9285.0,5.0,1,
113000,1850.3,150.0,169.7,30.1,1797.0,9285.0,5.0,1,
113100,1843.8,149.1,169.4,178.2,1797.0,9285.0,5.0,1,
113200,1852.5,147.3,169.2,241.1,1797.0,9285.0,5.0,1,
113300,1856.5,151.2,169.0,240.9,1797.0,9285.0,5.0,1,
113400,1856.6,143.7,168.9,240.8,1797.0,9285.0,5.0,1,
113600,1863.6,126.3,166.7,241.0,1797.0,9285.0,5.0,1,
113700,1865.3,114.2,164.8,241.2,1245.0,8276.0,8.0,1,
113800,1854.0,180.0,165.1,240.2,1516.0,8138.0,5.0,1,
113900,1866.5,97.1,168.2,44.9,1912.0,9282.0,5.0,1,
114000,1896.2,107.1,161.0,36.8,1632.0,7054.0,5.0,1,
114100,1825.8,108.5,155.8,37.4,2087.0,10160.0,5.0,1,
114200,1874.5,90.7,155.8,29.7,1557.0,6978.0,4.0,1,
114300,1872.0,138.2,158.4,29.9,1988.0,9621.0,4.0,1,
114400,1862.8,95.0,155.9,47.9,1988.0,9621.0,4.0,1,
114600,1853.4,92.3,150.0,38.0,1988.0,9621.0,4.0,1,
114700,1845.1,95.2,146.9,79.4,1988.0,9621.0,4.0,1,
114800,1855.6,90.9,143.4,240.8,1988.0,9621.0,4.0,1,
114900,1861.2,93.9,140.2,240.7,1988.0,9621.0,4.0,1,
115000,1864.1,92.4,136.6,241.0,1988.0,9621.0,4.0,1,
115100,1867.6,88.5,133.1,241.0,1988.0,9621.0,4.0,1,
115200,1862.4,90.4,130.4,240.6,1988.0,9621.0,4.0,1,
115300,1860.0,92.6,128.7,240.6,1988.0,9621.0,4.0,1,
115400,1857.7,244.3,126.7,239.8,1659.0,9092.0,5.0,1,
115600,1865.3,118.7,141.2,38.3,2058.0,10110.0,4.0,1,
115700,1864.7,104.4,143.1,38.2,1595.0,6941.0,5.0,1,
115800,1865.3,179.8,141.1,38.7,2026.0,10404.0,5.0,1,
115900,1890.1,96.8,142.8,29.6,1685.0,8084.0,5.0,1,
116000,1842.7,93.5,141.6,29.8,1526.0,7223.0,4.0,1,
116100,1860.8,95.6,141.6,35.5,1526.0,7223.0,4.0,1,
116200,1848.4,97.8,142.0,36.6,1526.0,7223.0,4.0,1,
116300,1844.5,99.1,142.1,57.1,1526.0,7223.0,4.0,1,
116400,1852.9,100.3,142.3,240.4,1526.0,7223.0,4.0,1,
116600,1867.5,97.5,142.8,240.9,1526.0,7223.0,4.0,1,
116700,1866.8,101.4,143.3,240.7,1526.0,7223.0,4.0,1,
116800,1859.4,101.8,143.9,240.9,1526.0,7223.0,4.0,1,
116900,1859.7,103.5,144.4,241.0,1526.0,7223.0,4.0,1,
117000,1880.7,270.7,151.5,240.3,1314.0,7665.0,3.0,1,
117100,1826.2,121.7,148.8,30.2,1874.0,9710.0,5.0,1,
117200,1871.6,108.3,139.4,28.3,1533.0,7221.0,5.0,1,
117300,1854.2,194.8,143.1,27.9,2093.0,10020.0,4.0,1,
117400,1899.4,100.5,147.8,28.6,1527.0,7495.0,5.0,1,
117600,1876.1,120.1,149.8,28.3,2140.0,10259.0,4.0,1,
117700,1861.2,99.6,150.0,29.0,2140.0,10259.0,4.0,1,
117800,1854.8,101.1,150.0,34.8,2140.0,10259.0,4.0,1,
117900,1847.6,97.6,149.9,39.5,2140.0,10259.0,4.0,1,
118000,1845.7,99.3,150.1,178.4,2140.0,10259.0,4.0,1,
118100,1855.3,100.5,150.1,240.6,2140.0,10259.0,4.0,1,
118200,1858.4,103.3,150.4,240.6,2140.0,10259.0,4.0,1,
118300,1855.8,117.2,150.9,240.7,2140.0,10259.0,4.0,1,
118400,1857.7,125.8,152.5,240.6,2140.0,10259.0,4.0,1,
118600,1858.6,164.4,156.3,239.9,1781.0,11092.0,7.0,1,
118700,1847.0,173.9,144.7,176.8,1378.0,7695.0,5.0,1,
118800,1854.0,152.7,148.0,29.9,2123.0,10561.0,5.0,1,
118900,1903.0,155.4,149.5,29.0,1418.0,6628.0,4.0,1,
119000,1826.9,267.9,144.7,28.2,2009.0,10529.0,4.0,1,
119100,1860.6,119.8,152.4,28.3,1803.0,8604.0,5.0,1,
119200,1876.0,139.8,144.6,29.1,1425.0,6969.0,4.0,1,
119300,1870.3,136.1,146.8,28.3,1425.0,6969.0,4.0,1,
119400,1856.4,121.3,148.8,27.9,1425.0,6969.0,4.0,1,
119600,1853.5,106.3,149.7,216.4,1425.0,6969.0,4.0,1,
119700,1857.7,104.9,150.0,240.4,1425.0,6969.0,4.0,1,
119800,1858.1,111.7,150.2,240.3,1425.0,6969.0,4.0,1,
119900,1857.5,114.8,150.4,240.3,1425.0,6969.0,4.0,1,
120000,1859.3,114.7,150.0,240.5,1425.0,6969.0,4.0,1,
120100,1859.2,111.2,149.5,240.4,1425.0,6969.0,4.0,1,
120200,1860.4,115.7,149.7,240.5,1251.0,8245.0,4.0,1,
120300,1853.0,108.7,146.9,237.7,1706.0,9712.0,6.0,1,
120400,1871.9,120.6,143.7,54.0,1333.0,6720.0,6.0,1,
120600,1870.6,112.6,140.8,29.2,1434.0,6960.0,4.0,1,
120700,1843.6,110.6,130.7,28.4,1949.0,8774.0,4.0,1,
120800,1866.8,119.8,129.4,28.1,1835.0,8830.0,5.0,1,
120900,1860.1,106.7,127.7,28.2,1835.0,8830.0,5.0,1,
121000,1859.2,105.9,125.9,28.3,1835.0,8830.0,5.0,1,
121100,1859.2,107.7,125.1,29.6,1835.0,8830.0,5.0,1,
121200,1862.2,104.5,125.0,163.3,1835.0,8830.0,5.0,1,
121300,1860.0,108.3,124.9,240.5,1835.0,8830.0,5.0,1,
121400,1858.5,111.3,125.1,240.9,1835.0,8830.0,5.0,1,
121600,1858.0,105.9,124.9,240.8,1835.0,8830.0,5.0,1,
121700,1861.1,110.7,124.4,240.6,1835.0,8830.0,5.0,1,
121800,1862.7,69.3,124.3,240.3,1835.0,8830.0,5.0,1,
121900,1884.6,166.7,127.4,239.6,1199.0,7155.0,5.0,1,
122000,1824.4,129.7,127.8,45.7,1883.0,10500.0,4.0,1,
122100,1861.5,181.3,127.7,29.0,1476.0,6583.0,4.0,1,
122200,1865.6,172.0,137.2,28.9,1966.0,10494.0,4.0,1,
122300,1885.4,109.6,140.5,28.9,1618.0,7930.0,5.0,1,
122400,1829.5,156.8,140.6,27.7,1624.0,7791.0,5.0,1,
122600,1860.3,143.7,145.0,28.7,1624.0,7791.0,5.0,1,
122700,1859.8,142.1,147.0,35.3,1624.0,7791.0,5.0,1,
122800,1857.1,147.8,149.5,122.2,1624.0,7791.0,5.0,1,
122900,1858.9,144.3,152.0,240.5,1624.0,7791.0,5.0,1,
123000,1860.9,133.6,153.8,240.2,1624.0,7791.0,5.0,1,
123100,1860.6,125.8,155.0,240.5,1624.0,7791.0,5.0,1,
123200,1860.9,118.4,155.7,240.6,1624.0,7791.0,5.0,1,
123300,1857.5,106.8,156.2,240.7,1624.0,7791.0,5.0,1,
123400,1860.8,103.6,156.0,240.5,1624.0,7791.0,5.0,1,
123600,1873.3,111.7,156.9,117.8,1239.0,5950.0,5.0,1,
123700,1849.1,119.7,156.4,56.8,1755.0,8700.0,5.0,1,
123800,1882.2,138.1,148.5,29.7,1431.0,6815.0,5.0,1,
123900,1840.4,125.4,144.4,29.5,1630.0,7282.0,4.0,1,
124000,1854.8,120.6,143.6,34.8,1865.0,8492.0,5.0,1,
124100,1857.7,87.4,140.6,28.6,1536.0,6985.0,5.0,1,
124200,1859.7,81.8,137.2,28.0,1536.0,6985.0,5.0,1,
124300,1858.7,76.5,133.8,48.7,1536.0,6985.0,5.0,1,
124400,1857.2,72.1,129.7,100.7,1536.0,6985.0,5.0,1,
124600,1859.2,78.1,121.5,240.3,1536.0,6985.0,5.0,1,
124700,1858.5,81.3,118.2,240.3,1536.0,6985.0,5.0,1,
124800,1856.5,79.0,115.4,240.3,1536.0,6985.0,5.0,1,
124900,1859.0,84.7,113.5,240.1,1536.0,6985.0,5.0,1,
125000,1858.0,90.7,112.3,239.9,1536.0,6985.0,5.0,1,
125100,1848.5,130.0,110.7,240.0,1188.0,7117.0,5.0,1,
125200,1856.0,126.5,109.3,123.0,1792.0,9480.0,5.0,1,
125300,1897.1,98.4,111.9,44.9,1423.0,6888.0,5.0,1,
125400,1816.9,93.7,111.0,27.4,1971.0,8700.0,4.0,1,
125600,1870.5,119.8,109.3,39.9,1674.0,7374.0,4.0,1,
125700,1857.9,128.5,118.5,34.3,1981.0,7543.0,2.0,0,
125800,1863.0,100.4,119.1,29.4,1981.0,7543.0,2.0,0,
125900,1860.3,98.2,120.0,30.0,1981.0,7543.0,2.0,0,
126000,1858.5,97.7,121.0,36.9,1981.0,7543.0,2.0,0,
126100,1857.8,99.6,122.3,117.3,1981.0,7543.0,2.0,0,
126200,1856.6,100.9,123.5,240.6,1981.0,7543.0,2.0,0,
126300,1857.9,103.2,124.5,240.4,1981.0,7543.0,2.0,0,
126400,1861.9,99.8,125.5,240.3,1981.0,7543.0,2.0,0,
126600,1860.5,99.7,127.1,240.4,1981.0,7543.0,2.0,0,
126700,1863.3,141.3,128.3,240.3,1627.0,9665.0,6.0,1,
126800,1874.8,221.3,126.6,178.5,1264.0,6565.0,6.0,1,
126900,1831.4,139.6,131.4,92.4,1819.0,9730.0,5.0,1,
127000,1858.3,113.1,134.5,74.2,1481.0,7045.0,5.0,1,
127100,1854.5,169.6,133.1,35.8,1904.0,8444.0,4.0,1,
127200,1874.9,101.6,140.1,27.3,1725.0,8796.0,5.0,1,
127300,1874.3,94.4,134.4,39.2,1394.0,6470.0,5.0,1,
127400,1854.3,102.3,132.1,40.4,1394.0,6470.0,5.0,1,
127600,1852.8,106.3,132.6,51.0,1394.0,6470.0,5.0,1,
127700,1855.9,106.7,133.0,233.2,1394.0,6470.0,5.0,1,
127800,1857.6,106.4,133.3,240.5,1394.0,6470.0,5.0,1,
127900,1858.7,105.5,133.6,240.3,1394.0,6470.0,5.0,1,
128000,1858.8,108.7,133.8,240.5,1394.0,6470.0,5.0,1,
128100,1858.1,108.3,134.4,240.6,1394.0,6470.0,5.0,1,
128200,1860.0,108.4,134.8,240.4,1394.0,6470.0,5.0,1,
128300,1858.2,214.5,135.1,240.5,1394.0,6470.0,5.0,1,
128400,1841.2,160.7,138.1,212.6,1747.0,10582.0,6.0,1,
128600,1862.9,148.4,133.3,29.9,1909.0,9898.0,5.0,1,
128700,1875.9,90.3,134.7,35.9,1714.0,7775.0,4.0,1,
128800,1843.8,131.2,127.5,28.9,1510.0,7334.0,5.0,1,
128900,1856.5,108.2,127.9,27.8,1983.0,9918.0,4.0,1,
129000,1866.6,104.7,128.7,28.3,1744.0,9225.0,5.0,1,
129100,1860.0,105.4,128.9,29.2,1744.0,9225.0,5.0,1,
129200,1859.2,110.6,129.0,36.2,1744.0,9225.0,5.0,1,
129300,1854.4,107.2,129.4,153.3,1744.0,9225.0,5.0,1,
129400,1856.0,112.0,129.7,240.6,1744.0,9225.0,5.0,1,
129600,1859.0,110.9,130.4,240.4,1744.0,9225.0,5.0,1,
129700,1857.8,111.2,130.7,240.5,1744.0,9225.0,5.0,1,
129800,1858.8,112.6,130.8,240.7,1744.0,9225.0,5.0,1,
129900,1855.5,112.1,131.3,240.6,1744.0,9225.0,5.0,1,
130000,1848.6,122.2,126.3,240.3,1200.0,6562.0,6.0,1,
130100,1852.0,116.5,126.8,87.7,1980.0,10283.0,5.0,1,
130200,1895.8,132.3,132.0,29.1,1474.0,7283.0,5.0,1,
130300,1836.3,137.8,130.0,28.1,1791.0,8175.0,5.0,1,
130400,1853.9,152.4,130.3,38.2,1930.0,9356.0,5.0,1,
130600,1863.8,117.9,137.4,28.5,1897.0,7999.0,4.0,1,
130700,1861.3,108.7,137.5,28.2,1897.0,7999.0,4.0,1,
130800,1856.9,107.7,138.0,41.9,1897.0,7999.0,4.0,1,
130900,1854.2,107.6,137.8,76.9,1897.0,7999.0,4.0,1,
131000,1856.9,109.2,137.5,238.0,1897.0,7999.0,4.0,1,
131100,1856.6,105.0,137.3,240.2,1897.0,7999.0,4.0,1,
131200,1860.8,104.0,136.9,240.4,1897.0,7999.0,4.0,1,
131300,1856.8,104.4,136.5,240.4,1897.0,7999.0,4.0,1,
131400,1860.1,100.5,136.1,240.5,1897.0,7999.0,4.0,1,
131600,1855.4,436.9,139.1,240.7,1631.0,8733.0,3.0,1,
131700,1883.7,169.6,192.4,36.7,1340.0,6701.0,4.0,1,
131800,1829.0,115.5,189.2,28.6,1911.0,9150.0,5.0,1,
131900,1866.5,108.7,188.9,28.7,1712.0,8732.0,5.0,1,
132000,1856.2,223.8,187.7,28.7,1691.0,7459.0,4.0,1,
132100,1858.0,142.7,196.3,28.0,1826.0,9032.0,5.0,1,
132200,1875.4,99.4,193.4,28.6,1389.0,7393.0,5.0,1,
132300,1864.0,102.1,193.2,28.4,1389.0,7393.0,5.0,1,
132400,1858.4,102.2,192.9,28.3,1389.0,7393.0,5.0,1,
132600,1857.8,106.2,192.7,239.4,1389.0,7393.0,5.0,1,
132700,1858.4,109.3,192.6,240.4,1389.0,7393.0,5.0,1,
132800,1860.5,109.0,192.7,240.4,1389.0,7393.0,5.0,1,
132900,1858.2,107.8,192.8,240.3,1389.0,7393.0,5.0,1,
133000,1860.5,109.6,193.0,240.3,1389.0,7393.0,5.0,1,
133100,1860.4,111.0,193.2,240.4,1389.0,7393.0,5.0,1,
133200,1891.9,121.7,192.0,240.3,1121.0,6224.0,7.0,1,
133300,1820.3,151.4,140.5,178.3,1653.0,8655.0,3.0,1,
133400,1863.3,158.6,191.9,35.4,1413.0,6725.0,5.0,1,
133600,1870.9,105.2,194.3,28.0,1732.0,8817.0,5.0,1,
133700,1849.5,150.4,184.8,27.9,1402.0,6741.0,5.0,1,
133800,1854.0,105.4,185.4,27.7,1927.0,9763.0,4.0,1,
133900,1869.7,107.3,185.6,28.4,1927.0,9763.0,4.0,1,
134000,1859.2,109.6,185.9,29.0,1927.0,9763.0,4.0,1,
134100,1856.7,109.3,186.1,30.0,1927.0,9763.0,4.0,1,
134200,1856.2,111.4,186.3,237.4,1927.0,9763.0,4.0,1,
134300,1856.2,109.3,186.5,240.5,1927.0,9763.0,4.0,1,
134400,1859.9,112.4,186.6,240.1,1927.0,9763.0,4.0,1,
134600,1860.1,111.0,187.0,240.3,1927.0,9763.0,4.0,1,
134700,1860.9,109.9,187.1,240.3,1927.0,9763.0,4.0,1,
134800,1858.4,139.2,187.1,240.5,1927.0,9763.0,4.0,1,
134900,1843.8,117.1,188.2,239.7,1212.0,6077.0,6.0,1,
135000,1856.0,126.6,128.0,77.9,1869.0,10037.0,5.0,1,
135100,1891.4,114.8,132.6,30.1,1649.0,7804.0,5.0,1,
135200,1844.8,156.8,131.8,30.0,1634.0,7577.0,5.0,1,
135300,1842.1,134.2,132.8,44.0,1911.0,9733.0,5.0,1,
135400,1862.4,115.0,134.3,29.0,1369.0,6601.0,5.0,1,
135600,1861.1,116.4,135.2,29.1,1369.0,6601.0,5.0,1,
135700,1857.5,115.2,135.7,57.4,1369.0,6601.0,5.0,1,
135800,1856.6,121.8,136.1,199.7,1369.0,6601.0,5.0,1,
135900,1856.7,126.1,136.8,240.8,1369.0,6601.0,5.0,1,
136000,1858.1,126.2,137.6,240.8,1369.0,6601.0,5.0,1,
136100,1858.1,125.3,138.2,240.5,1369.0,6601.0,5.0,1,
136200,1860.2,127.2,139.1,240.4,1369.0,6601.0,5.0,1,
136300,1859.9,128.9,140.0,240.7,1369.0,6601.0,5.0,1,
136400,1857.0,129.6,140.9,240.6,1369.0,6601.0,5.0,1,
136600,1889.9,101.8,140.9,80.3,1336.0,7413.0,5.0,1,
136700,1829.3,129.8,135.3,56.8,1892.0,9338.0,5.0,1,
136800,1867.1,120.9,135.9,30.1,1737.0,9154.0,4.0,1,
136900,1860.8,164.6,138.7,28.2,1554.0,7484.0,5.0,1,
137000,1854.2,145.4,138.0,28.3,2002.0,10009.0,5.0,1,
137100,1880.0,122.3,140.5,28.4,1820.0,9437.0,5.0,1,
137200,1863.9,117.4,140.6,28.5,1820.0,9437.0,5.0,1,
137300,1859.4,124.7,140.6,28.7,1820.0,9437.0,5.0,1,
137400,1857.7,122.7,140.8,39.4,1820.0,9437.0,5.0,1,
137600,1856.8,123.0,140.5,240.5,1820.0,9437.0,5.0,1,
137700,1859.1,123.8,140.4,240.5,1820.0,9437.0,5.0,1,
137800,1858.4,122.7,140.2,240.6,1820.0,9437.0,5.0,1,
137900,1860.3,121.9,139.8,240.6,1820.0,9437.0,5.0,1,
138000,1860.6,120.0,139.4,240.5,1820.0,9437.0,5.0,1,
138100,1887.4,121.4,139.7,240.4,1189.0,6732.0,5.0,1,
138200,1834.1,147.9,143.8,111.5,1869.0,10011.0,6.0,1,
138300,1854.5,93.6,145.1,42.3,1713.0,8251.0,5.0,1,
138400,1868.8,126.7,142.6,40.3,1861.0,8861.0,5.0,1,
138600,1871.1,140.2,145.7,28.5,1355.0,6235.0,4.0,1,
138700,1850.3,122.3,145.4,38.9,1943.0,8841.0,4.0,1,
138800,1860.8,118.7,145.0,42.7,1943.0,8841.0,4.0,1,
138900,1858.4,118.5,145.1,34.3,1943.0,8841.0,4.0,1,
139000,1857.6,117.5,144.9,56.0,1943.0,8841.0,4.0,1,
139100,1858.3,120.6,144.7,239.8,1943.0,8841.0,4.0,1,
139200,1857.3,117.6,144.6,240.4,1943.0,8841.0,4.0,1,
139300,1861.3,121.3,144.5,240.5,1943.0,8841.0,4.0,1,
139400,1859.0,119.9,144.2,240.5,1943.0,8841.0,4.0,1,
139600,1857.7,121.1,144.0,240.2,1943.0,8841.0,4.0,1,
139700,1853.2,129.6,143.3,240.5,1576.0,9693.0,7.0,1,
139800,1865.6,138.4,136.8,236.9,1315.0,6270.0,5.0,1,
139900,1846.2,145.0,138.4,91.0,1926.0,9864.0,5.0,1,
140000,1875.6,114.6,140.2,41.3,1736.0,7995.0,5.0,1,
140100,1864.1,141.6,139.1,29.6,1446.0,6928.0,4.0,1,
140200,1843.7,251.6,138.7,29.0,2033.0,9580.0,4.0,1,
140300,1858.8,112.4,142.7,28.3,1357.0,6861.0,4.0,1,
140400,1864.3,115.8,142.7,38.5,1357.0,6861.0,4.0,1,
140600,1863.6,119.7,142.5,52.9,1357.0,6861.0,4.0,1,
140700,1854.3,117.4,142.5,239.4,1357.0,6861.0,4.0,1,
140800,1855.6,119.4,142.5,240.7,1357.0,6861.0,4.0,1,
140900,1857.8,117.4,142.6,240.4,1357.0,6861.0,4.0,1,
141000,1862.6,119.5,142.5,240.3,1357.0,6861.0,4.0,1,
141100,1858.2,114.1,142.6,240.2,1357.0,6861.0,4.0,1,
141200,1857.3,119.9,142.4,240.2,1357.0,6861.0,4.0,1,
141300,1859.0,139.4,142.5,240.3,1134.0,6765.0,6.0,1,
141400,1847.4,98.3,142.9,238.3,1809.0,10237.0,5.0,1,
141600,1821.8,153.2,142.8,28.3,1709.0,7376.0,4.0,1,
141700,1855.0,130.5,143.4,28.0,1831.0,9208.0,5.0,1,
141800,1864.1,112.4,137.8,37.8,1403.0,6705.0,4.0,1,
141900,1854.9,145.7,130.5,37.7,1978.0,9427.0,5.0,1,
142000,1871.4,118.1,132.4,28.1,1978.0,9427.0,5.0,1,
142100,1858.9,114.9,132.5,27.9,1978.0,9427.0,5.0,1,
142200,1859.3,115.5,132.4,29.2,1978.0,9427.0,5.0,1,
142300,1855.5,117.3,132.3,93.5,1978.0,9427.0,5.0,1,
142400,1858.3,116.1,132.2,240.7,1978.0,9427.0,5.0,1,
142600,1860.4,117.8,132.0,240.6,1978.0,9427.0,5.0,1,
142700,1861.4,119.7,131.8,240.4,1978.0,9427.0,5.0,1,
142800,1859.0,115.4,131.9,240.5,1978.0,9427.0,5.0,1,
142900,1860.3,166.2,131.5,240.5,1978.0,9427.0,5.0,1,
143000,1877.8,126.6,135.6,239.7,1056.0,7029.0,6.0,1,
143100,1835.7,111.9,139.2,94.3,1733.0,8084.0,5.0,1,
143200,1848.6,101.8,140.1,87.3,1472.0,8005.0,4.0,1,
143300,1857.8,167.2,135.0,36.1,1569.0,6674.0,4.0,1,
143400,1859.8,129.0,144.0,28.1,1707.0,8576.0,5.0,1,
143600,1838.9,108.1,140.9,36.6,1310.0,6233.0,4.0,1,
143700,1861.5,106.6,140.4,27.9,1310.0,6233.0,4.0,1,
143800,1856.5,110.4,140.1,29.7,1310.0,6233.0,4.0,1,
143900,1857.7,112.3,139.6,147.9,1310.0,6233.0,4.0,1,
144000,1857.4,111.0,139.4,240.1,1310.0,6233.0,4.0,1,
144100,1859.3,107.9,138.9,240.2,1310.0,6233.0,4.0,1,
144200,1857.7,114.5,138.5,240.2,1310.0,6233.0,4.0,1,
144300,1858.6,109.5,138.1,240.2,1310.0,6233.0,4.0,1,
144400,1856.0,108.4,137.8,240.2,1310.0,6233.0,4.0,1,
144600,1850.9,84.2,132.0,240.1,1588.0,9509.0,6.0,1,
144700,1862.4,120.9,134.8,91.3,1242.0,6299.0,5.0,1,
144800,1863.6,118.5,131.3,79.4,1834.0,8952.0,5.0,1,
144900,1856.5,189.9,132.4,89.5,1692.0,8276.0,4.0,1,
145000,1867.3,96.3,128.9,40.8,1338.0,6516.0,5.0,1,
145100,1847.9,158.3,130.0,28.2,1898.0,9444.0,4.0,1,
145200,1867.3,115.4,132.5,39.2,1638.0,8156.0,5.0,1,
145300,1861.3,109.9,132.5,35.8,1638.0,8156.0,5.0,1,
145400,1858.3,110.2,132.5,28.3,1638.0,8156.0,5.0,1,
145600,1857.6,111.4,132.8,239.4,1638.0,8156.0,5.0,1,
145700,1859.7,113.4,132.7,240.5,1638.0,8156.0,5.0,1,
145800,1857.3,114.4,133.0,240.5,1638.0,8156.0,5.0,1,
145900,1860.0,112.6,133.0,240.3,1638.0,8156.0,5.0,1,
146000,1858.5,114.8,133.2,240.0,1638.0,8156.0,5.0,1,
146100,1861.1,111.6,133.2,240.0,1638.0,8156.0,5.0,1,
146200,1851.9,112.8,133.3,240.0,1172.0,6656.0,7.0,1,
146300,1867.8,103.6,132.7,178.2,1710.0,9712.0,6.0,1,
146400,1882.3,102.1,133.3,37.7,1620.0,8006.0,5.0,1,
146600,1842.9,221.0,128.4,28.3,2006.0,9699.0,5.0,1,
146700,1868.2,102.9,136.8,28.3,1309.0,6509.0,5.0,1,
146800,1869.7,114.9,132.1,35.7,1873.0,9160.0,5.0,1,
146900,1863.2,109.9,132.3,88.5,1873.0,9160.0,5.0,1,
147000,1861.2,110.9,132.3,89.7,1873.0,9160.0,5.0,1,
147100,1856.3,109.1,132.3,88.9,1873.0,9160.0,5.0,1,
147200,1854.7,114.3,132.1,238.8,1873.0,9160.0,5.0,1,
147300,1856.6,116.0,132.4,240.4,1873.0,9160.0,5.0,1,
147400,1856.1,112.3,132.5,240.5,1873.0,9160.0,5.0,1,
147600,1857.7,113.3,132.6,240.4,1873.0,9160.0,5.0,1,
147700,1861.0,115.7,132.8,240.2,1873.0,9160.0,5.0,1,
147800,1855.8,131.0,133.1,240.2,1535.0,9901.0,6.0,1,
147900,1880.1,123.9,133.3,238.0,1294.0,7138.0,5.0,1,
148000,1837.8,227.1,134.7,77.1,1768.0,8359.0,5.0,1,
148100,1861.1,140.1,143.0,43.5,1799.0,9300.0,5.0,1,
148200,1860.1,133.0,142.9,30.1,1556.0,7207.0,5.0,1,
148300,1854.8,149.2,135.4,30.1,1926.0,9464.0,5.0,1,
148400,1895.0,119.6,139.5,28.7,1386.0,6619.0,4.0,1,
148600,1860.0,111.5,139.3,42.7,1386.0,6619.0,4.0,1,
148700,1857.4,115.1,139.4,89.4,1386.0,6619.0,4.0,1,
148800,1851.8,115.4,139.6,238.0,1386.0,6619.0,4.0,1,
148900,1856.8,112.3,139.6,240.5,1386.0,6619.0,4.0,1,
149000,1859.7,115.2,139.6,240.2,1386.0,6619.0,4.0,1,
149100,1854.8,114.4,139.7,240.3,1386.0,6619.0,4.0,1,
149200,1858.4,115.2,139.7,240.5,1386.0,6619.0,4.0,1,
149300,1857.8,111.9,139.7,240.3,1386.0,6619.0,4.0,1,
149400,1855.8,101.6,139.8,240.2,1386.0,6619.0,4.0,1,
149600,1848.3,131.0,138.0,91.7,1604.0,8334.0,5.0,1,
149700,1871.8,142.6,129.2,65.5,1811.0,8313.0,5.0,1,
149800,1864.3,155.0,132.9,28.3,1861.0,9066.0,4.0,1,
149900,1888.6,113.0,132.5,27.9,1412.0,6362.0,5.0,1,
150000,1834.2,174.3,129.4,30.2,1907.0,9817.0,5.0,1,
150100,1867.9,120.1,132.4,30.0,1986.0,9681.0,4.0,1,
150200,1858.8,115.3,132.6,28.4,1986.0,9681.0,4.0,1,
150300,1857.7,115.8,133.0,28.5,1986.0,9681.0,4.0,1,
150400,1855.0,119.2,133.2,53.7,1986.0,9681.0,4.0,1,
150600,1856.3,121.1,133.7,240.3,1986.0,9681.0,4.0,1,
150700,1856.4,122.7,134.0,240.3,1986.0,9681.0,4.0,1,
150800,1856.5,122.3,134.5,240.7,1986.0,9681.0,4.0,1,
150900,1859.1,118.8,134.7,240.8,1986.0,9681.0,4.0,1,
151000,1859.8,121.6,135.1,240.4,1986.0,9681.0,4.0,1,
151100,1860.0,119.7,136.5,240.1,1262.0,6830.0,5.0,1,
151200,1852.5,129.1,134.1,144.2,1768.0,9381.0,5.0,1,
151300,1863.4,169.8,135.6,91.5,1702.0,8383.0,5.0,1,
151400,1873.8,137.7,134.4,55.2,1369.0,6633.0,4.0,1,
151600,1858.1,128.5,136.3,28.1,1439.0,6489.0,4.0,1,
151700,1875.6,121.4,134.7,30.0,1456.0,6755.0,5.0,1,
151800,1860.8,118.9,134.9,38.7,1456.0,6755.0,5.0,1,
151900,1858.5,117.6,135.0,40.1,1456.0,6755.0,5.0,1,
152000,1855.8,117.3,135.0,83.4,1456.0,6755.0,5.0,1,
152100,1854.6,116.0,134.8,240.1,1456.0,6755.0,5.0,1,
152200,1857.3,112.8,134.5,240.4,1456.0,6755.0,5.0,1,
152300,1857.2,111.6,134.2,240.2,1456.0,6755.0,5.0,1,
152400,1861.0,108.4,133.4,240.5,1456.0,6755.0,5.0,1,
152600,1858.7,103.5,131.3,240.2,1456.0,6755.0,5.0,1,
152700,1851.1,88.2,130.9,240.2,1581.0,9634.0,6.0,1,
152800,1879.2,83.2,129.7,88.8,1487.0,7769.0,6.0,1,
152900,1834.2,121.6,127.4,52.0,1608.0,7256.0,4.0,1,
153000,1848.1,145.4,125.7,49.0,1868.0,9356.0,5.0,1,
153100,1868.7,130.1,129.3,37.9,1393.0,6851.0,4.0,1,
153200,1861.8,139.4,125.7,27.9,1976.0,10119.0,5.0,1,
153300,1857.8,139.3,128.3,28.2,1672.0,8102.0,5.0,1,
153400,1864.6,136.8,129.4,29.8,1672.0,8102.0,5.0,1,
153600,1856.9,136.5,132.0,57.5,1672.0,8102.0,5.0,1,
153700,1856.3,141.9,133.4,239.0,1672.0,8102.0,5.0,1,
153800,1860.6,142.0,135.0,240.3,1672.0,8102.0,5.0,1,
153900,1861.2,142.8,136.8,240.4,1672.0,8102.0,5.0,1,
154000,1856.5,141.4,138.8,240.5,1672.0,8102.0,5.0,1,
154100,1859.9,142.1,140.9,240.5,1672.0,8102.0,5.0,1,
154200,1861.2,141.8,143.2,240.4,1672.0,8102.0,5.0,1,
154300,1881.4,136.5,144.3,240.3,1108.0,7417.0,7.0,1,
154400,1839.9,132.0,149.3,237.4,1690.0,9014.0,5.0,1,
154600,1857.8,168.1,151.4,28.6,1602.0,7391.0,4.0,1,
154700,1857.2,167.2,152.7,28.0,1833.0,9612.0,5.0,1,
154800,1901.2,123.0,154.0,29.7,1330.0,5898.0,5.0,1,
154900,1825.7,137.2,152.9,28.4,1889.0,9513.0,4.0,1,
155000,1865.0,140.0,153.2,27.9,1889.0,9513.0,4.0,1,
155100,1860.2,139.4,153.4,29.0,1889.0,9513.0,4.0,1,
155200,1859.1,139.5,153.5,73.0,1889.0,9513.0,4.0,1,
155300,1856.5,148.2,153.8,206.7,1889.0,9513.0,4.0,1,
155400,1854.3,146.7,154.2,240.4,1889.0,9513.0,4.0,1,
155600,1856.9,146.7,154.6,240.0,1889.0,9513.0,4.0,1,
155700,1857.1,144.8,154.8,240.1,1889.0,9513.0,4.0,1,
155800,1863.8,142.4,154.9,240.2,1889.0,9513.0,4.0,1,
155900,1859.0,156.0,155.0,240.1,1889.0,9513.0,4.0,1,
156000,1856.4,130.5,156.8,239.4,1478.0,8780.0,6.0,1,
156100,1863.8,157.2,153.8,57.4,1887.0,9280.0,5.0,1,
156200,1854.2,126.5,158.3,29.9,1844.0,9131.0,4.0,1,
156300,1882.5,155.7,155.5,29.1,1242.0,6456.0,5.0,1,
156400,1843.6,186.6,155.5,28.2,1980.0,10267.0,5.0,1,
156600,1877.2,138.6,157.8,28.2,1980.0,10267.0,5.0,1,
156700,1862.0,139.1,157.8,28.2,1980.0,10267.0,5.0,1,
156800,1861.5,139.8,158.0,30.0,1980.0,10267.0,5.0,1,
156900,1857.1,143.2,158.1,177.0,1980.0,10267.0,5.0,1,
157000,1856.2,142.3,157.9,240.4,1980.0,10267.0,5.0,1,
157100,1856.4,142.8,157.8,240.4,1980.0,10267.0,5.0,1,
157200,1860.2,144.5,157.8,240.4,1980.0,10267.0,5.0,1,
157300,1859.8,139.1,157.4,240.4,1980.0,10267.0,5.0,1,
157400,1859.6,145.2,157.4,240.4,1980.0,10267.0,5.0,1,
157600,1853.9,157.6,156.1,239.9,1773.0,10580.0,6.0,1,
157700,1880.2,234.8,166.5,57.1,1492.0,7360.0,2.0,0,
157800,1856.7,172.6,169.7,66.5,1531.0,6882.0,2.0,0,
157900,1833.3,203.7,176.3,94.2,1982.0,8257.0,2.0,0,
158000,1873.9,244.5,187.8,100.4,1538.0,5933.0,2.0,0,
158100,1856.0,188.8,201.9,92.6,1957.0,10113.0,5.0,1,
158200,1866.4,145.1,203.7,92.1,1863.0,9648.0,4.0,1,
158300,1862.1,150.1,203.9,82.5,1863.0,9648.0,4.0,1,
158400,1859.8,143.3,204.4,29.7,1863.0,9648.0,4.0,1,
158600,1858.3,145.3,204.4,239.7,1863.0,9648.0,4.0,1,
158700,1858.5,148.1,204.6,240.3,1863.0,9648.0,4.0,1,
158800,1857.8,146.1,204.8,240.4,1863.0,9648.0,4.0,1,
158900,1859.1,148.9,205.0,240.3,1863.0,9648.0,4.0,1,
159000,1858.0,150.3,205.4,240.1,1863.0,9648.0,4.0,1,
159100,1855.5,150.0,205.5,240.2,1863.0,9648.0,4.0,1,
159200,1867.6,177.7,206.2,240.1,1187.0,7376.0,7.0,1,
159300,1855.4,129.5,202.8,100.8,1691.0,8800.0,4.0,1,
159400,1848.3,161.0,198.9,28.9,1784.0,9158.0,4.0,1,
159600,1862.9,176.9,181.2,29.5,1856.0,9844.0,4.0,1,
159700,1893.5,129.6,165.5,29.9,1276.0,5955.0,5.0,1,
159800,1832.0,157.7,162.0,28.3,1550.0,7750.0,5.0,1,
159900,1862.1,151.9,162.5,28.1,1550.0,7750.0,5.0,1,
160000,1859.4,152.6,162.7,29.3,1550.0,7750.0,5.0,1,
160100,1858.1,155.0,163.3,65.6,1550.0,7750.0,5.0,1,
160200,1857.1,151.7,163.8,239.5,1550.0,7750.0,5.0,1,
160300,1860.1,155.6,164.4,240.2,1550.0,7750.0,5.0,1,
160400,1860.6,148.3,164.5,240.3,1550.0,7750.0,5.0,1,
160600,1858.1,149.3,164.9,240.4,1550.0,7750.0,5.0,1,
160700,1861.4,148.9,164.9,240.5,1550.0,7750.0,5.0,1,
160800,1868.0,148.6,164.1,240.3,1659.0,9853.0,6.0,1,
160900,1848.5,127.8,164.1,178.5,1443.0,8212.0,6.0,1,
161000,1858.5,163.5,161.8,68.7,1975.0,9637.0,5.0,1,
161100,1853.5,156.5,164.6,35.9,1805.0,9083.0,4.0,1,
161200,1890.8,180.2,163.3,28.3,1214.0,6471.0,5.0,1,
161300,1839.7,220.0,167.6,28.0,1940.0,10153.0,4.0,1,
161400,1852.6,145.1,168.6,28.7,1389.0,7192.0,4.0,1,
161600,1858.7,149.9,168.2,27.4,1389.0,7192.0,4.0,1,
161700,1859.0,148.4,167.9,29.8,1389.0,7192.0,4.0,1,
161800,1858.3,151.4,167.9,238.3,1389.0,7192.0,4.0,1,
161900,1858.5,148.8,167.6,240.6,1389.0,7192.0,4.0,1,
162000,1858.9,151.4,167.5,240.4,1389.0,7192.0,4.0,1,
162100,1860.8,149.0,167.6,240.4,1389.0,7192.0,4.0,1,
162200,1859.7,152.0,167.6,240.2,1389.0,7192.0,4.0,1,
162300,1857.6,150.1,167.5,240.4,1389.0,7192.0,4.0,1,
162400,1859.6,140.9,167.7,240.4,1015.0,6225.0,6.0,1,
162600,1863.0,311.3,181.7,34.9,1529.0,7489.0,2.0,0,
162700,1872.7,194.9,189.4,30.2,1498.0,6659.0,2.0,0,
162800,1837.3,213.3,194.0,93.5,1982.0,9142.0,3.0,1,
162900,1870.1,129.4,193.8,94.4,1199.0,6242.0,5.0,1,
163000,1856.6,143.7,189.3,84.9,1958.0,10012.0,5.0,1,
163100,1864.8,151.2,189.7,29.4,1958.0,10012.0,5.0,1,
163200,1860.6,150.6,189.9,28.8,1958.0,10012.0,5.0,1,
163300,1859.9,146.7,189.9,29.6,1958.0,10012.0,5.0,1,
163400,1858.0,153.3,189.8,177.0,1958.0,10012.0,5.0,1,
163600,1860.8,151.1,189.8,240.5,1958.0,10012.0,5.0,1,
163700,1858.2,152.6,189.9,240.4,1958.0,10012.0,5.0,1,
163800,1861.8,151.5,190.0,240.4,1958.0,10012.0,5.0,1,
163900,1859.0,155.4,190.2,240.5,1958.0,10012.0,5.0,1,
164000,1862.0,128.8,190.2,240.7,1958.0,10012.0,5.0,1,
164100,1865.4,219.7,188.1,240.0,1293.0,7758.0,6.0,1,
164200,1866.6,173.1,185.6,92.7,1657.0,8177.0,5.0,1,
164300,1851.0,275.7,179.0,29.8,1896.0,8391.0,2.0,0,
164400,1857.1,222.6,182.0,29.6,1337.0,5728.0,2.0,0,
164600,1887.0,152.0,192.5,94.4,1085.0,6447.0,5.0,1,
164700,1840.2,154.4,192.3,91.4,1151.0,6017.0,5.0,1,
164800,1858.0,148.6,192.3,29.3,1151.0,6017.0,5.0,1,
164900,1859.8,149.5,192.3,29.1,1151.0,6017.0,5.0,1,
165000,1863.3,152.5,192.2,92.0,1151.0,6017.0,5.0,1,
165100,1859.7,151.7,192.2,240.4,1151.0,6017.0,5.0,1,
165200,1862.5,149.6,192.1,240.5,1151.0,6017.0,5.0,1,
165300,1860.0,153.8,192.0,240.2,1151.0,6017.0,5.0,1,
165400,1862.8,152.1,192.3,240.6,1151.0,6017.0,5.0,1,
165600,1859.3,153.2,192.1,240.4,1151.0,6017.0,5.0,1,
165700,1862.7,124.7,191.3,240.3,1593.0,9026.0,4.0,1,
165800,1848.2,148.9,188.8,73.9,1707.0,8910.0,5.0,1,
165900,1869.4,175.1,185.8,55.3,1598.0,8041.0,4.0,1,
166000,1860.0,224.2,180.0,35.5,1941.0,9627.0,4.0,1,
166100,1880.1,126.1,180.5,29.1,1259.0,6022.0,5.0,1,
166200,1840.0,152.0,174.5,41.4,1891.0,9919.0,4.0,1,
166300,1860.7,163.6,179.1,43.6,1807.0,9312.0,4.0,1,
166400,1862.5,155.8,179.2,28.1,1807.0,9312.0,4.0,1,
166600,1857.7,155.4,180.0,29.5,1807.0,9312.0,4.0,1,
166700,1860.7,158.2,180.1,239.3,1807.0,9312.0,4.0,1,
166800,1862.4,157.5,180.5,240.6,1807.0,9312.0,4.0,1,
166900,1863.4,155.8,181.0,240.7,1807.0,9312.0,4.0,1,
167000,1860.9,160.3,181.1,240.5,1807.0,9312.0,4.0,1,
167100,1857.1,158.5,181.8,240.2,1807.0,9312.0,4.0,1,
167200,1858.7,157.6,182.1,240.5,1807.0,9312.0,4.0,1,
167300,1857.9,184.0,183.0,240.5,1496.0,8668.0,6.0,1,
167400,1866.7,174.5,183.4,178.1,1924.0,9667.0,4.0,1,
167600,1892.5,179.2,179.9,43.2,1278.0,6369.0,5.0,1,
167700,1828.6,189.6,172.2,34.2,2006.0,9525.0,3.0,1,
167800,1859.7,148.4,172.1,29.0,1289.0,7109.0,5.0,1,
167900,1868.1,157.1,167.6,29.0,1720.0,8078.0,5.0,1,
168000,1865.4,158.9,167.9,30.1,1720.0,8078.0,5.0,1,
168100,1861.1,157.6,168.3,47.7,1720.0,8078.0,5.0,1,
168200,1859.2,160.6,168.3,67.1,1720.0,8078.0,5.0,1,
168300,1856.9,158.1,168.4,237.3,1720.0,8078.0,5.0,1,
168400,1859.7,160.4,168.6,240.6,1720.0,8078.0,5.0,1,
168600,1859.5,152.2,168.8,240.7,1720.0,8078.0,5.0,1,
168700,1861.6,148.1,168.2,240.8,1720.0,8078.0,5.0,1,
168800,1859.8,150.5,167.6,240.6,1720.0,8078.0,5.0,1,
168900,1859.6,156.0,167.4,240.6,1560.0,9589.0,7.0,1,
169000,1858.3,101.8,168.4,238.0,1522.0,8577.0,5.0,1,
169100,1877.4,194.9,166.7,56.0,1488.0,7447.0,5.0,1,
169200,1845.1,146.0,166.8,30.1,1999.0,10061.0,4.0,1,
169300,1856.0,126.1,164.4,30.1,1227.0,6368.0,5.0,1,
169400,1870.0,132.6,166.0,38.4,1942.0,10378.0,5.0,1,
169600,1851.7,118.8,163.9,29.0,1942.0,10378.0,5.0,1,
169700,1857.9,121.4,161.6,29.3,1942.0,10378.0,5.0,1,
169800,1859.3,125.7,159.7,34.7,1942.0,10378.0,5.0,1,
169900,1856.5,139.4,158.0,177.5,1942.0,10378.0,5.0,1,
170000,1855.5,141.0,156.8,242.9,1942.0,10378.0,5.0,1,
170100,1856.6,139.2,155.7,240.5,1942.0,10378.0,5.0,1,
170200,1857.6,139.0,154.4,240.5,1942.0,10378.0,5.0,1,
170300,1860.9,142.3,153.7,240.6,1942.0,10378.0,5.0,1,
170400,1861.6,175.6,153.9,240.7,1942.0,10378.0,5.0,1,
170600,1868.9,139.2,158.7,239.4,1558.0,8811.0,4.0,1,
170700,1836.8,209.8,158.1,87.1,1921.0,9964.0,5.0,1,
170800,1870.2,151.7,161.0,56.6,1495.0,7173.0,5.0,1,
170900,1867.3,164.7,164.6,29.2,1924.0,10021.0,5.0,1,
171000,1874.3,164.8,164.9,27.8,1121.0,6499.0,3.0,1,
171100,1849.1,128.9,167.3,30.1,1804.0,8914.0,4.0,1,
171200,1856.6,145.2,167.6,29.7,1911.0,10232.0,5.0,1,
171300,1857.4,145.1,168.7,28.9,1911.0,10232.0,5.0,1,
171400,1859.8,138.1,169.9,29.4,1911.0,10232.0,5.0,1,
171600,1856.5,145.4,170.8,240.8,1911.0,10232.0,5.0,1,
171700,1854.6,144.7,170.9,264.2,1911.0,10232.0,5.0,1,
171800,1859.2,147.3,171.1,241.1,1911.0,10232.0,5.0,1,
171900,1857.7,143.7,171.3,240.9,1911.0,10232.0,5.0,1,
172000,1862.1,139.3,171.1,240.8,1911.0,10232.0,5.0,1,
172100,1859.7,143.8,168.2,240.5,1911.0,10232.0,5.0,1,
172200,1854.6,250.2,165.4,240.3,1681.0,10118.0,6.0,1,
172300,1854.6,162.2,170.5,79.4,1647.0,8371.0,3.0,1,
172400,1861.4,144.0,168.0,29.9,1936.0,9722.0,5.0,1,
172600,1821.8,182.2,161.3,29.0,2023.0,10099.0,4.0,1,
172700,1860.3,121.1,159.8,28.2,1491.0,7648.0,5.0,1,
172800,1871.5,141.2,158.7,28.2,1303.0,6318.0,5.0,1,
172900,1860.1,142.6,158.7,29.1,1303.0,6318.0,5.0,1,
173000,1859.5,146.6,158.6,30.1,1303.0,6318.0,5.0,1,
173100,1857.4,144.8,159.0,90.9,1303.0,6318.0,5.0,1,
173200,1860.0,145.8,159.0,240.3,1303.0,6318.0,5.0,1,
173300,1858.9,144.3,158.9,240.7,1303.0,6318.0,5.0,1,
173400,1861.8,142.3,158.9,240.9,1303.0,6318.0,5.0,1,
173600,1859.0,142.7,159.1,240.6,1303.0,6318.0,5.0,1,
173700,1859.1,148.2,159.4,240.6,1303.0,6318.0,5.0,1,
173800,1864.3,171.0,158.5,240.6,1629.0,9484.0,4.0,1,
173900,1851.7,255.1,155.7,77.0,1719.0,9662.0,5.0,1,
174000,1882.9,161.4,162.2,38.8,1196.0,7009.0,5.0,1,
174100,1836.9,139.3,161.7,38.8,1969.0,10731.0,4.0,1,
174200,1860.4,127.0,162.0,73.4,1222.0,6447.0,5.0,1,
174300,1858.6,175.5,161.5,39.9,2015.0,10165.0,4.0,1,
174400,1869.1,141.4,164.1,28.5,1719.0,9299.0,4.0,1,
174600,1859.1,149.0,164.4,29.3,1719.0,9299.0,4.0,1,
174700,1861.5,143.7,164.6,56.7,1719.0,9299.0,4.0,1,
174800,1859.7,148.1,164.7,239.6,1719.0,9299.0,4.0,1,
174900,1860.3,148.2,164.9,240.5,1719.0,9299.0,4.0,1,
175000,1860.3,147.8,165.1,240.6,1719.0,9299.0,4.0,1,
175100,1858.8,153.1,165.5,240.8,1719.0,9299.0,4.0,1,
175200,1862.4,150.2,165.7,240.7,1719.0,9299.0,4.0,1,
175300,1861.2,146.6,166.0,240.6,1719.0,9299.0,4.0,1,
175400,1864.7,153.8,165.8,240.7,1342.0,9022.0,7.0,1,
175600,1827.5,257.9,166.1,91.6,1751.0,8844.0,2.0,0,
175700,1866.1,211.4,179.1,146.5,1454.0,5979.0,2.0,0,
175800,1859.9,228.0,187.7,154.8,1709.0,8759.0,2.0,0,
175900,1870.7,263.5,196.2,99.9,2162.0,7738.0,28.0,0,
176000,1859.7,205.4,210.8,91.0,1651.0,7010.0,2.0,0,
176100,1853.6,151.9,211.9,91.9,1651.0,7010.0,2.0,0,
176200,1859.5,148.6,212.2,93.2,1651.0,7010.0,2.0,0,
176300,1860.5,150.8,212.3,89.7,1651.0,7010.0,2.0,0,
176400,1861.8,147.9,212.5,113.4,1651.0,7010.0,2.0,0,
176600,1860.7,148.3,212.6,240.2,1651.0,7010.0,2.0,0,
176700,1856.9,145.4,212.7,240.2,1651.0,7010.0,2.0,0,
176800,1859.0,146.8,212.5,240.3,1651.0,7010.0,2.0,0,
176900,1861.9,146.2,212.6,240.6,1651.0,7010.0,2.0,0,
177000,1862.0,96.8,212.5,240.6,1651.0,7010.0,2.0,0,
177100,1855.5,159.0,212.2,240.0,1697.0,10594.0,6.0,1,
177200,1854.3,210.8,208.0,101.8,1542.0,7077.0,2.0,0,
177300,1861.9,246.6,202.9,79.0,1903.0,8276.0,2.0,0,
177400,1898.8,305.7,207.5,90.8,1625.0,5795.0,2.0,0,
177600,1851.2,132.3,206.3,94.1,1563.0,6977.0,2.0,0,
177700,1871.2,146.5,204.4,88.0,1043.0,5758.0,2.0,0,
177800,1862.7,150.3,204.2,66.0,1043.0,5758.0,2.0,0,
177900,1861.1,148.0,204.3,94.3,1043.0,5758.0,2.0,0,
178000,1862.1,148.3,204.3,178.4,1043.0,5758.0,2.0,0,
178100,1860.0,149.2,204.6,240.7,1043.0,5758.0,2.0,0,
178200,1862.2,154.3,204.7,240.7,1043.0,5758.0,2.0,0,
178300,1858.6,153.3,205.2,240.5,1043.0,5758.0,2.0,0,
178400,1856.5,152.3,205.7,240.8,1043.0,5758.0,2.0,0,
178600,1857.3,151.6,206.5,241.0,1043.0,5758.0,2.0,0,
178700,1860.2,157.6,207.1,240.6,1749.0,9940.0,4.0,1,
178800,1848.3,129.1,206.2,57.4,1741.0,9649.0,6.0,1,
178900,1884.6,208.9,200.3,29.5,1376.0,7316.0,5.0,1,
179000,1834.9,153.1,190.8,28.2,2002.0,11014.0,4.0,1,
179100,1865.3,156.4,178.3,28.3,1188.0,7004.0,6.0,1,
179200,1852.3,154.8,166.6,28.2,2000.0,10063.0,5.0,1,
179300,1874.2,142.1,164.2,28.1,1945.0,10008.0,5.0,1,
179400,1858.1,134.5,163.6,28.4,1945.0,10008.0,5.0,1,
179600,1861.3,137.5,161.8,54.0,1945.0,10008.0,5.0,1,
179700,1860.0,133.2,160.8,240.7,1945.0,10008.0,5.0,1,
179800,1860.6,137.9,159.8,241.0,1945.0,10008.0,5.0,1,
179900,1857.8,148.2,159.2,241.0,1945.0,10008.0,5.0,1,
180000,1857.7,147.3,158.8,241.2,1945.0,10008.0,5.0,1,
180100,1856.3,143.8,158.3,241.1,1945.0,10008.0,5.0,1,
180200,1859.7,149.1,157.7,240.8,1945.0,10008.0,5.0,1,
180300,1855.8,161.9,158.2,240.3,1329.0,8984.0,6.0,1,
180400,1883.2,194.6,157.8,156.5,1533.0,8296.0,4.0,1,
180600,1863.9,146.0,161.8,29.8,1370.0,7061.0,5.0,1,
180700,1869.4,120.3,161.1,27.8,1908.0,10446.0,4.0,1,
180800,1867.6,121.7,160.9,28.3,1136.0,6772.0,5.0,1,
180900,1852.5,137.4,158.8,29.2,1365.0,6574.0,4.0,1,
181000,1861.2,143.5,159.5,28.5,1365.0,6574.0,4.0,1,
181100,1860.5,145.9,160.4,28.9,1365.0,6574.0,4.0,1,
181200,1859.4,139.3,160.8,57.4,1365.0,6574.0,4.0,1,
181300,1861.9,135.0,160.9,239.7,1365.0,6574.0,4.0,1,
181400,1862.0,145.5,161.4,240.6,1365.0,6574.0,4.0,1,
181600,1861.8,135.4,160.7,240.7,1365.0,6574.0,4.0,1,
181700,1860.5,137.6,160.1,240.9,1365.0,6574.0,4.0,1,
181800,1861.5,144.6,160.0,240.9,1365.0,6574.0,4.0,1,
181900,1872.3,85.1,159.5,240.4,1505.0,8437.0,4.0,1,
182000,1835.8,156.9,160.8,177.7,1813.0,10179.0,6.0,1,
182100,1853.5,182.3,161.3,39.1,1656.0,8322.0,5.0,1,
182200,1862.3,145.9,158.9,29.3,2010.0,10194.0,5.0,1,
182300,1887.9,114.7,158.9,29.1,1288.0,6384.0,4.0,1,
182400,1840.6,184.7,159.0,27.8,1984.0,10561.0,5.0,1,
182600,1867.7,147.3,162.7,29.0,1984.0,10561.0,5.0,1,
182700,1859.9,147.7,162.7,28.9,1984.0,10561.0,5.0,1,
182800,1859.9,146.5,163.0,30.0,1984.0,10561.0,5.0,1,
182900,1857.8,148.8,163.7,178.1,1984.0,10561.0,5.0,1,
183000,1858.1,147.0,164.4,240.6,1984.0,10561.0,5.0,1,
183100,1860.3,147.1,164.9,240.9,1984.0,10561.0,5.0,1,
183200,1862.2,148.6,165.6,240.7,1984.0,10561.0,5.0,1,
183300,1860.6,145.6,166.2,240.8,1984.0,10561.0,5.0,1,
183400,1859.6,143.7,166.6,240.9,1984.0,10561.0,5.0,1,
183600,1855.9,156.6,166.7,239.4,1822.0,10024.0,5.0,1,
183700,1851.3,173.6,166.8,56.2,1647.0,9434.0,5.0,1,
183800,1886.7,208.0,161.4,29.1,1294.0,6515.0,5.0,1,
183900,1845.2,159.9,163.9,28.2,1936.0,10579.0,4.0,1,
184000,1863.0,132.0,165.2,28.4,1228.0,7009.0,5.0,1,
184100,1856.2,174.7,163.8,28.3,1980.0,9926.0,4.0,1,
184200,1867.2,141.5,164.0,28.3,1980.0,9926.0,4.0,1,
184300,1860.3,143.4,163.7,29.0,1980.0,9926.0,4.0,1,
184400,1862.4,145.0,163.4,30.0,1980.0,9926.0,4.0,1,
184600,1860.9,149.2,162.8,240.2,1980.0,9926.0,4.0,1,
184700,1859.8,142.4,162.6,240.6,1980.0,9926.0,4.0,1,
184800,1862.5,142.7,162.2,240.5,1980.0,9926.0,4.0,1,
184900,1858.9,145.3,161.9,240.4,1980.0,9926.0,4.0,1,
185000,1859.8,146.0,161.7,240.6,1980.0,9926.0,4.0,1,
185100,1858.8,150.9,161.5,240.9,1980.0,9926.0,4.0,1,
185200,1851.5,155.3,165.2,240.4,1400.0,8792.0,6.0,1,
185300,1896.2,174.2,166.2,92.5,1500.0,8359.0,5.0,1,
185400,1826.3,196.5,164.9,89.2,2021.0,10296.0,5.0,1,
185600,1867.4,230.5,169.3,28.1,1905.0,10196.0,4.0,1,
185700,1857.0,199.7,177.0,28.4,1276.0,7048.0,4.0,1,
185800,1876.9,145.9,177.6,30.3,1353.0,6193.0,5.0,1,
185900,1860.1,146.6,177.7,28.5,1353.0,6193.0,5.0,1,
186000,1862.4,145.5,177.9,28.5,1353.0,6193.0,5.0,1,
186100,1858.7,146.8,178.1,52.8,1353.0,6193.0,5.0,1,
186200,1859.3,148.1,178.0,240.5,1353.0,6193.0,5.0,1,
186300,1859.7,144.2,177.9,241.0,1353.0,6193.0,5.0,1,
186400,1859.3,142.9,178.1,240.8,1353.0,6193.0,5.0,1,
186600,1859.0,146.6,178.1,240.7,1353.0,6193.0,5.0,1,
186700,1859.3,143.3,178.1,240.7,1353.0,6193.0,5.0,1,
186800,1880.5,119.0,176.2,240.5,1690.0,9203.0,4.0,1,
186900,1833.9,121.6,174.9,56.5,1832.0,10116.0,6.0,1,
187000,1850.8,175.8,172.7,30.2,1658.0,7736.0,4.0,1,
187100,1873.7,159.1,173.5,28.8,1912.0,10266.0,5.0,1,
187200,1879.5,133.3,168.8,28.6,1367.0,6158.0,5.0,1,
187300,1846.4,153.5,162.5,28.2,1875.0,9576.0,4.0,1,
187400,1856.4,148.3,160.1,28.0,1870.0,9836.0,4.0,1,
187600,1859.8,140.7,159.8,29.3,1870.0,9836.0,4.0,1,
187700,1859.7,144.2,159.7,38.7,1870.0,9836.0,4.0,1,
187800,1860.2,143.0,159.7,239.9,1870.0,9836.0,4.0,1,
187900,1862.2,146.4,159.5,240.7,1870.0,9836.0,4.0,1,
188000,1861.7,142.6,159.5,240.9,1870.0,9836.0,4.0,1,
188100,1859.8,144.2,159.7,241.1,1870.0,9836.0,4.0,1,
188200,1861.1,144.5,159.6,240.7,1870.0,9836.0,4.0,1,
188300,1858.0,145.2,159.5,240.7,1870.0,9836.0,4.0,1,
188400,1849.6,141.2,160.0,240.8,1519.0,9281.0,7.0,1,
188600,1859.3,202.2,168.4,28.7,1956.0,9879.0,5.0,1,
188700,1874.3,222.6,168.3,28.3,1300.0,6662.0,5.0,1,
188800,1848.6,205.7,173.0,28.2,1998.0,10249.0,4.0,1,
188900,1849.8,131.3,174.2,38.2,1392.0,7450.0,4.0,1,
189000,1858.2,144.9,172.7,39.9,1625.0,7806.0,5.0,1,
189100,1863.7,139.2,172.8,28.1,1625.0,7806.0,5.0,1,
189200,1861.2,140.9,172.8,29.3,1625.0,7806.0,5.0,1,
189300,1860.9,144.6,172.8,54.5,1625.0,7806.0,5.0,1,
189400,1861.0,142.3,172.7,238.4,1625.0,7806.0,5.0,1,
189600,1859.3,143.1,173.1,240.8,1625.0,7806.0,5.0,1,
189700,1860.7,139.6,173.0,240.7,1625.0,7806.0,5.0,1,
189800,1859.0,142.2,172.9,240.6,1625.0,7806.0,5.0,1,
189900,1857.0,146.3,173.0,240.6,1625.0,7806.0,5.0,1,
190000,1858.8,104.4,173.1,240.7,1590.0,9965.0,6.0,1,
190100,1845.5,143.2,171.4,239.5,1517.0,8752.0,5.0,1,
190200,1898.0,192.3,173.4,92.2,1493.0,7208.0,5.0,1,
190300,1828.8,285.7,171.7,89.6,2010.0,10132.0,5.0,1,
190400,1863.0,107.6,173.6,39.5,1318.0,6458.0,4.0,1,
190600,1845.4,152.8,176.4,28.1,1344.0,7426.0,4.0,1,
190700,1871.4,141.7,176.1,28.6,1344.0,7426.0,4.0,1,
190800,1859.0,142.6,176.1,28.5,1344.0,7426.0,4.0,1,
190900,1861.5,142.3,176.1,29.4,1344.0,7426.0,4.0,1,
191000,1860.7,142.2,176.2,146.8,1344.0,7426.0,4.0,1,
191100,1854.4,145.6,176.3,241.2,1344.0,7426.0,4.0,1,
191200,1860.9,144.6,176.1,241.2,1344.0,7426.0,4.0,1,
191300,1858.8,151.7,176.7,240.8,1344.0,7426.0,4.0,1,
191400,1860.6,142.2,177.0,240.6,1344.0,7426.0,4.0,1,
191600,1862.7,141.5,176.8,240.9,1344.0,7426.0,4.0,1,
191700,1887.4,165.6,179.4,240.1,1549.0,8578.0,3.0,1,
191800,1837.2,122.0,176.2,34.9,1918.0,10000.0,5.0,1,
191900,1848.3,122.6,174.0,28.7,1405.0,6534.0,5.0,1,
192000,1863.7,161.5,165.2,28.3,1899.0,10132.0,5.0,1,
192100,1862.7,148.9,167.5,28.6,1191.0,6383.0,4.0,1,
192200,1868.2,139.4,166.3,28.3,1875.0,8955.0,4.0,1,
192300,1852.7,143.8,167.0,28.4,2018.0,10426.0,5.0,1,
192400,1858.5,147.7,167.2,28.9,2018.0,10426.0,5.0,1,
192600,1858.5,142.4,167.1,57.5,2018.0,10426.0,5.0,1,
192700,1858.1,141.9,167.0,240.7,2018.0,10426.0,5.0,1,
192800,1859.1,145.4,167.2,241.2,2018.0,10426.0,5.0,1,
192900,1858.4,149.6,167.1,241.9,2018.0,10426.0,5.0,1,
193000,1856.5,143.5,166.9,241.0,2018.0,10426.0,5.0,1,
193100,1859.5,145.1,166.8,240.5,2018.0,10426.0,5.0,1,
193200,1861.4,145.8,166.8,240.6,2018.0,10426.0,5.0,1,
193300,1849.6,149.6,164.4,240.6,1677.0,9762.0,6.0,1,
193400,1867.0,170.8,161.5,134.0,1584.0,8409.0,4.0,1,
193600,1870.9,153.8,164.1,29.3,1312.0,6318.0,5.0,1,
193700,1858.6,191.6,166.1,28.2,2003.0,10248.0,4.0,1,
193800,1845.5,125.3,168.4,38.9,1568.0,8117.0,4.0,1,
193900,1868.6,148.4,163.7,28.7,1198.0,6196.0,4.0,1,
194000,1862.0,146.6,163.9,27.7,1198.0,6196.0,4.0,1,
194100,1859.3,140.9,163.8,51.8,1198.0,6196.0,4.0,1,
194200,1857.4,138.2,163.4,91.8,1198.0,6196.0,4.0,1,
194300,1856.4,134.8,162.8,240.9,1198.0,6196.0,4.0,1,
194400,1861.9,144.6,162.4,247.6,1198.0,6196.0,4.0,1,
194600,1857.8,146.1,162.2,240.5,1198.0,6196.0,4.0,1,
194700,1859.5,142.9,162.2,240.6,1198.0,6196.0,4.0,1,
194800,1861.9,144.1,162.1,240.8,1198.0,6196.0,4.0,1,
194900,1851.0,150.1,160.8,240.9,1744.0,9432.0,5.0,1,
195000,1854.1,142.7,160.3,92.2,1856.0,9523.0,5.0,1,
195100,1898.7,166.3,158.6,35.0,1311.0,6539.0,5.0,1,
195200,1830.0,142.8,160.4,28.6,1929.0,10670.0,5.0,1,
195300,1859.6,135.0,160.0,28.4,1191.0,7001.0,5.0,1,
195400,1861.0,177.0,161.8,28.3,1904.0,9968.0,5.0,1,
195600,1862.0,144.7,161.6,28.3,1904.0,9968.0,5.0,1,
195700,1857.1,131.2,161.2,28.2,1904.0,9968.0,5.0,1,
195800,1859.0,130.0,160.7,29.7,1904.0,9968.0,5.0,1,
195900,1864.0,127.1,160.1,231.3,1904.0,9968.0,5.0,1,
196000,1858.8,126.1,159.6,241.0,1904.0,9968.0,5.0,1,
196100,1860.2,130.6,158.5,241.0,1904.0,9968.0,5.0,1,
196200,1857.0,129.1,157.4,241.8,1904.0,9968.0,5.0,1,
196300,1855.9,128.7,156.3,241.5,1904.0,9968.0,5.0,1,
196400,1857.0,125.9,155.4,241.0,1904.0,9968.0,5.0,1,
196600,1895.9,152.8,153.8,238.6,1423.0,7553.0,5.0,1,
196700,1837.8,143.8,157.2,39.1,2123.0,10283.0,5.0,1,
196800,1853.3,100.1,154.2,28.2,1353.0,6723.0,5.0,1,
196900,1865.7,120.4,153.5,28.3,1838.0,9850.0,4.0,1,
197000,1855.2,100.4,152.2,29.1,1419.0,7362.0,5.0,1,
197100,1879.0,152.6,147.2,28.5,1581.0,7027.0,4.0,1,
197200,1846.5,122.4,146.8,28.2,1581.0,7027.0,4.0,1,
197300,1861.1,122.7,145.8,28.8,1581.0,7027.0,4.0,1,
197400,1862.5,124.0,145.4,29.7,1581.0,7027.0,4.0,1,
197600,1860.2,129.7,145.2,240.3,1581.0,7027.0,4.0,1,
197700,1859.6,125.6,145.2,240.5,1581.0,7027.0,4.0,1,
197800,1859.0,128.8,145.0,240.6,1581.0,7027.0,4.0,1,
197900,1860.0,126.6,145.0,240.8,1581.0,7027.0,4.0,1,
198000,1864.4,129.8,144.8,240.9,1581.0,7027.0,4.0,1,
198100,1859.2,120.1,145.0,240.9,1581.0,7027.0,4.0,1,
198200,1855.7,140.9,143.4,240.4,1932.0,10451.0,5.0,1,
198300,1868.6,123.5,140.0,92.0,1367.0,6920.0,4.0,1,
198400,1851.0,170.2,145.4,52.5,2013.0,10140.0,5.0,1,
198600,1871.7,138.1,148.3,29.4,1781.0,8265.0,4.0,1,
198700,1845.6,131.7,150.3,29.6,1842.0,8943.0,4.0,1,
198800,1866.2,133.9,147.3,29.1,1519.0,7888.0,4.0,1,
198900,1857.7,128.5,147.9,29.6,1519.0,7888.0,4.0,1,
199000,1859.5,126.2,148.1,86.1,1519.0,7888.0,4.0,1,
199100,1858.4,129.0,148.1,177.6,1519.0,7888.0,4.0,1,
199200,1861.4,128.1,148.2,241.0,1519.0,7888.0,4.0,1,
199300,1858.0,131.3,148.2,241.0,1519.0,7888.0,4.0,1,
199400,1858.8,128.0,148.4,240.9,1519.0,7888.0,4.0,1,
199600,1855.1,129.8,148.4,240.9,1519.0,7888.0,4.0,1,
199700,1858.6,128.4,148.5,241.1,1519.0,7888.0,4.0,1,
199800,1846.7,136.1,151.1,240.5,1404.0,8074.0,3.0,1,
199900,1871.4,149.0,150.3,75.6,1971.0,10149.0,5.0,1,
200000,1891.6,158.6,149.0,34.7,1429.0,6299.0,5.0,1,
200100,1830.1,132.9,145.8,29.1,1949.0,9729.0,5.0,1,
200200,1858.8,128.6,144.6,28.6,1560.0,8403.0,5.0,1,
200300,1863.2,176.3,151.2,28.6,1708.0,7665.0,5.0,1,
200400,1859.5,132.8,152.4,28.1,1868.0,9257.0,4.0,1,
200600,1859.0,124.0,151.6,29.1,1868.0,9257.0,4.0,1,
200700,1859.5,124.7,151.4,39.0,1868.0,9257.0,4.0,1,
200800,1859.8,122.4,151.0,240.5,1868.0,9257.0,4.0,1,
200900,1858.4,121.0,150.9,298.0,1868.0,9257.0,4.0,1,
201000,1859.6,123.1,150.1,298.6,1868.0,9257.0,4.0,1,
201100,1859.1,124.9,150.1,298.3,1868.0,9257.0,4.0,1,
201200,1860.7,126.8,150.0,298.4,1868.0,9257.0,4.0,1,
201300,1858.0,125.2,149.8,295.1,1868.0,9257.0,4.0,1,
201400,1836.7,218.3,148.8,254.5,1741.0,10132.0,6.0,1,
201600,1839.8,106.6,160.4,35.8,2000.0,10313.0,5.0,1,
201700,1850.0,118.0,159.8,35.6,1618.0,7886.0,5.0,1,
201800,1871.8,123.0,158.3,36.4,1812.0,8706.0,4.0,1,
201900,1852.3,151.0,157.3,30.0,1689.0,8838.0,4.0,1,
202000,1868.3,121.2,151.0,29.4,1217.0,6162.0,4.0,1,
202100,1856.3,126.4,151.1,37.3,1217.0,6162.0,4.0,1,
202200,1857.4,127.7,151.2,56.9,1217.0,6162.0,4.0,1,
202300,1860.7,127.2,151.4,75.0,1217.0,6162.0,4.0,1,
202400,1861.5,125.0,151.5,240.5,1217.0,6162.0,4.0,1,
202600,1860.9,129.1,151.8,298.3,1217.0,6162.0,4.0,1,
202700,1860.0,126.9,152.1,298.3,1217.0,6162.0,4.0,1,
202800,1859.1,125.6,152.1,242.4,1217.0,6162.0,4.0,1,
202900,1859.2,127.5,152.0,241.2,1217.0,6162.0,4.0,1,
203000,1884.7,184.4,154.7,241.6,983.0,6225.0,6.0,1,
203100,1826.7,130.0,145.4,92.7,1908.0,10629.0,5.0,1,
203200,1866.0,102.4,142.0,34.3,1360.0,7458.0,6.0,1,
203300,1850.0,141.7,142.6,26.8,2087.0,9897.0,5.0,1,
203400,1862.0,200.7,144.8,27.8,1511.0,7823.0,5.0,1,
203600,1845.2,143.0,149.6,29.1,1909.0,9537.0,5.0,1,
203700,1863.6,126.9,149.8,28.0,1909.0,9537.0,5.0,1,
203800,1859.2,125.5,149.9,27.7,1909.0,9537.0,5.0,1,
203900,1860.9,125.3,149.7,28.5,1909.0,9537.0,5.0,1,
204000,1859.5,127.0,149.7,178.1,1909.0,9537.0,5.0,1,
204100,1859.9,129.9,149.8,297.9,1909.0,9537.0,5.0,1,
204200,1861.1,130.4,149.9,298.5,1909.0,9537.0,5.0,1,
204300,1859.0,130.5,149.9,297.9,1909.0,9537.0,5.0,1,
204400,1860.0,126.1,150.0,274.4,1909.0,9537.0,5.0,1,
204600,1861.1,174.7,149.9,296.3,1909.0,9537.0,5.0,1,
204700,1852.2,112.6,143.8,239.6,1315.0,6654.0,5.0,1,
204800,1860.6,119.7,143.7,55.7,1933.0,10441.0,4.0,1,
204900,1874.4,218.8,145.3,29.6,1414.0,7167.0,5.0,1,
205000,1846.9,142.1,148.9,28.5,1623.0,7796.0,5.0,1,
205100,1851.9,157.0,145.3,27.9,1858.0,9289.0,4.0,1,
205200,1868.7,161.2,145.1,28.3,1383.0,6330.0,4.0,1,
205300,1862.4,130.6,146.1,29.2,1383.0,6330.0,4.0,1,
205400,1859.4,130.1,146.3,29.0,1383.0,6330.0,4.0,1,
205600,1859.6,124.5,146.8,57.6,1383.0,6330.0,4.0,1,
205700,1857.7,127.6,146.8,280.3,1383.0,6330.0,4.0,1,
205800,1859.4,132.8,146.7,242.5,1383.0,6330.0,4.0,1,
205900,1858.8,133.2,146.8,241.6,1383.0,6330.0,4.0,1,
206000,1858.9,138.1,147.4,242.9,1383.0,6330.0,4.0,1,
206100,1862.7,132.7,148.1,240.9,1383.0,6330.0,4.0,1,
206200,1861.0,130.6,148.5,240.6,1383.0,6330.0,4.0,1,
206300,1840.4,134.1,146.2,240.3,1833.0,10775.0,5.0,1,
206400,1890.7,125.6,154.4,57.3,1304.0,7173.0,4.0,1,
206600,1842.9,119.4,151.1,68.4,1801.0,9075.0,5.0,1,
206700,1869.8,135.0,149.8,53.6,1571.0,7024.0,4.0,1,
206800,1859.2,117.7,149.2,28.7,1875.0,9222.0,4.0,1,
206900,1869.6,136.4,148.1,28.6,1629.0,8480.0,5.0,1,
207000,1860.8,131.0,148.3,28.8,1629.0,8480.0,5.0,1,
207100,1859.9,129.6,148.6,29.5,1629.0,8480.0,5.0,1,
207200,1862.3,134.2,148.6,67.6,1629.0,8480.0,5.0,1,
207300,1856.5,137.5,149.1,240.5,1629.0,8480.0,5.0,1,
207400,1858.8,130.8,149.5,240.9,1629.0,8480.0,5.0,1,
207600,1857.5,132.3,149.3,241.1,1629.0,8480.0,5.0,1,
207700,1859.0,133.0,149.1,241.1,1629.0,8480.0,5.0,1,
207800,1859.7,134.0,149.1,242.1,1629.0,8480.0,5.0,1,
207900,1875.5,139.3,149.4,241.1,1122.0,6462.0,6.0,1,
208000,1837.2,157.6,143.1,124.0,1963.0,10172.0,5.0,1,
208100,1863.5,124.8,152.5,29.5,1572.0,8244.0,5.0,1,
208200,1846.9,223.2,149.9,28.2,1810.0,8378.0,4.0,1,
208300,1845.4,195.7,159.5,28.2,1736.0,9088.0,5.0,1,
208400,1897.3,140.3,162.0,28.7,1249.0,6268.0,4.0,1,
208600,1861.1,134.8,162.9,28.2,1249.0,6268.0,4.0,1,
208700,1860.4,136.3,162.9,29.0,1249.0,6268.0,4.0,1,
208800,1861.5,136.6,163.1,50.5,1249.0,6268.0,4.0,1,
208900,1859.3,136.0,163.3,240.0,1249.0,6268.0,4.0,1,
209000,1859.0,139.2,163.2,241.8,1249.0,6268.0,4.0,1,
209100,1862.9,135.4,163.6,241.1,1249.0,6268.0,4.0,1,
209200,1862.2,133.8,163.5,241.2,1249.0,6268.0,4.0,1,
209300,1861.0,139.6,163.6,241.0,1249.0,6268.0,4.0,1,
209400,1863.7,135.4,163.9,241.2,1249.0,6268.0,4.0,1,
209600,1856.6,145.6,164.0,200.9,1402.0,6795.0,5.0,1,
209700,1868.4,138.9,155.3,91.1,1822.0,9324.0,5.0,1,
209800,1861.5,102.6,156.8,79.7,1603.0,8592.0,5.0,1,
209900,1861.2,131.9,147.5,29.3,1345.0,6316.0,5.0,1,
210000,1848.5,123.6,143.4,28.1,1920.0,10006.0,4.0,1,
210100,1865.5,127.9,142.9,28.5,1216.0,6841.0,5.0,1,
210200,1863.9,137.8,143.2,29.7,1216.0,6841.0,5.0,1,
210300,1857.7,134.5,143.4,29.3,1216.0,6841.0,5.0,1,
210400,1861.0,132.1,143.5,36.8,1216.0,6841.0,5.0,1,
210600,1859.7,131.4,143.6,241.0,1216.0,6841.0,5.0,1,
210700,1860.5,132.4,143.2,240.8,1216.0,6841.0,5.0,1,
210800,1859.3,135.1,143.3,240.8,1216.0,6841.0,5.0,1,
210900,1860.5,136.3,143.6,241.1,1216.0,6841.0,5.0,1,
211000,1858.1,135.3,143.7,241.1,1216.0,6841.0,5.0,1,
211100,1859.8,128.3,143.7,241.0,1068.0,6488.0,6.0,1,
211200,1859.4,174.8,143.6,239.4,1952.0,10959.0,5.0,1,
211300,1884.5,144.6,155.1,57.0,1620.0,8380.0,5.0,1,
211400,1854.0,175.1,154.9,46.9,1551.0,6859.0,5.0,1,
211600,1864.3,126.5,160.1,37.4,1221.0,6198.0,4.0,1,
211700,1863.7,169.9,160.2,27.6,1937.0,9750.0,4.0,1,
211800,1860.9,139.3,161.5,37.6,1937.0,9750.0,4.0,1,
211900,1857.1,138.8,161.5,37.5,1937.0,9750.0,4.0,1,
212000,1856.6,138.2,161.8,38.2,1937.0,9750.0,4.0,1,
212100,1860.6,137.0,161.9,131.2,1937.0,9750.0,4.0,1,
212200,1859.3,140.4,162.3,240.8,1937.0,9750.0,4.0,1,
212300,1857.5,140.0,162.8,241.1,1937.0,9750.0,4.0,1,
212400,1859.3,136.6,162.8,240.8,1937.0,9750.0,4.0,1,
212600,1858.9,137.7,162.9,240.8,1937.0,9750.0,4.0,1,
212700,1860.6,145.7,162.9,241.3,1937.0,9750.0,4.0,1,
212800,1875.2,141.8,165.8,240.6,1412.0,8385.0,6.0,1,
212900,1839.2,190.0,161.6,38.8,1647.0,8203.0,5.0,1,
213000,1867.5,151.8,163.4,29.0,2037.0,9734.0,5.0,1,
213100,1851.1,132.7,162.7,28.5,1472.0,6418.0,5.0,1,
213200,1848.5,234.1,158.9,28.5,1925.0,10310.0,4.0,1,
213300,1906.7,154.1,169.1,28.5,1104.0,6915.0,4.0,1,
213400,1834.5,129.9,167.5,27.9,1193.0,5926.0,4.0,1,
213600,1858.9,135.1,167.3,28.2,1193.0,5926.0,4.0,1,
213700,1859.1,132.9,167.4,66.2,1193.0,5926.0,4.0,1,
213800,1858.6,134.6,167.1,240.8,1193.0,5926.0,4.0,1,
213900,1857.7,134.9,166.7,241.1,1193.0,5926.0,4.0,1,
214000,1859.0,133.1,166.7,240.8,1193.0,5926.0,4.0,1,
214100,1857.2,139.6,166.8,240.7,1193.0,5926.0,4.0,1,
214200,1861.6,139.0,166.9,240.9,1193.0,5926.0,4.0,1,
214300,1858.3,134.6,167.0,242.7,1193.0,5926.0,4.0,1,
214400,1852.3,100.3,164.9,242.0,1643.0,8570.0,4.0,1,
214600,1871.1,150.4,159.2,41.4,1473.0,7124.0,4.0,1,
214700,1852.2,119.6,159.5,28.7,1993.0,10015.0,5.0,1,
214800,1877.0,211.0,159.3,28.5,1222.0,6449.0,5.0,1,
214900,1850.0,128.3,153.7,28.6,1876.0,9174.0,4.0,1,
215000,1857.7,146.7,154.3,28.5,1904.0,9626.0,5.0,1,
215100,1862.1,139.5,154.9,28.6,1904.0,9626.0,5.0,1,
215200,1859.6,140.1,155.4,28.8,1904.0,9626.0,5.0,1,
215300,1858.3,141.0,155.7,53.1,1904.0,9626.0,5.0,1,
215400,1858.5,141.4,156.3,240.3,1904.0,9626.0,5.0,1,
215600,1859.5,138.7,157.1,241.1,1904.0,9626.0,5.0,1,
215700,1860.3,137.4,157.1,241.1,1904.0,9626.0,5.0,1,
215800,1856.5,135.6,156.9,240.7,1904.0,9626.0,5.0,1,
215900,1858.0,135.0,156.8,241.2,1904.0,9626.0,5.0,1,
216000,1855.9,158.8,162.3,241.0,1344.0,8321.0,7.0,1,
216100,1858.0,154.0,164.1,43.3,1692.0,8351.0,5.0,1,
216200,1878.9,158.5,166.8,28.4,1915.0,9946.0,4.0,1,
216300,1876.6,140.5,168.7,28.9,1383.0,6178.0,5.0,1,
216400,1829.8,117.0,167.8,29.3,1940.0,9980.0,5.0,1,
216600,1868.8,143.8,171.7,28.2,1448.0,6376.0,5.0,1,
216700,1863.8,134.8,171.3,29.3,1448.0,6376.0,5.0,1,
216800,1856.7,136.9,171.1,30.2,1448.0,6376.0,5.0,1,
216900,1860.8,134.0,171.0,45.1,1448.0,6376.0,5.0,1,
217000,1857.5,135.4,170.7,202.4,1448.0,6376.0,5.0,1,
217100,1856.0,137.2,170.4,241.1,1448.0,6376.0,5.0,1,
217200,1859.5,138.6,170.1,240.9,1448.0,6376.0,5.0,1,
217300,1861.7,134.2,170.1,240.9,1448.0,6376.0,5.0,1,
217400,1860.0,136.4,170.0,240.8,1448.0,6376.0,5.0,1,
217600,1867.5,135.2,169.7,247.2,1479.0,8330.0,4.0,1,
217700,1867.8,142.1,165.3,177.8,1911.0,10045.0,5.0,1,
217800,1849.4,157.8,166.4,50.5,1270.0,6394.0,5.0,1,
217900,1864.2,173.5,164.2,28.7,2051.0,10518.0,5.0,1,
218000,1853.2,144.0,165.5,28.5,1359.0,6241.0,5.0,1,
218100,1852.1,153.8,166.3,28.7,1804.0,9249.0,4.0,1,
218200,1897.3,141.5,158.3,28.6,1491.0,8480.0,5.0,1,
218300,1843.2,139.9,158.8,28.4,1491.0,8480.0,5.0,1,
218400,1860.5,136.6,159.0,28.5,1491.0,8480.0,5.0,1,
218600,1861.3,135.8,159.1,178.6,1491.0,8480.0,5.0,1,
218700,1860.7,140.6,159.2,240.8,1491.0,8480.0,5.0,1,
218800,1861.9,135.5,159.2,240.8,1491.0,8480.0,5.0,1,
218900,1862.6,135.9,158.9,240.8,1491.0,8480.0,5.0,1,
219000,1857.6,136.3,159.1,240.8,1491.0,8480.0,5.0,1,
219100,1860.8,134.4,159.2,241.0,1491.0,8480.0,5.0,1,
219200,1862.3,113.3,159.1,240.8,1491.0,8480.0,5.0,1,
219300,1851.2,165.1,160.4,240.3,1195.0,6976.0,5.0,1,
219400,1857.9,159.0,154.4,88.2,2003.0,10757.0,5.0,1,
219600,1848.9,137.5,154.3,28.1,2025.0,10221.0,5.0,1,
219700,1890.2,220.4,153.6,28.3,1552.0,8016.0,5.0,1,
219800,1845.7,159.6,156.1,28.7,1462.0,6629.0,4.0,1,
219900,1859.5,137.7,156.3,28.2,1800.0,8514.0,4.0,1,
220000,1857.9,134.3,156.4,29.2,1800.0,8514.0,4.0,1,
220100,1860.6,135.8,156.4,37.5,1800.0,8514.0,4.0,1,
220200,1859.7,136.9,156.6,93.8,1800.0,8514.0,4.0,1,
220300,1860.7,139.0,156.5,240.9,1800.0,8514.0,4.0,1,
220400,1859.6,136.4,156.4,241.0,1800.0,8514.0,4.0,1,
220600,1857.5,138.3,157.1,240.9,1800.0,8514.0,4.0,1,
220700,1856.9,141.8,157.4,240.9,1800.0,8514.0,4.0,1,
220800,1862.1,131.8,157.6,240.9,1800.0,8514.0,4.0,1,
220900,1850.7,208.6,165.4,240.3,1852.0,10237.0,6.0,1,
221000,1854.8,172.5,163.9,47.8,1280.0,6765.0,5.0,1,
221100,1864.4,115.9,164.5,29.4,2022.0,10622.0,4.0,1,
221200,1884.8,116.8,164.5,29.1,1253.0,7105.0,5.0,1,
221300,1827.0,148.1,165.3,28.6,1669.0,7728.0,5.0,1,
221400,1870.9,161.2,168.3,28.5,1582.0,8230.0,5.0,1,
221600,1860.1,134.8,167.3,29.3,1582.0,8230.0,5.0,1,
221700,1861.1,133.7,167.4,28.9,1582.0,8230.0,5.0,1,
221800,1858.9,141.2,167.5,52.7,1582.0,8230.0,5.0,1,
221900,1859.1,138.1,167.9,241.1,1582.0,8230.0,5.0,1,
222000,1862.8,136.8,167.9,241.1,1582.0,8230.0,5.0,1,
222100,1860.8,134.1,167.8,240.9,1582.0,8230.0,5.0,1,
222200,1857.6,142.7,168.0,241.1,1582.0,8230.0,5.0,1,
222300,1860.3,145.5,168.3,241.0,1582.0,8230.0,5.0,1,
222400,1860.3,143.6,168.7,240.8,1582.0,8230.0,5.0,1,
222600,1874.3,230.8,161.8,177.0,2051.0,10455.0,5.0,1,
222700,1861.9,114.3,163.4,29.5,1280.0,6421.0,4.0,1,
222800,1851.4,151.1,163.7,28.5,1902.0,9371.0,5.0,1,
222900,1852.3,171.2,166.5,30.1,1275.0,7292.0,4.0,1,
223000,1865.0,215.5,160.7,28.8,1613.0,7164.0,4.0,1,
223100,1867.7,143.2,168.9,28.1,1932.0,9836.0,5.0,1,
223200,1861.0,135.9,168.9,28.0,1932.0,9836.0,5.0,1,
223300,1855.9,138.3,169.0,37.7,1932.0,9836.0,5.0,1,
223400,1858.5,135.3,169.0,44.1,1932.0,9836.0,5.0,1,
223600,1859.7,136.7,168.7,241.1,1932.0,9836.0,5.0,1,
223700,1858.8,134.9,168.6,241.9,1932.0,9836.0,5.0,1,
223800,1861.5,136.5,168.4,242.1,1932.0,9836.0,5.0,1,
223900,1859.7,135.4,168.0,240.9,1932.0,9836.0,5.0,1,
224000,1862.6,136.6,167.4,240.8,1932.0,9836.0,5.0,1,
224100,1889.8,146.7,167.9,240.9,1715.0,10446.0,6.0,1,
224200,1829.1,185.4,167.4,220.1,1311.0,6657.0,5.0,1,
224300,1855.2,182.1,164.9,38.9,1992.0,10786.0,5.0,1,
224400,1868.6,121.7,167.3,29.1,1263.0,6857.0,4.0,1,
224600,1891.8,159.2,173.9,28.6,1726.0,9119.0,5.0,1,
224700,1849.7,153.1,167.7,28.9,1219.0,6263.0,4.0,1,
224800,1861.2,138.2,168.0,28.1,1219.0,6263.0,4.0,1,
224900,1860.9,138.1,168.0,27.8,1219.0,6263.0,4.0,1,
225000,1862.6,134.8,168.1,28.9,1219.0,6263.0,4.0,1,
225100,1859.0,136.0,168.2,177.4,1219.0,6263.0,4.0,1,
225200,1858.4,136.6,168.3,241.1,1219.0,6263.0,4.0,1,
225300,1860.8,140.1,168.5,241.0,1219.0,6263.0,4.0,1,
225400,1859.8,135.9,168.9,241.5,1219.0,6263.0,4.0,1,
225600,1858.6,133.8,169.1,240.8,1219.0,6263.0,4.0,1,
225700,1860.9,150.4,168.9,241.1,1219.0,6263.0,4.0,1,
225800,1841.6,152.0,168.7,239.5,1854.0,11179.0,5.0,1,
225900,1869.9,138.5,165.9,38.9,1390.0,6129.0,5.0,1,
226000,1854.1,160.2,165.3,28.5,1952.0,10446.0,4.0,1,
226100,1890.8,170.1,167.1,28.8,1632.0,8116.0,4.0,1,
226200,1827.6,198.6,157.8,28.4,1470.0,6607.0,5.0,1,
226300,1869.3,139.7,160.1,28.2,1890.0,9819.0,4.0,1,
226400,1859.5,139.0,158.8,48.6,1703.0,9079.0,5.0,1,
226600,1860.0,139.2,159.0,55.8,1703.0,9079.0,5.0,1,
226700,1860.5,135.6,159.0,145.0,1703.0,9079.0,5.0,1,
226800,1860.2,138.9,159.0,241.0,1703.0,9079.0,5.0,1,
226900,1859.4,135.6,159.0,240.9,1703.0,9079.0,5.0,1,
227000,1859.3,136.0,158.8,240.5,1703.0,9079.0,5.0,1,
227100,1860.2,139.9,159.0,240.6,1703.0,9079.0,5.0,1,
227200,1859.9,137.9,159.1,241.1,1703.0,9079.0,5.0,1,
227300,1862.0,137.7,159.2,240.8,1703.0,9079.0,5.0,1,
227400,1851.6,184.2,164.6,240.4,1195.0,6340.0,6.0,1,
227600,1872.4,140.9,168.7,28.8,1297.0,7382.0,5.0,1,
227700,1847.6,202.8,168.7,28.7,1805.0,7832.0,5.0,1,
227800,1853.2,223.4,169.2,41.1,1514.0,8288.0,4.0,1,
227900,1865.0,170.9,178.6,30.3,1370.0,6306.0,4.0,1,
228000,1859.3,141.9,179.4,27.8,1721.0,7565.0,4.0,1,
228100,1857.2,139.8,179.5,38.4,1721.0,7565.0,4.0,1,
228200,1859.6,136.6,179.8,77.2,1721.0,7565.0,4.0,1,
228300,1859.1,133.3,179.6,90.8,1721.0,7565.0,4.0,1,
228400,1860.8,125.5,179.4,240.1,1721.0,7565.0,4.0,1,
228600,1861.0,110.5,177.2,240.9,1721.0,7565.0,4.0,1,
228700,1857.8,102.3,175.6,240.9,1721.0,7565.0,4.0,1,
228800,1858.7,94.5,173.6,240.5,1721.0,7565.0,4.0,1,
228900,1862.2,83.2,171.3,240.3,1721.0,7565.0,4.0,1,
229000,1884.2,114.8,169.4,240.2,1654.0,9381.0,6.0,1,
229100,1843.4,130.1,168.4,46.6,1446.0,6972.0,4.0,1,
229200,1847.2,92.2,164.1,36.5,1762.0,8343.0,4.0,1,
229300,1868.6,118.7,165.9,29.8,1488.0,7559.0,5.0,1,
229400,1861.8,193.8,170.0,29.5,1606.0,6823.0,5.0,1,
229600,1847.1,123.9,169.0,36.1,1295.0,7262.0,4.0,1,
229700,1859.4,90.8,166.3,26.9,1295.0,7262.0,4.0,1,
229800,1859.0,102.7,164.0,26.6,1295.0,7262.0,4.0,1,
229900,1859.6,101.7,162.3,37.2,1295.0,7262.0,4.0,1,
230000,1859.6,100.9,160.7,139.6,1295.0,7262.0,4.0,1,
230100,1859.3,104.5,159.6,240.5,1295.0,7262.0,4.0,1,
230200,1860.0,103.6,159.0,240.8,1295.0,7262.0,4.0,1,
230300,1860.5,99.0,158.7,241.0,1295.0,7262.0,4.0,1,
230400,1859.8,99.4,158.6,240.9,1295.0,7262.0,4.0,1,
230600,1874.8,100.1,155.4,240.9,1089.0,6597.0,7.0,1,
230700,1838.4,157.2,158.2,177.6,1836.0,9910.0,4.0,1,
230800,1868.6,130.7,154.2,35.7,1293.0,6998.0,5.0,1,
230900,1846.4,123.1,160.7,29.2,1952.0,8782.0,4.0,1,
231000,1896.3,213.5,158.1,28.9,1771.0,8789.0,4.0,1,
231100,1829.0,192.7,154.4,28.9,1336.0,5982.0,5.0,1,
231200,1864.9,109.5,146.4,38.3,1878.0,9092.0,4.0,1,
231300,1865.8,103.8,147.0,75.9,1878.0,9092.0,4.0,1,
231400,1859.9,104.4,147.4,66.0,1878.0,9092.0,4.0,1,
231600,1860.4,103.5,147.5,188.3,1878.0,9092.0,4.0,1,
231700,1860.1,107.2,147.6,240.5,1878.0,9092.0,4.0,1,
231800,1856.5,105.0,147.7,240.6,1878.0,9092.0,4.0,1,
231900,1861.9,108.1,147.9,240.5,1878.0,9092.0,4.0,1,
232000,1857.2,109.4,148.4,241.1,1878.0,9092.0,4.0,1,
232100,1861.7,110.8,148.9,242.3,1878.0,9092.0,4.0,1,
232200,1859.5,122.8,149.4,240.7,1878.0,9092.0,4.0,1,
232300,1845.8,150.5,150.9,239.4,1392.0,6616.0,6.0,1,
232400,1862.2,136.6,151.4,56.9,1995.0,9793.0,5.0,1,
232600,1841.0,221.4,148.7,29.2,1586.0,6821.0,5.0,1,
232700,1851.5,108.3,147.0,29.9,1857.0,9448.0,4.0,1,
232800,1870.0,101.2,141.3,28.1,1264.0,6201.0,5.0,1,
232900,1857.3,108.6,141.7,27.9,1264.0,6201.0,5.0,1,
233000,1859.0,111.5,141.9,28.3,1264.0,6201.0,5.0,1,
233100,1859.1,109.6,142.1,35.9,1264.0,6201.0,5.0,1,
233200,1858.1,112.1,142.6,177.0,1264.0,6201.0,5.0,1,
233300,1858.9,104.8,143.0,240.8,1264.0,6201.0,5.0,1,
233400,1859.9,109.6,143.1,240.3,1264.0,6201.0,5.0,1,
233600,1858.2,109.1,143.2,241.0,1264.0,6201.0,5.0,1,
233700,1861.0,109.2,143.3,240.6,1264.0,6201.0,5.0,1,
233800,1859.2,123.3,143.2,240.7,1264.0,6201.0,5.0,1,
233900,1870.6,135.7,147.7,240.1,1811.0,10351.0,6.0,1,
234000,1854.7,103.8,144.1,57.0,1421.0,7656.0,5.0,1,
234100,1853.0,144.0,138.2,47.6,1676.0,7834.0,4.0,1,
234200,1868.0,92.5,139.1,34.6,1651.0,8239.0,4.0,1,
234300,1851.0,106.7,130.4,29.0,1448.0,6353.0,4.0,1,
234400,1879.1,105.6,131.3,28.4,1820.0,9432.0,4.0,1,
234600,1855.9,107.7,131.4,28.4,1820.0,9432.0,4.0,1,
234700,1860.2,110.1,131.2,28.2,1820.0,9432.0,4.0,1,
234800,1857.2,110.8,131.2,57.6,1820.0,9432.0,4.0,1,
234900,1860.8,112.3,131.1,241.1,1820.0,9432.0,4.0,1,
235000,1859.5,110.7,131.4,242.1,1820.0,9432.0,4.0,1,
235100,1858.8,114.5,131.4,241.5,1820.0,9432.0,4.0,1,
235200,1860.6,112.0,131.6,241.7,1820.0,9432.0,4.0,1,
235300,1858.4,114.5,131.6,240.8,1820.0,9432.0,4.0,1,
235400,1858.4,114.3,132.0,240.5,1820.0,9432.0,4.0,1,
235600,1833.3,108.3,125.6,141.0,1866.0,9208.0,5.0,1,
235700,1872.3,136.3,127.1,83.2,1539.0,7809.0,5.0,1,
235800,1851.8,159.0,130.1,30.0,1729.0,7427.0,4.0,1,
235900,1896.8,285.0,136.4,29.5,1896.0,9087.0,4.0,1,
236000,1830.6,118.5,145.7,29.1,1301.0,6343.0,5.0,1,
236100,1871.3,113.8,146.3,34.3,1686.0,7121.0,5.0,1,
236200,1859.1,109.9,146.4,40.8,1686.0,7121.0,5.0,1,
236300,1859.5,114.4,146.5,41.3,1686.0,7121.0,5.0,1,
236400,1859.4,112.5,146.7,56.5,1686.0,7121.0,5.0,1,
236600,1858.1,109.1,146.8,240.7,1686.0,7121.0,5.0,1,
236700,1858.8,109.7,146.8,241.0,1686.0,7121.0,5.0,1,
236800,1857.8,111.4,146.6,240.9,1686.0,7121.0,5.0,1,
236900,1859.5,113.3,146.6,241.0,1686.0,7121.0,5.0,1,
237000,1860.6,110.1,146.7,241.0,1686.0,7121.0,5.0,1,
237100,1865.4,139.8,145.9,240.9,1581.0,9338.0,7.0,1,
237200,1851.3,124.9,148.8,188.7,1409.0,6858.0,4.0,1,
237300,1850.8,107.1,147.7,55.7,1820.0,8617.0,5.0,1,
237400,1898.8,135.0,148.7,29.8,1605.0,8596.0,4.0,1,
237600,1857.6,113.6,137.0,39.5,1878.0,9687.0,4.0,1,
237700,1869.9,112.5,137.4,38.2,1310.0,7306.0,5.0,1,
237800,1863.2,111.2,137.2,28.0,1310.0,7306.0,5.0,1,
237900,1859.1,113.6,137.2,27.8,1310.0,7306.0,5.0,1,
238000,1859.3,111.2,137.1,56.3,1310.0,7306.0,5.0,1,
238100,1861.0,109.8,137.1,239.4,1310.0,7306.0,5.0,1,
238200,1860.7,112.0,137.2,241.0,1310.0,7306.0,5.0,1,
238300,1856.3,110.1,137.3,240.9,1310.0,7306.0,5.0,1,
238400,1861.8,115.2,137.2,240.4,1310.0,7306.0,5.0,1,
238600,1860.1,112.0,137.3,241.1,1310.0,7306.0,5.0,1,
238700,1862.3,163.5,137.5,241.1,1062.0,6625.0,5.0,1,
238800,1849.0,167.0,139.5,177.8,1825.0,9847.0,4.0,1,
238900,1877.7,87.5,142.5,36.8,1642.0,8229.0,5.0,1,
239000,1847.2,178.7,149.5,34.2,1510.0,6579.0,4.0,1,
239100,1850.0,137.3,150.9,29.3,1864.0,9219.0,5.0,1,
239200,1861.2,112.1,147.8,28.8,1272.0,6108.0,5.0,1,
239300,1872.1,133.7,154.8,28.8,1886.0,9166.0,4.0,1,
239400,1850.2,111.1,154.5,29.0,1886.0,9166.0,4.0,1,
239600,1858.6,107.2,154.4,29.0,1886.0,9166.0,4.0,1,
239700,1859.2,109.9,154.3,71.8,1886.0,9166.0,4.0,1,
239800,1858.4,112.5,154.4,240.4,1886.0,9166.0,4.0,1,
239900,1860.1,107.6,154.1,240.5,1886.0,9166.0,4.0,1,
240000,1859.5,106.4,153.9,240.4,1886.0,9166.0,4.0,1,
240100,1859.9,106.5,153.4,240.6,1886.0,9166.0,4.0,1,
240200,1861.1,106.3,153.1,240.9,1886.0,9166.0,4.0,1,
240300,1860.1,101.5,152.8,241.0,1886.0,9166.0,4.0,1,
240400,1862.7,143.3,155.2,239.9,1340.0,8149.0,5.0,1,
240600,1868.2,128.7,147.9,30.1,1564.0,7899.0,5.0,1,
240700,1862.9,143.8,142.9,29.4,1435.0,6340.0,5.0,1,
240800,1870.1,287.7,144.0,29.1,1867.0,9333.0,5.0,1,
240900,1845.3,109.3,148.2,28.0,1262.0,6792.0,4.0,1,
241000,1854.7,119.8,148.0,29.2,1280.0,6249.0,5.0,1,
241100,1859.7,121.1,148.4,43.4,1280.0,6249.0,5.0,1,
241200,1859.0,124.9,149.2,56.4,1280.0,6249.0,5.0,1,
241300,1859.5,126.7,150.1,116.7,1280.0,6249.0,5.0,1,
241400,1857.5,126.5,150.9,240.9,1280.0,6249.0,5.0,1,
241600,1856.5,124.6,153.3,242.7,1280.0,6249.0,5.0,1,
241700,1860.8,119.0,154.3,240.9,1280.0,6249.0,5.0,1,
241800,1858.4,120.7,155.2,240.8,1280.0,6249.0,5.0,1,
241900,1860.9,119.5,155.9,240.9,1280.0,6249.0,5.0,1,
242000,1853.0,200.4,154.3,240.8,1600.0,8723.0,4.0,1,
242100,1857.8,122.7,156.1,72.8,1428.0,7748.0,5.0,1,
242200,1850.4,150.3,153.6,41.2,1585.0,7639.0,4.0,1,
242300,1902.7,186.3,157.6,28.3,1842.0,9123.0,4.0,1,
242400,1825.9,105.5,159.7,28.6,1312.0,5873.0,5.0,1,
242600,1861.7,115.4,156.6,28.6,1699.0,8721.0,5.0,1,
242700,1861.8,116.0,156.4,27.7,1699.0,8721.0,5.0,1,
242800,1860.6,116.2,156.1,27.8,1699.0,8721.0,5.0,1,
242900,1860.3,119.3,155.7,38.5,1699.0,8721.0,5.0,1,
243000,1859.6,118.0,155.3,240.5,1699.0,8721.0,5.0,1,
243100,1857.5,117.2,154.9,240.9,1699.0,8721.0,5.0,1,
243200,1859.3,114.3,154.0,241.0,1699.0,8721.0,5.0,1,
243300,1861.7,125.4,153.5,241.0,1699.0,8721.0,5.0,1,
243400,1860.3,142.9,154.3,241.1,1699.0,8721.0,5.0,1,
243600,1864.8,255.9,164.7,240.1,1097.0,7555.0,4.0,1,
243700,1849.4,133.1,166.8,85.6,2130.0,9849.0,4.0,1,
243800,1889.8,157.0,171.0,40.3,1758.0,9226.0,5.0,1,
243900,1850.3,159.2,171.6,36.1,1312.0,6180.0,5.0,1,
244000,1851.8,177.3,175.1,30.0,2011.0,9069.0,2.0,0,
244100,1866.3,360.0,193.6,29.5,1025.0,5067.0,23.0,1,
244200,1869.1,173.7,213.6,77.5,1660.0,6192.0,2.0,0,
244300,1862.8,152.1,215.1,99.9,1660.0,6192.0,2.0,0,
244400,1860.0,150.7,216.6,99.8,1660.0,6192.0,2.0,0,
244600,1860.2,138.6,219.5,240.0,1660.0,6192.0,2.0,0,
244700,1856.5,125.4,220.2,241.2,1660.0,6192.0,2.0,0,
244800,1862.3,119.6,220.3,240.9,1660.0,6192.0,2.0,0,
244900,1858.9,116.2,220.4,240.9,1660.0,6192.0,2.0,0,
245000,1858.9,122.8,220.0,241.3,1660.0,6192.0,2.0,0,
245100,1862.5,125.2,218.9,242.8,1660.0,6192.0,2.0,0,
245200,1868.4,124.3,216.0,240.7,1585.0,9276.0,6.0,1,
245300,1861.2,101.4,208.7,228.0,1522.0,8625.0,6.0,1,
245400,1839.1,139.0,204.9,57.3,1475.0,6988.0,5.0,1,
245600,1856.5,167.5,203.7,29.3,1323.0,6025.0,5.0,1,
245700,1877.8,168.4,182.3,29.3,1867.0,9841.0,5.0,1,
245800,1857.2,128.4,152.5,28.3,1379.0,7455.0,5.0,1,
245900,1855.5,122.7,151.1,27.9,1379.0,7455.0,5.0,1,
246000,1859.7,123.3,149.2,28.1,1379.0,7455.0,5.0,1,
246100,1858.6,126.9,147.3,29.5,1379.0,7455.0,5.0,1,
246200,1859.2,126.6,145.8,178.0,1379.0,7455.0,5.0,1,
246300,1858.5,119.7,145.1,240.9,1379.0,7455.0,5.0,1,
246400,1861.8,114.9,144.4,241.1,1379.0,7455.0,5.0,1,
246600,1858.5,114.0,143.4,241.0,1379.0,7455.0,5.0,1,
246700,1861.6,125.3,143.0,241.0,1379.0,7455.0,5.0,1,
246800,1859.9,136.9,143.5,241.5,1379.0,7455.0,5.0,1,
246900,1845.6,146.3,144.9,239.9,1445.0,7838.0,3.0,1,
247000,1857.1,137.0,145.4,52.5,1662.0,8542.0,5.0,1,
247100,1853.0,152.0,147.3,29.0,1401.0,6374.0,4.0,1,
247200,1905.7,130.9,149.2,28.2,1946.0,9665.0,5.0,1,
247300,1830.0,111.7,145.7,28.1,1247.0,7064.0,4.0,1,
247400,1860.8,136.8,145.6,28.6,1828.0,8205.0,4.0,1,
247600,1861.1,124.5,145.2,29.2,1828.0,8205.0,4.0,1,
247700,1859.9,123.5,145.0,29.8,1828.0,8205.0,4.0,1,
247800,1858.0,126.0,144.8,90.3,1828.0,8205.0,4.0,1,
247900,1860.1,128.1,144.7,240.8,1828.0,8205.0,4.0,1,
248000,1860.0,125.2,145.0,241.1,1828.0,8205.0,4.0,1,
248100,1860.2,125.7,145.8,242.5,1828.0,8205.0,4.0,1,
248200,1860.1,123.2,146.6,241.8,1828.0,8205.0,4.0,1,
248300,1858.3,122.6,147.2,241.5,1828.0,8205.0,4.0,1,
248400,1862.1,125.0,146.9,241.2,1828.0,8205.0,4.0,1,
248600,1838.3,162.6,147.2,89.1,1594.0,7446.0,4.0,1,
248700,1898.7,140.8,147.7,79.6,1841.0,9566.0,5.0,1,
248800,1847.7,113.5,145.1,84.7,1337.0,6019.0,5.0,1,
248900,1846.6,126.8,143.7,35.8,1846.0,9108.0,5.0,1,
249000,1865.5,164.4,143.9,28.6,1291.0,7322.0,5.0,1,
249100,1868.0,135.4,150.6,28.4,1313.0,6214.0,4.0,1,
249200,1856.8,124.1,150.6,28.0,1313.0,6214.0,4.0,1,
249300,1861.9,123.6,150.7,28.0,1313.0,6214.0,4.0,1,
249400,1858.5,123.6,150.7,35.8,1313.0,6214.0,4.0,1,
249600,1859.1,125.1,150.7,240.7,1313.0,6214.0,4.0,1,
249700,1858.7,124.5,150.7,241.0,1313.0,6214.0,4.0,1,
249800,1859.5,121.7,150.8,241.2,1313.0,6214.0,4.0,1,
249900,1859.6,122.2,150.7,241.0,1313.0,6214.0,4.0,1,
250000,1858.2,121.3,150.7,241.1,1313.0,6214.0,4.0,1,
250100,1865.2,149.7,150.5,241.1,1515.0,8259.0,4.0,1,
250200,1875.1,168.8,154.4,55.8,1905.0,9871.0,4.0,1,
250300,1837.1,131.4,153.3,28.3,1253.0,6219.0,5.0,1,
250400,1874.8,160.6,153.8,28.0,1884.0,9546.0,4.0,1,
250600,1862.4,228.1,156.8,28.1,1795.0,8888.0,5.0,1,
250700,1869.4,137.4,155.4,28.5,1914.0,9390.0,4.0,1,
250800,1860.6,129.8,155.4,29.4,1914.0,9390.0,4.0,1,
250900,1855.2,129.4,155.7,30.1,1914.0,9390.0,4.0,1,
251000,1859.1,125.7,155.9,57.4,1914.0,9390.0,4.0,1,
251100,1862.8,125.2,155.9,239.3,1914.0,9390.0,4.0,1,
251200,1860.6,128.0,155.9,241.2,1914.0,9390.0,4.0,1,
251300,1859.0,127.1,156.0,241.9,1914.0,9390.0,4.0,1,
251400,1858.8,125.1,156.1,240.9,1914.0,9390.0,4.0,1,
251600,1859.6,108.7,155.5,241.2,1914.0,9390.0,4.0,1,
251700,1875.4,114.7,154.7,241.7,1542.0,9196.0,6.0,1,
251800,1823.5,138.9,150.3,238.2,1265.0,6946.0,4.0,1,
251900,1863.8,149.4,149.8,57.3,1900.0,9589.0,5.0,1,
252000,1869.6,170.7,157.1,29.9,1183.0,6280.0,4.0,1,
252100,1877.8,129.4,158.5,27.6,1883.0,9873.0,5.0,1,
252200,1833.0,110.0,158.1,35.9,1489.0,7724.0,5.0,1,
252300,1855.6,144.0,156.4,38.9,1534.0,6657.0,4.0,1,
252400,1865.5,130.8,156.8,30.3,1534.0,6657.0,4.0,1,
252600,1859.6,131.9,157.1,30.1,1534.0,6657.0,4.0,1,
252700,1858.8,129.8,157.3,178.7,1534.0,6657.0,4.0,1,
252800,1860.3,130.3,157.8,242.1,1534.0,6657.0,4.0,1,
252900,1857.1,133.7,158.1,267.2,1534.0,6657.0,4.0,1,
253000,1860.8,129.9,158.2,241.1,1534.0,6657.0,4.0,1,
253100,1859.8,130.6,158.7,241.3,1534.0,6657.0,4.0,1,
253200,1859.8,131.9,159.7,244.9,1534.0,6657.0,4.0,1,
253300,1860.0,141.4,160.8,242.6,1534.0,6657.0,4.0,1,
253400,1853.5,122.1,161.5,239.7,1837.0,9465.0,5.0,1,
253600,1899.4,116.2,163.9,71.6,1880.0,10160.0,4.0,1,
253700,1849.3,187.8,170.5,50.5,1122.0,6960.0,4.0,1,
253800,1847.9,145.1,173.1,35.1,1596.0,7048.0,4.0,1,
253900,1864.2,137.5,168.6,36.4,1561.0,7927.0,5.0,1,
254000,1863.7,129.3,168.7,46.2,1561.0,7927.0,5.0,1,
254100,1858.2,136.8,168.9,46.4,1561.0,7927.0,5.0,1,
254200,1859.9,134.8,169.0,39.5,1561.0,7927.0,5.0,1,
254300,1856.5,130.2,169.0,154.9,1561.0,7927.0,5.0,1,
254400,1862.2,133.1,168.7,240.5,1561.0,7927.0,5.0,1,
254600,1858.2,130.2,168.9,241.1,1561.0,7927.0,5.0,1,
254700,1860.8,132.1,168.8,241.0,1561.0,7927.0,5.0,1,
254800,1861.8,132.4,168.7,241.2,1561.0,7927.0,5.0,1,
254900,1860.0,116.0,168.7,241.3,1561.0,7927.0,5.0,1,
255000,1857.2,194.0,169.6,240.5,1226.0,7124.0,5.0,1,
255100,1884.9,319.1,175.3,45.6,2015.0,10200.0,4.0,1,
255200,1826.3,115.6,173.2,28.5,1205.0,6426.0,4.0,1,
