Time(ms),Raw_ADC
0,1859
1,1862
2,1863
3,1858
4,1861
5,1859
6,1861
7,1868
8,1870
9,1871
10,1871
11,1871
12,1867
13,1859
14,1858
15,1855
16,1856
17,1858
18,1858
19,1856
20,1856
21,1858
22,1862
23,1856
24,1865
25,1867
26,1861
27,1856
28,1862
29,1859
30,1862
31,1866
32,1859
33,1854
34,1855
35,1856
36,1856
37,1856
38,1859
39,1860
40,1866
41,1868
42,1869
43,1869
44,1865
45,1867
46,1857
47,1855
48,1858
49,1859
50,1858
51,1858
52,1859
53,1856
54,1856
55,1857
56,1856
57,1867
58,1866
59,1869
60,1867
61,1867
62,1867
63,1858
64,1857
65,1859
66,1859
67,1857
68,1856
69,1857
70,1857
71,1859
72,1861
73,1861
74,1866
75,1869
76,1867
77,1867
78,1870
79,1869
80,1866
81,1861
82,1857
83,1847
84,1846
85,1850
86,1850
87,1861
88,1867
89,1862
90,1857
91,1863
92,1864
93,1862
94,1863
95,1863
96,1864
97,1858
98,1854
99,1859
100,1863
101,1853
102,1857
103,1858
104,1859
105,1862
106,1867
107,1868
108,1867
109,1872
110,1869
111,1867
112,1863
113,1853
114,1850
115,1849
116,1850
117,1849
118,1851
119,1851
120,1858
121,1857
122,1864
123,1867
124,1867
125,1872
126,1870
127,1871
128,1869
129,1864
130,1859
131,1858
132,1858
133,1857
134,1860
135,1860
136,1861
137,1859
138,1858
139,1858
140,1859
141,1859
142,1858
143,1856
144,1866
145,1865
146,1859
147,1854
148,1853
149,1857
150,1856
151,1859
152,1861
153,1856
154,1858
155,1860
156,1863
157,1869
158,1869
159,1869
160,1865
161,1862
162,1869
163,1862
164,1859
165,1859
166,1859
167,1857
168,1856
169,1858
170,1858
171,1861
172,1863
173,1861
174,1856
175,1861
176,1862
177,1867
178,1869
179,1866
180,1862
181,1859
182,1856
183,1855
184,1856
185,1856
186,1859
187,1861
188,1863
189,1863
190,1869
191,1868
192,1869
193,1870
194,1870
195,1865
196,1860
197,1861
198,1860
199,1858
200,1857
201,1852
202,1854
203,1853
204,1851
205,1855
206,1861
207,1865
208,1867
209,1864
210,1859
211,1861
212,1868
213,1870
214,1866
215,1860
216,1864
217,1860
218,1858
219,1857
220,1860
221,1863
222,1863
223,1863
224,1866
225,1869
226,1869
227,1865
228,1866
229,1869
230,1868
231,1860
232,1847
233,1851
234,1849
235,1853
236,1856
237,1856
238,1856
239,1856
240,1857
241,1866
242,1869
243,1866
244,1867
245,1866
246,1861
247,1859
248,1857
249,1857
250,1851
251,1854
252,1854
253,1856
254,1857
255,1868
256,1868
257,1867
258,1867
259,1872
260,1870
261,1871
262,1862
263,1857
264,1854
265,1849
266,1847
267,1854
268,1861
269,1861
270,1866
271,1867
272,1866
273,1865
274,1867
275,1867
276,1869
277,1867
278,1868
279,1863
280,1862
281,1859
282,1855
283,1855
284,1855
285,1856
286,1857
287,1857
288,1862
289,1863
290,1863
291,1859
292,1856
293,1858
294,1861
295,1867
296,1861
297,1853
298,1851
299,1857
300,1859
301,1858
302,1859
303,1857
304,1859
305,1862
306,1867
307,1869
308,1870
309,1871
310,1865
311,1857
312,1860
313,1860
314,1859
315,1857
316,1859
317,1859
318,1859
319,1859
320,1859
321,1859
322,1856
323,1858
324,1863
325,1862
326,1861
327,1863
328,1865
329,1872
330,1872
331,1867
332,1863
333,1859
334,1856
335,1856
336,1853
337,1846
338,1847
339,1853
340,1861
341,1872
342,1877
343,1872
344,1870
345,1872
346,1871
347,1862
348,1858
349,1856
350,1855
351,1856
352,1853
353,1850
354,1853
355,1859
356,1857
357,1862
358,1865
359,1871
360,1866
361,1862
362,1861
363,1860
364,1858
365,1859
366,1863
367,1858
368,1856
369,1858
370,1859
371,1859
372,1865
373,1868
374,1866
375,1861
376,1862
377,1863
378,1866
379,1864
380,1863
381,1862
382,1853
383,1851
384,1855
385,1858
386,1856
387,1859
388,1860
389,1863
390,1865
391,1867
392,1871
393,1866
394,1866
395,1867
396,1866
397,1866
398,1862
399,1858
400,1855
401,1852
402,1861
403,1856
404,1858
405,1858
406,1861
407,1867
408,1870
409,1869
410,1865
411,1865
412,1858
413,1856
414,1855
415,1855
416,1856
417,1850
418,1847
419,1856
420,1858
421,1861
422,1863
423,1867
424,1863
425,1867
426,1866
427,1865
428,1867
429,1866
430,1860
431,1856
432,1856
433,1856
434,1857
435,1860
436,1862
437,1865
438,1863
439,1860
440,1861
441,1859
442,1856
443,1860
444,1862
445,1863
446,1860
447,1858
448,1857
449,1863
450,1859
451,1855
452,1853
453,1855
454,1856
455,1861
456,1861
457,1867
458,1866
459,1867
460,1867
461,1863
462,1867
463,1865
464,1863
465,1859
466,1855
467,1856
468,1859
469,1856
470,1855
471,1856
472,1855
473,1856
474,1858
475,1862
476,1862
477,1868
478,1858
479,1867
480,1860
481,1859
482,1855
483,1854
484,1856
485,1859
486,1861
487,1859
488,1860
489,1856
490,1857
491,1861
492,1866
493,1869
494,1871
495,1872
496,1867
497,1862
498,1856
499,1856
500,1856
501,1851
502,1853
503,1851
504,1854
505,1855
506,1857
507,1862
508,1862
509,1857
510,1867
511,1868
512,1866
513,1865
514,1860
515,1857
516,1856
517,1853
518,1860
519,1859
520,1857
521,1858
522,1861
523,1866
524,1863
525,1869
526,1866
527,1862
528,1867
529,1867
530,1859
531,1858
532,1854
533,1847
534,1851
535,1853
536,1854
537,1858
538,1858
539,1862
540,1868
541,1871
542,1871
543,1866
544,1865
545,1863
546,1863
547,1867
548,1860
549,1856
550,1856
551,1855
552,1856
553,1857
554,1859
555,1861
556,1862
557,1868
558,1869
559,1869
560,1869
561,1866
562,1856
563,1857
564,1855
565,1852
566,2704
567,972
568,1865
569,2262
570,2354
571,2371
572,2359
573,2419
574,2378
575,2207
576,2038
577,1812
578,1634
579,1474
580,1328
581,1219
582,1186
583,1270
584,1453
585,1638
586,1771
587,1831
588,1856
589,1841
590,1856
591,1875
592,1897
593,1907
594,1918
595,1920
596,1920
597,1969
598,1059
599,1758
600,2326
601,2427
602,2385
603,2352
604,2379
605,2287
606,2180
607,2030
608,1811
609,1648
610,1488
611,1330
612,1258
613,1262
614,1358
615,1535
616,1711
617,1804
618,1858
619,1886
620,1905
621,1918
622,1927
623,1926
624,1920
625,1922
626,1926
627,1925
628,1921
629,1229
630,1531
631,2276
632,2486
633,2451
634,2391
635,2297
636,2209
637,2193
638,1952
639,1734
640,1631
641,1490
642,1364
643,1280
644,1258
645,1378
646,1584
647,1732
648,1823
649,1874
650,1906
651,1919
652,1917
653,1920
654,1930
655,1931
656,1931
657,1936
658,1936
659,1929
660,1847
661,1211
662,2128
663,2559
664,2583
665,2494
666,2303
667,2192
668,2128
669,1799
670,1612
671,1556
672,1478
673,1393
674,1299
675,1271
676,1410
677,1616
678,1775
679,1853
680,1893
681,1935
682,1934
683,1925
684,1921
685,1929
686,1934
687,1927
688,1923
689,1927
690,1923
691,2858
692,980
693,1921
694,2519
695,2624
696,2546
697,2302
698,2213
699,2114
700,1727
701,1535
702,1520
703,1486
704,1426
705,1334
706,1305
707,1438
708,1655
709,1804
710,1873
711,1915
712,1936
713,1939
714,1923
715,1919
716,1922
717,1923
718,1918
719,1920
720,1919
721,1918
722,1911
723,1037
724,1702
725,2415
726,2613
727,2559
728,2349
729,2251
730,2135
731,1718
732,1530
733,1531
734,1529
735,1472
736,1349
737,1297
738,1431
739,1662
740,1808
741,1875
742,1910
743,1936
744,1947
745,1939
746,1925
747,1923
748,1920
749,1922
750,1918
751,1914
752,1914
753,1907
754,1194
755,1515
756,2303
757,2608
758,2626
759,2416
760,2301
761,2114
762,1665
763,1505
764,1535
765,1561
766,1504
767,1363
768,1311
769,1441
770,1663
771,1808
772,1879
773,1922
774,1929
775,1936
776,1936
777,1929
778,1922
779,1925
780,1927
781,1922
782,1915
783,1910
784,1904
785,1664
786,1233
787,2122
788,2559
789,2642
790,2517
791,2359
792,2138
793,1625
794,1466
795,1559
796,1591
797,1535
798,1406
799,1309
800,1425
801,1650
802,1794
803,1867
804,1905
805,1934
806,1947
807,1936
808,1919
809,1926
810,1928
811,1927
812,1922
813,1917
814,1905
815,1901
816,2843
817,958
818,1871
819,2483
820,2624
821,2622
822,2389
823,2219
824,1669
825,1454
826,1535
827,1600
828,1588
829,1446
830,1318
831,1409
832,1630
833,1780
834,1854
835,1890
836,1916
837,1933
838,1935
839,1941
840,1936
841,1927
842,1925
843,1921
844,1919
845,1909
846,1904
847,1902
848,1008
849,1666
850,2402
851,2640
852,2704
853,2458
854,2299
855,1709
856,1397
857,1490
858,1578
859,1587
860,1471
861,1328
862,1392
863,1611
864,1772
865,1841
866,1886
867,1927
868,1943
869,1947
870,1936
871,1934
872,1933
873,1929
874,1925
875,1920
876,1909
877,1904
878,1904
879,1175
880,1498
881,2302
882,2619
883,2722
884,2505
885,2350
886,1754
887,1372
888,1470
889,1564
890,1589
891,1488
892,1345
893,1393
894,1611
895,1775
896,1855
897,1899
898,1911
899,1941
900,1950
901,1936
902,1918
903,1912
904,1917
905,1919
906,1915
907,1911
908,1907
909,1903
910,1806
911,1178
912,2076
913,2555
914,2689
915,2559
916,2437
917,1897
918,1409
919,1437
920,1535
921,1590
922,1534
923,1392
924,1386
925,1584
926,1760
927,1845
928,1889
929,1931
930,1949
931,1952
932,1940
933,1922
934,1909
935,1907
936,1895
937,1900
938,1901
939,1897
940,1898
941,2697
942,980
943,1922
944,2521
945,2693
946,2649
947,2492
948,1953
949,1413
950,1411
951,1535
952,1597
953,1554
954,1402
955,1376
956,1565
957,1744
958,1842
959,1900
960,1925
961,1939
962,1950
963,1954
964,1936
965,1925
966,1917
967,1914
968,1914
969,1904
970,1890
971,1883
972,1952
973,976
974,1714
975,2420
976,2646
977,2694
978,2540
979,2123
980,1517
981,1392
982,1505
983,1581
984,1582
985,1446
986,1375
987,1526
988,1726
989,1831
990,1885
991,1907
992,1933
993,1942
994,1950
995,1950
996,1956
997,1920
998,1898
999,1899
1000,1897
1001,1890
1002,1883
1003,1887
1004,1227
1005,1438
1006,2265
1007,2635
1008,2763
1009,2609
1010,2277
1011,1600
1012,1328
1013,1461
1014,1555
1015,1600
1016,1485
1017,1372
1018,1472
1019,1673
1020,1810
1021,1882
1022,1911
1023,1935
1024,1941
1025,1941
1026,1937
1027,1933
1028,1920
1029,1912
1030,1907
1031,1904
1032,1899
1033,1895
1034,1892
1035,1632
1036,1219
1037,2112
1038,2586
1039,2740
1040,2652
1041,2383
1042,1695
1043,1346
1044,1454
1045,1535
1046,1606
1047,1514
1048,1382
1049,1457
1050,1653
1051,1792
1052,1866
1053,1904
1054,1933
1055,1947
1056,1951
1057,1938
1058,1922
1059,1909
1060,1910
1061,1910
1062,1907
1063,1904
1064,1901
1065,1891
1066,2690
1067,967
1068,1904
1069,2516
1070,2718
1071,2701
1072,2480
1073,1833
1074,1363
1075,1427
1076,1523
1077,1600
1078,1535
1079,1414
1080,1437
1081,1618
1082,1760
1083,1846
1084,1888
1085,1917
1086,1934
1087,1942
1088,1948
1089,1936
1090,1924
1091,1918
1092,1919
1093,1914
1094,1909
1095,1906
1096,1897
1097,1957
1098,970
1099,1700
1100,2416
1101,2678
1102,2742
1103,2559
1104,1997
1105,1418
1106,1392
1107,1495
1108,1581
1109,1579
1110,1439
1111,1418
1112,1582
1113,1735
1114,1826
1115,1878
1116,1916
1117,1935
1118,1925
1119,1933
1120,1936
1121,1948
1122,1923
1123,1917
1124,1909
1125,1908
1126,1903
1127,1899
1128,1891
1129,1168
1130,1482
1131,2288
1132,2639
1133,2763
1134,2634
1135,2164
1136,1496
1137,1354
1138,1463
1139,1535
1140,1583
1141,1473
1142,1410
1143,1535
1144,1713
1145,1819
1146,1881
1147,1923
1148,1942
1149,1939
1150,1941
1151,1939
1152,1920
1153,1904
1154,1904
1155,1904
1156,1904
1157,1904
1158,1903
1159,1897
1160,1808
1161,1167
1162,2067
1163,2559
1164,2754
1165,2690
1166,2347
1167,1661
1168,1344
1169,1447
1170,1525
1171,1594
1172,1510
1173,1407
1174,1495
1175,1678
1176,1802
1177,1866
1178,1905
1179,1933
1180,1947
1181,1945
1182,1933
1183,1920
1184,1913
1185,1907
1186,1908
1187,1908
1188,1907
1189,1903
1190,1888
1191,1884
1192,1878
1193,1872
1194,1874
1195,1872
1196,1869
1197,1873
1198,1871
1199,1865
1200,1867
1201,1869
1202,1860
1203,1858
1204,1858
1205,1870
1206,1872
1207,1870
1208,1870
1209,1875
1210,1871
1211,1868
1212,1863
1213,1861
1214,1858
1215,1856
1216,1856
1217,1856
1218,1851
1219,1855
1220,1850
1221,1849
1222,1853
1223,1863
1224,1861
1225,1862
1226,1859
1227,1860
1228,1866
1229,1856
1230,1861
1231,1863
1232,1857
1233,1855
1234,1855
1235,1856
1236,1857
1237,1859
1238,1861
1239,1865
1240,1863
1241,1868
1242,1867
1243,1866
1244,1862
1245,1856
1246,1857
1247,1861
1248,1861
1249,1859
1250,1859
1251,1857
1252,1850
1253,1847
1254,1849
1255,1850
1256,1854
1257,1862
1258,1867
1259,1867
1260,1869
1261,1871
1262,1867
1263,1857
1264,1863
1265,1861
1266,1858
1267,1861
1268,1865
1269,1857
1270,1859
1271,1865
1272,1863
1273,1863
1274,1866
1275,1870
1276,1869
1277,1867
1278,1869
1279,1863
1280,1859
1281,1858
1282,1857
1283,1854
1284,1855
1285,1857
1286,1853
1287,1853
1288,1857
1289,1867
1290,1871
1291,1871
1292,1870
1293,1867
1294,1868
1295,1867
1296,1864
1297,1859
1298,1857
1299,1859
1300,1859
1301,1861
1302,1862
1303,1862
1304,1861
1305,1862
1306,1867
1307,1870
1308,1872
1309,1869
1310,1866
1311,1865
1312,1857
1313,1856
1314,1852
1315,1857
1316,1855
1317,1853
1318,1854
1319,1859
1320,1861
1321,1862
1322,1863
1323,1862
1324,1859
1325,1869
1326,1865
1327,1863
1328,1870
1329,1872
1330,1868
1331,1858
1332,1857
1333,1858
1334,1857
1335,1859
1336,1858
1337,1861
1338,1869
1339,1865
1340,1862
1341,1858
1342,1865
1343,1867
1344,1865
1345,1859
1346,1858
1347,1856
1348,1850
1349,1858
1350,1860
1351,1856
1352,1856
1353,1857
1354,1858
1355,1865
1356,1863
1357,1869
1358,1870
1359,1861
1360,1859
1361,1867
1362,1870
1363,1867
1364,1866
1365,1856
1366,1853
1367,1859
1368,1857
1369,1857
1370,1860
1371,1867
1372,1862
1373,1867
1374,1861
1375,1857
1376,1857
1377,1865
1378,1859
1379,1857
1380,1853
1381,1858
1382,1863
1383,1866
1384,1871
1385,1862
1386,1863
1387,1856
1388,1840
1389,1855
1390,1858
1391,1863
1392,1858
1393,1862
1394,1869
1395,1870
1396,1865
1397,1859
1398,1858
1399,1857
1400,1856
1401,1856
1402,1854
1403,1849
1404,1853
1405,1854
1406,1859
1407,1858
1408,1859
1409,1866
1410,1865
1411,1869
1412,1861
1413,1857
1414,1856
1415,1854
1416,1851
1417,1855
1418,1857
1419,1858
1420,1859
1421,1859
1422,1861
1423,1867
1424,1865
1425,1871
1426,1871
1427,1871
1428,1869
1429,1867
1430,1859
1431,1854
1432,1845
1433,1845
1434,1851
1435,1855
1436,1850
1437,1852
1438,1853
1439,1860
1440,1867
1441,1869
1442,1865
1443,1861
1444,1866
1445,1863
1446,1862
1447,1858
1448,1857
1449,1858
1450,1857
1451,1856
1452,1857
1453,1858
1454,1856
1455,1858
1456,1859
1457,1861
1458,1872
1459,1875
1460,1872
1461,1872
1462,1862
1463,1857
1464,1844
1465,1852
1466,1847
1467,1851
1468,1855
1469,1861
1470,1861
1471,1865
1472,1865
1473,1865
1474,1858
1475,1857
1476,1861
1477,1865
1478,1865
1479,1867
1480,1862
1481,1860
1482,1856
1483,1851
1484,1855
1485,1857
1486,1856
1487,1860
1488,1866
1489,1866
1490,1863
1491,1862
1492,1859
1493,1859
1494,1859
1495,1858
1496,1856
1497,1854
1498,1850
1499,1860
1500,1857
1501,1857
1502,1859
1503,1856
1504,1857
1505,1859
1506,1861
1507,1863
1508,1867
1509,1866
1510,1863
1511,1866
1512,1862
1513,1859
1514,1858
1515,1857
1516,1857
1517,1856
1518,1857
1519,1855
1520,1854
1521,1856
1522,1858
1523,1861
1524,1863
1525,1856
1526,1858
1527,1856
1528,1858
1529,1861
1530,1858
1531,1858
1532,1859
1533,1858
1534,1861
1535,1859
1536,1858
1537,1861
1538,1863
1539,1861
1540,1859
1541,1866
1542,1867
1543,1866
1544,1865
1545,1862
1546,1859
1547,1856
1548,1856
1549,1855
1550,1859
1551,1866
1552,1853
1553,1851
1554,1856
1555,1857
1556,1863
1557,1870
1558,1866
1559,1871
1560,1868
1561,1865
1562,1862
1563,1861
1564,1859
1565,1857
1566,1856
1567,1855
1568,1856
1569,1861
1570,1862
1571,1867
1572,1866
1573,1866
1574,1867
1575,1866
1576,1863
1577,1871
1578,1872
1579,1862
1580,1859
1581,1856
1582,1853
1583,1853
1584,1850
1585,1856
1586,1857
1587,1860
1588,1865
1589,1870
1590,1863
1591,1867
1592,1865
1593,1864
1594,1862
1595,1861
1596,1859
1597,1865
1598,1862
1599,1855
1600,1852
1601,1855
1602,1861
1603,1857
1604,1859
1605,1861
1606,1865
1607,1867
1608,1867
1609,1865
1610,1863
1611,1867
1612,1858
1613,1855
1614,1853
1615,1853
1616,1851
1617,1861
1618,1863
1619,1859
1620,1856
1621,1859
1622,1862
1623,1866
1624,1867
1625,1867
1626,1863
1627,1862
1628,1863
1629,1861
1630,1862
1631,1858
1632,1857
1633,1858
1634,1862
1635,1857
1636,1856
1637,1862
1638,1866
1639,1864
1640,1866
1641,1865
1642,1856
1643,1855
1644,1855
1645,1855
1646,1857
1647,1870
1648,1867
1649,1861
1650,1855
1651,1854
1652,1856
1653,1858
1654,1866
1655,1865
1656,1865
1657,1865
1658,1869
1659,1866
1660,1870
1661,1866
1662,1865
1663,1859
1664,1858
1665,1858
1666,1858
1667,1856
1668,1858
1669,1859
1670,1858
1671,1861
1672,1854
1673,1856
1674,1861
1675,1857
1676,1861
1677,1866
1678,1862
1679,1861
1680,1862
1681,1855
1682,1857
1683,1856
1684,1858
1685,1860
1686,1859
1687,1861
1688,1862
1689,1866
1690,1856
1691,1865
1692,1865
1693,1867
1694,1866
1695,1860
1696,1859
1697,1859
1698,1858
1699,1857
1700,1855
1701,1855
1702,1852
1703,1851
1704,1856
1705,1856
1706,1856
1707,1865
1708,1870
1709,1870
1710,1863
1711,1865
1712,1860
1713,1859
1714,1861
1715,1856
1716,1856
1717,1858
1718,1850
1719,1857
1720,1857
1721,1859
1722,1863
1723,1866
1724,1863
1725,1866
1726,1866
1727,1869
1728,1867
1729,1860
1730,1858
1731,1855
1732,1850
1733,1849
1734,1851
1735,1851
1736,1855
1737,1858
1738,1858
1739,1861
1740,1866
1741,1870
1742,1870
1743,1866
1744,1867
1745,1863
1746,1858
1747,1856
1748,1854
1749,1854
1750,1855
1751,1855
1752,1859
1753,1861
1754,1862
1755,1865
1756,1866
1757,1866
1758,1865
1759,1867
1760,1867
1761,1865
1762,1856
1763,1856
1764,1856
1765,1862
1766,1858
1767,1854
1768,1846
1769,1845
1770,1853
1771,1855
1772,1857
1773,1866
1774,1870
1775,1866
1776,1867
1777,1862
1778,1859
1779,1856
1780,1857
1781,1857
1782,1858
1783,1856
1784,1856
1785,1857
1786,1861
1787,1865
1788,1872
1789,1857
1790,1854
1791,1856
1792,1856
1793,1857
1794,1856
1795,1856
1796,1855
1797,1856
1798,1854
1799,1859
1800,1860
1801,1859
1802,1858
1803,1857
1804,1861
1805,1867
1806,1869
1807,1871
1808,1872
1809,1866
1810,1862
1811,1866
1812,1863
1813,1863
1814,1857
1815,1856
1816,1855
1817,1855
1818,1855
1819,1850
1820,1851
1821,1854
1822,1856
1823,1860
1824,1865
1825,1867
1826,1869
1827,1866
1828,1857
1829,1858
1830,1854
1831,1857
1832,1856
1833,1856
1834,1857
1835,1853
1836,1850
1837,1857
1838,1861
1839,1859
1840,1872
1841,1872
1842,1862
1843,1867
1844,1866
1845,1868
1846,1869
1847,1867
1848,1863
1849,1857
1850,1855
1851,1853
1852,1845
1853,1850
1854,1856
1855,1856
1856,1861
1857,1868
1858,1869
1859,1867
1860,1867
1861,1860
1862,1863
1863,1857
1864,1854
1865,1856
1866,1858
1867,1859
1868,1858
1869,1858
1870,1861
1871,1862
1872,1867
1873,1870
1874,1870
1875,1872
1876,1872
1877,1867
1878,1866
1879,1865
1880,1858
1881,1855
1882,1845
1883,1842
1884,1846
1885,1847
1886,1850
1887,1859
1888,1861
1889,1871
1890,1867
1891,1872
1892,1867
1893,1869
1894,1872
1895,1867
1896,1866
1897,1860
1898,1857
1899,1855
1900,1854
1901,1854
1902,1856
1903,1859
1904,1862
1905,1862
1906,1863
1907,1860
1908,1861
1909,1862
1910,1866
1911,1869
1912,1856
1913,1855
1914,1851
1915,1851
1916,1851
1917,1852
1918,1853
1919,1860
1920,1861
1921,1861
1922,1866
1923,1862
1924,1862
1925,1862
1926,1865
1927,1865
1928,1867
1929,1862
1930,1863
1931,1857
1932,1856
1933,1853
1934,1855
1935,1855
1936,1857
1937,1863
1938,1866
1939,1864
1940,1868
1941,1871
1942,1863
1943,1863
1944,1867
1945,1857
1946,1855
1947,1851
1948,1854
1949,1857
1950,1859
1951,1859
1952,1859
1953,1863
1954,1863
1955,1870
1956,1869
1957,1870
1958,1870
1959,1867
1960,1855
1961,1858
1962,1861
1963,1856
1964,1855
1965,1860
1966,1857
1967,1861
1968,1855
1969,1857
1970,1860
1971,1857
1972,1855
1973,1857
1974,1860
1975,1859
1976,1859
1977,1857
1978,1855
1979,1867
1980,1863
1981,1859
1982,1853
1983,1855
1984,1851
1985,1853
1986,1865
1987,1870
1988,1868
1989,1871
1990,1867
1991,1870
1992,1871
1993,1867
1994,1863
1995,1865
1996,1856
1997,1847
1998,1852
1999,1856
2000,1855
2001,1857
2002,1853
2003,1855
2004,1857
2005,1855
2006,1861
2007,1863
2008,1865
2009,1871
2010,1870
2011,1867
2012,1866
2013,1861
2014,1858
2015,1858
2016,1854
2017,1851
2018,1841
2019,1851
2020,1858
2021,1862
2022,1868
2023,1867
2024,1866
2025,1871
2026,1871
2027,1870
2028,1866
2029,1863
2030,1862
2031,1856
2032,1851
2033,1854
2034,1856
2035,1855
2036,1855
2037,1855
2038,1856
2039,1867
2040,1866
2041,1863
2042,1863
2043,1866
2044,1866
2045,1858
2046,1859
2047,1858
2048,1858
2049,1856
2050,1854
2051,1856
2052,1856
2053,1860
2054,1861
2055,1859
2056,1870
2057,1872
2058,1869
2059,1866
2060,1870
2061,1871
2062,1858
2063,1859
2064,1856
2065,1855
2066,1853
2067,1851
2068,1850
2069,1856
2070,1863
2071,1859
2072,1861
2073,1866
2074,1871
2075,1869
2076,1866
2077,1866
2078,1872
2079,1872
2080,1869
2081,1856
2082,1853
2083,1856
2084,1854
2085,1851
2086,1851
2087,1855
2088,1861
2089,1860
2090,1866
2091,1870
2092,1867
2093,1863
2094,1863
2095,1861
2096,1857
2097,1857
2098,1856
2099,1858
2100,1854
2101,1844
2102,1842
2103,1851
2104,1855
2105,1860
2106,1863
2107,1866
2108,1870
2109,1867
2110,1871
2111,1869
2112,1863
2113,1860
2114,1856
2115,1855
2116,1850
2117,1855
2118,1854
2119,1855
2120,1857
2121,1856
2122,1859
2123,1859
2124,1859
2125,1862
2126,1861
2127,1862
2128,1860
2129,1861
2130,1859
2131,1858
2132,1857
2133,1856
2134,1853
2135,1853
2136,1856
2137,1861
2138,1863
2139,1865
2140,1868
2141,1871
2142,1869
2143,1871
2144,1872
2145,1871
2146,1862
2147,1862
2148,1857
2149,1855
2150,1856
2151,1858
2152,1851
2153,1854
2154,1858
2155,1856
2156,1859
2157,1869
2158,1869
2159,1869
2160,1866
2161,1867
2162,1862
2163,1860
2164,1856
2165,1857
2166,1854
2167,1854
2168,1854
2169,1856
2170,1867
2171,1870
2172,1865
2173,1869
2174,1867
2175,1871
2176,1868
2177,1862
2178,1861
2179,1861
2180,1857
2181,1857
2182,1850
2183,1849
2184,1850
2185,1846
2186,1854
2187,1862
2188,1866
2189,1873
2190,1870
2191,2063
2192,1104
2193,1959
2194,2291
2195,2348
2196,2347
2197,2326
2198,2384
2199,2356
2200,2205
2201,2045
2202,1822
2203,1642
2204,1488
2205,1338
2206,1222
2207,1189
2208,1275
2209,1456
2210,1645
2211,1780
2212,1842
2213,1851
2214,1835
2215,1840
2216,1874
2217,1888
2218,1889
2219,1897
2220,1916
2221,1925
2222,2819
2223,1014
2224,1904
2225,2357
2226,2406
2227,2365
2228,2333
2229,2365
2230,2298
2231,2192
2232,2021
2233,1806
2234,1644
2235,1494
2236,1339
2237,1262
2238,1266
2239,1360
2240,1535
2241,1705
2242,1805
2243,1861
2244,1891
2245,1904
2246,1919
2247,1925
2248,1924
2249,1923
2250,1921
2251,1931
2252,1925
2253,1922
2254,1110
2255,1653
2256,2326
2257,2494
2258,2445
2259,2382
2260,2303
2261,2230
2262,2206
2263,1963
2264,1738
2265,1627
2266,1482
2267,1344
2268,1271
2269,1263
2270,1361
2271,1562
2272,1707
2273,1810
2274,1878
2275,1904
2276,1911
2277,1926
2278,1936
2279,1942
2280,1947
2281,1939
2282,1933
2283,1924
2284,1922
2285,1397
2286,1407
2287,2239
2288,2544
2289,2522
2290,2448
2291,2256
2292,2190
2293,2160
2294,1840
2295,1638
2296,1573
2297,1474
2298,1385
2299,1309
2300,1286
2301,1395
2302,1568
2303,1726
2304,1829
2305,1902
2306,1936
2307,1936
2308,1935
2309,1946
2310,1947
2311,1941
2312,1936
2313,1932
2314,1921
2315,1919
2316,2039
2317,1133
2318,2067
2319,2551
2320,2605
2321,2511
2322,2256
2323,2190
2324,2116
2325,1744
2326,1559
2327,1519
2328,1487
2329,1427
2330,1352
2331,1328
2332,1441
2333,1617
2334,1767
2335,1852
2336,1904
2337,1936
2338,1936
2339,1936
2340,1935
2341,1941
2342,1941
2343,1936
2344,1930
2345,1921
2346,1915
2347,2482
2348,965
2349,1850
2350,2473
2351,2604
2352,2530
2353,2288
2354,2224
2355,2141
2356,1743
2357,1565
2358,1535
2359,1533
2360,1475
2361,1375
2362,1319
2363,1417
2364,1600
2365,1747
2366,1843
2367,1904
2368,1931
2369,1936
2370,1937
2371,1941
2372,1943
2373,1944
2374,1939
2375,1936
2376,1931
2377,1921
2378,1907
2379,1062
2380,1635
2381,2353
2382,2588
2383,2559
2384,2349
2385,2239
2386,2164
2387,1744
2388,1554
2389,1573
2390,1567
2391,1510
2392,1392
2393,1315
2394,1398
2395,1595
2396,1751
2397,1847
2398,1902
2399,1951
2400,1961
2401,1951
2402,1936
2403,1915
2404,1917
2405,1919
2406,1920
2407,1920
2408,1920
2409,1913
2410,1359
2411,1407
2412,2224
2413,2585
2414,2611
2415,2448
2416,2270
2417,2170
2418,1702
2419,1499
2420,1563
2421,1585
2422,1535
2423,1424
2424,1326
2425,1392
2426,1591
2427,1767
2428,1861
2429,1919
2430,1937
2431,1946
2432,1937
2433,1923
2434,1918
2435,1917
2436,1910
2437,1904
2438,1904
2439,1905
2440,1907
2441,2071
2442,1116
2443,2033
2444,2544
2445,2624
2446,2537
2447,2306
2448,2234
2449,1752
2450,1499
2451,1535
2452,1588
2453,1557
2454,1454
2455,1331
2456,1375
2457,1578
2458,1745
2459,1854
2460,1904
2461,1927
2462,1939
2463,1950
2464,1935
2465,1930
2466,1923
2467,1923
2468,1920
2469,1918
2470,1911
2471,1905
2472,2490
2473,954
2474,1840
2475,2459
2476,2624
2477,2615
2478,2347
2479,2293
2480,1825
2481,1490
2482,1508
2483,1568
2484,1535
2485,1459
2486,1339
2487,1361
2488,1571
2489,1744
2490,1851
2491,1914
2492,1934
2493,1943
2494,1950
2495,1941
2496,1934
2497,1922
2498,1914
2499,1904
2500,1903
2501,1903
2502,1902
2503,1900
2504,1035
2505,1677
2506,2381
2507,2607
2508,2640
2509,2381
2510,2343
2511,1886
2512,1514
2513,1508
2514,1559
2515,1558
2516,1485
2517,1347
2518,1339
2519,1527
2520,1714
2521,1826
2522,1887
2523,1936
2524,1963
2525,1962
2526,1946
2527,1939
2528,1931
2529,1929
2530,1927
2531,1919
2532,1907
2533,1903
2534,1901
2535,1359
2536,1381
2537,2210
2538,2595
2539,2672
2540,2477
2541,2398
2542,1968
2543,1523
2544,1474
2545,1535
2546,1556
2547,1503
2548,1362
2549,1328
2550,1488
2551,1686
2552,1819
2553,1888
2554,1932
2555,1956
2556,1968
2557,1946
2558,1936
2559,1935
2560,1935
2561,1932
2562,1921
2563,1917
2564,1906
2565,1902
2566,1852
2567,1169
2568,2064
2569,2558
2570,2678
2571,2548
2572,2420
2573,2047
2574,1563
2575,1456
2576,1535
2577,1573
2578,1531
2579,1389
2580,1328
2581,1471
2582,1671
2583,1801
2584,1865
2585,1911
2586,1947
2587,1959
2588,1946
2589,1943
2590,1924
2591,1927
2592,1927
2593,1921
2594,1915
2595,1909
2596,1904
2597,2814
2598,951
2599,1863
2600,2525
2601,2692
2602,2655
2603,2447
2604,2143
2605,1584
2606,1403
2607,1518
2608,1559
2609,1555
2610,1425
2611,1321
2612,1433
2613,1639
2614,1789
2615,1870
2616,1914
2617,1942
2618,1967
2619,1952
2620,1938
2621,1933
2622,1920
2623,1910
2624,1915
2625,1917
2626,1914
2627,1905
2628,1901
2629,1056
2630,1623
2631,2368
2632,2625
2633,2690
2634,2451
2635,2290
2636,1742
2637,1441
2638,1499
2639,1535
2640,1535
2641,1467
2642,1344
2643,1408
2644,1601
2645,1763
2646,1859
2647,1909
2648,1936
2649,1943
2650,1967
2651,1954
2652,1941
2653,1938
2654,1927
2655,1921
2656,1914
2657,1894
2658,1872
2659,1872
2660,1255
2661,1434
2662,2252
2663,2626
2664,2735
2665,2506
2666,2366
2667,1819
2668,1443
2669,1463
2670,1522
2671,1535
2672,1483
2673,1344
2674,1381
2675,1578
2676,1751
2677,1857
2678,1903
2679,1929
2680,1951
2681,1945
2682,1931
2683,1922
2684,1920
2685,1926
2686,1923
2687,1919
2688,1918
2689,1911
2690,1905
2691,2000
2692,1123
2693,2033
2694,2581
2695,2729
2696,2590
2697,2443
2698,1950
2699,1474
2700,1437
2701,1517
2702,1535
2703,1511
2704,1370
2705,1347
2706,1517
2707,1704
2708,1824
2709,1889
2710,1929
2711,1951
2712,1970
2713,1962
2714,1935
2715,1917
2716,1904
2717,1917
2718,1907
2719,1908
2720,1907
2721,1902
2722,2827
2723,955
2724,1870
2725,2527
2726,2731
2727,2688
2728,2495
2729,2084
2730,1521
2731,1408
2732,1488
2733,1519
2734,1495
2735,1364
2736,1325
2737,1488
2738,1683
2739,1819
2740,1899
2741,1935
2742,1946
2743,1949
2744,1946
2745,1937
2746,1943
2747,1925
2748,1916
2749,1916
2750,1915
2751,1905
2752,1897
2753,1891
2754,1015
2755,1671
2756,2412
2757,2687
2758,2736
2759,2514
2760,2240
2761,1646
2762,1405
2763,1473
2764,1514
2765,1520
2766,1413
2767,1323
2768,1444
2769,1635
2770,1779
2771,1871
2772,1923
2773,1952
2774,1986
2775,1983
2776,1963
2777,1950
2778,1936
2779,1923
2780,1915
2781,1901
2782,1876
2783,1868
2784,1869
2785,1305
2786,1385
2787,2229
2788,2655
2789,2778
2790,2555
2791,2373
2792,1776
2793,1419
2794,1465
2795,1509
2796,1533
2797,1459
2798,1337
2799,1393
2800,1595
2801,1746
2802,1834
2803,1899
2804,1943
2805,1968
2806,1968
2807,1942
2808,1937
2809,1933
2810,1926
2811,1920
2812,1909
2813,1895
2814,1888
2815,1887
2816,1887
2817,1884
2818,1883
2819,1885
2820,1883
2821,1875
2822,1876
2823,1879
2824,1879
2825,1873
2826,1869
2827,1863
2828,1869
2829,1867
2830,1859
2831,1858
2832,1863
2833,1869
2834,1874
2835,1869
2836,1859
2837,1862
2838,1862
2839,1856
2840,1856
2841,1856
2842,1857
2843,1858
2844,1865
2845,1859
2846,1855
2847,1855
2848,1862
2849,1859
2850,1859
2851,1858
2852,1861
2853,1861
2854,1859
2855,1859
2856,1859
2857,1859
2858,1862
2859,1866
2860,1862
2861,1863
2862,1863
2863,1862
2864,1861
2865,1862
2866,1860
2867,1860
2868,1863
2869,1862
2870,1869
2871,1870
2872,1859
2873,1850
2874,1847
2875,1849
2876,1853
2877,1865
2878,1866
2879,1857
2880,1853
2881,1857
2882,1865
2883,1872
2884,1870
2885,1863
2886,1860
2887,1866
2888,1866
2889,1866
2890,1856
2891,1851
2892,1847
2893,1862
2894,1862
2895,1859
2896,1862
2897,1871
2898,1869
2899,1870
2900,1865
2901,1863
2902,1852
2903,1858
2904,1854
2905,1855
2906,1856
2907,1856
2908,1856
2909,1872
2910,1874
2911,1872
2912,1867
2913,1862
2914,1858
2915,1853
2916,1856
2917,1855
2918,1847
2919,1856
2920,1874
2921,1889
2922,1903
2923,1903
2924,1902
2925,1885
2926,1877
2927,1872
2928,1872
2929,1876
2930,1859
2931,1841
2932,1822
2933,1840
2934,1839
2935,1810
2936,1791
2937,1820
2938,1840
2939,1856
2940,1865
2941,1858
2942,1856
2943,1872
2944,1878
2945,1885
2946,1879
2947,1868
2948,1872
2949,1872
2950,1871
2951,1860
2952,1851
2953,1843
2954,1845
2955,1863
2956,1869
2957,1874
2958,1877
2959,1874
2960,1872
2961,1866
2962,1842
2963,1837
2964,1851
2965,1866
2966,1868
2967,1865
2968,1854
2969,1857
2970,1856
2971,1854
2972,1863
2973,1859
2974,1858
2975,1858
2976,1862
2977,1867
2978,1863
2979,1861
2980,1861
2981,1862
2982,1863
2983,1863
2984,1858
2985,1859
2986,1867
2987,1869
2988,1873
2989,1872
2990,1860
2991,1861
2992,1859
2993,1862
2994,1865
2995,1866
2996,1866
2997,1870
2998,1866
2999,1868
3000,1861
3001,1850
3002,1850
3003,1859
3004,1871
3005,1872
3006,1868
3007,1863
3008,1863
3009,1857
3010,1851
3011,1842
3012,1847
3013,1854
3014,1855
3015,1856
3016,1862
3017,1861
3018,1860
3019,1865
3020,1851
3021,1853
3022,1856
3023,1863
3024,1855
3025,1847
3026,1842
3027,1838
3028,1841
3029,1857
3030,1863
3031,1858
3032,1857
3033,1866
3034,1858
3035,1857
3036,1857
3037,1861
3038,1871
3039,1872
3040,1872
3041,1870
3042,1866
3043,1863
3044,1866
3045,1861
3046,1860
3047,1858
3048,1855
3049,1858
3050,1861
3051,1859
3052,1855
3053,1856
3054,1860
3055,1866
3056,1865
3057,1868
3058,1862
3059,1870
3060,1869
3061,1867
3062,1863
3063,1856
3064,1856
3065,1851
3066,1856
3067,1859
3068,1856
3069,1857
3070,1857
3071,1862
3072,1863
3073,1867
3074,1872
3075,1872
3076,1871
3077,1872
3078,1868
3079,1857
3080,1852
3081,1855
3082,1853
3083,1851
3084,1851
3085,1847
3086,1850
3087,1853
3088,1857
3089,1869
3090,1869
3091,1871
3092,1869
3093,1865
3094,1863
3095,1861
3096,1863
3097,1865
3098,1866
3099,1863
3100,1859
3101,1854
3102,1854
3103,1859
3104,1867
3105,1870
3106,1867
3107,1862
3108,1851
3109,1855
3110,1866
3111,1865
3112,1857
3113,1858
3114,1860
3115,1860
3116,1856
3117,1850
3118,1841
3119,1856
3120,1856
3121,1867
3122,1873
3123,1873
3124,1873
3125,1869
3126,1862
3127,1860
3128,1856
3129,1856
3130,1855
3131,1853
3132,1851
3133,1854
3134,1856
3135,1856
3136,1858
3137,1862
3138,1857
3139,1859
3140,1862
3141,1862
3142,1863
3143,1866
3144,1861
3145,1856
3146,1856
3147,1863
3148,1861
3149,1859
3150,1857
3151,1857
3152,1857
3153,1860
3154,1863
3155,1869
3156,1866
3157,1865
3158,1863
3159,1868
3160,1866
3161,1859
3162,1856
3163,1856
3164,1856
3165,1858
3166,1856
3167,1857
3168,1856
3169,1856
3170,1860
3171,1861
3172,1860
3173,1866
3174,1867
3175,1863
3176,1862
3177,1857
3178,1856
3179,1865
3180,1861
3181,1859
3182,1856
3183,1856
3184,1861
3185,1862
3186,1859
3187,1855
3188,1861
3189,1858
3190,1862
3191,1868
3192,1863
3193,1864
3194,1857
3195,1859
3196,1856
3197,1856
3198,1863
3199,1868
3200,1865
3201,1861
3202,1854
3203,1856
3204,1855
3205,1856
3206,1856
3207,1856
3208,1859
3209,1865
3210,1863
3211,1865
3212,1865
3213,1857
3214,1856
3215,1856
3216,1856
3217,1856
3218,1857
3219,1858
3220,1863
3221,1863
3222,1865
3223,1863
3224,1864
3225,1866
3226,1865
3227,1863
3228,1857
3229,1859
3230,1856
3231,1859
3232,1853
3233,1856
3234,1856
3235,1854
3236,1853
3237,1856
3238,1862
3239,1867
3240,1869
3241,1868
3242,1867
3243,1867
3244,1866
3245,1859
3246,1856
3247,1856
3248,1858
3249,1857
3250,1857
3251,1859
3252,1859
3253,1863
3254,1867
3255,1869
3256,1865
3257,1866
3258,1861
3259,1859
3260,1863
3261,1862
3262,1857
3263,1860
3264,1856
3265,1854
3266,1854
3267,1857
3268,1859
3269,1858
3270,1863
3271,1861
3272,1861
3273,1865
3274,1863
3275,1859
3276,1858
3277,1866
3278,1866
3279,1860
3280,1859
3281,1860
3282,1862
3283,1861
3284,1862
3285,1857
3286,1860
3287,1858
3288,1865
3289,1863
3290,1863
3291,1856
3292,1857
3293,1858
3294,1856
3295,1851
3296,1845
3297,1856
3298,1865
3299,1872
3300,1871
3301,1866
3302,1866
3303,1862
3304,1856
3305,1858
3306,1863
3307,1861
3308,1866
3309,1863
3310,1859
3311,1855
3312,1857
3313,1856
3314,1856
3315,1855
3316,1857
3317,1855
3318,1850
3319,1855
3320,1856
3321,1857
3322,1859
3323,1856
3324,1858
3325,1857
3326,1857
3327,1861
3328,1862
3329,1856
3330,1857
3331,1865
3332,1865
3333,1862
3334,1859
3335,1857
3336,1859
3337,1867
3338,1865
3339,1863
3340,1859
3341,1862
3342,1866
3343,1867
3344,1865
3345,1862
3346,1860
3347,1856
3348,1853
3349,1856
3350,1863
3351,1863
3352,1866
3353,1859
3354,1859
3355,1860
3356,1858
3357,1857
3358,1855
3359,1867
3360,1866
3361,1861
3362,1863
3363,1861
3364,1857
3365,1856
3366,1856
3367,1855
3368,1859
3369,1869
3370,1869
3371,1866
3372,1865
3373,1859
3374,1861
3375,1863
3376,1863
3377,1866
3378,1861
3379,1859
3380,1861
3381,1857
3382,1853
3383,1855
3384,1854
3385,1855
3386,1856
3387,1861
3388,1863
3389,1865
3390,1859
3391,1867
3392,1868
3393,1867
3394,1863
3395,1863
3396,1859
3397,1859
3398,1856
3399,1856
3400,1858
3401,1858
3402,1860
3403,1859
3404,1859
3405,1866
3406,1869
3407,1865
3408,1867
3409,1866
3410,1862
3411,1865
3412,1856
3413,1850
3414,1851
3415,1844
3416,1855
3417,1858
3418,1859
3419,1858
3420,1862
3421,1862
3422,1866
3423,1868
3424,1865
3425,1866
3426,1863
3427,1862
3428,1860
3429,1859
3430,1856
3431,1855
3432,1855
3433,1862
3434,1861
3435,1859
3436,1861
3437,1866
3438,1867
3439,1865
3440,1866
3441,1863
3442,1858
3443,1856
3444,1856
3445,1854
3446,1853
3447,1851
3448,1853
3449,1857
3450,1858
3451,1861
3452,1862
3453,1859
3454,1865
3455,1869
3456,1870
3457,1865
3458,1862
3459,1866
3460,1867
3461,1861
3462,1858
3463,1861
3464,1859
3465,1856
3466,1854
3467,1856
3468,1859
3469,1863
3470,1863
3471,1867
3472,1862
3473,1863
3474,1863
3475,1861
3476,1856
3477,1856
3478,1855
3479,1857
3480,1861
3481,1865
3482,1859
3483,1858
3484,1856
3485,1854
3486,1857
3487,1861
3488,1859
3489,1871
3490,1863
3491,1868
3492,1863
3493,1867
3494,1866
3495,1859
3496,1859
3497,1857
3498,1858
3499,1860
3500,1861
3501,1856
3502,1854
3503,1855
3504,1856
3505,1858
3506,1859
3507,1857
3508,1867
3509,1867
3510,1863
3511,1859
3512,1859
3513,1856
3514,1858
3515,1857
3516,1855
3517,1845
3518,1856
3519,1863
3520,1863
3521,1862
3522,1866
3523,1865
3524,1865
3525,1869
3526,1867
3527,1862
3528,1857
3529,1858
3530,1859
3531,1856
3532,1856
3533,1853
3534,1854
3535,1855
3536,1856
3537,1857
3538,1856
3539,1865
3540,1869
3541,1866
3542,1866
3543,1867
3544,1862
3545,1857
3546,1857
3547,1856
3548,1856
3549,1858
3550,1860
3551,1858
3552,1860
3553,1863
3554,1865
3555,1870
3556,1870
3557,1867
3558,1862
3559,1859
3560,1859
3561,1858
3562,1861
3563,1857
3564,1855
3565,1849
3566,1851
3567,1855
3568,1856
3569,1862
3570,1871
3571,1871
3572,1866
3573,1865
3574,1869
3575,1870
3576,1867
3577,1862
3578,1862
3579,1861
3580,1857
3581,1854
3582,1857
3583,1859
3584,1857
3585,1857
3586,1859
3587,1863
3588,1862
3589,1866
3590,1861
3591,1857
3592,1856
3593,1858
3594,1858
3595,1854
3596,1851
3597,1852
3598,1855
3599,1861
3600,1865
3601,1861
3602,1861
3603,1860
3604,1859
3605,1867
3606,1872
3607,1871
3608,1867
3609,1862
3610,1860
3611,1859
3612,1862
3613,1859
3614,1856
3615,1854
3616,1859
3617,1855
3618,1852
3619,1854
3620,1855
3621,1857
3622,1859
3623,1858
3624,1859
3625,1856
3626,1859
3627,1857
3628,1853
3629,1859
3630,1856
3631,1858
3632,1859
3633,1863
3634,1860
3635,1859
3636,1863
3637,1863
3638,1866
3639,1862
3640,1862
3641,1865
3642,1862
3643,1860
3644,1863
3645,1863
3646,1865
3647,1859
3648,1857
3649,1858
3650,1861
3651,1860
3652,1857
3653,1859
3654,1860
3655,1858
3656,1856
3657,1861
3658,1862
3659,1861
3660,1863
3661,1862
3662,1860
3663,1855
3664,1856
3665,1857
3666,1859
3667,1860
3668,1859
3669,1857
3670,1862
3671,1863
3672,1867
3673,1870
3674,1867
3675,1866
3676,1862
3677,1862
3678,1861
3679,1861
3680,1856
3681,1858
3682,1855
3683,1855
3684,1852
3685,1851
3686,1855
3687,1866
3688,1868
3689,1863
3690,1863
3691,1867
3692,1869
3693,1867
3694,1863
3695,1859
3696,1856
3697,1859
3698,1856
3699,1857
3700,1862
3701,1865
3702,1866
3703,1861
3704,1861
3705,1861
3706,1866
3707,1869
3708,1867
3709,1866
3710,1866
3711,1861
3712,1853
3713,1847
3714,1850
3715,1853
3716,1854
3717,1858
3718,1858
3719,1860
3720,1865
3721,1867
3722,1865
3723,1866
3724,1870
3725,1869
3726,1866
3727,1862
3728,1858
3729,1863
3730,1861
3731,1857
3732,1861
3733,1861
3734,1859
3735,1857
3736,1858
3737,1863
3738,1863
3739,1863
3740,1869
3741,1865
3742,1859
3743,1855
3744,1854
3745,1854
3746,1854
3747,1853
3748,1850
3749,1850
3750,1852
3751,1860
3752,1866
3753,1868
3754,1866
3755,1870
3756,1869
3757,1865
3758,1870
3759,1862
3760,1859
3761,1861
3762,1861
3763,1856
3764,1857
3765,1856
3766,1859
3767,1859
3768,1857
3769,1861
3770,1863
3771,1866
3772,1859
3773,1862
3774,1860
3775,1857
3776,1859
3777,1863
3778,1861
3779,1861
3780,1859
3781,1859
3782,1857
3783,1858
3784,1856
3785,1859
3786,1862
3787,1858
3788,1866
3789,1871
3790,1865
3791,1863
3792,1866
3793,1866
3794,1867
3795,1861
3796,1858
3797,1857
3798,1857
3799,1858
3800,1856
3801,1854
3802,1855
3803,1856
3804,1856
3805,1859
3806,1862
3807,1869
3808,1863
3809,1866
3810,1862
3811,1861
3812,1858
3813,1856
3814,1858
3815,1857
3816,1381
3817,1364
3818,2064
3819,2346
3820,2401
3821,2385
3822,2416
3823,2418
3824,2231
3825,2093
3826,1955
3827,1760
3828,1606
3829,1465
3830,1323
3831,1218
3832,1203
3833,1296
3834,1471
3835,1642
3836,1747
3837,1822
3838,1854
3839,1872
3840,1894
3841,1908
3842,1919
3843,1926
3844,1925
3845,1927
3846,1925
3847,1998
3848,1173
3849,2060
3850,2434
3851,2465
3852,2402
3853,2395
3854,2320
3855,2119
3856,2033
3857,1883
3858,1743
3859,1644
3860,1493
3861,1360
3862,1270
3863,1270
3864,1403
3865,1598
3866,1731
3867,1817
3868,1866
3869,1895
3870,1914
3871,1927
3872,1930
3873,1945
3874,1952
3875,1947
3876,1937
3877,1933
3878,2704
3879,983
3880,1864
3881,2433
3882,2531
3883,2473
3884,2419
3885,2219
3886,2119
3887,1989
3888,1785
3889,1686
3890,1621
3891,1485
3892,1363
3893,1278
3894,1285
3895,1439
3896,1619
3897,1751
3898,1837
3899,1890
3900,1918
3901,1929
3902,1934
3903,1936
3904,1938
3905,1940
3906,1937
3907,1936
3908,1932
3909,1924
3910,1079
3911,1669
3912,2370
3913,2559
3914,2522
3915,2448
3916,2203
3917,2175
3918,1943
3919,1682
3920,1617
3921,1574
3922,1475
3923,1383
3924,1277
3925,1314
3926,1487
3927,1674
3928,1797
3929,1870
3930,1915
3931,1933
3932,1936
3933,1939
3934,1936
3935,1936
3936,1941
3937,1937
3938,1936
3939,1926
3940,1921
3941,1329
3942,1436
3943,2257
3944,2601
3945,2597
3946,2497
3947,2228
3948,2203
3949,1882
3950,1606
3951,1559
3952,1532
3953,1475
3954,1389
3955,1293
3956,1346
3957,1535
3958,1718
3959,1827
3960,1886
3961,1920
3962,1936
3963,1942
3964,1943
3965,1939
3966,1939
3967,1936
3968,1930
3969,1922
3970,1920
3971,1918
3972,2187
3973,1103
3974,2023
3975,2550
3976,2630
3977,2589
3978,2304
3979,2265
3980,1849
3981,1527
3982,1520
3983,1535
3984,1520
3985,1435
3986,1319
3987,1338
3988,1529
3989,1713
3990,1828
3991,1892
3992,1932
3993,1950
3994,1948
3995,1939
3996,1933
3997,1925
3998,1925
3999,1923
4000,1919
4001,1914
4002,1919
4003,2670
4004,965
4005,1850
4006,2478
4007,2619
4008,2634
4009,2375
4010,2291
4011,1818
4012,1494
4013,1513
4014,1535
4015,1561
4016,1476
4017,1335
4018,1344
4019,1535
4020,1722
4021,1826
4022,1886
4023,1927
4024,1950
4025,1952
4026,1949
4027,1936
4028,1932
4029,1926
4030,1929
4031,1925
4032,1917
4033,1907
4034,1899
4035,1086
4036,1587
4037,2320
4038,2559
4039,2651
4040,2452
4041,2376
4042,1871
4043,1471
4044,1507
4045,1579
4046,1598
4047,1535
4048,1382
4049,1359
4050,1529
4051,1709
4052,1820
4053,1877
4054,1920
4055,1939
4056,1941
4057,1939
4058,1935
4059,1927
4060,1922
4061,1920
4062,1918
4063,1906
4064,1904
4065,1902
4066,1404
4067,1350
4068,2171
4069,2539
4070,2660
4071,2525
4072,2427
4073,1906
4074,1441
4075,1471
4076,1575
4077,1607
4078,1570
4079,1426
4080,1363
4081,1520
4082,1706
4083,1817
4084,1879
4085,1914
4086,1931
4087,1943
4088,1947
4089,1936
4090,1923
4091,1926
4092,1921
4093,1917
4094,1908
4095,1904
4096,1894
4097,2128
4098,1085
4099,1984
4100,2480
4101,2627
4102,2603
4103,2495
4104,1994
4105,1467
4106,1437
4107,1535
4108,1600
4109,1600
4110,1469
4111,1393
4112,1524
4113,1690
4114,1807
4115,1869
4116,1903
4117,1923
4118,1937
4119,1936
4120,1931
4121,1926
4122,1921
4123,1920
4124,1915
4125,1909
4126,1903
4127,1897
4128,2736
4129,944
4130,1833
4131,2439
4132,2605
4133,2646
4134,2545
4135,2042
4136,1439
4137,1391
4138,1529
4139,1607
4140,1633
4141,1520
4142,1427
4143,1534
4144,1695
4145,1808
4146,1866
4147,1902
4148,1922
4149,1935
4150,1935
4151,1922
4152,1923
4153,1920
4154,1915
4155,1915
4156,1911
4157,1906
4158,1900
4159,1898
4160,1070
4161,1595
4162,2319
4163,2555
4164,2688
4165,2610
4166,2189
4167,1535
4168,1356
4169,1488
4170,1572
4171,1647
4172,1584
4173,1461
4174,1525
4175,1680
4176,1791
4177,1859
4178,1909
4179,1931
4180,1923
4181,1930
4182,1922
4183,1906
4184,1904
4185,1909
4186,1910
4187,1914
4188,1906
4189,1904
4190,1895
4191,1287
4192,1403
4193,2196
4194,2527
4195,2679
4196,2650
4197,2276
4198,1587
4199,1338
4200,1474
4201,1553
4202,1648
4203,1601
4204,1488
4205,1525
4206,1679
4207,1787
4208,1856
4209,1904
4210,1922
4211,1936
4212,1930
4213,1925
4214,1915
4215,1906
4216,1901
4217,1899
4218,1893
4219,1893
4220,1892
4221,1890
4222,2126
4223,1072
4224,1977
4225,2480
4226,2651
4227,2698
4228,2446
4229,1741
4230,1341
4231,1437
4232,1527
4233,1616
4234,1620
4235,1507
4236,1510
4237,1643
4238,1765
4239,1846
4240,1901
4241,1922
4242,1943
4243,1946
4244,1935
4245,1917
4246,1907
4247,1904
4248,1903
4249,1904
4250,1901
4251,1891
4252,1898
4253,2369
4254,944
4255,1783
4256,2421
4257,2626
4258,2720
4259,2590
4260,1898
4261,1377
4262,1405
4263,1499
4264,1590
4265,1620
4266,1521
4267,1492
4268,1609
4269,1735
4270,1834
4271,1893
4272,1926
4273,1936
4274,1936
4275,1935
4276,1931
4277,1914
4278,1904
4279,1903
4280,1902
4281,1902
4282,1897
4283,1885
4284,1879
4285,1023
4286,1633
4287,2368
4288,2633
4289,2752
4290,2638
4291,1990
4292,1424
4293,1391
4294,1486
4295,1566
4296,1626
4297,1535
4298,1481
4299,1586
4300,1714
4301,1815
4302,1873
4303,1904
4304,1923
4305,1936
4306,1936
4307,1935
4308,1925
4309,1931
4310,1933
4311,1929
4312,1905
4313,1875
4314,1867
4315,1872
4316,1328
4317,1355
4318,2177
4319,2559
4320,2730
4321,2725
4322,2229
4323,1535
4324,1357
4325,1465
4326,1526
4327,1609
4328,1567
4329,1480
4330,1535
4331,1680
4332,1787
4333,1855
4334,1903
4335,1941
4336,1968
4337,1968
4338,1953
4339,1927
4340,1915
4341,1903
4342,1899
4343,1893
4344,1893
4345,1887
4346,1872
4347,1879
4348,1104
4349,2002
4350,2518
4351,2697
4352,2742
4353,2368
4354,1651
4355,1359
4356,1462
4357,1517
4358,1600
4359,1585
4360,1489
4361,1535
4362,1663
4363,1765
4364,1840
4365,1892
4366,1930
4367,1952
4368,1932
4369,1923
4370,1929
4371,1920
4372,1914
4373,1901
4374,1895
4375,1898
4376,1890
4377,1887
4378,2751
4379,939
4380,1835
4381,2466
4382,2667
4383,2749
4384,2494
4385,1785
4386,1386
4387,1445
4388,1510
4389,1585
4390,1594
4391,1509
4392,1512
4393,1631
4394,1744
4395,1836
4396,1889
4397,1921
4398,1923
4399,1923
4400,1935
4401,1950
4402,1936
4403,1919
4404,1907
4405,1904
4406,1902
4407,1891
4408,1882
4409,1888
4410,1003
4411,1629
4412,2359
4413,2624
4414,2754
4415,2628
4416,1927
4417,1411
4418,1415
4419,1488
4420,1535
4421,1607
4422,1525
4423,1499
4424,1603
4425,1727
4426,1826
4427,1882
4428,1919
4429,1936
4430,1950
4431,1950
4432,1942
4433,1917
4434,1893
4435,1883
4436,1885
4437,1889
4438,1887
4439,1888
4440,1891
4441,1890
4442,1887
4443,1881
4444,1874
4445,1874
4446,1872
4447,1871
4448,1870
4449,1868
4450,1868
4451,1867
4452,1867
4453,1867
4454,1871
4455,1871
4456,1871
4457,1867
4458,1866
4459,1870
4460,1865
4461,1867
4462,1859
4463,1855
4464,1862
4465,1859
4466,1856
4467,1856
4468,1857
4469,1861
4470,1863
4471,1869
4472,1868
4473,1868
4474,1867
4475,1859
4476,1858
4477,1856
4478,1851
4479,1858
4480,1870
4481,1871
4482,1862
4483,1859
4484,1857
4485,1861
4486,1863
4487,1867
4488,1867
4489,1867
4490,1861
4491,1856
4492,1855
4493,1854
4494,1849
4495,1845
4496,1851
4497,1858
4498,1861
4499,1860
4500,1859
4501,1856
4502,1858
4503,1859
4504,1863
4505,1859
4506,1867
4507,1863
4508,1861
4509,1863
4510,1860
4511,1863
4512,1865
4513,1856
4514,1857
4515,1856
4516,1857
4517,1854
4518,1851
4519,1855
4520,1856
4521,1856
4522,1858
4523,1861
4524,1859
4525,1858
4526,1857
4527,1857
4528,1859
4529,1865
4530,1862
4531,1859
4532,1859
4533,1861
4534,1859
4535,1866
4536,1864
4537,1863
4538,1865
4539,1861
4540,1861
4541,1869
4542,1872
4543,1870
4544,1866
4545,1863
4546,1859
4547,1859
4548,1854
4549,1862
4550,1867
4551,1870
4552,1859
4553,1854
4554,1859
4555,1861
4556,1871
4557,1872
4558,1872
4559,1873
4560,1872
4561,1870
4562,1866
4563,1854
4564,1851
4565,1858
4566,1861
4567,1861
4568,1868
4569,1871
4570,1867
4571,1867
4572,1870
4573,1865
4574,1867
4575,1866
4576,1867
4577,1865
4578,1863
4579,1856
4580,1856
4581,1864
4582,1862
4583,1855
4584,1853
4585,1859
4586,1859
4587,1872
4588,1872
4589,1868
4590,1863
4591,1861
4592,1861
4593,1858
4594,1867
4595,1872
4596,1871
4597,1867
4598,1855
4599,1861
4600,1857
4601,1859
4602,1860
4603,1864
4604,1867
4605,1863
4606,1863
4607,1866
4608,1865
4609,1861
4610,1856
4611,1862
4612,1867
4613,1856
4614,1851
4615,1853
4616,1856
4617,1854
4618,1861
4619,1870
4620,1867
4621,1867
4622,1871
4623,1869
4624,1869
4625,1867
4626,1867
4627,1865
4628,1861
4629,1855
4630,1851
4631,1856
4632,1859
4633,1861
4634,1860
4635,1863
4636,1861
4637,1866
4638,1870
4639,1866
4640,1867
4641,1862
4642,1869
4643,1856
4644,1856
4645,1858
4646,1854
4647,1856
4648,1853
4649,1858
4650,1861
4651,1862
4652,1862
4653,1859
4654,1869
4655,1871
4656,1874
4657,1870
4658,1862
4659,1862
4660,1861
4661,1857
4662,1856
4663,1857
4664,1856
4665,1856
4666,1855
4667,1855
4668,1859
4669,1865
4670,1863
4671,1866
4672,1869
4673,1862
4674,1862
4675,1854
4676,1853
4677,1853
4678,1863
4679,1867
4680,1865
4681,1862
4682,1859
4683,1859
4684,1859
4685,1861
4686,1863
4687,1862
4688,1866
4689,1866
4690,1862
4691,1862
4692,1862
4693,1868
4694,1858
4695,1865
4696,1860
4697,1857
4698,1858
4699,1856
4700,1859
4701,1863
4702,1867
4703,1861
4704,1865
4705,1862
4706,1857
4707,1853
4708,1850
4709,1858
4710,1859
4711,1863
4712,1857
4713,1859
4714,1853
4715,1856
4716,1857
4717,1856
4718,1854
4719,1860
4720,1860
4721,1862
4722,1865
4723,1870
4724,1865
4725,1866
4726,1866
4727,1867
4728,1861
4729,1859
4730,1858
4731,1856
4732,1856
4733,1850
4734,1853
4735,1851
4736,1851
4737,1863
4738,1872
4739,1872
4740,1862
4741,1859
4742,1859
4743,1866
4744,1862
4745,1858
4746,1855
4747,1853
4748,1853
4749,1853
4750,1858
4751,1870
4752,1869
4753,1857
4754,1858
4755,1872
4756,1879
4757,1872
4758,1865
4759,1863
4760,1866
4761,1861
4762,1859
4763,1856
4764,1854
4765,1847
4766,1846
4767,1847
4768,1856
4769,1861
4770,1861
4771,1866
4772,1861
4773,1858
4774,1856
4775,1872
4776,1879
4777,1875
4778,1863
4779,1858
4780,1853
4781,1856
4782,1856
4783,1857
4784,1861
4785,1867
4786,1869
4787,1866
4788,1856
4789,1856
4790,1857
4791,1856
4792,1857
4793,1861
4794,1859
4795,1857
4796,1857
4797,1857
4798,1857
4799,1860
4800,1858
4801,1859
4802,1861
4803,1862
4804,1861
4805,1862
4806,1865
4807,1865
4808,1862
4809,1856
4810,1857
4811,1871
4812,1872
4813,1863
4814,1861
4815,1859
4816,1861
4817,1858
4818,1859
4819,1855
4820,1856
4821,1852
4822,1857
4823,1865
4824,1862
4825,1858
4826,1856
4827,1862
4828,1859
4829,1857
4830,1863
4831,1859
4832,1856
4833,1856
4834,1856
4835,1857
4836,1861
4837,1860
4838,1860
4839,1865
4840,1868
4841,1869
4842,1866
4843,1868
4844,1862
4845,1860
4846,1862
4847,1859
4848,1861
4849,1857
4850,1858
4851,1857
4852,1863
4853,1858
4854,1863
4855,1863
4856,1856
4857,1858
4858,1858
4859,1871
4860,1872
4861,1859
4862,1853
4863,1853
4864,1857
4865,1858
4866,1856
4867,1856
4868,1861
4869,1869
4870,1866
4871,1865
4872,1872
4873,1870
4874,1870
4875,1866
4876,1867
4877,1867
4878,1867
4879,1856
4880,1854
4881,1849
4882,1853
4883,1851
4884,1857
4885,1861
4886,1858
4887,1865
4888,1866
4889,1866
4890,1865
4891,1866
4892,1859
4893,1862
4894,1863
4895,1862
4896,1861
4897,1858
4898,1860
4899,1859
4900,1859
4901,1862
4902,1863
4903,1868
4904,1872
4905,1878
4906,1877
4907,1871
4908,1872
4909,1850
4910,1835
4911,1840
4912,1850
4913,1851
4914,1855
4915,1856
4916,1855
4917,1850
4918,1853
4919,1863
4920,1867
4921,1867
4922,1863
4923,1861
4924,1858
4925,1867
4926,1870
4927,1866
4928,1861
4929,1857
4930,1861
4931,1858
4932,1857
4933,1856
4934,1854
4935,1866
4936,1873
4937,1863
4938,1862
4939,1867
4940,1877
4941,1879
4942,1872
4943,1854
4944,1851
4945,1852
4946,1852
4947,1854
4948,1855
4949,1858
4950,1863
4951,1859
4952,1859
4953,1865
4954,1866
4955,1866
4956,1866
4957,1863
4958,1861
4959,1867
4960,1863
4961,1859
4962,1867
4963,1862
4964,1856
4965,1861
4966,1860
4967,1854
4968,1855
4969,1857
4970,1858
4971,1865
4972,1872
4973,1866
4974,1863
4975,1862
4976,1858
4977,1856
4978,1851
4979,1861
4980,1861
4981,1856
4982,1858
4983,1861
4984,1862
4985,1860
4986,1858
4987,1860
4988,1859
4989,1857
4990,1865
4991,1865
4992,1859
4993,1863
4994,1861
4995,1862
4996,1855
4997,1854
4998,1859
4999,1861
5000,1861
5001,1867
5002,1872
5003,1861
5004,1857
5005,1857
5006,1856
5007,1854
5008,1853
5009,1861
5010,1859
5011,1861
5012,1863
5013,1856
5014,1860
5015,1856
5016,1858
5017,1858
5018,1855
5019,1866
5020,1867
5021,1869
5022,1870
5023,1864
5024,1859
5025,1859
5026,1859
5027,1858
5028,1856
5029,1856
5030,1857
5031,1859
5032,1858
5033,1855
5034,1854
5035,1859
5036,1859
5037,1859
5038,1859
5039,1867
5040,1867
5041,1870
5042,1866
5043,1859
5044,1861
5045,1861
5046,1859
5047,1863
5048,1860
5049,1857
5050,1858
5051,1859
5052,1861
5053,1857
5054,1857
5055,1857
5056,1862
5057,1867
5058,1867
5059,1863
5060,1858
5061,1858
5062,1863
5063,1861
5064,1859
5065,1856
5066,1857
5067,1853
5068,1856
5069,1861
5070,1867
5071,1865
5072,1868
5073,1867
5074,1866
5075,1863
5076,1861
5077,1859
5078,1860
5079,1855
5080,1856
5081,1856
5082,1857
5083,1858
5084,1863
5085,1865
5086,1870
5087,1871
5088,1867
5089,1862
5090,1855
5091,1855
5092,1859
5093,1856
5094,1855
5095,1856
5096,1852
5097,1853
5098,1855
5099,1861
5100,1863
5101,1862
5102,1859
5103,1858
5104,1858
5105,1856
5106,1857
5107,1865
5108,1867
5109,1869
5110,1866
5111,1859
5112,1856
5113,1857
5114,1859
5115,1866
5116,1862
5117,1859
5118,1853
5119,1855
5120,1854
5121,1856
5122,1860
5123,1868
5124,1863
5125,1863
5126,1861
5127,1857
5128,1856
5129,1852
5130,1856
5131,1861
5132,1866
5133,1866
5134,1862
5135,1861
5136,1859
5137,1862
5138,1858
5139,1856
5140,1858
5141,1859
5142,1863
5143,1856
5144,1856
5145,1862
5146,1866
5147,1865
5148,1863
5149,1860
5150,1860
5151,1859
5152,1866
5153,1862
5154,1865
5155,1863
5156,1856
5157,1852
5158,1857
5159,1861
5160,1856
5161,1861
5162,1869
5163,1866
5164,1867
5165,1866
5166,1862
5167,1858
5168,1860
5169,1853
5170,1855
5171,1856
5172,1858
5173,1866
5174,1869
5175,1865
5176,1869
5177,1871
5178,1867
5179,1863
5180,1860
5181,1862
5182,1858
5183,1851
5184,1851
5185,1856
5186,1855
5187,1859
5188,1861
5189,1856
5190,1857
5191,1867
5192,1868
5193,1863
5194,1862
5195,1859
5196,1856
5197,1862
5198,1870
5199,1871
5200,1866
5201,1863
5202,1862
5203,1862
5204,1867
5205,1865
5206,1867
5207,1867
5208,1862
5209,1863
5210,1860
5211,1859
5212,1857
5213,1853
5214,1855
5215,1852
5216,1855
5217,1850
5218,1858
5219,1857
5220,1861
5221,1865
5222,1867
5223,1867
5224,1869
5225,1867
5226,1861
5227,1859
5228,1861
5229,1856
5230,1856
5231,1857
5232,1856
5233,1856
5234,1858
5235,1861
5236,1861
5237,1859
5238,1864
5239,1867
5240,1869
5241,1866
5242,1871
5243,1863
5244,1856
5245,1851
5246,1854
5247,1856
5248,1856
5249,1865
5250,1861
5251,1861
5252,1865
5253,1863
5254,1865
5255,1867
5256,1870
5257,1867
5258,1865
5259,1867
5260,1863
5261,1857
5262,1853
5263,1856
5264,1861
5265,1863
5266,1859
5267,1859
5268,1858
5269,1859
5270,1857
5271,1866
5272,1863
5273,1856
5274,1856
5275,1858
5276,1867
5277,1863
5278,1859
5279,1861
5280,1857
5281,1856
5282,1862
5283,1858
5284,1856
5285,1859
5286,1868
5287,1871
5288,1859
5289,1861
5290,1867
5291,1863
5292,1861
5293,1861
5294,1858
5295,1856
5296,1855
5297,1859
5298,1858
5299,1858
5300,1859
5301,1859
5302,1862
5303,1856
5304,1856
5305,1859
5306,1857
5307,1867
5308,1867
5309,1865
5310,1861
5311,1861
5312,1859
5313,1856
5314,1855
5315,1857
5316,1856
5317,1855
5318,1856
5319,1856
5320,1863
5321,1870
5322,1871
5323,1868
5324,1864
5325,1865
5326,1863
5327,1859
5328,1858
5329,1856
5330,1858
5331,1860
5332,1861
5333,1854
5334,1856
5335,1856
5336,1857
5337,1857
5338,1856
5339,1861
5340,1858
5341,1866
5342,1863
5343,1864
5344,1859
5345,1858
5346,1858
5347,1858
5348,1857
5349,1861
5350,1859
5351,1857
5352,1856
5353,1857
5354,1863
5355,1863
5356,1869
5357,1871
5358,1872
5359,1872
5360,1868
5361,1862
5362,1859
5363,1854
5364,1852
5365,1853
5366,1854
5367,1851
5368,1865
5369,1867
5370,1863
5371,1866
5372,1870
5373,1866
5374,1867
5375,1867
5376,1867
5377,1863
5378,1859
5379,1856
5380,1856
5381,1854
5382,1857
5383,1859
5384,1863
5385,1864
5386,1863
5387,1865
5388,1862
5389,1861
5390,1857
5391,1859
5392,1860
5393,1856
5394,1857
5395,1855
5396,1847
5397,1851
5398,1853
5399,1855
5400,1859
5401,1862
5402,1867
5403,1863
5404,1860
5405,1863
5406,1869
5407,1868
5408,1869
5409,1866
5410,1862
5411,1856
5412,1858
5413,1856
5414,1857
5415,1859
5416,1858
5417,1859
5418,1856
5419,1855
5420,1857
5421,1857
5422,1860
5423,1858
5424,1859
5425,1857
5426,1857
5427,1855
5428,1855
5429,1856
5430,1858
5431,1857
5432,1856
5433,1856
5434,1858
5435,1859
5436,1861
5437,1860
5438,1867
5439,1871
5440,1866
5441,1015
5442,1629
5443,2172
5444,2323
5445,2348
5446,2334
5447,2351
5448,2329
5449,2227
5450,2160
5451,1998
5452,1814
5453,1677
5454,1521
5455,1348
5456,1223
5457,1201
5458,1301
5459,1472
5460,1646
5461,1755
5462,1818
5463,1824
5464,1850
5465,1889
5466,1906
5467,1913
5468,1909
5469,1904
5470,1903
5471,1904
5472,1479
5473,1363
5474,2133
5475,2392
5476,2398
5477,2353
5478,2353
5479,2278
5480,2203
5481,2143
5482,1958
5483,1799
5484,1680
5485,1504
5486,1357
5487,1279
5488,1266
5489,1378
5490,1567
5491,1693
5492,1792
5493,1854
5494,1883
5495,1905
5496,1929
5497,1941
5498,1937
5499,1934
5500,1931
5501,1933
5502,1925
5503,2059
5504,1168
5505,2030
5506,2404
5507,2432
5508,2385
5509,2327
5510,2169
5511,2186
5512,2038
5513,1815
5514,1744
5515,1690
5516,1535
5517,1426
5518,1322
5519,1296
5520,1440
5521,1613
5522,1739
5523,1825
5524,1877
5525,1911
5526,1927
5527,1929
5528,1932
5529,1931
5530,1929
5531,1925
5532,1924
5533,1919
5534,2323
5535,978
5536,1817
5537,2390
5538,2517
5539,2483
5540,2393
5541,2192
5542,2207
5543,1936
5544,1681
5545,1653
5546,1637
5547,1535
5548,1431
5549,1312
5550,1306
5551,1456
5552,1636
5553,1771
5554,1856
5555,1908
5556,1938
5557,1936
5558,1924
5559,1927
5560,1936
5561,1935
5562,1930
5563,1925
5564,1917
5565,1911
5566,1067
5567,1659
5568,2343
5569,2546
5570,2539
5571,2423
5572,2215
5573,2215
5574,1855
5575,1600
5576,1595
5577,1600
5578,1565
5579,1455
5580,1323
5581,1335
5582,1489
5583,1664
5584,1792
5585,1863
5586,1906
5587,1936
5588,1946
5589,1935
5590,1937
5591,1937
5592,1936
5593,1929
5594,1927
5595,1922
5596,1909
5597,1337
5598,1418
5599,2199
5600,2523
5601,2553
5602,2470
5603,2245
5604,2229
5605,1815
5606,1535
5607,1577
5608,1614
5609,1605
5610,1489
5611,1344
5612,1346
5613,1505
5614,1680
5615,1803
5616,1872
5617,1910
5618,1931
5619,1956
5620,1947
5621,1938
5622,1936
5623,1935
5624,1927
5625,1923
5626,1910
5627,1902
5628,1971
5629,1151
5630,2039
5631,2489
5632,2558
5633,2512
5634,2288
5635,2249
5636,1787
5637,1511
5638,1571
5639,1648
5640,1655
5641,1535
5642,1387
5643,1350
5644,1503
5645,1678
5646,1790
5647,1855
5648,1904
5649,1936
5650,1951
5651,1945
5652,1936
5653,1935
5654,1936
5655,1926
5656,1920
5657,1917
5658,1907
5659,2634
5660,951
5661,1841
5662,2423
5663,2545
5664,2559
5665,2352
5666,2304
5667,1794
5668,1467
5669,1527
5670,1635
5671,1663
5672,1584
5673,1414
5674,1361
5675,1511
5676,1680
5677,1792
5678,1863
5679,1911
5680,1936
5681,1942
5682,1931
5683,1931
5684,1931
5685,1930
5686,1926
5687,1921
5688,1917
5689,1913
5690,1902
5691,1045
5692,1655
5693,2323
5694,2518
5695,2593
5696,2388
5697,2339
5698,1865
5699,1487
5700,1511
5701,1605
5702,1655
5703,1609
5704,1441
5705,1373
5706,1506
5707,1677
5708,1798
5709,1882
5710,1917
5711,1931
5712,1938
5713,1936
5714,1950
5715,1951
5716,1926
5717,1903
5718,1887
5719,1893
5720,1895
5721,1889
5722,1305
5723,1413
5724,2203
5725,2544
5726,2653
5727,2487
5728,2401
5729,1925
5730,1450
5731,1437
5732,1567
5733,1633
5734,1614
5735,1465
5736,1367
5737,1497
5738,1675
5739,1792
5740,1849
5741,1900
5742,1926
5743,1936
5744,1939
5745,1945
5746,1938
5747,1937
5748,1939
5749,1932
5750,1915
5751,1899
5752,1883
5753,1938
5754,1152
5755,2037
5756,2528
5757,2655
5758,2598
5759,2460
5760,2018
5761,1468
5762,1392
5763,1529
5764,1617
5765,1629
5766,1491
5767,1382
5768,1470
5769,1643
5770,1777
5771,1857
5772,1904
5773,1939
5774,1957
5775,1953
5776,1935
5777,1936
5778,1933
5779,1929
5780,1921
5781,1907
5782,1891
5783,1880
5784,2647
5785,949
5786,1841
5787,2465
5788,2653
5789,2669
5790,2489
5791,2131
5792,1531
5793,1374
5794,1507
5795,1605
5796,1643
5797,1525
5798,1394
5799,1456
5800,1623
5801,1770
5802,1858
5803,1910
5804,1943
5805,1947
5806,1942
5807,1931
5808,1914
5809,1913
5810,1910
5811,1909
5812,1907
5813,1894
5814,1891
5815,1886
5816,1083
5817,1614
5818,2333
5819,2606
5820,2706
5821,2525
5822,2301
5823,1667
5824,1367
5825,1478
5826,1583
5827,1647
5828,1571
5829,1415
5830,1424
5831,1584
5832,1727
5833,1834
5834,1889
5835,1914
5836,1936
5837,1963
5838,1952
5839,1934
5840,1925
5841,1921
5842,1920
5843,1909
5844,1899
5845,1892
5846,1889
5847,1409
5848,1349
5849,2177
5850,2559
5851,2719
5852,2594
5853,2402
5854,1759
5855,1357
5856,1423
5857,1553
5858,1643
5859,1605
5860,1451
5861,1417
5862,1559
5863,1710
5864,1811
5865,1869
5866,1904
5867,1929
5868,1939
5869,1933
5870,1931
5871,1937
5872,1943
5873,1933
5874,1921
5875,1909
5876,1896
5877,1877
5878,1949
5879,1131
5880,2019
5881,2544
5882,2719
5883,2645
5884,2470
5885,1854
5886,1387
5887,1397
5888,1529
5889,1622
5890,1610
5891,1463
5892,1399
5893,1535
5894,1693
5895,1807
5896,1876
5897,1922
5898,1936
5899,1945
5900,1945
5901,1924
5902,1914
5903,1915
5904,1918
5905,1919
5906,1908
5907,1895
5908,1895
5909,2343
5910,946
5911,1798
5912,2459
5913,2676
5914,2716
5915,2531
5916,2044
5917,1469
5918,1359
5919,1482
5920,1591
5921,1626
5922,1501
5923,1393
5924,1493
5925,1659
5926,1783
5927,1855
5928,1903
5929,1933
5930,1948
5931,1951
5932,1939
5933,1922
5934,1920
5935,1920
5936,1913
5937,1917
5938,1913
5939,1905
5940,1899
5941,1072
5942,1600
5943,2359
5944,2663
5945,2766
5946,2588
5947,2208
5948,1535
5949,1329
5950,1442
5951,1535
5952,1622
5953,1535
5954,1408
5955,1467
5956,1629
5957,1769
5958,1857
5959,1909
5960,1938
5961,1956
5962,1947
5963,1915
5964,1907
5965,1899
5966,1904
5967,1910
5968,1904
5969,1907
5970,1904
5971,1905
5972,1403
5973,1361
5974,2196
5975,2639
5976,2786
5977,2637
5978,2349
5979,1664
5980,1335
5981,1410
5982,1518
5983,1604
5984,1535
5985,1421
5986,1441
5987,1601
5988,1744
5989,1837
5990,1891
5991,1920
5992,1936
5993,1959
5994,1936
5995,1915
5996,1905
5997,1907
5998,1905
5999,1914
6000,1905
6001,1904
6002,1902
6003,2176
6004,1088
6005,2002
6006,2581
6007,2765
6008,2691
6009,2453
6010,1808
6011,1364
6012,1387
6013,1489
6014,1587
6015,1586
6016,1427
6017,1415
6018,1558
6019,1703
6020,1817
6021,1883
6022,1921
6023,1942
6024,1951
6025,1947
6026,1929
6027,1919
6028,1904
6029,1904
6030,1906
6031,1910
6032,1902
6033,1901
6034,2339
6035,948
6036,1808
6037,2502
6038,2746
6039,2768
6040,2558
6041,1967
6042,1412
6043,1350
6044,1463
6045,1565
6046,1594
6047,1466
6048,1398
6049,1521
6050,1675
6051,1798
6052,1874
6053,1914
6054,1937
6055,1955
6056,1943
6057,1926
6058,1928
6059,1935
6060,1932
6061,1927
6062,1905
6063,1886
6064,1883
6065,1887
6066,1887
6067,1883
6068,1879
6069,1874
6070,1883
6071,1877
6072,1874
6073,1872
6074,1872
6075,1873
6076,1870
6077,1867
6078,1866
6079,1863
6080,1864
6081,1870
6082,1866
6083,1855
6084,1856
6085,1855
6086,1859
6087,1859
6088,1867
6089,1861
6090,1872
6091,1872
6092,1867
6093,1862
6094,1858
6095,1856
6096,1856
6097,1859
6098,1862
6099,1861
6100,1857
6101,1850
6102,1856
6103,1860
6104,1862
6105,1868
6106,1871
6107,1866
6108,1863
6109,1862
6110,1861
6111,1857
6112,1853
6113,1855
6114,1853
6115,1853
6116,1857
6117,1856
6118,1861
6119,1855
6120,1856
6121,1858
6122,1865
6123,1865
6124,1866
6125,1861
6126,1862
6127,1859
6128,1857
6129,1856
6130,1856
6131,1860
6132,1863
6133,1860
6134,1858
6135,1857
6136,1865
6137,1869
6138,1866
6139,1863
6140,1861
6141,1868
6142,1861
6143,1852
6144,1853
6145,1854
6146,1854
6147,1851
6148,1850
6149,1858
6150,1861
6151,1861
6152,1866
6153,1867
6154,1865
6155,1865
6156,1868
6157,1866
6158,1867
6159,1866
6160,1867
6161,1865
6162,1858
6163,1859
6164,1858
6165,1860
6166,1855
6167,1858
6168,1868
6169,1870
6170,1866
6171,1863
6172,1867
6173,1861
6174,1858
6175,1857
6176,1856
6177,1859
6178,1863
6179,1857
6180,1859
6181,1859
6182,1861
6183,1865
6184,1861
6185,1867
6186,1864
6187,1869
6188,1869
6189,1861
6190,1863
6191,1865
6192,1866
6193,1861
6194,1861
6195,1858
6196,1861
6197,1863
6198,1866
6199,1862
6200,1857
6201,1856
6202,1869
6203,1866
6204,1863
6205,1857
6206,1856
6207,1857
6208,1866
6209,1862
6210,1855
6211,1853
6212,1856
6213,1867
6214,1863
6215,1857
6216,1858
6217,1858
6218,1859
6219,1866
6220,1872
6221,1867
6222,1866
6223,1868
6224,1865
6225,1867
6226,1867
6227,1866
6228,1860
6229,1860
6230,1859
6231,1856
6232,1858
6233,1853
6234,1853
6235,1854
6236,1860
6237,1867
6238,1861
6239,1862
6240,1857
6241,1866
6242,1866
6243,1866
6244,1859
6245,1859
6246,1858
6247,1858
6248,1858
6249,1861
6250,1860
6251,1863
6252,1866
6253,1867
6254,1869
6255,1863
6256,1861
6257,1865
6258,1869
6259,1867
6260,1863
6261,1859
6262,1858
6263,1851
6264,1853
6265,1856
6266,1857
6267,1856
6268,1862
6269,1859
6270,1867
6271,1868
6272,1871
6273,1871
6274,1864
6275,1865
6276,1867
6277,1860
6278,1855
6279,1851
6280,1847
6281,1847
6282,1862
6283,1871
6284,1869
6285,1865
6286,1865
6287,1861
6288,1869
6289,1864
6290,1861
6291,1862
6292,1859
6293,1863
6294,1860
6295,1858
6296,1857
6297,1850
6298,1851
6299,1847
6300,1853
6301,1856
6302,1863
6303,1866
6304,1859
6305,1865
6306,1865
6307,1866
6308,1865
6309,1861
6310,1863
6311,1863
6312,1862
6313,1856
6314,1855
6315,1855
6316,1855
6317,1854
6318,1855
6319,1858
6320,1856
6321,1857
6322,1859
6323,1860
6324,1858
6325,1859
6326,1856
6327,1853
6328,1855
6329,1859
6330,1859
6331,1858
6332,1859
6333,1862
6334,1861
6335,1861
6336,1866
6337,1866
6338,1867
6339,1867
6340,1865
6341,1867
6342,1865
6343,1861
6344,1857
6345,1856
6346,1857
6347,1855
6348,1859
6349,1867
6350,1865
6351,1859
6352,1861
6353,1856
6354,1858
6355,1862
6356,1862
6357,1859
6358,1867
6359,1863
6360,1858
6361,1854
6362,1854
6363,1855
6364,1862
6365,1864
6366,1864
6367,1861
6368,1864
6369,1867
6370,1867
6371,1869
6372,1863
6373,1862
6374,1859
6375,1860
6376,1863
6377,1866
6378,1865
6379,1862
6380,1861
6381,1859
6382,1859
6383,1854
6384,1856
6385,1855
6386,1854
6387,1854
6388,1863
6389,1858
6390,1861
6391,1863
6392,1861
6393,1859
6394,1861
6395,1861
6396,1859
6397,1857
6398,1858
6399,1858
6400,1856
6401,1862
6402,1863
6403,1867
6404,1866
6405,1865
6406,1861
6407,1862
6408,1870
6409,1868
6410,1865
6411,1856
6412,1857
6413,1851
6414,1853
6415,1855
6416,1855
6417,1853
6418,1859
6419,1867
6420,1870
6421,1870
6422,1862
6423,1861
6424,1863
6425,1865
6426,1861
6427,1863
6428,1863
6429,1857
6430,1856
6431,1859
6432,1857
6433,1856
6434,1861
6435,1866
6436,1867
6437,1867
6438,1871
6439,1867
6440,1861
6441,1864
6442,1863
6443,1856
6444,1855
6445,1850
6446,1852
6447,1851
6448,1856
6449,1863
6450,1858
6451,1860
6452,1863
6453,1869
6454,1862
6455,1862
6456,1861
6457,1866
6458,1868
6459,1867
6460,1861
6461,1857
6462,1860
6463,1858
6464,1861
6465,1863
6466,1856
6467,1857
6468,1863
6469,1866
6470,1869
6471,1866
6472,1863
6473,1855
6474,1854
6475,1856
6476,1854
6477,1853
6478,1856
6479,1869
6480,1869
6481,1861
6482,1856
6483,1859
6484,1862
6485,1865
6486,1865
6487,1866
6488,1874
6489,1865
6490,1865
6491,1862
6492,1861
6493,1857
6494,1857
6495,1859
6496,1856
6497,1854
6498,1856
6499,1861
6500,1859
6501,1863
6502,1867
6503,1857
6504,1861
6505,1860
6506,1857
6507,1856
6508,1866
6509,1863
6510,1859
6511,1859
6512,1858
6513,1859
6514,1858
6515,1859
6516,1859
6517,1862
6518,1861
6519,1861
6520,1867
6521,1865
6522,1863
6523,1862
6524,1863
6525,1863
6526,1861
6527,1859
6528,1857
6529,1858
6530,1863
6531,1861
6532,1862
6533,1854
6534,1856
6535,1858
6536,1858
6537,1857
6538,1861
6539,1857
6540,1856
6541,1867
6542,1863
6543,1863
6544,1860
6545,1856
6546,1855
6547,1853
6548,1859
6549,1857
6550,1856
6551,1862
6552,1866
6553,1870
6554,1871
6555,1874
6556,1872
6557,1863
6558,1862
6559,1855
6560,1854
6561,1857
6562,1858
6563,1851
6564,1857
6565,1852
6566,1850
6567,1855
6568,1862
6569,1863
6570,1863
6571,1866
6572,1869
6573,1865
6574,1863
6575,1862
6576,1859
6577,1858
6578,1860
6579,1862
6580,1860
6581,1857
6582,1856
6583,1856
6584,1862
6585,1869
6586,1865
6587,1867
6588,1865
6589,1857
6590,1856
6591,1857
6592,1858
6593,1859
6594,1857
6595,1856
6596,1856
6597,1859
6598,1858
6599,1859
6600,1857
6601,1861
6602,1868
6603,1869
6604,1863
6605,1869
6606,1865
6607,1863
6608,1863
6609,1859
6610,1856
6611,1855
6612,1854
6613,1855
6614,1856
6615,1857
6616,1857
6617,1861
6618,1857
6619,1856
6620,1858
6621,1858
6622,1856
6623,1857
6624,1862
6625,1861
6626,1856
6627,1852
6628,1853
6629,1851
6630,1847
6631,1859
6632,1861
6633,1860
6634,1859
6635,1866
6636,1866
6637,1867
6638,1863
6639,1865
6640,1863
6641,1867
6642,1865
6643,1859
6644,1858
6645,1855
6646,1856
6647,1858
6648,1863
6649,1861
6650,1859
6651,1859
6652,1865
6653,1861
6654,1856
6655,1858
6656,1859
6657,1859
6658,1866
6659,1858
6660,1859
6661,1860
6662,1856
6663,1859
6664,1859
6665,1858
6666,1862
6667,1860
6668,1863
6669,1864
6670,1867
6671,1865
6672,1867
6673,1863
6674,1865
6675,1863
6676,1859
6677,1860
6678,1862
6679,1859
6680,1856
6681,1859
6682,1861
6683,1854
6684,1856
6685,1855
6686,1859
6687,1859
6688,1865
6689,1867
6690,1857
6691,1865
6692,1863
6693,1863
6694,1862
6695,1857
6696,1858
6697,1856
6698,1855
6699,1856
6700,1855
6701,1860
6702,1867
6703,1869
6704,1870
6705,1869
6706,1862
6707,1858
6708,1866
6709,1866
6710,1858
6711,1857
6712,1855
6713,1849
6714,1849
6715,1850
6716,1851
6717,1857
6718,1860
6719,1865
6720,1867
6721,1863
6722,1863
6723,1866
6724,1863
6725,1865
6726,1860
6727,1859
6728,1858
6729,1860
6730,1856
6731,1857
6732,1857
6733,1858
6734,1863
6735,1869
6736,1872
6737,1865
6738,1865
6739,1858
6740,1858
6741,1861
6742,1863
6743,1856
6744,1854
6745,1856
6746,1853
6747,1850
6748,1845
6749,1846
6750,1850
6751,1869
6752,1872
6753,1866
6754,1870
6755,1870
6756,1867
6757,1863
6758,1863
6759,1859
6760,1856
6761,1856
6762,1858
6763,1855
6764,1857
6765,1856
6766,1861
6767,1867
6768,1867
6769,1867
6770,1869
6771,1865
6772,1866
6773,1856
6774,1856
6775,1858
6776,1857
6777,1855
6778,1861
6779,1857
6780,1858
6781,1859
6782,1862
6783,1857
6784,1856
6785,1859
6786,1869
6787,1869
6788,1865
6789,1859
6790,1863
6791,1866
6792,1861
6793,1861
6794,1862
6795,1861
6796,1858
6797,1857
6798,1860
6799,1859
6800,1859
6801,1861
6802,1863
6803,1859
6804,1859
6805,1860
6806,1857
6807,1858
6808,1863
6809,1861
6810,1859
6811,1861
6812,1857
6813,1854
6814,1856
6815,1860
6816,1858
6817,1862
6818,1861
6819,1858
6820,1866
6821,1865
6822,1862
6823,1867
6824,1866
6825,1862
6826,1862
6827,1864
6828,1859
6829,1858
6830,1859
6831,1858
6832,1859
6833,1853
6834,1854
6835,1857
6836,1858
6837,1857
6838,1859
6839,1863
6840,1863
6841,1867
6842,1860
6843,1859
6844,1861
6845,1861
6846,1856
6847,1859
6848,1859
6849,1857
6850,1861
6851,1867
6852,1869
6853,1863
6854,1866
6855,1866
6856,1866
6857,1867
6858,1868
6859,1863
6860,1857
6861,1856
6862,1856
6863,1849
6864,1851
6865,1859
6866,1856
6867,1855
6868,1863
6869,1865
6870,1867
6871,1868
6872,1866
6873,1866
6874,1866
6875,1862
6876,1862
6877,1858
6878,1857
6879,1856
6880,1858
6881,1859
6882,1856
6883,1859
6884,1863
6885,1866
6886,1867
6887,1865
6888,1867
6889,1859
6890,1859
6891,1857
6892,1855
6893,1855
6894,1854
6895,1856
6896,1855
6897,1855
6898,1861
6899,1860
6900,1862
6901,1861
6902,1859
6903,1859
6904,1861
6905,1866
6906,1865
6907,1867
6908,1866
6909,1859
6910,1859
6911,1858
6912,1856
6913,1858
6914,1856
6915,1856
6916,1856
6917,1858
6918,1857
6919,1858
6920,1856
6921,1857
6922,1860
6923,1856
6924,1856
6925,1856
6926,1856
6927,1857
6928,1853
6929,1854
6930,1853
6931,1855
6932,1857
6933,1857
6934,1862
6935,1865
6936,1862
6937,1861
6938,1862
6939,1863
6940,1865
6941,1869
6942,1869
6943,1863
6944,1857
6945,1856
6946,1859
6947,1856
6948,1859
6949,1858
6950,1861
6951,1862
6952,1863
6953,1857
6954,1858
6955,1862
6956,1859
6957,1859
6958,1863
6959,1862
6960,1860
6961,1858
6962,1858
6963,1859
6964,1859
6965,1861
6966,1857
6967,1861
6968,1861
6969,1867
6970,1870
6971,1867
6972,1867
6973,1862
6974,1866
6975,1861
6976,1860
6977,1862
6978,1857
6979,1856
6980,1857
6981,1856
6982,1856
6983,1855
6984,1858
6985,1859
6986,1861
6987,1867
6988,1867
6989,1861
6990,1869
6991,1866
6992,1862
6993,1862
6994,1856
6995,1858
6996,1856
6997,1856
6998,1856
6999,1863
7000,1865
7001,1865
7002,1862
7003,1866
7004,1866
7005,1862
7006,1863
7007,1862
7008,1860
7009,1859
7010,1856
7011,1855
7012,1857
7013,1853
7014,1850
7015,1856
7016,1857
7017,1857
7018,1863
7019,1863
7020,1863
7021,1863
7022,1864
7023,1862
7024,1859
7025,1859
7026,1860
7027,1863
7028,1863
7029,1859
7030,1857
7031,1861
7032,1858
7033,1857
7034,1857
7035,1861
7036,1865
7037,1867
7038,1866
7039,1863
7040,1867
7041,1866
7042,1861
7043,1853
7044,1851
7045,1853
7046,1853
7047,1851
7048,1850
7049,1856
7050,1860
7051,1863
7052,1861
7053,1869
7054,1866
7055,1865
7056,1863
7057,1863
7058,1863
7059,1861
7060,1859
7061,1857
7062,1856
7063,1856
7064,1862
7065,2111
7066,933
7067,1733
7068,2192
7069,2314
7070,2339
7071,2352
7072,2393
7073,2320
7074,2161
7075,2117
7076,1969
7077,1803
7078,1678
7079,1532
7080,1371
7081,1249
7082,1220
7083,1302
7084,1467
7085,1627
7086,1733
7087,1806
7088,1834
7089,1862
7090,1890
7091,1907
7092,1915
7093,1919
7094,1918
7095,1916
7096,1915
7097,1232
7098,1522
7099,2189
7100,2381
7101,2375
7102,2357
7103,2359
7104,2203
7105,2122
7106,2095
7107,1920
7108,1802
7109,1718
7110,1557
7111,1408
7112,1312
7113,1273
7114,1392
7115,1566
7116,1695
7117,1792
7118,1857
7119,1892
7120,1910
7121,1924
7122,1934
7123,1933
7124,1935
7125,1931
7126,1925
7127,1920
7128,1680
7129,1278
7130,2085
7131,2425
7132,2448
7133,2416
7134,2352
7135,2133
7136,2114
7137,1927
7138,1749
7139,1747
7140,1718
7141,1600
7142,1461
7143,1328
7144,1303
7145,1451
7146,1613
7147,1741
7148,1824
7149,1872
7150,1903
7151,1913
7152,1918
7153,1930
7154,1939
7155,1942
7156,1938
7157,1934
7158,1927
7159,2729
7160,1031
7161,1934
7162,2417
7163,2493
7164,2480
7165,2351
7166,2179
7167,2119
7168,1808
7169,1650
7170,1687
7171,1681
7172,1603
7173,1468
7174,1328
7175,1337
7176,1487
7177,1649
7178,1771
7179,1846
7180,1904
7181,1929
7182,1933
7183,1931
7184,1929
7185,1936
7186,1936
7187,1936
7188,1929
7189,1919
7190,2182
7191,989
7192,1786
7193,2385
7194,2532
7195,2538
7196,2367
7197,2256
7198,2109
7199,1722
7200,1569
7201,1617
7202,1637
7203,1598
7204,1467
7205,1328
7206,1371
7207,1535
7208,1711
7209,1819
7210,1874
7211,1910
7212,1927
7213,1927
7214,1916
7215,1919
7216,1927
7217,1931
7218,1921
7219,1915
7220,1913
7221,1910
7222,1136
7223,1583
7224,2290
7225,2539
7226,2559
7227,2438
7228,2323
7229,2099
7230,1650
7231,1502
7232,1589
7233,1633
7234,1609
7235,1483
7236,1359
7237,1398
7238,1569
7239,1718
7240,1819
7241,1874
7242,1911
7243,1936
7244,1942
7245,1941
7246,1930
7247,1927
7248,1925
7249,1922
7250,1920
7251,1920
7252,1914
7253,1506
7254,1328
7255,2135
7256,2502
7257,2559
7258,2503
7259,2386
7260,2118
7261,1628
7262,1456
7263,1568
7264,1634
7265,1642
7266,1518
7267,1379
7268,1412
7269,1581
7270,1728
7271,1824
7272,1882
7273,1918
7274,1936
7275,1936
7276,1936
7277,1934
7278,1926
7279,1923
7280,1920
7281,1914
7282,1905
7283,1896
7284,2378
7285,1059
7286,1961
7287,2448
7288,2559
7289,2583
7290,2459
7291,2179
7292,1637
7293,1429
7294,1526
7295,1614
7296,1659
7297,1563
7298,1409
7299,1425
7300,1590
7301,1729
7302,1827
7303,1887
7304,1922
7305,1936
7306,1937
7307,1938
7308,1934
7309,1923
7310,1918
7311,1911
7312,1906
7313,1895
7314,1895
7315,2156
7316,970
7317,1758
7318,2387
7319,2559
7320,2645
7321,2509
7322,2233
7323,1657
7324,1391
7325,1493
7326,1596
7327,1652
7328,1591
7329,1445
7330,1440
7331,1586
7332,1723
7333,1827
7334,1893
7335,1929
7336,1946
7337,1937
7338,1923
7339,1927
7340,1927
7341,1925
7342,1916
7343,1904
7344,1895
7345,1891
7346,1885
7347,1170
7348,1510
7349,2254
7350,2514
7351,2653
7352,2553
7353,2357
7354,1759
7355,1392
7356,1458
7357,1571
7358,1650
7359,1616
7360,1472
7361,1443
7362,1584
7363,1717
7364,1808
7365,1859
7366,1902
7367,1936
7368,1941
7369,1936
7370,1935
7371,1929
7372,1921
7373,1913
7374,1908
7375,1903
7376,1896
7377,1888
7378,1475
7379,1325
7380,2146
7381,2521
7382,2672
7383,2628
7384,2429
7385,1787
7386,1356
7387,1414
7388,1535
7389,1645
7390,1634
7391,1498
7392,1456
7393,1585
7394,1710
7395,1808
7396,1861
7397,1897
7398,1922
7399,1931
7400,1935
7401,1933
7402,1926
7403,1918
7404,1914
7405,1907
7406,1904
7407,1904
7408,1904
7409,2341
7410,1046
7411,1955
7412,2486
7413,2666
7414,2690
7415,2517
7416,1863
7417,1361
7418,1368
7419,1499
7420,1616
7421,1646
7422,1530
7423,1463
7424,1583
7425,1701
7426,1793
7427,1856
7428,1899
7429,1922
7430,1935
7431,1936
7432,1936
7433,1920
7434,1917
7435,1911
7436,1910
7437,1905
7438,1900
7439,1901
7440,2019
7441,976
7442,1731
7443,2394
7444,2619
7445,2725
7446,2611
7447,2018
7448,1445
7449,1350
7450,1472
7451,1583
7452,1652
7453,1570
7454,1474
7455,1563
7456,1687
7457,1788
7458,1856
7459,1900
7460,1919
7461,1930
7462,1937
7463,1922
7464,1920
7465,1909
7466,1904
7467,1903
7468,1907
7469,1902
7470,1903
7471,1900
7472,1162
7473,1526
7474,2291
7475,2605
7476,2749
7477,2669
7478,2150
7479,1520
7480,1341
7481,1443
7482,1535
7483,1633
7484,1581
7485,1474
7486,1535
7487,1670
7488,1778
7489,1847
7490,1904
7491,1934
7492,1943
7493,1943
7494,1933
7495,1918
7496,1898
7497,1884
7498,1897
7499,1904
7500,1903
7501,1901
7502,1898
7503,1603
7504,1265
7505,2121
7506,2557
7507,2735
7508,2725
7509,2333
7510,1637
7511,1330
7512,1415
7513,1505
7514,1612
7515,1597
7516,1483
7517,1514
7518,1635
7519,1750
7520,1835
7521,1881
7522,1911
7523,1934
7524,1941
7525,1934
7526,1924
7527,1921
7528,1917
7529,1910
7530,1906
7531,1903
7532,1897
7533,1892
7534,2330
7535,1047
7536,1981
7537,2547
7538,2736
7539,2771
7540,2441
7541,1735
7542,1346
7543,1392
7544,1473
7545,1586
7546,1590
7547,1482
7548,1495
7549,1622
7550,1737
7551,1823
7552,1877
7553,1906
7554,1936
7555,1946
7556,1941
7557,1936
7558,1920
7559,1907
7560,1902
7561,1899
7562,1898
7563,1894
7564,1893
7565,2030
7566,971
7567,1731
7568,2442
7569,2692
7570,2797
7571,2608
7572,1909
7573,1404
7574,1374
7575,1454
7576,1535
7577,1600
7578,1516
7579,1484
7580,1589
7581,1709
7582,1799
7583,1861
7584,1904
7585,1927
7586,1951
7587,1947
7588,1941
7589,1930
7590,1925
7591,1923
7592,1918
7593,1904
7594,1892
7595,1887
7596,1883
7597,1091
7598,1565
7599,2338
7600,2651
7601,2795
7602,2678
7603,2047
7604,1466
7605,1360
7606,1439
7607,1523
7608,1600
7609,1523
7610,1473
7611,1574
7612,1683
7613,1778
7614,1858
7615,1904
7616,1922
7617,1936
7618,1955
7619,1949
7620,1936
7621,1913
7622,1899
7623,1902
7624,1904
7625,1903
7626,1899
7627,1891
7628,1437
7629,1328
7630,2176
7631,2603
7632,2754
7633,2727
7634,2224
7635,1584
7636,1361
7637,1427
7638,1488
7639,1588
7640,1565
7641,1485
7642,1535
7643,1654
7644,1755
7645,1840
7646,1901
7647,1930
7648,1938
7649,1942
7650,1939
7651,1926
7652,1920
7653,1915
7654,1915
7655,1907
7656,1904
7657,1903
7658,1895
7659,2542
7660,997
7661,1936
7662,2538
7663,2723
7664,2768
7665,2415
7666,1733
7667,1376
7668,1417
7669,1472
7670,1568
7671,1575
7672,1490
7673,1519
7674,1632
7675,1737
7676,1811
7677,1872
7678,1905
7679,1931
7680,1949
7681,1947
7682,1934
7683,1925
7684,1921
7685,1916
7686,1916
7687,1911
7688,1904
7689,1895
7690,1885
7691,1889
7692,1883
7693,1879
7694,1877
7695,1872
7696,1872
7697,1870
7698,1869
7699,1866
7700,1867
7701,1870
7702,1870
7703,1861
7704,1866
7705,1863
7706,1858
7707,1858
7708,1854
7709,1859
7710,1870
7711,1863
7712,1858
7713,1856
7714,1856
7715,1859
7716,1861
7717,1861
7718,1857
7719,1866
7720,1863
7721,1861
7722,1862
7723,1866
7724,1862
7725,1861
7726,1859
7727,1859
7728,1859
7729,1856
7730,1856
7731,1855
7732,1862
7733,1861
7734,1861
7735,1860
7736,1862
7737,1869
7738,1870
7739,1862
7740,1859
7741,1863
7742,1865
7743,1858
7744,1856
7745,1859
7746,1859
7747,1858
7748,1856
7749,1856
7750,1857
7751,1862
7752,1860
7753,1862
7754,1867
7755,1861
7756,1862
7757,1862
7758,1862
7759,1868
7760,1859
7761,1858
7762,1858
7763,1851
7764,1854
7765,1848
7766,1853
7767,1855
7768,1859
7769,1871
7770,1868
7771,1871
7772,1866
7773,1868
7774,1863
7775,1862
7776,1861
7777,1862
7778,1859
7779,1857
7780,1857
7781,1858
7782,1864
7783,1865
7784,1863
7785,1863
7786,1867
7787,1869
7788,1867
7789,1872
7790,1859
7791,1858
7792,1858
7793,1856
7794,1854
7795,1856
7796,1856
7797,1856
7798,1858
7799,1865
7800,1866
7801,1867
7802,1869
7803,1869
7804,1872
7805,1870
7806,1868
7807,1869
7808,1867
7809,1863
7810,1860
7811,1858
7812,1858
7813,1856
7814,1859
7815,1863
7816,1860
7817,1872
7818,1863
7819,1861
7820,1861
7821,1863
7822,1859
7823,1856
7824,1861
7825,1858
7826,1857
7827,1857
7828,1855
7829,1856
7830,1857
7831,1863
7832,1862
7833,1863
7834,1869
7835,1871
7836,1872
7837,1871
7838,1871
7839,1863
7840,1861
7841,1866
7842,1859
7843,1867
7844,1862
7845,1859
7846,1861
7847,1863
7848,1862
7849,1857
7850,1859
7851,1865
7852,1863
7853,1856
7854,1862
7855,1862
7856,1860
7857,1861
7858,1867
7859,1870
7860,1865
7861,1860
7862,1858
7863,1863
7864,1860
7865,1859
7866,1859
7867,1859
7868,1862
7869,1871
7870,1869
7871,1870
7872,1870
7873,1863
7874,1862
7875,1857
7876,1858
7877,1866
7878,1863
7879,1860
7880,1857
7881,1859
7882,1862
7883,1856
7884,1859
7885,1855
7886,1857
7887,1867
7888,1868
7889,1865
7890,1866
7891,1861
7892,1859
7893,1857
7894,1865
7895,1867
7896,1861
7897,1859
7898,1860
7899,1860
7900,1862
7901,1862
7902,1863
7903,1867
7904,1869
7905,1868
7906,1866
7907,1861
7908,1855
7909,1854
7910,1863
7911,1869
7912,1858
7913,1851
7914,1852
7915,1850
7916,1859
7917,1856
7918,1865
7919,1870
7920,1867
7921,1868
7922,1869
7923,1866
7924,1863
7925,1862
7926,1859
7927,1856
7928,1856
7929,1856
7930,1859
7931,1857
7932,1856
7933,1861
7934,1861
7935,1861
7936,1862
7937,1863
7938,1865
7939,1866
7940,1866
7941,1863
7942,1861
7943,1855
7944,1850
7945,1851
7946,1853
7947,1852
7948,1854
7949,1862
7950,1863
7951,1867
7952,1869
7953,1866
7954,1862
7955,1866
7956,1863
7957,1867
7958,1863
7959,1860
7960,1857
7961,1855
7962,1856
7963,1856
7964,1855
7965,1856
7966,1867
7967,1862
7968,1863
7969,1865
7970,1870
7971,1869
7972,1866
7973,1856
7974,1856
7975,1856
7976,1856
7977,1853
7978,1855
7979,1856
7980,1859
7981,1865
7982,1860
7983,1861
7984,1863
7985,1863
7986,1866
7987,1866
7988,1866
7989,1863
7990,1868
7991,1861
7992,1857
7993,1856
7994,1858
7995,1863
7996,1861
7997,1858
7998,1856
7999,1856
8000,1862
8001,1870
8002,1870
8003,1859
8004,1859
8005,1857
8006,1854
8007,1855
8008,1859
8009,1857
8010,1856
8011,1858
8012,1856
8013,1855
8014,1856
8015,1858
8016,1859
8017,1863
8018,1867
8019,1866
8020,1863
8021,1865
8022,1865
8023,1862
8024,1863
8025,1862
8026,1861
8027,1859
8028,1862
8029,1857
8030,1857
8031,1856
8032,1858
8033,1855
8034,1854
8035,1856
8036,1858
8037,1868
8038,1858
8039,1857
8040,1857
8041,1859
8042,1863
8043,1865
8044,1865
8045,1863
8046,1859
8047,1858
8048,1857
8049,1859
8050,1861
8051,1863
8052,1865
8053,1868
8054,1862
8055,1862
8056,1865
8057,1867
8058,1865
8059,1861
8060,1858
8061,1855
8062,1855
8063,1852
8064,1849
8065,1850
8066,1854
8067,1860
8068,1868
8069,1870
8070,1865
8071,1866
8072,1866
8073,1863
8074,1862
8075,1861
8076,1861
8077,1857
8078,1858
8079,1857
8080,1861
8081,1858
8082,1856
8083,1856
8084,1860
8085,1862
8086,1862
8087,1868
8088,1866
8089,1862
8090,1857
8091,1861
8092,1859
8093,1856
8094,1855
8095,1853
8096,1853
8097,1856
8098,1861
8099,1861
8100,1861
8101,1865
8102,1866
8103,1867
8104,1869
8105,1863
8106,1861
8107,1866
8108,1863
8109,1859
8110,1858
8111,1857
8112,1859
8113,1856
8114,1859
8115,1856
8116,1856
8117,1863
8118,1858
8119,1858
8120,1860
8121,1859
8122,1859
8123,1861
8124,1856
8125,1855
8126,1855
8127,1854
8128,1846
8129,1854
8130,1857
8131,1856
8132,1864
8133,1865
8134,1869
8135,1867
8136,1871
8137,1866
8138,1862
8139,1859
8140,1863
8141,1865
8142,1861
8143,1860
8144,1858
8145,1856
8146,1856
8147,1857
8148,1858
8149,1859
8150,1862
8151,1867
8152,1866
8153,1859
8154,1856
8155,1854
8156,1858
8157,1862
8158,1870
8159,1862
8160,1860
8161,1863
8162,1862
8163,1858
8164,1859
8165,1857
8166,1861
8167,1859
8168,1858
8169,1865
8170,1866
8171,1867
8172,1865
8173,1866
8174,1868
8175,1858
8176,1858
8177,1855
8178,1854
8179,1859
8180,1863
8181,1866
8182,1862
8183,1855
8184,1855
8185,1857
8186,1865
8187,1870
8188,1871
8189,1866
8190,1866
8191,1863
8192,1861
8193,1857
8194,1856
8195,1856
8196,1856
8197,1856
8198,1865
8199,1862
8200,1863
8201,1861
8202,1866
8203,1866
8204,1863
8205,1861
8206,1860
8207,1867
8208,1864
8209,1859
8210,1859
8211,1857
8212,1856
8213,1853
8214,1851
8215,1855
8216,1853
8217,1855
8218,1859
8219,1863
8220,1866
8221,1871
8222,1864
8223,1863
8224,1859
8225,1859
8226,1859
8227,1861
8228,1861
8229,1857
8230,1858
8231,1857
8232,1859
8233,1859
8234,1862
8235,1865
8236,1867
8237,1866
8238,1865
8239,1863
8240,1864
8241,1862
8242,1859
8243,1854
8244,1850
8245,1850
8246,1855
8247,1854
8248,1851
8249,1856
8250,1856
8251,1858
8252,1859
8253,1871
8254,1876
8255,1870
8256,1867
8257,1863
8258,1862
8259,1858
8260,1858
8261,1861
8262,1857
8263,1856
8264,1858
8265,1859
8266,1857
8267,1859
8268,1866
8269,1869
8270,1869
8271,1866
8272,1862
8273,1857
8274,1855
8275,1855
8276,1851
8277,1853
8278,1862
8279,1856
8280,1861
8281,1862
8282,1860
8283,1858
8284,1862
8285,1861
8286,1859
8287,1865
8288,1869
8289,1866
8290,1867
8291,1861
8292,1858
8293,1859
8294,1861
8295,1857
8296,1858
8297,1858
8298,1859
8299,1857
8300,1859
8301,1861
8302,1863
8303,1858
8304,1858
8305,1858
8306,1859
8307,1860
8308,1862
8309,1860
8310,1857
8311,1860
8312,1858
8313,1858
8314,1859
8315,1858
8316,1857
8317,1862
8318,1861
8319,1861
8320,1863
8321,1862
8322,1863
8323,1870
8324,1868
8325,1865
8326,1856
8327,1857
8328,1853
8329,1858
8330,1862
8331,1862
8332,1862
8333,1856
8334,1856
8335,1856
8336,1858
8337,1862
8338,1856
8339,1861
8340,1861
8341,1862
8342,1859
8343,1863
8344,1856
8345,1856
8346,1855
8347,1857
8348,1856
8349,1861
8350,1869
8351,1866
8352,1865
8353,1863
8354,1866
8355,1863
8356,1863
8357,1866
8358,1863
8359,1858
8360,1858
8361,1862
8362,1861
8363,1856
8364,1856
8365,1856
8366,1856
8367,1855
8368,1860
8369,1863
8370,1863
8371,1865
8372,1862
8373,1863
8374,1862
8375,1862
8376,1860
8377,1862
8378,1859
8379,1856
8380,1856
8381,1858
8382,1857
8383,1859
8384,1863
8385,1866
8386,1863
8387,1865
8388,1863
8389,1867
8390,1859
8391,1857
8392,1857
8393,1855
8394,1851
8395,1853
8396,1854
8397,1851
8398,1856
8399,1859
8400,1863
8401,1863
8402,1866
8403,1868
8404,1869
8405,1865
8406,1866
8407,1863
8408,1857
8409,1859
8410,1863
8411,1861
8412,1858
8413,1857
8414,1858
8415,1859
8416,1857
8417,1861
8418,1859
8419,1859
8420,1857
8421,1859
8422,1858
8423,1858
8424,1856
8425,1857
8426,1856
8427,1853
8428,1851
8429,1856
8430,1858
8431,1859
8432,1858
8433,1861
8434,1862
8435,1867
8436,1863
8437,1867
8438,1865
8439,1867
8440,1866
8441,1862
8442,1862
8443,1858
8444,1856
8445,1856
8446,1857
8447,1855
8448,1858
8449,1861
8450,1866
8451,1867
8452,1866
8453,1861
8454,1859
8455,1858
8456,1859
8457,1861
8458,1863
8459,1860
8460,1859
8461,1859
8462,1856
8463,1857
8464,1857
8465,1858
8466,1858
8467,1861
8468,1861
8469,1862
8470,1868
8471,1866
8472,1866
8473,1867
8474,1866
8475,1861
8476,1862
8477,1859
8478,1858
8479,1856
8480,1858
8481,1857
8482,1857
8483,1856
8484,1856
8485,1857
8486,1859
8487,1863
8488,1865
8489,1869
8490,1867
8491,1866
8492,1863
8493,1857
8494,1857
8495,1856
8496,1857
8497,1859
8498,1858
8499,1859
8500,1863
8501,1867
8502,1869
8503,1868
8504,1863
8505,1863
8506,1863
8507,1861
8508,1862
8509,1863
8510,1858
8511,1855
8512,1856
8513,1849
8514,1847
8515,1854
8516,1856
8517,1859
8518,1863
8519,1866
8520,1863
8521,1865
8522,1861
8523,1865
8524,1869
8525,1861
8526,1861
8527,1858
8528,1857
8529,1861
8530,1857
8531,1861
8532,1856
8533,1859
8534,1859
8535,1865
8536,1867
8537,1863
8538,1863
8539,1865
8540,1866
8541,1862
8542,1860
8543,1856
8544,1854
8545,1853
8546,1854
8547,1853
8548,1856
8549,1861
8550,1865
8551,1861
8552,1865
8553,1867
8554,1868
8555,1865
8556,1862
8557,1863
8558,1860
8559,1863
8560,1859
8561,1860
8562,1857
8563,1858
8564,1858
8565,1856
8566,1861
8567,1859
8568,1863
8569,1866
8570,1872
8571,1869
8572,1865
8573,1859
8574,1860
8575,1857
8576,1855
8577,1855
8578,1856
8579,1856
8580,1857
8581,1861
8582,1856
8583,1857
8584,1856
8585,1861
8586,1870
8587,1872
8588,1863
8589,1868
8590,1863
8591,1863
8592,1862
8593,1859
8594,1857
8595,1858
8596,1861
8597,1859
8598,1856
8599,1857
8600,1861
8601,1866
8602,1869
8603,1859
8604,1857
8605,1859
8606,1858
8607,1858
8608,1863
8609,1860
8610,1856
8611,1859
8612,1856
8613,1858
8614,1857
8615,1857
8616,1859
8617,1862
8618,1863
8619,1866
8620,1869
8621,1866
8622,1862
8623,1858
8624,1858
8625,1863
8626,1862
8627,1858
8628,1856
8629,1859
8630,1861
8631,1858
8632,1859
8633,1857
8634,1857
8635,1859
8636,1860
8637,1861
8638,1857
8639,1866
8640,1866
8641,1863
8642,1862
8643,1865
8644,1858
8645,1859
8646,1859
8647,1859
8648,1861
8649,1858
8650,1859
8651,1861
8652,1863
8653,1865
8654,1865
8655,1866
8656,1863
8657,1867
8658,1860
8659,1861
8660,1861
8661,1859
8662,1859
8663,1854
8664,1853
8665,1849
8666,1852
8667,1857
8668,1858
8669,1861
8670,1859
8671,1859
8672,1870
8673,1875
8674,1872
8675,1869
8676,1867
8677,1861
8678,1859
8679,1859
8680,1859
8681,1856
8682,1859
8683,1859
8684,1865
8685,1865
8686,1867
8687,1867
8688,1867
8689,1863
8690,2544
8691,994
8692,1872
8693,2226
8694,2303
8695,2311
8696,2314
8697,2361
8698,2306
8699,2194
8700,2115
8701,1935
8702,1783
8703,1667
8704,1507
8705,1344
8706,1233
8707,1222
8708,1328
8709,1506
8710,1665
8711,1761
8712,1827
8713,1858
8714,1882
8715,1888
8716,1889
8717,1892
8718,1895
8719,1893
8720,1897
8721,1930
8722,1055
8723,1699
8724,2242
8725,2366
8726,2352
8727,2320
8728,2326
8729,2240
8730,2193
8731,2112
8732,1930
8733,1791
8734,1663
8735,1485
8736,1347
8737,1273
8738,1279
8739,1434
8740,1604
8741,1719
8742,1808
8743,1867
8744,1900
8745,1913
8746,1920
8747,1929
8748,1933
8749,1932
8750,1933
8751,1931
8752,1933
8753,1200
8754,1561
8755,2225
8756,2430
8757,2426
8758,2374
8759,2295
8760,2172
8761,2160
8762,1984
8763,1808
8764,1754
8765,1666
8766,1513
8767,1378
8768,1287
8769,1310
8770,1471
8771,1630
8772,1746
8773,1838
8774,1887
8775,1913
8776,1920
8777,1922
8778,1931
8779,1935
8780,1936
8781,1935
8782,1933
8783,1920
8784,1618
8785,1298
8786,2106
8787,2442
8788,2461
8789,2426
8790,2291
8791,2204
8792,2175
8793,1873
8794,1700
8795,1706
8796,1645
8797,1520
8798,1399
8799,1296
8800,1342
8801,1506
8802,1659
8803,1783
8804,1870
8805,1917
8806,1929
8807,1928
8808,1917
8809,1920
8810,1929
8811,1926
8812,1925
8813,1919
8814,1918
8815,2887
8816,992
8817,1931
8818,2449
8819,2554
8820,2519
8821,2347
8822,2250
8823,2160
8824,1762
8825,1600
8826,1622
8827,1600
8828,1535
8829,1426
8830,1314
8831,1354
8832,1509
8833,1667
8834,1783
8835,1863
8836,1920
8837,1942
8838,1939
8839,1941
8840,1938
8841,1937
8842,1933
8843,1919
8844,1917
8845,1918
8846,2035
8847,996
8848,1753
8849,2389
8850,2559
8851,2559
8852,2356
8853,2302
8854,2143
8855,1712
8856,1535
8857,1590
8858,1601
8859,1569
8860,1446
8861,1325
8862,1374
8863,1535
8864,1704
8865,1817
8866,1883
8867,1923
8868,1950
8869,1948
8870,1938
8871,1936
8872,1935
8873,1924
8874,1920
8875,1914
8876,1904
8877,1904
8878,1239
8879,1479
8880,2243
8881,2544
8882,2596
8883,2459
8884,2358
8885,2170
8886,1680
8887,1488
8888,1583
8889,1619
8890,1609
8891,1489
8892,1351
8893,1383
8894,1535
8895,1692
8896,1806
8897,1872
8898,1916
8899,1936
8900,1940
8901,1940
8902,1937
8903,1933
8904,1932
8905,1925
8906,1921
8907,1910
8908,1904
8909,1803
8910,1206
8911,2075
8912,2491
8913,2559
8914,2522
8915,2395
8916,2189
8917,1683
8918,1459
8919,1535
8920,1616
8921,1630
8922,1535
8923,1393
8924,1397
8925,1555
8926,1695
8927,1805
8928,1866
8929,1909
8930,1941
8931,1949
8932,1943
8933,1935
8934,1931
8935,1927
8936,1921
8937,1914
8938,1902
8939,1902
8940,2715
8941,999
8942,1924
8943,2459
8944,2581
8945,2603
8946,2451
8947,2206
8948,1657
8949,1419
8950,1523
8951,1604
8952,1641
8953,1555
8954,1414
8955,1424
8956,1573
8957,1712
8958,1814
8959,1885
8960,1925
8961,1954
8962,1955
8963,1935
8964,1909
8965,1904
8966,1908
8967,1915
8968,1911
8969,1909
8970,1904
8971,2000
8972,976
8973,1739
8974,2400
8975,2589
8976,2670
8977,2509
8978,2282
8979,1702
8980,1390
8981,1475
8982,1559
8983,1619
8984,1581
8985,1441
8986,1427
8987,1569
8988,1712
8989,1812
8990,1873
8991,1911
8992,1930
8993,1935
8994,1936
8995,1925
8996,1923
8997,1917
8998,1922
8999,1917
9000,1910
9001,1905
9002,1902
9003,1171
9004,1519
9005,2267
9006,2553
9007,2683
9008,2559
9009,2366
9010,1795
9011,1399
9012,1435
9013,1523
9014,1605
9015,1585
9016,1455
9017,1427
9018,1563
9019,1696
9020,1799
9021,1869
9022,1904
9023,1933
9024,1936
9025,1937
9026,1934
9027,1926
9028,1915
9029,1919
9030,1915
9031,1910
9032,1904
9033,1901
9034,1803
9035,1193
9036,2069
9037,2530
9038,2686
9039,2643
9040,2470
9041,1890
9042,1407
9043,1392
9044,1496
9045,1584
9046,1611
9047,1495
9048,1429
9049,1535
9050,1682
9051,1792
9052,1868
9053,1904
9054,1932
9055,1940
9056,1943
9057,1942
9058,1931
9059,1924
9060,1919
9061,1910
9062,1904
9063,1902
9064,1895
9065,2864
9066,944
9067,1871
9068,2492
9069,2681
9070,2719
9071,2558
9072,2000
9073,1440
9074,1350
9075,1462
9076,1558
9077,1616
9078,1520
9079,1439
9080,1535
9081,1665
9082,1767
9083,1846
9084,1895
9085,1923
9086,1939
9087,1949
9088,1943
9089,1935
9090,1928
9091,1917
9092,1915
9093,1907
9094,1903
9095,1895
9096,1963
9097,976
9098,1714
9099,2412
9100,2647
9101,2736
9102,2598
9103,2080
9104,1506
9105,1365
9106,1467
9107,1535
9108,1622
9109,1535
9110,1444
9111,1520
9112,1659
9113,1757
9114,1833
9115,1885
9116,1925
9117,1936
9118,1938
9119,1941
9120,1936
9121,1930
9122,1921
9123,1915
9124,1909
9125,1904
9126,1897
9127,1892
9128,1175
9129,1491
9130,2288
9131,2626
9132,2770
9133,2669
9134,2207
9135,1574
9136,1332
9137,1435
9138,1514
9139,1615
9140,1584
9141,1461
9142,1512
9143,1631
9144,1738
9145,1826
9146,1882
9147,1915
9148,1934
9149,1951
9150,1949
9151,1934
9152,1925
9153,1919
9154,1906
9155,1904
9156,1904
9157,1903
9158,1902
9159,1815
9160,1173
9161,2074
9162,2582
9163,2757
9164,2730
9165,2370
9166,1711
9167,1349
9168,1408
9169,1481
9170,1584
9171,1601
9172,1483
9173,1483
9174,1611
9175,1716
9176,1808
9177,1876
9178,1917
9179,1945
9180,1965
9181,1943
9182,1920
9183,1914
9184,1913
9185,1915
9186,1914
9187,1907
9188,1904
9189,1901
9190,2864
9191,942
9192,1871
9193,2524
9194,2739
9195,2782
9196,2528
9197,1845
9198,1365
9199,1364
9200,1456
9201,1535
9202,1597
9203,1488
9204,1466
9205,1595
9206,1702
9207,1787
9208,1855
9209,1906
9210,1933
9211,1943
9212,1943
9213,1943
9214,1937
9215,1922
9216,1915
9217,1915
9218,1908
9219,1889
9220,1875
9221,1958
9222,967
9223,1726
9224,2455
9225,2723
9226,2810
9227,2615
9228,1963
9229,1409
9230,1335
9231,1424
9232,1509
9233,1584
9234,1515
9235,1469
9236,1581
9237,1689
9238,1781
9239,1861
9240,1909
9241,1936
9242,1949
9243,1949
9244,1936
9245,1924
9246,1917
9247,1913
9248,1904
9249,1904
9250,1904
9251,1902
9252,1898
9253,1246
9254,1453
9255,2272
9256,2672
9257,2813
9258,2703
9259,2170
9260,1535
9261,1328
9262,1406
9263,1469
9264,1577
9265,1535
9266,1461
9267,1535
9268,1664
9269,1760
9270,1840
9271,1902
9272,1932
9273,1949
9274,1946
9275,1937
9276,1927
9277,1920
9278,1913
9279,1910
9280,1906
9281,1901
9282,1893
9283,1895
9284,1662
9285,1235
9286,2128
9287,2639
9288,2806
9289,2751
9290,2305
9291,1643
9292,1337
9293,1393
9294,1455
9295,1557
9296,1555
9297,1461
9298,1503
9299,1642
9300,1738
9301,1824
9302,1887
9303,1924
9304,1949
9305,1965
9306,1964
9307,1946
9308,1938
9309,1936
9310,1921
9311,1887
9312,1861
9313,1863
9314,1878
9315,1885
9316,1886
9317,1885
9318,1876
9319,1875
9320,1877
9321,1877
9322,1872
9323,1872
9324,1871
9325,1863
9326,1859
9327,1855
9328,1855
9329,1863
9330,1866
9331,1864
9332,1857
9333,1866
9334,1871
9335,1873
9336,1872
9337,1868
9338,1872
9339,1869
9340,1862
9341,1856
9342,1856
9343,1855
9344,1856
9345,1858
9346,1857
9347,1856
9348,1857
9349,1861
9350,1867
9351,1872
9352,1871
9353,1863
9354,1859
9355,1857
9356,1859
9357,1862
9358,1861
9359,1859
9360,1858
9361,1861
9362,1864
9363,1865
9364,1857
9365,1857
9366,1861
9367,1858
9368,1859
9369,1858
9370,1858
9371,1857
9372,1859
9373,1863
9374,1862
9375,1859
9376,1861
9377,1861
9378,1858
9379,1861
9380,1859
9381,1861
9382,1861
9383,1856
9384,1858
9385,1863
9386,1862
9387,1859
9388,1851
9389,1861
9390,1861
9391,1861
9392,1859
9393,1859
9394,1858
9395,1859
9396,1863
9397,1863
9398,1863
9399,1861
9400,1863
9401,1864
9402,1863
9403,1869
9404,1869
9405,1863
9406,1857
9407,1858
9408,1861
9409,1857
9410,1856
9411,1858
9412,1859
9413,1854
9414,1854
9415,1850
9416,1856
9417,1859
9418,1861
9419,1869
9420,1868
9421,1863
9422,1869
9423,1871
9424,1869
9425,1863
9426,1862
9427,1861
9428,1862
9429,1862
9430,1859
9431,1857
9432,1859
9433,1865
9434,1865
9435,1862
9436,1869
9437,1872
9438,1872
9439,1867
9440,1863
9441,1863
9442,1865
9443,1857
9444,1856
9445,1853
9446,1856
9447,1856
9448,1856
9449,1863
9450,1863
9451,1869
9452,1870
9453,1867
9454,1867
9455,1863
9456,1865
9457,1867
9458,1869
9459,1862
9460,1859
9461,1858
9462,1861
9463,1861
9464,1861
9465,1860
9466,1861
9467,1870
9468,1867
9469,1865
9470,1866
9471,1866
9472,1863
9473,1865
9474,1859
9475,1856
9476,1852
9477,1859
9478,1863
9479,1861
9480,1860
9481,1857
9482,1857
9483,1859
9484,1862
9485,1872
9486,1872
9487,1870
9488,1872
9489,1865
9490,1863
9491,1862
9492,1859
9493,1858
9494,1858
9495,1857
9496,1862
9497,1859
9498,1860
9499,1858
9500,1862
9501,1868
9502,1869
9503,1858
9504,1859
9505,1857
9506,1856
9507,1855
9508,1860
9509,1861
9510,1859
9511,1859
9512,1858
9513,1857
9514,1857
9515,1859
9516,1862
9517,1863
9518,1867
9519,1867
9520,1870
9521,1866
9522,1866
9523,1867
9524,1865
9525,1859
9526,1861
9527,1858
9528,1859
9529,1855
9530,1856
9531,1857
9532,1858
9533,1857
9534,1856
9535,1856
9536,1856
9537,1858
9538,1861
9539,1867
9540,1868
9541,1861
9542,1861
9543,1861
9544,1862
9545,1862
9546,1861
9547,1861
9548,1859
9549,1862
9550,1862
9551,1869
9552,1867
9553,1865
9554,1867
9555,1865
9556,1860
9557,1856
9558,1858
9559,1858
9560,1865
9561,1863
9562,1858
9563,1850
9564,1855
9565,1856
9566,1853
9567,1861
9568,1866
9569,1866
9570,1871
9571,1867
9572,1868
9573,1869
9574,1857
9575,1855
9576,1858
9577,1859
9578,1857
9579,1856
9580,1853
9581,1855
9582,1859
9583,1859
9584,1858
9585,1865
9586,1872
9587,1866
9588,1866
9589,1867
9590,1857
9591,1853
9592,1855
9593,1853
9594,1850
9595,1850
9596,1850
9597,1847
9598,1856
9599,1865
9600,1869
9601,1871
9602,1872
9603,1867
9604,1866
9605,1863
9606,1862
9607,1861
9608,1862
9609,1858
9610,1855
9611,1855
9612,1861
9613,1863
9614,1861
9615,1861
9616,1861
9617,1856
9618,1847
9619,1855
9620,1858
9621,1856
9622,1858
9623,1858
9624,1858
9625,1855
9626,1856
9627,1851
9628,1846
9629,1854
9630,1857
9631,1857
9632,1861
9633,1867
9634,1865
9635,1867
9636,1866
9637,1872
9638,1872
9639,1869
9640,1869
9641,1867
9642,1866
9643,1856
9644,1851
9645,1855
9646,1856
9647,1854
9648,1854
9649,1857
9650,1863
9651,1867
9652,1866
9653,1859
9654,1859
9655,1858
9656,1856
9657,1861
9658,1859
9659,1858
9660,1859
9661,1857
9662,1856
9663,1858
9664,1858
9665,1862
9666,1863
9667,1862
9668,1858
9669,1856
9670,1858
9671,1856
9672,1871
9673,1874
9674,1867
9675,1868
9676,1863
9677,1855
9678,1856
9679,1859
9680,1862
9681,1862
9682,1862
9683,1856
9684,1857
9685,1859
9686,1861
9687,1862
9688,1865
9689,1867
9690,1858
9691,1863
9692,1857
9693,1857
9694,1857
9695,1856
9696,1854
9697,1856
9698,1856
9699,1863
9700,1866
9701,1869
9702,1865
9703,1866
9704,1869
9705,1869
9706,1865
9707,1859
9708,1857
9709,1856
9710,1855
9711,1856
9712,1859
9713,1855
9714,1851
9715,1855
9716,1858
9717,1867
9718,1869
9719,1867
9720,1867
9721,1865
9722,1862
9723,1859
9724,1862
9725,1857
9726,1857
9727,1857
9728,1856
9729,1857
9730,1857
9731,1861
9732,1862
9733,1863
9734,1865
9735,1865
9736,1867
9737,1865
9738,1867
9739,1868
9740,1865
9741,1857
9742,1856
9743,1845
9744,1851
9745,1853
9746,1855
9747,1854
9748,1855
9749,1858
9750,1869
9751,1866
9752,1865
9753,1865
9754,1865
9755,1871
9756,1867
9757,1861
9758,1856
9759,1858
9760,1858
9761,1857
9762,1856
9763,1856
9764,1856
9765,1859
9766,1862
9767,1859
9768,1869
9769,1872
9770,1871
9771,1867
9772,1859
9773,1856
9774,1856
9775,1859
9776,1855
9777,1855
9778,1847
9779,1856
9780,1859
9781,1858
9782,1862
9783,1869
9784,1868
9785,1866
9786,1867
9787,1870
9788,1865
9789,1866
9790,1862
9791,1860
9792,1858
9793,1856
9794,1857
9795,1859
9796,1860
9797,1856
9798,1857
9799,1860
9800,1863
9801,1865
9802,1867
9803,1858
9804,1858
9805,1856
9806,1858
9807,1856
9808,1860
9809,1859
9810,1858
9811,1856
9812,1856
9813,1856
9814,1855
9815,1857
9816,1862
9817,1867
9818,1869
9819,1865
9820,1871
9821,1865
9822,1870
9823,1862
9824,1862
9825,1863
9826,1855
9827,1857
9828,1857
9829,1858
9830,1860
9831,1856
9832,1858
9833,1853
9834,1854
9835,1863
9836,1866
9837,1861
9838,1854
9839,1858
9840,1865
9841,1867
9842,1856
9843,1855
9844,1860
9845,1860
9846,1856
9847,1856
9848,1860
9849,1870
9850,1867
9851,1869
9852,1867
9853,1863
9854,1866
9855,1863
9856,1863
9857,1859
9858,1860
9859,1862
9860,1857
9861,1856
9862,1856
9863,1851
9864,1853
9865,1853
9866,1857
9867,1867
9868,1871
9869,1872
9870,1869
9871,1863
9872,1859
9873,1867
9874,1863
9875,1853
9876,1853
9877,1859
9878,1858
9879,1857
9880,1859
9881,1857
9882,1859
9883,1862
9884,1862
9885,1869
9886,1869
9887,1869
9888,1863
9889,1861
9890,1856
9891,1855
9892,1856
9893,1854
9894,1851
9895,1850
9896,1854
9897,1862
9898,1859
9899,1857
9900,1863
9901,1870
9902,1863
9903,1859
9904,1863
9905,1867
9906,1863
9907,1863
9908,1864
9909,1858
9910,1858
9911,1859
9912,1858
9913,1857
9914,1859
9915,1860
9916,1860
9917,1861
9918,1855
9919,1856
9920,1858
9921,1856
9922,1856
9923,1855
9924,1850
9925,1855
9926,1859
9927,1853
9928,1854
9929,1855
9930,1859
9931,1865
9932,1865
9933,1862
9934,1863
9935,1863
9936,1869
9937,1870
9938,1869
9939,1867
9940,1861
9941,1859
9942,1858
9943,1855
9944,1856
9945,1858
9946,1859
9947,1860
9948,1856
9949,1849
9950,1854
9951,1871
9952,1871
9953,1866
9954,1866
9955,1866
9956,1865
9957,1868
9958,1859
9959,1858
9960,1856
9961,1855
9962,1856
9963,1863
9964,1859
9965,1859
9966,1863
9967,1862
9968,1861
9969,1863
9970,1865
9971,1866
9972,1868
9973,1866
9974,1868
9975,1862
9976,1860
9977,1858
9978,1855
9979,1856
9980,1859
9981,1861
9982,1863
9983,1857
9984,1867
9985,1861
9986,1855
9987,1862
9988,1867
9989,1867
9990,1863
9991,1861
9992,1858
9993,1857
9994,1857
9995,1856
9996,1856
9997,1858
9998,1861
9999,1867
10000,1863
10001,1867
10002,1866
10003,1863
10004,1863
10005,1863
10006,1866
10007,1862
10008,1858
10009,1859
10010,1859
10011,1858
10012,1860
10013,1853
10014,1851
10015,1847
10016,1843
10017,1846
10018,1856
10019,1865
10020,1870
10021,1873
10022,1871
10023,1871
10024,1872
10025,1867
10026,1856
10027,1856
10028,1855
10029,1854
10030,1857
10031,1861
10032,1863
10033,1866
10034,1863
10035,1868
10036,1866
10037,1871
10038,1866
10039,1863
10040,1863
10041,1861
10042,1860
10043,1856
10044,1853
10045,1847
10046,1850
10047,1847
10048,1853
10049,1865
10050,1864
10051,1859
10052,1862
10053,1863
10054,1870
10055,1872
10056,1869
10057,1859
10058,1857
10059,1856
10060,1862
10061,1860
10062,1859
10063,1856
10064,1855
10065,1854
10066,1857
10067,1869
10068,1868
10069,1866
10070,1861
10071,1859
10072,1869
10073,1864
10074,1856
10075,1856
10076,1854
10077,1847
10078,1846
10079,1856
10080,1857
10081,1862
10082,1863
10083,1859
10084,1867
10085,1871
10086,1872
10087,1865
10088,1862
10089,1867
10090,1861
10091,1858
10092,1856
10093,1856
10094,1858
10095,1857
10096,1856
10097,1857
10098,1858
10099,1861
10100,1862
10101,1862
10102,1862
10103,1856
10104,1857
10105,1856
10106,1859
10107,1858
10108,1863
10109,1863
10110,1861
10111,1859
10112,1856
10113,1856
10114,1855
10115,1859
10116,1861
10117,1857
10118,1859
10119,1862
10120,1858
10121,1869
10122,1874
10123,1868
10124,1863
10125,1862
10126,1863
10127,1867
10128,1868
10129,1856
10130,1847
10131,1843
10132,1851
10133,1856
10134,1866
10135,1865
10136,1862
10137,1859
10138,1855
10139,1862
10140,1867
10141,1866
10142,1863
10143,1862
10144,1859
10145,1857
10146,1857
10147,1856
10148,1856
10149,1859
10150,1866
10151,1869
10152,1863
10153,1866
10154,1863
10155,1860
10156,1858
10157,1860
10158,1861
10159,1861
10160,1858
10161,1856
10162,1856
10163,1853
10164,1851
10165,1853
10166,1855
10167,1867
10168,1872
10169,1867
10170,1870
10171,1870
10172,1872
10173,1865
10174,1857
10175,1853
10176,1846
10177,1842
10178,1853
10179,1862
10180,1873
10181,1875
10182,1872
10183,1867
10184,1863
10185,1863
10186,1865
10187,1861
10188,1857
10189,1861
10190,1854
10191,1856
10192,1858
10193,1855
10194,1854
10195,1853
10196,1855
10197,1855
10198,1861
10199,1861
10200,1865
10201,1869
10202,1865
10203,1862
10204,1861
10205,1862
10206,1860
10207,1863
10208,1863
10209,1861
10210,1859
10211,1856
10212,1856
10213,1856
10214,1857
10215,1856
10216,1856
10217,1858
10218,1854
10219,1857
10220,1864
10221,1870
10222,1869
10223,1861
10224,1857
10225,1856
10226,1854
10227,1853
10228,1851
10229,1859
10230,1859
10231,1856
10232,1859
10233,1862
10234,1863
10235,1867
10236,1869
10237,1866
10238,1865
10239,1865
10240,1863
10241,1860
10242,1863
10243,1859
10244,1856
10245,1854
10246,1859
10247,1867
10248,1865
10249,1862
10250,1865
10251,1867
10252,1865
10253,1858
10254,1856
10255,1857
10256,1856
10257,1861
10258,1858
10259,1856
10260,1854
10261,1856
10262,1867
10263,1867
10264,1857
10265,1861
10266,1860
10267,1868
10268,1871
10269,1869
10270,1867
10271,1870
10272,1867
10273,1861
10274,1859
10275,1861
10276,1857
10277,1857
10278,1856
10279,1856
10280,1859
10281,1861
10282,1861
10283,1859
10284,1857
10285,1856
10286,1861
10287,1865
10288,1866
10289,1859
10290,1859
10291,1857
10292,1860
10293,1860
10294,1856
10295,1856
10296,1857
10297,1858
10298,1857
10299,1865
10300,1866
10301,1866
10302,1863
10303,1863
10304,1863
10305,1863
10306,1858
10307,1857
10308,1863
10309,1866
10310,1862
10311,1857
10312,1858
10313,1850
10314,1854
10315,2089
10316,1108
10317,1930
10318,2303
10319,2394
10320,2398
10321,2391
10322,2406
10323,2303
10324,2154
10325,2064
10326,1867
10327,1686
10328,1535
10329,1394
10330,1264
10331,1187
10332,1215
10333,1358
10334,1535
10335,1685
10336,1774
10337,1830
10338,1856
10339,1882
10340,1902
10341,1915
10342,1922
10343,1919
10344,1920
10345,1923
10346,2480
10347,1005
10348,1847
10349,2345
10350,2445
10351,2413
10352,2382
10353,2371
10354,2211
10355,2154
10356,2064
10357,1858
10358,1712
10359,1584
10360,1418
10361,1297
10362,1250
10363,1290
10364,1459
10365,1635
10366,1741
10367,1825
10368,1882
10369,1916
10370,1927
10371,1930
10372,1932
10373,1923
10374,1920
10375,1917
10376,1916
10377,1919
10378,1149
10379,1599
10380,2267
10381,2479
10382,2461
10383,2416
10384,2331
10385,2171
10386,2154
10387,2013
10388,1802
10389,1718
10390,1604
10391,1439
10392,1328
10393,1253
10394,1299
10395,1476
10396,1619
10397,1741
10398,1827
10399,1878
10400,1909
10401,1933
10402,1940
10403,1939
10404,1943
10405,1937
10406,1934
10407,1927
10408,1919
10409,1412
10410,1395
10411,2191
10412,2518
10413,2538
10414,2471
10415,2317
10416,2178
10417,2132
10418,1861
10419,1685
10420,1655
10421,1562
10422,1439
10423,1337
10424,1269
10425,1344
10426,1513
10427,1658
10428,1767
10429,1851
10430,1903
10431,1925
10432,1936
10433,1936
10434,1942
10435,1939
10436,1940
10437,1936
10438,1931
10439,1929
10440,2407
10441,1085
10442,2000
10443,2496
10444,2559
10445,2517
10446,2333
10447,2209
10448,2142
10449,1808
10450,1613
10451,1584
10452,1535
10453,1478
10454,1391
10455,1327
10456,1394
10457,1535
10458,1675
10459,1789
10460,1862
10461,1909
10462,1925
10463,1935
10464,1936
10465,1938
10466,1936
10467,1941
10468,1936
10469,1927
10470,1926
10471,2512
10472,959
10473,1849
10474,2453
10475,2594
10476,2559
10477,2362
10478,2260
10479,2115
10480,1727
10481,1574
10482,1584
10483,1570
10484,1520
10485,1418
10486,1328
10487,1386
10488,1535
10489,1680
10490,1791
10491,1869
10492,1911
10493,1934
10494,1937
10495,1936
10496,1936
10497,1932
10498,1920
10499,1934
10500,1925
10501,1922
10502,1919
10503,1072
10504,1646
10505,2351
10506,2587
10507,2606
10508,2420
10509,2314
10510,2118
10511,1680
10512,1527
10513,1583
10514,1581
10515,1554
10516,1456
10517,1347
10518,1387
10519,1535
10520,1682
10521,1792
10522,1870
10523,1914
10524,1937
10525,1942
10526,1938
10527,1935
10528,1927
10529,1931
10530,1929
10531,1922
10532,1917
10533,1911
10534,1473
10535,1344
10536,2173
10537,2559
10538,2634
10539,2553
10540,2397
10541,2167
10542,1675
10543,1459
10544,1525
10545,1571
10546,1584
10547,1493
10548,1367
10549,1390
10550,1535
10551,1680
10552,1797
10553,1872
10554,1923
10555,1942
10556,1947
10557,1941
10558,1936
10559,1936
10560,1931
10561,1923
10562,1917
10563,1911
10564,1909
10565,2361
10566,1069
10567,1977
10568,2497
10569,2618
10570,2623
10571,2443
10572,2229
10573,1712
10574,1434
10575,1497
10576,1559
10577,1600
10578,1527
10579,1392
10580,1396
10581,1535
10582,1687
10583,1792
10584,1870
10585,1920
10586,1935
10587,1950
10588,1953
10589,1946
10590,1939
10591,1933
10592,1923
10593,1914
10594,1904
10595,1902
10596,2487
10597,939
10598,1818
10599,2454
10600,2627
10601,2689
10602,2509
10603,2256
10604,1699
10605,1394
10606,1473
10607,1535
10608,1600
10609,1535
10610,1415
10611,1409
10612,1561
10613,1685
10614,1791
10615,1860
10616,1906
10617,1932
10618,1950
10619,1951
10620,1943
10621,1937
10622,1931
10623,1929
10624,1921
10625,1911
10626,1903
10627,1897
10628,1050
10629,1616
10630,2327
10631,2559
10632,2701
10633,2554
10634,2331
10635,1757
10636,1391
10637,1453
10638,1524
10639,1604
10640,1591
10641,1469
10642,1430
10643,1535
10644,1673
10645,1777
10646,1857
10647,1901
10648,1930
10649,1958
10650,1958
10651,1945
10652,1935
10653,1927
10654,1921
10655,1914
10656,1907
10657,1904
10658,1901
10659,1359
10660,1382
10661,2191
10662,2559
10663,2710
10664,2624
10665,2414
10666,1802
10667,1371
10668,1411
10669,1505
10670,1589
10671,1614
10672,1503
10673,1445
10674,1559
10675,1671
10676,1767
10677,1851
10678,1902
10679,1937
10680,1956
10681,1947
10682,1934
10683,1920
10684,1920
10685,1922
10686,1922
10687,1911
10688,1907
10689,1903
10690,2327
10691,1049
10692,1965
10693,2519
10694,2698
10695,2715
10696,2518
10697,1914
10698,1393
10699,1363
10700,1475
10701,1555
10702,1619
10703,1530
10704,1451
10705,1535
10706,1666
10707,1761
10708,1840
10709,1890
10710,1921
10711,1936
10712,1937
10713,1935
10714,1925
10715,1923
10716,1921
10717,1919
10718,1909
10719,1906
10720,1904
10721,2498
10722,928
10723,1814
10724,2473
10725,2688
10726,2758
10727,2603
10728,2000
10729,1424
10730,1322
10731,1441
10732,1534
10733,1616
10734,1557
10735,1462
10736,1535
10737,1663
10738,1760
10739,1844
10740,1901
10741,1929
10742,1945
10743,1940
10744,1933
10745,1927
10746,1921
10747,1917
10748,1917
10749,1914
10750,1904
10751,1897
10752,1899
10753,1088
10754,1579
10755,2325
10756,2630
10757,2766
10758,2679
10759,2180
10760,1556
10761,1330
10762,1424
10763,1490
10764,1594
10765,1575
10766,1477
10767,1531
10768,1648
10769,1741
10770,1821
10771,1887
10772,1923
10773,1939
10774,1947
10775,1936
10776,1936
10777,1924
10778,1917
10779,1911
10780,1906
10781,1904
10782,1899
10783,1897
10784,1463
10785,1322
10786,2163
10787,2608
10788,2777
10789,2747
10790,2331
10791,1648
10792,1312
10793,1385
10794,1457
10795,1568
10796,1590
10797,1499
10798,1516
10799,1627
10800,1717
10801,1802
10802,1878
10803,1935
10804,1936
10805,1940
10806,1936
10807,1934
10808,1922
10809,1916
10810,1910
10811,1905
10812,1903
10813,1902
10814,1894
10815,2338
10816,1034
10817,1984
10818,2547
10819,2728
10820,2769
10821,2486
10822,1792
10823,1349
10824,1370
10825,1447
10826,1535
10827,1593
10828,1511
10829,1499
10830,1615
10831,1702
10832,1781
10833,1855
10834,1911
10835,1941
10836,1953
10837,1949
10838,1936
10839,1929
10840,1917
10841,1909
10842,1909
10843,1905
10844,1901
10845,1898
10846,2486
10847,919
10848,1808
10849,2483
10850,2701
10851,2797
10852,2586
10853,1891
10854,1395
10855,1361
10856,1439
10857,1514
10858,1591
10859,1535
10860,1493
10861,1600
10862,1682
10863,1759
10864,1847
10865,1909
10866,1942
10867,1959
10868,1939
10869,1933
10870,1926
10871,1922
10872,1921
10873,1911
10874,1904
10875,1903
10876,1899
10877,1892
10878,1082
10879,1574
10880,2333
10881,2651
10882,2786
10883,2702
10884,2099
10885,1488
10886,1339
10887,1424
10888,1482
10889,1584
10890,1574
10891,1505
10892,1575
10893,1671
10894,1746
10895,1827
10896,1892
10897,1924
10898,1938
10899,1946
10900,1936
10901,1931
10902,1923
10903,1919
10904,1917
10905,1915
10906,1906
10907,1901
10908,1897
10909,1465
10910,1302
10911,2147
10912,2587
10913,2732
10914,2736
10915,2284
10916,1617
10917,1351
10918,1414
10919,1454
10920,1570
10921,1600
10922,1521
10923,1535
10924,1655
10925,1724
10926,1807
10927,1868
10928,1907
10929,1941
10930,1951
10931,1945
10932,1937
10933,1929
10934,1920
10935,1916
10936,1909
10937,1904
10938,1901
10939,1893
10940,1890
10941,1887
10942,1883
10943,1874
10944,1872
10945,1869
10946,1867
10947,1866
10948,1861
10949,1870
10950,1869
10951,1870
10952,1871
10953,1871
10954,1866
10955,1866
10956,1868
10957,1869
10958,1868
10959,1862
10960,1860
10961,1857
10962,1859
10963,1866
10964,1861
10965,1863
10966,1861
10967,1863
10968,1862
10969,1861
10970,1866
10971,1871
10972,1865
10973,1853
10974,1853
10975,1851
10976,1847
10977,1852
10978,1856
10979,1862
10980,1869
10981,1865
10982,1859
10983,1862
10984,1870
10985,1866
10986,1866
10987,1867
10988,1868
10989,1872
10990,1866
10991,1861
10992,1856
10993,1853
10994,1856
10995,1858
10996,1855
10997,1853
10998,1856
10999,1861
11000,1863
11001,1863
11002,1865
11003,1857
11004,1858
11005,1863
11006,1858
11007,1855
11008,1849
11009,1854
11010,1856
11011,1857
11012,1854
11013,1855
11014,1857
11015,1859
11016,1862
11017,1861
11018,1867
11019,1870
11020,1865
11021,1866
11022,1869
11023,1863
11024,1856
11025,1858
11026,1859
11027,1860
11028,1857
11029,1858
11030,1856
11031,1859
11032,1863
11033,1859
11034,1859
11035,1859
11036,1858
11037,1859
11038,1856
11039,1869
11040,1863
11041,1859
11042,1858
11043,1857
11044,1859
11045,1863
11046,1866
11047,1865
11048,1863
11049,1860
11050,1865
11051,1865
11052,1867
11053,1869
11054,1869
11055,1867
11056,1863
11057,1863
11058,1859
11059,1859
11060,1857
11061,1856
11062,1863
11063,1859
11064,1858
11065,1856
11066,1857
11067,1867
11068,1866
11069,1868
11070,1866
11071,1864
11072,1863
11073,1865
11074,1863
11075,1861
11076,1865
11077,1865
11078,1863
11079,1862
11080,1862
11081,1862
11082,1859
11083,1862
11084,1869
11085,1871
11086,1870
11087,1867
11088,1863
11089,1869
11090,1858
11091,1857
11092,1856
11093,1856
11094,1855
11095,1855
11096,1858
11097,1856
11098,1859
11099,1859
11100,1862
11101,1865
11102,1866
11103,1867
11104,1865
11105,1868
11106,1867
11107,1867
11108,1861
11109,1861
11110,1860
11111,1862
11112,1860
11113,1857
11114,1859
11115,1857
11116,1859
11117,1862
11118,1859
11119,1862
11120,1859
11121,1859
11122,1859
11123,1856
11124,1856
11125,1856
11126,1853
11127,1855
11128,1855
11129,1858
11130,1858
11131,1866
11132,1865
11133,1865
11134,1867
11135,1863
11136,1870
11137,1865
11138,1863
11139,1862
11140,1860
11141,1860
11142,1859
11143,1861
11144,1861
11145,1859
11146,1858
11147,1860
11148,1859
11149,1862
11150,1862
11151,1867
11152,1870
11153,1859
11154,1858
11155,1857
11156,1857
11157,1862
11158,1864
11159,1861
11160,1856
11161,1858
11162,1860
11163,1858
11164,1857
11165,1859
11166,1861
11167,1863
11168,1867
11169,1870
11170,1865
11171,1863
11172,1862
11173,1858
11174,1856
11175,1863
11176,1863
11177,1860
11178,1861
11179,1862
11180,1859
11181,1861
11182,1865
11183,1858
11184,1858
11185,1855
11186,1862
11187,1868
11188,1866
11189,1863
11190,1861
11191,1859
11192,1855
11193,1858
11194,1859
11195,1859
11196,1859
11197,1859
11198,1859
11199,1859
11200,1858
11201,1862
11202,1861
11203,1865
11204,1863
11205,1858
11206,1862
11207,1869
11208,1865
11209,1858
11210,1857
11211,1856
11212,1860
11213,1851
11214,1856
11215,1856
11216,1854
11217,1855
11218,1858
11219,1865
11220,1862
11221,1859
11222,1862
11223,1859
11224,1858
11225,1860
11226,1859
11227,1856
11228,1857
11229,1857
11230,1858
11231,1862
11232,1864
11233,1865
11234,1867
11235,1867
11236,1865
11237,1865
11238,1863
11239,1861
11240,1860
11241,1861
11242,1861
11243,1855
11244,1851
11245,1855
11246,1853
11247,1853
11248,1853
11249,1861
11250,1861
11251,1861
11252,1861
11253,1867
11254,1868
11255,1869
11256,1865
11257,1865
11258,1862
11259,1858
11260,1857
11261,1858
11262,1858
11263,1859
11264,1858
11265,1859
11266,1859
11267,1862
11268,1863
11269,1864
11270,1863
11271,1863
11272,1867
11273,1857
11274,1855
11275,1855
11276,1851
11277,1861
11278,1857
11279,1857
11280,1859
11281,1862
11282,1862
11283,1863
11284,1858
11285,1858
11286,1863
11287,1870
11288,1870
11289,1871
11290,1863
11291,1859
11292,1855
11293,1857
11294,1857
11295,1857
11296,1856
11297,1856
11298,1855
11299,1859
11300,1866
11301,1871
11302,1869
11303,1857
11304,1856
11305,1861
11306,1862
11307,1856
11308,1857
11309,1856
11310,1854
11311,1857
11312,1858
11313,1858
11314,1859
11315,1857
11316,1861
11317,1862
11318,1863
11319,1863
11320,1867
11321,1865
11322,1861
11323,1863
11324,1863
11325,1856
11326,1859
11327,1857
11328,1857
11329,1857
11330,1859
11331,1862
11332,1861
11333,1856
11334,1858
11335,1857
11336,1859
11337,1857
11338,1854
11339,1863
11340,1865
11341,1860
11342,1858
11343,1858
11344,1856
11345,1857
11346,1859
11347,1857
11348,1859
11349,1865
11350,1863
11351,1862
11352,1866
11353,1867
11354,1866
11355,1869
11356,1865
11357,1859
11358,1858
11359,1858
11360,1862
11361,1859
11362,1859
11363,1853
11364,1855
11365,1857
11366,1856
11367,1863
11368,1863
11369,1863
11370,1866
11371,1863
11372,1861
11373,1861
11374,1859
11375,1861
11376,1857
11377,1857
11378,1858
11379,1857
11380,1856
11381,1858
11382,1861
11383,1861
11384,1863
11385,1862
11386,1863
11387,1870
11388,1871
11389,1869
11390,1858
11391,1859
11392,1853
11393,1853
11394,1851
11395,1853
11396,1851
11397,1853
11398,1861
11399,1859
11400,1859
11401,1869
11402,1866
11403,1863
11404,1866
11405,1865
11406,1863
11407,1861
11408,1858
11409,1859
11410,1857
11411,1859
11412,1858
11413,1858
11414,1859
11415,1858
11416,1860
11417,1862
11418,1856
11419,1858
11420,1857
11421,1859
11422,1858
11423,1856
11424,1856
11425,1853
11426,1851
11427,1850
11428,1850
11429,1857
11430,1859
11431,1862
11432,1865
11433,1862
11434,1863
11435,1863
11436,1866
11437,1865
11438,1867
11439,1862
11440,1865
11441,1863
11442,1860
11443,1859
11444,1862
11445,1856
11446,1857
11447,1857
11448,1859
11449,1863
11450,1863
11451,1863
11452,1865
11453,1856
11454,1858
11455,1858
11456,1857
11457,1860
11458,1858
11459,1860
11460,1858
11461,1860
11462,1861
11463,1861
11464,1859
11465,1860
11466,1863
11467,1865
11468,1863
11469,1866
11470,1863
11471,1863
11472,1865
11473,1865
11474,1859
11475,1858
11476,1859
11477,1862
11478,1858
11479,1859
11480,1859
11481,1860
11482,1859
11483,1856
11484,1857
11485,1857
11486,1857
11487,1866
11488,1863
11489,1862
11490,1862
11491,1859
11492,1859
11493,1860
11494,1858
11495,1858
11496,1864
11497,1866
11498,1862
11499,1863
11500,1865
11501,1858
11502,1862
11503,1860
11504,1859
11505,1858
11506,1857
11507,1865
11508,1866
11509,1863
11510,1861
11511,1859
11512,1856
11513,1850
11514,1854
11515,1855
11516,1856
11517,1856
11518,1863
11519,1865
11520,1863
11521,1861
11522,1863
11523,1862
11524,1859
11525,1856
11526,1858
11527,1857
11528,1857
11529,1856
11530,1861
11531,1862
11532,1859
11533,1861
11534,1863
11535,1867
11536,1865
11537,1866
11538,1866
11539,1865
11540,1861
11541,1862
11542,1857
11543,1854
11544,1854
11545,1851
11546,1856
11547,1856
11548,1855
11549,1863
11550,1866
11551,1867
11552,1865
11553,1864
11554,1862
11555,1861
11556,1862
11557,1861
11558,1863
11559,1859
11560,1858
11561,1857
11562,1858
11563,1860
11564,1860
11565,1862
11566,1862
11567,1863
11568,1863
11569,1865
11570,1866
11571,1863
11572,1863
11573,1855
11574,1856
11575,1855
11576,1856
11577,1857
11578,1856
11579,1859
11580,1861
11581,1862
11582,1866
11583,1869
11584,1869
11585,1865
11586,1866
11587,1863
11588,1862
11589,1860
11590,1860
11591,1858
11592,1860
11593,1860
11594,1858
11595,1859
11596,1857
11597,1859
11598,1860
11599,1861
11600,1863
11601,1867
11602,1862
11603,1856
11604,1858
11605,1858
11606,1856
11607,1855
11608,1859
11609,1859
11610,1856
11611,1858
11612,1859
11613,1857
11614,1859
11615,1859
11616,1863
11617,1863
11618,1858
11619,1862
11620,1863
11621,1863
11622,1862
11623,1861
11624,1861
11625,1859
11626,1858
11627,1858
11628,1856
11629,1859
11630,1861
11631,1863
11632,1867
11633,1858
11634,1861
11635,1860
11636,1857
11637,1853
11638,1855
11639,1861
11640,1859
11641,1859
11642,1859
11643,1860
11644,1858
11645,1860
11646,1859
11647,1858
11648,1859
11649,1862
11650,1864
11651,1866
11652,1865
11653,1865
11654,1866
11655,1863
11656,1863
11657,1861
11658,1856
11659,1861
11660,1861
11661,1863
11662,1859
11663,1854
11664,1851
11665,1857
11666,1858
11667,1867
11668,1865
11669,1869
11670,1863
11671,1865
11672,1867
11673,1862
11674,1857
11675,1859
11676,1859
11677,1861
11678,1861
11679,1859
11680,1859
11681,1859
11682,1861
11683,1860
11684,1863
11685,1868
11686,1866
11687,1867
11688,1867
11689,1866
11690,1859
11691,1856
11692,1853
11693,1854
11694,1853
11695,1853
11696,1855
11697,1851
11698,1854
11699,1860
11700,1862
11701,1862
11702,1863
11703,1862
11704,1859
11705,1871
11706,1869
11707,1863
11708,1861
11709,1859
11710,1859
11711,1857
11712,1856
11713,1859
11714,1858
11715,1860
11716,1859
11717,1862
11718,1854
11719,1857
11720,1862
11721,1857
11722,1857
11723,1856
11724,1856
11725,1853
11726,1851
11727,1852
11728,1856
11729,1857
11730,1857
11731,1857
11732,1859
11733,1863
11734,1865
11735,1869
11736,1867
11737,1863
11738,1863
11739,1865
11740,1859
11741,1860
11742,1856
11743,1853
11744,1857
11745,1865
11746,1862
11747,1859
11748,1863
11749,1865
11750,1862
11751,1863
11752,1866
11753,1856
11754,1856
11755,1857
11756,1857
11757,1862
11758,1859
11759,1859
11760,1858
11761,1859
11762,1857
11763,1859
11764,1857
11765,1857
11766,1858
11767,1859
11768,1867
11769,1871
11770,1871
11771,1869
11772,1870
11773,1865
11774,1861
11775,1858
11776,1860
11777,1856
11778,1857
11779,1858
11780,1860
11781,1861
11782,1861
11783,1856
11784,1858
11785,1858
11786,1858
11787,1863
11788,1863
11789,1863
11790,1861
11791,1861
11792,1858
11793,1859
11794,1861
11795,1861
11796,1857
11797,1858
11798,1859
11799,1862
11800,1862
11801,1864
11802,1861
11803,1866
11804,1864
11805,1867
11806,1862
11807,1859
11808,1857
11809,1858
11810,1858
11811,1861
11812,1857
11813,1850
11814,1850
11815,1856
11816,1856
11817,1856
11818,1862
11819,1865
11820,1863
11821,1866
11822,1863
11823,1861
11824,1862
11825,1861
11826,1858
11827,1856
11828,1857
11829,1857
11830,1858
11831,1861
11832,1864
11833,1866
11834,1863
11835,1865
11836,1869
11837,1863
11838,1863
11839,1859
11840,1857
11841,1861
11842,1863
11843,1855
11844,1850
11845,1851
11846,1850
11847,1849
11848,1847
11849,1862
11850,1872
11851,1872
11852,1865
11853,1866
11854,1863
11855,1863
11856,1862
11857,1860
11858,1860
11859,1858
11860,1857
11861,1857
11862,1857
11863,1857
11864,1857
11865,1862
11866,1858
11867,1863
11868,1867
11869,1866
11870,1861
11871,1863
11872,1863
11873,1859
11874,1860
11875,1855
11876,1856
11877,1859
11878,1856
11879,1857
11880,1859
11881,1862
11882,1862
11883,1863
11884,1863
11885,1865
11886,1866
11887,1868
11888,1863
11889,1863
11890,1859
11891,1855
11892,1856
11893,1855
11894,1859
11895,1864
11896,1866
11897,1865
11898,1862
11899,1861
11900,1865
11901,1867
11902,1867
11903,1856
11904,1857
11905,1859
11906,1858
11907,1855
11908,1857
11909,1857
11910,1858
11911,1858
11912,1856
11913,1855
11914,1855
11915,1857
11916,1855
11917,1863
11918,1872
11919,1872
11920,1867
