Time(ms),Raw_ADC
0,1861
1,1853
2,1859
3,1860
4,1860
5,1859
6,1859
7,1861
8,1863
9,1860
10,1857
11,1861
12,1859
13,1861
14,1863
15,1858
16,1863
17,1859
18,1861
19,1862
20,1862
21,1861
22,1863
23,1856
24,1854
25,1856
26,1856
27,1856
28,1859
29,1859
30,1863
31,1861
32,1862
33,1863
34,1862
35,1857
36,1859
37,1858
38,1862
39,1863
40,1861
41,1859
42,1862
43,1861
44,1863
45,1863
46,1862
47,1861
48,1866
49,1862
50,1862
51,1861
52,1859
53,1855
54,1855
55,1853
56,1855
57,1856
58,1856
59,1861
60,1861
61,1861
62,1862
63,1857
64,1860
65,1861
66,1861
67,1862
68,1864
69,1861
70,1863
71,1861
72,1858
73,1862
74,1862
75,1856
76,1859
77,1861
78,1861
79,1859
80,1861
81,1859
82,1860
83,1857
84,1857
85,1856
86,1856
87,1856
88,1853
89,1853
90,1858
91,1859
92,1859
93,1860
94,1860
95,1861
96,1861
97,1866
98,1861
99,1864
100,1862
101,1862
102,1863
103,1861
104,1866
105,1865
106,1862
107,1862
108,1863
109,1862
110,1861
111,1863
112,1863
113,1860
114,1859
115,1856
116,1855
117,1856
118,1856
119,1858
120,1862
121,1859
122,1861
123,1866
124,1861
125,1863
126,1861
127,1861
128,1861
129,1863
130,1859
131,1862
132,1863
133,1863
134,1863
135,1863
136,1862
137,1863
138,1861
139,1863
140,1861
141,1862
142,1861
143,1855
144,1855
145,1855
146,1855
147,1857
148,1861
149,1859
150,1861
151,1860
152,1862
153,1866
154,1863
155,1863
156,1862
157,1861
158,1862
159,1861
160,1861
161,1861
162,1862
163,1862
164,1864
165,1862
166,1862
167,1861
168,1862
169,1861
170,1860
171,1862
172,1863
173,1856
174,1856
175,1856
176,1854
177,1854
178,1855
179,1862
180,1861
181,1860
182,1862
183,1861
184,1862
185,1863
186,1862
187,1863
188,1862
189,1862
190,1863
191,1862
192,1863
193,1861
194,1863
195,1862
196,1861
197,1862
198,1862
199,1863
200,1865
201,1856
202,1855
203,1854
204,1857
205,1855
206,1856
207,1855
208,1856
209,1859
210,1861
211,1859
212,1862
213,1863
214,1859
215,1861
216,1862
217,1861
218,1863
219,1863
220,1862
221,1861
222,1862
223,1863
224,1861
225,1862
226,1861
227,1862
228,1862
229,1863
230,1862
231,1861
232,1863
233,1856
234,1858
235,1856
236,1855
237,1854
238,1859
239,1864
240,1860
241,1860
242,1859
243,1862
244,1862
245,1861
246,1861
247,1863
248,1861
249,1863
250,1863
251,1863
252,1863
253,1860
254,1861
255,1862
256,1861
257,1861
258,1861
259,1863
260,1859
261,1864
262,1862
263,1856
264,1856
265,1854
266,1856
267,1863
268,1861
269,1861
270,1861
271,1861
272,1860
273,1861
274,1859
275,1859
276,1863
277,1861
278,1861
279,1861
280,1864
281,1865
282,1859
283,1861
284,1862
285,1860
286,1863
287,1862
288,1859
289,1862
290,1862
291,1865
292,1863
293,1855
294,1855
295,1856
296,1857
297,1856
298,590
299,1798
300,2003
301,2007
302,1994
303,1981
304,1966
305,1952
306,1936
307,1925
308,1917
309,1910
310,1904
311,1899
312,1894
313,1886
314,1885
315,1881
316,1877
317,1872
318,1873
319,1872
320,1868
321,1871
322,1869
323,1859
324,1861
325,1856
326,1847
327,1841
328,1840
329,322
330,1587
331,1997
332,2017
333,2002
334,1993
335,1977
336,1965
337,1951
338,1936
339,1926
340,1913
341,1905
342,1904
343,1893
344,1890
345,1885
346,1882
347,1880
348,1875
349,1873
350,1872
351,1870
352,1869
353,1860
354,1856
355,1846
356,1840
357,1841
358,1857
359,1856
360,933
361,1406
362,1987
363,2031
364,2013
365,1991
366,1978
367,1965
368,1949
369,1936
370,1921
371,1916
372,1906
373,1888
374,1894
375,1891
376,1887
377,1881
378,1878
379,1877
380,1874
381,1874
382,1872
383,1863
384,1861
385,1859
386,1859
387,1859
388,1856
389,1866
390,1866
391,1864
392,995
393,1926
394,2026
395,2009
396,1986
397,1969
398,1954
399,1942
400,1931
401,1919
402,1909
403,1904
404,1898
405,1890
406,1889
407,1883
408,1878
409,1876
410,1873
411,1872
412,1872
413,1863
414,1864
415,1862
416,1860
417,1858
418,1857
419,1862
420,1863
421,1863
422,1866
423,576
424,1835
425,2029
426,2014
427,1995
428,1975
429,1959
430,1943
431,1931
432,1921
433,1914
434,1904
435,1900
436,1894
437,1890
438,1883
439,1881
440,1877
441,1875
442,1872
443,1866
444,1866
445,1863
446,1863
447,1859
448,1857
449,1865
450,1863
451,1866
452,1866
453,1861
454,322
455,1677
456,2019
457,2019
458,1999
459,1979
460,1963
461,1945
462,1936
463,1923
464,1916
465,1908
466,1903
467,1895
468,1891
469,1883
470,1882
471,1879
472,1874
473,1869
474,1867
475,1867
476,1862
477,1862
478,1859
479,1866
480,1865
481,1865
482,1865
483,1863
484,1865
485,703
486,1446
487,2002
488,2032
489,2011
490,1991
491,1971
492,1957
493,1939
494,1930
495,1920
496,1911
497,1905
498,1900
499,1895
500,1890
501,1877
502,1872
503,1871
504,1869
505,1866
506,1867
507,1865
508,1859
509,1866
510,1867
511,1867
512,1865
513,1866
514,1862
515,1862
516,1862
517,954
518,1923
519,2041
520,2029
521,2002
522,1984
523,1968
524,1950
525,1937
526,1927
527,1918
528,1909
529,1903
530,1899
531,1892
532,1887
533,1877
534,1872
535,1872
536,1870
537,1867
538,1872
539,1870
540,1868
541,1869
542,1867
543,1866
544,1866
545,1863
546,1863
547,1865
548,559
549,1807
550,2030
551,2032
552,2005
553,1984
554,1968
555,1954
556,1937
557,1927
558,1919
559,1911
560,1904
561,1897
562,1891
563,1882
564,1873
565,1873
566,1872
567,1874
568,1872
569,1872
570,1871
571,1870
572,1869
573,1870
574,1865
575,1868
576,1862
577,1866
578,1862
579,256
580,1648
581,2011
582,2032
583,2011
584,1991
585,1973
586,1959
587,1941
588,1932
589,1921
590,1913
591,1904
592,1898
593,1885
594,1882
595,1875
596,1874
597,1871
598,1862
599,1841
600,1825
601,1831
602,1840
603,1847
604,1851
605,1859
606,1865
607,1869
608,1871
609,1872
610,455
611,1450
612,2006
613,2064
614,2041
615,2015
616,1994
617,1978
618,1953
619,1936
620,1927
621,1915
622,1906
623,1894
624,1885
625,1878
626,1873
627,1867
628,1837
629,1822
630,1826
631,1841
632,1843
633,1854
634,1856
635,1852
636,1853
637,1856
638,1867
639,1868
640,1872
641,1893
642,1040
643,1939
644,2071
645,2064
646,2032
647,2013
648,1995
649,1971
650,1959
651,1942
652,1926
653,1830
654,1819
655,1858
656,1883
657,1878
658,1887
659,1861
660,1840
661,1845
662,1850
663,1854
664,1856
665,1855
666,1854
667,1856
668,1856
669,1857
670,1859
671,1866
672,1873
673,701
674,1840
675,2077
676,2079
677,2045
678,2030
679,2007
680,1987
681,1970
682,1953
683,1927
684,1810
685,1794
686,1840
687,1869
688,1883
689,1883
690,1861
691,1841
692,1851
693,1856
694,1865
695,1870
696,1865
697,1857
698,1853
699,1851
700,1853
701,1859
702,1860
703,1863
704,232
705,1722
706,2046
707,2085
708,2054
709,2036
710,2034
711,2012
712,1989
713,1963
714,1937
715,1813
716,1803
717,1840
718,1872
719,1878
720,1872
721,1854
722,1843
723,1847
724,1859
725,1872
726,1875
727,1872
728,1870
729,1861
730,1856
731,1861
732,1854
733,1854
734,1853
735,541
736,1422
737,1986
738,2071
739,2047
740,2023
741,2057
742,2033
743,2002
744,1979
745,1954
746,1828
747,1796
748,1822
749,1865
750,1872
751,1872
752,1856
753,1839
754,1840
755,1855
756,1871
757,1877
758,1879
759,1887
760,1872
761,1871
762,1870
763,1862
764,1859
765,1851
766,1918
767,1061
768,1924
769,2054
770,2043
771,2003
772,2064
773,2053
774,2021
775,1998
776,1957
777,1822
778,1798
779,1841
780,1871
781,1888
782,1883
783,1861
784,1837
785,1834
786,1848
787,1855
788,1867
789,1875
790,1877
791,1875
792,1872
793,1871
794,1872
795,1862
796,1861
797,1882
798,597
799,1825
800,2030
801,2034
802,1991
803,2039
804,2073
805,2043
806,2012
807,1952
808,1845
809,1814
810,1846
811,1884
812,1903
813,1893
814,1872
815,1840
816,1829
817,1835
818,1841
819,1856
820,1863
821,1869
822,1871
823,1872
824,1873
825,1872
826,1872
827,1871
828,1866
829,322
830,1727
831,2016
832,2035
833,1995
834,2013
835,2070
836,2055
837,2019
838,1923
839,1822
840,1801
841,1837
842,1879
843,1897
844,1899
845,1885
846,1847
847,1831
848,1830
849,1840
850,1843
851,1855
852,1862
853,1870
854,1872
855,1873
856,1879
857,1881
858,1881
859,1881
860,299
861,1522
862,2006
863,2046
864,2007
865,1997
866,2074
867,2065
868,2032
869,1932
870,1822
871,1787
872,1833
873,1879
874,1902
875,1918
876,1902
877,1871
878,1847
879,1840
880,1843
881,1849
882,1850
883,1856
884,1856
885,1861
886,1867
887,1869
888,1873
889,1874
890,1877
891,1850
892,1154
893,1949
894,2064
895,2042
896,1997
897,2077
898,2081
899,2054
900,1967
901,1837
902,1773
903,1801
904,1851
905,1887
906,1901
907,1901
908,1883
909,1863
910,1846
911,1852
912,1857
913,1858
914,1860
915,1857
916,1856
917,1857
918,1856
919,1858
920,1861
921,1870
922,1872
923,1871
924,1872
925,1873
926,1872
927,1863
928,1857
929,1861
930,1858
931,1855
932,1845
933,1845
934,1843
935,1855
936,1856
937,1857
938,1866
939,1869
940,1872
941,1871
942,1872
943,1862
944,1862
945,1859
946,1854
947,1850
948,1854
949,1849
950,1846
951,1850
952,1857
953,1856
954,1858
955,1860
956,1861
957,1867
958,1869
959,1871
960,1862
961,1859
962,1860
963,1851
964,1846
965,1843
966,1847
967,1850
968,1853
969,1854
970,1856
971,1859
972,1867
973,1872
974,1869
975,1871
976,1868
977,1862
978,1863
979,1856
980,1855
981,1854
982,1846
983,1843
984,1842
985,1849
986,1851
987,1854
988,1859
989,1872
990,1872
991,1871
992,1873
993,1867
994,1861
995,1858
996,1853
997,1851
998,1845
999,1847
1000,1848
1001,1846
1002,1847
1003,1849
1004,1856
1005,1867
1006,1868
1007,1872
1008,1867
1009,1871
1010,1866
1011,1860
1012,1858
1013,1845
1014,1845
1015,1840
1016,1840
1017,1842
1018,1851
1019,1853
1020,1855
1021,1861
1022,1867
1023,1869
1024,1867
1025,1871
1026,1866
1027,1859
1028,1860
1029,1855
1030,1856
1031,1849
1032,1843
1033,1843
1034,1843
1035,1850
1036,1854
1037,1857
1038,1860
1039,1867
1040,1871
1041,1865
1042,1871
1043,1858
1044,1856
1045,1855
1046,1849
1047,1843
1048,1840
1049,1846
1050,1847
1051,1850
1052,1856
1053,1857
1054,1858
1055,1863
1056,1866
1057,1872
1058,1872
1059,1873
1060,1865
1061,1863
1062,1857
1063,1851
1064,1852
1065,1843
1066,1845
1067,1847
1068,1841
1069,1846
1070,1852
1071,1858
1072,1866
1073,1863
1074,1865
1075,1865
1076,1859
1077,1855
1078,1850
1079,1851
1080,1845
1081,1844
1082,1840
1083,1840
1084,1840
1085,1843
1086,1845
1087,1841
1088,1846
1089,1850
1090,1853
1091,1851
1092,1850
1093,1847
1094,1846
1095,1841
1096,1837
1097,1838
1098,1831
1099,1829
1100,1831
1101,1834
1102,1837
1103,1837
1104,1840
1105,1843
1106,1847
1107,1847
1108,1859
1109,1863
1110,1856
1111,1854
1112,1851
1113,1851
1114,1854
1115,1847
1116,1850
1117,1850
1118,1846
1119,1856
1120,1857
1121,1869
1122,1872
1123,1872
1124,1872
1125,1872
1126,1865
1127,1861
1128,1857
1129,1851
1130,1847
1131,1846
1132,1840
1133,1838
1134,1837
1135,1840
1136,1843
1137,1842
1138,1850
1139,1857
1140,1861
1141,1856
1142,1861
1143,1856
1144,1856
1145,1855
1146,1850
1147,1847
1148,1843
1149,1841
1150,1841
1151,1846
1152,1850
1153,1856
1154,1859
1155,1865
1156,1863
1157,1870
1158,1868
1159,1867
1160,1858
1161,1858
1162,1856
1163,1846
1164,1843
1165,1841
1166,1842
1167,1841
1168,1855
1169,1856
1170,1857
1171,1862
1172,1870
1173,1869
1174,1870
1175,1872
1176,1871
1177,1865
1178,1862
1179,1857
1180,1855
1181,1854
1182,1847
1183,1852
1184,1854
1185,1858
1186,1862
1187,1865
1188,1869
1189,1870
1190,1870
1191,1863
1192,1868
1193,1856
1194,1856
1195,1853
1196,1850
1197,1854
1198,1856
1199,1857
1200,1856
1201,1856
1202,1857
1203,1860
1204,1862
1205,1861
1206,1859
1207,1862
1208,1865
1209,1863
1210,1859
1211,1858
1212,1859
1213,1857
1214,1856
1215,1855
1216,1855
1217,1853
1218,1845
1219,1847
1220,1849
1221,1852
1222,1853
1223,1856
1224,1855
1225,1856
1226,1855
1227,1853
1228,1850
1229,1854
1230,1855
1231,1855
1232,1854
1233,1854
1234,1853
1235,1856
1236,1855
1237,1857
1238,1855
1239,1854
1240,1858
1241,1856
1242,1858
1243,1856
1244,1856
1245,1855
1246,1851
1247,1850
1248,1852
1249,1847
1250,1850
1251,1850
1252,1855
1253,1850
1254,1849
1255,1851
1256,1854
1257,1856
1258,1856
1259,1858
1260,1856
1261,1856
1262,1857
1263,1855
1264,1855
1265,1855
1266,1855
1267,1853
1268,1855
1269,1854
1270,1854
1271,1856
1272,1856
1273,1856
1274,1856
1275,1858
1276,1859
1277,1858
1278,1858
1279,1854
1280,1855
1281,1855
1282,1853
1283,1847
1284,1847
1285,1846
1286,1846
1287,1852
1288,1850
1289,1858
1290,1857
1291,1858
1292,1858
1293,1860
1294,1858
1295,1855
1296,1855
1297,1855
1298,1854
1299,1855
1300,1854
1301,1853
1302,1857
1303,1856
1304,1856
1305,1859
1306,1860
1307,1859
1308,1860
1309,1861
1310,1859
1311,1859
1312,1858
1313,1849
1314,1850
1315,1850
1316,1847
1317,1847
1318,1854
1319,1855
1320,1856
1321,1856
1322,1859
1323,1859
1324,1859
1325,1862
1326,1859
1327,1859
1328,1857
1329,1857
1330,1857
1331,1858
1332,1856
1333,1856
1334,1854
1335,1856
1336,1857
1337,1857
1338,1858
1339,1856
1340,1860
1341,1861
1342,1861
1343,1855
1344,1856
1345,1855
1346,1851
1347,1851
1348,1847
1349,1856
1350,1855
1351,1855
1352,1856
1353,1855
1354,1855
1355,1854
1356,1856
1357,1855
1358,1856
1359,1856
1360,1856
1361,1856
1362,1856
1363,1854
1364,1853
1365,1851
1366,1853
1367,1853
1368,1852
1369,1851
1370,1853
1371,1857
1372,1856
1373,1853
1374,1851
1375,1855
1376,1853
1377,1851
1378,1846
1379,1858
1380,1856
1381,1853
1382,1853
1383,1853
1384,1853
1385,1856
1386,1854
1387,1856
1388,1860
1389,1859
1390,1858
1391,1859
1392,1857
1393,1858
1394,1858
1395,1856
1396,1855
1397,1856
1398,1853
1399,1853
1400,1854
1401,1855
1402,1855
1403,1851
1404,1853
1405,1856
1406,1856
1407,1858
1408,1863
1409,1859
1410,1860
1411,1858
1412,1859
1413,1856
1414,1855
1415,1856
1416,1855
1417,1851
1418,1845
1419,1855
1420,1856
1421,1858
1422,1856
1423,1856
1424,1856
1425,1857
1426,1861
1427,1861
1428,1855
1429,1858
1430,1858
1431,1856
1432,1853
1433,1849
1434,1845
1435,1844
1436,1850
1437,1846
1438,1846
1439,1856
1440,1858
1441,1859
1442,1858
1443,1859
1444,1856
1445,1857
1446,1856
1447,1858
1448,1855
1449,1855
1450,1851
1451,1851
1452,1856
1453,1857
1454,1857
1455,1858
1456,1864
1457,1861
1458,1862
1459,1865
1460,1859
1461,1857
1462,1858
1463,1847
1464,1849
1465,1850
1466,1845
1467,1847
1468,1854
1469,1856
1470,1857
1471,1859
1472,1856
1473,1856
1474,1859
1475,1854
1476,1858
1477,1859
1478,1858
1479,1856
1480,1855
1481,1857
1482,1856
1483,1855
1484,1855
1485,1855
1486,1856
1487,1857
1488,1858
1489,1857
1490,1861
1491,1859
1492,1858
1493,1856
1494,1854
1495,1851
1496,1849
1497,1848
1498,1846
1499,1853
1500,1853
1501,1853
1502,1857
1503,1858
1504,1858
1505,1857
1506,1855
1507,1856
1508,1857
1509,1856
1510,1858
1511,1856
1512,1861
1513,1859
1514,1860
1515,1856
1516,1856
1517,1856
1518,1849
1519,1846
1520,1846
1521,1850
1522,1846
1523,1845
1524,1850
1525,1853
1526,1854
1527,1854
1528,1849
1529,1856
1530,1855
1531,1856
1532,1854
1533,1853
1534,1855
1535,1855
1536,1854
1537,1855
1538,1856
1539,1858
1540,1859
1541,1860
1542,1861
1543,1859
1544,1855
1545,1856
1546,1854
1547,1854
1548,1856
1549,1856
1550,1853
1551,1853
1552,1854
1553,1848
1554,1849
1555,1851
1556,1853
1557,1857
1558,1861
1559,1859
1560,1859
1561,1858
1562,1859
1563,1851
1564,1850
1565,1850
1566,1850
1567,1854
1568,1854
1569,1857
1570,1857
1571,1858
1572,1856
1573,1858
1574,1858
1575,1856
1576,1856
1577,1857
1578,1853
1579,1855
1580,1855
1581,1856
1582,1855
1583,1849
1584,1847
1585,1853
1586,1854
1587,1849
1588,1853
1589,1859
1590,1862
1591,1858
1592,1858
1593,1854
1594,1851
1595,1850
1596,1850
1597,1849
1598,1846
1599,1847
1600,1850
1601,1852
1602,1851
1603,1851
1604,1855
1605,1854
1606,1855
1607,1856
1608,1859
1609,1858
1610,1857
1611,1859
1612,1858
1613,1851
1614,1847
1615,1846
1616,1847
1617,1847
1618,1855
1619,1855
1620,1857
1621,1855
1622,1862
1623,1869
1624,1863
1625,1857
1626,1857
1627,1856
1628,1853
1629,1855
1630,1855
1631,1856
1632,1856
1633,1857
1634,1859
1635,1862
1636,1854
1637,1845
1638,1841
1639,1851
1640,1859
1641,1856
1642,1856
1643,1850
1644,1847
1645,1848
1646,1845
1647,1847
1648,1842
1649,1846
1650,1852
1651,1851
1652,1855
1653,1855
1654,1857
1655,1856
1656,1857
1657,1859
1658,1862
1659,1863
1660,1862
1661,1862
1662,1859
1663,1856
1664,1856
1665,1856
1666,1858
1667,1858
1668,1857
1669,1857
1670,1859
1671,1863
1672,1867
1673,1859
1674,1857
1675,1845
1676,1858
1677,1854
1678,1852
1679,1856
1680,1857
1681,1856
1682,1855
1683,1854
1684,1854
1685,1857
1686,1856
1687,1858
1688,1862
1689,1863
1690,1865
1691,1866
1692,1867
1693,1869
1694,1863
1695,1863
1696,1859
1697,1854
1698,1851
1699,1846
1700,1846
1701,1847
1702,1855
1703,1850
1704,1857
1705,1857
1706,1858
1707,1859
1708,1867
1709,1867
1710,1871
1711,1872
1712,1870
1713,1863
1714,1859
1715,1858
1716,1855
1717,1861
1718,1855
1719,1865
1720,1867
1721,1867
1722,1863
1723,1867
1724,1863
1725,1862
1726,1863
1727,1859
1728,1857
1729,1859
1730,1859
1731,1856
1732,1859
1733,1853
1734,1856
1735,1856
1736,1858
1737,1859
1738,1856
1739,1865
1740,1865
1741,1861
1742,1861
1743,1863
1744,1863
1745,1862
1746,1859
1747,1856
1748,1857
1749,1856
1750,1855
1751,1855
1752,1860
1753,1862
1754,1863
1755,1867
1756,1869
1757,1871
1758,1872
1759,1872
1760,1872
1761,1872
1762,1871
1763,1867
1764,1859
1765,1856
1766,1856
1767,1854
1768,1857
1769,1852
1770,1847
1771,1854
1772,1856
1773,1859
1774,1863
1775,1857
1776,1866
1777,1869
1778,1866
1779,1863
1780,1859
1781,1865
1782,1859
1783,1857
1784,1856
1785,1856
1786,1857
1787,1858
1788,1861
1789,1859
1790,1863
1791,1863
1792,1862
1793,1861
1794,1858
1795,1856
1796,1849
1797,1846
1798,1853
1799,1857
1800,1855
1801,1856
1802,1855
1803,1861
1804,1860
1805,1860
1806,1866
1807,1869
1808,1868
1809,1866
1810,1861
1811,1860
1812,1863
1813,1858
1814,1855
1815,1854
1816,1856
1817,1859
1818,1841
1819,1850
1820,1853
1821,1856
1822,1855
1823,1857
1824,1858
1825,1857
1826,1855
1827,1858
1828,1859
1829,1860
1830,1856
1831,1855
1832,1854
1833,1858
1834,1859
1835,1861
1836,1866
1837,1863
1838,1862
1839,1861
1840,1861
1841,1862
1842,1862
1843,1862
1844,1865
1845,1863
1846,1861
1847,1860
1848,1859
1849,1856
1850,1855
1851,1851
1852,1855
1853,1853
1854,1855
1855,1856
1856,1860
1857,1859
1858,1856
1859,1862
1860,1861
1861,1862
1862,1857
1863,1859
1864,1856
1865,1856
1866,1856
1867,1859
1868,1862
1869,1858
1870,1859
1871,1857
1872,1858
1873,1862
1874,1861
1875,1857
1876,1860
1877,1858
1878,1856
1879,1855
1880,1853
1881,1853
1882,1854
1883,1844
1884,1847
1885,1851
1886,1851
1887,1850
1888,1852
1889,1857
1890,1862
1891,1866
1892,1866
1893,1862
1894,1858
1895,1856
1896,1858
1897,1856
1898,1855
1899,1857
1900,1855
1901,1856
1902,1853
1903,1855
1904,1856
1905,1856
1906,1856
1907,1858
1908,1863
1909,1866
1910,1861
1911,1865
1912,1858
1913,1851
1914,1850
1915,1848
1916,1851
1917,1850
1918,1856
1919,1855
1920,1855
1921,1856
1922,988
1923,1518
1924,1954
1925,1987
1926,1983
1927,1982
1928,1970
1929,1966
1930,2011
1931,2020
1932,1921
1933,1825
1934,1787
1935,1808
1936,1844
1937,1875
1938,1893
1939,1895
1940,1889
1941,1874
1942,1871
1943,1844
1944,1824
1945,1813
1946,1817
1947,1829
1948,1840
1949,1846
1950,1845
1951,1850
1952,1856
1953,2304
1954,1248
1955,1914
1956,1990
1957,1984
1958,1977
1959,1968
1960,1975
1961,2055
1962,2026
1963,1922
1964,1849
1965,1819
1966,1843
1967,1883
1968,1905
1969,1914
1970,1914
1971,1901
1972,1879
1973,1845
1974,1815
1975,1808
1976,1810
1977,1821
1978,1835
1979,1847
1980,1851
1981,1859
1982,1859
1983,1862
1984,1949
1985,912
1986,1852
1987,2022
1988,2032
1989,2013
1990,1987
1991,1998
1992,2075
1993,2021
1994,1908
1995,1827
1996,1794
1997,1811
1998,1843
1999,1870
2000,1890
2001,1893
2002,1878
2003,1859
2004,1833
2005,1811
2006,1815
2007,1829
2008,1843
2009,1847
2010,1849
2011,1857
2012,1862
2013,1861
2014,1861
2015,1866
2016,679
2017,1749
2018,2023
2019,2057
2020,2032
2021,2000
2022,2006
2023,2067
2024,2001
2025,1901
2026,1819
2027,1782
2028,1799
2029,1835
2030,1871
2031,1890
2032,1890
2033,1867
2034,1843
2035,1818
2036,1808
2037,1818
2038,1833
2039,1851
2040,1860
2041,1862
2042,1869
2043,1872
2044,1871
2045,1872
2046,1867
2047,717
2048,1583
2049,2005
2050,2075
2051,2064
2052,2018
2053,2027
2054,2081
2055,2015
2056,1911
2057,1840
2058,1789
2059,1779
2060,1791
2061,1831
2062,1865
2063,1866
2064,1862
2065,1840
2066,1814
2067,1809
2068,1835
2069,1851
2070,1856
2071,1859
2072,1864
2073,1872
2074,1875
2075,1873
2076,1877
2077,1877
2078,2226
2079,1247
2080,1943
2081,2078
2082,2074
2083,2032
2084,2026
2085,2074
2086,2007
2087,1915
2088,1851
2089,1803
2090,1781
2091,1801
2092,1853
2093,1879
2094,1891
2095,1885
2096,1848
2097,1815
2098,1813
2099,1824
2100,1841
2101,1854
2102,1859
2103,1860
2104,1868
2105,1875
2106,1878
2107,1879
2108,1882
2109,2016
2110,830
2111,1847
2112,2065
2113,2078
2114,2032
2115,2013
2116,2078
2117,2015
2118,1917
2119,1848
2120,1797
2121,1776
2122,1803
2123,1849
2124,1880
2125,1896
2126,1879
2127,1847
2128,1823
2129,1826
2130,1835
2131,1843
2132,1850
2133,1851
2134,1850
2135,1858
2136,1867
2137,1872
2138,1876
2139,1879
2140,1882
2141,565
2142,1727
2143,2038
2144,2091
2145,2057
2146,2016
2147,2083
2148,2039
2149,1942
2150,1856
2151,1793
2152,1766
2153,1782
2154,1831
2155,1873
2156,1888
2157,1891
2158,1869
2159,1845
2160,1840
2161,1847
2162,1856
2163,1861
2164,1863
2165,1859
2166,1858
2167,1861
2168,1867
2169,1870
2170,1871
2171,1877
2172,547
2173,1618
2174,2029
2175,2105
2176,2080
2177,2037
2178,2097
2179,2058
2180,1952
2181,1867
2182,1798
2183,1753
2184,1770
2185,1819
2186,1863
2187,1886
2188,1890
2189,1871
2190,1845
2191,1843
2192,1862
2193,1872
2194,1873
2195,1874
2196,1870
2197,1865
2198,1862
2199,1863
2200,1857
2201,1858
2202,1867
2203,1744
2204,1278
2205,1968
2206,2103
2207,2093
2208,2037
2209,2100
2210,2095
2211,1991
2212,1901
2213,1809
2214,1755
2215,1754
2216,1810
2217,1849
2218,1879
2219,1883
2220,1867
2221,1849
2222,1845
2223,1858
2224,1870
2225,1887
2226,1881
2227,1878
2228,1870
2229,1859
2230,1862
2231,1862
2232,1859
2233,1859
2234,2150
2235,942
2236,1893
2237,2088
2238,2096
2239,2035
2240,2095
2241,2109
2242,2015
2243,1910
2244,1827
2245,1760
2246,1750
2247,1798
2248,1840
2249,1874
2250,1874
2251,1867
2252,1843
2253,1833
2254,1843
2255,1864
2256,1876
2257,1882
2258,1882
2259,1882
2260,1873
2261,1872
2262,1873
2263,1871
2264,1870
2265,1859
2266,546
2267,1771
2268,2064
2269,2085
2270,2030
2271,2062
2272,2115
2273,2032
2274,1937
2275,1859
2276,1776
2277,1751
2278,1797
2279,1851
2280,1875
2281,1883
2282,1870
2283,1840
2284,1829
2285,1840
2286,1854
2287,1867
2288,1875
2289,1883
2290,1887
2291,1881
2292,1881
2293,1878
2294,1874
2295,1872
2296,1862
2297,491
2298,1535
2299,2001
2300,2080
2301,2045
2302,2030
2303,2101
2304,2064
2305,1971
2306,1883
2307,1779
2308,1746
2309,1795
2310,1840
2311,1861
2312,1878
2313,1872
2314,1840
2315,1815
2316,1827
2317,1834
2318,1854
2319,1862
2320,1872
2321,1875
2322,1878
2323,1879
2324,1881
2325,1883
2326,1879
2327,1872
2328,1821
2329,1271
2330,1962
2331,2083
2332,2064
2333,2011
2334,2091
2335,2077
2336,1970
2337,1874
2338,1773
2339,1738
2340,1792
2341,1853
2342,1898
2343,1904
2344,1890
2345,1867
2346,1840
2347,1831
2348,1834
2349,1840
2350,1846
2351,1861
2352,1867
2353,1867
2354,1867
2355,1872
2356,1872
2357,1879
2358,1881
2359,2141
2360,891
2361,1891
2362,2094
2363,2082
2364,2018
2365,2082
2366,2086
2367,1973
2368,1895
2369,1787
2370,1738
2371,1783
2372,1838
2373,1878
2374,1907
2375,1897
2376,1872
2377,1843
2378,1840
2379,1845
2380,1853
2381,1859
2382,1861
2383,1868
2384,1869
2385,1866
2386,1871
2387,1872
2388,1876
2389,1877
2390,1883
2391,488
2392,1777
2393,2079
2394,2103
2395,2039
2396,2066
2397,2117
2398,2032
2399,1926
2400,1793
2401,1727
2402,1762
2403,1810
2404,1855
2405,1886
2406,1890
2407,1875
2408,1853
2409,1842
2410,1847
2411,1856
2412,1866
2413,1865
2414,1866
2415,1857
2416,1857
2417,1856
2418,1858
2419,1861
2420,1863
2421,1867
2422,361
2423,1583
2424,2041
2425,2112
2426,2063
2427,2043
2428,2118
2429,2073
2430,1962
2431,1813
2432,1708
2433,1742
2434,1795
2435,1852
2436,1891
2437,1895
2438,1882
2439,1853
2440,1846
2441,1850
2442,1863
2443,1871
2444,1872
2445,1872
2446,1866
2447,1866
2448,1861
2449,1861
2450,1857
2451,1861
2452,1866
2453,1521
2454,1294
2455,1997
2456,2119
2457,2101
2458,2064
2459,2135
2460,2099
2461,1985
2462,1831
2463,1713
2464,1737
2465,1785
2466,1835
2467,1874
2468,1885
2469,1872
2470,1840
2471,1835
2472,1841
2473,1859
2474,1872
2475,1874
2476,1879
2477,1876
2478,1877
2479,1872
2480,1870
2481,1867
2482,1863
2483,1857
2484,2181
2485,890
2486,1907
2487,2112
2488,2110
2489,2046
2490,2134
2491,2134
2492,2035
2493,1879
2494,1729
2495,1738
2496,1789
2497,1827
2498,1854
2499,1872
2500,1867
2501,1843
2502,1829
2503,1840
2504,1855
2505,1867
2506,1877
2507,1887
2508,1886
2509,1885
2510,1878
2511,1873
2512,1872
2513,1861
2514,1855
2515,1853
2516,458
2517,1787
2518,2094
2519,2105
2520,2039
2521,2096
2522,2146
2523,2077
2524,1922
2525,1750
2526,1731
2527,1782
2528,1834
2529,1872
2530,1889
2531,1877
2532,1847
2533,1824
2534,1817
2535,1840
2536,1857
2537,1865
2538,1874
2539,1879
2540,1885
2541,1885
2542,1883
2543,1872
2544,1869
2545,1867
2546,1857
2547,1855
2548,1852
2549,1856
2550,1853
2551,1857
2552,1859
2553,1865
2554,1868
2555,1871
2556,1872
2557,1873
2558,1873
2559,1873
2560,1862
2561,1861
2562,1866
2563,1861
2564,1856
2565,1850
2566,1851
2567,1850
2568,1856
2569,1856
2570,1856
2571,1863
2572,1868
2573,1863
2574,1861
2575,1869
2576,1867
2577,1857
2578,1857
2579,1853
2580,1856
2581,1851
2582,1848
2583,1847
2584,1851
2585,1858
2586,1860
2587,1861
2588,1866
2589,1870
2590,1874
2591,1872
2592,1871
2593,1870
2594,1867
2595,1865
2596,1858
2597,1853
2598,1851
2599,1852
2600,1847
2601,1853
2602,1856
2603,1855
2604,1857
2605,1861
2606,1860
2607,1866
2608,1869
2609,1867
2610,1867
2611,1862
2612,1858
2613,1854
2614,1853
2615,1843
2616,1850
2617,1845
2618,1854
2619,1856
2620,1855
2621,1862
2622,1867
2623,1871
2624,1872
2625,1873
2626,1872
2627,1866
2628,1862
2629,1856
2630,1855
2631,1854
2632,1846
2633,1841
2634,1843
2635,1847
2636,1850
2637,1854
2638,1860
2639,1867
2640,1870
2641,1867
2642,1869
2643,1865
2644,1862
2645,1859
2646,1854
2647,1851
2648,1851
2649,1843
2650,1840
2651,1845
2652,1852
2653,1856
2654,1861
2655,1866
2656,1869
2657,1867
2658,1863
2659,1863
2660,1861
2661,1862
2662,1857
2663,1846
2664,1846
2665,1842
2666,1843
2667,1846
2668,1851
2669,1853
2670,1849
2671,1857
2672,1865
2673,1875
2674,1871
2675,1865
2676,1868
2677,1865
2678,1859
2679,1856
2680,1854
2681,1853
2682,1849
2683,1843
2684,1846
2685,1856
2686,1861
2687,1866
2688,1867
2689,1866
2690,1870
2691,1862
2692,1868
2693,1858
2694,1855
2695,1852
2696,1846
2697,1840
2698,1839
2699,1847
2700,1846
2701,1850
2702,1854
2703,1856
2704,1863
2705,1865
2706,1866
2707,1872
2708,1871
2709,1869
2710,1861
2711,1861
2712,1861
2713,1853
2714,1851
2715,1847
2716,1852
2717,1843
2718,1847
2719,1852
2720,1855
2721,1861
2722,1866
2723,1868
2724,1867
2725,1871
2726,1867
2727,1857
2728,1854
2729,1853
2730,1850
2731,1850
2732,1844
2733,1842
2734,1844
2735,1851
2736,1851
2737,1852
2738,1861
2739,1862
2740,1870
2741,1869
2742,1871
2743,1866
2744,1868
2745,1863
2746,1855
2747,1850
2748,1850
2749,1849
2750,1845
2751,1851
2752,1853
2753,1849
2754,1853
2755,1855
2756,1856
2757,1861
2758,1870
2759,1869
2760,1863
2761,1857
2762,1857
2763,1856
2764,1853
2765,1847
2766,1851
2767,1849
2768,1849
2769,1855
2770,1857
2771,1865
2772,1872
2773,1872
2774,1872
2775,1875
2776,1871
2777,1867
2778,1867
2779,1860
2780,1858
2781,1859
2782,1854
2783,1846
2784,1851
2785,1856
2786,1858
2787,1861
2788,1870
2789,1875
2790,1879
2791,1875
2792,1876
2793,1872
2794,1872
2795,1871
2796,1866
2797,1861
2798,1859
2799,1857
2800,1856
2801,1859
2802,1861
2803,1869
2804,1871
2805,1873
2806,1872
2807,1879
2808,1877
2809,1879
2810,1871
2811,1870
2812,1865
2813,1853
2814,1853
2815,1842
2816,1845
2817,1846
2818,1856
2819,1859
2820,1858
2821,1867
2822,1871
2823,1871
2824,1872
2825,1872
2826,1872
2827,1869
2828,1865
2829,1861
2830,1856
2831,1857
2832,1853
2833,1855
2834,1853
2835,1857
2836,1862
2837,1860
2838,1869
2839,1872
2840,1875
2841,1872
2842,1872
2843,1862
2844,1859
2845,1857
2846,1855
2847,1850
2848,1849
2849,1853
2850,1849
2851,1856
2852,1859
2853,1861
2854,1865
2855,1869
2856,1869
2857,1872
2858,1872
2859,1872
2860,1866
2861,1865
2862,1863
2863,1855
2864,1851
2865,1850
2866,1853
2867,1851
2868,1855
2869,1857
2870,1858
2871,1866
2872,1871
2873,1869
2874,1867
2875,1871
2876,1866
2877,1856
2878,1856
2879,1856
2880,1855
2881,1855
2882,1847
2883,1850
2884,1850
2885,1855
2886,1857
2887,1859
2888,1866
2889,1870
2890,1872
2891,1871
2892,1872
2893,1870
2894,1867
2895,1863
2896,1856
2897,1853
2898,1852
2899,1854
2900,1849
2901,1855
2902,1857
2903,1855
2904,1856
2905,1859
2906,1863
2907,1875
2908,1872
2909,1871
2910,1867
2911,1862
2912,1861
2913,1857
2914,1855
2915,1847
2916,1851
2917,1846
2918,1856
2919,1857
2920,1858
2921,1869
2922,1871
2923,1872
2924,1872
2925,1872
2926,1872
2927,1869
2928,1866
2929,1859
2930,1856
2931,1854
2932,1850
2933,1847
2934,1847
2935,1852
2936,1855
2937,1855
2938,1861
2939,1870
2940,1873
2941,1872
2942,1872
2943,1867
2944,1868
2945,1862
2946,1858
2947,1855
2948,1851
2949,1851
2950,1850
2951,1854
2952,1857
2953,1859
2954,1861
2955,1870
2956,1868
2957,1872
2958,1873
2959,1872
2960,1865
2961,1861
2962,1861
2963,1846
2964,1844
2965,1841
2966,1841
2967,1847
2968,1851
2969,1855
2970,1855
2971,1863
2972,1866
2973,1867
2974,1869
2975,1864
2976,1866
2977,1859
2978,1857
2979,1856
2980,1847
2981,1850
2982,1845
2983,1845
2984,1847
2985,1851
2986,1856
2987,1857
2988,1864
2989,1869
2990,1872
2991,1869
2992,1869
2993,1858
2994,1857
2995,1858
2996,1851
2997,1847
2998,1843
2999,1849
3000,1843
3001,1849
3002,1855
3003,1855
3004,1859
3005,1865
3006,1867
3007,1872
3008,1872
3009,1871
3010,1862
3011,1862
3012,1858
3013,1855
3014,1853
3015,1846
3016,1849
3017,1842
3018,1845
3019,1847
3020,1854
3021,1859
3022,1861
3023,1861
3024,1864
3025,1871
3026,1863
3027,1859
3028,1855
3029,1858
3030,1854
3031,1854
3032,1846
3033,1851
3034,1853
3035,1857
3036,1861
3037,1861
3038,1870
3039,1872
3040,1875
3041,1873
3042,1878
3043,1872
3044,1870
3045,1867
3046,1858
3047,1855
3048,1855
3049,1854
3050,1850
3051,1855
3052,1857
3053,1851
3054,1858
3055,1860
3056,1864
3057,1866
3058,1872
3059,1873
3060,1869
3061,1863
3062,1866
3063,1858
3064,1856
3065,1851
3066,1851
3067,1850
3068,1856
3069,1857
3070,1862
3071,1872
3072,1872
3073,1872
3074,1865
3075,1872
3076,1871
3077,1861
3078,1860
3079,1857
3080,1856
3081,1853
3082,1847
3083,1840
3084,1841
3085,1847
3086,1854
3087,1855
3088,1862
3089,1866
3090,1871
3091,1869
3092,1872
3093,1867
3094,1865
3095,1862
3096,1856
3097,1851
3098,1847
3099,1843
3100,1847
3101,1850
3102,1852
3103,1855
3104,1859
3105,1867
3106,1869
3107,1871
3108,1871
3109,1871
3110,1867
3111,1859
3112,1858
3113,1849
3114,1843
3115,1841
3116,1846
3117,1843
3118,1853
3119,1851
3120,1858
3121,1866
3122,1867
3123,1867
3124,1867
3125,1872
3126,1867
3127,1867
3128,1863
3129,1861
3130,1855
3131,1851
3132,1844
3133,1846
3134,1850
3135,1853
3136,1856
3137,1855
3138,1866
3139,1868
3140,1873
3141,1871
3142,1872
3143,1860
3144,1859
3145,1859
3146,1856
3147,1851
3148,1845
3149,1851
3150,1848
3151,1853
3152,1858
3153,1859
3154,1863
3155,1867
3156,1869
3157,1872
3158,1872
3159,1870
3160,1865
3161,1860
3162,1862
3163,1855
3164,1856
3165,1850
3166,1854
3167,1854
3168,1855
3169,1858
3170,1861
3171,1866
3172,1871
3173,1869
3174,1863
3175,1870
3176,1865
3177,1865
3178,1859
3179,1857
3180,1854
3181,1853
3182,1849
3183,1847
3184,1847
3185,1855
3186,1856
3187,1856
3188,1863
3189,1867
3190,1873
3191,1870
3192,1867
3193,1863
3194,1859
3195,1858
3196,1851
3197,1850
3198,1849
3199,1846
3200,1845
3201,1850
3202,1853
3203,1846
3204,1855
3205,1862
3206,1861
3207,1867
3208,1870
3209,1871
3210,1863
3211,1859
3212,1857
3213,1853
3214,1848
3215,1841
3216,1843
3217,1840
3218,1851
3219,1851
3220,1855
3221,1858
3222,1862
3223,1866
3224,1870
3225,1872
3226,1870
3227,1862
3228,1859
3229,1857
3230,1855
3231,1852
3232,1847
3233,1843
3234,1843
3235,1851
3236,1853
3237,1856
3238,1860
3239,1868
3240,1872
3241,1870
3242,1871
3243,1863
3244,1861
3245,1858
3246,1855
3247,1851
3248,1850
3249,1850
3250,1845
3251,1850
3252,1854
3253,1856
3254,1859
3255,1867
3256,1871
3257,1875
3258,1872
3259,1872
3260,1868
3261,1862
3262,1861
3263,1853
3264,1847
3265,1845
3266,1847
3267,1843
3268,1859
3269,1856
3270,1856
3271,1865
3272,1871
3273,1871
3274,1872
3275,1872
3276,1872
3277,1869
3278,1860
3279,1857
3280,1856
3281,1854
3282,1847
3283,1850
3284,1848
3285,1855
3286,1858
3287,1857
3288,1865
3289,1868
3290,1873
3291,1872
3292,1872
3293,1861
3294,1861
3295,1859
3296,1850
3297,1847
3298,1843
3299,1850
3300,1847
3301,1853
3302,1856
3303,1857
3304,1865
3305,1867
3306,1869
3307,1872
3308,1872
3309,1872
3310,1867
3311,1859
3312,1860
3313,1855
3314,1853
3315,1845
3316,1845
3317,1847
3318,1845
3319,1846
3320,1854
3321,1861
3322,1865
3323,1865
3324,1863
3325,1863
3326,1859
3327,1855
3328,1854
3329,1856
3330,1855
3331,1853
3332,1850
3333,1852
3334,1854
3335,1855
3336,1858
3337,1861
3338,1862
3339,1861
3340,1868
3341,1863
3342,1869
3343,1867
3344,1868
3345,1865
3346,1861
3347,1862
3348,1857
3349,1856
3350,1856
3351,1856
3352,1858
3353,1856
3354,1857
3355,1859
3356,1862
3357,1871
3358,1867
3359,1867
3360,1863
3361,1862
3362,1862
3363,1858
3364,1857
3365,1855
3366,1856
3367,1857
3368,1859
3369,1861
3370,1863
3371,1866
3372,1867
3373,1867
3374,1869
3375,1861
3376,1871
3377,1867
3378,1869
3379,1866
3380,1862
3381,1863
3382,1858
3383,1850
3384,1847
3385,1853
3386,1856
3387,1856
3388,1863
3389,1866
3390,1869
3391,1869
3392,1870
3393,1865
3394,1867
3395,1863
3396,1859
3397,1856
3398,1851
3399,1853
3400,1855
3401,1855
3402,1859
3403,1859
3404,1862
3405,1864
3406,1863
3407,1865
3408,1863
3409,1865
3410,1859
3411,1859
3412,1858
3413,1851
3414,1849
3415,1849
3416,1852
3417,1850
3418,1856
3419,1857
3420,1857
3421,1866
3422,1869
3423,1871
3424,1867
3425,1869
3426,1869
3427,1867
3428,1863
3429,1860
3430,1858
3431,1858
3432,1853
3433,1851
3434,1856
3435,1861
3436,1862
3437,1858
3438,1869
3439,1870
3440,1874
3441,1872
3442,1872
3443,1862
3444,1860
3445,1861
3446,1855
3447,1851
3448,1850
3449,1853
3450,1851
3451,1855
3452,1859
3453,1863
3454,1867
3455,1870
3456,1869
3457,1872
3458,1873
3459,1874
3460,1871
3461,1866
3462,1863
3463,1856
3464,1855
3465,1849
3466,1854
3467,1851
3468,1856
3469,1856
3470,1859
3471,1865
3472,1869
3473,1867
3474,1866
3475,1871
3476,1865
3477,1858
3478,1856
3479,1860
3480,1855
3481,1852
3482,1847
3483,1854
3484,1853
3485,1858
3486,1859
3487,1861
3488,1870
3489,1872
3490,1873
3491,1872
3492,1872
3493,1872
3494,1869
3495,1867
3496,1856
3497,1854
3498,1853
3499,1850
3500,1846
3501,1850
3502,1856
3503,1854
3504,1856
3505,1861
3506,1863
3507,1870
3508,1872
3509,1872
3510,1869
3511,1866
3512,1863
3513,1857
3514,1854
3515,1849
3516,1849
3517,1846
3518,1855
3519,1857
3520,1856
3521,1863
3522,1868
3523,1870
3524,1870
3525,1872
3526,1869
3527,1865
3528,1859
3529,1858
3530,1855
3531,1856
3532,1847
3533,1846
3534,1844
3535,1853
3536,1855
3537,1859
3538,1858
3539,1867
3540,1872
3541,1872
3542,1872
3543,1871
3544,1870
3545,1866
3546,2095
3547,989
3548,1854
3549,1984
3550,1970
3551,1967
3552,1969
3553,1963
3554,1982
3555,2029
3556,1984
3557,1883
3558,1814
3559,1815
3560,1844
3561,1872
3562,1887
3563,1888
3564,1885
3565,1870
3566,1863
3567,1841
3568,1822
3569,1814
3570,1821
3571,1840
3572,1857
3573,1866
3574,1867
3575,1870
3576,1871
3577,1869
3578,691
3579,1758
3580,1985
3581,1984
3582,1968
3583,1967
3584,1953
3585,2000
3586,2047
3587,1973
3588,1876
3589,1822
3590,1842
3591,1872
3592,1904
3593,1908
3594,1910
3595,1903
3596,1872
3597,1852
3598,1818
3599,1798
3600,1808
3601,1819
3602,1837
3603,1843
3604,1853
3605,1862
3606,1867
3607,1877
3608,1873
3609,732
3610,1602
3611,1984
3612,2011
3613,1993
3614,1970
3615,1947
3616,2011
3617,2032
3618,1949
3619,1853
3620,1799
3621,1817
3622,1861
3623,1900
3624,1917
3625,1921
3626,1904
3627,1877
3628,1843
3629,1815
3630,1810
3631,1819
3632,1825
3633,1835
3634,1840
3635,1851
3636,1859
3637,1863
3638,1872
3639,1874
3640,1642
3641,1419
3642,1966
3643,2023
3644,2007
3645,1989
3646,1957
3647,2026
3648,2023
3649,1927
3650,1838
3651,1797
3652,1825
3653,1858
3654,1894
3655,1913
3656,1911
3657,1902
3658,1876
3659,1845
3660,1821
3661,1826
3662,1839
3663,1842
3664,1846
3665,1840
3666,1847
3667,1850
3668,1858
3669,1867
3670,1867
3671,2257
3672,1105
3673,1929
3674,2029
3675,2020
3676,1998
3677,1968
3678,2034
3679,2029
3680,1927
3681,1854
3682,1809
3683,1820
3684,1867
3685,1902
3686,1915
3687,1917
3688,1904
3689,1885
3690,1859
3691,1842
3692,1847
3693,1855
3694,1861
3695,1863
3696,1857
3697,1856
3698,1861
3699,1859
3700,1860
3701,1867
3702,1872
3703,670
3704,1787
3705,2027
3706,2051
3707,2031
3708,1991
3709,2064
3710,2058
3711,1961
3712,1873
3713,1810
3714,1813
3715,1840
3716,1870
3717,1884
3718,1901
3719,1887
3720,1868
3721,1843
3722,1839
3723,1845
3724,1857
3725,1869
3726,1872
3727,1872
3728,1865
3729,1863
3730,1865
3731,1863
3732,1858
3733,1857
3734,509
3735,1648
3736,1998
3737,2036
3738,2026
3739,1987
3740,2070
3741,2077
3742,1985
3743,1885
3744,1825
3745,1810
3746,1819
3747,1842
3748,1866
3749,1879
3750,1870
3751,1848
3752,1829
3753,1823
3754,1839
3755,1851
3756,1862
3757,1872
3758,1871
3759,1869
3760,1864
3761,1862
3762,1866
3763,1856
3764,1856
3765,1275
3766,1392
3767,1957
3768,2046
3769,2039
3770,1987
3771,2061
3772,2096
3773,2000
3774,1904
3775,1841
3776,1807
3777,1799
3778,1834
3779,1865
3780,1875
3781,1873
3782,1859
3783,1834
3784,1819
3785,1836
3786,1851
3787,1863
3788,1875
3789,1882
3790,1889
3791,1883
3792,1883
3793,1881
3794,1875
3795,1873
3796,2202
3797,977
3798,1880
3799,2045
3800,2047
3801,2000
3802,2054
3803,2111
3804,2046
3805,1944
3806,1877
3807,1818
3808,1794
3809,1819
3810,1849
3811,1870
3812,1885
3813,1872
3814,1841
3815,1819
3816,1834
3817,1840
3818,1856
3819,1867
3820,1867
3821,1873
3822,1877
3823,1877
3824,1882
3825,1883
3826,1878
3827,1872
3828,667
3829,1804
3830,2026
3831,2045
3832,1994
3833,2011
3834,2078
3835,2026
3836,1946
3837,1871
3838,1811
3839,1803
3840,1841
3841,1872
3842,1897
3843,1903
3844,1887
3845,1855
3846,1834
3847,1830
3848,1839
3849,1849
3850,1856
3851,1865
3852,1867
3853,1871
3854,1878
3855,1877
3856,1879
3857,1882
3858,1879
3859,456
3860,1622
3861,2000
3862,2059
3863,2013
3864,1998
3865,2085
3866,2059
3867,1950
3868,1867
3869,1808
3870,1791
3871,1831
3872,1869
3873,1898
3874,1909
3875,1897
3876,1872
3877,1842
3878,1840
3879,1846
3880,1854
3881,1862
3882,1861
3883,1862
3884,1861
3885,1866
3886,1867
3887,1871
3888,1873
3889,1875
3890,1037
3891,1433
3892,1978
3893,2053
3894,2028
3895,1994
3896,2085
3897,2077
3898,1963
3899,1882
3900,1808
3901,1778
3902,1812
3903,1858
3904,1894
3905,1909
3906,1900
3907,1872
3908,1845
3909,1843
3910,1851
3911,1857
3912,1867
3913,1868
3914,1870
3915,1859
3916,1859
3917,1860
3918,1859
3919,1859
3920,1860
3921,2226
3922,1009
3923,1898
3924,2042
3925,2046
3926,1993
3927,2062
3928,2102
3929,2018
3930,1918
3931,1839
3932,1772
3933,1785
3934,1834
3935,1872
3936,1898
3937,1898
3938,1882
3939,1856
3940,1849
3941,1855
3942,1865
3943,1871
3944,1874
3945,1875
3946,1869
3947,1858
3948,1858
3949,1856
3950,1856
3951,1859
3952,1889
3953,693
3954,1818
3955,2031
3956,2042
3957,2003
3958,2062
3959,2123
3960,2053
3961,1952
3962,1862
3963,1778
3964,1781
3965,1831
3966,1870
3967,1890
3968,1899
3969,1874
3970,1847
3971,1844
3972,1857
3973,1870
3974,1875
3975,1873
3976,1878
3977,1875
3978,1873
3979,1871
3980,1866
3981,1863
3982,1857
3983,1855
3984,382
3985,1631
3986,1982
3987,2021
3988,1988
3989,1998
3990,2110
3991,2105
3992,2015
3993,1907
3994,1805
3995,1789
3996,1827
3997,1861
3998,1888
3999,1892
4000,1870
4001,1841
4002,1832
4003,1840
4004,1853
4005,1862
4006,1872
4007,1879
4008,1882
4009,1882
4010,1875
4011,1871
4012,1871
4013,1857
4014,1855
4015,1119
4016,1392
4017,1933
4018,2023
4019,2000
4020,1973
4021,2085
4022,2114
4023,2023
4024,1930
4025,1829
4026,1776
4027,1821
4028,1863
4029,1888
4030,1894
4031,1877
4032,1843
4033,1826
4034,1825
4035,1841
4036,1857
4037,1867
4038,1875
4039,1875
4040,1877
4041,1874
4042,1873
4043,1866
4044,1865
4045,1859
4046,2256
4047,1040
4048,1888
4049,2022
4050,2017
4051,1973
4052,2075
4053,2128
4054,2039
4055,1936
4056,1835
4057,1776
4058,1811
4059,1859
4060,1890
4061,1904
4062,1895
4063,1861
4064,1835
4065,1826
4066,1841
4067,1850
4068,1856
4069,1865
4070,1869
4071,1872
4072,1873
4073,1871
4074,1871
4075,1872
4076,1872
4077,1867
4078,639
4079,1797
4080,2014
4081,2037
4082,1982
4083,2034
4084,2130
4085,2082
4086,1972
4087,1850
4088,1762
4089,1779
4090,1836
4091,1871
4092,1902
4093,1895
4094,1872
4095,1846
4096,1835
4097,1839
4098,1847
4099,1856
4100,1859
4101,1865
4102,1869
4103,1863
4104,1867
4105,1870
4106,1870
4107,1872
4108,1874
4109,374
4110,1659
4111,2001
4112,2043
4113,1994
4114,2002
4115,2119
4116,2098
4117,1991
4118,1869
4119,1763
4120,1766
4121,1815
4122,1867
4123,1897
4124,1903
4125,1887
4126,1858
4127,1840
4128,1840
4129,1851
4130,1856
4131,1856
4132,1856
4133,1855
4134,1856
4135,1858
4136,1858
4137,1858
4138,1861
4139,1872
4140,659
4141,1474
4142,1985
4143,2064
4144,2024
4145,2005
4146,2130
4147,2112
4148,1995
4149,1872
4150,1754
4151,1750
4152,1799
4153,1846
4154,1886
4155,1903
4156,1885
4157,1859
4158,1846
4159,1849
4160,1854
4161,1857
4162,1867
4163,1861
4164,1861
4165,1858
4166,1857
4167,1856
4168,1865
4169,1869
4170,1869
4171,1872
4172,1872
4173,1861
4174,1872
4175,1865
4176,1872
4177,1866
4178,1865
4179,1859
4180,1859
4181,1856
4182,1854
4183,1853
4184,1853
4185,1856
4186,1857
4187,1859
4188,1859
4189,1861
4190,1869
4191,1867
4192,1861
4193,1859
4194,1857
4195,1855
4196,1853
4197,1853
4198,1851
4199,1856
4200,1858
4201,1858
4202,1859
4203,1859
4204,1866
4205,1868
4206,1872
4207,1874
4208,1872
4209,1872
4210,1871
4211,1868
4212,1863
4213,1860
4214,1859
4215,1856
4216,1857
4217,1857
4218,1850
4219,1853
4220,1855
4221,1857
4222,1858
4223,1859
4224,1860
4225,1861
4226,1862
4227,1858
4228,1856
4229,1859
4230,1858
4231,1858
4232,1854
4233,1854
4234,1851
4235,1856
4236,1861
4237,1861
4238,1870
4239,1871
4240,1873
4241,1872
4242,1875
4243,1871
4244,1869
4245,1866
4246,1859
4247,1856
4248,1854
4249,1851
4250,1850
4251,1853
4252,1857
4253,1855
4254,1863
4255,1867
4256,1867
4257,1872
4258,1879
4259,1877
4260,1872
4261,1867
4262,1867
4263,1859
4264,1859
4265,1854
4266,1854
4267,1853
4268,1859
4269,1856
4270,1860
4271,1871
4272,1874
4273,1872
4274,1871
4275,1873
4276,1872
4277,1869
4278,1862
4279,1862
4280,1858
4281,1855
4282,1850
4283,1840
4284,1842
4285,1846
4286,1855
4287,1859
4288,1859
4289,1871
4290,1877
4291,1872
4292,1873
4293,1872
4294,1863
4295,1860
4296,1855
4297,1850
4298,1851
4299,1850
4300,1850
4301,1854
4302,1855
4303,1860
4304,1867
4305,1871
4306,1870
4307,1873
4308,1877
4309,1875
4310,1870
4311,1866
4312,1858
4313,1845
4314,1841
4315,1840
4316,1840
4317,1837
4318,1851
4319,1855
4320,1857
4321,1865
4322,1866
4323,1871
4324,1872
4325,1872
4326,1868
4327,1867
4328,1861
4329,1858
4330,1855
4331,1854
4332,1845
4333,1842
4334,1843
4335,1850
4336,1855
4337,1855
4338,1858
4339,1859
4340,1867
4341,1861
4342,1861
4343,1852
4344,1854
4345,1850
4346,1842
4347,1840
4348,1842
4349,1840
4350,1840
4351,1841
4352,1844
4353,1842
4354,1846
4355,1853
4356,1853
4357,1856
4358,1856
4359,1857
4360,1846
4361,1844
4362,1842
4363,1840
4364,1839
4365,1834
4366,1837
4367,1835
4368,1839
4369,1841
4370,1840
4371,1854
4372,1855
4373,1856
4374,1855
4375,1861
4376,1859
4377,1850
4378,1853
4379,1850
4380,1842
4381,1850
4382,1843
4383,1845
4384,1849
4385,1855
4386,1856
4387,1858
4388,1869
4389,1870
4390,1872
4391,1871
4392,1872
4393,1868
4394,1866
4395,1866
4396,1856
4397,1855
4398,1852
4399,1851
4400,1845
4401,1851
4402,1856
4403,1853
4404,1855
4405,1858
4406,1860
4407,1867
4408,1872
4409,1872
4410,1863
4411,1860
4412,1858
4413,1853
4414,1851
4415,1843
4416,1847
4417,1844
4418,1850
4419,1855
4420,1856
4421,1869
4422,1870
4423,1872
4424,1872
4425,1876
4426,1873
4427,1871
4428,1869
4429,1863
4430,1856
4431,1857
4432,1853
4433,1841
4434,1845
4435,1855
4436,1858
4437,1861
4438,1863
4439,1873
4440,1878
4441,1873
4442,1875
4443,1872
4444,1872
4445,1872
4446,1866
4447,1860
4448,1859
4449,1861
4450,1856
4451,1860
4452,1862
4453,1868
4454,1872
4455,1872
4456,1872
4457,1881
4458,1879
4459,1879
4460,1872
4461,1870
4462,1869
4463,1856
4464,1853
4465,1847
4466,1851
4467,1851
4468,1858
4469,1862
4470,1861
4471,1870
4472,1872
4473,1874
4474,1872
4475,1875
4476,1872
4477,1870
4478,1865
4479,1861
4480,1857
4481,1853
4482,1850
4483,1851
4484,1851
4485,1854
4486,1857
4487,1859
4488,1865
4489,1869
4490,1873
4491,1872
4492,1873
4493,1861
4494,1859
4495,1857
4496,1850
4497,1844
4498,1845
4499,1851
4500,1847
4501,1851
4502,1856
4503,1858
4504,1863
4505,1868
4506,1870
4507,1872
4508,1872
4509,1870
4510,1865
4511,1859
4512,1857
4513,1851
4514,1846
4515,1843
4516,1846
4517,1848
4518,1847
4519,1845
4520,1850
4521,1857
4522,1861
4523,1862
4524,1862
4525,1866
4526,1866
4527,1859
4528,1856
4529,1849
4530,1841
4531,1850
4532,1846
4533,1845
4534,1846
4535,1855
4536,1857
4537,1857
4538,1863
4539,1869
4540,1872
4541,1868
4542,1872
4543,1867
4544,1862
4545,1862
4546,1855
4547,1850
4548,1850
4549,1850
4550,1847
4551,1851
4552,1855
4553,1851
4554,1857
4555,1862
4556,1862
4557,1870
4558,1873
4559,1872
4560,1863
4561,1860
4562,1858
4563,1856
4564,1851
4565,1846
4566,1849
4567,1849
4568,1856
4569,1855
4570,1858
4571,1863
4572,1868
4573,1872
4574,1870
4575,1872
4576,1871
4577,1863
4578,1861
4579,1858
4580,1853
4581,1854
4582,1849
4583,1840
4584,1842
4585,1851
4586,1856
4587,1858
4588,1860
4589,1865
4590,1874
4591,1872
4592,1874
4593,1871
4594,1871
4595,1867
4596,1858
4597,1856
4598,1854
4599,1854
4600,1851
4601,1856
4602,1856
4603,1861
4604,1865
4605,1870
4606,1871
4607,1875
4608,1873
4609,1872
4610,1868
4611,1863
4612,1860
4613,1845
4614,1846
4615,1840
4616,1845
4617,1846
4618,1850
4619,1855
4620,1858
4621,1866
4622,1872
4623,1872
4624,1873
4625,1875
4626,1872
4627,1867
4628,1866
4629,1861
4630,1856
4631,1856
4632,1847
4633,1852
4634,1851
4635,1858
4636,1859
4637,1859
4638,1866
4639,1867
4640,1872
4641,1867
4642,1871
4643,1858
4644,1855
4645,1856
4646,1849
4647,1846
4648,1843
4649,1850
4650,1846
4651,1854
4652,1859
4653,1859
4654,1862
4655,1867
4656,1872
4657,1873
4658,1873
4659,1872
4660,1870
4661,1866
4662,1862
4663,1855
4664,1854
4665,1845
4666,1852
4667,1851
4668,1857
4669,1858
4670,1861
4671,1870
4672,1873
4673,1871
4674,1869
4675,1871
4676,1868
4677,1862
4678,1861
4679,1862
4680,1859
4681,1858
4682,1854
4683,1855
4684,1853
4685,1861
4686,1862
4687,1865
4688,1870
4689,1872
4690,1875
4691,1873
4692,1875
4693,1872
4694,1870
4695,1872
4696,1863
4697,1856
4698,1855
4699,1856
4700,1853
4701,1856
4702,1856
4703,1855
4704,1865
4705,1865
4706,1863
4707,1871
4708,1879
4709,1875
4710,1871
4711,1867
4712,1867
4713,1859
4714,1857
4715,1852
4716,1857
4717,1853
4718,1856
4719,1860
4720,1861
4721,1870
4722,1871
4723,1872
4724,1872
4725,1872
4726,1872
4727,1869
4728,1866
4729,1861
4730,1856
4731,1856
4732,1850
4733,1846
4734,1844
4735,1854
4736,1854
4737,1855
4738,1858
4739,1871
4740,1872
4741,1871
4742,1872
4743,1869
4744,1866
4745,1866
4746,1856
4747,1852
4748,1855
4749,1855
4750,1853
4751,1858
4752,1857
4753,1861
4754,1865
4755,1871
4756,1872
4757,1874
4758,1872
4759,1872
4760,1866
4761,1862
4762,1862
4763,1852
4764,1851
4765,1842
4766,1851
4767,1845
4768,1856
4769,1859
4770,1859
4771,1866
4772,1871
4773,1872
4774,1870
4775,1874
4776,1872
4777,1869
4778,1863
4779,1856
4780,1854
4781,1851
4782,1843
4783,1847
4784,1850
4785,1856
4786,1859
4787,1863
4788,1868
4789,1868
4790,1872
4791,1871
4792,1872
4793,1861
4794,1858
4795,1856
4796,1851
4797,1846
4798,1849
4799,1855
4800,1853
4801,1855
4802,1862
4803,1862
4804,1867
4805,1872
4806,1872
4807,1873
4808,1872
4809,1873
4810,1868
4811,1862
4812,1862
4813,1856
4814,1856
4815,1852
4816,1854
4817,1854
4818,1853
4819,1854
4820,1856
4821,1861
4822,1865
4823,1869
4824,1869
4825,1872
4826,1867
4827,1859
4828,1856
4829,1858
4830,1855
4831,1851
4832,1847
4833,1851
4834,1851
4835,1855
4836,1857
4837,1861
4838,1867
4839,1871
4840,1875
4841,1872
4842,1872
4843,1872
4844,1867
4845,1867
4846,1856
4847,1854
4848,1855
4849,1853
4850,1850
4851,1854
4852,1858
4853,1853
4854,1859
4855,1863
4856,1865
4857,1868
4858,1874
4859,1872
4860,1869
4861,1863
4862,1863
4863,1856
4864,1854
4865,1850
4866,1853
4867,1852
4868,1853
4869,1856
4870,1856
4871,1866
4872,1870
4873,1869
4874,1867
4875,1872
4876,1870
4877,1866
4878,1863
4879,1858
4880,1855
4881,1851
4882,1847
4883,1842
4884,1843
4885,1850
4886,1856
4887,1854
4888,1861
4889,1871
4890,1872
4891,1871
4892,1872
4893,1870
4894,1865
4895,1863
4896,1856
4897,1855
4898,1854
4899,1855
4900,1847
4901,1853
4902,1857
4903,1858
4904,1863
4905,1867
4906,1871
4907,1872
4908,1872
4909,1872
4910,1864
4911,1859
4912,1858
4913,1847
4914,1843
4915,1840
4916,1847
4917,1848
4918,1856
4919,1857
4920,1861
4921,1869
4922,1871
4923,1872
4924,1872
4925,1873
4926,1871
4927,1867
4928,1866
4929,1857
4930,1854
4931,1854
4932,1847
4933,1850
4934,1850
4935,1856
4936,1859
4937,1861
4938,1870
4939,1872
4940,1872
4941,1872
4942,1872
4943,1862
4944,1859
4945,1858
4946,1853
4947,1845
4948,1845
4949,1854
4950,1851
4951,1853
4952,1856
4953,1859
4954,1866
4955,1871
4956,1872
4957,1873
4958,1874
4959,1875
4960,1868
4961,1867
4962,1862
4963,1856
4964,1854
4965,1851
4966,1853
4967,1852
4968,1855
4969,1856
4970,1857
4971,1866
4972,1867
4973,1863
4974,1867
4975,1869
4976,1866
4977,1860
4978,1857
4979,1859
4980,1855
4981,1855
4982,1847
4983,1850
4984,1851
4985,1856
4986,1857
4987,1857
4988,1869
4989,1868
4990,1872
4991,1872
4992,1872
4993,1867
4994,1869
4995,1865
4996,1857
4997,1855
4998,1854
4999,1853
5000,1851
5001,1855
5002,1856
5003,1855
5004,1856
5005,1862
5006,1861
5007,1869
5008,1872
5009,1872
5010,1865
5011,1861
5012,1858
5013,1854
5014,1851
5015,1848
5016,1851
5017,1851
5018,1856
5019,1856
5020,1857
5021,1863
5022,1867
5023,1870
5024,1871
5025,1873
5026,1870
5027,1863
5028,1863
5029,1857
5030,1854
5031,1855
5032,1849
5033,1844
5034,1846
5035,1853
5036,1857
5037,1853
5038,1867
5039,1870
5040,1875
5041,1872
5042,1872
5043,1869
5044,1866
5045,1867
5046,1858
5047,1857
5048,1856
5049,1855
5050,1854
5051,1854
5052,1859
5053,1861
5054,1863
5055,1869
5056,1870
5057,1874
5058,1873
5059,1874
5060,1871
5061,1867
5062,1863
5063,1849
5064,1847
5065,1841
5066,1845
5067,1843
5068,1844
5069,1855
5070,1855
5071,1866
5072,1871
5073,1870
5074,1866
5075,1872
5076,1871
5077,1866
5078,1863
5079,1856
5080,1855
5081,1855
5082,1850
5083,1851
5084,1851
5085,1858
5086,1859
5087,1858
5088,1866
5089,1867
5090,1873
5091,1869
5092,1871
5093,1861
5094,1858
5095,1858
5096,1850
5097,1844
5098,1830
5099,1851
5100,1849
5101,1853
5102,1856
5103,1860
5104,1865
5105,1867
5106,1869
5107,1872
5108,1870
5109,1871
5110,1863
5111,1860
5112,1856
5113,1854
5114,1853
5115,1847
5116,1840
5117,1849
5118,1847
5119,1852
5120,1851
5121,1857
5122,1861
5123,1863
5124,1863
5125,1867
5126,1865
5127,1863
5128,1853
5129,1855
5130,1856
5131,1855
5132,1847
5133,1850
5134,1846
5135,1854
5136,1862
5137,1858
5138,1863
5139,1867
5140,1872
5141,1871
5142,1872
5143,1869
5144,1863
5145,1861
5146,1856
5147,1853
5148,1850
5149,1851
5150,1847
5151,1853
5152,1856
5153,1855
5154,1856
5155,1858
5156,1859
5157,1867
5158,1872
5159,1872
5160,1865
5161,1861
5162,1859
5163,1855
5164,1855
5165,1847
5166,1852
5167,1850
5168,1856
5169,1856
5170,1859
5171,661
5172,1654
5173,1988
5174,1995
5175,1988
5176,1984
5177,1975
5178,1968
5179,2016
5180,2014
5181,1904
5182,1803
5183,1776
5184,1805
5185,1845
5186,1872
5187,1887
5188,1895
5189,1895
5190,1890
5191,1872
5192,1842
5193,1823
5194,1823
5195,1829
5196,1834
5197,1840
5198,1845
5199,1850
5200,1847
5201,1853
5202,1222
5203,1475
5204,1967
5205,2020
5206,2006
5207,2006
5208,1992
5209,1999
5210,2065
5211,2012
5212,1893
5213,1793
5214,1778
5215,1810
5216,1855
5217,1870
5218,1901
5219,1898
5220,1885
5221,1872
5222,1851
5223,1826
5224,1825
5225,1837
5226,1843
5227,1852
5228,1856
5229,1856
5230,1854
5231,1856
5232,1853
5233,2338
5234,1183
5235,1915
5236,2028
5237,2010
5238,2009
5239,1991
5240,2019
5241,2078
5242,2015
5243,1895
5244,1808
5245,1789
5246,1810
5247,1852
5248,1879
5249,1898
5250,1894
5251,1876
5252,1859
5253,1833
5254,1827
5255,1833
5256,1846
5257,1857
5258,1867
5259,1870
5260,1870
5261,1867
5262,1870
5263,1865
5264,1872
5265,825
5266,1829
5267,2019
5268,2033
5269,2023
5270,1985
5271,2028
5272,2086
5273,1995
5274,1883
5275,1799
5276,1783
5277,1815
5278,1859
5279,1893
5280,1901
5281,1895
5282,1874
5283,1842
5284,1814
5285,1814
5286,1831
5287,1843
5288,1860
5289,1870
5290,1874
5291,1874
5292,1877
5293,1875
5294,1873
5295,1872
5296,598
5297,1659
5298,1991
5299,2032
5300,2013
5301,1977
5302,2015
5303,2061
5304,1983
5305,1877
5306,1805
5307,1794
5308,1839
5309,1884
5310,1901
5311,1906
5312,1904
5313,1874
5314,1840
5315,1811
5316,1811
5317,1819
5318,1840
5319,1853
5320,1857
5321,1867
5322,1872
5323,1875
5324,1876
5325,1879
5326,1879
5327,964
5328,1507
5329,1978
5330,2047
5331,2035
5332,1983
5333,2025
5334,2058
5335,1974
5336,1887
5337,1808
5338,1787
5339,1823
5340,1873
5341,1901
5342,1917
5343,1918
5344,1901
5345,1858
5346,1825
5347,1825
5348,1839
5349,1849
5350,1855
5351,1858
5352,1863
5353,1870
5354,1874
5355,1882
5356,1879
5357,1886
5358,2297
5359,1143
5360,1925
5361,2062
5362,2063
5363,1991
5364,2032
5365,2077
5366,1997
5367,1886
5368,1810
5369,1776
5370,1805
5371,1860
5372,1889
5373,1914
5374,1917
5375,1891
5376,1855
5377,1830
5378,1830
5379,1838
5380,1843
5381,1851
5382,1846
5383,1853
5384,1853
5385,1856
5386,1866
5387,1867
5388,1871
5389,1936
5390,805
5391,1847
5392,2059
5393,2062
5394,2001
5395,2033
5396,2082
5397,2000
5398,1901
5399,1819
5400,1766
5401,1777
5402,1826
5403,1855
5404,1886
5405,1900
5406,1883
5407,1856
5408,1837
5409,1839
5410,1842
5411,1851
5412,1858
5413,1858
5414,1856
5415,1851
5416,1851
5417,1849
5418,1851
5419,1855
5420,1857
5421,453
5422,1710
5423,2037
5424,2085
5425,2045
5426,2039
5427,2110
5428,2047
5429,1936
5430,1835
5431,1775
5432,1767
5433,1813
5434,1840
5435,1873
5436,1898
5437,1890
5438,1868
5439,1845
5440,1853
5441,1859
5442,1872
5443,1875
5444,1873
5445,1875
5446,1867
5447,1865
5448,1867
5449,1863
5450,1861
5451,1866
5452,943
5453,1443
5454,1986
5455,2087
5456,2064
5457,2030
5458,2118
5459,2108
5460,1976
5461,1858
5462,1779
5463,1760
5464,1801
5465,1834
5466,1867
5467,1884
5468,1878
5469,1858
5470,1838
5471,1840
5472,1856
5473,1869
5474,1872
5475,1872
5476,1878
5477,1871
5478,1863
5479,1859
5480,1856
5481,1857
5482,1854
5483,2311
5484,1103
5485,1909
5486,2064
5487,2062
5488,2011
5489,2096
5490,2107
5491,1999
5492,1890
5493,1795
5494,1763
5495,1805
5496,1831
5497,1860
5498,1889
5499,1889
5500,1863
5501,1837
5502,1828
5503,1840
5504,1856
5505,1871
5506,1878
5507,1887
5508,1885
5509,1885
5510,1876
5511,1873
5512,1872
5513,1858
5514,1888
5515,702
5516,1810
5517,2030
5518,2062
5519,2000
5520,2062
5521,2123
5522,2035
5523,1928
5524,1837
5525,1779
5526,1808
5527,1843
5528,1872
5529,1895
5530,1894
5531,1873
5532,1840
5533,1828
5534,1827
5535,1849
5536,1860
5537,1868
5538,1875
5539,1878
5540,1878
5541,1877
5542,1877
5543,1871
5544,1870
5545,1870
5546,416
5547,1679
5548,2000
5549,2053
5550,1999
5551,2022
5552,2113
5553,2061
5554,1951
5555,1862
5556,1792
5557,1802
5558,1840
5559,1872
5560,1897
5561,1903
5562,1886
5563,1850
5564,1829
5565,1821
5566,1839
5567,1843
5568,1857
5569,1866
5570,1867
5571,1872
5572,1873
5573,1872
5574,1875
5575,1874
5576,1872
5577,759
5578,1461
5579,1978
5580,2071
5581,2037
5582,2015
5583,2112
5584,2073
5585,1957
5586,1863
5587,1777
5588,1772
5589,1812
5590,1855
5591,1889
5592,1910
5593,1897
5594,1866
5595,1844
5596,1837
5597,1838
5598,1845
5599,1853
5600,1855
5601,1861
5602,1865
5603,1859
5604,1867
5605,1869
5606,1871
5607,1874
5608,2064
5609,1238
5610,1951
5611,2075
5612,2059
5613,2009
5614,2106
5615,2087
5616,1963
5617,1867
5618,1766
5619,1744
5620,1795
5621,1842
5622,1883
5623,1904
5624,1899
5625,1873
5626,1847
5627,1840
5628,1841
5629,1851
5630,1855
5631,1857
5632,1854
5633,1849
5634,1851
5635,1853
5636,1857
5637,1863
5638,1869
5639,2104
5640,860
5641,1873
5642,2073
5643,2077
5644,2015
5645,2096
5646,2128
5647,2007
5648,1886
5649,1775
5650,1723
5651,1772
5652,1822
5653,1867
5654,1902
5655,1904
5656,1877
5657,1856
5658,1849
5659,1852
5660,1855
5661,1859
5662,1865
5663,1857
5664,1855
5665,1850
5666,1855
5667,1850
5668,1860
5669,1867
5670,1867
5671,480
5672,1750
5673,2052
5674,2085
5675,2026
5676,2077
5677,2133
5678,2038
5679,1920
5680,1807
5681,1727
5682,1759
5683,1811
5684,1855
5685,1891
5686,1899
5687,1878
5688,1856
5689,1844
5690,1854
5691,1857
5692,1871
5693,1863
5694,1865
5695,1868
5696,1860
5697,1858
5698,1856
5699,1860
5700,1856
5701,1858
5702,466
5703,1555
5704,2006
5705,2093
5706,2047
5707,2063
5708,2157
5709,2094
5710,1951
5711,1825
5712,1725
5713,1742
5714,1797
5715,1839
5716,1882
5717,1891
5718,1875
5719,1849
5720,1837
5721,1840
5722,1853
5723,1858
5724,1868
5725,1873
5726,1873
5727,1871
5728,1867
5729,1872
5730,1866
5731,1866
5732,1860
5733,2165
5734,1194
5735,1939
5736,2083
5737,2064
5738,2022
5739,2124
5740,2115
5741,1993
5742,1875
5743,1761
5744,1745
5745,1795
5746,1838
5747,1871
5748,1887
5749,1879
5750,1850
5751,1835
5752,1834
5753,1839
5754,1853
5755,1861
5756,1869
5757,1874
5758,1884
5759,1885
5760,1877
5761,1873
5762,1872
5763,1863
5764,2160
5765,880
5766,1868
5767,2064
5768,2067
5769,2006
5770,2093
5771,2114
5772,2015
5773,1885
5774,1775
5775,1740
5776,1798
5777,1841
5778,1889
5779,1904
5780,1895
5781,1870
5782,1835
5783,1823
5784,1828
5785,1840
5786,1851
5787,1857
5788,1866
5789,1875
5790,1881
5791,1878
5792,1877
5793,1875
5794,1872
5795,1870
5796,1861
5797,1857
5798,1856
5799,1855
5800,1849
5801,1853
5802,1855
5803,1856
5804,1862
5805,1865
5806,1868
5807,1872
5808,1873
5809,1872
5810,1864
5811,1862
5812,1859
5813,1849
5814,1846
5815,1840
5816,1843
5817,1847
5818,1854
5819,1856
5820,1857
5821,1863
5822,1870
5823,1872
5824,1872
5825,1872
5826,1872
5827,1861
5828,1865
5829,1860
5830,1854
5831,1852
5832,1847
5833,1849
5834,1847
5835,1855
5836,1856
5837,1857
5838,1867
5839,1870
5840,1874
5841,1872
5842,1872
5843,1862
5844,1859
5845,1860
5846,1854
5847,1847
5848,1847
5849,1853
5850,1847
5851,1855
5852,1859
5853,1859
5854,1865
5855,1870
5856,1870
5857,1874
5858,1875
5859,1872
5860,1867
5861,1863
5862,1862
5863,1856
5864,1854
5865,1851
5866,1854
5867,1850
5868,1856
5869,1859
5870,1861
5871,1869
5872,1872
5873,1856
5874,1868
5875,1869
5876,1867
5877,1858
5878,1855
5879,1860
5880,1856
5881,1855
5882,1850
5883,1851
5884,1850
5885,1856
5886,1858
5887,1861
5888,1869
5889,1869
5890,1874
5891,1872
5892,1872
5893,1870
5894,1867
5895,1870
5896,1858
5897,1856
5898,1855
5899,1855
5900,1854
5901,1856
5902,1862
5903,1856
5904,1859
5905,1865
5906,1868
5907,1872
5908,1876
5909,1874
5910,1871
5911,1869
5912,1866
5913,1863
5914,1858
5915,1854
5916,1855
5917,1853
5918,1858
5919,1858
5920,1856
5921,1863
5922,1872
5923,1872
5924,1872
5925,1872
5926,1870
5927,1863
5928,1861
5929,1855
5930,1854
5931,1852
5932,1849
5933,1841
5934,1845
5935,1851
5936,1852
5937,1853
5938,1859
5939,1872
5940,1872
5941,1872
5942,1871
5943,1869
5944,1868
5945,1866
5946,1856
5947,1853
5948,1852
5949,1850
5950,1844
5951,1847
5952,1853
5953,1856
5954,1863
5955,1870
5956,1872
5957,1875
5958,1872
5959,1875
5960,1869
5961,1867
5962,1868
5963,1853
5964,1845
5965,1840
5966,1841
5967,1840
5968,1845
5969,1849
5970,1853
5971,1858
5972,1862
5973,1862
5974,1857
5975,1863
5976,1857
5977,1851
5978,1849
5979,1843
5980,1843
5981,1840
5982,1837
5983,1838
5984,1834
5985,1840
5986,1843
5987,1842
5988,1850
5989,1851
5990,1855
5991,1849
5992,1855
5993,1840
5994,1840
5995,1840
5996,1835
5997,1836
5998,1826
5999,1838
6000,1834
6001,1835
6002,1840
6003,1841
6004,1845
6005,1852
6006,1856
6007,1860
6008,1861
6009,1862
6010,1856
6011,1854
6012,1856
6013,1851
6014,1849
6015,1847
6016,1853
6017,1851
6018,1851
6019,1852
6020,1856
6021,1863
6022,1866
6023,1869
6024,1870
6025,1872
6026,1872
6027,1862
6028,1859
6029,1861
6030,1856
6031,1857
6032,1851
6033,1853
6034,1854
6035,1858
6036,1863
6037,1867
6038,1872
6039,1872
6040,1877
6041,1872
6042,1875
6043,1872
6044,1869
6045,1868
6046,1859
6047,1856
6048,1851
6049,1854
6050,1855
6051,1856
6052,1860
6053,1858
6054,1859
6055,1863
6056,1863
6057,1871
6058,1875
6059,1873
6060,1871
6061,1866
6062,1867
6063,1856
6064,1855
6065,1853
6066,1856
6067,1855
6068,1858
6069,1860
6070,1862
6071,1872
6072,1875
6073,1883
6074,1871
6075,1879
6076,1877
6077,1871
6078,1872
6079,1867
6080,1859
6081,1858
6082,1855
6083,1849
6084,1847
6085,1856
6086,1861
6087,1862
6088,1863
6089,1873
6090,1878
6091,1873
6092,1873
6093,1872
6094,1869
6095,1867
6096,1863
6097,1858
6098,1855
6099,1855
6100,1854
6101,1860
6102,1863
6103,1865
6104,1869
6105,1872
6106,1872
6107,1872
6108,1873
6109,1874
6110,1870
6111,1863
6112,1863
6113,1849
6114,1849
6115,1847
6116,1847
6117,1846
6118,1856
6119,1859
6120,1858
6121,1869
6122,1870
6123,1871
6124,1871
6125,1872
6126,1868
6127,1863
6128,1859
6129,1856
6130,1853
6131,1851
6132,1847
6133,1850
6134,1847
6135,1855
6136,1856
6137,1857
6138,1863
6139,1866
6140,1871
6141,1868
6142,1866
6143,1857
6144,1856
6145,1856
6146,1849
6147,1844
6148,1846
6149,1851
6150,1853
6151,1854
6152,1857
6153,1858
6154,1861
6155,1869
6156,1865
6157,1872
6158,1871
6159,1870
6160,1863
6161,1857
6162,1856
6163,1851
6164,1847
6165,1841
6166,1843
6167,1845
6168,1849
6169,1853
6170,1851
6171,1857
6172,1863
6173,1858
6174,1858
6175,1862
6176,1858
6177,1856
6178,1851
6179,1846
6180,1842
6181,1849
6182,1842
6183,1841
6184,1843
6185,1847
6186,1852
6187,1856
6188,1862
6189,1862
6190,1869
6191,1864
6192,1863
6193,1853
6194,1853
6195,1859
6196,1857
6197,1851
6198,1854
6199,1846
6200,1843
6201,1845
6202,1850
6203,1846
6204,1853
6205,1856
6206,1856
6207,1858
6208,1866
6209,1867
6210,1861
6211,1856
6212,1858
6213,1853
6214,1850
6215,1846
6216,1850
6217,1845
6218,1855
6219,1859
6220,1862
6221,1866
6222,1871
6223,1872
6224,1872
6225,1872
6226,1872
6227,1871
6228,1867
6229,1862
6230,1857
6231,1856
6232,1850
6233,1849
6234,1847
6235,1853
6236,1855
6237,1855
6238,1865
6239,1871
6240,1874
6241,1872
6242,1873
6243,1871
6244,1868
6245,1867
6246,1861
6247,1855
6248,1852
6249,1854
6250,1849
6251,1854
6252,1861
6253,1857
6254,1861
6255,1872
6256,1872
6257,1872
6258,1872
6259,1872
6260,1862
6261,1859
6262,1859
6263,1851
6264,1847
6265,1842
6266,1845
6267,1845
6268,1855
6269,1855
6270,1853
6271,1861
6272,1868
6273,1871
6274,1866
6275,1872
6276,1868
6277,1863
6278,1861
6279,1857
6280,1856
6281,1852
6282,1846
6283,1847
6284,1849
6285,1855
6286,1857
6287,1859
6288,1866
6289,1869
6290,1872
6291,1867
6292,1871
6293,1860
6294,1856
6295,1855
6296,1850
6297,1845
6298,1845
6299,1851
6300,1847
6301,1853
6302,1856
6303,1861
6304,1865
6305,1870
6306,1868
6307,1872
6308,1874
6309,1873
6310,1869
6311,1861
6312,1859
6313,1853
6314,1851
6315,1843
6316,1849
6317,1850
6318,1850
6319,1856
6320,1858
6321,1861
6322,1862
6323,1865
6324,1865
6325,1867
6326,1866
6327,1862
6328,1863
6329,1859
6330,1856
6331,1854
6332,1850
6333,1853
6334,1852
6335,1858
6336,1859
6337,1860
6338,1867
6339,1870
6340,1876
6341,1872
6342,1872
6343,1872
6344,1866
6345,1867
6346,1856
6347,1855
6348,1852
6349,1849
6350,1849
6351,1855
6352,1859
6353,1853
6354,1857
6355,1862
6356,1863
6357,1871
6358,1868
6359,1873
6360,1867
6361,1869
6362,1861
6363,1857
6364,1856
6365,1850
6366,1851
6367,1850
6368,1855
6369,1856
6370,1857
6371,1862
6372,1866
6373,1870
6374,1862
6375,1871
6376,1869
6377,1862
6378,1861
6379,1855
6380,1853
6381,1851
6382,1845
6383,1841
6384,1841
6385,1848
6386,1850
6387,1855
6388,1853
6389,1867
6390,1872
6391,1867
6392,1870
6393,1869
6394,1862
6395,1859
6396,1856
6397,1854
6398,1851
6399,1847
6400,1846
6401,1850
6402,1856
6403,1855
6404,1859
6405,1866
6406,1865
6407,1872
6408,1872
6409,1872
6410,1865
6411,1862
6412,1863
6413,1847
6414,1846
6415,1841
6416,1847
6417,1845
6418,1856
6419,1858
6420,1857
6421,1865
6422,1869
6423,1870
6424,1871
6425,1872
6426,1870
6427,1861
6428,1859
6429,1856
6430,1854
6431,1853
6432,1847
6433,1845
6434,1846
6435,1853
6436,1855
6437,1859
6438,1869
6439,1871
6440,1873
6441,1872
6442,1872
6443,1865
6444,1861
6445,1857
6446,1851
6447,1846
6448,1843
6449,1856
6450,1854
6451,1855
6452,1858
6453,1862
6454,1868
6455,1872
6456,1872
6457,1875
6458,1872
6459,1873
6460,1869
6461,1868
6462,1863
6463,1858
6464,1855
6465,1851
6466,1855
6467,1852
6468,1855
6469,1857
6470,1858
6471,1867
6472,1871
6473,1865
6474,1862
6475,1869
6476,1867
6477,1861
6478,1861
6479,1858
6480,1856
6481,1856
6482,1850
6483,1851
6484,1851
6485,1856
6486,1862
6487,1862
6488,1871
6489,1870
6490,1873
6491,1872
6492,1872
6493,1872
6494,1866
6495,1867
6496,1859
6497,1856
6498,1855
6499,1853
6500,1852
6501,1857
6502,1856
6503,1857
6504,1859
6505,1871
6506,1863
6507,1872
6508,1877
6509,1879
6510,1871
6511,1863
6512,1857
6513,1846
6514,1842
6515,1843
6516,1856
6517,1849
6518,1851
6519,1855
6520,1859
6521,1872
6522,1874
6523,1875
6524,1876
6525,1881
6526,1872
6527,1871
6528,1869
6529,1862
6530,1859
6531,1857
6532,1855
6533,1847
6534,1845
6535,1853
6536,1856
6537,1855
6538,1863
6539,1872
6540,1872
6541,1869
6542,1872
6543,1871
6544,1867
6545,1866
6546,1858
6547,1857
6548,1854
6549,1855
6550,1850
6551,1856
6552,1858
6553,1861
6554,1867
6555,1869
6556,1870
6557,1872
6558,1872
6559,1872
6560,1871
6561,1860
6562,1863
6563,1852
6564,1846
6565,1843
6566,1847
6567,1843
6568,1850
6569,1857
6570,1856
6571,1867
6572,1869
6573,1871
6574,1873
6575,1873
6576,1873
6577,1869
6578,1867
6579,1861
6580,1856
6581,1856
6582,1848
6583,1852
6584,1851
6585,1857
6586,1859
6587,1859
6588,1869
6589,1871
6590,1873
6591,1873
6592,1874
6593,1863
6594,1863
6595,1859
6596,1855
6597,1850
6598,1849
6599,1847
6600,1851
6601,1850
6602,1855
6603,1858
6604,1863
6605,1869
6606,1869
6607,1871
6608,1872
6609,1872
6610,1866
6611,1865
6612,1863
6613,1857
6614,1857
6615,1851
6616,1856
6617,1855
6618,1854
6619,1856
6620,1859
6621,1865
6622,1867
6623,1870
6624,1870
6625,1872
6626,1865
6627,1863
6628,1859
6629,1859
6630,1857
6631,1856
6632,1850
6633,1850
6634,1853
6635,1857
6636,1859
6637,1861
6638,1869
6639,1872
6640,1875
6641,1874
6642,1872
6643,1872
6644,1869
6645,1867
6646,1859
6647,1855
6648,1854
6649,1854
6650,1851
6651,1852
6652,1859
6653,1855
6654,1857
6655,1862
6656,1863
6657,1872
6658,1877
6659,1873
6660,1871
6661,1867
6662,1865
6663,1857
6664,1858
6665,1849
6666,1856
6667,1856
6668,1856
6669,1857
6670,1859
6671,1867
6672,1872
6673,1873
6674,1872
6675,1877
6676,1873
6677,1870
6678,1870
6679,1863
6680,1856
6681,1853
6682,1843
6683,1840
6684,1840
6685,1847
6686,1853
6687,1855
6688,1861
6689,1870
6690,1872
6691,1872
6692,1872
6693,1871
6694,1869
6695,1869
6696,1859
6697,1858
6698,1855
6699,1853
6700,1847
6701,1854
6702,1858
6703,1861
6704,1867
6705,1871
6706,1872
6707,1875
6708,1872
6709,1875
6710,1870
6711,1863
6712,1862
6713,1850
6714,1843
6715,1840
6716,1843
6717,1841
6718,1850
6719,1857
6720,1859
6721,1870
6722,1872
6723,1872
6724,1872
6725,1872
6726,1872
6727,1866
6728,1859
6729,1855
6730,1853
6731,1855
6732,1850
6733,1852
6734,1853
6735,1856
6736,1859
6737,1861
6738,1867
6739,1869
6740,1874
6741,1872
6742,1872
6743,1866
6744,1865
6745,1861
6746,1854
6747,1855
6748,1847
6749,1854
6750,1855
6751,1857
6752,1863
6753,1863
6754,1868
6755,1872
6756,1872
6757,1874
6758,1875
6759,1871
6760,1865
6761,1860
6762,1863
6763,1856
6764,1855
6765,1853
6766,1856
6767,1855
6768,1855
6769,1857
6770,1856
6771,1861
6772,1868
6773,1858
6774,1859
6775,1864
6776,1862
6777,1857
6778,1856
6779,1857
6780,1855
6781,1854
6782,1851
6783,1853
6784,1851
6785,1855
6786,1857
6787,1860
6788,1868
6789,1871
6790,1873
6791,1872
6792,1872
6793,1866
6794,1867
6795,2387
6796,1244
6797,1908
6798,1995
6799,1981
6800,1968
6801,1970
6802,1968
6803,1984
6804,2026
6805,1949
6806,1828
6807,1786
6808,1814
6809,1853
6810,1877
6811,1891
6812,1901
6813,1885
6814,1872
6815,1856
6816,1840
6817,1815
6818,1815
6819,1821
6820,1835
6821,1855
6822,1866
6823,1872
6824,1873
6825,1878
6826,1955
6827,930
6828,1851
6829,2009
6830,1993
6831,1984
6832,1974
6833,1958
6834,2013
6835,2046
6836,1931
6837,1808
6838,1787
6839,1835
6840,1877
6841,1906
6842,1920
6843,1917
6844,1899
6845,1875
6846,1845
6847,1812
6848,1805
6849,1807
6850,1811
6851,1830
6852,1845
6853,1856
6854,1858
6855,1868
6856,1872
6857,1879
6858,704
6859,1776
6860,2006
6861,2018
6862,2003
6863,1975
6864,1963
6865,2030
6866,2013
6867,1904
6868,1813
6869,1807
6870,1846
6871,1898
6872,1925
6873,1936
6874,1935
6875,1905
6876,1887
6877,1854
6878,1825
6879,1818
6880,1824
6881,1840
6882,1841
6883,1846
6884,1849
6885,1861
6886,1869
6887,1872
6888,1882
6889,907
6890,1562
6891,1990
6892,2041
6893,2017
6894,1990
6895,1968
6896,2036
6897,2029
6898,1916
6899,1808
6900,1791
6901,1841
6902,1893
6903,1920
6904,1925
6905,1924
6906,1904
6907,1878
6908,1842
6909,1826
6910,1819
6911,1833
6912,1842
6913,1844
6914,1850
6915,1850
6916,1854
6917,1855
6918,1857
6919,1861
6920,2022
6921,1325
6922,1939
6923,2034
6924,2035
6925,2006
6926,1983
6927,2060
6928,2026
6929,1899
6930,1801
6931,1776
6932,1808
6933,1850
6934,1879
6935,1901
6936,1901
6937,1885
6938,1861
6939,1838
6940,1827
6941,1837
6942,1856
6943,1859
6944,1863
6945,1859
6946,1849
6947,1846
6948,1850
6949,1856
6950,1855
6951,2003
6952,891
6953,1850
6954,2043
6955,2071
6956,2039
6957,2012
6958,2096
6959,2069
6960,1946
6961,1837
6962,1791
6963,1801
6964,1842
6965,1874
6966,1894
6967,1894
6968,1882
6969,1859
6970,1835
6971,1835
6972,1845
6973,1863
6974,1873
6975,1877
6976,1879
6977,1879
6978,1881
6979,1880
6980,1878
6981,1873
6982,1871
6983,561
6984,1728
6985,2027
6986,2077
6987,2045
6988,2006
6989,2087
6990,2087
6991,1973
6992,1856
6993,1785
6994,1786
6995,1829
6996,1857
6997,1877
6998,1888
6999,1878
7000,1848
7001,1821
7002,1821
7003,1838
7004,1847
7005,1863
7006,1872
7007,1874
7008,1875
7009,1877
7010,1874
7011,1872
7012,1870
7013,1853
7014,639
7015,1520
7016,1979
7017,2061
7018,2046
7019,2000
7020,2070
7021,2091
7022,1991
7023,1872
7024,1793
7025,1785
7026,1821
7027,1850
7028,1872
7029,1882
7030,1878
7031,1851
7032,1814
7033,1808
7034,1816
7035,1838
7036,1856
7037,1863
7038,1872
7039,1874
7040,1882
7041,1882
7042,1882
7043,1872
7044,1872
7045,2084
7046,1235
7047,1937
7048,2079
7049,2070
7050,2010
7051,2076
7052,2086
7053,1986
7054,1874
7055,1795
7056,1776
7057,1815
7058,1853
7059,1883
7060,1905
7061,1901
7062,1872
7063,1834
7064,1822
7065,1820
7066,1838
7067,1851
7068,1862
7069,1862
7070,1867
7071,1873
7072,1879
7073,1878
7074,1878
7075,1883
7076,2097
7077,875
7078,1867
7079,2079
7080,2096
7081,2028
7082,2080
7083,2095
7084,1999
7085,1891
7086,1794
7087,1759
7088,1797
7089,1839
7090,1883
7091,1909
7092,1904
7093,1881
7094,1849
7095,1838
7096,1833
7097,1840
7098,1850
7099,1856
7100,1859
7101,1867
7102,1870
7103,1865
7104,1871
7105,1872
7106,1873
7107,1875
7108,569
7109,1789
7110,2080
7111,2112
7112,2039
7113,2070
7114,2105
7115,2015
7116,1901
7117,1789
7118,1735
7119,1771
7120,1810
7121,1861
7122,1902
7123,1904
7124,1886
7125,1858
7126,1835
7127,1837
7128,1845
7129,1852
7130,1856
7131,1861
7132,1856
7133,1856
7134,1856
7135,1863
7136,1866
7137,1871
7138,1871
7139,386
7140,1613
7141,2065
7142,2138
7143,2079
7144,2078
7145,2126
7146,2047
7147,1939
7148,1809
7149,1722
7150,1750
7151,1797
7152,1841
7153,1879
7154,1904
7155,1894
7156,1869
7157,1853
7158,1847
7159,1859
7160,1865
7161,1871
7162,1869
7163,1852
7164,1858
7165,1857
7166,1859
7167,1857
7168,1862
7169,1867
7170,1472
7171,1328
7172,2015
7173,2142
7174,2096
7175,2075
7176,2130
7177,2081
7178,1986
7179,1859
7180,1742
7181,1745
7182,1791
7183,1821
7184,1865
7185,1894
7186,1885
7187,1855
7188,1840
7189,1840
7190,1859
7191,1867
7192,1875
7193,1872
7194,1872
7195,1872
7196,1866
7197,1864
7198,1862
7199,1863
7200,1866
7201,2226
7202,938
7203,1925
7204,2128
7205,2115
7206,2063
7207,2134
7208,2123
7209,2029
7210,1887
7211,1743
7212,1747
7213,1781
7214,1805
7215,1841
7216,1878
7217,1878
7218,1851
7219,1831
7220,1824
7221,1840
7222,1856
7223,1867
7224,1872
7225,1877
7226,1877
7227,1874
7228,1874
7229,1870
7230,1871
7231,1870
7232,1863
7233,442
7234,1757
7235,2095
7236,2115
7237,2047
7238,2101
7239,2138
7240,2091
7241,1948
7242,1775
7243,1744
7244,1782
7245,1815
7246,1845
7247,1873
7248,1883
7249,1863
7250,1831
7251,1824
7252,1839
7253,1845
7254,1856
7255,1871
7256,1874
7257,1882
7258,1893
7259,1889
7260,1881
7261,1878
7262,1874
7263,1869
7264,320
7265,1613
7266,2063
7267,2114
7268,2055
7269,2081
7270,2133
7271,2099
7272,1950
7273,1749
7274,1724
7275,1774
7276,1811
7277,1859
7278,1891
7279,1893
7280,1870
7281,1841
7282,1821
7283,1820
7284,1834
7285,1850
7286,1857
7287,1862
7288,1871
7289,1882
7290,1887
7291,1883
7292,1878
7293,1877
7294,1880
7295,1161
7296,1350
7297,2017
7298,2128
7299,2080
7300,2063
7301,2151
7302,2133
7303,1976
7304,1766
7305,1719
7306,1771
7307,1811
7308,1858
7309,1889
7310,1893
7311,1878
7312,1846
7313,1817
7314,1818
7315,1832
7316,1840
7317,1849
7318,1856
7319,1872
7320,1872
7321,1878
7322,1884
7323,1885
7324,1883
7325,1884
7326,2202
7327,893
7328,1918
7329,2128
7330,2109
7331,2034
7332,2123
7333,2147
7334,2005
7335,1777
7336,1702
7337,1760
7338,1805
7339,1856
7340,1893
7341,1903
7342,1895
7343,1858
7344,1835
7345,1834
7346,1837
7347,1840
7348,1850
7349,1854
7350,1865
7351,1871
7352,1874
7353,1877
7354,1879
7355,1884
7356,1882
7357,1887
7358,478
7359,1801
7360,2119
7361,2131
7362,2061
7363,2116
7364,2173
7365,2055
7366,1807
7367,1692
7368,1747
7369,1791
7370,1840
7371,1886
7372,1895
7373,1886
7374,1862
7375,1840
7376,1830
7377,1837
7378,1844
7379,1847
7380,1862
7381,1865
7382,1863
7383,1867
7384,1871
7385,1875
7386,1875
7387,1877
7388,1882
7389,290
7390,1616
7391,2097
7392,2155
7393,2081
7394,2106
7395,2192
7396,2109
7397,1845
7398,1691
7399,1733
7400,1775
7401,1820
7402,1872
7403,1886
7404,1891
7405,1874
7406,1843
7407,1837
7408,1847
7409,1862
7410,1867
7411,1866
7412,1872
7413,1872
7414,1872
7415,1867
7416,1869
7417,1866
7418,1871
7419,1869
7420,1869
7421,1873
7422,1874
7423,1875
7424,1872
7425,1877
7426,1872
7427,1871
7428,1867
7429,1860
7430,1857
7431,1855
7432,1848
7433,1843
7434,1843
7435,1853
7436,1854
7437,1856
7438,1862
7439,1861
7440,1872
7441,1872
7442,1872
7443,1867
7444,1865
7445,1861
7446,1855
7447,1854
7448,1851
7449,1852
7450,1847
7451,1855
7452,1858
7453,1859
7454,1866
7455,1872
7456,1872
7457,1873
7458,1873
7459,1872
7460,1869
7461,1865
7462,1863
7463,1850
7464,1847
7465,1841
7466,1843
7467,1853
7468,1856
7469,1858
7470,1857
7471,1867
7472,1866
7473,1872
7474,1872
7475,1867
7476,1872
7477,1864
7478,1862
7479,1859
7480,1858
7481,1857
7482,1855
7483,1852
7484,1851
7485,1856
7486,1859
7487,1859
7488,1866
7489,1871
7490,1872
7491,1871
7492,1872
7493,1861
7494,1859
7495,1857
7496,1853
7497,1853
7498,1847
7499,1853
7500,1853
7501,1855
7502,1859
7503,1856
7504,1863
7505,1868
7506,1870
7507,1873
7508,1872
7509,1872
7510,1867
7511,1859
7512,1859
7513,1857
7514,1855
7515,1850
7516,1853
7517,1853
7518,1856
7519,1850
7520,1846
7521,1857
7522,1861
7523,1866
7524,1869
7525,1870
7526,1861
7527,1860
7528,1855
7529,1851
7530,1851
7531,1850
7532,1850
7533,1850
7534,1851
7535,1855
7536,1859
7537,1861
7538,1868
7539,1872
7540,1871
7541,1871
7542,1872
7543,1872
7544,1867
7545,1862
7546,1859
7547,1852
7548,1855
7549,1853
7550,1853
7551,1856
7552,1859
7553,1855
7554,1859
7555,1862
7556,1862
7557,1867
7558,1872
7559,1869
7560,1864
7561,1862
7562,1859
7563,1854
7564,1851
7565,1847
7566,1849
7567,1847
7568,1853
7569,1856
7570,1857
7571,1865
7572,1869
7573,1871
7574,1870
7575,1871
7576,1872
7577,1867
7578,1860
7579,1855
7580,1849
7581,1845
7582,1842
7583,1840
7584,1839
7585,1842
7586,1846
7587,1849
7588,1852
7589,1855
7590,1865
7591,1861
7592,1871
7593,1869
7594,1862
7595,1861
7596,1856
7597,1857
7598,1854
7599,1854
7600,1849
7601,1853
7602,1856
7603,1862
7604,1866
7605,1869
7606,1863
7607,1869
7608,1866
7609,1866
7610,1864
7611,1860
7612,1856
7613,1843
7614,1843
7615,1840
7616,1850
7617,1853
7618,1857
7619,1862
7620,1863
7621,1872
7622,1873
7623,1874
7624,1876
7625,1877
7626,1874
7627,1867
7628,1862
7629,1861
7630,1856
7631,1855
7632,1847
7633,1851
7634,1846
7635,1855
7636,1857
7637,1860
7638,1866
7639,1866
7640,1871
7641,1867
7642,1869
7643,1857
7644,1852
7645,1853
7646,1844
7647,1840
7648,1839
7649,1839
7650,1840
7651,1843
7652,1849
7653,1851
7654,1857
7655,1860
7656,1859
7657,1867
7658,1867
7659,1869
7660,1865
7661,1862
7662,1867
7663,1857
7664,1853
7665,1845
7666,1850
7667,1850
7668,1855
7669,1861
7670,1862
7671,1869
7672,1869
7673,1865
7674,1869
7675,1869
7676,1865
7677,1861
7678,1861
7679,1861
7680,1856
7681,1856
7682,1853
7683,1855
7684,1853
7685,1858
7686,1863
7687,1860
7688,1867
7689,1870
7690,1872
7691,1872
7692,1875
7693,1869
7694,1869
7695,1870
7696,1861
7697,1857
7698,1856
7699,1859
7700,1856
7701,1859
7702,1866
7703,1860
7704,1866
7705,1867
7706,1870
7707,1874
7708,1878
7709,1879
7710,1873
7711,1872
7712,1869
7713,1862
7714,1864
7715,1858
7716,1862
7717,1860
7718,1866
7719,1867
7720,1870
7721,1873
7722,1877
7723,1878
7724,1879
7725,1879
7726,1876
7727,1872
7728,1870
7729,1862
7730,1857
7731,1862
7732,1858
7733,1855
7734,1856
7735,1862
7736,1863
7737,1860
7738,1869
7739,1870
7740,1883
7741,1879
7742,1879
7743,1876
7744,1874
7745,1871
7746,1866
7747,1860
7748,1857
7749,1858
7750,1855
7751,1859
7752,1861
7753,1865
7754,1869
7755,1870
7756,1871
7757,1872
7758,1872
7759,1870
7760,1863
7761,1859
7762,1856
7763,1845
7764,1842
7765,1839
7766,1840
7767,1840
7768,1852
7769,1851
7770,1856
7771,1859
7772,1866
7773,1867
7774,1866
7775,1869
7776,1860
7777,1856
7778,1856
7779,1851
7780,1847
7781,1851
7782,1842
7783,1840
7784,1843
7785,1849
7786,1854
7787,1854
7788,1858
7789,1862
7790,1869
7791,1866
7792,1867
7793,1856
7794,1854
7795,1855
7796,1849
7797,1846
7798,1840
7799,1847
7800,1847
7801,1854
7802,1856
7803,1859
7804,1862
7805,1867
7806,1869
7807,1872
7808,1873
7809,1874
7810,1871
7811,1867
7812,1867
7813,1857
7814,1856
7815,1851
7816,1853
7817,1854
7818,1853
7819,1854
7820,1853
7821,1863
7822,1869
7823,1867
7824,1870
7825,1869
7826,1865
7827,1859
7828,1856
7829,1852
7830,1856
7831,1854
7832,1847
7833,1849
7834,1850
7835,1856
7836,1857
7837,1858
7838,1867
7839,1868
7840,1872
7841,1867
7842,1869
7843,1865
7844,1859
7845,1860
7846,1856
7847,1851
7848,1853
7849,1851
7850,1846
7851,1854
7852,1859
7853,1855
7854,1856
7855,1860
7856,1862
7857,1866
7858,1872
7859,1872
7860,1866
7861,1863
7862,1865
7863,1858
7864,1854
7865,1849
7866,1855
7867,1854
7868,1856
7869,1858
7870,1861
7871,1868
7872,1871
7873,1872
7874,1872
7875,1871
7876,1871
7877,1862
7878,1860
7879,1856
7880,1855
7881,1856
7882,1847
7883,1842
7884,1842
7885,1846
7886,1851
7887,1854
7888,1856
7889,1865
7890,1870
7891,1867
7892,1869
7893,1868
7894,1863
7895,1860
7896,1852
7897,1850
7898,1850
7899,1850
7900,1850
7901,1854
7902,1857
7903,1859
7904,1866
7905,1865
7906,1865
7907,1872
7908,1870
7909,1870
7910,1867
7911,1861
7912,1860
7913,1845
7914,1843
7915,1840
7916,1840
7917,1840
7918,1855
7919,1856
7920,1858
7921,1867
7922,1871
7923,1870
7924,1870
7925,1872
7926,1872
7927,1866
7928,1861
7929,1859
7930,1855
7931,1855
7932,1851
7933,1847
7934,1850
7935,1856
7936,1861
7937,1862
7938,1869
7939,1871
7940,1873
7941,1871
7942,1870
7943,1858
7944,1857
7945,1857
7946,1850
7947,1846
7948,1843
7949,1843
7950,1847
7951,1852
7952,1857
7953,1858
7954,1863
7955,1870
7956,1871
7957,1873
7958,1872
7959,1872
7960,1866
7961,1864
7962,1858
7963,1851
7964,1850
7965,1846
7966,1853
7967,1853
7968,1856
7969,1861
7970,1861
7971,1869
7972,1872
7973,1867
7974,1866
7975,1870
7976,1867
7977,1865
7978,1858
7979,1860
7980,1856
7981,1856
7982,1850
7983,1853
7984,1853
7985,1856
7986,1861
7987,1859
7988,1867
7989,1867
7990,1872
7991,1869
7992,1870
7993,1868
7994,1863
7995,1861
7996,1856
7997,1854
7998,1853
7999,1850
8000,1851
8001,1853
8002,1856
8003,1854
8004,1857
8005,1863
8006,1860
8007,1866
8008,1871
8009,1871
8010,1866
8011,1861
8012,1862
8013,1857
8014,1856
8015,1851
8016,1856
8017,1855
8018,1857
8019,1858
8020,1859
8021,1867
8022,1871
8023,1871
8024,1869
8025,1872
8026,1869
8027,1865
8028,1861
8029,1859
8030,1854
8031,1852
8032,1849
8033,1843
8034,1844
8035,1852
8036,1857
8037,1856
8038,1857
8039,1859
8040,1870
8041,1869
8042,1871
8043,1868
8044,1866
8045,1866
8046,1862
8047,1859
8048,1856
8049,1855
8050,1851
8051,1855
8052,1859
8053,1860
8054,1867
8055,1867
8056,1871
8057,1872
8058,1872
8059,1872
8060,1863
8061,1859
8062,1859
8063,1851
8064,1850
8065,1843
8066,1847
8067,1849
8068,1856
8069,1857
8070,1857
8071,1865
8072,1868
8073,1867
8074,1871
8075,1872
8076,1870
8077,1863
8078,1861
8079,1856
8080,1854
8081,1855
8082,1847
8083,1846
8084,1850
8085,1855
8086,1858
8087,1857
8088,1863
8089,1867
8090,1872
8091,1870
8092,1872
8093,1862
8094,1857
8095,1858
8096,1851
8097,1851
8098,1845
8099,1855
8100,1847
8101,1853
8102,1858
8103,1860
8104,1865
8105,1869
8106,1871
8107,1872
8108,1872
8109,1872
8110,1862
8111,1861
8112,1859
8113,1856
8114,1854
8115,1846
8116,1851
8117,1853
8118,1846
8119,1846
8120,1851
8121,1857
8122,1862
8123,1863
8124,1862
8125,1869
8126,1865
8127,1857
8128,1857
8129,1854
8130,1854
8131,1852
8132,1847
8133,1845
8134,1847
8135,1856
8136,1858
8137,1858
8138,1869
8139,1871
8140,1874
8141,1872
8142,1872
8143,1872
8144,1866
8145,1861
8146,1853
8147,1849
8148,1850
8149,1853
8150,1847
8151,1851
8152,1857
8153,1854
8154,1858
8155,1861
8156,1862
8157,1867
8158,1872
8159,1872
8160,1868
8161,1865
8162,1863
8163,1856
8164,1852
8165,1847
8166,1853
8167,1850
8168,1854
8169,1857
8170,1861
8171,1866
8172,1871
8173,1871
8174,1870
8175,1872
8176,1872
8177,1866
8178,1862
8179,1861
8180,1856
8181,1855
8182,1851
8183,1841
8184,1842
8185,1850
8186,1855
8187,1856
8188,1862
8189,1872
8190,1873
8191,1872
8192,1872
8193,1871
8194,1869
8195,1861
8196,1856
8197,1853
8198,1849
8199,1850
8200,1845
8201,1851
8202,1855
8203,1859
8204,1863
8205,1868
8206,1868
8207,1872
8208,1872
8209,1872
8210,1865
8211,1863
8212,1862
8213,1854
8214,1852
8215,1842
8216,1847
8217,1845
8218,1846
8219,1856
8220,1857
8221,1867
8222,1871
8223,1872
8224,1872
8225,1872
8226,1871
8227,1865
8228,1862
8229,1857
8230,1855
8231,1856
8232,1851
8233,1850
8234,1853
8235,1856
8236,1861
8237,1861
8238,1867
8239,1867
8240,1872
8241,1872
8242,1871
8243,1859
8244,1859
8245,1857
8246,1854
8247,1847
8248,1847
8249,1846
8250,1851
8251,1856
8252,1858
8253,1862
8254,1866
8255,1866
8256,1872
8257,1872
8258,1872
8259,1872
8260,1868
8261,1866
8262,1866
8263,1857
8264,1856
8265,1851
8266,1854
8267,1853
8268,1857
8269,1857
8270,1858
8271,1866
8272,1872
8273,1866
8274,1863
8275,1871
8276,1864
8277,1858
8278,1857
8279,1857
8280,1856
8281,1854
8282,1847
8283,1850
8284,1849
8285,1856
8286,1859
8287,1862
8288,1865
8289,1866
8290,1872
8291,1871
8292,1872
8293,1868
8294,1862
8295,1863
8296,1857
8297,1855
8298,1853
8299,1854
8300,1851
8301,1856
8302,1858
8303,1856
8304,1861
8305,1863
8306,1863
8307,1867
8308,1872
8309,1872
8310,1861
8311,1858
8312,1859
8313,1854
8314,1853
8315,1845
8316,1855
8317,1850
8318,1856
8319,1857
8320,1857
8321,1866
8322,1870
8323,1872
8324,1872
8325,1873
8326,1872
8327,1867
8328,1862
8329,1856
8330,1855
8331,1855
8332,1851
8333,1841
8334,1846
8335,1851
8336,1851
8337,1856
8338,1868
8339,1872
8340,1873
8341,1872
8342,1872
8343,1872
8344,1867
8345,1865
8346,1858
8347,1854
8348,1854
8349,1851
8350,1847
8351,1854
8352,1856
8353,1857
8354,1859
8355,1865
8356,1865
8357,1871
8358,1872
8359,1872
8360,1867
8361,1862
8362,1861
8363,1852
8364,1845
8365,1842
8366,1843
8367,1843
8368,1846
8369,1847
8370,1857
8371,1863
8372,1867
8373,1871
8374,1870
8375,1874
8376,1871
8377,1862
8378,1860
8379,1856
8380,1856
8381,1855
8382,1847
8383,1850
8384,1851
8385,1853
8386,1859
8387,1856
8388,1865
8389,1867
8390,1872
8391,1869
8392,1872
8393,1863
8394,1859
8395,1858
8396,1853
8397,1848
8398,1845
8399,1851
8400,1853
8401,1854
8402,1856
8403,1859
8404,1863
8405,1871
8406,1870
8407,1872
8408,1873
8409,1873
8410,1869
8411,1863
8412,1862
8413,1856
8414,1854
8415,1849
8416,1841
8417,1851
8418,1847
8419,1852
8420,655
8421,1765
8422,2000
8423,2004
8424,1989
8425,1995
8426,1981
8427,1975
8428,2026
8429,1986
8430,1857
8431,1770
8432,1771
8433,1808
8434,1850
8435,1882
8436,1904
8437,1903
8438,1899
8439,1889
8440,1877
8441,1842
8442,1833
8443,1827
8444,1838
8445,1849
8446,1855
8447,1853
8448,1855
8449,1858
8450,1857
8451,605
8452,1648
8453,2001
8454,2039
8455,2026
8456,2013
8457,1991
8458,2021
8459,2069
8460,1971
8461,1838
8462,1773
8463,1786
8464,1827
8465,1869
8466,1895
8467,1902
8468,1897
8469,1882
8470,1867
8471,1839
8472,1826
8473,1831
8474,1840
8475,1855
8476,1858
8477,1856
8478,1859
8479,1861
8480,1861
8481,1859
8482,1498
8483,1397
8484,1956
8485,2038
8486,2032
8487,2018
8488,1989
8489,2033
8490,2075
8491,1974
8492,1842
8493,1776
8494,1795
8495,1847
8496,1882
8497,1903
8498,1907
8499,1899
8500,1876
8501,1858
8502,1829
8503,1817
8504,1828
8505,1843
8506,1851
8507,1869
8508,1873
8509,1878
8510,1874
8511,1874
8512,1875
8513,2159
8514,1001
8515,1872
8516,2032
8517,2041
8518,2031
8519,1983
8520,2038
8521,2082
8522,1975
8523,1840
8524,1776
8525,1806
8526,1855
8527,1890
8528,1904
8529,1911
8530,1898
8531,1874
8532,1840
8533,1808
8534,1808
8535,1824
8536,1840
8537,1851
8538,1859
8539,1868
8540,1875
8541,1875
8542,1879
8543,1868
8544,1867
8545,653
8546,1771
8547,2022
8548,2064
8549,2039
8550,1981
8551,2046
8552,2067
8553,1963
8554,1837
8555,1767
8556,1784
8557,1840
8558,1883
8559,1904
8560,1910
8561,1902
8562,1873
8563,1834
8564,1809
8565,1808
8566,1821
8567,1831
8568,1840
8569,1847
8570,1851
8571,1859
8572,1867
8573,1869
8574,1869
8575,1872
8576,570
8577,1606
8578,2000
8579,2066
8580,2046
8581,1984
8582,2060
8583,2069
8584,1965
8585,1855
8586,1775
8587,1759
8588,1810
8589,1858
8590,1896
8591,1919
8592,1910
8593,1882
8594,1846
8595,1830
8596,1831
8597,1840
8598,1842
8599,1851
8600,1851
8601,1858
8602,1863
8603,1865
8604,1872
8605,1873
8606,1874
8607,1626
8608,1371
8609,1981
8610,2096
8611,2082
8612,2006
8613,2079
8614,2096
8615,1980
8616,1862
8617,1776
8618,1747
8619,1799
8620,1840
8621,1872
8622,1908
8623,1907
8624,1881
8625,1853
8626,1837
8627,1836
8628,1841
8629,1851
8630,1863
8631,1870
8632,1861
8633,1850
8634,1856
8635,1861
8636,1862
8637,1867
8638,2261
8639,1074
8640,1925
8641,2098
8642,2100
8643,2032
8644,2102
8645,2107
8646,1999
8647,1878
8648,1788
8649,1747
8650,1777
8651,1809
8652,1841
8653,1880
8654,1894
8655,1873
8656,1843
8657,1833
8658,1840
8659,1855
8660,1858
8661,1863
8662,1862
8663,1856
8664,1855
8665,1855
8666,1855
8667,1855
8668,1862
8669,1865
8670,578
8671,1786
8672,2071
8673,2109
8674,2039
8675,2086
8676,2118
8677,2032
8678,1905
8679,1801
8680,1737
8681,1766
8682,1806
8683,1850
8684,1882
8685,1889
8686,1873
8687,1844
8688,1831
8689,1838
8690,1852
8691,1859
8692,1872
8693,1865
8694,1866
8695,1867
8696,1863
8697,1862
8698,1862
8699,1867
8700,1866
8701,398
8702,1612
8703,2034
8704,2111
8705,2063
8706,2077
8707,2138
8708,2069
8709,1959
8710,1847
8711,1745
8712,1751
8713,1791
8714,1831
8715,1872
8716,1886
8717,1872
8718,1850
8719,1830
8720,1824
8721,1840
8722,1858
8723,1869
8724,1872
8725,1874
8726,1873
8727,1874
8728,1878
8729,1872
8730,1876
8731,1874
8732,960
8733,1401
8734,2000
8735,2110
8736,2077
8737,2064
8738,2137
8739,2091
8740,1995
8741,1879
8742,1749
8743,1746
8744,1781
8745,1826
8746,1879
8747,1895
8748,1885
8749,1861
8750,1840
8751,1838
8752,1850
8753,1854
8754,1869
8755,1872
8756,1871
8757,1872
8758,1881
8759,1882
8760,1879
8761,1877
8762,1874
8763,2238
8764,976
8765,1917
8766,2099
8767,2091
8768,2032
8769,2110
8770,2109
8771,2032
8772,1906
8773,1759
8774,1757
8775,1807
8776,1845
8777,1889
8778,1904
8779,1894
8780,1871
8781,1843
8782,1837
8783,1835
8784,1845
8785,1858
8786,1863
8787,1863
8788,1872
8789,1882
8790,1885
8791,1878
8792,1878
8793,1874
8794,1898
8795,640
8796,1835
8797,2102
8798,2112
8799,2045
8800,2109
8801,2124
8802,2030
8803,1888
8804,1744
8805,1742
8806,1789
8807,1831
8808,1885
8809,1914
8810,1903
8811,1878
8812,1849
8813,1831
8814,1838
8815,1840
8816,1853
8817,1858
8818,1868
8819,1873
8820,1874
8821,1878
8822,1882
8823,1882
8824,1883
8825,1882
8826,299
8827,1678
8828,2097
8829,2150
8830,2084
8831,2112
8832,2166
8833,2083
8834,1899
8835,1733
8836,1724
8837,1775
8838,1803
8839,1840
8840,1887
8841,1899
8842,1879
8843,1842
8844,1834
8845,1840
8846,1847
8847,1854
8848,1860
8849,1868
8850,1872
8851,1875
8852,1878
8853,1879
8854,1885
8855,1889
8856,1888
8857,727
8858,1446
8859,2053
8860,2155
8861,2103
8862,2096
8863,2174
8864,2117
8865,1943
8866,1771
8867,1726
8868,1771
8869,1794
8870,1836
8871,1886
8872,1902
8873,1883
8874,1857
8875,1842
8876,1843
8877,1853
8878,1863
8879,1877
8880,1875
8881,1872
8882,1871
8883,1872
8884,1873
8885,1877
8886,1872
8887,1875
8888,2260
8889,1091
8890,1972
8891,2148
8892,2122
8893,2074
8894,2159
8895,2143
8896,1994
8897,1797
8898,1721
8899,1761
8900,1783
8901,1828
8902,1870
8903,1877
8904,1873
8905,1851
8906,1839
8907,1847
8908,1859
8909,1872
8910,1870
8911,1872
8912,1873
8913,1872
8914,1872
8915,1869
8916,1869
8917,1871
8918,1871
8919,1941
8920,655
8921,1863
8922,2141
8923,2149
8924,2078
8925,2146
8926,2170
8927,2036
8928,1814
8929,1712
8930,1754
8931,1781
8932,1822
8933,1854
8934,1871
8935,1874
8936,1856
8937,1837
8938,1839
8939,1847
8940,1866
8941,1873
8942,1883
8943,1883
8944,1879
8945,1880
8946,1875
8947,1873
8948,1872
8949,1872
8950,1869
8951,245
8952,1651
8953,2090
8954,2151
8955,2083
8956,2115
8957,2192
8958,2098
8959,1873
8960,1728
8961,1745
8962,1778
8963,1808
8964,1856
8965,1870
8966,1872
8967,1856
8968,1841
8969,1839
8970,1845
8971,1857
8972,1868
8973,1875
8974,1875
8975,1882
8976,1882
8977,1881
8978,1879
8979,1878
8980,1872
8981,1872
8982,526
8983,1456
8984,2066
8985,2165
8986,2109
8987,2103
8988,2187
8989,2118
8990,1897
8991,1722
8992,1737
8993,1770
8994,1808
8995,1859
8996,1873
8997,1878
8998,1861
8999,1841
9000,1831
9001,1839
9002,1853
9003,1859
9004,1871
9005,1876
9006,1877
9007,1885
9008,1885
9009,1885
9010,1882
9011,1877
9012,1874
9013,2253
9014,1015
9015,1968
9016,2151
9017,2123
9018,2065
9019,2165
9020,2161
9021,1968
9022,1734
9023,1710
9024,1760
9025,1803
9026,1859
9027,1879
9028,1883
9029,1870
9030,1851
9031,1834
9032,1830
9033,1841
9034,1852
9035,1865
9036,1872
9037,1875
9038,1883
9039,1883
9040,1888
9041,1889
9042,1887
9043,1886
9044,1878
9045,1874
9046,1870
9047,1869
9048,1870
9049,1867
9050,1863
9051,1867
9052,1869
9053,1860
9054,1862
9055,1861
9056,1863
9057,1868
9058,1865
9059,1863
9060,1865
9061,1861
9062,1861
9063,1858
9064,1856
9065,1856
9066,1859
9067,1861
9068,1861
9069,1863
9070,1865
9071,1870
9072,1870
9073,1874
9074,1871
9075,1872
9076,1871
9077,1867
9078,1865
9079,1859
9080,1859
9081,1860
9082,1856
9083,1854
9084,1852
9085,1855
9086,1855
9087,1858
9088,1859
9089,1861
9090,1870
9091,1869
9092,1869
9093,1868
9094,1865
9095,1867
9096,1861
9097,1858
9098,1856
9099,1856
9100,1856
9101,1856
9102,1856
9103,1861
9104,1860
9105,1869
9106,1866
9107,1867
9108,1870
9109,1870
9110,1867
9111,1861
9112,1861
9113,1855
9114,1854
9115,1850
9116,1850
9117,1847
9118,1856
9119,1856
9120,1861
9121,1861
9122,1865
9123,1866
9124,1866
9125,1865
9126,1866
9127,1863
9128,1862
9129,1858
9130,1858
9131,1859
9132,1856
9133,1854
9134,1854
9135,1853
9136,1856
9137,1855
9138,1858
9139,1854
9140,1856
9141,1858
9142,1860
9143,1851
9144,1853
9145,1853
9146,1849
9147,1846
9148,1842
9149,1840
9150,1851
9151,1850
9152,1854
9153,1855
9154,1859
9155,1861
9156,1862
9157,1866
9158,1866
9159,1868
9160,1866
9161,1861
9162,1857
9163,1856
9164,1857
9165,1853
9166,1853
9167,1855
9168,1861
9169,1861
9170,1859
9171,1863
9172,1861
9173,1858
9174,1854
9175,1858
9176,1859
9177,1857
9178,1857
9179,1857
9180,1856
9181,1853
9182,1851
9183,1853
9184,1853
9185,1856
9186,1857
9187,1857
9188,1861
9189,1863
9190,1866
9191,1865
9192,1865
9193,1859
9194,1861
9195,1860
9196,1856
9197,1855
9198,1854
9199,1855
9200,1851
9201,1852
9202,1855
9203,1850
9204,1855
9205,1855
9206,1858
9207,1859
9208,1863
9209,1867
9210,1861
9211,1862
9212,1859
9213,1859
9214,1856
9215,1851
9216,1855
9217,1853
9218,1854
9219,1854
9220,1855
9221,1856
9222,1856
9223,1858
9224,1859
9225,1857
9226,1858
9227,1857
9228,1856
9229,1856
9230,1858
9231,1855
9232,1855
9233,1846
9234,1849
9235,1855
9236,1855
9237,1855
9238,1858
9239,1862
9240,1870
9241,1865
9242,1870
9243,1869
9244,1870
9245,1865
9246,1859
9247,1856
9248,1856
9249,1856
9250,1856
9251,1856
9252,1857
9253,1858
9254,1862
9255,1864
9256,1866
9257,1869
9258,1869
9259,1872
9260,1867
9261,1862
9262,1857
9263,1847
9264,1845
9265,1847
9266,1847
9267,1846
9268,1850
9269,1851
9270,1849
9271,1855
9272,1856
9273,1858
9274,1858
9275,1859
9276,1858
9277,1856
9278,1856
9279,1854
9280,1854
9281,1855
9282,1849
9283,1850
9284,1851
9285,1852
9286,1855
9287,1855
9288,1857
9289,1862
9290,1867
9291,1869
9292,1866
9293,1857
9294,1855
9295,1856
9296,1853
9297,1850
9298,1854
9299,1858
9300,1856
9301,1859
9302,1861
9303,1867
9304,1871
9305,1870
9306,1869
9307,1872
9308,1869
9309,1872
9310,1867
9311,1863
9312,1865
9313,1856
9314,1856
9315,1856
9316,1856
9317,1856
9318,1853
9319,1855
9320,1855
9321,1859
9322,1861
9323,1861
9324,1861
9325,1865
9326,1863
9327,1861
9328,1856
9329,1854
9330,1856
9331,1859
9332,1855
9333,1857
9334,1858
9335,1858
9336,1862
9337,1867
9338,1869
9339,1872
9340,1877
9341,1872
9342,1875
9343,1874
9344,1874
9345,1873
9346,1872
9347,1871
9348,1872
9349,1872
9350,1867
9351,1871
9352,1872
9353,1865
9354,1868
9355,1872
9356,1870
9357,1871
9358,1873
9359,1872
9360,1870
9361,1863
9362,1864
9363,1871
9364,1865
9365,1862
9366,1867
9367,1867
9368,1867
9369,1869
9370,1870
9371,1872
9372,1872
9373,1874
9374,1873
9375,1873
9376,1872
9377,1872
9378,1870
9379,1866
9380,1865
9381,1862
9382,1858
9383,1854
9384,1853
9385,1855
9386,1856
9387,1858
9388,1856
9389,1869
9390,1870
9391,1869
9392,1871
9393,1869
9394,1863
9395,1864
9396,1858
9397,1858
9398,1858
9399,1858
9400,1856
9401,1858
9402,1861
9403,1862
9404,1867
9405,1867
9406,1865
9407,1868
9408,1870
9409,1867
9410,1865
9411,1863
9412,1862
9413,1854
9414,1854
9415,1849
9416,1850
9417,1846
9418,1854
9419,1853
9420,1854
9421,1858
9422,1858
9423,1859
9424,1860
9425,1861
9426,1861
9427,1861
9428,1857
9429,1856
9430,1857
9431,1855
9432,1855
9433,1854
9434,1856
9435,1857
9436,1858
9437,1863
9438,1866
9439,1867
9440,1867
9441,1867
9442,1867
9443,1856
9444,1856
9445,1855
9446,1849
9447,1851
9448,1847
9449,1845
9450,1852
9451,1854
9452,1854
9453,1857
9454,1858
9455,1857
9456,1861
9457,1862
9458,1868
9459,1866
9460,1861
9461,1860
9462,1857
9463,1856
9464,1858
9465,1856
9466,1856
9467,1857
9468,1856
9469,1857
9470,1860
9471,1862
9472,1867
9473,1859
9474,1859
9475,1862
9476,1858
9477,1856
9478,1859
9479,1858
9480,1856
9481,1857
9482,1855
9483,1856
9484,1851
9485,1857
9486,1861
9487,1859
9488,1862
9489,1863
9490,1869
9491,1866
9492,1869
9493,1863
9494,1866
9495,1865
9496,1862
9497,1861
9498,1859
9499,1860
9500,1857
9501,1859
9502,1862
9503,1856
9504,1861
9505,1859
9506,1861
9507,1860
9508,1871
9509,1871
9510,1867
9511,1863
9512,1866
9513,1859
9514,1861
9515,1857
9516,1857
9517,1856
9518,1859
9519,1855
9520,1859
9521,1863
9522,1865
9523,1867
9524,1866
9525,1869
9526,1867
9527,1863
9528,1863
9529,1860
9530,1859
9531,1858
9532,1856
9533,1851
9534,1850
9535,1854
9536,1856
9537,1857
9538,1859
9539,1859
9540,1871
9541,1869
9542,1871
9543,1867
9544,1865
9545,1862
9546,1862
9547,1858
9548,1856
9549,1857
9550,1855
9551,1857
9552,1859
9553,1862
9554,1867
9555,1869
9556,1871
9557,1872
9558,1872
9559,1871
9560,1870
9561,1867
9562,1863
9563,1855
9564,1855
9565,1851
9566,1850
9567,1847
9568,1856
9569,1857
9570,1859
9571,1866
9572,1867
9573,1869
9574,1865
9575,1859
9576,1867
9577,1865
9578,1862
9579,1859
9580,1859
9581,1859
9582,1857
9583,1856
9584,1854
9585,1856
9586,1859
9587,1859
9588,1859
9589,1862
9590,1866
9591,1863
9592,1867
9593,1861
9594,1858
9595,1856
9596,1856
9597,1856
9598,1853
9599,1851
9600,1856
9601,1856
9602,1861
9603,1859
9604,1860
9605,1862
9606,1866
9607,1866
9608,1869
9609,1871
9610,1866
9611,1866
9612,1864
9613,1861
9614,1859
9615,1856
9616,1856
9617,1856
9618,1852
9619,1855
9620,1856
9621,1858
9622,1858
9623,1857
9624,1861
9625,1860
9626,1857
9627,1857
9628,1854
9629,1854
9630,1862
9631,1860
9632,1859
9633,1858
9634,1858
9635,1859
9636,1863
9637,1865
9638,1867
9639,1867
9640,1870
9641,1867
9642,1867
9643,1865
9644,1862
9645,1863
9646,1861
9647,1859
9648,1857
9649,1859
9650,1858
9651,1857
9652,1861
9653,1856
9654,1861
9655,1862
9656,1859
9657,1861
9658,1870
9659,1869
9660,1865
9661,1866
9662,1863
9663,1857
9664,1859
9665,1856
9666,1859
9667,1857
9668,1859
9669,1860
9670,1859
9671,1866
9672,1867
9673,1870
9674,1867
9675,1871
9676,1866
9677,1867
9678,1865
9679,1860
9680,1862
9681,1860
9682,1858
9683,1852
9684,1852
9685,1856
9686,1856
9687,1856
9688,1861
9689,1868
9690,1869
9691,1867
9692,1867
9693,1863
9694,1866
9695,1861
9696,1859
9697,1857
9698,1857
9699,1857
9700,1857
9701,1857
9702,1859
9703,1862
9704,1867
9705,1866
9706,1866
9707,1869
9708,1867
9709,1867
9710,1866
9711,1863
9712,1861
9713,1853
9714,1856
9715,1850
9716,1853
9717,1854
9718,1858
9719,1860
9720,1862
9721,1867
9722,1867
9723,1869
9724,1867
9725,1867
9726,1866
9727,1865
9728,1863
9729,1862
9730,1862
9731,1861
9732,1859
9733,1861
9734,1859
9735,1865
9736,1863
9737,1862
9738,1867
9739,1866
9740,1865
9741,1863
9742,1865
9743,1858
9744,1857
9745,1857
9746,1856
9747,1856
9748,1855
9749,1854
9750,1858
9751,1860
9752,1862
9753,1863
9754,1866
9755,1869
9756,1869
9757,1871
9758,1869
9759,1869
9760,1866
9761,1862
9762,1863
9763,1858
9764,1858
9765,1856
9766,1856
9767,1857
9768,1860
9769,1860
9770,1862
9771,1863
9772,1867
9773,1865
9774,1864
9775,1868
9776,1865
9777,1862
9778,1859
9779,1865
9780,1863
9781,1863
9782,1858
9783,1857
9784,1857
9785,1860
9786,1862
9787,1863
9788,1865
9789,1866
9790,1868
9791,1868
9792,1868
9793,1865
9794,1866
9795,1863
9796,1861
9797,1857
9798,1858
9799,1858
9800,1857
9801,1857
9802,1860
9803,1856
9804,1858
9805,1859
9806,1863
9807,1863
9808,1870
9809,1869
9810,1867
9811,1865
9812,1862
9813,1861
9814,1859
9815,1856
9816,1859
9817,1856
9818,1858
9819,1857
9820,1860
9821,1865
9822,1865
9823,1865
9824,1865
9825,1867
9826,1867
9827,1866
9828,1865
9829,1861
9830,1863
9831,1866
9832,1859
9833,1852
9834,1855
9835,1860
9836,1858
9837,1859
9838,1858
9839,1858
9840,1869
9841,1865
9842,1870
9843,1869
9844,1868
9845,1867
9846,1862
9847,1859
9848,1857
9849,1861
9850,1857
9851,1860
9852,1859
9853,1860
9854,1861
9855,1866
9856,1865
9857,1867
9858,1870
9859,1867
9860,1861
9861,1863
9862,1861
9863,1853
9864,1851
9865,1847
9866,1853
9867,1851
9868,1859
9869,1861
9870,1862
9871,1867
9872,1867
9873,1870
9874,1870
9875,1870
9876,1869
9877,1867
9878,1865
9879,1860
9880,1860
9881,1861
9882,1858
9883,1857
9884,1857
9885,1861
9886,1863
9887,1862
9888,1866
9889,1867
9890,1871
9891,1868
9892,1868
9893,1856
9894,1856
9895,1856
9896,1853
9897,1853
9898,1851
9899,1858
9900,1857
9901,1859
9902,1859
9903,1861
9904,1866
9905,1868
9906,1867
9907,1869
9908,1870
9909,1867
9910,1863
9911,1862
9912,1861
9913,1861
9914,1860
9915,1857
9916,1859
9917,1857
9918,1852
9919,1853
9920,1856
9921,1858
9922,1858
9923,1862
9924,1863
9925,1863
9926,1860
9927,1861
9928,1861
9929,1858
9930,1863
9931,1865
9932,1862
9933,1859
9934,1859
9935,1859
9936,1863
9937,1865
9938,1868
9939,1867
9940,1869
9941,1870
9942,1866
9943,1865
9944,1866
9945,1859
9946,1857
9947,1856
9948,1856
9949,1857
9950,1857
9951,1859
9952,1860
9953,1857
9954,1858
9955,1859
9956,1863
9957,1861
9958,1869
9959,1869
9960,1866
9961,1864
9962,1861
9963,1862
9964,1861
9965,1858
9966,1859
9967,1858
9968,1862
9969,1862
9970,1863
9971,1866
9972,1866
9973,1866
9974,1869
9975,1870
9976,1865
9977,1862
9978,1863
9979,1862
9980,1857
9981,1859
9982,1856
9983,1846
9984,1849
9985,1847
9986,1854
9987,1856
9988,1862
9989,1863
9990,1867
9991,1863
9992,1867
9993,1866
9994,1866
9995,1864
9996,1861
9997,1859
9998,1859
9999,1857
10000,1855
10001,1859
10002,1861
10003,1861
10004,1865
10005,1863
10006,1866
10007,1867
10008,1866
10009,1869
10010,1865
10011,1862
10012,1859
10013,1855
10014,1853
10015,1851
10016,1852
10017,1854
10018,1845
10019,1861
10020,1862
10021,1867
10022,1868
10023,1867
10024,1868
10025,1869
10026,1866
10027,1863
10028,1863
10029,1862
10030,1860
10031,1858
10032,1858
10033,1855
10034,1856
10035,1858
10036,1860
10037,1863
10038,1863
10039,1865
10040,1871
10041,1867
10042,1868
10043,1857
10044,1344
10045,1377
10046,1979
10047,2064
10048,2047
10049,2032
10050,2018
10051,1994
10052,2017
10053,2042
10054,1921
10055,1769
10056,1735
10057,1776
10058,1827
10059,1859
10060,1879
10061,1894
10062,1893
10063,1888
10064,1874
10065,1849
10066,1829
10067,1825
10068,1836
10069,1844
10070,1855
10071,1863
10072,1870
10073,1866
10074,1866
10075,2143
10076,1019
10077,1921
10078,2065
10079,2058
10080,2034
10081,2013
10082,1984
10083,2053
10084,2032
10085,1890
10086,1776
10087,1766
10088,1814
10089,1867
10090,1902
10091,1919
10092,1930
10093,1912
10094,1887
10095,1862
10096,1830
10097,1815
10098,1814
10099,1819
10100,1834
10101,1843
10102,1853
10103,1851
10104,1857
10105,1858
10106,1859
10107,609
10108,1815
10109,2047
10110,2061
10111,2035
10112,2005
10113,1983
10114,2065
10115,2027
10116,1874
10117,1772
10118,1773
10119,1826
10120,1872
10121,1903
10122,1926
10123,1931
10124,1910
10125,1891
10126,1857
10127,1827
10128,1821
10129,1824
10130,1840
10131,1847
10132,1854
10133,1851
10134,1853
10135,1859
10136,1865
10137,1863
10138,379
10139,1687
10140,2038
10141,2073
10142,2063
10143,2013
10144,2012
10145,2100
10146,2032
10147,1872
10148,1772
10149,1777
10150,1838
10151,1875
10152,1904
10153,1927
10154,1929
10155,1905
10156,1879
10157,1846
10158,1826
10159,1830
10160,1840
10161,1846
10162,1855
10163,1849
10164,1850
10165,1853
10166,1858
10167,1856
10168,1870
10169,1102
10170,1393
10171,1990
10172,2086
10173,2078
10174,2026
10175,2029
10176,2098
10177,2032
10178,1883
10179,1774
10180,1770
10181,1830
10182,1863
10183,1885
10184,1909
10185,1917
10186,1898
10187,1871
10188,1840
10189,1820
10190,1828
10191,1839
10192,1845
10193,1841
10194,1847
10195,1856
10196,1857
10197,1859
10198,1862
10199,1862
10200,2165
10201,1015
10202,1918
10203,2077
10204,2082
10205,2031
10206,2032
10207,2111
10208,2053
10209,1904
10210,1779
10211,1774
10212,1825
10213,1853
10214,1881
10215,1904
10216,1907
10217,1887
10218,1851
10219,1823
10220,1815
10221,1825
10222,1839
10223,1853
10224,1855
10225,1860
10226,1860
10227,1862
10228,1859
10229,1859
10230,1857
10231,1857
10232,570
10233,1810
10234,2082
10235,2112
10236,2061
10237,2047
10238,2117
10239,2064
10240,1911
10241,1783
10242,1758
10243,1808
10244,1845
10245,1870
10246,1904
10247,1908
10248,1889
10249,1857
10250,1823
10251,1813
10252,1826
10253,1837
10254,1849
10255,1858
10256,1867
10257,1871
10258,1873
10259,1872
10260,1872
10261,1867
10262,1865
10263,272
10264,1646
10265,2043
10266,2105
10267,2059
10268,2037
10269,2110
10270,2065
10271,1926
10272,1791
10273,1780
10274,1829
10275,1857
10276,1881
10277,1909
10278,1911
10279,1891
10280,1859
10281,1828
10282,1817
10283,1821
10284,1830
10285,1840
10286,1847
10287,1851
10288,1853
10289,1859
10290,1866
10291,1867
10292,1868
10293,1868
10294,577
10295,1450
10296,2014
10297,2108
10298,2064
10299,2032
10300,2113
10301,2063
10302,1925
10303,1798
10304,1771
10305,1813
10306,1838
10307,1870
10308,1907
10309,1917
10310,1902
10311,1872
10312,1840
10313,1814
10314,1818
10315,1825
10316,1840
10317,1852
10318,1857
10319,1859
10320,1862
10321,1869
10322,1867
10323,1872
10324,1873
10325,2231
10326,1003
10327,1947
10328,2125
10329,2106
10330,2042
10331,2127
10332,2113
10333,1973
10334,1819
10335,1773
10336,1807
10337,1827
10338,1850
10339,1883
10340,1907
10341,1904
10342,1884
10343,1846
10344,1826
10345,1827
10346,1835
10347,1841
10348,1851
10349,1854
10350,1861
10351,1866
10352,1870
10353,1872
10354,1872
10355,1873
10356,1888
10357,533
10358,1840
10359,2117
10360,2126
10361,2047
10362,2113
10363,2116
10364,1994
10365,1841
10366,1773
10367,1809
10368,1839
10369,1859
10370,1904
10371,1930
10372,1921
10373,1882
10374,1863
10375,1842
10376,1840
10377,1847
10378,1854
10379,1864
10380,1863
10381,1862
10382,1858
10383,1865
10384,1870
10385,1872
10386,1873
10387,1873
10388,192
10389,1711
10390,2100
10391,2144
10392,2074
10393,2112
10394,2134
10395,2032
10396,1879
10397,1770
10398,1791
10399,1825
10400,1863
10401,1904
10402,1925
10403,1909
10404,1895
10405,1861
10406,1839
10407,1836
10408,1843
10409,1856
10410,1863
10411,1868
10412,1863
10413,1859
10414,1863
10415,1867
10416,1870
10417,1870
10418,1871
10419,555
10420,1406
10421,2064
10422,2175
10423,2119
10424,2112
10425,2172
10426,2080
10427,1923
10428,1776
10429,1774
10430,1812
10431,1837
10432,1868
10433,1894
10434,1904
10435,1890
10436,1862
10437,1838
10438,1830
10439,1841
10440,1863
10441,1871
10442,1878
10443,1879
10444,1877
10445,1874
10446,1878
10447,1875
10448,1873
10449,1875
10450,2015
10451,1113
10452,1999
10453,2163
10454,2139
10455,2097
10456,2170
10457,2109
10458,1958
10459,1812
10460,1792
10461,1819
10462,1835
10463,1860
10464,1894
10465,1904
10466,1902
10467,1872
10468,1853
10469,1841
10470,1852
10471,1856
10472,1866
10473,1867
10474,1872
10475,1877
10476,1879
10477,1875
10478,1877
10479,1877
10480,1872
10481,1927
10482,529
10483,1855
10484,2143
10485,2155
10486,2079
10487,2159
10488,2140
10489,2006
10490,1831
10491,1767
10492,1804
10493,1815
10494,1851
10495,1887
10496,1904
10497,1903
10498,1873
10499,1852
10500,1837
10501,1838
10502,1847
10503,1856
10504,1863
10505,1871
10506,1872
10507,1875
10508,1878
10509,1883
10510,1872
10511,1872
10512,1872
10513,183
10514,1727
10515,2122
10516,2165
10517,2084
10518,2140
10519,2145
10520,2016
10521,1841
10522,1750
10523,1779
10524,1808
10525,1840
10526,1877
10527,1901
10528,1898
10529,1873
10530,1856
10531,1838
10532,1837
10533,1842
10534,1855
10535,1867
10536,1866
10537,1867
10538,1871
10539,1872
10540,1879
10541,1876
10542,1874
10543,1872
10544,224
10545,1491
10546,2079
10547,2170
10548,2101
10549,2112
10550,2160
10551,2064
10552,1878
10553,1751
10554,1776
10555,1802
10556,1837
10557,1875
10558,1907
10559,1914
10560,1900
10561,1868
10562,1847
10563,1839
10564,1841
10565,1848
10566,1855
10567,1859
10568,1866
10569,1871
10570,1871
10571,1874
10572,1877
10573,1879
10574,1878
10575,2107
10576,1067
10577,1989
10578,2162
10579,2128
10580,2081
10581,2161
10582,2113
10583,1926
10584,1762
10585,1754
10586,1791
10587,1823
10588,1872
10589,1899
10590,1918
10591,1904
10592,1879
10593,1849
10594,1840
10595,1843
10596,1845
10597,1855
10598,1859
10599,1859
10600,1857
10601,1866
10602,1870
10603,1871
10604,1873
10605,1872
10606,2045
10607,698
10608,1913
10609,2171
10610,2162
10611,2094
10612,2151
10613,2112
10614,1953
10615,1774
10616,1744
10617,1782
10618,1811
10619,1859
10620,1892
10621,1908
10622,1904
10623,1883
10624,1855
10625,1842
10626,1843
10627,1849
10628,1856
10629,1857
10630,1862
10631,1865
10632,1869
10633,1869
10634,1871
10635,1872
10636,1874
10637,1875
10638,154
10639,1717
10640,2130
10641,2174
10642,2093
10643,2128
10644,2140
10645,2027
10646,1834
10647,1751
10648,1779
10649,1808
10650,1858
10651,1889
10652,1901
10653,1903
10654,1887
10655,1865
10656,1846
10657,1845
10658,1855
10659,1858
10660,1859
10661,1866
10662,1868
10663,1867
10664,1867
10665,1865
10666,1871
10667,1866
10668,1868
10669,1868
10670,1871
10671,1872
10672,1870
10673,1867
10674,1863
10675,1865
10676,1863
10677,1862
10678,1859
10679,1863
10680,1862
10681,1859
10682,1857
10683,1857
10684,1859
10685,1859
10686,1861
10687,1866
10688,1867
10689,1867
10690,1871
10691,1869
10692,1869
10693,1867
10694,1863
10695,1863
10696,1857
10697,1857
10698,1856
10699,1856
10700,1856
10701,1856
10702,1856
10703,1852
10704,1855
10705,1856
10706,1855
10707,1861
10708,1867
10709,1868
10710,1865
10711,1861
10712,1862
10713,1859
10714,1862
10715,1858
10716,1858
10717,1856
10718,1858
10719,1857
10720,1859
10721,1863
10722,1867
10723,1867
10724,1866
10725,1865
10726,1863
10727,1861
10728,1858
10729,1855
10730,1855
10731,1854
10732,1851
10733,1845
10734,1845
10735,1851
10736,1854
10737,1855
10738,1856
10739,1856
10740,1867
10741,1862
10742,1861
10743,1860
10744,1861
10745,1859
10746,1856
10747,1854
10748,1854
10749,1854
10750,1855
10751,1853
10752,1856
10753,1855
10754,1856
10755,1857
10756,1859
10757,1862
10758,1862
10759,1858
10760,1856
10761,1855
10762,1854
10763,1842
10764,1845
10765,1840
10766,1840
10767,1841
10768,1851
10769,1848
10770,1850
10771,1856
10772,1857
10773,1856
10774,1858
10775,1857
10776,1857
10777,1855
10778,1855
10779,1851
10780,1847
10781,1851
10782,1849
10783,1850
10784,1855
10785,1856
10786,1856
10787,1858
10788,1863
10789,1863
10790,1866
10791,1865
10792,1867
10793,1856
10794,1853
10795,1855
10796,1850
10797,1847
10798,1841
10799,1852
10800,1850
10801,1852
10802,1851
10803,1854
10804,1851
10805,1855
10806,1856
10807,1856
10808,1857
10809,1855
10810,1854
10811,1854
10812,1851
10813,1851
10814,1851
10815,1844
10816,1847
10817,1845
10818,1840
10819,1840
10820,1847
10821,1849
10822,1847
10823,1851
10824,1851
10825,1853
10826,1847
10827,1850
10828,1847
10829,1846
10830,1854
10831,1850
10832,1851
10833,1851
10834,1851
10835,1856
10836,1858
10837,1862
10838,1864
10839,1865
10840,1872
10841,1870
10842,1870
10843,1863
10844,1861
10845,1863
10846,1858
10847,1857
10848,1854
10849,1856
10850,1854
10851,1855
10852,1856
10853,1849
10854,1852
10855,1855
10856,1855
10857,1855
10858,1861
10859,1862
10860,1859
10861,1857
10862,1856
10863,1856
10864,1855
10865,1854
10866,1853
10867,1853
10868,1855
10869,1857
10870,1857
10871,1861
10872,1863
10873,1864
10874,1863
10875,1869
10876,1861
10877,1856
10878,1855
10879,1855
10880,1853
10881,1853
10882,1848
10883,1840
10884,1842
10885,1849
10886,1849
10887,1849
10888,1840
10889,1859
10890,1859
10891,1857
10892,1856
10893,1856
10894,1857
10895,1856
10896,1856
10897,1856
10898,1853
10899,1853
10900,1854
10901,1855
10902,1855
10903,1855
10904,1857
10905,1859
10906,1858
10907,1861
10908,1863
10909,1866
10910,1862
10911,1860
10912,1859
10913,1851
10914,1853
10915,1847
10916,1849
10917,1849
10918,1855
10919,1857
10920,1859
10921,1859
10922,1863
10923,1865
10924,1862
10925,1866
10926,1862
10927,1861
10928,1858
10929,1856
10930,1856
10931,1855
10932,1855
10933,1854
10934,1855
10935,1856
10936,1858
10937,1857
10938,1859
10939,1861
10940,1865
10941,1863
10942,1866
10943,1857
10944,1857
10945,1857
10946,1854
10947,1851
10948,1851
10949,1853
10950,1856
10951,1858
10952,1858
10953,1858
10954,1862
10955,1864
10956,1867
10957,1865
10958,1866
10959,1865
10960,1862
10961,1857
10962,1857
10963,1854
10964,1855
10965,1851
10966,1851
10967,1854
10968,1854
10969,1854
10970,1859
10971,1860
10972,1862
10973,1858
10974,1855
10975,1857
10976,1855
10977,1854
10978,1851
10979,1856
10980,1855
10981,1856
10982,1855
10983,1854
10984,1856
10985,1856
10986,1857
10987,1861
10988,1861
10989,1856
10990,1861
10991,1862
10992,1865
10993,1863
10994,1859
10995,1859
10996,1859
10997,1856
10998,1856
10999,1855
11000,1854
11001,1855
11002,1856
11003,1854
11004,1855
11005,1855
11006,1858
11007,1856
11008,1863
11009,1863
11010,1861
11011,1859
11012,1856
11013,1856
11014,1855
11015,1851
11016,1855
11017,1853
11018,1855
11019,1854
11020,1856
11021,1861
11022,1859
11023,1859
11024,1861
11025,1861
11026,1860
11027,1859
11028,1858
11029,1857
11030,1856
11031,1857
11032,1854
11033,1847
11034,1849
11035,1850
11036,1854
11037,1855
11038,1857
11039,1857
11040,1869
11041,1866
11042,1869
11043,1867
11044,1865
11045,1862
11046,1859
11047,1859
11048,1858
11049,1858
11050,1856
11051,1856
11052,1857
11053,1859
11054,1862
11055,1862
11056,1861
11057,1866
11058,1869
11059,1865
11060,1865
11061,1863
11062,1862
11063,1855
11064,1854
11065,1854
11066,1854
11067,1855
11068,1853
11069,1856
11070,1863
11071,1865
11072,1863
11073,1869
11074,1865
11075,1865
11076,1862
11077,1863
11078,1862
11079,1858
11080,1857
11081,1856
11082,1856
11083,1856
11084,1855
11085,1857
11086,1857
11087,1862
11088,1862
11089,1865
11090,1867
11091,1869
11092,1868
11093,1858
11094,1858
11095,1857
11096,1853
11097,1856
11098,1849
11099,1859
11100,1859
11101,1859
11102,1862
11103,1861
11104,1861
11105,1862
11106,1861
11107,1861
11108,1863
11109,1865
11110,1859
11111,1858
11112,1857
11113,1856
11114,1856
11115,1855
11116,1854
11117,1856
11118,1856
11119,1855
11120,1854
11121,1855
11122,1856
11123,1859
11124,1857
11125,1857
11126,1857
11127,1865
11128,1861
11129,1859
11130,1857
11131,1858
11132,1859
11133,1857
11134,1856
11135,1861
11136,1861
11137,1865
11138,1862
11139,1863
11140,1867
11141,1866
11142,1867
11143,1863
11144,1863
11145,1863
11146,1859
11147,1859
11148,1857
11149,1858
11150,1857
11151,1858
11152,1857
11153,1855
11154,1857
11155,1856
11156,1856
11157,1861
11158,1863
11159,1861
11160,1867
11161,1862
11162,1863
11163,1859
11164,1858
11165,1855
11166,1856
11167,1856
11168,1858
11169,1858
11170,1863
11171,1864
11172,1868
11173,1869
11174,1865
11175,1866
11176,1863
11177,1862
11178,1860
11179,1858
11180,1856
11181,1856
11182,1856
11183,1849
11184,1853
11185,1856
11186,1856
11187,1858
11188,1862
11189,1867
11190,1869
11191,1866
11192,1869
11193,1865
11194,1865
11195,1860
11196,1859
11197,1857
11198,1857
11199,1856
11200,1857
11201,1858
11202,1857
11203,1860
11204,1860
11205,1861
11206,1861
11207,1866
11208,1862
11209,1863
11210,1862
11211,1861
11212,1858
11213,1853
11214,1853
11215,1850
11216,1851
11217,1840
11218,1859
11219,1859
11220,1862
11221,1865
11222,1863
11223,1863
11224,1865
11225,1868
11226,1865
11227,1869
11228,1869
11229,1861
11230,1864
11231,1858
11232,1856
11233,1858
11234,1857
11235,1861
11236,1865
11237,1866
11238,1869
11239,1866
11240,1867
11241,1868
11242,1863
11243,1856
11244,1857
11245,1859
11246,1855
11247,1856
11248,1856
11249,1852
11250,1859
11251,1859
11252,1858
11253,1858
11254,1865
11255,1866
11256,1862
11257,1866
11258,1868
11259,1868
11260,1865
11261,1863
11262,1862
11263,1857
11264,1858
11265,1856
11266,1856
11267,1858
11268,1858
11269,1861
11270,1861
11271,1863
11272,1866
11273,1859
11274,1857
11275,1858
11276,1858
11277,1856
11278,1855
11279,1859
11280,1857
11281,1859
11282,1857
11283,1856
11284,1857
11285,1858
11286,1861
11287,1867
11288,1869
11289,1870
11290,1872
11291,1871
11292,1869
11293,1866
11294,1866
11295,1862
11296,1859
11297,1859
11298,1859
11299,1859
11300,1856
11301,1861
11302,1859
11303,1855
11304,1857
11305,1858
11306,1856
11307,1859
11308,1863
11309,1865
11310,1863
11311,1861
11312,1859
11313,1859
11314,1859
11315,1856
11316,1856
11317,1859
11318,1859
11319,1858
11320,1862
11321,1863
11322,1866
11323,1862
11324,1861
11325,1864
11326,1860
11327,1863
11328,1863
11329,1859
11330,1859
11331,1860
11332,1857
11333,1850
11334,1851
11335,1855
11336,1856
11337,1859
11338,1861
11339,1858
11340,1869
11341,1869
11342,1868
11343,1866
11344,1865
11345,1863
11346,1861
11347,1861
11348,1860
11349,1859
11350,1860
11351,1860
11352,1863
11353,1863
11354,1866
11355,1869
11356,1868
11357,1870
11358,1869
11359,1867
11360,1866
11361,1866
11362,1861
11363,1855
11364,1854
11365,1850
11366,1851
11367,1853
11368,1857
11369,1855
11370,1859
11371,1860
11372,1862
11373,1863
11374,1866
11375,1865
11376,1863
11377,1865
11378,1861
11379,1859
11380,1859
11381,1857
11382,1856
11383,1855
11384,1856
11385,1857
11386,1858
11387,1861
11388,1863
11389,1865
11390,1869
11391,1867
11392,1868
11393,1859
11394,1861
11395,1857
11396,1857
11397,1856
11398,1849
11399,1859
11400,1856
11401,1858
11402,1859
11403,1859
11404,1863
11405,1863
11406,1863
11407,1866
11408,1867
11409,1866
11410,1865
11411,1861
11412,1859
11413,1858
11414,1859
11415,1856
11416,1857
11417,1856
11418,1853
11419,1855
11420,1858
11421,1857
11422,1856
11423,1861
11424,1859
11425,1861
11426,1859
11427,1857
11428,1859
11429,1857
11430,1861
11431,1861
11432,1862
11433,1859
11434,1861
11435,1863
11436,1865
11437,1862
11438,1863
11439,1862
11440,1865
11441,1865
11442,1866
11443,1865
11444,1863
11445,1859
11446,1856
11447,1856
11448,1856
11449,1858
11450,1859
11451,1860
11452,1858
11453,1855
11454,1855
11455,1857
11456,1857
11457,1860
11458,1866
11459,1867
11460,1865
11461,1866
11462,1861
11463,1861
11464,1864
11465,1859
11466,1860
11467,1861
11468,1865
11469,1863
11470,1866
11471,1867
11472,1870
11473,1871
11474,1868
11475,1869
11476,1868
11477,1867
11478,1865
11479,1862
11480,1862
11481,1859
11482,1857
11483,1850
11484,1853
11485,1854
11486,1855
11487,1858
11488,1860
11489,1863
11490,1870
11491,1871
11492,1867
11493,1865
11494,1862
11495,1862
11496,1862
11497,1859
11498,1859
11499,1857
11500,1857
11501,1858
11502,1859
11503,1859
11504,1860
11505,1862
11506,1863
11507,1866
11508,1865
11509,1863
11510,1863
11511,1861
11512,1861
11513,1853
11514,1853
11515,1853
11516,1850
11517,1849
11518,1857
11519,1853
11520,1861
11521,1865
11522,1863
11523,1865
11524,1867
11525,1867
11526,1867
11527,1868
11528,1862
11529,1863
11530,1858
11531,1861
11532,1861
11533,1860
11534,1863
11535,1866
11536,1861
11537,1864
11538,1863
11539,1868
11540,1867
11541,1869
11542,1869
11543,1858
11544,1857
11545,1856
11546,1856
11547,1857
11548,1855
11549,1855
11550,1857
11551,1859
11552,1861
11553,1861
11554,1865
11555,1863
11556,1866
11557,1868
11558,1866
11559,1866
11560,1865
11561,1865
11562,1865
11563,1859
11564,1862
11565,1858
11566,1858
11567,1856
11568,1857
11569,1859
11570,1866
11571,1863
11572,1863
11573,1857
11574,1862
11575,1862
11576,1859
11577,1856
11578,1856
11579,1851
11580,1856
11581,1856
11582,1854
11583,1856
11584,1856
11585,1859
11586,1862
11587,1865
11588,1870
11589,1871
11590,1871
11591,1872
11592,1871
11593,1866
11594,1866
11595,1865
11596,1861
11597,1862
11598,1857
11599,1861
11600,1857
11601,1858
11602,1858
11603,1853
11604,1858
11605,1858
11606,1856
11607,1859
11608,1868
11609,1867
11610,1867
11611,1866
11612,1863
11613,1859
11614,1861
11615,1856
11616,1857
11617,1858
11618,1853
11619,1861
11620,1859
11621,1862
11622,1866
11623,1866
11624,1865
11625,1867
11626,1864
11627,1863
11628,1866
11629,1863
11630,1862
11631,1861
11632,1862
11633,1855
11634,1855
11635,1858
11636,1858
11637,1861
11638,1862
11639,1869
11640,1869
11641,1869
11642,1870
11643,1867
11644,1866
11645,1862
11646,1859
11647,1856
11648,1856
11649,1858
11650,1856
11651,1857
11652,1858
11653,1859
11654,1862
11655,1863
11656,1865
11657,1867
11658,1869
11659,1866
11660,1865
11661,1865
11662,1863
11663,1855
11664,1856
11665,1853
11666,1855
11667,1854
11668,1945
11669,755
11670,1852
11671,2064
11672,2080
11673,2074
11674,2062
11675,2019
11676,2043
11677,2037
11678,1873
11679,1744
11680,1741
11681,1783
11682,1830
11683,1856
11684,1874
11685,1893
11686,1902
11687,1901
11688,1898
11689,1875
11690,1854
11691,1837
11692,1840
11693,1843
11694,1851
11695,1856
11696,1856
11697,1858
11698,1862
11699,1870
11700,413
11701,1723
11702,2061
11703,2087
11704,2073
11705,2041
11706,2015
11707,2076
11708,2023
11709,1858
11710,1747
11711,1760
11712,1817
11713,1861
11714,1887
11715,1904
11716,1918
11717,1914
11718,1893
11719,1871
11720,1840
11721,1817
11722,1809
11723,1818
11724,1829
11725,1843
11726,1854
11727,1855
11728,1857
11729,1858
11730,1865
11731,849
11732,1431
11733,2000
11734,2089
11735,2087
11736,2042
11737,2017
11738,2094
11739,2033
11740,1863
11741,1762
11742,1782
11743,1840
11744,1876
11745,1904
11746,1927
11747,1931
11748,1922
11749,1904
11750,1876
11751,1842
11752,1819
11753,1818
11754,1838
11755,1846
11756,1855
11757,1862
11758,1872
11759,1872
11760,1872
11761,1872
11762,2277
11763,1099
11764,1939
11765,2096
11766,2098
11767,2054
11768,2032
11769,2112
11770,2039
11771,1865
11772,1758
11773,1781
11774,1839
11775,1874
11776,1904
11777,1930
11778,1933
11779,1921
11780,1905
11781,1871
11782,1837
11783,1815
11784,1823
11785,1839
11786,1845
11787,1843
11788,1847
11789,1859
11790,1866
11791,1872
11792,1876
11793,2019
11794,755
11795,1871
11796,2084
11797,2099
11798,2043
11799,2033
11800,2112
11801,2033
11802,1867
11803,1762
11804,1790
11805,1843
11806,1872
11807,1907
11808,1930
11809,1936
11810,1921
11811,1898
11812,1856
11813,1818
11814,1817
11815,1822
11816,1831
11817,1842
11818,1846
11819,1856
11820,1859
11821,1867
11822,1873
11823,1875
11824,1872
11825,300
11826,1693
11827,2063
11828,2111
11829,2064
11830,2033
11831,2114
11832,2043
11833,1893
11834,1781
11835,1793
11836,1840
11837,1872
11838,1907
11839,1935
11840,1942
11841,1930
11842,1904
11843,1857
11844,1830
11845,1822
11846,1829
11847,1840
11848,1850
11849,1856
11850,1867
11851,1870
11852,1874
11853,1873
11854,1879
11855,1883
11856,511
11857,1442
11858,2062
11859,2160
11860,2123
11861,2075
11862,2141
11863,2081
11864,1913
11865,1783
11866,1778
11867,1823
11868,1855
11869,1891
11870,1927
11871,1937
11872,1930
11873,1901
11874,1862
11875,1840
11876,1838
11877,1840
11878,1853
11879,1863
11880,1869
11881,1869
11882,1870
11883,1872
11884,1872
11885,1872
11886,1873
11887,2147
11888,1072
11889,1988
11890,2159
11891,2137
11892,2079
11893,2146
11894,2118
11895,1954
11896,1801
11897,1777
11898,1820
11899,1850
11900,1889
11901,1924
11902,1936
11903,1920
11904,1901
11905,1867
11906,1840
11907,1831
11908,1842
11909,1855
11910,1867
11911,1863
11912,1861
11913,1868
11914,1870
11915,1867
11916,1867
11917,1869
11918,2054
11919,663
11920,1901
11921,2146
11922,2145
11923,2080
11924,2147
11925,2128
11926,1985
