Time(ms),Raw_ADC,ENV_Value,RMS,MDF,MW_Amp,MW_Area,MW_Latency,MW_Valid,Marker
0,1859.5,32.1,0.0,0.0,0.0,0.0,0.0,0,
100,1860.0,133.6,0.0,0.0,0.0,0.0,0.0,0,
200,1850.2,220.8,0.0,0.0,0.0,0.0,0.0,0,
300,1873.8,227.1,0.0,0.0,0.0,0.0,0.0,0,
400,1852.4,252.6,0.0,0.0,0.0,0.0,0.0,0,
500,1879.7,282.4,0.0,67.3,0.0,0.0,0.0,0,
600,1830.3,247.6,0.0,67.1,0.0,0.0,0.0,0,
700,1867.9,193.5,0.0,70.1,0.0,0.0,0.0,0,
800,1862.0,41.4,0.0,94.5,0.0,0.0,0.0,0,
900,1862.0,33.7,0.0,92.6,0.0,0.0,0.0,0,
1000,1859.2,30.5,0.0,86.4,0.0,0.0,0.0,0,
1100,1860.6,32.4,0.0,84.2,0.0,0.0,0.0,0,
1200,1859.8,33.7,0.0,83.6,0.0,0.0,0.0,0,
1300,1861.9,31.9,0.0,240.1,0.0,0.0,0.0,0,
1400,1861.2,34.2,0.0,240.0,0.0,0.0,0.0,0,
1500,1859.7,35.4,0.0,240.1,0.0,0.0,0.0,0,
1600,1858.6,33.9,188.4,240.1,0.0,0.0,0.0,0,
1700,1848.3,60.6,188.5,240.2,0.0,0.0,0.0,0,
1800,1871.2,245.1,188.4,239.9,0.0,0.0,0.0,0,
1900,1885.8,285.8,191.3,79.7,0.0,0.0,0.0,0,
2000,1818.8,269.0,192.6,69.1,0.0,0.0,0.0,0,
2100,1871.2,224.6,193.2,67.4,0.0,0.0,0.0,0,
2200,1861.5,233.7,192.6,67.0,0.0,0.0,0.0,0,
2300,1874.0,257.1,190.8,67.2,0.0,0.0,0.0,0,
2400,1854.3,49.1,194.7,100.3,0.0,0.0,0.0,0,
2600,1859.2,34.9,193.8,91.5,0.0,0.0,0.0,0,
2700,1858.6,33.3,193.9,89.2,0.0,0.0,0.0,0,
2800,1858.5,31.0,193.9,83.4,0.0,0.0,0.0,0,
2900,1857.7,30.0,193.9,215.3,0.0,0.0,0.0,0,
3000,1859.9,30.4,193.9,240.1,0.0,0.0,0.0,0,
3100,1860.3,33.3,193.9,240.3,0.0,0.0,0.0,0,
3200,1859.3,30.6,193.9,240.2,0.0,0.0,0.0,0,
3300,1859.3,31.8,193.8,240.1,0.0,0.0,0.0,0,
3400,1861.3,256.7,193.8,240.3,0.0,0.0,0.0,0,
3600,1864.5,221.4,198.7,70.0,0.0,0.0,0.0,0,
3700,1867.5,243.9,198.3,67.1,0.0,0.0,0.0,0,
3800,1870.3,253.8,199.1,66.7,0.0,0.0,0.0,0,
3900,1844.5,241.6,196.5,66.9,0.0,0.0,0.0,0,
4000,1855.2,59.7,193.6,93.8,0.0,0.0,0.0,0,
4100,1868.0,35.5,193.1,89.1,0.0,0.0,0.0,0,
4200,1861.2,33.2,193.2,73.0,0.0,0.0,0.0,0,
4300,1859.1,33.5,193.2,70.4,0.0,0.0,0.0,0,
4400,1859.5,33.3,193.2,70.7,0.0,0.0,0.0,0,
4600,1858.0,33.2,193.2,240.5,0.0,0.0,0.0,0,
4700,1858.2,31.2,193.2,240.4,0.0,0.0,0.0,0,
4800,1861.0,33.2,193.2,240.1,0.0,0.0,0.0,0,
4900,1860.2,34.0,193.3,240.0,0.0,0.0,0.0,0,
5000,1858.6,181.0,193.3,240.3,0.0,0.0,0.0,0,
5100,1849.2,284.9,193.2,100.3,0.0,0.0,0.0,0,
5200,1893.0,265.6,194.3,68.0,0.0,0.0,0.0,0,
5300,1826.5,252.8,192.0,66.7,0.0,0.0,0.0,0,
5400,1855.1,215.1,190.7,66.5,0.0,0.0,0.0,0,
5600,1851.1,79.5,189.7,67.1,0.0,0.0,0.0,0,
5700,1862.9,41.6,190.0,67.3,0.0,0.0,0.0,0,
5800,1859.5,36.9,190.0,75.2,0.0,0.0,0.0,0,
5900,1861.6,35.7,190.1,71.9,0.0,0.0,0.0,0,
6000,1862.4,34.4,190.1,72.8,0.0,0.0,0.0,0,
6100,1860.3,35.2,190.1,99.8,0.0,0.0,0.0,0,
6200,1858.7,33.8,190.1,240.0,0.0,0.0,0.0,0,
6300,1860.4,32.5,190.1,240.1,0.0,0.0,0.0,0,
6400,1859.7,31.4,190.1,240.2,0.0,0.0,0.0,0,
6600,1861.4,196.5,190.1,240.3,0.0,0.0,0.0,0,
6700,1861.9,295.8,191.7,171.4,0.0,0.0,0.0,0,
6800,1842.9,264.7,189.3,69.2,0.0,0.0,0.0,0,
6900,1863.4,215.4,189.9,67.0,0.0,0.0,0.0,0,
7000,1862.0,252.8,189.2,66.6,0.0,0.0,0.0,0,
7100,1874.4,244.1,189.2,66.6,0.0,0.0,0.0,0,
7200,1832.9,108.2,190.1,66.9,0.0,0.0,0.0,0,
7300,1869.5,36.0,188.4,67.1,0.0,0.0,0.0,0,
7400,1860.4,34.0,188.4,67.3,0.0,0.0,0.0,0,
7600,1864.6,33.7,188.3,70.0,0.0,0.0,0.0,0,
7700,1861.3,34.6,188.3,88.2,0.0,0.0,0.0,0,
7800,1861.0,32.1,188.3,239.7,0.0,0.0,0.0,0,
7900,1861.0,30.7,188.3,240.0,0.0,0.0,0.0,0,
8000,1859.5,34.0,188.3,240.2,0.0,0.0,0.0,0,
8100,1859.9,33.3,188.3,240.2,0.0,0.0,0.0,0,
8200,1860.0,155.9,188.3,240.2,0.0,0.0,0.0,0,
8300,1850.8,234.8,187.4,239.0,0.0,0.0,0.0,0,
8400,1876.8,254.9,187.3,70.9,0.0,0.0,0.0,0,
8600,1840.2,262.9,187.4,67.1,0.0,0.0,0.0,0,
8700,1855.0,242.5,187.0,66.9,0.0,0.0,0.0,0,
8800,1873.2,178.1,190.1,66.9,0.0,0.0,0.0,0,
8900,1852.8,41.5,191.1,67.1,0.0,0.0,0.0,0,
9000,1860.7,32.4,191.2,67.1,0.0,0.0,0.0,0,
9100,1858.4,32.4,191.1,68.1,0.0,0.0,0.0,0,
9200,1862.4,33.3,191.1,70.2,0.0,0.0,0.0,0,
9300,1860.6,32.9,191.1,75.2,0.0,0.0,0.0,0,
9400,1857.8,31.7,191.1,239.8,0.0,0.0,0.0,0,
9600,1860.7,34.9,191.1,240.1,0.0,0.0,0.0,0,
9700,1861.7,32.8,191.1,240.2,0.0,0.0,0.0,0,
9800,1859.6,59.1,191.1,240.1,0.0,0.0,0.0,0,
9900,1871.3,248.7,191.0,240.0,0.0,0.0,0.0,0,
10000,1862.7,293.9,192.9,70.7,0.0,0.0,0.0,0,
10100,1835.8,279.4,194.2,67.1,0.0,0.0,0.0,0,
10200,1868.9,219.8,199.7,66.6,0.0,0.0,0.0,0,
10300,1861.1,262.2,201.2,66.5,0.0,0.0,0.0,0,
10400,1888.8,271.3,203.0,66.8,0.0,0.0,0.0,0,
10600,1869.0,31.3,204.7,90.9,0.0,0.0,0.0,0,
10700,1858.7,34.1,204.7,73.0,0.0,0.0,0.0,0,
10800,1859.6,31.5,204.7,69.6,0.0,0.0,0.0,0,
10900,1861.0,33.2,204.7,70.0,0.0,0.0,0.0,0,
11000,1860.9,33.4,204.7,214.8,0.0,0.0,0.0,0,
11100,1859.8,32.1,204.7,240.1,0.0,0.0,0.0,0,
11200,1860.9,34.5,204.6,240.1,0.0,0.0,0.0,0,
11300,1859.7,34.4,204.6,240.2,0.0,0.0,0.0,0,
11400,1859.9,34.1,204.6,240.2,0.0,0.0,0.0,0,
11600,1838.9,261.1,206.9,72.6,0.0,0.0,0.0,0,
11700,1878.2,231.9,205.3,66.6,0.0,0.0,0.0,0,
11800,1876.4,275.9,201.9,66.4,0.0,0.0,0.0,0,
11900,1840.0,252.5,201.6,66.5,0.0,0.0,0.0,0,
12000,1853.1,253.4,197.1,66.9,0.0,0.0,0.0,0,
12100,1872.0,60.4,197.9,67.1,0.0,0.0,0.0,0,
12200,1858.9,31.1,197.8,67.4,0.0,0.0,0.0,0,
12300,1859.3,32.8,197.8,69.0,0.0,0.0,0.0,0,
12400,1861.5,34.2,197.8,69.0,0.0,0.0,0.0,0,
12600,1859.9,34.0,197.8,147.4,0.0,0.0,0.0,0,
12700,1859.3,32.8,197.8,240.2,0.0,0.0,0.0,0,
12800,1858.9,33.6,197.8,240.2,0.0,0.0,0.0,0,
12900,1861.0,34.8,197.8,240.0,0.0,0.0,0.0,0,
13000,1859.5,32.8,197.8,240.1,0.0,0.0,0.0,0,
13100,1861.4,190.5,197.8,240.1,0.0,0.0,0.0,0,
13200,1863.4,276.8,196.7,93.0,0.0,0.0,0.0,0,
13300,1868.8,274.8,194.2,69.0,0.0,0.0,0.0,0,
13400,1836.0,266.5,192.8,67.3,0.0,0.0,0.0,0,
13600,1861.0,246.2,196.6,66.9,0.0,0.0,0.0,0,
13700,1881.5,86.0,196.6,66.8,0.0,0.0,0.0,0,
13800,1839.3,37.8,196.7,67.0,0.0,0.0,0.0,0,
13900,1861.5,35.0,196.7,67.3,0.0,0.0,0.0,0,
14000,1859.4,35.5,196.8,70.3,0.0,0.0,0.0,0,
14100,1862.8,32.7,196.8,73.0,0.0,0.0,0.0,0,
14200,1861.6,32.9,196.8,93.3,0.0,0.0,0.0,0,
14300,1860.3,32.6,196.8,240.0,0.0,0.0,0.0,0,
14400,1858.2,34.0,196.8,239.9,0.0,0.0,0.0,0,
14600,1861.2,33.8,196.8,240.1,0.0,0.0,0.0,0,
14700,1858.8,223.0,196.8,240.2,0.0,0.0,0.0,0,
14800,1867.0,278.0,198.9,185.1,0.0,0.0,0.0,0,rest_end
14900,1840.5,289.4,201.0,69.5,0.0,0.0,0.0,0,
15000,1883.0,246.7,205.0,67.5,0.0,0.0,0.0,0,
15100,1866.9,284.1,207.8,66.9,0.0,0.0,0.0,0,
15200,1853.8,276.8,209.2,66.8,0.0,0.0,0.0,0,
15300,1844.3,121.1,208.4,67.3,0.0,0.0,0.0,0,
15400,1868.4,36.4,208.3,93.2,0.0,0.0,0.0,0,
15600,1862.4,30.4,208.4,77.8,0.0,0.0,0.0,0,
15700,1860.5,33.7,208.4,71.1,0.0,0.0,0.0,0,
15800,1860.3,34.0,208.4,80.5,0.0,0.0,0.0,0,
15900,1859.7,34.0,208.4,239.8,0.0,0.0,0.0,0,
16000,1861.6,33.6,208.4,239.9,0.0,0.0,0.0,0,
16100,1859.6,34.5,208.4,239.9,0.0,0.0,0.0,0,
16200,1860.1,34.6,208.4,239.9,0.0,0.0,0.0,0,
16300,1859.2,172.5,208.4,239.9,0.0,0.0,0.0,0,
16400,1855.2,230.8,208.4,239.4,0.0,0.0,0.0,0,
16600,1875.2,325.4,209.1,67.3,0.0,0.0,0.0,0,
16700,1820.9,282.8,211.0,66.7,0.0,0.0,0.0,0,
16800,1872.4,289.8,211.8,66.7,0.0,0.0,0.0,0,
16900,1862.7,188.2,215.4,67.3,0.0,0.0,0.0,0,
17000,1859.3,42.3,215.6,92.9,0.0,0.0,0.0,0,
17100,1860.3,37.5,215.6,91.3,0.0,0.0,0.0,0,
17200,1859.8,36.6,215.5,69.2,0.0,0.0,0.0,0,
17300,1859.6,34.7,215.5,68.5,0.0,0.0,0.0,0,
17400,1859.7,33.1,215.5,73.6,0.0,0.0,0.0,0,
17600,1859.6,34.1,215.6,240.0,0.0,0.0,0.0,0,
17700,1859.7,31.4,215.6,240.2,0.0,0.0,0.0,0,
17800,1860.8,32.0,215.5,240.4,0.0,0.0,0.0,0,
17900,1859.0,87.0,215.5,240.4,0.0,0.0,0.0,0,
18000,1873.0,295.8,215.6,240.0,0.0,0.0,0.0,0,
18100,1844.1,282.1,216.6,72.6,0.0,0.0,0.0,0,
18200,1851.3,303.2,213.5,67.7,0.0,0.0,0.0,0,
18300,1882.5,244.5,213.3,66.9,0.0,0.0,0.0,0,
18400,1858.6,271.3,212.0,66.8,0.0,0.0,0.0,0,
18600,1837.2,44.8,207.8,91.2,0.0,0.0,0.0,0,
18700,1873.7,31.8,207.8,76.6,0.0,0.0,0.0,0,
18800,1859.3,36.0,207.7,67.3,0.0,0.0,0.0,0,
18900,1859.6,33.4,207.7,68.4,0.0,0.0,0.0,0,
19000,1860.8,34.0,207.7,69.5,0.0,0.0,0.0,0,
19100,1860.7,33.5,207.7,239.8,0.0,0.0,0.0,0,
19200,1861.0,34.1,207.6,240.5,0.0,0.0,0.0,0,
19300,1858.4,32.9,207.6,240.5,0.0,0.0,0.0,0,
19400,1857.4,34.9,207.7,240.3,0.0,0.0,0.0,0,
19600,1860.3,221.9,207.7,239.9,0.0,0.0,0.0,0,
19700,1868.8,236.6,206.3,82.2,0.0,0.0,0.0,0,
19800,1856.9,259.7,204.7,68.6,0.0,0.0,0.0,0,
19900,1881.9,291.5,200.3,67.0,0.0,0.0,0.0,0,
20000,1821.2,249.2,200.1,66.7,0.0,0.0,0.0,0,
20100,1865.2,253.7,197.8,66.8,0.0,0.0,0.0,0,
20200,1865.8,57.9,196.3,67.3,0.0,0.0,0.0,0,
20300,1856.4,35.3,196.3,67.1,0.0,0.0,0.0,0,
20400,1860.7,33.5,196.3,67.1,0.0,0.0,0.0,0,
20600,1858.6,33.2,196.4,68.2,0.0,0.0,0.0,0,
20700,1860.6,32.1,196.4,207.5,0.0,0.0,0.0,0,
20800,1860.3,32.1,196.4,240.1,0.0,0.0,0.0,0,
20900,1859.9,33.5,196.4,240.3,0.0,0.0,0.0,0,
21000,1860.5,31.6,196.4,240.3,0.0,0.0,0.0,0,
21100,1861.4,29.6,196.4,240.1,0.0,0.0,0.0,0,
21200,1858.7,217.2,196.3,239.9,0.0,0.0,0.0,0,
21300,1873.2,337.5,199.3,89.0,0.0,0.0,0.0,0,
21400,1838.6,290.4,204.3,67.9,0.0,0.0,0.0,0,
21600,1882.2,255.8,211.5,66.6,0.0,0.0,0.0,0,
21700,1854.1,271.0,214.9,67.0,0.0,0.0,0.0,0,
21800,1875.4,82.4,217.4,68.0,0.0,0.0,0.0,0,
21900,1845.3,34.9,219.0,93.0,0.0,0.0,0.0,0,
22000,1859.9,32.2,219.0,67.1,0.0,0.0,0.0,0,
22100,1856.4,32.4,219.0,66.7,0.0,0.0,0.0,0,
22200,1858.8,32.3,218.9,66.5,0.0,0.0,0.0,0,
22300,1862.7,30.1,218.9,74.5,0.0,0.0,0.0,0,
22400,1858.0,32.5,218.9,240.3,0.0,0.0,0.0,0,
22600,1862.1,36.7,218.9,240.4,0.0,0.0,0.0,0,
22700,1860.1,32.7,218.9,240.2,0.0,0.0,0.0,0,
22800,1861.0,212.7,218.9,240.1,0.0,0.0,0.0,0,
22900,1850.6,275.4,217.3,166.0,0.0,0.0,0.0,0,
23000,1871.9,269.6,215.6,68.6,0.0,0.0,0.0,0,
23100,1857.1,268.4,213.9,67.2,0.0,0.0,0.0,0,
23200,1885.0,301.7,208.4,66.9,0.0,0.0,0.0,0,
23300,1823.0,258.3,207.1,66.8,0.0,0.0,0.0,0,
23400,1866.6,112.2,204.8,67.0,0.0,0.0,0.0,0,
23600,1859.4,32.1,202.2,67.1,0.0,0.0,0.0,0,
23700,1858.8,34.7,202.2,67.3,0.0,0.0,0.0,0,
23800,1858.5,33.9,202.2,68.6,0.0,0.0,0.0,0,
23900,1858.8,32.4,202.2,82.8,0.0,0.0,0.0,0,
24000,1859.3,32.7,202.2,240.1,0.0,0.0,0.0,0,
24100,1862.1,32.9,202.2,240.0,0.0,0.0,0.0,0,
24200,1858.8,34.0,202.2,240.1,0.0,0.0,0.0,0,
24300,1860.8,33.4,202.2,240.3,0.0,0.0,0.0,0,
24400,1858.3,172.3,202.2,240.2,0.0,0.0,0.0,0,
24600,1874.2,292.9,204.3,71.3,0.0,0.0,0.0,0,
24700,1845.7,281.3,202.9,67.1,0.0,0.0,0.0,0,
24800,1843.7,261.6,201.3,66.7,0.0,0.0,0.0,0,
24900,1876.2,261.5,199.6,66.6,0.0,0.0,0.0,0,
25000,1851.5,162.5,201.1,67.1,0.0,0.0,0.0,0,
25100,1861.7,41.7,198.4,67.0,0.0,0.0,0.0,0,
25200,1862.9,33.8,198.4,67.0,0.0,0.0,0.0,0,
25300,1857.7,33.3,198.4,67.0,0.0,0.0,0.0,0,
25400,1861.7,33.2,198.5,67.1,0.0,0.0,0.0,0,
25600,1860.9,34.0,198.5,240.3,0.0,0.0,0.0,0,
25700,1859.5,34.1,198.5,240.1,0.0,0.0,0.0,0,
25800,1859.3,32.9,198.5,240.1,0.0,0.0,0.0,0,
25900,1858.5,32.2,198.5,240.2,0.0,0.0,0.0,0,
26000,1857.4,96.3,198.5,240.3,0.0,0.0,0.0,0,
26100,1874.5,289.6,197.5,239.6,0.0,0.0,0.0,0,
26200,1824.7,260.2,198.9,69.2,0.0,0.0,0.0,0,
26300,1871.9,277.5,197.0,67.1,0.0,0.0,0.0,0,
26400,1860.1,264.4,200.8,66.7,0.0,0.0,0.0,0,
26600,1826.8,262.3,204.8,66.8,0.0,0.0,0.0,0,
26700,1865.4,44.0,205.2,67.0,0.0,0.0,0.0,0,
26800,1868.0,32.9,205.3,67.0,0.0,0.0,0.0,0,
26900,1860.5,33.7,205.2,67.0,0.0,0.0,0.0,0,
27000,1862.0,35.0,205.2,67.1,0.0,0.0,0.0,0,
27100,1861.0,35.7,205.3,68.1,0.0,0.0,0.0,0,
27200,1860.5,34.0,205.2,239.5,0.0,0.0,0.0,0,
27300,1859.2,34.2,205.2,240.3,0.0,0.0,0.0,0,
27400,1861.4,36.2,205.3,240.3,0.0,0.0,0.0,0,
27600,1859.2,44.3,205.2,240.2,0.0,0.0,0.0,0,
27700,1857.8,241.6,205.6,240.0,0.0,0.0,0.0,0,
27800,1877.9,250.6,204.7,71.5,0.0,0.0,0.0,0,
27900,1865.1,254.5,204.9,67.4,0.0,0.0,0.0,0,
28000,1853.3,272.7,198.9,66.9,0.0,0.0,0.0,0,
28100,1843.3,223.7,193.7,66.8,0.0,0.0,0.0,0,
28200,1872.6,228.1,188.2,66.9,0.0,0.0,0.0,0,
28300,1860.0,55.9,185.3,67.0,0.0,0.0,0.0,0,
28400,1859.5,33.3,185.1,67.0,0.0,0.0,0.0,0,
28600,1861.1,33.5,185.2,67.1,0.0,0.0,0.0,0,
28700,1859.2,32.8,185.1,68.2,0.0,0.0,0.0,0,
28800,1859.0,32.8,185.1,237.9,0.0,0.0,0.0,0,
28900,1859.0,33.8,185.1,240.1,0.0,0.0,0.0,0,
29000,1859.3,32.6,185.1,240.2,0.0,0.0,0.0,0,
29100,1860.5,34.4,185.1,240.2,0.0,0.0,0.0,0,
29200,1860.2,38.5,185.1,240.2,0.0,0.0,0.0,0,
29300,1860.4,208.8,185.2,240.2,0.0,0.0,0.0,0,
29400,1885.7,327.9,184.9,99.1,0.0,0.0,0.0,0,
29600,1867.1,255.4,189.1,67.0,0.0,0.0,0.0,0,
29700,1861.5,246.5,190.3,66.6,0.0,0.0,0.0,0,
29800,1884.7,249.8,194.6,66.6,0.0,0.0,0.0,0,
29900,1835.8,70.5,194.5,67.1,0.0,0.0,0.0,0,
30000,1859.1,33.6,194.0,67.0,0.0,0.0,0.0,0,
30100,1860.1,36.7,194.0,66.9,0.0,0.0,0.0,0,
30200,1859.3,34.8,193.9,66.9,0.0,0.0,0.0,0,
30300,1858.6,35.8,194.0,67.2,0.0,0.0,0.0,0,
30400,1858.5,34.1,194.0,92.8,0.0,0.0,0.0,0,
30600,1859.5,34.5,194.0,240.6,0.0,0.0,0.0,0,
30700,1857.9,34.8,194.0,240.3,0.0,0.0,0.0,0,
30800,1860.0,33.3,194.0,240.1,0.0,0.0,0.0,0,
30900,1861.8,224.4,194.0,240.2,0.0,0.0,0.0,0,
31000,1838.6,292.4,196.4,111.8,0.0,0.0,0.0,0,
31100,1878.6,282.9,196.9,68.5,0.0,0.0,0.0,0,
31200,1864.6,270.2,202.5,66.9,0.0,0.0,0.0,0,
31300,1852.1,317.3,203.9,66.6,0.0,0.0,0.0,0,
31400,1843.6,228.9,205.8,66.7,0.0,0.0,0.0,0,
31600,1867.8,38.0,206.2,67.0,0.0,0.0,0.0,0,
31700,1859.4,36.5,206.2,67.1,0.0,0.0,0.0,0,
31800,1860.9,33.2,206.3,67.0,0.0,0.0,0.0,0,
31900,1860.4,34.8,206.2,67.0,0.0,0.0,0.0,0,
32000,1858.4,33.4,206.2,73.5,0.0,0.0,0.0,0,
32100,1862.6,34.3,206.2,240.3,0.0,0.0,0.0,0,
32200,1860.5,35.6,206.2,240.2,0.0,0.0,0.0,0,
32300,1859.7,33.5,206.2,240.0,0.0,0.0,0.0,0,
32400,1860.7,33.3,206.2,240.3,0.0,0.0,0.0,0,
32600,1851.4,279.5,205.4,238.7,0.0,0.0,0.0,0,
32700,1891.0,332.7,205.4,69.3,0.0,0.0,0.0,0,
32800,1819.0,266.4,202.2,67.2,0.0,0.0,0.0,0,
32900,1865.1,249.7,202.4,66.7,0.0,0.0,0.0,0,
33000,1868.1,260.7,199.2,66.6,0.0,0.0,0.0,0,
33100,1873.9,153.1,201.7,66.8,0.0,0.0,0.0,0,
33200,1845.5,42.0,199.9,67.0,0.0,0.0,0.0,0,
33300,1862.3,35.0,200.0,67.0,0.0,0.0,0.0,0,
33400,1858.6,36.4,199.9,67.0,0.0,0.0,0.0,0,
33600,1861.4,36.8,199.9,70.6,0.0,0.0,0.0,0,
33700,1860.5,34.5,199.9,240.2,0.0,0.0,0.0,0,
33800,1862.3,33.3,199.9,240.2,0.0,0.0,0.0,0,
33900,1860.0,33.9,199.9,240.3,0.0,0.0,0.0,0,
34000,1861.5,33.5,199.9,240.1,0.0,0.0,0.0,0,
34100,1862.7,106.0,199.9,240.0,0.0,0.0,0.0,0,
34200,1867.3,289.5,200.0,239.7,0.0,0.0,0.0,0,
34300,1842.7,267.5,200.6,70.4,0.0,0.0,0.0,0,
34400,1872.4,274.8,199.1,67.3,0.0,0.0,0.0,0,
34600,1862.5,308.5,201.5,66.6,0.0,0.0,0.0,0,
34700,1838.4,241.7,201.1,66.8,0.0,0.0,0.0,0,
34800,1857.8,45.6,201.5,67.1,0.0,0.0,0.0,0,
34900,1867.1,34.1,201.5,66.9,0.0,0.0,0.0,0,
35000,1860.4,34.5,201.5,66.8,0.0,0.0,0.0,0,
35100,1861.8,37.5,201.6,66.8,0.0,0.0,0.0,0,
35200,1861.6,36.3,201.6,68.0,0.0,0.0,0.0,0,
35300,1862.4,33.3,201.6,240.0,0.0,0.0,0.0,0,
35400,1859.7,35.0,201.6,240.2,0.0,0.0,0.0,0,
35600,1861.2,33.3,201.6,240.1,0.0,0.0,0.0,0,
35700,1861.8,55.7,201.6,240.0,0.0,0.0,0.0,0,
35800,1868.4,223.5,202.0,240.2,0.0,0.0,0.0,0,
35900,1843.1,282.7,199.5,71.0,0.0,0.0,0.0,0,
36000,1893.2,287.7,201.0,67.1,0.0,0.0,0.0,0,
36100,1823.2,264.4,196.6,66.6,0.0,0.0,0.0,0,
36200,1858.5,228.5,195.5,66.5,0.0,0.0,0.0,0,
36300,1867.9,236.6,192.7,66.7,0.0,0.0,0.0,0,
36400,1869.7,55.8,193.0,66.9,0.0,0.0,0.0,0,
36600,1859.6,35.8,192.6,66.8,0.0,0.0,0.0,0,
36700,1860.7,34.3,192.6,66.6,0.0,0.0,0.0,0,
36800,1860.3,29.2,192.5,66.7,0.0,0.0,0.0,0,
36900,1859.8,33.6,192.5,238.1,0.0,0.0,0.0,0,
37000,1862.0,35.2,192.5,240.2,0.0,0.0,0.0,0,
37100,1859.6,35.3,192.5,240.0,0.0,0.0,0.0,0,
37200,1861.1,37.4,192.5,240.1,0.0,0.0,0.0,0,
37300,1859.2,35.4,192.5,240.1,0.0,0.0,0.0,0,
37400,1859.8,215.0,192.5,240.3,0.0,0.0,0.0,0,
37600,1850.0,248.1,192.7,67.8,0.0,0.0,0.0,0,
37700,1867.9,247.1,192.7,66.9,0.0,0.0,0.0,0,
37800,1862.1,243.5,190.9,66.6,0.0,0.0,0.0,0,
37900,1869.6,271.4,191.5,66.6,0.0,0.0,0.0,0,
38000,1840.9,68.2,189.8,66.7,0.0,0.0,0.0,0,
38100,1866.8,39.5,188.5,67.0,0.0,0.0,0.0,0,
38200,1858.7,37.5,188.6,66.8,0.0,0.0,0.0,0,
38300,1862.5,38.3,188.6,66.9,0.0,0.0,0.0,0,
38400,1862.3,34.8,188.6,67.4,0.0,0.0,0.0,0,
38600,1861.4,32.5,188.7,239.9,0.0,0.0,0.0,0,
38700,1859.6,38.6,188.7,240.0,0.0,0.0,0.0,0,
38800,1858.8,31.5,188.7,240.2,0.0,0.0,0.0,0,
38900,1859.7,35.6,188.7,240.2,0.0,0.0,0.0,0,
39000,1863.3,198.0,188.7,240.1,0.0,0.0,0.0,0,
39100,1868.0,224.9,189.1,152.9,0.0,0.0,0.0,0,
39200,1853.8,275.7,183.9,68.3,0.0,0.0,0.0,0,
39300,1888.8,260.4,185.7,66.9,0.0,0.0,0.0,0,
39400,1832.3,269.1,183.8,66.5,0.0,0.0,0.0,0,
39600,1870.5,93.0,183.6,66.7,0.0,0.0,0.0,0,
39700,1854.2,35.6,182.9,66.8,0.0,0.0,0.0,0,
39800,1860.9,34.9,182.8,66.7,0.0,0.0,0.0,0,
39900,1860.4,37.9,182.8,66.8,0.0,0.0,0.0,0,
40000,1862.8,34.0,182.8,67.1,0.0,0.0,0.0,0,
40100,1857.9,33.4,182.8,84.1,0.0,0.0,0.0,0,
40200,1862.3,36.4,182.8,239.9,0.0,0.0,0.0,0,
40300,1859.3,35.4,182.8,240.1,0.0,0.0,0.0,0,
40400,1860.5,35.8,182.8,240.2,0.0,0.0,0.0,0,
40600,1861.7,170.1,182.9,240.5,0.0,0.0,0.0,0,
40700,1869.5,261.0,183.5,238.9,0.0,0.0,0.0,0,
40800,1845.9,308.5,187.8,68.3,0.0,0.0,0.0,0,
40900,1852.8,247.0,188.3,66.8,0.0,0.0,0.0,0,
41000,1867.7,222.6,190.5,66.5,0.0,0.0,0.0,0,
41100,1863.0,253.5,189.5,66.6,0.0,0.0,0.0,0,
41200,1876.7,134.0,190.6,66.8,0.0,0.0,0.0,0,
41300,1843.0,40.4,189.8,66.8,0.0,0.0,0.0,0,
41400,1859.4,36.2,189.9,66.9,0.0,0.0,0.0,0,
41600,1859.2,31.3,189.9,66.3,0.0,0.0,0.0,0,
41700,1859.9,36.5,189.9,68.7,0.0,0.0,0.0,0,
41800,1861.7,34.8,189.9,240.1,0.0,0.0,0.0,0,
41900,1861.3,33.0,189.9,240.5,0.0,0.0,0.0,0,
42000,1861.2,32.5,189.9,240.3,0.0,0.0,0.0,0,
42100,1863.1,32.7,189.8,240.1,0.0,0.0,0.0,0,
42200,1858.2,129.8,189.8,240.2,0.0,0.0,0.0,0,
42300,1853.7,270.3,189.4,239.5,0.0,0.0,0.0,0,
42400,1860.5,245.5,190.5,69.5,0.0,0.0,0.0,0,
42600,1884.1,259.3,189.5,66.6,0.0,0.0,0.0,0,
42700,1832.9,262.8,191.0,66.5,0.0,0.0,0.0,0,
42800,1848.3,217.9,190.2,66.6,0.0,0.0,0.0,0,
42900,1869.1,44.1,191.8,66.8,0.0,0.0,0.0,0,
43000,1866.0,34.0,191.7,66.8,0.0,0.0,0.0,0,
43100,1858.4,37.3,191.7,66.6,0.0,0.0,0.0,0,
43200,1861.3,33.8,191.7,66.4,0.0,0.0,0.0,0,
43300,1862.1,31.6,191.7,67.2,0.0,0.0,0.0,0,
43400,1859.5,35.0,191.7,240.0,0.0,0.0,0.0,0,
43600,1859.8,36.0,191.7,240.2,0.0,0.0,0.0,0,
43700,1860.4,33.2,191.7,240.2,0.0,0.0,0.0,0,
43800,1861.4,68.4,191.8,240.4,0.0,0.0,0.0,0,
43900,1872.3,216.7,191.8,240.1,0.0,0.0,0.0,0,
44000,1865.8,282.1,191.4,71.8,0.0,0.0,0.0,0,
44100,1847.0,304.5,195.7,67.4,0.0,0.0,0.0,0,
44200,1847.5,256.6,193.9,66.8,0.0,0.0,0.0,0,
44300,1861.0,226.6,195.8,66.5,0.0,0.0,0.0,0,
44400,1864.0,260.2,195.3,66.6,0.0,0.0,0.0,0,
44600,1837.3,36.1,197.3,66.7,0.0,0.0,0.0,0,
44700,1860.3,34.1,197.3,66.5,0.0,0.0,0.0,0,
44800,1860.0,35.6,197.3,66.5,0.0,0.0,0.0,0,
44900,1861.1,30.3,197.4,66.6,0.0,0.0,0.0,0,
45000,1858.4,34.1,197.3,238.5,0.0,0.0,0.0,0,
45100,1859.5,34.4,197.4,240.0,0.0,0.0,0.0,0,
45200,1859.8,36.3,197.4,240.2,0.0,0.0,0.0,0,
45300,1859.9,33.4,197.4,240.2,0.0,0.0,0.0,0,
45400,1860.9,31.5,197.4,240.0,0.0,0.0,0.0,0,
45600,1853.8,289.6,198.0,94.0,0.0,0.0,0.0,0,
45700,1859.1,249.3,197.2,67.4,0.0,0.0,0.0,0,
45800,1865.3,254.1,196.9,66.6,0.0,0.0,0.0,0,
45900,1874.5,255.6,195.0,66.4,0.0,0.0,0.0,0,
46000,1848.7,260.5,196.4,66.5,0.0,0.0,0.0,0,
46100,1844.7,66.8,193.3,66.7,0.0,0.0,0.0,0,
46200,1871.7,33.9,193.1,66.8,0.0,0.0,0.0,0,
46300,1859.4,35.6,193.1,66.6,0.0,0.0,0.0,0,
46400,1860.1,35.2,193.0,66.3,0.0,0.0,0.0,0,
46600,1860.4,31.9,193.1,165.8,0.0,0.0,0.0,0,
46700,1862.0,36.6,193.0,240.3,0.0,0.0,0.0,0,
46800,1861.2,33.0,193.1,240.1,0.0,0.0,0.0,0,
46900,1861.6,33.7,193.0,240.0,0.0,0.0,0.0,0,
47000,1860.4,35.0,193.0,240.0,0.0,0.0,0.0,0,
47100,1860.5,210.7,193.0,239.9,0.0,0.0,0.0,0,
47200,1858.1,243.7,194.0,140.0,0.0,0.0,0.0,0,
47300,1872.0,275.1,192.4,68.2,0.0,0.0,0.0,0,
47400,1854.1,278.2,192.9,66.8,0.0,0.0,0.0,0,
47600,1864.0,232.8,191.5,66.5,0.0,0.0,0.0,0,
47700,1863.5,89.2,193.0,66.7,0.0,0.0,0.0,0,
47800,1864.2,35.8,191.8,66.8,0.0,0.0,0.0,0,
47900,1858.5,35.3,191.9,66.7,0.0,0.0,0.0,0,
48000,1859.2,34.0,191.9,66.6,0.0,0.0,0.0,0,
48100,1860.1,33.5,191.9,66.4,0.0,0.0,0.0,0,
48200,1860.5,35.4,191.9,73.2,0.0,0.0,0.0,0,
48300,1860.9,35.2,191.9,240.0,0.0,0.0,0.0,0,
48400,1859.6,34.5,191.9,240.3,0.0,0.0,0.0,0,
48600,1860.1,36.9,191.9,240.1,0.0,0.0,0.0,0,
48700,1862.2,189.4,192.0,240.3,0.0,0.0,0.0,0,
48800,1871.6,307.9,192.0,237.9,0.0,0.0,0.0,0,
48900,1839.2,276.3,195.2,68.5,0.0,0.0,0.0,0,
49000,1857.3,281.9,193.1,66.9,0.0,0.0,0.0,0,
49100,1875.2,228.1,197.3,66.6,0.0,0.0,0.0,0,
49200,1865.6,264.4,195.8,66.5,0.0,0.0,0.0,0,
49300,1854.0,133.9,197.8,66.6,0.0,0.0,0.0,0,
49400,1852.7,38.4,196.9,66.8,0.0,0.0,0.0,0,
49600,1858.7,35.8,196.9,66.3,0.0,0.0,0.0,0,
49700,1859.7,35.8,196.9,66.0,0.0,0.0,0.0,0,
49800,1860.1,34.3,196.9,69.4,0.0,0.0,0.0,0,
49900,1861.9,29.7,196.9,240.3,0.0,0.0,0.0,0,
50000,1861.0,33.1,196.9,240.2,0.0,0.0,0.0,0,
50100,1861.3,34.8,196.9,240.2,0.0,0.0,0.0,0,
50200,1860.3,35.4,196.9,240.3,0.0,0.0,0.0,0,
50300,1861.4,134.2,196.9,240.4,0.0,0.0,0.0,0,
50400,1854.9,258.3,196.1,240.1,0.0,0.0,0.0,0,
50600,1859.3,275.6,193.9,67.2,0.0,0.0,0.0,0,
50700,1869.5,261.4,191.5,66.7,0.0,0.0,0.0,0,
50800,1830.0,244.2,190.8,66.5,0.0,0.0,0.0,0,
50900,1864.5,217.7,188.7,66.5,0.0,0.0,0.0,0,
51000,1860.4,43.8,189.1,66.7,0.0,0.0,0.0,0,
51100,1865.2,34.7,189.1,66.6,0.0,0.0,0.0,0,
51200,1859.1,31.8,189.1,66.4,0.0,0.0,0.0,0,
51300,1859.5,33.9,189.0,66.2,0.0,0.0,0.0,0,
51400,1857.8,33.6,189.0,67.2,0.0,0.0,0.0,0,
51600,1860.2,33.4,189.0,240.2,0.0,0.0,0.0,0,
51700,1862.1,32.4,189.1,240.2,0.0,0.0,0.0,0,
51800,1860.8,33.9,189.1,240.3,0.0,0.0,0.0,0,
51900,1860.4,82.0,189.0,240.4,0.0,0.0,0.0,0,
52000,1866.1,237.6,189.9,240.3,0.0,0.0,0.0,0,
52100,1870.4,307.2,188.8,72.0,0.0,0.0,0.0,0,
52200,1829.1,274.4,190.9,67.0,0.0,0.0,0.0,0,
52300,1858.2,281.4,189.3,66.5,0.0,0.0,0.0,0,
52400,1876.2,211.1,191.9,66.4,0.0,0.0,0.0,0,
52600,1857.1,46.8,192.5,66.7,0.0,0.0,0.0,0,
52700,1849.0,34.2,191.8,66.7,0.0,0.0,0.0,0,
52800,1859.4,32.8,191.7,66.4,0.0,0.0,0.0,0,
52900,1861.0,29.6,191.7,66.1,0.0,0.0,0.0,0,
53000,1859.2,31.7,191.7,66.1,0.0,0.0,0.0,0,
53100,1860.5,31.6,191.6,238.8,0.0,0.0,0.0,0,
53200,1859.0,32.6,191.6,240.2,0.0,0.0,0.0,0,
53300,1859.0,34.2,191.5,240.2,0.0,0.0,0.0,0,
53400,1858.9,32.7,191.5,240.0,0.0,0.0,0.0,0,
53600,1858.8,239.8,191.6,240.2,0.0,0.0,0.0,0,
53700,1841.1,303.3,192.8,82.6,0.0,0.0,0.0,0,
53800,1882.5,253.1,197.4,67.3,0.0,0.0,0.0,0,
53900,1854.0,273.7,200.4,66.6,0.0,0.0,0.0,0,
54000,1874.1,279.3,200.8,66.5,0.0,0.0,0.0,0,
54100,1825.9,242.9,202.4,66.7,0.0,0.0,0.0,0,
54200,1865.2,61.8,201.5,66.8,0.0,0.0,0.0,0,
54300,1869.3,35.0,201.3,66.8,0.0,0.0,0.0,0,
54400,1858.7,35.7,201.4,66.4,0.0,0.0,0.0,0,
54600,1860.4,34.7,201.4,65.6,0.0,0.0,0.0,0,
54700,1859.8,35.7,201.5,170.6,0.0,0.0,0.0,0,
54800,1863.7,34.8,201.5,240.2,0.0,0.0,0.0,0,
54900,1858.7,37.3,201.5,240.2,0.0,0.0,0.0,0,
55000,1858.0,34.4,201.6,240.2,0.0,0.0,0.0,0,
55100,1858.2,37.1,201.6,240.0,0.0,0.0,0.0,0,
55200,1860.5,205.2,201.6,239.8,0.0,0.0,0.0,0,
55300,1860.6,287.7,202.4,93.8,0.0,0.0,0.0,0,
55400,1889.4,315.7,202.8,67.8,0.0,0.0,0.0,0,
55600,1859.9,268.5,200.3,66.5,0.0,0.0,0.0,0,
55700,1870.7,227.5,201.2,66.4,0.0,0.0,0.0,0,
55800,1864.2,81.6,202.8,66.7,0.0,0.0,0.0,0,
55900,1851.3,36.5,201.2,66.7,0.0,0.0,0.0,0,
56000,1858.7,34.4,201.2,66.6,0.0,0.0,0.0,0,
56100,1860.8,33.6,201.2,66.3,0.0,0.0,0.0,0,
56200,1859.1,33.7,201.2,65.9,0.0,0.0,0.0,0,
56300,1859.0,35.8,201.3,84.1,0.0,0.0,0.0,0,
56400,1858.7,33.8,201.3,240.5,0.0,0.0,0.0,0,
56600,1861.3,34.1,201.3,240.5,0.0,0.0,0.0,0,
56700,1861.6,35.8,201.2,240.4,0.0,0.0,0.0,0,
56800,1860.2,188.1,201.3,240.4,0.0,0.0,0.0,0,
56900,1875.1,303.6,201.9,238.4,0.0,0.0,0.0,0,
57000,1831.7,301.6,200.2,67.7,0.0,0.0,0.0,0,
57100,1878.4,270.4,200.2,66.6,0.0,0.0,0.0,0,
57200,1854.8,272.3,202.8,66.4,0.0,0.0,0.0,0,
57300,1881.1,289.1,201.9,66.5,0.0,0.0,0.0,0,
57400,1833.2,126.1,203.8,66.7,0.0,0.0,0.0,0,
57600,1860.2,32.7,203.8,66.7,0.0,0.0,0.0,0,
57700,1859.9,32.7,203.8,66.2,0.0,0.0,0.0,0,
57800,1858.2,33.9,203.8,65.6,0.0,0.0,0.0,0,
57900,1858.8,34.9,203.8,68.2,0.0,0.0,0.0,0,
58000,1859.8,31.4,203.8,240.5,0.0,0.0,0.0,0,
58100,1858.8,34.2,203.8,240.5,0.0,0.0,0.0,0,
58200,1861.5,31.8,203.7,240.4,0.0,0.0,0.0,0,
58300,1858.3,33.3,203.7,240.1,0.0,0.0,0.0,0,
58400,1858.7,142.1,203.7,240.3,0.0,0.0,0.0,0,
58600,1853.2,272.8,202.5,68.6,0.0,0.0,0.0,0,
58700,1889.5,304.2,200.5,66.9,0.0,0.0,0.0,0,
58800,1826.1,270.3,198.4,66.5,0.0,0.0,0.0,0,
58900,1856.7,239.0,197.7,66.5,0.0,0.0,0.0,0,
59000,1863.7,216.4,194.5,66.6,0.0,0.0,0.0,0,
59100,1858.1,43.0,196.4,66.6,0.0,0.0,0.0,0,
59200,1861.6,35.8,196.3,66.7,0.0,0.0,0.0,0,
59300,1858.2,32.5,196.4,66.4,0.0,0.0,0.0,0,
59400,1858.9,32.4,196.4,66.0,0.0,0.0,0.0,0,
59600,1858.3,34.5,196.4,240.2,0.0,0.0,0.0,0,
59700,1860.5,32.1,196.4,240.0,0.0,0.0,0.0,0,
59800,1859.5,36.0,196.4,240.1,0.0,0.0,0.0,0,
59900,1860.6,34.7,196.5,240.4,0.0,0.0,0.0,0,
60000,1861.3,84.5,196.4,240.2,0.0,0.0,0.0,0,
60100,1866.2,250.6,196.9,239.9,0.0,0.0,0.0,0,
60200,1866.3,313.7,197.2,69.9,0.0,0.0,0.0,0,
60300,1835.9,272.1,199.4,67.1,0.0,0.0,0.0,0,
60400,1873.0,272.6,198.4,66.6,0.0,0.0,0.0,0,
60600,1878.7,281.6,199.3,66.5,0.0,0.0,0.0,0,
60700,1834.5,49.5,200.9,66.7,0.0,0.0,0.0,0,
60800,1864.2,31.8,200.0,66.7,0.0,0.0,0.0,0,
60900,1858.3,31.6,199.9,66.4,0.0,0.0,0.0,0,
61000,1857.8,33.1,199.9,65.9,0.0,0.0,0.0,0,
61100,1860.3,32.2,199.9,65.5,0.0,0.0,0.0,0,
61200,1859.5,32.7,199.9,238.6,0.0,0.0,0.0,0,
61300,1859.0,35.0,199.9,240.3,0.0,0.0,0.0,0,
61400,1859.5,32.7,199.9,240.4,0.0,0.0,0.0,0,
61600,1860.8,33.5,199.8,239.7,0.0,0.0,0.0,0,
61700,1859.1,205.8,199.8,240.1,0.0,0.0,0.0,0,
61800,1862.8,273.9,198.6,72.0,0.0,0.0,0.0,0,
61900,1857.3,276.4,197.0,67.2,0.0,0.0,0.0,0,
62000,1888.7,286.2,199.9,66.6,0.0,0.0,0.0,0,
62100,1832.6,285.8,198.6,66.4,0.0,0.0,0.0,0,
62200,1849.7,236.1,198.9,66.5,0.0,0.0,0.0,0,
62300,1862.4,57.7,196.8,66.6,0.0,0.0,0.0,0,
62400,1862.7,34.4,196.5,66.6,0.0,0.0,0.0,0,
62600,1857.2,34.0,196.5,65.8,0.0,0.0,0.0,0,
62700,1860.9,31.9,196.6,54.6,0.0,0.0,0.0,0,
62800,1857.9,32.3,196.6,135.1,0.0,0.0,0.0,0,
62900,1858.0,32.6,196.5,240.1,0.0,0.0,0.0,0,
63000,1859.5,33.8,196.5,240.2,0.0,0.0,0.0,0,
63100,1861.3,36.8,196.5,240.2,0.0,0.0,0.0,0,
63200,1861.8,37.5,196.5,240.1,0.0,0.0,0.0,0,
63300,1860.0,207.3,196.6,240.2,0.0,0.0,0.0,0,
63400,1873.0,282.3,199.3,142.8,0.0,0.0,0.0,0,
63600,1837.8,250.4,202.1,66.6,0.0,0.0,0.0,0,
63700,1867.2,261.1,201.2,66.4,0.0,0.0,0.0,0,
63800,1862.4,241.8,201.0,66.5,0.0,0.0,0.0,0,
63900,1877.3,75.7,201.9,66.6,0.0,0.0,0.0,0,
64000,1837.6,34.6,200.1,66.6,0.0,0.0,0.0,0,
64100,1859.1,34.0,200.1,66.5,0.0,0.0,0.0,0,
64200,1859.9,34.8,200.1,66.2,0.0,0.0,0.0,0,
64300,1859.8,34.1,200.1,65.8,0.0,0.0,0.0,0,
64400,1858.1,32.5,200.1,87.4,0.0,0.0,0.0,0,
64600,1858.8,36.5,200.1,239.9,0.0,0.0,0.0,0,
64700,1859.2,33.4,200.1,239.5,0.0,0.0,0.0,0,
64800,1860.1,35.4,200.1,239.9,0.0,0.0,0.0,0,
64900,1861.2,212.8,200.1,240.3,0.0,0.0,0.0,0,
65000,1849.3,289.4,200.0,140.7,0.0,0.0,0.0,0,
65100,1855.3,274.3,199.4,67.9,0.0,0.0,0.0,0,
65200,1868.1,262.8,197.0,66.7,0.0,0.0,0.0,0,
65300,1873.5,260.0,200.1,66.5,0.0,0.0,0.0,0,
65400,1849.6,294.2,197.3,66.5,0.0,0.0,0.0,0,
65600,1876.2,37.4,198.9,66.8,0.0,0.0,0.0,0,
65700,1858.9,34.4,198.9,66.6,0.0,0.0,0.0,0,
65800,1859.7,36.0,198.9,66.3,0.0,0.0,0.0,0,
65900,1858.5,34.6,198.9,65.9,0.0,0.0,0.0,0,
66000,1860.0,33.1,198.9,68.8,0.0,0.0,0.0,0,
66100,1859.4,34.8,198.9,240.4,0.0,0.0,0.0,0,
66200,1859.9,34.0,198.9,240.1,0.0,0.0,0.0,0,
66300,1859.7,35.0,198.9,240.3,0.0,0.0,0.0,0,
66400,1859.6,37.1,198.8,240.6,0.0,0.0,0.0,0,
66600,1858.2,273.4,198.0,238.0,0.0,0.0,0.0,0,
66700,1869.2,261.2,199.5,68.4,0.0,0.0,0.0,0,
66800,1861.8,327.1,197.8,66.9,0.0,0.0,0.0,0,
66900,1832.4,256.1,197.4,66.5,0.0,0.0,0.0,0,
67000,1861.9,239.3,199.2,66.5,0.0,0.0,0.0,0,
67100,1868.1,191.2,197.7,66.6,0.0,0.0,0.0,0,
67200,1856.4,43.5,198.7,66.6,0.0,0.0,0.0,0,
67300,1861.0,36.8,198.7,66.6,0.0,0.0,0.0,0,
67400,1859.4,34.5,198.7,66.1,0.0,0.0,0.0,0,
67600,1860.7,32.1,198.6,57.4,0.0,0.0,0.0,0,
67700,1860.5,34.9,198.6,240.3,0.0,0.0,0.0,0,
67800,1861.9,34.9,198.6,240.4,0.0,0.0,0.0,0,
67900,1859.9,34.9,198.6,240.3,0.0,0.0,0.0,0,
68000,1859.8,32.6,198.7,240.2,0.0,0.0,0.0,0,
68100,1861.6,97.6,198.7,239.9,0.0,0.0,0.0,0,
68200,1876.7,296.7,198.8,239.5,0.0,0.0,0.0,0,
68300,1838.6,287.0,200.3,68.5,0.0,0.0,0.0,0,
68400,1850.8,273.4,201.2,67.1,0.0,0.0,0.0,0,
68600,1864.3,261.8,202.3,66.5,0.0,0.0,0.0,0,
68700,1857.3,301.5,203.5,66.5,0.0,0.0,0.0,0,
68800,1836.1,49.4,203.1,66.7,0.0,0.0,0.0,0,
68900,1870.1,36.5,203.0,66.6,0.0,0.0,0.0,0,
69000,1859.7,33.7,203.0,66.1,0.0,0.0,0.0,0,
69100,1860.0,33.9,203.0,56.5,0.0,0.0,0.0,0,
69200,1858.4,36.6,203.0,50.7,0.0,0.0,0.0,0,
69300,1860.6,35.2,203.0,239.7,0.0,0.0,0.0,0,
69400,1859.5,35.8,203.0,240.2,0.0,0.0,0.0,0,
69600,1858.7,35.3,203.0,240.1,0.0,0.0,0.0,0,
69700,1860.1,35.3,203.0,240.0,0.0,0.0,0.0,0,
69800,1862.1,203.6,203.2,239.9,0.0,0.0,0.0,0,
69900,1866.8,260.6,201.3,72.0,0.0,0.0,0.0,0,
70000,1857.8,256.6,198.0,67.5,0.0,0.0,0.0,0,
70100,1871.5,279.3,195.6,66.7,0.0,0.0,0.0,0,
70200,1830.2,252.5,190.6,66.4,0.0,0.0,0.0,0,
70300,1863.4,219.2,188.7,66.5,0.0,0.0,0.0,0,
70400,1860.6,56.2,184.8,66.6,0.0,0.0,0.0,0,
70600,1861.0,34.2,184.2,66.4,0.0,0.0,0.0,0,
70700,1857.6,31.8,184.2,66.0,0.0,0.0,0.0,0,
70800,1860.4,34.4,184.2,65.5,0.0,0.0,0.0,0,
70900,1859.0,35.4,184.2,177.5,0.0,0.0,0.0,0,
71000,1862.1,34.0,184.2,240.6,0.0,0.0,0.0,0,
71100,1859.6,36.4,184.2,240.6,0.0,0.0,0.0,0,
71200,1860.6,34.6,184.2,240.3,0.0,0.0,0.0,0,
71300,1859.3,34.6,184.2,240.2,0.0,0.0,0.0,0,
71400,1861.3,227.6,184.2,240.2,0.0,0.0,0.0,0,
71600,1830.9,316.5,190.0,67.4,0.0,0.0,0.0,0,
71700,1855.2,267.9,195.1,66.6,0.0,0.0,0.0,0,
71800,1875.8,262.0,198.4,66.5,0.0,0.0,0.0,0,
71900,1867.7,257.8,202.1,66.6,0.0,0.0,0.0,0,
72000,1860.5,77.3,205.1,66.7,0.0,0.0,0.0,0,
72100,1849.3,36.3,204.8,66.8,0.0,0.0,0.0,0,
72200,1858.0,37.7,204.7,66.6,0.0,0.0,0.0,0,
72300,1861.3,34.1,204.8,66.3,0.0,0.0,0.0,0,
72400,1859.8,33.7,204.8,66.0,0.0,0.0,0.0,0,
72600,1857.8,35.5,204.8,240.5,0.0,0.0,0.0,0,
72700,1860.7,33.2,204.8,240.4,0.0,0.0,0.0,0,
72800,1859.2,32.5,204.8,240.3,0.0,0.0,0.0,0,
72900,1860.7,37.4,204.8,240.4,0.0,0.0,0.0,0,
73000,1861.2,208.3,204.8,240.1,0.0,0.0,0.0,0,
73100,1843.1,266.3,204.1,94.4,0.0,0.0,0.0,0,
73200,1877.7,265.6,203.5,67.9,0.0,0.0,0.0,0,
73300,1853.0,276.7,198.2,66.8,0.0,0.0,0.0,0,
73400,1880.5,271.1,197.1,66.5,0.0,0.0,0.0,0,
73600,1858.9,109.5,191.6,66.6,0.0,0.0,0.0,0,
73700,1868.6,38.8,190.5,66.9,0.0,0.0,0.0,0,
73800,1858.7,32.3,190.5,66.7,0.0,0.0,0.0,0,
73900,1859.7,35.0,190.5,66.5,0.0,0.0,0.0,0,
74000,1858.6,34.0,190.5,66.1,0.0,0.0,0.0,0,
74100,1859.2,34.3,190.5,71.5,0.0,0.0,0.0,0,
74200,1860.6,36.7,190.5,240.3,0.0,0.0,0.0,0,
74300,1860.5,33.4,190.5,240.3,0.0,0.0,0.0,0,
74400,1861.0,34.9,190.6,240.4,0.0,0.0,0.0,0,
74600,1860.8,133.0,190.6,240.2,0.0,0.0,0.0,0,
74700,1857.4,267.4,189.5,238.3,0.0,0.0,0.0,0,
74800,1884.7,269.7,189.4,68.6,0.0,0.0,0.0,0,
74900,1832.0,294.9,187.2,67.0,0.0,0.0,0.0,0,
75000,1855.8,255.7,185.9,66.6,0.0,0.0,0.0,0,
75100,1867.8,223.7,188.4,66.5,0.0,0.0,0.0,0,
75200,1868.0,172.5,186.9,66.6,0.0,0.0,0.0,0,
75300,1849.1,42.2,187.9,66.7,0.0,0.0,0.0,0,
75400,1862.5,33.0,187.9,66.6,0.0,0.0,0.0,0,
75600,1858.2,35.5,188.0,65.7,0.0,0.0,0.0,0,
75700,1860.8,35.3,188.0,66.3,0.0,0.0,0.0,0,
75800,1860.0,34.6,188.0,240.3,0.0,0.0,0.0,0,
75900,1861.8,34.1,188.0,240.4,0.0,0.0,0.0,0,
76000,1859.8,33.8,188.0,240.3,0.0,0.0,0.0,0,
76100,1858.1,33.7,188.0,240.5,0.0,0.0,0.0,0,
76200,1858.7,106.8,187.9,240.4,0.0,0.0,0.0,0,
76300,1875.9,304.6,188.4,239.9,0.0,0.0,0.0,0,
76400,1829.2,308.6,191.4,69.6,0.0,0.0,0.0,0,
76600,1858.5,296.8,200.4,66.5,0.0,0.0,0.0,0,
76700,1878.0,284.2,203.4,66.4,0.0,0.0,0.0,0,
76800,1831.5,272.7,204.5,66.6,0.0,0.0,0.0,0,
76900,1850.6,44.9,205.0,66.7,0.0,0.0,0.0,0,
77000,1869.6,35.3,204.9,66.6,0.0,0.0,0.0,0,
77100,1860.5,36.3,204.9,66.2,0.0,0.0,0.0,0,
77200,1857.7,33.1,204.9,65.5,0.0,0.0,0.0,0,
77300,1858.4,32.7,204.9,54.2,0.0,0.0,0.0,0,
77400,1859.2,31.8,204.9,239.5,0.0,0.0,0.0,0,
77600,1859.3,33.9,204.9,240.3,0.0,0.0,0.0,0,
77700,1859.9,33.1,204.8,240.0,0.0,0.0,0.0,0,
77800,1858.8,50.9,204.8,240.0,0.0,0.0,0.0,0,
77900,1863.9,204.9,205.1,240.0,0.0,0.0,0.0,0,
78000,1846.3,303.2,203.9,71.2,0.0,0.0,0.0,0,
78100,1894.9,298.8,201.1,67.1,0.0,0.0,0.0,0,
78200,1827.3,299.0,202.1,66.6,0.0,0.0,0.0,0,
78300,1856.9,271.4,199.8,66.5,0.0,0.0,0.0,0,
78400,1862.9,225.4,201.8,66.5,0.0,0.0,0.0,0,
78600,1855.7,36.4,201.0,66.7,0.0,0.0,0.0,0,
78700,1858.9,33.4,201.0,66.4,0.0,0.0,0.0,0,
78800,1858.5,30.8,201.0,66.0,0.0,0.0,0.0,0,
78900,1858.3,33.6,201.0,65.5,0.0,0.0,0.0,0,
79000,1861.7,31.5,201.0,198.2,0.0,0.0,0.0,0,
79100,1858.1,34.1,201.0,240.3,0.0,0.0,0.0,0,
79200,1860.3,31.4,201.0,240.1,0.0,0.0,0.0,0,
79300,1858.3,31.3,201.0,240.2,0.0,0.0,0.0,0,
79400,1859.5,33.1,201.0,240.3,0.0,0.0,0.0,0,
79600,1864.4,310.8,203.6,81.5,0.0,0.0,0.0,0,
79700,1842.3,292.8,203.0,67.6,0.0,0.0,0.0,0,
79800,1862.4,258.8,203.1,66.7,0.0,0.0,0.0,0,
79900,1865.5,297.0,203.4,66.5,0.0,0.0,0.0,0,
80000,1877.0,283.8,205.2,66.5,0.0,0.0,0.0,0,
80100,1838.9,68.2,205.9,66.7,0.0,0.0,0.0,0,
80200,1861.0,33.3,204.0,66.8,0.0,0.0,0.0,0,
80300,1859.4,33.3,204.0,66.6,0.0,0.0,0.0,0,
80400,1861.9,33.8,204.0,66.3,0.0,0.0,0.0,0,
80600,1858.8,34.5,204.0,102.3,0.0,0.0,0.0,0,
80700,1858.1,33.6,204.0,239.9,0.0,0.0,0.0,0,
80800,1860.0,33.9,204.0,240.1,0.0,0.0,0.0,0,
80900,1858.7,33.4,204.0,240.2,0.0,0.0,0.0,0,
81000,1859.9,32.9,204.1,240.2,0.0,0.0,0.0,0,
81100,1860.3,218.8,204.0,240.1,0.0,0.0,0.0,0,
81200,1855.5,282.1,203.2,122.1,0.0,0.0,0.0,0,
81300,1859.9,293.8,206.0,68.0,0.0,0.0,0.0,0,
81400,1883.1,299.4,208.0,66.8,0.0,0.0,0.0,0,
81600,1838.4,285.5,207.3,66.4,0.0,0.0,0.0,0,
81700,1877.3,107.4,210.1,66.6,0.0,0.0,0.0,0,
81800,1856.8,38.7,209.8,66.8,0.0,0.0,0.0,0,
81900,1858.4,35.2,209.8,66.5,0.0,0.0,0.0,0,
82000,1861.5,32.5,209.8,66.2,0.0,0.0,0.0,0,
82100,1859.6,34.9,209.8,65.7,0.0,0.0,0.0,0,
82200,1857.5,34.9,209.8,72.0,0.0,0.0,0.0,0,
82300,1859.0,33.1,209.8,240.2,0.0,0.0,0.0,0,
82400,1859.6,31.8,209.8,240.2,0.0,0.0,0.0,0,
82600,1861.3,34.0,209.8,240.5,0.0,0.0,0.0,0,
82700,1858.7,149.5,209.8,240.0,0.0,0.0,0.0,0,
82800,1871.8,284.7,210.2,238.5,0.0,0.0,0.0,0,
82900,1870.7,315.1,210.7,69.3,0.0,0.0,0.0,0,
83000,1828.3,293.0,206.7,67.2,0.0,0.0,0.0,0,
83100,1869.5,249.9,206.9,66.6,0.0,0.0,0.0,0,
83200,1859.3,271.0,205.4,66.4,0.0,0.0,0.0,0,
83300,1885.9,162.3,203.0,66.6,0.0,0.0,0.0,0,
83400,1833.0,39.3,202.2,66.8,0.0,0.0,0.0,0,
83600,1860.1,34.7,202.1,66.2,0.0,0.0,0.0,0,
83700,1856.1,32.2,202.1,65.6,0.0,0.0,0.0,0,
83800,1860.0,31.1,202.2,66.0,0.0,0.0,0.0,0,
83900,1860.2,32.4,202.1,240.1,0.0,0.0,0.0,0,
84000,1861.2,33.2,202.1,240.3,0.0,0.0,0.0,0,
84100,1859.8,34.2,202.1,240.5,0.0,0.0,0.0,0,
84200,1860.1,32.0,202.1,240.4,0.0,0.0,0.0,0,
84300,1860.3,123.3,202.1,240.3,0.0,0.0,0.0,0,
84400,1865.7,291.3,203.1,240.0,0.0,0.0,0.0,0,
84600,1871.3,292.2,206.3,66.9,0.0,0.0,0.0,0,
84700,1877.2,293.3,208.0,66.5,0.0,0.0,0.0,0,
84800,1840.9,289.1,210.5,66.4,0.0,0.0,0.0,0,
84900,1845.0,256.7,209.7,66.6,0.0,0.0,0.0,0,
85000,1857.4,42.7,210.4,66.7,0.0,0.0,0.0,0,
85100,1868.3,35.4,210.4,66.6,0.0,0.0,0.0,0,
85200,1858.8,31.6,210.4,66.1,0.0,0.0,0.0,0,
85300,1860.4,34.0,210.4,56.2,0.0,0.0,0.0,0,
85400,1860.9,33.2,210.4,48.8,0.0,0.0,0.0,0,
85600,1861.5,32.5,210.4,240.2,0.0,0.0,0.0,0,
85700,1858.5,33.2,210.4,240.2,0.0,0.0,0.0,0,
85800,1858.4,33.1,210.4,240.1,0.0,0.0,0.0,0,
85900,1861.6,83.1,210.4,240.1,0.0,0.0,0.0,0,
86000,1874.6,222.5,210.7,240.2,0.0,0.0,0.0,0,
86100,1847.6,315.1,211.1,71.6,0.0,0.0,0.0,0,
86200,1870.4,331.3,211.8,66.9,0.0,0.0,0.0,0,
86300,1829.8,306.6,209.7,66.4,0.0,0.0,0.0,0,
86400,1867.9,270.5,211.2,66.4,0.0,0.0,0.0,0,
86600,1881.5,55.3,213.3,66.7,0.0,0.0,0.0,0,
86700,1836.4,35.3,212.4,66.8,0.0,0.0,0.0,0,
86800,1861.0,33.2,212.4,66.2,0.0,0.0,0.0,0,
86900,1858.5,34.9,212.4,65.5,0.0,0.0,0.0,0,
87000,1858.6,31.6,212.4,51.9,0.0,0.0,0.0,0,
87100,1858.9,35.9,212.4,238.0,0.0,0.0,0.0,0,
87200,1861.2,35.3,212.4,239.9,0.0,0.0,0.0,0,
87300,1861.1,34.4,212.5,240.1,0.0,0.0,0.0,0,
87400,1858.9,34.2,212.5,240.3,0.0,0.0,0.0,0,
87600,1859.9,246.4,212.5,240.1,0.0,0.0,0.0,0,
87700,1849.6,295.6,213.9,74.2,0.0,0.0,0.0,0,
87800,1862.0,295.1,209.1,67.1,0.0,0.0,0.0,0,
87900,1863.6,252.5,209.1,66.5,0.0,0.0,0.0,0,
88000,1879.8,281.2,206.2,66.4,0.0,0.0,0.0,0,
88100,1848.2,279.6,204.8,66.5,0.0,0.0,0.0,0,
88200,1835.1,66.3,201.4,66.6,0.0,0.0,0.0,0,
88300,1874.3,32.4,200.9,66.7,0.0,0.0,0.0,0,
88400,1859.5,33.8,200.8,66.5,0.0,0.0,0.0,0,
88600,1861.0,34.0,200.8,65.7,0.0,0.0,0.0,0,
88700,1859.0,34.5,200.8,103.4,0.0,0.0,0.0,0,
88800,1860.4,33.7,200.8,240.4,0.0,0.0,0.0,0,
88900,1861.0,32.3,200.7,240.2,0.0,0.0,0.0,0,
89000,1857.8,34.7,200.7,240.1,0.0,0.0,0.0,0,
89100,1858.0,32.3,200.7,240.1,0.0,0.0,0.0,0,
89200,1857.7,227.5,200.7,239.9,0.0,0.0,0.0,0,
89300,1853.0,251.4,200.8,92.9,0.0,0.0,0.0,0,
89400,1871.0,318.7,201.1,67.7,0.0,0.0,0.0,0,
89600,1833.1,289.5,204.9,66.5,0.0,0.0,0.0,0,
89700,1861.0,267.8,205.8,66.5,0.0,0.0,0.0,0,
89800,1865.3,95.7,207.5,66.5,0.0,0.0,0.0,0,
89900,1862.5,38.3,207.1,66.7,0.0,0.0,0.0,0,
90000,1859.0,32.8,207.1,66.4,0.0,0.0,0.0,0,
90100,1858.4,33.1,207.1,66.0,0.0,0.0,0.0,0,
90200,1860.4,31.6,207.1,56.8,0.0,0.0,0.0,0,
90300,1859.4,33.7,207.1,68.8,0.0,0.0,0.0,0,
90400,1858.9,31.8,207.1,239.8,0.0,0.0,0.0,0,
90600,1857.8,32.1,207.1,239.9,0.0,0.0,0.0,0,
90700,1859.2,34.6,207.1,240.2,0.0,0.0,0.0,0,
90800,1858.8,195.9,207.1,240.4,0.0,0.0,0.0,0,
90900,1874.0,327.5,207.0,153.9,0.0,0.0,0.0,0,
91000,1836.3,298.0,213.0,67.6,0.0,0.0,0.0,0,
91100,1850.8,305.0,210.2,66.7,0.0,0.0,0.0,0,
91200,1877.5,244.1,210.7,66.4,0.0,0.0,0.0,0,
91300,1867.4,282.3,209.8,66.4,0.0,0.0,0.0,0,
91400,1855.9,145.8,209.7,66.6,0.0,0.0,0.0,0,
91600,1858.9,34.9,209.4,66.5,0.0,0.0,0.0,0,
91700,1858.9,33.8,209.4,66.1,0.0,0.0,0.0,0,
91800,1858.7,33.6,209.4,56.6,0.0,0.0,0.0,0,
91900,1860.4,34.5,209.5,65.9,0.0,0.0,0.0,0,
92000,1860.3,33.7,209.5,240.0,0.0,0.0,0.0,0,
92100,1857.3,33.6,209.5,239.7,0.0,0.0,0.0,0,
92200,1857.6,32.5,209.5,239.7,0.0,0.0,0.0,0,
92300,1859.0,34.8,209.5,240.1,0.0,0.0,0.0,0,
92400,1860.1,134.9,209.5,240.4,0.0,0.0,0.0,0,
92600,1874.3,264.1,208.1,68.6,0.0,0.0,0.0,0,
92700,1856.6,309.8,210.4,67.0,0.0,0.0,0.0,0,
92800,1878.0,300.2,209.8,66.5,0.0,0.0,0.0,0,
92900,1822.5,278.8,210.4,66.4,0.0,0.0,0.0,0,
93000,1863.5,251.2,208.8,66.5,0.0,0.0,0.0,0,
93100,1857.0,43.6,210.8,66.8,0.0,0.0,0.0,0,
93200,1863.0,38.4,210.7,66.7,0.0,0.0,0.0,0,
93300,1859.0,32.9,210.7,66.1,0.0,0.0,0.0,0,
93400,1859.5,33.9,210.7,53.3,0.0,0.0,0.0,0,
93600,1861.6,34.0,210.7,240.1,0.0,0.0,0.0,0,
93700,1858.6,34.6,210.7,240.1,0.0,0.0,0.0,0,
93800,1858.8,32.1,210.7,240.1,0.0,0.0,0.0,0,
93900,1860.1,35.3,210.7,240.1,0.0,0.0,0.0,0,
94000,1860.6,89.0,210.7,240.1,0.0,0.0,0.0,0,
94100,1870.1,241.7,211.5,240.1,0.0,0.0,0.0,0,
94200,1875.8,306.1,208.6,75.7,0.0,0.0,0.0,0,
94300,1824.2,285.7,206.4,67.2,0.0,0.0,0.0,0,
94400,1854.0,290.0,202.8,66.5,0.0,0.0,0.0,0,
94600,1873.6,270.9,204.3,66.6,0.0,0.0,0.0,0,
94700,1859.8,52.8,202.4,66.8,0.0,0.0,0.0,0,
94800,1844.9,34.8,202.1,66.7,0.0,0.0,0.0,0,
94900,1860.0,30.9,202.2,66.2,0.0,0.0,0.0,0,
95000,1859.7,35.6,202.1,65.4,0.0,0.0,0.0,0,
95100,1860.4,33.3,202.1,49.4,0.0,0.0,0.0,0,
95200,1860.9,34.3,202.2,239.0,0.0,0.0,0.0,0,
95300,1858.6,32.6,202.1,240.3,0.0,0.0,0.0,0,
95400,1859.1,35.9,202.1,240.0,0.0,0.0,0.0,0,
95600,1857.8,33.3,202.1,239.8,0.0,0.0,0.0,0,
95700,1860.0,260.1,202.1,240.1,0.0,0.0,0.0,0,
95800,1843.2,316.5,205.0,92.2,0.0,0.0,0.0,0,
95900,1872.8,277.7,208.0,67.1,0.0,0.0,0.0,0,
96000,1857.4,294.6,210.2,66.4,0.0,0.0,0.0,0,
96100,1874.7,304.8,209.1,66.4,0.0,0.0,0.0,0,
96200,1833.5,274.6,211.5,66.5,0.0,0.0,0.0,0,
96300,1851.5,66.4,210.3,66.7,0.0,0.0,0.0,0,
96400,1870.4,35.1,210.2,66.6,0.0,0.0,0.0,0,
96600,1859.4,33.5,210.2,65.7,0.0,0.0,0.0,0,
96700,1860.6,36.9,210.2,53.8,0.0,0.0,0.0,0,
96800,1859.1,36.1,210.2,158.4,0.0,0.0,0.0,0,
96900,1860.0,35.1,210.2,240.3,0.0,0.0,0.0,0,
97000,1861.3,32.2,210.3,240.3,0.0,0.0,0.0,0,
97100,1857.7,33.7,210.2,240.2,0.0,0.0,0.0,0,
97200,1859.6,32.2,210.2,240.1,0.0,0.0,0.0,0,
97300,1859.5,218.7,210.2,240.2,0.0,0.0,0.0,0,
97400,1847.3,302.9,210.2,93.7,0.0,0.0,0.0,0,
97600,1822.9,285.7,210.4,66.6,0.0,0.0,0.0,0,
97700,1856.0,294.3,208.8,66.5,0.0,0.0,0.0,0,
97800,1869.8,257.1,209.7,66.5,0.0,0.0,0.0,0,
97900,1862.5,89.3,212.2,66.7,0.0,0.0,0.0,0,
98000,1859.6,36.5,210.3,66.7,0.0,0.0,0.0,0,
98100,1859.8,34.0,210.3,66.4,0.0,0.0,0.0,0,
98200,1861.7,30.5,210.3,66.1,0.0,0.0,0.0,0,
98300,1860.1,34.6,210.3,65.4,0.0,0.0,0.0,0,
98400,1861.5,31.6,210.3,74.2,0.0,0.0,0.0,0,
98600,1859.8,35.4,210.3,239.8,0.0,0.0,0.0,0,
98700,1858.5,31.6,210.3,239.8,0.0,0.0,0.0,0,
98800,1858.2,33.3,210.3,239.9,0.0,0.0,0.0,0,
98900,1860.0,193.2,210.3,239.7,0.0,0.0,0.0,0,
99000,1862.7,315.2,210.5,135.2,0.0,0.0,0.0,0,
99100,1846.8,311.0,211.8,68.2,0.0,0.0,0.0,0,
99200,1864.0,287.6,211.2,66.8,0.0,0.0,0.0,0,
99300,1863.7,289.3,214.7,66.5,0.0,0.0,0.0,0,
99400,1877.7,309.8,212.8,66.5,0.0,0.0,0.0,0,
99600,1868.7,38.8,213.7,66.8,0.0,0.0,0.0,0,
99700,1859.2,35.8,213.7,66.5,0.0,0.0,0.0,0,
99800,1859.7,31.0,213.7,66.0,0.0,0.0,0.0,0,
99900,1860.0,33.0,213.7,55.3,0.0,0.0,0.0,0,
100000,1861.5,32.7,213.7,66.7,0.0,0.0,0.0,0,
100100,1859.0,36.6,213.7,240.1,0.0,0.0,0.0,0,
100200,1861.2,33.4,213.8,240.1,0.0,0.0,0.0,0,
100300,1860.1,34.0,213.8,240.1,0.0,0.0,0.0,0,
100400,1859.8,32.8,213.8,240.1,0.0,0.0,0.0,0,
100600,1856.8,294.7,212.6,239.4,0.0,0.0,0.0,0,
100700,1860.2,287.3,212.7,68.6,0.0,0.0,0.0,0,
100800,1883.6,319.3,210.8,66.9,0.0,0.0,0.0,0,
100900,1842.0,279.0,208.5,66.5,0.0,0.0,0.0,0,
101000,1842.3,278.7,206.3,66.4,0.0,0.0,0.0,0,
101100,1879.8,230.6,203.6,66.5,0.0,0.0,0.0,0,
101200,1852.3,45.0,205.1,66.8,0.0,0.0,0.0,0,
101300,1861.3,32.2,205.1,66.7,0.0,0.0,0.0,0,
101400,1859.0,32.5,205.1,66.4,0.0,0.0,0.0,0,
101600,1859.2,34.5,205.0,66.5,0.0,0.0,0.0,0,
101700,1858.9,30.7,205.1,240.3,0.0,0.0,0.0,0,
101800,1858.0,31.6,205.0,240.3,0.0,0.0,0.0,0,
101900,1859.0,32.2,205.0,240.2,0.0,0.0,0.0,0,
102000,1859.2,35.3,205.0,240.2,0.0,0.0,0.0,0,
102100,1858.0,85.6,205.0,240.1,0.0,0.0,0.0,0,
102200,1870.4,274.7,205.3,239.9,0.0,0.0,0.0,0,
102300,1865.4,328.5,206.5,69.9,0.0,0.0,0.0,0,
102400,1830.5,288.6,207.1,67.2,0.0,0.0,0.0,0,
102600,1853.8,279.9,209.5,66.4,0.0,0.0,0.0,0,
102700,1889.1,296.8,210.8,66.6,0.0,0.0,0.0,0,
102800,1822.5,49.9,211.1,66.7,0.0,0.0,0.0,0,
102900,1860.1,31.6,210.3,66.5,0.0,0.0,0.0,0,
103000,1858.4,34.0,210.3,66.1,0.0,0.0,0.0,0,
103100,1860.4,32.3,210.3,56.4,0.0,0.0,0.0,0,
103200,1857.9,34.4,210.3,49.6,0.0,0.0,0.0,0,
103300,1858.7,32.3,210.3,238.4,0.0,0.0,0.0,0,
103400,1859.0,32.8,210.4,239.9,0.0,0.0,0.0,0,
103600,1858.0,34.0,210.4,240.1,0.0,0.0,0.0,0,
103700,1858.3,35.3,210.4,240.0,0.0,0.0,0.0,0,
103800,1858.4,246.7,210.4,240.0,0.0,0.0,0.0,0,
103900,1848.2,323.4,210.5,71.1,0.0,0.0,0.0,0,
104000,1867.3,308.6,211.8,67.0,0.0,0.0,0.0,0,
104100,1883.4,313.7,215.8,66.5,0.0,0.0,0.0,0,
104200,1837.4,312.4,215.2,66.5,0.0,0.0,0.0,0,
104300,1843.8,272.7,216.6,66.6,0.0,0.0,0.0,0,
104400,1869.3,61.5,215.8,66.7,0.0,0.0,0.0,0,
104600,1859.0,34.4,215.4,66.3,0.0,0.0,0.0,0,
104700,1861.3,31.6,215.4,65.8,0.0,0.0,0.0,0,
104800,1858.4,34.4,215.4,55.7,0.0,0.0,0.0,0,
104900,1859.0,33.1,215.4,187.2,0.0,0.0,0.0,0,
105000,1861.2,32.3,215.4,240.0,0.0,0.0,0.0,0,
105100,1859.9,33.7,215.4,240.2,0.0,0.0,0.0,0,
105200,1861.7,32.1,215.4,240.3,0.0,0.0,0.0,0,
105300,1859.4,32.1,215.4,240.4,0.0,0.0,0.0,0,
105400,1859.4,208.9,215.3,240.3,0.0,0.0,0.0,0,
105600,1871.5,317.1,214.2,67.9,0.0,0.0,0.0,0,
105700,1828.7,268.3,208.7,66.8,0.0,0.0,0.0,0,
105800,1873.6,280.1,205.6,66.6,0.0,0.0,0.0,0,
105900,1853.0,261.7,202.2,66.5,0.0,0.0,0.0,0,
106000,1886.8,83.2,202.0,66.6,0.0,0.0,0.0,0,
106100,1839.5,34.0,199.1,66.7,0.0,0.0,0.0,0,
106200,1858.7,36.0,199.1,66.4,0.0,0.0,0.0,0,
106300,1861.5,33.6,199.1,66.0,0.0,0.0,0.0,0,
106400,1859.0,35.3,199.1,56.6,0.0,0.0,0.0,0,
106600,1859.2,37.0,199.1,240.2,0.0,0.0,0.0,0,
106700,1858.9,32.8,199.1,240.1,0.0,0.0,0.0,0,
106800,1858.8,32.5,199.1,239.8,0.0,0.0,0.0,0,
106900,1859.9,38.5,199.1,239.9,0.0,0.0,0.0,0,
107000,1860.3,220.9,199.1,239.9,0.0,0.0,0.0,0,
107100,1847.8,293.8,200.3,165.4,0.0,0.0,0.0,0,
107200,1860.0,302.4,201.3,67.9,0.0,0.0,0.0,0,
107300,1855.1,305.9,203.3,66.7,0.0,0.0,0.0,0,
107400,1891.8,295.5,209.9,66.5,0.0,0.0,0.0,0,
107600,1843.1,119.2,213.1,66.6,0.0,0.0,0.0,0,
107700,1877.1,36.4,213.7,66.8,0.0,0.0,0.0,0,
107800,1859.8,33.0,213.6,66.5,0.0,0.0,0.0,0,
107900,1860.0,32.4,213.6,66.2,0.0,0.0,0.0,0,
108000,1861.2,29.4,213.6,65.8,0.0,0.0,0.0,0,
108100,1860.7,29.3,213.5,68.1,0.0,0.0,0.0,0,
108200,1860.0,26.8,213.5,240.2,0.0,0.0,0.0,0,
108300,1860.4,26.9,213.4,240.3,0.0,0.0,0.0,0,
108400,1861.0,24.1,213.3,240.2,0.0,0.0,0.0,0,
108600,1860.2,158.8,213.1,239.9,0.0,0.0,0.0,0,
108700,1855.4,281.1,211.9,237.8,0.0,0.0,0.0,0,
108800,1885.4,310.2,213.7,68.5,0.0,0.0,0.0,0,
108900,1835.3,362.1,215.8,66.9,0.0,0.0,0.0,0,
109000,1844.3,288.5,216.4,66.7,0.0,0.0,0.0,0,
109100,1860.2,295.2,219.3,66.6,0.0,0.0,0.0,0,
109200,1872.2,207.8,220.5,66.8,0.0,0.0,0.0,0,
109300,1852.1,37.1,223.1,67.4,0.0,0.0,0.0,0,
109400,1858.5,29.5,223.1,66.9,0.0,0.0,0.0,0,
109600,1859.6,32.9,223.0,41.2,0.0,0.0,0.0,0,
109700,1859.6,30.5,223.0,45.6,0.0,0.0,0.0,0,
109800,1860.1,33.1,223.1,240.1,0.0,0.0,0.0,0,
109900,1860.9,31.9,223.1,239.9,0.0,0.0,0.0,0,
110000,1856.5,31.2,223.1,239.8,0.0,0.0,0.0,0,
110100,1860.4,30.8,223.2,239.8,0.0,0.0,0.0,0,
110200,1861.7,98.8,223.3,240.0,0.0,0.0,0.0,0,
110300,1877.9,338.0,223.4,239.8,0.0,0.0,0.0,0,
110400,1836.9,324.9,227.0,69.5,0.0,0.0,0.0,0,
110600,1884.5,309.3,230.0,66.8,0.0,0.0,0.0,0,
110700,1876.0,331.8,232.2,66.6,0.0,0.0,0.0,0,
110800,1840.5,331.7,233.8,66.8,0.0,0.0,0.0,0,
110900,1836.3,49.0,233.2,93.1,0.0,0.0,0.0,0,
111000,1874.4,33.7,233.2,67.3,0.0,0.0,0.0,0,
111100,1861.5,34.5,233.2,66.1,0.0,0.0,0.0,0,
111200,1859.5,35.2,233.2,45.5,0.0,0.0,0.0,0,
111300,1861.7,33.1,233.3,44.6,0.0,0.0,0.0,0,
111400,1858.4,34.6,233.3,239.7,0.0,0.0,0.0,0,
111600,1862.5,31.4,233.3,240.4,0.0,0.0,0.0,0,
111700,1859.1,31.3,233.3,240.6,0.0,0.0,0.0,0,
111800,1859.6,37.1,233.3,240.6,0.0,0.0,0.0,0,
111900,1858.4,245.0,233.5,240.4,0.0,0.0,0.0,0,
112000,1870.5,296.9,231.6,78.3,0.0,0.0,0.0,0,
112100,1864.9,313.2,232.3,68.3,0.0,0.0,0.0,0,
112200,1859.9,341.6,230.7,66.8,0.0,0.0,0.0,0,
112300,1826.4,291.3,227.4,66.5,0.0,0.0,0.0,0,
112400,1873.1,275.4,226.4,66.8,0.0,0.0,0.0,0,
112600,1860.6,30.7,223.7,68.9,0.0,0.0,0.0,0,
112700,1858.5,32.4,223.7,66.6,0.0,0.0,0.0,0,
112800,1860.1,33.9,223.7,51.1,0.0,0.0,0.0,0,
112900,1858.8,30.5,223.7,43.1,0.0,0.0,0.0,0,
113000,1858.2,32.6,223.7,225.7,0.0,0.0,0.0,0,
113100,1858.4,33.4,223.6,240.2,0.0,0.0,0.0,0,
113200,1861.2,34.6,223.6,240.3,0.0,0.0,0.0,0,
113300,1860.5,33.0,223.7,240.1,0.0,0.0,0.0,0,
113400,1858.0,30.8,223.7,240.0,0.0,0.0,0.0,0,
113600,1886.6,365.4,224.3,134.7,0.0,0.0,0.0,0,
113700,1818.8,341.0,223.5,68.5,0.0,0.0,0.0,0,
113800,1865.6,298.6,225.9,66.7,0.0,0.0,0.0,0,
113900,1862.2,314.5,225.6,66.4,0.0,0.0,0.0,0,
114000,1895.7,305.5,229.2,66.6,0.0,0.0,0.0,0,
114100,1828.7,79.2,230.5,67.4,0.0,0.0,0.0,0,
114200,1852.7,35.5,229.4,67.3,0.0,0.0,0.0,0,
114300,1859.1,32.7,229.3,66.5,0.0,0.0,0.0,0,
114400,1859.7,31.3,229.3,56.1,0.0,0.0,0.0,0,
114600,1858.3,30.6,229.3,69.3,0.0,0.0,0.0,0,
114700,1859.4,33.4,229.3,240.1,0.0,0.0,0.0,0,
114800,1860.7,30.7,229.3,239.8,0.0,0.0,0.0,0,
114900,1860.0,33.8,229.3,239.9,0.0,0.0,0.0,0,
115000,1859.4,35.4,229.3,240.1,0.0,0.0,0.0,0,
115100,1858.4,237.2,229.4,240.2,0.0,0.0,0.0,0,
115200,1847.1,289.7,231.3,227.9,0.0,0.0,0.0,0,
115300,1866.9,310.1,230.6,69.6,0.0,0.0,0.0,0,
115400,1881.9,302.3,230.0,66.7,0.0,0.0,0.0,0,
115600,1843.6,293.2,226.8,66.6,0.0,0.0,0.0,0,
115700,1854.6,113.9,225.9,67.2,0.0,0.0,0.0,0,
115800,1869.3,35.8,224.1,67.3,0.0,0.0,0.0,0,
115900,1858.4,32.5,224.1,66.9,0.0,0.0,0.0,0,
116000,1858.4,33.2,224.1,65.6,0.0,0.0,0.0,0,
116100,1861.1,31.2,224.1,41.6,0.0,0.0,0.0,0,
116200,1859.3,30.1,224.1,66.3,0.0,0.0,0.0,0,
116300,1859.0,32.1,224.1,240.0,0.0,0.0,0.0,0,
116400,1859.0,32.2,224.1,240.1,0.0,0.0,0.0,0,
116600,1858.7,28.3,224.1,240.1,0.0,0.0,0.0,0,
116700,1860.3,173.7,224.1,240.2,0.0,0.0,0.0,0,
116800,1860.8,297.8,223.0,239.2,0.0,0.0,0.0,0,
116900,1875.3,374.1,224.1,69.2,0.0,0.0,0.0,0,
117000,1832.3,323.7,224.4,66.7,0.0,0.0,0.0,0,
117100,1847.2,305.2,224.9,66.5,0.0,0.0,0.0,0,
117200,1884.6,291.2,224.5,66.6,0.0,0.0,0.0,0,
117300,1868.0,177.8,225.3,67.0,0.0,0.0,0.0,0,
117400,1836.7,40.7,224.5,67.1,0.0,0.0,0.0,0,
117600,1858.9,33.5,224.6,65.5,0.0,0.0,0.0,0,
117700,1860.3,31.2,224.6,43.5,0.0,0.0,0.0,0,
117800,1859.7,31.3,224.5,50.1,0.0,0.0,0.0,0,
117900,1858.4,31.6,224.5,240.1,0.0,0.0,0.0,0,
118000,1859.2,32.0,224.5,240.4,0.0,0.0,0.0,0,
118100,1859.4,30.4,224.5,240.1,0.0,0.0,0.0,0,
118200,1860.6,34.0,224.5,239.9,0.0,0.0,0.0,0,
118300,1859.4,114.6,224.5,240.0,0.0,0.0,0.0,0,
118400,1866.2,281.7,224.7,239.7,0.0,0.0,0.0,0,
118600,1886.3,303.8,220.9,66.8,0.0,0.0,0.0,0,
118700,1860.5,292.5,220.4,66.5,0.0,0.0,0.0,0,
118800,1867.7,318.9,220.4,66.6,0.0,0.0,0.0,0,
118900,1824.8,284.9,217.9,66.8,0.0,0.0,0.0,0,
119000,1861.0,46.0,218.2,67.2,0.0,0.0,0.0,0,
119100,1870.6,32.7,218.2,67.2,0.0,0.0,0.0,0,
119200,1859.3,31.8,218.2,65.8,0.0,0.0,0.0,0,
119300,1860.8,29.9,218.2,46.8,0.0,0.0,0.0,0,
119400,1859.0,30.0,218.3,46.9,0.0,0.0,0.0,0,
119600,1858.0,31.0,218.2,239.9,0.0,0.0,0.0,0,
119700,1858.8,29.9,218.2,239.9,0.0,0.0,0.0,0,
119800,1858.7,29.4,218.2,239.9,0.0,0.0,0.0,0,
119900,1858.8,66.6,218.2,240.1,0.0,0.0,0.0,0,
120000,1866.4,224.0,218.7,240.1,0.0,0.0,0.0,0,
120100,1842.9,334.3,217.4,71.6,0.0,0.0,0.0,0,
120200,1890.7,346.7,221.7,66.9,0.0,0.0,0.0,0,
120300,1814.5,333.1,221.0,66.4,0.0,0.0,0.0,0,
120400,1865.5,289.1,221.8,66.5,0.0,0.0,0.0,0,
120600,1880.4,52.6,222.5,67.2,0.0,0.0,0.0,0,
120700,1841.5,28.4,221.8,69.7,0.0,0.0,0.0,0,
120800,1857.8,30.7,221.8,66.4,0.0,0.0,0.0,0,
120900,1859.1,30.2,221.8,65.6,0.0,0.0,0.0,0,
121000,1859.2,32.3,221.8,52.7,0.0,0.0,0.0,0,
121100,1858.4,30.1,221.8,196.5,0.0,0.0,0.0,0,
121200,1857.9,35.0,221.8,240.1,0.0,0.0,0.0,0,
121300,1859.9,33.2,221.9,240.1,0.0,0.0,0.0,0,
121400,1860.0,31.1,221.9,240.2,0.0,0.0,0.0,0,
121600,1861.8,243.1,221.9,240.2,0.0,0.0,0.0,0,
121700,1848.9,356.2,223.7,76.7,0.0,0.0,0.0,0,
121800,1854.7,325.9,223.1,67.2,0.0,0.0,0.0,0,
121900,1864.8,290.3,224.4,66.6,0.0,0.0,0.0,0,
122000,1875.5,292.7,224.2,66.6,0.0,0.0,0.0,0,
122100,1865.1,312.1,224.9,66.8,0.0,0.0,0.0,0,
122200,1832.0,74.6,223.9,67.1,0.0,0.0,0.0,0,
122300,1876.7,34.0,223.5,67.3,0.0,0.0,0.0,0,
122400,1860.1,30.9,223.6,66.4,0.0,0.0,0.0,0,
122600,1857.8,32.3,223.6,46.7,0.0,0.0,0.0,0,
122700,1858.4,32.8,223.6,99.7,0.0,0.0,0.0,0,
122800,1860.7,32.1,223.6,240.2,0.0,0.0,0.0,0,
122900,1857.6,30.0,223.6,240.0,0.0,0.0,0.0,0,
123000,1863.5,31.5,223.6,240.0,0.0,0.0,0.0,0,
123100,1858.7,29.6,223.6,240.1,0.0,0.0,0.0,0,
123200,1859.4,250.0,223.6,240.2,0.0,0.0,0.0,0,
123300,1846.9,294.1,225.2,130.9,0.0,0.0,0.0,0,
123400,1868.8,350.2,223.4,67.9,0.0,0.0,0.0,0,
123600,1823.9,324.7,225.9,66.7,0.0,0.0,0.0,0,
123700,1843.8,308.1,227.5,66.7,0.0,0.0,0.0,0,
123800,1882.0,107.1,230.6,66.8,0.0,0.0,0.0,0,
123900,1860.5,36.3,229.7,67.3,0.0,0.0,0.0,0,
124000,1856.3,31.0,229.7,66.7,0.0,0.0,0.0,0,
124100,1858.5,33.3,229.7,65.9,0.0,0.0,0.0,0,
124200,1859.2,30.8,229.7,47.2,0.0,0.0,0.0,0,
124300,1858.8,28.0,229.7,57.5,0.0,0.0,0.0,0,
124400,1860.0,30.0,229.6,240.2,0.0,0.0,0.0,0,
124600,1859.0,30.2,229.6,240.1,0.0,0.0,0.0,0,
124700,1860.2,31.3,229.6,240.5,0.0,0.0,0.0,0,
124800,1857.9,198.8,229.6,240.3,0.0,0.0,0.0,0,
124900,1866.9,309.7,229.2,170.1,0.0,0.0,0.0,0,
125000,1853.3,339.1,230.3,68.6,0.0,0.0,0.0,0,
125100,1834.3,340.0,226.5,67.0,0.0,0.0,0.0,0,
125200,1883.0,274.8,226.6,66.7,0.0,0.0,0.0,0,
125300,1858.3,314.1,224.1,66.6,0.0,0.0,0.0,0,
125400,1877.0,160.0,224.7,66.7,0.0,0.0,0.0,0,
125600,1854.7,32.2,223.0,66.7,0.0,0.0,0.0,0,
125700,1860.5,33.2,223.0,66.0,0.0,0.0,0.0,0,
125800,1859.6,29.9,223.0,49.8,0.0,0.0,0.0,0,
125900,1857.9,30.9,223.0,50.6,0.0,0.0,0.0,0,
126000,1860.1,29.9,223.1,240.0,0.0,0.0,0.0,0,
126100,1858.5,30.6,223.1,239.9,0.0,0.0,0.0,0,
126200,1860.0,31.1,223.1,239.9,0.0,0.0,0.0,0,
126300,1860.4,30.8,223.0,240.2,0.0,0.0,0.0,0,
126400,1859.5,144.5,223.1,240.1,0.0,0.0,0.0,0,
126600,1876.8,274.9,223.1,69.0,0.0,0.0,0.0,0,
126700,1850.2,356.2,220.7,67.2,0.0,0.0,0.0,0,
126800,1894.9,331.5,223.4,66.8,0.0,0.0,0.0,0,
126900,1817.4,315.3,224.7,66.6,0.0,0.0,0.0,0,
127000,1856.1,268.1,224.2,66.7,0.0,0.0,0.0,0,
127100,1862.5,44.8,225.2,67.1,0.0,0.0,0.0,0,
127200,1866.8,30.0,225.2,66.8,0.0,0.0,0.0,0,
127300,1856.8,32.8,225.2,65.9,0.0,0.0,0.0,0,
127400,1859.1,32.7,225.2,48.6,0.0,0.0,0.0,0,
127600,1858.5,32.2,225.2,240.1,0.0,0.0,0.0,0,
127700,1858.3,32.2,225.2,240.0,0.0,0.0,0.0,0,
127800,1859.1,31.2,225.2,240.1,0.0,0.0,0.0,0,
127900,1859.5,30.5,225.2,240.2,0.0,0.0,0.0,0,
128000,1860.1,74.9,225.2,240.2,0.0,0.0,0.0,0,
128100,1866.9,260.3,225.3,240.0,0.0,0.0,0.0,0,
128200,1884.6,339.9,225.6,71.8,0.0,0.0,0.0,0,
128300,1824.6,357.6,231.5,67.6,0.0,0.0,0.0,0,
128400,1858.3,331.1,229.4,66.7,0.0,0.0,0.0,0,
128600,1874.3,311.5,231.5,66.8,0.0,0.0,0.0,0,
128700,1868.1,54.9,230.7,67.4,0.0,0.0,0.0,0,
128800,1834.8,32.2,230.9,67.0,0.0,0.0,0.0,0,
128900,1859.7,30.8,230.9,66.1,0.0,0.0,0.0,0,
129000,1860.4,31.7,230.9,44.9,0.0,0.0,0.0,0,
129100,1859.1,30.4,230.9,42.4,0.0,0.0,0.0,0,
129200,1858.0,31.7,230.9,183.9,0.0,0.0,0.0,0,
129300,1860.1,31.5,230.8,240.3,0.0,0.0,0.0,0,
129400,1859.6,32.6,230.8,240.3,0.0,0.0,0.0,0,
129600,1858.4,30.6,230.9,240.0,0.0,0.0,0.0,0,
129700,1859.1,250.0,230.8,240.0,0.0,0.0,0.0,0,
129800,1851.8,359.3,231.9,125.0,0.0,0.0,0.0,0,
129900,1859.8,309.3,234.1,68.0,0.0,0.0,0.0,0,
130000,1866.2,315.9,233.2,66.5,0.0,0.0,0.0,0,
130100,1877.1,319.1,231.1,66.4,0.0,0.0,0.0,0,
130200,1834.3,307.8,232.6,66.8,0.0,0.0,0.0,0,
130300,1841.2,70.7,230.4,68.0,0.0,0.0,0.0,0,
130400,1871.4,37.6,229.7,67.3,0.0,0.0,0.0,0,
130600,1859.1,30.9,229.7,48.4,0.0,0.0,0.0,0,
130700,1859.8,30.6,229.7,42.0,0.0,0.0,0.0,0,
130800,1858.3,29.9,229.7,77.9,0.0,0.0,0.0,0,
130900,1860.5,29.6,229.7,239.9,0.0,0.0,0.0,0,
131000,1858.5,31.4,229.7,240.1,0.0,0.0,0.0,0,
131100,1858.8,29.7,229.7,239.9,0.0,0.0,0.0,0,
131200,1860.0,36.1,229.7,239.8,0.0,0.0,0.0,0,
131300,1859.2,259.9,229.7,240.0,0.0,0.0,0.0,0,
131400,1847.2,327.8,232.3,94.3,0.0,0.0,0.0,0,
131600,1829.8,335.5,235.3,66.7,0.0,0.0,0.0,0,
131700,1836.7,326.7,233.2,66.6,0.0,0.0,0.0,0,
131800,1874.5,271.5,235.2,66.9,0.0,0.0,0.0,0,
131900,1858.4,101.0,234.8,67.2,0.0,0.0,0.0,0,
132000,1865.2,34.5,235.0,92.2,0.0,0.0,0.0,0,
132100,1858.6,31.1,235.0,67.0,0.0,0.0,0.0,0,
132200,1861.1,29.8,235.0,66.1,0.0,0.0,0.0,0,
132300,1863.0,32.8,235.0,65.5,0.0,0.0,0.0,0,
132400,1860.2,29.7,235.0,68.9,0.0,0.0,0.0,0,
132600,1861.0,31.9,235.0,240.1,0.0,0.0,0.0,0,
132700,1860.2,28.7,235.0,240.3,0.0,0.0,0.0,0,
132800,1858.9,31.9,235.0,240.3,0.0,0.0,0.0,0,
132900,1860.1,222.7,235.0,239.9,0.0,0.0,0.0,0,
133000,1867.3,342.9,234.4,114.1,0.0,0.0,0.0,0,
133100,1839.3,337.9,232.5,68.5,0.0,0.0,0.0,0,
133200,1858.1,335.5,230.8,66.9,0.0,0.0,0.0,0,
133300,1874.5,319.3,233.0,66.7,0.0,0.0,0.0,0,
133400,1879.6,322.2,232.8,66.7,0.0,0.0,0.0,0,
133600,1870.7,37.9,233.6,67.2,0.0,0.0,0.0,0,
133700,1858.6,35.3,233.6,66.8,0.0,0.0,0.0,0,
133800,1859.6,31.6,233.6,65.8,0.0,0.0,0.0,0,
133900,1859.8,29.1,233.6,44.6,0.0,0.0,0.0,0,
134000,1859.8,30.8,233.6,51.3,0.0,0.0,0.0,0,
134100,1860.9,31.6,233.6,240.2,0.0,0.0,0.0,0,
134200,1857.6,31.7,233.6,240.2,0.0,0.0,0.0,0,
134300,1858.6,30.6,233.6,240.0,0.0,0.0,0.0,0,
134400,1859.0,30.1,233.6,240.0,0.0,0.0,0.0,0,
134600,1840.5,316.7,233.0,238.3,0.0,0.0,0.0,0,
134700,1879.2,305.8,234.1,69.2,0.0,0.0,0.0,0,
134800,1876.7,346.2,234.7,67.0,0.0,0.0,0.0,0,
134900,1843.6,335.5,235.3,66.7,0.0,0.0,0.0,0,
135000,1837.3,327.4,231.4,66.6,0.0,0.0,0.0,0,
135100,1871.6,233.3,232.6,66.6,0.0,0.0,0.0,0,
135200,1857.7,43.6,231.4,67.2,0.0,0.0,0.0,0,
135300,1866.2,30.6,231.3,67.0,0.0,0.0,0.0,0,
135400,1857.3,31.1,231.4,66.2,0.0,0.0,0.0,0,
135600,1859.5,31.1,231.3,52.5,0.0,0.0,0.0,0,
135700,1858.2,31.3,231.3,240.0,0.0,0.0,0.0,0,
135800,1860.3,33.9,231.3,240.1,0.0,0.0,0.0,0,
135900,1861.7,30.6,231.3,240.3,0.0,0.0,0.0,0,
136000,1861.2,34.3,231.3,240.3,0.0,0.0,0.0,0,
136100,1859.8,79.8,231.3,240.3,0.0,0.0,0.0,0,
136200,1863.5,301.3,231.3,239.8,0.0,0.0,0.0,0,
136300,1883.0,362.9,232.9,69.7,0.0,0.0,0.0,0,
136400,1815.2,348.5,232.6,67.2,0.0,0.0,0.0,0,
136600,1857.5,301.1,233.7,66.6,0.0,0.0,0.0,0,
136700,1891.9,306.7,233.0,66.6,0.0,0.0,0.0,0,
136800,1834.3,49.7,233.0,67.0,0.0,0.0,0.0,0,
136900,1856.3,35.3,232.3,67.0,0.0,0.0,0.0,0,
137000,1860.1,33.2,232.3,66.1,0.0,0.0,0.0,0,
137100,1858.6,33.8,232.3,44.8,0.0,0.0,0.0,0,
137200,1859.9,32.6,232.4,41.8,0.0,0.0,0.0,0,
137300,1859.2,31.1,232.4,174.0,0.0,0.0,0.0,0,
137400,1859.8,31.1,232.4,240.1,0.0,0.0,0.0,0,
137600,1858.3,32.2,232.3,240.3,0.0,0.0,0.0,0,
137700,1858.8,31.3,232.3,240.1,0.0,0.0,0.0,0,
137800,1860.6,273.0,232.3,239.9,0.0,0.0,0.0,0,
137900,1852.4,328.5,230.3,79.8,0.0,0.0,0.0,0,
138000,1860.6,320.4,230.0,69.0,0.0,0.0,0.0,0,
138100,1893.0,336.7,232.4,67.0,0.0,0.0,0.0,0,
138200,1835.9,349.2,232.9,66.6,0.0,0.0,0.0,0,
138300,1844.7,310.7,233.3,66.7,0.0,0.0,0.0,0,
138400,1855.7,69.2,234.2,67.1,0.0,0.0,0.0,0,
138600,1859.9,34.6,234.2,66.1,0.0,0.0,0.0,0,
138700,1859.7,30.3,234.2,41.0,0.0,0.0,0.0,0,
138800,1859.9,35.4,234.2,39.3,0.0,0.0,0.0,0,
138900,1857.7,31.2,234.2,88.7,0.0,0.0,0.0,0,
139000,1859.7,29.0,234.2,239.9,0.0,0.0,0.0,0,
139100,1857.8,30.6,234.2,239.8,0.0,0.0,0.0,0,
139200,1862.2,31.8,234.2,239.8,0.0,0.0,0.0,0,
139300,1861.1,33.9,234.2,240.0,0.0,0.0,0.0,0,
139400,1860.3,222.6,234.2,240.1,0.0,0.0,0.0,0,
139600,1867.3,372.5,237.7,68.2,0.0,0.0,0.0,0,
139700,1835.3,330.7,238.2,66.7,0.0,0.0,0.0,0,
139800,1849.8,336.8,236.2,66.5,0.0,0.0,0.0,0,
139900,1880.5,290.3,237.1,66.7,0.0,0.0,0.0,0,
140000,1870.2,92.7,237.3,67.0,0.0,0.0,0.0,0,
140100,1834.6,35.0,235.5,67.1,0.0,0.0,0.0,0,
140200,1861.8,28.4,235.5,66.4,0.0,0.0,0.0,0,
140300,1860.7,32.1,235.4,44.0,0.0,0.0,0.0,0,
140400,1860.2,30.6,235.4,39.1,0.0,0.0,0.0,0,
140600,1858.4,32.1,235.3,239.9,0.0,0.0,0.0,0,
140700,1860.1,30.2,235.3,240.1,0.0,0.0,0.0,0,
140800,1858.7,32.2,235.3,240.2,0.0,0.0,0.0,0,
140900,1861.7,30.4,235.3,240.0,0.0,0.0,0.0,0,
141000,1858.6,220.5,235.3,240.0,0.0,0.0,0.0,0,
141100,1855.1,327.2,235.4,185.9,0.0,0.0,0.0,0,
141200,1836.6,348.0,233.9,68.0,0.0,0.0,0.0,0,
141300,1879.6,292.2,235.4,66.5,0.0,0.0,0.0,0,
141400,1865.3,317.2,235.0,66.4,0.0,0.0,0.0,0,
141600,1824.3,140.9,231.2,66.8,0.0,0.0,0.0,0,
141700,1874.2,35.5,230.1,67.0,0.0,0.0,0.0,0,
141800,1856.9,30.7,230.1,66.5,0.0,0.0,0.0,0,
141900,1859.5,31.1,230.1,56.7,0.0,0.0,0.0,0,
142000,1858.5,29.6,230.1,39.9,0.0,0.0,0.0,0,
142100,1860.3,31.8,230.1,49.1,0.0,0.0,0.0,0,
142200,1861.0,28.9,230.1,239.6,0.0,0.0,0.0,0,
142300,1860.9,28.6,230.1,240.2,0.0,0.0,0.0,0,
142400,1860.8,30.7,230.1,240.2,0.0,0.0,0.0,0,
142600,1859.7,205.8,230.0,239.9,0.0,0.0,0.0,0,
142700,1854.9,247.1,230.1,238.2,0.0,0.0,0.0,0,
142800,1858.5,329.7,227.9,68.4,0.0,0.0,0.0,0,
142900,1882.0,353.4,223.6,66.7,0.0,0.0,0.0,0,
143000,1812.8,321.1,224.7,66.6,0.0,0.0,0.0,0,
143100,1865.6,318.6,224.7,66.7,0.0,0.0,0.0,0,
143200,1863.8,217.2,225.9,66.7,0.0,0.0,0.0,0,
143300,1865.6,40.4,225.7,67.0,0.0,0.0,0.0,0,
143400,1861.2,31.0,225.7,66.9,0.0,0.0,0.0,0,
143600,1858.2,29.7,225.6,55.1,0.0,0.0,0.0,0,
143700,1858.7,28.2,225.6,52.1,0.0,0.0,0.0,0,
143800,1861.0,30.5,225.6,239.9,0.0,0.0,0.0,0,
143900,1860.7,30.9,225.6,239.8,0.0,0.0,0.0,0,
144000,1859.9,29.1,225.6,239.8,0.0,0.0,0.0,0,
144100,1859.5,28.2,225.6,239.9,0.0,0.0,0.0,0,
144200,1858.5,103.7,225.7,239.9,0.0,0.0,0.0,0,
144300,1878.0,280.3,226.1,239.7,0.0,0.0,0.0,0,
144400,1830.3,322.3,227.6,70.1,0.0,0.0,0.0,0,
144600,1876.3,294.4,229.0,66.6,0.0,0.0,0.0,0,
144700,1878.7,311.2,231.3,66.7,0.0,0.0,0.0,0,
144800,1854.6,320.9,230.6,66.6,0.0,0.0,0.0,0,
144900,1837.6,47.5,232.1,66.9,0.0,0.0,0.0,0,
145000,1872.1,30.8,231.8,67.1,0.0,0.0,0.0,0,
145100,1859.1,32.1,231.8,66.3,0.0,0.0,0.0,0,
145200,1860.0,32.6,231.9,55.7,0.0,0.0,0.0,0,
145300,1860.8,28.2,231.9,48.3,0.0,0.0,0.0,0,
145400,1858.5,31.3,231.9,239.0,0.0,0.0,0.0,0,
145600,1860.0,29.8,231.9,239.7,0.0,0.0,0.0,0,
145700,1857.4,28.0,231.9,239.8,0.0,0.0,0.0,0,
145800,1858.4,31.0,231.9,239.7,0.0,0.0,0.0,0,
145900,1855.5,319.2,232.2,239.5,0.0,0.0,0.0,0,
146000,1863.2,304.1,235.0,69.9,0.0,0.0,0.0,0,
146100,1862.2,342.5,237.9,67.1,0.0,0.0,0.0,0,
146200,1877.2,352.9,236.4,66.7,0.0,0.0,0.0,0,
146300,1830.8,321.1,237.0,66.7,0.0,0.0,0.0,0,
146400,1850.8,313.4,235.3,66.8,0.0,0.0,0.0,0,
146600,1859.6,32.0,236.1,67.4,0.0,0.0,0.0,0,
146700,1858.1,29.5,236.1,66.2,0.0,0.0,0.0,0,
146800,1859.5,31.3,236.0,46.9,0.0,0.0,0.0,0,
146900,1859.2,32.9,236.0,41.8,0.0,0.0,0.0,0,
147000,1858.7,29.7,236.0,178.5,0.0,0.0,0.0,0,
147100,1859.2,31.5,236.0,239.8,0.0,0.0,0.0,0,
147200,1860.2,32.4,236.0,239.9,0.0,0.0,0.0,0,
147300,1859.9,30.7,236.0,239.9,0.0,0.0,0.0,0,
147400,1861.9,30.6,236.0,239.9,0.0,0.0,0.0,0,
147600,1891.0,348.2,235.7,74.4,0.0,0.0,0.0,0,
147700,1827.8,355.7,234.3,67.6,0.0,0.0,0.0,0,
147800,1851.6,348.2,233.9,66.9,0.0,0.0,0.0,0,
147900,1869.9,294.0,234.0,66.7,0.0,0.0,0.0,0,
148000,1869.3,314.1,235.5,66.8,0.0,0.0,0.0,0,
148100,1873.5,88.5,235.0,67.3,0.0,0.0,0.0,0,
148200,1834.4,33.7,236.1,67.2,0.0,0.0,0.0,0,
148300,1857.9,31.1,236.1,66.4,0.0,0.0,0.0,0,
148400,1859.2,32.3,236.1,49.9,0.0,0.0,0.0,0,
148600,1857.5,32.4,236.1,67.8,0.0,0.0,0.0,0,
148700,1860.5,31.2,236.1,239.9,0.0,0.0,0.0,0,
148800,1861.7,28.8,236.1,240.1,0.0,0.0,0.0,0,
148900,1859.4,33.1,236.1,240.2,0.0,0.0,0.0,0,
149000,1859.8,30.2,236.1,240.2,0.0,0.0,0.0,0,
149100,1860.1,214.8,236.1,240.1,0.0,0.0,0.0,0,
149200,1868.7,349.5,237.0,184.4,0.0,0.0,0.0,0,
149300,1852.3,322.0,238.6,69.2,0.0,0.0,0.0,0,
149400,1872.2,352.0,239.2,67.0,0.0,0.0,0.0,0,
149600,1825.2,307.3,237.3,66.6,0.0,0.0,0.0,0,
149700,1848.8,132.4,234.9,67.0,0.0,0.0,0.0,0,
149800,1875.7,33.0,234.4,67.0,0.0,0.0,0.0,0,
149900,1860.6,30.5,234.4,66.4,0.0,0.0,0.0,0,
150000,1861.6,30.1,234.4,45.8,0.0,0.0,0.0,0,
150100,1860.1,32.1,234.3,38.8,0.0,0.0,0.0,0,
150200,1862.5,28.6,234.4,53.4,0.0,0.0,0.0,0,
150300,1860.3,34.4,234.3,239.7,0.0,0.0,0.0,0,
150400,1860.1,30.5,234.3,239.5,0.0,0.0,0.0,0,
150600,1859.5,31.2,234.3,239.8,0.0,0.0,0.0,0,
150700,1858.4,207.1,234.3,239.8,0.0,0.0,0.0,0,
150800,1864.6,309.0,235.7,237.7,0.0,0.0,0.0,0,
150900,1876.1,340.7,236.5,69.2,0.0,0.0,0.0,0,
151000,1839.5,335.9,234.8,66.9,0.0,0.0,0.0,0,
151100,1832.5,350.4,230.3,66.5,0.0,0.0,0.0,0,
151200,1886.4,293.2,230.9,66.7,0.0,0.0,0.0,0,
151300,1858.2,210.1,230.9,67.2,0.0,0.0,0.0,0,
151400,1851.5,41.9,230.0,67.0,0.0,0.0,0.0,0,
151600,1858.8,31.7,230.0,66.0,0.0,0.0,0.0,0,
151700,1859.9,29.9,230.0,52.0,0.0,0.0,0.0,0,
151800,1859.4,29.9,230.0,51.7,0.0,0.0,0.0,0,
151900,1859.6,31.4,230.0,240.0,0.0,0.0,0.0,0,
152000,1858.9,29.2,230.0,240.2,0.0,0.0,0.0,0,
152100,1858.4,29.7,229.9,240.3,0.0,0.0,0.0,0,
152200,1859.0,27.9,230.0,240.2,0.0,0.0,0.0,0,
152300,1859.9,133.0,230.0,240.1,0.0,0.0,0.0,0,
152400,1877.4,302.1,229.4,239.4,0.0,0.0,0.0,0,
152600,1879.8,307.9,227.4,66.9,0.0,0.0,0.0,0,
152700,1852.8,334.8,229.0,66.6,0.0,0.0,0.0,0,
152800,1896.4,331.0,228.8,66.6,0.0,0.0,0.0,0,
152900,1817.8,315.7,229.8,66.9,0.0,0.0,0.0,0,
153000,1850.4,45.6,228.1,67.1,0.0,0.0,0.0,0,
153100,1874.2,32.8,228.1,66.9,0.0,0.0,0.0,0,
153200,1860.5,31.5,228.1,66.0,0.0,0.0,0.0,0,
153300,1860.1,26.7,228.1,53.6,0.0,0.0,0.0,0,
153400,1860.8,30.4,228.1,50.0,0.0,0.0,0.0,0,
153600,1860.4,29.9,228.1,240.0,0.0,0.0,0.0,0,
153700,1859.7,28.8,228.1,239.8,0.0,0.0,0.0,0,
153800,1860.1,33.2,228.1,239.9,0.0,0.0,0.0,0,
153900,1860.8,49.2,228.1,239.9,0.0,0.0,0.0,0,
154000,1859.9,269.2,228.4,239.9,0.0,0.0,0.0,0,
154100,1843.6,321.1,228.8,71.9,0.0,0.0,0.0,0,
154200,1897.0,344.0,232.0,67.1,0.0,0.0,0.0,0,
154300,1820.9,340.0,234.7,66.6,0.0,0.0,0.0,0,
154400,1854.1,328.4,233.7,66.7,0.0,0.0,0.0,0,
154600,1875.8,53.9,234.2,67.1,0.0,0.0,0.0,0,
154700,1856.6,33.7,233.4,68.1,0.0,0.0,0.0,0,
154800,1859.7,31.3,233.4,66.3,0.0,0.0,0.0,0,
154900,1860.2,29.5,233.4,56.2,0.0,0.0,0.0,0,
155000,1860.1,31.3,233.4,45.0,0.0,0.0,0.0,0,
155100,1860.3,32.4,233.4,168.4,0.0,0.0,0.0,0,
155200,1858.8,28.4,233.4,239.7,0.0,0.0,0.0,0,
155300,1857.5,30.1,233.4,239.5,0.0,0.0,0.0,0,
155400,1859.4,32.5,233.4,239.6,0.0,0.0,0.0,0,
155600,1858.4,257.9,233.4,240.0,0.0,0.0,0.0,0,
155700,1870.5,343.5,234.2,79.1,0.0,0.0,0.0,0,
155800,1833.4,337.6,231.5,67.7,0.0,0.0,0.0,0,
155900,1859.6,314.1,231.6,66.8,0.0,0.0,0.0,0,
156000,1867.3,318.8,231.7,66.6,0.0,0.0,0.0,0,
156100,1881.6,322.8,231.5,66.7,0.0,0.0,0.0,0,
156200,1836.8,76.7,233.7,67.0,0.0,0.0,0.0,0,
156300,1860.2,30.4,231.9,67.1,0.0,0.0,0.0,0,
156400,1859.5,30.9,231.9,66.5,0.0,0.0,0.0,0,
156600,1860.4,31.6,231.8,55.1,0.0,0.0,0.0,0,
156700,1860.0,30.1,231.9,84.3,0.0,0.0,0.0,0,
156800,1859.5,31.8,231.9,239.8,0.0,0.0,0.0,0,
156900,1859.4,29.6,231.9,239.7,0.0,0.0,0.0,0,
157000,1859.6,33.6,231.9,239.9,0.0,0.0,0.0,0,
157100,1861.1,32.6,232.0,240.0,0.0,0.0,0.0,0,
157200,1860.2,239.0,231.9,240.0,0.0,0.0,0.0,0,
157300,1853.1,317.4,230.9,90.7,0.0,0.0,0.0,0,
157400,1862.6,315.5,231.5,67.5,0.0,0.0,0.0,0,
157600,1844.9,344.0,232.4,66.6,0.0,0.0,0.0,0,
157700,1830.9,338.9,231.8,66.6,0.0,0.0,0.0,0,
157800,1881.0,122.2,233.4,66.9,0.0,0.0,0.0,0,
157900,1859.5,35.3,234.5,67.0,0.0,0.0,0.0,0,
158000,1858.3,32.8,234.5,66.5,0.0,0.0,0.0,0,
158100,1858.7,30.2,234.5,65.7,0.0,0.0,0.0,0,
158200,1862.3,28.8,234.5,49.2,0.0,0.0,0.0,0,
158300,1860.4,29.7,234.5,66.3,0.0,0.0,0.0,0,
158400,1862.1,34.0,234.4,240.3,0.0,0.0,0.0,0,
158600,1859.4,31.7,234.4,239.7,0.0,0.0,0.0,0,
158700,1860.0,31.6,234.4,239.3,0.0,0.0,0.0,0,
158800,1858.2,169.2,234.4,239.4,0.0,0.0,0.0,0,
158900,1871.8,328.1,235.1,212.8,0.0,0.0,0.0,0,
159000,1873.9,377.0,238.0,69.1,0.0,0.0,0.0,0,
159100,1820.8,345.5,240.4,67.2,0.0,0.0,0.0,0,
159200,1870.6,310.9,240.7,66.6,0.0,0.0,0.0,0,
159300,1859.6,311.1,240.4,66.5,0.0,0.0,0.0,0,
159400,1893.4,197.9,239.0,66.8,0.0,0.0,0.0,0,
159600,1860.4,31.3,238.6,66.6,0.0,0.0,0.0,0,
159700,1859.6,32.2,238.6,65.7,0.0,0.0,0.0,0,
159800,1862.3,31.3,238.6,45.3,0.0,0.0,0.0,0,
159900,1858.6,31.4,238.6,54.5,0.0,0.0,0.0,0,
160000,1860.6,31.3,238.7,240.4,0.0,0.0,0.0,0,
160100,1859.3,33.3,238.7,240.4,0.0,0.0,0.0,0,
160200,1860.2,29.3,238.7,240.3,0.0,0.0,0.0,0,
160300,1858.8,31.7,238.7,240.3,0.0,0.0,0.0,0,
160400,1859.2,139.9,238.7,240.0,0.0,0.0,0.0,0,
160600,1841.2,350.8,236.4,73.7,0.0,0.0,0.0,0,
160700,1871.3,322.8,236.3,67.1,0.0,0.0,0.0,0,
160800,1882.7,328.3,236.0,66.5,0.0,0.0,0.0,0,
160900,1842.9,336.7,236.7,66.5,0.0,0.0,0.0,0,
161000,1839.9,301.6,235.2,66.7,0.0,0.0,0.0,0,
161100,1854.0,45.5,234.7,66.9,0.0,0.0,0.0,0,
161200,1871.7,30.5,234.6,66.7,0.0,0.0,0.0,0,
161300,1859.0,32.8,234.6,65.9,0.0,0.0,0.0,0,
161400,1859.2,30.0,234.6,49.2,0.0,0.0,0.0,0,
161600,1859.8,30.7,234.6,239.7,0.0,0.0,0.0,0,
161700,1860.6,34.0,234.6,240.0,0.0,0.0,0.0,0,
161800,1857.9,31.6,234.6,240.1,0.0,0.0,0.0,0,
161900,1860.2,31.0,234.6,240.0,0.0,0.0,0.0,0,
162000,1859.9,91.9,234.6,239.8,0.0,0.0,0.0,0,
162100,1875.7,226.9,234.5,240.0,0.0,0.0,0.0,0,
162200,1846.2,348.0,234.9,74.2,0.0,0.0,0.0,0,
162300,1881.3,370.1,236.2,66.9,0.0,0.0,0.0,0,
162400,1818.6,350.3,235.0,66.5,0.0,0.0,0.0,0,
162600,1859.2,298.1,236.3,66.7,0.0,0.0,0.0,0,
162700,1887.8,53.4,235.8,66.9,0.0,0.0,0.0,0,
162800,1837.5,34.2,234.9,67.0,0.0,0.0,0.0,0,
162900,1861.6,31.4,234.9,66.0,0.0,0.0,0.0,0,
163000,1861.5,30.6,234.9,52.0,0.0,0.0,0.0,0,
163100,1859.8,32.3,234.9,47.9,0.0,0.0,0.0,0,
163200,1860.6,28.6,234.9,183.2,0.0,0.0,0.0,0,
163300,1859.0,31.4,234.9,239.9,0.0,0.0,0.0,0,
163400,1857.9,28.6,234.9,239.8,0.0,0.0,0.0,0,
163600,1860.8,30.3,234.9,239.7,0.0,0.0,0.0,0,
163700,1860.7,287.5,234.9,239.6,0.0,0.0,0.0,0,
163800,1840.5,367.5,238.2,73.2,0.0,0.0,0.0,0,
163900,1862.5,353.0,237.6,67.1,0.0,0.0,0.0,0,
164000,1862.3,310.9,239.5,66.6,0.0,0.0,0.0,0,
164100,1888.3,316.2,239.5,66.6,0.0,0.0,0.0,0,
164200,1845.3,330.1,238.0,66.7,0.0,0.0,0.0,0,
164300,1838.6,73.9,236.5,66.9,0.0,0.0,0.0,0,
164400,1879.2,32.0,235.8,67.2,0.0,0.0,0.0,0,
164600,1861.4,30.2,235.8,65.7,0.0,0.0,0.0,0,
164700,1858.1,29.5,235.8,49.6,0.0,0.0,0.0,0,
164800,1860.0,30.4,235.7,94.4,0.0,0.0,0.0,0,
164900,1859.5,31.9,235.8,240.0,0.0,0.0,0.0,0,
165000,1860.5,29.6,235.8,240.0,0.0,0.0,0.0,0,
165100,1861.4,32.9,235.8,240.3,0.0,0.0,0.0,0,
165200,1860.3,33.6,235.8,240.5,0.0,0.0,0.0,0,
165300,1859.9,248.9,235.8,240.2,0.0,0.0,0.0,0,
165400,1856.3,297.8,235.1,99.3,0.0,0.0,0.0,0,
165600,1863.8,368.8,233.5,66.8,0.0,0.0,0.0,0,
165700,1832.9,331.5,234.0,66.6,0.0,0.0,0.0,0,
165800,1851.4,325.7,233.3,66.6,0.0,0.0,0.0,0,
165900,1875.8,108.8,236.2,66.8,0.0,0.0,0.0,0,
166000,1863.1,30.8,235.4,67.0,0.0,0.0,0.0,0,
166100,1858.9,30.3,235.3,66.4,0.0,0.0,0.0,0,
166200,1859.2,33.3,235.3,65.8,0.0,0.0,0.0,0,
166300,1858.5,32.7,235.4,51.3,0.0,0.0,0.0,0,
166400,1858.6,30.6,235.4,67.7,0.0,0.0,0.0,0,
166600,1858.7,30.7,235.4,240.0,0.0,0.0,0.0,0,
166700,1861.1,32.5,235.4,240.0,0.0,0.0,0.0,0,
166800,1860.6,31.0,235.4,240.0,0.0,0.0,0.0,0,
166900,1859.9,198.4,235.4,239.9,0.0,0.0,0.0,0,
167000,1872.7,354.8,234.5,198.4,0.0,0.0,0.0,0,
167100,1842.9,339.1,238.1,68.8,0.0,0.0,0.0,0,
167200,1842.6,358.7,235.6,67.1,0.0,0.0,0.0,0,
167300,1885.0,298.6,237.6,66.7,0.0,0.0,0.0,0,
167400,1867.2,329.1,238.4,66.6,0.0,0.0,0.0,0,
167600,1837.5,39.6,238.3,67.0,0.0,0.0,0.0,0,
167700,1859.1,32.8,238.3,66.8,0.0,0.0,0.0,0,
167800,1860.9,26.8,238.3,66.1,0.0,0.0,0.0,0,
167900,1861.0,29.7,238.3,55.5,0.0,0.0,0.0,0,
168000,1861.3,33.6,238.3,66.1,0.0,0.0,0.0,0,
168100,1858.7,28.5,238.3,239.9,0.0,0.0,0.0,0,
168200,1858.9,32.1,238.3,240.0,0.0,0.0,0.0,0,
168300,1859.4,31.0,238.3,240.0,0.0,0.0,0.0,0,
168400,1860.2,34.5,238.3,239.8,0.0,0.0,0.0,0,
168600,1848.5,339.0,238.0,239.3,0.0,0.0,0.0,0,
168700,1871.8,291.4,238.7,68.2,0.0,0.0,0.0,0,
168800,1858.1,348.7,238.6,66.8,0.0,0.0,0.0,0,
168900,1879.4,345.9,237.7,66.5,0.0,0.0,0.0,0,
169000,1812.5,327.0,238.0,66.6,0.0,0.0,0.0,0,
169100,1863.5,271.9,235.5,67.0,0.0,0.0,0.0,0,
169200,1859.8,45.5,235.4,67.2,0.0,0.0,0.0,0,
169300,1865.6,32.4,235.2,66.9,0.0,0.0,0.0,0,
169400,1860.8,27.9,235.2,66.0,0.0,0.0,0.0,0,
169600,1862.0,29.1,235.2,45.0,0.0,0.0,0.0,0,
169700,1860.9,32.6,235.2,239.9,0.0,0.0,0.0,0,
169800,1859.1,34.0,235.2,240.0,0.0,0.0,0.0,0,
169900,1858.5,30.8,235.2,240.1,0.0,0.0,0.0,0,
170000,1859.4,33.2,235.2,240.3,0.0,0.0,0.0,0,
170100,1858.4,91.0,235.2,240.1,0.0,0.0,0.0,0,
170200,1872.8,306.2,236.3,240.0,0.0,0.0,0.0,0,
170300,1883.7,368.3,236.5,85.7,0.0,0.0,0.0,0,
170400,1811.8,342.9,240.0,67.3,0.0,0.0,0.0,0,
170600,1871.7,283.9,238.3,66.4,0.0,0.0,0.0,0,
170700,1873.6,308.0,238.8,66.8,0.0,0.0,0.0,0,
170800,1857.5,52.3,237.8,67.2,0.0,0.0,0.0,0,
170900,1840.7,31.5,237.8,66.9,0.0,0.0,0.0,0,
171000,1860.5,30.8,237.8,66.0,0.0,0.0,0.0,0,
171100,1858.8,30.2,237.8,43.5,0.0,0.0,0.0,0,
171200,1860.1,30.3,237.8,42.5,0.0,0.0,0.0,0,
171300,1859.7,32.2,237.8,201.4,0.0,0.0,0.0,0,
171400,1861.3,32.1,237.8,239.9,0.0,0.0,0.0,0,
171600,1860.7,32.4,237.7,239.8,0.0,0.0,0.0,0,
171700,1859.5,32.2,237.7,239.7,0.0,0.0,0.0,0,
171800,1859.6,289.7,237.8,240.0,0.0,0.0,0.0,0,
171900,1842.9,368.8,238.2,100.5,0.0,0.0,0.0,0,
172000,1877.8,301.7,236.8,67.4,0.0,0.0,0.0,0,
172100,1859.5,333.5,235.6,66.5,0.0,0.0,0.0,0,
172200,1876.4,339.8,234.4,66.5,0.0,0.0,0.0,0,
172300,1830.5,319.4,236.4,66.8,0.0,0.0,0.0,0,
172400,1845.7,71.0,235.5,67.0,0.0,0.0,0.0,0,
172600,1860.4,33.7,235.8,66.2,0.0,0.0,0.0,0,
172700,1859.5,31.5,235.8,51.6,0.0,0.0,0.0,0,
172800,1861.0,31.4,235.8,41.0,0.0,0.0,0.0,0,
172900,1861.1,31.3,235.8,82.0,0.0,0.0,0.0,0,
173000,1860.9,32.9,235.8,240.1,0.0,0.0,0.0,0,
173100,1860.1,30.9,235.8,240.1,0.0,0.0,0.0,0,
173200,1859.4,29.2,235.8,240.0,0.0,0.0,0.0,0,
173300,1856.8,32.0,235.8,239.9,0.0,0.0,0.0,0,
173400,1860.4,226.1,235.8,240.0,0.0,0.0,0.0,0,
173600,1892.2,354.7,235.9,67.5,0.0,0.0,0.0,0,
173700,1826.6,336.4,237.1,66.6,0.0,0.0,0.0,0,
173800,1848.3,348.5,235.0,66.6,0.0,0.0,0.0,0,
173900,1876.5,270.9,236.3,66.9,0.0,0.0,0.0,0,
174000,1859.9,100.4,235.6,66.9,0.0,0.0,0.0,0,
174100,1859.5,31.6,234.6,67.1,0.0,0.0,0.0,0,
174200,1858.0,31.3,234.6,66.6,0.0,0.0,0.0,0,
174300,1858.0,29.2,234.6,65.8,0.0,0.0,0.0,0,
174400,1859.3,32.5,234.5,50.7,0.0,0.0,0.0,0,
174600,1862.3,28.4,234.5,239.9,0.0,0.0,0.0,0,
174700,1860.6,32.4,234.5,240.2,0.0,0.0,0.0,0,
174800,1861.9,32.2,234.5,240.1,0.0,0.0,0.0,0,
174900,1859.7,31.3,234.5,239.9,0.0,0.0,0.0,0,
175000,1858.6,215.9,234.5,240.0,0.0,0.0,0.0,0,
175100,1860.6,346.4,235.7,125.1,0.0,0.0,0.0,0,
175200,1845.5,372.0,234.1,68.5,0.0,0.0,0.0,0,
175300,1860.6,307.3,236.5,66.9,0.0,0.0,0.0,0,
175400,1868.8,337.3,237.3,66.6,0.0,0.0,0.0,0,
175600,1822.6,148.7,237.4,66.7,0.0,0.0,0.0,0,
175700,1875.0,41.2,236.5,71.7,0.0,0.0,0.0,0,
175800,1861.9,31.5,236.5,67.0,0.0,0.0,0.0,0,
175900,1857.7,31.3,236.5,66.2,0.0,0.0,0.0,0,
176000,1859.6,30.2,236.6,56.2,0.0,0.0,0.0,0,
176100,1860.1,31.3,236.6,56.3,0.0,0.0,0.0,0,
176200,1858.7,31.0,236.6,239.9,0.0,0.0,0.0,0,
176300,1860.4,30.9,236.6,240.0,0.0,0.0,0.0,0,
176400,1861.6,30.1,236.6,240.0,0.0,0.0,0.0,0,
176600,1860.3,216.7,236.6,239.9,0.0,0.0,0.0,0,
176700,1844.8,326.1,236.8,233.6,0.0,0.0,0.0,0,
176800,1870.3,351.0,242.2,68.6,0.0,0.0,0.0,0,
176900,1892.7,344.5,241.9,66.9,0.0,0.0,0.0,0,
177000,1824.1,348.2,242.3,66.7,0.0,0.0,0.0,0,
177100,1848.2,329.4,240.7,66.8,0.0,0.0,0.0,0,
177200,1874.1,237.2,242.4,67.0,0.0,0.0,0.0,0,
177300,1861.8,39.8,242.2,68.4,0.0,0.0,0.0,0,
177400,1864.6,30.2,242.1,66.9,0.0,0.0,0.0,0,
177600,1861.1,28.6,242.1,56.6,0.0,0.0,0.0,0,
177700,1860.7,30.3,242.1,51.3,0.0,0.0,0.0,0,
177800,1861.4,31.5,242.1,239.7,0.0,0.0,0.0,0,
177900,1859.8,30.5,242.1,239.9,0.0,0.0,0.0,0,
178000,1859.9,28.8,242.1,239.9,0.0,0.0,0.0,0,
178100,1860.8,30.2,242.1,239.8,0.0,0.0,0.0,0,
178200,1859.0,96.2,242.1,240.1,0.0,0.0,0.0,0,
178300,1871.7,300.0,242.4,239.8,0.0,0.0,0.0,0,
178400,1864.7,379.1,242.3,70.4,0.0,0.0,0.0,0,
178600,1875.4,302.0,242.2,66.8,0.0,0.0,0.0,0,
178700,1857.0,340.9,241.3,66.5,0.0,0.0,0.0,0,
178800,1884.0,320.9,241.2,66.7,0.0,0.0,0.0,0,
178900,1832.8,49.2,243.0,68.6,0.0,0.0,0.0,0,
179000,1862.2,33.2,242.0,67.2,0.0,0.0,0.0,0,
179100,1859.7,30.4,242.0,66.4,0.0,0.0,0.0,0,
179200,1860.7,28.4,242.0,52.3,0.0,0.0,0.0,0,
179300,1860.0,32.4,241.9,44.1,0.0,0.0,0.0,0,
179400,1860.8,29.5,242.0,238.2,0.0,0.0,0.0,0,
179600,1860.1,33.6,242.0,239.6,0.0,0.0,0.0,0,
179700,1859.7,30.9,242.0,239.9,0.0,0.0,0.0,0,
179800,1858.7,27.0,242.0,240.1,0.0,0.0,0.0,0,
179900,1858.7,314.3,242.0,240.0,0.0,0.0,0.0,0,
180000,1862.9,319.7,242.3,71.0,0.0,0.0,0.0,0,
180100,1852.5,355.9,241.3,67.5,0.0,0.0,0.0,0,
180200,1897.0,331.5,240.5,66.8,0.0,0.0,0.0,0,
180300,1825.2,333.8,240.6,66.6,0.0,0.0,0.0,0,
180400,1851.2,333.1,238.1,66.7,0.0,0.0,0.0,0,
180600,1861.5,33.2,237.1,67.2,0.0,0.0,0.0,0,
180700,1858.1,28.4,237.1,66.6,0.0,0.0,0.0,0,
180800,1859.2,30.2,237.1,65.7,0.0,0.0,0.0,0,
180900,1860.3,30.6,237.1,48.1,0.0,0.0,0.0,0,
181000,1862.0,28.3,237.1,130.0,0.0,0.0,0.0,0,
181100,1859.3,33.5,237.1,240.0,0.0,0.0,0.0,0,
181200,1859.6,31.6,237.1,240.1,0.0,0.0,0.0,0,
181300,1861.2,29.1,237.1,239.7,0.0,0.0,0.0,0,
181400,1859.6,28.3,237.0,239.5,0.0,0.0,0.0,0,
181600,1884.0,352.5,237.5,108.7,0.0,0.0,0.0,0,
181700,1845.2,386.5,239.9,68.4,0.0,0.0,0.0,0,
181800,1841.7,352.1,239.8,66.8,0.0,0.0,0.0,0,
181900,1857.3,325.5,241.0,66.5,0.0,0.0,0.0,0,
182000,1873.8,339.6,242.2,66.7,0.0,0.0,0.0,0,
182100,1881.5,93.5,243.9,67.1,0.0,0.0,0.0,0,
182200,1828.6,35.3,244.1,67.0,0.0,0.0,0.0,0,
182300,1856.3,34.4,244.1,66.5,0.0,0.0,0.0,0,
182400,1859.4,31.8,244.1,65.5,0.0,0.0,0.0,0,
182600,1859.0,30.1,244.1,66.8,0.0,0.0,0.0,0,
182700,1859.1,31.7,244.1,239.5,0.0,0.0,0.0,0,
182800,1859.8,31.7,244.1,239.5,0.0,0.0,0.0,0,
182900,1857.8,36.4,244.1,239.7,0.0,0.0,0.0,0,
183000,1860.5,35.7,244.2,239.7,0.0,0.0,0.0,0,
183100,1857.0,264.6,244.2,239.8,0.0,0.0,0.0,0,
183200,1857.4,361.6,246.5,134.1,0.0,0.0,0.0,0,
183300,1845.0,338.4,247.8,67.5,0.0,0.0,0.0,0,
183400,1876.5,345.9,247.9,66.5,0.0,0.0,0.0,0,
183600,1848.2,348.1,249.6,66.7,0.0,0.0,0.0,0,
183700,1829.1,144.9,245.8,67.0,0.0,0.0,0.0,0,
183800,1872.9,38.7,245.3,67.1,0.0,0.0,0.0,0,
183900,1858.0,32.0,245.4,66.5,0.0,0.0,0.0,0,
184000,1858.9,29.5,245.3,49.8,0.0,0.0,0.0,0,
184100,1860.1,31.4,245.3,38.8,0.0,0.0,0.0,0,
184200,1859.9,30.8,245.3,50.9,0.0,0.0,0.0,0,
184300,1859.2,27.9,245.3,240.0,0.0,0.0,0.0,0,
184400,1859.4,28.3,245.3,239.9,0.0,0.0,0.0,0,
184600,1858.7,30.9,245.3,240.2,0.0,0.0,0.0,0,
184700,1857.5,195.0,245.2,240.0,0.0,0.0,0.0,0,
184800,1855.4,290.5,243.8,215.3,0.0,0.0,0.0,0,
184900,1865.4,319.3,239.5,68.5,0.0,0.0,0.0,0,
185000,1868.6,375.6,237.4,66.7,0.0,0.0,0.0,0,
185100,1819.0,343.7,235.1,66.6,0.0,0.0,0.0,0,
185200,1871.9,298.0,236.3,66.8,0.0,0.0,0.0,0,
185300,1849.8,234.9,236.2,66.9,0.0,0.0,0.0,0,
185400,1870.4,41.6,237.1,67.1,0.0,0.0,0.0,0,
185600,1861.0,29.3,237.1,66.3,0.0,0.0,0.0,0,
185700,1860.5,29.0,237.1,65.6,0.0,0.0,0.0,0,
185800,1858.0,29.6,237.1,56.2,0.0,0.0,0.0,0,
185900,1858.8,29.6,237.1,240.1,0.0,0.0,0.0,0,
186000,1859.9,30.9,237.1,239.9,0.0,0.0,0.0,0,
186100,1860.5,29.3,237.1,239.9,0.0,0.0,0.0,0,
186200,1858.2,29.1,237.1,239.9,0.0,0.0,0.0,0,
186300,1859.1,133.7,237.0,239.9,0.0,0.0,0.0,0,
186400,1883.3,340.5,237.9,239.4,0.0,0.0,0.0,0,
186600,1858.5,335.6,244.6,66.9,0.0,0.0,0.0,0,
186700,1867.1,335.2,245.5,66.6,0.0,0.0,0.0,0,
186800,1886.2,311.9,245.9,66.7,0.0,0.0,0.0,0,
186900,1834.9,349.9,246.4,66.8,0.0,0.0,0.0,0,
187000,1840.1,50.7,244.9,67.3,0.0,0.0,0.0,0,
187100,1871.6,30.1,244.8,67.1,0.0,0.0,0.0,0,
187200,1858.9,29.3,244.8,66.2,0.0,0.0,0.0,0,
187300,1859.2,31.1,244.8,49.8,0.0,0.0,0.0,0,
187400,1858.7,28.4,244.8,43.7,0.0,0.0,0.0,0,
187600,1858.4,29.7,244.8,240.0,0.0,0.0,0.0,0,
187700,1856.5,28.8,244.8,239.9,0.0,0.0,0.0,0,
187800,1857.3,35.8,244.8,239.6,0.0,0.0,0.0,0,
187900,1859.8,55.7,244.8,239.8,0.0,0.0,0.0,0,
188000,1850.8,330.7,245.7,240.1,0.0,0.0,0.0,0,
188100,1873.5,333.0,246.5,72.4,0.0,0.0,0.0,0,
188200,1863.4,340.0,246.3,67.6,0.0,0.0,0.0,0,
188300,1864.0,378.5,247.4,66.9,0.0,0.0,0.0,0,
188400,1828.0,354.8,247.6,66.7,0.0,0.0,0.0,0,
188600,1863.4,60.4,248.3,67.3,0.0,0.0,0.0,0,
188700,1861.9,30.6,247.9,67.3,0.0,0.0,0.0,0,
188800,1858.9,31.0,247.9,66.6,0.0,0.0,0.0,0,
188900,1858.8,29.3,247.9,65.5,0.0,0.0,0.0,0,
189000,1856.8,32.3,247.9,45.2,0.0,0.0,0.0,0,
189100,1859.2,29.2,247.9,125.5,0.0,0.0,0.0,0,
189200,1858.4,31.9,247.9,239.9,0.0,0.0,0.0,0,
189300,1856.4,31.8,247.9,240.1,0.0,0.0,0.0,0,
189400,1858.5,31.3,247.9,240.0,0.0,0.0,0.0,0,
189600,1858.7,293.0,247.9,240.1,0.0,0.0,0.0,0,
189700,1894.3,392.3,248.4,78.8,0.0,0.0,0.0,0,
189800,1803.4,393.0,248.4,67.9,0.0,0.0,0.0,0,
189900,1867.0,332.5,248.6,66.7,0.0,0.0,0.0,0,
190000,1859.0,330.4,246.6,66.5,0.0,0.0,0.0,0,
190100,1887.6,312.6,246.9,66.7,0.0,0.0,0.0,0,
190200,1843.0,84.4,246.5,67.4,0.0,0.0,0.0,0,
190300,1840.0,33.1,245.4,67.3,0.0,0.0,0.0,0,
190400,1856.5,34.0,245.5,66.6,0.0,0.0,0.0,0,
190600,1859.4,31.2,245.5,43.9,0.0,0.0,0.0,0,
190700,1859.2,33.1,245.5,72.6,0.0,0.0,0.0,0,
190800,1859.0,31.3,245.5,240.1,0.0,0.0,0.0,0,
190900,1857.6,31.7,245.5,240.0,0.0,0.0,0.0,0,
191000,1856.1,30.9,245.5,239.8,0.0,0.0,0.0,0,
191100,1860.0,31.3,245.5,239.9,0.0,0.0,0.0,0,
191200,1857.3,265.0,245.5,240.0,0.0,0.0,0.0,0,
191300,1846.1,344.5,247.0,207.2,0.0,0.0,0.0,0,
191400,1865.3,332.9,245.9,68.2,0.0,0.0,0.0,0,
191600,1854.7,364.6,246.7,66.4,0.0,0.0,0.0,0,
191700,1833.9,337.3,247.0,66.7,0.0,0.0,0.0,0,
191800,1845.8,128.0,246.9,67.1,0.0,0.0,0.0,0,
191900,1872.2,33.8,246.7,67.3,0.0,0.0,0.0,0,
192000,1857.9,32.7,246.7,66.9,0.0,0.0,0.0,0,
192100,1858.2,30.4,246.7,65.6,0.0,0.0,0.0,0,
192200,1857.0,30.6,246.6,43.5,0.0,0.0,0.0,0,
192300,1857.1,32.4,246.6,53.8,0.0,0.0,0.0,0,
192400,1860.1,29.9,246.6,239.7,0.0,0.0,0.0,0,
192600,1856.1,30.2,246.6,239.9,0.0,0.0,0.0,0,
192700,1858.0,30.3,246.6,239.6,0.0,0.0,0.0,0,
192800,1859.0,195.9,246.6,239.8,0.0,0.0,0.0,0,
192900,1851.7,352.8,245.6,237.4,0.0,0.0,0.0,0,
193000,1882.4,372.2,245.7,67.9,0.0,0.0,0.0,0,
193100,1823.7,363.0,245.9,66.5,0.0,0.0,0.0,0,
193200,1841.9,329.7,244.3,66.4,0.0,0.0,0.0,0,
193300,1879.4,313.1,244.2,66.6,0.0,0.0,0.0,0,
193400,1857.8,209.7,243.3,66.8,0.0,0.0,0.0,0,
193600,1859.5,32.1,244.2,67.2,0.0,0.0,0.0,0,
193700,1857.9,28.3,244.3,66.3,0.0,0.0,0.0,0,
193800,1859.0,31.4,244.2,65.4,0.0,0.0,0.0,0,
193900,1859.0,34.0,244.2,50.5,0.0,0.0,0.0,0,
194000,1859.1,33.5,244.3,239.9,0.0,0.0,0.0,0,
194100,1858.0,31.5,244.3,239.9,0.0,0.0,0.0,0,
194200,1857.1,30.8,244.3,239.9,0.0,0.0,0.0,0,
194300,1857.6,33.2,244.3,239.7,0.0,0.0,0.0,0,
194400,1860.0,137.9,244.3,239.8,0.0,0.0,0.0,0,
194600,1823.9,360.3,245.5,67.8,0.0,0.0,0.0,0,
194700,1873.2,313.9,246.9,66.5,0.0,0.0,0.0,0,
194800,1860.8,345.9,244.1,66.4,0.0,0.0,0.0,0,
194900,1882.4,340.1,245.3,66.7,0.0,0.0,0.0,0,
195000,1812.2,331.8,245.7,67.0,0.0,0.0,0.0,0,
195100,1864.2,47.7,245.8,67.4,0.0,0.0,0.0,0,
195200,1875.3,32.2,245.8,67.0,0.0,0.0,0.0,0,
195300,1857.5,32.1,245.8,66.2,0.0,0.0,0.0,0,
195400,1857.7,28.8,245.8,50.0,0.0,0.0,0.0,0,
195600,1860.0,31.2,245.8,239.4,0.0,0.0,0.0,0,
195700,1857.4,33.4,245.8,239.9,0.0,0.0,0.0,0,
195800,1855.8,27.8,245.8,239.8,0.0,0.0,0.0,0,
195900,1857.0,35.0,245.8,239.7,0.0,0.0,0.0,0,
196000,1859.0,69.7,245.8,239.8,0.0,0.0,0.0,0,
196100,1861.3,280.6,246.2,240.0,0.0,0.0,0.0,0,
196200,1851.5,359.1,244.3,70.4,0.0,0.0,0.0,0,
196300,1889.4,356.5,245.8,67.1,0.0,0.0,0.0,0,
196400,1814.3,355.8,246.1,66.7,0.0,0.0,0.0,0,
196600,1873.1,285.8,244.7,66.8,0.0,0.0,0.0,0,
196700,1873.4,57.1,243.5,67.3,0.0,0.0,0.0,0,
196800,1850.3,32.4,242.8,67.6,0.0,0.0,0.0,0,
196900,1856.4,30.8,242.8,66.5,0.0,0.0,0.0,0,
197000,1857.4,30.2,242.8,56.0,0.0,0.0,0.0,0,
197100,1858.5,34.0,242.8,44.6,0.0,0.0,0.0,0,
197200,1857.1,31.0,242.8,84.4,0.0,0.0,0.0,0,
197300,1857.7,30.4,242.8,239.6,0.0,0.0,0.0,0,
197400,1858.9,29.2,242.8,239.8,0.0,0.0,0.0,0,
197600,1860.1,29.3,242.8,240.1,0.0,0.0,0.0,0,
197700,1858.6,268.7,242.8,240.1,0.0,0.0,0.0,0,
197800,1867.5,369.3,243.7,72.7,0.0,0.0,0.0,0,
197900,1829.8,366.9,240.0,67.5,0.0,0.0,0.0,0,
198000,1881.8,307.0,241.4,66.9,0.0,0.0,0.0,0,
198100,1863.2,344.6,239.2,66.7,0.0,0.0,0.0,0,
198200,1872.0,329.3,239.7,66.8,0.0,0.0,0.0,0,
198300,1838.9,74.5,240.7,84.4,0.0,0.0,0.0,0,
198400,1864.5,36.0,239.0,67.4,0.0,0.0,0.0,0,
198600,1860.1,28.7,238.9,65.7,0.0,0.0,0.0,0,
198700,1861.1,30.4,238.9,48.0,0.0,0.0,0.0,0,
198800,1860.3,30.8,238.9,83.5,0.0,0.0,0.0,0,
198900,1860.3,27.2,238.9,240.1,0.0,0.0,0.0,0,
199000,1858.9,29.9,238.9,239.9,0.0,0.0,0.0,0,
199100,1859.1,29.3,238.9,240.1,0.0,0.0,0.0,0,
199200,1859.7,31.9,238.9,240.3,0.0,0.0,0.0,0,
199300,1862.0,288.0,239.0,240.3,0.0,0.0,0.0,0,
199400,1863.4,327.7,240.2,94.2,0.0,0.0,0.0,0,
199600,1894.1,342.7,243.5,67.0,0.0,0.0,0.0,0,
199700,1825.8,352.3,244.1,66.6,0.0,0.0,0.0,0,
199800,1842.0,327.5,243.1,66.7,0.0,0.0,0.0,0,
199900,1877.8,116.2,244.3,67.1,0.0,0.0,0.0,0,
200000,1856.2,38.7,244.4,67.2,0.0,0.0,0.0,0,
200100,1859.5,30.4,244.4,66.6,0.0,0.0,0.0,0,
200200,1860.6,31.3,244.4,56.4,0.0,0.0,0.0,0,
200300,1860.3,30.1,244.4,40.2,0.0,0.0,0.0,0,
200400,1859.3,31.0,244.4,56.4,0.0,0.0,0.0,0,
200600,1858.5,28.2,244.3,239.9,0.0,0.0,0.0,0,
200700,1857.2,31.0,244.3,239.7,0.0,0.0,0.0,0,
200800,1860.0,31.3,244.4,239.6,0.0,0.0,0.0,0,
200900,1859.6,233.4,244.3,239.8,0.0,0.0,0.0,0,
201000,1886.2,345.8,246.6,188.9,0.0,0.0,0.0,0,
201100,1840.1,388.1,249.3,68.0,0.0,0.0,0.0,0,
201200,1844.8,361.7,247.1,66.7,0.0,0.0,0.0,0,
201300,1865.2,312.1,248.5,66.4,0.0,0.0,0.0,0,
201400,1862.5,342.2,246.6,66.6,0.0,0.0,0.0,0,
201600,1825.0,39.0,247.4,68.2,0.0,0.0,0.0,0,
201700,1858.5,29.6,247.4,67.0,0.0,0.0,0.0,0,
201800,1862.7,31.5,247.4,65.8,0.0,0.0,0.0,0,
201900,1860.3,31.6,247.4,41.6,0.0,0.0,0.0,0,
202000,1858.0,31.1,247.4,49.6,0.0,0.0,0.0,0,
202100,1862.7,31.4,247.4,239.9,0.0,0.0,0.0,0,
202200,1861.3,30.3,247.4,240.3,0.0,0.0,0.0,0,
202300,1859.5,27.3,247.4,240.3,0.0,0.0,0.0,0,
202400,1859.0,33.0,247.4,239.9,0.0,0.0,0.0,0,
202600,1858.2,367.1,248.9,238.5,0.0,0.0,0.0,0,
202700,1849.3,338.3,249.0,68.4,0.0,0.0,0.0,0,
202800,1871.2,361.9,248.3,66.5,0.0,0.0,0.0,0,
202900,1882.8,339.7,247.9,66.3,0.0,0.0,0.0,0,
203000,1830.4,362.8,249.6,66.6,0.0,0.0,0.0,0,
203100,1841.9,281.8,247.8,67.1,0.0,0.0,0.0,0,
203200,1863.0,41.9,247.4,67.1,0.0,0.0,0.0,0,
203300,1867.4,36.3,247.3,67.0,0.0,0.0,0.0,0,
203400,1861.2,28.2,247.4,65.9,0.0,0.0,0.0,0,
203600,1859.2,31.3,247.4,47.6,0.0,0.0,0.0,0,
203700,1858.3,29.0,247.4,239.2,0.0,0.0,0.0,0,
203800,1859.7,29.8,247.4,239.5,0.0,0.0,0.0,0,
203900,1859.4,32.8,247.4,239.7,0.0,0.0,0.0,0,
204000,1858.4,30.2,247.4,239.9,0.0,0.0,0.0,0,
204100,1859.5,86.9,247.4,239.8,0.0,0.0,0.0,0,
204200,1869.6,292.6,247.1,239.9,0.0,0.0,0.0,0,
204300,1855.2,345.5,243.8,69.8,0.0,0.0,0.0,0,
204400,1858.5,376.2,246.1,66.6,0.0,0.0,0.0,0,
204600,1879.8,303.5,244.9,66.6,0.0,0.0,0.0,0,
204700,1852.9,332.7,242.2,67.0,0.0,0.0,0.0,0,
204800,1886.4,57.2,244.0,67.2,0.0,0.0,0.0,0,
204900,1836.4,32.3,243.7,67.2,0.0,0.0,0.0,0,
205000,1858.6,31.6,243.7,66.2,0.0,0.0,0.0,0,
205100,1859.5,31.8,243.7,65.5,0.0,0.0,0.0,0,
205200,1860.5,31.9,243.7,52.3,0.0,0.0,0.0,0,
205300,1860.4,34.7,243.7,212.1,0.0,0.0,0.0,0,
205400,1859.9,33.8,243.7,240.1,0.0,0.0,0.0,0,
205600,1862.1,31.3,243.8,239.7,0.0,0.0,0.0,0,
205700,1860.3,30.3,243.8,239.8,0.0,0.0,0.0,0,
205800,1856.4,333.2,243.8,239.7,0.0,0.0,0.0,0,
205900,1832.9,373.3,245.7,70.9,0.0,0.0,0.0,0,
206000,1876.3,332.0,245.7,66.7,0.0,0.0,0.0,0,
206100,1852.3,358.1,245.1,66.4,0.0,0.0,0.0,0,
206200,1898.2,336.5,246.2,66.6,0.0,0.0,0.0,0,
206300,1834.6,350.7,247.7,66.8,0.0,0.0,0.0,0,
206400,1848.3,77.9,245.6,67.1,0.0,0.0,0.0,0,
206600,1859.2,29.9,246.0,66.5,0.0,0.0,0.0,0,
206700,1860.2,32.1,246.0,65.7,0.0,0.0,0.0,0,
206800,1861.5,29.5,246.0,49.2,0.0,0.0,0.0,0,
206900,1859.8,29.4,246.0,76.5,0.0,0.0,0.0,0,
207000,1860.0,33.2,246.0,239.6,0.0,0.0,0.0,0,
207100,1861.6,27.5,246.0,239.6,0.0,0.0,0.0,0,
207200,1863.3,26.8,246.0,239.8,0.0,0.0,0.0,0,
207300,1859.3,30.5,245.9,240.1,0.0,0.0,0.0,0,
207400,1858.4,249.2,245.9,239.9,0.0,0.0,0.0,0,
207600,1896.9,341.6,245.7,66.9,0.0,0.0,0.0,0,
207700,1833.8,385.9,248.7,66.5,0.0,0.0,0.0,0,
207800,1840.1,348.3,248.2,66.5,0.0,0.0,0.0,0,
207900,1862.8,321.3,248.6,66.7,0.0,0.0,0.0,0,
208000,1872.1,110.9,249.2,67.0,0.0,0.0,0.0,0,
208100,1858.5,32.5,247.8,68.0,0.0,0.0,0.0,0,
208200,1859.4,30.3,247.8,66.6,0.0,0.0,0.0,0,
208300,1860.9,33.5,247.8,65.6,0.0,0.0,0.0,0,
208400,1859.7,26.4,247.8,42.4,0.0,0.0,0.0,0,
208600,1859.7,31.6,247.8,240.1,0.0,0.0,0.0,0,
208700,1860.2,28.6,247.8,240.1,0.0,0.0,0.0,0,
208800,1858.5,30.3,247.8,239.9,0.0,0.0,0.0,0,
208900,1859.8,29.7,247.8,239.9,0.0,0.0,0.0,0,
209000,1861.6,249.1,247.8,240.0,0.0,0.0,0.0,0,
209100,1876.2,363.7,248.9,94.2,0.0,0.0,0.0,0,
209200,1838.3,358.4,247.6,67.3,0.0,0.0,0.0,0,
209300,1850.0,329.1,247.0,66.6,0.0,0.0,0.0,0,
209400,1878.1,334.5,246.4,66.6,0.0,0.0,0.0,0,
209600,1842.6,163.1,247.8,66.8,0.0,0.0,0.0,0,
209700,1852.6,35.6,245.4,67.3,0.0,0.0,0.0,0,
209800,1860.6,30.3,245.3,66.6,0.0,0.0,0.0,0,
209900,1859.0,29.3,245.3,65.6,0.0,0.0,0.0,0,
210000,1859.2,28.1,245.3,41.2,0.0,0.0,0.0,0,
210100,1860.1,32.1,245.3,52.2,0.0,0.0,0.0,0,
210200,1858.2,29.8,245.3,239.9,0.0,0.0,0.0,0,
210300,1858.8,28.6,245.3,239.9,0.0,0.0,0.0,0,
210400,1857.3,30.0,245.3,239.9,0.0,0.0,0.0,0,
210600,1859.5,208.6,245.3,240.3,0.0,0.0,0.0,0,
210700,1847.1,330.3,244.6,237.9,0.0,0.0,0.0,0,
210800,1875.2,311.0,245.7,68.3,0.0,0.0,0.0,0,
210900,1870.5,340.5,244.5,66.9,0.0,0.0,0.0,0,
211000,1860.1,364.0,245.0,66.6,0.0,0.0,0.0,0,
211100,1824.6,347.9,241.7,66.5,0.0,0.0,0.0,0,
211200,1876.8,245.9,242.7,66.8,0.0,0.0,0.0,0,
211300,1853.6,41.9,242.0,67.2,0.0,0.0,0.0,0,
211400,1867.5,31.2,242.0,66.8,0.0,0.0,0.0,0,
211600,1859.1,29.4,242.0,42.0,0.0,0.0,0.0,0,
211700,1857.4,30.0,242.0,54.3,0.0,0.0,0.0,0,
211800,1860.0,29.5,242.0,239.6,0.0,0.0,0.0,0,
211900,1857.1,27.3,242.0,239.8,0.0,0.0,0.0,0,
212000,1858.6,30.0,242.0,239.9,0.0,0.0,0.0,0,
212100,1861.3,30.4,242.0,240.0,0.0,0.0,0.0,0,
212200,1860.4,72.5,242.0,240.1,0.0,0.0,0.0,0,
212300,1865.1,324.0,241.6,239.8,0.0,0.0,0.0,0,
212400,1888.2,361.7,243.4,68.7,0.0,0.0,0.0,0,
212600,1872.4,318.2,242.2,66.6,0.0,0.0,0.0,0,
212700,1857.3,342.7,242.7,66.5,0.0,0.0,0.0,0,
212800,1892.8,310.5,244.0,66.9,0.0,0.0,0.0,0,
212900,1836.0,52.3,244.8,67.1,0.0,0.0,0.0,0,
213000,1850.0,33.3,244.3,66.9,0.0,0.0,0.0,0,
213100,1859.2,34.4,244.3,66.0,0.0,0.0,0.0,0,
213200,1861.4,29.3,244.3,40.4,0.0,0.0,0.0,0,
213300,1860.2,32.0,244.3,40.8,0.0,0.0,0.0,0,
213400,1860.7,30.5,244.3,237.3,0.0,0.0,0.0,0,
213600,1859.6,31.5,244.3,240.0,0.0,0.0,0.0,0,
213700,1858.3,32.4,244.3,240.1,0.0,0.0,0.0,0,
213800,1859.3,32.2,244.4,239.7,0.0,0.0,0.0,0,
213900,1859.0,340.7,244.4,239.7,0.0,0.0,0.0,0,
214000,1853.9,357.1,244.4,71.6,0.0,0.0,0.0,0,
214100,1863.4,333.1,247.5,67.2,0.0,0.0,0.0,0,
214200,1887.3,332.7,248.4,66.5,0.0,0.0,0.0,0,
214300,1847.2,372.9,250.1,66.5,0.0,0.0,0.0,0,
214400,1838.7,336.9,249.6,66.8,0.0,0.0,0.0,0,
214600,1870.0,32.9,249.0,67.2,0.0,0.0,0.0,0,
214700,1861.3,31.0,249.1,66.2,0.0,0.0,0.0,0,
214800,1860.1,33.6,249.1,42.0,0.0,0.0,0.0,0,
214900,1859.8,32.9,249.1,40.2,0.0,0.0,0.0,0,
215000,1858.6,30.3,249.1,114.9,0.0,0.0,0.0,0,
215100,1860.5,29.1,249.1,239.3,0.0,0.0,0.0,0,
215200,1859.1,29.8,249.1,239.5,0.0,0.0,0.0,0,
215300,1860.0,29.8,249.1,239.8,0.0,0.0,0.0,0,
215400,1861.5,26.8,249.1,239.9,0.0,0.0,0.0,0,
215600,1869.0,344.7,249.3,79.0,0.0,0.0,0.0,0,
215700,1871.7,389.0,248.0,67.0,0.0,0.0,0.0,0,
215800,1835.6,353.4,248.2,66.4,0.0,0.0,0.0,0,
215900,1845.3,338.5,245.9,66.4,0.0,0.0,0.0,0,
216000,1881.3,306.3,246.3,66.9,0.0,0.0,0.0,0,
216100,1869.7,99.2,245.4,67.3,0.0,0.0,0.0,0,
216200,1840.0,36.2,244.7,67.2,0.0,0.0,0.0,0,
216300,1859.7,32.1,244.6,66.3,0.0,0.0,0.0,0,
216400,1860.5,28.1,244.6,43.4,0.0,0.0,0.0,0,
216600,1860.5,29.0,244.6,66.3,0.0,0.0,0.0,0,
216700,1858.1,32.2,244.6,239.8,0.0,0.0,0.0,0,
216800,1859.1,30.9,244.7,239.8,0.0,0.0,0.0,0,
216900,1860.5,28.3,244.7,239.9,0.0,0.0,0.0,0,
217000,1861.7,30.4,244.6,239.9,0.0,0.0,0.0,0,
217100,1860.0,249.9,244.6,239.9,0.0,0.0,0.0,0,
217200,1868.0,346.8,245.7,218.9,0.0,0.0,0.0,0,
217300,1833.1,363.6,243.7,68.3,0.0,0.0,0.0,0,
217400,1886.0,309.1,244.7,66.5,0.0,0.0,0.0,0,
217600,1872.7,342.2,245.1,66.7,0.0,0.0,0.0,0,
217700,1819.5,149.2,244.6,67.0,0.0,0.0,0.0,0,
217800,1870.7,39.9,243.4,67.4,0.0,0.0,0.0,0,
217900,1861.6,30.7,243.4,66.7,0.0,0.0,0.0,0,
218000,1859.9,30.6,243.4,42.9,0.0,0.0,0.0,0,
218100,1859.0,33.9,243.4,37.8,0.0,0.0,0.0,0,
218200,1859.1,30.3,243.4,53.4,0.0,0.0,0.0,0,
218300,1858.6,30.7,243.4,239.6,0.0,0.0,0.0,0,
218400,1860.2,32.8,243.4,240.0,0.0,0.0,0.0,0,
218600,1858.2,32.7,243.4,240.4,0.0,0.0,0.0,0,
218700,1859.9,225.6,243.4,240.2,0.0,0.0,0.0,0,
218800,1856.9,280.9,243.6,238.6,0.0,0.0,0.0,0,
218900,1851.7,364.6,241.7,68.4,0.0,0.0,0.0,0,
219000,1894.2,368.4,241.5,66.6,0.0,0.0,0.0,0,
219100,1807.0,361.1,242.0,66.4,0.0,0.0,0.0,0,
219200,1866.2,338.6,240.9,66.7,0.0,0.0,0.0,0,
219300,1863.6,238.0,242.4,66.9,0.0,0.0,0.0,0,
219400,1862.2,42.4,241.9,67.3,0.0,0.0,0.0,0,
219600,1857.0,31.5,241.8,65.9,0.0,0.0,0.0,0,
219700,1861.0,29.6,241.8,44.8,0.0,0.0,0.0,0,
219800,1861.0,28.7,241.8,47.5,0.0,0.0,0.0,0,
219900,1860.0,29.3,241.8,240.2,0.0,0.0,0.0,0,
220000,1860.1,30.1,241.8,240.1,0.0,0.0,0.0,0,
220100,1859.2,34.1,241.8,239.8,0.0,0.0,0.0,0,
220200,1860.5,27.9,241.8,239.9,0.0,0.0,0.0,0,
220300,1858.5,117.9,241.8,240.1,0.0,0.0,0.0,0,
220400,1880.9,334.8,242.3,239.6,0.0,0.0,0.0,0,
220600,1852.8,361.5,244.5,66.6,0.0,0.0,0.0,0,
220700,1869.9,313.1,246.1,66.4,0.0,0.0,0.0,0,
220800,1878.6,326.8,246.2,66.6,0.0,0.0,0.0,0,
220900,1858.3,332.2,245.2,66.8,0.0,0.0,0.0,0,
221000,1834.5,52.7,245.0,67.1,0.0,0.0,0.0,0,
221100,1872.6,35.7,244.5,67.1,0.0,0.0,0.0,0,
221200,1857.5,32.9,244.5,66.3,0.0,0.0,0.0,0,
221300,1861.0,31.6,244.5,65.7,0.0,0.0,0.0,0,
221400,1859.9,32.8,244.5,54.3,0.0,0.0,0.0,0,
221600,1860.1,32.2,244.5,239.5,0.0,0.0,0.0,0,
221700,1858.4,29.6,244.6,239.7,0.0,0.0,0.0,0,
221800,1861.4,31.6,244.5,239.8,0.0,0.0,0.0,0,
221900,1859.9,29.2,244.5,240.0,0.0,0.0,0.0,0,
222000,1854.0,333.0,245.1,240.0,0.0,0.0,0.0,0,
222100,1855.7,305.1,245.5,70.4,0.0,0.0,0.0,0,
222200,1870.3,366.9,244.7,66.9,0.0,0.0,0.0,0,
222300,1875.1,353.5,244.7,66.6,0.0,0.0,0.0,0,
222400,1834.2,361.7,244.4,66.7,0.0,0.0,0.0,0,
222600,1888.2,64.2,246.9,67.1,0.0,0.0,0.0,0,
222700,1861.5,36.9,246.8,67.0,0.0,0.0,0.0,0,
222800,1859.2,31.7,246.8,66.3,0.0,0.0,0.0,0,
222900,1860.4,31.1,246.9,65.6,0.0,0.0,0.0,0,
223000,1858.8,30.5,246.8,50.7,0.0,0.0,0.0,0,
223100,1860.0,29.6,246.8,139.0,0.0,0.0,0.0,0,
223200,1860.5,29.3,246.8,239.9,0.0,0.0,0.0,0,
223300,1860.5,30.2,246.8,239.9,0.0,0.0,0.0,0,
223400,1860.2,32.1,246.8,239.8,0.0,0.0,0.0,0,
223600,1860.7,281.1,246.9,240.0,0.0,0.0,0.0,0,
223700,1875.7,360.9,245.8,72.6,0.0,0.0,0.0,0,
223800,1839.5,359.3,248.0,67.1,0.0,0.0,0.0,0,
223900,1831.9,351.9,244.4,66.6,0.0,0.0,0.0,0,
224000,1886.0,300.0,245.9,66.6,0.0,0.0,0.0,0,
224100,1854.0,340.3,245.0,66.7,0.0,0.0,0.0,0,
224200,1883.5,91.4,242.9,66.9,0.0,0.0,0.0,0,
224300,1833.5,35.5,243.2,67.0,0.0,0.0,0.0,0,
224400,1859.5,34.4,243.1,66.4,0.0,0.0,0.0,0,
224600,1859.9,31.6,243.2,45.2,0.0,0.0,0.0,0,
224700,1859.3,32.2,243.1,71.2,0.0,0.0,0.0,0,
224800,1861.5,30.6,243.1,239.7,0.0,0.0,0.0,0,
224900,1860.1,29.5,243.2,240.1,0.0,0.0,0.0,0,
225000,1858.2,31.8,243.2,240.2,0.0,0.0,0.0,0,
225100,1861.2,32.3,243.2,239.7,0.0,0.0,0.0,0,
225200,1861.4,263.4,243.2,239.9,0.0,0.0,0.0,0,
225300,1850.1,356.4,242.0,84.0,0.0,0.0,0.0,0,
225400,1870.7,296.8,243.1,67.4,0.0,0.0,0.0,0,
225600,1893.3,341.4,243.8,66.6,0.0,0.0,0.0,0,
225700,1811.3,352.4,244.2,66.6,0.0,0.0,0.0,0,
225800,1852.1,144.2,243.8,66.9,0.0,0.0,0.0,0,
225900,1876.0,38.9,244.5,68.7,0.0,0.0,0.0,0,
226000,1860.0,29.8,244.5,66.6,0.0,0.0,0.0,0,
226100,1857.7,29.2,244.4,57.5,0.0,0.0,0.0,0,
226200,1859.3,32.3,244.4,40.2,0.0,0.0,0.0,0,
226300,1859.4,32.6,244.4,49.8,0.0,0.0,0.0,0,
226400,1860.2,32.4,244.4,239.7,0.0,0.0,0.0,0,
226600,1860.1,31.4,244.4,239.9,0.0,0.0,0.0,0,
226700,1860.3,31.1,244.4,239.9,0.0,0.0,0.0,0,
226800,1859.8,186.5,244.5,239.8,0.0,0.0,0.0,0,
226900,1852.0,351.5,244.6,177.8,0.0,0.0,0.0,0,
227000,1900.6,361.9,247.4,67.8,0.0,0.0,0.0,0,
227100,1817.2,382.1,249.8,66.8,0.0,0.0,0.0,0,
227200,1851.3,344.7,249.5,66.6,0.0,0.0,0.0,0,
227300,1869.2,296.0,250.8,66.6,0.0,0.0,0.0,0,
227400,1873.3,226.4,249.8,66.9,0.0,0.0,0.0,0,
227600,1859.0,32.1,249.1,67.0,0.0,0.0,0.0,0,
227700,1856.2,28.3,249.1,65.7,0.0,0.0,0.0,0,
227800,1858.8,30.0,249.1,39.9,0.0,0.0,0.0,0,
227900,1859.8,31.3,249.1,43.9,0.0,0.0,0.0,0,
228000,1856.4,28.7,249.1,239.3,0.0,0.0,0.0,0,
228100,1861.6,28.1,249.1,239.5,0.0,0.0,0.0,0,
228200,1858.3,30.9,249.1,239.9,0.0,0.0,0.0,0,
228300,1857.1,31.2,249.1,240.0,0.0,0.0,0.0,0,
228400,1858.2,130.2,249.0,239.6,0.0,0.0,0.0,0,
228600,1825.7,359.8,247.1,67.9,0.0,0.0,0.0,0,
228700,1858.9,307.4,247.3,66.8,0.0,0.0,0.0,0,
228800,1868.8,347.8,244.4,66.5,0.0,0.0,0.0,0,
228900,1874.1,332.3,244.4,66.6,0.0,0.0,0.0,0,
229000,1835.1,338.1,245.0,66.8,0.0,0.0,0.0,0,
229100,1835.7,45.4,243.0,67.2,0.0,0.0,0.0,0,
229200,1873.7,30.4,242.9,66.9,0.0,0.0,0.0,0,
229300,1857.0,27.9,242.8,65.8,0.0,0.0,0.0,0,
229400,1858.4,29.3,242.8,39.7,0.0,0.0,0.0,0,
229600,1858.6,29.0,242.8,230.1,0.0,0.0,0.0,0,
229700,1859.0,32.5,242.8,239.4,0.0,0.0,0.0,0,
229800,1859.1,30.5,242.8,239.7,0.0,0.0,0.0,0,
229900,1858.2,31.2,242.8,240.0,0.0,0.0,0.0,0,
230000,1859.5,58.5,242.8,239.7,0.0,0.0,0.0,0,
230100,1865.5,299.1,243.3,239.9,0.0,0.0,0.0,0,
230200,1851.0,346.8,244.4,70.3,0.0,0.0,0.0,0,
230300,1881.7,352.2,244.7,67.1,0.0,0.0,0.0,0,
230400,1844.2,360.6,246.1,66.6,0.0,0.0,0.0,0,
230600,1884.3,284.7,245.2,66.8,0.0,0.0,0.0,0,
230700,1851.9,56.9,243.4,67.0,0.0,0.0,0.0,0,
230800,1856.3,33.5,243.0,67.1,0.0,0.0,0.0,0,
230900,1857.0,34.8,243.0,66.0,0.0,0.0,0.0,0,
231000,1858.5,34.3,243.1,40.3,0.0,0.0,0.0,0,
231100,1858.3,30.6,243.1,39.8,0.0,0.0,0.0,0,
231200,1858.3,32.3,243.1,154.4,0.0,0.0,0.0,0,
231300,1857.3,31.0,243.1,239.6,0.0,0.0,0.0,0,
231400,1857.8,32.2,243.1,239.5,0.0,0.0,0.0,0,
231600,1858.4,27.9,243.0,239.8,0.0,0.0,0.0,0,
231700,1857.2,292.0,243.0,239.9,0.0,0.0,0.0,0,
231800,1880.8,377.7,244.1,88.9,0.0,0.0,0.0,0,
231900,1818.5,369.0,243.0,67.1,0.0,0.0,0.0,0,
232000,1874.5,311.4,245.1,66.4,0.0,0.0,0.0,0,
232100,1854.1,344.0,245.0,66.4,0.0,0.0,0.0,0,
232200,1893.6,317.4,245.8,66.8,0.0,0.0,0.0,0,
232300,1823.1,82.8,247.5,66.9,0.0,0.0,0.0,0,
232400,1860.7,30.4,246.3,67.1,0.0,0.0,0.0,0,
232600,1858.6,31.9,246.3,46.7,0.0,0.0,0.0,0,
232700,1856.8,32.6,246.3,42.2,0.0,0.0,0.0,0,
232800,1858.7,29.0,246.3,77.8,0.0,0.0,0.0,0,
232900,1860.0,33.2,246.3,239.4,0.0,0.0,0.0,0,
233000,1859.4,32.3,246.3,239.9,0.0,0.0,0.0,0,
233100,1857.5,32.8,246.3,239.9,0.0,0.0,0.0,0,
233200,1861.1,31.5,246.3,240.2,0.0,0.0,0.0,0,
233300,1857.6,295.4,246.3,240.4,0.0,0.0,0.0,0,
233400,1844.1,317.7,245.7,132.6,0.0,0.0,0.0,0,
233600,1895.0,334.6,246.7,66.3,0.0,0.0,0.0,0,
233700,1821.6,361.6,247.3,66.4,0.0,0.0,0.0,0,
233800,1848.1,330.1,244.7,66.7,0.0,0.0,0.0,0,
233900,1859.3,121.3,245.4,67.0,0.0,0.0,0.0,0,
234000,1864.5,43.5,245.0,67.3,0.0,0.0,0.0,0,
234100,1856.9,34.2,245.1,66.4,0.0,0.0,0.0,0,
234200,1859.4,29.1,245.1,54.8,0.0,0.0,0.0,0,
234300,1857.5,28.6,245.1,41.9,0.0,0.0,0.0,0,
234400,1858.1,31.4,245.1,66.8,0.0,0.0,0.0,0,
234600,1859.9,32.5,245.1,239.9,0.0,0.0,0.0,0,
234700,1859.7,28.4,245.1,240.1,0.0,0.0,0.0,0,
234800,1858.1,31.4,245.1,239.8,0.0,0.0,0.0,0,
234900,1857.0,217.5,245.1,239.5,0.0,0.0,0.0,0,
235000,1863.8,326.1,245.8,177.3,0.0,0.0,0.0,0,
235100,1860.9,389.6,247.3,67.2,0.0,0.0,0.0,0,
235200,1832.2,352.2,245.2,66.4,0.0,0.0,0.0,0,
235300,1859.1,319.3,246.3,66.4,0.0,0.0,0.0,0,
235400,1868.6,339.7,245.1,66.7,0.0,0.0,0.0,0,
235600,1840.2,38.2,246.2,67.3,0.0,0.0,0.0,0,
235700,1856.9,33.5,246.1,67.0,0.0,0.0,0.0,0,
235800,1858.0,36.4,246.2,66.0,0.0,0.0,0.0,0,
235900,1860.6,29.1,246.2,55.1,0.0,0.0,0.0,0,
236000,1858.9,29.5,246.2,53.0,0.0,0.0,0.0,0,
236100,1857.5,31.7,246.2,238.5,0.0,0.0,0.0,0,
236200,1858.8,31.8,246.2,239.1,0.0,0.0,0.0,0,
236300,1858.3,31.0,246.2,239.4,0.0,0.0,0.0,0,
236400,1858.8,30.5,246.2,238.8,0.0,0.0,0.0,0,
236600,1853.2,348.2,247.5,199.4,0.0,0.0,0.0,0,
236700,1845.2,335.1,246.2,67.1,0.0,0.0,0.0,0,
236800,1868.0,340.9,245.6,66.4,0.0,0.0,0.0,0,
236900,1878.8,325.1,246.6,66.4,0.0,0.0,0.0,0,
237000,1853.1,365.5,247.6,66.7,0.0,0.0,0.0,0,
237100,1820.7,305.5,246.0,66.8,0.0,0.0,0.0,0,
237200,1872.5,47.7,247.8,67.0,0.0,0.0,0.0,0,
237300,1869.6,33.3,247.8,66.8,0.0,0.0,0.0,0,
237400,1858.4,31.6,247.8,66.2,0.0,0.0,0.0,0,
237600,1858.8,32.1,247.7,55.0,0.0,0.0,0.0,0,
237700,1856.7,31.8,247.7,200.6,0.0,0.0,0.0,0,
237800,1857.9,29.5,247.7,238.2,0.0,0.0,0.0,0,
237900,1857.1,31.2,247.7,239.4,0.0,0.0,0.0,0,
238000,1858.4,31.0,247.7,239.6,0.0,0.0,0.0,0,
238100,1858.2,79.3,247.7,239.8,0.0,0.0,0.0,0,
238200,1865.5,307.6,248.1,239.7,0.0,0.0,0.0,0,
238300,1862.6,356.4,247.9,68.9,0.0,0.0,0.0,0,
238400,1864.0,384.5,252.2,66.7,0.0,0.0,0.0,0,
238600,1870.3,304.4,252.2,66.6,0.0,0.0,0.0,0,
238700,1858.7,327.3,250.2,66.9,0.0,0.0,0.0,0,
238800,1890.0,61.3,250.8,91.3,0.0,0.0,0.0,0,
238900,1834.7,32.3,250.3,79.6,0.0,0.0,0.0,0,
239000,1859.2,29.1,250.2,66.4,0.0,0.0,0.0,0,
239100,1860.0,32.0,250.2,51.5,0.0,0.0,0.0,0,
239200,1857.8,35.1,250.2,39.6,0.0,0.0,0.0,0,
239300,1857.6,30.3,250.2,237.8,0.0,0.0,0.0,0,
239400,1858.1,29.8,250.2,240.0,0.0,0.0,0.0,0,
239600,1858.7,33.1,250.2,240.0,0.0,0.0,0.0,0,
239700,1858.7,30.3,250.2,240.1,0.0,0.0,0.0,0,
239800,1860.9,290.7,250.2,240.2,0.0,0.0,0.0,0,
239900,1854.5,379.4,246.5,71.0,0.0,0.0,0.0,0,
240000,1844.0,342.3,244.9,67.2,0.0,0.0,0.0,0,
240100,1871.5,334.8,244.1,66.6,0.0,0.0,0.0,0,
240200,1883.7,313.3,244.3,66.5,0.0,0.0,0.0,0,
240300,1844.3,360.3,245.0,66.8,0.0,0.0,0.0,0,
240400,1836.4,77.6,244.1,99.0,0.0,0.0,0.0,0,
240600,1857.6,29.4,244.2,66.3,0.0,0.0,0.0,0,
240700,1859.9,30.9,244.2,44.7,0.0,0.0,0.0,0,
240800,1857.0,34.4,244.2,39.4,0.0,0.0,0.0,0,
240900,1857.7,32.4,244.2,70.5,0.0,0.0,0.0,0,
241000,1859.9,27.2,244.2,239.4,0.0,0.0,0.0,0,
241100,1857.5,30.6,244.2,240.0,0.0,0.0,0.0,0,
241200,1860.2,36.3,244.2,240.3,0.0,0.0,0.0,0,
241300,1857.5,34.0,244.2,240.1,0.0,0.0,0.0,0,
241400,1860.1,294.6,244.2,240.1,0.0,0.0,0.0,0,
241600,1858.0,342.0,246.6,67.8,0.0,0.0,0.0,0,
241700,1871.9,385.5,246.6,66.9,0.0,0.0,0.0,0,
241800,1817.7,365.7,244.9,66.7,0.0,0.0,0.0,0,
241900,1862.8,303.3,246.4,66.8,0.0,0.0,0.0,0,
242000,1866.6,111.4,245.2,67.0,0.0,0.0,0.0,0,
242100,1859.5,37.5,244.5,67.2,0.0,0.0,0.0,0,
242200,1856.0,34.1,244.5,66.5,0.0,0.0,0.0,0,
242300,1858.7,33.2,244.6,55.0,0.0,0.0,0.0,0,
242400,1858.9,32.6,244.6,41.3,0.0,0.0,0.0,0,
242600,1860.6,32.1,244.6,239.3,0.0,0.0,0.0,0,
242700,1857.7,33.2,244.6,240.1,0.0,0.0,0.0,0,
242800,1858.4,36.9,244.6,240.1,0.0,0.0,0.0,0,
242900,1857.8,35.3,244.6,240.2,0.0,0.0,0.0,0,
243000,1857.5,255.9,244.7,240.0,0.0,0.0,0.0,0,
243100,1899.5,375.9,246.3,202.8,0.0,0.0,0.0,0,
243200,1805.9,393.6,248.1,67.9,0.0,0.0,0.0,0,
243300,1863.6,343.4,248.9,66.5,0.0,0.0,0.0,0,
243400,1861.6,331.2,249.0,66.4,0.0,0.0,0.0,0,
243600,1850.1,169.4,248.0,67.2,0.0,0.0,0.0,0,
243700,1837.8,37.7,245.3,92.6,0.0,0.0,0.0,0,
243800,1858.6,33.3,245.3,66.8,0.0,0.0,0.0,0,
243900,1857.9,30.9,245.3,46.7,0.0,0.0,0.0,0,
244000,1859.7,33.1,245.3,37.9,0.0,0.0,0.0,0,
244100,1860.4,30.5,245.3,41.9,0.0,0.0,0.0,0,
244200,1858.0,32.3,245.3,240.0,0.0,0.0,0.0,0,
244300,1859.4,32.0,245.3,239.8,0.0,0.0,0.0,0,
244400,1857.6,32.5,245.3,240.1,0.0,0.0,0.0,0,
244600,1856.4,191.2,245.3,240.1,0.0,0.0,0.0,0,
244700,1838.3,336.6,245.5,238.9,0.0,0.0,0.0,0,
244800,1861.5,330.7,244.2,68.2,0.0,0.0,0.0,0,
244900,1877.5,341.4,243.6,66.4,0.0,0.0,0.0,0,
245000,1860.7,368.1,243.7,66.4,0.0,0.0,0.0,0,
245100,1835.1,342.7,243.7,66.7,0.0,0.0,0.0,0,
245200,1842.1,263.3,243.0,67.2,0.0,0.0,0.0,0,
245300,1874.0,45.4,243.5,91.0,0.0,0.0,0.0,0,
245400,1862.8,28.2,243.3,67.4,0.0,0.0,0.0,0,
245600,1858.2,31.7,243.3,53.5,0.0,0.0,0.0,0,
245700,1857.2,34.9,243.3,52.0,0.0,0.0,0.0,0,
245800,1857.6,29.5,243.3,239.3,0.0,0.0,0.0,0,
245900,1857.1,33.0,243.3,240.0,0.0,0.0,0.0,0,
246000,1858.3,32.5,243.3,239.9,0.0,0.0,0.0,0,
246100,1859.3,33.3,243.3,239.8,0.0,0.0,0.0,0,
246200,1860.1,83.2,243.3,239.9,0.0,0.0,0.0,0,
246300,1853.8,323.8,243.3,239.8,0.0,0.0,0.0,0,
246400,1877.2,374.4,245.2,68.7,0.0,0.0,0.0,0,
246600,1839.6,336.5,245.9,66.5,0.0,0.0,0.0,0,
246700,1884.9,313.3,246.7,66.7,0.0,0.0,0.0,0,
246800,1860.7,312.7,246.8,66.8,0.0,0.0,0.0,0,
246900,1876.1,56.0,248.4,67.3,0.0,0.0,0.0,0,
247000,1838.8,31.8,248.2,67.1,0.0,0.0,0.0,0,
247100,1857.7,30.3,248.2,66.3,0.0,0.0,0.0,0,
247200,1857.5,33.2,248.3,57.0,0.0,0.0,0.0,0,
247300,1858.9,31.1,248.3,43.4,0.0,0.0,0.0,0,
247400,1858.8,32.7,248.3,133.9,0.0,0.0,0.0,0,
247600,1858.7,33.0,248.3,239.8,0.0,0.0,0.0,0,
247700,1858.2,34.2,248.3,239.9,0.0,0.0,0.0,0,
247800,1859.2,32.0,248.3,240.2,0.0,0.0,0.0,0,
247900,1858.2,346.0,248.3,240.1,0.0,0.0,0.0,0,
248000,1845.1,347.6,248.6,69.1,0.0,0.0,0.0,0,
248100,1866.3,323.1,248.3,66.7,0.0,0.0,0.0,0,
248200,1868.5,347.2,247.2,66.5,0.0,0.0,0.0,0,
248300,1880.2,344.7,248.2,66.6,0.0,0.0,0.0,0,
248400,1812.1,359.1,248.2,66.7,0.0,0.0,0.0,0,
248600,1874.9,37.4,248.8,67.3,0.0,0.0,0.0,0,
248700,1856.5,35.3,248.9,66.4,0.0,0.0,0.0,0,
248800,1857.2,33.3,248.9,54.6,0.0,0.0,0.0,0,
248900,1858.9,30.8,248.9,42.7,0.0,0.0,0.0,0,
249000,1857.2,32.2,248.9,80.3,0.0,0.0,0.0,0,
249100,1856.8,32.3,248.9,239.7,0.0,0.0,0.0,0,
249200,1858.4,32.6,248.9,240.0,0.0,0.0,0.0,0,
249300,1858.0,30.1,248.9,239.5,0.0,0.0,0.0,0,
249400,1859.1,32.2,248.9,239.7,0.0,0.0,0.0,0,
249600,1865.0,352.8,247.8,72.4,0.0,0.0,0.0,0,
249700,1881.1,367.6,248.8,67.0,0.0,0.0,0.0,0,
249800,1823.4,369.4,248.8,66.6,0.0,0.0,0.0,0,
249900,1844.1,328.2,247.4,66.5,0.0,0.0,0.0,0,
250000,1881.5,307.1,247.8,66.7,0.0,0.0,0.0,0,
250100,1867.2,106.5,245.4,67.2,0.0,0.0,0.0,0,
250200,1845.4,35.3,245.5,84.3,0.0,0.0,0.0,0,
250300,1856.5,29.9,245.5,66.8,0.0,0.0,0.0,0,
250400,1859.5,31.9,245.5,56.2,0.0,0.0,0.0,0,
250600,1858.4,29.3,245.4,65.9,0.0,0.0,0.0,0,
250700,1860.8,33.3,245.5,239.3,0.0,0.0,0.0,0,
250800,1860.4,30.5,245.5,239.8,0.0,0.0,0.0,0,
250900,1859.2,32.0,245.5,239.8,0.0,0.0,0.0,0,
251000,1860.3,33.0,245.5,240.0,0.0,0.0,0.0,0,
251100,1859.6,244.0,245.5,240.0,0.0,0.0,0.0,0,
251200,1878.8,377.1,247.5,147.1,0.0,0.0,0.0,0,
251300,1820.1,362.5,245.6,67.9,0.0,0.0,0.0,0,
251400,1886.5,312.3,245.9,66.7,0.0,0.0,0.0,0,
251600,1882.9,324.8,242.2,66.7,0.0,0.0,0.0,0,
251700,1824.7,157.4,241.7,67.0,0.0,0.0,0.0,0,
251800,1858.1,41.0,239.4,67.2,0.0,0.0,0.0,0,
251900,1858.3,34.1,239.4,66.6,0.0,0.0,0.0,0,
252000,1859.9,33.8,239.4,56.5,0.0,0.0,0.0,0,
252100,1862.0,31.6,239.4,40.1,0.0,0.0,0.0,0,
252200,1860.3,33.5,239.4,55.6,0.0,0.0,0.0,0,
252300,1858.7,34.2,239.4,239.9,0.0,0.0,0.0,0,
252400,1856.6,32.0,239.4,239.9,0.0,0.0,0.0,0,
252600,1854.9,28.6,239.4,240.1,0.0,0.0,0.0,0,
252700,1859.0,212.6,239.3,240.1,0.0,0.0,0.0,0,
252800,1852.6,296.8,239.1,219.0,0.0,0.0,0.0,0,
252900,1851.1,375.3,238.2,68.1,0.0,0.0,0.0,0,
253000,1905.1,354.7,243.1,66.3,0.0,0.0,0.0,0,
253100,1812.7,375.8,245.2,66.2,0.0,0.0,0.0,0,
253200,1852.6,339.7,246.6,66.6,0.0,0.0,0.0,0,
253300,1866.7,241.4,248.5,66.9,0.0,0.0,0.0,0,
253400,1851.3,46.0,247.1,67.3,0.0,0.0,0.0,0,
253600,1859.5,31.2,247.0,65.9,0.0,0.0,0.0,0,
253700,1857.0,27.8,247.0,46.6,0.0,0.0,0.0,0,
253800,1857.3,29.5,247.0,46.1,0.0,0.0,0.0,0,
253900,1857.3,28.9,247.0,239.6,0.0,0.0,0.0,0,
254000,1860.4,28.5,247.0,239.9,0.0,0.0,0.0,0,
254100,1860.0,30.5,247.0,240.2,0.0,0.0,0.0,0,
254200,1860.6,33.6,247.0,240.3,0.0,0.0,0.0,0,
254300,1858.3,106.6,247.0,240.1,0.0,0.0,0.0,0,
254400,1875.8,321.3,247.3,239.7,0.0,0.0,0.0,0,
254600,1842.7,356.5,249.7,66.2,0.0,0.0,0.0,0,
254700,1856.7,316.0,250.2,66.3,0.0,0.0,0.0,0,
254800,1869.7,338.3,246.1,66.7,0.0,0.0,0.0,0,
254900,1871.4,303.5,245.3,67.1,0.0,0.0,0.0,0,
255000,1839.8,50.3,245.7,67.2,0.0,0.0,0.0,0,
255100,1859.8,27.7,244.6,67.3,0.0,0.0,0.0,0,
255200,1859.2,31.7,244.6,66.6,0.0,0.0,0.0,0,
255300,1856.4,29.8,244.6,66.2,0.0,0.0,0.0,0,
255400,1857.5,27.8,244.6,57.1,0.0,0.0,0.0,0,
255600,1859.4,32.3,244.6,238.1,0.0,0.0,0.0,0,
255700,1858.8,30.4,244.6,239.4,0.0,0.0,0.0,0,
255800,1860.0,32.2,244.6,239.4,0.0,0.0,0.0,0,
255900,1859.3,30.5,244.6,239.4,0.0,0.0,0.0,0,
256000,1856.8,366.3,244.6,239.5,0.0,0.0,0.0,0,
256100,1832.3,355.1,246.9,69.7,0.0,0.0,0.0,0,
256200,1879.4,365.2,247.5,66.8,0.0,0.0,0.0,0,
256300,1878.7,343.6,249.0,66.5,0.0,0.0,0.0,0,
256400,1842.6,357.5,251.6,66.7,0.0,0.0,0.0,0,
256600,1886.0,64.1,252.0,67.4,0.0,0.0,0.0,0,
256700,1858.5,28.2,252.1,91.5,0.0,0.0,0.0,0,
256800,1860.3,33.1,252.1,66.5,0.0,0.0,0.0,0,
256900,1859.4,32.3,252.1,65.9,0.0,0.0,0.0,0,
257000,1858.4,31.3,252.1,54.2,0.0,0.0,0.0,0,
257100,1858.5,29.9,252.2,177.3,0.0,0.0,0.0,0,
257200,1859.7,29.6,252.2,239.5,0.0,0.0,0.0,0,
257300,1859.9,34.0,252.2,240.0,0.0,0.0,0.0,0,
257400,1854.5,31.4,252.2,240.1,0.0,0.0,0.0,0,
257600,1856.3,274.5,252.2,239.8,0.0,0.0,0.0,0,
257700,1866.7,353.8,250.8,71.5,0.0,0.0,0.0,0,
257800,1866.6,381.0,250.6,67.0,0.0,0.0,0.0,0,
257900,1815.6,359.6,247.6,66.7,0.0,0.0,0.0,0,
258000,1879.2,315.0,249.3,66.7,0.0,0.0,0.0,0,
258100,1851.1,340.8,248.4,66.9,0.0,0.0,0.0,0,
258200,1896.3,95.5,248.4,67.6,0.0,0.0,0.0,0,
258300,1831.8,31.0,248.0,90.5,0.0,0.0,0.0,0,
258400,1858.2,29.1,248.0,66.8,0.0,0.0,0.0,0,
258600,1860.3,33.2,248.0,46.9,0.0,0.0,0.0,0,
258700,1860.0,30.5,248.0,75.3,0.0,0.0,0.0,0,
258800,1859.6,32.8,248.0,239.7,0.0,0.0,0.0,0,
258900,1856.6,33.7,248.0,239.7,0.0,0.0,0.0,0,
259000,1858.5,30.0,248.0,239.7,0.0,0.0,0.0,0,
259100,1857.3,29.0,248.0,239.6,0.0,0.0,0.0,0,
259200,1860.5,259.9,247.9,239.9,0.0,0.0,0.0,0,
259300,1846.3,379.0,246.1,79.1,0.0,0.0,0.0,0,
259400,1866.5,327.4,247.2,67.4,0.0,0.0,0.0,0,
259600,1896.7,324.5,246.3,66.7,0.0,0.0,0.0,0,
259700,1827.1,339.5,248.2,66.8,0.0,0.0,0.0,0,
259800,1847.2,145.0,246.4,67.4,0.0,0.0,0.0,0,
259900,1865.5,40.2,246.6,70.1,0.0,0.0,0.0,0,
260000,1858.1,29.3,246.6,66.9,0.0,0.0,0.0,0,
260100,1858.5,31.0,246.6,65.8,0.0,0.0,0.0,0,
260200,1858.0,28.3,246.6,39.9,0.0,0.0,0.0,0,
260300,1860.3,30.9,246.6,66.0,0.0,0.0,0.0,0,
260400,1859.9,31.1,246.6,239.7,0.0,0.0,0.0,0,
260600,1858.5,31.9,246.6,239.7,0.0,0.0,0.0,0,
260700,1857.1,28.2,246.6,239.8,0.0,0.0,0.0,0,
260800,1858.9,219.2,246.6,240.1,0.0,0.0,0.0,0,
260900,1858.9,326.0,247.3,170.3,0.0,0.0,0.0,0,
261000,1875.4,346.3,247.1,67.6,0.0,0.0,0.0,0,
261100,1849.4,368.7,248.3,66.8,0.0,0.0,0.0,0,
261200,1836.1,351.7,245.0,66.5,0.0,0.0,0.0,0,
261300,1854.2,319.3,245.4,66.5,0.0,0.0,0.0,0,
261400,1872.6,224.2,245.3,67.0,0.0,0.0,0.0,0,
261600,1860.7,29.9,244.3,67.2,0.0,0.0,0.0,0,
261700,1857.7,28.3,244.2,66.1,0.0,0.0,0.0,0,
261800,1856.2,32.6,244.2,42.5,0.0,0.0,0.0,0,
261900,1860.7,29.5,244.2,48.6,0.0,0.0,0.0,0,
262000,1857.5,33.3,244.2,239.7,0.0,0.0,0.0,0,
262100,1860.3,29.6,244.2,239.8,0.0,0.0,0.0,0,
262200,1857.8,31.3,244.2,239.8,0.0,0.0,0.0,0,
262300,1861.5,32.1,244.2,240.0,0.0,0.0,0.0,0,
262400,1860.1,150.2,244.3,240.1,0.0,0.0,0.0,0,
262600,1816.7,373.5,246.4,67.9,0.0,0.0,0.0,0,
262700,1851.9,334.8,245.4,66.7,0.0,0.0,0.0,0,
262800,1866.7,329.6,246.3,66.4,0.0,0.0,0.0,0,
262900,1877.8,316.4,245.8,66.5,0.0,0.0,0.0,0,
263000,1859.0,338.2,246.7,67.0,0.0,0.0,0.0,0,
263100,1822.8,49.3,246.2,75.3,0.0,0.0,0.0,0,
263200,1874.1,31.8,246.0,71.3,0.0,0.0,0.0,0,
263300,1858.7,32.5,246.0,66.3,0.0,0.0,0.0,0,
263400,1857.9,32.7,246.0,50.9,0.0,0.0,0.0,0,
263600,1857.7,33.1,246.0,112.5,0.0,0.0,0.0,0,
263700,1860.2,34.6,246.0,238.5,0.0,0.0,0.0,0,
263800,1857.9,30.7,246.1,239.4,0.0,0.0,0.0,0,
263900,1860.6,34.9,246.1,239.9,0.0,0.0,0.0,0,
264000,1858.5,65.6,246.0,240.0,0.0,0.0,0.0,0,
264100,1865.4,348.0,247.1,240.3,0.0,0.0,0.0,0,
264200,1852.8,327.3,248.4,71.1,0.0,0.0,0.0,0,
264300,1874.4,344.5,248.9,66.7,0.0,0.0,0.0,0,
264400,1867.3,350.6,249.7,66.3,0.0,0.0,0.0,0,
264600,1872.7,308.0,249.2,67.1,0.0,0.0,0.0,0,
264700,1850.4,59.9,249.5,91.9,0.0,0.0,0.0,0,
264800,1862.9,34.7,248.9,94.2,0.0,0.0,0.0,0,
264900,1859.3,34.3,248.9,66.4,0.0,0.0,0.0,0,
265000,1861.2,33.3,248.9,48.9,0.0,0.0,0.0,0,
265100,1859.9,35.6,248.9,41.9,0.0,0.0,0.0,0,
265200,1858.8,29.7,248.9,98.9,0.0,0.0,0.0,0,
265300,1856.6,32.3,248.9,238.9,0.0,0.0,0.0,0,
265400,1860.1,31.7,248.9,239.7,0.0,0.0,0.0,0,
265600,1859.0,30.2,248.9,239.9,0.0,0.0,0.0,0,
265700,1861.1,326.9,248.9,239.5,0.0,0.0,0.0,0,
265800,1877.9,378.8,248.2,70.8,0.0,0.0,0.0,0,
265900,1812.8,385.2,248.0,66.6,0.0,0.0,0.0,0,
266000,1856.3,352.6,248.2,66.3,0.0,0.0,0.0,0,
266100,1872.3,310.3,250.4,66.4,0.0,0.0,0.0,0,
266200,1883.8,312.1,248.7,66.9,0.0,0.0,0.0,0,
266300,1847.0,89.5,248.4,67.3,0.0,0.0,0.0,0,
266400,1849.7,38.2,248.6,94.6,0.0,0.0,0.0,0,
266600,1859.0,33.3,248.6,65.6,0.0,0.0,0.0,0,
266700,1859.1,30.9,248.6,48.4,0.0,0.0,0.0,0,
266800,1859.5,28.5,248.6,71.3,0.0,0.0,0.0,0,
266900,1858.3,30.9,248.5,239.8,0.0,0.0,0.0,0,
267000,1858.7,28.4,248.5,239.8,0.0,0.0,0.0,0,
267100,1859.9,30.7,248.5,239.9,0.0,0.0,0.0,0,
267200,1860.1,31.1,248.5,240.0,0.0,0.0,0.0,0,
267300,1859.6,314.8,248.5,240.3,0.0,0.0,0.0,0,
267400,1826.7,379.2,248.6,75.2,0.0,0.0,0.0,0,
267600,1860.5,352.3,246.0,66.2,0.0,0.0,0.0,0,
267700,1866.8,349.9,244.9,66.4,0.0,0.0,0.0,0,
267800,1827.1,344.7,246.3,66.8,0.0,0.0,0.0,0,
267900,1856.6,136.9,245.4,67.0,0.0,0.0,0.0,0,
268000,1877.0,39.6,246.7,91.6,0.0,0.0,0.0,0,
268100,1859.0,32.6,246.7,66.8,0.0,0.0,0.0,0,
268200,1859.2,30.7,246.6,66.1,0.0,0.0,0.0,0,
268300,1859.7,32.7,246.6,56.7,0.0,0.0,0.0,0,
268400,1857.6,29.1,246.6,67.5,0.0,0.0,0.0,0,
268600,1859.5,30.2,246.7,239.3,0.0,0.0,0.0,0,
268700,1858.4,31.4,246.7,239.3,0.0,0.0,0.0,0,
268800,1859.6,30.4,246.6,239.7,0.0,0.0,0.0,0,
268900,1857.5,218.6,246.7,240.3,0.0,0.0,0.0,0,
269000,1845.7,380.5,247.2,150.8,0.0,0.0,0.0,0,
269100,1897.7,378.8,248.4,67.0,0.0,0.0,0.0,0,
269200,1809.9,383.6,251.6,66.5,0.0,0.0,0.0,0,
269300,1859.5,356.3,250.3,66.5,0.0,0.0,0.0,0,
269400,1867.5,302.7,251.1,66.7,0.0,0.0,0.0,0,
269600,1847.8,37.0,249.5,93.7,0.0,0.0,0.0,0,
269700,1859.1,29.1,249.4,67.1,0.0,0.0,0.0,0,
269800,1858.0,26.5,249.4,66.1,0.0,0.0,0.0,0,
269900,1856.5,30.1,249.4,42.6,0.0,0.0,0.0,0,
270000,1860.3,33.4,249.4,45.4,0.0,0.0,0.0,0,
270100,1859.4,31.4,249.4,239.3,0.0,0.0,0.0,0,
270200,1858.3,33.9,249.4,239.6,0.0,0.0,0.0,0,
270300,1859.3,30.1,249.4,239.7,0.0,0.0,0.0,0,
270400,1858.2,31.8,249.5,240.1,0.0,0.0,0.0,0,
270600,1864.7,358.3,251.1,237.8,0.0,0.0,0.0,0,
270700,1835.1,390.6,248.6,68.0,0.0,0.0,0.0,0,
270800,1863.3,323.7,249.5,66.9,0.0,0.0,0.0,0,
270900,1879.0,347.9,250.5,66.7,0.0,0.0,0.0,0,
271000,1863.1,340.5,248.8,66.7,0.0,0.0,0.0,0,
271100,1828.0,316.7,250.5,66.9,0.0,0.0,0.0,0,
271200,1857.4,43.8,248.5,92.9,0.0,0.0,0.0,0,
271300,1873.4,34.3,248.5,67.3,0.0,0.0,0.0,0,
271400,1859.1,31.8,248.5,66.3,0.0,0.0,0.0,0,
271600,1860.5,29.8,248.5,50.1,0.0,0.0,0.0,0,
271700,1858.7,30.3,248.5,215.5,0.0,0.0,0.0,0,
271800,1858.8,31.7,248.5,239.6,0.0,0.0,0.0,0,
271900,1859.9,34.4,248.5,239.9,0.0,0.0,0.0,0,
272000,1859.3,31.3,248.5,239.9,0.0,0.0,0.0,0,
272100,1858.1,73.5,248.5,239.7,0.0,0.0,0.0,0,
272200,1865.0,298.9,248.4,239.5,0.0,0.0,0.0,0,
272300,1856.9,365.7,248.8,69.0,0.0,0.0,0.0,0,
272400,1879.8,370.3,246.2,66.8,0.0,0.0,0.0,0,
272600,1842.2,359.5,245.5,66.6,0.0,0.0,0.0,0,
272700,1877.7,299.3,246.4,66.8,0.0,0.0,0.0,0,
272800,1872.2,57.2,247.0,67.2,0.0,0.0,0.0,0,
272900,1846.2,31.9,245.6,66.9,0.0,0.0,0.0,0,
273000,1858.7,28.4,245.5,66.2,0.0,0.0,0.0,0,
273100,1861.0,29.2,245.6,46.8,0.0,0.0,0.0,0,
273200,1857.2,31.4,245.5,42.8,0.0,0.0,0.0,0,
273300,1858.6,28.4,245.6,139.6,0.0,0.0,0.0,0,
273400,1858.9,27.5,245.6,239.1,0.0,0.0,0.0,0,
273600,1856.8,33.0,245.5,239.3,0.0,0.0,0.0,0,
273700,1859.1,34.9,245.5,239.7,0.0,0.0,0.0,0,
273800,1860.9,327.6,245.5,239.9,0.0,0.0,0.0,0,
273900,1868.9,367.7,248.8,69.6,0.0,0.0,0.0,0,
274000,1824.4,390.5,247.6,66.9,0.0,0.0,0.0,0,
274100,1880.0,316.0,248.4,66.5,0.0,0.0,0.0,0,
274200,1860.3,341.0,249.9,66.5,0.0,0.0,0.0,0,
274300,1871.9,335.8,247.6,66.8,0.0,0.0,0.0,0,
274400,1835.2,76.1,250.0,67.3,0.0,0.0,0.0,0,
274600,1857.7,30.0,249.0,66.4,0.0,0.0,0.0,0,
274700,1861.0,32.2,249.0,52.4,0.0,0.0,0.0,0,
274800,1858.3,31.1,248.9,41.0,0.0,0.0,0.0,0,
274900,1858.9,32.0,248.9,75.8,0.0,0.0,0.0,0,
275000,1858.6,30.6,249.0,239.8,0.0,0.0,0.0,0,
275100,1859.5,32.5,249.0,240.0,0.0,0.0,0.0,0,
275200,1859.7,31.7,249.0,240.0,0.0,0.0,0.0,0,
275300,1858.7,31.1,249.0,240.1,0.0,0.0,0.0,0,
275400,1857.7,323.1,249.0,240.2,0.0,0.0,0.0,0,
275600,1851.8,363.5,249.8,67.1,0.0,0.0,0.0,0,
275700,1890.0,355.5,248.5,66.6,0.0,0.0,0.0,0,
275800,1826.5,341.6,249.9,66.5,0.0,0.0,0.0,0,
275900,1844.3,353.6,247.5,66.7,0.0,0.0,0.0,0,
276000,1873.8,117.5,247.3,67.3,0.0,0.0,0.0,0,
276100,1856.3,32.9,247.6,71.9,0.0,0.0,0.0,0,
276200,1857.8,33.4,247.6,66.7,0.0,0.0,0.0,0,
276300,1858.6,31.4,247.6,52.0,0.0,0.0,0.0,0,
276400,1859.4,31.4,247.6,39.2,0.0,0.0,0.0,0,
276600,1859.3,30.9,247.6,239.6,0.0,0.0,0.0,0,
276700,1858.6,28.3,247.6,239.8,0.0,0.0,0.0,0,
276800,1859.2,28.7,247.6,239.7,0.0,0.0,0.0,0,
276900,1860.6,31.4,247.6,239.9,0.0,0.0,0.0,0,
277000,1855.5,226.8,247.6,240.2,0.0,0.0,0.0,0,
277100,1890.9,372.6,248.3,237.5,0.0,0.0,0.0,0,
277200,1833.7,363.2,249.3,67.4,0.0,0.0,0.0,0,
277300,1846.1,372.1,248.9,66.5,0.0,0.0,0.0,0,
277400,1866.5,316.9,247.8,66.3,0.0,0.0,0.0,0,
277600,1878.9,196.1,248.2,67.4,0.0,0.0,0.0,0,
277700,1827.4,41.2,249.3,67.4,0.0,0.0,0.0,0,
277800,1857.7,30.0,249.3,67.0,0.0,0.0,0.0,0,
277900,1859.4,32.1,249.4,56.9,0.0,0.0,0.0,0,
278000,1860.6,27.2,249.3,38.9,0.0,0.0,0.0,0,
278100,1858.2,31.6,249.3,47.5,0.0,0.0,0.0,0,
278200,1860.4,29.8,249.3,239.1,0.0,0.0,0.0,0,
278300,1857.8,31.2,249.3,239.6,0.0,0.0,0.0,0,
278400,1857.5,29.5,249.3,239.8,0.0,0.0,0.0,0,
278600,1857.5,209.2,249.3,240.4,0.0,0.0,0.0,0,
278700,1861.1,374.9,251.0,239.5,0.0,0.0,0.0,0,
278800,1849.4,361.0,249.9,67.6,0.0,0.0,0.0,0,
278900,1869.7,368.5,252.2,66.2,0.0,0.0,0.0,0,
279000,1874.8,356.4,251.2,66.1,0.0,0.0,0.0,0,
279100,1825.5,329.1,253.6,66.5,0.0,0.0,0.0,0,
279200,1837.2,287.3,252.3,66.9,0.0,0.0,0.0,0,
279300,1862.9,42.9,250.6,67.0,0.0,0.0,0.0,0,
279400,1868.4,32.2,250.5,66.9,0.0,0.0,0.0,0,
279600,1857.6,27.6,250.5,39.4,0.0,0.0,0.0,0,
279700,1856.4,28.3,250.5,41.4,0.0,0.0,0.0,0,
279800,1859.2,32.0,250.4,239.7,0.0,0.0,0.0,0,
279900,1859.3,32.3,250.4,240.1,0.0,0.0,0.0,0,
280000,1858.2,31.6,250.5,240.1,0.0,0.0,0.0,0,
280100,1857.8,32.3,250.5,240.2,0.0,0.0,0.0,0,
280200,1857.0,83.9,250.5,240.2,0.0,0.0,0.0,0,
280300,1863.3,299.2,249.9,239.8,0.0,0.0,0.0,0,
280400,1865.8,378.9,247.3,68.9,0.0,0.0,0.0,0,
280600,1824.6,371.7,246.7,66.3,0.0,0.0,0.0,0,
280700,1888.8,320.0,247.5,66.6,0.0,0.0,0.0,0,
280800,1854.0,343.3,248.6,66.9,0.0,0.0,0.0,0,
280900,1884.0,56.7,249.4,67.4,0.0,0.0,0.0,0,
281000,1835.8,34.1,249.8,91.1,0.0,0.0,0.0,0,
281100,1859.0,36.1,249.8,65.9,0.0,0.0,0.0,0,
281200,1860.1,33.8,249.9,49.1,0.0,0.0,0.0,0,
281300,1856.8,29.9,249.9,41.1,0.0,0.0,0.0,0,
281400,1859.2,31.7,249.9,175.9,0.0,0.0,0.0,0,
281600,1858.8,29.6,249.9,240.0,0.0,0.0,0.0,0,
281700,1858.4,31.4,249.9,239.9,0.0,0.0,0.0,0,
281800,1859.8,30.9,249.9,239.8,0.0,0.0,0.0,0,
281900,1859.4,324.5,249.9,240.1,1034.0,7696.0,17.0,1,
282000,1830.8,373.8,251.2,81.8,1034.0,7696.0,17.0,1,
282100,1874.4,351.4,249.8,67.2,1034.0,7696.0,17.0,1,
282200,1852.0,309.5,251.8,66.5,1317.0,9674.0,15.0,1,
282300,1897.3,351.6,247.9,66.5,1317.0,9674.0,15.0,1,
282400,1815.7,297.0,249.2,66.7,1118.0,8773.0,14.0,1,
282600,1877.0,36.1,242.5,81.9,1118.0,8773.0,14.0,1,
282700,1858.1,32.6,242.6,66.7,1118.0,8773.0,14.0,1,
282800,1857.5,31.5,242.5,66.4,1118.0,8773.0,14.0,1,
282900,1859.2,31.7,242.5,65.7,1118.0,8773.0,14.0,1,
283000,1858.9,32.9,242.5,149.5,1118.0,8773.0,14.0,1,
283100,1858.8,29.7,242.5,240.1,1118.0,8773.0,14.0,1,
283200,1858.9,30.2,242.5,240.1,1118.0,8773.0,14.0,1,
283300,1858.4,30.2,242.5,240.1,1118.0,8773.0,14.0,1,
283400,1859.3,30.6,242.5,240.3,1118.0,8773.0,14.0,1,
283600,1849.7,400.4,246.7,73.3,1219.0,8315.0,23.0,1,
283700,1894.6,264.2,254.2,65.7,1454.0,10129.0,25.0,0,
283800,1825.3,309.8,240.5,38.4,1270.0,9185.0,25.0,0,
283900,1847.5,270.6,234.2,38.4,1373.0,9348.0,25.0,0,
284000,1859.4,271.6,226.1,67.2,1427.0,9655.0,9.0,1,
284100,1875.4,99.3,221.9,82.0,716.0,4232.0,21.0,1,
284200,1851.6,33.9,220.9,65.5,716.0,4232.0,21.0,1,
284300,1857.1,31.9,220.9,46.7,716.0,4232.0,21.0,1,
284400,1860.3,31.3,220.9,36.0,716.0,4232.0,21.0,1,
284600,1858.2,30.1,220.9,79.3,716.0,4232.0,21.0,1,
284700,1859.1,29.5,220.9,239.5,716.0,4232.0,21.0,1,
284800,1860.6,30.2,220.9,239.7,716.0,4232.0,21.0,1,
284900,1859.2,28.1,220.9,239.8,716.0,4232.0,21.0,1,
285000,1857.2,30.8,220.8,239.7,716.0,4232.0,21.0,1,
285100,1857.9,237.9,220.8,239.6,1050.0,7663.0,2.0,0,
285200,1876.4,288.3,220.9,184.4,1321.0,9187.0,2.0,0,
285300,1828.1,210.7,198.6,86.2,1327.0,8479.0,2.0,0,
285400,1855.7,272.8,189.7,93.7,1406.0,10134.0,2.0,0,
285600,1877.9,284.7,177.1,189.3,1166.0,9291.0,2.0,0,
285700,1844.7,162.3,169.7,197.1,987.0,6220.0,2.0,0,
285800,1849.1,37.0,166.2,155.3,987.0,6220.0,2.0,0,
285900,1858.6,31.0,166.2,155.9,987.0,6220.0,2.0,0,
286000,1858.7,30.7,166.2,100.5,987.0,6220.0,2.0,0,
286100,1859.5,30.9,166.2,94.1,987.0,6220.0,2.0,0,
286200,1859.2,30.9,166.2,105.4,987.0,6220.0,2.0,0,
286300,1859.3,31.4,166.2,239.8,987.0,6220.0,2.0,0,
286400,1859.6,34.7,166.2,239.9,987.0,6220.0,2.0,0,
286600,1859.1,29.8,166.3,240.0,987.0,6220.0,2.0,0,
286700,1857.5,186.6,166.3,240.0,987.0,6220.0,2.0,0,
286800,1853.3,294.5,166.3,239.4,1400.0,9448.0,2.0,0,
286900,1866.5,246.6,167.8,80.1,1379.0,9082.0,3.0,1,
287000,1878.9,271.6,171.2,93.3,1437.0,10158.0,2.0,0,
287100,1847.0,272.8,170.5,130.0,1121.0,8870.0,2.0,0,
287200,1821.9,315.0,171.5,165.0,1439.0,8947.0,17.0,1,
287300,1885.9,243.0,173.2,204.0,1210.0,9291.0,2.0,0,
287400,1846.7,42.7,171.6,164.9,1180.0,7010.0,2.0,0,
287600,1859.4,33.0,171.6,102.2,1180.0,7010.0,2.0,0,
287700,1857.0,29.7,171.7,94.5,1180.0,7010.0,2.0,0,
287800,1857.2,31.3,171.7,100.0,1180.0,7010.0,2.0,0,
287900,1856.0,33.7,171.8,239.4,1180.0,7010.0,2.0,0,
288000,1858.3,34.3,171.9,239.7,1180.0,7010.0,2.0,0,
288100,1858.8,30.8,171.9,240.0,1180.0,7010.0,2.0,0,
288200,1857.8,31.0,172.0,240.1,1180.0,7010.0,2.0,0,
288300,1857.8,82.8,172.0,240.1,1180.0,7010.0,2.0,0,
288400,1871.2,316.9,172.3,240.0,1478.0,9236.0,25.0,0,
288600,1812.0,246.9,191.2,37.3,1375.0,9545.0,26.0,0,
288700,1868.8,243.3,197.3,36.9,1293.0,9575.0,25.0,0,
288800,1852.6,285.1,199.0,66.1,1294.0,8970.0,9.0,1,
288900,1893.2,275.0,201.1,68.4,1183.0,9318.0,25.0,0,
289000,1825.8,49.0,202.1,90.6,827.0,4796.0,16.0,1,
289100,1852.3,30.8,201.5,66.1,827.0,4796.0,16.0,1,
289200,1857.3,31.9,201.6,35.5,827.0,4796.0,16.0,1,
289300,1859.8,31.0,201.6,35.8,827.0,4796.0,16.0,1,
289400,1856.9,33.1,201.6,37.9,827.0,4796.0,16.0,1,
289600,1859.4,31.9,201.6,239.4,827.0,4796.0,16.0,1,
289700,1859.9,32.0,201.6,239.9,827.0,4796.0,16.0,1,
289800,1858.8,32.0,201.6,239.9,827.0,4796.0,16.0,1,
289900,1860.0,29.0,201.6,239.9,827.0,4796.0,16.0,1,
290000,1858.2,260.4,201.6,239.9,1343.0,9263.0,15.0,1,
290100,1849.3,267.3,200.1,66.6,1456.0,10864.0,16.0,1,
290200,1858.5,329.7,201.2,65.8,1346.0,9932.0,11.0,1,
290300,1892.4,256.3,209.4,66.3,1356.0,9949.0,2.0,0,
290400,1834.0,293.1,208.3,65.9,1327.0,9419.0,17.0,1,
290600,1855.2,66.8,209.1,37.8,1228.0,6834.0,2.0,0,
290700,1863.5,30.1,208.2,94.3,1228.0,6834.0,2.0,0,
290800,1859.6,32.3,208.1,100.6,1228.0,6834.0,2.0,0,
290900,1859.5,30.4,208.1,94.0,1228.0,6834.0,2.0,0,
291000,1857.5,32.2,208.1,93.2,1228.0,6834.0,2.0,0,
291100,1859.0,29.6,208.1,173.3,1228.0,6834.0,2.0,0,
291200,1859.9,28.4,208.1,238.1,1228.0,6834.0,2.0,0,
291300,1857.9,29.5,208.1,239.0,1228.0,6834.0,2.0,0,
291400,1857.7,25.8,208.1,238.0,1228.0,6834.0,2.0,0,
291600,1855.4,281.9,208.1,239.1,1337.0,9214.0,19.0,1,
291700,1861.4,287.1,213.5,57.0,1447.0,10096.0,2.0,0,
291800,1864.3,320.3,209.4,40.0,1248.0,9231.0,2.0,0,
