Time(ms),Raw_ADC,ENV_Value,RMS,MDF,MW_Amp,MW_Area,MW_Latency,Marker
0,1860.8,285.4,0.0,64.5,1209.0,4822.0,9.0,
100,1813.2,154.7,0.0,64.5,1201.0,5142.0,9.0,
200,1889.0,30.8,0.0,64.5,1201.0,5142.0,9.0,
300,1860.7,28.4,0.0,64.5,1201.0,5142.0,9.0,
400,1859.7,26.7,0.0,64.5,1201.0,5142.0,9.0,
500,1858.1,25.0,0.0,62.5,1201.0,5142.0,9.0,
600,1860.5,16.2,0.0,54.7,1201.0,5142.0,9.0,
700,1857.0,16.1,0.0,52.7,1201.0,5142.0,9.0,
800,1859.0,17.6,0.0,60.5,1201.0,5142.0,9.0,
900,1856.6,17.1,218.8,70.3,1201.0,5142.0,9.0,
1000,1858.4,29.8,170.1,89.8,1201.0,5142.0,9.0,
1100,1856.3,240.7,58.0,109.4,1201.0,5142.0,9.0,
1200,1864.4,288.5,162.0,60.5,2799.0,7321.0,30.0,
1300,1843.0,286.2,223.6,62.5,1568.0,5955.0,10.0,
1400,1849.1,327.5,267.1,62.5,1533.0,6632.0,9.0,
1500,1858.3,453.9,319.0,64.5,2031.0,7579.0,9.0,
1600,1909.0,408.2,378.8,64.5,2402.0,8193.0,9.0,
1800,1848.5,55.0,442.9,64.5,309.0,1495.0,5.0,
1900,1860.0,25.5,443.0,64.5,309.0,1495.0,5.0,
2000,1861.1,27.0,443.0,64.5,309.0,1495.0,5.0,
2100,1859.9,23.6,443.0,64.5,309.0,1495.0,5.0,
2200,1859.8,22.1,413.2,66.4,309.0,1495.0,5.0,
2300,1856.5,21.0,383.4,80.1,309.0,1495.0,5.0,
2400,1862.9,23.0,354.4,66.4,309.0,1495.0,5.0,
2500,1857.9,17.5,308.5,68.4,309.0,1495.0,5.0,
2600,1860.7,17.8,231.1,74.2,309.0,1495.0,5.0,
2800,1821.6,358.3,150.5,64.5,2558.0,6686.0,30.0,
2900,1868.0,395.0,226.7,62.5,2464.0,7485.0,30.0,
3000,1893.1,379.7,287.8,62.5,2640.0,8119.0,30.0,
3100,1883.5,342.5,347.6,64.5,3343.0,10574.0,30.0,
3200,1846.6,431.7,407.8,64.5,2379.0,8108.0,9.0,
3300,1822.5,510.8,461.1,64.5,3690.0,10889.0,30.0,
3400,1909.4,44.9,482.9,64.5,2576.0,8323.0,9.0,
3500,1860.0,20.4,482.9,64.5,2576.0,8323.0,9.0,
3600,1857.9,21.5,482.9,64.5,2576.0,8323.0,9.0,
3800,1857.7,17.9,459.7,62.5,2576.0,8323.0,9.0,
3900,1854.6,19.8,427.2,84.0,2576.0,8323.0,9.0,
4000,1860.5,19.7,388.6,91.8,2576.0,8323.0,9.0,
4100,1859.1,15.6,336.2,68.4,2576.0,8323.0,9.0,
4200,1860.3,20.1,259.8,64.5,2576.0,8323.0,9.0,
4300,1855.5,19.9,145.5,93.8,2576.0,8323.0,9.0,
4400,1868.3,301.3,138.0,60.5,2656.0,7379.0,30.0,
4500,1842.9,366.2,219.5,60.5,3061.0,8785.0,30.0,
4600,1827.9,454.1,294.7,62.5,2864.0,8888.0,30.0,
4800,1896.6,420.5,423.9,64.5,3617.0,10881.0,30.0,
4900,1856.5,358.9,473.0,64.5,3792.0,10926.0,30.0,
5000,1850.7,59.6,503.3,64.5,2804.0,8935.0,9.0,
5100,1860.8,25.8,503.4,64.5,2804.0,8935.0,9.0,
5200,1861.8,23.7,503.5,64.5,2804.0,8935.0,9.0,
5300,1857.8,21.7,503.5,64.5,2804.0,8935.0,9.0,
5400,1861.8,17.7,484.8,64.5,2804.0,8935.0,9.0,
5500,1858.3,17.1,453.7,72.3,2804.0,8935.0,9.0,
5600,1860.4,13.9,408.9,72.3,2804.0,8935.0,9.0,
5800,1859.5,18.4,272.6,82.0,2804.0,8935.0,9.0,
5900,1857.6,16.7,174.1,82.0,2804.0,8935.0,9.0,
6000,1816.5,421.2,123.3,62.5,2665.0,8147.0,30.0,
6100,1893.4,439.6,231.2,62.5,3286.0,9095.0,30.0,
6200,1871.2,387.0,302.2,62.5,2970.0,9508.0,30.0,
6300,1881.6,378.9,357.8,64.5,2607.0,8535.0,8.0,
6400,1847.7,427.1,419.5,64.5,2513.0,8842.0,9.0,
6500,1847.3,524.1,473.9,64.5,3728.0,11125.0,30.0,
6600,1898.5,84.0,510.9,64.5,311.0,1517.0,5.0,
6800,1860.6,29.0,510.9,64.5,311.0,1517.0,5.0,
6900,1857.6,22.0,511.0,64.5,311.0,1517.0,5.0,
7000,1858.0,24.0,496.5,62.5,311.0,1517.0,5.0,
7100,1858.9,26.5,456.4,60.5,311.0,1517.0,5.0,
7200,1859.2,21.5,412.8,60.5,311.0,1517.0,5.0,
7300,1857.2,17.7,365.6,60.5,311.0,1517.0,5.0,
7400,1862.7,16.7,292.7,60.5,311.0,1517.0,5.0,
7500,1857.7,19.4,192.8,76.2,311.0,1517.0,5.0,
7600,1867.6,293.3,101.0,72.3,1658.0,7700.0,11.0,
7800,1813.7,505.1,296.0,62.5,2780.0,9333.0,30.0,
7900,1929.9,514.2,370.9,62.5,3361.0,11573.0,30.0,
8000,1902.0,440.7,429.4,64.5,3955.0,11549.0,30.0,
8100,1857.3,362.9,482.4,64.5,4095.0,11354.0,30.0,
8200,1857.8,130.6,530.7,64.5,343.0,1802.0,5.0,
8300,1854.5,33.3,530.8,64.5,343.0,1802.0,5.0,
8400,1860.5,23.7,530.8,64.5,343.0,1802.0,5.0,
8500,1862.3,18.7,530.8,64.5,343.0,1802.0,5.0,
8600,1862.0,19.9,521.9,64.5,343.0,1802.0,5.0,
8800,1862.2,20.8,441.5,68.4,343.0,1802.0,5.0,
8900,1856.5,17.0,380.7,62.5,343.0,1802.0,5.0,
9000,1859.2,22.3,313.1,60.5,343.0,1802.0,5.0,
9100,1858.1,20.5,223.0,72.3,343.0,1802.0,5.0,
9200,1811.5,371.8,75.5,74.2,1803.0,7869.0,11.0,
9300,1910.0,441.4,210.1,60.5,2228.0,8397.0,10.0,
9400,1866.3,416.8,294.0,62.5,2779.0,9985.0,10.0,
9500,1871.1,414.9,360.9,62.5,2692.0,9473.0,30.0,
9600,1865.1,483.4,425.1,64.5,2826.0,9688.0,9.0,
9800,1897.3,197.9,540.1,64.5,344.0,1872.0,5.0,
9900,1846.4,37.0,540.2,64.5,344.0,1872.0,5.0,
10000,1857.8,21.1,540.3,64.5,344.0,1872.0,5.0,
10100,1862.5,21.9,540.3,64.5,344.0,1872.0,5.0,
10200,1855.9,28.8,535.7,64.5,344.0,1872.0,5.0,
10300,1857.8,18.2,498.5,76.2,344.0,1872.0,5.0,
10400,1861.1,18.5,454.0,78.1,344.0,1872.0,5.0,
10500,1857.2,15.9,402.9,70.3,344.0,1872.0,5.0,
10600,1859.3,19.1,334.4,78.1,344.0,1872.0,5.0,
10800,1858.3,193.6,27.6,60.5,344.0,1872.0,5.0,
10900,1859.8,376.9,174.6,58.6,1889.0,7571.0,10.0,
11000,1796.1,541.9,269.6,62.5,2812.0,10066.0,10.0,
11100,1937.9,505.0,353.9,62.5,2802.0,9692.0,9.0,
11200,1903.2,431.8,418.7,64.5,2940.0,9948.0,9.0,
11300,1862.7,409.6,474.5,64.5,4023.0,11532.0,30.0,
11400,1834.8,304.8,529.1,64.5,3094.0,9980.0,9.0,
11500,1881.3,33.3,541.4,64.5,331.0,1710.0,5.0,
11600,1859.9,22.5,541.5,64.5,331.0,1710.0,5.0,
11800,1853.8,18.8,541.5,64.5,331.0,1710.0,5.0,
11900,1861.4,20.6,513.3,64.5,331.0,1710.0,5.0,
12000,1856.0,28.1,470.3,58.6,331.0,1710.0,5.0,
12100,1857.9,14.0,410.6,54.7,331.0,1710.0,5.0,
12200,1856.0,21.9,344.3,58.6,331.0,1710.0,5.0,
12300,1858.5,15.3,262.1,62.5,331.0,1710.0,5.0,
12400,1858.5,229.4,117.8,72.3,331.0,1710.0,5.0,
12500,1862.2,375.3,182.6,60.5,2544.0,7413.0,30.0,
12600,1857.7,386.2,257.4,58.6,2977.0,9170.0,30.0,
12800,1863.1,543.6,405.7,64.5,2724.0,9768.0,9.0,
12900,1904.6,464.2,464.8,64.5,2250.0,7987.0,9.0,
13000,1873.3,365.1,503.3,64.5,2207.0,7833.0,9.0,
13100,1843.2,34.3,513.9,64.5,2207.0,7833.0,9.0,
13200,1862.8,17.2,513.9,64.5,2207.0,7833.0,9.0,
13300,1857.3,19.7,513.9,64.5,2207.0,7833.0,9.0,
13400,1861.9,18.4,513.9,64.5,2207.0,7833.0,9.0,
13500,1858.9,21.5,481.0,62.5,2207.0,7833.0,9.0,
13600,1858.5,12.7,445.5,76.2,2207.0,7833.0,9.0,
13800,1859.0,14.6,316.2,87.9,2207.0,7833.0,9.0,
13900,1860.0,18.9,220.4,85.9,2207.0,7833.0,9.0,
14000,1858.4,13.9,106.4,80.1,2207.0,7833.0,9.0,
14100,1868.7,376.5,137.8,60.5,2615.0,7633.0,30.0,
14200,1800.2,511.8,234.0,60.5,2815.0,8394.0,30.0,
14300,1912.9,504.0,327.6,62.5,2908.0,9673.0,30.0,
14400,1880.6,418.2,394.3,62.5,2319.0,9435.0,30.0,
14500,1891.7,425.0,450.2,64.5,3075.0,10058.0,9.0,
14600,1846.6,471.9,509.3,64.5,2788.0,9549.0,9.0,
14800,1856.3,34.2,537.2,64.5,2788.0,9549.0,9.0,
14900,1857.7,24.0,537.2,64.5,2788.0,9549.0,9.0,
15000,1859.6,18.8,537.3,64.5,2788.0,9549.0,9.0,
15100,1856.4,19.9,519.8,64.5,2788.0,9549.0,9.0,
15200,1856.1,30.4,484.2,70.3,2788.0,9549.0,9.0,
15300,1859.1,29.9,426.5,60.5,2788.0,9549.0,9.0,
15400,1854.3,17.1,365.8,60.5,2788.0,9549.0,9.0,
15500,1862.7,18.1,294.3,62.5,2788.0,9549.0,9.0,
15600,1859.6,19.9,173.0,64.5,2788.0,9549.0,9.0,
15800,1863.6,358.9,226.8,62.5,2923.0,8669.0,30.0,
15900,1857.8,466.8,314.4,62.5,3120.0,9889.0,30.0,
16000,1814.0,570.4,393.9,64.5,2304.0,9231.0,30.0,
16100,1949.7,528.9,463.6,64.5,3569.0,10508.0,30.0,
16200,1892.8,451.0,518.7,64.5,3735.0,10679.0,30.0,
16300,1854.1,70.6,552.4,64.5,295.0,1697.0,5.0,
16400,1856.5,39.8,552.4,64.5,295.0,1697.0,5.0,
16500,1862.5,45.1,552.5,64.5,295.0,1697.0,5.0,
16600,1856.0,30.3,552.7,64.5,295.0,1697.0,5.0,
16800,1857.4,17.2,504.8,44.9,295.0,1697.0,5.0,
16900,1858.9,20.5,455.5,48.8,295.0,1697.0,5.0,
17000,1863.1,14.9,388.7,60.5,295.0,1697.0,5.0,
17100,1859.4,14.5,302.2,58.6,295.0,1697.0,5.0,
17200,1857.9,17.8,192.8,60.5,295.0,1697.0,5.0,
17300,1865.7,377.6,112.4,68.4,295.0,1697.0,5.0,
17400,1830.2,472.0,217.1,62.5,2702.0,8101.0,30.0,
17500,1917.3,514.2,306.9,62.5,2704.0,9787.0,30.0,
17600,1870.3,424.4,383.3,62.5,1984.0,8784.0,30.0,
17800,1852.9,503.5,501.8,64.5,3378.0,9858.0,30.0,
17900,1908.8,106.3,547.1,64.5,371.0,1737.0,5.0,
18000,1853.6,58.6,547.1,64.5,371.0,1737.0,5.0,
18100,1863.4,34.4,547.4,64.5,371.0,1737.0,5.0,
18200,1859.7,27.2,547.4,62.5,371.0,1737.0,5.0,
18300,1859.3,29.9,536.7,60.5,371.0,1737.0,5.0,
18400,1860.3,23.3,503.6,74.2,371.0,1737.0,5.0,
18500,1857.6,24.6,454.5,62.5,371.0,1737.0,5.0,
18600,1856.8,22.2,392.0,60.5,371.0,1737.0,5.0,
18800,1860.7,22.3,220.6,78.1,371.0,1737.0,5.0,
18900,1869.8,332.1,98.1,66.4,1637.0,7676.0,11.0,
19000,1866.3,318.5,200.9,60.5,1889.0,7636.0,10.0,
19100,1852.0,444.7,274.0,60.5,2541.0,7780.0,30.0,
19200,1798.2,576.7,354.1,62.5,1839.0,8796.0,30.0,
19300,1946.3,511.3,425.8,64.5,3059.0,9804.0,30.0,
19400,1905.3,429.5,479.1,64.5,3259.0,9398.0,30.0,
19500,1864.8,157.6,530.5,64.5,403.0,2082.0,5.0,
19600,1846.9,55.2,530.5,64.5,403.0,2082.0,5.0,
19800,1856.2,22.8,530.8,62.5,403.0,2082.0,5.0,
19900,1860.7,18.1,522.7,60.5,403.0,2082.0,5.0,
20000,1862.9,20.0,492.5,50.8,403.0,2082.0,5.0,
20100,1858.7,24.3,455.6,64.5,403.0,2082.0,5.0,
20200,1857.8,22.2,396.4,72.3,403.0,2082.0,5.0,
20300,1859.4,20.9,318.1,60.5,403.0,2082.0,5.0,
20400,1859.3,15.6,230.1,60.5,403.0,2082.0,5.0,
20500,1846.5,274.7,62.5,70.3,1544.0,7277.0,11.0,
20600,1844.9,415.6,178.7,62.5,1711.0,7532.0,10.0,
20800,1871.6,422.1,348.9,62.5,2957.0,10795.0,11.0,
20900,1874.8,438.5,414.7,62.5,1987.0,8927.0,30.0,
21000,1850.2,556.7,476.2,64.5,3234.0,9830.0,30.0,
21100,1909.9,249.0,540.3,64.5,358.0,1932.0,5.0,
21200,1868.0,36.5,541.6,64.5,358.0,1932.0,5.0,
21300,1863.6,23.5,541.8,64.5,358.0,1932.0,5.0,
21400,1858.8,32.6,541.8,62.5,358.0,1932.0,5.0,
21500,1860.3,21.6,539.2,62.5,358.0,1932.0,5.0,
21600,1862.0,22.8,512.6,60.5,358.0,1932.0,5.0,
21800,1860.1,20.9,415.4,60.5,358.0,1932.0,5.0,
21900,1859.3,19.1,349.8,66.4,358.0,1932.0,5.0,
22000,1861.0,17.9,259.9,72.3,358.0,1932.0,5.0,
22100,1859.2,192.7,49.5,62.5,358.0,1932.0,5.0,
22200,1896.4,274.2,153.9,62.5,2098.0,7205.0,30.0,
22300,1836.0,447.2,234.7,62.5,2495.0,9796.0,11.0,
22400,1815.4,579.8,326.5,62.5,2911.0,10124.0,10.0,
22500,1939.7,507.0,407.8,64.5,2916.0,10536.0,10.0,
22600,1903.3,425.9,464.7,64.5,2955.0,10368.0,10.0,
22800,1850.1,35.4,534.4,64.5,275.0,1617.0,5.0,
22900,1862.1,33.0,534.7,64.5,275.0,1617.0,5.0,
23000,1861.5,22.4,534.7,64.5,275.0,1617.0,5.0,
23100,1856.0,21.2,534.7,64.5,275.0,1617.0,5.0,
23200,1863.4,20.6,513.1,64.5,275.0,1617.0,5.0,
23300,1858.6,18.4,481.3,64.5,275.0,1617.0,5.0,
23400,1862.6,25.6,424.4,80.1,275.0,1617.0,5.0,
23500,1860.3,16.7,346.9,82.0,275.0,1617.0,5.0,
23600,1858.7,13.2,265.6,76.2,275.0,1617.0,5.0,
23800,1849.6,383.0,144.8,60.5,2650.0,7990.0,30.0,
23900,1897.6,386.0,221.4,60.5,1926.0,7772.0,11.0,
24000,1863.1,386.7,301.6,62.5,2634.0,9822.0,11.0,
24100,1851.3,447.5,371.4,64.5,2405.0,9057.0,30.0,
24200,1835.0,557.5,433.6,64.5,2965.0,9568.0,30.0,
24300,1937.5,497.9,493.8,64.5,3040.0,9310.0,30.0,
24400,1859.5,44.7,509.2,64.5,3040.0,9310.0,30.0,
24500,1861.3,21.6,509.2,64.5,3040.0,9310.0,30.0,
24600,1858.3,17.7,509.2,64.5,3040.0,9310.0,30.0,
24800,1860.0,27.6,489.2,64.5,3040.0,9310.0,30.0,
24900,1859.5,18.6,459.3,99.6,3040.0,9310.0,30.0,
25000,1857.9,19.2,411.1,62.5,3040.0,9310.0,30.0,
25100,1862.3,14.9,349.3,60.5,3040.0,9310.0,30.0,
25200,1859.0,14.7,268.0,78.1,3040.0,9310.0,30.0,
25300,1859.9,19.6,126.6,84.0,3040.0,9310.0,30.0,
25400,1886.1,307.8,118.9,60.5,2308.0,7879.0,30.0,
25500,1841.6,354.3,201.1,60.5,2887.0,7758.0,30.0,
25600,1817.9,538.2,273.9,62.5,2466.0,8391.0,30.0,
25800,1882.3,387.3,413.9,64.5,1757.0,7717.0,30.0,
25900,1888.5,435.2,463.9,64.5,2786.0,10038.0,10.0,
26000,1854.0,57.3,496.5,64.5,298.0,1592.0,5.0,
26100,1862.8,45.5,496.5,64.5,298.0,1592.0,5.0,
26200,1859.2,21.5,496.7,64.5,298.0,1592.0,5.0,
26300,1860.7,15.3,496.6,62.5,298.0,1592.0,5.0,
26400,1858.5,20.8,482.8,60.5,298.0,1592.0,5.0,
26500,1859.2,20.4,454.7,66.4,298.0,1592.0,5.0,
26600,1859.7,19.9,415.0,99.6,298.0,1592.0,5.0,
26800,1861.8,14.0,275.5,84.0,298.0,1592.0,5.0,
26900,1861.5,19.8,178.8,64.5,298.0,1592.0,5.0,
27000,1844.5,377.3,106.2,62.5,2622.0,7982.0,30.0,
27100,1903.9,352.4,195.5,58.6,3041.0,8487.0,30.0,
27200,1858.4,374.3,279.5,58.6,2640.0,9198.0,30.0,
27300,1837.5,466.3,358.3,62.5,2083.0,8569.0,30.0,
27400,1830.6,559.7,422.9,64.5,2893.0,10018.0,10.0,
27500,1953.8,503.2,486.4,64.5,2941.0,10165.0,10.0,
27600,1862.5,86.2,520.9,64.5,3209.0,9517.0,30.0,
27800,1859.8,27.2,521.2,64.5,3209.0,9517.0,30.0,
27900,1862.8,20.3,521.3,62.5,3209.0,9517.0,30.0,
28000,1858.2,16.2,511.0,60.5,3209.0,9517.0,30.0,
28100,1856.4,21.7,483.9,66.4,3209.0,9517.0,30.0,
28200,1858.6,19.0,440.6,72.3,3209.0,9517.0,30.0,
28300,1861.4,19.1,379.3,72.3,3209.0,9517.0,30.0,
28400,1854.1,23.7,305.8,80.1,3209.0,9517.0,30.0,
28500,1856.5,25.7,189.1,74.2,3209.0,9517.0,30.0,
28600,1872.7,288.1,83.3,60.5,1431.0,6933.0,11.0,
28800,1826.4,526.7,262.7,54.7,2463.0,9714.0,11.0,
28900,1914.3,448.6,346.7,62.5,2634.0,9701.0,11.0,
29000,1869.4,380.2,404.6,64.5,2711.0,9577.0,10.0,
29100,1888.3,443.2,455.1,64.5,2762.0,9441.0,30.0,
29200,1862.6,118.6,503.5,64.5,2671.0,9651.0,10.0,
29300,1852.8,28.9,503.5,64.5,2671.0,9651.0,10.0,
29400,1862.6,19.3,503.5,64.5,2671.0,9651.0,10.0,
29500,1857.2,20.5,503.6,62.5,2671.0,9651.0,10.0,
29600,1856.2,19.7,497.6,60.5,2671.0,9651.0,10.0,
29800,1857.8,18.6,430.4,68.4,2671.0,9651.0,10.0,
29900,1859.9,15.8,366.0,64.5,2671.0,9651.0,10.0,
30000,1858.0,21.9,300.9,60.5,2671.0,9651.0,10.0,
30100,1858.8,18.5,216.9,78.1,2671.0,9651.0,10.0,
30200,1836.8,341.1,72.8,80.1,1446.0,7800.0,12.0,
30300,1910.5,303.7,175.8,58.6,1460.0,6617.0,11.0,
30400,1853.0,325.4,232.8,56.6,1493.0,6649.0,11.0,
30500,1824.1,392.7,293.5,60.5,2009.0,7825.0,11.0,
30600,1829.4,433.3,341.4,62.5,2215.0,7264.0,30.0,
30800,1859.8,144.0,418.5,62.5,370.0,1634.0,5.0,
30900,1848.5,35.2,418.6,64.5,370.0,1634.0,5.0,
31000,1859.7,29.4,418.7,62.5,370.0,1634.0,5.0,
31100,1860.3,19.8,418.8,62.5,370.0,1634.0,5.0,
31200,1860.0,27.3,413.2,58.6,370.0,1634.0,5.0,
31300,1863.5,21.4,381.0,52.7,370.0,1634.0,5.0,
31400,1860.8,21.0,349.1,60.5,370.0,1634.0,5.0,
31500,1859.9,22.1,299.8,60.5,370.0,1634.0,5.0,
31600,1861.8,15.3,243.8,60.5,370.0,1634.0,5.0,
31800,1858.2,231.9,30.5,60.5,1448.0,7142.0,11.0,
31900,1856.6,327.0,162.3,60.5,1550.0,6689.0,11.0,
32000,1839.8,448.3,234.1,62.5,1828.0,7532.0,11.0,
32100,1897.1,428.8,309.8,62.5,2530.0,9658.0,11.0,
32200,1861.0,365.2,366.9,62.5,2517.0,9695.0,10.0,
32300,1887.1,437.4,415.2,62.5,2339.0,8244.0,30.0,
32400,1811.8,255.1,468.1,62.5,455.0,1920.0,5.0,
32500,1906.1,25.0,475.7,64.5,455.0,1920.0,5.0,
32600,1857.4,29.8,475.7,64.5,455.0,1920.0,5.0,
32800,1861.5,17.2,475.7,60.5,455.0,1920.0,5.0,
32900,1858.2,14.6,448.2,66.4,455.0,1920.0,5.0,
33000,1861.8,20.2,414.9,66.4,455.0,1920.0,5.0,
33100,1860.9,16.0,361.9,74.2,455.0,1920.0,5.0,
33200,1857.8,16.8,303.9,70.3,455.0,1920.0,5.0,
33300,1859.0,20.1,233.5,66.4,455.0,1920.0,5.0,
33400,1860.1,202.5,88.0,66.4,455.0,1920.0,5.0,
33500,1897.3,288.5,139.9,60.5,1437.0,6624.0,11.0,
33600,1858.3,323.2,207.3,60.5,1630.0,7007.0,11.0,
33800,1823.5,492.8,338.2,62.5,2204.0,9027.0,11.0,
33900,1930.5,408.5,388.2,62.5,2165.0,8718.0,10.0,
34000,1879.1,350.2,428.7,62.5,2026.0,8734.0,10.0,
34100,1845.2,30.4,442.3,62.5,443.0,1911.0,5.0,
34200,1861.1,19.4,442.3,62.5,443.0,1911.0,5.0,
34300,1857.8,18.4,442.4,62.5,443.0,1911.0,5.0,
34400,1863.8,14.6,442.5,56.6,443.0,1911.0,5.0,
34500,1859.3,18.5,420.4,58.6,443.0,1911.0,5.0,
34600,1859.5,16.7,391.6,68.4,443.0,1911.0,5.0,
34800,1859.5,16.3,286.1,82.0,443.0,1911.0,5.0,
34900,1856.4,14.9,213.4,64.5,443.0,1911.0,5.0,
35000,1860.0,86.4,111.6,84.0,443.0,1911.0,5.0,
35100,1842.2,312.7,118.5,56.6,1325.0,6848.0,11.0,
35200,1888.7,318.6,185.7,37.1,1184.0,5917.0,11.0,
35300,1877.6,288.6,235.7,37.1,1310.0,5796.0,11.0,
35400,1848.9,303.4,283.1,62.5,1571.0,6936.0,11.0,
35500,1836.3,303.1,321.3,64.5,1610.0,6597.0,11.0,
35600,1844.5,407.5,354.5,62.5,1637.0,7245.0,11.0,
35800,1861.3,30.2,371.3,62.5,1637.0,7245.0,11.0,
35900,1858.3,17.8,371.4,62.5,1637.0,7245.0,11.0,
36000,1862.7,16.7,371.4,60.5,1637.0,7245.0,11.0,
36100,1859.2,16.4,352.7,66.4,1637.0,7245.0,11.0,
36200,1857.8,17.2,322.4,82.0,1637.0,7245.0,11.0,
36300,1862.1,13.1,287.8,89.8,1637.0,7245.0,11.0,
36400,1860.8,16.1,241.4,60.5,1637.0,7245.0,11.0,
36500,1860.6,24.0,187.5,60.5,1637.0,7245.0,11.0,
36600,1861.5,14.2,113.0,60.5,1637.0,7245.0,11.0,
36800,1883.2,296.0,184.6,37.1,1300.0,6274.0,11.0,
36900,1830.0,316.3,243.6,35.2,1332.0,6201.0,11.0,
37000,1838.6,395.5,288.9,37.1,1342.0,6249.0,11.0,
37100,1889.1,343.8,333.6,62.5,1654.0,7612.0,11.0,
37200,1867.6,271.6,363.4,62.5,1545.0,6809.0,11.0,
37300,1871.7,48.3,381.8,35.2,1477.0,7198.0,11.0,
37400,1860.1,16.6,381.8,50.8,1477.0,7198.0,11.0,
37500,1857.5,19.2,381.9,62.5,1477.0,7198.0,11.0,
37600,1860.3,20.5,381.9,60.5,1477.0,7198.0,11.0,
37800,1863.9,18.5,335.2,78.1,1477.0,7198.0,11.0,
37900,1857.3,18.1,294.9,62.5,1477.0,7198.0,11.0,
38000,1861.4,17.2,250.8,60.5,1477.0,7198.0,11.0,
38100,1859.6,20.8,187.2,68.4,1477.0,7198.0,11.0,
38200,1862.6,16.5,119.6,78.1,1477.0,7198.0,11.0,
38300,1812.9,342.1,110.2,60.5,1294.0,6851.0,13.0,
38400,1896.5,328.1,177.8,39.1,1313.0,6141.0,11.0,
38500,1900.0,272.6,221.1,35.2,1274.0,6091.0,11.0,
38600,1855.0,290.9,263.0,33.2,1172.0,5367.0,11.0,
38800,1830.2,339.0,337.1,62.5,1338.0,6624.0,12.0,
38900,1906.5,60.8,354.9,62.5,1215.0,5765.0,11.0,
39000,1858.7,17.9,354.8,35.2,1215.0,5765.0,11.0,
39100,1859.6,14.3,354.9,35.2,1215.0,5765.0,11.0,
39200,1862.7,11.1,354.8,41.0,1215.0,5765.0,11.0,
39300,1861.7,16.8,338.0,58.6,1215.0,5765.0,11.0,
39400,1860.5,14.2,307.9,101.6,1215.0,5765.0,11.0,
39500,1860.3,18.2,278.4,99.6,1215.0,5765.0,11.0,
39600,1861.8,15.9,239.2,87.9,1215.0,5765.0,11.0,
39800,1860.1,11.2,112.7,99.6,1215.0,5765.0,11.0,
39900,1865.2,279.1,95.3,60.5,1408.0,7689.0,13.0,
40000,1851.1,308.2,178.8,37.1,1518.0,6913.0,12.0,
40100,1835.5,336.0,233.5,35.2,1343.0,6847.0,11.0,
40200,1881.1,346.3,276.5,33.2,1366.0,6240.0,11.0,
40300,1878.5,293.1,314.9,33.2,1294.0,6279.0,11.0,
40400,1852.0,264.8,346.1,62.5,1221.0,6063.0,12.0,
40500,1857.2,86.5,368.7,62.5,1279.0,6124.0,12.0,
40600,1853.9,17.6,368.7,35.2,1279.0,6124.0,12.0,
40800,1862.6,13.5,368.7,35.2,1279.0,6124.0,12.0,
40900,1862.3,13.8,356.7,43.0,1279.0,6124.0,12.0,
41000,1860.2,14.5,323.0,107.4,1279.0,6124.0,12.0,
41100,1859.8,17.9,285.9,121.1,1279.0,6124.0,12.0,
41200,1858.3,19.0,244.6,142.6,1279.0,6124.0,12.0,
41300,1860.8,16.3,192.8,99.6,1279.0,6124.0,12.0,
41400,1859.4,13.8,128.5,60.5,1279.0,6124.0,12.0,
41500,1816.0,293.1,69.4,93.8,1050.0,6466.0,12.0,
41600,1883.8,329.9,170.5,58.6,1385.0,6612.0,12.0,
41800,1881.7,252.4,244.6,35.2,1004.0,5113.0,12.0,
41900,1834.3,277.1,282.7,33.2,966.0,4955.0,12.0,
42000,1847.4,296.1,313.0,37.1,945.0,4865.0,12.0,
42100,1878.4,113.9,337.6,64.5,928.0,5016.0,12.0,
42200,1853.4,21.1,337.7,62.5,928.0,5016.0,12.0,
42300,1861.8,23.4,337.7,60.5,928.0,5016.0,12.0,
42400,1860.4,14.6,337.8,41.0,928.0,5016.0,12.0,
42500,1861.8,12.8,331.2,46.9,928.0,5016.0,12.0,
42600,1859.7,17.5,292.3,70.3,928.0,5016.0,12.0,
42800,1858.0,16.5,233.8,80.1,928.0,5016.0,12.0,
42900,1861.8,16.4,186.0,89.8,928.0,5016.0,12.0,
43000,1862.6,16.0,128.6,130.9,928.0,5016.0,12.0,
43100,1857.5,161.5,22.6,123.0,928.0,5016.0,12.0,
43200,1861.0,332.4,151.7,60.5,1416.0,6820.0,12.0,
43300,1806.4,303.9,213.7,41.0,1155.0,5694.0,12.0,
43400,1894.1,290.4,244.9,35.2,1125.0,5616.0,11.0,
43500,1894.5,245.3,277.4,33.2,1008.0,5502.0,11.0,
43600,1853.6,262.7,307.0,33.2,1023.0,4875.0,12.0,
43800,1878.7,22.9,341.3,64.5,1023.0,4875.0,12.0,
43900,1859.5,13.4,341.3,62.5,1023.0,4875.0,12.0,
44000,1862.5,13.0,341.3,43.0,1023.0,4875.0,12.0,
44100,1861.4,13.0,341.3,41.0,1023.0,4875.0,12.0,
44200,1863.3,16.5,306.4,70.3,1023.0,4875.0,12.0,
44300,1858.3,14.4,266.9,136.7,1023.0,4875.0,12.0,
44400,1860.5,12.4,238.5,99.6,1023.0,4875.0,12.0,
44500,1860.3,16.0,199.7,99.6,1023.0,4875.0,12.0,
44600,1860.4,11.9,150.3,113.3,1023.0,4875.0,12.0,
44800,1804.5,561.4,206.6,39.1,2816.0,14444.0,30.0,
44900,1920.5,518.8,299.7,35.2,2777.0,10505.0,30.0,
45000,1891.8,483.0,371.8,35.2,2475.0,11322.0,30.0,
45100,1861.6,357.7,423.5,33.2,1664.0,8010.0,11.0,
45200,1834.2,443.7,461.5,33.2,1476.0,7965.0,11.0,
45300,1852.2,423.3,497.8,33.2,1432.0,7326.0,11.0,
45400,1909.3,37.1,510.1,33.2,1494.0,6721.0,11.0,
45500,1859.6,15.4,510.1,33.2,1494.0,6721.0,11.0,
45600,1858.7,19.1,510.1,37.1,1494.0,6721.0,11.0,
45800,1857.4,16.7,466.7,56.6,1494.0,6721.0,11.0,
45900,1861.7,15.9,413.2,85.9,1494.0,6721.0,11.0,
46000,1860.5,12.1,349.8,87.9,1494.0,6721.0,11.0,
46100,1859.9,13.2,285.0,84.0,1494.0,6721.0,11.0,
46200,1858.8,14.0,218.1,119.1,1494.0,6721.0,11.0,
46300,1860.0,12.9,112.9,130.9,1494.0,6721.0,11.0,
46400,1858.0,524.8,216.8,39.1,2843.0,13753.0,30.0,
46500,1903.3,519.5,312.6,35.2,2819.0,11159.0,30.0,
46600,1809.7,539.5,399.6,35.2,2559.0,12105.0,30.0,
46800,1890.2,469.8,501.3,33.2,2704.0,11046.0,30.0,
46900,1881.4,300.1,533.4,33.2,1416.0,7243.0,11.0,
47000,1871.0,54.0,550.6,33.2,1645.0,7209.0,11.0,
47100,1860.9,15.5,550.6,33.2,1645.0,7209.0,11.0,
47200,1859.8,15.0,550.6,41.0,1645.0,7209.0,11.0,
47300,1857.9,14.3,550.6,54.7,1645.0,7209.0,11.0,
47400,1857.9,13.5,506.5,56.6,1645.0,7209.0,11.0,
47500,1862.3,11.1,453.7,121.1,1645.0,7209.0,11.0,
47600,1862.4,16.1,379.4,134.8,1645.0,7209.0,11.0,
47800,1858.5,15.0,228.6,121.1,1645.0,7209.0,11.0,
47900,1859.3,16.3,137.9,121.1,1645.0,7209.0,11.0,
48000,1777.2,587.6,189.5,41.0,2874.0,13131.0,30.0,
48100,1933.1,637.6,307.3,35.2,2990.0,13577.0,30.0,
48200,1916.9,487.8,397.6,33.2,2544.0,11323.0,30.0,
48300,1872.4,456.0,450.4,33.2,2406.0,9582.0,5.0,
48400,1807.3,502.5,507.0,33.2,2697.0,11566.0,30.0,
48500,1846.1,447.0,543.3,33.2,1556.0,7254.0,11.0,
48600,1930.0,76.6,564.5,33.2,1506.0,7349.0,11.0,
48800,1862.2,14.4,564.5,35.2,1506.0,7349.0,11.0,
48900,1863.0,15.7,564.5,43.0,1506.0,7349.0,11.0,
49000,1865.0,14.5,532.0,50.8,1506.0,7349.0,11.0,
49100,1863.2,14.6,473.8,121.1,1506.0,7349.0,11.0,
49200,1863.6,13.4,401.1,119.1,1506.0,7349.0,11.0,
49300,1859.8,12.1,340.8,119.1,1506.0,7349.0,11.0,
49400,1859.8,14.8,248.7,119.1,1506.0,7349.0,11.0,
49500,1859.4,16.5,154.4,123.0,1506.0,7349.0,11.0,
49600,1859.3,448.3,140.8,50.8,1935.0,11147.0,13.0,
49800,1826.8,541.6,384.5,33.2,2538.0,10427.0,30.0,
49900,1883.6,550.3,439.3,33.2,2868.0,11324.0,30.0,
50000,1882.8,479.9,498.2,33.2,2786.0,11302.0,30.0,
50100,1866.3,317.3,535.4,33.2,2393.0,8134.0,30.0,
50200,1876.6,120.2,566.7,33.2,391.0,1687.0,5.0,
50300,1861.0,20.2,566.7,33.2,391.0,1687.0,5.0,
50400,1860.4,13.8,566.7,35.2,391.0,1687.0,5.0,
50500,1860.2,13.7,566.7,39.1,391.0,1687.0,5.0,
50600,1862.2,15.3,549.3,44.9,391.0,1687.0,5.0,
50800,1860.0,14.1,416.7,127.0,391.0,1687.0,5.0,
50900,1863.0,14.1,358.5,121.1,391.0,1687.0,5.0,
51000,1863.2,15.0,270.7,121.1,391.0,1687.0,5.0,
51100,1861.7,16.1,186.8,121.1,391.0,1687.0,5.0,
51200,1774.9,531.6,106.4,76.2,2170.0,11413.0,13.0,
51300,1911.8,656.6,279.7,37.1,2156.0,11769.0,11.0,
51400,1924.7,474.2,372.9,35.2,1881.0,9923.0,11.0,
51500,1865.6,508.3,426.5,33.2,2448.0,10195.0,5.0,
51600,1795.0,481.8,491.7,33.2,1883.0,9627.0,12.0,
51800,1920.1,182.4,561.2,33.2,1542.0,8144.0,11.0,
51900,1865.9,27.8,561.4,33.2,1542.0,8144.0,11.0,
52000,1858.0,21.4,561.4,33.2,1542.0,8144.0,11.0,
52100,1861.6,18.4,561.5,37.1,1542.0,8144.0,11.0,
52200,1858.6,13.4,551.6,41.0,1542.0,8144.0,11.0,
52300,1859.7,15.9,487.2,68.4,1542.0,8144.0,11.0,
52400,1860.7,14.1,420.1,101.6,1542.0,8144.0,11.0,
52500,1862.6,13.2,365.6,121.1,1542.0,8144.0,11.0,
52600,1860.3,16.0,271.7,121.1,1542.0,8144.0,11.0,
52800,1859.8,287.0,24.5,166.0,1542.0,8144.0,11.0,
52900,1867.4,670.2,242.9,37.1,2272.0,12698.0,11.0,
53000,1825.3,563.2,361.0,35.2,2009.0,9851.0,11.0,
53100,1892.7,593.3,426.2,33.2,1855.0,9670.0,11.0,
53200,1891.4,432.2,483.9,33.2,1718.0,8889.0,12.0,
53300,1858.2,373.1,518.2,33.2,1559.0,7937.0,11.0,
53400,1850.1,276.3,556.4,33.2,2726.0,9952.0,30.0,
53500,1889.5,27.1,562.3,33.2,2726.0,9952.0,30.0,
53600,1859.2,16.9,562.3,33.2,2726.0,9952.0,30.0,
53800,1859.7,14.8,562.3,39.1,2726.0,9952.0,30.0,
53900,1860.5,13.4,507.6,58.6,2726.0,9952.0,30.0,
54000,1860.1,14.3,431.6,84.0,2726.0,9952.0,30.0,
54100,1858.3,16.6,367.4,130.9,2726.0,9952.0,30.0,
54200,1863.0,13.7,287.1,130.9,2726.0,9952.0,30.0,
54300,1859.9,15.9,219.2,107.4,2726.0,9952.0,30.0,
54400,1861.2,333.3,83.8,87.9,2726.0,9952.0,30.0,
54500,1833.5,688.8,260.7,37.1,2955.0,15913.0,30.0,
54600,1934.1,466.5,363.6,35.2,2547.0,12561.0,5.0,
54800,1790.0,571.4,503.0,33.2,2019.0,9978.0,12.0,
54900,1865.1,589.2,553.3,33.2,1790.0,9272.0,11.0,
55000,1930.1,434.8,596.9,33.2,1723.0,8777.0,11.0,
55100,1870.1,35.0,606.4,33.2,1723.0,8777.0,11.0,
55200,1860.5,14.0,606.4,33.2,1723.0,8777.0,11.0,
55300,1857.5,15.0,606.4,35.2,1723.0,8777.0,11.0,
55400,1857.3,11.7,606.4,39.1,1723.0,8777.0,11.0,
55500,1860.9,15.0,547.8,56.6,1723.0,8777.0,11.0,
55600,1861.4,16.1,485.7,121.1,1723.0,8777.0,11.0,
55800,1861.8,14.1,339.1,60.5,1723.0,8777.0,11.0,
55900,1861.5,13.8,248.7,103.5,1723.0,8777.0,11.0,
56000,1860.1,14.0,108.2,121.1,1723.0,8777.0,11.0,
56100,1878.0,626.6,214.9,39.1,2775.0,14747.0,30.0,
56200,1807.3,294.4,335.9,35.2,2672.0,11434.0,30.0,
56300,1930.3,34.0,344.9,35.2,2672.0,11434.0,30.0,
56400,1860.8,14.8,344.9,33.2,2672.0,11434.0,30.0,
56500,1858.8,13.7,344.9,35.2,2672.0,11434.0,30.0,
56600,1860.1,14.8,344.9,35.2,2672.0,11434.0,30.0,
56800,1856.6,14.0,344.9,121.1,2672.0,11434.0,30.0,
56900,1860.4,17.1,344.9,132.8,2672.0,11434.0,30.0,
57000,1863.2,16.7,344.9,128.9,2672.0,11434.0,30.0,
57100,1861.2,14.2,270.4,119.1,2672.0,11434.0,30.0,
57200,1859.4,393.3,80.5,101.6,2672.0,11434.0,30.0,
57300,1878.2,506.4,251.0,41.0,2807.0,13343.0,30.0,
57400,1869.8,488.9,331.5,37.1,1876.0,9624.0,11.0,
57500,1811.3,440.2,403.4,35.2,1694.0,8386.0,11.0,
57600,1837.5,485.1,441.5,33.2,1523.0,7570.0,10.0,
57800,1862.4,14.2,459.3,33.2,1523.0,7570.0,10.0,
57900,1862.0,16.6,459.3,35.2,1523.0,7570.0,10.0,
58000,1861.7,13.6,459.3,37.1,1523.0,7570.0,10.0,
58100,1859.8,12.7,459.3,50.8,1523.0,7570.0,10.0,
58200,1861.0,18.0,459.3,119.1,1523.0,7570.0,10.0,
58300,1861.6,13.5,385.1,121.1,1523.0,7570.0,10.0,
58400,1860.0,15.1,318.5,117.2,1523.0,7570.0,10.0,
58500,1861.9,16.0,220.4,95.7,1523.0,7570.0,10.0,
58600,1861.6,13.1,128.1,115.2,1523.0,7570.0,10.0,
58800,1860.1,582.2,309.8,35.2,2657.0,13080.0,30.0,
58900,1827.1,524.9,393.6,33.2,2526.0,10689.0,30.0,
59000,1866.0,628.9,459.9,33.2,2582.0,12286.0,30.0,
59100,1910.5,455.0,514.6,33.2,2402.0,10251.0,5.0,
59200,1854.9,387.8,549.6,33.2,1706.0,8701.0,12.0,
59300,1861.7,59.4,574.6,33.2,2619.0,10623.0,30.0,
59400,1860.1,13.8,574.6,33.2,2619.0,10623.0,30.0,
59500,1861.3,15.6,574.6,33.2,2619.0,10623.0,30.0,
59600,1855.5,14.9,574.6,35.2,2619.0,10623.0,30.0,
59800,1859.6,14.5,484.2,138.7,2619.0,10623.0,30.0,
59900,1859.0,15.9,418.9,127.0,2619.0,10623.0,30.0,
60000,1861.4,15.1,344.9,127.0,2619.0,10623.0,30.0,
60100,1861.0,12.6,256.2,123.0,2619.0,10623.0,30.0,
60200,1860.7,12.2,168.5,123.0,2619.0,10623.0,30.0,
60300,1768.8,670.7,186.3,41.0,2623.0,15066.0,5.0,
60400,1916.7,681.0,342.8,35.2,2623.0,13665.0,30.0,
60500,1919.8,487.6,420.1,33.2,2543.0,11324.0,30.0,
60600,1886.4,582.2,486.5,33.2,2559.0,13146.0,5.0,
60800,1829.7,618.3,595.9,33.2,2812.0,11870.0,30.0,
60900,1927.8,88.6,627.6,33.2,591.0,2317.0,5.0,
61000,1860.8,14.1,627.6,33.2,591.0,2317.0,5.0,
61100,1862.0,13.9,627.6,33.2,591.0,2317.0,5.0,
61200,1863.6,12.7,627.6,35.2,591.0,2317.0,5.0,
61300,1861.2,14.8,599.5,37.1,591.0,2317.0,5.0,
61400,1859.8,13.7,526.0,121.1,591.0,2317.0,5.0,
61500,1861.0,15.2,466.6,140.6,591.0,2317.0,5.0,
61600,1861.1,12.4,396.9,154.3,591.0,2317.0,5.0,
61800,1864.0,16.4,197.6,121.1,591.0,2317.0,5.0,
61900,1865.2,507.7,150.6,48.8,2224.0,12608.0,13.0,
62000,1865.1,671.0,327.5,35.2,2673.0,16682.0,5.0,
62100,1788.7,602.5,420.9,33.2,2670.0,11777.0,30.0,
62200,1920.9,650.9,494.6,33.2,2605.0,12634.0,5.0,
62300,1919.4,88.2,532.1,33.2,1969.0,9992.0,11.0,
62400,1862.4,16.9,532.1,33.2,1969.0,9992.0,11.0,
62500,1860.5,13.3,532.1,35.2,1969.0,9992.0,11.0,
62600,1861.9,13.2,532.1,35.2,1969.0,9992.0,11.0,
62800,1861.3,11.6,532.1,125.0,1969.0,9992.0,11.0,
62900,1860.3,12.4,510.6,146.5,1969.0,9992.0,11.0,
63000,1859.7,12.3,419.7,127.0,1969.0,9992.0,11.0,
63100,1858.5,12.5,325.9,121.1,1969.0,9992.0,11.0,
63200,1860.1,17.1,197.0,121.1,1969.0,9992.0,11.0,
63300,1829.5,377.8,144.4,58.6,2119.0,12326.0,13.0,
63400,1895.5,267.6,210.4,43.0,1212.0,6454.0,12.0,
63500,1846.7,91.4,248.4,39.1,1078.0,5961.0,13.0,
63600,1853.5,16.3,248.5,35.2,1078.0,5961.0,13.0,
63800,1861.5,12.8,248.5,35.2,1078.0,5961.0,13.0,
63900,1862.4,13.8,248.5,39.1,1078.0,5961.0,13.0,
64000,1862.1,13.4,248.5,168.0,1078.0,5961.0,13.0,
64100,1859.7,13.5,248.5,164.1,1078.0,5961.0,13.0,
64200,1860.5,14.1,248.4,162.1,1078.0,5961.0,13.0,
64300,1860.5,15.2,202.9,160.2,1078.0,5961.0,13.0,
64400,1860.0,15.7,133.3,152.3,1078.0,5961.0,13.0,
64500,1860.0,151.1,18.0,91.8,1078.0,5961.0,13.0,
64600,1853.7,136.2,114.1,138.7,383.0,2541.0,14.0,
64800,1847.0,40.2,186.3,160.2,262.0,1833.0,14.0,
64900,1856.8,12.5,186.3,160.2,262.0,1833.0,14.0,
65000,1861.5,12.3,186.3,160.2,262.0,1833.0,14.0,
65100,1860.6,14.8,186.2,154.3,262.0,1833.0,14.0,
65200,1860.3,13.0,186.3,138.7,262.0,1833.0,14.0,
65300,1861.1,12.4,186.3,183.6,262.0,1833.0,14.0,
65400,1861.5,13.4,186.2,185.5,262.0,1833.0,14.0,
65500,1860.2,11.6,186.2,183.6,262.0,1833.0,14.0,
65600,1858.0,13.4,148.2,169.9,262.0,1833.0,14.0,
65800,1861.3,13.2,16.3,121.1,262.0,1833.0,14.0,
65900,1860.8,12.8,16.2,121.1,262.0,1833.0,14.0,
66000,1861.8,15.0,16.3,121.1,262.0,1833.0,14.0,
66100,1864.3,10.8,16.5,119.1,262.0,1833.0,14.0,
66200,1862.0,13.3,16.2,121.1,262.0,1833.0,14.0,
66300,1860.1,12.8,16.0,142.6,262.0,1833.0,14.0,
66400,1860.1,11.9,15.9,150.4,262.0,1833.0,14.0,
66500,1859.0,12.0,15.9,160.2,262.0,1833.0,14.0,
66600,1862.8,13.8,15.9,166.0,262.0,1833.0,14.0,
