Time(ms),ENV_Value
0,16.3
100,50.6
200,52.2
300,48.2
400,46.9
500,45.3
600,43.1
700,43.4
800,78.7
900,141.4
1000,77.3
1100,57.1
1200,45.2
1300,44.3
1400,35.7
1500,39.2
1600,39.4
1700,39.0
1800,39.4
1900,51.2
2000,50.0
2100,48.6
2200,46.7
2300,45.4
2400,91.8
2500,135.5
2600,47.1
2700,47.2
2800,30.8
2900,28.3
3000,29.8
3100,39.0
3200,39.3
3300,38.7
3400,39.5
3500,39.1
3600,51.4
3700,51.6
3800,48.9
3900,48.1
4000,76.6
4100,53.3
4200,29.3
4300,31.2
4400,33.5
4500,33.3
4600,34.5
4700,39.0
4800,38.8
4900,39.8
5000,39.5
5100,39.3
5200,39.5
5300,39.4
5400,47.5
5500,53.0
5600,50.4
5700,35.1
5800,34.1
5900,33.1
6000,31.2
6100,35.8
6200,35.1
6300,38.2
6400,39.5
6500,39.2
6600,38.4
6700,39.7
6800,39.1
6900,39.2
7000,40.9
7100,51.8
7200,51.5
7300,67.1
7400,48.9
7500,31.8
7600,34.5
7700,31.8
7800,31.4
7900,38.2
8000,38.3
8100,38.9
8200,39.1
8300,39.1
8400,50.3
8500,55.7
8600,52.6
8700,51.3
8800,50.6
8900,66.1
9000,48.0
9100,32.1
9200,32.7
9300,34.1
9400,34.0
9500,38.5
9600,38.7
9700,39.4
9800,38.9
9900,38.3
10000,39.1
10100,39.1
10200,38.0
10300,39.5
10400,53.9
10500,72.2
10600,36.3
10700,34.9
10800,36.0
10900,35.4
11000,37.3
11100,38.3
11200,38.9
11300,38.7
11400,38.4
11500,39.2
11600,39.5
11700,38.5
11800,38.9
11900,39.1
12000,38.6
12100,38.9
12200,34.3
12300,33.5
12400,36.5
12500,37.2
12600,37.4
12700,38.5
12800,38.8
12900,38.5
13000,39.1
13100,38.8
13200,39.0
13300,39.8
13400,39.5
13500,38.9
13600,39.5
13700,52.1
13800,48.5
13900,36.2
14000,36.1
14100,37.1
14200,38.5
14300,39.5
14400,39.1
14500,40.3
14600,39.3
14700,38.8
14800,39.2
14900,39.2
15000,38.8
15100,39.0
15200,39.3
15300,71.7
15400,97.2
15500,40.5
15600,46.6
15700,40.5
15800,42.5
15900,40.1
16000,39.4
16100,39.2
16200,38.6
16300,39.3
16400,38.7
16500,39.1
16600,39.4
16700,39.1
16800,39.4
16900,60.3
17000,42.8
17100,42.2
17200,43.5
17300,43.1
17400,56.3
17500,48.1
17600,39.2
17700,38.0
17800,38.8
17900,39.0
18000,38.8
18100,38.7
18200,39.1
18300,38.9
18400,39.2
18500,38.8
18600,41.5
18700,61.9
18800,42.2
18900,44.4
19000,41.0
19100,43.7
19200,39.0
19300,39.3
19400,39.1
19500,38.5
19600,39.3
19700,38.9
19800,38.5
19900,39.6
20000,39.1
20100,39.0
20200,50.1
20300,51.0
20400,40.8
20500,42.7
20600,38.3
20700,35.1
20800,38.9
20900,39.3
21000,39.3
21100,39.6
21200,39.6
21300,38.9
21400,39.7
21500,39.2
21600,38.9
21700,39.4
21800,84.6
21900,47.8
22000,45.4
22100,38.0
22200,39.3
22300,33.9
22400,38.8
22500,39.0
22600,39.9
22700,39.4
22800,38.8
23000,38.8
23100,38.7
23200,39.9
23300,39.5
23400,52.3
23500,57.1
23600,37.5
23700,33.6
23800,32.1
23900,32.4
24000,36.1
24100,39.1
24200,38.6
24300,39.0
24400,39.2
24500,39.1
24600,38.5
24700,39.1
24800,48.0
24900,47.2
25000,86.7
25100,54.6
25200,59.7
25300,41.1
25400,31.7
25500,31.0
25600,36.6
25700,38.7
25800,53.4
25900,52.0
26000,47.1
26100,45.1
26200,44.1
26300,43.5
26400,42.7
26500,42.1
26600,49.8
26700,66.8
26800,73.1
26900,52.6
27000,53.2
27100,80.9
27200,52.7
27300,41.6
27400,40.8
27500,40.1
27600,39.3
27700,38.8
27800,39.2
27900,38.0
28000,38.4
28100,37.3
28200,53.3
28300,50.7
28400,94.9
28500,77.0
28600,87.1
28700,64.4
28800,69.3
28900,44.5
29000,40.3
29100,39.3
29200,38.4
29300,38.1
29400,38.3
29500,38.7
29600,37.9
29700,37.5
29800,56.9
29900,70.7
30000,67.6
30100,60.3
30200,110.6
30300,92.1
30400,94.3
30500,49.2
30600,41.9
30700,40.5
30800,39.1
31000,39.1
31100,38.0
31200,38.3
31300,37.9
31400,37.5
31500,118.8
31600,92.7
31700,104.4
31800,84.2
32000,138.3
32100,52.5
32200,43.4
32300,40.7
32400,39.4
32500,39.3
32600,38.3
32700,38.6
32800,38.5
33000,37.5
33100,99.0
33200,75.1
33300,152.9
33400,115.9
33500,123.4
33600,81.2
33700,52.8
33800,43.0
34000,40.0
34100,38.9
34200,37.8
34300,39.2
34400,37.5
34500,37.8
34600,37.4
34700,112.9
34800,118.0
34900,101.7
35000,80.4
35100,137.0
35200,90.9
35300,56.9
35400,44.4
35500,42.3
35600,40.4
35700,38.1
35800,39.6
35900,39.1
36000,37.9
36100,38.6
36200,38.0
36300,70.3
36400,149.1
36500,106.9
36600,108.8
36700,71.4
36800,63.7
37000,50.1
37100,43.9
37200,40.9
37300,41.5
37400,39.8
37500,38.8
37600,39.9
37700,38.3
37800,38.6
37900,102.1
38000,93.9
38100,63.1
38200,110.4
38300,75.4
38400,94.4
38500,65.0
38600,50.0
38700,44.9
38800,44.2
39000,40.5
39100,41.2
39200,39.5
39300,38.8
39400,39.5
39500,106.1
39600,76.9
39700,74.9
39800,57.4
40000,72.0
40100,52.6
40200,44.7
40300,43.9
40400,41.7
40500,40.4
40600,41.6
40700,39.9
40800,39.0
41000,38.6
41100,71.0
41200,54.3
41300,92.0
41400,64.3
41500,78.1
41600,53.0
41700,53.9
41800,45.1
42000,40.9
42100,41.2
42200,40.7
42300,39.8
42400,41.2
42500,39.8
42600,39.5
42700,48.5
42800,44.7
43000,46.2
43100,61.9
43200,51.0
43300,61.9
43400,45.9
43500,38.4
43600,41.6
43700,33.1
43800,27.2
44000,34.2
44100,40.9
44200,41.8
44300,40.7
44400,79.6
44500,58.4
44600,58.7
44700,53.1
44800,69.2
45000,35.3
45100,34.8
45200,34.9
45300,36.6
45400,34.8
45500,34.2
45600,39.0
45700,40.4
45800,41.0
45900,42.2
46000,75.7
46100,57.9
46200,101.6
46300,76.5
46400,102.4
46500,71.1
46600,53.1
46700,45.6
46800,43.2
47000,42.8
47100,41.9
47200,42.3
47300,41.8
47400,41.0
47500,42.8
47600,83.3
47700,88.2
47800,99.8
47900,121.4
48000,95.5
48100,101.0
48200,63.8
48300,49.8
48400,46.8
48500,44.5
48600,42.9
48700,44.0
48800,42.6
49000,42.7
49100,41.8
49200,54.8
49300,172.1
49400,100.7
49500,173.4
49600,56.8
49700,121.9
49800,42.9
49900,39.0
50000,57.6
50100,53.5
50200,51.5
50300,47.3
50400,45.5
50500,46.3
50600,44.2
50700,42.9
50800,190.3
50900,47.1
51000,71.0
51100,47.2
51200,48.9
51300,42.5
51400,40.5
51500,38.6
51600,39.0
51700,39.4
51800,39.5
52000,38.9
52100,38.5
52200,40.2
52300,51.9
52400,69.3
52500,48.9
52600,43.6
52700,40.9
52800,40.5
53000,37.6
53100,38.8
53200,39.3
53300,39.3
53400,38.9
53500,38.9
53600,39.0
53700,37.9
53800,39.5
53900,39.3
54000,43.9
54100,70.8
54200,40.4
54300,38.2
54400,38.6
54500,39.2
54600,38.2
54700,39.2
54800,38.9
54900,39.0
55000,39.4
55100,39.3
55200,38.8
55300,38.9
55400,38.8
55500,38.5
55600,48.3
55700,35.4
55800,37.4
55900,36.3
56000,38.8
56100,36.6
56200,38.8
56300,38.8
56400,38.5
56500,39.5
56600,39.4
56700,38.8
56800,39.5
56900,39.1
57000,39.1
57100,39.4
57200,39.0
57300,33.7
57400,36.1
57500,36.7
57600,37.6
57700,36.9
57800,37.8
57900,38.7
58000,39.3
58100,38.8
58200,38.7
58300,39.2
58400,39.2
58500,38.8
58600,39.3
58700,39.0
58800,38.6
59000,36.1
59100,38.7
59200,38.4
59300,38.6
59400,38.6
59500,39.3
59600,39.2
59700,38.7
59800,39.4
59900,39.5
60000,38.6
60100,39.0
60200,39.2
60300,38.6
60400,39.3
60500,33.2
60600,36.2
60700,38.9
60800,38.0
60900,39.0
61000,38.7
61100,39.3
61200,38.8
61300,39.0
61400,38.8
61500,38.9
61600,39.3
61700,39.3
61800,38.6
62000,38.8
62100,36.2
62200,38.0
62300,37.7
62400,38.2
62500,39.2
62600,38.8
62700,38.8
62800,39.2
63000,38.9
63100,39.0
63200,38.8
63300,38.8
63400,39.1
63500,38.9
63600,38.3
63700,34.2
63800,38.5
63900,38.2
64000,39.1
64100,38.9
64200,38.5
64300,39.0
64400,39.3
64500,38.8
64600,39.1
64700,39.0
64800,38.7
64900,39.5
65000,38.8
65100,38.8
65200,39.0
65300,36.6
65400,36.6
65500,37.9
65600,39.1
65700,38.4
65800,39.4
65900,39.3
66000,38.8
66100,38.8
66200,39.1
66300,38.7
66400,39.3
66500,39.3
66600,39.0
66700,39.2
66800,39.1
67000,36.9
67100,37.7
67200,37.9
67300,39.4
67400,40.0
67500,38.9
67600,39.2
67700,39.8
67800,39.0
68000,39.2
68100,38.9
68200,39.7
68300,39.1
68400,39.0
68500,39.1
68600,38.3
68700,38.8
68800,39.4
69000,38.6
69100,39.1
69200,39.1
69300,39.0
69400,39.4
69500,39.5
69600,39.0
69700,39.3
69800,39.1
70000,39.6
70100,46.9
70200,38.7
70300,39.7
70400,38.8
70500,38.8
70600,40.1
70700,39.9
70800,38.9
71000,39.3
71100,38.6
71200,39.2
71300,38.9
71400,39.0
71500,39.6
71600,39.3
71700,39.1
71800,39.8
71900,39.5
72000,38.9
72100,39.8
72200,39.0
72300,39.0
72400,39.0
72500,39.5
72600,38.7
72700,39.6
72800,39.1
73000,39.5
73100,39.5
73200,39.4
73300,39.6
73400,45.2
73500,40.4
73600,39.6
73700,39.6
73800,39.2
74000,38.9
74100,39.1
74200,39.5
74300,39.0
74400,38.9
74500,39.1
74600,39.3
74700,38.8
74800,39.7
74900,39.1
75000,65.9
75100,40.7
75200,40.1
75300,38.8
75400,39.3
75500,38.8
75600,38.7
75700,40.5
75800,39.1
76000,39.4
76100,39.4
76200,39.3
76300,39.4
76400,39.3
76500,38.7
76600,43.5
76700,38.9
76800,37.7
76900,39.3
77000,38.4
77100,38.8
77200,39.3
77300,39.4
77400,39.4
77500,39.7
77600,39.1
77700,39.1
77800,39.7
77900,39.5
78000,38.5
78100,39.7
78200,36.7
78300,37.0
78400,38.8
78500,39.5
78600,39.0
78700,39.6
78800,39.4
78900,39.2
79000,39.4
79100,39.6
79200,39.1
79300,39.4
79400,39.4
79500,39.2
79600,39.5
79700,38.8
79800,33.8
79900,35.3
80000,39.3
80100,39.0
80200,39.4
80300,39.1
80400,39.5
80500,39.4
80600,39.2
80700,39.2
80800,39.4
80900,39.4
81000,38.9
81100,39.7
81200,39.5
81300,38.7
81400,34.0
81500,35.5
81600,38.3
81700,38.5
81800,38.9
82000,39.3
82100,39.2
82200,38.6
82300,39.2
82400,39.1
82500,39.0
82600,39.4
82700,39.6
82800,38.6
83000,44.0
83100,37.9
83200,39.1
83300,39.1
83400,38.8
83500,39.6
83600,39.2
83700,39.1
83800,39.2
84000,39.2
84100,39.6
84200,38.9
84300,38.6
84400,39.2
84500,39.1
84600,38.6
84700,66.3
84800,62.1
85000,55.6
85100,53.4
85200,77.9
85300,41.0
85400,39.3
85500,38.5
85600,39.0
85700,39.0
85800,44.3
86000,44.0
86100,43.5
86200,43.4
86300,67.9
86400,62.4
86500,43.0
86600,39.5
86700,39.0
86800,39.5
87000,38.8
87100,39.3
87200,39.3
87300,39.2
87400,39.9
87500,39.7
87600,39.3
87700,176.1
87800,46.8
88000,39.3
88100,39.7
88200,39.7
88300,39.7
88400,40.6
88500,39.3
88600,38.4
88700,38.4
88800,38.3
89000,38.8
89100,38.3
89200,38.8
89300,38.6
89400,38.7
89500,47.7
89600,59.7
89700,54.5
89800,51.5
89900,49.2
90000,46.0
90100,42.2
90200,39.5
90300,38.9
90400,38.4
90500,39.2
90600,38.3
90700,17.8
90800,17.1
91000,23.1
91100,121.7
91200,57.5
91300,45.8
91400,63.9
91500,58.6
91600,59.9
91700,45.0
91800,39.2
92000,38.7
92100,38.5
92200,20.4
92300,18.7
92400,21.5
92500,24.2
92600,25.9
92700,133.2
92800,108.6
93000,64.4
93100,52.4
93200,74.3
93300,49.4
93400,39.3
93500,38.6
93600,38.6
93700,38.6
93800,35.4
94000,20.8
94100,22.6
94200,24.2
94300,57.9
94400,55.5
94500,78.9
94600,58.9
94700,55.3
94800,52.8
94900,54.3
95000,35.0
95100,33.9
95200,34.6
95300,34.9
95400,35.1
95500,35.7
95600,35.9
95700,36.4
95800,36.8
96000,66.2
96100,69.5
96200,59.1
96300,111.8
96400,83.0
96500,96.5
96600,48.9
96700,42.3
96800,40.9
97000,39.4
97100,39.7
97200,39.2
97300,39.4
97400,39.6
97500,39.4
97600,112.0
97700,96.1
97800,89.0
98000,118.5
98100,98.4
98200,48.2
98300,43.0
98400,41.8
98500,41.8
98600,40.9
98700,41.3
98800,41.0
99000,39.7
99100,41.0
99200,88.5
99300,61.6
99400,94.7
99500,49.9
99600,47.7
99700,44.3
99800,43.6
99900,42.7
100000,42.0
100100,41.6
100200,41.0
100300,40.9
100400,40.4
100500,40.4
100600,41.2
100700,41.3
100800,48.7
100900,40.9
101000,52.0
101100,43.3
101200,56.4
101300,44.2
101400,44.6
101500,42.5
101600,41.9
101700,41.2
101800,41.3
101900,40.9
102000,41.1
102100,41.2
102200,41.0
102300,40.6
102400,42.6
102500,66.3
102600,58.1
102700,57.6
102800,66.6
103000,52.0
103100,43.1
103200,42.6
103300,42.4
103400,42.0
103500,41.5
103600,40.6
103700,41.1
103800,40.7
103900,40.8
104000,40.5
104100,83.4
104200,80.1
104300,94.4
104400,75.9
104500,90.9
104600,91.5
104700,56.8
104800,48.5
104900,46.0
105000,43.6
105100,43.6
105200,42.8
105300,42.2
105400,42.3
105500,42.3
105600,72.2
105700,103.1
105800,85.3
105900,116.5
106000,124.4
106100,175.3
106200,76.0
106300,54.8
106400,49.3
106500,46.6
106600,44.7
106700,43.7
106800,42.2
107000,42.0
107100,42.0
107200,67.6
107300,116.8
107400,130.9
107500,84.8
107600,67.1
107700,82.1
107800,52.3
107900,48.1
