Time(ms),Raw_ADC,ENV_Value,RMS,MDF,MW_Amp,MW_Area,MW_Latency,Marker
0,1857.5,16.0,0.0,0.0,0.0,0.0,0.0,
100,1861.6,17.1,0.0,0.0,0.0,0.0,0.0,
200,1856.2,20.0,0.0,0.0,0.0,0.0,0.0,
300,1859.9,19.4,0.0,0.0,0.0,0.0,0.0,
400,1858.9,20.7,0.0,0.0,0.0,0.0,0.0,
500,1859.8,17.3,0.0,119.1,0.0,0.0,0.0,
600,1866.7,19.7,0.0,119.1,0.0,0.0,0.0,
700,1858.2,19.7,0.0,119.1,0.0,0.0,0.0,
800,1865.6,98.0,0.0,119.1,0.0,0.0,0.0,
900,1867.3,116.2,58.2,119.1,0.0,0.0,0.0,
1000,1878.7,93.2,83.4,97.7,0.0,0.0,0.0,
1100,1849.9,97.0,99.5,97.7,0.0,0.0,0.0,
1200,1866.4,157.4,113.9,95.7,0.0,0.0,0.0,
1300,1861.6,191.6,139.2,97.7,0.0,0.0,0.0,
1400,1861.8,40.6,159.5,97.7,0.0,0.0,0.0,
1500,1859.1,17.7,159.5,97.7,0.0,0.0,0.0,
1600,1859.3,16.6,159.4,97.7,0.0,0.0,0.0,
1700,1858.0,19.1,159.5,97.7,0.0,0.0,0.0,
1900,1860.1,18.2,150.6,121.1,0.0,0.0,0.0,
2000,1859.3,17.5,138.2,119.1,0.0,0.0,0.0,
2100,1859.2,21.2,127.1,121.1,0.0,0.0,0.0,
2200,1859.4,20.1,114.5,119.1,0.0,0.0,0.0,
2300,1860.7,20.0,81.8,119.1,0.0,0.0,0.0,
2400,1857.5,49.3,28.6,119.1,0.0,0.0,0.0,
2500,1861.0,102.0,46.2,119.1,0.0,0.0,0.0,
2600,1851.8,119.0,63.7,99.6,0.0,0.0,0.0,
2700,1850.0,109.3,80.5,97.7,0.0,0.0,0.0,
2900,1832.7,126.8,118.1,97.7,0.0,0.0,0.0,
3000,1851.9,37.8,128.7,97.7,0.0,0.0,0.0,
3100,1859.1,19.4,128.6,97.7,0.0,0.0,0.0,
3200,1857.1,18.4,128.6,99.6,0.0,0.0,0.0,
3300,1858.3,19.0,128.6,99.6,0.0,0.0,0.0,
3400,1860.5,20.3,127.9,119.1,0.0,0.0,0.0,
3500,1859.7,17.5,122.6,119.1,0.0,0.0,0.0,
3600,1860.0,18.5,114.6,119.1,0.0,0.0,0.0,
3700,1858.5,18.1,103.4,119.1,0.0,0.0,0.0,
3900,1858.7,19.5,56.8,121.1,0.0,0.0,0.0,
4000,1858.0,73.1,34.7,119.1,0.0,0.0,0.0,
4100,1851.8,80.8,63.7,195.3,0.0,0.0,0.0,
4200,1844.1,119.5,87.4,183.6,0.0,0.0,0.0,
4300,1862.4,149.2,105.5,127.0,0.0,0.0,0.0,
4400,1864.7,137.7,118.8,97.7,0.0,0.0,0.0,
4500,1869.6,118.1,134.4,97.7,0.0,0.0,0.0,
4600,1865.2,48.4,145.8,95.7,0.0,0.0,0.0,
4700,1857.3,19.5,145.8,95.7,0.0,0.0,0.0,
4900,1860.1,17.7,145.8,95.7,0.0,0.0,0.0,
5000,1858.5,23.0,143.8,101.6,0.0,0.0,0.0,
5100,1861.1,22.3,133.6,121.1,0.0,0.0,0.0,
5200,1861.0,19.5,119.5,121.1,0.0,0.0,0.0,
5300,1858.5,17.8,103.7,121.1,0.0,0.0,0.0,
5400,1857.7,20.8,88.1,121.1,0.0,0.0,0.0,
5500,1859.7,24.0,62.0,121.1,0.0,0.0,0.0,
5600,1863.2,46.8,30.0,119.1,0.0,0.0,0.0,
5700,1867.2,96.1,43.9,119.1,0.0,0.0,0.0,
5900,1883.7,127.4,91.9,99.6,0.0,0.0,0.0,
6000,1845.0,201.0,139.5,97.7,0.0,0.0,0.0,
6100,1868.2,247.1,173.5,95.7,0.0,0.0,0.0,
6200,1864.5,90.8,201.6,95.7,0.0,0.0,0.0,
6300,1857.3,24.3,201.6,95.7,0.0,0.0,0.0,
6400,1860.1,16.6,201.6,95.7,0.0,0.0,0.0,
6500,1859.1,17.1,201.5,95.7,0.0,0.0,0.0,
6600,1861.2,17.7,200.9,97.7,0.0,0.0,0.0,
6700,1860.8,18.6,198.3,121.1,0.0,0.0,0.0,
6900,1862.0,22.3,181.2,119.1,0.0,0.0,0.0,
7000,1861.3,15.3,147.6,119.1,0.0,0.0,0.0,
7100,1857.1,20.6,105.6,119.1,0.0,0.0,0.0,
7200,1861.0,30.4,26.8,119.1,0.0,0.0,0.0,
7300,1849.8,111.3,48.3,121.1,0.0,0.0,0.0,
7400,1847.8,271.4,112.7,103.5,0.0,0.0,0.0,
7500,1846.3,239.5,157.9,97.7,1473.0,3842.0,30.0,
7600,1840.7,204.5,193.7,97.7,1473.0,3842.0,30.0,
7700,1844.2,187.7,232.0,97.7,1655.0,4110.0,30.0,
7900,1867.8,25.3,258.2,97.7,1655.0,4110.0,30.0,
8000,1861.3,21.4,258.2,97.7,1655.0,4110.0,30.0,
8100,1859.5,17.8,258.2,99.6,1655.0,4110.0,30.0,
8200,1861.2,20.6,258.0,101.6,1655.0,4110.0,30.0,
8300,1859.9,23.6,254.9,119.1,1655.0,4110.0,30.0,
8400,1863.1,20.5,233.7,119.1,1655.0,4110.0,30.0,
8500,1860.8,17.9,206.0,119.1,1655.0,4110.0,30.0,
8600,1860.5,18.7,172.8,119.1,1655.0,4110.0,30.0,
8700,1859.0,19.8,116.3,119.1,1655.0,4110.0,30.0,
8900,1845.9,98.6,53.5,121.1,1655.0,4110.0,30.0,
9000,1868.2,106.7,78.7,164.1,1655.0,4110.0,30.0,
9100,1839.1,146.4,111.9,128.9,1655.0,4110.0,30.0,
9200,1865.7,228.5,139.4,97.7,1655.0,4110.0,30.0,
9300,1866.8,219.8,169.1,97.7,1655.0,4110.0,30.0,
9400,1878.6,188.3,205.9,97.7,1242.0,3210.0,30.0,
9500,1850.3,24.3,212.4,97.7,1242.0,3210.0,30.0,
9600,1861.7,19.3,212.4,97.7,1242.0,3210.0,30.0,
9700,1862.3,19.5,212.4,97.7,1242.0,3210.0,30.0,
9900,1860.0,20.4,207.2,119.1,1242.0,3210.0,30.0,
10000,1858.2,24.5,199.1,119.1,1242.0,3210.0,30.0,
10100,1861.2,21.1,182.5,119.1,1242.0,3210.0,30.0,
10200,1859.3,21.0,162.6,119.1,1242.0,3210.0,30.0,
10300,1859.8,21.0,131.4,119.1,1242.0,3210.0,30.0,
10400,1859.9,33.3,58.9,119.1,1242.0,3210.0,30.0,
10500,1867.8,109.4,44.7,119.1,1242.0,3210.0,30.0,
10600,1864.7,145.3,70.4,128.9,1242.0,3210.0,30.0,
10700,1873.0,160.9,100.6,119.1,1242.0,3210.0,30.0,
10900,1858.6,233.6,180.6,97.7,1264.0,3370.0,30.0,
11000,1871.7,265.3,210.5,95.7,1132.0,3668.0,30.0,
11100,1866.1,33.1,220.1,95.7,623.0,2507.0,23.0,
11200,1859.8,22.4,220.0,95.7,623.0,2507.0,23.0,
11300,1858.3,23.1,220.0,95.7,623.0,2507.0,23.0,
11400,1864.8,20.7,220.1,95.7,623.0,2507.0,23.0,
11500,1862.3,20.3,217.1,119.1,623.0,2507.0,23.0,
11600,1860.2,20.7,210.2,121.1,623.0,2507.0,23.0,
11700,1860.9,23.4,197.7,121.1,623.0,2507.0,23.0,
11900,1857.7,20.0,128.7,119.1,623.0,2507.0,23.0,
12000,1859.3,22.1,69.5,121.1,623.0,2507.0,23.0,
12100,1874.4,71.1,40.1,121.1,623.0,2507.0,23.0,
12200,1853.1,129.7,72.5,119.1,623.0,2507.0,23.0,
12300,1867.2,228.2,109.9,97.7,623.0,2507.0,23.0,
12400,1864.1,217.8,147.3,97.7,974.0,3028.0,30.0,
12500,1866.2,188.0,180.0,97.7,974.0,3028.0,30.0,
12600,1853.1,157.4,216.4,97.7,887.0,2870.0,30.0,
12700,1863.0,36.6,224.5,97.7,887.0,2870.0,30.0,
12900,1859.4,20.9,224.4,97.7,887.0,2870.0,30.0,
13000,1859.4,21.4,224.4,97.7,887.0,2870.0,30.0,
13100,1857.5,20.6,222.5,119.1,887.0,2870.0,30.0,
13200,1859.7,21.2,214.1,121.1,887.0,2870.0,30.0,
13300,1859.9,25.3,197.5,121.1,887.0,2870.0,30.0,
13400,1858.2,21.6,171.5,121.1,887.0,2870.0,30.0,
13500,1861.4,22.3,136.8,121.1,887.0,2870.0,30.0,
13600,1860.3,19.6,65.3,119.1,887.0,2870.0,30.0,
13700,1855.9,105.9,42.3,119.1,887.0,2870.0,30.0,
13900,1852.9,145.9,107.4,119.1,887.0,2870.0,30.0,
14000,1829.6,217.8,142.2,97.7,887.0,2870.0,30.0,
14100,1853.0,241.4,174.4,97.7,887.0,2870.0,30.0,
14200,1852.6,229.3,204.8,97.7,1557.0,3876.0,30.0,
14300,1859.1,43.4,221.7,97.7,1557.0,3876.0,30.0,
14400,1860.5,22.3,221.7,97.7,1557.0,3876.0,30.0,
14500,1860.5,19.0,221.6,97.7,1557.0,3876.0,30.0,
14600,1859.7,22.5,221.6,97.7,1557.0,3876.0,30.0,
14700,1860.6,21.1,219.2,119.1,1557.0,3876.0,30.0,
14900,1858.4,21.7,195.8,119.1,1557.0,3876.0,30.0,
15000,1862.6,22.6,172.1,119.1,1557.0,3876.0,30.0,
15100,1860.4,20.0,139.5,119.1,1557.0,3876.0,30.0,
15200,1859.8,19.4,89.1,119.1,1557.0,3876.0,30.0,
15300,1858.1,61.7,37.7,119.1,1557.0,3876.0,30.0,
15400,1868.2,136.3,61.1,121.1,1557.0,3876.0,30.0,
15500,1863.7,128.4,81.1,121.1,1557.0,3876.0,30.0,
15600,1869.4,116.4,97.7,97.7,1557.0,3876.0,30.0,
15700,1865.8,97.3,114.6,97.7,1557.0,3876.0,30.0,
15900,1866.3,43.6,133.8,97.7,1557.0,3876.0,30.0,
16000,1858.2,21.9,133.8,97.7,1557.0,3876.0,30.0,
16100,1859.1,21.1,133.8,95.7,1557.0,3876.0,30.0,
16200,1861.8,21.4,133.8,95.7,1557.0,3876.0,30.0,
16300,1861.4,20.6,131.2,119.1,1557.0,3876.0,30.0,
16400,1858.9,20.0,122.1,119.1,1557.0,3876.0,30.0,
16500,1857.6,21.6,109.8,121.1,1557.0,3876.0,30.0,
16600,1858.3,17.8,95.3,121.1,1557.0,3876.0,30.0,
16700,1858.8,24.5,74.2,119.1,1557.0,3876.0,30.0,
16900,1865.8,78.2,36.8,119.1,1557.0,3876.0,30.0,
17000,1873.2,89.0,58.7,121.1,1557.0,3876.0,30.0,
17100,1852.0,104.7,78.6,128.9,1557.0,3876.0,30.0,
17200,1868.7,143.7,95.4,127.0,1557.0,3876.0,30.0,
17300,1865.9,132.1,109.4,97.7,1557.0,3876.0,30.0,
17400,1874.1,138.5,125.9,97.7,1557.0,3876.0,30.0,
17500,1854.6,62.0,145.5,97.7,1557.0,3876.0,30.0,
17600,1859.5,28.6,145.5,95.7,1557.0,3876.0,30.0,
17700,1860.4,25.3,145.5,95.7,1557.0,3876.0,30.0,
17900,1861.4,24.9,143.4,105.5,1557.0,3876.0,30.0,
18000,1860.1,21.1,135.9,119.1,1557.0,3876.0,30.0,
18100,1858.6,22.4,125.5,121.1,1557.0,3876.0,30.0,
18200,1860.5,22.4,113.4,121.1,1557.0,3876.0,30.0,
18300,1862.0,23.4,100.1,121.1,1557.0,3876.0,30.0,
18400,1857.9,20.3,78.5,121.1,1557.0,3876.0,30.0,
18500,1860.7,105.9,38.8,119.1,1557.0,3876.0,30.0,
18600,1862.4,133.4,61.1,119.1,1557.0,3876.0,30.0,
18700,1863.2,131.8,88.9,97.7,1557.0,3876.0,30.0,
18900,1849.3,225.1,145.1,95.7,1557.0,3876.0,30.0,
19000,1859.2,227.9,179.1,95.7,1423.0,3880.0,30.0,
19100,1852.3,99.7,207.9,97.7,1518.0,4012.0,30.0,
19200,1859.7,23.8,207.8,97.7,1518.0,4012.0,30.0,
19300,1862.3,20.2,207.7,97.7,1518.0,4012.0,30.0,
19400,1861.9,24.0,207.7,97.7,1518.0,4012.0,30.0,
19500,1860.2,23.7,206.2,99.6,1518.0,4012.0,30.0,
19600,1859.2,23.5,200.7,119.1,1518.0,4012.0,30.0,
19700,1859.5,22.4,190.0,119.1,1518.0,4012.0,30.0,
19900,1860.7,25.1,151.4,119.1,1518.0,4012.0,30.0,
20000,1856.5,28.2,109.4,119.1,1518.0,4012.0,30.0,
20100,1864.6,50.1,31.0,119.1,1518.0,4012.0,30.0,
20200,1844.3,104.6,59.2,119.1,1518.0,4012.0,30.0,
20300,1846.6,196.4,89.8,99.6,1518.0,4012.0,30.0,
20400,1845.5,179.2,117.4,97.7,1518.0,4012.0,30.0,
20500,1848.3,174.2,145.2,97.7,1518.0,4012.0,30.0,
20600,1836.0,159.9,179.4,97.7,1518.0,4012.0,30.0,
20700,1847.5,127.1,203.2,97.7,1518.0,4012.0,30.0,
20900,1860.8,21.6,203.2,97.7,1518.0,4012.0,30.0,
21000,1858.9,24.5,203.1,97.7,1518.0,4012.0,30.0,
21100,1861.7,23.7,202.8,97.7,1518.0,4012.0,30.0,
21200,1858.6,26.2,196.5,119.1,1518.0,4012.0,30.0,
21300,1859.0,22.5,184.6,119.1,1518.0,4012.0,30.0,
21400,1857.0,21.9,168.4,119.1,1518.0,4012.0,30.0,
21500,1857.5,23.0,145.0,119.1,1518.0,4012.0,30.0,
21600,1858.4,22.9,99.4,119.1,1518.0,4012.0,30.0,
21700,1860.6,46.0,28.4,119.1,1518.0,4012.0,30.0,
21900,1870.1,159.2,102.4,119.1,1518.0,4012.0,30.0,
22000,1848.7,239.9,148.4,95.7,1518.0,4012.0,30.0,
22100,1871.5,257.5,182.8,95.7,1102.0,3869.0,30.0,
22200,1865.3,212.1,210.0,95.7,1130.0,3387.0,30.0,
22300,1891.1,192.8,237.9,95.7,1177.0,3846.0,30.0,
22400,1835.4,31.1,241.6,95.7,1177.0,3846.0,30.0,
22500,1860.3,21.4,241.5,95.7,1177.0,3846.0,30.0,
22600,1860.4,20.7,241.6,95.7,1177.0,3846.0,30.0,
22700,1859.1,20.3,241.5,93.8,1177.0,3846.0,30.0,
22900,1861.8,24.3,220.6,119.1,1177.0,3846.0,30.0,
23000,1860.3,22.8,192.7,119.1,1177.0,3846.0,30.0,
23100,1859.7,19.2,160.4,119.1,1177.0,3846.0,30.0,
23200,1863.1,22.9,122.7,119.1,1177.0,3846.0,30.0,
23300,1860.5,29.8,50.3,119.1,1177.0,3846.0,30.0,
23400,1868.5,125.1,43.4,121.1,1177.0,3846.0,30.0,
23500,1864.7,183.3,75.9,119.1,1177.0,3846.0,30.0,
23600,1870.3,201.7,129.2,97.7,1177.0,3846.0,30.0,
23700,1852.6,179.0,183.0,95.7,900.0,3396.0,30.0,
23900,1865.7,251.2,240.0,97.7,813.0,3786.0,30.0,
24000,1859.7,31.1,247.7,95.7,813.0,3786.0,30.0,
24100,1861.0,28.4,247.9,95.7,813.0,3786.0,30.0,
24200,1861.2,24.6,247.9,95.7,813.0,3786.0,30.0,
24300,1861.9,28.6,248.1,95.7,813.0,3786.0,30.0,
24400,1858.4,23.1,245.8,119.1,813.0,3786.0,30.0,
24500,1863.3,25.7,238.0,119.1,813.0,3786.0,30.0,
24600,1861.3,24.1,213.8,119.1,813.0,3786.0,30.0,
24700,1859.1,24.8,170.1,119.1,813.0,3786.0,30.0,
24900,1859.1,22.2,69.5,119.1,813.0,3786.0,30.0,
25000,1856.8,103.4,53.3,119.1,813.0,3786.0,30.0,
25100,1831.8,123.8,80.7,121.1,813.0,3786.0,30.0,
25200,1849.4,155.9,100.8,99.6,813.0,3786.0,30.0,
25300,1852.4,130.2,115.0,97.7,813.0,3786.0,30.0,
25400,1853.3,120.7,129.4,97.7,813.0,3786.0,30.0,
25500,1848.7,107.5,142.6,97.7,813.0,3786.0,30.0,
25600,1867.7,30.8,145.6,95.7,813.0,3786.0,30.0,
25700,1859.8,22.0,145.6,95.7,813.0,3786.0,30.0,
25900,1859.8,19.7,145.6,95.7,813.0,3786.0,30.0,
26000,1859.4,23.9,139.2,119.1,813.0,3786.0,30.0,
26100,1858.4,21.1,125.1,119.1,813.0,3786.0,30.0,
26200,1860.6,20.3,109.3,121.1,813.0,3786.0,30.0,
26300,1861.4,19.1,94.0,121.1,813.0,3786.0,30.0,
26400,1860.2,22.2,72.8,121.1,813.0,3786.0,30.0,
26500,1858.7,24.4,40.6,119.1,813.0,3786.0,30.0,
26600,1861.8,84.4,37.3,119.1,813.0,3786.0,30.0,
26700,1869.0,130.7,62.7,123.0,813.0,3786.0,30.0,
26900,1857.2,254.6,157.1,97.7,1091.0,3357.0,30.0,
27000,1868.9,251.7,190.4,97.7,1265.0,3647.0,30.0,
27100,1867.3,216.0,217.2,97.7,1125.0,3506.0,30.0,
27200,1863.2,44.4,232.7,97.7,600.0,2250.0,15.0,
27300,1860.9,22.4,232.7,97.7,600.0,2250.0,15.0,
27400,1857.4,20.4,232.7,95.7,600.0,2250.0,15.0,
27500,1863.6,20.2,232.7,95.7,600.0,2250.0,15.0,
27600,1859.4,20.2,231.4,119.1,600.0,2250.0,15.0,
27700,1857.2,24.5,225.8,119.1,600.0,2250.0,15.0,
27900,1859.0,24.0,173.8,119.1,600.0,2250.0,15.0,
28000,1861.1,22.7,136.5,119.1,600.0,2250.0,15.0,
28100,1856.4,22.8,88.0,119.1,600.0,2250.0,15.0,
28200,1858.9,103.1,46.1,119.1,600.0,2250.0,15.0,
28300,1866.2,246.4,91.1,101.6,600.0,2250.0,15.0,
28400,1863.7,210.0,138.3,97.7,600.0,2250.0,15.0,
28500,1874.9,184.1,174.0,97.7,600.0,2250.0,15.0,
28600,1843.6,167.3,205.4,97.7,770.0,3293.0,30.0,
28700,1859.9,239.8,227.2,97.7,770.0,3293.0,30.0,
28900,1857.3,24.4,241.5,95.7,770.0,3293.0,30.0,
29000,1859.9,26.7,241.5,95.7,770.0,3293.0,30.0,
29100,1861.1,24.3,241.5,91.8,770.0,3293.0,30.0,
29200,1860.6,20.2,238.7,97.7,770.0,3293.0,30.0,
29300,1860.5,20.0,225.4,119.1,770.0,3293.0,30.0,
29400,1861.1,25.8,199.9,119.1,770.0,3293.0,30.0,
29500,1859.1,20.5,169.8,119.1,770.0,3293.0,30.0,
29600,1859.3,21.8,130.1,119.1,770.0,3293.0,30.0,
29700,1859.0,20.3,86.4,119.1,770.0,3293.0,30.0,
29900,1853.2,143.3,72.4,119.1,770.0,3293.0,30.0,
30000,1829.3,244.8,122.1,97.7,770.0,3293.0,30.0,
30100,1845.2,252.9,163.7,97.7,1383.0,3934.0,30.0,
30200,1846.4,218.9,194.2,97.7,1371.0,4038.0,30.0,
30300,1863.7,184.7,223.9,97.7,1273.0,3769.0,30.0,
30400,1833.5,73.5,241.2,97.7,1239.0,4150.0,30.0,
30500,1857.8,25.3,241.2,97.7,1239.0,4150.0,30.0,
30600,1859.8,20.0,241.2,97.7,1239.0,4150.0,30.0,
30700,1860.5,24.7,241.2,95.7,1239.0,4150.0,30.0,
30900,1859.6,20.2,231.8,119.1,1239.0,4150.0,30.0,
31000,1860.9,22.0,209.9,119.1,1239.0,4150.0,30.0,
31100,1859.2,19.9,179.2,119.1,1239.0,4150.0,30.0,
31200,1861.7,24.9,145.6,121.1,1239.0,4150.0,30.0,
31300,1857.3,20.0,93.6,121.1,1239.0,4150.0,30.0,
31400,1860.3,93.3,33.2,119.1,1239.0,4150.0,30.0,
31500,1864.0,153.9,60.2,119.1,1239.0,4150.0,30.0,
31600,1870.5,173.9,102.9,97.7,1239.0,4150.0,30.0,
31700,1853.4,169.7,150.6,95.7,1239.0,4150.0,30.0,
31900,1871.1,235.1,211.1,95.7,1175.0,3813.0,30.0,
32000,1865.1,90.8,232.7,95.7,605.0,2519.0,13.0,
32100,1858.1,22.2,232.7,95.7,605.0,2519.0,13.0,
32200,1861.8,23.1,232.7,95.7,605.0,2519.0,13.0,
32300,1861.8,21.5,232.7,95.7,605.0,2519.0,13.0,
32400,1863.0,23.1,231.9,95.7,605.0,2519.0,13.0,
32500,1854.5,23.8,226.4,119.1,605.0,2519.0,13.0,
32600,1861.7,25.7,210.4,119.1,605.0,2519.0,13.0,
32700,1856.7,24.0,179.4,119.1,605.0,2519.0,13.0,
32900,1858.5,20.4,101.4,119.1,605.0,2519.0,13.0,
33000,1867.6,60.0,29.3,119.1,605.0,2519.0,13.0,
33100,1855.0,113.5,57.3,119.1,605.0,2519.0,13.0,
33200,1867.6,199.7,88.2,97.7,605.0,2519.0,13.0,
33300,1865.5,192.0,122.0,95.7,605.0,2519.0,13.0,
33400,1886.6,188.9,165.8,95.7,605.0,2519.0,13.0,
33500,1831.0,193.1,197.1,95.7,823.0,3630.0,30.0,
33600,1862.2,124.0,219.0,95.7,823.0,3630.0,30.0,
33700,1865.4,29.0,219.0,95.7,823.0,3630.0,30.0,
33900,1863.9,20.2,219.1,95.7,823.0,3630.0,30.0,
34000,1859.2,21.2,218.8,97.7,823.0,3630.0,30.0,
34100,1861.3,24.2,213.2,119.1,823.0,3630.0,30.0,
34200,1860.3,19.8,202.4,119.1,823.0,3630.0,30.0,
34300,1858.2,24.3,184.0,119.1,823.0,3630.0,30.0,
34400,1860.4,22.3,145.8,119.1,823.0,3630.0,30.0,
34500,1861.0,23.5,99.6,119.1,823.0,3630.0,30.0,
34600,1858.7,74.4,28.5,119.1,823.0,3630.0,30.0,
34700,1854.1,150.3,66.5,119.1,823.0,3630.0,30.0,
34900,1836.5,252.0,164.2,95.7,823.0,3630.0,30.0,
35000,1848.2,253.3,197.0,95.7,1625.0,4846.0,30.0,
35100,1845.5,207.4,222.4,95.7,1625.0,4846.0,30.0,
35200,1867.7,189.7,248.7,95.7,1625.0,4846.0,30.0,
35300,1838.6,28.0,251.7,95.7,1625.0,4846.0,30.0,
35400,1862.1,23.7,251.7,95.7,1625.0,4846.0,30.0,
35500,1861.6,27.3,251.7,93.8,1625.0,4846.0,30.0,
35600,1859.1,21.0,251.7,91.8,1625.0,4846.0,30.0,
35700,1858.7,24.2,244.4,119.1,1625.0,4846.0,30.0,
35900,1860.6,22.9,192.8,119.1,1625.0,4846.0,30.0,
36000,1861.3,21.0,159.2,119.1,1625.0,4846.0,30.0,
36100,1859.4,23.6,121.1,119.1,1625.0,4846.0,30.0,
36200,1859.3,41.4,47.7,119.1,1625.0,4846.0,30.0,
36300,1860.0,152.2,53.9,119.1,1625.0,4846.0,30.0,
36400,1863.9,180.9,91.6,97.7,1625.0,4846.0,30.0,
36500,1879.8,187.9,133.6,95.7,1625.0,4846.0,30.0,
36600,1842.6,185.0,172.9,95.7,1169.0,4032.0,30.0,
36700,1863.1,249.9,197.7,95.7,1202.0,3571.0,30.0,
36900,1864.8,32.7,227.8,95.7,1202.0,3571.0,30.0,
37000,1864.8,20.7,227.8,76.2,1202.0,3571.0,30.0,
37100,1858.1,20.6,227.8,72.3,1202.0,3571.0,30.0,
37200,1859.6,23.0,227.8,87.9,1202.0,3571.0,30.0,
37300,1861.5,21.7,223.1,119.1,1202.0,3571.0,30.0,
37400,1859.9,25.3,210.5,119.1,1202.0,3571.0,30.0,
37500,1857.8,19.7,186.7,119.1,1202.0,3571.0,30.0,
37600,1862.0,26.3,150.9,119.1,1202.0,3571.0,30.0,
37700,1862.5,24.4,116.6,119.1,1202.0,3571.0,30.0,
37900,1872.9,94.5,50.1,119.1,1202.0,3571.0,30.0,
38000,1848.8,224.4,95.4,97.7,1202.0,3571.0,30.0,
38100,1870.1,259.9,143.7,95.7,1202.0,3571.0,30.0,
38200,1866.8,215.0,176.5,95.7,891.0,3887.0,30.0,
38300,1881.1,186.8,206.7,95.7,891.0,3887.0,30.0,
38400,1832.3,216.7,231.6,95.7,891.0,3887.0,30.0,
38500,1869.9,34.8,238.6,95.7,891.0,3887.0,30.0,
38600,1860.2,24.6,238.6,66.4,891.0,3887.0,30.0,
38700,1862.7,20.4,238.6,70.3,891.0,3887.0,30.0,
38900,1857.9,24.9,234.9,119.1,891.0,3887.0,30.0,
39000,1862.7,20.8,220.4,119.1,891.0,3887.0,30.0,
39100,1861.4,21.4,192.4,119.1,891.0,3887.0,30.0,
39200,1858.6,22.6,162.8,119.1,891.0,3887.0,30.0,
39300,1860.1,22.8,122.2,121.1,891.0,3887.0,30.0,
39400,1859.0,23.8,63.4,121.1,891.0,3887.0,30.0,
39500,1860.4,109.0,37.4,119.1,891.0,3887.0,30.0,
39600,1860.9,175.9,84.7,97.7,891.0,3887.0,30.0,
39700,1840.0,178.0,140.1,95.7,891.0,3887.0,30.0,
39900,1851.1,234.2,197.0,95.7,891.0,3887.0,30.0,
40000,1840.3,199.9,220.3,97.7,891.0,3887.0,30.0,
40100,1854.9,44.0,234.1,97.7,891.0,3887.0,30.0,
40200,1860.1,23.3,234.1,97.7,891.0,3887.0,30.0,
40300,1860.2,23.5,234.1,97.7,891.0,3887.0,30.0,
40400,1857.5,21.8,234.1,97.7,891.0,3887.0,30.0,
40500,1863.0,21.2,232.7,119.1,891.0,3887.0,30.0,
40600,1860.3,23.0,219.9,119.1,891.0,3887.0,30.0,
40700,1859.4,22.1,189.5,121.1,891.0,3887.0,30.0,
40900,1860.5,23.9,129.4,121.1,891.0,3887.0,30.0,
41000,1861.6,26.5,83.7,119.1,891.0,3887.0,30.0,
41100,1850.9,92.5,41.0,119.1,891.0,3887.0,30.0,
41200,1847.8,232.4,81.0,121.1,891.0,3887.0,30.0,
41300,1852.5,226.3,131.6,97.7,891.0,3887.0,30.0,
41400,1873.3,192.9,172.5,97.7,1216.0,3901.0,30.0,
41500,1826.7,212.9,203.1,97.7,1170.0,3995.0,30.0,
41600,1864.5,256.6,225.8,97.7,1158.0,3778.0,30.0,
41700,1866.9,52.6,239.3,95.7,1182.0,3907.0,30.0,
41900,1860.4,23.8,239.4,95.7,1182.0,3907.0,30.0,
42000,1861.3,23.3,239.4,93.8,1182.0,3907.0,30.0,
42100,1859.9,26.2,237.4,119.1,1182.0,3907.0,30.0,
42200,1858.5,21.1,226.9,119.1,1182.0,3907.0,30.0,
42300,1861.2,22.7,201.8,119.1,1182.0,3907.0,30.0,
42400,1860.2,23.5,168.2,119.1,1182.0,3907.0,30.0,
42500,1860.7,18.4,129.6,119.1,1182.0,3907.0,30.0,
42600,1858.5,25.9,84.0,119.1,1182.0,3907.0,30.0,
42700,1868.5,79.9,36.5,121.1,1182.0,3907.0,30.0,
42900,1858.1,155.8,84.7,99.6,1182.0,3907.0,30.0,
43000,1869.5,177.8,109.1,97.7,1182.0,3907.0,30.0,
43100,1869.1,178.6,133.4,95.7,1182.0,3907.0,30.0,
43200,1880.7,185.9,173.1,66.4,1073.0,4012.0,30.0,
43300,1850.9,71.9,194.0,66.4,861.0,3698.0,30.0,
43400,1859.8,23.1,194.0,95.7,861.0,3698.0,30.0,
43500,1864.1,26.5,194.0,95.7,861.0,3698.0,30.0,
43600,1865.1,25.1,194.0,95.7,861.0,3698.0,30.0,
43700,1860.6,25.5,192.6,119.1,861.0,3698.0,30.0,
43900,1859.1,24.4,176.8,121.1,861.0,3698.0,30.0,
44000,1857.6,25.5,162.9,121.1,861.0,3698.0,30.0,
44100,1858.6,22.9,143.6,121.1,861.0,3698.0,30.0,
44200,1861.7,30.0,92.1,119.1,861.0,3698.0,30.0,
44300,1859.2,97.5,38.6,119.1,861.0,3698.0,30.0,
44400,1864.8,110.9,55.9,119.1,861.0,3698.0,30.0,
44500,1877.3,153.6,90.0,107.4,861.0,3698.0,30.0,
44600,1840.9,180.5,131.8,97.7,861.0,3698.0,30.0,
44700,1864.3,241.9,162.3,95.7,861.0,3698.0,30.0,
44900,1858.5,81.4,205.8,95.7,861.0,3698.0,30.0,
45000,1858.8,25.9,205.7,95.7,861.0,3698.0,30.0,
45100,1862.7,26.3,205.7,95.7,861.0,3698.0,30.0,
45200,1861.3,25.8,205.7,95.7,861.0,3698.0,30.0,
45300,1857.0,21.7,204.1,99.6,861.0,3698.0,30.0,
45400,1862.0,25.6,200.1,119.1,861.0,3698.0,30.0,
45500,1857.6,22.7,187.3,119.1,861.0,3698.0,30.0,
45600,1860.0,21.0,160.7,119.1,861.0,3698.0,30.0,
45700,1858.9,25.9,129.7,119.1,861.0,3698.0,30.0,
45900,1858.2,54.2,32.3,119.1,861.0,3698.0,30.0,
46000,1842.9,181.4,64.0,119.1,861.0,3698.0,30.0,
46100,1852.8,251.4,118.8,97.7,1254.0,4264.0,30.0,
46200,1841.0,211.7,157.5,97.7,1166.0,3882.0,30.0,
46300,1864.3,185.4,191.7,97.7,1166.0,3882.0,30.0,
46400,1826.5,207.5,216.7,97.7,1214.0,4497.0,30.0,
46500,1861.1,119.4,236.1,95.7,1214.0,4497.0,30.0,
46600,1865.8,24.9,236.2,95.7,1214.0,4497.0,30.0,
46700,1859.8,23.6,236.1,95.7,1214.0,4497.0,30.0,
46900,1862.7,24.3,235.7,95.7,1214.0,4497.0,30.0,
47000,1857.2,19.8,229.1,119.1,1214.0,4497.0,30.0,
47100,1860.1,21.3,206.1,119.1,1214.0,4497.0,30.0,
47200,1861.1,23.1,178.2,119.1,1214.0,4497.0,30.0,
47300,1860.5,20.8,140.8,119.1,1214.0,4497.0,30.0,
47400,1858.2,19.7,97.9,119.1,1214.0,4497.0,30.0,
47500,1859.0,81.5,28.3,119.1,1214.0,4497.0,30.0,
47600,1871.3,160.3,77.3,119.1,1214.0,4497.0,30.0,
47700,1842.9,183.6,132.3,95.7,1214.0,4497.0,30.0,
47900,1867.3,241.3,194.4,95.7,1159.0,4175.0,30.0,
48000,1868.0,215.3,219.4,91.8,1192.0,4152.0,30.0,
48100,1870.6,184.6,247.5,66.4,1249.0,4401.0,30.0,
48200,1849.8,29.2,249.4,66.4,670.0,3386.0,15.0,
48300,1863.4,21.7,249.4,66.4,670.0,3386.0,15.0,
48400,1859.3,24.1,249.5,66.4,670.0,3386.0,15.0,
48500,1859.6,21.8,249.5,70.3,670.0,3386.0,15.0,
48600,1859.4,22.8,238.8,119.1,670.0,3386.0,15.0,
48700,1860.7,21.1,213.3,119.1,670.0,3386.0,15.0,
48900,1857.3,21.8,158.7,119.1,670.0,3386.0,15.0,
49000,1858.9,21.9,122.0,119.1,670.0,3386.0,15.0,
49100,1860.5,43.2,41.9,119.1,670.0,3386.0,15.0,
49200,1867.6,121.6,49.1,119.1,670.0,3386.0,15.0,
49300,1865.3,186.9,81.1,99.6,670.0,3386.0,15.0,
49400,1892.7,184.1,133.4,97.7,670.0,3386.0,15.0,
49500,1834.6,210.8,167.3,95.7,670.0,3386.0,15.0,
49600,1867.0,254.1,191.9,95.7,670.0,3386.0,15.0,
49700,1868.3,219.2,214.1,95.7,670.0,3386.0,15.0,
49900,1861.7,22.1,220.7,66.4,670.0,3386.0,15.0,
50000,1860.5,20.9,220.7,68.4,670.0,3386.0,15.0,
50100,1862.7,22.3,220.7,80.1,670.0,3386.0,15.0,
50200,1860.0,23.6,217.0,119.1,670.0,3386.0,15.0,
50300,1860.1,19.0,207.1,119.1,670.0,3386.0,15.0,
50400,1859.9,22.3,178.0,119.1,670.0,3386.0,15.0,
50500,1861.1,26.7,146.6,121.1,670.0,3386.0,15.0,
50600,1860.3,24.1,112.5,119.1,670.0,3386.0,15.0,
50700,1864.5,24.8,60.8,119.1,670.0,3386.0,15.0,
50900,1857.3,236.1,94.8,95.7,670.0,3386.0,15.0,
51000,1862.3,234.6,139.5,95.7,670.0,3386.0,15.0,
51100,1858.2,198.8,169.6,95.7,1258.0,3608.0,30.0,
51200,1859.8,182.6,200.2,95.7,1258.0,3608.0,30.0,
51300,1833.1,223.2,222.2,95.7,1258.0,3608.0,30.0,
51400,1864.1,32.0,229.3,95.7,1258.0,3608.0,30.0,
51500,1858.9,21.7,229.2,95.7,1258.0,3608.0,30.0,
51600,1858.9,20.2,229.2,95.7,1258.0,3608.0,30.0,
51700,1859.6,19.4,229.1,95.7,1258.0,3608.0,30.0,
51900,1858.1,21.1,210.5,119.1,1258.0,3608.0,30.0,
52000,1859.3,23.3,183.9,119.1,1258.0,3608.0,30.0,
52100,1859.4,23.3,156.6,119.1,1258.0,3608.0,30.0,
52200,1860.3,23.2,114.9,119.1,1258.0,3608.0,30.0,
52300,1861.0,22.9,62.9,119.1,1258.0,3608.0,30.0,
52400,1855.0,80.3,38.6,121.1,1258.0,3608.0,30.0,
52500,1867.5,153.1,77.2,162.1,1258.0,3608.0,30.0,
52600,1830.5,198.0,130.5,99.6,1258.0,3608.0,30.0,
52700,1862.5,258.8,162.0,97.7,1258.0,3608.0,30.0,
52900,1868.7,188.0,209.6,95.7,1258.0,3608.0,30.0,
53000,1861.8,46.5,223.3,95.7,1258.0,3608.0,30.0,
53100,1860.9,23.3,223.3,95.7,1258.0,3608.0,30.0,
53200,1863.4,23.2,223.3,93.8,1258.0,3608.0,30.0,
53300,1862.1,22.6,223.3,80.1,1258.0,3608.0,30.0,
53400,1859.4,23.3,221.6,119.1,1258.0,3608.0,30.0,
53500,1860.3,19.8,211.3,119.1,1258.0,3608.0,30.0,
53600,1859.8,20.6,183.2,119.1,1258.0,3608.0,30.0,
53700,1860.2,21.5,156.0,119.1,1258.0,3608.0,30.0,
53900,1860.4,21.0,81.6,119.1,1258.0,3608.0,30.0,
54000,1860.9,118.5,41.1,121.1,1258.0,3608.0,30.0,
54100,1864.9,211.7,83.2,99.6,1258.0,3608.0,30.0,
54200,1869.3,205.9,128.5,68.4,1258.0,3608.0,30.0,
54300,1878.0,176.9,166.8,95.7,1258.0,3608.0,30.0,
54400,1843.3,209.6,191.4,95.7,1258.0,3608.0,30.0,
54500,1871.2,238.0,211.9,95.7,1258.0,3608.0,30.0,
54600,1867.0,52.2,224.3,95.7,1258.0,3608.0,30.0,
54700,1860.5,22.4,224.3,95.7,1258.0,3608.0,30.0,
54900,1864.3,26.0,224.3,82.0,1258.0,3608.0,30.0,
55000,1860.0,21.8,222.3,119.1,1258.0,3608.0,30.0,
55100,1862.4,21.0,210.2,119.1,1258.0,3608.0,30.0,
55200,1862.5,22.3,185.9,119.1,1258.0,3608.0,30.0,
55300,1860.6,24.6,152.5,121.1,1258.0,3608.0,30.0,
55400,1860.4,19.7,120.2,121.1,1258.0,3608.0,30.0,
55500,1860.5,20.6,78.6,119.1,1258.0,3608.0,30.0,
55600,1868.9,68.0,32.4,119.1,1258.0,3608.0,30.0,
55700,1848.1,155.8,84.2,97.7,1258.0,3608.0,30.0,
55900,1858.2,228.9,159.7,95.7,1258.0,3608.0,30.0,
56000,1842.9,202.0,186.7,95.7,1258.0,3608.0,30.0,
56100,1853.2,197.6,216.1,97.7,1258.0,3608.0,30.0,
56200,1842.8,67.2,230.5,97.7,1258.0,3608.0,30.0,
56300,1860.7,24.5,230.5,97.7,1258.0,3608.0,30.0,
56400,1860.7,20.2,230.6,97.7,1258.0,3608.0,30.0,
56500,1858.6,20.2,230.6,97.7,1258.0,3608.0,30.0,
56600,1857.4,23.5,230.0,119.1,1258.0,3608.0,30.0,
56700,1860.0,19.7,216.5,119.1,1258.0,3608.0,30.0,
56900,1859.6,21.5,168.7,119.1,1258.0,3608.0,30.0,
57000,1858.6,22.0,138.2,119.1,1258.0,3608.0,30.0,
57100,1859.5,22.1,85.1,119.1,1258.0,3608.0,30.0,
57200,1859.4,81.9,34.3,119.1,1258.0,3608.0,30.0,
57300,1851.0,126.5,56.3,121.1,1258.0,3608.0,30.0,
57400,1878.8,171.7,102.4,97.7,1258.0,3608.0,30.0,
57500,1831.9,216.9,146.9,95.7,1258.0,3608.0,30.0,
57600,1867.9,251.8,174.8,95.7,1258.0,3608.0,30.0,
57700,1868.0,220.8,198.1,95.7,1258.0,3608.0,30.0,
57900,1858.7,28.0,218.8,95.7,1258.0,3608.0,30.0,
58000,1863.0,24.2,218.8,93.8,1258.0,3608.0,30.0,
58100,1861.7,19.6,218.9,82.0,1258.0,3608.0,30.0,
58200,1859.7,20.7,218.0,95.7,1258.0,3608.0,30.0,
58300,1861.3,22.6,213.4,119.1,1258.0,3608.0,30.0,
58400,1858.5,21.6,195.5,119.1,1258.0,3608.0,30.0,
58500,1860.9,20.6,164.7,119.1,1258.0,3608.0,30.0,
58600,1859.3,20.2,134.7,119.1,1258.0,3608.0,30.0,
58700,1862.1,22.7,97.2,119.1,1258.0,3608.0,30.0,
58900,1865.0,144.5,55.0,119.1,1258.0,3608.0,30.0,
59000,1867.3,190.9,85.4,97.7,1258.0,3608.0,30.0,
59100,1866.8,213.1,126.4,66.4,1258.0,3608.0,30.0,
59200,1866.0,176.3,167.3,66.4,1258.0,3608.0,30.0,
59300,1838.8,213.8,193.0,95.7,1258.0,3608.0,30.0,
59400,1865.3,124.6,215.4,95.7,1258.0,3608.0,30.0,
59500,1862.6,27.2,215.5,95.7,1258.0,3608.0,30.0,
59600,1859.5,24.3,215.5,93.8,1258.0,3608.0,30.0,
59700,1864.8,22.3,215.5,76.2,1258.0,3608.0,30.0,
59900,1862.3,21.0,210.4,119.1,1258.0,3608.0,30.0,
60000,1858.8,22.2,199.9,119.1,1258.0,3608.0,30.0,
60100,1859.9,23.1,176.9,121.1,1258.0,3608.0,30.0,
60200,1858.6,19.8,138.9,119.1,1258.0,3608.0,30.0,
60300,1861.7,23.4,100.1,119.1,1258.0,3608.0,30.0,
60400,1859.0,58.2,29.9,121.1,1258.0,3608.0,30.0,
60500,1854.6,110.1,58.2,119.1,1258.0,3608.0,30.0,
60600,1830.1,171.4,91.8,97.7,1258.0,3608.0,30.0,
60700,1845.6,279.1,133.5,97.7,1258.0,3608.0,30.0,
60900,1851.3,209.3,196.2,97.7,1133.0,3970.0,30.0,
61000,1851.0,167.0,223.5,97.7,1133.0,3970.0,30.0,
61100,1858.4,28.5,224.4,97.7,1133.0,3970.0,30.0,
61200,1862.0,23.2,224.4,97.7,1133.0,3970.0,30.0,
61300,1861.3,21.9,224.3,95.7,1133.0,3970.0,30.0,
61400,1860.8,20.3,224.3,97.7,1133.0,3970.0,30.0,
61500,1860.1,21.0,218.5,119.1,1133.0,3970.0,30.0,
61600,1860.8,22.7,206.7,119.1,1133.0,3970.0,30.0,
61700,1858.8,25.0,182.5,119.1,1133.0,3970.0,30.0,
61900,1860.3,20.1,112.4,119.1,1133.0,3970.0,30.0,
62000,1859.4,47.1,34.2,119.1,1133.0,3970.0,30.0,
62100,1861.7,115.6,44.7,119.1,1133.0,3970.0,30.0,
62200,1867.5,154.9,71.3,101.6,1133.0,3970.0,30.0,
62300,1878.7,157.3,110.5,87.9,1133.0,3970.0,30.0,
62400,1843.4,225.7,150.8,66.4,1133.0,3970.0,30.0,
62500,1871.0,249.9,181.1,66.4,1133.0,3970.0,30.0,
62600,1869.5,216.5,203.8,95.7,1133.0,3970.0,30.0,
62700,1862.8,30.7,210.2,95.7,1133.0,3970.0,30.0,
62900,1862.7,18.1,210.2,93.8,1133.0,3970.0,30.0,
63000,1861.2,22.5,210.2,93.8,1133.0,3970.0,30.0,
63100,1860.8,21.2,207.2,121.1,1133.0,3970.0,30.0,
63200,1860.6,25.0,199.7,119.1,1133.0,3970.0,30.0,
63300,1863.8,19.1,180.9,119.1,1133.0,3970.0,30.0,
63400,1860.2,21.9,149.1,119.1,1133.0,3970.0,30.0,
63500,1859.7,17.8,110.4,121.1,1133.0,3970.0,30.0,
63600,1861.6,24.2,58.8,119.1,1133.0,3970.0,30.0,
63700,1865.2,81.5,43.8,119.1,1133.0,3970.0,30.0,
63900,1866.9,203.0,101.0,95.7,1133.0,3970.0,30.0,
64000,1868.5,210.7,138.7,66.4,1133.0,3970.0,30.0,
64100,1868.9,177.8,176.0,66.4,1133.0,3970.0,30.0,
64200,1845.1,217.2,198.9,66.4,1133.0,3970.0,30.0,
64300,1869.2,35.6,206.2,95.7,1133.0,3970.0,30.0,
64400,1862.0,22.4,206.1,95.7,1133.0,3970.0,30.0,
64500,1862.5,21.5,206.1,91.8,1133.0,3970.0,30.0,
64600,1859.7,21.7,206.1,85.9,1133.0,3970.0,30.0,
64700,1863.2,25.5,203.4,119.1,1133.0,3970.0,30.0,
64900,1860.4,21.9,181.9,119.1,1133.0,3970.0,30.0,
65000,1861.5,23.8,155.1,119.1,1133.0,3970.0,30.0,
65100,1861.2,25.6,111.0,121.1,1133.0,3970.0,30.0,
65200,1863.6,23.3,61.2,121.1,1133.0,3970.0,30.0,
65300,1854.2,115.6,45.5,121.1,1133.0,3970.0,30.0,
65400,1859.8,130.9,77.5,97.7,1133.0,3970.0,30.0,
65500,1821.5,217.3,114.6,95.7,1133.0,3970.0,30.0,
65600,1846.3,277.8,156.4,95.7,1158.0,4491.0,30.0,
65700,1853.5,234.7,186.1,95.7,1158.0,4491.0,30.0,
65900,1850.2,40.4,224.9,97.7,1158.0,4491.0,30.0,
66000,1859.3,22.7,224.9,95.7,1158.0,4491.0,30.0,
66100,1862.2,21.6,224.9,95.7,1158.0,4491.0,30.0,
66200,1861.2,19.0,224.8,91.8,1158.0,4491.0,30.0,
66300,1858.0,24.3,222.0,119.1,1158.0,4491.0,30.0,
66400,1860.9,19.7,213.0,119.1,1158.0,4491.0,30.0,
66500,1858.0,19.1,195.5,119.1,1158.0,4491.0,30.0,
66600,1861.9,20.4,164.0,119.1,1158.0,4491.0,30.0,
66700,1860.3,22.3,129.4,119.1,1158.0,4491.0,30.0,
66900,1857.7,102.9,41.3,119.1,1158.0,4491.0,30.0,
67000,1860.9,142.7,64.8,119.1,1158.0,4491.0,30.0,
67100,1865.5,179.2,91.7,95.7,1158.0,4491.0,30.0,
67200,1870.3,180.0,135.0,95.7,1158.0,4491.0,30.0,
67300,1847.7,229.2,169.1,66.4,1158.0,4491.0,30.0,
67400,1870.5,244.4,194.4,66.4,1158.0,4491.0,30.0,
67500,1866.0,50.2,208.2,95.7,1158.0,4491.0,30.0,
67600,1861.6,24.4,208.2,95.7,1158.0,4491.0,30.0,
67700,1861.7,26.0,208.3,95.7,1158.0,4491.0,30.0,
67900,1859.1,24.7,206.1,119.1,1158.0,4491.0,30.0,
68000,1860.5,19.9,200.0,119.1,1158.0,4491.0,30.0,
68100,1862.8,22.2,189.2,121.1,1158.0,4491.0,30.0,
68200,1859.9,28.1,161.2,119.1,1158.0,4491.0,30.0,
68300,1860.3,21.4,125.2,119.1,1158.0,4491.0,30.0,
68400,1860.5,19.7,80.3,119.1,1158.0,4491.0,30.0,
68500,1867.1,51.8,34.7,119.1,1158.0,4491.0,30.0,
68600,1862.2,82.3,48.9,123.0,1158.0,4491.0,30.0,
68700,1869.1,114.1,64.7,128.9,1158.0,4491.0,30.0,
68900,1867.2,124.3,89.5,97.7,1158.0,4491.0,30.0,
69000,1869.0,114.5,105.2,97.7,1158.0,4491.0,30.0,
69100,1859.7,42.3,113.8,95.7,1158.0,4491.0,30.0,
69200,1858.8,29.4,113.7,66.4,1158.0,4491.0,30.0,
69300,1861.2,21.8,113.8,66.4,1158.0,4491.0,30.0,
69400,1860.1,19.3,113.8,66.4,1158.0,4491.0,30.0,
69500,1859.9,25.6,112.4,119.1,1158.0,4491.0,30.0,
69600,1864.1,21.4,107.1,119.1,1158.0,4491.0,30.0,
69700,1859.7,19.5,98.3,119.1,1158.0,4491.0,30.0,
69900,1858.8,21.2,76.3,119.1,1158.0,4491.0,30.0,
70000,1861.2,20.5,52.5,121.1,1158.0,4491.0,30.0,
70100,1862.0,91.5,35.0,119.1,1158.0,4491.0,30.0,
70200,1861.7,117.2,55.6,119.1,1158.0,4491.0,30.0,
70300,1863.1,117.8,76.8,97.7,1158.0,4491.0,30.0,
70400,1834.5,158.6,100.8,95.7,1158.0,4491.0,30.0,
70500,1852.1,221.8,126.4,95.7,1158.0,4491.0,30.0,
70600,1851.2,214.5,150.4,95.7,1158.0,4491.0,30.0,
70700,1844.8,86.0,177.6,95.7,1158.0,4491.0,30.0,
70900,1861.0,24.2,177.7,97.7,1158.0,4491.0,30.0,
71000,1861.7,22.7,177.7,97.7,1158.0,4491.0,30.0,
71100,1861.5,23.0,176.7,105.5,1158.0,4491.0,30.0,
71200,1859.5,21.5,171.4,119.1,1158.0,4491.0,30.0,
71300,1858.3,17.2,162.9,119.1,1158.0,4491.0,30.0,
71400,1860.9,25.9,149.3,119.1,1158.0,4491.0,30.0,
71500,1859.9,26.3,128.4,119.1,1158.0,4491.0,30.0,
71600,1859.3,22.4,99.0,119.1,1158.0,4491.0,30.0,
71700,1852.4,72.1,37.1,119.1,1158.0,4491.0,30.0,
71900,1849.7,176.0,91.2,97.7,1158.0,4491.0,30.0,
72000,1853.2,184.7,121.2,95.7,1158.0,4491.0,30.0,
72100,1867.2,173.8,160.2,95.7,1158.0,4491.0,30.0,
72200,1846.0,226.8,185.6,95.7,1158.0,4491.0,30.0,
72300,1871.3,109.5,205.5,95.7,1158.0,4491.0,30.0,
72400,1863.2,25.6,205.5,95.7,1158.0,4491.0,30.0,
72500,1859.3,21.1,205.5,95.7,1158.0,4491.0,30.0,
72600,1859.2,20.6,205.5,89.8,1158.0,4491.0,30.0,
72700,1860.3,25.1,204.3,93.8,1158.0,4491.0,30.0,
72900,1858.6,22.5,186.5,119.1,1158.0,4491.0,30.0,
73000,1857.7,20.0,168.6,119.1,1158.0,4491.0,30.0,
73100,1860.4,20.6,132.1,119.1,1158.0,4491.0,30.0,
73200,1859.0,21.1,93.1,119.1,1158.0,4491.0,30.0,
73300,1866.2,65.5,31.7,119.1,1158.0,4491.0,30.0,
73400,1875.3,94.4,58.3,119.1,1158.0,4491.0,30.0,
73500,1850.6,151.1,85.1,97.7,1158.0,4491.0,30.0,
73600,1867.6,238.8,114.9,95.7,1158.0,4491.0,30.0,
73700,1868.1,206.4,147.1,89.8,1158.0,4491.0,30.0,
73900,1854.6,141.4,198.2,95.7,1158.0,4491.0,30.0,
74000,1859.3,24.6,198.9,95.7,1158.0,4491.0,30.0,
74100,1861.6,22.7,198.8,95.7,1158.0,4491.0,30.0,
74200,1863.3,25.1,198.8,93.8,1158.0,4491.0,30.0,
74300,1859.6,23.7,198.5,95.7,1158.0,4491.0,30.0,
74400,1861.3,24.0,192.3,119.1,1158.0,4491.0,30.0,
74500,1863.0,20.8,182.0,119.1,1158.0,4491.0,30.0,
74600,1858.1,23.1,164.8,119.1,1158.0,4491.0,30.0,
74700,1860.0,19.8,136.9,119.1,1158.0,4491.0,30.0,
74900,1862.2,53.5,32.5,119.1,1158.0,4491.0,30.0,
75000,1863.5,112.6,46.0,119.1,1158.0,4491.0,30.0,
75100,1856.5,142.9,69.6,93.8,1158.0,4491.0,30.0,
75200,1862.4,140.7,98.1,66.4,1158.0,4491.0,30.0,
75300,1832.3,229.8,130.6,66.4,1158.0,4491.0,30.0,
75400,1854.9,252.6,162.0,66.4,1158.0,4491.0,30.0,
75500,1843.0,219.3,187.3,95.7,1158.0,4491.0,30.0,
75600,1856.1,33.3,195.2,97.7,1158.0,4491.0,30.0,
75700,1859.3,22.1,195.2,97.7,1158.0,4491.0,30.0,
75900,1860.6,21.8,195.2,101.6,1158.0,4491.0,30.0,
76000,1862.3,25.1,191.9,119.1,1158.0,4491.0,30.0,
76100,1859.2,22.3,184.7,119.1,1158.0,4491.0,30.0,
76200,1858.6,23.4,171.2,119.1,1158.0,4491.0,30.0,
76300,1860.8,26.5,148.1,119.1,1158.0,4491.0,30.0,
76400,1860.2,22.8,112.9,119.1,1158.0,4491.0,30.0,
76500,1857.5,24.0,62.6,119.1,1158.0,4491.0,30.0,
76600,1843.2,109.4,57.6,119.1,1158.0,4491.0,30.0,
76700,1851.1,173.1,82.6,119.1,1158.0,4491.0,30.0,
76900,1859.6,192.6,127.9,95.7,1158.0,4491.0,30.0,
77000,1855.7,168.6,165.5,66.4,1158.0,4491.0,30.0,
77100,1854.4,221.9,188.5,66.4,1158.0,4491.0,30.0,
77200,1869.8,35.1,195.3,95.7,1158.0,4491.0,30.0,
77300,1861.3,28.1,195.2,95.7,1158.0,4491.0,30.0,
77400,1861.6,22.6,195.3,70.3,1158.0,4491.0,30.0,
77500,1858.5,22.3,195.2,76.2,1158.0,4491.0,30.0,
77600,1861.0,22.2,189.0,119.1,1158.0,4491.0,30.0,
77700,1859.9,23.3,179.5,119.1,1158.0,4491.0,30.0,
77900,1860.0,23.0,150.6,119.1,1158.0,4491.0,30.0,
78000,1859.3,20.1,107.9,119.1,1158.0,4491.0,30.0,
78100,1860.1,22.6,59.1,119.1,1158.0,4491.0,30.0,
78200,1869.1,105.3,44.5,119.1,1158.0,4491.0,30.0,
78300,1874.8,108.5,67.5,119.1,1158.0,4491.0,30.0,
78400,1848.9,135.4,88.1,97.7,1158.0,4491.0,30.0,
78500,1869.8,203.1,109.4,95.7,1158.0,4491.0,30.0,
78600,1867.2,202.2,138.1,95.7,1158.0,4491.0,30.0,
78700,1882.7,160.7,165.5,95.7,1158.0,4491.0,30.0,
78900,1857.7,24.0,173.7,95.7,1158.0,4491.0,30.0,
79000,1862.1,22.6,173.7,95.7,1158.0,4491.0,30.0,
79100,1859.0,26.7,173.8,99.6,1158.0,4491.0,30.0,
79200,1860.4,25.7,170.7,119.1,1158.0,4491.0,30.0,
79300,1860.7,24.1,163.0,119.1,1158.0,4491.0,30.0,
79400,1861.5,25.3,153.0,119.1,1158.0,4491.0,30.0,
79500,1860.3,24.4,138.7,119.1,1158.0,4491.0,30.0,
79600,1859.6,26.0,110.1,119.1,1158.0,4491.0,30.0,
79700,1862.6,28.7,62.3,119.1,1158.0,4491.0,30.0,
79900,1868.6,117.9,65.3,105.5,1158.0,4491.0,30.0,
80000,1869.7,127.9,81.6,95.7,1158.0,4491.0,30.0,
80100,1872.6,108.2,97.1,95.7,1158.0,4491.0,30.0,
80200,1845.9,166.6,118.0,74.2,1158.0,4491.0,30.0,
80300,1864.6,195.9,132.9,66.4,1158.0,4491.0,30.0,
80400,1861.4,46.7,149.2,66.4,1158.0,4491.0,30.0,
80500,1860.5,23.5,149.1,66.4,1158.0,4491.0,30.0,
80600,1858.5,22.4,149.0,89.8,1158.0,4491.0,30.0,
80700,1860.5,20.3,148.9,95.7,1158.0,4491.0,30.0,
80900,1860.3,26.0,137.6,119.1,1158.0,4491.0,30.0,
81000,1863.6,31.3,128.9,119.1,1158.0,4491.0,30.0,
81100,1858.5,29.0,118.0,115.2,1158.0,4491.0,30.0,
81200,1859.7,27.7,97.2,119.1,1158.0,4491.0,30.0,
81300,1863.0,24.6,75.5,119.1,1158.0,4491.0,30.0,
81400,1862.2,70.5,39.9,111.3,1158.0,4491.0,30.0,
81500,1840.6,105.2,53.9,97.7,1158.0,4491.0,30.0,
81600,1853.4,126.9,70.4,99.6,1158.0,4491.0,30.0,
81700,1851.6,109.0,84.5,97.7,1158.0,4491.0,30.0,
81900,1845.7,107.5,114.3,97.7,1158.0,4491.0,30.0,
82000,1847.5,47.4,123.8,97.7,1158.0,4491.0,30.0,
82100,1857.9,28.0,123.4,97.7,1158.0,4491.0,30.0,
82200,1860.8,22.4,123.1,95.7,1158.0,4491.0,30.0,
82300,1862.0,24.0,123.0,93.8,1158.0,4491.0,30.0,
82400,1860.4,22.5,120.8,119.1,1158.0,4491.0,30.0,
82500,1858.9,24.1,115.2,119.1,1158.0,4491.0,30.0,
82600,1862.1,18.7,106.0,119.1,1158.0,4491.0,30.0,
82700,1860.0,19.9,95.2,121.1,1158.0,4491.0,30.0,
82900,1858.8,23.8,56.1,121.1,1158.0,4491.0,30.0,
83000,1858.1,100.6,38.2,121.1,1158.0,4491.0,30.0,
83100,1856.0,111.5,60.4,119.1,1158.0,4491.0,30.0,
83200,1866.4,103.5,79.2,95.7,1158.0,4491.0,30.0,
83300,1850.1,154.9,96.7,95.7,1158.0,4491.0,30.0,
83400,1868.8,221.6,122.5,95.7,1158.0,4491.0,30.0,
83500,1870.4,184.5,149.3,66.4,1158.0,4491.0,30.0,
83600,1868.6,73.4,170.4,95.7,1158.0,4491.0,30.0,
83700,1859.0,24.7,170.3,97.7,1158.0,4491.0,30.0,
83900,1858.9,25.4,170.3,93.8,1158.0,4491.0,30.0,
84000,1860.9,25.5,168.5,119.1,1158.0,4491.0,30.0,
84100,1859.3,20.7,162.0,119.1,1158.0,4491.0,30.0,
84200,1859.5,22.6,153.6,119.1,1158.0,4491.0,30.0,
84300,1860.6,18.8,143.2,119.1,1158.0,4491.0,30.0,
84400,1862.3,22.0,121.8,119.1,1158.0,4491.0,30.0,
84500,1863.3,25.2,87.0,119.1,1158.0,4491.0,30.0,
84600,1862.0,76.4,35.0,119.1,1158.0,4491.0,30.0,
84700,1874.7,113.6,55.9,119.1,1158.0,4491.0,30.0,
84900,1869.3,106.4,83.1,97.7,1158.0,4491.0,30.0,
85000,1871.3,104.5,98.3,97.7,1158.0,4491.0,30.0,
85100,1855.2,214.2,123.7,97.7,1158.0,4491.0,30.0,
85200,1868.0,94.4,148.3,66.4,1158.0,4491.0,30.0,
85300,1862.4,25.6,148.4,66.4,1158.0,4491.0,30.0,
85400,1861.1,21.3,148.3,95.7,1158.0,4491.0,30.0,
85500,1860.0,20.8,148.3,95.7,1158.0,4491.0,30.0,
85600,1860.1,22.9,146.9,105.5,1158.0,4491.0,30.0,
85700,1862.4,28.0,140.4,121.1,1158.0,4491.0,30.0,
85900,1861.5,31.4,126.9,119.1,1158.0,4491.0,30.0,
86000,1860.5,34.8,115.7,119.1,1158.0,4491.0,30.0,
86100,1859.7,25.1,88.6,117.2,1158.0,4491.0,30.0,
86200,1863.3,52.6,35.5,115.2,1158.0,4491.0,30.0,
86300,1855.7,83.6,49.9,93.8,1158.0,4491.0,30.0,
86400,1845.1,109.9,64.0,97.7,1158.0,4491.0,30.0,
86500,1849.1,128.3,79.9,97.7,1158.0,4491.0,30.0,
86600,1846.3,111.2,92.6,97.7,1158.0,4491.0,30.0,
86700,1841.0,96.9,107.5,97.7,1158.0,4491.0,30.0,
86900,1856.8,30.4,117.9,97.7,1158.0,4491.0,30.0,
87000,1860.5,20.2,117.7,111.3,1158.0,4491.0,30.0,
87100,1857.8,21.4,117.2,117.2,1158.0,4491.0,30.0,
87200,1859.8,24.8,116.8,119.1,1158.0,4491.0,30.0,
87300,1862.2,24.0,111.4,119.1,1158.0,4491.0,30.0,
87400,1856.9,18.5,104.1,119.1,1158.0,4491.0,30.0,
87500,1861.6,29.5,92.5,119.1,1158.0,4491.0,30.0,
87600,1865.0,21.5,80.1,119.1,1158.0,4491.0,30.0,
87700,1861.3,23.6,58.6,119.1,1158.0,4491.0,30.0,
87900,1855.5,92.8,49.3,119.1,1158.0,4491.0,30.0,
88000,1855.2,97.5,66.3,125.0,1158.0,4491.0,30.0,
88100,1865.2,75.6,77.1,125.0,1158.0,4491.0,30.0,
88200,1859.1,113.7,88.5,99.6,1158.0,4491.0,30.0,
88300,1869.4,159.8,104.5,97.7,1158.0,4491.0,30.0,
88400,1873.5,165.1,128.5,97.7,1158.0,4491.0,30.0,
88500,1858.3,28.7,136.8,99.6,1158.0,4491.0,30.0,
88600,1861.0,20.9,136.7,121.1,1158.0,4491.0,30.0,
88700,1863.0,21.0,136.5,107.4,1158.0,4491.0,30.0,
88900,1861.7,20.8,130.9,119.1,1158.0,4491.0,30.0,
89000,1859.0,20.2,123.0,119.1,1158.0,4491.0,30.0,
89100,1860.0,21.0,116.5,121.1,1158.0,4491.0,30.0,
89200,1862.1,21.9,108.0,119.1,1158.0,4491.0,30.0,
89300,1862.1,19.7,92.4,119.1,1158.0,4491.0,30.0,
89400,1859.4,30.2,54.1,121.1,1158.0,4491.0,30.0,
89500,1865.3,89.8,44.0,119.1,1158.0,4491.0,30.0,
89600,1870.0,115.5,60.9,119.1,1158.0,4491.0,30.0,
89700,1866.9,122.2,74.6,97.7,1158.0,4491.0,30.0,
89900,1848.4,167.5,136.8,66.4,1158.0,4491.0,30.0,
90000,1856.9,201.9,158.4,66.4,1158.0,4491.0,30.0,
90100,1867.1,31.0,164.6,97.7,1158.0,4491.0,30.0,
90200,1856.9,19.2,164.6,95.7,1158.0,4491.0,30.0,
90300,1862.5,22.4,164.5,95.7,1158.0,4491.0,30.0,
90400,1858.4,19.7,164.7,95.7,1158.0,4491.0,30.0,
90500,1860.5,21.7,161.0,119.1,1158.0,4491.0,30.0,
90600,1860.8,18.9,155.4,119.1,1158.0,4491.0,30.0,
90700,1859.5,22.2,149.3,119.1,1158.0,4491.0,30.0,
90900,1860.2,24.4,95.7,121.1,1158.0,4491.0,30.0,
91000,1863.0,21.8,52.9,119.1,1158.0,4491.0,30.0,
91100,1862.5,108.6,51.4,119.1,1158.0,4491.0,30.0,
91200,1859.5,126.4,86.2,119.1,1158.0,4491.0,30.0,
91300,1845.9,199.4,117.4,97.7,1158.0,4491.0,30.0,
91400,1857.3,203.9,139.4,97.7,1158.0,4491.0,30.0,
91500,1847.0,185.9,160.6,95.7,1158.0,4491.0,30.0,
91600,1861.3,159.2,182.9,95.7,1158.0,4491.0,30.0,
91700,1839.7,37.3,190.4,95.7,1158.0,4491.0,30.0,
91900,1861.6,18.8,190.3,97.7,1158.0,4491.0,30.0,
92000,1858.7,22.0,190.2,97.7,1158.0,4491.0,30.0,
92100,1859.9,20.3,185.4,119.1,1158.0,4491.0,30.0,
92200,1859.4,28.2,172.1,119.1,1158.0,4491.0,30.0,
92300,1859.5,22.4,152.7,119.1,1158.0,4491.0,30.0,
92400,1858.2,22.4,132.8,119.1,1158.0,4491.0,30.0,
92500,1862.3,20.8,106.1,119.1,1158.0,4491.0,30.0,
92600,1859.1,20.1,60.1,119.1,1158.0,4491.0,30.0,
92700,1852.0,98.3,43.2,119.1,1158.0,4491.0,30.0,
92900,1847.2,95.2,79.3,224.6,1158.0,4491.0,30.0,
93000,1856.5,91.8,90.1,162.1,1158.0,4491.0,30.0,
93100,1847.1,126.6,102.4,121.1,1158.0,4491.0,30.0,
93200,1866.8,144.9,112.8,97.7,1158.0,4491.0,30.0,
93300,1865.2,35.7,122.0,66.4,1158.0,4491.0,30.0,
93400,1859.6,22.0,122.0,66.4,1158.0,4491.0,30.0,
93500,1859.8,21.1,121.9,66.4,1158.0,4491.0,30.0,
93600,1859.2,22.3,121.9,66.4,1158.0,4491.0,30.0,
93700,1859.2,22.2,117.6,119.1,1158.0,4491.0,30.0,
93900,1858.2,22.8,97.1,119.1,1158.0,4491.0,30.0,
94000,1858.1,18.2,87.2,119.1,1158.0,4491.0,30.0,
94100,1862.7,24.9,72.0,119.1,1158.0,4491.0,30.0,
94200,1860.8,20.1,54.3,119.1,1158.0,4491.0,30.0,
94300,1870.5,64.9,34.6,121.1,1158.0,4491.0,30.0,
94400,1860.3,99.7,52.1,121.1,1158.0,4491.0,30.0,
94500,1873.4,129.5,69.3,125.0,1158.0,4491.0,30.0,
94600,1867.7,117.8,82.8,99.6,1158.0,4491.0,30.0,
94700,1877.4,108.0,97.1,95.7,1158.0,4491.0,30.0,
94900,1865.5,54.6,138.4,66.4,1158.0,4491.0,30.0,
95000,1860.0,24.5,138.4,66.4,1158.0,4491.0,30.0,
95100,1860.6,19.9,138.5,70.3,1158.0,4491.0,30.0,
95200,1860.5,21.1,138.5,93.8,1158.0,4491.0,30.0,
95300,1858.3,21.5,136.9,119.1,1158.0,4491.0,30.0,
95400,1863.5,20.4,131.3,119.1,1158.0,4491.0,30.0,
95500,1861.6,26.7,123.2,119.1,1158.0,4491.0,30.0,
95600,1858.3,21.6,114.6,119.1,1158.0,4491.0,30.0,
95700,1859.7,22.4,102.9,119.1,1158.0,4491.0,30.0,
95900,1861.8,81.1,35.9,103.5,1158.0,4491.0,30.0,
96000,1852.9,77.0,50.8,101.6,1158.0,4491.0,30.0,
96100,1857.8,101.5,64.0,97.7,1158.0,4491.0,30.0,
96200,1841.5,122.9,78.0,97.7,1158.0,4491.0,30.0,
96300,1848.3,133.0,94.7,97.7,1158.0,4491.0,30.0,
96400,1838.7,145.1,112.7,97.7,1158.0,4491.0,30.0,
96500,1848.0,70.6,130.1,97.7,1158.0,4491.0,30.0,
96600,1861.4,22.8,130.1,97.7,1158.0,4491.0,30.0,
96700,1863.6,24.3,129.9,97.7,1158.0,4491.0,30.0,
96900,1860.7,22.9,128.3,119.1,1158.0,4491.0,30.0,
97000,1859.1,24.5,123.2,119.1,1158.0,4491.0,30.0,
97100,1857.9,24.3,117.1,119.1,1158.0,4491.0,30.0,
97200,1858.7,21.3,108.2,119.1,1158.0,4491.0,30.0,
97300,1860.0,25.3,94.0,119.1,1158.0,4491.0,30.0,
97400,1859.8,20.4,71.5,119.1,1158.0,4491.0,30.0,
97500,1855.5,84.2,37.2,121.1,1158.0,4491.0,30.0,
97600,1857.1,118.7,59.4,121.1,1158.0,4491.0,30.0,
97700,1859.4,139.3,77.0,99.6,1158.0,4491.0,30.0,
97900,1855.0,162.5,119.3,95.7,1158.0,4491.0,30.0,
98000,1861.5,217.1,146.7,66.4,1158.0,4491.0,30.0,
98100,1873.0,87.2,166.8,66.4,1158.0,4491.0,30.0,
98200,1859.5,28.1,166.8,95.7,1158.0,4491.0,30.0,
98300,1861.8,24.9,166.8,97.7,1158.0,4491.0,30.0,
98400,1858.1,21.7,166.8,97.7,1158.0,4491.0,30.0,
98500,1862.5,22.2,165.3,119.1,1158.0,4491.0,30.0,
98600,1858.5,20.9,158.7,119.1,1158.0,4491.0,30.0,
98700,1860.9,22.0,150.9,121.1,1158.0,4491.0,30.0,
98900,1857.4,23.9,120.1,119.1,1158.0,4491.0,30.0,
99000,1859.9,20.6,84.6,121.1,1158.0,4491.0,30.0,
99100,1863.7,46.5,31.9,121.1,1158.0,4491.0,30.0,
99200,1868.9,76.2,44.4,121.1,1158.0,4491.0,30.0,
99300,1858.4,140.3,63.8,130.9,1158.0,4491.0,30.0,
99400,1869.9,192.6,92.1,128.9,1158.0,4491.0,30.0,
99500,1871.4,168.4,119.2,99.6,1158.0,4491.0,30.0,
99600,1877.9,137.6,142.0,97.7,1158.0,4491.0,30.0,
99700,1843.5,114.4,159.5,95.7,1158.0,4491.0,30.0,
99900,1859.9,24.1,159.8,66.4,1158.0,4491.0,30.0,
100000,1861.6,26.1,159.8,66.4,1158.0,4491.0,30.0,
100100,1859.3,23.1,159.1,87.9,1158.0,4491.0,30.0,
100200,1861.1,27.9,156.1,119.1,1158.0,4491.0,30.0,
100300,1862.9,22.8,149.2,119.1,1158.0,4491.0,30.0,
100400,1861.4,21.9,133.6,119.1,1158.0,4491.0,30.0,
100500,1861.9,22.7,110.1,119.1,1158.0,4491.0,30.0,
100600,1858.7,24.6,78.7,119.1,1158.0,4491.0,30.0,
100700,1861.2,56.1,31.0,119.1,1158.0,4491.0,30.0,
100900,1847.3,122.5,74.4,97.7,1158.0,4491.0,30.0,
101000,1845.6,159.6,97.3,95.7,1158.0,4491.0,30.0,
101100,1837.3,195.7,123.4,95.7,1158.0,4491.0,30.0,
101200,1847.2,206.9,144.3,95.7,1158.0,4491.0,30.0,
101300,1854.0,180.5,169.2,97.7,1158.0,4491.0,30.0,
101400,1850.6,35.1,175.4,97.7,1158.0,4491.0,30.0,
101500,1864.9,25.8,175.5,95.7,1158.0,4491.0,30.0,
101600,1861.7,25.3,175.5,70.3,1158.0,4491.0,30.0,
101700,1861.2,23.2,175.4,76.2,1158.0,4491.0,30.0,
101900,1858.0,24.7,161.7,121.1,1158.0,4491.0,30.0,
102000,1861.2,25.2,149.0,121.1,1158.0,4491.0,30.0,
102100,1862.5,22.0,128.3,119.1,1158.0,4491.0,30.0,
102200,1861.6,22.4,104.2,119.1,1158.0,4491.0,30.0,
102300,1861.3,35.9,55.3,119.1,1158.0,4491.0,30.0,
102400,1862.9,111.7,51.4,121.1,1158.0,4491.0,30.0,
102500,1866.4,136.7,72.4,119.1,1158.0,4491.0,30.0,
102600,1867.4,153.7,91.3,97.7,1158.0,4491.0,30.0,
102700,1887.9,151.1,121.7,97.7,1158.0,4491.0,30.0,
102900,1871.3,201.1,170.2,66.4,1158.0,4491.0,30.0,
103000,1864.7,33.5,175.6,66.4,1158.0,4491.0,30.0,
103100,1862.2,25.4,175.7,66.4,1158.0,4491.0,30.0,
103200,1861.5,26.1,175.7,72.3,1158.0,4491.0,30.0,
103300,1860.4,25.1,175.7,91.8,1158.0,4491.0,30.0,
103400,1859.7,23.6,170.7,119.1,1158.0,4491.0,30.0,
103500,1859.7,20.0,162.9,119.1,1158.0,4491.0,30.0,
103600,1860.5,23.4,153.1,119.1,1158.0,4491.0,30.0,
103700,1857.4,23.7,130.3,119.1,1158.0,4491.0,30.0,
103900,1860.3,21.8,52.5,119.1,1158.0,4491.0,30.0,
104000,1869.7,68.6,37.9,121.1,1158.0,4491.0,30.0,
104100,1875.8,97.2,53.5,125.0,1158.0,4491.0,30.0,
104200,1855.3,109.2,71.4,127.0,1158.0,4491.0,30.0,
104300,1863.2,119.2,80.3,97.7,1158.0,4491.0,30.0,
104400,1869.9,122.3,92.4,97.7,1158.0,4491.0,30.0,
104500,1870.4,122.8,110.0,95.7,1158.0,4491.0,30.0,
104600,1847.5,36.7,121.7,64.5,1158.0,4491.0,30.0,
104700,1860.0,22.0,121.7,66.4,1158.0,4491.0,30.0,
104900,1862.2,23.0,121.7,74.2,1158.0,4491.0,30.0,
105000,1859.7,24.8,119.3,119.1,1158.0,4491.0,30.0,
105100,1861.1,26.6,113.2,119.1,1158.0,4491.0,30.0,
105200,1862.8,26.5,102.8,119.1,1158.0,4491.0,30.0,
105300,1859.4,26.3,96.0,119.1,1158.0,4491.0,30.0,
105400,1863.8,24.4,84.4,119.1,1158.0,4491.0,30.0,
105500,1860.3,23.0,59.9,121.1,1158.0,4491.0,30.0,
105600,1860.8,86.2,37.1,121.1,1158.0,4491.0,30.0,
105700,1850.1,116.6,52.9,119.1,1158.0,4491.0,30.0,
105900,1840.1,149.8,95.3,95.7,1158.0,4491.0,30.0,
106000,1836.8,219.1,123.1,95.7,1158.0,4491.0,30.0,
106100,1849.8,197.2,148.4,97.7,1158.0,4491.0,30.0,
106200,1853.5,43.2,162.4,97.7,1158.0,4491.0,30.0,
106300,1859.4,23.6,162.4,97.7,1158.0,4491.0,30.0,
106400,1859.8,22.9,162.4,97.7,1158.0,4491.0,30.0,
106500,1859.6,24.2,162.4,95.7,1158.0,4491.0,30.0,
106600,1861.4,22.4,160.8,119.1,1158.0,4491.0,30.0,
106700,1857.7,25.0,156.4,119.1,1158.0,4491.0,30.0,
106900,1860.9,24.2,134.8,119.1,1158.0,4491.0,30.0,
107000,1862.8,21.9,110.0,121.1,1158.0,4491.0,30.0,
107100,1860.7,22.7,72.3,121.1,1158.0,4491.0,30.0,
107200,1857.0,79.9,39.6,119.1,1158.0,4491.0,30.0,
107300,1850.5,152.6,60.8,130.9,1158.0,4491.0,30.0,
107400,1853.5,211.4,97.1,121.1,1158.0,4491.0,30.0,
107500,1867.7,185.6,129.5,97.7,1158.0,4491.0,30.0,
107600,1876.3,147.4,155.8,95.7,1158.0,4491.0,30.0,
107700,1847.6,196.5,176.2,66.4,1158.0,4491.0,30.0,
107900,1857.5,25.1,187.9,66.4,1158.0,4491.0,30.0,
108000,1862.9,23.0,187.9,66.4,1158.0,4491.0,30.0,
108100,1860.8,22.4,187.9,66.4,1158.0,4491.0,30.0,
108200,1857.5,23.8,186.0,119.1,1158.0,4491.0,30.0,
108300,1861.5,20.2,180.2,121.1,1158.0,4491.0,30.0,
108400,1862.7,23.9,163.5,119.1,1158.0,4491.0,30.0,
108500,1862.7,23.8,139.3,119.1,1158.0,4491.0,30.0,
108600,1858.0,26.4,108.9,119.1,1158.0,4491.0,30.0,
108700,1860.8,23.4,71.4,119.1,1158.0,4491.0,30.0,
108900,1869.8,75.3,51.4,121.1,1158.0,4491.0,30.0,
109000,1866.4,99.8,67.6,127.0,1158.0,4491.0,30.0,
109100,1862.9,154.7,85.6,128.9,1158.0,4491.0,30.0,
109200,1869.7,190.3,110.1,119.1,1158.0,4491.0,30.0,
109300,1869.9,163.7,134.8,97.7,1158.0,4491.0,30.0,
109400,1859.5,65.4,152.0,95.7,1158.0,4491.0,30.0,
109500,1859.2,24.3,151.9,95.7,1158.0,4491.0,30.0,
109600,1858.9,22.3,151.9,95.7,1158.0,4491.0,30.0,
109700,1860.4,22.2,151.9,95.7,1158.0,4491.0,30.0,
109900,1863.4,24.8,145.9,119.1,1158.0,4491.0,30.0,
110000,1856.3,23.3,139.1,119.1,1158.0,4491.0,30.0,
110100,1858.0,22.9,128.9,119.1,1158.0,4491.0,30.0,
110200,1863.0,23.7,108.7,119.1,1158.0,4491.0,30.0,
110300,1861.4,16.9,75.9,121.1,1158.0,4491.0,30.0,
110400,1858.3,48.2,30.2,121.1,1158.0,4491.0,30.0,
110500,1863.6,141.5,43.9,119.1,1158.0,4491.0,30.0,
110600,1849.6,169.6,80.7,99.6,1158.0,4491.0,30.0,
110700,1867.1,147.3,116.9,95.7,1158.0,4491.0,30.0,
110900,1844.2,205.4,163.5,95.7,1158.0,4491.0,30.0,
111000,1848.4,94.7,180.6,97.7,1158.0,4491.0,30.0,
111100,1859.1,27.3,180.6,97.7,1158.0,4491.0,30.0,
111200,1861.0,18.8,180.6,97.7,1158.0,4491.0,30.0,
111300,1860.2,23.8,180.6,99.6,1158.0,4491.0,30.0,
111400,1862.4,23.4,180.4,119.1,1158.0,4491.0,30.0,
111500,1861.0,25.0,177.6,119.1,1158.0,4491.0,30.0,
111600,1862.3,24.7,164.2,119.1,1158.0,4491.0,30.0,
111700,1862.5,22.6,140.7,121.1,1158.0,4491.0,30.0,
111900,1860.4,21.7,81.9,119.1,1158.0,4491.0,30.0,
112000,1858.0,49.2,31.9,119.1,1158.0,4491.0,30.0,
112100,1852.3,80.8,45.9,121.1,1158.0,4491.0,30.0,
112200,1852.4,202.5,77.6,195.3,1158.0,4491.0,30.0,
112300,1861.7,194.5,113.6,125.0,1158.0,4491.0,30.0,
112400,1866.7,171.9,137.2,95.7,1158.0,4491.0,30.0,
112500,1875.3,157.4,162.6,95.7,1158.0,4491.0,30.0,
112600,1845.8,127.1,182.7,95.7,1158.0,4491.0,30.0,
112700,1867.0,24.8,182.8,70.3,1158.0,4491.0,30.0,
112900,1861.0,21.2,183.0,68.4,1158.0,4491.0,30.0,
113000,1859.2,23.4,182.3,101.6,1158.0,4491.0,30.0,
113100,1861.9,25.1,179.3,121.1,1158.0,4491.0,30.0,
113200,1861.8,23.4,168.1,119.1,1158.0,4491.0,30.0,
113300,1859.6,23.1,146.2,119.1,1158.0,4491.0,30.0,
113400,1857.7,24.6,124.4,119.1,1158.0,4491.0,30.0,
113500,1861.6,20.7,88.7,119.1,1158.0,4491.0,30.0,
113600,1859.4,88.7,29.8,119.1,1158.0,4491.0,30.0,
113700,1866.4,140.4,62.8,119.1,1158.0,4491.0,30.0,
113900,1840.9,197.0,133.5,95.7,1158.0,4491.0,30.0,
114000,1868.4,214.1,155.6,95.7,1158.0,4491.0,30.0,
114100,1870.3,192.0,175.6,66.4,1158.0,4491.0,30.0,
114200,1873.2,167.2,192.4,66.4,1158.0,4491.0,30.0,
114300,1857.9,28.1,196.9,66.4,1158.0,4491.0,30.0,
114400,1861.1,22.6,196.9,66.4,1158.0,4491.0,30.0,
114500,1860.1,23.5,196.8,68.4,1158.0,4491.0,30.0,
114600,1862.5,21.4,196.9,82.0,1158.0,4491.0,30.0,
114700,1859.2,21.0,188.8,119.1,1158.0,4491.0,30.0,
114900,1860.5,21.2,147.4,121.1,1158.0,4491.0,30.0,
115000,1858.7,21.4,123.9,119.1,1158.0,4491.0,30.0,
115100,1859.9,23.3,93.3,119.1,1158.0,4491.0,30.0,
115200,1861.3,40.7,49.9,119.1,1158.0,4491.0,30.0,
115300,1866.7,154.4,62.7,119.1,1158.0,4491.0,30.0,
115400,1868.1,207.8,96.8,95.7,1158.0,4491.0,30.0,
115500,1865.8,161.8,124.9,95.7,1158.0,4491.0,30.0,
115600,1868.0,133.9,148.4,95.7,1158.0,4491.0,30.0,
115700,1844.7,172.4,166.1,95.7,1158.0,4491.0,30.0,
115900,1858.8,27.9,185.3,95.7,1158.0,4491.0,30.0,
116000,1858.9,23.1,185.3,95.7,1158.0,4491.0,30.0,
116100,1862.9,23.6,185.4,95.7,1158.0,4491.0,30.0,
116200,1863.9,23.5,185.4,97.7,1158.0,4491.0,30.0,
116300,1858.7,22.9,176.6,119.1,1158.0,4491.0,30.0,
116400,1861.0,23.3,160.5,121.1,1158.0,4491.0,30.0,
116500,1860.5,24.9,139.9,119.1,1158.0,4491.0,30.0,
116600,1861.1,20.6,114.7,119.1,1158.0,4491.0,30.0,
116700,1860.0,25.6,87.2,119.1,1158.0,4491.0,30.0,
116900,1849.1,80.4,50.2,121.1,1158.0,4491.0,30.0,
117000,1844.4,111.8,70.3,158.2,1158.0,4491.0,30.0,
117100,1848.3,98.7,82.5,162.1,1158.0,4491.0,30.0,
117200,1854.0,107.4,91.4,160.2,1158.0,4491.0,30.0,
117300,1857.1,82.9,100.4,130.9,1158.0,4491.0,30.0,
117400,1868.9,91.7,107.1,128.9,1158.0,4491.0,30.0,
117500,1852.8,28.6,110.1,121.1,1158.0,4491.0,30.0,
117600,1861.3,24.6,110.1,121.1,1158.0,4491.0,30.0,
117700,1863.6,24.7,110.1,111.3,1158.0,4491.0,30.0,
117900,1863.5,24.3,102.3,119.1,1158.0,4491.0,30.0,
118000,1858.1,20.4,89.7,119.1,1158.0,4491.0,30.0,
118100,1858.4,22.5,78.5,119.1,1158.0,4491.0,30.0,
118200,1859.1,21.4,67.9,119.1,1158.0,4491.0,30.0,
118300,1859.7,24.3,53.7,119.1,1158.0,4491.0,30.0,
118400,1860.2,23.6,38.5,119.1,1158.0,4491.0,30.0,
118500,1866.4,87.7,37.7,121.1,1158.0,4491.0,30.0,
118600,1867.3,88.8,53.3,121.1,1158.0,4491.0,30.0,
118700,1866.3,78.9,65.9,128.9,1158.0,4491.0,30.0,
118900,1868.6,109.9,86.0,128.9,1158.0,4491.0,30.0,
119000,1870.6,118.2,95.6,128.9,1158.0,4491.0,30.0,
119100,1861.8,33.2,102.5,119.1,1158.0,4491.0,30.0,
119200,1861.7,26.0,102.5,97.7,1158.0,4491.0,30.0,
119300,1861.4,19.9,102.5,97.7,1158.0,4491.0,30.0,
119400,1861.5,20.2,102.4,117.2,1158.0,4491.0,30.0,
119500,1861.7,23.5,99.3,119.1,1158.0,4491.0,30.0,
119600,1857.9,23.2,92.0,121.1,1158.0,4491.0,30.0,
119700,1860.6,21.0,83.3,119.1,1158.0,4491.0,30.0,
119900,1861.4,21.9,62.3,119.1,1158.0,4491.0,30.0,
120000,1860.5,21.7,46.3,119.1,1158.0,4491.0,30.0,
120100,1863.4,71.0,34.8,121.1,1158.0,4491.0,30.0,
120200,1862.3,127.0,50.4,121.1,1158.0,4491.0,30.0,
120300,1860.3,175.0,83.9,101.6,1158.0,4491.0,30.0,
120400,1856.2,164.7,110.4,97.7,1158.0,4491.0,30.0,
120500,1863.3,162.2,142.8,95.7,1158.0,4491.0,30.0,
120600,1832.4,197.1,163.7,95.7,1158.0,4491.0,30.0,
120700,1855.1,53.9,175.7,95.7,1158.0,4491.0,30.0,
120900,1857.1,23.2,175.7,97.7,1158.0,4491.0,30.0,
121000,1860.9,19.3,175.7,97.7,1158.0,4491.0,30.0,
121100,1861.5,26.6,174.5,119.1,1158.0,4491.0,30.0,
121200,1860.1,21.8,170.6,121.1,1158.0,4491.0,30.0,
121300,1857.0,23.9,156.9,121.1,1158.0,4491.0,30.0,
121400,1860.2,25.1,139.6,119.1,1158.0,4491.0,30.0,
121500,1861.1,25.3,106.5,119.1,1158.0,4491.0,30.0,
121600,1861.2,20.8,70.2,119.1,1158.0,4491.0,30.0,
121700,1854.0,80.8,40.9,119.1,1158.0,4491.0,30.0,
121900,1838.1,154.3,85.4,160.2,1158.0,4491.0,30.0,
122000,1857.4,192.9,112.0,130.9,1158.0,4491.0,30.0,
122100,1860.2,169.3,133.6,99.6,1158.0,4491.0,30.0,
122200,1870.0,143.2,151.5,99.6,1158.0,4491.0,30.0,
122300,1859.1,61.7,167.3,119.1,1158.0,4491.0,30.0,
122400,1857.0,27.9,167.2,97.7,1158.0,4491.0,30.0,
122500,1857.6,25.4,167.1,95.7,1158.0,4491.0,30.0,
122600,1861.2,22.9,167.2,87.9,1158.0,4491.0,30.0,
122700,1861.8,25.7,164.7,119.1,1158.0,4491.0,30.0,
122900,1859.2,20.0,146.7,119.1,1158.0,4491.0,30.0,
123000,1860.8,23.1,127.6,119.1,1158.0,4491.0,30.0,
123100,1859.9,21.4,104.7,119.1,1158.0,4491.0,30.0,
123200,1863.1,24.8,76.6,121.1,1158.0,4491.0,30.0,
123300,1865.2,76.7,35.3,121.1,1158.0,4491.0,30.0,
123400,1865.0,92.6,51.3,121.1,1158.0,4491.0,30.0,
123500,1867.7,124.0,67.9,127.0,1158.0,4491.0,30.0,
123600,1872.0,146.2,104.1,121.1,1158.0,4491.0,30.0,
123700,1850.5,164.3,125.9,99.6,1158.0,4491.0,30.0,
123900,1862.8,78.2,156.7,101.6,1158.0,4491.0,30.0,
124000,1860.7,24.0,156.7,97.7,1158.0,4491.0,30.0,
124100,1860.8,23.1,156.7,97.7,1158.0,4491.0,30.0,
124200,1864.0,26.1,156.7,97.7,1158.0,4491.0,30.0,
124300,1859.7,21.3,155.3,119.1,1158.0,4491.0,30.0,
124400,1862.6,24.5,150.9,119.1,1158.0,4491.0,30.0,
124500,1862.3,23.2,144.2,119.1,1158.0,4491.0,30.0,
124600,1860.3,24.3,120.6,119.1,1158.0,4491.0,30.0,
124700,1859.0,23.1,97.6,119.1,1158.0,4491.0,30.0,
124900,1858.9,64.3,33.1,119.1,1158.0,4491.0,30.0,
125000,1843.0,97.3,55.9,119.1,1158.0,4491.0,30.0,
125100,1843.8,137.2,75.4,99.6,1158.0,4491.0,30.0,
125200,1848.3,142.7,92.9,97.7,1158.0,4491.0,30.0,
125300,1846.5,156.7,114.5,97.7,1158.0,4491.0,30.0,
125400,1860.0,155.0,144.5,97.7,1158.0,4491.0,30.0,
125500,1842.1,109.9,162.9,99.6,1158.0,4491.0,30.0,
125600,1865.4,27.9,163.0,97.7,1158.0,4491.0,30.0,
125700,1859.6,27.4,163.1,97.7,1158.0,4491.0,30.0,
125900,1860.0,21.3,162.4,119.1,1158.0,4491.0,30.0,
126000,1859.7,21.0,156.0,121.1,1158.0,4491.0,30.0,
126100,1861.1,20.0,147.5,119.1,1158.0,4491.0,30.0,
126200,1860.3,20.6,137.1,121.1,1158.0,4491.0,30.0,
126300,1859.5,26.2,119.7,121.1,1158.0,4491.0,30.0,
126400,1860.1,22.4,80.9,119.1,1158.0,4491.0,30.0,
126500,1858.1,39.5,29.3,119.1,1158.0,4491.0,30.0,
126600,1874.6,69.9,42.1,121.1,1158.0,4491.0,30.0,
126700,1873.6,103.8,59.8,128.9,1158.0,4491.0,30.0,
126900,1866.2,205.9,115.3,99.6,1158.0,4491.0,30.0,
127000,1869.6,169.5,137.5,97.7,1158.0,4491.0,30.0,
127100,1872.2,147.7,155.7,97.7,1158.0,4491.0,30.0,
127200,1851.3,27.9,159.6,95.7,1158.0,4491.0,30.0,
127300,1861.8,23.4,159.6,95.7,1158.0,4491.0,30.0,
127400,1858.8,22.0,159.6,68.4,1158.0,4491.0,30.0,
127500,1860.1,23.0,159.7,93.8,1158.0,4491.0,30.0,
127600,1857.8,22.4,156.7,119.1,1158.0,4491.0,30.0,
127700,1860.8,21.9,150.8,119.1,1158.0,4491.0,30.0,
127900,1860.2,21.5,113.9,119.1,1158.0,4491.0,30.0,
128000,1860.0,23.3,85.9,119.1,1158.0,4491.0,30.0,
128100,1860.6,30.5,45.0,119.1,1158.0,4491.0,30.0,
128200,1860.8,98.5,41.8,119.1,1158.0,4491.0,30.0,
128300,1855.5,144.3,57.6,97.7,1158.0,4491.0,30.0,
128400,1848.3,158.1,86.5,97.7,1158.0,4491.0,30.0,
128500,1856.2,167.4,124.3,97.7,1158.0,4491.0,30.0,
128600,1828.7,205.0,149.0,97.7,1158.0,4491.0,30.0,
128700,1851.6,212.9,169.9,97.7,1158.0,4491.0,30.0,
128900,1862.0,22.4,175.8,95.7,1158.0,4491.0,30.0,
129000,1859.2,21.1,175.8,95.7,1158.0,4491.0,30.0,
129100,1859.2,23.7,175.8,97.7,1158.0,4491.0,30.0,
129200,1861.7,23.1,173.2,119.1,1158.0,4491.0,30.0,
129300,1857.9,24.4,168.6,121.1,1158.0,4491.0,30.0,
129400,1861.9,22.3,155.8,121.1,1158.0,4491.0,30.0,
129500,1858.7,25.3,127.7,119.1,1158.0,4491.0,30.0,
129600,1861.0,25.1,97.8,119.1,1158.0,4491.0,30.0,
129700,1861.8,23.3,54.0,119.1,1158.0,4491.0,30.0,
129900,1858.3,115.7,63.0,119.1,1158.0,4491.0,30.0,
130000,1865.5,176.0,88.0,119.1,1158.0,4491.0,30.0,
130100,1869.9,161.4,112.5,99.6,1158.0,4491.0,30.0,
130200,1873.7,150.1,132.0,99.6,1158.0,4491.0,30.0,
130300,1870.0,140.9,152.4,97.7,1158.0,4491.0,30.0,
130400,1855.1,33.6,158.5,97.7,1158.0,4491.0,30.0,
130500,1862.0,25.7,158.5,95.7,1158.0,4491.0,30.0,
130600,1862.0,19.8,158.5,74.2,1158.0,4491.0,30.0,
130700,1858.8,20.1,158.4,85.9,1158.0,4491.0,30.0,
130900,1859.9,20.6,148.4,119.1,1158.0,4491.0,30.0,
131000,1860.4,20.1,135.0,119.1,1158.0,4491.0,30.0,
131100,1860.0,22.7,115.3,119.1,1158.0,4491.0,30.0,
131200,1864.2,19.4,92.2,119.1,1158.0,4491.0,30.0,
131300,1861.8,21.5,51.9,121.1,1158.0,4491.0,30.0,
131400,1865.8,157.8,56.5,119.1,1158.0,4491.0,30.0,
131500,1863.1,172.5,88.6,95.7,1158.0,4491.0,30.0,
131600,1866.7,154.1,124.6,95.7,1158.0,4491.0,30.0,
131700,1832.3,193.2,149.6,95.7,1158.0,4491.0,30.0,
131900,1850.5,187.2,186.5,66.4,1158.0,4491.0,30.0,
132000,1848.2,44.6,198.0,95.7,1158.0,4491.0,30.0,
132100,1858.7,20.7,198.0,95.7,1158.0,4491.0,30.0,
132200,1861.7,25.2,198.0,95.7,1158.0,4491.0,30.0,
132300,1859.1,23.5,198.0,93.8,1158.0,4491.0,30.0,
132400,1860.0,22.3,191.8,119.1,1158.0,4491.0,30.0,
132500,1862.4,22.6,179.3,119.1,1158.0,4491.0,30.0,
132600,1857.7,22.8,156.4,119.1,1158.0,4491.0,30.0,
132700,1860.5,26.4,132.8,119.1,1158.0,4491.0,30.0,
132900,1860.2,22.4,72.2,119.1,1158.0,4491.0,30.0,
133000,1855.4,73.8,37.6,119.1,1158.0,4491.0,30.0,
133100,1855.4,99.6,52.6,127.0,1158.0,4491.0,30.0,
133200,1858.5,109.8,66.1,150.4,1158.0,4491.0,30.0,
133300,1863.3,96.2,77.5,128.9,1158.0,4491.0,30.0,
133400,1869.1,88.6,87.3,97.7,1158.0,4491.0,30.0,
133500,1858.2,135.2,100.1,97.7,1158.0,4491.0,30.0,
133600,1866.7,44.3,112.3,97.7,1158.0,4491.0,30.0,
133700,1860.8,25.5,112.3,97.7,1158.0,4491.0,30.0,
133900,1856.6,25.0,112.7,97.7,1158.0,4491.0,30.0,
134000,1861.0,24.6,110.2,119.1,1158.0,4491.0,30.0,
134100,1860.3,25.9,103.9,119.1,1158.0,4491.0,30.0,
134200,1859.4,24.8,96.0,119.1,1158.0,4491.0,30.0,
134300,1860.7,25.0,87.1,121.1,1158.0,4491.0,30.0,
134400,1862.2,22.5,77.4,119.1,1158.0,4491.0,30.0,
134500,1860.2,26.1,59.9,119.1,1158.0,4491.0,30.0,
134600,1866.5,109.9,41.5,119.1,1158.0,4491.0,30.0,
134700,1865.5,89.3,65.8,119.1,1158.0,4491.0,30.0,
134900,1867.1,130.9,90.6,97.7,1158.0,4491.0,30.0,
135000,1864.8,116.8,99.1,97.7,1158.0,4491.0,30.0,
135100,1866.8,122.3,113.4,97.7,1158.0,4491.0,30.0,
135200,1856.4,54.1,127.5,97.7,1158.0,4491.0,30.0,
135300,1861.1,19.7,127.5,93.8,1158.0,4491.0,30.0,
135400,1858.1,20.8,127.3,93.8,1158.0,4491.0,30.0,
135500,1860.3,23.3,127.3,95.7,1158.0,4491.0,30.0,
135600,1861.4,24.5,124.5,119.1,1158.0,4491.0,30.0,
135700,1860.3,18.2,113.6,119.1,1158.0,4491.0,30.0,
135900,1861.8,20.2,94.4,119.1,1158.0,4491.0,30.0,
136000,1857.0,26.8,85.3,119.1,1158.0,4491.0,30.0,
136100,1861.9,28.0,65.4,119.1,1158.0,4491.0,30.0,
136200,1858.4,100.1,37.0,119.1,1158.0,4491.0,30.0,
136300,1855.1,137.0,62.2,119.1,1158.0,4491.0,30.0,
136400,1843.0,172.2,95.2,95.7,1158.0,4491.0,30.0,
136500,1858.7,172.7,126.8,95.7,1158.0,4491.0,30.0,
136600,1828.7,197.3,152.2,95.7,1158.0,4491.0,30.0,
136700,1848.0,206.7,171.0,95.7,1158.0,4491.0,30.0,
136900,1860.1,27.5,186.4,95.7,1158.0,4491.0,30.0,
137000,1859.1,22.2,186.4,95.7,1158.0,4491.0,30.0,
137100,1862.8,21.0,186.3,93.8,1158.0,4491.0,30.0,
137200,1863.0,29.2,184.9,99.6,1158.0,4491.0,30.0,
137300,1861.3,17.4,178.0,119.1,1158.0,4491.0,30.0,
137400,1859.7,20.0,162.8,119.1,1158.0,4491.0,30.0,
137500,1859.1,19.7,139.6,119.1,1158.0,4491.0,30.0,
137600,1861.8,23.0,111.3,119.1,1158.0,4491.0,30.0,
137700,1859.2,25.1,79.4,119.1,1158.0,4491.0,30.0,
137900,1856.7,87.2,50.9,119.1,1158.0,4491.0,30.0,
138000,1867.4,136.6,65.9,119.1,1158.0,4491.0,30.0,
138100,1867.1,176.9,92.8,97.7,1158.0,4491.0,30.0,
138200,1872.3,183.4,121.9,97.7,1158.0,4491.0,30.0,
138300,1867.2,158.4,152.8,66.4,1158.0,4491.0,30.0,
138400,1855.0,112.4,171.5,66.4,1158.0,4491.0,30.0,
138500,1868.1,27.6,171.6,66.4,1158.0,4491.0,30.0,
138600,1860.5,17.9,171.5,82.0,1158.0,4491.0,30.0,
138700,1861.7,19.6,171.5,76.2,1158.0,4491.0,30.0,
138900,1861.5,21.5,166.4,119.1,1158.0,4491.0,30.0,
139000,1860.3,23.4,161.0,119.1,1158.0,4491.0,30.0,
139100,1858.9,19.5,147.2,119.1,1158.0,4491.0,30.0,
139200,1863.3,23.3,124.1,119.1,1158.0,4491.0,30.0,
139300,1861.6,24.4,83.0,119.1,1158.0,4491.0,30.0,
139400,1861.5,44.4,29.3,119.1,1158.0,4491.0,30.0,
139500,1873.7,74.8,40.4,119.1,1158.0,4491.0,30.0,
139600,1865.7,84.3,51.7,119.1,1158.0,4491.0,30.0,
139700,1855.9,87.0,63.8,99.6,1158.0,4491.0,30.0,
139900,1862.9,82.6,76.8,97.7,1158.0,4491.0,30.0,
140000,1856.1,87.9,83.5,97.7,1158.0,4491.0,30.0,
140100,1856.2,27.3,85.4,97.7,1158.0,4491.0,30.0,
140200,1862.3,20.5,85.4,95.7,1158.0,4491.0,30.0,
140300,1862.3,18.4,85.3,93.8,1158.0,4491.0,30.0,
140400,1861.5,22.8,85.2,115.2,1158.0,4491.0,30.0,
140500,1858.9,25.5,80.6,119.1,1158.0,4491.0,30.0,
140600,1859.9,22.7,74.0,119.1,1158.0,4491.0,30.0,
140700,1862.7,21.1,63.8,119.1,1158.0,4491.0,30.0,
140900,1861.5,21.8,47.5,119.1,1158.0,4491.0,30.0,
141000,1857.6,37.1,34.1,119.1,1158.0,4491.0,30.0,
141100,1854.0,103.8,47.2,119.1,1158.0,4491.0,30.0,
141200,1849.7,127.8,65.2,121.1,1158.0,4491.0,30.0,
141300,1838.5,130.9,88.0,125.0,1158.0,4491.0,30.0,
141400,1854.3,138.9,110.0,97.7,1158.0,4491.0,30.0,
141500,1837.7,216.7,136.7,97.7,1158.0,4491.0,30.0,
141600,1862.0,190.1,155.7,97.7,1158.0,4491.0,30.0,
141700,1862.8,31.6,160.8,95.7,1158.0,4491.0,30.0,
141900,1861.3,20.3,160.6,95.7,1158.0,4491.0,30.0,
142000,1860.2,21.9,160.7,97.7,1158.0,4491.0,30.0,
142100,1857.7,27.4,156.4,119.1,1158.0,4491.0,30.0,
142200,1863.9,24.2,149.8,121.1,1158.0,4491.0,30.0,
142300,1858.7,21.6,137.7,119.1,1158.0,4491.0,30.0,
142400,1860.1,19.2,121.0,119.1,1158.0,4491.0,30.0,
142500,1859.8,22.2,89.5,119.1,1158.0,4491.0,30.0,
142600,1861.9,23.3,49.3,119.1,1158.0,4491.0,30.0,
142700,1872.0,76.7,43.5,119.1,1158.0,4491.0,30.0,
142900,1865.4,201.2,98.9,97.7,1158.0,4491.0,30.0,
143000,1868.3,187.5,124.9,70.3,1158.0,4491.0,30.0,
143100,1878.1,160.6,148.3,66.4,1158.0,4491.0,30.0,
143200,1861.3,147.6,169.4,66.4,1158.0,4491.0,30.0,
143300,1858.9,36.9,175.6,64.5,1158.0,4491.0,30.0,
143400,1860.7,24.2,175.6,64.5,1158.0,4491.0,30.0,
143500,1859.4,25.1,175.6,64.5,1158.0,4491.0,30.0,
143600,1861.6,29.7,175.7,66.4,1158.0,4491.0,30.0,
143700,1858.4,30.3,172.7,119.1,1158.0,4491.0,30.0,
143900,1862.8,22.1,148.3,119.1,1158.0,4491.0,30.0,
144000,1859.5,23.8,127.2,119.1,1158.0,4491.0,30.0,
144100,1864.2,21.6,98.9,119.1,1158.0,4491.0,30.0,
144200,1858.4,23.3,55.3,119.1,1158.0,4491.0,30.0,
144300,1868.0,86.1,37.8,119.1,1158.0,4491.0,30.0,
144400,1865.5,99.3,51.3,119.1,1158.0,4491.0,30.0,
144500,1863.7,88.6,67.4,95.7,1158.0,4491.0,30.0,
144600,1848.0,114.4,80.9,97.7,1158.0,4491.0,30.0,
144700,1853.4,158.9,97.3,97.7,1158.0,4491.0,30.0,
144900,1856.2,41.4,131.5,89.8,1158.0,4491.0,30.0,
145000,1859.8,26.2,131.6,93.8,1158.0,4491.0,30.0,
145100,1858.8,28.3,131.6,93.8,1158.0,4491.0,30.0,
145200,1858.7,26.5,131.7,95.7,1158.0,4491.0,30.0,
145300,1863.0,23.5,129.9,119.1,1158.0,4491.0,30.0,
145400,1861.1,22.6,125.1,119.1,1158.0,4491.0,30.0,
145500,1860.4,29.7,117.3,119.1,1158.0,4491.0,30.0,
145600,1857.5,23.8,108.3,119.1,1158.0,4491.0,30.0,
145700,1860.1,26.9,93.9,119.1,1158.0,4491.0,30.0,
145900,1849.5,99.7,47.4,119.1,1158.0,4491.0,30.0,
146000,1856.0,133.6,66.4,119.1,1158.0,4491.0,30.0,
146100,1856.5,149.9,85.7,97.7,1158.0,4491.0,30.0,
146200,1857.8,136.5,106.6,97.7,1158.0,4491.0,30.0,
146300,1869.6,135.2,129.0,95.7,1158.0,4491.0,30.0,
146400,1851.8,175.4,147.2,66.4,1158.0,4491.0,30.0,
146500,1869.1,46.8,157.4,66.4,1158.0,4491.0,30.0,
146600,1860.5,25.5,157.4,66.4,1158.0,4491.0,30.0,
146700,1861.5,23.0,157.3,68.4,1158.0,4491.0,30.0,
146900,1860.8,22.7,153.2,119.1,1158.0,4491.0,30.0,
147000,1857.6,21.4,146.0,119.1,1158.0,4491.0,30.0,
147100,1858.5,21.3,135.5,119.1,1158.0,4491.0,30.0,
147200,1857.0,25.4,119.7,119.1,1158.0,4491.0,30.0,
147300,1859.5,20.2,94.8,119.1,1158.0,4491.0,30.0,
147400,1861.8,22.2,63.2,119.1,1158.0,4491.0,30.0,
147500,1866.5,86.1,38.0,119.1,1158.0,4491.0,30.0,
147600,1871.5,110.3,61.4,119.1,1158.0,4491.0,30.0,
147700,1851.2,163.7,90.6,97.7,1158.0,4491.0,30.0,
147900,1869.7,178.6,135.3,95.7,1158.0,4491.0,30.0,
148000,1883.7,139.1,155.7,66.4,1158.0,4491.0,30.0,
148100,1849.3,61.4,168.6,66.4,1158.0,4491.0,30.0,
148200,1858.5,28.2,168.6,66.4,1158.0,4491.0,30.0,
148300,1860.4,23.0,168.7,66.4,1158.0,4491.0,30.0,
148400,1862.8,26.0,168.7,66.4,1158.0,4491.0,30.0,
148500,1858.1,27.0,167.0,99.6,1158.0,4491.0,30.0,
148600,1858.5,27.8,159.8,119.1,1158.0,4491.0,30.0,
148700,1858.5,20.3,145.3,119.1,1158.0,4491.0,30.0,
148900,1859.7,26.7,104.8,119.1,1158.0,4491.0,30.0,
149000,1861.3,20.9,71.1,119.1,1158.0,4491.0,30.0,
149100,1861.4,75.0,34.7,119.1,1158.0,4491.0,30.0,
149200,1855.2,119.2,52.0,119.1,1158.0,4491.0,30.0,
149300,1849.9,124.2,72.3,95.7,1158.0,4491.0,30.0,
149400,1859.9,151.1,103.5,95.7,1158.0,4491.0,30.0,
149500,1834.5,178.0,126.8,95.7,1158.0,4491.0,30.0,
149600,1847.1,199.2,145.5,95.7,1158.0,4491.0,30.0,
149700,1848.5,82.8,163.4,95.7,1158.0,4491.0,30.0,
149900,1860.2,21.6,163.4,95.7,1158.0,4491.0,30.0,
150000,1861.7,23.7,163.4,93.8,1158.0,4491.0,30.0,
150100,1859.9,23.4,162.4,97.7,1158.0,4491.0,30.0,
150200,1859.9,23.2,157.7,119.1,1158.0,4491.0,30.0,
150300,1861.9,32.0,149.4,119.1,1158.0,4491.0,30.0,
150400,1859.4,27.1,129.8,119.1,1158.0,4491.0,30.0,
150500,1860.0,25.0,107.3,119.1,1158.0,4491.0,30.0,
150600,1861.0,24.2,80.3,119.1,1158.0,4491.0,30.0,
150700,1866.5,57.2,32.9,119.1,1158.0,4491.0,30.0,
150900,1865.1,197.4,84.3,99.6,1158.0,4491.0,30.0,
151000,1867.5,173.7,112.8,97.7,1158.0,4491.0,30.0,
151100,1873.1,157.1,134.2,95.7,1158.0,4491.0,30.0,
151200,1862.8,149.8,155.9,66.4,1158.0,4491.0,30.0,
151300,1857.0,110.9,172.9,64.5,1158.0,4491.0,30.0,
151400,1863.5,25.8,172.8,64.5,1158.0,4491.0,30.0,
151500,1863.3,22.3,172.7,64.5,1158.0,4491.0,30.0,
151600,1859.7,20.6,172.7,66.4,1158.0,4491.0,30.0,
151700,1861.0,22.1,172.1,70.3,1158.0,4491.0,30.0,
151900,1859.9,23.0,153.6,119.1,1158.0,4491.0,30.0,
152000,1861.8,22.4,134.1,119.1,1158.0,4491.0,30.0,
152100,1861.2,20.9,112.5,119.1,1158.0,4491.0,30.0,
152200,1858.9,24.3,80.0,119.1,1158.0,4491.0,30.0,
152300,1860.9,72.0,28.0,119.1,1158.0,4491.0,30.0,
152400,1862.8,115.4,55.0,119.1,1158.0,4491.0,30.0,
152500,1869.4,149.6,89.3,95.7,1158.0,4491.0,30.0,
152600,1833.7,184.9,123.2,95.7,1158.0,4491.0,30.0,
152700,1857.0,212.5,144.9,66.4,1158.0,4491.0,30.0,
152900,1852.6,151.9,183.1,66.4,1158.0,4491.0,30.0,
153000,1842.1,27.9,185.2,66.4,1158.0,4491.0,30.0,
153100,1860.0,21.9,185.1,95.7,1158.0,4491.0,30.0,
153200,1857.4,23.8,185.1,93.8,1158.0,4491.0,30.0,
153300,1859.6,31.8,185.1,91.8,1158.0,4491.0,30.0,
153400,1860.3,22.5,179.1,119.1,1158.0,4491.0,30.0,
153500,1860.6,21.4,164.7,119.1,1158.0,4491.0,30.0,
153600,1860.5,24.6,141.2,119.1,1158.0,4491.0,30.0,
153700,1863.4,24.0,118.9,119.1,1158.0,4491.0,30.0,
153900,1861.8,37.1,40.1,119.1,1158.0,4491.0,30.0,
154000,1868.1,130.0,52.2,119.1,1158.0,4491.0,30.0,
154100,1864.9,155.0,75.7,97.7,1158.0,4491.0,30.0,
154200,1870.4,158.8,104.1,95.7,1158.0,4491.0,30.0,
154300,1874.8,162.7,139.2,95.7,1158.0,4491.0,30.0,
154400,1851.9,193.1,158.7,66.4,1158.0,4491.0,30.0,
154500,1870.5,193.6,175.5,66.4,1158.0,4491.0,30.0,
154600,1865.4,31.9,180.2,66.4,1158.0,4491.0,30.0,
154700,1860.3,24.0,180.2,64.5,1158.0,4491.0,30.0,
154900,1858.4,18.8,180.2,66.4,1158.0,4491.0,30.0,
155000,1858.4,23.9,174.8,119.1,1158.0,4491.0,30.0,
155100,1859.4,22.0,166.1,119.1,1158.0,4491.0,30.0,
155200,1859.9,19.8,149.8,119.1,1158.0,4491.0,30.0,
155300,1859.1,22.2,118.0,119.1,1158.0,4491.0,30.0,
155400,1859.4,24.1,89.8,121.1,1158.0,4491.0,30.0,
155500,1860.9,26.1,49.5,119.1,1158.0,4491.0,30.0,
155600,1870.6,86.7,43.4,119.1,1158.0,4491.0,30.0,
155700,1849.1,122.0,66.8,99.6,1158.0,4491.0,30.0,
155900,1855.7,180.5,120.6,95.7,1158.0,4491.0,30.0,
156000,1859.7,151.7,144.7,66.4,1158.0,4491.0,30.0,
156100,1842.0,164.8,165.0,66.4,1158.0,4491.0,30.0,
156200,1851.7,35.0,171.5,66.4,1158.0,4491.0,30.0,
156300,1861.2,20.3,171.5,93.8,1158.0,4491.0,30.0,
156400,1860.5,20.2,171.5,91.8,1158.0,4491.0,30.0,
156500,1858.3,19.9,171.4,91.8,1158.0,4491.0,30.0,
156600,1863.1,24.1,168.1,119.1,1158.0,4491.0,30.0,
156700,1865.2,24.1,160.2,119.1,1158.0,4491.0,30.0,
156900,1860.5,21.5,124.9,119.1,1158.0,4491.0,30.0,
157000,1861.2,25.0,96.1,119.1,1158.0,4491.0,30.0,
157100,1859.4,22.0,54.3,119.1,1158.0,4491.0,30.0,
157200,1857.0,100.6,42.0,119.1,1158.0,4491.0,30.0,
157300,1853.4,107.6,58.6,119.1,1158.0,4491.0,30.0,
157400,1866.6,139.3,86.9,97.7,1158.0,4491.0,30.0,
157500,1848.7,183.4,115.0,95.7,1158.0,4491.0,30.0,
157600,1864.9,188.8,135.5,66.4,1158.0,4491.0,30.0,
157700,1866.9,150.9,151.7,66.4,1158.0,4491.0,30.0,
157900,1859.4,20.2,161.4,66.4,1158.0,4491.0,30.0,
158000,1864.0,25.7,161.4,66.4,1158.0,4491.0,30.0,
158100,1860.4,23.0,161.5,66.4,1158.0,4491.0,30.0,
158200,1861.9,24.1,158.5,119.1,1158.0,4491.0,30.0,
158300,1859.1,22.1,153.2,119.1,1158.0,4491.0,30.0,
158400,1862.4,22.9,139.2,119.1,1158.0,4491.0,30.0,
158500,1858.5,24.0,117.1,119.1,1158.0,4491.0,30.0,
158600,1861.7,24.1,92.8,119.1,1158.0,4491.0,30.0,
158700,1859.2,23.2,63.0,119.1,1158.0,4491.0,30.0,
158900,1864.9,193.0,82.2,119.1,1158.0,4491.0,30.0,
159000,1868.7,194.6,112.0,95.7,1158.0,4491.0,30.0,
159100,1869.3,166.1,136.1,66.4,1158.0,4491.0,30.0,
159200,1863.2,146.8,159.4,66.4,1158.0,4491.0,30.0,
159300,1849.5,182.1,174.7,64.5,1158.0,4491.0,30.0,
159400,1865.5,48.7,185.0,64.5,1158.0,4491.0,30.0,
159500,1859.9,22.5,185.1,64.5,1158.0,4491.0,30.0,
159600,1862.5,25.2,185.1,64.5,1158.0,4491.0,30.0,
159700,1858.9,27.5,185.0,64.5,1158.0,4491.0,30.0,
159900,1859.0,22.1,168.5,119.1,1158.0,4491.0,30.0,
160000,1861.7,21.1,150.4,119.1,1158.0,4491.0,30.0,
160100,1861.2,18.9,128.8,119.1,1158.0,4491.0,30.0,
160200,1859.6,20.7,98.4,119.1,1158.0,4491.0,30.0,
160300,1860.0,27.2,67.6,121.1,1158.0,4491.0,30.0,
160400,1860.5,87.8,39.1,121.1,1158.0,4491.0,30.0,
160500,1850.8,105.0,61.8,119.1,1158.0,4491.0,30.0,
160600,1837.8,135.5,81.3,119.1,1158.0,4491.0,30.0,
160700,1856.7,169.1,98.7,97.7,1158.0,4491.0,30.0,
160900,1877.3,152.8,146.0,95.7,1158.0,4491.0,30.0,
161000,1847.9,61.9,159.7,95.7,1158.0,4491.0,30.0,
161100,1858.5,19.8,159.7,66.4,1158.0,4491.0,30.0,
161200,1861.3,18.7,159.7,66.4,1158.0,4491.0,30.0,
161300,1861.8,20.8,159.6,68.4,1158.0,4491.0,30.0,
161400,1863.8,24.9,157.5,119.1,1158.0,4491.0,30.0,
161500,1859.9,22.2,150.0,119.1,1158.0,4491.0,30.0,
161600,1863.1,20.2,140.4,119.1,1158.0,4491.0,30.0,
161700,1859.9,22.2,128.8,119.1,1158.0,4491.0,30.0,
161900,1858.4,23.5,70.9,119.1,1158.0,4491.0,30.0,
162000,1858.3,137.5,47.1,119.1,1158.0,4491.0,30.0,
162100,1869.3,146.2,75.5,91.8,1158.0,4491.0,30.0,
162200,1867.1,160.6,98.5,74.2,1158.0,4491.0,30.0,
162300,1871.4,164.4,133.1,95.7,1158.0,4491.0,30.0,
162400,1847.5,188.4,155.8,95.7,1158.0,4491.0,30.0,
162500,1866.8,190.3,172.0,66.4,1158.0,4491.0,30.0,
162600,1864.2,74.3,185.8,66.4,1158.0,4491.0,30.0,
162700,1859.8,23.3,185.8,66.4,1158.0,4491.0,30.0,
162900,1859.2,27.0,185.7,66.4,1158.0,4491.0,30.0,
163000,1861.6,22.8,182.1,97.7,1158.0,4491.0,30.0,
163100,1861.3,21.7,172.3,119.1,1158.0,4491.0,30.0,
163200,1864.0,21.9,160.4,119.1,1158.0,4491.0,30.0,
163300,1861.0,23.0,133.3,119.1,1158.0,4491.0,30.0,
163400,1859.9,24.3,105.8,119.1,1158.0,4491.0,30.0,
163500,1864.2,25.1,76.6,119.1,1158.0,4491.0,30.0,
163600,1876.4,74.6,39.7,119.1,1158.0,4491.0,30.0,
163700,1836.8,162.0,83.3,97.7,1158.0,4491.0,30.0,
163900,1856.0,185.2,137.8,68.4,1158.0,4491.0,30.0,
164000,1857.8,167.5,160.9,66.4,1158.0,4491.0,30.0,
164100,1844.4,158.3,180.6,66.4,1158.0,4491.0,30.0,
164200,1833.7,108.9,196.4,66.4,1158.0,4491.0,30.0,
164300,1864.5,29.7,196.4,66.4,1158.0,4491.0,30.0,
164400,1862.3,25.2,196.4,91.8,1158.0,4491.0,30.0,
164500,1861.1,29.0,196.5,85.9,1158.0,4491.0,30.0,
164600,1859.3,23.2,194.9,93.8,1158.0,4491.0,30.0,
164700,1860.0,23.8,180.6,119.1,1158.0,4491.0,30.0,
164900,1860.5,20.3,143.3,119.1,1158.0,4491.0,30.0,
165000,1860.9,21.7,116.8,119.1,1158.0,4491.0,30.0,
165100,1859.2,24.1,83.4,119.1,1158.0,4491.0,30.0,
165200,1862.2,97.5,30.7,119.1,1158.0,4491.0,30.0,
165300,1859.8,136.1,67.8,99.6,1158.0,4491.0,30.0,
165400,1871.6,127.1,95.5,91.8,1158.0,4491.0,30.0,
165500,1847.7,165.6,118.0,87.9,1158.0,4491.0,30.0,
165600,1867.8,205.7,139.1,66.4,1158.0,4491.0,30.0,
165700,1869.2,153.5,155.9,66.4,1158.0,4491.0,30.0,
165900,1841.8,28.7,174.6,66.4,1158.0,4491.0,30.0,
166000,1861.4,25.8,174.7,66.4,1158.0,4491.0,30.0,
166100,1861.6,19.7,174.6,66.4,1158.0,4491.0,30.0,
166200,1859.7,24.5,174.6,72.3,1158.0,4491.0,30.0,
166300,1860.1,19.0,163.8,119.1,1158.0,4491.0,30.0,
166400,1858.4,19.8,149.3,119.1,1158.0,4491.0,30.0,
166500,1862.3,23.9,132.0,119.1,1158.0,4491.0,30.0,
166600,1860.7,26.8,109.6,119.1,1158.0,4491.0,30.0,
166700,1856.6,24.9,84.1,119.1,1158.0,4491.0,30.0,
166900,1865.9,104.1,46.6,119.1,1158.0,4491.0,30.0,
167000,1866.5,120.4,60.7,95.7,1158.0,4491.0,30.0,
167100,1864.6,124.7,80.9,97.7,1158.0,4491.0,30.0,
167200,1873.1,111.5,97.4,97.7,1158.0,4491.0,30.0,
167300,1848.7,153.4,112.0,95.7,1158.0,4491.0,30.0,
167400,1859.2,170.8,129.1,95.7,1158.0,4491.0,30.0,
167500,1861.1,26.0,134.2,95.7,1158.0,4491.0,30.0,
167600,1860.5,18.9,134.0,91.8,1158.0,4491.0,30.0,
167700,1861.4,23.7,134.0,85.9,1158.0,4491.0,30.0,
167900,1859.2,25.8,129.2,119.1,1158.0,4491.0,30.0,
168000,1860.4,26.2,123.1,119.1,1158.0,4491.0,30.0,
168100,1860.5,23.5,111.0,119.1,1158.0,4491.0,30.0,
168200,1860.1,21.4,96.8,119.1,1158.0,4491.0,30.0,
168300,1860.1,24.9,79.6,119.1,1158.0,4491.0,30.0,
168400,1858.4,19.4,47.3,119.1,1158.0,4491.0,30.0,
168500,1858.8,99.2,49.7,119.1,1158.0,4491.0,30.0,
168600,1835.1,134.0,71.9,117.2,1158.0,4491.0,30.0,
168700,1847.7,156.1,93.2,97.7,1158.0,4491.0,30.0,
168900,1856.2,140.3,128.1,97.7,1158.0,4491.0,30.0,
169000,1848.7,145.1,147.6,97.7,1158.0,4491.0,30.0,
169100,1858.4,31.9,153.5,97.7,1158.0,4491.0,30.0,
169200,1858.8,25.2,153.4,95.7,1158.0,4491.0,30.0,
169300,1861.8,22.8,153.4,93.8,1158.0,4491.0,30.0,
169400,1859.9,25.1,153.4,91.8,1158.0,4491.0,30.0,
169500,1860.7,22.1,148.4,119.1,1158.0,4491.0,30.0,
169600,1864.1,26.0,139.1,119.1,1158.0,4491.0,30.0,
169700,1860.7,24.9,125.8,119.1,1158.0,4491.0,30.0,
169900,1859.3,23.6,89.9,119.1,1158.0,4491.0,30.0,
170000,1861.3,23.2,51.8,119.1,1158.0,4491.0,30.0,
170100,1865.9,159.2,56.9,119.1,1158.0,4491.0,30.0,
170200,1861.1,149.5,91.9,97.7,1158.0,4491.0,30.0,
170300,1877.1,144.4,120.2,95.7,1158.0,4491.0,30.0,
170400,1851.9,182.8,142.9,95.7,1158.0,4491.0,30.0,
170500,1868.2,177.0,157.8,95.7,1158.0,4491.0,30.0,
170600,1874.0,150.0,172.0,66.4,1158.0,4491.0,30.0,
170700,1857.3,36.4,180.3,66.4,1158.0,4491.0,30.0,
170900,1861.5,23.5,180.2,66.4,1158.0,4491.0,30.0,
171000,1863.3,19.4,180.2,66.4,1158.0,4491.0,30.0,
171100,1860.3,21.9,173.6,119.1,1158.0,4491.0,30.0,
171200,1860.7,22.6,157.9,119.1,1158.0,4491.0,30.0,
171300,1860.5,24.6,137.6,119.1,1158.0,4491.0,30.0,
171400,1860.2,21.0,113.9,119.1,1158.0,4491.0,30.0,
171500,1861.2,24.6,91.9,119.1,1158.0,4491.0,30.0,
171600,1859.5,21.8,61.2,119.1,1158.0,4491.0,30.0,
171700,1852.3,164.8,65.0,119.1,1158.0,4491.0,30.0,
171900,1859.9,176.7,120.6,66.4,1158.0,4491.0,30.0,
172000,1863.3,151.4,142.9,66.4,1158.0,4491.0,30.0,
172100,1850.6,141.0,161.5,64.5,1158.0,4491.0,30.0,
172200,1842.6,193.9,175.3,64.5,1158.0,4491.0,30.0,
172300,1855.3,51.4,185.0,66.4,1158.0,4491.0,30.0,
172400,1859.8,26.5,185.0,70.3,1158.0,4491.0,30.0,
172500,1862.3,19.9,185.0,87.9,1158.0,4491.0,30.0,
172600,1859.1,21.3,185.0,89.8,1158.0,4491.0,30.0,
172700,1861.3,27.2,175.6,119.1,1158.0,4491.0,30.0,
172900,1858.0,20.8,143.3,119.1,1158.0,4491.0,30.0,
173000,1863.1,21.2,121.1,119.1,1158.0,4491.0,30.0,
173100,1858.9,20.7,94.9,119.1,1158.0,4491.0,30.0,
173200,1860.1,18.9,65.8,119.1,1158.0,4491.0,30.0,
173300,1865.1,124.6,43.9,119.1,1158.0,4491.0,30.0,
173400,1876.7,135.3,90.1,95.7,1158.0,4491.0,30.0,
173500,1846.6,177.2,121.2,95.7,1158.0,4491.0,30.0,
173600,1868.4,185.2,139.5,95.7,1158.0,4491.0,30.0,
173700,1868.1,160.8,156.4,66.4,1158.0,4491.0,30.0,
173900,1847.9,55.3,183.7,64.5,1158.0,4491.0,30.0,
174000,1863.3,21.5,183.6,66.4,1158.0,4491.0,30.0,
174100,1859.5,23.3,183.6,66.4,1158.0,4491.0,30.0,
174200,1859.2,24.5,183.7,68.4,1158.0,4491.0,30.0,
174300,1863.5,22.6,180.7,119.1,1158.0,4491.0,30.0,
174400,1861.6,18.7,162.6,119.1,1158.0,4491.0,30.0,
174500,1859.9,29.1,141.1,119.1,1158.0,4491.0,30.0,
174600,1857.9,27.2,123.2,119.1,1158.0,4491.0,30.0,
174700,1859.2,23.8,100.8,119.1,1158.0,4491.0,30.0,
174900,1865.8,119.7,40.6,119.1,1158.0,4491.0,30.0,
175000,1865.5,149.8,66.6,119.1,1158.0,4491.0,30.0,
175100,1859.4,136.3,93.2,97.7,1158.0,4491.0,30.0,
175200,1871.3,120.9,114.0,95.7,1158.0,4491.0,30.0,
175300,1847.8,177.2,135.9,95.7,1158.0,4491.0,30.0,
175400,1855.8,172.0,150.3,95.7,1158.0,4491.0,30.0,
175500,1859.6,74.1,164.5,66.4,1158.0,4491.0,30.0,
175600,1860.4,20.1,164.4,66.4,1158.0,4491.0,30.0,
175700,1859.9,22.0,164.3,66.4,1158.0,4491.0,30.0,
175900,1857.5,20.4,162.0,76.2,1158.0,4491.0,30.0,
176000,1860.2,23.7,153.2,119.1,1158.0,4491.0,30.0,
176100,1859.0,27.8,138.7,119.1,1158.0,4491.0,30.0,
176200,1860.0,26.4,122.2,119.1,1158.0,4491.0,30.0,
176300,1858.0,24.7,97.5,119.1,1158.0,4491.0,30.0,
176400,1859.5,25.7,73.2,119.1,1158.0,4491.0,30.0,
176500,1867.3,83.1,37.5,119.1,1158.0,4491.0,30.0,
176600,1843.8,133.2,66.2,119.1,1158.0,4491.0,30.0,
176700,1857.2,151.7,86.5,97.7,1158.0,4491.0,30.0,
176900,1873.8,136.3,129.5,97.7,1158.0,4491.0,30.0,
177000,1859.5,144.1,148.8,95.7,1158.0,4491.0,30.0,
177100,1857.6,94.6,163.0,95.7,1158.0,4491.0,30.0,
177200,1861.2,25.3,163.0,66.4,1158.0,4491.0,30.0,
177300,1861.7,21.7,162.9,66.4,1158.0,4491.0,30.0,
177400,1862.1,30.0,163.0,66.4,1158.0,4491.0,30.0,
177500,1860.3,26.1,161.4,91.8,1158.0,4491.0,30.0,
177600,1861.3,20.9,152.0,119.1,1158.0,4491.0,30.0,
177700,1857.5,19.1,141.4,119.1,1158.0,4491.0,30.0,
177900,1858.7,26.3,103.5,119.1,1158.0,4491.0,30.0,
178000,1861.5,24.0,73.2,121.1,1158.0,4491.0,30.0,
178100,1862.5,68.2,30.3,119.1,1158.0,4491.0,30.0,
178200,1867.8,103.3,58.2,119.1,1158.0,4491.0,30.0,
178300,1880.3,116.0,80.7,119.1,1158.0,4491.0,30.0,
178400,1851.8,187.4,110.2,99.6,1158.0,4491.0,30.0,
178500,1867.0,183.9,130.8,97.7,1158.0,4491.0,30.0,
178600,1874.0,146.3,147.7,97.7,1158.0,4491.0,30.0,
178700,1878.9,120.2,162.0,95.7,1158.0,4491.0,30.0,
178900,1861.9,21.6,163.2,66.4,1158.0,4491.0,30.0,
179000,1859.9,23.6,163.2,66.4,1158.0,4491.0,30.0,
179100,1860.3,26.3,163.3,78.1,1158.0,4491.0,30.0,
179200,1862.8,30.2,155.5,117.2,1158.0,4491.0,30.0,
179300,1859.1,27.6,145.2,119.1,1158.0,4491.0,30.0,
179400,1862.1,24.3,124.3,119.1,1158.0,4491.0,30.0,
179500,1859.3,23.8,102.6,119.1,1158.0,4491.0,30.0,
179600,1859.1,22.2,75.8,119.1,1158.0,4491.0,30.0,
179700,1860.8,60.3,36.7,119.1,1158.0,4491.0,30.0,
179900,1849.6,151.4,78.7,97.7,1158.0,4491.0,30.0,
180000,1847.8,134.5,102.7,95.7,1158.0,4491.0,30.0,
180100,1850.0,150.5,129.9,95.7,1158.0,4491.0,30.0,
180200,1840.4,178.6,148.0,95.7,1158.0,4491.0,30.0,
180300,1856.7,177.4,162.3,95.7,1158.0,4491.0,30.0,
180400,1863.3,32.7,166.9,95.7,1158.0,4491.0,30.0,
180500,1860.5,26.3,166.9,70.3,1158.0,4491.0,30.0,
180600,1859.6,26.1,167.0,66.4,1158.0,4491.0,30.0,
180700,1861.0,26.6,167.0,66.4,1158.0,4491.0,30.0,
180900,1860.6,21.2,150.8,101.6,1158.0,4491.0,30.0,
181000,1860.6,21.5,135.4,91.8,1158.0,4491.0,30.0,
181100,1859.4,26.3,109.6,91.8,1158.0,4491.0,30.0,
181200,1858.7,21.3,83.5,119.1,1158.0,4491.0,30.0,
181300,1861.9,24.0,50.3,121.1,1158.0,4491.0,30.0,
181400,1874.2,110.5,58.6,119.1,1158.0,4491.0,30.0,
181500,1852.2,159.7,86.6,97.7,1158.0,4491.0,30.0,
181600,1865.5,188.8,106.0,95.7,1158.0,4491.0,30.0,
181700,1868.3,168.2,129.1,95.7,1158.0,4491.0,30.0,
181900,1855.0,148.4,165.4,68.4,1158.0,4491.0,30.0,
182000,1858.7,31.8,169.8,66.4,1158.0,4491.0,30.0,
182100,1860.9,24.7,169.7,66.4,1158.0,4491.0,30.0,
182200,1861.3,19.9,169.7,66.4,1158.0,4491.0,30.0,
182300,1859.5,20.3,169.6,66.4,1158.0,4491.0,30.0,
182400,1860.9,24.1,162.3,119.1,1158.0,4491.0,30.0,
182500,1861.1,24.9,149.2,119.1,1158.0,4491.0,30.0,
182600,1860.2,24.1,136.1,119.1,1158.0,4491.0,30.0,
182700,1860.9,22.0,114.3,119.1,1158.0,4491.0,30.0,
182900,1865.8,21.0,48.2,119.1,1158.0,4491.0,30.0,
183000,1868.5,98.5,42.7,119.1,1158.0,4491.0,30.0,
183100,1858.7,88.1,59.5,117.2,1158.0,4491.0,30.0,
183200,1877.1,128.8,82.1,97.7,1158.0,4491.0,30.0,
183300,1848.9,175.5,111.0,97.7,1158.0,4491.0,30.0,
183400,1859.8,176.8,129.1,97.7,1158.0,4491.0,30.0,
183500,1860.8,154.0,145.4,89.8,1158.0,4491.0,30.0,
183600,1855.7,46.6,154.3,66.4,1158.0,4491.0,30.0,
183700,1860.1,25.5,154.5,66.4,1158.0,4491.0,30.0,
183900,1859.9,22.3,154.4,70.3,1158.0,4491.0,30.0,
184000,1861.0,28.3,151.3,119.1,1158.0,4491.0,30.0,
184100,1859.5,22.9,145.7,119.1,1158.0,4491.0,30.0,
184200,1857.5,27.0,134.2,119.1,1158.0,4491.0,30.0,
184300,1861.0,21.6,111.7,119.1,1158.0,4491.0,30.0,
184400,1862.3,26.1,90.4,119.1,1158.0,4491.0,30.0,
184500,1860.2,26.8,60.9,119.1,1158.0,4491.0,30.0,
184600,1853.2,112.4,46.8,119.1,1158.0,4491.0,30.0,
184700,1847.9,144.5,68.9,119.1,1158.0,4491.0,30.0,
184900,1855.3,100.4,104.6,97.7,1158.0,4491.0,30.0,
185000,1864.4,138.3,123.9,97.7,1158.0,4491.0,30.0,
185100,1854.5,163.5,141.5,97.7,1158.0,4491.0,30.0,
185200,1866.8,44.8,150.4,95.7,1158.0,4491.0,30.0,
185300,1856.8,20.5,150.3,95.7,1158.0,4491.0,30.0,
185400,1861.3,25.3,150.1,95.7,1158.0,4491.0,30.0,
185500,1862.1,26.3,150.2,93.8,1158.0,4491.0,30.0,
185600,1861.0,24.4,146.3,119.1,1158.0,4491.0,30.0,
185700,1859.7,26.0,137.2,119.1,1158.0,4491.0,30.0,
185900,1859.3,22.7,112.4,119.1,1158.0,4491.0,30.0,
186000,1860.3,25.5,90.6,119.1,1158.0,4491.0,30.0,
186100,1861.0,24.2,59.3,119.1,1158.0,4491.0,30.0,
186200,1867.0,76.9,38.3,119.1,1158.0,4491.0,30.0,
186300,1874.6,104.0,59.9,119.1,1158.0,4491.0,30.0,
186400,1858.8,141.8,80.2,115.2,1158.0,4491.0,30.0,
186500,1867.5,148.5,94.7,97.7,1158.0,4491.0,30.0,
186600,1871.1,135.9,109.5,97.7,1158.0,4491.0,30.0,
186700,1884.3,131.6,129.5,97.7,1158.0,4491.0,30.0,
186900,1861.8,24.8,143.8,95.7,1158.0,4491.0,30.0,
187000,1858.3,27.5,143.7,93.8,1158.0,4491.0,30.0,
187100,1860.2,23.2,143.7,80.1,1158.0,4491.0,30.0,
187200,1858.3,24.7,141.8,103.5,1158.0,4491.0,30.0,
187300,1862.1,21.6,134.1,119.1,1158.0,4491.0,30.0,
187400,1862.0,26.0,123.2,119.1,1158.0,4491.0,30.0,
187500,1859.8,27.0,112.3,121.1,1158.0,4491.0,30.0,
187600,1859.4,21.0,97.9,119.1,1158.0,4491.0,30.0,
187700,1861.2,24.6,69.3,119.1,1158.0,4491.0,30.0,
187900,1846.4,145.1,68.9,119.1,1158.0,4491.0,30.0,
188000,1845.8,141.0,96.5,97.7,1158.0,4491.0,30.0,
188100,1855.3,155.4,128.6,95.7,1158.0,4491.0,30.0,
188200,1848.2,173.7,147.6,97.7,1158.0,4491.0,30.0,
188300,1862.7,176.0,162.1,95.7,1158.0,4491.0,30.0,
188400,1869.3,78.3,176.2,95.7,1158.0,4491.0,30.0,
188500,1859.3,25.2,176.1,66.4,1158.0,4491.0,30.0,
188600,1861.1,24.4,176.2,66.4,1158.0,4491.0,30.0,
188700,1857.5,27.3,176.1,66.4,1158.0,4491.0,30.0,
188900,1862.9,24.8,164.9,119.1,1158.0,4491.0,30.0,
189000,1863.4,25.5,150.5,119.1,1158.0,4491.0,30.0,
189100,1858.3,25.8,124.2,119.1,1158.0,4491.0,30.0,
189200,1859.6,28.7,100.9,119.1,1158.0,4491.0,30.0,
189300,1861.0,24.0,75.7,119.1,1158.0,4491.0,30.0,
189400,1875.2,78.8,38.1,119.1,1158.0,4491.0,30.0,
189500,1858.2,129.9,64.4,119.1,1158.0,4491.0,30.0,
189600,1872.5,154.1,85.3,101.6,1158.0,4491.0,30.0,
189700,1868.9,178.6,109.7,97.7,1158.0,4491.0,30.0,
189900,1849.1,164.3,162.0,97.7,1158.0,4491.0,30.0,
190000,1860.7,99.8,176.9,95.7,1158.0,4491.0,30.0,
190100,1865.6,29.1,176.9,66.4,1158.0,4491.0,30.0,
190200,1861.4,26.5,176.9,66.4,1158.0,4491.0,30.0,
190300,1857.1,21.3,176.8,68.4,1158.0,4491.0,30.0,
190400,1859.0,24.2,175.4,89.8,1158.0,4491.0,30.0,
190500,1861.9,22.1,167.5,119.1,1158.0,4491.0,30.0,
190600,1860.1,20.3,157.8,119.1,1158.0,4491.0,30.0,
190700,1858.8,22.4,141.9,121.1,1158.0,4491.0,30.0,
190900,1859.3,29.4,77.0,119.1,1158.0,4491.0,30.0,
191000,1860.6,72.7,28.7,119.1,1158.0,4491.0,30.0,
191100,1853.9,93.9,52.7,105.5,1158.0,4491.0,30.0,
191200,1862.4,129.6,78.3,97.7,1158.0,4491.0,30.0,
191300,1829.2,213.8,112.7,97.7,1158.0,4491.0,30.0,
191400,1847.5,207.9,140.1,97.7,1158.0,4491.0,30.0,
191500,1849.3,171.7,161.6,97.7,1158.0,4491.0,30.0,
191600,1869.3,137.3,179.4,95.7,1158.0,4491.0,30.0,
191700,1839.8,25.5,181.2,95.7,1158.0,4491.0,30.0,
191900,1861.7,27.4,181.2,93.8,1158.0,4491.0,30.0,
192000,1857.2,24.4,181.2,91.8,1158.0,4491.0,30.0,
192100,1860.7,23.8,175.7,119.1,1158.0,4491.0,30.0,
192200,1861.3,24.6,165.9,119.1,1158.0,4491.0,30.0,
192300,1857.0,18.7,144.8,119.1,1158.0,4491.0,30.0,
192400,1860.8,23.5,118.4,119.1,1158.0,4491.0,30.0,
192500,1862.2,24.2,86.9,119.1,1158.0,4491.0,30.0,
192600,1862.1,74.1,38.6,119.1,1158.0,4491.0,30.0,
192700,1864.3,185.4,75.3,119.1,1158.0,4491.0,30.0,
192900,1881.1,149.2,132.4,95.7,1158.0,4491.0,30.0,
193000,1856.6,162.7,157.7,95.7,1158.0,4491.0,30.0,
193100,1853.2,203.8,175.7,66.4,1158.0,4491.0,30.0,
193200,1867.8,203.2,192.0,64.5,1158.0,4491.0,30.0,
193300,1861.6,29.7,197.2,64.5,1158.0,4491.0,30.0,
193400,1862.6,27.6,197.2,64.5,1158.0,4491.0,30.0,
193500,1862.2,24.0,197.2,64.5,1158.0,4491.0,30.0,
193600,1858.9,23.5,197.2,64.5,1158.0,4491.0,30.0,
193700,1862.2,25.4,184.6,119.1,1158.0,4491.0,30.0,
193900,1859.4,21.7,149.0,119.1,1158.0,4491.0,30.0,
194000,1858.8,19.6,121.9,119.1,1158.0,4491.0,30.0,
194100,1861.5,24.5,94.1,119.1,1158.0,4491.0,30.0,
194200,1858.8,20.0,53.1,119.1,1158.0,4491.0,30.0,
194300,1873.0,121.7,65.7,119.1,1158.0,4491.0,30.0,
194400,1845.7,164.1,98.6,93.8,1158.0,4491.0,30.0,
194500,1863.9,199.2,123.2,89.8,1158.0,4491.0,30.0,
194600,1858.3,162.9,143.4,66.4,1158.0,4491.0,30.0,
194700,1872.1,139.0,162.7,66.4,1158.0,4491.0,30.0,
194900,1856.0,35.1,186.6,64.5,1158.0,4491.0,30.0,
195000,1862.3,25.9,186.6,66.4,1158.0,4491.0,30.0,
195100,1861.3,22.5,186.6,66.4,1158.0,4491.0,30.0,
195200,1858.4,23.3,186.6,74.2,1158.0,4491.0,30.0,
195300,1862.2,26.8,177.1,119.1,1158.0,4491.0,30.0,
195400,1861.5,25.9,161.1,119.1,1158.0,4491.0,30.0,
195500,1860.3,21.0,143.1,119.1,1158.0,4491.0,30.0,
195600,1861.3,21.1,122.8,119.1,1158.0,4491.0,30.0,
195700,1859.7,24.1,95.8,119.1,1158.0,4491.0,30.0,
195900,1855.7,145.8,53.9,119.1,1158.0,4491.0,30.0,
196000,1849.8,136.1,84.3,95.7,1158.0,4491.0,30.0,
196100,1862.1,150.7,116.1,95.7,1158.0,4491.0,30.0,
196200,1849.3,195.9,139.7,95.7,1158.0,4491.0,30.0,
196300,1865.2,188.9,159.4,95.7,1158.0,4491.0,30.0,
196400,1870.4,162.9,176.1,66.4,1158.0,4491.0,30.0,
196500,1860.0,38.9,184.8,66.4,1158.0,4491.0,30.0,
196600,1859.0,25.9,184.9,66.4,1158.0,4491.0,30.0,
196700,1858.1,31.2,185.0,66.4,1158.0,4491.0,30.0,
196900,1855.3,23.5,179.5,115.2,1158.0,4491.0,30.0,
197000,1859.4,25.5,167.5,119.1,1158.0,4491.0,30.0,
197100,1859.2,24.4,147.2,119.1,1158.0,4491.0,30.0,
197200,1860.5,22.4,125.1,119.1,1158.0,4491.0,30.0,
197300,1857.5,20.9,98.6,119.1,1158.0,4491.0,30.0,
197400,1859.6,23.2,63.9,119.1,1158.0,4491.0,30.0,
197500,1861.7,144.9,59.4,119.1,1158.0,4491.0,30.0,
197600,1865.0,212.0,95.6,97.7,1158.0,4491.0,30.0,
197700,1866.5,180.8,122.1,95.7,1158.0,4491.0,30.0,
197900,1854.7,171.1,166.5,66.4,1158.0,4491.0,30.0,
198000,1857.1,199.6,181.3,64.5,1158.0,4491.0,30.0,
198100,1862.8,49.8,191.1,64.5,1158.0,4491.0,30.0,
198200,1859.5,22.6,191.1,64.5,1158.0,4491.0,30.0,
198300,1859.5,22.9,191.1,66.4,1158.0,4491.0,30.0,
198400,1857.7,23.9,191.2,66.4,1158.0,4491.0,30.0,
198500,1860.9,23.0,184.3,95.7,1158.0,4491.0,30.0,
198600,1862.0,24.3,168.4,119.1,1158.0,4491.0,30.0,
198700,1860.8,23.5,150.1,119.1,1158.0,4491.0,30.0,
198900,1859.6,26.3,98.4,119.1,1158.0,4491.0,30.0,
199000,1860.0,21.8,66.9,119.1,1158.0,4491.0,30.0,
199100,1851.9,100.8,39.4,119.1,1158.0,4491.0,30.0,
199200,1856.9,139.8,75.1,97.7,1158.0,4491.0,30.0,
199300,1832.8,184.1,102.9,95.7,1158.0,4491.0,30.0,
199400,1847.7,220.0,133.0,95.7,1158.0,4491.0,30.0,
199500,1851.4,169.8,155.6,95.7,1158.0,4491.0,30.0,
199600,1875.3,151.8,176.3,95.7,1158.0,4491.0,30.0,
199700,1838.7,64.7,189.0,66.4,1158.0,4491.0,30.0,
199900,1859.9,24.4,189.2,66.4,1158.0,4491.0,30.0,
200000,1859.8,26.4,189.2,66.4,1158.0,4491.0,30.0,
200100,1860.5,26.1,187.4,95.7,1158.0,4491.0,30.0,
200200,1861.2,28.7,176.1,119.1,1158.0,4491.0,30.0,
200300,1860.0,31.6,161.5,119.1,1158.0,4491.0,30.0,
200400,1860.9,26.2,137.9,119.1,1158.0,4491.0,30.0,
200500,1858.0,24.4,111.8,119.1,1158.0,4491.0,30.0,
200600,1862.1,21.2,74.8,119.1,1158.0,4491.0,30.0,
200700,1865.8,144.6,46.4,119.1,1158.0,4491.0,30.0,
200900,1869.0,131.4,92.8,95.7,1158.0,4491.0,30.0,
201000,1864.0,166.7,126.9,97.7,1158.0,4491.0,30.0,
201100,1859.1,201.7,149.1,97.7,1158.0,4491.0,30.0,
201200,1866.3,190.2,167.2,95.7,1158.0,4491.0,30.0,
201300,1865.4,75.9,182.7,66.4,1158.0,4491.0,30.0,
201400,1865.1,23.4,182.5,66.4,1158.0,4491.0,30.0,
201500,1861.2,25.2,182.6,66.4,1158.0,4491.0,30.0,
201600,1862.7,25.3,182.7,66.4,1158.0,4491.0,30.0,
201700,1862.0,22.3,179.4,70.3,1158.0,4491.0,30.0,
201900,1859.4,25.6,160.2,119.1,1158.0,4491.0,30.0,
202000,1859.1,21.5,134.9,119.1,1158.0,4491.0,30.0,
202100,1860.0,23.5,109.8,119.1,1158.0,4491.0,30.0,
202200,1860.8,22.4,79.5,119.1,1158.0,4491.0,30.0,
202300,1878.9,99.0,46.0,111.3,1158.0,4491.0,30.0,
202400,1842.8,190.1,97.9,85.9,1158.0,4491.0,30.0,
202500,1861.5,242.0,131.8,68.4,1158.0,4491.0,30.0,
202600,1857.2,184.8,156.2,66.4,1158.0,4491.0,30.0,
202700,1876.7,165.1,179.3,64.5,1158.0,4491.0,30.0,
202900,1846.5,114.3,213.2,64.5,1158.0,4491.0,30.0,
203000,1866.5,30.5,213.3,64.5,1158.0,4491.0,30.0,
203100,1861.6,20.6,213.3,66.4,1158.0,4491.0,30.0,
203200,1859.8,21.9,213.3,66.4,1158.0,4491.0,30.0,
203300,1859.9,27.7,210.3,70.3,1158.0,4491.0,30.0,
203400,1859.9,27.7,191.9,119.1,1158.0,4491.0,30.0,
203500,1860.8,25.3,170.4,119.1,1158.0,4491.0,30.0,
203600,1861.0,23.1,148.4,119.1,1158.0,4491.0,30.0,
203700,1860.9,27.3,119.4,119.1,1158.0,4491.0,30.0,
203900,1858.5,76.6,30.4,119.1,1158.0,4491.0,30.0,
204000,1843.2,133.1,66.2,119.1,1158.0,4491.0,30.0,
204100,1856.3,150.4,103.6,99.6,1158.0,4491.0,30.0,
204200,1842.8,194.1,129.7,97.7,1158.0,4491.0,30.0,
204300,1860.9,201.0,150.7,95.7,1158.0,4491.0,30.0,
204400,1869.0,163.3,167.8,66.4,1158.0,4491.0,30.0,
204500,1884.4,149.0,187.6,64.5,1158.0,4491.0,30.0,
204600,1840.3,24.1,189.5,64.5,1158.0,4491.0,30.0,
204700,1860.8,27.5,189.5,64.5,1158.0,4491.0,30.0,
204900,1860.3,20.6,189.5,66.4,1158.0,4491.0,30.0,
205000,1861.1,21.8,180.1,119.1,1158.0,4491.0,30.0,
205100,1858.8,21.9,161.5,119.1,1158.0,4491.0,30.0,
205200,1862.9,22.8,141.4,119.1,1158.0,4491.0,30.0,
205300,1857.3,21.7,118.6,119.1,1158.0,4491.0,30.0,
205400,1860.3,22.4,92.8,119.1,1158.0,4491.0,30.0,
205500,1858.5,62.4,39.5,119.1,1158.0,4491.0,30.0,
205600,1867.9,155.7,65.6,119.1,1158.0,4491.0,30.0,
205700,1867.1,145.0,89.5,97.7,1158.0,4491.0,30.0,
205900,1858.5,171.1,140.6,97.7,1158.0,4491.0,30.0,
206000,1858.5,219.6,160.8,95.7,1158.0,4491.0,30.0,
206100,1868.2,220.0,180.7,64.5,1158.0,4491.0,30.0,
206200,1865.4,32.3,187.3,64.5,1158.0,4491.0,30.0,
206300,1865.0,26.7,187.4,64.5,1158.0,4491.0,30.0,
206400,1863.0,22.9,187.4,64.5,1158.0,4491.0,30.0,
206500,1858.2,27.7,187.5,66.4,1158.0,4491.0,30.0,
206600,1863.6,21.2,178.0,119.1,1158.0,4491.0,30.0,
206700,1859.7,23.6,167.2,119.1,1158.0,4491.0,30.0,
206900,1860.7,21.9,127.4,119.1,1158.0,4491.0,30.0,
207000,1856.8,21.7,100.7,119.1,1158.0,4491.0,30.0,
207100,1860.2,24.9,57.6,119.1,1158.0,4491.0,30.0,
207200,1868.7,109.9,61.6,103.5,1158.0,4491.0,30.0,
207300,1843.2,179.0,92.1,93.8,1158.0,4491.0,30.0,
207400,1856.5,198.4,119.5,93.8,1158.0,4491.0,30.0,
207500,1851.3,163.7,138.7,66.4,1158.0,4491.0,30.0,
207600,1861.0,157.9,159.2,66.4,1158.0,4491.0,30.0,
207700,1829.3,179.8,175.4,64.5,1158.0,4491.0,30.0,
207900,1859.5,18.3,180.0,66.4,1158.0,4491.0,30.0,
208000,1861.9,23.0,180.0,76.2,1158.0,4491.0,30.0,
208100,1861.8,21.1,180.1,82.0,1158.0,4491.0,30.0,
208200,1863.0,23.2,171.9,119.1,1158.0,4491.0,30.0,
208300,1863.5,19.2,157.7,119.1,1158.0,4491.0,30.0,
208400,1859.0,20.2,138.0,119.1,1158.0,4491.0,30.0,
208500,1860.7,20.8,118.5,119.1,1158.0,4491.0,30.0,
208600,1860.2,20.4,89.0,119.1,1158.0,4491.0,30.0,
208700,1858.4,19.1,49.8,119.1,1158.0,4491.0,30.0,
208900,1864.5,112.5,58.7,127.0,1158.0,4491.0,30.0,
209000,1862.1,173.3,106.4,121.1,1158.0,4491.0,30.0,
209100,1856.3,207.1,132.4,95.7,1158.0,4491.0,30.0,
209200,1867.1,206.0,153.9,66.4,1158.0,4491.0,30.0,
209300,1868.1,169.2,172.9,64.5,1158.0,4491.0,30.0,
209400,1861.5,40.4,184.1,64.5,1158.0,4491.0,30.0,
209500,1861.1,23.3,184.1,64.5,1158.0,4491.0,30.0,
209600,1862.0,18.8,184.1,64.5,1158.0,4491.0,30.0,
209700,1861.4,19.8,184.1,64.5,1158.0,4491.0,30.0,
209900,1860.3,20.0,176.9,119.1,1158.0,4491.0,30.0,
210000,1860.9,23.3,153.0,119.1,1158.0,4491.0,30.0,
210100,1859.8,24.2,131.1,119.1,1158.0,4491.0,30.0,
210200,1864.7,21.0,105.2,119.1,1158.0,4491.0,30.0,
210300,1859.2,20.1,69.5,119.1,1158.0,4491.0,30.0,
210400,1864.3,93.2,40.1,119.1,1158.0,4491.0,30.0,
210500,1866.5,171.7,64.7,119.1,1158.0,4491.0,30.0,
210600,1871.9,169.7,99.4,99.6,1158.0,4491.0,30.0,
210700,1883.1,155.5,129.8,97.7,1158.0,4491.0,30.0,
210900,1857.4,220.6,173.4,66.4,1158.0,4491.0,30.0,
211000,1867.8,50.0,184.6,64.5,1158.0,4491.0,30.0,
211100,1860.0,21.1,184.6,64.5,1158.0,4491.0,30.0,
211200,1860.3,19.9,184.6,64.5,1158.0,4491.0,30.0,
211300,1859.2,25.2,184.7,64.5,1158.0,4491.0,30.0,
211400,1861.7,28.7,182.7,76.2,1158.0,4491.0,30.0,
211500,1859.3,22.8,175.5,119.1,1158.0,4491.0,30.0,
211600,1863.0,25.3,158.5,119.1,1158.0,4491.0,30.0,
211700,1862.7,29.6,134.9,121.1,1158.0,4491.0,30.0,
211900,1863.9,23.5,70.8,119.1,1158.0,4491.0,30.0,
212000,1857.4,78.1,38.2,119.1,1158.0,4491.0,30.0,
212100,1857.5,102.2,61.4,105.5,1158.0,4491.0,30.0,
212200,1845.4,146.0,77.4,97.7,1158.0,4491.0,30.0,
212300,1848.5,196.6,100.7,97.7,1158.0,4491.0,30.0,
212400,1844.5,170.1,129.7,97.7,1158.0,4491.0,30.0,
212500,1862.6,168.4,155.8,97.7,1158.0,4491.0,30.0,
212600,1835.4,57.1,169.2,95.7,1158.0,4491.0,30.0,
212700,1863.5,28.3,169.1,95.7,1158.0,4491.0,30.0,
212900,1860.3,24.2,169.1,91.8,1158.0,4491.0,30.0,
213000,1857.8,17.4,167.7,105.5,1158.0,4491.0,30.0,
213100,1860.8,21.4,160.6,119.1,1158.0,4491.0,30.0,
213200,1858.5,21.2,153.6,119.1,1158.0,4491.0,30.0,
213300,1860.7,22.6,139.4,119.1,1158.0,4491.0,30.0,
213400,1859.2,23.4,112.7,119.1,1158.0,4491.0,30.0,
213500,1859.8,23.5,72.4,119.1,1158.0,4491.0,30.0,
213600,1857.5,116.8,40.8,119.1,1158.0,4491.0,30.0,
213700,1855.5,109.8,61.6,103.5,1158.0,4491.0,30.0,
213900,1850.7,162.2,124.5,97.7,1158.0,4491.0,30.0,
214000,1858.3,196.7,145.5,97.7,1158.0,4491.0,30.0,
214100,1864.9,175.5,162.8,95.7,1158.0,4491.0,30.0,
214200,1864.5,70.9,177.8,95.7,1158.0,4491.0,30.0,
214300,1859.6,20.5,177.8,66.4,1158.0,4491.0,30.0,
214400,1861.9,21.6,177.8,66.4,1158.0,4491.0,30.0,
214500,1861.0,22.3,177.8,66.4,1158.0,4491.0,30.0,
214600,1863.3,25.6,175.6,93.8,1158.0,4491.0,30.0,
214700,1863.4,24.9,169.4,119.1,1158.0,4491.0,30.0,
214900,1861.9,24.4,130.2,119.1,1158.0,4491.0,30.0,
215000,1857.8,23.3,106.4,119.1,1158.0,4491.0,30.0,
215100,1861.7,22.2,77.6,119.1,1158.0,4491.0,30.0,
215200,1872.8,92.8,45.9,119.1,1158.0,4491.0,30.0,
215300,1852.8,173.1,87.3,97.7,1158.0,4491.0,30.0,
215400,1869.1,200.4,111.7,93.8,1158.0,4491.0,30.0,
215500,1870.0,163.4,132.5,95.7,1158.0,4491.0,30.0,
215600,1883.4,142.9,154.9,95.7,1158.0,4491.0,30.0,
215700,1845.1,166.1,169.6,95.7,1158.0,4491.0,30.0,
215900,1861.8,28.4,183.1,66.4,1158.0,4491.0,30.0,
216000,1861.3,23.6,183.1,66.4,1158.0,4491.0,30.0,
216100,1859.0,23.0,183.1,66.4,1158.0,4491.0,30.0,
216200,1861.5,21.2,179.6,78.1,1158.0,4491.0,30.0,
216300,1861.5,26.0,163.6,119.1,1158.0,4491.0,30.0,
216400,1860.0,23.7,148.1,119.1,1158.0,4491.0,30.0,
216500,1858.9,20.0,129.7,119.1,1158.0,4491.0,30.0,
216600,1858.3,21.1,101.9,119.1,1158.0,4491.0,30.0,
216700,1864.1,25.0,75.0,119.1,1158.0,4491.0,30.0,
216900,1850.7,148.7,82.2,97.7,1158.0,4491.0,30.0,
217000,1852.3,152.4,115.2,91.8,1158.0,4491.0,30.0,
217100,1846.1,197.1,139.2,78.1,1158.0,4491.0,30.0,
217200,1861.5,188.7,157.3,66.4,1158.0,4491.0,30.0,
217300,1868.1,157.8,172.8,66.4,1158.0,4491.0,30.0,
217400,1880.8,142.5,190.0,66.4,1158.0,4491.0,30.0,
217500,1844.0,26.1,191.6,66.4,1158.0,4491.0,30.0,
217600,1862.7,19.6,191.5,66.4,1158.0,4491.0,30.0,
217700,1862.3,20.4,191.5,66.4,1158.0,4491.0,30.0,
217900,1861.6,25.0,175.4,119.1,1158.0,4491.0,30.0,
218000,1859.6,22.8,155.6,119.1,1158.0,4491.0,30.0,
218100,1861.7,17.9,134.6,119.1,1158.0,4491.0,30.0,
218200,1861.1,19.5,112.9,119.1,1158.0,4491.0,30.0,
218300,1860.9,21.8,87.2,119.1,1158.0,4491.0,30.0,
218400,1862.3,87.5,37.0,119.1,1158.0,4491.0,30.0,
218500,1864.7,210.2,76.8,97.7,1158.0,4491.0,30.0,
218600,1868.8,196.0,112.6,78.1,1158.0,4491.0,30.0,
218700,1881.1,169.2,146.4,66.4,1158.0,4491.0,30.0,
218900,1853.0,217.8,190.0,64.5,1158.0,4491.0,30.0,
219000,1862.8,190.2,204.6,64.5,1158.0,4491.0,30.0,
219100,1863.3,30.6,208.8,64.5,1158.0,4491.0,30.0,
219200,1861.8,22.3,208.9,64.5,1158.0,4491.0,30.0,
219300,1859.5,18.3,208.9,64.5,1158.0,4491.0,30.0,
219400,1860.3,21.8,208.9,66.4,1158.0,4491.0,30.0,
219500,1862.1,20.3,196.2,119.1,1158.0,4491.0,30.0,
219600,1858.1,27.5,178.1,119.1,1158.0,4491.0,30.0,
219700,1860.7,22.5,151.6,119.1,1158.0,4491.0,30.0,
219900,1860.3,23.6,91.2,119.1,1158.0,4491.0,30.0,
220000,1859.6,24.6,50.6,119.1,1158.0,4491.0,30.0,
220100,1863.2,103.5,56.1,119.1,1158.0,4491.0,30.0,
220200,1845.0,171.5,79.4,95.7,1158.0,4491.0,30.0,
220300,1850.3,200.4,109.0,95.7,1158.0,4491.0,30.0,
220400,1845.0,174.7,134.0,95.7,1158.0,4491.0,30.0,
220500,1867.6,163.2,157.7,95.7,1158.0,4491.0,30.0,
220600,1831.6,183.6,173.2,95.7,1158.0,4491.0,30.0,
220700,1858.2,33.1,178.5,66.4,1158.0,4491.0,30.0,
220900,1858.8,30.1,178.6,66.4,1158.0,4491.0,30.0,
221000,1859.0,22.1,178.7,70.3,1158.0,4491.0,30.0,
221100,1857.0,24.7,172.1,119.1,1158.0,4491.0,30.0,
221200,1861.2,26.2,162.8,119.1,1158.0,4491.0,30.0,
221300,1859.9,23.7,144.7,119.1,1158.0,4491.0,30.0,
221400,1863.7,24.2,121.9,119.1,1158.0,4491.0,30.0,
221500,1860.9,24.4,89.2,119.1,1158.0,4491.0,30.0,
221600,1858.1,20.9,53.4,119.1,1158.0,4491.0,30.0,
221700,1865.3,125.5,45.5,119.1,1158.0,4491.0,30.0,
221900,1860.0,164.5,118.2,97.7,1158.0,4491.0,30.0,
222000,1854.0,199.7,141.1,95.7,1158.0,4491.0,30.0,
222100,1867.2,188.8,158.7,66.4,1158.0,4491.0,30.0,
222200,1866.7,160.6,173.5,66.4,1158.0,4491.0,30.0,
222300,1863.1,39.2,182.9,64.5,1158.0,4491.0,30.0,
222400,1858.1,20.4,182.9,64.5,1158.0,4491.0,30.0,
222500,1860.1,27.1,182.9,64.5,1158.0,4491.0,30.0,
222600,1866.7,44.1,183.3,66.4,1158.0,4491.0,30.0,
222700,1855.4,38.4,180.5,97.7,1158.0,4491.0,30.0,
222900,1860.4,23.7,144.0,107.4,1158.0,4491.0,30.0,
223000,1862.0,25.5,121.7,109.4,1158.0,4491.0,30.0,
223100,1859.3,37.5,98.3,119.1,1158.0,4491.0,30.0,
223200,1857.4,27.6,69.1,119.1,1158.0,4491.0,30.0,
223300,1858.7,112.3,52.5,95.7,1158.0,4491.0,30.0,
223400,1859.6,122.9,70.3,95.7,1158.0,4491.0,30.0,
223500,1858.4,115.3,82.9,95.7,1158.0,4491.0,30.0,
223600,1857.8,109.1,100.0,95.7,1158.0,4491.0,30.0,
223700,1846.3,137.4,112.5,97.7,1158.0,4491.0,30.0,
223900,1853.2,44.7,141.8,97.7,1158.0,4491.0,30.0,
224000,1858.4,23.4,141.8,97.7,1158.0,4491.0,30.0,
224100,1859.0,24.8,141.4,95.7,1158.0,4491.0,30.0,
224200,1861.9,22.0,141.2,95.7,1158.0,4491.0,30.0,
224300,1861.3,21.7,136.4,119.1,1158.0,4491.0,30.0,
224400,1859.0,25.1,128.2,119.1,1158.0,4491.0,30.0,
224500,1859.1,19.0,120.4,119.1,1158.0,4491.0,30.0,
224600,1862.4,22.5,106.1,119.1,1158.0,4491.0,30.0,
224700,1859.7,26.4,92.2,119.1,1158.0,4491.0,30.0,
224900,1865.0,111.7,51.0,119.1,1158.0,4491.0,30.0,
225000,1857.0,125.1,89.1,97.7,1158.0,4491.0,30.0,
225100,1856.5,180.7,111.2,95.7,1158.0,4491.0,30.0,
225200,1867.2,179.8,131.8,97.7,1158.0,4491.0,30.0,
225300,1864.3,155.6,147.7,97.7,1158.0,4491.0,30.0,
225400,1882.0,139.1,166.1,95.7,1158.0,4491.0,30.0,
225500,1843.8,54.8,175.4,95.7,1158.0,4491.0,30.0,
225600,1857.5,23.7,175.4,66.4,1158.0,4491.0,30.0,
225700,1862.1,25.4,175.3,68.4,1158.0,4491.0,30.0,
225900,1862.3,21.8,170.6,97.7,1158.0,4491.0,30.0,
226000,1862.8,20.2,154.2,119.1,1158.0,4491.0,30.0,
226100,1859.9,24.4,139.0,119.1,1158.0,4491.0,30.0,
226200,1859.9,25.2,119.8,119.1,1158.0,4491.0,30.0,
226300,1858.2,24.4,99.5,119.1,1158.0,4491.0,30.0,
226400,1859.8,22.6,64.2,119.1,1158.0,4491.0,30.0,
226500,1864.7,137.7,45.6,119.1,1158.0,4491.0,30.0,
226600,1865.1,151.6,80.1,99.6,1158.0,4491.0,30.0,
226700,1877.9,139.9,109.3,95.7,1158.0,4491.0,30.0,
226900,1855.7,167.9,144.9,66.4,1158.0,4491.0,30.0,
227000,1863.1,162.1,157.6,66.4,1158.0,4491.0,30.0,
227100,1861.8,60.4,168.2,64.5,1158.0,4491.0,30.0,
227200,1859.3,24.3,168.0,64.5,1158.0,4491.0,30.0,
227300,1860.2,19.6,168.0,66.4,1158.0,4491.0,30.0,
227400,1859.3,23.5,168.0,66.4,1158.0,4491.0,30.0,
227500,1859.5,24.6,164.6,91.8,1158.0,4491.0,30.0,
227600,1860.8,21.6,150.9,119.1,1158.0,4491.0,30.0,
227700,1860.4,23.7,131.4,119.1,1158.0,4491.0,30.0,
227900,1859.0,23.9,90.4,119.1,1158.0,4491.0,30.0,
228000,1859.6,20.0,65.8,119.1,1158.0,4491.0,30.0,
228100,1866.0,74.7,39.4,119.1,1158.0,4491.0,30.0,
228200,1846.4,168.9,73.8,105.5,1158.0,4491.0,30.0,
228300,1853.5,205.5,103.6,95.7,1158.0,4491.0,30.0,
228400,1849.6,162.5,125.7,93.8,1158.0,4491.0,30.0,
228500,1866.5,161.1,148.4,66.4,1158.0,4491.0,30.0,
228600,1833.9,177.4,163.8,64.5,1158.0,4491.0,30.0,
228700,1844.0,93.9,177.2,64.5,1158.0,4491.0,30.0,
228900,1863.6,23.1,177.1,66.4,1158.0,4491.0,30.0,
229000,1863.2,29.0,177.1,66.4,1158.0,4491.0,30.0,
229100,1861.9,20.7,175.2,74.2,1158.0,4491.0,30.0,
229200,1862.1,24.1,163.8,119.1,1158.0,4491.0,30.0,
229300,1860.1,26.6,146.9,119.1,1158.0,4491.0,30.0,
229400,1858.8,28.7,128.4,119.1,1158.0,4491.0,30.0,
229500,1859.0,25.5,101.6,119.1,1158.0,4491.0,30.0,
229600,1860.6,26.1,74.1,119.1,1158.0,4491.0,30.0,
229700,1857.5,95.7,31.5,119.1,1158.0,4491.0,30.0,
229900,1860.9,161.3,112.6,93.8,1158.0,4491.0,30.0,
230000,1855.0,195.4,136.5,93.8,1158.0,4491.0,30.0,
230100,1864.9,187.3,154.2,66.4,1158.0,4491.0,30.0,
230200,1865.6,151.9,168.1,64.5,1158.0,4491.0,30.0,
230300,1880.4,129.1,183.4,64.5,1158.0,4491.0,30.0,
230400,1843.8,22.4,184.4,64.5,1158.0,4491.0,30.0,
230500,1860.7,24.3,184.3,64.5,1158.0,4491.0,30.0,
230600,1859.4,20.5,184.3,64.5,1158.0,4491.0,30.0,
230700,1860.0,22.5,184.2,68.4,1158.0,4491.0,30.0,
230900,1860.5,22.2,149.2,119.1,1158.0,4491.0,30.0,
231000,1860.0,18.2,127.7,119.1,1158.0,4491.0,30.0,
231100,1863.6,22.3,105.6,119.1,1158.0,4491.0,30.0,
231200,1857.1,21.7,81.6,119.1,1158.0,4491.0,30.0,
231300,1861.4,91.0,35.6,119.1,1158.0,4491.0,30.0,
231400,1867.7,198.8,78.5,115.2,1158.0,4491.0,30.0,
231500,1868.0,176.5,110.4,93.8,1158.0,4491.0,30.0,
231600,1880.8,157.5,137.8,93.8,1158.0,4491.0,30.0,
231700,1848.8,173.6,156.0,66.4,1158.0,4491.0,30.0,
231900,1865.2,160.0,182.4,64.5,1158.0,4491.0,30.0,
232000,1861.1,29.7,185.4,64.5,1158.0,4491.0,30.0,
232100,1863.2,25.3,185.4,64.5,1158.0,4491.0,30.0,
232200,1864.0,23.2,185.5,66.4,1158.0,4491.0,30.0,
232300,1858.3,22.4,185.5,70.3,1158.0,4491.0,30.0,
232400,1857.9,24.6,170.6,119.1,1158.0,4491.0,30.0,
232500,1861.0,26.3,152.0,119.1,1158.0,4491.0,30.0,
232600,1862.1,23.0,127.7,119.1,1158.0,4491.0,30.0,
232700,1859.7,21.0,104.8,119.1,1158.0,4491.0,30.0,hard
232900,1862.5,25.8,44.9,119.1,1158.0,4491.0,30.0,
233000,1862.0,129.2,76.1,115.2,1158.0,4491.0,30.0,
233100,1849.7,196.1,104.0,93.8,1158.0,4491.0,30.0,
233200,1858.6,184.6,127.3,93.8,1158.0,4491.0,30.0,
233300,1846.7,154.2,144.0,66.4,1158.0,4491.0,30.0,
233400,1868.0,146.3,162.3,64.5,1158.0,4491.0,30.0,
233500,1833.4,164.4,175.0,64.5,1158.0,4491.0,30.0,
233600,1856.2,30.5,178.8,64.5,1158.0,4491.0,30.0,
233700,1860.6,25.1,178.8,66.4,1158.0,4491.0,30.0,
233900,1859.7,21.3,178.9,91.8,1158.0,4491.0,30.0,
234000,1861.9,25.4,164.8,119.1,1158.0,4491.0,30.0,
234100,1860.1,25.4,148.9,119.1,1158.0,4491.0,30.0,
234200,1860.5,21.9,129.4,119.1,1158.0,4491.0,30.0,
234300,1858.4,25.9,110.4,119.1,1158.0,4491.0,30.0,
234400,1861.4,22.2,81.3,119.1,1158.0,4491.0,30.0,
234500,1859.2,20.7,48.1,119.1,1158.0,4491.0,30.0,
234600,1859.9,150.5,63.4,119.1,1158.0,4491.0,30.0,
234700,1878.0,151.9,102.4,93.8,1158.0,4491.0,30.0,
234900,1854.7,207.4,151.1,66.4,1158.0,4491.0,30.0,
235000,1864.7,194.0,168.6,64.5,1158.0,4491.0,30.0,
235100,1869.2,156.7,183.7,64.5,1158.0,4491.0,30.0,
235200,1860.5,39.6,192.4,64.5,1158.0,4491.0,30.0,
235300,1858.8,23.1,192.4,64.5,1158.0,4491.0,30.0,
235400,1862.7,19.9,192.4,64.5,1158.0,4491.0,30.0,
235500,1857.5,27.1,192.3,64.5,1158.0,4491.0,30.0,
235600,1863.3,25.6,184.2,119.1,1158.0,4491.0,30.0,
235700,1857.9,22.6,165.8,119.1,1158.0,4491.0,30.0,
235900,1860.5,21.9,122.8,119.1,1158.0,4491.0,30.0,
236000,1858.4,20.7,97.4,119.1,1158.0,4491.0,30.0,
236100,1858.3,22.5,64.4,119.1,1158.0,4491.0,30.0,
236200,1861.4,176.2,65.4,119.1,1158.0,4491.0,30.0,
236300,1865.1,209.9,101.7,80.1,1158.0,4491.0,30.0,
236400,1862.2,173.1,128.6,66.4,1158.0,4491.0,30.0,
236500,1878.3,155.7,152.0,66.4,1158.0,4491.0,30.0,
236600,1843.5,169.5,167.1,64.5,1158.0,4491.0,30.0,
236700,1854.5,178.2,179.7,64.5,1158.0,4491.0,30.0,
236900,1859.8,26.7,186.7,64.5,1158.0,4491.0,30.0,
237000,1861.6,23.0,186.7,64.5,1158.0,4491.0,30.0,
237100,1864.3,23.1,186.7,64.5,1158.0,4491.0,30.0,
237200,1860.9,25.5,177.4,119.1,1158.0,4491.0,30.0,
237300,1858.6,25.7,159.4,119.1,1158.0,4491.0,30.0,
237400,1862.1,24.3,138.6,119.1,1158.0,4491.0,30.0,
237500,1860.0,23.6,112.6,119.1,1158.0,4491.0,30.0,
237600,1862.6,23.7,88.6,119.1,1158.0,4491.0,30.0,
237700,1861.4,26.1,59.0,119.1,1158.0,4491.0,30.0,
237900,1842.8,164.1,107.0,89.8,1158.0,4491.0,30.0,
238000,1849.7,206.8,131.9,68.4,1158.0,4491.0,30.0,
238100,1859.3,188.3,151.3,66.4,1158.0,4491.0,30.0,
238200,1863.7,143.4,164.8,64.5,1158.0,4491.0,30.0,
238300,1877.8,133.2,180.2,64.5,1158.0,4491.0,30.0,
238400,1848.5,51.8,187.6,64.5,1158.0,4491.0,30.0,
238500,1858.3,24.3,187.5,64.5,1158.0,4491.0,30.0,
238600,1862.3,21.9,187.5,64.5,1158.0,4491.0,30.0,
238700,1858.9,25.6,187.4,66.4,1158.0,4491.0,30.0,
238900,1858.5,22.7,156.8,119.1,1158.0,4491.0,30.0,
239000,1860.3,25.2,136.6,119.1,1158.0,4491.0,30.0,
239100,1860.2,22.4,114.7,119.1,1158.0,4491.0,30.0,
239200,1858.2,19.9,94.2,119.1,1158.0,4491.0,30.0,
239300,1860.3,21.8,59.4,119.1,1158.0,4491.0,30.0,
239400,1860.0,174.0,54.5,119.1,1158.0,4491.0,30.0,
239500,1865.8,162.7,94.9,91.8,1158.0,4491.0,30.0,
239600,1880.3,151.2,125.6,84.0,1158.0,4491.0,30.0,
239700,1842.3,176.7,147.6,68.4,1158.0,4491.0,30.0,
239900,1867.8,165.4,176.6,64.5,1158.0,4491.0,30.0,
240000,1863.7,70.9,187.2,64.5,1158.0,4491.0,30.0,
240100,1860.3,26.0,187.1,64.5,1158.0,4491.0,30.0,
240200,1860.2,23.1,187.1,64.5,1158.0,4491.0,30.0,
240300,1861.0,23.1,187.2,66.4,1158.0,4491.0,30.0,
240400,1861.2,30.2,181.4,95.7,1158.0,4491.0,30.0,
240500,1858.5,27.5,164.0,119.1,1158.0,4491.0,30.0,
240600,1858.0,25.2,142.0,119.1,1158.0,4491.0,30.0,
240700,1858.8,24.5,119.0,119.1,1158.0,4491.0,30.0,
240900,1863.0,23.0,69.2,119.1,1158.0,4491.0,30.0,
241000,1860.4,84.5,44.8,119.1,1158.0,4491.0,30.0,
241100,1850.9,171.1,80.0,97.7,1158.0,4491.0,30.0,
241200,1855.4,148.0,99.7,95.7,1158.0,4491.0,30.0,
241300,1849.4,118.6,114.4,95.7,1158.0,4491.0,30.0,
241400,1861.4,135.7,132.0,95.7,1158.0,4491.0,30.0,
241500,1837.2,155.2,146.1,95.7,1158.0,4491.0,30.0,
241600,1851.4,87.7,158.4,95.7,1158.0,4491.0,30.0,
241700,1863.9,27.1,158.4,66.4,1158.0,4491.0,30.0,
241900,1858.9,26.9,158.4,66.4,1158.0,4491.0,30.0,
242000,1862.9,26.6,155.1,87.9,1158.0,4491.0,30.0,
242100,1856.8,28.4,140.4,119.1,1158.0,4491.0,30.0,
242200,1861.4,24.6,127.2,119.1,1158.0,4491.0,30.0,
242300,1858.7,25.6,114.3,119.1,1158.0,4491.0,30.0,
242400,1859.9,26.6,93.3,119.1,1158.0,4491.0,30.0,
242500,1860.1,25.1,68.9,119.1,1158.0,4491.0,30.0,
242600,1861.3,88.3,32.7,119.1,1158.0,4491.0,30.0,
242700,1872.3,149.9,82.5,97.7,1158.0,4491.0,30.0,
242900,1860.3,185.2,137.8,91.8,1158.0,4491.0,30.0,
243000,1865.2,172.8,152.3,66.4,1158.0,4491.0,30.0,
243100,1867.6,132.9,164.8,64.5,1158.0,4491.0,30.0,
243200,1877.2,116.3,178.8,64.5,1158.0,4491.0,30.0,
243300,1846.8,31.5,179.5,66.4,1158.0,4491.0,30.0,
243400,1861.7,26.3,179.6,66.4,1158.0,4491.0,30.0,
243500,1858.6,25.6,179.6,66.4,1158.0,4491.0,30.0,
243600,1859.7,33.0,179.4,78.1,1158.0,4491.0,30.0,
243700,1861.6,25.9,162.8,119.1,1158.0,4491.0,30.0,
243900,1858.8,23.6,119.7,119.1,1158.0,4491.0,30.0,
244000,1859.6,23.2,100.7,119.1,1158.0,4491.0,30.0,
244100,1860.7,27.1,78.3,119.1,1158.0,4491.0,30.0,
244200,1856.6,99.2,36.6,119.1,1158.0,4491.0,30.0,
244300,1862.8,190.8,78.6,119.1,1158.0,4491.0,30.0,
244400,1864.5,165.1,109.1,97.7,1158.0,4491.0,30.0,
244500,1883.9,156.8,138.0,95.7,1158.0,4491.0,30.0,
244600,1845.7,192.6,158.0,95.7,1158.0,4491.0,30.0,
244700,1856.7,196.1,172.5,93.8,1158.0,4491.0,30.0,
244900,1861.4,27.0,189.5,64.5,1158.0,4491.0,30.0,
245000,1860.1,21.9,189.4,66.4,1158.0,4491.0,30.0,
245100,1861.9,23.4,189.4,66.4,1158.0,4491.0,30.0,
245200,1861.2,24.0,189.3,78.1,1158.0,4491.0,30.0,
245300,1861.0,24.3,175.3,119.1,1158.0,4491.0,30.0,
245400,1858.9,25.4,158.1,119.1,1158.0,4491.0,30.0,
245500,1857.7,27.7,133.6,119.1,1158.0,4491.0,30.0,
245600,1861.5,28.6,109.1,119.1,1158.0,4491.0,30.0,
245700,1860.4,24.2,84.2,119.1,1158.0,4491.0,30.0,
245900,1856.7,145.3,75.0,119.1,1158.0,4491.0,30.0,
246000,1847.1,216.8,105.3,93.8,1158.0,4491.0,30.0,
246100,1849.9,206.5,132.5,93.8,1158.0,4491.0,30.0,
246200,1846.8,160.2,151.4,66.4,1158.0,4491.0,30.0,
246300,1867.7,157.4,170.4,64.5,1158.0,4491.0,30.0,
246400,1843.1,167.5,183.1,64.5,1158.0,4491.0,30.0,
246500,1858.0,33.1,186.6,64.5,1158.0,4491.0,30.0,
246600,1862.1,27.0,186.5,66.4,1158.0,4491.0,30.0,
246700,1863.6,25.4,186.5,66.4,1158.0,4491.0,30.0,
246900,1861.1,25.1,173.5,119.1,1158.0,4491.0,30.0,
247000,1858.1,24.7,157.0,119.1,1158.0,4491.0,30.0,
247100,1862.5,26.6,135.0,119.1,1158.0,4491.0,30.0,
247200,1858.4,23.8,113.4,119.1,1158.0,4491.0,30.0,
247300,1860.4,22.2,82.0,119.1,1158.0,4491.0,30.0,
247400,1860.5,28.0,47.2,119.1,1158.0,4491.0,30.0,
247500,1868.7,146.0,63.1,119.1,1158.0,4491.0,30.0,
247600,1877.8,148.0,100.9,95.7,1158.0,4491.0,30.0,
247700,1847.6,185.5,127.8,95.7,1158.0,4491.0,30.0,
247900,1863.7,178.0,160.6,66.4,1158.0,4491.0,30.0,
248000,1870.8,137.4,173.5,64.5,1158.0,4491.0,30.0,
248100,1862.4,42.1,180.7,64.5,1158.0,4491.0,30.0,
248200,1860.9,29.2,180.8,66.4,1158.0,4491.0,30.0,
248300,1860.2,24.0,180.9,72.3,1158.0,4491.0,30.0,
248400,1863.2,26.6,180.9,82.0,1158.0,4491.0,30.0,
248500,1861.5,27.1,172.3,119.1,1158.0,4491.0,30.0,
248600,1859.4,24.1,153.3,119.1,1158.0,4491.0,30.0,
248700,1858.8,27.7,131.8,119.1,1158.0,4491.0,30.0,
248900,1860.2,25.1,88.7,119.1,1158.0,4491.0,30.0,
249000,1859.2,21.6,59.5,119.1,1158.0,4491.0,30.0,
249100,1860.2,162.2,57.7,119.1,1158.0,4491.0,30.0,
249200,1855.6,184.0,90.1,95.7,1158.0,4491.0,30.0,
249300,1856.0,139.5,113.0,95.7,1158.0,4491.0,30.0,
249400,1872.3,134.3,130.7,66.4,1158.0,4491.0,30.0,
249500,1838.5,166.4,145.6,64.5,1158.0,4491.0,30.0,
249600,1845.0,173.7,157.3,64.5,1158.0,4491.0,30.0,
249700,1853.9,44.4,165.6,64.5,1158.0,4491.0,30.0,
249900,1857.2,27.2,165.6,66.4,1158.0,4491.0,30.0,
250000,1864.2,26.3,165.7,66.4,1158.0,4491.0,30.0,
250100,1859.0,28.0,158.5,99.6,1158.0,4491.0,30.0,
250200,1863.0,22.6,142.5,119.1,1158.0,4491.0,30.0,
250300,1858.6,25.0,125.0,119.1,1158.0,4491.0,30.0,
250400,1860.1,22.6,106.3,119.1,1158.0,4491.0,30.0,
250500,1861.9,22.1,84.6,119.1,1158.0,4491.0,30.0,
250600,1860.6,23.7,60.0,119.1,1158.0,4491.0,30.0,
250700,1864.5,86.6,40.8,119.1,1158.0,4491.0,30.0,
250900,1862.5,157.3,89.8,97.7,1158.0,4491.0,30.0,
251000,1865.3,150.9,108.1,97.7,1158.0,4491.0,30.0,
251100,1865.1,132.4,122.6,97.7,1158.0,4491.0,30.0,
251200,1876.4,141.8,143.4,95.7,1158.0,4491.0,30.0,
251300,1849.1,54.5,154.2,95.7,1158.0,4491.0,30.0,
251400,1857.7,24.0,154.2,95.7,1158.0,4491.0,30.0,
251500,1861.2,25.3,154.2,66.4,1158.0,4491.0,30.0,
251600,1861.8,24.5,154.3,72.3,1158.0,4491.0,30.0,
251700,1857.6,24.8,151.7,111.3,1158.0,4491.0,30.0,
251900,1859.8,27.5,128.9,119.1,1158.0,4491.0,30.0,
252000,1860.2,24.5,114.0,119.1,1158.0,4491.0,30.0,
252100,1862.0,26.3,98.2,119.1,1158.0,4491.0,30.0,
252200,1860.0,23.8,64.2,119.1,1158.0,4491.0,30.0,
252300,1863.0,145.8,44.0,119.1,1158.0,4491.0,30.0,
252400,1861.0,148.9,82.7,97.7,1158.0,4491.0,30.0,
252500,1877.8,137.9,111.1,95.7,1158.0,4491.0,30.0,
252600,1843.1,162.5,130.6,95.7,1158.0,4491.0,30.0,
252700,1851.4,177.3,143.8,66.4,1158.0,4491.0,30.0,
