Time(ms),Raw_ADC,ENV_Value,RMS,MDF,MW_Amp,MW_Area,MW_Latency,MW_Valid,Marker
0,1860.4,27.4,0.0,0.0,0.0,0.0,0.0,0,
100,1860.6,30.1,0.0,0.0,0.0,0.0,0.0,0,
200,1859.3,27.3,0.0,0.0,0.0,0.0,0.0,0,
300,1861.2,30.6,0.0,0.0,0.0,0.0,0.0,0,
400,1860.1,27.9,0.0,0.0,0.0,0.0,0.0,0,
500,1861.7,33.7,0.0,240.1,0.0,0.0,0.0,0,
600,1848.0,252.5,0.0,239.7,954.0,3709.0,28.0,0,
700,1882.8,77.5,0.0,98.9,840.0,3404.0,3.0,1,
800,1845.4,278.8,0.0,99.8,1019.0,2824.0,28.0,0,
900,1878.4,148.0,0.0,151.5,413.0,1844.0,2.0,0,
1000,1848.0,303.9,0.0,168.5,483.0,2594.0,12.0,1,
1100,1865.9,122.7,0.0,177.5,499.0,2053.0,2.0,0,
1200,1863.9,36.9,0.0,150.4,499.0,2053.0,2.0,0,
1300,1859.9,35.0,0.0,93.7,499.0,2053.0,2.0,0,
1400,1860.1,31.7,0.0,136.7,499.0,2053.0,2.0,0,
1500,1862.6,30.5,0.0,200.4,499.0,2053.0,2.0,0,
1600,1859.5,26.2,199.7,167.9,499.0,2053.0,2.0,0,
1700,1859.8,26.7,199.7,157.4,499.0,2053.0,2.0,0,
1800,1859.9,29.6,199.7,132.4,499.0,2053.0,2.0,0,
1900,1859.7,30.5,199.8,151.0,499.0,2053.0,2.0,0,
2000,1859.9,27.3,199.7,238.7,499.0,2053.0,2.0,0,
2100,1860.1,21.6,199.8,239.5,499.0,2053.0,2.0,0,
2200,1845.3,59.7,199.9,239.6,1249.0,5207.0,2.0,0,
2300,1887.0,52.4,185.8,103.5,1230.0,5170.0,3.0,1,
2400,1836.5,96.7,180.3,41.4,1122.0,4551.0,3.0,1,
2600,1855.5,97.8,154.9,28.3,1002.0,4037.0,3.0,1,
2700,1870.3,118.2,109.5,28.2,1109.0,4323.0,2.0,0,
2800,1854.6,32.8,94.3,28.1,1111.0,4251.0,3.0,1,
2900,1860.3,26.5,94.2,27.7,1111.0,4251.0,3.0,1,
3000,1860.0,26.7,94.1,28.2,1111.0,4251.0,3.0,1,
3100,1859.2,25.7,94.1,29.7,1111.0,4251.0,3.0,1,
3200,1861.7,31.3,93.9,105.5,1111.0,4251.0,3.0,1,
3300,1864.0,30.8,93.9,240.1,1111.0,4251.0,3.0,1,
3400,1857.3,27.7,94.3,238.6,1111.0,4251.0,3.0,1,
3600,1860.0,24.3,94.3,87.5,1111.0,4251.0,3.0,1,
3700,1860.2,28.2,94.3,93.4,1111.0,4251.0,3.0,1,
3800,1850.4,179.6,94.5,116.5,1214.0,5516.0,3.0,1,
3900,1873.3,67.4,104.9,82.1,1474.0,6709.0,3.0,1,
4000,1853.0,61.0,98.3,39.4,1377.0,5604.0,3.0,1,
4100,1867.8,112.4,96.9,36.9,1433.0,6422.0,3.0,1,
4200,1851.9,31.4,94.4,37.3,1200.0,5128.0,3.0,1,
4300,1852.8,61.1,90.7,28.4,1179.0,5164.0,3.0,1,
4400,1875.0,51.6,77.0,28.5,1278.0,5341.0,3.0,1,
4600,1860.6,24.0,77.6,81.6,1278.0,5341.0,3.0,1,
4700,1860.0,25.0,77.6,79.6,1278.0,5341.0,3.0,1,
4800,1861.5,31.6,77.6,85.1,1278.0,5341.0,3.0,1,
4900,1862.2,28.0,77.6,142.3,1278.0,5341.0,3.0,1,
5000,1859.0,26.4,77.3,187.4,1278.0,5341.0,3.0,1,
5100,1861.1,28.0,77.2,148.6,1278.0,5341.0,3.0,1,
5200,1859.5,27.5,77.1,131.2,1278.0,5341.0,3.0,1,
5300,1861.2,25.4,77.2,142.6,1278.0,5341.0,3.0,1,
5400,1861.8,43.5,77.2,227.0,1228.0,5823.0,3.0,1,
5600,1866.1,42.3,60.9,89.8,927.0,3847.0,3.0,1,
5700,1844.8,109.7,59.8,67.5,858.0,3083.0,2.0,0,
5800,1880.1,57.6,69.8,65.8,1099.0,4027.0,3.0,1,
5900,1838.9,88.0,70.5,37.7,946.0,3139.0,2.0,0,
6000,1881.2,50.7,76.1,36.0,977.0,3757.0,2.0,0,
6100,1856.9,28.0,78.3,40.9,977.0,3757.0,2.0,0,
6200,1860.2,27.2,78.3,37.8,977.0,3757.0,2.0,0,
6300,1862.0,28.8,78.3,35.9,977.0,3757.0,2.0,0,
6400,1861.4,49.8,78.4,38.5,977.0,3757.0,2.0,0,
6600,1862.0,34.0,79.3,107.7,977.0,3757.0,2.0,0,
6700,1860.3,29.6,79.3,91.7,977.0,3757.0,2.0,0,
6800,1861.6,32.9,79.4,91.8,977.0,3757.0,2.0,0,
6900,1861.7,40.4,79.3,94.5,977.0,3757.0,2.0,0,
7000,1861.9,50.8,79.7,83.1,1461.0,7636.0,3.0,1,
7100,1836.0,77.7,80.0,68.6,1162.0,5405.0,2.0,0,
7200,1893.0,73.4,85.7,67.1,1222.0,5822.0,3.0,1,
7300,1839.5,250.6,86.8,40.7,878.0,2893.0,28.0,0,
7400,1885.0,145.7,107.6,37.2,731.0,3303.0,2.0,0,
7600,1865.6,102.1,157.8,177.2,647.0,3116.0,2.0,0,
7700,1870.1,29.3,161.6,225.8,647.0,3116.0,2.0,0,
7800,1862.3,26.4,161.6,136.2,647.0,3116.0,2.0,0,
7900,1862.6,27.5,161.6,112.3,647.0,3116.0,2.0,0,
8000,1862.3,27.5,161.5,184.3,647.0,3116.0,2.0,0,
8100,1862.5,28.8,161.2,238.9,647.0,3116.0,2.0,0,
8200,1861.6,27.6,161.0,239.4,647.0,3116.0,2.0,0,
8300,1860.5,27.0,161.0,238.0,647.0,3116.0,2.0,0,
8400,1861.3,26.6,161.0,238.6,647.0,3116.0,2.0,0,
8600,1862.1,42.3,160.7,239.3,1174.0,5718.0,3.0,1,
8700,1849.7,86.4,160.6,239.7,1351.0,6589.0,3.0,1,
8800,1861.3,123.7,159.4,101.4,958.0,4138.0,3.0,1,
8900,1861.7,41.2,166.1,39.7,1148.0,4532.0,3.0,1,
9000,1849.7,101.5,157.9,29.2,1019.0,3483.0,2.0,0,
9100,1870.6,53.7,143.5,28.5,1220.0,4585.0,3.0,1,
9200,1843.9,77.7,112.7,28.2,1152.0,4421.0,3.0,1,
9300,1877.0,28.1,110.0,35.7,1152.0,4421.0,3.0,1,
9400,1861.0,27.6,109.9,34.3,1152.0,4421.0,3.0,1,
9600,1859.7,28.0,109.9,29.1,1152.0,4421.0,3.0,1,
9700,1861.2,29.7,109.9,166.1,1152.0,4421.0,3.0,1,
9800,1862.6,25.6,110.0,239.5,1152.0,4421.0,3.0,1,
9900,1861.2,27.8,109.9,239.7,1152.0,4421.0,3.0,1,
10000,1860.5,28.9,109.9,239.8,1152.0,4421.0,3.0,1,
10100,1859.3,25.4,110.0,239.8,1152.0,4421.0,3.0,1,
10200,1860.6,97.6,110.0,239.8,1152.0,4421.0,3.0,1,
10300,1868.0,53.1,112.4,239.6,1153.0,5582.0,4.0,1,
10400,1832.4,60.7,110.4,40.4,915.0,3677.0,3.0,1,
10600,1840.3,48.1,98.6,66.9,897.0,3074.0,2.0,0,
10700,1885.0,82.1,82.2,66.8,1018.0,4058.0,3.0,1,
10800,1840.2,124.1,87.9,34.5,1031.0,3644.0,3.0,1,
10900,1859.6,32.7,70.1,27.9,1014.0,3160.0,2.0,0,
11000,1861.4,22.1,70.2,29.7,1014.0,3160.0,2.0,0,
11100,1859.2,15.8,70.2,34.7,1014.0,3160.0,2.0,0,
11200,1862.2,16.5,69.9,36.4,1014.0,3160.0,2.0,0,
11300,1860.8,18.7,69.6,125.0,1014.0,3160.0,2.0,0,
11400,1863.3,18.8,69.3,238.2,1014.0,3160.0,2.0,0,
11600,1862.5,18.3,68.7,239.8,1014.0,3160.0,2.0,0,
11700,1860.1,21.5,68.4,239.8,1014.0,3160.0,2.0,0,
11800,1860.3,26.7,68.3,239.7,1014.0,3160.0,2.0,0,
11900,1863.6,49.7,65.0,239.6,1503.0,7338.0,3.0,1,
12000,1847.7,34.8,64.9,125.4,1224.0,5064.0,3.0,1,
12100,1876.0,88.6,63.2,85.5,1014.0,4077.0,3.0,1,
12200,1850.4,55.5,67.2,69.7,1090.0,4368.0,3.0,1,
12300,1862.3,66.1,67.2,65.8,1013.0,3781.0,3.0,1,
12400,1855.0,60.1,57.5,35.0,1066.0,3931.0,3.0,1,
12600,1862.8,29.0,52.0,42.0,1066.0,3931.0,3.0,1,
12700,1860.6,28.5,52.0,54.2,1066.0,3931.0,3.0,1,
12800,1861.0,26.5,52.4,65.7,1066.0,3931.0,3.0,1,
12900,1861.0,27.7,52.8,148.5,1066.0,3931.0,3.0,1,
13000,1858.4,26.6,53.1,239.6,1066.0,3931.0,3.0,1,
13100,1861.1,25.9,53.4,239.7,1066.0,3931.0,3.0,1,
13200,1860.5,31.2,53.8,240.0,1066.0,3931.0,3.0,1,
13300,1861.1,28.6,54.2,240.2,1066.0,3931.0,3.0,1,
13400,1860.6,28.3,54.5,240.2,1066.0,3931.0,3.0,1,
13600,1867.7,62.2,58.0,230.0,1341.0,6710.0,3.0,1,
13700,1840.3,102.1,59.6,100.0,1171.0,4666.0,3.0,1,
13800,1872.9,64.6,58.3,98.7,1218.0,5148.0,3.0,1,
13900,1841.4,237.8,58.9,88.1,443.0,2401.0,28.0,0,
14000,1879.6,196.9,109.3,67.9,579.0,2837.0,2.0,0,
14100,1837.0,62.7,136.1,76.4,854.0,3333.0,2.0,0,
14200,1862.1,30.4,138.3,124.9,854.0,3333.0,2.0,0,
14300,1860.7,27.6,138.4,165.6,854.0,3333.0,2.0,0,
14400,1860.8,29.6,138.4,164.1,854.0,3333.0,2.0,0,
14600,1860.2,28.1,138.4,239.5,854.0,3333.0,2.0,0,
14700,1858.7,27.6,138.4,239.7,854.0,3333.0,2.0,0,
14800,1862.7,27.6,138.4,239.9,854.0,3333.0,2.0,0,rest_end
14900,1858.3,28.3,138.4,240.0,854.0,3333.0,2.0,0,
15000,1861.0,30.7,138.4,240.0,854.0,3333.0,2.0,0,
15100,1862.9,187.4,138.4,240.0,1536.0,8698.0,4.0,1,
15200,1868.6,79.3,144.3,163.3,1474.0,7015.0,3.0,1,
15300,1844.2,145.5,144.3,83.8,1340.0,6027.0,3.0,1,
15400,1873.8,48.4,150.2,73.5,1406.0,5488.0,3.0,1,
15600,1875.2,31.1,123.9,37.6,1446.0,4933.0,3.0,1,
15700,1844.0,37.8,93.2,36.6,1257.0,5121.0,3.0,1,
15800,1856.6,30.2,80.2,43.7,1257.0,5121.0,3.0,1,
15900,1859.8,32.8,80.1,41.8,1257.0,5121.0,3.0,1,
16000,1860.7,30.2,80.3,67.1,1257.0,5121.0,3.0,1,
16100,1861.6,29.5,80.4,104.0,1257.0,5121.0,3.0,1,
16200,1860.8,30.0,80.5,173.0,1257.0,5121.0,3.0,1,
16300,1862.3,30.0,80.5,239.3,1257.0,5121.0,3.0,1,
16400,1861.9,28.5,80.6,239.8,1257.0,5121.0,3.0,1,
16600,1859.0,29.8,80.6,240.1,1257.0,5121.0,3.0,1,
16700,1859.7,114.1,80.6,239.7,1515.0,7373.0,2.0,0,
16800,1865.6,59.7,78.5,108.1,1375.0,6006.0,3.0,1,
16900,1864.6,89.5,80.6,36.5,1444.0,6255.0,3.0,1,
17000,1856.7,92.4,70.7,34.7,1461.0,5643.0,2.0,0,
17100,1861.0,74.8,78.1,36.4,1363.0,5548.0,3.0,1,
17200,1850.7,146.6,84.9,34.5,1463.0,5467.0,2.0,0,
17300,1878.7,37.2,100.7,28.5,1325.0,4879.0,3.0,1,
17400,1847.5,25.3,100.4,27.7,1325.0,4879.0,3.0,1,
17600,1859.8,28.9,100.1,27.6,1325.0,4879.0,3.0,1,
17700,1860.2,31.1,100.0,73.3,1325.0,4879.0,3.0,1,
17800,1861.9,30.8,100.0,239.8,1325.0,4879.0,3.0,1,
17900,1860.8,28.9,100.0,240.4,1325.0,4879.0,3.0,1,
18000,1860.1,27.0,100.0,240.2,1325.0,4879.0,3.0,1,
18100,1860.4,25.3,100.0,240.0,1325.0,4879.0,3.0,1,
18200,1859.2,24.4,100.0,240.1,1325.0,4879.0,3.0,1,
18300,1861.3,38.3,99.9,240.2,1325.0,4879.0,3.0,1,
18400,1857.5,241.7,104.8,239.4,1568.0,8031.0,2.0,0,
18600,1844.2,136.6,130.7,28.1,1535.0,6403.0,3.0,1,
18700,1880.3,41.4,132.6,27.5,1427.0,4999.0,3.0,1,
18800,1850.8,135.5,130.5,28.6,1472.0,6124.0,2.0,0,
18900,1869.9,54.9,124.6,36.0,1518.0,5451.0,3.0,1,
19000,1857.8,33.1,124.9,35.4,1516.0,5435.0,3.0,1,
19100,1860.4,28.0,125.0,39.0,1516.0,5435.0,3.0,1,
19200,1861.8,31.7,125.0,43.9,1516.0,5435.0,3.0,1,
19300,1861.1,29.1,125.1,82.5,1516.0,5435.0,3.0,1,
19400,1859.7,31.4,125.1,238.6,1516.0,5435.0,3.0,1,
19600,1859.3,28.2,125.1,239.7,1516.0,5435.0,3.0,1,
19700,1860.2,27.4,125.1,239.9,1516.0,5435.0,3.0,1,
19800,1861.9,31.1,125.1,240.0,1516.0,5435.0,3.0,1,
19900,1860.5,23.9,125.2,240.0,1516.0,5435.0,3.0,1,
20000,1850.8,261.5,125.1,239.8,1279.0,6059.0,28.0,0,
20100,1872.5,151.5,112.7,117.5,1123.0,3843.0,2.0,0,
20200,1863.6,267.5,139.7,74.2,1187.0,4600.0,2.0,0,
20300,1856.8,64.6,149.2,122.5,1496.0,6132.0,3.0,1,
20400,1863.4,57.9,148.3,158.1,1325.0,5665.0,3.0,1,
20600,1885.1,33.1,142.8,68.0,1405.0,5603.0,3.0,1,
20700,1860.9,30.4,142.7,65.5,1405.0,5603.0,3.0,1,
20800,1862.7,26.1,142.7,65.8,1405.0,5603.0,3.0,1,
20900,1861.6,26.6,142.7,66.9,1405.0,5603.0,3.0,1,
21000,1860.3,27.4,142.7,146.5,1405.0,5603.0,3.0,1,
21100,1859.8,28.7,142.6,239.7,1405.0,5603.0,3.0,1,
21200,1860.7,27.7,142.6,239.9,1405.0,5603.0,3.0,1,
21300,1862.0,25.8,142.6,240.0,1405.0,5603.0,3.0,1,
21400,1858.8,26.0,142.6,240.0,1405.0,5603.0,3.0,1,
21600,1879.6,48.2,142.6,239.9,1399.0,7134.0,3.0,1,
21700,1827.0,149.4,124.1,237.5,1397.0,7215.0,3.0,1,
21800,1874.4,44.5,102.9,99.0,1372.0,5440.0,3.0,1,
21900,1841.0,56.7,61.4,65.9,1397.0,6453.0,3.0,1,
22000,1880.4,39.1,62.0,38.3,1441.0,5444.0,3.0,1,
22100,1851.8,86.8,62.3,38.5,1326.0,5144.0,2.0,0,
22200,1870.7,38.1,69.4,41.2,1437.0,6262.0,3.0,1,
22300,1865.5,29.5,69.4,36.6,1437.0,6262.0,3.0,1,
22400,1861.9,28.1,69.3,38.9,1437.0,6262.0,3.0,1,
22600,1860.3,26.4,69.3,122.5,1437.0,6262.0,3.0,1,
22700,1859.6,28.9,69.3,239.7,1437.0,6262.0,3.0,1,
22800,1859.0,29.5,69.3,240.0,1437.0,6262.0,3.0,1,
22900,1860.7,26.4,69.4,239.9,1437.0,6262.0,3.0,1,
23000,1861.3,26.8,69.4,240.1,1437.0,6262.0,3.0,1,
23100,1861.4,29.6,69.5,239.9,1437.0,6262.0,3.0,1,
23200,1861.4,53.1,69.4,240.1,1576.0,7959.0,3.0,1,
23300,1835.4,107.1,69.9,239.9,1300.0,6052.0,2.0,0,
23400,1869.1,66.8,68.6,98.9,1472.0,6207.0,3.0,1,
23600,1859.4,85.5,71.5,35.9,1491.0,6479.0,3.0,1,
23700,1856.0,34.3,77.8,30.0,1428.0,5475.0,3.0,1,
23800,1855.9,38.7,69.4,29.1,1382.0,6015.0,3.0,1,
23900,1876.7,28.5,69.0,28.9,1382.0,6015.0,3.0,1,
24000,1861.3,29.5,69.1,29.7,1382.0,6015.0,3.0,1,
24100,1860.1,27.0,69.1,93.2,1382.0,6015.0,3.0,1,
24200,1862.1,27.6,69.1,165.3,1382.0,6015.0,3.0,1,
24300,1861.5,28.3,69.1,240.0,1382.0,6015.0,3.0,1,
24400,1859.9,27.8,69.1,240.1,1382.0,6015.0,3.0,1,
24600,1862.0,25.4,69.2,240.1,1382.0,6015.0,3.0,1,
24700,1861.0,31.5,69.1,240.1,1382.0,6015.0,3.0,1,
24800,1863.0,64.7,69.2,240.2,1458.0,8361.0,3.0,1,
24900,1870.7,48.8,70.3,239.8,1418.0,6624.0,3.0,1,
25000,1825.8,162.8,63.8,102.5,1436.0,6938.0,3.0,1,
25100,1878.3,44.9,70.1,91.5,1323.0,5713.0,3.0,1,
25200,1839.3,274.7,69.8,65.7,978.0,4986.0,2.0,0,
25300,1880.2,158.8,111.1,37.1,1189.0,4208.0,2.0,0,
25400,1849.8,150.2,141.3,75.3,827.0,3508.0,2.0,0,
25600,1860.4,26.7,155.5,133.2,827.0,3508.0,2.0,0,
25700,1862.6,36.5,155.5,90.3,827.0,3508.0,2.0,0,
25800,1860.9,30.0,155.6,43.6,827.0,3508.0,2.0,0,
25900,1861.0,28.4,155.6,108.7,827.0,3508.0,2.0,0,
26000,1861.3,29.6,155.6,149.6,827.0,3508.0,2.0,0,
26100,1861.5,28.2,155.6,238.4,827.0,3508.0,2.0,0,
26200,1860.9,27.4,155.6,239.5,827.0,3508.0,2.0,0,
26300,1861.2,28.3,155.6,239.7,827.0,3508.0,2.0,0,
26400,1862.7,36.1,155.5,239.8,827.0,3508.0,2.0,0,
26600,1848.6,110.8,155.1,110.2,1041.0,4974.0,3.0,1,
26700,1860.4,109.6,154.7,89.0,1296.0,5057.0,3.0,1,
26800,1873.6,56.5,159.8,66.2,1189.0,4910.0,3.0,1,
26900,1850.2,154.1,137.6,35.8,1251.0,5304.0,4.0,1,
27000,1869.1,40.8,118.1,35.8,1179.0,4889.0,3.0,1,
27100,1851.0,34.6,80.4,29.3,1179.0,4889.0,3.0,1,
27200,1859.7,26.9,80.5,29.1,1179.0,4889.0,3.0,1,
27300,1860.3,27.2,80.5,29.7,1179.0,4889.0,3.0,1,
27400,1860.2,26.2,80.3,77.0,1179.0,4889.0,3.0,1,
27600,1858.8,26.6,80.2,239.6,1179.0,4889.0,3.0,1,
27700,1861.0,33.1,80.1,239.8,1179.0,4889.0,3.0,1,
27800,1864.4,33.0,80.2,239.8,1179.0,4889.0,3.0,1,
27900,1861.0,27.8,80.4,239.7,1179.0,4889.0,3.0,1,
28000,1861.1,22.7,80.3,239.5,1179.0,4889.0,3.0,1,
28100,1844.0,246.5,81.7,239.8,1428.0,6015.0,2.0,0,
28200,1892.9,197.6,122.0,78.9,1299.0,4049.0,2.0,0,
28300,1829.2,278.8,148.9,78.5,1269.0,4618.0,28.0,0,
28400,1885.2,153.0,167.3,138.9,1306.0,3717.0,2.0,0,
28600,1877.5,55.2,197.6,68.2,1439.0,5155.0,3.0,1,
28700,1854.2,29.0,197.6,92.3,1421.0,5266.0,3.0,1,
28800,1862.0,29.1,197.5,41.9,1421.0,5266.0,3.0,1,
28900,1861.5,27.7,197.6,30.0,1421.0,5266.0,3.0,1,
29000,1858.8,29.4,197.6,47.9,1421.0,5266.0,3.0,1,
29100,1860.1,30.9,197.6,237.3,1421.0,5266.0,3.0,1,
29200,1859.8,28.8,197.6,239.5,1421.0,5266.0,3.0,1,
29300,1863.1,33.7,197.6,239.5,1421.0,5266.0,3.0,1,
29400,1859.6,31.2,197.6,239.8,1421.0,5266.0,3.0,1,
29600,1861.4,28.1,197.7,239.5,1421.0,5266.0,3.0,1,
29700,1852.3,241.9,197.7,239.5,1652.0,7757.0,3.0,1,
29800,1865.9,139.3,195.9,107.4,1151.0,4507.0,2.0,0,
29900,1850.7,295.5,192.7,87.3,726.0,3587.0,2.0,0,
30000,1850.4,223.4,195.5,100.2,1214.0,3594.0,2.0,0,
30100,1876.5,315.0,195.2,131.3,1180.0,3169.0,2.0,0,
30200,1836.2,238.3,202.2,67.2,1063.0,3634.0,28.0,0,
30300,1874.7,46.4,214.4,71.1,1093.0,3293.0,2.0,0,
30400,1867.0,29.5,214.4,102.1,1093.0,3293.0,2.0,0,
30600,1861.8,28.6,214.4,168.2,1093.0,3293.0,2.0,0,
30700,1861.3,29.2,214.3,207.3,1093.0,3293.0,2.0,0,
30800,1859.8,32.4,214.3,238.6,1093.0,3293.0,2.0,0,
30900,1859.3,29.5,214.4,238.2,1093.0,3293.0,2.0,0,
31000,1861.2,26.0,214.3,238.4,1093.0,3293.0,2.0,0,
31100,1859.8,24.1,214.3,239.3,1093.0,3293.0,2.0,0,
31200,1860.7,29.9,214.2,239.7,1093.0,3293.0,2.0,0,
31300,1861.2,45.0,214.2,239.8,1530.0,7904.0,3.0,1,
31400,1825.5,64.6,206.5,211.2,1458.0,6751.0,4.0,1,
31600,1825.6,99.5,166.7,65.4,1439.0,6034.0,3.0,1,
31700,1883.0,49.1,144.3,45.1,1570.0,5899.0,3.0,1,
31800,1843.6,104.1,110.0,35.6,1446.0,5501.0,3.0,1,
31900,1874.0,43.0,79.5,29.2,1423.0,5869.0,3.0,1,
32000,1863.6,29.0,69.2,28.1,1423.0,5869.0,3.0,1,
32100,1861.5,31.8,69.2,28.3,1423.0,5869.0,3.0,1,
32200,1860.7,32.3,69.2,29.6,1423.0,5869.0,3.0,1,
32300,1861.4,26.9,69.3,67.2,1423.0,5869.0,3.0,1,
32400,1861.0,27.6,69.2,239.8,1423.0,5869.0,3.0,1,
32600,1860.7,28.7,69.2,240.2,1423.0,5869.0,3.0,1,
32700,1859.9,28.0,69.2,240.1,1423.0,5869.0,3.0,1,
32800,1858.6,28.0,69.2,239.8,1423.0,5869.0,3.0,1,
32900,1858.9,78.9,69.2,239.6,1479.0,7742.0,3.0,1,
33000,1844.1,54.5,72.2,198.1,1543.0,7380.0,3.0,1,
33100,1859.4,96.6,61.6,93.6,1673.0,7494.0,3.0,1,
33200,1864.5,47.6,64.1,76.2,1471.0,6183.0,3.0,1,
33300,1842.1,152.2,62.9,66.8,1556.0,6806.0,4.0,1,
33400,1892.4,41.3,73.8,41.5,1582.0,6190.0,3.0,1,
33600,1874.4,35.0,69.4,27.2,1582.0,6190.0,3.0,1,
33700,1862.0,31.8,69.4,28.2,1582.0,6190.0,3.0,1,
33800,1861.2,28.2,69.5,49.1,1582.0,6190.0,3.0,1,
33900,1859.5,27.3,69.4,92.8,1582.0,6190.0,3.0,1,
34000,1860.0,29.6,69.4,239.5,1582.0,6190.0,3.0,1,
34100,1858.4,31.1,69.5,239.9,1582.0,6190.0,3.0,1,
34200,1859.5,29.4,69.5,240.1,1582.0,6190.0,3.0,1,
34300,1860.7,29.2,69.5,239.9,1582.0,6190.0,3.0,1,
34400,1861.3,28.6,69.6,239.9,1582.0,6190.0,3.0,1,
34600,1873.6,64.4,77.3,239.6,1574.0,7568.0,3.0,1,
34700,1824.3,276.4,77.7,82.9,1441.0,6060.0,28.0,0,
34800,1911.4,117.3,109.3,46.8,1412.0,4861.0,2.0,0,
34900,1819.8,319.3,136.5,52.5,1289.0,4352.0,2.0,0,
35000,1871.9,202.2,165.2,131.5,1371.0,4532.0,2.0,0,
35100,1860.9,193.3,180.2,133.4,860.0,3227.0,2.0,0,
35200,1851.6,37.1,197.7,70.8,860.0,3227.0,2.0,0,
35300,1859.0,29.4,197.7,135.4,860.0,3227.0,2.0,0,
35400,1863.5,27.3,197.7,141.0,860.0,3227.0,2.0,0,
35600,1860.7,27.9,197.7,134.6,860.0,3227.0,2.0,0,
35700,1861.1,25.7,197.6,240.0,860.0,3227.0,2.0,0,
35800,1861.7,26.3,197.5,240.0,860.0,3227.0,2.0,0,
35900,1862.1,26.6,197.5,239.9,860.0,3227.0,2.0,0,
36000,1860.6,30.1,197.5,240.2,860.0,3227.0,2.0,0,
36100,1862.1,158.3,197.5,240.0,860.0,3227.0,2.0,0,
36200,1896.2,183.6,204.3,238.1,1595.0,6806.0,2.0,0,
36300,1828.1,285.7,216.4,55.4,1281.0,4621.0,2.0,0,
36400,1847.5,216.2,228.0,89.3,1238.0,5516.0,2.0,0,
36600,1834.4,308.4,221.9,70.9,1370.0,4879.0,28.0,0,
36700,1902.7,120.6,222.8,50.8,1433.0,4494.0,2.0,0,
36800,1838.6,33.7,216.1,80.5,1315.0,4052.0,2.0,0,
36900,1860.5,29.1,216.1,76.6,1315.0,4052.0,2.0,0,
37000,1862.4,33.0,216.1,199.7,1315.0,4052.0,2.0,0,
37100,1860.5,27.0,216.1,228.5,1315.0,4052.0,2.0,0,
37200,1860.6,30.2,216.1,239.4,1315.0,4052.0,2.0,0,
37300,1860.7,29.4,216.2,239.9,1315.0,4052.0,2.0,0,
37400,1858.8,27.9,216.2,240.0,1315.0,4052.0,2.0,0,
37600,1860.0,30.4,216.2,240.1,1315.0,4052.0,2.0,0,
37700,1859.5,29.7,216.3,240.1,1315.0,4052.0,2.0,0,
37800,1844.2,97.7,212.0,239.8,1838.0,9182.0,3.0,1,
37900,1867.5,84.2,199.8,105.9,1648.0,8180.0,3.0,1,
38000,1833.2,227.9,180.6,46.8,1576.0,8092.0,3.0,1,
38100,1899.5,206.1,170.4,39.5,1407.0,5236.0,2.0,0,
38200,1840.1,273.7,168.4,41.0,1315.0,4870.0,2.0,0,
38300,1844.9,265.9,176.3,93.2,1300.0,4506.0,2.0,0,
38400,1878.0,46.3,178.6,158.6,1368.0,4575.0,2.0,0,
38600,1860.9,28.8,178.6,94.1,1368.0,4575.0,2.0,0,
38700,1859.3,31.2,178.6,169.9,1368.0,4575.0,2.0,0,
38800,1861.6,30.6,178.6,205.3,1368.0,4575.0,2.0,0,
38900,1862.4,25.2,178.6,239.6,1368.0,4575.0,2.0,0,
39000,1861.0,30.5,178.5,239.4,1368.0,4575.0,2.0,0,
39100,1858.3,27.6,178.5,239.3,1368.0,4575.0,2.0,0,
39200,1860.1,26.7,178.5,239.6,1368.0,4575.0,2.0,0,
39300,1859.1,26.6,178.5,239.9,1368.0,4575.0,2.0,0,
39400,1843.9,51.9,178.5,240.1,1524.0,7787.0,3.0,1,
39600,1853.6,62.1,176.0,99.8,1500.0,6842.0,3.0,1,
39700,1838.3,217.5,167.4,69.5,1452.0,6838.0,3.0,1,
39800,1875.5,158.4,166.2,67.9,1280.0,4360.0,2.0,0,
39900,1841.7,259.8,159.4,81.6,1325.0,4472.0,2.0,0,
40000,1888.3,69.5,150.5,131.1,1248.0,4361.0,2.0,0,
40100,1849.4,29.9,152.0,165.0,1248.0,4361.0,2.0,0,
40200,1859.4,26.9,152.0,131.4,1248.0,4361.0,2.0,0,
40300,1861.5,31.8,152.0,76.8,1248.0,4361.0,2.0,0,
40400,1859.6,27.9,152.0,90.6,1248.0,4361.0,2.0,0,
40600,1859.2,24.5,152.1,239.5,1248.0,4361.0,2.0,0,
40700,1859.2,27.4,152.0,239.7,1248.0,4361.0,2.0,0,
40800,1859.3,29.3,152.1,239.8,1248.0,4361.0,2.0,0,
40900,1857.3,27.9,152.1,239.8,1248.0,4361.0,2.0,0,
41000,1859.4,132.3,152.1,239.8,1460.0,8060.0,3.0,1,
41100,1844.2,72.7,159.8,72.4,1608.0,8376.0,4.0,1,
41200,1850.5,46.3,159.4,40.5,1423.0,7244.0,4.0,1,
41300,1858.0,37.4,155.0,43.5,1405.0,6086.0,3.0,1,
41400,1872.8,131.5,140.5,69.9,1522.0,6324.0,2.0,0,
41600,1839.3,43.9,99.0,37.5,1480.0,6396.0,3.0,1,
41700,1866.0,31.4,87.4,37.6,1480.0,6396.0,3.0,1,
41800,1858.6,26.9,87.5,41.9,1480.0,6396.0,3.0,1,
41900,1860.6,30.4,87.5,66.8,1480.0,6396.0,3.0,1,
42000,1859.7,24.1,87.4,130.7,1480.0,6396.0,3.0,1,
42100,1860.0,31.8,87.4,239.6,1480.0,6396.0,3.0,1,
42200,1857.8,23.1,87.5,239.7,1480.0,6396.0,3.0,1,
42300,1860.7,30.0,87.5,239.8,1480.0,6396.0,3.0,1,
42400,1857.4,26.2,87.5,239.8,1480.0,6396.0,3.0,1,
42600,1860.3,53.7,87.8,239.5,1531.0,8162.0,3.0,1,
42700,1858.2,52.9,73.8,205.1,1620.0,8042.0,3.0,1,
42800,1874.7,167.4,73.8,116.5,1655.0,8332.0,3.0,1,
42900,1847.1,70.9,81.0,107.0,1571.0,7460.0,3.0,1,
43000,1845.6,56.1,84.9,76.7,1440.0,7074.0,4.0,1,
43100,1855.5,181.0,81.5,67.9,1353.0,4900.0,2.0,0,
43200,1860.6,93.1,115.9,84.2,1291.0,4650.0,2.0,0,
43300,1861.0,28.6,125.6,123.7,1291.0,4650.0,2.0,0,
43400,1856.2,24.8,125.5,189.4,1291.0,4650.0,2.0,0,
43600,1859.2,26.7,125.6,199.3,1291.0,4650.0,2.0,0,
43700,1859.4,28.6,125.6,237.6,1291.0,4650.0,2.0,0,
43800,1858.2,29.5,125.6,239.8,1291.0,4650.0,2.0,0,
43900,1860.5,27.5,125.7,240.0,1291.0,4650.0,2.0,0,
44000,1856.2,27.0,125.6,240.0,1291.0,4650.0,2.0,0,
44100,1858.4,27.6,125.6,240.1,1291.0,4650.0,2.0,0,
44200,1859.4,30.0,125.6,239.8,1291.0,4650.0,2.0,0,
44300,1854.0,166.6,135.3,238.5,1604.0,9041.0,4.0,1,
44400,1859.5,63.3,139.9,36.4,1628.0,7542.0,3.0,1,
44600,1871.1,132.6,159.3,29.9,1270.0,4817.0,2.0,0,
44700,1865.5,296.7,173.9,88.2,1265.0,5262.0,2.0,0,
44800,1857.8,96.8,174.5,164.8,1257.0,4835.0,2.0,0,
44900,1859.1,29.1,171.5,165.7,1198.0,5022.0,2.0,0,
45000,1858.5,27.5,171.5,130.8,1198.0,5022.0,2.0,0,
45100,1859.0,26.0,171.5,199.4,1198.0,5022.0,2.0,0,
45200,1859.8,24.8,171.5,230.5,1198.0,5022.0,2.0,0,
45300,1857.9,28.9,171.4,240.0,1198.0,5022.0,2.0,0,
45400,1860.5,25.6,171.4,239.9,1198.0,5022.0,2.0,0,
45600,1858.5,25.0,171.3,239.8,1198.0,5022.0,2.0,0,
45700,1859.4,22.8,171.3,239.8,1198.0,5022.0,2.0,0,
45800,1857.2,20.3,171.2,239.6,1198.0,5022.0,2.0,0,
45900,1844.6,233.3,171.2,239.1,1615.0,7178.0,2.0,0,
46000,1858.7,172.5,175.1,129.9,1465.0,5690.0,2.0,0,
46100,1885.9,313.8,191.4,94.2,1437.0,5250.0,2.0,0,
46200,1838.0,192.8,195.3,151.4,1287.0,5342.0,2.0,0,
46300,1854.5,160.2,194.2,225.8,1235.0,4525.0,2.0,0,
46400,1840.4,243.0,196.9,158.2,1112.0,4411.0,2.0,0,
46600,1860.6,21.8,198.9,135.9,1112.0,4411.0,2.0,0,
46700,1861.3,24.6,198.8,130.5,1112.0,4411.0,2.0,0,
46800,1861.0,22.0,198.8,195.8,1112.0,4411.0,2.0,0,
46900,1858.1,28.4,198.7,237.7,1112.0,4411.0,2.0,0,
47000,1857.1,26.2,198.7,239.7,1112.0,4411.0,2.0,0,
47100,1861.9,24.7,198.7,239.7,1112.0,4411.0,2.0,0,
47200,1860.6,22.3,198.7,239.7,1112.0,4411.0,2.0,0,
47300,1857.6,22.6,198.7,240.0,1112.0,4411.0,2.0,0,
47400,1860.8,24.6,198.7,240.1,1112.0,4411.0,2.0,0,
47600,1817.0,107.0,189.0,198.6,1595.0,8311.0,3.0,1,
47700,1865.6,64.5,180.1,94.5,1539.0,7248.0,3.0,1,
47800,1834.8,69.6,156.8,76.8,1572.0,6663.0,3.0,1,
47900,1869.9,102.7,140.9,74.2,1399.0,6543.0,3.0,1,
48000,1873.8,62.8,115.2,82.9,1493.0,6637.0,3.0,1,
48100,1854.1,36.1,79.2,86.1,1518.0,7035.0,4.0,1,
48200,1861.6,22.9,78.8,73.2,1518.0,7035.0,4.0,1,
48300,1860.6,23.9,78.9,66.8,1518.0,7035.0,4.0,1,
48400,1858.5,28.6,78.9,68.3,1518.0,7035.0,4.0,1,
48600,1858.3,23.8,78.9,239.7,1518.0,7035.0,4.0,1,
48700,1858.2,26.6,78.9,239.6,1518.0,7035.0,4.0,1,
48800,1859.0,24.5,78.9,239.6,1518.0,7035.0,4.0,1,
48900,1860.1,25.8,78.9,239.8,1518.0,7035.0,4.0,1,
49000,1858.1,24.6,79.0,239.9,1518.0,7035.0,4.0,1,
49100,1861.2,69.1,79.0,239.9,1464.0,6538.0,3.0,1,
49200,1841.9,47.7,83.5,101.4,1706.0,7714.0,3.0,1,
49300,1855.3,107.8,70.6,42.0,1477.0,6534.0,3.0,1,
49400,1882.5,89.7,75.7,51.4,1344.0,6143.0,3.0,1,
49600,1868.2,147.5,109.2,74.0,1045.0,3892.0,2.0,0,
49700,1839.2,94.6,141.0,157.4,963.0,3583.0,2.0,0,
49800,1869.5,29.1,149.1,226.2,963.0,3583.0,2.0,0,
49900,1857.7,23.7,149.2,150.0,963.0,3583.0,2.0,0,
50000,1861.3,22.9,149.2,69.6,963.0,3583.0,2.0,0,
50100,1858.9,24.4,149.2,40.3,963.0,3583.0,2.0,0,
50200,1858.2,23.7,149.2,219.3,963.0,3583.0,2.0,0,
50300,1859.0,24.1,149.2,240.0,963.0,3583.0,2.0,0,
50400,1858.6,23.4,149.2,240.0,963.0,3583.0,2.0,0,
50600,1857.4,23.3,149.2,240.0,963.0,3583.0,2.0,0,
50700,1859.0,115.8,149.2,240.1,1197.0,6790.0,4.0,1,
50800,1888.5,47.7,148.7,239.5,1552.0,7443.0,3.0,1,
50900,1816.8,50.5,148.7,81.6,1463.0,6239.0,3.0,1,
51000,1872.0,103.2,152.6,50.9,1318.0,6009.0,3.0,1,
51100,1843.3,244.3,152.9,36.6,1175.0,4709.0,28.0,0,
51200,1866.5,135.0,151.9,29.8,1144.0,4494.0,2.0,0,
51300,1869.9,147.8,146.5,67.1,914.0,3649.0,2.0,0,
51400,1842.2,29.6,144.8,158.4,914.0,3649.0,2.0,0,
51600,1858.3,26.6,144.7,147.6,914.0,3649.0,2.0,0,
51700,1859.6,21.8,144.8,94.4,914.0,3649.0,2.0,0,
51800,1858.9,23.4,144.8,130.3,914.0,3649.0,2.0,0,
51900,1858.1,23.2,144.8,239.5,914.0,3649.0,2.0,0,
52000,1860.3,24.3,144.7,239.7,914.0,3649.0,2.0,0,
52100,1859.8,22.7,144.7,240.0,914.0,3649.0,2.0,0,
52200,1858.9,25.0,144.7,240.0,914.0,3649.0,2.0,0,
52300,1858.4,55.8,144.7,240.0,914.0,3649.0,2.0,0,
52400,1863.9,72.5,143.0,240.0,1406.0,7060.0,3.0,1,
52600,1848.4,162.3,155.7,98.9,1269.0,4777.0,2.0,0,
52700,1883.4,203.0,167.8,94.5,1314.0,4962.0,2.0,0,
52800,1831.6,191.9,169.0,114.3,1520.0,6648.0,4.0,1,
52900,1865.2,75.6,160.3,182.8,1291.0,5949.0,3.0,1,
53000,1854.5,25.3,138.6,132.3,1291.0,5949.0,3.0,1,
53100,1857.1,24.6,138.6,37.9,1291.0,5949.0,3.0,1,
53200,1859.9,25.2,138.6,35.6,1291.0,5949.0,3.0,1,
53300,1860.2,22.7,138.6,41.1,1291.0,5949.0,3.0,1,
53400,1860.7,23.3,138.6,239.3,1291.0,5949.0,3.0,1,
53600,1856.4,24.3,138.6,240.2,1291.0,5949.0,3.0,1,
53700,1858.3,20.9,138.6,240.1,1291.0,5949.0,3.0,1,
53800,1857.7,22.5,138.6,239.6,1291.0,5949.0,3.0,1,
53900,1860.0,21.9,138.6,239.6,1291.0,5949.0,3.0,1,
54000,1855.2,185.4,138.8,239.8,1542.0,8599.0,4.0,1,
54100,1900.4,60.6,146.7,89.6,1580.0,7005.0,3.0,1,
54200,1816.0,66.6,141.0,81.3,1527.0,6692.0,3.0,1,
54300,1869.2,79.8,122.8,82.5,1294.0,6433.0,3.0,1,
54400,1839.1,48.1,96.3,83.1,1384.0,6305.0,3.0,1,
54600,1863.9,28.2,86.6,82.2,1198.0,6052.0,3.0,1,
54700,1862.3,24.0,86.7,67.1,1198.0,6052.0,3.0,1,
54800,1858.0,23.7,86.7,38.1,1198.0,6052.0,3.0,1,
54900,1859.0,23.2,86.7,38.9,1198.0,6052.0,3.0,1,
55000,1859.4,23.8,86.7,238.2,1198.0,6052.0,3.0,1,
55100,1857.7,23.7,86.8,239.9,1198.0,6052.0,3.0,1,
55200,1857.1,20.2,86.8,239.9,1198.0,6052.0,3.0,1,
55300,1856.9,23.8,86.7,240.0,1198.0,6052.0,3.0,1,
55400,1858.4,24.3,86.7,240.1,1198.0,6052.0,3.0,1,
55600,1862.6,206.9,86.8,240.0,1506.0,7918.0,4.0,1,
55700,1862.0,56.0,82.9,135.0,1402.0,6216.0,3.0,1,
55800,1844.8,89.6,83.7,56.4,1422.0,6544.0,3.0,1,
55900,1855.3,115.8,83.5,47.5,1303.0,6067.0,3.0,1,
56000,1882.8,117.1,86.0,40.0,1176.0,5927.0,3.0,1,
56100,1844.4,142.2,88.0,27.7,1244.0,5941.0,4.0,1,
56200,1861.1,34.5,87.7,29.4,1199.0,5642.0,3.0,1,
56300,1863.6,23.6,87.6,36.9,1199.0,5642.0,3.0,1,
56400,1859.0,24.8,87.5,36.9,1199.0,5642.0,3.0,1,
56600,1859.3,25.7,87.5,93.0,1199.0,5642.0,3.0,1,
56700,1861.8,23.9,87.5,239.8,1199.0,5642.0,3.0,1,
56800,1859.7,24.9,87.5,239.6,1199.0,5642.0,3.0,1,
56900,1859.3,24.7,87.5,239.6,1199.0,5642.0,3.0,1,
57000,1859.0,22.1,87.5,239.8,1199.0,5642.0,3.0,1,
57100,1859.5,24.1,87.5,240.0,1199.0,5642.0,3.0,1,
57200,1859.0,48.0,87.4,240.1,1258.0,6622.0,3.0,1,
57300,1847.3,59.3,72.2,239.5,1667.0,7856.0,4.0,1,
57400,1891.0,62.1,71.4,99.2,1491.0,6560.0,3.0,1,
57600,1871.5,64.9,68.1,98.9,1318.0,6141.0,3.0,1,
57700,1839.4,245.4,65.5,83.5,1246.0,4861.0,28.0,0,
57800,1867.0,65.2,95.0,81.6,1192.0,4248.0,2.0,0,
57900,1876.2,27.6,97.0,100.5,1192.0,4248.0,2.0,0,
58000,1855.7,24.6,97.0,147.0,1192.0,4248.0,2.0,0,
58100,1860.2,24.8,97.0,165.7,1192.0,4248.0,2.0,0,
58200,1860.8,22.7,97.1,216.9,1192.0,4248.0,2.0,0,
58300,1859.0,23.5,97.0,240.1,1192.0,4248.0,2.0,0,
58400,1859.0,25.7,97.0,240.0,1192.0,4248.0,2.0,0,
58600,1859.4,24.3,97.0,239.8,1192.0,4248.0,2.0,0,
58700,1858.3,24.8,97.1,240.0,1192.0,4248.0,2.0,0,
58800,1857.8,65.3,97.1,240.1,1203.0,6759.0,3.0,1,
58900,1841.5,206.1,97.9,239.1,1675.0,8644.0,4.0,1,
59000,1861.6,72.7,109.6,93.1,1588.0,8082.0,3.0,1,
59100,1847.3,102.6,111.3,41.5,1492.0,7366.0,3.0,1,
59200,1858.0,79.3,112.9,40.9,1487.0,7269.0,3.0,1,
59300,1884.6,75.3,112.3,77.9,1166.0,6039.0,3.0,1,
59400,1838.4,52.7,92.8,78.0,1431.0,7212.0,4.0,1,
59600,1857.5,25.6,82.5,82.1,1431.0,7212.0,4.0,1,
59700,1860.4,21.7,82.5,67.2,1431.0,7212.0,4.0,1,
59800,1860.4,24.0,82.4,98.9,1431.0,7212.0,4.0,1,
59900,1858.3,25.1,82.4,239.7,1431.0,7212.0,4.0,1,
60000,1858.6,24.0,82.4,239.9,1431.0,7212.0,4.0,1,
60100,1858.3,24.6,82.4,239.9,1431.0,7212.0,4.0,1,
60200,1859.2,25.5,82.5,240.1,1431.0,7212.0,4.0,1,
60300,1860.9,27.5,82.4,240.1,1431.0,7212.0,4.0,1,
60400,1858.7,56.5,82.5,240.0,1431.0,7212.0,4.0,1,
60600,1844.0,100.1,67.4,116.3,1682.0,8070.0,4.0,1,
60700,1901.2,107.8,69.4,92.8,1464.0,7876.0,3.0,1,
60800,1820.5,238.3,67.6,66.4,1332.0,5888.0,28.0,0,
60900,1873.7,110.7,102.6,39.2,1269.0,5130.0,2.0,0,
61000,1837.6,226.0,126.1,99.3,1066.0,4796.0,2.0,0,
61100,1871.3,36.7,148.0,190.0,1066.0,4796.0,2.0,0,
61200,1857.5,26.4,148.0,164.0,1066.0,4796.0,2.0,0,
61300,1859.9,25.1,148.0,92.7,1066.0,4796.0,2.0,0,
61400,1860.5,28.2,148.1,41.7,1066.0,4796.0,2.0,0,
61600,1858.4,24.4,148.1,239.8,1066.0,4796.0,2.0,0,
61700,1859.9,30.0,148.1,239.7,1066.0,4796.0,2.0,0,
61800,1861.5,28.9,148.1,239.8,1066.0,4796.0,2.0,0,
61900,1859.4,27.0,148.2,239.9,1066.0,4796.0,2.0,0,
62000,1859.5,27.8,148.2,240.1,1066.0,4796.0,2.0,0,
62100,1885.7,66.0,148.7,239.7,1301.0,6939.0,3.0,1,
62200,1828.1,77.7,149.4,93.0,1656.0,7431.0,3.0,1,
62300,1869.4,55.2,147.8,70.6,1353.0,6204.0,3.0,1,
62400,1851.3,163.8,147.0,81.9,1329.0,6223.0,3.0,1,
62600,1885.4,375.2,140.8,87.9,1810.0,4810.0,2.0,0,
62700,1834.4,42.3,149.3,136.8,787.0,3437.0,2.0,0,
62800,1860.1,22.0,149.2,164.0,787.0,3437.0,2.0,0,
62900,1856.8,22.9,149.2,130.9,787.0,3437.0,2.0,0,
63000,1858.4,22.4,149.2,93.2,787.0,3437.0,2.0,0,
63100,1860.0,27.4,149.1,91.8,787.0,3437.0,2.0,0,
63200,1859.1,26.8,149.1,240.1,787.0,3437.0,2.0,0,
63300,1860.5,26.6,149.2,239.7,787.0,3437.0,2.0,0,
63400,1858.6,24.4,149.2,239.6,787.0,3437.0,2.0,0,
63600,1859.0,22.9,149.1,240.0,787.0,3437.0,2.0,0,
63700,1861.9,93.9,150.2,239.8,1362.0,7340.0,4.0,1,
63800,1862.7,71.9,149.1,100.4,1339.0,6357.0,3.0,1,
63900,1840.9,159.3,149.0,92.8,1589.0,7314.0,4.0,1,
64000,1901.8,92.6,152.8,94.7,1363.0,6648.0,3.0,1,
64100,1826.7,274.3,147.0,70.3,1298.0,5184.0,28.0,0,
64200,1870.9,117.8,149.0,53.5,1141.0,4207.0,2.0,0,
64300,1836.5,37.6,132.6,88.1,1046.0,4443.0,2.0,0,
64400,1868.4,25.7,132.6,152.1,1046.0,4443.0,2.0,0,
64600,1859.4,23.1,132.6,227.0,1046.0,4443.0,2.0,0,
64700,1858.8,22.5,132.6,230.1,1046.0,4443.0,2.0,0,
64800,1856.8,26.1,132.6,240.2,1046.0,4443.0,2.0,0,
64900,1858.7,27.2,132.6,240.1,1046.0,4443.0,2.0,0,
65000,1862.0,26.4,132.6,240.0,1046.0,4443.0,2.0,0,
65100,1860.0,20.9,132.6,239.9,1046.0,4443.0,2.0,0,
65200,1860.3,22.6,132.5,239.9,1046.0,4443.0,2.0,0,
65300,1858.9,123.1,132.5,240.0,1454.0,7461.0,3.0,1,
65400,1891.3,38.8,138.9,72.9,1272.0,6886.0,4.0,1,
65600,1854.6,81.5,134.4,36.2,1424.0,7393.0,3.0,1,
65700,1849.4,142.4,140.5,34.2,1311.0,6734.0,4.0,1,
65800,1854.0,200.7,132.0,34.2,1251.0,4856.0,2.0,0,
65900,1894.1,46.3,127.2,48.5,1223.0,4771.0,2.0,0,
66000,1845.0,27.3,126.1,115.4,1223.0,4771.0,2.0,0,
66100,1857.9,26.3,126.1,200.6,1223.0,4771.0,2.0,0,
66200,1859.4,27.4,126.1,228.4,1223.0,4771.0,2.0,0,
66300,1861.5,28.2,126.2,230.8,1223.0,4771.0,2.0,0,
66400,1859.7,22.5,126.3,239.7,1223.0,4771.0,2.0,0,
66600,1858.9,25.3,126.2,239.8,1223.0,4771.0,2.0,0,
66700,1858.2,24.4,126.3,239.9,1223.0,4771.0,2.0,0,
66800,1859.8,23.7,126.3,239.7,1223.0,4771.0,2.0,0,
66900,1857.7,57.0,126.3,240.0,1032.0,6085.0,4.0,1,
67000,1840.5,114.0,116.8,239.4,1439.0,7523.0,4.0,1,
67100,1870.6,67.2,120.2,57.4,1450.0,7692.0,4.0,1,
67200,1837.5,250.1,120.4,40.7,1500.0,5928.0,2.0,0,
67300,1908.8,309.0,141.6,41.6,1349.0,5326.0,2.0,0,
67400,1821.9,285.6,169.9,93.1,1270.0,5392.0,2.0,0,
67600,1863.9,26.3,170.7,157.5,1270.0,5392.0,2.0,0,
67700,1858.1,25.7,170.6,130.9,1270.0,5392.0,2.0,0,
67800,1860.3,24.7,170.6,176.2,1270.0,5392.0,2.0,0,
67900,1859.6,26.9,170.6,219.7,1270.0,5392.0,2.0,0,
68000,1858.9,24.8,170.6,239.6,1270.0,5392.0,2.0,0,
68100,1857.5,24.3,170.6,239.8,1270.0,5392.0,2.0,0,
68200,1859.2,25.7,170.5,239.5,1270.0,5392.0,2.0,0,
68300,1858.7,23.9,170.5,239.7,1270.0,5392.0,2.0,0,
68400,1859.5,25.7,170.5,239.8,1270.0,5392.0,2.0,0,
68600,1839.2,65.6,170.5,239.6,1374.0,6947.0,3.0,1,
68700,1901.3,34.6,168.4,99.7,1537.0,8284.0,3.0,1,
68800,1825.8,236.9,168.1,67.2,1504.0,7586.0,3.0,1,
68900,1857.3,136.6,166.5,73.1,1422.0,5853.0,2.0,0,
69000,1851.7,258.0,154.9,88.8,1270.0,5531.0,2.0,0,
69100,1852.7,149.6,157.9,116.2,1415.0,4974.0,2.0,0,
69200,1884.4,34.1,157.2,194.4,1415.0,4974.0,2.0,0,
69300,1857.6,26.8,157.3,157.0,1415.0,4974.0,2.0,0,
69400,1860.4,25.4,157.3,155.2,1415.0,4974.0,2.0,0,
69600,1861.4,25.5,157.2,239.4,1415.0,4974.0,2.0,0,
69700,1859.3,24.7,157.3,240.2,1415.0,4974.0,2.0,0,
69800,1860.5,27.3,157.3,240.0,1415.0,4974.0,2.0,0,
69900,1860.0,25.5,157.2,239.9,1415.0,4974.0,2.0,0,
70000,1858.8,27.6,157.2,239.9,1415.0,4974.0,2.0,0,
70100,1860.2,33.8,157.3,240.0,1415.0,4974.0,2.0,0,
70200,1862.0,63.3,157.7,240.0,1244.0,7141.0,4.0,1,
70300,1831.5,131.4,158.4,102.3,1633.0,8124.0,4.0,1,
70400,1867.4,54.8,161.7,70.4,1519.0,7477.0,4.0,1,
70600,1908.4,146.3,153.6,39.5,1378.0,5671.0,2.0,0,
70700,1824.1,283.3,153.3,89.8,1175.0,5628.0,2.0,0,
70800,1868.6,42.4,154.7,159.0,1225.0,5213.0,2.0,0,
70900,1862.2,27.7,154.6,159.1,1225.0,5213.0,2.0,0,
71000,1857.0,25.9,154.6,99.8,1225.0,5213.0,2.0,0,
71100,1860.1,25.5,154.6,91.6,1225.0,5213.0,2.0,0,
71200,1861.1,25.4,154.6,125.7,1225.0,5213.0,2.0,0,
71300,1856.7,30.0,154.7,240.1,1225.0,5213.0,2.0,0,
71400,1860.1,26.5,154.7,239.8,1225.0,5213.0,2.0,0,
71600,1857.9,24.4,154.7,240.2,1225.0,5213.0,2.0,0,
71700,1859.5,24.8,154.7,240.0,1225.0,5213.0,2.0,0,
71800,1860.8,60.9,154.6,239.7,1305.0,7757.0,3.0,1,
71900,1839.3,254.2,154.5,133.9,1430.0,6224.0,2.0,0,
72000,1900.9,122.7,168.2,91.7,1587.0,6576.0,2.0,0,
72100,1829.4,318.2,185.1,86.1,1506.0,6063.0,2.0,0,
72200,1848.2,168.0,193.3,131.4,1484.0,5658.0,2.0,0,
72300,1863.1,284.9,191.4,158.3,1820.0,5774.0,2.0,0,
72400,1846.5,49.3,196.2,100.5,1194.0,5043.0,2.0,0,
72600,1859.4,27.7,196.1,130.1,1194.0,5043.0,2.0,0,
72700,1858.7,24.1,196.2,89.4,1194.0,5043.0,2.0,0,
72800,1858.8,23.5,196.1,74.6,1194.0,5043.0,2.0,0,
72900,1859.9,26.9,196.1,239.9,1194.0,5043.0,2.0,0,
73000,1859.5,25.9,196.1,240.1,1194.0,5043.0,2.0,0,
73100,1860.0,26.3,196.1,239.8,1194.0,5043.0,2.0,0,
73200,1860.0,24.9,196.1,239.6,1194.0,5043.0,2.0,0,
73300,1859.4,28.5,196.1,240.0,1194.0,5043.0,2.0,0,
73400,1878.8,137.4,196.3,240.0,1478.0,8821.0,4.0,1,
73600,1822.1,73.0,187.6,92.4,1675.0,8287.0,4.0,1,
73700,1876.9,73.6,179.8,92.3,1525.0,7668.0,3.0,1,
73800,1831.0,286.6,151.9,66.9,1319.0,6230.0,2.0,0,
73900,1917.0,131.7,149.4,37.5,1347.0,5436.0,2.0,0,
74000,1830.9,70.0,148.7,76.4,1085.0,4479.0,2.0,0,
74100,1856.6,28.7,148.6,146.1,1085.0,4479.0,2.0,0,
74200,1859.2,26.3,148.6,159.2,1085.0,4479.0,2.0,0,
74300,1859.3,26.5,148.6,141.5,1085.0,4479.0,2.0,0,
74400,1859.2,27.3,148.6,102.2,1085.0,4479.0,2.0,0,
74600,1859.4,28.3,148.6,240.1,1085.0,4479.0,2.0,0,
74700,1861.6,26.0,148.6,239.9,1085.0,4479.0,2.0,0,
74800,1859.3,25.5,148.6,239.7,1085.0,4479.0,2.0,0,
74900,1858.9,26.8,148.6,239.7,1085.0,4479.0,2.0,0,
75000,1858.7,97.6,148.6,239.8,1147.0,6755.0,4.0,1,
75100,1858.5,50.4,148.0,237.5,1456.0,8072.0,3.0,1,
75200,1859.6,207.8,147.7,69.3,1461.0,7473.0,4.0,1,
75300,1883.6,198.3,159.8,66.4,1327.0,5097.0,2.0,0,
75400,1850.7,298.7,172.3,69.8,1250.0,5388.0,2.0,0,
75600,1871.4,70.3,185.6,163.9,1255.0,5329.0,2.0,0,
75700,1870.6,27.8,175.0,132.2,1255.0,5329.0,2.0,0,
75800,1858.5,26.5,175.0,134.9,1255.0,5329.0,2.0,0,
75900,1860.3,22.7,175.0,226.2,1255.0,5329.0,2.0,0,
76000,1858.1,19.8,175.0,227.5,1255.0,5329.0,2.0,0,
76100,1858.8,13.7,174.9,239.9,1255.0,5329.0,2.0,0,
76200,1857.1,15.2,174.9,240.0,1255.0,5329.0,2.0,0,
76300,1857.8,15.1,174.7,240.0,1255.0,5329.0,2.0,0,
76400,1858.2,15.8,174.6,239.7,1255.0,5329.0,2.0,0,
76600,1858.5,39.4,174.5,239.9,1104.0,6226.0,3.0,1,
76700,1859.5,259.2,174.7,238.0,1279.0,5950.0,2.0,0,
76800,1874.0,128.4,190.3,89.0,1462.0,5974.0,2.0,0,
76900,1825.7,247.7,199.5,94.1,1231.0,5231.0,2.0,0,
77000,1871.2,167.4,201.8,165.3,1274.0,5459.0,2.0,0,
77100,1833.6,320.2,197.0,148.2,1055.0,4796.0,2.0,0,
77200,1914.9,138.2,201.6,68.5,1264.0,5216.0,2.0,0,
77300,1841.1,31.3,202.5,135.7,1264.0,5216.0,2.0,0,
77400,1857.3,22.4,202.5,104.8,1264.0,5216.0,2.0,0,
77600,1859.0,22.1,202.5,163.5,1264.0,5216.0,2.0,0,
77700,1860.1,24.6,202.5,238.0,1264.0,5216.0,2.0,0,
77800,1860.5,26.2,202.6,240.2,1264.0,5216.0,2.0,0,
77900,1858.0,27.5,202.7,240.2,1264.0,5216.0,2.0,0,
78000,1861.4,29.7,202.7,239.8,1264.0,5216.0,2.0,0,
78100,1861.5,26.6,202.8,239.7,1264.0,5216.0,2.0,0,
78200,1857.3,53.7,202.9,239.9,1264.0,5216.0,2.0,0,
78300,1835.0,73.7,203.5,239.9,1444.0,7513.0,4.0,1,
78400,1859.5,107.4,190.2,72.0,1554.0,7958.0,3.0,1,
78600,1882.2,184.4,158.0,67.0,1476.0,8283.0,4.0,1,
78700,1853.0,102.0,145.3,78.7,1312.0,7045.0,3.0,1,
78800,1830.8,221.3,111.5,35.2,1257.0,6029.0,28.0,0,
78900,1884.8,39.0,113.5,42.0,1172.0,5157.0,2.0,0,
79000,1857.6,26.3,113.6,91.4,1172.0,5157.0,2.0,0,
79100,1859.4,26.1,113.6,90.6,1172.0,5157.0,2.0,0,
79200,1858.2,22.2,113.7,93.0,1172.0,5157.0,2.0,0,
79300,1861.8,25.6,113.7,226.6,1172.0,5157.0,2.0,0,
79400,1860.3,27.0,113.7,240.3,1172.0,5157.0,2.0,0,
79600,1858.8,28.4,113.7,239.8,1172.0,5157.0,2.0,0,
79700,1858.5,25.8,113.7,239.7,1172.0,5157.0,2.0,0,
79800,1859.2,24.1,113.7,239.8,1172.0,5157.0,2.0,0,
79900,1849.9,95.3,113.5,239.7,1352.0,7918.0,3.0,1,
80000,1859.4,56.0,114.5,116.4,1662.0,8207.0,4.0,1,
80100,1873.0,98.9,115.3,68.5,1504.0,8319.0,3.0,1,
80200,1821.5,182.9,117.0,66.5,1389.0,7397.0,3.0,1,
80300,1870.7,96.8,111.7,45.2,1356.0,7420.0,3.0,1,
80400,1835.8,126.4,114.1,45.1,1291.0,7159.0,4.0,1,
80600,1865.5,27.4,94.2,66.5,1291.0,7159.0,4.0,1,
80700,1858.8,28.3,94.2,35.1,1291.0,7159.0,4.0,1,
80800,1860.2,27.1,94.3,34.5,1291.0,7159.0,4.0,1,
80900,1858.6,28.0,94.4,71.1,1291.0,7159.0,4.0,1,
81000,1858.7,25.8,94.5,239.9,1291.0,7159.0,4.0,1,
81100,1859.6,28.5,94.4,240.0,1291.0,7159.0,4.0,1,
81200,1858.0,27.1,94.5,239.8,1291.0,7159.0,4.0,1,
81300,1860.8,29.1,94.5,239.5,1291.0,7159.0,4.0,1,
81400,1860.0,27.0,94.5,239.5,1291.0,7159.0,4.0,1,
81600,1817.2,69.6,93.6,169.3,1561.0,7452.0,3.0,1,
81700,1859.4,83.6,96.5,80.1,1542.0,7446.0,3.0,1,
81800,1860.0,102.5,90.2,66.9,1351.0,7417.0,3.0,1,
81900,1882.1,205.1,86.7,47.1,1414.0,7834.0,4.0,1,
82000,1853.2,87.2,96.4,80.5,1296.0,6903.0,3.0,1,
82100,1832.4,39.9,94.6,30.2,1303.0,7604.0,4.0,1,
82200,1865.1,26.3,94.0,35.2,1303.0,7604.0,4.0,1,
82300,1856.7,30.9,94.0,38.0,1303.0,7604.0,4.0,1,
82400,1860.6,25.3,94.0,35.5,1303.0,7604.0,4.0,1,
82600,1860.2,26.3,94.0,238.9,1303.0,7604.0,4.0,1,
82700,1860.2,24.8,94.0,239.6,1303.0,7604.0,4.0,1,
82800,1859.4,25.8,93.9,240.0,1303.0,7604.0,4.0,1,
82900,1859.5,26.2,93.9,239.9,1303.0,7604.0,4.0,1,
83000,1860.1,25.3,93.9,239.8,1303.0,7604.0,4.0,1,
83100,1858.4,51.7,93.8,239.7,1244.0,6570.0,4.0,1,
83200,1867.4,60.4,92.6,238.1,1500.0,7110.0,3.0,1,
83300,1862.3,288.4,95.3,91.2,1391.0,5577.0,28.0,0,
83400,1871.4,109.4,124.5,79.3,1382.0,5057.0,2.0,0,
83600,1874.2,182.2,162.0,157.9,1298.0,5121.0,2.0,0,
83700,1832.2,64.3,179.8,157.9,1249.0,5071.0,2.0,0,
83800,1881.4,27.5,180.7,131.1,1249.0,5071.0,2.0,0,
83900,1861.0,24.2,180.7,225.6,1249.0,5071.0,2.0,0,
84000,1857.9,27.1,180.6,226.5,1249.0,5071.0,2.0,0,
84100,1860.3,27.8,180.6,227.4,1249.0,5071.0,2.0,0,
84200,1859.1,26.0,180.6,240.1,1249.0,5071.0,2.0,0,
84300,1858.2,25.7,180.6,240.1,1249.0,5071.0,2.0,0,
84400,1857.7,26.0,180.6,239.9,1249.0,5071.0,2.0,0,
84600,1859.9,24.9,180.7,240.2,1249.0,5071.0,2.0,0,
84700,1859.0,31.2,180.7,240.2,1209.0,6662.0,4.0,1,
84800,1892.8,77.4,180.8,239.6,1536.0,7548.0,3.0,1,
84900,1827.6,75.4,183.0,68.5,1442.0,7166.0,3.0,1,
85000,1858.3,102.3,164.3,54.3,1545.0,7769.0,3.0,1,
85100,1864.6,83.5,150.3,55.9,1342.0,7377.0,4.0,1,
85200,1874.7,210.0,113.2,40.8,1402.0,7269.0,4.0,1,
85300,1858.0,57.0,93.7,35.7,1282.0,7039.0,3.0,1,
85400,1847.9,28.6,83.9,28.6,1282.0,7039.0,3.0,1,
85600,1859.4,25.1,83.9,29.8,1282.0,7039.0,3.0,1,
85700,1859.0,26.3,83.9,37.2,1282.0,7039.0,3.0,1,
85800,1860.8,22.6,83.9,239.8,1282.0,7039.0,3.0,1,
85900,1857.2,26.6,83.8,240.1,1282.0,7039.0,3.0,1,
86000,1857.4,26.1,83.9,239.6,1282.0,7039.0,3.0,1,
86100,1858.6,27.8,83.9,239.2,1282.0,7039.0,3.0,1,
86200,1858.4,26.7,83.9,239.5,1282.0,7039.0,3.0,1,
86300,1857.8,45.2,83.9,239.9,1282.0,7039.0,3.0,1,
86400,1842.0,93.9,84.1,239.9,1485.0,7670.0,5.0,1,
86600,1862.7,105.7,87.2,40.6,1513.0,7140.0,3.0,1,
86700,1872.2,78.4,91.3,35.0,1493.0,7147.0,3.0,1,
86800,1831.2,196.9,92.0,28.2,1310.0,6988.0,4.0,1,
86900,1866.1,156.6,105.6,36.0,1345.0,5510.0,2.0,0,
87000,1876.3,31.2,120.0,93.0,1345.0,5510.0,2.0,0,
87100,1857.3,23.8,120.0,133.5,1345.0,5510.0,2.0,0,
87200,1858.4,23.3,120.0,159.2,1345.0,5510.0,2.0,0,
87300,1859.7,23.9,120.0,177.1,1345.0,5510.0,2.0,0,
87400,1859.0,26.0,120.0,229.7,1345.0,5510.0,2.0,0,
87600,1859.5,26.9,120.0,239.9,1345.0,5510.0,2.0,0,
87700,1857.8,25.1,120.0,240.1,1345.0,5510.0,2.0,0,
87800,1858.5,26.4,120.0,239.9,1345.0,5510.0,2.0,0,
87900,1859.3,26.8,120.0,239.8,1345.0,5510.0,2.0,0,
88000,1850.5,250.3,120.2,239.9,1088.0,5471.0,28.0,0,
88100,1883.9,148.2,136.4,93.0,1485.0,6000.0,2.0,0,
88200,1827.6,266.8,153.3,92.5,1420.0,5716.0,2.0,0,
88300,1855.6,219.2,178.3,159.1,1363.0,5451.0,2.0,0,
88400,1862.8,296.6,188.7,198.3,1582.0,5132.0,2.0,0,
88600,1853.7,39.8,201.0,201.2,1160.0,5094.0,2.0,0,
88700,1862.4,26.0,201.1,156.9,1160.0,5094.0,2.0,0,
88800,1859.8,26.8,201.1,136.6,1160.0,5094.0,2.0,0,
88900,1856.6,28.8,201.1,164.7,1160.0,5094.0,2.0,0,
89000,1859.2,26.3,201.2,177.4,1160.0,5094.0,2.0,0,
89100,1857.1,24.0,201.2,239.9,1160.0,5094.0,2.0,0,
89200,1857.2,23.6,201.2,239.7,1160.0,5094.0,2.0,0,
89300,1858.8,23.6,201.2,239.8,1160.0,5094.0,2.0,0,
89400,1858.7,23.5,201.1,240.2,1160.0,5094.0,2.0,0,
89600,1850.9,89.5,201.3,239.9,1477.0,9008.0,3.0,1,
89700,1838.4,238.1,197.5,136.5,1445.0,5830.0,2.0,0,
89800,1878.7,251.2,198.2,89.2,1372.0,5929.0,2.0,0,
89900,1862.7,325.3,197.9,93.5,1177.0,6407.0,2.0,0,
90000,1875.5,131.0,199.9,165.4,1263.0,5496.0,2.0,0,
90100,1829.0,267.7,199.6,157.6,1189.0,4950.0,2.0,0,
90200,1864.3,55.7,203.9,156.7,1146.0,4976.0,2.0,0,
90300,1870.3,25.5,203.5,187.8,1146.0,4976.0,2.0,0,
90400,1860.2,24.7,203.5,131.3,1146.0,4976.0,2.0,0,
90600,1858.9,26.6,203.4,158.2,1146.0,4976.0,2.0,0,
90700,1861.0,23.5,203.4,239.3,1146.0,4976.0,2.0,0,
90800,1858.7,25.8,203.4,239.7,1146.0,4976.0,2.0,0,
90900,1861.0,24.7,203.4,239.9,1146.0,4976.0,2.0,0,
91000,1860.0,25.3,203.4,239.9,1146.0,4976.0,2.0,0,
91100,1859.6,27.7,203.4,240.0,1146.0,4976.0,2.0,0,
91200,1862.2,66.7,203.4,240.0,1551.0,9097.0,3.0,1,
91300,1845.2,258.6,202.4,221.4,1474.0,8740.0,4.0,1,
91400,1881.4,117.8,194.1,71.9,1544.0,8035.0,3.0,1,
91600,1851.5,166.8,156.7,29.9,1371.0,7356.0,3.0,1,
91700,1868.8,62.9,145.4,35.7,1295.0,7249.0,4.0,1,
91800,1874.6,65.8,108.0,29.9,1128.0,5021.0,2.0,0,
91900,1844.5,30.2,108.8,35.5,1128.0,5021.0,2.0,0,
92000,1859.8,27.8,108.9,66.1,1128.0,5021.0,2.0,0,
92100,1859.0,27.2,108.9,43.9,1128.0,5021.0,2.0,0,
92200,1860.6,25.5,108.9,43.6,1128.0,5021.0,2.0,0,
92300,1857.2,25.6,109.0,238.0,1128.0,5021.0,2.0,0,
92400,1860.5,24.0,109.0,239.5,1128.0,5021.0,2.0,0,
92600,1859.2,22.0,108.9,240.0,1128.0,5021.0,2.0,0,
92700,1858.6,25.4,108.9,240.2,1128.0,5021.0,2.0,0,
92800,1858.0,81.1,108.9,240.0,1611.0,8186.0,4.0,1,
92900,1864.8,64.8,109.8,237.5,1479.0,7962.0,3.0,1,
93000,1839.9,83.0,94.7,66.7,1470.0,7887.0,4.0,1,
93100,1878.2,58.1,92.1,66.7,1443.0,7717.0,3.0,1,
93200,1863.9,86.0,91.2,75.4,1244.0,7354.0,4.0,1,
93300,1869.8,98.6,80.9,38.0,1313.0,7108.0,3.0,1,
93400,1834.0,52.5,80.9,66.1,1260.0,7093.0,3.0,1,
93600,1857.8,24.3,69.7,30.1,1260.0,7093.0,3.0,1,
93700,1859.2,25.4,69.6,35.5,1260.0,7093.0,3.0,1,
93800,1857.8,23.6,69.6,38.5,1260.0,7093.0,3.0,1,
93900,1859.8,25.7,69.6,239.6,1260.0,7093.0,3.0,1,
94000,1860.4,24.5,69.6,240.0,1260.0,7093.0,3.0,1,
94100,1859.0,22.6,69.6,239.9,1260.0,7093.0,3.0,1,
94200,1858.5,24.9,69.6,240.0,1260.0,7093.0,3.0,1,
94300,1861.9,23.4,69.6,239.9,1260.0,7093.0,3.0,1,
94400,1858.8,52.6,69.5,239.7,1234.0,6898.0,4.0,1,
94600,1863.7,222.5,72.6,66.6,1409.0,7687.0,3.0,1,
94700,1863.7,230.7,96.7,55.9,1384.0,5533.0,2.0,0,
94800,1851.7,249.5,121.2,85.8,1316.0,5770.0,2.0,0,
94900,1837.4,279.0,150.2,94.5,1270.0,5946.0,2.0,0,
95000,1880.4,117.3,166.0,194.4,1230.0,5315.0,2.0,0,
95100,1862.7,28.2,175.1,158.1,1230.0,5315.0,2.0,0,
95200,1857.9,26.3,175.1,164.1,1230.0,5315.0,2.0,0,
95300,1859.6,24.6,175.1,226.8,1230.0,5315.0,2.0,0,
95400,1858.6,24.7,175.1,227.1,1230.0,5315.0,2.0,0,
95600,1857.9,28.2,175.1,240.4,1230.0,5315.0,2.0,0,
95700,1859.4,25.2,175.1,240.2,1230.0,5315.0,2.0,0,
95800,1861.3,26.5,175.1,240.1,1230.0,5315.0,2.0,0,
95900,1860.1,26.6,175.2,240.0,1230.0,5315.0,2.0,0,
96000,1858.7,16.2,175.2,240.1,1230.0,5315.0,2.0,0,
96100,1866.0,256.4,175.5,240.0,1394.0,6547.0,28.0,0,
96200,1854.0,96.7,189.2,79.3,1487.0,6185.0,2.0,0,
96300,1832.8,282.5,197.0,86.8,1314.0,6443.0,2.0,0,
96400,1865.4,187.3,199.2,150.8,1333.0,6010.0,2.0,0,
96600,1860.9,257.5,197.9,40.5,1277.0,5854.0,2.0,0,
96700,1861.3,37.7,200.4,132.0,1281.0,5751.0,2.0,0,
96800,1857.8,26.0,200.4,129.9,1281.0,5751.0,2.0,0,
96900,1858.8,23.8,200.4,93.5,1281.0,5751.0,2.0,0,
97000,1859.5,25.7,200.4,101.5,1281.0,5751.0,2.0,0,
97100,1857.8,24.2,200.4,144.4,1281.0,5751.0,2.0,0,
97200,1860.8,24.7,200.4,239.6,1281.0,5751.0,2.0,0,
97300,1861.0,25.1,200.4,239.7,1281.0,5751.0,2.0,0,
97400,1859.4,25.3,200.3,239.8,1281.0,5751.0,2.0,0,
97600,1859.3,25.2,200.3,239.9,1281.0,5751.0,2.0,0,
97700,1849.1,97.5,200.6,239.5,1329.0,7826.0,4.0,1,
97800,1836.6,56.1,189.6,94.5,1657.0,8480.0,4.0,1,
97900,1898.1,86.0,173.1,67.9,1498.0,7989.0,4.0,1,
98000,1837.9,77.6,156.2,67.1,1423.0,7876.0,3.0,1,
98100,1864.1,132.1,137.3,90.8,1312.0,7107.0,3.0,1,
98200,1843.3,141.6,114.7,74.3,1245.0,7161.0,4.0,1,
98300,1849.5,48.2,96.6,37.7,1227.0,5154.0,2.0,0,
98400,1871.3,27.6,96.6,42.5,1227.0,5154.0,2.0,0,
98600,1859.1,26.1,96.6,37.6,1227.0,5154.0,2.0,0,
98700,1858.9,26.5,96.6,39.7,1227.0,5154.0,2.0,0,
98800,1859.0,24.2,96.7,239.5,1227.0,5154.0,2.0,0,
98900,1859.5,25.4,96.7,239.3,1227.0,5154.0,2.0,0,
99000,1859.5,26.2,96.7,239.5,1227.0,5154.0,2.0,0,
99100,1859.2,24.4,96.7,239.9,1227.0,5154.0,2.0,0,
99200,1859.2,22.5,96.6,240.1,1227.0,5154.0,2.0,0,
99300,1868.8,165.4,97.5,240.1,1359.0,7902.0,4.0,1,
99400,1871.9,93.2,102.5,41.3,1420.0,7174.0,3.0,1,
99600,1874.2,104.7,102.0,28.8,1388.0,7232.0,3.0,1,
99700,1841.2,268.1,102.8,29.3,1290.0,5192.0,2.0,0,
99800,1898.4,145.9,120.3,30.2,1136.0,4911.0,2.0,0,
99900,1836.2,48.5,134.3,40.6,1197.0,5186.0,2.0,0,
100000,1851.6,28.0,129.7,93.9,1197.0,5186.0,2.0,0,
100100,1858.6,23.6,129.8,195.3,1197.0,5186.0,2.0,0,
100200,1857.5,23.2,129.8,228.0,1197.0,5186.0,2.0,0,
100300,1859.5,23.2,129.7,228.6,1197.0,5186.0,2.0,0,
100400,1857.8,26.2,129.7,239.9,1197.0,5186.0,2.0,0,
100600,1856.9,27.4,129.7,239.8,1197.0,5186.0,2.0,0,
100700,1856.5,27.6,129.7,239.6,1197.0,5186.0,2.0,0,
100800,1857.0,23.9,129.8,239.8,1197.0,5186.0,2.0,0,
100900,1858.5,64.1,129.8,240.0,1443.0,8096.0,3.0,1,
101000,1833.5,147.8,124.4,238.7,1389.0,7196.0,4.0,1,
101100,1880.6,92.8,133.3,65.9,1531.0,7892.0,3.0,1,
101200,1859.3,257.2,132.7,35.1,1275.0,6412.0,28.0,0,
101300,1877.3,155.0,149.3,35.8,1292.0,5537.0,2.0,0,
101400,1837.5,247.3,151.1,131.2,1475.0,4773.0,2.0,0,
101600,1878.4,28.3,159.3,221.6,1475.0,4773.0,2.0,0,
101700,1859.1,23.0,159.3,146.1,1475.0,4773.0,2.0,0,
101800,1858.2,23.8,159.3,141.5,1475.0,4773.0,2.0,0,
101900,1859.0,25.6,159.2,213.8,1475.0,4773.0,2.0,0,
102000,1859.0,24.7,159.3,239.7,1475.0,4773.0,2.0,0,
102100,1859.4,27.0,159.3,239.9,1475.0,4773.0,2.0,0,
102200,1859.4,25.2,159.3,239.8,1475.0,4773.0,2.0,0,
102300,1858.5,24.1,159.2,239.9,1475.0,4773.0,2.0,0,
102400,1858.7,27.6,159.2,239.9,1475.0,4773.0,2.0,0,
102600,1864.0,47.1,164.8,87.1,1397.0,8030.0,3.0,1,
102700,1844.5,101.1,159.7,36.9,1458.0,7669.0,4.0,1,
102800,1865.3,71.5,159.3,37.5,1451.0,7482.0,3.0,1,
102900,1835.5,119.3,147.3,37.8,1331.0,6731.0,3.0,1,
103000,1877.3,82.5,133.1,29.4,1376.0,7263.0,3.0,1,
103100,1870.5,64.8,101.7,28.3,1274.0,6872.0,4.0,1,
103200,1840.1,25.4,90.1,29.8,1274.0,6872.0,4.0,1,
103300,1858.7,24.3,90.1,30.0,1274.0,6872.0,4.0,1,
103400,1858.8,27.6,90.2,34.8,1274.0,6872.0,4.0,1,
103600,1857.6,24.1,90.2,239.1,1274.0,6872.0,4.0,1,
103700,1858.3,27.2,90.2,239.7,1274.0,6872.0,4.0,1,
103800,1859.0,28.9,90.2,239.8,1274.0,6872.0,4.0,1,
103900,1860.1,26.4,90.2,239.9,1274.0,6872.0,4.0,1,
104000,1859.9,23.6,90.2,239.9,1274.0,6872.0,4.0,1,
104100,1858.7,42.6,90.1,239.8,1274.0,6872.0,4.0,1,
104200,1861.0,114.0,77.8,239.7,1596.0,8577.0,4.0,1,
104300,1859.2,93.9,81.0,70.3,1337.0,7640.0,4.0,1,
104400,1844.3,160.7,81.9,65.5,1447.0,7521.0,4.0,1,
104600,1835.7,111.5,85.1,30.3,1229.0,6627.0,3.0,1,
104700,1873.1,83.2,80.0,30.0,1164.0,6567.0,3.0,1,
104800,1850.2,29.6,80.2,35.8,1164.0,6567.0,3.0,1,
104900,1858.2,25.0,80.2,42.3,1164.0,6567.0,3.0,1,
105000,1857.7,25.1,80.2,35.0,1164.0,6567.0,3.0,1,
105100,1861.0,26.2,80.1,38.1,1164.0,6567.0,3.0,1,
105200,1859.8,25.3,80.2,238.9,1164.0,6567.0,3.0,1,
105300,1860.1,25.5,80.2,239.9,1164.0,6567.0,3.0,1,
105400,1859.9,23.6,80.2,239.9,1164.0,6567.0,3.0,1,
105600,1858.5,24.3,80.1,240.1,1164.0,6567.0,3.0,1,
105700,1860.2,27.1,80.1,239.8,1164.0,6567.0,3.0,1,
105800,1839.0,102.0,81.0,239.5,1618.0,8575.0,4.0,1,
105900,1893.5,73.9,81.6,45.4,1451.0,8065.0,3.0,1,
106000,1842.6,283.9,82.3,35.2,1238.0,7259.0,4.0,1,
106100,1854.4,205.6,105.9,36.3,1110.0,5147.0,2.0,0,
106200,1853.2,307.8,127.8,86.9,1374.0,4783.0,2.0,0,
106300,1848.2,278.7,157.5,92.7,1030.0,4640.0,2.0,0,
106400,1882.1,45.5,173.5,163.8,1051.0,4345.0,2.0,0,
106600,1857.7,23.0,173.5,86.2,1051.0,4345.0,2.0,0,
106700,1859.4,30.8,173.5,93.0,1051.0,4345.0,2.0,0,
106800,1859.2,27.7,173.5,100.3,1051.0,4345.0,2.0,0,
106900,1858.1,24.0,173.5,239.9,1051.0,4345.0,2.0,0,
107000,1859.7,28.4,173.6,239.3,1051.0,4345.0,2.0,0,
107100,1860.5,25.8,173.6,238.7,1051.0,4345.0,2.0,0,
107200,1859.8,23.7,173.6,239.6,1051.0,4345.0,2.0,0,
107300,1859.3,26.6,173.6,239.9,1051.0,4345.0,2.0,0,
107400,1869.1,93.4,173.6,239.9,1463.0,8069.0,3.0,1,
107600,1873.0,72.1,175.0,30.3,1137.0,5835.0,3.0,1,
107700,1841.1,73.0,164.9,29.8,1298.0,6206.0,3.0,1,
107800,1900.0,72.6,143.8,35.0,1219.0,6094.0,3.0,1,
107900,1835.8,62.5,117.7,42.6,1223.0,6030.0,3.0,1,
108000,1863.6,37.8,85.3,29.8,1260.0,6485.0,4.0,1,
108100,1857.8,27.6,84.5,29.9,1260.0,6485.0,4.0,1,
108200,1858.8,24.8,84.5,30.0,1260.0,6485.0,4.0,1,
108300,1859.0,23.8,84.6,35.0,1260.0,6485.0,4.0,1,
108400,1861.0,27.8,84.5,50.0,1260.0,6485.0,4.0,1,
108600,1859.7,25.3,84.6,239.8,1260.0,6485.0,4.0,1,
108700,1862.2,27.9,84.5,240.0,1260.0,6485.0,4.0,1,
108800,1857.1,26.3,84.5,240.0,1260.0,6485.0,4.0,1,
108900,1859.9,25.6,84.6,240.0,1260.0,6485.0,4.0,1,
109000,1858.8,121.8,84.6,239.9,1358.0,6820.0,3.0,1,
109100,1855.6,71.5,88.4,133.1,1429.0,6269.0,3.0,1,
109200,1867.9,171.3,83.4,35.0,1238.0,6270.0,4.0,1,
109300,1864.3,112.8,89.1,36.5,1149.0,6075.0,3.0,1,
109400,1835.7,82.7,91.1,46.7,1143.0,5949.0,4.0,1,
109600,1826.4,46.6,91.4,36.1,1245.0,6253.0,3.0,1,
109700,1881.1,26.5,91.4,28.9,1245.0,6253.0,3.0,1,
109800,1857.0,25.1,91.4,30.0,1245.0,6253.0,3.0,1,
109900,1858.5,26.1,91.4,30.2,1245.0,6253.0,3.0,1,
110000,1858.5,28.5,91.5,37.3,1245.0,6253.0,3.0,1,
110100,1860.2,28.8,91.5,240.2,1245.0,6253.0,3.0,1,
110200,1860.6,28.7,91.5,240.4,1245.0,6253.0,3.0,1,
110300,1859.0,26.4,91.5,240.0,1245.0,6253.0,3.0,1,
110400,1859.3,23.9,91.5,239.7,1245.0,6253.0,3.0,1,
110600,1860.8,60.9,91.4,240.2,1469.0,7040.0,3.0,1,
110700,1887.1,100.7,88.9,238.4,1276.0,6546.0,3.0,1,
110800,1835.0,200.3,91.4,29.0,1407.0,6777.0,4.0,1,
110900,1861.3,170.7,104.3,29.2,1054.0,4241.0,2.0,0,
111000,1854.6,254.5,120.5,35.1,1283.0,4896.0,2.0,0,
111100,1875.2,188.2,144.1,93.6,1079.0,4133.0,2.0,0,
111200,1852.0,142.6,157.0,173.8,1000.0,3896.0,2.0,0,
111300,1850.6,30.4,170.5,99.1,1000.0,3896.0,2.0,0,
111400,1857.5,25.9,170.5,122.1,1000.0,3896.0,2.0,0,
111600,1858.5,29.3,170.5,91.6,1000.0,3896.0,2.0,0,
111700,1858.7,26.8,170.5,100.4,1000.0,3896.0,2.0,0,
111800,1860.2,28.8,170.5,239.7,1000.0,3896.0,2.0,0,
111900,1858.9,26.1,170.5,239.6,1000.0,3896.0,2.0,0,
112000,1859.6,24.4,170.5,239.5,1000.0,3896.0,2.0,0,
112100,1857.9,27.6,170.5,239.5,1000.0,3896.0,2.0,0,
112200,1859.0,40.6,170.5,239.6,1000.0,3896.0,2.0,0,
112300,1843.1,210.5,176.3,208.3,1377.0,5481.0,2.0,0,
112400,1878.3,153.0,188.2,85.4,1293.0,4892.0,2.0,0,
112600,1871.6,134.4,198.2,197.2,1095.0,4456.0,2.0,0,
112700,1838.6,244.0,196.0,166.4,1101.0,4333.0,2.0,0,
112800,1869.2,107.6,198.9,151.9,1102.0,4279.0,2.0,0,
112900,1865.3,29.4,189.3,220.9,1102.0,4279.0,2.0,0,
113000,1859.3,29.3,189.3,134.7,1102.0,4279.0,2.0,0,
113100,1860.3,28.5,189.4,167.0,1102.0,4279.0,2.0,0,
113200,1858.3,27.9,189.4,226.5,1102.0,4279.0,2.0,0,
113300,1857.9,29.8,189.4,239.4,1102.0,4279.0,2.0,0,
113400,1859.7,27.3,189.4,239.8,1102.0,4279.0,2.0,0,
113600,1856.7,27.7,189.4,239.6,1102.0,4279.0,2.0,0,
113700,1858.2,28.5,189.4,239.6,1102.0,4279.0,2.0,0,
113800,1857.0,36.3,189.5,239.7,1102.0,4279.0,2.0,0,
113900,1853.2,137.8,188.8,239.9,1513.0,8155.0,4.0,1,
114000,1875.8,129.6,171.2,70.6,1366.0,6835.0,3.0,1,
114100,1837.2,87.6,160.1,66.7,1447.0,7082.0,3.0,1,
114200,1843.0,145.8,146.5,66.1,1220.0,5924.0,3.0,1,
114300,1867.0,66.6,135.3,29.9,1287.0,6335.0,3.0,1,
114400,1868.2,205.7,110.1,27.2,1128.0,4633.0,2.0,0,
114600,1861.5,26.9,113.7,75.5,1128.0,4633.0,2.0,0,
114700,1858.7,29.7,113.6,156.9,1128.0,4633.0,2.0,0,
114800,1859.7,27.5,113.7,187.0,1128.0,4633.0,2.0,0,
114900,1858.6,29.2,113.7,238.7,1128.0,4633.0,2.0,0,
115000,1858.7,29.4,113.6,240.2,1128.0,4633.0,2.0,0,
115100,1857.1,26.5,113.7,239.9,1128.0,4633.0,2.0,0,
115200,1859.6,29.4,113.6,239.8,1128.0,4633.0,2.0,0,
115300,1860.1,28.2,113.7,239.8,1128.0,4633.0,2.0,0,
115400,1858.7,28.5,113.7,240.0,1128.0,4633.0,2.0,0,
115600,1835.4,88.8,110.8,147.6,1431.0,7309.0,4.0,1,
115700,1878.6,132.0,112.6,39.1,1401.0,7463.0,3.0,1,
115800,1863.2,93.3,113.0,37.3,1373.0,6610.0,3.0,1,
115900,1873.5,68.7,101.2,29.8,1143.0,6102.0,3.0,1,
116000,1840.7,183.3,101.4,29.7,1247.0,6221.0,3.0,1,
116100,1861.8,52.7,95.4,29.5,1056.0,3846.0,2.0,0,
116200,1863.6,27.5,95.4,43.9,1056.0,3846.0,2.0,0,
116300,1859.0,31.1,95.4,52.5,1056.0,3846.0,2.0,0,
116400,1859.0,30.5,95.4,42.7,1056.0,3846.0,2.0,0,
116600,1857.4,27.6,95.4,239.7,1056.0,3846.0,2.0,0,
116700,1860.3,28.3,95.3,239.9,1056.0,3846.0,2.0,0,
116800,1858.8,28.4,95.3,239.9,1056.0,3846.0,2.0,0,
116900,1860.5,33.5,95.3,239.9,1056.0,3846.0,2.0,0,
117000,1859.9,30.0,95.3,239.9,1056.0,3846.0,2.0,0,
117100,1860.8,64.8,95.3,239.9,832.0,4586.0,3.0,1,
117200,1843.6,40.5,94.9,238.3,946.0,5478.0,4.0,1,
117300,1879.8,137.7,90.2,38.0,1115.0,5937.0,3.0,1,
117400,1843.3,82.6,91.6,35.8,1358.0,6836.0,3.0,1,
117600,1867.7,325.8,119.5,37.6,1650.0,5270.0,2.0,0,
117700,1863.7,92.1,148.0,152.0,1061.0,4584.0,2.0,0,
117800,1850.5,31.4,150.3,195.9,1061.0,4584.0,2.0,0,
117900,1858.9,28.6,150.2,94.4,1061.0,4584.0,2.0,0,
118000,1857.3,29.6,150.2,37.3,1061.0,4584.0,2.0,0,
118100,1859.4,28.0,150.2,36.4,1061.0,4584.0,2.0,0,
118200,1859.7,26.2,150.2,236.4,1061.0,4584.0,2.0,0,
118300,1860.4,28.3,150.2,240.0,1061.0,4584.0,2.0,0,
118400,1860.2,27.6,150.2,239.9,1061.0,4584.0,2.0,0,
118600,1860.5,28.6,150.2,239.9,1061.0,4584.0,2.0,0,
118700,1860.2,126.1,150.2,239.9,1242.0,5974.0,4.0,1,
118800,1866.6,79.1,152.5,238.1,1374.0,6193.0,3.0,1,
118900,1840.4,55.0,152.3,35.0,1174.0,5340.0,4.0,1,
119000,1878.0,89.3,147.3,30.0,1181.0,6087.0,3.0,1,
119100,1855.6,74.3,148.3,29.9,1182.0,5826.0,3.0,1,
119200,1872.7,63.1,127.6,28.4,1114.0,5825.0,3.0,1,
119300,1849.4,53.3,84.5,29.4,1179.0,6339.0,3.0,1,
119400,1851.9,35.1,67.7,29.4,1179.0,6339.0,3.0,1,
119600,1857.2,29.9,67.9,41.7,1179.0,6339.0,3.0,1,
119700,1859.0,27.5,67.9,66.2,1179.0,6339.0,3.0,1,
119800,1860.4,30.9,67.8,239.6,1179.0,6339.0,3.0,1,
119900,1858.5,28.9,67.9,240.1,1179.0,6339.0,3.0,1,
120000,1860.0,27.9,67.9,240.0,1179.0,6339.0,3.0,1,
120100,1858.9,29.9,67.9,240.0,1179.0,6339.0,3.0,1,
120200,1856.7,27.9,67.9,240.1,1179.0,6339.0,3.0,1,
120300,1858.7,35.2,67.9,239.9,1219.0,5975.0,4.0,1,
120400,1858.2,123.2,61.9,239.7,1304.0,6077.0,3.0,1,
120600,1856.6,126.0,78.7,29.5,1039.0,5162.0,4.0,1,
120700,1864.4,73.6,79.7,29.6,1177.0,6209.0,3.0,1,
120800,1837.0,106.7,79.3,44.3,1099.0,5561.0,4.0,1,
120900,1871.6,69.9,85.6,45.2,1081.0,5947.0,3.0,1,
121000,1854.5,29.7,85.1,47.4,1081.0,5947.0,3.0,1,
121100,1857.1,28.1,85.1,37.2,1081.0,5947.0,3.0,1,
121200,1861.2,26.6,85.1,35.2,1081.0,5947.0,3.0,1,
121300,1856.7,30.5,85.0,40.8,1081.0,5947.0,3.0,1,
121400,1859.3,28.0,85.0,199.8,1081.0,5947.0,3.0,1,
121600,1859.1,28.5,84.9,240.1,1081.0,5947.0,3.0,1,
121700,1859.5,25.6,84.9,239.9,1081.0,5947.0,3.0,1,
121800,1859.2,28.5,84.8,239.8,1081.0,5947.0,3.0,1,
121900,1858.6,20.8,84.8,240.0,1081.0,5947.0,3.0,1,
122000,1855.0,27.2,84.5,239.7,1135.0,5323.0,4.0,1,
122100,1865.5,77.0,75.4,237.6,1232.0,6171.0,3.0,1,
122200,1842.0,150.4,76.1,46.3,1071.0,5165.0,3.0,1,
122300,1860.8,76.3,74.8,29.0,1081.0,5942.0,3.0,1,
122400,1865.2,76.7,75.6,29.0,1133.0,6129.0,3.0,1,
122600,1870.1,37.5,83.7,29.8,979.0,5560.0,3.0,1,
122700,1861.3,26.8,83.8,42.7,979.0,5560.0,3.0,1,
122800,1859.0,28.7,83.6,40.6,979.0,5560.0,3.0,1,
122900,1858.0,28.5,83.8,36.1,979.0,5560.0,3.0,1,
123000,1857.8,29.4,83.8,117.3,979.0,5560.0,3.0,1,
123100,1858.0,29.4,83.8,239.6,979.0,5560.0,3.0,1,
123200,1860.0,26.2,83.8,239.7,979.0,5560.0,3.0,1,
123300,1858.3,29.1,83.8,239.7,979.0,5560.0,3.0,1,
123400,1859.6,28.2,83.9,239.8,979.0,5560.0,3.0,1,
123600,1849.7,31.6,84.0,239.8,1269.0,5891.0,4.0,1,
123700,1842.0,135.6,84.3,238.7,1172.0,5934.0,4.0,1,
123800,1881.5,53.2,90.3,82.6,1149.0,5954.0,3.0,1,
123900,1839.3,71.3,80.8,37.1,1053.0,5071.0,3.0,1,
124000,1884.4,85.9,82.1,29.1,1154.0,6252.0,3.0,1,
124100,1838.6,88.1,82.6,28.9,990.0,5054.0,4.0,1,
124200,1858.0,36.5,67.9,28.3,950.0,5409.0,4.0,1,
124300,1866.7,28.0,67.8,29.9,950.0,5409.0,4.0,1,
124400,1857.7,29.3,67.8,65.4,950.0,5409.0,4.0,1,
124600,1858.9,32.1,67.9,114.7,950.0,5409.0,4.0,1,
124700,1858.3,26.5,67.9,239.9,950.0,5409.0,4.0,1,
124800,1860.0,26.6,67.8,239.8,950.0,5409.0,4.0,1,
124900,1861.5,27.6,68.0,239.7,950.0,5409.0,4.0,1,
125000,1859.0,29.9,67.8,239.7,950.0,5409.0,4.0,1,
125100,1858.5,30.8,67.9,239.9,950.0,5409.0,4.0,1,
125200,1875.5,116.8,67.9,240.0,1378.0,6440.0,3.0,1,
125300,1847.9,33.4,79.9,77.5,1249.0,5681.0,3.0,1,
125400,1853.5,160.5,75.0,29.8,1148.0,6194.0,4.0,1,
125600,1836.0,82.8,79.4,36.4,1033.0,6294.0,4.0,1,
125700,1890.2,88.6,81.5,30.1,1068.0,6343.0,3.0,1,
125800,1830.3,46.3,82.3,30.1,994.0,5270.0,3.0,1,
125900,1862.9,27.8,82.2,38.1,994.0,5270.0,3.0,1,
126000,1858.8,26.6,82.2,42.0,994.0,5270.0,3.0,1,
126100,1858.1,29.9,82.1,55.2,994.0,5270.0,3.0,1,
126200,1859.6,30.1,82.1,71.2,994.0,5270.0,3.0,1,
126300,1861.5,26.1,82.0,239.9,994.0,5270.0,3.0,1,
126400,1861.2,28.0,82.2,240.1,994.0,5270.0,3.0,1,
126600,1860.3,31.8,82.2,240.0,994.0,5270.0,3.0,1,
126700,1861.2,28.1,82.3,239.9,994.0,5270.0,3.0,1,
126800,1857.6,103.4,82.2,240.0,689.0,4287.0,3.0,1,
126900,1877.4,60.7,85.4,76.9,934.0,5100.0,4.0,1,
127000,1835.2,152.1,87.1,35.1,775.0,4794.0,4.0,1,
127100,1884.9,89.7,87.9,34.2,974.0,5256.0,4.0,1,
127200,1855.6,61.2,91.2,29.9,879.0,5418.0,4.0,1,
127300,1852.0,181.9,88.8,30.0,1013.0,5861.0,4.0,1,
127400,1859.0,55.8,97.7,30.1,962.0,5479.0,4.0,1,
127600,1857.2,25.7,97.4,29.9,962.0,5479.0,4.0,1,
127700,1858.4,23.6,97.4,30.2,962.0,5479.0,4.0,1,
127800,1860.2,29.3,97.3,37.7,962.0,5479.0,4.0,1,
127900,1857.0,28.1,97.3,239.6,962.0,5479.0,4.0,1,
128000,1859.7,26.9,97.3,239.8,962.0,5479.0,4.0,1,
128100,1857.7,27.8,97.2,239.4,962.0,5479.0,4.0,1,
128200,1857.0,28.6,97.2,239.7,962.0,5479.0,4.0,1,
128300,1859.3,29.0,97.1,240.0,962.0,5479.0,4.0,1,
128400,1860.3,47.3,97.1,240.2,803.0,5304.0,4.0,1,
128600,1888.2,72.1,84.7,102.5,1246.0,6539.0,3.0,1,
128700,1832.6,235.3,75.3,30.1,1114.0,4744.0,28.0,0,
128800,1869.3,158.6,102.5,78.2,1076.0,4215.0,2.0,0,
128900,1841.2,263.5,122.9,94.6,911.0,4598.0,28.0,0,
129000,1895.5,127.6,142.7,166.1,1100.0,5242.0,2.0,0,
129100,1851.9,32.9,149.4,198.2,1100.0,5242.0,2.0,0,
129200,1859.6,26.6,149.4,151.1,1100.0,5242.0,2.0,0,
129300,1859.5,26.3,149.4,151.0,1100.0,5242.0,2.0,0,
129400,1857.3,30.1,149.5,164.8,1100.0,5242.0,2.0,0,
129600,1858.8,26.3,149.5,240.0,1100.0,5242.0,2.0,0,
129700,1860.0,26.9,149.5,239.8,1100.0,5242.0,2.0,0,
129800,1858.4,23.8,149.5,239.7,1100.0,5242.0,2.0,0,
129900,1860.5,26.0,149.5,240.1,1100.0,5242.0,2.0,0,
130000,1859.7,44.0,149.4,240.4,1100.0,5242.0,2.0,0,
130100,1845.1,54.0,149.3,240.3,1292.0,6458.0,4.0,1,
130200,1856.8,118.6,149.7,238.0,1339.0,6321.0,3.0,1,
130300,1863.9,64.0,152.1,35.5,1147.0,5867.0,3.0,1,
130400,1868.7,142.9,136.9,34.6,1219.0,6577.0,4.0,1,
130600,1849.5,80.9,94.4,30.1,1175.0,6585.0,4.0,1,
130700,1871.6,26.0,74.3,29.5,1175.0,6585.0,4.0,1,
130800,1859.5,24.2,74.1,30.1,1175.0,6585.0,4.0,1,
130900,1858.4,24.1,74.0,65.8,1175.0,6585.0,4.0,1,
131000,1856.9,25.5,73.9,65.8,1175.0,6585.0,4.0,1,
131100,1856.1,23.5,73.8,238.1,1175.0,6585.0,4.0,1,
131200,1859.3,24.8,73.6,240.0,1175.0,6585.0,4.0,1,
131300,1858.4,25.2,73.5,240.0,1175.0,6585.0,4.0,1,
131400,1858.0,27.5,73.5,240.0,1175.0,6585.0,4.0,1,
131600,1856.9,40.2,73.6,240.0,1175.0,6585.0,4.0,1,
131700,1855.5,41.1,76.8,239.7,1237.0,5680.0,4.0,1,
131800,1846.1,260.6,76.0,75.0,1422.0,5546.0,28.0,0,
131900,1875.1,114.7,100.3,43.0,1164.0,4289.0,2.0,0,
132000,1847.3,272.8,130.0,45.3,977.0,4611.0,2.0,0,
132100,1855.8,213.0,148.7,163.9,1090.0,5042.0,2.0,0,
132200,1857.6,298.3,163.8,188.9,1184.0,4788.0,2.0,0,
132300,1849.2,45.2,187.2,131.9,907.0,4307.0,2.0,0,
132400,1863.1,26.4,187.2,164.9,907.0,4307.0,2.0,0,
132600,1859.3,26.6,187.2,38.5,907.0,4307.0,2.0,0,
132700,1860.0,25.6,187.2,39.5,907.0,4307.0,2.0,0,
132800,1858.0,25.1,187.3,240.1,907.0,4307.0,2.0,0,
132900,1860.3,26.8,187.2,239.9,907.0,4307.0,2.0,0,
133000,1856.9,23.9,187.3,240.0,907.0,4307.0,2.0,0,
133100,1858.6,22.7,187.2,239.9,907.0,4307.0,2.0,0,
133200,1858.3,26.1,187.2,239.7,907.0,4307.0,2.0,0,
133300,1879.1,175.2,188.7,239.6,1283.0,6197.0,4.0,1,
133400,1852.6,63.5,192.6,44.9,1163.0,5370.0,3.0,1,
133600,1871.2,50.3,173.1,47.3,1052.0,5461.0,3.0,1,
133700,1853.7,246.8,146.1,77.3,1064.0,4991.0,2.0,0,
133800,1863.7,118.9,138.5,45.8,1032.0,4680.0,2.0,0,
133900,1853.0,56.2,131.4,51.6,870.0,3982.0,2.0,0,
134000,1854.3,25.6,130.3,141.0,870.0,3982.0,2.0,0,
134100,1860.4,25.5,130.3,158.7,870.0,3982.0,2.0,0,
134200,1860.3,25.4,130.3,131.4,870.0,3982.0,2.0,0,
134300,1858.8,22.0,130.3,90.9,870.0,3982.0,2.0,0,
134400,1859.0,24.9,130.2,239.2,870.0,3982.0,2.0,0,
134600,1859.1,24.6,130.3,240.1,870.0,3982.0,2.0,0,
134700,1859.6,24.7,130.3,240.0,870.0,3982.0,2.0,0,
134800,1857.5,23.3,130.3,239.9,870.0,3982.0,2.0,0,
134900,1858.4,32.0,130.3,240.0,1279.0,6369.0,4.0,1,
135000,1855.8,55.7,118.9,239.9,1292.0,5722.0,3.0,1,
135100,1863.7,57.5,120.0,134.4,1211.0,6103.0,3.0,1,
135200,1849.8,119.0,119.0,57.3,1172.0,6057.0,4.0,1,
135300,1871.0,85.3,119.8,35.2,1157.0,6197.0,3.0,1,
135400,1838.6,130.8,106.5,40.4,1160.0,6511.0,3.0,1,
135600,1862.2,31.7,72.5,44.5,1160.0,6511.0,3.0,1,
135700,1857.6,22.8,72.6,41.1,1160.0,6511.0,3.0,1,
135800,1859.5,24.9,72.5,37.9,1160.0,6511.0,3.0,1,
135900,1858.9,25.8,72.5,51.0,1160.0,6511.0,3.0,1,
136000,1859.2,24.7,72.5,238.7,1160.0,6511.0,3.0,1,
136100,1859.2,25.1,72.6,239.8,1160.0,6511.0,3.0,1,
136200,1859.2,22.1,72.6,240.0,1160.0,6511.0,3.0,1,
136300,1859.9,22.5,72.5,240.1,1160.0,6511.0,3.0,1,
136400,1859.4,26.1,72.5,239.9,1160.0,6511.0,3.0,1,
136600,1845.1,26.2,72.5,239.9,1333.0,6359.0,4.0,1,
136700,1866.6,66.3,70.1,157.3,1213.0,5760.0,3.0,1,
136800,1842.6,116.2,70.0,74.4,1255.0,6610.0,4.0,1,
136900,1854.8,88.4,80.0,66.4,1123.0,5788.0,3.0,1,
137000,1868.6,70.3,79.9,42.0,1189.0,6798.0,3.0,1,
137100,1842.9,70.5,75.7,37.2,1150.0,6462.0,4.0,1,
137200,1878.1,28.4,73.4,43.0,1150.0,6462.0,4.0,1,
137300,1858.4,22.6,73.3,65.7,1150.0,6462.0,4.0,1,
137400,1858.5,21.3,73.3,50.4,1150.0,6462.0,4.0,1,
137600,1858.2,25.2,73.2,239.2,1150.0,6462.0,4.0,1,
137700,1859.1,29.0,73.2,239.6,1150.0,6462.0,4.0,1,
137800,1858.5,25.6,73.4,239.7,1150.0,6462.0,4.0,1,
137900,1858.4,24.6,73.4,239.9,1150.0,6462.0,4.0,1,
138000,1860.1,22.8,73.4,239.8,1150.0,6462.0,4.0,1,
138100,1860.5,54.9,73.4,239.9,1150.0,6462.0,4.0,1,
138200,1846.0,52.7,74.6,239.9,1501.0,6606.0,3.0,1,
138300,1844.1,91.8,75.4,71.3,1260.0,5833.0,4.0,1,
138400,1880.8,57.4,78.2,30.2,1196.0,6365.0,3.0,1,
138600,1880.8,80.6,71.0,36.0,1046.0,5464.0,3.0,1,
138700,1841.3,132.7,69.5,40.1,1114.0,6250.0,2.0,0,
138800,1858.0,30.6,73.2,43.7,1114.0,6250.0,2.0,0,
138900,1855.0,25.2,73.2,39.3,1114.0,6250.0,2.0,0,
139000,1858.1,26.5,73.2,46.3,1114.0,6250.0,2.0,0,
139100,1858.2,26.0,73.3,65.8,1114.0,6250.0,2.0,0,
139200,1858.7,27.0,73.3,226.2,1114.0,6250.0,2.0,0,
139300,1858.1,26.7,73.4,240.2,1114.0,6250.0,2.0,0,
139400,1858.0,26.3,73.3,240.0,1114.0,6250.0,2.0,0,
139600,1857.4,25.1,73.3,239.8,1114.0,6250.0,2.0,0,
139700,1858.7,24.4,73.4,239.8,1114.0,6250.0,2.0,0,
139800,1872.5,90.9,75.0,239.9,1228.0,5961.0,3.0,1,
139900,1842.7,90.4,82.0,40.7,1300.0,6490.0,3.0,1,
140000,1865.2,63.7,81.4,30.1,1164.0,5683.0,4.0,1,
140100,1853.3,112.9,80.9,29.9,1253.0,6568.0,3.0,1,
140200,1842.2,170.0,91.4,34.5,1033.0,4342.0,2.0,0,
140300,1883.3,353.1,114.3,65.9,1780.0,5647.0,2.0,0,
140400,1838.1,45.1,144.8,169.9,955.0,5275.0,2.0,0,
140600,1858.5,27.1,144.8,93.7,955.0,5275.0,2.0,0,
140700,1861.2,27.5,144.8,41.4,955.0,5275.0,2.0,0,
140800,1859.8,26.6,144.8,56.8,955.0,5275.0,2.0,0,
140900,1860.6,25.7,144.8,239.8,955.0,5275.0,2.0,0,
141000,1857.8,24.9,144.7,239.8,955.0,5275.0,2.0,0,
141100,1859.7,25.5,144.7,239.9,955.0,5275.0,2.0,0,
141200,1859.7,23.4,144.7,239.9,955.0,5275.0,2.0,0,
141300,1860.1,25.1,144.7,240.1,955.0,5275.0,2.0,0,
141400,1858.6,59.9,144.7,240.2,1231.0,5474.0,3.0,1,
141600,1837.6,64.7,142.2,42.4,1212.0,5516.0,3.0,1,
141700,1883.4,56.6,142.1,40.3,1162.0,6439.0,3.0,1,
141800,1829.8,136.2,138.9,45.9,1205.0,6553.0,3.0,1,
141900,1877.3,91.7,125.1,47.1,1009.0,5516.0,3.0,1,
142000,1845.3,32.9,71.1,29.5,1077.0,6101.0,3.0,1,
142100,1859.4,24.2,70.1,34.3,1077.0,6101.0,3.0,1,
142200,1861.3,23.1,70.1,40.4,1077.0,6101.0,3.0,1,
142300,1861.5,26.2,70.0,56.1,1077.0,6101.0,3.0,1,
142400,1858.0,24.3,70.0,141.4,1077.0,6101.0,3.0,1,
142600,1858.8,24.1,69.8,239.7,1077.0,6101.0,3.0,1,
142700,1860.5,26.6,69.9,239.8,1077.0,6101.0,3.0,1,
142800,1861.9,26.4,69.9,240.1,1077.0,6101.0,3.0,1,
142900,1858.2,22.9,69.9,240.1,1077.0,6101.0,3.0,1,
143000,1857.2,102.1,69.8,240.0,1391.0,6570.0,4.0,1,
143100,1862.9,159.9,82.4,239.5,1161.0,4589.0,2.0,0,
143200,1850.8,258.7,105.1,164.0,1304.0,5752.0,2.0,0,
143300,1851.0,162.9,128.9,227.1,1127.0,4811.0,2.0,0,
143400,1872.5,287.9,142.4,228.0,1861.0,6616.0,2.0,0,
143600,1891.5,47.7,181.4,197.3,1076.0,4984.0,2.0,0,
143700,1850.8,24.5,181.2,131.3,1076.0,4984.0,2.0,0,
143800,1858.2,27.7,181.2,130.9,1076.0,4984.0,2.0,0,
143900,1858.5,23.7,181.2,232.2,1076.0,4984.0,2.0,0,
144000,1859.3,22.5,181.2,239.3,1076.0,4984.0,2.0,0,
144100,1858.9,22.6,181.2,239.8,1076.0,4984.0,2.0,0,
144200,1858.6,25.5,181.2,240.0,1076.0,4984.0,2.0,0,
144300,1862.4,24.7,181.2,240.1,1076.0,4984.0,2.0,0,
144400,1860.1,23.7,181.2,240.1,1076.0,4984.0,2.0,0,
144600,1858.2,25.3,181.2,239.8,1311.0,6374.0,3.0,1,
144700,1836.8,45.3,178.3,239.6,1197.0,5964.0,4.0,1,
144800,1876.0,63.6,164.8,150.8,1272.0,6322.0,3.0,1,
144900,1839.1,120.2,148.1,67.5,1268.0,6432.0,4.0,1,
145000,1881.1,57.8,132.2,29.9,1177.0,6076.0,4.0,1,
145100,1841.8,84.5,98.2,29.6,1212.0,6870.0,3.0,1,
145200,1858.5,58.6,69.6,29.7,1202.0,5612.0,4.0,1,
145300,1870.7,26.6,61.6,36.8,1202.0,5612.0,4.0,1,
145400,1860.0,26.6,61.9,37.1,1202.0,5612.0,4.0,1,
145600,1856.2,24.0,61.7,67.5,1202.0,5612.0,4.0,1,
145700,1858.2,26.5,61.7,239.4,1202.0,5612.0,4.0,1,
145800,1858.3,22.7,61.7,240.0,1202.0,5612.0,4.0,1,
145900,1858.2,23.6,61.6,240.3,1202.0,5612.0,4.0,1,
146000,1859.7,26.3,61.6,240.0,1202.0,5612.0,4.0,1,
146100,1858.1,24.2,61.7,240.1,1202.0,5612.0,4.0,1,
146200,1859.4,38.6,61.7,240.0,1199.0,6435.0,4.0,1,
146300,1858.7,35.8,62.4,239.7,1267.0,5971.0,3.0,1,
146400,1850.3,219.1,65.9,108.9,1251.0,4939.0,28.0,0,
146600,1842.2,206.7,124.6,148.0,1138.0,4698.0,2.0,0,
146700,1877.0,190.6,140.1,226.5,1216.0,5586.0,2.0,0,
146800,1840.3,198.1,161.9,187.0,1120.0,4702.0,2.0,0,
146900,1856.1,33.2,175.6,158.3,1120.0,4702.0,2.0,0,
147000,1859.0,26.1,175.6,154.9,1120.0,4702.0,2.0,0,
147100,1858.5,22.9,175.6,68.8,1120.0,4702.0,2.0,0,
147200,1858.8,27.5,175.5,37.1,1120.0,4702.0,2.0,0,
147300,1857.4,26.7,175.6,88.1,1120.0,4702.0,2.0,0,
147400,1859.2,22.7,175.6,240.3,1120.0,4702.0,2.0,0,
147600,1857.3,25.3,175.5,240.0,1120.0,4702.0,2.0,0,
147700,1861.0,24.4,175.5,239.8,1120.0,4702.0,2.0,0,
147800,1858.8,130.2,175.5,239.9,1120.0,4702.0,2.0,0,
147900,1889.2,71.9,178.0,238.6,1313.0,5825.0,3.0,1,
148000,1836.6,56.0,179.2,37.4,1189.0,5598.0,3.0,1,
148100,1854.8,160.0,167.9,35.5,1259.0,6534.0,3.0,1,
148200,1862.3,99.0,159.1,35.2,1169.0,6103.0,4.0,1,
148300,1861.6,76.7,137.0,29.5,1196.0,6005.0,4.0,1,
148400,1864.4,72.5,117.3,29.2,1291.0,7082.0,4.0,1,
148600,1860.0,26.7,84.4,35.3,1291.0,7082.0,4.0,1,
148700,1858.2,24.8,84.4,50.3,1291.0,7082.0,4.0,1,
148800,1859.7,22.9,84.5,65.6,1291.0,7082.0,4.0,1,
148900,1858.2,25.1,84.4,239.3,1291.0,7082.0,4.0,1,
149000,1858.5,24.2,84.4,240.0,1291.0,7082.0,4.0,1,
149100,1860.8,25.6,84.5,239.7,1291.0,7082.0,4.0,1,
149200,1858.3,24.2,84.5,239.8,1291.0,7082.0,4.0,1,
149300,1858.7,26.6,84.5,239.9,1291.0,7082.0,4.0,1,
149400,1858.5,24.9,84.6,240.1,1291.0,7082.0,4.0,1,
149600,1867.6,69.2,90.1,83.5,1322.0,5905.0,3.0,1,
149700,1851.2,119.8,91.2,28.7,1149.0,5373.0,3.0,1,
149800,1871.6,67.7,93.0,29.3,1274.0,6643.0,3.0,1,
149900,1848.4,88.4,93.1,30.1,1205.0,6001.0,4.0,1,
150000,1860.6,114.9,94.1,35.6,1292.0,6901.0,3.0,1,
150100,1860.3,34.1,96.3,34.9,1270.0,6839.0,3.0,1,
150200,1867.0,25.5,96.1,36.6,1270.0,6839.0,3.0,1,
150300,1858.9,25.6,96.1,35.4,1270.0,6839.0,3.0,1,
150400,1860.4,25.8,96.1,35.4,1270.0,6839.0,3.0,1,
150600,1859.9,24.2,96.1,240.0,1270.0,6839.0,3.0,1,
150700,1857.1,25.8,96.1,239.9,1270.0,6839.0,3.0,1,
150800,1858.2,27.2,96.1,239.6,1270.0,6839.0,3.0,1,
150900,1860.8,24.1,96.2,239.9,1270.0,6839.0,3.0,1,
151000,1858.2,23.2,96.1,240.1,1270.0,6839.0,3.0,1,
151100,1853.4,37.2,96.1,239.8,1234.0,6301.0,4.0,1,
151200,1859.4,148.6,81.8,239.3,1295.0,6222.0,4.0,1,
151300,1858.3,61.6,87.4,43.5,1174.0,5682.0,3.0,1,
151400,1840.5,229.4,73.8,29.3,1134.0,5231.0,2.0,0,
151600,1852.7,234.2,132.3,82.9,1270.0,5346.0,28.0,0,
151700,1867.2,59.8,144.8,194.6,1155.0,5286.0,2.0,0,
151800,1862.8,25.8,145.4,157.9,1155.0,5286.0,2.0,0,
151900,1859.0,22.1,145.4,131.3,1155.0,5286.0,2.0,0,
152000,1857.8,25.9,145.4,158.7,1155.0,5286.0,2.0,0,
152100,1858.1,27.5,145.4,168.2,1155.0,5286.0,2.0,0,
152200,1859.1,24.0,145.4,239.5,1155.0,5286.0,2.0,0,
152300,1859.5,28.0,145.4,239.9,1155.0,5286.0,2.0,0,
152400,1856.6,23.7,145.4,239.9,1155.0,5286.0,2.0,0,
152600,1859.2,23.6,145.3,240.0,1155.0,5286.0,2.0,0,
152700,1858.8,54.0,145.3,240.1,1335.0,6328.0,3.0,1,
152800,1841.5,55.0,146.2,205.9,1153.0,5789.0,3.0,1,
152900,1859.1,82.9,142.6,47.4,1243.0,6488.0,3.0,1,
153000,1868.3,49.8,143.2,40.8,1103.0,5694.0,4.0,1,
153100,1846.4,172.0,128.8,29.5,1217.0,6811.0,3.0,1,
153200,1874.5,89.0,106.8,29.5,1144.0,5987.0,3.0,1,
153300,1838.7,71.8,78.4,35.2,1067.0,4583.0,2.0,0,
153400,1860.1,27.3,76.8,29.9,1067.0,4583.0,2.0,0,
153600,1856.9,25.7,76.9,40.5,1067.0,4583.0,2.0,0,
153700,1859.2,28.5,76.9,39.9,1067.0,4583.0,2.0,0,
153800,1860.2,27.9,76.9,237.1,1067.0,4583.0,2.0,0,
153900,1861.7,24.9,77.0,240.0,1067.0,4583.0,2.0,0,
154000,1859.3,23.2,76.9,239.9,1067.0,4583.0,2.0,0,
154100,1857.2,28.9,76.9,240.0,1067.0,4583.0,2.0,0,
154200,1859.6,27.2,76.9,239.8,1067.0,4583.0,2.0,0,
154300,1858.9,58.1,77.0,239.8,1325.0,6390.0,3.0,1,
154400,1871.1,37.8,75.9,238.9,1230.0,5696.0,3.0,1,
154600,1869.0,78.4,75.5,39.5,1163.0,5983.0,4.0,1,
154700,1849.7,80.1,76.5,37.1,1093.0,6113.0,3.0,1,
154800,1845.6,101.4,67.6,35.6,1110.0,6018.0,4.0,1,
154900,1886.2,67.3,69.2,66.6,1038.0,5671.0,4.0,1,
155000,1844.1,28.4,58.9,66.9,1038.0,5671.0,4.0,1,
155100,1858.0,27.1,58.8,66.0,1038.0,5671.0,4.0,1,
155200,1859.4,23.1,59.0,66.0,1038.0,5671.0,4.0,1,
155300,1858.5,25.3,59.0,66.9,1038.0,5671.0,4.0,1,
155400,1858.8,25.2,58.9,239.5,1038.0,5671.0,4.0,1,
155600,1859.7,26.3,58.8,239.9,1038.0,5671.0,4.0,1,
155700,1858.6,28.0,58.9,239.9,1038.0,5671.0,4.0,1,
155800,1858.8,23.4,58.9,239.6,1038.0,5671.0,4.0,1,
155900,1858.9,35.4,58.8,239.9,1038.0,5671.0,4.0,1,
156000,1854.4,187.6,70.7,239.5,1192.0,4827.0,2.0,0,
156100,1867.5,250.9,95.7,70.8,1737.0,4743.0,2.0,0,
156200,1835.6,270.9,132.3,92.2,1334.0,5644.0,28.0,0,
156300,1887.8,253.1,153.8,158.3,1201.0,4255.0,2.0,0,
156400,1834.1,252.7,175.6,98.9,1083.0,4732.0,2.0,0,
156600,1860.8,28.9,192.8,158.7,1087.0,4380.0,2.0,0,
156700,1861.1,25.0,192.7,130.1,1087.0,4380.0,2.0,0,
156800,1858.3,23.7,192.7,226.9,1087.0,4380.0,2.0,0,
156900,1858.9,22.5,192.7,238.4,1087.0,4380.0,2.0,0,
157000,1857.9,24.4,192.7,238.9,1087.0,4380.0,2.0,0,
157100,1859.1,25.8,192.7,239.7,1087.0,4380.0,2.0,0,
157200,1859.0,23.4,192.7,239.8,1087.0,4380.0,2.0,0,
157300,1859.1,27.0,192.7,240.0,1087.0,4380.0,2.0,0,
157400,1859.0,26.6,192.7,240.1,1087.0,4380.0,2.0,0,
157600,1846.9,39.1,192.7,239.9,1278.0,6128.0,3.0,1,
157700,1859.5,51.3,179.2,238.0,1153.0,5242.0,4.0,1,
157800,1853.2,58.3,160.6,35.0,1233.0,6338.0,3.0,1,
157900,1852.2,132.8,139.3,29.9,1209.0,6220.0,3.0,1,
158000,1875.4,80.2,123.5,40.1,1130.0,6403.0,3.0,1,
158100,1835.9,142.0,95.8,42.5,1246.0,6498.0,3.0,1,
158200,1873.7,35.7,82.1,38.2,1133.0,6256.0,4.0,1,
158300,1863.3,24.0,82.1,36.2,1133.0,6256.0,4.0,1,
158400,1857.2,25.2,82.1,40.7,1133.0,6256.0,4.0,1,
158600,1859.4,23.7,82.2,75.4,1133.0,6256.0,4.0,1,
158700,1860.2,23.9,82.2,239.8,1133.0,6256.0,4.0,1,
158800,1861.1,24.4,82.1,239.8,1133.0,6256.0,4.0,1,
158900,1859.3,25.0,82.2,240.0,1133.0,6256.0,4.0,1,
159000,1857.8,26.8,82.1,240.0,1133.0,6256.0,4.0,1,
159100,1859.3,24.8,82.1,240.0,1133.0,6256.0,4.0,1,
159200,1877.8,49.8,84.7,239.9,1173.0,5919.0,3.0,1,
159300,1817.7,58.0,86.0,73.4,1221.0,5882.0,3.0,1,
159400,1870.1,49.0,80.3,35.3,1109.0,5515.0,3.0,1,
159600,1874.0,68.4,73.5,29.8,1060.0,5390.0,4.0,1,
159700,1845.0,82.1,72.7,29.1,1195.0,6441.0,3.0,1,
159800,1853.3,39.0,67.9,29.9,1166.0,6433.0,4.0,1,
159900,1858.7,27.2,67.6,37.5,1166.0,6433.0,4.0,1,
160000,1858.3,26.4,67.6,56.3,1166.0,6433.0,4.0,1,
160100,1859.3,27.5,67.7,53.8,1166.0,6433.0,4.0,1,
160200,1860.5,24.2,67.7,76.6,1166.0,6433.0,4.0,1,
160300,1859.9,22.3,67.6,239.8,1166.0,6433.0,4.0,1,
160400,1859.3,23.8,67.7,239.9,1166.0,6433.0,4.0,1,
160600,1857.8,24.8,67.6,239.9,1166.0,6433.0,4.0,1,
160700,1860.4,26.7,67.7,240.1,1166.0,6433.0,4.0,1,
160800,1860.3,119.6,67.7,240.2,1224.0,6377.0,4.0,1,
160900,1868.7,56.1,81.8,65.9,1268.0,6277.0,3.0,1,
161000,1847.2,78.9,82.0,35.9,1156.0,5100.0,3.0,1,
161100,1874.7,48.8,87.4,35.2,1187.0,6283.0,3.0,1,
161200,1843.2,147.0,82.4,30.1,1110.0,6183.0,4.0,1,
161300,1866.6,112.4,93.9,28.0,1089.0,6308.0,3.0,1,
161400,1849.4,48.9,94.7,28.1,1234.0,6889.0,4.0,1,
161600,1858.3,25.0,94.5,41.2,1234.0,6889.0,4.0,1,
161700,1859.2,24.1,94.5,45.5,1234.0,6889.0,4.0,1,
161800,1860.4,25.0,94.5,76.2,1234.0,6889.0,4.0,1,
161900,1859.2,24.9,94.6,239.9,1234.0,6889.0,4.0,1,
162000,1858.0,20.8,94.5,239.9,1234.0,6889.0,4.0,1,
162100,1858.3,25.4,94.6,240.0,1234.0,6889.0,4.0,1,
162200,1860.1,25.3,94.6,240.1,1234.0,6889.0,4.0,1,
162300,1858.1,24.5,94.5,239.9,1234.0,6889.0,4.0,1,
162400,1859.1,22.3,94.4,239.8,1209.0,6181.0,3.0,1,
162600,1857.5,46.3,82.4,99.9,1234.0,5856.0,3.0,1,
162700,1842.3,65.6,76.9,29.4,1122.0,6134.0,4.0,1,
162800,1873.6,78.8,77.5,29.2,1235.0,6788.0,3.0,1,
162900,1855.1,110.2,70.8,29.3,1094.0,5487.0,3.0,1,
163000,1865.5,69.9,67.2,35.7,1226.0,6943.0,3.0,1,
163100,1864.2,27.3,67.6,29.9,1226.0,6943.0,3.0,1,
163200,1855.0,24.7,67.6,36.6,1226.0,6943.0,3.0,1,
163300,1858.3,26.2,67.6,39.7,1226.0,6943.0,3.0,1,
163400,1860.0,25.5,67.7,49.3,1226.0,6943.0,3.0,1,
163600,1859.0,25.1,67.7,239.5,1226.0,6943.0,3.0,1,
163700,1859.1,23.9,67.8,239.8,1226.0,6943.0,3.0,1,
163800,1859.8,24.9,67.8,239.8,1226.0,6943.0,3.0,1,
163900,1860.9,22.9,67.8,240.0,1226.0,6943.0,3.0,1,
164000,1858.7,36.1,67.8,240.1,1226.0,6943.0,3.0,1,
164100,1842.9,69.9,67.6,240.0,1256.0,6265.0,3.0,1,
164200,1852.7,129.1,66.6,221.4,1280.0,6747.0,3.0,1,
164300,1873.7,58.1,76.5,34.5,1229.0,5987.0,3.0,1,
164400,1846.8,117.8,78.7,29.8,1177.0,6427.0,3.0,1,
164600,1838.4,133.9,84.8,35.2,1123.0,5899.0,3.0,1,
164700,1865.4,29.3,89.0,36.5,1123.0,5899.0,3.0,1,
164800,1861.2,22.4,89.0,36.6,1123.0,5899.0,3.0,1,
164900,1858.5,24.1,88.9,35.6,1123.0,5899.0,3.0,1,
165000,1859.2,21.9,88.8,34.9,1123.0,5899.0,3.0,1,
165100,1858.2,24.2,88.8,101.0,1123.0,5899.0,3.0,1,
165200,1859.6,23.2,88.8,239.8,1123.0,5899.0,3.0,1,
165300,1859.3,27.8,88.7,239.6,1123.0,5899.0,3.0,1,
165400,1859.5,24.4,88.7,239.6,1123.0,5899.0,3.0,1,
165600,1859.9,24.0,88.8,239.9,1123.0,5899.0,3.0,1,
165700,1874.0,61.4,91.0,239.9,1292.0,6573.0,3.0,1,
165800,1848.0,213.3,95.4,40.7,1299.0,6868.0,4.0,1,
165900,1861.0,187.6,107.3,36.7,1101.0,5134.0,2.0,0,
166000,1855.6,280.3,123.9,42.2,1165.0,5097.0,2.0,0,
166100,1837.9,242.9,147.0,131.7,1148.0,5916.0,2.0,0,
166200,1893.6,289.6,161.6,195.4,1932.0,5340.0,2.0,0,
166300,1835.2,41.4,175.5,132.7,972.0,4402.0,2.0,0,
166400,1862.8,24.3,175.5,185.3,972.0,4402.0,2.0,0,
166600,1858.6,28.4,175.5,89.0,972.0,4402.0,2.0,0,
166700,1861.0,25.0,175.6,72.2,972.0,4402.0,2.0,0,
166800,1858.9,23.7,175.6,240.0,972.0,4402.0,2.0,0,
166900,1858.8,27.4,175.6,239.9,972.0,4402.0,2.0,0,
167000,1859.3,25.9,175.6,239.8,972.0,4402.0,2.0,0,
167100,1859.9,26.2,175.6,239.7,972.0,4402.0,2.0,0,
167200,1860.4,23.0,175.6,239.6,972.0,4402.0,2.0,0,
167300,1857.8,43.8,175.6,239.7,1281.0,6401.0,3.0,1,
167400,1870.0,63.9,172.5,238.6,1101.0,5534.0,3.0,1,
167600,1887.2,63.2,152.3,37.5,1152.0,5644.0,3.0,1,
167700,1834.2,79.1,126.1,30.2,1147.0,6647.0,3.0,1,
167800,1868.0,161.5,111.5,44.9,1216.0,6240.0,4.0,1,
167900,1864.0,38.1,78.7,65.8,1026.0,5315.0,4.0,1,
168000,1858.5,25.5,78.6,46.5,1026.0,5315.0,4.0,1,
168100,1859.0,21.7,78.6,46.4,1026.0,5315.0,4.0,1,
168200,1857.9,25.7,78.5,47.8,1026.0,5315.0,4.0,1,
168300,1859.6,25.2,78.5,77.5,1026.0,5315.0,4.0,1,
168400,1860.7,25.8,78.5,239.8,1026.0,5315.0,4.0,1,
168600,1859.4,23.3,78.4,240.0,1026.0,5315.0,4.0,1,
168700,1862.1,24.2,78.4,240.0,1026.0,5315.0,4.0,1,
168800,1856.5,24.1,78.3,240.0,1026.0,5315.0,4.0,1,
168900,1859.8,58.9,78.4,240.0,1347.0,6586.0,3.0,1,
169000,1852.5,33.9,79.5,238.4,1222.0,5730.0,4.0,1,
169100,1869.2,58.8,79.5,40.9,1106.0,5813.0,3.0,1,
169200,1844.8,197.6,75.2,36.7,1134.0,4925.0,28.0,0,
169300,1876.4,164.8,98.5,88.6,1049.0,4679.0,2.0,0,
169400,1835.8,275.0,125.6,154.6,1071.0,5344.0,2.0,0,
169600,1849.2,26.6,143.4,163.3,1071.0,5344.0,2.0,0,
169700,1858.5,25.9,143.4,94.0,1071.0,5344.0,2.0,0,
169800,1860.5,24.6,143.5,105.3,1071.0,5344.0,2.0,0,
169900,1860.7,25.6,143.4,219.0,1071.0,5344.0,2.0,0,
170000,1858.8,27.3,143.5,240.1,1071.0,5344.0,2.0,0,
170100,1859.4,24.5,143.5,240.0,1071.0,5344.0,2.0,0,
170200,1860.0,23.7,143.4,240.0,1071.0,5344.0,2.0,0,
170300,1858.9,28.9,143.5,240.1,1071.0,5344.0,2.0,0,
170400,1859.4,24.4,143.5,239.8,1071.0,5344.0,2.0,0,
170600,1847.0,52.4,146.0,145.0,1312.0,6164.0,3.0,1,
170700,1852.0,65.4,145.9,37.3,1189.0,6117.0,4.0,1,
170800,1863.5,60.9,145.7,36.4,1231.0,6416.0,4.0,1,
170900,1860.6,109.6,135.1,36.6,1112.0,5252.0,4.0,1,
171000,1865.1,73.0,120.7,29.1,1183.0,6342.0,3.0,1,
171100,1848.4,62.7,85.4,29.4,1137.0,5851.0,4.0,1,
171200,1858.2,26.0,77.6,35.4,1137.0,5851.0,4.0,1,
171300,1860.7,22.9,77.6,38.4,1137.0,5851.0,4.0,1,
171400,1857.9,23.2,77.5,50.5,1137.0,5851.0,4.0,1,
171600,1856.9,23.2,77.4,239.6,1137.0,5851.0,4.0,1,
171700,1860.1,24.2,77.3,239.7,1137.0,5851.0,4.0,1,
171800,1858.3,23.9,77.3,239.8,1137.0,5851.0,4.0,1,
171900,1859.4,23.6,77.4,240.0,1137.0,5851.0,4.0,1,
172000,1855.3,25.2,77.2,239.9,1137.0,5851.0,4.0,1,
172100,1858.6,141.9,77.3,239.9,1218.0,6156.0,3.0,1,
172200,1862.3,64.5,84.6,145.5,1349.0,6255.0,3.0,1,
172300,1859.0,209.2,85.5,28.2,1187.0,5611.0,3.0,1,
172400,1861.8,110.1,96.0,28.0,1183.0,6285.0,4.0,1,
172600,1845.2,118.9,88.0,29.9,1137.0,6168.0,4.0,1,
172700,1871.0,85.6,95.5,30.0,1155.0,6437.0,3.0,1,
172800,1857.8,27.0,95.1,29.2,1155.0,6437.0,3.0,1,
172900,1859.2,23.6,95.1,29.9,1155.0,6437.0,3.0,1,
173000,1857.7,25.1,95.1,29.8,1155.0,6437.0,3.0,1,
173100,1858.0,25.9,95.1,43.0,1155.0,6437.0,3.0,1,
173200,1860.9,23.1,95.1,238.3,1155.0,6437.0,3.0,1,
173300,1858.5,24.8,95.1,239.9,1155.0,6437.0,3.0,1,
173400,1860.2,28.6,95.2,240.1,1155.0,6437.0,3.0,1,
173600,1858.8,24.7,95.2,240.0,1155.0,6437.0,3.0,1,
173700,1857.3,24.4,95.2,239.7,1155.0,6437.0,3.0,1,
173800,1856.1,210.6,82.7,239.8,1342.0,7128.0,4.0,1,
173900,1857.8,151.2,106.0,140.0,1254.0,5201.0,2.0,0,
174000,1851.3,275.5,114.1,43.1,1019.0,4614.0,2.0,0,
174100,1844.1,227.7,144.7,158.7,1144.0,5367.0,2.0,0,
174200,1892.3,298.2,161.9,188.6,1858.0,4681.0,2.0,0,
174300,1833.2,233.4,180.1,130.2,1386.0,6019.0,28.0,0,
174400,1877.8,35.6,186.7,195.4,1121.0,5411.0,2.0,0,
174600,1859.8,24.6,186.6,102.4,1121.0,5411.0,2.0,0,
174700,1856.9,24.6,186.6,157.3,1121.0,5411.0,2.0,0,
174800,1858.9,23.7,186.7,237.8,1121.0,5411.0,2.0,0,
174900,1857.9,25.3,186.7,239.8,1121.0,5411.0,2.0,0,
175000,1857.8,23.3,186.7,239.6,1121.0,5411.0,2.0,0,
175100,1859.3,24.0,186.7,239.8,1121.0,5411.0,2.0,0,
175200,1857.9,24.5,186.7,240.1,1121.0,5411.0,2.0,0,
175300,1858.9,26.1,186.7,240.2,1121.0,5411.0,2.0,0,
175400,1863.2,59.4,186.8,240.1,1245.0,6492.0,3.0,1,
175600,1888.3,63.7,164.8,42.4,1188.0,5619.0,3.0,1,
175700,1837.6,52.7,142.1,30.1,1179.0,6312.0,3.0,1,
175800,1858.4,147.9,122.9,41.7,1194.0,6335.0,4.0,1,
175900,1865.9,67.4,93.3,65.9,1114.0,6129.0,3.0,1,
176000,1836.7,30.5,63.9,54.5,1195.0,6988.0,4.0,1,
176100,1867.1,23.5,63.9,44.1,1195.0,6988.0,4.0,1,
176200,1860.0,22.9,63.8,47.1,1195.0,6988.0,4.0,1,
176300,1859.8,24.2,63.8,66.6,1195.0,6988.0,4.0,1,
176400,1859.3,23.9,63.8,101.5,1195.0,6988.0,4.0,1,
176600,1858.5,25.3,63.7,239.8,1195.0,6988.0,4.0,1,
176700,1857.1,23.5,63.8,239.7,1195.0,6988.0,4.0,1,
176800,1859.6,27.5,63.7,239.8,1195.0,6988.0,4.0,1,
176900,1860.9,26.3,63.9,240.0,1195.0,6988.0,4.0,1,
177000,1867.8,45.5,67.8,239.8,1176.0,6056.0,4.0,1,
177100,1872.5,87.5,76.8,47.9,1124.0,5775.0,4.0,1,
177200,1836.9,132.9,79.1,29.7,1171.0,6026.0,3.0,1,
177300,1872.3,94.4,82.8,29.5,1108.0,6143.0,3.0,1,
177400,1844.5,100.6,86.9,29.7,1207.0,6775.0,4.0,1,
177600,1838.8,39.4,91.6,36.4,995.0,6132.0,3.0,1,
177700,1865.7,25.0,91.4,36.1,995.0,6132.0,3.0,1,
177800,1859.2,27.2,91.4,36.3,995.0,6132.0,3.0,1,
177900,1858.8,27.6,91.5,41.1,995.0,6132.0,3.0,1,
178000,1860.0,25.1,91.6,75.3,995.0,6132.0,3.0,1,
178100,1860.0,27.8,91.6,239.7,995.0,6132.0,3.0,1,
178200,1860.2,30.0,91.7,239.8,995.0,6132.0,3.0,1,
178300,1858.9,24.5,91.8,239.7,995.0,6132.0,3.0,1,
178400,1859.0,28.7,91.8,239.8,995.0,6132.0,3.0,1,
178600,1858.5,37.1,91.8,240.1,1366.0,7141.0,3.0,1,
178700,1836.9,143.0,82.0,239.8,1133.0,6179.0,4.0,1,
178800,1877.1,73.0,92.5,57.3,1300.0,6753.0,4.0,1,
178900,1858.1,93.2,89.8,30.0,1143.0,5562.0,3.0,1,
179000,1866.6,72.8,90.0,29.7,1169.0,6623.0,3.0,1,
179100,1850.6,99.5,90.7,29.6,1087.0,5448.0,4.0,1,
179200,1854.4,57.8,91.2,34.8,1018.0,5546.0,4.0,1,
179300,1869.2,31.7,90.8,35.7,1018.0,5546.0,4.0,1,
179400,1858.9,26.3,90.9,35.7,1018.0,5546.0,4.0,1,
179600,1858.2,31.2,90.8,45.6,1018.0,5546.0,4.0,1,
179700,1860.1,26.2,90.9,219.1,1018.0,5546.0,4.0,1,
179800,1860.0,28.0,90.9,239.2,1018.0,5546.0,4.0,1,
179900,1859.3,27.9,90.9,239.6,1018.0,5546.0,4.0,1,
180000,1858.9,24.8,90.9,239.6,1018.0,5546.0,4.0,1,
180100,1858.8,25.3,90.9,239.8,1018.0,5546.0,4.0,1,
180200,1859.9,110.3,90.9,240.1,1330.0,6515.0,3.0,1,
180300,1860.9,53.7,97.9,116.4,1268.0,6147.0,3.0,1,
180400,1842.9,40.1,88.7,36.1,1259.0,6252.0,4.0,1,
180600,1839.9,138.7,80.0,36.7,1096.0,5932.0,3.0,1,
180700,1869.8,104.0,84.3,37.1,1201.0,6461.0,3.0,1,
180800,1860.5,77.1,85.5,41.0,1043.0,5518.0,4.0,1,
180900,1845.3,28.0,79.7,35.7,1043.0,5518.0,4.0,1,
181000,1859.5,28.2,79.6,30.1,1043.0,5518.0,4.0,1,
181100,1860.7,28.4,79.7,45.4,1043.0,5518.0,4.0,1,
181200,1860.8,28.7,79.6,65.9,1043.0,5518.0,4.0,1,
181300,1860.9,27.4,79.7,239.2,1043.0,5518.0,4.0,1,
181400,1858.7,28.8,79.7,239.5,1043.0,5518.0,4.0,1,
181600,1858.5,25.5,79.7,239.6,1043.0,5518.0,4.0,1,
181700,1859.8,28.3,79.7,239.7,1043.0,5518.0,4.0,1,
181800,1860.2,35.5,79.7,239.8,1043.0,5518.0,4.0,1,
181900,1861.3,78.2,70.9,240.0,1333.0,6471.0,4.0,1,
182000,1862.2,64.9,72.7,194.8,1138.0,5848.0,3.0,1,
182100,1839.7,150.2,72.9,43.1,1176.0,6208.0,4.0,1,
182200,1893.9,69.0,80.6,37.7,962.0,5247.0,3.0,1,
182300,1829.5,198.5,73.7,38.4,1052.0,5449.0,28.0,0,
182400,1889.4,222.0,92.1,37.3,1039.0,4542.0,2.0,0,
182600,1860.0,29.2,111.5,194.6,1039.0,4542.0,2.0,0,
182700,1860.1,27.7,111.5,150.1,1039.0,4542.0,2.0,0,
182800,1857.1,28.4,111.5,93.3,1039.0,4542.0,2.0,0,
182900,1860.5,24.6,111.5,89.8,1039.0,4542.0,2.0,0,
183000,1861.2,24.9,111.5,239.8,1039.0,4542.0,2.0,0,
183100,1857.7,25.6,111.5,239.8,1039.0,4542.0,2.0,0,
183200,1858.9,24.3,111.5,239.7,1039.0,4542.0,2.0,0,
183300,1858.7,27.1,111.5,239.7,1039.0,4542.0,2.0,0,
183400,1858.4,25.3,111.5,239.4,1039.0,4542.0,2.0,0,
183600,1879.2,146.0,122.0,188.2,1207.0,4127.0,2.0,0,
183700,1843.8,240.5,136.9,104.0,1259.0,5307.0,2.0,0,
183800,1852.6,174.8,153.3,198.0,1176.0,5259.0,2.0,0,
183900,1874.2,263.4,162.1,227.5,1850.0,6043.0,2.0,0,
184000,1829.6,240.8,178.2,150.6,1226.0,5560.0,28.0,0,
184100,1883.2,44.5,173.2,165.4,1018.0,4500.0,2.0,0,
184200,1863.5,27.5,173.3,132.2,1018.0,4500.0,2.0,0,
184300,1860.5,28.8,173.2,92.2,1018.0,4500.0,2.0,0,
184400,1860.1,26.7,173.2,100.2,1018.0,4500.0,2.0,0,
184600,1858.4,26.0,173.1,239.8,1018.0,4500.0,2.0,0,
184700,1858.3,26.9,173.1,239.9,1018.0,4500.0,2.0,0,
184800,1860.5,28.2,173.1,239.7,1018.0,4500.0,2.0,0,
184900,1859.2,28.8,173.2,239.9,1018.0,4500.0,2.0,0,
185000,1859.2,26.4,173.2,239.9,1018.0,4500.0,2.0,0,
185100,1879.8,80.5,173.1,239.9,1258.0,6237.0,3.0,1,
185200,1829.2,53.9,170.4,216.1,1240.0,6029.0,4.0,1,
185300,1859.5,128.9,161.9,29.8,1045.0,5814.0,3.0,1,
185400,1859.1,88.8,146.2,29.9,1112.0,6102.0,4.0,1,
185600,1857.1,70.4,102.8,34.7,1156.0,6620.0,3.0,1,
185700,1848.8,40.4,75.9,30.1,1091.0,5673.0,4.0,1,
185800,1854.5,27.4,75.3,66.7,1091.0,5673.0,4.0,1,
185900,1859.5,28.8,75.2,65.7,1091.0,5673.0,4.0,1,
186000,1858.2,29.5,75.3,53.1,1091.0,5673.0,4.0,1,
186100,1860.3,25.7,75.4,111.5,1091.0,5673.0,4.0,1,
186200,1859.4,24.8,75.4,240.1,1091.0,5673.0,4.0,1,
186300,1859.5,26.2,75.4,240.2,1091.0,5673.0,4.0,1,
186400,1859.7,26.8,75.4,240.1,1091.0,5673.0,4.0,1,
186600,1859.5,27.2,75.3,240.0,1091.0,5673.0,4.0,1,
186700,1858.8,61.0,75.3,240.1,1312.0,6500.0,4.0,1,
186800,1866.2,62.2,74.3,239.2,1230.0,6316.0,3.0,1,
186900,1861.7,104.9,77.6,30.1,1128.0,5910.0,4.0,1,
187000,1863.2,64.7,67.2,29.4,1219.0,6949.0,4.0,1,
187100,1858.6,83.9,67.3,28.6,1143.0,5596.0,4.0,1,
187200,1850.3,86.3,71.0,28.2,1093.0,6263.0,4.0,1,
187300,1851.4,46.0,70.9,29.7,1170.0,6493.0,3.0,1,
187400,1875.2,28.5,70.2,37.4,1170.0,6493.0,3.0,1,
187600,1857.3,24.9,70.2,65.9,1170.0,6493.0,3.0,1,
187700,1859.7,27.3,70.1,93.2,1170.0,6493.0,3.0,1,
187800,1859.1,25.1,70.1,239.7,1170.0,6493.0,3.0,1,
187900,1859.6,28.3,70.1,239.9,1170.0,6493.0,3.0,1,
188000,1861.6,28.8,70.1,240.0,1170.0,6493.0,3.0,1,
188100,1859.4,27.5,70.0,240.2,1170.0,6493.0,3.0,1,
188200,1859.9,26.5,70.1,240.2,1170.0,6493.0,3.0,1,
188300,1857.0,29.5,70.1,240.1,1150.0,6168.0,3.0,1,
188400,1850.0,92.2,69.3,239.8,1242.0,6055.0,3.0,1,
188600,1838.8,89.3,80.1,29.5,1182.0,6470.0,3.0,1,
188700,1869.1,85.0,80.8,29.6,1139.0,6225.0,3.0,1,
188800,1864.9,166.5,80.8,30.1,1042.0,5546.0,4.0,1,
188900,1844.9,111.0,89.6,66.8,1094.0,5319.0,2.0,0,
189000,1873.3,28.3,98.2,67.2,1094.0,5319.0,2.0,0,
189100,1858.8,28.0,98.1,69.9,1094.0,5319.0,2.0,0,
189200,1858.2,27.7,98.2,69.6,1094.0,5319.0,2.0,0,
189300,1859.7,27.7,98.2,92.7,1094.0,5319.0,2.0,0,
189400,1859.3,24.0,98.2,239.3,1094.0,5319.0,2.0,0,
189600,1859.4,27.6,98.2,239.9,1094.0,5319.0,2.0,0,
189700,1859.7,26.3,98.2,240.0,1094.0,5319.0,2.0,0,
189800,1859.3,29.0,98.2,240.1,1094.0,5319.0,2.0,0,
189900,1860.9,42.6,98.1,240.3,1094.0,5319.0,2.0,0,
190000,1856.0,68.3,98.9,240.1,1171.0,6002.0,3.0,1,
190100,1842.4,251.3,90.9,68.5,1183.0,5807.0,2.0,0,
190200,1895.4,270.2,115.6,39.2,1134.0,4804.0,2.0,0,
190300,1826.2,246.0,143.0,68.0,1040.0,5350.0,2.0,0,
190400,1881.7,106.2,156.6,195.4,1027.0,4611.0,2.0,0,
190600,1849.0,37.7,173.2,134.4,1027.0,4611.0,2.0,0,
190700,1858.7,26.8,173.3,194.7,1027.0,4611.0,2.0,0,
190800,1859.8,29.0,173.2,99.1,1027.0,4611.0,2.0,0,
190900,1857.6,26.8,173.3,65.5,1027.0,4611.0,2.0,0,
191000,1862.0,29.0,173.3,99.0,1027.0,4611.0,2.0,0,
191100,1859.1,26.3,173.3,239.8,1027.0,4611.0,2.0,0,
191200,1859.3,26.9,173.3,239.9,1027.0,4611.0,2.0,0,
191300,1859.8,29.0,173.3,239.7,1027.0,4611.0,2.0,0,
191400,1859.5,25.7,173.3,239.8,1027.0,4611.0,2.0,0,
191600,1880.2,58.7,174.9,239.5,1165.0,6215.0,4.0,1,
191700,1842.8,68.5,174.6,45.1,1224.0,6626.0,3.0,1,
191800,1852.5,93.4,161.3,35.8,1237.0,6432.0,4.0,1,
191900,1872.3,77.3,142.7,29.9,1109.0,6721.0,4.0,1,
192000,1826.5,115.4,121.8,29.9,1148.0,6130.0,3.0,1,
192100,1901.8,66.9,103.7,43.0,1099.0,5715.0,3.0,1,
192200,1839.3,27.9,72.9,65.9,1044.0,5856.0,3.0,1,
192300,1859.5,29.0,72.7,65.9,1044.0,5856.0,3.0,1,
192400,1861.1,28.3,72.8,52.6,1044.0,5856.0,3.0,1,
192600,1857.3,25.8,72.7,108.1,1044.0,5856.0,3.0,1,
192700,1859.5,30.9,72.7,239.7,1044.0,5856.0,3.0,1,
192800,1857.5,29.8,72.8,239.8,1044.0,5856.0,3.0,1,
192900,1860.4,25.5,72.8,239.9,1044.0,5856.0,3.0,1,
193000,1861.0,28.2,72.8,239.9,1044.0,5856.0,3.0,1,
193100,1859.9,29.2,72.9,240.0,1044.0,5856.0,3.0,1,
193200,1852.8,145.7,69.9,240.1,1352.0,6547.0,3.0,1,
193300,1859.1,179.6,88.3,226.1,1050.0,4388.0,2.0,0,
193400,1855.3,285.8,106.6,139.4,1347.0,4950.0,2.0,0,
193600,1852.7,244.3,147.0,227.2,1138.0,5716.0,2.0,0,
193700,1853.3,177.1,165.9,144.5,1152.0,4853.0,28.0,0,
193800,1876.8,41.2,173.7,221.1,1032.0,4081.0,2.0,0,
193900,1859.1,24.1,173.5,163.3,1032.0,4081.0,2.0,0,
194000,1858.9,26.3,173.4,155.8,1032.0,4081.0,2.0,0,
194100,1858.8,24.0,173.5,253.9,1032.0,4081.0,2.0,0,
194200,1859.0,27.0,173.4,253.6,1032.0,4081.0,2.0,0,
194300,1860.7,28.5,173.4,239.5,1032.0,4081.0,2.0,0,
194400,1861.1,27.4,173.4,239.8,1032.0,4081.0,2.0,0,
194600,1858.2,27.1,173.4,239.7,1032.0,4081.0,2.0,0,
194700,1858.8,24.4,173.4,239.9,1032.0,4081.0,2.0,0,
194800,1861.0,45.7,173.4,240.1,1298.0,6236.0,3.0,1,
194900,1857.0,177.3,169.3,52.7,1282.0,6083.0,4.0,1,
195000,1853.9,170.9,165.1,35.8,1192.0,5750.0,2.0,0,
195100,1862.6,264.0,158.2,44.5,1865.0,5683.0,2.0,0,
195200,1841.0,227.4,171.7,194.9,1116.0,5412.0,2.0,0,
195300,1857.7,308.7,168.0,196.0,1952.0,6276.0,2.0,0,
195400,1874.1,65.9,174.3,131.7,994.0,3885.0,2.0,0,
195600,1858.4,25.2,175.2,130.1,994.0,3885.0,2.0,0,
195700,1856.9,28.6,175.2,66.0,994.0,3885.0,2.0,0,
195800,1861.3,28.0,175.2,38.5,994.0,3885.0,2.0,0,
195900,1860.7,28.6,175.2,237.8,994.0,3885.0,2.0,0,
196000,1859.8,29.7,175.2,239.7,994.0,3885.0,2.0,0,
196100,1859.8,27.7,175.2,239.7,994.0,3885.0,2.0,0,
196200,1861.0,30.2,175.2,239.7,994.0,3885.0,2.0,0,
196300,1860.7,23.3,175.3,239.7,994.0,3885.0,2.0,0,
196400,1858.8,63.8,175.3,239.7,1280.0,6548.0,3.0,1,
196600,1840.5,206.0,172.8,35.1,1147.0,5070.0,28.0,0,
196700,1871.0,155.9,169.5,34.2,1162.0,5091.0,2.0,0,
196800,1863.7,248.9,161.5,45.3,1275.0,4662.0,2.0,0,
196900,1843.9,166.2,163.9,165.0,1098.0,5330.0,2.0,0,
197000,1873.8,96.6,152.4,196.2,892.0,3742.0,2.0,0,
197100,1849.4,29.2,157.6,164.0,892.0,3742.0,2.0,0,
197200,1859.1,25.7,157.6,206.9,892.0,3742.0,2.0,0,
197300,1859.9,26.1,157.6,165.4,892.0,3742.0,2.0,0,
197400,1860.2,25.5,157.6,124.5,892.0,3742.0,2.0,0,
197600,1857.5,27.1,157.6,239.9,892.0,3742.0,2.0,0,
197700,1860.6,23.1,157.5,240.0,892.0,3742.0,2.0,0,
197800,1860.9,26.7,157.5,239.9,892.0,3742.0,2.0,0,
197900,1859.8,28.4,157.4,240.0,892.0,3742.0,2.0,0,
198000,1861.8,59.9,157.5,239.9,1207.0,6362.0,3.0,1,
198100,1839.2,49.6,157.6,239.7,1265.0,6269.0,4.0,1,
198200,1896.2,49.6,153.7,41.6,1088.0,5521.0,4.0,1,
198300,1829.5,54.3,146.1,34.6,1221.0,6742.0,4.0,1,
198400,1874.2,112.4,131.6,39.1,1077.0,5242.0,3.0,1,
198600,1847.3,108.6,99.9,44.9,1009.0,5365.0,4.0,1,
198700,1881.5,29.2,77.1,35.9,1009.0,5365.0,4.0,1,
198800,1857.8,26.3,77.1,37.5,1009.0,5365.0,4.0,1,
198900,1860.6,25.7,77.1,48.9,1009.0,5365.0,4.0,1,
199000,1858.7,26.4,77.1,53.1,1009.0,5365.0,4.0,1,
199100,1859.4,28.5,77.1,238.5,1009.0,5365.0,4.0,1,
199200,1860.2,30.0,77.1,239.9,1009.0,5365.0,4.0,1,
199300,1858.0,29.0,77.2,239.9,1009.0,5365.0,4.0,1,
199400,1860.3,24.7,77.3,240.0,1009.0,5365.0,4.0,1,
199600,1859.6,109.1,77.2,239.8,1009.0,5365.0,4.0,1,
199700,1856.2,71.7,80.8,239.4,1415.0,6571.0,3.0,1,
199800,1841.8,84.8,81.0,36.9,1149.0,5393.0,4.0,1,
199900,1875.1,77.2,97.8,36.0,1205.0,6745.0,4.0,1,
200000,1831.7,150.4,97.1,44.5,1149.0,5826.0,3.0,1,
200100,1901.4,85.2,101.2,36.1,989.0,5534.0,4.0,1,
200200,1828.3,167.6,99.9,30.1,1169.0,6167.0,4.0,1,
200300,1863.0,34.9,102.2,29.2,1069.0,5860.0,3.0,1,
200400,1859.4,27.3,102.2,29.8,1069.0,5860.0,3.0,1,
200600,1857.9,29.5,102.2,43.4,1069.0,5860.0,3.0,1,
200700,1859.1,25.3,102.2,103.4,1069.0,5860.0,3.0,1,
200800,1859.5,26.5,102.2,239.7,1069.0,5860.0,3.0,1,
200900,1858.8,27.0,102.1,239.9,1069.0,5860.0,3.0,1,
201000,1859.8,26.0,102.1,240.0,1069.0,5860.0,3.0,1,
201100,1860.4,26.5,102.1,239.9,1069.0,5860.0,3.0,1,
201200,1858.0,27.8,102.1,239.8,1069.0,5860.0,3.0,1,
201300,1863.2,83.9,99.2,239.8,1202.0,5909.0,3.0,1,
201400,1852.4,60.7,99.8,172.8,1204.0,6057.0,3.0,1,
201600,1846.8,98.4,86.2,29.2,1181.0,7011.0,3.0,1,
201700,1854.7,91.2,81.8,28.1,998.0,5301.0,4.0,1,
201800,1878.7,87.3,75.4,29.1,1115.0,6485.0,3.0,1,
201900,1837.2,33.7,68.5,29.7,1165.0,6086.0,4.0,1,
202000,1863.5,23.9,68.4,66.4,1165.0,6086.0,4.0,1,
202100,1857.6,24.4,68.3,66.7,1165.0,6086.0,4.0,1,
202200,1857.5,25.8,68.3,66.4,1165.0,6086.0,4.0,1,
202300,1858.8,26.1,68.2,151.8,1165.0,6086.0,4.0,1,
202400,1860.4,27.0,68.3,239.8,1165.0,6086.0,4.0,1,
202600,1858.5,26.2,68.2,239.8,1165.0,6086.0,4.0,1,
202700,1860.2,28.1,68.2,239.9,1165.0,6086.0,4.0,1,
202800,1859.5,28.5,68.2,240.0,1165.0,6086.0,4.0,1,
202900,1871.2,236.7,68.2,240.2,1186.0,5590.0,2.0,0,
203000,1863.2,147.6,96.5,141.7,1224.0,4977.0,2.0,0,
203100,1842.6,236.1,115.9,92.5,1350.0,4764.0,2.0,0,
203200,1850.1,194.5,136.2,158.6,1065.0,5223.0,2.0,0,
203300,1846.5,254.1,151.7,208.6,1669.0,5431.0,2.0,0,
203400,1872.5,170.5,166.9,132.7,944.0,4641.0,2.0,0,
203600,1862.4,28.4,175.9,159.1,944.0,4641.0,2.0,0,
203700,1858.1,27.4,175.9,198.6,944.0,4641.0,2.0,0,
203800,1859.1,27.3,176.0,235.6,944.0,4641.0,2.0,0,
203900,1858.3,27.5,176.0,227.9,944.0,4641.0,2.0,0,
204000,1858.8,24.4,176.0,239.7,944.0,4641.0,2.0,0,
204100,1861.2,21.7,176.0,239.6,944.0,4641.0,2.0,0,
204200,1858.1,26.2,175.9,239.5,944.0,4641.0,2.0,0,
204300,1858.5,26.2,175.9,239.6,944.0,4641.0,2.0,0,
204400,1858.1,26.2,175.9,239.7,944.0,4641.0,2.0,0,
204600,1832.9,230.9,166.5,239.5,1545.0,5607.0,28.0,0,
204700,1876.6,144.8,166.7,56.3,1171.0,5304.0,2.0,0,
204800,1861.8,247.3,163.9,46.5,1003.0,4498.0,2.0,0,
204900,1858.2,146.9,165.8,158.4,1145.0,5602.0,2.0,0,
205000,1859.8,198.0,159.6,195.3,1690.0,4945.0,2.0,0,
205100,1842.7,80.6,167.0,159.2,1066.0,4823.0,2.0,0,
205200,1869.8,29.3,166.8,226.4,1066.0,4823.0,2.0,0,
205300,1858.8,25.6,166.8,156.7,1066.0,4823.0,2.0,0,
205400,1859.5,28.1,166.8,94.5,1066.0,4823.0,2.0,0,
205600,1858.4,26.6,166.8,239.5,1066.0,4823.0,2.0,0,
205700,1858.3,27.7,166.9,239.7,1066.0,4823.0,2.0,0,
205800,1858.3,23.9,166.9,239.9,1066.0,4823.0,2.0,0,
205900,1858.4,26.6,167.0,239.7,1066.0,4823.0,2.0,0,
206000,1861.1,27.5,167.0,239.7,1066.0,4823.0,2.0,0,
206100,1860.2,89.7,166.9,239.8,1255.0,7109.0,4.0,1,
206200,1879.5,69.4,168.0,239.4,1154.0,6033.0,3.0,1,
206300,1829.3,55.6,157.5,48.7,1238.0,6292.0,3.0,1,
206400,1878.2,96.1,146.9,39.0,997.0,5669.0,4.0,1,
206600,1855.6,87.2,115.0,30.2,984.0,5793.0,3.0,1,
206700,1870.0,56.5,84.0,35.2,981.0,5458.0,4.0,1,
206800,1843.8,29.8,72.2,39.8,981.0,5458.0,4.0,1,
206900,1857.4,26.4,72.3,65.6,981.0,5458.0,4.0,1,
207000,1857.7,25.2,72.3,66.7,981.0,5458.0,4.0,1,
207100,1859.1,26.3,72.3,70.7,981.0,5458.0,4.0,1,
207200,1859.6,28.3,72.2,240.0,981.0,5458.0,4.0,1,
207300,1859.3,27.6,72.2,240.2,981.0,5458.0,4.0,1,
207400,1857.2,25.8,72.2,240.0,981.0,5458.0,4.0,1,
207600,1857.5,26.4,72.2,239.8,981.0,5458.0,4.0,1,
207700,1859.0,30.4,72.2,239.8,981.0,5458.0,4.0,1,
207800,1855.4,46.9,69.4,239.9,1248.0,6443.0,4.0,1,
207900,1871.8,69.3,69.1,238.0,1213.0,6567.0,3.0,1,
208000,1836.5,207.5,69.6,56.7,1084.0,4970.0,2.0,0,
208100,1894.2,259.3,92.0,30.2,967.0,4604.0,2.0,0,
208200,1826.0,231.1,123.7,44.3,1057.0,5311.0,2.0,0,
208300,1882.1,215.1,139.6,194.8,996.0,4317.0,2.0,0,
208400,1854.7,35.8,152.7,156.7,921.0,3808.0,2.0,0,
208600,1858.4,24.3,152.7,152.4,921.0,3808.0,2.0,0,
208700,1856.5,25.7,152.7,107.0,921.0,3808.0,2.0,0,
208800,1858.5,26.9,152.7,109.7,921.0,3808.0,2.0,0,
208900,1857.9,25.8,152.7,240.1,921.0,3808.0,2.0,0,
209000,1860.4,25.8,152.7,240.1,921.0,3808.0,2.0,0,
209100,1857.9,27.1,152.6,240.1,921.0,3808.0,2.0,0,
209200,1857.9,28.3,152.6,239.9,921.0,3808.0,2.0,0,
209300,1859.0,23.2,152.6,239.8,921.0,3808.0,2.0,0,
209400,1846.2,129.1,152.6,240.0,1317.0,6683.0,4.0,1,
209600,1845.3,70.6,160.1,36.8,1266.0,7130.0,4.0,1,
209700,1853.8,93.8,149.3,30.2,1020.0,5455.0,4.0,1,
209800,1874.1,85.4,129.5,29.7,1135.0,6598.0,3.0,1,
209900,1827.4,129.6,107.4,29.9,1037.0,5715.0,3.0,1,
210000,1885.8,31.9,83.9,44.3,1015.0,5393.0,4.0,1,
210100,1859.6,27.6,83.8,29.7,1015.0,5393.0,4.0,1,
210200,1859.2,27.4,83.8,30.2,1015.0,5393.0,4.0,1,
210300,1857.2,28.2,83.9,39.3,1015.0,5393.0,4.0,1,
210400,1857.8,26.1,83.8,99.6,1015.0,5393.0,4.0,1,
210600,1861.3,27.4,83.9,239.9,1015.0,5393.0,4.0,1,
210700,1859.9,27.0,83.9,240.1,1015.0,5393.0,4.0,1,
210800,1859.7,28.8,84.0,240.0,1015.0,5393.0,4.0,1,
210900,1860.5,26.8,84.0,239.9,1015.0,5393.0,4.0,1,
211000,1879.4,70.9,84.1,239.9,1408.0,7261.0,3.0,1,
211100,1826.9,39.3,79.3,108.2,1184.0,6026.0,4.0,1,
211200,1858.6,136.1,76.4,29.7,1219.0,6932.0,3.0,1,
211300,1848.5,88.0,82.1,29.2,1106.0,6304.0,4.0,1,
211400,1883.2,64.7,81.5,34.9,1072.0,5965.0,4.0,1,
211600,1852.2,40.6,76.7,29.7,1045.0,5877.0,4.0,1,
211700,1855.8,27.8,76.5,36.8,1045.0,5877.0,4.0,1,
211800,1859.8,26.9,76.5,39.1,1045.0,5877.0,4.0,1,
211900,1859.1,24.5,76.5,49.1,1045.0,5877.0,4.0,1,
212000,1860.2,26.9,76.5,82.9,1045.0,5877.0,4.0,1,
212100,1860.6,26.4,76.5,239.9,1045.0,5877.0,4.0,1,
212200,1859.0,24.5,76.4,239.9,1045.0,5877.0,4.0,1,
212300,1860.1,27.3,76.4,240.1,1045.0,5877.0,4.0,1,
212400,1858.9,25.3,76.4,240.1,1045.0,5877.0,4.0,1,
212600,1858.8,105.0,76.3,240.0,1228.0,6184.0,3.0,1,
212700,1870.0,53.4,79.4,134.3,1233.0,6110.0,3.0,1,
212800,1862.2,190.4,83.6,35.1,1048.0,6032.0,3.0,1,
212900,1852.9,179.0,92.4,35.6,1168.0,5993.0,2.0,0,
213000,1857.4,224.5,112.3,48.0,1652.0,5365.0,2.0,0,
213100,1840.8,202.8,135.7,153.3,1140.0,5524.0,2.0,0,
213200,1854.5,51.8,152.1,195.9,1093.0,4939.0,2.0,0,
213300,1875.3,28.0,151.4,155.9,1093.0,4939.0,2.0,0,
213400,1859.4,27.4,151.4,199.0,1093.0,4939.0,2.0,0,
213600,1858.2,24.4,151.5,226.1,1093.0,4939.0,2.0,0,
213700,1860.0,26.2,151.4,239.7,1093.0,4939.0,2.0,0,
213800,1857.2,25.8,151.5,239.8,1093.0,4939.0,2.0,0,
213900,1858.5,26.4,151.5,239.6,1093.0,4939.0,2.0,0,
214000,1858.4,25.8,151.5,239.3,1093.0,4939.0,2.0,0,
214100,1859.2,26.2,151.4,239.6,1093.0,4939.0,2.0,0,
214200,1859.1,41.7,151.5,239.7,1046.0,5964.0,3.0,1,
214300,1848.2,71.1,148.7,239.7,1309.0,6154.0,3.0,1,
214400,1872.5,68.4,149.8,68.3,1026.0,5537.0,3.0,1,
214600,1855.3,252.2,142.9,29.9,1042.0,4830.0,2.0,0,
214700,1875.5,286.0,143.7,71.0,1137.0,4788.0,2.0,0,
214800,1843.9,103.4,147.9,196.5,1049.0,5284.0,2.0,0,
214900,1875.8,28.3,147.5,164.3,1049.0,5284.0,2.0,0,
215000,1859.1,26.0,147.5,131.2,1049.0,5284.0,2.0,0,
215100,1856.0,27.2,147.6,186.4,1049.0,5284.0,2.0,0,
215200,1860.8,24.9,147.6,240.8,1049.0,5284.0,2.0,0,
215300,1858.6,29.2,147.6,239.5,1049.0,5284.0,2.0,0,
215400,1859.1,25.5,147.6,239.5,1049.0,5284.0,2.0,0,
215600,1858.3,27.0,147.6,240.0,1049.0,5284.0,2.0,0,
215700,1860.5,27.1,147.6,240.0,1049.0,5284.0,2.0,0,
215800,1858.7,41.9,147.6,240.0,1169.0,6632.0,4.0,1,
215900,1855.4,65.1,147.7,240.0,1307.0,6892.0,3.0,1,
216000,1839.3,208.1,147.2,172.6,1177.0,5246.0,2.0,0,
216100,1898.1,274.8,160.8,39.7,1026.0,4900.0,2.0,0,
216200,1822.7,246.5,174.5,109.2,1054.0,5858.0,2.0,0,
216300,1881.4,215.1,170.3,225.9,1064.0,4668.0,2.0,0,
216400,1844.0,210.4,171.9,146.2,1036.0,5360.0,2.0,0,
216600,1856.9,25.7,177.6,159.0,1036.0,5360.0,2.0,0,
216700,1860.3,27.3,177.5,92.9,1036.0,5360.0,2.0,0,
216800,1859.2,25.5,177.5,37.8,1036.0,5360.0,2.0,0,
216900,1858.6,28.6,177.6,101.2,1036.0,5360.0,2.0,0,
217000,1859.2,27.4,177.6,239.6,1036.0,5360.0,2.0,0,
217100,1858.4,26.0,177.6,239.3,1036.0,5360.0,2.0,0,
217200,1857.7,27.9,177.7,239.1,1036.0,5360.0,2.0,0,
217300,1860.1,27.4,177.6,239.4,1036.0,5360.0,2.0,0,
217400,1858.1,32.3,177.6,239.7,1036.0,5360.0,2.0,0,
217600,1837.4,43.0,178.2,175.6,1295.0,6770.0,4.0,1,
217700,1846.6,179.4,171.5,30.0,1351.0,5391.0,28.0,0,
217800,1873.6,299.9,164.3,37.6,1868.0,6331.0,2.0,0,
217900,1826.2,201.8,173.4,174.0,1268.0,5297.0,28.0,0,
218000,1905.1,279.4,162.7,226.5,981.0,5008.0,2.0,0,
218100,1834.3,37.8,160.3,132.3,975.0,4336.0,2.0,0,
218200,1859.3,25.9,160.3,154.4,975.0,4336.0,2.0,0,
218300,1859.1,29.9,160.2,166.0,975.0,4336.0,2.0,0,
218400,1857.1,29.0,160.3,102.5,975.0,4336.0,2.0,0,
218600,1858.0,25.1,160.2,239.5,975.0,4336.0,2.0,0,
218700,1858.8,27.8,160.2,239.7,975.0,4336.0,2.0,0,
218800,1859.1,24.7,160.2,239.7,975.0,4336.0,2.0,0,
218900,1859.5,28.5,160.2,239.8,975.0,4336.0,2.0,0,
219000,1858.5,30.5,160.2,239.9,975.0,4336.0,2.0,0,
219100,1852.6,51.8,160.3,239.8,1231.0,6855.0,4.0,1,
219200,1848.5,205.1,165.3,183.9,1257.0,5171.0,2.0,0,
219300,1849.7,301.5,182.1,48.9,1734.0,5559.0,2.0,0,
219400,1885.8,234.5,185.4,99.4,1068.0,5555.0,2.0,0,
219600,1850.3,210.2,184.3,133.2,958.0,5019.0,2.0,0,
219700,1871.1,43.9,176.8,197.4,939.0,4499.0,2.0,0,
219800,1859.7,24.8,176.7,163.9,939.0,4499.0,2.0,0,
219900,1859.8,22.4,176.7,131.0,939.0,4499.0,2.0,0,
220000,1860.6,23.8,176.6,200.9,939.0,4499.0,2.0,0,
220100,1859.4,27.0,176.6,239.8,939.0,4499.0,2.0,0,
220200,1859.1,27.7,176.6,239.5,939.0,4499.0,2.0,0,
220300,1859.5,25.6,176.5,239.5,939.0,4499.0,2.0,0,
220400,1858.1,25.1,176.6,239.6,939.0,4499.0,2.0,0,
220600,1857.0,26.5,176.6,239.7,939.0,4499.0,2.0,0,
220700,1865.1,29.9,176.6,238.5,1319.0,6738.0,3.0,1,
220800,1862.3,76.6,175.4,237.7,1232.0,6437.0,4.0,1,
220900,1838.4,129.4,158.9,88.7,1267.0,7122.0,4.0,1,
221000,1867.8,78.4,136.9,30.0,1053.0,6043.0,4.0,1,
221100,1835.1,227.6,123.1,29.3,1143.0,6483.0,2.0,0,
221200,1857.8,287.0,118.2,37.3,2121.0,5518.0,2.0,0,
221300,1868.8,66.9,128.3,69.1,894.0,4105.0,2.0,0,
221400,1848.8,25.5,129.6,164.5,894.0,4105.0,2.0,0,
221600,1859.9,24.1,129.6,98.9,894.0,4105.0,2.0,0,
221700,1859.6,29.3,129.7,87.4,894.0,4105.0,2.0,0,
221800,1860.2,23.9,129.7,237.8,894.0,4105.0,2.0,0,
221900,1858.8,22.0,129.6,239.3,894.0,4105.0,2.0,0,
222000,1860.8,26.6,129.6,239.4,894.0,4105.0,2.0,0,
222100,1860.4,26.8,129.6,239.6,894.0,4105.0,2.0,0,
222200,1858.5,26.6,129.6,239.8,894.0,4105.0,2.0,0,
222300,1861.3,165.6,129.5,239.8,1255.0,7392.0,4.0,1,
222400,1863.7,68.5,136.7,216.9,1162.0,6126.0,3.0,1,
222600,1844.1,169.9,142.9,29.3,1135.0,4766.0,2.0,0,
222700,1896.6,308.1,159.1,30.0,1164.0,5893.0,2.0,0,
222800,1824.2,210.6,172.9,90.4,1085.0,5766.0,2.0,0,
222900,1884.2,98.3,161.8,196.6,873.0,3499.0,2.0,0,
223000,1857.0,30.8,164.7,151.4,873.0,3499.0,2.0,0,
223100,1860.2,28.1,164.7,136.4,873.0,3499.0,2.0,0,
223200,1860.3,26.4,164.7,137.6,873.0,3499.0,2.0,0,
223300,1861.0,26.1,164.7,92.3,873.0,3499.0,2.0,0,
223400,1860.7,30.1,164.7,175.4,873.0,3499.0,2.0,0,
223600,1860.4,26.6,164.7,239.8,873.0,3499.0,2.0,0,
223700,1859.9,29.2,164.7,239.8,873.0,3499.0,2.0,0,
223800,1862.2,27.5,164.7,239.8,873.0,3499.0,2.0,0,
223900,1860.8,31.2,164.7,239.7,1241.0,6658.0,3.0,1,
224000,1831.6,82.3,158.3,239.6,1162.0,6168.0,4.0,1,
224100,1908.5,117.5,159.0,211.9,1147.0,6263.0,3.0,1,
224200,1832.9,93.0,159.2,42.8,1159.0,6764.0,4.0,1,
224300,1859.8,131.1,150.1,29.6,995.0,6109.0,4.0,1,
224400,1865.8,97.3,126.0,29.3,1147.0,7124.0,4.0,1,
224600,1880.5,30.7,90.9,28.2,1147.0,7124.0,4.0,1,
224700,1857.6,27.6,91.0,35.0,1147.0,7124.0,4.0,1,
224800,1862.0,28.4,90.9,37.2,1147.0,7124.0,4.0,1,
224900,1862.1,29.3,90.9,38.7,1147.0,7124.0,4.0,1,
225000,1861.0,31.7,90.9,206.8,1147.0,7124.0,4.0,1,
225100,1862.3,28.2,91.0,239.3,1147.0,7124.0,4.0,1,
225200,1860.7,25.7,90.9,239.5,1147.0,7124.0,4.0,1,
225300,1860.0,30.2,90.9,239.7,1147.0,7124.0,4.0,1,
225400,1860.9,26.6,90.9,239.8,1147.0,7124.0,4.0,1,
225600,1880.8,58.2,91.2,238.7,1384.0,7157.0,3.0,1,
225700,1843.0,165.2,92.4,81.1,1060.0,5714.0,4.0,1,
225800,1854.0,210.8,104.7,37.2,1300.0,5775.0,2.0,0,
225900,1848.1,254.4,128.2,39.2,1444.0,5136.0,2.0,0,
226000,1889.8,206.7,136.7,55.9,1128.0,5890.0,2.0,0,
226100,1853.1,218.7,149.7,154.7,1115.0,5905.0,2.0,0,
226200,1852.2,36.8,161.1,157.5,956.0,4150.0,2.0,0,
226300,1860.7,26.0,161.1,197.0,956.0,4150.0,2.0,0,
226400,1860.8,28.5,161.1,164.3,956.0,4150.0,2.0,0,
226600,1860.7,25.9,161.1,107.1,956.0,4150.0,2.0,0,
226700,1861.4,27.5,161.1,239.4,956.0,4150.0,2.0,0,
226800,1862.5,25.8,161.1,239.7,956.0,4150.0,2.0,0,
226900,1860.7,24.7,161.1,240.0,956.0,4150.0,2.0,0,
227000,1860.4,25.2,161.0,239.8,956.0,4150.0,2.0,0,
227100,1861.6,28.8,161.0,239.8,956.0,4150.0,2.0,0,
227200,1849.8,80.3,161.2,239.7,1249.0,6321.0,3.0,1,
227300,1863.2,62.2,160.8,115.5,1093.0,5733.0,3.0,1,
227400,1874.0,221.4,156.3,34.6,1227.0,7315.0,3.0,1,
227600,1868.3,271.7,149.8,98.8,1693.0,5544.0,2.0,0,
227700,1844.2,197.3,160.5,195.6,1073.0,5338.0,2.0,0,
227800,1874.3,38.6,153.6,195.6,1013.0,4610.0,2.0,0,
227900,1866.5,29.5,153.5,131.9,1013.0,4610.0,2.0,0,
228000,1859.3,28.2,153.6,157.7,1013.0,4610.0,2.0,0,
228100,1861.4,30.2,153.6,231.7,1013.0,4610.0,2.0,0,
228200,1861.0,26.5,153.5,239.3,1013.0,4610.0,2.0,0,
228300,1860.8,27.9,153.6,239.6,1013.0,4610.0,2.0,0,
228400,1859.5,22.5,153.6,239.6,1013.0,4610.0,2.0,0,
228600,1861.1,29.3,153.6,239.5,1013.0,4610.0,2.0,0,
228700,1861.6,27.2,153.6,239.9,1013.0,4610.0,2.0,0,
228800,1879.1,80.0,153.7,239.7,1229.0,6677.0,3.0,1,
228900,1820.7,36.8,153.1,80.6,1215.0,6422.0,4.0,1,
229000,1880.9,87.9,150.9,34.7,1113.0,6609.0,3.0,1,
229100,1839.7,117.4,146.4,34.6,1239.0,7066.0,4.0,1,
229200,1863.5,58.2,133.7,37.3,978.0,5827.0,4.0,1,
229300,1881.2,76.8,92.5,41.9,1122.0,6779.0,4.0,1,
229400,1836.9,46.4,73.0,45.6,1116.0,6090.0,3.0,1,
229600,1859.9,28.9,73.4,30.0,1116.0,6090.0,3.0,1,
229700,1860.7,25.6,73.4,37.1,1116.0,6090.0,3.0,1,
229800,1860.5,27.3,73.5,51.2,1116.0,6090.0,3.0,1,
229900,1861.2,30.2,73.5,238.9,1116.0,6090.0,3.0,1,
230000,1860.3,29.7,73.5,239.3,1116.0,6090.0,3.0,1,
230100,1861.3,24.1,73.6,239.6,1116.0,6090.0,3.0,1,
230200,1859.9,30.0,73.5,239.6,1116.0,6090.0,3.0,1,
230300,1861.7,26.4,73.7,239.8,1116.0,6090.0,3.0,1,
230400,1860.9,54.2,73.6,239.8,1160.0,6326.0,4.0,1,
230600,1835.2,56.8,72.3,36.4,1118.0,5973.0,3.0,1,
230700,1906.6,91.4,76.2,30.0,1258.0,7213.0,3.0,1,
230800,1829.0,96.7,80.2,36.2,1037.0,6053.0,4.0,1,
230900,1872.4,95.0,80.5,29.9,1135.0,6605.0,3.0,1,
231000,1857.0,47.6,80.7,29.5,1072.0,6524.0,4.0,1,
231100,1856.0,31.7,73.8,29.8,1072.0,6524.0,4.0,1,
231200,1860.1,25.2,73.8,48.0,1072.0,6524.0,4.0,1,
231300,1861.0,23.0,73.7,47.2,1072.0,6524.0,4.0,1,
231400,1862.6,28.3,73.7,73.2,1072.0,6524.0,4.0,1,
231600,1860.2,29.3,73.6,239.5,1072.0,6524.0,4.0,1,
231700,1861.9,23.9,73.6,239.4,1072.0,6524.0,4.0,1,
231800,1859.8,28.9,73.6,239.4,1072.0,6524.0,4.0,1,
231900,1863.6,26.7,73.6,239.5,1072.0,6524.0,4.0,1,
232000,1860.9,43.8,73.6,239.6,1048.0,5688.0,3.0,1,
232100,1872.1,254.7,77.9,239.4,1472.0,6118.0,28.0,0,
232200,1857.4,117.7,108.0,69.8,1142.0,4940.0,2.0,0,
232300,1845.4,271.9,130.2,83.8,1036.0,5185.0,2.0,0,
232400,1868.8,154.7,141.3,187.7,1100.0,5318.0,2.0,0,
232600,1893.6,119.9,170.8,101.7,1121.0,5774.0,2.0,0,
232700,1856.3,27.6,174.3,195.9,1121.0,5774.0,2.0,0,
232800,1860.4,27.5,174.2,141.2,1121.0,5774.0,2.0,0,
232900,1863.3,26.5,174.3,156.0,1121.0,5774.0,2.0,0,
233000,1861.4,28.7,174.3,188.2,1121.0,5774.0,2.0,0,
233100,1861.3,27.0,174.3,238.3,1121.0,5774.0,2.0,0,
233200,1860.3,26.9,174.3,239.3,1121.0,5774.0,2.0,0,
233300,1863.9,25.4,174.3,239.4,1121.0,5774.0,2.0,0,
233400,1859.6,27.8,174.3,239.9,1121.0,5774.0,2.0,0,
233600,1860.9,29.9,174.3,239.4,1121.0,5774.0,2.0,0,
233700,1846.0,68.3,174.3,239.0,1230.0,6734.0,3.0,1,
233800,1844.1,74.1,160.2,94.2,1219.0,6582.0,4.0,1,
233900,1859.6,49.3,147.9,35.3,1024.0,6276.0,3.0,1,
234000,1879.2,109.4,123.3,29.7,1152.0,6912.0,3.0,1,
234100,1861.8,85.8,109.1,65.7,1022.0,5507.0,4.0,1,
234200,1851.9,106.4,82.8,66.2,1103.0,6429.0,3.0,1,
234300,1860.1,29.1,67.2,36.5,1103.0,6429.0,3.0,1,
234400,1859.8,27.4,67.3,36.5,1103.0,6429.0,3.0,1,
234600,1860.1,30.8,67.3,67.2,1103.0,6429.0,3.0,1,
234700,1860.9,32.3,67.3,117.4,1103.0,6429.0,3.0,1,
234800,1859.1,26.7,67.4,230.9,1103.0,6429.0,3.0,1,
234900,1860.1,24.7,67.4,237.9,1103.0,6429.0,3.0,1,
235000,1860.7,24.1,67.4,238.4,1103.0,6429.0,3.0,1,
235100,1863.1,22.7,67.2,239.5,1103.0,6429.0,3.0,1,
235200,1860.6,30.8,67.2,239.6,1103.0,6429.0,3.0,1,
235300,1865.9,78.4,67.4,239.5,1104.0,6209.0,3.0,1,
235400,1879.8,72.5,68.8,151.8,1310.0,7425.0,4.0,1,
235600,1872.4,92.3,77.8,29.6,1206.0,7305.0,3.0,1,
235700,1840.4,89.9,74.7,37.3,1033.0,5926.0,4.0,1,
235800,1875.3,48.0,73.2,36.0,1052.0,5823.0,3.0,1,
235900,1854.3,31.7,70.7,30.0,1046.0,6084.0,4.0,1,
236000,1863.8,25.6,70.8,30.1,1046.0,6084.0,4.0,1,
236100,1862.4,29.2,70.8,65.6,1046.0,6084.0,4.0,1,
236200,1860.1,28.6,70.8,67.0,1046.0,6084.0,4.0,1,
236300,1861.0,26.3,70.8,140.8,1046.0,6084.0,4.0,1,
236400,1861.7,29.3,70.7,238.2,1046.0,6084.0,4.0,1,
236600,1861.1,28.7,70.8,239.5,1046.0,6084.0,4.0,1,
236700,1858.0,23.7,70.9,239.3,1046.0,6084.0,4.0,1,
236800,1861.7,26.0,70.9,239.6,1046.0,6084.0,4.0,1,
236900,1856.3,131.1,70.8,239.8,1169.0,6552.0,4.0,1,
237000,1868.0,114.9,76.1,199.7,1223.0,6771.0,3.0,1,
237100,1844.2,88.0,84.0,35.2,1304.0,7308.0,4.0,1,
237200,1855.7,49.6,76.5,30.1,1096.0,6159.0,4.0,1,
237300,1881.8,84.9,75.7,29.8,1167.0,6997.0,4.0,1,
237400,1834.6,68.8,75.8,29.9,996.0,5542.0,4.0,1,
237600,1858.1,26.6,77.6,29.8,996.0,5542.0,4.0,1,
237700,1861.8,28.3,77.7,35.7,996.0,5542.0,4.0,1,
237800,1860.5,23.2,77.6,37.0,996.0,5542.0,4.0,1,
237900,1860.8,28.1,77.6,70.4,996.0,5542.0,4.0,1,
238000,1862.0,28.0,77.6,240.1,996.0,5542.0,4.0,1,
238100,1859.6,24.2,77.5,239.8,996.0,5542.0,4.0,1,
238200,1861.2,23.5,77.5,239.5,996.0,5542.0,4.0,1,
238300,1860.4,29.8,77.4,239.7,996.0,5542.0,4.0,1,
238400,1862.2,26.6,77.5,239.7,996.0,5542.0,4.0,1,
238600,1823.6,216.2,70.8,239.5,1151.0,5163.0,28.0,0,
238700,1910.5,176.7,87.5,91.9,1206.0,5915.0,2.0,0,
238800,1827.3,239.8,109.1,90.3,1249.0,5141.0,2.0,0,
238900,1864.7,215.0,130.2,164.8,1153.0,5541.0,2.0,0,
239000,1860.8,254.7,143.5,221.0,1536.0,5246.0,2.0,0,
239100,1848.4,65.9,163.1,157.6,881.0,3623.0,2.0,0,
239200,1869.3,31.0,163.8,220.7,881.0,3623.0,2.0,0,
239300,1857.8,25.9,163.8,132.1,881.0,3623.0,2.0,0,
239400,1860.4,27.8,163.8,67.6,881.0,3623.0,2.0,0,
239600,1860.0,26.5,163.8,159.0,881.0,3623.0,2.0,0,
239700,1861.4,25.5,163.8,235.9,881.0,3623.0,2.0,0,
239800,1860.3,25.6,163.8,238.2,881.0,3623.0,2.0,0,
239900,1861.0,25.3,163.8,238.7,881.0,3623.0,2.0,0,
240000,1862.8,28.9,163.8,238.8,881.0,3623.0,2.0,0,
240100,1860.5,55.3,163.7,239.5,1328.0,7587.0,4.0,1,
240200,1880.1,49.8,164.7,239.4,1280.0,6793.0,3.0,1,
240300,1842.9,135.0,156.3,38.0,1218.0,6922.0,3.0,1,
240400,1869.2,75.5,145.0,35.6,1180.0,6608.0,4.0,1,
240600,1896.3,74.3,106.0,29.5,1120.0,6824.0,4.0,1,
240700,1843.7,51.3,74.5,29.6,1073.0,6114.0,4.0,1,
240800,1860.3,26.0,66.9,69.1,1073.0,6114.0,4.0,1,
240900,1858.8,25.9,66.8,66.7,1073.0,6114.0,4.0,1,
241000,1861.8,29.1,66.7,65.9,1073.0,6114.0,4.0,1,
241100,1862.3,28.7,66.7,68.6,1073.0,6114.0,4.0,1,
241200,1861.8,27.2,66.7,239.7,1073.0,6114.0,4.0,1,
241300,1861.1,26.2,66.6,239.7,1073.0,6114.0,4.0,1,
241400,1862.3,27.1,66.7,239.7,1073.0,6114.0,4.0,1,
241600,1861.4,23.4,66.7,240.0,1073.0,6114.0,4.0,1,
241700,1858.5,37.9,66.6,239.9,1186.0,6693.0,3.0,1,
241800,1840.8,203.2,66.5,239.7,1243.0,5241.0,2.0,0,
241900,1869.3,125.6,99.3,82.8,1083.0,4939.0,2.0,0,
242000,1871.8,268.0,111.6,135.9,1087.0,5958.0,2.0,0,
242100,1866.7,121.5,131.6,226.9,992.0,4849.0,2.0,0,
242200,1852.5,262.3,149.1,227.5,1056.0,5119.0,2.0,0,
242300,1853.8,144.5,168.1,184.1,971.0,5331.0,2.0,0,
242400,1877.2,30.4,174.0,173.9,971.0,5331.0,2.0,0,
242600,1861.1,25.7,174.0,125.6,971.0,5331.0,2.0,0,
242700,1862.4,28.8,174.0,194.5,971.0,5331.0,2.0,0,
242800,1862.2,29.6,174.0,239.5,971.0,5331.0,2.0,0,
242900,1861.7,26.6,174.0,239.7,971.0,5331.0,2.0,0,
243000,1859.0,28.5,174.0,239.5,971.0,5331.0,2.0,0,
243100,1861.4,29.1,174.0,239.6,971.0,5331.0,2.0,0,
243200,1862.2,24.5,174.0,239.6,971.0,5331.0,2.0,0,
243300,1862.2,20.5,174.0,239.9,971.0,5331.0,2.0,0,
243400,1882.6,67.6,174.2,239.8,1426.0,7360.0,3.0,1,
243600,1881.8,96.3,156.3,34.2,1312.0,7938.0,3.0,1,
243700,1837.0,88.3,143.1,29.7,1133.0,6463.0,4.0,1,
243800,1869.3,121.5,130.4,30.2,1102.0,5985.0,3.0,1,
243900,1869.0,90.0,99.0,29.4,1166.0,6754.0,4.0,1,
244000,1843.8,32.4,82.5,28.8,1110.0,6375.0,4.0,1,
244100,1864.8,26.8,82.6,34.5,1110.0,6375.0,4.0,1,
244200,1858.8,30.5,82.7,37.7,1110.0,6375.0,4.0,1,
244300,1861.9,29.6,82.8,57.5,1110.0,6375.0,4.0,1,
244400,1860.8,24.8,82.8,238.2,1110.0,6375.0,4.0,1,
244600,1861.7,24.8,82.8,239.9,1110.0,6375.0,4.0,1,
244700,1862.9,26.2,82.7,239.8,1110.0,6375.0,4.0,1,
244800,1863.2,27.3,82.7,239.8,1110.0,6375.0,4.0,1,
244900,1858.8,27.7,82.7,239.9,1110.0,6375.0,4.0,1,
245000,1852.7,70.2,82.8,239.6,1309.0,6837.0,4.0,1,
245100,1866.7,51.7,83.6,213.9,1297.0,6950.0,4.0,1,
245200,1837.2,234.5,72.4,82.7,1068.0,5414.0,2.0,0,
245300,1905.4,145.7,96.5,42.3,1211.0,5911.0,2.0,0,
245400,1831.4,226.3,122.1,70.5,1421.0,5193.0,2.0,0,
245600,1866.8,38.4,148.1,187.0,1070.0,5536.0,2.0,0,
245700,1861.9,25.6,148.0,143.3,1070.0,5536.0,2.0,0,
245800,1860.6,26.4,148.0,220.3,1070.0,5536.0,2.0,0,
245900,1859.8,29.0,147.9,230.4,1070.0,5536.0,2.0,0,
246000,1861.1,29.4,147.9,229.3,1070.0,5536.0,2.0,0,
246100,1863.5,28.4,147.9,239.9,1070.0,5536.0,2.0,0,
246200,1858.7,26.0,147.9,239.9,1070.0,5536.0,2.0,0,
246300,1858.9,28.5,147.9,239.6,1070.0,5536.0,2.0,0,
246400,1860.0,26.4,148.0,239.4,1070.0,5536.0,2.0,0,
246600,1845.4,64.3,147.9,239.8,1121.0,6348.0,3.0,1,
246700,1870.3,71.5,147.0,239.0,1315.0,6716.0,3.0,1,
246800,1857.0,71.2,150.8,40.0,1210.0,6181.0,3.0,1,
246900,1847.6,227.1,141.5,29.8,1202.0,6420.0,28.0,0,
247000,1862.0,228.4,141.2,35.4,1068.0,4860.0,2.0,0,
247100,1853.6,313.2,141.1,70.5,1115.0,4909.0,2.0,0,
247200,1877.0,70.3,147.8,163.7,1115.0,5241.0,2.0,0,
247300,1853.3,28.4,148.9,159.0,1115.0,5241.0,2.0,0,
247400,1858.1,26.7,148.9,94.5,1115.0,5241.0,2.0,0,
247600,1862.0,27.6,148.9,37.6,1115.0,5241.0,2.0,0,
247700,1859.2,27.4,149.0,239.5,1115.0,5241.0,2.0,0,
247800,1860.0,27.0,149.0,239.6,1115.0,5241.0,2.0,0,
247900,1858.9,25.9,149.0,239.6,1115.0,5241.0,2.0,0,
248000,1860.1,27.8,149.0,239.5,1115.0,5241.0,2.0,0,
248100,1860.8,26.6,149.0,239.5,1115.0,5241.0,2.0,0,
248200,1860.5,144.4,149.0,239.6,1089.0,6293.0,4.0,1,
248300,1863.5,90.4,152.6,133.1,1289.0,6693.0,3.0,1,
248400,1841.9,247.9,152.4,37.2,1188.0,5485.0,2.0,0,
248600,1864.0,265.9,171.3,43.8,1158.0,5845.0,2.0,0,
248700,1865.3,100.4,170.4,157.2,1058.0,4415.0,2.0,0,
248800,1853.8,82.6,163.7,163.8,1169.0,5329.0,2.0,0,
248900,1854.9,29.7,164.5,131.9,1169.0,5329.0,2.0,0,
249000,1860.9,28.2,164.5,171.5,1169.0,5329.0,2.0,0,
249100,1861.0,26.3,164.5,136.7,1169.0,5329.0,2.0,0,
249200,1861.4,26.9,164.5,131.1,1169.0,5329.0,2.0,0,
249300,1862.1,28.6,164.4,239.8,1169.0,5329.0,2.0,0,
249400,1860.8,25.0,164.4,240.1,1169.0,5329.0,2.0,0,
249600,1860.5,27.1,164.4,239.5,1169.0,5329.0,2.0,0,
249700,1860.5,26.2,164.4,239.8,1169.0,5329.0,2.0,0,
249800,1860.6,32.4,164.3,240.1,1288.0,7225.0,4.0,1,
249900,1845.6,77.2,160.8,240.0,1252.0,7298.0,4.0,1,
250000,1903.7,54.1,161.1,99.2,1354.0,7581.0,3.0,1,
250100,1825.6,73.0,147.2,30.0,1187.0,6281.0,3.0,1,
250200,1881.8,76.1,133.8,29.5,1216.0,6963.0,3.0,1,
250300,1837.6,191.9,108.8,29.7,1002.0,5352.0,2.0,0,
250400,1880.7,78.4,99.9,73.0,1003.0,4469.0,2.0,0,
250600,1859.8,26.8,86.6,229.8,1003.0,4469.0,2.0,0,
250700,1859.4,26.9,86.6,254.8,1003.0,4469.0,2.0,0,
250800,1861.2,25.9,86.6,241.8,1003.0,4469.0,2.0,0,
250900,1859.6,25.9,86.5,239.7,1003.0,4469.0,2.0,0,
251000,1859.1,26.5,86.5,239.8,1003.0,4469.0,2.0,0,
251100,1860.0,29.9,86.6,239.7,1003.0,4469.0,2.0,0,
251200,1860.6,25.3,86.7,239.7,1003.0,4469.0,2.0,0,
251300,1858.6,27.8,86.7,239.9,1003.0,4469.0,2.0,0,
251400,1859.0,34.8,86.7,240.1,1003.0,4469.0,2.0,0,
251600,1850.4,236.9,94.3,130.2,1220.0,5706.0,2.0,0,
251700,1865.0,220.8,117.0,91.6,1230.0,5868.0,2.0,0,
251800,1844.2,243.1,139.2,135.7,1168.0,5435.0,28.0,0,
251900,1894.5,134.0,154.8,195.4,1106.0,5630.0,2.0,0,
252000,1831.6,191.3,164.1,156.0,1033.0,4155.0,2.0,0,
252100,1865.5,36.1,166.0,172.1,916.0,4079.0,2.0,0,
252200,1859.9,26.3,166.0,195.9,916.0,4079.0,2.0,0,
252300,1858.5,26.1,166.0,99.7,916.0,4079.0,2.0,0,
252400,1860.3,26.3,166.0,66.5,916.0,4079.0,2.0,0,
252600,1861.7,24.5,165.9,239.8,916.0,4079.0,2.0,0,
252700,1859.3,24.4,165.9,239.9,916.0,4079.0,2.0,0,
252800,1860.1,23.1,165.9,240.0,916.0,4079.0,2.0,0,
252900,1859.5,30.5,165.8,240.0,916.0,4079.0,2.0,0,
253000,1859.7,34.9,165.9,240.0,916.0,4079.0,2.0,0,
253100,1859.2,51.7,168.1,239.8,1295.0,6713.0,3.0,1,
253200,1852.4,65.5,168.0,37.9,1160.0,6709.0,4.0,1,
253300,1887.5,196.7,150.9,35.3,1327.0,7678.0,4.0,1,
253400,1851.6,86.6,139.5,37.7,1183.0,6406.0,4.0,1,
253600,1874.4,290.6,122.7,34.8,2150.0,5746.0,2.0,0,
253700,1844.6,47.5,133.1,82.9,984.0,3762.0,2.0,0,
253800,1865.0,31.8,133.1,167.8,984.0,3762.0,2.0,0,
253900,1860.9,28.7,133.2,131.8,984.0,3762.0,2.0,0,
254000,1858.9,29.5,133.2,91.4,984.0,3762.0,2.0,0,
254100,1860.9,32.0,133.2,89.1,984.0,3762.0,2.0,0,
254200,1860.0,24.0,133.3,239.2,984.0,3762.0,2.0,0,
254300,1858.5,26.8,133.3,239.4,984.0,3762.0,2.0,0,
254400,1859.6,33.3,133.3,239.7,984.0,3762.0,2.0,0,
254600,1859.5,28.6,133.4,239.6,984.0,3762.0,2.0,0,
254700,1876.2,209.1,132.4,239.5,1291.0,6774.0,4.0,1,
254800,1840.2,142.0,142.3,182.8,1151.0,4593.0,2.0,0,
254900,1866.8,140.6,153.5,81.1,1286.0,6471.0,2.0,0,
255000,1836.1,172.9,160.3,140.9,1135.0,6773.0,4.0,1,
255100,1881.1,63.6,163.6,227.6,1140.0,6246.0,4.0,1,
255200,1854.5,134.0,151.4,226.4,1173.0,6825.0,3.0,1,
255300,1868.3,38.1,129.0,105.5,1112.0,6204.0,4.0,1,
255400,1864.1,27.5,127.2,36.0,1112.0,6204.0,4.0,1,
255600,1860.4,30.5,127.2,47.6,1112.0,6204.0,4.0,1,
255700,1860.2,24.3,127.2,106.6,1112.0,6204.0,4.0,1,
255800,1862.4,26.0,127.1,239.6,1112.0,6204.0,4.0,1,
255900,1859.4,30.9,127.2,239.9,1112.0,6204.0,4.0,1,
256000,1858.9,28.0,127.2,240.0,1112.0,6204.0,4.0,1,
256100,1858.5,20.8,127.1,240.1,1112.0,6204.0,4.0,1,
256200,1859.8,25.3,127.0,239.9,1112.0,6204.0,4.0,1,
256300,1862.1,73.4,127.0,239.8,1261.0,6550.0,3.0,1,
256400,1840.2,50.7,121.6,88.1,1244.0,6736.0,4.0,1,
256600,1870.9,61.2,83.6,34.3,1229.0,7409.0,4.0,1,
256700,1841.6,92.7,79.1,42.9,1118.0,5787.0,4.0,1,
256800,1877.4,75.2,78.2,29.6,1129.0,6463.0,4.0,1,
256900,1840.0,47.4,70.5,29.3,1132.0,6259.0,4.0,1,
257000,1863.3,28.8,70.7,30.3,1132.0,6259.0,4.0,1,
257100,1860.4,32.2,70.6,51.5,1132.0,6259.0,4.0,1,
257200,1858.9,26.1,70.7,52.5,1132.0,6259.0,4.0,1,
257300,1859.0,25.4,70.6,92.4,1132.0,6259.0,4.0,1,
257400,1860.6,29.2,70.6,239.6,1132.0,6259.0,4.0,1,
257600,1857.7,25.6,70.6,239.8,1132.0,6259.0,4.0,1,
257700,1859.1,27.6,70.5,239.5,1132.0,6259.0,4.0,1,
257800,1860.0,26.3,70.6,239.5,1132.0,6259.0,4.0,1,
257900,1860.8,90.9,70.5,239.8,1078.0,6164.0,3.0,1,
258000,1898.9,76.9,72.8,131.1,1390.0,7336.0,4.0,1,
258100,1824.9,57.2,74.3,35.9,1214.0,6860.0,4.0,1,
258200,1874.1,88.0,73.5,35.2,1245.0,7246.0,3.0,1,
258300,1850.5,156.0,73.8,34.6,1112.0,6521.0,4.0,1,
258400,1870.2,76.2,76.2,45.5,1019.0,5678.0,4.0,1,
258600,1847.6,26.0,75.8,29.0,1019.0,5678.0,4.0,1,
258700,1859.1,25.4,75.7,29.2,1019.0,5678.0,4.0,1,
258800,1859.4,26.1,75.7,41.9,1019.0,5678.0,4.0,1,
258900,1858.2,24.8,75.7,84.7,1019.0,5678.0,4.0,1,
259000,1860.5,23.8,75.6,239.3,1019.0,5678.0,4.0,1,
259100,1861.2,25.9,75.5,239.7,1019.0,5678.0,4.0,1,
259200,1861.1,26.3,75.6,240.0,1019.0,5678.0,4.0,1,
259300,1861.0,25.3,75.7,240.0,1019.0,5678.0,4.0,1,
259400,1857.4,27.5,75.7,240.0,1019.0,5678.0,4.0,1,
259600,1845.8,225.2,68.1,239.5,1186.0,5440.0,2.0,0,
259700,1872.0,201.3,98.3,84.6,1254.0,5438.0,2.0,0,
259800,1843.3,280.1,128.5,91.3,1351.0,5827.0,28.0,0,
259900,1892.6,120.8,148.8,168.4,1210.0,5790.0,2.0,0,
260000,1832.5,203.2,163.0,152.0,995.0,4504.0,2.0,0,
260100,1872.4,134.9,173.5,134.6,1074.0,5019.0,2.0,0,
260200,1865.5,33.4,179.0,195.4,1074.0,5019.0,2.0,0,
260300,1858.2,25.1,179.1,157.3,1074.0,5019.0,2.0,0,
260400,1860.0,23.4,179.1,226.0,1074.0,5019.0,2.0,0,
260600,1859.9,27.6,179.0,230.3,1074.0,5019.0,2.0,0,
260700,1859.3,28.3,179.1,239.5,1074.0,5019.0,2.0,0,
260800,1861.7,29.0,179.1,239.5,1074.0,5019.0,2.0,0,
260900,1858.6,30.6,179.1,239.7,1074.0,5019.0,2.0,0,
261000,1861.0,27.3,179.2,239.8,1074.0,5019.0,2.0,0,
261100,1861.6,34.1,179.2,239.8,1074.0,5019.0,2.0,0,
261200,1839.1,70.9,179.1,240.1,1103.0,6354.0,4.0,1,
261300,1877.9,237.1,169.3,214.2,1201.0,5661.0,2.0,0,
261400,1855.2,139.6,168.8,40.3,1063.0,5496.0,2.0,0,
261600,1867.2,213.8,169.4,196.1,1139.0,5168.0,2.0,0,
261700,1852.8,257.4,169.1,163.4,960.0,4390.0,2.0,0,
261800,1859.4,39.2,171.4,133.0,1036.0,4429.0,2.0,0,
261900,1861.5,27.7,171.4,166.9,1036.0,4429.0,2.0,0,
262000,1860.9,28.5,171.5,98.7,1036.0,4429.0,2.0,0,
262100,1859.6,29.1,171.5,37.6,1036.0,4429.0,2.0,0,
