Time(ms),Raw_ADC,ENV_Value,RMS,MDF,MW_Amp,MW_Area,MW_Latency,Marker
0,1859.8,26.3,0.0,0.0,0.0,0.0,0.0,
100,1864.5,27.3,0.0,0.0,0.0,0.0,0.0,
200,1857.3,28.4,0.0,0.0,0.0,0.0,0.0,
300,1858.4,24.4,0.0,0.0,0.0,0.0,0.0,
400,1859.0,28.7,0.0,0.0,0.0,0.0,0.0,
500,1866.5,27.3,0.0,121.1,0.0,0.0,0.0,
600,1862.9,31.5,0.0,121.1,0.0,0.0,0.0,
700,1859.8,28.5,0.0,121.1,0.0,0.0,0.0,
800,1859.4,162.1,0.0,121.1,0.0,0.0,0.0,
900,1874.4,433.1,144.3,93.8,1930.0,9929.0,14.0,
1000,1828.7,331.6,214.0,62.5,1753.0,7209.0,30.0,
1100,1843.9,308.6,256.8,64.5,1585.0,5988.0,30.0,
1200,1902.3,297.0,297.3,64.5,1782.0,8444.0,14.0,
1300,1847.3,350.3,326.4,64.5,1633.0,8006.0,14.0,
1400,1860.0,320.3,352.2,64.5,1633.0,8006.0,14.0,
1500,1867.6,43.4,366.5,64.5,1633.0,8006.0,14.0,
1600,1858.2,32.7,366.5,64.5,1633.0,8006.0,14.0,
1700,1863.1,29.4,366.5,64.5,1633.0,8006.0,14.0,
1900,1861.2,30.7,338.7,111.3,1633.0,8006.0,14.0,
2000,1859.4,29.2,299.6,121.1,1633.0,8006.0,14.0,
2100,1863.6,27.4,263.8,121.1,1633.0,8006.0,14.0,
2200,1861.3,27.1,217.2,121.1,1633.0,8006.0,14.0,
2300,1862.5,27.0,170.3,121.1,1633.0,8006.0,14.0,
2400,1859.6,64.1,107.5,121.1,1633.0,8006.0,14.0,
2500,1873.1,354.5,147.1,99.6,1962.0,9705.0,14.0,
2600,1841.4,390.9,211.0,62.5,2017.0,7419.0,30.0,
2700,1864.7,312.4,252.2,64.5,2017.0,7419.0,30.0,
2900,1904.3,286.3,323.4,64.5,2017.0,7419.0,30.0,
3000,1865.7,368.4,345.8,64.5,2017.0,7419.0,30.0,
3100,1849.1,43.5,362.7,64.5,1620.0,8162.0,14.0,
3200,1859.5,31.8,362.7,64.5,1620.0,8162.0,14.0,
3300,1859.8,26.0,362.7,64.5,1620.0,8162.0,14.0,
3400,1857.4,27.8,362.7,64.5,1620.0,8162.0,14.0,
3500,1857.8,25.9,333.4,99.6,1620.0,8162.0,14.0,
3600,1861.8,28.9,297.1,121.1,1620.0,8162.0,14.0,
3700,1861.1,29.2,262.9,121.1,1620.0,8162.0,14.0,
3900,1861.0,29.5,167.9,121.1,1620.0,8162.0,14.0,
4000,1862.8,27.3,114.8,121.1,1620.0,8162.0,14.0,
4100,1841.8,302.9,139.1,119.1,2129.0,7847.0,30.0,
4200,1890.9,301.3,207.1,62.5,1810.0,7555.0,30.0,
4300,1865.2,361.8,244.8,64.5,1656.0,8329.0,14.0,
4400,1835.9,291.5,282.8,64.5,1661.0,8170.0,14.0,
4500,1867.7,281.9,313.2,64.5,1683.0,8209.0,14.0,
4600,1890.8,302.5,341.1,64.5,1515.0,7538.0,14.0,
4700,1842.8,49.5,357.8,64.5,1647.0,7713.0,14.0,
4900,1865.8,25.7,357.8,64.5,1647.0,7713.0,14.0,
5000,1853.5,30.0,357.8,66.4,1647.0,7713.0,14.0,
5100,1864.9,25.7,331.4,97.7,1647.0,7713.0,14.0,
5200,1856.9,32.4,293.7,121.1,1647.0,7713.0,14.0,
5300,1864.3,27.2,263.2,121.1,1647.0,7713.0,14.0,
5400,1862.8,26.7,221.9,121.1,1647.0,7713.0,14.0,
5500,1864.6,33.3,176.3,121.1,1647.0,7713.0,14.0,
5600,1863.8,28.3,113.5,121.1,1647.0,7713.0,14.0,
5700,1829.4,299.5,126.7,119.1,2144.0,8314.0,30.0,
5900,1860.8,330.9,243.8,64.5,1650.0,8458.0,14.0,
6000,1845.8,333.7,278.3,64.5,1690.0,8699.0,13.0,
6100,1852.8,273.9,307.1,64.5,1690.0,8699.0,13.0,
6200,1859.4,266.8,337.8,64.5,1646.0,8051.0,14.0,
6300,1867.9,53.7,356.1,64.5,1646.0,8051.0,14.0,
6400,1863.1,30.5,356.1,64.5,1646.0,8051.0,14.0,
6500,1857.9,27.0,356.1,64.5,1646.0,8051.0,14.0,
6600,1860.7,26.0,356.0,64.5,1646.0,8051.0,14.0,
6700,1862.8,29.2,334.6,80.1,1646.0,8051.0,14.0,
6900,1864.0,25.4,261.9,128.9,1646.0,8051.0,14.0,
7000,1862.7,31.4,224.8,121.1,1646.0,8051.0,14.0,
7100,1862.3,27.4,183.6,121.1,1646.0,8051.0,14.0,
7200,1862.0,33.5,117.8,121.1,1646.0,8051.0,14.0,
7300,1859.7,352.5,119.0,119.1,1750.0,7556.0,30.0,
7400,1840.1,309.5,193.1,62.5,1750.0,7556.0,30.0,
7500,1894.8,285.0,244.8,64.5,1656.0,8154.0,14.0,
7600,1861.0,328.9,277.5,64.5,1656.0,8154.0,14.0,
7700,1856.2,319.9,306.1,64.5,1619.0,8042.0,15.0,
7900,1894.5,58.7,354.3,64.5,1561.0,7715.0,13.0,
8000,1863.8,32.3,354.4,64.5,1561.0,7715.0,13.0,
8100,1860.5,24.7,354.4,64.5,1561.0,7715.0,13.0,
8200,1861.3,31.3,354.4,64.5,1561.0,7715.0,13.0,
8300,1865.1,29.8,335.6,74.2,1561.0,7715.0,13.0,
8400,1863.6,28.7,299.2,121.1,1561.0,7715.0,13.0,
8500,1858.4,25.1,258.6,121.1,1561.0,7715.0,13.0,
8600,1864.3,30.5,223.2,121.1,1561.0,7715.0,13.0,
8700,1861.0,27.3,182.1,121.1,1561.0,7715.0,13.0,
8900,1884.1,398.4,110.1,119.1,2140.0,10012.0,6.0,
9000,1842.9,319.4,186.5,64.5,1691.0,8538.0,15.0,
9100,1831.2,284.0,235.3,64.5,1690.0,8557.0,14.0,
9200,1920.0,291.8,272.2,64.5,1690.0,8557.0,14.0,
9300,1851.2,348.6,299.1,64.5,1563.0,7543.0,14.0,
9400,1841.9,296.0,327.5,64.5,1579.0,8167.0,14.0,
9500,1886.8,61.7,347.5,64.5,1579.0,8167.0,14.0,
9600,1859.0,26.4,347.4,64.5,1579.0,8167.0,14.0,
9700,1861.9,32.0,347.4,64.5,1579.0,8167.0,14.0,
9900,1863.7,27.9,331.4,68.4,1579.0,8167.0,14.0,
10000,1860.5,27.9,295.2,121.1,1579.0,8167.0,14.0,
10100,1864.5,28.1,258.0,121.1,1579.0,8167.0,14.0,
10200,1862.0,29.5,218.8,121.1,1579.0,8167.0,14.0,
10300,1862.0,25.9,180.2,121.1,1579.0,8167.0,14.0,
10400,1860.7,25.1,121.2,121.1,1579.0,8167.0,14.0,
10500,1885.8,328.1,107.3,119.1,1598.0,7540.0,30.0,
10600,1843.5,365.0,179.4,62.5,1716.0,8416.0,14.0,
10700,1826.6,288.4,228.2,62.5,1461.0,8085.0,14.0,
10900,1883.6,279.3,291.6,64.5,1391.0,7311.0,14.0,
11000,1848.2,313.5,315.3,64.5,1410.0,7466.0,13.0,
11100,1872.2,65.3,334.8,64.5,1410.0,7466.0,13.0,
11200,1857.8,30.8,334.8,64.5,1410.0,7466.0,13.0,
11300,1864.7,28.8,334.8,64.5,1410.0,7466.0,13.0,
11400,1859.3,29.4,334.8,64.5,1410.0,7466.0,13.0,
11500,1861.8,28.7,319.0,66.4,1410.0,7466.0,13.0,
11600,1860.9,29.5,284.8,121.1,1410.0,7466.0,13.0,
11700,1863.3,30.0,247.4,121.1,1410.0,7466.0,13.0,
11900,1859.1,27.1,168.0,121.1,1410.0,7466.0,13.0,
12000,1861.8,26.3,117.6,121.1,1410.0,7466.0,13.0,
12100,1857.1,305.8,97.6,121.1,1675.0,7772.0,30.0,
12200,1866.7,337.0,183.2,60.5,1497.0,8127.0,14.0,
12300,1851.5,322.1,226.2,62.5,1497.0,8127.0,14.0,
12400,1837.0,270.6,259.4,64.5,1440.0,7311.0,15.0,
12500,1857.3,258.6,293.2,64.5,1521.0,7337.0,14.0,
12600,1889.4,272.1,319.0,64.5,1508.0,7960.0,14.0,
12700,1849.4,73.8,339.7,64.5,1482.0,7331.0,15.0,
12900,1865.2,33.2,339.7,64.5,1482.0,7331.0,15.0,
13000,1859.0,26.0,339.8,64.5,1482.0,7331.0,15.0,
13100,1859.3,24.8,327.2,68.4,1482.0,7331.0,15.0,
13200,1861.7,32.2,288.1,121.1,1482.0,7331.0,15.0,
13300,1863.0,27.5,255.8,121.1,1482.0,7331.0,15.0,
13400,1860.7,29.6,222.1,121.1,1482.0,7331.0,15.0,
13500,1864.2,26.7,175.0,121.1,1482.0,7331.0,15.0,
13600,1860.0,27.7,121.7,121.1,1482.0,7331.0,15.0,
13700,1801.9,346.6,78.2,121.1,2660.0,10962.0,7.0,
13900,1875.1,375.7,243.1,64.5,2660.0,10962.0,7.0,
14000,1840.7,363.2,282.5,64.5,1787.0,8627.0,14.0,
14100,1838.0,285.1,318.1,64.5,1923.0,9222.0,14.0,
14200,1898.3,283.0,348.0,64.5,1622.0,8382.0,14.0,
14300,1856.8,89.9,375.5,64.5,1664.0,8220.0,15.0,
14400,1852.7,32.4,375.6,64.5,1664.0,8220.0,15.0,
14500,1865.4,25.0,375.6,64.5,1664.0,8220.0,15.0,
14600,1862.1,26.6,375.6,64.5,1664.0,8220.0,15.0,
14700,1862.5,30.1,369.0,66.4,1664.0,8220.0,15.0,
14900,1861.4,24.7,288.4,121.1,1664.0,8220.0,15.0,
15000,1862.6,27.1,249.8,121.1,1664.0,8220.0,15.0,
15100,1862.8,28.1,202.6,121.1,1664.0,8220.0,15.0,
15200,1864.8,29.4,145.6,121.1,1664.0,8220.0,15.0,
15300,1853.0,349.5,53.6,121.1,2517.0,12701.0,15.0,
15400,1839.5,301.5,184.9,64.5,1834.0,7300.0,30.0,
15500,1920.1,326.7,237.9,64.5,1773.0,8649.0,14.0,
15600,1841.8,365.6,276.4,64.5,1663.0,8347.0,15.0,
15700,1856.4,315.8,306.8,64.5,1643.0,8180.0,14.0,
15900,1897.2,99.5,367.4,64.5,1660.0,7973.0,14.0,
16000,1849.5,29.5,367.5,64.5,1660.0,7973.0,14.0,
16100,1857.2,29.3,367.5,64.5,1660.0,7973.0,14.0,
16200,1864.9,27.0,367.5,64.5,1660.0,7973.0,14.0,
16300,1863.5,29.2,365.3,66.4,1660.0,7973.0,14.0,
16400,1865.0,31.0,319.5,119.1,1660.0,7973.0,14.0,
16500,1867.3,26.4,282.3,121.1,1660.0,7973.0,14.0,
16600,1858.7,27.2,244.7,121.1,1660.0,7973.0,14.0,
16700,1863.3,29.3,205.3,121.1,1660.0,7973.0,14.0,
16900,1862.1,393.8,35.9,121.1,2385.0,12328.0,15.0,
17000,1864.0,319.5,170.7,64.5,1553.0,6466.0,30.0,
17100,1840.2,293.5,232.2,62.5,1664.0,8335.0,15.0,
17200,1891.6,294.9,273.6,64.5,1664.0,8335.0,15.0,
17300,1863.9,361.0,302.4,64.5,1664.0,8001.0,14.0,
17400,1832.4,306.2,333.7,64.5,1640.0,8048.0,14.0,
17500,1850.8,118.2,359.5,64.5,1696.0,8364.0,14.0,
17600,1891.8,33.5,363.5,64.5,1696.0,8364.0,14.0,
17700,1860.7,29.2,363.6,64.5,1696.0,8364.0,14.0,
17900,1865.2,29.7,363.6,66.4,1696.0,8364.0,14.0,
18000,1858.3,27.7,322.8,121.1,1696.0,8364.0,14.0,
18100,1860.1,30.6,281.8,121.1,1696.0,8364.0,14.0,
18200,1866.7,31.3,241.8,121.1,1696.0,8364.0,14.0,
18300,1860.2,28.8,204.7,121.1,1696.0,8364.0,14.0,
18400,1861.6,26.5,148.4,121.1,1696.0,8364.0,14.0,
18500,1860.6,345.3,63.7,121.1,1615.0,7908.0,30.0,
18600,1864.0,371.7,170.5,64.5,1843.0,8856.0,14.0,
18700,1833.5,294.0,226.4,62.5,1802.0,8784.0,14.0,
18900,1871.6,315.5,302.6,64.5,1707.0,8299.0,15.0,
19000,1845.0,340.1,332.5,64.5,1659.0,8364.0,14.0,
19100,1863.5,138.4,357.0,64.5,1659.0,8364.0,14.0,
19200,1869.5,36.0,363.8,64.5,1659.0,8364.0,14.0,
19300,1859.1,27.8,363.8,64.5,1659.0,8364.0,14.0,
19400,1861.3,26.4,363.8,64.5,1659.0,8364.0,14.0,
19500,1862.9,30.7,363.8,64.5,1659.0,8364.0,14.0,
19600,1860.3,28.2,323.2,119.1,1659.0,8364.0,14.0,
19700,1863.0,26.7,286.8,121.1,1659.0,8364.0,14.0,
19900,1866.0,24.0,204.9,121.1,1659.0,8364.0,14.0,
20000,1860.3,26.6,151.6,121.1,1659.0,8364.0,14.0,
20100,1861.6,306.6,78.0,121.1,2460.0,10745.0,8.0,
20200,1869.8,399.6,174.7,62.5,2095.0,8105.0,30.0,
20300,1841.4,350.9,230.6,62.5,1812.0,8798.0,14.0,
20400,1852.4,286.2,269.9,64.5,1812.0,8798.0,14.0,
20500,1884.2,278.6,311.3,64.5,1796.0,8254.0,14.0,
20600,1869.7,325.6,340.5,64.5,1796.0,8254.0,14.0,
20700,1852.0,157.3,365.7,64.5,1683.0,7972.0,14.0,
20900,1858.5,29.1,372.3,64.5,1683.0,7972.0,14.0,
21000,1861.5,30.1,372.3,64.5,1683.0,7972.0,14.0,
21100,1857.8,28.6,372.3,66.4,1683.0,7972.0,14.0,
21200,1864.4,26.7,330.5,121.1,1683.0,7972.0,14.0,
21300,1864.3,29.1,294.2,121.1,1683.0,7972.0,14.0,
21400,1865.9,33.1,258.7,121.1,1683.0,7972.0,14.0,
21500,1863.9,28.1,207.1,121.1,1683.0,7972.0,14.0,
21600,1860.8,30.5,154.4,121.1,1683.0,7972.0,14.0,
21700,1861.2,223.0,78.3,121.1,1832.0,9474.0,15.0,
21900,1859.3,373.1,217.8,62.5,1832.0,9474.0,15.0,
22000,1852.4,330.8,256.3,64.5,1622.0,8200.0,15.0,
22100,1824.4,299.5,293.8,64.5,1817.0,8732.0,14.0,
22200,1923.0,290.0,324.7,64.5,1817.0,8732.0,14.0,
22300,1851.2,183.8,350.5,64.5,1627.0,8106.0,15.0,
22400,1848.4,32.5,358.9,64.5,1627.0,8106.0,15.0,
22500,1862.4,29.3,358.8,64.5,1627.0,8106.0,15.0,
22600,1865.2,26.8,358.8,64.5,1627.0,8106.0,15.0,
22700,1861.8,26.0,358.7,66.4,1627.0,8106.0,15.0,
22900,1863.0,25.8,287.3,121.1,1627.0,8106.0,15.0,
23000,1860.3,27.3,253.5,121.1,1627.0,8106.0,15.0,
23100,1864.4,29.6,208.8,121.1,1627.0,8106.0,15.0,
23200,1862.3,31.5,156.5,121.1,1627.0,8106.0,15.0,
23300,1864.0,287.9,84.4,121.1,1627.0,8106.0,15.0,
23400,1838.4,302.2,162.9,68.4,1734.0,7338.0,30.0,
23500,1917.6,335.5,220.1,62.5,1607.0,6500.0,30.0,
23600,1842.2,376.0,262.9,64.5,1625.0,8447.0,14.0,
23700,1850.8,314.5,296.9,64.5,1625.0,8447.0,14.0,
23900,1897.5,213.4,357.1,64.5,1570.0,7960.0,14.0,
24000,1845.0,39.0,364.9,64.5,1570.0,7960.0,14.0,
24100,1861.7,24.6,364.9,64.5,1570.0,7960.0,14.0,
24200,1861.7,29.4,364.9,64.5,1570.0,7960.0,14.0,
24300,1863.3,30.9,364.9,64.5,1570.0,7960.0,14.0,
24400,1861.5,30.9,328.3,119.1,1570.0,7960.0,14.0,
24500,1860.9,31.2,293.0,121.1,1570.0,7960.0,14.0,
24600,1865.3,30.6,255.3,121.1,1570.0,7960.0,14.0,
24700,1863.1,28.4,214.9,121.1,1570.0,7960.0,14.0,
24900,1860.0,306.1,82.3,121.1,1570.0,7960.0,14.0,
25000,1854.4,306.7,150.5,70.3,1823.0,8400.0,30.0,
25100,1869.7,297.7,212.7,62.5,1677.0,8463.0,15.0,
25200,1869.9,321.1,258.0,64.5,1633.0,8747.0,14.0,
25300,1866.1,345.0,289.5,64.5,1633.0,8747.0,14.0,
25400,1841.8,304.1,320.0,64.5,1599.0,7959.0,15.0,
25500,1849.4,245.5,348.5,64.5,1675.0,8405.0,14.0,
25600,1892.9,39.4,359.6,64.5,1675.0,8405.0,14.0,
25700,1858.7,31.3,359.6,64.5,1675.0,8405.0,14.0,
25900,1862.2,27.9,359.6,64.5,1675.0,8405.0,14.0,
26000,1859.3,30.4,328.4,119.1,1675.0,8405.0,14.0,
26100,1860.6,29.3,292.0,121.1,1675.0,8405.0,14.0,
26200,1862.1,30.8,252.9,121.1,1675.0,8405.0,14.0,
26300,1862.9,32.8,216.0,121.1,1675.0,8405.0,14.0,
26400,1866.4,28.6,167.7,121.1,1675.0,8405.0,14.0,
26500,1858.3,263.9,94.9,121.1,1675.0,8405.0,14.0,
26600,1872.1,366.6,144.6,70.3,2057.0,7755.0,30.0,
26700,1821.2,297.4,212.6,62.5,1773.0,9100.0,14.0,
26900,1871.5,342.5,289.7,64.5,1733.0,8447.0,14.0,
27000,1835.4,327.0,322.1,64.5,1573.0,7845.0,14.0,
27100,1855.3,281.8,347.5,64.5,1573.0,7845.0,14.0,
27200,1888.2,42.0,360.5,64.5,1573.0,7845.0,14.0,
27300,1861.7,29.0,360.5,64.5,1573.0,7845.0,14.0,
27400,1861.2,27.7,360.5,64.5,1573.0,7845.0,14.0,
27500,1860.9,29.5,360.5,64.5,1573.0,7845.0,14.0,
27600,1865.2,30.5,332.0,119.1,1573.0,7845.0,14.0,
27700,1863.4,29.7,293.2,121.1,1573.0,7845.0,14.0,
27900,1861.5,26.0,217.4,121.1,1573.0,7845.0,14.0,
28000,1863.7,30.6,165.6,121.1,1573.0,7845.0,14.0,
28100,1860.9,166.8,101.9,121.1,1573.0,7845.0,14.0,
28200,1870.9,400.2,142.4,72.3,1830.0,9137.0,15.0,
28300,1833.4,325.2,206.6,60.5,1763.0,8829.0,14.0,
28400,1844.7,310.8,248.5,62.5,1763.0,8829.0,14.0,
28500,1895.8,296.1,288.9,64.5,1565.0,7838.0,14.0,
28600,1850.0,354.6,318.4,64.5,1662.0,8850.0,14.0,
28700,1866.6,309.2,342.8,64.5,1662.0,8850.0,14.0,
28900,1865.2,30.1,357.0,64.5,1662.0,8850.0,14.0,
29000,1863.3,28.1,357.0,64.5,1662.0,8850.0,14.0,
29100,1865.6,27.6,357.0,64.5,1662.0,8850.0,14.0,
29200,1864.8,30.5,329.1,119.1,1662.0,8850.0,14.0,
29300,1864.7,28.7,293.1,121.1,1662.0,8850.0,14.0,
29400,1861.5,29.0,258.6,121.1,1662.0,8850.0,14.0,
29500,1862.0,25.6,212.5,121.1,1662.0,8850.0,14.0,
29600,1859.8,28.2,165.0,121.1,1662.0,8850.0,14.0,
29700,1860.1,72.4,105.0,121.1,1662.0,8850.0,14.0,
29900,1858.1,375.0,205.2,62.5,1841.0,9768.0,15.0,
30000,1852.5,318.6,247.2,62.5,1652.0,8419.0,15.0,
30100,1832.5,285.1,286.9,64.5,1737.0,8411.0,14.0,
30200,1917.5,298.8,317.7,64.5,1737.0,8411.0,14.0,
30300,1847.8,352.8,343.6,64.5,1532.0,7736.0,15.0,
30400,1853.4,48.0,359.6,64.5,1532.0,7736.0,15.0,
30500,1867.1,32.0,359.6,64.5,1532.0,7736.0,15.0,
30600,1860.7,26.3,359.6,64.5,1532.0,7736.0,15.0,
30700,1862.2,28.2,359.6,64.5,1532.0,7736.0,15.0,
30900,1864.8,26.0,297.3,121.1,1532.0,7736.0,15.0,
31000,1860.5,31.4,263.4,121.1,1532.0,7736.0,15.0,
31100,1857.0,28.3,219.5,121.1,1532.0,7736.0,15.0,
31200,1860.2,29.8,171.8,121.1,1532.0,7736.0,15.0,
31300,1866.1,29.3,111.5,121.1,1532.0,7736.0,15.0,
31400,1859.2,282.1,135.2,101.6,1663.0,8122.0,30.0,
31500,1891.2,349.8,198.2,62.5,1663.0,8122.0,30.0,
31600,1837.6,348.8,244.1,62.5,1577.0,8039.0,14.0,
31700,1860.6,298.0,278.7,64.5,1577.0,8039.0,14.0,
31900,1875.6,305.7,341.8,64.5,1636.0,7930.0,14.0,
32000,1859.7,46.7,357.4,64.5,1636.0,7930.0,14.0,
32100,1859.3,29.1,357.4,64.5,1636.0,7930.0,14.0,
32200,1860.5,28.3,357.4,64.5,1636.0,7930.0,14.0,
32300,1862.1,29.0,357.4,64.5,1636.0,7930.0,14.0,
32400,1863.2,29.3,332.6,78.1,1636.0,7930.0,14.0,
32500,1862.1,28.2,299.3,121.1,1636.0,7930.0,14.0,
32600,1861.9,27.3,263.3,121.1,1636.0,7930.0,14.0,
32700,1864.2,30.9,226.3,121.1,1636.0,7930.0,14.0,
32900,1858.7,29.3,109.7,121.1,1636.0,7930.0,14.0,
33000,1836.3,328.5,121.6,119.1,1765.0,7942.0,30.0,
33100,1904.8,296.0,197.0,62.5,1678.0,8931.0,15.0,
33200,1855.4,355.3,241.8,62.5,1727.0,8247.0,15.0,
33300,1858.6,326.3,276.0,64.5,1727.0,8247.0,15.0,
33400,1834.6,285.0,307.5,64.5,1547.0,8012.0,14.0,
33500,1891.8,249.4,338.3,64.5,1547.0,8012.0,14.0,
33600,1869.8,50.8,353.1,64.5,1547.0,8012.0,14.0,
33700,1860.8,30.1,353.1,64.5,1547.0,8012.0,14.0,
33900,1865.2,29.9,353.1,64.5,1547.0,8012.0,14.0,
34000,1860.4,26.9,333.2,72.3,1547.0,8012.0,14.0,
34100,1864.5,28.9,294.9,121.1,1547.0,8012.0,14.0,
34200,1862.1,27.7,259.5,121.1,1547.0,8012.0,14.0,
34300,1859.2,32.0,222.8,121.1,1547.0,8012.0,14.0,
34400,1862.5,26.0,176.8,121.1,1547.0,8012.0,14.0,
34500,1864.3,32.4,106.6,121.1,1547.0,8012.0,14.0,
34600,1865.6,342.8,114.0,119.1,2140.0,8850.0,30.0,
34700,1812.3,315.1,197.9,60.5,1774.0,9120.0,14.0,
34900,1859.0,376.5,278.8,64.5,1627.0,8535.0,15.0,
35000,1832.8,313.2,313.3,64.5,1563.0,8066.0,14.0,
35100,1843.5,306.4,339.1,64.5,1563.0,8066.0,14.0,
35200,1889.4,61.6,361.4,64.5,1650.0,8201.0,15.0,
35300,1860.6,32.8,361.4,64.5,1650.0,8201.0,15.0,
35400,1861.9,27.3,361.4,64.5,1650.0,8201.0,15.0,
35500,1859.6,27.8,361.4,64.5,1650.0,8201.0,15.0,
35600,1859.4,27.6,344.6,80.1,1650.0,8201.0,15.0,
35700,1861.2,29.3,304.3,121.1,1650.0,8201.0,15.0,
35900,1859.8,29.9,232.4,121.1,1650.0,8201.0,15.0,
36000,1862.0,26.1,183.3,121.1,1650.0,8201.0,15.0,
36100,1858.0,26.5,129.4,121.1,1650.0,8201.0,15.0,
36200,1873.9,409.1,116.4,119.1,2091.0,7804.0,30.0,
36300,1827.4,315.8,196.5,62.5,1788.0,9173.0,14.0,
36400,1855.9,296.7,243.6,62.5,1691.0,8244.0,15.0,
36500,1890.8,311.6,286.0,64.5,1657.0,8318.0,14.0,
36600,1852.9,355.1,316.2,64.5,1618.0,8086.0,14.0,
36700,1860.2,298.7,342.8,64.5,1608.0,7796.0,15.0,
36900,1862.9,33.8,366.4,64.5,1608.0,7796.0,15.0,
37000,1864.6,29.4,366.5,64.5,1608.0,7796.0,15.0,
37100,1863.9,29.5,366.5,64.5,1608.0,7796.0,15.0,
37200,1859.1,28.4,349.2,89.8,1608.0,7796.0,15.0,
37300,1862.1,27.7,311.2,121.1,1608.0,7796.0,15.0,
37400,1860.7,28.9,275.9,121.1,1608.0,7796.0,15.0,
37500,1858.8,26.7,231.6,121.1,1608.0,7796.0,15.0,
37600,1860.0,30.6,188.2,121.1,1608.0,7796.0,15.0,
37700,1862.5,29.2,134.1,121.1,1608.0,7796.0,15.0,
37900,1865.5,358.5,192.1,64.5,1587.0,6436.0,30.0,
38000,1842.7,302.9,237.6,64.5,1772.0,8848.0,14.0,
38100,1851.7,275.3,280.7,64.5,1660.0,8985.0,15.0,
38200,1906.2,305.3,310.0,64.5,1660.0,8985.0,15.0,
38300,1843.5,358.1,338.4,64.5,1687.0,8218.0,15.0,
38400,1852.5,73.3,364.0,64.5,1687.0,8218.0,15.0,
38500,1860.8,32.7,364.0,64.5,1687.0,8218.0,15.0,
38600,1865.3,33.0,364.1,64.5,1687.0,8218.0,15.0,
38700,1863.0,27.1,364.1,64.5,1687.0,8218.0,15.0,
38900,1862.7,25.6,311.2,121.1,1687.0,8218.0,15.0,
39000,1861.6,30.4,278.0,121.1,1687.0,8218.0,15.0,
39100,1864.2,26.9,234.4,121.1,1687.0,8218.0,15.0,
39200,1854.4,29.7,194.0,121.1,1687.0,8218.0,15.0,
39300,1859.5,29.1,138.6,121.1,1687.0,8218.0,15.0,
39400,1863.2,314.1,105.6,121.1,2057.0,10707.0,7.0,
39500,1882.3,393.9,183.6,62.5,1725.0,9031.0,15.0,
39600,1831.7,335.4,238.3,62.5,1717.0,8522.0,15.0,
39700,1853.2,279.0,273.4,64.5,1602.0,8406.0,14.0,
39900,1861.4,326.9,338.8,64.5,1651.0,7912.0,14.0,
40000,1871.4,84.7,362.9,64.5,1651.0,7912.0,14.0,
40100,1857.5,29.0,362.9,64.5,1651.0,7912.0,14.0,
40200,1861.8,24.9,362.9,64.5,1651.0,7912.0,14.0,
40300,1857.2,25.9,362.9,64.5,1651.0,7912.0,14.0,
40400,1862.5,25.7,349.0,64.5,1651.0,7912.0,14.0,
40500,1861.0,28.4,315.0,121.1,1651.0,7912.0,14.0,
40600,1861.7,29.0,275.9,121.1,1651.0,7912.0,14.0,
40700,1859.8,26.2,241.1,121.1,1651.0,7912.0,14.0,
40900,1863.9,27.4,134.4,121.1,1651.0,7912.0,14.0,
41000,1803.2,333.5,73.2,121.1,1923.0,8680.0,30.0,
41100,1919.5,338.3,190.0,60.5,1671.0,8896.0,14.0,
41200,1848.2,376.2,237.0,60.5,1671.0,8896.0,14.0,
41300,1852.5,326.7,273.3,64.5,1618.0,8568.0,15.0,
41400,1822.5,299.8,308.7,64.5,1651.0,7831.0,15.0,
41500,1915.8,280.0,340.3,64.5,1651.0,7831.0,15.0,
41600,1863.7,91.9,363.7,64.5,1662.0,7825.0,15.0,
41700,1855.5,33.1,363.8,64.5,1662.0,7825.0,15.0,
41900,1861.7,27.2,363.8,64.5,1662.0,7825.0,15.0,
42000,1857.2,22.5,358.0,68.4,1662.0,7825.0,15.0,
42100,1863.0,27.9,312.0,121.1,1662.0,7825.0,15.0,
42200,1864.3,27.5,278.0,121.1,1662.0,7825.0,15.0,
42300,1863.5,29.1,242.4,121.1,1662.0,7825.0,15.0,
42400,1863.2,31.3,195.5,121.1,1662.0,7825.0,15.0,
42500,1865.8,24.7,133.1,121.1,1662.0,7825.0,15.0,
42600,1839.5,333.7,56.1,121.1,2205.0,11947.0,16.0,
42700,1845.5,302.5,183.2,64.5,1752.0,9695.0,14.0,
42900,1847.6,377.5,271.7,64.5,1665.0,8681.0,14.0,
43000,1854.3,302.5,305.6,64.5,1665.0,8681.0,14.0,
43100,1841.4,306.5,333.8,64.5,1539.0,8182.0,14.0,
43200,1887.0,97.3,365.7,64.5,1681.0,8174.0,14.0,
43300,1852.7,32.6,365.8,64.5,1681.0,8174.0,14.0,
43400,1866.4,30.9,365.8,64.5,1681.0,8174.0,14.0,
43500,1862.1,27.6,365.8,64.5,1681.0,8174.0,14.0,
43600,1860.2,28.9,363.2,66.4,1681.0,8174.0,14.0,
43700,1861.7,28.0,318.5,119.1,1681.0,8174.0,14.0,
43900,1864.4,24.8,247.3,121.1,1681.0,8174.0,14.0,
44000,1860.0,27.1,203.8,121.1,1681.0,8174.0,14.0,
44100,1866.0,26.8,153.5,121.1,1681.0,8174.0,14.0,
44200,1852.9,380.5,46.9,121.1,2287.0,13021.0,16.0,
44300,1869.1,312.0,170.7,64.5,1756.0,7437.0,30.0,
44400,1867.3,294.2,232.6,62.5,1738.0,8569.0,14.0,
44500,1874.5,303.4,271.3,64.5,1738.0,8569.0,14.0,
44600,1866.3,357.0,300.1,64.5,1660.0,8244.0,14.0,
44700,1829.8,286.7,332.8,64.5,1553.0,7810.0,15.0,
44900,1877.0,34.4,362.8,64.5,1553.0,7810.0,15.0,
45000,1863.0,30.5,362.8,64.5,1553.0,7810.0,15.0,
45100,1864.7,28.2,362.8,64.5,1553.0,7810.0,15.0,
45200,1861.3,26.9,361.4,66.4,1553.0,7810.0,15.0,
45300,1862.1,25.2,321.9,121.1,1553.0,7810.0,15.0,
45400,1861.2,28.1,280.4,121.1,1553.0,7810.0,15.0,
45500,1863.9,28.6,243.2,121.1,1553.0,7810.0,15.0,
45600,1863.4,29.0,206.6,121.1,1553.0,7810.0,15.0,
45700,1861.5,27.7,148.2,121.1,1553.0,7810.0,15.0,
45900,1854.0,353.8,170.7,62.5,1950.0,9825.0,15.0,
46000,1823.9,291.3,227.5,60.5,1678.0,8423.0,15.0,
46100,1910.9,282.8,267.8,64.5,1678.0,8423.0,15.0,
46200,1858.0,336.1,300.2,64.5,1667.0,8160.0,14.0,
46300,1850.0,320.7,330.0,64.5,1667.0,8160.0,14.0,
46400,1849.6,128.2,354.3,64.5,1667.0,8160.0,14.0,
46500,1887.6,32.9,359.8,64.5,1667.0,8160.0,14.0,
46600,1860.9,25.5,359.8,64.5,1667.0,8160.0,14.0,
46700,1862.1,27.1,359.7,64.5,1667.0,8160.0,14.0,
46900,1860.2,27.2,318.5,121.1,1667.0,8160.0,14.0,
47000,1862.4,27.5,280.7,121.1,1667.0,8160.0,14.0,
47100,1864.9,27.7,242.6,121.1,1667.0,8160.0,14.0,
47200,1863.2,26.9,201.1,121.1,1667.0,8160.0,14.0,
47300,1863.4,28.0,147.1,121.1,1667.0,8160.0,14.0,
47400,1862.0,341.1,71.0,121.1,2150.0,12163.0,16.0,
47500,1856.5,398.9,171.1,64.5,1717.0,8864.0,14.0,
47600,1858.0,317.4,223.9,62.5,1717.0,8864.0,14.0,
47700,1823.8,301.2,263.6,64.5,1613.0,8091.0,14.0,
47900,1872.1,361.6,326.6,64.5,1613.0,8091.0,14.0,
48000,1828.3,147.4,356.1,64.5,1657.0,7958.0,15.0,
48100,1869.1,36.0,362.6,64.5,1657.0,7958.0,15.0,
48200,1864.3,28.2,362.6,64.5,1657.0,7958.0,15.0,
48300,1864.7,24.9,362.6,64.5,1657.0,7958.0,15.0,
48400,1863.4,25.4,362.6,66.4,1657.0,7958.0,15.0,
48500,1864.0,26.0,321.4,121.1,1657.0,7958.0,15.0,
48600,1865.5,31.2,287.2,121.1,1657.0,7958.0,15.0,
48700,1865.5,29.0,251.3,121.1,1657.0,7958.0,15.0,
48900,1863.4,28.5,161.1,121.1,1657.0,7958.0,15.0,
49000,1868.1,264.8,76.2,121.1,2327.0,12411.0,15.0,
49100,1873.5,332.4,170.1,66.4,1657.0,7341.0,30.0,
49200,1865.9,389.8,219.1,62.5,1639.0,8722.0,14.0,
49300,1825.8,302.5,264.7,64.5,1767.0,8516.0,15.0,
49400,1862.1,290.6,297.6,64.5,1767.0,8516.0,15.0,
49500,1893.7,315.5,330.5,64.5,1727.0,8006.0,15.0,
49600,1847.9,171.0,357.4,64.5,1609.0,8123.0,14.0,
49700,1856.9,34.3,364.8,64.5,1609.0,8123.0,14.0,
49900,1859.5,24.9,364.8,64.5,1609.0,8123.0,14.0,
50000,1863.9,28.9,364.8,64.5,1609.0,8123.0,14.0,
50100,1859.8,26.3,324.4,119.1,1609.0,8123.0,14.0,
50200,1863.5,29.1,293.6,121.1,1609.0,8123.0,14.0,
50300,1863.7,26.6,253.3,121.1,1609.0,8123.0,14.0,
50400,1864.6,30.0,213.7,121.1,1609.0,8123.0,14.0,
50500,1863.6,28.3,158.1,121.1,1609.0,8123.0,14.0,
50600,1865.1,264.5,80.7,121.1,1609.0,8123.0,14.0,
50700,1868.6,309.1,160.9,66.4,1993.0,10591.0,7.0,
50900,1858.1,354.9,258.9,62.5,1993.0,10591.0,7.0,
51000,1843.0,294.7,292.6,64.5,1568.0,8111.0,15.0,
51100,1858.5,273.8,327.5,64.5,1573.0,8411.0,14.0,
51200,1898.3,191.9,354.7,64.5,1573.0,8411.0,14.0,
51300,1854.4,34.8,361.4,64.5,1573.0,8411.0,14.0,
51400,1860.8,28.1,361.4,64.5,1573.0,8411.0,14.0,
51500,1862.2,27.5,361.4,64.5,1573.0,8411.0,14.0,
51600,1861.2,25.1,361.4,64.5,1573.0,8411.0,14.0,
51700,1864.0,31.1,325.4,119.1,1573.0,8411.0,14.0,
51900,1867.0,32.6,254.4,134.8,1573.0,8411.0,14.0,
52000,1864.4,29.2,215.0,130.9,1573.0,8411.0,14.0,
52100,1862.3,32.6,156.8,121.1,1573.0,8411.0,14.0,
52200,1862.8,293.8,77.6,121.1,1573.0,8411.0,14.0,
52300,1815.9,337.9,158.3,72.3,1861.0,9195.0,15.0,
52400,1903.6,287.5,221.9,62.5,1728.0,8641.0,15.0,
52500,1877.5,355.8,257.2,62.5,1767.0,8372.0,14.0,
52600,1831.7,335.7,294.8,64.5,1529.0,7973.0,14.0,
52700,1850.7,278.7,324.7,64.5,1691.0,8239.0,14.0,
52900,1856.2,36.9,363.1,64.5,1691.0,8239.0,14.0,
53000,1861.2,29.5,363.1,64.5,1691.0,8239.0,14.0,
53100,1864.9,28.4,363.1,64.5,1691.0,8239.0,14.0,
53200,1863.7,30.4,363.0,64.5,1691.0,8239.0,14.0,
53300,1861.3,28.1,328.6,119.1,1691.0,8239.0,14.0,
53400,1862.9,27.3,289.5,121.1,1691.0,8239.0,14.0,
53500,1860.8,27.0,258.6,121.1,1691.0,8239.0,14.0,
53600,1865.1,33.2,214.7,121.1,1691.0,8239.0,14.0,
53700,1863.3,28.8,166.1,121.1,1691.0,8239.0,14.0,
53900,1848.2,344.1,155.5,80.1,2207.0,8329.0,30.0,
54000,1840.1,298.2,215.6,62.5,1724.0,8991.0,15.0,
54100,1911.5,315.6,261.2,62.5,1775.0,8604.0,14.0,
54200,1854.8,357.4,295.1,64.5,1682.0,8408.0,14.0,
54300,1865.4,311.7,322.8,64.5,1682.0,8408.0,14.0,
54400,1819.0,257.7,352.2,64.5,1570.0,7488.0,14.0,
54500,1893.5,36.7,365.3,64.5,1570.0,7488.0,14.0,
54600,1864.2,24.8,365.3,64.5,1570.0,7488.0,14.0,
54700,1862.5,25.8,365.3,64.5,1570.0,7488.0,14.0,
54900,1863.0,26.3,332.2,119.1,1570.0,7488.0,14.0,
55000,1859.2,28.5,296.8,121.1,1570.0,7488.0,14.0,
55100,1862.6,29.6,257.6,121.1,1570.0,7488.0,14.0,
55200,1863.6,27.7,218.0,121.1,1570.0,7488.0,14.0,
55300,1862.9,30.2,174.4,121.1,1570.0,7488.0,14.0,
55400,1862.6,175.7,102.7,121.1,1570.0,7488.0,14.0,
55500,1867.4,395.6,147.2,87.9,1724.0,7135.0,30.0,
55600,1852.7,315.4,205.1,62.5,1724.0,7135.0,30.0,
55700,1839.9,286.1,255.2,64.5,1775.0,8018.0,14.0,
55900,1858.2,368.1,322.0,64.5,1586.0,7931.0,15.0,
56000,1832.5,295.6,352.3,64.5,1642.0,8353.0,15.0,
56100,1869.0,44.0,366.3,64.5,1642.0,8353.0,15.0,
56200,1863.9,27.7,366.3,64.5,1642.0,8353.0,15.0,
56300,1864.5,25.2,366.3,64.5,1642.0,8353.0,15.0,
56400,1856.3,29.1,366.2,64.5,1642.0,8353.0,15.0,
56500,1862.6,25.0,337.1,101.6,1642.0,8353.0,15.0,
56600,1866.4,30.8,305.4,121.1,1642.0,8353.0,15.0,
56700,1862.0,33.6,264.9,121.1,1642.0,8353.0,15.0,
56900,1864.6,28.7,177.9,121.1,1642.0,8353.0,15.0,
57000,1864.6,95.4,106.0,121.1,1642.0,8353.0,15.0,
57100,1897.4,369.9,146.2,89.8,2071.0,11334.0,7.0,
57200,1841.8,373.5,208.0,62.5,1666.0,8925.0,15.0,
57300,1839.2,293.2,253.6,62.5,1681.0,8722.0,15.0,
57400,1888.7,281.8,290.4,64.5,1681.0,8722.0,15.0,
57500,1868.9,303.0,323.2,64.5,1516.0,7771.0,15.0,
57600,1859.5,336.1,349.8,64.5,1692.0,8258.0,14.0,
57700,1864.0,47.0,363.7,64.5,1692.0,8258.0,14.0,
57900,1862.9,29.0,363.7,64.5,1692.0,8258.0,14.0,
58000,1862.5,28.3,363.7,64.5,1692.0,8258.0,14.0,
58100,1861.1,27.6,334.8,101.6,1692.0,8258.0,14.0,
58200,1861.0,27.8,300.3,121.1,1692.0,8258.0,14.0,
58300,1860.9,31.0,262.9,121.1,1692.0,8258.0,14.0,
58400,1862.0,28.2,221.6,121.1,1692.0,8258.0,14.0,
58500,1863.9,28.2,170.3,121.1,1692.0,8258.0,14.0,
58600,1865.1,48.9,105.5,121.1,1692.0,8258.0,14.0,
58700,1870.7,344.4,141.7,99.6,1968.0,9892.0,15.0,
58900,1859.8,334.8,253.5,62.5,1724.0,9015.0,14.0,
59000,1835.1,289.1,290.5,64.5,1594.0,8546.0,15.0,
59100,1884.5,281.4,326.7,64.5,1687.0,8175.0,14.0,
59200,1883.7,331.9,352.2,64.5,1687.0,8175.0,14.0,
59300,1844.5,48.6,367.9,64.5,1643.0,8056.0,15.0,
59400,1861.1,29.1,367.9,64.5,1643.0,8056.0,15.0,
59500,1862.8,27.4,367.9,64.5,1643.0,8056.0,15.0,
59600,1863.5,26.9,367.9,64.5,1643.0,8056.0,15.0,
59700,1858.5,33.3,341.3,95.7,1643.0,8056.0,15.0,
59900,1863.6,29.7,268.9,121.1,1643.0,8056.0,15.0,
60000,1864.5,29.6,228.4,121.1,1643.0,8056.0,15.0,
60100,1865.3,30.0,172.6,121.1,1643.0,8056.0,15.0,
60200,1863.4,28.8,111.9,121.1,1643.0,8056.0,15.0,
60300,1812.6,336.5,133.7,119.1,2240.0,8138.0,30.0,
60400,1905.9,331.8,213.0,62.5,1810.0,9538.0,14.0,medium
60500,1869.9,377.9,252.4,62.5,1810.0,9538.0,14.0,
60600,1835.5,322.2,291.0,64.5,1645.0,8689.0,14.0,
60700,1839.1,287.0,322.4,64.5,1645.0,8689.0,14.0,
60900,1843.2,51.7,369.2,64.5,1645.0,8689.0,14.0,
61000,1867.7,32.7,369.2,64.5,1645.0,8689.0,14.0,
61100,1864.6,28.0,369.2,64.5,1645.0,8689.0,14.0,
61200,1860.7,27.2,369.2,64.5,1645.0,8689.0,14.0,
61300,1858.5,29.0,345.9,95.7,1645.0,8689.0,14.0,
61400,1864.1,29.1,303.6,121.1,1645.0,8689.0,14.0,
61500,1857.9,26.8,271.7,121.1,1645.0,8689.0,14.0,
61600,1861.3,30.1,229.9,121.1,1645.0,8689.0,14.0,
61700,1859.1,27.5,183.3,121.1,1645.0,8689.0,14.0,
61900,1852.0,337.2,124.5,119.1,2048.0,8144.0,30.0,
62000,1866.6,301.6,202.6,62.5,2048.0,8144.0,30.0,
62100,1892.0,316.0,252.0,62.5,1644.0,8415.0,15.0,
62200,1841.4,362.7,288.0,64.5,1702.0,8110.0,14.0,
62300,1864.8,301.1,316.7,64.5,1702.0,8110.0,14.0,
62400,1827.0,282.4,347.8,64.5,1629.0,7797.0,14.0,
62500,1887.2,58.1,367.6,64.5,1574.0,7880.0,14.0,
62600,1861.3,31.8,367.6,64.5,1574.0,7880.0,14.0,
62700,1864.8,30.2,367.6,64.5,1574.0,7880.0,14.0,
62900,1861.6,25.0,347.7,72.3,1574.0,7880.0,14.0,
63000,1862.8,26.2,308.6,121.1,1574.0,7880.0,14.0,
63100,1856.5,31.8,269.8,121.1,1574.0,7880.0,14.0,
63200,1862.6,27.7,231.0,121.1,1574.0,7880.0,14.0,
63300,1862.1,26.5,189.8,121.1,1574.0,7880.0,14.0,
63400,1864.0,29.4,123.7,121.1,1574.0,7880.0,14.0,
63500,1871.8,386.9,114.5,119.1,1758.0,8807.0,30.0,
63600,1838.1,310.6,192.8,62.5,1678.0,8777.0,15.0,
63700,1870.5,277.7,248.9,62.5,1559.0,8754.0,14.0,
63900,1850.4,344.9,313.4,64.5,1651.0,7778.0,15.0,
64000,1843.9,284.7,343.1,64.5,1543.0,8379.0,14.0,
64100,1891.2,66.9,363.7,64.5,1543.0,8379.0,14.0,
64200,1862.0,31.5,363.7,64.5,1543.0,8379.0,14.0,
64300,1862.3,30.4,363.7,64.5,1543.0,8379.0,14.0,
64400,1863.0,24.1,363.8,64.5,1543.0,8379.0,14.0,
64500,1862.8,26.7,347.0,70.3,1543.0,8379.0,14.0,
64600,1860.9,25.7,310.3,121.1,1543.0,8379.0,14.0,
64700,1858.7,30.5,267.4,121.1,1543.0,8379.0,14.0,
64900,1862.3,25.5,187.6,121.1,1543.0,8379.0,14.0,
65000,1859.2,29.5,125.5,121.1,1543.0,8379.0,14.0,
65100,1882.3,420.9,106.7,119.1,1824.0,8839.0,30.0,
65200,1823.9,359.7,194.8,60.5,2020.0,7107.0,30.0,
65300,1837.0,292.3,244.9,62.5,1838.0,9443.0,15.0,
65400,1902.6,291.8,283.0,64.5,1613.0,8214.0,15.0,
65500,1852.7,339.6,315.8,64.5,1561.0,8102.0,15.0,
65600,1855.9,341.4,343.0,64.5,1627.0,8236.0,14.0,
65700,1866.1,65.5,366.7,64.5,1688.0,8193.0,14.0,
65900,1868.1,27.2,366.6,64.5,1688.0,8193.0,14.0,
66000,1863.2,26.9,366.6,64.5,1688.0,8193.0,14.0,
66100,1863.0,29.9,352.5,68.4,1688.0,8193.0,14.0,
66200,1865.9,27.0,312.5,121.1,1688.0,8193.0,14.0,
66300,1864.3,28.1,275.0,121.1,1688.0,8193.0,14.0,
66400,1862.0,28.6,235.5,121.1,1688.0,8193.0,14.0,
66500,1863.3,32.5,189.4,121.1,1688.0,8193.0,14.0,
66600,1865.5,29.9,133.9,121.1,1688.0,8193.0,14.0,
66700,1874.9,371.5,113.2,119.1,2298.0,12443.0,16.0,
66900,1863.8,319.0,242.2,62.5,2298.0,12443.0,16.0,
67000,1824.5,303.9,282.9,64.5,1652.0,8261.0,14.0,
67100,1905.3,281.8,318.1,64.5,1652.0,8261.0,14.0,
67200,1868.4,366.7,341.5,64.5,1638.0,8132.0,15.0,
67300,1841.1,72.7,368.0,64.5,1584.0,7834.0,14.0,
67400,1854.0,32.7,368.0,64.5,1584.0,7834.0,14.0,
67500,1863.8,25.4,368.0,64.5,1584.0,7834.0,14.0,
67600,1860.2,28.0,368.0,64.5,1584.0,7834.0,14.0,
67700,1862.4,27.0,351.7,70.3,1584.0,7834.0,14.0,
67900,1863.1,32.3,279.1,121.1,1584.0,7834.0,14.0,
68000,1866.5,22.6,237.7,121.1,1584.0,7834.0,14.0,
68100,1861.0,27.3,188.1,121.1,1584.0,7834.0,14.0,
68200,1860.8,25.6,141.3,121.1,1584.0,7834.0,14.0,
68300,1822.4,319.5,84.2,121.1,2252.0,12052.0,16.0,
68400,1928.8,337.9,194.0,62.5,1676.0,7289.0,30.0,
68500,1850.4,378.7,241.2,62.5,1763.0,8822.0,14.0,
68600,1839.3,299.4,282.0,64.5,1590.0,8593.0,15.0,
68700,1860.2,290.2,313.4,64.5,1705.0,8043.0,15.0,
68900,1860.4,83.0,370.9,64.5,1459.0,8027.0,14.0,
69000,1856.1,31.5,371.0,64.5,1459.0,8027.0,14.0,
69100,1862.0,24.9,371.0,64.5,1459.0,8027.0,14.0,
69200,1861.3,28.7,371.0,64.5,1459.0,8027.0,14.0,
69300,1858.0,27.8,362.9,66.4,1459.0,8027.0,14.0,
69400,1860.1,27.6,318.1,121.1,1459.0,8027.0,14.0,
69500,1860.8,31.6,283.9,121.1,1459.0,8027.0,14.0,
69600,1858.2,25.9,243.6,121.1,1459.0,8027.0,14.0,
69700,1860.3,27.1,201.5,121.1,1459.0,8027.0,14.0,
69900,1830.4,320.0,61.8,121.1,2036.0,8990.0,30.0,
70000,1891.1,322.0,187.1,62.5,1819.0,9582.0,15.0,
70100,1860.0,337.6,239.3,62.5,1683.0,8452.0,14.0,
70200,1859.8,363.4,275.2,64.5,1686.0,8698.0,15.0,
70300,1833.8,281.5,310.5,64.5,1697.0,8093.0,14.0,
70400,1878.1,264.5,340.3,64.5,1596.0,7852.0,14.0,
70500,1882.8,90.9,365.5,64.5,1612.0,7881.0,15.0,
70600,1852.6,30.4,365.6,64.5,1612.0,7881.0,15.0,
70700,1863.2,30.9,365.6,64.5,1612.0,7881.0,15.0,
70900,1860.7,26.2,362.0,66.4,1612.0,7881.0,15.0,
71000,1861.8,25.1,315.9,121.1,1612.0,7881.0,15.0,
71100,1859.2,28.1,278.4,121.1,1612.0,7881.0,15.0,
71200,1865.2,28.6,243.0,121.1,1612.0,7881.0,15.0,
71300,1862.8,24.9,196.0,121.1,1612.0,7881.0,15.0,
71400,1865.4,29.7,137.8,121.1,1612.0,7881.0,15.0,
71500,1850.3,373.7,54.0,121.1,2384.0,12642.0,16.0,
71600,1828.9,318.9,188.7,64.5,1877.0,9649.0,14.0,
71700,1931.1,313.8,241.7,62.5,1749.0,8673.0,14.0,
71900,1854.3,316.1,312.4,64.5,1604.0,7981.0,14.0,
72000,1843.0,276.8,340.4,64.5,1534.0,7965.0,14.0,
72100,1886.3,105.0,371.4,64.5,1568.0,7780.0,14.0,
72200,1859.6,32.4,372.0,64.5,1568.0,7780.0,14.0,
72300,1863.0,26.8,371.9,64.5,1568.0,7780.0,14.0,
72400,1867.1,24.4,371.9,64.5,1568.0,7780.0,14.0,
72500,1860.3,24.0,369.5,66.4,1568.0,7780.0,14.0,
72600,1862.5,24.5,322.2,121.1,1568.0,7780.0,14.0,
72700,1863.7,25.2,284.5,121.1,1568.0,7780.0,14.0,
72900,1861.1,21.6,204.4,125.0,1568.0,7780.0,14.0,
73000,1861.9,28.6,153.1,148.4,1568.0,7780.0,14.0,
73100,1861.9,434.2,37.2,152.3,2102.0,9858.0,30.0,
73200,1873.0,344.6,176.4,64.5,1804.0,7396.0,30.0,
73300,1821.3,302.5,238.4,62.5,1733.0,8669.0,15.0,
73400,1911.5,311.2,282.4,64.5,1684.0,8953.0,14.0,
73500,1856.9,373.3,311.9,64.5,1682.0,8084.0,15.0,
73600,1835.0,306.6,343.5,64.5,1701.0,8526.0,14.0,
73700,1844.9,117.5,368.8,64.5,1701.0,8526.0,14.0,
73900,1861.2,31.9,373.4,64.5,1701.0,8526.0,14.0,
74000,1859.0,27.2,373.4,64.5,1701.0,8526.0,14.0,
74100,1860.4,25.0,373.4,64.5,1701.0,8526.0,14.0,
74200,1859.8,29.1,330.7,121.1,1701.0,8526.0,14.0,
74300,1857.8,22.5,289.2,121.1,1701.0,8526.0,14.0,
74400,1863.2,26.4,246.3,142.6,1701.0,8526.0,14.0,
74500,1865.7,28.3,207.7,144.5,1701.0,8526.0,14.0,
74600,1865.1,23.7,149.8,128.9,1701.0,8526.0,14.0,
74700,1861.9,355.8,66.6,121.1,1701.0,8526.0,14.0,
74900,1841.6,310.7,239.5,62.5,1905.0,9600.0,14.0,
75000,1865.4,306.7,280.4,64.5,1703.0,8668.0,14.0,
75100,1877.5,304.7,319.2,64.5,1751.0,8501.0,15.0,
75200,1869.6,366.7,345.3,64.5,1751.0,8501.0,15.0,
75300,1839.8,143.5,373.3,64.5,1617.0,8187.0,15.0,
75400,1868.0,31.7,379.6,64.5,1617.0,8187.0,15.0,
75500,1860.5,25.3,379.6,64.5,1617.0,8187.0,15.0,
75600,1863.3,29.1,379.5,64.5,1617.0,8187.0,15.0,
75700,1859.6,24.9,379.6,66.4,1617.0,8187.0,15.0,
75900,1861.6,25.4,296.3,121.1,1617.0,8187.0,15.0,
76000,1863.6,25.4,258.0,144.5,1617.0,8187.0,15.0,
76100,1868.3,30.4,208.0,146.5,1617.0,8187.0,15.0,
76200,1859.1,24.3,160.9,121.1,1617.0,8187.0,15.0,
76300,1860.3,300.9,76.2,121.1,2364.0,12949.0,16.0,
76400,1868.2,392.8,179.6,66.4,1921.0,9560.0,14.0,
76500,1851.0,367.1,234.1,62.5,1653.0,7293.0,30.0,
76600,1832.7,291.8,277.8,64.5,1678.0,8605.0,15.0,
76700,1895.5,272.5,316.2,64.5,1751.0,8597.0,14.0,
76900,1843.8,159.7,371.5,64.5,1589.0,7929.0,15.0,
77000,1860.4,34.0,379.3,64.5,1589.0,7929.0,15.0,
77100,1862.6,25.3,379.3,64.5,1589.0,7929.0,15.0,
77200,1858.6,24.3,379.2,64.5,1589.0,7929.0,15.0,
77300,1860.4,28.2,379.3,64.5,1589.0,7929.0,15.0,
77400,1860.6,22.6,335.6,121.1,1589.0,7929.0,15.0,
77500,1859.5,25.9,300.1,121.1,1589.0,7929.0,15.0,
77600,1863.0,27.4,260.2,121.1,1589.0,7929.0,15.0,
77700,1863.5,26.2,211.8,121.1,1589.0,7929.0,15.0,
77900,1864.7,268.2,82.8,121.1,1589.0,7929.0,15.0,
78000,1890.9,368.0,174.1,64.5,1872.0,8450.0,30.0,
78100,1843.0,395.0,231.5,62.5,1856.0,8840.0,14.0,
78200,1855.2,327.9,275.4,62.5,1856.0,8840.0,14.0,
78300,1830.2,317.3,309.1,64.5,1618.0,8539.0,14.0,
78400,1893.4,284.0,344.6,64.5,1734.0,8691.0,14.0,
78500,1877.0,178.7,368.7,64.5,1734.0,8691.0,14.0,
78600,1852.5,35.2,376.2,64.5,1734.0,8691.0,14.0,
78700,1862.7,30.5,376.2,64.5,1734.0,8691.0,14.0,
78900,1864.3,28.9,376.2,64.5,1734.0,8691.0,14.0,
79000,1863.1,25.0,335.1,121.1,1734.0,8691.0,14.0,
79100,1862.1,28.8,298.3,121.1,1734.0,8691.0,14.0,
79200,1867.0,28.3,258.5,121.1,1734.0,8691.0,14.0,
79300,1860.6,27.1,217.0,121.1,1734.0,8691.0,14.0,
79400,1862.9,27.3,154.6,121.1,1734.0,8691.0,14.0,
79500,1867.6,273.2,81.8,121.1,1734.0,8691.0,14.0,
79600,1823.3,322.3,170.2,68.4,1795.0,9185.0,15.0,
79700,1907.9,331.8,235.3,62.5,1891.0,9685.0,14.0,
79900,1833.1,309.6,309.9,64.5,1797.0,8496.0,14.0,
80000,1847.2,289.8,340.9,64.5,1797.0,8496.0,14.0,
80100,1898.7,222.9,370.0,64.5,1710.0,8287.0,14.0,
80200,1847.3,35.0,379.6,64.5,1710.0,8287.0,14.0,
80300,1861.3,28.3,379.6,64.5,1710.0,8287.0,14.0,
80400,1861.4,25.1,379.6,64.5,1710.0,8287.0,14.0,
80500,1856.9,26.2,379.6,66.4,1710.0,8287.0,14.0,
80600,1860.0,26.4,340.9,119.1,1710.0,8287.0,14.0,
80700,1863.7,23.5,299.8,123.0,1710.0,8287.0,14.0,
80900,1862.8,27.1,221.5,121.1,1710.0,8287.0,14.0,
81000,1861.1,28.2,169.9,121.1,1710.0,8287.0,14.0,
81100,1867.4,330.7,90.5,121.1,1710.0,8287.0,14.0,
81200,1845.0,331.6,158.8,68.4,1774.0,7801.0,30.0,
81300,1882.6,309.8,224.1,62.5,1830.0,9092.0,14.0,
81400,1872.6,320.1,272.4,64.5,1782.0,8531.0,15.0,
81500,1859.0,357.6,305.7,64.5,1717.0,8829.0,14.0,
81600,1843.5,302.1,335.8,64.5,1766.0,8757.0,14.0,
81700,1843.2,247.2,368.1,64.5,1715.0,8301.0,14.0,
81900,1862.5,28.3,378.8,64.5,1715.0,8301.0,14.0,
82000,1866.3,24.6,378.8,64.5,1715.0,8301.0,14.0,
82100,1855.7,27.8,378.8,64.5,1715.0,8301.0,14.0,
82200,1864.6,24.2,345.3,119.1,1715.0,8301.0,14.0,
82300,1866.8,29.5,306.9,121.1,1715.0,8301.0,14.0,
82400,1863.3,25.6,265.1,121.1,1715.0,8301.0,14.0,
82500,1862.7,26.0,225.9,121.1,1715.0,8301.0,14.0,
82600,1862.3,24.8,177.9,121.1,1715.0,8301.0,14.0,
82700,1863.3,261.9,94.6,121.1,1715.0,8301.0,14.0,
82900,1818.8,311.3,222.5,62.5,1778.0,9282.0,15.0,
83000,1903.9,290.7,271.9,62.5,1749.0,8921.0,14.0,
83100,1869.3,353.0,304.2,64.5,1581.0,7959.0,14.0,
83200,1836.3,338.6,337.8,64.5,1685.0,8189.0,14.0,
83300,1863.9,278.7,363.6,64.5,1685.0,8189.0,14.0,
83400,1876.1,40.8,376.7,64.5,1685.0,8189.0,14.0,
83500,1862.8,26.8,376.7,64.5,1685.0,8189.0,14.0,
83600,1863.0,25.3,376.7,64.5,1685.0,8189.0,14.0,
83700,1862.3,26.8,376.7,64.5,1685.0,8189.0,14.0,
83900,1861.7,28.3,305.6,121.1,1685.0,8189.0,14.0,
84000,1867.0,29.1,262.7,123.0,1685.0,8189.0,14.0,
84100,1863.1,29.1,224.7,121.1,1685.0,8189.0,14.0,
84200,1861.9,27.8,170.0,121.1,1685.0,8189.0,14.0,
84300,1862.7,169.3,104.0,121.1,1685.0,8189.0,14.0,
84400,1872.4,431.9,148.3,84.0,1958.0,10156.0,15.0,
84500,1833.0,348.6,218.5,60.5,1895.0,7609.0,30.0,
84600,1846.7,320.0,262.4,62.5,1737.0,8285.0,15.0,
84700,1901.2,301.8,303.3,64.5,1651.0,7935.0,14.0,
84900,1851.4,331.6,359.6,64.5,1631.0,8178.0,15.0,
85000,1865.6,40.2,375.5,64.5,1631.0,8178.0,15.0,
85100,1864.0,26.4,375.5,64.5,1631.0,8178.0,15.0,
85200,1865.5,28.6,375.5,64.5,1631.0,8178.0,15.0,
85300,1860.4,24.3,375.4,64.5,1631.0,8178.0,15.0,
85400,1862.0,24.3,346.5,97.7,1631.0,8178.0,15.0,
85500,1860.2,26.0,307.1,121.1,1631.0,8178.0,15.0,
85600,1866.2,27.3,270.6,121.1,1631.0,8178.0,15.0,
85700,1859.9,27.0,223.9,121.1,1631.0,8178.0,15.0,
85900,1860.5,69.3,113.0,121.1,1631.0,8178.0,15.0,
86000,1875.8,362.0,154.4,91.8,1924.0,7852.0,30.0,
86100,1864.8,395.1,215.8,62.5,1758.0,9563.0,14.0,
86200,1840.6,316.0,262.6,62.5,1735.0,9047.0,15.0,
86300,1837.3,270.3,301.1,64.5,1747.0,8659.0,14.0,
86400,1912.2,320.3,332.8,64.5,1725.0,8470.0,14.0,
86500,1849.6,375.5,361.1,64.5,1681.0,7987.0,14.0,
86600,1847.4,43.6,379.3,64.5,1659.0,7940.0,14.0,
86700,1860.3,26.6,379.3,64.5,1659.0,7940.0,14.0,
86900,1860.9,31.1,379.3,64.5,1659.0,7940.0,14.0,
87000,1863.0,25.6,348.0,97.7,1659.0,7940.0,14.0,
87100,1865.9,29.8,313.6,121.1,1659.0,7940.0,14.0,
87200,1863.0,30.7,275.7,121.1,1659.0,7940.0,14.0,
87300,1864.0,27.8,233.1,121.1,1659.0,7940.0,14.0,
87400,1860.5,30.6,185.2,121.1,1659.0,7940.0,14.0,
87500,1866.4,29.6,121.0,121.1,1659.0,7940.0,14.0,
87600,1871.5,319.7,144.8,119.1,1812.0,7429.0,30.0,
87700,1886.1,359.6,213.9,64.5,1813.0,9024.0,14.0,
87900,1859.1,295.9,297.1,64.5,1813.0,9024.0,14.0,
88000,1846.5,278.6,333.7,64.5,1633.0,7974.0,15.0,
88100,1885.8,291.7,362.9,64.5,1687.0,8619.0,14.0,
88200,1867.0,51.4,378.2,64.5,1687.0,8619.0,14.0,
88300,1865.3,26.2,378.2,64.5,1687.0,8619.0,14.0,
88400,1862.8,28.5,378.1,64.5,1687.0,8619.0,14.0,
88500,1861.9,25.5,378.1,64.5,1687.0,8619.0,14.0,
88600,1861.5,29.6,350.9,85.9,1687.0,8619.0,14.0,
88700,1861.7,27.5,313.7,121.1,1687.0,8619.0,14.0,
88900,1862.7,24.6,236.3,128.9,1687.0,8619.0,14.0,
89000,1861.2,28.5,181.0,128.9,1687.0,8619.0,14.0,
89100,1862.5,28.9,111.5,121.1,1687.0,8619.0,14.0,
89200,1822.8,367.7,128.4,119.1,1898.0,9999.0,15.0,
89300,1901.2,325.8,216.7,60.5,1823.0,9331.0,14.0,
89400,1867.7,367.3,263.2,62.5,1823.0,9331.0,14.0,
89500,1843.9,347.2,298.9,64.5,1808.0,8195.0,15.0,
89600,1834.5,287.8,332.6,64.5,1678.0,8557.0,14.0,
89700,1895.7,280.9,362.9,64.5,1678.0,8557.0,14.0,
89900,1861.7,27.6,380.4,64.5,1678.0,8557.0,14.0,
90000,1865.6,25.7,380.3,64.5,1678.0,8557.0,14.0,
90100,1857.2,22.1,380.3,64.5,1678.0,8557.0,14.0,
90200,1857.7,25.5,359.5,74.2,1678.0,8557.0,14.0,
90300,1859.6,24.0,314.3,132.8,1678.0,8557.0,14.0,
90400,1864.8,24.6,276.4,121.1,1678.0,8557.0,14.0,
90500,1863.3,25.7,237.3,121.1,1678.0,8557.0,14.0,
90600,1861.4,27.3,187.2,121.1,1678.0,8557.0,14.0,
90700,1866.2,23.4,118.2,121.1,1678.0,8557.0,14.0,
90900,1831.4,320.5,209.0,62.5,1858.0,7315.0,30.0,
91000,1921.8,344.4,260.8,62.5,1772.0,9093.0,14.0,
91100,1842.8,383.2,299.7,64.5,1606.0,8338.0,14.0,
91200,1855.9,330.6,330.6,64.5,1760.0,8506.0,14.0,
91300,1824.0,311.4,361.4,64.5,1626.0,8083.0,14.0,
91400,1891.6,54.9,383.7,64.5,1626.0,8083.0,14.0,
91500,1867.2,24.9,383.7,64.5,1626.0,8083.0,14.0,
91600,1864.2,27.7,383.7,64.5,1626.0,8083.0,14.0,
91700,1861.2,26.6,383.7,64.5,1626.0,8083.0,14.0,
91900,1861.5,28.0,323.2,121.1,1626.0,8083.0,14.0,
92000,1860.7,26.7,283.2,121.1,1626.0,8083.0,14.0,
92100,1861.6,23.4,241.5,121.1,1626.0,8083.0,14.0,
92200,1865.0,25.6,197.2,121.1,1626.0,8083.0,14.0,
92300,1862.7,28.1,132.2,121.1,1626.0,8083.0,14.0,
92400,1885.6,425.1,114.0,119.1,1937.0,9172.0,30.0,
92500,1841.9,339.6,200.2,62.5,1835.0,9518.0,15.0,
92600,1835.1,296.8,256.7,62.5,1776.0,8870.0,14.0,
92700,1914.0,319.8,296.3,64.5,1776.0,8870.0,14.0,
92900,1848.5,306.1,357.5,64.5,1720.0,8105.0,14.0,
93000,1883.6,59.7,379.5,64.5,1720.0,8105.0,14.0,
93100,1864.4,28.8,379.6,64.5,1720.0,8105.0,14.0,
93200,1864.8,22.9,379.6,64.5,1720.0,8105.0,14.0,
93300,1861.0,27.2,379.6,64.5,1720.0,8105.0,14.0,
93400,1864.2,28.9,363.4,66.4,1720.0,8105.0,14.0,
93500,1861.9,24.5,324.0,121.1,1720.0,8105.0,14.0,
93600,1863.1,22.3,281.3,121.1,1720.0,8105.0,14.0,
93700,1863.0,25.1,239.2,121.1,1720.0,8105.0,14.0,
93900,1859.8,33.0,131.4,121.1,1720.0,8105.0,14.0,
94000,1881.0,405.1,114.8,119.1,2619.0,11694.0,7.0,
94100,1827.1,388.1,208.3,60.5,2251.0,7657.0,30.0,
94200,1861.7,306.5,256.4,62.5,1830.0,7589.0,30.0,
94300,1870.9,289.5,300.7,64.5,1711.0,8308.0,14.0,
94400,1867.7,316.8,333.6,64.5,1701.0,8975.0,14.0,
94500,1873.1,350.5,358.9,64.5,1701.0,8975.0,14.0,
94600,1848.4,73.4,384.4,64.5,1673.0,8033.0,15.0,
94700,1860.9,30.7,384.4,64.5,1673.0,8033.0,15.0,
94900,1861.2,25.2,384.5,64.5,1673.0,8033.0,15.0,
95000,1861.8,25.5,368.3,74.2,1673.0,8033.0,15.0,
95100,1860.2,25.8,324.7,121.1,1673.0,8033.0,15.0,
95200,1861.6,24.3,288.2,121.1,1673.0,8033.0,15.0,
95300,1859.9,29.6,241.7,121.1,1673.0,8033.0,15.0,
95400,1863.9,29.2,193.8,121.1,1673.0,8033.0,15.0,
95500,1865.9,31.7,141.4,121.1,1673.0,8033.0,15.0,
95600,1864.2,352.0,112.3,121.1,2275.0,12137.0,16.0,
95700,1883.0,409.2,196.8,64.5,1694.0,7090.0,30.0,
95900,1828.3,285.5,291.2,64.5,1827.0,8889.0,14.0,
96000,1914.9,290.8,325.7,64.5,1693.0,8005.0,14.0,
96100,1855.7,341.2,356.7,64.5,1739.0,8297.0,15.0,
96200,1858.8,78.7,382.0,64.5,1575.0,7791.0,14.0,
96300,1857.5,36.5,382.1,64.5,1575.0,7791.0,14.0,
96400,1862.7,27.2,382.1,64.5,1575.0,7791.0,14.0,
96500,1863.7,28.9,382.1,64.5,1575.0,7791.0,14.0,
96600,1863.0,28.1,366.8,68.4,1575.0,7791.0,14.0,
96700,1864.8,28.5,329.2,121.1,1575.0,7791.0,14.0,
96900,1863.5,31.7,249.7,121.1,1575.0,7791.0,14.0,
97000,1859.2,29.1,202.8,121.1,1575.0,7791.0,14.0,
97100,1859.3,29.8,141.2,121.1,1575.0,7791.0,14.0,
97200,1820.1,327.9,73.0,121.1,1796.0,8273.0,30.0,
97300,1935.4,373.2,194.4,62.5,1862.0,9559.0,15.0,
97400,1844.0,399.7,251.5,62.5,2232.0,7684.0,30.0,
97500,1861.4,331.2,289.2,64.5,2232.0,7684.0,30.0,
97600,1821.2,311.2,326.8,64.5,1696.0,8171.0,14.0,
97700,1906.5,286.6,359.7,64.5,1703.0,8566.0,14.0,
97900,1856.0,35.7,382.6,64.5,1703.0,8566.0,14.0,
98000,1862.1,32.3,382.7,64.5,1703.0,8566.0,14.0,
98100,1860.4,30.8,382.7,64.5,1703.0,8566.0,14.0,
98200,1864.0,28.5,377.3,66.4,1703.0,8566.0,14.0,
98300,1859.5,24.2,331.5,121.1,1703.0,8566.0,14.0,
98400,1861.8,29.4,290.5,121.1,1703.0,8566.0,14.0,
98500,1866.0,29.8,253.0,121.1,1703.0,8566.0,14.0,
98600,1864.3,28.5,202.1,121.1,1703.0,8566.0,14.0,
98700,1865.9,26.7,135.0,121.1,1703.0,8566.0,14.0,
98900,1863.5,316.7,198.2,62.5,2104.0,7536.0,30.0,
99000,1907.7,338.6,252.8,62.5,1705.0,7422.0,30.0,
99100,1855.8,390.8,291.3,64.5,1718.0,8755.0,15.0,
99200,1843.7,309.8,328.5,64.5,1806.0,8526.0,14.0,
99300,1855.3,307.1,357.3,64.5,1625.0,8426.0,15.0,
99400,1883.5,93.8,387.0,64.5,1620.0,7749.0,14.0,
99500,1850.6,33.4,387.1,64.5,1620.0,7749.0,14.0,
99600,1863.5,31.3,387.1,64.5,1620.0,7749.0,14.0,
99700,1864.7,28.3,387.1,66.4,1620.0,7749.0,14.0,
99900,1861.4,28.0,334.4,121.1,1620.0,7749.0,14.0,
100000,1863.6,29.4,295.2,121.1,1620.0,7749.0,14.0,
100100,1864.4,32.6,257.3,121.1,1620.0,7749.0,14.0,
100200,1863.4,26.6,207.8,121.1,1620.0,7749.0,14.0,
100300,1864.0,31.0,152.9,121.1,1620.0,7749.0,14.0,
100400,1848.2,393.0,55.1,121.1,2385.0,12650.0,16.0,
100500,1857.4,322.2,189.1,66.4,1923.0,7368.0,30.0,
100600,1893.8,305.8,250.0,64.5,1913.0,8876.0,14.0,
100700,1862.8,354.3,292.6,64.5,1719.0,8707.0,14.0,
100900,1836.9,299.1,355.6,64.5,1650.0,8216.0,14.0,
101000,1866.2,112.8,385.8,64.5,1755.0,8165.0,14.0,
101100,1875.5,33.3,387.6,64.5,1755.0,8165.0,14.0,
101200,1864.7,31.6,387.6,64.5,1755.0,8165.0,14.0,
101300,1860.3,32.1,387.6,64.5,1755.0,8165.0,14.0,
101400,1859.3,26.4,385.4,66.4,1755.0,8165.0,14.0,
101500,1862.0,34.4,340.2,121.1,1755.0,8165.0,14.0,
101600,1863.3,25.1,298.3,121.1,1755.0,8165.0,14.0,
101700,1854.7,29.3,256.6,121.1,1755.0,8165.0,14.0,
101900,1863.1,32.2,158.2,121.1,1755.0,8165.0,14.0,
102000,1860.7,417.0,51.6,121.1,2300.0,11418.0,6.0,
102100,1866.0,371.5,181.6,62.5,2208.0,8368.0,30.0,
102200,1815.8,336.1,246.3,62.5,1757.0,9309.0,14.0,
102300,1925.9,305.2,290.6,62.5,1757.0,9309.0,14.0,
102400,1856.9,376.0,322.8,64.5,2048.0,6838.0,30.0,
102500,1841.9,323.0,354.6,64.5,1565.0,8414.0,15.0,
102600,1852.0,131.9,379.4,64.5,1565.0,8414.0,15.0,
102700,1891.4,36.5,384.3,64.5,1565.0,8414.0,15.0,
102900,1860.2,28.3,384.3,64.5,1565.0,8414.0,15.0,
103000,1864.6,27.9,384.3,64.5,1565.0,8414.0,15.0,
103100,1859.6,27.0,340.5,121.1,1565.0,8414.0,15.0,
103200,1863.7,30.0,297.1,121.1,1565.0,8414.0,15.0,
103300,1868.1,30.2,254.0,121.1,1565.0,8414.0,15.0,
103400,1863.0,28.0,211.5,121.1,1565.0,8414.0,15.0,
103500,1860.8,30.2,152.2,121.1,1565.0,8414.0,15.0,
103600,1862.8,345.1,70.5,121.1,2324.0,12046.0,16.0,
103700,1864.4,421.9,184.6,66.4,1842.0,9149.0,14.0,
103900,1827.9,312.2,285.0,64.5,1874.0,8675.0,15.0,
104000,1893.9,311.1,324.2,64.5,1685.0,8421.0,14.0,
104100,1876.3,385.0,350.8,64.5,1664.0,7066.0,30.0,
104200,1832.1,150.1,380.5,64.5,1751.0,7893.0,14.0,
104300,1871.0,35.3,386.9,64.5,1751.0,7893.0,14.0,
104400,1860.8,30.4,386.9,64.5,1751.0,7893.0,14.0,
104500,1861.1,30.6,386.9,64.5,1751.0,7893.0,14.0,
104600,1861.9,26.2,386.9,68.4,1751.0,7893.0,14.0,
104700,1859.8,28.8,341.8,121.1,1751.0,7893.0,14.0,
104900,1860.3,30.2,264.0,121.1,1751.0,7893.0,14.0,
105000,1860.2,25.3,214.1,121.1,1751.0,7893.0,14.0,
105100,1862.6,31.3,166.8,121.1,1751.0,7893.0,14.0,
105200,1862.4,272.8,78.0,121.1,2283.0,12465.0,16.0,
105300,1883.7,373.2,180.6,64.5,1788.0,8245.0,30.0,
105400,1850.6,390.9,236.8,62.5,2221.0,7166.0,30.0,
105500,1834.2,314.0,283.7,64.5,1843.0,7400.0,30.0,
105600,1870.0,302.8,320.5,64.5,1843.0,7400.0,30.0,hard
105700,1882.7,304.5,354.3,64.5,1628.0,8110.0,14.0,
105900,1864.1,35.5,387.6,64.5,1628.0,8110.0,14.0,
106000,1865.3,32.3,387.6,64.5,1628.0,8110.0,14.0,
106100,1861.7,32.3,387.6,64.5,1628.0,8110.0,14.0,
106200,1864.3,25.0,387.7,66.4,1628.0,8110.0,14.0,
106300,1861.5,25.6,344.7,121.1,1628.0,8110.0,14.0,
106400,1861.2,25.0,308.7,121.1,1628.0,8110.0,14.0,
106500,1860.7,28.1,266.2,121.1,1628.0,8110.0,14.0,
106600,1857.5,27.9,220.5,121.1,1628.0,8110.0,14.0,
106700,1864.4,25.7,160.7,121.1,1628.0,8110.0,14.0,
106900,1869.2,347.2,180.2,64.5,2011.0,10410.0,15.0,
107000,1853.6,396.1,241.1,60.5,1828.0,7564.0,30.0,
107100,1862.5,358.7,282.0,64.5,1828.0,7564.0,30.0,
107200,1833.8,286.4,318.5,64.5,1716.0,8230.0,14.0,
107300,1894.1,269.1,352.7,64.5,1763.0,9217.0,14.0,
107400,1874.6,195.1,377.6,64.5,1696.0,8114.0,15.0,
107500,1850.3,37.2,386.5,64.5,1696.0,8114.0,15.0,
107600,1864.1,26.4,386.5,64.5,1696.0,8114.0,15.0,
107700,1860.7,27.6,386.5,64.5,1696.0,8114.0,15.0,
107900,1859.2,27.0,343.6,119.1,1696.0,8114.0,15.0,
108000,1862.7,26.5,303.9,121.1,1696.0,8114.0,15.0,
108100,1863.2,28.3,266.3,121.1,1696.0,8114.0,15.0,
108200,1863.8,25.2,221.3,121.1,1696.0,8114.0,15.0,
