Time(ms),ENV_Value,Marker
0,7.2,
100,4.8,
200,4.8,
300,4.4,
400,4.5,
500,4.6,
600,3.7,
700,3.7,
800,3.7,
900,145.9,
1000,137.0,
1100,100.0,
1200,85.6,
1300,123.6,
1400,105.5,
1500,39.0,
1600,8.9,
1700,5.1,
1800,3.6,
1900,3.2,
2000,3.9,
2100,3.2,
2200,2.3,
2300,2.8,
2400,3.0,
2500,97.5,
2600,162.4,
2700,133.1,
2800,100.4,
2900,70.7,
3000,112.4,
3100,50.1,
3200,7.6,
3300,5.4,
3400,3.4,
3500,3.9,
3600,5.1,
3700,2.5,
3800,3.8,
3900,2.4,
4000,3.1,
4100,84.1,
4200,97.0,
4300,138.1,
4400,113.6,
4500,91.6,
4600,77.8,
4700,68.7,
4800,7.8,
4900,6.2,
5000,4.8,
5100,4.0,
5200,4.1,
5300,3.9,
5400,4.0,
5500,4.3,
5600,3.7,
5700,87.2,
5800,129.0,
5900,100.9,
6000,92.0,
6100,124.5,
6200,111.0,
6300,97.8,
6400,9.2,
6500,7.8,
6600,5.0,
6700,3.8,
6800,3.4,
6900,4.1,
7000,3.3,
7100,3.0,
7200,3.3,
7300,39.6,
7400,165.2,
7500,125.9,
7600,95.4,
7700,79.5,
7800,129.5,
7900,120.3,
8000,9.5,
8100,6.6,
8200,7.6,
8300,4.2,
8400,6.8,
8500,4.2,
8600,3.6,
8700,6.4,
8800,3.5,
8900,3.4,
9000,113.4,
9100,144.0,
9200,133.5,
9300,99.1,
9400,80.2,
9500,114.6,
9600,13.8,
9700,10.0,
9800,5.6,
9900,3.6,
10000,4.6,
10100,4.1,
10200,4.7,
10300,2.8,
10400,13.2,
10500,4.6,
10600,121.8,
10700,99.0,
10800,131.4,
10900,156.4,
11000,118.9,
11100,84.8,
11200,13.0,
11300,6.7,
11400,4.6,
11500,3.6,
11600,4.4,
11700,8.3,
11800,3.5,
11900,3.4,
12000,2.7,
12100,2.4,
12200,149.0,
12300,122.8,
12400,100.7,
12500,123.9,
12600,155.2,
12700,125.8,
12800,17.9,
12900,7.3,
13000,4.5,
13100,4.9,
13200,3.3,
13300,3.9,
13400,4.0,
13500,3.3,
13600,2.3,
13700,3.2,
13800,113.3,
13900,132.1,
14000,121.0,
14100,109.9,
14200,95.1,
14300,132.4,
14500,6.0,
14600,4.6,
14700,5.7,
14800,7.2,
14900,5.2,
15000,3.2,
15100,2.9,
15200,3.1,
15300,10.5,
15400,124.1,
15500,93.3,
15600,121.0,
15700,139.8,
15800,122.4,
15900,108.8,
16000,38.7,
16100,7.1,
16200,5.6,
16300,3.5,
16400,3.8,
16500,5.8,
16600,3.6,
16700,3.2,
16800,3.2,
16900,2.6,
17000,132.6,
17100,125.4,
17200,97.7,
17300,94.7,
17400,150.9,
17500,138.6,
17600,49.0,
17700,6.0,
17800,4.3,
17900,5.7,
18000,3.3,
18100,2.7,
18200,2.9,
18300,2.8,
18400,3.7,
18500,4.3,
18600,79.2,
18700,133.9,
18800,124.1,
18900,99.6,
19000,89.8,
19100,153.9,
19200,65.2,
19300,5.8,
19400,5.4,
19500,4.3,
19600,2.9,
19700,3.3,
19800,2.7,
19900,2.1,
20000,2.9,
20100,2.5,
20200,79.4,
20300,97.8,
20400,125.1,
20500,131.2,
20600,109.8,
20700,101.0,
20800,87.6,
20900,7.0,
21000,4.8,
21100,7.9,
21200,4.3,
21300,3.2,
21400,3.4,
21500,3.1,
21600,2.9,
21700,2.5,
21800,67.0,
21900,118.6,
22000,97.4,
22100,100.6,
22200,140.7,
22300,122.4,
22400,112.2,
22500,10.9,
22600,5.0,
22700,4.2,
22800,3.6,
22900,4.0,
23000,4.5,
23100,7.2,
23200,2.9,
23300,3.4,
23400,14.0,
23500,126.9,
23600,115.7,
23700,97.5,
23800,81.2,
23900,135.8,
24000,149.1,
24100,9.6,
24200,4.9,
24300,5.2,
24500,3.8,
24600,3.2,
24700,2.9,
24800,3.9,
24900,3.0,
25000,3.4,
25100,98.4,
25200,113.8,
25300,126.4,
25400,104.8,
25500,85.8,
25600,109.1,
25700,11.5,
25800,3.6,
25900,3.9,
26000,4.1,
26100,2.6,
26200,2.4,
26300,2.8,
26400,3.6,
26500,2.8,
26600,4.2,
26700,118.3,
26800,84.6,
26900,101.6,
27000,137.3,
27100,111.9,
27200,90.1,
27300,13.9,
27400,16.1,
27500,7.0,
27600,8.5,
27700,14.8,
27800,34.9,
27900,9.8,
28000,4.8,
28100,4.5,
28200,3.5,
28300,144.9,
28400,115.0,
28500,90.5,
28600,93.6,
28700,123.3,
28800,123.5,
28900,18.2,
29000,4.2,
29100,3.9,
29200,7.1,
29300,4.2,
29500,2.8,
29600,3.1,
29700,3.1,
29800,3.7,
29900,123.3,
30000,116.7,
30100,116.7,
30200,99.2,
30300,81.5,
30500,24.5,
30600,4.9,
30700,4.6,
30800,4.6,
30900,5.0,
31000,3.9,
31100,5.0,
31200,3.3,
31300,2.8,
31400,4.1,
31500,130.9,
31600,106.1,
31700,101.3,
31800,125.5,
31900,106.4,
32000,91.7,
32100,32.1,
32200,4.1,
32300,5.7,
32500,4.7,
32600,3.1,
32700,2.8,
32800,3.4,
32900,2.7,
33000,4.4,
33100,127.7,
33200,144.5,
33300,108.5,
33500,123.1,
33600,117.0,
33700,42.5,
33800,5.4,
33900,6.7,
34000,3.8,
34100,3.3,
34200,3.2,
34300,2.9,
34500,3.0,
34600,2.5,
34700,87.1,
34800,140.9,
34900,147.6,
35000,113.2,
35100,83.8,
35200,108.4,
35300,57.4,
35500,5.0,
35600,7.0,
35700,48.5,
35800,15.9,
35900,5.8,
36000,4.1,
36100,3.6,
36200,2.7,
36300,79.6,
36400,96.1,
36500,146.6,
36600,157.7,
36700,128.8,
36800,93.8,
36900,72.1,
37000,5.7,
37100,4.2,
37200,3.9,
37300,3.4,
37500,2.7,
37600,2.8,
37700,3.3,
37800,2.9,
37900,60.4,
38000,125.6,
38100,109.7,
38200,126.8,
38300,142.4,
38500,94.4,
38600,14.3,
38700,7.9,
38800,4.8,
38900,7.1,
39000,3.5,
39100,3.2,
39200,3.6,
39300,3.3,
39400,3.5,
39500,22.6,
39600,130.3,
39700,133.0,
39800,114.9,
39900,95.3,
40000,123.2,
40100,125.9,
40200,8.8,
40300,5.2,
40500,4.4,
40600,3.5,
40700,3.9,
40800,8.5,
40900,4.3,
41000,3.2,
41100,2.9,
41200,96.0,
41300,142.0,
41500,126.7,
41600,96.2,
41700,87.3,
41800,10.6,
41900,4.4,
42000,3.9,
42100,4.8,
42200,3.5,
42300,2.7,
42500,2.9,
42600,2.3,
42700,2.7,
42800,121.8,
42900,99.9,
43000,122.9,
43100,156.2,
43200,128.3,
43300,97.9,
43500,4.7,
43600,4.3,
43700,3.9,
43800,3.2,
43900,2.9,
44000,3.2,
44100,2.6,
44200,2.5,
44300,4.0,
44500,135.6,
44600,109.3,
44700,119.0,
44800,142.0,
44900,127.6,
45000,18.4,
45100,5.0,
45200,5.3,
45300,5.5,
45500,4.9,medium
45600,4.5,
45700,4.6,
45800,4.9,
45900,3.8,
46000,93.0,
46100,138.6,
46200,139.2,
46300,122.9,
46500,119.1,
46600,24.9,
46700,5.6,
46800,4.4,
46900,5.6,
47000,4.1,
47100,3.1,
47200,3.8,
47300,3.4,
47400,9.3,
47500,3.5,
47600,114.7,
47700,97.2,
47800,112.6,
47900,149.6,
48000,128.9,
48100,109.1,
48200,36.9,
48300,4.3,
48500,3.8,
48600,3.6,
48700,2.8,
48800,3.3,
48900,3.1,
49000,2.8,
49100,2.7,
49200,116.8,
49300,128.4,
49500,107.6,
49600,143.1,
49700,141.1,
49800,46.6,
49900,4.5,
50000,3.5,
50100,2.5,
50200,3.7,
50300,3.5,
50500,2.8,
50600,3.0,
50700,3.0,
50800,77.5,
50900,129.2,
51000,131.2,
51100,109.8,
51200,92.7,
51300,143.8,
51500,5.9,
51600,5.2,
51700,4.4,
51800,6.8,
51900,3.4,
52000,4.2,
52100,7.4,
52200,3.2,
52300,2.9,
52400,81.0,
52500,95.4,
52600,115.6,
52700,142.3,
52800,127.9,
52900,111.4,
53000,92.2,
53100,7.2,
53200,4.4,
53300,4.8,
53500,4.6,
53600,2.5,
53700,2.6,
53800,3.0,
53900,3.4,
54000,67.8,
54100,122.8,
54200,98.3,
54300,107.1,
54500,135.4,
54600,115.7,
54700,8.4,
54800,6.1,
54900,3.6,
55000,3.8,
55100,3.4,
55200,6.8,
55300,3.7,
55500,4.7,
55600,25.0,
55700,133.8,
55800,128.7,
55900,109.2,
56000,88.9,
56100,142.8,
56200,148.4,
56300,10.2,
56400,3.7,
56500,3.6,
56600,3.3,
56700,3.0,
56800,3.7,
56900,3.3,
57000,2.8,
57100,2.5,
57200,3.1,
57300,92.9,
57400,128.4,
57500,126.1,
57600,112.7,
57700,95.1,
57800,121.4,
57900,13.7,
58000,4.8,
58100,4.8,
58200,3.3,
58300,4.4,
58500,3.5,
58600,4.8,
58700,5.5,
58800,3.7,
58900,120.0,
59000,98.4,
59100,101.8,
59200,142.3,
59300,123.4,
59400,108.2,
59500,15.6,
59600,7.1,
59700,4.8,
59800,3.1,
59900,6.4,
60000,3.4,
60100,5.8,
60200,3.9,
60300,3.2,
60400,1.9,
60500,119.7,
60600,126.8,
60700,104.2,
60800,85.3,
60900,124.5,
61000,130.9,
61100,20.4,
61200,3.8,
61300,3.9,
61500,4.7,
61600,7.4,
61700,4.5,
61800,4.1,
61900,2.8,
62000,3.0,
62100,82.6,
62200,130.1,
62300,139.8,
62500,96.7,
62600,126.5,
62700,28.1,
62800,4.0,
62900,5.5,
63000,4.3,
63100,7.9,
63200,6.3,
63300,3.2,
63500,3.7,
63600,2.7,
63700,107.6,
63800,99.9,
63900,113.1,
64000,145.6,
64100,120.0,
64200,104.5,
64300,35.3,
64500,5.0,
64600,3.3,
64700,5.9,
64800,3.5,
64900,5.7,
65000,3.3,
65100,3.8,
65200,2.3,
65300,102.4,
65500,101.5,
65600,102.4,
65700,131.4,
65800,128.9,
65900,46.0,
66000,5.5,
66100,6.7,
66200,5.8,
66300,6.9,
66500,5.8,
66600,3.5,
66700,2.0,
66800,3.3,
66900,68.9,
67000,122.9,
67100,132.4,
67200,114.2,
67300,95.2,
67500,61.2,
67600,5.0,
67700,3.0,
67800,3.5,
67900,5.4,
68000,2.9,
68100,3.1,
68200,2.5,
68300,2.8,
68500,81.8,
68600,93.6,
68700,118.8,
68800,141.3,
68900,119.2,
69000,96.3,
69100,79.1,
69200,6.1,
69300,6.3,
69500,4.0,
69600,3.0,
69700,2.6,
69800,2.8,
69900,3.1,
70000,2.8,
70100,68.6,
70200,125.3,
70300,92.9,
70500,136.1,
70600,129.6,
70700,104.0,
70800,9.1,
70900,3.2,
71000,4.0,
71100,4.3,
71200,5.4,
71300,3.4,
71500,3.2,
71600,2.6,
71700,39.0,
71800,153.0,
71900,148.8,
72000,104.6,
72100,88.6,
72200,123.5,
72300,138.3,
72500,8.2,
72600,6.5,
72700,8.5,
72800,3.3,
72900,3.5,
73000,6.8,
73100,3.3,
73200,3.4,
73300,3.4,
73500,144.2,
73600,159.4,
73700,113.0,
73800,88.5,
73900,99.9,
74000,12.4,
74100,17.2,
74200,11.1,
74300,4.0,
74500,3.3,
74600,3.4,
74700,2.8,
74800,2.9,
74900,3.6,
75000,134.4,
75100,114.9,
75200,128.9,
75300,141.5,
75500,101.2,
75600,16.2,
75700,3.6,
75800,6.1,
75900,5.9,
76000,6.0,
76100,3.9,
76200,2.9,
76300,3.2,
76400,4.9,
76500,2.6,
76600,120.0,
76700,146.4,
76800,122.9,
76900,97.0,
77000,114.5,
77100,127.3,
77200,21.3,
77300,3.9,
77500,4.7,
77600,2.6,
77700,5.4,
77800,5.6,
77900,4.3,
78000,3.1,
78100,2.5,
78200,88.9,
78300,138.8,
78500,131.3,
78600,108.4,
78700,91.9,
78800,24.0,
78900,3.8,
79000,3.5,
79100,3.6,
79200,3.1,
79300,2.6,
79500,3.1,
79600,2.3,
79700,2.9,
79800,126.2,
79900,106.9,
80000,128.8,
80100,166.2,
80200,138.2,
80300,99.2,
80500,4.5,
80600,4.2,
80700,3.9,
80800,2.4,
80900,3.5,
81000,3.6,
81100,3.1,
81200,4.1,
81300,2.8,
81400,98.3,
81500,128.8,
81600,110.6,
81700,129.0,
81800,145.1,
81900,144.3,
82000,45.2,
82100,4.9,
82200,3.1,
82300,4.0,
82500,2.7,
82600,3.6,
82700,11.1,
82800,3.3,
82900,6.9,
83000,70.7,
83100,123.6,
83200,132.4,
83300,122.1,
83400,108.7,
83500,135.2,
83600,65.0,
83700,5.0,
83800,3.3,
83900,8.4,
84000,2.9,
84100,2.9,
84200,3.7,
84300,3.1,
84500,2.9,
84600,74.8,
84700,94.2,
84800,108.4,
84900,152.8,
85000,136.8,
85100,115.8,
85200,86.4,
85300,6.0,
85500,3.7,
85600,2.9,
85700,4.1,
85800,2.3,
85900,3.0,
86000,3.7,
86100,2.7,
86200,50.0,
86300,121.3,
86400,101.7,
86500,102.4,
86600,150.8,
86700,152.2,
86800,124.8,
86900,8.9,
87000,4.2,
87100,3.7,
87200,3.7,
87300,3.2,
87500,2.9,
87600,3.3,
87700,3.1,
87800,11.2,
87900,126.0,
88000,129.9,
88100,104.2,
88200,92.1,
88300,145.7,
88500,10.8,
88600,3.6,
88700,4.5,
88800,2.9,
88900,3.5,
89000,2.9,
89100,2.9,
89200,2.3,
89300,3.2,
89400,3.0,
89500,92.4,
89600,115.2,
89700,142.7,
89800,123.7,
89900,106.7,
90000,132.5,
90100,13.9,
90200,3.2,
90300,3.3,
90500,5.6,
90600,2.4,
90700,4.0,
90800,3.0,
90900,2.5,
91000,2.2,
91100,115.1,
91200,94.0,
91300,99.3,
91500,135.3,
91600,114.5,
91700,16.8,
91800,3.3,
91900,5.3,
92000,4.1,
92100,5.2,
92200,7.0,
92300,4.0,
92500,2.5,
92600,3.0,
92700,108.9,
92800,120.3,
92900,102.7,
93000,89.5,
93100,124.8,
93200,136.8,
93300,20.4,
93500,4.3,
93600,6.1,
93700,7.6,
93800,4.1,
93900,3.8,
94000,3.2,
94100,4.9,
94200,2.7,
94300,89.4,
94500,133.2,
94600,118.5,
94700,101.5,
94800,101.4,
94900,25.9,
95000,11.7,
95100,5.8,
95200,9.4,
95300,7.6,
95500,4.5,
95600,3.8,
95700,2.3,
95800,2.5,
95900,124.2,
96000,93.3,
96100,88.1,
96200,140.9,
96300,127.0,
96500,34.5,
96600,12.4,
96700,25.1,
96800,4.4,
96900,2.8,
97000,2.8,
97100,2.7,
97200,2.3,
97300,2.3,
97500,110.4,
97600,127.9,
97700,93.8,
97800,80.0,
97900,126.0,
98000,131.6,
98100,46.2,
98200,4.5,
98300,4.4,
98500,2.9,
98600,3.7,
98700,3.2,
98800,2.7,
98900,2.4,
99000,2.6,
99100,70.0,
99200,144.3,
99300,138.9,
99500,92.1,
99600,101.0,
99700,62.3,
99800,5.4,
99900,2.9,
100000,3.8,
100100,3.3,
100200,3.5,
100300,2.6,
100500,2.4,
100600,2.6,
100700,90.8,
100800,112.5,
100900,119.0,
101000,137.0,
101100,114.7,
101200,97.5,
101300,81.7,
101500,4.3,
101600,3.8,
101700,3.0,
101800,2.9,
101900,3.2,
102000,2.7,
102100,2.2,
102200,2.6,
102300,65.4,
102500,111.6,
102600,91.0,
102700,113.5,
102800,128.8,
102900,106.5,
103000,9.8,
103100,4.9,
103200,4.7,
103300,6.1,
103500,5.4,
103600,6.9,
103700,2.6,
103800,2.1,
103900,32.4,
104000,152.9,
104100,149.6,
104200,117.8,
104300,91.4,
104500,135.2,
104600,10.0,
104700,3.2,
104800,2.3,
104900,2.9,
105000,2.7,
105100,2.3,
105200,3.3,
105300,2.3,
105400,2.0,
105500,2.4,
105600,104.4,
105700,137.0,
105800,148.9,
105900,118.1,
106000,96.5,
106100,92.8,
106200,12.8,
106300,3.1,
106500,5.0,
106600,2.9,
106700,3.8,
106800,2.4,
106900,2.1,
107000,2.7,
107100,2.6,
107200,138.9,
107300,112.1,
107500,124.7,
107600,118.0,
107700,101.1,
107800,14.7,
107900,4.6,
108000,3.9,
108100,3.8,
108200,5.3,
108300,3.7,
108500,5.5,
108600,4.9,
108700,2.9,
108800,134.0,
108900,165.2,
109000,133.2,
109100,97.1,
109200,111.8,
109300,133.6,
109500,3.1,
109600,3.6,
109700,4.0,
109800,4.3,
109900,5.8,
110000,4.8,
110100,2.8,
110200,2.5,
110300,3.4,
110400,84.4,
110500,134.2,
110600,177.7,
110700,141.7,
110800,100.1,
110900,83.9,
111000,26.3,
111100,3.7,
111200,4.2,
111300,3.2,
111500,3.2,
111600,3.4,
111700,2.5,
111800,3.0,
111900,2.8,
112000,105.1,
112100,105.5,
112200,136.2,
112300,155.6,
112500,94.0,
112600,33.8,
112700,4.5,
112800,3.7,
112900,2.4,
113000,3.1,
113100,2.5,
113200,2.1,
113300,2.5,
113400,2.3,
113500,2.2,
113600,97.3,
113700,142.5,
113800,118.1,
113900,93.6,
114000,110.1,
114100,107.0,
114200,38.7,
114300,3.8,
114500,5.3,
114600,3.2,
114700,3.3,
114800,3.3,
114900,2.6,
115000,2.6,
115100,2.8,
115200,53.9,
115300,112.2,
115500,129.3,
115600,92.5,
115700,103.2,
115800,60.1,
115900,5.5,
116000,3.9,
116100,4.1,
116200,3.0,
116300,3.4,
116400,3.3,
116500,3.4,
116600,2.8,
116700,3.2,
116800,80.4,
116900,96.9,
117000,135.0,
117100,160.7,
117200,126.0,
117300,89.7,
117500,7.2,
117600,4.2,
117700,3.7,
117800,3.6,
117900,2.7,
118000,3.7,
118100,3.5,
118200,3.0,
118300,2.6,
118400,43.6,
118500,131.4,
118600,113.2,
118700,137.8,
118800,139.5,
118900,129.4,
119000,104.1,
119100,7.4,
119200,4.3,
119300,4.0,
119500,3.1,
119600,3.0,
119700,2.6,
119800,3.1,
119900,3.2,
120000,3.2,
120100,112.8,
120200,142.5,
120300,129.7,
120500,107.1,
120600,131.8,
120700,9.3,
120800,5.4,
120900,3.2,
121000,2.5,
121100,3.0,
121200,3.1,
121300,2.7,
121400,2.7,
121500,2.3,
121600,2.5,
121700,90.1,
121800,133.7,
121900,160.1,
122000,141.3,
122100,98.0,
122200,80.3,
122300,11.6,
122500,2.9,
122600,4.1,
122700,2.6,
122800,2.3,
122900,3.0,
123000,3.9,
123100,2.3,
123200,2.7,
123300,110.9,
123400,96.4,
123500,128.3,
123600,148.4,
123700,132.1,
123800,98.5,
123900,14.0,
124000,3.1,
124100,3.1,
124200,2.4,
124300,2.3,
124500,2.4,
124600,2.7,
124700,3.1,
124800,3.6,
124900,94.2,
125000,115.4,
125100,99.5,
125200,97.5,
125300,136.7,
125500,20.8,
125600,2.9,
125700,2.9,
125800,3.1,
125900,3.8,
126000,2.5,
126100,3.4,
126200,2.8,
126300,3.4,
126400,3.2,
126500,76.0,
126600,100.0,
126700,147.1,
126800,132.2,
126900,109.2,
127000,113.9,
127100,27.1,
127200,3.2,
127300,2.4,
127500,5.2,
127600,2.7,
127700,2.5,
127800,2.8,
127900,2.5,
128000,3.2,
128100,97.4,
128200,87.9,
128300,115.8,
128500,155.0,
128600,114.6,
128700,36.8,
128800,3.6,
128900,2.6,
129000,2.3,
129100,2.0,
129200,2.9,
129300,2.5,
129500,2.3,
129600,2.0,
129700,83.6,
129800,117.0,
129900,107.5,
130000,98.2,
130100,143.4,
130200,146.5,
130300,50.1,
130400,4.6,
130500,2.6,
130600,2.7,
130700,5.5,
130800,2.6,
130900,2.5,
131000,4.6,
131100,3.9,
131200,2.6,
131300,55.6,
131400,102.6,
131500,139.3,
131600,127.0,
131700,103.2,
131800,118.7,
131900,62.8,
132000,5.6,
132100,2.3,
132200,3.0,
132300,3.3,
132500,3.2,
132600,3.5,
132700,2.9,
132800,3.0,
132900,71.6,
133000,90.5,
133100,106.7,
133200,162.5,
133300,137.3,
133500,79.3,
133600,6.3,
133700,2.8,
133800,2.4,
133900,2.4,
134000,3.3,
134100,3.0,
134200,3.5,
134300,4.3,
134500,43.8,
134600,117.7,
134700,99.4,
134800,124.2,
134900,151.9,
135000,150.1,
135100,114.9,
135200,8.2,
135300,3.6,
135400,3.3,
135500,3.2,
135600,3.2,
135700,2.4,
135800,3.7,
135900,5.0,
136000,2.7,
136100,3.0,
136200,103.3,
136300,128.5,
136500,105.9,
136600,130.9,
136700,142.9,
136800,9.9,
136900,2.9,
137000,4.6,
137100,2.9,
137200,3.3,
137300,2.7,
137500,2.8,
137600,2.7,
137700,2.3,
137800,84.1,
137900,98.9,
138000,152.0,
138100,138.4,
138200,112.6,
138300,106.8,
138500,3.4,
138600,2.9,
138700,2.6,
138800,2.9,
138900,3.4,
139000,2.7,
139100,3.1,
139200,2.8,
139300,2.1,
139400,112.3,
139500,93.9,
139600,129.1,
139700,156.6,
139800,146.6,
139900,110.5,
140000,18.4,
140100,3.1,
140200,3.7,
140300,3.4,
140500,2.2,
140600,3.7,
140700,2.8,
140800,2.7,
140900,3.3,
141000,97.2,
141100,118.3,
141200,104.8,
141300,96.3,
141500,147.5,
141600,21.3,
141700,2.9,
141800,3.7,
141900,2.8,
142000,2.9,
142100,3.1,
142200,3.5,
142300,3.0,
142500,2.2,
142600,76.0,
142700,111.4,
142800,158.8,
142900,139.8,
143000,109.7,
143100,98.3,
143200,25.3,
143300,3.7,
143500,2.6,
143600,4.2,
143700,3.1,
143800,2.8,
143900,3.7,
144000,3.5,
144100,3.4,
144200,98.9,
144300,91.4,
144500,159.2,
144600,127.9,
144700,95.5,
144800,31.3,
144900,3.8,
145000,2.1,
145100,2.2,
145200,2.9,
145300,2.2,
145500,5.8,
145600,3.5,
145700,2.5,
145800,89.7,
145900,140.7,
146000,126.4,
146100,95.4,
146200,115.6,
146300,124.7,
146500,4.2,
146600,2.8,
146700,2.5,
146800,3.1,
146900,3.2,
147000,2.1,
147100,2.5,
147200,4.5,
147300,2.6,
147400,59.6,
147500,145.2,
147600,161.2,
147700,120.3,
147800,87.9,
147900,77.9,
148000,52.9,
148100,4.9,
148200,3.7,
148300,3.7,
148500,3.2,
148600,3.5,
148700,2.8,
148800,2.4,
148900,2.2,
149000,83.1,
149100,107.6,
149200,125.6,
149300,134.6,
149500,84.0,
149600,72.8,
149700,5.6,
149800,2.8,
149900,3.7,
150000,3.3,
150100,2.5,
150200,2.6,
150300,2.3,
150400,2.1,
150500,2.6,
150600,61.2,
150700,147.4,
150800,118.1,
150900,102.4,
151000,104.2,
151100,110.5,
151200,94.7,
151300,7.0,
151500,3.8,
151600,3.6,
151700,3.3,
151800,2.7,
151900,2.5,
152000,2.6,
152100,2.4,
152200,20.6,
152300,137.2,
152500,118.3,
152600,88.1,
152700,83.4,
152800,112.2,
152900,8.6,
153000,3.9,
153100,2.5,
153200,3.5,
153300,2.6,
153500,2.8,
153600,2.7,
153700,1.9,
153800,3.7,
153900,86.1,
154000,133.1,
154100,149.3,
154200,128.2,
154300,95.5,
154500,11.1,
154600,3.7,
154700,5.0,
154800,5.9,
154900,3.9,
155000,4.7,
155100,3.7,
155200,3.2,
155300,3.5,
155400,6.4,
155500,108.9,
155600,100.4,
155700,133.4,
155800,129.7,
155900,127.0,
156000,97.2,
156100,15.1,
156200,7.2,
156300,7.8,
156500,4.7,
156600,5.7,
156700,5.5,
156800,5.4,
156900,6.0,
157000,5.0,
157100,97.7,
157200,134.5,
157300,111.9,
157500,127.8,
157600,126.4,
157700,18.4,
157800,3.3,
157900,3.3,
158000,3.2,
158100,2.5,
158200,3.0,
158300,3.0,
158500,3.0,
158600,4.9,
158700,76.3,
158800,121.4,
158900,154.0,
159000,118.4,
159100,86.3,
159200,83.8,
159300,24.9,
159500,3.9,
159600,3.2,
159700,4.2,
159800,2.6,
159900,2.6,
160000,2.9,
160100,3.2,
160200,3.1,
160300,96.8,
160400,94.4,
160500,131.1,
160600,146.8,
160700,131.0,
160800,98.5,
160900,33.2,
161000,4.0,
161100,4.1,
161200,3.7,
161300,3.2,
161500,4.4,
161600,5.3,
161700,4.2,
161800,4.2,
161900,85.5,
162000,125.3,
162100,113.4,
162200,91.7,
162300,109.3,
162500,41.8,
162600,4.7,
162700,6.9,
162800,5.2,
162900,4.1,
163000,3.3,
163100,6.3,
163200,3.9,
163300,3.3,
163400,3.7,
163500,60.1,
163600,139.7,
163700,151.7,
163800,106.5,
163900,77.4,
164000,90.2,
164100,54.7,
164200,5.0,
164300,4.5,
164500,4.3,
164600,3.7,
164700,3.7,
164800,4.9,
164900,6.8,
165000,4.6,
165100,86.9,
165200,106.9,
165300,119.4,
165400,121.0,
165500,115.2,
165600,98.8,
165700,82.6,
165800,6.4,
165900,2.8,
166000,3.7,
166100,6.1,
166200,7.3,
166300,7.1,
166500,2.4,
166600,2.3,
166700,58.7,
166800,131.2,
166900,103.7,
167000,85.1,
167100,96.2,
167200,120.6,
167300,103.1,
167500,2.6,
167600,3.1,
167700,2.8,
167800,2.5,
167900,3.7,
168000,3.2,
168100,1.8,
168200,3.9,
168300,31.2,
168500,122.3,
168600,86.9,
168700,75.4,
168800,105.0,
168900,131.9,
169000,8.4,
169100,3.1,
169200,7.4,
169300,2.3,
169500,4.6,
169600,4.3,
169700,3.7,
169800,2.6,
169900,2.7,
170000,100.5,
170100,107.6,
170200,109.1,
170300,94.0,
170500,92.9,
170600,12.3,
170700,3.4,
170800,3.9,
170900,3.6,
171000,3.7,
171100,4.5,
171200,3.0,
171300,7.3,
171500,18.3,
171600,129.4,
171700,95.0,
171800,81.8,
171900,114.9,
172000,117.3,
172100,103.2,
172200,23.4,
172300,11.5,
172500,2.9,
172600,2.4,
172700,2.5,
172800,2.2,
172900,1.8,
173000,2.5,
173100,2.5,
173200,136.0,
173300,131.5,
173500,69.9,
173600,106.3,
173700,125.5,
173800,18.9,
173900,3.9,
174000,3.5,
174100,2.5,
174200,2.8,
174300,3.3,
174500,3.0,
174600,2.1,
174700,2.6,
174800,91.0,
174900,118.7,
175000,106.2,
175100,92.9,
175200,82.7,
175300,94.7,
175500,3.8,
175600,3.3,
175700,3.4,
175800,2.7,
175900,2.4,
176000,2.6,
176100,2.2,
176200,2.0,
176300,2.6,
176400,113.5,
176500,91.6,
176600,75.9,
176700,112.6,
176800,104.8,
176900,89.3,
177000,32.7,
177100,3.6,
177200,3.3,
177300,2.1,
177500,2.9,
177600,2.6,
177700,3.3,
177800,3.6,
177900,2.0,
178000,111.2,
178100,117.4,
178200,84.0,
178300,71.7,
178500,113.1,
178600,45.4,
178700,7.6,
178800,2.7,
178900,3.1,
179000,3.0,
179100,1.9,
179200,1.9,
179300,2.2,
179500,2.5,
179600,56.0,
179700,105.6,
179800,113.4,
179900,94.2,
180000,77.5,
180100,95.5,
180200,60.8,
180300,5.1,
180400,3.3,
180500,3.2,
180600,3.4,
180700,2.7,
180800,3.2,
180900,3.1,
181000,2.3,
181100,6.8,
181200,73.9,
181300,88.8,
181500,117.4,
181600,104.1,
181700,89.3,
181800,85.6,
181900,6.0,
182000,3.5,
182100,2.6,
182200,2.4,
182300,2.5,
182500,2.2,
182600,5.7,
182700,3.1,
182800,46.2,
182900,112.9,
183000,88.8,
183100,87.5,
183200,117.1,
183300,130.6,
183500,8.4,
183600,3.2,
183700,4.4,
183800,2.7,
183900,3.5,
184000,2.8,
184100,2.6,
184200,2.3,
184300,2.3,
184500,115.9,
184601,115.9,
184701,87.6,
184801,78.4,
184901,140.3,
185001,150.3,
185101,9.5,
185201,2.6,
185301,3.3,
185501,2.9,
185601,2.8,
185701,2.4,
185801,2.0,
185901,2.3,
186001,2.5,
186101,86.0,
186201,106.7,
186301,115.6,
186501,97.5,
186601,116.9,
186701,11.1,
186801,3.7,
186901,2.5,
187001,2.8,
187101,3.7,
187201,2.8,
187301,3.2,
187501,2.6,
187601,2.3,
187701,103.7,
187801,82.5,
187901,98.2,
188001,138.9,
188101,118.8,
188201,95.0,
188301,12.5,
188501,2.8,
188601,3.1,
188701,2.5,
188801,2.3,
188901,2.4,
189001,2.3,
189101,2.1,
189201,3.3,
189301,109.5,
189401,110.5,
189501,88.0,
189601,110.1,
189701,134.7,
189801,134.0,
189901,17.3,
190001,3.6,
190101,2.9,
190201,2.4,
190301,2.4,
190501,2.0,
190601,1.9,
190701,2.3,
190801,2.0,
190901,72.8,
191001,108.1,
191101,116.7,
191201,104.8,
191301,92.1,
191501,23.3,
191601,3.4,
191701,3.1,
191801,2.7,
191901,2.6,
192001,2.0,
192101,2.0,
192201,2.2,
192301,2.4,
192401,1.8,
192501,89.2,
192601,80.6,
192701,106.2,
192801,141.4,
192901,119.6,
193001,82.2,
193101,28.1,
193201,3.7,
193301,7.2,
193501,3.7,
193601,1.9,
193701,2.5,
193801,3.2,
193901,2.0,
194001,2.4,
194101,93.9,
194201,104.9,
194301,92.4,
194501,124.3,
194601,103.4,
194701,36.9,
194801,5.2,
194901,4.9,
195001,4.5,
195101,5.3,
195201,4.1,
195301,3.6,
195501,3.5,
195601,6.5,
195701,71.8,
195801,127.1,
195901,131.2,
196001,107.3,
196101,78.5,
196201,97.6,
196301,50.9,
196401,4.6,
196501,3.1,
196601,2.7,
196701,3.9,
196801,2.6,
196901,3.3,
197001,2.5,
197101,2.8,
197201,2.2,
197301,69.1,
197401,93.1,
197501,127.1,
197601,126.6,
197701,86.7,
197801,83.7,
197901,74.8,
198001,5.4,
198101,2.3,
198201,2.5,
198301,1.9,
198501,2.4,
198601,4.4,
198701,4.6,
198801,18.7,
198901,79.8,
199001,125.2,
199101,86.4,
199201,76.7,
199301,107.7,
199501,96.1,
199601,20.6,
199701,13.4,
199801,4.0,
199901,2.2,
200001,2.4,
200101,2.0,
200201,3.0,
200301,2.3,
200501,39.2,
200601,118.2,
200701,99.8,
200801,84.1,
200901,74.2,
201001,111.4,
201101,118.2,
201201,8.5,
201301,3.6,
201501,3.0,
201601,2.8,
201701,3.0,
201801,4.5,
201901,4.9,
202001,3.2,
202101,5.2,
202201,76.4,
202301,113.9,
202501,94.3,
202601,84.2,
202701,117.4,
202801,11.6,
202901,4.0,
203001,7.0,
203101,4.6,
203201,2.5,
203301,2.5,
203501,2.9,
203601,4.5,
203701,5.5,
203801,106.1,
203901,85.7,
204001,89.7,
204101,123.4,
204201,113.5,
204301,98.5,
204501,4.2,
204601,7.5,
204701,2.9,
204801,2.7,
204901,2.0,
205001,2.3,
205101,2.4,
205201,2.5,
205301,2.4,
205401,121.5,
205501,112.5,
205601,88.5,
205701,95.3,
205801,131.7,
205901,128.0,
206001,18.5,
206101,3.4,
206201,4.6,
206301,2.8,
206501,6.1,
206601,3.1,
206701,3.4,
206801,6.8,
206901,2.9,
207001,89.7,
207101,110.7,
207201,114.5,
207301,100.0,
207501,103.2,
207601,20.8,
207701,4.1,
207801,5.2,
207901,7.5,
208001,6.4,
208101,2.6,
208201,2.8,
208301,3.1,
208401,2.8,
208501,2.3,
208601,98.4,
208701,88.6,
208801,114.2,
208901,134.8,
209001,113.7,
209101,81.3,
209201,26.6,
209301,3.8,
209501,3.1,
209601,4.0,
209701,4.0,
209801,2.2,
209901,2.0,
210001,2.1,
210101,1.9,
210201,113.7,
210301,121.4,
210501,112.6,
210601,113.8,
210701,100.7,
210801,36.5,
210901,4.4,
211001,3.3,
211101,2.8,
211201,2.4,
211301,2.0,
211501,2.1,
211601,2.1,
211701,2.6,
211801,87.0,
211901,137.9,
212001,119.9,
212101,81.2,
212201,70.9,
212301,114.3,
212501,5.1,
212601,5.6,
212701,2.9,
212801,3.4,
212901,11.6,
213001,5.4,
213101,2.7,
213201,2.8,
213301,2.4,
213401,74.1,
213501,90.2,
213601,109.3,
213701,125.9,
213801,116.0,
213901,90.3,
214001,78.8,
214101,6.3,
214201,3.3,
214301,2.2,
214501,2.8,
214601,2.9,
214701,3.3,
214801,2.2,
214901,2.3,
215001,99.2,
215101,119.7,
215201,88.3,
215301,110.6,
215501,121.8,
215601,96.0,
215701,7.0,
215801,4.2,
215901,3.5,
216001,3.3,
216101,2.8,
216201,2.7,
216301,2.3,
216501,3.0,
216601,24.4,
216701,127.1,
216801,112.8,
216901,92.3,
217001,99.0,
217101,126.2,
217201,128.3,
217301,9.0,
217501,4.5,
217601,3.0,
217701,4.5,
217801,2.8,
217901,3.4,
218001,2.9,
218101,3.5,
218201,3.9,
218301,91.8,
218401,117.3,
218501,121.3,
218601,100.2,
218701,80.2,
218801,129.4,
218901,12.6,
219001,5.0,
219101,4.3,
219201,3.9,
219301,5.1,
219501,5.1,
219601,3.2,
219701,3.1,
219801,3.2,
219901,107.1,
220001,87.8,
220101,114.1,
220201,125.6,
220301,106.7,
220501,14.3,
220601,2.9,
220701,5.8,
220801,3.7,
220901,6.2,
221001,3.4,
221101,7.8,
221201,5.0,
221301,3.7,
221401,3.3,
221501,128.0,
221601,112.3,
221701,92.2,
221801,95.7,
221901,136.0,
222001,128.9,
222101,19.6,
222201,4.4,
222301,4.2,
222401,4.7,
222501,2.7,
222601,3.1,
222701,2.3,
222801,7.1,
222901,4.2,
223001,3.9,
223101,97.2,
223201,123.0,
223301,119.9,
223501,82.8,
223601,134.2,
223701,25.1,
223801,5.2,
223901,3.1,
224001,3.4,
224101,9.7,
224201,3.5,
224301,4.2,
224501,5.0,
224601,3.4,
224701,96.1,
224801,85.0,
224901,114.0,
225001,126.9,
225101,111.9,
225201,101.8,
225301,30.9,
225401,5.6,
225501,3.2,
225601,3.6,
225701,3.3,
225801,2.7,
225901,3.6,
226001,3.2,
226101,3.1,
226201,4.1,
226301,117.0,
226401,105.1,
226501,81.8,
226601,107.8,
226701,143.1,
226801,110.9,
226901,37.1,
227001,4.0,
227101,3.3,
227201,2.5,
227301,3.2,
227501,2.0,
227601,3.1,
227701,3.4,
227801,2.7,
227901,75.3,
228001,126.9,
228101,123.5,
228201,104.3,
228301,80.6,
228501,46.5,
228601,4.1,
228701,2.0,
228801,4.3,
228901,5.6,
229001,2.7,
229101,2.2,
229201,3.2,
229301,2.4,
229401,2.3,
229501,68.1,
229601,112.3,
229701,136.1,
229801,116.4,
229901,89.7,
230001,76.4,
230101,66.7,
230201,5.2,
230301,3.0,
230401,3.1,
230501,3.4,
230601,4.1,
230701,2.7,
230801,3.8,
230901,5.2,
231001,2.7,
231101,83.7,
231201,119.2,
231301,92.2,
231501,111.9,
231601,99.8,
231701,85.8,
231801,6.4,
231901,2.6,
232001,3.2,
232101,3.0,
232201,2.7,
232301,3.1,
232501,3.5,
232601,3.6,
232701,54.5,
232801,146.4,
232901,111.0,
233001,80.6,
233101,86.5,
233201,117.5,
233301,111.3,
233501,2.9,
233601,4.0,
233701,3.0,
233801,3.5,
233901,3.4,
234001,3.1,
234101,3.4,
234201,3.3,
234301,2.8,
234501,115.0,
234601,110.3,
234701,90.1,
234801,76.7,
234901,112.1,
235001,11.5,
235101,3.7,
235201,4.4,
235301,3.9,
235401,4.8,
235501,4.5,
235601,2.9,
235701,3.0,
235801,2.8,
235901,3.0,
236001,105.3,
236101,75.6,
236201,105.9,
236301,122.2,
236501,83.6,
236601,12.8,
236701,3.3,
236801,3.4,
236901,3.6,
237001,3.9,
237101,3.3,
237201,3.5,
237301,3.2,
237401,3.6,
237501,2.9,
237601,127.5,
237701,100.8,
237801,84.8,
237901,90.3,
238001,119.1,
238101,104.8,
238201,16.3,
238301,3.5,
238501,2.8,
238601,5.1,
238701,3.1,
238801,5.0,
238901,3.4,
239001,3.1,
239101,3.6,
239201,73.2,
239301,114.8,
239401,109.6,
239501,89.2,
239601,77.1,
239701,120.4,
239801,23.0,
239901,3.2,
240001,3.7,
240101,2.9,
240201,3.6,
240301,3.5,
240501,2.6,
240601,2.5,
240701,2.7,
240801,85.8,
240901,75.8,
241001,111.1,
241101,116.9,
241201,106.4,
241301,92.1,
241501,3.7,
241601,2.5,
241701,2.7,
241801,4.9,
241901,4.4,
242001,2.7,
242101,3.4,
242201,3.7,
242301,2.6,
242401,103.6,
242501,95.8,
242601,79.6,
242701,92.0,
242801,133.6,
242901,119.3,
243001,41.5,
243101,4.2,
243201,2.6,
243301,3.2,
243401,2.3,
243501,3.0,
243601,2.3,
243701,2.8,
243801,3.0,
243901,2.3,
244001,74.8,
244101,118.7,
244201,111.2,
244301,99.5,
244501,122.6,
244601,46.8,
244701,4.6,
244801,2.4,
244901,3.5,
245001,3.2,
245101,2.6,
245201,5.4,
245301,2.5,
245501,5.3,
245601,59.9,
245701,104.6,
245801,135.4,
245901,137.5,
246001,100.9,
246101,70.3,
246201,57.6,
246301,5.4,
246501,5.2,
246601,4.7,
246701,3.6,
246801,3.6,
246901,2.9,
247001,2.8,
247101,4.0,
247201,79.4,
247301,111.6,
247501,108.0,
247601,103.6,
247701,90.4,
247801,79.9,
247901,5.8,
248001,3.3,
248101,6.0,
248201,4.5,
248301,3.7,
248501,3.7,
248601,3.0,
248701,3.5,
248801,49.5,
248901,150.2,
249001,125.0,
249101,82.3,
249201,75.0,
249301,110.2,
249501,8.0,
249601,5.7,
249701,6.0,
249801,5.5,
249901,4.7,
250001,3.9,
250101,3.3,
250201,2.9,
250301,4.5,
250401,3.3,
250501,127.0,
250601,133.7,
250701,103.6,
250801,81.9,
250901,72.4,
251001,101.1,
251101,10.0,
251201,6.8,
251301,5.1,
251501,4.6,
251601,4.9,
251701,5.1,
251801,3.8,
251901,6.2,
252001,5.5,
252101,111.9,
252201,87.7,
252301,98.5,
252401,110.9,
252501,92.6,
252601,78.7,
252701,13.6,
252801,6.3,
252901,5.6,
253001,5.1,
253101,4.9,
253201,7.2,
253301,5.9,
253401,5.0,
253501,3.4,
253601,5.5,
253701,137.3,
253801,97.4,
253901,81.9,
254001,96.0,
254101,120.9,
254201,102.4,
254301,17.0,
254501,6.7,
254601,5.5,
254701,3.4,
254801,6.0,
254901,6.2,
255001,3.9,
255101,4.8,
255201,7.3,
255301,90.4,
255401,121.5,
255501,103.7,
255601,86.8,
255701,85.9,
255801,117.5,
255901,23.7,
256001,5.2,
256101,5.6,
256201,4.3,
256301,3.2,
256501,3.6,
256601,2.8,
256701,2.9,
256801,4.1,
256901,86.1,
257001,94.5,
257101,109.4,
257201,109.2,
257301,95.4,
257501,33.2,
257601,7.0,
257701,4.4,
257801,5.2,
257901,6.4,
258001,3.8,
258101,3.9,
258201,4.7,
258301,3.9,
258401,2.9,
258501,110.5,
258601,101.1,
258701,82.8,
258801,103.0,
258901,124.5,
259001,115.7,
259101,42.8,
259201,5.7,
259301,4.8,
259501,4.9,
259601,6.0,
259701,3.5,
259801,4.1,
259901,4.9,
260001,3.8,
260101,88.3,
260201,133.9,
260301,104.6,
260501,114.1,
260601,134.9,
260701,54.7,
260801,4.5,
260901,6.4,
261001,5.6,
261101,3.8,
261201,5.7,
261301,5.9,
261501,3.7,
261601,3.3,
261701,63.1,
261801,94.9,
261901,113.1,
262001,118.3,
262101,105.7,
262201,88.1,
262301,65.4,
262501,5.1,
262601,2.7,
262701,4.1,
262801,2.7,
262901,2.6,
263001,3.1,
263101,3.5,
263201,4.1,
263301,75.0,
263401,97.9,
263501,86.5,
263601,137.6,
263701,138.3,
263801,98.5,
263901,75.3,
264001,5.9,
264101,3.9,
264201,5.1,
264301,4.4,
264501,3.1,
264601,2.8,
264701,2.6,
264801,2.8,
264901,46.9,
265001,148.4,
265101,123.8,
265201,93.3,
265301,80.4,
265501,96.9,
265601,7.6,
265701,4.5,
265801,3.9,
265901,3.5,
266001,3.7,
266101,4.5,
266201,3.3,
266301,4.0,
266401,4.0,
266501,2.7,
266601,131.2,
266701,143.0,
266801,103.2,
266901,80.7,
267001,79.6,
267101,101.0,
267201,10.0,
267301,4.6,
267501,4.1,
267601,4.7,
267701,3.1,
267801,4.7,
267901,3.8,
268001,3.5,
268101,3.6,
268201,119.6,
268301,104.9,
268501,107.1,
268601,90.4,
268701,75.8,
268801,11.8,
268901,3.8,
269001,4.4,
269101,4.0,
269201,3.5,
269301,3.5,
269401,4.2,
269501,2.7,
269601,4.7,
269701,2.8,
269801,146.7,
269901,106.4,
270001,74.5,
270101,88.4,
270201,116.0,
270301,97.5,
270501,6.8,
270601,5.0,
270701,4.6,
270801,6.5,
270901,3.6,
271001,4.2,
271101,3.6,
271201,6.4,
271301,3.7,
271501,119.0,
271601,97.4,
271701,84.7,
271801,85.9,
271901,105.5,
272001,20.8,
272101,5.9,
272201,6.6,
272301,5.1,
272501,3.2,
272601,5.7,
272701,3.0,
272801,3.5,
272901,4.5,
273001,86.4,
273101,80.2,
273201,108.5,
273301,109.8,
273501,74.2,
273601,27.1,
273701,4.3,
273801,5.0,
273901,4.4,
274001,2.5,
274101,3.6,
274201,3.3,
274301,3.0,
274501,4.5,
274601,100.9,
274701,88.8,
274801,69.3,
274901,92.9,
275001,104.3,
275101,88.1,
275201,33.3,
275301,5.2,
275501,3.4,
275601,3.5,
275701,2.6,
275801,2.6,
275901,2.5,
276001,2.4,
276101,6.9,
276201,72.2,
276301,114.8,
276401,95.6,
276501,78.3,
276601,79.0,
276701,115.5,
276801,49.7,
276901,6.2,
277001,6.0,
277101,4.6,
277201,4.6,
277301,2.5,
277501,2.9,
277601,3.1,
277701,3.7,
277801,59.0,
277901,88.5,
278001,110.3,
278101,102.7,
278201,91.5,
278301,114.4,
278501,5.9,
278601,5.9,
278701,4.7,
278801,4.1,
278901,3.2,
279001,4.0,
279101,2.9,
279201,4.0,
279301,2.7,
279501,92.7,
279601,71.6,
279701,111.7,
279801,130.9,
279901,110.1,
280001,82.6,
280101,6.3,
280201,4.0,
280301,4.0,
280501,3.4,
280601,2.8,
280701,2.8,
280801,3.0,
280901,2.1,
281001,49.0,
281101,128.1,
281201,109.5,
281301,95.3,
281501,114.6,
281601,92.2,
281701,7.6,
281801,2.9,
281901,3.4,
282001,3.3,
282101,2.8,
282201,3.0,
282301,2.1,
282501,3.1,
282601,2.4,
282701,118.5,
282801,144.8,
282901,123.9,
283001,84.1,
283101,73.2,
283201,101.4,
283301,8.3,
283501,4.8,
283601,3.7,
283701,2.9,
283801,3.3,
283901,5.7,
284001,3.3,
284101,3.0,
284201,2.8,
284301,110.0,
284501,106.8,
284601,93.8,
284701,80.2,
284801,66.4,
284901,10.7,
285001,3.8,
285101,5.3,
285201,3.5,
285301,3.0,
285501,3.3,
285601,2.5,
285701,2.2,
285801,2.9,
285901,139.3,
286001,108.5,
286101,72.1,
286201,88.3,
286301,103.3,
286501,14.3,
286601,3.5,
286701,4.9,
286801,4.1,
286901,3.7,
287001,3.2,
287101,2.9,
287201,3.4,
287301,6.0,
287401,5.2,
287501,110.4,
287601,117.4,
287701,88.0,
287801,75.6,
287901,81.0,
288001,103.3,
288101,17.6,
288201,3.8,
288301,3.6,
288501,4.6,
288601,3.5,
288701,2.7,
288801,2.9,
288901,2.5,
289001,3.9,
289101,80.6,
289201,76.0,
289301,97.0,
289501,77.6,
289601,73.5,
289701,25.3,
289801,5.0,
289901,5.5,
290001,5.5,
290101,3.8,
290201,3.8,
290301,3.7,
290401,3.7,
290501,3.4,
290601,3.9,
290701,100.2,
290801,91.4,
290901,73.4,
291001,102.9,
291101,109.7,
291201,95.9,
291301,36.7,
291501,5.3,
291601,3.9,
291701,3.3,
291801,3.4,
291901,3.0,
292001,2.8,
292101,3.7,
292201,2.5,
292301,86.4,
292501,92.0,
292601,80.4,
292701,119.7,
292801,133.3,
292901,46.7,
293001,4.7,
293101,4.4,
293201,3.3,
293301,3.6,
293501,2.3,
293601,2.4,
293701,2.1,
293801,2.3,
293901,56.9,
294001,109.2,
294101,147.1,
294201,129.5,
294301,104.2,
294501,60.1,
294601,5.8,
294701,3.4,
294801,4.0,
294901,3.3,
295001,3.0,
295101,3.7,
295201,2.9,
295301,2.3,
295401,3.0,
295501,82.1,
295601,112.7,
295701,136.7,
295801,133.0,
295901,109.8,
296001,93.6,
296101,78.4,
296201,6.4,
296301,3.8,
296501,3.4,
296601,4.1,
296701,2.5,
296801,3.2,
296901,3.9,
297001,3.3,
297101,74.7,
297201,138.5,
297301,94.9,
297501,107.0,
297601,114.9,
297701,96.6,
297801,8.3,
297901,5.0,
298001,4.3,
298101,4.1,
298201,6.7,
298301,5.2,
298401,6.0,
298501,4.2,
298601,3.4,
298701,3.6,
298801,104.2,
298901,118.3,
299001,99.5,
299101,85.2,
299201,108.7,
299301,148.4,
299501,3.9,
299601,4.9,
299701,6.0,
299801,3.8,
299901,3.7,
300001,3.9,
300101,2.9,
300201,2.6,
300301,2.1,
300401,92.3,
300501,90.8,
300601,111.2,
300701,110.2,
300801,103.8,
300901,116.8,
301001,13.4,
301101,3.8,
301201,4.0,
301301,3.1,
301501,3.1,
301601,3.8,
301701,3.2,
301801,2.6,
301901,2.5,
302001,118.0,
302101,89.7,
302201,84.8,
302301,128.7,
302501,105.8,
302601,14.9,
302701,2.8,
302801,3.6,
302901,3.9,
303001,2.9,
303101,3.5,
303201,3.0,
303301,3.4,
303401,3.6,
303501,3.4,
303601,107.1,
303701,129.3,
303801,112.5,
303901,91.0,
304001,84.5,
304101,99.4,
304201,16.7,
304301,4.3,
304501,3.3,
304601,2.9,
304701,2.7,
304801,3.0,
304901,3.2,
305001,3.1,
305101,3.4,
305201,90.1,
305301,135.5,
305501,99.6,
305601,71.1,
305701,71.1,
305801,20.5,
305901,3.6,
306001,4.7,
306101,3.2,
306201,3.1,
306301,2.3,
306501,2.8,
306601,2.9,
306701,2.8,
306801,115.1,
306901,109.5,
307001,103.8,
307101,98.8,
307201,98.5,
307301,79.6,
307401,28.6,
307501,3.5,
307601,3.5,
307701,3.5,
307801,3.7,
307901,2.9,
308001,2.8,
308101,3.9,
308201,2.4,
308301,2.9,
308501,140.9,
308601,93.2,
308701,65.8,
308801,90.9,
308901,102.8,
309001,39.9,
309101,3.7,
309201,3.8,
309301,3.6,
309401,2.9,
309501,2.8,
309601,2.3,
309701,2.9,
309801,3.0,
309901,3.8,
310001,56.6,
310101,94.1,
310201,102.8,
310301,86.2,
310501,83.8,
310601,55.8,
310701,5.3,
310801,4.1,
310901,3.2,
311001,4.3,
311101,9.0,
311201,2.9,
311301,4.1,
311401,4.0,
311501,3.2,
311601,62.9,
311701,82.0,
311801,76.3,
311901,96.4,
312001,105.2,
312101,92.7,
312201,77.0,
312301,6.1,
312401,4.0,
312501,4.0,
312601,3.9,
312701,2.5,
312801,3.6,
312901,2.3,
313001,3.4,
313101,2.6,
313201,39.6,
313301,105.8,
313401,81.4,
313501,86.7,
313601,122.8,
313701,125.5,
313801,85.0,
313901,6.9,
314001,2.7,
314101,2.5,
314201,2.2,
314301,2.9,
314501,2.4,
314601,3.6,
314701,3.0,
314801,2.9,
314901,98.7,
315001,111.5,
315101,100.6,
315201,90.4,
315301,102.8,
315501,8.6,
315601,3.0,
315701,3.1,
315801,2.8,
315901,3.5,
316001,2.3,
316101,2.5,
316201,2.3,
316301,2.4,
316401,3.0,
316501,79.4,
316601,114.8,
316701,133.8,
316801,111.1,
316901,76.5,
317001,62.4,
317101,8.9,
317201,3.0,
317301,3.3,
317501,3.4,
317601,2.5,
317701,2.4,
317801,2.7,
317901,2.9,
318001,3.0,
318101,131.1,
318201,103.9,
318301,84.4,
318501,87.2,
318601,76.9,
318701,12.0,
318801,3.4,
318901,3.3,
319002,6.2,
319102,4.0,
319202,3.4,
319302,4.3,
319402,5.0,
319502,3.7,
319602,2.9,
319702,110.3,
319802,101.8,
319902,75.4,
320002,61.3,
320102,86.9,
320202,92.9,
320302,15.8,
320502,2.6,
320602,3.0,
320702,2.3,
320802,2.4,
320902,3.1,
321002,3.1,
321102,3.1,
321202,3.1,
321302,68.9,
321402,91.8,
321502,99.7,
321602,81.3,
321702,73.7,
321802,107.4,
321902,23.4,
322002,3.1,
322102,3.9,
322202,3.7,
322302,2.3,
322502,2.6,
322602,2.0,
322702,2.5,
322802,2.4,
322902,86.4,
323002,76.5,
323102,78.6,
323202,109.0,
323302,112.5,
323502,30.4,
323602,3.9,
323702,2.7,
323802,2.1,
323902,3.1,
324002,2.8,
324102,2.5,
324202,3.0,
324302,2.8,
324502,86.0,
324602,99.2,
324702,90.7,
324802,122.5,
324902,126.4,
325002,104.3,
325102,34.5,
325202,3.9,
325302,2.8,
325502,3.6,
325602,5.4,
325702,3.1,
325802,3.3,
325902,4.5,
326002,2.9,
326102,77.4,
326202,132.1,
326302,135.6,
326502,67.8,
326602,83.9,
326702,46.7,
326802,4.3,
326902,2.8,
327002,3.7,
327102,3.7,
327202,2.7,
327302,2.0,
327402,1.9,
327502,2.5,
327602,1.9,
327702,78.5,
327802,93.9,
327902,95.6,
328002,97.3,
328102,80.5,
328202,68.5,
328302,57.6,
328502,6.5,
328602,3.7,
328702,3.3,
328802,3.8,
328902,5.3,
329002,6.2,
329102,5.2,
329202,3.3,
329302,55.8,
329402,94.0,
329502,72.8,
329602,74.3,
329702,98.6,
329802,96.2,
329902,92.4,
330002,6.8,
330102,3.0,
330202,4.1,
330302,3.4,
330402,3.0,
330502,6.6,
330602,2.7,
330702,3.4,
330802,4.2,
330902,11.5,
331002,92.8,
331102,88.5,
331202,74.9,
331302,94.0,
331502,118.6,
331602,8.6,
331702,4.0,
331802,9.7,
331902,4.9,
332002,6.1,
332102,2.7,
332202,4.4,
332302,3.6,
332402,3.5,
332502,2.9,
332602,69.9,
332702,87.8,
332802,112.9,
332902,103.8,
333002,87.2,
333102,99.4,
333202,9.8,
333302,2.8,
333502,3.0,
333602,2.5,
333702,2.7,
333802,2.1,
333902,2.0,
334002,2.3,
334102,2.5,
334202,88.5,
334302,78.9,
334502,136.8,
334602,102.1,
334702,77.6,
334802,11.2,
334902,3.0,
335002,3.8,
335102,2.9,
335202,2.6,
335302,2.9,
335502,2.3,
335602,3.1,
335702,2.4,
335802,107.2,
335902,118.3,
336002,98.4,
336102,95.6,
336202,85.1,
336302,85.8,
336402,14.3,
336502,2.8,
336602,2.7,
336702,3.7,
336802,4.9,
336902,2.3,
337002,2.2,
337102,2.8,
337202,2.5,
337302,2.7,
337502,122.2,
337602,99.8,
337702,69.9,
337802,62.1,
337902,83.8,
338002,19.5,
338102,3.6,
338202,3.8,
338302,3.6,
338502,3.4,
338602,5.1,
338702,3.5,
338802,3.3,
338902,3.9,
339002,84.2,
339102,65.9,
339202,78.4,
339302,96.7,
339402,80.1,
339502,70.9,
339602,27.5,
339702,3.4,
339802,6.4,
339902,4.9,
340002,5.8,
340102,5.8,
340202,2.9,
340302,3.8,
340402,4.9,
340502,2.9,
340602,78.4,
340702,83.8,
340802,66.6,
340902,67.8,
341002,103.9,
341102,115.3,
341202,41.2,
341302,4.9,
341502,2.8,
341602,3.3,
341702,4.8,
341802,4.2,
341902,3.5,
342002,2.6,
342102,2.8,
342202,52.7,
342302,93.2,
342402,91.6,
342502,84.4,
342602,113.9,
342702,117.9,
342802,49.2,
342902,5.3,
343002,3.1,
343102,3.8,
343202,4.3,
343302,2.9,
343502,4.4,
343602,3.1,
343702,2.9,
343802,60.5,
343902,79.4,
344002,115.9,
344102,134.9,
344202,113.3,
344302,86.7,
344502,5.3,
344602,2.9,
344702,3.1,
344802,3.4,
344902,3.4,
345002,2.8,
345102,3.6,
345202,3.3,
345302,3.1,
345402,63.1,
345502,98.3,
345602,87.7,
345702,130.8,
345802,136.9,
345902,102.3,
346002,72.5,
346102,6.3,
346202,6.7,
346302,3.1,
346502,2.4,
346602,3.4,
346702,3.3,
346802,2.8,
346902,2.5,
347002,24.9,
347102,121.7,
347202,123.4,
347302,97.9,
347502,91.4,
347602,87.9,
347702,7.2,
347802,2.9,
347902,2.8,
348002,2.9,
348102,2.1,
348202,2.7,
348302,2.3,
348402,3.1,
348502,3.4,
348602,3.6,
348702,129.1,
348802,120.5,
348902,110.9,
349002,87.2,
349102,71.4,
349202,93.4,
349302,9.6,
349502,3.0,
349602,2.9,
349702,3.3,
349802,2.8,
349902,2.7,
350002,2.6,
350102,2.7,
350202,2.4,
350302,129.7,
350502,90.1,
350602,111.1,
350702,91.2,
350802,77.6,
350902,12.1,
351002,3.6,
351102,2.8,
351202,3.9,
351302,4.8,
351502,3.9,
351602,3.1,
351702,3.6,
351802,2.7,
351902,140.9,
352002,99.0,
352102,73.6,
352202,73.0,
352302,100.8,
352502,15.4,
352602,3.7,
352702,4.4,
352802,3.0,
352902,4.6,
353002,3.9,
353102,4.3,
353202,3.5,
353302,3.3,
353402,3.1,
353502,119.1,
353602,120.5,
353702,104.8,
353802,85.0,
353902,89.1,
354002,128.4,
354102,23.8,
354202,4.7,
354302,4.4,
354502,7.2,
354602,3.2,
354702,2.9,
354802,5.9,
354902,5.6,
355002,13.7,
355102,128.6,
355202,89.2,
355302,99.1,
355502,107.6,
355602,94.2,
355702,31.8,
355802,4.1,
355902,3.4,
356002,6.4,
356102,5.9,
356202,5.0,
356302,4.5,
356402,5.9,
356502,4.1,
356602,5.1,
356702,156.2,
356802,111.6,
356902,77.3,
357002,112.4,
357102,140.8,
357202,113.0,
357302,36.6,
357502,3.7,
357602,3.3,
357702,2.8,
357802,2.5,
357902,2.6,
358002,3.4,
358102,3.0,
358202,2.9,
358302,81.5,
358402,109.4,
358502,112.5,
358602,98.9,
358702,110.7,
358802,95.0,
358902,38.5,
359002,4.3,
359102,6.1,
359202,4.5,
359302,3.1,
359502,4.7,
359602,3.8,
359702,4.1,
359802,6.8,
359902,62.6,
360002,121.9,
360102,129.8,
360202,118.5,
360302,76.8,
360502,51.5,
360602,4.9,
360702,5.8,
360802,4.2,
360902,2.8,
361002,3.3,
361102,3.0,
361202,3.4,
361302,6.1,
361402,4.9,
361502,91.1,
361602,116.0,
361702,78.4,
361802,78.6,
361902,87.3,
362002,84.7,
362102,69.1,
362202,6.1,
362302,3.3,
362502,2.3,
362602,2.3,
362702,2.0,
362802,2.6,
362902,2.6,
363002,2.1,
363102,44.3,
363202,121.7,
363302,83.4,
363402,64.5,
363502,69.5,
363602,90.7,
363702,85.9,
363802,7.0,
363902,5.9,
364002,10.2,
364102,3.6,
364202,7.7,
364302,3.9,
364502,3.2,
364602,3.4,
364702,4.6,
364802,76.7,
364902,92.6,
365002,86.3,
365102,75.3,
365202,63.1,
365302,103.9,
365402,9.1,
365502,3.3,
365602,4.2,
365702,4.3,
365802,5.1,
365902,3.8,
366002,5.6,
366102,5.2,
366202,3.1,
366302,2.8,
366502,66.9,
366602,85.8,
366702,93.9,
366802,77.3,
366902,69.6,
367002,11.8,
367102,4.0,
367202,4.4,
367302,4.2,
367502,2.9,
367602,3.6,
367702,3.2,
367802,3.9,
367902,4.4,
368002,102.8,
368102,83.7,
368202,68.2,
368302,78.8,
368502,104.3,
368602,16.5,
368702,3.6,
368802,5.1,
368902,3.1,
369002,4.6,
369102,3.7,
369202,3.7,
369302,3.7,
369402,4.2,
369502,3.0,
369602,71.4,
369702,96.0,
369802,82.9,
369902,67.7,
370002,81.4,
370102,118.1,
370202,20.9,
370302,3.7,
370502,4.1,
370602,3.9,
370702,2.9,
370802,3.5,
370902,2.7,
371002,3.0,
371102,3.3,
371202,74.1,
371302,73.3,
371502,89.5,
371602,79.7,
371702,76.4,
371802,27.7,
371902,4.1,
372002,3.1,
372102,4.9,
372202,4.1,
372302,4.3,
372502,3.8,
372602,4.0,
372702,2.5,
372802,89.5,
372902,81.6,
373002,63.1,
373102,88.3,
373202,116.5,
373302,105.2,
373502,4.1,
373602,3.7,
373702,4.5,
373802,4.6,
373902,4.5,
374002,3.4,
374102,3.6,
374202,3.9,
374302,5.7,
374502,100.6,
374602,88.6,
374702,76.2,
374802,113.5,
374902,113.5,
375002,42.1,
375102,4.6,
375202,4.8,
375302,3.1,
375502,4.5,
375602,3.4,
375702,4.1,
375802,3.0,
375902,3.5,
376002,58.0,
376102,94.7,
376202,130.0,
376302,131.9,
376502,76.4,
376602,54.7,
376702,5.0,
376802,2.8,
376902,2.8,
377002,2.9,
377102,3.2,
377202,3.3,
377302,2.9,
377502,2.3,
377602,84.3,
377702,116.6,
377802,87.8,
377902,93.3,
378002,102.2,
378102,96.2,
378202,80.7,
378302,6.4,
378402,3.1,
378502,5.4,
378602,5.6,
378702,2.9,
378802,3.3,
378902,3.5,
379002,3.0,
379102,3.1,
379202,69.4,
379302,140.9,
379402,92.2,
379502,70.0,
379602,82.2,
379702,112.5,
379802,102.2,
379902,7.5,
380002,3.3,
380102,3.2,
380202,3.4,
380302,2.8,
380502,2.5,
380602,3.3,
380702,3.2,
380802,3.2,
380902,89.8,
381002,103.2,
381102,96.0,
381202,78.5,
381302,77.7,
381502,10.3,
381602,3.6,
381702,5.7,
381802,3.8,
381902,3.8,
382002,6.9,
382102,4.4,
382202,3.9,
382302,4.5,
382402,4.4,
382502,88.5,
382602,76.6,
382702,93.3,
382802,101.1,
382902,91.0,
383002,84.9,
383102,13.6,
383202,4.6,
383302,3.8,
383502,6.0,
383602,5.4,
383702,3.7,
383802,3.4,
383902,4.8,
384002,4.1,
384102,115.9,
384202,88.3,
384302,69.3,
384502,121.2,
384602,112.5,
384702,17.5,
384802,4.3,
384902,5.4,
385002,6.4,
385102,4.8,
385202,3.7,
385302,4.7,
385502,2.8,
385602,3.7,
385702,91.9,
385802,106.3,
385902,87.0,
386002,80.3,
386102,116.6,
386202,123.0,
386302,21.0,
386402,3.2,
386502,2.9,
386602,3.9,
386702,2.9,
386802,3.0,
386902,2.7,
387002,2.5,
387102,2.8,
387202,3.5,
387302,75.3,
387502,98.8,
387602,112.4,
387702,99.5,
387802,83.0,
387902,26.6,
388002,4.2,
388102,3.8,
388202,4.0,
388302,2.9,
388502,3.1,
388602,3.0,
388702,5.4,
388802,2.6,
388902,97.4,
389002,90.4,
389102,78.3,
389202,123.2,
389302,118.7,
389502,28.0,
389602,3.9,
389702,4.2,
389802,5.4,
389902,4.5,
390002,4.6,
390102,4.1,
390202,4.1,
390302,3.1,
390502,107.3,
390602,138.8,
390702,113.5,
390802,81.4,
390902,68.0,
391002,88.5,
391102,37.6,
391202,4.6,
391302,5.6,
391502,6.1,
391602,3.8,
391702,5.1,
391802,3.7,
391902,4.4,
392002,4.1,
392102,67.8,
392202,116.9,
392302,110.5,
392502,71.0,
392602,73.4,
392702,53.1,
392802,6.0,
392902,3.8,
393002,4.5,
393102,3.3,
393202,2.8,
393302,2.8,
393502,2.9,
393602,2.7,
393702,86.3,
393802,104.5,
393902,80.0,
394002,77.7,
394102,94.1,
394202,78.2,
394302,64.7,
394502,4.2,
394602,4.0,
394702,5.7,
394802,2.5,
394902,2.5,
395002,3.2,
395102,2.7,
395202,5.8,
395302,46.6,
395502,77.7,
395602,65.2,
395702,82.8,
395802,96.3,
395902,90.2,
396002,6.9,
396102,3.1,
396202,3.6,
396302,2.8,
396502,3.1,
396602,3.2,
396702,3.7,
396802,4.1,
396902,4.9,
397002,86.6,
397102,102.2,
397202,91.9,
397302,76.7,
397502,115.1,
397602,9.6,
397702,3.6,
397802,3.1,
397902,6.3,
398002,3.6,
398102,2.4,
398202,2.1,
398302,2.3,
398402,2.5,
398502,2.5,
398602,84.0,
398702,77.4,
398802,96.2,
398902,95.0,
399002,81.2,
399102,79.0,
399202,12.3,
399302,3.3,
399502,3.8,
399602,2.5,
399702,2.3,
399802,3.0,
399902,2.0,
400002,2.0,
400102,2.4,
400202,115.2,
400302,85.3,
400402,67.9,
400502,98.3,
400602,121.1,
400702,108.0,
400802,15.8,
400902,4.1,
401002,3.9,
401102,2.7,
401202,2.5,
401302,2.7,
401502,2.8,
401602,3.0,
401702,2.6,
401802,101.3,
401902,111.4,
402002,93.0,
402102,86.2,
402202,110.8,
402302,108.8,
402502,5.8,
402602,3.5,
402702,2.4,
402802,3.0,
402902,2.2,
403002,2.8,
403102,2.6,
403202,3.0,
403302,3.5,
403402,79.1,
403502,102.7,
403602,132.8,
403702,110.9,
403802,83.1,
403902,61.2,
404002,20.3,
404102,3.5,
404202,2.8,
404302,3.5,
404502,3.0,
404602,3.4,
404702,2.3,
404802,2.4,
404902,3.2,
405002,107.9,
405102,99.7,
405202,113.7,
405302,100.5,
405502,72.1,
405602,28.2,
405702,4.0,
405802,4.3,
405902,3.1,
406002,2.7,
406102,3.0,
406202,2.6,
406302,2.2,
406402,2.8,
406502,1.9,
406602,111.6,
406702,134.6,
406802,89.8,
406902,60.6,
407002,74.5,
407102,94.3,
407202,37.3,
407302,4.3,
407502,3.2,
407602,3.2,
407702,2.3,
407802,2.6,
407902,3.1,
408002,2.7,
408102,2.8,
408202,63.5,
408302,97.0,
408402,89.3,
408502,73.4,
408602,66.6,
408702,69.6,
408802,48.7,
408902,6.0,
409002,3.9,
409102,4.0,
409202,3.7,
409302,3.1,
409402,3.5,
409502,3.0,
409602,3.1,
409702,3.9,
409802,65.8,
409902,85.2,
410002,74.0,
410102,88.4,
410202,85.2,
410302,82.5,
410402,75.4,
410502,6.1,
410602,3.0,
410702,3.0,
410802,2.9,
410902,2.7,
411002,3.6,
411102,2.9,
411202,2.8,
411302,2.4,
411402,41.3,
411502,105.9,
411602,81.9,
411702,63.4,
411802,118.0,
411902,123.8,
412002,99.3,
412102,7.9,
412202,4.3,
412302,3.2,
412402,3.6,
412502,4.2,
412602,3.8,
412702,2.7,
412802,2.8,
412902,2.7,
413002,3.3,
413102,96.8,
413202,105.4,
413302,89.0,
413502,101.4,
413602,99.6,
413702,8.1,
413802,3.1,
413902,3.3,
414002,3.3,
414102,2.4,
414202,2.5,
414302,3.2,
414502,3.4,
414602,2.5,
414702,87.8,
414802,118.1,
414902,124.4,
415002,92.9,
415102,68.4,
415202,59.1,
415302,9.7,
415402,3.4,
415502,3.3,
415602,2.1,
415702,2.6,
415802,2.8,
415902,2.7,
416002,2.6,
416102,2.5,
416202,3.1,
416302,132.0,
416502,67.3,
416602,78.0,
416702,88.4,
416802,72.8,
416902,12.1,
417002,3.1,
417102,3.3,
417202,3.7,
417302,2.6,
417402,2.9,
417502,2.2,
417602,2.9,
417702,2.6,
417802,3.5,
417902,111.8,
418002,98.5,
418102,71.9,
418202,60.6,
418302,77.1,
418502,16.0,
418602,3.6,
418702,3.9,
418802,3.6,
418902,3.4,
419002,3.8,
419102,3.1,
419202,2.7,
419302,3.6,
419402,2.8,
419502,71.1,
419602,91.9,
419702,101.7,
419802,81.8,
419902,70.8,
420002,102.3,
420102,24.2,
420202,4.3,
420302,3.2,
420502,3.0,
420602,2.6,
420702,2.2,
420802,4.0,
420902,3.3,
421002,2.3,
421102,96.0,
421202,81.5,
421302,77.6,
421402,111.4,
421502,113.0,
421602,89.5,
421702,29.9,
421802,3.9,
421902,3.2,
422002,3.3,
422102,3.1,
422202,2.3,
422302,2.7,
422502,2.6,
422602,2.4,
422702,85.6,
422802,103.3,
422902,86.4,
423002,71.8,
423102,109.0,
423202,96.9,
423302,32.6,
423502,3.0,
423602,3.0,
423702,2.9,
423802,3.7,
423902,2.9,
424002,2.5,
424102,2.9,
424202,2.9,
424302,54.6,
424502,128.9,
424602,86.4,
424702,60.5,
424802,70.0,
424902,43.7,
425002,4.7,
425102,3.1,
425202,2.9,
425302,3.0,
425502,2.5,
425602,3.1,
425702,2.7,
425802,2.9,
425902,82.0,
426002,91.5,
426102,77.9,
426202,84.9,
426302,82.0,
426402,70.7,
426502,59.6,
426602,5.9,
426702,3.3,
426802,4.7,
426902,3.0,
427002,3.3,
427102,3.1,
427202,2.9,
427302,2.6,
427402,3.2,
427502,65.4,
427602,114.5,
427702,75.1,
427802,68.1,
427902,84.8,
428002,92.6,
428102,76.1,
428202,5.8,
428302,3.2,
428502,2.9,
428602,2.7,
428702,3.0,
428802,2.9,
428902,2.6,
429002,3.0,
429102,12.7,
429202,99.6,
429302,101.3,
429402,77.9,
429502,67.5,
429602,83.5,
429702,100.2,
429802,29.0,
429902,3.7,
430002,4.3,
430102,10.2,
430202,4.0,
430302,3.9,
430402,2.7,
430502,2.8,
430602,2.6,
430702,2.5,
430802,78.2,
430902,89.7,
431002,98.1,
431102,81.1,
431202,79.9,
431302,107.4,
431502,3.0,
431602,3.9,
431702,2.8,
431802,4.0,
431902,3.0,
432002,3.0,
432102,3.2,
432202,3.0,
432302,2.5,
432402,102.9,
432502,75.8,
432602,78.2,
432702,112.6,
432802,108.0,
432902,83.1,
433002,12.3,
433102,3.2,
433202,4.5,
433302,4.8,
433502,3.3,
433602,3.5,
433702,4.1,
433802,3.0,
433902,57.7,
434002,123.5,
434102,120.3,
434202,92.1,
434302,73.6,
434502,85.6,
434602,15.6,
434702,4.1,
434802,3.1,
434902,6.2,
435002,2.3,
435102,3.0,
435202,3.2,
435302,7.2,
435402,5.4,
435502,3.6,
435602,82.8,
435702,126.3,
435802,101.4,
435902,71.1,
436002,63.4,
436102,75.6,
436202,23.5,
436302,3.3,
436402,3.7,
436502,2.9,
436602,3.9,
436702,3.0,
436802,2.5,
436902,2.6,
437002,3.0,
437102,2.2,
437202,109.4,
437302,85.3,
437502,81.8,
437602,78.8,
437702,69.5,
437802,25.4,
437902,6.5,
438002,4.8,
438102,3.5,
438202,46.6,
438302,19.7,
438402,4.8,
438502,4.2,
438602,5.7,
438702,15.8,
438802,111.8,
438902,96.0,
439002,65.8,
439102,65.5,
439202,85.5,
439302,91.4,
439502,4.0,
439602,4.7,
439702,3.4,
439802,3.2,
439902,2.3,
440002,2.6,
440102,4.3,
440202,3.8,
440302,3.7,
440402,76.4,
440502,94.0,
440602,82.3,
440702,66.8,
440802,56.3,
440902,72.3,
441002,39.1,
441102,5.4,
441202,4.3,
441302,9.5,
441502,4.2,
441602,5.1,
441702,5.2,
441802,6.4,
441902,7.7,
442002,72.6,
442102,72.4,
442202,81.4,
442302,101.0,
442502,69.5,
442602,62.9,
442702,7.4,
442802,4.3,
442902,3.1,
443002,6.0,
443102,4.5,
443202,5.2,
443302,3.5,
443402,3.1,
443502,2.4,
443602,56.0,
443702,96.7,
443802,77.2,
443902,79.8,
444002,95.8,
444102,97.7,
444202,86.9,
444302,8.0,
444502,3.4,
444602,2.6,
444702,2.7,
444802,2.6,
444902,5.4,
445002,2.6,
445102,2.5,
445202,20.3,
445302,104.3,
445402,100.6,
445502,76.5,
445602,66.8,
445702,120.7,
445802,114.1,
445902,11.5,
446002,7.3,
446102,3.7,
446202,2.3,
446302,2.7,
446502,2.4,
446602,2.8,
446702,4.4,
446802,3.1,
446902,76.2,
447002,98.7,
447102,110.2,
447202,99.5,
447302,74.0,
447502,14.6,
447602,3.8,
447702,7.3,
447802,3.8,
447902,3.7,
448002,3.7,
448102,7.8,
448202,3.5,
448302,19.4,
448402,10.4,
448502,102.0,
448602,86.5,
448702,104.9,
448802,101.9,
448902,89.0,
449002,75.6,
449102,15.5,
449202,4.3,
449302,3.4,
449502,2.5,
449602,4.8,
449702,3.6,
449802,2.5,
449902,4.5,
450002,2.9,
450102,113.1,
450202,113.6,
450302,90.1,
450502,117.9,
450602,102.2,
450702,61.5,
450802,8.4,
450902,4.6,
451002,2.5,
451102,3.9,
451202,3.0,
451302,5.8,
451402,89.9,
451502,55.4,
451602,118.7,
451702,129.3,
451802,137.2,
451902,102.1,
452002,73.3,
452102,65.5,
452202,90.9,
452302,25.2,
452402,3.8,
452502,4.0,
452602,12.4,
452702,3.7,
452802,2.8,
452902,34.7,
453002,13.7,
453102,3.1,
453202,11.6,
453302,106.2,
453502,96.2,
453602,91.7,
453702,86.0,
453802,78.3,
453902,31.7,
454002,4.9,
454102,8.6,
454202,4.6,
454302,3.8,
454502,8.1,
454602,3.7,
454702,3.6,
454802,2.6,
454902,114.6,
455002,100.2,
455102,72.6,
455202,82.0,
455302,102.1,
455502,37.6,
455602,4.4,
455702,4.6,
455802,3.2,
455902,3.5,
456002,19.9,
456102,3.9,
456202,2.8,
456302,4.0,
456402,2.3,
456502,58.4,
456602,101.4,
456702,100.0,
456802,81.1,
456902,67.5,
457002,95.1,
457102,47.2,
457202,7.3,
457302,3.8,
457402,4.8,
457502,7.4,
457602,7.9,
457702,21.6,
457802,6.7,
457902,13.4,
458002,3.6,
458102,65.5,
458202,79.8,
458302,107.6,
458502,88.8,
458602,104.9,
458702,90.9,
458802,11.3,
458902,16.7,
459002,4.5,
459102,5.8,
459202,5.6,
459302,6.9,
459502,31.1,
459602,10.3,
459702,65.5,
459802,91.8,
459902,69.7,
460002,93.5,
460102,122.6,
460202,96.6,
460302,72.0,
460402,6.9,
460502,17.8,
460602,8.6,
460702,7.1,
460802,5.3,
460902,3.8,
461002,4.6,
461102,4.8,
461202,3.2,
461302,29.4,
461402,110.0,
461502,100.8,
461602,84.0,
461702,98.6,
461802,97.3,
461902,83.2,
462002,8.0,
462102,13.0,
462202,13.0,
462302,3.2,
462502,3.8,
462602,3.2,
462702,8.3,
462802,6.3,
462902,17.2,
463002,89.0,
463102,119.7,
463202,115.4,
463302,85.7,
463402,64.0,
463502,81.3,
463602,9.1,
463702,3.3,
463802,10.1,
463902,4.1,
464002,2.8,
464102,8.8,
464202,6.9,
464302,4.3,
464502,2.9,
464602,100.4,
464702,81.8,
464802,79.6,
464902,91.2,
465002,85.2,
465102,70.4,
465202,12.1,
465302,4.4,
465402,5.2,
465502,3.5,
465602,6.3,
465702,4.0,
465802,4.5,
465902,2.3,
466002,2.0,
466102,9.4,
466202,103.5,
466302,85.7,
466402,70.6,
466502,81.4,
466602,100.8,
466702,96.6,
466802,14.7,
466902,3.2,
467002,3.3,
467102,2.9,
467202,5.5,
467302,3.3,
467502,3.1,
467602,3.7,
467702,3.0,
467802,69.0,
467902,100.6,
468002,96.9,
468102,78.3,
468202,67.0,
468302,94.8,
468402,23.7,
468502,39.0,
468602,11.6,
468702,15.8,
468802,13.1,
468902,4.9,
469002,3.4,
469102,5.2,
469202,2.2,
469302,4.3,
469402,73.2,
469502,68.9,
469602,95.5,
469702,100.9,
469802,82.6,
469902,75.0,
470002,27.5,
470102,5.3,
470202,3.2,
470302,3.6,
470502,4.7,
470602,3.2,
470702,2.6,
470802,3.1,
470902,2.8,
471002,89.2,
471102,89.8,
471202,71.2,
471302,83.4,
471502,101.4,
471602,36.8,
471702,6.1,
471802,3.5,
471902,3.1,
472002,5.4,
472102,3.4,
472202,4.9,
472302,2.7,
472402,2.8,
472502,2.1,
472602,66.3,
472702,104.8,
472802,90.4,
472902,75.3,
473002,91.4,
473102,119.6,
473202,51.5,
473302,4.7,
473502,3.4,
473602,4.1,
473702,4.1,
473802,2.4,
473902,3.9,
474002,4.6,
474102,2.8,
474202,57.4,
474302,72.4,
474502,110.8,
474602,94.0,
474702,69.2,
474802,48.7,
474902,4.4,
475002,11.0,
475102,7.6,
475202,3.1,
475302,3.2,
475502,3.6,
475602,9.2,
475702,3.2,
475802,66.6,
475902,94.2,
476002,83.5,
476102,94.0,
476202,93.9,
476302,77.8,
476502,5.7,
476602,4.0,
476702,3.2,
476802,3.3,
476902,3.0,
477002,2.5,
477102,2.3,
477202,2.6,
477302,2.5,
477502,124.3,
477602,102.4,
477702,67.9,
477802,69.3,
477902,99.3,
478002,96.9,
478102,7.9,
478202,4.6,
478302,5.5,
478502,4.1,
478602,3.1,
478702,4.3,
478802,2.7,
478902,2.6,
479002,3.5,
479102,76.0,
479202,90.7,
479302,88.8,
479502,67.4,
479602,98.7,
479702,9.2,
479802,3.4,
479902,4.1,
480002,3.1,
480102,4.2,
480202,3.8,
480302,3.0,
480502,3.0,
480602,2.3,
480702,75.7,
480802,67.1,
480902,92.7,
481002,93.4,
481102,81.0,
481202,76.5,
481302,12.4,
481502,3.1,
481602,2.7,
481702,2.9,
481802,3.3,
481902,3.2,
482002,3.7,
482102,2.7,
482202,2.9,
482302,104.6,
482502,74.1,
482602,102.5,
482702,124.2,
482802,100.6,
482902,15.2,
483002,6.4,
483102,4.6,
483202,3.2,
483302,6.5,
483502,3.4,
483602,4.5,
483702,2.8,
483802,3.3,
483902,77.2,
484002,98.4,
484102,98.3,
484202,87.1,
484302,98.3,
484502,17.4,
484602,3.0,
484702,3.5,
484802,3.2,
484902,3.0,
485002,3.4,
485102,3.4,
485202,3.3,
485302,3.2,
485402,2.6,
485502,70.5,
485602,91.0,
485702,118.9,
485802,103.3,
485902,70.9,
486002,61.1,
486102,21.4,
486202,4.6,
486302,2.8,
486502,3.2,
486602,4.2,
486702,3.6,
486802,3.5,
486902,2.2,
487002,3.9,
487102,104.7,
487202,103.4,
487302,74.1,
487502,87.0,
487602,84.5,
487702,30.3,
487802,4.1,
487902,3.8,
488002,3.3,
488102,5.6,
488202,2.5,
488302,3.0,
488402,3.5,
488502,2.9,
488602,4.3,
488702,95.3,
488802,108.3,
488902,75.3,
489002,65.2,
489102,70.6,
489202,90.8,
489302,37.9,
489402,3.8,
489502,2.8,
489602,3.9,
489702,3.2,
489802,4.7,
489902,3.7,
490002,3.5,
490102,3.2,
490202,3.0,
490302,58.1,
490502,83.1,
490602,84.8,
490702,70.3,
490802,60.7,
490902,51.2,
491002,4.6,
491102,3.1,
491202,3.2,
491302,3.3,
491502,8.6,
491602,2.8,
491702,2.5,
491802,3.2,
491902,62.4,
492002,73.4,
492102,57.9,
492202,83.9,
492302,89.4,
492502,78.6,
492602,6.3,
492702,3.9,
492802,6.2,
492902,4.0,
493002,3.5,
493102,3.2,
493202,2.8,
493302,3.6,
493402,3.8,
493502,35.2,
493602,99.3,
493702,80.7,
493802,64.2,
493902,101.4,
494002,122.2,
494102,99.5,
494202,7.3,
494302,3.5,
494502,3.0,
494602,4.0,
494702,5.0,
494802,3.0,
494902,3.7,
495002,3.5,
495102,2.5,
495202,75.5,
495302,103.2,
495502,85.0,
495602,80.4,
495702,76.7,
495802,7.5,
495902,2.8,
496002,3.2,
496102,3.3,
496202,2.5,
496302,2.5,
496502,2.8,
496602,2.0,
496702,2.4,
496802,78.5,
496902,105.9,
497002,102.8,
497102,90.6,
497202,67.3,
497302,62.1,
497502,2.8,
497602,2.7,
497702,3.3,
497802,2.5,
497902,3.6,
498002,1.9,
498102,2.9,
498202,3.3,
498302,2.7,
498502,101.1,
498602,70.1,
498702,64.3,
498802,93.2,
498902,83.2,
499002,13.1,
499102,3.2,
499202,3.8,
499302,2.5,
499502,3.2,
499602,2.5,
499702,2.6,
499802,2.4,
499902,2.5,
500002,95.0,
500102,101.0,
500202,74.0,
500302,64.2,
500502,90.3,
500602,16.7,
500702,5.6,
500802,2.2,
500902,3.0,
501002,2.8,
501102,3.2,
501202,3.8,
501302,3.0,
501402,3.3,
501502,3.0,
501602,71.4,
501702,62.5,
501802,77.4,
501902,82.5,
502002,68.7,
502102,61.1,
502202,22.2,
502302,5.2,
502402,3.6,
502502,4.0,
502602,3.9,
502702,4.1,
502802,3.3,
502902,3.6,
503002,3.5,
503102,2.5,
503202,85.2,
503302,74.3,
503402,57.2,
503502,77.8,
503602,92.4,
503702,82.4,
503802,34.0,
503902,5.8,
504002,2.6,
504102,3.2,
504202,3.6,
504302,3.2,
504502,3.1,
504602,2.4,
504702,3.8,
504802,64.5,
504902,97.5,
505002,77.2,
505102,64.9,
505202,84.0,
505302,117.3,
505502,4.6,
505602,1.9,
505702,2.4,
505802,2.4,
505902,3.1,
506002,2.7,
506102,2.2,
506202,2.2,
506302,2.3,
506402,47.1,
506502,72.3,
506602,89.2,
506702,93.1,
506802,85.2,
506902,102.7,
507002,58.8,
507102,4.6,
507202,3.3,
507302,2.9,
507502,2.4,
507602,2.2,
507702,1.5,
507802,2.2,
507902,2.5,
508002,61.6,
508102,73.5,
508202,71.1,
508302,103.1,
508502,92.5,
508602,64.5,
508702,5.2,
508802,2.2,
508902,2.9,
509002,3.0,
509102,2.2,
509202,2.9,
509302,3.7,
509402,3.2,
509502,2.0,
509602,36.9,
509702,98.7,
509802,94.0,
509902,79.9,
510002,91.0,
510102,92.1,
510202,71.1,
510302,5.8,
510502,2.7,
510602,3.2,
510702,2.3,
510802,3.1,
510902,3.8,
511002,4.3,
511102,4.6,
511202,4.3,
511302,119.9,
511502,84.3,
511602,63.8,
511702,63.9,
511802,88.4,
511902,7.8,
512002,4.6,
512102,2.9,
512202,4.4,
512302,3.0,
512502,3.6,
512602,3.7,
512702,3.5,
512802,3.6,
512902,87.1,
513002,66.0,
513102,82.4,
513202,86.1,
513302,72.0,
513502,11.0,
513602,6.8,
513702,4.5,
513802,7.2,
513902,3.8,
514002,4.2,
514102,5.2,
514202,5.2,
514302,2.9,
514502,97.9,
514602,76.4,
514702,63.7,
514802,89.0,
514902,95.6,
515002,86.7,
515102,13.4,
515202,6.1,
515302,3.0,
515502,2.6,
515602,4.1,
515702,4.4,
515802,4.0,
515902,4.6,
516002,2.5,
516102,80.5,
516202,100.9,
516302,80.3,
516502,72.7,
516602,104.9,
516702,18.0,
516802,3.3,
516902,2.9,
517002,2.6,
517102,3.3,
517202,4.3,
517302,2.8,
517502,2.4,
517602,2.5,
517702,64.6,
517802,72.1,
517902,93.1,
518002,84.1,
518102,72.6,
518202,86.0,
518302,25.5,
518502,3.2,
518602,4.2,
518702,5.4,
518802,3.9,
518902,2.7,
519002,2.4,
519102,2.3,
519202,3.0,
519302,89.1,
519502,62.2,
519602,86.9,
519702,93.6,
519802,89.9,
519902,33.2,
520002,3.7,
520102,2.9,
520202,6.1,
520302,2.2,
520502,2.1,
520602,2.7,
520702,2.1,
520802,3.0,
520902,88.4,
521002,116.5,
521102,92.7,
521202,82.4,
521302,128.7,
521502,47.4,
521602,5.1,
521702,5.5,
521802,2.4,
521902,3.3,
522002,2.7,
522102,3.1,
522202,5.8,
522302,3.1,
522402,2.5,
522502,59.7,
522602,94.1,
522702,133.8,
522802,119.2,
522902,102.9,
523002,109.6,
523102,58.9,
523202,6.0,
523302,3.7,
523402,4.6,
523502,5.4,
523602,3.6,
523702,3.8,
523802,3.4,
523902,3.3,
524002,5.8,
524102,72.3,
524202,96.7,
524302,120.0,
524502,124.1,
524602,84.8,
524702,70.5,
524802,5.4,
524902,5.4,
525002,6.3,
525102,2.8,
525202,3.1,
525302,2.0,
525502,2.9,
525602,2.1,
525702,58.2,
525802,136.4,
525902,110.0,
526002,80.7,
526102,88.2,
526202,106.8,
526302,92.2,
526502,2.5,
526602,2.9,
526702,2.2,
526802,2.0,
526902,2.6,
527002,3.2,
527102,2.9,
527202,2.3,
527302,3.7,
527502,120.2,
527602,89.4,
527702,73.0,
527802,79.6,
527902,109.0,
528002,8.7,
528102,4.0,
528202,4.5,
528302,5.2,
528502,4.4,
528602,2.2,
528702,2.7,
528802,3.4,
528902,2.7,
529002,101.3,
529102,97.9,
529202,105.1,
529302,99.2,
529502,67.8,
529602,16.3,
529702,4.0,
529802,7.4,
529902,3.2,
530002,3.7,
530102,3.2,
530202,3.2,
530302,3.0,
530402,3.0,
530502,2.9,
530602,109.6,
530702,79.4,
530802,64.9,
530902,93.4,
531002,99.1,
531102,84.8,
531202,14.6,
531302,2.9,
531502,5.1,
531602,2.8,
531702,1.9,
531802,2.7,
531902,2.6,
532002,2.7,
532102,2.9,
532202,88.6,
532302,101.3,
532402,82.0,
532502,67.1,
532602,105.0,
532702,133.6,
532802,20.4,
532902,3.6,
533002,3.7,
533102,2.8,
533202,2.6,
533302,3.4,
533502,2.3,
533602,2.4,
533702,2.3,
533802,69.3,
533902,84.9,
534002,104.1,
534102,99.3,
534202,92.4,
534302,98.8,
534502,3.4,
534602,3.6,
534702,2.2,
534802,2.5,
534902,2.2,
535002,1.8,
535102,2.6,
535202,2.3,
535302,2.1,
535402,85.7,
535502,86.5,
535602,119.7,
535702,111.0,
535802,86.7,
535902,68.7,
536002,27.5,
536102,3.1,
536202,2.7,
536302,4.7,
536502,2.3,
536602,2.7,
536702,2.4,
536802,2.3,
536902,3.0,
537002,104.3,
537102,123.8,
537202,85.8,
537302,57.8,
537502,95.9,
537602,35.2,
537702,3.4,
537802,2.7,
537902,2.6,
538002,2.5,
538102,2.8,
538202,2.4,
538302,1.9,
538402,2.4,
538502,2.3,
538602,58.9,
538702,85.6,
538802,84.8,
538902,74.0,
539002,66.7,
539102,69.2,
539202,46.5,
539302,5.6,
539502,9.0,
539602,3.7,
539702,2.8,
539802,2.7,
539902,3.2,
540002,2.0,
540102,1.8,
540202,62.8,
540302,69.7,
540402,65.6,
540502,85.3,
540602,81.2,
540702,77.8,
540802,72.1,
540902,5.4,
541002,2.5,
541102,2.5,
541202,2.4,
541302,8.1,
541402,2.2,
541502,2.0,
541602,2.3,
541702,2.3,
541802,38.4,
541902,88.4,
542002,72.2,
542102,57.9,
542202,96.9,
542302,119.2,
542502,6.9,
542602,2.7,
542702,2.5,
542802,2.5,
542902,2.1,
543002,2.0,
543102,2.0,
543202,2.7,
543302,2.4,
543402,1.9,
543502,89.0,
543602,107.1,
543702,94.6,
543802,82.5,
543902,95.6,
544002,99.3,
544102,7.4,
544202,2.2,
544302,2.3,
544502,2.8,
544602,2.4,
544702,2.2,
544802,2.4,
544902,2.4,
545002,2.6,
545102,80.1,
545202,122.2,
545302,119.8,
545502,64.4,
545602,64.8,
545702,8.9,
545802,7.0,
545902,3.4,
546002,3.4,
546102,2.6,
546202,4.1,
546302,2.7,
546402,2.5,
546502,3.2,
546602,2.4,
546702,113.2,
546802,96.5,
546902,80.4,
547002,78.4,
547102,80.4,
547202,72.8,
547302,11.7,
547502,2.9,
547602,2.2,
547702,2.8,
547802,2.5,
547902,2.5,
548002,2.5,
548102,2.4,
548202,4.9,
548302,105.0,
548402,98.6,
548502,66.9,
548602,57.5,
548702,82.2,
548802,91.7,
548902,14.7,
549002,9.9,
549102,4.1,
549202,4.6,
549302,3.8,
549402,6.0,
549502,5.0,
549602,7.4,
549702,8.6,
549802,6.5,
549902,64.5,
550002,79.2,
550102,102.9,
550202,92.4,
550302,79.2,
550502,27.5,
550602,7.2,
550702,3.2,
550802,4.1,
550902,3.6,
551002,2.9,
551102,2.8,
551202,3.6,
551302,3.0,
551402,3.8,
551502,81.7,
551602,75.7,
551702,77.3,
551802,105.1,
551902,110.1,
552002,109.1,
552102,38.7,
552202,14.2,
552302,3.5,
552502,5.0,
552602,4.9,
552702,4.2,
552802,2.7,
552902,4.5,
553002,3.5,
553102,74.0,
553202,99.9,
553302,86.0,
553502,138.4,
553602,135.7,
553702,44.5,
553802,6.7,
553902,3.0,
554002,3.5,
554102,2.9,
554202,6.1,
554302,2.7,
554502,2.4,
554602,4.4,
554702,57.4,
554802,98.5,
554902,122.4,
555002,107.5,
555102,94.1,
555202,108.9,
555302,53.8,
555402,4.4,
555502,4.3,
555602,2.2,
555702,2.5,
555802,4.5,
555902,2.4,
556002,2.5,
556102,3.6,
556202,3.1,
556302,60.5,
556402,73.8,
556502,109.1,
556602,139.1,
556702,122.4,
556802,87.5,
556902,64.6,
557002,6.7,
557102,4.0,
557202,4.7,
557302,5.5,
557502,2.6,
557602,3.1,
557702,2.3,
557802,2.2,
557902,46.3,
558002,110.4,
558102,97.9,
558202,112.2,
558302,98.4,
558502,72.0,
558602,5.9,
558702,4.9,
558802,5.4,
558902,5.4,
559002,3.6,
559102,3.6,
559202,3.3,
559302,5.1,
559402,2.8,
559502,42.9,
559602,132.0,
559702,111.3,
559802,75.8,
559902,58.1,
560002,86.4,
560102,96.0,
560202,7.2,
560302,3.7,
560502,2.7,
560602,2.7,
560702,6.2,
560802,2.8,
560902,2.7,
561002,2.7,
561102,2.8,
561202,84.1,
561302,94.1,
561402,88.2,
561502,73.2,
561602,63.1,
561702,65.1,
561802,8.9,
561902,3.4,
562002,2.4,
562102,2.5,
562202,3.0,
562302,2.6,
562402,3.2,
562502,2.7,
562602,2.8,
562702,2.9,
562802,100.9,
562902,66.1,
563002,64.1,
563102,88.7,
563202,85.2,
563302,81.7,
563502,2.8,
563602,2.9,
563702,3.2,
563802,3.0,
563902,2.5,
564002,2.7,
564102,2.5,
564202,3.1,
564302,3.2,
564502,90.7,
564602,71.1,
564702,80.7,
564802,114.1,
564902,123.1,
565002,17.8,
565102,2.9,
565202,3.8,
565302,2.6,
565502,2.7,
565602,2.5,
565702,2.9,
565802,3.1,
565902,2.9,
566002,75.3,
566102,90.5,
566202,107.7,
566302,98.1,
566502,88.9,
566602,20.3,
566702,2.7,
566802,3.9,
566902,3.4,
567002,2.8,
567102,2.2,
567202,2.8,
567302,2.4,
567402,2.5,
567502,3.6,
567602,87.9,
567702,76.0,
567802,115.0,
567902,130.7,
568002,108.4,
568102,78.4,
568202,24.7,
568302,3.2,
568502,2.9,
568602,2.6,
568702,3.4,
568802,2.7,
568902,2.5,
569002,3.0,
569102,2.9,
569202,90.9,
569302,96.2,
569402,83.4,
569502,115.3,
569602,101.9,
569702,86.7,
569802,28.9,
569902,3.9,
570002,3.6,
570102,2.4,
570202,2.8,
570302,2.8,
570502,2.2,
570602,2.6,
570702,2.2,
570802,70.3,
570902,121.3,
571002,121.8,
571102,82.9,
571202,63.1,
571302,70.2,
571502,4.0,
571602,2.6,
571702,2.9,
571802,2.8,
571902,1.9,
572002,2.9,
572102,2.2,
572202,2.8,
572302,2.7,
572402,65.5,
572502,81.1,
572602,122.1,
572702,120.2,
572802,87.8,
572902,63.0,
573002,48.8,
573102,4.6,
573202,3.0,
573302,4.6,
573502,2.4,
573602,2.2,
573702,2.5,
573802,3.0,
573902,5.6,
574002,59.7,
574102,106.8,
574202,89.8,
574302,96.1,
574502,77.0,
574602,58.3,
574702,5.4,
574802,4.4,
574902,4.5,
575002,6.5,
575102,3.4,
575202,3.5,
575302,2.6,
575402,2.9,
575502,2.2,
575602,33.2,
575702,130.4,
575802,112.9,
575902,75.5,
576002,55.4,
576102,69.1,
576202,83.7,
576302,7.4,
576502,2.7,
576602,3.3,
576702,2.5,
576802,2.9,
576902,2.3,
577002,2.4,
577102,2.7,
577202,2.3,
577302,100.8,
577502,88.2,
577602,66.2,
577702,56.0,
577802,61.9,
577902,8.4,
578002,3.8,
578102,2.4,
578202,2.2,
578302,2.7,
578402,2.4,
578502,2.2,
578602,2.6,
578702,3.1,
578803,2.2,
578903,104.7,
579003,73.0,
579103,58.9,
579203,76.2,
579303,65.1,
579503,9.4,
579603,6.1,
579703,2.0,
579803,2.4,
579903,2.5,
580003,2.4,
580103,2.7,
580203,2.7,
580303,2.6,
580403,3.0,
580503,110.9,
580603,84.4,
580703,57.1,
580803,55.8,
580903,69.8,
581003,69.2,
581103,11.8,
581203,5.2,
581303,6.0,
581503,2.5,
581603,3.9,
581703,2.9,
581803,3.5,
581903,2.6,
582003,2.7,
582103,83.3,
582203,78.1,
582303,74.1,
582403,60.4,
582503,51.6,
582603,82.9,
582703,17.3,
582803,4.3,
582903,2.6,
583003,3.7,
583103,2.7,
583203,2.7,
583303,3.4,
583403,4.4,
583503,4.5,
583603,2.5,
583703,77.7,
583803,59.8,
583903,69.4,
584003,84.7,
584103,86.3,
584203,77.6,
584303,26.5,
584503,4.4,
584603,3.5,
584703,3.0,
584803,2.4,
584903,3.1,
585003,2.4,
585103,3.7,
585203,2.9,
585303,82.5,
585403,73.3,
585503,55.2,
585603,83.9,
585703,111.3,
585803,90.8,
585903,30.5,
586003,3.5,
586103,2.2,
586203,2.5,
586303,2.8,
586403,2.8,
586503,3.7,
586603,2.5,
586703,3.1,
586803,2.6,
586903,54.6,
587003,90.4,
587103,96.9,
587203,83.0,
587303,95.8,
587403,87.1,
587503,34.8,
587603,3.7,
587703,3.3,
587803,2.4,
587903,2.4,
588003,3.7,
588103,2.4,
588203,4.5,
588303,2.7,
588403,2.4,
588503,52.5,
588603,69.7,
588703,96.5,
588803,106.6,
588903,86.2,
589003,59.2,
589103,43.9,
589203,4.1,
589303,4.0,
589403,3.1,
589503,2.7,
589603,3.2,
589703,2.6,
589803,2.7,
589903,2.4,
590003,3.0,
590103,57.0,
590203,82.3,
590303,73.4,
590503,100.6,
590603,77.8,
590703,57.4,
590803,5.4,
590903,3.3,
591003,2.6,
591103,2.5,
591203,2.5,
591303,2.5,
591503,4.0,
591603,5.6,
591703,23.2,
591803,98.1,
591903,101.4,
592003,83.7,
592103,86.0,
592203,86.3,
592303,68.5,
592503,5.2,
592603,2.2,
592703,2.3,
592803,3.0,
592903,3.3,
593003,3.7,
593103,2.4,
593203,2.7,
593303,3.3,
593503,131.4,
593603,106.8,
593703,81.7,
593803,60.9,
593903,86.0,
594003,10.1,
594103,9.0,
594203,4.2,
594303,3.6,
594503,4.7,
594603,4.4,
594703,3.1,
594803,3.5,
594903,2.8,
595003,148.7,
595103,95.9,
595203,88.9,
595303,91.1,
595503,64.7,
595603,10.7,
595703,4.3,
595803,3.7,
595903,4.2,
596003,3.2,
596103,4.1,
596203,2.6,
596303,2.8,
596403,3.9,
596503,2.8,
596603,177.1,
596703,104.3,
596803,75.3,
596903,72.9,
597003,97.6,
597103,84.7,
597203,14.6,
597303,10.8,
597503,5.8,
597603,2.7,
597703,4.9,
597803,2.9,
597903,3.3,
598003,2.7,
598103,2.9,
598203,103.5,
598303,106.9,
598503,68.5,
598603,64.5,
598703,116.3,
598803,20.9,
598903,5.2,
599003,3.3,
599103,3.8,
599203,4.2,
599303,3.4,
599503,2.6,
599603,2.5,
599703,2.1,
599803,118.9,
599903,81.9,
600003,90.7,
600103,98.4,
600203,93.2,
600303,84.8,
600503,4.3,
600603,3.1,
600703,3.3,
600803,3.7,
600903,3.9,
601003,3.9,
601103,2.7,
601203,2.5,
601303,2.0,
601403,132.5,
601503,98.1,
601603,67.9,
601703,85.1,
601803,121.8,
601903,116.3,
602003,40.9,
602103,4.2,
602203,3.3,
602303,3.1,
602503,2.3,
602603,3.0,
602703,2.3,
602803,2.6,
602903,2.5,
603003,65.1,
603103,103.2,
603203,83.2,
603303,73.7,
603503,121.4,
603603,48.2,
603703,5.1,
603803,3.6,
603903,3.2,
604003,3.4,
604103,2.8,
604203,2.9,
604303,3.1,
604503,2.7,
604603,59.7,
604703,80.7,
604803,108.2,
604903,120.9,
605003,96.3,
605103,72.7,
605203,50.2,
605303,5.0,
605503,3.3,
605603,3.4,
605703,2.8,
605803,2.3,
605903,3.2,
606003,3.0,
606103,2.8,
606203,77.8,
606303,111.2,
606503,93.0,
606603,101.8,
606703,78.7,
606803,66.9,
606903,5.5,
607003,7.0,
607103,3.5,
607203,3.1,
607303,2.7,
607503,3.3,
607603,2.8,
607703,7.7,
607803,60.2,
607903,153.1,
608003,102.4,
608103,70.4,
608203,66.6,
608303,91.8,
608503,7.8,
608603,12.5,
608703,7.0,
608803,4.6,
608903,5.2,
609003,12.2,
609103,3.4,
609203,8.8,
609303,5.1,
609403,4.2,
609503,142.0,
609603,106.3,
609703,80.3,
609803,69.8,
609903,76.5,
610003,95.7,
610103,10.4,
610203,5.7,
610303,3.1,
610503,5.6,
610603,25.4,
610703,10.0,
610803,6.0,
610903,5.4,
611003,4.2,
611103,122.7,
611203,73.4,
611303,78.0,
611503,83.6,
611603,66.4,
611703,10.3,
611803,4.8,
611903,3.3,
612003,21.3,
612103,6.7,
612203,22.9,
612303,5.5,
612403,4.8,
612503,4.5,
612603,4.5,
612703,184.0,
612803,103.4,
612903,65.8,
613003,65.3,
613103,91.5,
613203,83.3,
613303,15.1,
613503,4.7,
613603,3.7,
613703,3.5,
613803,4.9,
613903,2.8,
614003,3.4,
614103,3.3,
614203,2.6,
614303,158.5,
614503,92.1,
614603,70.0,
614703,67.5,
614803,84.6,
614903,28.8,
615003,8.7,
615103,5.4,
615203,5.5,
615303,3.9,
615403,4.0,
615503,3.5,
615603,8.0,
615703,5.0,
615803,2.9,
615903,128.2,
616003,83.8,
616103,91.3,
616203,94.5,
616303,83.7,
616503,27.8,
616603,4.3,
616703,4.8,
616803,3.4,
616903,7.7,
617003,6.0,
617103,5.0,
617203,5.3,
617303,4.7,
617403,3.1,
617503,163.7,
617603,109.7,
617703,71.0,
617803,82.6,
617903,94.7,
618003,93.9,
618103,36.6,
618203,5.0,
618303,3.9,
618503,8.0,
618603,4.9,
618703,10.6,
618803,3.6,
618903,5.9,
619003,3.3,
619103,129.4,
619203,139.1,
619303,91.8,
619503,112.3,
619603,130.2,
619703,47.7,
619803,13.4,
619903,6.8,
620003,5.5,
620103,3.4,
620203,3.8,
620303,9.8,
620503,14.0,
620603,13.1,
620703,92.8,
620803,103.4,
620903,109.8,
621003,120.4,
621103,104.8,
621203,77.1,
621303,56.2,
621503,5.3,
621603,17.2,
621703,7.4,
621803,4.9,
621903,3.3,
622003,2.8,
622103,13.5,
622203,3.9,
622303,105.5,
622403,128.2,
622503,79.2,
622603,129.6,
622703,116.1,
622803,88.6,
622903,62.2,
623003,7.8,
623103,4.9,
623203,23.2,
623303,19.4,
623503,7.3,
623603,4.3,
623703,8.4,
623803,7.7,
623903,66.2,
624003,173.4,
624103,119.3,
624203,85.5,
624303,99.5,
624503,70.3,
624603,9.1,
624703,19.2,
624803,11.1,
624903,7.6,
625003,4.1,
625103,5.3,
625203,5.7,
625303,6.1,
625403,8.3,
625503,11.3,
625603,166.0,
625703,147.9,
625803,86.4,
625903,71.8,
626003,61.5,
626103,92.9,
626203,11.9,
626303,19.0,
626503,18.0,
626603,9.6,
626703,15.3,
626803,12.7,
626903,21.9,
627003,27.8,
627103,12.4,
627203,134.6,
627303,78.5,
627403,90.4,
627503,88.4,
627603,79.2,
627703,68.3,
627803,15.0,
627903,9.6,
628003,5.6,
628103,9.7,
628203,9.8,
628303,7.2,
628403,4.9,
628503,7.9,
628603,7.1,
628703,4.7,
628803,164.0,
628903,122.9,
629003,71.3,
629103,90.2,
629203,111.7,
629303,106.4,
629503,5.4,
629603,5.1,
629703,5.3,
629803,5.2,
629903,6.3,
630003,13.5,
630103,7.7,
630203,18.0,
630303,14.8,
630403,142.1,
630503,113.7,
630603,91.7,
630703,82.9,
630803,120.5,
630903,121.6,
631003,42.7,
631103,20.5,
631203,20.7,
631303,9.6,
631503,16.1,
631603,18.1,
631703,10.7,
631803,10.1,
631903,4.2,
632003,75.4,
632103,72.7,
632203,103.5,
632303,108.4,
632503,68.2,
632603,24.0,
632703,5.0,
632803,4.5,
632903,4.8,
633003,2.9,
633103,3.3,
633203,3.8,
633303,2.2,
633403,2.9,
633503,3.2,
633603,90.2,
633703,87.0,
633803,74.9,
633903,117.9,
634003,97.8,
634103,68.6,
634203,23.8,
634303,13.5,
634503,3.5,
634603,3.0,
634703,3.7,
634803,2.8,
634903,2.4,
635003,3.4,
635103,3.1,
635203,84.1,
635303,126.9,
635503,78.8,
635603,77.4,
635703,80.6,
635803,32.6,
635903,16.8,
636003,4.5,
636103,4.1,
636203,3.5,
636303,2.9,
636503,5.8,
636603,8.8,
636703,5.9,
636803,62.5,
636903,141.7,
637003,131.3,
637103,103.7,
637203,72.0,
637303,51.7,
637403,40.5,
637503,6.0,
637603,5.6,
637703,8.1,
637803,3.9,
637903,11.5,
638003,7.2,
638103,3.4,
638203,4.7,
638303,2.3,
638403,88.0,
638503,105.8,
638603,133.7,
638703,129.2,
638803,100.8,
638903,70.9,
639003,51.7,
639103,6.4,
639203,7.7,
639303,17.8,
639503,3.3,
639603,6.3,
639703,58.1,
639803,8.9,
639903,36.7,
640003,59.0,
640103,112.7,
640203,100.1,
640303,81.2,
640503,88.8,
640603,67.4,
640703,15.0,
640803,7.6,
640903,3.4,
641003,8.5,
641103,20.5,
641203,7.4,
641303,37.0,
641403,16.1,
641503,13.7,
641603,18.4,
641703,109.6,
641803,174.8,
641903,144.5,
642003,84.9,
642103,60.0,
642203,63.5,
642303,66.4,
642403,54.4,
642503,61.1,
642603,25.4,
642703,15.7,
642803,7.2,
642903,9.3,
643003,11.3,
643103,4.4,
643203,22.6,
643303,99.9,
643403,118.7,
643503,119.2,
643603,87.6,
643703,59.5,
643803,46.1,
643903,27.2,
644003,12.9,
644103,6.1,
644203,16.1,
644303,8.6,
644503,7.0,
644603,3.5,
644703,7.4,
644803,2.5,
644903,176.6,
645003,117.5,
645103,67.2,
645203,73.5,
645303,84.5,
645503,39.0,
645603,12.6,
645703,18.5,
645803,11.5,
645903,4.6,
646003,4.3,
646103,7.6,
646203,52.1,
646303,8.7,
646403,3.2,
646503,121.3,
646603,118.0,
646703,74.0,
646803,52.0,
646903,55.1,
647003,75.7,
647103,14.1,
647203,20.3,
647303,8.4,
647503,31.6,
647603,37.8,
647703,26.8,
647803,14.2,
647903,7.2,
648003,21.8,
648103,78.0,
648203,78.9,
648303,64.5,
648503,64.7,
648603,54.1,
648703,20.1,
648803,5.8,
648903,5.8,
649003,2.8,
649103,11.5,
649203,3.7,
649303,8.0,
649403,5.2,
649503,6.2,
649603,3.7,
649703,100.4,
649803,74.2,
649903,49.6,
650003,78.0,
650103,88.2,
650203,76.5,
650303,35.6,
650503,3.9,
650603,10.1,
650703,5.8,
650803,5.8,
650903,4.4,
651003,4.3,
651103,2.9,
651203,4.2,
651303,128.8,
651403,151.3,
651503,90.8,
651603,71.4,
651703,93.9,
651803,104.4,
651903,58.4,
652003,16.3,
652103,7.6,
652203,6.5,
652303,10.2,
652503,9.7,
652603,11.8,
652703,6.0,
652803,3.0,
652903,73.1,
653003,136.2,
653103,113.3,
653203,84.5,
653303,78.2,
653503,56.7,
653603,8.1,
653703,9.9,
653803,15.2,
653903,5.7,
654003,14.4,
654103,6.8,
654203,5.3,
654303,4.4,
654503,95.8,
654603,122.4,
654703,106.0,
654803,110.4,
654903,111.6,
655003,86.5,
655103,65.1,
655203,5.6,
655303,20.7,
655403,7.7,
655503,5.6,
655603,4.1,
655703,5.5,
655803,2.8,
655903,16.7,
656003,6.3,
656103,46.0,
656203,114.4,
656303,91.4,
656503,108.9,
656603,77.5,
656703,87.1,
656803,12.2,
656903,6.5,
657003,4.3,
657103,6.0,
657203,4.1,
657303,3.0,
657403,5.0,
657503,12.4,
657603,8.4,
657703,5.9,
657803,174.5,
657903,120.3,
658003,86.6,
658103,63.7,
658203,79.7,
658303,94.1,
658403,10.9,
658503,8.1,
658603,21.9,
658703,45.3,
658803,5.1,
658903,31.2,
659003,6.1,
659103,2.8,
659203,6.7,
659303,6.9,
659403,90.6,
659503,64.1,
659603,75.0,
659703,77.4,
659803,61.6,
659903,57.8,
660003,12.1,
660103,26.9,
660203,35.5,
660303,9.8,
660503,8.5,
660603,14.7,
660703,7.4,
660803,5.4,
660903,2.9,
661003,87.8,
661103,74.6,
661203,51.1,
661303,75.5,
661403,79.5,
661503,79.5,
661603,27.6,
661703,8.9,
661803,26.4,
661903,9.3,
662003,7.3,
662103,5.5,
662203,6.2,
662303,5.2,
662403,3.7,
662503,23.5,
662603,86.8,
662703,95.1,
662803,69.5,
662903,64.2,
663003,90.5,
663103,132.7,
663203,22.2,
663303,7.1,
663503,5.5,
663603,4.4,
663703,4.9,
663803,28.9,
663903,27.8,
664003,4.2,
664103,4.2,
664203,85.7,
664303,87.6,
664503,96.6,
664603,77.1,
664703,110.7,
664803,36.8,
664903,5.8,
665003,6.8,
665103,5.6,
665203,4.4,
665303,4.8,
665503,17.6,
665603,6.0,
665703,3.3,
665803,119.2,
665903,86.1,
666003,72.7,
666103,101.5,
666203,109.6,
666303,82.7,
666503,6.0,
666603,3.4,
666703,10.1,
666803,3.5,
666903,6.9,
667003,6.3,
667103,23.3,
667203,7.1,
667303,54.2,
667403,87.9,
667503,110.3,
667603,90.9,
667703,84.2,
667803,94.7,
667903,78.5,
668003,58.8,
668103,6.7,
668203,6.8,
668303,5.4,
668503,44.7,
668603,11.7,
668703,39.6,
668803,55.7,
668903,40.9,
669003,63.9,
669103,129.2,
669203,127.1,
669303,78.0,
669403,54.5,
669503,56.9,
669603,39.5,
669703,8.6,
669803,7.6,
669903,8.7,
670003,13.9,
670103,40.7,
670203,42.5,
670303,33.7,
670403,22.0,
670503,19.0,
670603,92.2,
670703,140.4,
670803,98.2,
670903,73.3,
671003,65.4,
671103,56.2,
671203,49.7,
671303,6.8,
671503,16.4,
671603,31.2,
671703,9.9,
671803,8.3,
671903,8.2,
672003,3.5,
672103,4.9,
672203,53.5,
672303,114.9,
672403,70.7,
672503,49.5,
672603,72.4,
672703,79.1,
672803,73.8,
672903,6.8,
673003,5.8,
673103,16.1,
673203,5.5,
673303,7.2,
673403,21.1,
673503,6.5,
673603,5.2,
673703,3.5,
673803,3.4,
673903,91.3,
674003,94.3,
674103,71.1,
674203,59.3,
674303,89.4,
674503,13.7,
674603,6.5,
674703,4.4,
674803,4.5,
674903,3.1,
675003,2.8,
675103,2.3,
675203,13.4,
675303,5.0,
675403,5.6,
675503,75.8,
675603,76.0,
675703,86.0,
675803,81.1,
675903,75.6,
676003,109.4,
676103,17.1,
676203,37.1,
676303,7.0,
676403,6.1,
676503,5.3,
676603,2.9,
676703,3.5,
676803,2.8,
676903,30.1,
677003,6.0,
677103,98.2,
677203,77.9,
677303,106.1,
677503,96.4,
677603,59.0,
677703,22.9,
677803,6.1,
677903,5.6,
678003,44.9,
678103,19.4,
678203,14.8,
678303,9.7,
678503,5.4,
678603,9.9,
678703,126.6,
678803,118.7,
678903,90.8,
679003,64.6,
679103,71.1,
679203,78.6,
679303,14.9,
679403,9.3,
679503,8.2,
679603,4.4,
679703,4.1,
679803,5.2,
679903,2.8,
680003,2.5,
680103,15.6,
680203,6.7,
680303,82.8,
680503,103.4,
680603,71.3,
680703,53.0,
680803,61.7,
680903,17.0,
681003,13.8,
681103,4.9,
681203,4.5,
681303,4.5,
681403,3.0,
681503,3.0,
681603,3.0,
681703,10.5,
681803,6.5,
681903,133.6,
682003,95.1,
682103,70.3,
682203,70.2,
682303,82.7,
682503,43.9,
682603,14.6,
682703,10.6,
682803,4.3,
682903,6.2,
683003,2.6,
683103,1.9,
683203,60.6,
683303,14.2,
683403,9.7,
683503,88.6,
683603,94.4,
683703,63.9,
683803,50.4,
683903,70.4,
684003,88.8,
684103,33.0,
684203,3.8,
684303,3.4,
684503,3.0,
684603,2.9,
684703,2.4,
684803,3.0,
684903,4.3,
685003,3.0,
685103,46.0,
685203,84.5,
685303,84.9,
685403,67.7,
685503,58.2,
685603,104.2,
685703,52.6,
685803,5.0,
685903,3.0,
686003,4.4,
686103,11.1,
686203,3.3,
686303,2.7,
686503,2.8,
686603,9.1,
686703,65.8,
686803,71.9,
686903,76.8,
687003,107.0,
687103,105.0,
687203,79.2,
687303,58.8,
687503,3.4,
687603,2.6,
687703,3.8,
687803,5.1,
687903,2.1,
688003,2.7,
688103,3.4,
688203,5.9,
688303,53.7,
688403,104.9,
688503,87.7,
688603,112.9,
688703,97.3,
688803,77.4,
688903,59.7,
689003,5.2,
689103,12.3,
689203,4.4,
689303,2.6,
689503,8.3,
689603,3.5,
689703,10.4,
689803,3.5,
689903,38.9,
690003,141.5,
690103,119.4,
690203,80.7,
690303,55.0,
690403,63.7,
690503,79.3,
690603,7.2,
690703,3.2,
690803,3.5,
690903,5.4,
691003,3.2,
691103,2.6,
691203,7.0,
691303,4.1,
691403,3.5,
691503,4.8,
691603,83.6,
691703,76.6,
691803,79.9,
691903,68.1,
692003,57.6,
692103,65.0,
692203,12.4,
692303,5.1,
692403,2.5,
692503,2.3,
692603,3.3,
692703,3.4,
692803,2.1,
692903,2.4,
693003,2.2,
693103,2.1,
693203,95.1,
693303,66.2,
693403,62.2,
693503,79.2,
693603,85.3,
693703,78.7,
693803,12.1,
693903,4.4,
694003,2.8,
694103,3.0,
694203,2.4,
694303,1.9,
694503,2.8,
694603,2.8,
694703,2.3,
694803,95.2,
694903,87.9,
695003,65.8,
695103,54.0,
695203,93.6,
695303,111.6,
695503,6.9,
695603,3.2,
695703,2.4,
695803,3.2,
695903,2.6,
696003,2.3,
696103,9.1,
696203,4.8,
696303,6.8,
696403,69.8,
696503,94.3,
696603,87.9,
696703,71.7,
696803,72.8,
696903,109.4,
697003,25.9,
697103,3.9,
697203,3.9,
697303,3.0,
697503,3.4,
697603,5.8,
697703,3.0,
697803,3.5,
697903,3.4,
698003,80.6,
698103,65.4,
698203,71.8,
698303,107.1,
698503,79.9,
698603,30.8,
698703,12.8,
698803,4.4,
698903,10.6,
699003,4.6,
699103,2.7,
699203,3.6,
699303,2.8,
699403,2.4,
699503,2.0,
699603,89.9,
699703,91.1,
699803,74.3,
699903,110.6,
700003,108.0,
700103,88.4,
700203,29.0,
700303,4.0,
700503,7.0,
700603,11.9,
700703,11.8,
700803,4.2,
700903,5.0,
701003,5.6,
701103,3.1,
701203,57.7,
701303,119.3,
701503,91.6,
701603,66.6,
701703,65.2,
701803,33.0,
701903,4.4,
702003,8.1,
702103,4.1,
702203,16.7,
702303,5.0,
702503,4.8,
702603,8.5,
702703,2.8,
702803,61.5,
702903,88.1,
703003,115.0,
703103,106.6,
703203,71.9,
703303,55.5,
703503,7.7,
703603,14.7,
703703,6.7,
703803,4.5,
703903,3.2,
704003,5.5,
704103,2.6,
704203,2.3,
704303,2.8,
704503,119.0,
704603,89.2,
704703,71.1,
704803,73.0,
704903,65.6,
705003,61.1,
705103,7.4,
705203,6.7,
705303,4.7,
705503,3.0,
705603,3.1,
705703,3.9,
705803,9.1,
705903,8.6,
706003,43.7,
706103,123.4,
706203,89.3,
706303,69.7,
706403,50.7,
706503,68.1,
706603,75.4,
706703,6.8,
706803,3.9,
706903,3.6,
707003,4.3,
707103,2.8,
707203,2.6,
707303,7.2,
707403,3.2,
707503,2.7,
707603,3.7,
707703,71.8,
707803,71.4,
707903,85.3,
708003,67.1,
708103,56.6,
708203,88.2,
708303,10.6,
708503,3.1,
708603,5.4,
708703,6.3,
708803,4.0,
708903,2.7,
709003,2.0,
709103,7.6,
709203,3.2,
709303,89.4,
709403,66.3,
709503,64.4,
709603,81.8,
709703,88.9,
709803,81.9,
709903,13.7,
710003,4.2,
710103,2.5,
710203,2.4,
710303,12.7,
710503,3.3,
710603,3.1,
710703,3.5,
710803,3.4,
710903,112.2,
711003,87.4,
711103,70.7,
711203,97.3,
711303,115.1,
711503,15.9,
711603,5.1,
711703,3.0,
711803,3.8,
711903,5.6,
712003,2.9,
712103,2.6,
712203,2.6,
712303,3.4,
712403,3.3,
712503,70.4,
712603,103.9,
712703,110.1,
712803,84.1,
712903,61.6,
713003,68.7,
713103,26.8,
713203,4.9,
713303,5.0,
713503,11.9,
713603,5.2,
713703,4.9,
713803,11.6,
713903,10.3,
714003,3.1,
714103,88.4,
714203,93.2,
714303,104.8,
714503,63.7,
714603,53.9,
714703,22.9,
714803,3.5,
714903,11.0,
715003,6.3,
715103,4.1,
715203,6.6,
715303,8.6,
715403,4.6,
715503,9.3,
715603,12.9,
715703,115.9,
715803,90.7,
715903,54.9,
716003,55.3,
716103,73.3,
716203,70.2,
716303,30.3,
716503,7.2,
716603,7.3,
716703,8.9,
716803,7.4,
716903,6.2,
717003,12.6,
717103,14.9,
717203,5.8,
717303,65.0,
717403,88.9,
717503,77.4,
717603,63.6,
717703,54.2,
717803,87.6,
717903,46.9,
718003,10.6,
718103,6.9,
718203,6.0,
718303,10.2,
718403,9.8,
718503,4.5,
718603,7.4,
718703,5.1,
718803,5.3,
718903,62.2,
719003,64.1,
719103,77.7,
719203,80.1,
719303,71.9,
719503,63.0,
719603,6.1,
719703,4.9,
719803,3.5,
719903,3.1,
720003,2.8,
720103,2.3,
720203,10.0,
720303,4.6,
720403,2.9,
720503,56.4,
720603,83.4,
720703,62.8,
720803,61.9,
720903,91.7,
721003,93.3,
721103,80.7,
721203,13.2,
721303,6.9,
721403,3.8,
721503,6.6,
721603,6.2,
721703,4.2,
721803,3.7,
721903,2.1,
722003,5.8,
722103,19.9,
722203,93.1,
722303,75.3,
722403,71.3,
722503,107.7,
722603,88.4,
722703,74.7,
722803,6.6,
722903,10.4,
723003,4.2,
723103,3.3,
723203,3.3,
723303,5.9,
723503,8.3,
723603,4.5,
723703,3.0,
723803,109.7,
723903,124.0,
724003,106.4,
724103,69.3,
724203,49.2,
724303,59.3,
724503,3.3,
724603,3.2,
724703,3.2,
724803,2.7,
724903,6.9,
725003,4.9,
725103,7.2,
725203,6.0,
725303,5.4,
725503,69.9,
725603,63.8,
725703,72.0,
725803,65.3,
725903,53.6,
726003,9.9,
726103,4.3,
726203,4.0,
726303,3.1,
726403,6.1,
726503,7.1,
726603,4.5,
726703,4.2,
726803,5.6,
726903,3.5,
727003,117.7,
727103,78.2,
727203,62.1,
727303,57.5,
727403,75.8,
727503,92.1,
727603,14.4,
727703,3.9,
727803,2.3,
727903,10.0,
728003,4.4,
728103,2.7,
728203,2.2,
728303,3.0,
728403,7.9,
728503,3.8,
728603,82.0,
728703,93.2,
728803,81.2,
728903,61.1,
729003,77.6,
729103,109.7,
729203,19.8,
729303,3.2,
729403,5.6,
729503,4.0,
729603,2.7,
729703,2.6,
729803,2.8,
729903,3.1,
730003,4.2,
730103,3.6,
730203,96.8,
730303,64.4,
730403,81.1,
730503,91.5,
730603,86.9,
730703,71.3,
730803,23.4,
730903,11.5,
731003,4.9,
731103,2.5,
731203,3.3,
731303,2.4,
731503,5.8,
731603,3.9,
731703,9.1,
731803,109.5,
731903,90.7,
732003,62.4,
732103,97.2,
732203,103.1,
732303,73.5,
732503,6.6,
732603,4.7,
732703,4.7,
732803,2.5,
732903,7.2,
733003,11.9,
733103,4.7,
733203,10.8,
733303,5.0,
733403,70.1,
733503,105.4,
733603,86.8,
733703,72.9,
733803,79.2,
733903,76.5,
734003,27.7,
734103,4.7,
734203,3.6,
734303,3.5,
734503,11.7,
734603,13.5,
734703,12.5,
734803,5.3,
734903,7.2,
735003,58.5,
735103,118.7,
735203,98.2,
735303,71.0,
735503,43.5,
735603,35.6,
735703,5.5,
735803,8.7,
735903,3.3,
736003,9.2,
736103,4.4,
736203,4.2,
736303,5.1,
736403,3.0,
736503,2.6,
736603,80.2,
736703,106.8,
736803,68.1,
736903,62.7,
737003,64.5,
737103,55.3,
737203,48.4,
737303,13.0,
737503,9.6,
737603,6.1,
737703,4.1,
737803,4.2,
737903,4.4,
738003,3.5,
738103,3.0,
738203,53.9,
738303,121.8,
738403,74.0,
738503,47.2,
738603,52.0,
738703,66.0,
738803,61.7,
738903,6.0,
739003,8.5,
739103,3.8,
739203,4.4,
739303,3.0,
739403,7.4,
739503,3.9,
739603,4.8,
739703,4.4,
739803,2.5,
739903,103.0,
740003,72.0,
740103,60.1,
740203,50.0,
740303,42.0,
740503,8.0,
740603,3.7,
740703,2.8,
740803,2.8,
740903,7.6,
741003,2.9,
741103,2.4,
741203,4.6,
741303,4.9,
741403,4.2,
741503,92.6,
741603,50.3,
741703,54.5,
741803,63.3,
741903,54.8,
742003,53.0,
742103,9.7,
742203,13.5,
742303,5.5,
742503,4.1,
742603,3.0,
742703,3.0,
742803,4.1,
742903,6.6,
743003,4.9,
743103,95.3,
743203,72.3,
743303,47.3,
743403,52.7,
743503,73.7,
743603,76.8,
743703,13.0,
743803,12.3,
743903,5.3,
744003,3.0,
744103,3.5,
744203,4.0,
744303,2.9,
744503,2.7,
744603,3.8,
744703,66.5,
744803,73.7,
744903,61.8,
745003,61.8,
745103,94.5,
745203,78.4,
745303,15.1,
745503,6.1,
745603,10.8,
745703,4.1,
745803,2.4,
745903,3.4,
746003,2.1,
746103,2.1,
746203,3.0,
746303,64.1,
746403,74.5,
746503,87.5,
746603,84.6,
746703,54.9,
746803,37.0,
746903,17.2,
747003,16.3,
747103,5.1,
747203,9.9,
747303,9.4,
747503,7.4,
747603,5.2,
747703,2.6,
747803,4.3,
747903,108.5,
748003,102.4,
748103,60.5,
748203,52.3,
748303,60.5,
748503,22.4,
748603,6.1,
748703,4.7,
748803,3.9,
748903,3.1,
749003,3.2,
749103,12.7,
749203,5.6,
749303,3.6,
749403,6.3,
749503,95.3,
749603,91.7,
749703,57.7,
749803,45.3,
749903,54.8,
750003,61.7,
750103,28.8,
750203,8.4,
750303,3.8,
750503,7.1,
750603,5.9,
750703,5.2,
750803,10.0,
750903,3.4,
751003,8.7,
751103,55.1,
751203,73.1,
751303,72.5,
751403,58.1,
751503,54.8,
751603,87.0,
751703,51.8,
751803,8.1,
751903,3.7,
752003,4.5,
752103,11.7,
752203,5.8,
752303,14.4,
752503,5.2,
752603,4.8,
752703,64.9,
752803,69.2,
752903,49.2,
753003,81.8,
753103,85.2,
753203,64.2,
753303,38.5,
753503,5.1,
753603,12.2,
753703,5.4,
753803,12.4,
753903,7.0,
754003,6.5,
754103,6.7,
754203,5.0,
754303,42.2,
754503,76.4,
754603,63.4,
754703,80.9,
754803,67.4,
754903,45.9,
755003,6.3,
755103,10.7,
755203,8.5,
755303,3.6,
755503,6.4,
755603,7.2,
755703,6.2,
755803,5.1,
755903,4.5,
756003,99.7,
756103,99.8,
756203,62.9,
756303,42.1,
756503,58.3,
756603,8.1,
756703,11.4,
756803,5.5,
756903,8.7,
757003,5.1,
757103,6.3,
757203,6.4,
757303,4.8,
757403,4.2,
757503,3.8,
757603,85.2,
757703,79.2,
757803,55.4,
757903,53.6,
758003,47.0,
758103,42.4,
758203,9.6,
758303,7.0,
758503,5.9,
758603,15.3,
758703,14.5,
758803,11.4,
758903,5.9,
759003,9.1,
759103,5.3,
759203,90.6,
759303,59.5,
759403,44.8,
759503,63.9,
759603,66.9,
759703,62.2,
759803,13.4,
759903,12.0,
760003,6.6,
760103,6.6,
760203,6.4,
760303,6.5,
760403,7.5,
760503,5.2,
760603,12.0,
760703,7.0,
760803,85.4,
760903,79.3,
761003,55.5,
761103,46.2,
761203,80.8,
761303,94.4,
761503,18.1,
761603,8.7,
761703,5.9,
761803,5.4,
761903,4.9,
762003,4.4,
762103,4.0,
762203,8.1,
762303,7.4,
762403,66.2,
762503,72.5,
762603,84.8,
762703,82.8,
762803,72.0,
762903,52.3,
763003,20.6,
763103,6.4,
763203,5.6,
763303,4.5,
763503,4.3,
763603,3.9,
763703,6.3,
763803,5.2,
763903,4.5,
764003,104.4,
764103,90.0,
764203,96.8,
764303,102.8,
764503,62.7,
764603,27.2,
764703,6.1,
764803,3.5,
764903,4.2,
765003,4.3,
765103,4.2,
765203,4.7,
765303,4.1,
765403,4.8,
765503,4.5,
765603,103.8,
765703,127.5,
765803,92.1,
765903,62.0,
766003,81.9,
766103,104.4,
766203,40.6,
766303,6.7,
766503,4.7,
766603,3.7,
766703,4.7,
766803,4.6,
766903,2.8,
767003,4.3,
767103,6.5,
767203,69.3,
767303,106.8,
767403,85.3,
767503,74.3,
767603,66.1,
767703,77.6,
767803,44.7,
767903,6.6,
768003,8.6,
768103,7.0,
768203,5.7,
768303,4.2,
768503,4.1,
768603,6.2,
768703,4.9,
768803,80.2,
768903,82.1,
769003,79.5,
769103,86.6,
769203,85.0,
769303,72.0,
769503,6.1,
769603,6.4,
769703,5.8,
769803,4.9,
769903,3.7,
770003,2.7,
770103,3.6,
770203,6.4,
770303,3.6,
770403,54.4,
770503,105.5,
770603,70.5,
770703,58.1,
770803,87.0,
770903,91.3,
771003,84.1,
771103,11.4,
771203,6.8,
771303,4.3,
771503,3.9,
771603,2.6,
771703,7.0,
771803,4.6,
771903,7.8,
772003,5.6,
772103,105.8,
772203,89.9,
772303,78.0,
772503,87.9,
772603,82.1,
772703,10.3,
772803,6.2,
772903,3.8,
773003,5.4,
773103,2.8,
773203,5.7,
773303,7.0,
773403,4.7,
773503,5.6,
773603,4.3,
773703,76.7,
773803,80.6,
773903,99.0,
774003,82.9,
774103,61.3,
774203,53.6,
774303,10.4,
774503,6.0,
774603,9.8,
774703,3.5,
774803,4.6,
774903,5.1,
775003,3.1,
775103,4.2,
775203,3.3,
775303,102.6,
775403,83.1,
775503,83.4,
775603,82.6,
775703,82.5,
775803,72.0,
775903,13.4,
776003,5.1,
776103,4.8,
776203,3.9,
776303,3.9,
776503,3.4,
776603,3.1,
776703,4.1,
776803,3.4,
776903,132.7,
777003,105.7,
777103,67.7,
777203,62.7,
777303,82.3,
777503,15.5,
777603,4.9,
777703,4.5,
777803,4.3,
777903,3.2,
778003,4.6,
778103,4.6,
778203,4.5,
778303,6.4,
778403,3.4,
778503,82.6,
778603,90.7,
778703,96.6,
778803,82.9,
778903,70.5,
779003,77.5,
779103,20.5,
779203,7.5,
779303,7.6,
779503,2.9,
779603,4.1,
779703,4.6,
779803,9.2,
779903,5.4,
780003,11.4,
780103,95.6,
780203,84.1,
780303,80.4,
780503,75.9,
780603,68.4,
780703,35.3,
780803,13.1,
780903,6.0,
781003,4.4,
781103,8.7,
781203,5.5,
781303,9.8,
781403,11.6,
781503,6.8,
781603,4.9,
781703,98.1,
781803,99.4,
781903,70.3,
782003,55.9,
782103,82.1,
782203,84.9,
782303,35.0,
782503,12.8,
782603,5.7,
782703,13.9,
782803,5.6,
782903,6.2,
783003,4.3,
783103,3.7,
783203,3.6,
783303,47.4,
783403,87.2,
783503,78.8,
783603,65.0,
783703,56.7,
783803,75.9,
783903,34.5,
784003,6.8,
784103,5.4,
784203,4.6,
784303,4.4,
784503,8.5,
784603,4.3,
784703,5.4,
784803,4.8,
784903,65.4,
785003,65.7,
785103,84.0,
785203,96.4,
785303,71.6,
785503,50.1,
785603,6.3,
785703,6.1,
785803,3.8,
785903,5.0,
786003,4.2,
786103,4.2,
786203,3.9,
786303,3.5,
786403,3.5,
786503,57.4,
786603,96.3,
786703,74.3,
786803,75.1,
786903,66.3,
787003,67.7,
787103,60.6,
787203,6.7,
787303,8.0,
787503,7.5,
787603,4.6,
787703,4.8,
787803,4.3,
787903,3.3,
788003,8.0,
788103,16.9,
788203,111.8,
788303,90.4,
788403,54.0,
788503,53.8,
788603,81.7,
788703,82.4,
788803,8.7,
788903,5.8,
789003,4.9,
789103,4.2,
789203,4.2,
789303,4.2,
789403,3.8,
789503,4.7,
789603,5.4,
789703,3.0,
789803,68.0,
789903,71.2,
790003,74.7,
790103,61.3,
790203,50.5,
790303,60.6,
790503,4.4,
790603,4.6,
790703,3.8,
790803,3.7,
790903,4.9,
791003,6.7,
791103,4.0,
791203,2.8,
791303,4.5,
791403,75.0,
791503,59.4,
791603,66.2,
791703,70.6,
791803,68.7,
791903,67.6,
792003,11.9,
792103,4.0,
792203,5.3,
792303,4.8,
792503,4.5,
792603,5.2,
792703,4.2,
792803,6.1,
792903,4.0,
793003,111.3,
793103,95.7,
793203,72.1,
793303,57.9,
793503,97.5,
793603,16.4,
793703,6.8,
793803,4.9,
793903,3.9,
794003,4.2,
794103,3.5,
794203,2.5,
794303,4.1,
794503,2.8,
794603,79.2,
794703,103.9,
794803,94.9,
794903,69.3,
795003,64.4,
795103,90.6,
795203,20.7,
795303,3.9,
795503,3.1,
795603,4.5,
795703,2.4,
795803,2.9,
795903,2.5,
796003,2.5,
796103,2.8,
796203,102.5,
796303,80.7,
796503,109.3,
796603,93.2,
796703,68.3,
796803,23.2,
796903,5.2,
797003,3.7,
797103,3.5,
797203,3.1,
797303,2.2,
797503,2.1,
797603,3.0,
797703,2.8,
797803,103.2,
797903,100.6,
798003,80.9,
798103,85.5,
798203,81.8,
798303,84.7,
798503,4.6,
798603,4.2,
798703,3.8,
798803,2.4,
798903,2.5,
799003,2.1,
799103,2.2,
799203,2.1,
799303,2.1,
799403,60.9,
799503,121.6,
799603,106.1,
799703,67.4,
799803,57.3,
799903,93.3,
800003,45.8,
800103,4.9,
800203,4.2,
800303,3.6,
800503,2.2,
800603,3.2,
800703,2.2,
800803,1.9,
800903,3.1,
801003,83.2,
801103,105.2,
801203,91.3,
801303,94.9,
801503,69.2,
801603,54.5,
801703,5.0,
801803,3.8,
801903,4.1,
802003,2.7,
802103,2.9,
802203,2.3,
802303,2.4,
802403,2.1,
802503,2.4,
802603,66.0,
802703,98.4,
802803,70.1,
802903,80.7,
803003,84.8,
803103,83.4,
803203,73.8,
803303,6.2,
803503,3.0,
803603,3.9,
803703,3.4,
803803,2.7,
803903,2.2,
804003,2.2,
804103,2.7,
804203,26.5,
804303,166.8,
804503,74.0,
804603,58.1,
804703,112.1,
804803,100.9,
804903,8.0,
805003,3.4,
805103,4.1,
805203,3.0,
805303,2.9,
805503,2.7,
805603,2.3,
805703,3.0,
805803,3.0,
805903,126.1,
806003,123.0,
806103,103.6,
806203,82.4,
806303,52.3,
806503,8.0,
806603,6.0,
806703,3.8,
806803,2.6,
806903,3.0,
807003,2.4,
807103,2.3,
807203,2.6,
807303,2.4,
807403,2.2,
807503,129.7,
807603,88.4,
807703,98.4,
807803,84.2,
807903,70.1,
808003,63.2,
808103,11.3,
808203,6.3,
808303,4.6,
808503,2.1,
808603,2.4,
808703,2.5,
808803,2.1,
808903,2.4,
809003,2.5,
809103,121.8,
809203,100.4,
809303,74.1,
809403,49.0,
809503,76.6,
809603,77.6,
809703,13.1,
809803,5.1,
809903,6.7,
810003,2.6,
810103,2.1,
810203,2.4,
810303,2.2,
810403,2.3,
810503,2.6,
810603,2.6,
810703,110.6,
810803,105.2,
810903,74.1,
811003,62.1,
811103,56.7,
811203,81.0,
811303,15.6,
811503,6.6,
811603,4.3,
811703,6.2,
811803,3.9,
811903,4.1,
812003,4.0,
812103,3.9,
812203,2.7,
812303,117.2,
812403,90.9,
812503,97.2,
812603,90.9,
812703,72.4,
812803,57.7,
812903,20.8,
813003,5.2,
813103,2.7,
813203,3.2,
813303,3.2,
813403,2.2,
813503,2.4,
813603,2.3,
813703,2.1,
813803,3.1,
813903,111.3,
814003,94.1,
814103,64.6,
814203,73.4,
814303,78.6,
814503,28.0,
814603,3.9,
814703,5.2,
814803,3.5,
814903,2.8,
815003,2.6,
815103,2.3,
815203,2.7,
815303,2.3,
815403,2.0,
815503,82.7,
815603,141.9,
815703,83.3,
815803,62.3,
815903,56.7,
816003,94.8,
816103,35.6,
816203,4.3,
816303,3.8,
816503,3.7,
816603,4.6,
816703,2.7,
816803,2.9,
816903,2.0,
817003,2.6,
817103,68.7,
817203,85.0,
817303,99.5,
817503,68.5,
817603,48.7,
817703,43.0,
817803,4.9,
817903,3.4,
818003,2.6,
818103,2.5,
818203,2.1,
818303,3.1,
818403,2.6,
818503,1.6,
818603,3.0,
818703,70.2,
818803,106.8,
818903,74.0,
819003,78.5,
819103,61.3,
819203,56.2,
819303,52.7,
819403,4.5,
819503,3.1,
819603,3.6,
819703,2.0,
819803,2.9,
819903,2.5,
820003,2.6,
820103,2.5,
820203,2.4,
820303,34.0,
820403,126.9,
820503,88.2,
820603,51.9,
820703,48.4,
820803,68.0,
820903,63.9,
821003,5.3,
821103,3.2,
821203,3.2,
821303,2.8,
821403,2.4,
821503,2.8,
821603,2.6,
821703,2.6,
821803,3.3,
821903,3.2,
822003,116.1,
822103,100.9,
822203,70.0,
822303,58.6,
822503,73.5,
822603,7.3,
822703,3.0,
822803,3.3,
822903,3.3,
823003,2.5,
823103,3.1,
823203,3.0,
823303,2.5,
823403,3.2,
823503,2.5,
823603,105.3,
823703,62.0,
823803,71.6,
823903,70.7,
824003,59.8,
824103,48.7,
824203,8.0,
824303,6.2,
824503,4.1,
824603,3.7,
824703,3.0,
824803,4.5,
824903,4.9,
825003,4.2,
825103,4.2,
825203,102.0,
825303,72.8,
825403,51.9,
825503,65.1,
825603,71.1,
825703,67.0,
825803,12.7,
825903,7.1,
826003,3.4,
826103,2.4,
826203,2.0,
826303,2.3,
826403,3.2,
826503,2.3,
826603,2.1,
826703,3.3,
826803,82.4,
826903,89.7,
827003,72.1,
827103,52.3,
827203,39.0,
827303,88.2,
827503,5.0,
827603,4.0,
827703,2.9,
827803,2.3,
827903,2.2,
828003,1.9,
828103,1.9,
828203,3.0,
828303,3.0,
828403,85.4,
828503,64.7,
828603,79.7,
828703,77.8,
828803,62.7,
828903,53.5,
829003,17.5,
829103,5.8,
829203,3.3,
829303,2.7,
829403,3.2,
829503,2.9,
829603,3.4,
829703,2.4,
829803,2.5,
829903,2.1,
830003,97.4,
830103,80.0,
830203,59.1,
830303,86.1,
830503,50.6,
830603,18.8,
830703,7.1,
830803,4.1,
830903,4.3,
831003,3.3,
831103,3.0,
831203,2.6,
831303,2.7,
831403,2.6,
831503,3.1,
831603,64.8,
831703,90.2,
831803,72.7,
831903,61.0,
832003,54.9,
832103,57.5,
832203,25.5,
832303,3.6,
832503,3.1,
832603,3.3,
832703,3.0,
832803,3.1,
832903,2.0,
833003,2.6,
833103,2.9,
833203,56.9,
833303,92.5,
833403,96.2,
833503,66.1,
833603,43.7,
833703,38.3,
833803,35.7,
833903,4.5,
834003,3.7,
834103,3.1,
834203,2.0,
834303,2.2,
834503,2.7,
834603,3.1,
834703,2.0,
834803,73.8,
834903,94.2,
835003,51.3,
835103,57.5,
835203,59.7,
835303,53.3,
835503,4.7,
835603,2.8,
835703,3.0,
835803,3.3,
835903,2.2,
836003,2.3,
836103,3.1,
836203,2.1,
836303,3.0,
836403,43.1,
836503,98.2,
836603,68.8,
836703,53.6,
836803,64.9,
836903,64.9,
837003,65.4,
837103,5.8,
837203,5.6,
837303,2.7,
837503,3.1,
837603,2.7,
837703,3.6,
837803,3.0,
837903,2.5,
838003,2.6,
838103,84.6,
838203,84.3,
838303,68.5,
838403,48.0,
838503,43.8,
838603,90.3,
838703,7.7,
838803,3.8,
838903,2.9,
839003,2.9,
839103,2.6,
839203,2.6,
839303,2.8,
839403,2.6,
839503,2.2,
839603,3.1,
839703,75.1,
