Time(ms),ENV_Value,RMS,MDF,MW_Amp,MW_Area,MW_Latency,Marker
0,129.1,0.0,80.1,0.0,0.0,0.0,
100,103.2,0.0,80.1,0.0,0.0,0.0,
200,128.3,0.0,80.1,0.0,0.0,0.0,
300,138.4,0.0,80.1,0.0,0.0,0.0,
400,14.3,0.0,80.1,0.0,0.0,0.0,
505,15.1,0.0,97.7,0.0,0.0,0.0,
605,11.1,0.0,97.7,0.0,0.0,0.0,
705,3.7,0.0,97.7,0.0,0.0,0.0,
805,10.2,0.0,87.9,0.0,0.0,0.0,
905,6.3,127.4,82.0,0.0,0.0,0.0,
1005,14.7,105.6,74.2,0.0,0.0,0.0,
1105,7.4,87.8,76.2,0.0,0.0,0.0,
1205,6.6,66.6,78.1,0.0,0.0,0.0,
1305,4.9,35.5,78.1,0.0,0.0,0.0,
1406,151.1,85.5,82.0,0.0,0.0,0.0,
1506,168.0,110.5,89.8,0.0,0.0,0.0,
1606,149.2,128.5,95.7,0.0,0.0,0.0,
1806,102.5,163.0,97.7,0.0,0.0,0.0,
1906,146.6,175.9,128.9,0.0,0.0,0.0,
2006,16.1,180.1,128.9,0.0,0.0,0.0,
2106,24.1,180.4,128.9,0.0,0.0,0.0,
2206,7.5,180.5,127.0,0.0,0.0,0.0,
2306,8.4,180.5,105.5,0.0,0.0,0.0,
2406,4.1,159.7,70.3,0.0,0.0,0.0,
2506,6.0,143.3,62.5,0.0,0.0,0.0,
2606,3.9,127.4,60.5,0.0,0.0,0.0,
2806,6.5,78.4,68.4,0.0,0.0,0.0,
2906,4.9,41.9,64.5,0.0,0.0,0.0,
3006,190.4,96.9,87.9,0.0,0.0,0.0,
3106,131.4,130.3,91.8,0.0,0.0,0.0,
3206,168.8,149.7,95.7,0.0,0.0,0.0,
3306,159.3,165.7,97.7,0.0,0.0,0.0,
3407,124.6,180.0,127.0,0.0,0.0,0.0,
3507,102.4,193.3,128.9,0.0,0.0,0.0,
3607,18.0,197.2,128.9,0.0,0.0,0.0,
3807,8.9,197.2,127.0,0.0,0.0,0.0,
3907,4.6,197.3,125.0,0.0,0.0,0.0,
4007,4.3,172.6,99.6,0.0,0.0,0.0,
4107,4.6,148.5,66.4,0.0,0.0,0.0,
4207,6.5,128.9,58.6,0.0,0.0,0.0,
4307,4.0,107.4,70.3,0.0,0.0,0.0,
4407,11.9,81.2,64.5,0.0,0.0,0.0,
4507,3.8,40.1,60.5,0.0,0.0,0.0,
4607,225.7,82.1,82.0,0.0,0.0,0.0,
4807,133.6,142.1,95.7,0.0,0.0,0.0,
4907,134.2,157.3,97.7,0.0,0.0,0.0,
5007,163.7,169.8,97.7,0.0,0.0,0.0,
5107,139.1,181.1,97.7,0.0,0.0,0.0,
5207,23.5,187.9,97.7,0.0,0.0,0.0,
5307,19.2,188.0,97.7,0.0,0.0,0.0,
5407,4.4,188.0,97.7,0.0,0.0,0.0,
5507,13.4,188.0,97.7,0.0,0.0,0.0,
5607,3.4,169.5,66.4,0.0,0.0,0.0,
5807,4.9,123.5,62.5,0.0,0.0,0.0,
5907,2.9,103.4,66.4,0.0,0.0,0.0,
6007,4.8,81.2,68.4,0.0,0.0,0.0,
6107,4.6,51.5,70.3,0.0,0.0,0.0,
6207,157.5,80.0,70.3,0.0,0.0,0.0,
6307,188.7,112.9,66.4,0.0,0.0,0.0,
6407,155.0,131.5,66.4,0.0,0.0,0.0,
6507,125.2,149.0,68.4,0.0,0.0,0.0,
6607,103.8,163.0,95.7,0.0,0.0,0.0,
6807,31.6,182.3,97.7,0.0,0.0,0.0,
6907,12.3,182.3,97.7,0.0,0.0,0.0,
7007,5.8,182.3,99.6,0.0,0.0,0.0,
7107,9.0,182.3,101.6,0.0,0.0,0.0,
7207,3.5,164.2,93.8,0.0,0.0,0.0,
7307,7.5,143.6,66.4,0.0,0.0,0.0,
7407,5.0,126.7,66.4,0.0,0.0,0.0,
7507,4.1,105.4,64.5,0.0,0.0,0.0,
7607,3.9,82.2,70.3,0.0,0.0,0.0,
7807,177.9,69.5,89.8,0.0,0.0,0.0,
7907,131.6,115.4,91.8,0.0,0.0,0.0,
8007,162.9,136.1,93.8,0.0,0.0,0.0,
8107,171.6,153.9,95.7,0.0,0.0,0.0,
8207,134.8,168.9,97.7,0.0,0.0,0.0,
8307,112.4,183.0,97.7,0.0,0.0,0.0,
8407,43.0,190.7,97.7,0.0,0.0,0.0,
8507,10.6,190.7,97.7,0.0,0.0,0.0,
8607,4.3,190.8,99.6,0.0,0.0,0.0,
8807,3.6,177.9,95.7,0.0,0.0,0.0,
8907,3.8,152.2,76.2,0.0,0.0,0.0,
9007,5.0,134.0,78.1,0.0,0.0,0.0,
9107,4.4,113.1,76.2,0.0,0.0,0.0,
9207,15.1,89.0,72.3,0.0,0.0,0.0,
9307,4.1,54.7,68.4,0.0,0.0,0.0,
9407,228.0,61.9,68.4,0.0,0.0,0.0,
9507,175.1,111.1,70.3,0.0,0.0,0.0,
9607,139.9,135.8,70.3,0.0,0.0,0.0,
9807,163.2,167.8,95.7,0.0,0.0,0.0,
9907,142.2,179.0,97.7,0.0,0.0,0.0,
10007,54.1,188.6,97.7,0.0,0.0,0.0,
10107,15.8,188.6,95.7,0.0,0.0,0.0,
10207,5.9,188.7,95.7,0.0,0.0,0.0,
10307,10.3,188.6,95.7,0.0,0.0,0.0,
10407,17.4,178.4,84.0,0.0,0.0,0.0,
10507,5.1,152.8,60.5,0.0,0.0,0.0,
10607,3.7,131.3,58.6,0.0,0.0,0.0,
10807,10.6,86.7,62.5,0.0,0.0,0.0,
10907,12.8,60.5,66.4,0.0,0.0,0.0,
11007,117.3,59.5,70.3,0.0,0.0,0.0,
11107,189.9,107.2,68.4,0.0,0.0,0.0,
11207,177.7,128.7,66.4,0.0,0.0,0.0,
11307,150.4,148.8,66.4,0.0,0.0,0.0,
11407,117.7,166.2,95.7,0.0,0.0,0.0,
11507,159.1,180.1,97.7,0.0,0.0,0.0,
11607,78.8,192.0,97.7,0.0,0.0,0.0,
11807,9.3,192.1,97.7,0.0,0.0,0.0,
11907,2.9,192.0,97.7,0.0,0.0,0.0,
12007,4.1,182.9,97.7,0.0,0.0,0.0,
12107,2.7,159.7,85.9,0.0,0.0,0.0,
12207,2.0,142.9,84.0,0.0,0.0,0.0,
12307,4.9,121.9,84.0,0.0,0.0,0.0,
12407,13.8,96.7,80.1,0.0,0.0,0.0,
12507,5.5,67.2,60.5,0.0,0.0,0.0,
12607,149.5,25.5,62.5,0.0,0.0,0.0,
12807,170.4,136.5,76.2,0.0,0.0,0.0,
12907,181.2,154.0,95.7,0.0,0.0,0.0,
13007,148.1,169.3,97.7,0.0,0.0,0.0,
13107,121.8,185.0,97.7,0.0,0.0,0.0,
13207,99.2,196.7,97.7,0.0,0.0,0.0,
13307,9.5,196.8,97.7,0.0,0.0,0.0,
13407,13.8,196.8,97.7,0.0,0.0,0.0,
13507,3.6,196.8,97.7,0.0,0.0,0.0,
13607,2.6,195.4,97.7,0.0,0.0,0.0,
13807,2.8,141.9,76.2,0.0,0.0,0.0,
13907,2.3,122.7,80.1,0.0,0.0,0.0,
14007,3.6,100.6,66.4,0.0,0.0,0.0,
14107,6.2,67.6,66.4,0.0,0.0,0.0,
14207,132.1,10.3,58.6,0.0,0.0,0.0,
14307,194.9,95.5,70.3,0.0,0.0,0.0,
14407,158.0,127.1,70.3,0.0,0.0,0.0,
14507,143.3,148.4,72.3,0.0,0.0,0.0,
14607,168.0,163.2,95.7,0.0,0.0,0.0,
14807,132.8,188.2,95.7,0.0,0.0,0.0,
14907,12.1,190.8,95.7,0.0,0.0,0.0,
15007,10.8,190.9,95.7,0.0,0.0,0.0,
15107,3.5,190.9,93.8,0.0,0.0,0.0,
15207,2.7,190.8,91.8,0.0,0.0,0.0,
15307,2.5,165.4,87.9,0.0,0.0,0.0,
15407,2.4,142.4,89.8,0.0,0.0,0.0,
15507,2.5,120.1,78.1,0.0,0.0,0.0,
15607,4.1,99.1,99.6,0.0,0.0,0.0,
15807,14.3,32.3,87.9,0.0,0.0,0.0,
15907,211.3,102.2,66.4,0.0,0.0,0.0,
16007,194.5,128.8,66.4,0.0,0.0,0.0,
16107,149.1,147.7,66.4,0.0,0.0,0.0,
16207,119.5,165.9,66.4,0.0,0.0,0.0,
16307,149.1,178.4,95.7,0.0,0.0,0.0,
16407,166.0,189.6,95.7,0.0,0.0,0.0,
16507,16.7,193.4,97.7,0.0,0.0,0.0,
16607,11.7,193.5,97.7,0.0,0.0,0.0,
16807,6.1,193.5,97.7,0.0,0.0,0.0,
16907,4.1,164.5,82.0,0.0,0.0,0.0,
17007,2.8,144.5,76.2,0.0,0.0,0.0,
17107,4.8,125.1,54.7,0.0,0.0,0.0,
17207,4.8,99.7,64.5,0.0,0.0,0.0,
17307,4.3,75.2,68.4,0.0,0.0,0.0,
17407,4.2,38.9,78.1,0.0,0.0,0.0,
17507,189.7,100.4,72.3,0.0,0.0,0.0,
17607,174.4,134.3,68.4,0.0,0.0,0.0,
17807,158.9,174.5,95.7,0.0,0.0,0.0,
17907,132.6,189.9,97.7,0.0,0.0,0.0,
18007,124.5,202.1,97.7,0.0,0.0,0.0,
18107,20.3,205.9,97.7,0.0,0.0,0.0,
18207,6.0,205.9,97.7,0.0,0.0,0.0,
18307,3.9,205.9,97.7,0.0,0.0,0.0,
18407,3.2,205.9,97.7,0.0,0.0,0.0,
18507,2.9,179.9,87.9,0.0,0.0,0.0,
18607,2.7,156.2,87.9,0.0,0.0,0.0,
18807,2.8,109.4,85.9,0.0,0.0,0.0,
18907,5.5,79.7,82.0,0.0,0.0,0.0,
19007,8.2,39.6,70.3,0.0,0.0,0.0,
19107,253.4,90.9,72.3,0.0,0.0,0.0,
19207,176.8,136.0,68.4,0.0,0.0,0.0,
19307,132.3,160.5,68.4,0.0,0.0,0.0,
19407,166.0,176.8,95.7,0.0,0.0,0.0,
19507,177.8,189.4,95.7,0.0,0.0,0.0,
19607,151.3,201.8,97.7,0.0,0.0,0.0,
19807,8.5,209.2,95.7,0.0,0.0,0.0,
19907,7.0,209.2,95.7,0.0,0.0,0.0,
20007,4.4,209.2,91.8,0.0,0.0,0.0,
20107,3.4,188.5,84.0,0.0,0.0,0.0,
20207,2.3,159.1,68.4,0.0,0.0,0.0,
20307,3.3,134.3,66.4,0.0,0.0,0.0,
20407,5.5,112.0,66.4,0.0,0.0,0.0,
20507,5.6,89.2,66.4,0.0,0.0,0.0,
20607,4.0,55.6,54.7,0.0,0.0,0.0,
20807,226.9,129.8,66.4,0.0,0.0,0.0,
20907,182.3,154.3,66.4,0.0,0.0,0.0,
21007,136.1,175.9,66.4,0.0,0.0,0.0,
21107,139.8,188.7,66.4,0.0,0.0,0.0,
21207,177.5,200.0,95.7,0.0,0.0,0.0,
21307,32.5,207.8,95.7,0.0,0.0,0.0,
21407,8.1,207.8,95.7,0.0,0.0,0.0,
21507,2.9,207.8,95.7,0.0,0.0,0.0,
21607,2.5,207.8,95.7,0.0,0.0,0.0,
21807,1.9,162.3,78.1,0.0,0.0,0.0,
21907,2.5,139.2,111.3,0.0,0.0,0.0,
22007,2.7,110.8,117.2,0.0,0.0,0.0,
22107,9.1,87.1,99.6,0.0,0.0,0.0,
22207,8.4,56.6,84.0,0.0,0.0,0.0,
22307,180.9,81.3,72.3,0.0,0.0,0.0,
22407,167.1,129.2,68.4,0.0,0.0,0.0,
22507,208.5,154.1,68.4,0.0,0.0,0.0,
22607,173.2,171.4,93.8,0.0,0.0,0.0,
22807,125.0,202.6,97.7,0.0,0.0,0.0,
22907,42.1,210.2,97.7,0.0,0.0,0.0,
23007,7.6,210.2,97.7,0.0,0.0,0.0,
23107,3.7,210.2,95.7,0.0,0.0,0.0,
23207,2.4,210.2,95.7,0.0,0.0,0.0,
23307,2.1,193.9,93.8,0.0,0.0,0.0,
23407,2.8,165.9,99.6,0.0,0.0,0.0,
23507,2.3,143.1,105.5,0.0,0.0,0.0,
23607,3.1,121.7,107.4,0.0,0.0,0.0,
23807,4.3,56.2,68.4,0.0,0.0,0.0,
23907,247.6,67.6,68.4,0.0,0.0,0.0,
24007,191.7,132.4,68.4,0.0,0.0,0.0,
24107,154.0,163.1,66.4,0.0,0.0,0.0,
24207,184.2,181.6,68.4,0.0,0.0,0.0,
24307,186.5,194.4,95.7,0.0,0.0,0.0,
24407,157.1,207.0,95.7,0.0,0.0,0.0,
24507,58.5,217.9,95.7,0.0,0.0,0.0,
24607,9.6,217.9,95.7,0.0,0.0,0.0,
24807,2.5,217.9,70.3,0.0,0.0,0.0,
24907,2.6,207.2,70.3,0.0,0.0,0.0,
25007,2.4,173.2,78.1,0.0,0.0,0.0,
25107,2.6,144.6,101.6,0.0,0.0,0.0,
25207,3.4,120.6,99.6,0.0,0.0,0.0,
25307,8.9,98.7,80.1,0.0,0.0,0.0,
25407,13.4,68.3,76.2,0.0,0.0,0.0,
25507,192.3,61.0,68.4,0.0,0.0,0.0,
25607,233.9,117.3,66.4,0.0,0.0,0.0,
25807,140.7,166.8,66.4,0.0,0.0,0.0,
25907,129.6,181.0,66.4,0.0,0.0,0.0,
26007,166.6,192.7,95.7,0.0,0.0,0.0,
26107,75.1,204.0,95.7,0.0,0.0,0.0,
26207,6.5,204.0,95.7,0.0,0.0,0.0,
26307,3.6,204.0,95.7,0.0,0.0,0.0,
26407,3.1,204.0,95.7,0.0,0.0,0.0,
26507,2.7,194.8,93.8,0.0,0.0,0.0,
26607,2.1,167.0,97.7,0.0,0.0,0.0,
26807,2.4,117.5,109.4,0.0,0.0,0.0,
26907,2.5,94.2,89.8,0.0,0.0,0.0,
27007,3.5,67.3,74.2,0.0,0.0,0.0,
27107,135.6,47.3,84.0,0.0,0.0,0.0,
27207,172.1,117.1,70.3,0.0,0.0,0.0,
27307,209.6,146.0,68.4,0.0,0.0,0.0,
27407,178.7,164.5,72.3,0.0,0.0,0.0,
27507,143.1,181.1,95.7,0.0,0.0,0.0,
27607,121.6,195.4,97.7,0.0,0.0,0.0,
27807,8.6,205.7,97.7,0.0,0.0,0.0,
27907,5.0,205.7,95.7,0.0,0.0,0.0,
28007,2.6,205.7,95.7,0.0,0.0,0.0,
28107,2.3,200.2,93.8,0.0,0.0,0.0,
28207,2.7,169.2,72.3,0.0,0.0,0.0,
28307,2.7,145.0,91.8,0.0,0.0,0.0,
28407,2.3,123.6,99.6,0.0,0.0,0.0,
28507,2.4,97.7,99.6,0.0,0.0,0.0,
28607,3.7,64.3,99.6,0.0,0.0,0.0,
28807,218.9,113.7,66.4,0.0,0.0,0.0,
28907,178.8,155.3,66.4,0.0,0.0,0.0,
29007,191.7,176.4,66.4,0.0,0.0,0.0,
29107,172.9,189.4,66.4,0.0,0.0,0.0,
29207,148.3,201.3,95.7,0.0,0.0,0.0,
29307,136.3,215.1,95.7,0.0,0.0,0.0,
29407,11.8,216.3,95.7,0.0,0.0,0.0,
29507,3.6,216.3,89.8,0.0,0.0,0.0,
29607,3.3,216.3,74.2,0.0,0.0,0.0,
29807,2.2,184.0,82.0,0.0,0.0,0.0,
29907,2.2,150.6,109.4,0.0,0.0,0.0,
30007,2.5,125.2,101.6,0.0,0.0,0.0,
30107,2.7,104.5,99.6,0.0,0.0,0.0,
30207,3.5,79.1,80.1,0.0,0.0,0.0,
30307,71.6,23.0,80.1,0.0,0.0,0.0,
30407,268.3,103.6,66.4,0.0,0.0,0.0,
30507,219.4,141.2,66.4,0.0,0.0,0.0,
30607,160.6,169.6,66.4,0.0,0.0,0.0,
30807,168.2,198.1,95.7,0.0,0.0,0.0,
30907,164.5,209.6,97.7,0.0,0.0,0.0,
31007,16.0,213.3,97.7,0.0,0.0,0.0,
31107,4.7,213.3,97.7,0.0,0.0,0.0,
31207,3.3,213.3,97.7,0.0,0.0,0.0,
31307,2.5,213.3,97.7,0.0,0.0,0.0,
31407,2.4,186.5,91.8,0.0,0.0,0.0,
31507,2.5,159.8,84.0,0.0,0.0,0.0,
31607,2.4,129.4,99.6,0.0,0.0,0.0,
31807,3.7,79.1,72.3,0.0,0.0,0.0,
31907,5.0,39.6,56.6,0.0,0.0,0.0,
32007,191.3,110.3,70.3,0.0,0.0,0.0,
32107,214.6,145.7,68.4,0.0,0.0,0.0,
32207,188.5,167.7,68.4,0.0,0.0,0.0,
32307,145.0,183.0,95.7,0.0,0.0,0.0,
32407,124.4,197.1,95.7,0.0,0.0,0.0,
32507,169.3,208.6,97.7,0.0,0.0,0.0,
32607,19.2,212.3,97.7,0.0,0.0,0.0,
32807,3.7,212.3,95.7,0.0,0.0,0.0,
32907,2.7,212.3,93.8,0.0,0.0,0.0,
33007,3.3,181.5,76.2,0.0,0.0,0.0,
33107,2.3,154.4,68.4,0.0,0.0,0.0,
33207,2.5,130.2,68.4,0.0,0.0,0.0,
33307,4.3,107.6,84.0,0.0,0.0,0.0,
33407,3.4,79.1,85.9,0.0,0.0,0.0,
33507,4.2,39.6,72.3,0.0,0.0,0.0,
33607,249.2,92.7,66.4,0.0,0.0,0.0,
33807,194.0,175.1,66.4,0.0,0.0,0.0,
33907,184.5,191.6,66.4,0.0,0.0,0.0,
34007,165.1,204.3,66.4,0.0,0.0,0.0,
34107,144.1,219.3,66.4,0.0,0.0,0.0,
34207,25.5,224.6,95.7,0.0,0.0,0.0,
34307,3.8,224.6,95.7,0.0,0.0,0.0,
34407,2.6,224.6,95.7,0.0,0.0,0.0,
34507,3.4,224.6,93.8,0.0,0.0,0.0,
34607,2.7,204.6,91.8,0.0,0.0,0.0,
34807,2.7,140.7,101.6,0.0,0.0,0.0,
34907,3.3,117.1,99.6,0.0,0.0,0.0,
35007,7.1,93.4,82.0,0.0,0.0,0.0,
35107,5.2,48.4,74.2,0.0,0.0,0.0,
35207,273.6,94.2,68.4,0.0,0.0,0.0,
35307,231.1,138.9,66.4,0.0,0.0,0.0,
35407,180.8,170.1,66.4,0.0,0.0,0.0,
35507,141.4,188.9,66.4,0.0,0.0,0.0,
35607,166.1,202.0,95.7,0.0,0.0,0.0,
35807,30.2,220.9,97.7,0.0,0.0,0.0,
35907,4.4,220.9,97.7,0.0,0.0,0.0,
36007,2.9,220.9,97.7,0.0,0.0,0.0,
36107,2.4,220.9,95.7,0.0,0.0,0.0,
36207,2.0,199.9,93.8,0.0,0.0,0.0,
36307,2.3,171.9,123.0,0.0,0.0,0.0,
36407,2.5,141.1,132.8,0.0,0.0,0.0,
36507,3.0,114.6,132.8,0.0,0.0,0.0,
36607,4.1,89.5,101.6,0.0,0.0,0.0,
36807,171.2,85.4,74.2,0.0,0.0,0.0,
36907,218.5,131.0,68.4,0.0,0.0,0.0,
37007,214.3,158.8,66.4,0.0,0.0,0.0,
37107,159.8,177.2,68.4,0.0,0.0,0.0,
37207,127.7,192.7,95.7,0.0,0.0,0.0,
37307,150.4,203.8,95.7,0.0,0.0,0.0,
37407,41.1,210.5,95.7,0.0,0.0,0.0,
37507,5.2,210.5,95.7,0.0,0.0,0.0,
37607,3.3,210.5,93.8,0.0,0.0,0.0,
37807,2.3,192.5,82.0,0.0,0.0,0.0,
37907,2.3,164.9,119.1,0.0,0.0,0.0,
38007,2.1,138.3,101.6,0.0,0.0,0.0,
38107,2.9,113.8,99.6,0.0,0.0,0.0,
38207,7.3,85.0,74.2,0.0,0.0,0.0,
38307,4.9,52.9,66.4,0.0,0.0,0.0,
38407,207.0,59.2,68.4,0.0,0.0,0.0,
38507,167.5,119.7,66.4,0.0,0.0,0.0,
38607,170.3,147.7,66.4,0.0,0.0,0.0,
38807,164.3,177.6,66.4,0.0,0.0,0.0,
38907,140.3,193.8,66.4,0.0,0.0,0.0,
39007,50.6,202.3,66.4,0.0,0.0,0.0,
39107,5.8,202.3,72.3,0.0,0.0,0.0,
39207,3.2,202.3,89.8,0.0,0.0,0.0,
39307,3.0,202.3,84.0,0.0,0.0,0.0,
39407,2.1,193.5,82.0,0.0,0.0,0.0,
39507,2.4,163.1,117.2,0.0,0.0,0.0,
39607,2.5,138.3,113.3,0.0,0.0,0.0,
39807,5.3,97.0,76.2,0.0,0.0,0.0,
39907,6.2,58.4,68.4,0.0,0.0,0.0,
40007,202.0,57.9,70.3,0.0,0.0,0.0,
40107,206.5,110.5,68.4,0.0,0.0,0.0,
40207,179.9,141.6,66.4,0.0,0.0,0.0,
40307,126.9,161.5,66.4,0.0,0.0,0.0,
40407,161.7,176.0,95.7,0.0,0.0,0.0,
40507,165.9,188.4,95.7,0.0,0.0,0.0,
40607,70.1,200.3,97.7,0.0,0.0,0.0,
40807,3.1,200.3,97.7,0.0,0.0,0.0,
40907,2.7,200.3,95.7,0.0,0.0,0.0,
41007,2.6,191.8,95.7,0.0,0.0,0.0,
41107,2.7,167.1,132.8,0.0,0.0,0.0,
41207,2.4,141.8,134.8,0.0,0.0,0.0,
41307,2.7,118.6,99.6,0.0,0.0,0.0,
41407,4.1,95.8,78.1,0.0,0.0,0.0,
41507,4.2,68.2,72.3,0.0,0.0,0.0,
41607,122.1,56.3,87.9,0.0,0.0,0.0,
41807,218.1,147.4,68.4,0.0,0.0,0.0,
41907,165.7,166.1,68.4,0.0,0.0,0.0,
42007,132.6,182.4,95.7,0.0,0.0,0.0,
42107,138.6,194.7,95.7,0.0,0.0,0.0,
42207,89.8,205.4,95.7,0.0,0.0,0.0,
42307,8.6,205.4,95.7,0.0,0.0,0.0,
42407,3.0,205.4,68.4,0.0,0.0,0.0,
42507,2.2,205.4,68.4,0.0,0.0,0.0,
42607,2.4,197.6,70.3,0.0,0.0,0.0,
42807,2.3,143.0,99.6,0.0,0.0,0.0,
42907,3.2,120.9,93.8,0.0,0.0,0.0,
43007,6.5,94.5,84.0,0.0,0.0,0.0,
43107,12.7,65.7,99.6,0.0,0.0,0.0,
43207,162.7,12.7,89.8,0.0,0.0,0.0,
43307,187.5,113.8,66.4,0.0,0.0,0.0,
43407,155.4,145.0,66.4,0.0,0.0,0.0,
43507,186.2,163.0,66.4,0.0,0.0,0.0,
43607,175.9,177.2,66.4,0.0,0.0,0.0,
43807,123.5,207.6,95.7,0.0,0.0,0.0,
43907,10.9,207.9,95.7,0.0,0.0,0.0,
44007,3.1,207.9,95.7,0.0,0.0,0.0,
44107,2.8,207.9,95.7,0.0,0.0,0.0,
44207,2.8,207.6,93.8,0.0,0.0,0.0,
44307,2.1,174.0,91.8,0.0,0.0,0.0,
44407,2.5,149.0,91.8,0.0,0.0,0.0,
44507,2.4,129.0,78.1,0.0,0.0,0.0,
44607,5.5,108.7,68.4,0.0,0.0,0.0,
44807,109.9,12.0,54.7,0.0,0.0,0.0,
44907,245.1,104.4,70.3,0.0,0.0,0.0,
45007,184.3,141.9,68.4,0.0,0.0,0.0,
45107,142.3,168.1,70.3,0.0,0.0,0.0,
45207,165.1,182.4,95.7,0.0,0.0,0.0,
45307,162.9,194.1,95.7,0.0,0.0,0.0,
45407,144.0,204.7,95.7,0.0,0.0,0.0,
45507,11.7,207.9,95.7,0.0,0.0,0.0,
45607,3.2,207.9,95.7,0.0,0.0,0.0,
45807,2.4,207.9,93.8,0.0,0.0,0.0,
45907,2.8,179.9,87.9,0.0,0.0,0.0,
46007,2.5,152.0,68.4,0.0,0.0,0.0,
46107,2.5,122.5,66.4,0.0,0.0,0.0,
46207,4.0,99.8,68.4,0.0,0.0,0.0,
46307,6.3,74.7,68.4,0.0,0.0,0.0,
46407,9.2,36.5,60.5,0.0,0.0,0.0,
46507,257.8,112.0,66.4,0.0,0.0,0.0,
46607,258.5,152.7,66.4,0.0,0.0,0.0,
46807,155.5,198.2,66.4,0.0,0.0,0.0,
46907,133.7,212.1,66.4,0.0,0.0,0.0,
47007,172.1,223.1,66.4,0.0,0.0,0.0,
47107,15.8,226.8,66.4,0.0,0.0,0.0,
47207,3.9,226.8,89.8,0.0,0.0,0.0,
47307,3.0,226.8,89.8,0.0,0.0,0.0,
47407,2.4,226.7,82.0,0.0,0.0,0.0,
47507,2.8,197.2,78.1,0.0,0.0,0.0,
47607,2.3,167.7,89.8,0.0,0.0,0.0,
47807,2.0,110.2,99.6,0.0,0.0,0.0,
47907,3.5,80.3,91.8,0.0,0.0,0.0,
48007,8.5,40.5,72.3,0.0,0.0,0.0,
48107,217.9,106.1,66.4,0.0,0.0,0.0,
48207,176.6,150.1,66.4,0.0,0.0,0.0,
48307,220.2,176.8,66.4,0.0,0.0,0.0,
48407,194.4,195.4,93.8,0.0,0.0,0.0,
48507,151.0,211.5,95.7,0.0,0.0,0.0,
48607,120.1,224.7,95.7,0.0,0.0,0.0,
48807,6.1,228.5,97.7,0.0,0.0,0.0,
48907,3.1,228.5,97.7,0.0,0.0,0.0,
49007,2.6,228.5,95.7,0.0,0.0,0.0,
49107,3.8,202.4,93.8,0.0,0.0,0.0,
49207,2.7,172.3,99.6,0.0,0.0,0.0,
49307,3.7,144.8,99.6,0.0,0.0,0.0,
49407,5.0,118.5,99.6,0.0,0.0,0.0,
49507,7.0,86.7,97.7,0.0,0.0,0.0,
49607,6.8,42.1,72.3,0.0,0.0,0.0,
49807,220.1,144.8,68.4,0.0,0.0,0.0,
49907,160.0,178.5,66.4,0.0,0.0,0.0,
50007,196.4,197.1,66.4,0.0,0.0,0.0,
50107,198.0,212.7,95.7,0.0,0.0,0.0,
50207,163.8,225.3,95.7,0.0,0.0,0.0,
50307,30.2,232.4,95.7,0.0,0.0,0.0,
50407,4.1,232.4,95.7,0.0,0.0,0.0,
50507,3.1,232.3,91.8,0.0,0.0,0.0,
50607,2.4,232.3,80.1,0.0,0.0,0.0,
50807,2.5,181.8,68.4,0.0,0.0,0.0,
50907,2.5,148.9,66.4,0.0,0.0,0.0,
51007,3.6,123.1,78.1,0.0,0.0,0.0,
51107,6.8,93.7,91.8,0.0,0.0,0.0,
51207,4.0,56.9,84.0,0.0,0.0,0.0,
51307,235.0,96.5,64.5,0.0,0.0,0.0,
51407,286.1,151.5,64.5,1645.0,5401.0,6.0,
51507,222.0,181.6,66.4,1645.0,5401.0,6.0,
51607,162.0,203.7,66.4,1645.0,5401.0,6.0,
51807,176.4,232.3,95.7,1645.0,5401.0,6.0,
51907,34.1,239.4,95.7,1645.0,5401.0,6.0,
52007,4.2,239.4,97.7,1645.0,5401.0,6.0,
52107,2.3,239.4,97.7,1645.0,5401.0,6.0,
52207,2.8,239.4,97.7,1645.0,5401.0,6.0,
52307,2.7,219.1,97.7,1645.0,5401.0,6.0,
52407,2.6,185.4,76.2,1645.0,5401.0,6.0,
52507,2.8,156.0,99.6,1645.0,5401.0,6.0,
52607,3.7,125.8,101.6,1645.0,5401.0,6.0,
52807,3.4,58.2,142.6,1645.0,5401.0,6.0,
52907,205.7,85.6,74.2,1645.0,5401.0,6.0,
53007,217.2,157.1,68.4,1406.0,5548.0,7.0,
53107,233.4,189.1,68.4,1406.0,5548.0,7.0,
53207,188.9,208.6,93.8,1406.0,5548.0,7.0,
53307,152.8,222.6,95.7,1406.0,5548.0,7.0,
53407,129.0,236.3,95.7,1406.0,5548.0,7.0,
53507,48.2,243.8,97.7,1406.0,5548.0,7.0,
53607,7.7,243.8,97.7,1406.0,5548.0,7.0,
53807,2.6,243.8,95.7,1406.0,5548.0,7.0,
53907,2.5,228.3,93.8,1406.0,5548.0,7.0,
54007,3.0,186.5,68.4,1406.0,5548.0,7.0,
54107,3.2,154.0,89.8,1406.0,5548.0,7.0,
54207,3.3,126.2,82.0,1406.0,5548.0,7.0,
54307,3.8,99.6,99.6,1406.0,5548.0,7.0,
54407,4.3,60.5,101.6,1406.0,5548.0,7.0,
54507,264.3,61.8,70.3,1406.0,5548.0,7.0,
54607,266.5,140.8,66.4,1581.0,5916.0,6.0,
54807,198.7,211.5,66.4,1581.0,5916.0,6.0,
54907,205.9,226.2,66.4,1581.0,5916.0,6.0,
55007,182.8,239.1,66.4,1581.0,5916.0,6.0,
55107,68.8,250.6,66.4,1581.0,5916.0,6.0,
55207,7.0,250.6,66.4,1581.0,5916.0,6.0,
55307,3.0,250.6,66.4,1581.0,5916.0,6.0,
55407,2.0,250.6,68.4,1581.0,5916.0,6.0,
55507,2.8,242.9,70.3,1581.0,5916.0,6.0,
55607,2.7,207.3,80.1,1581.0,5916.0,6.0,
55807,8.8,134.4,101.6,1581.0,5916.0,6.0,
55907,5.0,107.9,74.2,1581.0,5916.0,6.0,
56007,9.3,75.3,60.5,1581.0,5916.0,6.0,
56107,164.6,68.0,66.4,1581.0,5916.0,6.0,
56207,299.7,142.6,66.4,1792.0,5906.0,6.0,
56307,242.2,178.5,66.4,1792.0,5906.0,6.0,
56407,165.4,202.7,66.4,1792.0,5906.0,6.0,
56507,139.1,216.3,68.4,1792.0,5906.0,6.0,
56607,171.3,227.7,95.7,1792.0,5906.0,6.0,
56807,7.5,238.7,97.7,1792.0,5906.0,6.0,
56907,8.8,238.7,97.7,1792.0,5906.0,6.0,
57007,4.7,238.7,97.7,1792.0,5906.0,6.0,
57107,3.2,228.9,95.7,1792.0,5906.0,6.0,
57207,3.0,191.5,78.1,1792.0,5906.0,6.0,
57307,2.3,158.5,74.2,1792.0,5906.0,6.0,
57407,2.0,126.1,89.8,1792.0,5906.0,6.0,
57507,3.2,100.9,101.6,1792.0,5906.0,6.0,
57607,4.4,71.7,95.7,1792.0,5906.0,6.0,
57807,232.0,155.2,68.4,1538.0,5770.0,7.0,
57907,261.3,200.5,68.4,1413.0,4955.0,6.0,
58007,231.9,224.1,72.3,1413.0,4955.0,6.0,
58107,173.8,240.5,95.7,1413.0,4955.0,6.0,
58207,142.8,257.3,95.7,1413.0,4955.0,6.0,
58307,117.4,269.7,97.7,1413.0,4955.0,6.0,
58407,11.5,269.8,97.7,1413.0,4955.0,6.0,
58507,3.3,269.8,97.7,1413.0,4955.0,6.0,
58607,2.6,269.8,95.7,1413.0,4955.0,6.0,
58807,3.7,220.8,105.5,1413.0,4955.0,6.0,
58907,2.3,180.6,97.7,1413.0,4955.0,6.0,
59007,3.0,150.3,70.3,1413.0,4955.0,6.0,
59107,2.9,122.2,76.2,1413.0,4955.0,6.0,
59207,5.9,81.4,109.4,1413.0,4955.0,6.0,
59307,174.8,7.9,101.6,1413.0,4955.0,6.0,
59407,269.9,124.2,68.4,1563.0,5495.0,7.0,
59507,187.2,175.0,68.4,1550.0,5208.0,6.0,
59607,176.9,199.2,68.4,1550.0,5208.0,6.0,
59807,162.6,223.9,95.7,1550.0,5208.0,6.0,
59907,139.6,236.2,95.7,1550.0,5208.0,6.0,
60007,13.3,237.1,95.7,1550.0,5208.0,6.0,
60107,3.2,237.1,66.4,1550.0,5208.0,6.0,
60207,2.9,237.1,66.4,1550.0,5208.0,6.0,
60307,2.9,237.1,68.4,1550.0,5208.0,6.0,
60407,3.0,202.0,74.2,1550.0,5208.0,6.0,
60507,2.5,160.1,111.3,1550.0,5208.0,6.0,
60607,2.9,128.7,111.3,1550.0,5208.0,6.0,
60807,3.0,78.2,123.0,1550.0,5208.0,6.0,
60907,25.1,20.8,117.2,1550.0,5208.0,6.0,
61007,315.1,126.1,66.4,1338.0,5670.0,7.0,
61107,260.4,173.5,66.4,1687.0,4985.0,5.0,
61207,190.1,203.8,66.4,1687.0,4985.0,5.0,
61307,124.5,219.0,68.4,1687.0,4985.0,5.0,
61407,170.7,230.5,95.7,1687.0,4985.0,5.0,
61507,171.1,240.8,95.7,1687.0,4985.0,5.0,
61607,15.8,244.5,97.7,1687.0,4985.0,5.0,
61807,2.8,244.5,97.7,1687.0,4985.0,5.0,
61907,3.1,244.5,97.7,1687.0,4985.0,5.0,
62007,3.2,209.6,89.8,1687.0,4985.0,5.0,
62107,2.4,172.4,66.4,1687.0,4985.0,5.0,
62207,2.6,135.2,68.4,1687.0,4985.0,5.0,
62307,2.8,108.9,68.4,1687.0,4985.0,5.0,
62407,3.2,81.7,68.4,1687.0,4985.0,5.0,
62507,8.3,42.6,66.4,1687.0,4985.0,5.0,
62607,224.3,121.1,70.3,1687.0,4985.0,5.0,
62807,247.1,208.9,66.4,1687.0,4985.0,5.0,
62907,177.1,226.3,95.7,1687.0,4985.0,5.0,
63007,142.5,242.3,95.7,1687.0,4985.0,5.0,
63107,150.2,254.2,95.7,1687.0,4985.0,5.0,
63207,21.7,257.8,95.7,1687.0,4985.0,5.0,
63307,3.6,257.8,95.7,1687.0,4985.0,5.0,
63407,2.8,257.8,95.7,1687.0,4985.0,5.0,
63507,1.7,257.8,93.8,1687.0,4985.0,5.0,
63607,2.2,227.6,89.8,1687.0,4985.0,5.0,
63807,3.1,151.1,68.4,1687.0,4985.0,5.0,
63907,2.6,123.6,72.3,1687.0,4985.0,5.0,
64007,2.3,88.1,74.2,1687.0,4985.0,5.0,
64107,4.0,43.0,68.4,1687.0,4985.0,5.0,
64207,294.4,100.0,66.4,1743.0,5921.0,7.0,
64307,243.7,176.0,66.4,1715.0,5767.0,6.0,
64407,194.4,214.2,66.4,1802.0,5494.0,5.0,
64507,204.9,230.9,66.4,1802.0,5494.0,5.0,
64607,181.0,243.1,66.4,1802.0,5494.0,5.0,
64807,25.5,260.4,66.4,1802.0,5494.0,5.0,
64907,4.9,260.4,93.8,1802.0,5494.0,5.0,
65007,2.6,260.4,91.8,1802.0,5494.0,5.0,
65107,3.3,260.4,87.9,1802.0,5494.0,5.0,
65207,3.1,240.5,76.2,1802.0,5494.0,5.0,
65307,2.6,192.0,66.4,1802.0,5494.0,5.0,
65407,3.0,148.2,72.3,1802.0,5494.0,5.0,
65507,2.5,120.5,91.8,1802.0,5494.0,5.0,
65607,3.3,93.5,93.8,1802.0,5494.0,5.0,
65807,258.9,95.0,66.4,1802.0,5494.0,5.0,
65907,285.2,154.8,66.4,1718.0,5663.0,6.0,
66007,211.2,189.4,66.4,1718.0,5663.0,6.0,
66107,144.6,211.0,66.4,1718.0,5663.0,6.0,
66207,179.5,224.3,95.7,1718.0,5663.0,6.0,
66307,178.1,235.8,95.7,1718.0,5663.0,6.0,
66407,33.5,243.1,95.7,1718.0,5663.0,6.0,
66507,4.3,243.1,95.7,1718.0,5663.0,6.0,
66607,2.9,243.1,95.7,1718.0,5663.0,6.0,
66807,2.6,223.8,93.8,1718.0,5663.0,6.0,
66907,2.7,187.5,70.3,1718.0,5663.0,6.0,
67007,2.3,152.4,66.4,1718.0,5663.0,6.0,
67107,2.1,120.8,68.4,1718.0,5663.0,6.0,
67207,2.8,93.6,68.4,1718.0,5663.0,6.0,
67307,2.8,59.3,66.4,1718.0,5663.0,6.0,
67407,191.9,91.9,74.2,1718.0,5663.0,6.0,
67507,268.9,165.7,68.4,1543.0,5143.0,6.0,
67607,254.7,197.3,68.4,1543.0,5143.0,6.0,
67807,131.0,231.4,95.7,1543.0,5143.0,6.0,
67907,123.0,241.5,95.7,1543.0,5143.0,6.0,
68007,39.8,247.9,95.7,1543.0,5143.0,6.0,
68107,4.9,247.9,95.7,1543.0,5143.0,6.0,
68207,2.5,247.9,95.7,1543.0,5143.0,6.0,
68307,2.4,247.9,93.8,1543.0,5143.0,6.0,
68407,2.7,230.3,82.0,1543.0,5143.0,6.0,
68507,2.8,184.5,91.8,1543.0,5143.0,6.0,
68607,2.4,150.2,97.7,1543.0,5143.0,6.0,
68807,2.7,89.0,123.0,1543.0,5143.0,6.0,
68907,3.3,56.4,121.1,1543.0,5143.0,6.0,
69007,262.5,70.3,68.4,1543.0,5143.0,6.0,
69107,237.3,159.1,66.4,1660.0,5375.0,6.0,
69207,188.8,195.8,66.4,1407.0,4617.0,5.0,
69307,201.3,214.8,66.4,1407.0,4617.0,5.0,
69407,174.0,226.8,95.7,1407.0,4617.0,5.0,
69507,134.9,237.1,95.7,1407.0,4617.0,5.0,
69607,50.5,244.8,66.4,1407.0,4617.0,5.0,
69807,2.7,244.9,66.4,1407.0,4617.0,5.0,
69907,3.3,244.9,68.4,1407.0,4617.0,5.0,
70007,2.2,234.6,70.3,1407.0,4617.0,5.0,
70107,2.7,186.1,105.5,1407.0,4617.0,5.0,
70207,2.6,147.1,99.6,1407.0,4617.0,5.0,
70307,2.2,117.5,97.7,1407.0,4617.0,5.0,
70407,3.8,92.4,101.6,1407.0,4617.0,5.0,
70507,3.2,61.2,101.6,1407.0,4617.0,5.0,
70607,213.4,65.4,68.4,1407.0,4617.0,5.0,
70807,218.9,181.5,66.4,1669.0,4805.0,5.0,
70907,154.6,207.9,66.4,1669.0,4805.0,5.0,
71007,165.6,221.0,95.7,1669.0,4805.0,5.0,
71107,167.6,231.7,95.7,1669.0,4805.0,5.0,
71207,70.6,241.8,95.7,1669.0,4805.0,5.0,
71307,6.3,241.9,97.7,1669.0,4805.0,5.0,
71407,3.2,241.9,95.7,1669.0,4805.0,5.0,
71507,2.7,241.9,95.7,1669.0,4805.0,5.0,
71607,2.5,232.9,93.8,1669.0,4805.0,5.0,
71807,2.2,159.9,82.0,1669.0,4805.0,5.0,
71907,2.3,123.6,99.6,1669.0,4805.0,5.0,
72007,2.8,98.3,111.3,1669.0,4805.0,5.0,
72107,3.6,69.4,99.6,1669.0,4805.0,5.0,
72207,143.3,54.2,87.9,1669.0,4805.0,5.0,
72307,255.7,147.7,68.4,1533.0,5066.0,6.0,
72407,259.5,185.0,68.4,1533.0,5066.0,6.0,
72507,189.7,205.2,68.4,1533.0,5066.0,6.0,
72607,136.4,220.3,95.7,1533.0,5066.0,6.0,
72807,90.2,240.3,95.7,1533.0,5066.0,6.0,
72907,8.3,240.3,66.4,1533.0,5066.0,6.0,
73007,2.8,240.3,66.4,1533.0,5066.0,6.0,
73107,2.0,240.3,66.4,1533.0,5066.0,6.0,
73207,3.0,234.2,66.4,1533.0,5066.0,6.0,
73307,2.7,189.6,78.1,1533.0,5066.0,6.0,
73407,2.4,153.4,111.3,1533.0,5066.0,6.0,
73507,3.6,125.1,103.5,1533.0,5066.0,6.0,
73607,2.9,96.1,101.6,1533.0,5066.0,6.0,
73807,178.4,5.0,89.8,1533.0,5066.0,6.0,
73907,243.2,134.6,64.5,1227.0,5339.0,7.0,
74007,178.0,180.1,64.5,1645.0,4613.0,5.0,
74107,193.1,199.7,66.4,1645.0,4613.0,5.0,
74207,172.3,212.5,66.4,1645.0,4613.0,5.0,
74307,142.7,223.0,95.7,1645.0,4613.0,5.0,
74407,132.6,236.2,95.7,1645.0,4613.0,5.0,
74507,10.1,236.7,95.7,1645.0,4613.0,5.0,
74607,4.7,236.7,95.7,1645.0,4613.0,5.0,
74807,5.5,236.7,93.8,1645.0,4613.0,5.0,
74907,3.8,194.7,89.8,1645.0,4613.0,5.0,
75007,3.3,153.6,101.6,1645.0,4613.0,5.0,
75107,3.6,127.2,99.6,1645.0,4613.0,5.0,
75207,3.2,104.4,72.3,1645.0,4613.0,5.0,
75307,2.9,79.5,89.8,1645.0,4613.0,5.0,
75407,114.3,16.3,78.1,1645.0,4613.0,5.0,
75507,340.3,129.8,66.4,1461.0,5580.0,7.0,
75607,249.6,185.1,66.4,1374.0,4849.0,6.0,
75807,154.0,232.8,95.7,1374.0,4849.0,6.0,
75907,161.8,242.3,95.7,1374.0,4849.0,6.0,
76007,149.5,251.2,95.7,1374.0,4849.0,6.0,
76107,12.9,254.1,95.7,1374.0,4849.0,6.0,
76207,3.1,254.1,95.7,1374.0,4849.0,6.0,
76307,2.8,254.1,95.7,1374.0,4849.0,6.0,
76407,2.5,254.1,91.8,1374.0,4849.0,6.0,
76507,2.6,218.4,85.9,1374.0,4849.0,6.0,
76607,3.3,174.1,99.6,1374.0,4849.0,6.0,
76807,3.5,101.9,99.6,1374.0,4849.0,6.0,
76907,3.8,76.5,99.6,1374.0,4849.0,6.0,
77007,2.9,38.3,97.7,1374.0,4849.0,6.0,
77107,246.0,131.5,66.4,1707.0,5970.0,7.0,
77207,284.7,179.2,66.4,1616.0,5102.0,6.0,
77307,227.8,205.8,66.4,1616.0,5102.0,6.0,
77407,143.0,224.2,66.4,1616.0,5102.0,6.0,
77507,126.1,234.7,95.7,1616.0,5102.0,6.0,
77607,165.9,244.9,95.7,1616.0,5102.0,6.0,
77807,3.6,248.5,66.4,1616.0,5102.0,6.0,
77907,2.9,248.5,66.4,1616.0,5102.0,6.0,
78007,2.8,248.5,68.4,1616.0,5102.0,6.0,
78107,2.6,210.9,70.3,1616.0,5102.0,6.0,
78207,2.5,172.2,99.6,1616.0,5102.0,6.0,
78307,2.6,139.3,89.8,1616.0,5102.0,6.0,
78407,2.7,107.4,68.4,1616.0,5102.0,6.0,
78507,2.9,81.8,68.4,1616.0,5102.0,6.0,
78607,3.9,42.4,78.1,1616.0,5102.0,6.0,
78807,219.4,186.2,64.5,1337.0,5149.0,6.0,
78907,226.3,213.6,66.4,1336.0,4943.0,6.0,
79007,199.3,229.6,66.4,1336.0,4943.0,6.0,
79107,159.7,242.1,95.7,1336.0,4943.0,6.0,
79207,125.8,254.6,95.7,1336.0,4943.0,6.0,
79307,21.3,258.4,95.7,1336.0,4943.0,6.0,
79407,3.5,258.4,95.7,1336.0,4943.0,6.0,
79507,2.9,258.4,95.7,1336.0,4943.0,6.0,
79607,2.9,258.4,95.7,1336.0,4943.0,6.0,
79807,3.0,179.2,85.9,1336.0,4943.0,6.0,
79907,2.8,145.4,84.0,1336.0,4943.0,6.0,
80007,2.5,118.5,91.8,1336.0,4943.0,6.0,
80107,3.4,90.4,68.4,1336.0,4943.0,6.0,
80207,3.4,44.3,66.4,1336.0,4943.0,6.0,
80307,329.2,101.9,68.4,1502.0,5595.0,7.0,
80407,282.3,169.8,66.4,1595.0,5487.0,6.0,
80507,188.7,216.2,66.4,1593.0,5193.0,6.0,
80607,149.2,234.6,68.4,1593.0,5193.0,6.0,
80807,169.4,258.2,95.7,1593.0,5193.0,6.0,
80907,27.3,264.2,95.7,1593.0,5193.0,6.0,
81007,4.2,264.2,95.7,1593.0,5193.0,6.0,
81107,3.0,264.2,93.8,1593.0,5193.0,6.0,
81207,2.3,264.2,89.8,1593.0,5193.0,6.0,
81307,2.4,243.8,84.0,1593.0,5193.0,6.0,
81407,2.8,202.5,105.5,1593.0,5193.0,6.0,
81507,2.4,151.9,66.4,1593.0,5193.0,6.0,
81607,2.6,121.6,66.4,1593.0,5193.0,6.0,
81807,2.4,56.2,66.4,1593.0,5193.0,6.0,
81907,205.2,100.0,66.4,1593.0,5193.0,6.0,
82007,282.1,161.6,66.4,1628.0,5245.0,6.0,
82107,223.9,190.2,66.4,1628.0,5245.0,6.0,
82207,154.5,209.0,66.4,1628.0,5245.0,6.0,
82307,106.3,219.7,66.4,1628.0,5245.0,6.0,
82407,152.6,228.5,95.7,1628.0,5245.0,6.0,
82507,32.6,234.2,66.4,1628.0,5245.0,6.0,
82607,4.5,234.2,68.4,1628.0,5245.0,6.0,
82807,2.6,234.2,89.8,1628.0,5245.0,6.0,
82907,2.5,211.8,80.1,1628.0,5245.0,6.0,
83007,2.6,169.5,72.3,1628.0,5245.0,6.0,
83107,2.9,136.6,68.4,1628.0,5245.0,6.0,
83207,2.2,105.6,84.0,1628.0,5245.0,6.0,
83307,2.0,81.1,85.9,1628.0,5245.0,6.0,
83407,2.6,51.1,74.2,1628.0,5245.0,6.0,
83507,230.8,76.3,70.3,1628.0,5245.0,6.0,
83607,214.5,162.5,66.4,1320.0,4984.0,6.0,
83807,195.2,212.6,66.4,1320.0,4984.0,6.0,
83907,154.9,224.5,95.7,1320.0,4984.0,6.0,
84007,125.0,236.9,95.7,1320.0,4984.0,6.0,
84107,48.6,244.7,95.7,1320.0,4984.0,6.0,
84207,5.0,244.7,95.7,1320.0,4984.0,6.0,
84307,2.7,244.7,95.7,1320.0,4984.0,6.0,
84407,2.6,244.7,93.8,1320.0,4984.0,6.0,
84507,2.4,232.6,89.8,1320.0,4984.0,6.0,
84607,2.5,183.1,103.5,1320.0,4984.0,6.0,
84807,2.1,121.4,82.0,1320.0,4984.0,6.0,
84907,3.4,97.6,84.0,1320.0,4984.0,6.0,
85007,3.2,61.6,84.0,1320.0,4984.0,6.0,
85107,289.3,69.8,68.4,1320.0,4984.0,6.0,
85207,288.6,152.9,66.4,1601.0,5227.0,6.0,
85307,199.4,202.3,66.4,1450.0,4657.0,6.0,
85407,149.8,223.3,66.4,1450.0,4657.0,6.0,
85507,175.8,235.3,95.7,1450.0,4657.0,6.0,
85607,165.5,245.6,95.7,1450.0,4657.0,6.0,
85807,6.1,255.0,95.7,1450.0,4657.0,6.0,
85907,3.3,255.0,93.8,1450.0,4657.0,6.0,
86007,2.4,255.0,80.1,1450.0,4657.0,6.0,
86107,2.6,245.3,74.2,1450.0,4657.0,6.0,
86207,2.3,204.1,99.6,1450.0,4657.0,6.0,
86307,2.3,155.4,87.9,1450.0,4657.0,6.0,
86407,3.0,123.3,84.0,1450.0,4657.0,6.0,
86507,3.6,98.4,99.6,1450.0,4657.0,6.0,
86607,3.1,68.8,97.7,1450.0,4657.0,6.0,
86807,303.1,148.8,66.4,1764.0,5541.0,6.0,
86907,273.2,192.8,66.4,1594.0,5233.0,5.0,
87007,189.6,218.0,66.4,1594.0,5233.0,5.0,
87107,130.9,233.9,66.4,1594.0,5233.0,5.0,
87207,153.7,243.7,66.4,1594.0,5233.0,5.0,
87307,78.7,252.6,66.4,1594.0,5233.0,5.0,
87407,8.3,252.6,66.4,1594.0,5233.0,5.0,
87507,4.1,252.6,66.4,1594.0,5233.0,5.0,
87607,4.1,252.6,68.4,1594.0,5233.0,5.0,
87807,2.4,204.2,93.8,1594.0,5233.0,5.0,
87907,3.0,163.2,105.5,1594.0,5233.0,5.0,
88007,2.9,127.7,101.6,1594.0,5233.0,5.0,
88107,4.0,95.5,99.6,1594.0,5233.0,5.0,
88207,10.4,66.4,103.5,1594.0,5233.0,5.0,
88307,162.4,14.2,78.1,1594.0,5233.0,5.0,
88407,228.0,141.0,64.5,1725.0,5761.0,6.0,
88507,249.7,192.3,66.4,1257.0,4664.0,6.0,
88607,235.1,215.9,66.4,1257.0,4664.0,6.0,
88807,147.3,247.8,95.7,1257.0,4664.0,6.0,
88907,114.7,260.4,95.7,1257.0,4664.0,6.0,
89007,9.8,260.4,95.7,1257.0,4664.0,6.0,
89107,7.2,260.4,95.7,1257.0,4664.0,6.0,
89207,3.9,260.4,95.7,1257.0,4664.0,6.0,
89307,4.9,260.1,93.8,1257.0,4664.0,6.0,
89407,8.9,219.0,68.4,1257.0,4664.0,6.0,
89507,7.4,175.7,66.4,1257.0,4664.0,6.0,
89607,7.4,145.7,64.5,1257.0,4664.0,6.0,
89807,6.8,80.5,72.3,1257.0,4664.0,6.0,
89907,150.2,9.5,82.0,1257.0,4664.0,6.0,
90007,312.4,132.6,68.4,1490.0,5796.0,7.0,
90107,233.6,194.7,66.4,1394.0,4890.0,6.0,
90207,187.3,223.5,66.4,1394.0,4890.0,6.0,
90307,182.2,238.9,95.7,1394.0,4890.0,6.0,
90407,172.8,250.0,95.7,1394.0,4890.0,6.0,
90507,153.3,260.7,95.7,1394.0,4890.0,6.0,
90607,12.9,263.8,95.7,1394.0,4890.0,6.0,
90807,3.4,263.7,95.7,1394.0,4890.0,6.0,
90907,3.4,263.7,93.8,1394.0,4890.0,6.0,
91007,2.8,228.1,89.8,1394.0,4890.0,6.0,
91107,2.3,178.1,99.6,1394.0,4890.0,6.0,
91207,3.1,140.2,95.7,1394.0,4890.0,6.0,
91307,3.3,111.9,74.2,1394.0,4890.0,6.0,
91407,2.4,84.2,74.2,1394.0,4890.0,6.0,
91507,4.2,40.1,84.0,1394.0,4890.0,6.0,
91607,306.5,131.0,66.4,1663.0,5775.0,7.0,
91807,208.5,219.2,66.4,1663.0,5775.0,7.0,
91907,150.6,240.1,66.4,1663.0,5775.0,7.0,
92007,168.0,253.9,93.8,1663.0,5775.0,7.0,
92107,185.2,264.7,93.8,1663.0,5775.0,7.0,
92207,16.0,268.1,66.4,1663.0,5775.0,7.0,
92307,3.0,268.1,66.4,1663.0,5775.0,7.0,
92407,3.9,268.1,68.4,1663.0,5775.0,7.0,
92507,3.9,268.1,68.4,1663.0,5775.0,7.0,
92607,4.3,234.0,72.3,1663.0,5775.0,7.0,
92807,4.2,154.5,87.9,1663.0,5775.0,7.0,
92907,3.4,119.5,84.0,1663.0,5775.0,7.0,
93007,3.6,86.2,82.0,1663.0,5775.0,7.0,
93107,3.8,43.0,80.1,1663.0,5775.0,7.0,
93207,238.5,122.0,64.5,1847.0,5929.0,6.0,
93307,233.3,182.1,64.5,1279.0,4992.0,7.0,
93407,250.6,210.2,66.4,1746.0,4768.0,5.0,
93507,188.0,227.7,66.4,1746.0,4768.0,5.0,
93607,144.7,243.8,95.7,1746.0,4768.0,5.0,
93807,19.2,257.8,95.7,1746.0,4768.0,5.0,
93907,3.9,257.8,95.7,1746.0,4768.0,5.0,
94007,2.5,257.8,95.7,1746.0,4768.0,5.0,
94107,2.5,257.8,93.8,1746.0,4768.0,5.0,
94207,2.5,227.1,85.9,1746.0,4768.0,5.0,
94307,2.5,182.5,72.3,1746.0,4768.0,5.0,
94407,2.5,149.3,68.4,1746.0,4768.0,5.0,
94507,2.4,120.9,68.4,1746.0,4768.0,5.0,
94607,2.7,83.9,68.4,1746.0,4768.0,5.0,
94807,290.8,97.4,70.3,1469.0,5276.0,7.0,
94907,216.1,162.8,68.4,1462.0,4696.0,6.0,
95007,175.3,194.2,66.4,1462.0,4696.0,6.0,
95107,179.6,209.2,68.4,1462.0,4696.0,6.0,
95207,182.8,222.0,95.7,1462.0,4696.0,6.0,
95307,150.0,233.9,95.7,1462.0,4696.0,6.0,
95407,25.5,240.6,66.4,1462.0,4696.0,6.0,
95507,4.8,240.6,66.4,1462.0,4696.0,6.0,
95607,3.2,240.6,66.4,1462.0,4696.0,6.0,
95807,3.6,220.0,68.4,1462.0,4696.0,6.0,
95907,3.7,177.2,99.6,1462.0,4696.0,6.0,
96007,3.7,142.1,99.6,1462.0,4696.0,6.0,
96107,3.4,118.8,99.6,1462.0,4696.0,6.0,
96207,3.4,92.8,85.9,1462.0,4696.0,6.0,
96307,3.5,56.5,95.7,1462.0,4696.0,6.0,
96407,278.3,100.0,64.5,1819.0,5842.0,6.0,
96507,322.4,165.8,64.5,1287.0,4993.0,7.0,
96607,229.5,203.3,66.4,1268.0,4543.0,6.0,
96807,155.1,241.0,93.8,1268.0,4543.0,6.0,
96907,183.6,252.8,95.7,1268.0,4543.0,6.0,
97007,34.2,260.1,95.7,1268.0,4543.0,6.0,
97107,5.0,260.1,95.7,1268.0,4543.0,6.0,
97207,4.5,260.1,95.7,1268.0,4543.0,6.0,
97307,4.0,260.1,93.8,1268.0,4543.0,6.0,
97407,3.9,240.2,89.8,1268.0,4543.0,6.0,
97507,3.2,200.5,68.4,1268.0,4543.0,6.0,
97607,3.7,162.3,68.4,1268.0,4543.0,6.0,
97807,4.1,98.0,99.6,1268.0,4543.0,6.0,
97907,3.6,61.6,97.7,1268.0,4543.0,6.0,
98007,219.1,95.8,68.4,1268.0,4543.0,6.0,
98107,221.3,168.6,66.4,1463.0,4995.0,6.0,
98207,255.6,202.7,66.4,1346.0,4443.0,6.0,
98307,189.4,222.8,66.4,1346.0,4443.0,6.0,
98407,131.2,236.2,95.7,1346.0,4443.0,6.0,
98507,117.4,246.1,95.7,1346.0,4443.0,6.0,
98607,39.9,251.9,95.7,1346.0,4443.0,6.0,
98807,4.1,251.9,93.8,1346.0,4443.0,6.0,
98907,3.5,251.9,82.0,1346.0,4443.0,6.0,
99007,4.1,233.0,80.1,1346.0,4443.0,6.0,
99107,4.2,187.2,84.0,1346.0,4443.0,6.0,
99207,8.1,149.7,89.8,1346.0,4443.0,6.0,
99307,4.1,117.6,80.1,1346.0,4443.0,6.0,
99407,2.4,87.8,66.4,1346.0,4443.0,6.0,
99507,2.7,53.9,66.4,1346.0,4443.0,6.0,
99607,290.7,69.5,64.5,1346.0,4443.0,6.0,
99807,181.5,203.8,66.4,1612.0,4650.0,5.0,
99907,198.9,222.9,66.4,1612.0,4650.0,5.0,
100007,172.7,234.4,66.4,1612.0,4650.0,5.0,
100107,147.6,244.0,66.4,1612.0,4650.0,5.0,
100207,55.8,252.8,66.4,1612.0,4650.0,5.0,
100307,6.1,252.8,66.4,1612.0,4650.0,5.0,
100407,2.8,252.8,89.8,1612.0,4650.0,5.0,
100507,3.2,252.8,87.9,1612.0,4650.0,5.0,
100607,2.9,243.1,82.0,1612.0,4650.0,5.0,
100807,3.3,149.7,99.6,1612.0,4650.0,5.0,
100907,2.6,119.4,74.2,1612.0,4650.0,5.0,
101007,3.1,94.8,68.4,1612.0,4650.0,5.0,
101107,3.1,66.3,93.8,1612.0,4650.0,5.0,
101207,235.9,71.9,68.4,1612.0,4650.0,5.0,
101307,331.0,154.2,66.4,1369.0,5039.0,6.0,
101407,230.8,193.1,66.4,1369.0,5039.0,6.0,
101507,162.1,218.8,66.4,1369.0,5039.0,6.0,
101607,132.1,232.3,95.7,1369.0,5039.0,6.0,
101807,68.5,250.9,95.7,1369.0,5039.0,6.0,
101907,6.6,250.9,95.7,1369.0,5039.0,6.0,
102007,3.0,250.9,95.7,1369.0,5039.0,6.0,
102107,3.0,250.9,95.7,1369.0,5039.0,6.0,
102207,2.4,240.4,91.8,1369.0,5039.0,6.0,
102307,4.7,198.0,78.1,1369.0,5039.0,6.0,
102407,3.1,160.3,66.4,1369.0,5039.0,6.0,
102507,3.2,122.9,60.5,1369.0,5039.0,6.0,
102607,4.0,94.9,60.5,1369.0,5039.0,6.0,
102807,159.3,55.3,82.0,1369.0,5039.0,6.0,
102907,224.5,154.9,66.4,1636.0,5799.0,7.0,
103007,264.4,198.8,66.4,1496.0,4904.0,6.0,
103107,229.4,222.4,66.4,1496.0,4904.0,6.0,
103207,155.9,238.4,66.4,1496.0,4904.0,6.0,
103307,115.4,250.8,95.7,1496.0,4904.0,6.0,
103407,97.9,261.0,95.7,1496.0,4904.0,6.0,
103507,9.3,261.0,85.9,1496.0,4904.0,6.0,
103607,3.1,261.0,66.4,1496.0,4904.0,6.0,
103807,3.3,255.2,68.4,1496.0,4904.0,6.0,
103907,3.1,210.1,66.4,1496.0,4904.0,6.0,
104007,3.2,169.3,68.4,1496.0,4904.0,6.0,
104107,3.4,136.8,66.4,1496.0,4904.0,6.0,
104207,3.0,106.4,78.1,1496.0,4904.0,6.0,
104307,3.2,72.6,85.9,1496.0,4904.0,6.0,
104407,189.3,5.3,97.7,1496.0,4904.0,6.0,
104507,275.1,137.1,64.5,1827.0,6311.0,7.0,
104607,185.4,188.8,64.5,1732.0,5446.0,6.0,
104807,162.4,221.5,66.4,1732.0,5446.0,6.0,
104907,148.3,231.1,66.4,1732.0,5446.0,6.0,
105007,118.8,242.1,95.7,1732.0,5446.0,6.0,
105107,10.6,242.7,95.7,1732.0,5446.0,6.0,
105207,3.9,242.7,95.7,1732.0,5446.0,6.0,
105307,4.4,242.7,93.8,1732.0,5446.0,6.0,
105407,3.8,242.7,89.8,1732.0,5446.0,6.0,
105507,2.5,200.3,85.9,1732.0,5446.0,6.0,
105607,4.0,152.6,101.6,1732.0,5446.0,6.0,
105807,3.4,99.4,80.1,1732.0,5446.0,6.0,
105907,3.5,74.4,99.6,1732.0,5446.0,6.0,
106007,83.2,17.7,99.6,1732.0,5446.0,6.0,
106107,347.4,133.0,66.4,1455.0,5806.0,7.0,
106207,254.7,182.0,66.4,1393.0,5025.0,6.0,
106307,186.3,214.7,66.4,1393.0,5025.0,6.0,
106407,135.7,230.8,66.4,1393.0,5025.0,6.0,
106507,166.6,242.8,95.7,1393.0,5025.0,6.0,
106607,161.4,252.7,95.7,1393.0,5025.0,6.0,
106807,3.6,255.8,95.7,1393.0,5025.0,6.0,
106907,3.3,255.8,95.7,1393.0,5025.0,6.0,
107007,2.8,255.8,91.8,1393.0,5025.0,6.0,
107107,2.9,218.6,85.9,1393.0,5025.0,6.0,
107207,2.6,179.9,117.2,1393.0,5025.0,6.0,
107307,2.7,139.2,121.1,1393.0,5025.0,6.0,
107407,2.8,110.4,115.2,1393.0,5025.0,6.0,
107507,3.3,80.7,101.6,1393.0,5025.0,6.0,
107607,2.8,40.3,95.7,1393.0,5025.0,6.0,
107807,264.5,179.6,66.4,1598.0,5093.0,6.0,
107907,228.0,206.3,66.4,1598.0,5093.0,6.0,
108007,160.8,222.5,66.4,1598.0,5093.0,6.0,
108107,117.6,236.0,66.4,1598.0,5093.0,6.0,
108207,147.8,245.2,66.4,1598.0,5093.0,6.0,
108307,15.5,248.0,66.4,1598.0,5093.0,6.0,
108407,3.8,248.0,66.4,1598.0,5093.0,6.0,
108507,2.7,248.0,66.4,1598.0,5093.0,6.0,
108607,3.3,248.0,66.4,1598.0,5093.0,6.0,
108807,3.8,171.0,84.0,1598.0,5093.0,6.0,
108907,3.3,137.7,74.2,1598.0,5093.0,6.0,
109007,4.5,109.7,74.2,1598.0,5093.0,6.0,
109107,2.7,76.4,84.0,1598.0,5093.0,6.0,
109207,3.6,37.5,91.8,1598.0,5093.0,6.0,
109307,268.2,102.8,64.5,1810.0,5880.0,7.0,
109407,209.4,174.5,64.5,1709.0,5149.0,6.0,
109507,220.4,204.1,66.4,1629.0,4663.0,5.0,
109607,192.9,220.4,66.4,1629.0,4663.0,5.0,
109807,140.0,247.9,95.7,1629.0,4663.0,5.0,
109907,23.0,252.7,95.7,1629.0,4663.0,5.0,
110007,3.2,252.7,95.7,1629.0,4663.0,5.0,
110107,3.1,252.7,95.7,1629.0,4663.0,5.0,
110207,3.7,252.7,93.8,1629.0,4663.0,5.0,
110307,3.0,230.9,87.9,1629.0,4663.0,5.0,
110407,3.1,182.9,97.7,1629.0,4663.0,5.0,
110507,3.7,149.1,97.7,1629.0,4663.0,5.0,
110607,2.5,123.8,99.6,1629.0,4663.0,5.0,
110807,4.1,49.3,107.4,1629.0,4663.0,5.0,
110907,337.5,109.2,66.4,1700.0,6052.0,7.0,
111007,286.8,174.6,66.4,1632.0,5288.0,6.0,
111107,198.0,213.7,66.4,1401.0,4705.0,6.0,
111207,139.3,230.8,66.4,1401.0,4705.0,6.0,
111307,167.9,241.5,95.7,1401.0,4705.0,6.0,
111407,165.9,250.9,95.7,1401.0,4705.0,6.0,
111507,26.7,257.0,95.7,1401.0,4705.0,6.0,
111607,4.2,257.0,66.4,1401.0,4705.0,6.0,
111807,3.9,257.0,66.4,1401.0,4705.0,6.0,
111907,3.8,232.7,68.4,1401.0,4705.0,6.0,
112007,3.2,188.7,70.3,1401.0,4705.0,6.0,
112107,3.6,142.9,76.2,1401.0,4705.0,6.0,
112207,3.6,113.2,84.0,1401.0,4705.0,6.0,
112307,3.9,88.2,70.3,1401.0,4705.0,6.0,
112407,3.2,55.9,78.1,1401.0,4705.0,6.0,
112507,202.0,101.3,66.4,1401.0,4705.0,6.0,
112607,268.2,166.7,64.5,1714.0,5147.0,6.0,
112807,162.1,214.7,64.5,1714.0,5147.0,6.0,
112907,130.1,230.9,66.4,1714.0,5147.0,6.0,
113007,152.4,241.5,66.4,1714.0,5147.0,6.0,
113107,37.0,248.2,95.7,1714.0,5147.0,6.0,
113207,5.4,248.2,95.7,1714.0,5147.0,6.0,
113307,2.9,248.2,95.7,1714.0,5147.0,6.0,
113407,3.2,248.2,93.8,1714.0,5147.0,6.0,
113507,3.4,226.6,89.8,1714.0,5147.0,6.0,
113607,4.6,183.9,109.4,1714.0,5147.0,6.0,
113807,4.2,124.6,87.9,1714.0,5147.0,6.0,
113907,3.1,91.2,93.8,1714.0,5147.0,6.0,
114007,3.7,57.4,99.6,1714.0,5147.0,6.0,
114107,249.4,70.3,68.4,1714.0,5147.0,6.0,
114207,224.6,161.7,66.4,1335.0,5102.0,6.0,
114307,212.7,203.0,66.4,1347.0,4647.0,6.0,
114407,205.6,222.6,66.4,1347.0,4647.0,6.0,
114507,173.8,235.9,95.7,1347.0,4647.0,6.0,
114607,132.2,249.6,95.7,1347.0,4647.0,6.0,
114807,5.5,256.7,95.7,1347.0,4647.0,6.0,
114907,3.4,256.7,95.7,1347.0,4647.0,6.0,
115007,3.4,256.7,91.8,1347.0,4647.0,6.0,
115107,3.8,246.9,84.0,1347.0,4647.0,6.0,
115207,3.2,199.4,70.3,1347.0,4647.0,6.0,
115307,3.7,157.1,66.4,1347.0,4647.0,6.0,
115407,2.7,127.9,80.1,1347.0,4647.0,6.0,
115507,3.7,101.4,93.8,1347.0,4647.0,6.0,
115607,4.1,60.0,93.8,1347.0,4647.0,6.0,
115807,277.6,142.9,66.4,1582.0,5670.0,7.0,
115907,210.4,187.5,66.4,1582.0,5670.0,7.0,
116007,150.1,209.3,66.4,1582.0,5670.0,7.0,
116107,166.4,221.7,66.4,1582.0,5670.0,7.0,
116207,157.2,231.8,66.4,1582.0,5670.0,7.0,
116307,58.4,240.1,64.5,1582.0,5670.0,7.0,
116407,6.1,240.2,64.5,1582.0,5670.0,7.0,
116507,2.8,240.2,66.4,1582.0,5670.0,7.0,
116607,3.3,240.2,66.4,1582.0,5670.0,7.0,
116807,3.5,193.1,93.8,1582.0,5670.0,7.0,
116907,3.1,150.1,99.6,1582.0,5670.0,7.0,
117007,3.9,117.8,97.7,1582.0,5670.0,7.0,
117107,4.3,92.5,85.9,1582.0,5670.0,7.0,
117207,4.2,62.9,99.6,1582.0,5670.0,7.0,
117307,130.0,58.6,82.0,1582.0,5670.0,7.0,
117407,271.5,141.8,66.4,1766.0,5687.0,6.0,
117507,243.8,177.1,66.4,1766.0,5687.0,6.0,
117607,172.1,197.3,66.4,1766.0,5687.0,6.0,
117807,126.5,222.5,95.7,1766.0,5687.0,6.0,
117907,71.3,230.9,95.7,1766.0,5687.0,6.0,
118007,7.2,230.9,95.7,1766.0,5687.0,6.0,
118107,3.8,230.9,95.7,1766.0,5687.0,6.0,
118207,3.6,230.9,95.7,1766.0,5687.0,6.0,
118307,3.5,223.4,93.8,1766.0,5687.0,6.0,
118407,3.6,182.3,72.3,1766.0,5687.0,6.0,
118507,3.9,148.2,105.5,1766.0,5687.0,6.0,
118607,3.8,120.0,111.3,1766.0,5687.0,6.0,
118807,3.5,62.1,111.3,1766.0,5687.0,6.0,
118907,166.4,14.9,148.4,1766.0,5687.0,6.0,
119007,217.5,133.6,66.4,1409.0,5190.0,7.0,
119107,180.9,171.7,66.4,1409.0,5190.0,7.0,
119207,190.2,191.4,66.4,1409.0,5190.0,7.0,
119307,155.6,203.1,66.4,1409.0,5190.0,7.0,
119407,129.7,215.8,95.7,1409.0,5190.0,7.0,
119507,98.8,225.6,95.7,1409.0,5190.0,7.0,
119607,8.6,225.7,66.4,1409.0,5190.0,7.0,
119807,8.0,225.7,66.4,1409.0,5190.0,7.0,
119907,3.8,225.3,66.4,1409.0,5190.0,7.0,
120007,3.5,181.9,72.3,1409.0,5190.0,7.0,
120107,3.2,146.5,60.5,1409.0,5190.0,7.0,
120207,2.7,119.7,64.5,1409.0,5190.0,7.0,
120307,4.7,98.6,99.6,1409.0,5190.0,7.0,
120407,4.6,66.2,87.9,1409.0,5190.0,7.0,
120507,113.5,9.4,80.1,1409.0,5190.0,7.0,
120607,266.9,113.8,64.5,1409.0,5190.0,7.0,
120807,134.5,182.6,64.5,1409.0,5190.0,7.0,
120907,182.3,198.0,66.4,1409.0,5190.0,7.0,
121007,173.2,211.2,66.4,1409.0,5190.0,7.0,
121107,144.8,223.0,95.7,1409.0,5190.0,7.0,
121207,13.0,226.2,95.7,1409.0,5190.0,7.0,
121307,3.8,226.2,95.7,1409.0,5190.0,7.0,
121407,4.1,226.1,93.8,1409.0,5190.0,7.0,
121507,3.8,226.1,91.8,1409.0,5190.0,7.0,
121607,3.3,195.5,85.9,1409.0,5190.0,7.0,
121807,3.5,133.6,68.4,1409.0,5190.0,7.0,
121907,3.6,109.3,68.4,1409.0,5190.0,7.0,
122007,3.0,81.0,68.4,1409.0,5190.0,7.0,
122107,18.7,38.1,85.9,1409.0,5190.0,7.0,
122207,274.4,120.8,68.4,1355.0,5201.0,7.0,
122307,259.6,164.5,66.4,1355.0,5201.0,7.0,
122407,191.6,191.1,66.4,1355.0,5201.0,7.0,
122507,133.0,210.0,66.4,1355.0,5201.0,7.0,
122607,134.6,222.2,95.7,1355.0,5201.0,7.0,
122807,16.3,236.6,95.7,1355.0,5201.0,7.0,
122907,3.7,236.6,91.8,1355.0,5201.0,7.0,
123007,3.5,236.6,70.3,1355.0,5201.0,7.0,
123107,3.1,236.6,70.3,1355.0,5201.0,7.0,
123207,2.7,203.5,76.2,1355.0,5201.0,7.0,
123307,5.4,170.2,113.3,1355.0,5201.0,7.0,
123407,3.2,139.6,99.6,1355.0,5201.0,7.0,
123507,3.1,109.2,72.3,1355.0,5201.0,7.0,
123607,2.9,81.4,87.9,1355.0,5201.0,7.0,
123807,238.7,117.9,64.5,1692.0,5629.0,7.0,
123907,185.3,171.0,64.5,1599.0,4965.0,6.0,
124007,223.2,197.6,64.5,1599.0,4965.0,6.0,
124107,189.0,213.6,64.5,1599.0,4965.0,6.0,
124207,139.0,227.9,66.4,1599.0,4965.0,6.0,
124307,109.3,239.4,95.7,1599.0,4965.0,6.0,
124407,20.6,243.0,95.7,1599.0,4965.0,6.0,
124507,6.0,243.0,95.7,1599.0,4965.0,6.0,
124607,4.1,243.0,93.8,1599.0,4965.0,6.0,
124807,3.7,212.5,87.9,1599.0,4965.0,6.0,
124907,3.2,172.7,66.4,1599.0,4965.0,6.0,
125007,2.9,141.5,80.1,1599.0,4965.0,6.0,
125107,3.0,116.1,123.0,1599.0,4965.0,6.0,
125207,3.5,84.4,121.1,1599.0,4965.0,6.0,
125307,3.5,41.8,97.7,1599.0,4965.0,6.0,
125407,304.9,101.1,68.4,1599.0,4965.0,6.0,
125507,215.2,161.1,66.4,1344.0,5028.0,7.0,
125607,155.9,192.9,66.4,1344.0,5028.0,7.0,
125807,168.7,222.9,95.7,1344.0,5028.0,7.0,
125907,147.3,233.3,95.7,1344.0,5028.0,7.0,
126007,25.4,239.6,95.7,1344.0,5028.0,7.0,
126107,5.1,239.6,95.7,1344.0,5028.0,7.0,
126207,4.6,239.6,87.9,1344.0,5028.0,7.0,
126307,6.0,239.6,76.2,1344.0,5028.0,7.0,
126407,4.9,217.3,74.2,1344.0,5028.0,7.0,
126507,3.0,177.5,89.8,1344.0,5028.0,7.0,
126607,2.9,142.3,101.6,1344.0,5028.0,7.0,
126807,2.7,88.2,68.4,1344.0,5028.0,7.0,
126907,3.3,54.9,91.8,1344.0,5028.0,7.0,
127007,274.4,101.7,64.5,1674.0,5986.0,7.0,
127107,313.2,163.2,64.5,1628.0,5334.0,6.0,
127207,227.3,197.6,64.5,1488.0,4736.0,5.0,
127307,148.7,219.8,64.5,1488.0,4736.0,5.0,
127407,133.7,233.0,66.4,1488.0,4736.0,5.0,
127507,182.6,245.2,66.4,1488.0,4736.0,5.0,
127607,35.0,252.6,66.4,1488.0,4736.0,5.0,
127807,2.8,252.6,93.8,1488.0,4736.0,5.0,
127907,3.0,252.6,89.8,1488.0,4736.0,5.0,
128007,3.1,231.2,84.0,1488.0,4736.0,5.0,
128107,3.9,192.8,127.0,1488.0,4736.0,5.0,
128207,3.5,157.4,115.2,1488.0,4736.0,5.0,
128307,3.0,124.4,66.4,1488.0,4736.0,5.0,
128407,4.6,97.5,66.4,1488.0,4736.0,5.0,
128507,3.5,60.8,93.8,1488.0,4736.0,5.0,
128607,210.8,89.7,68.4,1488.0,4736.0,5.0,
128807,254.6,203.1,66.4,1472.0,5001.0,6.0,
128907,211.8,223.5,66.4,1472.0,5001.0,6.0,
129007,161.9,240.6,66.4,1472.0,5001.0,6.0,
129107,127.0,255.1,95.7,1472.0,5001.0,6.0,
129207,43.1,262.7,95.7,1472.0,5001.0,6.0,
129307,4.7,262.7,95.7,1472.0,5001.0,6.0,
129407,3.5,262.7,70.3,1472.0,5001.0,6.0,
129507,2.3,262.7,70.3,1472.0,5001.0,6.0,
129607,2.2,246.9,72.3,1472.0,5001.0,6.0,
129807,3.5,166.7,74.2,1472.0,5001.0,6.0,
129907,3.8,138.1,74.2,1472.0,5001.0,6.0,
130007,3.4,105.4,66.4,1472.0,5001.0,6.0,
130107,4.6,62.9,70.3,1472.0,5001.0,6.0,
130207,291.9,72.6,68.4,1472.0,5001.0,6.0,
130307,235.3,149.5,66.4,1646.0,5982.0,7.0,
130407,182.9,188.9,66.4,1646.0,5982.0,7.0,
130507,185.0,207.7,66.4,1646.0,5982.0,7.0,
130607,190.3,220.4,66.4,1646.0,5982.0,7.0,
130807,60.4,244.2,64.5,1646.0,5982.0,7.0,
130907,11.7,244.3,66.4,1646.0,5982.0,7.0,
131007,4.6,244.3,66.4,1646.0,5982.0,7.0,
131107,3.7,244.3,68.4,1646.0,5982.0,7.0,
131207,3.3,233.3,70.3,1646.0,5982.0,7.0,
131307,3.0,193.2,68.4,1646.0,5982.0,7.0,
131407,3.7,154.9,97.7,1646.0,5982.0,7.0,
131507,3.4,128.7,91.8,1646.0,5982.0,7.0,
131607,3.2,105.3,76.2,1646.0,5982.0,7.0,
131807,204.1,73.0,62.5,1646.0,5982.0,7.0,
131907,315.0,151.9,64.5,1710.0,5165.0,6.0,
132007,246.2,191.4,64.5,1554.0,4645.0,5.0,
132107,172.4,220.6,66.4,1554.0,4645.0,5.0,
132207,144.7,236.6,66.4,1554.0,4645.0,5.0,
132307,189.9,250.6,95.7,1554.0,4645.0,5.0,
132407,84.9,263.7,95.7,1554.0,4645.0,5.0,
132507,8.5,263.7,95.7,1554.0,4645.0,5.0,
132607,5.0,263.7,95.7,1554.0,4645.0,5.0,
132807,2.8,253.5,89.8,1554.0,4645.0,5.0,
132907,3.0,215.7,89.8,1554.0,4645.0,5.0,
133007,2.5,181.5,87.9,1554.0,4645.0,5.0,
133107,2.1,144.7,97.7,1554.0,4645.0,5.0,
133207,2.7,116.5,87.9,1554.0,4645.0,5.0,
133307,2.7,82.2,85.9,1554.0,4645.0,5.0,
133407,170.2,55.5,99.6,1554.0,4645.0,5.0,
133507,229.7,155.3,66.4,1450.0,5389.0,7.0,
133607,239.7,192.7,66.4,1438.0,5154.0,6.0,
133807,147.8,229.5,68.4,1438.0,5154.0,6.0,
133907,111.6,241.7,95.7,1438.0,5154.0,6.0,
134007,91.0,251.5,95.7,1438.0,5154.0,6.0,
134107,10.0,251.5,95.7,1438.0,5154.0,6.0,
134207,4.7,251.6,95.7,1438.0,5154.0,6.0,
134307,3.3,251.6,93.8,1438.0,5154.0,6.0,
134407,2.6,245.4,87.9,1438.0,5154.0,6.0,
134507,4.5,198.0,99.6,1438.0,5154.0,6.0,
134607,3.0,161.7,89.8,1438.0,5154.0,6.0,
134807,3.3,103.2,70.3,1438.0,5154.0,6.0,
134907,2.8,69.9,80.1,1438.0,5154.0,6.0,
135007,187.1,5.7,82.0,1438.0,5154.0,6.0,
135107,265.8,128.4,66.4,1636.0,5846.0,7.0,
135207,190.3,178.2,66.4,1463.0,4984.0,6.0,
135307,184.7,201.6,66.4,1463.0,4984.0,6.0,
135407,171.6,214.8,66.4,1463.0,4984.0,6.0,
135507,151.4,225.2,66.4,1463.0,4984.0,6.0,
135607,131.0,238.0,64.5,1463.0,4984.0,6.0,
135807,4.3,238.9,66.4,1463.0,4984.0,6.0,
135907,4.2,238.9,68.4,1463.0,4984.0,6.0,
136007,3.3,238.9,68.4,1463.0,4984.0,6.0,
136107,2.8,201.4,76.2,1463.0,4984.0,6.0,
136207,2.8,159.1,84.0,1463.0,4984.0,6.0,
136307,2.9,128.1,91.8,1463.0,4984.0,6.0,
136407,3.3,104.5,101.6,1463.0,4984.0,6.0,
136507,3.4,79.9,123.0,1463.0,4984.0,6.0,
136607,54.7,20.9,119.1,1463.0,4984.0,6.0,
136807,252.9,180.2,66.4,1250.0,5010.0,7.0,
136907,177.5,211.7,66.4,1250.0,5010.0,7.0,
137007,135.9,227.2,66.4,1250.0,5010.0,7.0,
137107,165.1,238.9,95.7,1250.0,5010.0,7.0,
137207,173.2,250.0,95.7,1250.0,5010.0,7.0,
137307,14.5,253.6,95.7,1250.0,5010.0,7.0,
137407,5.1,253.6,95.7,1250.0,5010.0,7.0,
137507,3.7,253.6,95.7,1250.0,5010.0,7.0,
137607,3.3,253.6,91.8,1250.0,5010.0,7.0,
137807,2.5,178.4,68.4,1250.0,5010.0,7.0,
137907,3.3,139.7,66.4,1250.0,5010.0,7.0,
138007,3.3,112.7,66.4,1250.0,5010.0,7.0,
138107,9.3,85.3,72.3,1250.0,5010.0,7.0,
138207,4.7,42.9,68.4,1250.0,5010.0,7.0,
138307,204.0,128.0,68.4,1479.0,5501.0,7.0,
138407,239.4,169.9,66.4,1479.0,5501.0,7.0,
138507,233.3,198.0,66.4,1479.0,5501.0,7.0,
138607,164.5,214.8,66.4,1479.0,5501.0,7.0,
138807,160.2,242.4,95.7,1479.0,5501.0,7.0,
138907,20.2,246.7,66.4,1479.0,5501.0,7.0,
139007,3.9,246.7,66.4,1479.0,5501.0,7.0,
139107,2.8,246.7,66.4,1479.0,5501.0,7.0,
139207,3.0,246.6,68.4,1479.0,5501.0,7.0,
139307,2.5,210.9,72.3,1479.0,5501.0,7.0,
139407,2.5,178.8,99.6,1479.0,5501.0,7.0,
139507,3.1,147.2,87.9,1479.0,5501.0,7.0,
139607,2.5,121.4,85.9,1479.0,5501.0,7.0,
139807,3.7,45.6,72.3,1479.0,5501.0,7.0,
139907,301.5,108.5,62.5,1836.0,6140.0,7.0,
140007,220.7,183.8,64.5,1834.0,5567.0,6.0,
140107,182.0,216.3,64.5,1631.0,4590.0,5.0,
140207,194.5,232.5,64.5,1631.0,4590.0,5.0,
140307,182.6,244.9,66.4,1631.0,4590.0,5.0,
140407,148.4,260.0,66.4,1631.0,4590.0,5.0,
140507,23.7,264.8,95.7,1631.0,4590.0,5.0,
140607,4.1,264.8,95.7,1631.0,4590.0,5.0,
140807,3.2,264.8,93.8,1631.0,4590.0,5.0,
140907,2.8,241.6,89.8,1631.0,4590.0,5.0,
141007,3.0,190.6,97.7,1631.0,4590.0,5.0,
141107,3.9,152.9,99.6,1631.0,4590.0,5.0,
141207,4.3,126.8,68.4,1631.0,4590.0,5.0,
141307,4.1,100.7,68.4,1631.0,4590.0,5.0,
141407,4.2,50.3,82.0,1631.0,4590.0,5.0,
141507,302.8,109.9,66.4,1456.0,5530.0,7.0,
141607,275.1,169.8,66.4,1278.0,5107.0,7.0,
141807,138.4,227.1,66.4,1278.0,5107.0,7.0,
141907,188.1,241.9,95.7,1278.0,5107.0,7.0,
142007,192.8,255.1,95.7,1278.0,5107.0,7.0,
142107,34.1,263.5,95.7,1278.0,5107.0,7.0,
142207,6.3,263.5,95.7,1278.0,5107.0,7.0,
142307,3.5,263.5,93.8,1278.0,5107.0,7.0,
142407,3.1,263.5,89.8,1278.0,5107.0,7.0,
142507,2.6,239.5,84.0,1278.0,5107.0,7.0,
142607,3.1,201.6,101.6,1278.0,5107.0,7.0,
142807,3.4,133.8,68.4,1278.0,5107.0,7.0,
142907,5.8,104.7,66.4,1278.0,5107.0,7.0,
143007,6.6,66.3,91.8,1278.0,5107.0,7.0,
143107,206.5,106.4,68.4,1654.0,6419.0,8.0,
143207,317.0,179.5,64.5,1853.0,5602.0,6.0,
143307,299.3,222.2,66.4,1590.0,5034.0,5.0,
143407,192.5,243.2,66.4,1590.0,5034.0,5.0,
143507,139.0,259.5,66.4,1590.0,5034.0,5.0,
143607,137.5,271.1,66.4,1590.0,5034.0,5.0,
143807,6.3,277.9,66.4,1590.0,5034.0,5.0,
143907,3.5,277.9,66.4,1590.0,5034.0,5.0,
144007,4.1,277.9,68.4,1590.0,5034.0,5.0,
144107,4.3,256.8,70.3,1590.0,5034.0,5.0,
144207,3.1,212.2,99.6,1590.0,5034.0,5.0,
144307,3.4,166.9,95.7,1590.0,5034.0,5.0,
144407,3.3,134.5,93.8,1590.0,5034.0,5.0,
144507,3.9,99.5,87.9,1590.0,5034.0,5.0,
144607,3.8,61.2,72.3,1590.0,5034.0,5.0,
144807,231.8,161.0,66.4,1283.0,5108.0,7.0,
144907,204.7,204.9,66.4,1741.0,5162.0,5.0,
145007,220.2,227.6,66.4,1741.0,5162.0,5.0,
145107,191.9,242.3,66.4,1741.0,5162.0,5.0,
145207,155.1,258.3,95.7,1741.0,5162.0,5.0,
145307,56.5,268.1,95.7,1741.0,5162.0,5.0,
145407,5.3,268.1,95.7,1741.0,5162.0,5.0,
145507,3.1,268.1,95.7,1741.0,5162.0,5.0,
145607,2.4,268.1,93.8,1741.0,5162.0,5.0,
145807,2.1,214.4,91.8,1741.0,5162.0,5.0,
145907,2.3,172.9,85.9,1741.0,5162.0,5.0,
146007,2.1,141.7,68.4,1741.0,5162.0,5.0,
146107,2.8,114.8,68.4,1741.0,5162.0,5.0,
146207,8.0,72.2,68.4,1741.0,5162.0,5.0,
146307,249.4,76.8,66.4,1741.0,5162.0,5.0,
146407,304.1,159.5,66.4,1494.0,5036.0,6.0,
146507,222.8,201.4,66.4,1494.0,5036.0,6.0,
146607,150.1,226.6,66.4,1494.0,5036.0,6.0,
146807,193.3,252.5,95.7,1494.0,5036.0,6.0,
146907,74.4,264.1,95.7,1494.0,5036.0,6.0,
147007,8.0,264.1,95.7,1494.0,5036.0,6.0,
147107,3.4,264.1,68.4,1494.0,5036.0,6.0,
147207,2.3,264.1,68.4,1494.0,5036.0,6.0,
147307,3.0,252.7,68.4,1494.0,5036.0,6.0,
147407,3.0,210.6,68.4,1494.0,5036.0,6.0,
147507,2.8,170.9,66.4,1494.0,5036.0,6.0,
147607,2.4,135.7,68.4,1494.0,5036.0,6.0,
147807,3.0,77.5,76.2,1494.0,5036.0,6.0,
147907,154.5,63.6,84.0,1494.0,5036.0,6.0,
148007,298.1,157.0,64.5,1158.0,5885.0,8.0,
148107,285.8,199.3,64.5,1689.0,5095.0,6.0,
148207,199.9,223.4,64.5,1689.0,5095.0,6.0,
148307,143.7,241.0,64.5,1689.0,5095.0,6.0,
148407,137.0,254.4,64.5,1689.0,5095.0,6.0,
148507,95.2,265.8,66.4,1689.0,5095.0,6.0,
148607,9.2,265.9,76.2,1689.0,5095.0,6.0,
148807,3.4,265.9,85.9,1689.0,5095.0,6.0,
148907,2.7,258.2,76.2,1689.0,5095.0,6.0,
149007,2.3,214.6,82.0,1689.0,5095.0,6.0,
149107,3.0,176.0,84.0,1689.0,5095.0,6.0,
149207,2.4,144.2,89.8,1689.0,5095.0,6.0,
149307,2.3,112.2,99.6,1689.0,5095.0,6.0,
149407,3.5,77.5,99.6,1689.0,5095.0,6.0,
149507,199.7,4.9,91.8,1689.0,5095.0,6.0,
149607,248.7,149.2,66.4,1448.0,5698.0,7.0,
149807,236.9,224.5,66.4,1591.0,4742.0,5.0,
149907,200.8,240.8,66.4,1591.0,4742.0,5.0,
150007,160.3,256.6,95.7,1591.0,4742.0,5.0,
150107,129.1,271.4,95.7,1591.0,4742.0,5.0,
150207,10.6,271.7,95.7,1591.0,4742.0,5.0,
150307,3.3,271.7,95.7,1591.0,4742.0,5.0,
150407,3.4,271.7,93.8,1591.0,4742.0,5.0,
150507,2.3,271.7,89.8,1591.0,4742.0,5.0,
150607,2.1,227.1,85.9,1591.0,4742.0,5.0,
150807,1.8,153.0,84.0,1591.0,4742.0,5.0,
150907,2.4,125.8,99.6,1591.0,4742.0,5.0,
151007,2.2,89.3,113.3,1591.0,4742.0,5.0,
151107,130.1,13.0,121.1,1591.0,4742.0,5.0,
151207,342.6,138.4,66.4,1706.0,5956.0,7.0,
151307,252.8,194.7,66.4,1535.0,4659.0,6.0,
151407,186.1,231.1,66.4,1535.0,4659.0,6.0,
151507,193.3,247.3,66.4,1535.0,4659.0,6.0,
151607,199.0,260.5,66.4,1535.0,4659.0,6.0,
151807,15.8,275.4,66.4,1535.0,4659.0,6.0,
151907,3.8,275.4,66.4,1535.0,4659.0,6.0,
152007,2.9,275.4,66.4,1535.0,4659.0,6.0,
152107,2.9,275.4,68.4,1535.0,4659.0,6.0,
152207,2.3,238.1,76.2,1535.0,4659.0,6.0,
152307,2.5,194.8,97.7,1535.0,4659.0,6.0,
152407,2.6,149.8,121.1,1535.0,4659.0,6.0,
152507,2.6,121.2,107.4,1535.0,4659.0,6.0,
152607,2.3,89.5,85.9,1535.0,4659.0,6.0,
152807,279.3,131.7,64.5,1816.0,5767.0,7.0,
152907,304.4,182.1,64.5,1703.0,4667.0,5.0,
153007,222.6,211.2,64.5,1703.0,4667.0,5.0,
153107,161.0,234.8,66.4,1703.0,4667.0,5.0,
153207,141.7,249.0,93.8,1703.0,4667.0,5.0,
153307,185.9,261.7,95.7,1703.0,4667.0,5.0,
153407,17.4,265.9,95.7,1703.0,4667.0,5.0,
153507,5.4,265.9,95.7,1703.0,4667.0,5.0,
153607,4.2,265.9,95.7,1703.0,4667.0,5.0,
153807,2.6,231.0,87.9,1703.0,4667.0,5.0,
153907,3.4,193.7,101.6,1703.0,4667.0,5.0,
154007,3.6,161.6,76.2,1703.0,4667.0,5.0,
154107,2.5,124.7,87.9,1703.0,4667.0,5.0,
154207,2.9,93.2,68.4,1703.0,4667.0,5.0,
154307,3.2,46.8,68.4,1703.0,4667.0,5.0,
154407,259.4,124.6,68.4,1541.0,5737.0,7.0,
154507,209.9,186.8,66.4,1572.0,5293.0,6.0,
154607,227.8,213.9,66.4,1310.0,4437.0,6.0,
154807,155.5,245.2,95.7,1310.0,4437.0,6.0,
154907,125.1,259.3,95.7,1310.0,4437.0,6.0,
155007,19.5,263.3,95.7,1310.0,4437.0,6.0,
155107,4.1,263.3,95.7,1310.0,4437.0,6.0,
155207,2.9,263.3,74.2,1310.0,4437.0,6.0,
155307,3.2,263.3,72.3,1310.0,4437.0,6.0,
155407,2.4,232.0,74.2,1310.0,4437.0,6.0,
155507,2.3,185.6,76.2,1310.0,4437.0,6.0,
155607,2.5,153.6,76.2,1310.0,4437.0,6.0,
155807,2.8,95.9,68.4,1310.0,4437.0,6.0,
155907,2.8,46.1,66.4,1310.0,4437.0,6.0,
156007,346.6,107.1,64.5,1813.0,6083.0,7.0,
156107,252.1,172.7,64.5,1755.0,5319.0,6.0,
156207,179.7,211.8,64.5,1511.0,4692.0,5.0,
156307,186.8,231.2,64.5,1511.0,4692.0,5.0,
156407,196.9,244.1,66.4,1511.0,4692.0,5.0,
156507,180.4,256.7,95.7,1511.0,4692.0,5.0,
156607,30.4,265.1,95.7,1511.0,4692.0,5.0,
156807,3.3,265.1,93.8,1511.0,4692.0,5.0,
156907,2.7,265.1,91.8,1511.0,4692.0,5.0,
157007,2.9,242.5,85.9,1511.0,4692.0,5.0,
157107,1.9,201.2,99.6,1511.0,4692.0,5.0,
157207,2.8,159.6,99.6,1511.0,4692.0,5.0,
157307,2.6,129.9,95.7,1511.0,4692.0,5.0,
157407,3.0,103.5,89.8,1511.0,4692.0,5.0,
157507,2.6,66.2,91.8,1511.0,4692.0,5.0,
157607,244.8,107.3,68.4,1443.0,5621.0,8.0,
157807,249.9,209.7,66.4,1412.0,4764.0,6.0,
157907,186.1,237.6,66.4,1412.0,4764.0,6.0,
158007,139.7,252.5,95.7,1412.0,4764.0,6.0,
158107,189.9,265.5,95.7,1412.0,4764.0,6.0,
158207,37.3,273.8,95.7,1412.0,4764.0,6.0,
158307,7.0,273.8,95.7,1412.0,4764.0,6.0,
158407,3.8,273.8,87.9,1412.0,4764.0,6.0,
158507,2.8,273.8,70.3,1412.0,4764.0,6.0,
158607,3.0,252.0,70.3,1412.0,4764.0,6.0,
158807,2.8,176.0,68.4,1412.0,4764.0,6.0,
158907,2.7,136.1,68.4,1412.0,4764.0,6.0,
159007,2.6,106.0,85.9,1412.0,4764.0,6.0,
159107,2.9,67.2,101.6,1412.0,4764.0,6.0,
159207,232.7,91.4,66.4,1412.0,4764.0,6.0,
159307,224.3,170.9,64.5,1726.0,5772.0,6.0,
159407,260.1,210.2,64.5,1614.0,5187.0,6.0,
159507,248.3,233.3,66.4,1614.0,5187.0,6.0,
159607,171.9,249.9,66.4,1614.0,5187.0,6.0,
159807,49.7,273.8,64.5,1614.0,5187.0,6.0,
159907,6.8,273.8,66.4,1614.0,5187.0,6.0,
160007,3.8,273.8,66.4,1614.0,5187.0,6.0,
160107,3.4,273.8,66.4,1614.0,5187.0,6.0,
160207,3.9,258.1,68.4,1614.0,5187.0,6.0,
160307,3.1,213.9,72.3,1614.0,5187.0,6.0,
160407,3.2,175.4,72.3,1614.0,5187.0,6.0,
160507,3.2,143.3,85.9,1614.0,5187.0,6.0,
160607,2.7,111.8,80.1,1614.0,5187.0,6.0,
160807,288.6,74.5,64.5,1614.0,5187.0,6.0,
160907,277.1,154.7,64.5,1353.0,4985.0,7.0,
161007,203.0,206.0,66.4,1244.0,4539.0,6.0,
161107,194.4,231.0,66.4,1244.0,4539.0,6.0,
161207,208.0,247.4,66.4,1244.0,4539.0,6.0,
161307,189.2,260.8,95.7,1244.0,4539.0,6.0,
161407,68.9,273.5,95.7,1244.0,4539.0,6.0,
161507,9.4,273.5,95.7,1244.0,4539.0,6.0,
161607,3.3,273.5,95.7,1244.0,4539.0,6.0,
161807,2.8,263.2,89.8,1244.0,4539.0,6.0,
161907,3.0,225.7,82.0,1244.0,4539.0,6.0,
162007,2.8,180.0,68.4,1244.0,4539.0,6.0,
162107,2.9,146.5,68.4,1244.0,4539.0,6.0,
162207,2.8,116.7,68.4,1244.0,4539.0,6.0,
162307,4.1,82.7,76.2,1244.0,4539.0,6.0,
162407,169.9,75.3,70.3,1244.0,4539.0,6.0,
162507,316.8,153.0,66.4,1549.0,5321.0,7.0,
162607,281.9,197.0,66.4,1425.0,4613.0,6.0,
162807,163.8,253.3,66.4,1425.0,4613.0,6.0,
162907,210.2,269.0,95.7,1425.0,4613.0,6.0,
163007,99.4,283.4,95.7,1425.0,4613.0,6.0,
163107,9.5,283.4,66.4,1425.0,4613.0,6.0,
163207,4.2,283.4,66.4,1425.0,4613.0,6.0,
163307,3.9,283.4,66.4,1425.0,4613.0,6.0,
163407,3.8,273.2,66.4,1425.0,4613.0,6.0,
163507,3.5,238.6,85.9,1425.0,4613.0,6.0,
163607,2.6,203.8,78.1,1425.0,4613.0,6.0,
163807,4.4,127.2,97.7,1425.0,4613.0,6.0,
163907,4.9,89.3,99.6,1425.0,4613.0,6.0,
164007,178.5,42.9,140.6,1425.0,4613.0,6.0,
164107,230.7,155.9,64.5,1755.0,6247.0,7.0,
164207,284.7,204.0,64.5,1637.0,5121.0,6.0,
164307,258.4,231.9,64.5,1357.0,4578.0,6.0,
164407,184.0,249.8,66.4,1357.0,4578.0,6.0,
164507,132.6,264.9,64.5,1357.0,4578.0,6.0,
164607,115.4,277.0,64.5,1357.0,4578.0,6.0,
164807,5.6,277.1,66.4,1357.0,4578.0,6.0,
164907,4.0,277.1,66.4,1357.0,4578.0,6.0,
165007,3.7,273.8,68.4,1357.0,4578.0,6.0,
165107,3.1,229.1,78.1,1357.0,4578.0,6.0,
165207,2.5,187.5,87.9,1357.0,4578.0,6.0,
165307,3.0,151.8,99.6,1357.0,4578.0,6.0,
165407,6.1,119.9,97.7,1357.0,4578.0,6.0,
165507,6.2,81.5,101.6,1357.0,4578.0,6.0,
165607,177.9,7.5,101.6,1357.0,4578.0,6.0,
165807,239.2,201.3,64.5,1258.0,5030.0,6.0,
165907,193.8,235.8,66.4,1631.0,4901.0,5.0,
166007,239.6,256.1,66.4,1631.0,4901.0,5.0,
166107,225.4,273.3,68.4,1631.0,4901.0,5.0,
166207,178.4,290.7,95.7,1631.0,4901.0,5.0,
166307,17.8,292.7,95.7,1631.0,4901.0,5.0,
166407,3.6,292.7,93.8,1631.0,4901.0,5.0,
166507,4.3,292.7,78.1,1631.0,4901.0,5.0,
166607,3.8,292.7,72.3,1631.0,4901.0,5.0,
166807,2.8,212.6,97.7,1631.0,4901.0,5.0,
166907,3.3,173.6,109.4,1631.0,4901.0,5.0,
167007,2.9,141.8,87.9,1631.0,4901.0,5.0,
167107,3.8,105.1,74.2,1631.0,4901.0,5.0,
167207,23.8,34.7,85.9,1631.0,4901.0,5.0,
167307,304.1,133.6,68.4,1509.0,5923.0,8.0,
167407,307.7,184.7,66.4,1790.0,5260.0,5.0,
167507,221.5,224.0,66.4,1651.0,4737.0,5.0,
167607,159.2,248.9,66.4,1651.0,4737.0,5.0,
167807,215.0,281.1,95.7,1651.0,4737.0,5.0,
167907,15.9,285.2,93.8,1651.0,4737.0,5.0,
168007,4.5,285.2,66.4,1651.0,4737.0,5.0,
168107,3.6,285.2,66.4,1651.0,4737.0,5.0,
168207,3.6,285.2,68.4,1651.0,4737.0,5.0,
168307,2.9,252.1,74.2,1651.0,4737.0,5.0,
168407,2.7,217.4,109.4,1651.0,4737.0,5.0,
168507,3.5,176.6,84.0,1651.0,4737.0,5.0,
168607,3.6,139.4,80.1,1651.0,4737.0,5.0,
168807,3.8,48.4,78.1,1651.0,4737.0,5.0,
168907,231.8,128.1,66.4,1717.0,6116.0,7.0,
169007,280.6,188.5,66.4,1577.0,4903.0,6.0,
169107,286.3,221.7,66.4,1577.0,4903.0,6.0,
169207,224.3,245.1,66.4,1577.0,4903.0,6.0,
169307,166.9,265.6,64.5,1577.0,4903.0,6.0,
169407,144.8,281.3,64.5,1577.0,4903.0,6.0,
169507,21.8,285.6,64.5,1577.0,4903.0,6.0,
169607,4.6,285.6,64.5,1577.0,4903.0,6.0,
169807,3.1,285.6,66.4,1577.0,4903.0,6.0,
169907,3.0,255.3,68.4,1577.0,4903.0,6.0,
170007,2.4,214.6,93.8,1577.0,4903.0,6.0,
170107,2.7,180.1,101.6,1577.0,4903.0,6.0,
170207,3.2,146.7,105.5,1577.0,4903.0,6.0,
170307,3.8,105.0,101.6,1577.0,4903.0,6.0,
170407,4.0,49.8,97.7,1577.0,4903.0,6.0,
170507,295.6,104.7,64.5,1759.0,6058.0,7.0,
170607,228.5,175.4,64.5,1737.0,5295.0,6.0,
170807,226.1,230.5,64.5,1737.0,5295.0,6.0,
170907,225.1,248.3,66.4,1737.0,5295.0,6.0,
171007,184.3,266.1,95.7,1737.0,5295.0,6.0,
171107,30.6,274.5,95.7,1737.0,5295.0,6.0,
171207,4.9,274.5,95.7,1737.0,5295.0,6.0,
171307,5.2,274.5,91.8,1737.0,5295.0,6.0,
171407,3.8,274.5,78.1,1737.0,5295.0,6.0,
171507,2.5,253.8,72.3,1737.0,5295.0,6.0,
171607,2.9,211.2,89.8,1737.0,5295.0,6.0,
171807,2.5,149.1,97.7,1737.0,5295.0,6.0,
171907,3.5,117.2,74.2,1737.0,5295.0,6.0,
172007,3.9,67.5,70.3,1737.0,5295.0,6.0,
172107,282.8,104.1,66.4,1361.0,5642.0,8.0,
172207,313.8,168.8,66.4,1370.0,5355.0,7.0,
172307,233.8,207.6,66.4,1636.0,4735.0,5.0,
172407,169.7,237.8,66.4,1636.0,4735.0,5.0,
172507,207.9,257.7,66.4,1636.0,4735.0,5.0,
172607,232.8,274.2,95.7,1636.0,4735.0,5.0,
172807,6.5,283.7,91.8,1636.0,4735.0,5.0,
172907,4.0,283.8,68.4,1636.0,4735.0,5.0,
173007,4.4,283.8,68.4,1636.0,4735.0,5.0,
173107,4.1,264.0,70.3,1636.0,4735.0,5.0,
173207,4.5,228.1,84.0,1636.0,4735.0,5.0,
173307,3.9,193.5,78.1,1636.0,4735.0,5.0,
173407,3.7,154.8,74.2,1636.0,4735.0,5.0,
173507,3.1,118.8,82.0,1636.0,4735.0,5.0,
173607,3.4,73.0,97.7,1636.0,4735.0,5.0,
173807,259.1,172.6,66.4,1602.0,5357.0,6.0,
173907,273.2,209.7,66.4,1479.0,4799.0,6.0,
174007,218.9,232.9,66.4,1479.0,4799.0,6.0,
174107,162.0,253.5,66.4,1479.0,4799.0,6.0,
174207,142.5,267.6,95.7,1479.0,4799.0,6.0,
174307,48.8,276.7,93.8,1479.0,4799.0,6.0,
174407,9.3,276.7,66.4,1479.0,4799.0,6.0,
174507,4.5,276.7,66.4,1479.0,4799.0,6.0,
174607,3.7,276.7,68.4,1479.0,4799.0,6.0,
174807,2.7,216.3,89.8,1479.0,4799.0,6.0,
174907,2.6,180.5,95.7,1479.0,4799.0,6.0,
175007,2.5,149.4,93.8,1479.0,4799.0,6.0,
175107,3.1,111.0,97.7,1479.0,4799.0,6.0,
175207,4.3,70.6,101.6,1479.0,4799.0,6.0,
175307,287.4,74.8,62.5,1479.0,4799.0,6.0,
175407,255.7,164.9,64.5,1688.0,5863.0,6.0,
175507,177.0,206.9,64.5,1552.0,4886.0,6.0,
175607,211.9,227.8,64.5,1552.0,4886.0,6.0,
175807,170.2,257.7,64.5,1552.0,4886.0,6.0,
175907,57.6,269.1,64.5,1552.0,4886.0,6.0,
176007,6.9,269.1,66.4,1552.0,4886.0,6.0,
176107,4.3,269.1,66.4,1552.0,4886.0,6.0,
176207,2.9,269.1,70.3,1552.0,4886.0,6.0,
176307,2.6,258.5,72.3,1552.0,4886.0,6.0,
176407,3.0,212.6,78.1,1552.0,4886.0,6.0,
176507,2.4,172.0,91.8,1552.0,4886.0,6.0,
176607,2.5,143.3,68.4,1552.0,4886.0,6.0,
176807,3.5,77.6,68.4,1552.0,4886.0,6.0,
176907,244.6,74.7,68.4,1552.0,4886.0,6.0,
177007,314.2,151.1,66.4,1679.0,5352.0,6.0,
177107,223.9,189.1,66.4,1679.0,5352.0,6.0,
177207,169.8,217.1,66.4,1679.0,5352.0,6.0,
177307,167.7,235.4,66.4,1679.0,5352.0,6.0,
177407,195.4,248.9,95.7,1679.0,5352.0,6.0,
177507,76.9,261.5,95.7,1679.0,5352.0,6.0,
177607,7.8,261.5,95.7,1679.0,5352.0,6.0,
177807,3.2,261.5,89.8,1679.0,5352.0,6.0,
177907,3.9,250.7,78.1,1679.0,5352.0,6.0,
178007,2.9,213.5,93.8,1679.0,5352.0,6.0,
178107,3.1,180.7,93.8,1679.0,5352.0,6.0,
178207,3.3,145.9,103.5,1679.0,5352.0,6.0,
178307,3.3,113.9,99.6,1679.0,5352.0,6.0,
178407,3.2,80.2,85.9,1679.0,5352.0,6.0,
178507,159.3,59.4,80.1,1679.0,5352.0,6.0,
178607,240.1,156.1,66.4,1550.0,5675.0,7.0,
178807,244.8,223.7,66.4,1550.0,5675.0,7.0,
178907,183.0,247.6,66.4,1550.0,5675.0,7.0,
179007,147.8,264.1,93.8,1550.0,5675.0,7.0,
179107,113.5,277.2,66.4,1550.0,5675.0,7.0,
179207,10.1,277.3,66.4,1550.0,5675.0,7.0,
179307,3.5,277.3,66.4,1550.0,5675.0,7.0,
179407,2.4,277.3,66.4,1550.0,5675.0,7.0,
179507,2.8,270.9,66.4,1550.0,5675.0,7.0,
179607,2.7,229.2,58.6,1550.0,5675.0,7.0,
179807,2.9,163.8,84.0,1550.0,5675.0,7.0,
179907,3.8,124.8,82.0,1550.0,5675.0,7.0,
180007,3.9,84.4,72.3,1550.0,5675.0,7.0,
180107,201.3,5.5,72.3,1550.0,5675.0,7.0,
180207,258.6,138.4,64.5,1693.0,5785.0,7.0,
180307,192.5,190.2,64.5,1631.0,5185.0,6.0,
180407,230.5,217.2,64.5,1631.0,5185.0,6.0,
180507,244.0,236.7,64.5,1631.0,5185.0,6.0,
180607,196.1,254.8,64.5,1631.0,5185.0,6.0,
180807,12.9,275.1,66.4,1631.0,5185.0,6.0,
180907,3.9,275.1,66.4,1631.0,5185.0,6.0,
181007,2.9,275.1,68.4,1631.0,5185.0,6.0,
181107,2.4,275.1,68.4,1631.0,5185.0,6.0,
181207,2.8,237.8,76.2,1631.0,5185.0,6.0,
181307,2.6,198.8,78.1,1631.0,5185.0,6.0,
181407,2.5,168.9,99.6,1631.0,5185.0,6.0,
181507,2.9,140.2,99.6,1631.0,5185.0,6.0,
181607,3.2,103.9,89.8,1631.0,5185.0,6.0,
181807,339.9,134.1,66.4,1452.0,5462.0,8.0,
181907,265.4,186.1,66.4,1670.0,5203.0,5.0,
182007,204.7,222.7,66.4,1670.0,5203.0,5.0,
182107,168.7,245.0,66.4,1670.0,5203.0,5.0,
182207,211.1,262.0,95.7,1670.0,5203.0,5.0,
182307,202.3,275.3,95.7,1670.0,5203.0,5.0,
182407,15.1,279.5,66.4,1670.0,5203.0,5.0,
182507,3.9,279.5,66.4,1670.0,5203.0,5.0,
182607,3.6,279.5,66.4,1670.0,5203.0,5.0,
182807,4.1,245.3,74.2,1670.0,5203.0,5.0,
182907,2.3,208.6,74.2,1670.0,5203.0,5.0,
183007,3.4,169.0,70.3,1670.0,5203.0,5.0,
183107,4.7,134.7,68.4,1670.0,5203.0,5.0,
183207,4.6,97.7,68.4,1670.0,5203.0,5.0,
183307,4.9,48.6,76.2,1670.0,5203.0,5.0,
183407,229.4,130.8,66.4,1687.0,5924.0,7.0,
183507,276.0,179.9,64.5,1575.0,5324.0,6.0,
183607,246.0,208.6,64.5,1575.0,5324.0,6.0,
183807,144.3,250.2,64.5,1575.0,5324.0,6.0,
183907,199.1,264.6,64.5,1575.0,5324.0,6.0,
184007,20.7,268.9,66.4,1575.0,5324.0,6.0,
184107,4.5,268.9,66.4,1575.0,5324.0,6.0,
184207,3.4,268.9,66.4,1575.0,5324.0,6.0,
184307,5.2,268.9,68.4,1575.0,5324.0,6.0,
184407,4.3,234.9,68.4,1575.0,5324.0,6.0,
184507,3.4,199.9,66.4,1575.0,5324.0,6.0,
184607,2.7,169.7,50.8,1575.0,5324.0,6.0,
184807,4.0,98.6,68.4,1575.0,5324.0,6.0,
184907,3.5,48.2,93.8,1575.0,5324.0,6.0,
185007,270.8,115.1,66.4,1835.0,6105.0,7.0,
185107,197.8,179.3,66.4,1289.0,5041.0,7.0,
185207,223.2,206.4,66.4,1289.0,5041.0,7.0,
185307,204.6,223.5,66.4,1289.0,5041.0,7.0,
185407,165.3,237.8,95.7,1289.0,5041.0,7.0,
185507,133.2,252.3,95.7,1289.0,5041.0,7.0,
185607,23.3,256.8,95.7,1289.0,5041.0,7.0,
185807,3.3,256.8,93.8,1289.0,5041.0,7.0,
185907,3.1,256.8,85.9,1289.0,5041.0,7.0,
186007,3.9,229.6,78.1,1289.0,5041.0,7.0,
186107,3.0,183.9,76.2,1289.0,5041.0,7.0,
186207,2.9,152.9,99.6,1289.0,5041.0,7.0,
186307,2.6,126.6,99.6,1289.0,5041.0,7.0,
186407,3.0,97.1,97.7,1289.0,5041.0,7.0,
186507,2.8,48.0,80.1,1289.0,5041.0,7.0,
186607,334.9,106.7,66.4,1621.0,5829.0,7.0,
186807,181.9,205.9,66.4,1621.0,5829.0,7.0,
186907,154.5,224.4,66.4,1621.0,5829.0,7.0,
187007,173.1,236.0,66.4,1621.0,5829.0,7.0,
187107,166.6,245.8,66.4,1621.0,5829.0,7.0,
187207,27.5,252.4,66.4,1621.0,5829.0,7.0,
187307,5.1,252.4,66.4,1621.0,5829.0,7.0,
187407,3.9,252.4,66.4,1621.0,5829.0,7.0,
187507,3.3,252.4,66.4,1621.0,5829.0,7.0,
187607,3.0,228.8,68.4,1621.0,5829.0,7.0,
187807,3.9,146.1,66.4,1621.0,5829.0,7.0,
187907,3.6,115.5,66.4,1621.0,5829.0,7.0,
188007,3.4,89.6,66.4,1621.0,5829.0,7.0,
188107,3.1,57.3,85.9,1621.0,5829.0,7.0,
188207,186.0,103.6,66.4,1621.0,5829.0,7.0,
188307,276.9,168.4,64.5,1261.0,5029.0,7.0,
188407,243.5,201.1,64.5,1261.0,5029.0,7.0,
188507,191.4,224.7,66.4,1261.0,5029.0,7.0,
188607,134.0,242.0,66.4,1261.0,5029.0,7.0,
188807,41.1,264.4,95.7,1261.0,5029.0,7.0,
188907,5.8,264.4,95.7,1261.0,5029.0,7.0,
189007,5.5,264.4,93.8,1261.0,5029.0,7.0,
189107,4.2,264.4,91.8,1261.0,5029.0,7.0,
189207,3.6,243.3,85.9,1261.0,5029.0,7.0,
189307,4.0,203.9,99.6,1261.0,5029.0,7.0,
189407,3.7,171.8,93.8,1261.0,5029.0,7.0,
189507,3.5,139.5,82.0,1261.0,5029.0,7.0,
189607,4.5,106.6,85.9,1261.0,5029.0,7.0,
189807,245.0,80.0,70.3,1261.0,5029.0,7.0,
189907,219.7,167.7,66.4,1420.0,5203.0,7.0,
190007,223.0,201.5,66.4,1420.0,5203.0,7.0,
190107,211.5,222.2,66.4,1420.0,5203.0,7.0,
190207,171.2,235.6,66.4,1420.0,5203.0,7.0,
190307,134.5,250.1,95.7,1420.0,5203.0,7.0,
190407,48.0,257.9,95.7,1420.0,5203.0,7.0,
190507,7.1,257.9,66.4,1420.0,5203.0,7.0,
190607,4.2,257.9,66.4,1420.0,5203.0,7.0,
190807,4.1,245.2,66.4,1420.0,5203.0,7.0,
190907,3.3,196.0,82.0,1420.0,5203.0,7.0,
191007,3.3,161.0,84.0,1420.0,5203.0,7.0,
191107,3.8,130.9,93.8,1420.0,5203.0,7.0,
191207,3.3,105.0,82.0,1420.0,5203.0,7.0,
191307,3.4,63.2,66.4,1420.0,5203.0,7.0,
191407,271.2,74.1,60.5,1420.0,5203.0,7.0,
191507,296.6,151.9,64.5,1719.0,5763.0,6.0,
191607,198.0,197.7,64.5,1719.0,5763.0,6.0,
191807,189.2,237.9,64.5,1719.0,5763.0,6.0,
191907,193.0,251.2,64.5,1719.0,5763.0,6.0,
192007,69.0,262.8,66.4,1719.0,5763.0,6.0,
192107,10.8,262.8,66.4,1719.0,5763.0,6.0,
192207,5.9,262.8,68.4,1719.0,5763.0,6.0,
192307,5.4,262.8,76.2,1719.0,5763.0,6.0,
192407,4.3,252.2,76.2,1719.0,5763.0,6.0,
192507,4.0,214.5,95.7,1719.0,5763.0,6.0,
192607,3.3,173.3,84.0,1719.0,5763.0,6.0,
192807,2.3,111.7,68.4,1719.0,5763.0,6.0,
192907,2.9,77.5,68.4,1719.0,5763.0,6.0,
193007,156.5,71.0,80.1,1719.0,5763.0,6.0,
193107,296.7,157.2,66.4,1469.0,5291.0,7.0,
193207,262.5,196.8,66.4,1469.0,5291.0,7.0,
193307,191.0,221.4,66.4,1469.0,5291.0,7.0,
193407,130.6,239.1,66.4,1469.0,5291.0,7.0,
193507,167.7,251.0,95.7,1469.0,5291.0,7.0,
193607,83.4,261.4,95.7,1469.0,5291.0,7.0,
193807,4.7,261.4,74.2,1469.0,5291.0,7.0,
193907,4.3,261.4,68.4,1469.0,5291.0,7.0,
194007,2.8,251.7,68.4,1469.0,5291.0,7.0,
194107,3.0,208.9,89.8,1469.0,5291.0,7.0,
194207,2.6,172.2,93.8,1469.0,5291.0,7.0,
194307,2.6,139.1,84.0,1469.0,5291.0,7.0,
194407,3.0,105.7,99.6,1469.0,5291.0,7.0,
194507,3.0,73.3,99.6,1469.0,5291.0,7.0,
194607,177.1,17.1,214.8,1469.0,5291.0,7.0,
194807,228.7,191.3,64.5,1640.0,5577.0,6.0,
194907,234.6,213.2,64.5,1640.0,5577.0,6.0,
195007,171.6,228.5,64.5,1640.0,5577.0,6.0,
195107,138.1,243.0,64.5,1640.0,5577.0,6.0,
195207,111.0,254.5,64.5,1640.0,5577.0,6.0,
195307,10.4,254.6,66.4,1640.0,5577.0,6.0,
195407,3.4,254.6,66.4,1640.0,5577.0,6.0,
195507,4.7,254.6,68.4,1640.0,5577.0,6.0,
195607,4.2,254.1,70.3,1640.0,5577.0,6.0,
195807,3.1,168.1,78.1,1640.0,5577.0,6.0,
195907,2.5,139.2,72.3,1640.0,5577.0,6.0,
196007,3.1,112.5,78.1,1640.0,5577.0,6.0,
196107,3.2,76.0,89.8,1640.0,5577.0,6.0,
196207,149.7,8.0,99.6,1640.0,5577.0,6.0,
196307,293.0,129.7,68.4,1741.0,6080.0,7.0,
196407,209.5,183.5,66.4,1741.0,6080.0,7.0,
196507,178.5,209.5,66.4,1741.0,6080.0,7.0,
196607,187.9,226.6,66.4,1741.0,6080.0,7.0,
196807,167.0,253.4,95.7,1741.0,6080.0,7.0,
196907,14.7,256.6,95.7,1741.0,6080.0,7.0,
197007,3.5,256.6,91.8,1741.0,6080.0,7.0,
197107,3.6,256.6,68.4,1741.0,6080.0,7.0,
197207,3.0,256.6,68.4,1741.0,6080.0,7.0,
197307,2.6,221.4,76.2,1741.0,6080.0,7.0,
197407,4.0,179.4,72.3,1741.0,6080.0,7.0,
197507,2.7,148.1,70.3,1741.0,6080.0,7.0,
197607,2.4,120.3,84.0,1741.0,6080.0,7.0,
197807,11.6,40.4,84.0,1741.0,6080.0,7.0,
197907,292.4,128.8,64.5,1630.0,5667.0,7.0,
198007,283.8,178.3,64.5,1442.0,4913.0,6.0,
198107,202.5,205.8,64.5,1442.0,4913.0,6.0,
198207,135.3,226.5,64.5,1442.0,4913.0,6.0,
198307,168.4,239.2,64.5,1442.0,4913.0,6.0,
198407,186.8,250.8,64.5,1442.0,4913.0,6.0,
198507,14.3,254.6,66.4,1442.0,4913.0,6.0,
198607,4.6,254.6,68.4,1442.0,4913.0,6.0,
198807,2.6,254.6,80.1,1442.0,4913.0,6.0,
198907,2.9,219.6,80.1,1442.0,4913.0,6.0,
199007,2.8,181.8,68.4,1442.0,4913.0,6.0,
199107,3.1,149.9,66.4,1442.0,4913.0,6.0,
199207,4.4,116.3,76.2,1442.0,4913.0,6.0,
199307,3.2,87.2,78.1,1442.0,4913.0,6.0,
199407,2.9,44.0,66.4,1442.0,4913.0,6.0,
199507,229.7,123.7,68.4,1485.0,5457.0,8.0,
199607,224.2,179.5,66.4,1312.0,4913.0,7.0,
199807,181.2,225.6,66.4,1312.0,4913.0,7.0,
199907,136.0,241.0,95.7,1312.0,4913.0,7.0,
200007,136.1,252.5,95.7,1312.0,4913.0,7.0,
200107,20.4,256.1,95.7,1312.0,4913.0,7.0,
200207,5.9,256.1,95.7,1312.0,4913.0,7.0,
200307,4.8,256.1,68.4,1312.0,4913.0,7.0,
200407,3.5,256.1,68.4,1312.0,4913.0,7.0,
200507,4.3,224.3,68.4,1312.0,4913.0,7.0,
200607,3.6,182.7,68.4,1312.0,4913.0,7.0,
200807,2.9,121.2,74.2,1312.0,4913.0,7.0,
200907,2.9,86.7,99.6,1312.0,4913.0,7.0,
201007,2.8,42.8,128.9,1312.0,4913.0,7.0,
201107,315.2,103.0,64.5,1697.0,6041.0,7.0,
201207,231.8,172.0,64.5,1540.0,5289.0,6.0,
201307,157.2,201.5,64.5,1540.0,5289.0,6.0,
201407,188.0,219.2,64.5,1540.0,5289.0,6.0,
201507,186.7,231.3,64.5,1540.0,5289.0,6.0,
201607,157.9,243.3,64.5,1540.0,5289.0,6.0,
201807,6.5,250.5,66.4,1540.0,5289.0,6.0,
201907,4.0,250.5,66.4,1540.0,5289.0,6.0,
202007,2.5,250.5,68.4,1540.0,5289.0,6.0,
202107,2.1,228.4,72.3,1540.0,5289.0,6.0,
202207,2.7,182.2,87.9,1540.0,5289.0,6.0,
202307,2.8,148.8,78.1,1540.0,5289.0,6.0,
202407,3.0,121.4,68.4,1540.0,5289.0,6.0,
202507,3.6,96.3,76.2,1540.0,5289.0,6.0,
202607,3.4,59.7,78.1,1540.0,5289.0,6.0,
202807,286.4,153.8,66.4,1540.0,5289.0,6.0,
202907,209.1,184.9,66.4,1540.0,5289.0,6.0,
203007,153.7,210.3,66.4,1540.0,5289.0,6.0,
203107,157.4,226.0,66.4,1540.0,5289.0,6.0,
203207,183.9,239.0,95.7,1540.0,5289.0,6.0,
203307,33.6,246.9,95.7,1540.0,5289.0,6.0,
203407,5.9,247.0,95.7,1540.0,5289.0,6.0,
203507,4.3,247.0,95.7,1540.0,5289.0,6.0,
203607,3.1,247.0,91.8,1540.0,5289.0,6.0,
203807,3.3,193.3,66.4,1540.0,5289.0,6.0,
203907,3.5,163.8,66.4,1540.0,5289.0,6.0,
204007,3.7,129.6,70.3,1540.0,5289.0,6.0,
204107,3.9,99.5,80.1,1540.0,5289.0,6.0,
204207,3.1,62.2,74.2,1540.0,5289.0,6.0,
204307,193.5,84.3,70.3,1540.0,5289.0,6.0,
204407,209.6,155.0,66.4,1467.0,5233.0,7.0,
204507,228.3,183.9,66.4,1467.0,5233.0,7.0,
204607,183.3,203.6,66.4,1467.0,5233.0,7.0,
204807,120.4,232.1,95.7,1467.0,5233.0,7.0,
204907,40.9,239.0,95.7,1467.0,5233.0,7.0,
205007,7.7,239.0,66.4,1467.0,5233.0,7.0,
205107,6.2,239.0,66.4,1467.0,5233.0,7.0,
205207,5.0,239.0,66.4,1467.0,5233.0,7.0,
205307,4.4,223.7,68.4,1467.0,5233.0,7.0,
205407,2.8,182.0,80.1,1467.0,5233.0,7.0,
205507,3.3,152.8,78.1,1467.0,5233.0,7.0,
205607,4.9,125.3,72.3,1467.0,5233.0,7.0,
205807,4.4,57.4,72.3,1467.0,5233.0,7.0,
205907,262.5,68.7,62.5,1467.0,5233.0,7.0,
206007,220.8,146.6,64.5,1583.0,5044.0,6.0,
206107,158.3,181.5,64.5,1583.0,5044.0,6.0,
206207,196.6,200.5,64.5,1583.0,5044.0,6.0,
206307,159.1,212.1,64.5,1583.0,5044.0,6.0,
206407,134.6,222.9,95.7,1583.0,5044.0,6.0,
206507,48.2,231.4,95.7,1583.0,5044.0,6.0,
206607,5.7,231.4,97.7,1583.0,5044.0,6.0,
206807,3.8,231.4,95.7,1583.0,5044.0,6.0,
206907,2.6,221.1,95.7,1583.0,5044.0,6.0,
207007,3.3,179.2,68.4,1583.0,5044.0,6.0,
207107,3.4,143.7,68.4,1583.0,5044.0,6.0,
207207,3.2,115.7,78.1,1583.0,5044.0,6.0,
207307,3.6,92.7,87.9,1583.0,5044.0,6.0,
207407,3.3,62.5,85.9,1583.0,5044.0,6.0,
207507,228.7,69.9,68.4,1583.0,5044.0,6.0,
207607,293.8,145.9,68.4,1386.0,5231.0,7.0,
207807,148.7,206.6,66.4,1386.0,5231.0,7.0,
207907,136.0,221.1,95.7,1386.0,5231.0,7.0,
208007,165.2,231.2,95.7,1386.0,5231.0,7.0,
208107,67.4,240.9,95.7,1386.0,5231.0,7.0,
208207,9.1,240.9,95.7,1386.0,5231.0,7.0,
208307,4.3,240.9,95.7,1386.0,5231.0,7.0,
208407,4.4,240.9,89.8,1386.0,5231.0,7.0,
208507,4.5,230.6,78.1,1386.0,5231.0,7.0,
208607,3.8,191.8,70.3,1386.0,5231.0,7.0,
208807,3.3,124.0,76.2,1386.0,5231.0,7.0,
208907,3.5,95.8,72.3,1386.0,5231.0,7.0,
209007,3.6,68.0,68.4,1386.0,5231.0,7.0,
209107,140.6,53.3,80.1,1386.0,5231.0,7.0,
209207,191.6,138.1,66.4,1590.0,5651.0,7.0,
209307,214.3,166.8,66.4,1590.0,5651.0,7.0,
209407,173.5,185.5,64.5,1590.0,5651.0,7.0,
209507,126.5,199.7,64.5,1590.0,5651.0,7.0,
209607,101.1,210.5,66.4,1590.0,5651.0,7.0,
209807,7.7,220.9,95.7,1590.0,5651.0,7.0,
209907,3.1,220.9,95.7,1590.0,5651.0,7.0,
210007,3.2,220.9,95.7,1590.0,5651.0,7.0,
210107,2.9,214.5,95.7,1590.0,5651.0,7.0,
210207,2.4,172.5,72.3,1590.0,5651.0,7.0,
210307,2.9,144.9,84.0,1590.0,5651.0,7.0,
210407,3.1,120.0,68.4,1590.0,5651.0,7.0,
210507,2.8,94.6,78.1,1590.0,5651.0,7.0,
210607,3.2,67.1,97.7,1590.0,5651.0,7.0,
210807,240.4,129.7,68.4,1332.0,5116.0,7.0,
210907,176.5,173.4,66.4,1332.0,5116.0,7.0,
211007,199.5,195.8,66.4,1332.0,5116.0,7.0,
211107,173.6,209.5,68.4,1332.0,5116.0,7.0,
211207,149.8,221.8,95.7,1332.0,5116.0,7.0,
211307,123.6,234.0,95.7,1332.0,5116.0,7.0,
211407,12.1,234.6,95.7,1332.0,5116.0,7.0,
211507,4.6,234.6,95.7,1332.0,5116.0,7.0,
211607,3.2,234.6,91.8,1332.0,5116.0,7.0,
211807,2.9,195.5,85.9,1332.0,5116.0,7.0,
211907,3.3,158.0,97.7,1332.0,5116.0,7.0,
212007,2.4,129.3,93.8,1332.0,5116.0,7.0,
212107,2.6,105.5,99.6,1332.0,5116.0,7.0,
212207,2.3,76.5,101.6,1332.0,5116.0,7.0,
212307,91.7,17.0,99.6,1332.0,5116.0,7.0,
212407,312.8,123.0,66.4,1545.0,5411.0,6.0,
212507,218.0,164.2,66.4,1545.0,5411.0,6.0,
212607,148.8,190.3,64.5,1545.0,5411.0,6.0,
212807,155.4,213.5,64.5,1545.0,5411.0,6.0,
212907,156.7,223.4,95.7,1545.0,5411.0,6.0,
213007,12.4,226.8,95.7,1545.0,5411.0,6.0,
213107,5.5,226.8,95.7,1545.0,5411.0,6.0,
213207,3.5,226.8,93.8,1545.0,5411.0,6.0,
213307,3.2,226.8,91.8,1545.0,5411.0,6.0,
213407,3.3,190.6,82.0,1545.0,5411.0,6.0,
213507,2.9,156.5,56.6,1545.0,5411.0,6.0,
213607,4.0,123.4,68.4,1545.0,5411.0,6.0,
213807,3.9,76.7,91.8,1545.0,5411.0,6.0,
213907,6.6,39.5,78.1,1545.0,5411.0,6.0,
214007,197.3,122.6,70.3,1260.0,5143.0,7.0,
214107,227.8,159.2,68.4,1260.0,5143.0,7.0,
214207,193.7,183.7,68.4,1260.0,5143.0,7.0,
214307,138.3,201.0,93.8,1260.0,5143.0,7.0,
214407,102.7,212.8,95.7,1260.0,5143.0,7.0,
214507,158.5,222.9,95.7,1260.0,5143.0,7.0,
214607,16.6,226.1,97.7,1260.0,5143.0,7.0,
214807,3.1,226.1,95.7,1260.0,5143.0,7.0,
214907,3.5,226.0,93.8,1260.0,5143.0,7.0,
215007,2.9,190.0,84.0,1260.0,5143.0,7.0,
215107,3.1,160.6,68.4,1260.0,5143.0,7.0,
215207,3.0,131.7,66.4,1260.0,5143.0,7.0,
215307,2.2,103.4,66.4,1260.0,5143.0,7.0,
215407,3.0,76.4,74.2,1260.0,5143.0,7.0,
215507,5.0,37.8,70.3,1260.0,5143.0,7.0,
215607,231.8,100.1,66.4,1260.0,5143.0,7.0,
215807,179.3,168.6,66.4,1260.0,5143.0,7.0,
215907,156.4,180.9,66.4,1260.0,5143.0,7.0,
216007,133.5,191.7,66.4,1260.0,5143.0,7.0,
216107,109.7,204.4,95.7,1260.0,5143.0,7.0,
216207,18.2,208.3,95.7,1260.0,5143.0,7.0,
216307,5.3,208.3,95.7,1260.0,5143.0,7.0,
216407,4.0,208.3,95.7,1260.0,5143.0,7.0,
216507,3.4,208.3,95.7,1260.0,5143.0,7.0,
216607,3.0,182.7,93.8,1260.0,5143.0,7.0,
216807,3.1,122.4,101.6,1260.0,5143.0,7.0,
216907,3.5,103.3,105.5,1260.0,5143.0,7.0,
217007,3.3,81.6,70.3,1260.0,5143.0,7.0,
217107,5.5,40.5,66.4,1260.0,5143.0,7.0,
217207,295.6,102.2,70.3,1257.0,5026.0,7.0,
217307,218.6,150.0,68.4,1257.0,5026.0,7.0,
217407,159.0,182.9,68.4,1257.0,5026.0,7.0,
217507,136.6,201.5,70.3,1257.0,5026.0,7.0,
217607,165.2,214.0,95.7,1257.0,5026.0,7.0,
217807,28.5,233.8,97.7,1257.0,5026.0,7.0,
217907,4.9,233.8,95.7,1257.0,5026.0,7.0,
218007,3.5,233.8,95.7,1257.0,5026.0,7.0,
218107,4.2,233.8,93.8,1257.0,5026.0,7.0,
218207,3.1,210.3,87.9,1257.0,5026.0,7.0,
218307,3.3,179.4,87.9,1257.0,5026.0,7.0,
218407,4.1,145.6,87.9,1257.0,5026.0,7.0,
218507,5.6,118.7,76.2,1257.0,5026.0,7.0,
218607,3.6,94.2,66.4,1257.0,5026.0,7.0,
218807,203.7,104.8,68.4,1257.0,5026.0,7.0,
218907,253.9,161.8,66.4,1459.0,4744.0,6.0,
219007,223.8,189.5,66.4,1459.0,4744.0,6.0,
219107,155.0,208.2,66.4,1459.0,4744.0,6.0,
219207,103.5,219.2,66.4,1459.0,4744.0,6.0,
219307,138.0,227.0,95.7,1459.0,4744.0,6.0,
219407,34.0,232.3,95.7,1459.0,4744.0,6.0,
219507,6.5,232.3,95.7,1459.0,4744.0,6.0,
219607,4.0,232.3,93.8,1459.0,4744.0,6.0,
219807,3.0,207.4,82.0,1459.0,4744.0,6.0,
219907,3.5,166.8,85.9,1459.0,4744.0,6.0,
220007,3.1,134.5,107.4,1459.0,4744.0,6.0,
220107,3.3,103.3,105.5,1459.0,4744.0,6.0,
220207,3.2,77.3,99.6,1459.0,4744.0,6.0,
220307,2.4,49.6,80.1,1459.0,4744.0,6.0,
220407,243.8,74.8,70.3,1459.0,4744.0,6.0,
220507,198.1,160.3,66.4,1602.0,5078.0,6.0,
220607,211.0,191.7,66.4,1602.0,5078.0,6.0,
220807,145.4,222.6,95.7,1602.0,5078.0,6.0,
220907,110.3,235.4,95.7,1602.0,5078.0,6.0,
221007,42.7,242.1,97.7,1602.0,5078.0,6.0,
221107,5.2,242.1,97.7,1602.0,5078.0,6.0,
221207,3.4,242.1,97.7,1602.0,5078.0,6.0,
221307,3.1,242.1,95.7,1602.0,5078.0,6.0,
221407,2.9,230.3,95.7,1602.0,5078.0,6.0,
221507,2.8,181.5,95.7,1602.0,5078.0,6.0,
221607,2.4,147.9,99.6,1602.0,5078.0,6.0,
221807,2.5,95.3,101.6,1602.0,5078.0,6.0,
221907,2.5,56.8,99.6,1602.0,5078.0,6.0,
222007,270.9,68.1,66.4,1602.0,5078.0,6.0,
222107,248.8,143.9,66.4,1619.0,5533.0,7.0,
222207,180.1,181.9,66.4,1619.0,5533.0,7.0,
222307,137.1,200.5,66.4,1619.0,5533.0,7.0,
222407,140.9,209.4,66.4,1619.0,5533.0,7.0,
222507,141.1,217.8,95.7,1619.0,5533.0,7.0,
222607,60.0,226.2,95.7,1619.0,5533.0,7.0,
222807,6.3,226.2,95.7,1619.0,5533.0,7.0,
222907,4.5,226.2,93.8,1619.0,5533.0,7.0,
223007,3.8,215.8,84.0,1619.0,5533.0,7.0,
223107,2.6,174.6,78.1,1619.0,5533.0,7.0,
223207,7.3,134.6,85.9,1619.0,5533.0,7.0,
223307,3.9,105.0,60.5,1619.0,5533.0,7.0,
223407,5.2,85.7,52.7,1619.0,5533.0,7.0,
223507,3.3,61.5,52.7,1619.0,5533.0,7.0,
223607,133.2,63.2,78.1,1619.0,5533.0,7.0,
223807,239.1,175.0,66.4,1619.0,5533.0,7.0,
223907,179.0,198.9,66.4,1619.0,5533.0,7.0,
224007,113.4,215.4,95.7,1619.0,5533.0,7.0,
224107,143.3,226.1,95.7,1619.0,5533.0,7.0,
224207,74.3,235.8,97.7,1619.0,5533.0,7.0,
224307,9.9,235.9,97.7,1619.0,5533.0,7.0,
224407,4.6,235.9,97.7,1619.0,5533.0,7.0,
224507,4.1,235.9,97.7,1619.0,5533.0,7.0,
224607,4.3,227.4,95.7,1619.0,5533.0,7.0,
224807,4.1,158.2,78.1,1619.0,5533.0,7.0,
224907,2.9,126.9,68.4,1619.0,5533.0,7.0,
225007,3.7,96.3,76.2,1619.0,5533.0,7.0,
225107,4.2,67.5,91.8,1619.0,5533.0,7.0,
225207,168.9,19.4,152.3,1619.0,5533.0,7.0,
225307,207.4,140.7,68.4,1562.0,5398.0,7.0,
225407,210.9,179.3,66.4,1431.0,4583.0,6.0,
225507,209.5,199.2,66.4,1431.0,4583.0,6.0,
225607,145.7,211.7,68.4,1431.0,4583.0,6.0,
225807,90.7,231.4,95.7,1431.0,4583.0,6.0,
225907,9.3,231.5,95.7,1431.0,4583.0,6.0,
226007,7.0,231.5,82.0,1431.0,4583.0,6.0,
226107,5.7,231.5,80.1,1431.0,4583.0,6.0,
226207,3.3,230.8,78.1,1431.0,4583.0,6.0,
226307,3.4,183.9,76.2,1431.0,4583.0,6.0,
226407,2.5,146.5,82.0,1431.0,4583.0,6.0,
226507,3.0,118.0,85.9,1431.0,4583.0,6.0,
226607,3.2,93.7,84.0,1431.0,4583.0,6.0,
226807,129.0,7.6,78.1,1431.0,4583.0,6.0,
226907,258.1,118.5,66.4,1643.0,4952.0,6.0,
227007,177.7,161.6,66.4,1643.0,4952.0,6.0,
227107,141.9,182.3,66.4,1643.0,4952.0,6.0,
227207,153.8,194.7,66.4,1643.0,4952.0,6.0,
227307,157.8,205.5,95.7,1643.0,4952.0,6.0,
227407,129.6,217.2,95.7,1643.0,4952.0,6.0,
227507,15.7,219.7,97.7,1643.0,4952.0,6.0,
227607,4.0,219.7,97.7,1643.0,4952.0,6.0,
227807,2.7,219.7,95.7,1643.0,4952.0,6.0,
227907,3.8,185.1,95.7,1643.0,4952.0,6.0,
228007,3.5,148.9,84.0,1643.0,4952.0,6.0,
228107,2.6,122.7,68.4,1643.0,4952.0,6.0,
228207,3.5,101.9,66.4,1643.0,4952.0,6.0,
228307,5.2,77.9,68.4,1643.0,4952.0,6.0,
228407,5.2,33.4,70.3,1643.0,4952.0,6.0,
228507,272.3,128.1,68.4,1368.0,5067.0,7.0,
228607,245.0,167.0,68.4,1368.0,5067.0,7.0,
228807,122.3,211.0,93.8,1368.0,5067.0,7.0,
228907,130.3,221.8,95.7,1368.0,5067.0,7.0,
229007,163.2,231.6,97.7,1368.0,5067.0,7.0,
229107,14.3,234.8,97.7,1368.0,5067.0,7.0,
229207,3.5,234.8,97.7,1368.0,5067.0,7.0,
229307,3.9,234.8,95.7,1368.0,5067.0,7.0,
229407,2.8,234.8,95.7,1368.0,5067.0,7.0,
229507,3.3,196.9,89.8,1368.0,5067.0,7.0,
229607,3.7,165.2,93.8,1368.0,5067.0,7.0,
229807,2.9,103.2,99.6,1368.0,5067.0,7.0,
229907,3.5,77.1,99.6,1368.0,5067.0,7.0,
230007,5.9,39.4,99.6,1368.0,5067.0,7.0,
230107,203.9,113.3,68.4,1368.0,5067.0,7.0,
230207,178.6,153.7,66.4,1368.0,5067.0,7.0,
230307,194.3,175.2,66.4,1368.0,5067.0,7.0,
230407,142.0,188.6,66.4,1368.0,5067.0,7.0,
230507,117.3,200.9,66.4,1368.0,5067.0,7.0,
230607,109.4,211.7,95.7,1368.0,5067.0,7.0,
230807,5.2,216.1,95.7,1368.0,5067.0,7.0,
230907,3.9,216.1,95.7,1368.0,5067.0,7.0,
231007,4.1,216.0,91.8,1368.0,5067.0,7.0,
231107,3.7,184.0,82.0,1368.0,5067.0,7.0,
231207,2.6,151.9,60.5,1368.0,5067.0,7.0,
231307,3.1,126.5,68.4,1368.0,5067.0,7.0,
231407,3.3,105.6,68.4,1368.0,5067.0,7.0,
231507,3.5,79.6,66.4,1368.0,5067.0,7.0,
231607,4.1,43.4,66.4,1368.0,5067.0,7.0,
231807,219.8,169.6,66.4,1262.0,4572.0,6.0,
231907,154.4,200.8,66.4,1262.0,4572.0,6.0,
232007,188.9,217.9,68.4,1262.0,4572.0,6.0,
232107,158.8,230.4,95.7,1262.0,4572.0,6.0,
232207,128.9,240.8,97.7,1262.0,4572.0,6.0,
232307,22.7,246.1,97.7,1262.0,4572.0,6.0,
232407,3.7,246.1,97.7,1262.0,4572.0,6.0,
232507,4.6,246.1,97.7,1262.0,4572.0,6.0,
232607,2.8,246.1,97.7,1262.0,4572.0,6.0,
232807,3.8,178.4,66.4,1262.0,4572.0,6.0,
232907,2.6,142.3,66.4,1262.0,4572.0,6.0,
233007,2.3,114.4,66.4,1262.0,4572.0,6.0,
233107,2.6,86.5,66.4,1262.0,4572.0,6.0,
233207,3.2,51.1,66.4,1262.0,4572.0,6.0,
233307,265.8,103.7,70.3,1494.0,5258.0,7.0,
233407,245.0,151.0,68.4,1494.0,5258.0,7.0,
233507,175.8,178.7,68.4,1494.0,5258.0,7.0,
233607,126.0,197.1,70.3,1494.0,5258.0,7.0,
233807,163.3,218.3,97.7,1494.0,5258.0,7.0,
233907,30.3,224.9,97.7,1494.0,5258.0,7.0,
234007,4.5,224.9,95.7,1494.0,5258.0,7.0,
234107,3.2,224.9,95.7,1494.0,5258.0,7.0,
234207,2.7,224.9,93.8,1494.0,5258.0,7.0,
234307,3.1,199.6,87.9,1494.0,5258.0,7.0,
234407,2.3,166.7,76.2,1494.0,5258.0,7.0,
234507,1.8,136.6,68.4,1494.0,5258.0,7.0,
234607,3.6,108.3,68.4,1494.0,5258.0,7.0,
234807,2.5,54.2,66.4,1494.0,5258.0,7.0,
234907,206.5,93.1,64.5,1494.0,5258.0,7.0,
235007,183.5,156.5,66.4,1721.0,5629.0,7.0,
235107,208.3,182.6,66.4,1721.0,5629.0,7.0,
235207,175.9,198.4,66.4,1721.0,5629.0,7.0,
235307,123.9,211.3,66.4,1721.0,5629.0,7.0,
235407,100.2,221.5,95.7,1721.0,5629.0,7.0,
235507,39.1,227.8,95.7,1721.0,5629.0,7.0,
235607,6.4,227.8,97.7,1721.0,5629.0,7.0,
235807,3.7,227.8,97.7,1721.0,5629.0,7.0,
235907,2.4,208.0,95.7,1721.0,5629.0,7.0,
236007,2.4,165.7,72.3,1721.0,5629.0,7.0,
236107,2.5,136.4,78.1,1721.0,5629.0,7.0,
236207,3.1,112.0,76.2,1721.0,5629.0,7.0,
236307,2.4,85.3,74.2,1721.0,5629.0,7.0,
236407,3.2,53.4,99.6,1721.0,5629.0,7.0,
236507,275.8,68.4,72.3,1721.0,5629.0,7.0,
236607,221.0,149.9,68.4,1413.0,5339.0,7.0,
236807,184.5,206.6,70.3,1413.0,5339.0,7.0,
236907,150.1,217.8,95.7,1413.0,5339.0,7.0,
237007,129.8,227.9,95.7,1413.0,5339.0,7.0,
237107,50.6,236.7,97.7,1413.0,5339.0,7.0,
237207,6.1,236.7,97.7,1413.0,5339.0,7.0,
237307,3.7,236.7,97.7,1413.0,5339.0,7.0,
237407,3.9,236.7,95.7,1413.0,5339.0,7.0,
237507,3.4,226.7,93.8,1413.0,5339.0,7.0,
237607,3.1,183.2,66.4,1413.0,5339.0,7.0,
237807,3.5,115.7,66.4,1413.0,5339.0,7.0,
237907,3.4,92.7,80.1,1413.0,5339.0,7.0,
238007,3.6,64.0,99.6,1413.0,5339.0,7.0,
238107,218.5,68.6,68.4,1413.0,5339.0,7.0,
238207,290.3,143.2,66.4,1656.0,5651.0,7.0,
238307,206.2,176.1,66.4,1656.0,5651.0,7.0,
238407,150.0,200.0,66.4,1656.0,5651.0,7.0,
238507,113.3,212.1,66.4,1656.0,5651.0,7.0,
238607,151.4,221.3,95.7,1656.0,5651.0,7.0,
238807,7.5,231.1,95.7,1656.0,5651.0,7.0,
238907,3.3,231.1,91.8,1656.0,5651.0,7.0,
239007,2.9,231.1,85.9,1656.0,5651.0,7.0,
239107,3.0,220.8,82.0,1656.0,5651.0,7.0,
239207,2.4,181.4,87.9,1656.0,5651.0,7.0,
239307,2.7,149.7,89.8,1656.0,5651.0,7.0,
239407,2.5,115.9,95.7,1656.0,5651.0,7.0,
239507,3.0,91.9,87.9,1656.0,5651.0,7.0,
239607,5.2,66.7,68.4,1656.0,5651.0,7.0,
239807,207.3,145.6,66.4,1261.0,5299.0,8.0,
239907,230.3,180.3,66.4,1609.0,4936.0,6.0,
240007,192.8,199.9,66.4,1609.0,4936.0,6.0,
240107,148.8,216.5,95.7,1609.0,4936.0,6.0,
240207,124.0,232.1,95.7,1609.0,4936.0,6.0,
240307,99.6,245.0,95.7,1609.0,4936.0,6.0,
240407,10.8,245.0,95.7,1609.0,4936.0,6.0,
240507,4.1,245.0,95.7,1609.0,4936.0,6.0,
240607,3.7,245.0,95.7,1609.0,4936.0,6.0,
240807,3.2,197.1,66.4,1609.0,4936.0,6.0,
240907,3.3,165.9,66.4,1609.0,4936.0,6.0,
241007,5.1,141.7,66.4,1609.0,4936.0,6.0,
241107,3.1,114.8,74.2,1609.0,4936.0,6.0,
241207,5.5,78.7,70.3,1609.0,4936.0,6.0,
241307,186.4,6.3,66.4,1609.0,4936.0,6.0,
241407,253.1,129.0,70.3,1417.0,5214.0,7.0,
241507,203.1,183.6,68.4,1417.0,5214.0,7.0,
241607,199.6,210.5,70.3,1417.0,5214.0,7.0,
241807,161.9,239.9,95.7,1417.0,5214.0,7.0,
241907,127.1,254.2,95.7,1417.0,5214.0,7.0,
242007,11.1,255.0,95.7,1417.0,5214.0,7.0,
242107,4.7,255.0,95.7,1417.0,5214.0,7.0,
242207,3.5,255.0,95.7,1417.0,5214.0,7.0,
242307,2.8,255.0,93.8,1417.0,5214.0,7.0,
242407,3.0,220.0,89.8,1417.0,5214.0,7.0,
242507,2.5,177.0,89.8,1417.0,5214.0,7.0,
242607,2.8,144.0,72.3,1417.0,5214.0,7.0,
242807,2.8,86.7,80.1,1417.0,5214.0,7.0,
242907,67.7,20.2,80.1,1417.0,5214.0,7.0,
243007,308.8,125.0,68.4,1563.0,5152.0,7.0,
243107,224.3,165.3,66.4,1379.0,4390.0,6.0,
243207,161.8,192.7,66.4,1379.0,4390.0,6.0,
243307,125.7,206.4,68.4,1379.0,4390.0,6.0,
243407,148.3,216.0,95.7,1379.0,4390.0,6.0,
243507,162.4,225.9,95.7,1379.0,4390.0,6.0,
243607,12.6,229.6,95.7,1379.0,4390.0,6.0,
243807,2.1,229.6,78.1,1379.0,4390.0,6.0,
243907,2.5,229.6,72.3,1379.0,4390.0,6.0,
244007,3.2,192.6,80.1,1379.0,4390.0,6.0,
244107,2.4,159.4,80.1,1379.0,4390.0,6.0,
244207,3.3,124.8,99.6,1379.0,4390.0,6.0,
244307,3.4,100.6,99.6,1379.0,4390.0,6.0,
244407,3.0,77.7,99.6,1379.0,4390.0,6.0,
244507,3.4,41.3,101.6,1379.0,4390.0,6.0,
244607,206.7,131.2,66.4,1275.0,4927.0,8.0,
244807,231.1,204.8,66.4,1275.0,4927.0,8.0,
244907,159.6,221.9,66.4,1275.0,4927.0,8.0,
245007,124.6,238.5,95.7,1275.0,4927.0,8.0,
245107,165.0,251.5,95.7,1275.0,4927.0,8.0,
245207,16.6,255.4,95.7,1275.0,4927.0,8.0,
245307,3.2,255.4,95.7,1275.0,4927.0,8.0,
245407,2.8,255.4,95.7,1275.0,4927.0,8.0,
245507,2.6,255.4,95.7,1275.0,4927.0,8.0,
245607,2.3,219.1,91.8,1275.0,4927.0,8.0,
245807,2.8,152.7,99.6,1275.0,4927.0,8.0,
245907,2.9,126.6,85.9,1275.0,4927.0,8.0,
246007,3.8,91.5,84.0,1275.0,4927.0,8.0,
246107,4.0,44.5,91.8,1275.0,4927.0,8.0,
246207,267.7,105.7,70.3,1458.0,5248.0,7.0,
246307,202.6,174.5,68.4,1295.0,4742.0,6.0,
246407,193.6,204.0,68.4,1295.0,4742.0,6.0,
246507,187.1,220.4,95.7,1295.0,4742.0,6.0,
246607,161.1,233.2,95.7,1295.0,4742.0,6.0,
246807,20.9,251.4,97.7,1295.0,4742.0,6.0,
246907,4.4,251.4,95.7,1295.0,4742.0,6.0,
247007,3.6,251.4,95.7,1295.0,4742.0,6.0,
247107,3.7,251.4,93.8,1295.0,4742.0,6.0,
247207,4.1,228.2,91.8,1295.0,4742.0,6.0,
247307,3.7,181.1,97.7,1295.0,4742.0,6.0,
247407,2.6,147.0,89.8,1295.0,4742.0,6.0,
247507,4.3,121.1,68.4,1295.0,4742.0,6.0,
247607,2.8,94.1,70.3,1295.0,4742.0,6.0,
247807,292.3,97.9,68.4,1578.0,5311.0,7.0,
247907,245.1,152.6,66.4,1578.0,5311.0,7.0,
248007,172.6,186.4,66.4,1578.0,5311.0,7.0,
248107,121.2,202.9,66.4,1578.0,5311.0,7.0,
248207,150.7,213.9,66.4,1578.0,5311.0,7.0,
248307,159.2,223.4,95.7,1578.0,5311.0,7.0,
248407,26.2,230.2,95.7,1578.0,5311.0,7.0,
248507,4.7,230.2,95.7,1578.0,5311.0,7.0,
248607,2.5,230.2,93.8,1578.0,5311.0,7.0,
248807,2.9,208.4,87.9,1578.0,5311.0,7.0,
248907,2.8,172.4,111.3,1578.0,5311.0,7.0,
249007,3.2,135.2,101.6,1578.0,5311.0,7.0,
249107,2.8,108.9,103.5,1578.0,5311.0,7.0,
249207,3.0,85.2,76.2,1578.0,5311.0,7.0,
249307,2.8,55.8,68.4,1578.0,5311.0,7.0,
249407,159.4,87.1,72.3,1578.0,5311.0,7.0,
249507,215.8,133.1,68.4,1578.0,5311.0,7.0,
249607,177.6,154.1,66.4,1578.0,5311.0,7.0,
249807,109.2,185.2,95.7,1578.0,5311.0,7.0,
249907,138.7,198.3,97.7,1578.0,5311.0,7.0,
250007,36.2,207.3,97.7,1578.0,5311.0,7.0,
250107,4.7,207.3,97.7,1578.0,5311.0,7.0,
250207,3.3,207.3,97.7,1578.0,5311.0,7.0,
250307,3.0,207.3,97.7,1578.0,5311.0,7.0,
250407,2.7,188.1,95.7,1578.0,5311.0,7.0,
250507,3.3,158.9,84.0,1578.0,5311.0,7.0,
250607,2.9,138.6,99.6,1578.0,5311.0,7.0,
250807,5.2,93.1,97.7,1578.0,5311.0,7.0,
250907,3.1,60.5,91.8,1578.0,5311.0,7.0,
251007,223.6,67.5,82.0,1578.0,5311.0,7.0,
251107,182.3,138.5,72.3,1578.0,5311.0,7.0,
251207,165.5,168.4,72.3,1578.0,5311.0,7.0,
251307,162.0,184.1,95.7,1578.0,5311.0,7.0,
251407,138.3,195.5,95.7,1578.0,5311.0,7.0,
251507,117.2,208.3,97.7,1578.0,5311.0,7.0,
251607,42.3,215.4,97.7,1578.0,5311.0,7.0,
251807,3.6,215.4,97.7,1578.0,5311.0,7.0,
251907,3.3,215.4,95.7,1578.0,5311.0,7.0,
252007,3.0,204.7,93.8,1578.0,5311.0,7.0,
252107,3.0,165.1,82.0,1578.0,5311.0,7.0,
252207,3.5,134.4,87.9,1578.0,5311.0,7.0,
252307,3.1,112.1,76.2,1578.0,5311.0,7.0,
252407,3.2,90.7,66.4,1578.0,5311.0,7.0,
252507,3.1,55.3,62.5,1578.0,5311.0,7.0,
252607,246.4,67.6,64.5,1578.0,5311.0,7.0,
252807,172.2,175.4,66.4,1578.0,5311.0,7.0,
252907,117.1,194.2,66.4,1578.0,5311.0,7.0,
253007,159.4,205.5,66.4,1578.0,5311.0,7.0,
253107,159.2,216.1,95.7,1578.0,5311.0,7.0,
253207,62.0,228.1,97.7,1578.0,5311.0,7.0,
253307,6.5,228.1,97.7,1578.0,5311.0,7.0,
253407,3.2,228.1,97.7,1578.0,5311.0,7.0,
253507,4.1,228.1,95.7,1578.0,5311.0,7.0,
253607,3.1,217.9,95.7,1578.0,5311.0,7.0,
253807,4.3,145.9,101.6,1578.0,5311.0,7.0,
253907,3.8,119.8,89.8,1578.0,5311.0,7.0,
254007,3.4,99.1,72.3,1578.0,5311.0,7.0,
254107,3.7,73.1,68.4,1578.0,5311.0,7.0,
254207,116.7,57.4,93.8,1578.0,5311.0,7.0,
254307,219.9,125.5,74.2,1578.0,5311.0,7.0,
254407,202.8,154.2,74.2,1578.0,5311.0,7.0,
254507,149.0,173.4,93.8,1578.0,5311.0,7.0,
254607,116.8,188.8,95.7,1578.0,5311.0,7.0,
254807,89.2,217.4,97.7,1578.0,5311.0,7.0,
254907,8.6,217.4,95.7,1578.0,5311.0,7.0,
255007,3.1,217.4,95.7,1578.0,5311.0,7.0,
255107,2.5,217.4,93.8,1578.0,5311.0,7.0,
255207,5.9,209.7,84.0,1578.0,5311.0,7.0,
255307,3.3,177.6,72.3,1578.0,5311.0,7.0,
255407,2.7,153.3,62.5,1578.0,5311.0,7.0,
255507,2.3,131.2,43.0,1578.0,5311.0,7.0,
255607,2.5,107.9,62.5,1578.0,5311.0,7.0,
255807,166.5,9.6,99.6,1578.0,5311.0,7.0,
255907,208.9,132.7,66.4,1583.0,5427.0,7.0,
256007,157.4,166.7,66.4,1583.0,5427.0,7.0,
256107,184.7,184.3,66.4,1583.0,5427.0,7.0,
256207,166.8,197.4,66.4,1583.0,5427.0,7.0,
256307,139.1,213.0,95.7,1583.0,5427.0,7.0,
256407,115.1,227.7,95.7,1583.0,5427.0,7.0,
256507,9.1,227.9,95.7,1583.0,5427.0,7.0,
256607,2.7,227.9,95.7,1583.0,5427.0,7.0,
256807,3.1,227.7,93.8,1583.0,5427.0,7.0,
256907,2.5,185.3,93.8,1583.0,5427.0,7.0,
257007,3.4,155.5,115.2,1583.0,5427.0,7.0,
257107,4.2,134.1,113.3,1583.0,5427.0,7.0,
257207,3.1,113.9,101.6,1583.0,5427.0,7.0,
257307,2.3,81.1,68.4,1583.0,5427.0,7.0,
257407,114.4,8.8,72.3,1583.0,5427.0,7.0,
257507,239.8,113.4,72.3,1583.0,5427.0,7.0,
257607,169.0,149.7,72.3,1583.0,5427.0,7.0,
257807,162.0,186.2,95.7,1583.0,5427.0,7.0,
257907,177.8,199.5,97.7,1583.0,5427.0,7.0,
258007,146.1,212.7,97.7,1583.0,5427.0,7.0,
258107,14.5,216.0,97.7,1583.0,5427.0,7.0,
258207,3.0,216.0,95.7,1583.0,5427.0,7.0,
258307,2.6,216.0,95.7,1583.0,5427.0,7.0,
258407,2.6,216.0,93.8,1583.0,5427.0,7.0,
258507,2.2,183.9,85.9,1583.0,5427.0,7.0,
258607,2.7,155.7,95.7,1583.0,5427.0,7.0,
258807,2.7,109.6,80.1,1583.0,5427.0,7.0,
258907,2.8,82.9,95.7,1583.0,5427.0,7.0,
259007,3.1,37.8,95.7,1583.0,5427.0,7.0,
259107,251.7,116.4,66.4,1501.0,5293.0,7.0,
259207,223.4,149.2,66.4,1501.0,5293.0,7.0,
259307,157.7,169.8,66.4,1501.0,5293.0,7.0,
259407,115.8,184.5,66.4,1501.0,5293.0,7.0,
259507,124.3,197.8,95.7,1501.0,5293.0,7.0,
259607,184.2,211.2,95.7,1501.0,5293.0,7.0,
259807,3.3,215.7,95.7,1501.0,5293.0,7.0,
259907,2.4,215.7,95.7,1501.0,5293.0,7.0,
260007,2.5,215.7,93.8,1501.0,5293.0,7.0,
260107,2.3,181.6,85.9,1501.0,5293.0,7.0,
260207,2.7,155.8,76.2,1501.0,5293.0,7.0,
260307,2.4,133.2,78.1,1501.0,5293.0,7.0,
260407,3.2,111.8,103.5,1501.0,5293.0,7.0,
260507,2.9,86.2,107.4,1501.0,5293.0,7.0,
260607,3.0,44.2,99.6,1501.0,5293.0,7.0,
260807,178.6,162.8,68.4,1501.0,5293.0,7.0,
260907,209.2,187.9,68.4,1501.0,5293.0,7.0,
261007,174.5,205.0,95.7,1501.0,5293.0,7.0,
261107,140.2,220.7,95.7,1501.0,5293.0,7.0,
261207,117.7,236.1,97.7,1501.0,5293.0,7.0,
261307,18.0,239.9,97.7,1501.0,5293.0,7.0,
261407,3.9,239.9,95.7,1501.0,5293.0,7.0,
261507,3.0,239.9,95.7,1501.0,5293.0,7.0,
261607,3.0,239.9,93.8,1501.0,5293.0,7.0,
261807,2.8,176.3,68.4,1501.0,5293.0,7.0,
261907,2.9,149.3,68.4,1501.0,5293.0,7.0,
262007,3.0,124.7,80.1,1501.0,5293.0,7.0,
262107,3.3,94.2,91.8,1501.0,5293.0,7.0,
262207,3.2,43.1,115.2,1501.0,5293.0,7.0,
262307,261.9,91.7,70.3,1501.0,5293.0,7.0,
262407,176.2,137.3,68.4,1501.0,5293.0,7.0,
262507,117.3,158.9,66.4,1501.0,5293.0,7.0,
262607,152.3,171.3,66.4,1501.0,5293.0,7.0,
262807,144.2,193.0,95.7,1501.0,5293.0,7.0,
262907,25.4,200.9,95.7,1501.0,5293.0,7.0,
263007,4.6,200.9,95.7,1501.0,5293.0,7.0,
263107,3.1,200.9,91.8,1501.0,5293.0,7.0,
263207,2.9,200.9,85.9,1501.0,5293.0,7.0,
263307,2.6,178.8,85.9,1501.0,5293.0,7.0,
263407,3.4,146.8,89.8,1501.0,5293.0,7.0,
263507,3.0,123.0,99.6,1501.0,5293.0,7.0,
263607,2.4,105.1,101.6,1501.0,5293.0,7.0,
263807,5.6,56.2,68.4,1501.0,5293.0,7.0,
263907,226.5,91.1,68.4,1501.0,5293.0,7.0,
264007,247.8,143.9,66.4,1545.0,5143.0,6.0,
264107,200.7,171.1,66.4,1545.0,5143.0,6.0,
264207,148.2,195.0,66.4,1545.0,5143.0,6.0,
264307,133.0,211.4,95.7,1545.0,5143.0,6.0,
264407,181.0,225.9,95.7,1545.0,5143.0,6.0,
264507,34.1,234.6,97.7,1545.0,5143.0,6.0,
264607,5.5,234.6,95.7,1545.0,5143.0,6.0,
264807,2.6,234.6,95.7,1545.0,5143.0,6.0,
264907,3.5,216.2,93.8,1545.0,5143.0,6.0,
265007,3.0,185.3,68.4,1545.0,5143.0,6.0,
265107,3.2,160.5,82.0,1545.0,5143.0,6.0,
265207,3.2,130.4,91.8,1545.0,5143.0,6.0,
265307,3.3,101.8,95.7,1545.0,5143.0,6.0,
265407,2.5,63.3,82.0,1545.0,5143.0,6.0,
265507,200.0,85.2,76.2,1545.0,5143.0,6.0,
265607,189.0,151.4,68.4,1382.0,4767.0,7.0,
265807,187.1,198.3,68.4,1382.0,4767.0,7.0,
265907,151.3,214.0,95.7,1382.0,4767.0,7.0,
266007,128.5,230.7,95.7,1382.0,4767.0,7.0,
266107,46.5,239.5,95.7,1382.0,4767.0,7.0,
266207,5.9,239.5,89.8,1382.0,4767.0,7.0,
266307,2.8,239.5,66.4,1382.0,4767.0,7.0,
266407,3.4,239.5,68.4,1382.0,4767.0,7.0,
266507,3.1,223.9,68.4,1382.0,4767.0,7.0,
266607,3.9,185.6,68.4,1382.0,4767.0,7.0,
266807,3.6,134.3,76.2,1382.0,4767.0,7.0,
266907,3.2,107.6,66.4,1382.0,4767.0,7.0,
267007,5.3,64.3,68.4,1382.0,4767.0,7.0,
267107,256.3,62.6,66.4,1382.0,4767.0,7.0,
267207,197.9,126.0,66.4,1382.0,4767.0,7.0,
267307,149.3,160.6,66.4,1382.0,4767.0,7.0,
267407,166.5,179.0,66.4,1382.0,4767.0,7.0,
267507,178.0,193.5,95.7,1382.0,4767.0,7.0,
267607,150.2,206.6,95.7,1382.0,4767.0,7.0,
267807,7.8,220.1,97.7,1382.0,4767.0,7.0,
267907,3.8,220.1,95.7,1382.0,4767.0,7.0,
268007,2.8,220.0,95.7,1382.0,4767.0,7.0,
268107,2.9,211.0,93.8,1382.0,4767.0,7.0,
268207,3.9,180.4,66.4,1382.0,4767.0,7.0,
268307,3.2,150.5,80.1,1382.0,4767.0,7.0,
268407,3.9,128.0,85.9,1382.0,4767.0,7.0,
268507,4.0,105.0,99.6,1382.0,4767.0,7.0,
268607,3.0,75.8,105.5,1382.0,4767.0,7.0,
268807,253.3,127.4,70.3,1382.0,4767.0,7.0,
268907,194.2,158.7,68.4,1382.0,4767.0,7.0,
269007,136.2,181.2,68.4,1382.0,4767.0,7.0,
269107,117.7,193.2,95.7,1382.0,4767.0,7.0,
269207,147.5,203.6,95.7,1382.0,4767.0,7.0,
269307,62.6,212.9,97.7,1382.0,4767.0,7.0,
269407,7.2,212.9,95.7,1382.0,4767.0,7.0,
269507,3.1,212.9,95.7,1382.0,4767.0,7.0,
269607,2.3,212.9,93.8,1382.0,4767.0,7.0,
269807,2.9,170.6,72.3,1382.0,4767.0,7.0,
269907,2.9,141.9,74.2,1382.0,4767.0,7.0,
270007,3.1,111.9,99.6,1382.0,4767.0,7.0,
270107,2.5,89.5,99.6,1382.0,4767.0,7.0,
270207,3.2,62.4,101.6,1382.0,4767.0,7.0,
270307,138.0,46.8,113.3,1382.0,4767.0,7.0,
270407,166.6,129.6,66.4,1382.0,4767.0,7.0,
270507,214.8,161.6,66.4,1382.0,4767.0,7.0,
270607,192.9,182.8,66.4,1382.0,4767.0,7.0,
270807,129.4,216.8,95.7,1382.0,4767.0,7.0,
270907,105.3,231.3,95.7,1382.0,4767.0,7.0,
271007,12.0,231.4,95.7,1382.0,4767.0,7.0,
271107,3.7,231.4,95.7,1382.0,4767.0,7.0,
271207,2.8,231.4,95.7,1382.0,4767.0,7.0,
271307,2.3,226.6,93.8,1382.0,4767.0,7.0,
271407,3.3,191.7,82.0,1382.0,4767.0,7.0,
271507,3.1,165.7,68.4,1382.0,4767.0,7.0,
271607,3.0,141.9,97.7,1382.0,4767.0,7.0,
271807,3.5,80.8,89.8,1382.0,4767.0,7.0,
271907,172.9,5.8,72.3,1382.0,4767.0,7.0,
272007,232.6,121.4,72.3,1382.0,4767.0,7.0,
272107,163.9,164.2,70.3,1382.0,4767.0,7.0,
272207,158.7,184.7,76.2,1382.0,4767.0,7.0,
272307,164.5,198.5,95.7,1382.0,4767.0,7.0,
272407,148.5,210.1,97.7,1382.0,4767.0,7.0,
272507,130.0,225.8,97.7,1382.0,4767.0,7.0,
272607,10.7,226.7,97.7,1382.0,4767.0,7.0,
272807,2.8,226.7,95.7,1382.0,4767.0,7.0,
272907,2.8,226.6,93.8,1382.0,4767.0,7.0,
273007,2.9,191.4,85.9,1382.0,4767.0,7.0,
273107,2.8,156.3,70.3,1382.0,4767.0,7.0,
273207,3.1,131.4,70.3,1382.0,4767.0,7.0,
273307,2.9,109.4,99.6,1382.0,4767.0,7.0,
273407,2.8,85.1,97.7,1382.0,4767.0,7.0,
273507,46.6,20.2,78.1,1382.0,4767.0,7.0,
273607,267.2,114.4,66.4,1423.0,4727.0,6.0,
273807,149.6,175.3,66.4,1423.0,4727.0,6.0,
273907,116.0,188.8,66.4,1423.0,4727.0,6.0,
274007,152.7,200.5,95.7,1423.0,4727.0,6.0,
274107,178.1,212.6,95.7,1423.0,4727.0,6.0,
274207,12.4,217.4,97.7,1423.0,4727.0,6.0,
274307,3.1,217.4,97.7,1423.0,4727.0,6.0,
274407,2.9,217.4,95.7,1423.0,4727.0,6.0,
274507,2.4,217.4,93.8,1423.0,4727.0,6.0,
274607,3.3,184.9,87.9,1423.0,4727.0,6.0,
274807,2.9,128.6,97.7,1423.0,4727.0,6.0,
274907,3.4,107.9,95.7,1423.0,4727.0,6.0,
275007,3.6,84.2,68.4,1423.0,4727.0,6.0,
275107,3.8,45.6,68.4,1423.0,4727.0,6.0,
275207,189.4,122.1,78.1,1423.0,4727.0,6.0,
275307,232.2,167.1,70.3,1383.0,4857.0,6.0,
275407,202.6,190.5,85.9,1383.0,4857.0,6.0,
275507,142.1,206.7,95.7,1383.0,4857.0,6.0,
275607,113.5,221.3,95.7,1383.0,4857.0,6.0,
275807,19.3,239.3,97.7,1383.0,4857.0,6.0,
275907,3.9,239.3,95.7,1383.0,4857.0,6.0,
276007,3.4,239.3,95.7,1383.0,4857.0,6.0,
276107,2.3,239.3,93.8,1383.0,4857.0,6.0,
276207,2.6,205.8,91.8,1383.0,4857.0,6.0,
276307,3.1,171.3,97.7,1383.0,4857.0,6.0,
276407,3.0,144.8,99.6,1383.0,4857.0,6.0,
276507,2.6,120.6,99.6,1383.0,4857.0,6.0,
276607,2.8,91.1,105.5,1383.0,4857.0,6.0,
276807,272.0,102.8,68.4,1697.0,5664.0,7.0,
276907,203.8,170.2,66.4,1531.0,4971.0,6.0,
277007,181.4,198.3,66.4,1531.0,4971.0,6.0,
277107,177.4,212.6,66.4,1531.0,4971.0,6.0,
277207,152.4,223.6,95.7,1531.0,4971.0,6.0,
277307,132.1,237.0,95.7,1531.0,4971.0,6.0,
277407,24.5,241.9,95.7,1531.0,4971.0,6.0,
277507,4.2,241.9,95.7,1531.0,4971.0,6.0,
277607,3.1,241.9,95.7,1531.0,4971.0,6.0,
277807,2.7,219.0,93.8,1531.0,4971.0,6.0,
277907,2.4,171.9,107.4,1531.0,4971.0,6.0,
278007,3.4,138.5,101.6,1531.0,4971.0,6.0,
278107,3.0,115.5,101.6,1531.0,4971.0,6.0,
278207,3.2,92.4,101.6,1531.0,4971.0,6.0,
278307,3.7,48.7,99.6,1531.0,4971.0,6.0,
278407,251.0,89.4,74.2,1531.0,4971.0,6.0,
278507,215.7,135.7,70.3,1531.0,4971.0,6.0,
278607,158.1,165.7,70.3,1531.0,4971.0,6.0,
278807,151.7,194.3,95.7,1531.0,4971.0,6.0,
278907,167.0,206.0,97.7,1531.0,4971.0,6.0,
279007,24.6,214.4,97.7,1531.0,4971.0,6.0,
279107,3.8,214.4,97.7,1531.0,4971.0,6.0,
279207,3.5,214.4,97.7,1531.0,4971.0,6.0,
279307,2.6,214.4,95.7,1531.0,4971.0,6.0,
279407,2.6,194.9,93.8,1531.0,4971.0,6.0,
279507,2.4,166.0,66.4,1531.0,4971.0,6.0,
279607,3.0,136.0,66.4,1531.0,4971.0,6.0,
279807,2.8,90.7,68.4,1531.0,4971.0,6.0,
279907,3.7,59.5,66.4,1531.0,4971.0,6.0,
280007,184.1,97.8,70.3,1531.0,4971.0,6.0,
280107,251.3,153.9,66.4,1656.0,5712.0,7.0,
280207,233.6,184.9,66.4,1656.0,5712.0,7.0,
280307,166.5,204.1,66.4,1656.0,5712.0,7.0,
280407,124.4,221.1,93.8,1656.0,5712.0,7.0,
280507,145.9,235.1,95.7,1656.0,5712.0,7.0,
280607,40.9,243.3,95.7,1656.0,5712.0,7.0,
280807,3.1,243.3,95.7,1656.0,5712.0,7.0,
280907,3.4,243.3,93.8,1656.0,5712.0,7.0,
281007,3.3,222.9,91.8,1656.0,5712.0,7.0,
281107,3.1,188.6,68.4,1656.0,5712.0,7.0,
281207,2.4,158.2,66.4,1656.0,5712.0,7.0,
281307,2.5,132.6,66.4,1656.0,5712.0,7.0,
281407,2.7,101.8,68.4,1656.0,5712.0,7.0,
281507,3.8,63.1,70.3,1656.0,5712.0,7.0,
281607,229.4,66.7,80.1,1656.0,5712.0,7.0,
281807,203.1,190.3,70.3,1656.0,5712.0,7.0,
281907,202.9,211.9,95.7,1656.0,5712.0,7.0,
282007,171.1,227.2,95.7,1656.0,5712.0,7.0,
282107,144.2,243.7,95.7,1656.0,5712.0,7.0,
282207,50.5,253.8,97.7,1656.0,5712.0,7.0,
282307,6.0,253.8,97.7,1656.0,5712.0,7.0,
282407,3.1,253.8,95.7,1656.0,5712.0,7.0,
282507,3.1,253.8,95.7,1656.0,5712.0,7.0,
282607,2.9,245.0,93.8,1656.0,5712.0,7.0,
282807,2.6,168.0,93.8,1656.0,5712.0,7.0,
282907,3.0,139.9,68.4,1656.0,5712.0,7.0,
283007,3.1,113.3,68.4,1656.0,5712.0,7.0,
283107,3.0,71.3,68.4,1656.0,5712.0,7.0,
283207,213.7,58.0,76.2,1656.0,5712.0,7.0,
283307,235.7,129.5,70.3,1381.0,4729.0,6.0,
283407,168.2,162.2,68.4,1381.0,4729.0,6.0,
283507,108.5,181.5,68.4,1381.0,4729.0,6.0,
283607,155.5,192.7,95.7,1381.0,4729.0,6.0,
283807,58.4,213.6,95.7,1381.0,4729.0,6.0,
283907,5.9,213.6,95.7,1381.0,4729.0,6.0,
284007,2.5,213.6,95.7,1381.0,4729.0,6.0,
284107,3.4,213.6,93.8,1381.0,4729.0,6.0,
284207,3.0,205.7,89.8,1381.0,4729.0,6.0,
284307,3.2,170.0,87.9,1381.0,4729.0,6.0,
284407,2.9,139.1,89.8,1381.0,4729.0,6.0,
284507,2.5,112.8,70.3,1381.0,4729.0,6.0,
284607,3.0,92.3,70.3,1381.0,4729.0,6.0,
284807,121.6,55.4,91.8,1381.0,4729.0,6.0,
284907,249.8,135.5,68.4,1680.0,5430.0,6.0,
285007,235.8,168.8,68.4,1680.0,5430.0,6.0,
285107,178.3,192.2,68.4,1680.0,5430.0,6.0,
285207,132.9,210.9,95.7,1680.0,5430.0,6.0,
285307,141.4,227.8,95.7,1680.0,5430.0,6.0,
285407,89.3,241.6,97.7,1680.0,5430.0,6.0,
285507,9.9,241.6,97.7,1680.0,5430.0,6.0,
285607,3.1,241.6,97.7,1680.0,5430.0,6.0,
285807,2.2,235.2,95.7,1680.0,5430.0,6.0,
285907,2.5,200.0,70.3,1680.0,5430.0,6.0,
286007,2.9,172.9,68.4,1680.0,5430.0,6.0,
286107,2.3,146.5,85.9,1680.0,5430.0,6.0,
286207,2.9,117.9,97.7,1680.0,5430.0,6.0,
286307,3.1,80.5,68.4,1680.0,5430.0,6.0,
286407,161.1,7.1,66.4,1680.0,5430.0,6.0,
286507,212.6,133.8,68.4,1564.0,5472.0,7.0,
286607,182.4,171.9,68.4,1564.0,5472.0,7.0,
286807,171.1,206.9,68.4,1564.0,5472.0,7.0,
286907,140.1,221.3,95.7,1564.0,5472.0,7.0,
287007,116.5,234.5,95.7,1564.0,5472.0,7.0,
287107,10.2,234.6,95.7,1564.0,5472.0,7.0,
287207,3.1,234.6,95.7,1564.0,5472.0,7.0,
287307,2.5,234.6,93.8,1564.0,5472.0,7.0,
287407,2.8,234.6,89.8,1564.0,5472.0,7.0,
287507,3.1,192.8,85.9,1564.0,5472.0,7.0,
287607,3.1,159.8,95.7,1564.0,5472.0,7.0,
287807,2.3,110.7,95.7,1564.0,5472.0,7.0,
287907,2.8,78.1,74.2,1564.0,5472.0,7.0,
288007,121.9,9.6,70.3,1564.0,5472.0,7.0,
288107,292.5,123.8,68.4,1287.0,5019.0,7.0,
288207,201.4,169.7,68.4,1287.0,5019.0,7.0,
288307,142.5,199.2,68.4,1287.0,5019.0,7.0,
288407,174.5,214.6,95.7,1287.0,5019.0,7.0,
288507,166.3,226.5,95.7,1287.0,5019.0,7.0,
288607,168.7,240.7,97.7,1287.0,5019.0,7.0,
288807,2.6,244.6,97.7,1287.0,5019.0,7.0,
288907,2.1,244.6,95.7,1287.0,5019.0,7.0,
289007,1.9,244.6,95.7,1287.0,5019.0,7.0,
289107,2.1,211.0,89.8,1287.0,5019.0,7.0,
289207,3.1,176.2,66.4,1287.0,5019.0,7.0,
289307,2.6,142.0,76.2,1287.0,5019.0,7.0,
289407,2.1,117.3,68.4,1287.0,5019.0,7.0,
289507,3.2,92.4,78.1,1287.0,5019.0,7.0,
289607,3.1,43.7,99.6,1287.0,5019.0,7.0,
289807,255.8,168.3,68.4,1361.0,4565.0,6.0,
289907,182.5,192.6,68.4,1361.0,4565.0,6.0,
290007,125.5,210.9,93.8,1361.0,4565.0,6.0,
290107,119.9,221.8,95.7,1361.0,4565.0,6.0,
290207,168.9,232.8,95.7,1361.0,4565.0,6.0,
290307,18.2,236.7,95.7,1361.0,4565.0,6.0,
290407,6.1,236.7,95.7,1361.0,4565.0,6.0,
290507,4.2,236.7,87.9,1361.0,4565.0,6.0,
290607,3.4,236.7,76.2,1361.0,4565.0,6.0,
290807,5.6,166.5,70.3,1361.0,4565.0,6.0,
290907,4.2,137.7,80.1,1361.0,4565.0,6.0,
291007,4.1,107.7,76.2,1361.0,4565.0,6.0,
291107,3.1,83.0,58.6,1361.0,4565.0,6.0,
291207,4.2,43.5,56.6,1361.0,4565.0,6.0,
291307,243.4,126.9,68.4,1358.0,5372.0,7.0,
291407,216.9,184.8,66.4,1247.0,5295.0,6.0,
291507,271.3,216.0,66.4,1682.0,5119.0,5.0,
291607,217.6,238.3,95.7,1682.0,5119.0,5.0,
291807,138.4,276.5,97.7,1682.0,5119.0,5.0,
291907,24.5,281.9,97.7,1682.0,5119.0,5.0,
292007,4.7,281.9,95.7,1682.0,5119.0,5.0,
292107,3.0,281.9,95.7,1682.0,5119.0,5.0,
292207,3.1,281.9,95.7,1682.0,5119.0,5.0,
292307,2.9,251.8,91.8,1682.0,5119.0,5.0,
292407,2.8,213.0,82.0,1682.0,5119.0,5.0,
292507,3.8,181.3,101.6,1682.0,5119.0,5.0,
292607,2.8,150.7,105.5,1682.0,5119.0,5.0,
292807,4.0,55.0,99.6,1682.0,5119.0,5.0,
292907,326.5,107.6,70.3,1736.0,5663.0,7.0,
293007,233.4,173.0,68.4,1567.0,4775.0,6.0,
293107,173.5,210.4,68.4,1567.0,4775.0,6.0,
293207,206.7,231.1,95.7,1567.0,4775.0,6.0,
293307,218.4,246.9,95.7,1567.0,4775.0,6.0,
293407,180.6,261.4,95.7,1567.0,4775.0,6.0,
293507,28.9,270.3,95.7,1567.0,4775.0,6.0,
293607,4.6,270.3,95.7,1567.0,4775.0,6.0,
293807,2.3,270.3,80.1,1567.0,4775.0,6.0,
293907,2.9,248.0,76.2,1567.0,4775.0,6.0,
294007,2.7,207.7,68.4,1567.0,4775.0,6.0,
294107,2.9,169.7,68.4,1567.0,4775.0,6.0,
294207,3.7,140.3,68.4,1567.0,4775.0,6.0,
294307,2.9,110.1,66.4,1567.0,4775.0,6.0,
294407,3.2,68.8,66.4,1567.0,4775.0,6.0,
294507,250.8,106.7,68.4,1779.0,5588.0,7.0,
294607,271.1,163.0,66.4,1236.0,4678.0,7.0,
294807,136.4,210.1,66.4,1236.0,4678.0,7.0,
294907,128.8,223.5,95.7,1236.0,4678.0,7.0,
295007,191.4,238.4,97.7,1236.0,4678.0,7.0,
295107,36.0,248.2,97.7,1236.0,4678.0,7.0,
295207,5.8,248.2,97.7,1236.0,4678.0,7.0,
295307,2.7,248.2,97.7,1236.0,4678.0,7.0,
295407,2.5,248.2,97.7,1236.0,4678.0,7.0,
295507,2.5,224.2,95.7,1236.0,4678.0,7.0,
295607,2.7,187.3,70.3,1236.0,4678.0,7.0,
295807,2.9,132.3,107.4,1236.0,4678.0,7.0,
295907,3.0,108.2,97.7,1236.0,4678.0,7.0,
296007,2.4,69.4,97.7,1236.0,4678.0,7.0,
296107,229.1,102.6,78.1,1236.0,4678.0,7.0,
296207,208.2,178.1,72.3,1485.0,4860.0,6.0,
296307,222.7,209.2,76.2,1485.0,4860.0,6.0,
296407,183.5,227.7,95.7,1485.0,4860.0,6.0,
296507,154.0,242.0,95.7,1485.0,4860.0,6.0,
296607,133.6,258.8,97.7,1485.0,4860.0,6.0,
296807,6.0,268.0,97.7,1485.0,4860.0,6.0,
296907,3.3,268.0,95.7,1485.0,4860.0,6.0,
297007,3.8,268.0,95.7,1485.0,4860.0,6.0,
297107,3.2,247.6,93.8,1485.0,4860.0,6.0,
297207,3.4,200.3,72.3,1485.0,4860.0,6.0,
297307,3.5,167.5,70.3,1485.0,4860.0,6.0,
297407,3.5,141.4,68.4,1485.0,4860.0,6.0,
297507,2.7,115.3,74.2,1485.0,4860.0,6.0,
297607,3.1,69.7,89.8,1485.0,4860.0,6.0,
297807,249.2,159.4,66.4,1166.0,5081.0,7.0,
297907,171.1,200.4,66.4,1427.0,4534.0,5.0,
298007,184.5,219.5,66.4,1427.0,4534.0,5.0,
298107,169.9,231.2,70.3,1427.0,4534.0,5.0,
298207,151.1,241.2,95.7,1427.0,4534.0,5.0,
298307,57.3,251.8,95.7,1427.0,4534.0,5.0,
298407,8.3,251.8,95.7,1427.0,4534.0,5.0,
298507,3.8,251.8,95.7,1427.0,4534.0,5.0,
298607,3.4,251.8,95.7,1427.0,4534.0,5.0,
298807,3.2,195.0,85.9,1427.0,4534.0,5.0,
298907,2.9,152.5,87.9,1427.0,4534.0,5.0,
299007,3.0,123.4,97.7,1427.0,4534.0,5.0,
299107,3.6,99.9,91.8,1427.0,4534.0,5.0,
299207,3.4,72.4,76.2,1427.0,4534.0,5.0,
299307,188.5,69.2,74.2,1427.0,4534.0,5.0,
299407,293.4,148.1,70.3,1580.0,4813.0,5.0,
299507,219.1,183.7,70.3,1580.0,4813.0,5.0,
299607,154.8,210.9,95.7,1580.0,4813.0,5.0,
299807,178.7,240.4,97.7,1580.0,4813.0,5.0,
299907,83.4,255.1,97.7,1580.0,4813.0,5.0,
300007,10.5,255.1,97.7,1580.0,4813.0,5.0,
300107,4.2,255.1,97.7,1580.0,4813.0,5.0,
300207,2.6,255.1,95.7,1580.0,4813.0,5.0,
300307,3.1,245.6,93.8,1580.0,4813.0,5.0,
300407,2.6,207.7,99.6,1580.0,4813.0,5.0,
300507,2.8,177.0,99.6,1580.0,4813.0,5.0,
300607,3.6,143.6,76.2,1580.0,4813.0,5.0,
300807,3.4,85.6,87.9,1580.0,4813.0,5.0,
300907,160.8,52.9,128.9,1580.0,4813.0,5.0,
301007,210.2,158.3,70.3,1788.0,5742.0,7.0,
301107,234.9,194.5,68.4,1562.0,4916.0,6.0,
301207,206.1,215.2,72.3,1562.0,4916.0,6.0,
301307,144.4,229.0,95.7,1562.0,4916.0,6.0,
301407,127.9,243.5,95.7,1562.0,4916.0,6.0,
301507,102.4,255.6,95.7,1562.0,4916.0,6.0,
301607,10.1,255.6,95.7,1562.0,4916.0,6.0,
301807,4.5,255.6,91.8,1562.0,4916.0,6.0,
301907,3.5,250.1,84.0,1562.0,4916.0,6.0,
302007,3.0,200.7,99.6,1562.0,4916.0,6.0,
302107,3.6,165.9,109.4,1562.0,4916.0,6.0,
302207,3.4,138.0,89.8,1562.0,4916.0,6.0,
302307,2.9,113.6,84.0,1562.0,4916.0,6.0,
302407,4.5,78.1,80.1,1562.0,4916.0,6.0,
302507,192.8,5.4,84.0,1562.0,4916.0,6.0,
302607,272.8,138.0,68.4,1504.0,5595.0,7.0,
302807,190.5,214.7,66.4,1504.0,5595.0,7.0,
302907,195.7,230.9,95.7,1504.0,5595.0,7.0,
303007,163.8,243.6,95.7,1504.0,5595.0,7.0,
303107,137.4,259.2,97.7,1504.0,5595.0,7.0,
303207,10.9,260.1,97.7,1504.0,5595.0,7.0,
303307,2.8,260.1,97.7,1504.0,5595.0,7.0,
303407,4.0,260.1,97.7,1504.0,5595.0,7.0,
303507,2.6,260.1,97.7,1504.0,5595.0,7.0,
303607,2.8,220.5,99.6,1504.0,5595.0,7.0,
303807,2.8,146.8,99.6,1504.0,5595.0,7.0,
303907,2.9,119.7,99.6,1504.0,5595.0,7.0,
304007,3.3,91.0,99.6,1504.0,5595.0,7.0,
304107,43.6,21.0,99.6,1504.0,5595.0,7.0,
304207,314.6,135.7,74.2,1614.0,5501.0,7.0,
304307,236.3,182.2,72.3,1446.0,4546.0,6.0,
304407,163.4,211.9,93.8,1446.0,4546.0,6.0,
304507,114.6,226.8,95.7,1446.0,4546.0,6.0,
304607,171.9,238.6,97.7,1446.0,4546.0,6.0,
304807,17.0,255.2,97.7,1446.0,4546.0,6.0,
304907,3.3,255.2,95.7,1446.0,4546.0,6.0,
305007,2.8,255.2,95.7,1446.0,4546.0,6.0,
305107,3.0,255.2,93.8,1446.0,4546.0,6.0,
305207,2.8,216.2,87.9,1446.0,4546.0,6.0,
305307,3.2,178.8,99.6,1446.0,4546.0,6.0,
305407,3.1,142.3,99.6,1446.0,4546.0,6.0,
305507,3.0,117.1,99.6,1446.0,4546.0,6.0,
305607,4.3,90.7,99.6,1446.0,4546.0,6.0,
305807,202.5,128.7,68.4,1714.0,5569.0,6.0,
305907,231.2,168.4,66.4,1384.0,4542.0,5.0,
306007,188.6,188.5,66.4,1384.0,4542.0,5.0,
306107,134.0,201.4,66.4,1384.0,4542.0,5.0,
306207,113.6,215.0,95.7,1384.0,4542.0,5.0,
306307,145.9,227.6,95.7,1384.0,4542.0,5.0,
306407,21.2,232.3,95.7,1384.0,4542.0,5.0,
306507,3.8,232.3,95.7,1384.0,4542.0,5.0,
306607,3.4,232.3,95.7,1384.0,4542.0,5.0,
306807,2.9,193.5,91.8,1384.0,4542.0,5.0,
306907,3.3,160.1,82.0,1384.0,4542.0,5.0,
307007,3.1,135.8,76.2,1384.0,4542.0,5.0,
307107,3.4,115.9,72.3,1384.0,4542.0,5.0,
307207,3.8,88.0,72.3,1384.0,4542.0,5.0,
307307,4.5,46.8,84.0,1384.0,4542.0,5.0,
307407,258.6,107.6,74.2,1372.0,5050.0,7.0,
307507,178.8,165.9,72.3,1372.0,5050.0,7.0,
307607,165.1,191.5,91.8,1372.0,5050.0,7.0,
307807,157.3,219.5,97.7,1372.0,5050.0,7.0,
307907,127.9,235.1,97.7,1372.0,5050.0,7.0,
308007,23.1,240.0,97.7,1372.0,5050.0,7.0,
308107,4.4,240.0,97.7,1372.0,5050.0,7.0,
308207,3.4,240.0,97.7,1372.0,5050.0,7.0,
308307,3.5,240.0,97.7,1372.0,5050.0,7.0,
308407,2.8,214.6,97.7,1372.0,5050.0,7.0,
308507,3.7,173.5,84.0,1372.0,5050.0,7.0,
308607,2.9,144.7,87.9,1372.0,5050.0,7.0,
308807,5.3,97.1,119.1,1372.0,5050.0,7.0,
308907,17.7,48.9,70.3,1372.0,5050.0,7.0,
309007,265.5,104.2,78.1,1485.0,5272.0,7.0,
309107,239.4,152.9,78.1,1485.0,5272.0,7.0,
309207,164.5,184.5,85.9,1485.0,5272.0,7.0,
309307,116.2,201.9,95.7,1485.0,5272.0,7.0,
309407,157.8,212.5,95.7,1485.0,5272.0,7.0,
309507,159.2,222.1,95.7,1485.0,5272.0,7.0,
309607,28.3,229.0,97.7,1485.0,5272.0,7.0,
309807,4.6,229.0,95.7,1485.0,5272.0,7.0,
309907,4.0,228.9,93.8,1485.0,5272.0,7.0,
310007,3.0,204.0,89.8,1485.0,5272.0,7.0,
310107,3.5,170.6,82.0,1485.0,5272.0,7.0,
310207,2.9,135.8,101.6,1485.0,5272.0,7.0,
310307,2.3,108.2,132.8,1485.0,5272.0,7.0,
310407,5.4,85.5,111.3,1485.0,5272.0,7.0,
310507,5.2,56.1,78.1,1485.0,5272.0,7.0,
310607,181.5,99.2,70.3,1485.0,5272.0,7.0,
310807,203.6,176.7,66.4,1485.0,5272.0,7.0,
310907,154.2,193.4,68.4,1485.0,5272.0,7.0,
311007,119.3,208.4,95.7,1485.0,5272.0,7.0,
311107,136.3,222.9,97.7,1485.0,5272.0,7.0,
311207,39.1,232.7,97.7,1485.0,5272.0,7.0,
311307,4.3,232.7,97.7,1485.0,5272.0,7.0,
311407,2.6,232.7,97.7,1485.0,5272.0,7.0,
311507,2.4,232.7,97.7,1485.0,5272.0,7.0,
311607,2.4,210.5,95.7,1485.0,5272.0,7.0,
311807,2.9,151.4,99.6,1485.0,5272.0,7.0,
311907,2.5,129.4,91.8,1485.0,5272.0,7.0,
312007,3.2,103.6,76.2,1485.0,5272.0,7.0,
312107,2.7,66.9,76.2,1485.0,5272.0,7.0,
312207,222.1,59.6,85.9,1485.0,5272.0,7.0,
312307,175.8,138.8,93.8,1485.0,5272.0,7.0,
312407,139.0,164.7,95.7,1485.0,5272.0,7.0,
312507,152.0,179.4,95.7,1485.0,5272.0,7.0,
312607,144.9,191.3,97.7,1485.0,5272.0,7.0,
312807,49.6,214.9,97.7,1485.0,5272.0,7.0,
312907,5.5,214.9,97.7,1485.0,5272.0,7.0,
313007,3.8,214.9,97.7,1485.0,5272.0,7.0,
313107,3.2,214.9,97.7,1485.0,5272.0,7.0,
313207,3.2,206.5,95.7,1485.0,5272.0,7.0,
313307,3.5,164.1,82.0,1485.0,5272.0,7.0,
313407,3.0,138.1,68.4,1485.0,5272.0,7.0,
313507,3.4,118.4,89.8,1485.0,5272.0,7.0,
313607,3.1,98.0,80.1,1485.0,5272.0,7.0,
313807,257.1,75.6,66.4,1485.0,5272.0,7.0,
313907,300.5,155.5,66.4,1594.0,4970.0,6.0,
314007,210.0,194.2,66.4,1594.0,4970.0,6.0,
314107,136.2,218.2,66.4,1594.0,4970.0,6.0,
314207,169.7,231.1,78.1,1594.0,4970.0,6.0,
314307,183.8,242.5,95.7,1594.0,4970.0,6.0,
314407,67.6,253.5,95.7,1594.0,4970.0,6.0,
314507,7.4,253.5,95.7,1594.0,4970.0,6.0,
314607,2.5,253.5,95.7,1594.0,4970.0,6.0,
314807,3.2,242.0,91.8,1594.0,4970.0,6.0,
314907,3.5,200.3,97.7,1594.0,4970.0,6.0,
315007,3.2,163.0,99.6,1594.0,4970.0,6.0,
315107,3.1,129.1,91.8,1594.0,4970.0,6.0,
315207,2.1,104.2,87.9,1594.0,4970.0,6.0,
315307,3.3,73.9,85.9,1594.0,4970.0,6.0,
315407,125.1,55.1,95.7,1594.0,4970.0,6.0,
315507,232.9,137.8,72.3,1773.0,5239.0,6.0,
315607,220.5,170.3,72.3,1773.0,5239.0,6.0,
315807,112.2,204.3,95.7,1773.0,5239.0,6.0,
315907,115.8,216.3,97.7,1773.0,5239.0,6.0,
316007,85.1,228.8,97.7,1773.0,5239.0,6.0,
316107,8.8,228.8,97.7,1773.0,5239.0,6.0,
316207,3.7,228.8,97.7,1773.0,5239.0,6.0,
316307,4.0,228.8,97.7,1773.0,5239.0,6.0,
316407,3.4,222.1,97.7,1773.0,5239.0,6.0,
316507,3.7,182.7,82.0,1773.0,5239.0,6.0,
316607,3.3,152.9,80.1,1773.0,5239.0,6.0,
316807,3.5,103.1,97.7,1773.0,5239.0,6.0,
316907,5.5,74.8,99.6,1773.0,5239.0,6.0,
317007,188.7,5.4,70.3,1773.0,5239.0,6.0,
317107,221.8,143.1,70.3,1633.0,5378.0,7.0,
317207,179.1,181.1,68.4,1410.0,4527.0,6.0,
317307,197.3,202.7,70.3,1410.0,4527.0,6.0,
317407,171.8,216.7,95.7,1410.0,4527.0,6.0,
317507,140.7,229.3,95.7,1410.0,4527.0,6.0,
317607,108.9,243.0,95.7,1410.0,4527.0,6.0,
317807,3.2,243.2,95.7,1410.0,4527.0,6.0,
317907,3.1,243.2,93.8,1410.0,4527.0,6.0,
318007,3.2,243.2,89.8,1410.0,4527.0,6.0,
318107,3.4,196.7,82.0,1410.0,4527.0,6.0,
318207,2.8,162.4,84.0,1410.0,4527.0,6.0,
318307,3.9,134.5,74.2,1410.0,4527.0,6.0,
318407,3.7,110.5,68.4,1410.0,4527.0,6.0,
318507,3.8,81.2,68.4,1410.0,4527.0,6.0,
318607,131.4,12.4,68.4,1410.0,4527.0,6.0,
318807,183.1,156.6,70.3,1410.0,4527.0,6.0,
318907,138.0,183.9,91.8,1410.0,4527.0,6.0,
319007,167.0,199.8,95.7,1410.0,4527.0,6.0,
319107,180.6,214.3,97.7,1410.0,4527.0,6.0,
319207,166.6,229.2,97.7,1410.0,4527.0,6.0,
319307,13.7,234.3,97.7,1410.0,4527.0,6.0,
319407,3.4,234.3,97.7,1410.0,4527.0,6.0,
319507,2.5,234.3,97.7,1410.0,4527.0,6.0,
319607,2.2,234.2,95.7,1410.0,4527.0,6.0,
319807,2.4,174.4,68.4,1410.0,4527.0,6.0,
319907,2.4,145.2,68.4,1410.0,4527.0,6.0,
320007,2.5,122.5,76.2,1410.0,4527.0,6.0,
320107,3.7,94.8,99.6,1410.0,4527.0,6.0,
320207,4.3,49.0,95.7,1410.0,4527.0,6.0,
320307,263.5,132.1,70.3,1758.0,5804.0,7.0,
320407,264.5,176.9,68.4,1513.0,4675.0,6.0,
320507,194.8,203.9,70.3,1513.0,4675.0,6.0,
320607,141.7,223.4,95.7,1513.0,4675.0,6.0,
320807,168.0,247.9,95.7,1513.0,4675.0,6.0,
320907,16.7,251.7,95.7,1513.0,4675.0,6.0,
321007,3.5,251.7,95.7,1513.0,4675.0,6.0,
321107,2.8,251.7,93.8,1513.0,4675.0,6.0,
321207,3.2,251.7,85.9,1513.0,4675.0,6.0,
321307,3.2,214.2,78.1,1513.0,4675.0,6.0,
321407,3.2,179.0,84.0,1513.0,4675.0,6.0,
321507,3.7,147.6,84.0,1513.0,4675.0,6.0,
321607,3.1,116.0,95.7,1513.0,4675.0,6.0,
321807,5.3,43.6,99.6,1513.0,4675.0,6.0,
321907,235.4,120.6,68.4,1328.0,4889.0,7.0,
322007,182.6,173.6,66.4,1146.0,4170.0,6.0,
322107,214.3,200.0,66.4,1146.0,4170.0,6.0,
322207,169.0,214.7,95.7,1146.0,4170.0,6.0,
322307,140.6,228.2,95.7,1146.0,4170.0,6.0,
322407,122.5,244.0,97.7,1146.0,4170.0,6.0,
322507,25.5,249.3,97.7,1146.0,4170.0,6.0,
322607,5.2,249.3,97.7,1146.0,4170.0,6.0,
322807,2.9,249.3,97.7,1146.0,4170.0,6.0,
322907,3.0,218.2,95.7,1146.0,4170.0,6.0,
323007,2.7,178.9,101.6,1146.0,4170.0,6.0,
323107,3.1,148.8,99.6,1146.0,4170.0,6.0,
323207,3.5,126.7,99.6,1146.0,4170.0,6.0,
323307,3.0,100.4,99.6,1146.0,4170.0,6.0,
323407,3.1,51.0,80.1,1146.0,4170.0,6.0,
323507,310.7,104.0,74.2,1634.0,5218.0,7.0,
323607,229.0,165.3,72.3,1394.0,4491.0,6.0,
323807,156.7,217.1,95.7,1394.0,4491.0,6.0,
323907,186.4,229.5,95.7,1394.0,4491.0,6.0,
324007,166.2,242.1,97.7,1394.0,4491.0,6.0,
324107,29.1,250.1,97.7,1394.0,4491.0,6.0,
324207,5.9,250.1,95.7,1394.0,4491.0,6.0,
324307,2.8,250.1,95.7,1394.0,4491.0,6.0,
324407,3.0,250.1,91.8,1394.0,4491.0,6.0,
324507,2.9,227.5,85.9,1394.0,4491.0,6.0,
324607,3.2,187.7,95.7,1394.0,4491.0,6.0,
324807,2.9,124.1,101.6,1394.0,4491.0,6.0,
324907,5.3,99.3,89.8,1394.0,4491.0,6.0,
325007,4.5,62.6,68.4,1394.0,4491.0,6.0,
325107,226.2,99.8,68.4,1394.0,4491.0,6.0,
325207,286.9,158.1,66.4,1492.0,4870.0,6.0,
325307,223.0,190.9,66.4,1492.0,4870.0,6.0,
325407,147.6,214.1,66.4,1492.0,4870.0,6.0,
325507,122.7,228.0,66.4,1492.0,4870.0,6.0,
325607,169.9,239.9,95.7,1492.0,4870.0,6.0,
325807,4.3,247.5,95.7,1492.0,4870.0,6.0,
325907,3.2,247.5,95.7,1492.0,4870.0,6.0,
326007,3.2,247.5,95.7,1492.0,4870.0,6.0,
326107,2.8,226.5,93.8,1492.0,4870.0,6.0,
326207,3.4,190.5,103.5,1492.0,4870.0,6.0,
326307,3.1,157.5,91.8,1492.0,4870.0,6.0,
326407,3.4,124.2,93.8,1492.0,4870.0,6.0,
326507,2.7,96.4,80.1,1492.0,4870.0,6.0,
326607,3.4,61.0,74.2,1492.0,4870.0,6.0,
326807,169.5,153.4,72.3,1352.0,5011.0,7.0,
326907,229.8,186.4,76.2,1352.0,5011.0,7.0,
327007,183.4,204.9,95.7,1352.0,5011.0,7.0,
327107,148.6,220.3,95.7,1352.0,5011.0,7.0,
327207,120.0,236.7,97.7,1352.0,5011.0,7.0,
327307,45.5,245.5,97.7,1352.0,5011.0,7.0,
327407,5.8,245.5,97.7,1352.0,5011.0,7.0,
327507,3.8,245.5,97.7,1352.0,5011.0,7.0,
327607,3.4,245.5,97.7,1352.0,5011.0,7.0,
327807,3.3,191.6,95.7,1352.0,5011.0,7.0,
327907,3.6,159.8,97.7,1352.0,5011.0,7.0,
328007,3.1,135.2,101.6,1352.0,5011.0,7.0,
328107,2.9,108.3,101.6,1352.0,5011.0,7.0,
328207,10.1,65.0,85.9,1352.0,5011.0,7.0,
328307,270.8,68.8,74.2,1352.0,5011.0,7.0,
328407,223.9,138.0,68.4,1472.0,5017.0,6.0,
328507,167.4,171.6,68.4,1472.0,5017.0,6.0,
328607,136.6,189.1,68.4,1472.0,5017.0,6.0,
328807,128.3,208.4,95.7,1472.0,5017.0,6.0,
328907,50.1,217.8,95.7,1472.0,5017.0,6.0,
329007,8.0,217.8,95.7,1472.0,5017.0,6.0,
329107,3.9,217.8,95.7,1472.0,5017.0,6.0,
