Time(ms),Raw_ADC,ENV_Value,RMS,MDF,MW_Amp,MW_Area,MW_Latency,Marker
0,1860.7,25.8,0.0,0.0,0.0,0.0,0.0,
100,1865.7,22.5,0.0,0.0,0.0,0.0,0.0,
200,1863.0,29.3,0.0,0.0,0.0,0.0,0.0,
300,1861.1,24.5,0.0,0.0,0.0,0.0,0.0,
400,1862.3,22.2,0.0,0.0,0.0,0.0,0.0,
500,1863.0,24.6,0.0,119.1,0.0,0.0,0.0,
600,1861.5,49.1,0.0,119.1,0.0,0.0,0.0,
700,1858.0,50.8,0.0,97.7,0.0,0.0,0.0,
800,1858.9,54.5,0.0,68.4,0.0,0.0,0.0,
900,1859.8,62.6,52.6,66.4,0.0,0.0,0.0,
1000,1857.4,65.3,58.0,66.4,0.0,0.0,0.0,
1100,1859.6,79.6,65.6,82.0,0.0,0.0,0.0,
1200,1860.9,39.6,70.3,87.9,0.0,0.0,0.0,
1300,1859.8,42.6,72.6,78.1,0.0,0.0,0.0,
1400,1866.3,42.3,74.5,80.1,0.0,0.0,0.0,
1500,1859.5,41.0,75.2,80.1,0.0,0.0,0.0,
1600,1862.1,40.3,73.5,82.0,0.0,0.0,0.0,
1700,1864.0,48.6,71.7,91.8,0.0,0.0,0.0,
1900,1862.8,29.7,66.4,85.9,0.0,0.0,0.0,
2000,1864.2,36.8,62.2,99.6,0.0,0.0,0.0,
2100,1863.3,31.4,54.5,113.3,0.0,0.0,0.0,
2200,1864.9,65.7,52.4,119.1,0.0,0.0,0.0,
2300,1859.2,123.7,70.8,119.1,0.0,0.0,0.0,
2400,1861.1,115.3,90.0,119.1,0.0,0.0,0.0,
2500,1873.3,160.0,109.2,128.9,0.0,0.0,0.0,
2600,1853.8,155.8,126.8,128.9,0.0,0.0,0.0,
2700,1859.3,135.5,140.2,128.9,0.0,0.0,0.0,
2900,1861.9,33.6,147.8,130.9,0.0,0.0,0.0,
3000,1862.6,31.5,147.9,130.9,0.0,0.0,0.0,
3100,1864.9,31.0,148.0,130.9,0.0,0.0,0.0,
3200,1858.8,27.2,146.8,119.1,0.0,0.0,0.0,
3300,1862.8,28.5,137.8,117.2,0.0,0.0,0.0,
3400,1861.8,26.4,125.1,119.1,0.0,0.0,0.0,
3500,1861.3,32.8,108.3,119.1,0.0,0.0,0.0,
3600,1860.4,31.2,86.7,119.1,0.0,0.0,0.0,
3700,1864.0,27.5,61.7,119.1,0.0,0.0,0.0,
3900,1855.7,148.9,76.5,119.1,0.0,0.0,0.0,
4000,1859.2,136.6,96.3,121.1,0.0,0.0,0.0,
4100,1859.3,118.9,113.6,128.9,0.0,0.0,0.0,
4200,1863.0,107.2,129.4,128.9,0.0,0.0,0.0,
4300,1862.3,141.3,145.7,128.9,0.0,0.0,0.0,
4400,1860.7,44.3,154.0,128.9,0.0,0.0,0.0,
4500,1865.0,30.3,154.0,130.9,0.0,0.0,0.0,
4600,1860.9,30.8,153.9,130.9,0.0,0.0,0.0,
4700,1865.8,28.8,153.9,130.9,0.0,0.0,0.0,
4900,1862.9,24.6,138.9,119.1,0.0,0.0,0.0,
5000,1861.0,23.5,125.7,119.1,0.0,0.0,0.0,
5100,1861.4,24.3,110.0,107.4,0.0,0.0,0.0,
5200,1860.4,26.3,90.3,119.1,0.0,0.0,0.0,
5300,1860.2,25.1,60.3,119.1,0.0,0.0,0.0,
5400,1858.8,110.8,49.3,119.1,0.0,0.0,0.0,
5500,1863.1,106.6,78.1,121.1,0.0,0.0,0.0,
5600,1871.1,143.1,97.2,128.9,0.0,0.0,0.0,
5700,1857.2,140.2,114.0,128.9,0.0,0.0,0.0,
5900,1862.3,110.5,137.9,160.2,0.0,0.0,0.0,
6000,1862.3,49.6,149.2,160.2,0.0,0.0,0.0,
6100,1860.4,24.7,149.3,160.2,0.0,0.0,0.0,
6200,1862.7,28.1,149.4,152.3,0.0,0.0,0.0,
6300,1862.8,26.2,149.4,132.8,0.0,0.0,0.0,
6400,1861.4,25.6,145.1,121.1,0.0,0.0,0.0,
6500,1862.6,25.2,131.7,119.1,0.0,0.0,0.0,
6600,1857.2,29.0,118.2,119.1,0.0,0.0,0.0,
6700,1861.1,24.7,102.1,119.1,0.0,0.0,0.0,
6900,1864.0,34.6,67.5,119.1,0.0,0.0,0.0,
7000,1865.6,117.1,42.4,119.1,0.0,0.0,0.0,
7100,1851.7,126.4,66.1,107.4,0.0,0.0,0.0,
7200,1859.4,109.1,84.5,107.4,0.0,0.0,0.0,
7300,1864.0,103.7,100.4,128.9,0.0,0.0,0.0,
7400,1860.2,142.2,116.6,128.9,0.0,0.0,0.0,
7500,1864.4,139.0,129.6,128.9,0.0,0.0,0.0,
7600,1855.0,65.3,141.1,130.9,0.0,0.0,0.0,
7700,1861.7,30.6,141.2,130.9,0.0,0.0,0.0,
7900,1861.9,29.3,140.5,128.9,0.0,0.0,0.0,
8000,1859.0,27.2,138.7,121.1,0.0,0.0,0.0,
8100,1860.9,28.8,129.1,119.1,0.0,0.0,0.0,
8200,1861.6,28.4,117.9,119.1,0.0,0.0,0.0,
8300,1863.0,33.4,104.9,119.1,0.0,0.0,0.0,
8400,1859.8,25.6,86.6,119.1,0.0,0.0,0.0,
8500,1857.5,35.1,65.6,119.1,0.0,0.0,0.0,
8600,1863.7,79.4,35.8,119.1,0.0,0.0,0.0,
8700,1870.8,158.0,69.4,119.1,0.0,0.0,0.0,
8900,1850.5,136.8,112.8,128.9,0.0,0.0,0.0,
9000,1863.3,130.8,128.9,128.9,0.0,0.0,0.0,
9100,1865.0,146.8,144.9,128.9,0.0,0.0,0.0,
9200,1853.8,83.1,162.9,128.9,0.0,0.0,0.0,
9300,1860.2,37.7,163.3,128.9,0.0,0.0,0.0,
9400,1862.7,25.1,163.3,128.9,0.0,0.0,0.0,
9500,1859.5,22.9,163.3,128.9,0.0,0.0,0.0,
9600,1862.4,29.4,163.0,121.1,0.0,0.0,0.0,
9700,1862.2,29.7,151.8,121.1,0.0,0.0,0.0,
9900,1862.8,32.0,123.3,121.1,0.0,0.0,0.0,
10000,1860.1,33.6,106.5,119.1,0.0,0.0,0.0,
10100,1858.2,30.3,83.9,91.8,0.0,0.0,0.0,
10200,1862.6,106.6,39.2,107.4,0.0,0.0,0.0,
10300,1852.3,116.4,71.6,115.2,0.0,0.0,0.0,
10400,1856.3,118.8,94.3,121.1,0.0,0.0,0.0,
10500,1855.2,149.8,116.8,128.9,0.0,0.0,0.0,
10600,1855.5,147.7,132.3,128.9,0.0,0.0,0.0,
10700,1851.6,124.0,145.4,128.9,0.0,0.0,0.0,
10900,1858.2,32.2,161.0,128.9,0.0,0.0,0.0,
11000,1860.5,33.4,161.1,128.9,0.0,0.0,0.0,
11100,1859.3,28.4,160.8,128.9,0.0,0.0,0.0,
11200,1861.2,30.1,160.7,123.0,0.0,0.0,0.0,
11300,1863.0,24.9,148.6,119.1,0.0,0.0,0.0,
11400,1860.9,25.7,135.2,119.1,0.0,0.0,0.0,
11500,1863.0,24.4,116.3,121.1,0.0,0.0,0.0,
11600,1860.3,34.3,98.2,119.1,0.0,0.0,0.0,
11700,1861.1,24.5,77.6,119.1,0.0,0.0,0.0,
11900,1866.7,141.2,66.3,121.1,0.0,0.0,0.0,
12000,1852.3,139.6,88.1,128.9,0.0,0.0,0.0,
12100,1858.9,116.1,104.7,128.9,0.0,0.0,0.0,
12200,1864.5,141.9,120.1,128.9,0.0,0.0,0.0,
12300,1860.6,153.7,137.7,128.9,0.0,0.0,0.0,
12400,1859.5,144.2,150.8,128.9,0.0,0.0,0.0,
12500,1861.8,33.2,155.3,128.9,0.0,0.0,0.0,
12600,1859.2,29.8,155.4,128.9,0.0,0.0,0.0,
12700,1864.6,31.8,155.5,128.9,0.0,0.0,0.0,
12900,1859.7,34.8,144.8,119.1,0.0,0.0,0.0,
13000,1862.8,27.1,132.5,119.1,0.0,0.0,0.0,
13100,1859.3,26.7,119.9,119.1,0.0,0.0,0.0,
13200,1859.8,28.2,104.7,119.1,0.0,0.0,0.0,
13300,1861.0,32.5,80.3,119.1,0.0,0.0,0.0,
13400,1859.4,25.2,52.0,119.1,0.0,0.0,0.0,
13500,1867.9,132.1,64.0,119.1,0.0,0.0,0.0,
13600,1866.2,163.1,93.5,128.9,0.0,0.0,0.0,
13700,1868.4,155.1,113.3,130.9,0.0,0.0,0.0,
13900,1867.7,132.4,147.4,128.9,0.0,0.0,0.0,
14000,1883.8,166.8,162.7,128.9,0.0,0.0,0.0,
14100,1855.8,41.3,168.9,128.9,0.0,0.0,0.0,
14200,1862.5,33.9,168.9,130.9,0.0,0.0,0.0,
14300,1861.7,28.3,168.9,130.9,0.0,0.0,0.0,
14400,1863.5,26.4,168.9,127.0,0.0,0.0,0.0,
14500,1861.0,33.5,160.6,119.1,0.0,0.0,0.0,
14600,1862.2,30.4,145.3,119.1,0.0,0.0,0.0,
14700,1863.6,36.8,130.6,119.1,0.0,0.0,0.0,
14900,1859.8,34.0,91.3,119.1,0.0,0.0,0.0,
15000,1860.4,27.2,59.9,111.3,0.0,0.0,0.0,
15100,1848.1,138.3,68.5,107.4,0.0,0.0,0.0,
15200,1843.3,152.3,99.7,101.6,0.0,0.0,0.0,
15300,1844.1,184.6,127.5,128.9,0.0,0.0,0.0,
15400,1837.9,194.0,152.2,128.9,0.0,0.0,0.0,
15500,1842.6,168.5,171.1,128.9,0.0,0.0,0.0,
15600,1843.7,131.2,188.7,128.9,0.0,0.0,0.0,
15700,1855.6,57.6,198.8,128.9,0.0,0.0,0.0,
15900,1865.4,35.7,198.9,130.9,0.0,0.0,0.0,
16000,1862.7,29.8,199.0,128.9,0.0,0.0,0.0,
16100,1862.0,35.3,191.0,119.1,0.0,0.0,0.0,
16200,1863.8,29.9,176.6,119.1,0.0,0.0,0.0,
16300,1864.1,28.7,157.8,119.1,0.0,0.0,0.0,
16400,1865.5,26.6,134.0,119.1,0.0,0.0,0.0,
16500,1863.9,32.1,108.8,119.1,0.0,0.0,0.0,
16600,1863.3,35.7,74.6,119.1,0.0,0.0,0.0,
16700,1866.3,152.1,60.5,119.1,0.0,0.0,0.0,
16900,1863.1,135.3,111.4,130.9,0.0,0.0,0.0,
17000,1869.1,131.7,130.2,130.9,0.0,0.0,0.0,
17100,1874.4,163.8,147.0,130.9,0.0,0.0,0.0,
17200,1860.1,163.1,162.5,130.9,0.0,0.0,0.0,
17300,1856.0,50.1,171.4,130.9,0.0,0.0,0.0,
17400,1859.3,29.8,171.5,130.9,0.0,0.0,0.0,
17500,1862.4,32.3,171.6,130.9,0.0,0.0,0.0,
17600,1863.2,25.8,171.5,132.8,0.0,0.0,0.0,
17700,1862.3,23.6,165.0,121.1,0.0,0.0,0.0,
17900,1861.4,33.8,136.3,119.1,0.0,0.0,0.0,
18000,1861.7,23.0,118.5,93.8,0.0,0.0,0.0,
18100,1862.4,33.3,96.7,84.0,0.0,0.0,0.0,
18200,1867.5,39.7,67.8,103.5,0.0,0.0,0.0,
18300,1865.1,78.8,48.7,119.1,0.0,0.0,0.0,
18400,1857.5,84.9,60.5,109.4,0.0,0.0,0.0,
18500,1866.1,93.1,70.9,82.0,0.0,0.0,0.0,
18600,1851.4,99.5,80.4,64.5,0.0,0.0,0.0,
18700,1860.9,79.0,87.9,64.5,0.0,0.0,0.0,
18900,1867.4,51.0,100.5,66.4,0.0,0.0,0.0,
19000,1864.3,48.3,101.9,66.4,0.0,0.0,0.0,
19100,1863.4,35.6,102.5,76.2,0.0,0.0,0.0,
19200,1865.1,46.5,102.3,82.0,0.0,0.0,0.0,
19300,1861.6,36.5,99.1,91.8,0.0,0.0,0.0,
19400,1863.6,44.4,92.6,119.1,0.0,0.0,0.0,
19500,1863.0,30.9,85.1,115.2,0.0,0.0,0.0,
19600,1861.6,35.1,76.4,93.8,0.0,0.0,0.0,
19700,1863.3,41.0,68.5,99.6,0.0,0.0,0.0,
19900,1869.3,82.0,50.1,119.1,0.0,0.0,0.0,
20000,1860.7,89.1,58.8,119.1,0.0,0.0,0.0,
20100,1870.0,88.3,69.1,99.6,0.0,0.0,0.0,
20200,1865.5,77.1,77.0,95.7,0.0,0.0,0.0,
20300,1875.7,101.5,86.2,66.4,0.0,0.0,0.0,
20400,1857.2,94.1,93.4,66.4,0.0,0.0,0.0,
20500,1863.6,46.1,99.3,95.7,0.0,0.0,0.0,
20600,1862.5,35.3,99.3,95.7,0.0,0.0,0.0,
20700,1865.4,30.4,99.1,89.8,0.0,0.0,0.0,
20900,1863.9,29.3,97.3,119.1,0.0,0.0,0.0,
21000,1863.5,26.0,90.4,119.1,0.0,0.0,0.0,
21100,1862.0,36.0,82.3,119.1,0.0,0.0,0.0,
21200,1861.2,56.3,75.3,119.1,0.0,0.0,0.0,
21300,1859.4,46.5,66.1,119.1,0.0,0.0,0.0,
21400,1861.7,39.2,58.2,117.2,0.0,0.0,0.0,
21500,1862.0,50.7,48.7,93.8,0.0,0.0,0.0,
21600,1862.6,81.3,54.6,93.8,0.0,0.0,0.0,
21700,1862.0,73.7,60.8,103.5,0.0,0.0,0.0,
21900,1868.9,65.8,70.9,105.5,0.0,0.0,0.0,
22000,1863.8,79.0,77.8,97.7,0.0,0.0,0.0,
22100,1865.5,54.3,82.9,97.7,0.0,0.0,0.0,
22200,1860.9,39.9,82.5,97.7,0.0,0.0,0.0,
22300,1865.4,39.6,81.1,97.7,0.0,0.0,0.0,
22400,1865.5,36.1,79.2,119.1,0.0,0.0,0.0,
22500,1866.1,31.5,78.7,119.1,0.0,0.0,0.0,
22600,1862.0,29.6,74.8,119.1,0.0,0.0,0.0,
22700,1862.2,26.9,69.8,119.1,0.0,0.0,0.0,
22900,1861.4,25.1,59.1,119.1,0.0,0.0,0.0,
23000,1861.6,30.3,49.6,119.1,0.0,0.0,0.0,
23100,1860.5,39.7,40.3,119.1,0.0,0.0,0.0,
23200,1875.0,69.9,51.8,119.1,0.0,0.0,0.0,
23300,1863.5,65.2,59.7,121.1,0.0,0.0,0.0,
23400,1866.8,78.2,66.8,121.1,0.0,0.0,0.0,
23500,1861.7,76.9,73.2,130.9,0.0,0.0,0.0,
23600,1864.5,78.6,79.9,128.9,0.0,0.0,0.0,
23700,1875.3,68.7,86.8,127.0,0.0,0.0,0.0,
23900,1863.2,33.7,88.2,119.1,0.0,0.0,0.0,
24000,1861.2,32.7,88.4,119.1,0.0,0.0,0.0,
24100,1863.4,33.5,88.5,119.1,0.0,0.0,0.0,
24200,1862.2,30.0,82.3,119.1,0.0,0.0,0.0,
24300,1862.1,33.9,77.0,119.1,0.0,0.0,0.0,
24400,1862.5,32.3,70.6,119.1,0.0,0.0,0.0,
24500,1864.1,31.2,63.4,119.1,0.0,0.0,0.0,
24600,1860.8,48.5,55.6,119.1,0.0,0.0,0.0,
24700,1863.0,91.0,48.6,119.1,0.0,0.0,0.0,
24900,1852.7,118.9,73.8,93.8,0.0,0.0,0.0,
25000,1847.6,99.4,89.4,97.7,0.0,0.0,0.0,
25100,1851.0,114.3,103.3,97.7,0.0,0.0,0.0,
25200,1843.3,104.0,111.7,95.7,0.0,0.0,0.0,
25300,1849.3,130.2,122.3,95.7,0.0,0.0,0.0,
25400,1864.7,77.6,128.0,97.7,0.0,0.0,0.0,
25500,1858.9,44.9,129.1,97.7,0.0,0.0,0.0,
25600,1862.4,56.3,130.0,89.8,0.0,0.0,0.0,
25700,1861.2,48.1,130.3,85.9,0.0,0.0,0.0,
25900,1860.9,71.7,121.7,95.7,0.0,0.0,0.0,
26000,1860.8,37.6,112.7,87.9,0.0,0.0,0.0,
26100,1862.0,42.3,100.1,80.1,0.0,0.0,0.0,
26200,1858.6,44.7,91.4,78.1,0.0,0.0,0.0,
26300,1864.5,48.5,76.7,78.1,0.0,0.0,0.0,
26400,1864.8,58.1,70.9,93.8,0.0,0.0,0.0,
26500,1871.7,82.6,74.2,119.1,0.0,0.0,0.0,
26600,1859.2,89.3,78.9,121.1,0.0,0.0,0.0,
26700,1869.3,73.4,81.9,121.1,0.0,0.0,0.0,
26900,1871.0,85.6,85.5,111.3,0.0,0.0,0.0,
27000,1858.1,35.9,85.3,119.1,0.0,0.0,0.0,
27100,1864.2,30.4,85.3,119.1,0.0,0.0,0.0,
27200,1863.3,37.8,84.4,119.1,0.0,0.0,0.0,
27300,1863.2,33.3,84.1,119.1,0.0,0.0,0.0,
27400,1860.5,26.3,80.5,119.1,0.0,0.0,0.0,
27500,1859.8,35.3,75.8,119.1,0.0,0.0,0.0,
27600,1864.8,48.0,68.7,119.1,0.0,0.0,0.0,
27700,1862.8,55.6,62.5,119.1,0.0,0.0,0.0,
27900,1861.7,80.7,54.5,113.3,0.0,0.0,0.0,
28000,1857.8,79.0,64.9,84.0,0.0,0.0,0.0,
28100,1866.4,58.6,71.3,76.2,0.0,0.0,0.0,
28200,1864.1,83.2,78.4,78.1,0.0,0.0,0.0,
28300,1859.1,82.7,86.4,109.4,0.0,0.0,0.0,
28400,1862.7,70.9,92.5,119.1,0.0,0.0,0.0,
28500,1869.8,85.2,99.1,119.1,0.0,0.0,0.0,
28600,1860.3,39.1,100.8,119.1,0.0,0.0,0.0,
28700,1859.5,48.2,101.5,119.1,0.0,0.0,0.0,
28900,1863.8,43.2,98.7,117.2,0.0,0.0,0.0,
29000,1866.7,52.0,90.8,117.2,0.0,0.0,0.0,
29100,1856.9,46.3,87.6,119.1,0.0,0.0,0.0,
29200,1858.3,35.1,82.2,107.4,0.0,0.0,0.0,
29300,1862.7,40.5,74.2,93.8,0.0,0.0,0.0,
29400,1859.0,33.2,66.8,93.8,0.0,0.0,0.0,
29500,1862.1,29.1,57.2,111.3,0.0,0.0,0.0,
29600,1860.5,44.5,55.5,119.1,0.0,0.0,0.0,
29700,1852.3,63.5,58.1,119.1,0.0,0.0,0.0,
29900,1851.9,82.6,65.3,121.1,0.0,0.0,0.0,
30000,1858.3,84.3,71.9,121.1,0.0,0.0,0.0,
30100,1851.3,69.4,74.5,121.1,0.0,0.0,0.0,
30200,1858.2,47.9,76.3,119.1,0.0,0.0,0.0,
30300,1860.8,38.8,76.7,119.1,0.0,0.0,0.0,
30400,1862.2,42.4,76.5,119.1,0.0,0.0,0.0,
30500,1862.7,38.9,76.9,119.1,0.0,0.0,0.0,
30600,1865.0,39.1,75.9,119.1,0.0,0.0,0.0,
30700,1860.1,29.5,72.1,117.2,0.0,0.0,0.0,
30900,1862.3,36.0,64.5,119.1,0.0,0.0,0.0,
31000,1859.3,46.5,56.8,119.1,0.0,0.0,0.0,
31100,1860.0,31.5,51.4,119.1,0.0,0.0,0.0,
31200,1866.7,54.5,51.7,119.1,0.0,0.0,0.0,
31300,1866.5,65.7,56.4,119.1,0.0,0.0,0.0,
31400,1865.2,71.6,62.8,121.1,0.0,0.0,0.0,
31500,1865.9,61.3,68.2,121.1,0.0,0.0,0.0,
31600,1872.0,65.0,75.3,121.1,0.0,0.0,0.0,
31700,1863.8,68.9,79.8,121.1,0.0,0.0,0.0,
31900,1860.8,36.6,82.6,121.1,0.0,0.0,0.0,
32000,1860.4,40.6,82.7,121.1,0.0,0.0,0.0,
32100,1859.9,33.6,82.4,119.1,0.0,0.0,0.0,
32200,1860.1,31.5,80.1,119.1,0.0,0.0,0.0,
32300,1859.6,35.2,75.6,111.3,0.0,0.0,0.0,
32400,1859.5,36.5,70.7,119.1,0.0,0.0,0.0,
32500,1858.4,39.8,64.4,119.1,0.0,0.0,0.0,
32600,1863.0,48.1,56.4,119.1,0.0,0.0,0.0,
32700,1858.7,33.5,50.8,119.1,0.0,0.0,0.0,
32900,1866.0,68.4,55.4,119.1,0.0,0.0,0.0,
33000,1864.3,81.6,61.9,121.1,0.0,0.0,0.0,
33100,1869.4,76.0,71.5,128.9,0.0,0.0,0.0,
33200,1858.3,80.1,78.5,119.1,0.0,0.0,0.0,
33300,1865.3,77.2,84.2,119.1,0.0,0.0,0.0,
33400,1865.6,54.3,88.4,119.1,0.0,0.0,0.0,
33500,1860.7,42.2,89.4,119.1,0.0,0.0,0.0,
33600,1863.5,42.5,89.6,119.1,0.0,0.0,0.0,
33700,1862.4,35.3,89.3,119.1,0.0,0.0,0.0,
33900,1861.2,31.0,83.2,119.1,0.0,0.0,0.0,
34000,1857.8,40.2,78.0,119.1,0.0,0.0,0.0,
34100,1861.2,42.4,69.1,119.1,0.0,0.0,0.0,
34200,1860.4,48.1,61.6,119.1,0.0,0.0,0.0,
34300,1861.6,43.3,55.1,119.1,0.0,0.0,0.0,
34400,1856.7,64.5,51.0,119.1,0.0,0.0,0.0,
34500,1844.9,94.4,61.0,119.1,0.0,0.0,0.0,
34600,1844.7,97.1,74.1,134.8,0.0,0.0,0.0,
34700,1842.4,106.3,89.5,164.1,0.0,0.0,0.0,
34900,1844.1,99.8,111.0,130.9,0.0,0.0,0.0,
35000,1845.8,61.8,119.7,128.9,0.0,0.0,0.0,
35100,1862.7,47.1,119.7,160.2,0.0,0.0,0.0,
35200,1863.0,44.7,119.8,150.4,0.0,0.0,0.0,
35300,1861.6,37.9,119.8,125.0,0.0,0.0,0.0,
35400,1864.2,40.3,118.7,119.1,0.0,0.0,0.0,
35500,1858.6,37.6,113.4,119.1,0.0,0.0,0.0,
35600,1859.2,32.0,104.9,119.1,0.0,0.0,0.0,
35700,1863.0,34.6,91.8,119.1,0.0,0.0,0.0,
35900,1857.0,38.6,64.5,119.1,0.0,0.0,0.0,
36000,1864.1,49.9,48.1,119.1,0.0,0.0,0.0,
36100,1865.6,74.5,52.5,119.1,0.0,0.0,0.0,
36200,1868.4,75.7,62.2,119.1,0.0,0.0,0.0,
36300,1857.7,93.5,70.6,99.6,0.0,0.0,0.0,
36400,1870.4,85.2,76.1,97.7,0.0,0.0,0.0,
36500,1865.0,79.8,81.4,97.7,0.0,0.0,0.0,
36600,1870.4,76.2,88.2,97.7,0.0,0.0,0.0,
36700,1852.7,49.3,90.3,97.7,0.0,0.0,0.0,
36900,1865.6,46.7,90.9,119.1,0.0,0.0,0.0,
37000,1861.5,37.1,90.5,119.1,0.0,0.0,0.0,
37100,1858.9,43.3,87.7,119.1,0.0,0.0,0.0,
37200,1862.2,44.7,81.8,119.1,0.0,0.0,0.0,
37300,1861.2,52.9,74.7,119.1,0.0,0.0,0.0,
37400,1857.3,42.1,69.4,119.1,0.0,0.0,0.0,
37500,1860.2,42.4,63.8,119.1,0.0,0.0,0.0,
37600,1858.1,48.7,54.7,119.1,0.0,0.0,0.0,
37700,1869.6,90.8,59.5,119.1,0.0,0.0,0.0,
37900,1868.0,106.5,81.0,119.1,0.0,0.0,0.0,
38000,1864.3,113.2,89.6,97.7,0.0,0.0,0.0,
38100,1865.5,87.6,97.2,97.7,0.0,0.0,0.0,
38200,1871.4,78.0,103.6,97.7,0.0,0.0,0.0,
38300,1859.7,39.7,104.0,97.7,0.0,0.0,0.0,
38400,1861.8,35.6,103.4,97.7,0.0,0.0,0.0,
38500,1860.4,36.1,102.8,117.2,0.0,0.0,0.0,
38600,1857.4,28.4,102.3,119.1,0.0,0.0,0.0,
38700,1861.5,33.6,97.3,121.1,0.0,0.0,0.0,
38900,1855.3,30.4,79.2,119.1,0.0,0.0,0.0,
39000,1861.1,27.9,68.3,119.1,0.0,0.0,0.0,
39100,1856.6,28.1,56.5,119.1,0.0,0.0,0.0,
39200,1857.3,49.4,40.6,119.1,0.0,0.0,0.0,
39300,1856.0,104.5,50.6,119.1,0.0,0.0,0.0,
39400,1839.4,122.6,69.2,119.1,0.0,0.0,0.0,
39500,1856.3,104.4,82.4,97.7,0.0,0.0,0.0,
39600,1851.6,96.1,92.7,95.7,0.0,0.0,0.0,
39700,1861.4,97.5,101.2,89.8,0.0,0.0,0.0,
39900,1859.3,38.7,112.0,66.4,0.0,0.0,0.0,
40000,1859.2,39.7,112.5,68.4,0.0,0.0,0.0,
40100,1858.3,38.9,112.8,70.3,0.0,0.0,0.0,
40200,1857.0,35.6,113.1,117.2,0.0,0.0,0.0,
40300,1857.6,34.1,107.9,119.1,0.0,0.0,0.0,
40400,1861.8,34.7,97.1,119.1,0.0,0.0,0.0,
40500,1855.5,38.6,86.2,119.1,0.0,0.0,0.0,
40600,1857.6,39.8,75.7,119.1,0.0,0.0,0.0,
40700,1861.7,40.3,64.5,119.1,0.0,0.0,0.0,
40900,1865.9,93.4,55.5,119.1,0.0,0.0,0.0,
41000,1867.8,76.3,65.3,64.5,0.0,0.0,0.0,
41100,1850.7,99.3,73.9,43.0,0.0,0.0,0.0,
41200,1857.2,99.1,82.0,39.1,0.0,0.0,0.0,
41300,1863.6,97.9,91.3,64.5,0.0,0.0,0.0,
41400,1858.8,120.5,103.1,66.4,0.0,0.0,0.0,
41500,1861.5,40.0,108.7,64.5,0.0,0.0,0.0,
41600,1863.3,33.5,108.2,64.5,0.0,0.0,0.0,
41700,1858.2,43.5,108.2,66.4,0.0,0.0,0.0,
41900,1858.6,40.3,104.2,119.1,0.0,0.0,0.0,
42000,1860.9,39.1,97.9,119.1,0.0,0.0,0.0,
42100,1862.5,48.6,91.7,119.1,0.0,0.0,0.0,
42200,1868.9,49.3,86.4,119.1,0.0,0.0,0.0,
42300,1869.0,72.3,78.3,119.1,0.0,0.0,0.0,
42400,1858.9,49.0,65.9,109.4,0.0,0.0,0.0,
42500,1855.2,68.0,60.6,99.6,0.0,0.0,0.0,
42600,1859.8,74.7,68.2,99.6,0.0,0.0,0.0,
42700,1869.3,76.6,75.5,99.6,0.0,0.0,0.0,
42900,1850.4,106.7,87.6,97.7,0.0,0.0,0.0,
43000,1861.2,105.3,95.3,97.7,0.0,0.0,0.0,
43100,1868.1,57.4,104.2,103.5,0.0,0.0,0.0,
43200,1858.3,41.9,103.3,97.7,0.0,0.0,0.0,
43300,1859.3,35.4,102.4,97.7,0.0,0.0,0.0,
43400,1857.9,36.5,100.6,109.4,0.0,0.0,0.0,
43500,1858.8,35.2,97.9,119.1,0.0,0.0,0.0,
43600,1859.4,37.4,93.3,119.1,0.0,0.0,0.0,
43700,1860.7,42.2,87.9,119.1,0.0,0.0,0.0,
43900,1860.0,35.5,74.8,119.1,0.0,0.0,0.0,
44000,1863.8,44.7,66.0,119.1,0.0,0.0,0.0,
44100,1861.9,71.3,53.4,119.1,0.0,0.0,0.0,
44200,1852.0,109.4,63.6,119.1,0.0,0.0,0.0,
44300,1847.3,88.0,72.5,119.1,0.0,0.0,0.0,
44400,1850.8,85.3,79.2,111.3,0.0,0.0,0.0,
44500,1856.8,84.8,85.6,119.1,0.0,0.0,0.0,
44600,1856.9,97.9,91.3,119.1,0.0,0.0,0.0,
44700,1852.1,48.6,95.9,121.1,0.0,0.0,0.0,
44900,1864.1,35.6,95.9,121.1,0.0,0.0,0.0,
45000,1862.8,38.6,95.2,119.1,0.0,0.0,0.0,
45100,1859.4,40.7,94.4,119.1,0.0,0.0,0.0,
45200,1861.8,45.5,87.1,119.1,0.0,0.0,0.0,
45300,1859.4,46.5,80.3,119.1,0.0,0.0,0.0,
45400,1859.9,41.5,73.0,119.1,0.0,0.0,0.0,
45500,1861.2,52.3,66.3,119.1,0.0,0.0,0.0,
45600,1859.3,48.1,59.7,119.1,0.0,0.0,0.0,
45700,1867.3,83.9,58.0,119.1,0.0,0.0,0.0,
45900,1877.4,108.7,79.1,119.1,0.0,0.0,0.0,
46000,1859.8,88.0,89.6,97.7,0.0,0.0,0.0,
46100,1868.6,93.0,96.1,97.7,0.0,0.0,0.0,
46200,1876.3,83.6,104.1,97.7,0.0,0.0,0.0,
46300,1866.7,68.6,109.6,97.7,0.0,0.0,0.0,
46400,1859.4,51.3,110.5,97.7,0.0,0.0,0.0,
46500,1863.3,49.0,110.9,95.7,0.0,0.0,0.0,
46600,1865.6,53.4,111.0,99.6,0.0,0.0,0.0,
46700,1856.6,53.8,109.0,119.1,0.0,0.0,0.0,
46900,1860.6,37.5,95.1,119.1,0.0,0.0,0.0,
47000,1860.1,47.6,85.7,119.1,0.0,0.0,0.0,
47100,1859.6,46.9,78.6,119.1,0.0,0.0,0.0,
47200,1861.0,48.9,68.3,119.1,0.0,0.0,0.0,
47300,1853.6,78.3,62.4,119.1,0.0,0.0,0.0,
47400,1846.3,79.9,72.1,119.1,0.0,0.0,0.0,
47500,1842.8,89.2,80.5,121.1,0.0,0.0,0.0,
47600,1847.6,93.5,88.8,162.1,0.0,0.0,0.0,
47700,1851.3,110.1,96.6,162.1,0.0,0.0,0.0,
47900,1835.6,58.9,110.8,162.1,0.0,0.0,0.0,
48000,1846.7,110.0,113.3,162.1,0.0,0.0,0.0,
48100,1708.6,235.4,167.4,130.9,1400.0,8679.0,26.0,
48200,1961.6,66.4,172.2,54.7,1400.0,8679.0,26.0,
48300,1877.1,47.0,171.0,33.2,1400.0,8679.0,26.0,
48400,1865.7,43.1,166.7,33.2,1400.0,8679.0,26.0,
48500,1879.1,38.1,162.5,52.7,1400.0,8679.0,26.0,
48600,1890.9,52.8,157.7,119.1,1400.0,8679.0,26.0,
48700,1834.6,42.4,152.6,119.1,1400.0,8679.0,26.0,
48900,1850.8,75.1,142.7,119.1,1400.0,8679.0,26.0,
49000,1847.5,123.1,145.2,119.1,1400.0,8679.0,26.0,
49100,1852.7,91.0,88.1,119.1,1400.0,8679.0,26.0,
49200,1876.3,74.9,83.8,87.9,1400.0,8679.0,26.0,
49300,1873.0,71.2,89.9,82.0,1400.0,8679.0,26.0,
49400,1868.0,76.3,94.5,97.7,1400.0,8679.0,26.0,
49500,1865.3,54.4,99.3,101.6,1400.0,8679.0,26.0,
49600,1843.7,28.6,98.2,97.7,1400.0,8679.0,26.0,
49700,1868.7,22.8,97.3,117.2,1400.0,8679.0,26.0,
49900,1866.2,25.4,95.0,119.1,1400.0,8679.0,26.0,
50000,1863.8,25.1,86.7,119.1,1400.0,8679.0,26.0,
50100,1854.5,21.8,73.5,111.3,1400.0,8679.0,26.0,
50200,1863.8,21.3,65.5,93.8,1400.0,8679.0,26.0,
50300,1857.2,25.0,55.0,93.8,1400.0,8679.0,26.0,
50400,1858.8,24.5,44.5,107.4,1400.0,8679.0,26.0,
50500,1859.6,35.6,29.5,95.7,1400.0,8679.0,26.0,
50600,1872.0,64.4,38.4,97.7,1400.0,8679.0,26.0,
50700,1859.3,87.4,51.3,121.1,1400.0,8679.0,26.0,
50900,1851.3,79.3,71.0,97.7,1400.0,8679.0,26.0,
51000,1859.8,64.7,75.9,97.7,1400.0,8679.0,26.0,
51100,1857.0,51.8,80.2,97.7,1400.0,8679.0,26.0,
51200,1854.5,25.8,81.4,97.7,1400.0,8679.0,26.0,
51300,1860.3,23.9,81.6,95.7,1400.0,8679.0,26.0,
51400,1855.7,30.4,81.7,78.1,1400.0,8679.0,26.0,
51500,1858.6,41.0,82.2,84.0,1400.0,8679.0,26.0,
51600,1867.5,42.5,78.8,87.9,1400.0,8679.0,26.0,
51700,1869.3,33.2,71.8,91.8,1400.0,8679.0,26.0,
51900,1863.1,43.6,55.5,111.3,1400.0,8679.0,26.0,
52000,1864.3,35.1,49.9,113.3,1400.0,8679.0,26.0,
52100,1862.1,73.0,43.5,99.6,1400.0,8679.0,26.0,
52200,1856.0,108.2,56.0,93.8,1400.0,8679.0,26.0,
52300,1860.2,107.0,69.9,99.6,1400.0,8679.0,26.0,
52400,1872.3,120.3,86.1,97.7,1400.0,8679.0,26.0,
52500,1858.7,143.1,101.4,97.7,1400.0,8679.0,26.0,
52600,1853.7,122.1,112.5,97.7,1400.0,8679.0,26.0,
52700,1859.5,101.0,121.4,97.7,1400.0,8679.0,26.0,
52900,1868.2,28.1,122.6,97.7,1400.0,8679.0,26.0,
53000,1863.3,28.6,122.5,97.7,1400.0,8679.0,26.0,
53100,1865.9,28.4,122.4,99.6,1400.0,8679.0,26.0,
53200,1860.9,23.1,116.5,101.6,1400.0,8679.0,26.0,
53300,1864.5,20.1,108.5,99.6,1400.0,8679.0,26.0,
53400,1864.7,27.9,96.3,99.6,1400.0,8679.0,26.0,
53500,1860.9,23.9,79.8,97.7,1400.0,8679.0,26.0,
53600,1864.7,18.9,62.3,101.6,1400.0,8679.0,26.0,
53700,1858.6,42.6,41.2,105.5,1400.0,8679.0,26.0,
53900,1865.5,100.1,61.4,105.5,1400.0,8679.0,26.0,
54000,1862.8,77.0,70.3,97.7,1400.0,8679.0,26.0,
54100,1871.7,83.9,77.8,97.7,1400.0,8679.0,26.0,
54200,1868.6,77.0,84.6,97.7,1400.0,8679.0,26.0,
54300,1868.3,91.5,91.7,97.7,1400.0,8679.0,26.0,
54400,1856.0,26.2,94.5,97.7,1400.0,8679.0,26.0,
54500,1861.8,23.5,94.2,97.7,1400.0,8679.0,26.0,
54600,1862.9,25.6,94.2,97.7,1400.0,8679.0,26.0,
54700,1864.5,21.9,94.1,105.5,1400.0,8679.0,26.0,
54900,1862.1,22.7,78.6,119.1,1400.0,8679.0,26.0,
55000,1863.0,25.9,70.2,121.1,1400.0,8679.0,26.0,
55100,1861.7,20.7,61.2,119.1,1400.0,8679.0,26.0,
55200,1861.0,20.1,51.0,119.1,1400.0,8679.0,26.0,
55300,1859.8,21.3,36.3,119.1,1400.0,8679.0,26.0,
55400,1856.7,84.0,39.7,119.1,1400.0,8679.0,26.0,
55500,1860.3,85.6,53.0,107.4,1400.0,8679.0,26.0,
55600,1858.0,90.3,63.6,99.6,1400.0,8679.0,26.0,
55700,1847.3,90.5,72.6,97.7,1400.0,8679.0,26.0,
55900,1856.8,81.1,86.4,97.7,1400.0,8679.0,26.0,
56000,1860.2,25.7,89.3,97.7,1400.0,8679.0,26.0,
56100,1862.9,21.1,89.4,97.7,1400.0,8679.0,26.0,
56200,1861.9,24.6,89.4,97.7,1400.0,8679.0,26.0,
56300,1862.2,18.6,89.5,101.6,1400.0,8679.0,26.0,
56400,1860.3,21.3,84.9,119.1,1400.0,8679.0,26.0,
56500,1861.7,26.8,77.3,119.1,1400.0,8679.0,26.0,
56600,1860.5,24.7,68.9,119.1,1400.0,8679.0,26.0,
56700,1859.2,20.6,59.3,119.1,1400.0,8679.0,26.0,
56900,1860.1,20.2,35.9,119.1,1400.0,8679.0,26.0,
57000,1865.1,82.7,36.1,119.1,1400.0,8679.0,26.0,
57100,1858.9,74.1,47.9,119.1,1400.0,8679.0,26.0,
57200,1866.4,75.4,57.6,97.7,1400.0,8679.0,26.0,
57300,1864.9,69.7,65.3,97.7,1400.0,8679.0,26.0,
57400,1864.0,78.6,72.5,95.7,1400.0,8679.0,26.0,
57500,1855.3,81.8,79.2,95.7,1400.0,8679.0,26.0,
57600,1863.2,25.8,82.8,95.7,1400.0,8679.0,26.0,
57700,1859.9,21.7,82.6,95.7,1400.0,8679.0,26.0,
57900,1860.1,23.1,82.8,95.7,1400.0,8679.0,26.0,
58000,1862.2,24.9,79.4,119.1,1400.0,8679.0,26.0,
58100,1860.6,23.5,73.3,119.1,1400.0,8679.0,26.0,
58200,1861.5,20.7,65.9,119.1,1400.0,8679.0,26.0,
58300,1858.4,20.6,58.1,119.1,1400.0,8679.0,26.0,
58400,1861.8,17.4,48.9,119.1,1400.0,8679.0,26.0,
58500,1861.0,24.4,36.9,119.1,1400.0,8679.0,26.0,
58600,1865.6,79.3,36.0,119.1,1400.0,8679.0,26.0,
58700,1863.5,88.6,50.4,119.1,1400.0,8679.0,26.0,
58900,1861.2,85.9,69.6,97.7,1400.0,8679.0,26.0,
59000,1866.2,78.5,78.1,95.7,1400.0,8679.0,26.0,
59100,1867.3,84.5,84.4,95.7,1400.0,8679.0,26.0,
59200,1861.3,35.4,90.6,76.2,1400.0,8679.0,26.0,
59300,1861.8,29.8,90.8,66.4,1400.0,8679.0,26.0,
59400,1861.8,26.6,91.0,66.4,1400.0,8679.0,26.0,
59500,1861.6,27.9,91.2,87.9,1400.0,8679.0,26.0,
59600,1860.3,28.6,88.7,119.1,1400.0,8679.0,26.0,
59700,1859.0,42.0,81.9,119.1,1400.0,8679.0,26.0,
59900,1859.2,34.3,68.4,89.8,1400.0,8679.0,26.0,
60000,1861.6,33.0,59.3,82.0,1400.0,8679.0,26.0,
60100,1860.8,36.8,51.3,80.1,1400.0,8679.0,26.0,
60200,1854.1,78.0,43.0,84.0,1400.0,8679.0,26.0,
60300,1856.0,90.3,55.2,91.8,1400.0,8679.0,26.0,
60400,1855.7,96.5,66.9,97.7,1400.0,8679.0,26.0,
60500,1858.4,94.6,77.1,97.7,1400.0,8679.0,26.0,
60600,1843.3,84.5,84.7,95.7,1400.0,8679.0,26.0,
60700,1851.8,82.9,90.5,95.7,1400.0,8679.0,26.0,
60900,1864.5,24.7,94.7,95.7,1400.0,8679.0,26.0,
61000,1861.6,27.3,94.4,95.7,1400.0,8679.0,26.0,
61100,1861.7,28.4,93.5,95.7,1400.0,8679.0,26.0,
61200,1862.0,28.2,92.5,119.1,1400.0,8679.0,26.0,
61300,1860.3,30.3,85.8,119.1,1400.0,8679.0,26.0,
61400,1860.5,25.3,77.3,119.1,1400.0,8679.0,26.0,
61500,1862.9,34.9,67.2,119.1,1400.0,8679.0,26.0,
61600,1863.0,35.1,57.8,119.1,1400.0,8679.0,26.0,
61700,1860.0,28.9,48.8,119.1,1400.0,8679.0,26.0,
61900,1857.0,84.4,50.5,119.1,1400.0,8679.0,26.0,
62000,1861.7,78.0,59.6,97.7,1400.0,8679.0,26.0,
62100,1856.2,73.6,67.8,87.9,1400.0,8679.0,26.0,
62200,1863.4,97.7,74.7,66.4,1400.0,8679.0,26.0,
62300,1861.6,116.4,83.1,64.5,1400.0,8679.0,26.0,
62400,1855.3,48.6,89.9,64.5,1400.0,8679.0,26.0,
62500,1863.1,34.5,90.0,64.5,1400.0,8679.0,26.0,
62600,1859.7,37.0,90.2,64.5,1400.0,8679.0,26.0,
62700,1861.0,25.0,90.2,64.5,1400.0,8679.0,26.0,
62900,1859.3,27.0,83.6,99.6,1400.0,8679.0,26.0,
63000,1861.7,30.4,77.4,103.5,1400.0,8679.0,26.0,
63100,1859.8,30.6,70.6,119.1,1400.0,8679.0,26.0,
63200,1856.6,33.0,62.7,119.1,1400.0,8679.0,26.0,
63300,1859.3,32.9,51.9,119.1,1400.0,8679.0,26.0,
63400,1861.3,55.2,38.9,119.1,1400.0,8679.0,26.0,
63500,1859.3,73.6,47.5,119.1,1400.0,8679.0,26.0,
63600,1867.0,94.8,57.4,99.6,1400.0,8679.0,26.0,
63700,1852.8,93.2,66.9,95.7,1400.0,8679.0,26.0,
63900,1856.8,73.1,83.0,64.5,1400.0,8679.0,26.0,
64000,1870.5,67.4,91.4,64.5,1400.0,8679.0,26.0,
64100,1854.0,25.3,92.4,64.5,1400.0,8679.0,26.0,
64200,1863.0,23.3,92.5,64.5,1400.0,8679.0,26.0,
64300,1859.8,36.9,92.2,62.5,1400.0,8679.0,26.0,
64400,1861.0,26.3,92.2,78.1,1400.0,8679.0,26.0,
64500,1859.7,26.2,87.8,119.1,1400.0,8679.0,26.0,
64600,1860.9,26.5,81.0,119.1,1400.0,8679.0,26.0,
64700,1862.4,24.1,73.0,119.1,1400.0,8679.0,26.0,
64900,1861.7,29.8,54.0,119.1,1400.0,8679.0,26.0,
65000,1861.5,69.3,38.3,119.1,1400.0,8679.0,26.0,
65100,1862.3,91.5,55.3,101.6,1400.0,8679.0,26.0,
65200,1858.3,82.5,64.3,66.4,1400.0,8679.0,26.0,
65300,1875.5,108.4,75.7,64.5,1400.0,8679.0,26.0,
65400,1861.6,106.9,85.9,64.5,1400.0,8679.0,26.0,
65500,1857.4,100.0,94.9,64.5,1400.0,8679.0,26.0,
65600,1857.9,84.9,103.9,64.5,1400.0,8679.0,26.0,
65700,1864.5,34.2,105.9,64.5,1400.0,8679.0,26.0,
65900,1861.0,24.0,105.9,64.5,1400.0,8679.0,26.0,
66000,1860.5,30.4,105.9,68.4,1400.0,8679.0,26.0,
66100,1859.1,38.7,97.1,119.1,1400.0,8679.0,26.0,
66200,1861.9,35.0,91.7,119.1,1400.0,8679.0,26.0,
66300,1859.0,35.1,83.1,119.1,1400.0,8679.0,26.0,
66400,1861.9,29.0,72.6,119.1,1400.0,8679.0,26.0,
66500,1855.3,36.3,60.6,119.1,1400.0,8679.0,26.0,
66600,1862.0,47.8,44.8,119.1,1400.0,8679.0,26.0,
66700,1867.1,104.1,50.7,97.7,1400.0,8679.0,26.0,
66900,1858.7,78.6,70.0,66.4,1400.0,8679.0,26.0,
67000,1861.6,70.1,78.0,64.5,1400.0,8679.0,26.0,
67100,1868.9,94.3,87.4,64.5,1400.0,8679.0,26.0,
67200,1853.3,92.2,93.2,64.5,1400.0,8679.0,26.0,
67300,1858.0,28.5,94.7,64.5,1400.0,8679.0,26.0,
67400,1858.9,27.9,94.6,64.5,1400.0,8679.0,26.0,
67500,1860.6,30.8,94.6,64.5,1400.0,8679.0,26.0,
67600,1861.9,24.5,94.1,93.8,1400.0,8679.0,26.0,
67700,1861.1,31.3,88.6,119.1,1400.0,8679.0,26.0,
67900,1859.8,28.2,74.7,119.1,1400.0,8679.0,26.0,
68000,1860.7,29.7,66.5,119.1,1400.0,8679.0,26.0,
68100,1860.5,36.6,53.9,119.1,1400.0,8679.0,26.0,
68200,1857.6,33.9,42.6,119.1,1400.0,8679.0,26.0,
68300,1858.0,66.6,45.8,119.1,1400.0,8679.0,26.0,
68400,1866.8,90.3,59.0,91.8,1400.0,8679.0,26.0,
68500,1856.6,110.3,67.8,66.4,1400.0,8679.0,26.0,
68600,1858.3,90.1,77.0,64.5,1400.0,8679.0,26.0,
68700,1857.8,73.9,83.6,64.5,1400.0,8679.0,26.0,
68900,1862.3,40.5,93.9,64.5,1400.0,8679.0,26.0,
69000,1861.7,30.1,94.1,64.5,1400.0,8679.0,26.0,
69100,1860.1,33.6,94.1,64.5,1400.0,8679.0,26.0,
69200,1859.8,31.6,93.8,89.8,1400.0,8679.0,26.0,
69300,1858.0,30.4,90.3,119.1,1400.0,8679.0,26.0,
69400,1863.1,31.6,82.6,119.1,1400.0,8679.0,26.0,
69500,1858.2,30.2,76.1,119.1,1400.0,8679.0,26.0,
69600,1858.6,30.7,66.7,119.1,1400.0,8679.0,26.0,
69700,1861.7,30.9,58.3,119.1,1400.0,8679.0,26.0,
69900,1857.5,89.9,47.4,119.1,1400.0,8679.0,26.0,
70000,1859.2,87.6,57.3,101.6,1400.0,8679.0,26.0,
70100,1861.0,78.2,64.8,72.3,1400.0,8679.0,26.0,
70200,1860.1,98.8,73.7,66.4,1400.0,8679.0,26.0,
70300,1848.5,103.3,81.0,82.0,1400.0,8679.0,26.0,
70400,1856.0,80.2,86.4,95.7,1400.0,8679.0,26.0,
70500,1860.5,41.5,89.4,82.0,1400.0,8679.0,26.0,
70600,1861.1,32.5,89.5,66.4,1400.0,8679.0,26.0,
70700,1859.4,31.1,89.5,93.8,1400.0,8679.0,26.0,
70900,1858.8,27.8,86.3,119.1,1400.0,8679.0,26.0,
71000,1858.9,30.7,79.8,117.2,1400.0,8679.0,26.0,
71100,1858.8,27.4,73.8,99.6,1400.0,8679.0,26.0,
71200,1858.9,31.2,65.1,119.1,1400.0,8679.0,26.0,
71300,1862.9,28.0,55.7,119.1,1400.0,8679.0,26.0,
71400,1859.7,24.3,45.9,119.1,1400.0,8679.0,26.0,
71500,1869.4,106.3,47.6,115.2,1400.0,8679.0,26.0,
71600,1857.6,120.8,62.4,97.7,1400.0,8679.0,26.0,
71700,1858.4,113.3,75.2,97.7,1400.0,8679.0,26.0,
71900,1863.1,106.9,93.8,66.4,1400.0,8679.0,26.0,
72000,1870.5,105.8,102.9,64.5,1400.0,8679.0,26.0,
72100,1856.2,37.4,106.9,64.5,1400.0,8679.0,26.0,
72200,1858.3,20.8,106.8,64.5,1400.0,8679.0,26.0,
72300,1861.9,22.5,106.5,66.4,1400.0,8679.0,26.0,
72400,1863.0,29.7,106.5,74.2,1400.0,8679.0,26.0,
72500,1859.0,42.8,102.8,119.1,1400.0,8679.0,26.0,
72600,1859.4,35.4,94.9,105.5,1400.0,8679.0,26.0,
72700,1859.6,33.1,85.3,72.3,1400.0,8679.0,26.0,
72900,1856.9,26.1,63.1,91.8,1400.0,8679.0,26.0,
73000,1861.1,27.8,47.2,119.1,1400.0,8679.0,26.0,
73100,1860.5,102.2,43.9,119.1,1400.0,8679.0,26.0,
73200,1861.2,95.7,60.2,93.8,1400.0,8679.0,26.0,
73300,1867.1,102.8,72.5,95.7,1400.0,8679.0,26.0,
73400,1849.7,113.6,82.0,95.7,1400.0,8679.0,26.0,
73500,1859.1,100.0,90.2,89.8,1400.0,8679.0,26.0,
73600,1863.6,94.4,97.0,66.4,1400.0,8679.0,26.0,
73700,1855.4,44.9,103.3,64.5,1400.0,8679.0,26.0,
73900,1859.6,35.7,104.2,64.5,1400.0,8679.0,26.0,
74000,1858.7,36.1,104.2,68.4,1400.0,8679.0,26.0,
74100,1855.1,27.3,101.5,93.8,1400.0,8679.0,26.0,
74200,1859.0,28.8,93.1,107.4,1400.0,8679.0,26.0,
74300,1859.9,28.4,84.1,109.4,1400.0,8679.0,26.0,
74400,1855.7,37.0,75.1,111.3,1400.0,8679.0,26.0,
74500,1859.5,39.3,65.7,119.1,1400.0,8679.0,26.0,
74600,1855.9,51.6,55.2,119.1,1400.0,8679.0,26.0,
74700,1857.3,112.3,47.7,119.1,1400.0,8679.0,26.0,
74900,1850.5,92.4,73.3,95.7,1400.0,8679.0,26.0,
75000,1854.3,116.9,82.9,95.7,1400.0,8679.0,26.0,
75100,1854.3,115.8,92.6,95.7,1400.0,8679.0,26.0,
75200,1841.7,110.4,100.6,95.7,1400.0,8679.0,26.0,
75300,1849.7,57.1,108.4,95.7,1400.0,8679.0,26.0,
75400,1865.4,34.9,108.4,89.8,1400.0,8679.0,26.0,
75500,1859.9,29.2,108.2,74.2,1400.0,8679.0,26.0,
75600,1860.1,36.2,107.7,91.8,1400.0,8679.0,26.0,
75700,1858.4,27.8,105.6,119.1,1400.0,8679.0,26.0,
75900,1858.3,32.9,89.5,119.1,1400.0,8679.0,26.0,
76000,1858.6,38.1,80.6,119.1,1400.0,8679.0,26.0,
76100,1858.8,29.2,69.8,119.1,1400.0,8679.0,26.0,
76200,1857.0,26.9,57.5,119.1,1400.0,8679.0,26.0,
76300,1866.4,78.8,42.2,119.1,1400.0,8679.0,26.0,
76400,1866.5,102.4,55.2,119.1,1400.0,8679.0,26.0,
76500,1856.8,105.7,69.4,93.8,1400.0,8679.0,26.0,
76600,1863.3,102.2,79.6,66.4,1400.0,8679.0,26.0,
76700,1870.0,91.7,86.9,66.4,1400.0,8679.0,26.0,
76900,1861.4,68.3,101.6,66.4,1400.0,8679.0,26.0,
77000,1854.6,44.6,103.5,64.5,1400.0,8679.0,26.0,
77100,1858.6,42.3,103.8,66.4,1400.0,8679.0,26.0,
77200,1859.9,35.8,104.0,68.4,1400.0,8679.0,26.0,
77300,1860.5,40.5,103.9,80.1,1400.0,8679.0,26.0,
77400,1860.3,36.9,97.7,111.3,1400.0,8679.0,26.0,
77500,1858.4,38.2,88.4,119.1,1400.0,8679.0,26.0,
77600,1857.9,39.2,80.1,119.1,1400.0,8679.0,26.0,
77700,1859.8,40.4,72.2,119.1,1400.0,8679.0,26.0,
77900,1858.7,94.4,51.2,91.8,1400.0,8679.0,26.0,
78000,1864.9,116.3,66.2,99.6,1400.0,8679.0,26.0,
78100,1855.4,110.7,77.9,95.7,1400.0,8679.0,26.0,
78200,1856.6,117.9,86.7,95.7,1400.0,8679.0,26.0,
78300,1855.3,96.3,94.7,95.7,1400.0,8679.0,26.0,
78400,1865.0,103.4,101.4,95.7,1400.0,8679.0,26.0,
78500,1864.7,77.5,108.0,95.7,1400.0,8679.0,26.0,
78600,1859.0,31.7,108.7,95.7,1400.0,8679.0,26.0,
78700,1857.6,42.5,108.9,95.7,1400.0,8679.0,26.0,
78900,1859.4,37.7,108.3,119.1,1400.0,8679.0,26.0,
79000,1857.1,34.0,98.1,119.1,1400.0,8679.0,26.0,
79100,1858.8,31.4,88.5,99.6,1400.0,8679.0,26.0,
79200,1859.9,32.0,79.4,97.7,1400.0,8679.0,26.0,
79300,1859.7,29.5,69.2,97.7,1400.0,8679.0,26.0,
79400,1859.0,27.1,58.9,115.2,1400.0,8679.0,26.0,
79500,1857.7,82.4,45.0,119.1,1400.0,8679.0,26.0,
79600,1855.6,101.0,55.9,119.1,1400.0,8679.0,26.0,
79700,1856.0,94.2,65.9,97.7,1400.0,8679.0,26.0,
79900,1854.2,86.6,82.4,95.7,1400.0,8679.0,26.0,
80000,1851.2,96.6,87.6,95.7,1400.0,8679.0,26.0,
80100,1849.6,94.0,92.5,95.7,1400.0,8679.0,26.0,
80200,1866.1,41.7,94.8,95.7,1400.0,8679.0,26.0,
80300,1859.9,30.9,95.2,93.8,1400.0,8679.0,26.0,
80400,1863.5,49.9,95.1,66.4,1400.0,8679.0,26.0,
80500,1859.1,32.8,96.2,99.6,1400.0,8679.0,26.0,
80600,1857.1,35.8,88.9,109.4,1400.0,8679.0,26.0,
80700,1861.4,34.1,81.1,91.8,1400.0,8679.0,26.0,
80900,1857.3,41.1,63.7,119.1,1400.0,8679.0,26.0,
81000,1861.5,39.0,56.2,107.4,1400.0,8679.0,26.0,
81100,1856.4,44.7,48.8,93.8,1400.0,8679.0,26.0,
81200,1868.2,98.9,57.7,101.6,1400.0,8679.0,26.0,
81300,1865.6,124.2,69.4,101.6,1400.0,8679.0,26.0,
81400,1861.3,103.9,79.3,97.7,1400.0,8679.0,26.0,
81500,1868.7,96.2,87.4,95.7,1400.0,8679.0,26.0,
81600,1866.9,93.3,94.3,91.8,1400.0,8679.0,26.0,
81700,1869.8,96.4,99.7,95.7,1400.0,8679.0,26.0,
81900,1860.9,36.1,102.7,95.7,1400.0,8679.0,26.0,
82000,1860.8,36.8,103.0,95.7,1400.0,8679.0,26.0,
82100,1855.2,31.9,102.8,103.5,1400.0,8679.0,26.0,
82200,1860.0,35.7,96.1,115.2,1400.0,8679.0,26.0,
82300,1857.1,27.7,87.9,119.1,1400.0,8679.0,26.0,
82400,1858.8,34.7,79.3,119.1,1400.0,8679.0,26.0,
82500,1859.7,43.7,69.0,119.1,1400.0,8679.0,26.0,
82600,1861.0,40.7,60.7,119.1,1400.0,8679.0,26.0,
82700,1857.9,31.6,51.3,85.9,1400.0,8679.0,26.0,
82900,1865.2,111.3,68.4,97.7,1400.0,8679.0,26.0,
83000,1864.5,94.4,77.1,95.7,1400.0,8679.0,26.0,
83100,1857.8,103.4,84.5,95.7,1400.0,8679.0,26.0,
83200,1858.8,94.9,92.0,95.7,1400.0,8679.0,26.0,
83300,1870.4,95.6,97.8,95.7,1400.0,8679.0,26.0,
83400,1861.0,49.1,101.3,95.7,1400.0,8679.0,26.0,
83500,1858.8,41.1,101.8,95.7,1400.0,8679.0,26.0,
83600,1862.8,38.1,101.3,70.3,1400.0,8679.0,26.0,
83700,1858.8,41.0,101.6,84.0,1400.0,8679.0,26.0,
83900,1857.8,37.2,87.7,119.1,1400.0,8679.0,26.0,
84000,1857.7,34.9,79.6,119.1,1400.0,8679.0,26.0,
84100,1861.2,32.1,71.3,119.1,1400.0,8679.0,26.0,
84200,1857.0,47.6,61.3,119.1,1400.0,8679.0,26.0,
84300,1859.8,29.2,52.6,119.1,1400.0,8679.0,26.0,
84400,1857.6,98.8,56.7,119.1,1400.0,8679.0,26.0,
84500,1848.3,91.7,63.9,107.4,1400.0,8679.0,26.0,
84600,1856.6,75.3,69.1,97.7,1400.0,8679.0,26.0,
84700,1855.6,71.2,73.6,95.7,1400.0,8679.0,26.0,
84900,1847.8,93.8,82.8,95.7,1400.0,8679.0,26.0,
85000,1855.3,50.3,86.8,95.7,1400.0,8679.0,26.0,
85100,1862.5,37.7,87.0,95.7,1400.0,8679.0,26.0,
85200,1860.0,40.9,86.8,91.8,1400.0,8679.0,26.0,
85300,1860.5,41.6,87.0,97.7,1400.0,8679.0,26.0,
85400,1859.7,36.6,81.2,119.1,1400.0,8679.0,26.0,
85500,1862.2,29.7,75.7,119.1,1400.0,8679.0,26.0,
85600,1859.4,33.3,70.8,97.7,1400.0,8679.0,26.0,
85700,1859.4,40.3,65.6,93.8,1400.0,8679.0,26.0,
85900,1861.0,43.9,53.8,119.1,1400.0,8679.0,26.0,
86000,1869.4,98.1,54.4,119.1,1400.0,8679.0,26.0,
86100,1870.0,101.2,65.5,119.1,1400.0,8679.0,26.0,
86200,1857.0,109.2,75.8,97.7,1400.0,8679.0,26.0,
86300,1862.3,102.0,83.5,95.7,1400.0,8679.0,26.0,
86400,1875.7,106.7,90.2,78.1,1400.0,8679.0,26.0,
86500,1862.0,81.3,95.2,93.8,1400.0,8679.0,26.0,
86600,1860.5,61.7,98.2,95.7,1400.0,8679.0,26.0,
86700,1858.9,50.1,99.9,95.7,1400.0,8679.0,26.0,
86900,1861.3,55.4,100.7,72.3,1400.0,8679.0,26.0,
87000,1858.8,44.0,97.8,95.7,1400.0,8679.0,26.0,
87100,1856.4,34.6,90.6,119.1,1400.0,8679.0,26.0,
87200,1860.4,42.6,82.3,119.1,1400.0,8679.0,26.0,
87300,1856.4,36.8,73.8,119.1,1400.0,8679.0,26.0,
87400,1860.1,36.8,64.1,119.1,1400.0,8679.0,26.0,
87500,1862.2,37.1,56.0,119.1,1400.0,8679.0,26.0,
87600,1858.0,84.3,53.7,119.1,1400.0,8679.0,26.0,
87700,1860.0,96.2,61.8,119.1,1400.0,8679.0,26.0,
87900,1861.0,98.4,76.8,97.7,1400.0,8679.0,26.0,
88000,1849.8,92.8,82.4,95.7,1400.0,8679.0,26.0,
88100,1850.5,91.1,89.2,95.7,1400.0,8679.0,26.0,
88200,1854.5,44.1,93.7,97.7,1400.0,8679.0,26.0,
88300,1862.3,34.0,93.4,97.7,1400.0,8679.0,26.0,
88400,1858.5,27.4,93.5,97.7,1400.0,8679.0,26.0,
88500,1858.8,36.2,93.4,99.6,1400.0,8679.0,26.0,
88600,1859.4,31.9,91.4,119.1,1400.0,8679.0,26.0,
88700,1858.4,32.1,84.2,119.1,1400.0,8679.0,26.0,
88900,1855.9,39.4,70.8,119.1,1400.0,8679.0,26.0,
89000,1860.3,43.1,64.2,119.1,1400.0,8679.0,26.0,
89100,1858.5,41.5,56.0,119.1,1400.0,8679.0,26.0,
89200,1867.4,93.8,54.1,119.1,1400.0,8679.0,26.0,
89300,1851.0,113.6,65.4,109.4,1400.0,8679.0,26.0,
89400,1862.1,99.6,72.8,95.7,1400.0,8679.0,26.0,
89500,1866.9,87.8,79.1,87.9,1400.0,8679.0,26.0,
89600,1862.2,78.1,84.0,66.4,1400.0,8679.0,26.0,
89700,1863.9,78.5,88.0,70.3,1400.0,8679.0,26.0,
89900,1860.9,38.1,90.6,95.7,1400.0,8679.0,26.0,
90000,1862.2,34.0,90.1,95.7,1400.0,8679.0,26.0,
90100,1859.5,30.8,88.8,97.7,1400.0,8679.0,26.0,
90200,1859.5,29.7,85.0,119.1,1400.0,8679.0,26.0,
90300,1857.0,36.5,76.6,119.1,1400.0,8679.0,26.0,
90400,1860.3,34.3,69.5,119.1,1400.0,8679.0,26.0,
90500,1865.9,28.4,61.8,119.1,1400.0,8679.0,26.0,
90600,1861.9,25.2,54.4,119.1,1400.0,8679.0,26.0,
90700,1862.6,30.4,47.0,119.1,1400.0,8679.0,26.0,
90900,1859.0,104.0,52.9,119.1,1400.0,8679.0,26.0,
91000,1871.5,112.8,67.0,97.7,1400.0,8679.0,26.0,
91100,1856.5,112.4,79.5,95.7,1400.0,8679.0,26.0,
91200,1864.0,94.1,88.9,66.4,1400.0,8679.0,26.0,
91300,1862.0,80.1,95.2,64.5,1400.0,8679.0,26.0,
91400,1871.7,61.4,100.5,64.5,1400.0,8679.0,26.0,
91500,1856.3,27.3,100.7,64.5,1400.0,8679.0,26.0,
91600,1864.0,41.3,101.4,64.5,1400.0,8679.0,26.0,
91700,1856.3,35.3,102.4,66.4,1400.0,8679.0,26.0,
91900,1857.7,33.6,96.3,84.0,1400.0,8679.0,26.0,
92000,1867.0,41.3,87.2,85.9,1400.0,8679.0,26.0,
92100,1858.2,33.3,76.8,97.7,1400.0,8679.0,26.0,
92200,1858.9,33.6,66.3,85.9,1400.0,8679.0,26.0,
92300,1858.1,37.2,58.0,78.1,1400.0,8679.0,26.0,
92400,1858.8,64.3,49.4,89.8,1400.0,8679.0,26.0,
92500,1851.5,99.1,56.5,93.8,1400.0,8679.0,26.0,
92600,1851.6,99.0,66.7,93.8,1400.0,8679.0,26.0,
92700,1857.3,124.0,76.2,74.2,1400.0,8679.0,26.0,
92900,1842.9,112.1,94.3,64.5,1400.0,8679.0,26.0,
93000,1849.3,89.9,100.8,64.5,1400.0,8679.0,26.0,
93100,1860.1,33.9,102.7,64.5,1400.0,8679.0,26.0,
93200,1857.4,27.2,102.6,62.5,1400.0,8679.0,26.0,
93300,1854.8,31.2,102.2,62.5,1400.0,8679.0,26.0,
93400,1857.9,38.5,101.8,91.8,1400.0,8679.0,26.0,
93500,1859.5,40.3,98.2,105.5,1400.0,8679.0,26.0,
93600,1856.4,30.9,91.9,101.6,1400.0,8679.0,26.0,
93700,1861.5,40.7,83.2,107.4,1400.0,8679.0,26.0,
93900,1860.3,34.1,62.0,103.5,1400.0,8679.0,26.0,
94000,1858.9,63.7,49.7,103.5,1400.0,8679.0,26.0,
94100,1875.5,110.2,58.7,107.4,1400.0,8679.0,26.0,
94200,1856.7,94.2,70.7,93.8,1400.0,8679.0,26.0,
94300,1859.7,96.1,79.9,64.5,1400.0,8679.0,26.0,
94400,1865.0,89.7,87.9,64.5,1400.0,8679.0,26.0,
94500,1875.5,95.7,95.7,64.5,1400.0,8679.0,26.0,
94600,1861.4,92.6,100.7,64.5,1400.0,8679.0,26.0,
94700,1855.3,24.1,102.6,64.5,1400.0,8679.0,26.0,
94900,1861.9,21.4,101.1,64.5,1400.0,8679.0,26.0,
95000,1860.2,21.4,101.0,66.4,1400.0,8679.0,26.0,
95100,1860.4,20.9,92.9,119.1,1400.0,8679.0,26.0,
95200,1864.0,22.7,83.6,119.1,1400.0,8679.0,26.0,
95300,1859.8,21.6,73.8,119.1,1400.0,8679.0,26.0,
95400,1859.6,18.1,63.0,121.1,1400.0,8679.0,26.0,
95500,1861.8,21.0,48.7,121.1,1400.0,8679.0,26.0,
95600,1860.6,23.2,33.7,121.1,1400.0,8679.0,26.0,
95700,1862.3,60.7,33.8,119.1,1400.0,8679.0,26.0,
95900,1853.4,72.4,52.2,78.1,1400.0,8679.0,26.0,
96000,1852.1,67.6,57.0,64.5,1400.0,8679.0,26.0,
96100,1856.4,65.6,61.8,64.5,1400.0,8679.0,26.0,
96200,1860.3,66.8,65.8,64.5,1400.0,8679.0,26.0,
96300,1857.1,23.0,68.0,64.5,1400.0,8679.0,26.0,
96400,1861.5,20.3,67.9,62.5,1400.0,8679.0,26.0,
96500,1862.7,16.6,67.9,62.5,1400.0,8679.0,26.0,
96600,1861.6,14.9,67.8,97.7,1400.0,8679.0,26.0,
96700,1862.1,18.2,63.8,121.1,1400.0,8679.0,26.0,
96900,1861.6,17.0,49.6,121.1,1400.0,8679.0,26.0,
97000,1862.8,18.6,43.6,121.1,1400.0,8679.0,26.0,
97100,1860.2,16.5,36.5,121.1,1400.0,8679.0,26.0,
97200,1859.2,19.9,28.1,121.1,1400.0,8679.0,26.0,
97300,1862.1,101.1,34.9,121.1,1400.0,8679.0,26.0,
97400,1866.9,95.1,52.5,103.5,1400.0,8679.0,26.0,
97500,1867.0,88.8,64.8,64.5,1400.0,8679.0,26.0,
97600,1873.4,88.0,75.6,64.5,1400.0,8679.0,26.0,
97700,1855.4,84.9,82.7,64.5,1400.0,8679.0,26.0,
97900,1862.5,36.4,94.1,64.5,1400.0,8679.0,26.0,
98000,1860.0,20.1,94.4,64.5,1400.0,8679.0,26.0,
98100,1859.8,19.8,94.4,62.5,1400.0,8679.0,26.0,
98200,1861.3,19.1,94.4,64.5,1400.0,8679.0,26.0,
98300,1860.0,20.7,90.5,119.1,1400.0,8679.0,26.0,
98400,1860.3,22.6,81.7,119.1,1400.0,8679.0,26.0,
98500,1861.4,25.3,72.8,121.1,1400.0,8679.0,26.0,
98600,1860.8,30.7,61.9,119.1,1400.0,8679.0,26.0,
98700,1861.4,23.0,53.2,113.3,1400.0,8679.0,26.0,
98900,1871.8,84.6,38.2,89.8,1400.0,8679.0,26.0,
99000,1856.9,84.8,52.0,95.7,1400.0,8679.0,26.0,
99100,1856.7,85.1,61.8,68.4,1400.0,8679.0,26.0,
99200,1860.0,96.9,69.5,66.4,1400.0,8679.0,26.0,
99300,1868.9,102.4,79.5,64.5,1400.0,8679.0,26.0,
99400,1871.5,93.0,87.2,64.5,1400.0,8679.0,26.0,
99500,1852.7,50.3,92.0,62.5,1400.0,8679.0,26.0,
99600,1860.7,34.9,93.7,62.5,1400.0,8679.0,26.0,
99700,1857.1,47.1,94.0,62.5,1400.0,8679.0,26.0,
99900,1863.0,32.1,93.5,78.1,1400.0,8679.0,26.0,
100000,1858.9,42.9,89.5,93.8,1400.0,8679.0,26.0,
100100,1859.6,40.1,84.5,84.0,1400.0,8679.0,26.0,
100200,1864.0,51.0,79.6,82.0,1400.0,8679.0,26.0,
100300,1860.4,42.5,72.5,82.0,1400.0,8679.0,26.0,
100400,1864.3,43.5,64.5,85.9,1400.0,8679.0,26.0,
100500,1861.4,118.6,66.5,89.8,1400.0,8679.0,26.0,
100600,1852.2,139.5,79.5,93.8,1400.0,8679.0,26.0,
100700,1863.3,133.8,92.1,95.7,1400.0,8679.0,26.0,
100900,1847.9,119.4,111.1,95.7,1400.0,8679.0,26.0,
101000,1858.8,141.0,120.6,95.7,1400.0,8679.0,26.0,
101100,1849.8,56.5,127.7,95.7,1400.0,8679.0,26.0,
101200,1863.0,32.6,127.5,95.7,1400.0,8679.0,26.0,
101300,1860.5,41.0,126.4,93.8,1400.0,8679.0,26.0,
101400,1860.6,37.3,126.4,93.8,1400.0,8679.0,26.0,
101500,1861.6,37.7,122.4,101.6,1400.0,8679.0,26.0,
101600,1858.5,33.3,113.7,103.5,1400.0,8679.0,26.0,
101700,1861.6,30.2,103.3,89.8,1400.0,8679.0,26.0,
101900,1861.0,40.1,82.2,103.5,1400.0,8679.0,26.0,
102000,1863.4,41.5,66.1,89.8,1400.0,8679.0,26.0,
102100,1866.8,115.4,54.0,84.0,1400.0,8679.0,26.0,
102200,1860.8,122.8,70.3,76.2,1400.0,8679.0,26.0,
102300,1874.9,115.1,84.1,91.8,1400.0,8679.0,26.0,
102400,1853.2,102.9,92.3,76.2,1400.0,8679.0,26.0,
102500,1871.8,90.2,98.7,66.4,1400.0,8679.0,26.0,
102600,1856.6,94.7,102.9,84.0,1400.0,8679.0,26.0,
102700,1857.1,55.6,107.6,91.8,1400.0,8679.0,26.0,
102900,1863.5,38.0,106.9,66.4,1400.0,8679.0,26.0,
103000,1858.4,36.5,106.3,72.3,1400.0,8679.0,26.0,
103100,1861.4,29.0,104.4,101.6,1400.0,8679.0,26.0,
103200,1861.3,31.9,93.9,111.3,1400.0,8679.0,26.0,
103300,1862.0,32.3,81.7,119.1,1400.0,8679.0,26.0,
103400,1861.2,36.8,72.0,119.1,1400.0,8679.0,26.0,
103500,1861.4,42.3,62.9,119.1,1400.0,8679.0,26.0,
103600,1863.8,41.8,55.6,119.1,1400.0,8679.0,26.0,
103700,1869.0,86.6,50.0,119.1,1400.0,8679.0,26.0,
103900,1854.4,100.0,70.5,97.7,1400.0,8679.0,26.0,
104000,1864.4,91.1,76.7,95.7,1400.0,8679.0,26.0,
104100,1866.3,96.8,83.0,78.1,1400.0,8679.0,26.0,
104200,1866.9,107.7,91.1,78.1,1400.0,8679.0,26.0,
104300,1867.6,59.0,97.2,66.4,1400.0,8679.0,26.0,
104400,1855.7,47.8,98.1,66.4,1400.0,8679.0,26.0,
104500,1863.2,43.2,98.1,66.4,1400.0,8679.0,26.0,
104600,1859.7,49.8,98.3,72.3,1400.0,8679.0,26.0,
104700,1858.8,45.7,98.9,101.6,1400.0,8679.0,26.0,
104900,1860.6,43.1,86.6,74.2,1400.0,8679.0,26.0,
105000,1860.4,50.1,81.9,82.0,1400.0,8679.0,26.0,
105100,1862.3,46.9,77.0,91.8,1400.0,8679.0,26.0,
105200,1862.0,43.6,69.5,113.3,1400.0,8679.0,26.0,
105300,1861.0,72.3,61.9,91.8,1400.0,8679.0,26.0,
105400,1857.8,98.4,69.5,89.8,1400.0,8679.0,26.0,
105500,1855.0,130.9,80.3,91.8,1400.0,8679.0,26.0,
105600,1860.5,97.1,90.8,80.1,1400.0,8679.0,26.0,
105700,1850.9,101.1,94.6,66.4,1400.0,8679.0,26.0,
105900,1852.8,65.1,103.8,64.5,1400.0,8679.0,26.0,
106000,1867.6,50.5,104.4,64.5,1400.0,8679.0,26.0,
106100,1855.4,61.4,103.8,64.5,1400.0,8679.0,26.0,
106200,1864.5,77.4,104.5,74.2,1400.0,8679.0,26.0,
106300,1858.5,66.6,106.2,87.9,1400.0,8679.0,26.0,
106400,1859.4,74.3,101.9,78.1,1400.0,8679.0,26.0,
106500,1864.3,60.3,98.3,76.2,1400.0,8679.0,26.0,
106600,1857.3,47.1,91.3,76.2,1400.0,8679.0,26.0,
106700,1866.1,59.5,85.3,74.2,1400.0,8679.0,26.0,
106900,1861.0,70.2,75.9,84.0,1400.0,8679.0,26.0,
107000,1867.2,116.5,80.1,78.1,1400.0,8679.0,26.0,
107100,1852.2,102.7,90.2,84.0,1400.0,8679.0,26.0,
107200,1862.2,90.6,93.6,93.8,1400.0,8679.0,26.0,
107300,1866.6,103.0,97.8,87.9,1400.0,8679.0,26.0,
107400,1864.8,82.3,101.8,76.2,1400.0,8679.0,26.0,
107500,1857.0,103.7,101.7,64.5,1400.0,8679.0,26.0,
107600,1858.4,53.3,102.3,64.5,1400.0,8679.0,26.0,
107700,1860.3,62.4,103.2,64.5,1400.0,8679.0,26.0,
107900,1863.5,40.2,102.0,87.9,1400.0,8679.0,26.0,
108000,1860.8,50.4,97.1,113.3,1400.0,8679.0,26.0,
108100,1864.9,39.4,88.2,119.1,1400.0,8679.0,26.0,
108200,1861.2,39.2,82.2,119.1,1400.0,8679.0,26.0,
108300,1862.2,50.1,75.7,117.2,1400.0,8679.0,26.0,
108400,1864.2,66.5,71.0,105.5,1400.0,8679.0,26.0,
108500,1866.4,80.6,65.9,103.5,1400.0,8679.0,26.0,
108600,1860.3,89.8,70.4,101.6,1400.0,8679.0,26.0,
108700,1864.9,89.9,73.5,93.8,1400.0,8679.0,26.0,
108900,1856.5,87.3,84.1,78.1,1400.0,8679.0,26.0,
109000,1860.9,88.9,89.7,64.5,1400.0,8679.0,26.0,
109100,1870.6,95.6,94.2,64.5,1400.0,8679.0,26.0,
109200,1853.8,46.7,97.3,66.4,1400.0,8679.0,26.0,
109300,1861.2,47.2,96.7,68.4,1400.0,8679.0,26.0,
109400,1862.9,55.0,98.3,68.4,1400.0,8679.0,26.0,
109500,1864.8,40.6,97.5,80.1,1400.0,8679.0,26.0,
109600,1857.3,41.2,90.9,89.8,1400.0,8679.0,26.0,
109700,1865.3,37.8,87.1,93.8,1400.0,8679.0,26.0,
109900,1863.3,52.4,77.1,119.1,1400.0,8679.0,26.0,
110000,1856.7,46.0,70.7,97.7,1400.0,8679.0,26.0,
110100,1864.0,47.5,64.2,101.6,1400.0,8679.0,26.0,
110200,1861.9,84.0,64.5,119.1,1400.0,8679.0,26.0,
110300,1858.9,74.7,71.9,113.3,1400.0,8679.0,26.0,
110400,1865.3,78.0,73.4,80.1,1400.0,8679.0,26.0,
110500,1858.6,79.8,78.0,66.4,1400.0,8679.0,26.0,
110600,1852.9,88.3,85.1,66.4,1400.0,8679.0,26.0,
110700,1859.7,97.4,90.7,84.0,1400.0,8679.0,26.0,
110900,1864.4,43.4,96.5,60.5,1400.0,8679.0,26.0,
111000,1857.3,51.6,96.7,56.6,1400.0,8679.0,26.0,
111100,1862.7,58.6,96.8,72.3,1400.0,8679.0,26.0,
111200,1858.1,64.1,94.6,117.2,1400.0,8679.0,26.0,
111300,1862.9,49.6,89.8,119.1,1400.0,8679.0,26.0,
111400,1860.1,51.4,84.8,103.5,1400.0,8679.0,26.0,
111500,1862.0,54.4,81.9,95.7,1400.0,8679.0,26.0,
111600,1865.0,44.0,75.1,117.2,1400.0,8679.0,26.0,
111700,1863.9,45.1,68.5,119.1,1400.0,8679.0,26.0,
111900,1854.5,101.0,72.9,99.6,1400.0,8679.0,26.0,
112000,1868.1,87.1,81.0,91.8,1400.0,8679.0,26.0,
112100,1861.1,94.5,84.9,66.4,1400.0,8679.0,26.0,
112200,1869.6,80.3,88.2,64.5,1400.0,8679.0,26.0,
112300,1862.4,94.7,92.9,64.5,1400.0,8679.0,26.0,
112400,1854.7,48.3,96.4,76.2,1400.0,8679.0,26.0,
112500,1858.8,49.4,95.6,60.5,1400.0,8679.0,26.0,
112600,1861.9,37.1,95.5,35.2,1400.0,8679.0,26.0,
112700,1859.9,44.3,95.1,60.5,1400.0,8679.0,26.0,
112900,1862.2,48.7,85.8,119.1,1400.0,8679.0,26.0,
113000,1863.0,48.8,78.4,119.1,1400.0,8679.0,26.0,
113100,1860.6,45.0,74.6,119.1,1400.0,8679.0,26.0,
113200,1859.0,37.3,69.0,119.1,1400.0,8679.0,26.0,
113300,1858.4,51.1,61.3,103.5,1400.0,8679.0,26.0,
113400,1867.5,97.2,59.1,101.6,1400.0,8679.0,26.0,
113500,1866.0,85.5,69.7,97.7,1400.0,8679.0,26.0,
113600,1857.2,69.9,75.3,72.3,1400.0,8679.0,26.0,
113700,1854.5,72.8,81.0,72.3,1400.0,8679.0,26.0,
113900,1866.9,91.8,88.8,72.3,1400.0,8679.0,26.0,
114000,1856.2,50.2,91.4,66.4,1400.0,8679.0,26.0,
114100,1858.9,49.6,91.3,64.5,1400.0,8679.0,26.0,
114200,1862.0,46.3,91.9,66.4,1400.0,8679.0,26.0,
114300,1859.2,34.2,91.6,89.8,1400.0,8679.0,26.0,
114400,1861.5,48.5,89.7,117.2,1400.0,8679.0,26.0,
114500,1858.9,47.3,82.6,103.5,1400.0,8679.0,26.0,
114600,1859.7,43.6,77.8,99.6,1400.0,8679.0,26.0,
114700,1863.7,34.9,71.6,103.5,1400.0,8679.0,26.0,
114900,1865.2,77.2,63.1,119.1,1400.0,8679.0,26.0,
115000,1862.9,93.7,66.5,119.1,1400.0,8679.0,26.0,
115100,1864.3,95.2,75.1,80.1,1400.0,8679.0,26.0,
115200,1862.5,105.0,82.1,68.4,1400.0,8679.0,26.0,
115300,1868.0,111.6,89.1,64.5,1400.0,8679.0,26.0,
115400,1858.5,104.1,98.7,64.5,1400.0,8679.0,26.0,
115500,1860.7,80.8,103.0,64.5,1400.0,8679.0,26.0,
115600,1856.9,52.9,105.9,85.9,1400.0,8679.0,26.0,
115700,1861.2,43.0,106.0,95.7,1400.0,8679.0,26.0,
115900,1860.0,53.2,104.7,119.1,1400.0,8679.0,26.0,
116000,1860.3,46.4,100.5,119.1,1400.0,8679.0,26.0,
116100,1859.8,52.6,95.5,119.1,1400.0,8679.0,26.0,
116200,1861.9,55.2,90.2,119.1,1400.0,8679.0,26.0,
116300,1857.8,55.1,84.8,84.0,1400.0,8679.0,26.0,
116400,1862.4,36.7,73.5,78.1,1400.0,8679.0,26.0,
116500,1862.9,44.4,65.9,87.9,1400.0,8679.0,26.0,
116600,1866.3,88.2,61.4,119.1,1400.0,8679.0,26.0,
116700,1857.0,95.2,71.1,119.1,1400.0,8679.0,26.0,
116900,1863.0,94.3,83.2,93.8,1400.0,8679.0,26.0,
117000,1866.7,91.6,87.5,66.4,1400.0,8679.0,26.0,
117100,1859.8,79.0,89.8,78.1,1400.0,8679.0,26.0,
117200,1860.7,60.7,92.8,95.7,1400.0,8679.0,26.0,
117300,1857.8,45.0,92.2,95.7,1400.0,8679.0,26.0,
117400,1857.9,39.4,91.8,89.8,1400.0,8679.0,26.0,
117500,1863.7,40.9,91.6,95.7,1400.0,8679.0,26.0,
117600,1865.4,55.5,91.1,119.1,1400.0,8679.0,26.0,
117700,1855.5,39.7,85.1,119.1,1400.0,8679.0,26.0,
117900,1862.5,46.1,74.5,117.2,1400.0,8679.0,26.0,
118000,1863.7,39.5,69.2,119.1,1400.0,8679.0,26.0,
118100,1863.4,40.7,62.8,119.1,1400.0,8679.0,26.0,
118200,1867.3,68.9,56.3,119.1,1400.0,8679.0,26.0,
118300,1859.9,105.7,65.4,119.1,1400.0,8679.0,26.0,
118400,1861.8,93.3,74.3,68.4,1400.0,8679.0,26.0,
118500,1853.0,93.2,81.3,64.5,1400.0,8679.0,26.0,
118600,1853.6,78.5,85.7,64.5,1400.0,8679.0,26.0,
118700,1855.3,90.1,89.6,64.5,1400.0,8679.0,26.0,
118900,1850.6,36.2,93.0,56.6,1400.0,8679.0,26.0,
119000,1858.8,29.5,91.9,33.2,1400.0,8679.0,26.0,
119100,1857.3,33.1,91.4,37.1,1400.0,8679.0,26.0,
119200,1857.4,23.1,91.1,97.7,1400.0,8679.0,26.0,
119300,1859.4,23.0,83.1,89.8,1400.0,8679.0,26.0,
119400,1859.8,27.2,74.0,72.3,1400.0,8679.0,26.0,
119500,1862.6,41.8,65.9,87.9,1400.0,8679.0,26.0,
119600,1864.0,29.8,59.6,93.8,1400.0,8679.0,26.0,
119700,1865.8,36.0,50.6,85.9,1400.0,8679.0,26.0,
119900,1866.0,108.3,52.9,76.2,1400.0,8679.0,26.0,
120000,1864.4,99.3,66.9,64.5,1400.0,8679.0,26.0,
120100,1871.7,115.5,77.8,64.5,1400.0,8679.0,26.0,
120200,1863.6,106.4,86.1,64.5,1400.0,8679.0,26.0,
120300,1861.9,105.4,93.1,64.5,1400.0,8679.0,26.0,
120400,1861.5,84.0,98.8,64.5,1400.0,8679.0,26.0,
120500,1861.4,36.0,101.1,64.5,1400.0,8679.0,26.0,
120600,1860.7,22.1,100.9,64.5,1400.0,8679.0,26.0,
120700,1859.5,33.5,100.8,62.5,1400.0,8679.0,26.0,
120900,1862.1,41.4,94.2,93.8,1400.0,8679.0,26.0,
121000,1861.3,30.0,85.2,64.5,1400.0,8679.0,26.0,
121100,1863.9,33.5,76.2,50.8,1400.0,8679.0,26.0,
121200,1858.3,28.7,66.7,64.5,1400.0,8679.0,26.0,
121300,1862.9,54.2,57.3,70.3,1400.0,8679.0,26.0,
121400,1862.4,69.7,49.0,64.5,1400.0,8679.0,26.0,
121500,1868.4,129.8,55.4,62.5,1400.0,8679.0,26.0,
121600,1848.4,113.5,71.9,66.4,1400.0,8679.0,26.0,
121700,1853.6,104.3,82.0,64.5,1400.0,8679.0,26.0,
121900,1863.8,85.1,97.2,62.5,1400.0,8679.0,26.0,
122000,1855.9,90.5,101.8,33.2,1400.0,8679.0,26.0,
122100,1851.0,31.8,103.1,33.2,1400.0,8679.0,26.0,
122200,1866.9,34.5,102.9,33.2,1400.0,8679.0,26.0,
122300,1854.7,46.7,103.6,35.2,1400.0,8679.0,26.0,
122400,1864.7,35.4,103.2,60.5,1400.0,8679.0,26.0,
122500,1854.9,27.3,97.6,66.4,1400.0,8679.0,26.0,
122600,1859.1,28.4,85.7,62.5,1400.0,8679.0,26.0,
122700,1862.6,33.6,76.6,72.3,1400.0,8679.0,26.0,
122900,1864.3,28.8,56.1,72.3,1400.0,8679.0,26.0,
123000,1859.5,48.4,46.4,70.3,1400.0,8679.0,26.0,
123100,1869.6,96.2,53.7,70.3,1400.0,8679.0,26.0,
123200,1872.2,105.7,67.7,68.4,1400.0,8679.0,26.0,
123300,1858.2,97.1,75.3,64.5,1400.0,8679.0,26.0,
123400,1861.0,87.1,81.4,64.5,1400.0,8679.0,26.0,
123500,1867.0,75.0,86.0,64.5,1400.0,8679.0,26.0,
123600,1863.8,78.8,91.2,64.5,1400.0,8679.0,26.0,
123700,1864.2,33.4,93.8,64.5,1400.0,8679.0,26.0,
123900,1860.9,28.0,93.4,60.5,1400.0,8679.0,26.0,
124000,1863.8,32.6,93.3,62.5,1400.0,8679.0,26.0,
124100,1856.2,26.0,87.2,87.9,1400.0,8679.0,26.0,
124200,1861.8,34.7,77.0,82.0,1400.0,8679.0,26.0,
124300,1860.1,32.8,68.7,82.0,1400.0,8679.0,26.0,
124400,1861.6,28.7,60.6,78.1,1400.0,8679.0,26.0,
124500,1860.3,23.7,53.7,76.2,1400.0,8679.0,26.0,
124600,1861.8,27.6,45.1,74.2,1400.0,8679.0,26.0,
124700,1849.5,102.3,50.6,72.3,1400.0,8679.0,26.0,
124900,1852.9,113.1,75.2,95.7,1400.0,8679.0,26.0,
125000,1868.6,113.9,87.4,66.4,1400.0,8679.0,26.0,
125100,1851.8,103.2,95.9,33.2,1400.0,8679.0,26.0,
125200,1847.2,110.7,103.5,33.2,1400.0,8679.0,26.0,
125300,1858.9,41.0,107.6,33.2,1400.0,8679.0,26.0,
125400,1864.0,27.5,107.7,33.2,1400.0,8679.0,26.0,
125500,1862.1,29.1,107.7,33.2,1400.0,8679.0,26.0,
125600,1864.1,42.4,107.6,37.1,1400.0,8679.0,26.0,
125700,1859.6,41.7,103.9,70.3,1400.0,8679.0,26.0,
125900,1861.0,58.5,91.4,78.1,1400.0,8679.0,26.0,
126000,1864.2,45.3,81.4,70.3,1400.0,8679.0,26.0,
126100,1859.0,30.7,72.4,70.3,1400.0,8679.0,26.0,
126200,1860.9,40.4,62.8,70.3,1400.0,8679.0,26.0,
126300,1880.3,127.5,62.4,64.5,1400.0,8679.0,26.0,
126400,1857.3,123.9,80.2,62.5,1400.0,8679.0,26.0,
126500,1860.1,124.2,92.2,48.8,1400.0,8679.0,26.0,
126600,1855.7,110.6,101.4,33.2,1400.0,8679.0,26.0,
126700,1869.1,112.1,106.5,33.2,1400.0,8679.0,26.0,
126900,1849.6,46.5,115.8,33.2,1400.0,8679.0,26.0,
127000,1864.3,36.7,115.4,33.2,1400.0,8679.0,26.0,
127100,1859.3,45.2,115.6,33.2,1400.0,8679.0,26.0,
127200,1862.3,39.0,115.3,50.8,1400.0,8679.0,26.0,
127300,1857.0,30.6,111.5,64.5,1400.0,8679.0,26.0,
127400,1860.9,36.4,100.0,66.4,1400.0,8679.0,26.0,
127500,1857.3,23.9,88.7,68.4,1400.0,8679.0,26.0,
127600,1861.0,41.0,78.7,62.5,1400.0,8679.0,26.0,
127700,1863.0,32.9,70.0,74.2,1400.0,8679.0,26.0,
127900,1865.6,104.4,56.0,72.3,1400.0,8679.0,26.0,
128000,1850.9,86.8,63.2,64.5,1400.0,8679.0,26.0,
128100,1858.9,95.4,72.8,64.5,1400.0,8679.0,26.0,
128200,1848.2,102.2,79.4,64.5,1400.0,8679.0,26.0,
128300,1852.3,89.9,87.7,64.5,1400.0,8679.0,26.0,
128400,1852.2,72.3,93.8,64.5,1400.0,8679.0,26.0,
128500,1856.2,36.5,97.5,64.5,1400.0,8679.0,26.0,
128600,1862.7,34.8,97.3,64.5,1400.0,8679.0,26.0,
128700,1859.2,34.9,96.6,66.4,1400.0,8679.0,26.0,
128900,1859.4,27.0,91.5,74.2,1400.0,8679.0,26.0,
129000,1864.2,40.0,85.6,80.1,1400.0,8679.0,26.0,
129100,1859.2,31.7,76.8,82.0,1400.0,8679.0,26.0,
129200,1855.4,33.6,69.1,84.0,1400.0,8679.0,26.0,
129300,1857.8,22.0,57.6,80.1,1400.0,8679.0,26.0,
129400,1861.9,32.0,46.1,80.1,1400.0,8679.0,26.0,
129500,1859.3,113.7,44.3,84.0,1400.0,8679.0,26.0,
129600,1862.8,121.5,62.8,70.3,1400.0,8679.0,26.0,
129700,1867.6,90.5,75.3,64.5,1400.0,8679.0,26.0,
129900,1865.6,122.0,96.7,33.2,1400.0,8679.0,26.0,
130000,1859.7,104.7,105.0,33.2,1400.0,8679.0,26.0,
130100,1853.3,59.9,112.2,33.2,1400.0,8679.0,26.0,
130200,1864.4,28.6,112.0,33.2,1400.0,8679.0,26.0,
130300,1861.0,23.4,112.2,33.2,1400.0,8679.0,26.0,
130400,1858.9,22.5,112.0,33.2,1400.0,8679.0,26.0,
130500,1861.2,27.5,109.3,66.4,1400.0,8679.0,26.0,
130600,1860.8,24.4,99.5,93.8,1400.0,8679.0,26.0,
130700,1863.5,33.2,90.4,95.7,1400.0,8679.0,26.0,
130900,1858.9,26.4,66.8,85.9,1400.0,8679.0,26.0,
131000,1862.9,27.5,53.2,84.0,1400.0,8679.0,26.0,
131100,1868.0,95.1,36.5,93.8,1400.0,8679.0,26.0,
131200,1866.7,139.9,57.5,76.2,1400.0,8679.0,26.0,
131300,1851.1,113.7,74.4,46.9,1400.0,8679.0,26.0,
131400,1859.6,118.7,86.6,35.2,1400.0,8679.0,26.0,
131500,1859.7,105.8,96.7,33.2,1400.0,8679.0,26.0,
131600,1873.5,100.6,105.3,33.2,1400.0,8679.0,26.0,
131700,1866.5,64.0,111.4,31.3,1400.0,8679.0,26.0,
131900,1858.3,25.7,112.1,33.2,1400.0,8679.0,26.0,
132000,1856.9,33.9,112.1,33.2,1400.0,8679.0,26.0,
132100,1857.6,34.4,111.4,58.6,1400.0,8679.0,26.0,
132200,1862.1,30.0,102.4,91.8,1400.0,8679.0,26.0,
132300,1856.3,24.7,90.8,78.1,1400.0,8679.0,26.0,
132400,1860.8,28.9,79.3,85.9,1400.0,8679.0,26.0,
132500,1858.7,32.8,66.9,87.9,1400.0,8679.0,26.0,
132600,1860.1,21.5,52.3,95.7,1400.0,8679.0,26.0,
132700,1861.2,68.0,37.4,115.2,1400.0,8679.0,26.0,
132900,1874.7,124.7,74.5,39.1,1400.0,8679.0,26.0,
133000,1858.5,113.8,86.4,33.2,1400.0,8679.0,26.0,
133100,1854.9,102.8,94.8,33.2,1400.0,8679.0,26.0,
133200,1856.1,89.6,102.5,33.2,1400.0,8679.0,26.0,
133300,1864.3,75.2,107.7,33.2,1400.0,8679.0,26.0,
133400,1856.9,29.5,109.1,33.2,1400.0,8679.0,26.0,
133500,1864.8,45.1,109.7,33.2,1400.0,8679.0,26.0,
133600,1858.7,47.6,111.0,33.2,1400.0,8679.0,26.0,
133700,1861.4,42.4,111.9,54.7,1400.0,8679.0,26.0,
133900,1858.8,34.9,90.9,76.2,1400.0,8679.0,26.0,
134000,1859.6,30.2,80.1,85.9,1400.0,8679.0,26.0,
134100,1864.4,40.3,70.2,89.8,1400.0,8679.0,26.0,
134200,1854.0,50.7,59.0,91.8,1400.0,8679.0,26.0,
134300,1861.3,82.0,54.9,87.9,1400.0,8679.0,26.0,
134400,1855.8,116.3,66.7,64.5,1400.0,8679.0,26.0,
134500,1855.4,115.2,78.2,58.6,1400.0,8679.0,26.0,
134600,1858.9,122.8,88.7,33.2,1400.0,8679.0,26.0,
134700,1872.3,129.3,98.2,33.2,1400.0,8679.0,26.0,
134900,1849.9,94.7,112.9,33.2,1400.0,8679.0,26.0,
135000,1854.7,33.8,114.6,33.2,1400.0,8679.0,26.0,
135100,1859.4,22.2,114.4,33.2,1400.0,8679.0,26.0,
135200,1862.1,27.8,113.9,33.2,1400.0,8679.0,26.0,
135300,1860.4,22.8,111.0,46.9,1400.0,8679.0,26.0,
135400,1860.7,26.8,103.1,95.7,1400.0,8679.0,26.0,
135500,1860.4,25.4,94.0,93.8,1400.0,8679.0,26.0,
135600,1858.4,30.8,82.5,89.8,1400.0,8679.0,26.0,
135700,1860.3,27.0,69.8,91.8,1400.0,8679.0,26.0,
135900,1862.9,42.5,43.0,105.5,1400.0,8679.0,26.0,
136000,1875.6,135.5,58.5,84.0,1400.0,8679.0,26.0,
136100,1856.0,115.0,77.3,48.8,1400.0,8679.0,26.0,
136200,1855.4,109.1,89.1,33.2,1400.0,8679.0,26.0,
136300,1850.8,93.5,98.5,33.2,1400.0,8679.0,26.0,
136400,1862.0,111.5,102.7,31.3,1400.0,8679.0,26.0,
136500,1871.5,100.5,109.2,31.3,1400.0,8679.0,26.0,
136600,1850.9,39.0,112.1,33.2,1400.0,8679.0,26.0,
136700,1859.7,24.6,112.0,33.2,1400.0,8679.0,26.0,
136900,1862.0,39.4,111.6,50.8,1400.0,8679.0,26.0,
137000,1861.9,26.8,102.5,80.1,1400.0,8679.0,26.0,
137100,1860.5,30.9,89.4,70.3,1400.0,8679.0,26.0,
137200,1862.4,32.5,78.3,68.4,1400.0,8679.0,26.0,
137300,1862.3,31.5,66.2,66.4,1400.0,8679.0,26.0,
137400,1864.6,32.6,59.5,66.4,1400.0,8679.0,26.0,
137500,1865.4,31.3,47.1,68.4,1400.0,8679.0,26.0,
137600,1857.5,106.3,56.8,70.3,1400.0,8679.0,26.0,
137700,1862.6,109.4,69.8,60.5,1400.0,8679.0,26.0,
137900,1864.6,80.5,89.3,33.2,1400.0,8679.0,26.0,
138000,1855.3,98.9,94.9,33.2,1400.0,8679.0,26.0,
138100,1859.8,78.4,99.8,33.2,1400.0,8679.0,26.0,
138200,1863.5,30.5,101.8,33.2,1400.0,8679.0,26.0,
138300,1861.2,25.6,101.6,33.2,1400.0,8679.0,26.0,
138400,1861.4,24.9,101.3,33.2,1400.0,8679.0,26.0,
138500,1865.8,30.0,101.2,43.0,1400.0,8679.0,26.0,
138600,1862.1,33.9,93.2,84.0,1400.0,8679.0,26.0,
138700,1854.2,37.4,84.3,72.3,1400.0,8679.0,26.0,
138900,1861.2,40.5,64.1,70.3,1400.0,8679.0,26.0,
139000,1861.1,42.3,56.5,82.0,1400.0,8679.0,26.0,
139100,1857.5,74.3,49.0,80.1,1400.0,8679.0,26.0,
139200,1864.8,120.3,59.9,74.2,1400.0,8679.0,26.0,
139300,1852.0,140.6,74.1,70.3,1400.0,8679.0,26.0,
139400,1863.7,77.4,86.0,64.5,1400.0,8679.0,26.0,
139500,1863.9,119.3,95.1,33.2,1400.0,8679.0,26.0,
139600,1866.3,112.7,106.0,33.2,1400.0,8679.0,26.0,
139700,1863.8,109.7,111.6,33.2,1400.0,8679.0,26.0,
139900,1860.5,37.9,115.1,33.2,1400.0,8679.0,26.0,
140000,1865.3,35.6,114.8,33.2,1400.0,8679.0,26.0,
140100,1861.6,40.1,114.4,44.9,1400.0,8679.0,26.0,
140200,1859.0,52.3,107.1,84.0,1400.0,8679.0,26.0,
140300,1861.2,34.9,99.1,87.9,1400.0,8679.0,26.0,
140400,1862.4,35.0,90.0,85.9,1400.0,8679.0,26.0,
140500,1858.6,37.9,80.4,84.0,1400.0,8679.0,26.0,
140600,1856.2,36.6,65.1,84.0,1400.0,8679.0,26.0,
140700,1861.7,31.4,55.1,84.0,1400.0,8679.0,26.0,
140900,1871.8,110.6,78.3,58.6,1400.0,8679.0,26.0,
141000,1857.2,119.8,89.8,35.2,1400.0,8679.0,26.0,
141100,1847.3,117.2,98.7,33.2,1400.0,8679.0,26.0,
141200,1856.8,85.4,105.0,33.2,1400.0,8679.0,26.0,
141300,1867.6,123.9,109.8,31.3,1400.0,8679.0,26.0,
141400,1860.5,50.3,114.8,33.2,1400.0,8679.0,26.0,
141500,1858.1,30.1,115.0,33.2,1400.0,8679.0,26.0,
141600,1861.0,27.6,114.7,33.2,1400.0,8679.0,26.0,
141700,1860.2,31.6,114.9,35.2,1400.0,8679.0,26.0,
141900,1862.1,40.9,97.7,78.1,1400.0,8679.0,26.0,
142000,1857.6,34.8,86.8,74.2,1400.0,8679.0,26.0,
142100,1863.4,47.8,78.2,74.2,1400.0,8679.0,26.0,
142200,1856.6,34.0,70.2,72.3,1400.0,8679.0,26.0,
142300,1864.8,35.6,62.0,68.4,1400.0,8679.0,26.0,
142400,1860.3,99.4,56.0,70.3,1400.0,8679.0,26.0,
142500,1860.5,111.9,67.6,70.3,1400.0,8679.0,26.0,
142600,1867.5,124.8,82.9,48.8,1400.0,8679.0,26.0,
142700,1874.8,100.0,92.8,33.2,1400.0,8679.0,26.0,
142900,1855.2,111.3,103.8,33.2,1400.0,8679.0,26.0,
143000,1857.5,54.4,109.4,33.2,1400.0,8679.0,26.0,
143100,1861.4,32.7,107.9,33.2,1400.0,8679.0,26.0,
143200,1863.7,31.9,107.3,33.2,1400.0,8679.0,26.0,
143300,1866.0,38.8,106.9,35.2,1400.0,8679.0,26.0,
143400,1861.0,37.7,105.2,89.8,1400.0,8679.0,26.0,
143500,1858.2,54.7,98.8,80.1,1400.0,8679.0,26.0,
143600,1862.6,42.3,89.5,70.3,1400.0,8679.0,26.0,
143700,1859.0,50.3,83.2,66.4,1400.0,8679.0,26.0,
143900,1852.0,54.4,70.5,62.5,1400.0,8679.0,26.0,
144000,1876.2,110.9,66.6,56.6,1400.0,8679.0,26.0,
144100,1850.0,133.1,82.8,56.6,1400.0,8679.0,26.0,
144200,1848.9,98.3,96.2,35.2,1400.0,8679.0,26.0,
144300,1856.7,99.7,102.9,33.2,1400.0,8679.0,26.0,
144400,1865.6,108.3,109.9,33.2,1400.0,8679.0,26.0,
144500,1864.4,97.9,115.7,33.2,1400.0,8679.0,26.0,
144600,1853.2,75.9,119.8,33.2,1400.0,8679.0,26.0,
144700,1853.1,46.1,117.9,33.2,1400.0,8679.0,26.0,
144900,1861.7,39.5,117.0,48.8,1400.0,8679.0,26.0,
145000,1864.1,29.9,114.3,68.4,1400.0,8679.0,26.0,
145100,1863.9,32.1,102.9,117.2,1400.0,8679.0,26.0,
145200,1858.8,32.1,90.5,119.1,1400.0,8679.0,26.0,
145300,1860.7,35.4,83.3,109.4,1400.0,8679.0,26.0,
145400,1860.3,30.5,72.7,74.2,1400.0,8679.0,26.0,
145500,1863.4,38.0,62.5,74.2,1400.0,8679.0,26.0,
145600,1869.7,70.1,50.4,84.0,1400.0,8679.0,26.0,
145700,1866.1,124.9,64.4,80.1,1400.0,8679.0,26.0,
145900,1853.9,94.1,84.7,33.2,1400.0,8679.0,26.0,
146000,1855.8,92.7,89.4,33.2,1400.0,8679.0,26.0,
146100,1859.1,98.1,95.6,33.2,1400.0,8679.0,26.0,
146200,1868.9,64.7,101.5,33.2,1400.0,8679.0,26.0,
146300,1854.8,43.7,101.8,33.2,1400.0,8679.0,26.0,
146400,1863.5,33.6,102.1,33.2,1400.0,8679.0,26.0,
146500,1861.3,30.9,101.3,35.2,1400.0,8679.0,26.0,
146600,1858.8,36.7,101.0,87.9,1400.0,8679.0,26.0,
146700,1860.9,47.0,91.9,119.1,1400.0,8679.0,26.0,
146900,1866.1,37.4,73.6,74.2,1400.0,8679.0,26.0,
147000,1861.4,40.0,68.1,68.4,1400.0,8679.0,26.0,
147100,1861.0,44.7,60.2,76.2,1400.0,8679.0,26.0,
147200,1860.0,100.3,51.1,80.1,1400.0,8679.0,26.0,
147300,1857.3,110.7,68.3,66.4,1400.0,8679.0,26.0,
147400,1857.8,104.2,80.4,60.5,1400.0,8679.0,26.0,
147500,1871.1,93.8,89.5,50.8,1400.0,8679.0,26.0,
147600,1860.7,83.6,94.1,33.2,1400.0,8679.0,26.0,
147700,1851.7,99.9,99.2,31.3,1400.0,8679.0,26.0,
147900,1862.0,38.2,104.1,33.2,1400.0,8679.0,26.0,
148000,1862.8,40.5,104.1,33.2,1400.0,8679.0,26.0,
148100,1857.8,34.0,103.7,33.2,1400.0,8679.0,26.0,
148200,1862.4,39.3,103.1,66.4,1400.0,8679.0,26.0,
148300,1862.5,35.4,92.1,113.3,1400.0,8679.0,26.0,
148400,1857.3,36.1,81.3,119.1,1400.0,8679.0,26.0,
148500,1859.1,38.4,71.8,119.1,1400.0,8679.0,26.0,
148600,1861.1,38.2,66.1,95.7,1400.0,8679.0,26.0,
148700,1860.5,46.2,57.3,85.9,1400.0,8679.0,26.0,
148900,1869.2,121.7,57.0,87.9,1400.0,8679.0,26.0,
149000,1853.9,109.5,69.8,64.5,1400.0,8679.0,26.0,
149100,1855.5,96.9,79.7,39.1,1400.0,8679.0,26.0,
149200,1863.9,100.0,86.4,33.2,1400.0,8679.0,26.0,
149300,1867.2,87.1,91.1,33.2,1400.0,8679.0,26.0,
149400,1861.1,78.2,95.1,33.2,1400.0,8679.0,26.0,
149500,1846.6,32.0,97.3,33.2,1400.0,8679.0,26.0,
149600,1861.5,34.1,96.6,33.2,1400.0,8679.0,26.0,
149700,1861.0,37.0,96.9,33.2,1400.0,8679.0,26.0,
149900,1860.7,26.0,90.1,105.5,1400.0,8679.0,26.0,
150000,1861.6,33.1,79.7,119.1,1400.0,8679.0,26.0,
150100,1859.5,35.4,69.8,119.1,1400.0,8679.0,26.0,
150200,1860.0,26.5,61.1,119.1,1400.0,8679.0,26.0,
150300,1863.3,44.6,53.1,119.1,1400.0,8679.0,26.0,
150400,1856.3,40.8,46.5,119.1,1400.0,8679.0,26.0,
150500,1864.7,109.8,53.1,119.1,1400.0,8679.0,26.0,
150600,1872.7,102.2,66.4,66.4,1400.0,8679.0,26.0,
150700,1856.8,93.1,76.0,60.5,1400.0,8679.0,26.0,
150900,1857.0,74.4,87.2,33.2,1400.0,8679.0,26.0,
151000,1864.0,95.7,92.6,33.2,1400.0,8679.0,26.0,
151100,1856.5,41.2,94.9,33.2,1400.0,8679.0,26.0,
151200,1860.4,35.9,95.2,33.2,1400.0,8679.0,26.0,
151300,1861.5,43.9,96.2,46.9,1400.0,8679.0,26.0,
151400,1859.0,36.9,96.2,72.3,1400.0,8679.0,26.0,
151500,1864.6,34.5,90.3,87.9,1400.0,8679.0,26.0,
151600,1861.3,45.3,82.2,82.0,1400.0,8679.0,26.0,
151700,1853.1,37.1,73.2,82.0,1400.0,8679.0,26.0,
151900,1861.6,35.2,59.8,103.5,1400.0,8679.0,26.0,
152000,1860.1,33.9,52.0,119.1,1400.0,8679.0,26.0,
152100,1859.3,97.4,60.4,119.1,1400.0,8679.0,26.0,
152200,1860.8,78.2,68.9,66.4,1400.0,8679.0,26.0,
152300,1865.3,107.3,78.5,43.0,1400.0,8679.0,26.0,
152400,1865.0,85.6,85.3,33.2,1400.0,8679.0,26.0,
152500,1859.2,86.3,89.5,33.2,1400.0,8679.0,26.0,
152600,1850.3,73.3,93.6,33.2,1400.0,8679.0,26.0,
152700,1861.6,41.9,96.1,33.2,1400.0,8679.0,26.0,
152900,1863.3,42.0,96.0,35.2,1400.0,8679.0,26.0,
153000,1859.0,36.3,96.1,62.5,1400.0,8679.0,26.0,
153100,1861.7,38.9,88.6,101.6,1400.0,8679.0,26.0,
153200,1860.4,36.8,82.2,119.1,1400.0,8679.0,26.0,
153300,1861.0,41.9,72.0,119.1,1400.0,8679.0,26.0,
153400,1861.4,33.9,63.2,119.1,1400.0,8679.0,26.0,
153500,1861.3,37.3,57.0,119.1,1400.0,8679.0,26.0,
153600,1862.7,40.8,49.3,119.1,1400.0,8679.0,26.0,
153700,1872.2,104.0,52.6,119.1,1400.0,8679.0,26.0,
153900,1846.8,93.8,76.8,54.7,1400.0,8679.0,26.0,
154000,1859.3,82.7,83.4,33.2,1400.0,8679.0,26.0,
154100,1867.8,83.9,87.7,33.2,1400.0,8679.0,26.0,
154200,1862.3,93.8,92.7,33.2,1400.0,8679.0,26.0,
154300,1845.8,40.2,97.2,33.2,1400.0,8679.0,26.0,
154400,1859.8,36.7,97.0,33.2,1400.0,8679.0,26.0,
154500,1863.5,33.2,97.4,33.2,1400.0,8679.0,26.0,
154600,1857.9,31.6,97.5,52.7,1400.0,8679.0,26.0,
154700,1859.6,41.9,92.9,78.1,1400.0,8679.0,26.0,
154900,1857.4,34.1,74.9,119.1,1400.0,8679.0,26.0,
155000,1863.3,38.4,67.9,119.1,1400.0,8679.0,26.0,
155100,1859.3,34.0,62.7,119.1,1400.0,8679.0,26.0,
155200,1860.7,35.4,54.8,119.1,1400.0,8679.0,26.0,
155300,1863.2,101.6,52.9,119.1,1400.0,8679.0,26.0,
155400,1870.9,96.4,70.7,66.4,1400.0,8679.0,26.0,
155500,1865.2,95.2,78.5,58.6,1400.0,8679.0,26.0,
155600,1858.4,79.3,83.4,39.1,1400.0,8679.0,26.0,
155700,1858.3,83.3,88.4,33.2,1400.0,8679.0,26.0,
155900,1863.1,44.4,96.0,33.2,1400.0,8679.0,26.0,
156000,1861.5,36.9,95.5,33.2,1400.0,8679.0,26.0,
156100,1864.2,36.5,95.3,33.2,1400.0,8679.0,26.0,
156200,1860.3,41.8,95.6,54.7,1400.0,8679.0,26.0,
156300,1861.8,36.7,92.4,119.1,1400.0,8679.0,26.0,
156400,1861.8,35.3,79.5,119.1,1400.0,8679.0,26.0,
156500,1864.0,42.3,72.6,119.1,1400.0,8679.0,26.0,
156600,1862.3,38.5,66.4,119.1,1400.0,8679.0,26.0,
156700,1856.7,31.0,60.5,103.5,1400.0,8679.0,26.0,
156900,1861.8,116.8,52.6,119.1,1400.0,8679.0,26.0,
157000,1852.2,109.6,67.7,97.7,1400.0,8679.0,26.0,
157100,1859.1,110.5,81.9,58.6,1400.0,8679.0,26.0,
157200,1875.3,110.8,91.3,33.2,1400.0,8679.0,26.0,
157300,1856.3,94.6,96.4,33.2,1400.0,8679.0,26.0,
157400,1849.7,76.1,100.7,33.2,1400.0,8679.0,26.0,
157500,1854.6,53.0,103.3,33.2,1400.0,8679.0,26.0,
157600,1863.7,40.8,103.3,33.2,1400.0,8679.0,26.0,
157700,1863.6,37.4,103.2,33.2,1400.0,8679.0,26.0,
157900,1860.2,39.5,100.4,119.1,1400.0,8679.0,26.0,
158000,1860.1,34.4,91.0,119.1,1400.0,8679.0,26.0,
158100,1860.4,42.0,78.9,119.1,1400.0,8679.0,26.0,
158200,1862.8,50.2,67.6,119.1,1400.0,8679.0,26.0,
158300,1857.6,37.5,60.3,97.7,1400.0,8679.0,26.0,
158400,1863.3,33.7,52.9,78.1,1400.0,8679.0,26.0,
158500,1875.9,98.2,48.7,80.1,1400.0,8679.0,26.0,
158600,1852.9,114.5,66.1,87.9,1400.0,8679.0,26.0,
158700,1857.0,102.6,78.1,62.5,1400.0,8679.0,26.0,
158900,1866.7,89.3,92.8,33.2,1400.0,8679.0,26.0,
159000,1869.6,76.7,98.3,33.2,1400.0,8679.0,26.0,
159100,1860.3,61.2,100.7,33.2,1400.0,8679.0,26.0,
159200,1849.9,39.7,101.3,33.2,1400.0,8679.0,26.0,
159300,1859.5,50.0,101.1,33.2,1400.0,8679.0,26.0,
159400,1859.9,35.1,101.4,48.8,1400.0,8679.0,26.0,
159500,1862.2,33.8,100.1,107.4,1400.0,8679.0,26.0,
159600,1859.0,37.1,89.6,119.1,1400.0,8679.0,26.0,
159700,1861.6,42.7,79.6,119.1,1400.0,8679.0,26.0,
159900,1864.1,63.8,62.6,119.1,1400.0,8679.0,26.0,
160000,1855.8,36.1,55.1,119.1,1400.0,8679.0,26.0,
160100,1857.8,83.1,51.5,72.3,1400.0,8679.0,26.0,
160200,1865.8,116.4,72.5,68.4,1400.0,8679.0,26.0,
160300,1870.7,109.8,82.5,35.2,1400.0,8679.0,26.0,
160400,1856.6,89.1,90.7,33.2,1400.0,8679.0,26.0,
160500,1852.0,72.3,94.3,33.2,1400.0,8679.0,26.0,
160600,1855.5,84.0,98.7,33.2,1400.0,8679.0,26.0,
160700,1862.2,57.9,101.3,33.2,1400.0,8679.0,26.0,
160900,1858.4,36.7,101.8,33.2,1400.0,8679.0,26.0,
161000,1861.9,35.3,100.9,52.7,1400.0,8679.0,26.0,
161100,1861.7,37.8,100.4,82.0,1400.0,8679.0,26.0,
161200,1861.9,35.2,85.5,119.1,1400.0,8679.0,26.0,
161300,1863.4,37.8,75.8,119.1,1400.0,8679.0,26.0,
161400,1863.8,49.8,66.3,119.1,1400.0,8679.0,26.0,
161500,1861.1,38.8,61.7,119.1,1400.0,8679.0,26.0,
161600,1862.6,33.3,54.6,119.1,1400.0,8679.0,26.0,
161700,1861.6,91.2,49.5,119.1,1400.0,8679.0,26.0,
161900,1861.5,109.2,77.1,56.6,1400.0,8679.0,26.0,
162000,1864.0,106.3,89.5,33.2,1400.0,8679.0,26.0,
162100,1866.0,95.0,96.9,33.2,1400.0,8679.0,26.0,
162200,1856.6,79.4,102.9,33.2,1400.0,8679.0,26.0,
162300,1857.8,71.0,106.2,33.2,1400.0,8679.0,26.0,
162400,1856.9,39.1,106.3,39.1,1400.0,8679.0,26.0,
162500,1860.6,35.4,106.1,44.9,1400.0,8679.0,26.0,
162600,1860.5,37.4,106.4,62.5,1400.0,8679.0,26.0,
162700,1863.8,33.4,105.9,93.8,1400.0,8679.0,26.0,
162900,1859.8,40.0,87.0,119.1,1400.0,8679.0,26.0,
163000,1858.5,48.1,74.3,119.1,1400.0,8679.0,26.0,
163100,1862.5,46.0,64.2,119.1,1400.0,8679.0,26.0,
163200,1857.3,43.0,56.4,119.1,1400.0,8679.0,26.0,
163300,1861.5,61.5,51.1,82.0,1400.0,8679.0,26.0,
163400,1877.4,121.4,63.5,70.3,1400.0,8679.0,26.0,
163500,1846.3,126.6,80.3,62.5,1400.0,8679.0,26.0,
163600,1854.4,115.9,90.7,60.5,1400.0,8679.0,26.0,
163700,1852.5,101.3,98.5,48.8,1400.0,8679.0,26.0,
163900,1864.1,109.7,111.8,33.2,1400.0,8679.0,26.0,
164000,1849.3,40.3,114.1,33.2,1400.0,8679.0,26.0,
164100,1861.9,39.1,113.9,33.2,1400.0,8679.0,26.0,
164200,1858.3,37.7,113.2,35.2,1400.0,8679.0,26.0,
164300,1859.2,38.2,112.7,117.2,1400.0,8679.0,26.0,
164400,1859.1,36.5,105.6,119.1,1400.0,8679.0,26.0,
164500,1859.3,40.2,93.9,119.1,1400.0,8679.0,26.0,
164600,1862.0,35.1,83.4,119.1,1400.0,8679.0,26.0,
164700,1860.6,36.1,74.2,101.6,1400.0,8679.0,26.0,
164900,1858.0,45.6,52.4,119.1,1400.0,8679.0,26.0,
165000,1856.0,111.4,64.0,119.1,1400.0,8679.0,26.0,
165100,1869.8,114.0,78.2,66.4,1400.0,8679.0,26.0,
165200,1860.9,116.3,88.2,39.1,1400.0,8679.0,26.0,
165300,1852.5,98.7,97.7,33.2,1400.0,8679.0,26.0,
165400,1851.3,100.7,104.5,33.2,1400.0,8679.0,26.0,
165500,1858.8,98.1,112.1,33.2,1400.0,8679.0,26.0,
165600,1859.4,49.4,114.7,54.7,1400.0,8679.0,26.0,
165700,1859.0,53.0,115.4,62.5,1400.0,8679.0,26.0,
165900,1859.8,47.0,115.8,68.4,1400.0,8679.0,26.0,
166000,1862.6,52.2,108.4,99.6,1400.0,8679.0,26.0,
166100,1858.0,39.6,99.1,109.4,1400.0,8679.0,26.0,
166200,1861.4,43.9,89.6,74.2,1400.0,8679.0,26.0,
166300,1868.0,43.8,80.4,72.3,1400.0,8679.0,26.0,
166400,1861.3,42.3,71.4,117.2,1400.0,8679.0,26.0,
166500,1853.7,38.9,58.5,105.5,1400.0,8679.0,26.0,
166600,1865.5,112.9,66.0,115.2,1400.0,8679.0,26.0,
166700,1851.0,97.6,76.0,64.5,1400.0,8679.0,26.0,
166900,1868.0,88.0,90.0,33.2,1400.0,8679.0,26.0,
167000,1861.1,80.3,93.0,33.2,1400.0,8679.0,26.0,
167100,1852.5,110.3,97.6,33.2,1400.0,8679.0,26.0,
167200,1857.1,48.7,102.2,33.2,1400.0,8679.0,26.0,
167300,1861.7,33.0,101.1,33.2,1400.0,8679.0,26.0,
167400,1858.3,39.0,100.8,33.2,1400.0,8679.0,26.0,
167500,1858.7,41.7,100.7,58.6,1400.0,8679.0,26.0,
167600,1866.5,43.0,93.2,115.2,1400.0,8679.0,26.0,
167700,1858.9,34.6,84.5,119.1,1400.0,8679.0,26.0,
167900,1859.6,37.4,68.7,119.1,1400.0,8679.0,26.0,
168000,1860.7,48.8,62.8,119.1,1400.0,8679.0,26.0,hard
168100,1865.9,54.6,55.6,119.1,1400.0,8679.0,26.0,
168200,1878.0,112.6,55.4,93.8,1400.0,8679.0,26.0,
168300,1867.2,116.5,70.4,76.2,1400.0,8679.0,26.0,
168400,1858.1,136.5,82.7,48.8,1400.0,8679.0,26.0,
168500,1854.4,112.6,94.0,33.2,1400.0,8679.0,26.0,
168600,1870.8,93.9,100.3,33.2,1400.0,8679.0,26.0,
168700,1868.7,81.1,104.7,33.2,1400.0,8679.0,26.0,
168900,1859.7,57.0,107.5,44.9,1400.0,8679.0,26.0,
169000,1863.6,48.4,108.3,48.8,1400.0,8679.0,26.0,
169100,1858.8,48.4,108.2,62.5,1400.0,8679.0,26.0,
169200,1863.9,49.3,104.9,68.4,1400.0,8679.0,26.0,
169300,1862.8,40.7,96.1,80.1,1400.0,8679.0,26.0,
169400,1860.9,42.0,86.9,89.8,1400.0,8679.0,26.0,
169500,1863.3,41.7,74.8,97.7,1400.0,8679.0,26.0,
169600,1860.2,41.7,66.3,89.8,1400.0,8679.0,26.0,
169700,1865.8,47.4,58.7,99.6,1400.0,8679.0,26.0,
169900,1859.7,108.3,77.6,93.8,1400.0,8679.0,26.0,
170000,1870.5,105.9,89.1,35.2,1400.0,8679.0,26.0,
170100,1862.2,92.4,95.5,33.2,1400.0,8679.0,26.0,
170200,1852.9,89.7,100.1,33.2,1400.0,8679.0,26.0,
170300,1852.6,89.9,105.5,33.2,1400.0,8679.0,26.0,
170400,1863.5,51.7,109.4,33.2,1400.0,8679.0,26.0,
170500,1861.6,54.4,109.1,33.2,1400.0,8679.0,26.0,
170600,1859.4,46.8,109.4,33.2,1400.0,8679.0,26.0,
170700,1861.6,41.9,109.9,52.7,1400.0,8679.0,26.0,
170900,1862.8,37.1,94.7,119.1,1400.0,8679.0,26.0,
171000,1861.3,34.1,82.8,119.1,1400.0,8679.0,26.0,
171100,1863.0,35.9,74.4,119.1,1400.0,8679.0,26.0,
171200,1859.1,27.9,66.5,119.1,1400.0,8679.0,26.0,
171300,1860.6,31.3,56.2,119.1,1400.0,8679.0,26.0,
171400,1868.5,117.4,52.1,119.1,1400.0,8679.0,26.0,
171500,1850.2,114.1,69.2,99.6,1400.0,8679.0,26.0,
171600,1860.4,96.4,78.5,37.1,1400.0,8679.0,26.0,
171700,1861.3,89.7,85.2,33.2,1400.0,8679.0,26.0,
171900,1857.2,74.4,93.7,33.2,1400.0,8679.0,26.0,
172000,1850.6,49.7,98.2,33.2,1400.0,8679.0,26.0,
172100,1855.3,39.0,97.9,33.2,1400.0,8679.0,26.0,
172200,1861.8,25.2,98.0,33.2,1400.0,8679.0,26.0,
172300,1861.0,28.7,97.9,33.2,1400.0,8679.0,26.0,
172400,1859.1,26.8,94.6,119.1,1400.0,8679.0,26.0,
172500,1862.3,30.6,82.1,119.1,1400.0,8679.0,26.0,
172600,1861.1,29.2,72.0,119.1,1400.0,8679.0,26.0,
172700,1862.4,31.5,62.5,119.1,1400.0,8679.0,26.0,
172900,1864.8,26.5,45.9,119.1,1400.0,8679.0,26.0,
173000,1865.4,89.5,35.4,119.1,1400.0,8679.0,26.0,
173100,1877.3,108.3,57.3,119.1,1400.0,8679.0,26.0,
173200,1856.5,94.0,67.9,62.5,1400.0,8679.0,26.0,
173300,1858.4,80.9,75.9,37.1,1400.0,8679.0,26.0,
173400,1863.6,76.2,82.1,33.2,1400.0,8679.0,26.0,
173500,1869.7,81.4,87.3,33.2,1400.0,8679.0,26.0,
173600,1869.6,50.2,90.9,33.2,1400.0,8679.0,26.0,
173700,1851.1,32.2,91.1,33.2,1400.0,8679.0,26.0,
173900,1862.5,25.5,91.2,39.1,1400.0,8679.0,26.0,
174000,1860.8,30.5,91.1,119.1,1400.0,8679.0,26.0,
174100,1861.0,30.6,79.1,119.1,1400.0,8679.0,26.0,
174200,1862.3,32.1,70.0,119.1,1400.0,8679.0,26.0,
174300,1863.7,32.0,61.4,119.1,1400.0,8679.0,26.0,
174400,1858.9,27.5,53.0,119.1,1400.0,8679.0,26.0,
174500,1858.9,25.8,44.2,119.1,1400.0,8679.0,26.0,
174600,1855.4,95.6,37.0,119.1,1400.0,8679.0,26.0,
174700,1857.6,107.8,62.1,93.8,1400.0,8679.0,26.0,
174900,1863.4,103.9,84.9,35.2,1400.0,8679.0,26.0,
175000,1852.7,96.3,91.9,33.2,1400.0,8679.0,26.0,
175100,1848.0,77.6,98.6,33.2,1400.0,8679.0,26.0,
175200,1860.9,66.7,102.8,33.2,1400.0,8679.0,26.0,
175300,1864.4,37.9,104.0,33.2,1400.0,8679.0,26.0,
175400,1863.5,42.9,104.5,33.2,1400.0,8679.0,26.0,
175500,1862.0,40.0,105.0,33.2,1400.0,8679.0,26.0,
175600,1859.1,33.7,105.0,93.8,1400.0,8679.0,26.0,
175700,1861.0,33.4,92.5,119.1,1400.0,8679.0,26.0,
175900,1859.9,32.2,72.9,119.1,1400.0,8679.0,26.0,
176000,1862.5,30.4,64.0,119.1,1400.0,8679.0,26.0,
176100,1858.9,34.2,53.1,119.1,1400.0,8679.0,26.0,
176200,1861.8,89.8,45.2,119.1,1400.0,8679.0,26.0,
176300,1870.8,114.3,64.4,119.1,1400.0,8679.0,26.0,
176400,1859.9,96.2,76.0,62.5,1400.0,8679.0,26.0,
176500,1863.9,94.8,85.1,41.0,1400.0,8679.0,26.0,
176600,1875.2,94.7,93.8,33.2,1400.0,8679.0,26.0,
176700,1866.7,89.7,97.9,33.2,1400.0,8679.0,26.0,
176900,1855.2,39.3,103.4,33.2,1400.0,8679.0,26.0,
177000,1859.6,41.6,103.7,33.2,1400.0,8679.0,26.0,
177100,1860.1,35.0,104.1,33.2,1400.0,8679.0,26.0,
177200,1861.3,44.8,104.1,119.1,1400.0,8679.0,26.0,
177300,1861.8,34.8,92.6,119.1,1400.0,8679.0,26.0,
177400,1864.0,38.1,83.1,119.1,1400.0,8679.0,26.0,
177500,1861.4,36.5,73.7,119.1,1400.0,8679.0,26.0,
177600,1860.4,37.2,62.2,119.1,1400.0,8679.0,26.0,
177700,1860.8,41.0,55.5,119.1,1400.0,8679.0,26.0,
177900,1870.0,124.6,62.0,99.6,1400.0,8679.0,26.0,
178000,1860.9,108.7,75.8,64.5,1400.0,8679.0,26.0,
178100,1849.5,109.4,88.0,35.2,1400.0,8679.0,26.0,
178200,1849.7,93.4,95.4,33.2,1400.0,8679.0,26.0,
178300,1856.5,90.9,101.1,33.2,1400.0,8679.0,26.0,
178400,1865.1,95.1,105.6,33.2,1400.0,8679.0,26.0,
178500,1855.4,40.5,107.7,33.2,1400.0,8679.0,26.0,
178600,1861.5,43.2,107.9,33.2,1400.0,8679.0,26.0,
178700,1861.8,42.5,108.1,33.2,1400.0,8679.0,26.0,
178900,1862.7,34.3,99.3,119.1,1400.0,8679.0,26.0,
179000,1861.4,34.6,88.9,119.1,1400.0,8679.0,26.0,
179100,1860.8,32.4,76.7,119.1,1400.0,8679.0,26.0,
179200,1860.8,51.3,66.9,119.1,1400.0,8679.0,26.0,
179300,1861.3,48.6,60.3,119.1,1400.0,8679.0,26.0,
179400,1862.7,75.2,53.3,101.6,1400.0,8679.0,26.0,
179500,1867.7,124.9,65.1,68.4,1400.0,8679.0,26.0,
179600,1864.9,121.7,84.7,66.4,1400.0,8679.0,26.0,
179700,1879.7,126.1,94.1,62.5,1400.0,8679.0,26.0,
179900,1860.5,93.7,107.6,33.2,1400.0,8679.0,26.0,
180000,1863.9,88.9,112.3,33.2,1400.0,8679.0,26.0,
180100,1860.4,37.0,114.5,33.2,1400.0,8679.0,26.0,
180200,1860.1,35.7,114.6,33.2,1400.0,8679.0,26.0,
180300,1860.4,29.8,113.2,35.2,1400.0,8679.0,26.0,
180400,1860.9,38.4,112.5,87.9,1400.0,8679.0,26.0,
180500,1865.0,33.6,104.0,119.1,1400.0,8679.0,26.0,
180600,1862.5,38.8,88.5,119.1,1400.0,8679.0,26.0,
180700,1859.0,40.9,78.5,119.1,1400.0,8679.0,26.0,
180900,1861.8,36.4,60.1,91.8,1400.0,8679.0,26.0,
181000,1858.1,41.6,51.3,89.8,1400.0,8679.0,26.0,
181100,1870.3,129.5,58.3,119.1,1400.0,8679.0,26.0,
181200,1846.8,112.0,74.6,66.4,1400.0,8679.0,26.0,
181300,1856.9,101.9,84.5,35.2,1400.0,8679.0,26.0,
181400,1859.8,95.1,92.2,33.2,1400.0,8679.0,26.0,
181500,1867.3,94.6,98.5,33.2,1400.0,8679.0,26.0,
181600,1863.2,92.9,103.1,33.2,1400.0,8679.0,26.0,
181700,1847.8,43.2,106.3,33.2,1400.0,8679.0,26.0,
181900,1859.4,38.6,105.4,33.2,1400.0,8679.0,26.0,
182000,1863.5,44.1,105.8,58.6,1400.0,8679.0,26.0,
182100,1862.0,42.4,100.2,119.1,1400.0,8679.0,26.0,
182200,1860.8,34.0,88.9,119.1,1400.0,8679.0,26.0,
182300,1861.1,44.4,79.7,119.1,1400.0,8679.0,26.0,
182400,1864.6,36.8,71.4,119.1,1400.0,8679.0,26.0,
182500,1861.2,52.0,62.5,119.1,1400.0,8679.0,26.0,
182600,1861.0,48.5,55.6,119.1,1400.0,8679.0,26.0,
182700,1867.3,126.8,57.5,101.6,1400.0,8679.0,26.0,
182900,1861.3,93.3,84.8,58.6,1400.0,8679.0,26.0,
183000,1861.3,86.7,91.5,35.2,1400.0,8679.0,26.0,
183100,1863.3,78.9,96.4,33.2,1400.0,8679.0,26.0,
183200,1873.4,101.2,100.5,33.2,1400.0,8679.0,26.0,
183300,1863.6,40.8,104.5,33.2,1400.0,8679.0,26.0,
183400,1861.6,40.1,104.1,33.2,1400.0,8679.0,26.0,
183500,1863.3,54.4,104.5,33.2,1400.0,8679.0,26.0,
183600,1859.0,52.2,105.2,58.6,1400.0,8679.0,26.0,
183700,1862.3,43.8,101.1,99.6,1400.0,8679.0,26.0,
183900,1863.7,38.2,80.0,101.6,1400.0,8679.0,26.0,
184000,1860.5,42.6,71.9,119.1,1400.0,8679.0,26.0,
184100,1861.2,35.1,64.7,119.1,1400.0,8679.0,26.0,
184200,1868.0,45.4,57.9,119.1,1400.0,8679.0,26.0,
184300,1852.0,124.7,60.1,119.1,1400.0,8679.0,26.0,
184400,1854.4,98.0,77.4,68.4,1400.0,8679.0,26.0,
184500,1861.0,120.5,89.4,44.9,1400.0,8679.0,26.0,
184600,1863.9,94.9,96.4,33.2,1400.0,8679.0,26.0,
184700,1852.9,100.4,100.5,33.2,1400.0,8679.0,26.0,
184900,1858.9,46.0,109.6,33.2,1400.0,8679.0,26.0,
185000,1861.8,38.5,109.5,33.2,1400.0,8679.0,26.0,
185100,1859.1,32.7,109.4,33.2,1400.0,8679.0,26.0,
185200,1862.2,32.5,109.2,60.5,1400.0,8679.0,26.0,
185300,1861.5,37.2,104.3,119.1,1400.0,8679.0,26.0,
185400,1859.9,36.4,92.3,119.1,1400.0,8679.0,26.0,
185500,1863.6,33.2,80.2,119.1,1400.0,8679.0,26.0,
185600,1862.3,40.8,69.8,119.1,1400.0,8679.0,26.0,
185700,1860.0,34.9,63.3,119.1,1400.0,8679.0,26.0,
185900,1880.4,115.6,50.1,119.1,1400.0,8679.0,26.0,
186000,1850.9,145.2,69.6,95.7,1400.0,8679.0,26.0,
186100,1855.1,88.5,83.4,62.5,1400.0,8679.0,26.0,
186200,1862.4,93.0,90.0,44.9,1400.0,8679.0,26.0,
186300,1870.3,102.3,100.3,33.2,1400.0,8679.0,26.0,
186400,1866.1,96.9,107.1,33.2,1400.0,8679.0,26.0,
186500,1861.4,59.2,111.1,33.2,1400.0,8679.0,26.0,
186600,1849.8,42.9,111.8,33.2,1400.0,8679.0,26.0,
186700,1860.7,32.6,111.9,33.2,1400.0,8679.0,26.0,
186900,1858.9,49.0,111.1,91.8,1400.0,8679.0,26.0,
187000,1862.5,44.6,100.5,89.8,1400.0,8679.0,26.0,
187100,1859.7,33.1,89.6,76.2,1400.0,8679.0,26.0,
187200,1859.1,36.7,83.4,82.0,1400.0,8679.0,26.0,
187300,1861.4,38.0,70.9,99.6,1400.0,8679.0,26.0,
187400,1861.5,56.1,61.7,111.3,1400.0,8679.0,26.0,
187500,1865.6,82.7,55.0,85.9,1400.0,8679.0,26.0,
187600,1865.5,111.6,67.9,64.5,1400.0,8679.0,26.0,
187700,1876.2,117.2,80.0,52.7,1400.0,8679.0,26.0,
187900,1856.1,73.8,92.6,33.2,1400.0,8679.0,26.0,
188000,1860.8,79.6,96.2,33.2,1400.0,8679.0,26.0,
188100,1870.6,74.1,99.5,33.2,1400.0,8679.0,26.0,
188200,1856.2,32.7,100.1,33.2,1400.0,8679.0,26.0,
188300,1857.9,34.5,99.8,33.2,1400.0,8679.0,26.0,
188400,1859.9,32.1,98.9,33.2,1400.0,8679.0,26.0,
188500,1863.5,37.5,98.1,91.8,1400.0,8679.0,26.0,
188600,1862.8,34.0,89.1,119.1,1400.0,8679.0,26.0,
188700,1857.8,32.7,78.0,119.1,1400.0,8679.0,26.0,
188900,1857.7,37.7,60.0,119.1,1400.0,8679.0,26.0,
189000,1863.3,35.5,53.3,119.1,1400.0,8679.0,26.0,
189100,1859.6,98.1,46.5,119.1,1400.0,8679.0,26.0,
189200,1856.3,120.1,66.4,119.1,1400.0,8679.0,26.0,
189300,1857.2,106.5,77.6,64.5,1400.0,8679.0,26.0,
189400,1867.5,103.5,86.3,37.1,1400.0,8679.0,26.0,
189500,1859.6,78.3,91.0,33.2,1400.0,8679.0,26.0,
189600,1856.3,77.0,96.0,33.2,1400.0,8679.0,26.0,
189700,1857.8,72.5,100.0,33.2,1400.0,8679.0,26.0,
189900,1862.0,35.4,101.1,33.2,1400.0,8679.0,26.0,
190000,1860.0,32.7,100.9,39.1,1400.0,8679.0,26.0,
190100,1865.3,39.6,101.0,76.2,1400.0,8679.0,26.0,
190200,1862.2,40.9,88.7,117.2,1400.0,8679.0,26.0,
190300,1864.1,37.9,79.2,119.1,1400.0,8679.0,26.0,
190400,1858.2,36.1,70.0,117.2,1400.0,8679.0,26.0,
