Time(ms),ENV_Value,RMS,MDF,MW_Amp,MW_Area,MW_Latency,Marker
0,3.5,0.0,0.0,0.0,0.0,0.0,
100,138.3,0.0,0.0,0.0,0.0,0.0,
200,143.1,0.0,35.2,0.0,0.0,0.0,
300,166.3,0.0,35.2,0.0,0.0,0.0,
400,171.5,0.0,35.2,513.0,2933.0,13.0,
500,166.2,0.0,35.2,513.0,2933.0,13.0,
600,133.3,0.0,35.2,496.0,2778.0,12.0,
700,28.5,0.0,35.2,505.0,2825.0,13.0,
800,8.9,0.0,39.1,505.0,2825.0,13.0,
900,5.4,177.4,50.8,505.0,2825.0,13.0,
1000,6.2,177.4,66.4,505.0,2825.0,13.0,
1100,63.6,173.5,62.5,505.0,2825.0,13.0,
1200,6.6,163.8,58.6,505.0,2825.0,13.0,
1300,3.8,150.0,46.9,505.0,2825.0,13.0,
1400,6.0,132.0,70.3,505.0,2825.0,13.0,
1500,5.3,110.0,78.1,505.0,2825.0,13.0,
1600,8.5,71.3,70.3,505.0,2825.0,13.0,
1700,148.9,53.4,128.9,486.0,3358.0,15.0,
1900,152.2,129.1,35.2,538.0,2818.0,14.0,
2000,175.9,153.0,35.2,581.0,3270.0,13.0,
2100,173.7,172.4,35.2,445.0,3038.0,15.0,
2200,172.9,187.2,35.2,482.0,3144.0,14.0,
2300,32.2,200.1,35.2,463.0,2963.0,14.0,
2400,7.2,200.1,35.2,463.0,2963.0,14.0,
2500,4.4,200.0,35.2,463.0,2963.0,14.0,
2600,3.4,200.0,78.1,463.0,2963.0,14.0,
2700,4.1,194.9,70.3,463.0,2963.0,14.0,
2900,41.7,155.6,89.8,463.0,2963.0,14.0,
3000,16.3,134.6,62.5,463.0,2963.0,14.0,
3100,5.1,107.0,58.6,463.0,2963.0,14.0,
3200,6.8,75.2,46.9,463.0,2963.0,14.0,
3300,146.3,45.2,140.6,522.0,3599.0,15.0,
3400,167.1,91.6,43.0,532.0,3428.0,14.0,
3500,176.5,118.1,35.2,532.0,3428.0,14.0,
3600,160.2,142.0,35.2,532.0,3428.0,14.0,
3700,146.4,159.5,35.2,532.0,3428.0,14.0,
3900,42.7,187.3,35.2,532.0,3428.0,14.0,
4000,7.5,185.6,54.7,532.0,3428.0,14.0,
4100,4.7,185.6,43.0,532.0,3428.0,14.0,
4200,3.8,185.6,70.3,532.0,3428.0,14.0,
4300,7.2,181.9,62.5,532.0,3428.0,14.0,
4400,3.2,163.5,66.4,532.0,3428.0,14.0,
4500,4.3,145.5,66.4,532.0,3428.0,14.0,
4600,4.5,122.2,66.4,532.0,3428.0,14.0,
4700,4.9,98.2,54.7,532.0,3428.0,14.0,
4900,140.1,33.5,156.3,533.0,3587.0,15.0,
5000,141.7,80.0,50.8,533.0,3587.0,15.0,
5100,184.2,109.9,35.2,533.0,3587.0,15.0,
5200,186.4,133.5,35.2,533.0,3587.0,15.0,
5300,189.5,152.3,35.2,533.0,3587.0,15.0,
5400,139.4,168.2,35.2,533.0,3587.0,15.0,
5500,52.9,178.3,35.2,533.0,3587.0,15.0,
5600,8.4,179.2,35.2,533.0,3587.0,15.0,
5700,4.4,179.2,35.2,533.0,3587.0,15.0,
5900,2.9,176.1,66.4,533.0,3587.0,15.0,
6000,4.2,160.3,74.2,533.0,3587.0,15.0,
6100,3.7,141.6,58.6,533.0,3587.0,15.0,
6200,3.6,119.7,70.3,533.0,3587.0,15.0,
6300,4.2,94.6,66.4,533.0,3587.0,15.0,
6400,3.3,61.9,66.4,533.0,3587.0,15.0,
6500,137.6,18.7,66.4,533.0,3587.0,15.0,
6600,175.9,71.7,195.3,533.0,3587.0,15.0,
6700,158.9,101.6,62.5,533.0,3587.0,15.0,
6900,166.0,140.3,35.2,533.0,3587.0,15.0,
7000,175.7,153.4,31.3,533.0,3587.0,15.0,
7100,76.4,168.8,31.3,533.0,3587.0,15.0,
7200,9.1,170.8,35.2,533.0,3587.0,15.0,
7300,4.2,170.8,35.2,533.0,3587.0,15.0,
7400,2.9,170.8,78.1,533.0,3587.0,15.0,
7500,3.8,170.8,97.7,533.0,3587.0,15.0,
7600,3.5,155.2,78.1,533.0,3587.0,15.0,
7700,4.2,137.5,46.9,533.0,3587.0,15.0,
7900,6.3,97.5,62.5,533.0,3587.0,15.0,
8000,6.2,75.3,74.2,533.0,3587.0,15.0,
8100,118.8,27.1,82.0,533.0,3587.0,15.0,
8200,171.7,66.3,35.2,533.0,3587.0,15.0,
8300,205.6,98.6,35.2,533.0,3587.0,15.0,
8400,194.2,132.8,35.2,599.0,3827.0,15.0,
8500,160.9,158.5,35.2,544.0,3617.0,13.0,
8600,187.2,179.7,35.2,534.0,3304.0,16.0,
8700,110.5,198.5,35.2,489.0,3344.0,13.0,
8900,6.1,204.5,35.2,489.0,3344.0,13.0,
9000,3.4,204.4,62.5,489.0,3344.0,13.0,
9100,3.1,204.4,66.4,489.0,3344.0,13.0,
9200,5.1,193.4,66.4,489.0,3344.0,13.0,
9300,3.3,179.1,70.3,489.0,3344.0,13.0,
9400,3.5,155.6,70.3,489.0,3344.0,13.0,
9500,4.9,129.3,74.2,489.0,3344.0,13.0,
9600,9.2,97.7,70.3,489.0,3344.0,13.0,
9700,114.1,49.5,50.8,489.0,3344.0,13.0,
9900,192.1,118.5,35.2,592.0,3669.0,14.0,
10000,193.0,148.8,35.2,568.0,3708.0,13.0,
10100,203.8,171.7,35.2,567.0,3500.0,14.0,
10200,157.2,195.6,35.2,528.0,3366.0,15.0,
10300,140.5,211.5,35.2,451.0,3422.0,13.0,
10400,12.6,217.5,35.2,451.0,3422.0,13.0,
10500,5.7,217.5,35.2,451.0,3422.0,13.0,
10600,3.6,217.5,50.8,451.0,3422.0,13.0,
10700,3.0,217.5,50.8,451.0,3422.0,13.0,
10900,2.9,182.5,58.6,451.0,3422.0,13.0,
11000,3.6,158.8,62.5,451.0,3422.0,13.0,
11100,3.3,133.7,70.3,451.0,3422.0,13.0,
11200,3.6,95.4,101.6,451.0,3422.0,13.0,
11300,58.7,51.0,85.9,451.0,3422.0,13.0,
11400,172.3,68.4,156.3,518.0,3140.0,15.0,
11500,149.6,112.1,43.0,497.0,3112.0,14.0,
11600,167.9,136.6,35.2,457.0,2829.0,14.0,
11700,172.2,157.0,35.2,440.0,3252.0,14.0,
11900,153.7,187.0,35.2,440.0,3252.0,14.0,
12000,17.1,194.4,35.2,440.0,3252.0,14.0,
12100,7.7,194.4,35.2,440.0,3252.0,14.0,
12200,4.2,194.4,50.8,440.0,3252.0,14.0,
12300,3.2,194.4,70.3,440.0,3252.0,14.0,
12400,3.7,182.0,66.4,440.0,3252.0,14.0,
12500,4.0,158.9,74.2,440.0,3252.0,14.0,
12600,3.7,138.3,70.3,440.0,3252.0,14.0,
12700,2.9,114.7,70.3,440.0,3252.0,14.0,
12900,8.2,53.3,70.3,440.0,3252.0,14.0,
13000,170.8,61.0,144.5,575.0,3594.0,15.0,
13100,186.3,98.4,35.2,671.0,3764.0,30.0,
13200,194.2,125.7,35.2,671.0,3764.0,30.0,
13300,162.7,151.7,62.5,671.0,3764.0,30.0,
13400,175.5,168.0,62.5,671.0,3764.0,30.0,
13500,155.2,181.1,35.2,671.0,3764.0,30.0,
13600,20.7,187.6,35.2,671.0,3764.0,30.0,
13700,4.1,187.7,35.2,671.0,3764.0,30.0,
13900,3.3,187.7,66.4,671.0,3764.0,30.0,
14000,2.9,177.5,74.2,671.0,3764.0,30.0,
14100,5.1,159.9,97.7,671.0,3764.0,30.0,
14200,3.6,139.5,62.5,671.0,3764.0,30.0,
14300,3.3,110.6,66.4,671.0,3764.0,30.0,
14400,6.5,84.0,93.8,671.0,3764.0,30.0,
14500,6.2,49.2,70.3,671.0,3764.0,30.0,
14600,157.3,48.4,43.0,671.0,3764.0,30.0,
14700,175.6,85.6,35.2,671.0,3764.0,30.0,
14900,200.4,136.3,35.2,671.0,3764.0,30.0,
15000,153.9,162.4,35.2,587.0,3275.0,14.0,
15100,167.2,180.0,35.2,459.0,2992.0,14.0,
15200,24.4,192.5,35.2,464.0,3301.0,12.0,
15300,4.8,192.5,35.2,464.0,3301.0,12.0,
15400,3.0,192.5,39.1,464.0,3301.0,12.0,
15500,3.2,192.5,78.1,464.0,3301.0,12.0,
15600,3.0,186.4,78.1,464.0,3301.0,12.0,
15700,2.7,172.5,97.7,464.0,3301.0,12.0,
15900,2.9,136.0,70.3,464.0,3301.0,12.0,
16000,3.5,103.5,66.4,464.0,3301.0,12.0,
16100,4.8,68.5,82.0,464.0,3301.0,12.0,
16200,179.4,46.5,144.5,487.0,3553.0,15.0,
16300,181.0,108.8,43.0,584.0,3519.0,15.0,
16400,154.7,141.7,35.2,577.0,3684.0,14.0,
16500,197.1,169.2,35.2,572.0,3699.0,14.0,
16600,184.1,191.4,35.2,558.0,3419.0,15.0,
16700,199.8,208.8,35.2,542.0,3778.0,15.0,
16900,11.4,225.3,35.2,542.0,3778.0,15.0,
17000,4.8,225.3,58.6,542.0,3778.0,15.0,
17100,68.7,225.3,82.0,542.0,3778.0,15.0,
17200,8.5,222.4,58.6,542.0,3778.0,15.0,
17300,3.9,199.6,54.7,542.0,3778.0,15.0,
17400,3.1,177.7,62.5,542.0,3778.0,15.0,
17500,4.0,151.8,62.5,542.0,3778.0,15.0,
17600,3.6,122.6,78.1,542.0,3778.0,15.0,
17700,5.6,89.8,82.0,542.0,3778.0,15.0,
17900,187.9,93.5,39.1,525.0,3489.0,14.0,
18000,193.5,124.4,35.2,525.0,3489.0,14.0,
18100,161.6,147.2,35.2,525.0,3489.0,14.0,
18200,152.1,157.0,35.2,525.0,3489.0,14.0,
18300,138.4,167.6,31.3,525.0,3489.0,14.0,
18400,42.3,175.4,31.3,525.0,3489.0,14.0,
18500,15.4,175.7,31.3,525.0,3489.0,14.0,
18600,9.5,175.8,35.2,525.0,3489.0,14.0,
18700,6.9,175.8,54.7,525.0,3489.0,14.0,
18900,6.1,151.9,50.8,525.0,3489.0,14.0,
19000,30.0,127.7,70.3,525.0,3489.0,14.0,
19100,10.3,102.5,58.6,525.0,3489.0,14.0,
19200,6.2,81.7,58.6,525.0,3489.0,14.0,
19300,6.7,57.0,46.9,525.0,3489.0,14.0,
19400,127.8,30.8,43.0,525.0,3489.0,14.0,
19500,145.9,66.4,39.1,525.0,3489.0,14.0,
19600,140.1,90.0,35.2,525.0,3489.0,14.0,
19700,158.9,105.3,31.3,525.0,3489.0,14.0,
19900,133.6,138.1,31.3,525.0,3489.0,14.0,
20000,50.6,153.2,31.3,525.0,3489.0,14.0,
20100,8.6,152.5,35.2,525.0,3489.0,14.0,
20200,5.3,152.6,35.2,525.0,3489.0,14.0,
20300,5.9,152.6,62.5,525.0,3489.0,14.0,
20400,10.2,151.2,62.5,525.0,3489.0,14.0,
20500,3.8,139.1,66.4,525.0,3489.0,14.0,
20600,4.2,125.0,66.4,525.0,3489.0,14.0,
20700,4.1,112.3,54.7,525.0,3489.0,14.0,
20900,6.4,68.1,70.3,525.0,3489.0,14.0,
21000,142.8,15.9,54.7,525.0,3489.0,14.0,
21100,188.0,71.6,35.2,525.0,3489.0,14.0,
21200,156.2,105.5,35.2,525.0,3489.0,14.0,
21300,205.0,132.5,35.2,525.0,3489.0,14.0,
21400,180.8,153.1,35.2,644.0,3283.0,15.0,
21500,173.9,171.1,35.2,482.0,3130.0,13.0,
21600,66.6,189.6,35.2,465.0,2944.0,11.0,
21700,11.6,190.8,35.2,465.0,2944.0,11.0,
21900,23.1,193.0,58.6,465.0,2944.0,11.0,
22000,5.1,193.1,58.6,465.0,2944.0,11.0,
22100,4.6,179.5,43.0,465.0,2944.0,11.0,
22200,3.2,162.0,58.6,465.0,2944.0,11.0,
22300,3.8,140.7,43.0,465.0,2944.0,11.0,
22400,6.9,118.0,66.4,465.0,2944.0,11.0,
22500,6.3,89.8,66.4,465.0,2944.0,11.0,
22600,136.8,37.0,66.4,465.0,2944.0,11.0,
22700,175.4,81.4,39.1,556.0,3655.0,16.0,
22900,185.7,142.4,35.2,651.0,4586.0,17.0,
23000,179.0,165.4,35.2,526.0,3046.0,14.0,
23100,178.4,183.7,35.2,514.0,3489.0,14.0,
23200,97.9,199.2,35.2,476.0,3163.0,13.0,
23300,9.2,203.9,35.2,476.0,3163.0,13.0,
23400,4.1,203.9,35.2,476.0,3163.0,13.0,
23500,2.5,203.9,54.7,476.0,3163.0,13.0,
23600,4.7,203.9,74.2,476.0,3163.0,13.0,
23700,3.6,189.4,66.4,476.0,3163.0,13.0,
23900,4.8,146.3,62.5,476.0,3163.0,13.0,
24000,4.0,119.4,46.9,476.0,3163.0,13.0,
24100,3.9,88.6,97.7,476.0,3163.0,13.0,
24200,122.3,44.0,85.9,476.0,3163.0,13.0,
24300,187.0,83.7,66.4,610.0,3830.0,16.0,
24400,190.7,119.3,35.2,530.0,3666.0,14.0,
24500,190.9,144.5,35.2,539.0,3606.0,16.0,
24600,187.4,165.6,35.2,535.0,3685.0,15.0,
24700,146.4,186.5,35.2,577.0,3209.0,17.0,
24900,12.3,205.0,35.2,577.0,3209.0,17.0,
25000,3.9,205.0,35.2,577.0,3209.0,17.0,
25100,3.7,205.0,70.3,577.0,3209.0,17.0,
25200,3.5,205.0,66.4,577.0,3209.0,17.0,
25300,3.7,187.3,46.9,577.0,3209.0,17.0,
25400,33.7,167.8,70.3,577.0,3209.0,17.0,
25500,4.1,148.1,62.5,577.0,3209.0,17.0,
25600,3.3,124.1,46.9,577.0,3209.0,17.0,
25700,3.9,89.5,74.2,577.0,3209.0,17.0,
25900,181.1,72.2,136.7,580.0,3704.0,16.0,
26000,151.0,114.4,35.2,568.0,4025.0,16.0,
26100,182.6,137.7,35.2,523.0,3706.0,15.0,
26200,158.9,157.8,35.2,523.0,3706.0,15.0,
26300,165.1,173.3,35.2,523.0,3706.0,15.0,
26400,141.1,188.2,62.5,523.0,3706.0,15.0,
26500,14.1,191.9,93.8,523.0,3706.0,15.0,
26600,4.6,191.9,66.4,523.0,3706.0,15.0,
26700,4.9,191.9,62.5,523.0,3706.0,15.0,
26900,3.8,180.0,70.3,523.0,3706.0,15.0,
27000,3.4,156.5,85.9,523.0,3706.0,15.0,
27100,4.1,136.4,70.3,523.0,3706.0,15.0,
27200,3.7,112.5,62.5,523.0,3706.0,15.0,
27300,4.2,87.0,70.3,523.0,3706.0,15.0,
27400,48.1,42.6,74.2,523.0,3706.0,15.0,
27500,173.8,61.6,261.7,523.0,3706.0,15.0,
27600,192.5,96.1,66.4,523.0,3706.0,15.0,
27700,172.1,122.6,35.2,523.0,3706.0,15.0,
27900,170.2,155.5,35.2,523.0,3706.0,15.0,
28000,167.3,168.8,31.3,523.0,3706.0,15.0,
28100,17.2,176.6,35.2,523.0,3706.0,15.0,
28200,5.2,176.6,35.2,523.0,3706.0,15.0,
28300,46.2,176.6,39.1,523.0,3706.0,15.0,
28400,14.0,179.0,58.6,523.0,3706.0,15.0,
28500,5.0,168.2,54.7,523.0,3706.0,15.0,
28600,3.7,151.2,43.0,523.0,3706.0,15.0,
28700,3.2,130.7,66.4,523.0,3706.0,15.0,
28900,4.5,88.9,66.4,523.0,3706.0,15.0,
29000,6.1,59.8,70.3,523.0,3706.0,15.0,
29100,148.4,60.1,54.7,523.0,3706.0,15.0,
29200,206.9,97.1,35.2,523.0,3706.0,15.0,
29300,180.4,125.6,35.2,565.0,3525.0,16.0,
29400,190.6,146.0,35.2,536.0,2994.0,15.0,
29500,147.8,173.0,35.2,514.0,3227.0,15.0,
29600,171.0,193.5,35.2,408.0,2664.0,18.0,
29700,21.4,205.9,62.5,408.0,2664.0,18.0,
29900,2.6,205.9,66.4,408.0,2664.0,18.0,
30000,2.9,205.9,62.5,408.0,2664.0,18.0,
30100,2.6,199.3,66.4,408.0,2664.0,18.0,
30200,3.2,184.0,101.6,408.0,2664.0,18.0,
30300,2.7,165.9,85.9,408.0,2664.0,18.0,
30400,3.3,145.3,93.8,408.0,2664.0,18.0,
30500,2.6,111.7,70.3,408.0,2664.0,18.0,
30600,6.6,70.5,70.3,408.0,2664.0,18.0,
30700,170.5,49.8,175.8,493.0,3668.0,16.0,
30900,175.0,136.9,35.2,446.0,3094.0,15.0,
31000,163.8,160.8,35.2,497.0,3592.0,17.0,
31100,156.3,179.4,35.2,433.0,2496.0,14.0,
31200,134.7,196.0,35.2,448.0,2810.0,13.0,
31300,26.3,204.4,62.5,399.0,2415.0,16.0,
31400,7.1,204.4,62.5,399.0,2415.0,16.0,
31500,3.1,204.4,43.0,399.0,2415.0,16.0,
31600,3.6,204.4,54.7,399.0,2415.0,16.0,
31700,3.4,198.3,74.2,399.0,2415.0,16.0,
31900,3.8,151.9,70.3,399.0,2415.0,16.0,
32000,4.6,126.4,66.4,399.0,2415.0,16.0,
32100,2.7,98.1,66.4,399.0,2415.0,16.0,
32200,6.0,58.4,66.4,399.0,2415.0,16.0,
32300,157.6,42.7,148.4,510.0,3769.0,16.0,
32400,157.5,84.3,43.0,510.0,3769.0,16.0,
32500,160.5,113.4,35.2,510.0,3769.0,16.0,
32600,128.0,133.2,66.4,510.0,3769.0,16.0,
32700,145.3,148.4,93.8,510.0,3769.0,16.0,
32900,50.9,166.7,35.2,510.0,3769.0,16.0,
33000,22.0,167.3,35.2,510.0,3769.0,16.0,
33100,15.2,167.4,62.5,510.0,3769.0,16.0,
33200,8.2,167.5,66.4,510.0,3769.0,16.0,
33300,6.2,162.1,50.8,510.0,3769.0,16.0,
33400,4.5,145.0,66.4,510.0,3769.0,16.0,
33500,6.0,123.5,54.7,510.0,3769.0,16.0,
33600,5.1,101.9,54.7,510.0,3769.0,16.0,
33700,4.8,78.2,54.7,510.0,3769.0,16.0,
33900,119.3,28.0,89.8,510.0,3769.0,16.0,
34000,158.2,65.1,35.2,510.0,3769.0,16.0,
34100,137.8,90.9,31.3,510.0,3769.0,16.0,
34200,148.2,111.0,35.2,510.0,3769.0,16.0,
34300,131.7,134.4,35.2,350.0,2092.0,15.0,
34400,161.0,153.5,35.2,383.0,2616.0,14.0,
34500,54.4,172.4,62.5,434.0,2371.0,13.0,
34600,26.3,172.7,62.5,434.0,2371.0,13.0,
34700,9.3,172.8,58.6,434.0,2371.0,13.0,
34900,6.6,171.5,62.5,434.0,2371.0,13.0,
35000,8.7,160.5,78.1,434.0,2371.0,13.0,
35100,25.8,149.9,62.5,434.0,2371.0,13.0,
35200,8.6,136.2,58.6,434.0,2371.0,13.0,
35300,8.2,113.2,46.9,434.0,2371.0,13.0,
35400,5.6,85.5,97.7,434.0,2371.0,13.0,
35500,156.2,33.9,58.6,582.0,3945.0,17.0,
35600,143.2,93.8,39.1,507.0,3026.0,17.0,
35700,154.0,120.7,35.2,409.0,2413.0,18.0,
35900,133.6,162.5,93.8,338.0,2305.0,19.0,
36000,120.6,182.5,97.7,323.0,2194.0,19.0,
36100,60.8,194.0,128.9,358.0,2264.0,15.0,
36200,23.0,194.2,160.2,358.0,2264.0,15.0,
36300,19.4,194.5,93.8,358.0,2264.0,15.0,
36400,10.5,194.6,62.5,358.0,2264.0,15.0,
36500,7.1,194.6,66.4,358.0,2264.0,15.0,
36600,6.4,173.7,62.5,358.0,2264.0,15.0,
36700,9.8,156.0,66.4,358.0,2264.0,15.0,
36900,8.1,111.9,58.6,358.0,2264.0,15.0,
37000,41.5,77.5,66.4,358.0,2264.0,15.0,
37100,159.6,36.1,58.6,605.0,4142.0,16.0,
37200,152.3,93.8,66.4,539.0,3336.0,18.0,
37300,155.0,122.7,35.2,451.0,2759.0,18.0,
37400,122.5,150.9,35.2,366.0,2560.0,19.0,
37500,140.4,167.0,66.4,360.0,2411.0,18.0,
37600,125.9,179.8,66.4,339.0,2294.0,11.0,
37700,65.6,190.5,66.4,339.0,2294.0,11.0,
37900,32.4,194.0,93.8,339.0,2294.0,11.0,
38000,22.1,193.2,66.4,339.0,2294.0,11.0,
38100,13.0,192.2,70.3,339.0,2294.0,11.0,
38200,10.9,171.1,35.2,339.0,2294.0,11.0,
38300,8.0,151.5,62.5,339.0,2294.0,11.0,
38400,8.0,123.0,62.5,339.0,2294.0,11.0,
38500,8.6,100.2,62.5,339.0,2294.0,11.0,
38600,6.6,74.9,50.8,339.0,2294.0,11.0,
38700,104.8,40.7,54.7,339.0,2294.0,11.0,
38900,134.2,95.6,35.2,339.0,2294.0,11.0,
39000,119.7,112.7,35.2,339.0,2294.0,11.0,
39100,115.8,128.9,175.8,339.0,2294.0,11.0,
39200,110.9,139.4,253.9,339.0,2294.0,11.0,
39300,76.6,147.2,226.6,339.0,2294.0,11.0,
39400,20.4,150.0,66.4,339.0,2294.0,11.0,
39500,27.9,150.1,43.0,339.0,2294.0,11.0,
39600,22.2,150.5,78.1,339.0,2294.0,11.0,
39700,17.5,150.9,78.1,339.0,2294.0,11.0,
39900,7.1,118.1,50.8,339.0,2294.0,11.0,
40000,6.3,101.6,39.1,339.0,2294.0,11.0,
40100,5.6,79.8,43.0,339.0,2294.0,11.0,
40200,5.3,59.2,70.3,339.0,2294.0,11.0,
40300,68.3,35.2,70.3,339.0,2294.0,11.0,
40400,136.6,54.6,43.0,339.0,2294.0,11.0,
40500,86.7,75.0,35.2,339.0,2294.0,11.0,
40600,113.8,85.1,35.2,339.0,2294.0,11.0,
40700,110.3,97.4,35.2,339.0,2294.0,11.0,
40900,103.0,124.4,62.5,339.0,2294.0,11.0,
41000,25.6,130.0,62.5,339.0,2294.0,11.0,
41100,18.3,130.4,58.6,339.0,2294.0,11.0,
41200,14.8,130.6,85.9,339.0,2294.0,11.0,
41300,14.7,130.8,39.1,339.0,2294.0,11.0,
41400,10.2,120.5,39.1,339.0,2294.0,11.0,
41500,5.6,108.8,43.0,339.0,2294.0,11.0,
41600,5.3,100.5,43.0,339.0,2294.0,11.0,
41700,5.6,87.9,70.3,339.0,2294.0,11.0,
41900,40.1,41.4,66.4,339.0,2294.0,11.0,
42000,128.5,48.5,39.1,339.0,2294.0,11.0,
42100,129.5,76.5,35.2,339.0,2294.0,11.0,
42200,136.9,104.3,35.2,339.0,2294.0,11.0,
42300,150.8,125.7,35.2,380.0,2352.0,13.0,
42400,158.9,144.7,35.2,539.0,2816.0,11.0,
42500,144.6,164.1,62.5,436.0,2506.0,11.0,
42600,28.6,176.5,66.4,322.0,1887.0,9.0,
42700,10.4,176.9,66.4,322.0,1887.0,9.0,
42900,20.5,177.0,54.7,322.0,1887.0,9.0,
43000,8.0,171.1,58.6,322.0,1887.0,9.0,
43100,5.1,160.3,58.6,322.0,1887.0,9.0,
43200,6.9,143.6,66.4,322.0,1887.0,9.0,
43300,7.1,125.2,101.6,322.0,1887.0,9.0,
43400,5.8,102.5,74.2,322.0,1887.0,9.0,
43500,15.3,67.4,70.3,322.0,1887.0,9.0,
43600,166.0,63.2,168.0,469.0,2976.0,19.0,
43700,163.3,105.8,101.6,504.0,3126.0,19.0,
43900,132.1,161.6,97.7,362.0,2498.0,18.0,
44000,101.7,178.5,97.7,310.0,1914.0,17.0,
44100,137.7,193.3,160.2,278.0,1971.0,13.0,
44200,16.7,202.8,160.2,278.0,1971.0,13.0,
44300,65.0,203.6,152.3,278.0,1971.0,13.0,
44400,10.0,204.9,62.5,278.0,1971.0,13.0,
44500,5.6,204.8,50.8,278.0,1971.0,13.0,
44600,4.5,195.7,62.5,278.0,1971.0,13.0,
44700,4.5,175.9,58.6,278.0,1971.0,13.0,
44900,5.9,126.5,62.5,278.0,1971.0,13.0,
45000,5.4,100.9,43.0,278.0,1971.0,13.0,
45100,8.3,68.3,54.7,278.0,1971.0,13.0,
45200,169.6,72.1,168.0,450.0,3286.0,18.0,
45300,134.1,113.9,128.9,545.0,2759.0,18.0,
45400,154.1,139.1,54.7,351.0,2254.0,18.0,
45500,151.2,160.4,128.9,393.0,2585.0,18.0,
45600,143.6,177.7,128.9,405.0,2486.0,14.0,
45700,110.7,196.1,97.7,333.0,2316.0,9.0,
45900,5.2,204.5,78.1,333.0,2316.0,9.0,
46000,2.4,204.5,50.8,333.0,2316.0,9.0,
46100,2.7,204.5,46.9,333.0,2316.0,9.0,
46200,3.9,193.8,66.4,333.0,2316.0,9.0,
46300,3.1,171.5,46.9,333.0,2316.0,9.0,
46400,4.3,150.1,97.7,333.0,2316.0,9.0,
46500,52.7,128.1,70.3,333.0,2316.0,9.0,
46600,8.3,104.4,58.6,333.0,2316.0,9.0,
46700,7.5,63.3,54.7,333.0,2316.0,9.0,
46900,156.6,100.5,128.9,472.0,2829.0,17.0,
47000,140.8,130.3,35.2,374.0,2429.0,18.0,
47100,135.0,147.8,62.5,360.0,2305.0,12.0,
47200,131.3,161.2,66.4,613.0,2723.0,30.0,
47300,130.5,172.8,160.2,613.0,2723.0,30.0,
47400,26.0,183.8,226.6,613.0,2723.0,30.0,
47500,5.8,183.1,230.5,613.0,2723.0,30.0,
47600,4.7,182.1,168.0,613.0,2723.0,30.0,
47700,4.1,182.1,46.9,613.0,2723.0,30.0,
47900,3.2,154.0,35.2,613.0,2723.0,30.0,
48000,2.8,129.7,54.7,613.0,2723.0,30.0,
48100,3.1,109.3,70.3,613.0,2723.0,30.0,
48200,4.6,88.2,70.3,613.0,2723.0,30.0,
48300,6.2,62.8,66.4,613.0,2723.0,30.0,
48400,108.3,19.2,93.8,613.0,2723.0,30.0,
48500,131.0,54.8,35.2,613.0,2723.0,30.0,
48600,122.5,73.8,31.3,613.0,2723.0,30.0,
48700,127.8,85.7,35.2,613.0,2723.0,30.0,
48900,115.8,107.4,35.2,613.0,2723.0,30.0,
49000,34.7,114.6,35.2,613.0,2723.0,30.0,
49100,6.4,115.1,35.2,613.0,2723.0,30.0,
49200,4.7,115.1,35.2,613.0,2723.0,30.0,
49300,3.9,115.1,62.5,613.0,2723.0,30.0,
49400,4.9,113.6,66.4,613.0,2723.0,30.0,
49500,4.2,101.3,62.5,613.0,2723.0,30.0,
49600,3.4,88.5,54.7,613.0,2723.0,30.0,
49700,4.2,77.0,46.9,613.0,2723.0,30.0,
49900,5.7,41.6,66.4,613.0,2723.0,30.0,
50000,73.5,10.5,66.4,613.0,2723.0,30.0,
50100,95.9,40.1,265.6,613.0,2723.0,30.0,
50200,99.1,57.2,62.5,613.0,2723.0,30.0,
50300,112.7,69.3,35.2,613.0,2723.0,30.0,
50400,124.0,80.9,31.3,613.0,2723.0,30.0,
50500,117.0,93.3,31.3,613.0,2723.0,30.0,
50600,50.4,106.3,31.3,613.0,2723.0,30.0,
50700,21.5,106.9,35.2,613.0,2723.0,30.0,
50900,3.6,107.1,46.9,613.0,2723.0,30.0,
51000,3.5,107.1,54.7,613.0,2723.0,30.0,
51100,3.6,99.5,62.5,613.0,2723.0,30.0,
51200,2.8,90.7,62.5,613.0,2723.0,30.0,
51300,4.2,81.8,54.7,613.0,2723.0,30.0,
51400,3.5,70.3,46.9,613.0,2723.0,30.0,
51500,4.2,52.8,54.7,613.0,2723.0,30.0,
51600,83.3,14.2,46.9,613.0,2723.0,30.0,
51700,147.1,45.2,35.2,613.0,2723.0,30.0,
51900,132.2,91.7,31.3,613.0,2723.0,30.0,
52000,136.5,106.8,31.3,613.0,2723.0,30.0,
52100,144.6,119.0,31.3,613.0,2723.0,30.0,
52200,68.8,131.4,31.3,613.0,2723.0,30.0,
52300,15.4,134.8,35.2,613.0,2723.0,30.0,
52400,6.3,134.9,35.2,613.0,2723.0,30.0,
52500,6.2,134.9,46.9,613.0,2723.0,30.0,
52600,3.5,134.9,43.0,613.0,2723.0,30.0,
52700,4.2,127.3,50.8,613.0,2723.0,30.0,
52900,3.8,99.0,50.8,613.0,2723.0,30.0,
53000,4.1,82.5,35.2,613.0,2723.0,30.0,
53100,5.3,63.7,50.8,613.0,2723.0,30.0,
53200,64.1,30.8,70.3,613.0,2723.0,30.0,
53300,191.9,64.9,128.9,659.0,3882.0,17.0,
53400,164.8,103.6,35.2,588.0,3297.0,16.0,
53500,183.5,128.4,35.2,588.0,3297.0,16.0,
53600,141.6,153.5,35.2,588.0,3297.0,16.0,
53700,165.0,168.3,35.2,588.0,3297.0,16.0,
53900,18.3,187.5,35.2,588.0,3297.0,16.0,
54000,5.0,187.5,35.2,588.0,3297.0,16.0,
54100,4.1,187.5,39.1,588.0,3297.0,16.0,
54200,3.6,187.5,62.5,588.0,3297.0,16.0,
54300,63.1,176.5,78.1,588.0,3297.0,16.0,
54400,8.8,158.5,58.6,588.0,3297.0,16.0,
54500,3.3,139.2,54.7,588.0,3297.0,16.0,
54600,4.4,110.9,39.1,588.0,3297.0,16.0,
54700,7.5,86.7,66.4,588.0,3297.0,16.0,
54900,148.5,73.9,136.7,504.0,3125.0,17.0,
55000,176.5,104.4,35.2,602.0,3424.0,18.0,
55100,165.8,130.4,35.2,602.0,3424.0,18.0,
55200,166.2,147.7,35.2,602.0,3424.0,18.0,
55300,142.5,164.8,35.2,602.0,3424.0,18.0,
55400,115.8,175.8,35.2,602.0,3424.0,18.0,
55500,19.9,180.4,35.2,602.0,3424.0,18.0,
55600,5.1,180.4,39.1,602.0,3424.0,18.0,
55700,3.0,180.4,43.0,602.0,3424.0,18.0,
55900,4.3,166.7,66.4,602.0,3424.0,18.0,
56000,3.3,149.5,66.4,602.0,3424.0,18.0,
56100,4.0,127.5,58.6,602.0,3424.0,18.0,
56200,3.3,106.9,62.5,602.0,3424.0,18.0,
56300,5.6,77.0,62.5,602.0,3424.0,18.0,
56400,57.1,40.9,58.6,602.0,3424.0,18.0,
56500,157.7,62.6,152.3,483.0,3622.0,17.0,
56600,191.0,102.9,35.2,483.0,3622.0,17.0,
56700,143.4,128.8,35.2,483.0,3622.0,17.0,
56900,153.7,158.2,35.2,483.0,3622.0,17.0,
57000,142.6,169.6,35.2,483.0,3622.0,17.0,
57100,24.9,176.1,58.6,483.0,3622.0,17.0,
57200,7.7,176.2,46.9,483.0,3622.0,17.0,
57300,8.2,176.2,46.9,483.0,3622.0,17.0,
57400,3.7,176.2,43.0,483.0,3622.0,17.0,
57500,3.6,164.8,35.2,483.0,3622.0,17.0,
57600,4.4,143.1,78.1,483.0,3622.0,17.0,
57700,4.9,120.3,66.4,483.0,3622.0,17.0,
57900,5.9,77.6,62.5,483.0,3622.0,17.0,
58000,10.5,48.1,54.7,483.0,3622.0,17.0,
58100,154.9,48.7,109.4,483.0,3622.0,17.0,
58200,166.0,83.2,35.2,483.0,3622.0,17.0,
58300,159.0,105.7,35.2,483.0,3622.0,17.0,
58400,136.9,124.8,35.2,483.0,3622.0,17.0,
58500,121.8,136.9,35.2,483.0,3622.0,17.0,
58600,114.0,144.6,35.2,483.0,3622.0,17.0,
58700,15.4,148.7,35.2,483.0,3622.0,17.0,
58900,4.8,148.7,46.9,483.0,3622.0,17.0,
59000,7.3,148.7,66.4,483.0,3622.0,17.0,
59100,6.1,140.8,54.7,483.0,3622.0,17.0,
59200,7.3,123.5,54.7,483.0,3622.0,17.0,
59300,5.2,105.0,43.0,483.0,3622.0,17.0,
59400,8.2,81.3,43.0,483.0,3622.0,17.0,
59500,5.7,58.6,62.5,483.0,3622.0,17.0,
59600,20.8,35.6,54.7,483.0,3622.0,17.0,
59700,148.2,37.7,62.5,483.0,3622.0,17.0,
59900,158.9,87.4,31.3,483.0,3622.0,17.0,
60000,144.2,107.4,31.3,483.0,3622.0,17.0,
60100,139.8,127.4,35.2,483.0,3622.0,17.0,
60200,113.5,144.4,35.2,483.0,3622.0,17.0,
60300,21.2,155.5,62.5,377.0,2323.0,11.0,
60400,4.8,155.5,62.5,377.0,2323.0,11.0,
60500,5.4,155.5,58.6,377.0,2323.0,11.0,
60600,4.8,155.5,62.5,377.0,2323.0,11.0,
60700,4.0,151.0,70.3,377.0,2323.0,11.0,
60900,4.3,128.7,66.4,377.0,2323.0,11.0,
61000,5.6,112.6,66.4,377.0,2323.0,11.0,
61100,5.8,89.3,66.4,377.0,2323.0,11.0,
61200,10.5,57.9,39.1,377.0,2323.0,11.0,
61300,160.4,37.9,58.6,565.0,3823.0,18.0,
61400,169.5,86.0,35.2,565.0,3823.0,18.0,
61500,147.5,122.4,35.2,493.0,2981.0,19.0,
61600,173.5,145.8,35.2,478.0,2859.0,18.0,
61700,160.1,166.2,35.2,471.0,2972.0,13.0,
61900,33.0,197.7,66.4,378.0,2267.0,13.0,
62000,6.2,197.7,66.4,378.0,2267.0,13.0,
62100,3.4,197.7,50.8,378.0,2267.0,13.0,
62200,3.0,197.7,58.6,378.0,2267.0,13.0,
62300,2.9,194.1,66.4,378.0,2267.0,13.0,
62400,3.7,178.1,66.4,378.0,2267.0,13.0,
62500,3.0,155.4,66.4,378.0,2267.0,13.0,
62600,4.0,133.7,62.5,378.0,2267.0,13.0,
62700,4.5,107.3,66.4,378.0,2267.0,13.0,
62900,177.4,41.5,179.7,533.0,4074.0,17.0,
63000,178.6,98.9,62.5,503.0,3164.0,18.0,
63100,172.9,129.7,35.2,606.0,3479.0,18.0,
63200,151.8,155.4,35.2,432.0,2821.0,18.0,
63300,153.8,171.3,35.2,456.0,2934.0,11.0,
63400,160.8,185.1,35.2,424.0,2654.0,13.0,
63500,41.0,196.8,35.2,424.0,2654.0,13.0,
63600,10.4,196.8,58.6,424.0,2654.0,13.0,
63700,3.2,196.8,50.8,424.0,2654.0,13.0,
63900,2.7,192.5,43.0,424.0,2654.0,13.0,
64000,2.9,170.3,66.4,424.0,2654.0,13.0,
64100,3.0,148.1,70.3,424.0,2654.0,13.0,
64200,2.4,120.9,97.7,424.0,2654.0,13.0,
64300,2.8,97.1,85.9,424.0,2654.0,13.0,
64400,2.7,67.0,70.3,424.0,2654.0,13.0,
64500,155.8,37.5,175.8,512.0,4005.0,17.0,
64600,138.2,89.5,66.4,540.0,3497.0,18.0,
64700,172.1,114.7,35.2,492.0,2971.0,18.0,
64900,143.0,147.2,35.2,492.0,2971.0,18.0,
65000,113.4,162.6,66.4,492.0,2971.0,18.0,
65100,43.1,172.4,195.3,492.0,2971.0,18.0,
65200,10.3,172.8,97.7,492.0,2971.0,18.0,
65300,4.7,172.8,46.9,492.0,2971.0,18.0,
65400,4.0,172.8,46.9,492.0,2971.0,18.0,
65500,3.4,168.8,43.0,492.0,2971.0,18.0,
65600,2.9,147.8,43.0,492.0,2971.0,18.0,
65700,3.3,129.2,66.4,492.0,2971.0,18.0,
65900,2.1,90.7,66.4,492.0,2971.0,18.0,
66000,68.2,58.8,70.3,492.0,2971.0,18.0,
66100,148.3,29.9,58.6,492.0,2971.0,18.0,
66200,176.3,82.4,101.6,492.0,2971.0,18.0,
66300,145.4,111.3,35.2,492.0,2971.0,18.0,
66400,125.1,126.6,62.5,492.0,2971.0,18.0,
66500,118.6,136.6,35.2,492.0,2971.0,18.0,
66600,124.7,145.6,35.2,492.0,2971.0,18.0,
66700,58.8,157.0,35.2,492.0,2971.0,18.0,
66900,4.7,158.0,35.2,492.0,2971.0,18.0,
67000,3.3,158.0,35.2,492.0,2971.0,18.0,
67100,3.4,155.7,50.8,492.0,2971.0,18.0,
67200,2.7,135.0,70.3,492.0,2971.0,18.0,
67300,2.9,112.3,62.5,492.0,2971.0,18.0,
67400,2.7,94.7,62.5,492.0,2971.0,18.0,
67500,2.4,79.6,70.3,492.0,2971.0,18.0,
67600,3.8,61.2,62.5,492.0,2971.0,18.0,
67700,109.2,18.2,74.2,492.0,2971.0,18.0,
67900,130.7,80.7,35.2,492.0,2971.0,18.0,
68000,139.0,99.6,31.3,492.0,2971.0,18.0,
68100,115.7,116.7,35.2,492.0,2971.0,18.0,
68200,148.1,134.1,35.2,480.0,2701.0,10.0,
68300,86.5,150.5,35.2,368.0,2336.0,19.0,
68400,21.0,155.5,35.2,368.0,2336.0,19.0,
68500,4.4,155.6,39.1,368.0,2336.0,19.0,
68600,5.3,155.6,62.5,368.0,2336.0,19.0,
68700,3.8,155.6,54.7,368.0,2336.0,19.0,
68900,3.4,133.0,62.5,368.0,2336.0,19.0,
69000,32.5,121.0,58.6,368.0,2336.0,19.0,
69100,5.7,106.7,62.5,368.0,2336.0,19.0,
69200,5.7,83.7,46.9,368.0,2336.0,19.0,
69300,111.4,48.7,58.6,368.0,2336.0,19.0,
69400,154.2,72.6,39.1,368.0,2336.0,19.0,
69500,170.4,106.5,35.2,506.0,3036.0,19.0,
69600,152.2,129.6,35.2,426.0,2492.0,19.0,
69700,161.5,149.5,62.5,414.0,2493.0,14.0,
69900,95.5,189.6,66.4,358.0,2037.0,13.0,
70000,19.0,194.1,128.9,358.0,2037.0,13.0,
70100,7.9,193.0,93.8,358.0,2037.0,13.0,
70200,3.8,193.0,43.0,358.0,2037.0,13.0,
70300,4.0,193.0,58.6,358.0,2037.0,13.0,
70400,3.0,181.2,43.0,358.0,2037.0,13.0,
70500,3.5,163.5,43.0,358.0,2037.0,13.0,
70600,4.9,145.9,46.9,358.0,2037.0,13.0,
70700,5.5,125.4,39.1,358.0,2037.0,13.0,
70900,64.2,45.8,46.9,358.0,2037.0,13.0,
71000,155.4,70.4,128.9,485.0,3160.0,18.0,
71100,141.2,117.1,39.1,461.0,2859.0,17.0,
71200,151.8,141.5,97.7,354.0,2417.0,23.0,
71300,155.8,162.6,132.8,405.0,2416.0,18.0,
71400,135.7,180.4,128.9,334.0,1976.0,9.0,
71500,116.5,198.3,128.9,300.0,1913.0,11.0,
71600,12.4,203.0,160.2,300.0,1913.0,11.0,
71700,5.4,202.9,121.1,300.0,1913.0,11.0,
71900,3.2,202.9,39.1,300.0,1913.0,11.0,
72000,4.7,190.4,39.1,300.0,1913.0,11.0,
72100,4.4,166.0,54.7,300.0,1913.0,11.0,
72200,3.1,145.7,50.8,300.0,1913.0,11.0,
72300,3.3,121.7,35.2,300.0,1913.0,11.0,
72400,4.6,93.3,89.8,300.0,1913.0,11.0,
72500,47.5,43.8,54.7,300.0,1913.0,11.0,
72600,176.3,71.2,164.1,492.0,3187.0,18.0,
72700,163.5,110.6,93.8,508.0,3076.0,19.0,
72900,108.7,157.6,62.5,362.0,2511.0,21.0,
73000,140.8,170.6,66.4,569.0,2518.0,30.0,
73100,152.6,182.3,97.7,569.0,2518.0,30.0,
73200,31.9,190.3,222.7,569.0,2518.0,30.0,
73300,13.5,190.4,164.1,569.0,2518.0,30.0,
73400,5.2,190.5,50.8,569.0,2518.0,30.0,
73500,3.3,190.5,39.1,569.0,2518.0,30.0,
73600,3.4,176.7,54.7,569.0,2518.0,30.0,
73700,3.2,155.2,50.8,569.0,2518.0,30.0,
73900,3.5,106.9,74.2,569.0,2518.0,30.0,
74000,2.7,84.7,46.9,569.0,2518.0,30.0,
74100,27.3,58.9,58.6,569.0,2518.0,30.0,
74200,156.0,68.3,62.5,554.0,4153.0,18.0,
74300,183.1,105.4,39.1,871.0,3925.0,30.0,
74400,166.1,128.1,35.2,871.0,3925.0,30.0,
74500,173.8,147.0,89.8,871.0,3925.0,30.0,
74600,127.2,162.9,97.7,871.0,3925.0,30.0,
74700,111.6,172.3,66.4,871.0,3925.0,30.0,
74900,4.0,177.0,58.6,871.0,3925.0,30.0,
75000,3.7,177.0,50.8,871.0,3925.0,30.0,
75100,2.9,175.7,62.5,871.0,3925.0,30.0,
75200,3.3,163.5,66.4,871.0,3925.0,30.0,
75300,3.0,142.4,58.6,871.0,3925.0,30.0,
75400,4.1,122.3,46.9,871.0,3925.0,30.0,
75500,3.9,98.8,82.0,871.0,3925.0,30.0,
75600,4.4,69.7,70.3,871.0,3925.0,30.0,
75700,7.3,41.0,58.6,871.0,3925.0,30.0,
75900,153.1,78.3,35.2,871.0,3925.0,30.0,
76000,133.8,98.3,35.2,871.0,3925.0,30.0,
76100,160.9,116.1,35.2,871.0,3925.0,30.0,
76200,159.7,134.8,35.2,871.0,3925.0,30.0,
76300,163.6,152.6,35.2,453.0,2858.0,12.0,
76400,41.7,170.3,35.2,433.0,2510.0,10.0,
76500,7.1,170.5,46.9,433.0,2510.0,10.0,
76600,3.7,170.5,46.9,433.0,2510.0,10.0,
76700,3.4,170.4,62.5,433.0,2510.0,10.0,
76900,52.6,152.7,66.4,433.0,2510.0,10.0,
77000,5.6,142.4,58.6,433.0,2510.0,10.0,
77100,4.7,128.3,50.8,433.0,2510.0,10.0,
77200,4.4,108.5,54.7,433.0,2510.0,10.0,
77300,4.3,81.7,62.5,433.0,2510.0,10.0,
77400,184.8,50.3,152.3,562.0,4305.0,18.0,
77500,193.9,104.6,46.9,580.0,3752.0,18.0,
77600,172.3,139.4,35.2,564.0,3639.0,12.0,
77700,145.4,171.3,35.2,423.0,2906.0,14.0,
77900,151.3,207.8,82.0,514.0,2640.0,11.0,
78000,35.7,221.3,97.7,401.0,2511.0,16.0,
78100,7.0,221.4,93.8,401.0,2511.0,16.0,
78200,3.9,221.4,54.7,401.0,2511.0,16.0,
78300,4.7,221.4,39.1,401.0,2511.0,16.0,
78400,2.3,217.8,46.9,401.0,2511.0,16.0,
78500,2.7,197.4,43.0,401.0,2511.0,16.0,
78600,3.3,174.6,58.6,401.0,2511.0,16.0,
78700,5.0,143.5,66.4,401.0,2511.0,16.0,
78900,5.2,79.7,50.8,401.0,2511.0,16.0,
79000,146.6,44.2,179.7,509.0,3947.0,18.0,
79100,171.0,100.5,140.6,437.0,2984.0,19.0,
79200,169.2,129.3,97.7,426.0,2907.0,21.0,
79300,162.4,151.4,66.4,502.0,2836.0,12.0,
79400,128.9,172.7,62.5,406.0,2874.0,18.0,
79500,115.1,185.7,62.5,308.0,2339.0,11.0,
79600,42.6,196.8,132.8,308.0,2339.0,11.0,
79700,8.2,197.0,226.6,308.0,2339.0,11.0,
79900,2.5,197.0,39.1,308.0,2339.0,11.0,
80000,3.2,192.1,62.5,308.0,2339.0,11.0,
80100,2.8,169.5,70.3,308.0,2339.0,11.0,
80200,3.1,148.7,74.2,308.0,2339.0,11.0,
80300,2.6,126.1,43.0,308.0,2339.0,11.0,
80400,3.2,94.9,50.8,308.0,2339.0,11.0,
80500,4.8,65.7,101.6,308.0,2339.0,11.0,
80600,134.1,10.4,89.8,520.0,4133.0,17.0,
80700,161.5,84.6,152.3,460.0,3165.0,30.0,
80900,154.9,131.1,160.2,460.0,3165.0,30.0,
81000,134.9,145.2,109.4,460.0,3165.0,30.0,
81100,122.8,155.2,66.4,460.0,3165.0,30.0,
81200,56.6,165.4,35.2,460.0,3165.0,30.0,
81300,9.6,166.8,35.2,460.0,3165.0,30.0,
81400,4.0,166.8,39.1,460.0,3165.0,30.0,
81500,3.5,166.8,43.0,460.0,3165.0,30.0,
81600,3.3,166.8,58.6,460.0,3165.0,30.0,
81700,3.0,143.9,66.4,460.0,3165.0,30.0,
81900,3.9,103.3,66.4,460.0,3165.0,30.0,
82000,3.8,82.2,58.6,460.0,3165.0,30.0,
82100,41.1,64.5,66.4,460.0,3165.0,30.0,
82200,123.5,37.4,58.6,460.0,3165.0,30.0,
82300,133.4,69.5,39.1,460.0,3165.0,30.0,
82400,128.3,89.0,35.2,460.0,3165.0,30.0,
82500,130.6,113.2,35.2,460.0,3165.0,30.0,
82600,152.0,133.6,35.2,413.0,2602.0,16.0,
82700,138.0,152.2,62.5,376.0,2278.0,9.0,
82900,18.9,175.9,70.3,376.0,2278.0,9.0,
83000,4.1,176.0,58.6,376.0,2278.0,9.0,
83100,2.5,174.8,35.2,376.0,2278.0,9.0,
83200,2.8,173.3,70.3,376.0,2278.0,9.0,
83300,3.1,161.7,62.5,376.0,2278.0,9.0,
83400,3.6,151.8,78.1,376.0,2278.0,9.0,
83500,2.3,134.7,66.4,376.0,2278.0,9.0,
83600,2.8,114.6,66.4,376.0,2278.0,9.0,
83700,3.3,88.5,66.4,376.0,2278.0,9.0,
83900,178.9,83.3,128.9,426.0,2992.0,18.0,
84000,179.2,119.3,62.5,451.0,2879.0,19.0,
84100,161.9,149.2,66.4,439.0,2844.0,13.0,
84200,147.3,177.6,66.4,393.0,2302.0,14.0,
84300,117.6,196.4,97.7,412.0,2458.0,15.0,
84400,88.3,212.4,128.9,367.0,2252.0,13.0,
84500,12.4,217.2,97.7,367.0,2252.0,13.0,
84600,4.0,217.2,97.7,367.0,2252.0,13.0,
84700,2.9,217.2,74.2,367.0,2252.0,13.0,
84900,2.9,200.7,78.1,367.0,2252.0,13.0,
85000,2.8,181.6,66.4,367.0,2252.0,13.0,
85100,2.7,157.9,70.3,367.0,2252.0,13.0,
85200,2.7,125.2,66.4,367.0,2252.0,13.0,
85300,3.3,92.7,89.8,367.0,2252.0,13.0,
85400,70.3,45.3,66.4,367.0,2252.0,13.0,
85500,161.9,73.6,160.2,452.0,3103.0,19.0,
85600,128.8,115.5,93.8,465.0,2845.0,20.0,
85700,143.0,136.5,62.5,397.0,2538.0,30.0,
85900,119.6,165.8,195.3,722.0,2755.0,30.0,
86000,111.0,179.3,230.5,722.0,2755.0,30.0,
86100,52.9,183.3,230.5,722.0,2755.0,30.0,
86200,21.4,185.6,132.8,722.0,2755.0,30.0,
86300,4.2,185.7,62.5,722.0,2755.0,30.0,
86400,4.2,185.7,50.8,722.0,2755.0,30.0,
86500,2.7,170.5,62.5,722.0,2755.0,30.0,
86600,2.7,145.3,46.9,722.0,2755.0,30.0,
86700,2.9,125.8,62.5,722.0,2755.0,30.0,
86900,4.9,83.6,70.3,722.0,2755.0,30.0,
87000,51.9,48.6,54.7,722.0,2755.0,30.0,
87100,155.0,66.8,273.4,722.0,2755.0,30.0,
87200,129.9,90.1,39.1,722.0,2755.0,30.0,
87300,125.2,106.7,35.2,722.0,2755.0,30.0,
87400,134.6,120.3,35.2,722.0,2755.0,30.0,
87500,130.0,132.5,35.2,722.0,2755.0,30.0,
87600,122.5,145.2,62.5,722.0,2755.0,30.0,
87700,19.0,153.1,66.4,722.0,2755.0,30.0,
87900,5.1,153.3,54.7,722.0,2755.0,30.0,
88000,2.8,153.3,46.9,722.0,2755.0,30.0,
88100,4.8,141.2,46.9,722.0,2755.0,30.0,
88200,4.4,124.1,54.7,722.0,2755.0,30.0,
88300,4.1,110.0,66.4,722.0,2755.0,30.0,
88400,2.8,95.0,54.7,722.0,2755.0,30.0,
88500,4.4,77.0,70.3,722.0,2755.0,30.0,
88600,4.4,49.2,66.4,722.0,2755.0,30.0,
88700,71.3,26.2,62.5,722.0,2755.0,30.0,
88900,123.2,52.1,35.2,722.0,2755.0,30.0,
89000,159.6,75.4,31.3,722.0,2755.0,30.0,
89100,126.6,99.2,31.3,722.0,2755.0,30.0,
89200,137.1,112.4,31.3,722.0,2755.0,30.0,
89300,19.9,121.8,35.2,722.0,2755.0,30.0,
89400,6.7,121.9,35.2,722.0,2755.0,30.0,
89500,3.5,121.9,35.2,722.0,2755.0,30.0,
89600,4.1,121.9,35.2,722.0,2755.0,30.0,
89700,3.6,119.3,54.7,722.0,2755.0,30.0,
89900,2.9,110.3,66.4,722.0,2755.0,30.0,
90000,3.7,95.9,70.3,722.0,2755.0,30.0,
90100,3.3,71.0,58.6,722.0,2755.0,30.0,
90200,5.7,47.3,50.8,722.0,2755.0,30.0,
90300,169.1,39.0,97.7,722.0,2755.0,30.0,
90400,166.0,87.6,35.2,722.0,2755.0,30.0,
90500,169.5,116.9,35.2,616.0,3641.0,18.0,
90600,161.9,140.2,35.2,549.0,3149.0,19.0,
90700,142.8,156.4,35.2,454.0,2496.0,18.0,
90900,26.2,183.0,62.5,364.0,2144.0,14.0,
91000,5.9,183.0,62.5,364.0,2144.0,14.0,
91100,4.0,183.0,46.9,364.0,2144.0,14.0,
91200,2.9,183.0,50.8,364.0,2144.0,14.0,
91300,3.7,178.9,43.0,364.0,2144.0,14.0,
91400,3.4,160.8,82.0,364.0,2144.0,14.0,
91500,4.7,141.0,66.4,364.0,2144.0,14.0,
91600,3.7,117.8,58.6,364.0,2144.0,14.0,
91700,5.1,95.3,54.7,364.0,2144.0,14.0,
91900,178.9,45.1,128.9,576.0,4180.0,18.0,
92000,168.6,98.0,39.1,609.0,3431.0,18.0,
92100,160.6,131.9,35.2,496.0,2911.0,19.0,
92200,135.1,152.2,35.2,478.0,2713.0,13.0,
92300,181.8,169.8,35.2,506.0,3417.0,20.0,
92400,159.0,184.7,35.2,506.0,3417.0,20.0,
92500,42.2,195.7,35.2,506.0,3417.0,20.0,
92600,6.4,195.8,58.6,506.0,3417.0,20.0,
92700,6.0,195.8,43.0,506.0,3417.0,20.0,
92900,2.5,190.7,46.9,506.0,3417.0,20.0,
93000,3.5,169.6,74.2,506.0,3417.0,20.0,
93100,3.7,145.0,39.1,506.0,3417.0,20.0,
93200,3.9,123.4,54.7,506.0,3417.0,20.0,
93300,4.2,97.7,50.8,506.0,3417.0,20.0,
93400,4.4,65.6,50.8,506.0,3417.0,20.0,
93500,133.2,39.9,156.3,516.0,3853.0,18.0,
93600,182.9,89.4,93.8,531.0,3160.0,18.0,
93700,162.9,118.3,35.2,495.0,3037.0,18.0,
93900,120.9,155.3,35.2,495.0,3037.0,18.0,
94000,143.2,167.3,35.2,495.0,3037.0,18.0,
94100,43.7,178.3,62.5,495.0,3037.0,18.0,
94200,8.3,178.5,66.4,495.0,3037.0,18.0,
94300,3.8,178.5,54.7,495.0,3037.0,18.0,
94400,2.9,178.5,43.0,495.0,3037.0,18.0,
94500,3.0,174.2,54.7,495.0,3037.0,18.0,
94600,2.4,154.5,66.4,495.0,3037.0,18.0,
94700,3.3,133.7,66.4,495.0,3037.0,18.0,
94900,13.7,97.8,58.6,495.0,3037.0,18.0,
95000,8.1,75.5,54.7,495.0,3037.0,18.0,
95100,134.5,44.0,54.7,513.0,3574.0,18.0,
95200,153.3,91.3,66.4,513.0,3574.0,18.0,
95300,163.5,114.0,35.2,513.0,3574.0,18.0,
95400,135.7,131.4,35.2,513.0,3574.0,18.0,
95500,140.4,143.5,101.6,513.0,3574.0,18.0,
95600,121.8,154.8,97.7,513.0,3574.0,18.0,
95700,51.6,162.5,66.4,513.0,3574.0,18.0,
95900,5.7,157.6,43.0,513.0,3574.0,18.0,
96000,4.0,157.6,43.0,513.0,3574.0,18.0,
96100,3.6,157.6,39.1,513.0,3574.0,18.0,
96200,2.2,135.5,58.6,513.0,3574.0,18.0,
96300,3.0,117.1,54.7,513.0,3574.0,18.0,
96400,2.5,97.2,62.5,513.0,3574.0,18.0,
96500,3.0,78.4,66.4,513.0,3574.0,18.0,
96600,3.6,52.3,101.6,513.0,3574.0,18.0,
96700,149.4,17.1,85.9,513.0,3574.0,18.0,
96900,136.7,96.4,35.2,513.0,3574.0,18.0,
97000,112.7,113.1,35.2,513.0,3574.0,18.0,
97100,159.9,125.1,35.2,513.0,3574.0,18.0,
97200,154.0,138.4,35.2,513.0,3574.0,18.0,
97300,84.3,150.7,35.2,513.0,3574.0,18.0,
97400,81.2,155.2,35.2,513.0,3574.0,18.0,
97500,22.4,161.7,43.0,513.0,3574.0,18.0,
97600,5.5,161.7,58.6,513.0,3574.0,18.0,
97700,4.1,161.7,46.9,513.0,3574.0,18.0,
97900,3.2,130.0,54.7,513.0,3574.0,18.0,
98000,2.1,115.7,46.9,513.0,3574.0,18.0,
98100,6.0,102.6,70.3,513.0,3574.0,18.0,
98200,7.3,83.8,66.4,513.0,3574.0,18.0,
98300,102.4,58.9,70.3,513.0,3574.0,18.0,
98400,160.5,73.8,43.0,513.0,3574.0,18.0,
98500,144.2,86.5,35.2,513.0,3574.0,18.0,
98600,139.6,102.1,35.2,513.0,3574.0,18.0,
98700,133.7,120.0,35.2,513.0,3574.0,18.0,
98900,88.2,151.6,62.5,513.0,3574.0,18.0,
99000,11.8,156.3,62.5,513.0,3574.0,18.0,
99100,4.5,156.3,62.5,513.0,3574.0,18.0,
99200,2.4,156.3,50.8,513.0,3574.0,18.0,
99300,2.9,156.2,50.8,513.0,3574.0,18.0,
99400,3.5,145.2,43.0,513.0,3574.0,18.0,
99500,2.7,130.2,66.4,513.0,3574.0,18.0,
99600,2.9,118.4,62.5,513.0,3574.0,18.0,
99700,3.5,100.2,58.6,513.0,3574.0,18.0,
99900,157.9,38.5,58.6,513.0,3574.0,18.0,
100000,167.1,90.4,39.1,513.0,3574.0,18.0,
100100,164.8,113.4,35.2,513.0,3574.0,18.0,
100200,158.1,134.5,35.2,425.0,2617.0,10.0,
100300,141.1,152.2,35.2,371.0,2442.0,23.0,
100400,138.4,168.1,62.5,337.0,2275.0,20.0,
100500,116.1,188.0,66.4,373.0,2269.0,13.0,
100600,19.6,193.4,66.4,330.0,2184.0,14.0,
100700,6.7,193.4,70.3,330.0,2184.0,14.0,
100900,2.6,193.4,39.1,330.0,2184.0,14.0,
101000,2.3,171.0,35.2,330.0,2184.0,14.0,
101100,2.6,156.8,66.4,330.0,2184.0,14.0,
101200,3.1,139.0,54.7,330.0,2184.0,14.0,
101300,3.4,119.4,58.6,330.0,2184.0,14.0,
101400,6.8,95.9,58.6,330.0,2184.0,14.0,
101500,58.2,45.6,89.8,330.0,2184.0,14.0,
101600,156.4,62.5,89.8,447.0,2971.0,21.0,
101700,149.3,99.1,35.2,417.0,2717.0,19.0,
101900,167.0,152.2,66.4,419.0,2650.0,13.0,
102000,159.8,172.2,62.5,424.0,2552.0,13.0,
102100,148.1,189.6,66.4,442.0,2517.0,12.0,
102200,21.5,201.0,66.4,442.0,2517.0,12.0,
102300,6.3,201.0,66.4,442.0,2517.0,12.0,
102400,4.1,201.0,54.7,442.0,2517.0,12.0,
102500,2.5,201.0,54.7,442.0,2517.0,12.0,
102600,4.2,191.1,54.7,442.0,2517.0,12.0,
102700,2.3,175.0,70.3,442.0,2517.0,12.0,
102900,3.2,131.4,66.4,442.0,2517.0,12.0,
103000,5.1,103.9,62.5,442.0,2517.0,12.0,
103100,9.2,66.9,54.7,442.0,2517.0,12.0,
103200,178.9,64.2,113.3,509.0,3171.0,19.0,
103300,168.5,106.2,35.2,508.0,2857.0,19.0,
103400,143.0,133.3,35.2,350.0,2350.0,17.0,
103500,138.8,159.1,66.4,362.0,2217.0,19.0,
103600,107.0,178.3,128.9,440.0,2207.0,12.0,
103700,151.4,195.0,74.2,398.0,2252.0,12.0,
103900,7.1,205.5,70.3,398.0,2252.0,12.0,
104000,4.1,205.5,46.9,398.0,2252.0,12.0,
104100,3.9,205.6,35.2,398.0,2252.0,12.0,
104200,2.9,195.4,46.9,398.0,2252.0,12.0,
104300,2.7,176.1,58.6,398.0,2252.0,12.0,
104400,3.7,156.7,97.7,398.0,2252.0,12.0,
104500,5.0,130.4,62.5,398.0,2252.0,12.0,
104600,4.4,102.4,54.7,398.0,2252.0,12.0,
104700,10.4,65.4,50.8,398.0,2252.0,12.0,
104900,150.4,111.8,89.8,514.0,3223.0,19.0,
105000,167.0,141.8,39.1,385.0,2461.0,13.0,
105100,153.2,163.2,66.4,350.0,2432.0,11.0,
105200,152.2,181.2,97.7,397.0,2572.0,12.0,
105300,126.8,200.9,66.4,344.0,2503.0,14.0,
105400,35.8,210.7,66.4,371.0,2499.0,12.0,
105500,11.8,210.9,62.5,371.0,2499.0,12.0,
105600,8.3,210.9,46.9,371.0,2499.0,12.0,
105700,4.0,210.9,54.7,371.0,2499.0,12.0,
105900,4.1,178.9,54.7,371.0,2499.0,12.0,
106000,3.1,156.2,50.8,371.0,2499.0,12.0,
106100,4.4,133.8,70.3,371.0,2499.0,12.0,
106200,3.6,108.1,66.4,371.0,2499.0,12.0,
106300,6.6,64.1,78.1,371.0,2499.0,12.0,
106400,159.5,52.7,152.3,554.0,4046.0,18.0,
106500,164.4,103.5,97.7,462.0,3104.0,19.0,
106600,151.6,139.6,62.5,419.0,2877.0,19.0,
106700,159.7,160.9,66.4,382.0,2486.0,13.0,
106900,158.9,193.0,62.5,430.0,2718.0,30.0,
107000,40.1,205.7,78.1,615.0,2761.0,30.0,
107100,23.9,205.9,93.8,615.0,2761.0,30.0,
107200,9.6,206.0,39.1,615.0,2761.0,30.0,
107300,3.3,206.0,39.1,615.0,2761.0,30.0,
107400,2.8,199.4,46.9,615.0,2761.0,30.0,
107500,3.4,178.2,70.3,615.0,2761.0,30.0,
107600,2.9,151.5,66.4,615.0,2761.0,30.0,
107700,3.3,128.7,66.4,615.0,2761.0,30.0,
107900,7.9,72.2,74.2,615.0,2761.0,30.0,
108000,156.8,40.9,117.2,511.0,3861.0,18.0,
108100,155.8,87.4,125.0,438.0,2525.0,18.0,
108200,141.8,112.9,35.2,429.0,2741.0,30.0,
108300,127.0,131.0,66.4,429.0,2741.0,30.0,
108400,123.5,150.2,191.4,429.0,2741.0,30.0,
108500,142.7,164.3,222.7,429.0,2741.0,30.0,
108600,46.3,175.0,132.8,429.0,2741.0,30.0,
108700,16.7,175.2,50.8,429.0,2741.0,30.0,
108900,3.5,175.2,31.3,429.0,2741.0,30.0,
109000,3.6,170.7,46.9,429.0,2741.0,30.0,
109100,4.1,152.1,43.0,429.0,2741.0,30.0,
109200,3.1,134.2,66.4,429.0,2741.0,30.0,
109300,3.0,116.6,66.4,429.0,2741.0,30.0,
109400,4.4,90.6,66.4,429.0,2741.0,30.0,
109500,8.0,61.4,66.4,429.0,2741.0,30.0,
109600,149.2,11.3,50.8,606.0,4629.0,18.0,
109700,142.6,85.5,164.1,606.0,4629.0,18.0,
109900,115.7,122.8,160.2,606.0,4629.0,18.0,
110000,129.2,132.9,97.7,606.0,4629.0,18.0,
110100,114.6,142.8,35.2,606.0,4629.0,18.0,
110200,61.3,152.6,35.2,606.0,4629.0,18.0,
110300,15.2,153.5,35.2,606.0,4629.0,18.0,
110400,5.5,153.6,39.1,606.0,4629.0,18.0,
110500,5.3,153.6,50.8,606.0,4629.0,18.0,
110600,3.0,153.6,62.5,606.0,4629.0,18.0,
110700,3.2,127.8,58.6,606.0,4629.0,18.0,
110900,54.8,97.1,54.7,606.0,4629.0,18.0,
111000,7.6,88.3,58.6,606.0,4629.0,18.0,
111100,5.9,71.1,50.8,606.0,4629.0,18.0,
111200,133.5,46.9,66.4,606.0,4629.0,18.0,
111300,146.0,78.8,35.2,606.0,4629.0,18.0,
111400,145.5,102.4,35.2,606.0,4629.0,18.0,
111500,155.9,121.2,35.2,606.0,4629.0,18.0,
111600,156.6,141.1,35.2,399.0,2463.0,11.0,
111700,148.0,158.0,35.2,391.0,2442.0,13.0,
111900,22.3,177.5,62.5,391.0,2442.0,13.0,
112000,5.4,174.9,46.9,391.0,2442.0,13.0,
112100,3.8,174.9,43.0,391.0,2442.0,13.0,
112200,4.6,174.8,58.6,391.0,2442.0,13.0,
112300,2.6,162.0,54.7,391.0,2442.0,13.0,
112400,1.9,148.2,35.2,391.0,2442.0,13.0,
112500,2.8,133.3,66.4,391.0,2442.0,13.0,
112600,5.2,112.0,66.4,391.0,2442.0,13.0,
112700,3.6,86.6,66.4,391.0,2442.0,13.0,
112900,159.3,71.1,66.4,381.0,2656.0,19.0,
113000,146.5,101.4,35.2,388.0,2506.0,21.0,
113100,155.8,126.1,66.4,369.0,2475.0,19.0,
113200,123.5,158.4,93.8,353.0,2377.0,13.0,
113300,162.3,177.4,66.4,349.0,2459.0,15.0,
113400,88.1,195.4,97.7,342.0,1933.0,12.0,
113500,19.7,200.3,97.7,342.0,1933.0,12.0,
113600,4.8,200.3,97.7,342.0,1933.0,12.0,
113700,4.9,200.3,58.6,342.0,1933.0,12.0,
113900,2.4,187.5,58.6,342.0,1933.0,12.0,
114000,3.6,172.9,66.4,342.0,1933.0,12.0,
114100,2.8,155.8,46.9,342.0,1933.0,12.0,
114200,4.2,122.8,46.9,342.0,1933.0,12.0,
114300,7.8,93.3,50.8,342.0,1933.0,12.0,
114400,103.6,44.7,70.3,342.0,1933.0,12.0,
114500,159.3,86.0,128.9,492.0,3258.0,19.0,
114600,157.8,123.8,89.8,335.0,2249.0,21.0,
114700,136.7,149.1,97.7,332.0,2268.0,19.0,
114900,119.0,190.1,128.9,335.0,2104.0,15.0,
115000,113.1,203.9,128.9,356.0,2682.0,18.0,
115100,24.3,209.3,97.7,356.0,2682.0,18.0,
115200,7.1,209.4,66.4,356.0,2682.0,18.0,
115300,3.7,209.4,35.2,356.0,2682.0,18.0,
115400,4.0,209.4,31.3,356.0,2682.0,18.0,
115500,3.1,191.1,39.1,356.0,2682.0,18.0,
115600,4.0,169.1,58.6,356.0,2682.0,18.0,
115700,3.5,147.3,62.5,356.0,2682.0,18.0,
115900,5.7,88.1,97.7,356.0,2682.0,18.0,
116000,110.9,56.2,62.5,356.0,2682.0,18.0,
116100,157.2,89.2,66.4,447.0,3157.0,17.0,
116200,168.0,132.9,125.0,397.0,2828.0,16.0,
116300,134.2,158.6,97.7,480.0,2906.0,10.0,
116400,150.4,179.0,66.4,388.0,2273.0,11.0,
116500,154.7,195.0,66.4,243.0,1931.0,10.0,
116600,138.2,209.4,97.7,419.0,2587.0,30.0,
116700,21.9,217.5,97.7,419.0,2587.0,30.0,
116900,6.0,217.6,46.9,419.0,2587.0,30.0,
117000,3.5,215.7,35.2,419.0,2587.0,30.0,
117100,3.2,198.7,35.2,419.0,2587.0,30.0,
117200,3.1,172.5,62.5,419.0,2587.0,30.0,
117300,3.0,149.0,66.4,419.0,2587.0,30.0,
117400,2.9,123.7,66.4,419.0,2587.0,30.0,
117500,2.4,96.7,82.0,419.0,2587.0,30.0,
117600,5.2,59.4,74.2,419.0,2587.0,30.0,
117700,167.4,71.9,160.2,412.0,2756.0,17.0,
117900,132.2,138.1,66.4,307.0,2043.0,13.0,
118000,119.8,161.7,97.7,567.0,2648.0,30.0,
118100,150.7,177.3,156.3,745.0,2779.0,30.0,
118200,131.5,190.8,222.7,649.0,2407.0,30.0,
118300,33.2,198.8,257.8,649.0,2407.0,30.0,
118400,7.8,198.9,257.8,649.0,2407.0,30.0,
118500,3.5,198.9,43.0,649.0,2407.0,30.0,
118600,3.4,198.9,46.9,649.0,2407.0,30.0,
118700,3.0,185.6,66.4,649.0,2407.0,30.0,
118900,7.3,149.8,58.6,649.0,2407.0,30.0,
119000,3.1,123.9,50.8,649.0,2407.0,30.0,
119100,3.5,100.3,66.4,649.0,2407.0,30.0,
119200,5.6,71.7,97.7,649.0,2407.0,30.0,
119300,149.6,81.6,168.0,528.0,4123.0,18.0,
119400,166.2,113.8,101.6,434.0,2807.0,19.0,
119500,167.5,137.5,66.4,586.0,2869.0,30.0,
119600,159.9,156.5,93.8,586.0,2869.0,30.0,
119700,145.3,171.6,195.3,586.0,2869.0,30.0,
119900,34.0,186.9,93.8,586.0,2869.0,30.0,
120000,12.3,187.2,50.8,586.0,2869.0,30.0,
120100,5.0,187.3,43.0,586.0,2869.0,30.0,
120200,3.3,187.3,54.7,586.0,2869.0,30.0,
120300,3.1,174.4,43.0,586.0,2869.0,30.0,
120400,2.8,155.1,46.9,586.0,2869.0,30.0,
120500,2.6,134.6,109.4,586.0,2869.0,30.0,
120600,2.8,112.0,78.1,586.0,2869.0,30.0,
120700,2.6,87.1,78.1,586.0,2869.0,30.0,
120900,144.9,50.7,250.0,583.0,4318.0,30.0,
121000,135.4,89.8,195.3,766.0,3194.0,30.0,
121100,115.6,116.3,226.6,766.0,3194.0,30.0,
121200,137.8,131.4,226.6,766.0,3194.0,30.0,
121300,122.0,143.4,97.7,766.0,3194.0,30.0,
121400,130.6,153.1,62.5,766.0,3194.0,30.0,
121500,47.0,161.5,35.2,766.0,3194.0,30.0,
121600,13.6,162.0,35.2,766.0,3194.0,30.0,
121700,4.2,162.0,46.9,766.0,3194.0,30.0,
121900,4.1,154.4,50.8,766.0,3194.0,30.0,
122000,2.9,135.1,43.0,766.0,3194.0,30.0,
122100,2.4,113.1,43.0,766.0,3194.0,30.0,
122200,3.5,95.2,62.5,766.0,3194.0,30.0,
122300,3.3,75.6,54.7,766.0,3194.0,30.0,
122400,5.0,53.2,66.4,766.0,3194.0,30.0,
122500,140.6,34.4,168.0,766.0,3194.0,30.0,
122600,127.9,74.9,97.7,766.0,3194.0,30.0,
122700,127.0,95.1,35.2,766.0,3194.0,30.0,
122900,121.2,127.9,35.2,766.0,3194.0,30.0,
123000,131.1,141.3,35.2,766.0,3194.0,30.0,
123100,36.7,154.1,35.2,766.0,3194.0,30.0,
123200,8.7,154.3,58.6,766.0,3194.0,30.0,
123300,87.6,157.4,43.0,766.0,3194.0,30.0,
123400,6.9,161.1,62.5,766.0,3194.0,30.0,
123500,2.9,157.8,54.7,766.0,3194.0,30.0,
123600,2.6,142.7,70.3,766.0,3194.0,30.0,
123700,4.3,130.0,82.0,766.0,3194.0,30.0,
123900,6.8,97.9,50.8,766.0,3194.0,30.0,
124000,4.1,77.4,39.1,766.0,3194.0,30.0,
124100,135.0,54.0,78.1,766.0,3194.0,30.0,
124200,120.3,84.1,35.2,766.0,3194.0,30.0,
124300,151.4,99.0,35.2,766.0,3194.0,30.0,
124400,142.9,111.7,35.2,766.0,3194.0,30.0,
124500,144.2,129.8,35.2,766.0,3194.0,30.0,
124600,115.2,150.3,62.5,766.0,3194.0,30.0,
124700,50.6,165.6,62.5,430.0,2301.0,14.0,
124900,3.8,166.3,46.9,430.0,2301.0,14.0,
125000,112.9,167.2,66.4,430.0,2301.0,14.0,
125100,9.3,170.6,58.6,430.0,2301.0,14.0,
125200,3.6,157.7,50.8,430.0,2301.0,14.0,
125300,2.6,145.4,58.6,430.0,2301.0,14.0,
125400,2.6,131.7,62.5,430.0,2301.0,14.0,
125500,5.3,113.8,39.1,430.0,2301.0,14.0,
125600,6.4,85.0,66.4,430.0,2301.0,14.0,
125700,121.7,48.9,46.9,430.0,2301.0,14.0,
125900,131.2,105.3,35.2,430.0,2301.0,14.0,
126000,139.0,122.1,35.2,430.0,2301.0,14.0,
126100,150.8,131.7,62.5,359.0,2548.0,11.0,
126200,140.7,149.4,62.5,371.0,2187.0,13.0,
126300,75.1,169.1,62.5,354.0,2304.0,14.0,
126400,14.2,170.6,66.4,354.0,2304.0,14.0,
126500,6.6,170.7,46.9,354.0,2304.0,14.0,
126600,3.3,170.7,54.7,354.0,2304.0,14.0,
126700,3.1,170.6,35.2,354.0,2304.0,14.0,
126900,4.0,142.2,70.3,354.0,2304.0,14.0,
127000,3.3,126.8,66.4,354.0,2304.0,14.0,
127100,2.3,108.7,66.4,354.0,2304.0,14.0,
127200,1.9,82.7,62.5,354.0,2304.0,14.0,
127300,135.1,23.4,74.2,354.0,2304.0,14.0,
127400,155.9,71.6,70.3,398.0,2589.0,19.0,
127500,139.7,102.2,35.2,375.0,2306.0,21.0,
127600,129.1,131.3,66.4,328.0,2180.0,13.0,
127700,117.3,152.2,66.4,400.0,2546.0,18.0,
127900,81.3,188.2,97.7,350.0,2150.0,13.0,
128000,14.0,193.8,101.6,350.0,2150.0,13.0,
128100,3.7,193.8,89.8,350.0,2150.0,13.0,
128200,3.6,193.8,43.0,350.0,2150.0,13.0,
128300,2.3,193.8,58.6,350.0,2150.0,13.0,
128400,3.3,180.2,58.6,350.0,2150.0,13.0,
128500,3.3,164.8,70.3,350.0,2150.0,13.0,
128600,2.6,142.7,74.2,350.0,2150.0,13.0,
128700,5.8,120.1,101.6,350.0,2150.0,13.0,
128900,116.9,46.7,54.7,350.0,2150.0,13.0,
129000,155.1,78.1,85.9,478.0,3201.0,18.0,
129100,179.3,114.4,35.2,418.0,2766.0,15.0,
129200,136.3,140.3,35.2,363.0,2281.0,21.0,
129300,110.9,156.2,97.7,363.0,2281.0,21.0,
129400,103.3,167.8,66.4,363.0,2281.0,21.0,
129500,83.1,175.2,62.5,363.0,2281.0,21.0,
129600,25.1,177.9,35.2,363.0,2281.0,21.0,
129700,5.7,178.0,39.1,363.0,2281.0,21.0,
129900,3.1,178.0,62.5,363.0,2281.0,21.0,
130000,2.7,160.1,66.4,363.0,2281.0,21.0,
130100,3.3,136.5,70.3,363.0,2281.0,21.0,
130200,2.8,109.7,70.3,363.0,2281.0,21.0,
130300,3.2,85.6,66.4,363.0,2281.0,21.0,
130400,4.3,59.7,74.2,363.0,2281.0,21.0,
130500,57.2,31.6,35.2,363.0,2281.0,21.0,
130600,149.5,52.4,39.1,363.0,2281.0,21.0,
130700,137.2,83.5,35.2,363.0,2281.0,21.0,
130900,125.0,117.3,35.2,363.0,2281.0,21.0,
131000,108.3,127.0,35.2,363.0,2281.0,21.0,
131100,110.2,136.2,35.2,363.0,2281.0,21.0,
131200,30.8,141.0,35.2,363.0,2281.0,21.0,
131300,9.4,141.4,39.1,363.0,2281.0,21.0,
131400,5.3,141.4,43.0,363.0,2281.0,21.0,
131500,4.1,141.4,39.1,363.0,2281.0,21.0,
131600,4.4,131.5,43.0,363.0,2281.0,21.0,
131700,3.4,114.2,50.8,363.0,2281.0,21.0,
131900,4.2,79.1,62.5,363.0,2281.0,21.0,
132000,3.6,62.4,46.9,363.0,2281.0,21.0,
132100,7.3,38.5,58.6,363.0,2281.0,21.0,
132200,180.9,52.1,62.5,363.0,2281.0,21.0,
132300,167.0,86.3,35.2,363.0,2281.0,21.0,
132400,157.1,109.6,35.2,363.0,2281.0,21.0,
132500,119.9,129.0,35.2,363.0,2281.0,21.0,
132600,139.2,141.1,35.2,363.0,2281.0,21.0,
132700,133.1,151.7,35.2,363.0,2281.0,21.0,
132900,15.9,158.0,35.2,363.0,2281.0,21.0,
133000,3.5,158.1,54.7,363.0,2281.0,21.0,
133100,2.4,158.1,39.1,363.0,2281.0,21.0,
133200,4.5,149.8,46.9,363.0,2281.0,21.0,
133300,3.5,132.6,43.0,363.0,2281.0,21.0,
133400,3.8,114.1,54.7,363.0,2281.0,21.0,
133500,3.0,91.5,43.0,363.0,2281.0,21.0,
133600,3.4,71.5,82.0,363.0,2281.0,21.0,
133700,6.8,44.8,74.2,363.0,2281.0,21.0,
133900,157.9,87.4,35.2,363.0,2281.0,21.0,
