Time(ms),Raw_ADC,ENV_Value,RMS,MDF,MW_Amp,MW_Area,MW_Latency,MW_Valid,Marker
0,1850.7,190.7,0.0,0.0,0.0,0.0,0.0,0,
100,1874.3,213.2,0.0,0.0,0.0,0.0,0.0,0,
200,1830.9,177.8,0.0,0.0,0.0,0.0,0.0,0,
300,1858.9,31.8,0.0,0.0,0.0,0.0,0.0,0,
400,1859.9,11.8,0.0,0.0,0.0,0.0,0.0,0,
500,1861.8,11.7,0.0,70.3,0.0,0.0,0.0,0,
600,1861.5,12.1,0.0,76.2,0.0,0.0,0.0,0,
700,1861.0,11.8,0.0,78.1,0.0,0.0,0.0,0,
800,1861.6,10.9,0.0,80.1,0.0,0.0,0.0,0,
900,1859.6,10.9,163.1,125.0,0.0,0.0,0.0,0,
1000,1861.1,10.2,139.9,193.4,0.0,0.0,0.0,0,
1100,1860.5,10.7,111.4,183.6,0.0,0.0,0.0,0,
1200,1859.8,11.2,69.0,175.8,0.0,0.0,0.0,0,
1300,1856.4,114.8,40.8,50.8,0.0,0.0,0.0,0,
1400,1867.8,203.5,73.4,37.1,0.0,0.0,0.0,0,
1500,1839.0,179.0,110.3,39.1,0.0,0.0,0.0,0,
1600,1843.5,152.6,137.2,64.5,0.0,0.0,0.0,0,
1700,1850.8,157.6,159.8,64.5,0.0,0.0,0.0,0,
1900,1845.2,43.0,196.7,66.4,0.0,0.0,0.0,0,
2000,1858.8,12.0,196.7,95.7,0.0,0.0,0.0,0,
2100,1860.1,11.8,196.7,95.7,0.0,0.0,0.0,0,
2200,1859.8,10.7,196.7,93.8,0.0,0.0,0.0,0,
2300,1860.6,9.6,192.8,93.8,0.0,0.0,0.0,0,
2400,1860.8,11.7,182.9,171.9,0.0,0.0,0.0,0,
2500,1860.3,11.0,163.4,175.8,0.0,0.0,0.0,0,
2600,1860.0,9.7,141.6,154.3,0.0,0.0,0.0,0,
2700,1860.3,11.1,115.5,154.3,0.0,0.0,0.0,0,
2900,1863.8,119.7,38.9,64.5,0.0,0.0,0.0,0,
3000,1862.6,128.0,72.6,39.1,0.0,0.0,0.0,0,
3100,1868.9,183.7,102.6,37.1,0.0,0.0,0.0,0,
3200,1885.0,206.9,133.2,62.5,0.0,0.0,0.0,0,
3300,1840.2,175.9,161.1,64.5,0.0,0.0,0.0,0,
3400,1864.6,136.5,182.0,66.4,0.0,0.0,0.0,0,
3500,1864.7,52.5,201.9,66.4,0.0,0.0,0.0,0,
3600,1860.8,12.5,201.9,95.7,0.0,0.0,0.0,0,
3700,1860.8,11.9,201.9,95.7,0.0,0.0,0.0,0,
3900,1860.6,11.2,198.5,97.7,0.0,0.0,0.0,0,
4000,1860.9,12.4,188.8,191.4,0.0,0.0,0.0,0,
4100,1861.6,10.9,174.4,205.1,0.0,0.0,0.0,0,
4200,1861.7,10.5,152.3,203.1,0.0,0.0,0.0,0,
4300,1860.5,11.3,122.3,160.2,0.0,0.0,0.0,0,
4400,1860.8,10.3,88.4,158.2,0.0,0.0,0.0,0,
4500,1875.5,140.1,25.8,148.4,0.0,0.0,0.0,0,
4600,1853.7,177.0,69.3,39.1,0.0,0.0,0.0,0,
4700,1854.8,146.7,106.2,37.1,0.0,0.0,0.0,0,
4900,1865.9,229.6,161.6,64.5,0.0,0.0,0.0,0,
5000,1867.7,205.1,191.0,66.4,0.0,0.0,0.0,0,
5100,1853.7,76.7,211.5,95.7,0.0,0.0,0.0,0,
5200,1863.2,15.4,211.5,95.7,0.0,0.0,0.0,0,
5300,1859.5,11.0,211.5,95.7,0.0,0.0,0.0,0,
5400,1860.5,11.3,211.5,95.7,0.0,0.0,0.0,0,
5500,1861.0,11.5,210.3,93.8,0.0,0.0,0.0,0,
5600,1860.7,11.5,200.2,132.8,0.0,0.0,0.0,0,
5700,1860.4,11.6,183.3,193.4,0.0,0.0,0.0,0,
5900,1860.2,11.7,137.1,197.3,0.0,0.0,0.0,0,
6000,1861.0,11.7,91.7,183.6,0.0,0.0,0.0,0,
6100,1859.9,83.7,13.5,154.3,0.0,0.0,0.0,0,
6200,1863.2,143.0,55.4,39.1,0.0,0.0,0.0,0,
6300,1881.1,209.5,97.1,41.0,0.0,0.0,0.0,0,
6400,1835.4,176.9,133.8,64.5,0.0,0.0,0.0,0,
6500,1857.4,153.7,161.5,66.4,0.0,0.0,0.0,0,
6600,1863.1,189.2,186.2,68.4,0.0,0.0,0.0,0,
6700,1875.7,102.6,208.5,95.7,0.0,0.0,0.0,0,
6900,1860.1,11.9,213.7,95.7,0.0,0.0,0.0,0,
7000,1861.5,11.4,213.7,95.7,0.0,0.0,0.0,0,
7100,1860.8,9.9,213.7,95.7,0.0,0.0,0.0,0,
7200,1860.4,10.5,206.7,99.6,0.0,0.0,0.0,0,
7300,1861.0,11.7,190.7,205.1,0.0,0.0,0.0,0,
7400,1860.0,10.6,167.0,210.9,0.0,0.0,0.0,0,
7500,1860.8,11.2,140.4,199.2,0.0,0.0,0.0,0,
7600,1860.9,12.6,105.6,191.4,0.0,0.0,0.0,0,
7700,1859.3,112.3,48.5,191.4,0.0,0.0,0.0,0,
7900,1858.0,163.0,96.3,43.0,0.0,0.0,0.0,0,
8000,1860.5,227.8,129.0,64.5,0.0,0.0,0.0,0,
8100,1865.0,221.0,165.8,64.5,0.0,0.0,0.0,0,
8200,1846.5,171.1,190.6,66.4,0.0,0.0,0.0,0,
8300,1858.0,148.8,212.1,95.7,0.0,0.0,0.0,0,
8400,1861.0,17.7,219.3,95.7,0.0,0.0,0.0,0,
8500,1860.7,12.3,219.3,95.7,0.0,0.0,0.0,0,
8600,1860.7,9.9,219.3,95.7,0.0,0.0,0.0,0,
8700,1862.3,10.9,219.3,95.7,0.0,0.0,0.0,0,
8900,1859.5,10.6,197.5,199.2,0.0,0.0,0.0,0,
9000,1861.0,11.7,177.9,152.3,0.0,0.0,0.0,0,
9100,1860.2,11.9,144.1,152.3,0.0,0.0,0.0,0,
9200,1860.6,10.3,109.3,171.9,0.0,0.0,0.0,0,
9300,1861.3,68.0,57.3,183.6,0.0,0.0,0.0,0,
9400,1872.5,170.6,54.8,48.8,0.0,0.0,0.0,0,
9500,1839.1,187.7,98.3,43.0,0.0,0.0,0.0,0,
9600,1854.3,159.0,132.2,64.5,0.0,0.0,0.0,0,
9700,1858.2,222.5,162.1,64.5,0.0,0.0,0.0,0,
9900,1843.5,214.7,218.9,95.7,0.0,0.0,0.0,0,
10000,1857.7,22.7,226.3,95.7,0.0,0.0,0.0,0,
10100,1858.2,10.9,226.3,95.7,0.0,0.0,0.0,0,
10200,1861.1,11.1,226.3,95.7,0.0,0.0,0.0,0,
10300,1861.0,12.6,226.3,95.7,0.0,0.0,0.0,0,
10400,1861.2,9.3,219.9,93.8,0.0,0.0,0.0,0,
10500,1860.5,11.5,204.3,193.4,0.0,0.0,0.0,0,
10600,1861.3,10.9,184.2,168.0,0.0,0.0,0.0,0,
10700,1860.8,10.8,158.5,150.4,0.0,0.0,0.0,0,
10900,1861.2,12.1,59.0,140.6,0.0,0.0,0.0,0,
11000,1855.4,129.9,52.4,44.9,0.0,0.0,0.0,0,
11100,1867.3,237.6,88.8,46.9,0.0,0.0,0.0,0,
11200,1864.9,214.4,133.5,64.5,0.0,0.0,0.0,0,
11300,1848.7,177.8,161.4,64.5,0.0,0.0,0.0,0,
11400,1861.1,159.3,187.5,66.4,0.0,0.0,0.0,0,
11500,1861.7,210.5,209.3,95.7,0.0,0.0,0.0,0,
11600,1859.7,23.8,222.1,95.7,0.0,0.0,0.0,0,
11700,1858.1,12.3,222.1,95.7,0.0,0.0,0.0,0,
11900,1861.2,9.3,222.1,95.7,0.0,0.0,0.0,0,
12000,1862.0,10.8,216.2,93.8,0.0,0.0,0.0,0,
12100,1860.3,12.0,204.0,166.0,0.0,0.0,0.0,0,
12200,1861.6,10.1,178.0,158.2,0.0,0.0,0.0,0,
12300,1861.0,11.6,153.1,191.4,0.0,0.0,0.0,0,
12400,1860.9,10.7,119.6,201.2,0.0,0.0,0.0,0,
12500,1861.3,10.6,75.4,171.9,0.0,0.0,0.0,0,
12600,1864.7,144.2,53.7,46.9,0.0,0.0,0.0,0,
12700,1860.3,160.5,89.3,39.1,0.0,0.0,0.0,0,
12900,1889.0,246.7,160.8,64.5,0.0,0.0,0.0,0,
13000,1851.8,215.0,192.0,64.5,0.0,0.0,0.0,0,
13100,1864.0,172.9,214.5,66.4,0.0,0.0,0.0,0,
13200,1870.8,31.1,228.5,66.4,0.0,0.0,0.0,0,
13300,1859.6,11.9,228.5,93.8,0.0,0.0,0.0,0,
13400,1862.0,10.3,228.5,93.8,0.0,0.0,0.0,0,
13500,1862.0,11.0,228.5,91.8,0.0,0.0,0.0,0,
13600,1861.6,10.5,222.4,91.8,0.0,0.0,0.0,0,
13700,1860.5,10.2,210.7,205.1,0.0,0.0,0.0,0,
13900,1860.8,12.5,162.7,175.8,0.0,0.0,0.0,0,
14000,1860.9,9.4,124.4,168.0,0.0,0.0,0.0,0,
14100,1861.3,11.6,79.7,160.2,0.0,0.0,0.0,0,
14200,1865.3,140.8,41.2,56.6,0.0,0.0,0.0,0,
14300,1871.5,214.8,83.0,41.0,0.0,0.0,0.0,0,
14400,1843.9,169.1,122.0,50.8,0.0,0.0,0.0,0,
14500,1861.2,153.4,150.9,64.5,0.0,0.0,0.0,0,
14600,1860.5,220.6,177.2,64.5,0.0,0.0,0.0,0,
14700,1887.1,230.3,204.0,66.4,0.0,0.0,0.0,0,
14900,1859.2,12.0,220.8,95.7,0.0,0.0,0.0,0,
15000,1860.5,10.9,220.8,93.8,0.0,0.0,0.0,0,
15100,1862.4,12.2,220.8,93.8,0.0,0.0,0.0,0,
15200,1860.5,10.8,217.2,93.8,0.0,0.0,0.0,0,
15300,1861.5,11.8,204.9,150.4,0.0,0.0,0.0,0,
15400,1860.8,11.6,184.4,140.6,0.0,0.0,0.0,0,
15500,1860.8,10.4,161.7,164.1,0.0,0.0,0.0,0,
15600,1860.2,10.4,132.3,210.9,0.0,0.0,0.0,0,
15700,1860.2,11.0,85.2,216.8,0.0,0.0,0.0,0,
15900,1861.6,181.0,61.0,39.1,0.0,0.0,0.0,0,
16000,1874.7,250.1,108.7,62.5,0.0,0.0,0.0,0,
16100,1842.0,203.9,147.7,64.5,0.0,0.0,0.0,0,
16200,1849.8,171.6,174.8,64.5,0.0,0.0,0.0,0,
16300,1859.3,179.8,199.0,66.4,0.0,0.0,0.0,0,
16400,1859.2,55.6,220.6,95.7,0.0,0.0,0.0,0,
16500,1860.5,14.2,220.6,95.7,0.0,0.0,0.0,0,
16600,1861.4,12.6,220.6,95.7,0.0,0.0,0.0,0,
16700,1862.0,11.2,220.6,93.8,0.0,0.0,0.0,0,
16900,1860.5,11.4,212.4,189.5,0.0,0.0,0.0,0,
17000,1861.3,10.4,192.4,169.9,0.0,0.0,0.0,0,
17100,1861.3,10.1,164.4,177.7,0.0,0.0,0.0,0,
17200,1861.7,12.1,135.3,199.2,0.0,0.0,0.0,0,
17300,1860.5,10.3,96.1,166.0,0.0,0.0,0.0,0,
17400,1880.4,144.8,29.7,97.7,0.0,0.0,0.0,0,
17500,1831.5,157.4,70.3,46.9,0.0,0.0,0.0,0,
17600,1856.4,162.8,113.0,62.5,0.0,0.0,0.0,0,
17700,1856.3,231.1,145.3,64.5,0.0,0.0,0.0,0,
17900,1831.2,204.4,203.5,66.4,0.0,0.0,0.0,0,
18000,1855.2,72.3,225.0,95.7,0.0,0.0,0.0,0,
18100,1863.7,14.5,225.0,95.7,0.0,0.0,0.0,0,
18200,1861.5,10.2,225.0,95.7,0.0,0.0,0.0,0,
18300,1860.6,11.0,225.0,93.8,0.0,0.0,0.0,0,
18400,1860.9,11.3,223.4,93.8,0.0,0.0,0.0,0,
18500,1860.8,9.9,214.1,146.5,0.0,0.0,0.0,0,
18600,1860.8,11.3,195.0,144.5,0.0,0.0,0.0,0,
18700,1861.1,11.7,172.3,158.2,0.0,0.0,0.0,0,
18900,1860.3,12.0,96.9,212.9,0.0,0.0,0.0,0,
19000,1861.2,122.3,13.0,195.3,0.0,0.0,0.0,0,
19100,1867.8,211.8,60.7,62.5,0.0,0.0,0.0,0,
19200,1843.4,219.3,113.4,64.5,0.0,0.0,0.0,0,
19300,1847.7,174.4,145.5,64.5,0.0,0.0,0.0,0,
19400,1857.4,198.6,173.7,64.5,0.0,0.0,0.0,0,
19500,1856.7,266.9,200.7,66.4,0.0,0.0,0.0,0,
19600,1862.0,113.1,230.8,93.8,0.0,0.0,0.0,0,
19700,1850.2,15.6,231.8,95.7,0.0,0.0,0.0,0,
19900,1862.3,11.2,231.8,93.8,0.0,0.0,0.0,0,
20000,1860.6,10.5,231.8,93.8,0.0,0.0,0.0,0,
20100,1861.3,10.9,224.1,91.8,0.0,0.0,0.0,0,
20200,1860.5,11.8,202.6,150.4,0.0,0.0,0.0,0,
20300,1860.3,10.5,180.9,130.9,0.0,0.0,0.0,0,
20400,1859.6,12.0,154.0,132.8,0.0,0.0,0.0,0,
20500,1860.6,12.7,116.8,136.7,0.0,0.0,0.0,0,
20600,1860.2,107.2,25.0,128.9,0.0,0.0,0.0,0,
20700,1863.9,150.9,66.5,43.0,0.0,0.0,0.0,0,
20900,1896.2,238.3,148.1,62.5,0.0,0.0,0.0,0,
21000,1849.4,204.6,177.3,64.5,0.0,0.0,0.0,0,
21100,1869.3,172.7,201.1,64.5,0.0,0.0,0.0,0,
21200,1873.7,152.4,224.7,66.4,0.0,0.0,0.0,0,
21300,1866.3,18.4,232.1,66.4,0.0,0.0,0.0,0,
21400,1859.8,12.0,232.1,66.4,0.0,0.0,0.0,0,
21500,1861.3,10.1,232.1,74.2,0.0,0.0,0.0,0,
21600,1861.8,10.5,232.1,80.1,0.0,0.0,0.0,0,
21700,1861.0,12.8,222.7,85.9,0.0,0.0,0.0,0,
21900,1859.4,11.2,179.2,193.4,0.0,0.0,0.0,0,
22000,1859.7,11.4,150.4,197.3,0.0,0.0,0.0,0,
22100,1861.1,10.3,116.7,189.5,0.0,0.0,0.0,0,
22200,1861.2,103.0,59.5,173.8,0.0,0.0,0.0,0,
22300,1866.7,162.3,61.9,41.0,0.0,0.0,0.0,0,
22400,1850.4,177.4,103.7,41.0,0.0,0.0,0.0,0,
22500,1867.3,189.7,138.0,62.5,0.0,0.0,0.0,0,
22600,1870.1,252.9,165.7,64.5,0.0,0.0,0.0,0,
22700,1873.1,240.0,197.9,64.5,0.0,0.0,0.0,0,
22900,1867.8,20.9,227.0,66.4,0.0,0.0,0.0,0,
23000,1859.6,10.7,227.0,66.4,0.0,0.0,0.0,0,
23100,1861.7,11.2,227.0,70.3,0.0,0.0,0.0,0,
23200,1860.4,11.7,227.0,72.3,0.0,0.0,0.0,0,
23300,1861.1,10.9,218.8,85.9,0.0,0.0,0.0,0,
23400,1860.4,11.5,202.3,127.0,0.0,0.0,0.0,0,
23500,1859.8,12.3,180.7,152.3,0.0,0.0,0.0,0,
23600,1860.5,10.1,155.8,160.2,0.0,0.0,0.0,0,
23700,1860.7,10.8,112.1,154.3,0.0,0.0,0.0,0,
23900,1857.4,161.0,55.8,46.9,0.0,0.0,0.0,0,
24000,1890.7,248.9,100.7,46.9,0.0,0.0,0.0,0,
24100,1836.5,188.0,140.7,62.5,0.0,0.0,0.0,0,
24200,1859.9,167.7,168.5,64.5,0.0,0.0,0.0,0,
24300,1865.0,241.6,196.8,64.5,0.0,0.0,0.0,0,
24400,1887.9,263.4,224.6,66.4,0.0,0.0,0.0,0,
24500,1844.5,24.6,236.9,66.4,0.0,0.0,0.0,0,
24600,1858.5,11.8,236.9,68.4,0.0,0.0,0.0,0,
24700,1860.6,11.4,236.9,85.9,0.0,0.0,0.0,0,
24900,1860.4,11.3,230.6,89.8,0.0,0.0,0.0,0,
25000,1859.9,12.9,214.8,197.3,0.0,0.0,0.0,0,
25100,1858.6,10.7,191.0,199.2,0.0,0.0,0.0,0,
25200,1859.9,11.2,167.0,177.7,0.0,0.0,0.0,0,
25300,1860.5,12.0,132.5,164.1,0.0,0.0,0.0,0,
25400,1859.9,10.1,76.4,169.9,0.0,0.0,0.0,0,
25500,1854.8,129.7,57.5,54.7,0.0,0.0,0.0,0,
25600,1859.2,199.5,95.0,44.9,0.0,0.0,0.0,0,
25700,1863.8,245.3,133.8,62.5,0.0,0.0,0.0,0,
25900,1847.0,184.1,196.0,64.5,0.0,0.0,0.0,0,
26000,1858.8,170.1,219.7,66.4,0.0,0.0,0.0,0,
26100,1864.9,32.3,234.7,95.7,0.0,0.0,0.0,0,
26200,1859.1,15.6,234.8,95.7,0.0,0.0,0.0,0,
26300,1858.5,13.5,234.8,93.8,0.0,0.0,0.0,0,
26400,1860.9,10.9,234.8,93.8,0.0,0.0,0.0,0,
26500,1861.1,10.8,228.0,89.8,0.0,0.0,0.0,0,
26600,1860.7,10.2,215.1,123.0,0.0,0.0,0.0,0,
26700,1860.5,10.6,193.3,144.5,0.0,0.0,0.0,0,
26900,1860.2,10.8,129.9,115.2,0.0,0.0,0.0,0,
27000,1860.5,10.4,83.8,138.7,0.0,0.0,0.0,0,
27100,1875.7,164.7,48.6,62.5,0.0,0.0,0.0,0,
27200,1839.5,194.0,86.9,41.0,0.0,0.0,0.0,0,
27300,1853.8,170.5,125.9,62.5,0.0,0.0,0.0,0,
27400,1860.1,220.4,156.4,64.5,0.0,0.0,0.0,0,
27500,1874.3,251.0,185.3,64.5,0.0,0.0,0.0,0,
27600,1839.5,213.0,212.4,66.4,0.0,0.0,0.0,0,
27700,1858.7,39.9,227.5,95.7,0.0,0.0,0.0,0,
27900,1859.7,11.6,227.5,93.8,0.0,0.0,0.0,0,
28000,1861.6,12.0,227.5,91.8,0.0,0.0,0.0,0,
28100,1859.9,9.8,222.6,85.9,0.0,0.0,0.0,0,
28200,1860.9,11.0,210.6,187.5,0.0,0.0,0.0,0,
28300,1860.3,11.8,189.9,162.1,0.0,0.0,0.0,0,
28400,1860.2,10.0,165.6,162.1,0.0,0.0,0.0,0,
28500,1860.0,10.9,132.6,191.4,0.0,0.0,0.0,0,
28600,1860.0,12.0,82.3,232.4,0.0,0.0,0.0,0,
28700,1856.8,133.1,41.4,56.6,0.0,0.0,0.0,0,
28900,1862.0,232.8,123.3,62.5,0.0,0.0,0.0,0,
29000,1839.8,180.9,153.0,64.5,0.0,0.0,0.0,0,
29100,1855.1,167.0,178.2,64.5,0.0,0.0,0.0,0,
29200,1856.3,228.6,200.8,66.4,0.0,0.0,0.0,0,
29300,1862.1,46.3,221.0,66.4,0.0,0.0,0.0,0,
29400,1861.5,16.8,221.0,95.7,0.0,0.0,0.0,0,
29500,1858.3,11.6,221.0,95.7,0.0,0.0,0.0,0,
29600,1860.0,10.3,221.0,93.8,0.0,0.0,0.0,0,
29700,1860.9,10.0,217.4,91.8,0.0,0.0,0.0,0,
29900,1860.2,10.3,183.8,199.2,0.0,0.0,0.0,0,
30000,1860.6,10.7,160.0,214.8,0.0,0.0,0.0,0,
30100,1860.3,11.8,131.3,177.7,0.0,0.0,0.0,0,
30200,1859.7,9.7,93.2,183.6,0.0,0.0,0.0,0,
30300,1865.8,131.5,36.3,78.1,0.0,0.0,0.0,0,
30400,1846.0,133.3,69.5,62.5,0.0,0.0,0.0,0,
30500,1855.5,218.5,110.0,62.5,0.0,0.0,0.0,0,
30600,1872.2,225.2,144.7,64.5,0.0,0.0,0.0,0,
30700,1842.0,190.8,170.5,64.5,0.0,0.0,0.0,0,
30900,1856.3,65.7,211.8,95.7,0.0,0.0,0.0,0,
31000,1863.9,14.2,211.9,95.7,0.0,0.0,0.0,0,
31100,1859.7,10.1,211.9,95.7,0.0,0.0,0.0,0,
31200,1861.4,10.5,211.9,93.8,0.0,0.0,0.0,0,
31300,1860.4,11.9,209.1,93.8,0.0,0.0,0.0,0,
31400,1860.6,11.8,200.6,164.1,0.0,0.0,0.0,0,
31500,1859.6,12.0,181.5,173.8,0.0,0.0,0.0,0,
31600,1859.8,14.2,155.3,169.9,0.0,0.0,0.0,0,
31700,1860.0,9.8,126.4,105.5,0.0,0.0,0.0,0,
31900,1863.3,124.2,18.8,101.6,0.0,0.0,0.0,0,
32000,1865.1,171.1,61.3,44.9,0.0,0.0,0.0,0,
32100,1839.2,185.1,98.6,43.0,0.0,0.0,0.0,0,
32200,1854.8,172.9,134.4,64.5,0.0,0.0,0.0,0,
32300,1852.6,218.6,163.0,64.5,0.0,0.0,0.0,0,
32400,1880.9,221.1,189.4,64.5,0.0,0.0,0.0,0,
32500,1832.8,89.4,210.8,66.4,0.0,0.0,0.0,0,
32600,1858.9,14.1,211.0,68.4,0.0,0.0,0.0,0,
32700,1859.9,11.4,211.0,91.8,0.0,0.0,0.0,0,
32900,1860.9,10.7,210.6,87.9,0.0,0.0,0.0,0,
33000,1859.8,11.9,202.3,85.9,0.0,0.0,0.0,0,
33100,1861.1,11.1,187.0,164.1,0.0,0.0,0.0,0,
33200,1860.3,9.7,163.2,187.5,0.0,0.0,0.0,0,
33300,1860.6,11.3,134.6,195.3,0.0,0.0,0.0,0,
33400,1859.9,11.9,93.8,203.1,0.0,0.0,0.0,0,
33500,1859.9,99.5,15.5,185.5,0.0,0.0,0.0,0,
33600,1852.0,170.5,62.7,48.8,0.0,0.0,0.0,0,
33700,1871.5,239.4,100.6,62.5,0.0,0.0,0.0,0,
33900,1846.9,160.6,160.9,64.5,0.0,0.0,0.0,0,
34000,1854.5,181.4,181.0,66.4,0.0,0.0,0.0,0,
34100,1854.7,109.4,202.7,95.7,0.0,0.0,0.0,0,
34200,1861.8,16.2,207.0,95.7,0.0,0.0,0.0,0,
34300,1859.5,11.8,207.0,95.7,0.0,0.0,0.0,0,
34400,1861.1,10.8,207.0,95.7,0.0,0.0,0.0,0,
34500,1860.3,11.1,207.0,93.8,0.0,0.0,0.0,0,
34600,1860.2,11.2,197.6,89.8,0.0,0.0,0.0,0,
34700,1860.1,10.7,181.3,164.1,0.0,0.0,0.0,0,
34900,1860.8,12.3,130.8,197.3,0.0,0.0,0.0,0,
35000,1860.4,10.0,101.1,201.2,0.0,0.0,0.0,0,
35100,1859.4,104.8,43.4,207.0,0.0,0.0,0.0,0,
35200,1853.8,140.7,55.3,48.8,0.0,0.0,0.0,0,
35300,1848.3,177.2,93.5,56.6,0.0,0.0,0.0,0,
35400,1851.3,227.1,131.9,64.5,0.0,0.0,0.0,0,
35500,1882.5,242.7,165.4,64.5,0.0,0.0,0.0,0,
35600,1831.0,200.0,194.0,64.5,0.0,0.0,0.0,0,
35700,1851.3,166.7,214.6,66.4,0.0,0.0,0.0,0,
35900,1858.5,10.4,221.8,95.7,0.0,0.0,0.0,0,
36000,1861.0,12.6,221.8,93.8,0.0,0.0,0.0,0,
36100,1861.5,11.9,221.8,93.8,0.0,0.0,0.0,0,
36200,1861.9,9.6,215.2,91.8,0.0,0.0,0.0,0,
36300,1860.8,10.7,201.6,164.1,0.0,0.0,0.0,0,
36400,1859.6,11.8,178.8,193.4,0.0,0.0,0.0,0,
36500,1860.6,9.9,148.3,224.6,0.0,0.0,0.0,0,
36600,1860.7,11.1,108.3,216.8,0.0,0.0,0.0,0,
36700,1860.9,59.6,57.4,185.5,0.0,0.0,0.0,0,
36900,1856.8,201.4,90.4,43.0,0.0,0.0,0.0,0,
37000,1848.3,167.6,125.4,62.5,0.0,0.0,0.0,0,
37100,1857.2,169.4,150.2,64.5,0.0,0.0,0.0,0,
37200,1853.8,231.9,173.1,64.5,0.0,0.0,0.0,0,
37300,1861.1,222.2,199.2,66.4,0.0,0.0,0.0,0,
37400,1849.4,20.7,206.7,95.7,0.0,0.0,0.0,0,
37500,1859.6,11.0,206.7,95.7,0.0,0.0,0.0,0,
37600,1861.4,11.8,206.7,95.7,0.0,0.0,0.0,0,
37700,1861.3,10.6,206.7,95.7,0.0,0.0,0.0,0,
37900,1859.6,11.3,186.3,216.8,0.0,0.0,0.0,0,
38000,1860.3,9.7,164.8,160.2,0.0,0.0,0.0,0,
38100,1861.0,11.8,142.6,138.7,0.0,0.0,0.0,0,
38200,1861.1,11.4,113.6,169.9,0.0,0.0,0.0,0,
38300,1860.2,10.6,56.7,212.9,0.0,0.0,0.0,0,
38400,1858.8,119.0,50.1,46.9,0.0,0.0,0.0,0,
38500,1862.9,219.6,81.9,39.1,0.0,0.0,0.0,0,
38600,1892.8,238.2,127.1,48.8,0.0,0.0,0.0,0,
38700,1840.0,186.3,157.9,64.5,0.0,0.0,0.0,0,
38900,1861.0,219.7,200.8,64.5,0.0,0.0,0.0,0,
39000,1860.7,27.2,215.2,93.8,0.0,0.0,0.0,0,
39100,1858.3,12.6,215.2,95.7,0.0,0.0,0.0,0,
39200,1860.4,10.3,215.2,95.7,0.0,0.0,0.0,0,
39300,1861.4,11.2,215.2,93.8,0.0,0.0,0.0,0,
39400,1860.9,11.1,209.7,91.8,0.0,0.0,0.0,0,
39500,1860.7,9.7,199.4,189.5,0.0,0.0,0.0,0,
39600,1860.7,12.7,174.1,210.9,0.0,0.0,0.0,0,
39700,1859.0,11.5,146.8,209.0,0.0,0.0,0.0,0,
39900,1860.1,11.2,78.4,169.9,0.0,0.0,0.0,0,
40000,1874.7,150.1,50.6,46.9,0.0,0.0,0.0,0,
40100,1856.1,163.0,81.9,37.1,0.0,0.0,0.0,0,
40200,1872.1,202.3,121.0,37.1,0.0,0.0,0.0,0,
40300,1879.4,227.3,150.9,62.5,0.0,0.0,0.0,0,
40400,1880.5,223.5,176.4,64.5,0.0,0.0,0.0,0,
40500,1856.4,184.9,197.5,64.5,0.0,0.0,0.0,0,
40600,1869.4,35.0,210.3,64.5,0.0,0.0,0.0,0,
40700,1858.7,10.9,210.3,66.4,0.0,0.0,0.0,0,
40900,1860.4,12.3,210.3,74.2,0.0,0.0,0.0,0,
41000,1860.0,10.1,204.5,84.0,0.0,0.0,0.0,0,
41100,1860.7,10.8,194.1,140.6,0.0,0.0,0.0,0,
41200,1860.6,11.8,172.4,156.3,0.0,0.0,0.0,0,
41300,1859.6,11.1,147.0,189.5,0.0,0.0,0.0,0,
41400,1860.4,10.8,115.0,156.3,0.0,0.0,0.0,0,
41500,1859.8,11.0,73.3,156.3,0.0,0.0,0.0,0,
41600,1856.8,132.5,38.9,62.5,0.0,0.0,0.0,0,
41700,1886.7,204.5,73.1,41.0,0.0,0.0,0.0,0,
41900,1860.8,152.4,142.7,64.5,0.0,0.0,0.0,0,
42000,1865.0,193.2,163.2,64.5,0.0,0.0,0.0,0,
42100,1881.6,222.5,183.4,64.5,0.0,0.0,0.0,0,
42200,1854.2,40.6,199.7,64.5,0.0,0.0,0.0,0,
42300,1858.5,12.5,199.7,66.4,0.0,0.0,0.0,0,
42400,1859.5,12.6,199.7,66.4,0.0,0.0,0.0,0,
42500,1861.2,10.4,199.7,68.4,0.0,0.0,0.0,0,
42600,1861.5,11.7,196.3,78.1,0.0,0.0,0.0,0,
42700,1860.6,11.7,186.2,158.2,0.0,0.0,0.0,0,
42900,1859.8,10.8,140.3,160.2,0.0,0.0,0.0,0,
43000,1859.5,11.5,115.7,171.9,0.0,0.0,0.0,0,
43100,1860.2,10.3,79.9,185.5,0.0,0.0,0.0,0,
43200,1858.3,108.6,36.2,62.5,0.0,0.0,0.0,0,
43300,1857.9,164.9,65.2,43.0,0.0,0.0,0.0,0,
43400,1861.5,245.8,105.3,43.0,0.0,0.0,0.0,0,
43500,1867.0,230.7,144.8,64.5,0.0,0.0,0.0,0,
43600,1845.1,178.0,171.0,64.5,0.0,0.0,0.0,0,
43700,1857.9,153.1,191.3,64.5,0.0,0.0,0.0,0,
43900,1860.7,14.4,211.0,85.9,0.0,0.0,0.0,0,
44000,1860.5,10.2,211.0,93.8,0.0,0.0,0.0,0,
44100,1861.4,10.3,211.0,91.8,0.0,0.0,0.0,0,
44200,1862.2,11.0,208.3,89.8,0.0,0.0,0.0,0,
44300,1860.3,10.5,201.1,158.2,0.0,0.0,0.0,0,
44400,1861.1,12.3,183.3,173.8,0.0,0.0,0.0,0,
44500,1860.8,11.5,154.0,177.7,0.0,0.0,0.0,0,
44600,1860.6,9.3,124.3,177.7,0.0,0.0,0.0,0,
44700,1860.7,10.5,90.0,177.7,0.0,0.0,0.0,0,
44900,1839.0,166.4,70.5,46.9,0.0,0.0,0.0,0,
45000,1848.0,164.0,104.1,54.7,0.0,0.0,0.0,0,
45100,1858.0,225.2,137.6,64.5,0.0,0.0,0.0,0,
45200,1868.6,213.2,166.1,64.5,0.0,0.0,0.0,0,
45300,1844.4,196.1,187.5,66.4,0.0,0.0,0.0,0,
45400,1847.2,68.2,205.1,95.7,0.0,0.0,0.0,0,
45500,1863.7,12.8,205.2,95.7,0.0,0.0,0.0,0,
45600,1860.3,10.9,205.2,95.7,0.0,0.0,0.0,0,
45700,1861.2,11.5,205.2,93.8,0.0,0.0,0.0,0,
45900,1859.9,10.1,193.1,138.7,0.0,0.0,0.0,0,
46000,1861.2,11.7,177.2,195.3,0.0,0.0,0.0,0,
46100,1860.6,11.3,152.7,140.6,0.0,0.0,0.0,0,
46200,1860.2,12.6,121.1,168.0,0.0,0.0,0.0,0,
46300,1860.8,12.5,84.3,144.5,0.0,0.0,0.0,0,
46400,1860.2,113.0,13.1,111.3,0.0,0.0,0.0,0,
46500,1856.0,173.7,59.7,50.8,0.0,0.0,0.0,0,
46600,1867.5,219.4,99.5,50.8,0.0,0.0,0.0,0,
46700,1837.3,182.8,132.3,64.5,0.0,0.0,0.0,0,
46900,1852.2,204.5,184.0,64.5,0.0,0.0,0.0,0,
47000,1880.7,92.9,204.8,66.4,0.0,0.0,0.0,0,
47100,1840.5,15.4,206.6,66.4,0.0,0.0,0.0,0,
47200,1860.6,11.7,206.6,93.8,0.0,0.0,0.0,0,
47300,1861.0,10.5,206.6,93.8,0.0,0.0,0.0,0,
47400,1860.5,10.4,206.6,91.8,0.0,0.0,0.0,0,
47500,1861.0,12.1,198.1,97.7,0.0,0.0,0.0,0,
47600,1860.5,9.9,181.4,191.4,0.0,0.0,0.0,0,
47700,1860.8,11.6,159.2,148.4,0.0,0.0,0.0,0,
47900,1860.5,11.6,94.7,191.4,0.0,0.0,0.0,0,
48000,1861.8,115.5,30.2,207.0,0.0,0.0,0.0,0,
48100,1850.0,121.6,57.8,56.6,0.0,0.0,0.0,0,
48200,1853.2,205.1,89.9,54.7,0.0,0.0,0.0,0,
48300,1868.0,224.5,123.8,64.5,0.0,0.0,0.0,0,
48400,1845.1,202.1,152.5,64.5,0.0,0.0,0.0,0,
48500,1846.1,157.1,172.2,64.5,0.0,0.0,0.0,0,
48600,1853.6,136.1,191.2,66.4,0.0,0.0,0.0,0,
48700,1861.9,18.0,196.9,66.4,0.0,0.0,0.0,0,
48900,1860.9,10.5,196.9,76.2,0.0,0.0,0.0,0,
49000,1861.5,12.1,196.9,84.0,0.0,0.0,0.0,0,
49100,1860.5,10.6,188.7,82.0,0.0,0.0,0.0,0,
49200,1860.5,12.2,175.7,144.5,0.0,0.0,0.0,0,
49300,1860.1,11.5,153.7,193.4,0.0,0.0,0.0,0,
49400,1859.9,10.2,125.3,226.6,0.0,0.0,0.0,0,
49500,1860.7,11.5,96.4,228.5,0.0,0.0,0.0,0,
49600,1860.4,79.0,48.7,195.3,0.0,0.0,0.0,0,
49700,1870.0,164.1,56.7,62.5,0.0,0.0,0.0,0,
49900,1853.6,157.1,119.5,64.5,0.0,0.0,0.0,0,
50000,1849.1,194.5,144.4,64.5,0.0,0.0,0.0,0,
50100,1877.2,207.0,167.2,64.5,0.0,0.0,0.0,0,
50200,1834.5,175.7,187.2,66.4,0.0,0.0,0.0,0,
50300,1856.5,18.1,192.7,95.7,0.0,0.0,0.0,0,
50400,1860.3,12.0,192.7,95.7,0.0,0.0,0.0,0,
50500,1860.9,11.1,192.7,95.7,0.0,0.0,0.0,0,
50600,1861.7,10.0,192.7,93.8,0.0,0.0,0.0,0,
50700,1861.7,10.8,184.5,91.8,0.0,0.0,0.0,0,
50900,1862.3,11.2,151.7,195.3,0.0,0.0,0.0,0,
51000,1862.1,12.2,128.2,189.5,0.0,0.0,0.0,0,
51100,1860.9,11.5,96.7,173.8,0.0,0.0,0.0,0,
51200,1860.8,19.1,47.2,183.6,0.0,0.0,0.0,0,
51300,1864.1,175.9,54.6,41.0,0.0,0.0,0.0,0,
51400,1895.1,234.3,92.6,37.1,0.0,0.0,0.0,0,
51500,1865.7,223.8,130.3,35.2,0.0,0.0,0.0,0,
51600,1866.1,156.6,155.8,62.5,0.0,0.0,0.0,0,
51700,1873.0,172.7,175.7,64.5,0.0,0.0,0.0,0,
51900,1866.4,23.0,203.2,64.5,0.0,0.0,0.0,0,
52000,1859.1,11.2,203.2,66.4,0.0,0.0,0.0,0,
52100,1861.3,11.4,203.2,68.4,0.0,0.0,0.0,0,
52200,1860.0,10.9,203.2,72.3,0.0,0.0,0.0,0,
52300,1860.8,11.9,196.1,87.9,0.0,0.0,0.0,0,
52400,1861.3,10.1,181.4,205.1,0.0,0.0,0.0,0,
52500,1861.1,11.5,156.5,197.3,0.0,0.0,0.0,0,
52600,1860.3,11.6,131.1,197.3,0.0,0.0,0.0,0,
52700,1861.1,9.8,103.0,212.9,0.0,0.0,0.0,0,
52900,1858.8,122.9,49.6,62.5,0.0,0.0,0.0,0,
53000,1857.1,158.8,80.7,46.9,0.0,0.0,0.0,0,
53100,1858.7,216.7,111.5,62.5,0.0,0.0,0.0,0,
53200,1886.4,201.5,144.0,64.5,0.0,0.0,0.0,0,
53300,1846.7,164.6,165.1,64.5,0.0,0.0,0.0,0,
53400,1861.4,131.6,181.2,64.5,0.0,0.0,0.0,0,
53500,1866.0,26.8,192.1,66.4,0.0,0.0,0.0,0,
53600,1860.0,10.5,192.1,66.4,0.0,0.0,0.0,0,
53700,1862.5,11.5,192.1,74.2,0.0,0.0,0.0,0,
53900,1861.9,9.8,186.0,89.8,0.0,0.0,0.0,0,
54000,1862.1,11.1,174.8,160.2,0.0,0.0,0.0,0,
54100,1860.8,11.5,156.9,160.2,0.0,0.0,0.0,0,
54200,1861.0,10.2,127.8,195.3,0.0,0.0,0.0,0,
54300,1860.8,10.8,99.0,185.5,0.0,0.0,0.0,0,
54400,1861.5,11.7,65.1,160.2,0.0,0.0,0.0,0,
54500,1869.6,163.9,48.1,68.4,0.0,0.0,0.0,0,
54600,1851.5,209.1,86.2,62.5,0.0,0.0,0.0,0,
54700,1844.2,169.3,122.1,64.5,0.0,0.0,0.0,0,
54900,1857.5,227.3,173.8,64.5,0.0,0.0,0.0,0,
55000,1860.7,203.4,197.6,66.4,0.0,0.0,0.0,0,
55100,1848.3,34.8,209.0,93.8,0.0,0.0,0.0,0,
55200,1859.5,12.4,209.0,95.7,0.0,0.0,0.0,0,
55300,1860.7,11.9,209.0,95.7,0.0,0.0,0.0,0,
55400,1861.5,10.2,209.1,95.7,0.0,0.0,0.0,0,
55500,1861.3,11.5,203.8,93.8,0.0,0.0,0.0,0,
55600,1861.0,10.8,190.8,146.5,0.0,0.0,0.0,0,
55700,1860.7,9.6,170.1,160.2,0.0,0.0,0.0,0,
55900,1860.9,11.6,116.8,173.8,0.0,0.0,0.0,0,
56000,1860.8,9.6,69.3,191.4,0.0,0.0,0.0,0,
56100,1856.2,121.6,37.1,70.3,0.0,0.0,0.0,0,
56200,1851.2,183.7,68.1,64.5,0.0,0.0,0.0,0,
56300,1881.3,215.2,108.9,64.5,0.0,0.0,0.0,0,
56400,1834.8,173.6,135.4,64.5,0.0,0.0,0.0,0,
56500,1850.8,134.8,157.9,64.5,0.0,0.0,0.0,0,
56600,1856.5,182.2,175.1,66.4,0.0,0.0,0.0,0,
56700,1858.6,44.3,191.1,66.4,0.0,0.0,0.0,0,
56900,1860.4,10.6,191.1,95.7,0.0,0.0,0.0,0,
57000,1861.8,11.0,191.1,93.8,0.0,0.0,0.0,0,
57100,1861.3,11.6,187.9,89.8,0.0,0.0,0.0,0,
57200,1861.7,10.9,179.0,177.7,0.0,0.0,0.0,0,
57300,1860.3,11.2,157.5,152.3,0.0,0.0,0.0,0,
57400,1860.4,12.5,135.4,150.4,0.0,0.0,0.0,0,
57500,1860.8,9.5,108.4,160.2,0.0,0.0,0.0,0,
57600,1860.9,10.7,77.4,183.6,0.0,0.0,0.0,0,
57700,1873.9,141.3,36.3,93.8,0.0,0.0,0.0,0,
57900,1856.1,190.5,104.1,62.5,0.0,0.0,0.0,0,
58000,1864.3,232.0,136.8,64.5,0.0,0.0,0.0,0,
58100,1860.2,194.7,164.8,64.5,0.0,0.0,0.0,0,
58200,1845.6,148.6,182.3,64.5,0.0,0.0,0.0,0,
58300,1855.0,55.4,196.6,66.4,0.0,0.0,0.0,0,
58400,1863.3,13.1,196.6,95.7,0.0,0.0,0.0,0,
58500,1861.7,11.4,196.6,95.7,0.0,0.0,0.0,0,
58600,1861.4,11.2,196.6,93.8,0.0,0.0,0.0,0,
58700,1861.1,9.1,193.6,93.8,0.0,0.0,0.0,0,
58900,1860.4,11.6,167.3,209.0,0.0,0.0,0.0,0,
59000,1861.2,10.4,141.8,207.0,0.0,0.0,0.0,0,
59100,1861.0,11.4,108.0,209.0,0.0,0.0,0.0,0,
59200,1861.2,11.2,74.6,212.9,0.0,0.0,0.0,0,
59300,1861.8,142.6,17.2,220.7,0.0,0.0,0.0,0,
59400,1887.2,181.6,66.9,56.6,0.0,0.0,0.0,0,
59500,1858.8,186.9,102.9,52.7,0.0,0.0,0.0,0,
59600,1868.3,167.4,132.2,62.5,0.0,0.0,0.0,0,
59700,1874.5,222.3,157.9,64.5,0.0,0.0,0.0,0,
59900,1859.3,78.1,200.9,64.5,0.0,0.0,0.0,0,
60000,1857.8,14.2,201.1,64.5,0.0,0.0,0.0,0,
60100,1860.8,11.6,201.1,66.4,0.0,0.0,0.0,0,
60200,1860.0,10.5,201.1,68.4,0.0,0.0,0.0,0,
60300,1861.9,11.1,200.8,76.2,0.0,0.0,0.0,0,
60400,1862.1,11.8,190.1,85.9,0.0,0.0,0.0,0,
60500,1860.8,8.9,173.3,203.1,0.0,0.0,0.0,0,
60600,1861.2,10.4,152.2,222.7,0.0,0.0,0.0,0,
60700,1861.0,11.8,125.3,210.9,0.0,0.0,0.0,0,
60900,1860.8,95.1,15.1,205.1,0.0,0.0,0.0,0,
61000,1859.9,129.3,54.0,39.1,0.0,0.0,0.0,0,
61100,1870.5,213.3,85.8,37.1,0.0,0.0,0.0,0,
61200,1867.2,204.7,122.2,39.1,0.0,0.0,0.0,0,
61300,1850.5,159.3,144.7,64.5,0.0,0.0,0.0,0,
61400,1863.8,138.9,163.0,64.5,0.0,0.0,0.0,0,
61500,1866.5,106.9,179.4,64.5,0.0,0.0,0.0,0,
61600,1865.3,16.6,184.0,64.5,0.0,0.0,0.0,0,
61700,1860.2,10.3,184.0,66.4,0.0,0.0,0.0,0,
61900,1860.8,12.6,184.0,68.4,0.0,0.0,0.0,0,
62000,1860.4,9.8,176.4,89.8,0.0,0.0,0.0,0,
62100,1860.8,11.3,163.3,175.8,0.0,0.0,0.0,0,
62200,1860.8,11.7,138.2,154.3,0.0,0.0,0.0,0,
62300,1860.6,10.8,114.4,160.2,0.0,0.0,0.0,0,
62400,1861.0,11.1,86.3,158.2,0.0,0.0,0.0,0,
62500,1860.5,105.2,42.9,187.5,0.0,0.0,0.0,0,
62600,1858.1,152.8,59.3,66.4,0.0,0.0,0.0,0,
62700,1849.3,160.4,97.6,64.5,0.0,0.0,0.0,0,
62900,1874.2,194.0,147.5,64.5,0.0,0.0,0.0,0,
63000,1842.6,176.6,166.3,64.5,0.0,0.0,0.0,0,
63100,1849.8,137.4,182.8,66.4,0.0,0.0,0.0,0,
63200,1862.3,16.9,187.9,95.7,0.0,0.0,0.0,0,
63300,1861.0,11.3,187.9,93.8,0.0,0.0,0.0,0,
63400,1860.5,12.5,187.9,93.8,0.0,0.0,0.0,0,
63500,1861.1,11.1,187.9,87.9,0.0,0.0,0.0,0,
63600,1861.0,11.6,178.7,91.8,0.0,0.0,0.0,0,
63700,1860.0,12.2,161.0,187.5,0.0,0.0,0.0,0,
63900,1861.4,11.1,117.1,175.8,0.0,0.0,0.0,0,
64000,1860.1,11.6,88.4,152.3,0.0,0.0,0.0,0,
64100,1861.1,43.7,45.2,156.3,0.0,0.0,0.0,0,
64200,1862.3,131.2,46.5,62.5,0.0,0.0,0.0,0,
64300,1864.9,198.7,79.8,62.5,0.0,0.0,0.0,0,
64400,1840.1,184.9,117.6,64.5,0.0,0.0,0.0,0,
64500,1856.2,175.7,149.4,64.5,0.0,0.0,0.0,0,
64600,1853.0,204.1,173.5,64.5,0.0,0.0,0.0,0,
64700,1877.7,205.3,195.3,66.4,0.0,0.0,0.0,0,
64900,1860.4,11.8,202.5,95.7,0.0,0.0,0.0,0,
65000,1861.3,10.7,202.5,93.8,0.0,0.0,0.0,0,
65100,1861.6,12.1,202.5,93.8,0.0,0.0,0.0,0,
65200,1860.3,11.8,197.5,91.8,0.0,0.0,0.0,0,
65300,1860.3,10.5,186.6,189.5,0.0,0.0,0.0,0,
65400,1860.4,10.9,165.4,150.4,0.0,0.0,0.0,0,
65500,1860.8,11.1,137.3,148.4,0.0,0.0,0.0,0,
65600,1860.3,10.2,105.3,154.3,0.0,0.0,0.0,0,
65700,1860.8,11.3,54.9,150.4,0.0,0.0,0.0,0,
65900,1854.7,196.4,73.1,56.6,0.0,0.0,0.0,0,
66000,1876.4,235.0,115.3,64.5,0.0,0.0,0.0,0,
66100,1835.8,196.1,146.9,64.5,0.0,0.0,0.0,0,
66200,1847.6,148.2,167.8,64.5,0.0,0.0,0.0,0,
66300,1853.0,189.7,187.9,66.4,0.0,0.0,0.0,0,
66400,1862.4,28.7,201.3,95.7,0.0,0.0,0.0,0,
66500,1858.3,10.1,201.3,95.7,0.0,0.0,0.0,0,
66600,1860.6,9.4,201.3,95.7,0.0,0.0,0.0,0,
66700,1860.3,10.4,201.3,95.7,0.0,0.0,0.0,0,
66900,1860.5,11.4,188.0,187.5,0.0,0.0,0.0,0,
67000,1861.3,11.9,165.4,191.4,0.0,0.0,0.0,0,
67100,1860.7,11.2,138.2,162.1,0.0,0.0,0.0,0,
67200,1861.1,11.1,112.0,148.4,0.0,0.0,0.0,0,
67300,1861.9,12.2,73.2,142.6,0.0,0.0,0.0,0,
67400,1875.5,140.4,44.0,56.6,0.0,0.0,0.0,0,
67500,1853.5,166.5,77.2,37.1,0.0,0.0,0.0,0,
67600,1866.8,176.4,115.1,35.2,0.0,0.0,0.0,0,
67700,1873.9,240.0,146.4,64.5,0.0,0.0,0.0,0,
67900,1854.7,189.8,196.7,64.5,0.0,0.0,0.0,0,
68000,1863.5,34.2,209.5,66.4,0.0,0.0,0.0,0,
68100,1859.7,12.7,209.5,66.4,0.0,0.0,0.0,0,
68200,1860.7,11.8,209.5,93.8,0.0,0.0,0.0,0,
68300,1861.7,9.7,209.5,91.8,0.0,0.0,0.0,0,
68400,1861.9,11.7,205.2,91.8,0.0,0.0,0.0,0,
68500,1860.7,14.0,195.2,195.3,0.0,0.0,0.0,0,
68600,1860.6,11.2,175.5,199.2,0.0,0.0,0.0,0,
68700,1860.4,12.2,150.4,123.0,0.0,0.0,0.0,0,
68900,1860.7,11.4,73.4,87.9,0.0,0.0,0.0,0,
69000,1860.1,152.1,40.9,54.7,0.0,0.0,0.0,0,
69100,1886.8,206.7,74.6,37.1,0.0,0.0,0.0,0,
69200,1849.5,200.2,112.6,35.2,0.0,0.0,0.0,0,
69300,1856.4,158.4,139.7,35.2,0.0,0.0,0.0,0,
69400,1864.7,176.2,161.7,64.5,0.0,0.0,0.0,0,
69500,1874.7,213.0,179.9,64.5,0.0,0.0,0.0,0,
69600,1858.3,40.4,196.4,64.5,0.0,0.0,0.0,0,
69700,1860.3,14.0,196.4,66.4,0.0,0.0,0.0,0,
69900,1861.5,11.4,196.3,74.2,0.0,0.0,0.0,0,
70000,1861.0,11.2,192.5,87.9,0.0,0.0,0.0,0,
70100,1859.9,9.3,182.1,148.4,0.0,0.0,0.0,0,
70200,1862.1,9.9,161.4,109.4,0.0,0.0,0.0,0,
70300,1861.0,11.9,138.5,115.2,0.0,0.0,0.0,0,
70400,1861.1,9.0,112.2,154.3,0.0,0.0,0.0,0,
70500,1860.1,10.0,79.7,187.5,0.0,0.0,0.0,0,
70600,1861.5,114.6,33.4,62.5,0.0,0.0,0.0,0,
70700,1856.6,148.5,61.9,37.1,0.0,0.0,0.0,0,
70900,1879.9,234.9,137.0,35.2,0.0,0.0,0.0,0,
71000,1840.1,187.1,164.9,64.5,0.0,0.0,0.0,0,
71100,1856.8,150.8,185.2,64.5,0.0,0.0,0.0,0,
71200,1861.4,57.2,204.2,64.5,0.0,0.0,0.0,0,
71300,1862.2,13.2,204.2,66.4,0.0,0.0,0.0,0,
71400,1860.8,11.4,204.2,68.4,0.0,0.0,0.0,0,
71500,1861.7,10.9,204.2,85.9,0.0,0.0,0.0,0,
71600,1861.2,10.4,201.8,89.8,0.0,0.0,0.0,0,
71700,1859.8,11.3,195.0,209.0,0.0,0.0,0.0,0,
71900,1859.8,9.6,151.9,142.6,0.0,0.0,0.0,0,
72000,1860.1,10.5,121.1,146.5,0.0,0.0,0.0,0,
72100,1860.8,11.0,86.8,150.4,0.0,0.0,0.0,0,
72200,1877.5,140.4,26.7,105.5,0.0,0.0,0.0,0,
72300,1848.4,164.9,63.3,37.1,0.0,0.0,0.0,0,
72400,1847.7,147.0,94.9,35.2,0.0,0.0,0.0,0,
72500,1856.0,196.2,123.0,39.1,0.0,0.0,0.0,0,
72600,1865.3,213.7,148.0,64.5,0.0,0.0,0.0,0,
72700,1860.1,203.1,170.2,64.5,0.0,0.0,0.0,0,
72900,1862.3,14.5,187.6,64.5,0.0,0.0,0.0,0,
73000,1861.0,10.3,187.6,64.5,0.0,0.0,0.0,0,
73100,1859.3,9.1,187.6,66.4,0.0,0.0,0.0,0,
73200,1860.9,10.2,186.1,66.4,0.0,0.0,0.0,0,
73300,1860.8,11.3,177.0,130.9,0.0,0.0,0.0,0,
73400,1860.5,10.9,162.3,136.7,0.0,0.0,0.0,0,
73500,1860.1,10.9,142.1,142.6,0.0,0.0,0.0,0,
73600,1861.4,10.8,116.0,107.4,0.0,0.0,0.0,0,
73700,1859.1,9.4,79.9,103.5,0.0,0.0,0.0,0,
73900,1856.7,149.0,62.1,37.1,0.0,0.0,0.0,0,
74000,1879.6,211.2,92.4,35.2,0.0,0.0,0.0,0,
74100,1837.3,169.8,122.9,35.2,0.0,0.0,0.0,0,
74200,1852.5,157.1,144.5,64.5,0.0,0.0,0.0,0,
74300,1859.0,200.2,164.5,64.5,0.0,0.0,0.0,0,
74400,1876.1,98.0,185.0,64.5,0.0,0.0,0.0,0,
74500,1843.3,14.2,186.9,64.5,0.0,0.0,0.0,0,
74600,1860.6,11.3,187.0,66.4,0.0,0.0,0.0,0,
74700,1861.8,10.8,187.0,66.4,0.0,0.0,0.0,0,
74900,1861.7,9.6,176.9,84.0,0.0,0.0,0.0,0,
75000,1862.0,11.6,163.1,87.9,0.0,0.0,0.0,0,
75100,1861.2,10.3,141.5,93.8,0.0,0.0,0.0,0,
75200,1860.8,9.9,119.4,158.2,0.0,0.0,0.0,0,
75300,1861.3,11.5,89.8,189.5,0.0,0.0,0.0,0,
75400,1861.6,109.0,30.0,199.2,0.0,0.0,0.0,0,
75500,1854.9,121.1,57.3,46.9,0.0,0.0,0.0,0,
75600,1860.6,186.1,88.2,39.1,0.0,0.0,0.0,0,
75700,1872.5,230.5,118.5,39.1,0.0,0.0,0.0,0,
75900,1847.3,156.3,168.6,64.5,0.0,0.0,0.0,0,
76000,1855.8,126.0,185.2,64.5,0.0,0.0,0.0,0,
76100,1861.9,15.9,190.7,64.5,0.0,0.0,0.0,0,
76200,1859.6,10.9,190.7,66.4,0.0,0.0,0.0,0,
76300,1860.7,10.7,190.7,68.4,0.0,0.0,0.0,0,
76400,1861.1,10.1,190.7,78.1,0.0,0.0,0.0,0,
76500,1860.8,11.1,182.4,87.9,0.0,0.0,0.0,0,
76600,1860.0,11.1,169.5,212.9,0.0,0.0,0.0,0,
76700,1860.6,9.6,149.9,187.5,0.0,0.0,0.0,0,
76900,1860.6,12.6,89.9,187.5,0.0,0.0,0.0,0,
77000,1859.3,73.1,46.9,205.1,0.0,0.0,0.0,0,
77100,1879.6,176.9,59.1,39.1,0.0,0.0,0.0,0,
77200,1850.8,180.5,95.3,35.2,0.0,0.0,0.0,0,
77300,1863.0,158.6,122.4,35.2,0.0,0.0,0.0,0,
77400,1871.5,201.8,147.5,35.2,0.0,0.0,0.0,0,
77500,1893.7,209.4,169.4,64.5,0.0,0.0,0.0,0,
77600,1851.2,189.3,188.3,64.5,0.0,0.0,0.0,0,
77700,1860.3,20.9,194.1,64.5,0.0,0.0,0.0,0,
77900,1860.8,9.0,194.1,66.4,0.0,0.0,0.0,0,
78000,1861.3,10.2,194.1,66.4,0.0,0.0,0.0,0,
78100,1861.0,11.0,185.3,66.4,0.0,0.0,0.0,0,
78200,1860.6,9.4,169.5,152.3,0.0,0.0,0.0,0,
78300,1861.6,11.2,151.1,128.9,0.0,0.0,0.0,0,
78400,1861.2,11.7,126.7,144.5,0.0,0.0,0.0,0,
78500,1860.7,9.8,95.5,185.5,0.0,0.0,0.0,0,
78600,1861.1,11.5,48.7,171.9,0.0,0.0,0.0,0,
78700,1854.5,175.3,55.8,44.9,0.0,0.0,0.0,0,
78900,1853.1,210.3,128.2,50.8,0.0,0.0,0.0,0,
79000,1845.3,167.9,153.3,64.5,0.0,0.0,0.0,0,
79100,1855.4,160.1,172.6,64.5,0.0,0.0,0.0,0,
79200,1857.2,217.9,188.8,64.5,0.0,0.0,0.0,0,
79300,1864.1,25.8,199.3,64.5,0.0,0.0,0.0,0,
79400,1859.5,10.3,199.3,64.5,0.0,0.0,0.0,0,
79500,1860.2,10.9,199.3,66.4,0.0,0.0,0.0,0,
79600,1861.5,11.1,199.3,68.4,0.0,0.0,0.0,0,
79700,1860.9,9.9,191.7,70.3,0.0,0.0,0.0,0,
79900,1860.4,10.8,153.1,214.8,0.0,0.0,0.0,0,
80000,1861.2,9.6,127.9,205.1,0.0,0.0,0.0,0,
80100,1860.5,11.4,100.4,171.9,0.0,0.0,0.0,0,
80200,1859.8,12.0,64.9,187.5,0.0,0.0,0.0,0,
80300,1860.9,141.9,53.6,62.5,0.0,0.0,0.0,0,
80400,1852.0,154.9,85.2,46.9,0.0,0.0,0.0,0,
80500,1854.7,207.9,118.6,48.8,0.0,0.0,0.0,0,
80600,1885.9,217.6,148.4,64.5,0.0,0.0,0.0,0,
80700,1837.1,185.2,170.5,64.5,0.0,0.0,0.0,0,
80900,1861.3,29.1,199.0,66.4,0.0,0.0,0.0,0,
81000,1859.5,11.6,199.0,66.4,0.0,0.0,0.0,0,
81100,1860.3,12.3,199.0,66.4,0.0,0.0,0.0,0,
81200,1860.7,9.9,199.0,70.3,0.0,0.0,0.0,0,
81300,1860.6,10.1,192.0,84.0,0.0,0.0,0.0,0,
81400,1861.3,10.9,180.2,203.1,0.0,0.0,0.0,0,
81500,1861.4,10.8,160.2,207.0,0.0,0.0,0.0,0,
81600,1861.3,11.3,133.0,207.0,0.0,0.0,0.0,0,
81700,1860.0,11.7,103.3,207.0,0.0,0.0,0.0,0,
81900,1869.7,165.8,46.1,62.5,0.0,0.0,0.0,0,
82000,1858.9,200.8,84.7,37.1,0.0,0.0,0.0,0,
82100,1846.9,166.7,116.4,37.1,0.0,0.0,0.0,0,
82200,1858.9,162.0,139.2,62.5,0.0,0.0,0.0,0,
82300,1862.9,203.7,159.6,64.5,0.0,0.0,0.0,0,
82400,1871.8,200.4,180.7,64.5,0.0,0.0,0.0,0,
82500,1845.9,36.1,193.0,64.5,0.0,0.0,0.0,0,
82600,1859.0,13.5,192.9,66.4,0.0,0.0,0.0,0,
82700,1861.0,10.3,193.0,66.4,0.0,0.0,0.0,0,
82900,1863.0,12.3,187.8,74.2,0.0,0.0,0.0,0,
83000,1860.3,10.7,173.8,205.1,0.0,0.0,0.0,0,
83100,1861.8,11.1,154.4,177.7,0.0,0.0,0.0,0,
83200,1861.1,11.8,134.2,166.0,0.0,0.0,0.0,0,
83300,1860.3,10.1,109.1,205.1,0.0,0.0,0.0,0,
83400,1861.4,10.7,68.8,207.0,0.0,0.0,0.0,0,
83500,1858.4,126.7,41.4,54.7,0.0,0.0,0.0,0,
83600,1866.1,208.6,78.5,37.1,0.0,0.0,0.0,0,
83700,1896.8,212.1,118.0,35.2,0.0,0.0,0.0,0,
83900,1861.3,143.6,160.1,64.5,0.0,0.0,0.0,0,
84000,1868.3,187.8,177.5,64.5,0.0,0.0,0.0,0,
84100,1870.9,46.3,192.6,64.5,0.0,0.0,0.0,0,
84200,1863.9,17.0,192.6,64.5,0.0,0.0,0.0,0,
84300,1860.8,10.0,192.7,64.5,0.0,0.0,0.0,0,
84400,1861.6,11.0,192.7,66.4,0.0,0.0,0.0,0,
84500,1861.9,10.7,188.6,68.4,0.0,0.0,0.0,0,
84600,1861.6,11.0,176.4,105.5,0.0,0.0,0.0,0,
84700,1861.5,11.7,152.8,183.6,0.0,0.0,0.0,0,
84900,1861.5,11.7,108.0,183.6,0.0,0.0,0.0,0,
85000,1861.0,12.6,76.0,169.9,0.0,0.0,0.0,0,
85100,1878.1,186.2,41.9,87.9,0.0,0.0,0.0,0,
85200,1836.3,163.6,85.0,56.6,0.0,0.0,0.0,0,
85300,1857.0,177.2,117.1,62.5,0.0,0.0,0.0,0,
85400,1863.3,218.4,142.8,64.5,0.0,0.0,0.0,0,
85500,1870.7,200.9,167.1,64.5,0.0,0.0,0.0,0,
85600,1847.0,171.6,184.4,64.5,0.0,0.0,0.0,0,
85700,1857.3,62.0,201.2,64.5,0.0,0.0,0.0,0,
85900,1860.7,11.3,201.2,66.4,0.0,0.0,0.0,0,
86000,1862.0,9.8,201.2,68.4,0.0,0.0,0.0,0,
86100,1862.5,10.4,197.2,74.2,0.0,0.0,0.0,0,
86200,1861.9,12.3,182.8,127.0,0.0,0.0,0.0,0,
86300,1861.1,9.4,164.0,175.8,0.0,0.0,0.0,0,
86400,1860.6,10.4,142.3,185.5,0.0,0.0,0.0,0,
86500,1860.4,11.8,112.8,168.0,0.0,0.0,0.0,0,
86600,1860.2,10.2,81.3,171.9,0.0,0.0,0.0,0,
86700,1857.9,149.5,15.9,166.0,0.0,0.0,0.0,0,
86900,1838.5,188.9,114.3,46.9,0.0,0.0,0.0,0,
87000,1848.8,159.8,141.7,62.5,0.0,0.0,0.0,0,
87100,1856.8,205.5,165.8,64.5,0.0,0.0,0.0,0,
87200,1871.4,211.8,187.1,64.5,0.0,0.0,0.0,0,
87300,1848.4,85.4,206.1,66.4,0.0,0.0,0.0,0,
87400,1854.8,14.7,206.4,66.4,0.0,0.0,0.0,0,
87500,1861.3,9.6,206.4,70.3,0.0,0.0,0.0,0,
87600,1860.6,10.7,206.4,85.9,0.0,0.0,0.0,0,
87700,1861.2,10.5,206.2,87.9,0.0,0.0,0.0,0,
87900,1861.2,11.5,172.3,160.2,0.0,0.0,0.0,0,
88000,1860.9,11.3,150.5,152.3,0.0,0.0,0.0,0,
88100,1861.4,10.7,123.5,146.5,0.0,0.0,0.0,0,
88200,1862.2,12.0,88.0,158.2,0.0,0.0,0.0,0,
88300,1861.0,109.9,15.8,177.7,0.0,0.0,0.0,0,
88400,1850.4,181.7,72.8,62.5,0.0,0.0,0.0,0,
88500,1862.1,234.8,110.8,62.5,0.0,0.0,0.0,0,
88600,1865.6,207.7,144.4,64.5,0.0,0.0,0.0,0,
88700,1846.7,161.1,163.6,64.5,0.0,0.0,0.0,0,
88900,1855.3,110.5,198.8,64.5,0.0,0.0,0.0,0,
89000,1868.2,16.6,203.6,66.4,0.0,0.0,0.0,0,
89100,1860.7,11.6,203.6,66.4,0.0,0.0,0.0,0,
89200,1862.0,11.7,203.6,80.1,0.0,0.0,0.0,0,
89300,1861.6,11.5,203.6,84.0,0.0,0.0,0.0,0,
89400,1861.7,11.0,190.6,89.8,0.0,0.0,0.0,0,
89500,1862.0,10.5,171.3,191.4,0.0,0.0,0.0,0,
89600,1861.6,9.6,144.1,224.6,0.0,0.0,0.0,0,
89700,1862.2,10.2,121.9,222.7,0.0,0.0,0.0,0,
89900,1860.8,116.7,45.8,216.8,0.0,0.0,0.0,0,
90000,1865.8,191.5,71.2,50.8,0.0,0.0,0.0,0,
90100,1852.1,162.4,109.1,43.0,0.0,0.0,0.0,0,
90200,1858.5,207.9,136.5,62.5,0.0,0.0,0.0,0,
90300,1875.0,206.7,161.4,64.5,0.0,0.0,0.0,0,
90400,1848.7,182.8,180.6,64.5,0.0,0.0,0.0,0,
90500,1846.6,151.7,196.6,64.5,0.0,0.0,0.0,0,
90600,1861.2,17.4,201.8,66.4,0.0,0.0,0.0,0,
90700,1860.8,11.5,201.8,68.4,0.0,0.0,0.0,0,
90900,1860.4,11.2,201.8,80.1,0.0,0.0,0.0,0,
91000,1861.0,10.8,189.2,87.9,0.0,0.0,0.0,0,
91100,1860.8,9.9,170.2,154.3,0.0,0.0,0.0,0,
91200,1862.0,11.1,149.1,140.6,0.0,0.0,0.0,0,
91300,1860.6,11.8,121.6,175.8,0.0,0.0,0.0,0,
91400,1860.5,10.5,90.9,177.7,0.0,0.0,0.0,0,
91500,1860.6,53.4,46.9,169.9,0.0,0.0,0.0,0,
91600,1871.8,201.2,56.4,44.9,0.0,0.0,0.0,0,
91700,1882.5,231.8,103.9,35.2,0.0,0.0,0.0,0,
91900,1862.2,154.9,158.7,62.5,0.0,0.0,0.0,0,
92000,1865.3,202.6,176.3,64.5,0.0,0.0,0.0,0,
92100,1890.2,210.3,198.6,64.5,0.0,0.0,0.0,0,
92200,1840.1,22.1,206.0,64.5,0.0,0.0,0.0,0,
92300,1858.9,12.2,206.0,66.4,0.0,0.0,0.0,0,
92400,1861.9,9.5,206.0,66.4,0.0,0.0,0.0,0,
92500,1861.4,10.3,206.0,70.3,0.0,0.0,0.0,0,
92600,1860.3,9.7,198.5,91.8,0.0,0.0,0.0,0,
92700,1860.9,10.5,178.3,166.0,0.0,0.0,0.0,0,
92900,1861.6,10.1,131.9,168.0,0.0,0.0,0.0,0,
93000,1861.6,11.3,107.2,185.5,0.0,0.0,0.0,0,
93100,1860.8,11.1,56.0,203.1,0.0,0.0,0.0,0,
93200,1860.3,131.8,52.8,44.9,0.0,0.0,0.0,0,
93300,1869.0,216.1,87.1,37.1,0.0,0.0,0.0,0,
93400,1893.8,215.3,123.8,35.2,0.0,0.0,0.0,0,
93500,1857.9,187.9,148.4,43.0,0.0,0.0,0.0,0,
93600,1862.9,150.6,168.0,64.5,0.0,0.0,0.0,0,
93700,1867.4,160.1,184.0,64.5,0.0,0.0,0.0,0,
93900,1860.0,10.2,194.0,64.5,0.0,0.0,0.0,0,
94000,1861.2,11.0,194.0,66.4,0.0,0.0,0.0,0,
94100,1862.0,9.9,194.0,66.4,0.0,0.0,0.0,0,
94200,1860.9,10.4,187.1,70.3,0.0,0.0,0.0,0,
94300,1861.7,10.1,173.8,140.6,0.0,0.0,0.0,0,
94400,1861.8,10.0,149.9,216.8,0.0,0.0,0.0,0,
94500,1861.2,10.6,125.6,197.3,0.0,0.0,0.0,0,
94600,1860.6,9.9,97.7,214.8,0.0,0.0,0.0,0,
94700,1861.7,9.7,62.7,171.9,0.0,0.0,0.0,0,
94900,1842.0,177.3,90.2,62.5,0.0,0.0,0.0,0,
95000,1853.6,159.7,122.8,62.5,0.0,0.0,0.0,0,
95100,1856.4,221.6,145.6,64.5,0.0,0.0,0.0,0,
95200,1885.2,203.5,172.0,64.5,0.0,0.0,0.0,0,
95300,1842.7,175.0,188.8,64.5,0.0,0.0,0.0,0,
95400,1857.9,33.6,200.2,64.5,0.0,0.0,0.0,0,
95500,1860.5,11.6,200.2,66.4,0.0,0.0,0.0,0,
95600,1861.4,10.6,200.2,66.4,0.0,0.0,0.0,0,
95700,1861.8,10.2,200.2,68.4,0.0,0.0,0.0,0,
95900,1860.3,10.2,179.2,183.6,0.0,0.0,0.0,0,
96000,1860.5,9.6,158.6,185.5,0.0,0.0,0.0,0,
96100,1861.6,10.7,138.0,191.4,0.0,0.0,0.0,0,
96200,1860.1,10.5,103.1,185.5,0.0,0.0,0.0,0,
96300,1859.8,10.8,67.9,201.2,0.0,0.0,0.0,0,
96400,1855.6,174.8,40.0,64.5,0.0,0.0,0.0,0,
96500,1876.6,215.7,87.7,56.6,0.0,0.0,0.0,0,
96600,1845.5,205.1,122.8,62.5,0.0,0.0,0.0,0,
96700,1846.6,166.5,148.2,64.5,0.0,0.0,0.0,0,
96900,1860.3,223.5,185.8,64.5,0.0,0.0,0.0,0,
97000,1855.9,41.2,202.1,66.4,0.0,0.0,0.0,0,
97100,1861.4,12.1,202.1,66.4,0.0,0.0,0.0,0,
97200,1860.9,10.4,202.1,70.3,0.0,0.0,0.0,0,
97300,1861.4,10.4,202.1,85.9,0.0,0.0,0.0,0,
97400,1860.3,11.0,198.5,89.8,0.0,0.0,0.0,0,
97500,1861.8,9.2,182.5,138.7,0.0,0.0,0.0,0,
97600,1860.7,9.9,160.9,130.9,0.0,0.0,0.0,0,
97700,1860.3,9.8,137.9,146.5,0.0,0.0,0.0,0,
97900,1859.8,10.2,80.4,173.8,0.0,0.0,0.0,0,
98000,1862.8,137.7,38.5,66.4,0.0,0.0,0.0,0,
98100,1849.3,162.0,78.5,44.9,0.0,0.0,0.0,0,
98200,1854.4,211.9,112.0,48.8,0.0,0.0,0.0,0,
98300,1882.8,196.0,141.7,64.5,0.0,0.0,0.0,0,
98400,1842.1,164.2,161.9,64.5,0.0,0.0,0.0,0,
98500,1850.1,141.1,179.6,64.5,0.0,0.0,0.0,0,
98600,1855.0,51.5,194.6,66.4,0.0,0.0,0.0,0,
98700,1862.9,13.0,194.6,66.4,0.0,0.0,0.0,0,
98900,1861.6,10.1,194.6,84.0,0.0,0.0,0.0,0,
99000,1861.8,9.2,191.2,80.1,0.0,0.0,0.0,0,
99100,1860.3,9.9,178.5,164.1,0.0,0.0,0.0,0,
99200,1861.5,10.3,159.6,171.9,0.0,0.0,0.0,0,
99300,1861.2,9.2,133.9,158.2,0.0,0.0,0.0,0,
99400,1860.0,9.7,108.7,158.2,0.0,0.0,0.0,0,
99500,1860.9,9.4,75.9,152.3,0.0,0.0,0.0,0,
99600,1875.3,165.0,31.8,111.3,0.0,0.0,0.0,0,
99700,1850.3,197.0,81.7,64.5,0.0,0.0,0.0,0,
99900,1855.5,173.9,145.0,64.5,0.0,0.0,0.0,0,
100000,1863.6,214.9,165.9,64.5,0.0,0.0,0.0,0,
100100,1863.6,174.5,188.6,64.5,0.0,0.0,0.0,0,
100200,1847.5,69.1,203.9,66.4,0.0,0.0,0.0,0,
100300,1861.6,12.7,204.0,66.4,0.0,0.0,0.0,0,
100400,1860.3,11.1,204.0,93.8,0.0,0.0,0.0,0,
100500,1860.9,10.1,204.0,89.8,0.0,0.0,0.0,0,
100600,1860.7,9.7,201.8,87.9,0.0,0.0,0.0,0,
100700,1860.5,10.2,187.3,156.3,0.0,0.0,0.0,0,
100900,1860.5,9.7,143.9,226.6,0.0,0.0,0.0,0,
101000,1860.7,10.7,119.3,201.2,0.0,0.0,0.0,0,
101100,1861.0,9.9,78.5,183.6,0.0,0.0,0.0,0,
101200,1860.6,101.7,12.7,210.9,0.0,0.0,0.0,0,
101300,1853.2,211.4,65.4,62.5,0.0,0.0,0.0,0,
101400,1888.1,214.0,111.6,62.5,0.0,0.0,0.0,0,
101500,1842.0,183.4,140.5,64.5,0.0,0.0,0.0,0,
101600,1853.9,143.0,163.3,64.5,0.0,0.0,0.0,0,
101700,1858.0,199.8,180.9,64.5,0.0,0.0,0.0,0,
101900,1843.2,15.9,202.4,66.4,0.0,0.0,0.0,0,
102000,1860.8,10.3,202.5,66.4,0.0,0.0,0.0,0,
102100,1862.2,10.8,202.5,76.2,0.0,0.0,0.0,0,
102200,1861.5,10.6,202.5,85.9,0.0,0.0,0.0,0,
102300,1861.2,8.6,192.0,84.0,0.0,0.0,0.0,0,
102400,1861.5,10.1,169.4,164.1,0.0,0.0,0.0,0,
102500,1861.4,11.2,146.3,164.1,0.0,0.0,0.0,0,
102600,1860.7,10.4,120.3,164.1,0.0,0.0,0.0,0,
102700,1860.5,10.5,91.8,205.1,0.0,0.0,0.0,0,
102900,1866.3,155.9,67.0,39.1,0.0,0.0,0.0,0,
103000,1867.4,207.2,101.8,37.1,0.0,0.0,0.0,0,
103100,1881.9,212.8,134.2,35.2,0.0,0.0,0.0,0,
103200,1876.8,188.2,158.6,62.5,0.0,0.0,0.0,0,
103300,1861.7,163.4,177.2,64.5,0.0,0.0,0.0,0,
103400,1867.0,131.8,193.4,64.5,0.0,0.0,0.0,0,
103500,1865.5,15.6,198.3,64.5,0.0,0.0,0.0,0,
103600,1860.2,10.4,198.3,66.4,0.0,0.0,0.0,0,
103700,1860.8,10.8,198.3,66.4,0.0,0.0,0.0,0,
103900,1862.1,9.4,187.0,80.1,0.0,0.0,0.0,0,
104000,1860.4,11.3,170.6,203.1,0.0,0.0,0.0,0,
104100,1860.6,9.5,146.5,189.5,0.0,0.0,0.0,0,
104200,1860.8,9.9,119.7,152.3,0.0,0.0,0.0,0,
104300,1860.6,11.0,89.9,152.3,0.0,0.0,0.0,0,
104400,1860.7,71.8,45.4,169.9,0.0,0.0,0.0,0,
104500,1880.5,172.0,62.8,64.5,0.0,0.0,0.0,0,
104600,1849.8,192.5,98.1,64.5,0.0,0.0,0.0,0,
104700,1857.1,156.8,130.3,64.5,0.0,0.0,0.0,0,
104900,1887.4,203.6,178.5,64.5,0.0,0.0,0.0,0,
105000,1852.8,184.8,197.1,64.5,0.0,0.0,0.0,0,
105100,1857.7,19.9,202.9,64.5,0.0,0.0,0.0,0,
105200,1860.3,11.8,202.9,66.4,0.0,0.0,0.0,0,
105300,1860.9,10.6,202.9,66.4,0.0,0.0,0.0,0,
105400,1861.3,10.1,203.0,68.4,0.0,0.0,0.0,0,
105500,1860.8,10.5,193.4,82.0,0.0,0.0,0.0,0,
105600,1861.3,10.8,178.1,150.4,0.0,0.0,0.0,0,
105700,1862.1,10.3,156.1,162.1,0.0,0.0,0.0,0,
105900,1861.1,9.8,97.3,189.5,0.0,0.0,0.0,0,
106000,1862.0,9.5,50.0,183.6,0.0,0.0,0.0,0,
106100,1854.9,174.6,55.8,62.5,0.0,0.0,0.0,0,
106200,1868.1,238.7,98.5,62.5,0.0,0.0,0.0,0,
106300,1860.4,219.1,139.0,64.5,0.0,0.0,0.0,0,
106400,1848.9,165.1,163.1,64.5,0.0,0.0,0.0,0,
106500,1854.1,149.2,180.2,64.5,0.0,0.0,0.0,0,
106600,1853.4,218.8,198.4,66.4,0.0,0.0,0.0,0,
106700,1867.0,24.9,209.5,66.4,0.0,0.0,0.0,0,
106900,1860.3,10.5,209.5,85.9,0.0,0.0,0.0,0,
107000,1861.4,11.4,209.5,89.8,0.0,0.0,0.0,0,
107100,1861.7,10.9,202.3,89.8,0.0,0.0,0.0,0,
107200,1860.8,9.7,185.4,150.4,0.0,0.0,0.0,0,
107300,1861.8,11.0,157.2,140.6,0.0,0.0,0.0,0,
107400,1860.8,10.5,132.1,138.7,0.0,0.0,0.0,0,
107500,1861.3,9.7,107.6,156.3,0.0,0.0,0.0,0,
107600,1860.9,11.7,68.6,148.4,0.0,0.0,0.0,0,
107700,1863.4,178.6,56.9,66.4,0.0,0.0,0.0,0,
107900,1858.1,225.4,134.7,64.5,0.0,0.0,0.0,0,
108000,1882.1,206.1,165.7,64.5,0.0,0.0,0.0,0,
108100,1843.5,186.3,183.8,64.5,0.0,0.0,0.0,0,
108200,1851.0,149.4,200.6,64.5,0.0,0.0,0.0,0,
108300,1859.7,30.2,210.1,66.4,0.0,0.0,0.0,0,
108400,1859.5,11.1,210.2,66.4,0.0,0.0,0.0,0,
108500,1860.3,12.0,210.2,68.4,0.0,0.0,0.0,0,
108600,1861.0,10.8,210.2,82.0,0.0,0.0,0.0,0,
108700,1861.4,9.6,202.7,82.0,0.0,0.0,0.0,0,
108900,1860.4,11.0,161.8,177.7,0.0,0.0,0.0,0,
109000,1860.7,10.2,129.9,171.9,0.0,0.0,0.0,0,
109100,1861.1,10.4,102.7,156.3,0.0,0.0,0.0,0,
109200,1860.9,10.2,63.8,146.5,0.0,0.0,0.0,0,
109300,1866.1,197.0,48.8,66.4,0.0,0.0,0.0,0,
109400,1867.0,215.8,95.7,52.7,0.0,0.0,0.0,0,
109500,1844.3,183.0,128.8,62.5,0.0,0.0,0.0,0,
109600,1853.1,162.8,154.5,64.5,0.0,0.0,0.0,0,
109700,1855.4,203.0,173.5,64.5,0.0,0.0,0.0,0,
109900,1841.1,34.5,203.8,64.5,0.0,0.0,0.0,0,
110000,1861.5,12.5,203.8,66.4,0.0,0.0,0.0,0,
110100,1861.4,10.3,203.8,66.4,0.0,0.0,0.0,0,
110200,1861.0,9.1,203.8,70.3,0.0,0.0,0.0,0,
110300,1861.4,10.1,198.3,78.1,0.0,0.0,0.0,0,
110400,1861.6,10.8,180.3,222.7,0.0,0.0,0.0,0,
110500,1860.5,9.0,158.4,228.5,0.0,0.0,0.0,0,
110600,1860.2,11.4,133.4,209.0,0.0,0.0,0.0,0,
110700,1860.9,10.5,107.5,168.0,0.0,0.0,0.0,0,
110900,1857.0,138.0,42.3,70.3,0.0,0.0,0.0,0,
111000,1855.0,222.2,90.0,62.5,0.0,0.0,0.0,0,
111100,1884.1,207.6,126.8,64.5,0.0,0.0,0.0,0,
111200,1842.2,188.5,149.6,64.5,0.0,0.0,0.0,0,
111300,1848.6,146.2,169.2,64.5,0.0,0.0,0.0,0,
111400,1852.5,166.4,185.5,64.5,0.0,0.0,0.0,0,
111500,1855.8,46.2,199.9,66.4,0.0,0.0,0.0,0,
111600,1864.0,12.8,200.0,66.4,0.0,0.0,0.0,0,
111700,1861.6,9.4,200.0,68.4,0.0,0.0,0.0,0,
111900,1860.9,9.3,195.8,89.8,0.0,0.0,0.0,0,
112000,1860.9,9.9,179.0,154.3,0.0,0.0,0.0,0,
112100,1860.3,11.0,155.1,199.2,0.0,0.0,0.0,0,
112200,1860.8,9.8,133.2,191.4,0.0,0.0,0.0,0,
112300,1860.7,9.8,107.3,191.4,0.0,0.0,0.0,0,
112400,1860.5,10.8,75.8,164.1,0.0,0.0,0.0,0,
112500,1881.7,161.8,34.5,84.0,0.0,0.0,0.0,0,
112600,1848.3,177.2,81.4,37.1,0.0,0.0,0.0,0,
112700,1862.8,180.0,115.4,35.2,0.0,0.0,0.0,0,
112900,1886.4,197.0,173.1,64.5,0.0,0.0,0.0,0,
113000,1849.2,171.2,190.1,64.5,0.0,0.0,0.0,0,
113100,1859.0,59.1,204.9,64.5,0.0,0.0,0.0,0,
113200,1861.8,11.5,204.9,64.5,0.0,0.0,0.0,0,
113300,1861.4,10.5,204.9,66.4,0.0,0.0,0.0,0,
113400,1860.0,9.1,204.9,66.4,0.0,0.0,0.0,0,
113500,1861.1,10.1,202.4,70.3,0.0,0.0,0.0,0,
113600,1860.1,10.1,188.4,130.9,0.0,0.0,0.0,0,
113700,1862.0,10.2,169.7,136.7,0.0,0.0,0.0,0,
113900,1861.7,10.8,110.3,185.5,0.0,0.0,0.0,0,
114000,1860.6,9.9,77.3,195.3,0.0,0.0,0.0,0,
114100,1862.0,137.6,12.9,222.7,0.0,0.0,0.0,0,
114200,1887.0,223.0,77.4,41.0,0.0,0.0,0.0,0,
114300,1853.8,219.8,117.4,39.1,0.0,0.0,0.0,0,
114400,1856.5,163.4,148.8,62.5,0.0,0.0,0.0,0,
114500,1866.0,172.6,168.5,64.5,0.0,0.0,0.0,0,
114600,1878.8,198.6,185.9,64.5,0.0,0.0,0.0,0,
114700,1872.8,84.0,203.3,64.5,0.0,0.0,0.0,0,
114900,1860.7,10.2,203.6,66.4,0.0,0.0,0.0,0,
115000,1861.7,9.1,203.6,66.4,0.0,0.0,0.0,0,
115100,1860.8,10.7,203.6,68.4,0.0,0.0,0.0,0,
115200,1860.1,10.4,188.7,85.9,0.0,0.0,0.0,0,
115300,1860.6,9.7,166.8,166.0,0.0,0.0,0.0,0,
115400,1860.5,10.8,139.5,144.5,0.0,0.0,0.0,0,
115500,1861.5,9.4,115.0,136.7,0.0,0.0,0.0,0,
115600,1861.2,9.8,84.0,127.0,0.0,0.0,0.0,0,
115700,1861.3,109.4,16.3,150.4,0.0,0.0,0.0,0,
115900,1859.7,243.1,110.5,62.5,0.0,0.0,0.0,0,
116000,1879.6,210.3,148.5,64.5,0.0,0.0,0.0,0,
116100,1845.5,180.5,170.3,64.5,0.0,0.0,0.0,0,
116200,1855.3,144.8,188.4,64.5,0.0,0.0,0.0,0,
116300,1858.4,122.0,205.4,66.4,0.0,0.0,0.0,0,
116400,1864.2,16.8,210.9,66.4,0.0,0.0,0.0,0,
116500,1860.7,10.8,210.9,66.4,0.0,0.0,0.0,0,
116600,1862.0,10.8,210.9,72.3,0.0,0.0,0.0,0,
116700,1861.7,9.4,210.9,84.0,0.0,0.0,0.0,0,
116900,1860.5,11.8,180.0,171.9,0.0,0.0,0.0,0,
117000,1860.4,10.8,150.2,191.4,0.0,0.0,0.0,0,
117100,1859.8,9.8,125.0,199.2,0.0,0.0,0.0,0,
117200,1860.5,10.9,95.5,173.8,0.0,0.0,0.0,0,
117300,1860.7,101.8,49.2,191.4,0.0,0.0,0.0,0,
117400,1863.8,185.5,67.4,48.8,0.0,0.0,0.0,0,
117500,1848.9,168.8,104.1,39.1,0.0,0.0,0.0,0,
117600,1856.1,215.3,136.4,62.5,0.0,0.0,0.0,0,
117700,1870.8,242.0,169.6,64.5,0.0,0.0,0.0,0,
117900,1848.9,161.7,211.0,66.4,0.0,0.0,0.0,0,
118000,1859.3,17.7,216.0,66.4,0.0,0.0,0.0,0,
118100,1859.2,12.3,216.0,66.4,0.0,0.0,0.0,0,
118200,1861.3,10.6,216.0,76.2,0.0,0.0,0.0,0,
118300,1861.3,9.0,216.0,84.0,0.0,0.0,0.0,0,
118400,1860.8,9.4,205.6,82.0,0.0,0.0,0.0,0,
118500,1860.8,10.1,189.6,220.7,0.0,0.0,0.0,0,
118600,1860.0,10.8,167.9,201.2,0.0,0.0,0.0,0,
118700,1860.7,13.0,134.3,162.1,0.0,0.0,0.0,0,
118900,1860.6,39.2,47.9,117.2,0.0,0.0,0.0,0,
119000,1855.0,204.5,62.4,56.6,0.0,0.0,0.0,0,
119100,1877.3,222.9,105.8,62.5,0.0,0.0,0.0,0,
119200,1839.9,191.7,138.4,64.5,0.0,0.0,0.0,0,
119300,1853.3,147.3,162.5,64.5,0.0,0.0,0.0,0,
119400,1859.3,201.4,183.5,64.5,0.0,0.0,0.0,0,
119500,1884.1,219.9,206.5,64.5,0.0,0.0,0.0,0,
119600,1837.5,22.8,214.6,66.4,0.0,0.0,0.0,0,
119700,1860.2,11.8,214.6,66.4,0.0,0.0,0.0,0,
119900,1860.9,9.5,214.5,82.0,0.0,0.0,0.0,0,
120000,1860.8,9.1,205.6,87.9,0.0,0.0,0.0,0,
120100,1861.8,10.3,187.0,140.6,0.0,0.0,0.0,0,
120200,1861.3,10.9,164.4,152.3,0.0,0.0,0.0,0,
120300,1860.1,10.5,140.6,156.3,0.0,0.0,0.0,0,
120400,1859.6,10.3,111.9,160.2,0.0,0.0,0.0,0,
120500,1860.9,9.8,59.5,175.8,0.0,0.0,0.0,0,
120600,1860.2,115.6,45.8,41.0,0.0,0.0,0.0,0,
120700,1859.0,192.4,77.4,35.2,0.0,0.0,0.0,0,
120900,1859.7,212.7,146.9,54.7,0.0,0.0,0.0,0,
121000,1850.7,169.6,170.8,64.5,0.0,0.0,0.0,0,
121100,1858.2,157.0,189.8,64.5,0.0,0.0,0.0,0,
121200,1862.9,27.0,202.0,64.5,0.0,0.0,0.0,0,
121300,1859.3,12.2,202.0,66.4,0.0,0.0,0.0,0,
121400,1859.8,11.0,202.0,66.4,0.0,0.0,0.0,0,
121500,1861.5,10.1,202.0,68.4,0.0,0.0,0.0,0,
121600,1860.8,10.1,197.2,80.1,0.0,0.0,0.0,0,
121700,1861.3,10.4,187.0,150.4,0.0,0.0,0.0,0,
121900,1861.8,10.3,139.2,207.0,0.0,0.0,0.0,0,
122000,1861.5,9.8,108.6,175.8,0.0,0.0,0.0,0,
122100,1861.6,11.4,70.3,173.8,0.0,0.0,0.0,0,
122200,1873.9,115.2,35.7,43.0,0.0,0.0,0.0,0,
122300,1847.6,123.4,54.0,33.2,0.0,0.0,0.0,0,
122400,1851.3,123.4,73.6,33.2,0.0,0.0,0.0,0,
122500,1855.2,144.6,95.9,33.2,0.0,0.0,0.0,0,
122600,1872.9,168.7,113.6,33.2,0.0,0.0,0.0,0,
122700,1840.7,163.2,131.4,64.5,0.0,0.0,0.0,0,
122900,1860.3,11.9,143.1,64.5,0.0,0.0,0.0,0,
123000,1861.3,11.2,143.1,64.5,0.0,0.0,0.0,0,
123100,1861.5,9.7,143.1,64.5,0.0,0.0,0.0,0,
123200,1862.2,10.6,139.1,66.4,0.0,0.0,0.0,0,
123300,1861.1,11.6,133.0,195.3,0.0,0.0,0.0,0,
123400,1861.2,10.7,123.3,199.2,0.0,0.0,0.0,0,
123500,1860.6,10.8,106.9,175.8,0.0,0.0,0.0,0,
123600,1860.4,10.8,87.9,171.9,0.0,0.0,0.0,0,
123700,1860.9,11.7,58.0,171.9,0.0,0.0,0.0,0,
123900,1879.2,172.7,64.5,33.2,0.0,0.0,0.0,0,
124000,1864.4,158.4,90.8,33.2,0.0,0.0,0.0,0,
124100,1851.4,127.6,107.3,33.2,0.0,0.0,0.0,0,
124200,1859.9,121.3,123.2,33.2,0.0,0.0,0.0,0,
124300,1865.9,159.0,137.3,33.2,0.0,0.0,0.0,0,
124400,1860.8,36.0,151.0,64.5,0.0,0.0,0.0,0,
124500,1862.1,10.9,151.0,64.5,0.0,0.0,0.0,0,
124600,1860.4,10.0,151.0,64.5,0.0,0.0,0.0,0,
124700,1860.3,9.5,150.9,64.5,0.0,0.0,0.0,0,
124900,1861.0,10.1,137.0,150.4,0.0,0.0,0.0,0,
125000,1860.5,10.2,121.2,187.5,0.0,0.0,0.0,0,
125100,1861.2,10.3,106.9,183.6,0.0,0.0,0.0,0,
125200,1861.6,11.3,88.1,191.4,0.0,0.0,0.0,0,
125300,1860.1,10.2,64.0,193.4,0.0,0.0,0.0,0,
125400,1867.9,134.3,34.2,68.4,0.0,0.0,0.0,0,
125500,1849.3,127.0,66.8,35.2,0.0,0.0,0.0,0,
125600,1862.7,179.2,95.3,33.2,0.0,0.0,0.0,0,
125700,1884.8,196.6,121.8,33.2,0.0,0.0,0.0,0,
125900,1855.7,138.4,159.3,64.5,0.0,0.0,0.0,0,
126000,1857.8,57.8,178.1,64.5,0.0,0.0,0.0,0,
126100,1864.5,13.2,178.1,64.5,0.0,0.0,0.0,0,
126200,1860.1,9.8,178.1,64.5,0.0,0.0,0.0,0,
126300,1861.3,10.5,178.1,64.5,0.0,0.0,0.0,0,
126400,1860.5,10.9,175.2,66.4,0.0,0.0,0.0,0,
126500,1861.3,9.0,165.5,127.0,0.0,0.0,0.0,0,
126600,1861.3,10.1,150.9,148.4,0.0,0.0,0.0,0,
126700,1860.9,9.9,130.5,191.4,0.0,0.0,0.0,0,
126900,1860.9,10.3,80.5,195.3,0.0,0.0,0.0,0,
127000,1872.8,127.9,21.1,134.8,0.0,0.0,0.0,0,
127100,1862.7,164.6,61.1,35.2,0.0,0.0,0.0,0,
127200,1847.1,157.5,91.7,33.2,0.0,0.0,0.0,0,
127300,1856.9,148.2,119.1,33.2,0.0,0.0,0.0,0,
127400,1863.7,201.5,139.6,33.2,0.0,0.0,0.0,0,
127500,1878.7,209.5,163.7,64.5,0.0,0.0,0.0,0,
127600,1841.2,78.5,185.8,64.5,0.0,0.0,0.0,0,
127700,1860.8,13.5,185.8,64.5,0.0,0.0,0.0,0,
127900,1860.3,10.8,185.9,66.4,0.0,0.0,0.0,0,
128000,1860.8,9.6,185.1,66.4,0.0,0.0,0.0,0,
128100,1862.1,11.0,175.9,95.7,0.0,0.0,0.0,0,
128200,1860.6,11.0,162.1,185.5,0.0,0.0,0.0,0,
128300,1860.7,10.6,143.2,144.5,0.0,0.0,0.0,0,
128400,1862.2,11.6,123.3,95.7,0.0,0.0,0.0,0,
128500,1861.4,9.6,88.9,132.8,0.0,0.0,0.0,0,
128600,1861.2,96.1,13.4,209.0,0.0,0.0,0.0,0,
128700,1850.8,156.5,59.4,35.2,0.0,0.0,0.0,0,
128900,1838.7,156.7,115.2,33.2,0.0,0.0,0.0,0,
129000,1853.0,126.3,130.8,35.2,0.0,0.0,0.0,0,
129100,1855.4,172.8,147.2,64.5,0.0,0.0,0.0,0,
129200,1867.5,103.6,167.5,64.5,0.0,0.0,0.0,0,
129300,1850.0,15.4,171.6,64.5,0.0,0.0,0.0,0,
129400,1860.4,11.1,171.6,64.5,0.0,0.0,0.0,0,
129500,1860.9,9.9,171.6,66.4,0.0,0.0,0.0,0,
129600,1862.8,10.6,171.6,66.4,0.0,0.0,0.0,0,
129700,1861.1,11.2,161.5,74.2,0.0,0.0,0.0,0,
129900,1860.6,10.3,127.9,169.9,0.0,0.0,0.0,0,
130000,1860.8,9.9,111.9,169.9,0.0,0.0,0.0,0,
130100,1861.3,11.0,89.2,150.4,0.0,0.0,0.0,0,
130200,1861.3,114.4,39.6,142.6,0.0,0.0,0.0,0,
130300,1859.9,141.0,59.4,35.2,0.0,0.0,0.0,0,
130400,1861.0,160.5,88.3,35.2,0.0,0.0,0.0,0,
130500,1872.8,212.2,117.3,33.2,0.0,0.0,0.0,0,
130600,1877.9,193.1,144.8,33.2,0.0,0.0,0.0,0,
130700,1849.5,171.7,163.7,64.5,0.0,0.0,0.0,0,
130900,1865.2,17.4,189.0,64.5,0.0,0.0,0.0,0,
131000,1860.7,9.6,189.0,64.5,0.0,0.0,0.0,0,
131100,1861.6,9.5,189.0,64.5,0.0,0.0,0.0,0,
131200,1861.5,10.3,189.0,66.4,0.0,0.0,0.0,0,
131300,1861.9,10.6,179.8,74.2,0.0,0.0,0.0,0,
131400,1860.4,10.8,167.5,158.2,0.0,0.0,0.0,0,
131500,1861.9,10.8,148.7,134.8,0.0,0.0,0.0,0,
131600,1861.3,9.7,122.1,138.7,0.0,0.0,0.0,0,
131700,1861.3,12.1,95.2,177.7,0.0,0.0,0.0,0,
131900,1878.2,166.5,58.4,37.1,0.0,0.0,0.0,0,
132000,1849.0,188.1,93.5,35.2,0.0,0.0,0.0,0,
132100,1856.3,143.8,120.4,33.2,0.0,0.0,0.0,0,
132200,1862.0,178.0,142.0,35.2,0.0,0.0,0.0,0,
132300,1881.2,204.1,161.6,64.5,0.0,0.0,0.0,0,
132400,1862.6,188.8,180.3,64.5,0.0,0.0,0.0,0,
132500,1855.0,20.6,186.3,64.5,0.0,0.0,0.0,0,
132600,1860.4,13.4,186.3,64.5,0.0,0.0,0.0,0,
132700,1861.0,12.5,186.3,64.5,0.0,0.0,0.0,0,
132900,1861.2,11.8,177.3,64.5,0.0,0.0,0.0,0,
133000,1860.6,12.0,161.6,130.9,0.0,0.0,0.0,0,
133100,1861.5,11.8,142.8,164.1,0.0,0.0,0.0,0,
133200,1859.5,12.0,121.3,238.3,0.0,0.0,0.0,0,
133300,1861.4,12.0,93.6,187.5,0.0,0.0,0.0,0,
133400,1861.3,10.5,48.6,164.1,0.0,0.0,0.0,0,
133500,1855.8,134.9,53.5,37.1,0.0,0.0,0.0,0,
133600,1870.3,192.3,79.7,33.2,0.0,0.0,0.0,0,
133700,1874.8,197.1,114.2,33.2,0.0,0.0,0.0,0,
133900,1859.5,146.1,160.2,64.5,0.0,0.0,0.0,0,
134000,1862.2,188.8,180.7,64.5,0.0,0.0,0.0,0,
134100,1867.7,25.9,192.2,64.5,0.0,0.0,0.0,0,
134200,1860.5,14.6,192.2,64.5,0.0,0.0,0.0,0,
134300,1861.0,11.4,192.2,64.5,0.0,0.0,0.0,0,
134400,1861.7,11.9,192.2,64.5,0.0,0.0,0.0,0,
134500,1862.6,12.1,185.1,66.4,0.0,0.0,0.0,0,
134600,1860.8,11.2,175.4,160.2,0.0,0.0,0.0,0,
134700,1861.9,11.7,155.2,183.6,0.0,0.0,0.0,0,
134900,1860.7,11.0,107.1,177.7,0.0,0.0,0.0,0,
135000,1861.0,12.8,66.8,168.0,0.0,0.0,0.0,0,
135100,1869.8,163.6,53.3,39.1,0.0,0.0,0.0,0,
135200,1849.3,147.2,82.8,35.2,0.0,0.0,0.0,0,
135300,1858.7,188.1,113.5,33.2,0.0,0.0,0.0,0,
135400,1877.3,217.2,139.2,33.2,0.0,0.0,0.0,0,
135500,1855.1,193.5,164.8,64.5,0.0,0.0,0.0,0,
135600,1853.8,162.2,181.4,64.5,0.0,0.0,0.0,0,
135700,1862.1,33.2,193.8,64.5,0.0,0.0,0.0,0,
135900,1861.4,13.0,193.8,64.5,0.0,0.0,0.0,0,
136000,1861.7,12.5,193.8,64.5,0.0,0.0,0.0,0,
136100,1861.6,11.4,186.8,66.4,0.0,0.0,0.0,0,
136200,1861.0,12.1,175.7,189.5,0.0,0.0,0.0,0,
136300,1861.5,11.6,157.6,203.1,0.0,0.0,0.0,0,
136400,1861.7,9.3,135.4,168.0,0.0,0.0,0.0,0,
136500,1861.0,11.0,102.8,142.6,0.0,0.0,0.0,0,
136600,1860.5,11.7,69.4,130.9,0.0,0.0,0.0,0,
136700,1866.7,176.4,41.2,56.6,0.0,0.0,0.0,0,
136900,1843.8,192.1,116.4,33.2,0.0,0.0,0.0,0,
137000,1856.2,148.8,147.3,33.2,0.0,0.0,0.0,0,
137100,1860.5,204.9,171.2,64.5,0.0,0.0,0.0,0,
137200,1888.8,218.3,196.0,64.5,0.0,0.0,0.0,0,
137300,1836.8,36.6,209.1,64.5,0.0,0.0,0.0,0,
137400,1860.3,12.3,209.1,64.5,0.0,0.0,0.0,0,
137500,1860.6,11.4,209.1,64.5,0.0,0.0,0.0,0,
137600,1860.5,9.0,209.1,66.4,0.0,0.0,0.0,0,
137700,1861.6,9.9,205.4,66.4,0.0,0.0,0.0,0,
137900,1860.6,10.5,174.1,177.7,0.0,0.0,0.0,0,
138000,1860.4,11.1,148.8,201.2,0.0,0.0,0.0,0,
138100,1860.6,10.8,120.6,197.3,0.0,0.0,0.0,0,
138200,1860.6,10.4,73.7,216.8,0.0,0.0,0.0,0,
138300,1858.2,134.1,40.1,48.8,0.0,0.0,0.0,0,
138400,1861.2,177.0,73.1,33.2,0.0,0.0,0.0,0,
138500,1879.5,221.8,105.7,33.2,0.0,0.0,0.0,0,
138600,1855.7,180.1,134.8,33.2,0.0,0.0,0.0,0,
138700,1850.1,162.1,153.8,33.2,0.0,0.0,0.0,0,
138900,1862.6,51.4,192.5,64.5,0.0,0.0,0.0,0,
139000,1864.0,12.7,192.5,64.5,0.0,0.0,0.0,0,
139100,1860.9,10.6,192.5,64.5,0.0,0.0,0.0,0,
139200,1861.1,11.3,192.5,64.5,0.0,0.0,0.0,0,
139300,1861.7,11.4,188.6,64.5,0.0,0.0,0.0,0,
139400,1860.9,11.0,178.4,199.2,0.0,0.0,0.0,0,
139500,1860.5,10.1,161.3,168.0,0.0,0.0,0.0,0,
139600,1861.7,11.3,137.9,148.4,0.0,0.0,0.0,0,
139700,1861.1,10.0,116.4,158.2,0.0,0.0,0.0,0,
139900,1885.2,169.7,31.7,89.8,0.0,0.0,0.0,0,
140000,1836.2,152.3,71.7,35.2,0.0,0.0,0.0,0,
140100,1852.2,148.1,102.0,33.2,0.0,0.0,0.0,0,
140200,1861.1,195.0,128.5,33.2,0.0,0.0,0.0,0,
140300,1888.0,210.6,156.0,35.2,0.0,0.0,0.0,0,
140400,1840.7,179.0,176.0,64.5,0.0,0.0,0.0,0,
140500,1855.7,69.2,192.2,64.5,0.0,0.0,0.0,0,
140600,1863.3,13.2,192.2,64.5,0.0,0.0,0.0,0,
140700,1860.6,9.6,192.2,64.5,0.0,0.0,0.0,0,
140900,1861.4,9.2,189.9,64.5,0.0,0.0,0.0,0,
141000,1861.0,11.6,178.7,115.2,0.0,0.0,0.0,0,
141100,1861.3,11.0,163.3,168.0,0.0,0.0,0.0,0,
141200,1861.0,9.9,143.4,199.2,0.0,0.0,0.0,0,
141300,1861.8,11.0,113.0,191.4,0.0,0.0,0.0,0,
141400,1861.1,10.9,78.2,236.3,0.0,0.0,0.0,0,
141500,1860.8,157.0,12.8,224.6,0.0,0.0,0.0,0,
141600,1866.6,183.0,72.9,37.1,0.0,0.0,0.0,0,
141700,1858.0,187.3,100.7,35.2,0.0,0.0,0.0,0,
141900,1854.5,149.7,145.0,33.2,0.0,0.0,0.0,0,
142000,1862.0,203.8,162.6,64.5,0.0,0.0,0.0,0,
142100,1873.1,89.7,183.2,64.5,0.0,0.0,0.0,0,
142200,1847.0,14.1,184.5,64.5,0.0,0.0,0.0,0,
142300,1862.2,11.4,184.5,64.5,0.0,0.0,0.0,0,
142400,1862.4,11.5,184.5,64.5,0.0,0.0,0.0,0,
142500,1863.1,11.5,184.5,66.4,0.0,0.0,0.0,0,
142600,1861.7,12.9,170.0,74.2,0.0,0.0,0.0,0,
142700,1861.4,11.4,155.2,238.3,0.0,0.0,0.0,0,
142900,1862.0,12.0,114.8,183.6,0.0,0.0,0.0,0,
143000,1861.8,11.3,88.2,218.8,0.0,0.0,0.0,0,
143100,1862.3,106.4,26.1,183.6,0.0,0.0,0.0,0,
143200,1858.3,125.4,60.1,35.2,0.0,0.0,0.0,0,
143300,1863.4,197.7,88.4,33.2,0.0,0.0,0.0,0,
143400,1890.5,208.5,123.5,33.2,0.0,0.0,0.0,0,
143500,1843.3,166.1,145.1,33.2,0.0,0.0,0.0,0,
143600,1855.4,138.5,162.2,62.5,0.0,0.0,0.0,0,
143700,1860.1,122.2,177.8,64.5,0.0,0.0,0.0,0,
143900,1860.6,10.9,183.0,64.5,0.0,0.0,0.0,0,
144000,1862.9,11.8,183.0,64.5,0.0,0.0,0.0,0,
144100,1862.5,13.4,183.0,64.5,0.0,0.0,0.0,0,
144200,1861.9,11.7,173.4,70.3,0.0,0.0,0.0,0,
144300,1863.5,11.1,160.8,136.7,0.0,0.0,0.0,0,
144400,1861.1,12.0,135.6,173.8,0.0,0.0,0.0,0,
144500,1862.0,11.2,112.4,185.5,0.0,0.0,0.0,0,
144600,1861.3,12.1,85.9,162.1,0.0,0.0,0.0,0,
144700,1860.5,74.7,45.3,146.5,0.0,0.0,0.0,0,
144900,1853.3,138.6,74.0,33.2,0.0,0.0,0.0,0,
145000,1861.3,159.5,100.6,33.2,0.0,0.0,0.0,0,
145100,1879.9,185.4,122.8,33.2,0.0,0.0,0.0,0,
145200,1870.5,160.1,141.6,33.2,0.0,0.0,0.0,0,
145300,1849.3,142.2,155.4,62.5,0.0,0.0,0.0,0,
145400,1862.5,18.0,160.1,64.5,0.0,0.0,0.0,0,
145500,1860.9,10.6,160.1,64.5,0.0,0.0,0.0,0,
145600,1861.0,12.0,160.1,64.5,0.0,0.0,0.0,0,
145700,1862.0,12.2,160.1,64.5,0.0,0.0,0.0,0,
145900,1862.5,11.4,142.6,183.6,0.0,0.0,0.0,0,
146000,1862.4,10.7,125.3,177.7,0.0,0.0,0.0,0,
146100,1863.5,11.0,103.6,168.0,0.0,0.0,0.0,0,
146200,1862.2,10.6,75.9,191.4,0.0,0.0,0.0,0,
146300,1861.7,15.6,40.7,207.0,0.0,0.0,0.0,0,
146400,1858.7,152.5,49.0,37.1,0.0,0.0,0.0,0,
146500,1886.3,184.4,79.8,33.2,0.0,0.0,0.0,0,
146600,1847.1,161.6,106.8,33.2,0.0,0.0,0.0,0,
146700,1856.3,138.9,127.6,33.2,0.0,0.0,0.0,0,
146900,1877.0,182.1,163.0,64.5,0.0,0.0,0.0,0,
147000,1851.7,20.9,170.2,64.5,0.0,0.0,0.0,0,
147100,1860.7,10.7,170.2,64.5,0.0,0.0,0.0,0,
147200,1862.2,10.2,170.2,64.5,0.0,0.0,0.0,0,
147300,1862.8,10.1,170.2,64.5,0.0,0.0,0.0,0,
147400,1862.2,11.1,163.5,66.4,0.0,0.0,0.0,0,
147500,1861.8,9.9,150.9,226.6,0.0,0.0,0.0,0,
147600,1862.3,10.8,133.1,209.0,0.0,0.0,0.0,0,
147700,1862.9,11.3,113.3,232.4,0.0,0.0,0.0,0,
147900,1863.3,9.9,50.7,209.0,0.0,0.0,0.0,0,
148000,1860.4,151.7,58.1,39.1,0.0,0.0,0.0,0,
148100,1858.1,160.2,86.0,35.2,0.0,0.0,0.0,0,
148200,1869.5,203.5,111.0,33.2,0.0,0.0,0.0,0,
148300,1872.5,177.7,136.5,33.2,0.0,0.0,0.0,0,
148400,1846.8,159.9,155.4,33.2,0.0,0.0,0.0,0,
148500,1858.3,131.6,171.5,64.5,0.0,0.0,0.0,0,
148600,1866.9,26.0,181.1,64.5,0.0,0.0,0.0,0,
148700,1862.1,10.9,181.1,64.5,0.0,0.0,0.0,0,
148900,1862.0,10.2,181.1,64.5,0.0,0.0,0.0,0,
149000,1862.0,9.8,172.0,66.4,0.0,0.0,0.0,0,
149100,1862.4,11.0,159.9,195.3,0.0,0.0,0.0,0,
149200,1863.1,11.5,143.7,171.9,0.0,0.0,0.0,0,
149300,1863.2,10.3,119.7,150.4,0.0,0.0,0.0,0,
149400,1862.8,9.7,93.9,138.7,0.0,0.0,0.0,0,
149500,1861.6,11.1,59.6,146.5,0.0,0.0,0.0,0,
149600,1879.8,177.8,54.5,39.1,0.0,0.0,0.0,0,
149700,1843.7,162.6,83.3,35.2,0.0,0.0,0.0,0,
149900,1857.9,165.5,122.1,33.2,0.0,0.0,0.0,0,
150000,1878.6,177.1,139.7,33.2,0.0,0.0,0.0,0,
150100,1854.9,164.4,156.8,62.5,0.0,0.0,0.0,0,
150200,1856.0,31.1,166.7,64.5,0.0,0.0,0.0,0,
150300,1861.4,10.2,166.7,64.5,0.0,0.0,0.0,0,
150400,1861.9,10.2,166.7,64.5,0.0,0.0,0.0,0,
150500,1863.4,9.7,166.7,62.5,0.0,0.0,0.0,0,
150600,1864.0,10.5,158.0,62.5,0.0,0.0,0.0,0,
150700,1862.9,10.2,144.9,205.1,0.0,0.0,0.0,0,
150900,1863.2,9.4,114.1,195.3,0.0,0.0,0.0,0,
151000,1862.7,9.7,91.7,220.7,0.0,0.0,0.0,0,
151100,1862.0,11.9,57.7,220.7,0.0,0.0,0.0,0,
151200,1856.1,140.0,33.0,66.4,0.0,0.0,0.0,0,
151300,1860.4,157.0,66.3,35.2,0.0,0.0,0.0,0,
151400,1866.7,153.8,87.6,33.2,0.0,0.0,0.0,0,
151500,1843.0,124.9,102.9,33.2,0.0,0.0,0.0,0,
151600,1855.9,110.1,114.0,33.2,0.0,0.0,0.0,0,
151700,1860.6,144.9,125.0,33.2,0.0,0.0,0.0,0,
151900,1863.3,11.7,137.2,64.5,0.0,0.0,0.0,0,
152000,1864.0,10.1,137.2,64.5,0.0,0.0,0.0,0,
152100,1861.8,9.0,137.1,64.5,0.0,0.0,0.0,0,
152200,1862.8,10.2,133.7,66.4,0.0,0.0,0.0,0,
152300,1861.8,11.0,120.7,166.0,0.0,0.0,0.0,0,
152400,1862.7,10.0,106.2,105.5,0.0,0.0,0.0,0,
152500,1861.7,10.6,91.6,125.0,0.0,0.0,0.0,0,
152600,1862.6,10.6,77.3,150.4,0.0,0.0,0.0,0,
152700,1862.5,10.1,57.8,193.4,0.0,0.0,0.0,0,
152900,1854.5,122.1,61.5,35.2,0.0,0.0,0.0,0,
153000,1866.1,164.9,81.2,33.2,0.0,0.0,0.0,0,
153100,1882.1,151.8,103.7,33.2,0.0,0.0,0.0,0,
153200,1857.6,137.0,117.3,33.2,0.0,0.0,0.0,0,
153300,1854.8,129.4,133.1,33.2,0.0,0.0,0.0,0,
153400,1860.8,49.5,148.0,64.5,0.0,0.0,0.0,0,
153500,1866.3,12.8,148.0,64.5,0.0,0.0,0.0,0,
153600,1861.8,10.3,148.0,64.5,0.0,0.0,0.0,0,
153700,1862.8,11.0,148.0,66.4,0.0,0.0,0.0,0,
153900,1862.4,11.3,135.1,158.2,0.0,0.0,0.0,0,
154000,1862.8,9.6,124.4,185.5,0.0,0.0,0.0,0,
154100,1862.4,12.8,106.2,187.5,0.0,0.0,0.0,0,
154200,1861.3,11.6,91.1,216.8,0.0,0.0,0.0,0,
154300,1862.3,11.4,66.0,228.5,0.0,0.0,0.0,0,
154400,1871.1,130.0,22.2,183.6,0.0,0.0,0.0,0,
154500,1874.3,144.5,63.5,35.2,0.0,0.0,0.0,0,
154600,1859.7,123.4,84.0,33.2,0.0,0.0,0.0,0,
154700,1867.6,132.6,102.6,33.2,0.0,0.0,0.0,0,
154900,1888.7,141.4,133.1,64.5,0.0,0.0,0.0,0,
155000,1856.3,64.0,145.8,64.5,0.0,0.0,0.0,0,
155100,1860.9,12.4,145.9,64.5,0.0,0.0,0.0,0,
155200,1863.3,11.1,145.9,64.5,0.0,0.0,0.0,0,
155300,1863.2,10.9,145.8,66.4,0.0,0.0,0.0,0,
155400,1863.1,12.0,144.8,66.4,0.0,0.0,0.0,0,
155500,1862.9,10.2,132.0,107.4,0.0,0.0,0.0,0,
155600,1862.6,12.5,120.0,189.5,0.0,0.0,0.0,0,
155700,1862.8,10.1,104.6,166.0,0.0,0.0,0.0,0,
155900,1861.9,11.8,60.9,224.6,0.0,0.0,0.0,0,
156000,1862.8,94.9,13.6,199.2,0.0,0.0,0.0,0,
156100,1862.8,146.0,55.4,35.2,0.0,0.0,0.0,0,
156200,1884.7,149.6,76.7,33.2,0.0,0.0,0.0,0,
156300,1865.6,148.5,96.0,33.2,0.0,0.0,0.0,0,
156400,1863.8,115.3,114.0,33.2,0.0,0.0,0.0,0,
156500,1868.3,129.1,125.6,64.5,0.0,0.0,0.0,0,
156600,1875.4,99.7,144.0,64.5,0.0,0.0,0.0,0,
156700,1860.4,13.8,150.3,64.5,0.0,0.0,0.0,0,
156900,1862.6,9.6,150.2,66.4,0.0,0.0,0.0,0,
157000,1862.0,10.1,150.2,70.3,0.0,0.0,0.0,0,
157100,1862.3,10.9,140.2,89.8,0.0,0.0,0.0,0,
157200,1863.1,9.6,129.8,187.5,0.0,0.0,0.0,0,
157300,1862.2,9.8,116.3,189.5,0.0,0.0,0.0,0,
157400,1862.2,11.4,98.8,183.6,0.0,0.0,0.0,0,
157500,1862.7,9.9,83.4,191.4,0.0,0.0,0.0,0,
157600,1863.1,100.1,44.6,226.6,0.0,0.0,0.0,0,
157700,1866.5,131.9,53.6,35.2,0.0,0.0,0.0,0,
157900,1867.0,170.7,100.5,33.2,0.0,0.0,0.0,0,
158000,1887.1,186.6,123.9,33.2,0.0,0.0,0.0,0,
158100,1842.1,170.9,146.5,35.2,0.0,0.0,0.0,0,
158200,1857.6,144.5,166.8,64.5,0.0,0.0,0.0,0,
158300,1865.9,18.0,172.9,64.5,0.0,0.0,0.0,0,
158400,1862.3,10.4,172.9,64.5,0.0,0.0,0.0,0,
158500,1861.8,9.2,172.9,64.5,0.0,0.0,0.0,0,
158600,1862.2,10.0,172.9,66.4,0.0,0.0,0.0,0,
158700,1862.8,10.9,164.8,70.3,0.0,0.0,0.0,0,
158900,1862.0,11.4,141.2,171.9,0.0,0.0,0.0,0,
159000,1862.9,9.9,121.1,156.3,0.0,0.0,0.0,0,
159100,1862.1,9.8,92.6,173.8,0.0,0.0,0.0,0,
159200,1862.0,61.9,47.1,152.3,0.0,0.0,0.0,0,
159300,1876.6,141.3,52.8,35.2,0.0,0.0,0.0,0,
159400,1867.1,173.6,77.6,33.2,0.0,0.0,0.0,0,
159500,1852.4,145.1,101.1,33.2,0.0,0.0,0.0,0,
159600,1865.7,151.4,118.2,33.2,0.0,0.0,0.0,0,
159700,1876.7,190.7,135.6,33.2,0.0,0.0,0.0,0,
159900,1850.2,19.5,162.5,62.5,0.0,0.0,0.0,0,
160000,1861.7,10.1,162.5,64.5,0.0,0.0,0.0,0,
160100,1863.0,9.8,162.5,62.5,0.0,0.0,0.0,0,
160200,1862.7,11.3,162.5,62.5,0.0,0.0,0.0,0,
160300,1862.6,10.3,154.2,64.5,0.0,0.0,0.0,0,
160400,1863.2,10.7,143.3,175.8,0.0,0.0,0.0,0,
160500,1862.4,9.0,127.8,175.8,0.0,0.0,0.0,0,
160600,1861.8,10.0,112.2,230.5,0.0,0.0,0.0,0,
160700,1861.7,10.2,90.4,214.8,0.0,0.0,0.0,0,
160900,1859.6,162.6,53.3,54.7,0.0,0.0,0.0,0,
161000,1879.8,193.8,88.1,35.2,0.0,0.0,0.0,0,
161100,1888.3,197.4,117.2,33.2,0.0,0.0,0.0,0,
161200,1850.9,166.9,139.0,33.2,0.0,0.0,0.0,0,
161300,1862.9,138.4,156.3,33.2,0.0,0.0,0.0,0,
161400,1868.7,184.7,171.9,35.2,0.0,0.0,0.0,0,
161500,1871.3,25.5,183.5,64.5,0.0,0.0,0.0,0,
161600,1860.6,13.6,183.5,64.5,0.0,0.0,0.0,0,
161700,1861.8,10.3,183.5,64.5,0.0,0.0,0.0,0,
161900,1862.5,11.0,176.1,66.4,0.0,0.0,0.0,0,
162000,1863.2,10.5,161.5,107.4,0.0,0.0,0.0,0,
162100,1862.6,10.2,141.8,228.5,0.0,0.0,0.0,0,
162200,1863.2,11.2,120.5,228.5,0.0,0.0,0.0,0,
162300,1861.7,9.7,96.9,228.5,0.0,0.0,0.0,0,
162400,1862.2,9.8,65.6,209.0,0.0,0.0,0.0,0,
162500,1880.4,160.4,49.7,41.0,0.0,0.0,0.0,0,
162600,1850.5,153.2,80.6,33.2,0.0,0.0,0.0,0,
162700,1862.9,164.0,104.5,33.2,0.0,0.0,0.0,0,
162900,1872.4,165.7,137.4,33.2,0.0,0.0,0.0,0,
163000,1854.0,149.0,153.6,33.2,0.0,0.0,0.0,0,
163100,1865.6,28.2,163.2,33.2,0.0,0.0,0.0,0,
163200,1862.5,9.8,163.2,62.5,0.0,0.0,0.0,0,
163300,1862.0,9.0,163.2,62.5,0.0,0.0,0.0,0,
163400,1861.7,10.7,163.2,64.5,0.0,0.0,0.0,0,
163500,1861.9,10.5,156.0,64.5,0.0,0.0,0.0,0,
163600,1862.6,9.9,142.4,203.1,0.0,0.0,0.0,0,
163700,1861.4,11.5,125.9,210.9,0.0,0.0,0.0,0,
163900,1862.1,9.3,88.9,209.0,0.0,0.0,0.0,0,
164000,1861.1,10.7,56.4,187.5,0.0,0.0,0.0,0,
164100,1860.7,163.6,42.2,48.8,0.0,0.0,0.0,0,
164200,1883.5,194.0,78.7,33.2,0.0,0.0,0.0,0,
164300,1844.6,177.4,105.9,33.2,0.0,0.0,0.0,0,
164400,1857.3,131.1,124.7,33.2,0.0,0.0,0.0,0,
164500,1866.1,155.5,138.6,33.2,0.0,0.0,0.0,0,
164600,1881.8,175.1,152.7,33.2,0.0,0.0,0.0,0,
164700,1851.8,35.1,163.6,33.2,0.0,0.0,0.0,0,
164900,1862.8,10.2,163.6,62.5,0.0,0.0,0.0,0,
165000,1863.0,9.3,163.6,62.5,0.0,0.0,0.0,0,
165100,1863.2,9.4,158.5,62.5,0.0,0.0,0.0,0,
165200,1863.4,10.6,143.9,166.0,0.0,0.0,0.0,0,
165300,1862.7,9.9,125.3,185.5,0.0,0.0,0.0,0,
165400,1863.1,9.5,106.6,226.6,0.0,0.0,0.0,0,
165500,1862.7,11.8,87.8,220.7,0.0,0.0,0.0,0,
165600,1863.8,10.5,60.0,185.5,0.0,0.0,0.0,0,
165700,1862.3,134.4,37.1,66.4,0.0,0.0,0.0,0,
165900,1874.6,199.6,98.7,33.2,0.0,0.0,0.0,0,
166000,1872.3,191.7,124.1,33.2,0.0,0.0,0.0,0,
166100,1849.6,159.5,144.5,33.2,0.0,0.0,0.0,0,
166200,1862.2,148.6,160.2,33.2,0.0,0.0,0.0,0,
166300,1865.0,54.1,179.1,62.5,0.0,0.0,0.0,0,
166400,1865.9,13.4,179.2,64.5,0.0,0.0,0.0,0,
166500,1863.2,9.6,179.2,64.5,0.0,0.0,0.0,0,
166600,1862.7,8.1,179.2,64.5,0.0,0.0,0.0,0,
166700,1862.5,10.5,175.7,64.5,0.0,0.0,0.0,0,
166900,1862.5,9.4,150.0,189.5,0.0,0.0,0.0,0,
167000,1863.0,10.4,129.8,226.6,0.0,0.0,0.0,0,
167100,1863.7,9.9,106.5,187.5,0.0,0.0,0.0,0,
167200,1862.2,8.7,81.0,197.3,0.0,0.0,0.0,0,
167300,1885.0,162.4,28.5,146.5,0.0,0.0,0.0,0,
167400,1846.6,190.2,74.6,35.2,0.0,0.0,0.0,0,
167500,1850.9,146.9,101.1,33.2,0.0,0.0,0.0,0,
167600,1863.3,164.2,118.3,33.2,0.0,0.0,0.0,0,
167700,1880.7,170.6,134.9,33.2,0.0,0.0,0.0,0,
167900,1856.4,63.0,160.1,33.2,0.0,0.0,0.0,0,
168000,1863.2,13.0,160.2,33.2,0.0,0.0,0.0,0,
168100,1863.2,9.5,160.2,35.2,0.0,0.0,0.0,0,
168200,1863.3,11.0,160.2,39.1,0.0,0.0,0.0,0,
168300,1861.9,11.1,158.1,43.0,0.0,0.0,0.0,0,
168400,1862.7,9.3,142.2,117.2,0.0,0.0,0.0,0,
168500,1862.4,10.5,124.8,164.1,0.0,0.0,0.0,0,
168600,1862.7,9.6,108.6,189.5,0.0,0.0,0.0,0,
168700,1861.8,10.3,87.2,214.8,0.0,0.0,0.0,0,
168900,1863.5,129.4,12.5,173.8,0.0,0.0,0.0,0,
169000,1863.6,192.3,66.6,35.2,0.0,0.0,0.0,0,
169100,1870.8,191.0,98.3,33.2,0.0,0.0,0.0,0,
169200,1844.1,169.6,123.1,33.2,0.0,0.0,0.0,0,
169300,1859.3,142.8,145.2,33.2,0.0,0.0,0.0,0,
169400,1867.3,193.3,164.9,62.5,0.0,0.0,0.0,0,
169500,1892.9,104.7,186.5,64.5,0.0,0.0,0.0,0,
169600,1836.0,14.6,189.5,64.5,0.0,0.0,0.0,0,
169700,1862.4,10.2,189.5,64.5,0.0,0.0,0.0,0,
169900,1861.9,9.7,189.5,64.5,0.0,0.0,0.0,0,
170000,1862.7,10.7,177.8,74.2,0.0,0.0,0.0,0,
170100,1862.7,11.0,162.4,197.3,0.0,0.0,0.0,0,
170200,1862.2,10.3,144.5,228.5,0.0,0.0,0.0,0,
170300,1862.5,10.6,122.4,175.8,0.0,0.0,0.0,0,
170400,1861.5,9.9,94.0,195.3,0.0,0.0,0.0,0,
170500,1861.9,111.4,35.1,222.7,0.0,0.0,0.0,0,
170600,1851.3,142.9,57.9,37.1,0.0,0.0,0.0,0,
170700,1855.3,187.2,86.5,33.2,0.0,0.0,0.0,0,
170900,1847.4,197.8,141.8,33.2,0.0,0.0,0.0,0,
171000,1850.6,165.5,162.6,64.5,0.0,0.0,0.0,0,
171100,1857.0,144.5,182.1,64.5,0.0,0.0,0.0,0,
171200,1866.2,17.5,189.4,64.5,0.0,0.0,0.0,0,
171300,1863.0,9.8,189.4,64.5,0.0,0.0,0.0,0,
171400,1861.8,9.9,189.4,64.5,0.0,0.0,0.0,0,
171500,1861.7,10.8,189.4,64.5,0.0,0.0,0.0,0,
171600,1862.9,9.2,180.7,70.3,0.0,0.0,0.0,0,
171700,1862.2,9.1,168.9,193.4,0.0,0.0,0.0,0,
171900,1861.1,10.7,126.1,207.0,0.0,0.0,0.0,0,
172000,1861.3,9.8,97.8,209.0,0.0,0.0,0.0,0,
172100,1863.3,67.9,53.2,201.2,0.0,0.0,0.0,0,
172200,1869.1,172.5,53.3,37.1,0.0,0.0,0.0,0,
172300,1839.5,174.2,85.8,35.2,0.0,0.0,0.0,0,
172400,1847.7,157.5,110.3,33.2,0.0,0.0,0.0,0,
172500,1854.3,180.0,131.3,33.2,0.0,0.0,0.0,0,
172600,1877.7,212.8,152.6,62.5,0.0,0.0,0.0,0,
172700,1835.9,189.8,174.8,64.5,0.0,0.0,0.0,0,
172900,1862.8,8.9,181.1,64.5,0.0,0.0,0.0,0,
173000,1861.6,10.5,181.0,64.5,0.0,0.0,0.0,0,
173100,1863.0,10.5,181.1,66.4,0.0,0.0,0.0,0,
173200,1862.7,9.2,173.4,72.3,0.0,0.0,0.0,0,
173300,1862.6,10.6,159.9,189.5,0.0,0.0,0.0,0,
173400,1862.8,10.1,144.1,185.5,0.0,0.0,0.0,0,
173500,1862.9,10.4,125.3,203.1,0.0,0.0,0.0,0,
173600,1861.4,11.8,98.3,189.5,0.0,0.0,0.0,0,
173700,1861.6,14.8,48.7,207.0,0.0,0.0,0.0,0,
173900,1883.4,196.0,77.8,33.2,0.0,0.0,0.0,0,
174000,1852.1,185.7,106.8,33.2,0.0,0.0,0.0,0,
174100,1848.4,142.9,126.4,33.2,0.0,0.0,0.0,0,
174200,1857.7,161.9,145.0,33.2,0.0,0.0,0.0,0,
174300,1866.3,212.6,165.0,62.5,0.0,0.0,0.0,0,
174400,1857.1,21.7,175.8,64.5,0.0,0.0,0.0,0,
174500,1861.4,10.7,175.8,64.5,0.0,0.0,0.0,0,
174600,1863.2,9.7,175.8,64.5,0.0,0.0,0.0,0,
174700,1862.4,10.3,175.8,64.5,0.0,0.0,0.0,0,
174900,1861.6,9.8,158.1,226.6,0.0,0.0,0.0,0,
175000,1863.0,8.7,140.1,193.4,0.0,0.0,0.0,0,
175100,1861.4,11.7,122.8,207.0,0.0,0.0,0.0,0,
175200,1862.8,9.5,100.0,218.8,0.0,0.0,0.0,0,
175300,1862.2,9.4,61.7,195.3,0.0,0.0,0.0,0,
175400,1867.6,153.2,51.2,37.1,0.0,0.0,0.0,0,
175500,1858.2,166.5,82.9,33.2,0.0,0.0,0.0,0,
175600,1870.1,185.2,109.1,33.2,0.0,0.0,0.0,0,
175700,1888.1,198.9,132.4,33.2,0.0,0.0,0.0,0,
175900,1857.9,151.1,171.4,33.2,0.0,0.0,0.0,0,
176000,1866.0,29.3,184.2,64.5,0.0,0.0,0.0,0,
176100,1861.4,9.7,184.2,64.5,0.0,0.0,0.0,0,
176200,1863.2,8.7,184.2,64.5,0.0,0.0,0.0,0,
176300,1863.3,11.5,184.2,64.5,0.0,0.0,0.0,0,
176400,1863.1,9.7,177.4,66.4,0.0,0.0,0.0,0,
176500,1863.3,10.8,165.0,205.1,0.0,0.0,0.0,0,
176600,1862.3,11.1,149.0,183.6,0.0,0.0,0.0,0,
176700,1862.5,10.7,128.7,183.6,0.0,0.0,0.0,0,
176900,1861.7,11.4,68.6,187.5,0.0,0.0,0.0,0,
177000,1881.9,152.4,46.5,44.9,0.0,0.0,0.0,0,
177100,1866.7,182.7,77.5,35.2,0.0,0.0,0.0,0,
177200,1854.5,157.2,103.6,33.2,0.0,0.0,0.0,0,
177300,1867.9,152.5,123.3,33.2,0.0,0.0,0.0,0,
177400,1880.8,190.6,140.1,33.2,0.0,0.0,0.0,0,
177500,1874.7,196.4,159.4,33.2,0.0,0.0,0.0,0,
177600,1853.0,34.9,173.0,62.5,0.0,0.0,0.0,0,
177700,1861.2,10.2,173.0,64.5,0.0,0.0,0.0,0,
177900,1862.2,10.0,173.0,64.5,0.0,0.0,0.0,0,
178000,1863.2,9.2,167.1,64.5,0.0,0.0,0.0,0,
178100,1862.2,11.1,155.2,185.5,0.0,0.0,0.0,0,
178200,1861.6,9.9,139.1,189.5,0.0,0.0,0.0,0,
178300,1861.8,8.9,122.0,197.3,0.0,0.0,0.0,0,
178400,1862.6,10.7,102.2,203.1,0.0,0.0,0.0,0,
178500,1862.0,10.1,68.2,238.3,0.0,0.0,0.0,0,
178600,1858.9,141.9,38.6,64.5,0.0,0.0,0.0,0,
178700,1876.6,162.4,74.9,35.2,0.0,0.0,0.0,0,
178900,1850.9,178.3,128.6,33.2,0.0,0.0,0.0,0,
179000,1862.7,146.2,148.0,33.2,0.0,0.0,0.0,0,
179100,1868.5,184.9,165.6,33.2,0.0,0.0,0.0,0,
179200,1868.4,47.1,183.4,64.5,0.0,0.0,0.0,0,
179300,1865.0,12.9,183.4,64.5,0.0,0.0,0.0,0,
179400,1862.6,10.1,183.4,64.5,0.0,0.0,0.0,0,
179500,1861.2,9.8,183.5,64.5,0.0,0.0,0.0,0,
179600,1861.4,11.5,179.7,64.5,0.0,0.0,0.0,0,
179700,1862.3,9.6,167.9,195.3,0.0,0.0,0.0,0,
179900,1862.8,11.4,131.4,177.7,0.0,0.0,0.0,0,
180000,1862.3,10.0,109.0,210.9,0.0,0.0,0.0,0,
180100,1862.3,9.7,79.8,216.8,0.0,0.0,0.0,0,
180200,1881.5,158.5,34.6,142.6,0.0,0.0,0.0,0,
180300,1849.5,142.8,74.4,35.2,0.0,0.0,0.0,0,
180400,1864.4,192.4,98.9,33.2,0.0,0.0,0.0,0,
180500,1882.2,201.5,128.0,33.2,0.0,0.0,0.0,0,
180600,1877.0,197.8,150.9,33.2,0.0,0.0,0.0,0,
180700,1854.7,174.2,170.8,33.2,0.0,0.0,0.0,0,
180900,1865.2,12.4,188.5,64.5,0.0,0.0,0.0,0,
181000,1863.0,9.5,188.5,64.5,0.0,0.0,0.0,0,
181100,1862.5,10.4,188.5,64.5,0.0,0.0,0.0,0,
181200,1862.6,10.6,185.7,64.5,0.0,0.0,0.0,0,
181300,1862.0,9.5,173.6,177.7,0.0,0.0,0.0,0,
181400,1861.7,11.4,160.9,205.1,0.0,0.0,0.0,0,
181500,1862.1,9.3,138.9,177.7,0.0,0.0,0.0,0,
181600,1861.8,9.0,113.6,195.3,0.0,0.0,0.0,0,
181700,1862.2,11.4,80.7,195.3,0.0,0.0,0.0,0,
181900,1876.5,146.5,63.9,35.2,0.0,0.0,0.0,0,
182000,1858.0,181.3,90.1,33.2,0.0,0.0,0.0,0,
182100,1857.0,141.9,115.9,33.2,0.0,0.0,0.0,0,
182200,1867.8,154.2,133.6,33.2,0.0,0.0,0.0,0,
182300,1886.9,194.8,150.9,33.2,0.0,0.0,0.0,0,
182400,1860.3,83.2,170.2,62.5,0.0,0.0,0.0,0,
182500,1857.0,12.5,170.5,64.5,0.0,0.0,0.0,0,
182600,1862.0,10.8,170.5,64.5,0.0,0.0,0.0,0,
182700,1863.2,9.0,170.5,62.5,0.0,0.0,0.0,0,
182900,1862.7,11.2,158.5,84.0,0.0,0.0,0.0,0,
183000,1863.2,9.9,145.2,189.5,0.0,0.0,0.0,0,
183100,1861.6,9.8,125.6,185.5,0.0,0.0,0.0,0,
183200,1860.8,11.0,106.7,203.1,0.0,0.0,0.0,0,
183300,1863.3,9.7,80.2,222.7,0.0,0.0,0.0,0,
183400,1862.5,98.2,15.9,222.7,0.0,0.0,0.0,0,
183500,1854.0,158.4,62.2,35.2,0.0,0.0,0.0,0,
183600,1872.2,186.8,87.9,33.2,0.0,0.0,0.0,0,
183700,1870.8,159.4,111.7,33.2,0.0,0.0,0.0,0,
183900,1861.2,131.3,139.1,33.2,0.0,0.0,0.0,0,
184000,1870.7,107.9,153.1,33.2,0.0,0.0,0.0,0,
184100,1862.5,16.3,157.4,33.2,0.0,0.0,0.0,0,
184200,1863.0,10.5,157.4,50.8,0.0,0.0,0.0,0,
184300,1862.2,10.6,157.4,56.6,0.0,0.0,0.0,0,
184400,1862.8,11.7,157.4,50.8,0.0,0.0,0.0,0,
184500,1862.7,10.5,145.1,68.4,0.0,0.0,0.0,0,
184600,1862.4,11.2,131.2,238.3,0.0,0.0,0.0,0,
184700,1863.3,11.5,111.6,205.1,0.0,0.0,0.0,0,
184900,1863.0,9.7,74.6,226.6,0.0,0.0,0.0,0,
185000,1862.2,92.6,38.7,166.0,0.0,0.0,0.0,0,
185100,1858.6,147.9,57.0,43.0,0.0,0.0,0.0,0,
185200,1841.1,131.2,77.8,35.2,0.0,0.0,0.0,0,
185300,1851.5,156.3,94.2,33.2,0.0,0.0,0.0,0,
185400,1870.5,159.9,112.3,33.2,0.0,0.0,0.0,0,
185500,1849.1,163.1,128.5,33.2,0.0,0.0,0.0,0,
185600,1848.3,135.8,143.6,62.5,0.0,0.0,0.0,0,
185700,1862.4,16.8,148.6,64.5,0.0,0.0,0.0,0,
185900,1863.8,10.3,148.6,64.5,0.0,0.0,0.0,0,
186000,1862.7,9.7,148.6,64.5,0.0,0.0,0.0,0,
186100,1861.6,10.1,137.8,68.4,0.0,0.0,0.0,0,
186200,1861.8,11.6,127.2,171.9,0.0,0.0,0.0,0,
186300,1862.5,10.3,115.6,205.1,0.0,0.0,0.0,0,
186400,1862.9,10.9,98.2,220.7,0.0,0.0,0.0,0,
186500,1862.6,10.8,75.8,183.6,0.0,0.0,0.0,0,
186600,1862.1,45.5,40.1,164.1,0.0,0.0,0.0,0,
186700,1865.6,141.8,46.0,35.2,0.0,0.0,0.0,0,
186900,1843.0,158.6,95.0,33.2,0.0,0.0,0.0,0,
187000,1851.1,119.5,110.7,33.2,0.0,0.0,0.0,0,
187100,1858.8,155.2,122.4,33.2,0.0,0.0,0.0,0,
187200,1875.0,174.3,139.2,33.2,0.0,0.0,0.0,0,
187300,1839.5,20.1,145.9,62.5,0.0,0.0,0.0,0,
187400,1862.8,11.2,145.9,64.5,0.0,0.0,0.0,0,
187500,1862.7,9.6,145.9,64.5,0.0,0.0,0.0,0,
187600,1863.4,10.3,145.9,64.5,0.0,0.0,0.0,0,
187700,1861.9,11.8,139.0,64.5,0.0,0.0,0.0,0,
187900,1861.3,10.2,111.4,199.2,0.0,0.0,0.0,0,
188000,1862.0,10.8,95.9,199.2,0.0,0.0,0.0,0,
188100,1861.7,9.2,80.4,197.3,0.0,0.0,0.0,0,
188200,1862.0,10.1,45.5,203.1,0.0,0.0,0.0,0,
188300,1861.4,137.6,52.6,35.2,0.0,0.0,0.0,0,
188400,1865.4,180.1,74.6,33.2,0.0,0.0,0.0,0,
188500,1883.9,184.1,101.5,33.2,0.0,0.0,0.0,0,
188600,1859.5,165.3,119.7,33.2,0.0,0.0,0.0,0,
188700,1856.4,124.5,132.6,33.2,0.0,0.0,0.0,0,
188900,1866.5,23.2,148.8,33.2,0.0,0.0,0.0,0,
189000,1862.4,10.3,148.8,33.2,0.0,0.0,0.0,0,
189100,1863.0,10.2,148.8,35.2,0.0,0.0,0.0,0,
189200,1863.5,12.0,148.8,39.1,0.0,0.0,0.0,0,
189300,1862.8,10.0,139.7,56.6,0.0,0.0,0.0,0,
189400,1863.0,9.7,129.3,154.3,0.0,0.0,0.0,0,
189500,1861.8,11.1,109.5,154.3,0.0,0.0,0.0,0,
189600,1862.3,10.3,89.2,177.7,0.0,0.0,0.0,0,
189700,1862.2,10.0,68.6,207.0,0.0,0.0,0.0,0,
189900,1885.1,169.3,49.1,39.1,0.0,0.0,0.0,0,
190000,1848.3,170.0,83.3,33.2,0.0,0.0,0.0,0,
190100,1860.1,155.3,108.8,33.2,0.0,0.0,0.0,0,
190200,1871.6,184.7,128.5,33.2,0.0,0.0,0.0,0,
190300,1889.5,201.7,149.4,33.2,0.0,0.0,0.0,0,
190400,1844.8,177.5,167.7,33.2,0.0,0.0,0.0,0,
190500,1863.0,32.6,179.3,62.5,0.0,0.0,0.0,0,
190600,1861.5,11.3,179.3,64.5,0.0,0.0,0.0,0,
190700,1862.7,10.5,179.2,62.5,0.0,0.0,0.0,0,
190900,1863.1,10.7,172.8,64.5,0.0,0.0,0.0,0,
191000,1862.0,12.0,159.2,158.2,0.0,0.0,0.0,0,
191100,1862.0,11.5,143.0,154.3,0.0,0.0,0.0,0,
191200,1863.2,10.8,125.6,185.5,0.0,0.0,0.0,0,
191300,1862.8,11.6,99.8,212.9,0.0,0.0,0.0,0,
191400,1861.6,10.1,64.7,216.8,0.0,0.0,0.0,0,
191500,1862.8,149.5,36.1,72.3,0.0,0.0,0.0,0,
191600,1885.6,148.4,70.6,33.2,0.0,0.0,0.0,0,
191700,1867.9,160.0,91.3,33.2,0.0,0.0,0.0,0,
191900,1865.5,150.1,123.6,33.2,0.0,0.0,0.0,0,
192000,1881.4,187.6,140.0,33.2,0.0,0.0,0.0,0,
192100,1860.0,39.0,154.4,33.2,0.0,0.0,0.0,0,
192200,1864.0,12.4,154.4,62.5,0.0,0.0,0.0,0,
192300,1862.7,9.4,154.4,62.5,0.0,0.0,0.0,0,
192400,1862.5,9.9,154.4,62.5,0.0,0.0,0.0,0,
192500,1862.4,10.3,150.7,62.5,0.0,0.0,0.0,0,
192600,1862.2,9.6,137.9,152.3,0.0,0.0,0.0,0,
192700,1862.5,9.9,125.2,168.0,0.0,0.0,0.0,0,
192900,1863.5,9.9,93.4,189.5,0.0,0.0,0.0,0,
193000,1861.3,9.6,66.4,175.8,0.0,0.0,0.0,0,
193100,1866.0,131.6,33.3,64.5,0.0,0.0,0.0,0,
193200,1851.7,122.3,62.9,33.2,0.0,0.0,0.0,0,
193300,1860.4,160.2,84.8,33.2,0.0,0.0,0.0,0,
193400,1884.7,169.0,107.8,33.2,0.0,0.0,0.0,0,
193500,1844.3,151.3,126.6,33.2,0.0,0.0,0.0,0,
193600,1857.6,122.6,142.6,64.5,0.0,0.0,0.0,0,
193700,1857.0,48.5,158.0,64.5,0.0,0.0,0.0,0,
193900,1861.6,9.3,158.0,64.5,0.0,0.0,0.0,0,
194000,1861.9,9.8,158.0,66.4,0.0,0.0,0.0,0,
194100,1863.1,9.1,154.9,68.4,0.0,0.0,0.0,0,
194200,1863.4,10.4,145.4,169.9,0.0,0.0,0.0,0,
194300,1862.6,10.3,133.8,168.0,0.0,0.0,0.0,0,
194400,1861.3,10.2,116.1,183.6,0.0,0.0,0.0,0,
194500,1861.3,10.7,95.3,209.0,0.0,0.0,0.0,0,
194600,1859.5,9.9,69.0,209.0,0.0,0.0,0.0,0,
194700,1877.1,140.9,28.5,103.5,0.0,0.0,0.0,0,
194900,1848.6,159.8,95.0,35.2,0.0,0.0,0.0,0,
195000,1855.3,166.7,124.0,35.2,0.0,0.0,0.0,0,
195100,1863.3,217.2,147.3,64.5,0.0,0.0,0.0,0,
195200,1866.8,198.5,173.3,64.5,0.0,0.0,0.0,0,
195300,1845.5,73.7,192.0,64.5,0.0,0.0,0.0,0,
195400,1863.3,13.4,192.1,64.5,0.0,0.0,0.0,0,
195500,1863.8,10.2,192.1,66.4,0.0,0.0,0.0,0,
195600,1862.0,10.4,192.1,66.4,0.0,0.0,0.0,0,
195700,1862.0,10.7,190.3,70.3,0.0,0.0,0.0,0,
195900,1863.3,9.0,167.4,230.5,0.0,0.0,0.0,0,
196000,1862.3,10.7,147.2,222.7,0.0,0.0,0.0,0,
196100,1862.1,9.7,123.8,220.7,0.0,0.0,0.0,0,
196200,1861.4,10.8,83.8,216.8,0.0,0.0,0.0,0,
196300,1861.8,106.5,12.7,177.7,0.0,0.0,0.0,0,
196400,1850.1,153.8,56.6,37.1,0.0,0.0,0.0,0,
196500,1879.4,160.4,82.2,35.2,0.0,0.0,0.0,0,
196600,1838.7,154.8,105.1,33.2,0.0,0.0,0.0,0,
196700,1850.0,147.1,128.0,64.5,0.0,0.0,0.0,0,
196900,1871.0,99.8,172.9,64.5,0.0,0.0,0.0,0,
197000,1849.7,15.9,177.1,64.5,0.0,0.0,0.0,0,
197100,1863.0,10.7,177.1,66.4,0.0,0.0,0.0,0,
197200,1862.8,10.4,177.1,68.4,0.0,0.0,0.0,0,
197300,1862.2,10.3,177.1,76.2,0.0,0.0,0.0,0,
197400,1861.7,10.4,168.3,85.9,0.0,0.0,0.0,0,
197500,1861.8,11.1,157.3,175.8,0.0,0.0,0.0,0,
197600,1860.2,10.2,143.1,199.2,0.0,0.0,0.0,0,
197700,1861.0,10.4,123.0,189.5,0.0,0.0,0.0,0,
197900,1863.1,104.2,40.4,197.3,0.0,0.0,0.0,0,
198000,1864.0,123.7,54.5,35.2,0.0,0.0,0.0,0,
198100,1860.5,144.0,74.4,33.2,0.0,0.0,0.0,0,
198200,1870.2,200.4,99.1,33.2,0.0,0.0,0.0,0,
198300,1870.5,198.3,129.6,33.2,0.0,0.0,0.0,0,
198400,1849.4,156.7,152.0,64.5,0.0,0.0,0.0,0,
198500,1857.2,132.3,172.1,64.5,0.0,0.0,0.0,0,
198600,1864.3,16.2,178.4,66.4,0.0,0.0,0.0,0,
198700,1862.4,11.0,178.4,68.4,0.0,0.0,0.0,0,
198900,1862.2,9.9,178.4,91.8,0.0,0.0,0.0,0,
199000,1862.3,11.0,170.3,85.9,0.0,0.0,0.0,0,
199100,1862.6,10.5,162.6,187.5,0.0,0.0,0.0,0,
199200,1861.9,10.8,148.9,189.5,0.0,0.0,0.0,0,
199300,1862.0,10.9,123.2,183.6,0.0,0.0,0.0,0,
199400,1861.0,10.0,94.3,177.7,0.0,0.0,0.0,0,
199500,1861.3,64.1,48.8,183.6,0.0,0.0,0.0,0,
199600,1881.0,137.7,50.0,35.2,0.0,0.0,0.0,0,
199700,1860.5,145.2,71.5,33.2,0.0,0.0,0.0,0,
199900,1867.9,205.9,124.9,33.2,0.0,0.0,0.0,0,
200000,1889.4,231.6,154.2,64.5,0.0,0.0,0.0,0,
200100,1856.8,190.3,179.3,64.5,0.0,0.0,0.0,0,
200200,1859.8,20.9,185.8,64.5,0.0,0.0,0.0,0,
200300,1862.0,10.4,185.8,66.4,0.0,0.0,0.0,0,
200400,1863.4,9.5,185.8,74.2,0.0,0.0,0.0,0,
200500,1862.4,10.3,185.8,84.0,0.0,0.0,0.0,0,
200600,1862.5,8.7,179.4,89.8,0.0,0.0,0.0,0,
200700,1862.3,10.5,172.0,214.8,0.0,0.0,0.0,0,
200900,1862.0,10.6,138.2,220.7,0.0,0.0,0.0,0,
201000,1862.8,10.6,104.5,195.3,0.0,0.0,0.0,0,
201100,1862.1,10.9,50.3,156.3,0.0,0.0,0.0,0,
201200,1858.2,124.6,42.3,37.1,0.0,0.0,0.0,0,
201300,1875.0,155.8,63.3,33.2,0.0,0.0,0.0,0,
201400,1875.9,190.8,93.8,33.2,0.0,0.0,0.0,0,
201500,1856.2,166.7,121.7,33.2,0.0,0.0,0.0,0,
201600,1865.1,151.7,145.6,64.5,0.0,0.0,0.0,0,
201700,1869.2,212.5,167.6,64.5,0.0,0.0,0.0,0,
201900,1860.7,11.4,181.7,64.5,0.0,0.0,0.0,0,
202000,1862.8,10.1,181.6,66.4,0.0,0.0,0.0,0,
202100,1863.2,9.8,181.6,68.4,0.0,0.0,0.0,0,
202200,1861.9,10.6,177.1,76.2,0.0,0.0,0.0,0,
202300,1861.1,11.2,170.7,218.8,0.0,0.0,0.0,0,
202400,1862.7,10.3,156.0,205.1,0.0,0.0,0.0,0,
202500,1862.0,10.3,135.5,150.4,0.0,0.0,0.0,0,
202600,1861.5,10.5,109.2,164.1,0.0,0.0,0.0,0,
202700,1861.5,10.1,71.2,193.4,0.0,0.0,0.0,0,
202900,1853.5,97.8,61.6,33.2,0.0,0.0,0.0,0,
203000,1865.6,172.7,79.3,33.2,0.0,0.0,0.0,0,
203100,1887.9,234.6,114.5,33.2,0.0,0.0,0.0,0,
203200,1855.5,202.2,148.8,64.5,0.0,0.0,0.0,0,
203300,1863.2,161.2,172.3,64.5,0.0,0.0,0.0,0,
203400,1869.3,29.6,187.3,64.5,0.0,0.0,0.0,0,
203500,1861.6,11.4,187.3,66.4,0.0,0.0,0.0,0,
203600,1861.5,10.3,187.3,72.3,0.0,0.0,0.0,0,
203700,1862.4,10.2,187.3,91.8,0.0,0.0,0.0,0,
203900,1862.2,9.4,177.3,185.5,0.0,0.0,0.0,0,
204000,1861.2,10.1,170.1,185.5,0.0,0.0,0.0,0,
204100,1862.6,11.0,148.8,171.9,0.0,0.0,0.0,0,
204200,1861.2,10.3,114.5,187.5,0.0,0.0,0.0,0,
204300,1861.4,10.7,74.6,191.4,0.0,0.0,0.0,0,
204400,1866.0,125.5,31.7,62.5,0.0,0.0,0.0,0,
204500,1873.4,133.7,59.4,33.2,0.0,0.0,0.0,0,
204600,1851.0,153.5,83.8,33.2,0.0,0.0,0.0,0,
204700,1858.1,151.6,113.7,33.2,0.0,0.0,0.0,0,
204900,1891.8,213.7,168.5,64.5,0.0,0.0,0.0,0,
205000,1841.1,36.7,184.1,64.5,0.0,0.0,0.0,0,
205100,1863.1,10.1,184.1,66.4,0.0,0.0,0.0,0,
205200,1862.0,10.6,184.1,66.4,0.0,0.0,0.0,0,
205300,1861.7,11.0,184.1,74.2,0.0,0.0,0.0,0,
205400,1861.6,10.1,181.7,82.0,0.0,0.0,0.0,0,
205500,1863.3,10.0,174.7,177.7,0.0,0.0,0.0,0,
205600,1862.7,10.0,164.3,205.1,0.0,0.0,0.0,0,
205700,1861.0,9.3,145.3,207.0,0.0,0.0,0.0,0,
205900,1861.6,11.0,75.1,216.8,0.0,0.0,0.0,0,
206000,1861.4,82.1,26.1,89.8,0.0,0.0,0.0,0,
206100,1861.8,113.3,45.8,35.2,0.0,0.0,0.0,0,
206200,1879.3,180.6,67.7,33.2,0.0,0.0,0.0,0,
206300,1852.2,188.0,105.1,33.2,0.0,0.0,0.0,0,
206400,1855.3,158.7,134.4,64.5,0.0,0.0,0.0,0,
206500,1860.2,157.4,159.8,64.5,0.0,0.0,0.0,0,
206600,1863.1,46.1,179.4,64.5,0.0,0.0,0.0,0,
206700,1864.4,12.4,179.4,64.5,0.0,0.0,0.0,0,
206900,1862.7,9.7,179.4,70.3,0.0,0.0,0.0,0,
207000,1862.7,11.3,177.9,78.1,0.0,0.0,0.0,0,
207100,1860.9,11.7,173.9,185.5,0.0,0.0,0.0,0,
207200,1861.1,9.4,166.6,189.5,0.0,0.0,0.0,0,
207300,1862.1,11.3,145.9,128.9,0.0,0.0,0.0,0,
207400,1861.6,12.2,119.5,136.7,0.0,0.0,0.0,0,
207500,1861.7,10.5,82.4,203.1,0.0,0.0,0.0,0,
207600,1880.5,122.7,24.6,111.3,0.0,0.0,0.0,0,
207700,1846.4,126.5,55.2,35.2,0.0,0.0,0.0,0,
207900,1858.0,184.0,104.1,33.2,0.0,0.0,0.0,0,
208000,1887.5,204.0,131.6,33.2,0.0,0.0,0.0,0,
208100,1840.8,180.0,154.8,64.5,0.0,0.0,0.0,0,
208200,1857.1,72.5,177.1,64.5,0.0,0.0,0.0,0,
208300,1865.6,13.0,177.1,64.5,0.0,0.0,0.0,0,
208400,1861.7,9.8,177.1,64.5,0.0,0.0,0.0,0,
208500,1862.4,10.9,177.1,66.4,0.0,0.0,0.0,0,
208600,1861.8,11.3,175.8,68.4,0.0,0.0,0.0,0,
208700,1861.3,9.6,168.7,134.8,0.0,0.0,0.0,0,
208900,1862.1,11.0,143.9,169.9,0.0,0.0,0.0,0,
209000,1861.8,10.6,119.1,205.1,0.0,0.0,0.0,0,
209100,1861.5,11.0,86.9,218.8,0.0,0.0,0.0,0,
209200,1862.2,118.9,12.8,224.6,0.0,0.0,0.0,0,
209300,1869.0,141.5,59.1,35.2,0.0,0.0,0.0,0,
209400,1859.0,171.8,84.0,33.2,0.0,0.0,0.0,0,
209500,1850.5,144.4,109.2,33.2,0.0,0.0,0.0,0,
209600,1857.0,163.3,128.4,62.5,0.0,0.0,0.0,0,
209700,1862.0,205.0,147.5,64.5,0.0,0.0,0.0,0,
209900,1848.8,13.7,169.5,64.5,0.0,0.0,0.0,0,
210000,1862.0,10.6,169.5,64.5,0.0,0.0,0.0,0,
210100,1861.1,10.9,169.5,66.4,0.0,0.0,0.0,0,
210200,1861.8,9.6,169.5,66.4,0.0,0.0,0.0,0,
210300,1862.3,10.8,159.3,80.1,0.0,0.0,0.0,0,
210400,1861.2,11.4,147.7,171.9,0.0,0.0,0.0,0,
210500,1861.3,10.6,130.2,177.7,0.0,0.0,0.0,0,
210600,1860.9,12.3,111.3,195.3,0.0,0.0,0.0,0,
210700,1862.3,11.5,84.4,232.4,0.0,0.0,0.0,0,
210900,1853.1,132.6,61.5,37.1,0.0,0.0,0.0,0,
211000,1857.1,182.3,84.0,35.2,0.0,0.0,0.0,0,
211100,1879.7,174.4,112.3,33.2,0.0,0.0,0.0,0,
211200,1844.1,158.5,131.6,35.2,0.0,0.0,0.0,0,
211300,1853.9,143.7,151.7,64.5,0.0,0.0,0.0,0,
211400,1856.0,118.4,170.4,64.5,0.0,0.0,0.0,0,
211500,1864.7,16.0,176.1,64.5,0.0,0.0,0.0,0,
211600,1862.6,12.6,176.1,64.5,0.0,0.0,0.0,0,
211700,1861.2,9.8,176.1,66.4,0.0,0.0,0.0,0,
211900,1862.4,11.5,165.5,78.1,0.0,0.0,0.0,0,
212000,1861.5,10.2,155.3,240.2,0.0,0.0,0.0,0,
212100,1861.6,11.3,136.2,238.3,0.0,0.0,0.0,0,
212200,1862.7,11.7,117.7,144.5,0.0,0.0,0.0,0,
212300,1861.6,10.2,90.3,130.9,0.0,0.0,0.0,0,
212400,1862.0,95.4,46.3,173.8,0.0,0.0,0.0,0,
212500,1869.3,163.6,64.2,37.1,0.0,0.0,0.0,0,
212600,1845.0,149.7,86.4,35.2,0.0,0.0,0.0,0,
212700,1851.5,166.4,109.4,35.2,0.0,0.0,0.0,0,
212900,1865.7,200.9,158.2,64.5,0.0,0.0,0.0,0,
213000,1841.6,175.3,177.8,64.5,0.0,0.0,0.0,0,
213100,1860.1,20.6,184.5,64.5,0.0,0.0,0.0,0,
213200,1860.9,10.6,184.5,64.5,0.0,0.0,0.0,0,
213300,1862.1,10.4,184.5,66.4,0.0,0.0,0.0,0,
213400,1863.5,11.2,184.5,68.4,0.0,0.0,0.0,0,
213500,1861.3,9.2,173.4,84.0,0.0,0.0,0.0,0,
213600,1861.7,10.6,163.5,214.8,0.0,0.0,0.0,0,
213700,1861.5,11.0,149.1,154.3,0.0,0.0,0.0,0,
213900,1862.2,11.1,95.8,148.4,0.0,0.0,0.0,0,
214000,1860.8,23.1,50.8,148.4,0.0,0.0,0.0,0,
214100,1859.2,144.4,51.8,37.1,0.0,0.0,0.0,0,
214200,1884.1,163.1,75.4,33.2,0.0,0.0,0.0,0,
214300,1848.6,159.9,98.3,33.2,0.0,0.0,0.0,0,
214400,1852.2,150.7,122.5,33.2,0.0,0.0,0.0,0,
214500,1856.9,199.9,147.1,64.5,0.0,0.0,0.0,0,
214600,1871.7,234.2,171.6,64.5,0.0,0.0,0.0,0,
214700,1847.0,23.1,183.0,64.5,0.0,0.0,0.0,0,
214900,1861.1,11.1,183.0,66.4,0.0,0.0,0.0,0,
215000,1862.7,10.1,183.0,68.4,0.0,0.0,0.0,0,
215100,1861.3,11.6,175.9,76.2,0.0,0.0,0.0,0,
215200,1862.4,11.0,167.1,187.5,0.0,0.0,0.0,0,
215300,1861.0,9.9,154.8,168.0,0.0,0.0,0.0,0,
215400,1862.5,11.6,136.5,154.3,0.0,0.0,0.0,0,
215500,1860.8,11.7,109.6,140.6,0.0,0.0,0.0,0,
215600,1860.8,10.0,64.8,162.1,0.0,0.0,0.0,0,
215700,1863.3,147.0,51.8,39.1,0.0,0.0,0.0,0,
215900,1872.1,205.5,99.5,33.2,0.0,0.0,0.0,0,
216000,1876.7,185.0,127.6,33.2,0.0,0.0,0.0,0,
216100,1851.2,159.8,147.4,62.5,0.0,0.0,0.0,0,
216200,1857.5,152.4,167.1,64.5,0.0,0.0,0.0,0,
216300,1863.2,27.5,180.0,64.5,0.0,0.0,0.0,0,
216400,1860.4,11.7,180.0,64.5,0.0,0.0,0.0,0,
216500,1861.8,9.6,180.0,66.4,0.0,0.0,0.0,0,
216600,1862.5,11.3,180.0,66.4,0.0,0.0,0.0,0,
216700,1862.2,11.6,172.8,70.3,0.0,0.0,0.0,0,
216900,1861.8,11.5,150.5,216.8,0.0,0.0,0.0,0,
217000,1861.6,11.1,127.5,160.2,0.0,0.0,0.0,0,
217100,1862.1,9.5,104.0,140.6,0.0,0.0,0.0,0,
217200,1861.4,11.5,68.0,191.4,0.0,0.0,0.0,0,
217300,1887.7,184.6,53.8,41.0,0.0,0.0,0.0,0,
217400,1855.8,164.8,85.7,35.2,0.0,0.0,0.0,0,
217500,1862.5,155.5,110.4,33.2,0.0,0.0,0.0,0,
217600,1868.3,199.3,133.8,33.2,0.0,0.0,0.0,0,
217700,1888.7,219.9,158.0,62.5,0.0,0.0,0.0,0,
217900,1860.4,36.4,192.2,64.5,0.0,0.0,0.0,0,
218000,1861.9,11.4,192.2,64.5,0.0,0.0,0.0,0,
218100,1862.1,10.2,192.2,64.5,0.0,0.0,0.0,0,
218200,1862.0,12.0,192.2,66.4,0.0,0.0,0.0,0,
218300,1862.3,10.9,185.0,66.4,0.0,0.0,0.0,0,
218400,1861.7,11.8,172.5,150.4,0.0,0.0,0.0,0,
218500,1861.5,11.7,157.8,146.5,0.0,0.0,0.0,0,
218600,1861.9,10.7,138.6,166.0,0.0,0.0,0.0,0,
218700,1862.1,11.8,110.2,173.8,0.0,0.0,0.0,0,
218900,1860.4,170.0,42.1,54.7,0.0,0.0,0.0,0,
219000,1882.8,211.8,81.7,35.2,0.0,0.0,0.0,0,
219100,1883.7,201.2,117.3,35.2,0.0,0.0,0.0,0,
219200,1863.2,176.8,142.8,35.2,0.0,0.0,0.0,0,
219300,1870.8,167.0,167.6,64.5,0.0,0.0,0.0,0,
219400,1871.8,216.4,188.4,64.5,0.0,0.0,0.0,0,
219500,1870.3,46.4,207.1,64.5,0.0,0.0,0.0,0,
219600,1864.8,12.4,207.1,64.5,0.0,0.0,0.0,0,
219700,1861.7,11.7,207.1,66.4,0.0,0.0,0.0,0,
219900,1863.0,11.2,203.2,70.3,0.0,0.0,0.0,0,
220000,1862.3,11.6,190.8,162.1,0.0,0.0,0.0,0,
220100,1861.8,10.0,171.2,173.8,0.0,0.0,0.0,0,
220200,1862.2,11.3,150.6,203.1,0.0,0.0,0.0,0,
220300,1862.9,10.8,122.5,216.8,0.0,0.0,0.0,0,
220400,1861.5,10.8,87.0,212.9,0.0,0.0,0.0,0,
220500,1877.3,164.0,36.6,72.3,0.0,0.0,0.0,0,
220600,1853.5,156.7,80.8,37.1,0.0,0.0,0.0,0,
220700,1868.2,207.0,111.5,35.2,0.0,0.0,0.0,0,
220900,1862.3,211.9,170.2,64.5,0.0,0.0,0.0,0,
221000,1868.4,173.0,191.0,64.5,0.0,0.0,0.0,0,
221100,1873.4,64.8,210.6,64.5,0.0,0.0,0.0,0,
221200,1865.0,14.6,210.6,64.5,0.0,0.0,0.0,0,
221300,1861.1,9.5,210.6,64.5,0.0,0.0,0.0,0,
221400,1863.4,10.8,210.6,66.4,0.0,0.0,0.0,0,
221500,1863.0,10.9,207.8,68.4,0.0,0.0,0.0,0,
221600,1862.1,10.3,194.8,171.9,0.0,0.0,0.0,0,
221700,1862.2,11.2,179.1,140.6,0.0,0.0,0.0,0,
221900,1861.7,10.4,124.7,169.9,0.0,0.0,0.0,0,
222000,1861.5,11.0,89.7,160.2,0.0,0.0,0.0,0,
222100,1867.4,135.6,19.9,166.0,0.0,0.0,0.0,0,
222200,1873.6,152.8,65.4,35.2,0.0,0.0,0.0,0,
222300,1850.2,147.6,87.3,33.2,0.0,0.0,0.0,0,
222400,1859.5,138.6,109.9,33.2,0.0,0.0,0.0,0,
222500,1866.4,165.0,126.7,33.2,0.0,0.0,0.0,0,
222600,1891.4,185.7,145.8,64.5,0.0,0.0,0.0,0,
222700,1852.2,73.7,162.8,64.5,0.0,0.0,0.0,0,
222900,1862.3,10.9,162.9,64.5,0.0,0.0,0.0,0,
223000,1861.9,12.5,162.9,64.5,0.0,0.0,0.0,0,
223100,1862.9,9.2,162.2,64.5,0.0,0.0,0.0,0,
223200,1863.2,11.1,149.7,85.9,0.0,0.0,0.0,0,
223300,1861.0,10.8,138.1,203.1,0.0,0.0,0.0,0,
223400,1862.4,9.8,120.9,210.9,0.0,0.0,0.0,0,
223500,1862.1,11.3,103.2,201.2,0.0,0.0,0.0,0,
223600,1861.4,10.9,73.7,169.9,0.0,0.0,0.0,0,
223700,1861.9,105.4,14.1,177.7,0.0,0.0,0.0,0,
223900,1875.4,170.4,89.6,33.2,0.0,0.0,0.0,0,
224000,1857.0,173.0,111.1,33.2,0.0,0.0,0.0,0,
224100,1851.0,144.5,129.8,33.2,0.0,0.0,0.0,0,
224200,1856.7,162.4,147.9,64.5,0.0,0.0,0.0,0,
224300,1865.4,105.3,164.6,64.5,0.0,0.0,0.0,0,
224400,1863.1,15.7,169.0,64.5,0.0,0.0,0.0,0,
224500,1861.6,11.6,169.0,64.5,0.0,0.0,0.0,0,
224600,1861.3,10.2,169.0,64.5,0.0,0.0,0.0,0,
224700,1862.7,11.7,169.0,66.4,0.0,0.0,0.0,0,
224900,1861.3,9.8,143.8,183.6,0.0,0.0,0.0,0,
225000,1861.9,10.8,127.9,154.3,0.0,0.0,0.0,0,
225100,1861.0,10.8,108.9,146.5,0.0,0.0,0.0,0,
225200,1861.5,9.1,82.7,166.0,0.0,0.0,0.0,0,
225300,1860.6,95.0,40.5,203.1,0.0,0.0,0.0,0,
225400,1861.2,130.5,54.1,39.1,0.0,0.0,0.0,0,
225500,1852.5,134.7,77.0,35.2,0.0,0.0,0.0,0,
225600,1855.2,183.1,101.2,35.2,0.0,0.0,0.0,0,
225700,1881.7,188.6,126.5,39.1,0.0,0.0,0.0,0,
225900,1853.4,142.4,163.7,64.5,0.0,0.0,0.0,0,
226000,1863.1,18.9,169.1,64.5,0.0,0.0,0.0,0,
226100,1861.8,10.7,169.1,64.5,0.0,0.0,0.0,0,
226200,1862.4,10.2,169.1,64.5,0.0,0.0,0.0,0,
226300,1863.0,11.2,169.1,66.4,0.0,0.0,0.0,0,
226400,1863.8,10.1,160.7,78.1,0.0,0.0,0.0,0,
226500,1861.6,10.8,151.0,216.8,0.0,0.0,0.0,0,
226600,1861.6,10.5,136.0,210.9,0.0,0.0,0.0,0,
226700,1861.6,9.4,112.8,209.0,0.0,0.0,0.0,0,
226900,1861.2,58.7,44.1,226.6,0.0,0.0,0.0,0,
227000,1867.4,156.3,50.4,39.1,0.0,0.0,0.0,0,
227100,1854.8,147.2,74.8,35.2,0.0,0.0,0.0,0,
227200,1850.8,123.6,93.9,33.2,0.0,0.0,0.0,0,
227300,1855.6,131.3,108.0,33.2,0.0,0.0,0.0,0,
227400,1862.2,194.0,124.1,64.5,0.0,0.0,0.0,0,
227500,1868.5,177.0,145.4,64.5,0.0,0.0,0.0,0,
227600,1849.0,19.0,151.8,64.5,0.0,0.0,0.0,0,
227700,1861.6,11.7,151.8,64.5,0.0,0.0,0.0,0,
227900,1862.5,9.5,151.8,66.4,0.0,0.0,0.0,0,
228000,1861.8,10.3,143.7,70.3,0.0,0.0,0.0,0,
228100,1862.0,11.0,132.6,169.9,0.0,0.0,0.0,0,
228200,1860.9,9.9,119.9,205.1,0.0,0.0,0.0,0,
228300,1862.3,9.9,107.4,228.5,0.0,0.0,0.0,0,
228400,1861.1,11.5,88.3,210.9,0.0,0.0,0.0,0,
228500,1862.2,10.1,45.2,214.8,0.0,0.0,0.0,0,
228600,1856.5,135.2,50.4,37.1,0.0,0.0,0.0,0,
228700,1860.7,157.7,73.3,33.2,0.0,0.0,0.0,0,
228900,1840.5,151.2,118.7,33.2,0.0,0.0,0.0,0,
229000,1853.9,131.3,137.3,64.5,0.0,0.0,0.0,0,
229100,1855.7,180.6,155.1,64.5,0.0,0.0,0.0,0,
229200,1861.7,24.5,167.4,64.5,0.0,0.0,0.0,0,
229300,1860.4,11.4,167.4,64.5,0.0,0.0,0.0,0,
229400,1861.4,10.2,167.4,66.4,0.0,0.0,0.0,0,
229500,1862.7,11.4,167.4,68.4,0.0,0.0,0.0,0,
229600,1862.6,10.9,160.1,72.3,0.0,0.0,0.0,0,
229700,1862.3,9.4,151.0,168.0,0.0,0.0,0.0,0,
229900,1862.7,11.5,118.6,164.1,0.0,0.0,0.0,0,
230000,1862.3,10.5,96.6,152.3,0.0,0.0,0.0,0,
230100,1861.4,11.0,64.1,140.6,0.0,0.0,0.0,0,
230200,1876.5,132.4,39.9,52.7,0.0,0.0,0.0,0,
230300,1856.7,114.7,62.5,35.2,0.0,0.0,0.0,0,
230400,1862.4,146.0,80.8,33.2,0.0,0.0,0.0,0,
230500,1876.5,180.7,100.0,33.2,0.0,0.0,0.0,0,
230600,1877.1,175.0,123.8,33.2,0.0,0.0,0.0,0,
230700,1855.5,148.1,142.8,64.5,0.0,0.0,0.0,0,
230900,1860.8,10.4,155.2,64.5,0.0,0.0,0.0,0,
231000,1861.3,10.7,155.2,64.5,0.0,0.0,0.0,0,
231100,1863.4,11.9,155.2,66.4,0.0,0.0,0.0,0,
231200,1862.2,10.1,150.6,70.3,0.0,0.0,0.0,0,
231300,1861.7,10.9,142.7,125.0,0.0,0.0,0.0,0,
231400,1862.7,12.0,133.1,125.0,0.0,0.0,0.0,0,
231500,1862.0,9.5,119.4,140.6,0.0,0.0,0.0,0,
231600,1862.2,11.0,94.5,158.2,0.0,0.0,0.0,0,
231700,1862.3,11.5,62.2,187.5,0.0,0.0,0.0,0,
231900,1890.7,155.8,76.0,37.1,0.0,0.0,0.0,0,
232000,1854.5,166.8,101.2,35.2,0.0,0.0,0.0,0,
232100,1869.4,145.4,129.5,37.1,0.0,0.0,0.0,0,
232200,1870.9,205.3,153.2,64.5,0.0,0.0,0.0,0,
232300,1896.1,244.7,179.7,64.5,0.0,0.0,0.0,0,
232400,1855.5,39.8,198.6,64.5,0.0,0.0,0.0,0,
232500,1862.3,12.2,198.6,66.4,0.0,0.0,0.0,0,
232600,1862.3,10.6,198.6,66.4,0.0,0.0,0.0,0,
232700,1860.8,10.3,198.6,72.3,0.0,0.0,0.0,0,
232900,1862.7,11.4,183.9,171.9,0.0,0.0,0.0,0,
233000,1861.7,10.4,171.3,140.6,0.0,0.0,0.0,0,
233100,1861.5,10.5,151.1,160.2,0.0,0.0,0.0,0,
233200,1861.3,11.0,127.0,175.8,0.0,0.0,0.0,0,
233300,1861.1,10.3,85.4,173.8,0.0,0.0,0.0,0,
233400,1865.6,152.8,42.0,62.5,0.0,0.0,0.0,0,
233500,1854.7,143.6,75.6,37.1,0.0,0.0,0.0,0,
233600,1871.4,202.6,98.7,35.2,0.0,0.0,0.0,0,
233700,1868.3,175.4,128.7,37.1,0.0,0.0,0.0,0,
233900,1864.2,136.6,168.4,64.5,0.0,0.0,0.0,0,
234000,1868.2,43.2,184.1,64.5,0.0,0.0,0.0,0,
234100,1864.2,12.2,184.1,64.5,0.0,0.0,0.0,0,
234200,1861.9,9.9,184.1,66.4,0.0,0.0,0.0,0,
234300,1862.7,9.6,184.1,68.4,0.0,0.0,0.0,0,
234400,1861.5,10.8,179.7,70.3,0.0,0.0,0.0,0,
234500,1861.4,10.1,168.3,207.0,0.0,0.0,0.0,0,
234600,1862.8,9.9,155.9,169.9,0.0,0.0,0.0,0,
234700,1861.6,10.6,132.3,162.1,0.0,0.0,0.0,0,
234900,1861.1,10.6,75.4,205.1,0.0,0.0,0.0,0,
235000,1884.3,161.7,33.2,95.7,0.0,0.0,0.0,0,
235100,1842.9,131.4,69.1,37.1,0.0,0.0,0.0,0,
235200,1854.0,141.4,90.9,35.2,0.0,0.0,0.0,0,
235300,1857.0,177.1,117.0,37.1,0.0,0.0,0.0,0,
235400,1877.2,229.2,142.8,64.5,0.0,0.0,0.0,0,
235500,1845.9,186.3,169.9,64.5,0.0,0.0,0.0,0,
235600,1858.0,73.1,190.6,64.5,0.0,0.0,0.0,0,
235700,1863.8,12.7,190.7,64.5,0.0,0.0,0.0,0,
235900,1862.5,10.2,190.7,68.4,0.0,0.0,0.0,0,
236000,1862.3,9.2,188.1,70.3,0.0,0.0,0.0,0,
236100,1862.5,10.6,178.1,103.5,0.0,0.0,0.0,0,
236200,1861.8,10.2,168.0,210.9,0.0,0.0,0.0,0,
236300,1861.4,10.5,151.0,220.7,0.0,0.0,0.0,0,
236400,1861.9,10.4,126.9,191.4,0.0,0.0,0.0,0,
236500,1862.5,11.4,87.4,177.7,0.0,0.0,0.0,0,
236600,1862.0,129.7,12.7,222.7,0.0,0.0,0.0,0,
236700,1859.0,170.5,62.9,39.1,0.0,0.0,0.0,0,
236900,1845.2,165.3,119.0,35.2,0.0,0.0,0.0,0,
237000,1856.0,159.2,145.0,64.5,0.0,0.0,0.0,0,
237100,1850.8,203.9,168.0,64.5,0.0,0.0,0.0,0,
237200,1886.4,100.1,192.4,64.5,0.0,0.0,0.0,0,
237300,1839.9,14.3,195.2,64.5,0.0,0.0,0.0,0,
237400,1861.7,11.9,195.2,66.4,0.0,0.0,0.0,0,
237500,1861.6,9.0,195.2,66.4,0.0,0.0,0.0,0,
237600,1862.5,9.6,195.2,70.3,0.0,0.0,0.0,0,
237700,1862.4,11.4,185.2,82.0,0.0,0.0,0.0,0,
237900,1861.5,10.5,155.3,209.0,0.0,0.0,0.0,0,
238000,1861.6,12.5,131.3,210.9,0.0,0.0,0.0,0,
238100,1861.4,9.9,100.1,173.8,0.0,0.0,0.0,0,
238200,1862.4,117.4,35.3,138.7,0.0,0.0,0.0,0,
238300,1859.1,127.9,62.1,37.1,0.0,0.0,0.0,0,
238400,1859.4,155.6,80.4,35.2,0.0,0.0,0.0,0,
238500,1875.5,204.5,108.3,35.2,0.0,0.0,0.0,0,
238600,1846.2,175.8,135.5,64.5,0.0,0.0,0.0,0,
238700,1854.4,163.7,158.7,64.5,0.0,0.0,0.0,0,
238900,1863.7,17.6,188.7,64.5,0.0,0.0,0.0,0,
239000,1862.6,11.2,188.7,64.5,0.0,0.0,0.0,0,
239100,1863.3,9.7,188.7,66.4,0.0,0.0,0.0,0,
239200,1862.8,10.6,188.7,68.4,0.0,0.0,0.0,0,
239300,1861.9,9.6,178.6,78.1,0.0,0.0,0.0,0,
239400,1862.2,9.8,171.2,166.0,0.0,0.0,0.0,0,
239500,1861.3,11.4,155.0,154.3,0.0,0.0,0.0,0,
239600,1862.0,9.2,131.9,146.5,0.0,0.0,0.0,0,
239700,1861.6,11.4,102.9,150.4,0.0,0.0,0.0,0,
239900,1874.1,151.8,62.3,39.1,0.0,0.0,0.0,0,
240000,1843.8,138.5,84.6,35.2,0.0,0.0,0.0,0,
240100,1853.4,149.0,111.2,35.2,0.0,0.0,0.0,0,
240200,1853.4,209.0,137.5,64.5,0.0,0.0,0.0,0,
240300,1888.6,230.3,169.0,64.5,0.0,0.0,0.0,0,
240400,1833.3,178.8,195.1,64.5,0.0,0.0,0.0,0,
240500,1862.1,17.8,202.1,64.5,0.0,0.0,0.0,0,
240600,1862.0,13.0,202.1,66.4,0.0,0.0,0.0,0,
240700,1861.5,10.5,202.1,68.4,0.0,0.0,0.0,0,
240900,1861.7,9.6,192.6,87.9,0.0,0.0,0.0,0,
241000,1862.1,12.6,183.9,148.4,0.0,0.0,0.0,0,
241100,1861.3,10.1,169.2,175.8,0.0,0.0,0.0,0,
241200,1862.2,9.9,148.6,136.7,0.0,0.0,0.0,0,
241300,1863.1,10.3,111.4,134.8,0.0,0.0,0.0,0,
241400,1862.8,19.8,53.9,183.6,0.0,0.0,0.0,0,
241500,1853.1,171.4,55.4,41.0,0.0,0.0,0.0,0,
241600,1872.7,197.5,84.4,35.2,0.0,0.0,0.0,0,
241700,1847.9,183.2,116.4,35.2,0.0,0.0,0.0,0,
241900,1853.1,175.0,166.0,64.5,0.0,0.0,0.0,0,
242000,1859.1,235.2,188.7,64.5,0.0,0.0,0.0,0,
242100,1859.2,22.6,201.2,64.5,0.0,0.0,0.0,0,
242200,1860.8,11.7,201.2,66.4,0.0,0.0,0.0,0,
242300,1861.0,10.3,201.2,66.4,0.0,0.0,0.0,0,
242400,1862.7,10.4,201.2,70.3,0.0,0.0,0.0,0,
242500,1862.6,10.6,193.9,85.9,0.0,0.0,0.0,0,
242600,1861.7,10.1,183.1,177.7,0.0,0.0,0.0,0,
242700,1861.2,10.7,164.7,177.7,0.0,0.0,0.0,0,
242900,1861.1,10.8,114.4,199.2,0.0,0.0,0.0,0,
243000,1862.0,10.8,71.0,216.8,0.0,0.0,0.0,0,
243100,1870.2,158.4,51.6,46.9,0.0,0.0,0.0,0,
243200,1861.2,151.6,81.6,35.2,0.0,0.0,0.0,0,
243300,1868.6,204.6,107.2,35.2,0.0,0.0,0.0,0,
243400,1893.1,200.8,137.5,35.2,0.0,0.0,0.0,0,
243500,1844.5,163.2,160.3,64.5,0.0,0.0,0.0,0,
243600,1860.7,135.7,179.7,64.5,0.0,0.0,0.0,0,
243700,1866.5,27.6,191.0,64.5,0.0,0.0,0.0,0,
243900,1861.4,10.4,191.1,66.4,0.0,0.0,0.0,0,
244000,1863.2,10.6,191.1,68.4,0.0,0.0,0.0,0,
244100,1861.5,10.8,184.4,72.3,0.0,0.0,0.0,0,
244200,1862.3,9.7,173.2,171.9,0.0,0.0,0.0,0,
244300,1862.0,10.1,158.7,185.5,0.0,0.0,0.0,0,
244400,1861.9,10.9,133.2,183.6,0.0,0.0,0.0,0,
244500,1861.5,10.4,104.7,191.4,0.0,0.0,0.0,0,
244600,1861.7,12.0,66.1,189.5,0.0,0.0,0.0,0,
244700,1877.0,172.4,44.4,56.6,0.0,0.0,0.0,0,
244900,1862.6,147.7,101.5,33.2,0.0,0.0,0.0,0,
245000,1865.4,170.5,124.2,33.2,0.0,0.0,0.0,0,
245100,1883.0,226.0,147.5,64.5,0.0,0.0,0.0,0,
245200,1880.0,178.3,171.9,64.5,0.0,0.0,0.0,0,
245300,1859.5,33.0,184.1,64.5,0.0,0.0,0.0,0,
245400,1862.4,10.7,184.2,64.5,0.0,0.0,0.0,0,
245500,1862.0,10.6,184.1,66.4,0.0,0.0,0.0,0,
245600,1861.9,10.2,184.1,68.4,0.0,0.0,0.0,0,
245700,1861.5,10.2,179.2,70.3,0.0,0.0,0.0,0,
245900,1862.0,10.1,154.2,177.7,0.0,0.0,0.0,0,
246000,1861.6,9.1,136.6,150.4,0.0,0.0,0.0,0,
246100,1861.5,9.6,111.0,162.1,0.0,0.0,0.0,0,
246200,1860.8,11.2,67.0,187.5,0.0,0.0,0.0,0,
246300,1859.1,119.8,33.3,62.5,0.0,0.0,0.0,0,
246400,1859.3,162.0,62.0,35.2,0.0,0.0,0.0,0,
246500,1882.4,159.4,85.9,33.2,0.0,0.0,0.0,0,
246600,1855.0,136.1,101.4,33.2,0.0,0.0,0.0,0,
246700,1857.5,119.0,114.4,33.2,0.0,0.0,0.0,0,
246900,1866.2,36.3,134.8,33.2,0.0,0.0,0.0,0,
247000,1864.0,12.0,134.8,62.5,0.0,0.0,0.0,0,
247100,1861.9,10.4,134.8,62.5,0.0,0.0,0.0,0,
247200,1862.4,10.2,134.8,62.5,0.0,0.0,0.0,0,
247300,1864.2,16.4,131.2,54.7,0.0,0.0,0.0,0,
247400,1861.6,12.6,120.5,66.4,0.0,0.0,0.0,0,
247500,1863.7,9.7,104.8,66.4,0.0,0.0,0.0,0,
247600,1862.5,13.2,89.9,70.3,0.0,0.0,0.0,0,
247700,1861.4,13.7,72.7,85.9,0.0,0.0,0.0,0,
247900,1876.9,129.9,31.1,78.1,0.0,0.0,0.0,0,
248000,1849.7,135.0,64.1,37.1,0.0,0.0,0.0,0,
248100,1858.0,136.6,87.7,35.2,0.0,0.0,0.0,0,
248200,1870.3,179.7,108.6,35.2,0.0,0.0,0.0,0,
248300,1865.8,148.9,130.7,64.5,0.0,0.0,0.0,0,
248400,1855.5,132.9,146.6,64.5,0.0,0.0,0.0,0,
248500,1859.0,50.7,161.9,64.5,0.0,0.0,0.0,0,
248600,1860.4,13.6,161.9,66.4,0.0,0.0,0.0,0,
248700,1861.8,15.7,162.0,66.4,0.0,0.0,0.0,0,
248900,1860.7,10.9,159.7,89.8,0.0,0.0,0.0,0,
249000,1860.1,10.1,149.5,93.8,0.0,0.0,0.0,0,
249100,1862.0,24.1,137.0,89.8,0.0,0.0,0.0,0,
249200,1861.6,16.8,121.4,95.7,0.0,0.0,0.0,0,
249300,1862.0,22.0,97.2,66.4,0.0,0.0,0.0,0,
249400,1861.7,11.7,71.1,68.4,0.0,0.0,0.0,0,
249500,1859.6,169.6,23.6,76.2,0.0,0.0,0.0,0,
249600,1879.7,206.9,83.7,64.5,0.0,0.0,0.0,0,
249700,1842.9,170.8,115.2,64.5,0.0,0.0,0.0,0,
249900,1855.8,180.9,151.1,64.5,0.0,0.0,0.0,0,
250000,1874.5,180.3,169.3,64.5,0.0,0.0,0.0,0,
250100,1848.7,72.2,183.3,66.4,0.0,0.0,0.0,0,
250200,1854.9,13.4,183.3,68.4,0.0,0.0,0.0,0,
250300,1860.6,11.3,183.2,93.8,0.0,0.0,0.0,0,
250400,1861.2,10.6,183.1,93.8,0.0,0.0,0.0,0,
250500,1862.3,11.2,182.5,89.8,0.0,0.0,0.0,0,
250600,1861.0,14.6,163.8,91.8,0.0,0.0,0.0,0,
250700,1864.6,16.4,143.5,117.2,0.0,0.0,0.0,0,
250900,1861.0,24.6,105.5,72.3,0.0,0.0,0.0,0,
251000,1863.0,19.2,73.1,72.3,0.0,0.0,0.0,0,
251100,1863.5,106.3,21.3,72.3,0.0,0.0,0.0,0,
251200,1849.0,191.0,75.9,72.3,0.0,0.0,0.0,0,
251300,1861.7,175.6,111.8,66.4,0.0,0.0,0.0,0,
251400,1862.4,130.1,131.5,66.4,0.0,0.0,0.0,0,
251500,1854.2,128.4,145.8,66.4,0.0,0.0,0.0,0,
251600,1850.5,130.5,159.9,95.7,0.0,0.0,0.0,0,
251700,1847.1,111.4,173.0,95.7,0.0,0.0,0.0,0,
251900,1861.3,21.1,176.9,95.7,0.0,0.0,0.0,0,
252000,1860.3,23.3,176.9,93.8,0.0,0.0,0.0,0,
252100,1862.3,28.7,177.2,84.0,0.0,0.0,0.0,0,
252200,1861.9,21.2,161.7,74.2,0.0,0.0,0.0,0,
252300,1862.7,14.7,139.4,72.3,0.0,0.0,0.0,0,
252400,1860.3,20.6,121.2,76.2,0.0,0.0,0.0,0,
252500,1861.8,16.8,103.7,76.2,0.0,0.0,0.0,0,
252600,1861.4,20.6,80.4,84.0,0.0,0.0,0.0,0,
252700,1862.5,88.4,45.7,91.8,0.0,0.0,0.0,0,
252900,1850.8,175.9,114.2,66.4,0.0,0.0,0.0,0,
253000,1849.9,208.8,138.1,66.4,0.0,0.0,0.0,0,
253100,1871.8,190.2,161.9,64.5,0.0,0.0,0.0,0,
253200,1849.5,169.3,178.4,64.5,0.0,0.0,0.0,0,
253300,1851.1,148.0,193.6,66.4,0.0,0.0,0.0,0,
253400,1857.5,23.2,198.4,66.4,0.0,0.0,0.0,0,
253500,1860.6,14.8,198.4,66.4,0.0,0.0,0.0,0,
253600,1861.4,13.6,198.4,70.3,0.0,0.0,0.0,0,
253700,1862.4,19.1,198.3,78.1,0.0,0.0,0.0,0,
253900,1861.5,12.9,164.2,95.7,0.0,0.0,0.0,0,
254000,1862.2,15.4,144.6,66.4,0.0,0.0,0.0,0,
254100,1862.3,15.6,116.8,66.4,0.0,0.0,0.0,0,
254200,1862.5,15.7,89.2,99.6,0.0,0.0,0.0,0,
254300,1861.9,76.4,47.3,91.8,0.0,0.0,0.0,0,
254400,1867.0,175.3,66.0,70.3,0.0,0.0,0.0,0,
254500,1872.6,149.2,98.3,66.4,0.0,0.0,0.0,0,
254600,1852.9,136.6,118.3,66.4,0.0,0.0,0.0,0,
254700,1850.6,138.2,135.9,66.4,0.0,0.0,0.0,0,
254900,1877.6,152.2,167.5,95.7,0.0,0.0,0.0,0,
255000,1846.3,21.1,172.1,95.7,0.0,0.0,0.0,0,
255100,1860.4,15.4,172.1,95.7,0.0,0.0,0.0,0,
255200,1862.7,14.9,172.0,93.8,0.0,0.0,0.0,0,
255300,1862.5,14.1,172.0,91.8,0.0,0.0,0.0,0,
255400,1861.5,14.3,159.8,87.9,0.0,0.0,0.0,0,
255500,1862.2,14.5,142.2,152.3,0.0,0.0,0.0,0,
255600,1862.1,16.7,126.1,146.5,0.0,0.0,0.0,0,
255700,1861.3,13.5,107.0,168.0,0.0,0.0,0.0,0,
255900,1861.6,13.5,42.6,93.8,0.0,0.0,0.0,0,
256000,1874.9,149.5,61.0,95.7,0.0,0.0,0.0,0,
256100,1881.9,184.5,91.1,68.4,0.0,0.0,0.0,0,
256200,1892.8,153.3,116.7,66.4,0.0,0.0,0.0,0,
256300,1869.5,134.7,132.5,66.4,0.0,0.0,0.0,0,
256400,1867.6,117.1,146.8,93.8,0.0,0.0,0.0,0,
256500,1861.9,149.1,159.0,95.7,0.0,0.0,0.0,0,
256600,1865.1,25.4,167.3,66.4,0.0,0.0,0.0,0,
256700,1861.7,16.2,167.3,91.8,0.0,0.0,0.0,0,
256900,1862.5,13.5,167.3,84.0,0.0,0.0,0.0,0,
257000,1861.8,15.5,156.7,87.9,0.0,0.0,0.0,0,
257100,1862.3,14.3,141.5,95.7,0.0,0.0,0.0,0,
257200,1861.0,13.7,121.2,146.5,0.0,0.0,0.0,0,
257300,1861.5,15.9,103.7,107.4,0.0,0.0,0.0,0,
257400,1862.1,14.4,82.1,125.0,0.0,0.0,0.0,0,
257500,1862.2,13.9,54.8,148.4,0.0,0.0,0.0,0,
257600,1883.2,138.3,54.4,72.3,0.0,0.0,0.0,0,
257700,1876.0,135.4,84.5,66.4,0.0,0.0,0.0,0,
257900,1878.3,179.9,128.3,66.4,0.0,0.0,0.0,0,
258000,1898.8,147.4,146.7,93.8,0.0,0.0,0.0,0,
258100,1869.7,135.5,160.7,95.7,0.0,0.0,0.0,0,
258200,1867.7,31.4,169.5,95.7,0.0,0.0,0.0,0,
258300,1864.1,22.4,169.6,95.7,0.0,0.0,0.0,0,
258400,1859.6,15.3,169.7,95.7,0.0,0.0,0.0,0,
258500,1862.3,15.5,169.7,95.7,0.0,0.0,0.0,0,
258600,1861.6,14.2,161.7,85.9,0.0,0.0,0.0,0,
258700,1861.2,14.3,148.3,80.1,0.0,0.0,0.0,0,
258900,1861.4,14.1,112.6,160.2,0.0,0.0,0.0,0,
259000,1863.3,15.1,87.2,138.7,0.0,0.0,0.0,0,
259100,1861.7,15.8,57.0,138.7,0.0,0.0,0.0,0,
259200,1853.7,188.6,47.8,74.2,0.0,0.0,0.0,0,
259300,1879.8,169.0,87.4,68.4,0.0,0.0,0.0,0,
259400,1859.5,147.6,108.9,66.4,0.0,0.0,0.0,0,
259500,1859.4,123.5,127.5,64.5,0.0,0.0,0.0,0,
259600,1862.2,164.3,141.2,64.5,0.0,0.0,0.0,0,
259700,1870.2,168.5,157.4,64.5,0.0,0.0,0.0,0,
259900,1864.1,15.5,167.7,66.4,0.0,0.0,0.0,0,
260000,1861.4,15.0,167.7,66.4,0.0,0.0,0.0,0,
260100,1861.3,15.6,167.7,68.4,0.0,0.0,0.0,0,
260200,1862.8,15.9,161.7,70.3,0.0,0.0,0.0,0,
260300,1861.6,15.8,144.2,158.2,0.0,0.0,0.0,0,
260400,1863.3,13.7,128.6,156.3,0.0,0.0,0.0,0,
260500,1861.5,14.6,110.2,162.1,0.0,0.0,0.0,0,
260600,1861.3,16.9,92.0,164.1,0.0,0.0,0.0,0,
260700,1862.1,14.0,60.2,125.0,0.0,0.0,0.0,0,
260900,1844.2,136.8,83.7,85.9,0.0,0.0,0.0,0,
261000,1846.4,169.9,105.4,78.1,0.0,0.0,0.0,0,
261100,1874.6,143.9,125.9,93.8,0.0,0.0,0.0,0,
261200,1848.0,136.3,141.4,95.7,0.0,0.0,0.0,0,
261300,1853.0,127.4,155.4,95.7,0.0,0.0,0.0,0,
261400,1856.2,50.8,168.3,95.7,0.0,0.0,0.0,0,
261500,1863.8,17.3,168.3,95.7,0.0,0.0,0.0,0,
261600,1861.8,14.8,168.3,89.8,0.0,0.0,0.0,0,
261700,1861.1,13.4,168.3,76.2,0.0,0.0,0.0,0,
261900,1860.8,10.9,147.0,113.3,0.0,0.0,0.0,0,
262000,1861.5,11.9,132.3,99.6,0.0,0.0,0.0,0,
262100,1861.5,12.1,112.9,99.6,0.0,0.0,0.0,0,
262200,1861.3,11.7,92.7,134.8,0.0,0.0,0.0,0,
262300,1861.6,10.1,66.4,152.3,0.0,0.0,0.0,0,
262400,1876.6,120.3,24.9,134.8,0.0,0.0,0.0,0,
262500,1859.3,130.5,57.5,33.2,0.0,0.0,0.0,0,
262600,1853.2,117.4,73.8,33.2,0.0,0.0,0.0,0,
262700,1859.2,135.7,89.5,33.2,0.0,0.0,0.0,0,
262900,1865.4,140.2,118.9,33.2,0.0,0.0,0.0,0,
263000,1852.3,52.6,132.1,62.5,0.0,0.0,0.0,0,
263100,1862.4,12.5,132.1,64.5,0.0,0.0,0.0,0,
263200,1862.0,10.8,132.1,64.5,0.0,0.0,0.0,0,
263300,1862.0,11.9,132.0,64.5,0.0,0.0,0.0,0,
263400,1861.1,10.1,130.5,64.5,0.0,0.0,0.0,0,
263500,1861.9,11.5,119.7,127.0,0.0,0.0,0.0,0,
263600,1861.1,11.8,110.4,191.4,0.0,0.0,0.0,0,
263700,1861.9,9.1,98.1,173.8,0.0,0.0,0.0,0,
263900,1861.5,9.6,58.8,158.2,0.0,0.0,0.0,0,
264000,1861.9,119.7,12.8,171.9,0.0,0.0,0.0,0,
264100,1863.7,156.7,68.0,35.2,0.0,0.0,0.0,0,
264200,1883.3,162.2,87.5,33.2,0.0,0.0,0.0,0,
264300,1848.9,124.1,105.4,33.2,0.0,0.0,0.0,0,
264400,1860.2,99.0,117.8,33.2,0.0,0.0,0.0,0,
264500,1862.1,143.9,131.0,33.2,0.0,0.0,0.0,0,
264600,1878.8,78.8,147.9,64.5,0.0,0.0,0.0,0,
264700,1849.2,14.2,150.4,64.5,0.0,0.0,0.0,0,
264900,1862.1,10.1,150.4,64.5,0.0,0.0,0.0,0,
265000,1862.3,10.0,150.4,66.4,0.0,0.0,0.0,0,
265100,1862.0,11.7,134.7,82.0,0.0,0.0,0.0,0,
265200,1861.1,11.5,122.9,177.7,0.0,0.0,0.0,0,
265300,1861.3,11.1,108.1,142.6,0.0,0.0,0.0,0,
265400,1863.3,10.9,94.4,148.4,0.0,0.0,0.0,0,
265500,1861.5,9.6,74.9,146.5,0.0,0.0,0.0,0,
265600,1862.2,105.7,30.3,177.7,0.0,0.0,0.0,0,
265700,1865.2,119.4,59.1,35.2,0.0,0.0,0.0,0,
265900,1879.5,144.1,90.7,33.2,0.0,0.0,0.0,0,
266000,1865.7,141.0,106.4,33.2,0.0,0.0,0.0,0,
266100,1859.3,121.7,122.6,33.2,0.0,0.0,0.0,0,
266200,1864.8,94.3,135.1,64.5,0.0,0.0,0.0,0,
266300,1864.9,16.4,138.9,64.5,0.0,0.0,0.0,0,
266400,1863.0,13.0,139.1,64.5,0.0,0.0,0.0,0,
266500,1863.1,10.5,139.1,64.5,0.0,0.0,0.0,0,
266600,1863.7,12.0,139.1,64.5,0.0,0.0,0.0,0,
266700,1862.3,9.8,126.5,70.3,0.0,0.0,0.0,0,
266900,1861.8,11.8,106.2,191.4,0.0,0.0,0.0,0,
267000,1861.9,10.3,90.6,177.7,0.0,0.0,0.0,0,
267100,1861.8,10.3,67.0,169.9,0.0,0.0,0.0,0,
267200,1862.6,67.2,35.4,169.9,0.0,0.0,0.0,0,
267300,1881.7,164.8,53.9,35.2,0.0,0.0,0.0,0,
267400,1851.3,155.7,78.9,33.2,0.0,0.0,0.0,0,
267500,1856.6,126.0,97.6,33.2,0.0,0.0,0.0,0,
267600,1864.6,143.1,110.8,33.2,0.0,0.0,0.0,0,
267700,1882.6,157.2,125.3,33.2,0.0,0.0,0.0,0,
267900,1859.0,15.7,143.3,64.5,0.0,0.0,0.0,0,
268000,1862.3,9.4,143.3,64.5,0.0,0.0,0.0,0,
268100,1863.0,11.4,143.2,64.5,0.0,0.0,0.0,0,
268200,1862.5,9.7,143.2,64.5,0.0,0.0,0.0,0,
268300,1861.8,11.1,133.5,74.2,0.0,0.0,0.0,0,
268400,1861.6,11.6,120.2,205.1,0.0,0.0,0.0,0,
268500,1862.6,10.5,105.6,160.2,0.0,0.0,0.0,0,
268600,1861.4,9.8,91.7,177.7,0.0,0.0,0.0,0,
268700,1861.2,12.0,70.6,222.7,0.0,0.0,0.0,0,
268900,1854.3,145.3,46.0,39.1,0.0,0.0,0.0,0,
269000,1866.6,157.0,69.9,33.2,0.0,0.0,0.0,0,
269100,1873.1,175.7,94.3,33.2,0.0,0.0,0.0,0,
269200,1845.0,136.2,113.3,33.2,0.0,0.0,0.0,0,
269300,1856.0,124.8,124.8,33.2,0.0,0.0,0.0,0,
269400,1861.9,137.2,136.6,33.2,0.0,0.0,0.0,0,
269500,1864.1,19.3,142.7,62.5,0.0,0.0,0.0,0,
269600,1861.9,10.8,142.7,62.5,0.0,0.0,0.0,0,
269700,1862.1,9.8,142.7,62.5,0.0,0.0,0.0,0,
269900,1861.5,11.2,135.7,62.5,0.0,0.0,0.0,0,
270000,1862.3,9.9,125.1,216.8,0.0,0.0,0.0,0,
270100,1861.9,10.2,107.9,220.7,0.0,0.0,0.0,0,
270200,1861.8,10.5,87.8,222.7,0.0,0.0,0.0,0,
270300,1862.9,10.0,70.4,195.3,0.0,0.0,0.0,0,
270400,1862.4,10.5,43.3,164.1,0.0,0.0,0.0,0,
270500,1866.9,173.0,52.0,39.1,0.0,0.0,0.0,0,
270600,1843.7,157.8,84.2,33.2,0.0,0.0,0.0,0,
270700,1854.2,193.2,105.1,33.2,0.0,0.0,0.0,0,
270900,1847.9,143.9,139.4,33.2,0.0,0.0,0.0,0,
271000,1851.1,121.3,150.4,33.2,0.0,0.0,0.0,0,
271100,1860.2,24.7,155.9,62.5,0.0,0.0,0.0,0,
271200,1862.4,10.6,155.9,64.5,0.0,0.0,0.0,0,
271300,1861.5,10.0,155.9,62.5,0.0,0.0,0.0,0,
271400,1862.3,12.3,155.9,62.5,0.0,0.0,0.0,0,
271500,1862.6,9.5,147.5,62.5,0.0,0.0,0.0,0,
271600,1861.6,9.8,131.9,164.1,0.0,0.0,0.0,0,
271700,1861.1,11.0,115.9,197.3,0.0,0.0,0.0,0,
271900,1861.5,9.4,71.0,203.1,0.0,0.0,0.0,0,
272000,1862.2,10.1,42.9,175.8,0.0,0.0,0.0,0,
272100,1869.1,161.9,39.4,46.9,0.0,0.0,0.0,0,
272200,1861.0,170.9,73.4,33.2,0.0,0.0,0.0,0,
272300,1844.6,156.4,97.4,33.2,0.0,0.0,0.0,0,
272400,1853.6,142.5,117.3,33.2,0.0,0.0,0.0,0,
272500,1859.5,178.8,136.3,33.2,0.0,0.0,0.0,0,
272600,1877.6,188.2,156.1,64.5,0.0,0.0,0.0,0,
272700,1838.1,33.8,169.9,64.5,0.0,0.0,0.0,0,
272900,1862.1,11.3,170.0,64.5,0.0,0.0,0.0,0,
273000,1862.9,10.3,170.0,66.4,0.0,0.0,0.0,0,
273100,1861.7,9.3,165.8,68.4,0.0,0.0,0.0,0,
273200,1862.4,10.3,153.8,134.8,0.0,0.0,0.0,0,
273300,1862.1,10.9,139.9,152.3,0.0,0.0,0.0,0,
273400,1863.0,10.7,123.6,169.9,0.0,0.0,0.0,0,
273500,1861.4,10.4,102.2,173.8,0.0,0.0,0.0,0,
273600,1862.0,10.1,68.4,177.7,0.0,0.0,0.0,0,
273700,1861.2,128.1,33.1,62.5,0.0,0.0,0.0,0,
273900,1886.1,198.7,91.4,33.2,0.0,0.0,0.0,0,
274000,1844.3,177.4,121.7,33.2,0.0,0.0,0.0,0,
274100,1856.5,143.8,143.8,62.5,0.0,0.0,0.0,0,
274200,1857.5,164.8,164.6,64.5,0.0,0.0,0.0,0,
274300,1859.4,46.3,184.5,64.5,0.0,0.0,0.0,0,
274400,1863.8,13.2,184.5,64.5,0.0,0.0,0.0,0,
274500,1862.5,9.9,184.5,64.5,0.0,0.0,0.0,0,
274600,1862.6,10.1,184.5,66.4,0.0,0.0,0.0,0,
274700,1862.1,11.1,181.9,68.4,0.0,0.0,0.0,0,
274900,1861.6,9.5,160.7,166.0,0.0,0.0,0.0,0,
275000,1862.1,10.2,139.2,162.1,0.0,0.0,0.0,0,
275100,1862.7,9.7,116.2,187.5,0.0,0.0,0.0,0,
275200,1861.9,9.9,84.2,164.1,0.0,0.0,0.0,0,
275300,1884.6,146.6,26.6,115.2,0.0,0.0,0.0,0,
275400,1844.1,134.9,63.3,33.2,0.0,0.0,0.0,0,
275500,1853.5,139.9,81.7,33.2,0.0,0.0,0.0,0,
275600,1864.4,169.6,104.0,33.2,0.0,0.0,0.0,0,
275700,1880.4,168.2,125.9,33.2,0.0,0.0,0.0,0,
275900,1855.1,60.9,163.0,64.5,0.0,0.0,0.0,0,
276000,1865.0,12.1,163.0,64.5,0.0,0.0,0.0,0,
276100,1862.5,9.6,163.0,64.5,0.0,0.0,0.0,0,
276200,1862.6,10.7,163.0,64.5,0.0,0.0,0.0,0,
276300,1862.2,10.8,161.2,66.4,0.0,0.0,0.0,0,
276400,1861.7,9.3,150.7,144.5,0.0,0.0,0.0,0,
276500,1861.9,11.8,141.6,168.0,0.0,0.0,0.0,0,
276600,1861.4,11.5,126.1,166.0,0.0,0.0,0.0,0,
276700,1862.4,9.9,104.2,160.2,0.0,0.0,0.0,0,
276900,1862.6,129.6,12.6,156.3,0.0,0.0,0.0,0,
277000,1877.0,147.1,60.4,33.2,0.0,0.0,0.0,0,
277100,1856.3,165.9,85.4,33.2,0.0,0.0,0.0,0,
277200,1855.3,145.0,110.5,33.2,0.0,0.0,0.0,0,
277300,1860.6,165.7,132.9,33.2,0.0,0.0,0.0,0,
277400,1874.8,215.1,156.1,64.5,0.0,0.0,0.0,0,
277500,1861.1,83.9,181.7,64.5,0.0,0.0,0.0,0,
277600,1854.5,13.1,182.3,64.5,0.0,0.0,0.0,0,
277700,1862.0,11.0,182.3,64.5,0.0,0.0,0.0,0,
277900,1862.3,10.3,182.3,66.4,0.0,0.0,0.0,0,
278000,1861.3,11.5,172.4,80.1,0.0,0.0,0.0,0,
278100,1861.7,12.0,161.5,197.3,0.0,0.0,0.0,0,
278200,1860.9,11.1,145.5,195.3,0.0,0.0,0.0,0,
278300,1860.9,11.3,125.4,185.5,0.0,0.0,0.0,0,
278400,1861.9,10.9,95.0,197.3,0.0,0.0,0.0,0,
278500,1862.0,97.9,18.8,203.1,0.0,0.0,0.0,0,
278600,1860.1,146.7,60.6,35.2,0.0,0.0,0.0,0,
278700,1867.0,204.6,90.4,33.2,0.0,0.0,0.0,0,
278900,1845.0,170.3,152.6,35.2,0.0,0.0,0.0,0,
279000,1861.2,133.8,171.5,64.5,0.0,0.0,0.0,0,
279100,1862.8,115.1,190.0,64.5,0.0,0.0,0.0,0,
279200,1864.3,16.4,196.4,64.5,0.0,0.0,0.0,0,
279300,1862.4,10.2,196.4,64.5,0.0,0.0,0.0,0,
279400,1862.2,10.6,196.4,66.4,0.0,0.0,0.0,0,
279500,1862.6,10.7,196.4,68.4,0.0,0.0,0.0,0,
279600,1862.2,11.2,187.3,82.0,0.0,0.0,0.0,0,
279700,1861.6,9.7,174.8,201.2,0.0,0.0,0.0,0,
279900,1862.0,9.8,124.3,166.0,0.0,0.0,0.0,0,
280000,1861.8,9.3,96.6,177.7,0.0,0.0,0.0,0,
280100,1861.5,79.8,51.2,193.4,0.0,0.0,0.0,0,
280200,1872.5,132.3,53.3,35.2,0.0,0.0,0.0,0,
280300,1853.8,131.9,73.9,33.2,0.0,0.0,0.0,0,
280400,1858.6,183.1,104.7,33.2,0.0,0.0,0.0,0,
280500,1879.4,221.6,135.4,33.2,0.0,0.0,0.0,0,
280600,1860.5,200.4,163.8,64.5,0.0,0.0,0.0,0,
280700,1855.4,164.5,186.4,64.5,0.0,0.0,0.0,0,
280900,1861.7,9.8,193.2,64.5,0.0,0.0,0.0,0,
281000,1862.0,11.3,193.2,66.4,0.0,0.0,0.0,0,
281100,1862.3,10.8,193.2,68.4,0.0,0.0,0.0,0,
281200,1861.5,9.4,186.1,76.2,0.0,0.0,0.0,0,
281300,1860.8,11.6,178.9,169.9,0.0,0.0,0.0,0,
281400,1860.8,11.1,162.8,185.5,0.0,0.0,0.0,0,
281500,1862.0,10.5,138.4,183.6,0.0,0.0,0.0,0,
281600,1861.4,11.4,103.2,173.8,0.0,0.0,0.0,0,
281700,1861.8,35.1,52.2,146.5,0.0,0.0,0.0,0,
281900,1878.1,179.3,74.2,33.2,0.0,0.0,0.0,0,
282000,1846.9,180.9,106.0,33.2,0.0,0.0,0.0,0,
282100,1858.9,146.9,134.0,33.2,0.0,0.0,0.0,0,
282200,1864.5,189.3,156.4,64.5,0.0,0.0,0.0,0,
282300,1889.4,221.4,180.6,64.5,0.0,0.0,0.0,0,
282400,1840.5,21.7,191.0,64.5,0.0,0.0,0.0,0,
282500,1861.2,12.4,190.9,64.5,0.0,0.0,0.0,0,
282600,1862.9,10.3,191.0,66.4,0.0,0.0,0.0,0,
282700,1861.5,9.5,191.0,66.4,0.0,0.0,0.0,0,
282900,1862.0,9.7,176.4,160.2,0.0,0.0,0.0,0,
283000,1861.8,10.5,159.3,136.7,0.0,0.0,0.0,0,
283100,1860.9,11.1,136.7,168.0,0.0,0.0,0.0,0,
283200,1861.5,9.6,110.2,214.8,0.0,0.0,0.0,0,
283300,1862.3,10.2,63.2,158.2,0.0,0.0,0.0,0,
283400,1859.3,118.0,47.0,39.1,0.0,0.0,0.0,0,
283500,1854.2,190.7,70.3,35.2,0.0,0.0,0.0,0,
283600,1875.2,243.1,112.0,35.2,0.0,0.0,0.0,0,
283700,1856.0,217.4,148.3,35.2,0.0,0.0,0.0,0,
283900,1858.5,149.7,194.2,64.5,0.0,0.0,0.0,0,
284000,1865.6,26.6,207.9,64.5,0.0,0.0,0.0,0,
284100,1861.2,11.2,207.9,64.5,0.0,0.0,0.0,0,
284200,1862.1,10.5,207.9,66.4,0.0,0.0,0.0,0,
284300,1862.5,11.5,207.9,68.4,0.0,0.0,0.0,0,
284400,1861.1,9.5,202.9,74.2,0.0,0.0,0.0,0,
284500,1861.3,10.2,196.0,164.1,0.0,0.0,0.0,0,
284600,1862.3,10.4,175.6,169.9,0.0,0.0,0.0,0,
284700,1862.2,10.4,146.3,183.6,0.0,0.0,0.0,0,
284900,1862.3,11.0,75.1,210.9,0.0,0.0,0.0,0,
285000,1880.7,145.5,42.8,56.6,0.0,0.0,0.0,0,
285100,1848.0,156.1,69.8,35.2,0.0,0.0,0.0,0,
285200,1850.8,167.4,107.9,35.2,0.0,0.0,0.0,0,
285300,1857.4,212.6,142.1,37.1,0.0,0.0,0.0,0,
285400,1883.8,220.6,172.7,64.5,0.0,0.0,0.0,0,
285500,1835.1,198.8,198.4,64.5,0.0,0.0,0.0,0,
285600,1856.5,35.0,213.0,64.5,0.0,0.0,0.0,0,
285700,1861.7,11.2,213.0,66.4,0.0,0.0,0.0,0,
285900,1862.3,10.0,213.0,72.3,0.0,0.0,0.0,0,
286000,1862.0,10.0,209.0,84.0,0.0,0.0,0.0,0,
286100,1861.4,11.4,201.6,238.3,0.0,0.0,0.0,0,
286200,1861.1,10.1,184.0,212.9,0.0,0.0,0.0,0,
286300,1861.9,10.8,159.2,142.6,0.0,0.0,0.0,0,
286400,1861.6,12.0,125.3,132.8,0.0,0.0,0.0,0,
286500,1862.7,9.4,78.4,164.1,0.0,0.0,0.0,0,
286600,1858.0,134.2,32.3,62.5,0.0,0.0,0.0,0,
286700,1872.2,135.6,59.9,35.2,0.0,0.0,0.0,0,
286900,1849.8,169.9,121.1,33.2,0.0,0.0,0.0,0,
287000,1857.0,152.4,144.8,62.5,0.0,0.0,0.0,0,
287100,1860.8,218.6,167.1,64.5,0.0,0.0,0.0,0,
287200,1857.9,41.4,187.5,64.5,0.0,0.0,0.0,0,
287300,1864.5,13.0,187.4,64.5,0.0,0.0,0.0,0,
287400,1862.0,10.1,187.4,64.5,0.0,0.0,0.0,0,
287500,1862.9,9.8,187.4,66.4,0.0,0.0,0.0,0,
287600,1861.9,10.8,185.1,68.4,0.0,0.0,0.0,0,
287700,1862.1,10.1,178.0,236.3,0.0,0.0,0.0,0,
287900,1860.9,11.2,143.7,183.6,0.0,0.0,0.0,0,
288000,1862.5,9.7,119.7,189.5,0.0,0.0,0.0,0,
288100,1861.9,10.2,85.9,191.4,0.0,0.0,0.0,0,
288200,1872.5,133.7,30.5,91.8,0.0,0.0,0.0,0,
288300,1853.6,104.1,56.0,33.2,0.0,0.0,0.0,0,
288400,1862.1,170.9,76.5,33.2,0.0,0.0,0.0,0,
288500,1886.8,192.0,108.6,33.2,0.0,0.0,0.0,0,
288600,1846.0,170.1,133.0,37.1,0.0,0.0,0.0,0,
288700,1858.7,144.1,153.7,64.5,0.0,0.0,0.0,0,
288900,1864.2,12.1,172.1,64.5,0.0,0.0,0.0,0,
289000,1861.8,9.9,172.1,64.5,0.0,0.0,0.0,0,
289100,1861.2,11.1,172.1,64.5,0.0,0.0,0.0,0,
289200,1861.7,9.9,169.8,66.4,0.0,0.0,0.0,0,
289300,1861.4,10.7,163.2,166.0,0.0,0.0,0.0,0,
289400,1861.5,10.8,154.6,173.8,0.0,0.0,0.0,0,
289500,1861.3,10.4,134.0,210.9,0.0,0.0,0.0,0,
289600,1861.8,10.1,109.9,209.0,0.0,0.0,0.0,0,
289700,1861.5,10.9,78.4,191.4,0.0,0.0,0.0,0,
289900,1864.1,115.7,53.2,35.2,0.0,0.0,0.0,0,
290000,1858.7,121.6,71.9,33.2,0.0,0.0,0.0,0,
290100,1857.3,147.1,88.8,33.2,0.0,0.0,0.0,0,
290200,1870.0,183.2,114.6,33.2,0.0,0.0,0.0,0,
290300,1881.0,168.6,136.6,56.6,0.0,0.0,0.0,0,
290400,1846.2,64.5,155.5,64.5,0.0,0.0,0.0,0,
290500,1861.4,13.2,155.5,64.5,0.0,0.0,0.0,0,
290600,1862.7,11.8,155.5,64.5,0.0,0.0,0.0,0,
290700,1862.1,10.1,155.5,64.5,0.0,0.0,0.0,0,
290900,1861.8,12.5,146.7,109.4,0.0,0.0,0.0,0,
291000,1861.4,10.6,138.5,191.4,0.0,0.0,0.0,0,
291100,1861.9,10.4,128.3,160.2,0.0,0.0,0.0,0,
291200,1861.9,10.3,105.9,169.9,0.0,0.0,0.0,0,
291300,1861.3,10.7,75.4,216.8,0.0,0.0,0.0,0,
291400,1861.0,95.6,13.0,224.6,0.0,0.0,0.0,0,
291500,1864.7,141.7,54.1,35.2,0.0,0.0,0.0,0,
291600,1882.6,137.1,74.9,33.2,0.0,0.0,0.0,0,
291700,1853.8,173.1,98.1,33.2,0.0,0.0,0.0,0,
291900,1863.6,179.9,143.8,64.5,0.0,0.0,0.0,0,
292000,1881.1,107.2,168.3,64.5,0.0,0.0,0.0,0,
292100,1850.9,16.2,173.7,64.5,0.0,0.0,0.0,0,
292200,1861.4,10.5,173.8,64.5,0.0,0.0,0.0,0,
292300,1862.3,10.2,173.8,64.5,0.0,0.0,0.0,0,
292400,1861.9,11.9,173.8,66.4,0.0,0.0,0.0,0,
292500,1862.2,11.8,165.6,72.3,0.0,0.0,0.0,0,
292600,1861.9,10.0,157.3,193.4,0.0,0.0,0.0,0,
292700,1860.7,11.7,144.0,199.2,0.0,0.0,0.0,0,
292900,1860.9,9.5,98.4,189.5,0.0,0.0,0.0,0,
293000,1861.9,101.4,45.0,136.7,0.0,0.0,0.0,0,
293100,1868.3,129.1,58.9,35.2,0.0,0.0,0.0,0,
293200,1859.8,134.5,77.7,33.2,0.0,0.0,0.0,0,
293300,1872.4,181.1,97.2,33.2,0.0,0.0,0.0,0,
293400,1882.4,196.0,124.9,33.2,0.0,0.0,0.0,0,
293500,1847.8,183.1,151.7,62.5,0.0,0.0,0.0,0,
293600,1863.7,145.7,173.6,64.5,0.0,0.0,0.0,0,
293700,1866.5,16.5,179.8,64.5,0.0,0.0,0.0,0,
293900,1862.2,11.1,179.8,64.5,0.0,0.0,0.0,0,
294000,1862.3,10.0,179.8,64.5,0.0,0.0,0.0,0,
294100,1860.8,10.4,170.4,70.3,0.0,0.0,0.0,0,
294200,1860.9,12.1,162.7,199.2,0.0,0.0,0.0,0,
294300,1862.2,10.0,151.8,156.3,0.0,0.0,0.0,0,
294400,1860.4,10.0,130.0,173.8,0.0,0.0,0.0,0,
294500,1860.9,12.1,97.4,175.8,0.0,0.0,0.0,0,
294600,1861.7,62.7,48.7,154.3,0.0,0.0,0.0,0,
294700,1873.1,127.2,50.1,37.1,0.0,0.0,0.0,0,
294900,1849.7,149.5,99.5,33.2,0.0,0.0,0.0,0,
295000,1858.2,189.0,126.0,33.2,0.0,0.0,0.0,0,
295100,1879.9,231.9,154.4,64.5,0.0,0.0,0.0,0,
295200,1857.7,210.2,180.6,64.5,0.0,0.0,0.0,0,
295300,1856.9,20.6,188.2,64.5,0.0,0.0,0.0,0,
295400,1860.5,12.2,188.2,64.5,0.0,0.0,0.0,0,
295500,1861.6,9.8,188.2,64.5,0.0,0.0,0.0,0,
295600,1860.9,11.2,188.2,64.5,0.0,0.0,0.0,0,
295700,1861.2,11.2,181.8,68.4,0.0,0.0,0.0,0,
295900,1861.1,10.3,160.2,154.3,0.0,0.0,0.0,0,
296000,1861.9,12.5,140.3,189.5,0.0,0.0,0.0,0,
296100,1862.3,11.3,108.4,183.6,0.0,0.0,0.0,0,
