Time(ms),Raw_ADC,ENV_Value,RMS,MDF,MW_Amp,MW_Area,MW_Latency,MW_Valid,Marker
0,1862.7,22.5,0.0,90.1,0.0,0.0,0.0,0,
100,1854.9,11.8,0.0,90.1,0.0,0.0,0.0,0,
200,1860.6,11.6,0.0,90.1,0.0,0.0,0.0,0,
300,1858.8,17.2,0.0,90.1,0.0,0.0,0.0,0,
400,1860.3,11.9,0.0,90.1,0.0,0.0,0.0,0,
509,1855.8,13.5,0.0,80.5,0.0,0.0,0.0,0,
609,1861.1,10.8,0.0,92.8,0.0,0.0,0.0,0,
710,1858.7,145.7,0.0,198.6,0.0,0.0,0.0,0,
810,1849.4,129.8,0.0,56.4,614.0,4103.0,7.0,1,
910,1889.0,154.5,0.0,57.5,614.0,4103.0,7.0,1,
1010,1843.6,39.8,0.0,69.5,610.0,3887.0,6.0,1,
1110,1868.1,85.4,0.0,67.9,610.0,3887.0,6.0,1,
1210,1843.7,94.2,0.0,68.4,585.0,3384.0,3.0,1,
1310,1874.4,57.5,0.0,67.8,585.0,3384.0,3.0,1,
1410,1862.2,16.4,0.0,69.8,585.0,3384.0,3.0,1,
1510,1858.0,13.4,0.0,67.5,585.0,3384.0,3.0,1,
1610,1857.3,12.0,91.1,57.3,585.0,3384.0,3.0,1,
1710,1859.0,15.3,91.1,68.7,585.0,3384.0,3.0,1,
1810,1859.6,10.6,91.1,141.5,585.0,3384.0,3.0,1,
1910,1860.0,11.4,91.0,123.3,585.0,3384.0,3.0,1,
2010,1861.3,12.0,91.0,130.8,585.0,3384.0,3.0,1,
2110,1859.7,9.8,91.0,238.6,585.0,3384.0,3.0,1,
2210,1856.0,11.0,91.0,239.4,585.0,3384.0,3.0,1,
2310,1868.0,83.6,91.3,239.5,585.0,3384.0,3.0,1,
2510,1838.8,96.9,81.3,37.5,788.0,4062.0,6.0,1,
2610,1868.4,87.9,88.7,46.6,788.0,4062.0,6.0,1,
2710,1850.2,131.4,87.4,69.3,864.0,3748.0,5.0,1,
2810,1876.4,39.2,92.6,74.1,1005.0,4028.0,5.0,1,
2910,1842.9,174.2,89.9,84.0,906.0,4179.0,5.0,1,
3010,1856.6,26.1,94.9,71.2,223.0,1054.0,11.0,1,
3110,1862.7,15.6,94.9,50.0,223.0,1054.0,11.0,1,
3210,1863.1,18.3,95.3,43.1,223.0,1054.0,11.0,1,
3310,1860.3,14.6,95.4,51.8,223.0,1054.0,11.0,1,
3510,1860.8,9.9,95.4,106.0,223.0,1054.0,11.0,1,
3611,1859.0,13.9,95.4,164.0,223.0,1054.0,11.0,1,
3711,1859.5,13.0,95.4,204.9,223.0,1054.0,11.0,1,
3811,1859.3,10.0,95.4,107.0,223.0,1054.0,11.0,1,
3911,1861.2,13.4,95.5,106.8,223.0,1054.0,11.0,1,
4011,1860.2,100.2,91.8,90.1,447.0,2666.0,3.0,1,
4111,1854.9,18.7,94.4,57.0,882.0,4153.0,3.0,1,
4211,1867.8,171.2,88.5,52.7,663.0,3232.0,28.0,0,
4311,1848.0,139.2,105.7,51.0,1923.0,4766.0,28.0,0,
4511,1860.3,223.3,134.6,130.5,1842.0,4683.0,28.0,0,
4611,1855.4,26.3,134.0,108.0,403.0,1532.0,17.0,1,
4711,1859.8,16.6,134.0,90.9,403.0,1532.0,17.0,1,
4811,1859.1,12.5,133.8,113.1,403.0,1532.0,17.0,1,
4911,1859.9,11.7,133.7,131.0,403.0,1532.0,17.0,1,
5011,1858.4,13.1,133.7,125.0,403.0,1532.0,17.0,1,
5111,1859.2,10.5,133.6,175.5,403.0,1532.0,17.0,1,
5212,1858.7,9.2,133.6,205.6,403.0,1532.0,17.0,1,
5312,1860.0,10.0,133.6,238.8,403.0,1532.0,17.0,1,
5512,1860.0,11.2,133.5,240.1,403.0,1532.0,17.0,1,
5612,1842.1,25.7,132.2,240.0,369.0,2057.0,2.0,0,
5712,1890.1,125.9,134.1,131.2,684.0,2741.0,2.0,0,
5812,1830.9,206.3,152.2,44.4,1000.0,3600.0,2.0,0,
5912,1873.1,196.4,148.7,48.4,989.0,3242.0,3.0,1,
6012,1853.5,234.9,152.7,163.8,1867.0,4684.0,2.0,0,
6112,1877.1,165.6,140.6,230.8,1078.0,3406.0,2.0,0,
6212,1852.4,36.7,138.0,230.7,1176.0,3532.0,2.0,0,
6312,1859.7,14.8,138.0,217.5,1176.0,3532.0,2.0,0,
6512,1858.2,13.1,138.0,39.9,1176.0,3532.0,2.0,0,
6612,1860.6,21.4,138.0,109.7,1176.0,3532.0,2.0,0,
6712,1859.1,11.9,138.0,238.0,1176.0,3532.0,2.0,0,
6812,1860.1,13.6,138.1,101.3,1176.0,3532.0,2.0,0,
6912,1861.1,14.1,138.1,82.4,1176.0,3532.0,2.0,0,
7012,1859.5,11.1,138.1,94.1,1176.0,3532.0,2.0,0,
7112,1858.5,16.1,138.1,122.6,1176.0,3532.0,2.0,0,
7212,1870.8,30.3,138.4,184.9,440.0,2380.0,2.0,0,
7312,1840.0,67.0,136.0,53.7,913.0,4097.0,3.0,1,
7512,1845.0,206.3,142.6,36.0,995.0,3486.0,2.0,0,
7612,1882.8,192.4,133.8,100.2,1062.0,3512.0,2.0,0,
7712,1833.7,166.2,141.7,196.6,1029.0,3097.0,2.0,0,
7812,1875.2,48.2,139.0,232.6,1136.0,3582.0,2.0,0,
7912,1860.4,22.2,139.0,225.7,1136.0,3582.0,2.0,0,
8012,1860.0,14.0,139.0,157.7,1136.0,3582.0,2.0,0,
8112,1859.9,14.8,139.1,37.9,1136.0,3582.0,2.0,0,
8212,1859.1,14.7,139.1,117.1,1136.0,3582.0,2.0,0,
8312,1859.9,15.5,139.1,115.3,1136.0,3582.0,2.0,0,
8512,1859.2,13.7,139.2,84.4,1136.0,3582.0,2.0,0,
8612,1860.0,14.1,139.2,91.3,1136.0,3582.0,2.0,0,
8712,1858.7,14.2,139.2,103.1,1136.0,3582.0,2.0,0,
8812,1865.1,88.8,139.4,94.6,1136.0,3582.0,2.0,0,
8912,1852.6,36.0,141.8,66.5,743.0,4009.0,3.0,1,
9012,1887.5,134.9,140.3,55.9,910.0,3032.0,3.0,1,
9112,1840.2,225.7,129.5,55.9,1988.0,4608.0,2.0,0,
9212,1852.4,178.6,137.7,56.2,1089.0,3628.0,2.0,0,
9312,1867.5,260.2,132.4,189.1,2053.0,4662.0,2.0,0,
9512,1860.8,13.9,139.7,204.2,2053.0,4662.0,2.0,0,
9612,1858.2,23.4,139.7,187.5,2053.0,4662.0,2.0,0,
9712,1860.9,14.8,139.7,134.3,2053.0,4662.0,2.0,0,
9812,1858.7,13.6,139.6,91.9,2053.0,4662.0,2.0,0,
9912,1860.0,16.0,139.6,109.4,2053.0,4662.0,2.0,0,
10012,1857.3,10.7,139.7,111.0,2053.0,4662.0,2.0,0,
10112,1858.5,9.6,139.6,138.0,2053.0,4662.0,2.0,0,
10212,1857.6,10.8,139.6,151.8,2053.0,4662.0,2.0,0,
10312,1858.3,12.2,139.6,187.4,2053.0,4662.0,2.0,0,
10512,1869.8,78.5,139.3,87.0,430.0,2652.0,3.0,1,
10612,1842.8,26.3,140.1,56.9,828.0,3594.0,3.0,1,
10712,1866.7,246.3,142.0,56.2,723.0,2620.0,28.0,0,
10812,1842.6,263.4,143.2,37.7,1867.0,4332.0,2.0,0,
10912,1892.3,173.2,141.6,37.3,993.0,3205.0,2.0,0,
11012,1828.9,170.8,142.9,194.9,1095.0,3136.0,2.0,0,
11112,1862.0,24.7,142.6,231.1,1095.0,3136.0,2.0,0,
11212,1860.5,14.0,142.8,187.1,1095.0,3136.0,2.0,0,
11312,1856.5,10.0,142.7,163.2,1095.0,3136.0,2.0,0,
11512,1858.7,13.0,142.7,140.9,1095.0,3136.0,2.0,0,
11612,1860.0,9.9,142.7,155.4,1095.0,3136.0,2.0,0,
11712,1860.8,9.4,142.6,174.1,1095.0,3136.0,2.0,0,
11812,1860.8,12.7,142.6,217.3,1095.0,3136.0,2.0,0,
11912,1860.5,10.9,142.6,239.4,1095.0,3136.0,2.0,0,
12012,1857.8,11.5,142.6,239.8,1095.0,3136.0,2.0,0,
12112,1842.1,50.6,141.4,239.3,419.0,2397.0,3.0,1,
12212,1875.5,58.5,140.4,68.1,419.0,2397.0,3.0,1,
12312,1858.7,96.5,135.7,66.2,844.0,3988.0,3.0,1,
12512,1840.7,190.8,129.6,67.3,1026.0,3236.0,2.0,0,
12612,1875.3,215.6,122.3,66.5,996.0,3522.0,2.0,0,
12712,1859.7,25.2,120.2,130.2,1129.0,3239.0,2.0,0,
12812,1860.3,17.1,119.9,158.7,1129.0,3239.0,2.0,0,
12912,1859.2,15.4,119.9,90.0,1129.0,3239.0,2.0,0,
13012,1862.2,10.8,119.9,88.9,1129.0,3239.0,2.0,0,
13112,1860.0,13.7,119.9,116.2,1129.0,3239.0,2.0,0,
13212,1859.8,10.9,119.9,189.0,1129.0,3239.0,2.0,0,
13312,1857.4,10.4,119.9,238.0,1129.0,3239.0,2.0,0,
13512,1858.1,10.3,119.9,239.7,1129.0,3239.0,2.0,0,
13612,1861.5,11.6,119.9,240.1,1129.0,3239.0,2.0,0,
13712,1854.7,47.3,122.2,72.4,586.0,3634.0,3.0,1,
13812,1869.2,58.6,120.1,45.9,397.0,2453.0,2.0,0,
13912,1852.7,44.5,122.4,46.5,535.0,3023.0,5.0,1,
14012,1851.2,144.4,116.8,56.4,927.0,3103.0,2.0,0,
14112,1868.4,281.0,106.0,67.9,1974.0,4422.0,2.0,0,
14212,1865.8,185.6,121.1,71.0,1085.0,3314.0,2.0,0,
14312,1848.5,31.1,117.3,158.5,994.0,3822.0,2.0,0,
14512,1860.2,14.8,117.4,131.2,994.0,3822.0,2.0,0,
14613,1858.2,12.1,117.4,37.7,994.0,3822.0,2.0,0,
14713,1860.4,13.8,117.3,114.3,994.0,3822.0,2.0,0,
14813,1858.0,16.6,117.4,137.3,994.0,3822.0,2.0,0,
14913,1857.9,12.1,117.7,114.6,994.0,3822.0,2.0,0,rest_end
15013,1856.2,11.1,117.7,73.9,994.0,3822.0,2.0,0,
15113,1859.1,12.5,117.7,67.7,994.0,3822.0,2.0,0,
15213,1859.5,10.5,117.7,84.3,994.0,3822.0,2.0,0,
15313,1871.8,83.9,118.1,227.0,994.0,3822.0,2.0,0,
15513,1858.8,91.7,116.2,37.0,385.0,2648.0,9.0,1,
15613,1851.7,31.4,117.0,37.5,570.0,3004.0,5.0,1,
15713,1872.7,127.8,108.5,54.4,980.0,3588.0,3.0,1,
15813,1840.3,250.5,103.6,55.2,1875.0,5077.0,2.0,0,
15913,1863.8,56.5,111.2,93.1,1089.0,3961.0,2.0,0,
16013,1857.4,32.1,111.3,157.4,1089.0,3961.0,2.0,0,
16113,1861.8,25.0,111.7,158.7,1089.0,3961.0,2.0,0,
16213,1861.3,16.1,111.9,125.0,1089.0,3961.0,2.0,0,
16313,1861.4,15.1,111.9,84.7,1089.0,3961.0,2.0,0,
16513,1860.2,11.1,111.6,92.5,1089.0,3961.0,2.0,0,
16613,1859.3,10.5,111.6,238.7,1089.0,3961.0,2.0,0,
16713,1857.3,11.9,111.7,238.6,1089.0,3961.0,2.0,0,
16813,1859.1,10.1,111.7,100.7,1089.0,3961.0,2.0,0,
16913,1849.7,78.0,109.8,102.7,494.0,3474.0,6.0,1,
17013,1872.5,48.1,111.4,68.0,494.0,3474.0,6.0,1,
17113,1860.1,19.2,111.0,38.3,510.0,3034.0,6.0,1,
17213,1861.4,216.6,124.5,36.9,1308.0,4331.0,2.0,0,
17313,1842.8,202.3,141.4,35.7,982.0,3955.0,2.0,0,
17513,1845.1,102.0,139.6,198.8,1020.0,3966.0,2.0,0,
17613,1860.9,18.7,139.6,231.2,1020.0,3966.0,2.0,0,
17713,1859.2,12.0,139.2,188.5,1020.0,3966.0,2.0,0,
17813,1860.1,12.3,139.1,164.8,1020.0,3966.0,2.0,0,
17913,1861.8,11.7,139.0,117.5,1020.0,3966.0,2.0,0,
18013,1858.8,10.0,139.0,132.3,1020.0,3966.0,2.0,0,
18113,1859.9,9.7,139.0,229.3,1020.0,3966.0,2.0,0,
18213,1857.8,10.2,139.0,238.3,1020.0,3966.0,2.0,0,
18313,1859.2,10.3,139.0,239.7,1020.0,3966.0,2.0,0,
18513,1865.0,25.9,139.0,240.0,1020.0,3966.0,2.0,0,
18613,1848.4,69.8,137.7,185.5,424.0,2851.0,3.0,1,
18713,1857.0,29.1,138.9,67.8,344.0,2282.0,6.0,1,
18813,1850.6,123.1,131.9,66.9,424.0,2946.0,6.0,1,
18913,1856.2,259.4,133.6,68.4,1743.0,4605.0,2.0,0,
19013,1881.4,204.3,134.4,39.1,982.0,3836.0,2.0,0,
19113,1841.4,172.0,131.5,43.8,1053.0,3643.0,2.0,0,
19213,1861.8,21.0,131.1,159.0,1053.0,3643.0,2.0,0,
19313,1861.6,17.0,131.1,149.6,1053.0,3643.0,2.0,0,
19513,1859.0,10.5,131.1,93.5,1053.0,3643.0,2.0,0,
19613,1860.8,11.3,131.0,100.0,1053.0,3643.0,2.0,0,
19713,1861.7,9.0,131.0,239.4,1053.0,3643.0,2.0,0,
19813,1859.3,10.1,131.0,239.8,1053.0,3643.0,2.0,0,
19913,1858.9,10.8,131.0,239.8,1053.0,3643.0,2.0,0,
20013,1859.0,11.7,131.0,239.5,1053.0,3643.0,2.0,0,
20113,1860.5,57.4,131.0,239.5,1053.0,3643.0,2.0,0,
20213,1847.2,22.7,132.6,55.6,370.0,2417.0,6.0,1,
20313,1870.0,82.5,131.4,50.2,378.0,2384.0,7.0,1,
20513,1867.5,204.0,132.9,51.1,1057.0,3700.0,2.0,0,
20613,1838.2,218.9,135.3,36.3,1255.0,4117.0,2.0,0,
20713,1873.0,219.1,127.8,71.1,1079.0,4057.0,3.0,1,
20813,1866.0,25.2,125.8,190.4,1074.0,3448.0,2.0,0,
20913,1859.2,16.6,125.9,195.6,1074.0,3448.0,2.0,0,
21013,1860.2,12.1,125.9,44.9,1074.0,3448.0,2.0,0,
21113,1861.4,10.3,125.9,39.6,1074.0,3448.0,2.0,0,
21213,1861.9,10.8,125.9,102.0,1074.0,3448.0,2.0,0,
21313,1859.9,10.2,125.9,117.5,1074.0,3448.0,2.0,0,
21513,1858.7,10.8,125.9,239.6,1074.0,3448.0,2.0,0,
21613,1859.4,10.1,125.9,239.6,1074.0,3448.0,2.0,0,
21713,1860.8,10.0,125.9,239.9,1074.0,3448.0,2.0,0,
21813,1868.7,50.3,126.6,73.1,1074.0,3448.0,2.0,0,
21913,1857.5,53.3,126.1,39.0,397.0,2542.0,6.0,1,
22013,1862.8,39.5,127.4,39.6,500.0,3246.0,6.0,1,
22113,1840.4,104.6,115.5,53.8,631.0,3907.0,6.0,1,
22213,1874.6,262.8,110.0,66.1,1420.0,4550.0,2.0,0,
22313,1865.2,159.0,116.3,43.4,1005.0,4352.0,3.0,1,
22513,1862.0,18.4,116.1,133.5,1005.0,4352.0,3.0,1,
22613,1861.1,17.2,116.0,132.2,1005.0,4352.0,3.0,1,
22713,1861.4,11.5,116.0,37.8,1005.0,4352.0,3.0,1,
22813,1859.0,10.2,116.1,92.5,1005.0,4352.0,3.0,1,
22913,1861.3,10.8,116.1,239.0,1005.0,4352.0,3.0,1,
23013,1859.8,12.0,116.1,239.9,1005.0,4352.0,3.0,1,
23113,1860.5,10.0,116.1,239.9,1005.0,4352.0,3.0,1,
23213,1860.7,10.0,116.0,239.9,1005.0,4352.0,3.0,1,
23313,1859.5,10.4,116.1,240.1,1005.0,4352.0,3.0,1,
23513,1854.2,25.6,118.9,39.3,407.0,2761.0,6.0,1,
23613,1852.6,94.9,117.0,37.5,329.0,2429.0,6.0,1,
23713,1859.3,35.2,119.3,37.7,469.0,2738.0,6.0,1,
23813,1875.8,188.2,118.2,50.4,609.0,2767.0,28.0,0,
23913,1840.4,254.8,118.7,40.9,1983.0,5434.0,2.0,0,
24013,1859.7,52.5,123.1,38.2,1008.0,4020.0,3.0,1,
24113,1860.3,25.4,123.1,133.9,1008.0,4020.0,3.0,1,
24213,1858.8,9.9,123.2,165.7,1008.0,4020.0,3.0,1,
24313,1859.2,10.9,123.2,153.8,1008.0,4020.0,3.0,1,
24513,1859.2,12.4,123.2,125.9,1008.0,4020.0,3.0,1,
24613,1860.7,10.3,123.2,144.7,1008.0,4020.0,3.0,1,
24713,1859.8,11.0,123.2,238.6,1008.0,4020.0,3.0,1,
24813,1860.3,12.5,123.2,239.9,1008.0,4020.0,3.0,1,
24913,1860.5,13.9,123.2,239.7,1008.0,4020.0,3.0,1,
25013,1838.9,48.0,121.2,239.4,547.0,3973.0,5.0,1,
25113,1880.9,84.3,120.4,78.9,503.0,3304.0,4.0,1,
25213,1866.4,29.7,120.3,51.6,908.0,4639.0,3.0,1,
25313,1855.4,152.1,122.8,55.9,903.0,3642.0,3.0,1,
25513,1873.5,243.0,128.2,104.9,1125.0,4066.0,3.0,1,
25613,1847.6,97.3,131.1,197.3,1176.0,4131.0,2.0,0,
25713,1859.4,30.4,131.1,226.5,1176.0,4131.0,2.0,0,
25813,1861.4,12.1,131.2,165.8,1176.0,4131.0,2.0,0,
25913,1859.3,9.7,131.2,157.5,1176.0,4131.0,2.0,0,
26013,1860.3,14.0,131.3,130.5,1176.0,4131.0,2.0,0,
26113,1858.5,9.6,131.3,109.5,1176.0,4131.0,2.0,0,
26213,1858.4,10.6,131.3,85.6,1176.0,4131.0,2.0,0,
26313,1859.1,9.8,131.3,108.7,1176.0,4131.0,2.0,0,
26513,1859.1,10.5,131.3,240.2,1176.0,4131.0,2.0,0,
26613,1869.6,31.5,131.1,240.2,1176.0,4131.0,2.0,0,
26713,1844.1,62.8,130.3,199.3,394.0,2180.0,3.0,1,
26813,1863.0,32.8,130.9,67.9,783.0,3879.0,3.0,1,
26913,1846.4,108.6,127.8,66.6,1016.0,4834.0,3.0,1,
27013,1869.0,189.3,116.1,66.2,1083.0,4325.0,3.0,1,
27113,1868.5,160.6,126.2,69.3,1097.0,4139.0,2.0,0,
27213,1851.4,164.1,114.2,158.8,1205.0,3774.0,2.0,0,
27313,1865.1,22.1,114.2,199.0,1205.0,3774.0,2.0,0,
27513,1860.2,11.6,114.2,51.5,1205.0,3774.0,2.0,0,
27613,1858.8,15.3,114.1,85.8,1205.0,3774.0,2.0,0,
27713,1862.4,9.8,114.1,130.7,1205.0,3774.0,2.0,0,
27813,1859.7,12.1,114.1,147.4,1205.0,3774.0,2.0,0,
27913,1868.9,11.9,114.0,209.4,1205.0,3774.0,2.0,0,
28013,1868.0,12.9,113.8,151.0,1205.0,3774.0,2.0,0,
28113,1869.8,11.7,113.7,116.2,1205.0,3774.0,2.0,0,
28213,1860.5,13.0,113.7,221.0,1205.0,3774.0,2.0,0,
28313,1839.7,22.2,114.0,178.3,448.0,2949.0,2.0,0,
28513,1871.1,214.9,134.5,66.0,1136.0,5177.0,3.0,1,
28613,1843.9,179.7,142.9,94.1,1342.0,5121.0,3.0,1,
28713,1851.0,271.0,141.7,167.4,2061.0,5580.0,2.0,0,
28813,1865.4,220.8,150.5,228.4,1239.0,4421.0,3.0,1,
28913,1867.9,22.4,147.2,229.0,1251.0,4692.0,3.0,1,
29013,1867.3,11.6,146.9,186.0,1251.0,4692.0,3.0,1,
29113,1861.6,9.0,146.9,66.4,1251.0,4692.0,3.0,1,
29213,1864.5,9.8,146.7,35.7,1251.0,4692.0,3.0,1,
29313,1862.9,10.3,146.7,238.1,1251.0,4692.0,3.0,1,
29513,1862.8,9.9,146.7,239.7,1251.0,4692.0,3.0,1,
29613,1861.6,9.4,146.8,239.7,1251.0,4692.0,3.0,1,
29713,1860.8,9.0,147.0,239.7,1251.0,4692.0,3.0,1,
29813,1860.7,10.7,147.0,240.0,1251.0,4692.0,3.0,1,
29913,1870.1,54.0,149.1,57.4,1251.0,4692.0,3.0,1,
30013,1847.3,34.4,148.5,38.4,926.0,4825.0,4.0,1,
30113,1858.2,216.5,143.9,38.6,1104.0,4864.0,3.0,1,
30213,1842.1,221.4,148.8,43.3,1114.0,4235.0,3.0,1,
30313,1862.7,227.9,149.4,157.4,1314.0,5125.0,3.0,1,
30513,1845.3,33.5,150.3,230.1,1304.0,4948.0,3.0,1,
30613,1865.6,21.0,150.6,198.0,1304.0,4948.0,3.0,1,
30713,1869.9,9.5,150.5,135.6,1304.0,4948.0,3.0,1,
30813,1863.9,8.8,150.5,73.0,1304.0,4948.0,3.0,1,
30913,1860.9,10.2,150.6,106.6,1304.0,4948.0,3.0,1,
31013,1859.8,10.0,150.6,238.1,1304.0,4948.0,3.0,1,
31113,1854.8,11.0,150.7,239.8,1304.0,4948.0,3.0,1,
31213,1857.0,9.5,150.8,239.8,1304.0,4948.0,3.0,1,
31313,1860.4,10.5,150.8,240.1,1304.0,4948.0,3.0,1,
31513,1869.3,78.8,151.8,188.7,1304.0,4948.0,3.0,1,
31613,1846.8,20.4,151.4,39.8,401.0,2518.0,3.0,1,
31713,1860.2,318.5,154.2,38.8,860.0,3595.0,28.0,0,
31813,1862.0,252.3,161.4,38.8,2173.0,6434.0,2.0,0,
31913,1862.2,155.5,162.4,38.5,1185.0,4757.0,3.0,1,
32013,1840.5,217.0,154.3,124.3,1576.0,5458.0,2.0,0,
32113,1869.4,46.3,153.8,229.2,1172.0,4613.0,3.0,1,
32213,1859.6,12.3,153.5,228.3,1172.0,4613.0,3.0,1,
32313,1861.1,9.0,153.7,194.8,1172.0,4613.0,3.0,1,
32513,1858.8,9.2,153.8,156.8,1172.0,4613.0,3.0,1,
32613,1857.4,11.1,153.9,239.5,1172.0,4613.0,3.0,1,
32713,1857.4,11.1,153.8,240.1,1172.0,4613.0,3.0,1,
32813,1856.9,9.8,153.8,240.4,1172.0,4613.0,3.0,1,
32913,1860.0,7.1,153.8,240.0,1172.0,4613.0,3.0,1,
33013,1859.9,9.3,153.8,239.8,1172.0,4613.0,3.0,1,
33113,1850.3,89.4,152.0,239.9,508.0,3500.0,4.0,1,
33213,1879.6,49.7,152.7,38.8,508.0,3500.0,4.0,1,
33313,1848.7,68.2,150.8,36.8,398.0,2419.0,6.0,1,
33513,1832.8,116.7,106.3,67.1,1183.0,5949.0,6.0,1,
33613,1874.1,252.7,106.1,66.2,1421.0,5474.0,2.0,0,
33713,1846.7,84.9,108.5,56.7,1244.0,4734.0,3.0,1,
33813,1858.9,14.9,108.5,94.5,1244.0,4734.0,3.0,1,
33913,1861.0,10.8,108.5,158.6,1244.0,4734.0,3.0,1,
34013,1860.6,9.8,108.5,188.1,1244.0,4734.0,3.0,1,
34113,1858.8,11.5,108.5,195.4,1244.0,4734.0,3.0,1,
34213,1861.2,10.4,108.4,239.8,1244.0,4734.0,3.0,1,
34313,1858.8,10.7,108.4,239.8,1244.0,4734.0,3.0,1,
34513,1860.9,9.8,108.4,240.2,1244.0,4734.0,3.0,1,
34613,1860.4,10.9,108.4,240.2,1244.0,4734.0,3.0,1,
34713,1864.2,32.3,108.4,240.1,1244.0,4734.0,3.0,1,
34813,1854.8,68.6,107.5,220.8,501.0,2942.0,3.0,1,
34913,1849.0,33.8,109.5,73.0,489.0,2870.0,6.0,1,
35013,1857.9,137.2,104.9,68.6,711.0,3747.0,4.0,1,
35113,1855.7,281.2,128.8,45.7,1669.0,5746.0,22.0,1,
35213,1873.0,251.7,143.9,39.1,876.0,4962.0,27.0,0,
35313,1830.9,164.1,140.6,68.0,1700.0,5581.0,27.0,0,
35513,1862.0,11.8,140.4,86.3,1700.0,5581.0,27.0,0,
35613,1862.4,10.6,140.4,94.4,1700.0,5581.0,27.0,0,
35713,1860.9,8.8,140.4,100.2,1700.0,5581.0,27.0,0,
35813,1860.8,10.6,140.4,239.3,1700.0,5581.0,27.0,0,
35913,1857.1,10.6,140.4,239.8,1700.0,5581.0,27.0,0,
36013,1858.1,11.2,140.3,239.9,1700.0,5581.0,27.0,0,
36113,1860.6,11.2,140.3,240.1,1700.0,5581.0,27.0,0,
36213,1859.1,11.8,140.3,240.2,1700.0,5581.0,27.0,0,
36313,1859.8,9.9,140.3,240.1,1700.0,5581.0,27.0,0,
36513,1873.5,87.1,138.4,66.1,358.0,2067.0,2.0,0,
36613,1866.2,132.2,138.6,65.7,849.0,4670.0,6.0,1,
36713,1851.6,148.3,131.1,48.7,1141.0,4574.0,2.0,0,
36813,1837.3,185.4,119.3,36.3,1150.0,5129.0,3.0,1,
36913,1880.1,248.1,112.2,43.2,1201.0,4607.0,2.0,0,
37013,1860.2,22.5,109.7,163.8,1205.0,4547.0,2.0,0,
37113,1864.1,13.3,109.7,133.9,1205.0,4547.0,2.0,0,
37213,1868.5,12.8,109.6,36.9,1205.0,4547.0,2.0,0,
37313,1863.6,11.4,109.6,39.3,1205.0,4547.0,2.0,0,
37513,1864.8,11.1,109.5,196.1,1205.0,4547.0,2.0,0,
37613,1872.6,11.5,109.4,238.4,1205.0,4547.0,2.0,0,
37713,1864.8,9.7,109.3,239.5,1205.0,4547.0,2.0,0,
37813,1862.0,10.0,109.3,239.9,1205.0,4547.0,2.0,0,
37913,1857.5,16.9,109.3,239.9,1205.0,4547.0,2.0,0,
38013,1847.3,74.9,114.4,67.0,1205.0,4547.0,2.0,0,
38113,1848.5,53.9,113.7,39.8,856.0,4984.0,3.0,1,
38213,1847.1,208.2,124.6,40.2,1596.0,5401.0,2.0,0,
38313,1842.3,208.3,130.9,43.3,1051.0,4579.0,3.0,1,
38513,1874.4,149.5,135.3,235.1,1003.0,4245.0,2.0,0,
38613,1842.4,32.4,133.0,254.1,1035.0,3578.0,2.0,0,
38713,1856.9,11.7,133.0,228.6,1035.0,3578.0,2.0,0,
38813,1858.3,11.5,133.2,134.6,1035.0,3578.0,2.0,0,
38913,1863.1,9.0,133.2,36.1,1035.0,3578.0,2.0,0,
39013,1863.6,10.7,133.3,156.4,1035.0,3578.0,2.0,0,
39113,1862.9,11.4,133.3,240.1,1035.0,3578.0,2.0,0,
39213,1861.0,10.5,133.5,240.0,1035.0,3578.0,2.0,0,
39313,1859.3,10.8,133.6,240.1,1035.0,3578.0,2.0,0,
39513,1859.3,10.5,133.7,240.0,1035.0,3578.0,2.0,0,
39613,1866.9,60.9,129.7,239.8,506.0,3345.0,4.0,1,
39713,1843.3,35.7,130.3,66.3,412.0,2506.0,6.0,1,
39813,1861.9,35.1,123.7,45.8,763.0,4737.0,6.0,1,
39913,1873.1,217.3,118.3,46.8,1439.0,5719.0,3.0,1,
40013,1862.6,196.8,126.5,94.6,979.0,4401.0,2.0,0,
40113,1831.4,212.2,125.3,155.4,1149.0,5300.0,28.0,0,
40213,1872.1,51.7,125.2,187.6,1071.0,4107.0,2.0,0,
40313,1857.1,15.1,125.2,231.0,1071.0,4107.0,2.0,0,
40513,1856.8,12.1,125.3,100.5,1071.0,4107.0,2.0,0,
40613,1860.7,10.2,125.4,132.5,1071.0,4107.0,2.0,0,
40713,1862.1,9.9,125.4,239.5,1071.0,4107.0,2.0,0,
40813,1861.8,10.9,125.4,239.8,1071.0,4107.0,2.0,0,
40913,1862.0,10.1,125.3,239.9,1071.0,4107.0,2.0,0,
41013,1858.7,11.4,125.3,239.7,1071.0,4107.0,2.0,0,
41113,1857.0,10.1,125.4,239.8,1071.0,4107.0,2.0,0,
41213,1852.0,33.1,125.5,239.7,450.0,3145.0,7.0,1,
41313,1876.3,79.8,125.5,70.5,394.0,2360.0,3.0,1,
41513,1850.5,145.5,124.2,47.2,724.0,4191.0,5.0,1,
41613,1846.9,111.3,113.7,46.0,809.0,4509.0,5.0,1,
41713,1873.2,151.7,99.8,46.4,909.0,4839.0,4.0,1,
41813,1847.5,34.0,80.1,44.6,918.0,5227.0,6.0,1,
41913,1858.4,11.7,80.1,38.1,918.0,5227.0,6.0,1,
42013,1862.8,10.9,80.1,28.2,918.0,5227.0,6.0,1,
42113,1862.9,8.9,80.2,30.2,918.0,5227.0,6.0,1,
42213,1865.6,10.2,80.2,154.2,918.0,5227.0,6.0,1,
42313,1863.2,10.0,80.2,240.0,918.0,5227.0,6.0,1,
42513,1861.4,9.4,80.2,239.9,918.0,5227.0,6.0,1,
42613,1860.7,11.7,80.2,239.9,918.0,5227.0,6.0,1,
42713,1859.9,10.8,80.2,239.9,918.0,5227.0,6.0,1,
42813,1868.8,37.5,80.1,240.0,557.0,3676.0,4.0,1,
42913,1846.4,35.3,79.5,134.9,493.0,2975.0,6.0,1,
43013,1854.3,42.5,80.2,66.6,462.0,3218.0,6.0,1,
43113,1854.2,56.8,85.8,65.9,669.0,4309.0,5.0,1,
43213,1869.5,252.3,99.2,45.9,1397.0,5032.0,27.0,0,
43313,1866.5,200.1,118.5,35.7,1064.0,4347.0,28.0,0,
43513,1862.4,18.1,129.3,132.3,1064.0,4347.0,28.0,0,
43613,1859.3,10.9,129.4,172.4,1064.0,4347.0,28.0,0,
43713,1861.6,10.0,129.4,169.6,1064.0,4347.0,28.0,0,
43813,1861.2,8.9,129.4,195.7,1064.0,4347.0,28.0,0,
43913,1862.5,10.1,129.5,239.3,1064.0,4347.0,28.0,0,
44013,1860.2,8.7,129.5,239.9,1064.0,4347.0,28.0,0,
44113,1859.7,10.7,129.5,240.0,1064.0,4347.0,28.0,0,
44213,1860.3,8.4,129.5,239.8,1064.0,4347.0,28.0,0,
44313,1861.4,9.7,129.5,240.1,1064.0,4347.0,28.0,0,
44513,1842.0,171.0,130.3,55.5,633.0,4153.0,5.0,1,
44613,1874.4,115.3,135.1,44.4,598.0,3963.0,6.0,1,
44713,1864.8,249.7,148.6,39.2,1375.0,4853.0,26.0,0,
44813,1851.0,226.6,155.3,39.0,775.0,3686.0,27.0,0,
44913,1840.3,281.7,156.4,47.3,1162.0,4155.0,27.0,0,
45013,1871.8,274.9,159.2,133.4,991.0,3967.0,2.0,0,
45113,1861.8,24.9,160.2,226.7,793.0,3688.0,2.0,0,
45213,1855.1,12.5,160.3,130.9,793.0,3688.0,2.0,0,
45313,1858.7,9.4,160.4,35.6,793.0,3688.0,2.0,0,
45513,1861.2,9.6,160.4,184.4,793.0,3688.0,2.0,0,
45613,1861.2,9.7,160.4,239.9,793.0,3688.0,2.0,0,
45713,1862.3,8.7,160.3,240.0,793.0,3688.0,2.0,0,
45813,1859.7,10.1,160.3,240.0,793.0,3688.0,2.0,0,
45913,1861.1,11.7,160.3,240.0,793.0,3688.0,2.0,0,
46013,1861.7,9.5,160.3,240.1,793.0,3688.0,2.0,0,
46113,1874.1,69.4,161.0,198.6,542.0,3924.0,6.0,1,
46213,1845.7,36.9,155.9,40.3,434.0,2822.0,5.0,1,
46313,1862.1,70.0,145.8,40.8,550.0,3223.0,6.0,1,
46513,1875.5,231.4,117.7,47.8,1095.0,3956.0,28.0,0,
46613,1869.1,214.7,118.6,36.9,1136.0,3904.0,27.0,0,
46713,1846.8,33.6,115.9,36.1,1119.0,3954.0,2.0,0,
46813,1856.3,14.8,116.0,92.0,1119.0,3954.0,2.0,0,
46913,1856.8,10.5,116.0,72.4,1119.0,3954.0,2.0,0,
47013,1862.0,9.9,116.0,38.0,1119.0,3954.0,2.0,0,
47113,1862.0,9.6,116.0,85.2,1119.0,3954.0,2.0,0,
47213,1861.7,9.9,115.9,239.7,1119.0,3954.0,2.0,0,
47313,1861.4,9.4,115.9,240.1,1119.0,3954.0,2.0,0,
47513,1859.5,9.7,116.0,239.9,1119.0,3954.0,2.0,0,
47613,1859.8,9.1,116.0,239.8,1119.0,3954.0,2.0,0,
47713,1866.7,56.2,116.3,239.4,518.0,3588.0,5.0,1,
47813,1863.6,34.4,117.0,28.5,351.0,2309.0,6.0,1,
47913,1862.5,42.4,117.0,29.6,412.0,2508.0,8.0,1,
48013,1874.8,91.1,120.8,38.5,721.0,4115.0,5.0,1,
48113,1847.0,46.4,116.0,47.5,1044.0,4784.0,5.0,1,
48213,1851.7,262.6,102.1,43.9,1545.0,4393.0,27.0,0,
48313,1855.8,46.4,103.8,41.3,1061.0,4197.0,2.0,0,
48513,1856.5,9.6,103.6,94.6,1061.0,4197.0,2.0,0,
48613,1861.9,9.8,103.6,130.5,1061.0,4197.0,2.0,0,
48713,1860.1,7.9,103.7,194.5,1061.0,4197.0,2.0,0,
48813,1861.9,10.8,103.7,240.1,1061.0,4197.0,2.0,0,
48913,1860.3,10.6,103.7,240.0,1061.0,4197.0,2.0,0,
49013,1860.2,8.5,103.7,239.8,1061.0,4197.0,2.0,0,
49113,1862.1,9.7,103.7,239.7,1061.0,4197.0,2.0,0,
49213,1860.4,9.8,103.7,239.7,1061.0,4197.0,2.0,0,
49313,1848.3,49.3,100.9,239.6,509.0,3614.0,6.0,1,
49513,1850.5,55.9,103.2,67.3,589.0,3722.0,6.0,1,
49613,1856.6,194.3,105.9,56.6,912.0,4632.0,2.0,0,
49713,1849.3,290.7,129.0,37.3,1110.0,4095.0,27.0,0,
49813,1872.8,221.8,138.4,35.1,1056.0,4218.0,2.0,0,
49913,1850.9,68.2,130.2,72.6,1061.0,4234.0,2.0,0,
50013,1859.6,22.3,130.3,187.3,1061.0,4234.0,2.0,0,
50113,1857.8,9.8,130.3,228.8,1061.0,4234.0,2.0,0,
50213,1861.4,9.0,130.3,218.7,1061.0,4234.0,2.0,0,
50313,1860.3,9.6,130.3,200.6,1061.0,4234.0,2.0,0,
50513,1860.5,9.9,130.3,240.1,1061.0,4234.0,2.0,0,
50613,1861.3,10.6,130.3,240.1,1061.0,4234.0,2.0,0,
50713,1859.8,11.6,130.3,240.1,1061.0,4234.0,2.0,0,
50813,1860.1,10.3,130.3,239.8,1061.0,4234.0,2.0,0,
50913,1878.4,79.4,131.1,239.5,1061.0,4234.0,2.0,0,
51013,1837.3,92.1,135.0,54.4,487.0,3411.0,5.0,1,
51113,1865.0,50.2,133.3,49.5,384.0,2584.0,6.0,1,
51213,1845.0,50.3,130.7,48.9,705.0,4286.0,6.0,1,
51313,1882.8,218.4,115.9,49.7,840.0,4110.0,26.0,0,
51513,1857.4,175.4,130.0,66.9,630.0,3041.0,2.0,0,
51613,1861.0,20.6,130.4,103.5,630.0,3041.0,2.0,0,
51713,1858.8,11.2,130.3,67.6,630.0,3041.0,2.0,0,
51813,1862.1,10.4,130.3,35.4,630.0,3041.0,2.0,0,
51913,1863.6,10.8,130.3,35.8,630.0,3041.0,2.0,0,
52013,1863.0,9.0,130.2,239.3,630.0,3041.0,2.0,0,
52113,1863.3,8.5,130.2,239.9,630.0,3041.0,2.0,0,
52213,1861.0,8.9,130.2,240.0,630.0,3041.0,2.0,0,
52313,1861.3,10.4,130.2,240.0,630.0,3041.0,2.0,0,
52513,1860.2,58.1,130.1,240.0,630.0,3041.0,2.0,0,
52613,1855.7,68.8,131.7,40.9,558.0,3961.0,4.0,1,
52713,1862.3,46.7,129.0,36.5,479.0,3431.0,6.0,1,
52813,1868.3,69.2,132.5,37.2,685.0,4375.0,6.0,1,
52913,1842.5,91.2,129.0,47.3,954.0,4883.0,5.0,1,
53013,1850.3,273.6,123.3,47.1,1431.0,4433.0,27.0,0,
53113,1863.1,284.2,124.3,40.2,906.0,4049.0,27.0,0,
53213,1866.5,26.1,124.7,69.1,774.0,3316.0,2.0,0,
53313,1854.7,11.9,124.8,101.3,774.0,3316.0,2.0,0,
53513,1864.3,8.9,124.7,36.1,774.0,3316.0,2.0,0,
53613,1863.3,10.9,124.8,239.3,774.0,3316.0,2.0,0,
53713,1861.9,11.8,124.8,239.9,774.0,3316.0,2.0,0,
53813,1859.8,10.4,124.8,239.8,774.0,3316.0,2.0,0,
53913,1859.9,9.9,124.8,239.8,774.0,3316.0,2.0,0,
54013,1859.2,11.6,124.8,240.1,774.0,3316.0,2.0,0,
54113,1861.8,10.7,124.8,240.3,774.0,3316.0,2.0,0,
54213,1882.9,91.6,122.4,238.7,552.0,3783.0,4.0,1,
54313,1836.2,40.7,123.2,48.4,450.0,3079.0,7.0,1,
54513,1846.9,79.0,122.8,49.7,704.0,4508.0,6.0,1,
54613,1887.3,131.8,112.6,55.9,625.0,4002.0,5.0,1,
54713,1865.9,57.8,84.1,53.7,648.0,4281.0,5.0,1,
54813,1851.7,16.7,67.0,51.9,614.0,3819.0,5.0,1,
54913,1861.2,11.4,67.0,45.5,614.0,3819.0,5.0,1,
55013,1860.4,9.8,67.0,67.6,614.0,3819.0,5.0,1,
55113,1860.7,10.7,67.0,90.6,614.0,3819.0,5.0,1,
55213,1860.4,10.4,67.0,239.6,614.0,3819.0,5.0,1,
55313,1860.4,9.7,67.0,239.9,614.0,3819.0,5.0,1,
55513,1860.7,10.6,67.0,240.2,614.0,3819.0,5.0,1,
55613,1860.7,11.7,67.0,240.0,614.0,3819.0,5.0,1,
55713,1860.0,11.6,67.0,239.8,614.0,3819.0,5.0,1,
55813,1857.7,82.9,67.0,239.6,517.0,3562.0,5.0,1,
55913,1863.7,47.1,69.5,65.7,546.0,3912.0,6.0,1,
56013,1864.1,49.2,69.5,38.0,445.0,3179.0,6.0,1,
56113,1874.8,76.9,69.6,39.6,464.0,3532.0,6.0,1,
56213,1851.0,69.5,65.8,55.0,633.0,4002.0,5.0,1,
56313,1853.3,57.9,68.5,54.3,550.0,3742.0,5.0,1,
56513,1858.8,12.5,68.6,57.2,550.0,3742.0,5.0,1,
56613,1858.9,10.4,68.6,56.7,550.0,3742.0,5.0,1,
56713,1859.8,11.3,68.6,75.9,550.0,3742.0,5.0,1,
56813,1860.2,10.9,68.6,238.6,550.0,3742.0,5.0,1,
56913,1858.0,11.3,68.6,240.0,550.0,3742.0,5.0,1,
57013,1860.2,12.3,68.6,240.0,550.0,3742.0,5.0,1,
57113,1860.0,9.9,68.6,240.4,550.0,3742.0,5.0,1,
57213,1858.3,9.8,68.5,240.4,550.0,3742.0,5.0,1,
57313,1860.8,11.7,68.5,240.0,550.0,3742.0,5.0,1,
57513,1891.7,117.1,68.5,85.9,486.0,3693.0,4.0,1,
57613,1846.9,42.6,69.3,44.4,529.0,3730.0,6.0,1,
57713,1858.5,135.5,66.3,39.3,522.0,3728.0,6.0,1,
57813,1849.0,39.8,70.7,43.1,611.0,3986.0,6.0,1,
57913,1876.6,124.4,67.2,56.3,599.0,3570.0,5.0,1,
58013,1850.9,29.7,69.8,55.8,593.0,3551.0,6.0,1,
58113,1860.2,11.8,69.8,54.7,593.0,3551.0,6.0,1,
58213,1857.1,11.8,69.8,45.1,593.0,3551.0,6.0,1,
58313,1860.5,11.2,69.8,54.8,593.0,3551.0,6.0,1,
58513,1860.0,10.9,69.8,240.2,593.0,3551.0,6.0,1,
58613,1859.9,11.0,69.8,240.2,593.0,3551.0,6.0,1,
58713,1861.7,9.7,69.8,240.1,593.0,3551.0,6.0,1,
58813,1860.1,10.8,69.8,240.1,593.0,3551.0,6.0,1,
58913,1860.1,8.8,69.8,240.2,593.0,3551.0,6.0,1,
59013,1873.2,31.7,69.8,240.0,508.0,3761.0,6.0,1,
59113,1838.3,77.0,66.0,145.7,469.0,3353.0,5.0,1,
59213,1867.3,62.5,70.1,67.4,469.0,3353.0,5.0,1,
59313,1850.4,93.7,78.2,57.3,527.0,3453.0,5.0,1,
59513,1852.2,62.0,72.9,37.8,665.0,3918.0,5.0,1,
59613,1857.2,56.1,75.8,39.0,613.0,3714.0,6.0,1,
59713,1862.5,21.4,75.7,52.3,613.0,3714.0,6.0,1,
59813,1856.6,18.9,75.9,43.7,613.0,3714.0,6.0,1,
59913,1858.9,12.6,75.9,38.3,613.0,3714.0,6.0,1,
60013,1859.8,11.0,75.9,55.8,613.0,3714.0,6.0,1,
60113,1858.5,9.3,75.9,114.5,613.0,3714.0,6.0,1,
60213,1859.2,9.9,75.9,239.2,613.0,3714.0,6.0,1,
60313,1859.7,12.0,75.8,240.0,613.0,3714.0,6.0,1,
60513,1858.6,11.6,75.8,240.2,613.0,3714.0,6.0,1,
60613,1859.5,62.7,75.8,239.9,613.0,3714.0,6.0,1,
60713,1853.0,69.5,81.8,42.4,487.0,3393.0,6.0,1,
60813,1876.7,119.1,81.9,38.4,423.0,3186.0,5.0,1,
60913,1858.1,50.1,80.1,40.3,620.0,4303.0,6.0,1,
61013,1856.8,142.8,81.0,47.2,601.0,4120.0,6.0,1,
61113,1850.5,44.6,83.5,51.5,655.0,4171.0,5.0,1,
61213,1873.1,137.4,81.6,48.3,643.0,4060.0,5.0,1,
61313,1866.4,16.8,84.7,46.1,643.0,4060.0,5.0,1,
61513,1859.8,11.7,84.5,41.3,643.0,4060.0,5.0,1,
61613,1860.8,9.1,84.5,41.3,643.0,4060.0,5.0,1,
61713,1860.1,10.1,84.5,238.7,643.0,4060.0,5.0,1,
61813,1859.8,11.5,84.5,239.8,643.0,4060.0,5.0,1,
61913,1859.6,10.9,84.5,239.8,643.0,4060.0,5.0,1,
62013,1860.3,9.2,84.5,239.9,643.0,4060.0,5.0,1,
62113,1858.9,10.1,84.5,240.0,643.0,4060.0,5.0,1,
62213,1859.5,10.0,84.5,240.0,643.0,4060.0,5.0,1,
62313,1881.6,121.9,89.2,42.8,643.0,4060.0,5.0,1,
62513,1867.6,87.7,97.3,35.9,643.0,4060.0,5.0,1,
62613,1848.7,51.5,93.2,37.2,692.0,4465.0,6.0,1,
62713,1885.7,193.8,96.1,37.7,679.0,4311.0,5.0,1,
62813,1858.1,163.5,123.1,42.5,714.0,3433.0,26.0,0,
62913,1854.8,28.2,123.2,39.3,714.0,3433.0,26.0,0,
63013,1860.3,10.3,123.2,39.2,714.0,3433.0,26.0,0,
63113,1858.8,9.6,123.2,39.0,714.0,3433.0,26.0,0,
63213,1859.7,9.8,123.2,38.8,714.0,3433.0,26.0,0,
63313,1859.7,11.7,123.2,144.3,714.0,3433.0,26.0,0,
63513,1860.8,11.1,123.2,240.0,714.0,3433.0,26.0,0,
63613,1860.5,9.9,123.2,240.1,714.0,3433.0,26.0,0,
63713,1860.1,10.6,123.2,240.0,714.0,3433.0,26.0,0,
63813,1860.0,10.2,123.2,240.0,714.0,3433.0,26.0,0,
63913,1861.7,92.2,118.0,239.5,595.0,4119.0,5.0,1,
64013,1863.1,55.6,118.8,52.0,455.0,3495.0,6.0,1,
64113,1865.8,93.6,110.3,38.3,375.0,2896.0,6.0,1,
64213,1866.6,43.3,109.2,43.7,492.0,3331.0,6.0,1,
64313,1853.1,67.2,103.1,55.7,585.0,3199.0,5.0,1,
64513,1860.0,17.8,62.4,67.7,581.0,3407.0,6.0,1,
64613,1862.1,10.4,62.4,56.1,581.0,3407.0,6.0,1,
64713,1859.2,8.1,62.4,55.8,581.0,3407.0,6.0,1,
64813,1860.4,10.4,62.4,69.4,581.0,3407.0,6.0,1,
64913,1860.3,9.4,62.4,238.3,581.0,3407.0,6.0,1,
65013,1860.2,10.0,62.4,239.9,581.0,3407.0,6.0,1,
65113,1860.7,10.8,62.4,240.0,581.0,3407.0,6.0,1,
65213,1860.6,10.8,62.4,240.1,581.0,3407.0,6.0,1,
65313,1859.5,9.8,62.4,240.0,581.0,3407.0,6.0,1,
65513,1846.9,64.9,62.3,239.8,592.0,4447.0,5.0,1,
65613,1892.0,129.0,64.1,68.1,521.0,3803.0,5.0,1,
65713,1846.4,91.2,65.6,44.3,668.0,5027.0,7.0,1,
65813,1860.3,243.3,86.6,43.3,759.0,4411.0,28.0,0,
65913,1848.8,249.7,119.1,41.9,1076.0,4949.0,27.0,0,
66013,1873.8,239.4,130.0,38.0,711.0,3983.0,28.0,0,
66113,1851.9,47.9,139.5,47.7,763.0,5101.0,5.0,1,
66213,1860.7,13.7,139.5,57.2,763.0,5101.0,5.0,1,
66313,1860.6,11.8,139.5,51.9,763.0,5101.0,5.0,1,
66513,1858.8,11.0,139.5,102.7,763.0,5101.0,5.0,1,
66613,1860.0,10.7,139.5,240.1,763.0,5101.0,5.0,1,
66713,1858.9,10.6,139.6,240.0,763.0,5101.0,5.0,1,
66813,1858.4,8.8,139.6,240.1,763.0,5101.0,5.0,1,
66913,1858.3,10.8,139.6,240.0,763.0,5101.0,5.0,1,
67013,1858.5,10.1,139.6,240.0,763.0,5101.0,5.0,1,
67113,1871.7,35.3,139.6,239.9,591.0,4225.0,6.0,1,
67213,1839.0,96.1,137.8,132.8,535.0,3745.0,4.0,1,
67313,1864.8,52.8,138.7,65.7,527.0,4056.0,5.0,1,
67513,1882.4,188.2,129.5,38.6,1300.0,4812.0,27.0,0,
67613,1849.2,122.4,115.1,29.6,645.0,4331.0,6.0,1,
67713,1857.4,58.6,107.1,36.1,668.0,4055.0,6.0,1,
67813,1860.7,13.2,107.0,43.7,668.0,4055.0,6.0,1,
67913,1858.8,10.1,107.0,42.4,668.0,4055.0,6.0,1,
68013,1859.0,8.6,107.0,38.3,668.0,4055.0,6.0,1,
68113,1860.2,9.4,107.0,69.2,668.0,4055.0,6.0,1,
68213,1860.7,9.9,106.9,240.0,668.0,4055.0,6.0,1,
68313,1860.6,8.5,106.9,240.1,668.0,4055.0,6.0,1,
68513,1861.3,10.2,106.9,239.9,668.0,4055.0,6.0,1,
68613,1860.9,9.8,106.9,239.9,668.0,4055.0,6.0,1,
68713,1860.2,60.9,106.9,239.9,668.0,4055.0,6.0,1,
68813,1854.3,60.7,108.3,52.1,499.0,3434.0,4.0,1,
68913,1874.7,115.1,106.4,45.8,480.0,3702.0,8.0,1,
69013,1857.4,43.7,105.1,51.4,525.0,3707.0,7.0,1,
69113,1859.2,140.1,89.1,65.5,559.0,4063.0,6.0,1,
69213,1847.8,35.9,82.1,66.3,595.0,3761.0,6.0,1,
69313,1872.5,137.9,77.3,56.7,659.0,4047.0,6.0,1,
69513,1857.4,11.5,80.3,44.2,659.0,4047.0,6.0,1,
69613,1859.9,11.3,80.3,37.5,659.0,4047.0,6.0,1,
69713,1861.0,11.2,80.3,39.4,659.0,4047.0,6.0,1,
69813,1859.8,10.5,80.3,239.5,659.0,4047.0,6.0,1,
69913,1860.1,8.3,80.3,239.9,659.0,4047.0,6.0,1,
70013,1860.6,11.4,80.3,239.7,659.0,4047.0,6.0,1,
70113,1862.9,11.1,80.3,239.8,659.0,4047.0,6.0,1,
70213,1860.5,10.5,80.4,240.1,659.0,4047.0,6.0,1,
70313,1860.0,9.8,80.4,240.1,659.0,4047.0,6.0,1,
70513,1838.2,92.1,84.8,36.1,532.0,4003.0,7.0,1,
70613,1869.0,82.3,90.0,36.9,532.0,4003.0,7.0,1,
70713,1846.3,132.5,87.5,48.6,701.0,4735.0,6.0,1,
70813,1883.4,83.5,92.6,65.5,701.0,4735.0,6.0,1,
70913,1856.7,115.5,91.1,66.6,631.0,4378.0,6.0,1,
71013,1854.1,23.1,92.8,52.5,631.0,4378.0,6.0,1,
71113,1858.9,10.4,92.7,50.3,631.0,4378.0,6.0,1,
71213,1861.1,11.9,92.7,39.5,631.0,4378.0,6.0,1,
71313,1858.8,10.1,92.7,38.5,631.0,4378.0,6.0,1,
71513,1859.7,10.2,92.7,240.1,631.0,4378.0,6.0,1,
71613,1859.7,9.3,92.7,240.0,631.0,4378.0,6.0,1,
71713,1860.8,10.2,92.7,240.0,631.0,4378.0,6.0,1,
71813,1861.7,9.3,92.7,240.2,631.0,4378.0,6.0,1,
71913,1859.9,9.5,92.7,240.2,631.0,4378.0,6.0,1,
72013,1866.6,120.8,91.6,129.9,631.0,4378.0,6.0,1,
72113,1861.8,62.3,93.3,35.7,441.0,3343.0,7.0,1,
72213,1871.6,136.6,92.4,35.5,510.0,3867.0,5.0,1,
72313,1869.7,56.3,94.6,43.7,649.0,4545.0,6.0,1,
72513,1847.7,49.6,95.1,68.1,720.0,4830.0,6.0,1,
72613,1868.3,31.8,90.9,66.3,690.0,4686.0,6.0,1,
72713,1856.3,11.1,90.9,51.7,690.0,4686.0,6.0,1,
72813,1858.3,10.9,90.9,48.6,690.0,4686.0,6.0,1,
72913,1858.5,10.0,90.9,45.1,690.0,4686.0,6.0,1,
73013,1859.2,10.1,90.9,53.4,690.0,4686.0,6.0,1,
73113,1860.5,10.2,90.9,240.0,690.0,4686.0,6.0,1,
73213,1859.3,10.5,90.9,240.1,690.0,4686.0,6.0,1,
73313,1861.2,11.0,90.9,240.0,690.0,4686.0,6.0,1,
73513,1860.6,9.9,90.9,240.0,690.0,4686.0,6.0,1,
73613,1848.8,110.4,89.7,240.0,591.0,4131.0,4.0,1,
73713,1887.8,77.6,90.5,66.4,591.0,4131.0,4.0,1,
73813,1843.6,87.9,85.7,37.7,570.0,4238.0,7.0,1,
73913,1862.2,100.4,90.5,38.0,570.0,4238.0,7.0,1,
74013,1845.8,145.2,87.3,67.6,684.0,4673.0,7.0,1,
74113,1875.5,107.9,91.9,66.4,684.0,4673.0,7.0,1,
74213,1849.5,31.0,88.5,68.2,791.0,5121.0,4.0,1,
74313,1860.1,10.8,88.5,49.5,791.0,5121.0,4.0,1,
74513,1859.8,9.9,88.5,69.7,791.0,5121.0,4.0,1,
74613,1859.8,10.0,88.5,172.3,791.0,5121.0,4.0,1,
74713,1860.0,10.2,88.5,240.0,791.0,5121.0,4.0,1,
74813,1860.1,10.5,88.5,239.9,791.0,5121.0,4.0,1,
74913,1860.6,9.9,88.5,239.9,791.0,5121.0,4.0,1,
75013,1861.0,10.5,88.5,240.1,791.0,5121.0,4.0,1,
75113,1858.8,9.9,88.5,239.9,791.0,5121.0,4.0,1,
75213,1865.0,35.3,88.5,239.8,567.0,4146.0,6.0,1,
75313,1853.3,141.4,85.5,89.8,561.0,3984.0,7.0,1,
75513,1867.7,148.5,88.2,36.4,462.0,3549.0,6.0,1,
75613,1871.8,58.2,89.8,48.5,682.0,4302.0,6.0,1,
75713,1860.7,124.6,84.3,66.0,618.0,4216.0,6.0,1,
75813,1845.1,44.6,86.1,65.7,675.0,4068.0,5.0,1,
75913,1863.1,12.7,86.1,66.2,675.0,4068.0,5.0,1,
76013,1859.2,11.1,86.1,48.3,675.0,4068.0,5.0,1,
76113,1860.5,11.3,86.1,56.5,675.0,4068.0,5.0,1,
76213,1860.1,9.8,86.1,117.9,675.0,4068.0,5.0,1,
76313,1861.1,9.8,86.1,240.0,675.0,4068.0,5.0,1,
76513,1860.5,9.7,86.1,240.2,675.0,4068.0,5.0,1,
76613,1860.4,9.4,86.1,240.1,675.0,4068.0,5.0,1,
76713,1859.4,9.9,86.1,239.9,675.0,4068.0,5.0,1,
76813,1860.1,6.4,86.1,239.8,675.0,4068.0,5.0,1,
76913,1841.5,123.8,83.5,205.5,499.0,3925.0,6.0,1,
77013,1888.0,81.6,86.1,55.0,499.0,3925.0,6.0,1,
77113,1849.6,64.3,80.3,36.8,592.0,4351.0,6.0,1,
77213,1863.6,242.7,92.6,37.1,1215.0,4558.0,28.0,0,
77313,1846.1,230.3,119.4,39.6,636.0,3513.0,26.0,0,
77513,1862.1,16.1,122.7,37.1,714.0,4094.0,6.0,1,
77613,1859.5,10.3,122.7,36.8,714.0,4094.0,6.0,1,
77713,1861.2,9.8,122.7,36.6,714.0,4094.0,6.0,1,
77813,1860.5,10.0,122.6,53.8,714.0,4094.0,6.0,1,
77913,1861.0,9.8,122.6,239.6,714.0,4094.0,6.0,1,
78013,1861.2,10.3,122.6,239.9,714.0,4094.0,6.0,1,
78113,1860.6,9.5,122.6,240.2,714.0,4094.0,6.0,1,
78213,1860.0,9.0,122.6,240.1,714.0,4094.0,6.0,1,
78313,1858.6,9.4,122.6,239.7,714.0,4094.0,6.0,1,
78513,1879.0,85.2,127.4,45.9,605.0,4619.0,6.0,1,
78613,1846.4,136.8,124.6,38.7,553.0,4412.0,7.0,1,
78713,1863.3,60.3,129.0,40.0,601.0,4075.0,6.0,1,
78813,1860.2,145.8,124.7,56.1,656.0,4695.0,6.0,1,
78913,1874.0,56.1,99.6,65.6,653.0,4098.0,5.0,1,
79013,1864.9,115.8,90.4,57.6,664.0,4114.0,6.0,1,
79113,1855.0,21.8,93.1,56.1,664.0,4114.0,6.0,1,
79213,1855.8,11.8,93.1,54.5,664.0,4114.0,6.0,1,
79313,1860.3,11.1,93.1,38.6,664.0,4114.0,6.0,1,
79513,1858.6,11.6,93.1,172.8,664.0,4114.0,6.0,1,
79613,1859.5,10.5,93.1,240.1,664.0,4114.0,6.0,1,
79713,1859.7,10.4,93.1,240.2,664.0,4114.0,6.0,1,
79813,1859.8,10.6,93.1,240.0,664.0,4114.0,6.0,1,
79913,1860.7,10.2,93.1,240.0,664.0,4114.0,6.0,1,
80013,1860.5,9.8,93.1,240.3,664.0,4114.0,6.0,1,
80113,1868.9,138.0,93.0,66.4,664.0,4114.0,6.0,1,
80213,1854.5,67.5,94.6,36.0,534.0,4061.0,6.0,1,
80313,1877.2,135.7,91.9,36.0,556.0,4135.0,7.0,1,
80513,1863.3,160.6,95.2,66.2,556.0,4135.0,7.0,1,
80613,1848.4,259.9,124.4,65.8,1099.0,4258.0,2.0,0,
80713,1870.8,39.3,126.3,37.7,1099.0,4258.0,2.0,0,
80813,1854.8,13.1,126.3,38.1,1099.0,4258.0,2.0,0,
80913,1860.7,8.9,126.3,39.7,1099.0,4258.0,2.0,0,
81013,1859.5,9.7,126.3,40.7,1099.0,4258.0,2.0,0,
81113,1859.6,10.6,126.3,65.7,1099.0,4258.0,2.0,0,
81213,1858.0,10.0,126.3,239.7,1099.0,4258.0,2.0,0,
81313,1858.4,9.8,126.3,239.8,1099.0,4258.0,2.0,0,
81513,1859.6,11.5,126.3,239.9,1099.0,4258.0,2.0,0,
81613,1859.9,10.8,126.3,240.2,1099.0,4258.0,2.0,0,
81713,1860.2,114.0,124.2,240.2,641.0,4887.0,6.0,1,
81813,1890.3,92.3,127.4,37.6,576.0,4537.0,6.0,1,
81913,1839.0,140.6,126.8,35.8,680.0,4740.0,6.0,1,
82013,1864.7,274.0,140.8,37.4,1247.0,4421.0,2.0,0,
82113,1854.5,196.7,150.3,40.4,698.0,4540.0,6.0,1,
82213,1878.1,92.0,141.1,39.7,662.0,3243.0,28.0,0,
82313,1845.5,25.6,129.3,55.9,657.0,4391.0,6.0,1,
82513,1855.7,10.6,129.3,48.3,657.0,4391.0,6.0,1,
82613,1859.1,9.6,129.3,53.1,657.0,4391.0,6.0,1,
82713,1860.0,8.8,129.3,238.0,657.0,4391.0,6.0,1,
82813,1858.5,9.6,129.3,240.1,657.0,4391.0,6.0,1,
82913,1858.5,10.1,129.3,240.2,657.0,4391.0,6.0,1,
83013,1857.9,9.7,129.3,240.3,657.0,4391.0,6.0,1,
83113,1857.7,10.7,129.3,240.2,657.0,4391.0,6.0,1,
83213,1860.3,10.0,129.3,239.9,657.0,4391.0,6.0,1,
83313,1864.8,34.7,129.3,240.1,569.0,4466.0,6.0,1,
83513,1856.3,66.3,128.4,36.9,620.0,4757.0,6.0,1,
83613,1867.0,141.4,116.0,36.0,585.0,4341.0,7.0,1,
83713,1872.6,65.2,95.0,44.8,656.0,4424.0,6.0,1,
83813,1856.2,132.9,82.2,66.6,620.0,4157.0,6.0,1,
83913,1849.5,43.7,86.1,66.2,638.0,4311.0,6.0,1,
84013,1862.6,12.5,86.0,67.4,638.0,4311.0,6.0,1,
84113,1859.1,10.7,86.0,65.6,638.0,4311.0,6.0,1,
84213,1860.3,9.9,86.0,57.6,638.0,4311.0,6.0,1,
84313,1857.8,10.2,86.0,98.8,638.0,4311.0,6.0,1,
84513,1861.3,10.5,86.1,240.3,638.0,4311.0,6.0,1,
84613,1859.7,9.8,86.1,240.5,638.0,4311.0,6.0,1,
84713,1859.9,11.3,86.1,240.2,638.0,4311.0,6.0,1,
84813,1859.9,10.4,86.1,240.0,638.0,4311.0,6.0,1,
84913,1860.3,10.1,86.1,239.8,638.0,4311.0,6.0,1,
85013,1840.0,112.0,83.5,237.4,529.0,3656.0,5.0,1,
85113,1889.1,125.6,86.1,67.3,529.0,3656.0,5.0,1,
85213,1846.4,69.7,83.8,66.6,596.0,4202.0,7.0,1,
85313,1863.8,91.9,85.6,67.2,596.0,4202.0,7.0,1,
85513,1874.3,256.3,94.7,66.2,850.0,3098.0,28.0,0,
85613,1864.9,35.7,101.7,36.1,474.0,2221.0,2.0,0,
85713,1858.2,12.5,101.7,29.9,474.0,2221.0,2.0,0,
85813,1857.0,10.2,101.8,30.1,474.0,2221.0,2.0,0,
85913,1859.7,10.1,101.8,39.0,474.0,2221.0,2.0,0,
86013,1858.1,10.0,101.8,199.0,474.0,2221.0,2.0,0,
86113,1858.7,9.0,101.8,240.1,474.0,2221.0,2.0,0,
86213,1860.0,12.4,101.8,240.1,474.0,2221.0,2.0,0,
86313,1856.3,8.9,101.8,240.1,474.0,2221.0,2.0,0,
86513,1857.3,11.2,101.9,239.8,474.0,2221.0,2.0,0,
86613,1879.3,70.7,104.6,47.4,588.0,4200.0,5.0,1,
86713,1846.5,92.7,99.6,38.8,421.0,2567.0,2.0,0,
86813,1866.1,49.6,98.6,42.3,416.0,2405.0,2.0,0,
86913,1858.5,111.5,94.9,66.2,484.0,2787.0,3.0,1,
87013,1880.3,40.0,95.7,69.4,690.0,3747.0,3.0,1,
87113,1849.5,102.6,84.3,67.2,818.0,3325.0,3.0,1,
87213,1864.0,21.7,74.8,57.5,945.0,3752.0,3.0,1,
87313,1858.0,10.8,74.6,36.0,945.0,3752.0,3.0,1,
87513,1858.2,14.6,74.7,30.2,945.0,3752.0,3.0,1,
87613,1859.9,8.9,74.7,105.8,945.0,3752.0,3.0,1,
87713,1859.4,9.4,74.7,85.2,945.0,3752.0,3.0,1,
87813,1858.7,9.1,74.7,86.2,945.0,3752.0,3.0,1,
87913,1861.0,10.0,74.6,238.8,945.0,3752.0,3.0,1,
88013,1860.2,8.8,74.6,239.8,945.0,3752.0,3.0,1,
88113,1858.5,11.7,74.6,239.8,945.0,3752.0,3.0,1,
88213,1867.8,137.6,76.9,67.1,945.0,3752.0,3.0,1,
88313,1856.5,48.3,79.4,35.9,444.0,2630.0,3.0,1,
88513,1852.3,37.4,79.3,38.6,522.0,3493.0,6.0,1,
88613,1861.7,171.0,85.3,49.5,725.0,3109.0,2.0,0,
88713,1849.4,221.0,107.0,37.1,1562.0,4912.0,3.0,1,
88813,1868.0,38.7,110.4,73.5,946.0,3946.0,3.0,1,
88913,1859.8,10.0,110.4,163.6,946.0,3946.0,3.0,1,
89013,1857.5,10.1,110.4,189.8,946.0,3946.0,3.0,1,
89113,1861.1,10.8,110.4,141.9,946.0,3946.0,3.0,1,
89213,1860.8,9.0,110.3,189.7,946.0,3946.0,3.0,1,
89313,1859.8,10.6,110.3,240.1,946.0,3946.0,3.0,1,
89513,1859.4,11.8,110.3,239.9,946.0,3946.0,3.0,1,
89613,1859.8,8.8,110.3,240.0,946.0,3946.0,3.0,1,
89713,1860.0,11.0,110.3,240.0,946.0,3946.0,3.0,1,
89813,1853.3,59.4,108.4,239.9,566.0,4223.0,4.0,1,
89913,1881.1,65.9,107.1,65.8,463.0,3047.0,5.0,1,
90013,1838.9,85.5,104.0,36.9,494.0,3035.0,3.0,1,
90113,1873.6,232.8,116.6,37.1,1236.0,3846.0,2.0,0,
90213,1843.8,240.4,136.5,43.3,950.0,4516.0,2.0,0,
90313,1895.7,161.2,128.4,53.0,956.0,4153.0,3.0,1,
90513,1857.9,13.7,136.7,219.3,956.0,4153.0,3.0,1,
90613,1855.5,11.1,136.7,164.7,956.0,4153.0,3.0,1,
90713,1861.3,9.6,136.7,151.8,956.0,4153.0,3.0,1,
90813,1859.9,9.6,136.7,131.8,956.0,4153.0,3.0,1,
90913,1858.9,9.7,136.8,239.6,956.0,4153.0,3.0,1,
91013,1859.3,8.2,136.8,240.0,956.0,4153.0,3.0,1,
91113,1859.4,10.5,136.7,240.5,956.0,4153.0,3.0,1,
91213,1860.1,7.9,136.7,240.4,956.0,4153.0,3.0,1,
91313,1858.7,9.0,136.7,239.8,956.0,4153.0,3.0,1,
91513,1838.3,113.0,136.1,70.7,580.0,4055.0,4.0,1,
91613,1875.3,76.6,139.7,65.7,580.0,4055.0,4.0,1,
91713,1857.9,98.1,133.5,53.8,623.0,3967.0,5.0,1,
91813,1879.8,65.3,115.0,65.8,828.0,4628.0,5.0,1,
91913,1839.8,143.7,106.3,68.0,862.0,3480.0,3.0,1,
92013,1865.0,109.8,94.2,65.6,914.0,4003.0,3.0,1,
92113,1862.0,17.1,94.2,44.1,914.0,4003.0,3.0,1,
92213,1855.8,12.3,94.3,37.3,914.0,4003.0,3.0,1,
92313,1861.5,9.6,94.3,48.8,914.0,4003.0,3.0,1,
92513,1860.3,8.9,94.2,239.3,914.0,4003.0,3.0,1,
92613,1858.9,9.2,94.2,239.7,914.0,4003.0,3.0,1,
92713,1859.4,9.3,94.2,240.0,914.0,4003.0,3.0,1,
92813,1860.1,9.0,94.2,240.2,914.0,4003.0,3.0,1,
92913,1857.8,9.9,94.2,240.3,914.0,4003.0,3.0,1,
93013,1860.3,83.4,94.2,239.9,914.0,4003.0,3.0,1,
93113,1856.4,70.2,100.4,38.6,603.0,4131.0,3.0,1,
93213,1877.6,81.8,95.9,36.9,400.0,2767.0,6.0,1,
93313,1859.8,39.2,96.6,38.5,528.0,3256.0,5.0,1,
93513,1867.7,262.3,105.9,49.8,826.0,3440.0,3.0,1,
93613,1867.0,180.8,116.3,77.7,975.0,3837.0,3.0,1,
93713,1853.8,18.3,115.5,142.4,986.0,4008.0,3.0,1,
93813,1857.5,10.6,115.5,163.7,986.0,4008.0,3.0,1,
93913,1860.2,10.5,115.5,99.4,986.0,4008.0,3.0,1,
94013,1860.2,8.8,115.5,46.8,986.0,4008.0,3.0,1,
94113,1859.9,8.9,115.5,239.3,986.0,4008.0,3.0,1,
94213,1860.5,9.3,115.5,239.8,986.0,4008.0,3.0,1,
94313,1860.0,8.9,115.5,239.8,986.0,4008.0,3.0,1,
94513,1860.6,10.1,115.5,240.0,986.0,4008.0,3.0,1,
94613,1860.9,10.8,115.5,239.8,986.0,4008.0,3.0,1,
94713,1878.5,122.7,114.6,73.0,572.0,4283.0,4.0,1,
94813,1837.5,40.5,115.8,36.1,430.0,3204.0,6.0,1,
94913,1868.7,115.3,116.0,35.9,399.0,2805.0,6.0,1,
95013,1847.5,45.1,117.6,37.5,604.0,3701.0,5.0,1,
95113,1893.6,194.0,114.9,49.3,768.0,3330.0,2.0,0,
95213,1831.4,210.0,119.6,49.7,919.0,4011.0,2.0,0,
95313,1863.3,27.5,120.0,46.8,961.0,3844.0,2.0,0,
95513,1861.6,9.4,120.0,137.2,961.0,3844.0,2.0,0,
95613,1859.9,7.9,120.0,101.3,961.0,3844.0,2.0,0,
95713,1862.1,8.9,120.0,163.3,961.0,3844.0,2.0,0,
95813,1859.7,8.4,119.9,240.0,961.0,3844.0,2.0,0,
95913,1859.0,9.2,120.0,240.0,961.0,3844.0,2.0,0,
96013,1859.2,10.5,120.0,240.0,961.0,3844.0,2.0,0,
96113,1857.6,8.8,120.0,240.0,961.0,3844.0,2.0,0,
96213,1859.5,8.4,120.0,240.0,961.0,3844.0,2.0,0,
96313,1847.1,109.6,117.9,239.4,665.0,4841.0,5.0,1,
96513,1873.4,91.7,117.4,37.0,505.0,3468.0,6.0,1,
96613,1863.1,66.1,120.7,37.8,735.0,4224.0,6.0,1,
96713,1847.1,144.3,115.0,52.2,644.0,3921.0,6.0,1,
96813,1867.8,58.9,100.9,48.8,650.0,3829.0,6.0,1,
96913,1851.9,18.0,83.2,48.3,807.0,4463.0,6.0,1,
97013,1857.1,11.9,83.2,48.2,807.0,4463.0,6.0,1,
97113,1856.8,8.7,83.2,49.9,807.0,4463.0,6.0,1,
97213,1861.2,9.7,83.2,69.6,807.0,4463.0,6.0,1,
97313,1861.0,9.6,83.2,238.8,807.0,4463.0,6.0,1,
97513,1860.1,9.1,83.2,239.9,807.0,4463.0,6.0,1,
97613,1859.6,10.4,83.2,239.8,807.0,4463.0,6.0,1,
97713,1860.7,9.8,83.2,239.8,807.0,4463.0,6.0,1,
97813,1860.3,9.2,83.2,239.7,807.0,4463.0,6.0,1,
97913,1851.5,57.0,83.2,239.5,597.0,4266.0,4.0,1,
98013,1874.1,96.4,81.5,67.7,605.0,4125.0,4.0,1,
98113,1841.4,39.6,84.4,47.8,536.0,3796.0,6.0,1,
98213,1865.5,155.3,80.5,47.7,529.0,3634.0,6.0,1,
98313,1847.1,44.4,84.5,66.9,685.0,4139.0,6.0,1,
98513,1841.3,35.6,84.3,66.3,580.0,3642.0,5.0,1,
98613,1859.7,10.9,84.3,67.1,580.0,3642.0,5.0,1,
98713,1857.3,10.2,84.3,66.7,580.0,3642.0,5.0,1,
98813,1859.6,8.6,84.3,67.7,580.0,3642.0,5.0,1,
98913,1859.8,8.6,84.3,92.8,580.0,3642.0,5.0,1,
99013,1859.1,10.1,84.3,239.6,580.0,3642.0,5.0,1,
99113,1860.8,9.3,84.3,240.0,580.0,3642.0,5.0,1,
99213,1859.6,9.4,84.3,239.9,580.0,3642.0,5.0,1,
99313,1858.0,8.7,84.2,240.0,580.0,3642.0,5.0,1,
99513,1867.5,76.1,88.0,239.5,580.0,3642.0,5.0,1,
99613,1834.3,93.7,85.3,50.3,455.0,3481.0,6.0,1,
99713,1876.0,77.8,89.0,49.4,455.0,3481.0,6.0,1,
99813,1862.4,97.0,87.4,51.6,551.0,3511.0,5.0,1,
99913,1871.7,60.8,88.6,56.1,731.0,3943.0,5.0,1,
100013,1840.5,130.2,84.5,66.7,720.0,4230.0,6.0,1,
100113,1869.5,42.8,82.5,67.4,702.0,3854.0,5.0,1,
100213,1863.9,14.6,82.6,70.0,702.0,3854.0,5.0,1,
100313,1857.4,11.3,82.6,68.2,702.0,3854.0,5.0,1,
100513,1859.4,8.9,82.6,66.7,702.0,3854.0,5.0,1,
100613,1860.3,10.0,82.6,211.0,702.0,3854.0,5.0,1,
100713,1859.6,9.9,82.6,240.2,702.0,3854.0,5.0,1,
100813,1859.9,10.0,82.6,240.3,702.0,3854.0,5.0,1,
100913,1859.0,9.2,82.6,240.2,702.0,3854.0,5.0,1,
101013,1859.7,11.1,82.6,240.1,702.0,3854.0,5.0,1,
101113,1859.8,96.5,82.6,240.2,702.0,3854.0,5.0,1,
101213,1852.3,67.3,86.0,41.8,544.0,3680.0,4.0,1,
101313,1882.7,90.8,82.5,38.9,461.0,3306.0,4.0,1,
101513,1863.5,143.1,81.6,68.7,582.0,3451.0,5.0,1,
101613,1855.9,39.4,85.2,69.1,636.0,3788.0,5.0,1,
101713,1880.2,120.5,83.8,67.0,677.0,3854.0,5.0,1,
101813,1854.5,16.7,85.6,68.3,677.0,3854.0,5.0,1,
101913,1858.5,13.0,85.5,67.5,677.0,3854.0,5.0,1,
102013,1856.6,9.3,85.5,65.8,677.0,3854.0,5.0,1,
102113,1862.1,10.5,85.5,65.9,677.0,3854.0,5.0,1,
102213,1861.6,8.5,85.5,238.6,677.0,3854.0,5.0,1,
102313,1858.7,9.1,85.5,240.2,677.0,3854.0,5.0,1,
102513,1859.6,10.3,85.5,239.9,677.0,3854.0,5.0,1,
102613,1860.6,10.2,85.5,240.1,677.0,3854.0,5.0,1,
102713,1858.8,9.8,85.5,240.1,677.0,3854.0,5.0,1,
102813,1877.8,117.0,88.8,40.3,677.0,3854.0,5.0,1,
102913,1839.9,98.0,87.7,35.8,412.0,3149.0,6.0,1,
103013,1872.0,82.7,91.0,36.6,412.0,3149.0,6.0,1,
103113,1852.7,106.8,88.9,47.5,528.0,3584.0,6.0,1,
103213,1884.6,115.6,93.6,56.8,528.0,3584.0,6.0,1,
103313,1839.3,122.0,91.4,67.6,681.0,3999.0,6.0,1,
103513,1858.3,10.0,91.4,67.2,681.0,3999.0,6.0,1,
103613,1858.6,9.3,91.4,55.7,681.0,3999.0,6.0,1,
103713,1860.3,9.7,91.4,42.1,681.0,3999.0,6.0,1,
103813,1860.2,8.6,91.4,102.6,681.0,3999.0,6.0,1,
103913,1860.2,8.9,91.4,240.0,681.0,3999.0,6.0,1,
104013,1859.2,9.8,91.4,240.0,681.0,3999.0,6.0,1,
104113,1860.1,8.9,91.3,239.7,681.0,3999.0,6.0,1,
104213,1859.8,7.9,91.3,239.8,681.0,3999.0,6.0,1,
104313,1859.9,9.0,91.3,240.1,681.0,3999.0,6.0,1,
104513,1863.1,74.4,90.9,36.5,569.0,4265.0,6.0,1,
104613,1887.2,117.1,90.5,36.0,687.0,4875.0,6.0,1,
104713,1851.5,41.6,92.5,38.1,745.0,4475.0,5.0,1,
104813,1852.0,156.1,87.2,66.8,631.0,4068.0,6.0,1,
104913,1860.5,294.8,113.3,51.2,1724.0,4230.0,27.0,0,
105013,1852.9,53.2,126.5,37.8,496.0,2375.0,2.0,0,
105113,1860.5,10.7,126.5,45.1,496.0,2375.0,2.0,0,
105213,1858.3,8.4,126.5,93.9,496.0,2375.0,2.0,0,
105313,1859.6,9.2,126.5,92.7,496.0,2375.0,2.0,0,
105513,1859.7,9.5,126.5,240.0,496.0,2375.0,2.0,0,
105613,1859.5,10.0,126.5,240.1,496.0,2375.0,2.0,0,
105713,1859.2,8.9,126.5,240.0,496.0,2375.0,2.0,0,
105813,1858.7,9.3,126.5,240.1,496.0,2375.0,2.0,0,
105913,1860.3,8.9,126.5,240.4,496.0,2375.0,2.0,0,
106013,1856.5,49.2,125.7,240.0,708.0,5146.0,5.0,1,
106113,1880.3,163.4,126.6,65.8,795.0,4857.0,2.0,0,
106213,1834.7,147.2,145.3,36.2,1780.0,5283.0,2.0,0,
106313,1870.1,149.6,145.3,37.4,642.0,4102.0,6.0,1,
106513,1894.7,225.8,142.8,56.3,591.0,2762.0,2.0,0,
106613,1840.1,81.7,139.5,37.7,650.0,2571.0,2.0,0,
106713,1855.7,13.7,139.5,35.9,650.0,2571.0,2.0,0,
106813,1857.6,8.5,139.5,43.0,650.0,2571.0,2.0,0,
106913,1860.9,9.0,139.5,67.1,650.0,2571.0,2.0,0,
107013,1859.0,9.4,139.5,79.1,650.0,2571.0,2.0,0,
107113,1857.7,8.9,139.5,240.1,650.0,2571.0,2.0,0,
107213,1858.4,10.3,139.5,240.1,650.0,2571.0,2.0,0,
107313,1858.4,9.5,139.6,239.9,650.0,2571.0,2.0,0,
107513,1859.8,9.9,139.6,239.5,650.0,2571.0,2.0,0,
107613,1864.9,135.9,142.3,197.2,650.0,2571.0,2.0,0,
107713,1843.1,64.2,141.5,41.0,708.0,5358.0,6.0,1,
107813,1870.7,241.4,135.0,39.7,753.0,4029.0,2.0,0,
107913,1862.7,197.7,148.5,38.1,1046.0,4071.0,27.0,0,
108013,1870.1,144.4,156.2,43.1,558.0,3157.0,28.0,0,
108113,1835.5,93.6,148.2,72.5,588.0,4018.0,6.0,1,
108213,1872.4,113.6,139.1,51.6,404.0,2373.0,2.0,0,
108313,1863.2,14.8,139.1,43.0,404.0,2373.0,2.0,0,
108513,1859.0,7.3,139.1,29.0,404.0,2373.0,2.0,0,
108613,1857.9,8.9,139.1,29.0,404.0,2373.0,2.0,0,
108713,1858.1,10.5,139.1,238.6,404.0,2373.0,2.0,0,
108813,1858.3,9.0,139.1,239.7,404.0,2373.0,2.0,0,
108913,1859.3,9.3,139.1,239.6,404.0,2373.0,2.0,0,
109013,1860.3,8.0,139.0,239.9,404.0,2373.0,2.0,0,
109113,1860.3,10.0,139.0,240.2,404.0,2373.0,2.0,0,
109213,1859.0,107.6,139.0,240.2,404.0,2373.0,2.0,0,
109313,1875.8,101.8,140.0,37.4,404.0,2373.0,2.0,0,
109513,1857.3,98.4,117.0,36.9,404.0,2373.0,2.0,0,
109613,1844.2,103.1,95.8,65.8,580.0,3732.0,6.0,1,
109713,1874.3,260.6,105.3,66.1,799.0,3157.0,28.0,0,
109813,1868.5,142.4,123.7,41.4,1262.0,3702.0,27.0,0,
109913,1850.6,15.8,118.8,37.8,1262.0,3702.0,27.0,0,
110013,1859.4,9.7,118.8,39.2,1262.0,3702.0,27.0,0,
110113,1860.2,9.4,118.8,45.0,1262.0,3702.0,27.0,0,
110213,1860.2,8.9,118.8,51.9,1262.0,3702.0,27.0,0,
110313,1859.0,8.5,118.8,238.1,1262.0,3702.0,27.0,0,
110513,1860.7,9.7,118.8,240.0,1262.0,3702.0,27.0,0,
110613,1859.6,9.9,118.8,240.2,1262.0,3702.0,27.0,0,
110713,1860.0,9.7,118.8,240.0,1262.0,3702.0,27.0,0,
110813,1858.9,8.5,118.8,239.8,1262.0,3702.0,27.0,0,
110913,1861.9,117.9,114.5,154.8,612.0,4384.0,6.0,1,
111013,1859.0,71.7,118.8,46.0,627.0,4574.0,6.0,1,
111113,1852.0,143.0,114.1,36.5,678.0,4478.0,6.0,1,
111213,1872.3,55.6,115.8,47.0,559.0,3692.0,5.0,1,
111313,1867.4,79.3,110.6,69.4,607.0,3938.0,6.0,1,
111513,1850.8,13.0,87.3,47.3,602.0,3384.0,5.0,1,
111613,1858.6,10.0,87.3,47.4,602.0,3384.0,5.0,1,
111713,1860.4,10.2,87.3,49.0,602.0,3384.0,5.0,1,
111813,1859.9,9.5,87.4,65.6,602.0,3384.0,5.0,1,
111913,1859.2,9.2,87.4,239.9,602.0,3384.0,5.0,1,
112013,1859.4,10.3,87.4,239.8,602.0,3384.0,5.0,1,
112113,1858.6,9.3,87.3,239.8,602.0,3384.0,5.0,1,
112213,1859.9,10.4,87.3,239.8,602.0,3384.0,5.0,1,
112313,1858.7,8.1,87.3,239.8,602.0,3384.0,5.0,1,
112513,1851.1,36.7,86.9,239.6,728.0,4845.0,4.0,1,
112613,1864.0,179.9,86.7,83.4,583.0,3633.0,28.0,0,
112713,1870.5,56.3,90.6,57.0,630.0,3852.0,6.0,1,
112813,1855.0,199.2,99.4,47.7,515.0,2728.0,28.0,0,
112913,1859.0,278.3,119.6,41.5,1687.0,4053.0,27.0,0,
113013,1857.1,269.8,129.7,38.7,536.0,2445.0,28.0,0,
113113,1872.8,34.4,137.5,46.5,497.0,2544.0,28.0,0,
113213,1857.3,11.6,137.5,49.2,497.0,2544.0,28.0,0,
113313,1857.5,9.9,137.6,43.1,497.0,2544.0,28.0,0,
113513,1860.5,8.7,137.6,67.7,497.0,2544.0,28.0,0,
113613,1859.7,10.1,137.6,239.8,497.0,2544.0,28.0,0,
113713,1861.4,10.7,137.6,239.9,497.0,2544.0,28.0,0,
113813,1859.0,9.8,137.6,240.3,497.0,2544.0,28.0,0,
113913,1858.6,8.5,137.6,240.4,497.0,2544.0,28.0,0,
114013,1859.3,10.6,137.6,239.9,497.0,2544.0,28.0,0,
114113,1883.3,124.9,141.4,70.2,497.0,2544.0,28.0,0,
114213,1850.4,71.2,142.2,36.5,651.0,4813.0,6.0,1,
114313,1851.6,123.9,137.3,35.8,618.0,4278.0,6.0,1,
114513,1867.6,114.0,120.6,56.5,588.0,3693.0,5.0,1,
114613,1866.3,34.1,99.1,54.7,656.0,3785.0,5.0,1,
114713,1849.2,47.8,87.2,66.0,688.0,2600.0,2.0,0,
114813,1858.7,11.7,87.2,49.5,688.0,2600.0,2.0,0,
114913,1859.0,10.7,87.2,36.2,688.0,2600.0,2.0,0,
115013,1857.6,9.6,87.2,29.6,688.0,2600.0,2.0,0,
115113,1858.8,9.8,87.2,40.4,688.0,2600.0,2.0,0,
115213,1858.6,9.3,87.2,239.8,688.0,2600.0,2.0,0,
115313,1859.0,8.0,87.2,240.2,688.0,2600.0,2.0,0,
115513,1860.5,10.0,87.2,240.0,688.0,2600.0,2.0,0,
115613,1861.5,9.5,87.2,240.1,688.0,2600.0,2.0,0,
115713,1852.1,35.6,83.3,240.1,633.0,4842.0,6.0,1,
115813,1866.4,161.2,82.4,55.9,661.0,4794.0,4.0,1,
115913,1848.8,56.7,85.7,36.4,686.0,4274.0,6.0,1,
116013,1896.8,114.0,89.8,36.4,646.0,4132.0,6.0,1,
116113,1836.2,42.3,87.7,48.8,704.0,4189.0,5.0,1,
116213,1865.0,194.4,92.6,67.2,801.0,3481.0,3.0,1,
116313,1851.9,118.4,113.8,53.9,783.0,3090.0,2.0,0,
116513,1857.6,10.8,113.8,103.8,783.0,3090.0,2.0,0,
116613,1857.1,9.5,113.8,135.1,783.0,3090.0,2.0,0,
116713,1859.8,11.1,113.8,148.6,783.0,3090.0,2.0,0,
116813,1859.0,9.6,113.8,239.7,783.0,3090.0,2.0,0,
116913,1860.0,8.6,113.8,240.1,783.0,3090.0,2.0,0,
117013,1859.3,9.5,113.8,240.2,783.0,3090.0,2.0,0,
117113,1861.5,8.3,113.8,240.1,783.0,3090.0,2.0,0,
117213,1860.0,8.3,113.8,240.0,783.0,3090.0,2.0,0,
117313,1859.6,173.3,113.8,240.1,783.0,3090.0,2.0,0,
117513,1875.3,110.5,125.6,66.9,657.0,5091.0,6.0,1,
117613,1835.2,100.3,120.8,57.2,669.0,4014.0,5.0,1,
117713,1875.1,206.3,125.4,55.9,669.0,4014.0,5.0,1,
117813,1846.5,100.3,141.7,55.9,1670.0,3814.0,27.0,0,
117913,1894.7,192.5,131.7,39.2,602.0,2667.0,2.0,0,
118013,1844.9,18.2,132.1,49.8,707.0,2665.0,2.0,0,
118113,1856.1,10.4,132.1,47.1,707.0,2665.0,2.0,0,
118213,1859.3,9.5,132.1,30.2,707.0,2665.0,2.0,0,
118313,1861.0,9.4,132.0,34.6,707.0,2665.0,2.0,0,
118513,1862.0,9.3,132.0,239.6,707.0,2665.0,2.0,0,
118613,1860.4,9.5,132.0,239.7,707.0,2665.0,2.0,0,
118713,1858.8,10.3,132.0,240.1,707.0,2665.0,2.0,0,
118813,1859.8,8.5,132.0,239.9,707.0,2665.0,2.0,0,
118913,1858.2,8.5,132.0,239.7,707.0,2665.0,2.0,0,
119013,1873.9,74.5,125.7,39.2,595.0,4463.0,5.0,1,
119113,1841.2,113.9,120.4,36.4,613.0,4290.0,6.0,1,
119213,1876.2,83.2,124.3,37.3,613.0,4290.0,6.0,1,
119313,1857.2,45.5,119.0,45.5,574.0,3682.0,6.0,1,
119513,1833.6,100.0,84.4,67.8,654.0,3935.0,6.0,1,
119613,1868.5,21.0,82.6,55.5,713.0,2929.0,2.0,0,
119713,1854.5,12.7,82.6,37.6,713.0,2929.0,2.0,0,
119813,1860.5,9.6,82.6,29.1,713.0,2929.0,2.0,0,
119913,1861.6,9.0,82.6,29.1,713.0,2929.0,2.0,0,
120013,1861.0,11.3,82.6,165.1,713.0,2929.0,2.0,0,
120113,1858.5,9.0,82.6,240.2,713.0,2929.0,2.0,0,
120213,1859.7,8.7,82.6,239.9,713.0,2929.0,2.0,0,
120313,1858.2,9.2,82.6,239.9,713.0,2929.0,2.0,0,
120513,1853.5,11.8,82.7,240.1,713.0,2929.0,2.0,0,
120613,1840.3,119.9,74.3,239.0,553.0,4034.0,5.0,1,
120713,1883.5,184.0,92.4,39.9,1051.0,4244.0,26.0,0,
120813,1855.1,75.6,88.7,37.7,527.0,3192.0,6.0,1,
120913,1863.2,47.1,90.8,44.7,369.0,2354.0,6.0,1,
121013,1839.7,89.3,86.6,56.2,409.0,2538.0,6.0,1,
121113,1873.2,68.8,92.3,70.6,409.0,2538.0,6.0,1,
121213,1852.6,14.1,84.2,82.9,576.0,3329.0,6.0,1,
121313,1860.5,8.4,84.2,69.8,576.0,3329.0,6.0,1,
121513,1861.8,8.8,84.1,72.2,576.0,3329.0,6.0,1,
121613,1860.9,8.3,84.1,239.5,576.0,3329.0,6.0,1,
121713,1861.6,10.4,84.1,239.9,576.0,3329.0,6.0,1,
121813,1861.5,9.4,84.1,239.8,576.0,3329.0,6.0,1,
121913,1858.3,7.8,84.1,239.5,576.0,3329.0,6.0,1,
122013,1859.0,9.0,84.1,239.6,576.0,3329.0,6.0,1,
122113,1857.1,8.3,84.0,239.7,576.0,3329.0,6.0,1,
122213,1869.0,34.9,83.5,239.7,615.0,4385.0,5.0,1,
122313,1850.0,155.2,77.1,71.6,773.0,4130.0,2.0,0,
122513,1855.6,256.0,115.6,30.1,744.0,3413.0,2.0,0,
122613,1869.0,224.9,134.2,102.4,1741.0,4673.0,2.0,0,
122713,1869.3,145.9,143.6,226.3,841.0,3806.0,2.0,0,
122813,1857.1,69.2,150.5,260.2,722.0,3058.0,2.0,0,
122913,1858.8,11.6,150.6,227.2,722.0,3058.0,2.0,0,
123013,1856.9,11.6,150.7,91.6,722.0,3058.0,2.0,0,
123113,1857.6,10.3,150.8,35.2,722.0,3058.0,2.0,0,
123213,1856.0,9.6,150.9,41.2,722.0,3058.0,2.0,0,
123313,1858.4,9.6,151.0,239.8,722.0,3058.0,2.0,0,
123513,1859.8,8.7,151.0,239.4,722.0,3058.0,2.0,0,
123613,1859.9,9.1,151.0,239.6,722.0,3058.0,2.0,0,
123713,1860.2,8.5,150.9,240.1,722.0,3058.0,2.0,0,
123813,1862.5,165.6,153.8,226.2,722.0,3058.0,2.0,0,
123913,1859.4,312.8,166.9,29.8,1765.0,5675.0,2.0,0,
124013,1870.5,223.8,171.9,30.0,806.0,3890.0,2.0,0,
124113,1870.0,195.4,171.3,48.9,1827.0,4762.0,2.0,0,
124213,1850.0,216.7,174.8,158.2,745.0,3384.0,2.0,0,
124313,1855.1,247.0,172.6,234.7,1911.0,4917.0,2.0,0,
124513,1863.4,21.4,176.5,231.4,1911.0,4917.0,2.0,0,
124613,1859.0,10.3,176.4,189.8,1911.0,4917.0,2.0,0,
124713,1857.4,9.9,176.4,98.7,1911.0,4917.0,2.0,0,
124813,1856.7,9.6,176.4,67.1,1911.0,4917.0,2.0,0,
124913,1858.0,10.5,176.4,238.8,1911.0,4917.0,2.0,0,
125013,1858.4,10.8,176.5,239.8,1911.0,4917.0,2.0,0,
125113,1861.2,10.5,176.5,239.8,1911.0,4917.0,2.0,0,
125213,1859.9,8.3,176.5,239.8,1911.0,4917.0,2.0,0,
125313,1858.6,10.2,176.5,239.7,1911.0,4917.0,2.0,0,
125513,1892.5,206.0,169.1,70.3,606.0,3799.0,2.0,0,
125613,1845.2,252.6,168.0,29.6,1471.0,4835.0,2.0,0,
125713,1858.3,232.4,170.9,40.9,724.0,3338.0,2.0,0,
125813,1857.6,253.6,166.1,157.2,1811.0,4701.0,2.0,0,
125913,1866.7,229.5,165.5,228.7,836.0,3583.0,3.0,1,
126013,1863.2,198.0,170.6,259.7,1986.0,5048.0,2.0,0,
126113,1845.5,18.2,169.5,231.8,890.0,3615.0,2.0,0,
126213,1857.5,10.4,169.5,142.3,890.0,3615.0,2.0,0,
126313,1857.8,10.6,169.5,123.6,890.0,3615.0,2.0,0,
126513,1859.3,10.0,169.5,239.0,890.0,3615.0,2.0,0,
126613,1858.0,9.6,169.5,240.1,890.0,3615.0,2.0,0,
126713,1860.0,9.4,169.5,240.0,890.0,3615.0,2.0,0,
126813,1859.1,11.6,169.5,239.7,890.0,3615.0,2.0,0,
126913,1860.0,9.6,169.5,239.7,890.0,3615.0,2.0,0,
127013,1858.3,23.4,169.5,239.5,890.0,3615.0,2.0,0,
127113,1852.7,58.8,168.5,52.7,621.0,4648.0,5.0,1,
127213,1866.4,233.8,163.1,47.0,788.0,4372.0,3.0,1,
127313,1849.2,296.5,165.1,43.7,1564.0,4518.0,2.0,0,
127513,1833.5,226.1,166.4,135.4,1692.0,4868.0,2.0,0,
127613,1860.5,193.5,161.7,228.7,816.0,3746.0,3.0,1,
127713,1866.8,24.5,158.8,259.0,848.0,3479.0,2.0,0,
127813,1858.8,10.7,158.8,198.0,848.0,3479.0,2.0,0,
127913,1859.3,9.0,158.8,53.4,848.0,3479.0,2.0,0,
128013,1858.3,9.3,158.8,34.6,848.0,3479.0,2.0,0,
128113,1857.2,11.2,158.8,155.9,848.0,3479.0,2.0,0,
128213,1861.0,11.3,158.8,239.7,848.0,3479.0,2.0,0,
128313,1859.8,8.5,158.7,239.5,848.0,3479.0,2.0,0,
128513,1858.8,10.2,158.8,239.6,848.0,3479.0,2.0,0,
128613,1860.0,8.7,158.7,239.8,848.0,3479.0,2.0,0,
128713,1867.5,159.9,160.0,45.7,848.0,3479.0,2.0,0,
128813,1866.6,72.7,158.7,35.9,672.0,4753.0,6.0,1,
128913,1872.9,151.6,151.0,35.7,703.0,3434.0,2.0,0,
129013,1837.6,47.8,134.8,36.4,659.0,3883.0,5.0,1,
129113,1868.6,135.8,122.7,37.5,591.0,3789.0,6.0,1,
129213,1848.4,47.9,105.9,39.8,594.0,3665.0,5.0,1,
129313,1871.9,23.2,98.4,57.3,642.0,3679.0,4.0,1,
129513,1860.0,8.4,98.4,49.8,642.0,3679.0,4.0,1,
129613,1860.3,9.2,98.4,47.8,642.0,3679.0,4.0,1,
129713,1858.9,10.6,98.4,81.9,642.0,3679.0,4.0,1,
129813,1857.7,10.2,98.3,239.8,642.0,3679.0,4.0,1,
129913,1859.0,10.0,98.3,239.5,642.0,3679.0,4.0,1,
130013,1858.8,8.5,98.3,239.8,642.0,3679.0,4.0,1,
130113,1858.8,8.5,98.3,240.3,642.0,3679.0,4.0,1,
130213,1859.1,11.1,98.3,240.3,642.0,3679.0,4.0,1,
130313,1866.7,44.6,93.0,239.9,619.0,4683.0,5.0,1,
130513,1842.7,244.6,112.5,35.1,891.0,4819.0,3.0,1,
130613,1880.2,254.3,124.1,38.0,915.0,4449.0,2.0,0,
130713,1871.2,244.2,143.6,99.9,930.0,3769.0,2.0,0,
130813,1867.2,210.7,151.8,229.8,1422.0,4511.0,2.0,0,
130913,1842.2,64.9,161.8,230.4,745.0,3231.0,2.0,0,
131013,1858.9,13.3,161.8,197.6,745.0,3231.0,2.0,0,
131113,1855.5,8.7,161.9,163.1,745.0,3231.0,2.0,0,
131213,1859.1,10.5,162.0,155.4,745.0,3231.0,2.0,0,
131313,1856.5,9.6,162.0,154.6,745.0,3231.0,2.0,0,
131513,1858.5,10.3,162.0,240.0,745.0,3231.0,2.0,0,
131613,1858.0,10.1,162.0,239.8,745.0,3231.0,2.0,0,
131713,1857.9,9.2,162.1,239.7,745.0,3231.0,2.0,0,
131813,1858.8,10.0,162.1,240.1,745.0,3231.0,2.0,0,
131913,1859.3,62.2,163.8,209.1,745.0,3231.0,2.0,0,
132013,1844.2,168.8,159.6,48.3,625.0,4652.0,6.0,1,
132113,1886.0,209.4,153.6,46.0,1266.0,4920.0,2.0,0,
132213,1861.9,204.1,161.9,41.4,764.0,3801.0,2.0,0,
132313,1856.0,229.6,155.9,99.9,1731.0,4908.0,2.0,0,
132513,1875.8,109.2,157.1,261.3,762.0,3701.0,2.0,0,
132613,1862.8,13.4,157.1,250.3,762.0,3701.0,2.0,0,
132713,1857.4,10.9,157.1,104.0,762.0,3701.0,2.0,0,
132813,1856.4,10.7,157.1,36.1,762.0,3701.0,2.0,0,
132913,1856.4,12.2,157.1,39.7,762.0,3701.0,2.0,0,
133013,1858.5,11.5,157.1,240.3,762.0,3701.0,2.0,0,
133113,1857.9,10.8,157.1,240.2,762.0,3701.0,2.0,0,
133213,1857.8,10.6,157.1,240.0,762.0,3701.0,2.0,0,
133313,1858.3,10.0,157.1,239.9,762.0,3701.0,2.0,0,
133513,1865.6,97.5,157.2,239.8,762.0,3701.0,2.0,0,
133613,1887.0,82.3,160.1,37.4,700.0,4717.0,5.0,1,
133713,1848.5,154.0,155.6,36.0,667.0,3312.0,2.0,0,
133813,1864.6,242.3,146.2,36.4,1797.0,4483.0,2.0,0,
133913,1854.6,221.7,153.0,36.6,760.0,3601.0,2.0,0,
134013,1875.5,228.8,147.4,123.8,1738.0,4822.0,2.0,0,
134113,1859.0,142.5,149.6,214.6,779.0,3537.0,2.0,0,
134213,1849.9,16.8,148.4,226.5,798.0,3663.0,3.0,1,
134313,1857.6,10.6,148.4,194.7,798.0,3663.0,3.0,1,
134513,1858.7,10.0,148.3,99.2,798.0,3663.0,3.0,1,
134613,1857.8,9.3,148.3,239.6,798.0,3663.0,3.0,1,
134713,1857.6,11.5,148.3,240.0,798.0,3663.0,3.0,1,
134813,1858.8,10.5,148.3,239.9,798.0,3663.0,3.0,1,
134913,1858.3,9.6,148.3,239.9,798.0,3663.0,3.0,1,
135013,1858.8,9.4,148.3,239.8,798.0,3663.0,3.0,1,
135113,1858.9,12.1,148.3,239.8,798.0,3663.0,3.0,1,
135213,1853.5,162.6,145.3,187.8,795.0,3913.0,2.0,0,
135313,1871.1,237.3,152.9,29.8,1830.0,5686.0,3.0,1,
135513,1875.5,177.0,156.1,187.1,1779.0,4732.0,2.0,0,
135613,1844.5,164.0,156.9,252.7,817.0,3949.0,2.0,0,
135713,1858.5,247.6,152.0,260.9,1985.0,5397.0,2.0,0,
135813,1858.6,25.2,157.1,260.9,805.0,3638.0,2.0,0,
135913,1859.1,12.1,157.1,165.8,805.0,3638.0,2.0,0,
136013,1854.1,13.3,157.2,150.2,805.0,3638.0,2.0,0,
136113,1853.6,10.7,157.3,154.3,805.0,3638.0,2.0,0,
136213,1859.3,10.1,157.3,237.4,805.0,3638.0,2.0,0,
136313,1859.7,9.7,157.2,240.0,805.0,3638.0,2.0,0,
136513,1856.9,9.0,157.3,239.8,805.0,3638.0,2.0,0,
136613,1859.0,10.5,157.3,239.8,805.0,3638.0,2.0,0,
136713,1858.8,10.3,157.3,240.1,805.0,3638.0,2.0,0,
136813,1843.1,81.7,160.1,56.7,728.0,4828.0,6.0,1,
136913,1900.5,179.8,156.4,47.7,784.0,4793.0,2.0,0,
137013,1842.2,252.3,154.9,46.4,1644.0,5311.0,2.0,0,
137113,1856.1,242.0,160.1,52.9,869.0,4260.0,2.0,0,
137213,1864.7,258.9,158.8,152.9,1818.0,5649.0,2.0,0,
137313,1865.4,163.3,158.2,220.5,864.0,4306.0,2.0,0,
137513,1858.5,12.5,153.7,199.2,864.0,4306.0,2.0,0,
137613,1857.2,9.8,153.7,67.6,864.0,4306.0,2.0,0,
137713,1857.5,9.9,153.6,35.1,864.0,4306.0,2.0,0,
137813,1858.8,11.9,153.6,74.6,864.0,4306.0,2.0,0,
137913,1858.2,9.4,153.6,240.1,864.0,4306.0,2.0,0,
138013,1860.2,8.3,153.6,240.0,864.0,4306.0,2.0,0,
138113,1859.9,9.5,153.5,240.2,864.0,4306.0,2.0,0,
138213,1859.8,9.9,153.5,240.1,864.0,4306.0,2.0,0,
138313,1857.3,9.4,153.5,240.0,864.0,4306.0,2.0,0,
138513,1844.8,280.0,167.1,36.2,1483.0,5469.0,2.0,0,
138613,1862.2,242.3,170.7,36.2,817.0,4279.0,2.0,0,
138713,1849.9,238.4,167.5,39.9,1853.0,5856.0,2.0,0,
138813,1897.9,186.9,161.9,134.4,828.0,4475.0,3.0,1,
138913,1840.3,222.5,163.5,260.5,1528.0,5063.0,2.0,0,
139013,1856.5,53.9,164.3,261.0,865.0,4413.0,3.0,1,
139113,1859.0,12.8,164.4,199.4,865.0,4413.0,3.0,1,
139213,1858.3,10.2,164.3,164.7,865.0,4413.0,3.0,1,
139313,1857.4,9.4,164.3,109.7,865.0,4413.0,3.0,1,
139513,1858.3,9.9,164.3,240.2,865.0,4413.0,3.0,1,
139613,1859.0,10.1,164.3,240.1,865.0,4413.0,3.0,1,
139713,1859.1,8.9,164.3,240.0,865.0,4413.0,3.0,1,
139813,1859.0,9.2,164.4,240.1,865.0,4413.0,3.0,1,
139913,1860.4,10.3,164.3,240.1,865.0,4413.0,3.0,1,
140013,1849.8,26.0,162.9,239.9,604.0,4531.0,7.0,1,
140113,1869.7,223.4,157.2,52.7,792.0,4260.0,2.0,0,
140213,1875.4,198.1,153.8,30.2,1861.0,5786.0,2.0,0,
140313,1866.0,158.0,147.1,30.2,950.0,4988.0,2.0,0,
140513,1867.3,181.4,150.3,230.7,889.0,4425.0,2.0,0,
140613,1861.8,107.3,149.9,199.7,795.0,3588.0,2.0,0,
140713,1861.5,13.3,149.9,197.9,795.0,3588.0,2.0,0,
140813,1860.5,10.0,149.8,123.6,795.0,3588.0,2.0,0,
140913,1856.8,9.4,149.8,93.8,795.0,3588.0,2.0,0,
141013,1855.2,11.6,149.9,93.3,795.0,3588.0,2.0,0,
141113,1858.4,9.7,149.9,239.7,795.0,3588.0,2.0,0,
141213,1858.0,9.9,149.9,240.1,795.0,3588.0,2.0,0,
141313,1858.3,9.1,149.9,240.2,795.0,3588.0,2.0,0,
141513,1860.3,10.5,149.9,240.1,795.0,3588.0,2.0,0,
141613,1873.4,156.4,150.5,239.7,795.0,3588.0,2.0,0,
141713,1865.9,243.5,162.1,36.0,1779.0,6245.0,2.0,0,
141813,1849.4,211.8,164.9,37.7,791.0,4562.0,2.0,0,
141913,1851.2,284.3,168.5,123.1,1609.0,5329.0,2.0,0,
142013,1864.8,273.5,172.7,196.7,568.0,3480.0,28.0,0,
142113,1867.1,269.8,177.7,158.8,1694.0,4949.0,2.0,0,
142213,1866.9,207.5,180.5,90.9,697.0,3725.0,2.0,0,
142313,1850.4,19.4,180.6,123.3,680.0,3352.0,2.0,0,
142513,1860.1,10.0,180.5,37.3,680.0,3352.0,2.0,0,
142613,1859.7,9.6,180.4,36.0,680.0,3352.0,2.0,0,
142713,1860.5,10.7,180.4,238.6,680.0,3352.0,2.0,0,
142813,1860.1,9.7,180.3,240.3,680.0,3352.0,2.0,0,
142913,1860.0,9.2,180.3,240.2,680.0,3352.0,2.0,0,
143013,1858.5,8.8,180.3,240.1,680.0,3352.0,2.0,0,
143113,1859.5,10.0,180.3,240.0,680.0,3352.0,2.0,0,
143213,1861.3,10.8,180.3,240.0,680.0,3352.0,2.0,0,
143313,1862.7,189.7,176.0,43.2,689.0,4902.0,6.0,1,
143513,1878.7,252.0,174.0,34.6,825.0,4380.0,2.0,0,
143613,1859.5,276.0,177.8,51.5,1652.0,5194.0,28.0,0,
143713,1848.1,243.2,177.9,182.8,571.0,3602.0,2.0,0,
143813,1853.7,289.9,175.3,228.3,1554.0,4826.0,2.0,0,
143913,1858.4,28.4,177.7,227.1,659.0,3215.0,2.0,0,
144013,1859.2,11.2,177.7,156.0,659.0,3215.0,2.0,0,
144113,1861.1,9.6,177.7,124.9,659.0,3215.0,2.0,0,
144213,1859.7,9.0,177.7,99.7,659.0,3215.0,2.0,0,
144313,1859.2,8.3,177.7,184.9,659.0,3215.0,2.0,0,
144513,1859.5,9.9,177.7,240.1,659.0,3215.0,2.0,0,
144613,1858.3,8.8,177.7,239.8,659.0,3215.0,2.0,0,
144713,1859.5,10.1,177.7,239.7,659.0,3215.0,2.0,0,
144813,1859.4,8.8,177.8,239.9,659.0,3215.0,2.0,0,
144913,1844.4,75.9,177.9,69.5,762.0,5233.0,5.0,1,
145013,1896.2,195.7,171.6,51.5,769.0,4637.0,2.0,0,
145113,1835.6,261.8,174.5,47.2,1289.0,5456.0,2.0,0,
145213,1858.8,240.1,172.6,45.0,722.0,4193.0,2.0,0,
145313,1858.1,246.5,168.7,131.2,1579.0,4840.0,2.0,0,
145513,1855.1,40.4,164.2,125.7,672.0,3188.0,2.0,0,
145613,1860.0,11.8,164.1,69.3,672.0,3188.0,2.0,0,
145713,1860.4,8.0,164.1,37.1,672.0,3188.0,2.0,0,
145813,1857.8,9.4,164.2,35.1,672.0,3188.0,2.0,0,
145913,1858.5,9.6,164.2,71.4,672.0,3188.0,2.0,0,
146013,1858.5,9.4,164.2,239.7,672.0,3188.0,2.0,0,
146113,1860.3,9.9,164.2,239.8,672.0,3188.0,2.0,0,
146213,1861.4,9.8,164.1,239.8,672.0,3188.0,2.0,0,
146313,1859.5,8.6,164.1,239.9,672.0,3188.0,2.0,0,
146513,1878.8,126.8,164.8,57.3,672.0,3188.0,2.0,0,
146613,1840.0,40.8,162.2,35.8,579.0,3809.0,6.0,1,
146713,1868.3,196.0,153.1,35.6,818.0,3848.0,2.0,0,
146813,1859.3,233.1,150.6,36.2,1675.0,4681.0,3.0,1,
146913,1879.3,139.0,143.3,73.3,1022.0,4217.0,3.0,1,
147013,1832.8,232.2,140.4,164.4,1728.0,4999.0,2.0,0,
147113,1863.3,53.5,140.0,227.3,1002.0,4045.0,3.0,1,
147213,1859.8,10.8,140.0,198.0,1002.0,4045.0,3.0,1,
147313,1859.4,9.9,140.0,156.1,1002.0,4045.0,3.0,1,
147513,1857.6,13.5,140.1,93.2,1002.0,4045.0,3.0,1,
147613,1867.0,9.6,140.0,240.1,1002.0,4045.0,3.0,1,
147713,1861.7,10.2,139.9,239.8,1002.0,4045.0,3.0,1,
147813,1860.1,9.1,139.9,239.9,1002.0,4045.0,3.0,1,
147913,1861.2,9.6,139.9,240.2,1002.0,4045.0,3.0,1,
148013,1860.1,9.2,139.9,240.2,1002.0,4045.0,3.0,1,
148113,1846.3,44.9,137.9,239.6,623.0,4828.0,4.0,1,
148213,1872.0,127.2,138.7,51.8,653.0,4614.0,4.0,1,
148313,1868.5,45.2,137.2,37.7,627.0,4102.0,5.0,1,
148513,1846.8,253.3,129.5,41.0,1711.0,5259.0,2.0,0,
148613,1860.4,206.7,134.9,73.2,1046.0,4421.0,3.0,1,
148713,1854.2,100.8,130.1,157.9,1042.0,3713.0,2.0,0,
148813,1859.3,16.4,130.2,195.3,1042.0,3713.0,2.0,0,
148913,1857.6,10.6,130.2,140.7,1042.0,3713.0,2.0,0,
149013,1861.1,9.9,130.1,101.1,1042.0,3713.0,2.0,0,
149113,1862.2,8.7,130.0,101.9,1042.0,3713.0,2.0,0,
149213,1861.8,10.7,130.1,240.0,1042.0,3713.0,2.0,0,
149313,1860.7,9.4,130.1,239.8,1042.0,3713.0,2.0,0,
149513,1859.3,9.8,130.2,240.1,1042.0,3713.0,2.0,0,
149613,1858.3,9.5,130.2,240.0,1042.0,3713.0,2.0,0,
149713,1877.0,100.5,131.3,239.6,1042.0,3713.0,2.0,0,
149813,1838.7,53.3,129.0,43.4,488.0,3602.0,3.0,1,
149913,1860.1,153.0,130.0,42.5,513.0,3570.0,6.0,1,
150013,1851.3,275.1,148.4,44.3,1331.0,4194.0,2.0,0,
150113,1874.4,180.1,148.2,38.6,888.0,3617.0,3.0,1,
150213,1871.1,218.4,147.8,53.7,1832.0,4823.0,2.0,0,
150313,1856.8,138.2,144.7,134.9,1014.0,4067.0,3.0,1,
150513,1858.6,9.6,143.6,132.8,1014.0,4067.0,3.0,1,
150613,1854.0,9.2,143.7,37.8,1014.0,4067.0,3.0,1,
150713,1865.0,10.0,143.7,36.5,1014.0,4067.0,3.0,1,
150813,1862.9,8.7,143.7,238.5,1014.0,4067.0,3.0,1,
150913,1860.8,9.1,143.7,240.3,1014.0,4067.0,3.0,1,
151013,1860.3,9.5,143.6,240.2,1014.0,4067.0,3.0,1,
151113,1859.8,9.5,143.6,239.9,1014.0,4067.0,3.0,1,
151213,1859.5,8.9,143.6,239.9,1014.0,4067.0,3.0,1,
151313,1860.7,9.8,143.6,239.9,1014.0,4067.0,3.0,1,
151513,1847.5,71.9,147.8,37.8,544.0,4183.0,6.0,1,
151613,1895.3,211.6,137.5,38.4,581.0,3498.0,28.0,0,
151713,1850.2,256.8,147.8,39.2,1397.0,4741.0,2.0,0,
151813,1857.4,241.2,150.2,54.9,597.0,3480.0,28.0,0,
151913,1852.4,307.2,156.4,132.0,1564.0,4482.0,2.0,0,
152013,1860.3,30.9,161.7,198.6,681.0,3132.0,2.0,0,
152113,1858.7,12.6,161.7,153.3,681.0,3132.0,2.0,0,
152213,1856.2,10.5,161.6,124.9,681.0,3132.0,2.0,0,
152313,1860.0,9.8,161.7,93.6,681.0,3132.0,2.0,0,
152513,1859.7,9.0,161.8,240.2,681.0,3132.0,2.0,0,
152613,1859.4,9.0,161.8,240.2,681.0,3132.0,2.0,0,
152713,1859.8,10.0,161.8,239.9,681.0,3132.0,2.0,0,
152813,1860.5,10.1,161.8,239.9,681.0,3132.0,2.0,0,
152913,1858.6,9.4,161.8,239.9,681.0,3132.0,2.0,0,
153013,1851.7,60.6,159.5,239.3,599.0,4208.0,4.0,1,
153113,1881.5,88.0,157.8,67.3,560.0,3960.0,4.0,1,
153213,1839.8,42.5,155.2,65.5,579.0,3301.0,3.0,1,
153313,1868.2,159.8,139.8,55.7,816.0,4139.0,2.0,0,
153513,1897.6,140.3,123.7,100.1,879.0,4284.0,3.0,1,
153613,1842.9,29.8,111.8,164.4,954.0,4735.0,3.0,1,
153713,1857.7,12.3,111.8,194.6,954.0,4735.0,3.0,1,
153813,1860.1,9.6,111.8,104.7,954.0,4735.0,3.0,1,
153913,1860.6,9.5,111.7,66.9,954.0,4735.0,3.0,1,
154013,1861.2,9.9,111.7,213.4,954.0,4735.0,3.0,1,
154113,1859.2,9.9,111.7,239.9,954.0,4735.0,3.0,1,
154213,1860.4,9.1,111.7,240.0,954.0,4735.0,3.0,1,
154313,1859.8,10.3,111.7,240.0,954.0,4735.0,3.0,1,
154513,1859.3,10.3,111.8,239.6,954.0,4735.0,3.0,1,
154613,1874.6,129.0,114.7,158.3,954.0,4735.0,3.0,1,
154713,1847.2,61.2,114.5,35.8,604.0,4047.0,4.0,1,
154813,1859.5,133.4,114.8,35.5,559.0,3685.0,4.0,1,
154913,1866.7,57.0,116.9,37.6,673.0,4011.0,3.0,1,
155013,1864.1,126.0,102.9,67.4,963.0,4581.0,2.0,0,
155113,1841.0,220.6,103.0,65.5,958.0,4426.0,2.0,0,
155213,1862.5,53.1,113.1,90.0,1093.0,4852.0,3.0,1,
155313,1858.2,13.2,113.1,158.7,1093.0,4852.0,3.0,1,
155513,1860.0,9.6,113.1,100.7,1093.0,4852.0,3.0,1,
155613,1861.0,10.0,113.1,104.8,1093.0,4852.0,3.0,1,
155713,1861.8,9.2,113.1,240.1,1093.0,4852.0,3.0,1,
155813,1859.2,9.9,113.1,240.2,1093.0,4852.0,3.0,1,
155913,1859.5,8.3,113.1,239.9,1093.0,4852.0,3.0,1,
156013,1858.5,8.7,113.1,239.6,1093.0,4852.0,3.0,1,
156113,1862.0,10.1,113.1,239.9,1093.0,4852.0,3.0,1,
156213,1848.3,47.4,112.0,239.8,612.0,4487.0,4.0,1,
156313,1869.0,123.4,110.7,67.5,700.0,4854.0,4.0,1,
156513,1853.5,203.4,120.0,43.9,688.0,3415.0,2.0,0,
156613,1852.8,319.6,139.1,36.9,1849.0,4662.0,28.0,0,
156713,1861.5,267.3,152.6,35.8,752.0,3535.0,2.0,0,
156813,1864.6,96.6,150.5,130.6,667.0,3430.0,2.0,0,
156913,1857.8,17.9,150.5,163.9,667.0,3430.0,2.0,0,
157013,1856.6,10.7,150.5,93.4,667.0,3430.0,2.0,0,
157113,1858.8,8.9,150.5,82.7,667.0,3430.0,2.0,0,
157213,1860.3,9.5,150.6,89.5,667.0,3430.0,2.0,0,
157313,1859.7,10.5,150.6,239.8,667.0,3430.0,2.0,0,
157513,1858.6,9.7,150.6,239.7,667.0,3430.0,2.0,0,
157613,1859.8,9.7,150.6,239.9,667.0,3430.0,2.0,0,
157713,1857.3,10.2,150.7,240.2,667.0,3430.0,2.0,0,
157813,1884.7,103.8,151.9,239.7,667.0,3430.0,2.0,0,
157913,1838.6,68.7,154.0,38.7,578.0,4130.0,7.0,1,
158013,1858.5,156.9,155.4,38.1,586.0,4196.0,6.0,1,
158113,1857.0,69.0,153.4,40.5,647.0,4685.0,5.0,1,
158213,1872.4,244.6,146.0,49.2,736.0,3435.0,2.0,0,
158313,1861.2,244.8,143.6,37.7,1821.0,4823.0,2.0,0,
158513,1856.1,20.9,149.2,144.5,1821.0,4823.0,2.0,0,
158613,1858.4,11.2,149.1,132.9,1821.0,4823.0,2.0,0,
158713,1858.7,10.8,149.1,56.8,1821.0,4823.0,2.0,0,
158813,1861.6,9.8,149.1,36.1,1821.0,4823.0,2.0,0,
158913,1857.5,10.1,149.1,239.4,1821.0,4823.0,2.0,0,
159013,1858.1,10.2,149.1,240.0,1821.0,4823.0,2.0,0,
159113,1860.4,10.3,149.1,239.7,1821.0,4823.0,2.0,0,
159213,1860.2,10.9,149.1,240.1,1821.0,4823.0,2.0,0,
159313,1859.5,9.4,149.1,240.1,1821.0,4823.0,2.0,0,
159513,1850.7,234.9,150.3,73.2,732.0,4692.0,2.0,0,
159613,1852.0,126.2,161.1,30.0,1452.0,4954.0,26.0,0,
159713,1888.9,121.4,159.8,37.4,591.0,4356.0,6.0,1,
159813,1841.6,48.4,155.5,53.3,688.0,4399.0,6.0,1,
159913,1857.7,186.2,145.3,56.0,604.0,3582.0,28.0,0,
160013,1862.9,71.3,124.2,48.1,646.0,4333.0,4.0,1,
160113,1855.3,14.1,117.9,48.8,645.0,4163.0,5.0,1,
160213,1862.5,11.6,117.9,49.8,645.0,4163.0,5.0,1,
160313,1860.8,11.1,117.9,53.8,645.0,4163.0,5.0,1,
160513,1859.5,12.2,117.9,239.6,645.0,4163.0,5.0,1,
160613,1859.8,11.5,117.9,239.9,645.0,4163.0,5.0,1,
160713,1860.3,12.0,117.9,239.8,645.0,4163.0,5.0,1,
160813,1859.5,11.0,117.9,240.0,645.0,4163.0,5.0,1,
160913,1859.6,10.3,117.9,240.0,645.0,4163.0,5.0,1,
161013,1858.7,10.4,117.9,240.0,645.0,4163.0,5.0,1,
161113,1866.0,209.1,132.7,67.3,1730.0,5905.0,2.0,0,
161213,1863.2,175.8,129.2,39.0,625.0,4159.0,2.0,0,
161313,1843.8,66.9,129.3,76.5,547.0,3896.0,5.0,1,
161513,1856.8,52.4,128.3,40.3,547.0,3447.0,3.0,1,
161613,1885.5,125.4,121.5,67.0,710.0,3405.0,3.0,1,
161713,1850.4,26.6,124.3,66.2,784.0,3535.0,3.0,1,
161813,1859.4,15.1,124.4,36.0,784.0,3535.0,3.0,1,
161913,1856.1,13.1,124.5,30.2,784.0,3535.0,3.0,1,
162013,1857.9,12.2,124.5,35.6,784.0,3535.0,3.0,1,
162113,1860.5,9.5,124.5,183.0,784.0,3535.0,3.0,1,
162213,1860.4,10.1,124.4,240.1,784.0,3535.0,3.0,1,
162313,1859.2,11.1,124.5,240.1,784.0,3535.0,3.0,1,
162513,1859.6,11.7,124.5,239.7,784.0,3535.0,3.0,1,
162613,1860.0,11.6,124.5,240.0,784.0,3535.0,3.0,1,
162713,1870.0,146.9,117.0,99.1,784.0,3535.0,3.0,1,
162813,1852.2,56.0,92.3,35.7,528.0,3661.0,6.0,1,
162913,1868.4,219.0,91.9,35.5,549.0,3955.0,4.0,1,
163013,1879.4,208.4,116.4,38.1,1766.0,4847.0,3.0,1,
163113,1855.9,161.4,123.8,39.2,1010.0,4647.0,3.0,1,
163213,1845.2,225.2,134.7,66.4,1046.0,4975.0,3.0,1,
163313,1866.1,52.0,140.2,196.2,1030.0,4464.0,2.0,0,
163513,1861.3,10.6,140.3,155.9,1030.0,4464.0,2.0,0,
163613,1860.3,11.4,140.2,93.9,1030.0,4464.0,2.0,0,
163713,1859.5,11.0,140.2,104.2,1030.0,4464.0,2.0,0,
163813,1860.1,13.0,140.3,240.1,1030.0,4464.0,2.0,0,
163913,1859.7,10.8,140.3,240.2,1030.0,4464.0,2.0,0,
164013,1860.5,11.2,140.2,240.0,1030.0,4464.0,2.0,0,
164113,1860.3,11.6,140.2,240.0,1030.0,4464.0,2.0,0,
164213,1859.5,11.5,140.2,240.2,1030.0,4464.0,2.0,0,
164313,1846.8,51.4,138.4,239.9,633.0,4661.0,4.0,1,
164513,1853.4,55.0,138.3,37.7,594.0,4062.0,6.0,1,
164613,1860.1,203.0,131.3,36.1,714.0,3838.0,2.0,0,
164713,1851.6,264.3,135.3,36.1,1557.0,5827.0,2.0,0,
164813,1869.6,173.7,137.4,51.5,1052.0,4980.0,3.0,1,
164913,1860.9,75.9,130.1,152.1,1021.0,5199.0,4.0,1,
165013,1856.7,15.2,130.1,198.3,1021.0,5199.0,4.0,1,
165113,1855.7,10.9,130.1,158.3,1021.0,5199.0,4.0,1,
165213,1859.5,9.8,130.1,145.1,1021.0,5199.0,4.0,1,
165313,1860.6,11.3,130.1,155.4,1021.0,5199.0,4.0,1,
165513,1859.6,11.2,130.1,240.3,1021.0,5199.0,4.0,1,
165613,1859.2,9.8,130.1,240.0,1021.0,5199.0,4.0,1,
165713,1858.8,10.7,130.1,240.0,1021.0,5199.0,4.0,1,
165813,1861.1,11.9,130.1,240.2,1021.0,5199.0,4.0,1,
165913,1882.9,90.5,131.2,239.7,1021.0,5199.0,4.0,1,
166013,1833.3,50.0,129.9,38.6,559.0,3805.0,5.0,1,
166113,1862.1,148.0,129.6,37.4,585.0,3830.0,6.0,1,
166213,1857.4,47.5,127.2,39.6,702.0,4380.0,3.0,1,
166313,1889.1,138.9,109.7,50.1,823.0,3873.0,3.0,1,
166513,1858.7,112.2,112.2,77.4,1083.0,4655.0,3.0,1,
166613,1866.0,17.1,111.8,142.5,1083.0,4655.0,3.0,1,
166713,1856.8,13.5,111.8,135.0,1083.0,4655.0,3.0,1,
166813,1853.0,11.6,111.9,69.1,1083.0,4655.0,3.0,1,
166913,1866.9,11.1,111.8,41.0,1083.0,4655.0,3.0,1,
167013,1860.4,9.8,111.8,239.8,1083.0,4655.0,3.0,1,
167113,1859.8,10.3,111.8,239.8,1083.0,4655.0,3.0,1,
167213,1859.7,12.1,111.8,240.0,1083.0,4655.0,3.0,1,
167313,1858.5,10.3,111.8,240.0,1083.0,4655.0,3.0,1,
167513,1860.9,8.0,111.8,240.0,1083.0,4655.0,3.0,1,
167613,1864.2,145.1,111.9,39.4,583.0,4438.0,5.0,1,
167713,1855.6,53.3,111.4,35.3,470.0,3172.0,5.0,1,
167813,1886.9,106.1,111.4,35.2,513.0,3452.0,3.0,1,
167913,1840.6,47.5,112.1,37.0,722.0,4604.0,3.0,1,
168013,1867.8,218.6,107.0,46.3,661.0,3241.0,2.0,0,
168113,1855.4,240.8,110.3,38.4,1572.0,4558.0,2.0,0,
168213,1857.7,22.5,115.4,36.0,773.0,3441.0,3.0,1,
168313,1857.3,13.3,115.4,99.7,773.0,3441.0,3.0,1,
168513,1856.7,11.4,115.3,144.3,773.0,3441.0,3.0,1,
168613,1857.7,12.9,115.4,239.6,773.0,3441.0,3.0,1,
168713,1859.5,11.6,115.4,240.1,773.0,3441.0,3.0,1,
168813,1859.0,10.6,115.4,239.9,773.0,3441.0,3.0,1,
168913,1859.6,10.2,115.4,240.1,773.0,3441.0,3.0,1,
169013,1858.5,11.0,115.4,240.0,773.0,3441.0,3.0,1,
169113,1859.9,10.8,115.4,239.8,773.0,3441.0,3.0,1,
169213,1862.1,63.3,111.7,237.2,587.0,3995.0,4.0,1,
169313,1863.5,113.4,112.7,66.1,607.0,3874.0,4.0,1,
169513,1874.0,238.6,115.4,53.3,679.0,3304.0,2.0,0,
169613,1860.0,205.9,134.3,48.1,1659.0,4770.0,2.0,0,
169713,1877.9,155.2,125.2,44.4,750.0,3505.0,2.0,0,
169813,1850.0,32.1,122.8,122.2,783.0,3773.0,2.0,0,
169913,1858.6,12.2,122.8,187.7,783.0,3773.0,2.0,0,
170013,1857.6,10.6,122.8,37.7,783.0,3773.0,2.0,0,
170113,1859.6,10.3,122.8,35.4,783.0,3773.0,2.0,0,
170213,1860.2,10.5,122.8,88.3,783.0,3773.0,2.0,0,
170313,1859.3,10.9,122.7,240.1,783.0,3773.0,2.0,0,
170513,1859.5,10.9,122.7,240.0,783.0,3773.0,2.0,0,
170613,1860.3,12.2,122.7,240.0,783.0,3773.0,2.0,0,
170713,1858.2,9.9,122.8,240.1,783.0,3773.0,2.0,0,
170813,1866.9,143.5,126.3,79.8,783.0,3773.0,2.0,0,
170913,1846.9,76.6,126.3,35.2,569.0,3724.0,5.0,1,
171013,1874.0,212.9,127.9,35.2,480.0,3447.0,6.0,1,
171113,1862.6,54.2,131.9,38.8,742.0,4605.0,3.0,1,
171213,1862.3,179.8,127.6,50.6,742.0,3705.0,3.0,1,
171313,1842.4,214.6,129.7,49.5,1047.0,3992.0,2.0,0,
171513,1857.8,12.8,128.5,159.2,1047.0,3992.0,2.0,0,
171613,1855.1,12.7,128.5,158.9,1047.0,3992.0,2.0,0,
171713,1861.3,11.5,128.5,92.0,1047.0,3992.0,2.0,0,
171813,1860.2,11.2,128.5,87.8,1047.0,3992.0,2.0,0,
171913,1859.0,11.0,128.5,240.2,1047.0,3992.0,2.0,0,
172013,1858.5,11.6,128.5,240.0,1047.0,3992.0,2.0,0,
172113,1861.2,11.8,128.5,240.1,1047.0,3992.0,2.0,0,
172213,1860.4,10.9,128.5,240.3,1047.0,3992.0,2.0,0,
172313,1860.2,11.2,128.5,240.2,1047.0,3992.0,2.0,0,
172513,1892.5,125.9,128.8,65.6,574.0,4090.0,4.0,1,
172613,1842.3,72.1,125.7,36.0,793.0,4882.0,4.0,1,
172713,1867.4,211.2,130.4,35.7,730.0,3880.0,2.0,0,
172813,1852.6,200.9,133.7,35.8,1087.0,4215.0,2.0,0,
172913,1878.2,208.0,123.3,69.6,837.0,4485.0,3.0,1,
173013,1849.7,78.5,130.1,197.8,814.0,3940.0,2.0,0,
173113,1858.6,15.1,130.1,219.4,814.0,3940.0,2.0,0,
173213,1856.3,11.9,130.1,144.3,814.0,3940.0,2.0,0,
173313,1859.4,11.9,130.1,133.4,814.0,3940.0,2.0,0,
173513,1859.3,12.5,130.1,240.4,814.0,3940.0,2.0,0,
173613,1861.2,10.6,130.1,240.0,814.0,3940.0,2.0,0,
173713,1858.6,10.4,130.1,240.0,814.0,3940.0,2.0,0,
173813,1860.7,11.4,130.1,240.2,814.0,3940.0,2.0,0,
173913,1859.2,10.7,130.1,240.1,814.0,3940.0,2.0,0,
174013,1876.9,93.2,131.2,239.7,814.0,3940.0,2.0,0,
174113,1831.7,45.5,129.3,40.1,595.0,4056.0,5.0,1,
174213,1866.4,192.9,133.9,39.1,619.0,3162.0,2.0,0,
174313,1848.1,238.4,140.4,41.9,1432.0,5965.0,2.0,0,
174513,1826.2,193.5,142.1,101.0,1169.0,4845.0,2.0,0,
174613,1867.5,105.2,135.3,202.2,1158.0,4670.0,3.0,1,
174713,1866.5,15.0,135.1,197.9,1158.0,4670.0,3.0,1,
174813,1858.8,10.6,135.0,135.1,1158.0,4670.0,3.0,1,
174913,1859.9,10.4,135.1,39.5,1158.0,4670.0,3.0,1,
175013,1860.1,10.1,135.0,40.2,1158.0,4670.0,3.0,1,
175113,1859.5,9.1,135.0,240.0,1158.0,4670.0,3.0,1,
175213,1861.2,10.8,135.0,239.9,1158.0,4670.0,3.0,1,
175313,1858.8,11.1,135.0,239.7,1158.0,4670.0,3.0,1,
175513,1859.2,10.9,135.0,240.1,1158.0,4670.0,3.0,1,
175613,1860.4,12.1,134.9,240.2,1158.0,4670.0,3.0,1,
175713,1865.0,237.0,137.2,39.3,678.0,4956.0,4.0,1,
175813,1864.0,233.4,154.4,30.2,1043.0,4866.0,2.0,0,
175913,1869.7,218.0,153.8,36.2,693.0,3592.0,2.0,0,
176013,1838.0,130.2,155.6,42.0,567.0,3788.0,5.0,1,
176113,1870.2,246.1,153.6,101.1,596.0,3171.0,28.0,0,
176213,1851.5,288.5,162.7,52.2,848.0,3538.0,27.0,0,
176313,1865.2,24.2,165.5,36.9,754.0,2953.0,2.0,0,
176513,1860.6,10.4,165.5,46.4,754.0,2953.0,2.0,0,
176613,1860.7,12.6,165.5,43.0,754.0,2953.0,2.0,0,
176713,1860.6,11.8,165.4,238.3,754.0,2953.0,2.0,0,
176813,1861.0,11.5,165.5,240.1,754.0,2953.0,2.0,0,
176913,1860.7,11.5,165.4,240.1,754.0,2953.0,2.0,0,
177013,1859.5,11.4,165.4,240.0,754.0,2953.0,2.0,0,
177113,1860.2,11.6,165.4,240.1,754.0,2953.0,2.0,0,
177213,1859.3,10.6,165.4,240.1,754.0,2953.0,2.0,0,
177313,1868.0,70.4,162.7,237.3,806.0,5702.0,5.0,1,
177513,1841.9,161.4,157.3,29.9,661.0,4676.0,6.0,1,
177613,1875.1,241.3,152.6,37.2,542.0,3158.0,28.0,0,
177713,1863.6,269.3,167.3,49.4,764.0,3921.0,26.0,0,
177813,1869.1,235.2,163.3,48.5,680.0,3665.0,2.0,0,
177913,1850.0,35.4,163.0,71.4,556.0,2710.0,2.0,0,
178013,1858.5,12.5,163.0,88.3,556.0,2710.0,2.0,0,
178113,1857.7,11.7,163.1,35.7,556.0,2710.0,2.0,0,
178213,1859.0,10.6,163.1,35.5,556.0,2710.0,2.0,0,
178313,1860.7,12.5,163.1,87.8,556.0,2710.0,2.0,0,
178513,1860.8,10.5,163.1,240.5,556.0,2710.0,2.0,0,
178613,1858.9,10.8,163.2,240.6,556.0,2710.0,2.0,0,
178713,1859.4,10.6,163.2,240.3,556.0,2710.0,2.0,0,
178813,1859.3,12.2,163.2,240.2,556.0,2710.0,2.0,0,
178913,1857.5,246.2,166.6,89.3,1437.0,6570.0,2.0,0,
179013,1845.7,289.6,175.1,36.0,761.0,4445.0,2.0,0,
179113,1883.2,264.4,174.0,92.9,1001.0,4708.0,2.0,0,
179213,1861.7,229.9,183.0,163.9,635.0,3815.0,26.0,0,
179313,1855.8,269.2,178.7,229.6,1370.0,4411.0,26.0,0,
179513,1876.1,56.0,182.5,229.7,532.0,2578.0,2.0,0,
179613,1859.6,13.2,182.5,166.7,532.0,2578.0,2.0,0,
179713,1860.1,10.6,182.5,68.0,532.0,2578.0,2.0,0,
179813,1861.3,11.2,182.4,35.5,532.0,2578.0,2.0,0,
179913,1858.4,10.0,182.4,67.0,532.0,2578.0,2.0,0,
180013,1860.0,10.4,182.4,240.0,532.0,2578.0,2.0,0,
180113,1859.7,10.4,182.4,240.1,532.0,2578.0,2.0,0,
180213,1861.1,12.9,182.4,240.3,532.0,2578.0,2.0,0,
180313,1859.3,11.6,182.4,240.1,532.0,2578.0,2.0,0,
180513,1863.8,183.4,182.1,239.5,908.0,6746.0,6.0,1,
180613,1888.6,227.2,175.6,30.0,1130.0,5705.0,2.0,0,
180713,1833.6,229.1,180.3,29.9,860.0,4633.0,2.0,0,
180813,1864.3,282.1,173.6,92.7,1436.0,4610.0,26.0,0,
180913,1848.3,291.4,179.6,190.3,624.0,3306.0,26.0,0,
181013,1880.1,182.8,172.8,229.4,1154.0,3882.0,2.0,0,
181113,1845.7,30.8,165.7,198.9,591.0,4007.0,6.0,1,
181213,1859.7,11.3,165.7,85.2,591.0,4007.0,6.0,1,
181313,1859.4,10.8,165.7,65.9,591.0,4007.0,6.0,1,
181513,1860.2,12.0,165.8,204.3,591.0,4007.0,6.0,1,
181613,1861.7,10.2,165.7,240.1,591.0,4007.0,6.0,1,
181713,1858.7,11.9,165.8,240.1,591.0,4007.0,6.0,1,
181813,1859.2,10.6,165.8,240.0,591.0,4007.0,6.0,1,
181913,1861.1,10.9,165.8,239.7,591.0,4007.0,6.0,1,
182013,1860.6,11.9,165.8,239.6,591.0,4007.0,6.0,1,
182113,1874.3,45.4,165.8,240.0,921.0,6637.0,5.0,1,
182213,1831.7,213.3,162.9,73.4,782.0,4840.0,2.0,0,
182313,1868.8,117.6,154.0,39.5,570.0,4269.0,2.0,0,
182513,1878.2,74.6,122.8,38.8,576.0,3748.0,6.0,1,
182613,1842.5,109.2,103.8,45.7,627.0,3977.0,6.0,1,
182713,1862.0,53.5,102.4,52.6,668.0,4089.0,5.0,1,
182813,1865.8,12.6,102.4,56.0,668.0,4089.0,5.0,1,
182913,1862.0,11.2,102.4,39.2,668.0,4089.0,5.0,1,
183013,1861.0,9.9,102.3,37.5,668.0,4089.0,5.0,1,
183113,1861.2,9.5,102.3,66.9,668.0,4089.0,5.0,1,
183213,1861.1,9.2,102.3,240.1,668.0,4089.0,5.0,1,
183313,1859.4,10.7,102.3,240.2,668.0,4089.0,5.0,1,
183513,1859.7,9.9,102.3,240.1,668.0,4089.0,5.0,1,
183613,1858.9,10.6,102.3,240.1,668.0,4089.0,5.0,1,
183713,1858.7,107.4,102.3,240.3,668.0,4089.0,5.0,1,
183813,1857.9,274.1,117.8,36.9,1504.0,5582.0,2.0,0,
183913,1878.5,161.3,121.3,30.0,1284.0,4873.0,2.0,0,
184013,1856.4,65.1,124.4,38.9,538.0,3781.0,6.0,1,
184113,1845.4,163.4,122.6,45.7,475.0,2799.0,28.0,0,
184213,1870.4,79.2,128.7,38.0,475.0,2799.0,28.0,0,
184313,1857.8,152.2,122.8,44.2,598.0,3795.0,6.0,1,
184513,1860.2,11.7,126.5,37.9,598.0,3795.0,6.0,1,
184613,1858.7,10.2,126.5,29.7,598.0,3795.0,6.0,1,
184713,1860.2,12.2,126.6,30.2,598.0,3795.0,6.0,1,
184813,1861.8,9.9,126.6,239.0,598.0,3795.0,6.0,1,
184913,1859.7,11.0,126.6,240.1,598.0,3795.0,6.0,1,
185013,1859.5,11.4,126.6,240.1,598.0,3795.0,6.0,1,
185113,1859.0,12.1,126.6,240.2,598.0,3795.0,6.0,1,
185213,1860.9,12.2,126.6,240.0,598.0,3795.0,6.0,1,
185313,1859.4,10.7,126.6,239.8,598.0,3795.0,6.0,1,
185513,1850.2,82.9,107.9,29.8,617.0,4634.0,6.0,1,
185613,1847.5,147.0,103.0,35.2,570.0,4205.0,6.0,1,
185713,1869.3,80.8,110.5,40.0,570.0,4205.0,6.0,1,
185813,1875.1,93.3,100.3,49.2,560.0,3920.0,6.0,1,
185913,1858.8,123.8,112.9,54.8,871.0,3379.0,28.0,0,
186013,1847.2,20.3,108.2,50.5,673.0,4102.0,5.0,1,
186113,1860.7,13.9,108.2,46.2,673.0,4102.0,5.0,1,
186213,1860.8,12.6,108.2,50.0,673.0,4102.0,5.0,1,
186313,1861.2,12.4,108.2,56.2,673.0,4102.0,5.0,1,
186513,1860.4,11.7,108.2,240.2,673.0,4102.0,5.0,1,
186613,1860.5,10.2,108.2,240.1,673.0,4102.0,5.0,1,
186713,1858.6,10.8,108.2,240.3,673.0,4102.0,5.0,1,
186813,1860.9,12.3,108.2,240.1,673.0,4102.0,5.0,1,
186913,1859.4,10.7,108.2,240.0,673.0,4102.0,5.0,1,
187013,1857.8,290.9,123.3,73.4,1399.0,5392.0,2.0,0,
187113,1847.6,240.2,135.2,35.4,635.0,3938.0,2.0,0,
187213,1891.0,103.6,143.8,46.6,550.0,3559.0,28.0,0,
187313,1847.2,164.2,140.7,65.5,628.0,4024.0,6.0,1,
187513,1845.6,140.9,156.9,47.9,630.0,3976.0,6.0,1,
187613,1875.7,43.9,160.2,47.6,410.0,2241.0,2.0,0,
187713,1858.8,12.4,160.2,53.9,410.0,2241.0,2.0,0,
187813,1859.4,10.0,160.2,47.9,410.0,2241.0,2.0,0,
187913,1861.5,12.2,160.2,28.6,410.0,2241.0,2.0,0,
188013,1860.3,10.7,160.3,48.9,410.0,2241.0,2.0,0,
188113,1862.4,11.7,160.2,240.0,410.0,2241.0,2.0,0,
188213,1860.1,12.4,160.2,240.2,410.0,2241.0,2.0,0,
188313,1859.2,10.2,160.2,240.2,410.0,2241.0,2.0,0,
188513,1862.0,12.7,160.2,240.1,410.0,2241.0,2.0,0,
188613,1865.7,169.7,157.4,239.3,744.0,5655.0,6.0,1,
188713,1881.5,248.1,145.7,29.8,738.0,4547.0,2.0,0,
188813,1828.0,108.8,141.8,30.0,668.0,4275.0,6.0,1,
188913,1869.7,81.1,146.7,44.3,668.0,4275.0,6.0,1,
189013,1843.9,192.4,135.0,71.3,668.0,4130.0,6.0,1,
189113,1890.6,88.5,124.5,56.4,498.0,2668.0,28.0,0,
189213,1833.9,25.9,115.7,41.4,605.0,3919.0,6.0,1,
189313,1860.4,11.2,115.7,40.9,605.0,3919.0,6.0,1,
189513,1859.0,11.1,115.7,41.9,605.0,3919.0,6.0,1,
189613,1859.3,13.4,115.7,239.5,605.0,3919.0,6.0,1,
189713,1861.2,11.3,115.7,240.2,605.0,3919.0,6.0,1,
189813,1859.4,12.8,115.7,240.1,605.0,3919.0,6.0,1,
189913,1860.6,11.9,115.7,240.2,605.0,3919.0,6.0,1,
190013,1860.3,12.3,115.8,240.0,605.0,3919.0,6.0,1,
190113,1859.8,10.3,115.8,239.8,605.0,3919.0,6.0,1,
190213,1867.4,41.6,116.1,239.9,724.0,5329.0,5.0,1,
190313,1835.1,123.2,98.2,90.2,690.0,5003.0,7.0,1,
190513,1858.0,104.4,86.5,51.2,610.0,4390.0,6.0,1,
190613,1872.1,70.5,91.8,48.0,572.0,3809.0,6.0,1,
190713,1835.5,93.4,75.8,66.8,612.0,4080.0,6.0,1,
190813,1868.0,101.8,97.9,56.7,582.0,3234.0,28.0,0,
190913,1865.5,17.8,97.8,37.9,582.0,3234.0,28.0,0,
191013,1861.7,12.5,97.9,38.8,582.0,3234.0,28.0,0,
191113,1858.2,11.6,97.8,41.9,582.0,3234.0,28.0,0,
191213,1859.7,9.2,97.8,54.2,582.0,3234.0,28.0,0,
191313,1860.7,9.6,97.8,240.1,582.0,3234.0,28.0,0,
191513,1859.1,10.5,97.8,240.2,582.0,3234.0,28.0,0,
191613,1859.0,10.9,97.8,240.2,582.0,3234.0,28.0,0,
191713,1861.0,12.0,97.8,240.0,582.0,3234.0,28.0,0,
191813,1857.8,112.3,97.8,240.0,582.0,3234.0,28.0,0,
191913,1863.2,275.8,115.8,36.4,1399.0,4924.0,2.0,0,
192013,1877.6,238.4,134.5,29.8,766.0,4319.0,2.0,0,
192113,1851.1,136.6,147.8,39.5,777.0,3603.0,2.0,0,
192213,1846.3,177.2,146.6,79.5,504.0,3229.0,26.0,0,
192313,1869.4,70.0,149.9,51.2,655.0,4175.0,5.0,1,
192513,1853.3,15.0,141.2,45.1,655.0,4175.0,5.0,1,
192613,1858.9,13.7,141.3,48.3,655.0,4175.0,5.0,1,
192713,1859.6,10.8,141.3,45.1,655.0,4175.0,5.0,1,
192813,1858.5,10.6,141.3,45.4,655.0,4175.0,5.0,1,
192913,1860.1,12.5,141.3,239.4,655.0,4175.0,5.0,1,
193013,1859.4,11.0,141.3,239.9,655.0,4175.0,5.0,1,
193113,1858.8,10.0,141.3,239.8,655.0,4175.0,5.0,1,
193213,1859.1,9.7,141.3,239.9,655.0,4175.0,5.0,1,
193313,1858.5,11.2,141.3,240.1,655.0,4175.0,5.0,1,
193513,1863.7,174.5,137.5,153.8,708.0,4106.0,2.0,0,
193613,1856.2,277.6,127.0,37.9,1638.0,5226.0,2.0,0,
193713,1848.2,197.5,129.3,43.4,1624.0,4862.0,26.0,0,
193813,1873.4,98.2,136.7,46.2,655.0,3620.0,2.0,0,
193913,1870.5,108.5,130.6,46.4,553.0,4380.0,6.0,1,
194013,1855.6,257.2,143.3,46.3,1555.0,4536.0,26.0,0,
194113,1849.8,28.8,148.1,41.8,1555.0,4536.0,26.0,0,
194213,1859.5,13.0,148.1,40.2,1555.0,4536.0,26.0,0,
194313,1858.6,11.7,148.1,50.8,1555.0,4536.0,26.0,0,
194513,1861.6,12.0,148.1,195.2,1555.0,4536.0,26.0,0,
194613,1859.3,11.5,148.1,240.0,1555.0,4536.0,26.0,0,
194713,1860.1,10.2,148.1,240.0,1555.0,4536.0,26.0,0,
194813,1859.4,11.7,148.0,240.3,1555.0,4536.0,26.0,0,
194913,1860.5,11.6,148.0,240.1,1555.0,4536.0,26.0,0,
195013,1859.4,11.5,148.0,239.9,1555.0,4536.0,26.0,0,
195113,1859.2,222.4,153.8,49.6,1470.0,5226.0,2.0,0,
195213,1851.0,213.0,147.4,44.0,719.0,5350.0,6.0,1,
195313,1887.3,239.1,142.6,48.5,1091.0,4205.0,2.0,0,
195513,1863.9,107.7,154.0,54.2,488.0,3033.0,2.0,0,
195613,1847.9,160.9,145.8,73.2,691.0,4410.0,6.0,1,
195713,1876.4,44.0,142.3,52.0,707.0,2940.0,2.0,0,
195813,1861.3,14.6,142.3,45.1,707.0,2940.0,2.0,0,
195913,1858.2,11.9,142.3,28.9,707.0,2940.0,2.0,0,
196013,1860.9,11.7,142.3,28.9,707.0,2940.0,2.0,0,
196113,1860.0,10.6,142.3,44.5,707.0,2940.0,2.0,0,
196213,1858.8,10.7,142.3,240.2,707.0,2940.0,2.0,0,
196313,1860.4,13.6,142.3,240.2,707.0,2940.0,2.0,0,
196513,1858.8,12.0,142.3,239.8,707.0,2940.0,2.0,0,
196613,1860.0,11.6,142.4,239.8,707.0,2940.0,2.0,0,
196713,1873.7,175.5,140.5,239.3,766.0,5522.0,6.0,1,
196813,1865.0,96.3,140.7,38.9,750.0,5245.0,5.0,1,
196913,1840.6,188.6,131.7,38.8,691.0,3532.0,2.0,0,
197013,1868.6,110.7,130.0,38.7,607.0,3458.0,2.0,0,
197113,1852.8,207.2,116.8,36.8,694.0,4582.0,6.0,1,
197213,1885.6,162.0,130.0,37.6,933.0,3594.0,28.0,0,
197313,1829.3,30.8,121.6,49.0,652.0,4128.0,6.0,1,
197513,1859.7,13.4,121.7,52.9,652.0,4128.0,6.0,1,
197613,1859.4,12.0,121.7,56.7,652.0,4128.0,6.0,1,
197713,1859.5,9.5,121.7,111.7,652.0,4128.0,6.0,1,
197813,1859.5,12.2,121.7,240.1,652.0,4128.0,6.0,1,
197913,1859.8,11.0,121.7,240.5,652.0,4128.0,6.0,1,
198013,1860.4,11.3,121.7,240.1,652.0,4128.0,6.0,1,
198113,1861.3,11.7,121.7,240.1,652.0,4128.0,6.0,1,
198213,1859.8,12.0,121.7,240.1,652.0,4128.0,6.0,1,
198313,1861.8,34.3,122.1,240.0,700.0,5238.0,4.0,1,
198513,1864.8,285.8,131.1,47.4,1325.0,5424.0,2.0,0,
198613,1880.2,248.4,139.0,36.8,623.0,3393.0,26.0,0,
198713,1863.8,81.1,144.3,41.1,603.0,4258.0,5.0,1,
198813,1845.7,185.2,137.4,57.4,608.0,3257.0,2.0,0,
198913,1866.8,103.8,145.1,37.5,712.0,3503.0,2.0,0,
199013,1864.8,17.6,145.0,36.3,712.0,3503.0,2.0,0,
199113,1859.8,12.2,145.0,37.6,712.0,3503.0,2.0,0,
199213,1860.4,10.9,145.0,44.1,712.0,3503.0,2.0,0,
199313,1863.5,12.2,144.9,55.2,712.0,3503.0,2.0,0,
199513,1860.8,11.6,144.9,240.3,712.0,3503.0,2.0,0,
199613,1859.8,11.6,144.9,240.2,712.0,3503.0,2.0,0,
199713,1859.0,9.5,145.0,240.1,712.0,3503.0,2.0,0,
199813,1859.2,11.2,145.0,239.9,712.0,3503.0,2.0,0,
199913,1858.8,122.0,145.0,239.9,712.0,3503.0,2.0,0,
200013,1867.2,116.7,151.7,36.4,753.0,4724.0,2.0,0,
200113,1867.7,119.4,141.7,36.2,659.0,5100.0,7.0,1,
200213,1846.6,263.4,132.4,46.1,1686.0,4786.0,2.0,0,
200313,1854.4,272.2,143.2,46.3,576.0,3541.0,28.0,0,
200513,1886.7,192.4,158.9,73.4,647.0,4378.0,6.0,1,
200613,1844.5,19.1,160.7,123.8,482.0,2585.0,2.0,0,
200713,1858.8,12.0,160.7,80.0,482.0,2585.0,2.0,0,
200813,1860.5,12.1,160.7,50.6,482.0,2585.0,2.0,0,
200913,1860.0,9.6,160.7,41.4,482.0,2585.0,2.0,0,
201013,1858.2,11.0,160.8,231.0,482.0,2585.0,2.0,0,
201113,1860.4,11.7,160.7,239.8,482.0,2585.0,2.0,0,
201213,1857.4,10.7,160.8,240.1,482.0,2585.0,2.0,0,
201313,1857.7,11.0,160.8,239.8,482.0,2585.0,2.0,0,
201513,1860.1,9.9,160.8,240.0,482.0,2585.0,2.0,0,
201613,1869.0,204.2,160.3,73.1,738.0,4299.0,2.0,0,
201713,1852.0,127.7,170.4,29.5,1488.0,4800.0,2.0,0,
201813,1862.3,152.5,165.3,34.3,622.0,4332.0,7.0,1,
201913,1867.1,270.8,161.3,51.8,1613.0,4405.0,27.0,0,
202013,1867.6,129.5,159.1,43.6,650.0,3537.0,2.0,0,
202113,1850.4,116.3,154.3,37.5,1261.0,3662.0,27.0,0,
202213,1853.4,17.6,149.6,38.2,624.0,3856.0,6.0,1,
202313,1860.2,10.3,149.5,45.1,624.0,3856.0,6.0,1,
202513,1859.8,11.7,149.5,90.5,624.0,3856.0,6.0,1,
202613,1861.2,11.6,149.5,239.8,624.0,3856.0,6.0,1,
202713,1858.8,10.8,149.5,240.0,624.0,3856.0,6.0,1,
202813,1860.8,11.4,149.5,240.1,624.0,3856.0,6.0,1,
202913,1861.9,12.8,149.5,240.1,624.0,3856.0,6.0,1,
203013,1861.7,10.2,149.4,240.1,624.0,3856.0,6.0,1,
203113,1860.0,10.7,149.4,240.1,624.0,3856.0,6.0,1,
203213,1847.6,300.0,157.3,103.3,1491.0,5658.0,2.0,0,
203313,1876.0,259.4,157.6,66.7,895.0,5340.0,3.0,1,
203513,1851.4,205.8,173.1,132.1,572.0,3119.0,28.0,0,
203613,1851.5,71.2,163.7,123.2,620.0,4242.0,6.0,1,
203713,1858.2,146.6,158.8,47.4,609.0,4121.0,6.0,1,
203813,1872.6,42.6,161.0,41.3,357.0,2381.0,2.0,0,
203913,1860.2,12.0,161.0,40.2,357.0,2381.0,2.0,0,
204013,1858.4,12.4,161.1,29.5,357.0,2381.0,2.0,0,
204113,1859.4,10.9,161.1,28.5,357.0,2381.0,2.0,0,
204213,1862.7,10.7,161.1,71.2,357.0,2381.0,2.0,0,
204313,1859.7,10.9,161.0,240.4,357.0,2381.0,2.0,0,
204513,1860.2,11.6,161.1,240.2,357.0,2381.0,2.0,0,
204613,1859.5,11.2,161.1,240.7,357.0,2381.0,2.0,0,
204713,1859.7,9.4,161.1,240.6,357.0,2381.0,2.0,0,
204813,1892.4,225.9,159.2,203.0,746.0,4546.0,28.0,0,
204913,1837.5,254.9,163.3,35.0,849.0,5234.0,2.0,0,
205013,1860.3,253.5,162.6,38.0,648.0,3905.0,2.0,0,
205113,1847.6,317.4,164.3,111.7,1396.0,5008.0,26.0,0,
205213,1876.1,272.1,167.4,198.0,572.0,3167.0,28.0,0,
205313,1858.2,92.6,176.7,155.6,676.0,4102.0,6.0,1,
205513,1859.6,11.9,172.9,53.9,676.0,4102.0,6.0,1,
205613,1859.5,10.5,172.9,55.4,676.0,4102.0,6.0,1,
205713,1860.0,10.5,172.9,46.5,676.0,4102.0,6.0,1,
205813,1859.8,11.4,172.9,53.0,676.0,4102.0,6.0,1,
205913,1861.1,10.6,172.9,240.1,676.0,4102.0,6.0,1,
206013,1859.7,11.3,172.9,240.2,676.0,4102.0,6.0,1,
206113,1860.2,10.8,172.9,240.2,676.0,4102.0,6.0,1,
206213,1860.5,10.8,172.9,240.1,676.0,4102.0,6.0,1,
206313,1859.0,11.3,172.9,239.9,676.0,4102.0,6.0,1,
206513,1869.8,271.2,163.9,34.5,828.0,5134.0,2.0,0,
206613,1850.2,301.4,167.1,29.7,792.0,4547.0,2.0,0,
206713,1897.0,238.6,163.7,36.6,627.0,3781.0,2.0,0,
206813,1831.9,107.8,156.5,132.5,733.0,5314.0,6.0,1,
206913,1863.9,231.7,155.0,102.0,874.0,3965.0,2.0,0,
207013,1846.4,47.1,156.1,51.2,641.0,4291.0,6.0,1,
207113,1865.8,13.5,156.1,38.8,641.0,4291.0,6.0,1,
207213,1859.2,10.7,156.1,42.8,641.0,4291.0,6.0,1,
207313,1859.2,11.0,156.1,51.5,641.0,4291.0,6.0,1,
207513,1860.2,10.6,156.2,240.1,641.0,4291.0,6.0,1,
207613,1857.2,11.8,156.2,240.1,641.0,4291.0,6.0,1,
207713,1860.6,10.6,156.2,240.1,641.0,4291.0,6.0,1,
207813,1861.2,10.9,156.2,240.0,641.0,4291.0,6.0,1,
207913,1859.6,11.9,156.2,239.9,641.0,4291.0,6.0,1,
208013,1851.9,52.1,156.2,239.9,641.0,4291.0,6.0,1,
208113,1873.3,173.4,153.1,89.2,940.0,7020.0,6.0,1,
208213,1863.8,106.1,141.6,39.5,755.0,5378.0,6.0,1,
208313,1835.0,151.1,127.2,38.6,694.0,4667.0,6.0,1,
208513,1856.7,187.6,109.3,55.8,700.0,4462.0,6.0,1,
208613,1887.7,82.5,110.1,54.7,571.0,3271.0,28.0,0,
208713,1842.5,14.0,110.0,47.2,628.0,4075.0,6.0,1,
208813,1858.3,11.2,110.0,42.3,628.0,4075.0,6.0,1,
208913,1859.3,10.3,110.0,40.5,628.0,4075.0,6.0,1,
209013,1858.6,11.2,110.0,52.9,628.0,4075.0,6.0,1,
209113,1859.0,9.6,110.0,239.9,628.0,4075.0,6.0,1,
209213,1859.0,10.3,110.0,240.1,628.0,4075.0,6.0,1,
209313,1858.1,10.6,110.0,240.1,628.0,4075.0,6.0,1,
209513,1861.8,11.6,110.1,240.0,628.0,4075.0,6.0,1,
209613,1860.3,16.1,110.1,240.2,628.0,4075.0,6.0,1,
209713,1859.4,69.1,116.9,57.4,702.0,4722.0,6.0,1,
209813,1851.3,215.9,105.6,43.6,636.0,3685.0,2.0,0,
209913,1852.5,55.9,113.9,45.0,563.0,3499.0,6.0,1,
210013,1883.8,170.7,106.9,39.8,592.0,3402.0,6.0,1,
210113,1852.0,235.3,124.9,39.6,1436.0,3629.0,27.0,0,
210213,1854.8,240.5,134.9,42.0,706.0,3175.0,2.0,0,
210313,1869.9,29.9,138.6,73.1,727.0,2612.0,2.0,0,
210513,1858.2,9.6,138.6,36.1,727.0,2612.0,2.0,0,
210613,1858.4,12.2,138.7,34.8,727.0,2612.0,2.0,0,
210713,1859.4,12.0,138.6,204.0,727.0,2612.0,2.0,0,
210813,1860.0,10.2,138.6,240.2,727.0,2612.0,2.0,0,
210913,1859.5,10.6,138.6,240.1,727.0,2612.0,2.0,0,
211013,1859.3,12.2,138.6,240.3,727.0,2612.0,2.0,0,
211113,1858.1,10.5,138.7,240.2,727.0,2612.0,2.0,0,
211213,1858.2,11.3,138.7,240.1,727.0,2612.0,2.0,0,
211313,1862.9,202.1,137.9,87.3,773.0,4937.0,2.0,0,
211513,1872.1,125.3,157.1,39.3,729.0,3636.0,26.0,0,
211613,1845.4,33.7,157.1,40.0,836.0,4238.0,6.0,1,
211713,1865.8,229.4,155.1,38.0,829.0,3350.0,2.0,0,
211813,1849.0,218.3,153.6,36.4,1506.0,4662.0,2.0,0,
211913,1873.4,43.5,151.5,35.6,940.0,3359.0,2.0,0,
212013,1857.3,12.2,151.5,100.9,940.0,3359.0,2.0,0,
212113,1859.8,10.8,151.5,103.6,940.0,3359.0,2.0,0,
212213,1859.0,11.3,151.5,43.7,940.0,3359.0,2.0,0,
212313,1858.4,10.9,151.5,130.1,940.0,3359.0,2.0,0,
212513,1859.0,11.2,151.5,240.2,940.0,3359.0,2.0,0,
212613,1860.2,13.6,151.5,239.7,940.0,3359.0,2.0,0,
212713,1860.9,12.1,151.5,239.8,940.0,3359.0,2.0,0,
212813,1859.7,11.7,151.5,240.2,940.0,3359.0,2.0,0,
212913,1869.2,68.1,149.6,240.0,840.0,6318.0,6.0,1,
213013,1854.8,177.5,143.2,68.1,732.0,5537.0,6.0,1,
213113,1838.2,258.7,146.0,41.4,1100.0,4115.0,26.0,0,
213213,1869.3,148.4,149.2,34.2,1100.0,4115.0,26.0,0,
213313,1859.7,278.6,161.1,37.2,1436.0,4521.0,27.0,0,
213513,1845.8,76.4,162.0,37.0,354.0,2156.0,26.0,0,
213613,1858.3,13.9,162.0,43.4,354.0,2156.0,26.0,0,
213713,1858.4,12.1,162.0,43.4,354.0,2156.0,26.0,0,
213813,1859.1,10.3,162.0,41.4,354.0,2156.0,26.0,0,
213913,1859.9,12.4,162.0,67.1,354.0,2156.0,26.0,0,
214013,1862.0,13.4,161.9,240.2,354.0,2156.0,26.0,0,
214113,1861.4,10.0,161.9,240.3,354.0,2156.0,26.0,0,
214213,1860.0,12.4,161.9,240.1,354.0,2156.0,26.0,0,
214313,1860.6,11.9,161.9,240.0,354.0,2156.0,26.0,0,
214513,1862.0,196.5,164.1,239.6,998.0,6229.0,2.0,0,
214613,1843.2,253.5,173.1,34.9,795.0,4798.0,25.0,0,
214713,1880.8,150.8,165.4,35.7,795.0,4798.0,25.0,0,
214813,1859.2,42.1,158.0,36.2,513.0,3117.0,6.0,1,
214913,1860.8,130.3,151.3,36.4,540.0,3244.0,5.0,1,
215013,1844.2,27.5,133.8,37.7,689.0,3729.0,6.0,1,
215113,1869.4,54.8,120.3,43.4,659.0,3628.0,6.0,1,
215213,1861.7,13.1,120.3,51.7,659.0,3628.0,6.0,1,
215313,1856.2,12.9,120.3,52.9,659.0,3628.0,6.0,1,
215513,1859.7,12.0,120.4,56.4,659.0,3628.0,6.0,1,
215613,1860.7,10.8,120.4,240.1,659.0,3628.0,6.0,1,
215713,1859.9,12.0,120.4,240.2,659.0,3628.0,6.0,1,
215813,1860.1,13.0,120.4,240.3,659.0,3628.0,6.0,1,
215913,1858.2,10.0,120.4,240.2,659.0,3628.0,6.0,1,
216013,1859.5,12.2,120.4,240.2,659.0,3628.0,6.0,1,
216113,1865.0,113.0,120.8,240.2,659.0,3628.0,6.0,1,
216213,1884.3,177.9,107.6,55.0,749.0,4737.0,2.0,0,
216313,1834.8,97.4,95.1,35.4,664.0,4369.0,7.0,1,
216513,1846.3,51.4,91.6,53.1,689.0,3904.0,6.0,1,
216613,1879.0,195.8,94.1,53.9,674.0,3504.0,5.0,1,
216713,1860.3,201.7,118.8,53.2,723.0,3136.0,27.0,0,
216813,1846.9,20.3,120.8,39.1,554.0,2429.0,2.0,0,
216913,1859.6,11.4,120.8,38.5,554.0,2429.0,2.0,0,
217013,1857.6,12.2,120.8,40.0,554.0,2429.0,2.0,0,
217113,1859.6,11.1,120.8,67.2,554.0,2429.0,2.0,0,
217213,1859.4,10.0,120.8,239.8,554.0,2429.0,2.0,0,
217313,1860.0,10.4,120.8,240.1,554.0,2429.0,2.0,0,
217513,1859.9,11.2,120.8,239.8,554.0,2429.0,2.0,0,
217613,1859.6,10.7,120.8,240.1,554.0,2429.0,2.0,0,
217713,1859.5,10.2,120.8,240.1,554.0,2429.0,2.0,0,
217813,1844.4,64.0,115.0,122.7,909.0,6313.0,7.0,1,
217913,1869.3,176.0,119.1,45.0,655.0,4067.0,2.0,0,
218013,1856.7,48.2,116.4,51.5,625.0,3743.0,6.0,1,
218113,1886.5,103.1,119.9,54.2,676.0,3671.0,5.0,1,
218213,1836.1,34.5,115.6,56.0,717.0,3913.0,6.0,1,
218313,1869.7,233.1,104.1,66.3,948.0,3394.0,2.0,0,
218513,1858.2,15.4,106.5,30.2,948.0,3394.0,2.0,0,
218613,1859.3,11.0,106.5,30.3,948.0,3394.0,2.0,0,
218713,1859.2,12.0,106.4,35.4,948.0,3394.0,2.0,0,
218813,1859.1,12.8,106.5,113.3,948.0,3394.0,2.0,0,
218913,1861.3,11.5,106.5,240.0,948.0,3394.0,2.0,0,
219013,1861.2,11.7,106.5,240.3,948.0,3394.0,2.0,0,
219113,1862.3,10.1,106.4,240.5,948.0,3394.0,2.0,0,
219213,1860.8,10.3,106.4,240.2,948.0,3394.0,2.0,0,
219313,1859.3,10.8,106.4,239.8,948.0,3394.0,2.0,0,
219513,1874.3,115.0,130.8,34.4,1403.0,5386.0,26.0,0,
219613,1861.0,131.3,134.8,36.5,615.0,3519.0,26.0,0,
219713,1840.3,30.3,131.5,56.2,619.0,3722.0,6.0,1,
219813,1870.7,65.4,133.2,56.9,624.0,3404.0,5.0,1,
219913,1852.2,41.1,128.3,54.2,584.0,3487.0,6.0,1,
220013,1866.0,22.8,117.9,52.6,636.0,3363.0,5.0,1,
220113,1858.0,11.1,117.9,51.9,636.0,3363.0,5.0,1,
220213,1859.4,13.2,117.9,47.8,636.0,3363.0,5.0,1,
220313,1858.3,10.6,117.9,46.7,636.0,3363.0,5.0,1,
220513,1859.7,12.5,117.9,240.2,636.0,3363.0,5.0,1,
220613,1861.5,13.1,117.9,240.3,636.0,3363.0,5.0,1,
220713,1860.5,10.3,117.9,240.3,636.0,3363.0,5.0,1,
220813,1859.6,10.3,117.9,240.1,636.0,3363.0,5.0,1,
220913,1861.1,10.0,117.9,240.0,636.0,3363.0,5.0,1,
221013,1887.1,74.6,110.5,239.5,992.0,7136.0,7.0,1,
221113,1843.1,140.1,92.9,56.3,711.0,4528.0,2.0,0,
221213,1838.0,32.0,82.5,48.5,635.0,4023.0,7.0,1,
221313,1870.1,60.5,83.6,51.0,640.0,3395.0,5.0,1,
221513,1863.2,78.9,82.7,52.0,572.0,3157.0,5.0,1,
221613,1841.7,19.4,79.5,42.3,576.0,3199.0,6.0,1,
221713,1859.2,13.7,79.5,41.7,576.0,3199.0,6.0,1,
221813,1859.0,11.9,79.5,41.4,576.0,3199.0,6.0,1,
221913,1858.0,9.6,79.5,56.4,576.0,3199.0,6.0,1,
222013,1858.1,11.4,79.5,239.7,576.0,3199.0,6.0,1,
222113,1859.5,12.9,79.5,240.0,576.0,3199.0,6.0,1,
222213,1861.2,11.3,79.5,240.2,576.0,3199.0,6.0,1,
222313,1858.7,12.4,79.5,240.3,576.0,3199.0,6.0,1,
222513,1859.5,13.2,79.5,240.1,576.0,3199.0,6.0,1,
222613,1856.7,204.8,86.5,239.5,1121.0,7052.0,2.0,0,
222713,1848.1,283.7,103.3,35.9,902.0,5307.0,26.0,0,
222813,1890.0,144.0,113.3,37.3,872.0,4625.0,26.0,0,
222913,1845.5,43.1,111.3,40.3,452.0,2874.0,6.0,1,
223013,1866.9,117.4,113.4,36.9,468.0,2577.0,5.0,1,
223113,1844.7,25.5,113.0,37.6,556.0,3108.0,6.0,1,
223213,1873.9,54.8,115.4,68.5,561.0,2741.0,5.0,1,
223313,1862.5,14.4,115.4,69.0,561.0,2741.0,5.0,1,
223513,1857.6,11.4,115.4,53.4,561.0,2741.0,5.0,1,
223613,1856.6,12.0,115.4,57.5,561.0,2741.0,5.0,1,
223713,1859.6,12.2,115.4,240.0,561.0,2741.0,5.0,1,
223813,1858.7,10.3,115.4,240.1,561.0,2741.0,5.0,1,
223913,1860.5,11.7,115.4,240.1,561.0,2741.0,5.0,1,
224013,1857.7,12.6,115.5,240.1,561.0,2741.0,5.0,1,
224113,1859.5,11.7,115.5,240.1,561.0,2741.0,5.0,1,
224213,1870.4,122.5,116.1,240.0,561.0,2741.0,5.0,1,
224313,1873.6,101.5,95.9,51.0,634.0,4461.0,5.0,1,
224513,1868.4,192.8,86.5,34.9,863.0,3500.0,2.0,0,
224613,1847.2,206.0,104.0,35.3,995.0,4063.0,2.0,0,
224713,1894.9,199.8,113.9,35.9,1092.0,4671.0,3.0,1,
224813,1832.2,155.6,130.1,135.2,1086.0,4643.0,3.0,1,
224913,1852.2,19.2,130.3,197.1,1086.0,4643.0,3.0,1,
225013,1860.8,13.1,130.3,137.2,1086.0,4643.0,3.0,1,
225113,1859.2,12.3,130.3,135.8,1086.0,4643.0,3.0,1,
225213,1858.5,10.5,130.3,138.9,1086.0,4643.0,3.0,1,
225313,1859.1,12.0,130.3,239.9,1086.0,4643.0,3.0,1,
225513,1860.1,12.8,130.3,240.0,1086.0,4643.0,3.0,1,
225613,1860.5,11.0,130.2,240.0,1086.0,4643.0,3.0,1,
225713,1860.5,11.0,130.2,240.0,1086.0,4643.0,3.0,1,
225813,1859.6,16.7,130.3,240.0,1086.0,4643.0,3.0,1,
225913,1851.1,41.6,127.4,134.6,520.0,3787.0,6.0,1,
226013,1868.3,77.1,130.9,55.8,569.0,4007.0,5.0,1,
226113,1864.2,48.6,126.1,56.2,535.0,3355.0,5.0,1,
226213,1864.6,214.7,126.0,50.4,1127.0,3565.0,27.0,0,
226313,1846.9,170.8,131.2,36.0,1014.0,4368.0,3.0,1,
226513,1855.3,24.2,126.9,134.7,1027.0,4202.0,2.0,0,
226613,1856.8,11.1,126.9,153.9,1027.0,4202.0,2.0,0,
226713,1858.4,11.7,126.9,101.7,1027.0,4202.0,2.0,0,
226813,1859.9,10.8,126.9,103.2,1027.0,4202.0,2.0,0,
226913,1860.0,11.9,126.9,239.3,1027.0,4202.0,2.0,0,
227013,1861.0,12.9,126.9,239.9,1027.0,4202.0,2.0,0,
227113,1860.0,10.7,126.9,240.1,1027.0,4202.0,2.0,0,
227213,1859.4,11.6,126.9,240.3,1027.0,4202.0,2.0,0,
227313,1860.6,11.9,126.9,240.4,1027.0,4202.0,2.0,0,
227513,1846.5,222.5,139.3,92.7,1358.0,5956.0,27.0,0,
227613,1890.6,120.8,140.0,39.0,756.0,4760.0,6.0,1,
227713,1839.6,44.3,140.7,43.3,453.0,3056.0,6.0,1,
227813,1861.0,94.3,130.5,53.8,577.0,3445.0,5.0,1,
227913,1856.8,54.1,117.5,53.7,658.0,3734.0,6.0,1,
228013,1873.4,30.7,106.6,55.3,730.0,3982.0,5.0,1,
228113,1857.2,28.5,97.8,56.3,817.0,3313.0,2.0,0,
228213,1858.3,11.2,97.9,45.7,817.0,3313.0,2.0,0,
228313,1858.0,12.5,97.9,34.9,817.0,3313.0,2.0,0,
228513,1858.4,12.0,97.9,189.1,817.0,3313.0,2.0,0,
228613,1861.7,11.5,97.9,240.2,817.0,3313.0,2.0,0,
228713,1861.0,11.2,97.9,240.2,817.0,3313.0,2.0,0,
228813,1861.5,11.6,97.9,240.1,817.0,3313.0,2.0,0,
228913,1859.2,11.7,97.9,240.3,817.0,3313.0,2.0,0,
229013,1860.0,11.6,97.9,240.2,817.0,3313.0,2.0,0,
229113,1888.3,174.5,90.4,232.3,926.0,6835.0,6.0,1,
229213,1827.5,107.0,99.0,29.7,736.0,5031.0,7.0,1,
229313,1871.4,129.7,96.4,36.4,705.0,4432.0,5.0,1,
229513,1889.5,103.1,98.3,52.9,626.0,3323.0,5.0,1,
229613,1837.6,41.2,101.8,53.2,683.0,4150.0,6.0,1,
229713,1867.3,19.6,97.2,66.3,705.0,3802.0,5.0,1,
229813,1860.6,12.5,97.1,66.2,705.0,3802.0,5.0,1,
229913,1857.9,12.3,97.2,67.5,705.0,3802.0,5.0,1,
230013,1858.3,11.6,97.2,88.9,705.0,3802.0,5.0,1,
230113,1857.5,11.3,97.2,239.4,705.0,3802.0,5.0,1,
230213,1859.9,11.0,97.2,239.8,705.0,3802.0,5.0,1,
230313,1860.0,11.1,97.1,240.1,705.0,3802.0,5.0,1,
230513,1859.5,10.2,97.1,240.3,705.0,3802.0,5.0,1,
230613,1859.2,11.4,97.1,240.0,705.0,3802.0,5.0,1,
230713,1849.8,36.8,96.6,239.4,664.0,5242.0,6.0,1,
230813,1869.3,161.2,71.6,65.7,630.0,4398.0,5.0,1,
230913,1874.8,57.5,74.3,55.8,843.0,5184.0,5.0,1,
231013,1858.0,195.9,85.3,55.0,1363.0,5038.0,2.0,0,
231113,1834.0,195.9,104.6,56.0,1043.0,5307.0,2.0,0,
231213,1870.7,230.5,110.4,94.0,1032.0,5169.0,3.0,1,
231313,1847.8,100.9,127.4,195.2,1270.0,5726.0,2.0,0,
231513,1858.8,11.9,127.4,158.4,1270.0,5726.0,2.0,0,
231613,1857.4,12.7,127.4,137.5,1270.0,5726.0,2.0,0,
231713,1858.5,10.8,127.4,138.5,1270.0,5726.0,2.0,0,
231813,1861.2,12.1,127.4,240.0,1270.0,5726.0,2.0,0,
231913,1859.3,11.2,127.4,240.0,1270.0,5726.0,2.0,0,
232013,1859.8,11.9,127.4,240.3,1270.0,5726.0,2.0,0,
232113,1860.6,12.2,127.4,240.3,1270.0,5726.0,2.0,0,
232213,1859.7,11.1,127.4,240.3,1270.0,5726.0,2.0,0,
232313,1864.9,50.9,127.4,240.3,1270.0,5726.0,2.0,0,
232513,1839.1,258.3,140.1,41.5,1470.0,5805.0,2.0,0,
232613,1853.2,245.7,148.2,30.2,883.0,4770.0,2.0,0,
232713,1859.3,292.0,150.5,66.1,1430.0,4588.0,27.0,0,
232813,1884.3,248.3,159.3,166.9,776.0,3576.0,27.0,0,
232913,1849.7,79.4,155.8,228.6,625.0,3914.0,5.0,1,
233013,1853.3,16.3,155.4,131.5,625.0,3914.0,5.0,1,
233113,1858.2,13.2,155.4,44.9,625.0,3914.0,5.0,1,
233213,1858.7,11.1,155.4,43.1,625.0,3914.0,5.0,1,
233313,1860.2,12.3,155.4,52.1,625.0,3914.0,5.0,1,
233513,1858.7,12.3,155.4,239.8,625.0,3914.0,5.0,1,
233613,1857.8,11.4,155.4,239.7,625.0,3914.0,5.0,1,
233713,1859.8,12.7,155.5,240.1,625.0,3914.0,5.0,1,
233813,1861.1,10.5,155.5,240.3,625.0,3914.0,5.0,1,
233913,1860.0,49.7,155.4,240.2,625.0,3914.0,5.0,1,
234013,1847.0,67.9,157.7,39.9,648.0,4986.0,6.0,1,
234113,1863.8,213.7,151.1,36.7,834.0,6239.0,4.0,1,
234213,1868.8,256.6,150.4,37.4,1273.0,6185.0,28.0,0,
234313,1879.7,183.6,152.2,51.6,886.0,5480.0,2.0,0,
234513,1861.2,268.6,150.4,196.4,834.0,4365.0,2.0,0,
234613,1868.5,28.4,154.5,228.9,702.0,3324.0,2.0,0,
234713,1860.2,13.7,154.5,133.2,702.0,3324.0,2.0,0,
234813,1860.7,10.5,154.5,34.8,702.0,3324.0,2.0,0,
234913,1858.7,12.7,154.5,30.1,702.0,3324.0,2.0,0,
235013,1859.6,12.6,154.5,238.2,702.0,3324.0,2.0,0,
235113,1859.5,10.9,154.5,240.1,702.0,3324.0,2.0,0,
235213,1860.2,11.6,154.4,240.0,702.0,3324.0,2.0,0,
235313,1860.6,10.9,154.4,240.0,702.0,3324.0,2.0,0,
235513,1860.1,13.0,154.4,240.1,702.0,3324.0,2.0,0,
235613,1870.3,139.1,150.9,239.3,620.0,4688.0,5.0,1,
235713,1871.8,164.7,156.1,38.9,835.0,5863.0,5.0,1,
235813,1850.4,206.9,151.7,37.6,1126.0,5194.0,27.0,0,
235913,1833.5,259.6,152.7,36.5,972.0,5292.0,28.0,0,
236013,1873.7,271.8,154.4,36.1,855.0,4868.0,2.0,0,
236113,1864.3,277.9,157.8,94.5,886.0,4541.0,26.0,0,
236213,1857.4,45.6,157.8,198.5,659.0,3436.0,2.0,0,
236313,1860.3,13.7,157.8,165.7,659.0,3436.0,2.0,0,
236513,1860.7,11.5,157.8,35.8,659.0,3436.0,2.0,0,
236613,1861.5,11.4,157.7,90.9,659.0,3436.0,2.0,0,
236713,1859.9,9.7,157.7,240.1,659.0,3436.0,2.0,0,
236813,1860.0,11.3,157.7,240.1,659.0,3436.0,2.0,0,
236913,1859.2,12.7,157.7,240.2,659.0,3436.0,2.0,0,
237013,1859.8,10.0,157.7,240.4,659.0,3436.0,2.0,0,
237113,1858.7,11.5,157.7,240.4,659.0,3436.0,2.0,0,
237213,1876.8,72.3,161.4,239.0,665.0,4606.0,5.0,1,
237313,1853.0,128.6,164.4,29.5,648.0,5038.0,6.0,1,
237513,1868.8,112.8,149.3,36.0,669.0,3808.0,27.0,0,
237613,1879.8,59.5,135.2,40.5,767.0,4838.0,5.0,1,
237713,1844.0,249.6,128.0,48.1,1454.0,4701.0,27.0,0,
237813,1849.5,72.9,128.7,43.4,635.0,3169.0,2.0,0,
237913,1858.8,15.8,128.7,36.1,635.0,3169.0,2.0,0,
238013,1860.1,11.4,128.8,65.7,635.0,3169.0,2.0,0,
238113,1859.2,11.6,128.8,42.8,635.0,3169.0,2.0,0,
238213,1859.1,12.3,128.8,71.9,635.0,3169.0,2.0,0,
238313,1861.0,11.7,128.8,239.8,635.0,3169.0,2.0,0,
238513,1859.2,12.5,128.8,240.2,635.0,3169.0,2.0,0,
238613,1860.8,12.5,128.8,240.2,635.0,3169.0,2.0,0,
238713,1859.5,11.8,128.8,240.2,635.0,3169.0,2.0,0,
238813,1850.1,34.3,124.9,240.0,581.0,4662.0,7.0,1,
238913,1872.3,79.4,121.6,70.2,670.0,4711.0,5.0,1,
239013,1874.6,68.7,120.6,65.9,782.0,5223.0,4.0,1,
239113,1853.6,71.7,110.3,50.8,828.0,5038.0,5.0,1,
239213,1845.6,223.3,128.4,47.8,1238.0,5072.0,3.0,1,
239313,1862.9,264.8,131.1,44.9,1036.0,4659.0,2.0,0,
239513,1862.7,16.2,123.3,165.6,1036.0,4659.0,2.0,0,
239613,1860.0,12.4,123.3,111.8,1036.0,4659.0,2.0,0,
239713,1860.0,11.1,123.3,94.4,1036.0,4659.0,2.0,0,
239813,1861.4,12.1,123.3,141.3,1036.0,4659.0,2.0,0,
239913,1859.8,12.2,123.3,240.3,1036.0,4659.0,2.0,0,
240013,1860.3,12.3,123.2,240.3,1036.0,4659.0,2.0,0,
240113,1861.2,11.5,123.2,240.5,1036.0,4659.0,2.0,0,
240213,1861.7,12.5,123.2,240.2,1036.0,4659.0,2.0,0,
240313,1859.6,12.8,123.2,240.1,1036.0,4659.0,2.0,0,
240513,1848.3,73.8,124.0,42.6,703.0,5316.0,6.0,1,
240613,1852.0,216.4,129.2,37.8,709.0,4167.0,27.0,0,
240713,1843.0,274.5,147.0,36.7,1110.0,5198.0,28.0,0,
240813,1876.4,271.7,149.9,35.8,775.0,3892.0,2.0,0,
240913,1872.0,229.1,156.2,104.3,1171.0,4980.0,28.0,0,
241013,1853.4,166.9,153.8,199.7,1023.0,4732.0,2.0,0,
241113,1855.9,27.5,154.0,197.8,1023.0,4732.0,2.0,0,
241213,1859.2,13.1,154.0,130.1,1023.0,4732.0,2.0,0,
241313,1858.9,11.9,154.1,38.0,1023.0,4732.0,2.0,0,
241513,1860.2,14.0,154.1,238.5,1023.0,4732.0,2.0,0,
241613,1861.8,13.0,154.1,240.0,1023.0,4732.0,2.0,0,
241713,1858.5,11.5,154.1,240.1,1023.0,4732.0,2.0,0,
241813,1860.5,14.0,154.1,240.2,1023.0,4732.0,2.0,0,
241913,1859.4,11.9,154.1,240.3,1023.0,4732.0,2.0,0,
242013,1858.1,9.7,154.2,240.3,1023.0,4732.0,2.0,0,
242113,1866.5,189.7,155.9,114.1,769.0,4629.0,2.0,0,
242213,1849.2,68.8,156.8,37.7,795.0,5704.0,6.0,1,
242313,1895.5,224.2,145.8,45.5,853.0,4802.0,2.0,0,
242513,1858.4,257.9,145.0,54.1,1014.0,4641.0,2.0,0,
242613,1844.6,251.0,149.1,151.4,884.0,4312.0,28.0,0,
242713,1869.7,27.5,149.2,218.1,801.0,3709.0,2.0,0,
242813,1859.6,12.5,149.1,132.1,801.0,3709.0,2.0,0,
242913,1858.2,12.0,149.1,69.1,801.0,3709.0,2.0,0,
243013,1858.1,13.8,149.1,38.0,801.0,3709.0,2.0,0,
243113,1859.8,12.5,149.2,238.4,801.0,3709.0,2.0,0,
243213,1858.2,11.7,149.2,240.2,801.0,3709.0,2.0,0,
243313,1858.2,14.9,149.2,240.2,801.0,3709.0,2.0,0,
243513,1861.3,12.7,149.2,240.3,801.0,3709.0,2.0,0,
243613,1860.4,10.4,149.2,240.5,801.0,3709.0,2.0,0,
243713,1868.1,103.8,151.9,239.8,678.0,4756.0,6.0,1,
243813,1877.1,235.1,153.0,51.8,994.0,4895.0,27.0,0,
243913,1836.1,217.3,161.7,30.1,871.0,5028.0,2.0,0,
244013,1861.2,242.2,158.1,42.9,1345.0,5227.0,2.0,0,
244113,1853.2,233.1,159.3,131.2,806.0,4112.0,2.0,0,
244213,1886.9,195.9,151.8,226.7,1356.0,4728.0,2.0,0,
244313,1837.1,34.6,151.7,229.8,864.0,3971.0,2.0,0,
244513,1858.3,14.3,151.8,164.7,864.0,3971.0,2.0,0,
244613,1858.7,12.0,151.8,147.0,864.0,3971.0,2.0,0,
244713,1858.9,12.5,151.8,155.0,864.0,3971.0,2.0,0,
244813,1859.6,10.9,151.8,239.6,864.0,3971.0,2.0,0,
244913,1861.1,12.0,151.7,240.3,864.0,3971.0,2.0,0,
245013,1860.2,12.5,151.7,240.3,864.0,3971.0,2.0,0,
245113,1860.4,12.5,151.7,240.3,864.0,3971.0,2.0,0,
245213,1860.7,11.9,151.7,240.2,864.0,3971.0,2.0,0,
245313,1856.8,59.5,150.5,238.3,661.0,4705.0,5.0,1,
245513,1857.4,276.9,146.2,43.0,1414.0,5752.0,2.0,0,
245613,1878.8,238.2,146.3,37.0,849.0,4745.0,2.0,0,
245713,1850.5,249.0,150.9,92.6,1423.0,4368.0,27.0,0,
245813,1853.4,207.0,157.0,196.0,793.0,3823.0,2.0,0,
245913,1862.9,56.1,154.3,220.5,881.0,4084.0,2.0,0,
246013,1859.3,14.2,154.3,166.4,881.0,4084.0,2.0,0,
246113,1858.5,13.0,154.3,66.9,881.0,4084.0,2.0,0,
246213,1860.0,12.2,154.2,36.5,881.0,4084.0,2.0,0,
246313,1860.7,10.5,154.2,69.4,881.0,4084.0,2.0,0,
246513,1862.9,11.5,154.1,239.7,881.0,4084.0,2.0,0,
246613,1860.8,12.8,154.1,240.0,881.0,4084.0,2.0,0,
246713,1861.9,13.0,154.1,240.0,881.0,4084.0,2.0,0,
246813,1860.2,13.4,154.1,240.0,881.0,4084.0,2.0,0,
246913,1858.5,152.9,154.4,238.7,881.0,4084.0,2.0,0,
247013,1857.3,84.4,156.2,35.9,671.0,5117.0,4.0,1,
247113,1896.4,127.9,146.8,35.8,811.0,5791.0,5.0,1,
247213,1828.0,226.2,149.9,38.0,877.0,4626.0,28.0,0,
247313,1864.7,272.2,149.6,57.6,648.0,3850.0,27.0,0,
247513,1872.9,101.5,150.9,197.6,773.0,3606.0,2.0,0,
247613,1861.6,17.0,150.9,197.0,773.0,3606.0,2.0,0,
247713,1859.7,12.5,150.9,130.3,773.0,3606.0,2.0,0,
247813,1860.6,12.9,150.9,36.5,773.0,3606.0,2.0,0,
247913,1859.4,12.0,150.9,46.7,773.0,3606.0,2.0,0,
248013,1860.0,11.1,150.9,240.0,773.0,3606.0,2.0,0,
248113,1858.8,11.0,151.0,240.1,773.0,3606.0,2.0,0,
248213,1862.2,10.9,151.0,240.2,773.0,3606.0,2.0,0,
248313,1860.1,11.9,151.0,240.2,773.0,3606.0,2.0,0,
248513,1882.3,44.4,150.4,240.2,773.0,3606.0,2.0,0,
248613,1864.1,114.3,151.6,69.8,718.0,4928.0,4.0,1,
248713,1834.8,72.0,151.1,37.9,801.0,5336.0,6.0,1,
248813,1869.8,203.7,144.4,37.8,795.0,4133.0,2.0,0,
248913,1857.7,251.7,143.7,39.3,900.0,4722.0,28.0,0,
249013,1887.0,193.4,137.0,93.1,1112.0,5018.0,2.0,0,
249113,1827.8,130.8,137.6,184.8,1185.0,5249.0,3.0,1,
249213,1859.1,19.9,136.4,228.7,1185.0,5249.0,3.0,1,
249313,1858.7,11.0,136.4,196.3,1185.0,5249.0,3.0,1,
249513,1858.5,12.0,136.5,102.1,1185.0,5249.0,3.0,1,
249613,1860.2,9.6,136.5,239.6,1185.0,5249.0,3.0,1,
249713,1860.0,11.6,136.4,240.1,1185.0,5249.0,3.0,1,
249813,1859.0,11.5,136.5,240.0,1185.0,5249.0,3.0,1,
249913,1860.3,11.4,136.5,239.9,1185.0,5249.0,3.0,1,
250013,1860.1,13.2,136.5,240.1,1185.0,5249.0,3.0,1,
250113,1858.5,16.1,136.5,240.2,1185.0,5249.0,3.0,1,
250213,1848.4,52.2,133.7,218.7,719.0,4937.0,3.0,1,
250313,1862.1,266.1,140.8,56.6,1410.0,5413.0,2.0,0,
250513,1841.0,204.8,146.8,47.9,1642.0,6140.0,2.0,0,
250613,1847.2,171.7,141.7,91.1,1206.0,5586.0,3.0,1,
250713,1864.7,223.9,137.4,219.7,1767.0,6078.0,2.0,0,
250813,1853.7,29.4,140.2,237.4,1190.0,5101.0,2.0,0,
250913,1859.3,20.7,140.2,165.4,1190.0,5101.0,2.0,0,
251013,1857.9,13.2,140.3,107.7,1190.0,5101.0,2.0,0,
251113,1860.5,12.3,140.3,101.3,1190.0,5101.0,2.0,0,
251213,1861.2,12.6,140.2,136.5,1190.0,5101.0,2.0,0,
251313,1861.1,12.1,140.2,239.8,1190.0,5101.0,2.0,0,
251513,1860.2,10.9,140.2,240.0,1190.0,5101.0,2.0,0,
251613,1860.7,13.0,140.2,240.0,1190.0,5101.0,2.0,0,
251713,1860.2,13.4,140.2,240.3,1190.0,5101.0,2.0,0,
251813,1862.0,81.5,142.4,53.8,649.0,4843.0,6.0,1,
251913,1872.1,78.5,137.7,40.4,954.0,5931.0,5.0,1,
252013,1839.8,244.1,132.6,41.7,1415.0,5153.0,2.0,0,
252113,1859.5,207.4,133.0,55.0,1114.0,4844.0,3.0,1,
252213,1853.6,235.9,138.1,122.4,1661.0,6242.0,2.0,0,
252313,1898.2,179.0,139.6,188.0,1265.0,5849.0,3.0,1,
252513,1859.6,13.7,137.2,195.0,1265.0,5849.0,3.0,1,
252613,1859.4,11.6,137.2,38.0,1265.0,5849.0,3.0,1,
252713,1858.4,13.1,137.2,35.1,1265.0,5849.0,3.0,1,
252813,1860.8,10.7,137.2,140.4,1265.0,5849.0,3.0,1,
252913,1860.3,12.0,137.2,240.1,1265.0,5849.0,3.0,1,
253013,1861.5,11.9,137.2,240.3,1265.0,5849.0,3.0,1,
253113,1861.6,12.8,137.2,240.2,1265.0,5849.0,3.0,1,
253213,1860.8,11.3,137.2,240.2,1265.0,5849.0,3.0,1,
253313,1860.7,12.7,137.2,240.1,1265.0,5849.0,3.0,1,
253513,1840.0,78.1,140.5,37.3,823.0,5942.0,5.0,1,
253613,1874.0,239.6,136.5,36.5,910.0,4782.0,2.0,0,
253713,1878.0,161.4,135.0,36.9,1005.0,5012.0,3.0,1,
253813,1859.2,188.7,129.9,57.2,1189.0,5166.0,2.0,0,
253913,1833.2,190.3,133.0,168.4,1209.0,5475.0,2.0,0,
254013,1871.3,46.8,130.6,217.8,1224.0,5463.0,3.0,1,
254113,1858.0,15.4,130.7,189.4,1224.0,5463.0,3.0,1,
254213,1858.9,12.1,130.7,164.1,1224.0,5463.0,3.0,1,
254313,1859.3,12.7,130.7,99.2,1224.0,5463.0,3.0,1,
254513,1862.0,13.4,130.7,240.0,1224.0,5463.0,3.0,1,
254613,1860.5,12.5,130.7,240.2,1224.0,5463.0,3.0,1,
254713,1859.9,11.0,130.8,240.1,1224.0,5463.0,3.0,1,
254813,1860.2,11.7,130.8,240.2,1224.0,5463.0,3.0,1,
254913,1859.8,13.4,130.8,240.3,1224.0,5463.0,3.0,1,
255013,1856.1,53.6,130.7,239.9,674.0,5160.0,5.0,1,
255113,1879.1,233.4,132.2,103.6,1063.0,5044.0,27.0,0,
255213,1872.0,195.2,145.4,57.0,955.0,5212.0,28.0,0,
255313,1846.3,224.8,145.4,78.7,1536.0,5287.0,2.0,0,
255513,1871.6,419.3,150.3,221.1,1215.0,5792.0,3.0,1,
255613,1850.3,74.0,174.3,103.1,1200.0,6586.0,5.0,1,
255713,1862.1,15.7,174.3,35.1,1200.0,6586.0,5.0,1,
255813,1859.7,13.4,174.2,30.1,1200.0,6586.0,5.0,1,
255913,1859.5,10.7,174.2,34.9,1200.0,6586.0,5.0,1,
256013,1860.9,12.4,174.2,74.9,1200.0,6586.0,5.0,1,
256113,1859.6,10.9,174.3,240.2,1200.0,6586.0,5.0,1,
256213,1858.3,11.9,174.3,240.4,1200.0,6586.0,5.0,1,
256313,1859.4,12.1,174.3,240.4,1200.0,6586.0,5.0,1,
256513,1857.5,13.3,174.3,240.3,1200.0,6586.0,5.0,1,
256613,1872.1,50.9,174.4,240.2,627.0,4995.0,5.0,1,
256713,1848.7,93.5,172.1,99.2,730.0,5003.0,4.0,1,
256813,1846.1,257.7,169.5,39.4,1344.0,5533.0,28.0,0,
256913,1861.3,229.2,170.4,36.8,1050.0,4843.0,2.0,0,
257013,1868.4,205.6,168.4,68.7,1662.0,5892.0,2.0,0,
257113,1869.3,147.0,165.8,155.0,1129.0,5161.0,3.0,1,
257213,1840.1,145.8,144.9,238.0,1096.0,4710.0,2.0,0,
257313,1862.0,20.7,144.7,231.0,1096.0,4710.0,2.0,0,
257513,1858.3,13.3,144.7,94.3,1096.0,4710.0,2.0,0,
257613,1859.0,12.9,144.7,124.5,1096.0,4710.0,2.0,0,
257713,1858.3,12.3,144.8,239.8,1096.0,4710.0,2.0,0,
257813,1860.0,11.8,144.8,240.1,1096.0,4710.0,2.0,0,
257913,1860.0,14.2,144.7,240.4,1096.0,4710.0,2.0,0,
258013,1858.4,11.4,144.8,240.3,1096.0,4710.0,2.0,0,
258113,1860.4,13.0,144.7,239.7,1096.0,4710.0,2.0,0,
258213,1859.1,79.7,144.7,239.8,1096.0,4710.0,2.0,0,
258313,1838.8,170.0,147.0,47.5,797.0,5710.0,4.0,1,
258513,1865.3,219.4,141.9,38.4,1369.0,5293.0,2.0,0,
258613,1853.8,213.7,145.3,42.4,1056.0,4526.0,2.0,0,
258713,1839.9,215.9,149.4,103.7,1103.0,5584.0,2.0,0,
258813,1866.1,232.8,148.9,198.1,1167.0,5260.0,3.0,1,
258913,1866.8,23.1,147.5,259.0,1157.0,5277.0,3.0,1,
259013,1857.8,13.4,147.6,186.9,1157.0,5277.0,3.0,1,
259113,1860.5,12.6,147.5,35.7,1157.0,5277.0,3.0,1,
259213,1857.4,12.7,147.5,35.2,1157.0,5277.0,3.0,1,
259313,1861.4,14.6,147.5,239.5,1157.0,5277.0,3.0,1,
259513,1858.2,13.0,147.5,240.1,1157.0,5277.0,3.0,1,
259613,1860.3,13.4,147.5,240.1,1157.0,5277.0,3.0,1,
259713,1859.0,12.1,147.5,240.1,1157.0,5277.0,3.0,1,
259813,1860.1,15.2,147.5,240.1,1157.0,5277.0,3.0,1,
259913,1885.3,131.5,146.1,239.2,707.0,5108.0,6.0,1,
260013,1846.3,103.2,145.4,44.1,844.0,5846.0,5.0,1,
260113,1853.1,222.2,140.7,37.7,1076.0,6022.0,2.0,0,
260213,1844.1,284.3,141.8,39.3,963.0,4794.0,28.0,0,
260313,1876.7,281.8,140.9,65.7,768.0,4238.0,2.0,0,
260513,1843.4,22.8,142.0,102.2,761.0,4631.0,5.0,1,
260613,1859.5,12.7,142.0,50.3,761.0,4631.0,5.0,1,
260713,1858.5,11.6,142.0,50.3,761.0,4631.0,5.0,1,
260813,1859.2,13.2,142.0,54.3,761.0,4631.0,5.0,1,
260913,1860.3,13.9,142.0,239.6,761.0,4631.0,5.0,1,
261013,1862.0,12.1,142.0,240.1,761.0,4631.0,5.0,1,
261113,1859.8,13.6,142.0,240.4,761.0,4631.0,5.0,1,
261213,1858.4,13.0,142.0,240.5,761.0,4631.0,5.0,1,
261313,1860.8,12.7,142.0,240.0,761.0,4631.0,5.0,1,
261513,1860.6,41.5,142.5,239.7,764.0,5329.0,4.0,1,
261613,1858.3,218.2,146.2,66.8,1254.0,5970.0,2.0,0,
261713,1860.8,250.8,156.8,44.6,1010.0,5527.0,28.0,0,
261813,1884.4,220.6,151.7,47.4,1312.0,5291.0,2.0,0,
261913,1845.3,199.3,151.3,78.2,945.0,4716.0,2.0,0,
262013,1849.9,212.0,144.8,201.9,1504.0,5748.0,2.0,0,
262113,1854.5,48.6,149.9,226.1,1007.0,5026.0,2.0,0,
262213,1859.8,16.6,149.9,227.9,1007.0,5026.0,2.0,0,
262313,1857.5,12.8,149.9,196.1,1007.0,5026.0,2.0,0,
262513,1859.1,11.9,149.9,196.0,1007.0,5026.0,2.0,0,
262613,1860.0,11.3,149.9,240.2,1007.0,5026.0,2.0,0,
262713,1859.1,11.5,150.0,240.2,1007.0,5026.0,2.0,0,
262813,1857.9,12.3,150.0,240.3,1007.0,5026.0,2.0,0,
262913,1859.3,12.8,150.0,240.2,1007.0,5026.0,2.0,0,
263013,1860.2,12.7,150.0,240.2,1007.0,5026.0,2.0,0,
263113,1847.2,54.6,149.7,240.0,589.0,4768.0,5.0,1,
263213,1879.8,67.6,146.1,76.4,703.0,5152.0,5.0,1,
263313,1855.8,68.2,134.9,66.2,918.0,6125.0,5.0,1,
263513,1849.4,278.2,123.0,50.3,1189.0,4988.0,2.0,0,
263613,1865.5,234.5,130.4,52.8,916.0,4638.0,2.0,0,
263713,1857.7,78.1,128.2,100.4,1002.0,4818.0,2.0,0,
263813,1862.4,17.3,128.2,148.6,1002.0,4818.0,2.0,0,
263913,1859.2,13.9,128.2,135.5,1002.0,4818.0,2.0,0,
264013,1858.5,10.6,128.2,140.3,1002.0,4818.0,2.0,0,
264113,1859.5,12.1,128.2,178.2,1002.0,4818.0,2.0,0,
264213,1858.5,11.4,128.2,240.1,1002.0,4818.0,2.0,0,
