Time(ms),Raw_ADC,ENV_Value,RMS,MDF,MW_Amp,MW_Area,MW_Latency,MW_Valid,Marker
0,1867.4,33.5,0.0,164.9,851.0,4922.0,5.0,1,
100,1855.5,15.8,0.0,164.9,851.0,4922.0,5.0,1,
200,1858.8,14.8,0.0,164.9,851.0,4922.0,5.0,1,
300,1860.8,13.9,0.0,164.9,851.0,4922.0,5.0,1,
400,1860.6,11.2,0.0,164.9,851.0,4922.0,5.0,1,
500,1858.9,10.4,0.0,238.7,851.0,4922.0,5.0,1,
600,1860.5,10.0,0.0,240.0,851.0,4922.0,5.0,1,
700,1857.7,9.4,0.0,239.9,851.0,4922.0,5.0,1,
800,1860.0,10.2,0.0,239.7,851.0,4922.0,5.0,1,
900,1858.0,9.8,0.0,239.8,851.0,4922.0,5.0,1,
1000,1864.2,51.7,0.0,239.9,341.0,2651.0,7.0,1,
1100,1864.3,204.5,0.0,49.7,668.0,4054.0,5.0,1,
1200,1872.8,50.0,0.0,39.7,849.0,5017.0,4.0,1,
1300,1842.5,170.7,0.0,37.7,990.0,5663.0,4.0,1,
1400,1844.3,74.5,0.0,35.9,1020.0,5756.0,4.0,1,
1500,1871.5,43.0,0.0,34.9,1082.0,5996.0,4.0,1,
1600,1853.9,64.3,102.4,37.6,1095.0,6172.0,4.0,1,
1700,1857.3,21.4,102.2,37.1,1095.0,6172.0,4.0,1,
1800,1858.0,10.5,102.2,37.1,1095.0,6172.0,4.0,1,
1900,1859.6,10.7,102.2,38.1,1095.0,6172.0,4.0,1,
2000,1859.1,11.7,102.1,68.6,1095.0,6172.0,4.0,1,
2100,1858.5,9.8,102.1,240.2,1095.0,6172.0,4.0,1,
2200,1859.0,11.5,102.1,240.5,1095.0,6172.0,4.0,1,
2300,1858.7,11.3,102.1,240.2,1095.0,6172.0,4.0,1,
2500,1859.8,11.1,102.2,240.3,1095.0,6172.0,4.0,1,
2600,1875.2,28.0,102.3,240.5,161.0,1449.0,8.0,1,
2700,1840.8,144.7,96.1,219.2,513.0,3509.0,6.0,1,
2800,1853.4,42.8,88.5,43.5,622.0,4269.0,5.0,1,
2900,1867.2,40.2,88.6,42.9,813.0,5016.0,5.0,1,
3000,1875.1,63.0,79.0,37.6,911.0,5574.0,4.0,1,
3100,1855.8,46.0,77.4,37.0,939.0,5587.0,5.0,1,
3200,1835.3,39.6,63.1,36.0,918.0,5899.0,4.0,1,
3300,1864.7,22.7,62.6,35.6,918.0,5899.0,4.0,1,
3500,1860.0,18.9,62.6,103.3,918.0,5899.0,4.0,1,
3600,1858.9,13.1,62.7,142.7,918.0,5899.0,4.0,1,
3700,1859.6,18.3,62.9,187.0,918.0,5899.0,4.0,1,
3800,1858.3,12.9,62.9,163.5,918.0,5899.0,4.0,1,
3900,1859.5,12.1,63.0,188.0,918.0,5899.0,4.0,1,
4000,1858.4,14.9,62.9,237.8,918.0,5899.0,4.0,1,
4100,1859.9,10.6,62.9,239.7,918.0,5899.0,4.0,1,
4200,1860.0,15.3,62.9,239.9,918.0,5899.0,4.0,1,
4300,1848.0,159.2,57.6,239.7,683.0,4583.0,6.0,1,
4500,1851.3,50.4,60.3,37.2,593.0,3818.0,5.0,1,
4600,1838.6,41.1,64.4,35.4,623.0,3781.0,5.0,1,
4700,1871.3,40.8,63.5,37.1,635.0,3654.0,5.0,1,
4800,1858.6,130.2,63.4,37.5,587.0,3143.0,6.0,1,
4900,1851.1,29.6,69.6,37.3,559.0,3217.0,5.0,1,
5000,1857.9,30.0,70.0,42.4,559.0,3217.0,5.0,1,
5100,1859.6,16.0,70.2,46.2,559.0,3217.0,5.0,1,
5200,1858.3,16.2,70.1,76.0,559.0,3217.0,5.0,1,
5300,1858.1,15.7,70.2,109.9,559.0,3217.0,5.0,1,
5500,1859.9,19.0,70.3,175.3,559.0,3217.0,5.0,1,
5600,1858.5,12.2,70.4,204.1,559.0,3217.0,5.0,1,
5700,1859.1,17.8,70.5,178.4,559.0,3217.0,5.0,1,
5800,1858.5,14.9,70.5,163.4,559.0,3217.0,5.0,1,
5900,1858.5,158.8,78.0,108.6,504.0,3037.0,7.0,1,
6000,1847.5,36.7,74.6,38.5,568.0,3352.0,7.0,1,
6100,1860.7,201.6,76.4,35.0,429.0,3006.0,5.0,1,
6200,1862.7,64.9,87.6,29.4,447.0,3090.0,6.0,1,
6300,1879.2,36.3,87.9,29.5,449.0,2935.0,7.0,1,
6500,1851.7,19.1,93.3,34.9,421.0,2668.0,3.0,1,
6600,1856.3,13.6,92.9,39.3,421.0,2668.0,3.0,1,
6700,1859.5,12.0,92.6,44.5,421.0,2668.0,3.0,1,
6800,1860.8,11.9,92.7,70.2,421.0,2668.0,3.0,1,
6900,1860.5,11.6,92.7,239.7,421.0,2668.0,3.0,1,
7000,1857.2,11.9,92.5,240.2,421.0,2668.0,3.0,1,
7100,1857.9,11.1,92.5,240.2,421.0,2668.0,3.0,1,
7200,1860.7,10.4,92.4,240.1,421.0,2668.0,3.0,1,
7300,1858.9,11.8,92.4,240.5,421.0,2668.0,3.0,1,
7500,1847.3,132.1,91.5,239.7,468.0,2795.0,8.0,1,
7600,1877.2,66.3,85.1,76.0,610.0,4272.0,6.0,1,
7700,1860.6,44.8,86.0,38.0,458.0,3124.0,7.0,1,
7800,1847.8,46.6,66.9,35.9,381.0,2760.0,5.0,1,
7900,1859.7,35.3,67.3,66.6,429.0,2950.0,6.0,1,
8000,1842.0,122.2,64.3,71.6,363.0,2705.0,7.0,1,
8100,1866.3,22.4,63.9,40.6,362.0,2552.0,6.0,1,
8200,1858.1,13.4,64.0,35.3,362.0,2552.0,6.0,1,
8300,1860.2,13.2,64.0,29.8,362.0,2552.0,6.0,1,
8500,1859.8,13.5,64.0,239.6,362.0,2552.0,6.0,1,
8600,1858.2,12.7,64.0,240.0,362.0,2552.0,6.0,1,
8700,1859.3,11.2,64.0,240.0,362.0,2552.0,6.0,1,
8800,1860.1,11.8,64.0,240.1,362.0,2552.0,6.0,1,
8900,1858.2,11.5,64.0,240.4,362.0,2552.0,6.0,1,
9000,1859.0,13.1,64.0,240.3,362.0,2552.0,6.0,1,
9100,1864.5,114.0,67.7,239.8,359.0,2390.0,8.0,1,
9200,1875.3,55.0,66.9,42.8,656.0,4608.0,8.0,1,
9300,1828.7,44.6,70.3,29.5,672.0,4656.0,3.0,1,
9500,1879.0,70.8,70.7,35.9,845.0,4836.0,3.0,1,
9600,1862.9,82.4,72.5,39.4,897.0,5317.0,3.0,1,
9700,1840.6,23.6,66.4,36.7,828.0,4700.0,4.0,1,
9800,1855.6,13.1,66.4,37.3,828.0,4700.0,4.0,1,
9900,1859.2,13.0,66.3,39.5,828.0,4700.0,4.0,1,
10000,1860.9,14.3,66.4,51.0,828.0,4700.0,4.0,1,
10100,1859.1,11.3,66.5,237.8,828.0,4700.0,4.0,1,
10200,1857.7,10.3,66.4,239.4,828.0,4700.0,4.0,1,
10300,1859.2,12.5,66.4,239.7,828.0,4700.0,4.0,1,
10500,1859.0,12.3,66.5,240.4,828.0,4700.0,4.0,1,
10600,1860.0,12.0,66.5,240.3,828.0,4700.0,4.0,1,
10700,1858.1,65.4,70.9,240.0,430.0,3185.0,3.0,1,
10800,1864.5,51.7,62.9,56.0,650.0,4017.0,3.0,1,
10900,1859.8,56.4,63.4,28.5,612.0,3399.0,2.0,0,
11000,1872.1,26.5,60.7,29.2,707.0,3599.0,3.0,1,
11100,1841.7,46.1,61.0,36.2,804.0,3681.0,2.0,0,
11200,1844.2,73.9,68.9,36.0,781.0,3916.0,2.0,0,
11300,1871.9,22.4,66.6,29.2,778.0,3709.0,3.0,1,
11500,1859.1,12.6,66.5,29.1,778.0,3709.0,3.0,1,
11600,1860.5,11.9,66.5,30.1,778.0,3709.0,3.0,1,
11700,1860.7,11.5,66.5,237.8,778.0,3709.0,3.0,1,
11800,1859.0,11.5,66.5,240.1,778.0,3709.0,3.0,1,
11900,1860.7,11.5,66.5,240.1,778.0,3709.0,3.0,1,
12000,1858.3,11.3,66.5,240.3,778.0,3709.0,3.0,1,
12100,1859.0,12.2,66.4,240.3,778.0,3709.0,3.0,1,
12200,1859.1,11.8,66.4,240.3,778.0,3709.0,3.0,1,
12300,1875.2,35.3,66.4,240.4,778.0,3709.0,3.0,1,
12500,1821.8,120.3,69.8,65.8,765.0,3821.0,3.0,1,
12600,1863.5,25.2,73.2,43.7,805.0,3826.0,3.0,1,
12700,1863.8,171.3,77.3,45.9,789.0,4181.0,2.0,0,
12800,1867.4,53.9,79.9,44.5,955.0,4310.0,3.0,1,
12900,1864.3,29.9,76.4,42.3,801.0,4547.0,3.0,1,
13000,1844.6,25.8,76.5,45.8,801.0,4547.0,3.0,1,
13100,1859.2,13.2,76.6,44.9,801.0,4547.0,3.0,1,
13200,1858.7,11.5,76.6,83.0,801.0,4547.0,3.0,1,
13300,1860.5,12.2,76.6,134.2,801.0,4547.0,3.0,1,
13500,1859.5,11.4,76.6,240.1,801.0,4547.0,3.0,1,
13600,1859.6,12.1,76.6,240.6,801.0,4547.0,3.0,1,
13700,1858.3,13.8,76.6,240.6,801.0,4547.0,3.0,1,
13800,1858.8,12.1,76.6,240.3,801.0,4547.0,3.0,1,
13900,1858.3,11.4,76.6,240.4,801.0,4547.0,3.0,1,
14000,1868.0,26.8,77.7,239.6,457.0,2968.0,3.0,1,
14100,1848.8,159.1,67.8,65.8,495.0,3493.0,4.0,1,
14200,1883.1,39.2,70.3,39.8,508.0,3025.0,3.0,1,
14300,1859.5,88.1,72.6,36.8,434.0,2972.0,2.0,0,
14500,1870.6,19.4,67.2,29.6,500.0,3028.0,3.0,1,
14600,1863.3,14.1,67.1,27.6,517.0,3196.0,5.0,1,
14700,1856.4,12.1,66.9,27.4,517.0,3196.0,5.0,1,
14800,1860.7,19.7,67.1,35.9,517.0,3196.0,5.0,1,
14900,1859.2,12.2,67.1,98.8,517.0,3196.0,5.0,1,rest_end
15000,1858.5,12.2,67.1,82.7,517.0,3196.0,5.0,1,
15100,1858.5,12.3,67.0,113.0,517.0,3196.0,5.0,1,
15200,1858.1,13.0,67.0,239.8,517.0,3196.0,5.0,1,
15300,1858.8,12.5,67.1,240.0,517.0,3196.0,5.0,1,
15500,1859.1,16.2,67.1,240.5,517.0,3196.0,5.0,1,
15600,1885.4,45.6,66.8,240.1,396.0,2626.0,2.0,0,
15700,1851.4,79.4,64.9,66.2,621.0,3774.0,3.0,1,
15800,1843.3,58.4,65.9,44.0,585.0,3381.0,3.0,1,
15900,1864.8,42.3,65.9,36.1,759.0,4065.0,3.0,1,
16000,1846.7,111.1,70.9,34.8,671.0,3608.0,3.0,1,
16100,1893.4,31.9,70.6,29.7,633.0,3516.0,3.0,1,
16200,1844.0,14.8,70.6,29.7,715.0,3611.0,3.0,1,
16300,1859.0,12.4,70.6,29.6,715.0,3611.0,3.0,1,
16500,1860.2,12.0,70.4,207.6,715.0,3611.0,3.0,1,
16600,1859.1,10.9,70.4,239.9,715.0,3611.0,3.0,1,
16700,1859.4,13.5,70.5,240.2,715.0,3611.0,3.0,1,
16800,1858.4,13.0,70.5,240.4,715.0,3611.0,3.0,1,
16900,1859.7,14.2,70.5,240.5,715.0,3611.0,3.0,1,
17000,1857.4,16.7,70.5,240.5,715.0,3611.0,3.0,1,
17100,1858.1,14.1,70.6,240.1,715.0,3611.0,3.0,1,
17200,1871.6,24.8,70.3,183.7,474.0,2676.0,3.0,1,
17300,1853.8,55.2,72.1,99.8,601.0,3321.0,2.0,0,
17500,1895.1,23.9,67.2,35.6,738.0,3726.0,3.0,1,
17600,1828.6,90.3,57.8,30.2,684.0,3359.0,2.0,0,
17700,1863.0,29.3,54.4,29.8,828.0,3636.0,3.0,1,
17800,1865.4,16.9,54.4,28.6,877.0,3813.0,3.0,1,
17900,1857.5,12.1,54.4,28.3,877.0,3813.0,3.0,1,
18000,1860.4,12.6,54.4,30.1,877.0,3813.0,3.0,1,
18100,1859.6,11.8,54.4,117.6,877.0,3813.0,3.0,1,
18200,1858.9,12.8,54.4,239.7,877.0,3813.0,3.0,1,
18300,1857.9,11.9,54.3,240.2,877.0,3813.0,3.0,1,
18500,1860.0,12.6,54.4,240.3,877.0,3813.0,3.0,1,
18600,1859.4,13.3,54.3,240.2,877.0,3813.0,3.0,1,
18700,1859.3,13.5,54.2,240.1,877.0,3813.0,3.0,1,
18800,1862.3,52.4,54.8,239.9,325.0,2483.0,5.0,1,
18900,1875.0,145.4,64.3,94.0,368.0,2479.0,3.0,1,
19000,1852.0,73.4,75.1,35.5,353.0,2699.0,4.0,1,
19100,1859.3,137.1,76.1,30.1,400.0,2788.0,3.0,1,
19200,1839.8,112.6,87.9,29.3,580.0,3668.0,4.0,1,
19300,1879.0,43.0,83.8,29.7,512.0,3237.0,3.0,1,
19500,1857.5,25.7,93.7,34.4,512.0,3237.0,3.0,1,
19600,1857.3,13.8,93.9,29.6,512.0,3237.0,3.0,1,
19700,1859.8,11.9,93.9,30.1,512.0,3237.0,3.0,1,
19800,1860.2,12.8,93.9,50.3,512.0,3237.0,3.0,1,
19900,1860.5,13.8,93.9,197.2,512.0,3237.0,3.0,1,
20000,1860.0,13.2,93.9,240.0,512.0,3237.0,3.0,1,
20100,1860.2,12.2,93.9,240.3,512.0,3237.0,3.0,1,
20200,1858.0,12.4,93.9,240.4,512.0,3237.0,3.0,1,
20300,1857.8,11.7,93.9,240.5,512.0,3237.0,3.0,1,
20500,1843.0,182.9,92.6,174.3,730.0,4880.0,4.0,1,
20600,1844.2,76.7,92.0,37.5,784.0,5097.0,5.0,1,
20700,1877.5,60.4,92.1,36.0,806.0,5307.0,5.0,1,
20800,1865.0,146.0,92.4,35.0,847.0,5060.0,5.0,1,
20900,1849.9,47.5,93.8,34.5,910.0,5093.0,5.0,1,
21000,1846.5,45.3,84.2,34.5,855.0,4340.0,5.0,1,
21100,1860.7,32.0,84.2,29.9,855.0,4340.0,5.0,1,
21200,1859.0,14.9,84.6,35.5,855.0,4340.0,5.0,1,
21300,1861.0,11.8,84.6,68.6,855.0,4340.0,5.0,1,
21500,1859.3,13.3,84.5,80.6,855.0,4340.0,5.0,1,
21600,1860.8,12.4,84.5,239.9,855.0,4340.0,5.0,1,
21700,1860.6,12.1,84.5,239.9,855.0,4340.0,5.0,1,
21800,1858.4,11.2,84.5,239.9,855.0,4340.0,5.0,1,
21900,1859.2,12.4,84.5,239.6,855.0,4340.0,5.0,1,
22000,1860.0,35.2,84.6,239.0,855.0,4340.0,5.0,1,
22100,1857.8,182.6,96.0,66.1,736.0,5422.0,6.0,1,
22200,1880.0,74.6,93.1,34.6,807.0,4525.0,3.0,1,
22300,1854.2,51.1,93.1,34.8,779.0,4765.0,3.0,1,
22500,1869.8,56.3,90.0,35.4,927.0,4777.0,3.0,1,
22600,1868.8,144.8,91.5,34.7,854.0,4185.0,2.0,0,
22700,1846.4,20.3,96.9,30.2,862.0,4260.0,2.0,0,
22800,1859.4,13.1,96.4,35.8,862.0,4260.0,2.0,0,
22900,1858.8,12.8,96.4,35.4,862.0,4260.0,2.0,0,
23000,1861.6,11.7,96.5,35.4,862.0,4260.0,2.0,0,
23100,1858.8,12.3,96.5,239.8,862.0,4260.0,2.0,0,
23200,1859.0,11.5,96.4,240.4,862.0,4260.0,2.0,0,
23300,1858.0,12.7,96.4,239.9,862.0,4260.0,2.0,0,
23500,1858.7,14.0,96.4,132.5,862.0,4260.0,2.0,0,
23600,1858.7,16.0,96.4,178.3,862.0,4260.0,2.0,0,
23700,1868.0,182.9,94.6,197.7,393.0,3060.0,4.0,1,
23800,1845.7,53.8,87.1,38.6,482.0,2961.0,3.0,1,
23900,1871.0,81.6,86.1,35.7,568.0,3476.0,4.0,1,
24000,1855.4,115.4,89.3,30.2,577.0,3506.0,3.0,1,
24100,1883.1,35.4,86.0,30.1,657.0,4082.0,4.0,1,
24200,1831.1,177.6,93.2,29.5,699.0,3786.0,3.0,1,
24300,1855.0,26.1,91.4,29.1,736.0,3719.0,3.0,1,
24500,1860.5,11.5,91.5,28.8,736.0,3719.0,3.0,1,
24600,1859.9,12.5,91.4,29.3,736.0,3719.0,3.0,1,
24700,1862.0,11.7,91.5,187.8,736.0,3719.0,3.0,1,
24800,1857.5,11.9,91.5,240.4,736.0,3719.0,3.0,1,
24900,1859.5,12.1,91.4,240.6,736.0,3719.0,3.0,1,
25000,1859.5,11.8,91.4,240.5,736.0,3719.0,3.0,1,
25100,1858.0,13.0,91.5,240.4,736.0,3719.0,3.0,1,
25200,1859.5,11.9,91.4,240.4,736.0,3719.0,3.0,1,
25300,1849.8,81.3,94.4,240.1,457.0,3042.0,3.0,1,
25500,1874.4,148.1,89.1,48.4,497.0,3443.0,3.0,1,
25600,1830.4,106.6,96.8,30.2,540.0,3461.0,4.0,1,
25700,1863.3,48.7,94.7,29.5,695.0,3995.0,3.0,1,
25800,1853.9,57.2,94.6,28.9,699.0,3716.0,3.0,1,
25900,1854.5,25.2,85.1,29.3,729.0,3732.0,3.0,1,
26000,1856.1,15.2,85.2,35.5,729.0,3732.0,3.0,1,
26100,1859.7,12.1,85.1,42.2,729.0,3732.0,3.0,1,
26200,1860.7,12.4,85.2,50.2,729.0,3732.0,3.0,1,
26300,1859.5,11.7,85.1,219.5,729.0,3732.0,3.0,1,
26500,1858.3,13.3,85.2,240.1,729.0,3732.0,3.0,1,
26600,1858.7,13.0,85.2,239.9,729.0,3732.0,3.0,1,
26700,1858.1,10.8,85.2,240.1,729.0,3732.0,3.0,1,
26800,1857.8,12.2,85.1,239.9,729.0,3732.0,3.0,1,
26900,1869.5,151.4,92.8,152.0,380.0,2821.0,3.0,1,
27000,1848.6,55.2,95.4,38.9,433.0,3108.0,4.0,1,
27100,1859.7,42.2,95.3,35.6,596.0,3553.0,3.0,1,
27200,1843.7,136.6,81.1,29.3,592.0,3422.0,3.0,1,
27300,1889.9,38.0,80.9,29.3,786.0,3810.0,3.0,1,
27500,1842.5,31.8,84.7,29.2,671.0,3406.0,3.0,1,
27600,1857.3,14.2,84.7,28.7,671.0,3406.0,3.0,1,
27700,1860.6,10.8,84.7,28.3,671.0,3406.0,3.0,1,
27800,1860.9,11.7,84.7,28.5,671.0,3406.0,3.0,1,
27900,1860.1,14.4,84.7,166.3,671.0,3406.0,3.0,1,
28000,1859.6,13.1,84.7,240.3,671.0,3406.0,3.0,1,
28100,1857.9,13.2,84.7,240.5,671.0,3406.0,3.0,1,
28200,1857.9,12.6,84.7,240.4,671.0,3406.0,3.0,1,
28300,1858.5,13.9,84.7,240.1,671.0,3406.0,3.0,1,
28500,1855.9,21.3,77.6,240.1,329.0,2604.0,3.0,1,
28600,1845.3,58.6,70.8,135.7,422.0,2813.0,4.0,1,
28700,1886.2,53.0,71.2,42.9,374.0,2675.0,4.0,1,
28800,1847.9,114.7,76.6,38.7,385.0,2616.0,3.0,1,
28900,1855.8,53.2,73.7,35.1,458.0,3381.0,4.0,1,
29000,1854.7,170.1,73.2,34.3,425.0,2866.0,3.0,1,
29100,1853.9,41.2,75.7,29.8,460.0,3027.0,4.0,1,
29200,1861.7,13.4,75.7,34.3,460.0,3027.0,4.0,1,
29300,1859.0,11.1,75.7,29.6,460.0,3027.0,4.0,1,
29500,1859.2,13.0,75.6,90.1,460.0,3027.0,4.0,1,
29600,1859.1,11.8,75.6,240.2,460.0,3027.0,4.0,1,
29700,1860.1,12.5,75.6,240.5,460.0,3027.0,4.0,1,
29800,1859.0,12.6,75.6,240.5,460.0,3027.0,4.0,1,
29900,1858.0,12.1,75.7,240.3,460.0,3027.0,4.0,1,
30000,1858.8,12.5,75.5,240.2,460.0,3027.0,4.0,1,
30100,1864.5,129.1,77.0,240.1,460.0,3027.0,4.0,1,
30200,1857.9,73.3,87.9,35.2,411.0,2847.0,3.0,1,
30300,1859.2,111.7,88.2,29.6,402.0,2958.0,5.0,1,
30500,1864.5,53.8,93.4,29.9,524.0,3259.0,4.0,1,
30600,1877.3,133.9,101.7,34.2,446.0,2772.0,4.0,1,
30700,1850.5,48.5,99.9,29.9,665.0,3525.0,4.0,1,
30800,1847.3,14.2,99.8,29.1,665.0,3525.0,4.0,1,
30900,1860.8,15.4,99.9,28.1,665.0,3525.0,4.0,1,
31000,1860.5,13.0,99.9,28.3,665.0,3525.0,4.0,1,
31100,1860.4,12.9,100.0,86.2,665.0,3525.0,4.0,1,
31200,1858.6,14.0,99.9,240.2,665.0,3525.0,4.0,1,
31300,1857.5,12.1,99.9,240.2,665.0,3525.0,4.0,1,
31500,1858.0,14.5,99.9,239.9,665.0,3525.0,4.0,1,
31600,1857.6,11.1,99.9,239.6,665.0,3525.0,4.0,1,
31700,1856.9,85.6,99.8,239.6,665.0,3525.0,4.0,1,
31800,1844.9,61.4,95.4,39.4,445.0,3263.0,4.0,1,
31900,1869.9,46.7,94.8,29.0,628.0,3994.0,3.0,1,
32000,1866.6,137.7,93.6,29.1,692.0,3755.0,3.0,1,
32100,1862.0,28.5,90.3,29.9,939.0,4547.0,4.0,1,
32200,1848.2,134.5,82.6,34.6,1056.0,4434.0,2.0,0,
32300,1849.4,51.4,81.9,30.2,934.0,4416.0,2.0,0,
32500,1858.4,12.6,81.8,30.0,934.0,4416.0,2.0,0,
32600,1859.8,11.0,81.8,30.0,934.0,4416.0,2.0,0,
32700,1859.8,11.4,81.7,88.1,934.0,4416.0,2.0,0,
32800,1860.2,13.3,81.7,239.4,934.0,4416.0,2.0,0,
32900,1858.8,11.6,81.8,240.1,934.0,4416.0,2.0,0,
33000,1858.2,12.7,81.8,240.2,934.0,4416.0,2.0,0,
33100,1859.9,11.5,81.8,240.2,934.0,4416.0,2.0,0,
33200,1859.6,11.6,81.9,240.2,934.0,4416.0,2.0,0,
33300,1858.8,13.0,81.9,240.3,934.0,4416.0,2.0,0,
33500,1871.9,38.7,85.3,29.1,441.0,2911.0,4.0,1,
33600,1837.7,174.9,85.4,29.0,326.0,2718.0,3.0,1,
33700,1855.0,43.7,84.8,29.4,471.0,3253.0,4.0,1,
33800,1877.0,177.5,85.8,34.3,394.0,2836.0,4.0,1,
33900,1861.7,94.2,99.0,29.8,442.0,3043.0,4.0,1,
34000,1844.2,19.3,99.2,29.8,396.0,2757.0,4.0,1,
34100,1858.6,13.5,99.2,28.9,396.0,2757.0,4.0,1,
34200,1858.6,12.3,99.2,28.3,396.0,2757.0,4.0,1,
34300,1860.8,13.0,99.2,36.9,396.0,2757.0,4.0,1,
34500,1859.0,13.2,99.2,240.4,396.0,2757.0,4.0,1,
34600,1859.0,13.0,99.2,240.3,396.0,2757.0,4.0,1,
34700,1860.0,13.4,99.3,240.3,396.0,2757.0,4.0,1,
34800,1859.5,12.7,99.3,240.4,396.0,2757.0,4.0,1,
34900,1859.6,11.3,99.3,240.7,396.0,2757.0,4.0,1,
35000,1851.9,135.3,100.3,173.3,351.0,2817.0,2.0,0,
35100,1860.8,40.4,99.6,28.8,332.0,2623.0,3.0,1,
35200,1858.4,165.4,101.8,28.7,340.0,2597.0,3.0,1,
35300,1873.0,80.5,102.8,29.2,508.0,3212.0,3.0,1,
35500,1838.8,129.3,94.3,29.7,653.0,3693.0,3.0,1,
35600,1864.5,23.7,94.6,29.8,686.0,3824.0,4.0,1,
35700,1858.4,12.5,94.6,30.1,686.0,3824.0,4.0,1,
35800,1859.6,11.8,94.6,29.4,686.0,3824.0,4.0,1,
35900,1861.0,11.9,94.6,29.8,686.0,3824.0,4.0,1,
36000,1861.1,13.7,94.6,239.4,686.0,3824.0,4.0,1,
36100,1860.9,14.1,94.6,240.4,686.0,3824.0,4.0,1,
36200,1858.8,12.1,94.6,240.4,686.0,3824.0,4.0,1,
36300,1860.4,12.3,94.7,240.5,686.0,3824.0,4.0,1,
36500,1858.2,11.9,94.6,240.4,686.0,3824.0,4.0,1,
36600,1848.3,189.6,91.2,239.7,361.0,2585.0,6.0,1,
36700,1881.8,66.7,90.9,29.0,288.0,2385.0,3.0,1,
36800,1857.9,122.4,90.5,28.5,306.0,2628.0,3.0,1,
36900,1839.3,70.8,88.4,29.1,311.0,2504.0,3.0,1,
37000,1868.9,40.9,87.9,34.5,424.0,2864.0,3.0,1,
37100,1859.2,152.0,85.0,34.4,392.0,2754.0,3.0,1,
37200,1852.0,31.8,83.3,30.0,438.0,2947.0,3.0,1,
37300,1860.0,13.2,83.3,34.3,438.0,2947.0,3.0,1,
37500,1858.7,11.8,83.3,29.4,438.0,2947.0,3.0,1,
37600,1859.9,12.3,83.3,237.9,438.0,2947.0,3.0,1,
37700,1859.5,13.1,83.3,240.7,438.0,2947.0,3.0,1,
37800,1859.3,13.7,83.3,240.4,438.0,2947.0,3.0,1,
37900,1860.0,13.2,83.3,240.4,438.0,2947.0,3.0,1,
38000,1858.8,11.9,83.2,240.4,438.0,2947.0,3.0,1,
38100,1860.7,13.2,83.3,240.3,438.0,2947.0,3.0,1,
38200,1868.7,141.3,87.9,239.4,333.0,2358.0,5.0,1,
38300,1851.2,55.6,83.6,28.7,360.0,2649.0,3.0,1,
38500,1862.6,109.1,83.6,28.6,360.0,2744.0,4.0,1,
38600,1878.8,68.9,84.3,30.0,432.0,2784.0,4.0,1,
38700,1836.5,180.4,100.7,30.0,355.0,2721.0,4.0,1,
38800,1857.4,40.9,99.4,29.8,320.0,2365.0,6.0,1,
38900,1858.8,13.9,99.3,29.5,320.0,2365.0,6.0,1,
39000,1860.6,12.5,99.4,28.7,320.0,2365.0,6.0,1,
39100,1859.1,12.0,99.3,29.2,320.0,2365.0,6.0,1,
39200,1859.4,12.7,99.3,102.0,320.0,2365.0,6.0,1,
39300,1859.5,12.8,99.4,240.3,320.0,2365.0,6.0,1,
39500,1859.6,11.3,99.4,240.4,320.0,2365.0,6.0,1,
39600,1860.8,12.0,99.4,240.3,320.0,2365.0,6.0,1,
39700,1859.3,13.7,99.4,240.3,320.0,2365.0,6.0,1,
39800,1859.9,126.2,99.4,240.2,320.0,2365.0,6.0,1,
39900,1876.4,76.8,94.8,44.3,353.0,2648.0,5.0,1,
40000,1866.8,70.3,94.9,28.1,354.0,2709.0,3.0,1,
40100,1841.5,74.1,94.4,28.8,381.0,2922.0,4.0,1,
40200,1864.4,48.5,93.5,28.9,479.0,3329.0,4.0,1,
40300,1848.3,175.6,83.6,28.1,602.0,3692.0,3.0,1,
40500,1846.0,16.9,78.3,28.9,600.0,3732.0,4.0,1,
40600,1859.4,13.6,78.3,28.3,600.0,3732.0,4.0,1,
40700,1860.2,13.5,78.4,29.3,600.0,3732.0,4.0,1,
40800,1860.2,12.4,78.4,122.2,600.0,3732.0,4.0,1,
40900,1860.4,13.0,78.4,240.0,600.0,3732.0,4.0,1,
41000,1859.8,12.6,78.4,240.1,600.0,3732.0,4.0,1,
41100,1859.4,15.5,78.4,240.3,600.0,3732.0,4.0,1,
41200,1860.0,12.5,78.5,240.4,600.0,3732.0,4.0,1,
41300,1857.7,12.4,78.4,240.6,600.0,3732.0,4.0,1,
41500,1875.0,55.9,75.7,238.6,335.0,2627.0,5.0,1,
41600,1852.5,180.0,89.3,28.9,306.0,2536.0,3.0,1,
41700,1844.4,98.7,88.1,29.1,334.0,2488.0,4.0,1,
41800,1889.1,48.9,88.0,29.0,408.0,2958.0,4.0,1,
41900,1850.2,147.4,97.5,28.2,596.0,3805.0,3.0,1,
42000,1847.5,43.8,94.9,29.0,580.0,3429.0,3.0,1,
42100,1861.7,18.1,94.7,28.3,669.0,3561.0,4.0,1,
42200,1858.4,12.4,94.8,27.9,669.0,3561.0,4.0,1,
42300,1859.8,12.7,94.7,28.9,669.0,3561.0,4.0,1,
42500,1858.2,12.8,94.7,240.0,669.0,3561.0,4.0,1,
42600,1860.8,12.4,94.7,240.4,669.0,3561.0,4.0,1,
42700,1859.9,12.6,94.7,240.4,669.0,3561.0,4.0,1,
42800,1859.1,12.5,94.6,240.3,669.0,3561.0,4.0,1,
42900,1860.4,12.6,94.7,240.0,669.0,3561.0,4.0,1,
43000,1858.5,11.9,94.7,240.0,669.0,3561.0,4.0,1,
43100,1864.4,60.9,92.8,239.8,369.0,2646.0,4.0,1,
43200,1872.5,161.5,102.2,66.7,321.0,2499.0,3.0,1,
43300,1859.1,72.8,91.6,34.6,383.0,2651.0,3.0,1,
43500,1840.3,125.3,87.2,28.2,401.0,3024.0,4.0,1,
43600,1864.4,54.8,79.9,29.8,382.0,2914.0,4.0,1,
43700,1870.6,21.8,80.3,35.3,288.0,2582.0,4.0,1,
43800,1857.6,14.4,80.3,30.2,288.0,2582.0,4.0,1,
43900,1860.9,14.1,80.3,30.2,288.0,2582.0,4.0,1,
44000,1859.4,11.1,80.3,37.3,288.0,2582.0,4.0,1,
44100,1858.6,12.7,80.3,239.8,288.0,2582.0,4.0,1,
44200,1861.0,12.7,80.3,240.0,288.0,2582.0,4.0,1,
44300,1858.9,12.8,80.3,240.0,288.0,2582.0,4.0,1,
44500,1859.5,13.3,80.3,240.3,288.0,2582.0,4.0,1,
44600,1858.5,12.2,80.2,240.7,288.0,2582.0,4.0,1,
44700,1884.5,43.1,80.3,240.6,338.0,2517.0,5.0,1,
44800,1849.4,127.9,70.2,100.4,320.0,2917.0,4.0,1,
44900,1837.8,80.6,67.2,38.1,459.0,3533.0,5.0,1,
45000,1872.6,57.9,67.0,36.0,504.0,3532.0,4.0,1,
45100,1868.0,135.1,72.0,35.3,896.0,4956.0,3.0,1,
45200,1859.1,32.4,69.9,34.2,972.0,4860.0,3.0,1,
45300,1854.9,20.1,69.4,34.2,1016.0,4807.0,3.0,1,
45500,1858.9,12.4,69.4,34.2,1016.0,4807.0,3.0,1,
45600,1861.4,13.4,69.4,82.6,1016.0,4807.0,3.0,1,
45700,1858.3,14.7,69.4,239.3,1016.0,4807.0,3.0,1,
45800,1860.1,12.1,69.4,240.2,1016.0,4807.0,3.0,1,
45900,1859.4,13.8,69.4,240.2,1016.0,4807.0,3.0,1,
46000,1859.1,12.9,69.4,240.2,1016.0,4807.0,3.0,1,
46100,1860.7,12.8,69.5,240.3,1016.0,4807.0,3.0,1,
46200,1860.3,12.9,69.5,240.3,1016.0,4807.0,3.0,1,
46300,1862.7,31.5,69.9,240.1,328.0,2493.0,5.0,1,
46500,1865.4,85.5,83.3,35.5,239.0,2341.0,2.0,0,
46600,1874.3,39.7,82.5,34.7,427.0,2939.0,6.0,1,
46700,1838.3,143.8,82.8,28.7,395.0,2995.0,4.0,1,
46800,1858.3,38.4,79.9,29.9,497.0,3333.0,5.0,1,
46900,1868.3,28.5,80.1,35.2,475.0,3206.0,6.0,1,
47000,1861.7,12.2,80.2,30.0,475.0,3206.0,6.0,1,
47100,1859.3,12.0,80.1,34.7,475.0,3206.0,6.0,1,
47200,1860.6,12.1,80.1,37.8,475.0,3206.0,6.0,1,
47300,1859.0,12.5,80.1,188.3,475.0,3206.0,6.0,1,
47500,1860.4,12.9,80.2,240.4,475.0,3206.0,6.0,1,
47600,1859.7,12.1,80.2,240.6,475.0,3206.0,6.0,1,
47700,1860.2,14.2,80.2,240.4,475.0,3206.0,6.0,1,
47800,1859.4,12.0,80.1,240.2,475.0,3206.0,6.0,1,
47900,1876.1,38.2,80.2,240.3,475.0,3206.0,6.0,1,
48000,1872.1,47.0,73.8,238.4,385.0,2961.0,5.0,1,
48100,1832.6,115.2,65.1,38.0,528.0,4075.0,4.0,1,
48200,1856.9,62.7,68.2,35.9,582.0,4427.0,5.0,1,
48300,1858.5,187.3,71.0,29.3,646.0,4853.0,5.0,1,
48500,1861.2,54.5,79.1,35.4,687.0,4619.0,6.0,1,
48600,1845.6,14.9,79.7,34.6,687.0,4619.0,6.0,1,
48700,1859.7,12.7,79.7,35.1,687.0,4619.0,6.0,1,
48800,1859.6,12.0,79.7,37.8,687.0,4619.0,6.0,1,
48900,1860.5,12.3,79.8,68.3,687.0,4619.0,6.0,1,
49000,1858.9,11.6,79.7,239.8,687.0,4619.0,6.0,1,
49100,1860.3,12.7,79.7,240.6,687.0,4619.0,6.0,1,
49200,1858.8,13.7,79.7,240.5,687.0,4619.0,6.0,1,
49300,1859.6,11.0,79.7,240.0,687.0,4619.0,6.0,1,
49500,1860.5,14.6,79.7,239.9,687.0,4619.0,6.0,1,
49600,1866.3,59.1,81.9,190.3,790.0,5816.0,6.0,1,
49700,1848.4,154.4,85.4,65.8,768.0,4874.0,5.0,1,
49800,1895.4,57.8,82.4,37.5,779.0,4965.0,3.0,1,
49900,1846.3,124.3,81.3,36.1,800.0,4517.0,4.0,1,
50000,1843.5,51.4,74.6,34.9,821.0,4434.0,3.0,1,
50100,1869.6,35.9,72.3,35.3,831.0,4501.0,5.0,1,
50200,1864.5,14.6,71.5,30.2,716.0,4244.0,3.0,1,
50300,1859.0,14.4,71.6,30.0,716.0,4244.0,3.0,1,
50500,1858.5,14.6,71.6,195.1,716.0,4244.0,3.0,1,
50600,1860.1,13.8,71.6,239.8,716.0,4244.0,3.0,1,
50700,1859.9,13.0,71.6,239.7,716.0,4244.0,3.0,1,
50800,1860.2,13.4,71.6,240.0,716.0,4244.0,3.0,1,
50900,1859.6,11.3,71.6,240.1,716.0,4244.0,3.0,1,
51000,1859.6,15.4,71.7,240.0,716.0,4244.0,3.0,1,
51100,1859.2,12.5,71.7,240.2,716.0,4244.0,3.0,1,
51200,1885.3,55.1,70.5,239.8,409.0,2957.0,6.0,1,
51300,1839.3,134.7,80.6,38.0,388.0,2792.0,3.0,1,
51500,1857.3,117.3,76.5,28.0,935.0,4749.0,3.0,1,
51600,1869.7,56.8,73.4,28.4,1130.0,5202.0,3.0,1,
51700,1886.0,30.7,73.4,30.1,1048.0,4730.0,4.0,1,
51800,1831.0,19.2,73.7,29.5,978.0,4808.0,3.0,1,
51900,1856.9,13.3,73.7,30.0,978.0,4808.0,3.0,1,
52000,1860.2,12.9,73.7,65.7,978.0,4808.0,3.0,1,
52100,1860.0,12.2,73.7,111.7,978.0,4808.0,3.0,1,
52200,1858.9,13.0,73.7,239.6,978.0,4808.0,3.0,1,
52300,1861.7,13.2,73.7,239.7,978.0,4808.0,3.0,1,
52500,1858.4,13.0,73.7,240.3,978.0,4808.0,3.0,1,
52600,1857.7,12.5,73.7,240.0,978.0,4808.0,3.0,1,
52700,1858.8,14.0,73.6,240.1,978.0,4808.0,3.0,1,
52800,1873.2,44.2,74.6,239.9,373.0,3032.0,6.0,1,
52900,1843.7,204.5,70.1,39.1,441.0,2791.0,4.0,1,
53000,1875.9,78.3,70.6,35.9,516.0,3907.0,4.0,1,
53100,1870.0,74.6,71.5,34.7,619.0,3684.0,3.0,1,
53200,1837.0,73.0,75.7,29.5,537.0,3608.0,3.0,1,
53300,1863.5,26.1,75.9,29.3,833.0,4599.0,4.0,1,
53500,1857.0,14.1,75.7,29.1,833.0,4599.0,4.0,1,
53600,1860.0,12.3,75.7,36.6,833.0,4599.0,4.0,1,
53700,1860.3,13.4,75.7,85.9,833.0,4599.0,4.0,1,
53800,1859.8,12.0,75.7,239.9,833.0,4599.0,4.0,1,
53900,1859.9,13.6,75.7,240.2,833.0,4599.0,4.0,1,
54000,1858.1,12.0,75.7,240.2,833.0,4599.0,4.0,1,
54100,1858.1,14.7,75.7,240.3,833.0,4599.0,4.0,1,
54200,1859.6,13.5,75.7,240.2,833.0,4599.0,4.0,1,
54300,1859.0,12.8,75.8,240.2,833.0,4599.0,4.0,1,
54500,1850.7,154.0,87.4,38.6,398.0,2774.0,4.0,1,
54600,1864.7,49.4,79.4,30.2,386.0,3097.0,4.0,1,
54700,1846.3,159.4,78.9,28.0,433.0,2868.0,4.0,1,
54800,1847.8,65.7,79.9,28.2,608.0,3977.0,3.0,1,
54900,1889.7,48.4,79.5,29.7,722.0,4121.0,3.0,1,
55000,1833.4,47.6,84.3,29.1,800.0,4083.0,3.0,1,
55100,1858.9,16.3,84.3,29.7,800.0,4083.0,3.0,1,
55200,1858.7,13.3,84.3,35.2,800.0,4083.0,3.0,1,
55300,1860.2,12.5,84.3,36.8,800.0,4083.0,3.0,1,
55500,1860.9,12.8,84.4,239.9,800.0,4083.0,3.0,1,
55600,1859.6,12.7,84.4,239.9,800.0,4083.0,3.0,1,
55700,1858.5,13.4,84.4,240.1,800.0,4083.0,3.0,1,
55800,1859.0,12.5,84.3,240.2,800.0,4083.0,3.0,1,
55900,1859.3,13.2,84.4,240.2,800.0,4083.0,3.0,1,
56000,1876.5,81.2,84.4,239.9,291.0,2561.0,5.0,1,
56100,1830.1,123.0,84.7,39.0,349.0,2861.0,3.0,1,
56200,1864.8,66.0,80.8,36.1,385.0,3011.0,4.0,1,
56300,1871.8,142.1,83.9,35.7,436.0,3219.0,4.0,1,
56500,1856.1,87.1,83.7,34.6,643.0,3666.0,4.0,1,
56600,1840.2,91.0,89.8,30.2,597.0,3705.0,3.0,1,
56700,1860.0,16.6,89.7,29.4,597.0,3705.0,3.0,1,
56800,1861.7,12.0,89.7,28.4,597.0,3705.0,3.0,1,
56900,1858.2,11.8,89.7,27.9,597.0,3705.0,3.0,1,
57000,1861.1,10.8,89.6,36.6,597.0,3705.0,3.0,1,
57100,1860.4,12.9,89.6,240.0,597.0,3705.0,3.0,1,
57200,1859.5,13.8,89.6,240.4,597.0,3705.0,3.0,1,
57300,1859.9,13.0,89.7,240.3,597.0,3705.0,3.0,1,
57500,1858.3,11.1,89.6,240.2,597.0,3705.0,3.0,1,
57600,1859.5,33.8,89.6,240.3,597.0,3705.0,3.0,1,
57700,1856.2,137.0,88.6,168.5,371.0,2840.0,4.0,1,
57800,1877.8,51.6,86.2,38.7,347.0,2716.0,4.0,1,
57900,1846.7,193.7,98.5,30.2,398.0,3013.0,3.0,1,
58000,1841.9,50.6,96.1,29.8,469.0,3288.0,3.0,1,
58100,1871.1,61.6,95.8,29.6,459.0,3254.0,4.0,1,
58200,1865.7,129.4,96.6,29.0,643.0,3848.0,3.0,1,
58300,1842.2,19.7,94.6,30.1,646.0,3848.0,4.0,1,
58500,1859.4,11.7,94.6,29.3,646.0,3848.0,4.0,1,
58600,1860.0,13.5,94.6,30.1,646.0,3848.0,4.0,1,
58700,1861.6,12.9,94.6,240.3,646.0,3848.0,4.0,1,
58800,1859.7,13.1,94.6,240.3,646.0,3848.0,4.0,1,
58900,1858.4,11.3,94.6,240.3,646.0,3848.0,4.0,1,
59000,1859.2,14.6,94.6,240.4,646.0,3848.0,4.0,1,
59100,1859.3,12.5,94.6,240.4,646.0,3848.0,4.0,1,
59200,1859.8,12.9,94.7,240.2,646.0,3848.0,4.0,1,
59300,1854.1,124.4,98.4,214.2,359.0,2723.0,3.0,1,
59500,1857.7,184.1,84.1,30.1,385.0,2995.0,4.0,1,
59600,1869.0,73.7,86.9,29.8,354.0,2858.0,4.0,1,
59700,1870.7,45.5,86.8,35.1,443.0,3469.0,4.0,1,
59800,1834.2,94.9,85.1,34.2,510.0,3379.0,4.0,1,
59900,1859.1,18.6,83.0,30.2,528.0,3404.0,4.0,1,
60000,1858.8,12.5,83.0,35.2,528.0,3404.0,4.0,1,
60100,1861.3,13.0,83.1,28.2,528.0,3404.0,4.0,1,
60200,1859.1,11.8,83.0,29.2,528.0,3404.0,4.0,1,
60300,1861.2,14.1,83.0,239.4,528.0,3404.0,4.0,1,
60500,1859.2,13.1,83.1,240.5,528.0,3404.0,4.0,1,
60600,1859.9,11.9,83.2,240.5,528.0,3404.0,4.0,1,
60700,1859.9,13.2,83.1,240.4,528.0,3404.0,4.0,1,
60800,1858.5,12.6,83.1,240.2,528.0,3404.0,4.0,1,
60900,1845.8,170.3,84.8,218.9,354.0,2664.0,4.0,1,
61000,1885.8,70.1,83.0,29.4,316.0,2621.0,4.0,1,
61100,1856.3,173.4,88.9,29.1,356.0,2868.0,3.0,1,
61200,1848.4,77.2,84.8,29.5,350.0,2545.0,5.0,1,
61300,1862.5,71.6,85.6,34.2,435.0,3084.0,4.0,1,
61500,1868.6,22.3,92.5,29.9,496.0,3352.0,4.0,1,
61600,1857.0,11.3,92.4,30.2,496.0,3352.0,4.0,1,
61700,1860.2,12.2,92.4,29.1,496.0,3352.0,4.0,1,
61800,1860.5,11.2,92.4,29.5,496.0,3352.0,4.0,1,
61900,1859.9,12.7,92.4,240.1,496.0,3352.0,4.0,1,
62000,1860.1,12.8,92.4,240.4,496.0,3352.0,4.0,1,
62100,1860.8,14.6,92.4,240.4,496.0,3352.0,4.0,1,
62200,1858.6,12.6,92.4,240.3,496.0,3352.0,4.0,1,
62300,1858.0,11.9,92.3,240.2,496.0,3352.0,4.0,1,
62500,1868.7,124.2,96.5,172.3,330.0,2505.0,5.0,1,
62600,1860.4,44.7,93.2,28.5,352.0,2578.0,4.0,1,
62700,1848.6,200.9,90.4,28.4,330.0,2645.0,3.0,1,
62800,1852.1,72.7,90.0,29.0,386.0,3272.0,5.0,1,
62900,1889.5,47.4,89.1,29.6,452.0,3194.0,5.0,1,
63000,1837.9,101.8,87.8,29.1,538.0,3211.0,3.0,1,
63100,1858.8,24.5,86.1,29.7,721.0,3530.0,4.0,1,
63200,1858.5,15.5,86.2,30.1,721.0,3530.0,4.0,1,
63300,1861.1,13.4,86.2,28.6,721.0,3530.0,4.0,1,
63500,1859.2,11.5,86.2,156.3,721.0,3530.0,4.0,1,
63600,1860.7,12.8,86.2,239.8,721.0,3530.0,4.0,1,
63700,1860.1,12.3,86.2,240.4,721.0,3530.0,4.0,1,
63800,1859.8,13.2,86.2,240.5,721.0,3530.0,4.0,1,
63900,1860.4,14.8,86.3,240.5,721.0,3530.0,4.0,1,
64000,1857.9,13.2,86.3,240.4,721.0,3530.0,4.0,1,
64100,1854.0,86.0,83.0,239.6,307.0,2621.0,6.0,1,
64200,1866.3,77.6,80.5,29.1,332.0,2701.0,5.0,1,
64300,1870.6,119.5,82.8,28.3,403.0,2994.0,4.0,1,
64500,1859.7,47.8,79.0,35.0,425.0,3115.0,4.0,1,
64600,1841.5,109.8,80.9,30.1,477.0,3005.0,4.0,1,
64700,1868.9,30.0,78.9,29.9,516.0,3312.0,3.0,1,
64800,1862.1,13.0,78.9,29.7,516.0,3312.0,3.0,1,
64900,1858.9,13.3,78.9,29.1,516.0,3312.0,3.0,1,
65000,1860.8,12.5,78.9,29.6,516.0,3312.0,3.0,1,
65100,1862.1,14.0,78.9,237.6,516.0,3312.0,3.0,1,
65200,1858.0,12.8,78.9,240.3,516.0,3312.0,3.0,1,
65300,1859.9,13.7,78.9,240.0,516.0,3312.0,3.0,1,
65500,1859.4,14.8,78.9,240.1,516.0,3312.0,3.0,1,
65600,1860.6,14.2,78.9,240.3,516.0,3312.0,3.0,1,
65700,1870.2,92.5,78.7,240.2,223.0,2094.0,5.0,1,
65800,1872.3,49.9,74.1,83.2,333.0,2508.0,6.0,1,
65900,1845.9,203.8,85.3,29.6,344.0,2578.0,4.0,1,
66000,1848.6,70.6,83.2,29.5,408.0,3185.0,3.0,1,
66100,1881.6,183.9,85.2,29.3,408.0,3439.0,4.0,1,
66200,1858.2,107.2,94.0,29.3,525.0,3533.0,4.0,1,
66300,1861.5,38.0,92.3,29.2,466.0,3260.0,5.0,1,
66500,1858.9,13.1,92.5,27.9,466.0,3260.0,5.0,1,
66600,1861.9,12.2,92.5,30.0,466.0,3260.0,5.0,1,
66700,1858.4,13.5,92.4,116.8,466.0,3260.0,5.0,1,
66800,1858.9,13.5,92.4,240.5,466.0,3260.0,5.0,1,
66900,1859.2,14.0,92.5,240.4,466.0,3260.0,5.0,1,
67000,1858.0,13.5,92.4,240.2,466.0,3260.0,5.0,1,
67100,1857.9,12.5,92.4,240.1,466.0,3260.0,5.0,1,
67200,1856.8,12.5,92.3,239.8,466.0,3260.0,5.0,1,
67300,1860.9,13.9,92.4,239.5,466.0,3260.0,5.0,1,
67500,1862.6,179.4,84.2,47.9,362.0,2957.0,4.0,1,
67600,1869.8,79.7,88.4,35.6,468.0,3452.0,5.0,1,
67700,1865.1,64.7,88.1,34.7,404.0,3341.0,4.0,1,
67800,1834.0,103.8,77.4,29.2,633.0,3912.0,5.0,1,
67900,1868.8,53.3,77.4,30.0,644.0,3806.0,5.0,1,
68000,1865.9,16.5,77.4,34.4,528.0,3404.0,7.0,1,
68100,1859.2,12.8,77.5,29.7,528.0,3404.0,7.0,1,
68200,1859.0,12.0,77.4,35.8,528.0,3404.0,7.0,1,
68300,1858.5,11.7,77.4,69.1,528.0,3404.0,7.0,1,
68500,1859.5,13.1,77.4,240.3,528.0,3404.0,7.0,1,
68600,1859.5,12.1,77.4,240.5,528.0,3404.0,7.0,1,
68700,1860.1,13.2,77.4,240.6,528.0,3404.0,7.0,1,
68800,1861.6,12.8,77.5,240.5,528.0,3404.0,7.0,1,
68900,1860.0,12.6,77.5,240.3,528.0,3404.0,7.0,1,
69000,1884.8,52.8,77.5,239.7,290.0,2479.0,5.0,1,
69100,1857.1,160.2,78.1,37.3,331.0,2779.0,4.0,1,
69200,1838.3,78.1,76.7,35.3,363.0,2909.0,3.0,1,
69300,1867.7,56.5,76.3,35.2,456.0,3346.0,4.0,1,
69500,1877.3,41.5,76.2,30.1,572.0,3799.0,4.0,1,
69600,1845.1,18.3,75.9,34.8,524.0,3707.0,4.0,1,
69700,1859.7,15.2,75.9,30.0,524.0,3707.0,4.0,1,
69800,1860.4,12.8,76.0,35.0,524.0,3707.0,4.0,1,
69900,1860.0,12.1,76.0,130.0,524.0,3707.0,4.0,1,
70000,1860.0,14.1,76.0,240.4,524.0,3707.0,4.0,1,
70100,1861.7,12.2,76.1,240.4,524.0,3707.0,4.0,1,
70200,1861.1,11.3,76.1,240.6,524.0,3707.0,4.0,1,
70300,1858.6,13.4,76.0,240.6,524.0,3707.0,4.0,1,
70500,1860.6,12.0,76.0,240.3,524.0,3707.0,4.0,1,
70600,1868.8,42.7,75.8,240.4,172.0,1501.0,6.0,1,
70700,1860.8,199.8,87.7,93.7,258.0,2109.0,3.0,1,
70800,1863.2,98.8,86.5,34.5,350.0,2949.0,5.0,1,
70900,1879.4,91.2,86.3,29.9,442.0,3173.0,3.0,1,
71000,1836.0,179.5,104.2,29.0,360.0,3174.0,5.0,1,
71100,1851.8,65.6,102.7,29.4,415.0,3488.0,4.0,1,
71200,1875.0,22.4,103.3,28.8,426.0,3040.0,4.0,1,
71300,1856.8,12.2,103.3,28.7,426.0,3040.0,4.0,1,
71500,1860.2,13.6,103.2,37.3,426.0,3040.0,4.0,1,
71600,1859.1,11.5,103.2,237.4,426.0,3040.0,4.0,1,
71700,1858.5,11.3,103.2,240.1,426.0,3040.0,4.0,1,
71800,1858.3,12.7,103.1,240.2,426.0,3040.0,4.0,1,
71900,1860.8,12.3,103.2,240.1,426.0,3040.0,4.0,1,
72000,1858.6,18.0,103.2,240.0,426.0,3040.0,4.0,1,
72100,1858.3,11.9,103.2,240.0,426.0,3040.0,4.0,1,
72200,1879.1,50.5,103.2,239.5,213.0,1802.0,6.0,1,
72300,1866.2,72.3,100.3,122.9,380.0,2868.0,5.0,1,
72500,1860.4,40.0,87.8,36.1,562.0,4085.0,4.0,1,
72600,1851.2,170.0,72.6,38.1,727.0,5045.0,5.0,1,
72700,1888.7,57.7,69.0,36.8,772.0,4940.0,3.0,1,
72800,1845.7,25.2,68.3,35.4,807.0,5063.0,4.0,1,
72900,1858.8,14.5,68.3,35.3,807.0,5063.0,4.0,1,
73000,1860.6,14.6,68.4,44.4,807.0,5063.0,4.0,1,
73100,1859.1,11.0,68.3,94.7,807.0,5063.0,4.0,1,
73200,1860.0,12.6,68.4,203.3,807.0,5063.0,4.0,1,
73300,1861.1,12.7,68.4,240.0,807.0,5063.0,4.0,1,
73500,1859.0,11.7,68.4,240.1,807.0,5063.0,4.0,1,
73600,1860.0,12.9,68.4,239.8,807.0,5063.0,4.0,1,
73700,1859.7,13.1,68.4,240.0,807.0,5063.0,4.0,1,
73800,1874.8,31.1,68.5,239.9,294.0,2029.0,7.0,1,
73900,1856.1,185.6,81.1,141.4,332.0,2341.0,6.0,1,
74000,1846.4,85.7,86.3,34.7,578.0,4306.0,5.0,1,
74100,1890.9,58.6,85.9,28.1,563.0,4157.0,3.0,1,
74200,1848.9,167.6,96.9,27.8,589.0,3966.0,7.0,1,
74300,1850.5,48.0,94.0,29.2,688.0,4134.0,8.0,1,
74500,1860.8,14.2,95.7,29.4,688.0,4134.0,8.0,1,
74600,1859.7,13.3,95.7,29.8,688.0,4134.0,8.0,1,
74700,1861.4,13.1,95.7,34.6,688.0,4134.0,8.0,1,
74800,1859.5,11.8,95.7,55.5,688.0,4134.0,8.0,1,
74900,1860.5,10.2,95.7,240.5,688.0,4134.0,8.0,1,
75000,1859.5,12.6,95.7,240.5,688.0,4134.0,8.0,1,
75100,1859.8,12.1,95.7,240.1,688.0,4134.0,8.0,1,
75200,1859.7,12.1,95.8,215.8,688.0,4134.0,8.0,1,
75300,1858.9,12.7,95.7,174.2,688.0,4134.0,8.0,1,
75500,1868.9,104.3,95.9,237.8,301.0,2521.0,4.0,1,
75600,1855.0,67.6,85.1,37.8,402.0,2849.0,4.0,1,
75700,1856.3,41.0,83.6,36.2,465.0,2847.0,4.0,1,
75800,1843.2,118.3,77.8,34.9,605.0,3339.0,3.0,1,
75900,1864.8,39.3,66.7,30.2,607.0,3442.0,4.0,1,
76000,1887.0,62.8,65.5,34.6,709.0,3622.0,3.0,1,
76100,1838.3,16.0,62.6,34.3,709.0,3622.0,3.0,1,
76200,1858.8,13.0,62.7,36.8,709.0,3622.0,3.0,1,
76300,1859.1,11.9,62.5,66.7,709.0,3622.0,3.0,1,
76500,1860.2,13.0,62.5,240.2,709.0,3622.0,3.0,1,
76600,1860.5,12.2,62.6,240.5,709.0,3622.0,3.0,1,
76700,1861.0,13.1,62.5,240.3,709.0,3622.0,3.0,1,
76800,1860.2,14.3,62.6,240.1,709.0,3622.0,3.0,1,
76900,1860.7,11.9,62.6,239.8,709.0,3622.0,3.0,1,
77000,1859.8,14.4,62.7,239.8,709.0,3622.0,3.0,1,
77100,1868.9,189.6,70.6,238.0,332.0,2740.0,5.0,1,
77200,1843.2,66.4,69.8,36.3,351.0,2647.0,3.0,1,
77300,1872.0,65.9,69.7,35.8,424.0,2980.0,5.0,1,
77500,1861.5,39.1,79.5,29.7,599.0,3562.0,4.0,1,
77600,1852.6,181.5,84.5,28.5,622.0,4028.0,3.0,1,
77700,1853.8,25.7,89.7,29.4,638.0,3728.0,3.0,1,
77800,1857.9,12.8,89.7,37.4,638.0,3728.0,3.0,1,
77900,1859.3,12.1,89.7,39.7,638.0,3728.0,3.0,1,
78000,1860.8,11.2,89.7,45.9,638.0,3728.0,3.0,1,
78100,1861.0,12.6,89.7,239.3,638.0,3728.0,3.0,1,
78200,1860.9,11.9,89.7,240.4,638.0,3728.0,3.0,1,
78300,1861.2,12.5,89.7,240.3,638.0,3728.0,3.0,1,
78500,1861.2,13.9,89.7,240.1,638.0,3728.0,3.0,1,
78600,1858.9,12.7,89.7,240.2,638.0,3728.0,3.0,1,
78700,1858.1,208.7,98.3,218.5,287.0,1973.0,4.0,1,
78800,1869.2,73.9,97.8,35.2,318.0,2482.0,5.0,1,
78900,1872.5,116.4,98.0,27.5,400.0,3135.0,4.0,1,
79000,1838.6,104.2,106.9,27.6,446.0,2938.0,4.0,1,
79100,1865.5,50.8,105.4,29.6,643.0,3747.0,4.0,1,
79200,1869.2,147.1,106.4,28.7,663.0,4062.0,3.0,1,
79300,1850.4,32.0,104.3,28.6,863.0,4590.0,3.0,1,
79500,1861.2,13.6,104.3,30.2,863.0,4590.0,3.0,1,
79600,1861.5,12.2,104.4,29.9,863.0,4590.0,3.0,1,
79700,1862.0,12.1,104.4,132.4,863.0,4590.0,3.0,1,
79800,1861.0,11.4,104.4,240.2,863.0,4590.0,3.0,1,
79900,1860.2,13.4,104.3,240.6,863.0,4590.0,3.0,1,
80000,1860.3,13.1,104.3,240.7,863.0,4590.0,3.0,1,
80100,1859.5,13.7,104.3,240.6,863.0,4590.0,3.0,1,
80200,1859.8,13.2,104.3,240.3,863.0,4590.0,3.0,1,
80300,1868.2,143.2,101.0,240.0,323.0,2578.0,3.0,1,
80500,1865.8,105.6,92.7,30.0,352.0,2846.0,4.0,1,
80600,1854.7,119.5,88.3,29.4,418.0,2994.0,3.0,1,
80700,1885.0,56.0,86.2,29.4,649.0,3765.0,4.0,1,
80800,1840.4,163.7,91.2,28.2,890.0,5042.0,3.0,1,
80900,1852.3,27.9,88.2,28.9,820.0,4099.0,3.0,1,
81000,1858.9,13.5,88.1,34.3,820.0,4099.0,3.0,1,
81100,1862.3,11.1,88.2,29.7,820.0,4099.0,3.0,1,
81200,1861.0,12.7,88.1,29.0,820.0,4099.0,3.0,1,
81300,1861.0,12.9,88.1,166.2,820.0,4099.0,3.0,1,
81500,1861.3,13.4,88.2,240.4,820.0,4099.0,3.0,1,
81600,1860.2,13.3,88.1,240.6,820.0,4099.0,3.0,1,
81700,1859.7,11.8,88.2,239.8,820.0,4099.0,3.0,1,
81800,1860.3,13.4,88.2,239.3,820.0,4099.0,3.0,1,
81900,1851.3,80.7,93.3,239.5,246.0,2368.0,3.0,1,
82000,1867.5,65.8,85.1,38.3,318.0,2449.0,5.0,1,
82100,1875.3,165.2,90.6,29.3,320.0,2707.0,3.0,1,
82200,1840.9,130.3,95.2,29.4,448.0,3142.0,4.0,1,
82300,1865.7,41.5,93.5,29.0,374.0,2796.0,4.0,1,
82500,1857.9,39.6,104.4,29.0,551.0,3204.0,4.0,1,
82600,1863.7,13.5,104.4,28.7,551.0,3204.0,4.0,1,
82700,1859.1,11.5,104.4,28.0,551.0,3204.0,4.0,1,
82800,1861.6,12.5,104.4,28.5,551.0,3204.0,4.0,1,
82900,1861.4,13.2,104.4,138.2,551.0,3204.0,4.0,1,
83000,1861.5,11.5,104.4,240.2,551.0,3204.0,4.0,1,
83100,1861.9,11.4,104.4,240.1,551.0,3204.0,4.0,1,
83200,1860.9,11.0,104.4,240.2,551.0,3204.0,4.0,1,
83300,1860.4,12.5,104.4,240.3,551.0,3204.0,4.0,1,
83500,1866.9,130.7,106.1,239.7,196.0,1774.0,4.0,1,
83600,1858.6,67.5,106.9,34.9,286.0,2031.0,4.0,1,
83700,1862.1,48.7,106.6,29.2,314.0,2559.0,6.0,1,
83800,1837.8,111.8,100.4,29.3,387.0,2941.0,3.0,1,
83900,1886.7,45.6,97.7,34.2,505.0,2966.0,4.0,1,
84000,1859.5,137.6,86.6,34.3,712.0,3685.0,3.0,1,
84100,1842.8,45.1,84.2,29.9,622.0,3060.0,3.0,1,
84200,1859.5,14.0,84.1,30.2,622.0,3060.0,3.0,1,
84300,1861.7,15.0,84.2,34.6,622.0,3060.0,3.0,1,
84500,1863.0,14.6,84.3,210.3,622.0,3060.0,3.0,1,
84600,1861.9,13.4,84.3,240.1,622.0,3060.0,3.0,1,
84700,1862.8,12.9,84.4,240.2,622.0,3060.0,3.0,1,
84800,1860.4,12.5,84.4,240.2,622.0,3060.0,3.0,1,
84900,1862.2,14.1,84.4,240.2,622.0,3060.0,3.0,1,
85000,1859.9,13.5,84.5,240.1,622.0,3060.0,3.0,1,
85100,1860.9,111.2,84.5,240.0,622.0,3060.0,3.0,1,
85200,1860.9,63.2,79.3,91.8,329.0,2389.0,4.0,1,
85300,1878.6,74.8,79.8,28.2,314.0,2454.0,4.0,1,
85500,1863.5,36.0,77.7,35.0,494.0,3010.0,5.0,1,
85600,1847.8,203.7,94.5,35.2,452.0,2739.0,3.0,1,
85700,1859.8,31.3,87.9,34.2,588.0,3076.0,4.0,1,
85800,1867.2,15.8,87.9,29.1,598.0,2978.0,4.0,1,
85900,1861.0,12.0,87.9,28.1,598.0,2978.0,4.0,1,
86000,1862.7,13.5,87.9,34.4,598.0,2978.0,4.0,1,
86100,1862.5,15.4,87.9,238.6,598.0,2978.0,4.0,1,
86200,1862.2,14.1,87.9,240.1,598.0,2978.0,4.0,1,
86300,1861.3,13.1,87.9,240.3,598.0,2978.0,4.0,1,
86500,1860.3,12.4,87.8,240.5,598.0,2978.0,4.0,1,
86600,1860.5,15.6,88.0,240.5,598.0,2978.0,4.0,1,
86700,1861.4,16.6,87.9,239.5,598.0,2978.0,4.0,1,
86800,1878.5,58.3,88.7,67.2,239.0,2225.0,5.0,1,
86900,1862.4,47.7,88.7,28.3,304.0,2547.0,5.0,1,
87000,1837.6,63.0,78.6,28.2,388.0,2973.0,3.0,1,
87100,1868.4,60.5,78.7,29.5,437.0,2970.0,5.0,1,
87200,1866.0,165.6,70.4,36.9,463.0,2824.0,4.0,1,
87300,1861.4,45.5,68.5,29.5,406.0,2580.0,4.0,1,
87500,1859.5,12.2,68.6,29.9,406.0,2580.0,4.0,1,
87600,1860.4,12.8,68.6,29.9,406.0,2580.0,4.0,1,
87700,1862.1,11.8,68.5,44.2,406.0,2580.0,4.0,1,
87800,1860.6,12.2,68.4,240.0,406.0,2580.0,4.0,1,
87900,1860.0,13.3,68.4,240.1,406.0,2580.0,4.0,1,
88000,1860.0,12.4,68.4,240.1,406.0,2580.0,4.0,1,
88100,1858.4,13.9,68.4,240.2,406.0,2580.0,4.0,1,
88200,1860.3,14.7,68.3,240.2,406.0,2580.0,4.0,1,
88300,1860.2,12.5,68.2,240.3,406.0,2580.0,4.0,1,
88500,1867.7,81.3,61.8,74.7,271.0,2391.0,6.0,1,
88600,1857.9,149.8,78.2,34.7,268.0,2115.0,4.0,1,
88700,1878.4,61.2,78.2,34.2,408.0,3112.0,4.0,1,
88800,1844.5,135.8,81.2,29.6,480.0,3445.0,4.0,1,
88900,1852.4,53.1,73.1,29.7,528.0,3495.0,4.0,1,
89000,1872.9,20.7,73.7,35.0,559.0,3652.0,4.0,1,
89100,1859.7,13.4,73.7,29.6,559.0,3652.0,4.0,1,
89200,1862.5,11.7,73.8,30.0,559.0,3652.0,4.0,1,
89300,1860.7,11.7,73.8,65.5,559.0,3652.0,4.0,1,
89500,1862.5,12.9,73.9,240.0,559.0,3652.0,4.0,1,
89600,1862.0,11.8,73.9,240.3,559.0,3652.0,4.0,1,
89700,1858.7,12.7,73.9,240.4,559.0,3652.0,4.0,1,
89800,1861.0,13.5,74.0,240.3,559.0,3652.0,4.0,1,
89900,1861.4,14.3,74.0,240.3,559.0,3652.0,4.0,1,
90000,1877.6,57.7,73.9,240.3,189.0,1710.0,6.0,1,
90100,1872.4,74.6,74.2,237.8,288.0,2400.0,4.0,1,
90200,1836.6,118.0,73.7,35.8,334.0,2568.0,5.0,1,
90300,1862.7,52.7,71.3,34.9,405.0,2943.0,4.0,1,
90500,1875.2,60.9,75.5,29.6,426.0,3069.0,3.0,1,
90600,1852.9,26.1,75.5,29.8,718.0,4098.0,4.0,1,
90700,1861.1,12.5,75.5,29.5,718.0,4098.0,4.0,1,
90800,1860.5,12.8,75.4,30.1,718.0,4098.0,4.0,1,
90900,1863.2,13.3,75.5,37.6,718.0,4098.0,4.0,1,
91000,1862.2,12.2,75.5,239.2,718.0,4098.0,4.0,1,
91100,1860.6,12.1,75.4,240.1,718.0,4098.0,4.0,1,
91200,1860.2,13.6,75.4,240.1,718.0,4098.0,4.0,1,
91300,1861.4,11.5,75.4,240.1,718.0,4098.0,4.0,1,
91500,1862.0,13.0,75.4,240.4,718.0,4098.0,4.0,1,
91600,1869.0,27.1,75.3,240.1,182.0,1535.0,5.0,1,
91700,1864.4,75.9,74.4,239.5,201.0,1708.0,3.0,1,
91800,1846.4,110.8,72.8,36.8,211.0,1731.0,4.0,1,
91900,1886.1,65.7,69.6,29.8,359.0,2504.0,27.0,0,
92000,1855.5,173.4,77.5,29.4,432.0,3436.0,4.0,1,
92100,1845.4,60.0,73.6,30.2,577.0,3962.0,5.0,1,
92200,1867.1,33.5,73.7,34.8,558.0,3559.0,5.0,1,
92300,1862.0,12.4,73.7,29.7,558.0,3559.0,5.0,1,
92500,1861.5,10.9,73.6,35.9,558.0,3559.0,5.0,1,
92600,1861.3,12.8,73.6,194.6,558.0,3559.0,5.0,1,
92700,1862.3,11.4,73.6,240.0,558.0,3559.0,5.0,1,
92800,1861.6,11.4,73.6,240.0,558.0,3559.0,5.0,1,
92900,1861.3,13.9,73.6,240.2,558.0,3559.0,5.0,1,
93000,1862.1,12.7,73.7,240.3,558.0,3559.0,5.0,1,
93100,1861.2,12.9,73.7,240.4,558.0,3559.0,5.0,1,
93200,1860.5,26.1,73.7,240.4,558.0,3559.0,5.0,1,
93300,1881.8,158.3,78.7,239.4,223.0,1808.0,7.0,1,
93500,1862.9,44.9,85.8,28.2,287.0,2415.0,5.0,1,
93600,1842.9,196.2,91.1,27.9,408.0,3093.0,4.0,1,
93700,1874.5,65.3,84.8,28.6,555.0,4000.0,3.0,1,
93800,1878.7,74.6,84.8,29.4,628.0,4210.0,3.0,1,
93900,1840.3,15.9,85.5,29.4,628.0,4210.0,3.0,1,
94000,1860.6,10.6,85.5,30.2,628.0,4210.0,3.0,1,
94100,1860.4,10.4,85.5,36.0,628.0,4210.0,3.0,1,
94200,1861.7,12.4,85.5,42.6,628.0,4210.0,3.0,1,
94300,1861.4,11.7,85.5,239.7,628.0,4210.0,3.0,1,
94500,1859.5,12.8,85.4,240.1,628.0,4210.0,3.0,1,
94600,1861.6,11.5,85.4,240.5,628.0,4210.0,3.0,1,
94700,1860.8,12.3,85.4,240.5,628.0,4210.0,3.0,1,
94800,1860.7,12.3,85.4,240.3,628.0,4210.0,3.0,1,
94900,1870.4,112.4,85.9,240.2,212.0,1802.0,5.0,1,
95000,1840.3,67.1,73.8,41.4,234.0,1982.0,4.0,1,
95100,1880.2,72.5,73.0,34.8,266.0,2209.0,4.0,1,
95200,1854.7,184.6,83.7,28.6,319.0,2406.0,3.0,1,
95300,1865.0,42.4,78.3,34.2,346.0,2442.0,4.0,1,
95500,1852.2,24.0,85.5,29.7,315.0,2482.0,3.0,1,
95600,1861.4,12.6,85.5,36.3,315.0,2482.0,3.0,1,
95700,1859.5,11.8,85.5,39.7,315.0,2482.0,3.0,1,
95800,1861.7,11.2,85.5,42.0,315.0,2482.0,3.0,1,
95900,1862.0,12.3,85.5,239.3,315.0,2482.0,3.0,1,
96000,1860.0,13.4,85.6,240.2,315.0,2482.0,3.0,1,
96100,1860.7,11.7,85.6,240.1,315.0,2482.0,3.0,1,
96200,1861.5,12.6,85.6,240.3,315.0,2482.0,3.0,1,
96300,1860.6,12.3,85.6,240.5,315.0,2482.0,3.0,1,
96500,1859.5,150.1,86.1,240.3,241.0,1899.0,6.0,1,
96600,1866.6,78.4,85.4,43.2,240.0,2109.0,4.0,1,
96700,1872.0,49.7,86.1,37.7,363.0,2758.0,5.0,1,
96800,1837.1,205.9,89.0,30.3,386.0,2961.0,5.0,1,
96900,1859.3,79.1,85.4,30.2,463.0,3412.0,4.0,1,
97000,1874.3,116.9,87.0,29.9,576.0,3918.0,4.0,1,
97100,1847.0,33.9,86.9,29.6,504.0,3537.0,4.0,1,
97200,1859.3,12.5,86.9,34.5,504.0,3537.0,4.0,1,
97300,1859.1,12.1,86.9,35.0,504.0,3537.0,4.0,1,
97500,1860.3,11.8,86.8,147.2,504.0,3537.0,4.0,1,
97600,1860.3,12.2,86.8,240.5,504.0,3537.0,4.0,1,
97700,1859.4,11.6,86.7,240.5,504.0,3537.0,4.0,1,
97800,1862.0,13.1,86.8,240.3,504.0,3537.0,4.0,1,
97900,1857.7,15.7,86.7,240.1,504.0,3537.0,4.0,1,
98000,1862.1,12.9,86.8,239.6,504.0,3537.0,4.0,1,
98100,1872.7,113.3,88.3,238.7,260.0,2403.0,4.0,1,
98200,1839.6,62.5,84.3,41.6,300.0,2531.0,6.0,1,
98300,1864.1,60.1,84.0,38.7,348.0,2767.0,4.0,1,
98500,1880.6,57.9,85.1,29.9,617.0,3636.0,3.0,1,
98600,1844.0,135.0,87.2,29.2,1122.0,5252.0,3.0,1,
98700,1846.5,48.2,87.8,29.2,1057.0,5139.0,3.0,1,
98800,1860.1,14.5,87.8,29.0,1057.0,5139.0,3.0,1,
98900,1859.5,13.5,87.8,27.9,1057.0,5139.0,3.0,1,
99000,1861.6,12.1,87.9,27.8,1057.0,5139.0,3.0,1,
99100,1861.9,12.2,87.9,43.2,1057.0,5139.0,3.0,1,
99200,1862.3,11.9,88.0,240.9,1057.0,5139.0,3.0,1,
99300,1860.6,11.5,88.0,240.6,1057.0,5139.0,3.0,1,
99500,1860.3,14.1,88.0,240.3,1057.0,5139.0,3.0,1,
99600,1860.8,11.1,88.0,240.2,1057.0,5139.0,3.0,1,
99700,1859.1,116.7,87.9,239.9,155.0,1628.0,5.0,1,
99800,1858.2,83.2,87.6,165.6,257.0,2224.0,4.0,1,
99900,1878.9,52.5,87.0,75.4,305.0,2586.0,3.0,1,
100000,1843.4,99.9,82.2,48.5,373.0,2961.0,5.0,1,
100100,1856.7,46.2,74.8,37.5,412.0,2810.0,4.0,1,
100200,1865.4,91.7,74.1,44.9,553.0,3403.0,4.0,1,
100300,1847.4,52.0,61.6,43.2,532.0,3370.0,4.0,1,
100500,1861.7,12.0,61.6,45.2,532.0,3370.0,4.0,1,
100600,1861.9,12.9,61.6,47.6,532.0,3370.0,4.0,1,
100700,1862.5,12.8,61.7,204.5,532.0,3370.0,4.0,1,
100800,1862.2,12.5,61.7,240.5,532.0,3370.0,4.0,1,
100900,1861.5,13.0,61.7,240.6,532.0,3370.0,4.0,1,
101000,1860.9,12.1,61.7,240.4,532.0,3370.0,4.0,1,
101100,1860.9,11.1,61.7,240.3,532.0,3370.0,4.0,1,
101200,1859.8,11.4,61.6,240.0,532.0,3370.0,4.0,1,
101300,1869.4,78.1,63.0,240.0,159.0,1180.0,10.0,1,
101500,1860.2,36.9,64.9,49.5,488.0,3592.0,4.0,1,
101600,1853.9,210.3,68.7,49.5,392.0,3177.0,5.0,1,
101700,1879.3,86.8,78.1,35.0,531.0,4301.0,3.0,1,
101800,1873.0,172.7,86.9,29.4,498.0,3533.0,3.0,1,
101900,1831.2,85.2,93.3,29.4,533.0,3455.0,2.0,0,
102000,1855.0,14.1,92.8,30.1,533.0,3455.0,2.0,0,
102100,1858.7,11.3,92.8,37.0,533.0,3455.0,2.0,0,
102200,1862.0,11.9,92.8,50.1,533.0,3455.0,2.0,0,
102300,1861.2,11.9,92.7,71.0,533.0,3455.0,2.0,0,
102500,1862.7,12.9,92.6,240.1,533.0,3455.0,2.0,0,
102600,1861.6,11.8,92.7,240.1,533.0,3455.0,2.0,0,
102700,1861.3,11.6,92.7,240.0,533.0,3455.0,2.0,0,
102800,1860.0,13.0,92.7,240.0,533.0,3455.0,2.0,0,
102900,1860.7,112.2,92.7,240.2,533.0,3455.0,2.0,0,
103000,1845.3,126.8,94.0,79.8,333.0,2519.0,6.0,1,
103100,1885.5,57.2,95.7,43.0,449.0,3562.0,5.0,1,
103200,1867.0,101.2,93.0,46.8,524.0,4118.0,3.0,1,
103300,1836.6,60.4,87.1,52.5,679.0,4779.0,5.0,1,
103500,1853.8,138.4,71.8,52.0,567.0,3701.0,3.0,1,
103600,1860.2,17.2,74.2,52.1,517.0,3188.0,8.0,1,
103700,1859.5,12.7,74.2,57.1,517.0,3188.0,8.0,1,
103800,1861.2,10.8,74.2,52.4,517.0,3188.0,8.0,1,
103900,1861.6,11.9,74.2,66.0,517.0,3188.0,8.0,1,
104000,1860.9,11.1,74.2,239.9,517.0,3188.0,8.0,1,
104100,1861.5,13.4,74.2,240.3,517.0,3188.0,8.0,1,
104200,1860.5,12.3,74.2,240.3,517.0,3188.0,8.0,1,
104300,1861.4,11.9,74.2,240.3,517.0,3188.0,8.0,1,
104500,1860.2,15.3,74.2,239.9,517.0,3188.0,8.0,1,
104600,1861.8,94.0,72.0,239.3,229.0,1829.0,2.0,0,
104700,1858.0,51.8,73.8,66.8,437.0,3327.0,6.0,1,
104800,1858.7,105.3,73.0,47.3,429.0,3428.0,5.0,1,
104900,1846.9,100.5,73.4,44.1,525.0,3786.0,2.0,0,
105000,1895.5,61.6,73.1,49.0,482.0,3665.0,3.0,1,
105100,1849.4,95.1,72.0,49.3,486.0,3459.0,3.0,1,
105200,1844.5,23.4,71.5,37.9,495.0,3243.0,2.0,0,
105300,1859.7,12.2,71.5,54.2,495.0,3243.0,2.0,0,
105500,1860.6,11.5,71.5,53.1,495.0,3243.0,2.0,0,
105600,1861.0,11.2,71.5,238.6,495.0,3243.0,2.0,0,
105700,1862.0,11.8,71.5,240.5,495.0,3243.0,2.0,0,
105800,1861.2,12.2,71.5,240.5,495.0,3243.0,2.0,0,
105900,1861.8,10.6,71.5,240.5,495.0,3243.0,2.0,0,
106000,1862.4,11.4,71.5,240.6,495.0,3243.0,2.0,0,
106100,1861.6,11.2,71.5,240.5,495.0,3243.0,2.0,0,
106200,1853.4,192.2,73.6,167.3,305.0,2155.0,8.0,1,
106300,1860.2,93.5,78.5,37.1,416.0,3002.0,5.0,1,
106500,1851.8,112.4,99.8,30.2,527.0,4101.0,3.0,1,
106600,1860.0,47.4,99.5,30.2,441.0,3149.0,2.0,0,
106700,1849.2,61.9,98.8,28.2,446.0,3315.0,9.0,1,
106800,1859.4,26.4,97.0,28.9,441.0,3199.0,2.0,0,
106900,1858.7,13.3,97.0,36.0,441.0,3199.0,2.0,0,
107000,1860.6,11.7,97.0,56.2,441.0,3199.0,2.0,0,
107100,1861.7,12.2,97.1,66.4,441.0,3199.0,2.0,0,
107200,1862.2,12.5,97.1,240.1,441.0,3199.0,2.0,0,
107300,1861.3,10.7,97.1,240.2,441.0,3199.0,2.0,0,
107500,1861.4,11.5,97.1,240.3,441.0,3199.0,2.0,0,
107600,1859.7,10.9,97.0,240.4,441.0,3199.0,2.0,0,
107700,1860.0,11.4,97.1,240.2,441.0,3199.0,2.0,0,
107800,1862.4,63.0,92.7,239.7,264.0,1980.0,6.0,1,
107900,1867.0,66.4,91.3,42.3,353.0,2525.0,4.0,1,
108000,1857.2,80.4,91.3,36.3,499.0,4120.0,3.0,1,
108100,1837.5,110.7,79.4,29.5,504.0,3791.0,4.0,1,
108200,1884.5,65.1,78.8,35.0,483.0,3449.0,3.0,1,
108300,1868.0,62.2,78.2,29.6,526.0,4012.0,4.0,1,
108500,1858.8,13.2,84.8,35.6,526.0,4012.0,4.0,1,
108600,1862.1,11.1,84.8,35.6,526.0,4012.0,4.0,1,
108700,1862.5,11.3,84.8,29.0,526.0,4012.0,4.0,1,
108800,1860.4,12.0,84.8,103.6,526.0,4012.0,4.0,1,
108900,1862.6,10.8,84.8,240.3,526.0,4012.0,4.0,1,
109000,1861.6,12.9,84.8,240.2,526.0,4012.0,4.0,1,
109100,1859.4,12.4,84.8,239.9,526.0,4012.0,4.0,1,
109200,1861.1,11.4,84.8,239.9,526.0,4012.0,4.0,1,
109300,1859.2,14.5,84.8,240.2,526.0,4012.0,4.0,1,
109500,1845.4,64.0,86.6,50.9,323.0,2517.0,5.0,1,
109600,1877.2,62.1,85.6,36.1,403.0,3213.0,5.0,1,
109700,1862.2,134.1,79.9,30.2,570.0,4326.0,5.0,1,
109800,1863.8,56.6,79.6,35.7,671.0,4490.0,5.0,1,
109900,1847.1,180.9,80.3,44.2,589.0,4159.0,3.0,1,
110000,1851.3,64.1,86.8,34.3,525.0,3781.0,2.0,0,
110100,1864.3,15.1,86.8,34.6,525.0,3781.0,2.0,0,
110200,1859.2,10.6,86.7,29.3,525.0,3781.0,2.0,0,
110300,1859.9,13.3,86.7,28.6,525.0,3781.0,2.0,0,
110500,1863.6,13.4,86.8,240.3,525.0,3781.0,2.0,0,
110600,1860.4,13.0,86.8,240.1,525.0,3781.0,2.0,0,
110700,1861.6,13.0,86.8,239.8,525.0,3781.0,2.0,0,
110800,1863.3,12.7,86.9,239.9,525.0,3781.0,2.0,0,
110900,1859.5,12.1,86.9,240.3,525.0,3781.0,2.0,0,
111000,1858.6,90.6,87.0,240.2,525.0,3781.0,2.0,0,
111100,1860.5,115.3,85.9,176.8,277.0,2130.0,6.0,1,
111200,1872.5,57.3,86.0,42.9,323.0,2554.0,5.0,1,
111300,1839.6,45.0,85.1,29.9,483.0,3273.0,4.0,1,
111500,1880.4,89.7,83.0,35.7,514.0,3693.0,4.0,1,
111600,1864.3,82.9,75.7,30.3,511.0,3836.0,4.0,1,
111700,1838.5,16.0,75.8,37.8,511.0,3836.0,4.0,1,
111800,1859.7,10.5,75.8,37.6,511.0,3836.0,4.0,1,
111900,1862.2,10.8,75.9,29.7,511.0,3836.0,4.0,1,
112000,1863.2,13.7,75.9,30.1,511.0,3836.0,4.0,1,
112100,1862.5,12.3,75.9,240.2,511.0,3836.0,4.0,1,
112200,1859.5,14.4,75.8,240.3,511.0,3836.0,4.0,1,
112300,1861.3,11.1,75.9,240.2,511.0,3836.0,4.0,1,
112500,1859.6,11.9,75.8,240.2,511.0,3836.0,4.0,1,
112600,1860.6,78.1,75.7,240.1,511.0,3836.0,4.0,1,
112700,1848.9,82.1,77.7,100.2,316.0,2498.0,6.0,1,
112800,1866.9,52.4,76.8,36.0,353.0,2593.0,5.0,1,
112900,1865.6,89.9,78.5,34.9,443.0,3318.0,3.0,1,
113000,1875.0,83.7,85.8,36.0,446.0,3761.0,4.0,1,
113100,1860.1,74.4,85.7,46.5,488.0,3642.0,3.0,1,
113200,1834.8,85.2,84.4,37.7,597.0,4145.0,4.0,1,
113300,1863.5,17.7,84.0,35.5,580.0,3891.0,6.0,1,
113500,1860.4,11.8,84.0,37.2,580.0,3891.0,6.0,1,
113600,1861.0,12.2,84.0,41.6,580.0,3891.0,6.0,1,
113700,1860.2,11.0,83.9,239.4,580.0,3891.0,6.0,1,
113800,1859.8,13.3,83.8,240.0,580.0,3891.0,6.0,1,
113900,1862.6,11.5,83.9,240.1,580.0,3891.0,6.0,1,
114000,1859.4,9.8,83.8,239.9,580.0,3891.0,6.0,1,
114100,1858.8,10.7,83.7,239.5,580.0,3891.0,6.0,1,
114200,1859.9,11.3,83.7,239.5,580.0,3891.0,6.0,1,
114300,1855.9,112.9,86.8,78.5,304.0,2447.0,4.0,1,
114500,1846.3,211.2,96.1,29.5,379.0,2402.0,3.0,1,
114600,1851.3,50.5,96.0,29.7,403.0,2178.0,3.0,1,
114700,1871.4,26.4,93.2,29.8,780.0,3339.0,3.0,1,
114800,1861.4,80.1,94.5,34.5,887.0,3873.0,4.0,1,
114900,1848.3,15.0,90.1,36.3,837.0,3636.0,3.0,1,
115000,1858.5,12.8,90.1,40.2,837.0,3636.0,3.0,1,
115100,1859.5,9.0,90.0,44.5,837.0,3636.0,3.0,1,
115200,1860.6,10.1,90.0,76.6,837.0,3636.0,3.0,1,
115300,1861.3,12.9,90.0,239.7,837.0,3636.0,3.0,1,
115500,1861.3,11.2,90.1,240.4,837.0,3636.0,3.0,1,
115600,1860.9,13.2,90.1,239.9,837.0,3636.0,3.0,1,
115700,1860.4,10.4,90.2,239.6,837.0,3636.0,3.0,1,
115800,1860.6,10.4,90.2,239.8,837.0,3636.0,3.0,1,
115900,1857.9,110.1,87.5,239.3,286.0,2283.0,3.0,1,
116000,1857.0,34.3,87.0,53.1,331.0,2405.0,4.0,1,
116100,1862.5,124.7,81.5,37.2,312.0,2478.0,3.0,1,
116200,1865.1,69.5,73.6,29.9,460.0,2925.0,3.0,1,
116300,1872.8,79.5,74.0,29.5,320.0,2450.0,4.0,1,
116500,1856.4,27.6,94.6,29.3,727.0,2869.0,3.0,1,
116600,1858.5,12.4,94.6,29.1,727.0,2869.0,3.0,1,
116700,1860.7,10.5,94.6,29.1,727.0,2869.0,3.0,1,
116800,1860.6,10.6,94.6,29.8,727.0,2869.0,3.0,1,
116900,1861.3,11.5,94.6,201.6,727.0,2869.0,3.0,1,
117000,1861.2,10.0,94.6,240.0,727.0,2869.0,3.0,1,
117100,1862.2,11.8,94.6,240.1,727.0,2869.0,3.0,1,
117200,1861.7,10.4,94.6,240.4,727.0,2869.0,3.0,1,
117300,1861.3,10.8,94.6,240.3,727.0,2869.0,3.0,1,
117500,1852.0,54.4,94.6,240.1,228.0,2033.0,2.0,0,
117600,1873.4,53.4,88.5,204.6,258.0,2038.0,4.0,1,
117700,1869.1,142.6,89.2,66.3,256.0,2186.0,4.0,1,
117800,1839.8,85.2,94.7,30.0,355.0,2676.0,4.0,1,
117900,1863.9,43.6,94.7,29.4,344.0,2486.0,5.0,1,
118000,1853.9,213.5,95.2,29.9,361.0,2315.0,3.0,1,
118100,1855.8,33.4,94.3,29.6,294.0,1835.0,3.0,1,
118200,1861.4,12.7,94.4,28.5,294.0,1835.0,3.0,1,
118300,1860.7,11.8,94.4,28.1,294.0,1835.0,3.0,1,
118500,1860.8,9.9,94.4,134.8,294.0,1835.0,3.0,1,
118600,1861.3,10.4,94.4,240.2,294.0,1835.0,3.0,1,
118700,1859.1,11.2,94.3,240.1,294.0,1835.0,3.0,1,
118800,1861.0,11.7,94.3,240.1,294.0,1835.0,3.0,1,
118900,1859.1,11.0,94.3,240.4,294.0,1835.0,3.0,1,
119000,1861.0,11.5,94.3,240.7,294.0,1835.0,3.0,1,
119100,1866.9,67.8,94.2,240.7,251.0,1820.0,5.0,1,
119200,1854.4,42.5,98.9,132.6,238.0,1871.0,3.0,1,
119300,1863.7,48.1,98.6,42.1,250.0,2083.0,5.0,1,
119500,1887.4,39.3,84.6,35.7,347.0,2125.0,3.0,1,
119600,1847.5,95.1,71.0,37.4,327.0,1962.0,2.0,0,
119700,1852.7,43.5,64.9,37.1,592.0,3034.0,4.0,1,
119800,1858.2,15.2,64.9,29.8,592.0,3034.0,4.0,1,
119900,1859.8,11.3,64.9,27.8,592.0,3034.0,4.0,1,
120000,1861.9,10.3,64.8,28.7,592.0,3034.0,4.0,1,
120100,1862.6,11.8,64.9,85.6,592.0,3034.0,4.0,1,
120200,1861.6,11.5,64.9,240.1,592.0,3034.0,4.0,1,
120300,1862.8,11.3,65.0,240.4,592.0,3034.0,4.0,1,
120500,1861.3,11.5,65.0,240.2,592.0,3034.0,4.0,1,
120600,1861.5,11.5,65.0,240.1,592.0,3034.0,4.0,1,
120700,1861.2,13.6,65.1,240.0,592.0,3034.0,4.0,1,
120800,1852.0,54.9,61.6,238.6,212.0,1663.0,3.0,1,
120900,1882.5,144.4,66.2,45.9,251.0,2281.0,4.0,1,
121000,1851.6,109.6,81.0,29.9,289.0,2404.0,5.0,1,
121100,1861.7,44.0,79.9,29.2,367.0,2821.0,4.0,1,
121200,1850.3,245.5,94.0,28.2,404.0,3008.0,3.0,1,
121300,1868.4,72.7,96.8,29.2,498.0,3621.0,4.0,1,
121500,1860.7,12.1,97.0,28.6,498.0,3621.0,4.0,1,
121600,1862.3,12.5,97.1,29.3,498.0,3621.0,4.0,1,
121700,1860.3,10.2,97.1,48.6,498.0,3621.0,4.0,1,
121800,1862.7,12.4,97.1,239.3,498.0,3621.0,4.0,1,
121900,1862.0,11.3,97.0,240.1,498.0,3621.0,4.0,1,
122000,1861.2,11.2,97.1,240.3,498.0,3621.0,4.0,1,
122100,1861.3,11.1,97.1,240.0,498.0,3621.0,4.0,1,
122200,1861.4,11.8,97.1,240.0,498.0,3621.0,4.0,1,
122300,1862.1,11.0,97.0,240.2,498.0,3621.0,4.0,1,
122500,1861.6,97.4,101.8,27.8,269.0,2253.0,7.0,1,
122600,1836.6,100.6,91.0,27.8,356.0,2974.0,4.0,1,
122700,1880.7,53.5,90.9,28.5,374.0,2752.0,3.0,1,
122800,1865.1,75.0,82.1,36.4,532.0,3873.0,5.0,1,
122900,1852.4,57.9,71.8,34.8,758.0,4595.0,3.0,1,
123000,1856.7,17.3,71.7,42.4,804.0,4249.0,3.0,1,
123100,1859.1,12.0,71.7,39.9,804.0,4249.0,3.0,1,
123200,1860.0,10.7,71.6,37.6,804.0,4249.0,3.0,1,
123300,1862.8,12.0,71.6,67.5,804.0,4249.0,3.0,1,
123500,1861.2,11.1,71.6,240.4,804.0,4249.0,3.0,1,
123600,1860.3,11.5,71.6,240.3,804.0,4249.0,3.0,1,
123700,1861.8,12.5,71.6,240.4,804.0,4249.0,3.0,1,
123800,1859.3,11.0,71.5,240.4,804.0,4249.0,3.0,1,
123900,1860.9,13.2,71.6,240.1,804.0,4249.0,3.0,1,
124000,1858.5,50.1,65.1,210.6,300.0,2347.0,5.0,1,
124100,1874.0,123.9,66.3,28.8,310.0,2199.0,3.0,1,
124200,1860.5,81.8,68.0,28.9,357.0,2791.0,4.0,1,
124300,1867.5,40.9,64.3,29.6,334.0,2669.0,3.0,1,
124500,1850.6,68.5,74.5,36.8,612.0,4115.0,3.0,1,
124600,1874.6,20.2,74.5,35.9,574.0,3485.0,3.0,1,
124700,1858.0,12.6,74.5,39.5,574.0,3485.0,3.0,1,
124800,1862.4,11.1,74.6,39.3,574.0,3485.0,3.0,1,
124900,1861.6,11.3,74.6,67.0,574.0,3485.0,3.0,1,
125000,1861.3,11.6,74.5,238.2,574.0,3485.0,3.0,1,
125100,1861.2,10.2,74.5,240.1,574.0,3485.0,3.0,1,
125200,1860.4,11.6,74.5,240.2,574.0,3485.0,3.0,1,
125300,1860.6,12.8,74.5,240.1,574.0,3485.0,3.0,1,
125500,1859.9,14.0,74.5,240.1,574.0,3485.0,3.0,1,
125600,1878.5,44.5,70.2,239.6,244.0,1967.0,3.0,1,
125700,1867.1,37.0,69.3,90.6,240.0,1891.0,4.0,1,
125800,1839.4,135.8,74.7,43.6,238.0,2181.0,3.0,1,
125900,1860.6,61.6,73.9,35.3,317.0,2491.0,3.0,1,
126000,1859.5,91.9,70.6,34.6,535.0,4048.0,3.0,1,
126100,1876.8,57.4,67.2,35.5,532.0,3733.0,4.0,1,
126200,1849.1,28.5,67.2,47.3,657.0,4284.0,4.0,1,
126300,1859.5,13.2,67.3,47.4,657.0,4284.0,4.0,1,
126500,1860.1,10.8,67.2,44.1,657.0,4284.0,4.0,1,
126600,1860.7,11.2,67.2,106.1,657.0,4284.0,4.0,1,
126700,1862.2,11.1,67.2,239.6,657.0,4284.0,4.0,1,
126800,1860.7,11.3,67.3,240.2,657.0,4284.0,4.0,1,
126900,1859.8,12.4,67.3,240.0,657.0,4284.0,4.0,1,
127000,1862.2,11.4,67.3,240.0,657.0,4284.0,4.0,1,
127100,1859.1,11.1,67.2,240.1,657.0,4284.0,4.0,1,
127200,1867.3,28.5,67.5,240.2,199.0,1657.0,3.0,1,
127300,1864.0,79.0,67.2,135.6,209.0,1645.0,4.0,1,
127500,1878.7,47.0,57.7,30.1,318.0,2659.0,5.0,1,
127600,1848.9,146.8,57.0,35.2,451.0,3524.0,4.0,1,
127700,1848.0,56.1,62.0,37.2,539.0,3692.0,4.0,1,
127800,1870.1,38.6,61.2,36.0,621.0,3642.0,4.0,1,
127900,1863.3,20.4,61.2,36.5,621.0,3642.0,4.0,1,
128000,1861.7,12.2,61.3,40.5,621.0,3642.0,4.0,1,
128100,1860.7,13.0,61.3,72.3,621.0,3642.0,4.0,1,
128200,1860.6,13.6,61.3,105.7,621.0,3642.0,4.0,1,
128300,1862.5,11.4,61.4,239.3,621.0,3642.0,4.0,1,
128500,1862.9,13.2,61.4,240.2,621.0,3642.0,4.0,1,
128600,1860.7,11.4,61.4,240.1,621.0,3642.0,4.0,1,
128700,1862.0,13.0,61.4,240.1,621.0,3642.0,4.0,1,
128800,1873.9,32.7,61.5,240.0,621.0,3642.0,4.0,1,
128900,1864.3,42.7,61.6,239.3,246.0,2109.0,3.0,1,
129000,1848.3,76.9,68.3,37.2,343.0,2586.0,3.0,1,
129100,1861.1,38.8,69.2,36.2,347.0,2925.0,4.0,1,
129200,1851.2,183.4,68.3,36.3,441.0,3442.0,5.0,1,
129300,1879.8,72.3,67.8,35.0,588.0,4016.0,3.0,1,
129500,1839.4,18.1,67.8,29.3,588.0,4016.0,3.0,1,
129600,1859.6,11.4,67.6,34.5,588.0,4016.0,3.0,1,
129700,1862.3,11.7,67.6,65.7,588.0,4016.0,3.0,1,
129800,1861.7,11.6,67.6,100.2,588.0,4016.0,3.0,1,
129900,1861.5,11.0,67.6,239.9,588.0,4016.0,3.0,1,
130000,1859.0,11.7,67.5,240.0,588.0,4016.0,3.0,1,
130100,1860.3,10.5,67.5,240.2,588.0,4016.0,3.0,1,
130200,1860.0,11.0,67.4,240.3,588.0,4016.0,3.0,1,
130300,1861.5,13.0,67.4,240.3,588.0,4016.0,3.0,1,
130500,1869.3,75.6,73.0,239.0,220.0,1749.0,3.0,1,
130600,1845.1,97.8,66.6,34.2,281.0,2170.0,3.0,1,
130700,1883.0,47.9,65.8,30.2,256.0,1899.0,5.0,1,
130800,1851.1,106.6,78.5,36.2,401.0,2537.0,4.0,1,
130900,1857.0,31.4,70.1,36.3,433.0,2255.0,3.0,1,
131000,1861.4,65.4,74.4,34.5,855.0,3715.0,2.0,0,
131100,1856.2,18.9,73.8,34.9,875.0,3678.0,3.0,1,
131200,1859.3,12.9,73.8,35.0,875.0,3678.0,3.0,1,
131300,1859.8,12.4,73.9,36.6,875.0,3678.0,3.0,1,
131500,1861.8,13.4,73.9,239.7,875.0,3678.0,3.0,1,
131600,1859.9,13.5,74.0,240.0,875.0,3678.0,3.0,1,
131700,1860.5,11.9,74.0,239.7,875.0,3678.0,3.0,1,
131800,1859.6,11.5,74.0,239.8,875.0,3678.0,3.0,1,
131900,1860.7,13.5,74.0,240.0,875.0,3678.0,3.0,1,
132000,1860.3,13.0,74.0,240.0,875.0,3678.0,3.0,1,
132100,1864.7,191.4,81.4,220.4,277.0,2271.0,4.0,1,
132200,1859.0,103.8,89.8,37.1,287.0,2213.0,5.0,1,
132300,1867.7,46.9,89.0,38.9,319.0,2604.0,4.0,1,
132500,1864.4,67.5,84.2,42.5,437.0,2952.0,4.0,1,
132600,1877.3,67.5,87.4,43.5,579.0,4194.0,5.0,1,
132700,1841.5,20.9,83.4,35.9,579.0,4223.0,4.0,1,
132800,1858.7,13.6,83.3,35.1,579.0,4223.0,4.0,1,
132900,1861.7,12.4,83.4,36.2,579.0,4223.0,4.0,1,
133000,1861.0,13.7,83.4,66.0,579.0,4223.0,4.0,1,
133100,1859.8,12.1,83.3,239.6,579.0,4223.0,4.0,1,
133200,1860.7,13.9,83.3,240.1,579.0,4223.0,4.0,1,
133300,1861.0,10.8,83.3,240.4,579.0,4223.0,4.0,1,
133500,1859.4,12.6,83.3,240.2,579.0,4223.0,4.0,1,
133600,1860.3,13.2,83.3,240.3,579.0,4223.0,4.0,1,
133700,1860.1,36.9,79.5,240.4,251.0,1965.0,4.0,1,
133800,1851.5,56.8,60.7,103.0,253.0,2221.0,4.0,1,
133900,1866.6,162.6,60.2,37.5,302.0,2477.0,4.0,1,
134000,1866.1,83.3,70.5,37.4,369.0,2751.0,4.0,1,
134100,1880.2,52.2,68.6,35.5,583.0,4352.0,4.0,1,
134200,1836.1,159.2,67.3,39.3,576.0,4142.0,5.0,1,
134300,1855.0,30.4,75.9,42.5,735.0,4151.0,3.0,1,
134500,1859.1,11.8,75.8,36.7,735.0,4151.0,3.0,1,
134600,1860.2,11.3,75.8,35.8,735.0,4151.0,3.0,1,
134700,1860.6,12.9,75.8,237.8,735.0,4151.0,3.0,1,
134800,1859.7,12.6,75.8,240.2,735.0,4151.0,3.0,1,
134900,1859.2,12.8,75.8,240.4,735.0,4151.0,3.0,1,
135000,1860.5,12.1,75.8,240.4,735.0,4151.0,3.0,1,
135100,1860.1,14.0,75.8,240.3,735.0,4151.0,3.0,1,
135200,1860.9,11.9,75.8,240.1,735.0,4151.0,3.0,1,
135300,1854.0,68.3,75.6,240.1,218.0,1700.0,5.0,1,
135500,1864.5,84.9,77.5,65.9,375.0,2665.0,3.0,1,
135600,1843.0,49.0,61.9,43.8,332.0,2384.0,3.0,1,
135700,1864.0,49.8,61.9,38.2,431.0,3441.0,4.0,1,
135800,1845.2,161.1,64.1,29.7,578.0,3855.0,4.0,1,
135900,1867.0,37.6,61.2,35.8,793.0,4436.0,4.0,1,
136000,1861.9,15.6,61.2,37.3,793.0,4436.0,4.0,1,
136100,1861.4,11.2,61.3,34.8,793.0,4436.0,4.0,1,
136200,1860.3,13.6,61.3,29.7,793.0,4436.0,4.0,1,
136300,1862.3,14.2,61.4,182.8,793.0,4436.0,4.0,1,
136500,1859.3,14.0,61.4,240.0,793.0,4436.0,4.0,1,
136600,1861.2,13.1,61.4,240.0,793.0,4436.0,4.0,1,
136700,1859.9,14.4,61.4,240.2,793.0,4436.0,4.0,1,
136800,1859.6,14.3,61.4,240.2,793.0,4436.0,4.0,1,
136900,1867.3,32.3,61.3,239.8,241.0,2062.0,7.0,1,
137000,1862.3,43.8,60.8,237.6,206.0,1851.0,4.0,1,
137100,1852.5,67.9,62.2,35.7,258.0,1970.0,3.0,1,
137200,1852.1,66.1,63.9,34.6,209.0,1756.0,5.0,1,
137300,1886.7,44.3,63.4,35.2,360.0,2826.0,4.0,1,
137500,1860.5,38.9,54.4,35.1,561.0,3554.0,3.0,1,
137600,1859.1,15.3,54.2,37.9,561.0,3554.0,3.0,1,
137700,1861.8,13.0,54.3,36.4,561.0,3554.0,3.0,1,
137800,1860.6,14.2,54.3,38.6,561.0,3554.0,3.0,1,
137900,1862.3,13.3,54.3,132.0,561.0,3554.0,3.0,1,
138000,1862.6,14.0,54.4,240.3,561.0,3554.0,3.0,1,
138100,1862.6,14.8,54.5,240.3,561.0,3554.0,3.0,1,
138200,1861.1,12.5,54.4,240.4,561.0,3554.0,3.0,1,
138300,1861.1,12.3,54.4,240.2,561.0,3554.0,3.0,1,
138500,1859.1,12.9,54.4,240.2,561.0,3554.0,3.0,1,
138600,1868.5,70.7,53.8,239.9,276.0,1898.0,4.0,1,
138700,1866.8,66.4,56.6,57.6,285.0,2241.0,4.0,1,
138800,1862.8,54.1,58.2,36.0,333.0,2384.0,4.0,1,
138900,1856.5,127.9,61.4,37.5,463.0,3591.0,4.0,1,
139000,1842.5,111.2,73.0,37.1,575.0,4060.0,4.0,1,
139100,1886.6,66.6,71.6,34.7,608.0,4656.0,4.0,1,
139200,1851.6,15.9,71.9,29.4,703.0,4282.0,4.0,1,
139300,1859.4,13.8,71.9,29.3,703.0,4282.0,4.0,1,
139500,1859.6,12.3,71.7,83.5,703.0,4282.0,4.0,1,
139600,1860.1,12.9,71.7,240.2,703.0,4282.0,4.0,1,
139700,1862.3,14.7,71.7,240.4,703.0,4282.0,4.0,1,
139800,1860.8,12.2,71.6,240.4,703.0,4282.0,4.0,1,
139900,1861.6,11.6,71.6,240.3,703.0,4282.0,4.0,1,
140000,1862.1,13.2,71.7,240.2,703.0,4282.0,4.0,1,
140100,1859.8,12.3,71.7,240.2,703.0,4282.0,4.0,1,
140200,1881.8,32.8,71.6,239.6,206.0,1485.0,4.0,1,
140300,1851.1,84.8,79.1,71.6,170.0,1487.0,3.0,1,
140500,1877.2,172.4,72.6,35.4,336.0,2805.0,6.0,1,
140600,1858.2,131.8,90.3,37.2,440.0,3431.0,3.0,1,
140700,1862.3,50.1,88.0,28.5,445.0,3132.0,5.0,1,
140800,1858.8,26.2,87.6,28.3,557.0,3786.0,4.0,1,
140900,1857.4,16.3,87.8,29.6,557.0,3786.0,4.0,1,
141000,1864.5,12.7,87.8,43.0,557.0,3786.0,4.0,1,
141100,1860.8,10.0,87.8,68.3,557.0,3786.0,4.0,1,
141200,1861.7,12.8,87.8,107.6,557.0,3786.0,4.0,1,
141300,1861.6,11.9,87.8,239.7,557.0,3786.0,4.0,1,
141500,1861.5,11.4,87.7,239.4,557.0,3786.0,4.0,1,
141600,1861.5,15.0,87.7,239.7,557.0,3786.0,4.0,1,
141700,1859.7,12.1,87.8,239.5,557.0,3786.0,4.0,1,
141800,1866.9,42.5,88.1,237.5,283.0,2230.0,3.0,1,
141900,1859.2,113.3,93.4,65.7,279.0,2184.0,5.0,1,
142000,1872.7,57.4,93.5,43.1,369.0,2645.0,5.0,1,
142100,1861.1,164.8,98.1,45.3,476.0,3409.0,3.0,1,
142200,1837.9,84.4,90.2,46.1,594.0,3371.0,3.0,1,
142300,1871.6,46.3,87.8,34.8,577.0,3081.0,3.0,1,
142500,1859.1,14.4,91.8,29.5,577.0,3081.0,3.0,1,
142600,1861.7,12.0,91.8,29.7,577.0,3081.0,3.0,1,
142700,1861.1,13.3,91.9,34.2,577.0,3081.0,3.0,1,
142800,1862.2,12.4,91.9,146.3,577.0,3081.0,3.0,1,
142900,1861.4,11.0,91.9,240.4,577.0,3081.0,3.0,1,
143000,1860.4,10.3,91.9,240.4,577.0,3081.0,3.0,1,
143100,1860.2,12.8,91.9,240.1,577.0,3081.0,3.0,1,
143200,1861.5,13.8,91.9,240.2,577.0,3081.0,3.0,1,
143300,1860.5,15.6,91.9,240.3,577.0,3081.0,3.0,1,
143500,1843.6,82.1,83.9,76.9,300.0,2015.0,4.0,1,
143600,1855.5,60.8,81.7,35.9,311.0,2115.0,5.0,1,
143700,1861.7,156.3,85.0,36.8,416.0,2951.0,3.0,1,
143800,1865.7,93.0,76.6,37.0,416.0,3104.0,3.0,1,
143900,1884.3,59.5,77.2,29.8,593.0,4179.0,4.0,1,
144000,1832.8,44.1,78.4,28.8,512.0,3675.0,3.0,1,
144100,1859.4,13.9,78.3,29.7,512.0,3675.0,3.0,1,
144200,1861.7,11.7,78.3,37.9,512.0,3675.0,3.0,1,
144300,1860.6,13.1,78.3,42.9,512.0,3675.0,3.0,1,
144500,1861.2,11.8,78.4,240.5,512.0,3675.0,3.0,1,
144600,1859.9,11.3,78.4,240.1,512.0,3675.0,3.0,1,
144700,1861.3,12.9,78.4,239.8,512.0,3675.0,3.0,1,
144800,1860.4,13.6,78.4,239.8,512.0,3675.0,3.0,1,
144900,1861.0,13.3,78.4,240.2,512.0,3675.0,3.0,1,
145000,1865.7,133.6,78.5,240.6,278.0,2101.0,5.0,1,
145100,1839.8,139.9,91.3,41.0,307.0,2291.0,4.0,1,
145200,1880.6,67.8,91.6,37.7,295.0,2452.0,5.0,1,
145300,1864.7,121.7,93.3,41.5,343.0,2770.0,3.0,1,
145500,1863.2,37.5,84.3,36.2,516.0,3434.0,4.0,1,
145600,1847.3,48.9,83.4,36.2,704.0,4509.0,5.0,1,
145700,1864.0,14.5,83.5,35.8,704.0,4509.0,5.0,1,
145800,1861.4,14.0,83.5,35.6,704.0,4509.0,5.0,1,
145900,1860.3,12.6,83.5,34.8,704.0,4509.0,5.0,1,
146000,1860.1,12.2,83.4,66.6,704.0,4509.0,5.0,1,
146100,1862.0,13.2,83.5,240.2,704.0,4509.0,5.0,1,
146200,1861.1,12.2,83.5,240.3,704.0,4509.0,5.0,1,
146300,1862.2,12.3,83.5,240.1,704.0,4509.0,5.0,1,
146500,1862.0,12.6,83.5,240.1,704.0,4509.0,5.0,1,
146600,1870.6,143.9,85.2,239.8,704.0,4509.0,5.0,1,
146700,1850.8,94.9,78.5,40.3,267.0,1773.0,5.0,1,
146800,1869.6,52.9,77.5,38.0,343.0,2605.0,4.0,1,
146900,1845.2,79.6,82.6,39.6,325.0,2494.0,5.0,1,
147000,1853.1,67.7,76.4,45.8,352.0,2692.0,3.0,1,
147100,1887.0,48.8,75.8,48.6,346.0,2753.0,4.0,1,
147200,1853.1,99.4,77.5,49.5,460.0,3366.0,3.0,1,
147300,1845.9,18.6,78.0,45.0,460.0,3366.0,3.0,1,
147500,1862.3,12.4,78.0,53.6,460.0,3366.0,3.0,1,
147600,1862.8,13.1,78.1,139.5,460.0,3366.0,3.0,1,
147700,1861.3,12.4,78.1,240.1,460.0,3366.0,3.0,1,
147800,1860.1,12.7,78.0,240.2,460.0,3366.0,3.0,1,
147900,1862.7,13.5,78.1,240.2,460.0,3366.0,3.0,1,
148000,1861.7,12.2,78.1,240.4,460.0,3366.0,3.0,1,
148100,1861.3,17.3,78.1,240.6,460.0,3366.0,3.0,1,
148200,1862.9,95.3,78.2,240.0,460.0,3366.0,3.0,1,
148300,1845.8,110.8,82.6,110.9,178.0,1329.0,4.0,1,
148500,1864.2,88.6,84.4,42.8,237.0,2078.0,6.0,1,
148600,1871.4,50.2,81.7,42.2,404.0,2958.0,3.0,1,
148700,1859.1,120.9,82.6,45.0,476.0,3831.0,5.0,1,
148800,1839.6,78.1,84.5,45.7,595.0,3750.0,3.0,1,
148900,1865.9,16.7,82.2,45.7,587.0,3694.0,4.0,1,
149000,1859.9,13.4,82.2,50.1,587.0,3694.0,4.0,1,
149100,1862.4,11.8,82.2,49.8,587.0,3694.0,4.0,1,
149200,1862.8,13.5,82.2,69.2,587.0,3694.0,4.0,1,
149300,1860.6,11.4,82.2,239.9,587.0,3694.0,4.0,1,
149500,1862.1,12.2,82.1,240.1,587.0,3694.0,4.0,1,
149600,1860.1,12.0,82.1,240.2,587.0,3694.0,4.0,1,
149700,1861.8,12.4,82.1,240.3,587.0,3694.0,4.0,1,
149800,1860.5,15.3,82.0,240.2,587.0,3694.0,4.0,1,
149900,1863.3,51.1,74.8,239.8,225.0,1255.0,2.0,0,
150000,1876.3,56.3,66.3,68.5,293.0,2269.0,6.0,1,
150100,1845.8,145.4,64.0,37.8,352.0,2475.0,5.0,1,
150200,1850.7,48.9,68.3,29.1,381.0,2653.0,3.0,1,
150300,1870.1,160.7,68.9,26.2,477.0,3434.0,4.0,1,
150500,1849.5,26.0,76.7,34.9,558.0,3958.0,3.0,1,
150600,1860.0,16.5,77.1,35.0,558.0,3958.0,3.0,1,
150700,1861.4,13.2,77.1,36.0,558.0,3958.0,3.0,1,
150800,1860.9,12.7,77.0,42.8,558.0,3958.0,3.0,1,
150900,1863.0,14.7,77.0,89.6,558.0,3958.0,3.0,1,
151000,1862.3,11.9,77.1,240.0,558.0,3958.0,3.0,1,
151100,1860.9,12.3,77.0,240.2,558.0,3958.0,3.0,1,
151200,1863.6,13.5,77.1,240.2,558.0,3958.0,3.0,1,
151300,1861.5,12.6,77.1,240.4,558.0,3958.0,3.0,1,
151500,1865.0,36.9,77.0,240.3,180.0,1250.0,7.0,1,
151600,1867.1,28.8,76.3,238.4,132.0,1166.0,3.0,1,
151700,1851.2,74.4,79.9,57.0,259.0,2043.0,4.0,1,
151800,1878.0,69.8,72.9,36.3,443.0,3490.0,4.0,1,
151900,1869.8,95.9,73.8,36.9,534.0,3892.0,4.0,1,
152000,1837.9,119.7,74.7,37.8,503.0,3780.0,3.0,1,
152100,1868.1,36.0,76.5,34.8,577.0,4198.0,4.0,1,
152200,1859.1,15.0,76.4,29.2,577.0,4198.0,4.0,1,
152300,1860.7,10.9,76.3,29.5,577.0,4198.0,4.0,1,
152500,1861.9,11.4,76.2,69.7,577.0,4198.0,4.0,1,
152600,1860.4,13.5,76.2,240.4,577.0,4198.0,4.0,1,
152700,1864.8,13.1,76.3,240.5,577.0,4198.0,4.0,1,
152800,1861.3,12.1,76.3,240.3,577.0,4198.0,4.0,1,
152900,1859.6,12.5,76.2,240.0,577.0,4198.0,4.0,1,
153000,1861.9,13.3,76.2,239.9,577.0,4198.0,4.0,1,
153100,1857.5,81.9,83.1,239.9,223.0,1671.0,3.0,1,
153200,1885.0,52.7,83.8,29.0,232.0,1628.0,4.0,1,
153300,1854.1,112.3,77.2,28.0,378.0,2872.0,6.0,1,
153500,1862.2,79.1,85.0,38.3,474.0,3664.0,4.0,1,
153600,1858.1,125.8,86.3,36.1,558.0,4240.0,4.0,1,
153700,1864.9,44.8,84.6,34.3,487.0,3780.0,4.0,1,
153800,1861.0,23.1,84.7,28.9,487.0,3780.0,4.0,1,
153900,1862.2,13.6,84.8,28.9,487.0,3780.0,4.0,1,
154000,1862.5,13.3,84.8,38.4,487.0,3780.0,4.0,1,
154100,1860.7,14.9,84.8,85.2,487.0,3780.0,4.0,1,
154200,1862.1,11.8,84.9,239.6,487.0,3780.0,4.0,1,
154300,1861.7,13.7,84.8,240.2,487.0,3780.0,4.0,1,
154500,1861.0,11.1,84.9,240.4,487.0,3780.0,4.0,1,
154600,1860.8,13.1,84.8,240.1,487.0,3780.0,4.0,1,
154700,1870.1,51.3,82.0,239.9,206.0,1420.0,5.0,1,
154800,1864.9,34.6,78.8,235.9,232.0,1529.0,4.0,1,
154900,1845.9,50.1,80.6,41.1,266.0,2253.0,4.0,1,
155000,1870.6,65.1,71.9,29.9,261.0,2117.0,8.0,1,
155100,1871.7,98.8,72.2,35.5,317.0,2520.0,8.0,1,
155200,1849.6,66.7,59.1,39.1,333.0,2575.0,8.0,1,
155300,1861.1,50.1,55.9,30.1,456.0,3655.0,4.0,1,
155500,1861.9,11.6,54.9,39.2,456.0,3655.0,4.0,1,
155600,1861.1,13.2,54.9,39.6,456.0,3655.0,4.0,1,
155700,1859.9,11.6,54.8,77.5,456.0,3655.0,4.0,1,
155800,1860.8,12.0,54.8,240.1,456.0,3655.0,4.0,1,
155900,1861.9,12.3,54.8,240.0,456.0,3655.0,4.0,1,
156000,1862.6,13.6,54.9,240.0,456.0,3655.0,4.0,1,
156100,1860.8,12.5,54.8,240.1,456.0,3655.0,4.0,1,
156200,1862.3,13.2,54.9,240.0,456.0,3655.0,4.0,1,
156300,1861.5,17.9,54.9,240.0,456.0,3655.0,4.0,1,
156500,1861.3,64.7,54.2,74.8,470.0,3301.0,4.0,1,
156600,1861.3,61.3,60.2,65.5,472.0,3450.0,4.0,1,
156700,1854.9,64.3,61.6,37.3,522.0,3771.0,4.0,1,
156800,1841.6,105.0,63.9,36.7,557.0,4146.0,3.0,1,
156900,1889.5,66.8,63.2,48.1,509.0,4126.0,4.0,1,
157000,1854.8,15.3,62.9,55.7,547.0,3861.0,4.0,1,
157100,1860.1,11.5,62.9,40.2,547.0,3861.0,4.0,1,
157200,1862.2,14.3,63.0,38.5,547.0,3861.0,4.0,1,
157300,1860.8,12.1,62.9,69.5,547.0,3861.0,4.0,1,
157500,1860.7,12.5,63.0,239.2,547.0,3861.0,4.0,1,
157600,1861.0,11.0,62.9,238.4,547.0,3861.0,4.0,1,
157700,1860.1,11.0,62.9,239.5,547.0,3861.0,4.0,1,
157800,1860.0,13.5,62.9,239.8,547.0,3861.0,4.0,1,
157900,1862.4,17.1,62.9,239.7,547.0,3861.0,4.0,1,
158000,1884.4,42.4,63.1,239.2,327.0,2723.0,5.0,1,
158100,1844.3,245.7,77.9,49.3,310.0,2463.0,4.0,1,
158200,1853.4,61.4,82.0,35.0,364.0,2717.0,3.0,1,
158300,1880.9,99.5,81.2,29.3,441.0,2876.0,4.0,1,
158500,1859.9,40.7,77.7,30.0,496.0,3406.0,4.0,1,
158600,1855.5,16.9,76.6,48.8,510.0,3660.0,4.0,1,
158700,1859.1,12.8,76.6,65.5,510.0,3660.0,4.0,1,
158800,1861.1,10.8,76.6,52.9,510.0,3660.0,4.0,1,
158900,1859.9,10.8,76.5,89.0,510.0,3660.0,4.0,1,
159000,1860.2,11.5,76.4,239.7,510.0,3660.0,4.0,1,
159100,1862.5,11.7,76.4,240.1,510.0,3660.0,4.0,1,
159200,1862.8,11.7,76.4,240.2,510.0,3660.0,4.0,1,
159300,1860.1,13.5,76.5,240.2,510.0,3660.0,4.0,1,
159500,1861.1,18.2,76.4,239.6,510.0,3660.0,4.0,1,
159600,1865.4,54.3,77.1,238.0,314.0,2804.0,3.0,1,
159700,1860.6,83.4,74.8,39.4,367.0,2664.0,3.0,1,
159800,1872.7,52.4,59.8,35.7,366.0,2594.0,4.0,1,
159900,1862.2,81.8,59.4,36.7,434.0,3215.0,4.0,1,
160000,1836.2,113.7,67.6,37.4,395.0,2935.0,3.0,1,
160100,1868.6,57.9,68.0,36.8,532.0,3177.0,3.0,1,
160200,1869.2,18.6,67.2,36.2,544.0,3322.0,4.0,1,
160300,1858.7,12.0,67.2,30.2,544.0,3322.0,4.0,1,
160500,1859.5,11.7,67.2,68.5,544.0,3322.0,4.0,1,
160600,1861.0,13.5,67.3,239.6,544.0,3322.0,4.0,1,
160700,1861.7,12.4,67.3,239.9,544.0,3322.0,4.0,1,
160800,1861.5,12.9,67.3,240.4,544.0,3322.0,4.0,1,
160900,1862.1,11.9,67.3,240.5,544.0,3322.0,4.0,1,
161000,1859.7,13.5,67.3,240.3,544.0,3322.0,4.0,1,
161100,1862.1,12.1,67.4,240.0,544.0,3322.0,4.0,1,
161200,1883.0,44.7,67.1,239.5,306.0,2301.0,4.0,1,
161300,1848.6,123.3,71.7,68.6,242.0,2212.0,3.0,1,
161500,1869.4,65.0,68.2,37.1,388.0,2992.0,4.0,1,
161600,1859.5,64.4,66.0,36.5,404.0,3120.0,4.0,1,
161700,1876.1,44.3,57.2,34.8,372.0,2661.0,4.0,1,
161800,1845.8,26.6,57.6,65.8,477.0,2945.0,3.0,1,
161900,1858.2,13.1,57.6,41.3,477.0,2945.0,3.0,1,
162000,1862.6,11.1,57.7,30.0,477.0,2945.0,3.0,1,
162100,1861.8,10.9,57.7,35.2,477.0,2945.0,3.0,1,
162200,1862.3,12.4,57.7,238.1,477.0,2945.0,3.0,1,
162300,1859.9,10.9,57.7,240.2,477.0,2945.0,3.0,1,
162500,1862.1,12.8,57.7,240.2,477.0,2945.0,3.0,1,
162600,1861.3,13.2,57.7,240.2,477.0,2945.0,3.0,1,
162700,1862.3,12.1,57.7,240.0,477.0,2945.0,3.0,1,
162800,1869.9,35.4,57.8,239.9,195.0,1702.0,7.0,1,
162900,1846.8,48.9,56.8,238.6,211.0,1972.0,4.0,1,
163000,1873.4,54.1,43.4,50.6,358.0,2850.0,4.0,1,
163100,1872.5,71.0,43.4,40.9,441.0,2973.0,4.0,1,
163200,1840.3,83.7,59.9,51.6,427.0,3355.0,3.0,1,
163300,1862.5,60.6,60.8,34.4,483.0,3796.0,5.0,1,
163500,1864.4,14.8,73.9,30.2,483.0,3796.0,5.0,1,
163600,1862.7,12.1,73.9,36.6,483.0,3796.0,5.0,1,
163700,1861.7,11.5,73.8,37.7,483.0,3796.0,5.0,1,
163800,1861.0,12.3,73.8,48.1,483.0,3796.0,5.0,1,
163900,1863.3,12.8,73.9,240.1,483.0,3796.0,5.0,1,
164000,1860.9,13.0,73.9,240.2,483.0,3796.0,5.0,1,
164100,1864.5,10.9,74.0,240.1,483.0,3796.0,5.0,1,
164200,1861.6,11.2,74.0,239.8,483.0,3796.0,5.0,1,
164300,1860.8,11.7,74.0,239.6,483.0,3796.0,5.0,1,
164500,1848.5,57.1,75.8,131.4,192.0,1598.0,2.0,0,
164600,1860.2,46.3,77.0,37.1,290.0,2418.0,3.0,1,
164700,1855.3,76.3,79.5,38.1,353.0,2812.0,2.0,0,
164800,1849.2,64.2,68.9,40.2,678.0,3935.0,3.0,1,
164900,1892.8,34.0,67.7,39.9,748.0,3704.0,3.0,1,
165000,1840.8,41.9,62.6,42.0,750.0,3830.0,3.0,1,
165100,1852.0,16.2,55.9,37.3,750.0,3830.0,3.0,1,
165200,1860.5,14.1,55.9,35.4,750.0,3830.0,3.0,1,
165300,1862.7,10.9,56.0,38.9,750.0,3830.0,3.0,1,
165500,1862.3,13.2,55.9,240.2,750.0,3830.0,3.0,1,
165600,1861.1,12.5,55.9,240.3,750.0,3830.0,3.0,1,
165700,1863.3,13.4,55.8,240.2,750.0,3830.0,3.0,1,
165800,1859.7,13.5,55.8,240.1,750.0,3830.0,3.0,1,
165900,1862.7,13.1,55.9,240.2,750.0,3830.0,3.0,1,
166000,1860.4,14.8,55.9,240.2,750.0,3830.0,3.0,1,
166100,1848.6,162.2,54.3,239.8,273.0,2028.0,6.0,1,
166200,1860.1,75.0,62.5,40.7,360.0,2409.0,3.0,1,
166300,1875.1,178.5,73.3,37.6,363.0,2606.0,3.0,1,
166500,1860.0,50.5,78.8,34.7,553.0,3954.0,4.0,1,
166600,1844.2,156.1,81.8,44.0,607.0,4264.0,4.0,1,
166700,1862.5,21.5,85.0,45.6,627.0,4104.0,4.0,1,
166800,1861.6,12.3,85.1,50.8,627.0,4104.0,4.0,1,
166900,1861.7,11.9,85.0,65.4,627.0,4104.0,4.0,1,
167000,1861.5,11.0,85.1,67.0,627.0,4104.0,4.0,1,
167100,1861.1,12.4,85.1,239.7,627.0,4104.0,4.0,1,
167200,1861.2,13.7,85.0,240.3,627.0,4104.0,4.0,1,
167300,1862.2,12.4,85.0,240.2,627.0,4104.0,4.0,1,
167500,1864.1,12.8,85.0,240.3,627.0,4104.0,4.0,1,
167600,1859.9,13.0,85.0,240.3,627.0,4104.0,4.0,1,
167700,1857.9,126.4,86.3,239.7,261.0,2055.0,5.0,1,
167800,1875.7,50.9,83.2,56.1,295.0,2170.0,3.0,1,
167900,1848.4,84.0,80.4,36.6,298.0,2477.0,3.0,1,
168000,1844.4,79.5,75.1,29.6,436.0,3392.0,3.0,1,
168100,1880.7,49.4,74.2,35.2,455.0,2761.0,4.0,1,
168200,1854.9,123.9,73.5,35.1,375.0,2292.0,8.0,1,
168300,1851.8,20.8,72.6,35.0,498.0,2734.0,3.0,1,
168500,1860.3,12.1,72.6,45.6,498.0,2734.0,3.0,1,
168600,1862.4,12.0,72.6,45.1,498.0,2734.0,3.0,1,
168700,1862.7,14.2,72.6,239.5,498.0,2734.0,3.0,1,
168800,1861.5,14.2,72.7,240.2,498.0,2734.0,3.0,1,
168900,1860.7,11.9,72.6,240.0,498.0,2734.0,3.0,1,
169000,1861.2,14.1,72.6,239.8,498.0,2734.0,3.0,1,
169100,1860.8,11.9,72.6,239.8,498.0,2734.0,3.0,1,
169200,1860.7,12.2,72.6,239.8,498.0,2734.0,3.0,1,
169300,1858.0,115.9,72.8,239.5,220.0,1834.0,8.0,1,
169500,1857.9,64.2,74.6,38.9,598.0,4033.0,3.0,1,
169600,1877.5,92.8,71.7,30.1,625.0,4251.0,4.0,1,
169700,1865.8,80.7,72.9,37.5,597.0,4485.0,4.0,1,
169800,1835.7,134.2,73.6,36.7,494.0,3826.0,4.0,1,
169900,1864.2,36.6,71.8,35.3,533.0,3842.0,3.0,1,
170000,1859.4,12.4,71.9,39.8,533.0,3842.0,3.0,1,
170100,1861.5,10.6,71.9,40.5,533.0,3842.0,3.0,1,
170200,1859.8,12.1,71.8,41.5,533.0,3842.0,3.0,1,
170300,1862.8,13.3,71.9,151.4,533.0,3842.0,3.0,1,
170500,1861.4,15.0,71.9,240.4,533.0,3842.0,3.0,1,
170600,1860.2,13.8,71.9,239.9,533.0,3842.0,3.0,1,
170700,1861.2,11.6,71.8,239.8,533.0,3842.0,3.0,1,
170800,1861.8,18.2,71.9,240.0,533.0,3842.0,3.0,1,
170900,1849.8,136.0,72.3,240.0,275.0,2655.0,5.0,1,
171000,1894.2,62.0,72.4,83.7,546.0,4159.0,5.0,1,
171100,1856.7,124.4,78.6,43.1,599.0,4164.0,3.0,1,
171200,1838.0,82.0,83.7,36.9,624.0,4469.0,3.0,1,
171300,1869.6,194.8,83.2,39.4,619.0,4500.0,4.0,1,
171500,1858.2,41.5,91.5,29.8,654.0,4730.0,4.0,1,
171600,1861.2,23.9,91.4,30.1,654.0,4730.0,4.0,1,
171700,1859.2,15.5,91.7,38.7,654.0,4730.0,4.0,1,
171800,1861.1,12.3,91.8,44.9,654.0,4730.0,4.0,1,
171900,1861.2,12.4,91.7,73.3,654.0,4730.0,4.0,1,
172000,1861.6,12.5,91.7,157.4,654.0,4730.0,4.0,1,
172100,1860.8,14.3,91.7,240.4,654.0,4730.0,4.0,1,
172200,1861.8,13.1,91.7,240.4,654.0,4730.0,4.0,1,
172300,1861.7,13.2,91.8,240.1,654.0,4730.0,4.0,1,
172500,1875.1,44.3,91.8,240.2,315.0,2893.0,7.0,1,
172600,1854.7,47.9,89.2,172.0,610.0,4269.0,5.0,1,
172700,1854.5,93.9,90.0,53.6,606.0,4368.0,3.0,1,
172800,1868.0,91.5,84.5,56.6,672.0,4929.0,3.0,1,
172900,1880.0,67.2,84.8,47.7,463.0,3762.0,2.0,0,
173000,1837.9,126.9,79.3,44.0,606.0,4132.0,2.0,0,
173100,1858.8,48.7,79.2,37.8,669.0,4739.0,3.0,1,
173200,1864.9,15.5,78.7,36.7,669.0,4739.0,3.0,1,
173300,1860.2,11.8,78.4,36.6,669.0,4739.0,3.0,1,
173500,1861.5,11.9,78.4,85.0,669.0,4739.0,3.0,1,
173600,1860.1,10.3,78.3,239.8,669.0,4739.0,3.0,1,
173700,1861.1,11.9,78.3,239.9,669.0,4739.0,3.0,1,
173800,1862.1,10.4,78.3,240.0,669.0,4739.0,3.0,1,
173900,1860.6,13.2,78.3,239.9,669.0,4739.0,3.0,1,
174000,1861.5,18.8,78.6,239.8,669.0,4739.0,3.0,1,
174100,1860.9,75.7,78.5,144.2,669.0,4739.0,3.0,1,
174200,1880.4,65.6,79.3,89.0,579.0,4373.0,5.0,1,
174300,1871.5,64.1,79.1,67.6,657.0,5065.0,6.0,1,
174500,1860.7,53.4,71.3,72.9,577.0,4342.0,7.0,1,
174600,1846.1,105.1,72.0,75.3,507.0,4271.0,8.0,1,
174700,1887.1,61.0,62.5,68.3,656.0,4953.0,7.0,1,
174800,1847.3,15.7,62.5,66.8,778.0,5286.0,5.0,1,
174900,1859.9,13.3,62.5,65.9,778.0,5286.0,5.0,1,
175000,1861.9,12.4,62.6,66.0,778.0,5286.0,5.0,1,
175100,1863.0,11.0,62.6,88.5,778.0,5286.0,5.0,1,
175200,1863.1,11.0,62.7,240.2,778.0,5286.0,5.0,1,
175300,1860.6,10.9,62.6,240.2,778.0,5286.0,5.0,1,
175500,1860.2,12.1,62.6,239.9,778.0,5286.0,5.0,1,
175600,1863.1,11.6,62.3,239.9,778.0,5286.0,5.0,1,
175700,1860.4,15.3,62.2,240.1,778.0,5286.0,5.0,1,
175800,1886.4,52.8,62.0,239.4,428.0,3300.0,6.0,1,
175900,1840.7,96.6,71.4,47.3,599.0,4414.0,3.0,1,
176000,1852.5,108.1,81.6,43.8,579.0,4511.0,3.0,1,
176100,1889.0,159.5,82.9,49.8,607.0,4721.0,3.0,1,
176200,1855.7,92.7,96.1,44.0,545.0,4371.0,3.0,1,
176300,1854.4,48.2,95.9,30.0,637.0,4393.0,3.0,1,
176500,1860.6,11.4,95.5,40.2,637.0,4393.0,3.0,1,
176600,1859.7,11.7,95.4,47.5,637.0,4393.0,3.0,1,
176700,1862.8,11.5,95.4,68.4,637.0,4393.0,3.0,1,
176800,1860.1,11.5,95.4,239.7,637.0,4393.0,3.0,1,
176900,1861.5,11.8,95.4,240.2,637.0,4393.0,3.0,1,
177000,1859.9,16.1,95.4,240.4,637.0,4393.0,3.0,1,
177100,1861.5,14.6,95.6,240.0,637.0,4393.0,3.0,1,
177200,1859.0,13.1,95.6,237.4,637.0,4393.0,3.0,1,
177300,1862.0,13.3,95.6,140.1,637.0,4393.0,3.0,1,
177500,1866.4,74.8,90.4,67.0,568.0,4151.0,3.0,1,
177600,1876.0,74.8,79.7,65.4,597.0,4479.0,3.0,1,
177700,1853.7,74.1,80.1,66.4,679.0,4564.0,4.0,1,
177800,1833.4,146.5,61.3,66.7,660.0,4937.0,4.0,1,
177900,1872.5,106.9,64.6,44.0,593.0,4425.0,5.0,1,
178000,1872.1,25.9,66.5,42.3,649.0,4782.0,6.0,1,
178100,1858.8,18.3,66.7,39.0,649.0,4782.0,6.0,1,
178200,1861.1,13.6,66.9,37.8,649.0,4782.0,6.0,1,
178300,1860.8,11.3,66.8,50.8,649.0,4782.0,6.0,1,
178500,1859.4,12.6,66.8,238.8,649.0,4782.0,6.0,1,
178600,1861.5,10.6,66.8,240.2,649.0,4782.0,6.0,1,
178700,1860.3,11.1,66.6,240.2,649.0,4782.0,6.0,1,
178800,1860.2,13.1,66.6,240.4,649.0,4782.0,6.0,1,
178900,1861.4,13.4,66.6,240.2,649.0,4782.0,6.0,1,
179000,1885.4,40.9,66.4,240.0,309.0,2350.0,5.0,1,
179100,1845.8,61.7,66.4,99.1,619.0,4608.0,5.0,1,
179200,1844.5,77.0,69.0,65.8,718.0,5710.0,4.0,1,
179300,1874.0,193.6,69.1,65.9,574.0,4645.0,3.0,1,
179500,1879.3,79.0,77.0,34.3,562.0,4654.0,3.0,1,
179600,1840.6,33.6,76.0,38.0,716.0,4586.0,3.0,1,
179700,1858.3,19.5,76.1,45.5,716.0,4586.0,3.0,1,
179800,1862.5,11.7,75.9,36.3,716.0,4586.0,3.0,1,
179900,1861.0,12.0,75.9,50.0,716.0,4586.0,3.0,1,
180000,1861.6,12.2,75.9,77.3,716.0,4586.0,3.0,1,
180100,1861.1,10.4,76.0,239.6,716.0,4586.0,3.0,1,
180200,1858.8,12.7,75.9,240.2,716.0,4586.0,3.0,1,
180300,1863.1,12.6,76.0,240.1,716.0,4586.0,3.0,1,
180500,1859.4,15.8,76.1,239.7,716.0,4586.0,3.0,1,
180600,1869.8,26.5,76.3,238.7,318.0,2531.0,5.0,1,
180700,1850.4,104.7,78.8,90.7,487.0,3555.0,4.0,1,
180800,1876.9,99.4,86.1,36.6,676.0,5516.0,4.0,1,
180900,1872.1,172.4,89.0,38.1,522.0,3963.0,2.0,0,
181000,1830.8,129.2,93.8,39.3,547.0,4235.0,2.0,0,
181100,1866.1,72.1,92.9,37.9,608.0,5003.0,3.0,1,
181200,1858.3,74.2,96.5,48.1,691.0,4860.0,2.0,0,
181300,1863.6,15.4,96.5,47.9,691.0,4860.0,2.0,0,
181500,1861.1,11.8,96.3,37.9,691.0,4860.0,2.0,0,
181600,1861.0,11.8,96.3,53.3,691.0,4860.0,2.0,0,
181700,1861.3,11.5,96.3,240.1,691.0,4860.0,2.0,0,
181800,1860.4,12.8,96.3,240.0,691.0,4860.0,2.0,0,
181900,1860.8,11.7,96.3,240.0,691.0,4860.0,2.0,0,
182000,1859.9,14.8,96.2,239.9,691.0,4860.0,2.0,0,
182100,1860.7,13.2,96.2,239.7,691.0,4860.0,2.0,0,
182200,1877.3,34.7,96.2,239.8,691.0,4860.0,2.0,0,
182300,1861.5,69.7,96.0,186.6,481.0,3903.0,7.0,1,
182500,1860.2,83.8,90.4,39.3,693.0,5598.0,4.0,1,
182600,1848.1,150.7,78.1,66.2,616.0,4682.0,6.0,1,
182700,1898.8,69.5,76.4,66.6,633.0,4882.0,3.0,1,
182800,1849.8,65.6,73.2,49.7,665.0,4896.0,4.0,1,
182900,1846.7,17.5,71.2,41.2,665.0,4896.0,4.0,1,
183000,1862.6,11.2,71.3,45.0,665.0,4896.0,4.0,1,
183100,1862.5,12.5,71.3,46.2,665.0,4896.0,4.0,1,
183200,1862.3,12.5,71.4,69.5,665.0,4896.0,4.0,1,
183300,1863.0,12.4,71.4,240.2,665.0,4896.0,4.0,1,
183500,1862.1,12.4,71.5,240.1,665.0,4896.0,4.0,1,
183600,1860.8,13.4,71.5,240.4,665.0,4896.0,4.0,1,
183700,1863.0,13.6,71.5,240.4,665.0,4896.0,4.0,1,
183800,1859.8,8.1,71.5,240.1,665.0,4896.0,4.0,1,
183900,1852.5,49.2,69.5,237.4,365.0,2726.0,7.0,1,
184000,1852.1,101.5,73.0,40.5,643.0,4502.0,4.0,1,
184100,1897.0,139.5,75.6,39.5,708.0,5246.0,5.0,1,
184200,1847.8,130.3,83.1,38.0,594.0,4859.0,3.0,1,
184300,1852.5,50.5,81.0,34.3,628.0,5038.0,7.0,1,
184500,1861.2,18.9,88.7,36.6,708.0,5328.0,3.0,1,
184600,1859.1,13.6,88.6,36.3,708.0,5328.0,3.0,1,
184700,1861.9,11.4,88.6,42.0,708.0,5328.0,3.0,1,
184800,1861.6,11.7,88.6,55.3,708.0,5328.0,3.0,1,
184900,1861.5,12.0,88.5,239.6,708.0,5328.0,3.0,1,
185000,1859.6,10.2,88.5,240.0,708.0,5328.0,3.0,1,
185100,1860.9,11.8,88.5,240.3,708.0,5328.0,3.0,1,
185200,1861.5,14.3,88.5,240.4,708.0,5328.0,3.0,1,
185300,1863.7,13.6,88.5,240.5,708.0,5328.0,3.0,1,
185500,1864.6,54.8,87.6,239.8,344.0,2867.0,6.0,1,
185600,1866.3,67.9,83.2,66.7,587.0,4582.0,4.0,1,
185700,1855.4,102.8,84.9,52.2,686.0,4706.0,4.0,1,
185800,1836.3,78.9,78.0,45.8,613.0,4869.0,4.0,1,
185900,1887.5,85.9,75.3,38.5,623.0,4455.0,3.0,1,
186000,1866.9,83.1,67.8,38.1,545.0,4452.0,4.0,1,
186100,1839.3,20.9,67.5,37.6,533.0,4273.0,6.0,1,
186200,1859.0,12.5,67.5,38.2,533.0,4273.0,6.0,1,
186300,1859.1,11.2,67.5,36.8,533.0,4273.0,6.0,1,
186500,1860.8,11.2,67.4,239.5,533.0,4273.0,6.0,1,
186600,1860.4,12.4,67.4,240.0,533.0,4273.0,6.0,1,
186700,1859.2,11.4,67.4,239.8,533.0,4273.0,6.0,1,
186800,1859.0,11.4,67.3,239.9,533.0,4273.0,6.0,1,
186900,1861.5,11.8,67.3,240.0,533.0,4273.0,6.0,1,
187000,1858.6,12.4,67.3,240.1,533.0,4273.0,6.0,1,
187100,1854.5,244.0,84.7,105.9,311.0,2538.0,3.0,1,
187200,1851.6,73.8,94.7,38.3,333.0,2537.0,3.0,1,
187300,1876.5,74.1,92.0,35.1,465.0,3013.0,3.0,1,
187500,1859.2,57.2,91.4,29.3,531.0,3212.0,3.0,1,
187600,1845.7,170.0,87.7,28.9,596.0,3371.0,4.0,1,
187700,1859.6,26.3,93.7,29.8,639.0,3416.0,4.0,1,
187800,1858.2,13.1,93.7,29.9,639.0,3416.0,4.0,1,
187900,1861.4,12.6,93.7,29.0,639.0,3416.0,4.0,1,
188000,1860.5,11.3,93.8,28.8,639.0,3416.0,4.0,1,
188100,1859.1,11.6,93.8,218.3,639.0,3416.0,4.0,1,
188200,1861.1,12.4,93.8,240.0,639.0,3416.0,4.0,1,
188300,1862.0,11.5,93.8,239.9,639.0,3416.0,4.0,1,
188500,1862.3,12.6,93.9,240.1,639.0,3416.0,4.0,1,
188600,1861.0,12.3,93.9,239.7,639.0,3416.0,4.0,1,
188700,1856.7,160.9,87.0,239.7,296.0,2462.0,4.0,1,
188800,1875.7,51.9,74.3,71.5,335.0,2572.0,3.0,1,
188900,1858.9,44.2,73.9,42.9,307.0,2422.0,3.0,1,
189000,1839.1,39.4,67.1,38.3,479.0,3284.0,3.0,1,
189100,1871.0,66.0,67.9,42.4,375.0,2839.0,5.0,1,
189200,1860.7,134.8,69.3,73.6,597.0,3311.0,4.0,1,
189300,1855.5,26.2,66.2,38.2,484.0,2817.0,3.0,1,
189500,1860.8,11.1,66.1,30.0,484.0,2817.0,3.0,1,
189600,1861.2,12.6,66.1,30.1,484.0,2817.0,3.0,1,
189700,1862.3,12.3,66.2,237.5,484.0,2817.0,3.0,1,
189800,1861.0,12.4,66.2,240.1,484.0,2817.0,3.0,1,
189900,1861.1,12.9,66.2,240.2,484.0,2817.0,3.0,1,
190000,1862.7,11.9,66.2,240.1,484.0,2817.0,3.0,1,
190100,1859.8,12.1,66.2,240.2,484.0,2817.0,3.0,1,
190200,1859.5,10.4,66.1,240.1,484.0,2817.0,3.0,1,
190300,1868.8,37.1,66.0,240.2,262.0,2285.0,5.0,1,
190500,1854.2,78.4,57.9,34.9,288.0,2150.0,4.0,1,
190600,1867.4,64.3,64.2,35.2,424.0,2900.0,3.0,1,
190700,1874.8,53.8,62.5,47.1,412.0,2949.0,4.0,1,
190800,1835.0,122.1,74.8,47.9,484.0,2618.0,3.0,1,
190900,1866.4,28.4,66.6,46.3,481.0,2609.0,4.0,1,
191000,1861.3,12.8,66.6,45.7,481.0,2609.0,4.0,1,
191100,1861.7,11.4,66.6,42.2,481.0,2609.0,4.0,1,
191200,1860.7,9.4,66.5,42.6,481.0,2609.0,4.0,1,
191300,1862.2,10.0,66.5,142.0,481.0,2609.0,4.0,1,
191500,1862.4,11.3,66.6,240.1,481.0,2609.0,4.0,1,
191600,1860.1,11.9,66.5,240.1,481.0,2609.0,4.0,1,
191700,1861.4,14.1,66.6,240.1,481.0,2609.0,4.0,1,
191800,1862.8,13.8,66.7,240.1,481.0,2609.0,4.0,1,
191900,1860.5,64.2,66.7,239.8,481.0,2609.0,4.0,1,
192000,1880.9,64.9,67.8,146.6,323.0,2483.0,3.0,1,
192100,1856.3,85.6,69.3,30.1,340.0,2547.0,4.0,1,
192200,1855.3,62.7,68.3,34.6,404.0,2655.0,3.0,1,
192300,1861.2,105.3,68.6,43.4,481.0,2880.0,3.0,1,
192500,1887.8,29.3,62.4,36.2,571.0,2873.0,3.0,1,
192600,1848.9,12.4,62.4,46.9,532.0,2759.0,3.0,1,
192700,1861.3,11.7,62.4,46.8,532.0,2759.0,3.0,1,
192800,1861.5,12.7,62.4,49.6,532.0,2759.0,3.0,1,
192900,1860.5,11.9,62.4,237.4,532.0,2759.0,3.0,1,
193000,1861.5,11.2,62.4,239.9,532.0,2759.0,3.0,1,
193100,1861.3,11.3,62.3,240.1,532.0,2759.0,3.0,1,
193200,1862.6,12.2,62.4,240.1,532.0,2759.0,3.0,1,
193300,1862.4,11.2,62.4,240.2,532.0,2759.0,3.0,1,
193500,1862.7,14.1,62.5,239.8,532.0,2759.0,3.0,1,
193600,1880.7,52.6,61.7,176.0,344.0,2330.0,4.0,1,
193700,1836.3,146.6,63.7,50.1,389.0,2816.0,4.0,1,
193800,1864.5,77.1,63.5,37.9,343.0,2682.0,3.0,1,
193900,1877.5,108.1,65.2,47.2,402.0,2979.0,3.0,1,
194000,1857.4,48.5,62.9,43.2,367.0,2516.0,4.0,1,
194100,1863.8,28.6,60.0,37.1,334.0,2540.0,4.0,1,
194200,1856.3,15.5,60.2,37.9,392.0,2726.0,4.0,1,
194300,1859.1,11.3,60.2,35.7,392.0,2726.0,4.0,1,
194500,1862.0,12.0,60.2,69.0,392.0,2726.0,4.0,1,
194600,1861.0,13.5,60.2,239.9,392.0,2726.0,4.0,1,
194700,1861.3,11.7,60.2,240.1,392.0,2726.0,4.0,1,
194800,1862.0,13.8,60.2,240.3,392.0,2726.0,4.0,1,
194900,1861.2,11.8,60.1,240.4,392.0,2726.0,4.0,1,
195000,1861.2,11.6,60.1,240.3,392.0,2726.0,4.0,1,
195100,1861.2,15.8,60.0,240.1,392.0,2726.0,4.0,1,
195200,1870.4,164.6,59.3,239.7,265.0,2064.0,4.0,1,
195300,1860.2,111.0,66.9,34.6,319.0,2298.0,4.0,1,
195500,1846.8,87.5,68.4,36.6,388.0,2568.0,4.0,1,
195600,1849.3,48.2,68.6,44.5,364.0,2437.0,3.0,1,
195700,1873.5,34.5,67.9,48.1,273.0,2095.0,4.0,1,
195800,1859.0,27.7,72.5,48.9,340.0,2125.0,2.0,0,
195900,1860.2,13.0,72.6,42.4,340.0,2125.0,2.0,0,
196000,1861.1,12.0,72.6,37.3,340.0,2125.0,2.0,0,
196100,1861.8,13.5,72.6,39.9,340.0,2125.0,2.0,0,
196200,1861.7,12.4,72.6,239.6,340.0,2125.0,2.0,0,
196300,1861.7,12.8,72.6,240.4,340.0,2125.0,2.0,0,
196500,1862.2,11.6,72.6,240.4,340.0,2125.0,2.0,0,
196600,1860.9,14.4,72.6,240.3,340.0,2125.0,2.0,0,
196700,1861.1,13.7,72.5,240.2,340.0,2125.0,2.0,0,
196800,1877.8,71.9,72.8,239.7,299.0,2615.0,4.0,1,
196900,1840.0,125.1,71.7,82.4,359.0,2732.0,3.0,1,
197000,1859.5,40.5,70.3,66.1,373.0,2721.0,3.0,1,
197100,1857.9,84.4,71.9,48.3,379.0,2636.0,3.0,1,
197200,1874.7,63.6,70.2,38.1,494.0,3405.0,3.0,1,
197300,1866.3,68.0,70.4,50.3,457.0,3014.0,5.0,1,
197500,1861.9,13.4,68.5,41.2,457.0,3014.0,5.0,1,
197600,1860.9,12.3,68.5,37.4,457.0,3014.0,5.0,1,
197700,1861.6,12.6,68.5,40.2,457.0,3014.0,5.0,1,
197800,1862.2,12.3,68.5,239.3,457.0,3014.0,5.0,1,
197900,1860.6,13.0,68.5,240.6,457.0,3014.0,5.0,1,
198000,1861.8,13.9,68.5,240.4,457.0,3014.0,5.0,1,
198100,1862.5,10.9,68.5,240.1,457.0,3014.0,5.0,1,
198200,1860.9,13.6,68.5,240.3,457.0,3014.0,5.0,1,
198300,1860.5,11.5,68.5,240.2,457.0,3014.0,5.0,1,
198500,1842.4,96.9,72.7,195.6,292.0,2131.0,4.0,1,
198600,1888.1,52.5,66.9,67.0,313.0,2572.0,5.0,1,
198700,1847.7,54.6,67.9,49.4,325.0,2486.0,4.0,1,
198800,1854.5,48.2,61.1,42.5,358.0,2627.0,3.0,1,
198900,1867.4,107.4,61.3,39.9,477.0,3261.0,4.0,1,
199000,1845.8,66.8,67.9,38.3,414.0,2883.0,3.0,1,
199100,1862.3,13.2,67.9,40.0,414.0,2883.0,3.0,1,
199200,1860.7,11.9,67.8,49.7,414.0,2883.0,3.0,1,
199300,1862.7,12.9,67.8,65.4,414.0,2883.0,3.0,1,
199500,1862.1,13.0,67.8,239.9,414.0,2883.0,3.0,1,
199600,1861.3,11.6,67.8,240.0,414.0,2883.0,3.0,1,
199700,1862.4,14.1,67.8,240.1,414.0,2883.0,3.0,1,
199800,1862.1,13.9,67.8,240.0,414.0,2883.0,3.0,1,
199900,1861.2,15.9,67.8,240.0,414.0,2883.0,3.0,1,
200000,1870.2,49.0,68.0,240.1,414.0,2883.0,3.0,1,
200100,1852.8,45.9,61.3,117.9,243.0,1968.0,3.0,1,
200200,1865.5,54.4,58.1,41.4,340.0,2486.0,4.0,1,
200300,1844.2,170.1,57.4,41.6,382.0,2622.0,4.0,1,
200500,1875.5,83.3,67.6,37.2,541.0,3817.0,4.0,1,
200600,1842.9,50.8,63.1,36.0,579.0,4065.0,4.0,1,
200700,1850.2,15.5,61.1,36.1,579.0,4065.0,4.0,1,
200800,1863.2,13.0,61.2,38.0,579.0,4065.0,4.0,1,
200900,1861.7,12.8,61.2,35.7,579.0,4065.0,4.0,1,
201000,1859.3,13.1,61.2,93.7,579.0,4065.0,4.0,1,
201100,1861.4,13.0,61.2,240.0,579.0,4065.0,4.0,1,
201200,1861.2,11.5,61.2,240.0,579.0,4065.0,4.0,1,
201300,1859.5,11.8,61.1,239.9,579.0,4065.0,4.0,1,
201500,1861.0,21.5,61.3,240.0,579.0,4065.0,4.0,1,
201600,1859.2,118.9,61.3,239.4,579.0,4065.0,4.0,1,
201700,1844.9,58.3,70.2,81.1,335.0,2376.0,3.0,1,
201800,1877.1,60.0,70.4,29.6,304.0,2303.0,4.0,1,
201900,1857.3,155.5,74.6,29.4,375.0,2806.0,3.0,1,
202000,1863.3,63.9,73.5,30.2,467.0,3453.0,4.0,1,
202100,1853.9,76.4,76.9,36.1,510.0,3821.0,3.0,1,
202200,1843.5,76.8,76.5,35.8,619.0,4593.0,3.0,1,
202300,1869.5,18.5,76.5,34.6,573.0,3746.0,3.0,1,
202500,1862.1,14.3,76.4,43.3,573.0,3746.0,3.0,1,
202600,1861.2,14.0,76.5,68.3,573.0,3746.0,3.0,1,
202700,1859.6,22.0,76.6,239.4,573.0,3746.0,3.0,1,
202800,1861.3,17.6,76.7,201.3,573.0,3746.0,3.0,1,
202900,1858.7,12.1,76.7,102.1,573.0,3746.0,3.0,1,
203000,1862.7,14.2,76.7,157.2,573.0,3746.0,3.0,1,
203100,1861.5,14.1,76.7,238.1,573.0,3746.0,3.0,1,
203200,1860.3,13.0,76.6,239.3,573.0,3746.0,3.0,1,
203300,1867.4,67.7,70.9,239.3,304.0,2528.0,5.0,1,
203500,1836.5,146.9,86.5,40.6,350.0,3073.0,4.0,1,
203600,1859.6,73.5,81.4,35.1,495.0,3775.0,3.0,1,
203700,1872.6,126.9,81.4,41.4,409.0,3530.0,8.0,1,
203800,1863.4,81.3,84.3,48.8,551.0,4055.0,7.0,1,
203900,1846.0,19.6,83.4,47.6,523.0,3964.0,5.0,1,
204000,1858.7,13.6,83.3,47.6,523.0,3964.0,5.0,1,
204100,1860.2,12.2,83.3,43.6,523.0,3964.0,5.0,1,
204200,1859.9,11.2,83.2,57.1,523.0,3964.0,5.0,1,
204300,1862.0,15.4,83.2,239.9,523.0,3964.0,5.0,1,
204500,1860.7,15.9,83.1,239.8,523.0,3964.0,5.0,1,
204600,1861.2,17.0,83.3,237.3,523.0,3964.0,5.0,1,
204700,1861.5,13.5,83.3,90.1,523.0,3964.0,5.0,1,
204800,1861.6,14.2,83.4,88.6,523.0,3964.0,5.0,1,
204900,1859.0,103.5,90.9,93.6,291.0,2379.0,3.0,1,
205000,1863.6,52.8,91.3,28.7,374.0,2786.0,4.0,1,
205100,1855.4,163.4,78.4,28.5,367.0,2982.0,7.0,1,
205200,1880.6,52.5,80.4,29.4,567.0,3714.0,3.0,1,
205300,1850.9,66.3,80.1,34.8,501.0,3255.0,3.0,1,
205500,1868.8,21.2,81.3,34.6,663.0,3412.0,3.0,1,
205600,1860.0,12.8,81.3,34.6,663.0,3412.0,3.0,1,
205700,1862.9,11.0,81.4,29.9,663.0,3412.0,3.0,1,
205800,1861.3,12.6,81.3,39.7,663.0,3412.0,3.0,1,
205900,1860.2,11.1,81.3,239.6,663.0,3412.0,3.0,1,
206000,1860.1,12.2,81.3,240.1,663.0,3412.0,3.0,1,
206100,1859.6,11.5,81.2,240.3,663.0,3412.0,3.0,1,
206200,1862.6,13.2,81.0,240.3,663.0,3412.0,3.0,1,
206300,1859.8,11.1,80.9,240.0,663.0,3412.0,3.0,1,
206500,1867.1,128.3,82.0,239.4,366.0,2657.0,5.0,1,
206600,1879.7,59.4,81.2,27.9,348.0,2923.0,3.0,1,
206700,1843.4,122.5,81.8,27.5,374.0,2858.0,5.0,1,
206800,1851.3,42.5,79.0,28.3,371.0,2687.0,3.0,1,
206900,1868.5,80.5,78.8,35.9,415.0,2816.0,3.0,1,
207000,1863.8,95.5,82.2,37.5,448.0,2994.0,3.0,1,
207100,1856.3,28.2,83.0,34.2,663.0,3679.0,4.0,1,
207200,1859.4,12.7,82.9,29.4,663.0,3679.0,4.0,1,
207300,1861.5,14.6,82.9,29.2,663.0,3679.0,4.0,1,
207500,1862.0,11.4,82.9,216.1,663.0,3679.0,4.0,1,
207600,1862.3,14.2,82.9,240.1,663.0,3679.0,4.0,1,
207700,1861.2,11.4,82.9,240.0,663.0,3679.0,4.0,1,
207800,1860.7,11.8,82.9,239.6,663.0,3679.0,4.0,1,
207900,1861.2,14.4,82.9,238.9,663.0,3679.0,4.0,1,
208000,1861.2,14.7,83.0,239.3,663.0,3679.0,4.0,1,
208100,1874.8,75.8,78.7,239.6,396.0,3255.0,4.0,1,
208200,1856.0,48.8,75.5,28.8,359.0,2988.0,3.0,1,
208300,1851.6,102.7,79.4,27.6,393.0,2902.0,3.0,1,
208500,1872.7,76.7,76.7,35.1,449.0,3185.0,3.0,1,
208600,1836.6,85.0,69.7,37.8,511.0,3478.0,3.0,1,
208700,1864.8,37.2,68.7,34.8,725.0,4191.0,4.0,1,
208800,1862.8,15.3,68.6,35.2,725.0,4191.0,4.0,1,
208900,1860.4,13.8,68.6,36.3,725.0,4191.0,4.0,1,
209000,1860.2,11.4,68.6,37.1,725.0,4191.0,4.0,1,
209100,1860.9,13.3,68.6,101.5,725.0,4191.0,4.0,1,
209200,1859.9,12.4,68.5,240.1,725.0,4191.0,4.0,1,
209300,1862.3,11.8,68.5,239.9,725.0,4191.0,4.0,1,
209500,1861.8,12.3,68.6,240.4,725.0,4191.0,4.0,1,
209600,1861.3,13.4,68.6,240.0,725.0,4191.0,4.0,1,
209700,1859.5,34.7,68.6,239.9,725.0,4191.0,4.0,1,
209800,1883.4,62.0,65.7,238.2,334.0,2855.0,4.0,1,
209900,1852.5,112.0,79.2,35.9,397.0,2990.0,4.0,1,
210000,1855.6,49.8,75.4,34.8,358.0,2814.0,4.0,1,
210100,1858.6,130.0,75.6,37.2,582.0,3645.0,4.0,1,
210200,1845.3,128.4,89.5,38.3,690.0,4748.0,3.0,1,
210300,1897.6,56.3,88.3,34.4,795.0,4638.0,4.0,1,
210500,1860.9,12.1,88.4,29.4,795.0,4638.0,4.0,1,
210600,1860.9,11.5,88.3,29.9,795.0,4638.0,4.0,1,
210700,1860.7,10.9,88.4,70.5,795.0,4638.0,4.0,1,
210800,1859.7,12.3,88.4,239.5,795.0,4638.0,4.0,1,
210900,1860.5,11.8,88.3,240.2,795.0,4638.0,4.0,1,
211000,1861.8,11.7,88.3,240.4,795.0,4638.0,4.0,1,
211100,1860.3,12.0,88.3,240.2,795.0,4638.0,4.0,1,
211200,1860.6,12.3,88.3,239.8,795.0,4638.0,4.0,1,
211300,1861.2,14.4,88.3,239.8,795.0,4638.0,4.0,1,
211500,1840.5,146.3,75.7,53.7,343.0,2787.0,4.0,1,
211600,1860.4,59.3,77.0,46.0,370.0,2720.0,5.0,1,
211700,1879.0,95.8,77.7,51.6,335.0,2683.0,4.0,1,
211800,1853.5,54.0,64.2,48.3,594.0,3604.0,4.0,1,
211900,1861.3,28.6,57.5,49.0,530.0,3456.0,4.0,1,
212000,1859.8,13.7,56.7,66.4,565.0,3407.0,4.0,1,
212100,1860.9,13.0,56.7,52.6,565.0,3407.0,4.0,1,
212200,1861.5,11.1,56.8,37.4,565.0,3407.0,4.0,1,
212300,1862.5,11.8,56.9,91.6,565.0,3407.0,4.0,1,
212500,1862.0,11.2,57.0,240.2,565.0,3407.0,4.0,1,
212600,1860.9,13.2,57.0,240.2,565.0,3407.0,4.0,1,
212700,1861.3,12.6,57.0,240.5,565.0,3407.0,4.0,1,
212800,1861.2,11.3,57.0,240.4,565.0,3407.0,4.0,1,
212900,1859.5,12.7,57.0,240.1,565.0,3407.0,4.0,1,
213000,1861.7,177.7,57.2,239.3,395.0,3068.0,5.0,1,
213100,1860.0,124.0,74.3,36.3,302.0,2707.0,4.0,1,
213200,1870.8,58.1,71.4,36.1,338.0,2561.0,4.0,1,
213300,1848.3,114.0,86.0,39.8,344.0,2671.0,3.0,1,
213500,1877.0,170.2,88.5,41.4,552.0,3732.0,4.0,1,
213600,1854.1,37.4,102.2,45.0,533.0,3550.0,3.0,1,
213700,1859.1,12.5,102.2,36.7,533.0,3550.0,3.0,1,
213800,1860.2,10.4,102.2,37.8,533.0,3550.0,3.0,1,
213900,1862.3,10.3,102.1,41.0,533.0,3550.0,3.0,1,
214000,1860.5,11.6,102.1,81.5,533.0,3550.0,3.0,1,
214100,1860.7,10.8,102.1,240.0,533.0,3550.0,3.0,1,
214200,1861.5,13.3,102.1,239.4,533.0,3550.0,3.0,1,
214300,1862.1,11.8,102.0,240.2,533.0,3550.0,3.0,1,
214500,1860.4,12.4,102.1,240.3,533.0,3550.0,3.0,1,
214600,1872.2,55.7,102.0,240.1,321.0,2584.0,3.0,1,
214700,1838.9,105.6,95.9,40.8,347.0,2806.0,3.0,1,
214800,1861.7,46.0,95.2,36.8,381.0,2687.0,4.0,1,
214900,1847.4,155.2,87.2,29.7,342.0,2588.0,4.0,1,
215000,1886.6,47.9,84.3,29.5,402.0,2788.0,3.0,1,
215100,1856.3,41.7,83.4,35.1,404.0,2744.0,3.0,1,
215200,1839.7,43.1,74.0,29.6,282.0,2313.0,4.0,1,
215300,1860.3,13.9,74.0,35.0,282.0,2313.0,4.0,1,
215500,1860.6,11.7,74.1,36.4,282.0,2313.0,4.0,1,
215600,1860.5,12.0,74.1,56.4,282.0,2313.0,4.0,1,
215700,1860.5,13.6,74.1,240.0,282.0,2313.0,4.0,1,
215800,1861.2,11.1,74.1,239.5,282.0,2313.0,4.0,1,
215900,1860.9,14.1,74.1,239.8,282.0,2313.0,4.0,1,
216000,1861.4,13.8,74.1,240.0,282.0,2313.0,4.0,1,
216100,1862.8,13.6,74.2,240.0,282.0,2313.0,4.0,1,
216200,1860.6,97.0,74.4,239.8,314.0,2683.0,4.0,1,
216300,1847.0,94.8,69.4,123.0,349.0,2712.0,5.0,1,
216500,1852.4,107.5,75.2,48.7,506.0,3630.0,5.0,1,
216600,1850.9,50.3,70.1,35.3,413.0,3248.0,3.0,1,
216700,1860.7,143.8,71.5,35.9,491.0,3574.0,4.0,1,
216800,1848.4,53.5,69.1,36.5,481.0,3330.0,4.0,1,
216900,1860.7,14.2,69.1,36.6,481.0,3330.0,4.0,1,
217000,1861.5,12.7,69.1,51.6,481.0,3330.0,4.0,1,
217100,1859.1,11.9,69.1,66.9,481.0,3330.0,4.0,1,
217200,1862.0,12.4,69.1,112.2,481.0,3330.0,4.0,1,
217300,1861.7,12.0,69.1,240.0,481.0,3330.0,4.0,1,
217500,1862.2,13.1,69.3,240.2,481.0,3330.0,4.0,1,
217600,1860.5,12.5,69.2,240.1,481.0,3330.0,4.0,1,
217700,1859.6,11.4,69.1,239.7,481.0,3330.0,4.0,1,
217800,1875.2,137.9,74.0,239.3,317.0,2705.0,3.0,1,
217900,1849.4,114.0,90.1,38.7,362.0,2853.0,3.0,1,
218000,1859.6,42.5,89.6,36.5,349.0,2887.0,3.0,1,
218100,1845.0,251.3,97.1,34.2,480.0,3377.0,4.0,1,
218200,1873.6,75.3,103.9,29.6,436.0,3277.0,4.0,1,
218300,1882.6,73.4,104.1,28.5,586.0,3941.0,4.0,1,
218500,1852.2,16.7,104.1,34.6,586.0,3941.0,4.0,1,
218600,1860.0,11.9,104.1,37.9,586.0,3941.0,4.0,1,
218700,1862.4,12.2,104.1,46.9,586.0,3941.0,4.0,1,
218800,1861.4,10.8,104.1,76.4,586.0,3941.0,4.0,1,
218900,1860.7,11.7,104.1,239.7,586.0,3941.0,4.0,1,
219000,1862.2,12.4,104.0,240.0,586.0,3941.0,4.0,1,
219100,1861.0,13.4,104.0,240.3,586.0,3941.0,4.0,1,
219200,1860.0,15.6,104.0,240.0,586.0,3941.0,4.0,1,
219300,1859.0,14.0,104.0,238.6,586.0,3941.0,4.0,1,
219500,1840.8,114.3,92.7,116.0,305.0,2688.0,3.0,1,
219600,1882.9,70.7,92.8,47.4,375.0,2963.0,4.0,1,
219700,1860.2,142.1,85.8,43.5,432.0,2862.0,3.0,1,
219800,1851.9,47.0,80.0,35.5,514.0,3565.0,4.0,1,
219900,1858.9,43.6,79.3,34.4,660.0,4016.0,4.0,1,
220000,1848.4,86.7,81.0,29.6,764.0,3748.0,3.0,1,
220100,1863.7,14.6,78.5,30.1,685.0,3654.0,3.0,1,
220200,1861.1,11.4,78.5,34.5,685.0,3654.0,3.0,1,
220300,1861.1,10.3,78.5,29.0,685.0,3654.0,3.0,1,
220500,1862.7,11.8,78.5,239.7,685.0,3654.0,3.0,1,
220600,1862.5,12.5,78.5,240.1,685.0,3654.0,3.0,1,
220700,1860.4,11.7,78.6,240.1,685.0,3654.0,3.0,1,
220800,1860.1,12.5,78.5,239.9,685.0,3654.0,3.0,1,
220900,1859.7,10.8,78.5,240.1,685.0,3654.0,3.0,1,
221000,1860.9,12.6,78.5,240.6,685.0,3654.0,3.0,1,
221100,1861.1,71.5,74.8,239.9,300.0,2434.0,3.0,1,
221200,1868.2,50.7,68.1,39.4,366.0,2628.0,4.0,1,
221300,1844.3,248.4,82.4,36.7,352.0,2609.0,3.0,1,
221500,1881.9,151.2,83.4,29.4,498.0,3675.0,5.0,1,
221600,1858.2,112.2,98.4,29.6,724.0,4415.0,5.0,1,
221700,1843.9,20.8,96.2,29.9,719.0,4252.0,3.0,1,
221800,1860.1,11.9,96.2,28.4,719.0,4252.0,3.0,1,
221900,1861.9,11.6,96.3,28.0,719.0,4252.0,3.0,1,
222000,1862.5,12.3,96.3,29.5,719.0,4252.0,3.0,1,
222100,1861.5,11.5,96.3,239.0,719.0,4252.0,3.0,1,
222200,1861.5,11.2,96.3,239.8,719.0,4252.0,3.0,1,
222300,1861.8,12.1,96.3,240.0,719.0,4252.0,3.0,1,
222500,1860.5,13.0,96.3,240.5,719.0,4252.0,3.0,1,
222600,1860.3,12.1,96.3,240.1,719.0,4252.0,3.0,1,
222700,1856.3,90.0,99.1,238.3,356.0,2848.0,3.0,1,
222800,1863.7,64.9,99.4,74.0,339.0,2804.0,4.0,1,
222900,1866.4,75.4,93.7,40.6,313.0,2470.0,4.0,1,
223000,1872.6,62.5,82.6,34.6,441.0,3385.0,4.0,1,
223100,1857.2,81.5,82.1,45.6,516.0,4116.0,4.0,1,
223200,1834.9,96.4,62.3,47.5,597.0,4079.0,4.0,1,
223300,1871.7,46.7,63.0,52.9,733.0,4713.0,4.0,1,
223500,1862.9,13.7,63.8,44.9,733.0,4713.0,4.0,1,
223600,1861.7,10.8,63.8,45.1,733.0,4713.0,4.0,1,
223700,1862.9,10.2,63.8,69.5,733.0,4713.0,4.0,1,
223800,1862.2,12.5,63.8,239.3,733.0,4713.0,4.0,1,
223900,1860.1,11.7,63.7,240.3,733.0,4713.0,4.0,1,
224000,1859.9,12.2,63.7,240.4,733.0,4713.0,4.0,1,
224100,1861.1,14.7,63.8,240.6,733.0,4713.0,4.0,1,
224200,1859.5,20.1,63.8,240.4,733.0,4713.0,4.0,1,
224300,1860.6,108.9,64.2,165.2,295.0,2707.0,4.0,1,
224500,1847.0,126.6,61.2,43.3,363.0,2614.0,4.0,1,
224600,1851.8,69.9,64.3,30.0,339.0,2654.0,3.0,1,
224700,1869.8,133.0,63.5,34.3,382.0,2680.0,4.0,1,
224800,1864.5,54.6,67.1,30.0,405.0,2885.0,4.0,1,
224900,1852.9,22.3,62.7,36.7,435.0,2827.0,3.0,1,
225000,1859.7,12.3,61.8,40.9,435.0,2827.0,3.0,1,
225100,1860.8,11.5,61.8,39.6,435.0,2827.0,3.0,1,
225200,1860.2,11.5,61.7,35.2,435.0,2827.0,3.0,1,
225300,1861.3,12.9,61.7,184.2,435.0,2827.0,3.0,1,
225500,1860.1,12.1,61.7,240.3,435.0,2827.0,3.0,1,
225600,1861.6,12.6,61.7,240.0,435.0,2827.0,3.0,1,
225700,1859.9,15.6,61.7,240.0,435.0,2827.0,3.0,1,
225800,1860.9,13.6,61.7,240.2,435.0,2827.0,3.0,1,
225900,1870.5,63.7,63.0,238.1,267.0,2079.0,6.0,1,
226000,1860.1,35.8,59.8,56.4,288.0,2468.0,4.0,1,
226100,1853.2,78.9,72.9,34.3,304.0,2495.0,3.0,1,
226200,1872.5,64.1,71.9,30.1,396.0,2918.0,3.0,1,
226300,1869.5,43.2,71.5,35.0,587.0,3680.0,4.0,1,
226500,1867.5,36.4,72.8,37.6,630.0,3812.0,3.0,1,
226600,1862.5,12.1,72.8,39.5,630.0,3812.0,3.0,1,
226700,1860.3,12.4,72.8,39.0,630.0,3812.0,3.0,1,
226800,1861.2,12.2,72.8,40.1,630.0,3812.0,3.0,1,
226900,1861.5,11.9,72.8,90.6,630.0,3812.0,3.0,1,
227000,1860.7,13.0,72.8,240.0,630.0,3812.0,3.0,1,
227100,1861.4,13.1,72.8,240.4,630.0,3812.0,3.0,1,
227200,1860.3,11.4,72.8,240.1,630.0,3812.0,3.0,1,
227300,1860.5,12.0,72.8,239.9,630.0,3812.0,3.0,1,
227500,1861.8,40.8,72.8,240.0,630.0,3812.0,3.0,1,
227600,1884.7,66.2,72.3,204.2,353.0,2627.0,5.0,1,
227700,1857.2,118.5,67.8,51.0,290.0,2395.0,4.0,1,
227800,1852.1,52.2,67.8,29.9,318.0,2421.0,4.0,1,
227900,1862.0,38.1,67.7,28.7,339.0,2730.0,4.0,1,
228000,1846.4,90.3,76.1,27.8,432.0,2822.0,3.0,1,
228100,1893.9,42.9,70.7,29.1,486.0,3135.0,4.0,1,
228200,1842.5,13.1,70.5,28.4,486.0,3135.0,4.0,1,
228300,1860.7,13.1,70.5,28.3,486.0,3135.0,4.0,1,
228500,1859.9,12.5,70.5,68.2,486.0,3135.0,4.0,1,
228600,1860.8,12.9,70.5,239.9,486.0,3135.0,4.0,1,
228700,1860.8,11.5,70.5,240.2,486.0,3135.0,4.0,1,
228800,1860.2,11.2,70.5,240.2,486.0,3135.0,4.0,1,
228900,1860.5,13.5,70.5,239.8,486.0,3135.0,4.0,1,
229000,1860.4,11.2,70.5,239.7,486.0,3135.0,4.0,1,
229100,1859.3,15.2,70.5,239.7,486.0,3135.0,4.0,1,
229200,1880.4,52.6,70.3,212.9,314.0,2723.0,4.0,1,
229300,1848.5,208.2,71.4,50.0,296.0,2497.0,3.0,1,
229500,1890.7,66.0,79.5,28.9,480.0,3703.0,5.0,1,
229600,1848.7,115.7,84.6,29.0,583.0,4287.0,4.0,1,
229700,1855.8,55.0,83.3,34.8,688.0,4236.0,4.0,1,
229800,1865.8,16.3,83.9,34.8,793.0,4850.0,4.0,1,
229900,1859.9,11.7,83.8,29.9,793.0,4850.0,4.0,1,
230000,1860.3,11.5,83.8,36.2,793.0,4850.0,4.0,1,
230100,1860.8,11.9,83.8,65.5,793.0,4850.0,4.0,1,
230200,1862.2,10.9,83.9,239.7,793.0,4850.0,4.0,1,
230300,1861.3,12.9,83.9,240.4,793.0,4850.0,4.0,1,
230500,1859.8,12.2,83.9,240.5,793.0,4850.0,4.0,1,
230600,1860.9,13.8,83.9,240.4,793.0,4850.0,4.0,1,
230700,1861.6,13.9,83.9,240.1,793.0,4850.0,4.0,1,
230800,1862.3,74.6,84.0,237.8,370.0,2866.0,4.0,1,
230900,1869.8,77.0,76.3,66.8,387.0,2883.0,4.0,1,
231000,1860.9,63.7,70.2,47.7,333.0,2541.0,3.0,1,
231100,1857.7,49.3,70.7,51.3,414.0,3220.0,4.0,1,
231200,1840.2,90.8,63.6,48.2,688.0,4645.0,3.0,1,
231300,1886.4,61.3,61.3,48.5,759.0,5129.0,5.0,1,
231500,1859.8,11.8,61.4,53.3,759.0,5129.0,5.0,1,
231600,1861.6,13.8,61.4,53.4,759.0,5129.0,5.0,1,
231700,1862.2,11.4,61.5,65.8,759.0,5129.0,5.0,1,
231800,1861.2,13.0,61.5,237.9,759.0,5129.0,5.0,1,
231900,1862.2,13.7,61.5,240.2,759.0,5129.0,5.0,1,
232000,1862.0,12.3,61.6,240.4,759.0,5129.0,5.0,1,
232100,1860.1,12.5,61.5,240.2,759.0,5129.0,5.0,1,
232200,1861.2,13.0,61.5,239.9,759.0,5129.0,5.0,1,
232300,1861.4,13.7,61.5,239.9,759.0,5129.0,5.0,1,
232500,1842.1,174.4,64.8,82.9,328.0,2813.0,4.0,1,
232600,1851.8,51.8,66.7,30.1,320.0,2679.0,3.0,1,
232700,1879.3,132.5,66.8,27.9,436.0,3108.0,5.0,1,
232800,1861.7,109.4,84.1,27.6,549.0,3654.0,3.0,1,
232900,1857.3,30.5,81.8,34.9,755.0,3928.0,4.0,1,
233000,1859.1,40.0,88.1,35.1,800.0,3961.0,3.0,1,
233100,1859.4,13.5,88.1,30.2,800.0,3961.0,3.0,1,
233200,1861.0,11.9,88.1,29.6,800.0,3961.0,3.0,1,
233300,1859.8,12.5,88.0,29.3,800.0,3961.0,3.0,1,
233500,1861.6,11.9,88.0,240.0,800.0,3961.0,3.0,1,
233600,1859.7,12.4,88.0,240.1,800.0,3961.0,3.0,1,
233700,1860.9,12.6,88.0,240.2,800.0,3961.0,3.0,1,
233800,1860.4,11.6,88.0,240.5,800.0,3961.0,3.0,1,
233900,1859.3,11.5,88.0,240.3,800.0,3961.0,3.0,1,
234000,1863.9,43.3,88.3,239.7,271.0,2497.0,4.0,1,
234100,1858.5,104.1,87.3,48.6,377.0,2964.0,4.0,1,
234200,1872.8,61.0,82.8,36.4,332.0,2559.0,4.0,1,
234300,1863.6,76.4,83.2,36.4,450.0,3257.0,4.0,1,
234500,1866.0,77.3,78.8,35.2,566.0,4254.0,4.0,1,
234600,1865.6,45.0,71.4,29.2,554.0,3801.0,3.0,1,
234700,1863.9,14.3,71.5,29.1,554.0,3801.0,3.0,1,
234800,1861.0,13.1,71.5,35.2,554.0,3801.0,3.0,1,
234900,1860.2,13.4,71.5,37.9,554.0,3801.0,3.0,1,
235000,1861.6,13.2,71.5,171.8,554.0,3801.0,3.0,1,
235100,1861.6,12.0,71.5,240.1,554.0,3801.0,3.0,1,
235200,1861.4,12.2,71.5,240.7,554.0,3801.0,3.0,1,
235300,1860.3,11.1,71.5,241.1,554.0,3801.0,3.0,1,
235500,1861.7,13.5,71.6,240.2,554.0,3801.0,3.0,1,
235600,1881.6,42.8,71.6,240.1,317.0,2535.0,4.0,1,
235700,1850.6,213.3,80.2,50.8,393.0,3098.0,4.0,1,
235800,1846.0,55.4,86.0,28.9,293.0,2439.0,4.0,1,
235900,1865.7,59.5,85.8,27.8,385.0,2834.0,4.0,1,
236000,1862.1,135.7,85.1,27.9,422.0,3237.0,4.0,1,
236100,1882.0,64.5,84.1,29.3,604.0,3696.0,4.0,1,
236200,1843.0,77.0,85.6,29.2,697.0,4317.0,3.0,1,
236300,1856.9,36.6,85.7,29.2,697.0,4317.0,3.0,1,
236500,1861.3,10.7,85.9,43.7,697.0,4317.0,3.0,1,
236600,1861.9,10.9,85.9,51.1,697.0,4317.0,3.0,1,
236700,1860.6,12.9,85.8,55.6,697.0,4317.0,3.0,1,
236800,1861.5,12.9,85.9,239.3,697.0,4317.0,3.0,1,
236900,1860.6,13.0,85.9,239.8,697.0,4317.0,3.0,1,
237000,1860.0,12.3,85.9,240.0,697.0,4317.0,3.0,1,
237100,1860.6,10.4,85.8,240.2,697.0,4317.0,3.0,1,
237200,1858.7,11.7,85.8,240.2,697.0,4317.0,3.0,1,
237300,1860.4,182.3,81.7,210.3,311.0,2674.0,3.0,1,
237500,1876.5,53.5,74.5,34.6,326.0,2582.0,4.0,1,
237600,1837.8,99.8,71.1,29.7,449.0,3591.0,3.0,1,
237700,1857.8,62.8,68.9,30.2,541.0,3931.0,4.0,1,
237800,1863.9,51.1,68.8,36.3,739.0,4449.0,3.0,1,
237900,1856.5,16.1,65.3,36.8,689.0,4279.0,4.0,1,
238000,1862.0,12.4,64.8,45.4,689.0,4279.0,4.0,1,
238100,1861.0,12.1,64.7,67.3,689.0,4279.0,4.0,1,
238200,1861.2,13.3,64.7,94.6,689.0,4279.0,4.0,1,
238300,1861.9,11.0,64.8,240.0,689.0,4279.0,4.0,1,
238500,1861.0,13.8,64.7,239.7,689.0,4279.0,4.0,1,
238600,1860.5,11.6,64.7,239.9,689.0,4279.0,4.0,1,
238700,1858.8,12.0,64.7,239.8,689.0,4279.0,4.0,1,
238800,1861.5,12.8,64.7,239.7,689.0,4279.0,4.0,1,
238900,1869.8,191.1,73.8,93.1,354.0,2972.0,4.0,1,
239000,1851.9,74.1,76.3,28.2,438.0,3226.0,4.0,1,
239100,1859.7,35.2,76.6,27.7,414.0,2863.0,4.0,1,
239200,1848.5,172.8,89.3,28.3,478.0,3545.0,4.0,1,
239300,1885.8,63.3,86.4,34.4,433.0,3369.0,4.0,1,
239500,1840.7,28.2,103.0,29.8,503.0,3146.0,4.0,1,
239600,1859.1,13.6,103.0,29.2,503.0,3146.0,4.0,1,
239700,1860.6,11.7,102.9,28.0,503.0,3146.0,4.0,1,
239800,1861.3,10.8,103.0,28.1,503.0,3146.0,4.0,1,
239900,1859.9,12.0,102.9,53.1,503.0,3146.0,4.0,1,
240000,1860.5,11.5,102.9,240.9,503.0,3146.0,4.0,1,
240100,1861.8,12.4,103.0,240.6,503.0,3146.0,4.0,1,
240200,1860.6,12.1,102.9,240.0,503.0,3146.0,4.0,1,
240300,1861.6,12.0,103.0,239.5,503.0,3146.0,4.0,1,
240500,1859.6,51.9,101.3,238.7,290.0,2660.0,3.0,1,
240600,1847.7,71.7,91.3,35.6,410.0,3120.0,4.0,1,
240700,1887.5,60.2,91.5,34.7,394.0,2856.0,4.0,1,
240800,1846.8,106.1,85.3,35.5,310.0,2394.0,3.0,1,
240900,1860.6,41.4,80.5,43.3,368.0,2728.0,4.0,1,
241000,1855.0,52.3,71.7,46.5,394.0,2732.0,3.0,1,
241100,1854.8,30.5,60.1,38.2,505.0,3188.0,3.0,1,
241200,1859.8,13.3,60.0,46.4,505.0,3188.0,3.0,1,
241300,1861.5,11.6,60.1,49.4,505.0,3188.0,3.0,1,
241500,1860.8,11.9,60.1,183.1,505.0,3188.0,3.0,1,
241600,1862.4,11.8,60.1,240.2,505.0,3188.0,3.0,1,
241700,1861.6,12.5,60.2,240.2,505.0,3188.0,3.0,1,
241800,1860.7,12.1,60.1,239.9,505.0,3188.0,3.0,1,
241900,1862.1,11.6,60.2,239.9,505.0,3188.0,3.0,1,
242000,1860.9,12.5,60.2,240.1,505.0,3188.0,3.0,1,
242100,1869.6,62.7,60.0,240.2,265.0,2386.0,4.0,1,
242200,1857.1,81.7,60.0,37.8,293.0,2612.0,4.0,1,
242300,1863.6,43.3,59.6,36.0,350.0,2624.0,5.0,1,
242500,1861.3,49.7,58.4,42.8,418.0,2903.0,4.0,1,
242600,1886.1,67.5,58.6,48.9,337.0,2436.0,3.0,1,
242700,1836.8,53.4,62.8,47.4,306.0,2545.0,3.0,1,
242800,1861.0,12.7,62.7,34.8,306.0,2545.0,3.0,1,
242900,1861.1,11.2,62.7,28.8,306.0,2545.0,3.0,1,
243000,1861.0,12.5,62.8,29.5,306.0,2545.0,3.0,1,
243100,1864.4,12.4,62.9,41.6,306.0,2545.0,3.0,1,
243200,1861.1,11.3,62.9,240.5,306.0,2545.0,3.0,1,
243300,1861.9,14.1,62.9,240.2,306.0,2545.0,3.0,1,
243500,1861.3,12.9,63.0,240.3,306.0,2545.0,3.0,1,
243600,1861.0,12.0,63.1,240.6,306.0,2545.0,3.0,1,
243700,1872.3,38.2,63.2,240.3,300.0,2306.0,5.0,1,
243800,1841.7,164.3,70.1,88.8,232.0,2182.0,4.0,1,
243900,1858.0,64.7,73.8,43.8,258.0,2126.0,4.0,1,
244000,1878.9,110.2,74.8,44.8,437.0,3333.0,3.0,1,
244100,1848.3,82.3,76.3,45.0,405.0,3165.0,4.0,1,
244200,1860.8,33.3,77.8,52.1,414.0,3023.0,4.0,1,
244300,1846.8,91.1,79.4,46.5,563.0,3791.0,4.0,1,
244500,1861.5,11.9,79.4,37.2,563.0,3791.0,4.0,1,
244600,1864.1,11.5,79.5,37.7,563.0,3791.0,4.0,1,
244700,1861.7,11.8,79.4,41.3,563.0,3791.0,4.0,1,
244800,1861.3,11.7,79.4,240.5,563.0,3791.0,4.0,1,
244900,1860.7,11.7,79.4,240.3,563.0,3791.0,4.0,1,
245000,1860.7,12.5,79.3,240.1,563.0,3791.0,4.0,1,
245100,1860.8,10.4,79.2,240.1,563.0,3791.0,4.0,1,
245200,1860.0,11.8,79.2,239.8,563.0,3791.0,4.0,1,
245300,1860.6,35.0,79.2,240.1,563.0,3791.0,4.0,1,
245500,1859.0,81.5,87.8,29.7,354.0,2669.0,4.0,1,
245600,1860.7,118.7,88.5,28.3,418.0,3003.0,4.0,1,
245700,1841.7,121.8,94.1,28.0,439.0,3313.0,4.0,1,
245800,1883.3,62.7,94.3,29.2,533.0,3902.0,4.0,1,
245900,1871.2,104.5,94.3,27.8,632.0,4026.0,3.0,1,
246000,1835.5,44.0,90.3,29.1,632.0,4026.0,3.0,1,
246100,1862.0,13.2,90.6,37.2,632.0,4026.0,3.0,1,
246200,1861.8,13.0,90.6,42.2,632.0,4026.0,3.0,1,
246300,1861.1,13.6,90.6,44.1,632.0,4026.0,3.0,1,
246500,1862.2,12.1,90.7,240.1,632.0,4026.0,3.0,1,
246600,1861.1,13.7,90.7,240.3,632.0,4026.0,3.0,1,
246700,1861.4,13.6,90.7,240.1,632.0,4026.0,3.0,1,
246800,1860.7,11.8,90.7,240.1,632.0,4026.0,3.0,1,
246900,1859.8,11.6,90.7,240.4,632.0,4026.0,3.0,1,
247000,1866.9,49.4,81.3,239.6,303.0,2467.0,4.0,1,
247100,1843.7,78.8,76.6,56.9,345.0,2701.0,4.0,1,
247200,1883.9,70.8,76.4,43.6,374.0,2783.0,4.0,1,
247300,1854.5,121.9,71.7,40.0,380.0,2978.0,3.0,1,
247500,1852.3,199.5,70.6,37.7,718.0,4635.0,4.0,1,
247600,1857.4,23.9,76.4,36.9,608.0,4144.0,4.0,1,
247700,1860.9,12.7,75.8,36.9,608.0,4144.0,4.0,1,
247800,1861.7,11.9,75.8,37.5,608.0,4144.0,4.0,1,
247900,1862.3,13.0,75.8,38.7,608.0,4144.0,4.0,1,
248000,1861.6,11.7,75.8,229.2,608.0,4144.0,4.0,1,
248100,1860.3,12.2,75.8,240.0,608.0,4144.0,4.0,1,
248200,1860.5,12.7,75.8,240.1,608.0,4144.0,4.0,1,
248300,1860.2,13.4,75.8,240.2,608.0,4144.0,4.0,1,
248500,1860.2,13.2,75.8,240.3,608.0,4144.0,4.0,1,
248600,1863.4,111.5,76.1,239.6,321.0,2752.0,6.0,1,
248700,1862.6,64.4,71.2,45.6,257.0,2310.0,3.0,1,
248800,1868.8,118.1,70.6,40.2,283.0,2082.0,5.0,1,
248900,1839.8,147.2,91.8,37.2,243.0,2018.0,4.0,1,
249000,1863.1,48.4,87.3,29.9,359.0,2660.0,5.0,1,
249100,1874.7,88.2,86.2,29.5,373.0,2589.0,5.0,1,
249200,1845.1,31.9,84.1,29.3,305.0,2458.0,3.0,1,
249300,1859.9,13.6,84.1,30.3,305.0,2458.0,3.0,1,
249500,1860.4,12.5,84.1,30.2,305.0,2458.0,3.0,1,
249600,1863.0,10.9,84.1,168.3,305.0,2458.0,3.0,1,
249700,1861.9,14.0,84.2,240.1,305.0,2458.0,3.0,1,
249800,1860.6,14.5,84.2,240.3,305.0,2458.0,3.0,1,
249900,1860.9,13.2,84.2,240.2,305.0,2458.0,3.0,1,
250000,1860.0,11.7,84.2,239.9,305.0,2458.0,3.0,1,
250100,1860.3,12.9,84.2,239.6,305.0,2458.0,3.0,1,
250200,1867.5,211.2,93.7,164.4,304.0,2487.0,4.0,1,
250300,1844.0,69.8,100.8,39.9,397.0,2941.0,4.0,1,
250500,1859.1,142.3,101.4,29.8,314.0,2345.0,3.0,1,
250600,1876.4,51.5,97.7,29.5,300.0,2342.0,4.0,1,
250700,1849.7,95.8,101.5,28.1,319.0,2447.0,3.0,1,
250800,1848.3,32.8,94.9,28.1,288.0,2401.0,4.0,1,
250900,1860.5,13.6,94.9,35.2,288.0,2401.0,4.0,1,
251000,1861.0,11.9,94.9,36.7,288.0,2401.0,4.0,1,
251100,1859.1,11.5,94.8,49.1,288.0,2401.0,4.0,1,
251200,1861.0,11.2,94.8,239.6,288.0,2401.0,4.0,1,
251300,1861.4,13.0,94.8,240.4,288.0,2401.0,4.0,1,
251500,1861.3,13.4,94.8,240.3,288.0,2401.0,4.0,1,
251600,1860.1,14.0,94.7,240.3,288.0,2401.0,4.0,1,
251700,1860.3,15.1,94.8,240.4,288.0,2401.0,4.0,1,
251800,1854.6,73.1,92.9,239.8,330.0,2355.0,3.0,1,
251900,1868.1,75.2,79.7,51.3,332.0,2561.0,4.0,1,
252000,1873.6,65.2,79.8,41.1,324.0,2714.0,4.0,1,
252100,1841.6,102.5,74.4,44.1,398.0,3077.0,4.0,1,
252200,1858.8,54.8,73.0,40.0,448.0,3525.0,4.0,1,
252300,1861.5,186.4,74.8,36.1,466.0,3463.0,4.0,1,
252500,1862.4,14.4,78.2,34.5,466.0,3463.0,4.0,1,
252600,1860.3,13.5,78.2,28.0,466.0,3463.0,4.0,1,
252700,1860.6,12.5,78.2,27.9,466.0,3463.0,4.0,1,
252800,1861.9,13.7,78.2,99.2,466.0,3463.0,4.0,1,
252900,1861.4,12.2,78.3,240.2,466.0,3463.0,4.0,1,
253000,1861.1,12.8,78.2,240.1,466.0,3463.0,4.0,1,
253100,1859.9,12.5,78.2,239.9,466.0,3463.0,4.0,1,
253200,1860.6,13.2,78.2,240.1,466.0,3463.0,4.0,1,
253300,1860.2,13.7,78.2,240.3,466.0,3463.0,4.0,1,
253500,1857.3,71.7,85.8,35.0,320.0,2661.0,5.0,1,
253600,1857.8,63.2,85.9,28.6,349.0,2788.0,4.0,1,
253700,1839.4,120.1,85.3,29.0,355.0,2727.0,4.0,1,
253800,1886.3,67.9,84.5,30.0,471.0,3573.0,4.0,1,
253900,1856.6,174.3,89.8,34.3,537.0,3815.0,3.0,1,
254000,1845.0,68.5,88.5,35.4,575.0,4331.0,4.0,1,
254100,1856.1,15.1,88.8,35.7,575.0,4331.0,4.0,1,
254200,1860.1,13.8,88.7,35.6,575.0,4331.0,4.0,1,
254300,1861.8,10.6,88.8,36.8,575.0,4331.0,4.0,1,
254500,1861.0,13.4,88.7,239.9,575.0,4331.0,4.0,1,
254600,1861.0,13.8,88.8,240.1,575.0,4331.0,4.0,1,
254700,1858.9,11.2,88.8,240.0,575.0,4331.0,4.0,1,
254800,1861.2,12.7,88.8,239.7,575.0,4331.0,4.0,1,
254900,1859.9,13.3,88.8,239.8,575.0,4331.0,4.0,1,
255000,1861.6,163.8,88.8,240.0,575.0,4331.0,4.0,1,
255100,1853.9,64.4,86.8,40.0,288.0,2148.0,4.0,1,
255200,1881.9,160.3,89.5,28.4,303.0,2326.0,3.0,1,
255300,1850.0,151.9,105.2,29.2,343.0,2295.0,3.0,1,
255500,1851.4,205.3,109.6,29.7,297.0,2532.0,4.0,1,
255600,1855.4,58.6,107.4,29.7,384.0,2844.0,3.0,1,
255700,1866.1,14.2,106.9,29.8,452.0,3044.0,4.0,1,
255800,1858.1,13.5,106.8,28.3,452.0,3044.0,4.0,1,
255900,1861.6,10.7,106.9,29.0,452.0,3044.0,4.0,1,
256000,1861.2,10.8,106.9,56.1,452.0,3044.0,4.0,1,
256100,1861.4,10.9,106.9,240.1,452.0,3044.0,4.0,1,
256200,1860.9,11.9,106.9,240.0,452.0,3044.0,4.0,1,
256300,1860.7,13.2,106.9,240.1,452.0,3044.0,4.0,1,
256500,1859.7,10.7,106.9,240.1,452.0,3044.0,4.0,1,
256600,1860.5,11.9,106.8,240.2,452.0,3044.0,4.0,1,
256700,1878.4,63.6,101.9,226.7,336.0,2647.0,4.0,1,
256800,1860.8,62.9,102.5,28.4,345.0,2880.0,5.0,1,
256900,1839.7,122.5,84.7,29.1,353.0,2669.0,4.0,1,
257000,1863.4,69.6,81.8,30.1,427.0,3228.0,4.0,1,
257100,1875.6,90.4,77.6,29.8,471.0,3779.0,4.0,1,
257200,1859.5,59.3,68.8,29.7,469.0,3564.0,4.0,1,
257300,1850.1,22.2,70.0,34.8,455.0,3586.0,4.0,1,
257500,1862.7,11.1,70.1,47.3,455.0,3586.0,4.0,1,
257600,1861.7,11.1,70.1,57.0,455.0,3586.0,4.0,1,
257700,1860.8,12.2,70.1,237.4,455.0,3586.0,4.0,1,
257800,1862.7,12.8,70.2,240.0,455.0,3586.0,4.0,1,
257900,1860.0,11.5,70.1,240.1,455.0,3586.0,4.0,1,
258000,1859.3,11.6,70.1,240.1,455.0,3586.0,4.0,1,
258100,1860.8,12.8,70.1,240.2,455.0,3586.0,4.0,1,
258200,1860.1,12.6,70.1,240.4,455.0,3586.0,4.0,1,
258300,1862.2,62.0,69.3,239.5,315.0,2628.0,4.0,1,
258500,1860.8,124.1,87.2,28.9,286.0,2272.0,3.0,1,
258600,1872.0,43.2,83.7,28.9,340.0,2403.0,4.0,1,
258700,1845.5,185.9,82.8,28.7,354.0,2566.0,3.0,1,
258800,1849.0,89.3,89.6,29.2,349.0,2844.0,4.0,1,
258900,1872.3,18.3,88.9,28.1,390.0,2621.0,4.0,1,
259000,1861.0,12.3,88.8,27.8,390.0,2621.0,4.0,1,
259100,1861.3,12.5,88.8,28.4,390.0,2621.0,4.0,1,
259200,1862.4,11.1,88.8,30.2,390.0,2621.0,4.0,1,
259300,1863.0,13.0,88.9,239.9,390.0,2621.0,4.0,1,
259500,1861.1,11.8,88.9,240.2,390.0,2621.0,4.0,1,
259600,1861.0,14.0,89.0,240.1,390.0,2621.0,4.0,1,
259700,1860.6,11.1,89.0,240.3,390.0,2621.0,4.0,1,
259800,1860.4,11.2,89.0,240.3,390.0,2621.0,4.0,1,
259900,1880.5,65.7,86.8,240.0,361.0,2851.0,4.0,1,
260000,1869.1,93.6,87.2,167.7,382.0,2981.0,3.0,1,
260100,1835.3,86.4,74.3,36.8,398.0,3182.0,5.0,1,
260200,1864.9,46.6,73.4,36.0,352.0,2806.0,4.0,1,
260300,1861.5,171.1,69.2,39.1,400.0,2941.0,3.0,1,
260500,1851.2,26.3,66.2,34.6,430.0,3228.0,4.0,1,
260600,1860.6,12.3,66.2,29.9,430.0,3228.0,4.0,1,
260700,1862.0,11.8,66.3,30.1,430.0,3228.0,4.0,1,
260800,1860.0,13.3,66.2,36.4,430.0,3228.0,4.0,1,
260900,1860.7,12.0,66.1,230.3,430.0,3228.0,4.0,1,
261000,1861.4,11.8,66.1,239.8,430.0,3228.0,4.0,1,
261100,1861.3,12.3,66.1,239.5,430.0,3228.0,4.0,1,
261200,1861.7,10.2,66.1,239.8,430.0,3228.0,4.0,1,
261300,1863.1,12.3,66.2,240.0,430.0,3228.0,4.0,1,
261500,1870.7,52.0,66.3,240.1,334.0,2946.0,5.0,1,
261600,1857.2,59.9,66.3,238.4,398.0,3147.0,5.0,1,
261700,1859.1,110.1,78.8,37.4,377.0,2950.0,5.0,1,
261800,1883.6,55.6,76.9,34.9,440.0,3375.0,5.0,1,
261900,1848.9,197.8,87.6,29.6,560.0,4074.0,3.0,1,
262000,1847.9,45.4,85.2,29.9,597.0,3796.0,3.0,1,
262100,1871.6,39.2,85.0,34.7,664.0,3949.0,4.0,1,
262200,1865.4,30.5,85.7,34.4,664.0,3949.0,4.0,1,
262300,1860.4,12.4,85.8,35.8,664.0,3949.0,4.0,1,
262500,1861.8,12.2,85.8,82.0,664.0,3949.0,4.0,1,
262600,1863.1,13.1,85.8,190.2,664.0,3949.0,4.0,1,
262700,1861.0,11.4,85.8,240.0,664.0,3949.0,4.0,1,
262800,1861.1,10.5,85.8,240.3,664.0,3949.0,4.0,1,
262900,1861.8,11.9,85.8,240.3,664.0,3949.0,4.0,1,
263000,1860.9,14.1,85.8,240.4,664.0,3949.0,4.0,1,
263100,1872.3,53.2,85.9,240.1,664.0,3949.0,4.0,1,
263200,1874.5,73.7,85.9,165.2,309.0,2628.0,4.0,1,
263300,1841.2,86.9,77.6,46.5,344.0,2579.0,3.0,1,
263500,1857.0,202.0,70.1,52.3,340.0,2619.0,4.0,1,
263600,1869.5,59.3,68.3,44.4,561.0,3469.0,3.0,1,
263700,1877.2,34.2,67.5,35.5,430.0,2851.0,4.0,1,
263800,1843.9,12.3,66.6,34.6,430.0,2851.0,4.0,1,
263900,1860.7,12.2,66.3,34.4,430.0,2851.0,4.0,1,
264000,1862.5,12.4,66.3,41.5,430.0,2851.0,4.0,1,
264100,1860.6,13.0,66.3,238.1,430.0,2851.0,4.0,1,
264200,1860.9,11.4,66.2,240.2,430.0,2851.0,4.0,1,
264300,1861.5,11.2,66.2,240.1,430.0,2851.0,4.0,1,
264500,1858.8,10.3,66.2,240.0,430.0,2851.0,4.0,1,
264600,1861.2,12.1,66.1,240.2,430.0,2851.0,4.0,1,
264700,1860.3,10.0,66.1,240.0,430.0,2851.0,4.0,1,
264800,1874.0,104.4,65.7,239.5,310.0,2738.0,5.0,1,
264900,1837.7,88.5,67.4,43.0,330.0,2512.0,5.0,1,
265000,1885.8,51.1,65.5,36.0,309.0,2564.0,4.0,1,
265100,1857.0,72.4,65.4,36.7,376.0,2831.0,5.0,1,
265200,1853.7,60.6,53.3,36.3,489.0,3488.0,4.0,1,
265300,1867.4,81.9,53.9,44.2,463.0,2979.0,4.0,1,
265500,1861.5,12.2,55.7,35.6,463.0,2979.0,4.0,1,
265600,1862.7,13.0,55.7,37.6,463.0,2979.0,4.0,1,
265700,1859.7,10.6,55.7,123.6,463.0,2979.0,4.0,1,
265800,1859.9,11.8,55.6,239.8,463.0,2979.0,4.0,1,
265900,1860.2,12.7,55.6,239.5,463.0,2979.0,4.0,1,
266000,1860.3,12.4,55.6,239.5,463.0,2979.0,4.0,1,
266100,1860.8,11.4,55.6,239.9,463.0,2979.0,4.0,1,
266200,1860.3,15.1,55.7,240.0,463.0,2979.0,4.0,1,
266300,1859.7,11.6,55.7,240.0,463.0,2979.0,4.0,1,
266500,1860.9,74.6,57.8,45.5,329.0,2663.0,4.0,1,
266600,1865.1,45.5,55.9,39.3,287.0,2289.0,4.0,1,
266700,1842.3,131.8,56.1,39.5,360.0,2773.0,4.0,1,
266800,1863.8,60.2,57.4,37.8,379.0,2635.0,4.0,1,
266900,1879.5,62.1,57.1,36.8,357.0,2545.0,5.0,1,
267000,1843.3,18.0,55.9,29.8,350.0,2558.0,5.0,1,
267100,1858.8,10.9,55.8,29.9,350.0,2558.0,5.0,1,
267200,1861.7,9.9,55.8,35.5,350.0,2558.0,5.0,1,
267300,1860.1,10.9,55.7,82.0,350.0,2558.0,5.0,1,
267500,1860.3,12.4,55.8,240.1,350.0,2558.0,5.0,1,
267600,1860.2,12.5,55.8,240.1,350.0,2558.0,5.0,1,
267700,1859.6,12.1,55.7,240.3,350.0,2558.0,5.0,1,
267800,1860.5,11.3,55.7,240.4,350.0,2558.0,5.0,1,
267900,1861.7,12.1,55.8,240.3,350.0,2558.0,5.0,1,
268000,1867.0,74.9,57.1,240.2,314.0,2757.0,4.0,1,
268100,1841.1,76.4,61.7,124.2,419.0,3439.0,4.0,1,
268200,1870.3,65.8,61.4,51.2,395.0,3053.0,5.0,1,
268300,1864.2,116.6,63.0,47.8,458.0,3540.0,5.0,1,
268500,1848.2,135.4,63.1,52.9,546.0,3533.0,3.0,1,
268600,1850.1,41.9,75.4,36.7,538.0,3393.0,3.0,1,
268700,1859.5,12.0,75.4,34.2,538.0,3393.0,3.0,1,
268800,1861.0,11.7,75.5,30.0,538.0,3393.0,3.0,1,
268900,1862.2,11.7,75.5,29.5,538.0,3393.0,3.0,1,
269000,1861.0,9.7,75.5,71.2,538.0,3393.0,3.0,1,
269100,1860.0,11.1,75.4,240.0,538.0,3393.0,3.0,1,
269200,1863.2,12.7,75.5,240.2,538.0,3393.0,3.0,1,
269300,1859.9,12.9,75.5,240.4,538.0,3393.0,3.0,1,
269500,1860.8,13.4,75.6,240.2,538.0,3393.0,3.0,1,
269600,1860.6,125.9,75.6,240.1,274.0,2537.0,6.0,1,
269700,1862.0,83.5,72.6,144.5,365.0,2977.0,4.0,1,
269800,1878.4,56.1,71.8,78.8,322.0,2594.0,4.0,1,
269900,1839.2,164.4,79.6,70.0,381.0,2873.0,3.0,1,
270000,1857.0,50.8,78.1,39.9,444.0,3040.0,4.0,1,
270100,1870.9,69.3,76.6,35.5,440.0,3179.0,4.0,1,
270200,1848.8,42.8,67.1,30.2,617.0,3530.0,4.0,1,
270300,1861.4,14.5,67.0,38.9,617.0,3530.0,4.0,1,
270500,1860.8,10.8,67.0,66.9,617.0,3530.0,4.0,1,
