Time(ms),Raw_ADC
0,1842
1,1872
2,1854
3,1857
4,1885
5,1891
6,1855
7,1840
8,1855
9,1871
10,1869
11,1858
12,1853
13,1862
14,1851
15,1852
16,1845
17,1850
18,1851
19,1846
20,1849
21,1845
22,1887
23,1871
24,1862
25,1857
26,1901
27,1862
28,1858
29,1862
30,1911
31,1867
32,1858
33,1849
34,1865
35,1865
36,1845
37,1826
38,1843
39,1868
40,1866
41,1860
42,1873
43,1874
44,1859
45,1859
46,1851
47,1882
48,1865
49,1855
50,1841
51,1857
52,1853
53,1850
54,1846
55,1856
56,1867
57,1856
58,1852
59,1879
60,1871
61,1861
62,1859
63,1872
64,1872
65,1856
66,1851
67,1827
68,1856
69,1850
70,1855
71,1856
72,1875
73,1871
74,1859
75,1874
76,1857
77,1866
78,1858
79,1858
80,1867
81,1866
82,1850
83,1847
84,1853
85,1850
86,1843
87,1843
88,1850
89,1872
90,1857
91,1860
92,1901
93,1889
94,1868
95,1887
96,1894
97,1945
98,1920
99,1891
100,1872
101,1822
102,1820
103,1787
104,1763
105,1792
106,1837
107,1846
108,1834
109,1879
110,1872
111,1856
112,1857
113,1837
114,1838
115,1835
116,1843
117,1840
118,1852
119,1840
120,1841
121,1834
122,1861
123,1872
124,1852
125,1861
126,1873
127,1874
128,1863
129,1872
130,1893
131,1871
132,1847
133,1853
134,1862
135,1855
136,1842
137,1850
138,1862
139,1873
140,1865
141,1858
142,1863
143,1885
144,1861
145,1853
146,1854
147,1856
148,1851
149,1845
150,1840
151,1852
152,1851
153,1847
154,1871
155,1872
156,1872
157,1873
158,1875
159,1895
160,1873
161,1863
162,1857
163,1851
164,1861
165,1841
166,1828
167,1876
168,1872
169,1855
170,1863
171,1863
172,1889
173,1882
174,1876
175,1862
176,1876
177,1840
178,1819
179,1834
180,1853
181,1870
182,1855
183,1851
184,1855
185,1847
186,1822
187,1823
188,1858
189,1879
190,1862
191,1863
192,1869
193,1875
194,1862
195,1856
196,1855
197,1861
198,1863
199,1855
200,1857
201,1869
202,1845
203,1840
204,1873
205,1861
206,1869
207,1856
208,1857
209,1867
210,1868
211,1857
212,1852
213,1873
214,1885
215,1858
216,1853
217,1842
218,1872
219,1853
220,1857
221,1858
222,1881
223,1867
224,1843
225,1836
226,1884
227,1866
228,1865
229,1879
230,1865
231,1873
232,1855
233,1867
234,1856
235,1839
236,1845
237,1849
238,1865
239,1888
240,1882
241,1867
242,1871
243,1849
244,1830
245,1831
246,1844
247,1899
248,1854
249,1851
250,1857
251,1872
252,1854
253,1851
254,1862
255,1859
256,1872
257,1861
258,1858
259,1872
260,1873
261,1865
262,1863
263,1882
264,1875
265,1849
266,1837
267,1841
268,1846
269,1840
270,1843
271,1863
272,1874
273,1871
274,1861
275,1885
276,1872
277,1872
278,1859
279,1869
280,1904
281,1872
282,1859
283,1851
284,1862
285,1861
286,1845
287,1840
288,1843
289,1861
290,1855
291,1855
292,1866
293,1881
294,1862
295,1853
296,1856
297,1856
298,1855
299,1845
300,1855
301,1837
302,1851
303,1846
304,1846
305,1873
306,1879
307,1861
308,1863
309,1858
310,1872
311,1861
312,1856
313,1869
314,1876
315,1854
316,1853
317,1869
318,1862
319,1853
320,1851
321,1863
322,1876
323,1873
324,1872
325,1859
326,1870
327,1852
328,1838
329,1872
330,1876
331,1863
332,1847
333,1840
334,1840
335,1856
336,1846
337,1840
338,1850
339,1878
340,1855
341,1857
342,1865
343,1880
344,1870
345,1862
346,1874
347,1889
348,1873
349,1859
350,1854
351,1859
352,1843
353,1840
354,1823
355,1828
356,1853
357,1843
358,1847
359,1855
360,1866
361,1854
362,1845
363,1872
364,1900
365,1871
366,1875
367,1904
368,1907
369,1905
370,1904
371,1915
372,1915
373,1846
374,1787
375,1771
376,1783
377,1808
378,1821
379,1838
380,1869
381,1862
382,1855
383,1850
384,1844
385,1854
386,1843
387,1846
388,1851
389,1863
390,1867
391,1863
392,1878
393,1875
394,1867
395,1860
396,1866
397,1881
398,1858
399,1854
400,1853
401,1844
402,1855
403,1841
404,1845
405,1885
406,1872
407,1863
408,1859
409,1873
410,1878
411,1858
412,1860
413,1882
414,1892
415,1850
416,1839
417,1854
418,1878
419,1847
420,1840
421,1870
422,1878
423,1871
424,1856
425,1859
426,1872
427,1867
428,1858
429,1861
430,1841
431,1870
432,1849
433,1850
434,1879
435,1856
436,1844
437,1847
438,1861
439,1872
440,1865
441,1865
442,1840
443,1871
444,1867
445,1855
446,1841
447,1895
448,1852
449,1842
450,1840
451,1861
452,1857
453,1845
454,1859
455,1873
456,1867
457,1843
458,1857
459,1885
460,1872
461,1860
462,1863
463,1875
464,1882
465,1860
466,1844
467,1840
468,1879
469,1851
470,1849
471,1838
472,1862
473,1872
474,1863
475,1859
476,1870
477,1855
478,1850
479,1851
480,1872
481,1868
482,1855
483,1850
484,1856
485,1854
486,1843
487,1850
488,1853
489,1910
490,1867
491,1860
492,1873
493,1866
494,1861
495,1857
496,1849
497,1872
498,1860
499,1851
500,1859
501,1846
502,1841
503,1839
504,1858
505,1821
506,1870
507,1856
508,1851
509,1865
510,1861
511,1847
512,1846
513,1875
514,1870
515,1856
516,1852
517,1866
518,1853
519,1843
520,1840
521,1856
522,1829
523,1862
524,1865
525,1857
526,1863
527,1865
528,1857
529,1865
530,1867
531,1867
532,1847
533,1842
534,1846
535,1853
536,1838
537,1839
538,1846
539,1841
540,1862
541,1859
542,1859
543,1879
544,1855
545,1853
546,1855
547,1876
548,1859
549,1846
550,1849
551,1870
552,1849
553,1840
554,1855
555,1830
556,1879
557,1860
558,1873
559,1872
560,1870
561,1856
562,1852
563,1859
564,1866
565,1846
566,1840
567,1842
568,1871
569,1846
570,1846
571,1856
572,1858
573,1869
574,1855
575,1865
576,1877
577,1872
578,1863
579,1855
580,1901
581,1874
582,1847
583,1843
584,1822
585,1840
586,1837
587,1842
588,1874
589,1873
590,1860
591,1855
592,1874
593,1859
594,1863
595,1857
596,1860
597,1843
598,1850
599,1845
600,1841
601,1861
602,1847
603,1840
604,1838
605,1861
606,1877
607,1871
608,1870
609,1898
610,1886
611,1857
612,1840
613,1840
614,1871
615,1845
616,1841
617,1849
618,1866
619,1845
620,1840
621,1839
622,1876
623,1861
624,1851
625,1855
626,1872
627,1859
628,1855
629,1855
630,1865
631,1862
632,1843
633,1843
634,1859
635,1866
636,1842
637,1841
638,1857
639,1856
640,1866
641,1857
642,1854
643,1872
644,1859
645,1856
646,1860
647,1867
648,1868
649,1851
650,1853
651,1861
652,1854
653,1850
654,1854
655,1872
656,1868
657,1863
658,1865
659,1895
660,1866
661,1866
662,1867
663,1894
664,1872
665,1861
666,1840
667,1838
668,1863
669,1840
670,1835
671,1859
672,1905
673,1869
674,1861
675,1872
676,1873
677,1866
678,1856
679,1859
680,1895
681,1871
682,1854
683,1853
684,1872
685,1856
686,1840
687,1843
688,1863
689,1905
690,1864
691,1856
692,1871
693,1882
694,1867
695,1861
696,1873
697,1918
698,1861
699,1856
700,1862
701,1856
702,1856
703,1842
704,1845
705,1853
706,1872
707,1865
708,1863
709,1873
710,1872
711,1868
712,1861
713,1863
714,1871
715,1838
716,1841
717,1854
718,1844
719,1840
720,1835
721,1840
722,1872
723,1872
724,1862
725,1862
726,1881
727,1870
728,1854
729,1854
730,1875
731,1872
732,1853
733,1854
734,1871
735,1870
736,1849
737,1855
738,1877
739,1868
740,1856
741,1856
742,1855
743,1872
744,1865
745,1853
746,1856
747,1885
748,1865
749,1845
750,1855
751,1856
752,1850
753,1843
754,1855
755,1841
756,1876
757,1859
758,1875
759,1880
760,1872
761,1862
762,1855
763,1865
764,1915
765,1859
766,1851
767,1853
768,1849
769,1850
770,1845
771,1846
772,1866
773,1869
774,1859
775,1878
776,1737
777,2138
778,2122
779,2167
780,2204
781,2223
782,2176
783,2099
784,1995
785,1897
786,1733
787,1579
788,1515
789,1556
790,1590
791,1623
792,1682
793,1716
794,1744
795,1766
796,1802
797,1809
798,1812
799,1810
800,1829
801,1840
802,1840
803,1847
804,1861
805,1863
806,1898
807,1219
808,2164
809,2143
810,2228
811,2208
812,2214
813,2206
814,2159
815,2047
816,1917
817,1776
818,1601
819,1495
820,1529
821,1584
822,1670
823,1696
824,1728
825,1759
826,1811
827,1807
828,1812
829,1840
830,1852
831,1869
832,1860
833,1872
834,1882
835,1885
836,1872
837,1882
838,705
839,2226
840,2097
841,2135
842,2142
843,2207
844,2173
845,2145
846,2091
847,2006
848,1831
849,1626
850,1589
851,1590
852,1615
853,1651
854,1675
855,1726
856,1749
857,1777
858,1799
859,1821
860,1863
861,1856
862,1871
863,1898
864,1903
865,1881
866,1877
867,1883
868,1903
869,576
870,2192
871,2043
872,2080
873,2109
874,2127
875,2163
876,2205
877,2166
878,2087
879,1872
880,1678
881,1610
882,1591
883,1610
884,1625
885,1653
886,1675
887,1713
888,1763
889,1862
890,1824
891,1841
892,1840
893,1878
894,1877
895,1869
896,1870
897,1904
898,1885
899,1872
900,1488
901,2201
902,2079
903,2075
904,2097
905,2122
906,2187
907,2171
908,2141
909,2045
910,1823
911,1637
912,1599
913,1616
914,1637
915,1635
916,1662
917,1691
918,1767
919,1765
920,1796
921,1807
922,1872
923,1872
924,1870
925,1873
926,1888
927,1878
928,1879
929,1882
930,1881
931,1910
932,2081
933,2093
934,2093
935,2122
936,2119
937,2160
938,2163
939,2151
940,1997
941,1751
942,1657
943,1665
944,1623
945,1606
946,1638
947,1712
948,1734
949,1746
950,1773
951,1799
952,1837
953,1839
954,1856
955,1877
956,1909
957,1885
958,1883
959,1904
960,1904
961,1888
962,1889
963,1959
964,2163
965,2189
966,2196
967,2193
968,2224
969,2173
970,2082
971,1920
972,1715
973,1584
974,1585
975,1571
976,1591
977,1648
978,1686
979,1726
980,1750
981,1823
982,1804
983,1826
984,1846
985,1879
986,1856
987,1867
988,1881
989,1895
990,1898
991,1894
992,1904
993,1891
994,1422
995,2167
996,2195
997,2259
998,2221
999,2215
1000,2175
1001,2074
1002,1904
1003,1658
1004,1530
1005,1535
1006,1563
1007,1567
1008,1626
1009,1683
1010,1744
1011,1761
1012,1785
1013,1846
1014,1861
1015,1849
1016,1859
1017,1862
1018,1889
1019,1878
1020,1873
1021,1911
1022,1894
1023,1907
1024,1894
1025,981
1026,2206
1027,2203
1028,2234
1029,2212
1030,2240
1031,2215
1032,2066
1033,1894
1034,1650
1035,1535
1036,1535
1037,1535
1038,1569
1039,1660
1040,1710
1041,1742
1042,1779
1043,1827
1044,1827
1045,1839
1046,1856
1047,1879
1048,1890
1049,1885
1050,1879
1051,1907
1052,1899
1053,1885
1054,1885
1055,1879
1056,398
1057,2228
1058,2151
1059,2230
1060,2214
1061,2211
1062,2195
1063,2101
1064,1986
1065,1685
1066,1586
1067,1606
1068,1565
1069,1586
1070,1641
1071,1721
1072,1749
1073,1786
1074,1803
1075,1822
1076,1857
1077,1872
1078,1872
1079,1883
1080,1898
1081,1904
1082,1872
1083,1883
1084,1904
1085,1905
1086,1891
1087,1121
1088,2214
1089,2139
1090,2179
1091,2164
1092,2171
1093,2210
1094,2101
1095,1954
1096,1744
1097,1670
1098,1654
1099,1600
1100,1600
1101,1655
1102,1710
1103,1732
1104,1764
1105,1791
1106,1840
1107,1840
1108,1855
1109,1861
1110,1904
1111,1887
1112,1893
1113,1905
1114,1941
1115,1893
1116,1882
1117,1879
1118,1884
1119,2130
1120,2109
1121,2174
1122,2155
1123,2181
1124,2190
1125,2096
1126,1970
1127,1775
1128,1675
1129,1663
1130,1602
1131,1642
1132,1653
1133,1701
1134,1713
1135,1762
1136,1779
1137,1799
1138,1811
1139,1872
1140,1867
1141,1872
1142,1897
1143,1904
1144,1897
1145,1894
1146,1898
1147,1910
1148,1894
1149,1875
1150,1936
1151,2141
1152,2159
1153,2143
1154,2145
1155,2186
1156,2103
1157,1981
1158,1776
1159,1683
1160,1693
1161,1632
1162,1621
1163,1673
1164,1779
1165,1741
1166,1767
1167,1782
1168,1810
1169,1823
1170,1840
1171,1871
1172,1904
1173,1905
1174,1874
1175,1871
1176,1895
1177,1898
1178,1889
1179,1892
1180,1900
1181,1609
1182,2151
1183,2155
1184,2187
1185,2145
1186,2179
1187,2098
1188,1966
1189,1804
1190,1673
1191,1653
1192,1651
1193,1663
1194,1667
1195,1712
1196,1742
1197,1772
1198,1794
1199,1799
1200,1841
1201,1860
1202,1873
1203,1872
1204,1862
1205,1875
1206,1854
1207,1869
1208,1872
1209,1887
1210,1889
1211,1886
1212,954
1213,2192
1214,2160
1215,2188
1216,2165
1217,2152
1218,2122
1219,1970
1220,1793
1221,1658
1222,1664
1223,1616
1224,1605
1225,1671
1226,1734
1227,1767
1228,1767
1229,1776
1230,1826
1231,1824
1232,1847
1233,1863
1234,1858
1235,1891
1236,1872
1237,1862
1238,1877
1239,1910
1240,1904
1241,1890
1242,1894
1243,501
1244,2203
1245,2138
1246,2180
1247,2177
1248,2182
1249,2112
1250,1975
1251,1836
1252,1691
1253,1648
1254,1627
1255,1621
1256,1673
1257,1719
1258,1744
1259,1767
1260,1802
1261,1810
1262,1827
1263,1839
1264,1859
1265,1878
1266,1872
1267,1898
1268,1879
1269,1878
1270,1873
1271,1870
1272,1885
1273,1904
1274,731
1275,2215
1276,2127
1277,2192
1278,2161
1279,2171
1280,2146
1281,2032
1282,1849
1283,1694
1284,1649
1285,1649
1286,1607
1287,1625
1288,1697
1289,1776
1290,1776
1291,1790
1292,1814
1293,1846
1294,1855
1295,1865
1296,1873
1297,1874
1298,1899
1299,1873
1300,1872
1301,1900
1302,1888
1303,1872
1304,1872
1305,1398
1306,2235
1307,2123
1308,2151
1309,2157
1310,2135
1311,2133
1312,2014
1313,1904
1314,1793
1315,1687
1316,1659
1317,1641
1318,1680
1319,1699
1320,1729
1321,1754
1322,1786
1323,1808
1324,1811
1325,1838
1326,1849
1327,1875
1328,1877
1329,1887
1330,1870
1331,1883
1332,1874
1333,1878
1334,1887
1335,1899
1336,1870
1337,2041
1338,2107
1339,2198
1340,2154
1341,2145
1342,2159
1343,2064
1344,1893
1345,1749
1346,1697
1347,1669
1348,1660
1349,1650
1350,1683
1351,1737
1352,1758
1353,1762
1354,1785
1355,1809
1356,1849
1357,1856
1358,1867
1359,1895
1360,1873
1361,1886
1362,1882
1363,1883
1364,1895
1365,1886
1366,1872
1367,1858
1368,1789
1369,2149
1370,2147
1371,2150
1372,2159
1373,2165
1374,2063
1375,1918
1376,1805
1377,1706
1378,1658
1379,1639
1380,1685
1381,1740
1382,1728
1383,1741
1384,1767
1385,1776
1386,1798
1387,1813
1388,1840
1389,1900
1390,1884
1391,1878
1392,1882
1393,1904
1394,1898
1395,1888
1396,1886
1397,1903
1398,1893
1399,1874
1400,1872
1401,1856
1402,1877
1403,1867
1404,1861
1405,1878
1406,1884
1407,1868
1408,1867
1409,1870
1410,1883
1411,1872
1412,1866
1413,1869
1414,1872
1415,1860
1416,1838
1417,1840
1418,1861
1419,1850
1420,1840
1421,1863
1422,1855
1423,1873
1424,1858
1425,1863
1426,1866
1427,1872
1428,1859
1429,1871
1430,1899
1431,1871
1432,1851
1433,1837
1434,1830
1435,1850
1436,1861
1437,1870
1438,1833
1439,1853
1440,1845
1441,1840
1442,1853
1443,1895
1444,1872
1445,1862
1446,1856
1447,1846
1448,1870
1449,1850
1450,1851
1451,1865
1452,1860
1453,1849
1454,1848
1455,1897
1456,1904
1457,1887
1458,1879
1459,1886
1460,1903
1461,1874
1462,1850
1463,1838
1464,1887
1465,1843
1466,1837
1467,1855
1468,1869
1469,1862
1470,1842
1471,1872
1472,1872
1473,1873
1474,1840
1475,1839
1476,1864
1477,1881
1478,1869
1479,1872
1480,1878
1481,1865
1482,1845
1483,1845
1484,1856
1485,1858
1486,1868
1487,1843
1488,1845
1489,1872
1490,1835
1491,1837
1492,1851
1493,1902
1494,1902
1495,1889
1496,1877
1497,1854
1498,1836
1499,1821
1500,1844
1501,1858
1502,1865
1503,1835
1504,1840
1505,1851
1506,1865
1507,1851
1508,1833
1509,1842
1510,1856
1511,1861
1512,1860
1513,1869
1514,1866
1515,1867
1516,1851
1517,1846
1518,1898
1519,1893
1520,1899
1521,1899
1522,1873
1523,1825
1524,1775
1525,1798
1526,1807
1527,1854
1528,1847
1529,1849
1530,1870
1531,1874
1532,1856
1533,1860
1534,1873
1535,1872
1536,1863
1537,1843
1538,1853
1539,1835
1540,1851
1541,1855
1542,1869
1543,1878
1544,1872
1545,1861
1546,1858
1547,1889
1548,1903
1549,1878
1550,1858
1551,1840
1552,1843
1553,1824
1554,1834
1555,1840
1556,1872
1557,1853
1558,1845
1559,1872
1560,1872
1561,1872
1562,1870
1563,1868
1564,1901
1565,1867
1566,1863
1567,1866
1568,1913
1569,1878
1570,1851
1571,1857
1572,1840
1573,1830
1574,1837
1575,1847
1576,1841
1577,1857
1578,1856
1579,1849
1580,1872
1581,1869
1582,1854
1583,1845
1584,1854
1585,1872
1586,1847
1587,1847
1588,1842
1589,1853
1590,1871
1591,1843
1592,1849
1593,1872
1594,1871
1595,1861
1596,1866
1597,1878
1598,1867
1599,1856
1600,1841
1601,1856
1602,1863
1603,1834
1604,1812
1605,1834
1606,1854
1607,1865
1608,1862
1609,1871
1610,1872
1611,1858
1612,1854
1613,1870
1614,1873
1615,1855
1616,1841
1617,1842
1618,1867
1619,1846
1620,1840
1621,1840
1622,1872
1623,1877
1624,1856
1625,1868
1626,1872
1627,1853
1628,1857
1629,1855
1630,1835
1631,1879
1632,1856
1633,1850
1634,1881
1635,1849
1636,1842
1637,1846
1638,1843
1639,1838
1640,1867
1641,1856
1642,1872
1643,1903
1644,1866
1645,1853
1646,1831
1647,1858
1648,1862
1649,1837
1650,1851
1651,1840
1652,1851
1653,1840
1654,1845
1655,1849
1656,1885
1657,1867
1658,1857
1659,1871
1660,1879
1661,1863
1662,1856
1663,1857
1664,1872
1665,1863
1666,1847
1667,1851
1668,1865
1669,1852
1670,1842
1671,1855
1672,1871
1673,1871
1674,1858
1675,1855
1676,1862
1677,1885
1678,1859
1679,1846
1680,1855
1681,1880
1682,1851
1683,1840
1684,1851
1685,1857
1686,1843
1687,1844
1688,1853
1689,1872
1690,1869
1691,1858
1692,1853
1693,1870
1694,1869
1695,1861
1696,1862
1697,1872
1698,1872
1699,1849
1700,1842
1701,1833
1702,1846
1703,1834
1704,1845
1705,1847
1706,1840
1707,1855
1708,1850
1709,1855
1710,1901
1711,1860
1712,1856
1713,1863
1714,1869
1715,1861
1716,1840
1717,1850
1718,1877
1719,1852
1720,1835
1721,1851
1722,1853
1723,1877
1724,1856
1725,1861
1726,1902
1727,1872
1728,1857
1729,1861
1730,1855
1731,1877
1732,1854
1733,1843
1734,1850
1735,1862
1736,1845
1737,1840
1738,1858
1739,1835
1740,1866
1741,1858
1742,1856
1743,1898
1744,1879
1745,1882
1746,1886
1747,1879
1748,1895
1749,1850
1750,1827
1751,1827
1752,1841
1753,1840
1754,1840
1755,1842
1756,1863
1757,1865
1758,1869
1759,1861
1760,1860
1761,1853
1762,1855
1763,1871
1764,1879
1765,1857
1766,1840
1767,1842
1768,1885
1769,1849
1770,1839
1771,1841
1772,1866
1773,1899
1774,1875
1775,1902
1776,1927
1777,1936
1778,1919
1779,1918
1780,1899
1781,1840
1782,1739
1783,1783
1784,1802
1785,1870
1786,1841
1787,1841
1788,1850
1789,1862
1790,1872
1791,1863
1792,1861
1793,1858
1794,1872
1795,1851
1796,1854
1797,1869
1798,1861
1799,1855
1800,1855
1801,1854
1802,1856
1803,1854
1804,1851
1805,1840
1806,1856
1807,1870
1808,1865
1809,1866
1810,1872
1811,1869
1812,1862
1813,1872
1814,1879
1815,1870
1816,1856
1817,1841
1818,1863
1819,1851
1820,1840
1821,1841
1822,1856
1823,1867
1824,1858
1825,1858
1826,1858
1827,1865
1828,1855
1829,1857
1830,1865
1831,1873
1832,1853
1833,1852
1834,1856
1835,1854
1836,1851
1837,1847
1838,1856
1839,1899
1840,1873
1841,1864
1842,1865
1843,1877
1844,1872
1845,1858
1846,1861
1847,1872
1848,1873
1849,1854
1850,1841
1851,1837
1852,1872
1853,1844
1854,1852
1855,1852
1856,1873
1857,1863
1858,1853
1859,1873
1860,1872
1861,1865
1862,1856
1863,1869
1864,1857
1865,1865
1866,1850
1867,1854
1868,1847
1869,1854
1870,1844
1871,1850
1872,1869
1873,1877
1874,1859
1875,1855
1876,1847
1877,1882
1878,1862
1879,1857
1880,1857
1881,1870
1882,1858
1883,1849
1884,1847
1885,1855
1886,1853
1887,1843
1888,1847
1889,1905
1890,1871
1891,1855
1892,1857
1893,1861
1894,1857
1895,1852
1896,1852
1897,1862
1898,1866
1899,1856
1900,1856
1901,1859
1902,1884
1903,1856
1904,1842
1905,1838
1906,1875
1907,1856
1908,1857
1909,1867
1910,1887
1911,1860
1912,1847
1913,1866
1914,1874
1915,1857
1916,1840
1917,1840
1918,1863
1919,1851
1920,1840
1921,1843
1922,1868
1923,1872
1924,1863
1925,1859
1926,1856
1927,1873
1928,1859
1929,1860
1930,1854
1931,1861
1932,1856
1933,1852
1934,1853
1935,1847
1936,1853
1937,1848
1938,1870
1939,1856
1940,1872
1941,1856
1942,1862
1943,1879
1944,1872
1945,1856
1946,1856
1947,1876
1948,1877
1949,1857
1950,1861
1951,1859
1952,1872
1953,1840
1954,1845
1955,1872
1956,1895
1957,1888
1958,1876
1959,1872
1960,1883
1961,1872
1962,1850
1963,1840
1964,1851
1965,1840
1966,1813
1967,1815
1968,1867
1969,1840
1970,1840
1971,1849
1972,1856
1973,1876
1974,1863
1975,1856
1976,1867
1977,1869
1978,1856
1979,1843
1980,1856
1981,1901
1982,1856
1983,1843
1984,1865
1985,1867
1986,1853
1987,1845
1988,1838
1989,1869
1990,1873
1991,1870
1992,1869
1993,1877
1994,1872
1995,1863
1996,1861
1997,1876
1998,1883
1999,1856
2000,1851
2001,1886
2002,1869
2003,1849
2004,1847
2005,1858
2006,1887
2007,1868
2008,1859
2009,1840
2010,1869
2011,1870
2012,1858
2013,1872
2014,1872
2015,1872
2016,1857
2017,1846
2018,1883
2019,1855
2020,1851
2021,1847
2022,1845
2023,1871
2024,1856
2025,1856
2026,1881
2027,1876
2028,1859
2029,1863
2030,1865
2031,1896
2032,1857
2033,1853
2034,1849
2035,1847
2036,1839
2037,1839
2038,1862
2039,1891
2040,1874
2041,1866
2042,1860
2043,1877
2044,1863
2045,1856
2046,1856
2047,1871
2048,1917
2049,1871
2050,1869
2051,1869
2052,1879
2053,1854
2054,1855
2055,1841
2056,1868
2057,1859
2058,1840
2059,1855
2060,1872
2061,1853
2062,1841
2063,1845
2064,1904
2065,1863
2066,1841
2067,1847
2068,1871
2069,1851
2070,1842
2071,1846
2072,1850
2073,1883
2074,1863
2075,1863
2076,1872
2077,1871
2078,1860
2079,1857
2080,1872
2081,1865
2082,1859
2083,1851
2084,1845
2085,1857
2086,1855
2087,1845
2088,1845
2089,1863
2090,1877
2091,1861
2092,1858
2093,1867
2094,1870
2095,1857
2096,1855
2097,1859
2098,1858
2099,1842
2100,1841
2101,1846
2102,1856
2103,1850
2104,1846
2105,1872
2106,1909
2107,1871
2108,1856
2109,1859
2110,1882
2111,1872
2112,1866
2113,1847
2114,1895
2115,1862
2116,1840
2117,1835
2118,1838
2119,1858
2120,1840
2121,1846
2122,1858
2123,1841
2124,1857
2125,1855
2126,1863
2127,1877
2128,1856
2129,1861
2130,1876
2131,1882
2132,1857
2133,1846
2134,1853
2135,1861
2136,1852
2137,1845
2138,1851
2139,1872
2140,1877
2141,1858
2142,1866
2143,1888
2144,1873
2145,1862
2146,1858
2147,1873
2148,1887
2149,1855
2150,1838
2151,1840
2152,1863
2153,1841
2154,1850
2155,1855
2156,1856
2157,1861
2158,1860
2159,1857
2160,1900
2161,1856
2162,1857
2163,1869
2164,1873
2165,1872
2166,1856
2167,1840
2168,1852
2169,1858
2170,1851
2171,1855
2172,1857
2173,1875
2174,1860
2175,1847
2176,1855
2177,1879
2178,1866
2179,1857
2180,1865
2181,1874
2182,1861
2183,1851
2184,1850
2185,1857
2186,1840
2187,1835
2188,1866
2189,1856
2190,1869
2191,1860
2192,1851
2193,1863
2194,1867
2195,1859
2196,1856
2197,1859
2198,1872
2199,1854
2200,1846
2201,1855
2202,1872
2203,1843
2204,1845
2205,1857
2206,1853
2207,1871
2208,1860
2209,1871
2210,1882
2211,1869
2212,1856
2213,1851
2214,1888
2215,1861
2216,1831
2217,1808
2218,1829
2219,1842
2220,1826
2221,1835
2222,1842
2223,1863
2224,1856
2225,1844
2226,1828
2227,1867
2228,1852
2229,1850
2230,1862
2231,1903
2232,1851
2233,1837
2234,1839
2235,1854
2236,1849
2237,1840
2238,1855
2239,1859
2240,1872
2241,1857
2242,1861
2243,1875
2244,1877
2245,1855
2246,1839
2247,1831
2248,1857
2249,1833
2250,1840
2251,1838
2252,1861
2253,1840
2254,1840
2255,1834
2256,1904
2257,1863
2258,1856
2259,1856
2260,1862
2261,1856
2262,1852
2263,1857
2264,1854
2265,1862
2266,1846
2267,1843
2268,1873
2269,1855
2270,1841
2271,1843
2272,1875
2273,1876
2274,1859
2275,1855
2276,1845
2277,1875
2278,1854
2279,1858
2280,1866
2281,1915
2282,1858
2283,1847
2284,1850
2285,1861
2286,1851
2287,1846
2288,1840
2289,1877
2290,1872
2291,1857
2292,1855
2293,1875
2294,1871
2295,1858
2296,1856
2297,1865
2298,1889
2299,1855
2300,1847
2301,1858
2302,1840
2303,1845
2304,1850
2305,1845
2306,1878
2307,1863
2308,1853
2309,1858
2310,1873
2311,1861
2312,1856
2313,1866
2314,1868
2315,1869
2316,1853
2317,1859
2318,1852
2319,1870
2320,1863
2321,1869
2322,1888
2323,1901
2324,1888
2325,1873
2326,1869
2327,1870
2328,1831
2329,1827
2330,1846
2331,1865
2332,1854
2333,1850
2334,1855
2335,1855
2336,1838
2337,1839
2338,1852
2339,1857
2340,1878
2341,1874
2342,1871
2343,1888
2344,1866
2345,1855
2346,1856
2347,1867
2348,1872
2349,1860
2350,1853
2351,1851
2352,1856
2353,1851
2354,1850
2355,1853
2356,1862
2357,1872
2358,1857
2359,1863
2360,1877
2361,1868
2362,1856
2363,1853
2364,1874
2365,1861
2366,1842
2367,1840
2368,1853
2369,1858
2370,1834
2371,1851
2372,1869
2373,1885
2374,1861
2375,1854
2376,1858
2377,1872
2378,1863
2379,1856
2380,1871
2381,1867
2382,1857
2383,1845
2384,1846
2385,1857
2386,1852
2387,1845
2388,1845
2389,1850
2390,1877
2391,1856
2392,1857
2393,1861
2394,1872
2395,1841
2396,2047
2397,2062
2398,2108
2399,2095
2400,2099
2401,2125
2402,2121
2403,2064
2404,1979
2405,1872
2406,1814
2407,1731
2408,1678
2409,1649
2410,1663
2411,1629
2412,1654
2413,1709
2414,1758
2415,1777
2416,1786
2417,1801
2418,1811
2419,1842
2420,1819
2421,1822
2422,1840
2423,1867
2424,1865
2425,1863
2426,1872
2427,2015
2428,2094
2429,2074
2430,2064
2431,2082
2432,2105
2433,2102
2434,2067
2435,1986
2436,1904
2437,1840
2438,1744
2439,1662
2440,1661
2441,1637
2442,1671
2443,1739
2444,1766
2445,1778
2446,1797
2447,1847
2448,1865
2449,1845
2450,1839
2451,1856
2452,1844
2453,1859
2454,1856
2455,1859
2456,1875
2457,1888
2458,1499
2459,2109
2460,2138
2461,2115
2462,2113
2463,2135
2464,2148
2465,2100
2466,1980
2467,1901
2468,1803
2469,1701
2470,1595
2471,1575
2472,1609
2473,1691
2474,1712
2475,1741
2476,1776
2477,1813
2478,1830
2479,1845
2480,1856
2481,1889
2482,1872
2483,1867
2484,1879
2485,1882
2486,1872
2487,1866
2488,1865
2489,859
2490,2176
2491,2110
2492,2080
2493,2077
2494,2139
2495,2160
2496,2103
2497,1971
2498,1939
2499,1805
2500,1629
2501,1573
2502,1622
2503,1635
2504,1685
2505,1734
2506,1792
2507,1807
2508,1831
2509,1849
2510,1866
2511,1868
2512,1867
2513,1877
2514,1892
2515,1887
2516,1867
2517,1872
2518,1872
2519,1882
2520,383
2521,2151
2522,2118
2523,2161
2524,2121
2525,2161
2526,2183
2527,2106
2528,1936
2529,1854
2530,1693
2531,1602
2532,1607
2533,1635
2534,1662
2535,1733
2536,1744
2537,1756
2538,1791
2539,1825
2540,1856
2541,1851
2542,1859
2543,1873
2544,1887
2545,1873
2546,1872
2547,1872
2548,1918
2549,1874
2550,1862
2551,596
2552,2223
2553,2111
2554,2218
2555,2194
2556,2253
2557,2256
2558,2064
2559,1904
2560,1774
2561,1535
2562,1468
2563,1559
2564,1670
2565,1712
2566,1715
2567,1744
2568,1799
2569,1823
2570,1808
2571,1824
2572,1867
2573,1889
2574,1889
2575,1883
2576,1895
2577,1887
2578,1887
2579,1882
2580,1888
2581,1910
2582,1856
2583,2119
2584,2107
2585,2262
2586,2192
2587,2224
2588,2256
2589,2086
2590,1936
2591,1712
2592,1456
2593,1486
2594,1664
2595,1682
2596,1689
2597,1712
2598,1788
2599,1796
2600,1808
2601,1835
2602,1835
2603,1840
2604,1845
2605,1874
2606,1904
2607,1904
2608,1884
2609,1887
2610,1923
2611,1898
2612,1882
2613,1891
2614,1985
2615,2127
2616,2250
2617,2197
2618,2263
2619,2273
2620,2063
2621,1856
2622,1603
2623,1411
2624,1519
2625,1647
2626,1710
2627,1760
2628,1766
2629,1792
2630,1813
2631,1856
2632,1847
2633,1840
2634,1851
2635,1867
2636,1872
2637,1872
2638,1865
2639,1886
2640,1904
2641,1879
2642,1888
2643,1876
2644,1905
2645,1635
2646,2123
2647,2255
2648,2235
2649,2198
2650,2230
2651,2047
2652,1860
2653,1585
2654,1456
2655,1563
2656,1694
2657,1727
2658,1731
2659,1759
2660,1810
2661,1829
2662,1827
2663,1849
2664,1861
2665,1875
2666,1856
2667,1857
2668,1867
2669,1861
2670,1865
2671,1872
2672,1884
2673,1898
2674,1885
2675,1884
2676,1339
2677,2158
2678,2195
2679,2227
2680,2221
2681,2259
2682,2044
2683,1842
2684,1510
2685,1449
2686,1603
2687,1688
2688,1709
2689,1723
2690,1792
2691,1810
2692,1834
2693,1844
2694,1862
2695,1847
2696,1851
2697,1862
2698,1936
2699,1900
2700,1883
2701,1895
2702,1904
2703,1874
2704,1872
2705,1872
2706,1901
2707,462
2708,2178
2709,2149
2710,2256
2711,2214
2712,2259
2713,2083
2714,1872
2715,1587
2716,1436
2717,1614
2718,1676
2719,1714
2720,1722
2721,1750
2722,1793
2723,1833
2724,1838
2725,1846
2726,1845
2727,1872
2728,1874
2729,1878
2730,1877
2731,1911
2732,1881
2733,1872
2734,1874
2735,1877
2736,1872
2737,1861
2738,623
2739,2201
2740,2154
2741,2271
2742,2234
2743,2277
2744,2155
2745,1872
2746,1535
2747,1413
2748,1606
2749,1677
2750,1698
2751,1724
2752,1762
2753,1795
2754,1808
2755,1840
2756,1863
2757,1867
2758,1859
2759,1869
2760,1909
2761,1891
2762,1885
2763,1882
2764,1883
2765,1891
2766,1872
2767,1871
2768,1877
2769,1606
2770,2161
2771,2112
2772,2282
2773,2254
2774,2285
2775,2194
2776,1857
2777,1535
2778,1391
2779,1567
2780,1714
2781,1726
2782,1737
2783,1747
2784,1794
2785,1823
2786,1840
2787,1841
2788,1844
2789,1859
2790,1904
2791,1861
2792,1843
2793,1870
2794,1894
2795,1889
2796,1886
2797,1879
2798,1905
2799,1880
2800,1870
2801,2032
2802,2128
2803,2262
2804,2238
2805,2256
2806,2219
2807,1909
2808,1568
2809,1363
2810,1622
2811,1703
2812,1718
2813,1725
2814,1749
2815,1831
2816,1808
2817,1819
2818,1840
2819,1845
2820,1843
2821,1847
2822,1872
2823,1888
2824,1898
2825,1889
2826,1872
2827,1898
2828,1889
2829,1883
2830,1866
2831,1914
2832,1828
2833,2133
2834,2249
2835,2268
2836,2269
2837,2282
2838,1914
2839,1615
2840,1409
2841,1521
2842,1669
2843,1698
2844,1754
2845,1731
2846,1776
2847,1814
2848,1821
2849,1872
2850,1903
2851,1934
2852,1943
2853,1885
2854,1791
2855,1794
2856,1855
2857,1887
2858,1877
2859,1882
2860,1891
2861,1895
2862,1875
2863,1334
2864,2183
2865,2224
2866,2301
2867,2262
2868,2353
2869,1996
2870,1650
2871,1348
2872,1439
2873,1617
2874,1678
2875,1701
2876,1744
2877,1817
2878,1819
2879,1826
2880,1843
2881,1887
2882,1887
2883,1872
2884,1859
2885,1866
2886,1878
2887,1872
2888,1872
2889,1895
2890,1907
2891,1883
2892,1883
2893,1895
2894,652
2895,2192
2896,2160
2897,2299
2898,2293
2899,2352
2900,2039
2901,1729
2902,1363
2903,1453
2904,1601
2905,1659
2906,1710
2907,1758
2908,1779
2909,1792
2910,1823
2911,1851
2912,1856
2913,1867
2914,1887
2915,1897
2916,1869
2917,1875
2918,1862
2919,1891
2920,1879
2921,1872
2922,1877
2923,1895
2924,1885
2925,469
2926,2199
2927,2160
2928,2295
2929,2257
2930,2317
2931,2099
2932,1783
2933,1357
2934,1434
2935,1600
2936,1662
2937,1683
2938,1732
2939,1821
2940,1834
2941,1827
2942,1853
2943,1862
2944,1889
2945,1898
2946,1865
2947,1862
2948,1897
2949,1885
2950,1869
2951,1872
2952,1899
2953,1878
2954,1868
2955,1884
2956,1264
2957,2239
2958,2075
2959,2266
2960,2265
2961,2330
2962,2176
2963,1872
2964,1424
2965,1450
2966,1561
2967,1627
2968,1699
2969,1744
2970,1772
2971,1807
2972,1850
2973,1877
2974,1911
2975,1953
2976,1947
2977,1941
2978,1844
2979,1774
2980,1789
2981,1855
2982,1887
2983,1867
2984,1870
2985,1887
2986,1877
2987,1865
2988,2134
2989,2077
2990,2237
2991,2251
2992,2284
2993,2224
2994,1930
2995,1489
2996,1359
2997,1566
2998,1698
2999,1697
3000,1729
3001,1776
3002,1808
3003,1822
3004,1831
3005,1851
3006,1904
3007,1920
3008,1904
3009,1856
3010,1890
3011,1872
3012,1876
3013,1884
3014,1891
3015,1915
3016,1870
3017,1856
3018,1863
3019,1884
3020,1861
3021,1856
3022,1851
3023,1856
3024,1867
3025,1854
3026,1855
3027,1865
3028,1872
3029,1853
3030,1856
3031,1856
3032,1846
3033,1840
3034,1838
3035,1818
3036,1861
3037,1840
3038,1841
3039,1847
3040,1872
3041,1856
3042,1849
3043,1881
3044,1856
3045,1858
3046,1856
3047,1851
3048,1891
3049,1860
3050,1847
3051,1854
3052,1866
3053,1840
3054,1842
3055,1846
3056,1853
3057,1871
3058,1857
3059,1849
3060,1867
3061,1859
3062,1856
3063,1863
3064,1872
3065,1872
3066,1862
3067,1845
3068,1827
3069,1862
3070,1822
3071,1822
3072,1840
3073,1849
3074,1857
3075,1854
3076,1871
3077,1904
3078,1911
3079,1920
3080,1910
3081,1907
3082,1871
3083,1818
3084,1845
3085,1883
3086,1870
3087,1855
3088,1836
3089,1862
3090,1866
3091,1808
3092,1836
3093,1894
3094,1833
3095,1791
3096,1817
3097,1837
3098,1837
3099,1856
3100,1857
3101,1855
3102,1859
3103,1863
3104,1855
3105,1840
3106,1818
3107,1873
3108,1872
3109,1886
3110,1866
3111,1854
3112,1835
3113,1833
3114,1868
3115,1872
3116,1883
3117,1872
3118,1851
3119,1854
3120,1823
3121,1807
3122,1833
3123,1838
3124,1874
3125,1863
3126,1867
3127,1899
3128,1870
3129,1865
3130,1873
3131,1910
3132,1879
3133,1865
3134,1855
3135,1828
3136,1876
3137,1863
3138,1849
3139,1858
3140,1899
3141,1895
3142,1903
3143,1911
3144,1898
3145,1877
3146,1855
3147,1807
3148,1817
3149,1835
3150,1867
3151,1872
3152,1873
3153,1883
3154,1872
3155,1817
3156,1830
3157,1831
3158,1858
3159,1842
3160,1859
3161,1857
3162,1856
3163,1890
3164,1911
3165,1927
3166,1878
3167,1845
3168,1821
3169,1812
3170,1817
3171,1829
3172,1857
3173,1876
3174,1873
3175,1859
3176,1882
3177,1882
3178,1872
3179,1890
3180,1890
3181,1888
3182,1897
3183,1860
3184,1831
3185,1873
3186,1871
3187,1840
3188,1837
3189,1840
3190,1889
3191,1872
3192,1872
3193,1860
3194,1901
3195,1867
3196,1862
3197,1886
3198,1869
3199,1871
3200,1861
3201,1846
3202,1886
3203,1862
3204,1853
3205,1856
3206,1840
3207,1873
3208,1858
3209,1859
3210,1866
3211,1874
3212,1862
3213,1857
3214,1871
3215,1883
3216,1855
3217,1840
3218,1899
3219,1888
3220,1879
3221,1873
3222,1872
3223,1834
3224,1846
3225,1835
3226,1834
3227,1859
3228,1872
3229,1861
3230,1866
3231,1856
3232,1872
3233,1854
3234,1855
3235,1857
3236,1882
3237,1879
3238,1877
3239,1936
3240,2016
3241,1970
3242,1909
3243,1823
3244,1705
3245,1695
3246,1778
3247,1830
3248,1892
3249,1858
3250,1843
3251,1847
3252,1869
3253,1853
3254,1851
3255,1851
3256,1871
3257,1884
3258,1869
3259,1865
3260,1860
3261,1883
3262,1864
3263,1868
3264,1890
3265,1893
3266,1850
3267,1850
3268,1841
3269,1857
3270,1851
3271,1855
3272,1879
3273,1899
3274,1877
3275,1855
3276,1849
3277,1889
3278,1871
3279,1859
3280,1856
3281,1898
3282,1877
3283,1854
3284,1851
3285,1857
3286,1855
3287,1853
3288,1855
3289,1871
3290,1877
3291,1870
3292,1863
3293,1872
3294,1887
3295,1857
3296,1856
3297,1867
3298,1862
3299,1866
3300,1849
3301,1861
3302,1881
3303,1859
3304,1841
3305,1861
3306,1871
3307,1878
3308,1858
3309,1856
3310,1871
3311,1869
3312,1887
3313,1922
3314,1933
3315,1929
3316,1872
3317,1795
3318,1763
3319,1794
3320,1821
3321,1808
3322,1825
3323,1895
3324,1865
3325,1857
3326,1840
3327,1867
3328,1857
3329,1845
3330,1856
3331,1887
3332,1870
3333,1850
3334,1849
3335,1847
3336,1865
3337,1838
3338,1843
3339,1873
3340,1883
3341,1866
3342,1867
3343,1878
3344,1891
3345,1863
3346,1859
3347,1861
3348,1872
3349,1863
3350,1844
3351,1840
3352,1872
3353,1851
3354,1840
3355,1847
3356,1854
3357,1872
3358,1856
3359,1855
3360,1878
3361,1859
3362,1857
3363,1853
3364,1870
3365,1863
3366,1859
3367,1849
3368,1879
3369,1867
3370,1840
3371,1840
3372,1840
3373,1861
3374,1877
3375,1873
3376,1847
3377,1882
3378,1861
3379,1851
3380,1851
3381,1862
3382,1866
3383,1854
3384,1847
3385,1851
3386,1846
3387,1850
3388,1844
3389,1861
3390,1907
3391,1879
3392,1872
3393,1895
3394,1934
3395,1870
3396,1824
3397,1830
3398,1871
3399,1872
3400,1859
3401,1867
3402,1870
3403,1865
3404,1840
3405,1819
3406,1813
3407,1857
3408,1845
3409,1857
3410,1857
3411,1871
3412,1860
3413,1856
3414,1865
3415,1855
3416,1849
3417,1840
3418,1853
3419,1855
3420,1854
3421,1843
3422,1847
3423,1887
3424,1872
3425,1859
3426,1857
3427,1895
3428,1866
3429,1855
3430,1868
3431,1886
3432,1881
3433,1856
3434,1853
3435,1843
3436,1872
3437,1844
3438,1845
3439,1849
3440,1888
3441,1869
3442,1856
3443,1862
3444,1885
3445,1859
3446,1859
3447,1858
3448,1892
3449,1863
3450,1846
3451,1843
3452,1869
3453,1853
3454,1846
3455,1846
3456,1863
3457,1886
3458,1862
3459,1856
3460,1891
3461,1897
3462,1862
3463,1859
3464,1865
3465,1922
3466,1865
3467,1850
3468,1851
3469,1874
3470,1857
3471,1842
3472,1848
3473,1872
3474,1885
3475,1870
3476,1861
3477,1871
3478,1856
3479,1838
3480,1835
3481,1858
3482,1863
3483,1851
3484,1847
3485,1855
3486,1870
3487,1845
3488,1851
3489,1857
3490,1926
3491,1886
3492,1892
3493,1901
3494,1910
3495,1863
3496,1829
3497,1802
3498,1840
3499,1845
3500,1840
3501,1839
3502,1872
3503,1855
3504,1841
3505,1838
3506,1851
3507,1899
3508,1857
3509,1866
3510,1872
3511,1872
3512,1861
3513,1857
3514,1869
3515,1915
3516,1858
3517,1841
3518,1845
3519,1842
3520,1850
3521,1849
3522,1857
3523,1862
3524,1872
3525,1861
3526,1861
3527,1875
3528,1872
3529,1859
3530,1853
3531,1861
3532,1892
3533,1851
3534,1857
3535,1876
3536,1859
3537,1847
3538,1855
3539,1857
3540,1908
3541,1872
3542,1857
3543,1879
3544,1861
3545,1856
3546,1855
3547,1858
3548,1855
3549,1863
3550,1847
3551,1846
3552,1866
3553,1851
3554,1847
3555,1854
3556,1874
3557,1862
3558,1872
3559,1865
3560,1872
3561,1894
3562,1863
3563,1858
3564,1856
3565,1871
3566,1854
3567,1846
3568,1855
3569,1864
3570,1852
3571,1847
3572,1856
3573,1853
3574,1872
3575,1855
3576,1845
3577,1875
3578,1862
3579,1842
3580,1845
3581,1851
3582,1887
3583,1849
3584,1847
3585,1844
3586,1859
3587,1847
3588,1849
3589,1856
3590,1883
3591,1867
3592,1869
3593,1883
3594,1904
3595,1859
3596,1852
3597,1862
3598,1851
3599,1859
3600,1850
3601,1847
3602,1866
3603,1857
3604,1843
3605,1851
3606,1858
3607,1870
3608,1858
3609,1859
3610,1858
3611,1875
3612,1858
3613,1857
3614,1867
3615,1870
3616,1856
3617,1841
3618,1845
3619,1851
3620,1867
3621,1869
3622,1870
3623,1873
3624,1888
3625,1856
3626,1819
3627,1811
3628,1818
3629,1831
3630,1841
3631,1862
3632,1856
3633,1844
3634,1840
3635,1872
3636,1872
3637,1851
3638,1852
3639,1844
3640,1886
3641,1870
3642,1862
3643,1866
3644,1875
3645,1867
3646,1859
3647,1851
3648,1856
3649,1867
3650,1851
3651,1856
3652,1880
3653,1856
3654,1843
3655,1847
3656,1853
3657,1879
3658,1856
3659,1857
3660,1867
3661,1861
3662,1859
3663,1858
3664,1863
3665,1866
3666,1857
3667,1849
3668,1851
3669,1866
3670,1853
3671,1851
3672,1866
3673,1872
3674,1874
3675,1853
3676,1865
3677,1875
3678,1872
3679,1854
3680,1853
3681,1872
3682,1889
3683,1871
3684,1867
3685,1872
3686,1877
3687,1872
3688,1874
3689,1893
3690,1888
3691,1890
3692,1883
3693,1883
3694,1849
3695,1818
3696,1799
3697,1795
3698,1867
3699,1844
3700,1840
3701,1840
3702,1867
3703,1853
3704,1842
3705,1841
3706,1866
3707,1871
3708,1866
3709,1866
3710,1865
3711,1887
3712,1869
3713,1860
3714,1870
3715,1853
3716,1849
3717,1835
3718,1845
3719,1853
3720,1844
3721,1840
3722,1855
3723,1843
3724,1872
3725,1862
3726,1861
3727,1887
3728,1872
3729,1866
3730,1862
3731,1883
3732,1904
3733,1853
3734,1850
3735,1853
3736,1858
3737,1843
3738,1843
3739,1865
3740,1862
3741,1872
3742,1873
3743,1868
3744,1887
3745,1868
3746,1858
3747,1852
3748,1881
3749,1855
3750,1845
3751,1841
3752,1826
3753,1859
3754,1847
3755,1850
3756,1867
3757,1879
3758,1878
3759,1874
3760,1885
3761,1899
3762,1869
3763,1847
3764,1861
3765,1843
3766,1840
3767,1822
3768,1831
3769,1851
3770,1847
3771,1843
3772,1846
3773,1872
3774,1883
3775,1869
3776,1869
3777,1904
3778,1881
3779,1863
3780,1859
3781,1857
3782,1887
3783,1838
3784,1829
3785,1849
3786,1850
3787,1840
3788,1840
3789,1872
3790,1888
3791,1887
3792,1871
3793,1851
3794,1855
3795,1853
3796,1850
3797,1843
3798,1841
3799,1867
3800,1846
3801,1844
3802,1871
3803,1852
3804,1845
3805,1841
3806,1862
3807,1883
3808,1861
3809,1865
3810,1863
3811,1871
3812,1868
3813,1866
3814,1878
3815,1853
3816,1862
3817,1843
3818,1857
3819,1859
3820,1851
3821,1840
3822,1857
3823,1854
3824,1873
3825,1861
3826,1856
3827,1902
3828,1876
3829,1861
3830,1856
3831,1868
3832,1872
3833,1856
3834,1854
3835,1840
3836,1863
3837,1840
3838,1841
3839,1849
3840,1855
3841,1870
3842,1867
3843,1870
3844,1872
3845,1866
3846,1862
3847,1867
3848,1861
3849,1868
3850,1847
3851,1846
3852,1833
3853,1854
3854,1841
3855,1842
3856,1849
3857,1894
3858,1871
3859,1864
3860,1879
3861,1879
3862,1863
3863,1863
3864,1862
3865,1906
3866,1863
3867,1847
3868,1858
3869,1859
3870,1846
3871,1839
3872,1836
3873,1839
3874,1856
3875,1846
3876,1851
3877,1869
3878,1872
3879,1859
3880,1856
3881,1867
3882,1872
3883,1857
3884,1845
3885,1842
3886,1847
3887,1840
3888,1840
3889,1854
3890,1866
3891,1872
3892,1863
3893,1865
3894,1877
3895,1863
3896,1862
3897,1857
3898,1867
3899,1867
3900,1855
3901,1844
3902,1875
3903,1857
3904,1840
3905,1841
3906,1853
3907,1881
3908,1866
3909,1860
3910,1856
3911,1866
3912,1865
3913,1859
3914,1871
3915,1872
3916,1857
3917,1845
3918,1833
3919,1867
3920,1840
3921,1839
3922,1840
3923,1862
3924,1882
3925,1856
3926,1856
3927,1872
3928,1872
3929,1857
3930,1851
3931,1867
3932,1851
3933,1855
3934,1852
3935,1847
3936,1855
3937,1840
3938,1841
3939,1856
3940,1875
3941,1875
3942,1870
3943,1867
3944,1877
3945,1892
3946,1900
3947,1903
3948,1937
3949,1893
3950,1851
3951,1827
3952,1822
3953,1799
3954,1799
3955,1811
3956,1858
3957,1883
3958,1874
3959,1859
3960,1867
3961,1886
3962,1855
3963,1857
3964,1868
3965,1917
3966,1869
3967,1856
3968,1865
3969,1875
3970,1846
3971,1835
3972,1837
3973,1843
3974,1870
3975,1859
3976,1862
3977,1865
3978,1872
3979,1856
3980,1858
3981,1872
3982,1878
3983,1856
3984,1847
3985,1841
3986,1868
3987,1840
3988,1842
3989,1872
3990,1888
3991,1879
3992,1872
3993,1881
3994,1883
3995,1874
3996,1872
3997,1863
3998,1873
3999,1871
4000,1851
4001,1845
4002,1840
4003,1847
4004,1840
4005,1843
4006,1859
4007,1889
4008,1869
4009,1859
4010,1877
4011,1872
4012,1851
4013,1846
4014,1868
4015,674
4016,2165
4017,2081
4018,2148
4019,2117
4020,2069
4021,2026
4022,1974
4023,1871
4024,1789
4025,1750
4026,1776
4027,1812
4028,1782
4029,1721
4030,1701
4031,1716
4032,1755
4033,1757
4034,1770
4035,1799
4036,1808
4037,1822
4038,1827
4039,1821
4040,1856
4041,1868
4042,1869
4043,1871
4044,1889
4045,1872
4046,1684
4047,2145
4048,2142
4049,2192
4050,2110
4051,2085
4052,2065
4053,1999
4054,1838
4055,1734
4056,1713
4057,1762
4058,1773
4059,1746
4060,1741
4061,1722
4062,1767
4063,1782
4064,1808
4065,1866
4066,1847
4067,1842
4068,1855
4069,1862
4070,1854
4071,1854
4072,1856
4073,1871
4074,1897
4075,1874
4076,1873
4077,1878
4078,2076
4079,2092
4080,2192
4081,2114
4082,2085
4083,2044
4084,1991
4085,1860
4086,1750
4087,1707
4088,1680
4089,1712
4090,1755
4091,1759
4092,1756
4093,1774
4094,1808
4095,1823
4096,1834
4097,1849
4098,1840
4099,1874
4100,1856
4101,1862
4102,1887
4103,1869
4104,1861
4105,1854
4106,1856
4107,1897
4108,1874
4109,1809
4110,2107
4111,2247
4112,2196
4113,2128
4114,2125
4115,2098
4116,1919
4117,1779
4118,1637
4119,1585
4120,1602
4121,1618
4122,1655
4123,1711
4124,1773
4125,1785
4126,1808
4127,1839
4128,1859
4129,1856
4130,1873
4131,1879
4132,1875
4133,1874
4134,1870
4135,1859
4136,1870
4137,1859
4138,1859
4139,1869
4140,1355
4141,2160
4142,2203
4143,2273
4144,2180
4145,2183
4146,2143
4147,1968
4148,1857
4149,1575
4150,1478
4151,1503
4152,1597
4153,1664
4154,1693
4155,1746
4156,1808
4157,1870
4158,1849
4159,1856
4160,1873
4161,1872
4162,1879
4163,1875
4164,1904
4165,1899
4166,1887
4167,1871
4168,1861
4169,1872
4170,1871
4171,675
4172,2160
4173,2160
4174,2304
4175,2224
4176,2227
4177,2203
4178,1979
4179,1743
4180,1442
4181,1422
4182,1600
4183,1637
4184,1664
4185,1727
4186,1762
4187,1794
4188,1820
4189,1853
4190,1871
4191,1898
4192,1888
4193,1871
4194,1866
4195,1873
4196,1872
4197,1899
4198,1888
4199,1904
4200,1877
4201,1869
4202,476
4203,2225
4204,2096
4205,2269
4206,2226
4207,2291
4208,2227
4209,1946
4210,1707
4211,1418
4212,1475
4213,1605
4214,1647
4215,1696
4216,1738
4217,1759
4218,1787
4219,1823
4220,1841
4221,1845
4222,1856
4223,1883
4224,1884
4225,1853
4226,1873
4227,1889
4228,1885
4229,1886
4230,1881
4231,1885
4232,1909
4233,915
4234,2199
4235,2106
4236,2293
4237,2215
4238,2234
4239,2196
4240,1919
4241,1642
4242,1369
4243,1520
4244,1677
4245,1700
4246,1720
4247,1750
4248,1801
4249,1850
4250,1830
4251,1840
4252,1871
4253,1876
4254,1863
4255,1847
4256,1871
4257,1936
4258,1877
4259,1879
4260,1866
4261,1913
4262,1898
4263,1878
4264,1874
4265,2154
4266,2110
4267,2259
4268,2245
4269,2268
4270,2270
4271,1950
4272,1641
4273,1338
4274,1499
4275,1654
4276,1683
4277,1771
4278,1797
4279,1786
4280,1810
4281,1833
4282,1878
4283,1898
4284,1890
4285,1886
4286,1890
4287,1840
4288,1813
4289,1837
4290,1847
4291,1895
4292,1889
4293,1890
4294,1904
4295,1899
4296,2027
4297,2101
4298,2267
4299,2304
4300,2278
4301,2317
4302,2000
4303,1667
4304,1291
4305,1456
4306,1635
4307,1686
4308,1711
4309,1746
4310,1791
4311,1830
4312,1857
4313,1868
4314,1888
4315,1890
4316,1882
4317,1856
4318,1863
4319,1856
4320,1870
4321,1867
4322,1866
4323,1877
4324,1904
4325,1887
4326,1882
4327,1616
4328,2161
4329,2226
4330,2317
4331,2295
4332,2419
4333,2026
4334,1690
4335,1300
4336,1401
4337,1584
4338,1637
4339,1677
4340,1725
4341,1779
4342,1808
4343,1843
4344,1859
4345,1872
4346,1872
4347,1881
4348,1878
4349,1890
4350,1877
4351,1872
4352,1894
4353,1886
4354,1872
4355,1869
4356,1859
4357,1915
4358,982
4359,2174
4360,2186
4361,2384
4362,2313
4363,2384
4364,2082
4365,1771
4366,1330
4367,1394
4368,1577
4369,1677
4370,1686
4371,1711
4372,1761
4373,1785
4374,1849
4375,1842
4376,1868
4377,1872
4378,1878
4379,1858
4380,1863
4381,1924
4382,1954
4383,1889
4384,1879
4385,1872
4386,1883
4387,1874
4388,1862
4389,464
4390,2213
4391,2169
4392,2331
4393,2292
4394,2387
4395,2103
4396,1779
4397,1362
4398,1412
4399,1600
4400,1642
4401,1680
4402,1745
4403,1767
4404,1786
4405,1805
4406,1830
4407,1870
4408,1879
4409,1885
4410,1894
4411,1922
4412,1895
4413,1885
4414,1899
4415,1897
4416,1895
4417,1871
4418,1871
4419,1867
4420,841
4421,2195
4422,2067
4423,2306
4424,2306
4425,2389
4426,2206
4427,1889
4428,1437
4429,1335
4430,1523
4431,1645
4432,1708
4433,1719
4434,1745
4435,1765
4436,1818
4437,1830
4438,1866
4439,1889
4440,1919
4441,1914
4442,1861
4443,1843
4444,1899
4445,1897
4446,1891
4447,1893
4448,1899
4449,1881
4450,1862
4451,1799
4452,2186
4453,2106
4454,2291
4455,2304
4456,2382
4457,2267
4458,1929
4459,1413
4460,1303
4461,1528
4462,1634
4463,1671
4464,1696
4465,1774
4466,1808
4467,1808
4468,1819
4469,1837
4470,1870
4471,1873
4472,1883
4473,1863
4474,1903
4475,1892
4476,1879
4477,1922
4478,1899
4479,1886
4480,1879
4481,1910
4482,1874
4483,2106
4484,2097
4485,2282
4486,2297
4487,2338
4488,2257
4489,1904
4490,1483
4491,1329
4492,1510
4493,1600
4494,1669
4495,1719
4496,1758
4497,1789
4498,1829
4499,1875
4500,1860
4501,1879
4502,1881
4503,1885
4504,1841
4505,1838
4506,1861
4507,1890
4508,1898
4509,1889
4510,1895
4511,1905
4512,1891
4513,1883
4514,1888
4515,2175
4516,2270
4517,2315
4518,2334
4519,2321
4520,1959
4521,1492
4522,1280
4523,1483
4524,1667
4525,1664
4526,1705
4527,1761
4528,1789
4529,1828
4530,1840
4531,1853
4532,1911
4533,1899
4534,1890
4535,1843
4536,1817
4537,1847
4538,1872
4539,1892
4540,1904
4541,1897
4542,1872
4543,1883
4544,1883
4545,1493
4546,2147
4547,2203
4548,2337
4549,2321
4550,2386
4551,2022
4552,1616
4553,1267
4554,1413
4555,1563
4556,1641
4557,1721
4558,1754
4559,1786
4560,1818
4561,1877
4562,1872
4563,1904
4564,1914
4565,1926
4566,1891
4567,1840
4568,1856
4569,1867
4570,1872
4571,1865
4572,1874
4573,1889
4574,1899
4575,1883
4576,811
4577,2159
4578,2182
4579,2315
4580,2303
4581,2395
4582,2095
4583,1707
4584,1250
4585,1392
4586,1595
4587,1644
4588,1679
4589,1722
4590,1796
4591,1840
4592,1844
4593,1876
4594,1951
4595,1936
4596,1906
4597,1871
4598,1853
4599,1866
4600,1873
4601,1886
4602,1893
4603,1888
4604,1869
4605,1858
4606,1863
4607,565
4608,2239
4609,2118
4610,2345
4611,2326
4612,2407
4613,2141
4614,1791
4615,1354
4616,1401
4617,1533
4618,1611
4619,1642
4620,1718
4621,1757
4622,1791
4623,1824
4624,1866
4625,1870
4626,1872
4627,1858
4628,1888
4629,1898
4630,1911
4631,1901
4632,1936
4633,1891
4634,1873
4635,1860
4636,1872
4637,1873
4638,1861
4639,1865
4640,1876
4641,1887
4642,1872
4643,1870
4644,1879
4645,1879
4646,1861
4647,1862
4648,1879
4649,1875
4650,1856
4651,1851
4652,1853
4653,1871
4654,1849
4655,1840
4656,1842
4657,1856
4658,1868
4659,1856
4660,1872
4661,1878
4662,1867
4663,1859
4664,1865
4665,1881
4666,1872
4667,1847
4668,1850
4669,1859
4670,1851
4671,1839
4672,1840
4673,1851
4674,1869
4675,1854
4676,1857
4677,1859
4678,1865
4679,1866
4680,1858
4681,1873
4682,1882
4683,1862
4684,1847
4685,1854
4686,1858
4687,1843
4688,1840
4689,1857
4690,1863
4691,1887
4692,1859
4693,1869
4694,1874
4695,1867
4696,1867
4697,1872
4698,1883
4699,1854
4700,1865
4701,1847
4702,1850
4703,1860
4704,1837
4705,1820
4706,1829
4707,1857
4708,1861
4709,1865
4710,1873
4711,1890
4712,1869
4713,1872
4714,1893
4715,1922
4716,1919
4717,1857
4718,1794
4719,1817
4720,1858
4721,1843
4722,1811
4723,1838
4724,1895
4725,1872
4726,1865
4727,1871
4728,1875
4729,1855
4730,1860
4731,1888
4732,1902
4733,1879
4734,1846
4735,1826
4736,1818
4737,1840
4738,1839
4739,1862
4740,1840
4741,1856
4742,1849
4743,1862
4744,1881
4745,1882
4746,1868
4747,1863
4748,1878
4749,1868
4750,1855
4751,1847
4752,1847
4753,1849
4754,1846
4755,1871
4756,1884
4757,1888
4758,1892
4759,1844
4760,1841
4761,1854
4762,1860
4763,1857
4764,1863
4765,1865
4766,1872
4767,1845
4768,1839
4769,1809
4770,1839
4771,1845
4772,1868
4773,1890
4774,1908
4775,1896
4776,1862
4777,1850
4778,1851
4779,1835
4780,1827
4781,1828
4782,1862
4783,1865
4784,1852
4785,1862
4786,1870
4787,1856
4788,1849
4789,1870
4790,1889
4791,1933
4792,1904
4793,1875
4794,1877
4795,1823
4796,1807
4797,1834
4798,1862
4799,1875
4800,1853
4801,1846
4802,1839
4803,1897
4804,1846
4805,1854
4806,1856
4807,1850
4808,1872
4809,1866
4810,1869
4811,1872
4812,1870
4813,1862
4814,1854
4815,1840
4816,1872
4817,1850
4818,1855
4819,1822
4820,1856
4821,1843
4822,1840
4823,1842
4824,1863
4825,1856
4826,1854
4827,1872
4828,1885
4829,1855
4830,1853
4831,1857
4832,1852
4833,1866
4834,1849
4835,1857
4836,1869
4837,1860
4838,1853
4839,1855
4840,1861
4841,1903
4842,1893
4843,1888
4844,1881
4845,1875
4846,1835
4847,1829
4848,1829
4849,1851
4850,1834
4851,1825
4852,1837
4853,1841
4854,1839
4855,1838
4856,1842
4857,1906
4858,1866
4859,1859
4860,1863
4861,1876
4862,1870
4863,1859
4864,1863
4865,1842
4866,1878
4867,1871
4868,1875
4869,1885
4870,1857
4871,1838
4872,1831
4873,1841
4874,1877
4875,1858
4876,1856
4877,1858
4878,1874
4879,1865
4880,1857
4881,1862
4882,1913
4883,1859
4884,1851
4885,1845
4886,1863
4887,1850
4888,1842
4889,1853
4890,1840
4891,1878
4892,1865
4893,1865
4894,1907
4895,1874
4896,1856
4897,1861
4898,1844
4899,1873
4900,1860
4901,1851
4902,1869
4903,1872
4904,1849
4905,1847
4906,1854
4907,1904
4908,1881
4909,1858
4910,1865
4911,1873
4912,1867
4913,1856
4914,1863
4915,1853
4916,1862
4917,1843
4918,1835
4919,1871
4920,1839
4921,1844
4922,1850
4923,1842
4924,1872
4925,1872
4926,1862
4927,1858
4928,1847
4929,1859
4930,1857
4931,1872
4932,1872
4933,1863
4934,1854
4935,1843
4936,1868
4937,1858
4938,1852
4939,1856
4940,1869
4941,1878
4942,1870
4943,1859
4944,1857
4945,1853
4946,1845
4947,1847
4948,1858
4949,1853
4950,1850
4951,1850
4952,1860
4953,1874
4954,1849
4955,1841
4956,1858
4957,1872
4958,1872
4959,1861
4960,1861
4961,1867
4962,1869
4963,1859
4964,1856
4965,1866
4966,1877
4967,1869
4968,1858
4969,1856
4970,1847
4971,1837
4972,1840
4973,1851
4974,1846
4975,1854
4976,1856
4977,1849
4978,1856
4979,1869
4980,1858
4981,1870
4982,1881
4983,1869
4984,1853
4985,1840
4986,1856
4987,1854
4988,1846
4989,1856
4990,1876
4991,1895
4992,1872
4993,1865
4994,1873
4995,1903
4996,1856
4997,1851
4998,1872
4999,1856
5000,1847
5001,1840
5002,1843
5003,1845
5004,1837
5005,1837
5006,1829
5007,1865
5008,1866
5009,1861
5010,1863
5011,1887
5012,1870
5013,1857
5014,1863
5015,1865
5016,1875
5017,1846
5018,1847
5019,1855
5020,1856
5021,1847
5022,1854
5023,1867
5024,1872
5025,1871
5026,1866
5027,1861
5028,1875
5029,1861
5030,1856
5031,1867
5032,1860
5033,1863
5034,1845
5035,1828
5036,1843
5037,1854
5038,1843
5039,1846
5040,1877
5041,1871
5042,1857
5043,1857
5044,1872
5045,1903
5046,1861
5047,1856
5048,1868
5049,1872
5050,1869
5051,1856
5052,1856
5053,1864
5054,1850
5055,1842
5056,1834
5057,1887
5058,1872
5059,1859
5060,1863
5061,1878
5062,1871
5063,1856
5064,1861
5065,1867
5066,1867
5067,1847
5068,1839
5069,1841
5070,1857
5071,1856
5072,1870
5073,1900
5074,1909
5075,1904
5076,1878
5077,1875
5078,1870
5079,1826
5080,1814
5081,1825
5082,1844
5083,1840
5084,1840
5085,1840
5086,1844
5087,1853
5088,1843
5089,1846
5090,1851
5091,1883
5092,1861
5093,1862
5094,1867
5095,1858
5096,1856
5097,1850
5098,1859
5099,1853
5100,1858
5101,1853
5102,1850
5103,1824
5104,1854
5105,1845
5106,1834
5107,1873
5108,1874
5109,1857
5110,1855
5111,1874
5112,1872
5113,1859
5114,1857
5115,1870
5116,1874
5117,1840
5118,1844
5119,1829
5120,1857
5121,1840
5122,1844
5123,1835
5124,1870
5125,1858
5126,1856
5127,1854
5128,1857
5129,1856
5130,1849
5131,1854
5132,1866
5133,1867
5134,1850
5135,1854
5136,1863
5137,1859
5138,1846
5139,1853
5140,1859
5141,1877
5142,1858
5143,1867
5144,1866
5145,1895
5146,1856
5147,1856
5148,1869
5149,1872
5150,1857
5151,1849
5152,1856
5153,1854
5154,1855
5155,1840
5156,1868
5157,1847
5158,1865
5159,1859
5160,1856
5161,1870
5162,1870
5163,1856
5164,1856
5165,1857
5166,1872
5167,1851
5168,1847
5169,1871
5170,1871
5171,1845
5172,1846
5173,1867
5174,1870
5175,1870
5176,1859
5177,1862
5178,1885
5179,1867
5180,1856
5181,1847
5182,1876
5183,1861
5184,1850
5185,1849
5186,1851
5187,1853
5188,1840
5189,1846
5190,1872
5191,1878
5192,1863
5193,1861
5194,1897
5195,1871
5196,1862
5197,1859
5198,1873
5199,1894
5200,1859
5201,1846
5202,1857
5203,1874
5204,1847
5205,1845
5206,1857
5207,1860
5208,1872
5209,1861
5210,1860
5211,1859
5212,1872
5213,1855
5214,1857
5215,1859
5216,1903
5217,1845
5218,1847
5219,1860
5220,1855
5221,1850
5222,1853
5223,1840
5224,1889
5225,1872
5226,1862
5227,1872
5228,1871
5229,1867
5230,1858
5231,1855
5232,1866
5233,1872
5234,1842
5235,1840
5236,1865
5237,1858
5238,1846
5239,1842
5240,1847
5241,1883
5242,1867
5243,1864
5244,1879
5245,1873
5246,1857
5247,1841
5248,1840
5249,1870
5250,1856
5251,1843
5252,1835
5253,1857
5254,1847
5255,1849
5256,1837
5257,1840
5258,1874
5259,1866
5260,1858
5261,1872
5262,1872
5263,1861
5264,1859
5265,1869
5266,1891
5267,1845
5268,1847
5269,1855
5270,1851
5271,1846
5272,1850
5273,1843
5274,1871
5275,1861
5276,1849
5277,1858
5278,1860
5279,1862
5280,1850
5281,1863
5282,1856
5283,1866
5284,1842
5285,1842
5286,1872
5287,1858
5288,1851
5289,1847
5290,1867
5291,1872
5292,1857
5293,1858
5294,1862
5295,1857
5296,1871
5297,1859
5298,1882
5299,1865
5300,1861
5301,1843
5302,1855
5303,1858
5304,1859
5305,1845
5306,1866
5307,1856
5308,1873
5309,1855
5310,1858
5311,1866
5312,1869
5313,1857
5314,1855
5315,1872
5316,1872
5317,1847
5318,1845
5319,1851
5320,1863
5321,1846
5322,1843
5323,1872
5324,1881
5325,1869
5326,1865
5327,1863
5328,1877
5329,1867
5330,1856
5331,1836
5332,1892
5333,1871
5334,1853
5335,1842
5336,1846
5337,1854
5338,1839
5339,1838
5340,1846
5341,1867
5342,1857
5343,1862
5344,1831
5345,1882
5346,1862
5347,1858
5348,1872
5349,1872
5350,1857
5351,1849
5352,1867
5353,1868
5354,1851
5355,1845
5356,1840
5357,1872
5358,1873
5359,1865
5360,1858
5361,1862
5362,1872
5363,1861
5364,1859
5365,1870
5366,1854
5367,1847
5368,1843
5369,1857
5370,1867
5371,1845
5372,1846
5373,1855
5374,1867
5375,1872
5376,1862
5377,1870
5378,1883
5379,1871
5380,1860
5381,1872
5382,1917
5383,1863
5384,1854
5385,1854
5386,1867
5387,1855
5388,1844
5389,1843
5390,1862
5391,1857
5392,1865
5393,1856
5394,1859
5395,1872
5396,1857
5397,1850
5398,1852
5399,1887
5400,1862
5401,1847
5402,1855
5403,1856
5404,1851
5405,1845
5406,1840
5407,1841
5408,1868
5409,1857
5410,1847
5411,1870
5412,1872
5413,1866
5414,1857
5415,1874
5416,1865
5417,1856
5418,1846
5419,1859
5420,1851
5421,1839
5422,1837
5423,1827
5424,1859
5425,1862
5426,1856
5427,1856
5428,1867
5429,1867
5430,1857
5431,1859
5432,1857
5433,1871
5434,1851
5435,1854
5436,1893
5437,1855
5438,1840
5439,1844
5440,1850
5441,1877
5442,1863
5443,1863
5444,1872
5445,1882
5446,1861
5447,1858
5448,1857
5449,1919
5450,1862
5451,1850
5452,1838
5453,1863
5454,1857
5455,1835
5456,1834
5457,1854
5458,1872
5459,1861
5460,1861
5461,1872
5462,1874
5463,1863
5464,1858
5465,1867
5466,1871
5467,1857
5468,1854
5469,1853
5470,1847
5471,1843
5472,1842
5473,1856
5474,1886
5475,1868
5476,1862
5477,1859
5478,1889
5479,1872
5480,1863
5481,1871
5482,1904
5483,1872
5484,1851
5485,1844
5486,1855
5487,1855
5488,1840
5489,1846
5490,1848
5491,1873
5492,1862
5493,1857
5494,1903
5495,1856
5496,1863
5497,1859
5498,1859
5499,1874
5500,1863
5501,1850
5502,1837
5503,1866
5504,1853
5505,1840
5506,1833
5507,1877
5508,1873
5509,1863
5510,1861
5511,1906
5512,1877
5513,1861
5514,1867
5515,1886
5516,1853
5517,1852
5518,1841
5519,1875
5520,1826
5521,1847
5522,1840
5523,1857
5524,1840
5525,1863
5526,1867
5527,1872
5528,1884
5529,1863
5530,1857
5531,1872
5532,1889
5533,1871
5534,1850
5535,1847
5536,1884
5537,1862
5538,1843
5539,1850
5540,1873
5541,1919
5542,1860
5543,1859
5544,1863
5545,1876
5546,1856
5547,1855
5548,1849
5549,1883
5550,1862
5551,1847
5552,1853
5553,1873
5554,1859
5555,1840
5556,1830
5557,1840
5558,1872
5559,1854
5560,1863
5561,1872
5562,1869
5563,1859
5564,1856
5565,1855
5566,1904
5567,1851
5568,1847
5569,1825
5570,1862
5571,1845
5572,1845
5573,1840
5574,1872
5575,1859
5576,1841
5577,1843
5578,1856
5579,1867
5580,1856
5581,1856
5582,1858
5583,1873
5584,1854
5585,1851
5586,1888
5587,1859
5588,1846
5589,1843
5590,1856
5591,1872
5592,1866
5593,1862
5594,1867
5595,1867
5596,1862
5597,1864
5598,1870
5599,1859
5600,1860
5601,1852
5602,1847
5603,1877
5604,1850
5605,1840
5606,1842
5607,1849
5608,1872
5609,1867
5610,1867
5611,1890
5612,1862
5613,1862
5614,1856
5615,1856
5616,1847
5617,1840
5618,1840
5619,1843
5620,1840
5621,1845
5622,1843
5623,1858
5624,1867
5625,1872
5626,1862
5627,1862
5628,1881
5629,1865
5630,1861
5631,1862
5632,1865
5633,1864
5634,1850
5635,1022
5636,2140
5637,2076
5638,2037
5639,2013
5640,2017
5641,2047
5642,2023
5643,1968
5644,1903
5645,1872
5646,1840
5647,1769
5648,1707
5649,1687
5650,1680
5651,1685
5652,1712
5653,1781
5654,1793
5655,1806
5656,1825
5657,1840
5658,1869
5659,1851
5660,1843
5661,1825
5662,1861
5663,1827
5664,1847
5665,1842
5666,593
5667,2174
5668,2070
5669,2015
5670,1998
5671,1991
5672,2003
5673,2018
5674,1962
5675,1914
5676,1914
5677,1877
5678,1819
5679,1744
5680,1701
5681,1703
5682,1772
5683,1792
5684,1793
5685,1808
5686,1879
5687,1855
5688,1840
5689,1843
5690,1875
5691,1893
5692,1876
5693,1869
5694,1883
5695,1898
5696,1877
5697,687
5698,2163
5699,2087
5700,2043
5701,1970
5702,1993
5703,2022
5704,2001
5705,1925
5706,1881
5707,1871
5708,1865
5709,1776
5710,1709
5711,1680
5712,1728
5713,1758
5714,1776
5715,1825
5716,1841
5717,1839
5718,1833
5719,1852
5720,1861
5721,1851
5722,1847
5723,1858
5724,1889
5725,1880
5726,1870
5727,1869
5728,1728
5729,2155
5730,2095
5731,2127
5732,2033
5733,2034
5734,2015
5735,1975
5736,1879
5737,1845
5738,1820
5739,1745
5740,1680
5741,1747
5742,1725
5743,1745
5744,1760
5745,1808
5746,1820
5747,1837
5748,1851
5749,1872
5750,1868
5751,1859
5752,1857
5753,1861
5754,1867
5755,1854
5756,1867
5757,1872
5758,1885
5759,1877
5760,2018
5761,2113
5762,2308
5763,2230
5764,2154
5765,2126
5766,2102
5767,1872
5768,1776
5769,1621
5770,1470
5771,1520
5772,1619
5773,1690
5774,1738
5775,1783
5776,1806
5777,1837
5778,1852
5779,1865
5780,1869
5781,1869
5782,1891
5783,1894
5784,1869
5785,1858
5786,1903
5787,1872
5788,1871
5789,1871
5790,1869
5791,1822
5792,2133
5793,2309
5794,2273
5795,2189
5796,2184
5797,2103
5798,1921
5799,1861
5800,1488
5801,1409
5802,1525
5803,1631
5804,1680
5805,1706
5806,1751
5807,1802
5808,1851
5809,1856
5810,1872
5811,1916
5812,1888
5813,1871
5814,1857
5815,1875
5816,1904
5817,1882
5818,1863
5819,1867
5820,1882
5821,1866
5822,1495
5823,2123
5824,2248
5825,2282
5826,2182
5827,2214
5828,2123
5829,1985
5830,1721
5831,1415
5832,1520
5833,1651
5834,1671
5835,1693
5836,1744
5837,1779
5838,1808
5839,1821
5840,1829
5841,1866
5842,1871
5843,1871
5844,1870
5845,1906
5846,1897
5847,1894
5848,1882
5849,1898
5850,1890
5851,1872
5852,1878
5853,881
5854,2192
5855,2157
5856,2275
5857,2211
5858,2261
5859,2127
5860,1993
5861,1648
5862,1391
5863,1521
5864,1616
5865,1649
5866,1701
5867,1747
5868,1776
5869,1815
5870,1866
5871,1888
5872,1893
5873,1885
5874,1904
5875,1879
5876,1783
5877,1819
5878,1860
5879,1894
5880,1882
5881,1879
5882,1910
5883,1905
5884,405
5885,2187
5886,2183
5887,2303
5888,2219
5889,2264
5890,2160
5891,1968
5892,1564
5893,1362
5894,1535
5895,1631
5896,1677
5897,1698
5898,1767
5899,1815
5900,1830
5901,1827
5902,1846
5903,1893
5904,1886
5905,1873
5906,1862
5907,1853
5908,1879
5909,1883
5910,1887
5911,1902
5912,1904
5913,1887
5914,1883
5915,1264
5916,2274
5917,2091
5918,2274
5919,2250
5920,2303
5921,2249
5922,1971
5923,1582
5924,1307
5925,1519
5926,1636
5927,1682
5928,1765
5929,1755
5930,1794
5931,1814
5932,1861
5933,1893
5934,1871
5935,1857
5936,1869
5937,1862
5938,1843
5939,1858
5940,1875
5941,1902
5942,1889
5943,1883
5944,1872
5945,1902
5946,1879
5947,2106
5948,2109
5949,2279
5950,2256
5951,2240
5952,2238
5953,1986
5954,1602
5955,1349
5956,1530
5957,1650
5958,1708
5959,1717
5960,1753
5961,1803
5962,1840
5963,1849
5964,1856
5965,1856
5966,1923
5967,1872
5968,1861
5969,1877
5970,1894
5971,1875
5972,1869
5973,1871
5974,1889
5975,1903
5976,1876
5977,1876
5978,1949
5979,2138
5980,2283
5981,2295
5982,2293
5983,2314
5984,2000
5985,1618
5986,1325
5987,1456
5988,1599
5989,1653
5990,1712
5991,1754
5992,1806
5993,1840
5994,1838
5995,1879
5996,1879
5997,1883
5998,1887
5999,1858
6000,1865
6001,1862
6002,1869
6003,1879
6004,1879
6005,1869
6006,1871
6007,1888
6008,1894
6009,1577
6010,2142
6011,2255
6012,2366
6013,2304
6014,2368
6015,2034
6016,1655
6017,1306
6018,1432
6019,1587
6020,1665
6021,1680
6022,1711
6023,1791
6024,1805
6025,1840
6026,1847
6027,1872
6028,1887
6029,1899
6030,1856
6031,1860
6032,1901
6033,1914
6034,1889
6035,1877
6036,1866
6037,1885
6038,1872
6039,1867
6040,1200
6041,2207
6042,2202
6043,2341
6044,2347
6045,2429
6046,2080
6047,1712
6048,1314
6049,1445
6050,1600
6051,1633
6052,1654
6053,1706
6054,1769
6055,1797
6056,1815
6057,1839
6058,1874
6059,1875
6060,1884
6061,1917
6062,1922
6063,1904
6064,1891
6065,1895
6066,1895
6067,1885
6068,1871
6069,1872
6070,1881
6071,400
6072,2180
6073,2106
6074,2352
6075,2347
6076,2426
6077,2150
6078,1806
6079,1328
6080,1370
6081,1535
6082,1642
6083,1682
6084,1712
6085,1750
6086,1825
6087,1803
6088,1836
6089,1856
6090,1904
6091,1910
6092,1889
6093,1868
6094,1861
6095,1890
6096,1894
6097,1890
6098,1890
6099,1911
6100,1897
6101,1868
6102,559
6103,2247
6104,2141
6105,2342
6106,2291
6107,2402
6108,2181
6109,1789
6110,1327
6111,1348
6112,1571
6113,1651
6114,1694
6115,1698
6116,1765
6117,1794
6118,1810
6119,1834
6120,1856
6121,1856
6122,1862
6123,1872
6124,1874
6125,1899
6126,1893
6127,1887
6128,1904
6129,1904
6130,1890
6131,1885
6132,1885
6133,1808
6134,2160
6135,2093
6136,2330
6137,2347
6138,2384
6139,2242
6140,1894
6141,1413
6142,1344
6143,1526
6144,1629
6145,1682
6146,1712
6147,1753
6148,1786
6149,1862
6150,1861
6151,1858
6152,1877
6153,1902
6154,1910
6155,1863
6156,1843
6157,1861
6158,1894
6159,1890
6160,1873
6161,1882
6162,1889
6163,1879
6164,1871
6165,2087
6166,2133
6167,2299
6168,2321
6169,2361
6170,2301
6171,1918
6172,1383
6173,1283
6174,1575
6175,1645
6176,1671
6177,1718
6178,1776
6179,1823
6180,1830
6181,1841
6182,1887
6183,1903
6184,1915
6185,1891
6186,1855
6187,1840
6188,1855
6189,1858
6190,1872
6191,1882
6192,1894
6193,1885
6194,1887
6195,1901
6196,1886
6197,2130
6198,2274
6199,2336
6200,2368
6201,2331
6202,1937
6203,1492
6204,1312
6205,1453
6206,1580
6207,1650
6208,1693
6209,1766
6210,1792
6211,1827
6212,1890
6213,1862
6214,1871
6215,1895
6216,1922
6217,1875
6218,1878
6219,1841
6220,1873
6221,1872
6222,1872
6223,1885
6224,1893
6225,1895
6226,1884
6227,1248
6228,2176
6229,2233
6230,2364
6231,2359
6232,2434
6233,2101
6234,1600
6235,1258
6236,1415
6237,1578
6238,1607
6239,1648
6240,1712
6241,1799
6242,1820
6243,1829
6244,1847
6245,1890
6246,1904
6247,1901
6248,1885
6249,1882
6250,1892
6251,1895
6252,1879
6253,1887
6254,1887
6255,1866
6256,1860
6257,1862
6258,1926
6259,1884
6260,1872
6261,1877
6262,1886
6263,1872
6264,1865
6265,1879
6266,1866
6267,1866
6268,1844
6269,1855
6270,1873
6271,1856
6272,1842
6273,1839
6274,1878
6275,1875
6276,1859
6277,1856
6278,1878
6279,1869
6280,1857
6281,1858
6282,1872
6283,1891
6284,1855
6285,1850
6286,1840
6287,1865
6288,1851
6289,1843
6290,1853
6291,1876
6292,1867
6293,1856
6294,1856
6295,1872
6296,1860
6297,1851
6298,1847
6299,1872
6300,1874
6301,1850
6302,1847
6303,1840
6304,1858
6305,1849
6306,1850
6307,1861
6308,1874
6309,1865
6310,1858
6311,1871
6312,1909
6313,1867
6314,1856
6315,1857
6316,1858
6317,1869
6318,1840
6319,1850
6320,1854
6321,1843
6322,1841
6323,1837
6324,1840
6325,1871
6326,1854
6327,1859
6328,1879
6329,1872
6330,1856
6331,1854
6332,1872
6333,1891
6334,1856
6335,1842
6336,1843
6337,1843
6338,1853
6339,1845
6340,1877
6341,1868
6342,1872
6343,1863
6344,1872
6345,1894
6346,1870
6347,1861
6348,1856
6349,1867
6350,1873
6351,1853
6352,1853
6353,1828
6354,1843
6355,1837
6356,1841
6357,1858
6358,1870
6359,1872
6360,1856
6361,1850
6362,1857
6363,1867
6364,1867
6365,1877
6366,1862
6367,1895
6368,1867
6369,1866
6370,1870
6371,1839
6372,1808
6373,1806
6374,1840
6375,1862
6376,1855
6377,1845
6378,1847
6379,1873
6380,1861
6381,1866
6382,1893
6383,1894
6384,1872
6385,1840
6386,1837
6387,1850
6388,1839
6389,1840
6390,1853
6391,1879
6392,1874
6393,1866
6394,1872
6395,1891
6396,1879
6397,1865
6398,1865
6399,1886
6400,1872
6401,1845
6402,1845
6403,1863
6404,1846
6405,1840
6406,1846
6407,1854
6408,1891
6409,1866
6410,1863
6411,1851
6412,1874
6413,1865
6414,1861
6415,1846
6416,1901
6417,1857
6418,1855
6419,1849
6420,1854
6421,1854
6422,1841
6423,1843
6424,1862
6425,1876
6426,1865
6427,1852
6428,1856
6429,1873
6430,1872
6431,1891
6432,1886
6433,1893
6434,1877
6435,1865
6436,1834
6437,1842
6438,1824
6439,1837
6440,1845
6441,1847
6442,1867
6443,1853
6444,1856
6445,1858
6446,1849
6447,1849
6448,1841
6449,1872
6450,1879
6451,1860
6452,1854
6453,1855
6454,1866
6455,1839
6456,1859
6457,1865
6458,1895
6459,1884
6460,1867
6461,1865
6462,1850
6463,1827
6464,1833
6465,1839
6466,1887
6467,1870
6468,1842
6469,1842
6470,1842
6471,1857
6472,1845
6473,1845
6474,1867
6475,1877
6476,1860
6477,1857
6478,1869
6479,1875
6480,1862
6481,1861
6482,1855
6483,1917
6484,1856
6485,1841
6486,1855
6487,1866
6488,1851
6489,1840
6490,1836
6491,1883
6492,1871
6493,1864
6494,1866
6495,1879
6496,1872
6497,1857
6498,1859
6499,1877
6500,1872
6501,1853
6502,1845
6503,1857
6504,1858
6505,1840
6506,1841
6507,1841
6508,1863
6509,1861
6510,1857
6511,1872
6512,1899
6513,1870
6514,1859
6515,1859
6516,1860
6517,1866
6518,1847
6519,1850
6520,1878
6521,1851
6522,1844
6523,1847
6524,1836
6525,1872
6526,1862
6527,1857
6528,1841
6529,1872
6530,1862
6531,1856
6532,1862
6533,1881
6534,1861
6535,1841
6536,1855
6537,1853
6538,1838
6539,1835
6540,1837
6541,1859
6542,1862
6543,1851
6544,1857
6545,1878
6546,1867
6547,1861
6548,1869
6549,1861
6550,1872
6551,1857
6552,1845
6553,1855
6554,1841
6555,1842
6556,1843
6557,1844
6558,1875
6559,1867
6560,1856
6561,1866
6562,1888
6563,1863
6564,1856
6565,1851
6566,1873
6567,1859
6568,1840
6569,1840
6570,1854
6571,1853
6572,1845
6573,1843
6574,1876
6575,1872
6576,1869
6577,1862
6578,1866
6579,1887
6580,1857
6581,1845
6582,1872
6583,1872
6584,1859
6585,1846
6586,1859
6587,1852
6588,1847
6589,1841
6590,1840
6591,1886
6592,1872
6593,1862
6594,1862
6595,1865
6596,1869
6597,1852
6598,1853
6599,1872
6600,1873
6601,1851
6602,1845
6603,1845
6604,1870
6605,1859
6606,1861
6607,1867
6608,1904
6609,1885
6610,1869
6611,1883
6612,1853
6613,1825
6614,1826
6615,1847
6616,1871
6617,1863
6618,1840
6619,1840
6620,1814
6621,1843
6622,1836
6623,1841
6624,1852
6625,1869
6626,1859
6627,1856
6628,1870
6629,1874
6630,1857
6631,1856
6632,1861
6633,1856
6634,1860
6635,1849
6636,1839
6637,1859
6638,1845
6639,1840
6640,1845
6641,1866
6642,1877
6643,1858
6644,1866
6645,1915
6646,1872
6647,1858
6648,1861
6649,1882
6650,1872
6651,1856
6652,1850
6653,1872
6654,1875
6655,1840
6656,1842
6657,1837
6658,1847
6659,1872
6660,1867
6661,1871
6662,1902
6663,1872
6664,1858
6665,1859
6666,1875
6667,1871
6668,1851
6669,1855
6670,1850
6671,1857
6672,1845
6673,1849
6674,1872
6675,1899
6676,1867
6677,1872
6678,1872
6679,1872
6680,1869
6681,1862
6682,1839
6683,1906
6684,1851
6685,1835
6686,1849
6687,1852
6688,1844
6689,1840
6690,1856
6691,1857
6692,1872
6693,1856
6694,1852
6695,1890
6696,1862
6697,1861
6698,1872
6699,1923
6700,1939
6701,1917
6702,1902
6703,1861
6704,1885
6705,1842
6706,1806
6707,1808
6708,1783
6709,1789
6710,1808
6711,1826
6712,1852
6713,1861
6714,1855
6715,1853
6716,1876
6717,1863
6718,1843
6719,1847
6720,1856
6721,1863
6722,1843
6723,1846
6724,1846
6725,1890
6726,1868
6727,1862
6728,1871
6729,1879
6730,1869
6731,1867
6732,1867
6733,1887
6734,1867
6735,1853
6736,1847
6737,1854
6738,1856
6739,1843
6740,1830
6741,1857
6742,1876
6743,1867
6744,1864
6745,1905
6746,1870
6747,1858
6748,1856
6749,1871
6750,1895
6751,1858
6752,1846
6753,1847
6754,1853
6755,1847
6756,1844
6757,1872
6758,1854
6759,1864
6760,1856
6761,1870
6762,1877
6763,1865
6764,1858
6765,1875
6766,1872
6767,1870
6768,1851
6769,1840
6770,1818
6771,1859
6772,1842
6773,1849
6774,1861
6775,1866
6776,1857
6777,1857
6778,1850
6779,1871
6780,1863
6781,1859
6782,1856
6783,1872
6784,1865
6785,1851
6786,1859
6787,1866
6788,1851
6789,1843
6790,1840
6791,1877
6792,1881
6793,1863
6794,1863
6795,1876
6796,1873
6797,1863
6798,1863
6799,1875
6800,1873
6801,1856
6802,1850
6803,1857
6804,1857
6805,1840
6806,1839
6807,1843
6808,1883
6809,1872
6810,1866
6811,1850
6812,1883
6813,1872
6814,1863
6815,1872
6816,1907
6817,1870
6818,1859
6819,1866
6820,1881
6821,1889
6822,1872
6823,1871
6824,1872
6825,1875
6826,1854
6827,1840
6828,1840
6829,1840
6830,1845
6831,1854
6832,1875
6833,1859
6834,1843
6835,1835
6836,1851
6837,1854
6838,1870
6839,1872
6840,1867
6841,1870
6842,1856
6843,1823
6844,1822
6845,1808
6846,1841
6847,1840
6848,1840
6849,1869
6850,1910
6851,1870
6852,1863
6853,1863
6854,1865
6855,1840
6856,1834
6857,1861
6858,1877
6859,1879
6860,1882
6861,1886
6862,1901
6863,1904
6864,1887
6865,1876
6866,1842
6867,1840
6868,1812
6869,1819
6870,1845
6871,1850
6872,1837
6873,1838
6874,1841
6875,1847
6876,1859
6877,1858
6878,1867
6879,1879
6880,1869
6881,1869
6882,1850
6883,1898
6884,1863
6885,1853
6886,1855
6887,1856
6888,1852
6889,1845
6890,1847
6891,1887
6892,1872
6893,1856
6894,1861
6895,1856
6896,1877
6897,1863
6898,1865
6899,1875
6900,1911
6901,1856
6902,1840
6903,1850
6904,1850
6905,1846
6906,1836
6907,1843
6908,1865
6909,1865
6910,1860
6911,1856
6912,1877
6913,1870
6914,1855
6915,1857
6916,1886
6917,1872
6918,1851
6919,1851
6920,1850
6921,1850
6922,1837
6923,1839
6924,1859
6925,1883
6926,1856
6927,1857
6928,1863
6929,1900
6930,1858
6931,1857
6932,1870
6933,1883
6934,1866
6935,1849
6936,1847
6937,1868
6938,1856
6939,1847
6940,1854
6941,1860
6942,1879
6943,1855
6944,1856
6945,1874
6946,1872
6947,1863
6948,1857
6949,1872
6950,1859
6951,1856
6952,1851
6953,1854
6954,1887
6955,1840
6956,1839
6957,1855
6958,1875
6959,1872
6960,1861
6961,1872
6962,1883
6963,1871
6964,1859
6965,1865
6966,1879
6967,1875
6968,1866
6969,1871
6970,1879
6971,1875
6972,1847
6973,1825
6974,1829
6975,1837
6976,1824
6977,1839
6978,1830
6979,1902
6980,1862
6981,1859
6982,1861
6983,1895
6984,1867
6985,1847
6986,1822
6987,1851
6988,1847
6989,1846
6990,1846
6991,1849
6992,1877
6993,1863
6994,1868
6995,1901
6996,1899
6997,1887
6998,1882
6999,1872
7000,1872
7001,1846
7002,1831
7003,1829
7004,1850
7005,1841
7006,1841
7007,1854
7008,1863
7009,1871
7010,1857
7011,1854
7012,1889
7013,1872
7014,1866
7015,1862
7016,1869
7017,1856
7018,1854
7019,1840
7020,1867
7021,1857
7022,1841
7023,1843
7024,1840
7025,1920
7026,1868
7027,1866
7028,1872
7029,1886
7030,1863
7031,1859
7032,1872
7033,1878
7034,1876
7035,1862
7036,1870
7037,1872
7038,1840
7039,1840
7040,1844
7041,1881
7042,1863
7043,1849
7044,1849
7045,1869
7046,1859
7047,1852
7048,1855
7049,1875
7050,1878
7051,1851
7052,1847
7053,1840
7054,1883
7055,1863
7056,1868
7057,1857
7058,1872
7059,1873
7060,1842
7061,1837
7062,1865
7063,1854
7064,1843
7065,1837
7066,1853
7067,1869
7068,1849
7069,1847
7070,1841
7071,1861
7072,1851
7073,1843
7074,1855
7075,1868
7076,1863
7077,1854
7078,1863
7079,1871
7080,1866
7081,1863
7082,1887
7083,1863
7084,1883
7085,1858
7086,1851
7087,1870
7088,1855
7089,1838
7090,1842
7091,1840
7092,1858
7093,1861
7094,1857
7095,1877
7096,1885
7097,1871
7098,1865
7099,1858
7100,1904
7101,1853
7102,1846
7103,1861
7104,1865
7105,1854
7106,1835
7107,1851
7108,1840
7109,1861
7110,1855
7111,1862
7112,1879
7113,1872
7114,1853
7115,1857
7116,1863
7117,1874
7118,1847
7119,1851
7120,1873
7121,1871
7122,1850
7123,1840
7124,1842
7125,1887
7126,1872
7127,1871
7128,1866
7129,1872
7130,1872
7131,1862
7132,1860
7133,1872
7134,1860
7135,1837
7136,1821
7137,1845
7138,1847
7139,1839
7140,1808
7141,1833
7142,1871
7143,1855
7144,1869
7145,1875
7146,1856
7147,1861
7148,1858
7149,1870
7150,1875
7151,1857
7152,1850
7153,1840
7154,1856
7155,1851
7156,1847
7157,1858
7158,1868
7159,1874
7160,1860
7161,1869
7162,1877
7163,1872
7164,1861
7165,1852
7166,1882
7167,1880
7168,1851
7169,1846
7170,1869
7171,1856
7172,1838
7173,1829
7174,1824
7175,1887
7176,1859
7177,1859
7178,1878
7179,1907
7180,1886
7181,1889
7182,1881
7183,1887
7184,1872
7185,1841
7186,1821
7187,1835
7188,1830
7189,1839
7190,1842
7191,1867
7192,1890
7193,1880
7194,1871
7195,1839
7196,1845
7197,1835
7198,1831
7199,1842
7200,1875
7201,1851
7202,1841
7203,1865
7204,1879
7205,1869
7206,1859
7207,1844
7208,1883
7209,1876
7210,1858
7211,1839
7212,1850
7213,1841
7214,1840
7215,1856
7216,1883
7217,1883
7218,1859
7219,1850
7220,1861
7221,1859
7222,1841
7223,1840
7224,1824
7225,1890
7226,1863
7227,1853
7228,1857
7229,1872
7230,1867
7231,1861
7232,1877
7233,1888
7234,1871
7235,1853
7236,1846
7237,1857
7238,1855
7239,1843
7240,1841
7241,1852
7242,1872
7243,1871
7244,1856
7245,1907
7246,1872
7247,1863
7248,1857
7249,1856
7250,1863
7251,1867
7252,1862
7253,1863
7254,1883
7255,1809
7256,2083
7257,2066
7258,2064
7259,2018
7260,2025
7261,2032
7262,1987
7263,1882
7264,1838
7265,1829
7266,1815
7267,1774
7268,1719
7269,1707
7270,1743
7271,1738
7272,1769
7273,1792
7274,1799
7275,1850
7276,1837
7277,1840
7278,1856
7279,1854
7280,1840
7281,1818
7282,1859
7283,1904
7284,1875
7285,1859
7286,1456
7287,2138
7288,2147
7289,2101
7290,2067
7291,2064
7292,2063
7293,1957
7294,1829
7295,1856
7296,1866
7297,1825
7298,1756
7299,1707
7300,1711
7301,1713
7302,1743
7303,1771
7304,1798
7305,1808
7306,1809
7307,1837
7308,1843
7309,1875
7310,1863
7311,1871
7312,1893
7313,1885
7314,1872
7315,1874
7316,1885
7317,1057
7318,2150
7319,2192
7320,2240
7321,2141
7322,2075
7323,2017
7324,1920
7325,1783
7326,1770
7327,1728
7328,1683
7329,1689
7330,1691
7331,1712
7332,1744
7333,1811
7334,1808
7335,1806
7336,1831
7337,1859
7338,1851
7339,1856
7340,1856
7341,1867
7342,1910
7343,1889
7344,1899
7345,1890
7346,1901
7347,1874
7348,400
7349,2179
7350,2210
7351,2279
7352,2173
7353,2112
7354,2090
7355,1935
7356,1836
7357,1766
7358,1616
7359,1579
7360,1603
7361,1670
7362,1755
7363,1767
7364,1778
7365,1801
7366,1856
7367,1851
7368,1856
7369,1866
7370,1865
7371,1855
7372,1859
7373,1871
7374,1873
7375,1899
7376,1887
7377,1882
7378,1859
7379,1040
7380,2205
7381,2127
7382,2342
7383,2253
7384,2209
7385,2189
7386,2019
7387,1894
7388,1680
7389,1429
7390,1430
7391,1535
7392,1652
7393,1701
7394,1744
7395,1774
7396,1831
7397,1840
7398,1855
7399,1868
7400,1878
7401,1878
7402,1863
7403,1879
7404,1875
7405,1871
7406,1870
7407,1863
7408,1888
7409,1903
7410,1885
7411,2129
7412,2112
7413,2315
7414,2236
7415,2203
7416,2246
7417,2082
7418,1931
7419,1535
7420,1347
7421,1453
7422,1600
7423,1670
7424,1711
7425,1781
7426,1797
7427,1819
7428,1847
7429,1877
7430,1872
7431,1872
7432,1846
7433,1893
7434,1887
7435,1867
7436,1869
7437,1858
7438,1872
7439,1863
7440,1870
7441,1883
7442,2005
7443,2128
7444,2265
7445,2261
7446,2240
7447,2250
7448,2075
7449,1890
7450,1472
7451,1373
7452,1553
7453,1670
7454,1696
7455,1718
7456,1751
7457,1778
7458,1821
7459,1856
7460,1854
7461,1856
7462,1886
7463,1887
7464,1895
7465,1877
7466,1884
7467,1899
7468,1877
7469,1873
7470,1875
7471,1871
7472,1863
7473,1623
7474,2121
7475,2224
7476,2261
7477,2238
7478,2288
7479,2130
7480,1882
7481,1429
7482,1411
7483,1572
7484,1681
7485,1694
7486,1728
7487,1776
7488,1807
7489,1817
7490,1808
7491,1809
7492,1863
7493,1869
7494,1866
7495,1867
7496,1883
7497,1881
7498,1877
7499,1889
7500,1901
7501,1888
7502,1873
7503,1858
7504,1096
7505,2169
7506,2191
7507,2300
7508,2265
7509,2345
7510,2128
7511,1839
7512,1399
7513,1431
7514,1568
7515,1648
7516,1705
7517,1744
7518,1758
7519,1791
7520,1823
7521,1851
7522,1863
7523,1883
7524,1876
7525,1911
7526,1821
7527,1855
7528,1867
7529,1904
7530,1883
7531,1873
7532,1881
7533,1904
7534,1890
7535,426
7536,2186
7537,2176
7538,2320
7539,2253
7540,2320
7541,2123
7542,1822
7543,1376
7544,1393
7545,1598
7546,1680
7547,1712
7548,1729
7549,1788
7550,1827
7551,1840
7552,1840
7553,1850
7554,1854
7555,1857
7556,1856
7557,1870
7558,1882
7559,1900
7560,1881
7561,1879
7562,1897
7563,1897
7564,1881
7565,1879
7566,641
7567,2229
7568,2129
7569,2294
7570,2289
7571,2345
7572,2170
7573,1873
7574,1383
7575,1404
7576,1577
7577,1646
7578,1693
7579,1723
7580,1776
7581,1803
7582,1824
7583,1869
7584,1885
7585,1867
7586,1869
7587,1871
7588,1858
7589,1840
7590,1865
7591,1872
7592,1906
7593,1893
7594,1888
7595,1901
7596,1875
7597,1350
7598,2182
7599,2137
7600,2349
7601,2342
7602,2398
7603,2279
7604,1903
7605,1374
7606,1334
7607,1517
7608,1601
7609,1669
7610,1689
7611,1751
7612,1810
7613,1841
7614,1846
7615,1846
7616,1857
7617,1874
7618,1863
7619,1840
7620,1875
7621,1890
7622,1883
7623,1873
7624,1894
7625,1904
7626,1893
7627,1879
7628,1872
7629,2115
7630,2131
7631,2310
7632,2320
7633,2379
7634,2303
7635,1905
7636,1424
7637,1358
7638,1523
7639,1618
7640,1677
7641,1745
7642,1765
7643,1803
7644,1823
7645,1870
7646,1886
7647,1876
7648,1877
7649,1874
7650,1870
7651,1867
7652,1871
7653,1872
7654,1882
7655,1875
7656,1865
7657,1862
7658,1873
7659,1906
7660,1888
7661,2135
7662,2302
7663,2364
7664,2375
7665,2351
7666,1945
7667,1497
7668,1313
7669,1507
7670,1627
7671,1697
7672,1693
7673,1743
7674,1778
7675,1808
7676,1839
7677,1837
7678,1856
7679,1891
7680,1879
7681,1863
7682,1875
7683,1935
7684,1904
7685,1866
7686,1864
7687,1923
7688,1883
7689,1870
7690,1869
7691,1343
7692,2188
7693,2238
7694,2360
7695,2377
7696,2429
7697,1999
7698,1575
7699,1319
7700,1486
7701,1599
7702,1622
7703,1671
7704,1726
7705,1755
7706,1775
7707,1808
7708,1838
7709,1881
7710,1895
7711,1902
7712,1893
7713,1899
7714,1866
7715,1874
7716,1904
7717,1923
7718,1874
7719,1872
7720,1872
7721,1893
7722,578
7723,2176
7724,2171
7725,2383
7726,2361
7727,2451
7728,2058
7729,1646
7730,1326
7731,1449
7732,1603
7733,1710
7734,1706
7735,1715
7736,1747
7737,1776
7738,1820
7739,1824
7740,1847
7741,1861
7742,1899
7743,1874
7744,1865
7745,1885
7746,1906
7747,1901
7748,1888
7749,1882
7750,1922
7751,1885
7752,1872
7753,478
7754,2225
7755,2135
7756,2338
7757,2352
7758,2459
7759,2134
7760,1717
7761,1344
7762,1453
7763,1593
7764,1633
7765,1670
7766,1725
7767,1770
7768,1799
7769,1821
7770,1824
7771,1838
7772,1845
7773,1855
7774,1875
7775,1907
7776,1913
7777,1889
7778,1882
7779,1907
7780,1892
7781,1881
7782,1879
7783,1896
7784,1301
7785,2181
7786,2118
7787,2320
7788,2317
7789,2411
7790,2157
7791,1767
7792,1382
7793,1419
7794,1579
7795,1654
7796,1691
7797,1727
7798,1771
7799,1831
7800,1855
7801,1840
7802,1839
7803,1856
7804,1873
7805,1882
7806,1870
7807,1877
7808,1901
7809,1906
7810,1885
7811,1889
7812,1881
7813,1891
7814,1877
7815,1870
7816,2146
7817,2167
7818,2314
7819,2335
7820,2439
7821,2240
7822,1802
7823,1359
7824,1369
7825,1579
7826,1649
7827,1675
7828,1719
7829,1788
7830,1798
7831,1822
7832,1839
7833,1873
7834,1872
7835,1867
7836,1871
7837,1872
7838,1881
7839,1874
7840,1872
7841,1884
7842,1922
7843,1888
7844,1882
7845,1885
7846,1893
7847,1899
7848,2126
7849,2294
7850,2394
7851,2432
7852,2336
7853,1904
7854,1416
7855,1296
7856,1473
7857,1593
7858,1630
7859,1731
7860,1757
7861,1806
7862,1829
7863,1840
7864,1852
7865,1865
7866,1879
7867,1899
7868,1882
7869,1873
7870,1877
7871,1875
7872,1879
7873,1869
7874,1858
7875,1902
7876,1898
7877,1879
7878,1877
7879,1922
7880,1885
7881,1872
7882,1870
7883,1888
7884,1885
7885,1851
7886,1833
7887,1842
7888,1866
7889,1854
7890,1851
7891,1867
7892,1870
7893,1866
7894,1857
7895,1873
7896,1872
7897,1865
7898,1859
7899,1884
7900,1861
7901,1863
7902,1849
7903,1847
7904,1840
7905,1854
7906,1841
7907,1846
7908,1855
7909,1877
7910,1856
7911,1855
7912,1843
7913,1856
7914,1855
7915,1855
7916,1874
7917,1879
7918,1846
7919,1836
7920,1840
7921,1877
7922,1851
7923,1842
7924,1858
7925,1860
7926,1871
7927,1861
7928,1863
7929,1881
7930,1872
7931,1858
7932,1870
7933,1874
7934,1874
7935,1855
7936,1854
7937,1837
7938,1879
7939,1846
7940,1845
7941,1840
7942,1890
7943,1868
7944,1863
7945,1847
7946,1866
7947,1863
7948,1863
7949,1859
7950,1876
7951,1870
7952,1855
7953,1853
7954,1882
7955,1856
7956,1851
7957,1852
7958,1872
7959,1891
7960,1858
7961,1867
7962,1872
7963,1887
7964,1872
7965,1868
7966,1879
7967,1875
7968,1852
7969,1853
7970,1859
7971,1872
7972,1850
7973,1879
7974,1919
7975,1923
7976,1887
7977,1762
7978,1727
7979,1867
7980,1856
7981,1857
7982,1866
7983,1878
7984,1888
7985,1855
7986,1866
7987,1893
7988,1872
7989,1813
7990,1811
7991,1834
7992,1894
7993,1872
7994,1856
7995,1859
7996,1875
7997,1871
7998,1869
7999,1852
8000,1907
8001,1859
8002,1840
8003,1853
8004,1870
8005,1856
8006,1845
8007,1831
8008,1870
8009,1917
8010,1902
8011,1894
8012,1879
8013,1862
8014,1807
8015,1828
8016,1863
8017,1904
8018,1853
8019,1849
8020,1850
8021,1869
8022,1840
8023,1840
8024,1865
8025,1864
8026,1897
8027,1882
8028,1884
8029,1891
8030,1826
8031,1840
8032,1847
8033,1878
8034,1907
8035,1856
8036,1849
8037,1874
8038,1847
8039,1839
8040,1846
8041,1831
8042,1871
8043,1862
8044,1871
8045,1872
8046,1872
8047,1849
8048,1851
8049,1876
8050,1869
8051,1904
8052,1863
8053,1845
8054,1833
8055,1808
8056,1809
8057,1840
8058,1867
8059,1877
8060,1859
8061,1869
8062,1872
8063,1888
8064,1870
8065,1838
8066,1849
8067,1858
8068,1855
8069,1855
8070,1859
8071,1855
8072,1853
8073,1842
8074,1851
8075,1854
8076,1871
8077,1862
8078,1856
8079,1883
8080,1869
8081,1858
8082,1856
8083,1872
8084,1863
8085,1849
8086,1850
8087,1868
8088,1856
8089,1844
8090,1843
8091,1843
8092,1866
8093,1863
8094,1861
8095,1840
8096,1861
8097,1859
8098,1850
8099,1882
8100,1904
8101,1871
8102,1850
8103,1858
8104,1856
8105,1856
8106,1844
8107,1850
8108,1861
8109,1866
8110,1856
8111,1854
8112,1881
8113,1910
8114,1883
8115,1872
8116,1858
8117,1841
8118,1827
8119,1833
8120,1855
8121,1839
8122,1840
8123,1839
8124,1838
8125,1849
8126,1871
8127,1861
8128,1869
8129,1904
8130,1908
8131,1903
8132,1875
8133,1878
8134,1904
8135,1831
8136,1772
8137,1809
8138,1815
8139,1822
8140,1830
8141,1867
8142,1876
8143,1865
8144,1859
8145,1871
8146,1890
8147,1870
8148,1862
8149,1874
8150,1869
8151,1867
8152,1846
8153,1845
8154,1851
8155,1849
8156,1840
8157,1840
8158,1845
8159,1875
8160,1865
8161,1867
8162,1871
8163,1878
8164,1862
8165,1859
8166,1872
8167,1873
8168,1862
8169,1845
8170,1845
8171,1860
8172,1846
8173,1840
8174,1845
8175,1854
8176,1874
8177,1863
8178,1862
8179,1894
8180,1869
8181,1862
8182,1858
8183,1874
8184,1859
8185,1843
8186,1838
8187,1839
8188,1860
8189,1845
8190,1841
8191,1854
8192,1872
8193,1869
8194,1856
8195,1892
8196,1904
8197,1888
8198,1872
8199,1856
8200,1835
8201,1844
8202,1840
8203,1841
8204,1849
8205,1856
8206,1856
8207,1860
8208,1840
8209,1869
8210,1851
8211,1857
8212,1840
8213,1882
8214,1872
8215,1872
8216,1886
8217,1877
8218,1887
8219,1874
8220,1887
8221,1872
8222,1848
8223,1827
8224,1822
8225,1824
8226,1841
8227,1819
8228,1825
8229,1841
8230,1855
8231,1856
8232,1856
8233,1871
8234,1889
8235,1855
8236,1853
8237,1838
8238,1855
8239,1845
8240,1848
8241,1873
8242,1861
8243,1871
8244,1866
8245,1857
8246,1925
8247,1920
8248,1905
8249,1886
8250,1867
8251,1835
8252,1796
8253,1815
8254,1831
8255,1841
8256,1840
8257,1841
8258,1862
8259,1873
8260,1864
8261,1862
8262,1857
8263,1905
8264,1863
8265,1860
8266,1866
8267,1875
8268,1863
8269,1850
8270,1859
8271,1865
8272,1856
8273,1840
8274,1857
8275,1863
8276,1871
8277,1859
8278,1859
8279,1872
8280,1872
8281,1861
8282,1856
8283,1885
8284,1905
8285,1852
8286,1851
8287,1852
8288,1847
8289,1843
8290,1843
8291,1871
8292,1869
8293,1871
8294,1852
8295,1859
8296,1893
8297,1869
8298,1858
8299,1858
8300,1871
8301,1872
8302,1851
8303,1847
8304,1865
8305,1854
8306,1840
8307,1845
8308,1852
8309,1891
8310,1885
8311,1885
8312,1874
8313,1911
8314,1857
8315,1859
8316,1853
8317,1846
8318,1834
8319,1826
8320,1837
8321,1859
8322,1867
8323,1872
8324,1859
8325,1902
8326,1890
8327,1866
8328,1859
8329,1865
8330,1862
8331,1856
8332,1846
8333,1837
8334,1844
8335,1795
8336,1818
8337,1816
8338,1840
8339,1842
8340,1854
8341,1859
8342,1867
8343,1872
8344,1867
8345,1867
8346,1872
8347,1870
8348,1865
8349,1871
8350,1850
8351,1869
8352,1854
8353,1851
8354,1872
8355,1865
8356,1849
8357,1846
8358,1856
8359,1879
8360,1869
8361,1862
8362,1869
8363,1886
8364,1867
8365,1857
8366,1858
8367,1866
8368,1855
8369,1841
8370,1845
8371,1859
8372,1850
8373,1844
8374,1850
8375,1878
8376,1876
8377,1868
8378,1869
8379,1878
8380,1875
8381,1869
8382,1862
8383,1866
8384,1856
8385,1856
8386,1851
8387,1840
8388,1823
8389,1838
8390,1843
8391,1845
8392,1876
8393,1876
8394,1873
8395,1872
8396,1875
8397,1871
8398,1881
8399,1890
8400,1887
8401,1887
8402,1866
8403,1860
8404,1834
8405,1804
8406,1788
8407,1813
8408,1842
8409,1867
8410,1859
8411,1862
8412,1865
8413,1863
8414,1857
8415,1856
8416,1878
8417,1898
8418,1866
8419,1849
8420,1842
8421,1874
8422,1867
8423,1853
8424,1840
8425,1856
8426,1861
8427,1838
8428,1834
8429,1870
8430,1861
8431,1853
8432,1847
8433,1861
8434,1875
8435,1851
8436,1847
8437,1860
8438,1846
8439,1851
8440,1846
8441,1857
8442,1885
8443,1873
8444,1872
8445,1865
8446,1893
8447,1869
8448,1856
8449,1857
8450,1856
8451,1871
8452,1850
8453,1851
8454,1889
8455,1866
8456,1851
8457,1840
8458,1857
8459,1915
8460,1856
8461,1850
8462,1837
8463,1853
8464,1862
8465,1858
8466,1861
8467,1867
8468,1863
8469,1849
8470,1839
8471,1847
8472,1855
8473,1851
8474,1859
8475,1894
8476,1873
8477,1855
8478,1861
8479,1858
8480,1892
8481,1870
8482,1871
8483,1891
8484,1921
8485,1904
8486,1893
8487,1884
8488,1859
8489,1830
8490,1792
8491,1802
8492,1847
8493,1837
8494,1821
8495,1846
8496,1867
8497,1865
8498,1859
8499,1867
8500,1883
8501,1895
8502,1870
8503,1851
8504,1856
8505,1857
8506,1835
8507,1835
8508,1824
8509,1890
8510,1857
8511,1863
8512,1871
8513,1872
8514,1882
8515,1872
8516,1869
8517,1877
8518,1857
8519,1827
8520,1815
8521,1852
8522,1849
8523,1843
8524,1843
8525,1851
8526,1879
8527,1867
8528,1869
8529,1896
8530,1883
8531,1861
8532,1854
8533,1862
8534,1872
8535,1863
8536,1841
8537,1840
8538,1861
8539,1856
8540,1854
8541,1871
8542,1863
8543,1876
8544,1852
8545,1838
8546,1840
8547,1852
8548,1846
8549,1858
8550,1889
8551,1865
8552,1846
8553,1851
8554,1836
8555,1877
8556,1873
8557,1865
8558,1891
8559,1873
8560,1863
8561,1867
8562,1872
8563,1874
8564,1863
8565,1861
8566,1842
8567,1882
8568,1820
8569,1822
8570,1826
8571,1856
8572,1842
8573,1845
8574,1856
8575,1870
8576,1909
8577,1895
8578,1884
8579,1882
8580,1863
8581,1819
8582,1813
8583,1842
8584,1874
8585,1843
8586,1842
8587,1841
8588,1855
8589,1851
8590,1854
8591,1852
8592,1872
8593,1871
8594,1857
8595,1855
8596,1883
8597,1867
8598,1856
8599,1866
8600,1872
8601,1878
8602,1855
8603,1847
8604,1867
8605,1886
8606,1849
8607,1847
8608,1853
8609,1887
8610,1862
8611,1858
8612,1856
8613,1895
8614,1859
8615,1841
8616,1850
8617,1874
8618,1862
8619,1845
8620,1845
8621,1863
8622,1855
8623,1843
8624,1849
8625,1856
8626,1861
8627,1861
8628,1859
8629,1878
8630,1872
8631,1869
8632,1863
8633,1867
8634,1885
8635,1852
8636,1841
8637,1843
8638,1853
8639,1845
8640,1839
8641,1851
8642,1867
8643,1872
8644,1861
8645,1856
8646,1871
8647,1867
8648,1870
8649,1891
8650,1934
8651,1914
8652,1875
8653,1856
8654,1842
8655,1821
8656,1808
8657,1810
8658,1847
8659,1870
8660,1860
8661,1850
8662,1865
8663,1862
8664,1863
8665,1855
8666,1871
8667,1847
8668,1854
8669,1839
8670,1845
8671,1891
8672,1865
8673,1856
8674,1858
8675,1872
8676,1872
8677,1856
8678,1867
8679,1888
8680,1872
8681,1859
8682,1856
8683,1851
8684,1871
8685,1847
8686,1850
8687,1855
8688,1841
8689,1856
8690,1857
8691,1856
8692,1885
8693,1873
8694,1879
8695,1851
8696,1861
8697,1831
8698,1835
8699,1849
8700,1885
8701,1884
8702,1862
8703,1847
8704,1866
8705,1830
8706,1846
8707,1843
8708,1842
8709,1873
8710,1872
8711,1867
8712,1875
8713,1887
8714,1878
8715,1856
8716,1845
8717,1851
8718,1843
8719,1841
8720,1840
8721,1840
8722,1849
8723,1854
8724,1857
8725,1877
8726,1887
8727,1857
8728,1840
8729,1840
8730,1850
8731,1845
8732,1847
8733,1867
8734,1872
8735,1856
8736,1856
8737,1881
8738,1889
8739,1872
8740,1867
8741,1857
8742,1868
8743,1856
8744,1825
8745,1834
8746,1872
8747,1858
8748,1856
8749,1852
8750,1861
8751,1865
8752,1855
8753,1856
8754,1890
8755,1872
8756,1846
8757,1840
8758,1835
8759,1862
8760,1859
8761,1848
8762,1870
8763,1872
8764,1872
8765,1867
8766,1873
8767,1890
8768,1891
8769,1871
8770,1856
8771,1858
8772,1821
8773,1811
8774,1837
8775,1867
8776,1877
8777,1866
8778,1859
8779,1869
8780,1870
8781,1865
8782,1855
8783,1852
8784,1886
8785,1850
8786,1840
8787,1837
8788,1839
8789,1847
8790,1839
8791,1855
8792,1853
8793,1866
8794,1867
8795,1875
8796,1856
8797,1867
8798,1861
8799,1861
8800,1873
8801,1895
8802,1857
8803,1843
8804,1850
8805,1856
8806,1846
8807,1858
8808,1877
8809,1897
8810,1879
8811,1859
8812,1872
8813,1843
8814,1840
8815,1826
8816,1827
8817,1873
8818,1863
8819,1856
8820,1862
8821,1869
8822,1861
8823,1840
8824,1835
8825,1854
8826,1873
8827,1856
8828,1857
8829,1877
8830,1888
8831,1881
8832,1885
8833,1885
8834,1886
8835,1862
8836,1834
8837,1827
8838,1833
8839,1839
8840,1838
8841,1854
8842,1867
8843,1871
8844,1855
8845,1855
8846,1871
8847,1867
8848,1856
8849,1856
8850,1866
8851,1872
8852,1845
8853,1843
8854,1871
8855,1866
8856,1843
8857,1846
8858,1850
8859,1881
8860,1871
8861,1859
8862,1860
8863,1877
8864,1865
8865,1860
8866,1872
8867,1869
8868,1871
8869,1855
8870,1859
8871,1858
8872,1862
8873,1846
8874,1843
8875,2085
8876,2076
8877,2094
8878,2084
8879,2046
8880,2075
8881,2064
8882,1945
8883,1834
8884,1830
8885,1802
8886,1776
8887,1728
8888,1727
8889,1693
8890,1713
8891,1754
8892,1840
8893,1872
8894,1853
8895,1849
8896,1885
8897,1842
8898,1791
8899,1762
8900,1774
8901,1835
8902,1835
8903,1855
8904,1886
8905,1883
8906,1939
8907,2091
8908,2159
8909,2154
8910,2101
8911,2085
8912,2059
8913,1919
8914,1736
8915,1695
8916,1744
8917,1791
8918,1776
8919,1728
8920,1721
8921,1795
8922,1791
8923,1796
8924,1808
8925,1834
8926,1872
8927,1850
8928,1873
8929,1869
8930,1873
8931,1872
8932,1872
8933,1882
8934,1886
8935,1870
8936,1853
8937,1628
8938,2110
8939,2166
8940,2183
8941,2134
8942,2112
8943,2086
8944,1879
8945,1710
8946,1680
8947,1666
8948,1698
8949,1705
8950,1723
8951,1754
8952,1770
8953,1782
8954,1803
8955,1820
8956,1827
8957,1840
8958,1845
8959,1869
8960,1878
8961,1873
8962,1888
8963,1916
8964,1884
8965,1877
8966,1875
8967,1877
8968,1063
8969,2149
8970,2197
8971,2256
8972,2222
8973,2208
8974,2185
8975,1982
8976,1798
8977,1627
8978,1513
8979,1534
8980,1613
8981,1637
8982,1693
8983,1750
8984,1805
8985,1810
8986,1813
8987,1831
8988,1870
8989,1859
8990,1856
8991,1879
8992,1919
8993,1903
8994,1890
8995,1883
8996,1892
8997,1891
8998,1884
8999,626
9000,2198
9001,2185
9002,2273
9003,2201
9004,2215
9005,2234
9006,1974
9007,1753
9008,1519
9009,1497
9010,1535
9011,1629
9012,1678
9013,1741
9014,1767
9015,1789
9016,1823
9017,1845
9018,1863
9019,1850
9020,1853
9021,1887
9022,1872
9023,1862
9024,1863
9025,1876
9026,1901
9027,1881
9028,1879
9029,1890
9030,706
9031,2194
9032,2114
9033,2307
9034,2250
9035,2283
9036,2259
9037,1979
9038,1744
9039,1413
9040,1395
9041,1520
9042,1643
9043,1727
9044,1744
9045,1759
9046,1810
9047,1839
9048,1839
9049,1850
9050,1868
9051,1886
9052,1861
9053,1861
9054,1882
9055,1887
9056,1863
9057,1867
9058,1867
9059,1889
9060,1881
9061,1677
9062,2171
9063,2140
9064,2301
9065,2246
9066,2288
9067,2321
9068,1965
9069,1664
9070,1411
9071,1526
9072,1634
9073,1671
9074,1690
9075,1732
9076,1787
9077,1803
9078,1837
9079,1850
9080,1886
9081,1873
9082,1877
9083,1884
9084,1894
9085,1853
9086,1850
9087,1869
9088,1856
9089,1874
9090,1867
9091,1867
9092,1869
9093,2106
9094,2127
9095,2271
9096,2267
9097,2306
9098,2329
9099,1993
9100,1686
9101,1406
9102,1469
9103,1614
9104,1664
9105,1680
9106,1722
9107,1750
9108,1798
9109,1826
9110,1853
9111,1857
9112,1842
9113,1898
9114,1883
9115,1872
9116,1872
9117,1894
9118,1898
9119,1871
9120,1866
9121,1862
9122,1879
9123,1862
9124,1778
9125,2139
9126,2274
9127,2303
9128,2320
9129,2390
9130,2031
9131,1637
9132,1328
9133,1440
9134,1613
9135,1669
9136,1692
9137,1719
9138,1778
9139,1795
9140,1811
9141,1838
9142,1846
9143,1875
9144,1874
9145,1878
9146,1892
9147,1888
9148,1872
9149,1877
9150,1904
9151,1903
9152,1872
9153,1867
9154,1904
9155,1509
9156,2146
9157,2231
9158,2305
9159,2322
9160,2415
9161,2005
9162,1648
9163,1405
9164,1467
9165,1597
9166,1651
9167,1731
9168,1755
9169,1766
9170,1789
9171,1826
9172,1841
9173,1840
9174,1841
9175,1854
9176,1899
9177,1889
9178,1877
9179,1886
9180,1902
9181,1881
9182,1883
9183,1889
9184,1886
9185,1883
9186,614
9187,2182
9188,2192
9189,2335
9190,2327
9191,2454
9192,2097
9193,1712
9194,1369
9195,1424
9196,1599
9197,1666
9198,1680
9199,1715
9200,1758
9201,1842
9202,1825
9203,1822
9204,1841
9205,1835
9206,1843
9207,1854
9208,1881
9209,1882
9210,1893
9211,1893
9212,1893
9213,1904
9214,1894
9215,1885
9216,1873
9217,466
9218,2238
9219,2166
9220,2343
9221,2340
9222,2463
9223,2121
9224,1708
9225,1328
9226,1413
9227,1567
9228,1646
9229,1691
9230,1721
9231,1762
9232,1795
9233,1840
9234,1863
9235,1850
9236,1835
9237,1852
9238,1872
9239,1872
9240,1856
9241,1869
9242,1897
9243,1900
9244,1883
9245,1882
9246,1878
9247,1899
9248,925
9249,2195
9250,2167
9251,2383
9252,2371
9253,2465
9254,2176
9255,1744
9256,1344
9257,1383
9258,1566
9259,1648
9260,1677
9261,1707
9262,1760
9263,1815
9264,1826
9265,1840
9266,1847
9267,1899
9268,1880
9269,1886
9270,1870
9271,1856
9272,1881
9273,1868
9274,1867
9275,1872
9276,1887
9277,1890
9278,1884
9279,1896
9280,2167
9281,2141
9282,2346
9283,2371
9284,2467
9285,2293
9286,1811
9287,1406
9288,1378
9289,1521
9290,1602
9291,1655
9292,1687
9293,1758
9294,1763
9295,1798
9296,1822
9297,1838
9298,1843
9299,1861
9300,1890
9301,1888
9302,1879
9303,1879
9304,1891
9305,1903
9306,1872
9307,1871
9308,1871
9309,1910
9310,1895
9311,1920
9312,2154
9313,2326
9314,2390
9315,2437
9316,2357
9317,1898
9318,1491
9319,1328
9320,1485
9321,1579
9322,1632
9323,1652
9324,1713
9325,1764
9326,1806
9327,1819
9328,1840
9329,1852
9330,1887
9331,1881
9332,1874
9333,1882
9334,1935
9335,1897
9336,1887
9337,1874
9338,1888
9339,1885
9340,1869
9341,1867
9342,1581
9343,2180
9344,2257
9345,2370
9346,2411
9347,2448
9348,1914
9349,1488
9350,1301
9351,1514
9352,1629
9353,1664
9354,1700
9355,1728
9356,1771
9357,1792
9358,1810
9359,1859
9360,1873
9361,1887
9362,1883
9363,1911
9364,1850
9365,1883
9366,1902
9367,1908
9368,1901
9369,1886
9370,1872
9371,1905
9372,1894
9373,1125
9374,2160
9375,2253
9376,2399
9377,2406
9378,2468
9379,1967
9380,1563
9381,1327
9382,1474
9383,1600
9384,1657
9385,1692
9386,1734
9387,1767
9388,1792
9389,1824
9390,1829
9391,1845
9392,1874
9393,1895
9394,1867
9395,1884
9396,1884
9397,1901
9398,1890
9399,1886
9400,1904
9401,1879
9402,1879
9403,1865
9404,415
9405,2224
9406,2160
9407,2365
9408,2384
9409,2518
9410,2054
9411,1595
9412,1296
9413,1451
9414,1584
9415,1628
9416,1679
9417,1749
9418,1803
9419,1798
9420,1812
9421,1824
9422,1841
9423,1859
9424,1869
9425,1905
9426,1881
9427,1872
9428,1872
9429,1858
9430,1902
9431,1889
9432,1886
9433,1904
9434,1899
9435,880
9436,2195
9437,2115
9438,2415
9439,2417
9440,2523
9441,2123
9442,1680
9443,1315
9444,1387
9445,1535
9446,1619
9447,1664
9448,1706
9449,1751
9450,1807
9451,1861
9452,1837
9453,1833
9454,1847
9455,1862
9456,1866
9457,1872
9458,1888
9459,1875
9460,1910
9461,1891
9462,1890
9463,1888
9464,1893
9465,1879
9466,1849
9467,2169
9468,2160
9469,2368
9470,2396
9471,2496
9472,2240
9473,1707
9474,1305
9475,1344
9476,1527
9477,1610
9478,1660
9479,1713
9480,1782
9481,1806
9482,1823
9483,1834
9484,1904
9485,1888
9486,1877
9487,1877
9488,1858
9489,1861
9490,1866
9491,1872
9492,1895
9493,1917
9494,1891
9495,1899
9496,1908
9497,1929
9498,1884
9499,1872
9500,1903
9501,1904
9502,1867
9503,1853
9504,1879
9505,1866
9506,1855
9507,1845
9508,1836
9509,1877
9510,1867
9511,1851
9512,1846
9513,1879
9514,1882
9515,1872
9516,1869
9517,1872
9518,1876
9519,1846
9520,1840
9521,1841
9522,1853
9523,1840
9524,1840
9525,1859
9526,1875
9527,1867
9528,1856
9529,1856
9530,1878
9531,1862
9532,1856
9533,1859
9534,1856
9535,1856
9536,1835
9537,1845
9538,1870
9539,1855
9540,1838
9541,1838
9542,1840
9543,1869
9544,1858
9545,1867
9546,1861
9547,1883
9548,1856
9549,1853
9550,1862
9551,1899
9552,1865
9553,1860
9554,1862
9555,1863
9556,1851
9557,1851
9558,1836
9559,1871
9560,1872
9561,1863
9562,1866
9563,1883
9564,1873
9565,1856
9566,1853
9567,1859
9568,1869
9569,1840
9570,1841
9571,1868
9572,1869
9573,1868
9574,1860
9575,1871
9576,1867
9577,1865
9578,1861
9579,1874
9580,1890
9581,1871
9582,1861
9583,1851
9584,1860
9585,1874
9586,1862
9587,1871
9588,1847
9589,1843
9590,1840
9591,1850
9592,1872
9593,1889
9594,1871
9595,1831
9596,1844
9597,1840
9598,1856
9599,1854
9600,1879
9601,1879
9602,1870
9603,1852
9604,1862
9605,1861
9606,1845
9607,1841
9608,1843
9609,1860
9610,1872
9611,1869
9612,1862
9613,1873
9614,1872
9615,1859
9616,1861
9617,1858
9618,1870
9619,1845
9620,1830
9621,1839
9622,1847
9623,1841
9624,1843
9625,1849
9626,1902
9627,1871
9628,1856
9629,1850
9630,1874
9631,1863
9632,1856
9633,1857
9634,1903
9635,1870
9636,1837
9637,1844
9638,1850
9639,1851
9640,1839
9641,1840
9642,1855
9643,1869
9644,1858
9645,1862
9646,1872
9647,1867
9648,1867
9649,1863
9650,1868
9651,1887
9652,1887
9653,1872
9654,1886
9655,1872
9656,1855
9657,1825
9658,1808
9659,1820
9660,1827
9661,1838
9662,1851
9663,1872
9664,1872
9665,1859
9666,1867
9667,1867
9668,1874
9669,1853
9670,1840
9671,1872
9672,1853
9673,1847
9674,1845
9675,1869
9676,1862
9677,1865
9678,1867
9679,1862
9680,1874
9681,1869
9682,1865
9683,1867
9684,1882
9685,1879
9686,1866
9687,1851
9688,1813
9689,1812
9690,1830
9691,1835
9692,1847
9693,1872
9694,1863
9695,1862
9696,1846
9697,1876
9698,1855
9699,1856
9700,1846
9701,1877
9702,1864
9703,1851
9704,1856
9705,1852
9706,1856
9707,1859
9708,1869
9709,1874
9710,1909
9711,1921
9712,1922
9713,1947
9714,1857
9715,1778
9716,1746
9717,1807
9718,1855
9719,1841
9720,1846
9721,1834
9722,1851
9723,1838
9724,1846
9725,1861
9726,1897
9727,1872
9728,1859
9729,1860
9730,1872
9731,1872
9732,1867
9733,1857
9734,1911
9735,1872
9736,1855
9737,1851
9738,1887
9739,1859
9740,1853
9741,1854
9742,1860
9743,1854
9744,1870
9745,1867
9746,1883
9747,1893
9748,1857
9749,1847
9750,1839
9751,1872
9752,1851
9753,1853
9754,1858
9755,1859
9756,1852
9757,1846
9758,1842
9759,1831
9760,1872
9761,1863
9762,1859
9763,1891
9764,1875
9765,1865
9766,1856
9767,1870
9768,1872
9769,1851
9770,1850
9771,1856
9772,1870
9773,1843
9774,1845
9775,1857
9776,1869
9777,1872
9778,1868
9779,1862
9780,1869
9781,1854
9782,1846
9783,1850
9784,1883
9785,1871
9786,1856
9787,1857
9788,1852
9789,1847
9790,1838
9791,1839
9792,1856
9793,1883
9794,1861
9795,1860
9796,1889
9797,1898
9798,1861
9799,1863
9800,1875
9801,1910
9802,1857
9803,1847
9804,1863
9805,1854
9806,1849
9807,1843
9808,1856
9809,1887
9810,1893
9811,1877
9812,1882
9813,1872
9814,1859
9815,1839
9816,1827
9817,1843
9818,1845
9819,1840
9820,1851
9821,1861
9822,1862
9823,1843
9824,1833
9825,1829
9826,1854
9827,1861
9828,1862
9829,1874
9830,1899
9831,1872
9832,1869
9833,1902
9834,1894
9835,1886
9836,1853
9837,1856
9838,1841
9839,1852
9840,1831
9841,1834
9842,1815
9843,1842
9844,1842
9845,1841
9846,1825
9847,1876
9848,1861
9849,1858
9850,1872
9851,1891
9852,1861
9853,1855
9854,1851
9855,1865
9856,1857
9857,1851
9858,1843
9859,1872
9860,1875
9861,1856
9862,1853
9863,1872
9864,1869
9865,1846
9866,1850
9867,1840
9868,1856
9869,1857
9870,1856
9871,1858
9872,1851
9873,1846
9874,1847
9875,1855
9876,1878
9877,1874
9878,1869
9879,1869
9880,1872
9881,1878
9882,1872
9883,1863
9884,1887
9885,1871
9886,1839
9887,1837
9888,1846
9889,1839
9890,1830
9891,1843
9892,1841
9893,1879
9894,1870
9895,1862
9896,1873
9897,1857
9898,1859
9899,1856
9900,1863
9901,1911
9902,1854
9903,1862
9904,1861
9905,1873
9906,1857
9907,1843
9908,1852
9909,1846
9910,1875
9911,1856
9912,1866
9913,1885
9914,1872
9915,1850
9916,1843
9917,1830
9918,1842
9919,1840
9920,1840
9921,1857
9922,1839
9923,1843
9924,1842
9925,1840
9926,1860
9927,1869
9928,1859
9929,1866
9930,1867
9931,1877
9932,1882
9933,1876
9934,1904
9935,1891
9936,1854
9937,1821
9938,1835
9939,1837
9940,1830
9941,1835
9942,1853
9943,1853
9944,1853
9945,1847
9946,1863
9947,1898
9948,1860
9949,1857
9950,1863
9951,1866
9952,1863
9953,1851
9954,1856
9955,1857
9956,1852
9957,1838
9958,1849
9959,1875
9960,1873
9961,1866
9962,1868
9963,1894
9964,1873
9965,1857
9966,1859
9967,1857
9968,1879
9969,1856
9970,1851
9971,1865
9972,1861
9973,1839
9974,1841
9975,1871
9976,1863
9977,1871
9978,1862
9979,1853
9980,1894
9981,1869
9982,1863
9983,1870
9984,1895
9985,1865
9986,1851
9987,1844
9988,1834
9989,1840
9990,1826
9991,1839
9992,1862
9993,1879
9994,1869
9995,1869
9996,1869
9997,1874
9998,1889
9999,1879
10000,1889
10001,1863
10002,1835
10003,1816
10004,1817
10005,1859
10006,1873
10007,1870
10008,1862
10009,1873
10010,1886
10011,1842
10012,1831
10013,1824
10014,1841
10015,1839
10016,1843
10017,1872
10018,1856
10019,1853
10020,1847
10021,1840
10022,1866
10023,1853
10024,1855
10025,1863
10026,1905
10027,1887
10028,1862
10029,1854
10030,1852
10031,1857
10032,1857
10033,1859
10034,1868
10035,1875
10036,1854
10037,1846
10038,1840
10039,1851
10040,1842
10041,1845
10042,1855
10043,1885
10044,1863
10045,1858
10046,1859
10047,1903
10048,1858
10049,1853
10050,1857
10051,1894
10052,1861
10053,1847
10054,1848
10055,1842
10056,1849
10057,1840
10058,1856
10059,1856
10060,1877
10061,1861
10062,1861
10063,1856
10064,1872
10065,1855
10066,1863
10067,1875
10068,1877
10069,1857
10070,1842
10071,1859
10072,1857
10073,1847
10074,1844
10075,1841
10076,1855
10077,1859
10078,1853
10079,1853
10080,1879
10081,1872
10082,1856
10083,1857
10084,1862
10085,1870
10086,1847
10087,1851
10088,1835
10089,1847
10090,1847
10091,1845
10092,1856
10093,1875
10094,1857
10095,1869
10096,1861
10097,1861
10098,1863
10099,1855
10100,1856
10101,1851
10102,1856
10103,1846
10104,1853
10105,1856
10106,1853
10107,1840
10108,1841
10109,1821
10110,1878
10111,1861
10112,1857
10113,1872
10114,1869
10115,1857
10116,1859
10117,1882
10118,1861
10119,1856
10120,1849
10121,1871
10122,1872
10123,1854
10124,1842
10125,1840
10126,1853
10127,1865
10128,1859
10129,1862
10130,1867
10131,1872
10132,1860
10133,1867
10134,1879
10135,1869
10136,1840
10137,1845
10138,1882
10139,1872
10140,1858
10141,1847
10142,1853
10143,1879
10144,1866
10145,1855
10146,1857
10147,1876
10148,1863
10149,1854
10150,1843
10151,1850
10152,1861
10153,1845
10154,1843
10155,1853
10156,1856
10157,1845
10158,1849
10159,1882
10160,1874
10161,1868
10162,1860
10163,1856
10164,1878
10165,1859
10166,1853
10167,1854
10168,1874
10169,1851
10170,1845
10171,1840
10172,1856
10173,1847
10174,1841
10175,1867
10176,1865
10177,1872
10178,1861
10179,1856
10180,1873
10181,1865
10182,1861
10183,1866
10184,1872
10185,1872
10186,1853
10187,1850
10188,1850
10189,1850
10190,1842
10191,1847
10192,1871
10193,1869
10194,1863
10195,1851
10196,1846
10197,1879
10198,1858
10199,1856
10200,1872
10201,1862
10202,1866
10203,1843
10204,1861
10205,1866
10206,1854
10207,1840
10208,1845
10209,1870
10210,1870
10211,1861
10212,1853
10213,1856
10214,1875
10215,1868
10216,1871
10217,1875
10218,1875
10219,1858
10220,1841
10221,1857
10222,1847
10223,1822
10224,1826
10225,1819
10226,1859
10227,1861
10228,1853
10229,1855
10230,1872
10231,1860
10232,1859
10233,1874
10234,1884
10235,1890
10236,1870
10237,1873
10238,1891
10239,1875
10240,1844
10241,1823
10242,1821
10243,1857
10244,1840
10245,1839
10246,1843
10247,1838
10248,1849
10249,1847
10250,1856
10251,1872
10252,1872
10253,1861
10254,1851
10255,1841
10256,1840
10257,1833
10258,1836
10259,1862
10260,1872
10261,1862
10262,1863
10263,1872
10264,1872
10265,1865
10266,1857
10267,1872
10268,1860
10269,1861
10270,1847
10271,1853
10272,1856
10273,1847
10274,1847
10275,1843
10276,1882
10277,1872
10278,1862
10279,1849
10280,1871
10281,1870
10282,1858
10283,1860
10284,1863
10285,1865
10286,1842
10287,1842
10288,1865
10289,1859
10290,1861
10291,1858
10292,1871
10293,1882
10294,1868
10295,1856
10296,1842
10297,1852
10298,1853
10299,1856
10300,1855
10301,1875
10302,1869
10303,1857
10304,1867
10305,1872
10306,1856
10307,1838
10308,1844
10309,1857
10310,1871
10311,1857
10312,1866
10313,1870
10314,1876
10315,1846
10316,1837
10317,1837
10318,1860
10319,1842
10320,1843
10321,1841
10322,1874
10323,1872
10324,1872
10325,1875
10326,1878
10327,1883
10328,1860
10329,1851
10330,1849
10331,1839
10332,1834
10333,1843
10334,1859
10335,1878
10336,1850
10337,1838
10338,1847
10339,1842
10340,1841
10341,1844
10342,1856
10343,1846
10344,1872
10345,1850
10346,1862
10347,1862
10348,1858
10349,1855
10350,1851
10351,1882
10352,1872
10353,1851
10354,1850
10355,1854
10356,1849
10357,1842
10358,1850
10359,1869
10360,1878
10361,1856
10362,1857
10363,1871
10364,1868
10365,1870
10366,1862
10367,1887
10368,1914
10369,1854
10370,1845
10371,1866
10372,1846
10373,1846
10374,1845
10375,1839
10376,1870
10377,1864
10378,1855
10379,1853
10380,1858
10381,1875
10382,1873
10383,1873
10384,1882
10385,1862
10386,1849
10387,1840
10388,1843
10389,1841
10390,1835
10391,1844
10392,1851
10393,1869
10394,1867
10395,1867
10396,1879
10397,1859
10398,1863
10399,1859
10400,1867
10401,1871
10402,1867
10403,1847
10404,1843
10405,1850
10406,1845
10407,1831
10408,1828
10409,1844
10410,1869
10411,1872
10412,1872
10413,1878
10414,1885
10415,1871
10416,1861
10417,1856
10418,1863
10419,1840
10420,1822
10421,1833
10422,1850
10423,1847
10424,1838
10425,1859
10426,1872
10427,1870
10428,1859
10429,1861
10430,1866
10431,1872
10432,1861
10433,1861
10434,1881
10435,1872
10436,1847
10437,1847
10438,1827
10439,1859
10440,1840
10441,1837
10442,1841
10443,1859
10444,1866
10445,1856
10446,1860
10447,1878
10448,1870
10449,1857
10450,1859
10451,1876
10452,1872
10453,1846
10454,1854
10455,1847
10456,1855
10457,1842
10458,1841
10459,1853
10460,1873
10461,1866
10462,1863
10463,1910
10464,1873
10465,1859
10466,1854
10467,1843
10468,1904
10469,1858
10470,1852
10471,1847
10472,1840
10473,1847
10474,1851
10475,1855
10476,1860
10477,1877
10478,1863
10479,1865
10480,1884
10481,1872
10482,1861
10483,1866
10484,1886
10485,1902
10486,1877
10487,1875
10488,1872
10489,1834
10490,1814
10491,1808
10492,1825
10493,1815
10494,363
10495,2147
10496,2072
10497,2098
10498,2071
10499,2064
10500,2095
10501,2081
10502,1968
10503,1841
10504,1810
10505,1760
10506,1773
10507,1728
10508,1689
10509,1681
10510,1724
10511,1745
10512,1787
10513,1808
10514,1822
10515,1819
10516,1826
10517,1835
10518,1826
10519,1828
10520,1811
10521,1823
10522,1823
10523,1837
10524,1845
10525,1280
10526,2157
10527,2106
10528,2113
10529,2096
10530,2096
10531,2091
10532,2047
10533,1935
10534,1838
10535,1824
10536,1806
10537,1767
10538,1712
10539,1685
10540,1683
10541,1723
10542,1744
10543,1806
10544,1808
10545,1827
10546,1843
10547,1873
10548,1861
10549,1863
10550,1882
10551,1867
10552,1879
10553,1869
10554,1871
10555,1868
10556,1868
10557,2059
10558,2074
10559,2143
10560,2189
10561,2096
10562,2064
10563,2031
10564,1891
10565,1765
10566,1766
10567,1794
10568,1783
10569,1727
10570,1691
10571,1741
10572,1770
10573,1771
10574,1786
10575,1803
10576,1824
10577,1856
10578,1855
10579,1856
10580,1872
10581,1885
10582,1873
10583,1883
10584,1882
10585,1913
10586,1865
10587,1856
10588,1863
10589,2109
10590,2202
10591,2222
10592,2167
10593,2161
10594,2077
10595,1861
10596,1727
10597,1715
10598,1618
10599,1619
10600,1661
10601,1711
10602,1741
10603,1753
10604,1771
10605,1808
10606,1825
10607,1824
10608,1838
10609,1856
10610,1884
10611,1875
10612,1887
10613,1888
10614,1889
10615,1875
10616,1874
10617,1872
10618,1885
10619,1757
10620,2112
10621,2226
10622,2237
10623,2195
10624,2204
10625,2163
10626,1943
10627,1839
10628,1600
10629,1472
10630,1532
10631,1642
10632,1675
10633,1716
10634,1761
10635,1808
10636,1807
10637,1829
10638,1826
10639,1874
10640,1853
10641,1861
10642,1871
10643,1889
10644,1897
10645,1886
10646,1894
10647,1903
10648,1888
10649,1879
10650,855
10651,2194
10652,2227
10653,2273
10654,2224
10655,2255
10656,2217
10657,1968
10658,1774
10659,1488
10660,1453
10661,1561
10662,1640
10663,1650
10664,1777
10665,1760
10666,1782
10667,1823
10668,1858
10669,1840
10670,1839
10671,1833
10672,1878
10673,1866
10674,1862
10675,1853
10676,1874
10677,1899
10678,1878
10679,1877
10680,1872
10681,400
10682,2189
10683,2159
10684,2257
10685,2192
10686,2253
10687,2178
10688,1953
10689,1728
10690,1429
10691,1503
10692,1664
10693,1742
10694,1744
10695,1744
10696,1764
10697,1826
10698,1823
10699,1827
10700,1852
10701,1876
10702,1872
10703,1857
10704,1860
10705,1853
10706,1865
10707,1854
10708,1856
10709,1881
10710,1895
10711,1883
10712,651
10713,2208
10714,2146
10715,2266
10716,2213
10717,2308
10718,2233
10719,1968
10720,1643
10721,1423
10722,1573
10723,1691
10724,1677
10725,1706
10726,1738
10727,1773
10728,1794
10729,1818
10730,1861
10731,1856
10732,1849
10733,1848
10734,1873
10735,1883
10736,1859
10737,1854
10738,1878
10739,1887
10740,1862
10741,1862
10742,1858
10743,1877
10744,2161
10745,2128
10746,2269
10747,2265
10748,2320
10749,2278
10750,1986
10751,1671
10752,1433
10753,1511
10754,1625
10755,1664
10756,1710
10757,1721
10758,1757
10759,1802
10760,1840
10761,1840
10762,1853
10763,1870
10764,1879
10765,1856
10766,1857
10767,1871
10768,1879
10769,1882
10770,1871
10771,1871
10772,1900
10773,1875
10774,1874
10775,1975
10776,2160
10777,2289
10778,2257
10779,2305
10780,2318
10781,1970
10782,1610
10783,1424
10784,1522
10785,1677
10786,1693
10787,1719
10788,1743
10789,1793
10790,1801
10791,1808
10792,1851
10793,1871
10794,1865
10795,1860
10796,1868
10797,1888
10798,1874
10799,1867
10800,1879
10801,1901
10802,1900
10803,1878
10804,1873
10805,1899
10806,1697
10807,2147
10808,2256
10809,2287
10810,2322
10811,2400
10812,1969
10813,1609
10814,1429
10815,1514
10816,1636
10817,1686
10818,1719
10819,1728
10820,1755
10821,1786
10822,1807
10823,1817
10824,1823
10825,1842
10826,1859
10827,1887
10828,1875
10829,1872
10830,1874
10831,1897
10832,1882
10833,1883
10834,1892
10835,1913
10836,1873
10837,1335
10838,2160
10839,2270
10840,2341
10841,2355
10842,2439
10843,2025
10844,1535
10845,1328
10846,1461
10847,1627
10848,1680
10849,1697
10850,1745
10851,1755
10852,1815
10853,1815
10854,1829
10855,1828
10856,1842
10857,1849
10858,1862
10859,1877
10860,1898
10861,1883
10862,1891
10863,1902
10864,1904
10865,1890
10866,1882
10867,1867
10868,450
10869,2207
10870,2219
10871,2343
10872,2334
10873,2448
10874,1995
10875,1591
10876,1383
10877,1482
10878,1609
10879,1663
10880,1712
10881,1744
10882,1771
10883,1801
10884,1841
10885,1850
10886,1839
10887,1840
10888,1858
10889,1872
10890,1894
10891,1872
10892,1851
10893,1885
10894,1894
10895,1881
10896,1891
10897,1915
10898,1891
10899,581
10900,2197
10901,2192
10902,2373
10903,2353
10904,2454
10905,2084
10906,1655
10907,1366
10908,1426
10909,1578
10910,1673
10911,1681
10912,1742
10913,1763
10914,1818
10915,1821
10916,1827
10917,1840
10918,1841
10919,1863
10920,1862
10921,1874
10922,1865
10923,1889
10924,1872
10925,1872
10926,1901
10927,1903
10928,1888
10929,1881
10930,1189
10931,2212
10932,2159
10933,2346
10934,2345
10935,2479
10936,2127
10937,1691
10938,1407
10939,1446
10940,1584
10941,1634
10942,1660
10943,1715
10944,1769
10945,1780
10946,1808
10947,1829
10948,1853
10949,1856
10950,1882
10951,1881
10952,1901
10953,1877
10954,1869
10955,1856
10956,1872
10957,1866
10958,1872
10959,1866
10960,1886
10961,1882
10962,2047
10963,2149
10964,2321
10965,2336
10966,2416
10967,2271
10968,1762
10969,1467
10970,1423
10971,1583
10972,1658
10973,1694
10974,1702
10975,1742
10976,1791
10977,1807
10978,1817
10979,1834
10980,1859
10981,1879
10982,1874
10983,1885
10984,1877
10985,1895
10986,1872
10987,1872
10988,1872
10989,1881
10990,1875
10991,1865
10992,1872
10993,1953
10994,2173
10995,2322
10996,2354
10997,2396
10998,2322
10999,1757
11000,1451
11001,1415
11002,1613
11003,1653
11004,1664
11005,1731
11006,1709
11007,1757
11008,1781
11009,1819
11010,1856
11011,1858
11012,1865
11013,1872
11014,1881
11015,1891
11016,1884
11017,1878
11018,1936
11019,1885
11020,1867
11021,1872
11022,1865
11023,1875
11024,1535
11025,2149
11026,2282
11027,2403
11028,2417
11029,2393
11030,1845
11031,1489
11032,1378
11033,1526
11034,1655
11035,1664
11036,1680
11037,1715
11038,1776
11039,1781
11040,1802
11041,1814
11042,1842
11043,1871
11044,1895
11045,1879
11046,1904
11047,1920
11048,1903
11049,1888
11050,1891
11051,1915
11052,1899
11053,1887
11054,1872
11055,677
11056,2197
11057,2227
11058,2367
11059,2401
11060,2506
11061,1923
11062,1514
11063,1377
11064,1488
11065,1616
11066,1643
11067,1682
11068,1737
11069,1777
11070,1800
11071,1808
11072,1832
11073,1840
11074,1847
11075,1867
11076,1901
11077,1921
11078,1883
11079,1886
11080,1906
11081,1904
11082,1886
11083,1874
11084,1874
11085,1901
11086,398
11087,2179
11088,2144
11089,2352
11090,2381
11091,2482
11092,2000
11093,1616
11094,1387
11095,1451
11096,1604
11097,1661
11098,1689
11099,1733
11100,1785
11101,1825
11102,1840
11103,1826
11104,1835
11105,1881
11106,1858
11107,1866
11108,1869
11109,1891
11110,1915
11111,1901
11112,1886
11113,1883
11114,1904
11115,1879
11116,1876
11117,1875
11118,1871
11119,1882
11120,1861
11121,1847
11122,1870
11123,1863
11124,1851
11125,1850
11126,1861
11127,1879
11128,1859
11129,1861
11130,1840
11131,1879
11132,1862
11133,1859
11134,1859
11135,1873
11136,1858
11137,1846
11138,1853
11139,1875
11140,1851
11141,1842
11142,1857
11143,1872
11144,1872
11145,1856
11146,1856
11147,1879
11148,1870
11149,1857
11150,1855
11151,1866
11152,1842
11153,1853
11154,1851
11155,1847
11156,1850
11157,1840
11158,1835
11159,1870
11160,1858
11161,1862
11162,1860
11163,1845
11164,1863
11165,1867
11166,1857
11167,1863
11168,1872
11169,1867
11170,1855
11171,1840
11172,1887
11173,1853
11174,1842
11175,1846
11176,1858
11177,1869
11178,1866
11179,1862
11180,1869
11181,1890
11182,1851
11183,1846
11184,1860
11185,1893
11186,1850
11187,1849
11188,1875
11189,1873
11190,1866
11191,1849
11192,1826
11193,1856
11194,1874
11195,1881
11196,1898
11197,1918
11198,1877
11199,1831
11200,1825
11201,1856
11202,1889
11203,1895
11204,1901
11205,1879
11206,1839
11207,1789
11208,1835
11209,1860
11210,1872
11211,1856
11212,1855
11213,1863
11214,1904
11215,1885
11216,1868
11217,1856
11218,1835
11219,1872
11220,1919
11221,1950
11222,1932
11223,1819
11224,1744
11225,1809
11226,1949
11227,2001
11228,1943
11229,1871
11230,1762
11231,1744
11232,1777
11233,1776
11234,1815
11235,1872
11236,1840
11237,1863
11238,1888
11239,1910
11240,1837
11241,1836
11242,1872
11243,1865
11244,1855
11245,1830
11246,1839
11247,1860
11248,1863
11249,1855
11250,1860
11251,1862
11252,1893
11253,1861
11254,1847
11255,1873
11256,1872
11257,1857
11258,1847
11259,1850
11260,1865
11261,1870
11262,1865
11263,1869
11264,1888
11265,1870
11266,1865
11267,1866
11268,1872
11269,1873
11270,1853
11271,1856
11272,1895
11273,1853
11274,1845
11275,1840
11276,1834
11277,1869
11278,1858
11279,1855
11280,1858
11281,1858
11282,1870
11283,1862
11284,1870
11285,1870
11286,1865
11287,1849
11288,1854
11289,1862
11290,1851
11291,1843
11292,1865
11293,1867
11294,1874
11295,1857
11296,1851
11297,1874
11298,1872
11299,1861
11300,1863
11301,1841
11302,1885
11303,1854
11304,1841
11305,1831
11306,1862
11307,1839
11308,1840
11309,1823
11310,1857
11311,1866
11312,1862
11313,1859
11314,1872
11315,1863
11316,1853
11317,1874
11318,1890
11319,1862
11320,1843
11321,1842
11322,1846
11323,1851
11324,1845
11325,1846
11326,1845
11327,1883
11328,1862
11329,1861
11330,1839
11331,1848
11332,1857
11333,1858
11334,1870
11335,1876
11336,1858
11337,1850
11338,1821
11339,1860
11340,1844
11341,1837
11342,1835
11343,1870
11344,1883
11345,1869
11346,1840
11347,1836
11348,1872
11349,1877
11350,1869
11351,1851
11352,1853
11353,1825
11354,1840
11355,1853
11356,1853
11357,1845
11358,1845
11359,1843
11360,1874
11361,1862
11362,1857
11363,1881
11364,1877
11365,1867
11366,1863
11367,1857
11368,1872
11369,1872
11370,1858
11371,1861
11372,1836
11373,1840
11374,1840
11375,1841
11376,1849
11377,1866
11378,1840
11379,1853
11380,1871
11381,1867
11382,1863
11383,1858
11384,1857
11385,1872
11386,1869
11387,1847
11388,1859
11389,1862
11390,1853
11391,1843
11392,1858
11393,1869
11394,1873
11395,1861
11396,1856
11397,1883
11398,1868
11399,1859
11400,1867
11401,1879
11402,1879
11403,1871
11404,1869
11405,1847
11406,1847
11407,1853
11408,1851
11409,1858
11410,1867
11411,1850
11412,1860
11413,1863
11414,1872
11415,1846
11416,1850
11417,1858
11418,1867
11419,1867
11420,1843
11421,1845
11422,1854
11423,1846
11424,1838
11425,1853
11426,1868
11427,1898
11428,1882
11429,1901
11430,1906
11431,1874
11432,1857
11433,1873
11434,1872
11435,1826
11436,1815
11437,1821
11438,1854
11439,1866
11440,1851
11441,1843
11442,1837
11443,1847
11444,1845
11445,1838
11446,1856
11447,1869
11448,1877
11449,1861
11450,1858
11451,1873
11452,1875
11453,1858
11454,1854
11455,1850
11456,1840
11457,1845
11458,1840
11459,1846
11460,1887
11461,1872
11462,1859
11463,1870
11464,1891
11465,1879
11466,1872
11467,1881
11468,1893
11469,1878
11470,1853
11471,1847
11472,1845
11473,1855
11474,1840
11475,1849
11476,1862
11477,1878
11478,1869
11479,1863
11480,1863
11481,1895
11482,1870
11483,1861
11484,1876
11485,1867
11486,1858
11487,1850
11488,1850
11489,1863
11490,1854
11491,1846
11492,1849
11493,1856
11494,1874
11495,1867
11496,1862
11497,1890
11498,1872
11499,1863
11500,1858
11501,1872
11502,1876
11503,1856
11504,1850
11505,1847
11506,1854
11507,1845
11508,1845
11509,1851
11510,1863
11511,1869
11512,1856
11513,1861
11514,1882
11515,1862
11516,1855
11517,1855
11518,1872
11519,1875
11520,1863
11521,1876
11522,1889
11523,1885
11524,1872
11525,1858
11526,1855
11527,1887
11528,1842
11529,1802
11530,1825
11531,1873
11532,1858
11533,1853
11534,1854
11535,1858
11536,1849
11537,1818
11538,1831
11539,1845
11540,1838
11541,1826
11542,1840
11543,1863
11544,1876
11545,1857
11546,1856
11547,1857
11548,1874
11549,1861
11550,1861
11551,1859
11552,1872
11553,1857
11554,1855
11555,1861
11556,1872
11557,1858
11558,1857
11559,1875
11560,1858
11561,1866
11562,1850
11563,1844
11564,1872
11565,1870
11566,1865
11567,1862
11568,1877
11569,1870
11570,1846
11571,1847
11572,1840
11573,1845
11574,1845
11575,1840
11576,1840
11577,1904
11578,1859
11579,1857
11580,1866
11581,1869
11582,1865
11583,1862
11584,1871
11585,1876
11586,1865
11587,1850
11588,1846
11589,1871
11590,1856
11591,1840
11592,1836
11593,1858
11594,1875
11595,1866
11596,1863
11597,1872
11598,1875
11599,1861
11600,1855
11601,1866
11602,1866
11603,1853
11604,1846
11605,1837
11606,1866
11607,1840
11608,1837
11609,1845
11610,1865
11611,1871
11612,1865
11613,1870
11614,1880
11615,1887
11616,1878
11617,1883
11618,1904
11619,1901
11620,1876
11621,1861
11622,1846
11623,1834
11624,1789
11625,1790
11626,1842
11627,1855
11628,1863
11629,1863
11630,1862
11631,1873
11632,1866
11633,1853
11634,1867
11635,1882
11636,1856
11637,1842
11638,1844
11639,1849
11640,1851
11641,1841
11642,1840
11643,1859
11644,1878
11645,1865
11646,1868
11647,1899
11648,1888
11649,1871
11650,1871
11651,1889
11652,1891
11653,1873
11654,1859
11655,1838
11656,1856
11657,1840
11658,1830
11659,1835
11660,1838
11661,1861
11662,1851
11663,1846
11664,1871
11665,1862
11666,1854
11667,1863
11668,1872
11669,1868
11670,1857
11671,1855
11672,1850
11673,1872
11674,1847
11675,1850
11676,1859
11677,1895
11678,1869
11679,1862
11680,1873
11681,1873
11682,1869
11683,1866
11684,1861
11685,1874
11686,1865
11687,1840
11688,1852
11689,1854
11690,1855
11691,1849
11692,1866
11693,1865
11694,1873
11695,1858
11696,1862
11697,1857
11698,1865
11699,1856
11700,1856
11701,1876
11702,1921
11703,1858
11704,1852
11705,1850
11706,1866
11707,1851
11708,1847
11709,1859
11710,1858
11711,1873
11712,1858
11713,1852
11714,1866
11715,1867
11716,1867
11717,1871
11718,1866
11719,1879
11720,1855
11721,1841
11722,1853
11723,1841
11724,1827
11725,1817
11726,1842
11727,1872
11728,1859
11729,1856
11730,1860
11731,1875
11732,1867
11733,1858
11734,1861
11735,1898
11736,1861
11737,1851
11738,1847
11739,1875
11740,1857
11741,1846
11742,1861
11743,1876
11744,1885
11745,1863
11746,1863
11747,1856
11748,1856
11749,1864
11750,1858
11751,1856
11752,1871
11753,1861
11754,1846
11755,1850
11756,1847
11757,1840
11758,1840
11759,1860
11760,1914
11761,1870
11762,1862
11763,1854
11764,1872
11765,1866
11766,1859
11767,1866
11768,1891
11769,1871
11770,1850
11771,1845
11772,1886
11773,1854
11774,1847
11775,1850
11776,1869
11777,1871
11778,1867
11779,1872
11780,1859
11781,1868
11782,1862
11783,1861
11784,1859
11785,1873
11786,1855
11787,1841
11788,1835
11789,1858
11790,1851
11791,1842
11792,1853
11793,1856
11794,1873
11795,1861
11796,1863
11797,1871
11798,1873
11799,1861
11800,1861
11801,1856
11802,1858
11803,1856
11804,1842
11805,1844
11806,1868
11807,1847
11808,1842
11809,1856
11810,1865
11811,1872
11812,1857
11813,1865
11814,1877
11815,1872
11816,1867
11817,1867
11818,1873
11819,1862
11820,1836
11821,1829
11822,1849
11823,1838
11824,1826
11825,1841
11826,1886
11827,1922
11828,1865
11829,1857
11830,1892
11831,1877
11832,1874
11833,1871
11834,1866
11835,1857
11836,1854
11837,1846
11838,1840
11839,1856
11840,1855
11841,1841
11842,1850
11843,1857
11844,1903
11845,1857
11846,1862
11847,1867
11848,1853
11849,1856
11850,1856
11851,1859
11852,1885
11853,1861
11854,1852
11855,1833
11856,1873
11857,1850
11858,1841
11859,1855
11860,1844
11861,1874
11862,1859
11863,1861
11864,1868
11865,1871
11866,1863
11867,1867
11868,1885
11869,1883
11870,1856
11871,1850
11872,1850
11873,1863
11874,1849
11875,1844
11876,1837
11877,1872
11878,1854
11879,1862
11880,1886
11881,1862
11882,1868
11883,1856
11884,1865
11885,1915
11886,1866
11887,1850
11888,1840
11889,1879
11890,1856
11891,1846
11892,1855
11893,1875
11894,1867
11895,1855
11896,1857
11897,1867
11898,1874
11899,1869
11900,1857
11901,1865
11902,1925
11903,1856
11904,1844
11905,1853
11906,1830
11907,1843
11908,1839
11909,1844
11910,1856
11911,1873
11912,1871
11913,1861
11914,1902
11915,1872
11916,1856
11917,1862
11918,1871
11919,1874
11920,1845
11921,1853
