Time(ms),Raw_ADC,ENV_Value,RMS,MDF,MW_Amp,MW_Area,MW_Latency,MW_Valid,Marker
0,1858.2,14.1,0.0,0.0,0.0,0.0,0.0,0,
100,1857.9,15.4,0.0,0.0,0.0,0.0,0.0,0,
200,1856.8,14.9,0.0,0.0,0.0,0.0,0.0,0,
300,1857.7,13.5,0.0,0.0,0.0,0.0,0.0,0,
400,1858.0,13.9,0.0,0.0,0.0,0.0,0.0,0,
500,1857.7,14.5,0.0,228.5,0.0,0.0,0.0,0,
600,1857.4,28.0,0.0,220.6,0.0,0.0,0.0,0,
700,1874.2,42.9,0.0,152.2,0.0,0.0,0.0,0,
800,1830.7,48.7,0.0,185.7,179.0,894.0,2.0,0,
900,1880.3,41.9,0.0,237.0,179.0,894.0,2.0,0,
1000,1860.6,21.8,0.0,252.8,170.0,723.0,2.0,0,
1100,1837.9,34.0,0.0,199.0,169.0,725.0,2.0,0,
1200,1880.2,31.2,0.0,186.8,169.0,725.0,2.0,0,
1300,1862.4,15.8,0.0,187.9,169.0,725.0,2.0,0,
1400,1860.1,16.1,0.0,157.5,169.0,725.0,2.0,0,
1500,1860.6,21.6,0.0,131.8,169.0,725.0,2.0,0,
1600,1860.2,15.4,48.1,111.8,169.0,725.0,2.0,0,
1700,1859.4,16.3,48.1,71.3,169.0,725.0,2.0,0,
1800,1858.1,13.6,48.1,71.0,169.0,725.0,2.0,0,
1900,1858.8,15.3,48.1,89.8,169.0,725.0,2.0,0,
2000,1857.6,16.0,48.2,94.0,169.0,725.0,2.0,0,
2100,1857.9,15.5,48.2,102.3,169.0,725.0,2.0,0,
2200,1859.1,16.8,48.3,100.0,169.0,725.0,2.0,0,
2300,1847.3,44.3,47.1,209.9,121.0,844.0,2.0,0,
2400,1878.4,42.8,47.5,244.1,121.0,844.0,2.0,0,
2600,1851.6,67.0,69.1,200.1,133.0,706.0,5.0,1,
2700,1873.6,29.7,69.8,100.3,162.0,1004.0,7.0,1,
2800,1838.9,31.3,66.5,37.1,256.0,1374.0,2.0,0,
2900,1853.2,16.1,66.0,37.6,195.0,733.0,2.0,0,
3000,1860.4,16.2,66.0,71.7,195.0,733.0,2.0,0,
3100,1859.3,16.7,66.0,83.9,195.0,733.0,2.0,0,
3200,1857.4,16.7,65.9,76.8,195.0,733.0,2.0,0,
3300,1857.7,21.0,65.9,81.5,195.0,733.0,2.0,0,
3400,1860.3,16.3,66.0,99.1,195.0,733.0,2.0,0,
3600,1857.7,15.5,66.1,67.0,195.0,733.0,2.0,0,
3700,1858.5,15.5,66.1,86.8,195.0,733.0,2.0,0,
3800,1858.8,19.9,66.1,145.0,195.0,733.0,2.0,0,
3900,1865.5,24.8,68.1,166.2,195.0,733.0,2.0,0,
4000,1828.3,28.3,63.2,213.1,211.0,969.0,2.0,0,
4100,1880.8,44.7,59.2,227.9,166.0,956.0,8.0,1,
4200,1852.1,17.1,43.2,210.3,159.0,773.0,2.0,0,
4300,1840.0,61.8,29.3,94.1,178.0,922.0,2.0,0,
4400,1876.5,32.0,35.1,105.9,170.0,843.0,7.0,1,
4600,1856.1,15.7,35.3,106.0,170.0,843.0,7.0,1,
4700,1859.6,16.0,35.3,135.5,170.0,843.0,7.0,1,
4800,1858.7,16.6,35.3,157.6,170.0,843.0,7.0,1,
4900,1859.2,17.5,35.3,140.0,170.0,843.0,7.0,1,
5000,1858.3,18.7,35.2,124.7,170.0,843.0,7.0,1,
5100,1858.3,18.3,35.3,117.5,170.0,843.0,7.0,1,
5200,1858.3,17.8,35.4,140.5,170.0,843.0,7.0,1,
5300,1857.6,18.4,35.5,150.2,170.0,843.0,7.0,1,
5400,1858.0,18.0,35.5,206.4,170.0,843.0,7.0,1,
5600,1873.8,22.4,44.7,29.9,148.0,949.0,9.0,1,
5700,1834.7,33.8,44.4,35.3,172.0,956.0,9.0,1,
5800,1865.9,29.7,44.0,40.8,113.0,628.0,7.0,1,
5900,1857.6,35.5,46.3,94.0,143.0,758.0,7.0,1,
6000,1841.8,55.4,42.5,108.4,210.0,923.0,2.0,0,
6100,1867.7,19.7,42.9,130.0,145.0,853.0,7.0,1,
6200,1858.3,18.5,43.0,54.2,145.0,853.0,7.0,1,
6300,1857.6,17.7,43.1,43.8,145.0,853.0,7.0,1,
6400,1859.1,18.3,43.1,49.5,145.0,853.0,7.0,1,
6600,1857.2,19.2,43.2,164.2,145.0,853.0,7.0,1,
6700,1857.8,19.3,43.2,150.4,145.0,853.0,7.0,1,
6800,1857.5,19.4,43.2,176.5,145.0,853.0,7.0,1,
6900,1857.7,19.5,43.3,198.0,145.0,853.0,7.0,1,
7000,1857.4,18.9,43.3,149.4,145.0,853.0,7.0,1,
7100,1854.6,32.5,33.6,140.3,113.0,652.0,11.0,1,
7200,1837.6,23.4,31.2,51.2,101.0,684.0,9.0,1,
7300,1880.1,45.1,30.9,29.5,176.0,960.0,8.0,1,
7400,1841.1,15.4,31.9,54.5,154.0,777.0,2.0,0,
7600,1870.7,25.4,32.4,219.5,116.0,593.0,7.0,1,
7700,1834.3,17.2,30.3,156.1,179.0,678.0,2.0,0,
7800,1857.7,21.9,30.7,155.4,179.0,678.0,2.0,0,
7900,1858.2,19.1,30.7,157.2,179.0,678.0,2.0,0,
8000,1859.0,19.2,30.7,102.6,179.0,678.0,2.0,0,
8100,1860.4,19.6,30.7,92.4,179.0,678.0,2.0,0,
8200,1857.7,19.4,30.8,109.3,179.0,678.0,2.0,0,
8300,1858.6,19.5,30.8,132.9,179.0,678.0,2.0,0,
8400,1858.3,19.9,30.8,172.9,179.0,678.0,2.0,0,
8600,1859.1,19.4,30.9,155.4,179.0,678.0,2.0,0,
8700,1868.7,40.2,30.9,138.4,123.0,660.0,7.0,1,
8800,1866.3,19.0,34.0,132.5,146.0,945.0,10.0,1,
8900,1833.5,68.0,34.0,153.9,195.0,873.0,2.0,0,
9000,1875.2,36.1,34.0,155.2,163.0,801.0,8.0,1,
9100,1855.0,26.2,36.8,98.6,167.0,758.0,2.0,0,
9200,1846.0,27.7,33.7,66.7,158.0,835.0,7.0,1,
9300,1875.6,23.1,34.8,132.5,107.0,608.0,7.0,1,
9400,1855.0,18.8,34.9,125.4,107.0,608.0,7.0,1,
9600,1859.2,20.0,34.5,163.3,107.0,608.0,7.0,1,
9700,1861.0,19.9,34.6,165.2,107.0,608.0,7.0,1,
9800,1858.0,20.2,34.6,150.3,107.0,608.0,7.0,1,
9900,1859.6,20.7,34.6,136.1,107.0,608.0,7.0,1,
10000,1859.7,20.0,34.6,132.1,107.0,608.0,7.0,1,
10100,1860.2,20.1,34.6,123.6,107.0,608.0,7.0,1,
10200,1859.7,20.5,34.6,176.0,107.0,608.0,7.0,1,
10300,1859.7,27.7,34.6,155.5,107.0,608.0,7.0,1,
10400,1857.1,52.2,41.8,54.3,151.0,939.0,9.0,1,
10600,1833.7,20.6,41.0,35.8,176.0,945.0,8.0,1,
10700,1875.1,43.9,39.6,38.5,98.0,748.0,2.0,0,
10800,1865.2,37.2,42.7,49.9,162.0,911.0,7.0,1,
10900,1830.4,70.5,42.7,117.3,168.0,658.0,2.0,0,
11000,1861.0,21.0,45.4,143.5,92.0,714.0,6.0,1,
11100,1856.9,19.8,45.4,69.2,92.0,714.0,6.0,1,
11200,1858.3,18.9,45.4,37.7,92.0,714.0,6.0,1,
11300,1859.8,19.9,45.3,39.9,92.0,714.0,6.0,1,
11400,1859.9,20.4,45.3,82.4,92.0,714.0,6.0,1,
11600,1859.4,20.3,45.4,141.7,92.0,714.0,6.0,1,
11700,1859.8,20.3,45.4,152.2,92.0,714.0,6.0,1,
11800,1859.1,19.8,45.4,140.4,92.0,714.0,6.0,1,
11900,1859.5,29.7,45.3,131.5,92.0,714.0,6.0,1,
12000,1849.4,20.5,44.8,151.2,171.0,1159.0,9.0,1,
12100,1858.0,25.4,36.2,146.4,128.0,860.0,5.0,1,
12200,1871.4,32.5,37.0,132.4,209.0,1093.0,8.0,1,
12300,1834.7,19.0,35.8,108.9,168.0,807.0,2.0,0,
12400,1861.0,30.0,31.8,148.1,123.0,703.0,7.0,1,
12600,1846.4,20.2,27.3,117.3,155.0,687.0,2.0,0,
12700,1857.7,19.2,27.4,195.9,155.0,687.0,2.0,0,
12800,1857.9,19.3,27.3,206.2,155.0,687.0,2.0,0,
12900,1858.6,21.2,27.3,155.4,155.0,687.0,2.0,0,
13000,1858.9,20.0,27.4,124.5,155.0,687.0,2.0,0,
13100,1858.3,19.4,27.3,155.2,155.0,687.0,2.0,0,
13200,1857.6,21.4,27.2,144.9,155.0,687.0,2.0,0,
13300,1858.4,20.0,27.3,189.5,155.0,687.0,2.0,0,
13400,1858.6,19.3,27.2,146.4,155.0,687.0,2.0,0,
13600,1874.6,46.0,26.0,122.8,124.0,716.0,10.0,1,
13700,1857.6,23.7,30.4,94.1,133.0,700.0,2.0,0,
13800,1843.2,105.7,33.8,103.8,191.0,995.0,8.0,1,
13900,1878.3,25.0,48.5,90.9,155.0,760.0,8.0,1,
14000,1841.8,37.4,48.5,29.6,157.0,801.0,8.0,1,
14100,1853.8,19.6,47.6,29.7,158.0,732.0,7.0,1,
14200,1869.1,20.4,49.2,38.7,107.0,630.0,7.0,1,
14300,1860.3,18.9,49.2,99.2,107.0,630.0,7.0,1,
14400,1858.9,19.3,49.2,132.0,107.0,630.0,7.0,1,
14600,1859.8,19.9,49.3,140.5,107.0,630.0,7.0,1,
14700,1859.3,20.3,49.3,146.3,107.0,630.0,7.0,1,
14800,1858.9,19.5,49.3,140.7,107.0,630.0,7.0,1,
14900,1859.1,19.8,49.3,141.6,107.0,630.0,7.0,1,rest_end
15000,1859.0,21.1,49.3,166.2,107.0,630.0,7.0,1,
15100,1859.9,19.8,49.4,178.2,107.0,630.0,7.0,1,
15200,1847.0,74.5,49.4,168.8,130.0,896.0,10.0,1,
15300,1875.5,44.7,57.5,35.1,142.0,878.0,9.0,1,
15400,1864.6,43.1,59.8,34.2,169.0,927.0,8.0,1,
15600,1876.1,36.1,48.3,52.0,110.0,764.0,5.0,1,
15700,1851.1,18.8,50.8,81.1,126.0,730.0,7.0,1,
15800,1848.7,17.3,49.3,110.4,217.0,656.0,2.0,0,
15900,1860.6,19.3,49.3,151.1,217.0,656.0,2.0,0,
16000,1859.4,18.8,49.3,149.0,217.0,656.0,2.0,0,
16100,1860.2,19.6,49.3,56.2,217.0,656.0,2.0,0,
16200,1860.4,20.0,49.3,83.5,217.0,656.0,2.0,0,
16300,1859.6,19.7,49.3,150.7,217.0,656.0,2.0,0,
16400,1859.0,19.5,49.3,178.5,217.0,656.0,2.0,0,
16600,1858.8,19.5,49.3,154.9,217.0,656.0,2.0,0,
16700,1858.4,19.5,49.3,177.8,217.0,656.0,2.0,0,
16800,1867.3,44.1,50.7,150.1,217.0,656.0,2.0,0,
16900,1841.6,16.9,39.4,178.6,155.0,1004.0,9.0,1,
17000,1852.0,25.9,36.0,204.9,154.0,832.0,8.0,1,
17100,1869.7,20.5,38.6,215.3,186.0,948.0,8.0,1,
17200,1840.3,126.0,35.1,176.1,210.0,931.0,2.0,0,
17300,1878.0,41.3,45.4,148.1,161.0,741.0,7.0,1,
17400,1858.3,20.9,47.1,35.7,151.0,693.0,2.0,0,
17600,1860.3,18.8,47.2,47.3,151.0,693.0,2.0,0,
17700,1861.2,20.9,47.2,158.8,151.0,693.0,2.0,0,
17800,1861.1,19.7,47.2,163.9,151.0,693.0,2.0,0,
17900,1859.4,19.1,47.2,214.0,151.0,693.0,2.0,0,
18000,1859.3,20.4,47.2,165.9,151.0,693.0,2.0,0,
18100,1859.5,20.2,47.2,149.0,151.0,693.0,2.0,0,
18200,1858.2,18.4,47.2,172.1,151.0,693.0,2.0,0,
18300,1857.8,20.1,47.2,133.5,151.0,693.0,2.0,0,
18400,1858.2,26.0,47.2,134.5,207.0,840.0,2.0,0,
18600,1844.4,29.6,48.2,122.2,197.0,945.0,2.0,0,
18700,1861.5,39.7,46.1,159.0,171.0,964.0,7.0,1,
18800,1866.7,17.3,48.0,195.5,148.0,674.0,2.0,0,
18900,1826.4,50.4,35.2,147.3,173.0,931.0,2.0,0,
19000,1883.8,30.7,43.2,124.1,123.0,655.0,7.0,1,
19100,1857.1,18.1,43.3,30.0,123.0,655.0,7.0,1,
19200,1859.5,19.0,43.2,29.4,123.0,655.0,7.0,1,
19300,1859.7,17.8,43.2,30.2,123.0,655.0,7.0,1,
19400,1860.9,17.2,43.1,56.1,123.0,655.0,7.0,1,
19600,1858.2,16.9,43.0,141.5,123.0,655.0,7.0,1,
19700,1857.3,16.7,42.9,135.5,123.0,655.0,7.0,1,
19800,1858.1,18.0,42.8,132.2,123.0,655.0,7.0,1,
19900,1858.4,17.6,42.8,139.2,123.0,655.0,7.0,1,
20000,1857.4,22.5,42.7,159.1,123.0,655.0,7.0,1,
20100,1843.8,27.5,41.3,107.5,140.0,895.0,2.0,0,
20200,1873.5,37.0,39.4,37.5,143.0,916.0,9.0,1,
20300,1826.2,31.8,41.2,85.3,158.0,1009.0,8.0,1,
20400,1870.7,59.0,48.7,156.9,118.0,658.0,7.0,1,
20600,1833.9,162.7,45.8,42.9,174.0,882.0,2.0,0,
20700,1858.3,23.5,62.8,68.2,99.0,603.0,7.0,1,
20800,1859.2,17.1,62.7,39.4,99.0,603.0,7.0,1,
20900,1858.5,16.5,62.7,35.1,99.0,603.0,7.0,1,
21000,1859.9,17.9,62.7,35.0,99.0,603.0,7.0,1,
21100,1858.0,17.5,62.7,38.7,99.0,603.0,7.0,1,
21200,1857.1,16.7,62.6,178.0,99.0,603.0,7.0,1,
21300,1857.5,17.8,62.6,213.7,99.0,603.0,7.0,1,
21400,1858.4,17.5,62.7,165.7,99.0,603.0,7.0,1,
21600,1858.7,18.0,62.7,145.7,99.0,603.0,7.0,1,
21700,1851.1,31.2,63.7,131.8,156.0,940.0,9.0,1,
21800,1852.9,55.4,64.3,115.7,96.0,632.0,8.0,1,
21900,1880.0,49.2,66.7,101.2,96.0,679.0,2.0,0,
22000,1840.1,16.3,60.0,74.6,144.0,776.0,8.0,1,
22100,1854.8,21.8,57.9,91.5,163.0,857.0,7.0,1,
22200,1876.0,29.1,59.6,102.7,167.0,790.0,7.0,1,
22300,1848.7,16.3,40.0,151.9,126.0,708.0,2.0,0,
22400,1858.7,15.2,40.0,189.4,126.0,708.0,2.0,0,
22600,1859.3,17.9,40.0,266.9,126.0,708.0,2.0,0,
22700,1858.8,16.1,40.0,234.5,126.0,708.0,2.0,0,
22800,1858.0,17.2,39.9,124.4,126.0,708.0,2.0,0,
22900,1857.9,16.8,39.9,140.2,126.0,708.0,2.0,0,
23000,1858.2,16.2,39.9,187.8,126.0,708.0,2.0,0,
23100,1857.8,17.1,39.9,184.3,126.0,708.0,2.0,0,
23200,1858.4,16.6,39.9,196.2,126.0,708.0,2.0,0,
23300,1875.9,41.1,38.5,171.5,103.0,577.0,9.0,1,
23400,1858.8,15.7,40.7,108.8,161.0,1054.0,9.0,1,
23600,1877.1,35.7,50.1,117.5,147.0,811.0,7.0,1,
23700,1845.0,20.9,50.3,30.1,171.0,1046.0,2.0,0,
23800,1857.8,40.0,49.9,29.9,173.0,885.0,7.0,1,
23900,1868.4,17.4,49.1,36.5,123.0,608.0,7.0,1,
24000,1860.2,16.9,49.1,29.9,123.0,608.0,7.0,1,
24100,1861.2,16.3,49.1,42.2,123.0,608.0,7.0,1,
24200,1860.6,16.3,49.1,104.8,123.0,608.0,7.0,1,
24300,1858.7,17.3,49.1,133.1,123.0,608.0,7.0,1,
24400,1858.6,15.9,49.1,167.1,123.0,608.0,7.0,1,
24600,1859.2,16.5,49.1,178.6,123.0,608.0,7.0,1,
24700,1859.6,16.6,49.1,173.6,123.0,608.0,7.0,1,
24800,1859.0,16.2,49.1,177.1,123.0,608.0,7.0,1,
24900,1851.3,27.0,49.1,195.9,146.0,683.0,2.0,0,
25000,1862.9,34.0,47.3,49.1,151.0,1016.0,8.0,1,
25100,1862.4,31.7,49.1,29.5,150.0,930.0,2.0,0,
25200,1833.9,155.0,31.0,38.6,185.0,1197.0,8.0,1,
25300,1876.2,38.4,47.2,65.9,127.0,735.0,7.0,1,
25400,1855.8,33.3,48.1,34.8,182.0,1059.0,8.0,1,
25600,1858.0,16.4,45.6,39.0,182.0,1059.0,8.0,1,
25700,1859.6,15.6,45.6,42.6,182.0,1059.0,8.0,1,
25800,1860.8,17.0,45.6,55.1,182.0,1059.0,8.0,1,
25900,1860.3,16.7,45.6,85.2,182.0,1059.0,8.0,1,
26000,1858.8,16.2,45.6,166.7,182.0,1059.0,8.0,1,
26100,1858.6,16.5,45.6,174.3,182.0,1059.0,8.0,1,
26200,1858.0,16.6,45.6,168.7,182.0,1059.0,8.0,1,
26300,1858.2,15.7,45.6,195.4,182.0,1059.0,8.0,1,
26400,1858.7,16.4,45.6,145.8,182.0,1059.0,8.0,1,
26600,1835.3,22.8,46.5,155.9,159.0,1038.0,9.0,1,
26700,1861.9,41.2,49.0,136.1,177.0,1113.0,9.0,1,
26800,1867.2,27.6,51.2,166.2,186.0,1011.0,8.0,1,
26900,1829.3,49.7,36.1,166.5,256.0,916.0,2.0,0,
27000,1881.0,55.6,40.6,157.3,256.0,916.0,2.0,0,
27100,1852.5,19.6,41.9,200.5,157.0,879.0,8.0,1,
27200,1854.8,15.7,42.0,220.4,157.0,879.0,8.0,1,
27300,1859.2,16.5,42.0,190.1,157.0,879.0,8.0,1,
27400,1860.5,17.6,42.0,171.6,157.0,879.0,8.0,1,
27600,1860.2,17.5,42.1,98.7,157.0,879.0,8.0,1,
27700,1859.4,15.8,42.1,83.5,157.0,879.0,8.0,1,
27800,1859.6,16.7,42.2,81.8,157.0,879.0,8.0,1,
27900,1856.8,16.5,42.2,87.2,157.0,879.0,8.0,1,
28000,1859.1,16.5,42.2,88.6,157.0,879.0,8.0,1,
28100,1858.3,31.1,42.2,98.8,157.0,879.0,8.0,1,
28200,1881.4,40.9,44.9,163.8,157.0,879.0,8.0,1,
28300,1835.3,16.6,42.7,187.3,214.0,1014.0,2.0,0,
28400,1866.5,43.6,41.5,194.4,236.0,1162.0,2.0,0,
28600,1832.1,22.2,38.4,156.1,220.0,1129.0,2.0,0,
28700,1871.8,30.9,39.6,155.8,201.0,1089.0,8.0,1,
28800,1861.8,16.6,40.3,187.8,201.0,1089.0,8.0,1,
28900,1861.2,15.4,40.3,187.5,201.0,1089.0,8.0,1,
29000,1860.3,15.8,40.3,163.6,201.0,1089.0,8.0,1,
29100,1860.4,16.3,40.2,145.4,201.0,1089.0,8.0,1,
29200,1858.2,16.2,40.2,133.7,201.0,1089.0,8.0,1,
29300,1858.3,15.8,40.1,122.8,201.0,1089.0,8.0,1,
29400,1857.6,16.5,40.1,133.8,201.0,1089.0,8.0,1,
29600,1858.1,15.8,40.0,142.0,201.0,1089.0,8.0,1,
29700,1858.3,14.7,40.0,143.8,201.0,1089.0,8.0,1,
29800,1851.1,52.5,38.6,178.1,197.0,792.0,2.0,0,
29900,1877.5,22.8,39.8,206.1,197.0,792.0,2.0,0,
30000,1843.9,26.0,39.7,195.8,179.0,973.0,2.0,0,
30100,1851.5,42.4,39.9,135.5,160.0,935.0,2.0,0,
30200,1874.1,27.9,42.2,132.4,185.0,1050.0,2.0,0,
30300,1835.8,27.7,38.9,195.5,169.0,1136.0,8.0,1,
30400,1857.1,16.6,38.2,163.9,191.0,950.0,2.0,0,
30600,1858.9,16.1,38.2,29.7,191.0,950.0,2.0,0,
30700,1859.0,16.9,38.2,43.9,191.0,950.0,2.0,0,
30800,1859.6,16.8,38.2,117.1,191.0,950.0,2.0,0,
30900,1860.1,17.5,38.3,177.5,191.0,950.0,2.0,0,
31000,1860.6,17.1,38.2,177.4,191.0,950.0,2.0,0,
31100,1860.1,16.8,38.3,163.4,191.0,950.0,2.0,0,
31200,1859.8,17.0,38.3,202.0,191.0,950.0,2.0,0,
31300,1860.7,17.5,38.3,177.7,191.0,950.0,2.0,0,
31400,1859.0,34.2,40.5,277.1,173.0,849.0,2.0,0,
31600,1880.5,43.8,40.4,246.8,173.0,849.0,2.0,0,
31700,1840.5,18.8,37.8,157.7,155.0,884.0,8.0,1,
31800,1853.7,34.7,36.2,133.6,225.0,892.0,2.0,0,
31900,1870.9,26.3,38.4,146.9,183.0,968.0,7.0,1,
32000,1840.8,17.6,38.3,145.0,192.0,1018.0,8.0,1,
32100,1858.0,15.5,38.3,133.3,192.0,1018.0,8.0,1,
32200,1859.8,16.4,38.3,68.4,192.0,1018.0,8.0,1,
32300,1860.0,17.3,38.3,55.2,192.0,1018.0,8.0,1,
32400,1860.4,17.0,38.3,130.8,192.0,1018.0,8.0,1,
32600,1860.6,17.3,38.3,140.5,192.0,1018.0,8.0,1,
32700,1859.7,17.3,38.3,131.9,192.0,1018.0,8.0,1,
32800,1860.2,16.8,38.3,166.4,192.0,1018.0,8.0,1,
32900,1858.8,16.8,38.3,168.5,192.0,1018.0,8.0,1,
33000,1875.0,62.2,38.2,117.8,192.0,1018.0,8.0,1,
33100,1854.7,23.6,40.5,124.5,172.0,1057.0,9.0,1,
33200,1837.5,36.9,36.6,151.9,236.0,1057.0,2.0,0,
33300,1878.3,28.7,38.2,153.1,153.0,792.0,7.0,1,
33400,1829.2,16.8,38.3,125.2,209.0,888.0,2.0,0,
33600,1864.0,19.8,39.8,124.6,209.0,888.0,2.0,0,
33700,1857.6,16.3,39.8,157.2,209.0,888.0,2.0,0,
33800,1859.7,15.9,39.8,189.3,209.0,888.0,2.0,0,
33900,1859.0,16.1,39.8,220.5,209.0,888.0,2.0,0,
34000,1857.7,16.1,39.8,212.6,209.0,888.0,2.0,0,
34100,1857.5,16.6,39.8,166.6,209.0,888.0,2.0,0,
34200,1858.0,16.4,39.8,166.9,209.0,888.0,2.0,0,
34300,1858.7,17.3,39.7,124.8,209.0,888.0,2.0,0,
34400,1859.3,16.7,39.8,137.1,209.0,888.0,2.0,0,
34600,1856.3,35.6,38.3,148.7,245.0,1039.0,2.0,0,
34700,1875.3,40.5,41.7,253.8,245.0,1039.0,2.0,0,
34800,1847.1,21.7,43.7,231.1,189.0,1077.0,2.0,0,
34900,1858.2,52.1,42.2,209.3,196.0,932.0,2.0,0,
35000,1878.0,27.3,44.8,194.6,196.0,932.0,2.0,0,
35100,1840.8,30.1,43.3,164.7,215.0,1059.0,7.0,1,
35200,1859.8,23.2,41.2,154.3,199.0,1176.0,8.0,1,
35300,1856.7,14.7,41.2,124.3,199.0,1176.0,8.0,1,
35400,1860.9,16.1,41.2,87.7,199.0,1176.0,8.0,1,
35600,1860.7,16.8,41.2,110.6,199.0,1176.0,8.0,1,
35700,1858.0,15.9,41.2,122.2,199.0,1176.0,8.0,1,
35800,1857.6,16.4,41.2,123.6,199.0,1176.0,8.0,1,
35900,1858.6,16.9,41.2,147.4,199.0,1176.0,8.0,1,
36000,1858.9,16.2,41.2,196.9,199.0,1176.0,8.0,1,
36100,1858.9,15.9,41.2,132.5,199.0,1176.0,8.0,1,
36200,1855.3,21.3,41.2,134.3,198.0,968.0,2.0,0,
36300,1834.2,34.8,35.1,75.0,166.0,1005.0,2.0,0,
36400,1877.5,42.3,35.5,29.2,230.0,1438.0,9.0,1,
36600,1840.2,39.2,36.0,132.2,204.0,1066.0,2.0,0,
36700,1879.5,33.9,37.9,187.1,189.0,1315.0,7.0,1,
36800,1837.4,26.8,36.9,142.3,181.0,1018.0,8.0,1,
36900,1852.7,15.4,36.9,54.2,181.0,1018.0,8.0,1,
37000,1859.0,16.5,36.9,37.4,181.0,1018.0,8.0,1,
37100,1861.0,17.1,36.9,35.8,181.0,1018.0,8.0,1,
37200,1860.8,16.5,36.9,57.0,181.0,1018.0,8.0,1,
37300,1858.5,16.8,36.9,135.3,181.0,1018.0,8.0,1,
37400,1857.7,16.4,36.9,133.6,181.0,1018.0,8.0,1,
37600,1858.6,17.4,36.9,158.0,181.0,1018.0,8.0,1,
37700,1858.8,17.1,36.9,147.9,181.0,1018.0,8.0,1,
37800,1858.4,26.8,36.9,176.8,181.0,1018.0,8.0,1,
37900,1873.2,40.5,42.0,155.2,181.0,1018.0,8.0,1,
38000,1829.8,38.2,40.5,200.0,217.0,976.0,2.0,0,
38100,1877.2,64.6,39.8,227.9,217.0,976.0,2.0,0,
38200,1848.9,17.4,42.9,208.4,180.0,1000.0,8.0,1,
38300,1847.5,41.2,41.8,159.1,207.0,939.0,2.0,0,
38400,1879.2,31.9,45.3,205.5,207.0,939.0,2.0,0,
38600,1860.0,17.4,45.2,163.9,207.0,939.0,2.0,0,
38700,1860.1,15.4,45.2,159.1,207.0,939.0,2.0,0,
38800,1860.3,16.8,45.2,173.5,207.0,939.0,2.0,0,
38900,1858.2,16.9,45.2,166.4,207.0,939.0,2.0,0,
39000,1857.8,15.9,45.2,199.4,207.0,939.0,2.0,0,
39100,1857.9,16.3,45.2,176.2,207.0,939.0,2.0,0,
39200,1858.3,17.4,45.2,169.6,207.0,939.0,2.0,0,
39300,1858.5,16.0,45.2,178.4,207.0,939.0,2.0,0,
39400,1858.3,16.2,45.2,178.3,207.0,939.0,2.0,0,
39600,1866.7,21.0,43.6,159.0,131.0,823.0,9.0,1,
39700,1833.1,21.0,39.9,130.7,225.0,1034.0,2.0,0,
39800,1875.7,41.6,38.4,100.5,239.0,1076.0,2.0,0,
39900,1836.6,16.7,39.8,101.7,195.0,859.0,2.0,0,
40000,1865.4,54.2,35.2,139.3,229.0,1134.0,2.0,0,
40100,1863.3,18.0,36.1,155.6,229.0,1134.0,2.0,0,
40200,1858.3,15.6,36.2,131.4,229.0,1134.0,2.0,0,
40300,1858.8,16.0,36.1,122.6,229.0,1134.0,2.0,0,
40400,1858.4,17.4,36.1,108.4,229.0,1134.0,2.0,0,
40600,1857.7,16.3,36.1,123.4,229.0,1134.0,2.0,0,
40700,1858.3,17.1,36.1,117.2,229.0,1134.0,2.0,0,
40800,1859.1,16.2,36.2,157.1,229.0,1134.0,2.0,0,
40900,1859.0,16.3,36.1,159.0,229.0,1134.0,2.0,0,
41000,1858.6,16.8,36.1,156.7,229.0,1134.0,2.0,0,
41100,1842.2,24.8,34.3,141.3,194.0,844.0,2.0,0,
41200,1865.2,43.7,37.2,187.7,208.0,1063.0,2.0,0,
41300,1856.2,29.2,41.9,230.7,182.0,947.0,2.0,0,
41400,1844.8,45.6,39.8,220.8,197.0,1174.0,2.0,0,
41600,1848.1,31.3,43.9,189.3,187.0,1074.0,2.0,0,
41700,1838.3,17.6,41.5,167.5,167.0,1045.0,8.0,1,
41800,1859.0,15.5,41.5,189.8,167.0,1045.0,8.0,1,
41900,1859.2,16.0,41.5,158.8,167.0,1045.0,8.0,1,
42000,1860.1,15.9,41.5,37.8,167.0,1045.0,8.0,1,
42100,1860.2,16.2,41.5,100.3,167.0,1045.0,8.0,1,
42200,1858.5,17.0,41.5,118.0,167.0,1045.0,8.0,1,
42300,1857.5,15.5,41.5,139.8,167.0,1045.0,8.0,1,
42400,1858.7,16.7,41.5,149.7,167.0,1045.0,8.0,1,
42600,1858.6,16.0,41.5,205.4,167.0,1045.0,8.0,1,
42700,1859.5,23.8,42.5,232.4,168.0,785.0,2.0,0,
42800,1840.2,59.5,38.2,225.6,213.0,1271.0,9.0,1,
42900,1878.3,39.2,38.4,212.9,213.0,1271.0,9.0,1,
43000,1858.8,33.9,39.2,206.2,179.0,1114.0,8.0,1,
43100,1833.1,37.1,37.0,168.8,160.0,949.0,8.0,1,
43200,1880.0,42.5,40.6,131.3,160.0,949.0,8.0,1,
43300,1848.7,20.5,40.9,163.7,175.0,1033.0,8.0,1,
43400,1858.2,16.1,40.9,189.7,175.0,1033.0,8.0,1,
43600,1860.1,16.6,40.9,148.0,175.0,1033.0,8.0,1,
43700,1860.2,16.5,40.9,87.2,175.0,1033.0,8.0,1,
43800,1857.5,15.9,40.9,166.7,175.0,1033.0,8.0,1,
43900,1857.2,17.0,40.9,177.5,175.0,1033.0,8.0,1,
44000,1856.8,16.7,40.9,154.7,175.0,1033.0,8.0,1,
44100,1857.9,15.6,40.9,155.7,175.0,1033.0,8.0,1,
44200,1858.2,16.7,40.9,167.3,175.0,1033.0,8.0,1,
44300,1868.8,30.9,41.1,140.8,175.0,1033.0,8.0,1,
44400,1863.6,38.4,43.4,130.3,160.0,1019.0,2.0,0,
44600,1880.8,60.7,43.7,189.1,160.0,1019.0,2.0,0,
44700,1847.6,20.8,45.8,209.3,153.0,849.0,8.0,1,
44800,1856.3,42.6,42.9,196.9,230.0,950.0,2.0,0,
44900,1873.3,29.7,44.9,189.9,230.0,950.0,2.0,0,
45000,1855.0,16.5,45.0,158.3,230.0,950.0,2.0,0,
45100,1859.2,16.0,45.0,187.0,230.0,950.0,2.0,0,
45200,1859.7,16.3,45.0,220.9,230.0,950.0,2.0,0,
45300,1860.2,16.0,45.0,247.4,230.0,950.0,2.0,0,
45400,1858.3,16.4,45.0,98.9,230.0,950.0,2.0,0,
45600,1857.4,15.9,45.0,132.1,230.0,950.0,2.0,0,
45700,1858.4,16.3,45.0,146.5,230.0,950.0,2.0,0,
45800,1858.2,16.8,45.0,145.1,230.0,950.0,2.0,0,
45900,1857.7,19.5,45.0,137.5,216.0,891.0,2.0,0,
46000,1879.8,57.4,45.3,157.7,216.0,891.0,2.0,0,
46100,1853.1,22.8,47.2,158.5,149.0,921.0,9.0,1,
46200,1845.5,46.5,44.4,158.1,203.0,1014.0,2.0,0,
46300,1880.8,50.5,44.9,186.5,203.0,1014.0,2.0,0,
46400,1838.7,23.5,47.2,189.9,244.0,1167.0,2.0,0,
46600,1858.3,16.3,44.4,205.6,244.0,1167.0,2.0,0,
46700,1859.4,15.8,44.4,168.2,244.0,1167.0,2.0,0,
46800,1860.2,15.5,44.4,154.0,244.0,1167.0,2.0,0,
46900,1860.7,16.6,44.4,141.0,244.0,1167.0,2.0,0,
47000,1858.3,16.8,44.3,133.2,244.0,1167.0,2.0,0,
47100,1857.5,15.6,44.4,122.8,244.0,1167.0,2.0,0,
47200,1858.1,16.7,44.4,132.1,244.0,1167.0,2.0,0,
47300,1857.5,16.9,44.4,122.2,244.0,1167.0,2.0,0,
47400,1857.6,16.3,44.4,123.4,244.0,1167.0,2.0,0,
47600,1840.2,45.3,41.4,86.0,220.0,1061.0,2.0,0,
47700,1876.5,44.0,42.2,124.6,220.0,1061.0,2.0,0,
47800,1844.8,26.1,43.3,155.4,189.0,1068.0,2.0,0,
47900,1859.2,49.2,40.7,157.8,256.0,1820.0,8.0,1,
48000,1874.5,23.0,40.6,165.0,223.0,1112.0,7.0,1,
48100,1829.4,47.8,38.5,169.9,215.0,1181.0,7.0,1,
48200,1857.4,17.7,41.4,187.7,215.0,1181.0,7.0,1,
48300,1859.7,15.5,41.4,243.5,215.0,1181.0,7.0,1,
48400,1862.4,16.1,41.4,264.7,215.0,1181.0,7.0,1,
48600,1859.9,15.8,41.4,233.4,215.0,1181.0,7.0,1,
48700,1859.2,16.2,41.4,147.0,215.0,1181.0,7.0,1,
48800,1858.3,16.4,41.4,136.2,215.0,1181.0,7.0,1,
48900,1858.7,15.9,41.4,140.6,215.0,1181.0,7.0,1,
49000,1858.8,16.7,41.4,133.3,215.0,1181.0,7.0,1,
49100,1858.6,15.8,41.4,132.7,215.0,1181.0,7.0,1,
49200,1854.7,18.8,41.3,117.3,190.0,886.0,2.0,0,
49300,1849.5,48.5,38.6,68.5,215.0,1128.0,2.0,0,
49400,1879.5,33.6,42.7,89.4,215.0,1128.0,2.0,0,
49600,1869.0,50.4,41.2,148.3,216.0,1067.0,8.0,1,
49700,1856.8,39.8,47.0,164.4,214.0,978.0,7.0,1,
49800,1851.2,17.9,43.6,156.8,230.0,1072.0,7.0,1,
49900,1858.2,15.8,43.6,188.1,230.0,1072.0,7.0,1,
50000,1861.0,16.0,43.6,215.7,230.0,1072.0,7.0,1,
50100,1861.0,16.0,43.6,157.2,230.0,1072.0,7.0,1,
50200,1859.8,17.0,43.6,88.6,230.0,1072.0,7.0,1,
50300,1858.3,17.3,43.6,135.8,230.0,1072.0,7.0,1,
50400,1858.2,16.2,43.6,186.7,230.0,1072.0,7.0,1,
50600,1857.7,17.0,43.6,139.0,230.0,1072.0,7.0,1,
50700,1857.9,16.4,43.6,145.9,230.0,1072.0,7.0,1,
50800,1872.4,23.2,45.1,150.2,230.0,1072.0,7.0,1,
50900,1842.4,89.1,44.9,130.5,353.0,1876.0,2.0,0,
51000,1857.5,56.8,47.1,99.1,199.0,1107.0,9.0,1,
51100,1858.8,35.4,46.9,36.4,243.0,1428.0,8.0,1,
51200,1842.6,45.2,43.9,37.4,176.0,854.0,8.0,1,
51300,1880.3,50.2,41.0,56.9,176.0,854.0,8.0,1,
51400,1854.3,19.7,42.8,103.4,180.0,993.0,7.0,1,
51600,1860.2,15.7,42.8,178.1,180.0,993.0,7.0,1,
51700,1859.7,16.0,42.8,195.8,180.0,993.0,7.0,1,
51800,1859.2,16.9,42.8,152.8,180.0,993.0,7.0,1,
51900,1857.0,17.0,42.8,199.2,180.0,993.0,7.0,1,
52000,1856.3,16.3,42.8,157.1,180.0,993.0,7.0,1,
52100,1856.2,17.5,42.8,158.3,180.0,993.0,7.0,1,
52200,1856.0,16.5,42.8,163.1,180.0,993.0,7.0,1,
52300,1857.2,16.9,42.8,171.9,180.0,993.0,7.0,1,
52400,1866.0,35.9,44.0,214.3,180.0,993.0,7.0,1,
52600,1835.0,47.2,42.0,188.6,151.0,940.0,2.0,0,
52700,1880.7,48.5,44.4,188.5,151.0,940.0,2.0,0,
52800,1852.5,28.4,45.1,158.5,136.0,790.0,8.0,1,
52900,1843.2,37.7,45.9,133.0,178.0,886.0,2.0,0,
53000,1879.0,22.9,46.4,159.0,178.0,886.0,2.0,0,
53100,1857.6,16.2,46.3,226.3,178.0,886.0,2.0,0,
53200,1859.5,15.7,46.3,197.0,178.0,886.0,2.0,0,
53300,1859.3,16.3,46.3,163.1,178.0,886.0,2.0,0,
53400,1858.8,17.0,46.3,157.9,178.0,886.0,2.0,0,
53600,1857.7,16.6,46.3,116.8,178.0,886.0,2.0,0,
53700,1858.0,17.0,46.3,118.1,178.0,886.0,2.0,0,
53800,1858.3,16.9,46.3,176.4,178.0,886.0,2.0,0,
53900,1858.2,17.0,46.3,177.9,178.0,886.0,2.0,0,
54000,1853.7,13.4,44.7,186.7,167.0,904.0,2.0,0,
54100,1877.0,50.2,43.5,134.0,188.0,898.0,2.0,0,
54200,1856.7,32.5,44.7,136.7,166.0,945.0,8.0,1,
54300,1836.0,36.0,40.6,125.2,240.0,1056.0,2.0,0,
54400,1880.5,40.6,44.5,99.6,240.0,1056.0,2.0,0,
54600,1868.5,31.9,41.4,157.8,212.0,872.0,2.0,0,
54700,1855.2,16.9,41.5,202.1,212.0,872.0,2.0,0,
54800,1859.7,16.4,41.5,198.6,212.0,872.0,2.0,0,
54900,1859.0,16.6,41.4,168.8,212.0,872.0,2.0,0,
55000,1859.6,16.6,41.5,144.0,212.0,872.0,2.0,0,
55100,1858.1,17.4,41.5,123.1,212.0,872.0,2.0,0,
55200,1858.1,17.0,41.5,140.2,212.0,872.0,2.0,0,
55300,1858.6,16.6,41.5,133.7,212.0,872.0,2.0,0,
55400,1858.6,16.8,41.5,149.4,212.0,872.0,2.0,0,
55600,1858.8,14.6,41.5,146.0,212.0,872.0,2.0,0,
55700,1836.8,21.9,39.8,89.1,229.0,1049.0,2.0,0,
55800,1875.3,53.8,41.1,89.5,229.0,1049.0,2.0,0,
55900,1846.2,14.0,43.0,130.6,180.0,918.0,2.0,0,
56000,1858.4,48.4,40.0,157.7,245.0,1002.0,2.0,0,
56100,1874.8,23.8,42.2,217.4,245.0,1002.0,2.0,0,
56200,1833.8,23.3,39.6,187.9,224.0,1216.0,2.0,0,
56300,1853.5,16.2,37.7,188.3,224.0,1216.0,2.0,0,
56400,1859.2,16.3,37.6,218.0,224.0,1216.0,2.0,0,
56600,1859.8,16.5,37.6,85.3,224.0,1216.0,2.0,0,
56700,1859.0,16.9,37.6,117.7,224.0,1216.0,2.0,0,
56800,1859.0,16.8,37.6,148.4,224.0,1216.0,2.0,0,
56900,1858.9,16.9,37.6,118.1,224.0,1216.0,2.0,0,
57000,1858.8,16.9,37.6,117.2,224.0,1216.0,2.0,0,
57100,1859.9,16.8,37.6,125.9,224.0,1216.0,2.0,0,
57200,1858.8,31.3,37.6,137.0,224.0,1216.0,2.0,0,
57300,1853.2,16.3,39.1,252.9,175.0,853.0,2.0,0,
57400,1853.8,51.3,39.0,268.5,225.0,1276.0,2.0,0,
57600,1838.5,45.3,40.0,221.6,204.0,1061.0,2.0,0,
57700,1870.0,46.7,39.3,209.9,204.0,1061.0,2.0,0,
57800,1859.2,17.7,40.3,230.2,185.0,917.0,2.0,0,
57900,1845.5,16.6,40.2,218.5,185.0,1115.0,2.0,0,
58000,1860.0,16.4,40.3,187.4,185.0,1115.0,2.0,0,
58100,1859.8,16.3,40.3,149.1,185.0,1115.0,2.0,0,
58200,1859.4,17.2,40.3,89.6,185.0,1115.0,2.0,0,
58300,1859.5,17.1,40.3,145.6,185.0,1115.0,2.0,0,
58400,1858.1,17.4,40.3,135.3,185.0,1115.0,2.0,0,
58600,1858.9,16.5,40.3,143.1,185.0,1115.0,2.0,0,
58700,1859.2,16.6,40.3,117.4,185.0,1115.0,2.0,0,
58800,1858.9,17.5,40.3,123.8,185.0,1115.0,2.0,0,
58900,1874.6,23.5,40.3,109.7,185.0,1115.0,2.0,0,
59000,1836.3,28.0,40.3,108.6,203.0,1258.0,2.0,0,
59100,1861.8,46.0,35.8,118.0,216.0,1199.0,9.0,1,
59200,1867.9,22.8,40.3,124.3,176.0,956.0,2.0,0,
59300,1833.2,45.2,35.6,155.6,184.0,1071.0,7.0,1,
59400,1881.4,36.9,37.4,201.2,184.0,1071.0,7.0,1,
59600,1858.5,16.5,38.6,154.5,184.0,1071.0,7.0,1,
59700,1859.2,16.7,38.6,137.7,184.0,1071.0,7.0,1,
59800,1859.3,16.8,38.6,125.3,184.0,1071.0,7.0,1,
59900,1859.1,17.3,38.6,117.9,184.0,1071.0,7.0,1,
60000,1857.5,17.5,38.6,178.6,184.0,1071.0,7.0,1,
60100,1857.5,16.7,38.7,166.9,184.0,1071.0,7.0,1,
60200,1858.3,17.2,38.6,145.8,184.0,1071.0,7.0,1,
60300,1858.2,17.0,38.6,157.9,184.0,1071.0,7.0,1,
60400,1858.8,17.3,38.7,178.2,184.0,1071.0,7.0,1,
60600,1867.0,25.6,42.9,237.2,174.0,1078.0,2.0,0,
60700,1832.6,30.9,41.6,236.3,206.0,1241.0,9.0,1,
60800,1874.7,35.6,38.4,237.2,199.0,1226.0,9.0,1,
60900,1839.0,28.4,39.3,166.5,204.0,1102.0,8.0,1,
61000,1863.4,43.7,37.0,123.6,185.0,1015.0,8.0,1,
61100,1871.4,20.1,38.2,107.7,185.0,1015.0,8.0,1,
61200,1859.3,17.0,38.2,109.2,185.0,1015.0,8.0,1,
61300,1859.7,16.2,38.2,131.7,185.0,1015.0,8.0,1,
61400,1860.1,17.1,38.2,145.1,185.0,1015.0,8.0,1,
61600,1859.0,16.7,38.2,188.8,185.0,1015.0,8.0,1,
61700,1858.1,17.0,38.2,151.1,185.0,1015.0,8.0,1,
61800,1858.0,17.6,38.2,153.9,185.0,1015.0,8.0,1,
61900,1858.5,17.2,38.2,173.5,185.0,1015.0,8.0,1,
62000,1858.0,16.8,38.2,166.9,185.0,1015.0,8.0,1,
62100,1858.4,37.2,35.8,178.3,195.0,1089.0,2.0,0,
62200,1877.2,38.4,35.5,194.6,195.0,1089.0,2.0,0,
62300,1839.7,37.1,40.4,188.2,216.0,1300.0,8.0,1,
62400,1861.1,43.9,39.9,199.0,164.0,927.0,2.0,0,
62600,1834.7,20.6,42.9,168.4,155.0,990.0,8.0,1,
62700,1871.8,24.1,42.3,153.0,185.0,933.0,2.0,0,
62800,1856.7,16.2,42.3,155.5,185.0,933.0,2.0,0,
62900,1859.3,15.7,42.3,134.3,185.0,933.0,2.0,0,
63000,1859.3,17.7,42.3,131.5,185.0,933.0,2.0,0,
63100,1864.3,17.1,42.3,123.1,185.0,933.0,2.0,0,
63200,1859.1,16.9,42.3,112.2,185.0,933.0,2.0,0,
63300,1857.8,17.7,42.3,117.5,185.0,933.0,2.0,0,
63400,1857.3,16.6,42.3,176.8,185.0,933.0,2.0,0,
63600,1856.8,17.7,42.3,197.3,185.0,933.0,2.0,0,
63700,1843.1,25.4,42.3,196.9,172.0,1084.0,2.0,0,
63800,1863.5,45.7,40.5,83.1,173.0,991.0,2.0,0,
63900,1876.5,48.3,41.0,70.9,173.0,991.0,2.0,0,
64000,1832.5,20.9,41.1,122.4,184.0,1071.0,8.0,1,
64100,1866.6,40.0,41.0,156.8,194.0,1052.0,8.0,1,
64200,1861.2,31.6,45.2,186.9,151.0,776.0,7.0,1,
64300,1851.4,31.9,46.7,172.8,184.0,993.0,2.0,0,
64400,1853.9,16.3,46.6,234.0,184.0,993.0,2.0,0,
64600,1859.8,16.0,46.6,267.8,184.0,993.0,2.0,0,
64700,1860.0,16.6,46.6,254.2,184.0,993.0,2.0,0,
64800,1859.7,18.2,46.6,226.5,184.0,993.0,2.0,0,
64900,1858.9,16.6,46.6,152.2,184.0,993.0,2.0,0,
65000,1858.3,17.5,46.6,154.0,184.0,993.0,2.0,0,
65100,1857.8,17.4,46.6,208.9,184.0,993.0,2.0,0,
65200,1858.8,16.6,46.6,233.5,184.0,993.0,2.0,0,
65300,1858.3,21.6,46.6,231.2,184.0,993.0,2.0,0,
65400,1846.5,20.1,46.7,77.7,142.0,970.0,10.0,1,
65600,1866.6,32.0,46.6,37.8,159.0,955.0,8.0,1,
65700,1840.1,15.0,43.6,123.5,223.0,1105.0,2.0,0,
65800,1876.5,41.0,39.4,158.8,252.0,1084.0,2.0,0,
65900,1858.4,16.7,43.0,188.6,149.0,945.0,8.0,1,
66000,1845.6,16.5,38.3,177.2,189.0,1166.0,2.0,0,
66100,1860.2,16.5,38.3,220.2,189.0,1166.0,2.0,0,
66200,1858.9,16.2,38.3,252.6,189.0,1166.0,2.0,0,
66300,1859.1,17.2,38.3,231.8,189.0,1166.0,2.0,0,
66400,1859.9,16.6,38.3,143.7,189.0,1166.0,2.0,0,
66600,1858.3,17.3,38.2,186.7,189.0,1166.0,2.0,0,
66700,1858.9,16.7,38.2,178.2,189.0,1166.0,2.0,0,
66800,1858.8,17.3,38.2,183.5,189.0,1166.0,2.0,0,
66900,1858.5,17.7,38.2,172.1,189.0,1166.0,2.0,0,
67000,1871.8,35.5,42.5,143.1,189.0,1166.0,2.0,0,
67100,1837.8,21.1,41.5,157.8,192.0,1141.0,2.0,0,
67200,1866.6,49.5,39.5,217.8,211.0,1056.0,2.0,0,
67300,1870.8,29.5,44.4,237.1,211.0,1056.0,2.0,0,
67400,1829.1,43.6,43.1,207.2,235.0,1315.0,2.0,0,
67600,1860.8,20.7,45.0,220.2,235.0,1315.0,2.0,0,
67700,1860.2,16.0,45.0,189.8,235.0,1315.0,2.0,0,
67800,1858.5,16.4,45.0,216.8,235.0,1315.0,2.0,0,
67900,1858.6,16.7,45.0,243.9,235.0,1315.0,2.0,0,
68000,1858.5,17.2,45.0,215.4,235.0,1315.0,2.0,0,
68100,1858.4,17.8,45.0,157.6,235.0,1315.0,2.0,0,
68200,1857.5,16.9,45.0,133.0,235.0,1315.0,2.0,0,
68300,1857.8,16.4,45.0,145.2,235.0,1315.0,2.0,0,
68400,1858.1,17.7,45.0,173.8,235.0,1315.0,2.0,0,
68600,1864.3,41.8,44.4,133.1,222.0,1122.0,2.0,0,
68700,1871.8,33.7,45.3,135.9,222.0,1122.0,2.0,0,
68800,1833.1,49.7,43.3,156.7,191.0,1039.0,2.0,0,
68900,1870.0,46.5,42.6,189.3,191.0,1039.0,2.0,0,
69000,1864.0,29.3,43.3,226.1,177.0,959.0,2.0,0,
69100,1838.6,48.2,40.5,197.2,171.0,1041.0,8.0,1,
69200,1867.5,18.8,41.6,156.9,171.0,1041.0,8.0,1,
69300,1858.6,16.3,41.5,172.2,171.0,1041.0,8.0,1,
69400,1859.4,15.1,41.5,186.1,171.0,1041.0,8.0,1,
69600,1859.0,17.8,41.5,143.7,171.0,1041.0,8.0,1,
69700,1858.1,16.6,41.5,135.1,171.0,1041.0,8.0,1,
69800,1858.2,17.0,41.5,125.3,171.0,1041.0,8.0,1,
69900,1858.4,17.1,41.5,130.8,171.0,1041.0,8.0,1,
70000,1858.0,16.6,41.5,133.2,171.0,1041.0,8.0,1,
70100,1857.7,16.9,41.5,135.7,171.0,1041.0,8.0,1,
70200,1852.9,29.3,41.5,168.8,174.0,1003.0,2.0,0,
70300,1845.7,47.5,38.4,55.9,158.0,1069.0,2.0,0,
70400,1873.3,29.2,40.4,35.0,161.0,1096.0,2.0,0,
70600,1870.6,36.9,37.1,76.7,170.0,1038.0,8.0,1,
70700,1861.1,31.3,39.2,67.2,170.0,935.0,8.0,1,
70800,1845.0,17.6,34.5,122.9,166.0,851.0,2.0,0,
70900,1859.4,15.9,34.5,93.6,166.0,851.0,2.0,0,
71000,1859.9,15.5,34.5,41.1,166.0,851.0,2.0,0,
71100,1860.1,16.7,34.5,39.1,166.0,851.0,2.0,0,
71200,1859.7,16.8,34.5,81.0,166.0,851.0,2.0,0,
71300,1858.0,16.5,34.5,165.7,166.0,851.0,2.0,0,
71400,1857.7,17.5,34.5,176.9,166.0,851.0,2.0,0,
71600,1857.5,16.5,34.5,174.4,166.0,851.0,2.0,0,
71700,1857.7,17.1,34.5,152.5,166.0,851.0,2.0,0,
71800,1864.4,36.2,36.7,240.4,166.0,851.0,2.0,0,
71900,1834.8,32.3,36.8,272.8,209.0,1272.0,9.0,1,
72000,1863.1,41.7,37.6,260.9,195.0,1288.0,9.0,1,
72100,1860.4,30.3,39.9,231.8,168.0,815.0,8.0,1,
72200,1838.4,38.1,36.6,187.8,194.0,888.0,2.0,0,
72300,1883.5,59.8,38.9,132.0,194.0,888.0,2.0,0,
72400,1847.8,23.1,41.0,124.8,161.0,787.0,7.0,1,
72600,1858.9,16.7,41.0,154.4,161.0,787.0,7.0,1,
72700,1859.3,16.4,41.0,102.1,161.0,787.0,7.0,1,
72800,1858.7,16.6,41.0,66.6,161.0,787.0,7.0,1,
72900,1857.4,17.3,41.0,141.4,161.0,787.0,7.0,1,
73000,1857.0,16.9,41.0,133.8,161.0,787.0,7.0,1,
73100,1857.1,16.5,41.0,175.2,161.0,787.0,7.0,1,
73200,1857.5,17.2,41.0,174.6,161.0,787.0,7.0,1,
73300,1857.6,16.4,41.0,172.0,161.0,787.0,7.0,1,
73400,1857.5,29.3,41.0,204.1,161.0,787.0,7.0,1,
73600,1832.9,16.2,38.7,130.6,192.0,894.0,2.0,0,
73700,1875.6,51.0,39.5,133.2,225.0,1055.0,2.0,0,
73800,1857.1,19.9,42.2,133.5,156.0,813.0,8.0,1,
73900,1842.1,34.1,38.9,154.8,225.0,1046.0,2.0,0,
74000,1880.5,42.0,42.0,187.2,225.0,1046.0,2.0,0,
74100,1858.9,17.3,42.5,168.7,225.0,1046.0,2.0,0,
74200,1859.5,15.9,42.5,171.2,225.0,1046.0,2.0,0,
74300,1858.5,16.1,42.5,211.6,225.0,1046.0,2.0,0,
74400,1859.1,17.4,42.5,241.5,225.0,1046.0,2.0,0,
74600,1855.8,16.8,42.5,139.4,225.0,1046.0,2.0,0,
74700,1855.7,17.4,42.5,125.9,225.0,1046.0,2.0,0,
74800,1857.2,16.7,42.5,145.6,225.0,1046.0,2.0,0,
74900,1856.8,17.0,42.5,125.8,225.0,1046.0,2.0,0,
75000,1856.7,42.5,42.5,123.1,225.0,1046.0,2.0,0,
75100,1876.8,48.0,45.6,279.9,225.0,1046.0,2.0,0,
75200,1860.9,25.0,46.9,262.2,149.0,989.0,9.0,1,
75300,1834.3,40.2,45.4,228.4,233.0,1171.0,2.0,0,
75400,1879.1,33.1,47.2,188.7,233.0,1171.0,2.0,0,
75600,1865.9,51.6,48.3,163.3,202.0,973.0,2.0,0,
75700,1862.2,17.6,46.7,210.5,202.0,973.0,2.0,0,
75800,1858.8,16.2,46.8,199.7,202.0,973.0,2.0,0,
75900,1859.2,17.1,46.7,165.6,202.0,973.0,2.0,0,
76000,1859.5,16.8,46.8,134.1,202.0,973.0,2.0,0,
76100,1860.4,16.6,46.8,122.8,202.0,973.0,2.0,0,
76200,1860.1,17.8,46.8,142.1,202.0,973.0,2.0,0,
76300,1860.7,16.9,46.8,157.5,202.0,973.0,2.0,0,
76400,1860.1,17.1,46.8,143.4,202.0,973.0,2.0,0,
76600,1860.6,16.7,46.8,156.8,202.0,973.0,2.0,0,
76700,1845.5,23.6,41.5,134.1,213.0,951.0,2.0,0,
76800,1875.5,59.3,42.9,123.3,213.0,951.0,2.0,0,
76900,1849.4,17.9,45.9,158.6,177.0,979.0,2.0,0,
77000,1854.6,48.5,43.6,188.0,231.0,1187.0,2.0,0,
77100,1875.8,20.9,45.0,220.4,231.0,1187.0,2.0,0,
77200,1839.5,42.5,41.9,219.9,194.0,1056.0,2.0,0,
77300,1855.6,18.8,41.2,188.7,194.0,1056.0,2.0,0,
77400,1861.0,16.7,41.2,212.0,194.0,1056.0,2.0,0,
77600,1860.0,16.9,41.2,239.2,194.0,1056.0,2.0,0,
77700,1859.6,17.1,41.2,228.0,194.0,1056.0,2.0,0,
77800,1859.8,17.3,41.2,117.5,194.0,1056.0,2.0,0,
77900,1859.1,16.6,41.2,117.5,194.0,1056.0,2.0,0,
78000,1859.4,17.4,41.1,122.6,194.0,1056.0,2.0,0,
78100,1859.4,16.7,41.2,139.6,194.0,1056.0,2.0,0,
78200,1859.7,16.9,41.2,117.9,194.0,1056.0,2.0,0,
78300,1851.2,17.3,41.1,116.8,162.0,693.0,2.0,0,
78400,1849.6,62.8,41.6,109.9,203.0,1160.0,2.0,0,
78600,1843.5,54.0,43.8,221.3,195.0,1120.0,8.0,1,
78700,1868.3,45.2,45.7,203.9,195.0,1120.0,8.0,1,
78800,1863.3,28.9,48.9,235.3,169.0,1003.0,2.0,0,
78900,1837.2,19.2,47.1,227.1,160.0,875.0,2.0,0,
79000,1860.6,16.3,47.1,197.9,160.0,875.0,2.0,0,
79100,1861.0,15.5,47.1,187.0,160.0,875.0,2.0,0,
79200,1861.3,17.3,47.1,57.2,160.0,875.0,2.0,0,
79300,1860.0,16.9,47.1,79.0,160.0,875.0,2.0,0,
79400,1858.7,17.6,47.1,133.4,160.0,875.0,2.0,0,
79600,1859.0,16.6,47.1,132.6,160.0,875.0,2.0,0,
79700,1859.1,16.5,47.1,141.2,160.0,875.0,2.0,0,
79800,1859.4,17.7,47.1,153.1,160.0,875.0,2.0,0,
79900,1866.1,20.0,47.8,158.4,160.0,875.0,2.0,0,
80000,1837.7,32.6,47.7,173.1,230.0,1274.0,9.0,1,
80100,1864.3,49.8,43.9,165.8,222.0,1225.0,9.0,1,
80200,1868.4,28.4,44.4,145.1,176.0,1176.0,8.0,1,
80300,1834.6,42.8,38.5,134.5,148.0,839.0,2.0,0,
80400,1881.1,39.8,39.0,132.7,148.0,839.0,2.0,0,
80600,1859.1,16.2,40.4,154.9,148.0,839.0,2.0,0,
80700,1862.0,17.0,40.4,157.1,148.0,839.0,2.0,0,
80800,1860.2,16.3,40.4,153.9,148.0,839.0,2.0,0,
80900,1860.8,16.5,40.4,118.1,148.0,839.0,2.0,0,
81000,1859.9,17.7,40.4,170.5,148.0,839.0,2.0,0,
81100,1860.1,16.6,40.4,170.1,148.0,839.0,2.0,0,
81200,1859.5,16.8,40.4,177.1,148.0,839.0,2.0,0,
81300,1860.0,17.6,40.4,150.0,148.0,839.0,2.0,0,
81400,1860.3,17.5,40.4,125.7,148.0,839.0,2.0,0,
81600,1870.2,33.5,43.1,147.9,163.0,1127.0,9.0,1,
81700,1836.2,24.7,40.9,154.5,176.0,1086.0,8.0,1,
81800,1874.5,40.9,38.3,156.8,158.0,992.0,8.0,1,
81900,1843.7,31.7,42.1,138.4,163.0,886.0,8.0,1,
82000,1864.8,44.7,38.8,149.5,182.0,947.0,2.0,0,
82100,1875.4,25.4,39.6,156.3,201.0,1157.0,7.0,1,
82200,1855.9,16.8,39.5,133.7,201.0,1157.0,7.0,1,
82300,1861.1,16.0,39.5,130.3,201.0,1157.0,7.0,1,
82400,1861.1,16.3,39.6,123.8,201.0,1157.0,7.0,1,
82600,1861.5,17.1,39.6,108.2,201.0,1157.0,7.0,1,
82700,1861.5,16.1,39.6,116.8,201.0,1157.0,7.0,1,
82800,1861.8,17.7,39.6,139.4,201.0,1157.0,7.0,1,
82900,1861.0,14.5,39.6,140.3,201.0,1157.0,7.0,1,
83000,1860.8,15.6,39.5,100.5,201.0,1157.0,7.0,1,
83100,1860.6,16.1,39.5,90.7,201.0,1157.0,7.0,1,
83200,1879.4,35.0,38.3,110.0,174.0,893.0,2.0,0,
83300,1840.9,34.6,39.2,140.7,179.0,1100.0,9.0,1,
83400,1862.4,41.5,37.7,142.0,183.0,978.0,8.0,1,
83600,1833.6,14.2,36.6,74.8,173.0,912.0,8.0,1,
83700,1871.7,40.3,35.7,66.1,180.0,823.0,2.0,0,
83800,1862.6,17.1,36.8,86.9,180.0,823.0,2.0,0,
83900,1860.1,15.6,36.8,124.4,180.0,823.0,2.0,0,
84000,1860.1,16.8,36.8,125.0,180.0,823.0,2.0,0,
84100,1859.9,16.8,36.8,102.8,180.0,823.0,2.0,0,
84200,1859.2,16.3,36.8,89.5,180.0,823.0,2.0,0,
84300,1859.2,17.5,36.7,140.0,180.0,823.0,2.0,0,
84400,1859.7,16.3,36.8,140.2,180.0,823.0,2.0,0,
84600,1859.6,17.4,36.8,122.2,180.0,823.0,2.0,0,
84700,1859.8,14.5,36.8,122.2,180.0,823.0,2.0,0,
84800,1868.7,47.6,38.6,199.0,154.0,804.0,2.0,0,
84900,1874.2,43.2,40.2,205.0,239.0,1259.0,8.0,1,
85000,1832.0,18.2,40.3,168.4,163.0,1013.0,8.0,1,
85100,1871.2,40.9,39.4,132.7,160.0,973.0,7.0,1,
85200,1857.8,21.7,41.9,99.4,160.0,834.0,8.0,1,
85300,1861.9,52.4,38.8,124.7,164.0,904.0,7.0,1,
85400,1863.1,17.5,39.8,125.6,164.0,904.0,7.0,1,
85600,1862.0,15.4,39.8,125.3,164.0,904.0,7.0,1,
85700,1862.3,16.0,39.8,134.4,164.0,904.0,7.0,1,
85800,1860.7,18.0,39.8,135.2,164.0,904.0,7.0,1,
85900,1860.3,16.6,39.9,138.4,164.0,904.0,7.0,1,
86000,1859.6,16.0,39.8,132.5,164.0,904.0,7.0,1,
86100,1860.1,17.1,39.8,132.4,164.0,904.0,7.0,1,
86200,1860.6,16.8,39.9,136.2,164.0,904.0,7.0,1,
86300,1860.3,16.5,39.9,150.7,164.0,904.0,7.0,1,
86400,1843.6,11.9,37.6,147.8,119.0,751.0,2.0,0,
86600,1852.7,27.4,39.5,123.2,199.0,1181.0,8.0,1,
86700,1858.2,103.7,46.5,116.2,149.0,956.0,7.0,1,
86800,1879.2,39.0,51.9,91.1,149.0,956.0,7.0,1,
86900,1839.9,12.5,51.9,37.4,152.0,796.0,2.0,0,
87000,1859.0,18.8,52.1,39.9,207.0,981.0,2.0,0,
87100,1860.8,15.3,52.2,101.2,207.0,981.0,2.0,0,
87200,1862.0,15.2,52.2,228.4,207.0,981.0,2.0,0,
87300,1861.3,16.9,52.1,232.1,207.0,981.0,2.0,0,
87400,1861.2,16.5,52.1,195.5,207.0,981.0,2.0,0,
87600,1858.6,17.0,52.1,123.4,207.0,981.0,2.0,0,
87700,1859.9,16.1,52.1,168.7,207.0,981.0,2.0,0,
87800,1859.8,16.4,52.1,149.6,207.0,981.0,2.0,0,
87900,1859.5,17.2,52.1,117.3,207.0,981.0,2.0,0,
88000,1844.9,19.6,52.1,85.4,110.0,751.0,10.0,1,
88100,1858.0,52.4,51.9,66.9,206.0,1121.0,2.0,0,
88200,1874.4,50.9,52.4,157.3,206.0,1121.0,2.0,0,
88300,1834.9,19.8,52.6,170.4,177.0,928.0,8.0,1,
88400,1867.9,43.7,40.8,163.3,236.0,1093.0,2.0,0,
88600,1843.0,14.0,38.9,166.4,212.0,1029.0,2.0,0,
88700,1860.3,17.2,38.9,155.4,212.0,1029.0,2.0,0,
88800,1861.2,16.5,38.9,125.4,212.0,1029.0,2.0,0,
88900,1861.8,15.8,38.9,70.3,212.0,1029.0,2.0,0,
89000,1861.5,15.9,38.9,80.4,212.0,1029.0,2.0,0,
89100,1859.4,16.8,38.9,106.8,212.0,1029.0,2.0,0,
89200,1859.7,16.0,38.9,143.9,212.0,1029.0,2.0,0,
89300,1860.3,16.2,38.9,156.8,212.0,1029.0,2.0,0,
89400,1860.1,17.4,38.9,138.6,212.0,1029.0,2.0,0,
89600,1867.4,37.5,40.0,201.9,212.0,1029.0,2.0,0,
89700,1838.3,18.6,40.1,242.6,175.0,1197.0,9.0,1,
89800,1859.1,46.2,36.4,214.3,211.0,1018.0,2.0,0,
89900,1867.0,21.3,40.0,168.9,169.0,1096.0,8.0,1,
90000,1844.4,52.6,35.3,159.2,214.0,1180.0,2.0,0,
90100,1881.3,44.4,39.0,189.5,214.0,1180.0,2.0,0,
90200,1854.5,18.8,43.5,189.6,162.0,1006.0,8.0,1,
90300,1858.9,15.2,43.5,188.1,162.0,1006.0,8.0,1,
90400,1862.6,16.3,43.4,232.6,162.0,1006.0,8.0,1,
90600,1861.5,16.9,43.4,252.0,162.0,1006.0,8.0,1,
90700,1860.0,15.7,43.4,132.0,162.0,1006.0,8.0,1,
90800,1860.0,15.6,43.4,117.9,162.0,1006.0,8.0,1,
90900,1859.4,16.7,43.4,132.6,162.0,1006.0,8.0,1,
91000,1860.1,16.4,43.4,177.5,162.0,1006.0,8.0,1,
91100,1859.6,15.4,43.4,169.5,162.0,1006.0,8.0,1,
91200,1859.4,32.0,43.3,123.7,162.0,1006.0,8.0,1,
91300,1873.3,20.8,44.9,124.8,168.0,1008.0,9.0,1,
91400,1845.0,48.8,43.0,130.2,245.0,1409.0,2.0,0,
91600,1854.5,21.4,47.2,186.6,161.0,1050.0,8.0,1,
91700,1850.7,49.1,47.6,188.3,190.0,1054.0,2.0,0,
91800,1874.4,34.1,48.1,221.4,190.0,1054.0,2.0,0,
91900,1857.1,15.9,48.2,234.7,190.0,1054.0,2.0,0,
92000,1859.6,15.0,48.2,228.3,190.0,1054.0,2.0,0,
92100,1860.3,16.4,48.2,251.6,190.0,1054.0,2.0,0,
92200,1860.0,15.7,48.2,265.3,190.0,1054.0,2.0,0,
92300,1859.3,16.0,48.2,207.0,190.0,1054.0,2.0,0,
92400,1858.4,16.3,48.2,123.1,190.0,1054.0,2.0,0,
92600,1859.3,15.7,48.3,198.9,190.0,1054.0,2.0,0,
92700,1859.0,16.3,48.3,135.3,190.0,1054.0,2.0,0,
92800,1859.0,37.6,48.3,131.2,190.0,1054.0,2.0,0,
92900,1881.8,42.3,50.0,158.3,190.0,1054.0,2.0,0,
93000,1848.1,19.0,50.9,158.0,158.0,1032.0,2.0,0,
93100,1856.7,49.3,48.3,163.5,146.0,838.0,8.0,1,
93200,1869.4,19.4,46.1,157.7,125.0,801.0,2.0,0,
93300,1834.4,172.1,42.9,70.6,185.0,1006.0,8.0,1,
93400,1876.2,40.5,55.7,49.1,171.0,813.0,8.0,1,
93600,1861.0,16.7,54.0,29.6,171.0,813.0,8.0,1,
93700,1860.4,15.5,54.0,38.2,171.0,813.0,8.0,1,
93800,1861.7,15.4,54.0,102.1,171.0,813.0,8.0,1,
93900,1860.4,16.3,54.0,135.0,171.0,813.0,8.0,1,
94000,1861.1,16.1,54.1,151.1,171.0,813.0,8.0,1,
94100,1861.0,15.8,54.1,139.8,171.0,813.0,8.0,1,
94200,1861.7,16.7,54.1,132.8,171.0,813.0,8.0,1,
94300,1861.2,16.3,54.1,132.2,171.0,813.0,8.0,1,
94400,1861.5,16.0,54.2,132.7,171.0,813.0,8.0,1,
94600,1867.5,20.6,54.6,37.8,157.0,1046.0,2.0,0,
94700,1837.7,35.8,54.0,57.3,199.0,1105.0,2.0,0,
94800,1875.9,36.4,52.8,94.6,180.0,1023.0,8.0,1,
94900,1851.8,23.8,53.7,111.2,171.0,1061.0,8.0,1,
95000,1851.7,40.1,38.9,122.2,201.0,1087.0,8.0,1,
95100,1866.7,16.5,37.6,125.8,201.0,1087.0,8.0,1,
95200,1863.3,15.4,37.6,130.4,201.0,1087.0,8.0,1,
95300,1863.3,15.6,37.6,132.2,201.0,1087.0,8.0,1,
95400,1861.1,16.7,37.6,132.1,201.0,1087.0,8.0,1,
95600,1860.4,15.2,37.6,155.7,201.0,1087.0,8.0,1,
95700,1859.6,16.5,37.6,144.4,201.0,1087.0,8.0,1,
95800,1859.6,16.1,37.6,138.5,201.0,1087.0,8.0,1,
95900,1860.0,15.5,37.6,159.0,201.0,1087.0,8.0,1,
96000,1859.2,16.5,37.6,168.7,201.0,1087.0,8.0,1,
96100,1857.2,45.1,35.4,135.4,202.0,964.0,2.0,0,
96200,1877.8,24.5,34.9,130.4,202.0,964.0,2.0,0,
96300,1843.3,22.8,34.9,131.7,209.0,1087.0,8.0,1,
96400,1865.0,40.3,37.4,130.0,255.0,1355.0,8.0,1,
96600,1836.0,42.3,36.0,124.5,183.0,1064.0,8.0,1,
96700,1872.0,17.9,35.8,123.9,183.0,1064.0,8.0,1,
96800,1860.4,16.5,35.8,122.4,183.0,1064.0,8.0,1,
96900,1863.2,16.4,35.8,124.5,183.0,1064.0,8.0,1,
97000,1863.0,16.4,35.8,122.6,183.0,1064.0,8.0,1,
97100,1861.1,16.1,35.8,90.3,183.0,1064.0,8.0,1,
97200,1860.5,16.5,35.8,136.2,183.0,1064.0,8.0,1,
97300,1860.0,16.2,35.9,142.8,183.0,1064.0,8.0,1,
97400,1860.3,15.2,35.9,158.4,183.0,1064.0,8.0,1,
97600,1859.7,16.0,35.9,197.3,183.0,1064.0,8.0,1,
97700,1851.8,22.7,35.9,218.1,184.0,855.0,2.0,0,
97800,1873.2,56.8,39.1,233.0,184.0,855.0,2.0,0,
97900,1855.9,19.3,40.3,227.3,173.0,1055.0,2.0,0,
98000,1853.6,45.1,40.5,201.0,197.0,1127.0,2.0,0,
98100,1874.4,18.7,41.8,188.7,197.0,1127.0,2.0,0,
98200,1842.1,27.3,41.7,158.9,187.0,1095.0,8.0,1,
98300,1863.2,20.2,40.4,158.8,163.0,937.0,2.0,0,
98400,1861.7,17.1,40.4,155.7,163.0,937.0,2.0,0,
98600,1861.3,14.9,40.4,55.9,163.0,937.0,2.0,0,
98700,1862.5,16.8,40.4,75.5,163.0,937.0,2.0,0,
98800,1860.6,15.6,40.4,123.2,163.0,937.0,2.0,0,
98900,1860.0,14.9,40.4,138.0,163.0,937.0,2.0,0,
99000,1860.7,16.4,40.4,150.3,163.0,937.0,2.0,0,
99100,1860.4,16.1,40.4,151.7,163.0,937.0,2.0,0,
99200,1860.7,15.3,40.4,146.1,163.0,937.0,2.0,0,
99300,1850.5,22.7,40.4,146.6,208.0,923.0,2.0,0,
99400,1862.9,51.8,37.1,99.4,214.0,1149.0,10.0,1,
99600,1836.9,27.7,38.3,131.3,218.0,1094.0,8.0,1,
99700,1879.9,49.5,37.7,133.6,218.0,1094.0,8.0,1,
99800,1858.8,33.3,38.8,137.3,202.0,1182.0,7.0,1,
99900,1853.1,26.7,39.7,133.3,175.0,954.0,7.0,1,
100000,1858.7,15.9,39.7,137.6,175.0,954.0,7.0,1,
100100,1862.0,16.1,39.7,165.4,175.0,954.0,7.0,1,
100200,1861.9,16.7,39.7,172.6,175.0,954.0,7.0,1,
100300,1861.5,16.2,39.7,171.9,175.0,954.0,7.0,1,
100400,1860.4,14.4,39.7,141.0,175.0,954.0,7.0,1,
100600,1860.1,16.1,39.7,140.7,175.0,954.0,7.0,1,
100700,1860.4,15.1,39.7,148.7,175.0,954.0,7.0,1,
100800,1859.8,16.2,39.6,134.8,175.0,954.0,7.0,1,
100900,1860.8,13.1,39.6,133.5,175.0,954.0,7.0,1,
101000,1835.7,39.2,39.7,89.4,250.0,1453.0,10.0,1,
101100,1873.7,51.7,38.7,56.4,250.0,1453.0,10.0,1,
101200,1854.9,33.0,39.3,123.5,230.0,1321.0,8.0,1,
101300,1848.2,39.4,39.3,132.9,146.0,856.0,8.0,1,
101400,1880.3,26.3,40.5,171.2,146.0,856.0,8.0,1,
101600,1868.6,15.3,38.5,158.7,146.0,856.0,8.0,1,
101700,1861.7,15.5,38.5,66.6,146.0,856.0,8.0,1,
101800,1861.7,15.8,38.5,36.0,146.0,856.0,8.0,1,
101900,1862.2,15.3,38.5,53.6,146.0,856.0,8.0,1,
102000,1860.7,16.1,38.5,133.6,146.0,856.0,8.0,1,
102100,1860.4,15.4,38.5,133.2,146.0,856.0,8.0,1,
102200,1860.4,15.0,38.5,154.2,146.0,856.0,8.0,1,
102300,1861.0,15.6,38.5,137.1,146.0,856.0,8.0,1,
102400,1861.3,15.6,38.5,130.5,146.0,856.0,8.0,1,
102600,1849.2,38.7,40.9,281.4,183.0,1145.0,2.0,0,
102700,1856.3,42.6,39.4,278.6,231.0,1329.0,9.0,1,
102800,1873.1,28.6,41.9,252.1,231.0,1329.0,9.0,1,
102900,1824.2,22.5,42.0,186.9,194.0,1099.0,8.0,1,
103000,1886.1,59.0,38.1,172.9,190.0,889.0,2.0,0,
103100,1858.8,34.2,39.8,171.0,224.0,1183.0,7.0,1,
103200,1845.9,17.7,39.9,132.9,160.0,846.0,7.0,1,
103300,1861.8,16.6,40.0,124.2,160.0,846.0,7.0,1,
103400,1860.2,16.0,40.0,57.6,160.0,846.0,7.0,1,
103600,1862.6,17.2,40.1,116.8,160.0,846.0,7.0,1,
103700,1862.0,16.4,40.1,146.1,160.0,846.0,7.0,1,
103800,1860.9,16.5,40.2,133.0,160.0,846.0,7.0,1,
103900,1860.7,17.0,40.2,118.1,160.0,846.0,7.0,1,
104000,1860.0,15.8,40.3,125.6,160.0,846.0,7.0,1,
104100,1860.4,17.6,40.3,148.6,160.0,846.0,7.0,1,
104200,1871.0,32.4,40.7,163.3,160.0,846.0,7.0,1,
104300,1820.9,46.9,40.7,197.8,209.0,1334.0,9.0,1,
104400,1885.1,68.3,38.4,206.4,209.0,1334.0,9.0,1,
104600,1850.8,40.1,41.8,148.9,151.0,831.0,2.0,0,
104700,1875.7,34.3,43.7,167.5,151.0,831.0,2.0,0,
104800,1843.1,17.0,43.7,155.3,163.0,869.0,8.0,1,
104900,1861.4,14.9,43.7,153.7,163.0,869.0,8.0,1,
105000,1860.8,15.7,43.6,152.6,163.0,869.0,8.0,1,
105100,1861.2,16.1,43.6,69.4,163.0,869.0,8.0,1,
105200,1861.4,15.2,43.6,76.3,163.0,869.0,8.0,1,
105300,1861.1,15.9,43.5,102.5,163.0,869.0,8.0,1,
105400,1861.1,16.0,43.5,114.0,163.0,869.0,8.0,1,
105600,1860.2,16.0,43.4,142.8,163.0,869.0,8.0,1,
105700,1860.7,16.4,43.4,133.6,163.0,869.0,8.0,1,
105800,1869.3,34.5,43.2,169.9,163.0,869.0,8.0,1,
105900,1842.9,39.8,43.1,183.1,245.0,1353.0,9.0,1,
106000,1867.4,44.9,43.5,188.1,201.0,1222.0,9.0,1,
106100,1870.8,39.9,45.4,159.1,201.0,1222.0,9.0,1,
106200,1839.3,47.8,47.8,144.1,176.0,947.0,8.0,1,
106300,1887.5,43.5,46.2,188.1,176.0,947.0,8.0,1,
106400,1849.0,18.5,45.8,220.8,149.0,744.0,7.0,1,
106600,1861.6,16.0,45.8,101.4,149.0,744.0,7.0,1,
106700,1861.2,15.0,45.9,50.5,149.0,744.0,7.0,1,
106800,1861.7,16.1,45.8,76.7,149.0,744.0,7.0,1,
106900,1861.4,16.4,45.8,133.8,149.0,744.0,7.0,1,
107000,1861.0,15.7,45.8,132.7,149.0,744.0,7.0,1,
107100,1860.8,16.3,45.9,176.8,149.0,744.0,7.0,1,
107200,1860.9,15.8,45.8,132.2,149.0,744.0,7.0,1,
107300,1860.5,16.3,45.8,132.4,149.0,744.0,7.0,1,
107400,1870.7,31.5,46.1,123.1,149.0,744.0,7.0,1,
107600,1847.6,44.7,46.4,156.3,169.0,1122.0,8.0,1,
107700,1880.1,48.4,44.4,183.7,169.0,1122.0,8.0,1,
107800,1837.7,16.3,43.7,131.0,152.0,854.0,8.0,1,
107900,1875.0,40.6,41.7,124.0,185.0,1046.0,2.0,0,
108000,1863.2,24.0,44.3,155.6,179.0,1104.0,6.0,1,
108100,1858.7,16.0,44.3,189.9,179.0,1104.0,6.0,1,
108200,1861.6,15.2,44.3,217.7,179.0,1104.0,6.0,1,
108300,1860.5,15.7,44.3,227.4,179.0,1104.0,6.0,1,
108400,1860.3,16.5,44.3,198.2,179.0,1104.0,6.0,1,
108600,1859.4,16.4,44.4,165.3,179.0,1104.0,6.0,1,
108700,1859.8,16.5,44.4,123.4,179.0,1104.0,6.0,1,
108800,1859.0,16.0,44.4,141.6,179.0,1104.0,6.0,1,
108900,1858.9,16.8,44.4,168.5,179.0,1104.0,6.0,1,
109000,1864.4,39.1,45.5,145.0,179.0,1104.0,6.0,1,
109100,1868.3,42.1,44.4,125.4,236.0,1379.0,9.0,1,
109200,1837.3,48.3,44.5,144.5,178.0,1109.0,8.0,1,
109300,1875.3,47.5,46.3,156.6,178.0,1109.0,8.0,1,
109400,1851.9,26.4,45.8,189.2,159.0,874.0,7.0,1,
109600,1874.4,28.9,45.1,155.9,196.0,1099.0,6.0,1,
109700,1854.7,16.0,45.0,164.0,196.0,1099.0,6.0,1,
109800,1860.5,15.9,45.1,158.2,196.0,1099.0,6.0,1,
109900,1861.0,16.1,45.0,155.6,196.0,1099.0,6.0,1,
110000,1859.8,15.7,45.1,122.8,196.0,1099.0,6.0,1,
110100,1858.5,16.3,45.1,138.2,196.0,1099.0,6.0,1,
110200,1858.8,16.5,45.0,151.8,196.0,1099.0,6.0,1,
110300,1858.5,15.9,45.1,205.3,196.0,1099.0,6.0,1,
110400,1859.0,16.6,45.1,196.0,196.0,1099.0,6.0,1,
110600,1860.2,31.9,45.0,164.9,196.0,1099.0,6.0,1,
110700,1882.6,40.8,45.1,177.8,196.0,1099.0,6.0,1,
110800,1850.1,27.8,45.8,157.6,209.0,1166.0,8.0,1,
110900,1854.4,50.0,44.7,131.8,146.0,870.0,2.0,0,
111000,1871.0,39.3,45.5,125.2,183.0,1129.0,7.0,1,
111100,1835.2,9.8,43.2,133.7,178.0,781.0,2.0,0,
111200,1877.8,39.5,41.0,132.1,219.0,897.0,2.0,0,
111300,1860.3,16.4,42.2,124.3,219.0,897.0,2.0,0,
111400,1861.4,16.0,42.2,156.5,219.0,897.0,2.0,0,
111600,1864.0,16.9,42.2,245.2,219.0,897.0,2.0,0,
111700,1862.2,17.2,42.2,118.2,219.0,897.0,2.0,0,
111800,1862.5,15.5,42.2,99.2,219.0,897.0,2.0,0,
111900,1861.4,16.2,42.2,118.1,219.0,897.0,2.0,0,
112000,1861.6,16.6,42.2,131.9,219.0,897.0,2.0,0,
112100,1860.6,16.8,42.2,134.3,219.0,897.0,2.0,0,
112200,1860.6,16.6,42.2,141.9,219.0,897.0,2.0,0,
112300,1878.5,53.8,41.6,115.8,224.0,1353.0,2.0,0,
112400,1861.7,37.1,41.4,102.1,201.0,1046.0,9.0,1,
112600,1880.5,35.4,37.8,66.4,201.0,1046.0,9.0,1,
112700,1840.7,17.7,38.2,67.4,146.0,819.0,2.0,0,
112800,1863.7,49.6,39.4,106.4,197.0,856.0,2.0,0,
112900,1864.9,17.8,38.6,103.3,197.0,856.0,2.0,0,
113000,1860.6,15.6,38.6,158.1,197.0,856.0,2.0,0,
113100,1861.5,15.8,38.7,164.7,197.0,856.0,2.0,0,
113200,1861.9,16.8,38.6,155.2,197.0,856.0,2.0,0,
113300,1860.9,16.7,38.6,116.6,197.0,856.0,2.0,0,
113400,1860.0,16.0,38.6,145.3,197.0,856.0,2.0,0,
113600,1860.5,16.4,38.6,171.4,197.0,856.0,2.0,0,
113700,1860.7,16.4,38.6,145.1,197.0,856.0,2.0,0,
113800,1861.3,17.0,38.6,117.1,197.0,856.0,2.0,0,
113900,1872.3,41.9,38.4,134.7,194.0,1126.0,2.0,0,
114000,1876.6,39.0,40.2,123.4,194.0,1126.0,2.0,0,
114100,1834.6,25.9,40.2,125.7,175.0,946.0,2.0,0,
114200,1879.1,66.2,40.0,152.6,175.0,946.0,2.0,0,
114300,1855.6,27.2,42.8,156.6,187.0,1032.0,6.0,1,
114400,1852.8,38.9,42.5,158.8,187.0,854.0,2.0,0,
114600,1860.2,16.0,42.5,174.3,187.0,854.0,2.0,0,
114700,1862.5,16.2,42.4,133.0,187.0,854.0,2.0,0,
114800,1861.6,16.7,42.5,101.2,187.0,854.0,2.0,0,
114900,1862.2,15.6,42.5,88.1,187.0,854.0,2.0,0,
115000,1862.6,16.7,42.4,113.7,187.0,854.0,2.0,0,
115100,1861.6,15.8,42.4,123.5,187.0,854.0,2.0,0,
115200,1860.4,15.1,42.4,130.3,187.0,854.0,2.0,0,
115300,1860.5,16.1,42.4,123.8,187.0,854.0,2.0,0,
115400,1859.8,16.1,42.4,175.6,187.0,854.0,2.0,0,
115600,1883.0,42.8,42.0,217.5,187.0,854.0,2.0,0,
115700,1847.3,22.0,41.9,190.2,187.0,1189.0,9.0,1,
115800,1861.8,42.8,44.5,135.0,145.0,950.0,2.0,0,
115900,1871.3,34.4,43.0,171.0,196.0,1260.0,5.0,1,
116000,1825.3,34.2,43.2,212.7,223.0,975.0,2.0,0,
116100,1880.3,20.9,41.7,163.7,223.0,975.0,2.0,0,
116200,1858.3,16.5,41.7,85.2,223.0,975.0,2.0,0,
116300,1862.9,15.9,41.7,99.4,223.0,975.0,2.0,0,
116400,1862.7,16.7,41.8,101.6,223.0,975.0,2.0,0,
116600,1862.8,17.2,41.8,136.4,223.0,975.0,2.0,0,
116700,1862.8,15.8,41.8,134.5,223.0,975.0,2.0,0,
116800,1861.7,17.0,41.8,122.6,223.0,975.0,2.0,0,
116900,1862.0,16.1,41.8,109.9,223.0,975.0,2.0,0,
117000,1861.8,16.2,41.9,115.6,223.0,975.0,2.0,0,
117100,1859.3,12.7,41.8,122.6,193.0,1372.0,2.0,0,
117200,1878.9,53.5,40.1,98.7,191.0,1132.0,2.0,0,
117300,1858.8,26.2,39.9,74.1,164.0,941.0,8.0,1,
117400,1840.4,45.5,37.8,66.6,205.0,1017.0,2.0,0,
117600,1839.1,13.8,36.4,153.0,139.0,931.0,9.0,1,
117700,1873.5,24.8,36.4,155.4,227.0,936.0,2.0,0,
117800,1857.1,18.1,36.4,76.7,227.0,936.0,2.0,0,
117900,1863.1,15.0,36.4,93.4,227.0,936.0,2.0,0,
118000,1862.1,16.5,36.4,101.9,227.0,936.0,2.0,0,
118100,1864.3,16.8,36.4,93.4,227.0,936.0,2.0,0,
118200,1863.1,15.7,36.4,100.7,227.0,936.0,2.0,0,
118300,1862.5,16.9,36.4,102.4,227.0,936.0,2.0,0,
118400,1861.6,16.5,36.4,112.9,227.0,936.0,2.0,0,
118600,1861.8,16.4,36.3,132.0,227.0,936.0,2.0,0,
118700,1860.9,17.3,36.3,123.1,227.0,936.0,2.0,0,
118800,1856.4,50.0,36.5,100.1,162.0,1129.0,2.0,0,
118900,1871.0,37.8,39.8,98.8,237.0,1362.0,8.0,1,
119000,1841.7,44.6,40.1,123.9,167.0,1004.0,2.0,0,
119100,1882.2,56.0,40.4,165.5,167.0,1004.0,2.0,0,
119200,1855.0,25.1,42.6,199.6,171.0,950.0,5.0,1,
119300,1844.5,26.5,42.1,188.8,216.0,998.0,2.0,0,
119400,1860.9,14.7,41.5,159.2,216.0,998.0,2.0,0,
119600,1861.0,16.2,41.4,65.5,216.0,998.0,2.0,0,
119700,1860.9,15.5,41.4,66.8,216.0,998.0,2.0,0,
119800,1860.7,16.4,41.4,110.9,216.0,998.0,2.0,0,
119900,1860.4,16.3,41.4,141.9,216.0,998.0,2.0,0,
120000,1859.2,15.3,41.4,122.9,216.0,998.0,2.0,0,
120100,1860.4,15.9,41.4,111.7,216.0,998.0,2.0,0,
120200,1859.3,16.2,41.4,166.3,216.0,998.0,2.0,0,
120300,1859.7,18.5,41.4,169.5,216.0,998.0,2.0,0,
120400,1847.6,41.9,40.4,80.4,193.0,1230.0,2.0,0,
120600,1844.7,25.1,37.9,39.5,183.0,1161.0,8.0,1,
120700,1863.6,41.9,36.4,38.0,233.0,1050.0,2.0,0,
120800,1870.4,31.5,33.3,38.1,193.0,1039.0,5.0,1,
120900,1835.9,33.9,33.2,89.8,205.0,941.0,2.0,0,
121000,1863.2,17.0,33.5,90.0,205.0,941.0,2.0,0,
121100,1859.9,15.3,33.6,111.0,205.0,941.0,2.0,0,
121200,1861.4,14.9,33.6,173.9,205.0,941.0,2.0,0,
121300,1862.2,16.0,33.6,171.4,205.0,941.0,2.0,0,
121400,1859.9,15.7,33.6,132.2,205.0,941.0,2.0,0,
121600,1860.1,16.3,33.5,151.6,205.0,941.0,2.0,0,
121700,1859.7,15.4,33.6,153.4,205.0,941.0,2.0,0,
121800,1859.9,15.4,33.6,151.7,205.0,941.0,2.0,0,
121900,1860.4,16.2,33.5,132.9,205.0,941.0,2.0,0,
122000,1842.7,20.7,33.7,117.5,169.0,1159.0,10.0,1,
122100,1867.5,50.2,38.0,198.2,169.0,1159.0,10.0,1,
122200,1858.9,34.2,38.9,226.9,273.0,1659.0,8.0,1,
122300,1847.7,31.7,37.9,197.4,269.0,1168.0,2.0,0,
122400,1881.0,45.9,40.6,131.1,269.0,1168.0,2.0,0,
122600,1853.9,16.7,42.0,156.5,269.0,1168.0,2.0,0,
122700,1859.5,15.1,42.0,227.2,269.0,1168.0,2.0,0,
122800,1864.0,15.5,42.0,259.6,269.0,1168.0,2.0,0,
122900,1862.4,16.5,42.0,261.4,269.0,1168.0,2.0,0,
123000,1861.8,15.4,42.1,239.0,269.0,1168.0,2.0,0,
123100,1861.9,16.3,42.0,143.1,269.0,1168.0,2.0,0,
123200,1860.4,16.1,42.1,132.7,269.0,1168.0,2.0,0,
123300,1860.9,15.1,42.1,154.5,269.0,1168.0,2.0,0,
123400,1861.4,16.0,42.0,141.0,269.0,1168.0,2.0,0,
123600,1845.8,28.7,42.1,132.5,193.0,1324.0,10.0,1,
123700,1865.8,50.5,37.7,38.6,190.0,1171.0,2.0,0,
123800,1870.4,39.0,38.4,36.6,229.0,1521.0,6.0,1,
123900,1833.5,14.6,38.2,57.6,201.0,1047.0,2.0,0,
124000,1882.3,45.6,37.9,67.1,201.0,1047.0,2.0,0,
124100,1851.6,15.6,37.4,66.4,148.0,882.0,5.0,1,
124200,1847.2,13.1,34.1,88.0,209.0,930.0,2.0,0,
124300,1860.7,15.4,34.0,77.8,209.0,930.0,2.0,0,
124400,1863.1,15.5,34.0,45.2,209.0,930.0,2.0,0,
124600,1861.8,15.6,34.0,113.0,209.0,930.0,2.0,0,
124700,1860.3,15.8,34.0,152.8,209.0,930.0,2.0,0,
124800,1859.9,15.2,34.0,152.1,209.0,930.0,2.0,0,
124900,1860.8,15.6,33.9,177.1,209.0,930.0,2.0,0,
125000,1860.1,15.4,34.0,208.4,209.0,930.0,2.0,0,
125100,1860.3,15.4,34.0,189.6,209.0,930.0,2.0,0,
125200,1859.9,31.9,33.9,178.0,214.0,1563.0,7.0,1,
125300,1833.3,34.3,34.1,53.6,186.0,1170.0,9.0,1,
125400,1881.4,48.0,36.0,36.6,186.0,1170.0,9.0,1,
125600,1864.8,49.3,38.0,132.7,174.0,963.0,2.0,0,
125700,1873.0,31.9,39.9,190.1,206.0,1211.0,5.0,1,
125800,1833.4,13.3,40.0,220.2,182.0,884.0,2.0,0,
125900,1859.1,14.7,40.0,198.5,182.0,884.0,2.0,0,
126000,1862.0,14.9,40.0,106.9,182.0,884.0,2.0,0,
126100,1861.9,15.4,40.0,56.1,182.0,884.0,2.0,0,
126200,1861.6,16.0,40.0,78.5,182.0,884.0,2.0,0,
126300,1860.7,15.4,40.0,142.4,182.0,884.0,2.0,0,
126400,1860.5,16.3,40.0,150.9,182.0,884.0,2.0,0,
126600,1859.6,15.2,40.1,165.9,182.0,884.0,2.0,0,
126700,1860.3,15.5,40.1,139.1,182.0,884.0,2.0,0,
126800,1856.5,28.5,40.1,173.2,206.0,1493.0,2.0,0,
126900,1840.3,19.6,40.2,85.3,163.0,1101.0,9.0,1,
127000,1876.6,48.0,38.2,29.9,193.0,1330.0,2.0,0,
127100,1857.3,28.1,36.3,35.2,197.0,1215.0,9.0,1,
127200,1838.7,36.9,33.7,38.0,207.0,1076.0,2.0,0,
127300,1878.3,34.4,33.3,40.6,190.0,1087.0,8.0,1,
127400,1838.5,16.1,33.2,76.3,174.0,925.0,2.0,0,
127600,1861.5,14.9,33.2,124.5,174.0,925.0,2.0,0,
127700,1860.8,15.9,33.2,57.0,174.0,925.0,2.0,0,
127800,1862.0,15.4,33.3,66.7,174.0,925.0,2.0,0,
127900,1860.7,15.6,33.3,100.1,174.0,925.0,2.0,0,
128000,1860.7,16.4,33.3,117.9,174.0,925.0,2.0,0,
128100,1859.4,15.3,33.2,133.0,174.0,925.0,2.0,0,
128200,1860.0,15.5,33.2,177.5,174.0,925.0,2.0,0,
128300,1860.0,16.4,33.2,175.4,174.0,925.0,2.0,0,
128400,1859.8,12.0,33.2,134.0,174.0,925.0,2.0,0,
128600,1866.6,58.1,35.6,56.0,188.0,1179.0,10.0,1,
128700,1860.9,30.5,36.6,102.0,164.0,1027.0,6.0,1,
128800,1850.5,47.7,39.4,124.6,176.0,1140.0,9.0,1,
128900,1879.5,43.4,39.3,133.5,176.0,1140.0,9.0,1,
129000,1837.9,15.6,39.6,197.0,145.0,751.0,5.0,1,
129100,1852.0,15.4,39.6,166.5,173.0,857.0,2.0,0,
129200,1860.3,16.1,39.6,108.3,173.0,857.0,2.0,0,
129300,1860.8,14.8,39.6,56.0,173.0,857.0,2.0,0,
129400,1862.0,16.2,39.6,57.0,173.0,857.0,2.0,0,
129600,1859.5,15.0,39.6,123.3,173.0,857.0,2.0,0,
129700,1859.5,15.6,39.6,117.0,173.0,857.0,2.0,0,
129800,1859.8,15.9,39.5,102.0,173.0,857.0,2.0,0,
129900,1859.5,15.2,39.6,133.2,173.0,857.0,2.0,0,
130000,1860.6,17.5,39.5,141.3,173.0,857.0,2.0,0,
130100,1841.2,34.0,39.7,109.7,216.0,1357.0,10.0,1,
130200,1873.7,51.4,40.3,56.7,181.0,1135.0,10.0,1,
130300,1871.1,43.8,43.7,132.9,181.0,1135.0,10.0,1,
130400,1836.1,18.5,43.7,156.3,181.0,1065.0,9.0,1,
130600,1849.2,20.9,40.2,167.4,168.0,1099.0,5.0,1,
130700,1850.4,17.2,40.8,51.4,304.0,1514.0,2.0,0,
130800,1859.9,14.6,40.8,38.1,304.0,1514.0,2.0,0,
130900,1863.1,15.3,40.8,77.2,304.0,1514.0,2.0,0,
131000,1862.5,17.1,40.8,99.1,304.0,1514.0,2.0,0,
131100,1862.2,15.5,40.8,104.0,304.0,1514.0,2.0,0,
131200,1861.2,16.0,40.8,146.1,304.0,1514.0,2.0,0,
131300,1860.8,16.1,40.8,145.6,304.0,1514.0,2.0,0,
131400,1860.7,15.1,40.8,171.0,304.0,1514.0,2.0,0,
131600,1860.6,16.3,40.8,175.7,304.0,1514.0,2.0,0,
131700,1857.7,32.3,40.7,123.6,193.0,1279.0,2.0,0,
131800,1842.3,32.5,38.6,52.8,237.0,1326.0,9.0,1,
131900,1877.4,31.0,37.0,29.6,234.0,1428.0,6.0,1,
132000,1842.2,17.1,32.5,37.2,182.0,1063.0,6.0,1,
132100,1875.1,45.9,33.1,48.3,170.0,957.0,2.0,0,
132200,1865.5,37.0,36.1,84.7,229.0,1256.0,5.0,1,
132300,1839.0,15.8,35.7,203.8,179.0,1030.0,6.0,1,
132400,1860.1,15.1,35.6,213.1,179.0,1030.0,6.0,1,
132600,1861.0,14.4,35.6,55.9,179.0,1030.0,6.0,1,
132700,1860.6,15.5,35.6,101.5,179.0,1030.0,6.0,1,
132800,1859.5,16.1,35.6,140.7,179.0,1030.0,6.0,1,
132900,1859.3,14.6,35.6,148.6,179.0,1030.0,6.0,1,
133000,1859.7,15.5,35.5,142.6,179.0,1030.0,6.0,1,
133100,1859.3,16.4,35.5,125.5,179.0,1030.0,6.0,1,
133200,1859.8,15.1,35.5,133.0,179.0,1030.0,6.0,1,
133300,1855.3,24.3,35.5,133.7,189.0,1404.0,2.0,0,
133400,1844.0,51.9,35.4,56.5,235.0,1276.0,9.0,1,
133600,1851.8,32.6,39.4,80.4,223.0,1285.0,6.0,1,
133700,1854.6,35.6,39.1,105.5,173.0,964.0,6.0,1,
133800,1872.3,38.8,39.5,133.4,225.0,1281.0,5.0,1,
133900,1846.2,20.2,39.5,155.4,163.0,792.0,6.0,1,
134000,1860.3,16.3,39.7,155.8,163.0,792.0,6.0,1,
134100,1861.6,14.3,39.7,108.7,163.0,792.0,6.0,1,
134200,1862.4,15.6,39.7,57.4,163.0,792.0,6.0,1,
134300,1859.8,16.1,39.7,81.5,163.0,792.0,6.0,1,
134400,1860.5,14.9,39.7,139.0,163.0,792.0,6.0,1,
134600,1860.1,15.9,39.7,144.3,163.0,792.0,6.0,1,
134700,1861.1,15.0,39.7,155.0,163.0,792.0,6.0,1,
134800,1860.6,15.4,39.7,143.1,163.0,792.0,6.0,1,
134900,1867.1,27.9,43.0,232.9,163.0,792.0,6.0,1,
135000,1836.0,32.9,43.0,263.1,195.0,1251.0,7.0,1,
135100,1869.8,40.0,42.6,249.7,189.0,1176.0,9.0,1,
135200,1854.4,36.0,42.0,210.0,208.0,1336.0,6.0,1,
135300,1860.0,47.5,42.6,125.6,216.0,1190.0,6.0,1,
135400,1879.9,35.3,42.0,92.6,216.0,1190.0,6.0,1,
135600,1857.4,14.5,41.7,187.3,216.0,1190.0,6.0,1,
135700,1863.8,15.4,41.7,184.4,216.0,1190.0,6.0,1,
135800,1862.7,15.9,41.7,66.7,216.0,1190.0,6.0,1,
135900,1862.2,15.3,41.8,56.3,216.0,1190.0,6.0,1,
136000,1861.7,15.4,41.8,132.1,216.0,1190.0,6.0,1,
136100,1862.4,15.5,41.8,133.0,216.0,1190.0,6.0,1,
136200,1861.5,15.1,41.8,139.1,216.0,1190.0,6.0,1,
136300,1861.8,14.9,41.8,142.3,216.0,1190.0,6.0,1,
136400,1861.4,15.8,41.7,158.0,216.0,1190.0,6.0,1,
136600,1843.3,32.7,41.7,247.0,203.0,1354.0,7.0,1,
136700,1878.6,53.7,43.1,236.9,189.0,1301.0,6.0,1,
136800,1871.8,31.9,42.5,213.4,281.0,1423.0,5.0,1,
136900,1837.1,17.5,42.5,125.3,243.0,1264.0,6.0,1,
137000,1880.8,40.2,40.6,68.6,200.0,1032.0,6.0,1,
137100,1852.2,29.5,39.8,52.2,251.0,1193.0,5.0,1,
137200,1859.1,16.3,39.8,53.3,251.0,1193.0,5.0,1,
137300,1861.4,16.0,39.8,54.2,251.0,1193.0,5.0,1,
137400,1862.7,15.5,39.8,37.6,251.0,1193.0,5.0,1,
137600,1860.3,16.2,39.8,79.0,251.0,1193.0,5.0,1,
137700,1860.9,14.8,39.8,117.4,251.0,1193.0,5.0,1,
137800,1861.1,15.1,39.8,147.4,251.0,1193.0,5.0,1,
137900,1860.1,15.6,39.8,174.6,251.0,1193.0,5.0,1,
138000,1860.2,14.6,39.8,208.2,251.0,1193.0,5.0,1,
138100,1860.6,48.9,39.8,171.4,251.0,1193.0,5.0,1,
138200,1864.4,27.4,38.6,232.1,219.0,1545.0,2.0,0,
138300,1843.7,39.7,35.7,217.8,179.0,1079.0,6.0,1,
138400,1880.0,49.2,36.6,197.5,179.0,1079.0,6.0,1,
138600,1880.1,44.5,39.4,130.6,188.0,941.0,6.0,1,
138700,1866.4,29.5,38.8,139.0,245.0,1074.0,5.0,1,
138800,1850.4,17.3,38.7,69.5,215.0,898.0,5.0,1,
138900,1861.6,16.8,38.7,52.8,215.0,898.0,5.0,1,
139000,1863.7,15.1,38.8,37.5,215.0,898.0,5.0,1,
139100,1861.5,16.0,38.7,39.1,215.0,898.0,5.0,1,
139200,1860.3,15.3,38.8,84.4,215.0,898.0,5.0,1,
139300,1860.7,15.2,38.7,132.5,215.0,898.0,5.0,1,
139400,1859.7,15.8,38.7,165.8,215.0,898.0,5.0,1,
139600,1860.4,14.7,38.8,164.4,215.0,898.0,5.0,1,
139700,1861.1,15.5,38.8,145.8,215.0,898.0,5.0,1,
139800,1871.6,31.4,41.3,217.8,201.0,1468.0,2.0,0,
139900,1832.9,43.3,41.5,216.2,172.0,1198.0,9.0,1,
140000,1890.3,33.7,40.6,198.8,172.0,1198.0,9.0,1,
140100,1846.5,27.6,37.3,135.8,216.0,1328.0,6.0,1,
140200,1851.4,35.6,38.5,51.5,189.0,896.0,6.0,1,
140300,1869.0,33.4,41.0,69.6,231.0,1204.0,5.0,1,
140400,1857.8,17.3,41.1,198.8,205.0,938.0,5.0,1,
140600,1862.5,15.9,41.0,184.8,205.0,938.0,5.0,1,
140700,1860.7,15.3,41.0,57.6,205.0,938.0,5.0,1,
140800,1862.5,15.8,41.1,75.7,205.0,938.0,5.0,1,
140900,1862.5,16.7,41.1,117.0,205.0,938.0,5.0,1,
141000,1862.3,15.5,41.1,140.8,205.0,938.0,5.0,1,
141100,1862.4,15.3,41.1,146.9,205.0,938.0,5.0,1,
141200,1862.4,16.1,41.1,152.4,205.0,938.0,5.0,1,
141300,1861.9,15.6,41.1,165.6,205.0,938.0,5.0,1,
141400,1878.7,30.4,39.8,153.0,205.0,938.0,5.0,1,
141600,1858.4,44.4,38.5,140.2,176.0,1151.0,9.0,1,
141700,1864.3,37.2,43.6,98.8,222.0,1300.0,5.0,1,
141800,1847.6,43.1,41.8,66.1,199.0,1099.0,6.0,1,
141900,1887.4,57.6,40.3,99.0,199.0,1099.0,6.0,1,
142000,1860.0,20.0,42.6,124.7,253.0,1264.0,5.0,1,
142100,1859.9,15.6,42.6,124.6,253.0,1264.0,5.0,1,
142200,1863.2,15.2,42.6,154.8,253.0,1264.0,5.0,1,
142300,1863.0,15.5,42.6,148.4,253.0,1264.0,5.0,1,
142400,1863.5,16.1,42.6,122.7,253.0,1264.0,5.0,1,
142600,1861.9,15.9,42.6,142.0,253.0,1264.0,5.0,1,
142700,1861.5,16.6,42.6,165.5,253.0,1264.0,5.0,1,
142800,1862.6,15.5,42.6,158.9,253.0,1264.0,5.0,1,
142900,1861.5,15.5,42.6,137.1,253.0,1264.0,5.0,1,
143000,1873.8,43.0,42.6,132.5,253.0,1264.0,5.0,1,
143100,1849.4,30.6,44.8,125.4,213.0,1432.0,9.0,1,
143200,1860.8,54.4,46.0,164.2,239.0,1519.0,9.0,1,
143300,1883.7,37.9,45.8,184.0,239.0,1519.0,9.0,1,
143400,1842.1,23.7,45.7,148.2,200.0,1267.0,6.0,1,
143600,1872.5,22.0,43.9,158.7,243.0,1281.0,5.0,1,
143700,1858.2,15.9,43.9,87.2,243.0,1281.0,5.0,1,
143800,1862.1,14.8,43.9,99.0,243.0,1281.0,5.0,1,
143900,1861.0,16.1,43.8,104.0,243.0,1281.0,5.0,1,
144000,1862.4,16.2,43.8,81.6,243.0,1281.0,5.0,1,
144100,1861.9,15.7,43.8,133.1,243.0,1281.0,5.0,1,
144200,1860.8,16.5,43.8,123.7,243.0,1281.0,5.0,1,
144300,1860.5,15.7,43.8,135.0,243.0,1281.0,5.0,1,
144400,1860.3,15.4,43.8,136.3,243.0,1281.0,5.0,1,
144600,1867.7,47.9,44.0,115.6,243.0,1281.0,5.0,1,
144700,1876.9,27.2,43.5,117.4,189.0,1381.0,10.0,1,
144800,1836.9,47.0,43.3,158.8,222.0,1518.0,9.0,1,
144900,1883.5,23.5,42.7,188.1,222.0,1518.0,9.0,1,
145000,1842.7,29.2,38.5,143.5,178.0,1228.0,5.0,1,
145100,1871.5,45.2,41.1,69.9,157.0,1107.0,2.0,0,
145200,1874.3,22.2,40.4,93.1,215.0,1167.0,5.0,1,
145300,1855.5,15.0,40.4,194.5,215.0,1167.0,5.0,1,
145400,1860.8,14.8,40.3,219.7,215.0,1167.0,5.0,1,
145600,1862.6,15.5,40.3,203.9,215.0,1167.0,5.0,1,
145700,1861.8,15.8,40.3,167.2,215.0,1167.0,5.0,1,
145800,1860.3,15.8,40.3,154.8,215.0,1167.0,5.0,1,
145900,1861.3,15.6,40.3,137.3,215.0,1167.0,5.0,1,
146000,1860.5,15.4,40.3,123.5,215.0,1167.0,5.0,1,
146100,1860.4,15.3,40.3,133.6,215.0,1167.0,5.0,1,
146200,1861.3,42.3,40.3,132.0,215.0,1167.0,5.0,1,
146300,1883.2,30.4,41.6,94.7,215.0,1167.0,5.0,1,
146400,1828.8,37.7,41.4,155.3,201.0,1185.0,9.0,1,
146600,1852.3,26.5,41.2,187.9,209.0,1230.0,5.0,1,
146700,1849.0,30.9,38.8,124.7,161.0,953.0,2.0,0,
146800,1877.8,16.1,36.9,57.2,245.0,1060.0,5.0,1,
146900,1857.1,15.0,36.8,37.7,245.0,1060.0,5.0,1,
147000,1862.0,14.9,36.8,88.6,245.0,1060.0,5.0,1,
147100,1863.1,15.3,36.8,123.1,245.0,1060.0,5.0,1,
147200,1862.8,15.2,36.8,98.8,245.0,1060.0,5.0,1,
147300,1862.0,15.5,36.8,106.0,245.0,1060.0,5.0,1,
147400,1862.9,15.0,36.8,99.9,245.0,1060.0,5.0,1,
147600,1862.6,16.1,36.8,145.0,245.0,1060.0,5.0,1,
147700,1861.8,15.1,36.8,142.9,245.0,1060.0,5.0,1,
147800,1861.8,28.3,36.8,122.2,245.0,1060.0,5.0,1,
147900,1878.9,22.1,35.3,79.7,182.0,1364.0,9.0,1,
148000,1839.1,29.7,34.5,129.9,220.0,1434.0,9.0,1,
148100,1873.6,45.5,35.4,147.7,250.0,1466.0,9.0,1,
148200,1860.3,21.9,36.3,158.5,201.0,1395.0,5.0,1,
148300,1840.8,42.1,36.6,184.2,204.0,1409.0,6.0,1,
148400,1881.7,18.3,37.7,174.4,191.0,973.0,5.0,1,
148600,1860.1,14.8,37.8,143.7,191.0,973.0,5.0,1,
148700,1862.7,15.3,37.8,190.0,191.0,973.0,5.0,1,
148800,1862.9,16.0,37.8,147.9,191.0,973.0,5.0,1,
148900,1862.0,14.7,37.8,117.4,191.0,973.0,5.0,1,
149000,1862.6,15.6,37.8,122.3,191.0,973.0,5.0,1,
149100,1861.3,15.7,37.8,135.2,191.0,973.0,5.0,1,
149200,1862.1,16.1,37.8,122.2,191.0,973.0,5.0,1,
149300,1861.1,15.7,37.8,147.7,191.0,973.0,5.0,1,
149400,1861.3,16.0,37.8,163.1,191.0,973.0,5.0,1,
149600,1846.0,24.6,37.5,69.9,243.0,1733.0,6.0,1,
149700,1853.3,53.1,36.5,70.4,213.0,1399.0,6.0,1,
149800,1869.4,13.1,36.3,72.6,202.0,1120.0,5.0,1,
149900,1839.3,33.8,36.3,123.6,192.0,1290.0,2.0,0,
150000,1880.9,21.1,34.9,151.7,223.0,1344.0,6.0,1,
150100,1855.8,14.7,34.9,67.1,222.0,1085.0,5.0,1,
150200,1860.3,15.3,34.9,67.1,222.0,1085.0,5.0,1,
150300,1862.6,15.3,34.9,90.4,222.0,1085.0,5.0,1,
150400,1864.0,15.5,34.9,91.7,222.0,1085.0,5.0,1,
150600,1862.3,16.0,34.9,132.0,222.0,1085.0,5.0,1,
150700,1861.5,15.3,34.9,136.7,222.0,1085.0,5.0,1,
150800,1860.0,15.4,34.9,139.2,222.0,1085.0,5.0,1,
150900,1859.3,15.3,34.9,136.5,222.0,1085.0,5.0,1,
151000,1858.8,15.2,34.9,117.1,222.0,1085.0,5.0,1,
151100,1870.7,44.8,35.5,105.8,222.0,1085.0,5.0,1,
151200,1852.8,18.3,34.6,66.7,192.0,1385.0,9.0,1,
151300,1845.8,57.1,37.8,74.7,205.0,1400.0,2.0,0,
151400,1877.3,27.1,40.3,140.9,205.0,1400.0,2.0,0,
151600,1878.0,55.8,41.5,235.3,205.0,1400.0,2.0,0,
151700,1862.0,16.3,43.8,236.1,206.0,983.0,5.0,1,
151800,1860.1,13.9,43.8,220.7,206.0,983.0,5.0,1,
151900,1862.8,14.8,43.8,243.6,206.0,983.0,5.0,1,
152000,1863.6,15.3,43.8,252.5,206.0,983.0,5.0,1,
152100,1864.0,16.2,43.8,213.1,206.0,983.0,5.0,1,
152200,1862.3,15.2,43.8,118.1,206.0,983.0,5.0,1,
152300,1860.7,14.7,43.8,117.4,206.0,983.0,5.0,1,
152400,1861.9,15.9,43.8,122.9,206.0,983.0,5.0,1,
152600,1862.3,15.4,43.8,102.6,206.0,983.0,5.0,1,
152700,1874.8,63.4,44.0,100.2,206.0,983.0,5.0,1,
152800,1861.3,18.5,44.1,70.2,165.0,1125.0,9.0,1,
152900,1837.0,48.8,44.0,76.8,222.0,1564.0,2.0,0,
153000,1876.6,20.0,41.5,123.0,184.0,1041.0,5.0,1,
153100,1848.7,17.5,40.8,177.3,208.0,1233.0,5.0,1,
153200,1873.0,47.4,43.0,174.4,234.0,1313.0,6.0,1,
153300,1864.0,15.4,41.5,227.5,218.0,1000.0,5.0,1,
153400,1857.5,13.9,41.5,243.6,218.0,1000.0,5.0,1,
153600,1862.3,15.3,41.5,237.5,218.0,1000.0,5.0,1,
153700,1861.8,15.3,41.5,86.8,218.0,1000.0,5.0,1,
153800,1859.9,15.3,41.5,117.0,218.0,1000.0,5.0,1,
153900,1860.7,15.6,41.5,142.5,218.0,1000.0,5.0,1,
154000,1860.7,15.0,41.5,135.7,218.0,1000.0,5.0,1,
154100,1859.9,15.3,41.5,137.7,218.0,1000.0,5.0,1,
154200,1859.6,15.6,41.4,172.8,218.0,1000.0,5.0,1,
154300,1860.2,48.0,41.5,177.2,218.0,1000.0,5.0,1,
154400,1869.7,22.8,41.2,104.0,157.0,1112.0,6.0,1,
154600,1879.7,37.3,41.8,70.1,157.0,1112.0,6.0,1,
154700,1848.7,16.8,41.9,89.4,226.0,1189.0,5.0,1,
154800,1861.3,48.7,39.6,155.6,256.0,1382.0,6.0,1,
154900,1870.4,15.2,39.1,170.5,230.0,987.0,5.0,1,
155000,1858.8,16.3,39.1,98.8,230.0,987.0,5.0,1,
155100,1860.9,15.5,39.1,110.9,230.0,987.0,5.0,1,
155200,1862.2,14.9,39.1,156.0,230.0,987.0,5.0,1,
155300,1861.2,15.4,39.1,98.7,230.0,987.0,5.0,1,
155400,1861.0,16.1,39.1,117.4,230.0,987.0,5.0,1,
155600,1859.8,15.0,39.1,166.1,230.0,987.0,5.0,1,
155700,1859.9,15.1,39.1,173.3,230.0,987.0,5.0,1,
155800,1860.0,15.2,39.2,178.1,230.0,987.0,5.0,1,
155900,1859.7,47.3,39.1,165.4,230.0,987.0,5.0,1,
156000,1870.4,32.2,37.2,123.7,198.0,1399.0,6.0,1,
156100,1836.5,41.8,37.3,57.2,187.0,1200.0,2.0,0,
156200,1876.2,40.3,39.4,56.3,310.0,1383.0,5.0,1,
156300,1850.5,12.4,36.4,131.5,248.0,1070.0,5.0,1,
156400,1869.0,53.3,40.6,122.5,244.0,1167.0,5.0,1,
156600,1849.2,14.8,42.6,234.9,225.0,899.0,5.0,1,
156700,1860.5,15.2,42.6,244.4,225.0,899.0,5.0,1,
156800,1861.1,14.7,42.6,251.8,225.0,899.0,5.0,1,
156900,1860.5,15.6,42.6,214.9,225.0,899.0,5.0,1,
157000,1860.4,15.0,42.6,145.5,225.0,899.0,5.0,1,
157100,1861.0,15.7,42.6,177.9,225.0,899.0,5.0,1,
157200,1860.4,14.8,42.6,154.0,225.0,899.0,5.0,1,
157300,1860.8,14.5,42.6,149.6,225.0,899.0,5.0,1,
157400,1860.7,14.7,42.6,165.2,225.0,899.0,5.0,1,
157600,1857.6,34.9,42.8,122.8,274.0,1813.0,9.0,1,
157700,1850.3,36.4,42.9,55.5,174.0,1246.0,9.0,1,
157800,1887.5,49.6,42.2,50.0,174.0,1246.0,9.0,1,
157900,1847.6,18.7,42.3,48.5,194.0,1032.0,5.0,1,
158000,1856.8,36.1,39.5,68.4,210.0,1150.0,2.0,0,
158100,1865.0,25.1,36.3,68.2,256.0,1023.0,5.0,1,
158200,1855.6,14.2,36.4,66.4,219.0,995.0,5.0,1,
158300,1860.0,14.5,36.4,68.2,219.0,995.0,5.0,1,
158400,1861.8,15.8,36.3,56.4,219.0,995.0,5.0,1,
158600,1859.7,15.4,36.4,136.8,219.0,995.0,5.0,1,
158700,1860.0,15.1,36.3,165.4,219.0,995.0,5.0,1,
158800,1860.0,15.4,36.4,176.3,219.0,995.0,5.0,1,
158900,1859.9,14.9,36.4,170.2,219.0,995.0,5.0,1,
159000,1860.1,15.1,36.4,168.7,219.0,995.0,5.0,1,
159100,1860.0,14.7,36.4,177.5,219.0,995.0,5.0,1,
159200,1867.1,41.2,38.0,218.0,258.0,1787.0,7.0,1,
159300,1832.7,37.4,38.1,206.9,235.0,1458.0,9.0,1,
159400,1884.2,28.8,39.6,186.1,235.0,1458.0,9.0,1,
159600,1882.8,50.2,38.0,78.0,161.0,1132.0,6.0,1,
159700,1870.8,31.9,35.7,67.8,239.0,1235.0,5.0,1,
159800,1840.2,14.3,35.7,47.5,178.0,1145.0,5.0,1,
159900,1859.8,12.2,35.7,39.1,178.0,1145.0,5.0,1,
160000,1861.2,11.7,35.6,35.6,178.0,1145.0,5.0,1,
160100,1860.3,12.3,35.5,35.5,178.0,1145.0,5.0,1,
160200,1859.9,12.1,35.4,102.9,178.0,1145.0,5.0,1,
160300,1858.9,11.7,35.3,137.5,178.0,1145.0,5.0,1,
160400,1859.1,12.3,35.2,135.3,178.0,1145.0,5.0,1,
160600,1859.2,12.0,35.1,137.3,178.0,1145.0,5.0,1,
160700,1859.6,12.1,35.0,135.7,178.0,1145.0,5.0,1,
160800,1861.2,16.1,30.2,151.6,196.0,1279.0,2.0,0,
160900,1841.6,41.2,30.9,70.5,187.0,1130.0,7.0,1,
161000,1882.1,40.1,34.8,92.2,187.0,1130.0,7.0,1,
161100,1834.4,33.6,34.0,138.7,208.0,1050.0,6.0,1,
161200,1866.7,35.7,36.1,172.7,194.0,997.0,6.0,1,
161300,1865.1,24.1,38.3,216.8,239.0,1123.0,5.0,1,
161400,1835.6,17.1,38.3,220.9,201.0,1120.0,6.0,1,
161600,1858.9,10.7,38.5,228.1,201.0,1120.0,6.0,1,
161700,1861.4,12.1,38.5,88.6,201.0,1120.0,6.0,1,
161800,1865.7,12.3,38.5,89.0,201.0,1120.0,6.0,1,
161900,1858.7,12.1,38.5,82.0,201.0,1120.0,6.0,1,
162000,1860.1,12.2,38.5,78.1,201.0,1120.0,6.0,1,
162100,1860.6,11.5,38.5,116.8,201.0,1120.0,6.0,1,
162200,1860.5,12.2,38.5,133.9,201.0,1120.0,6.0,1,
162300,1861.2,12.2,38.5,149.2,201.0,1120.0,6.0,1,
162400,1858.7,13.4,38.5,165.1,161.0,976.0,2.0,0,
162600,1881.8,22.7,41.2,233.2,161.0,976.0,2.0,0,
162700,1840.7,18.0,37.3,227.8,199.0,1084.0,6.0,1,
162800,1864.2,47.9,36.7,200.9,202.0,1210.0,6.0,1,
162900,1865.0,17.2,33.4,147.9,258.0,1139.0,5.0,1,
163000,1844.5,17.4,33.4,131.2,219.0,1065.0,6.0,1,
163100,1856.4,10.8,33.2,131.6,219.0,1065.0,6.0,1,
163200,1861.4,11.0,33.0,90.8,219.0,1065.0,6.0,1,
163300,1861.8,11.4,33.1,37.1,219.0,1065.0,6.0,1,
163400,1864.9,11.6,33.1,57.3,219.0,1065.0,6.0,1,
163600,1862.9,11.3,33.0,123.7,219.0,1065.0,6.0,1,
163700,1860.9,11.3,33.0,135.0,219.0,1065.0,6.0,1,
163800,1862.2,12.0,33.0,157.5,219.0,1065.0,6.0,1,
163900,1861.2,11.1,33.0,157.0,219.0,1065.0,6.0,1,
164000,1861.7,14.1,33.0,132.7,219.0,1065.0,6.0,1,
164100,1840.6,32.7,33.0,88.3,190.0,1099.0,2.0,0,
164200,1880.2,25.8,31.4,135.3,181.0,1211.0,6.0,1,
164300,1841.3,20.1,30.0,148.3,228.0,1283.0,2.0,0,
164400,1875.0,38.1,31.6,134.5,224.0,1261.0,6.0,1,
164600,1843.0,32.7,33.5,156.2,250.0,1285.0,5.0,1,
164700,1866.1,13.7,35.1,214.0,250.0,1285.0,5.0,1,
164800,1862.3,11.4,35.1,169.0,250.0,1285.0,5.0,1,
164900,1861.3,12.1,35.1,90.4,250.0,1285.0,5.0,1,
165000,1861.5,11.7,35.1,86.8,250.0,1285.0,5.0,1,
165100,1860.3,12.3,35.1,87.0,250.0,1285.0,5.0,1,
165200,1861.0,11.7,35.1,125.3,250.0,1285.0,5.0,1,
165300,1861.1,11.9,35.1,136.0,250.0,1285.0,5.0,1,
165400,1861.4,11.4,35.2,116.4,250.0,1285.0,5.0,1,
165600,1860.7,12.3,35.1,135.7,250.0,1285.0,5.0,1,
165700,1854.2,52.5,36.9,169.8,181.0,994.0,2.0,0,
165800,1881.2,38.7,37.6,164.0,181.0,994.0,2.0,0,
165900,1838.0,20.2,37.8,137.6,189.0,1191.0,6.0,1,
166000,1868.4,42.1,39.0,131.0,198.0,1294.0,2.0,0,
166100,1856.9,16.4,35.5,133.1,175.0,950.0,5.0,1,
166200,1861.4,47.1,37.0,132.2,210.0,1128.0,2.0,0,
166300,1863.8,12.7,36.6,68.8,210.0,1128.0,2.0,0,
166400,1861.0,10.9,36.5,66.2,210.0,1128.0,2.0,0,
166600,1865.3,11.8,36.5,66.1,210.0,1128.0,2.0,0,
166700,1862.3,11.6,36.5,72.3,210.0,1128.0,2.0,0,
166800,1863.1,11.8,36.5,153.8,210.0,1128.0,2.0,0,
166900,1862.2,11.4,36.5,166.3,210.0,1128.0,2.0,0,
167000,1862.1,11.6,36.5,133.8,210.0,1128.0,2.0,0,
167100,1861.0,12.5,36.5,143.6,210.0,1128.0,2.0,0,
167200,1861.4,11.6,36.5,175.6,210.0,1128.0,2.0,0,
167300,1868.8,38.6,38.2,151.0,221.0,1510.0,2.0,0,
167400,1878.7,35.4,37.9,131.6,222.0,1420.0,8.0,1,
167600,1889.9,34.3,37.5,124.5,222.0,1420.0,8.0,1,
167700,1855.9,20.1,35.7,123.4,164.0,1182.0,8.0,1,
167800,1850.5,28.7,35.7,81.2,208.0,1187.0,2.0,0,
167900,1871.8,15.6,36.6,67.7,208.0,1187.0,2.0,0,
168000,1860.0,12.6,36.5,93.0,208.0,1187.0,2.0,0,
168100,1860.8,10.8,36.6,185.1,208.0,1187.0,2.0,0,
168200,1859.8,11.1,36.5,199.4,208.0,1187.0,2.0,0,
168300,1864.0,12.4,36.5,134.7,208.0,1187.0,2.0,0,
168400,1862.4,11.3,36.5,101.3,208.0,1187.0,2.0,0,
168600,1861.3,12.1,36.5,123.4,208.0,1187.0,2.0,0,
168700,1861.2,11.8,36.6,146.6,208.0,1187.0,2.0,0,
168800,1860.3,11.3,36.5,172.8,208.0,1187.0,2.0,0,
168900,1869.3,44.5,36.2,135.2,231.0,1601.0,2.0,0,
169000,1874.7,29.3,36.2,87.3,177.0,1218.0,8.0,1,
169100,1837.2,49.8,35.7,124.5,176.0,1309.0,8.0,1,
169200,1882.8,27.6,39.0,167.4,176.0,1309.0,8.0,1,
169300,1837.0,23.1,37.4,175.8,133.0,1040.0,8.0,1,
169400,1874.0,50.5,38.1,133.3,186.0,1153.0,2.0,0,
169600,1857.3,9.9,36.4,52.5,186.0,1153.0,2.0,0,
169700,1861.0,10.7,36.4,109.6,186.0,1153.0,2.0,0,
169800,1856.1,11.6,36.4,122.5,186.0,1153.0,2.0,0,
169900,1859.5,12.0,36.4,102.4,186.0,1153.0,2.0,0,
170000,1861.9,11.5,36.4,153.7,186.0,1153.0,2.0,0,
170100,1861.5,11.6,36.4,125.0,186.0,1153.0,2.0,0,
170200,1861.5,11.5,36.4,137.3,186.0,1153.0,2.0,0,
170300,1859.5,11.5,36.4,139.8,186.0,1153.0,2.0,0,
170400,1859.9,12.0,36.4,125.1,186.0,1153.0,2.0,0,
170600,1871.6,20.8,35.6,85.1,144.0,1047.0,9.0,1,
170700,1830.7,29.2,35.6,70.8,198.0,1339.0,8.0,1,
170800,1882.8,26.5,32.7,68.9,227.0,1412.0,9.0,1,
170900,1852.7,31.3,32.8,56.4,195.0,1413.0,2.0,0,
171000,1867.9,50.6,36.7,65.9,263.0,1575.0,8.0,1,
171100,1865.3,17.8,36.1,107.5,181.0,1202.0,2.0,0,
171200,1854.2,11.0,36.1,186.5,181.0,1202.0,2.0,0,
171300,1859.3,11.9,36.1,188.8,181.0,1202.0,2.0,0,
171400,1858.8,10.7,36.1,158.3,181.0,1202.0,2.0,0,
171600,1860.0,11.7,36.0,100.1,181.0,1202.0,2.0,0,
171700,1861.2,11.2,36.1,99.6,181.0,1202.0,2.0,0,
171800,1862.7,11.2,36.1,100.3,181.0,1202.0,2.0,0,
171900,1861.1,12.3,36.0,122.7,181.0,1202.0,2.0,0,
172000,1861.3,10.8,36.1,154.8,181.0,1202.0,2.0,0,
172100,1860.3,37.8,36.0,164.5,181.0,1202.0,2.0,0,
172200,1857.9,17.6,33.5,88.9,164.0,1079.0,9.0,1,
172300,1862.5,76.2,35.4,55.3,205.0,1310.0,2.0,0,
172400,1880.0,23.7,38.0,56.4,274.0,1505.0,9.0,1,
172600,1864.4,44.8,40.5,68.9,296.0,1707.0,8.0,1,
172700,1853.3,15.5,38.7,165.7,187.0,1042.0,2.0,0,
172800,1857.5,11.7,38.6,195.7,187.0,1042.0,2.0,0,
172900,1860.8,10.4,38.6,187.8,187.0,1042.0,2.0,0,
173000,1859.7,10.9,38.6,153.8,187.0,1042.0,2.0,0,
173100,1862.4,12.5,38.6,87.6,187.0,1042.0,2.0,0,
173200,1861.5,11.3,38.6,99.7,187.0,1042.0,2.0,0,
173300,1861.6,11.2,38.6,108.2,187.0,1042.0,2.0,0,
173400,1862.5,12.0,38.6,124.7,187.0,1042.0,2.0,0,
173600,1861.4,11.4,38.6,133.1,187.0,1042.0,2.0,0,
173700,1861.1,54.0,38.6,134.0,187.0,1042.0,2.0,0,
173800,1851.3,22.3,41.0,245.4,173.0,1196.0,9.0,1,
173900,1858.2,43.4,41.9,234.7,214.0,1201.0,2.0,0,
174000,1859.2,27.3,40.5,212.2,198.0,1426.0,8.0,1,
174100,1854.5,53.8,43.3,131.7,207.0,1209.0,9.0,1,
174200,1887.4,41.4,44.7,136.7,207.0,1209.0,9.0,1,
174300,1846.5,12.0,43.3,207.4,146.0,1030.0,2.0,0,
174400,1850.1,10.4,43.2,226.1,191.0,1047.0,2.0,0,
174600,1861.2,10.6,43.2,186.6,191.0,1047.0,2.0,0,
174700,1861.4,11.8,43.2,55.9,191.0,1047.0,2.0,0,
174800,1860.3,11.3,43.2,92.7,191.0,1047.0,2.0,0,
174900,1861.1,11.8,43.2,102.2,191.0,1047.0,2.0,0,
175000,1861.3,11.4,43.2,110.2,191.0,1047.0,2.0,0,
175100,1860.0,11.8,43.2,117.5,191.0,1047.0,2.0,0,
175200,1860.0,12.1,43.2,159.2,191.0,1047.0,2.0,0,
175300,1859.5,11.2,43.2,178.2,191.0,1047.0,2.0,0,
175400,1835.3,48.3,39.3,132.7,176.0,1287.0,10.0,1,
175600,1857.7,32.0,41.5,131.6,206.0,1306.0,7.0,1,
175700,1844.4,29.8,41.5,137.0,188.0,1115.0,9.0,1,
175800,1879.3,19.2,37.8,150.4,204.0,1141.0,5.0,1,
175900,1829.8,38.2,33.1,90.4,160.0,1062.0,5.0,1,
176000,1869.3,13.2,35.2,37.7,160.0,1062.0,5.0,1,
176100,1860.8,11.5,35.2,105.8,160.0,1062.0,5.0,1,
176200,1861.2,10.7,35.2,199.4,160.0,1062.0,5.0,1,
176300,1858.0,11.0,35.2,201.4,160.0,1062.0,5.0,1,
176400,1863.4,12.0,35.2,152.1,160.0,1062.0,5.0,1,
176600,1860.8,11.4,35.2,122.3,160.0,1062.0,5.0,1,
176700,1861.3,12.2,35.2,140.4,160.0,1062.0,5.0,1,
176800,1860.9,11.6,35.2,168.1,160.0,1062.0,5.0,1,
176900,1860.5,11.9,35.2,151.1,160.0,1062.0,5.0,1,
177000,1856.1,53.0,35.2,132.4,216.0,1338.0,2.0,0,
177100,1882.0,55.5,36.0,66.3,216.0,1338.0,2.0,0,
177200,1854.2,21.9,34.4,82.6,179.0,1266.0,2.0,0,
177300,1858.3,51.3,35.7,125.0,223.0,1264.0,9.0,1,
177400,1864.1,20.8,37.5,164.5,177.0,1012.0,2.0,0,
177600,1873.7,15.8,37.6,166.2,177.0,1012.0,2.0,0,
177700,1858.7,10.9,37.6,84.6,177.0,1012.0,2.0,0,
177800,1861.8,11.2,37.6,42.8,177.0,1012.0,2.0,0,
177900,1860.3,11.1,37.6,44.8,177.0,1012.0,2.0,0,
178000,1861.9,11.5,37.6,65.6,177.0,1012.0,2.0,0,
178100,1858.8,11.9,37.6,117.2,177.0,1012.0,2.0,0,
178200,1860.4,12.4,37.6,100.2,177.0,1012.0,2.0,0,
178300,1860.8,11.3,37.6,100.3,177.0,1012.0,2.0,0,
178400,1860.3,11.3,37.6,107.5,177.0,1012.0,2.0,0,
178600,1867.6,48.6,40.9,216.2,177.0,1012.0,2.0,0,
178700,1872.7,33.3,42.7,220.4,163.0,1099.0,8.0,1,
178800,1841.3,52.1,38.1,189.3,200.0,1320.0,2.0,0,
178900,1881.6,58.0,41.8,155.6,200.0,1320.0,2.0,0,
179000,1858.6,15.4,41.3,178.6,198.0,1209.0,2.0,0,
179100,1849.0,35.1,42.9,202.6,208.0,1148.0,2.0,0,
179200,1880.5,21.4,47.1,212.9,208.0,1148.0,2.0,0,
179300,1858.4,11.0,47.0,212.9,208.0,1148.0,2.0,0,
179400,1863.3,12.3,47.0,234.9,208.0,1148.0,2.0,0,
179600,1861.5,11.5,47.1,251.4,208.0,1148.0,2.0,0,
179700,1859.6,12.0,47.0,82.1,208.0,1148.0,2.0,0,
179800,1861.0,11.5,47.0,94.3,208.0,1148.0,2.0,0,
179900,1861.4,11.5,47.0,77.2,208.0,1148.0,2.0,0,
180000,1860.5,11.7,47.0,109.9,208.0,1148.0,2.0,0,
180100,1861.2,11.3,47.0,133.4,208.0,1148.0,2.0,0,
180200,1870.6,53.5,45.4,117.2,208.0,1148.0,2.0,0,
180300,1863.8,36.1,42.2,68.4,242.0,1411.0,9.0,1,
180400,1842.4,37.1,42.2,67.1,184.0,1265.0,9.0,1,
180600,1837.1,16.4,39.4,80.6,195.0,1166.0,8.0,1,
180700,1880.6,62.4,39.7,123.5,260.0,1219.0,2.0,0,
180800,1856.0,20.1,36.3,102.1,213.0,1150.0,5.0,1,
180900,1855.5,11.9,36.3,164.1,213.0,1150.0,5.0,1,
181000,1862.2,10.8,36.3,200.6,213.0,1150.0,5.0,1,
181100,1862.0,11.0,36.3,190.4,213.0,1150.0,5.0,1,
181200,1860.2,12.3,36.3,80.7,213.0,1150.0,5.0,1,
181300,1861.3,11.4,36.3,104.4,213.0,1150.0,5.0,1,
181400,1861.6,11.0,36.3,116.6,213.0,1150.0,5.0,1,
181600,1861.2,11.5,36.3,124.0,213.0,1150.0,5.0,1,
181700,1861.7,11.7,36.3,143.0,213.0,1150.0,5.0,1,
181800,1860.9,42.0,36.3,134.0,213.0,1150.0,5.0,1,
181900,1864.4,21.0,35.6,194.5,160.0,1037.0,9.0,1,
182000,1846.2,46.5,35.8,184.5,222.0,1393.0,9.0,1,
182100,1878.6,22.3,33.7,136.5,255.0,1618.0,6.0,1,
182200,1839.4,46.1,33.0,50.3,170.0,1093.0,9.0,1,
182300,1881.4,21.8,38.2,55.3,170.0,1093.0,9.0,1,
182400,1854.7,24.4,33.1,165.0,221.0,1301.0,5.0,1,
182600,1861.2,10.0,33.1,165.6,221.0,1301.0,5.0,1,
182700,1862.6,11.6,33.1,53.7,221.0,1301.0,5.0,1,
182800,1859.2,11.3,33.1,57.2,221.0,1301.0,5.0,1,
182900,1862.6,12.0,33.1,117.6,221.0,1301.0,5.0,1,
183000,1859.7,11.6,33.1,151.8,221.0,1301.0,5.0,1,
183100,1861.3,11.7,33.1,122.6,221.0,1301.0,5.0,1,
183200,1859.8,11.6,33.1,132.9,221.0,1301.0,5.0,1,
183300,1860.1,12.5,33.1,177.4,221.0,1301.0,5.0,1,
183400,1859.8,12.1,33.1,217.2,221.0,1301.0,5.0,1,
183600,1872.2,55.5,33.6,45.0,198.0,1169.0,2.0,0,
183700,1868.4,17.9,32.2,78.0,185.0,1255.0,8.0,1,
183800,1842.3,46.5,31.9,75.1,247.0,1366.0,2.0,0,
183900,1876.4,17.3,33.5,78.2,135.0,1064.0,8.0,1,
184000,1844.9,16.9,32.8,190.2,196.0,1180.0,2.0,0,
184100,1854.9,11.9,32.6,217.2,220.0,1290.0,2.0,0,
184200,1861.2,11.6,32.6,218.3,220.0,1290.0,2.0,0,
184300,1864.3,11.1,32.6,145.9,220.0,1290.0,2.0,0,
184400,1859.2,11.1,32.6,67.2,220.0,1290.0,2.0,0,
184600,1860.0,11.0,32.6,158.2,220.0,1290.0,2.0,0,
184700,1862.2,12.2,32.6,114.2,220.0,1290.0,2.0,0,
184800,1861.5,11.5,32.6,100.4,220.0,1290.0,2.0,0,
184900,1861.4,11.1,32.6,146.7,220.0,1290.0,2.0,0,
185000,1861.5,11.8,32.6,171.0,220.0,1290.0,2.0,0,
185100,1849.9,39.5,32.6,165.5,188.0,1387.0,2.0,0,
185200,1881.7,46.5,36.1,188.3,188.0,1387.0,2.0,0,
185300,1839.7,18.4,37.1,165.5,175.0,1297.0,8.0,1,
185400,1879.1,59.6,39.7,164.8,179.0,1273.0,2.0,0,
185600,1843.9,27.9,35.0,107.2,213.0,1262.0,2.0,0,
185700,1876.1,15.5,38.0,66.0,213.0,1262.0,2.0,0,
185800,1859.2,11.1,38.0,54.0,213.0,1262.0,2.0,0,
185900,1861.6,11.7,37.9,66.2,213.0,1262.0,2.0,0,
186000,1856.5,12.1,38.0,67.2,213.0,1262.0,2.0,0,
186100,1859.3,12.0,38.0,100.0,213.0,1262.0,2.0,0,
186200,1862.1,11.7,38.0,124.0,213.0,1262.0,2.0,0,
186300,1860.8,12.0,38.0,135.3,213.0,1262.0,2.0,0,
186400,1862.3,11.2,38.0,168.3,213.0,1262.0,2.0,0,
186600,1860.9,11.5,38.0,157.1,213.0,1262.0,2.0,0,
186700,1872.4,47.7,42.1,240.6,213.0,1262.0,2.0,0,
186800,1875.6,23.9,40.7,238.1,158.0,1034.0,2.0,0,
186900,1839.0,21.1,36.9,211.1,287.0,1894.0,9.0,1,
187000,1875.4,24.6,38.3,167.1,226.0,1554.0,9.0,1,
187100,1833.8,26.5,35.2,88.9,181.0,1228.0,8.0,1,
187200,1870.0,53.3,36.4,67.9,162.0,1142.0,2.0,0,
187300,1870.7,12.9,35.2,66.3,200.0,1044.0,5.0,1,
187400,1859.7,11.0,35.2,52.4,200.0,1044.0,5.0,1,
187600,1861.6,11.4,35.2,79.2,200.0,1044.0,5.0,1,
187700,1859.6,11.9,35.2,113.5,200.0,1044.0,5.0,1,
187800,1858.8,12.2,35.2,138.6,200.0,1044.0,5.0,1,
187900,1860.7,11.2,35.2,100.5,200.0,1044.0,5.0,1,
188000,1860.9,12.0,35.2,90.7,200.0,1044.0,5.0,1,
188100,1860.3,11.8,35.2,118.1,200.0,1044.0,5.0,1,
188200,1860.8,11.5,35.2,164.8,200.0,1044.0,5.0,1,
188300,1872.0,66.1,33.0,114.8,200.0,1044.0,5.0,1,
188400,1852.7,16.2,32.4,67.3,160.0,1043.0,9.0,1,
188600,1871.7,21.2,39.9,130.2,226.0,1265.0,9.0,1,
188700,1845.0,32.1,39.3,156.3,210.0,1287.0,2.0,0,
188800,1876.5,31.7,42.2,164.8,216.0,1344.0,2.0,0,
188900,1850.4,11.9,39.9,158.9,195.0,1153.0,5.0,1,
189000,1859.1,11.2,39.9,125.4,195.0,1153.0,5.0,1,
189100,1862.7,10.3,39.9,154.8,195.0,1153.0,5.0,1,
189200,1862.9,11.4,39.8,146.1,195.0,1153.0,5.0,1,
189300,1861.3,11.9,39.8,85.4,195.0,1153.0,5.0,1,
189400,1859.9,11.5,39.8,132.6,195.0,1153.0,5.0,1,
189600,1862.3,11.7,39.8,156.5,195.0,1153.0,5.0,1,
189700,1860.8,11.5,39.8,177.3,195.0,1153.0,5.0,1,
189800,1861.1,12.0,39.8,172.3,195.0,1153.0,5.0,1,
189900,1860.3,18.0,39.8,195.5,191.0,1484.0,2.0,0,
190000,1838.8,44.4,35.5,114.5,183.0,1261.0,9.0,1,
190100,1887.8,35.2,38.1,131.9,183.0,1261.0,9.0,1,
190200,1849.3,23.2,30.3,158.0,166.0,1184.0,6.0,1,
190300,1853.6,36.6,32.3,133.2,169.0,1148.0,2.0,0,
190400,1867.5,28.4,34.5,76.1,200.0,1266.0,5.0,1,
190600,1859.4,10.1,32.1,125.0,200.0,1266.0,5.0,1,
190700,1860.9,11.2,32.1,66.6,200.0,1266.0,5.0,1,
190800,1861.2,11.3,32.1,50.3,200.0,1266.0,5.0,1,
190900,1861.5,12.0,32.1,100.3,200.0,1266.0,5.0,1,
191000,1861.6,13.1,32.1,212.9,200.0,1266.0,5.0,1,
191100,1860.8,13.5,32.2,196.1,200.0,1266.0,5.0,1,
191200,1861.7,14.0,32.2,177.8,200.0,1266.0,5.0,1,
191300,1860.4,14.6,32.3,174.8,200.0,1266.0,5.0,1,
191400,1861.5,14.9,32.4,169.8,200.0,1266.0,5.0,1,
191600,1850.5,44.3,32.8,99.7,271.0,1803.0,10.0,1,
191700,1881.0,26.8,35.4,57.5,271.0,1803.0,10.0,1,
191800,1827.8,41.9,33.9,99.2,217.0,1507.0,6.0,1,
191900,1889.6,28.4,38.1,157.0,217.0,1507.0,6.0,1,
192000,1858.9,30.1,34.4,200.3,208.0,1420.0,5.0,1,
192100,1856.0,40.4,36.8,170.0,165.0,1123.0,6.0,1,
192200,1865.7,15.7,37.9,106.3,165.0,1123.0,6.0,1,
192300,1860.7,15.1,37.9,72.0,165.0,1123.0,6.0,1,
192400,1861.5,14.5,38.0,70.9,165.0,1123.0,6.0,1,
192600,1859.8,15.1,38.2,89.2,165.0,1123.0,6.0,1,
192700,1771.1,38.9,39.4,108.9,1921.0,9286.0,23.0,1,
192800,1889.0,21.9,40.1,77.9,1921.0,9286.0,23.0,1,
192900,1877.5,18.8,40.2,75.7,1921.0,9286.0,23.0,1,
193000,1871.2,16.1,40.3,77.8,1921.0,9286.0,23.0,1,
193100,1866.3,15.9,40.3,132.9,1921.0,9286.0,23.0,1,
193200,1870.6,56.4,42.3,122.5,253.0,1550.0,2.0,0,
193300,1880.2,18.0,42.7,69.9,176.0,1155.0,9.0,1,
193400,1846.9,46.6,42.2,73.5,246.0,1623.0,6.0,1,
193600,1855.6,17.8,43.6,168.5,198.0,1316.0,6.0,1,
193700,1857.2,54.2,44.5,220.4,216.0,1383.0,6.0,1,
193800,1871.2,16.5,44.3,243.8,216.0,1383.0,6.0,1,
193900,1861.4,14.5,44.3,199.7,216.0,1383.0,6.0,1,
194000,1863.1,15.0,44.3,175.4,216.0,1383.0,6.0,1,
194100,1862.7,15.3,44.3,218.8,216.0,1383.0,6.0,1,
194200,1862.0,14.9,44.3,149.7,216.0,1383.0,6.0,1,
194300,1860.8,13.8,43.8,117.3,216.0,1383.0,6.0,1,
194400,1861.4,14.9,43.2,175.3,216.0,1383.0,6.0,1,
194600,1860.7,14.4,43.0,135.5,216.0,1383.0,6.0,1,
194700,1861.5,14.8,42.9,166.5,216.0,1383.0,6.0,1,
194800,1885.3,81.7,43.9,106.4,216.0,1383.0,6.0,1,
194900,1859.2,19.8,41.7,66.1,337.0,2029.0,9.0,1,
195000,1844.4,34.9,41.7,69.0,208.0,1447.0,2.0,0,
195100,1877.0,30.5,44.5,80.1,193.0,1233.0,8.0,1,
195200,1848.6,11.8,40.3,100.0,192.0,1203.0,2.0,0,
195300,1877.9,62.3,42.5,136.3,225.0,1284.0,6.0,1,
195400,1866.7,16.8,42.2,167.8,204.0,1256.0,5.0,1,
195600,1863.5,14.6,42.2,207.4,204.0,1256.0,5.0,1,
195700,1862.8,14.5,42.2,187.9,204.0,1256.0,5.0,1,
195800,1860.8,14.7,42.2,85.5,204.0,1256.0,5.0,1,
195900,1862.8,15.1,42.2,152.9,204.0,1256.0,5.0,1,
196000,1861.3,14.5,42.2,134.6,204.0,1256.0,5.0,1,
196100,1860.6,14.6,42.2,131.9,204.0,1256.0,5.0,1,
196200,1860.9,14.9,42.2,178.5,204.0,1256.0,5.0,1,
196300,1860.5,14.4,42.2,169.5,204.0,1256.0,5.0,1,
196400,1871.2,56.7,42.0,117.3,204.0,1256.0,5.0,1,
196600,1875.6,69.9,42.9,102.3,203.0,1327.0,9.0,1,
196700,1865.3,29.0,40.5,89.4,215.0,1399.0,9.0,1,
196800,1842.3,41.5,40.6,82.7,185.0,1236.0,9.0,1,
196900,1882.2,33.1,46.3,92.3,236.0,1245.0,5.0,1,
197000,1856.5,19.5,43.0,209.9,239.0,1452.0,5.0,1,
197100,1857.5,15.3,43.0,228.5,239.0,1452.0,5.0,1,
197200,1863.2,13.7,43.0,205.5,239.0,1452.0,5.0,1,
197300,1861.0,14.3,43.0,68.9,239.0,1452.0,5.0,1,
197400,1862.1,15.2,43.0,57.1,239.0,1452.0,5.0,1,
197600,1862.3,14.6,43.0,172.4,239.0,1452.0,5.0,1,
197700,1862.2,14.5,43.0,134.2,239.0,1452.0,5.0,1,
197800,1862.4,14.1,43.0,123.5,239.0,1452.0,5.0,1,
197900,1862.5,14.0,43.0,141.2,239.0,1452.0,5.0,1,
198000,1866.8,13.3,42.1,217.7,255.0,1525.0,2.0,0,
198100,1845.6,28.4,37.9,68.8,244.0,1691.0,9.0,1,
198200,1874.8,54.5,40.1,45.6,196.0,1454.0,2.0,0,
198300,1858.3,30.8,39.5,92.7,208.0,1626.0,9.0,1,
198400,1846.2,47.3,40.0,132.8,185.0,1366.0,9.0,1,
198600,1842.6,21.2,32.9,92.3,232.0,1499.0,5.0,1,
198700,1858.1,13.5,32.9,92.1,232.0,1499.0,5.0,1,
198800,1862.3,13.5,32.8,43.8,232.0,1499.0,5.0,1,
198900,1863.4,15.0,32.8,30.2,232.0,1499.0,5.0,1,
199000,1865.7,14.6,32.9,40.6,232.0,1499.0,5.0,1,
199100,1863.0,14.4,32.9,130.3,232.0,1499.0,5.0,1,
199200,1862.3,15.6,32.9,124.6,232.0,1499.0,5.0,1,
199300,1862.9,13.8,32.9,132.9,232.0,1499.0,5.0,1,
199400,1861.1,13.6,32.9,116.8,232.0,1499.0,5.0,1,
199600,1861.0,11.5,32.9,122.6,232.0,1499.0,5.0,1,
199700,1843.0,26.7,32.5,99.6,143.0,960.0,2.0,0,
199800,1876.3,12.4,36.3,158.5,139.0,881.0,2.0,0,
199900,1849.7,23.5,30.7,167.1,289.0,1627.0,2.0,0,
200000,1868.7,58.9,36.1,174.6,239.0,1466.0,2.0,0,
200100,1867.9,10.4,37.2,188.5,185.0,1201.0,5.0,1,
200200,1844.5,41.0,37.0,202.7,207.0,1528.0,2.0,0,
200300,1863.2,15.4,40.2,210.0,207.0,1528.0,2.0,0,
200400,1861.3,14.0,40.2,165.8,207.0,1528.0,2.0,0,
200600,1861.5,14.6,40.2,141.7,207.0,1528.0,2.0,0,
200700,1862.0,14.6,40.2,114.4,207.0,1528.0,2.0,0,
200800,1860.5,14.0,40.2,133.1,207.0,1528.0,2.0,0,
200900,1860.9,14.8,40.2,116.2,207.0,1528.0,2.0,0,
201000,1860.6,15.7,40.2,102.4,207.0,1528.0,2.0,0,
201100,1860.5,14.8,40.2,122.5,207.0,1528.0,2.0,0,
201200,1860.4,13.7,40.3,118.2,207.0,1528.0,2.0,0,
201300,1856.1,65.8,42.0,116.6,268.0,1717.0,2.0,0,
201400,1878.4,31.2,42.1,113.7,185.0,1488.0,8.0,1,
201600,1877.2,46.7,41.5,145.6,224.0,1422.0,2.0,0,
201700,1851.1,10.8,40.6,170.7,182.0,1167.0,5.0,1,
201800,1871.9,56.3,42.0,195.0,223.0,1385.0,2.0,0,
201900,1866.1,16.2,41.3,189.9,223.0,1385.0,2.0,0,
202000,1861.0,14.1,41.3,151.0,223.0,1385.0,2.0,0,
202100,1862.0,14.3,41.3,153.4,223.0,1385.0,2.0,0,
202200,1861.8,15.1,41.3,164.0,223.0,1385.0,2.0,0,
202300,1861.8,14.5,41.3,124.5,223.0,1385.0,2.0,0,
202400,1860.5,14.2,41.3,136.6,223.0,1385.0,2.0,0,
202600,1859.8,14.6,41.4,130.3,223.0,1385.0,2.0,0,
202700,1860.7,14.2,41.3,138.6,223.0,1385.0,2.0,0,
202800,1861.0,14.7,41.3,117.6,223.0,1385.0,2.0,0,
202900,1879.1,54.7,45.1,154.1,223.0,1385.0,2.0,0,
203000,1868.5,30.1,44.2,155.7,279.0,1779.0,8.0,1,
203100,1837.7,29.5,44.3,157.4,185.0,1464.0,2.0,0,
203200,1884.8,28.7,45.9,163.7,222.0,1437.0,5.0,1,
203300,1844.5,15.8,42.4,165.6,189.0,1463.0,8.0,1,
203400,1878.0,23.6,45.0,165.1,164.0,1142.0,6.0,1,
203600,1862.0,13.6,41.4,88.3,164.0,1142.0,6.0,1,
203700,1863.7,14.3,41.4,88.3,164.0,1142.0,6.0,1,
203800,1862.0,13.9,41.4,68.2,164.0,1142.0,6.0,1,
203900,1861.9,14.4,41.4,99.5,164.0,1142.0,6.0,1,
204000,1861.0,15.0,41.4,107.6,164.0,1142.0,6.0,1,
204100,1860.9,14.1,41.4,100.2,164.0,1142.0,6.0,1,
204200,1861.3,14.4,41.4,100.2,164.0,1142.0,6.0,1,
204300,1861.5,14.9,41.4,102.1,164.0,1142.0,6.0,1,
204400,1861.5,14.5,41.4,116.9,164.0,1142.0,6.0,1,
204600,1856.5,30.2,33.2,189.7,295.0,1670.0,2.0,0,
204700,1865.6,58.7,35.1,174.7,223.0,1507.0,2.0,0,
204800,1869.7,12.2,32.8,113.7,185.0,1254.0,2.0,0,
204900,1838.5,33.6,32.7,71.3,225.0,1661.0,6.0,1,
205000,1889.5,17.0,32.5,90.9,182.0,1201.0,5.0,1,
205100,1857.7,13.5,31.6,83.3,203.0,1337.0,5.0,1,
205200,1859.4,13.8,31.6,88.4,203.0,1337.0,5.0,1,
205300,1862.8,14.3,31.6,84.4,203.0,1337.0,5.0,1,
205400,1862.4,13.5,31.6,72.9,203.0,1337.0,5.0,1,
205600,1861.2,14.5,31.6,116.6,203.0,1337.0,5.0,1,
205700,1860.0,13.8,31.6,115.3,203.0,1337.0,5.0,1,
205800,1860.3,15.0,31.6,100.6,203.0,1337.0,5.0,1,
205900,1860.3,14.0,31.6,133.5,203.0,1337.0,5.0,1,
206000,1859.7,14.4,31.6,178.7,203.0,1337.0,5.0,1,
206100,1871.1,22.9,28.7,163.3,265.0,1726.0,2.0,0,
206200,1838.3,14.9,28.8,116.4,327.0,1738.0,2.0,0,
206300,1870.0,50.4,33.9,111.5,298.0,1583.0,2.0,0,
206400,1855.9,12.1,32.7,142.2,186.0,1273.0,2.0,0,
206600,1880.0,15.6,38.9,158.5,205.0,1083.0,5.0,1,
206700,1848.6,13.9,38.6,184.6,235.0,1375.0,5.0,1,
206800,1857.6,13.0,38.6,164.4,235.0,1375.0,5.0,1,
206900,1862.0,13.7,38.6,155.7,235.0,1375.0,5.0,1,
207000,1862.1,14.9,38.6,82.9,235.0,1375.0,5.0,1,
207100,1860.5,14.3,38.6,78.6,235.0,1375.0,5.0,1,
207200,1861.1,13.9,38.6,118.1,235.0,1375.0,5.0,1,
207300,1860.2,14.7,38.5,132.3,235.0,1375.0,5.0,1,
207400,1861.1,14.0,38.6,134.4,235.0,1375.0,5.0,1,
207600,1861.3,15.5,38.6,123.9,235.0,1375.0,5.0,1,
207700,1860.6,23.8,38.6,133.1,239.0,1834.0,2.0,0,
207800,1834.9,12.5,38.8,99.1,257.0,1265.0,2.0,0,
207900,1886.8,52.7,39.5,55.5,266.0,1417.0,2.0,0,
208000,1850.7,12.9,36.3,65.8,180.0,1263.0,9.0,1,
208100,1855.8,43.1,39.2,70.3,240.0,1483.0,2.0,0,
208200,1866.8,22.8,36.1,117.0,233.0,1381.0,5.0,1,
208300,1851.7,9.5,36.2,187.0,229.0,1417.0,2.0,0,
208400,1860.9,13.1,36.1,185.6,229.0,1417.0,2.0,0,
208600,1862.7,13.8,36.1,56.9,229.0,1417.0,2.0,0,
208700,1860.1,14.1,36.1,66.8,229.0,1417.0,2.0,0,
208800,1861.4,15.1,36.1,117.5,229.0,1417.0,2.0,0,
208900,1859.7,13.8,36.1,132.5,229.0,1417.0,2.0,0,
209000,1860.4,14.0,36.1,134.7,229.0,1417.0,2.0,0,
209100,1860.2,14.8,36.1,151.8,229.0,1417.0,2.0,0,
209200,1861.1,14.2,36.1,148.6,229.0,1417.0,2.0,0,
209300,1859.5,18.5,36.1,136.2,229.0,1417.0,2.0,0,
209400,1845.5,51.8,36.2,110.6,254.0,1436.0,2.0,0,
209600,1831.8,18.6,39.0,177.4,187.0,1371.0,6.0,1,
209700,1879.9,31.9,41.3,166.3,200.0,1299.0,2.0,0,
209800,1871.5,23.2,36.4,156.2,243.0,1534.0,5.0,1,
209900,1848.7,29.4,36.4,171.7,191.0,1285.0,2.0,0,
210000,1866.8,14.9,37.8,158.0,191.0,1285.0,2.0,0,
210100,1861.3,14.3,37.8,67.5,191.0,1285.0,2.0,0,
210200,1861.0,13.7,37.8,66.3,191.0,1285.0,2.0,0,
210300,1858.7,14.7,37.8,65.6,191.0,1285.0,2.0,0,
210400,1860.2,14.0,37.8,112.9,191.0,1285.0,2.0,0,
210600,1860.8,15.2,37.8,117.5,191.0,1285.0,2.0,0,
210700,1860.8,13.8,37.9,140.5,191.0,1285.0,2.0,0,
210800,1860.3,13.9,37.9,124.6,191.0,1285.0,2.0,0,
210900,1860.9,15.2,37.8,122.7,191.0,1285.0,2.0,0,
211000,1850.7,48.6,37.9,117.2,252.0,1757.0,2.0,0,
211100,1879.0,18.4,36.6,56.9,194.0,1358.0,9.0,1,
211200,1847.5,28.6,35.5,74.5,250.0,1790.0,6.0,1,
211300,1877.9,52.5,35.5,125.3,210.0,1546.0,9.0,1,
211400,1864.5,19.7,37.8,130.5,198.0,1403.0,5.0,1,
211600,1876.7,15.5,40.3,195.8,198.0,1403.0,5.0,1,
211700,1862.5,13.7,40.3,149.8,198.0,1403.0,5.0,1,
211800,1863.0,14.8,40.3,153.4,198.0,1403.0,5.0,1,
211900,1860.3,14.3,40.3,183.6,198.0,1403.0,5.0,1,
212000,1860.9,13.7,40.3,165.5,198.0,1403.0,5.0,1,
212100,1859.9,14.5,40.3,122.1,198.0,1403.0,5.0,1,
212200,1859.9,14.7,40.4,123.0,198.0,1403.0,5.0,1,
212300,1860.3,13.8,40.3,116.6,198.0,1403.0,5.0,1,
212400,1860.6,15.1,40.3,122.8,198.0,1403.0,5.0,1,
212600,1879.2,62.2,41.6,101.3,294.0,1923.0,2.0,0,
212700,1870.4,16.3,40.4,66.9,234.0,1523.0,10.0,1,
212800,1841.9,47.3,40.5,91.9,208.0,1598.0,2.0,0,
212900,1875.7,27.2,46.4,146.2,223.0,1440.0,9.0,1,
213000,1855.0,23.3,41.3,186.2,213.0,1346.0,2.0,0,
213100,1869.9,61.7,44.9,166.5,218.0,1374.0,5.0,1,
213200,1877.7,14.9,43.8,158.7,217.0,1175.0,5.0,1,
213300,1859.1,14.6,43.8,175.2,217.0,1175.0,5.0,1,
213400,1861.1,13.7,43.8,177.8,217.0,1175.0,5.0,1,
213600,1860.7,14.9,43.8,143.7,217.0,1175.0,5.0,1,
213700,1860.7,13.9,43.8,137.7,217.0,1175.0,5.0,1,
213800,1859.7,13.4,43.8,138.9,217.0,1175.0,5.0,1,
213900,1860.9,14.7,43.8,133.2,217.0,1175.0,5.0,1,
214000,1860.0,14.2,43.8,153.3,217.0,1175.0,5.0,1,
214100,1860.7,13.6,43.8,132.5,217.0,1175.0,5.0,1,
214200,1871.9,54.9,45.2,117.7,217.0,1175.0,5.0,1,
214300,1850.5,18.5,43.3,124.7,229.0,1634.0,9.0,1,
214400,1865.4,69.2,45.0,114.5,216.0,1490.0,2.0,0,
214600,1848.1,16.2,43.4,115.7,223.0,1398.0,2.0,0,
214700,1872.5,49.2,44.1,144.9,233.0,1414.0,2.0,0,
214800,1867.4,16.6,43.2,156.6,163.0,1248.0,5.0,1,
214900,1856.6,12.7,43.2,158.3,163.0,1248.0,5.0,1,
215000,1860.6,13.8,43.2,157.7,163.0,1248.0,5.0,1,
215100,1861.4,14.9,43.2,130.0,163.0,1248.0,5.0,1,
215200,1861.0,15.0,43.3,87.8,163.0,1248.0,5.0,1,
215300,1863.3,13.8,43.3,118.0,163.0,1248.0,5.0,1,
215400,1862.0,15.5,43.3,116.8,163.0,1248.0,5.0,1,
215600,1860.4,13.7,43.3,164.8,163.0,1248.0,5.0,1,
215700,1861.5,15.1,43.3,132.7,163.0,1248.0,5.0,1,
215800,1869.3,75.0,44.0,143.8,163.0,1248.0,5.0,1,
215900,1866.4,28.3,43.6,151.9,253.0,1710.0,9.0,1,
216000,1844.0,32.1,43.5,133.7,214.0,1457.0,2.0,0,
216100,1883.5,28.3,38.8,123.8,207.0,1457.0,9.0,1,
216200,1833.0,11.0,39.0,66.7,169.0,1220.0,2.0,0,
216300,1886.2,72.8,39.9,54.3,225.0,1337.0,2.0,0,
216400,1862.4,21.7,40.7,67.0,210.0,1254.0,5.0,1,
216600,1860.9,14.0,40.7,164.6,210.0,1254.0,5.0,1,
216700,1859.5,13.4,40.7,144.5,210.0,1254.0,5.0,1,
216800,1860.0,13.1,40.7,66.9,210.0,1254.0,5.0,1,
216900,1861.7,15.0,40.7,99.5,210.0,1254.0,5.0,1,
217000,1859.7,13.8,40.7,101.5,210.0,1254.0,5.0,1,
217100,1861.0,13.5,40.7,116.6,210.0,1254.0,5.0,1,
217200,1860.8,14.9,40.7,114.9,210.0,1254.0,5.0,1,
217300,1860.2,13.8,40.7,122.2,210.0,1254.0,5.0,1,
217400,1859.8,52.7,40.7,118.0,210.0,1254.0,5.0,1,
217600,1855.9,66.1,41.8,204.0,278.0,1848.0,9.0,1,
217700,1873.5,24.6,42.6,170.8,194.0,1374.0,6.0,1,
217800,1840.2,42.9,42.6,123.8,204.0,1462.0,9.0,1,
217900,1884.3,27.6,46.4,124.1,204.0,1462.0,9.0,1,
218000,1853.8,23.7,40.8,124.8,183.0,1134.0,5.0,1,
218100,1850.4,14.9,40.8,155.9,183.0,1134.0,5.0,1,
218200,1862.0,13.7,40.8,144.9,183.0,1134.0,5.0,1,
218300,1864.4,14.2,40.9,49.0,183.0,1134.0,5.0,1,
218400,1860.6,14.4,40.9,37.3,183.0,1134.0,5.0,1,
218600,1860.6,13.7,40.9,117.2,183.0,1134.0,5.0,1,
218700,1861.7,15.0,40.9,116.8,183.0,1134.0,5.0,1,
218800,1861.6,14.6,40.9,117.0,183.0,1134.0,5.0,1,
218900,1861.2,14.0,40.9,133.8,183.0,1134.0,5.0,1,
219000,1860.9,16.0,40.9,135.9,183.0,1134.0,5.0,1,
219100,1845.7,25.9,37.0,115.2,244.0,1741.0,2.0,0,
219200,1871.2,62.8,37.9,67.2,321.0,2038.0,9.0,1,
219300,1865.2,15.9,36.7,71.7,190.0,1309.0,2.0,0,
219400,1839.8,43.5,36.8,101.0,192.0,1519.0,9.0,1,
219600,1846.4,33.9,37.7,166.1,258.0,1526.0,5.0,1,
219700,1854.7,14.6,37.9,188.8,232.0,1530.0,5.0,1,
219800,1859.0,15.2,37.9,167.4,232.0,1530.0,5.0,1,
219900,1863.4,14.8,37.9,36.0,232.0,1530.0,5.0,1,
220000,1860.7,14.1,37.9,35.1,232.0,1530.0,5.0,1,
220100,1860.6,13.3,37.9,72.3,232.0,1530.0,5.0,1,
220200,1860.1,14.4,37.9,100.5,232.0,1530.0,5.0,1,
220300,1861.4,13.9,37.9,111.8,232.0,1530.0,5.0,1,
220400,1860.0,13.9,37.9,114.2,232.0,1530.0,5.0,1,
220600,1859.6,14.3,37.9,146.5,232.0,1530.0,5.0,1,
220700,1848.8,18.4,37.7,124.9,237.0,1832.0,2.0,0,
220800,1873.5,54.1,39.6,66.9,249.0,1733.0,2.0,0,
220900,1854.4,11.2,37.4,67.3,184.0,1297.0,2.0,0,
221000,1859.7,59.4,40.9,67.3,213.0,1402.0,2.0,0,
221100,1879.6,17.6,38.5,87.6,180.0,1257.0,8.0,1,
221200,1843.0,18.5,38.5,216.1,200.0,1270.0,2.0,0,
221300,1864.8,16.2,39.3,218.8,203.0,1403.0,2.0,0,
221400,1859.4,13.9,39.3,158.3,203.0,1403.0,2.0,0,
221600,1859.7,13.3,39.3,66.3,203.0,1403.0,2.0,0,
221700,1864.4,15.5,39.3,83.5,203.0,1403.0,2.0,0,
221800,1862.2,14.7,39.3,132.8,203.0,1403.0,2.0,0,
221900,1862.8,13.3,39.3,123.7,203.0,1403.0,2.0,0,
222000,1862.3,14.7,39.3,122.7,203.0,1403.0,2.0,0,
222100,1862.1,14.6,39.3,133.1,203.0,1403.0,2.0,0,
222200,1862.3,13.8,39.3,138.7,203.0,1403.0,2.0,0,
222300,1845.8,49.7,39.3,117.2,237.0,1869.0,2.0,0,
222400,1889.5,47.5,43.7,156.6,237.0,1869.0,2.0,0,
222600,1863.0,41.0,41.9,155.8,227.0,1553.0,2.0,0,
222700,1858.8,22.9,38.5,136.9,190.0,1407.0,5.0,1,
222800,1857.0,32.1,38.5,159.1,205.0,1291.0,2.0,0,
222900,1882.4,20.6,40.3,186.2,205.0,1291.0,2.0,0,
223000,1859.7,14.7,40.3,156.6,205.0,1291.0,2.0,0,
223100,1862.4,13.2,40.3,156.5,205.0,1291.0,2.0,0,
223200,1860.5,14.4,40.3,165.3,205.0,1291.0,2.0,0,
223300,1863.3,15.2,40.3,152.9,205.0,1291.0,2.0,0,
223400,1863.4,13.7,40.3,170.0,205.0,1291.0,2.0,0,
223600,1863.0,13.8,40.3,177.8,205.0,1291.0,2.0,0,
223700,1862.5,13.9,40.3,141.9,205.0,1291.0,2.0,0,
223800,1862.3,15.5,40.3,117.1,205.0,1291.0,2.0,0,
223900,1868.0,40.5,40.3,123.9,286.0,1755.0,2.0,0,
224000,1879.3,23.3,39.5,125.1,260.0,1527.0,2.0,0,
224100,1828.7,38.6,35.9,131.7,205.0,1538.0,2.0,0,
224200,1887.7,38.6,42.6,132.2,205.0,1538.0,2.0,0,
224300,1858.3,27.4,38.1,132.2,206.0,1503.0,5.0,1,
224400,1860.5,44.8,39.5,155.7,176.0,1385.0,6.0,1,
224600,1856.8,12.8,41.9,143.6,176.0,1385.0,6.0,1,
224700,1860.6,14.4,41.8,176.5,176.0,1385.0,6.0,1,
224800,1861.5,13.2,41.8,201.0,176.0,1385.0,6.0,1,
224900,1860.6,14.1,41.8,164.4,176.0,1385.0,6.0,1,
225000,1863.3,15.0,41.8,141.0,176.0,1385.0,6.0,1,
225100,1862.1,13.8,41.8,178.7,176.0,1385.0,6.0,1,
225200,1862.6,11.4,41.8,194.8,176.0,1385.0,6.0,1,
225300,1861.6,10.1,41.7,138.0,176.0,1385.0,6.0,1,
225400,1861.7,3.2,41.6,116.4,176.0,1385.0,6.0,1,
225600,1862.2,9.0,41.5,174.2,85.0,565.0,2.0,0,
225700,1853.4,25.9,42.7,228.3,93.0,597.0,2.0,0,
225800,1872.4,12.9,41.7,232.6,93.0,597.0,2.0,0,
225900,1845.8,4.1,37.7,234.3,113.0,779.0,2.0,0,
226000,1869.5,19.6,38.7,233.5,105.0,724.0,2.0,0,
226100,1855.7,5.9,31.1,228.9,128.0,854.0,2.0,0,
226200,1861.6,13.9,31.0,197.7,128.0,854.0,2.0,0,
226300,1861.8,10.8,31.0,197.5,128.0,854.0,2.0,0,
226400,1861.9,3.8,30.9,134.7,128.0,854.0,2.0,0,
226600,1861.4,2.2,30.4,57.4,128.0,854.0,2.0,0,
226700,1860.4,3.0,30.1,66.2,128.0,854.0,2.0,0,
226800,1860.7,2.3,29.9,87.0,128.0,854.0,2.0,0,
226900,1860.6,2.0,29.7,92.6,128.0,854.0,2.0,0,
227000,1860.2,2.7,29.6,99.0,128.0,854.0,2.0,0,
227100,1860.5,22.1,29.6,99.2,128.0,854.0,2.0,0,
227200,1854.6,4.6,26.4,232.0,87.0,584.0,2.0,0,
227300,1857.5,18.1,26.8,236.6,90.0,606.0,2.0,0,
227400,1857.4,4.3,25.5,232.9,91.0,557.0,2.0,0,
227600,1878.7,22.6,25.3,226.3,160.0,1135.0,2.0,0,
227700,1846.8,7.3,24.2,212.4,237.0,1297.0,2.0,0,
227800,1847.9,13.2,24.4,189.0,263.0,1391.0,2.0,0,
227900,1860.8,12.9,24.4,158.7,263.0,1391.0,2.0,0,
228000,1860.6,14.9,24.6,74.4,263.0,1391.0,2.0,0,
228100,1862.0,15.9,24.9,56.7,263.0,1391.0,2.0,0,
228200,1862.6,14.6,25.3,104.6,263.0,1391.0,2.0,0,
228300,1862.1,14.9,25.6,116.5,263.0,1391.0,2.0,0,
228400,1860.9,14.8,25.9,116.9,263.0,1391.0,2.0,0,
228600,1860.1,15.1,26.6,141.5,263.0,1391.0,2.0,0,
228700,1860.5,14.0,26.8,123.9,263.0,1391.0,2.0,0,
228800,1832.9,44.9,25.3,116.2,267.0,1535.0,2.0,0,
228900,1890.0,42.6,34.6,82.6,267.0,1535.0,2.0,0,
229000,1862.7,23.3,33.2,131.1,221.0,1699.0,7.0,1,
229100,1857.7,44.8,35.3,164.2,201.0,1491.0,2.0,0,
229200,1876.9,23.8,34.8,165.3,226.0,1649.0,5.0,1,
229300,1833.0,33.0,35.0,149.4,193.0,1186.0,2.0,0,
229400,1875.9,14.2,36.7,130.6,193.0,1186.0,2.0,0,
229600,1861.5,14.2,36.8,75.1,193.0,1186.0,2.0,0,
229700,1862.0,14.8,36.8,72.5,193.0,1186.0,2.0,0,
229800,1862.1,16.2,36.7,77.5,193.0,1186.0,2.0,0,
229900,1861.9,14.8,36.8,116.7,193.0,1186.0,2.0,0,
230000,1860.6,14.1,36.8,116.2,193.0,1186.0,2.0,0,
230100,1861.3,15.3,36.8,98.9,193.0,1186.0,2.0,0,
230200,1860.8,14.9,36.8,112.2,193.0,1186.0,2.0,0,
230300,1860.8,13.7,36.8,123.9,193.0,1186.0,2.0,0,
230400,1859.5,50.5,36.8,122.9,282.0,1618.0,2.0,0,
230600,1845.0,22.8,32.8,139.5,213.0,1591.0,8.0,1,
230700,1867.7,44.0,39.6,164.5,213.0,1591.0,8.0,1,
230800,1864.1,22.1,36.7,139.4,232.0,1703.0,6.0,1,
230900,1861.0,54.2,38.5,103.4,244.0,1841.0,6.0,1,
231000,1873.4,15.2,39.3,91.5,175.0,1077.0,5.0,1,
231100,1861.2,15.5,39.3,87.1,175.0,1077.0,5.0,1,
231200,1862.3,13.6,39.2,92.2,175.0,1077.0,5.0,1,
231300,1863.9,15.7,39.2,98.9,175.0,1077.0,5.0,1,
231400,1863.1,3.0,39.1,100.5,175.0,1077.0,5.0,1,
231600,1860.5,2.2,38.6,57.1,175.0,1077.0,5.0,1,
231700,1860.3,2.3,38.5,66.0,175.0,1077.0,5.0,1,
231800,1860.1,2.8,38.2,107.2,175.0,1077.0,5.0,1,
231900,1861.0,2.5,38.0,115.8,175.0,1077.0,5.0,1,
232000,1866.3,17.8,38.0,134.6,175.0,1077.0,5.0,1,
232100,1858.8,7.5,35.3,210.6,86.0,573.0,2.0,0,
232200,1851.3,29.0,37.4,226.8,98.0,648.0,2.0,0,
232300,1874.5,14.8,35.9,230.1,98.0,648.0,2.0,0,
232400,1850.8,2.6,32.5,226.9,100.0,653.0,2.0,0,
232600,1866.1,3.4,29.0,228.5,100.0,666.0,2.0,0,
232700,1860.5,2.7,28.7,197.6,100.0,666.0,2.0,0,
232800,1860.9,2.4,28.4,195.8,100.0,666.0,2.0,0,
232900,1861.1,2.2,28.2,195.8,100.0,666.0,2.0,0,
233000,1860.6,2.8,28.0,158.4,100.0,666.0,2.0,0,
233100,1860.8,2.1,28.0,165.1,100.0,666.0,2.0,0,
233200,1860.6,2.3,28.0,112.5,100.0,666.0,2.0,0,
233300,1860.8,2.9,28.0,100.6,100.0,666.0,2.0,0,
233400,1860.1,2.2,28.0,100.6,100.0,666.0,2.0,0,
233600,1862.3,9.0,28.4,137.8,100.0,666.0,2.0,0,
233700,1861.6,4.7,25.2,218.6,76.0,555.0,2.0,0,
233800,1856.5,19.4,25.6,221.5,78.0,570.0,2.0,0,
233900,1872.0,6.2,22.0,208.3,101.0,633.0,2.0,0,
234000,1842.3,17.9,17.8,186.6,104.0,654.0,2.0,0,
234100,1878.4,14.8,20.3,190.3,104.0,654.0,2.0,0,
234200,1857.2,3.6,18.5,189.6,102.0,655.0,2.0,0,
234300,1861.5,2.4,18.5,196.1,102.0,655.0,2.0,0,
234400,1860.8,2.4,18.5,208.6,102.0,655.0,2.0,0,
234600,1860.5,2.6,18.5,156.6,102.0,655.0,2.0,0,
234700,1861.0,2.0,18.5,133.9,102.0,655.0,2.0,0,
234800,1860.8,2.7,18.5,124.6,102.0,655.0,2.0,0,
234900,1860.7,2.9,18.5,105.0,102.0,655.0,2.0,0,
235000,1860.8,2.0,18.5,130.4,102.0,655.0,2.0,0,
235100,1860.2,2.8,18.5,133.4,102.0,655.0,2.0,0,
235200,1860.6,17.6,18.5,132.2,102.0,655.0,2.0,0,
235300,1860.3,4.6,19.8,234.2,105.0,738.0,2.0,0,
235400,1848.8,51.9,21.3,238.3,125.0,913.0,2.0,0,
235600,1836.5,9.6,24.4,124.3,242.0,1322.0,2.0,0,
235700,1877.7,31.7,29.9,88.0,283.0,1392.0,2.0,0,
235800,1860.0,14.5,28.9,68.1,226.0,1198.0,5.0,1,
235900,1851.0,15.5,29.1,69.4,226.0,1198.0,5.0,1,
236000,1862.6,15.3,29.5,68.7,226.0,1198.0,5.0,1,
236100,1868.3,16.9,29.8,56.1,226.0,1198.0,5.0,1,
236200,1864.5,13.4,30.0,67.0,226.0,1198.0,5.0,1,
236300,1857.9,14.1,30.3,82.8,226.0,1198.0,5.0,1,
236400,1859.5,15.2,30.6,114.4,226.0,1198.0,5.0,1,
236600,1860.5,14.6,31.1,122.5,226.0,1198.0,5.0,1,
236700,1861.8,15.6,31.4,142.9,226.0,1198.0,5.0,1,
236800,1861.0,13.5,31.6,155.7,226.0,1198.0,5.0,1,
236900,1855.7,38.7,31.4,82.5,205.0,1387.0,2.0,0,
237000,1864.3,58.1,34.0,35.1,185.0,1471.0,2.0,0,
237100,1878.4,21.0,32.4,36.1,216.0,1506.0,2.0,0,
237200,1843.8,22.2,32.5,53.4,193.0,1529.0,2.0,0,
237300,1873.3,22.7,33.8,72.1,197.0,1337.0,2.0,0,
237400,1856.8,16.0,32.1,92.9,227.0,1596.0,5.0,1,
237600,1858.9,15.0,32.0,124.2,227.0,1596.0,5.0,1,
237700,1862.2,14.6,32.0,56.4,227.0,1596.0,5.0,1,
237800,1859.5,14.0,31.9,54.1,227.0,1596.0,5.0,1,
237900,1858.9,15.5,31.9,150.8,227.0,1596.0,5.0,1,
238000,1859.4,15.6,31.9,163.5,227.0,1596.0,5.0,1,
238100,1858.7,14.3,32.0,133.7,227.0,1596.0,5.0,1,
238200,1859.6,15.9,31.9,117.9,227.0,1596.0,5.0,1,
238300,1859.0,15.3,31.9,136.3,227.0,1596.0,5.0,1,
238400,1859.0,15.1,31.9,151.3,227.0,1596.0,5.0,1,
238600,1856.3,66.1,35.1,57.2,345.0,2339.0,10.0,1,
238700,1872.9,17.7,37.5,67.1,274.0,1646.0,5.0,1,
238800,1850.3,16.4,37.3,71.3,254.0,1620.0,6.0,1,
238900,1878.0,23.4,37.5,94.0,223.0,1405.0,6.0,1,
239000,1856.5,25.1,37.4,105.0,258.0,1479.0,5.0,1,
239100,1846.8,14.7,37.5,156.9,202.0,1338.0,6.0,1,
239200,1859.8,15.3,37.5,165.5,202.0,1338.0,6.0,1,
239300,1861.8,14.1,37.5,81.3,202.0,1338.0,6.0,1,
239400,1860.4,15.1,37.5,37.1,202.0,1338.0,6.0,1,
239600,1861.3,14.8,37.5,157.4,202.0,1338.0,6.0,1,
239700,1860.9,15.5,37.5,174.8,202.0,1338.0,6.0,1,
239800,1861.1,16.0,37.5,140.4,202.0,1338.0,6.0,1,
239900,1861.0,14.7,37.5,175.0,202.0,1338.0,6.0,1,
240000,1861.3,14.8,37.5,132.3,202.0,1338.0,6.0,1,
240100,1845.3,19.7,37.5,116.4,271.0,1826.0,2.0,0,
240200,1875.4,86.7,42.7,87.3,312.0,2165.0,7.0,1,
240300,1870.2,17.1,39.7,137.2,235.0,1537.0,6.0,1,
240400,1843.4,22.9,39.6,131.8,300.0,1674.0,6.0,1,
240600,1859.5,20.1,39.5,90.7,308.0,1676.0,5.0,1,
240700,1861.3,20.2,43.6,144.8,268.0,1518.0,5.0,1,
240800,1858.2,14.2,43.6,177.8,268.0,1518.0,5.0,1,
240900,1862.1,14.2,43.6,183.6,268.0,1518.0,5.0,1,
241000,1862.0,14.8,43.6,183.6,268.0,1518.0,5.0,1,
241100,1860.5,14.5,43.6,190.3,268.0,1518.0,5.0,1,
241200,1861.6,15.4,43.6,136.8,268.0,1518.0,5.0,1,
241300,1861.2,15.4,43.6,133.7,268.0,1518.0,5.0,1,
241400,1860.8,14.9,43.6,135.1,268.0,1518.0,5.0,1,
241600,1860.8,15.6,43.6,123.0,268.0,1518.0,5.0,1,
241700,1859.1,14.2,43.6,142.1,269.0,1974.0,2.0,0,
241800,1866.2,63.0,40.6,66.1,288.0,1938.0,7.0,1,
241900,1852.3,14.1,38.3,66.6,218.0,1450.0,6.0,1,
242000,1865.5,69.8,42.5,67.6,289.0,1753.0,6.0,1,
242100,1884.5,18.4,44.3,78.5,263.0,1315.0,5.0,1,
242200,1848.3,10.5,44.3,164.7,262.0,1447.0,5.0,1,
242300,1865.9,21.7,41.6,157.6,247.0,1512.0,6.0,1,
242400,1857.3,14.6,41.6,131.9,247.0,1512.0,6.0,1,
242600,1860.5,13.9,41.7,100.2,247.0,1512.0,6.0,1,
242700,1860.5,14.6,41.7,116.5,247.0,1512.0,6.0,1,
242800,1859.7,15.4,41.6,115.5,247.0,1512.0,6.0,1,
242900,1860.8,14.3,41.7,132.1,247.0,1512.0,6.0,1,
243000,1860.2,14.8,41.7,132.0,247.0,1512.0,6.0,1,
243100,1860.7,15.0,41.6,142.3,247.0,1512.0,6.0,1,
243200,1860.5,14.9,41.6,167.1,247.0,1512.0,6.0,1,
243300,1841.3,17.3,41.6,176.0,265.0,1949.0,2.0,0,
243400,1891.6,50.4,44.8,75.8,277.0,1772.0,2.0,0,
243600,1849.3,39.0,41.1,67.1,252.0,1536.0,6.0,1,
243700,1882.6,24.2,35.0,67.7,305.0,1612.0,5.0,1,
243800,1831.8,9.6,35.0,69.1,269.0,1315.0,5.0,1,
243900,1885.3,33.5,38.7,70.6,279.0,1453.0,5.0,1,
244000,1858.7,15.3,38.0,70.7,279.0,1453.0,5.0,1,
244100,1861.5,14.4,38.0,85.2,279.0,1453.0,5.0,1,
244200,1862.1,14.6,38.0,91.3,279.0,1453.0,5.0,1,
244300,1860.9,14.9,37.9,104.9,279.0,1453.0,5.0,1,
244400,1860.4,15.6,38.0,133.1,279.0,1453.0,5.0,1,
244600,1860.5,15.2,38.0,117.9,279.0,1453.0,5.0,1,
244700,1859.9,14.9,38.0,117.5,279.0,1453.0,5.0,1,
244800,1860.7,14.4,38.0,117.4,279.0,1453.0,5.0,1,
244900,1860.5,14.4,37.9,117.2,279.0,1453.0,5.0,1,
245000,1877.1,31.8,39.9,69.0,253.0,1958.0,2.0,0,
245100,1865.8,24.5,36.7,53.8,278.0,1961.0,8.0,1,
245200,1850.6,49.1,37.1,40.6,277.0,1548.0,6.0,1,
245300,1888.9,30.8,40.1,39.1,317.0,1597.0,5.0,1,
245400,1844.0,10.6,40.2,82.3,231.0,1353.0,5.0,1,
245600,1863.3,15.0,39.7,108.1,314.0,1435.0,5.0,1,
245700,1861.5,14.4,39.7,81.7,314.0,1435.0,5.0,1,
245800,1861.8,14.9,39.7,74.4,314.0,1435.0,5.0,1,
245900,1861.5,14.3,39.7,69.5,314.0,1435.0,5.0,1,
246000,1859.3,14.5,39.7,99.0,314.0,1435.0,5.0,1,
246100,1860.5,15.2,39.7,118.1,314.0,1435.0,5.0,1,
246200,1860.4,14.1,39.7,154.5,314.0,1435.0,5.0,1,
246300,1860.1,14.1,39.7,133.2,314.0,1435.0,5.0,1,
246400,1860.1,15.3,39.7,117.0,314.0,1435.0,5.0,1,
246600,1875.0,42.5,40.9,118.0,259.0,2050.0,2.0,0,
246700,1866.0,24.8,40.0,68.8,301.0,2071.0,8.0,1,
246800,1856.2,37.7,40.0,69.6,228.0,1443.0,6.0,1,
246900,1882.1,22.6,36.3,68.7,281.0,1482.0,5.0,1,
247000,1849.6,12.2,36.4,88.3,205.0,1220.0,6.0,1,
247100,1863.2,37.9,38.3,101.1,216.0,1182.0,6.0,1,
247200,1870.0,15.0,36.7,84.4,311.0,1561.0,5.0,1,
247300,1860.9,14.7,36.7,93.7,311.0,1561.0,5.0,1,
247400,1862.4,14.6,36.7,106.3,311.0,1561.0,5.0,1,
247600,1860.1,15.1,36.7,122.2,311.0,1561.0,5.0,1,
247700,1859.8,14.4,36.7,131.8,311.0,1561.0,5.0,1,
247800,1860.0,14.1,36.7,139.7,311.0,1561.0,5.0,1,
247900,1860.0,15.5,36.7,130.2,311.0,1561.0,5.0,1,
248000,1859.7,14.6,36.7,133.8,311.0,1561.0,5.0,1,
248100,1860.0,14.3,36.7,123.8,311.0,1561.0,5.0,1,
248200,1880.4,31.2,40.1,134.5,311.0,1561.0,5.0,1,
248300,1860.0,21.0,37.5,131.6,250.0,1804.0,6.0,1,
248400,1850.1,35.0,37.3,109.5,292.0,1704.0,6.0,1,
248600,1848.6,21.2,37.4,93.7,244.0,1344.0,5.0,1,
248700,1879.5,51.3,38.8,92.6,225.0,1194.0,6.0,1,
248800,1865.5,16.1,38.9,72.5,282.0,1288.0,5.0,1,
248900,1859.6,14.0,38.9,122.7,282.0,1288.0,5.0,1,
249000,1862.5,14.3,38.9,164.5,282.0,1288.0,5.0,1,
249100,1859.3,15.2,38.9,175.8,282.0,1288.0,5.0,1,
249200,1861.5,14.1,38.9,137.3,282.0,1288.0,5.0,1,
249300,1860.2,14.5,38.9,134.4,282.0,1288.0,5.0,1,
249400,1860.4,15.1,38.9,123.6,282.0,1288.0,5.0,1,
249600,1860.4,14.6,38.9,137.4,282.0,1288.0,5.0,1,
249700,1860.4,15.0,38.9,122.3,282.0,1288.0,5.0,1,
249800,1871.8,53.9,38.3,98.7,282.0,1288.0,5.0,1,
249900,1848.0,16.6,39.6,74.3,225.0,1650.0,6.0,1,
250000,1870.9,67.2,41.6,85.2,320.0,2079.0,6.0,1,
250100,1877.7,15.9,43.2,90.1,268.0,1273.0,5.0,1,
250200,1842.0,26.6,43.1,91.6,276.0,1555.0,5.0,1,
250300,1879.4,41.9,45.0,123.5,253.0,1539.0,6.0,1,
250400,1860.1,14.8,43.4,136.6,300.0,1364.0,5.0,1,
250600,1860.9,15.3,43.5,200.3,300.0,1364.0,5.0,1,
250700,1858.6,15.2,43.5,218.1,300.0,1364.0,5.0,1,
250800,1861.6,15.4,43.5,132.5,300.0,1364.0,5.0,1,
250900,1859.1,15.7,43.5,118.1,300.0,1364.0,5.0,1,
251000,1859.0,15.3,43.6,139.8,300.0,1364.0,5.0,1,
251100,1858.9,15.8,43.6,144.6,300.0,1364.0,5.0,1,
251200,1859.0,16.3,43.7,131.6,300.0,1364.0,5.0,1,
251300,1858.8,15.4,43.7,143.2,300.0,1364.0,5.0,1,
251400,1870.4,48.7,46.0,158.4,300.0,1364.0,5.0,1,
251600,1853.4,54.8,44.6,146.0,230.0,1705.0,6.0,1,
251700,1873.8,16.5,41.4,124.6,178.0,1051.0,5.0,1,
251800,1834.2,54.8,41.4,71.1,250.0,1401.0,5.0,1,
251900,1885.8,35.7,45.5,91.9,250.0,1401.0,5.0,1,
252000,1848.8,14.1,42.8,189.2,230.0,1213.0,5.0,1,
252100,1857.1,16.1,42.8,204.0,230.0,1213.0,5.0,1,
252200,1863.1,15.6,42.8,184.9,230.0,1213.0,5.0,1,
252300,1863.0,16.0,42.8,123.1,230.0,1213.0,5.0,1,
252400,1862.0,16.7,42.8,92.5,230.0,1213.0,5.0,1,
252600,1862.0,16.1,42.8,117.2,230.0,1213.0,5.0,1,
252700,1862.1,16.1,42.8,158.3,230.0,1213.0,5.0,1,
252800,1862.8,16.0,42.8,178.3,230.0,1213.0,5.0,1,
252900,1862.6,15.3,42.8,134.4,230.0,1213.0,5.0,1,
253000,1859.2,25.3,42.8,122.7,230.0,1213.0,5.0,1,
253100,1856.3,21.8,39.3,66.1,291.0,2028.0,9.0,1,
253200,1857.5,81.7,41.8,29.4,266.0,1907.0,10.0,1,
253300,1875.9,23.0,41.5,40.0,287.0,1813.0,6.0,1,
253400,1841.2,34.1,41.6,67.6,247.0,1342.0,6.0,1,
253600,1829.6,9.9,40.6,87.3,211.0,1241.0,5.0,1,
253700,1869.6,14.3,40.6,93.9,211.0,1241.0,5.0,1,
253800,1861.7,15.4,40.6,93.6,211.0,1241.0,5.0,1,
253900,1863.3,15.3,40.6,66.7,211.0,1241.0,5.0,1,
254000,1860.5,15.4,40.6,57.4,211.0,1241.0,5.0,1,
254100,1861.6,16.0,40.6,118.0,211.0,1241.0,5.0,1,
254200,1861.9,16.7,40.6,122.9,211.0,1241.0,5.0,1,
254300,1861.6,15.6,40.6,163.7,211.0,1241.0,5.0,1,
254400,1862.2,16.4,40.6,174.0,211.0,1241.0,5.0,1,
254600,1860.5,18.2,40.6,154.8,211.0,1241.0,5.0,1,
254700,1852.7,20.1,40.5,116.9,329.0,2328.0,10.0,1,
254800,1873.9,59.6,42.7,55.8,308.0,2092.0,10.0,1,
254900,1864.1,30.0,39.6,66.4,192.0,1332.0,9.0,1,
255000,1841.3,40.0,40.1,104.8,183.0,1300.0,2.0,0,
255100,1886.7,33.6,40.2,144.1,258.0,1258.0,5.0,1,
255200,1846.9,14.0,39.3,124.7,217.0,1312.0,5.0,1,
255300,1856.8,13.9,39.3,125.0,235.0,1323.0,2.0,0,
255400,1862.1,14.9,39.3,122.2,235.0,1323.0,2.0,0,
255600,1863.3,16.1,39.3,55.8,235.0,1323.0,2.0,0,
255700,1863.8,15.7,39.3,151.9,235.0,1323.0,2.0,0,
255800,1861.8,15.2,39.3,142.7,235.0,1323.0,2.0,0,
255900,1860.8,15.0,39.2,133.8,235.0,1323.0,2.0,0,
256000,1860.6,15.8,39.2,133.4,235.0,1323.0,2.0,0,
256100,1860.6,14.9,39.2,138.9,235.0,1323.0,2.0,0,
256200,1861.0,15.4,39.1,131.1,235.0,1323.0,2.0,0,
256300,1853.1,31.4,38.6,117.3,269.0,1965.0,2.0,0,
256400,1870.5,45.4,40.3,57.3,252.0,1855.0,9.0,1,
256600,1861.9,56.8,38.0,66.6,196.0,1471.0,9.0,1,
256700,1878.3,20.2,36.7,68.6,241.0,1318.0,5.0,1,
256800,1844.4,19.9,36.6,122.3,232.0,1517.0,5.0,1,
256900,1862.1,17.7,37.8,156.4,204.0,1392.0,5.0,1,
257000,1860.2,14.2,37.9,99.3,204.0,1392.0,5.0,1,
257100,1861.2,13.8,37.8,54.6,204.0,1392.0,5.0,1,
257200,1859.7,16.1,37.8,56.6,204.0,1392.0,5.0,1,
257300,1863.4,14.7,37.8,68.9,204.0,1392.0,5.0,1,
257400,1861.4,14.8,37.8,112.2,204.0,1392.0,5.0,1,
257600,1860.1,14.6,37.8,142.3,204.0,1392.0,5.0,1,
257700,1860.7,14.3,37.8,117.4,204.0,1392.0,5.0,1,
257800,1860.6,15.0,37.7,123.3,204.0,1392.0,5.0,1,
257900,1844.2,30.6,37.7,123.9,274.0,2002.0,2.0,0,
258000,1883.3,30.2,38.5,65.6,280.0,1904.0,9.0,1,
258100,1856.7,12.5,35.4,66.3,191.0,1590.0,7.0,1,
258200,1853.2,44.6,38.3,67.8,219.0,1666.0,9.0,1,
258300,1867.3,13.8,36.6,92.6,204.0,1174.0,5.0,1,
258400,1849.7,57.5,36.4,159.2,242.0,1577.0,5.0,1,
258600,1860.2,14.2,39.9,156.5,242.0,1577.0,5.0,1,
258700,1862.3,14.9,39.9,131.9,242.0,1577.0,5.0,1,
258800,1858.6,15.0,39.9,115.4,242.0,1577.0,5.0,1,
258900,1864.5,14.1,39.9,94.5,242.0,1577.0,5.0,1,
259000,1860.7,15.8,39.9,100.1,242.0,1577.0,5.0,1,
259100,1861.3,14.7,39.9,117.2,242.0,1577.0,5.0,1,
259200,1860.9,14.6,39.9,117.6,242.0,1577.0,5.0,1,
259300,1861.7,15.4,39.9,113.1,242.0,1577.0,5.0,1,
259400,1861.0,15.0,39.9,147.3,242.0,1577.0,5.0,1,
259600,1875.0,57.3,41.3,65.7,268.0,1857.0,2.0,0,
259700,1842.3,13.0,43.1,67.7,195.0,1591.0,2.0,0,
259800,1874.5,73.6,45.9,124.4,207.0,1572.0,2.0,0,
259900,1876.6,9.8,44.3,198.0,190.0,1296.0,5.0,1,
260000,1841.1,41.2,44.3,188.6,238.0,1435.0,5.0,1,
260100,1884.5,26.2,46.7,166.3,238.0,1435.0,5.0,1,
260200,1857.7,14.5,46.8,157.2,238.0,1435.0,5.0,1,
260300,1861.9,14.0,46.8,158.3,238.0,1435.0,5.0,1,
260400,1858.8,14.6,46.8,177.8,238.0,1435.0,5.0,1,
260600,1859.7,15.0,46.8,117.3,238.0,1435.0,5.0,1,
260700,1861.0,14.7,46.8,115.6,238.0,1435.0,5.0,1,
260800,1860.4,15.0,46.8,101.8,238.0,1435.0,5.0,1,
260900,1860.3,14.6,46.8,114.0,238.0,1435.0,5.0,1,
261000,1859.6,14.6,46.8,132.0,238.0,1435.0,5.0,1,
261100,1853.1,32.5,46.8,116.8,283.0,2017.0,2.0,0,
261200,1887.6,35.8,47.6,39.3,270.0,1808.0,8.0,1,
261300,1850.4,15.0,43.2,38.4,221.0,1714.0,9.0,1,
261400,1861.3,53.1,41.0,38.7,210.0,1581.0,2.0,0,
261600,1840.3,31.4,40.2,93.7,239.0,1336.0,5.0,1,
261700,1887.8,29.1,37.2,103.0,285.0,1442.0,5.0,1,
261800,1857.9,15.0,37.1,89.9,285.0,1442.0,5.0,1,
261900,1861.6,14.5,37.1,100.4,285.0,1442.0,5.0,1,
262000,1859.6,15.4,37.1,103.3,285.0,1442.0,5.0,1,
262100,1864.0,14.8,37.1,93.1,285.0,1442.0,5.0,1,
262200,1860.3,15.1,37.1,101.5,285.0,1442.0,5.0,1,
262300,1862.4,15.7,37.1,122.2,285.0,1442.0,5.0,1,
262400,1860.5,15.4,37.1,133.6,285.0,1442.0,5.0,1,
262600,1859.8,15.4,37.1,131.9,285.0,1442.0,5.0,1,
262700,1860.5,47.3,37.2,143.4,285.0,1442.0,5.0,1,
262800,1870.7,19.5,35.5,141.0,198.0,1568.0,2.0,0,
262900,1839.1,20.1,35.3,133.9,256.0,1874.0,9.0,1,
263000,1872.6,22.3,41.0,100.5,192.0,1388.0,5.0,1,
263100,1851.0,24.1,35.6,75.4,251.0,1617.0,6.0,1,
263200,1878.7,54.7,38.2,99.9,237.0,1529.0,6.0,1,
263300,1861.0,21.8,36.5,93.3,272.0,1317.0,5.0,1,
263400,1850.7,14.6,36.3,93.8,270.0,1474.0,5.0,1,
263600,1860.9,14.3,36.3,134.5,270.0,1474.0,5.0,1,
263700,1861.6,15.9,36.3,79.5,270.0,1474.0,5.0,1,
263800,1861.5,16.1,36.3,109.7,270.0,1474.0,5.0,1,
263900,1861.6,14.5,36.3,122.7,270.0,1474.0,5.0,1,
264000,1860.2,14.4,36.2,101.8,270.0,1474.0,5.0,1,
264100,1860.4,15.1,36.2,116.6,270.0,1474.0,5.0,1,
264200,1859.8,13.8,36.2,158.5,270.0,1474.0,5.0,1,
264300,1859.7,14.3,36.2,152.5,270.0,1474.0,5.0,1,
264400,1835.9,16.2,34.2,102.8,220.0,1650.0,2.0,0,
264600,1865.9,12.5,34.1,66.9,215.0,1338.0,9.0,1,
264700,1847.4,35.3,34.0,67.3,289.0,1550.0,6.0,1,
264800,1885.9,28.2,39.8,68.7,254.0,1248.0,5.0,1,
264900,1832.4,14.4,35.9,89.3,258.0,1362.0,5.0,1,
265000,1868.9,13.4,35.7,152.0,245.0,1404.0,6.0,1,
265100,1860.3,12.5,35.7,169.0,245.0,1404.0,6.0,1,
265200,1859.7,14.3,35.7,86.5,245.0,1404.0,6.0,1,
265300,1862.0,14.9,35.7,40.3,245.0,1404.0,6.0,1,
265400,1860.4,14.1,35.6,101.2,245.0,1404.0,6.0,1,
265600,1860.3,15.0,35.6,132.9,245.0,1404.0,6.0,1,
265700,1859.3,13.8,35.6,139.8,245.0,1404.0,6.0,1,
265800,1860.1,14.6,35.6,158.1,245.0,1404.0,6.0,1,
265900,1860.2,14.4,35.6,170.2,245.0,1404.0,6.0,1,
266000,1857.3,36.7,35.5,169.5,178.0,1260.0,2.0,0,
266100,1879.2,26.8,37.0,40.6,178.0,1260.0,2.0,0,
266200,1849.2,19.9,33.0,36.5,212.0,1425.0,6.0,1,
266300,1863.4,30.6,35.4,36.7,206.0,1266.0,6.0,1,
266400,1862.1,26.6,28.7,37.1,286.0,1428.0,5.0,1,
266600,1875.2,17.6,36.1,54.2,286.0,1428.0,5.0,1,
266700,1860.5,14.6,36.1,92.8,286.0,1428.0,5.0,1,
266800,1862.0,14.5,36.1,125.6,286.0,1428.0,5.0,1,
266900,1860.3,13.0,36.2,139.8,286.0,1428.0,5.0,1,
267000,1858.5,15.8,36.2,143.5,286.0,1428.0,5.0,1,
267100,1860.7,15.2,36.2,100.4,286.0,1428.0,5.0,1,
267200,1860.2,13.8,36.2,99.6,286.0,1428.0,5.0,1,
267300,1860.9,14.9,36.1,117.9,286.0,1428.0,5.0,1,
267400,1860.4,14.7,36.1,145.8,286.0,1428.0,5.0,1,
267600,1872.9,53.6,38.2,68.4,286.0,1428.0,5.0,1,
267700,1853.8,17.2,42.7,55.9,190.0,1457.0,2.0,0,
267800,1866.7,65.6,43.1,122.8,221.0,1655.0,2.0,0,
267900,1877.3,17.4,45.6,155.0,208.0,1280.0,9.0,1,
268000,1841.8,19.0,44.1,132.6,205.0,1278.0,5.0,1,
268100,1871.6,44.5,47.9,68.7,207.0,1465.0,2.0,0,
268200,1861.8,13.8,45.2,156.2,200.0,1155.0,5.0,1,
268300,1859.6,14.1,45.2,219.4,200.0,1155.0,5.0,1,
268400,1861.3,13.2,45.2,229.4,200.0,1155.0,5.0,1,
268600,1862.3,14.2,45.2,166.7,200.0,1155.0,5.0,1,
268700,1860.1,13.4,45.2,123.8,200.0,1155.0,5.0,1,
268800,1861.3,15.5,45.2,117.4,200.0,1155.0,5.0,1,
268900,1860.8,14.4,45.2,117.2,200.0,1155.0,5.0,1,
269000,1861.1,13.1,45.2,111.3,200.0,1155.0,5.0,1,
269100,1860.4,14.8,45.2,117.5,200.0,1155.0,5.0,1,
269200,1867.9,28.1,44.3,154.1,245.0,1970.0,7.0,1,
269300,1845.3,18.8,37.5,80.9,271.0,1820.0,9.0,1,
269400,1871.8,55.9,41.2,56.7,223.0,1596.0,9.0,1,
269600,1843.7,48.3,42.9,111.5,183.0,1315.0,2.0,0,
269700,1885.2,36.1,42.0,155.8,239.0,1378.0,5.0,1,
269800,1841.4,14.3,39.0,153.6,172.0,1200.0,5.0,1,
269900,1856.6,12.6,39.0,66.8,172.0,1200.0,5.0,1,
270000,1861.7,13.9,39.0,41.1,172.0,1200.0,5.0,1,
270100,1859.1,13.4,39.0,36.4,172.0,1200.0,5.0,1,
270200,1861.9,13.7,39.0,57.6,172.0,1200.0,5.0,1,
270300,1859.9,14.5,39.0,123.5,172.0,1200.0,5.0,1,
270400,1860.8,13.7,39.0,133.0,172.0,1200.0,5.0,1,
270600,1860.7,12.5,38.9,140.4,172.0,1200.0,5.0,1,
270700,1860.7,11.7,38.9,151.5,172.0,1200.0,5.0,1,
270800,1860.0,17.4,38.8,153.0,172.0,1200.0,5.0,1,
270900,1841.8,56.4,39.1,78.4,341.0,2298.0,9.0,1,
271000,1880.9,24.4,45.0,100.4,208.0,1469.0,9.0,1,
271100,1849.2,25.8,37.4,124.8,224.0,1528.0,6.0,1,
271200,1869.3,49.5,40.2,99.8,220.0,1463.0,6.0,1,
271300,1863.3,20.2,37.7,79.3,234.0,1197.0,5.0,1,
271400,1844.8,33.4,37.8,144.7,222.0,1486.0,5.0,1,
271600,1861.8,14.9,38.9,45.5,222.0,1486.0,5.0,1,
271700,1861.7,13.4,38.9,41.8,222.0,1486.0,5.0,1,
