Time(ms),Raw_ADC
595400,1857
595401,1857
595402,1857
595403,1855
595404,1855
595405,1853
595406,1856
595407,1854
595408,1855
595409,1851
595410,1851
595411,1846
595412,1844
595413,1840
595414,1840
595415,1838
595416,1839
595417,1838
595418,1840
595419,1842
595420,1849
595421,1851
595422,1855
595423,1858
595424,1856
595425,1858
595426,1857
595427,1858
595428,1856
595429,1859
595430,1861
595431,1858
595432,1862
595433,1862
595434,1859
595435,1867
595436,1865
595437,1869
595438,1870
595439,1867
595440,1869
595441,1867
595442,1869
595443,1870
595444,1868
595445,1870
595446,1867
595447,1869
595448,1870
595449,1871
595450,1871
595451,1866
595452,1861
595453,1861
595454,1859
595455,1859
595456,1863
595457,1863
595458,1863
595459,1862
595460,1862
595461,1856
595462,1855
595463,1854
595464,1860
595465,1862
595466,1858
595467,1857
595468,1851
595469,1847
595470,1847
595471,1856
595472,1855
595473,1851
595474,1853
595475,1853
595476,1854
595477,1854
595478,1849
595479,1853
595480,1850
595481,1854
595482,1852
595483,1853
595484,1858
595485,1861
595486,1863
595487,1863
595488,1857
595489,1859
595490,1858
595491,1847
595492,1859
595493,1858
595494,1859
595495,1860
595496,1858
595497,1859
595498,1862
595499,1863
0,1839
1,1839
2,1839
3,1840
4,1839
5,1840
6,1842
7,1840
8,1840
9,1840
10,1842
11,1853
12,1854
13,1851
14,1854
15,1855
16,1857
17,1855
18,1859
19,1858
20,1865
21,1865
22,1871
23,1870
24,1872
25,1875
26,1875
27,1875
28,1875
29,1877
30,1882
31,1879
32,1882
33,1882
34,1885
35,1888
36,1889
37,1889
38,1890
39,1894
40,1895
41,1897
42,1893
43,1890
44,1891
45,1887
46,1884
47,1879
48,1877
49,1874
50,1873
51,1872
52,1872
53,1868
54,1865
55,1859
56,1858
57,1855
58,1852
59,1849
60,1843
61,1841
62,1840
63,1839
64,1835
65,1836
66,1838
67,1838
68,1839
69,1838
70,1840
71,1840
72,1840
73,1842
74,1845
75,1847
76,1847
77,1850
78,1853
79,1856
80,1855
81,1854
82,1858
83,1861
84,1859
85,1862
86,1867
87,1866
88,1861
89,1866
90,1862
91,1865
92,1863
93,1869
94,1872
95,1871
96,1872
97,1874
98,1875
99,1874
100,1875
101,1881
102,1883
103,1887
104,1887
105,1887
106,1893
107,1897
108,1893
109,1895
110,1892
111,1890
112,1890
113,1885
114,1882
115,1877
116,1877
117,1875
118,1874
119,1872
120,1870
121,1865
122,1860
123,1856
124,1853
125,1851
126,1847
127,1841
128,1841
129,1840
130,1838
131,1838
132,1835
133,1838
134,1837
135,1527
136,1890
137,2127
138,2106
139,2041
140,1990
141,1953
142,1927
143,1910
144,1898
145,1891
146,1882
147,1877
148,1873
149,1871
150,1872
151,1867
152,1863
153,1863
154,1869
155,1871
156,1872
157,1872
158,1872
159,1872
160,1877
161,1878
162,1874
163,1875
164,1877
165,1878
166,1877
167,1877
168,1880
169,1879
170,1879
171,1882
172,1881
173,1884
174,1881
175,1878
176,1878
177,1873
178,1872
179,1872
180,1870
181,1863
182,1861
183,1858
184,1858
185,1854
186,1850
187,1848
188,1843
189,1841
190,1840
191,1840
192,1836
193,1835
194,1835
195,1831
196,1833
197,1830
198,1830
199,1829
200,1831
201,1833
202,1833
203,1833
204,1834
205,1837
206,1840
207,1840
208,1839
209,1840
210,1841
211,1843
212,1840
213,1840
214,1843
215,1843
216,1845
217,1845
218,1847
219,1849
220,1855
221,1857
222,1858
223,1866
224,1862
225,1866
226,1872
227,1873
228,1876
229,1877
230,1879
231,1879
232,1877
233,1878
234,1877
235,1881
236,1885
237,1887
238,1889
239,1887
240,1889
241,1885
242,1883
243,1884
244,1881
245,1877
246,1876
247,1876
248,1872
249,1872
250,1870
251,1867
252,1863
253,1862
254,1856
255,1851
256,1847
257,1842
258,1840
259,1571
260,1861
261,2094
262,2067
263,2003
264,1958
265,1924
266,1897
267,1879
268,1871
269,1859
270,1851
271,1847
272,1843
273,1842
274,1842
275,1840
276,1842
277,1842
278,1846
279,1847
280,1845
281,1849
282,1851
283,1853
284,1855
285,1856
286,1858
287,1858
288,1862
289,1865
290,1866
291,1867
292,1867
293,1870
294,1870
295,1872
296,1870
297,1872
298,1872
299,1872
300,1872
301,1872
302,1873
303,1874
304,1875
305,1877
306,1879
307,1873
308,1872
309,1873
310,1872
311,1871
312,1872
313,1868
314,1866
315,1863
316,1861
317,1857
318,1855
319,1855
320,1853
321,1847
322,1843
323,1841
324,1840
325,1840
326,1839
327,1839
328,1827
329,1827
330,1828
331,1823
332,1826
333,1827
334,1825
335,1825
336,1828
337,1829
338,1830
339,1831
340,1837
341,1839
342,1840
343,1842
344,1845
345,1846
346,1853
347,1853
348,1855
349,1855
350,1856
351,1856
352,1856
353,1860
354,1862
355,1867
356,1870
357,1871
358,1871
359,1872
360,1872
361,1873
362,1872
363,1875
364,1876
365,1877
366,1878
367,1875
368,1883
369,1885
370,1886
371,1888
372,1886
373,1889
374,1887
375,1887
376,1886
377,1885
378,1885
379,1879
380,1879
381,1875
382,1873
383,1614
384,1834
385,2097
386,2076
387,2019
388,1970
389,1939
390,1917
391,1903
392,1888
393,1879
394,1872
395,1863
396,1856
397,1851
398,1847
399,1843
400,1840
401,1839
402,1840
403,1839
404,1831
405,1836
406,1841
407,1842
408,1847
409,1851
410,1852
411,1853
412,1852
413,1853
414,1846
415,1843
416,1855
417,1855
418,1856
419,1856
420,1857
421,1859
422,1862
423,1862
424,1859
425,1861
426,1866
427,1867
428,1868
429,1870
430,1870
431,1871
432,1872
433,1872
434,1867
435,1868
436,1869
437,1871
438,1872
439,1872
440,1873
441,1872
442,1871
443,1872
444,1869
445,1869
446,1867
447,1867
448,1861
449,1859
450,1855
451,1856
452,1854
453,1851
454,1845
455,1843
456,1840
457,1839
458,1836
459,1833
460,1831
461,1830
462,1834
463,1829
464,1826
465,1824
466,1834
467,1836
468,1835
469,1837
470,1837
471,1839
472,1838
473,1840
474,1841
475,1847
476,1847
477,1851
478,1853
479,1851
480,1851
481,1855
482,1853
483,1853
484,1855
485,1856
486,1856
487,1861
488,1861
489,1868
490,1868
491,1872
492,1872
493,1872
494,1874
495,1874
496,1877
497,1876
498,1878
499,1879
500,1875
501,1882
502,1881
503,1885
504,1886
505,1888
506,1883
507,1647
508,1839
509,2114
510,2101
511,2047
512,2000
513,1969
514,1946
515,1935
516,1920
517,1915
518,1904
519,1904
520,1893
521,1890
522,1879
523,1873
524,1868
525,1861
526,1858
527,1851
528,1850
529,1849
530,1841
531,1841
532,1839
533,1835
534,1838
535,1838
536,1840
537,1840
538,1839
539,1840
540,1840
541,1843
542,1843
543,1843
544,1844
545,1845
546,1842
547,1846
548,1845
549,1847
550,1847
551,1851
552,1851
553,1853
554,1856
555,1859
556,1863
557,1866
558,1870
559,1869
560,1870
561,1870
562,1871
563,1871
564,1872
565,1872
566,1872
567,1872
568,1875
569,1872
570,1872
571,1872
572,1873
573,1875
574,1873
575,1874
576,1871
577,1872
578,1871
579,1869
580,1867
581,1862
582,1861
583,1859
584,1859
585,1856
586,1853
587,1850
588,1846
589,1840
590,1840
591,1835
592,1835
593,1831
594,1838
595,1833
596,1834
597,1834
598,1832
599,1834
600,1830
601,1834
602,1831
603,1837
604,1835
605,1835
606,1831
607,1835
608,1839
609,1844
610,1846
611,1847
612,1850
613,1851
614,1851
615,1851
616,1855
617,1854
618,1856
619,1857
620,1857
621,1862
622,1866
623,1867
624,1868
625,1872
626,1872
627,1872
628,1872
629,1874
630,1878
631,1673
632,1818
633,2115
634,2107
635,2059
636,2010
637,1978
638,1959
639,1948
640,1937
641,1931
642,1925
643,1920
644,1915
645,1914
646,1906
647,1904
648,1900
649,1897
650,1894
651,1893
652,1888
653,1884
654,1875
655,1873
656,1872
657,1866
658,1859
659,1856
660,1853
661,1846
662,1841
663,1839
664,1835
665,1836
666,1831
667,1833
668,1829
669,1833
670,1831
671,1827
672,1828
673,1831
674,1838
675,1838
676,1839
677,1840
678,1842
679,1842
680,1843
681,1845
682,1846
683,1845
684,1850
685,1852
686,1853
687,1855
688,1855
689,1855
690,1854
691,1855
692,1858
693,1859
694,1863
695,1862
696,1866
697,1867
698,1869
699,1871
700,1871
701,1869
702,1872
703,1872
704,1875
705,1873
706,1873
707,1873
708,1874
709,1872
710,1871
711,1869
712,1869
713,1867
714,1862
715,1858
716,1856
717,1855
718,1852
719,1854
720,1851
721,1843
722,1840
723,1838
724,1834
725,1831
726,1831
727,1827
728,1826
729,1825
730,1819
731,1827
732,1827
733,1826
734,1829
735,1830
736,1830
737,1828
738,1831
739,1835
740,1837
741,1839
742,1841
743,1844
744,1845
745,1846
746,1847
747,1849
748,1849
749,1851
750,1851
751,1853
752,1854
753,1858
754,1858
755,1669
756,1786
757,2102
758,2097
759,2042
760,2000
761,1968
762,1946
763,1936
764,1927
765,1920
766,1919
767,1914
768,1915
769,1916
770,1911
771,1915
772,1913
773,1914
774,1908
775,1905
776,1906
777,1904
778,1904
779,1902
780,1899
781,1895
782,1893
783,1886
784,1881
785,1877
786,1877
787,1871
788,1862
789,1858
790,1855
791,1850
792,1842
793,1840
794,1839
795,1836
796,1830
797,1827
798,1826
799,1821
800,1824
801,1824
802,1825
803,1824
804,1830
805,1827
806,1827
807,1827
808,1829
809,1835
810,1835
811,1839
812,1840
813,1839
814,1838
815,1839
816,1840
817,1840
818,1841
819,1842
820,1845
821,1847
822,1851
823,1860
824,1859
825,1861
826,1863
827,1863
828,1865
829,1869
830,1866
831,1867
832,1866
833,1865
834,1867
835,1872
836,1872
837,1872
838,1872
839,1876
840,1877
841,1874
842,1874
843,1872
844,1872
845,1870
846,1867
847,1862
848,1862
849,1857
850,1855
851,1862
852,1860
853,1856
854,1849
855,1844
856,1841
857,1838
858,1835
859,1835
860,1830
861,1833
862,1827
863,1829
864,1830
865,1827
866,1827
867,1829
868,1825
869,1829
870,1829
871,1829
872,1830
873,1834
874,1837
875,1839
876,1840
877,1843
878,1846
879,1671
880,1722
881,2064
882,2070
883,2018
884,1975
885,1943
886,1923
887,1911
888,1904
889,1903
890,1899
891,1899
892,1895
893,1894
894,1894
895,1894
896,1893
897,1893
898,1894
899,1893
900,1894
901,1890
902,1899
903,1899
904,1899
905,1902
906,1897
907,1899
908,1895
909,1892
910,1889
911,1887
912,1885
913,1882
914,1874
915,1872
916,1871
917,1870
918,1861
919,1861
920,1853
921,1849
922,1840
923,1840
924,1834
925,1828
926,1824
927,1828
928,1824
929,1822
930,1821
931,1814
932,1817
933,1816
934,1818
935,1819
936,1819
937,1820
938,1822
939,1821
940,1826
941,1831
942,1831
943,1835
944,1840
945,1839
946,1840
947,1840
948,1838
949,1843
950,1842
951,1844
952,1848
953,1850
954,1855
955,1857
956,1862
957,1865
958,1862
959,1869
960,1868
961,1869
962,1872
963,1871
964,1872
965,1872
966,1873
967,1876
968,1877
969,1878
970,1881
971,1882
972,1883
973,1885
974,1882
975,1881
976,1875
977,1877
978,1875
979,1872
980,1871
981,1871
982,1869
983,1862
984,1861
985,1860
986,1856
987,1855
988,1846
989,1845
990,1840
991,1839
992,1835
993,1834
994,1831
995,1829
996,1831
997,1829
998,1829
999,1827
1000,1826
1001,1829
1002,1829
1003,1681
1004,1709
1005,2075
1006,2073
1007,2011
1008,1965
1009,1923
1010,1910
1011,1894
1012,1883
1013,1872
1014,1871
1015,1867
1016,1863
1017,1860
1018,1858
1019,1859
1020,1858
1021,1859
1022,1864
1023,1865
1024,1870
1025,1872
1026,1872
1027,1872
1028,1872
1029,1874
1030,1876
1031,1875
1032,1876
1033,1873
1034,1878
1035,1877
1036,1883
1037,1881
1038,1882
1039,1885
1040,1883
1041,1879
1042,1878
1043,1874
1044,1872
1045,1872
1046,1872
1047,1866
1048,1862
1049,1854
1050,1854
1051,1851
1052,1847
1053,1847
1054,1841
1055,1839
1056,1838
1057,1831
1058,1830
1059,1827
1060,1827
1061,1823
1062,1822
1063,1821
1064,1822
1065,1819
1066,1821
1067,1822
1068,1822
1069,1823
1070,1826
1071,1824
1072,1824
1073,1829
1074,1833
1075,1837
1076,1839
1077,1839
1078,1840
1079,1840
1080,1842
1081,1842
1082,1843
1083,1847
1084,1850
1085,1850
1086,1851
1087,1854
1088,1856
1089,1856
1090,1861
1091,1871
1092,1872
1093,1872
1094,1872
1095,1872
1096,1873
1097,1877
1098,1879
1099,1878
1100,1875
1101,1882
1102,1883
1103,1885
1104,1886
1105,1885
1106,1882
1107,1884
1108,1883
1109,1892
1110,1886
1111,1883
1112,1881
1113,1882
1114,1878
1115,1875
1116,1872
1117,1872
1118,1871
1119,1867
1120,1860
1121,1856
1122,1847
1123,1845
1124,1841
1125,1840
1126,1839
1127,1701
1128,1649
1129,2032
1130,2047
1131,1999
1132,1950
1133,1917
1134,1894
1135,1875
1136,1866
1137,1857
1138,1850
1139,1847
1140,1851
1141,1843
1142,1845
1143,1843
1144,1845
1145,1845
1146,1846
1147,1846
1148,1850
1149,1851
1150,1854
1151,1855
1152,1855
1153,1856
1154,1860
1155,1862
1156,1866
1157,1867
1158,1872
1159,1871
1160,1871
1161,1872
1162,1873
1163,1873
1164,1875
1165,1876
1166,1874
1167,1874
1168,1874
1169,1872
1170,1873
1171,1875
1172,1875
1173,1877
1174,1877
1175,1878
1176,1874
1177,1872
1178,1872
1179,1872
1180,1869
1181,1869
1182,1863
1183,1860
1184,1858
1185,1856
1186,1854
1187,1851
1188,1842
1189,1840
1190,1839
1191,1838
1192,1833
1193,1834
1194,1839
1195,1838
1196,1834
1197,1836
1198,1830
1199,1834
1200,1833
1201,1830
1202,1833
1203,1831
1204,1835
1205,1836
1206,1837
1207,1833
1208,1835
1209,1842
1210,1846
1211,1847
1212,1849
1213,1852
1214,1854
1215,1856
1216,1856
1217,1855
1218,1856
1219,1859
1220,1861
1221,1864
1222,1866
1223,1870
1224,1872
1225,1872
1226,1874
1227,1872
1228,1876
1229,1877
1230,1881
1231,1882
1232,1881
1233,1883
1234,1889
1235,1890
1236,1891
1237,1893
1238,1895
1239,1899
1240,1894
1241,1895
1242,1894
1243,1895
1244,1891
1245,1891
1246,1891
1247,1887
1248,1882
1249,1882
1250,1878
1251,1767
1252,1686
1253,2093
1254,2106
1255,2054
1256,1994
1257,1953
1258,1925
1259,1905
1260,1891
1261,1879
1262,1871
1263,1862
1264,1854
1265,1850
1266,1844
1267,1841
1268,1840
1269,1839
1270,1839
1271,1839
1272,1839
1273,1840
1274,1841
1275,1843
1276,1847
1277,1850
1278,1851
1279,1852
1280,1850
1281,1852
1282,1853
1283,1855
1284,1855
1285,1856
1286,1856
1287,1856
1288,1861
1289,1856
1290,1858
1291,1859
1292,1862
1293,1862
1294,1863
1295,1863
1296,1863
1297,1867
1298,1863
1299,1868
1300,1867
1301,1869
1302,1869
1303,1873
1304,1873
1305,1877
1306,1876
1307,1877
1308,1877
1309,1874
1310,1874
1311,1872
1312,1872
1313,1871
1314,1872
1315,1872
1316,1868
1317,1866
1318,1864
1319,1859
1320,1858
1321,1855
1322,1850
1323,1845
1324,1842
1325,1840
1326,1840
1327,1838
1328,1836
1329,1835
1330,1831
1331,1829
1332,1828
1333,1830
1334,1830
1335,1831
1336,1834
1337,1836
1338,1838
1339,1838
1340,1839
1341,1841
1342,1844
1343,1843
1344,1849
1345,1849
1346,1850
1347,1851
1348,1851
1349,1853
1350,1855
1351,1856
1352,1857
1353,1859
1354,1862
1355,1866
1356,1870
1357,1870
1358,1873
1359,1872
1360,1873
1361,1876
1362,1874
1363,1877
1364,1882
1365,1885
1366,1883
1367,1882
1368,1887
1369,1889
1370,1890
1371,1888
1372,1890
1373,1893
1374,1895
1375,1797
1376,1661
1377,2112
1378,2140
1379,2089
1380,2032
1381,1988
1382,1958
1383,1938
1384,1927
1385,1921
1386,1911
1387,1905
1388,1899
1389,1889
1390,1879
1391,1873
1392,1872
1393,1865
1394,1856
1395,1855
1396,1849
1397,1842
1398,1841
1399,1840
1400,1839
1401,1838
1402,1837
1403,1837
1404,1839
1405,1838
1406,1834
1407,1833
1408,1839
1409,1840
1410,1840
1411,1840
1412,1840
1413,1840
1414,1840
1415,1842
1416,1843
1417,1842
1418,1841
1419,1845
1420,1843
1421,1847
1422,1854
1423,1857
1424,1858
1425,1858
1426,1861
1427,1860
1428,1866
1429,1863
1430,1868
1431,1867
1432,1867
1433,1865
1434,1867
1435,1870
1436,1872
1437,1872
1438,1873
1439,1875
1440,1875
1441,1882
1442,1879
1443,1882
1444,1877
1445,1877
1446,1877
1447,1872
1448,1872
1449,1870
1450,1867
1451,1866
1452,1859
1453,1857
1454,1855
1455,1850
1456,1843
1457,1841
1458,1839
1459,1839
1460,1836
1461,1834
1462,1830
1463,1834
1464,1831
1465,1833
1466,1831
1467,1831
1468,1827
1469,1831
1470,1834
1471,1835
1472,1834
1473,1837
1474,1839
1475,1841
1476,1842
1477,1844
1478,1843
1479,1847
1480,1845
1481,1847
1482,1849
1483,1851
1484,1853
1485,1855
1486,1856
1487,1856
1488,1861
1489,1866
1490,1866
1491,1871
1492,1871
1493,1872
1494,1872
1495,1872
1496,1872
1497,1875
1498,1874
1499,1809
1500,1609
1501,2060
1502,2095
1503,2057
1504,2011
1505,1981
1506,1957
1507,1938
1508,1934
1509,1923
1510,1920
1511,1916
1512,1911
1513,1907
1514,1904
1515,1903
1516,1897
1517,1895
1518,1887
1519,1885
1520,1883
1521,1875
1522,1871
1523,1864
1524,1861
1525,1858
1526,1853
1527,1845
1528,1840
1529,1839
1530,1835
1531,1831
1532,1827
1533,1826
1534,1826
1535,1828
1536,1825
1537,1826
1538,1825
1539,1825
1540,1826
1541,1830
1542,1831
1543,1836
1544,1840
1545,1839
1546,1838
1547,1839
1548,1840
1549,1840
1550,1840
1551,1843
1552,1844
1553,1846
1554,1855
1555,1859
1556,1860
1557,1862
1558,1863
1559,1868
1560,1869
1561,1869
1562,1870
1563,1872
1564,1873
1565,1872
1566,1874
1567,1874
1568,1874
1569,1882
1570,1879
1571,1882
1572,1883
1573,1888
1574,1887
1575,1884
1576,1882
1577,1878
1578,1877
1579,1875
1580,1873
1581,1872
1582,1870
1583,1868
1584,1867
1585,1864
1586,1861
1587,1856
1588,1855
1589,1846
1590,1842
1591,1840
1592,1840
1593,1836
1594,1837
1595,1831
1596,1831
1597,1829
1598,1827
1599,1829
1600,1827
1601,1830
1602,1829
1603,1830
1604,1829
1605,1835
1606,1827
1607,1829
1608,1833
1609,1840
1610,1844
1611,1850
1612,1847
1613,1850
1614,1850
1615,1852
1616,1854
1617,1851
1618,1854
1619,1855
1620,1857
1621,1858
1622,1860
1623,1822
1624,1581
1625,2030
1626,2080
1627,2037
1628,2000
1629,1968
1630,1950
1631,1938
1632,1929
1633,1923
1634,1921
1635,1920
1636,1922
1637,1920
1638,1919
1639,1920
1640,1919
1641,1915
1642,1911
1643,1911
1644,1910
1645,1909
1646,1911
1647,1905
1648,1904
1649,1893
1650,1890
1651,1887
1652,1885
1653,1879
1654,1872
1655,1866
1656,1861
1657,1854
1658,1850
1659,1842
1660,1840
1661,1834
1662,1831
1663,1828
1664,1826
1665,1822
1666,1815
1667,1820
1668,1815
1669,1819
1670,1818
1671,1819
1672,1819
1673,1823
1674,1837
1675,1839
1676,1840
1677,1841
1678,1840
1679,1842
1680,1845
1681,1845
1682,1845
1683,1847
1684,1846
1685,1847
1686,1850
1687,1856
1688,1856
1689,1857
1690,1861
1691,1865
1692,1871
1693,1868
1694,1867
1695,1871
1696,1871
1697,1872
1698,1872
1699,1872
1700,1872
1701,1872
1702,1877
1703,1879
1704,1879
1705,1882
1706,1877
1707,1876
1708,1875
1709,1879
1710,1878
1711,1878
1712,1875
1713,1875
1714,1872
1715,1872
1716,1868
1717,1864
1718,1863
1719,1858
1720,1855
1721,1851
1722,1845
1723,1842
1724,1840
1725,1839
1726,1838
1727,1837
1728,1833
1729,1828
1730,1827
1731,1826
1732,1827
1733,1829
1734,1828
1735,1826
1736,1827
1737,1828
1738,1831
1739,1833
1740,1838
1741,1838
1742,1840
1743,1840
1744,1843
1745,1845
1746,1844
1747,1819
1748,1526
1749,2005
1750,2065
1751,2030
1752,1984
1753,1953
1754,1935
1755,1920
1756,1915
1757,1907
1758,1906
1759,1903
1760,1903
1761,1903
1762,1902
1763,1901
1764,1903
1765,1901
1766,1903
1767,1902
1768,1899
1769,1895
1770,1898
1771,1901
1772,1904
1773,1903
1774,1903
1775,1899
1776,1903
1777,1896
1778,1894
1779,1891
1780,1889
1781,1885
1782,1879
1783,1877
1784,1874
1785,1869
1786,1869
1787,1856
1788,1853
1789,1846
1790,1842
1791,1839
1792,1824
1793,1820
1794,1834
1795,1831
1796,1826
1797,1827
1798,1825
1799,1827
1800,1825
1801,1825
1802,1823
1803,1823
1804,1826
1805,1825
1806,1820
1807,1823
1808,1826
1809,1839
1810,1840
1811,1840
1812,1840
1813,1843
1814,1841
1815,1843
1816,1845
1817,1847
1818,1851
1819,1854
1820,1855
1821,1855
1822,1861
1823,1862
1824,1866
1825,1866
1826,1867
1827,1867
1828,1871
1829,1870
1830,1872
1831,1872
1832,1872
1833,1873
1834,1872
1835,1874
1836,1879
1837,1878
1838,1883
1839,1885
1840,1884
1841,1884
1842,1883
1843,1882
1844,1879
1845,1879
1846,1874
1847,1874
1848,1872
1849,1869
1850,1868
1851,1861
1852,1860
1853,1856
1854,1854
1855,1847
1856,1842
1857,1840
1858,1839
1859,1838
1860,1834
1861,1834
1862,1825
1863,1826
1864,1825
1865,1825
1866,1826
1867,1823
1868,1825
1869,1825
1870,1827
1871,1818
1872,1522
1873,2018
1874,2082
1875,2032
1876,1984
1877,1942
1878,1921
1879,1903
1880,1891
1881,1878
1882,1873
1883,1870
1884,1870
1885,1865
1886,1861
1887,1861
1888,1860
1889,1859
1890,1862
1891,1862
1892,1867
1893,1869
1894,1869
1895,1871
1896,1872
1897,1872
1898,1872
1899,1872
1900,1873
1901,1876
1902,1877
1903,1879
1904,1878
1905,1881
1906,1882
1907,1884
1908,1878
1909,1878
1910,1873
1911,1872
1912,1871
1913,1867
1914,1872
1915,1867
1916,1861
1917,1859
1918,1861
1919,1855
1920,1854
1921,1847
1922,1844
1923,1840
1924,1840
1925,1837
1926,1837
1927,1830
1928,1829
1929,1827
1930,1823
1931,1824
1932,1823
1933,1823
1934,1821
1935,1823
1936,1824
1937,1827
1938,1825
1939,1831
1940,1835
1941,1839
1942,1840
1943,1840
1944,1843
1945,1843
1946,1842
1947,1847
1948,1846
1949,1852
1950,1851
1951,1855
1952,1856
1953,1856
1954,1861
1955,1863
1956,1863
1957,1866
1958,1870
1959,1872
1960,1872
1961,1872
1962,1875
1963,1876
1964,1881
1965,1882
1966,1881
1967,1882
1968,1884
1969,1883
1970,1887
1971,1887
1972,1893
1973,1888
1974,1889
1975,1887
1976,1887
1977,1885
1978,1885
1979,1879
1980,1884
1981,1878
1982,1877
1983,1874
1984,1871
1985,1872
1986,1863
1987,1862
1988,1858
1989,1855
1990,1846
1991,1840
1992,1840
1993,1839
1994,1836
1995,1837
1996,1503
1997,2000
1998,2070
1999,2023
2000,1968
2001,1922
2002,1903
2003,1879
2004,1871
2005,1861
2006,1846
2007,1842
2008,1840
2009,1839
2010,1839
2011,1837
2012,1837
2013,1839
2014,1839
2015,1841
2016,1842
2017,1846
2018,1845
2019,1850
2020,1851
2021,1855
2022,1856
2023,1862
2024,1859
2025,1866
2026,1867
2027,1869
2028,1870
2029,1869
2030,1869
2031,1872
2032,1872
2033,1872
2034,1872
2035,1872
2036,1875
2037,1874
2038,1875
2039,1879
2040,1875
2041,1883
2042,1879
2043,1881
2044,1883
2045,1877
2046,1875
2047,1875
2048,1872
2049,1869
2050,1869
2051,1867
2052,1862
2053,1857
2054,1853
2055,1847
2056,1844
2057,1841
2058,1838
2059,1838
2060,1835
2061,1831
2062,1830
2063,1831
2064,1827
2065,1826
2066,1829
2067,1833
2068,1828
2069,1831
2070,1829
2071,1831
2072,1833
2073,1835
2074,1839
2075,1840
2076,1841
2077,1843
2078,1845
2079,1847
2080,1847
2081,1850
2082,1851
2083,1851
2084,1856
2085,1857
2086,1856
2087,1860
2088,1864
2089,1864
2090,1870
2091,1872
2092,1872
2093,1872
2094,1873
2095,1875
2096,1877
2097,1877
2098,1882
2099,1881
2100,1883
2101,1887
2102,1885
2103,1889
2104,1891
2105,1892
2106,1891
2107,1888
2108,1887
2109,1888
2110,1886
2111,1883
2112,1883
2113,1882
2114,1876
2115,1876
2116,1872
2117,1871
2118,1869
2119,1876
2120,1517
2121,2014
2122,2093
2123,2046
2124,1989
2125,1948
2126,1920
2127,1898
2128,1877
2129,1865
2130,1857
2131,1850
2132,1841
2133,1839
2134,1834
2135,1830
2136,1831
2137,1828
2138,1824
2139,1827
2140,1835
2141,1837
2142,1839
2143,1840
2144,1841
2145,1841
2146,1841
2147,1843
2148,1840
2149,1841
2150,1846
2151,1845
2152,1849
2153,1850
2154,1858
2155,1861
2156,1861
2157,1864
2158,1867
2159,1863
2160,1866
2161,1868
2162,1871
2163,1869
2164,1869
2165,1871
2166,1872
2167,1872
2168,1873
2169,1875
2170,1875
2171,1878
2172,1883
2173,1883
2174,1886
2175,1883
2176,1879
2177,1879
2178,1877
2179,1875
2180,1873
2181,1871
2182,1872
2183,1866
2184,1867
2185,1862
2186,1858
2187,1857
2188,1851
2189,1845
2190,1843
2191,1840
2192,1840
2193,1836
2194,1834
2195,1835
2196,1834
2197,1830
2198,1830
2199,1826
2200,1829
2201,1827
2202,1830
2203,1831
2204,1831
2205,1834
2206,1828
2207,1835
2208,1835
2209,1845
2210,1845
2211,1849
2212,1850
2213,1851
2214,1851
2215,1851
2216,1853
2217,1855
2218,1854
2219,1856
2220,1860
2221,1866
2222,1865
2223,1868
2224,1871
2225,1872
2226,1870
2227,1873
2228,1875
2229,1878
2230,1879
2231,1882
2232,1882
2233,1884
2234,1885
2235,1890
2236,1889
2237,1890
2238,1891
2239,1897
2240,1897
2241,1897
2242,1898
2243,1904
2244,1535
2245,2039
2246,2130
2247,2094
2248,2036
2249,1983
2250,1957
2251,1936
2252,1920
2253,1911
2254,1904
2255,1894
2256,1887
2257,1879
2258,1871
2259,1864
2260,1856
2261,1854
2262,1845
2263,1840
2264,1836
2265,1834
2266,1833
2267,1833
2268,1830
2269,1829
2270,1827
2271,1825
2272,1828
2273,1830
2274,1840
2275,1841
2276,1841
2277,1844
2278,1843
2279,1843
2280,1841
2281,1842
2282,1842
2283,1843
2284,1843
2285,1843
2286,1846
2287,1850
2288,1852
2289,1856
2290,1857
2291,1861
2292,1865
2293,1865
2294,1870
2295,1869
2296,1871
2297,1872
2298,1872
2299,1872
2300,1872
2301,1872
2302,1876
2303,1877
2304,1878
2305,1878
2306,1874
2307,1875
2308,1874
2309,1871
2310,1878
2311,1879
2312,1875
2313,1874
2314,1872
2315,1871
2316,1865
2317,1864
2318,1861
2319,1860
2320,1854
2321,1851
2322,1845
2323,1843
2324,1840
2325,1839
2326,1840
2327,1834
2328,1837
2329,1831
2330,1829
2331,1827
2332,1827
2333,1829
2334,1827
2335,1830
2336,1831
2337,1835
2338,1830
2339,1830
2340,1837
2341,1839
2342,1840
2343,1842
2344,1842
2345,1845
2346,1845
2347,1843
2348,1846
2349,1846
2350,1850
2351,1854
2352,1856
2353,1856
2354,1857
2355,1866
2356,1867
2357,1871
2358,1871
2359,1872
2360,1873
2361,1873
2362,1874
2363,1874
2364,1878
2365,1877
2366,1879
2367,1886
2368,1511
2369,2002
2370,2109
2371,2079
2372,2030
2373,1991
2374,1968
2375,1952
2376,1942
2377,1936
2378,1931
2379,1921
2380,1915
2381,1914
2382,1905
2383,1904
2384,1901
2385,1897
2386,1891
2387,1886
2388,1882
2389,1874
2390,1869
2391,1866
2392,1857
2393,1855
2394,1856
2395,1849
2396,1843
2397,1839
2398,1838
2399,1831
2400,1831
2401,1831
2402,1831
2403,1829
2404,1830
2405,1830
2406,1830
2407,1835
2408,1835
2409,1837
2410,1839
2411,1840
2412,1840
2413,1840
2414,1840
2415,1841
2416,1842
2417,1847
2418,1847
2419,1850
2420,1855
2421,1858
2422,1859
2423,1860
2424,1859
2425,1864
2426,1869
2427,1864
2428,1871
2429,1867
2430,1871
2431,1872
2432,1872
2433,1872
2434,1872
2435,1872
2436,1876
2437,1879
2438,1878
2439,1883
2440,1885
2441,1885
2442,1881
2443,1879
2444,1879
2445,1874
2446,1873
2447,1872
2448,1871
2449,1867
2450,1865
2451,1863
2452,1860
2453,1854
2454,1853
2455,1849
2456,1844
2457,1840
2458,1839
2459,1838
2460,1835
2461,1831
2462,1830
2463,1829
2464,1829
2465,1827
2466,1825
2467,1824
2468,1823
2469,1826
2470,1825
2471,1824
2472,1828
2473,1831
2474,1835
2475,1836
2476,1840
2477,1840
2478,1843
2479,1845
2480,1844
2481,1847
2482,1849
2483,1850
2484,1850
2485,1853
2486,1856
2487,1856
2488,1843
2489,1854
2490,1857
2491,1857
2492,1501
2493,1987
2494,2112
2495,2083
2496,2032
2497,1989
2498,1966
2499,1943
2500,1933
2501,1930
2502,1923
2503,1927
2504,1925
2505,1925
2506,1931
2507,1927
2508,1924
2509,1920
2510,1917
2511,1916
2512,1916
2513,1914
2514,1905
2515,1904
2516,1901
2517,1899
2518,1893
2519,1890
2520,1883
2521,1879
2522,1872
2523,1870
2524,1861
2525,1856
2526,1854
2527,1845
2528,1840
2529,1838
2530,1831
2531,1827
2532,1826
2533,1821
2534,1822
2535,1822
2536,1824
2537,1823
2538,1825
2539,1826
2540,1828
2541,1835
2542,1839
2543,1839
2544,1840
2545,1840
2546,1840
2547,1840
2548,1840
2549,1842
2550,1842
2551,1845
2552,1845
2553,1847
2554,1853
2555,1855
2556,1857
2557,1863
2558,1865
2559,1869
2560,1868
2561,1869
2562,1872
2563,1872
2564,1872
2565,1872
2566,1872
2567,1872
2568,1873
2569,1877
2570,1877
2571,1877
2572,1881
2573,1879
2574,1883
2575,1879
2576,1878
2577,1878
2578,1875
2579,1879
2580,1872
2581,1872
2582,1869
2583,1866
2584,1862
2585,1861
2586,1859
2587,1853
2588,1847
2589,1843
2590,1840
2591,1839
2592,1834
2593,1833
2594,1831
2595,1827
2596,1826
2597,1825
2598,1821
2599,1823
2600,1823
2601,1826
2602,1826
2603,1825
2604,1825
2605,1829
2606,1831
2607,1834
2608,1840
2609,1831
2610,1837
2611,1838
2612,1839
2613,1839
2614,1840
2615,1840
2616,1840
2617,1841
2618,1846
2619,1846
2620,1850
2621,1853
2622,1856
2623,1859
2624,1861
2625,1863
2626,1872
2627,1872
2628,1872
2629,1872
2630,1874
2631,1876
2632,1875
2633,1877
2634,1876
2635,1879
2636,1882
2637,1886
2638,1890
2639,1890
2640,1893
2641,1894
2642,1895
2643,1890
2644,1889
2645,1890
2646,1887
2647,1885
2648,1882
2649,1880
2650,1878
2651,1875
2652,1872
2653,1872
2654,1863
2655,1860
2656,1853
2657,1851
2658,1843
2659,1840
2660,1840
2661,1839
2662,1834
2663,1831
2664,1830
2665,1828
2666,1830
2667,1827
2668,1829
2669,1831
2670,1834
2671,1830
2672,1831
2673,1833
2674,1840
2675,1840
2676,1840
2677,1842
2678,1842
2679,1849
2680,1846
2681,1850
2682,1849
2683,1853
2684,1856
2685,1856
2686,1857
2687,1859
2688,1862
2689,1866
2690,1870
2691,1871
2692,1873
2693,1876
2694,1874
2695,1879
2696,1877
2697,1878
2698,1882
2699,1884
2700,1885
2701,1886
2702,1889
2703,1890
2704,1893
2705,1897
2706,1902
2707,1904
2708,1900
2709,1898
2710,1899
2711,1900
2712,1897
2713,1897
2714,1891
2715,1892
2716,1885
2717,1886
2718,1878
2719,1876
2720,1876
2721,1871
2722,1863
2723,1857
2724,1854
2725,1851
2726,1847
2727,1842
2728,1840
2729,1831
2730,1830
2731,1826
2732,1825
2733,1823
2734,1825
2735,1827
2736,1826
2737,1825
2738,1827
2739,1827
2740,1827
2741,1831
2742,1837
2743,1840
2744,1840
2745,1841
2746,1847
2747,1850
2748,1851
2749,1851
2750,1855
2751,1856
2752,1858
2753,1858
2754,1859
2755,1864
2756,1869
2757,1871
2758,1870
2759,1872
2760,1873
2761,1876
2762,1879
2763,1881
2764,1883
2765,1883
2766,1885
2767,1887
2768,1888
2769,1893
2770,1894
2771,1896
2772,1899
2773,1903
2774,1903
2775,1903
2776,1902
2777,1895
2778,1899
2779,1897
2780,1898
2781,1894
2782,1889
2783,1890
2784,1883
2785,1879
2786,1875
2787,1871
2788,1867
2789,1859
2790,1858
2791,1854
2792,1846
2793,1844
2794,1841
2795,1839
2796,1839
2797,1835
2798,1837
2799,1830
2800,1834
2801,1833
2802,1835
2803,1834
2804,1835
2805,1837
2806,1836
2807,1840
2808,1841
2809,1846
2810,1849
2811,1850
2812,1850
2813,1852
2814,1854
2815,1853
2816,1856
2817,1855
2818,1856
2819,1860
2820,1858
2821,1861
2822,1862
2823,1868
2824,1871
2825,1872
2826,1872
2827,1874
2828,1878
2829,1879
2830,1883
2831,1886
2832,1887
2833,1887
2834,1890
2835,1892
2836,1899
2837,1898
2838,1901
2839,1903
2840,1904
2841,1902
2842,1902
2843,1899
2844,1898
2845,1897
2846,1893
2847,1892
2848,1883
2849,1879
2850,1879
2851,1873
2852,1872
2853,1870
2854,1866
2855,1862
2856,1856
2857,1851
2858,1846
2859,1842
2860,1840
2861,1836
2862,1835
2863,1829
2864,1831
2865,1825
2866,1834
2867,1834
2868,1835
2869,1834
2870,1835
2871,1840
2872,1839
2873,1840
2874,1840
2875,1843
2876,1845
2877,1846
2878,1849
2879,1847
2880,1854
2881,1851
2882,1851
2883,1856
2884,1855
2885,1855
2886,1857
2887,1859
2888,1863
2889,1867
2890,1871
2891,1872
2892,1873
2893,1877
2894,1878
2895,1879
2896,1882
2897,1885
2898,1886
2899,1888
2900,1886
2901,1889
2902,1890
2903,1893
2904,1893
2905,1895
2906,1899
2907,1900
2908,1901
2909,1899
2910,1897
2911,1895
2912,1897
2913,1892
2914,1891
2915,1890
2916,1887
2917,1884
2918,1878
2919,1872
2920,1869
2921,1866
2922,1866
2923,1860
2924,1856
2925,1850
2926,1846
2927,1843
2928,1840
2929,1840
2930,1839
2931,1836
2932,1835
2933,1834
2934,1835
2935,1839
2936,1836
2937,1836
2938,1838
2939,1838
2940,1840
2941,1842
2942,1843
2943,1846
2944,1847
2945,1853
2946,1851
2947,1850
2948,1851
2949,1856
2950,1855
2951,1856
2952,1858
2953,1859
2954,1867
2955,1867
2956,1871
2957,1872
2958,1873
2959,1875
2960,1875
2961,1878
2962,1878
2963,1881
2964,1885
2965,1887
2966,1885
2967,1887
2968,1887
2969,1883
2970,1887
2971,1889
2972,1892
2973,1893
2974,1895
2975,1893
2976,1892
2977,1889
2978,1888
2979,1887
2980,1886
2981,1883
2982,1881
2983,1879
2984,1873
2985,1873
2986,1878
2987,1874
2988,1870
2989,1863
2990,1860
2991,1855
2992,1852
2993,1847
2994,1843
2995,1840
2996,1840
2997,1840
2998,1837
2999,1837
3000,1836
3001,1835
3002,1835
3003,1835
3004,1837
3005,1838
3006,1839
3007,1841
3008,1841
3009,1847
3010,1850
3011,1853
3012,1853
3013,1851
3014,1850
3015,1855
3016,1855
3017,1858
3018,1857
3019,1862
3020,1863
3021,1863
3022,1867
3023,1871
3024,1872
3025,1873
3026,1878
3027,1877
3028,1879
3029,1879
3030,1884
3031,1886
3032,1887
3033,1892
3034,1889
3035,1894
3036,1897
3037,1899
3038,1903
3039,1904
3040,1904
3041,1904
3042,1904
3043,1903
3044,1901
3045,1902
3046,1899
3047,1898
3048,1898
3049,1892
3050,1890
3051,1888
3052,1885
3053,1882
3054,1878
3055,1873
3056,1871
3057,1866
3058,1862
3059,1857
3060,1855
3061,1850
3062,1846
3063,1842
3064,1842
3065,1840
3066,1839
3067,1840
3068,1840
3069,1838
3070,1837
3071,1839
3072,1840
3073,1841
3074,1843
3075,1847
3076,1849
3077,1851
3078,1854
3079,1854
3080,1856
3081,1856
3082,1856
3083,1856
3084,1857
3085,1862
3086,1864
3087,1865
3088,1867
3089,1863
3090,1866
3091,1867
3092,1870
3093,1871
3094,1872
3095,1873
3096,1875
3097,1877
3098,1879
3099,1878
3100,1879
3101,1884
3102,1885
3103,1887
3104,1889
3105,1893
3106,1903
3107,1904
3108,1904
3109,1903
3110,1902
3111,1902
3112,1899
3113,1898
3114,1896
3115,1894
3116,1890
3117,1886
3118,1887
3119,1883
3120,1883
3121,1874
3122,1872
3123,1868
3124,1860
3125,1856
3126,1852
3127,1851
3128,1847
3129,1841
3130,1841
3131,1840
3132,1839
3133,1838
3134,1837
3135,1837
3136,1837
3137,1838
3138,1838
3139,1839
3140,1839
3141,1843
3142,1845
3143,1846
3144,1847
3145,1850
3146,1851
3147,1851
3148,1853
3149,1855
3150,1853
3151,1856
3152,1855
3153,1857
3154,1859
3155,1863
3156,1866
3157,1869
3158,1872
3159,1872
3160,1873
3161,1875
3162,1875
3163,1877
3164,1879
3165,1879
3166,1882
3167,1883
3168,1883
3169,1888
3170,1889
3171,1888
3172,1895
3173,1895
3174,1898
3175,1895
3176,1894
3177,1893
3178,1890
3179,1890
3180,1888
3181,1887
3182,1885
3183,1886
3184,1882
3185,1882
3186,1873
3187,1873
3188,1871
3189,1863
3190,1857
3191,1855
3192,1851
3193,1846
3194,1845
3195,1840
3196,1839
3197,1836
3198,1835
3199,1833
3400,1831
3401,1831
3402,1835
3403,1834
3404,1833
3405,1834
3406,1837
3407,1839
3408,1842
3409,1844
3410,1847
3411,1849
3412,1851
3413,1852
3414,1854
3415,1855
3416,1855
3417,1856
3418,1854
3419,1857
3420,1857
3421,1858
3422,1865
3423,1863
3424,1869
3425,1872
3426,1872
3427,1874
3428,1874
3429,1877
3430,1883
3431,1876
3432,1874
3433,1878
3434,1875
3435,1885
3436,1888
3437,1890
3438,1889
3439,1893
3440,1895
3441,1897
3442,1895
3443,1892
3444,1893
3445,1893
3446,1891
3447,1886
3448,1887
3449,1883
3450,1882
3451,1882
3452,1876
3453,1874
3454,1872
3455,1866
3456,1860
3457,1857
3458,1850
3459,1846
3460,1842
3461,1840
3462,1837
3463,1836
3464,1833
3465,1829
3466,1827
3467,1827
3468,1826
3469,1827
3470,1827
3471,1826
3472,1828
3473,1827
3474,1840
3475,1840
3476,1841
3477,1847
3478,1846
3479,1849
3480,1849
3481,1849
3482,1847
3483,1850
3484,1851
3485,1855
3486,1856
3487,1858
3488,1861
3489,1866
3490,1868
3491,1871
3492,1872
3493,1872
3494,1876
3495,1879
3496,1879
3497,1883
3498,1883
3499,1887
3900,1886
3901,1883
3902,1888
3903,1893
3904,1893
3905,1899
3906,1901
3907,1903
3908,1901
3909,1902
3910,1900
3911,1898
3912,1894
3913,1895
3914,1894
3915,1892
3916,1885
3917,1883
3918,1879
3919,1882
3920,1876
3921,1872
3922,1867
3923,1862
3924,1856
3925,1854
3926,1846
3927,1843
3928,1840
3929,1833
3930,1827
3931,1827
3932,1822
3933,1821
3934,1822
3935,1823
3936,1824
3937,1823
3938,1825
3939,1826
3940,1827
3941,1833
3942,1834
3943,1840
3944,1841
3945,1844
3946,1851
3947,1853
3948,1852
3949,1853
3950,1855
3951,1856
3952,1856
3953,1858
3954,1858
3955,1865
3956,1868
3957,1871
3958,1872
3959,1873
3960,1874
3961,1875
3962,1876
3963,1876
3964,1877
3965,1884
3966,1882
3967,1885
3968,1886
3969,1889
3970,1892
3971,1894
3972,1895
3973,1897
3974,1902
3975,1902
3976,1898
3977,1900
3978,1897
3979,1898
3980,1894
3981,1893
3982,1890
3983,1887
3984,1886
3985,1885
3986,1879
3987,1874
3988,1872
3989,1868
3990,1862
3991,1857
3992,1853
3993,1849
3994,1845
3995,1841
3996,1840
3997,1835
3998,1835
3999,1833
4400,1826
4401,1827
4402,1825
4403,1827
4404,1829
4405,1833
4406,1834
4407,1834
4408,1835
4409,1828
4410,1836
4411,1840
4412,1840
4413,1838
4414,1840
4415,1840
4416,1843
4417,1844
4418,1845
4419,1850
4420,1850
4421,1853
4422,1857
4423,1863
4424,1863
4425,1863
4426,1872
4427,1874
4428,1876
4429,1878
4430,1881
4431,1881
4432,1886
4433,1885
4434,1888
4435,1889
4436,1893
4437,1895
4438,1898
4439,1904
4440,1905
4441,1904
4442,1907
4443,1907
4444,1904
4445,1904
4446,1904
4447,1902
4448,1903
4449,1898
4450,1897
4451,1895
4452,1889
4453,1886
4454,1881
4455,1877
4456,1863
4457,1858
4458,1854
4459,1854
4460,1851
4461,1842
4462,1840
4463,1838
4464,1837
4465,1830
4466,1828
4467,1827
4468,1828
4469,1827
4470,1829
4471,1829
4472,1826
4473,1829
4474,1834
4475,1835
4476,1839
4477,1840
4478,1843
4479,1846
4480,1844
4481,1843
4482,1847
4483,1851
4484,1854
4485,1854
4486,1857
4487,1858
4488,1861
4489,1863
4490,1869
4491,1872
4492,1872
4493,1872
4494,1872
4495,1875
4496,1879
4497,1878
4498,1881
4499,1886
4900,1875
4901,1881
4902,1882
4903,1887
4904,1886
4905,1893
4906,1904
4907,1904
4908,1905
4909,1904
4910,1904
4911,1906
4912,1904
4913,1904
4914,1901
4915,1898
4916,1895
4917,1891
4918,1890
4919,1887
4920,1883
4921,1877
4922,1876
4923,1872
4924,1863
4925,1857
4926,1850
4927,1847
4928,1842
4929,1838
4930,1835
4931,1834
4932,1830
4933,1825
4934,1829
4935,1826
4936,1827
4937,1829
4938,1827
4939,1831
4940,1833
4941,1837
4942,1840
4943,1840
4944,1842
4945,1845
4946,1847
4947,1845
4948,1847
4949,1846
4950,1847
4951,1853
4952,1854
4953,1855
4954,1858
4955,1859
4956,1863
4957,1867
4958,1871
4959,1872
4960,1872
4961,1873
4962,1877
4963,1881
4964,1885
4965,1880
4966,1883
4967,1885
4968,1885
4969,1882
4970,1883
4971,1889
4972,1899
4973,1903
4974,1904
4975,1904
4976,1904
4977,1906
4978,1904
4979,1904
4980,1902
4981,1902
4982,1897
4983,1891
4984,1897
4985,1890
4986,1887
4987,1885
4988,1878
4989,1872
4990,1871
4991,1863
4992,1855
4993,1847
4994,1846
4995,1840
4996,1837
4997,1832
4998,1831
4999,1829
5400,1824
5401,1823
5402,1826
5403,1823
5404,1825
5405,1825
5406,1826
5407,1827
5408,1834
5409,1837
5410,1838
5411,1840
5412,1841
5413,1844
5414,1843
5415,1843
5416,1845
5417,1850
5418,1848
5419,1855
5420,1856
5421,1856
5422,1862
5423,1866
5424,1867
5425,1872
5426,1872
5427,1872
5428,1872
5429,1874
5430,1874
5431,1879
5432,1882
5433,1884
5434,1885
5435,1886
5436,1889
5437,1894
5438,1897
5439,1902
5440,1904
5441,1905
5442,1904
5443,1904
5444,1904
5445,1904
5446,1903
5447,1904
5448,1902
5449,1900
5450,1894
5451,1890
5452,1887
5453,1883
5454,1879
5455,1872
5456,1871
5457,1861
5458,1855
5459,1852
5460,1845
5461,1840
5462,1838
5463,1837
5464,1830
5465,1825
5466,1824
5467,1824
5468,1822
5469,1823
5470,1823
5471,1825
5472,1826
5473,1826
5474,1828
5475,1834
5476,1838
5477,1836
5478,1842
5479,1843
5480,1845
5481,1843
5482,1841
5483,1841
5484,1840
5485,1842
5486,1847
5487,1846
5488,1855
5489,1854
5490,1858
5491,1856
5492,1862
5493,1867
5494,1866
5495,1869
5496,1872
5497,1872
5498,1873
5499,1874
5900,1879
5901,1882
5902,1885
5903,1891
5904,1890
5905,1896
5906,1903
5907,1904
5908,1904
5909,1904
5910,1904
5911,1904
5912,1904
5913,1903
5914,1901
5915,1897
5916,1895
5917,1893
5918,1891
5919,1889
5920,1885
5921,1881
5922,1873
5923,1871
5924,1865
5925,1861
5926,1851
5927,1847
5928,1841
5929,1840
5930,1837
5931,1833
5932,1826
5933,1827
5934,1825
5935,1825
5936,1826
5937,1827
5938,1826
5939,1827
5940,1827
5941,1831
5942,1837
5943,1838
5944,1840
5945,1842
5946,1840
5947,1847
5948,1844
5949,1846
5950,1850
5951,1851
5952,1855
5953,1855
5954,1858
5955,1859
5956,1862
5957,1867
5958,1868
5959,1872
5960,1873
5961,1873
5962,1874
5963,1877
5964,1879
5965,1883
5966,1885
5967,1886
5968,1887
5969,1883
5970,1888
5971,1890
5972,1894
5973,1900
5974,1903
5975,1904
5976,1904
5977,1903
5978,1903
5979,1900
5980,1902
5981,1901
5982,1897
5983,1894
5984,1890
5985,1889
5986,1895
5987,1891
5988,1886
5989,1877
5990,1873
5991,1871
5992,1862
5993,1859
5994,1846
5995,1840
5996,1833
5997,1838
5998,1833
5999,1829
6400,1818
6401,1820
6402,1818
6403,1822
6404,1822
6405,1822
6406,1821
6407,1827
6408,1834
6409,1835
6410,1840
6411,1840
6412,1841
6413,1841
6414,1842
6415,1846
6416,1844
6417,1849
6418,1849
6419,1851
6420,1852
6421,1856
6422,1858
6423,1863
6424,1866
6425,1865
6426,1872
6427,1871
6428,1872
6429,1873
6430,1878
6431,1878
6432,1885
6433,1887
6434,1887
6435,1890
6436,1889
6437,1893
6438,1899
6439,1904
6440,1904
6441,1907
6442,1910
6443,1909
6444,1907
6445,1907
6446,1906
6447,1906
6448,1902
6449,1894
6450,1889
6451,1887
6452,1885
6453,1879
6454,1877
6455,1872
6456,1866
6457,1856
6458,1852
6459,1842
6460,1840
6461,1837
6462,1830
6463,1826
6464,1819
6465,1815
6466,1823
6467,1822
6468,1821
6469,1821
6470,1819
6471,1822
6472,1825
6473,1823
6474,1829
6475,1830
6476,1831
6477,1838
6478,1839
6479,1841
6480,1840
6481,1843
6482,1843
6483,1843
6484,1845
6485,1847
6486,1847
6487,1854
6488,1855
6489,1859
6490,1862
6491,1866
6492,1870
6493,1872
6494,1872
6495,1874
6496,1875
6497,1878
6498,1882
6499,1886
7000,1809
7001,1806
7002,1808
7003,1807
7004,1806
7005,1808
7006,1808
7007,1806
7008,1810
7009,1814
7010,1821
7011,1823
7012,1827
7013,1826
7014,1829
7015,1828
7016,1833
7017,1834
7018,1837
7019,1830
7020,1833
7021,1839
7022,1841
7023,1846
7024,1846
7025,1853
7026,1856
7027,1855
7028,1857
7029,1859
7030,1861
7031,1859
7032,1866
7033,1865
7034,1867
7035,1866
7036,1868
7037,1871
7038,1872
7039,1872
7040,1875
7041,1878
7042,1877
7043,1873
7044,1872
7045,1872
7046,1870
7047,1868
7048,1866
7049,1857
7050,1851
7051,1847
7052,1842
7053,1842
7054,1839
7055,1838
7056,1827
7057,1822
7058,1817
7059,1814
7060,1811
7061,1808
7062,1807
7063,1807
7064,1805
7065,1804
7066,1802
7067,1801
7068,1803
7069,1804
7070,1803
7071,1803
7072,1806
7073,1808
7074,1811
7075,1819
7076,1822
7077,1826
7078,1827
7079,1830
7080,1717
7081,1598
7082,2064
7083,2102
7084,2054
7085,1999
7086,1966
7087,1936
7088,1922
7089,1914
7090,1907
7091,1904
7092,1903
7093,1903
7094,1901
7095,1895
7096,1895
7097,1901
7098,1899
7099,1899
7500,1872
7501,1874
7502,1875
7503,1875
7504,1878
7505,1883
7506,1886
7507,1888
7508,1892
7509,1893
7510,1889
7511,1889
7512,1888
7513,1885
7514,1885
7515,1878
7516,1879
7517,1874
7518,1872
7519,1870
7520,1865
7521,1859
7522,1856
7523,1850
7524,1842
7525,1839
7526,1833
7527,1828
7528,1827
7529,1815
7530,1814
7531,1811
7532,1808
7533,1799
7534,1808
7535,1807
7536,1808
7537,1808
7538,1808
7539,1808
7540,1811
7541,1811
7542,1822
7543,1825
7544,1827
7545,1829
7546,1834
7547,1836
7548,1837
7549,1835
7550,1840
7551,1840
7552,1841
7553,1841
7554,1847
7555,1854
7556,1855
7557,1857
7558,1861
7559,1863
7560,1870
7561,1871
7562,1872
7563,1872
7564,1872
7565,1875
7566,1879
7567,1878
7568,1881
7569,1882
7570,1886
7571,1889
7572,1893
7573,1898
7574,1901
7575,1902
7576,1871
7577,1578
7578,2085
7579,2160
7580,2122
7581,2074
7582,2026
7583,2000
7584,1978
7585,1968
7586,1954
7587,1950
7588,1940
7589,1936
7590,1923
7591,1913
7592,1904
7593,1897
7594,1887
7595,1879
7596,1872
7597,1865
7598,1857
7599,1851
8000,1802
8001,1805
8002,1804
8003,1807
8004,1803
8005,1807
8006,1808
8007,1807
8008,1809
8009,1807
8010,1808
8011,1813
8012,1814
8013,1822
8014,1823
8015,1823
8016,1823
8017,1826
8018,1831
8019,1829
8020,1833
8021,1838
8022,1839
8023,1841
8024,1842
8025,1845
8026,1856
8027,1859
8028,1859
8029,1859
8030,1866
8031,1866
8032,1866
8033,1869
8034,1870
8035,1869
8036,1869
8037,1872
8038,1872
8039,1875
8040,1881
8041,1883
8042,1885
8043,1883
8044,1883
8045,1882
8046,1879
8047,1876
8048,1872
8049,1872
8050,1869
8051,1863
8052,1857
8053,1856
8054,1846
8055,1839
8056,1835
8057,1835
8058,1827
8059,1823
8060,1819
8061,1818
8062,1813
8063,1809
8064,1808
8065,1808
8066,1808
8067,1806
8068,1807
8069,1808
8070,1808
8071,1808
8072,1770
8073,1463
8074,2003
8075,2085
8076,2039
8077,1990
8078,1951
8079,1923
8080,1904
8081,1890
8082,1878
8083,1872
8084,1869
8085,1863
8086,1859
8087,1857
8088,1855
8089,1855
8090,1855
8091,1856
8092,1858
8093,1859
8094,1859
8095,1863
8096,1866
8097,1867
8098,1867
8099,1871
8500,1863
8501,1866
8502,1867
8503,1869
8504,1870
8505,1872
8506,1883
8507,1886
8508,1887
8509,1888
8510,1888
8511,1889
8512,1884
8513,1884
8514,1884
8515,1878
8516,1874
8517,1873
8518,1872
8519,1869
8520,1865
8521,1858
8522,1855
8523,1849
8524,1840
8525,1836
8526,1827
8527,1825
8528,1819
8529,1818
8530,1813
8531,1811
8532,1811
8533,1808
8534,1808
8535,1809
8536,1808
8537,1811
8538,1809
8539,1815
8540,1817
8541,1819
8542,1822
8543,1827
8544,1829
8545,1833
8546,1835
8547,1838
8548,1839
8549,1840
8550,1840
8551,1843
8552,1845
8553,1842
8554,1843
8555,1851
8556,1854
8557,1856
8558,1857
8559,1857
8560,1863
8561,1866
8562,1867
8563,1871
8564,1867
8565,1867
8566,1869
8567,1877
8568,1878
8569,1481
8570,1902
8571,2127
8572,2113
8573,2076
8574,2036
8575,2014
8576,2001
8577,1990
8578,1984
8579,1981
8580,1978
8581,1972
8582,1968
8583,1965
8584,1959
8585,1957
8586,1953
8587,1946
8588,1942
8589,1936
8590,1933
8591,1921
8592,1915
8593,1904
8594,1898
8595,1888
8596,1880
8597,1871
8598,1861
8599,1851
9000,1807
9001,1808
9002,1807
9003,1806
9004,1807
9005,1808
9006,1809
9007,1808
9008,1812
9009,1814
9010,1823
9011,1823
9012,1830
9013,1830
9014,1834
9015,1835
9016,1838
9017,1840
9018,1840
9019,1842
9020,1844
9021,1847
9022,1850
9023,1852
9024,1856
9025,1856
9026,1862
9027,1865
9028,1868
9029,1869
9030,1872
9031,1872
9032,1872
9033,1873
9034,1877
9035,1875
9036,1877
9037,1879
9038,1887
9039,1895
9040,1902
9041,1904
9042,1910
9043,1910
9044,1909
9045,1907
9046,1909
9047,1906
9048,1905
9049,1899
9050,1894
9051,1895
9052,1891
9053,1892
9054,1889
9055,1882
9056,1876
9057,1869
9058,1862
9059,1856
9060,1844
9061,1840
9062,1837
9063,1830
9064,1823
9065,1820
9066,1815
9067,1811
9068,1810
9069,1808
9070,1809
9071,1809
9072,1809
9073,1815
9074,1814
9075,1822
9076,1825
9077,1829
9078,1831
9079,1837
9080,1837
9081,1840
9082,1840
9083,1840
9084,1843
9085,1847
9086,1842
9087,1843
9088,1846
9089,1850
9090,1854
9091,1856
9092,1858
9093,1860
9094,1861
9095,1865
9096,1866
9097,1870
9098,1871
9099,1872
9500,1883
9501,1881
9502,1887
9503,1886
9504,1891
9505,1897
9506,1901
9507,1904
9508,1906
9509,1910
9510,1911
9511,1911
9512,1916
9513,1917
9514,1914
9515,1916
9516,1911
9517,1909
9518,1909
9519,1906
9520,1904
9521,1902
9522,1898
9523,1890
9524,1883
9525,1874
9526,1869
9527,1861
9528,1854
9529,1845
9530,1839
9531,1835
9532,1828
9533,1824
9534,1822
9535,1817
9536,1815
9537,1813
9538,1814
9539,1815
9540,1814
9541,1819
9542,1822
9543,1826
9544,1831
9545,1834
9546,1837
9547,1839
9548,1840
9549,1840
9550,1841
9551,1840
9552,1845
9553,1845
9554,1853
9555,1854
9556,1857
9557,1859
9558,1858
9559,1862
9560,1863
9561,1869
9562,1872
9563,1872
9564,1872
9565,1873
9566,1875
9567,1878
9568,1879
9569,1878
9570,1879
9571,1886
9572,1889
9573,1893
9574,1899
9575,1904
9576,1904
9577,1905
9578,1905
9579,1905
9580,1906
9581,1906
9582,1905
9583,1904
9584,1903
9585,1897
9586,1903
9587,1902
9588,1895
9589,1890
9590,1885
9591,1876
9592,1867
9593,1862
9594,1855
9595,1847
9596,1842
9597,1834
9598,1830
9599,1822
10100,1886
10101,1888
10102,1888
10103,1892
10104,1893
10105,1899
10106,1902
10107,1906
10108,1907
10109,1906
10110,1907
10111,1908
10112,1919
10113,1918
10114,1918
10115,1916
10116,1913
10117,1910
10118,1908
10119,1906
10120,1904
10121,1899
10122,1894
10123,1887
10124,1879
10125,1871
10126,1859
10127,1855
10128,1849
10129,1840
10130,1836
10131,1829
10132,1829
10133,1814
10134,1819
10135,1814
10136,1814
10137,1810
10138,1813
10139,1813
10140,1814
10141,1817
10142,1819
10143,1824
10144,1829
10145,1830
10146,1835
10147,1837
10148,1840
10149,1841
10150,1840
10151,1841
10152,1843
10153,1846
10154,1849
10155,1852
10156,1855
10157,1856
10158,1861
10159,1863
10160,1867
10161,1870
10162,1871
10163,1872
10164,1873
10165,1873
10166,1877
10167,1882
10168,1886
10169,1879
10170,1882
10171,1884
10172,1889
10173,1895
10174,1902
10175,1904
10176,1907
10177,1906
10178,1907
10179,1909
10180,1906
10181,1905
10182,1906
10183,1905
10184,1904
10185,1901
10186,1895
10187,1892
10188,1887
10189,1882
10190,1872
10191,1869
10192,1858
10193,1850
10194,1854
10195,1843
10196,1840
10197,1834
10198,1829
10199,1821
10600,1823
10601,1815
10602,1814
10603,1813
10604,1811
10605,1813
10606,1814
10607,1810
10608,1815
10609,1821
10610,1823
10611,1830
10612,1834
10613,1838
10614,1838
10615,1840
10616,1840
10617,1840
10618,1844
10619,1840
10620,1841
10621,1842
10622,1854
10623,1856
10624,1857
10625,1859
10626,1865
10627,1868
10628,1871
10629,1872
10630,1873
10631,1877
10632,1879
10633,1882
10634,1886
10635,1887
10636,1889
10637,1891
10638,1897
10639,1903
10640,1907
10641,1909
10642,1917
10643,1917
10644,1918
10645,1919
10646,1915
10647,1915
10648,1914
10649,1910
10650,1907
10651,1906
10652,1906
10653,1902
10654,1901
10655,1894
10656,1889
10657,1881
10658,1873
10659,1868
10660,1859
10661,1851
10662,1840
10663,1835
10664,1824
10665,1815
10666,1811
10667,1808
10668,1806
10669,1807
10670,1805
10671,1805
10672,1806
10673,1806
10674,1812
10675,1812
10676,1818
10677,1820
10678,1826
10679,1829
10680,1830
10681,1835
10682,1838
10683,1835
10684,1839
10685,1840
10686,1845
10687,1840
10688,1847
10689,1851
10690,1852
10691,1856
10692,1859
10693,1863
10694,1866
10695,1869
10696,1870
10697,1872
10698,1872
10699,1872
11100,1879
11101,1883
11102,1883
11103,1884
11104,1888
11105,1895
11106,1901
11107,1904
11108,1907
11109,1913
11110,1916
11111,1918
11112,1919
11113,1918
11114,1917
11115,1917
11116,1917
11117,1916
11118,1910
11119,1905
11120,1904
11121,1904
11122,1895
11123,1891
11124,1883
11125,1874
11126,1862
11127,1851
11128,1841
11129,1838
11130,1830
11131,1824
11132,1817
11133,1811
11134,1807
11135,1802
11136,1802
11137,1806
11138,1805
11139,1804
11140,1806
11141,1808
11142,1808
11143,1814
11144,1819
11145,1822
11146,1828
11147,1839
11148,1840
11149,1841
11150,1840
11151,1843
11152,1842
11153,1844
11154,1847
11155,1849
11156,1853
11157,1856
11158,1858
11159,1863
11160,1866
11161,1870
11162,1871
11163,1871
11164,1872
11165,1872
11166,1874
11167,1881
11168,1883
11169,1886
11170,1889
11171,1894
11172,1899
11173,1903
11174,1906
11175,1913
11176,1917
11177,1917
11178,1918
11179,1921
11180,1918
11181,1920
11182,1919
11183,1919
11184,1915
11185,1911
11186,1910
11187,1907
11188,1904
11189,1903
11190,1891
11191,1886
11192,1875
11193,1868
11194,1859
11195,1849
11196,1843
11197,1836
11198,1829
11199,1825
11600,1815
11601,1813
11602,1809
11603,1810
11604,1809
11605,1812
11606,1807
11607,1806
11608,1808
11609,1809
11610,1813
11611,1818
11612,1819
11613,1823
11614,1824
11615,1829
11616,1829
11617,1831
11618,1834
11619,1837
11620,1838
11621,1840
11622,1840
11623,1846
11624,1853
11625,1854
11626,1856
11627,1869
11628,1869
11629,1871
11630,1871
11631,1872
11632,1877
11633,1879
11634,1882
11635,1885
11636,1886
11637,1887
11638,1891
11639,1899
11640,1904
11641,1910
11642,1913
11643,1916
11644,1918
11645,1919
11646,1919
11647,1921
11648,1919
11649,1918
11650,1917
11651,1915
11652,1911
11653,1905
11654,1897
11655,1893
11656,1890
11657,1887
11658,1878
11659,1872
11660,1864
11661,1856
11662,1845
11663,1836
11664,1834
11665,1827
11666,1821
11667,1811
11668,1808
11669,1808
11670,1808
11671,1808
11672,1807
11673,1808
11674,1809
11675,1813
11676,1814
11677,1821
11678,1826
11679,1827
11680,1830
11681,1835
11682,1835
11683,1839
11684,1840
11685,1840
11686,1843
11687,1845
11688,1846
11689,1851
11690,1855
11691,1856
11692,1859
11693,1866
11694,1866
11695,1870
11696,1871
11697,1872
11698,1875
11699,1877
12100,1872
12101,1875
12102,1876
12103,1878
12104,1883
12105,1888
12106,1898
12107,1908
12108,1917
12109,1922
12110,1923
12111,1928
12112,1927
12113,1927
12114,1930
12115,1927
12116,1925
12117,1925
12118,1923
12119,1921
12120,1915
12121,1917
12122,1906
12123,1904
12124,1901
12125,1892
12126,1879
12127,1872
12128,1861
12129,1855
12130,1845
12131,1836
12132,1829
12133,1821
12134,1814
12135,1811
12136,1809
12137,1808
12138,1809
12139,1810
12140,1810
12141,1813
12142,1815
12143,1819
12144,1825
12145,1827
12146,1831
12147,1832
12148,1837
12149,1836
12150,1831
12151,1839
12152,1840
12153,1841
12154,1840
12155,1845
12156,1846
12157,1852
12158,1856
12159,1861
12160,1861
12161,1867
12162,1868
12163,1870
12164,1872
12165,1872
12166,1872
12167,1879
12168,1884
12169,1877
12170,1875
12171,1881
12172,1895
12173,1899
12174,1904
12175,1907
12176,1910
12177,1915
12178,1918
12179,1919
12180,1918
12181,1918
12182,1917
12183,1911
12184,1911
12185,1909
12186,1906
12187,1906
12188,1904
12189,1899
12190,1894
12191,1884
12192,1874
12193,1867
12194,1856
12195,1847
12196,1840
12197,1834
12198,1824
12199,1821
12600,1810
12601,1808
12602,1806
12603,1803
12604,1801
12605,1806
12606,1807
12607,1809
12608,1808
12609,1809
12610,1817
12611,1821
12612,1825
12613,1830
12614,1830
12615,1835
12616,1836
12617,1839
12618,1839
12619,1840
12620,1842
12621,1842
12622,1845
12623,1850
12624,1855
12625,1859
12626,1861
12627,1865
12628,1866
12629,1869
12630,1870
12631,1872
12632,1874
12633,1875
12634,1878
12635,1887
12636,1889
12637,1886
12638,1894
12639,1901
12640,1905
12641,1914
12642,1919
12643,1923
12644,1922
12645,1925
12646,1922
12647,1925
12648,1925
12649,1922
12650,1923
12651,1921
12652,1919
12653,1917
12654,1914
12655,1907
12656,1904
12657,1900
12658,1889
12659,1882
12660,1872
12661,1861
12662,1853
12663,1842
12664,1833
12665,1823
12666,1815
12667,1811
12668,1808
12669,1806
12670,1805
12671,1804
12672,1807
12673,1808
12674,1808
12675,1809
12676,1811
12677,1822
12678,1823
12679,1828
12680,1830
12681,1833
12682,1837
12683,1840
12684,1837
12685,1840
12686,1840
12687,1838
12688,1840
12689,1842
12690,1845
12691,1849
12692,1856
12693,1856
12694,1857
12695,1862
12696,1865
12697,1870
12698,1873
12699,1872
13200,1805
13201,1792
13202,1787
13203,1779
13204,1779
13205,1778
13206,1779
13207,1779
13208,1782
13209,1782
13210,1787
13211,1792
13212,1802
13213,1807
13214,1801
13215,1803
13216,1808
13217,1811
13218,1810
13219,1818
13220,1816
13221,1823
13222,1823
13223,1825
13224,1826
13225,1830
13226,1835
13227,1838
13228,1840
13229,1840
13230,1841
13231,1844
13232,1846
13233,1849
13234,1849
13235,1851
13236,1855
13237,1854
13238,1854
13239,1860
13240,1861
13241,1863
13242,1867
13243,1871
13244,1869
13245,1862
13246,1860
13247,1856
13248,1854
13249,1849
13250,1845
13251,1840
13252,1839
13253,1836
13254,1833
13255,1831
13256,1824
13257,1822
13258,1813
13259,1810
13260,1803
13261,1804
13262,1797
13263,1794
13264,1786
13265,1788
13266,1786
13267,1782
13268,1783
13269,1781
13270,1782
13271,1782
13272,1785
13273,1787
13274,1791
13275,1790
13276,1794
13277,1799
13278,1805
13279,1808
13280,1809
13281,1787
13282,1442
13283,2013
13284,2097
13285,2064
13286,2007
13287,1967
13288,1937
13289,1923
13290,1911
13291,1904
13292,1902
13293,1892
13294,1892
13295,1889
13296,1885
13297,1887
13298,1886
13299,1887
13700,1867
13701,1867
13702,1871
13703,1872
13704,1872
13705,1872
13706,1875
13707,1879
13708,1889
13709,1888
13710,1895
13711,1895
13712,1893
13713,1893
13714,1889
13715,1891
13716,1886
13717,1883
13718,1882
13719,1873
13720,1872
13721,1864
13722,1858
13723,1851
13724,1837
13725,1825
13726,1819
13727,1820
13728,1813
13729,1808
13730,1808
13731,1806
13732,1803
13733,1802
13734,1798
13735,1796
13736,1795
13737,1793
13738,1794
13739,1798
13740,1802
13741,1805
13742,1805
13743,1808
13744,1811
13745,1819
13746,1822
13747,1824
13748,1827
13749,1832
13750,1834
13751,1835
13752,1840
13753,1840
13754,1847
13755,1841
13756,1847
13757,1847
13758,1856
13759,1853
13760,1859
13761,1863
13762,1866
13763,1868
13764,1871
13765,1872
13766,1872
13767,1870
13768,1872
13769,1872
13770,1874
13771,1873
13772,1882
13773,1886
13774,1894
13775,1899
13776,1904
13777,1906
13778,1466
13779,2014
13780,2163
13781,2141
13782,2097
13783,2066
13784,2045
13785,2032
13786,2019
13787,2011
13788,2005
13789,2000
13790,1997
13791,1987
13792,1982
13793,1969
13794,1970
13795,1962
13796,1951
13797,1943
13798,1932
13799,1919
14200,1782
14201,1779
14202,1776
14203,1779
14204,1777
14205,1781
14206,1781
14207,1782
14208,1789
14209,1791
14210,1794
14211,1797
14212,1804
14213,1807
14214,1808
14215,1810
14216,1815
14217,1815
14218,1817
14219,1822
14220,1823
14221,1823
14222,1827
14223,1829
14224,1835
14225,1840
14226,1840
14227,1845
14228,1847
14229,1853
14230,1851
14231,1855
14232,1856
14233,1857
14234,1860
14235,1861
14236,1861
14237,1856
14238,1856
14239,1857
14240,1865
14241,1867
14242,1872
14243,1873
14244,1874
14245,1872
14246,1872
14247,1872
14248,1868
14249,1865
14250,1863
14251,1855
14252,1854
14253,1844
14254,1840
14255,1835
14256,1825
14257,1823
14258,1819
14259,1810
14260,1805
14261,1802
14262,1796
14263,1797
14264,1790
14265,1788
14266,1783
14267,1782
14268,1782
14269,1779
14270,1782
14271,1781
14272,1783
14273,1786
14274,1389
14275,1822
14276,2065
14277,2057
14278,2003
14279,1967
14280,1936
14281,1919
14282,1903
14283,1887
14284,1877
14285,1871
14286,1861
14287,1856
14288,1852
14289,1845
14290,1843
14291,1843
14292,1843
14293,1850
14294,1853
14295,1855
14296,1859
14297,1860
14298,1862
14299,1861
14700,1861
14701,1862
14702,1863
14703,1862
14704,1863
14705,1867
14706,1871
14707,1873
14708,1874
14709,1879
14710,1882
14711,1883
14712,1879
14713,1877
14714,1875
14715,1872
14716,1872
14717,1870
14718,1862
14719,1856
14720,1851
14721,1844
14722,1839
14723,1836
14724,1834
14725,1826
14726,1818
14727,1801
14728,1799
14729,1795
14730,1791
14731,1790
14732,1786
14733,1788
14734,1785
14735,1787
14736,1781
14737,1785
14738,1786
14739,1786
14740,1790
14741,1792
14742,1791
14743,1799
14744,1802
14745,1808
14746,1811
14747,1824
14748,1826
14749,1828
14750,1831
14751,1833
14752,1835
14753,1834
14754,1839
14755,1840
14756,1840
14757,1843
14758,1844
14759,1847
14760,1851
14761,1855
14762,1858
14763,1861
14764,1863
14765,1868
14766,1869
14767,1871
14768,1873
14769,1873
14770,1586
14771,1793
14772,2125
14773,2133
14774,2101
14775,2071
14776,2059
14777,2047
14778,2045
14779,2039
14780,2043
14781,2044
14782,2047
14783,2046
14784,2051
14785,2046
14786,2046
14787,2044
14788,2043
14789,2043
14790,2037
14791,2034
14792,2031
14793,2021
14794,2012
14795,2001
14796,1991
14797,1983
14798,1969
14799,1956
15200,1791
15201,1791
15202,1787
15203,1789
15204,1788
15205,1791
15206,1793
15207,1787
15208,1790
15209,1793
15210,1794
15211,1797
15212,1807
15213,1808
15214,1811
15215,1815
15216,1819
15217,1822
15218,1821
15219,1825
15220,1827
15221,1830
15222,1835
15223,1837
15224,1840
15225,1842
15226,1846
15227,1856
15228,1862
15229,1867
15230,1867
15231,1869
15232,1869
15233,1872
15234,1872
15235,1874
15236,1878
15237,1879
15238,1879
15239,1887
15240,1897
15241,1902
15242,1905
15243,1915
15244,1920
15245,1924
15246,1926
15247,1923
15248,1927
15249,1926
15250,1927
15251,1924
15252,1920
15253,1920
15254,1919
15255,1913
15256,1907
15257,1904
15258,1898
15259,1877
15260,1867
15261,1855
15262,1846
15263,1840
15264,1828
15265,1819
15266,1655
15267,1565
15268,2024
15269,2059
15270,2006
15271,1963
15272,1919
15273,1893
15274,1872
15275,1851
15276,1840
15277,1826
15278,1819
15279,1817
15280,1814
15281,1814
15282,1815
15283,1819
15284,1824
15285,1824
15286,1827
15287,1834
15288,1840
15289,1840
15290,1840
15291,1845
15292,1847
15293,1854
15294,1855
15295,1859
15296,1859
15297,1861
15298,1865
15299,1866
15700,1870
15701,1872
15702,1872
15703,1872
15704,1873
15705,1876
15706,1883
15707,1901
15708,1907
15709,1913
15710,1921
15711,1926
15712,1927
15713,1930
15714,1933
15715,1936
15716,1936
15717,1936
15718,1936
15719,1936
15720,1934
15721,1934
15722,1930
15723,1924
15724,1920
15725,1914
15726,1904
15727,1891
15728,1878
15729,1870
15730,1856
15731,1846
15732,1833
15733,1822
15734,1808
15735,1805
15736,1799
15737,1795
15738,1795
15739,1796
15740,1797
15741,1798
15742,1802
15743,1802
15744,1808
15745,1810
15746,1818
15747,1820
15748,1823
15749,1825
15750,1828
15751,1830
15752,1833
15753,1835
15754,1838
15755,1839
15756,1841
15757,1845
15758,1847
15759,1851
15760,1855
15761,1860
15762,1865
15763,1867
15764,1869
15765,1871
15766,1875
15767,1872
15768,1878
15769,1881
15770,1879
15771,1879
15772,1885
15773,1886
15774,1902
15775,1907
15776,1919
15777,1925
15778,1927
15779,1933
15780,1936
15781,1933
15782,1936
15783,1936
15784,1937
15785,1936
15786,1935
15787,1934
15788,1930
15789,1929
15790,1922
15791,1920
15792,1911
15793,1899
15794,1891
15795,1879
15796,1867
15797,1857
15798,1843
15799,1831
16200,1814
16201,1807
16202,1797
16203,1793
16204,1791
16205,1792
16206,1792
16207,1793
16208,1795
16209,1798
16210,1802
16211,1805
16212,1810
16213,1814
16214,1822
16215,1827
16216,1829
16217,1829
16218,1832
16219,1833
16220,1839
16221,1838
16222,1840
16223,1841
16224,1842
16225,1847
16226,1854
16227,1856
16228,1860
16229,1863
16230,1867
16231,1867
16232,1871
16233,1872
16234,1874
16235,1877
16236,1881
16237,1882
16238,1883
16239,1891
16240,1899
16241,1906
16242,1910
16243,1917
16244,1922
16245,1926
16246,1932
16247,1935
16248,1936
16249,1936
16250,1937
16251,1938
16252,1936
16253,1935
16254,1931
16255,1929
16256,1930
16257,1921
16258,1915
16259,1905
16260,1895
16261,1885
16262,1871
16263,1855
16264,1842
16265,1834
16266,1816
16267,1808
16268,1801
16269,1793
16270,1791
16271,1791
16272,1791
16273,1792
16274,1793
16275,1797
16276,1797
16277,1805
16278,1808
16279,1811
16280,1818
16281,1822
16282,1827
16283,1824
16284,1829
16285,1830
16286,1833
16287,1830
16288,1831
16289,1839
16290,1838
16291,1840
16292,1841
16293,1847
16294,1850
16295,1855
16296,1857
16297,1858
16298,1861
16299,1867
16700,1870
16701,1872
16702,1873
16703,1877
16704,1878
16705,1881
16706,1884
16707,1895
16708,1903
16709,1909
16710,1917
16711,1922
16712,1927
16713,1931
16714,1932
16715,1936
16716,1936
16717,1936
16718,1936
16719,1937
16720,1936
16721,1934
16722,1932
16723,1927
16724,1922
16725,1919
16726,1905
16727,1895
16728,1886
16729,1872
16730,1861
16731,1853
16732,1837
16733,1823
16734,1809
16735,1803
16736,1795
16737,1794
16738,1791
16739,1791
16740,1792
16741,1793
16742,1797
16743,1798
16744,1802
16745,1808
16746,1811
16747,1819
16748,1823
16749,1827
16750,1829
16751,1831
16752,1831
16753,1835
16754,1839
16755,1840
16756,1840
16757,1841
16758,1845
16759,1850
16760,1852
16761,1855
16762,1861
16763,1862
16764,1861
16765,1865
16766,1867
16767,1865
16768,1867
16769,1872
16770,1874
16771,1873
16772,1878
16773,1887
16774,1894
16775,1901
16776,1905
16777,1917
16778,1922
16779,1927
16780,1931
16781,1933
16782,1936
16783,1936
16784,1938
16785,1937
16786,1936
16787,1942
16788,1943
16789,1938
16790,1937
16791,1933
16792,1930
16793,1918
16794,1904
16795,1898
16796,1883
16797,1872
16798,1857
16799,1843
17300,1871
17301,1872
17302,1875
17303,1877
17304,1877
17305,1883
17306,1887
17307,1894
17308,1902
17309,1906
17310,1919
17311,1921
17312,1926
17313,1930
17314,1931
17315,1934
17316,1936
17317,1930
17318,1926
17319,1926
17320,1933
17321,1931
17322,1925
17323,1925
17324,1919
17325,1908
17326,1904
17327,1891
17328,1872
17329,1867
17330,1852
17331,1840
17332,1829
17333,1815
17334,1808
17335,1797
17336,1791
17337,1786
17338,1789
17339,1791
17340,1791
17341,1790
17342,1794
17343,1794
17344,1798
17345,1806
17346,1811
17347,1817
17348,1824
17349,1825
17350,1829
17351,1829
17352,1832
17353,1835
17354,1839
17355,1839
17356,1840
17357,1842
17358,1841
17359,1849
17360,1850
17361,1854
17362,1858
17363,1859
17364,1866
17365,1866
17366,1871
17367,1865
17368,1855
17369,1872
17370,1872
17371,1873
17372,1878
17373,1881
17374,1890
17375,1900
17376,1906
17377,1911
17378,1921
17379,1922
17380,1930
17381,1931
17382,1936
17383,1936
17384,1936
17385,1936
17386,1936
17387,1936
17388,1936
17389,1936
17390,1931
17391,1923
17392,1918
17393,1910
17394,1904
17395,1894
17396,1881
17397,1871
17398,1856
17399,1840
17800,1813
17801,1806
17802,1796
17803,1791
17804,1786
17805,1782
17806,1787
17807,1786
17808,1789
17809,1792
17810,1795
17811,1801
17812,1805
17813,1808
17814,1811
17815,1819
17816,1824
17817,1824
17818,1829
17819,1825
17820,1829
17821,1833
17822,1836
17823,1838
17824,1840
17825,1840
17826,1847
17827,1850
17828,1854
17829,1859
17830,1863
17831,1866
17832,1870
17833,1870
17834,1871
17835,1872
17836,1874
17837,1873
17838,1873
17839,1875
17840,1881
17841,1889
17842,1897
17843,1904
17844,1913
17845,1920
17846,1924
17847,1926
17848,1935
17849,1935
17850,1936
17851,1936
17852,1936
17853,1937
17854,1936
17855,1935
17856,1933
17857,1929
17858,1921
17859,1915
17860,1904
17861,1891
17862,1879
17863,1870
17864,1854
17865,1839
17866,1821
17867,1808
17868,1797
17869,1788
17870,1781
17871,1779
17872,1778
17873,1780
17874,1789
17875,1792
17876,1793
17877,1797
17878,1799
17879,1805
17880,1808
17881,1814
17882,1817
17883,1822
17884,1823
17885,1824
17886,1828
17887,1829
17888,1834
17889,1837
17890,1839
17891,1840
17892,1843
17893,1850
17894,1855
17895,1856
17896,1861
17897,1862
17898,1863
17899,1866
18300,1869
18301,1872
18302,1872
18303,1875
18304,1877
18305,1878
18306,1885
18307,1890
18308,1898
18309,1904
18310,1907
18311,1919
18312,1923
18313,1926
18314,1931
18315,1934
18316,1936
18317,1936
18318,1937
18319,1936
18320,1936
18321,1935
18322,1936
18323,1933
18324,1925
18325,1920
18326,1910
18327,1893
18328,1882
18329,1869
18330,1856
18331,1841
18332,1825
18333,1810
18334,1804
18335,1791
18336,1787
18337,1781
18338,1776
18339,1777
18340,1778
18341,1783
18342,1782
18343,1791
18344,1794
18345,1798
18346,1805
18347,1817
18348,1823
18349,1822
18350,1824
18351,1826
18352,1814
18353,1829
18354,1831
18355,1836
18356,1838
18357,1830
18358,1834
18359,1840
18360,1850
18361,1857
18362,1861
18363,1862
18364,1867
18365,1867
18366,1869
18367,1872
18368,1871
18369,1872
18370,1875
18371,1879
18372,1880
18373,1885
18374,1893
18375,1901
18376,1903
18377,1913
18378,1921
18379,1926
18380,1932
18381,1936
18382,1936
18383,1939
18384,1942
18385,1942
18386,1942
18387,1941
18388,1941
18389,1940
18390,1937
18391,1936
18392,1923
18393,1916
18394,1904
18395,1895
18396,1878
18397,1866
18398,1854
18399,1838
18800,1808
18801,1802
18802,1792
18803,1790
18804,1786
18805,1785
18806,1786
18807,1777
18808,1782
18809,1785
18810,1790
18811,1792
18812,1795
18813,1803
18814,1808
18815,1811
18816,1815
18817,1815
18818,1819
18819,1822
18820,1823
18821,1826
18822,1830
18823,1832
18824,1837
18825,1840
18826,1840
18827,1851
18828,1856
18829,1857
18830,1862
18831,1863
18832,1871
18833,1870
18834,1872
18835,1872
18836,1877
18837,1877
18838,1879
18839,1881
18840,1889
18841,1899
18842,1905
18843,1911
18844,1919
18845,1926
18846,1933
18847,1935
18848,1937
18849,1939
18850,1943
18851,1945
18852,1942
18853,1941
18854,1941
18855,1936
18856,1937
18857,1936
18858,1930
18859,1925
18860,1914
18861,1903
18862,1887
18863,1873
18864,1850
18865,1840
18866,1831
18867,1814
18868,1806
18869,1790
18870,1783
18871,1776
18872,1775
18873,1786
18874,1788
18875,1791
18876,1794
18877,1797
18878,1803
18879,1806
18880,1810
18881,1815
18882,1818
18883,1825
18884,1827
18885,1827
18886,1830
18887,1831
18888,1837
18889,1837
18890,1839
18891,1841
18892,1845
18893,1849
18894,1853
18895,1857
18896,1861
18897,1865
18898,1865
18899,1872
19300,1866
19301,1865
19302,1870
19303,1872
19304,1872
19305,1875
19306,1875
19307,1891
19308,1899
19309,1909
19310,1916
19311,1926
19312,1934
19313,1937
19314,1941
19315,1942
19316,1949
19317,1949
19318,1953
19319,1954
19320,1952
19321,1952
19322,1951
19323,1950
19324,1949
19325,1942
19326,1936
19327,1925
19328,1917
19329,1904
19330,1891
19331,1877
19332,1862
19333,1847
19334,1833
19335,1817
19336,1808
19337,1795
19338,1792
19339,1790
19340,1787
19341,1787
19342,1790
19343,1792
19344,1793
19345,1799
19346,1805
19347,1808
19348,1817
19349,1820
19350,1823
19351,1823
19352,1826
19353,1829
19354,1830
19355,1833
19356,1840
19357,1839
19358,1840
19359,1843
19360,1849
19361,1855
19362,1856
19363,1858
19364,1862
19365,1861
19366,1867
19367,1871
19368,1872
19369,1873
19370,1872
19371,1875
19372,1877
19373,1883
19374,1889
19375,1900
19376,1904
19377,1911
19378,1920
19379,1925
19380,1931
19381,1935
19382,1926
19383,1927
19384,1933
19385,1938
19386,1939
19387,1936
19388,1935
19389,1935
19390,1932
19391,1926
19392,1920
19393,1911
19394,1902
19395,1890
19396,1874
19397,1862
19398,1844
19399,1830
19800,1780
19801,1782
19802,1777
19803,1776
19804,1776
19805,1777
19806,1778
19807,1783
19808,1783
19809,1786
19810,1788
19811,1792
19812,1794
19813,1804
19814,1808
19815,1813
19816,1815
19817,1821
19818,1826
19819,1823
19820,1827
19821,1830
19822,1833
19823,1836
19824,1839
19825,1840
19826,1841
19827,1845
19828,1849
19829,1855
19830,1859
19831,1859
19832,1861
19833,1867
19834,1870
19835,1872
19836,1872
19837,1874
19838,1875
19839,1875
19840,1883
19841,1888
19842,1897
19843,1903
19844,1908
19845,1918
19846,1920
19847,1924
19848,1927
19849,1930
19850,1931
19851,1932
19852,1934
19853,1929
19854,1930
19855,1503
19856,1999
19857,2153
19858,2129
19859,2095
19860,2061
19861,2032
19862,2015
19863,2000
19864,1986
19865,1975
19866,1959
19867,1946
19868,1933
19869,1915
19870,1899
19871,1883
19872,1863
19873,1847
19874,1834
19875,1815
19876,1808
19877,1801
19878,1794
19879,1799
19880,1803
19881,1808
19882,1809
19883,1813
19884,1814
19885,1817
19886,1818
19887,1811
19888,1817
19889,1819
19890,1821
19891,1825
19892,1827
19893,1834
19894,1840
19895,1843
19896,1846
19897,1849
19898,1851
19899,1853
20400,1793
20401,1780
20402,1775
20403,1762
20404,1758
20405,1757
20406,1758
20407,1762
20408,1763
20409,1766
20410,1776
20411,1774
20412,1777
20413,1782
20414,1790
20415,1792
20416,1799
20417,1797
20418,1796
20419,1796
20420,1808
20421,1808
20422,1812
20423,1813
20424,1815
20425,1821
20426,1823
20427,1827
20428,1834
20429,1839
20430,1840
20431,1840
20432,1845
20433,1847
20434,1850
20435,1851
20436,1850
20437,1855
20438,1856
20439,1856
20440,1856
20441,1859
20442,1865
20443,1865
20444,1872
20445,1872
20446,1873
20447,1871
20448,1867
20449,1863
20450,1859
20451,1855
20452,1849
20453,1842
20454,1837
20455,1831
20456,1827
20457,1826
20458,1818
20459,1818
20460,1808
20461,1804
20462,1795
20463,1792
20464,1786
20465,1782
20466,1779
20467,1780
20468,1776
20469,1776
20470,1776
20471,1775
20472,1776
20473,1776
20474,1776
20475,1585
20476,1607
20477,2006
20478,2026
20479,1986
20480,1952
20481,1922
20482,1900
20483,1883
20484,1872
20485,1856
20486,1842
20487,1823
20488,1813
20489,1811
20490,1808
20491,1808
20492,1812
20493,1820
20494,1825
20495,1835
20496,1840
20497,1845
20498,1850
20499,1854
20900,1846
20901,1852
20902,1849
20903,1854
20904,1856
20905,1857
20906,1858
20907,1856
20908,1861
20909,1865
20910,1868
20911,1872
20912,1872
20913,1872
20914,1869
20915,1865
20916,1861
20917,1856
20918,1847
20919,1842
20920,1839
20921,1830
20922,1827
20923,1824
20924,1821
20925,1815
20926,1812
20927,1805
20928,1795
20929,1791
20930,1793
20931,1790
20932,1785
20933,1781
20934,1780
20935,1776
20936,1776
20937,1774
20938,1776
20939,1775
20940,1776
20941,1776
20942,1777
20943,1777
20944,1785
20945,1785
20946,1793
20947,1798
20948,1804
20949,1810
20950,1816
20951,1817
20952,1820
20953,1821
20954,1822
20955,1821
20956,1827
20957,1829
20958,1830
20959,1834
20960,1838
20961,1841
20962,1846
20963,1851
20964,1856
20965,1856
20966,1859
20967,1856
20968,1856
20969,1858
20970,1860
20971,1789
20972,1535
20973,2064
20974,2124
20975,2102
20976,2085
20977,2075
20978,2075
20979,2082
20980,2093
20981,2096
20982,2101
20983,2111
20984,2117
20985,2127
20986,2129
20987,2141
20988,2145
20989,2151
20990,2157
20991,2160
20992,2157
20993,2137
20994,2118
20995,2096
20996,2064
20997,2033
20998,2005
20999,1983
21400,1786
21401,1783
21402,1781
21403,1779
21404,1777
21405,1776
21406,1779
21407,1779
21408,1781
21409,1781
21410,1785
21411,1791
21412,1791
21413,1799
21414,1808
21415,1811
21416,1813
21417,1817
21418,1822
21419,1825
21420,1825
21421,1829
21422,1830
21423,1833
21424,1833
21425,1840
21426,1841
21427,1846
21428,1849
21429,1854
21430,1857
21431,1862
21432,1865
21433,1869
21434,1871
21435,1872
21436,1872
21437,1874
21438,1877
21439,1879
21440,1886
21441,1891
21442,1899
21443,1906
21444,1916
21445,1924
21446,1934
21447,1936
21448,1937
21449,1938
21450,1941
21451,1948
21452,1951
21453,1951
21454,1951
21455,1951
21456,1949
21457,1951
21458,1941
21459,1942
21460,1935
21461,1923
21462,1913
21463,1903
21464,1887
21465,1872
21466,1856
21467,1847
21468,1420
21469,1967
21470,2043
21471,2002
21472,1957
21473,1919
21474,1898
21475,1872
21476,1851
21477,1833
21478,1815
21479,1805
21480,1799
21481,1801
21482,1803
21483,1806
21484,1807
21485,1811
21486,1813
21487,1820
21488,1826
21489,1834
21490,1837
21491,1840
21492,1841
21493,1840
21494,1843
21495,1851
21496,1854
21497,1856
21498,1857
21499,1863
21900,1870
21901,1873
21902,1872
21903,1871
21904,1869
21905,1865
21906,1857
21907,1855
21908,1855
21909,1855
21910,1855
21911,1859
21912,1863
21913,1860
21914,1856
21915,1851
21916,1847
21917,1841
21918,1838
21919,1837
21920,1827
21921,1823
21922,1821
21923,1814
21924,1814
21925,1810
21926,1808
21927,1794
21928,1779
21929,1779
21930,1776
21931,1767
21932,1771
21933,1766
21934,1761
21935,1759
21936,1759
21937,1757
21938,1754
21939,1756
21940,1760
21941,1761
21942,1766
21943,1768
21944,1770
21945,1771
21946,1776
21947,1789
21948,1795
21949,1797
21950,1805
21951,1803
21952,1806
21953,1808
21954,1809
21955,1809
21956,1817
21957,1820
21958,1817
21959,1823
21960,1827
21961,1834
21962,1831
21963,1834
21964,1839
21965,1850
21966,1851
21967,1854
21968,1859
21969,1856
21970,1857
21971,1856
21972,1857
21973,1859
21974,1861
21975,1865
21976,1872
21977,1875
21978,1875
21979,1878
21980,1875
21981,1875
21982,1873
21983,1872
21984,1869
21985,1866
21986,1857
21987,1853
21988,1842
21989,1839
21990,1834
21991,1825
21992,1827
21993,1818
21994,1812
21995,1806
21996,1796
21997,1792
21998,1787
21999,1786
22400,1842
22401,1828
22402,1808
22403,1801
22404,1790
22405,1783
22406,1781
22407,1776
22408,1776
22409,1776
22410,1779
22411,1779
22412,1788
22413,1790
22414,1798
22415,1808
22416,1808
22417,1814
22418,1814
22419,1821
22420,1819
22421,1825
22422,1825
22423,1834
22424,1827
22425,1833
22426,1835
22427,1844
22428,1850
22429,1855
22430,1856
22431,1862
22432,1863
22433,1865
22434,1867
22435,1872
22436,1872
22437,1876
22438,1877
22439,1879
22440,1888
22441,1890
22442,1900
22443,1905
22444,1918
22445,1926
22446,1934
22447,1938
22448,1941
22449,1947
22450,1951
22451,1957
22452,1955
22453,1961
22454,1962
22455,1959
22456,1959
22457,1957
22458,1957
22459,1953
22460,1950
22461,1937
22462,1930
22463,1911
22464,1904
22465,1883
22466,1873
22467,1852
22468,1838
22469,1815
22470,1806
22471,1792
22472,1777
22473,1775
22474,1776
22475,1776
22476,1777
22477,1789
22478,1791
22479,1794
22480,1801
22481,1808
22482,1810
22483,1813
22484,1819
22485,1823
22486,1824
22487,1826
22488,1827
22489,1833
22490,1838
22491,1840
22492,1840
22493,1843
22494,1843
22495,1850
22496,1854
22497,1857
22498,1860
22499,1866
22900,1857
22901,1859
22902,1861
22903,1863
22904,1867
22905,1870
22906,1872
22907,1882
22908,1887
22909,1898
22910,1904
22911,1910
22912,1921
22913,1931
22914,1935
22915,1939
22916,1943
22917,1943
22918,1953
22919,1953
22920,1955
22921,1953
22922,1954
22923,1951
22924,1951
22925,1949
22926,1941
22927,1939
22928,1928
22929,1914
22930,1904
22931,1891
22932,1873
22933,1857
22934,1841
22935,1823
22936,1808
22937,1795
22938,1786
22939,1781
22940,1778
22941,1779
22942,1782
22943,1788
22944,1790
22945,1792
22946,1795
22947,1803
22948,1808
22949,1812
22950,1818
22951,1819
22952,1823
22953,1824
22954,1826
22955,1828
22956,1835
22957,1838
22958,1840
22959,1840
22960,1841
22961,1845
22962,1850
22963,1856
22964,1856
22965,1861
22966,1861
22967,1865
22968,1871
22969,1871
22970,1874
22971,1872
22972,1878
22973,1881
22974,1885
22975,1890
22976,1902
22977,1905
22978,1915
22979,1923
22980,1931
22981,1936
22982,1941
22983,1942
22984,1947
22985,1949
22986,1951
22987,1953
22988,1949
22989,1948
22990,1947
22991,1943
22992,1938
22993,1933
22994,1927
22995,1911
22996,1902
22997,1887
22998,1872
22999,1859
23400,1872
23401,1851
23402,1831
23403,1814
23404,1799
23405,1787
23406,1782
23407,1781
23408,1776
23409,1783
23410,1786
23411,1787
23412,1790
23413,1795
23414,1805
23415,1808
23416,1811
23417,1817
23418,1819
23419,1822
23420,1823
23421,1827
23422,1829
23423,1831
23424,1833
23425,1835
23426,1840
23427,1841
23428,1845
23429,1850
23430,1855
23431,1859
23432,1863
23433,1867
23434,1869
23435,1870
23436,1872
23437,1873
23438,1874
23439,1878
23440,1879
23441,1883
23442,1890
23443,1900
23444,1904
23445,1911
23446,1920
23447,1927
23448,1930
23449,1934
23450,1937
23451,1937
23452,1942
23453,1943
23454,1941
23455,1945
23456,1938
23457,1937
23458,1936
23459,1935
23460,1926
23461,1914
23462,1904
23463,1889
23464,1871
23465,1853
23466,1838
23467,1821
23468,1806
23469,1792
23470,1789
23471,1782
23472,1777
23473,1779
23474,1779
23475,1782
23476,1788
23477,1790
23478,1791
23479,1793
23480,1798
23481,1806
23482,1808
23483,1814
23484,1818
23485,1825
23486,1825
23487,1820
23488,1820
23489,1822
23490,1827
23491,1831
23492,1835
23493,1838
23494,1839
23495,1843
23496,1847
23497,1852
23498,1854
23499,1854
24000,1866
24001,1845
24002,1828
24003,1808
24004,1794
24005,1784
24006,1777
24007,1777
24008,1776
24009,1778
24010,1782
24011,1787
24012,1789
24013,1792
24014,1798
24015,1797
24016,1803
24017,1813
24018,1818
24019,1822
24020,1824
24021,1825
24022,1827
24023,1827
24024,1829
24025,1831
24026,1836
24027,1839
24028,1841
24029,1847
24030,1853
24031,1857
24032,1859
24033,1862
24034,1866
24035,1866
24036,1868
24037,1870
24038,1872
24039,1874
24040,1874
24041,1881
24042,1886
24043,1895
24044,1902
24045,1907
24046,1919
24047,1925
24048,1931
24049,1936
24050,1938
24051,1943
24052,1944
24053,1949
24054,1949
24055,1950
24056,1947
24057,1943
24058,1940
24059,1937
24060,1936
24061,1922
24062,1913
24063,1898
24064,1884
24065,1869
24066,1854
24067,1835
24068,1817
24069,1805
24070,1792
24071,1782
24072,1776
24073,1777
24074,1777
24075,1776
24076,1780
24077,1784
24078,1785
24079,1790
24080,1795
24081,1802
24082,1810
24083,1811
24084,1816
24085,1819
24086,1821
24087,1818
24088,1817
24089,1819
24090,1824
24091,1826
24092,1830
24093,1831
24094,1839
24095,1840
24096,1845
24097,1851
24098,1854
24099,1856
24500,1868
24501,1866
24502,1870
24503,1872
24504,1872
24505,1877
24506,1882
24507,1886
24508,1888
24509,1895
24510,1904
24511,1910
24512,1922
24513,1934
24514,1935
24515,1942
24516,1949
24517,1953
24518,1955
24519,1959
24520,1959
24521,1965
24522,1964
24523,1967
24524,1962
24525,1964
24526,1961
24527,1958
24528,1951
24529,1939
24530,1920
24531,1907
24532,1894
24533,1887
24534,1871
24535,1850
24536,1830
24537,1815
24538,1799
24539,1787
24540,1781
24541,1778
24542,1778
24543,1779
24544,1783
24545,1787
24546,1791
24547,1797
24548,1805
24549,1810
24550,1814
24551,1819
24552,1819
24553,1825
24554,1826
24555,1826
24556,1827
24557,1833
24558,1833
24559,1834
24560,1838
24561,1841
24562,1847
24563,1855
24564,1856
24565,1859
24566,1861
24567,1857
24568,1859
24569,1859
24570,1861
24571,1868
24572,1871
24573,1872
24574,1872
24575,1875
24576,1886
24577,1893
24578,1900
24579,1907
24580,1919
24581,1925
24582,1930
24583,1935
24584,1937
24585,1941
24586,1943
24587,1943
24588,1943
24589,1947
24590,1947
24591,1943
24592,1942
24593,1945
24594,1940
24595,1932
24596,1920
24597,1905
24598,1893
24599,1872
25000,1862
25001,1843
25002,1822
25003,1805
25004,1791
25005,1781
25006,1776
25007,1775
25008,1776
25009,1776
25010,1778
25011,1784
25012,1787
25013,1793
25014,1796
25015,1801
25016,1806
25017,1809
25018,1817
25019,1814
25020,1822
25021,1825
25022,1823
25023,1829
25024,1834
25025,1834
25026,1837
25027,1840
25028,1842
25029,1850
25030,1854
25031,1859
25032,1861
25033,1861
25034,1863
25035,1855
25036,1872
25037,1871
25038,1873
25039,1873
25040,1877
25041,1881
25042,1879
25043,1886
25044,1898
25045,1904
25046,1909
25047,1922
25048,1927
25049,1932
25050,1936
25051,1940
25052,1941
25053,1946
25054,1948
25055,1947
25056,1949
25057,1946
25058,1942
25059,1939
25060,1935
25061,1932
25062,1918
25063,1907
25064,1892
25065,1872
25066,1856
25067,1840
25068,1820
25069,1803
25070,1791
25071,1779
25072,1774
25073,1776
25074,1774
25075,1776
25076,1779
25077,1780
25078,1783
25079,1791
25080,1791
25081,1798
25082,1808
25083,1810
25084,1814
25085,1823
25086,1822
25087,1823
25088,1823
25089,1823
25090,1826
25091,1835
25092,1833
25093,1835
25094,1840
25095,1844
25096,1850
25097,1855
25098,1859
25099,1858
25500,1863
25501,1862
25502,1867
25503,1868
25504,1870
25505,1872
25506,1874
25507,1873
25508,1881
25509,1886
25510,1893
25511,1903
25512,1908
25513,1919
25514,1926
25515,1932
25516,1936
25517,1941
25518,1944
25519,1943
25520,1946
25521,1949
25522,1949
25523,1946
25524,1943
25525,1943
25526,1940
25527,1927
25528,1917
25529,1909
25530,1889
25531,1874
25532,1857
25533,1840
25534,1823
25535,1808
25536,1793
25537,1783
25538,1775
25539,1769
25540,1767
25541,1767
25542,1771
25543,1775
25544,1776
25545,1779
25546,1783
25547,1795
25548,1802
25549,1808
25550,1811
25551,1817
25552,1813
25553,1811
25554,1815
25555,1824
25556,1825
25557,1830
25558,1829
25559,1837
25560,1836
25561,1841
25562,1843
25563,1851
25564,1856
25565,1861
25566,1862
25567,1862
25568,1867
25569,1869
25570,1868
25571,1871
25572,1872
25573,1878
25574,1878
25575,1882
25576,1891
25577,1899
25578,1904
25579,1917
25580,1929
25581,1936
25582,1941
25583,1947
25584,1952
25585,1956
25586,1961
25587,1962
25588,1966
25589,1966
25590,1967
25591,1963
25592,1966
25593,1962
25594,1959
25595,1953
25596,1938
25597,1929
25598,1913
25599,1903
26000,1780
26001,1778
26002,1777
26003,1776
26004,1775
26005,1774
26006,1771
26007,1765
26008,1767
26009,1766
26010,1771
26011,1776
26012,1777
26013,1778
26014,1788
26015,1793
26016,1802
26017,1805
26018,1809
26019,1812
26020,1813
26021,1818
26022,1815
26023,1818
26024,1824
26025,1827
26026,1828
26027,1837
26028,1841
26029,1847
26030,1850
26031,1855
26032,1856
26033,1857
26034,1865
26035,1865
26036,1869
26037,1871
26038,1872
26039,1875
26040,1877
26041,1883
26042,1885
26043,1893
26044,1903
26045,1909
26046,1921
26047,1927
26048,1936
26049,1941
26050,1947
26051,1947
26052,1951
26053,1958
26054,1962
26055,1963
26056,1811
26057,1708
26058,2160
26059,2191
26060,2159
26061,2131
26062,2112
26063,2098
26064,2093
26065,2082
26066,2073
26067,2064
26068,2058
26069,2046
26070,2032
26071,2019
26072,2010
26073,1993
26074,1983
26075,1969
26076,1957
26077,1937
26078,1922
26079,1905
26080,1899
26081,1884
26082,1872
26083,1858
26084,1842
26085,1835
26086,1822
26087,1810
26088,1808
26089,1803
26090,1810
26091,1809
26092,1814
26093,1814
26094,1824
26095,1824
26096,1834
26097,1838
26098,1840
26099,1841
26500,1872
26501,1879
26502,1886
26503,1895
26504,1903
26505,1905
26506,1915
26507,1931
26508,1936
26509,1946
26510,1955
26511,1964
26512,1970
26513,1979
26514,1984
26515,1985
26516,1984
26517,1984
26518,1979
26519,1971
26520,1968
26521,1965
26522,1954
26523,1948
26524,1939
26525,1934
26526,1923
26527,1915
26528,1904
26529,1889
26530,1872
26531,1859
26532,1847
26533,1836
26534,1823
26535,1808
26536,1797
26537,1791
26538,1778
26539,1769
26540,1761
26541,1754
26542,1747
26543,1744
26544,1743
26545,1744
26546,1743
26547,1744
26548,1744
26549,1754
26550,1761
26551,1766
26552,1722
26553,1424
26554,1957
26555,2004
26556,1962
26557,1914
26558,1874
26559,1855
26560,1841
26561,1838
26562,1839
26563,1840
26564,1845
26565,1855
26566,1859
26567,1867
26568,1873
26569,1881
26570,1889
26571,1895
26572,1904
26573,1915
26574,1923
26575,1931
26576,1936
26577,1948
26578,1955
26579,1967
26580,1971
26581,1980
26582,1977
26583,1980
26584,1974
26585,1968
26586,1968
26587,1959
26588,1958
26589,1949
26590,1938
26591,1933
26592,1923
26593,1920
26594,1907
26595,1901
26596,1886
26597,1867
26598,1846
26599,1829
27100,1837
27101,1837
27102,1838
27103,1841
27104,1839
27105,1841
27106,1840
27107,1851
27108,1852
27109,1854
27110,1856
27111,1862
27112,1867
27113,1867
27114,1871
27115,1867
27116,1860
27117,1847
27118,1841
27119,1838
27120,1840
27121,1835
27122,1830
27123,1825
27124,1821
27125,1817
27126,1811
27127,1809
27128,1808
27129,1801
27130,1791
27131,1784
27132,1778
27133,1776
27134,1773
27135,1771
27136,1771
27137,1765
27138,1762
27139,1761
27140,1760
27141,1761
27142,1761
27143,1767
27144,1767
27145,1774
27146,1776
27147,1777
27148,1782
27149,1791
27150,1797
27151,1803
27152,1806
27153,1808
27154,1809
27155,1810
27156,1814
27157,1818
27158,1821
27159,1823
27160,1826
27161,1829
27162,1836
27163,1840
27164,1840
27165,1845
27166,1851
27167,1852
27168,1854
27169,1856
27170,1857
27171,1858
27172,1862
27173,1422
27174,1978
27175,2115
27176,2113
27177,2097
27178,2096
27179,2105
27180,2114
27181,2128
27182,2143
27183,2159
27184,2171
27185,2179
27186,2176
27187,2161
27188,2143
27189,2119
27190,2098
27191,2074
27192,2052
27193,2030
27194,2011
27195,1990
27196,1971
27197,1949
27198,1930
27199,1907
27600,1778
27601,1777
27602,1775
27603,1774
27604,1774
27605,1772
27606,1767
27607,1767
27608,1767
27609,1771
27610,1776
27611,1776
27612,1778
27613,1783
27614,1786
27615,1791
27616,1797
27617,1805
27618,1808
27619,1811
27620,1814
27621,1815
27622,1817
27623,1821
27624,1826
27625,1827
27626,1827
27627,1826
27628,1827
27629,1835
27630,1840
27631,1842
27632,1855
27633,1858
27634,1863
27635,1864
27636,1870
27637,1867
27638,1871
27639,1872
27640,1874
27641,1874
27642,1875
27643,1879
27644,1888
27645,1895
27646,1904
27647,1913
27648,1922
27649,1930
27650,1934
27651,1936
27652,1939
27653,1942
27654,1943
27655,1946
27656,1949
27657,1945
27658,1943
27659,1938
27660,1936
27661,1930
27662,1922
27663,1909
27664,1895
27665,1877
27666,1862
27667,1842
27668,1824
27669,1389
27670,1840
27671,2021
27672,2000
27673,1961
27674,1920
27675,1889
27676,1859
27677,1835
27678,1809
27679,1794
27680,1783
27681,1777
27682,1783
27683,1789
27684,1794
27685,1803
27686,1808
27687,1808
27688,1810
27689,1811
27690,1821
27691,1819
27692,1825
27693,1829
27694,1833
27695,1837
27696,1839
27697,1844
27698,1845
27699,1851
28100,1862
28101,1872
28102,1879
28103,1890
28104,1895
28105,1903
28106,1911
28107,1919
28108,1923
28109,1926
28110,1936
28111,1945
28112,1954
28113,1963
28114,1968
28115,1969
28116,1969
28117,1970
28118,1967
28119,1963
28120,1959
28121,1951
28122,1946
28123,1936
28124,1927
28125,1919
28126,1909
28127,1906
28128,1898
28129,1883
28130,1869
28131,1856
28132,1840
28133,1828
28134,1815
28135,1803
28136,1792
28137,1778
28138,1773
28139,1761
28140,1751
28141,1744
28142,1742
28143,1738
28144,1731
28145,1730
28146,1731
28147,1728
28148,1735
28149,1742
28150,1743
28151,1746
28152,1750
28153,1757
28154,1762
28155,1770
28156,1776
28157,1779
28158,1789
28159,1794
28160,1803
28161,1808
28162,1818
28163,1830
28164,1840
28165,1535
28166,1792
28167,2081
28168,2068
28169,2015
28170,1974
28171,1947
28172,1936
28173,1924
28174,1925
28175,1922
28176,1925
28177,1927
28178,1937
28179,1943
28180,1950
28181,1958
28182,1963
28183,1963
28184,1963
28185,1958
28186,1952
28187,1949
28188,1939
28189,1937
28190,1931
28191,1920
28192,1902
28193,1917
28194,1910
28195,1904
28196,1889
28197,1872
28198,1859
28199,1846
28600,1856
28601,1837
28602,1812
28603,1799
28604,1783
28605,1778
28606,1771
28607,1769
28608,1773
28609,1773
28610,1776
28611,1776
28612,1780
28613,1786
28614,1791
28615,1793
28616,1801
28617,1806
28618,1810
28619,1814
28620,1823
28621,1823
28622,1822
28623,1826
28624,1827
28625,1833
28626,1831
28627,1839
28628,1840
28629,1844
28630,1847
28631,1853
28632,1856
28633,1861
28634,1859
28635,1863
28636,1868
28637,1870
28638,1870
28639,1872
28640,1878
28641,1882
28642,1885
28643,1891
28644,1903
28645,1911
28646,1920
28647,1926
28648,1937
28649,1949
28650,1957
28651,1965
28652,1968
28653,1975
28654,1978
28655,1990
28656,1998
28657,1996
28658,1998
28659,2001
28660,2005
28661,2007
28662,2006
28663,2007
28664,2000
28665,1994
28666,1983
28667,1981
28668,1971
28669,1962
28670,1945
28671,1931
28672,1911
28673,1891
28674,1870
28675,1847
28676,1829
28677,1808
28678,1791
28679,1783
28680,1781
28681,1779
28682,1787
28683,1794
28684,1801
28685,1806
28686,1808
28687,1815
28688,1819
28689,1820
28690,1821
28691,1823
28692,1824
28693,1828
28694,1831
28695,1835
28696,1840
28697,1842
28698,1843
28699,1847
29100,1855
29101,1857
29102,1856
29103,1859
29104,1863
29105,1863
29106,1870
29107,1872
29108,1872
29109,1872
29110,1874
29111,1879
29112,1888
29113,1893
29114,1903
29115,1910
29116,1917
29117,1918
29118,1921
29119,1921
29120,1922
29121,1923
29122,1925
29123,1921
29124,1922
29125,1915
29126,1908
29127,1894
29128,1885
29129,1872
29130,1857
29131,1841
29132,1825
29133,1807
29134,1792
29135,1779
29136,1776
29137,1772
29138,1770
29139,1769
29140,1767
29141,1769
29142,1771
29143,1774
29144,1776
29145,1779
29146,1784
29147,1791
29148,1795
29149,1798
29150,1805
29151,1809
29152,1812
29153,1817
29154,1821
29155,1821
29156,1823
29157,1824
29158,1831
29159,1835
29160,1836
29161,1839
29162,1841
29163,1847
29164,1850
29165,1856
29166,1857
29167,1863
29168,1867
29169,1866
29170,1869
29171,1872
29172,1867
29173,1870
29174,1872
29175,1884
29176,1888
29177,1898
29178,1904
29179,1916
29180,1926
29181,1939
29182,1951
29183,1959
29184,1967
29185,1973
29186,1979
29187,1988
29188,1994
29189,2000
29190,2001
29191,2007
29192,2011
29193,2016
29194,2018
29195,2015
29196,2016
29197,2011
29198,2006
29199,2000
29600,1895
29601,1872
29602,1855
29603,1831
29604,1808
29605,1793
29606,1778
29607,1763
29608,1757
29609,1759
29610,1760
29611,1766
29612,1774
29613,1776
29614,1778
29615,1788
29616,1791
29617,1798
29618,1802
29619,1808
29620,1810
29621,1813
29622,1813
29623,1818
29624,1819
29625,1819
29626,1823
29627,1831
29628,1835
29629,1840
29630,1842
29631,1849
29632,1851
29633,1857
29634,1858
29635,1863
29636,1862
29637,1866
29638,1867
29639,1870
29640,1873
29641,1878
29642,1879
29643,1881
29644,1889
29645,1898
29646,1905
29647,1914
29648,1924
29649,1936
29650,1937
29651,1947
29652,1947
29653,1951
29654,1955
29655,1959
29656,1963
29657,1963
29658,1965
29659,1962
29660,1961
29661,1963
29662,1954
29663,1943
29664,1934
29665,1919
29666,1904
29667,1891
29668,1867
29669,1847
29670,1825
29671,1805
29672,1790
29673,1776
29674,1766
29675,1767
29676,1767
29677,1773
29678,1776
29679,1778
29680,1786
29681,1789
29682,1791
29683,1796
29684,1807
29685,1805
29686,1808
29687,1812
29688,1819
29689,1819
29690,1824
29691,1825
29692,1828
29693,1831
29694,1837
29695,1833
29696,1841
29697,1847
29698,1851
29699,1854
30100,1851
30101,1856
30102,1855
30103,1858
30104,1860
30105,1862
30106,1865
30107,1877
30108,1879
30109,1887
30110,1887
30111,1901
30112,1906
30113,1917
30114,1927
30115,1941
30116,1951
30117,1957
30118,1968
30119,1971
30120,1981
30121,1984
30122,1993
30123,1997
30124,2000
30125,2000
30126,2003
30127,2005
30128,2010
30129,2008
30130,2004
30131,1998
30132,1992
30133,1983
30134,1971
30135,1965
30136,1946
30137,1933
30138,1915
30139,1899
30140,1875
30141,1851
30142,1829
30143,1808
30144,1792
30145,1782
30146,1777
30147,1776
30148,1777
30149,1785
30150,1792
30151,1799
30152,1805
30153,1809
30154,1813
30155,1811
30156,1818
30157,1815
30158,1826
30159,1824
30160,1825
30161,1831
30162,1834
30163,1837
30164,1840
30165,1846
30166,1847
30167,1853
30168,1853
30169,1856
30170,1857
30171,1859
30172,1862
30173,1865
30174,1869
30175,1872
30176,1871
30177,1873
30178,1879
30179,1885
30180,1898
30181,1904
30182,1911
30183,1916
30184,1918
30185,1919
30186,1920
30187,1920
30188,1920
30189,1920
30190,1912
30191,1917
30192,1905
30193,1902
30194,1896
30195,1879
30196,1872
30197,1849
30198,1828
30199,1813
30700,1847
30701,1854
30702,1851
30703,1856
30704,1862
30705,1858
30706,1863
30707,1872
30708,1875
30709,1880
30710,1883
30711,1888
30712,1895
30713,1903
30714,1909
30715,1920
30716,1933
30717,1936
30718,1939
30719,1941
30720,1947
30721,1952
30722,1954
30723,1954
30724,1952
30725,1951
30726,1947
30727,1945
30728,1939
30729,1936
30730,1924
30731,1914
30732,1898
30733,1879
30734,1861
30735,1840
30736,1821
30737,1801
30738,1787
30739,1776
30740,1769
30741,1767
30742,1765
30743,1770
30744,1774
30745,1776
30746,1776
30747,1781
30748,1783
30749,1792
30750,1798
30751,1808
30752,1811
30753,1817
30754,1816
30755,1823
30756,1820
30757,1821
30758,1825
30759,1827
30760,1830
30761,1830
30762,1836
30763,1837
30764,1842
30765,1847
30766,1851
30767,1857
30768,1859
30769,1860
30770,1863
30771,1867
30772,1869
30773,1872
30774,1874
30775,1878
30776,1881
30777,1883
30778,1891
30779,1903
30780,1908
30781,1917
30782,1932
30783,1937
30784,1943
30785,1947
30786,1954
30787,1959
30788,1964
30789,1968
30790,1969
30791,1972
30792,1973
30793,1973
30794,1974
30795,1970
30796,1967
30797,1961
30798,1948
30799,1936
31200,1997
31201,1984
31202,1973
31203,1962
31204,1943
31205,1929
31206,1909
31207,1893
31208,1869
31209,1845
31210,1823
31211,1804
31212,1789
31213,1779
31214,1776
31215,1763
31216,1780
31217,1790
31218,1793
31219,1801
31220,1802
31221,1805
31222,1806
31223,1813
31224,1817
31225,1818
31226,1819
31227,1825
31228,1827
31229,1827
31230,1834
31231,1840
31232,1841
31233,1845
31234,1852
31235,1851
31236,1851
31237,1856
31238,1857
31239,1856
31240,1861
31241,1865
31242,1867
31243,1869
31244,1872
31245,1874
31246,1882
31247,1887
31248,1897
31249,1904
31250,1905
31251,1906
31252,1905
31253,1910
31254,1909
31255,1908
31256,1905
31257,1903
31258,1898
31259,1889
31260,1881
31261,1870
31262,1856
31263,1842
31264,1827
31265,1808
31266,1792
31267,1782
31268,1776
31269,1776
31270,1776
31271,1772
31272,1774
31273,1775
31274,1770
31275,1769
31276,1772
31277,1775
31278,1775
31279,1776
31280,1779
31281,1781
31282,1786
31283,1792
31284,1799
31285,1808
31286,1810
31287,1810
31288,1809
31289,1812
31290,1814
31291,1817
31292,1818
31293,1819
31294,1824
31295,1827
31296,1830
31297,1839
31298,1840
31299,1846
31700,1856
31701,1859
31702,1862
31703,1870
31704,1867
31705,1870
31706,1872
31707,1874
31708,1878
31709,1885
31710,1887
31711,1890
31712,1903
31713,1914
31714,1923
31715,1936
31716,1943
31717,1951
31718,1961
31719,1968
31720,1975
31721,1982
31722,1987
31723,1994
31724,2000
31725,2001
31726,2004
31727,2006
31728,2015
31729,2015
31730,2014
31731,2012
31732,2001
31733,1998
31734,1985
31735,1974
31736,1966
31737,1949
31738,1934
31739,1915
31740,1895
31741,1872
31742,1845
31743,1825
31744,1803
31745,1793
31746,1783
31747,1778
31748,1775
31749,1779
31750,1789
31751,1793
31752,1806
31753,1808
31754,1811
31755,1815
31756,1814
31757,1815
31758,1818
31759,1817
31760,1821
31761,1825
31762,1827
31763,1834
31764,1838
31765,1841
31766,1845
31767,1846
31768,1846
31769,1847
31770,1850
31771,1851
31772,1854
31773,1856
31774,1859
31775,1861
31776,1861
31777,1862
31778,1871
31779,1873
31780,1882
31781,1888
31782,1897
31783,1901
31784,1905
31785,1905
31786,1907
31787,1907
31788,1904
31789,1904
31790,1904
31791,1899
31792,1898
31793,1897
31794,1886
31795,1875
31796,1868
31797,1850
31798,1831
31799,1809
32200,1799
32201,1787
32202,1777
32203,1776
32204,1776
32205,1771
32206,1771
32207,1770
32208,1770
32209,1772
32210,1775
32211,1775
32212,1776
32213,1778
32214,1785
32215,1786
32216,1792
32217,1797
32218,1806
32219,1808
32220,1810
32221,1812
32222,1819
32223,1820
32224,1824
32225,1825
32226,1826
32227,1828
32228,1831
32229,1834
32230,1840
32231,1844
32232,1849
32233,1854
32234,1856
32235,1860
32236,1862
32237,1863
32238,1867
32239,1869
32240,1872
32241,1877
32242,1879
32243,1885
32244,1890
32245,1898
32246,1907
32247,1914
32248,1924
32249,1936
32250,1946
32251,1951
32252,1962
32253,1968
32254,1974
32255,1984
32256,1986
32257,1993
32258,1999
32259,2006
32260,2006
32261,2010
32262,2014
32263,2014
32264,2013
32265,2006
32266,1997
32267,2000
32268,1990
32269,1981
32270,1967
32271,1951
32272,1936
32273,1918
32274,1895
32275,1872
32276,1851
32277,1826
32278,1808
32279,1790
32280,1778
32281,1776
32282,1776
32283,1779
32284,1787
32285,1794
32286,1804
32287,1808
32288,1813
32289,1815
32290,1813
32291,1816
32292,1819
32293,1822
32294,1822
32295,1826
32296,1828
32297,1831
32298,1836
32299,1843
32700,1861
32701,1871
32702,1877
32703,1885
32704,1894
32705,1903
32706,1911
32707,1920
32708,1932
32709,1936
32710,1941
32711,1949
32712,1962
32713,1967
32714,1981
32715,1984
32716,1989
32717,1993
32718,1987
32719,1988
32720,1986
32721,1982
32722,1976
32723,1968
32724,1963
32725,1952
32726,1941
32727,1931
32728,1915
32729,1907
32730,1899
32731,1881
32732,1868
32733,1854
32734,1838
32735,1823
32736,1811
32737,1801
32738,1786
32739,1777
32740,1767
32741,1755
32742,1746
32743,1742
32744,1738
32745,1728
32746,1728
32747,1733
32748,1734
32749,1739
32750,1744
32751,1747
32752,1754
32753,1731
32754,1383
32755,1925
32756,1981
32757,1937
32758,1893
32759,1859
32760,1840
32761,1831
32762,1829
32763,1825
32764,1834
32765,1839
32766,1845
32767,1855
32768,1859
32769,1870
32770,1877
32771,1886
32772,1895
32773,1904
32774,1916
32775,1922
32776,1931
32777,1937
32778,1949
32779,1959
32780,1967
32781,1969
32782,1975
32783,1980
32784,1982
32785,1987
32786,1989
32787,1984
32788,1984
32789,1978
32790,1968
32791,1962
32792,1951
32793,1943
32794,1935
32795,1927
32796,1911
32797,1904
32798,1887
32799,1872
33200,1861
33201,1848
33202,1831
33203,1819
33204,1808
33205,1793
33206,1779
33207,1765
33208,1749
33209,1739
33210,1735
33211,1728
33212,1726
33213,1725
33214,1725
33215,1725
33216,1727
33217,1732
33218,1739
33219,1745
33220,1754
33221,1761
33222,1770
33223,1776
33224,1781
33225,1789
33226,1793
33227,1808
33228,1819
33229,1829
33230,1837
33231,1844
33232,1856
33233,1866
33234,1875
33235,1885
33236,1894
33237,1903
33238,1908
33239,1919
33240,1927
33241,1938
33242,1941
33243,1949
33244,1954
33245,1963
33246,1972
33247,1981
33248,1986
33249,1994
33250,1564
33251,2083
33252,2193
33253,2159
33254,2098
33255,2058
33256,2015
33257,1993
33258,1968
33259,1953
33260,1936
33261,1926
33262,1915
33263,1904
33264,1893
33265,1875
33266,1860
33267,1843
33268,1830
33269,1812
33270,1805
33271,1789
33272,1777
33273,1770
33274,1759
33275,1750
33276,1741
33277,1738
33278,1733
33279,1729
33280,1727
33281,1727
33282,1729
33283,1729
33284,1739
33285,1744
33286,1753
33287,1758
33288,1765
33289,1771
33290,1778
33291,1789
33292,1796
33293,1801
33294,1808
33295,1813
33296,1822
33297,1833
33298,1843
33299,1855
33800,1869
33801,1849
33802,1837
33803,1822
33804,1808
33805,1792
33806,1781
33807,1761
33808,1749
33809,1742
33810,1731
33811,1726
33812,1726
33813,1727
33814,1724
33815,1723
33816,1725
33817,1731
33818,1735
33819,1744
33820,1755
33821,1756
33822,1770
33823,1775
33824,1779
33825,1785
33826,1791
33827,1799
33828,1806
33829,1808
33830,1817
33831,1830
33832,1842
33833,1861
33834,1873
33835,1885
33836,1893
33837,1904
33838,1909
33839,1920
33840,1929
33841,1936
33842,1946
33843,1950
33844,1957
33845,1967
33846,1973
33847,1982
33848,1990
33849,1995
33850,2001
33851,2001
33852,2000
33853,1999
33854,1999
33855,1991
33856,1985
33857,1981
33858,1968
33859,1963
33860,1950
33861,1940
33862,1933
33863,1923
33864,1913
33865,1899
33866,1878
33867,1863
33868,1847
33869,1834
33870,1443
33871,1809
33872,2003
33873,1967
33874,1899
33875,1840
33876,1795
33877,1771
33878,1747
33879,1738
33880,1728
33881,1723
33882,1721
33883,1720
33884,1722
33885,1727
33886,1736
33887,1744
33888,1751
33889,1759
33890,1769
33891,1776
33892,1782
33893,1791
33894,1799
33895,1808
33896,1813
33897,1824
33898,1836
33899,1847
34300,1855
34301,1865
34302,1875
34303,1887
34304,1895
34305,1904
34306,1911
34307,1923
34308,1937
34309,1947
34310,1955
34311,1961
34312,1969
34313,1978
34314,1985
34315,1995
34316,2000
34317,2000
34318,2003
34319,2000
34320,1998
34321,1991
34322,1988
34323,1979
34324,1970
34325,1967
34326,1954
34327,1939
34328,1929
34329,1917
34330,1917
34331,1903
34332,1890
34333,1872
34334,1858
34335,1842
34336,1825
34337,1817
34338,1806
34339,1793
34340,1780
34341,1769
34342,1760
34343,1749
34344,1744
34345,1738
34346,1736
34347,1730
34348,1729
34349,1729
34350,1734
34351,1739
34352,1745
34353,1754
34354,1762
34355,1773
34356,1776
34357,1782
34358,1791
34359,1794
34360,1808
34361,1809
34362,1818
34363,1825
34364,1837
34365,1845
34366,1581
34367,1759
34368,2074
34369,2066
34370,2015
34371,1982
34372,1955
34373,1949
34374,1942
34375,1941
34376,1941
34377,1942
34378,1950
34379,1956
34380,1965
34381,1968
34382,1975
34383,1984
34384,1984
34385,1986
34386,1987
34387,1982
34388,1979
34389,1975
34390,1968
34391,1962
34392,1955
34393,1943
34394,1937
34395,1931
34396,1921
34397,1911
34398,1897
34399,1879
34800,1872
34801,1855
34802,1840
34803,1824
34804,1809
34805,1799
34806,1787
34807,1776
34808,1763
34809,1753
34810,1744
34811,1742
34812,1736
34813,1733
34814,1730
34815,1729
34816,1728
34817,1731
34818,1735
34819,1745
34820,1755
34821,1764
34822,1767
34823,1776
34824,1781
34825,1788
34826,1796
34827,1806
34828,1810
34829,1819
34830,1825
34831,1840
34832,1846
34833,1859
34834,1867
34835,1877
34836,1889
34837,1896
34838,1904
34839,1914
34840,1922
34841,1934
34842,1941
34843,1947
34844,1954
34845,1963
34846,1971
34847,1979
34848,1986
34849,2000
34850,2000
34851,1998
34852,1999
34853,2000
34854,1999
34855,1995
34856,1989
34857,1979
34858,1971
34859,1967
34860,1952
34861,1941
34862,1936
34863,1924
34864,1914
34865,1901
34866,1883
34867,1867
34868,1851
34869,1835
34870,1821
34871,1808
34872,1793
34873,1781
34874,1773
34875,1761
34876,1750
34877,1743
34878,1735
34879,1731
34880,1729
34881,1728
34882,1728
34883,1730
34884,1738
34885,1742
34886,1750
34887,1757
34888,1759
34889,1761
34890,1769
34891,1776
34892,1779
34893,1791
34894,1798
34895,1808
34896,1815
34897,1823
34898,1836
34899,1843
35300,1859
35301,1871
35302,1878
35303,1890
35304,1899
35305,1905
35306,1914
35307,1921
35308,1933
35309,1938
35310,1947
35311,1951
35312,1957
35313,1968
35314,1975
35315,1985
35316,1995
35317,2000
35318,2002
35319,2000
35320,1999
35321,1995
35322,1989
35323,1982
35324,1975
35325,1968
35326,1958
35327,1947
35328,1936
35329,1931
35330,1921
35331,1908
35332,1895
35333,1876
35334,1863
35335,1846
35336,1834
35337,1818
35338,1805
35339,1791
35340,1777
35341,1767
35342,1760
35343,1745
35344,1743
35345,1739
35346,1738
35347,1732
35348,1732
35349,1730
35350,1734
35351,1738
35352,1744
35353,1747
35354,1759
35355,1769
35356,1774
35357,1778
35358,1787
35359,1795
35360,1803
35361,1808
35362,1814
35363,1823
35364,1831
35365,1843
35366,1853
35367,1856
35368,1866
35369,1872
35370,1879
35371,1886
35372,1897
35373,1909
35374,1917
35375,1926
35376,1935
35377,1939
35378,1946
35379,1954
35380,1965
35381,1971
35382,1983
35383,1993
35384,1998
35385,2000
35386,1997
35387,1994
35388,1985
35389,1982
35390,1975
35391,1968
35392,1963
35393,1963
35394,1954
35395,1949
35396,1936
35397,1926
35398,1911
35399,1896
35800,1875
35801,1859
35802,1844
35803,1831
35804,1817
35805,1802
35806,1789
35807,1777
35808,1770
35809,1757
35810,1744
35811,1744
35812,1737
35813,1733
35814,1727
35815,1727
35816,1728
35817,1731
35818,1733
35819,1743
35820,1746
35821,1759
35822,1766
35823,1775
35824,1779
35825,1783
35826,1791
35827,1799
35828,1808
35829,1813
35830,1823
35831,1834
35832,1840
35833,1855
35834,1863
35835,1872
35836,1886
35837,1893
35838,1903
35839,1913
35840,1922
35841,1931
35842,1940
35843,1948
35844,1953
35845,1959
35846,1969
35847,1970
35848,1978
35849,1986
35850,1993
35851,1999
35852,1995
35853,1995
35854,1987
35855,1983
35856,1977
35857,1971
35858,1967
35859,1957
35860,1946
35861,1938
35862,1931
35863,1922
35864,1914
35865,1902
35866,1884
35867,1871
35868,1857
35869,1842
35870,1831
35871,1815
35872,1802
35873,1790
35874,1777
35875,1765
35876,1754
35877,1744
35878,1740
35879,1733
35880,1729
35881,1728
35882,1731
35883,1730
35884,1733
35885,1737
35886,1744
35887,1749
35888,1760
35889,1769
35890,1771
35891,1774
35892,1780
35893,1795
35894,1803
35895,1809
35896,1821
35897,1829
35898,1840
35899,1849
36400,1882
36401,1867
36402,1851
36403,1837
36404,1819
36405,1803
36406,1785
36407,1766
36408,1766
36409,1758
36410,1746
36411,1741
36412,1738
36413,1732
36414,1727
36415,1729
36416,1728
36417,1730
36418,1734
36419,1742
36420,1747
36421,1755
36422,1763
36423,1772
36424,1776
36425,1780
36426,1791
36427,1798
36428,1807
36429,1812
36430,1822
36431,1833
36432,1840
36433,1851
36434,1861
36435,1872
36436,1883
36437,1890
36438,1899
36439,1909
36440,1920
36441,1927
36442,1937
36443,1947
36444,1953
36445,1959
36446,1968
36447,1973
36448,1979
36449,1986
36450,1990
36451,1998
36452,1999
36453,1997
36454,1995
36455,1989
36456,1982
36457,1977
36458,1968
36459,1965
36460,1954
36461,1940
36462,1936
36463,1931
36464,1919
36465,1904
36466,1884
36467,1871
36468,1850
36469,1839
36470,1821
36471,1809
36472,1794
36473,1792
36474,1783
36475,1774
36476,1763
36477,1750
36478,1744
36479,1742
36480,1734
36481,1734
36482,1731
36483,1728
36484,1733
36485,1735
36486,1744
36487,1751
36488,1761
36489,1765
36490,1775
36491,1776
36492,1786
36493,1789
36494,1803
36495,1808
36496,1813
36497,1824
36498,1834
36499,1841
36900,1857
36901,1868
36902,1874
36903,1887
36904,1893
36905,1904
36906,1915
36907,1921
36908,1931
36909,1939
36910,1953
36911,1955
36912,1959
36913,1968
36914,1980
36915,1989
36916,1997
36917,2004
36918,2010
36919,2005
36920,2002
36921,2001
36922,1998
36923,1991
36924,1979
36925,1977
36926,1968
36927,1955
36928,1942
36929,1929
36930,1919
36931,1906
36932,1890
36933,1875
36934,1859
36935,1846
36936,1831
36937,1815
36938,1803
36939,1790
36940,1777
36941,1770
36942,1755
36943,1744
36944,1739
36945,1730
36946,1726
36947,1721
36948,1719
36949,1721
36950,1719
36951,1721
36952,1733
36953,1746
36954,1756
36955,1766
36956,1776
36957,1779
36958,1787
36959,1794
36960,1799
36961,1808
36962,1815
36963,1819
36964,1831
36965,1840
36966,1852
36967,1862
36968,1872
36969,1881
36970,1889
36971,1900
36972,1905
36973,1918
36974,1922
36975,1933
36976,1939
36977,1948
36978,1957
36979,1964
36980,1970
36981,1982
36982,1989
36983,1998
36984,2003
36985,2010
36986,2005
36987,2003
36988,2000
36989,1990
36990,1985
36991,1980
36992,1975
36993,1965
36994,1953
36995,1942
36996,1936
36997,1920
36998,1909
36999,1898
37400,1888
37401,1871
37402,1854
37403,1839
37404,1821
37405,1808
37406,1794
37407,1778
37408,1762
37409,1746
37410,1739
37411,1728
37412,1726
37413,1717
37414,1716
37415,1714
37416,1716
37417,1714
37418,1722
37419,1728
37420,1734
37421,1744
37422,1747
37423,1761
37424,1770
37425,1775
37426,1781
37427,1795
37428,1805
37429,1810
37430,1825
37431,1834
37432,1844
37433,1851
37434,1863
37435,1873
37436,1879
37437,1895
37438,1903
37439,1909
37440,1918
37441,1931
37442,1938
37443,1936
37444,1941
37445,1955
37446,1968
37447,1975
37448,1984
37449,1991
37450,2001
37451,2011
37452,2014
37453,2013
37454,2010
37455,2003
37456,2000
37457,1991
37458,1984
37459,1975
37460,1967
37461,1957
37462,1946
37463,1936
37464,1923
37465,1910
37466,1894
37467,1878
37468,1859
37469,1846
37470,1831
37471,1813
37472,1805
37473,1790
37474,1776
37475,1767
37476,1755
37477,1744
37478,1738
37479,1730
37480,1729
37481,1728
37482,1726
37483,1725
37484,1727
37485,1731
37486,1738
37487,1744
37488,1747
37489,1761
37490,1769
37491,1775
37492,1777
37493,1786
37494,1794
37495,1803
37496,1809
37497,1821
37498,1829
37499,1840
37900,1843
37901,1856
37902,1866
37903,1875
37904,1888
37905,1893
37906,1904
37907,1919
37908,1933
37909,1942
37910,1956
37911,1959
37912,1967
37913,1973
37914,1981
37915,1994
37916,2000
37917,2005
37918,2011
37919,2013
37920,2007
37921,2006
37922,2001
37923,1995
37924,1991
37925,1982
37926,1974
37927,1966
37928,1952
37929,1943
37930,1936
37931,1920
37932,1910
37933,1893
37934,1877
37935,1859
37936,1842
37937,1830
37938,1813
37939,1803
37940,1789
37941,1776
37942,1763
37943,1749
37944,1744
37945,1737
37946,1729
37947,1725
37948,1723
37949,1725
37950,1725
37951,1727
37952,1731
37953,1735
37954,1741
37955,1751
37956,1765
37957,1776
37958,1783
37959,1790
37960,1798
37961,1805
37962,1811
37963,1821
37964,1823
37965,1834
37966,1845
37967,1856
37968,1868
37969,1879
37970,1887
37971,1898
37972,1904
37973,1915
37974,1923
37975,1933
37976,1940
37977,1951
37978,1955
37979,1960
37980,1968
37981,1979
37982,1986
37983,1994
37984,2001
37985,2007
37986,2009
37987,2007
37988,2002
37989,2000
37990,1991
37991,1988
37992,1978
37993,1971
37994,1961
37995,1954
37996,1938
37997,1931
37998,1919
37999,1906
38400,1891
38401,1872
38402,1856
38403,1840
38404,1824
38405,1810
38406,1795
38407,1783
38408,1775
38409,1760
38410,1745
38411,1741
38412,1730
38413,1728
38414,1723
38415,1719
38416,1718
38417,1722
38418,1723
38419,1727
38420,1737
38421,1744
38422,1757
38423,1759
38424,1770
38425,1775
38426,1783
38427,1789
38428,1798
38429,1807
38430,1815
38431,1822
38432,1834
38433,1845
38434,1855
38435,1869
38436,1872
38437,1886
38438,1893
38439,1907
38440,1914
38441,1927
38442,1936
38443,1941
38444,1951
38445,1957
38446,1966
38447,1972
38448,1984
38449,1995
38450,2002
38451,2007
38452,2018
38453,2014
38454,2013
38455,2010
38456,2001
38457,1996
38458,1988
38459,1981
38460,1972
38461,1965
38462,1950
38463,1937
38464,1927
38465,1918
38466,1904
38467,1887
38468,1871
38469,1856
38470,1838
38471,1823
38472,1808
38473,1793
38474,1781
38475,1754
38476,1757
38477,1744
38478,1735
38479,1730
38480,1723
38481,1713
38482,1708
38483,1712
38484,1711
38485,1715
38486,1723
38487,1731
38488,1737
38489,1746
38490,1755
38491,1763
38492,1774
38493,1777
38494,1787
38495,1795
38496,1806
38497,1811
38498,1822
38499,1833
38900,1842
38901,1855
38902,1866
38903,1878
38904,1889
38905,1895
38906,1905
38907,1916
38908,1923
38909,1933
38910,1941
38911,1951
38912,1959
38913,1965
38914,1972
38915,1983
38916,1993
38917,2002
38918,2009
38919,2013
38920,2009
38921,2007
38922,2000
38923,2000
38924,1991
38925,1985
38926,1979
38927,1968
38928,1959
38929,1950
38930,1939
38931,1927
38932,1913
38933,1902
38934,1883
38935,1867
38936,1850
38937,1834
38938,1818
38939,1806
38940,1790
38941,1776
38942,1765
38943,1750
38944,1744
38945,1735
38946,1730
38947,1727
38948,1726
38949,1725
38950,1725
38951,1727
38952,1728
38953,1735
38954,1744
38955,1362
38956,1767
38957,1984
38958,1962
38959,1914
38960,1873
38961,1849
38962,1834
38963,1825
38964,1825
38965,1826
38966,1834
38967,1834
38968,1840
38969,1847
38970,1854
38971,1859
38972,1870
38973,1879
38974,1898
38975,1904
38976,1916
38977,1928
38978,1936
38979,1941
38980,1951
38981,1962
38982,1977
38983,1985
38984,1994
38985,1998
38986,1997
38987,2006
38988,2005
38989,2000
38990,1997
38991,1991
38992,1983
38993,1968
38994,1956
38995,1951
38996,1941
38997,1936
38998,1923
38999,1909
39400,1898
39401,1877
39402,1862
39403,1844
39404,1828
39405,1814
39406,1799
39407,1786
39408,1774
39409,1764
39410,1748
39411,1738
39412,1730
39413,1725
39414,1721
39415,1718
39416,1719
39417,1716
39418,1719
39419,1726
39420,1731
39421,1741
39422,1751
39423,1760
39424,1767
39425,1775
39426,1779
39427,1791
39428,1798
39429,1806
39430,1811
39431,1822
39432,1834
39433,1841
39434,1853
39435,1867
39436,1874
39437,1885
39438,1894
39439,1904
39440,1919
39441,1926
39442,1934
39443,1945
39444,1952
39445,1961
39446,1968
39447,1973
39448,1979
39449,1984
39450,1989
39451,1734
39452,1837
39453,2177
39454,2203
39455,2151
39456,2096
39457,2057
39458,2018
39459,1991
39460,1972
39461,1956
39462,1938
39463,1927
39464,1918
39465,1901
39466,1899
39467,1879
39468,1866
39469,1844
39470,1833
39471,1813
39472,1803
39473,1788
39474,1777
39475,1763
39476,1749
39477,1739
39478,1731
39479,1725
39480,1723
39481,1714
39482,1715
39483,1713
39484,1713
39485,1718
39486,1725
39487,1730
39488,1741
39489,1746
39490,1759
39491,1763
39492,1775
39493,1778
39494,1789
39495,1797
39496,1808
39497,1813
39498,1823
39499,1831
40000,1904
40001,1886
40002,1872
40003,1853
40004,1835
40005,1819
40006,1806
40007,1791
40008,1776
40009,1766
40010,1749
40011,1744
40012,1732
40013,1728
40014,1723
40015,1718
40016,1718
40017,1717
40018,1711
40019,1713
40020,1724
40021,1735
40022,1744
40023,1754
40024,1761
40025,1771
40026,1777
40027,1783
40028,1794
40029,1803
40030,1809
40031,1817
40032,1825
40033,1838
40034,1850
40035,1858
40036,1871
40037,1879
40038,1889
40039,1904
40040,1909
40041,1921
40042,1931
40043,1937
40044,1949
40045,1959
40046,1968
40047,1973
40048,1974
40049,1983
40050,1990
40051,1999
40052,2002
40053,2009
40054,2003
40055,2002
40056,2000
40057,1994
40058,1986
40059,1981
40060,1969
40061,1963
40062,1951
40063,1941
40064,1935
40065,1920
40066,1905
40067,1889
40068,1872
40069,1856
40070,1839
40071,1773
40072,1462
40073,1961
40074,1995
40075,1935
40076,1871
40077,1814
40078,1779
40079,1753
40080,1734
40081,1727
40082,1717
40083,1712
40084,1709
40085,1712
40086,1713
40087,1718
40088,1727
40089,1734
40090,1743
40091,1751
40092,1759
40093,1770
40094,1777
40095,1790
40096,1793
40097,1802
40098,1809
40099,1823
40500,1840
40501,1853
40502,1860
40503,1872
40504,1881
40505,1892
40506,1904
40507,1915
40508,1921
40509,1931
40510,1940
40511,1950
40512,1954
40513,1963
40514,1970
40515,1984
40516,1994
40517,2000
40518,2005
40519,2014
40520,2015
40521,2013
40522,2011
40523,2001
40524,1994
40525,1989
40526,1981
40527,1980
40528,1946
40529,1938
40530,1934
40531,1922
40532,1911
40533,1898
40534,1878
40535,1863
40536,1847
40537,1831
40538,1814
40539,1808
40540,1788
40541,1776
40542,1765
40543,1754
40544,1742
40545,1728
40546,1722
40547,1715
40548,1712
40549,1711
40550,1712
40551,1709
40552,1712
40553,1729
40554,1742
40555,1746
40556,1759
40557,1768
40558,1776
40559,1777
40560,1787
40561,1793
40562,1803
40563,1809
40564,1817
40565,1829
40566,1839
40567,1845
40568,1418
40569,1961
40570,2080
40571,2052
40572,2006
40573,1972
40574,1955
40575,1945
40576,1942
40577,1942
40578,1949
40579,1952
40580,1955
40581,1968
40582,1973
40583,1984
40584,1991
40585,1997
40586,2000
40587,2000
40588,1998
40589,1999
40590,1992
40591,1986
40592,1981
40593,1974
40594,1965
40595,1954
40596,1942
40597,1936
40598,1922
40599,1915
41000,1907
41001,1888
41002,1872
41003,1857
41004,1840
41005,1822
41006,1808
41007,1792
41008,1771
41009,1755
41010,1744
41011,1732
41012,1726
41013,1719
41014,1713
41015,1711
41016,1710
41017,1710
41018,1712
41019,1712
41020,1717
41021,1727
41022,1739
41023,1744
41024,1755
41025,1761
41026,1776
41027,1787
41028,1792
41029,1803
41030,1808
41031,1821
41032,1829
41033,1839
41034,1850
41035,1857
41036,1872
41037,1875
41038,1890
41039,1897
41040,1907
41041,1920
41042,1930
41043,1932
41044,1936
41045,1949
41046,1961
41047,1968
41048,1979
41049,1990
41050,1998
41051,2007
41052,2015
41053,2018
41054,2019
41055,2015
41056,2010
41057,2002
41058,2000
41059,1993
41060,1983
41061,1978
41062,1965
41063,1951
41064,1563
41065,1902
41066,2112
41067,2082
41068,2009
41069,1949
41070,1900
41071,1861
41072,1829
41073,1808
41074,1783
41075,1767
41076,1751
41077,1739
41078,1727
41079,1715
41080,1712
41081,1707
41082,1703
41083,1702
41084,1702
41085,1705
41086,1711
41087,1718
41088,1726
41089,1737
41090,1744
41091,1755
41092,1763
41093,1775
41094,1777
41095,1791
41096,1798
41097,1807
41098,1811
41099,1823
41500,1833
41501,1841
41502,1853
41503,1865
41504,1872
41505,1885
41506,1902
41507,1914
41508,1925
41509,1935
41510,1941
41511,1955
41512,1963
41513,1968
41514,1970
41515,1982
41516,1993
41517,1999
41518,2004
41519,2015
41520,2017
41521,2016
41522,2011
41523,2007
41524,2000
41525,1998
41526,1985
41527,1978
41528,1968
41529,1957
41530,1947
41531,1938
41532,1927
41533,1920
41534,1903
41535,1883
41536,1867
41537,1847
41538,1834
41539,1819
41540,1802
41541,1785
41542,1776
41543,1761
41544,1744
41545,1739
41546,1733
41547,1728
41548,1723
41549,1717
41550,1718
41551,1717
41552,1719
41553,1725
41554,1730
41555,1741
41556,1745
41557,1759
41558,1766
41559,1762
41560,1775
41561,1781
41562,1792
41563,1803
41564,1809
41565,1822
41566,1829
41567,1840
41568,1853
41569,1863
41570,1872
41571,1885
41572,1892
41573,1904
41574,1909
41575,1922
41576,1932
41577,1941
41578,1953
41579,1957
41580,1966
41581,1971
41582,1984
41583,1994
41584,2001
41585,2007
41586,2014
41587,2018
41588,2015
41589,2010
41590,2004
41591,1999
41592,1994
41593,1984
41594,1977
41595,1968
41596,1958
41597,1945
41598,1936
41599,1925
42000,1911
42001,1897
42002,1875
42003,1860
42004,1843
42005,1827
42006,1814
42007,1799
42008,1783
42009,1774
42010,1757
42011,1744
42012,1738
42013,1728
42014,1721
42015,1719
42016,1715
42017,1712
42018,1713
42019,1715
42020,1723
42021,1730
42022,1740
42023,1745
42024,1756
42025,1764
42026,1770
42027,1781
42028,1787
42029,1795
42030,1805
42031,1808
42032,1818
42033,1829
42034,1840
42035,1852
42036,1865
42037,1873
42038,1884
42039,1892
42040,1904
42041,1913
42042,1925
42043,1936
42044,1946
42045,1952
42046,1965
42047,1968
42048,1974
42049,1986
42050,1998
42051,2007
42052,2017
42053,2022
42054,2022
42055,2019
42056,2014
42057,2009
42058,2000
42059,1998
42060,1986
42061,1973
42062,1968
42063,1954
42064,1940
42065,1936
42066,1920
42067,1906
42068,1891
42069,1872
42070,1856
42071,1839
42072,1822
42073,1808
42074,1794
42075,1778
42076,1767
42077,1754
42078,1743
42079,1734
42080,1729
42081,1723
42082,1717
42083,1712
42084,1703
42085,1707
42086,1705
42087,1712
42088,1719
42089,1731
42090,1742
42091,1747
42092,1755
42093,1766
42094,1775
42095,1782
42096,1793
42097,1803
42098,1809
42099,1813
42500,1827
42501,1845
42502,1854
42503,1869
42504,1873
42505,1887
42506,1898
42507,1905
42508,1918
42509,1926
42510,1936
42511,1948
42512,1952
42513,1961
42514,1968
42515,1977
42516,1986
42517,1998
42518,2001
42519,2013
42520,2019
42521,2018
42522,2013
42523,2013
42524,2003
42525,2000
42526,1991
42527,1983
42528,1973
42529,1967
42530,1955
42531,1943
42532,1933
42533,1921
42534,1905
42535,1889
42536,1872
42537,1856
42538,1838
42539,1819
42540,1807
42541,1792
42542,1776
42543,1764
42544,1751
42545,1744
42546,1732
42547,1728
42548,1724
42549,1719
42550,1717
42551,1720
42552,1719
42553,1722
42554,1727
42555,1733
42556,1744
42557,1753
42558,1761
42559,1769
42560,1776
42561,1785
42562,1793
42563,1801
42564,1808
42565,1816
42566,1828
42567,1838
42568,1839
42569,1850
42570,1858
42571,1869
42572,1878
42573,1889
42574,1902
42575,1911
42576,1921
42577,1933
42578,1938
42579,1949
42580,1957
42581,1966
42582,1971
42583,1985
42584,1995
42585,2010
42586,2021
42587,2025
42588,2024
42589,2020
42590,2017
42591,2009
42592,2001
42593,1996
42594,1984
42595,1974
42596,1966
42597,1953
42598,1935
42599,1919
43100,1834
43101,1840
43102,1853
43103,1865
43104,1875
43105,1886
43106,1896
43107,1904
43108,1920
43109,1927
43110,1937
43111,1950
43112,1962
43113,1958
43114,1957
43115,1967
43116,1985
43117,1995
43118,2005
43119,2014
43120,2018
43121,2019
43122,2017
43123,2015
43124,2007
43125,2002
43126,1996
43127,1987
43128,1977
43129,1968
43130,1958
43131,1945
43132,1935
43133,1919
43134,1907
43135,1889
43136,1872
43137,1853
43138,1839
43139,1819
43140,1805
43141,1792
43142,1777
43143,1765
43144,1753
43145,1740
43146,1733
43147,1727
43148,1721
43149,1713
43150,1712
43151,1713
43152,1713
43153,1717
43154,1721
43155,1731
43156,1741
43157,1749
43158,1761
43159,1770
43160,1774
43161,1781
43162,1790
43163,1799
43164,1807
43165,1816
43166,1825
43167,1835
43168,1840
43169,1849
43170,1856
43171,1863
43172,1875
43173,1885
43174,1903
43175,1909
43176,1920
43177,1930
43178,1939
43179,1951
43180,1958
43181,1965
43182,1972
43183,1983
43184,1991
43185,2000
43186,2003
43187,2009
43188,2010
43189,2007
43190,2001
43191,1998
43192,1999
43193,1998
43194,1989
43195,1978
43196,1969
43197,1958
43198,1946
43199,1936
43600,1921
43601,1904
43602,1890
43603,1872
43604,1856
43605,1839
43606,1822
43607,1808
43608,1792
43609,1779
43610,1767
43611,1751
43612,1740
43613,1730
43614,1725
43615,1718
43616,1715
43617,1713
43618,1712
43619,1714
43620,1717
43621,1723
43622,1731
43623,1743
43624,1751
43625,1761
43626,1768
43627,1775
43628,1779
43629,1791
43630,1798
43631,1808
43632,1815
43633,1823
43634,1831
43635,1840
43636,1844
43637,1855
43638,1865
43639,1873
43640,1888
43641,1902
43642,1907
43643,1920
43644,1931
43645,1941
43646,1952
43647,1959
43648,1968
43649,1972
43650,1985
43651,1994
43652,2001
43653,2012
43654,2015
43655,2015
43656,2012
43657,2006
43658,2000
43659,1995
43660,1985
43661,1978
43662,1968
43663,1959
43664,1949
43665,1936
43666,1925
43667,1909
43668,1897
43669,1874
43670,1859
43671,1841
43672,1828
43673,1821
43674,1808
43675,1794
43676,1781
43677,1769
43678,1755
43679,1744
43680,1735
43681,1727
43682,1723
43683,1715
43684,1715
43685,1715
43686,1714
43687,1718
43688,1728
43689,1734
43690,1744
43691,1751
43692,1759
43693,1766
43694,1776
43695,1780
43696,1791
43697,1798
43698,1808
43699,1815
44100,1825
44101,1839
44102,1851
44103,1861
44104,1871
44105,1881
44106,1895
44107,1905
44108,1917
44109,1927
44110,1936
44111,1945
44112,1954
44113,1963
44114,1968
44115,1973
44116,1984
44117,1995
44118,2001
44119,2012
44120,2019
44121,2022
44122,2019
44123,2017
44124,2014
44125,2002
44126,2000
44127,1989
44128,1970
44129,1961
44130,1945
44131,1936
44132,1929
44133,1918
44134,1904
44135,1887
44136,1871
44137,1855
44138,1837
44139,1819
44140,1806
44141,1790
44142,1775
44143,1761
44144,1751
44145,1738
44146,1729
44147,1724
44148,1726
44149,1727
44150,1725
44151,1719
44152,1719
44153,1721
44154,1725
44155,1733
44156,1742
44157,1749
44158,1760
44159,1766
44160,1776
44161,1781
44162,1790
44163,1798
44164,1808
44165,1812
44166,1822
44167,1834
44168,1840
44169,1854
44170,1865
44171,1872
44172,1887
44173,1893
44174,1906
44175,1917
44176,1927
44177,1935
44178,1943
44179,1955
44180,1965
44181,1968
44182,1975
44183,1990
44184,1999
44185,2005
44186,2015
44187,2021
44188,2021
44189,2019
44190,2018
44191,2009
44192,2000
44193,1999
44194,1990
44195,1978
44196,1968
44197,1957
44198,1946
44199,1936
44600,1929
44601,1917
44602,1899
44603,1879
44604,1858
44605,1841
44606,1827
44607,1808
44608,1787
44609,1770
44610,1755
44611,1745
44612,1735
44613,1726
44614,1712
44615,1712
44616,1707
44617,1703
44618,1703
44619,1705
44620,1710
44621,1712
44622,1716
44623,1729
44624,1741
44625,1744
44626,1762
44627,1776
44628,1779
44629,1791
44630,1798
44631,1808
44632,1812
44633,1825
44634,1831
44635,1840
44636,1856
44637,1867
44638,1874
44639,1887
44640,1898
44641,1909
44642,1919
44643,1930
44644,1936
44645,1946
44646,1959
44647,1966
44648,1969
44649,1979
44650,1989
44651,2000
44652,2010
44653,2017
44654,2027
44655,2023
44656,2023
44657,2018
44658,2011
44659,2003
44660,1995
44661,1979
44662,1968
44663,1968
44664,1953
44665,1943
44666,1936
44667,1925
44668,1909
44669,1892
44670,1871
44671,1854
44672,1834
44673,1819
44674,1806
44675,1789
44676,1776
44677,1762
44678,1754
44679,1739
44680,1729
44681,1723
44682,1718
44683,1712
44684,1711
44685,1711
44686,1712
44687,1713
44688,1719
44689,1728
44690,1735
44691,1745
44692,1758
44693,1762
44694,1770
44695,1777
44696,1786
44697,1801
44698,1807
44699,1813
45100,1815
45101,1823
45102,1836
45103,1851
45104,1859
45105,1871
45106,1894
45107,1904
