Time(ms),Raw_ADC
0,2403
1,2432
2,2429
3,2305
4,2155
5,2046
6,1954
7,1806
8,1623
9,1461
10,1343
11,1293
12,1253
13,1346
14,1472
15,1598
16,1703
17,1760
18,1825
19,1883
20,1904
21,1949
22,1953
23,1971
24,1491
25,1757
26,1941
27,1997
28,2057
29,2163
30,2306
31,2411
32,2443
33,2381
34,2244
35,2095
36,1990
37,1883
38,1737
39,1562
40,1408
41,1290
42,1232
43,1225
44,1366
45,1535
46,1686
47,1785
48,1858
49,1893
50,1910
51,1933
52,1937
53,1952
54,1963
55,2001
56,1744
57,1936
58,1985
59,2038
60,2153
61,2314
62,2432
63,2441
64,2352
65,2208
66,2081
67,1987
68,1873
69,1712
70,1535
71,1393
72,1277
73,1201
74,1238
75,1403
76,1558
77,1690
78,1795
79,1866
80,1893
81,1915
82,1938
83,1941
84,1957
85,1959
86,2114
87,1750
88,1950
89,2009
90,2071
91,2192
92,2363
93,2455
94,2430
95,2311
96,2147
97,2032
98,1958
99,1831
100,1651
101,1455
102,1319
103,1225
104,1177
105,1279
106,1453
107,1606
108,1744
109,1835
110,1874
111,1905
112,1927
113,1936
114,1951
115,1957
116,1962
117,2282
118,1739
119,1921
120,1984
121,2047
122,2175
123,2362
124,2466
125,2421
126,2294
127,2160
128,2068
129,1971
130,1839
131,1648
132,1459
133,1318
134,1200
135,1153
136,1278
137,1455
138,1605
139,1739
140,1830
141,1871
142,1908
143,1922
144,1940
145,1953
146,1951
147,1955
148,1949
149,1783
150,1904
151,1964
152,2021
153,2151
154,2337
155,2441
156,2398
157,2302
158,2187
159,2077
160,1987
161,1877
162,1687
163,1484
164,1315
165,1202
166,1171
167,1286
168,1434
169,1601
170,1730
171,1817
172,1857
173,1899
174,1911
175,1934
176,1936
177,1959
178,1966
179,1789
180,1879
181,1873
182,1930
183,1982
184,2096
185,2278
186,2397
187,2368
188,2298
189,2207
190,2112
191,2034
192,1910
193,1731
194,1529
195,1335
196,1168
197,1143
198,1277
199,1431
200,1589
201,1717
202,1804
203,1854
204,1890
205,1914
206,1936
207,1955
208,1951
209,1946
210,1947
211,1999
212,1862
213,1905
214,1944
215,2059
216,2240
217,2368
218,2350
219,2310
220,2224
221,2151
222,2064
223,1941
224,1763
225,1535
226,1331
227,1162
228,1154
229,1276
230,1424
231,1588
232,1728
233,1801
234,1846
235,1897
236,1920
237,1936
238,1951
239,1954
240,1957
241,1955
242,2179
243,1845
244,1906
245,1942
246,2031
247,2214
248,2366
249,2363
250,2304
251,2213
252,2129
253,2041
254,1924
255,1728
256,1503
257,1303
258,1131
259,1153
260,1296
261,1456
262,1616
263,1725
264,1799
265,1856
266,1897
267,1918
268,1939
269,1952
270,1966
271,1966
272,1963
273,2314
274,1864
275,1899
276,1942
277,2033
278,2209
279,2358
280,2355
281,2302
282,2230
283,2148
284,2070
285,1939
286,1731
287,1503
288,1264
289,1116
290,1172
291,1303
292,1470
293,1629
294,1735
295,1801
296,1843
297,1892
298,1929
299,1952
300,1955
301,1963
302,1954
303,1955
304,2274
305,1869
306,1901
307,1938
308,2021
309,2192
310,2366
311,2374
312,2299
313,2218
314,2160
315,2082
316,1930
317,1714
318,1466
319,1213
320,1077
321,1168
322,1322
323,1488
324,1648
325,1749
326,1808
327,1870
328,1904
329,1921
330,1949
331,1963
332,1961
333,1961
334,1963
335,2032
336,1868
337,1905
338,1951
339,2032
340,2202
341,2374
342,2393
343,2311
344,2224
345,2160
346,2077
347,1920
348,1696
349,1440
350,1182
351,1056
352,1149
353,1323
354,1517
355,1671
356,1767
357,1824
358,1873
359,1918
360,1936
361,1955
362,1959
363,1952
364,1963
365,1977
366,1789
367,1881
368,1893
369,1946
370,2019
371,2181
372,2362
373,2406
374,2327
375,2235
376,2173
377,2084
378,1919
379,1677
380,1405
381,1131
382,1038
383,1168
384,1362
385,1535
386,1677
387,1776
388,1830
389,1887
390,1919
391,1942
392,1955
393,1957
394,1963
395,1961
396,1957
397,1831
398,1930
399,1883
400,1952
401,2015
402,2160
403,2364
404,2439
405,2355
406,2238
407,2176
408,2096
409,1921
410,1678
411,1392
412,1104
413,1041
414,1189
415,1373
416,1557
417,1680
418,1773
419,1835
420,1879
421,1925
422,1951
423,1967
424,1966
425,1958
426,1950
427,1956
428,1942
429,1939
430,1879
431,1949
432,2019
433,2162
434,2358
435,2435
436,2353
437,2260
438,2216
439,2115
440,1937
441,1668
442,1360
443,1055
444,991
445,1155
446,1360
447,1535
448,1685
449,1787
450,1841
451,1886
452,1920
453,1949
454,1977
455,1973
456,1963
457,1959
458,1953
459,1938
460,2047
461,1837
462,1942
463,2000
464,2128
465,2326
466,2447
467,2382
468,2262
469,2218
470,2143
471,1970
472,1702
473,1395
474,1077
475,973
476,1111
477,1322
478,1513
479,1664
480,1771
481,1839
482,1899
483,1921
484,1949
485,1962
486,1968
487,2001
488,1968
489,1958
490,1949
491,2144
492,1808
493,1932
494,2006
495,2118
496,2311
497,2442
498,2387
499,2295
500,2241
501,2161
502,1983
503,1725
504,1424
505,1097
506,974
507,1104
508,1298
509,1488
510,1644
511,1760
512,1857
513,1890
514,1920
515,1941
516,1959
517,1961
518,1963
519,1965
520,1968
521,1959
522,2198
523,1815
524,1927
525,1987
526,2112
527,2300
528,2450
529,2415
530,2311
531,2263
532,2200
533,2019
534,1749
535,1438
536,1091
537,975
538,1104
539,1311
540,1482
541,1627
542,1735
543,1813
544,1875
545,1914
546,1936
547,1958
548,1968
549,1981
550,1965
551,1959
552,1951
553,2141
554,1807
555,1921
556,1993
557,2092
558,2265
559,2434
560,2431
561,2351
562,2284
563,2209
564,2033
565,1797
566,1471
567,1104
568,928
569,1073
570,1271
571,1487
572,1631
573,1730
574,1807
575,1865
576,1905
577,1942
578,1975
579,1963
580,1966
581,1973
582,1967
583,1955
584,1941
585,1940
586,1955
587,1933
588,1917
589,1909
590,1905
591,1895
592,1886
593,1883
594,1887
595,1875
596,1863
597,1860
598,1869
599,1875
600,1872
601,1863
602,1861
603,1867
604,1871
605,1862
606,1872
607,1865
608,1856
609,1849
610,1855
611,1861
612,1867
613,1856
614,1861
615,1865
616,1866
617,1859
618,1858
619,1861
620,1865
621,1862
622,1855
623,1862
624,1847
625,1843
626,1847
627,1847
628,1856
629,1846
630,1859
631,1856
632,1857
633,1859
634,1856
635,1856
636,1858
637,1865
638,1856
639,1856
640,1857
641,1857
642,1850
643,1849
644,1859
645,1857
646,1851
647,1860
648,1857
649,1856
650,1854
651,1853
652,1855
653,1854
654,1870
655,1847
656,1855
657,1849
658,1840
659,1846
660,1855
661,1856
662,1855
663,1865
664,1857
665,1860
666,1859
667,1857
668,1866
669,1867
670,1851
671,1863
672,1866
673,1863
674,1856
675,1853
676,1851
677,1856
678,1845
679,1859
680,1860
681,1861
682,1861
683,1858
684,1855
685,1851
686,1865
687,1863
688,1854
689,1863
690,1856
691,1856
692,1856
693,1847
694,1867
695,1857
696,1860
697,1861
698,1859
699,1866
700,1862
701,1872
702,1865
703,1866
704,1874
705,1873
706,1865
707,1840
708,1855
709,1843
710,1858
711,1859
712,1857
713,1854
714,1855
715,1855
716,1856
717,1854
718,1863
719,1857
720,1856
721,1875
722,1868
723,1857
724,1851
725,1856
726,1865
727,1863
728,1871
729,1864
730,1861
731,1857
732,1865
733,1865
734,1862
735,1868
736,1865
737,1863
738,1869
739,1863
740,1860
741,1856
742,1856
743,1855
744,1856
745,1847
746,1841
747,1851
748,1855
749,1865
750,1862
751,1865
752,1851
753,1861
754,1878
755,1869
756,1857
757,1856
758,1856
759,1863
760,1863
761,1872
762,1852
763,1859
764,1860
765,1869
766,1867
767,1859
768,1864
769,1858
770,1872
771,1872
772,1863
773,1860
774,1856
775,1842
776,1848
777,1856
778,1870
779,1871
780,1855
781,1857
782,1870
783,1862
784,1863
785,1857
786,1863
787,1872
788,1866
789,1870
790,1854
791,1856
792,1867
793,1860
794,1868
795,1860
796,1867
797,1857
798,1863
799,1867
800,1868
801,1869
802,1861
803,1853
804,1866
805,1858
806,1867
807,1855
808,1847
809,1862
810,1856
811,1872
812,1867
813,1858
814,1857
815,1861
816,1872
817,1852
818,1858
819,1846
820,1857
821,1867
822,1858
823,1865
824,1859
825,1847
826,1855
827,1856
828,1865
829,1862
830,1857
831,1857
832,1862
833,1856
834,1856
835,1854
836,1847
837,1871
838,1856
839,1865
840,1851
841,1850
842,1853
843,1845
844,1877
845,1874
846,1861
847,1856
848,1849
849,1853
850,1862
851,1856
852,1856
853,1865
854,1871
855,1872
856,1872
857,1858
858,1861
859,1855
860,1856
861,1872
862,1865
863,1859
864,1852
865,1857
866,1867
867,1859
868,1855
869,1865
870,1872
871,1867
872,1882
873,1869
874,1865
875,1864
876,1855
877,1867
878,1867
879,1861
880,1858
881,1856
882,1862
883,1869
884,1865
885,1852
886,1881
887,1872
888,1856
889,1865
890,1885
891,1872
892,1856
893,1852
894,1872
895,1866
896,1861
897,1866
898,1872
899,1875
900,1868
901,1859
902,1872
903,1872
904,1878
905,1865
906,1872
907,1878
908,1856
909,1847
910,1857
911,1874
912,1877
913,1870
914,1863
915,1848
916,1874
917,1855
918,1863
919,1869
920,1853
921,1845
922,1845
923,1846
924,1851
925,1843
926,1841
927,1858
928,1861
929,1840
930,1866
931,1855
932,1854
933,1863
934,1862
935,1867
936,1859
937,1870
938,1872
939,1866
940,1863
941,1861
942,1853
943,1862
944,1867
945,1869
946,1869
947,1862
948,1859
949,1872
950,1860
951,1856
952,1853
953,1858
954,1872
955,1856
956,1843
957,1859
958,1854
959,1855
960,1856
961,1862
962,1856
963,1870
964,1861
965,1858
966,1863
967,1859
968,1855
969,1858
970,1859
971,1869
972,1870
973,1855
974,1860
975,1849
976,1856
977,1863
978,1852
979,1852
980,1839
981,1867
982,1857
983,1859
984,1863
985,1850
986,1854
987,1850
988,1849
989,1858
990,1862
991,1856
992,1840
993,1855
994,1869
995,1856
996,1855
997,1856
998,1878
999,1872
1000,1858
1001,1856
1002,1867
1003,1856
1004,1854
1005,1857
1006,1873
1007,1863
1008,1851
1009,1856
1010,1854
1011,1866
1012,1850
1013,1853
1014,1852
1015,1863
1016,1856
1017,1854
1018,1856
1019,1855
1020,1870
1021,1849
1022,1851
1023,1858
1024,1861
1025,1858
1026,1867
1027,1859
1028,1855
1029,1868
1030,1862
1031,1851
1032,1862
1033,1859
1034,1859
1035,1856
1036,1847
1037,1863
1038,1866
1039,1857
1040,1855
1041,1850
1042,1855
1043,1854
1044,1851
1045,1846
1046,1850
1047,1861
1048,1857
1049,1854
1050,1855
1051,1862
1052,1858
1053,1857
1054,1858
1055,1852
1056,1862
1057,1856
1058,1852
1059,1853
1060,1855
1061,1863
1062,1855
1063,1859
1064,1866
1065,1863
1066,1861
1067,1864
1068,1858
1069,1851
1070,1863
1071,1866
1072,1862
1073,1858
1074,1850
1075,1846
1076,1849
1077,1852
1078,1849
1079,1856
1080,1861
1081,1865
1082,1847
1083,1862
1084,1862
1085,1860
1086,1858
1087,1864
1088,1869
1089,1867
1090,1857
1091,1852
1092,1855
1093,1857
1094,1862
1095,1855
1096,1859
1097,1861
1098,1865
1099,1861
1100,1869
1101,1865
1102,1857
1103,1857
1104,1873
1105,1869
1106,1856
1107,1849
1108,1846
1109,1851
1110,1856
1111,1856
1112,1871
1113,1871
1114,1861
1115,1872
1116,1872
1117,1859
1118,1859
1119,1863
1120,1866
1121,1859
1122,1873
1123,1863
1124,1855
1125,1856
1126,1851
1127,1856
1128,1857
1129,1872
1130,1876
1131,1864
1132,1870
1133,1863
1134,1856
1135,1851
1136,1855
1137,1870
1138,1867
1139,1854
1140,1855
1141,1854
1142,1845
1143,1852
1144,1865
1145,1856
1146,1856
1147,1872
1148,1874
1149,1869
1150,1856
1151,1851
1152,1856
1153,1858
1154,1871
1155,1869
1156,1856
1157,1861
1158,1858
1159,1851
1160,1853
1161,1872
1162,1854
1163,1858
1164,1845
1165,1854
1166,1860
1167,1852
1168,1853
1169,1861
1170,1856
1171,1872
1172,1872
1173,1857
1174,1851
1175,1851
1176,1847
1177,1855
1178,1863
1179,1871
1180,1856
1181,1872
1182,1877
1183,1862
1184,1859
1185,1859
1186,1862
1187,1871
1188,1888
1189,1876
1190,1863
1191,1856
1192,1851
1193,1847
1194,1851
1195,1837
1196,1840
1197,1856
1198,1853
1199,1857
1200,1863
1201,1860
1202,1854
1203,1856
1204,1890
1205,1870
1206,1856
1207,1854
1208,1856
1209,1847
1210,1856
1211,1857
1212,1863
1213,1876
1214,1857
1215,1872
1216,1863
1217,1858
1218,1853
1219,1855
1220,1895
1221,1873
1222,1867
1223,1856
1224,1856
1225,1849
1226,1847
1227,1855
1228,1872
1229,1870
1230,1850
1231,1856
1232,1870
1233,1861
1234,1856
1235,1847
1236,1856
1237,1873
1238,1869
1239,1861
1240,1867
1241,1861
1242,1849
1243,1851
1244,1867
1245,1858
1246,1861
1247,1853
1248,1860
1249,1872
1250,1862
1251,1857
1252,1856
1253,1870
1254,1872
1255,1856
1256,1866
1257,1864
1258,1850
1259,1855
1260,1858
1261,1867
1262,1868
1263,1857
1264,1867
1265,1882
1266,1867
1267,1859
1268,1861
1269,1863
1270,1886
1271,1872
1272,1871
1273,1870
1274,1857
1275,1854
1276,1852
1277,1858
1278,1872
1279,1858
1280,1857
1281,1862
1282,1873
1283,1862
1284,1853
1285,1846
1286,1865
1287,1871
1288,1851
1289,1873
1290,1865
1291,1851
1292,1850
1293,1855
1294,1867
1295,1857
1296,1854
1297,1861
1298,1871
1299,1857
1300,1859
1301,1861
1302,1869
1303,1871
1304,1868
1305,1872
1306,1867
1307,1851
1308,1849
1309,1845
1310,1853
1311,1863
1312,1851
1313,1861
1314,1857
1315,1858
1316,1847
1317,1856
1318,1856
1319,1867
1320,1871
1321,1871
1322,1858
1323,1856
1324,1856
1325,1850
1326,1851
1327,1856
1328,1863
1329,1856
1330,1859
1331,1866
1332,1866
1333,1862
1334,1859
1335,1850
1336,1861
1337,1873
1338,1859
1339,1862
1340,1857
1341,1856
1342,1851
1343,1855
1344,1853
1345,1859
1346,1858
1347,1854
1348,1887
1349,1863
1350,1853
1351,1853
1352,1854
1353,1861
1354,1860
1355,1862
1356,1866
1357,1870
1358,1853
1359,1853
1360,1868
1361,1874
1362,1856
1363,1857
1364,1865
1365,1872
1366,1864
1367,1859
1368,1859
1369,1879
1370,1876
1371,1863
1372,1863
1373,1866
1374,1856
1375,1844
1376,1843
1377,1863
1378,1857
1379,1855
1380,1858
1381,1866
1382,1872
1383,1862
1384,1860
1385,1843
1386,1873
1387,1871
1388,1859
1389,1866
1390,1870
1391,1854
1392,1849
1393,1856
1394,1853
1395,1867
1396,1850
1397,1856
1398,1867
1399,1867
1400,1860
1401,1859
1402,1846
1403,1873
1404,1857
1405,1867
1406,1857
1407,1856
1408,1843
1409,1840
1410,1862
1411,1870
1412,1845
1413,1855
1414,1854
1415,1872
1416,1861
1417,1860
1418,1845
1419,1862
1420,1876
1421,1871
1422,1858
1423,1861
1424,1855
1425,1851
1426,1847
1427,1865
1428,1857
1429,1861
1430,1859
1431,1863
1432,1866
1433,1859
1434,1853
1435,1851
1436,1856
1437,1862
1438,1870
1439,1856
1440,1846
1441,1844
1442,1861
1443,1859
1444,1854
1445,1843
1446,1856
1447,1863
1448,1870
1449,1862
1450,1859
1451,1863
1452,1870
1453,1863
1454,1873
1455,1879
1456,1867
1457,1853
1458,1844
1459,1865
1460,1861
1461,1863
1462,1857
1463,1871
1464,1855
1465,1857
1466,1855
1467,1856
1468,1859
1469,1858
1470,1866
1471,1877
1472,1862
1473,1856
1474,1854
1475,1855
1476,1858
1477,1859
1478,1872
1479,1879
1480,1863
1481,1857
1482,1863
1483,1863
1484,1872
1485,1854
1486,1863
1487,1886
1488,1871
1489,1862
1490,1872
1491,1854
1492,1852
1493,1855
1494,1869
1495,1858
1496,1853
1497,1847
1498,1869
1499,1867
1500,1865
1501,1866
1502,1863
1503,1886
1504,1872
1505,1859
1506,1856
1507,1855
1508,1855
1509,1863
1510,1858
1511,1870
1512,1872
1513,1855
1514,1858
1515,1862
1516,1863
1517,1862
1518,1856
1519,1863
1520,1882
1521,1872
1522,1862
1523,1877
1524,1847
1525,1840
1526,1849
1527,1855
1528,1856
1529,1856
1530,1851
1531,1856
1532,1874
1533,1871
1534,1864
1535,1861
1536,1870
1537,1882
1538,1863
1539,1861
1540,1843
1541,1851
1542,1850
1543,1853
1544,1850
1545,1862
1546,1859
1547,1856
1548,1866
1549,1870
1550,1868
1551,1861
1552,1859
1553,1872
1554,1863
1555,1855
1556,1856
1557,1859
1558,1861
1559,1849
1560,1856
1561,1863
1562,1855
1563,1853
1564,1858
1565,1866
1566,1870
1567,1867
1568,1858
1569,1857
1570,1871
1571,1867
1572,1856
1573,1856
1574,1855
1575,1851
1576,1854
1577,1860
1578,1874
1579,1856
1580,1702
1581,1413
1582,1791
1583,1904
1584,1953
1585,2033
1586,2176
1587,2304
1588,2383
1589,2404
1590,2352
1591,2269
1592,2110
1593,1973
1594,1894
1595,1791
1596,1658
1597,1525
1598,1438
1599,1360
1600,1315
1601,1305
1602,1347
1603,1478
1604,1617
1605,1678
1606,1744
1607,1808
1608,1840
1609,1870
1610,1897
1611,1904
1612,1520
1613,1805
1614,1951
1615,2023
1616,2112
1617,2224
1618,2333
1619,2414
1620,2426
1621,2379
1622,2258
1623,2112
1624,2001
1625,1904
1626,1757
1627,1616
1628,1472
1629,1367
1630,1282
1631,1258
1632,1331
1633,1456
1634,1603
1635,1713
1636,1788
1637,1872
1638,1898
1639,1915
1640,1919
1641,1931
1642,1935
1643,1707
1644,1775
1645,1965
1646,2014
1647,2070
1648,2171
1649,2320
1650,2406
1651,2422
1652,2375
1653,2246
1654,2083
1655,1986
1656,1872
1657,1722
1658,1535
1659,1405
1660,1319
1661,1230
1662,1248
1663,1357
1664,1530
1665,1680
1666,1776
1667,1856
1668,1911
1669,1935
1670,1938
1671,1936
1672,1941
1673,1963
1674,1929
1675,1737
1676,1953
1677,2031
1678,2078
1679,2192
1680,2337
1681,2436
1682,2448
1683,2352
1684,2191
1685,2047
1686,1957
1687,1830
1688,1653
1689,1477
1690,1359
1691,1267
1692,1216
1693,1259
1694,1422
1695,1584
1696,1701
1697,1823
1698,1911
1699,1915
1700,1926
1701,1962
1702,1954
1703,1962
1704,1968
1705,2233
1706,1718
1707,1947
1708,2013
1709,2096
1710,2235
1711,2386
1712,2465
1713,2439
1714,2312
1715,2138
1716,1994
1717,1899
1718,1767
1719,1584
1720,1437
1721,1335
1722,1255
1723,1216
1724,1264
1725,1435
1726,1616
1727,1734
1728,1838
1729,1897
1730,1920
1731,1945
1732,1954
1733,1957
1734,1951
1735,1960
1736,2258
1737,1730
1738,1934
1739,2014
1740,2078
1741,2203
1742,2387
1743,2486
1744,2430
1745,2299
1746,2156
1747,2032
1748,1927
1749,1778
1750,1595
1751,1425
1752,1313
1753,1253
1754,1217
1755,1267
1756,1437
1757,1585
1758,1725
1759,1826
1760,1886
1761,1911
1762,1935
1763,1946
1764,1952
1765,1970
1766,1961
1767,1904
1768,1776
1769,1919
1770,1985
1771,2055
1772,2183
1773,2372
1774,2474
1775,2406
1776,2278
1777,2154
1778,2043
1779,1945
1780,1806
1781,1615
1782,1436
1783,1312
1784,1241
1785,1198
1786,1270
1787,1471
1788,1599
1789,1728
1790,1828
1791,1886
1792,1901
1793,1925
1794,1937
1795,1959
1796,1958
1797,1955
1798,1890
1799,1968
1800,1901
1801,1959
1802,2021
1803,2160
1804,2341
1805,2462
1806,2414
1807,2287
1808,2160
1809,2065
1810,1971
1811,1852
1812,1654
1813,1445
1814,1317
1815,1232
1816,1145
1817,1216
1818,1390
1819,1567
1820,1706
1821,1813
1822,1873
1823,1905
1824,1915
1825,1927
1826,1942
1827,1963
1828,1955
1829,1951
1830,2093
1831,1904
1832,1939
1833,2010
1834,2125
1835,2309
1836,2441
1837,2384
1838,2288
1839,2192
1840,2096
1841,1995
1842,1872
1843,1686
1844,1491
1845,1317
1846,1200
1847,1147
1848,1219
1849,1406
1850,1535
1851,1701
1852,1809
1853,1872
1854,1895
1855,1949
1856,1947
1857,1950
1858,1955
1859,1963
1860,1968
1861,2224
1862,1889
1863,1938
1864,2000
1865,2112
1866,2281
1867,2416
1868,2370
1869,2275
1870,2183
1871,2103
1872,2022
1873,1905
1874,1722
1875,1510
1876,1345
1877,1229
1878,1131
1879,1209
1880,1357
1881,1535
1882,1699
1883,1808
1884,1865
1885,1885
1886,1927
1887,1952
1888,1957
1889,1968
1890,1959
1891,1953
1892,2317
1893,1902
1894,1934
1895,1973
1896,2064
1897,2238
1898,2383
1899,2358
1900,2270
1901,2191
1902,2117
1903,2039
1904,1962
1905,1776
1906,1565
1907,1370
1908,1238
1909,1150
1910,1200
1911,1375
1912,1530
1913,1678
1914,1783
1915,1867
1916,1889
1917,1907
1918,1931
1919,1949
1920,1968
1921,1977
1922,1965
1923,2269
1924,1905
1925,1919
1926,1968
1927,2056
1928,2213
1929,2368
1930,2363
1931,2274
1932,2194
1933,2128
1934,2039
1935,1935
1936,1771
1937,1586
1938,1392
1939,1252
1940,1165
1941,1207
1942,1376
1943,1519
1944,1667
1945,1786
1946,1849
1947,1891
1948,1922
1949,1936
1950,1953
1951,1957
1952,1966
1953,1968
1954,1929
1955,1937
1956,1914
1957,1955
1958,2027
1959,2182
1960,2369
1961,2384
1962,2283
1963,2219
1964,2153
1965,2057
1966,1943
1967,1785
1968,1577
1969,1403
1970,1264
1971,1185
1972,1232
1973,1359
1974,1479
1975,1627
1976,1754
1977,1846
1978,1881
1979,1918
1980,1947
1981,1964
1982,1968
1983,1967
1984,1959
1985,1755
1986,1953
1987,1910
1988,1965
1989,2039
1990,2178
1991,2375
1992,2411
1993,2325
1994,2229
1995,2155
1996,2064
1997,1968
1998,1809
1999,1601
2000,1408
2001,1264
2002,1166
2003,1185
2004,1338
2005,1477
2006,1620
2007,1744
2008,1830
2009,1872
2010,1910
2011,1952
2012,1958
2013,1962
2014,1968
2015,1969
2016,1842
2017,2032
2018,1895
2019,1939
2020,2025
2021,2154
2022,2361
2023,2425
2024,2322
2025,2243
2026,2190
2027,2096
2028,1989
2029,1841
2030,1650
2031,1453
2032,1277
2033,1143
2034,1134
2035,1293
2036,1474
2037,1646
2038,1734
2039,1825
2040,1873
2041,1891
2042,1917
2043,1933
2044,1969
2045,1989
2046,1980
2047,1975
2048,2092
2049,1894
2050,1941
2051,1991
2052,2128
2053,2326
2054,2445
2055,2363
2056,2258
2057,2191
2058,2091
2059,1984
2060,1869
2061,1645
2062,1462
2063,1285
2064,1163
2065,1157
2066,1256
2067,1416
2068,1584
2069,1750
2070,1835
2071,1889
2072,1895
2073,1935
2074,1937
2075,1957
2076,1966
2077,1978
2078,1955
2079,2160
2080,1897
2081,1943
2082,2002
2083,2110
2084,2293
2085,2433
2086,2352
2087,2272
2088,2205
2089,2115
2090,2021
2091,1881
2092,1686
2093,1474
2094,1323
2095,1180
2096,1151
2097,1259
2098,1387
2099,1557
2100,1705
2101,1808
2102,1886
2103,1910
2104,1940
2105,1959
2106,1963
2107,1957
2108,1936
2109,1959
2110,2240
2111,1889
2112,1917
2113,1965
2114,2055
2115,2255
2116,2418
2117,2363
2118,2262
2119,2230
2120,2135
2121,2011
2122,1905
2123,1714
2124,1487
2125,1287
2126,1143
2127,1149
2128,1249
2129,1397
2130,1562
2131,1695
2132,1799
2133,1852
2134,1894
2135,1922
2136,1968
2137,1980
2138,1987
2139,1966
2140,1959
2141,2209
2142,1862
2143,1904
2144,1978
2145,2076
2146,2241
2147,2407
2148,2375
2149,2282
2150,2229
2151,2160
2152,2063
2153,1942
2154,1727
2155,1521
2156,1344
2157,1168
2158,1107
2159,1225
2160,1410
2161,1611
2162,1699
2163,1808
2164,1814
2165,1905
2166,1904
2167,1915
2168,1952
2169,1987
2170,1971
2171,1983
2172,2001
2173,1920
2174,1916
2175,1954
2176,2030
2177,2192
2178,2379
2179,2407
2180,2297
2181,2251
2182,2180
2183,2079
2184,1963
2185,1795
2186,1591
2187,1377
2188,1221
2189,1136
2190,1200
2191,1322
2192,1476
2193,1641
2194,1787
2195,1853
2196,1869
2197,1926
2198,1959
2199,1954
2200,1965
2201,1969
2202,1982
2203,1980
2204,1974
2205,1961
2206,1941
2207,1921
2208,1909
2209,1906
2210,1907
2211,1910
2212,1892
2213,1904
2214,1890
2215,1885
2216,1874
2217,1863
2218,1875
2219,1865
2220,1866
2221,1877
2222,1907
2223,1885
2224,1845
2225,1846
2226,1842
2227,1863
2228,1872
2229,1873
2230,1871
2231,1859
2232,1858
2233,1845
2234,1853
2235,1824
2236,1866
2237,1870
2238,1856
2239,1870
2240,1865
2241,1851
2242,1847
2243,1849
2244,1872
2245,1851
2246,1856
2247,1875
2248,1870
2249,1844
2250,1848
2251,1856
2252,1856
2253,1872
2254,1863
2255,1879
2256,1872
2257,1851
2258,1844
2259,1843
2260,1860
2261,1872
2262,1861
2263,1871
2264,1879
2265,1861
2266,1855
2267,1849
2268,1840
2269,1841
2270,1881
2271,1855
2272,1878
2273,1872
2274,1840
2275,1824
2276,1845
2277,1862
2278,1841
2279,1862
2280,1866
2281,1878
2282,1863
2283,1856
2284,1843
2285,1851
2286,1869
2287,1860
2288,1869
2289,1867
2290,1871
2291,1855
2292,1860
2293,1846
2294,1857
2295,1853
2296,1846
2297,1849
2298,1863
2299,1856
2300,1857
2301,1857
2302,1865
2303,1867
2304,1856
2305,1856
2306,1856
2307,1851
2308,1856
2309,1856
2310,1866
2311,1867
2312,1856
2313,1850
2314,1846
2315,1867
2316,1857
2317,1852
2318,1850
2319,1870
2320,1873
2321,1859
2322,1876
2323,1868
2324,1846
2325,1838
2326,1850
2327,1875
2328,1878
2329,1859
2330,1867
2331,1903
2332,1855
2333,1851
2334,1841
2335,1808
2336,1870
2337,1872
2338,1872
2339,1861
2340,1858
2341,1851
2342,1847
2343,1840
2344,1859
2345,1862
2346,1867
2347,1861
2348,1863
2349,1845
2350,1839
2351,1846
2352,1835
2353,1872
2354,1894
2355,1870
2356,1870
2357,1857
2358,1845
2359,1843
2360,1857
2361,1868
2362,1854
2363,1869
2364,1856
2365,1856
2366,1845
2367,1843
2368,1851
2369,1858
2370,1870
2371,1858
2372,1861
2373,1855
2374,1846
2375,1842
2376,1847
2377,1869
2378,1861
2379,1863
2380,1850
2381,1861
2382,1856
2383,1850
2384,1853
2385,1863
2386,1877
2387,1872
2388,1871
2389,1873
2390,1856
2391,1833
2392,1833
2393,1853
2394,1858
2395,1857
2396,1862
2397,1863
2398,1872
2399,1861
2400,1861
2401,1850
2402,1872
2403,1872
2404,1881
2405,1870
2406,1872
2407,1850
2408,1842
2409,1839
2410,1850
2411,1858
2412,1853
2413,1865
2414,1872
2415,1869
2416,1856
2417,1855
2418,1856
2419,1856
2420,1870
2421,1874
2422,1870
2423,1859
2424,1839
2425,1833
2426,1828
2427,1852
2428,1856
2429,1877
2430,1856
2431,1870
2432,1854
2433,1853
2434,1852
2435,1855
2436,1891
2437,1871
2438,1883
2439,1872
2440,1855
2441,1851
2442,1838
2443,1859
2444,1866
2445,1862
2446,1866
2447,1864
2448,1862
2449,1851
2450,1855
2451,1857
2452,1875
2453,1875
2454,1858
2455,1882
2456,1854
2457,1842
2458,1837
2459,1843
2460,1866
2461,1866
2462,1858
2463,1856
2464,1865
2465,1862
2466,1853
2467,1852
2468,1840
2469,1844
2470,1872
2471,1879
2472,1870
2473,1874
2474,1843
2475,1835
2476,1830
2477,1851
2478,1855
2479,1872
2480,1867
2481,1872
2482,1863
2483,1857
2484,1845
2485,1871
2486,1861
2487,1873
2488,1838
2489,1857
2490,1852
2491,1851
2492,1850
2493,1858
2494,1870
2495,1861
2496,1840
2497,1866
2498,1867
2499,1856
2500,1853
2501,1843
2502,1882
2503,1874
2504,1882
2505,1874
2506,1886
2507,1851
2508,1845
2509,1840
2510,1855
2511,1869
2512,1863
2513,1867
2514,1865
2515,1858
2516,1853
2517,1850
2518,1841
2519,1865
2520,1903
2521,1857
2522,1867
2523,1866
2524,1842
2525,1837
2526,1840
2527,1862
2528,1859
2529,1871
2530,1856
2531,1865
2532,1859
2533,1860
2534,1859
2535,1860
2536,1889
2537,1875
2538,1856
2539,1872
2540,1860
2541,1840
2542,1842
2543,1852
2544,1859
2545,1859
2546,1847
2547,1856
2548,1877
2549,1854
2550,1853
2551,1813
2552,1859
2553,1872
2554,1840
2555,1870
2556,1826
2557,1850
2558,1840
2559,1840
2560,1846
2561,1861
2562,1855
2563,1851
2564,1872
2565,1872
2566,1852
2567,1855
2568,1847
2569,1885
2570,1887
2571,1880
2572,1875
2573,1862
2574,1835
2575,1839
2576,1843
2577,1861
2578,1857
2579,1860
2580,1891
2581,1862
2582,1858
2583,1866
2584,1859
2585,1885
2586,1869
2587,1876
2588,1856
2589,1859
2590,1865
2591,1846
2592,1840
2593,1883
2594,1877
2595,1866
2596,1857
2597,1857
2598,1865
2599,1855
2600,1857
2601,1836
2602,1878
2603,1879
2604,1883
2605,1871
2606,1855
2607,1847
2608,1830
2609,1843
2610,1886
2611,1869
2612,1840
2613,1863
2614,1870
2615,1869
2616,1845
2617,1856
2618,1855
2619,1863
2620,1876
2621,1833
2622,1872
2623,1861
2624,1847
2625,1846
2626,1840
2627,1872
2628,1858
2629,1870
2630,1857
2631,1871
2632,1856
2633,1840
2634,1859
2635,1873
2636,1861
2637,1856
2638,1862
2639,1854
2640,1843
2641,1837
2642,1834
2643,1835
2644,1869
2645,1862
2646,1849
2647,1872
2648,1871
2649,1860
2650,1850
2651,1872
2652,1858
2653,1875
2654,1881
2655,1875
2656,1874
2657,1846
2658,1843
2659,1840
2660,1856
2661,1867
2662,1875
2663,1859
2664,1859
2665,1857
2666,1851
2667,1842
2668,1854
2669,1867
2670,1883
2671,1882
2672,1863
2673,1860
2674,1840
2675,1838
2676,1841
2677,1861
2678,1863
2679,1862
2680,1868
2681,1857
2682,1857
2683,1854
2684,1859
2685,1871
2686,1877
2687,1875
2688,1863
2689,1871
2690,1855
2691,1845
2692,1843
2693,1853
2694,1878
2695,1849
2696,1867
2697,1865
2698,1862
2699,1859
2700,1862
2701,1847
2702,1875
2703,1887
2704,1879
2705,1874
2706,1857
2707,1846
2708,1841
2709,1839
2710,1823
2711,1868
2712,1856
2713,1863
2714,1871
2715,1862
2716,1857
2717,1856
2718,1871
2719,1873
2720,1878
2721,1877
2722,1870
2723,1861
2724,1839
2725,1835
2726,1843
2727,1868
2728,1847
2729,1853
2730,1881
2731,1859
2732,1868
2733,1847
2734,1856
2735,1857
2736,1872
2737,1872
2738,1872
2739,1870
2740,1854
2741,1838
2742,1840
2743,1859
2744,1872
2745,1864
2746,1856
2747,1862
2748,1872
2749,1855
2750,1857
2751,1860
2752,1867
2753,1874
2754,1857
2755,1861
2756,1840
2757,1843
2758,1839
2759,1840
2760,1851
2761,1870
2762,1845
2763,1872
2764,1872
2765,1864
2766,1847
2767,1867
2768,1847
2769,1867
2770,1887
2771,1878
2772,1898
2773,1853
2774,1843
2775,1843
2776,1851
2777,1856
2778,1857
2779,1858
2780,1872
2781,1872
2782,1857
2783,1853
2784,1856
2785,1862
2786,1876
2787,1862
2788,1872
2789,1867
2790,1856
2791,1843
2792,1843
2793,1859
2794,1872
2795,1847
2796,1857
2797,1847
2798,1859
2799,1866
2800,1851
2801,1858
2802,1870
2803,1885
2804,1872
2805,1882
2806,1871
2807,1847
2808,1839
2809,1844
2810,1859
2811,1872
2812,1867
2813,1857
2814,1879
2815,1854
2816,1840
2817,1851
2818,1847
2819,1871
2820,1867
2821,1887
2822,1870
2823,1862
2824,1840
2825,1838
2826,1853
2827,1855
2828,1872
2829,1870
2830,1860
2831,1878
2832,1858
2833,1855
2834,1857
2835,1872
2836,1869
2837,1872
2838,1862
2839,1870
2840,1853
2841,1839
2842,1838
2843,1859
2844,1859
2845,1856
2846,1860
2847,1861
2848,1863
2849,1856
2850,1859
2851,1855
2852,1861
2853,1885
2854,1877
2855,1855
2856,1859
2857,1848
2858,1841
2859,1840
2860,1850
2861,1859
2862,1869
2863,1861
2864,1873
2865,1870
2866,1856
2867,1854
2868,1871
2869,1877
2870,1882
2871,1868
2872,1873
2873,1858
2874,1838
2875,1827
2876,1840
2877,1867
2878,1856
2879,1865
2880,1855
2881,1857
2882,1855
2883,1850
2884,1863
2885,1829
2886,1840
2887,1899
2888,1867
2889,1862
2890,1857
2891,1839
2892,1841
2893,1853
2894,1872
2895,1859
2896,1878
2897,1870
2898,1875
2899,1861
2900,1859
2901,1849
2902,1872
2903,1870
2904,1858
2905,1858
2906,1858
2907,1841
2908,1834
2909,1845
2910,1863
2911,1869
2912,1858
2913,1881
2914,1858
2915,1862
2916,1856
2917,1856
2918,1858
2919,1878
2920,1870
2921,1872
2922,1867
2923,1861
2924,1841
2925,1844
2926,1831
2927,1856
2928,1869
2929,1861
2930,1870
2931,1875
2932,1856
2933,1856
2934,1856
2935,1864
2936,1870
2937,1873
2938,1886
2939,1847
2940,1839
2941,1830
2942,1838
2943,1872
2944,1873
2945,1863
2946,1863
2947,1871
2948,1872
2949,1858
2950,1850
2951,1861
2952,1867
2953,1875
2954,1855
2955,1887
2956,1853
2957,1840
2958,1839
2959,1840
2960,1865
2961,1854
2962,1866
2963,1875
2964,1872
2965,1866
2966,1858
2967,1851
2968,1856
2969,1877
2970,1872
2971,1862
2972,1873
2973,1859
2974,1842
2975,1840
2976,1813
2977,1863
2978,1847
2979,1872
2980,1861
2981,1873
2982,1863
2983,1850
2984,1856
2985,1857
2986,1871
2987,1882
2988,1872
2989,1865
2990,1851
2991,1841
2992,1843
2993,1869
2994,1861
2995,1855
2996,1863
2997,1843
2998,1859
2999,1862
3000,1857
3001,1885
3002,1873
3003,1873
3004,1887
3005,1870
3006,1861
3007,1843
3008,1840
3009,1840
3010,1865
3011,1858
3012,1866
3013,1861
3014,1877
3015,1861
3016,1855
3017,1856
3018,1867
3019,1918
3020,1899
3021,1891
3022,1887
3023,1872
3024,1835
3025,1831
3026,1851
3027,1869
3028,1869
3029,1870
3030,1851
3031,1849
3032,1858
3033,1851
3034,1853
3035,1875
3036,1891
3037,1878
3038,1887
3039,1874
3040,1840
3041,1835
3042,1831
3043,1840
3044,1878
3045,1849
3046,1855
3047,1849
3048,1872
3049,1856
3050,1851
3051,1871
3052,1863
3053,1891
3054,1874
3055,1879
3056,1866
3057,1829
3058,1830
3059,1834
3060,1842
3061,1878
3062,1867
3063,1858
3064,1866
3065,1872
3066,1841
3067,1845
3068,1859
3069,1891
3070,1891
3071,1886
3072,1864
3073,1856
3074,1833
3075,1829
3076,1854
3077,1875
3078,1859
3079,1873
3080,1871
3081,1895
3082,1855
3083,1845
3084,1857
3085,1867
3086,1874
3087,1867
3088,1878
3089,1878
3090,1842
3091,1837
3092,1827
3093,1839
3094,1866
3095,1855
3096,1866
3097,1877
3098,1863
3099,1849
3100,1851
3101,1856
3102,1873
3103,1877
3104,1856
3105,1871
3106,1872
3107,1842
3108,1834
3109,1831
3110,1870
3111,1862
3112,1872
3113,1870
3114,1845
3115,1863
3116,1846
3117,1849
3118,1851
3119,1870
3120,1887
3121,1879
3122,1870
3123,1858
3124,1839
3125,1837
3126,1859
3127,1877
3128,1871
3129,1871
3130,1855
3131,1872
3132,1852
3133,1853
3134,1839
3135,1854
3136,1872
3137,1891
3138,1861
3139,1877
3140,1853
3141,1834
3142,1839
3143,1863
3144,1856
3145,1857
3146,1866
3147,1872
3148,1861
3149,1850
3150,1840
3151,1837
3152,1872
3153,1889
3154,1886
3155,1871
3156,1863
3157,1839
3158,1838
3159,1842
3160,1885
3161,1863
3162,1873
3163,1874
3164,1858
3165,1863
3166,1850
3167,1855
3168,1872
3169,1885
3170,1879
3171,1901
3172,1856
3173,1862
3174,1840
3175,1826
3176,1844
3177,1859
3178,1861
3179,1867
3180,1871
3181,1875
3182,1856
3183,1846
3184,1857
3185,1887
3186,1879
3187,1907
3188,1903
3189,1895
3190,1850
3191,1837
3192,1838
3193,1847
3194,1875
3195,1863
3196,1885
3197,1904
3198,1878
3199,1772
3200,1525
3201,1754
3202,1892
3203,1964
3204,2027
3205,2135
3206,2246
3207,2319
3208,2322
3209,2275
3210,2189
3211,2096
3212,1962
3213,1882
3214,1790
3215,1665
3216,1535
3217,1466
3218,1447
3219,1392
3220,1395
3221,1424
3222,1503
3223,1594
3224,1649
3225,1724
3226,1792
3227,1855
3228,1883
3229,1921
3230,1911
3231,1510
3232,1782
3233,1958
3234,2000
3235,2100
3236,2204
3237,2338
3238,2390
3239,2378
3240,2310
3241,2208
3242,2101
3243,2037
3244,1918
3245,1808
3246,1637
3247,1558
3248,1446
3249,1318
3250,1268
3251,1305
3252,1472
3253,1647
3254,1713
3255,1803
3256,1853
3257,1856
3258,1873
3259,1897
3260,1947
3261,1936
3262,1616
3263,1738
3264,1968
3265,2023
3266,2106
3267,2211
3268,2337
3269,2406
3270,2395
3271,2403
3272,2236
3273,2112
3274,1987
3275,1893
3276,1735
3277,1661
3278,1516
3279,1409
3280,1297
3281,1279
3282,1310
3283,1456
3284,1556
3285,1691
3286,1823
3287,1872
3288,1901
3289,1904
3290,1905
3291,1920
3292,1923
3293,2031
3294,1745
3295,1937
3296,1999
3297,2065
3298,2193
3299,2339
3300,2419
3301,2445
3302,2341
3303,2196
3304,2077
3305,1990
3306,1891
3307,1699
3308,1535
3309,1415
3310,1392
3311,1301
3312,1307
3313,1367
3314,1535
3315,1648
3316,1734
3317,1820
3318,1869
3319,1952
3320,1958
3321,1961
3322,1981
3323,1948
3324,2299
3325,1641
3326,1920
3327,2019
3328,2078
3329,2180
3330,2317
3331,2407
3332,2442
3333,2342
3334,2203
3335,2061
3336,1986
3337,1866
3338,1758
3339,1535
3340,1375
3341,1244
3342,1182
3343,1232
3344,1357
3345,1535
3346,1680
3347,1781
3348,1856
3349,1883
3350,1910
3351,1955
3352,1968
3353,1987
3354,1961
3355,2055
3356,1687
3357,1913
3358,1991
3359,2075
3360,2155
3361,2319
3362,2448
3363,2439
3364,2352
3365,2191
3366,2069
3367,1968
3368,1854
3369,1712
3370,1535
3371,1435
3372,1323
3373,1216
3374,1186
3375,1328
3376,1518
3377,1680
3378,1793
3379,1839
3380,1917
3381,1936
3382,1932
3383,1939
3384,1961
3385,1987
3386,1876
3387,1639
3388,1901
3389,2032
3390,2085
3391,2191
3392,2381
3393,2480
3394,2448
3395,2289
3396,2182
3397,2078
3398,1975
3399,1830
3400,1646
3401,1505
3402,1383
3403,1319
3404,1265
3405,1267
3406,1390
3407,1513
3408,1639
3409,1782
3410,1886
3411,1871
3412,1907
3413,1951
3414,1978
3415,1947
3416,1947
3417,1799
3418,1748
3419,1883
3420,1995
3421,2064
3422,2177
3423,2367
3424,2468
3425,2430
3426,2290
3427,2146
3428,2066
3429,1986
3430,1872
3431,1682
3432,1469
3433,1330
3434,1203
3435,1264
3436,1285
3437,1422
3438,1535
3439,1655
3440,1776
3441,1837
3442,1878
3443,1910
3444,1977
3445,1929
3446,1950
3447,1981
3448,1966
3449,1820
3450,1827
3451,1966
3452,2039
3453,2111
3454,2287
3455,2455
3456,2421
3457,2319
3458,2192
3459,2082
3460,1983
3461,1872
3462,1679
3463,1535
3464,1446
3465,1280
3466,1187
3467,1200
3468,1354
3469,1515
3470,1680
3471,1784
3472,1887
3473,1888
3474,1898
3475,1909
3476,1949
3477,1949
3478,1963
3479,1939
3480,1931
3481,1855
3482,1952
3483,2029
3484,2093
3485,2346
3486,2465
3487,2448
3488,2325
3489,2213
3490,2084
3491,1950
3492,1840
3493,1692
3494,1556
3495,1371
3496,1347
3497,1275
3498,1246
3499,1367
3500,1511
3501,1663
3502,1774
3503,1872
3504,1907
3505,1921
3506,1936
3507,1934
3508,1934
3509,1946
3510,1979
3511,2089
3512,1797
3513,1933
3514,2031
3515,2106
3516,2304
3517,2491
3518,2483
3519,2390
3520,2302
3521,2163
3522,2037
3523,1886
3524,1662
3525,1450
3526,1282
3527,1263
3528,1175
3529,1206
3530,1344
3531,1494
3532,1617
3533,1746
3534,1818
3535,1906
3536,1923
3537,1954
3538,1971
3539,1971
3540,1950
3541,1946
3542,2219
3543,1791
3544,1930
3545,1982
3546,2084
3547,2251
3548,2451
3549,2482
3550,2392
3551,2266
3552,2175
3553,2062
3554,1906
3555,1744
3556,1503
3557,1293
3558,1189
3559,1154
3560,1183
3561,1347
3562,1535
3563,1662
3564,1758
3565,1840
3566,1879
3567,1909
3568,1936
3569,1987
3570,1983
3571,1999
3572,1999
3573,1951
3574,1788
3575,1899
3576,1977
3577,2076
3578,2216
3579,2407
3580,2486
3581,2419
3582,2290
3583,2174
3584,2042
3585,1920
3586,1761
3587,1586
3588,1389
3589,1277
3590,1136
3591,1127
3592,1266
3593,1474
3594,1643
3595,1735
3596,1827
3597,1894
3598,1923
3599,1935
3600,1957
3601,1988
3602,1967
3603,1984
3604,1826
3605,1899
3606,1902
3607,1955
3608,2032
3609,2194
3610,2383
3611,2443
3612,2384
3613,2275
3614,2176
3615,2057
3616,1908
3617,1735
3618,1535
3619,1413
3620,1314
3621,1251
3622,1189
3623,1276
3624,1428
3625,1562
3626,1733
3627,1847
3628,1863
3629,1936
3630,1921
3631,1966
3632,1965
3633,1968
3634,1975
3635,1929
3636,1948
3637,1913
3638,1954
3639,2056
3640,2186
3641,2394
3642,2471
3643,2402
3644,2289
3645,2176
3646,2079
3647,1966
3648,1777
3649,1535
3650,1358
3651,1251
3652,1231
3653,1227
3654,1296
3655,1431
3656,1584
3657,1699
3658,1792
3659,1857
3660,1902
3661,1951
3662,1963
3663,2005
3664,1997
3665,1975
3666,1968
3667,2000
3668,1867
3669,1969
3670,2032
3671,2137
3672,2363
3673,2480
3674,2426
3675,2303
3676,2177
3677,2096
3678,1956
3679,1828
3680,1645
3681,1452
3682,1270
3683,1174
3684,1134
3685,1279
3686,1456
3687,1585
3688,1729
3689,1813
3690,1856
3691,1886
3692,1919
3693,1963
3694,1983
3695,1982
3696,1981
3697,1986
3698,2111
3699,1850
3700,1941
3701,2006
3702,2134
3703,2327
3704,2475
3705,2416
3706,2314
3707,2207
3708,2087
3709,1967
3710,1840
3711,1650
3712,1472
3713,1329
3714,1249
3715,1153
3716,1201
3717,1389
3718,1559
3719,1715
3720,1815
3721,1904
3722,1927
3723,1922
3724,1935
3725,1941
3726,1973
3727,1982
3728,1980
3729,2151
3730,1876
3731,1955
3732,1998
3733,2119
3734,2295
3735,2451
3736,2454
3737,2321
3738,2226
3739,2123
3740,1968
3741,1814
3742,1621
3743,1461
3744,1338
3745,1227
3746,1198
3747,1247
3748,1392
3749,1509
3750,1664
3751,1787
3752,1887
3753,1927
3754,1952
3755,1937
3756,1968
3757,1957
3758,1956
3759,1961
3760,2154
3761,1853
3762,1917
3763,1999
3764,2097
3765,2288
3766,2480
3767,2469
3768,2325
3769,2236
3770,2128
3771,2000
3772,1872
3773,1673
3774,1447
3775,1280
3776,1232
3777,1199
3778,1222
3779,1374
3780,1535
3781,1680
3782,1767
3783,1845
3784,1887
3785,1938
3786,1975
3787,1966
3788,1986
3789,1973
3790,1959
3791,1903
3792,1845
3793,1909
3794,2000
3795,2087
3796,2243
3797,2409
3798,2469
3799,2349
3800,2230
3801,2140
3802,2035
3803,1914
3804,1744
3805,1535
3806,1349
3807,1200
3808,1136
3809,1154
3810,1363
3811,1526
3812,1680
3813,1817
3814,1878
3815,1919
3816,1918
3817,1911
3818,1949
3819,1972
3820,1982
3821,1968
3822,1942
3823,1923
3824,1904
3825,1904
3826,1911
3827,1927
3828,1922
3829,1922
3830,1915
3831,1918
3832,1895
3833,1879
3834,1885
3835,1887
3836,1904
3837,1891
3838,1882
3839,1872
3840,1842
3841,1841
3842,1844
3843,1877
3844,1872
3845,1875
3846,1863
3847,1872
3848,1866
3849,1855
3850,1852
3851,1872
3852,1862
3853,1885
3854,1881
3855,1872
3856,1856
3857,1834
3858,1837
3859,1849
3860,1861
3861,1863
3862,1865
3863,1871
3864,1867
3865,1848
3866,1840
3867,1845
3868,1872
3869,1869
3870,1872
3871,1873
3872,1867
3873,1854
3874,1840
3875,1839
3876,1840
3877,1873
3878,1872
3879,1871
3880,1856
3881,1872
3882,1847
3883,1851
3884,1854
3885,1862
3886,1871
3887,1878
3888,1879
3889,1865
3890,1839
3891,1827
3892,1834
3893,1861
3894,1869
3895,1874
3896,1861
3897,1879
3898,1856
3899,1840
3900,1833
3901,1835
3902,1859
3903,1856
3904,1868
3905,1871
3906,1859
3907,1848
3908,1841
3909,1842
3910,1875
3911,1857
3912,1852
3913,1831
3914,1862
3915,1841
3916,1850
3917,1840
3918,1856
3919,1876
3920,1875
3921,1877
3922,1869
3923,1845
3924,1840
3925,1830
3926,1861
3927,1859
3928,1841
3929,1840
3930,1867
3931,1861
3932,1845
3933,1841
3934,1857
3935,1862
3936,1872
3937,1885
3938,1873
3939,1861
3940,1839
3941,1834
3942,1839
3943,1872
3944,1877
3945,1872
3946,1870
3947,1878
3948,1873
3949,1847
3950,1849
3951,1871
3952,1883
3953,1883
3954,1878
3955,1866
3956,1849
3957,1831
3958,1831
3959,1845
3960,1864
3961,1873
3962,1872
3963,1867
3964,1876
3965,1852
3966,1843
3967,1845
3968,1871
3969,1881
3970,1885
3971,1856
3972,1863
3973,1853
3974,1837
3975,1840
3976,1844
3977,1870
3978,1863
3979,1878
3980,1875
3981,1870
3982,1846
3983,1854
3984,1843
3985,1865
3986,1874
3987,1884
3988,1869
3989,1859
3990,1840
3991,1831
3992,1840
3993,1863
3994,1840
3995,1845
3996,1869
3997,1874
3998,1861
3999,1850
4000,1847
4001,1879
4002,1888
4003,1889
4004,1888
4005,1875
4006,1861
4007,1833
4008,1833
4009,1852
4010,1869
4011,1854
4012,1858
4013,1850
4014,1897
4015,1845
4016,1843
4017,1837
4018,1887
4019,1904
4020,1883
4021,1888
4022,1856
4023,1845
4024,1835
4025,1825
4026,1873
4027,1856
4028,1874
4029,1856
4030,1890
4031,1883
4032,1845
4033,1840
4034,1840
4035,1855
4036,1904
4037,1904
4038,1877
4039,1872
4040,1831
4041,1822
4042,1826
4043,1872
4044,1877
4045,1863
4046,1877
4047,1843
4048,1847
4049,1829
4050,1835
4051,1863
4052,1903
4053,1895
4054,1882
4055,1871
4056,1858
4057,1831
4058,1813
4059,1842
4060,1879
4061,1869
4062,1887
4063,1840
4064,1875
4065,1851
4066,1851
4067,1847
4068,1898
4069,1903
4070,1884
4071,1856
4072,1878
4073,1840
4074,1815
4075,1813
4076,1859
4077,1870
4078,1853
4079,1877
4080,1895
4081,1871
4082,1855
4083,1856
4084,1883
4085,1854
4086,1901
4087,1897
4088,1917
4089,1871
4090,1827
4091,1823
4092,1826
4093,1869
4094,1857
4095,1865
4096,1849
4097,1872
4098,1863
4099,1841
4100,1846
4101,1888
4102,1890
4103,1895
4104,1885
4105,1872
4106,1843
4107,1809
4108,1811
4109,1838
4110,1872
4111,1877
4112,1872
4113,1873
4114,1879
4115,1839
4116,1841
4117,1815
4118,1873
4119,1889
4120,1892
4121,1885
4122,1843
4123,1837
4124,1822
4125,1823
4126,1859
4127,1873
4128,1854
4129,1856
4130,1892
4131,1866
4132,1843
4133,1840
4134,1856
4135,1852
4136,1884
4137,1897
4138,1909
4139,1854
4140,1819
4141,1809
4142,1834
4143,1872
4144,1845
4145,1863
4146,1870
4147,1879
4148,1866
4149,1847
4150,1839
4151,1856
4152,1877
4153,1883
4154,1890
4155,1875
4156,1856
4157,1826
4158,1819
4159,1861
4160,1847
4161,1883
4162,1846
4163,1873
4164,1877
4165,1840
4166,1840
4167,1805
4168,1867
4169,1910
4170,1888
4171,1887
4172,1872
4173,1842
4174,1827
4175,1831
4176,1888
4177,1857
4178,1872
4179,1870
4180,1889
4181,1874
4182,1842
4183,1838
4184,1874
4185,1872
4186,1888
4187,1893
4188,1863
4189,1867
4190,1827
4191,1825
4192,1806
4193,1879
4194,1869
4195,1861
4196,1871
4197,1871
4198,1852
4199,1841
4200,1847
4201,1868
4202,1910
4203,1900
4204,1857
4205,1885
4206,1847
4207,1829
4208,1823
4209,1830
4210,1875
4211,1865
4212,1873
4213,1869
4214,1858
4215,1844
4216,1840
4217,1851
4218,1853
4219,1885
4220,1897
4221,1887
4222,1856
4223,1840
4224,1823
4225,1822
4226,1857
4227,1849
4228,1856
4229,1856
4230,1871
4231,1857
4232,1839
4233,1843
4234,1858
4235,1881
4236,1895
4237,1894
4238,1879
4239,1871
4240,1837
4241,1825
4242,1831
4243,1869
4244,1859
4245,1872
4246,1863
4247,1866
4248,1854
4249,1844
4250,1849
4251,1851
4252,1877
4253,1896
4254,1869
4255,1873
4256,1849
4257,1824
4258,1825
4259,1834
4260,1871
4261,1872
4262,1887
4263,1882
4264,1873
4265,1848
4266,1846
4267,1827
4268,1878
4269,1890
4270,1888
4271,1884
4272,1893
4273,1840
4274,1815
4275,1818
4276,1839
4277,1867
4278,1863
4279,1897
4280,1882
4281,1866
4282,1840
4283,1846
4284,1861
4285,1882
4286,1901
4287,1904
4288,1854
4289,1859
4290,1833
4291,1826
4292,1819
4293,1843
4294,1873
4295,1849
4296,1872
4297,1872
4298,1854
4299,1847
4300,1840
4301,1866
4302,1865
4303,1903
4304,1878
4305,1886
4306,1848
4307,1823
4308,1827
4309,1856
4310,1904
4311,1870
4312,1856
4313,1871
4314,1873
4315,1840
4316,1837
4317,1838
4318,1891
4319,1871
4320,1874
4321,1899
4322,1872
4323,1836
4324,1823
4325,1830
4326,1866
4327,1883
4328,1872
4329,1883
4330,1885
4331,1864
4332,1830
4333,1835
4334,1840
4335,1884
4336,1901
4337,1901
4338,1889
4339,1867
4340,1826
4341,1821
4342,1858
4343,1858
4344,1872
4345,1859
4346,1840
4347,1862
4348,1845
4349,1840
4350,1847
4351,1854
4352,1891
4353,1885
4354,1881
4355,1861
4356,1856
4357,1827
4358,1823
4359,1853
4360,1872
4361,1849
4362,1845
4363,1870
4364,1864
4365,1843
4366,1851
4367,1870
4368,1855
4369,1879
4370,1889
4371,1877
4372,1907
4373,1839
4374,1833
4375,1828
4376,1843
4377,1843
4378,1849
4379,1874
4380,1870
4381,1868
4382,1841
4383,1847
4384,1863
4385,1873
4386,1862
4387,1891
4388,1893
4389,1871
4390,1826
4391,1818
4392,1834
4393,1862
4394,1891
4395,1845
4396,1875
4397,1885
4398,1856
4399,1844
4400,1843
4401,1856
4402,1865
4403,1900
4404,1871
4405,1873
4406,1841
4407,1813
4408,1825
4409,1840
4410,1872
4411,1886
4412,1863
4413,1873
4414,1872
4415,1851
4416,1852
4417,1820
4418,1870
4419,1886
4420,1911
4421,1887
4422,1841
4423,1840
4424,1824
4425,1822
4426,1862
4427,1869
4428,1893
4429,1886
4430,1861
4431,1866
4432,1850
4433,1840
4434,1847
4435,1872
4436,1872
4437,1885
4438,1856
4439,1855
4440,1822
4441,1816
4442,1856
4443,1873
4444,1865
4445,1846
4446,1870
4447,1872
4448,1849
4449,1847
4450,1846
4451,1849
4452,1891
4453,1898
4454,1891
4455,1898
4456,1856
4457,1825
4458,1829
4459,1846
4460,1859
4461,1875
4462,1870
4463,1891
4464,1872
4465,1840
4466,1840
4467,1855
4468,1873
4469,1894
4470,1897
4471,1891
4472,1843
4473,1837
4474,1831
4475,1827
4476,1840
4477,1862
4478,1870
4479,1873
4480,1872
4481,1859
4482,1836
4483,1843
4484,1869
4485,1884
4486,1887
4487,1859
4488,1878
4489,1869
4490,1834
4491,1830
4492,1853
4493,1853
4494,1873
4495,1843
4496,1872
4497,1872
4498,1846
4499,1848
4500,1853
4501,1867
4502,1884
4503,1863
4504,1898
4505,1891
4506,1850
4507,1820
4508,1834
4509,1827
4510,1867
4511,1881
4512,1872
4513,1840
4514,1863
4515,1846
4516,1851
4517,1871
4518,1873
4519,1872
4520,1883
4521,1895
4522,1863
4523,1840
4524,1815
4525,1821
4526,1863
4527,1861
4528,1840
4529,1863
4530,1887
4531,1860
4532,1858
4533,1845
4534,1865
4535,1887
4536,1885
4537,1887
4538,1887
4539,1868
4540,1836
4541,1820
4542,1840
4543,1850
4544,1861
4545,1887
4546,1871
4547,1885
4548,1848
4549,1847
4550,1852
4551,1869
4552,1907
4553,1883
4554,1871
4555,1875
4556,1837
4557,1827
4558,1822
4559,1837
4560,1876
4561,1868
4562,1872
4563,1894
4564,1870
4565,1846
4566,1853
4567,1854
4568,1892
4569,1873
4570,1885
4571,1873
4572,1855
4573,1840
4574,1823
4575,1829
4576,1843
4577,1873
4578,1872
4579,1900
4580,1872
4581,1865
4582,1849
4583,1843
4584,1886
4585,1891
4586,1878
4587,1870
4588,1874
4589,1863
4590,1835
4591,1826
4592,1851
4593,1894
4594,1870
4595,1879
4596,1872
4597,1872
4598,1851
4599,1840
4600,1834
4601,1873
4602,1889
4603,1878
4604,1882
4605,1899
4606,1845
4607,1823
4608,1819
4609,1858
4610,1855
4611,1859
4612,1872
4613,1872
4614,1867
4615,1839
4616,1840
4617,1847
4618,1873
4619,1895
4620,1871
4621,1878
4622,1872
4623,1835
4624,1828
4625,1840
4626,1841
4627,1869
4628,1862
4629,1853
4630,1865
4631,1855
4632,1840
4633,1850
4634,1883
4635,1890
4636,1899
4637,1905
4638,1872
4639,1867
4640,1833
4641,1825
4642,1861
4643,1873
4644,1883
4645,1871
4646,1869
4647,1872
4648,1840
4649,1838
4650,1822
4651,1865
4652,1866
4653,1872
4654,1867
4655,1859
4656,1846
4657,1830
4658,1829
4659,1824
4660,1871
4661,1856
4662,1858
4663,1856
4664,1872
4665,1857
4666,1856
4667,1853
4668,1873
4669,1893
4670,1869
4671,1882
4672,1871
4673,1835
4674,1835
4675,1829
4676,1863
4677,1868
4678,1857
4679,1877
4680,1856
4681,1862
4682,1843
4683,1851
4684,1867
4685,1866
4686,1887
4687,1891
4688,1893
4689,1852
4690,1830
4691,1836
4692,1849
4693,1876
4694,1872
4695,1882
4696,1870
4697,1872
4698,1847
4699,1849
4700,1845
4701,1872
4702,1903
4703,1880
4704,1887
4705,1863
4706,1840
4707,1815
4708,1823
4709,1869
4710,1853
4711,1847
4712,1840
4713,1868
4714,1865
4715,1853
4716,1855
4717,1825
4718,1882
4719,1895
4720,1872
4721,1878
4722,1874
4723,1840
4724,1822
4725,1829
4726,1868
4727,1872
4728,1869
4729,1875
4730,1893
4731,1862
4732,1842
4733,1850
4734,1861
4735,1893
4736,1906
4737,1876
4738,1847
4739,1862
4740,1825
4741,1823
4742,1847
4743,1858
4744,1887
4745,1872
4746,1869
4747,1886
4748,1858
4749,1846
4750,1827
4751,1870
4752,1907
4753,1883
4754,1866
4755,1872
4756,1836
4757,1824
4758,1819
4759,1857
4760,1861
4761,1840
4762,1852
4763,1872
4764,1862
4765,1839
4766,1840
4767,1863
4768,1853
4769,1890
4770,1872
4771,1858
4772,1875
4773,1833
4774,1823
4775,1827
4776,1856
4777,1856
4778,1872
4779,1874
4780,1869
4781,1854
4782,1845
4783,1845
4784,1867
4785,1889
4786,1894
4787,1871
4788,1886
4789,1860
4790,1824
4791,1821
4792,1819
4793,1875
4794,1844
4795,1885
4796,1849
4797,1883
4798,1850
4799,1838
4800,1840
4801,1865
4802,1890
4803,1873
4804,1887
4805,1872
4806,1840
4807,1824
4808,1826
4809,1856
4810,1889
4811,1862
4812,1877
4813,1876
4814,1874
4815,1850
4816,1849
4817,1873
4818,1856
4819,1322
4820,1746
4821,1937
4822,2000
4823,2064
4824,2165
4825,2267
4826,2336
4827,2347
4828,2298
4829,2251
4830,2118
4831,1969
4832,1881
4833,1765
4834,1681
4835,1623
4836,1513
4837,1439
4838,1372
4839,1348
4840,1331
4841,1422
4842,1532
4843,1665
4844,1730
4845,1839
4846,1855
4847,1895
4848,1891
4849,1897
4850,1411
4851,1744
4852,1989
4853,2064
4854,2119
4855,2247
4856,2335
4857,2384
4858,2381
4859,2321
4860,2254
4861,2125
4862,2039
4863,1953
4864,1808
4865,1616
4866,1471
4867,1423
4868,1395
4869,1349
4870,1351
4871,1456
4872,1593
4873,1663
4874,1738
4875,1808
4876,1861
4877,1909
4878,1936
4879,1936
4880,1942
4881,1396
4882,1715
4883,1984
4884,2064
4885,2130
4886,2224
4887,2302
4888,2403
4889,2416
4890,2341
4891,2203
4892,2075
4893,1995
4894,1881
4895,1749
4896,1653
4897,1520
4898,1364
4899,1285
4900,1284
4901,1391
4902,1508
4903,1648
4904,1755
4905,1782
4906,1844
4907,1863
4908,1872
4909,1920
4910,1935
4911,1958
4912,1909
4913,1658
4914,1939
4915,2010
4916,2103
4917,2247
4918,2337
4919,2432
4920,2448
4921,2331
4922,2214
4923,2046
4924,1936
4925,1818
4926,1699
4927,1572
4928,1408
4929,1375
4930,1296
4931,1264
4932,1330
4933,1502
4934,1671
4935,1777
4936,1872
4937,1920
4938,1921
4939,1920
4940,1912
4941,1914
4942,1943
4943,2200
4944,1597
4945,1922
4946,2046
4947,2113
4948,2236
4949,2407
4950,2454
4951,2458
4952,2333
4953,2171
4954,2064
4955,1942
4956,1805
4957,1631
4958,1465
4959,1362
4960,1338
4961,1319
4962,1264
4963,1392
4964,1535
4965,1642
4966,1772
4967,1857
4968,1904
4969,1918
4970,1949
4971,1968
4972,1968
4973,1938
4974,2341
4975,1587
4976,1907
4977,1988
4978,2103
4979,2195
4980,2354
4981,2450
4982,2422
4983,2298
4984,2170
4985,2065
4986,1995
4987,1870
4988,1679
4989,1489
4990,1330
4991,1251
4992,1201
4993,1274
4994,1413
4995,1589
4996,1718
4997,1810
4998,1862
4999,1891
5000,1909
5001,1968
5002,1984
5003,2011
5004,1974
5005,1779
5006,1452
5007,1869
5008,1998
5009,2115
5010,2193
5011,2319
5012,2410
5013,2462
5014,2331
5015,2176
5016,2039
5017,1960
5018,1840
5019,1682
5020,1535
5021,1403
5022,1307
5023,1205
5024,1217
5025,1399
5026,1565
5027,1727
5028,1814
5029,1874
5030,1906
5031,1936
5032,1934
5033,1938
5034,1969
5035,1970
5036,1956
5037,1535
5038,1857
5039,1998
5040,2065
5041,2189
5042,2415
5043,2457
5044,2434
5045,2332
5046,2155
5047,2066
5048,1925
5049,1790
5050,1643
5051,1513
5052,1398
5053,1346
5054,1268
5055,1312
5056,1383
5057,1535
5058,1666
5059,1798
5060,1883
5061,1890
5062,1904
5063,1943
5064,1959
5065,1936
5066,1951
5067,1955
5068,1742
5069,1813
5070,1945
5071,2034
5072,2135
5073,2337
5074,2449
5075,2387
5076,2320
5077,2206
5078,2059
5079,1938
5080,1831
5081,1639
5082,1445
5083,1323
5084,1287
5085,1319
5086,1328
5087,1429
5088,1577
5089,1681
5090,1772
5091,1840
5092,1904
5093,1913
5094,1937
5095,1932
5096,1955
5097,1974
5098,1955
5099,1825
5100,1778
5101,1958
5102,2058
5103,2160
5104,2318
5105,2453
5106,2445
5107,2323
5108,2189
5109,2091
5110,1982
5111,1837
5112,1677
5113,1520
5114,1375
5115,1245
5116,1200
5117,1243
5118,1375
5119,1600
5120,1715
5121,1809
5122,1871
5123,1879
5124,1894
5125,1887
5126,1961
5127,1956
5128,1984
5129,1939
5130,1930
5131,1750
5132,1949
5133,2039
5134,2162
5135,2294
5136,2491
5137,2438
5138,2359
5139,2219
5140,2069
5141,1946
5142,1818
5143,1711
5144,1506
5145,1376
5146,1328
5147,1276
5148,1211
5149,1328
5150,1531
5151,1654
5152,1827
5153,1885
5154,1899
5155,1962
5156,1919
5157,1913
5158,1929
5159,1969
5160,1979
5161,2145
5162,1664
5163,1930
5164,2032
5165,2128
5166,2306
5167,2480
5168,2438
5169,2406
5170,2233
5171,2131
5172,2011
5173,1842
5174,1669
5175,1461
5176,1419
5177,1323
5178,1287
5179,1255
5180,1373
5181,1519
5182,1642
5183,1750
5184,1855
5185,1873
5186,1941
5187,1949
5188,1962
5189,1959
5190,1936
5191,1934
5192,1980
5193,1697
5194,1904
5195,2019
5196,2096
5197,2226
5198,2441
5199,2483
5200,2368
5201,2255
5202,2135
5203,2085
5204,1926
5205,1802
5206,1527
5207,1353
5208,1264
5209,1249
5210,1291
5211,1335
5212,1515
5213,1636
5214,1737
5215,1805
5216,1859
5217,1902
5218,1949
5219,1972
5220,1975
5221,1979
5222,1955
5223,1790
5224,1694
5225,1873
5226,1991
5227,2064
5228,2207
5229,2384
5230,2453
5231,2393
5232,2288
5233,2175
5234,2075
5235,1951
5236,1803
5237,1614
5238,1434
5239,1293
5240,1177
5241,1157
5242,1245
5243,1481
5244,1621
5245,1732
5246,1850
5247,1879
5248,1894
5249,1914
5250,1942
5251,1956
5252,1968
5253,2000
5254,1883
5255,1810
5256,1877
5257,1962
5258,2053
5259,2193
5260,2384
5261,2454
5262,2411
5263,2333
5264,2192
5265,2064
5266,1921
5267,1783
5268,1627
5269,1457
5270,1350
5271,1271
5272,1219
5273,1250
5274,1409
5275,1562
5276,1721
5277,1791
5278,1866
5279,1915
5280,1963
5281,1936
5282,1954
5283,1951
5284,1973
5285,1994
5286,1869
5287,1856
5288,1977
5289,2054
5290,2179
5291,2375
5292,2523
5293,2433
5294,2331
5295,2229
5296,2115
5297,1999
5298,1783
5299,1584
5300,1411
5301,1340
5302,1279
5303,1191
5304,1266
5305,1392
5306,1518
5307,1638
5308,1757
5309,1854
5310,1888
5311,1937
5312,1935
5313,1974
5314,1968
5315,1968
5316,1965
5317,1975
5318,1824
5319,1947
5320,2034
5321,2123
5322,2319
5323,2485
5324,2434
5325,2313
5326,2224
5327,2112
5328,2019
5329,1840
5330,1698
5331,1428
5332,1266
5333,1185
5334,1201
5335,1239
5336,1407
5337,1571
5338,1701
5339,1776
5340,1821
5341,1872
5342,1937
5343,1989
5344,1941
5345,1978
5346,1984
5347,1989
5348,2198
5349,1779
5350,1926
5351,2027
5352,2117
5353,2311
5354,2464
5355,2420
5356,2320
5357,2221
5358,2112
5359,2010
5360,1839
5361,1682
5362,1494
5363,1355
5364,1232
5365,1136
5366,1175
5367,1371
5368,1582
5369,1671
5370,1791
5371,1827
5372,1903
5373,1904
5374,1919
5375,1923
5376,1968
5377,1975
5378,1965
5379,2241
5380,1840
5381,1935
5382,2013
5383,2125
5384,2333
5385,2463
5386,2493
5387,2353
5388,2255
5389,2129
5390,1971
5391,1827
5392,1661
5393,1474
5394,1367
5395,1235
5396,1230
5397,1226
5398,1327
5399,1502
5400,1652
5401,1789
5402,1863
5403,1909
5404,1935
5405,1952
5406,1936
5407,1935
5408,1940
5409,1943
5410,1999
5411,1826
5412,1920
5413,1989
5414,2126
5415,2292
5416,2483
5417,2514
5418,2378
5419,2250
5420,2183
5421,2037
5422,1872
5423,1647
5424,1447
5425,1290
5426,1262
5427,1234
5428,1229
5429,1349
5430,1526
5431,1626
5432,1734
5433,1807
5434,1894
5435,1945
5436,1968
5437,1998
5438,1978
5439,1967
5440,1949
5441,1936
5442,1955
5443,1968
5444,1957
5445,1968
5446,1939
5447,1929
5448,1903
5449,1894
5450,1876
5451,1922
5452,1922
5453,1933
5454,1919
5455,1885
5456,1841
5457,1841
5458,1838
5459,1882
5460,1886
5461,1841
5462,1889
5463,1885
5464,1865
5465,1841
5466,1851
5467,1842
5468,1861
5469,1868
5470,1871
5471,1885
5472,1858
5473,1840
5474,1827
5475,1847
5476,1866
5477,1851
5478,1881
5479,1848
5480,1896
5481,1854
5482,1839
5483,1840
5484,1872
5485,1904
5486,1879
5487,1872
5488,1875
5489,1851
5490,1833
5491,1838
5492,1854
5493,1872
5494,1844
5495,1863
5496,1850
5497,1869
5498,1841
5499,1850
5500,1866
5501,1881
5502,1862
5503,1872
5504,1885
5505,1872
5506,1841
5507,1819
5508,1826
5509,1856
5510,1859
5511,1855
5512,1865
5513,1871
5514,1854
5515,1833
5516,1835
5517,1849
5518,1872
5519,1873
5520,1856
5521,1863
5522,1847
5523,1829
5524,1817
5525,1817
5526,1863
5527,1870
5528,1854
5529,1861
5530,1870
5531,1840
5532,1840
5533,1840
5534,1872
5535,1877
5536,1893
5537,1856
5538,1859
5539,1842
5540,1825
5541,1829
5542,1856
5543,1885
5544,1855
5545,1859
5546,1851
5547,1856
5548,1837
5549,1828
5550,1842
5551,1878
5552,1879
5553,1883
5554,1861
5555,1876
5556,1839
5557,1823
5558,1826
5559,1858
5560,1856
5561,1873
5562,1859
5563,1863
5564,1863
5565,1849
5566,1842
5567,1859
5568,1859
5569,1883
5570,1877
5571,1872
5572,1856
5573,1828
5574,1827
5575,1818
5576,1879
5577,1853
5578,1869
5579,1869
5580,1884
5581,1855
5582,1838
5583,1841
5584,1878
5585,1870
5586,1892
5587,1899
5588,1872
5589,1845
5590,1827
5591,1825
5592,1857
5593,1879
5594,1875
5595,1860
5596,1875
5597,1873
5598,1841
5599,1839
5600,1855
5601,1898
5602,1886
5603,1884
5604,1899
5605,1856
5606,1835
5607,1814
5608,1823
5609,1859
5610,1874
5611,1872
5612,1874
5613,1879
5614,1856
5615,1840
5616,1840
5617,1857
5618,1885
5619,1887
5620,1867
5621,1879
5622,1856
5623,1830
5624,1823
5625,1843
5626,1872
5627,1872
5628,1876
5629,1872
5630,1878
5631,1850
5632,1840
5633,1850
5634,1874
5635,1883
5636,1873
5637,1895
5638,1872
5639,1840
5640,1812
5641,1818
5642,1829
5643,1885
5644,1870
5645,1855
5646,1881
5647,1877
5648,1837
5649,1839
5650,1851
5651,1871
5652,1907
5653,1873
5654,1887
5655,1872
5656,1834
5657,1829
5658,1823
5659,1870
5660,1867
5661,1874
5662,1855
5663,1856
5664,1857
5665,1826
5666,1840
5667,1858
5668,1879
5669,1893
5670,1907
5671,1886
5672,1861
5673,1824
5674,1829
5675,1841
5676,1875
5677,1875
5678,1862
5679,1879
5680,1881
5681,1850
5682,1835
5683,1838
5684,1873
5685,1890
5686,1898
5687,1891
5688,1875
5689,1843
5690,1825
5691,1827
5692,1879
5693,1856
5694,1879
5695,1881
5696,1872
5697,1872
5698,1840
5699,1841
5700,1877
5701,1862
5702,1885
5703,1891
5704,1903
5705,1874
5706,1840
5707,1823
5708,1821
5709,1862
5710,1872
5711,1851
5712,1858
5713,1859
5714,1861
5715,1846
5716,1842
5717,1887
5718,1889
5719,1891
5720,1898
5721,1861
5722,1867
5723,1827
5724,1821
5725,1840
5726,1858
5727,1840
5728,1874
5729,1889
5730,1872
5731,1843
5732,1841
5733,1847
5734,1891
5735,1904
5736,1906
5737,1872
5738,1889
5739,1842
5740,1822
5741,1815
5742,1846
5743,1891
5744,1865
5745,1872
5746,1889
5747,1878
5748,1834
5749,1839
5750,1840
5751,1847
5752,1904
5753,1867
5754,1904
5755,1874
5756,1830
5757,1823
5758,1819
5759,1845
5760,1859
5761,1898
5762,1874
5763,1875
5764,1866
5765,1838
5766,1837
5767,1887
5768,1883
5769,1871
5770,1877
5771,1878
5772,1867
5773,1829
5774,1823
5775,1823
5776,1872
5777,1875
5778,1866
5779,1851
5780,1877
5781,1851
5782,1843
5783,1809
5784,1876
5785,1890
5786,1879
5787,1877
5788,1871
5789,1842
5790,1812
5791,1826
5792,1854
5793,1874
5794,1883
5795,1867
5796,1877
5797,1872
5798,1845
5799,1845
5800,1856
5801,1874
5802,1857
5803,1888
5804,1889
5805,1867
5806,1835
5807,1819
5808,1825
5809,1869
5810,1873
5811,1871
5812,1904
5813,1881
5814,1869
5815,1843
5816,1835
5817,1858
5818,1886
5819,1856
5820,1863
5821,1875
5822,1856
5823,1826
5824,1819
5825,1830
5826,1872
5827,1863
5828,1856
5829,1851
5830,1863
5831,1843
5832,1842
5833,1846
5834,1885
5835,1881
5836,1872
5837,1879
5838,1903
5839,1841
5840,1819
5841,1825
5842,1871
5843,1865
5844,1862
5845,1886
5846,1871
5847,1864
5848,1841
5849,1840
5850,1863
5851,1879
5852,1901
5853,1907
5854,1902
5855,1873
5856,1836
5857,1818
5858,1823
5859,1872
5860,1885
5861,1873
5862,1873
5863,1899
5864,1859
5865,1853
5866,1845
5867,1856
5868,1869
5869,1888
5870,1883
5871,1853
5872,1845
5873,1826
5874,1822
5875,1840
5876,1843
5877,1868
5878,1857
5879,1873
5880,1857
5881,1851
5882,1841
5883,1838
5884,1877
5885,1890
5886,1898
5887,1863
5888,1840
5889,1840
5890,1822
5891,1823
5892,1859
5893,1872
5894,1867
5895,1843
5896,1869
5897,1872
5898,1840
5899,1840
5900,1847
5901,1907
5902,1901
5903,1859
5904,1887
5905,1857
5906,1827
5907,1819
5908,1823
5909,1882
5910,1843
5911,1878
5912,1851
5913,1872
5914,1866
5915,1842
5916,1840
5917,1877
5918,1889
5919,1873
5920,1877
5921,1882
5922,1863
5923,1818
5924,1822
5925,1846
5926,1845
5927,1872
5928,1863
5929,1856
5930,1872
5931,1851
5932,1846
5933,1851
5934,1852
5935,1858
5936,1901
5937,1882
5938,1850
5939,1829
5940,1814
5941,1818
5942,1874
5943,1894
5944,1872
5945,1840
5946,1877
5947,1871
5948,1847
5949,1843
5950,1842
5951,1911
5952,1886
5953,1890
5954,1884
5955,1861
5956,1837
5957,1818
5958,1821
5959,1863
5960,1870
5961,1872
5962,1847
5963,1899
5964,1857
5965,1839
5966,1839
5967,1869
5968,1867
5969,1905
5970,1860
5971,1860
5972,1856
5973,1823
5974,1815
5975,1824
5976,1878
5977,1872
5978,1843
5979,1849
5980,1887
5981,1853
5982,1845
5983,1850
5984,1853
5985,1893
5986,1896
5987,1894
5988,1888
5989,1837
5990,1823
5991,1833
5992,1840
5993,1872
5994,1844
5995,1871
5996,1845
5997,1853
5998,1840
5999,1847
6000,1835
6001,1872
6002,1872
6003,1887
6004,1882
6005,1866
6006,1830
6007,1818
6008,1827
6009,1860
6010,1883
6011,1866
6012,1877
6013,1855
6014,1851
6015,1839
6016,1841
6017,1871
6018,1886
6019,1897
6020,1879
6021,1876
6022,1844
6023,1823
6024,1825
6025,1825
6026,1871
6027,1853
6028,1862
6029,1872
6030,1859
6031,1837
6032,1842
6033,1846
6034,1892
6035,1873
6036,1897
6037,1880
6038,1872
6039,1840
6040,1810
6041,1830
6042,1835
6043,1872
6044,1871
6045,1887
6046,1873
6047,1861
6048,1840
6049,1847
6050,1868
6051,1890
6052,1901
6053,1894
6054,1901
6055,1854
6056,1823
6057,1814
6058,1834
6059,1849
6060,1886
6061,1851
6062,1869
6063,1873
6064,1854
6065,1842
6066,1856
6067,1869
6068,1899
6069,1902
6070,1900
6071,1877
6072,1855
6073,1811
6074,1822
6075,1836
6076,1875
6077,1870
6078,1872
6079,1872
6080,1856
6081,1846
6082,1845
6083,1855
6084,1879
6085,1869
6086,1904
6087,1877
6088,1872
6089,1840
6090,1822
6091,1830
6092,1866
6093,1888
6094,1875
6095,1882
6096,1847
6097,1863
6098,1840
6099,1853
6100,1847
6101,1880
6102,1901
6103,1869
6104,1863
6105,1866
6106,1835
6107,1820
6108,1814
6109,1872
6110,1877
6111,1875
6112,1856
6113,1863
6114,1859
6115,1839
6116,1844
6117,1878
6118,1876
6119,1888
6120,1856
6121,1877
6122,1851
6123,1821
6124,1821
6125,1823
6126,1873
6127,1872
6128,1859
6129,1879
6130,1846
6131,1851
6132,1840
6133,1852
6134,1861
6135,1884
6136,1890
6137,1868
6138,1855
6139,1840
6140,1835
6141,1833
6142,1841
6143,1857
6144,1872
6145,1862
6146,1867
6147,1858
6148,1843
6149,1844
6150,1860
6151,1890
6152,1872
6153,1891
6154,1858
6155,1866
6156,1839
6157,1825
6158,1831
6159,1870
6160,1861
6161,1849
6162,1869
6163,1865
6164,1847
6165,1845
6166,1846
6167,1887
6168,1885
6169,1883
6170,1874
6171,1859
6172,1855
6173,1831
6174,1829
6175,1846
6176,1873
6177,1869
6178,1861
6179,1871
6180,1888
6181,1851
6182,1856
6183,1859
6184,1883
6185,1887
6186,1869
6187,1876
6188,1872
6189,1845
6190,1821
6191,1822
6192,1842
6193,1847
6194,1872
6195,1872
6196,1894
6197,1865
6198,1842
6199,1840
6200,1876
6201,1893
6202,1890
6203,1883
6204,1864
6205,1859
6206,1823
6207,1815
6208,1835
6209,1886
6210,1856
6211,1861
6212,1873
6213,1861
6214,1856
6215,1849
6216,1837
6217,1851
6218,1895
6219,1887
6220,1903
6221,1862
6222,1842
6223,1827
6224,1825
6225,1840
6226,1878
6227,1872
6228,1887
6229,1865
6230,1885
6231,1848
6232,1847
6233,1855
6234,1883
6235,1862
6236,1867
6237,1901
6238,1845
6239,1823
6240,1811
6241,1814
6242,1867
6243,1850
6244,1872
6245,1888
6246,1879
6247,1865
6248,1843
6249,1845
6250,1856
6251,1884
6252,1874
6253,1868
6254,1874
6255,1866
6256,1837
6257,1821
6258,1838
6259,1873
6260,1876
6261,1872
6262,1845
6263,1904
6264,1856
6265,1833
6266,1831
6267,1879
6268,1866
6269,1899
6270,1871
6271,1889
6272,1842
6273,1823
6274,1823
6275,1871
6276,1858
6277,1856
6278,1867
6279,1868
6280,1884
6281,1850
6282,1840
6283,1850
6284,1875
6285,1887
6286,1887
6287,1863
6288,1879
6289,1837
6290,1822
6291,1827
6292,1854
6293,1873
6294,1869
6295,1879
6296,1856
6297,1862
6298,1841
6299,1851
6300,1865
6301,1871
6302,1872
6303,1884
6304,1878
6305,1851
6306,1836
6307,1827
6308,1837
6309,1875
6310,1872
6311,1858
6312,1872
6313,1879
6314,1863
6315,1845
6316,1838
6317,1865
6318,1904
6319,1871
6320,1872
6321,1875
6322,1847
6323,1837
6324,1818
6325,1843
6326,1865
6327,1879
6328,1851
6329,1893
6330,1875
6331,1847
6332,1849
6333,1867
6334,1879
6335,1873
6336,1890
6337,1873
6338,1854
6339,1840
6340,1819
6341,1823
6342,1866
6343,1872
6344,1846
6345,1901
6346,1867
6347,1872
6348,1846
6349,1843
6350,1863
6351,1865
6352,1891
6353,1870
6354,1877
6355,1869
6356,1830
6357,1817
6358,1850
6359,1874
6360,1840
6361,1850
6362,1878
6363,1877
6364,1849
6365,1840
6366,1849
6367,1856
6368,1897
6369,1872
6370,1887
6371,1847
6372,1851
6373,1826
6374,1830
6375,1858
6376,1907
6377,1869
6378,1872
6379,1841
6380,1884
6381,1845
6382,1831
6383,1856
6384,1875
6385,1869
6386,1877
6387,1872
6388,1866
6389,1841
6390,1824
6391,1824
6392,1845
6393,1851
6394,1894
6395,1873
6396,1872
6397,1872
6398,1845
6399,1846
6400,1878
6401,1886
6402,1886
6403,1864
6404,1883
6405,1871
6406,1834
6407,1813
6408,1840
6409,1867
6410,1853
6411,1873
6412,1873
6413,1878
6414,1845
6415,1834
6416,1837
6417,1846
6418,1881
6419,1888
6420,1881
6421,1885
6422,1841
6423,1825
6424,1828
6425,1851
6426,1875
6427,1853
6428,1888
6429,1859
6430,1862
6431,1845
6432,1855
6433,1848
6434,1875
6435,1899
6436,1890
6437,1870
6438,1456
6439,1719
6440,1846
6441,1893
6442,1997
6443,2109
6444,2209
6445,2266
6446,2359
6447,2321
6448,2247
6449,2129
6450,2032
6451,1946
6452,1866
6453,1771
6454,1648
6455,1520
6456,1397
6457,1328
6458,1314
6459,1360
6460,1473
6461,1579
6462,1674
6463,1747
6464,1771
6465,1808
6466,1853
6467,1901
6468,1921
6469,1443
6470,1733
6471,1942
6472,1998
6473,2059
6474,2160
6475,2269
6476,2371
6477,2397
6478,2375
6479,2269
6480,2174
6481,2058
6482,1975
6483,1824
6484,1719
6485,1616
6486,1510
6487,1408
6488,1366
6489,1264
6490,1323
6491,1472
6492,1618
6493,1759
6494,1827
6495,1856
6496,1936
6497,1920
6498,1914
6499,1916
6500,1520
6501,1691
6502,1953
6503,2025
6504,2130
6505,2206
6506,2329
6507,2431
6508,2486
6509,2373
6510,2255
6511,2166
6512,2046
6513,1952
6514,1778
6515,1613
6516,1436
6517,1351
6518,1349
6519,1303
6520,1329
6521,1450
6522,1535
6523,1648
6524,1743
6525,1856
6526,1890
6527,1926
6528,1919
6529,1940
6530,1953
6531,2058
6532,1681
6533,1926
6534,2007
6535,2080
6536,2152
6537,2319
6538,2426
6539,2480
6540,2381
6541,2245
6542,2128
6543,2035
6544,1936
6545,1819
6546,1627
6547,1457
6548,1296
6549,1213
6550,1175
6551,1351
6552,1468
6553,1601
6554,1733
6555,1797
6556,1840
6557,1856
6558,1856
6559,1958
6560,1923
6561,1968
6562,2209
6563,1660
6564,1939
6565,2005
6566,2078
6567,2198
6568,2367
6569,2501
6570,2521
6571,2409
6572,2249
6573,2101
6574,1969
6575,1897
6576,1775
6577,1568
6578,1463
6579,1344
6580,1261
6581,1151
6582,1263
6583,1411
6584,1619
6585,1778
6586,1833
6587,1888
6588,1913
6589,1897
6590,1914
6591,1915
6592,1942
6593,2181
6594,1680
6595,1915
6596,1990
6597,2065
6598,2171
6599,2383
6600,2495
6601,2481
6602,2412
6603,2277
6604,2147
6605,2026
6606,1872
6607,1682
6608,1520
6609,1417
6610,1286
6611,1269
6612,1200
6613,1317
6614,1450
6615,1578
6616,1727
6617,1835
6618,1893
6619,1914
6620,1939
6621,1929
6622,1936
6623,1922
6624,1751
6625,1721
6626,1861
6627,1943
6628,2011
6629,2089
6630,2306
6631,2448
6632,2480
6633,2396
6634,2287
6635,2175
6636,2064
6637,1919
6638,1762
6639,1535
6640,1346
6641,1240
6642,1241
6643,1242
6644,1333
6645,1467
6646,1618
6647,1734
6648,1792
6649,1852
6650,1881
6651,1951
6652,1963
6653,2000
6654,1995
6655,1948
6656,1771
6657,1837
6658,1936
6659,1968
6660,2073
6661,2246
6662,2400
6663,2442
6664,2384
6665,2259
6666,2154
6667,2063
6668,1915
6669,1816
6670,1633
6671,1452
6672,1272
6673,1159
6674,1155
6675,1335
6676,1492
6677,1621
6678,1728
6679,1791
6680,1889
6681,1881
6682,1900
6683,1936
6684,1942
6685,1954
6686,1957
6687,1925
6688,1841
6689,1908
6690,1957
6691,2070
6692,2269
6693,2390
6694,2441
6695,2377
6696,2254
6697,2174
6698,2064
6699,1937
6700,1814
6701,1650
6702,1435
6703,1349
6704,1211
6705,1194
6706,1270
6707,1424
6708,1619
6709,1727
6710,1800
6711,1874
6712,1911
6713,1936
6714,1926
6715,1931
6716,1966
6717,1974
6718,1970
6719,1822
6720,1933
6721,1939
6722,2039
6723,2209
6724,2384
6725,2431
6726,2337
6727,2271
6728,2172
6729,2086
6730,1968
6731,1792
6732,1604
6733,1414
6734,1296
6735,1264
6736,1200
6737,1335
6738,1456
6739,1535
6740,1683
6741,1777
6742,1864
6743,1909
6744,1926
6745,1925
6746,1961
6747,1951
6748,1936
6749,2115
6750,1808
6751,1915
6752,1987
6753,2038
6754,2206
6755,2366
6756,2406
6757,2327
6758,2249
6759,2192
6760,2064
6761,2015
6762,1854
6763,1712
6764,1453
6765,1289
6766,1167
6767,1171
6768,1327
6769,1483
6770,1572
6771,1727
6772,1778
6773,1840
6774,1885
6775,1933
6776,1936
6777,1930
6778,1931
6779,1982
6780,2186
6781,1789
6782,1913
6783,1936
6784,2033
6785,2176
6786,2337
6787,2391
6788,2343
6789,2275
6790,2199
6791,2109
6792,2032
6793,1892
6794,1727
6795,1535
6796,1342
6797,1216
6798,1130
6799,1218
6800,1407
6801,1591
6802,1711
6803,1804
6804,1867
6805,1883
6806,1883
6807,1915
6808,1959
6809,1978
6810,1980
6811,1876
6812,1841
6813,1902
6814,1968
6815,2034
6816,2180
6817,2318
6818,2389
6819,2366
6820,2266
6821,2206
6822,2111
6823,1994
6824,1876
6825,1723
6826,1526
6827,1347
6828,1271
6829,1188
6830,1264
6831,1383
6832,1493
6833,1698
6834,1746
6835,1856
6836,1894
6837,1898
6838,1935
6839,1911
6840,1930
6841,1930
6842,1805
6843,1872
6844,1926
6845,1934
6846,2027
6847,2144
6848,2357
6849,2423
6850,2381
6851,2279
6852,2217
6853,2100
6854,2027
6855,1887
6856,1680
6857,1478
6858,1347
6859,1286
6860,1200
6861,1241
6862,1424
6863,1535
6864,1664
6865,1744
6866,1797
6867,1886
6868,1905
6869,1951
6870,1988
6871,1937
6872,1965
6873,1936
6874,1846
6875,1831
6876,1929
6877,1974
6878,2118
6879,2283
6880,2389
6881,2370
6882,2289
6883,2239
6884,2164
6885,2070
6886,1967
6887,1765
6888,1584
6889,1333
6890,1209
6891,1120
6892,1233
6893,1338
6894,1535
6895,1664
6896,1745
6897,1819
6898,1857
6899,1902
6900,1906
6901,1947
6902,1995
6903,1987
6904,1983
6905,1922
6906,1841
6907,1941
6908,2022
6909,2065
6910,2225
6911,2396
6912,2367
6913,2313
6914,2245
6915,2174
6916,2064
6917,1959
6918,1824
6919,1599
6920,1417
6921,1302
6922,1150
6923,1135
6924,1328
6925,1477
6926,1643
6927,1746
6928,1814
6929,1872
6930,1891
6931,1913
6932,1933
6933,1935
6934,1995
6935,1998
6936,2047
6937,1868
6938,1936
6939,1973
6940,2064
6941,2244
6942,2414
6943,2373
6944,2304
6945,2257
6946,2176
6947,2082
6948,1967
6949,1793
6950,1600
6951,1451
6952,1298
6953,1227
6954,1238
6955,1342
6956,1455
6957,1562
6958,1726
6959,1806
6960,1837
6961,1871
6962,1912
6963,1949
6964,1952
6965,1951
6966,1957
6967,2084
6968,1825
6969,1947
6970,1996
6971,2030
6972,2235
6973,2405
6974,2362
6975,2291
6976,2242
6977,2179
6978,2083
6979,2012
6980,1818
6981,1601
6982,1407
6983,1281
6984,1232
6985,1199
6986,1351
6987,1487
6988,1582
6989,1713
6990,1774
6991,1822
6992,1885
6993,1926
6994,1947
6995,1929
6996,1968
6997,1963
6998,2183
6999,1793
7000,1907
7001,1968
7002,2064
7003,2194
7004,2377
7005,2377
7006,2288
7007,2235
7008,2195
7009,2098
7010,1963
7011,1853
7012,1690
7013,1484
7014,1264
7015,1127
7016,1082
7017,1296
7018,1396
7019,1563
7020,1700
7021,1774
7022,1777
7023,1812
7024,1825
7025,1872
7026,1920
7027,1947
7028,1936
7029,1908
7030,1818
7031,1891
7032,1951
7033,2019
7034,2163
7035,2333
7036,2389
7037,2320
7038,2256
7039,2208
7040,2099
7041,1998
7042,1937
7043,1743
7044,1563
7045,1382
7046,1263
7047,1159
7048,1243
7049,1389
7050,1584
7051,1707
7052,1785
7053,1891
7054,1869
7055,1919
7056,1929
7057,1939
7058,1982
7059,1993
7060,1974
7061,1932
7062,1957
7063,1948
7064,1942
7065,1938
7066,1936
7067,1943
7068,1948
7069,1968
7070,1919
7071,1936
7072,1891
7073,1869
7074,1871
7075,1872
7076,1905
7077,1872
7078,1872
7079,1855
7080,1873
7081,1857
7082,1847
7083,1870
7084,1893
7085,1895
7086,1843
7087,1899
7088,1882
7089,1839
7090,1838
7091,1850
7092,1877
7093,1866
7094,1873
7095,1869
7096,1837
7097,1840
7098,1830
7099,1850
7100,1853
7101,1870
7102,1885
7103,1882
7104,1871
7105,1857
7106,1825
7107,1821
7108,1849
7109,1907
7110,1862
7111,1887
7112,1858
7113,1875
7114,1845
7115,1848
7116,1851
7117,1885
7118,1882
7119,1893
7120,1867
7121,1870
7122,1856
7123,1822
7124,1825
7125,1878
7126,1840
7127,1840
7128,1866
7129,1855
7130,1870
7131,1853
7132,1840
7133,1857
7134,1875
7135,1824
7136,1890
7137,1842
7138,1877
7139,1823
7140,1818
7141,1807
7142,1873
7143,1869
7144,1859
7145,1854
7146,1856
7147,1840
7148,1840
7149,1827
7150,1840
7151,1855
7152,1859
7153,1855
7154,1875
7155,1846
7156,1834
7157,1835
7158,1856
7159,1882
7160,1867
7161,1856
7162,1840
7163,1867
7164,1844
7165,1831
7166,1822
7167,1855
7168,1853
7169,1887
7170,1871
7171,1893
7172,1847
7173,1826
7174,1824
7175,1840
7176,1875
7177,1846
7178,1872
7179,1854
7180,1858
7181,1834
7182,1840
7183,1859
7184,1871
7185,1886
7186,1865
7187,1878
7188,1870
7189,1834
7190,1819
7191,1810
7192,1872
7193,1869
7194,1863
7195,1868
7196,1853
7197,1841
7198,1834
7199,1840
7200,1861
7201,1883
7202,1882
7203,1902
7204,1882
7205,1859
7206,1826
7207,1823
7208,1846
7209,1877
7210,1894
7211,1873
7212,1886
7213,1878
7214,1841
7215,1840
7216,1853
7217,1855
7218,1891
7219,1867
7220,1872
7221,1856
7222,1845
7223,1830
7224,1823
7225,1853
7226,1877
7227,1856
7228,1846
7229,1863
7230,1863
7231,1831
7232,1839
7233,1847
7234,1872
7235,1898
7236,1894
7237,1874
7238,1873
7239,1835
7240,1823
7241,1827
7242,1898
7243,1888
7244,1881
7245,1875
7246,1874
7247,1861
7248,1845
7249,1840
7250,1863
7251,1885
7252,1879
7253,1872
7254,1891
7255,1858
7256,1838
7257,1830
7258,1844
7259,1891
7260,1872
7261,1885
7262,1894
7263,1885
7264,1858
7265,1851
7266,1869
7267,1855
7268,1872
7269,1895
7270,1888
7271,1879
7272,1850
7273,1837
7274,1829
7275,1872
7276,1898
7277,1885
7278,1855
7279,1872
7280,1869
7281,1840
7282,1840
7283,1846
7284,1878
7285,1870
7286,1863
7287,1872
7288,1866
7289,1830
7290,1822
7291,1827
7292,1872
7293,1879
7294,1886
7295,1885
7296,1878
7297,1855
7298,1839
7299,1841
7300,1871
7301,1889
7302,1896
7303,1883
7304,1882
7305,1855
7306,1830
7307,1827
7308,1854
7309,1886
7310,1867
7311,1887
7312,1845
7313,1851
7314,1843
7315,1838
7316,1850
7317,1867
7318,1873
7319,1879
7320,1867
7321,1875
7322,1826
7323,1813
7324,1813
7325,1857
7326,1867
7327,1851
7328,1869
7329,1855
7330,1858
7331,1820
7332,1827
7333,1835
7334,1871
7335,1872
7336,1871
7337,1852
7338,1856
7339,1820
7340,1808
7341,1823
7342,1851
7343,1851
7344,1857
7345,1840
7346,1860
7347,1842
7348,1823
7349,1829
7350,1857
7351,1878
7352,1860
7353,1878
7354,1878
7355,1858
7356,1818
7357,1826
7358,1863
7359,1867
7360,1882
7361,1853
7362,1870
7363,1840
7364,1840
7365,1835
7366,1841
7367,1842
7368,1873
7369,1883
7370,1877
7371,1843
7372,1834
7373,1811
7374,1807
7375,1846
7376,1863
7377,1847
7378,1847
7379,1855
7380,1842
7381,1811
7382,1819
7383,1813
7384,1859
7385,1841
7386,1882
7387,1826
7388,1858
7389,1798
7390,1791
7391,1792
7392,1872
7393,1871
7394,1858
7395,1856
7396,1843
7397,1817
7398,1807
7399,1823
7400,1845
7401,1860
7402,1867
7403,1895
7404,1872
7405,1829
7406,1798
7407,1779
7408,1808
7409,1846
7410,1858
7411,1840
7412,1813
7413,1830
7414,1794
7415,1791
7416,1763
7417,1816
7418,1845
7419,1834
7420,1830
7421,1826
7422,1792
7423,1761
7424,1767
7425,1808
7426,1862
7427,1831
7428,1806
7429,1815
7430,1819
7431,1787
7432,1801
7433,1826
7434,1851
7435,1866
7436,1843
7437,1872
7438,1872
7439,1805
7440,1789
7441,1821
7442,1885
7443,1905
7444,1880
7445,1867
7446,1872
7447,1847
7448,1840
7449,1850
7450,1904
7451,1878
7452,1909
7453,1930
7454,1966
7455,1890
7456,1863
7457,1841
7458,1891
7459,1907
7460,1942
7461,1898
7462,1891
7463,1895
7464,1856
7465,1851
7466,1857
7467,1865
7468,1882
7469,1937
7470,1909
7471,1901
7472,1845
7473,1837
7474,1837
7475,1893
7476,1926
7477,1889
7478,1843
7479,1883
7480,1873
7481,1861
7482,1853
7483,1834
7484,1904
7485,1876
7486,1905
7487,1943
7488,1914
7489,1853
7490,1851
7491,1849
7492,1893
7493,1883
7494,1911
7495,1870
7496,1850
7497,1862
7498,1856
7499,1852
7500,1871
7501,1884
7502,1930
7503,1904
7504,1917
7505,1872
7506,1838
7507,1825
7508,1887
7509,1920
7510,1889
7511,1827
7512,1867
7513,1867
7514,1847
7515,1858
7516,1799
7517,1814
7518,1850
7519,1935
7520,1905
7521,1904
7522,1855
7523,1818
7524,1814
7525,1874
7526,1895
7527,1891
7528,1859
7529,1808
7530,1856
7531,1839
7532,1850
7533,1838
7534,1838
7535,1887
7536,1918
7537,1918
7538,1901
7539,1842
7540,1817
7541,1808
7542,1936
7543,1898
7544,1863
7545,1887
7546,1858
7547,1861
7548,1842
7549,1852
7550,1851
7551,1869
7552,1854
7553,1920
7554,1916
7555,1869
7556,1817
7557,1818
7558,1878
7559,1888
7560,1872
7561,1854
7562,1863
7563,1856
7564,1846
7565,1839
7566,1839
7567,1852
7568,1874
7569,1901
7570,1923
7571,1889
7572,1840
7573,1806
7574,1809
7575,1881
7576,1930
7577,1872
7578,1853
7579,1885
7580,1856
7581,1837
7582,1845
7583,1834
7584,1831
7585,1892
7586,1917
7587,1931
7588,1887
7589,1831
7590,1808
7591,1808
7592,1904
7593,1917
7594,1872
7595,1835
7596,1872
7597,1856
7598,1856
7599,1846
7600,1842
7601,1837
7602,1878
7603,1899
7604,1938
7605,1872
7606,1812
7607,1808
7608,1899
7609,1914
7610,1877
7611,1850
7612,1836
7613,1846
7614,1840
7615,1831
7616,1855
7617,1861
7618,1898
7619,1871
7620,1904
7621,1907
7622,1851
7623,1817
7624,1813
7625,1887
7626,1908
7627,1827
7628,1808
7629,1871
7630,1854
7631,1840
7632,1852
7633,1840
7634,1819
7635,1900
7636,1891
7637,1922
7638,1901
7639,1835
7640,1819
7641,1837
7642,1927
7643,1903
7644,1879
7645,1868
7646,1890
7647,1840
7648,1843
7649,1840
7650,1826
7651,1858
7652,1938
7653,1885
7654,1888
7655,1872
7656,1813
7657,1807
7658,1872
7659,1893
7660,1867
7661,1813
7662,1862
7663,1871
7664,1840
7665,1850
7666,1869
7667,1869
7668,1885
7669,1935
7670,1899
7671,1936
7672,1842
7673,1819
7674,1807
7675,1872
7676,1895
7677,1867
7678,1847
7679,1858
7680,1841
7681,1840
7682,1841
7683,1829
7684,1843
7685,1895
7686,1890
7687,1903
7688,1902
7689,1821
7690,1807
7691,1835
7692,1914
7693,1893
7694,1854
7695,1863
7696,1819
7697,1837
7698,1854
7699,1844
7700,1830
7701,1855
7702,1869
7703,1951
7704,1892
7705,1859
7706,1808
7707,1797
7708,1856
7709,1909
7710,1845
7711,1850
7712,1840
7713,1859
7714,1840
7715,1850
7716,1839
7717,1872
7718,1923
7719,1936
7720,1917
7721,1915
7722,1851
7723,1811
7724,1817
7725,1893
7726,1915
7727,1873
7728,1890
7729,1890
7730,1877
7731,1850
7732,1870
7733,1869
7734,1889
7735,1879
7736,1945
7737,1899
7738,1897
7739,1850
7740,1843
7741,1898
7742,1929
7743,1925
7744,1962
7745,1935
7746,1915
7747,1911
7748,1895
7749,1910
7750,1920
7751,1925
7752,1964
7753,1925
7754,1929
7755,1882
7756,1838
7757,1827
7758,1874
7759,1870
7760,1886
7761,1873
7762,1867
7763,1866
7764,1832
7765,1831
7766,1835
7767,1849
7768,1872
7769,1857
7770,1872
7771,1827
7772,1813
7773,1807
7774,1803
7775,1852
7776,1883
7777,1856
7778,1862
7779,1839
7780,1854
7781,1824
7782,1826
7783,1871
7784,1840
7785,1893
7786,1866
7787,1859
7788,1852
7789,1812
7790,1808
7791,1833
7792,1866
7793,1861
7794,1873
7795,1859
7796,1859
7797,1833
7798,1821
7799,1837
7800,1849
7801,1879
7802,1879
7803,1883
7804,1874
7805,1831
7806,1806
7807,1808
7808,1854
7809,1855
7810,1869
7811,1865
7812,1856
7813,1857
7814,1835
7815,1831
7816,1854
7817,1855
7818,1887
7819,1879
7820,1875
7821,1871
7822,1818
7823,1813
7824,1807
7825,1853
7826,1884
7827,1867
7828,1867
7829,1861
7830,1844
7831,1822
7832,1833
7833,1840
7834,1889
7835,1889
7836,1851
7837,1883
7838,1853
7839,1820
7840,1817
7841,1837
7842,1863
7843,1843
7844,1879
7845,1843
7846,1857
7847,1845
7848,1845
7849,1846
7850,1865
7851,1899
7852,1879
7853,1893
7854,1874
7855,1837
7856,1810
7857,1810
7858,1865
7859,1891
7860,1847
7861,1847
7862,1871
7863,1871
7864,1850
7865,1840
7866,1840
7867,1877
7868,1890
7869,1872
7870,1875
7871,1863
7872,1827
7873,1814
7874,1828
7875,1871
7876,1867
7877,1870
7878,1872
7879,1841
7880,1856
7881,1836
7882,1840
7883,1840
7884,1886
7885,1883
7886,1843
7887,1856
7888,1854
7889,1819
7890,1808
7891,1838
7892,1847
7893,1845
7894,1841
7895,1866
7896,1854
7897,1850
7898,1823
7899,1829
7900,1862
7901,1900
7902,1883
7903,1873
7904,1857
7905,1821
7906,1798
7907,1802
7908,1835
7909,1856
7910,1855
7911,1856
7912,1855
7913,1851
7914,1818
7915,1813
7916,1831
7917,1866
7918,1872
7919,1886
7920,1889
7921,1857
7922,1819
7923,1808
7924,1808
7925,1829
7926,1840
7927,1835
7928,1838
7929,1860
7930,1840
7931,1823
7932,1826
7933,1845
7934,1875
7935,1907
7936,1894
7937,1875
7938,1853
7939,1813
7940,1807
7941,1857
7942,1863
7943,1873
7944,1872
7945,1842
7946,1855
7947,1835
7948,1826
7949,1807
7950,1868
7951,1861
7952,1904
7953,1856
7954,1902
7955,1845
7956,1825
7957,1826
7958,1840
7959,1865
7960,1855
7961,1846
7962,1846
7963,1870
7964,1845
7965,1840
7966,1863
7967,1872
7968,1872
7969,1893
7970,1899
7971,1875
7972,1833
7973,1819
7974,1815
7975,1858
7976,1877
7977,1876
7978,1884
7979,1865
7980,1847
7981,1840
7982,1840
7983,1865
7984,1875
7985,1887
7986,1886
7987,1894
7988,1867
7989,1825
7990,1823
7991,1843
7992,1866
7993,1872
7994,1894
7995,1873
7996,1882
7997,1843
7998,1827
7999,1841
8000,1843
8001,1855
8002,1874
8003,1897
8004,1883
8005,1836
8006,1811
8007,1808
8008,1823
8009,1897
8010,1872
8011,1874
8012,1872
8013,1865
8014,1833
8015,1841
8016,1835
8017,1874
8018,1908
8019,1912
8020,1886
8021,1879
8022,1833
8023,1817
8024,1822
8025,1872
8026,1880
8027,1863
8028,1872
8029,1853
8030,1855
8031,1831
8032,1835
8033,1835
8034,1871
8035,1856
8036,1882
8037,1882
8038,1857
8039,1821
8040,1809
8041,1824
8042,1887
8043,1891
8044,1842
8045,1860
8046,1891
8047,1838
8048,1838
8049,1857
8050,1863
8051,1902
8052,1898
8053,1877
8054,1886
8055,1849
8056,1831
8057,1200
8058,1758
8059,1936
8060,1957
8061,2025
8062,2114
8063,2245
8064,2347
8065,2397
8066,2384
8067,2313
8068,2229
8069,2128
8070,2018
8071,1925
8072,1739
8073,1567
8074,1424
8075,1439
8076,1374
8077,1306
8078,1303
8079,1328
8080,1442
8081,1527
8082,1632
8083,1756
8084,1808
8085,1867
8086,1897
8087,1937
8088,1157
8089,1718
8090,1941
8091,2027
8092,2143
8093,2206
8094,2331
8095,2379
8096,2435
8097,2433
8098,2373
8099,2259
8100,2199
8101,2094
8102,1995
8103,1846
8104,1666
8105,1414
8106,1264
8107,1185
8108,1213
8109,1303
8110,1483
8111,1577
8112,1712
8113,1805
8114,1820
8115,1879
8116,1910
8117,1973
8118,1977
8119,1638
8120,1649
8121,1947
8122,2034
8123,2086
8124,2202
8125,2330
8126,2407
8127,2429
8128,2380
8129,2333
8130,2205
8131,2123
8132,2046
8133,1917
8134,1750
8135,1587
8136,1450
8137,1302
8138,1223
8139,1151
8140,1264
8141,1456
8142,1687
8143,1754
8144,1829
8145,1848
8146,1918
8147,1900
8148,1922
8149,1950
8150,1974
8151,1614
8152,1946
8153,2070
8154,2114
8155,2213
8156,2338
8157,2411
8158,2429
8159,2418
8160,2286
8161,2182
8162,2147
8163,2034
8164,1858
8165,1666
8166,1488
8167,1399
8168,1335
8169,1279
8170,1315
8171,1411
8172,1511
8173,1621
8174,1718
8175,1857
8176,1913
8177,1879
8178,1922
8179,1935
8180,1929
8181,2334
8182,1636
8183,1871
8184,1968
8185,2079
8186,2174
8187,2273
8188,2383
8189,2399
8190,2354
8191,2311
8192,2186
8193,2118
8194,2000
8195,1869
8196,1698
8197,1405
8198,1268
8199,1165
8200,1120
8201,1281
8202,1406
8203,1595
8204,1711
8205,1758
8206,1808
8207,1826
8208,1911
8209,1949
8210,1913
8211,1918
8212,1896
8213,1651
8214,1872
8215,1952
8216,2038
8217,2107
8218,2277
8219,2399
8220,2440
8221,2413
8222,2308
8223,2201
8224,2123
8225,2079
8226,1893
8227,1698
8228,1434
8229,1295
8230,1138
8231,1035
8232,1149
8233,1334
8234,1458
8235,1680
8236,1792
8237,1900
8238,1891
8239,1873
8240,1901
8241,1958
8242,2013
8243,1831
8244,1755
8245,1900
8246,1935
8247,1968
8248,2115
8249,2242
8250,2354
8251,2362
8252,2396
8253,2349
8254,2259
8255,2155
8256,2021
8257,1846
8258,1690
8259,1525
8260,1307
8261,1205
8262,1104
8263,1205
8264,1295
8265,1456
8266,1589
8267,1707
8268,1872
8269,1879
8270,1931
8271,1938
8272,1931
8273,1927
8274,1935
8275,1936
8276,1962
8277,1939
8278,1983
8279,2035
8280,2211
8281,2335
8282,2363
8283,2295
8284,2241
8285,2237
8286,2137
8287,2107
8288,1938
8289,1712
8290,1511
8291,1370
8292,1367
8293,1284
8294,1417
8295,1535
8296,1706
8297,1824
8298,1911
8299,1963
8300,2023
8301,2039
8302,2039
8303,2057
8304,2052
8305,2022
8306,2098
8307,1895
8308,1983
8309,1979
8310,2095
8311,2243
8312,2317
8313,2384
8314,2355
8315,2304
8316,2189
8317,2154
8318,2106
8319,1888
8320,1702
8321,1532
8322,1255
8323,1087
8324,1066
8325,1263
8326,1424
8327,1527
8328,1685
8329,1746
8330,1809
8331,1835
8332,1886
8333,1919
8334,1983
8335,1955
8336,1953
8337,2149
8338,1889
8339,1878
8340,1914
8341,1993
8342,2173
8343,2327
8344,2336
8345,2277
8346,2256
8347,2177
8348,2117
8349,2019
8350,1927
8351,1771
8352,1573
8353,1366
8354,1211
8355,1075
8356,1198
8357,1344
8358,1535
8359,1682
8360,1764
8361,1830
8362,1882
8363,1907
8364,1901
8365,1911
8366,1934
8367,1938
8368,2203
8369,1904
8370,1925
8371,1928
8372,1986
8373,2131
8374,2279
8375,2337
8376,2285
8377,2256
8378,2208
8379,2139
8380,2035
8381,1925
8382,1731
8383,1572
8384,1408
8385,1237
8386,1200
8387,1259
8388,1353
8389,1488
8390,1623
8391,1744
8392,1830
8393,1872
8394,1886
8395,1882
8396,1917
8397,1925
8398,1934
8399,2047
8400,1945
8401,1930
8402,1955
8403,1999
8404,2111
8405,2274
8406,2307
8407,2269
8408,2245
8409,2190
8410,2146
8411,2069
8412,2000
8413,1795
8414,1520
8415,1312
8416,1212
8417,1211
8418,1292
8419,1393
8420,1535
8421,1664
8422,1723
8423,1783
8424,1853
8425,1938
8426,1926
8427,1946
8428,1964
8429,1933
8430,1798
8431,1903
8432,1860
8433,1910
8434,2011
8435,2071
8436,2243
8437,2342
8438,2289
8439,2266
8440,2192
8441,2133
8442,2098
8443,1979
8444,1834
8445,1616
8446,1437
8447,1185
8448,1076
8449,1193
8450,1374
8451,1554
8452,1639
8453,1756
8454,1819
8455,1836
8456,1854
8457,1883
8458,1927
8459,1967
8460,1969
8461,1789
8462,2065
8463,1911
8464,1918
8465,1962
8466,2092
8467,2222
8468,2353
8469,2263
8470,2273
8471,2217
8472,2163
8473,2072
8474,1968
8475,1840
8476,1636
8477,1421
8478,1263
8479,1174
8480,1207
8481,1334
8482,1483
8483,1660
8484,1785
8485,1822
8486,1872
8487,1897
8488,1907
8489,1900
8490,1920
8491,1967
8492,1974
8493,2081
8494,1904
8495,1905
8496,1953
8497,2067
8498,2245
8499,2341
8500,2311
8501,2295
8502,2211
8503,2169
8504,2066
8505,1974
8506,1805
8507,1582
8508,1435
8509,1318
8510,1168
8511,1280
8512,1419
8513,1486
8514,1600
8515,1702
8516,1767
8517,1852
8518,1903
8519,1928
8520,1942
8521,1943
8522,1921
8523,1918
8524,2179
8525,1926
8526,1902
8527,1961
8528,2019
8529,2222
8530,2337
8531,2309
8532,2285
8533,2215
8534,2183
8535,2096
8536,2034
8537,1861
8538,1654
8539,1395
8540,1209
8541,1150
8542,1237
8543,1406
8544,1519
8545,1617
8546,1735
8547,1777
8548,1818
8549,1865
8550,1915
8551,1946
8552,1983
8553,1967
8554,1971
8555,2267
8556,1855
8557,1873
8558,1959
8559,2059
8560,2175
8561,2325
8562,2301
8563,2289
8564,2262
8565,2193
8566,2131
8567,2063
8568,1925
8569,1723
8570,1531
8571,1328
8572,1114
8573,1114
8574,1321
8575,1489
8576,1616
8577,1697
8578,1795
8579,1844
8580,1875
8581,1906
8582,1913
8583,1919
8584,1971
8585,2003
8586,2241
8587,1963
8588,1904
8589,1918
8590,1995
8591,2192
8592,2315
8593,2277
8594,2291
8595,2251
8596,2219
8597,2135
8598,2047
8599,1920
8600,1748
8601,1523
8602,1344
8603,1171
8604,1217
8605,1269
8606,1408
8607,1521
8608,1663
8609,1747
8610,1841
8611,1879
8612,1919
8613,1919
8614,1930
8615,1949
8616,1933
8617,2053
8618,1920
8619,1955
8620,1935
8621,1987
8622,2139
8623,2297
8624,2306
8625,2275
8626,2240
8627,2194
8628,2154
8629,2097
8630,1930
8631,1725
8632,1505
8633,1379
8634,1227
8635,1209
8636,1335
8637,1456
8638,1571
8639,1657
8640,1728
8641,1793
8642,1871
8643,1911
8644,1938
8645,1954
8646,1962
8647,1934
8648,1723
8649,1961
8650,1897
8651,1985
8652,2000
8653,2128
8654,2259
8655,2310
8656,2249
8657,2251
8658,2232
8659,2171
8660,2087
8661,1978
8662,1781
8663,1565
8664,1328
8665,1151
8666,1153
8667,1328
8668,1455
8669,1611
8670,1694
8671,1744
8672,1790
8673,1821
8674,1886
8675,1897
8676,1951
8677,1936
8678,1946
8679,1968
8680,1948
8681,1935
8682,1943
8683,1937
8684,1989
8685,1968
8686,1974
8687,1933
8688,1909
8689,1897
8690,1870
8691,1863
8692,1872
8693,1893
8694,1877
8695,1906
8696,1875
8697,1850
8698,1846
8699,1821
8700,1843
8701,1897
8702,1925
8703,1906
8704,1851
8705,1843
8706,1823
8707,1827
8708,1857
8709,1887
8710,1847
8711,1872
8712,1878
8713,1859
8714,1849
8715,1840
8716,1866
8717,1880
8718,1866
8719,1895
8720,1870
8721,1851
8722,1839
8723,1830
8724,1870
8725,1871
8726,1870
8727,1885
8728,1858
8729,1837
8730,1841
8731,1831
8732,1858
8733,1883
8734,1887
8735,1886
8736,1856
8737,1883
8738,1850
8739,1839
8740,1825
8741,1869
8742,1840
8743,1872
8744,1863
8745,1895
8746,1867
8747,1836
8748,1831
8749,1853
8750,1879
8751,1886
8752,1881
8753,1856
8754,1885
8755,1822
8756,1820
8757,1823
8758,1815
8759,1885
8760,1871
8761,1872
8762,1869
8763,1866
8764,1827
8765,1838
8766,1840
8767,1845
8768,1886
8769,1888
8770,1874
8771,1872
8772,1829
8773,1829
8774,1846
8775,1875
8776,1882
8777,1875
8778,1898
8779,1851
8780,1846
8781,1855
8782,1847
8783,1872
8784,1886
8785,1874
8786,1906
8787,1865
8788,1849
8789,1814
8790,1822
8791,1874
8792,1873
8793,1849
8794,1856
8795,1891
8796,1898
8797,1840
8798,1849
8799,1835
8800,1851
8801,1917
8802,1882
8803,1858
8804,1871
8805,1837
8806,1827
8807,1835
8808,1858
8809,1871
8810,1872
8811,1856
8812,1913
8813,1859
8814,1849
8815,1840
8816,1872
8817,1872
8818,1903
8819,1872
8820,1870
8821,1859
8822,1833
8823,1830
8824,1840
8825,1873
8826,1877
8827,1872
8828,1882
8829,1862
8830,1846
8831,1834
8832,1867
8833,1872
8834,1861
8835,1865
8836,1882
8837,1871
8838,1846
8839,1824
8840,1824
8841,1866
8842,1875
8843,1872
8844,1838
8845,1891
8846,1872
8847,1838
8848,1840
8849,1815
8850,1894
8851,1900
8852,1891
8853,1897
8854,1857
8855,1833
8856,1830
8857,1827
8858,1844
8859,1856
8860,1858
8861,1863
8862,1889
8863,1869
8864,1847
8865,1853
8866,1872
8867,1872
8868,1882
8869,1874
8870,1874
8871,1856
8872,1830
8873,1830
8874,1841
8875,1851
8876,1856
8877,1862
8878,1866
8879,1871
8880,1842
8881,1839
8882,1826
8883,1861
8884,1889
8885,1874
8886,1879
8887,1869
8888,1845
8889,1835
8890,1838
8891,1847
8892,1887
8893,1872
8894,1860
8895,1874
8896,1874
8897,1840
8898,1841
8899,1840
8900,1879
8901,1877
8902,1879
8903,1887
8904,1870
8905,1827
8906,1811
8907,1824
8908,1861
8909,1865
8910,1873
8911,1873
8912,1860
8913,1859
8914,1840
8915,1845
8916,1870
8917,1883
8918,1883
8919,1885
8920,1872
8921,1856
8922,1823
8923,1830
8924,1831
8925,1871
8926,1866
8927,1865
8928,1875
8929,1866
8930,1851
8931,1842
8932,1839
8933,1887
8934,1884
8935,1891
8936,1886
8937,1871
8938,1843
8939,1825
8940,1825
8941,1856
8942,1878
8943,1878
8944,1875
8945,1882
8946,1878
8947,1840
8948,1838
8949,1847
8950,1885
8951,1869
8952,1881
8953,1882
8954,1859
8955,1836
8956,1825
8957,1840
8958,1878
8959,1861
8960,1873
8961,1901
8962,1887
8963,1861
8964,1840
8965,1839
8966,1859
8967,1890
8968,1883
8969,1870
8970,1893
8971,1861
8972,1830
8973,1829
8974,1839
8975,1872
8976,1890
8977,1867
8978,1879
8979,1872
8980,1847
8981,1849
8982,1836
8983,1881
8984,1870
8985,1891
8986,1878
8987,1874
8988,1846
8989,1822
8990,1831
8991,1839
8992,1879
8993,1872
8994,1879
8995,1883
8996,1871
8997,1840
8998,1840
8999,1850
9000,1887
9001,1879
9002,1883
9003,1860
9004,1863
9005,1828
9006,1821
9007,1830
9008,1856
9009,1871
9010,1881
9011,1875
9012,1874
9013,1855
9014,1842
9015,1838
9016,1866
9017,1886
9018,1870
9019,1878
9020,1876
9021,1853
9022,1826
9023,1821
9024,1850
9025,1855
9026,1867
9027,1872
9028,1866
9029,1869
9030,1843
9031,1838
9032,1839
9033,1893
9034,1872
9035,1872
9036,1891
9037,1875
9038,1840
9039,1826
9040,1824
9041,1861
9042,1875
9043,1871
9044,1861
9045,1874
9046,1871
9047,1840
9048,1840
9049,1854
9050,1902
9051,1871
9052,1875
9053,1895
9054,1871
9055,1827
9056,1818
9057,1826
9058,1863
9059,1871
9060,1854
9061,1857
9062,1877
9063,1862
9064,1838
9065,1841
9066,1868
9067,1883
9068,1901
9069,1911
9070,1879
9071,1861
9072,1822
9073,1830
9074,1842
9075,1879
9076,1873
9077,1872
9078,1877
9079,1874
9080,1840
9081,1840
9082,1840
9083,1862
9084,1907
9085,1879
9086,1877
9087,1872
9088,1837
9089,1826
9090,1821
9091,1840
9092,1872
9093,1874
9094,1856
9095,1887
9096,1869
9097,1839
9098,1835
9099,1840
9100,1887
9101,1894
9102,1866
9103,1877
9104,1873
9105,1835
9106,1818
9107,1827
9108,1845
9109,1878
9110,1883
9111,1871
9112,1879
9113,1852
9114,1840
9115,1835
9116,1862
9117,1859
9118,1885
9119,1883
9120,1872
9121,1858
9122,1827
9123,1819
9124,1840
9125,1874
9126,1869
9127,1872
9128,1858
9129,1872
9130,1844
9131,1840
9132,1818
9133,1874
9134,1921
9135,1867
9136,1857
9137,1878
9138,1837
9139,1818
9140,1823
9141,1867
9142,1872
9143,1872
9144,1872
9145,1843
9146,1873
9147,1842
9148,1838
9149,1834
9150,1856
9151,1883
9152,1889
9153,1862
9154,1872
9155,1824
9156,1821
9157,1824
9158,1887
9159,1853
9160,1856
9161,1899
9162,1883
9163,1851
9164,1835
9165,1845
9166,1855
9167,1859
9168,1899
9169,1909
9170,1894
9171,1856
9172,1826
9173,1813
9174,1818
9175,1875
9176,1872
9177,1872
9178,1867
9179,1877
9180,1851
9181,1840
9182,1814
9183,1879
9184,1901
9185,1900
9186,1898
9187,1902
9188,1839
9189,1824
9190,1822
9191,1827
9192,1872
9193,1859
9194,1889
9195,1871
9196,1882
9197,1842
9198,1840
9199,1840
9200,1859
9201,1895
9202,1890
9203,1899
9204,1853
9205,1823
9206,1815
9207,1819
9208,1869
9209,1872
9210,1847
9211,1872
9212,1877
9213,1858
9214,1846
9215,1843
9216,1874
9217,1885
9218,1883
9219,1899
9220,1845
9221,1856
9222,1827
9223,1819
9224,1847
9225,1842
9226,1866
9227,1872
9228,1867
9229,1882
9230,1845
9231,1843
9232,1852
9233,1892
9234,1904
9235,1868
9236,1874
9237,1843
9238,1839
9239,1820
9240,1808
9241,1840
9242,1879
9243,1879
9244,1866
9245,1877
9246,1867
9247,1843
9248,1850
9249,1850
9250,1871
9251,1917
9252,1879
9253,1884
9254,1857
9255,1840
9256,1821
9257,1822
9258,1872
9259,1852
9260,1873
9261,1851
9262,1886
9263,1866
9264,1838
9265,1841
9266,1870
9267,1875
9268,1873
9269,1886
9270,1885
9271,1863
9272,1826
9273,1818
9274,1849
9275,1879
9276,1871
9277,1851
9278,1872
9279,1901
9280,1848
9281,1842
9282,1840
9283,1840
9284,1895
9285,1873
9286,1885
9287,1879
9288,1839
9289,1824
9290,1830
9291,1857
9292,1873
9293,1883
9294,1863
9295,1874
9296,1874
9297,1841
9298,1831
9299,1852
9300,1887
9301,1866
9302,1872
9303,1898
9304,1863
9305,1827
9306,1815
9307,1861
9308,1841
9309,1871
9310,1879
9311,1872
9312,1872
9313,1856
9314,1825
9315,1842
9316,1867
9317,1868
9318,1879
9319,1885
9320,1887
9321,1850
9322,1822
9323,1814
9324,1864
9325,1872
9326,1858
9327,1855
9328,1887
9329,1847
9330,1847
9331,1831
9332,1842
9333,1877
9334,1869
9335,1890
9336,1855
9337,1877
9338,1843
9339,1833
9340,1823
9341,1856
9342,1872
9343,1850
9344,1873
9345,1877
9346,1871
9347,1838
9348,1843
9349,1853
9350,1878
9351,1886
9352,1905
9353,1855
9354,1870
9355,1831
9356,1811
9357,1822
9358,1866
9359,1851
9360,1871
9361,1885
9362,1885
9363,1860
9364,1850
9365,1853
9366,1874
9367,1857
9368,1897
9369,1902
9370,1876
9371,1854
9372,1835
9373,1826
9374,1829
9375,1865
9376,1883
9377,1856
9378,1863
9379,1862
9380,1843
9381,1847
9382,1859
9383,1904
9384,1883
9385,1885
9386,1868
9387,1872
9388,1837
9389,1835
9390,1829
9391,1861
9392,1879
9393,1851
9394,1872
9395,1858
9396,1871
9397,1853
9398,1847
9399,1842
9400,1861
9401,1891
9402,1887
9403,1873
9404,1870
9405,1833
9406,1819
9407,1830
9408,1843
9409,1876
9410,1872
9411,1854
9412,1863
9413,1850
9414,1833
9415,1840
9416,1863
9417,1868
9418,1904
9419,1857
9420,1882
9421,1853
9422,1830
9423,1824
9424,1827
9425,1899
9426,1872
9427,1875
9428,1872
9429,1877
9430,1846
9431,1850
9432,1855
9433,1887
9434,1904
9435,1886
9436,1866
9437,1871
9438,1843
9439,1830
9440,1829
9441,1851
9442,1853
9443,1851
9444,1847
9445,1863
9446,1855
9447,1840
9448,1838
9449,1872
9450,1855
9451,1861
9452,1872
9453,1877
9454,1869
9455,1837
9456,1827
9457,1802
9458,1866
9459,1869
9460,1846
9461,1873
9462,1861
9463,1855
9464,1842
9465,1840
9466,1845
9467,1879
9468,1889
9469,1890
9470,1887
9471,1861
9472,1835
9473,1833
9474,1840
9475,1867
9476,1866
9477,1858
9478,1879
9479,1901
9480,1846
9481,1846
9482,1859
9483,1860
9484,1890
9485,1861
9486,1854
9487,1888
9488,1839
9489,1826
9490,1830
9491,1860
9492,1868
9493,1871
9494,1883
9495,1853
9496,1872
9497,1849
9498,1845
9499,1872
9500,1855
9501,1876
9502,1895
9503,1887
9504,1871
9505,1818
9506,1820
9507,1851
9508,1850
9509,1869
9510,1877
9511,1875
9512,1874
9513,1857
9514,1844
9515,1842
9516,1855
9517,1888
9518,1925
9519,1904
9520,1860
9521,1855
9522,1829
9523,1824
9524,1845
9525,1882
9526,1845
9527,1858
9528,1866
9529,1872
9530,1851
9531,1842
9532,1807
9533,1885
9534,1904
9535,1887
9536,1861
9537,1870
9538,1840
9539,1821
9540,1808
9541,1834
9542,1901
9543,1871
9544,1877
9545,1861
9546,1868
9547,1851
9548,1842
9549,1873
9550,1910
9551,1911
9552,1916
9553,1855
9554,1857
9555,1833
9556,1825
9557,1834
9558,1855
9559,1847
9560,1869
9561,1877
9562,1857
9563,1856
9564,1840
9565,1823
9566,1837
9567,1867
9568,1900
9569,1892
9570,1877
9571,1860
9572,1829
9573,1825
9574,1869
9575,1872
9576,1850
9577,1872
9578,1897
9579,1870
9580,1853
9581,1847
9582,1823
9583,1885
9584,1869
9585,1865
9586,1879
9587,1883
9588,1835
9589,1826
9590,1825
9591,1870
9592,1886
9593,1867
9594,1863
9595,1871
9596,1863
9597,1839
9598,1833
9599,1870
9600,1859
9601,1874
9602,1879
9603,1868
9604,1871
9605,1827
9606,1823
9607,1825
9608,1878
9609,1868
9610,1859
9611,1897
9612,1875
9613,1855
9614,1847
9615,1839
9616,1867
9617,1865
9618,1898
9619,1871
9620,1861
9621,1855
9622,1835
9623,1823
9624,1840
9625,1871
9626,1850
9627,1850
9628,1870
9629,1863
9630,1840
9631,1842
9632,1825
9633,1876
9634,1878
9635,1877
9636,1875
9637,1873
9638,1846
9639,1824
9640,1829
9641,1841
9642,1895
9643,1871
9644,1871
9645,1878
9646,1870
9647,1840
9648,1840
9649,1865
9650,1879
9651,1883
9652,1914
9653,1879
9654,1861
9655,1819
9656,1815
9657,1840
9658,1868
9659,1841
9660,1885
9661,1872
9662,1850
9663,1846
9664,1837
9665,1840
9666,1850
9667,1909
9668,1893
9669,1872
9670,1877
9671,1851
9672,1831
9673,1829
9674,1856
9675,1889
9676,1359
9677,1673
9678,1898
9679,1959
9680,1985
9681,2097
9682,2250
9683,2306
9684,2346
9685,2383
9686,2342
9687,2207
9688,2066
9689,1968
9690,1866
9691,1809
9692,1659
9693,1535
9694,1485
9695,1395
9696,1330
9697,1264
9698,1315
9699,1438
9700,1590
9701,1687
9702,1766
9703,1791
9704,1835
9705,1838
9706,1849
9707,1535
9708,1680
9709,1892
9710,2007
9711,2075
9712,2126
9713,2277
9714,2378
9715,2438
9716,2409
9717,2343
9718,2229
9719,2133
9720,2038
9721,1919
9722,1744
9723,1584
9724,1481
9725,1425
9726,1325
9727,1315
9728,1287
9729,1445
9730,1535
9731,1659
9732,1744
9733,1837
9734,1909
9735,1933
9736,1898
9737,1910
9738,1835
9739,1670
9740,1921
9741,2000
9742,2029
9743,2107
9744,2257
9745,2352
9746,2413
9747,2411
9748,2318
9749,2149
9750,2112
9751,2000
9752,1897
9753,1791
9754,1601
9755,1401
9756,1292
9757,1240
9758,1283
9759,1372
9760,1533
9761,1658
9762,1749
9763,1805
9764,1841
9765,1868
9766,1957
9767,1972
9768,1984
9769,2128
9770,1634
9771,1923
9772,1988
9773,2034
9774,2126
9775,2252
9776,2379
9777,2427
9778,2430
9779,2319
9780,2160
9781,2033
9782,1965
9783,1872
9784,1748
9785,1595
9786,1456
9787,1354
9788,1210
9789,1188
9790,1337
9791,1535
9792,1691
9793,1791
9794,1823
9795,1905
9796,1911
9797,1914
9798,1908
9799,1961
9800,2206
9801,1655
9802,1906
9803,2005
9804,2033
9805,2115
9806,2262
9807,2418
9808,2413
9809,2399
9810,2299
9811,2155
9812,2047
9813,1936
9814,1815
9815,1623
9816,1520
9817,1391
9818,1362
9819,1246
9820,1270
9821,1377
9822,1520
9823,1643
9824,1774
9825,1837
9826,1887
9827,1914
9828,1919
9829,1942
9830,1936
9831,1879
9832,1638
9833,1872
9834,1984
9835,1994
9836,2097
9837,2227
9838,2416
9839,2449
9840,2387
9841,2337
9842,2174
9843,2096
9844,1996
9845,1855
9846,1683
9847,1436
9848,1302
9849,1255
9850,1199
9851,1303
9852,1383
9853,1535
9854,1655
9855,1744
9856,1809
9857,1863
9858,1911
9859,1935
9860,1947
9861,1982
9862,1922
9863,1659
9864,1861
9865,1936
9866,2000
9867,2065
9868,2252
9869,2375
9870,2436
9871,2415
9872,2321
9873,2183
9874,2095
9875,1984
9876,1856
9877,1712
9878,1485
9879,1377
9880,1162
9881,1107
9882,1248
9883,1397
9884,1570
9885,1697
9886,1793
9887,1859
9888,1856
9889,1879
9890,1917
9891,1951
9892,1941
9893,1945
9894,1872
9895,1846
9896,1934
9897,1978
9898,2047
9899,2221
9900,2384
9901,2430
9902,2403
9903,2315
9904,2199
9905,2090
9906,1987
9907,1845
9908,1715
9909,1488
9910,1385
9911,1230
9912,1193
9913,1234
9914,1367
9915,1467
9916,1685
9917,1798
9918,1854
9919,1870
9920,1888
9921,1930
9922,1920
9923,1931
9924,1923
9925,1936
9926,1870
9927,1926
9928,1943
9929,2042
9930,2211
9931,2378
9932,2442
9933,2413
9934,2306
9935,2218
9936,2113
9937,2019
9938,1863
9939,1674
9940,1485
9941,1385
9942,1258
9943,1218
9944,1284
9945,1382
9946,1564
9947,1662
9948,1744
9949,1808
9950,1883
9951,1923
9952,1933
9953,1954
9954,1931
9955,1919
9956,2041
9957,1806
9958,1926
9959,1959
9960,2013
9961,2175
9962,2304
9963,2375
9964,2362
9965,2275
9966,2192
9967,2153
9968,2064
9969,1934
9970,1811
9971,1533
9972,1317
9973,1155
9974,1126
9975,1279
9976,1437
9977,1581
9978,1696
9979,1781
9980,1807
9981,1853
9982,1913
9983,1955
9984,1961
9985,1930
9986,1967
9987,2128
9988,1792
9989,1904
9990,1934
9991,2017
9992,2134
9993,2277
9994,2325
9995,2366
9996,2304
9997,2217
9998,2145
9999,2103
10000,1969
10001,1834
10002,1601
10003,1467
10004,1251
10005,1104
10006,1200
10007,1394
10008,1584
10009,1666
10010,1765
10011,1818
10012,1877
10013,1885
10014,1885
10015,1919
10016,1950
10017,1970
10018,2128
10019,1877
10020,1907
10021,1936
10022,1986
10023,2097
10024,2302
10025,2338
10026,2325
10027,2295
10028,2221
10029,2160
10030,2064
10031,1953
10032,1771
10033,1607
10034,1472
10035,1286
10036,1170
10037,1294
10038,1372
10039,1488
10040,1607
10041,1763
10042,1819
10043,1856
10044,1895
10045,1884
10046,1927
10047,1913
10048,1943
10049,1783
10050,1871
10051,1907
10052,1949
10053,1965
10054,2095
10055,2261
10056,2355
10057,2307
10058,2316
10059,2215
10060,2176
10061,2075
10062,1985
10063,1792
10064,1596
10065,1392
10066,1309
10067,1200
10068,1270
10069,1449
10070,1532
10071,1625
10072,1689
10073,1773
10074,1860
10075,1886
10076,1913
10077,1935
10078,1951
10079,1968
10080,1785
10081,1857
10082,1905
10083,1945
10084,1975
10085,2096
10086,2237
10087,2337
10088,2323
10089,2309
10090,2267
10091,2192
10092,2107
10093,2000
10094,1808
10095,1668
10096,1422
10097,1218
10098,1122
10099,1205
10100,1395
10101,1535
10102,1666
10103,1731
10104,1806
10105,1809
10106,1854
10107,1872
10108,1904
10109,1936
10110,1961
10111,1932
10112,1961
10113,1872
10114,1922
10115,1968
10116,2064
10117,2224
10118,2322
10119,2345
10120,2342
10121,2274
10122,2186
10123,2102
10124,2010
10125,1868
10126,1663
10127,1447
10128,1317
10129,1170
10130,1175
10131,1341
10132,1484
10133,1631
10134,1767
10135,1806
10136,1846
10137,1875
10138,1875
10139,1897
10140,1921
10141,1962
10142,1937
10143,2036
10144,1882
10145,1906
10146,1975
10147,2046
10148,2229
10149,2336
10150,2326
10151,2352
10152,2277
10153,2228
10154,2112
10155,2000
10156,1822
10157,1654
10158,1493
10159,1289
10160,1200
10161,1236
10162,1402
10163,1493
10164,1595
10165,1734
10166,1757
10167,1808
10168,1879
10169,1904
10170,1905
10171,1931
10172,1924
10173,1920
10174,2074
10175,1843
10176,1925
10177,1931
10178,2032
10179,2170
10180,2349
10181,2354
10182,2317
10183,2303
10184,2226
10185,2174
10186,2040
10187,1890
10188,1682
10189,1455
10190,1266
10191,1200
10192,1211
10193,1337
10194,1445
10195,1637
10196,1691
10197,1752
10198,1807
10199,1859
10200,1909
10201,1962
10202,1936
10203,1940
10204,1954
10205,2160
10206,1807
10207,1948
10208,1936
10209,2031
10210,2113
10211,2309
10212,2350
10213,2310
10214,2294
10215,2256
10216,2157
10217,2095
10218,1932
10219,1776
10220,1526
10221,1313
10222,1132
10223,1111
10224,1274
10225,1491
10226,1591
10227,1663
10228,1725
10229,1821
10230,1840
10231,1872
10232,1914
10233,1947
10234,1967
10235,1997
10236,2133
10237,1872
10238,1904
10239,1925
10240,1977
10241,2158
10242,2272
10243,2343
10244,2320
10245,2249
10246,2246
10247,2149
10248,2061
10249,1950
10250,1792
10251,1647
10252,1390
10253,1202
10254,1168
10255,1247
10256,1385
10257,1519
10258,1680
10259,1727
10260,1780
10261,1871
10262,1910
10263,1902
10264,1921
10265,1904
10266,1991
10267,1802
10268,1911
10269,1904
10270,1954
10271,1990
10272,2112
10273,2288
10274,2368
10275,2318
10276,2247
10277,2278
10278,2179
10279,2092
10280,1958
10281,1765
10282,1587
10283,1446
10284,1237
10285,1201
10286,1262
10287,1414
10288,1502
10289,1613
10290,1676
10291,1808
10292,1851
10293,1919
10294,1945
10295,1939
10296,1950
10297,1947
10298,1951
10299,1930
10300,1978
10301,1970
10302,1994
10303,1936
10304,1925
10305,1900
10306,1880
10307,1883
10308,1929
10309,1878
10310,1922
10311,1920
10312,1902
10313,1863
10314,1866
10315,1859
10316,1872
10317,1897
10318,1888
10319,1886
10320,1879
10321,1842
10322,1841
10323,1841
10324,1840
10325,1876
10326,1865
10327,1840
10328,1861
10329,1872
10330,1856
10331,1851
10332,1845
10333,1883
10334,1881
10335,1885
10336,1856
10337,1863
10338,1831
10339,1840
10340,1843
10341,1849
10342,1901
10343,1872
10344,1824
10345,1865
10346,1851
10347,1837
10348,1840
10349,1866
10350,1873
10351,1857
10352,1871
10353,1865
10354,1851
10355,1840
10356,1822
10357,1845
10358,1874
10359,1854
10360,1887
10361,1869
10362,1854
10363,1850
10364,1841
10365,1847
10366,1881
10367,1886
10368,1845
10369,1890
10370,1857
10371,1833
10372,1823
10373,1833
10374,1856
10375,1861
10376,1857
10377,1857
10378,1872
10379,1871
10380,1837
10381,1847
10382,1834
10383,1893
10384,1857
10385,1860
10386,1911
10387,1875
10388,1847
10389,1827
10390,1872
10391,1865
10392,1875
10393,1857
10394,1855
10395,1871
10396,1853
10397,1850
10398,1840
10399,1904
10400,1856
10401,1895
10402,1909
10403,1840
10404,1850
10405,1822
10406,1824
10407,1839
10408,1840
10409,1857
10410,1843
10411,1872
10412,1872
10413,1839
10414,1841
10415,1871
10416,1895
10417,1885
10418,1904
10419,1861
10420,1884
10421,1856
10422,1838
10423,1840
10424,1844
10425,1870
10426,1890
10427,1904
10428,1856
10429,1862
10430,1835
10431,1853
10432,1858
10433,1845
10434,1878
10435,1872
10436,1873
10437,1869
10438,1841
10439,1836
10440,1856
10441,1840
10442,1872
10443,1895
10444,1874
10445,1846
10446,1854
10447,1846
10448,1846
10449,1899
10450,1879
10451,1857
10452,1872
10453,1857
10454,1858
10455,1837
10456,1833
10457,1877
10458,1909
10459,1864
10460,1897
10461,1872
10462,1873
10463,1847
10464,1845
10465,1875
10466,1872
10467,1914
10468,1867
10469,1903
10470,1873
10471,1841
10472,1841
10473,1836
10474,1897
10475,1868
10476,1837
10477,1837
10478,1888
10479,1858
10480,1850
10481,1841
10482,1834
10483,1878
10484,1891
10485,1878
10486,1854
10487,1856
10488,1834
10489,1826
10490,1862
10491,1883
10492,1871
10493,1845
10494,1840
10495,1841
10496,1857
10497,1841
10498,1840
10499,1869
10500,1866
10501,1888
10502,1872
10503,1867
10504,1851
10505,1838
10506,1840
10507,1845
10508,1876
10509,1867
10510,1872
10511,1859
10512,1861
10513,1840
10514,1842
10515,1853
10516,1857
10517,1872
10518,1851
10519,1856
10520,1869
10521,1838
10522,1822
10523,1835
10524,1857
10525,1859
10526,1853
10527,1859
10528,1854
10529,1856
10530,1839
10531,1840
10532,1855
10533,1872
10534,1879
10535,1873
10536,1885
10537,1861
10538,1838
10539,1834
10540,1831
10541,1863
10542,1858
10543,1867
10544,1858
10545,1869
10546,1855
10547,1841
10548,1845
10549,1877
10550,1885
10551,1887
10552,1878
10553,1872
10554,1841
10555,1827
10556,1827
10557,1846
10558,1865
10559,1857
10560,1881
10561,1878
10562,1872
10563,1854
10564,1851
10565,1866
10566,1876
10567,1887
10568,1897
10569,1879
10570,1872
10571,1845
10572,1837
10573,1840
10574,1872
10575,1887
10576,1891
10577,1872
10578,1878
10579,1861
10580,1841
10581,1843
10582,1861
10583,1862
10584,1877
10585,1872
10586,1861
10587,1859
10588,1827
10589,1829
10590,1845
10591,1862
10592,1877
10593,1894
10594,1873
10595,1873
10596,1854
10597,1849
10598,1851
10599,1856
10600,1886
10601,1892
10602,1878
10603,1866
10604,1851
10605,1830
10606,1834
10607,1851
10608,1859
10609,1875
10610,1875
10611,1879
10612,1872
10613,1847
10614,1838
10615,1851
10616,1870
10617,1880
10618,1885
10619,1874
10620,1870
10621,1840
10622,1833
10623,1835
10624,1871
10625,1881
10626,1875
10627,1876
10628,1872
10629,1865
10630,1840
10631,1839
10632,1857
10633,1885
10634,1874
10635,1881
10636,1883
10637,1869
10638,1834
10639,1833
10640,1842
10641,1886
10642,1873
10643,1872
10644,1870
10645,1878
10646,1847
10647,1840
10648,1838
10649,1870
10650,1867
10651,1875
10652,1863
10653,1887
10654,1855
10655,1838
10656,1830
10657,1867
10658,1869
10659,1873
10660,1872
10661,1873
10662,1874
10663,1857
10664,1856
10665,1839
10666,1863
10667,1887
10668,1882
10669,1872
10670,1861
10671,1833
10672,1823
10673,1834
10674,1850
10675,1861
10676,1873
10677,1849
10678,1873
10679,1863
10680,1838
10681,1837
10682,1849
10683,1874
10684,1898
10685,1882
10686,1894
10687,1856
10688,1831
10689,1837
10690,1841
10691,1874
10692,1879
10693,1870
10694,1885
10695,1875
10696,1855
10697,1846
10698,1843
10699,1873
10700,1890
10701,1887
10702,1872
10703,1887
10704,1838
10705,1824
10706,1827
10707,1834
10708,1878
10709,1872
10710,1872
10711,1895
10712,1871
10713,1840
10714,1840
10715,1850
10716,1875
10717,1891
10718,1866
10719,1874
10720,1886
10721,1838
10722,1827
10723,1829
10724,1867
10725,1872
10726,1856
10727,1846
10728,1872
10729,1859
10730,1845
10731,1846
10732,1849
10733,1902
10734,1885
10735,1872
10736,1871
10737,1859
10738,1826
10739,1821
10740,1840
10741,1881
10742,1874
10743,1852
10744,1876
10745,1886
10746,1855
10747,1847
10748,1840
10749,1858
10750,1872
10751,1895
10752,1892
10753,1867
10754,1846
10755,1823
10756,1830
10757,1865
10758,1873
10759,1858
10760,1858
10761,1877
10762,1863
10763,1841
10764,1838
10765,1854
10766,1855
10767,1872
10768,1872
10769,1886
10770,1872
10771,1840
10772,1817
10773,1834
10774,1871
10775,1878
10776,1854
10777,1879
10778,1860
10779,1866
10780,1840
10781,1840
10782,1865
10783,1878
10784,1872
10785,1891
10786,1883
10787,1863
10788,1829
10789,1820
10790,1843
10791,1873
10792,1859
10793,1872
10794,1872
10795,1879
10796,1840
10797,1840
10798,1840
10799,1899
10800,1872
10801,1892
10802,1895
10803,1856
10804,1840
10805,1829
10806,1825
10807,1844
10808,1875
10809,1855
10810,1872
10811,1855
10812,1873
10813,1849
10814,1831
10815,1831
10816,1890
10817,1899
10818,1858
10819,1872
10820,1862
10821,1833
10822,1827
10823,1829
10824,1858
10825,1874
10826,1867
10827,1850
10828,1875
10829,1851
10830,1837
10831,1838
10832,1863
10833,1885
10834,1897
10835,1879
10836,1889
10837,1861
10838,1834
10839,1829
10840,1817
10841,1872
10842,1887
10843,1872
10844,1872
10845,1879
10846,1849
10847,1845
10848,1840
10849,1882
10850,1868
10851,1902
10852,1887
10853,1873
10854,1837
10855,1810
10856,1817
10857,1871
10858,1853
10859,1860
10860,1885
10861,1877
10862,1862
10863,1843
10864,1841
10865,1846
10866,1879
10867,1876
10868,1861
10869,1875
10870,1872
10871,1837
10872,1808
10873,1824
10874,1871
10875,1889
10876,1885
10877,1887
10878,1885
10879,1856
10880,1830
10881,1839
10882,1847
10883,1885
10884,1886
10885,1885
10886,1854
10887,1850
10888,1823
10889,1829
10890,1808
10891,1860
10892,1854
10893,1842
10894,1879
10895,1866
10896,1847
10897,1849
10898,1840
10899,1845
10900,1893
10901,1869
10902,1910
10903,1894
10904,1845
10905,1825
10906,1831
10907,1856
10908,1867
10909,1875
10910,1881
10911,1878
10912,1862
10913,1856
10914,1837
10915,1849
10916,1867
10917,1872
10918,1886
10919,1871
10920,1872
10921,1838
10922,1825
10923,1831
10924,1862
10925,1851
10926,1871
10927,1875
10928,1873
10929,1865
10930,1843
10931,1846
10932,1877
10933,1897
10934,1893
10935,1893
10936,1904
10937,1868
10938,1830
10939,1828
10940,1837
10941,1852
10942,1872
10943,1843
10944,1885
10945,1870
10946,1845
10947,1842
10948,1869
10949,1857
10950,1850
10951,1908
10952,1883
10953,1873
10954,1843
10955,1827
10956,1828
10957,1857
10958,1862
10959,1870
10960,1872
10961,1877
10962,1882
10963,1847
10964,1842
10965,1850
10966,1887
10967,1866
10968,1885
10969,1898
10970,1873
10971,1834
10972,1827
10973,1831
10974,1858
10975,1839
10976,1840
10977,1857
10978,1872
10979,1866
10980,1842
10981,1843
10982,1835
10983,1881
10984,1879
10985,1881
10986,1867
10987,1853
10988,1834
10989,1823
10990,1872
10991,1872
10992,1886
10993,1901
10994,1877
10995,1857
10996,1850
10997,1849
10998,1833
10999,1872
11000,1893
11001,1868
11002,1865
11003,1887
11004,1837
11005,1824
11006,1826
11007,1867
11008,1839
11009,1841
11010,1875
11011,1868
11012,1874
11013,1839
11014,1847
11015,1837
11016,1881
11017,1889
11018,1893
11019,1873
11020,1854
11021,1829
11022,1835
11023,1837
11024,1869
11025,1861
11026,1854
11027,1865
11028,1875
11029,1859
11030,1845
11031,1839
11032,1881
11033,1861
11034,1858
11035,1882
11036,1843
11037,1856
11038,1824
11039,1815
11040,1838
11041,1846
11042,1874
11043,1862
11044,1862
11045,1855
11046,1854
11047,1843
11048,1843
11049,1855
11050,1889
11051,1890
11052,1879
11053,1859
11054,1837
11055,1824
11056,1835
11057,1866
11058,1881
11059,1876
11060,1857
11061,1877
11062,1872
11063,1850
11064,1837
11065,1856
11066,1881
11067,1889
11068,1874
11069,1878
11070,1877
11071,1828
11072,1830
11073,1831
11074,1872
11075,1846
11076,1875
11077,1872
11078,1851
11079,1867
11080,1850
11081,1855
11082,1872
11083,1870
11084,1865
11085,1859
11086,1851
11087,1862
11088,1826
11089,1824
11090,1871
11091,1883
11092,1877
11093,1873
11094,1846
11095,1870
11096,1845
11097,1840
11098,1847
11099,1875
11100,1904
11101,1887
11102,1887
11103,1890
11104,1855
11105,1821
11106,1827
11107,1862
11108,1878
11109,1846
11110,1850
11111,1872
11112,1866
11113,1841
11114,1840
11115,1870
11116,1871
11117,1874
11118,1874
11119,1877
11120,1850
11121,1840
11122,1829
11123,1838
11124,1869
11125,1872
11126,1891
11127,1842
11128,1872
11129,1849
11130,1839
11131,1840
11132,1863
11133,1872
11134,1896
11135,1862
11136,1893
11137,1850
11138,1824
11139,1821
11140,1823
11141,1861
11142,1871
11143,1866
11144,1875
11145,1881
11146,1850
11147,1852
11148,1829
11149,1872
11150,1872
11151,1911
11152,1856
11153,1904
11154,1840
11155,1838
11156,1831
11157,1859
11158,1887
11159,1871
11160,1873
11161,1877
11162,1872
11163,1846
11164,1840
11165,1851
11166,1870
11167,1902
11168,1919
11169,1863
11170,1857
11171,1839
11172,1831
11173,1827
11174,1851
11175,1878
11176,1874
11177,1872
11178,1875
11179,1861
11180,1843
11181,1847
11182,1869
11183,1876
11184,1882
11185,1856
11186,1872
11187,1856
11188,1827
11189,1827
11190,1846
11191,1890
11192,1847
11193,1863
11194,1898
11195,1862
11196,1851
11197,1846
11198,1837
11199,1863
11200,1893
11201,1872
11202,1882
11203,1877
11204,1850
11205,1821
11206,1831
11207,1878
11208,1874
11209,1867
11210,1885
11211,1874
11212,1865
11213,1843
11214,1839
11215,1826
11216,1883
11217,1877
11218,1845
11219,1882
11220,1871
11221,1842
11222,1823
11223,1819
11224,1883
11225,1872
11226,1873
11227,1861
11228,1855
11229,1847
11230,1840
11231,1844
11232,1890
11233,1873
11234,1895
11235,1861
11236,1901
11237,1858
11238,1831
11239,1822
11240,1845
11241,1873
11242,1851
11243,1867
11244,1867
11245,1856
11246,1842
11247,1840
11248,1826
11249,1877
11250,1903
11251,1869
11252,1856
11253,1850
11254,1843
11255,1825
11256,1818
11257,1854
11258,1875
11259,1842
11260,1889
11261,1869
11262,1856
11263,1840
11264,1841
11265,1831
11266,1883
11267,1882
11268,1890
11269,1855
11270,1872
11271,1838
11272,1831
11273,1838
11274,1870
11275,1866
11276,1862
11277,1878
11278,1845
11279,1850
11280,1842
11281,1840
11282,1843
11283,1888
11284,1872
11285,1902
11286,1854
11287,1853
11288,1834
11289,1835
11290,1824
11291,1855
11292,1866
11293,1887
11294,1897
11295,1455
11296,1700
11297,1851
11298,1908
11299,1969
11300,2062
11301,2197
11302,2284
11303,2353
11304,2370
11305,2311
11306,2193
11307,2083
11308,2003
11309,1879
11310,1808
11311,1687
11312,1599
11313,1445
11314,1360
11315,1341
11316,1375
11317,1413
11318,1484
11319,1584
11320,1649
11321,1680
11322,1759
11323,1808
11324,1879
11325,1895
11326,1570
11327,1666
11328,1899
11329,1958
11330,2029
11331,2132
11332,2240
11333,2391
11334,2416
11335,2369
11336,2346
11337,2194
11338,2063
11339,1979
11340,1925
11341,1839
11342,1703
11343,1571
11344,1457
11345,1368
11346,1267
11347,1262
11348,1403
11349,1535
11350,1682
11351,1769
11352,1840
11353,1882
11354,1878
11355,1872
11356,1889
11357,1789
11358,1632
11359,1904
11360,2007
11361,2027
11362,2119
11363,2234
11364,2358
11365,2417
11366,2399
11367,2333
11368,2229
11369,2112
11370,2023
11371,1891
11372,1717
11373,1575
11374,1463
11375,1382
11376,1329
11377,1303
11378,1410
11379,1501
11380,1600
11381,1711
11382,1807
11383,1903
11384,1872
11385,1950
11386,1930
11387,1915
11388,2305
11389,1623
11390,1918
11391,2019
11392,2017
11393,2062
11394,2226
11395,2347
11396,2406
11397,2390
11398,2290
11399,2179
11400,2110
11401,1989
11402,1891
11403,1759
11404,1559
11405,1390
11406,1295
11407,1279
11408,1275
11409,1381
11410,1517
11411,1652
11412,1743
11413,1812
11414,1851
11415,1886
11416,1942
11417,1933
11418,1977
11419,1997
11420,1652
11421,1893
11422,1968
11423,2005
11424,2109
11425,2191
11426,2369
11427,2439
11428,2342
11429,2277
11430,2149
11431,2045
11432,1983
11433,1906
11434,1712
11435,1589
11436,1414
11437,1306
11438,1190
11439,1218
11440,1397
11441,1566
11442,1671
11443,1788
11444,1831
11445,1881
11446,1883
11447,1904
11448,1909
11449,1963
11450,1849
11451,1680
11452,1878
11453,1989
11454,2000
11455,2074
11456,2256
11457,2372
11458,2442
11459,2419
11460,2351
11461,2211
11462,2112
11463,2002
11464,1862
11465,1712
11466,1535
11467,1421
11468,1297
11469,1216
11470,1245
11471,1331
11472,1456
11473,1623
11474,1779
11475,1798
11476,1869
11477,1911
11478,1926
11479,1936
11480,1936
11481,1929
11482,1699
11483,1842
11484,1939
11485,1999
11486,2032
11487,2204
11488,2384
11489,2445
11490,2434
11491,2335
11492,2220
11493,2121
11494,2041
11495,1920
11496,1697
11497,1494
11498,1317
11499,1289
11500,1210
11501,1239
11502,1418
11503,1502
11504,1619
11505,1718
11506,1786
11507,1858
11508,1925
11509,1936
11510,1923
11511,1985
11512,1967
11513,1857
11514,1818
11515,1935
11516,1974
11517,2033
11518,2172
11519,2287
11520,2397
11521,2379
11522,2317
11523,2230
11524,2141
11525,2082
11526,1940
11527,1745
11528,1610
11529,1378
11530,1195
11531,1098
11532,1232
11533,1394
11534,1553
11535,1666
11536,1767
11537,1803
11538,1815
11539,1853
11540,1913
11541,1919
11542,1919
11543,1954
11544,2019
11545,1835
11546,1906
11547,1946
11548,2000
11549,2149
11550,2305
11551,2339
11552,2391
11553,2311
11554,2229
11555,2160
11556,2065
11557,1973
11558,1829
11559,1588
11560,1449
11561,1287
11562,1168
11563,1226
11564,1344
11565,1517
11566,1616
11567,1794
11568,1815
11569,1837
11570,1887
11571,1878
11572,1907
11573,1904
11574,1968
11575,2074
11576,1802
11577,1949
11578,1971
11579,2014
11580,2166
11581,2323
11582,2337
11583,2358
11584,2312
11585,2240
11586,2146
11587,2065
11588,1937
11589,1733
11590,1589
11591,1419
11592,1300
11593,1216
11594,1296
11595,1391
11596,1503
11597,1622
11598,1727
11599,1845
11600,1850
11601,1893
11602,1923
11603,1927
11604,1919
11605,1913
11606,2158
11607,1808
11608,1910
11609,1965
11610,1977
11611,2120
11612,2288
11613,2352
11614,2338
11615,2320
11616,2262
11617,2209
11618,2098
11619,2000
11620,1783
11621,1558
11622,1355
11623,1195
11624,1216
11625,1315
11626,1438
11627,1574
11628,1668
11629,1712
11630,1776
11631,1813
11632,1879
11633,1893
11634,1935
11635,1939
11636,1952
11637,1892
11638,1774
11639,1869
11640,1933
11641,1974
11642,2075
11643,2267
11644,2325
11645,2303
11646,2307
11647,2265
11648,2192
11649,2112
11650,2035
11651,1885
11652,1637
11653,1466
11654,1201
11655,1114
11656,1228
11657,1408
11658,1535
11659,1656
11660,1744
11661,1780
11662,1840
11663,1867
11664,1886
11665,1925
11666,1947
11667,1952
11668,1795
11669,1903
11670,1895
11671,1929
11672,1966
11673,2067
11674,2242
11675,2353
11676,2281
11677,2307
11678,2253
11679,2205
11680,2107
11681,1979
11682,1836
11683,1669
11684,1463
11685,1271
11686,1197
11687,1254
11688,1358
11689,1479
11690,1630
11691,1747
11692,1803
11693,1835
11694,1878
11695,1909
11696,1916
11697,1906
11698,1928
11699,1947
11700,1953
11701,1894
11702,1925
11703,1974
11704,2075
11705,2219
11706,2319
11707,2303
11708,2288
11709,2256
11710,2192
11711,2129
11712,2011
11713,1838
11714,1629
11715,1458
11716,1293
11717,1232
11718,1271
11719,1424
11720,1515
11721,1600
11722,1664
11723,1759
11724,1810
11725,1895
11726,1908
11727,1947
11728,1963
11729,1941
11730,1931
11731,1929
11732,1879
11733,1921
11734,1987
11735,2055
11736,2173
11737,2329
11738,2314
11739,2299
11740,2272
11741,2255
11742,2112
11743,2058
11744,1870
11745,1686
11746,1424
11747,1193
11748,1147
11749,1257
11750,1435
11751,1535
11752,1639
11753,1712
11754,1765
11755,1799
11756,1846
11757,1892
11758,1927
11759,1951
11760,1963
11761,1963
11762,2066
11763,1819
11764,1926
11765,1937
11766,2064
11767,2222
11768,2303
11769,2369
11770,2290
11771,2253
11772,2197
11773,2153
11774,2067
11775,1919
11776,1729
11777,1488
11778,1326
11779,1142
11780,1216
11781,1348
11782,1535
11783,1607
11784,1717
11785,1776
11786,1811
11787,1840
11788,1861
11789,1891
11790,1910
11791,1935
11792,1975
11793,2147
11794,1822
11795,1921
11796,1936
11797,2007
11798,2154
11799,2302
11800,2353
11801,2303
11802,2305
11803,2230
11804,2159
11805,2068
11806,1901
11807,1715
11808,1567
11809,1342
11810,1215
11811,1247
11812,1335
11813,1426
11814,1560
11815,1689
11816,1746
11817,1797
11818,1870
11819,1915
11820,1902
11821,1906
11822,1923
11823,1926
11824,2093
11825,1830
11826,1890
11827,1921
11828,2028
11829,2155
11830,2315
11831,2313
11832,2288
11833,2267
11834,2261
11835,2194
11836,2097
11837,1934
11838,1722
11839,1498
11840,1342
11841,1258
11842,1200
11843,1349
11844,1455
11845,1597
11846,1648
11847,1728
11848,1819
11849,1874
11850,1911
11851,1898
11852,1920
11853,1954
11854,1930
11855,1850
11856,1797
11857,1902
11858,1954
11859,2001
11860,2112
11861,2269
11862,2339
11863,2320
11864,2289
11865,2269
11866,2193
11867,2164
11868,2007
11869,1824
11870,1597
11871,1302
11872,1105
11873,1152
11874,1336
11875,1430
11876,1594
11877,1647
11878,1762
11879,1790
11880,1827
11881,1873
11882,1918
11883,1955
11884,1970
11885,1936
11886,1776
11887,1810
11888,1872
11889,1921
11890,1967
11891,2069
11892,2259
11893,2342
11894,2288
11895,2305
11896,2279
11897,2213
11898,2164
11899,2001
11900,1879
11901,1649
11902,1437
11903,1245
11904,1123
11905,1243
11906,1378
11907,1535
11908,1645
11909,1747
11910,1763
11911,1872
11912,1872
11913,1882
11914,1921
11915,1947
11916,1990
11917,2004
