Time(ms),Raw_ADC
0,1892
1,1887
2,1881
3,1877
4,1875
5,1872
6,1862
7,1857
8,1856
9,1849
10,1849
11,1854
12,1847
13,1841
14,1840
15,1840
16,1840
17,1841
18,1843
19,1844
20,1845
21,1844
22,1850
23,1851
24,1856
25,1857
26,1862
27,1869
28,1870
29,1871
30,1874
31,1879
32,1886
33,1888
34,1889
35,1891
36,1891
37,1891
38,1891
39,1889
40,1892
41,1891
42,1893
43,1892
44,1893
45,1895
46,1898
47,1899
48,1898
49,1897
50,1895
51,1892
52,1898
53,1893
54,1894
55,1898
56,1891
57,1886
58,1887
59,1888
60,1892
61,1887
62,1886
63,1885
64,1876
65,2210
66,1701
67,0
68,0
69,167
70,783
71,1286
72,1627
73,1842
74,1971
75,2046
76,2087
77,2105
78,2102
79,2098
80,2090
81,2083
82,2071
83,2067
84,2060
85,2046
86,2039
87,2032
88,2027
89,2019
90,2017
91,2018
92,2014
93,2010
94,2006
95,2003
96,1997
97,1999
98,1998
99,1997
100,1994
101,1990
102,1984
103,1975
104,1967
105,1958
106,1951
107,1947
108,1941
109,1936
110,1936
111,1936
112,1936
113,1936
114,1936
115,1936
116,1936
117,1934
118,1935
119,1931
120,1930
121,1925
122,1929
123,1920
124,1919
125,1918
126,1919
127,1919
128,1913
129,1911
130,1905
131,1899
132,1892
133,1883
134,1876
135,1873
136,1870
137,1867
138,1866
139,1857
140,1856
141,1857
142,1854
143,1851
144,1847
145,1840
146,1838
147,1834
148,1836
149,1835
150,1833
151,1838
152,1839
153,1839
154,1840
155,1839
156,1843
157,1851
158,1852
159,1855
160,1861
161,1865
162,1866
163,1872
164,1875
165,1881
166,1886
167,1886
168,1887
169,1889
170,1889
171,1887
172,1891
173,1893
174,1893
175,1890
176,1893
177,1889
178,1892
179,1897
180,1895
181,1895
182,1895
183,1898
184,1894
185,1893
186,1894
187,1895
188,1893
189,2279
190,1535
191,0
192,0
193,224
194,847
195,1343
196,1684
197,1891
198,2011
199,2079
200,2113
201,2125
202,2128
203,2123
204,2115
205,2103
206,2097
207,2082
208,2070
209,2064
210,2046
211,2032
212,2023
213,2009
214,2000
215,1998
216,1984
217,1979
218,1969
219,1968
220,1963
221,1958
222,1959
223,1955
224,1957
225,1957
226,1952
227,1949
228,1938
229,1936
230,1935
231,1936
232,1936
233,1936
234,1934
235,1935
236,1939
237,1936
238,1936
239,1936
240,1936
241,1927
242,1929
243,1926
244,1926
245,1930
246,1927
247,1929
248,1924
249,1926
250,1920
251,1920
252,1920
253,1918
254,1919
255,1919
256,1915
257,1907
258,1907
259,1907
260,1907
261,1906
262,1904
263,1904
264,1892
265,1889
266,1877
267,1872
268,1870
269,1867
270,1865
271,1859
272,1855
273,1850
274,1847
275,1848
276,1842
277,1847
278,1837
279,1838
280,1830
281,1830
282,1831
283,1835
284,1838
285,1835
286,1835
287,1839
288,1840
289,1840
290,1846
291,1853
292,1854
293,1856
294,1861
295,1866
296,1869
297,1873
298,1879
299,1885
300,1885
301,1887
302,1885
303,1887
304,1886
305,1889
306,1888
307,1889
308,1888
309,1888
310,1890
311,1896
312,1897
313,2363
314,1259
315,0
316,0
317,304
318,919
319,1399
320,1728
321,1927
322,2047
323,2113
324,2146
325,2160
326,2166
327,2163
328,2155
329,2146
330,2132
331,2114
332,2099
333,2089
334,2071
335,2061
336,2037
337,2027
338,2017
339,2004
340,1997
341,1987
342,1983
343,1974
344,1966
345,1953
346,1950
347,1937
348,1934
349,1929
350,1926
351,1916
352,1906
353,1904
354,1904
355,1904
356,1904
357,1904
358,1904
359,1904
360,1905
361,1908
362,1914
363,1918
364,1919
365,1923
366,1921
367,1921
368,1924
369,1920
370,1919
371,1918
372,1919
373,1920
374,1918
375,1918
376,1913
377,1916
378,1918
379,1917
380,1919
381,1919
382,1916
383,1915
384,1914
385,1911
386,1909
387,1911
388,1911
389,1907
390,1904
391,1903
392,1904
393,1904
394,1903
395,1901
396,1899
397,1891
398,1882
399,1874
400,1872
401,1867
402,1861
403,1860
404,1857
405,1856
406,1847
407,1846
408,1847
409,1843
410,1843
411,1839
412,1834
413,1829
414,1829
415,1827
416,1829
417,1834
418,1830
419,1834
420,1839
421,1839
422,1839
423,1840
424,1846
425,1849
426,1856
427,1856
428,1857
429,1867
430,1872
431,1877
432,1881
433,1884
434,1885
435,1885
436,1886
437,1883
438,1885
439,1889
440,1889
441,1888
442,1887
443,1890
444,1889
445,1895
446,1898
447,1896
448,1898
449,1893
450,1897
451,1893
452,1895
453,1894
454,1891
455,1894
456,1885
457,1881
458,1880
459,1882
460,1881
461,1882
462,1878
463,1874
464,1872
465,1862
466,1855
467,1852
468,1850
469,1849
470,1850
471,1840
472,1839
473,1839
474,1841
475,1839
476,1837
477,1834
478,1826
479,1817
480,1810
481,1811
482,1820
483,1810
484,1825
485,1825
486,1824
487,1823
488,1821
489,1828
490,1839
491,1842
492,1847
493,1852
494,1849
495,1854
496,1856
497,1871
498,1874
499,1875
500,1882
501,1881
502,1882
503,1883
504,1885
505,1883
506,1878
507,1878
508,1875
509,1887
510,1887
511,1888
512,1891
513,1893
514,1895
515,1895
516,1891
517,1891
518,1891
519,1891
520,1887
521,1888
522,1889
523,1883
524,1879
525,1881
526,1885
527,1883
528,1883
529,1879
530,1873
531,1867
532,1858
533,1856
534,1847
535,1847
536,1843
537,1840
538,1839
539,1835
540,1830
541,1831
542,1833
543,1831
544,1824
545,1820
546,1817
547,1814
548,1814
549,1815
550,1819
551,1822
552,1822
553,1823
554,1826
555,1828
556,1831
557,1840
558,1840
559,1847
560,1850
561,1853
562,1855
563,1861
564,1867
565,1872
566,1874
567,1879
568,1875
569,1879
570,1877
571,1879
572,1879
573,1885
574,1884
575,1878
576,1877
577,1875
578,1878
579,1879
580,1879
581,1881
582,1883
583,1879
584,1879
585,1880
586,1885
587,1882
588,1883
589,1877
590,1875
591,1875
592,1875
593,1876
594,1875
595,1875
596,1873
597,1870
598,1858
599,1853
600,1847
601,1841
602,1848
603,1840
604,1834
605,1831
606,1830
607,1827
608,1827
609,1822
610,1824
611,1815
612,1810
613,1809
614,1810
615,1808
616,1810
617,1811
618,1814
619,1813
620,1825
621,1825
622,1830
623,1836
624,1840
625,1840
626,1845
627,1854
628,1856
629,1861
630,1863
631,1872
632,1873
633,1877
634,1877
635,1879
636,1879
637,1884
638,1879
639,1883
640,1883
641,1882
642,1883
643,1887
644,1887
645,1887
646,1889
647,1891
648,1893
649,1890
650,1891
651,1889
652,1890
653,1887
654,1890
655,1889
656,1888
657,1883
658,1884
659,1887
660,1887
661,1885
662,1883
663,1879
664,1874
665,1868
666,1860
667,1857
668,1851
669,1851
670,1845
671,1847
672,1839
673,1840
674,1835
675,1839
676,1834
677,1827
678,1823
679,1822
680,1817
681,1813
682,1820
683,1820
684,1825
685,1825
686,1833
687,1830
688,1827
689,1835
690,1840
691,1847
692,1850
693,1853
694,1856
695,1857
696,1859
697,1861
698,1872
699,1872
700,1872
701,1879
702,1871
703,1877
704,1877
705,1872
706,1877
707,1879
708,1879
709,1878
710,1881
711,1879
712,1882
713,1886
714,1888
715,1888
716,1886
717,1885
718,1885
719,1883
720,1882
721,1885
722,1886
723,1881
724,1878
725,1879
726,1879
727,1882
728,1881
729,1876
730,1872
731,1863
732,1858
733,1857
734,1850
735,1843
736,1842
737,1841
738,1833
739,1838
740,1837
741,1836
742,1839
743,1830
744,1827
745,1823
746,1818
747,1817
748,1819
749,1821
750,1823
751,1826
752,1827
753,1827
754,1830
755,1830
756,1837
757,1840
758,1845
759,1852
760,1851
761,1858
762,1863
763,1867
764,1872
765,1875
766,1878
767,1877
768,1881
769,1883
770,1884
771,1883
772,1883
773,1888
774,1888
775,1885
776,1886
777,1887
778,1893
779,1895
780,1894
781,1895
782,1891
783,1893
784,1893
785,1895
786,1894
787,1894
788,1894
789,1893
790,1890
791,1888
792,1888
793,1891
794,1889
795,1886
796,1887
797,1878
798,1872
799,1866
800,1858
801,1854
802,1855
803,1847
804,1843
805,1840
806,1834
807,1830
808,1834
809,1832
810,1826
811,1821
812,1815
813,1814
814,1810
815,1811
816,1813
817,1815
818,1819
819,1823
820,1825
821,1825
822,1825
823,1829
824,1838
825,1840
826,1843
827,1850
828,1848
829,1855
830,1863
831,1868
832,1872
833,1872
834,1874
835,1877
836,1877
837,1874
838,1874
839,1877
840,1877
841,1878
842,1878
843,1878
844,1879
845,1885
846,1885
847,1885
848,1887
849,1887
850,1885
851,1889
852,1889
853,1891
854,1893
855,1893
856,1893
857,1887
858,1889
859,1886
860,1891
861,1889
862,1886
863,1883
864,1875
865,1870
866,1861
867,1857
868,1854
869,1851
870,1847
871,1842
872,1840
873,1840
874,1839
875,1840
876,1836
877,1830
878,1825
879,1821
880,1822
881,1818
882,1819
883,1824
884,1821
885,1826
886,1829
887,1829
888,1831
889,1835
890,1840
891,1843
892,1850
893,1851
894,1857
895,1856
896,1863
897,1871
898,1875
899,1877
900,1879
901,1879
902,1885
903,1885
904,1883
905,1885
906,1883
907,1883
908,1879
909,1890
910,1889
911,1893
912,1898
913,1895
914,1899
915,1895
916,1894
917,1893
918,1895
919,1898
920,1898
921,1898
922,1895
923,1890
924,1891
925,1890
926,1891
927,1890
928,1891
929,1889
930,1884
931,1874
932,1869
933,1866
934,1857
935,1857
936,1847
937,1843
938,1840
939,1836
940,1833
941,1833
942,1834
943,1830
944,1824
945,1817
946,1813
947,1811
948,1810
949,1813
950,1818
951,1818
952,1819
953,1822
954,1825
955,1828
956,1831
957,1837
958,1839
959,1842
960,1847
961,1860
962,1857
963,1863
964,1872
965,1877
966,1877
967,1882
968,1883
969,1883
970,1883
971,1885
972,1885
973,1888
974,1889
975,1886
976,1886
977,1887
978,1890
979,1897
980,1894
981,1893
982,1899
983,1893
984,1894
985,1895
986,1892
987,1894
988,1893
989,1894
990,1893
991,1887
992,1891
993,1894
994,1889
995,1889
996,1886
997,1879
998,1870
999,1868
1000,1859
1001,1858
1002,1855
1003,1851
1004,1845
1005,1841
1006,1830
1007,1829
1008,1828
1009,1834
1010,1828
1011,1827
1012,1821
1013,1822
1014,1815
1015,1820
1016,1819
1017,1822
1018,1824
1019,1825
1020,1830
1021,1829
1022,1836
1023,1839
1024,1842
1025,1847
1026,1851
1027,1857
1028,1857
1029,1861
1030,1869
1031,1872
1032,1877
1033,1879
1034,1879
1035,1883
1036,1883
1037,1885
1038,1885
1039,1887
1040,1888
1041,1887
1042,1886
1043,1890
1044,1889
1045,1891
1046,1893
1047,1896
1048,1898
1049,1893
1050,1891
1051,1893
1052,1891
1053,1892
1054,1893
1055,1895
1056,1889
1057,1883
1058,1881
1059,1887
1060,1882
1061,1881
1062,1881
1063,1877
1064,1871
1065,1859
1066,1857
1067,1854
1068,1846
1069,1843
1070,1840
1071,1840
1072,1835
1073,1838
1074,1830
1075,1830
1076,1827
1077,1823
1078,1814
1079,1810
1080,1810
1081,1817
1082,1813
1083,1819
1084,1821
1085,1824
1086,1825
1087,1826
1088,1829
1089,1835
1090,1840
1091,1843
1092,1846
1093,1854
1094,1855
1095,1857
1096,1862
1097,1867
1098,1873
1099,1879
1100,1883
1101,1885
1102,1881
1103,1883
1104,1884
1105,1885
1106,1881
1107,1879
1108,1882
1109,1887
1110,1887
1111,1893
1112,1893
1113,1894
1114,1894
1115,1897
1116,1896
1117,1894
1118,1894
1119,1891
1120,1895
1121,1897
1122,1894
1123,1888
1124,1887
1125,1887
1126,1890
1127,1892
1128,1887
1129,1887
1130,1882
1131,1872
1132,1865
1133,1861
1134,1854
1135,1856
1136,1850
1137,1850
1138,1840
1139,1840
1140,1838
1141,1839
1142,1834
1143,1837
1144,1823
1145,1820
1146,1815
1147,1819
1148,1814
1149,1815
1150,1823
1151,1819
1152,1825
1153,1827
1154,1827
1155,1831
1156,1837
1157,1840
1158,1842
1159,1848
1160,1854
1161,1857
1162,1859
1163,1865
1164,1872
1165,1877
1166,1878
1167,1883
1168,1881
1169,1883
1170,1883
1171,1887
1172,1885
1173,1888
1174,1890
1175,1889
1176,1882
1177,1883
1178,1885
1179,1887
1180,1887
1181,1890
1182,1888
1183,1889
1184,1889
1185,1888
1186,1889
1187,1890
1188,1891
1189,1887
1190,1883
1191,1881
1192,1884
1193,1887
1194,1885
1195,1882
1196,1878
1197,1872
1198,1863
1199,1856
1200,1854
1201,1855
1202,1856
1203,1852
1204,1843
1205,1841
1206,1830
1207,1831
1208,1831
1209,1834
1210,1834
1211,1826
1212,1819
1213,1819
1214,1815
1215,1818
1216,1818
1217,1826
1218,1824
1219,1825
1220,1829
1221,1827
1222,1833
1223,1835
1224,1840
1225,1841
1226,1850
1227,1855
1228,1858
1229,1861
1230,1869
1231,1872
1232,1877
1233,1881
1234,1881
1235,1882
1236,1883
1237,1882
1238,1885
1239,1887
1240,1888
1241,1887
1242,1886
1243,1887
1244,1890
1245,1894
1246,1895
1247,1895
1248,1898
1249,1894
1250,1894
1251,1895
1252,1895
1253,1894
1254,1893
1255,1894
1256,1893
1257,1889
1258,1887
1259,1890
1260,1891
1261,1887
1262,1885
1263,1883
1264,1876
1265,1867
1266,1863
1267,1856
1268,1854
1269,1850
1270,1849
1271,1842
1272,1840
1273,1840
1274,1837
1275,1835
1276,1834
1277,1831
1278,1826
1279,1817
1280,1820
1281,1819
1282,1821
1283,1818
1284,1821
1285,1824
1286,1826
1287,1826
1288,1827
1289,1833
1290,1838
1291,1842
1292,1845
1293,1852
1294,1857
1295,1860
1296,1857
1297,1865
1298,1872
1299,1872
1300,1873
1301,1877
1302,1872
1303,1875
1304,1875
1305,1878
1306,1878
1307,1879
1308,1878
1309,1881
1310,1882
1311,1883
1312,1885
1313,1890
1314,1890
1315,1890
1316,1887
1317,1888
1318,1887
1319,1886
1320,1888
1321,1889
1322,1886
1323,1881
1324,1878
1325,1879
1326,1883
1327,1882
1328,1881
1329,1877
1330,1872
1331,1870
1332,1866
1333,1860
1334,1856
1335,1853
1336,1847
1337,1845
1338,1840
1339,1839
1340,1839
1341,1836
1342,1835
1343,1831
1344,1825
1345,1825
1346,1815
1347,1819
1348,1815
1349,1819
1350,1819
1351,1822
1352,1823
1353,1826
1354,1829
1355,1830
1356,1837
1357,1840
1358,1842
1359,1847
1360,1854
1361,1854
1362,1858
1363,1867
1364,1870
1365,1874
1366,1878
1367,1880
1368,1882
1369,1882
1370,1884
1371,1884
1372,1885
1373,1887
1374,1886
1375,1887
1376,1890
1377,1891
1378,1892
1379,1898
1380,1898
1381,1897
1382,1899
1383,1897
1384,1894
1385,1896
1386,1895
1387,1897
1388,1898
1389,1895
1390,1893
1391,1894
1392,1895
1393,1899
1394,1893
1395,1894
1396,1891
1397,1885
1398,1872
1399,1870
1400,1863
1401,1857
1402,1856
1403,1855
1404,1851
1405,1846
1406,1839
1407,1836
1408,1837
1409,1838
1410,1828
1411,1826
1412,1822
1413,1819
1414,1814
1415,1819
1416,1823
1417,1822
1418,1825
1419,1826
1420,1829
1421,1830
1422,1835
1423,1840
1424,1843
1425,1850
1426,1851
1427,1856
1428,1859
1429,1866
1430,1871
1431,1875
1432,1879
1433,1883
1434,1887
1435,1884
1436,1888
1437,1889
1438,1891
1439,1894
1440,1895
1441,1901
1442,1902
1443,1904
1444,1904
1445,1904
1446,1905
1447,1906
1448,1905
1449,1904
1450,1905
1451,1904
1452,1905
1453,1904
1454,1904
1455,1903
1456,1901
1457,1897
1458,1897
1459,1901
1460,1901
1461,1895
1462,1895
1463,1890
1464,1882
1465,1872
1466,1869
1467,1859
1468,1860
1469,1855
1470,1853
1471,1845
1472,1840
1473,1840
1474,1840
1475,1839
1476,1840
1477,1831
1478,1823
1479,1819
1480,1815
1481,1817
1482,1814
1483,1820
1484,1820
1485,1819
1486,1824
1487,1823
1488,1826
1489,1829
1490,1835
1491,1840
1492,1841
1493,1842
1494,1847
1495,1851
1496,1855
1497,1861
1498,1867
1499,1868
1500,1870
1501,1869
1502,1871
1503,1870
1504,1871
1505,1873
1506,1870
1507,1867
1508,1868
1509,1874
1510,1872
1511,1876
1512,1875
1513,1879
1514,1878
1515,1879
1516,1875
1517,1876
1518,1879
1519,1877
1520,1879
1521,1879
1522,1875
1523,1873
1524,1875
1525,1877
1526,1875
1527,1877
1528,1874
1529,1875
1530,1872
1531,1859
1532,1855
1533,1853
1534,1847
1535,1840
1536,1839
1537,1835
1538,1831
1539,1824
1540,1825
1541,1827
1542,1823
1543,1824
1544,1818
1545,1809
1546,1808
1547,1808
1548,1808
1549,1808
1550,1813
1551,1813
1552,1815
1553,1822
1554,1823
1555,1825
1556,1831
1557,1837
1558,1839
1559,1841
1560,1844
1561,1856
1562,1859
1563,1867
1564,1873
1565,1879
1566,1879
1567,1882
1568,1886
1569,1886
1570,1885
1571,1887
1572,1887
1573,1889
1574,1886
1575,1887
1576,1888
1577,1890
1578,1893
1579,1895
1580,1893
1581,1903
1582,1901
1583,1902
1584,1899
1585,1898
1586,1898
1587,1897
1588,1898
1589,1897
1590,1895
1591,1890
1592,1892
1593,1893
1594,1891
1595,1890
1596,1887
1597,1877
1598,1872
1599,1866
1600,1858
1601,1856
1602,1849
1603,1847
1604,1844
1605,1840
1606,1833
1607,1831
1608,1831
1609,1835
1610,1827
1611,1822
1612,1819
1613,1819
1614,1814
1615,1818
1616,1819
1617,1820
1618,1825
1619,1825
1620,1825
1621,1828
1622,1833
1623,1838
1624,1841
1625,1843
1626,1851
1627,1852
1628,1856
1629,1861
1630,1869
1631,1875
1632,1876
1633,1882
1634,1881
1635,1883
1636,1881
1637,1886
1638,1885
1639,1886
1640,1887
1641,1889
1642,1887
1643,1888
1644,1893
1645,1895
1646,1891
1647,1895
1648,1897
1649,1893
1650,1895
1651,1894
1652,1893
1653,1893
1654,1895
1655,1897
1656,1883
1657,1879
1658,1882
1659,1885
1660,1886
1661,1883
1662,1883
1663,1877
1664,1868
1665,1859
1666,1856
1667,1850
1668,1845
1669,1842
1670,1840
1671,1837
1672,1834
1673,1831
1674,1833
1675,1830
1676,1826
1677,1824
1678,1814
1679,1813
1680,1809
1681,1814
1682,1821
1683,1819
1684,1822
1685,1823
1686,1828
1687,1828
1688,1829
1689,1835
1690,1839
1691,1842
1692,1845
1693,1853
1694,1855
1695,1858
1696,1865
1697,1872
1698,1875
1699,1875
1700,1881
1701,1881
1702,1882
1703,1883
1704,1884
1705,1885
1706,1881
1707,1878
1708,1879
1709,1887
1710,1887
1711,1890
1712,1891
1713,1893
1714,1897
1715,1895
1716,1897
1717,1897
1718,1895
1719,1895
1720,1893
1721,1898
1722,1895
1723,1890
1724,1889
1725,1889
1726,1890
1727,1892
1728,1889
1729,1887
1730,1881
1731,1872
1732,1869
1733,1859
1734,1857
1735,1855
1736,1850
1737,1842
1738,1840
1739,1838
1740,1840
1741,1837
1742,1835
1743,1831
1744,1824
1745,1821
1746,1815
1747,1818
1748,1819
1749,1821
1750,1821
1751,1822
1752,1823
1753,1827
1754,1829
1755,1833
1756,1839
1757,1840
1758,1845
1759,1849
1760,1855
1761,1857
1762,1858
1763,1866
1764,1872
1765,1875
1766,1882
1767,1883
1768,1886
1769,1882
1770,1885
1771,1886
1772,1886
1773,1885
1774,1884
1775,1885
1776,1882
1777,1882
1778,1885
1779,1887
1780,1887
1781,1888
1782,1886
1783,1886
1784,1885
1785,1887
1786,1888
1787,1891
1788,1889
1789,1889
1790,1883
1791,1882
1792,1883
1793,1886
1794,1886
1795,1881
1796,1878
1797,1872
1798,1866
1799,1856
1800,1855
1801,1847
1802,1843
1803,1847
1804,1840
1805,1835
1806,1831
1807,1830
1808,1831
1809,1825
1810,1825
1811,1825
1812,1821
1813,1818
1814,1815
1815,1815
1816,1819
1817,1821
1818,1824
1819,1827
1820,1829
1821,1826
1822,1835
1823,1839
1824,1840
1825,1843
1826,1853
1827,1855
1828,1856
1829,1858
1830,1871
1831,1874
1832,1877
1833,1881
1834,1879
1835,1883
1836,1883
1837,1886
1838,1886
1839,1888
1840,1887
1841,1887
1842,1888
1843,1889
1844,1889
1845,1893
1846,1895
1847,1897
1848,1897
1849,1895
1850,1895
1851,1894
1852,1895
1853,1893
1854,1898
1855,1891
1856,1894
1857,1889
1858,1893
1859,1892
1860,1893
1861,1891
1862,1889
1863,1884
1864,1873
1865,1869
1866,1863
1867,1856
1868,1855
1869,1853
1870,1851
1871,1843
1872,1840
1873,1839
1874,1837
1875,1838
1876,1831
1877,1830
1878,1821
1879,1815
1880,1815
1881,1818
1882,1817
1883,1821
1884,1823
1885,1824
1886,1828
1887,1827
1888,1831
1889,1837
1890,1841
1891,1842
1892,1851
1893,1855
1894,1857
1895,1861
1896,1859
1897,1870
1898,1868
1899,1874
1900,1872
1901,1875
1902,1876
1903,1877
1904,1876
1905,1882
1906,1879
1907,1879
1908,1879
1909,1879
1910,1879
1911,1887
1912,1887
1913,1889
1914,1888
1915,1890
1916,1887
1917,1888
1918,1887
1919,1888
1920,1888
1921,1888
1922,1887
1923,1881
1924,1881
1925,1884
1926,1885
1927,1881
1928,1882
1929,1879
1930,1883
1931,1871
1932,1865
1933,1858
1934,1856
1935,1851
1936,1847
1937,1843
1938,1841
1939,1840
1940,1837
1941,1839
1942,1835
1943,1829
1944,1824
1945,1822
1946,1823
1947,1817
1948,1818
1949,1818
1950,1821
1951,1824
1952,1823
1953,1825
1954,1827
1955,1827
1956,1835
1957,1840
1958,1844
1959,1850
1960,1855
1961,1857
1962,1862
1963,1869
1964,1872
1965,1879
1966,1878
1967,1879
1968,1883
1969,1885
1970,1886
1971,1883
1972,1889
1973,1891
1974,1888
1975,1889
1976,1890
1977,1892
1978,1893
1979,1897
1980,1899
1981,1899
1982,1895
1983,1893
1984,1894
1985,1897
1986,1893
1987,1895
1988,1898
1989,1893
1990,1891
1991,1891
1992,1891
1993,1894
1994,1894
1995,1893
1996,1887
1997,1879
1998,1871
1999,1865
2000,1861
2001,1854
2002,1856
2003,1850
2004,1847
2005,1840
2006,1835
2007,1833
2008,1830
2009,1829
2010,1824
2011,1817
2012,1809
2013,1808
2014,1808
2015,1809
2016,1811
2017,1814
2018,1815
2019,1818
2020,1823
2021,1822
2022,1826
2023,1831
2024,1837
2025,1838
2026,1845
2027,1849
2028,1852
2029,1856
2030,1862
2031,1869
2032,1872
2033,1875
2034,1875
2035,1875
2036,1874
2037,1877
2038,1875
2039,1882
2040,1879
2041,1878
2042,1889
2043,1887
2044,1893
2045,1893
2046,1893
2047,1899
2048,1897
2049,1891
2050,1892
2051,1893
2052,1893
2053,1895
2054,1899
2055,1898
2056,1890
2057,1890
2058,1892
2059,1895
2060,1893
2061,1893
2062,1887
2063,1881
2064,1872
2065,1869
2066,1859
2067,1856
2068,1855
2069,1852
2070,1846
2071,1843
2072,1841
2073,1840
2074,1839
2075,1837
2076,1834
2077,1825
2078,1821
2079,1818
2080,1814
2081,1813
2082,1817
2083,1817
2084,1820
2085,1822
2086,1825
2087,1824
2088,1829
2089,1838
2090,1840
2091,1840
2092,1846
2093,1854
2094,1854
2095,1862
2096,1866
2097,1872
2098,1876
2099,1878
2100,1881
2101,1882
2102,1889
2103,1883
2104,1885
2105,1887
2106,1883
2107,1885
2108,1883
2109,1886
2110,1887
2111,1891
2112,1895
2113,1894
2114,1899
2115,1897
2116,1895
2117,1895
2118,1895
2119,1898
2120,1895
2121,1899
2122,1893
2123,1888
2124,1891
2125,1891
2126,1890
2127,1893
2128,1888
2129,1887
2130,1876
2131,1872
2132,1863
2133,1858
2134,1855
2135,1852
2136,1843
2137,1840
2138,1835
2139,1833
2140,1829
2141,1835
2142,1825
2143,1826
2144,1818
2145,1810
2146,1808
2147,1808
2148,1810
2149,1808
2150,1810
2151,1811
2152,1815
2153,1821
2154,1820
2155,1824
2156,1831
2157,1837
2158,1839
2159,1841
2160,1845
2161,1856
2162,1861
2163,1869
2164,1874
2165,1874
2166,1877
2167,1879
2168,1883
2169,1881
2170,1883
2171,1883
2172,1886
2173,1886
2174,1887
2175,1887
2176,1889
2177,1890
2178,1894
2179,1894
2180,1899
2181,1901
2182,1897
2183,1895
2184,1895
2185,1894
2186,1895
2187,1893
2188,1895
2189,1891
2190,1892
2191,1889
2192,1893
2193,1895
2194,1893
2195,1887
2196,1886
2197,1877
2198,1869
2199,1862
2200,1857
2201,1857
2202,1852
2203,1847
2204,1840
2205,1840
2206,1828
2207,1827
2208,1831
2209,1833
2210,1830
2211,1823
2212,1818
2213,1815
2214,1815
2215,1813
2216,1819
2217,1822
2218,1825
2219,1825
2220,1824
2221,1829
2222,1835
2223,1839
2224,1840
2225,1846
2226,1852
2227,1856
2228,1858
2229,1863
2230,1870
2231,1876
2232,1879
2233,1879
2234,1884
2235,1884
2236,1886
2237,1885
2238,1886
2239,1888
2240,1887
2241,1886
2242,1889
2243,1888
2244,1894
2245,1895
2246,1895
2247,1894
2248,1898
2249,1898
2250,1893
2251,1895
2252,1898
2253,1895
2254,1894
2255,1891
2256,1883
2257,1881
2258,1885
2259,1883
2260,1888
2261,1884
2262,1881
2263,1875
2264,1867
2265,1861
2266,1854
2267,1847
2268,1846
2269,1841
2270,1841
2271,1838
2272,1834
2273,1830
2274,1830
2275,1829
2276,1826
2277,1819
2278,1811
2279,1810
2280,1808
2281,1808
2282,1817
2283,1815
2284,1819
2285,1821
2286,1821
2287,1825
2288,1829
2289,1834
2290,1840
2291,1844
2292,1846
2293,1853
2294,1856
2295,1860
2296,1865
2297,1871
2298,1874
2299,1880
2300,1878
2301,1885
2302,1883
2303,1885
2304,1883
2305,1886
2306,1883
2307,1878
2308,1879
2309,1887
2310,1890
2311,1891
2312,1894
2313,1900
2314,1897
2315,1897
2316,1893
2317,1894
2318,1897
2319,1898
2320,1895
2321,1899
2322,1894
2323,1890
2324,1890
2325,1892
2326,1892
2327,1889
2328,1891
2329,1889
2330,1879
2331,1872
2332,1867
2333,1861
2334,1855
2335,1855
2336,1850
2337,1845
2338,1840
2339,1837
2340,1837
2341,1838
2342,1836
2343,1834
2344,1825
2345,1819
2346,1816
2347,1815
2348,1814
2349,1821
2350,1823
2351,1822
2352,1825
2353,1828
2354,1827
2355,1831
2356,1836
2357,1841
2358,1846
2359,1851
2360,1852
2361,1856
2362,1861
2363,1869
2364,1875
2365,1877
2366,1881
2367,1883
2368,1881
2369,1883
2370,1887
2371,1886
2372,1889
2373,1888
2374,1888
2375,1887
2376,1883
2377,1881
2378,1883
2379,1887
2380,1889
2381,1891
2382,1888
2383,1888
2384,1887
2385,1887
2386,1889
2387,1889
2388,1891
2389,1886
2390,1883
2391,1882
2392,1885
2393,1886
2394,1886
2395,1884
2396,1877
2397,1871
2398,1863
2399,1856
2400,1849
2401,1846
2402,1844
2403,1840
2404,1838
2405,1833
2406,1831
2407,1829
2408,1827
2409,1830
2410,1829
2411,1817
2412,1818
2413,1813
2414,1814
2415,1814
2416,1819
2417,1818
2418,1822
2419,1823
2420,1827
2421,1827
2422,1835
2423,1839
2424,1841
2425,1847
2426,1851
2427,1856
2428,1859
2429,1867
2430,1871
2431,1874
2432,1878
2433,1878
2434,1879
2435,1882
2436,1883
2437,1883
2438,1885
2439,1885
2440,1886
2441,1883
2442,1889
2443,1887
2444,1895
2445,1890
2446,1897
2447,1893
2448,1899
2449,1895
2450,1891
2451,1898
2452,1891
2453,1899
2454,1895
2455,1894
2456,1895
2457,1890
2458,1891
2459,1891
2460,1892
2461,1891
2462,1891
2463,1886
2464,1872
2465,1869
2466,1863
2467,1856
2468,1855
2469,1850
2470,1845
2471,1841
2472,1840
2473,1835
2474,1837
2475,1835
2476,1834
2477,1825
2478,1819
2479,1814
2480,1815
2481,1814
2482,1815
2483,1823
2484,1819
2485,1823
2486,1825
2487,1826
2488,1831
2489,1837
2490,1840
2491,1841
2492,1849
2493,1851
2494,1855
2495,1860
2496,1853
2497,1866
2498,1872
2499,1872
2500,1873
2501,1874
2502,1875
2503,1878
2504,1879
2505,1876
2506,1879
2507,1878
2508,1881
2509,1882
2510,1885
2511,1882
2512,1888
2513,1890
2514,1898
2515,1899
2516,1895
2517,1895
2518,1897
2519,1893
2520,1895
2521,1895
2522,1891
2523,1888
2524,1890
2525,1891
2526,1889
2527,1891
2528,1890
2529,1886
2530,1875
2531,1871
2532,1865
2533,1859
2534,1853
2535,1850
2536,1845
2537,1842
2538,1839
2539,1837
2540,1833
2541,1838
2542,1831
2543,1831
2544,1822
2545,1819
2546,1813
2547,1811
2548,1815
2549,1818
2550,1821
2551,1818
2552,1824
2553,1823
2554,1824
2555,1835
2556,1836
2557,1840
2558,1845
2559,1850
2560,1854
2561,1856
2562,1861
2563,1869
2564,1872
2565,1874
2566,1877
2567,1879
2568,1881
2569,1885
2570,1883
2571,1885
2572,1887
2573,1887
2574,1884
2575,1887
2576,1887
2577,1892
2578,1893
2579,1893
2580,1897
2581,1897
2582,1897
2583,1895
2584,1894
2585,1897
2586,1894
2587,1897
2588,1893
2589,1891
2590,1889
2591,1891
2592,1889
2593,1893
2594,1890
2595,1888
2596,1884
2597,1873
2598,1867
2599,1860
2600,1857
2601,1854
2602,1850
2603,1843
2604,1840
2605,1840
2606,1835
2607,1834
2608,1837
2609,1830
2610,1829
2611,1820
2612,1817
2613,1814
2614,1817
2615,1815
2616,1809
2617,1811
2618,1812
2619,1814
2620,1818
2621,1821
2622,1821
2623,1830
2624,1838
2625,1840
2626,1843
2627,1845
2628,1851
2629,1856
2630,1861
2631,1870
2632,1872
2633,1875
2634,1879
2635,1883
2636,1883
2637,1883
2638,1885
2639,1886
2640,1886
2641,1887
2642,1887
2643,1887
2644,1891
2645,1893
2646,1895
2647,1898
2648,1896
2649,1895
2650,1894
2651,1894
2652,1895
2653,1895
2654,1895
2655,1895
2656,1893
2657,1889
2658,1890
2659,1894
2660,1891
2661,1890
2662,1887
2663,1881
2664,1872
2665,1865
2666,1859
2667,1856
2668,1854
2669,1849
2670,1843
2671,1840
2672,1840
2673,1838
2674,1837
2675,1837
2676,1833
2677,1824
2678,1819
2679,1817
2680,1811
2681,1811
2682,1817
2683,1819
2684,1818
2685,1825
2686,1825
2687,1825
2688,1829
2689,1830
2690,1840
2691,1841
2692,1845
2693,1851
2694,1855
2695,1856
2696,1862
2697,1872
2698,1877
2699,1878
2700,1882
2701,1882
2702,1881
2703,1883
2704,1886
2705,1885
2706,1887
2707,1883
2708,1885
2709,1885
2710,1889
2711,1893
2712,1894
2713,1895
2714,1893
2715,1898
2716,1894
2717,1897
2718,1894
2719,1893
2720,1893
2721,1895
2722,1895
2723,1888
2724,1891
2725,1893
2726,1893
2727,1893
2728,1891
2729,1888
2730,1878
2731,1871
2732,1863
2733,1857
2734,1856
2735,1853
2736,1843
2737,1839
2738,1835
2739,1834
2740,1834
2741,1829
2742,1827
2743,1822
2744,1813
2745,1809
2746,1808
2747,1808
2748,1808
2749,1808
2750,1809
2751,1813
2752,1815
2753,1822
2754,1826
2755,1831
2756,1834
2757,1840
2758,1840
2759,1847
2760,1853
2761,1854
2762,1859
2763,1867
2764,1872
2765,1875
2766,1878
2767,1881
2768,1882
2769,1884
2770,1885
2771,1888
2772,1888
2773,1887
2774,1886
2775,1889
2776,1889
2777,1892
2778,1895
2779,1897
2780,1897
2781,1901
2782,1898
2783,1899
2784,1898
2785,1898
2786,1897
2787,1899
2788,1897
2789,1894
2790,1890
2791,1894
2792,1890
2793,1895
2794,1894
2795,1888
2796,1886
2797,1873
2798,1871
2799,1863
2800,1856
2801,1856
2802,1851
2803,1845
2804,1842
2805,1840
2806,1837
2807,1840
2808,1838
2809,1833
2810,1830
2811,1820
2812,1815
2813,1815
2814,1814
2815,1815
2816,1821
2817,1822
2818,1822
2819,1826
2820,1826
2821,1826
2822,1830
2823,1838
2824,1840
2825,1845
2826,1851
2827,1855
2828,1855
2829,1863
2830,1872
2831,1876
2832,1879
2833,1878
2834,1883
2835,1883
2836,1885
2837,1886
2838,1885
2839,1887
2840,1885
2841,1886
2842,1885
2843,1888
2844,1891
2845,1893
2846,1894
2847,1895
2848,1898
2849,1892
2850,1895
2851,1898
2852,1894
2853,1896
2854,1895
2855,1895
2856,1885
2857,1883
2858,1887
2859,1888
2860,1887
2861,1883
2862,1885
2863,1875
2864,1868
2865,1859
2866,1856
2867,1853
2868,1847
2869,1843
2870,1839
2871,1835
2872,1831
2873,1834
2874,1837
2875,1834
2876,1830
2877,1824
2878,1813
2879,1815
2880,1811
2881,1811
2882,1814
2883,1822
2884,1819
2885,1823
2886,1823
2887,1824
2888,1827
2889,1835
2890,1840
2891,1841
2892,1847
2893,1851
2894,1855
2895,1857
2896,1865
2897,1872
2898,1877
2899,1875
2900,1879
2901,1879
2902,1881
2903,1885
2904,1883
2905,1887
2906,1888
2907,1890
2908,1888
2909,1891
2910,1890
2911,1879
2912,1895
2913,1899
2914,1902
2915,1895
2916,1904
2917,1890
2918,1893
2919,1903
2920,1901
2921,1899
2922,1895
2923,1891
2924,1893
2925,1894
2926,1898
2927,1895
2928,1889
2929,1888
2930,1882
2931,1872
2932,1866
2933,1859
2934,1855
2935,1854
2936,1847
2937,1843
2938,1840
2939,1840
2940,1837
2941,1837
2942,1834
2943,1826
2944,1819
2945,1813
2946,1811
2947,1811
2948,1813
2949,1815
2950,1817
2951,1817
2952,1823
2953,1821
2954,1823
2955,1829
2956,1837
2957,1840
2958,1843
2959,1847
2960,1853
2961,1856
2962,1861
2963,1869
2964,1873
2965,1878
2966,1879
2967,1883
2968,1883
2969,1881
2970,1885
2971,1882
2972,1887
2973,1886
2974,1885
2975,1887
2976,1885
2977,1885
2978,1889
2979,1889
2980,1889
2981,1887
2982,1887
2983,1890
2984,1890
2985,1888
2986,1889
2987,1893
2988,1892
2989,1887
2990,1886
2991,1886
2992,1887
2993,1887
2994,1885
2995,1883
2996,1879
2997,1870
2998,1863
2999,1856
3000,1847
3001,1851
3002,1851
3003,1847
3004,1841
3005,1840
3006,1837
3007,1837
3008,1834
3009,1828
3010,1825
3011,1817
3012,1815
3013,1811
3014,1811
3015,1814
3016,1815
3017,1815
3018,1821
3019,1822
3020,1825
3021,1827
3022,1833
3023,1838
3024,1841
3025,1846
3026,1848
3027,1856
3028,1856
3029,1865
3030,1870
3031,1873
3032,1879
3033,1879
3034,1884
3035,1885
3036,1884
3037,1887
3038,1887
3039,1890
3040,1885
3041,1890
3042,1888
3043,1891
3044,1891
3045,1891
3046,1895
3047,1900
3048,1898
3049,1900
3050,1898
3051,1897
3052,1897
3053,1899
3054,1898
3055,1894
3056,1893
3057,1892
3058,1895
3059,1897
3060,1890
3061,1891
3062,1888
3063,1882
3064,1873
3065,1868
3066,1861
3067,1856
3068,1857
3069,1850
3070,1845
3071,1841
3072,1837
3073,1837
3074,1837
3075,1833
3076,1830
3077,1821
3078,1817
3079,1813
3080,1812
3081,1813
3082,1813
3083,1815
3084,1820
3085,1822
3086,1822
3087,1825
3088,1827
3089,1831
3090,1837
3091,1840
3092,1844
3093,1849
3094,1853
3095,1859
3096,1860
3097,1863
3098,1869
3099,1872
3100,1872
3101,1877
3102,1874
3103,1877
3104,1875
3105,1878
3106,1877
3107,1879
3108,1879
3109,1883
3110,1883
3111,1889
3112,1888
3113,1893
3114,1901
3115,1901
3116,1895
3117,1898
3118,1899
3119,1900
3120,1899
3121,1900
3122,1897
3123,1893
3124,1891
3125,1892
3126,1895
3127,1891
3128,1890
3129,1885
3130,1878
3131,1872
3132,1866
3133,1858
3134,1856
3135,1854
3136,1846
3137,1841
3138,1840
3139,1834
3140,1838
3141,1833
3142,1829
3143,1827
3144,1815
3145,1813
3146,1811
3147,1810
3148,1812
3149,1817
3150,1813
3151,1818
3152,1820
3153,1821
3154,1824
3155,1829
3156,1834
3157,1839
3158,1846
3159,1846
3160,1853
3161,1855
3162,1860
3163,1867
3164,1872
3165,1875
3166,1879
3167,1879
3168,1882
3169,1879
3170,1885
3171,1887
3172,1887
3173,1887
3174,1886
3175,1889
3176,1889
3177,1891
3178,1895
3179,1899
3180,1898
3181,1899
3182,1899
3183,1900
3184,1901
3185,1899
3186,1901
3187,1898
3188,1900
3189,1895
3190,1889
3191,1895
3192,1895
3193,1894
3194,1894
3195,1890
3196,1887
3197,1873
3198,1868
3199,1865
3400,1861
3401,1856
3402,1855
3403,1847
3404,1843
3405,1840
3406,1837
3407,1834
3408,1836
3409,1827
3410,1823
3411,1813
3412,1813
3413,1814
3414,1811
3415,1812
3416,1818
3417,1815
3418,1815
3419,1822
3420,1823
3421,1827
3422,1829
3423,1837
3424,1840
3425,1845
3426,1850
3427,1856
3428,1856
3429,1856
3430,1864
3431,1859
3432,1875
3433,1878
3434,1881
3435,1883
3436,1885
3437,1886
3438,1887
3439,1887
3440,1888
3441,1887
3442,1887
3443,1890
3444,1890
3445,1898
3446,1895
3447,1902
3448,1899
3449,1897
3450,1898
3451,1898
3452,1900
3453,1899
3454,1901
3455,1897
3456,1890
3457,1887
3458,1892
3459,1891
3460,1887
3461,1887
3462,1886
3463,1874
3464,1869
3465,1859
3466,1856
3467,1850
3468,1846
3469,1842
3470,1840
3471,1837
3472,1830
3473,1829
3474,1827
3475,1829
3476,1821
3477,1812
3478,1809
3479,1807
3480,1805
3481,1805
3482,1810
3483,1813
3484,1817
3485,1815
3486,1819
3487,1821
3488,1824
3489,1829
3490,1839
3491,1840
3492,1842
3493,1847
3494,1852
3495,1856
3496,1866
3497,1871
3498,1874
3499,1878
3900,1882
3901,1882
3902,1884
3903,1883
3904,1887
3905,1886
3906,1889
3907,1882
3908,1887
3909,1883
3910,1889
3911,1893
3912,1895
3913,1895
3914,1894
3915,1893
3916,1888
3917,1891
3918,1887
3919,1888
3920,1886
3921,1887
3922,1883
3923,1881
3924,1879
3925,1884
3926,1887
3927,1886
3928,1881
3929,1874
3930,1862
3931,1856
3932,1849
3933,1841
3934,1840
3935,1835
3936,1827
3937,1819
3938,1814
3939,1810
3940,1810
3941,1808
3942,1806
3943,1799
3944,1792
3945,1790
3946,1791
3947,1787
3948,1791
3949,1792
3950,1792
3951,1797
3952,1797
3953,1804
3954,1804
3955,1808
3956,1815
3957,1819
3958,1827
3959,1837
3960,1839
3961,1842
3962,1856
3963,1865
3964,1872
3965,1872
3966,1873
3967,1881
3968,1879
3969,1885
3970,1882
3971,1889
3972,1889
3973,1890
3974,1888
3975,1893
3976,1889
3977,1899
3978,1901
3979,1902
3980,1903
3981,1904
3982,1903
3983,1902
3984,1903
3985,1904
3986,1904
3987,1905
3988,1904
3989,1903
3990,1902
3991,1903
3992,1904
3993,1904
3994,1903
3995,1901
3996,1892
3997,1879
3998,1872
3999,1869
4400,1734
4401,0
4402,0
4403,144
4404,777
4405,1296
4406,1659
4407,1879
4408,2013
4409,2086
4410,2115
4411,2123
4412,2124
4413,2114
4414,2109
4415,2100
4416,2090
4417,2069
4418,2063
4419,2053
4420,2039
4421,2033
4422,2030
4423,2027
4424,2022
4425,2019
4426,2020
4427,2013
4428,2011
4429,2014
4430,2015
4431,2017
4432,2010
4433,2010
4434,2010
4435,2005
4436,2000
4437,1990
4438,1984
4439,1978
4440,1968
4441,1968
4442,1962
4443,1962
4444,1965
4445,1965
4446,1959
4447,1961
4448,1956
4449,1945
4450,1952
4451,1948
4452,1947
4453,1945
4454,1936
4455,1933
4456,1927
4457,1931
4458,1935
4459,1935
4460,1929
4461,1926
4462,1921
4463,1910
4464,1902
4465,1891
4466,1881
4467,1875
4468,1872
4469,1866
4470,1859
4471,1852
4472,1844
4473,1844
4474,1840
4475,1840
4476,1834
4477,1822
4478,1815
4479,1810
4480,1808
4481,1811
4482,1809
4483,1813
4484,1811
4485,1813
4486,1817
4487,1818
4488,1824
4489,1828
4490,1835
4491,1839
4492,1846
4493,1851
4494,1855
4495,1859
4496,1871
4497,1875
4498,1879
4499,1887
4900,1012
4901,1458
4902,1760
4903,1939
4904,2055
4905,2114
4906,2145
4907,2155
4908,2160
4909,2158
4910,2153
4911,2147
4912,2141
4913,2139
4914,2130
4915,2126
4916,2118
4917,2107
4918,2098
4919,2096
4920,2087
4921,2078
4922,2067
4923,2060
4924,2056
4925,2047
4926,2038
4927,2034
4928,2029
4929,2015
4930,2000
4931,1985
4932,1973
4933,1957
4934,1943
4935,1936
4936,1923
4937,1913
4938,1904
4939,1899
4940,1892
4941,1885
4942,1878
4943,1870
4944,1859
4945,1854
4946,1852
4947,1849
4948,1845
4949,1844
4950,1843
4951,1843
4952,1845
4953,1844
4954,1846
4955,1854
4956,1856
4957,1858
4958,1863
4959,1869
4960,1872
4961,1878
4962,1890
4963,1893
4964,1901
4965,1900
4966,1904
4967,1904
4968,1899
4969,1904
4970,1904
4971,1904
4972,1906
4973,1906
4974,1905
4975,1905
4976,1907
4977,1913
4978,1919
4979,1919
4980,1917
4981,1914
4982,1911
4983,1915
4984,1914
4985,1914
4986,1914
4987,1914
4988,1910
4989,1905
4990,1905
4991,1915
4992,1907
4993,1908
4994,1904
4995,1905
4996,1894
4997,1882
4998,1872
4999,1871
5400,2064
5401,2103
5402,2122
5403,2119
5404,2113
5405,2105
5406,2096
5407,2087
5408,2071
5409,2060
5410,2034
5411,2023
5412,2011
5413,2000
5414,1995
5415,1985
5416,1981
5417,1975
5418,1969
5419,1968
5420,1964
5421,1955
5422,1959
5423,1959
5424,1959
5425,1958
5426,1959
5427,1959
5428,1955
5429,1953
5430,1953
5431,1950
5432,1950
5433,1943
5434,1943
5435,1942
5436,1940
5437,1941
5438,1937
5439,1936
5440,1936
5441,1936
5442,1936
5443,1939
5444,1939
5445,1939
5446,1940
5447,1941
5448,1937
5449,1936
5450,1935
5451,1935
5452,1933
5453,1934
5454,1931
5455,1924
5456,1921
5457,1925
5458,1927
5459,1922
5460,1922
5461,1920
5462,1910
5463,1903
5464,1893
5465,1885
5466,1877
5467,1872
5468,1871
5469,1863
5470,1857
5471,1853
5472,1850
5473,1845
5474,1840
5475,1837
5476,1833
5477,1822
5478,1820
5479,1819
5480,1812
5481,1813
5482,1808
5483,1798
5484,1809
5485,1808
5486,1809
5487,1814
5488,1819
5489,1823
5490,1829
5491,1838
5492,1839
5493,1846
5494,1849
5495,1854
5496,1863
5497,1872
5498,1874
5499,1878
5900,2152
5901,2147
5902,2137
5903,2133
5904,2128
5905,2115
5906,2108
5907,2105
5908,2096
5909,2090
5910,2087
5911,2078
5912,2073
5913,2067
5914,2061
5915,2056
5916,2047
5917,2038
5918,2031
5919,2032
5920,2028
5921,2019
5922,2011
5923,2003
5924,1997
5925,1989
5926,1979
5927,1973
5928,1968
5929,1953
5930,1937
5931,1930
5932,1920
5933,1914
5934,1907
5935,1903
5936,1895
5937,1886
5938,1879
5939,1875
5940,1872
5941,1869
5942,1862
5943,1851
5944,1845
5945,1840
5946,1838
5947,1835
5948,1835
5949,1833
5950,1833
5951,1837
5952,1834
5953,1836
5954,1837
5955,1841
5956,1844
5957,1850
5958,1856
5959,1861
5960,1863
5961,1872
5962,1876
5963,1886
5964,1890
5965,1894
5966,1892
5967,1895
5968,1895
5969,1898
5970,1900
5971,1901
5972,1903
5973,1904
5974,1902
5975,1903
5976,1904
5977,1901
5978,1904
5979,1904
5980,1904
5981,1904
5982,1904
5983,1904
5984,1904
5985,1902
5986,1904
5987,1904
5988,1901
5989,1899
5990,1898
5991,1902
5992,1904
5993,1903
5994,1904
5995,1899
5996,1889
5997,1881
5998,1872
5999,1869
6500,1886
6501,1887
6502,1887
6503,1890
6504,1891
6505,2163
6506,1931
6507,42
6508,0
6509,138
6510,730
6511,1270
6512,1643
6513,1877
6514,2027
6515,2110
6516,2153
6517,2170
6518,2177
6519,2176
6520,2176
6521,2161
6522,2152
6523,2142
6524,2134
6525,2128
6526,2120
6527,2108
6528,2098
6529,2079
6530,2065
6531,2043
6532,2031
6533,2020
6534,2007
6535,1999
6536,1987
6537,1975
6538,1967
6539,1961
6540,1950
6541,1941
6542,1933
6543,1917
6544,1902
6545,1887
6546,1877
6547,1873
6548,1870
6549,1867
6550,1869
6551,1867
6552,1867
6553,1867
6554,1869
6555,1870
6556,1873
6557,1875
6558,1882
6559,1886
6560,1885
6561,1891
6562,1899
6563,1904
6564,1907
6565,1909
6566,1909
6567,1915
6568,1913
6569,1915
6570,1911
6571,1917
6572,1911
6573,1911
6574,1916
6575,1915
6576,1918
6577,1910
6578,1918
6579,1913
6580,1917
6581,1909
6582,1917
6583,1915
6584,1913
6585,1914
6586,1913
6587,1907
6588,1906
6589,1904
6590,1904
6591,1905
6592,1906
6593,1904
6594,1904
6595,1901
6596,1887
6597,1878
6598,1872
6599,1866
7000,1854
7001,1851
7002,1845
7003,1841
7004,1834
7005,1831
7006,1831
7007,1826
7008,1822
7009,1815
7010,1808
7011,1805
7012,1798
7013,1801
7014,1802
7015,1806
7016,1807
7017,1808
7018,1807
7019,1808
7020,1810
7021,1817
7022,1823
7023,1830
7024,1837
7025,1839
7026,1840
7027,1841
7028,1847
7029,1859
7030,1869
7031,1872
7032,1872
7033,1872
7034,1873
7035,1876
7036,1878
7037,1881
7038,1879
7039,1881
7040,1881
7041,1887
7042,1888
7043,1890
7044,1894
7045,1895
7046,1899
7047,1902
7048,1899
7049,1900
7050,1898
7051,1902
7052,1903
7053,1901
7054,1901
7055,1894
7056,1895
7057,1887
7058,1891
7059,1890
7060,1887
7061,1887
7062,1874
7063,1870
7064,1859
7065,1855
7066,1853
7067,1846
7068,1840
7069,1838
7070,1831
7071,1825
7072,1829
7073,1821
7074,1819
7075,1814
7076,1808
7077,1800
7078,1797
7079,1793
7080,1792
7081,1791
7082,1807
7083,1807
7084,1808
7085,1808
7086,1808
7087,1813
7088,1819
7089,1825
7090,1830
7091,1839
7092,1842
7093,1844
7094,1853
7095,1858
7096,1869
7097,1872
7098,1872
7099,1877
7500,1879
7501,1881
7502,1882
7503,1883
7504,1889
7505,1885
7506,1886
7507,1890
7508,1889
7509,1891
7510,1895
7511,1899
7512,1902
7513,1902
7514,1901
7515,1903
7516,1904
7517,1902
7518,1904
7519,1904
7520,1904
7521,1902
7522,1899
7523,1903
7524,1904
7525,1904
7526,1903
7527,1901
7528,1899
7529,1883
7530,1875
7531,1869
7532,1863
7533,1857
7534,1856
7535,1842
7536,1847
7537,1835
7538,1831
7539,1826
7540,1826
7541,1820
7542,1811
7543,1808
7544,1806
7545,1799
7546,1797
7547,1799
7548,1803
7549,1807
7550,1806
7551,1808
7552,1807
7553,1808
7554,1813
7555,1817
7556,1829
7557,1830
7558,1837
7559,1840
7560,1845
7561,1855
7562,1866
7563,1872
7564,1873
7565,1874
7566,1881
7567,1878
7568,1882
7569,1882
7570,1887
7571,1885
7572,1889
7573,1887
7574,1893
7575,1891
7576,1895
7577,1900
7578,1903
7579,1903
7580,1902
7581,1902
7582,1904
7583,1904
7584,1903
7585,1904
7586,1904
7587,1902
7588,1904
7589,1903
7590,1903
7591,1904
7592,1904
7593,1899
7594,1901
7595,1893
7596,1881
7597,1873
7598,1867
7599,1859
8000,1853
8001,1849
8002,1841
8003,1840
8004,1836
8005,1835
8006,1831
8007,1831
8008,1827
8009,1819
8010,1810
8011,1808
8012,1808
8013,1808
8014,1808
8015,1808
8016,1808
8017,1807
8018,1806
8019,1808
8020,1809
8021,1813
8022,1822
8023,1826
8024,1834
8025,1837
8026,1841
8027,1845
8028,1856
8029,1861
8030,1870
8031,1872
8032,1873
8033,1877
8034,1873
8035,1874
8036,1875
8037,1889
8038,1887
8039,1889
8040,1890
8041,1891
8042,1894
8043,1899
8044,1901
8045,1904
8046,1904
8047,1904
8048,1904
8049,1903
8050,1904
8051,1902
8052,1901
8053,1894
8054,1893
8055,1899
8056,1902
8057,1902
8058,1904
8059,1902
8060,1903
8061,1897
8062,1883
8063,1876
8064,1872
8065,1863
8066,1858
8067,1856
8068,1851
8069,1847
8070,1840
8071,1840
8072,1837
8073,1834
8074,1831
8075,1821
8076,1813
8077,1808
8078,1808
8079,1808
8080,1806
8081,1808
8082,1808
8083,1808
8084,1815
8085,1815
8086,1817
8087,1822
8088,1830
8089,1835
8090,1840
8091,1840
8092,1845
8093,1853
8094,1857
8095,1865
8096,1872
8097,1873
8098,1875
8099,1879
8500,1873
8501,1877
8502,1876
8503,1877
8504,1882
8505,1881
8506,1879
8507,1883
8508,1886
8509,1888
8510,1890
8511,1895
8512,1893
8513,1901
8514,1902
8515,1903
8516,1902
8517,1900
8518,1904
8519,1904
8520,1904
8521,1902
8522,1901
8523,1904
8524,1905
8525,1903
8526,1900
8527,1901
8528,1890
8529,1878
8530,1872
8531,1866
8532,1858
8533,1856
8534,1851
8535,1849
8536,1842
8537,1840
8538,1838
8539,1835
8540,1831
8541,1827
8542,1818
8543,1810
8544,1810
8545,1808
8546,1809
8547,1808
8548,1811
8549,1813
8550,1814
8551,1815
8552,1821
8553,1821
8554,1827
8555,1833
8556,1839
8557,1840
8558,1842
8559,1852
8560,1856
8561,1863
8562,1871
8563,1874
8564,1873
8565,1873
8566,1873
8567,1886
8568,1886
8569,1883
8570,1888
8571,1888
8572,1887
8573,1886
8574,1887
8575,1891
8576,1898
8577,1898
8578,1904
8579,1904
8580,1904
8581,1901
8582,1904
8583,1904
8584,1903
8585,1904
8586,1904
8587,1903
8588,1899
8589,1902
8590,1903
8591,1904
8592,1899
8593,1898
8594,1897
8595,1885
8596,1875
8597,1870
8598,1859
8599,1856
9000,1856
9001,1849
9002,1842
9003,1840
9004,1835
9005,1836
9006,1836
9007,1831
9008,1827
9009,1815
9010,1810
9011,1809
9012,1809
9013,1809
9014,1809
9015,1809
9016,1814
9017,1817
9018,1819
9019,1822
9020,1825
9021,1829
9022,1835
9023,1840
9024,1844
9025,1851
9026,1856
9027,1861
9028,1871
9029,1873
9030,1878
9031,1882
9032,1883
9033,1882
9034,1886
9035,1885
9036,1888
9037,1890
9038,1887
9039,1889
9040,1891
9041,1889
9042,1895
9043,1898
9044,1898
9045,1899
9046,1898
9047,1899
9048,1901
9049,1899
9050,1898
9051,1897
9052,1901
9053,1898
9054,1894
9055,1894
9056,1895
9057,1897
9058,1898
9059,1898
9060,1893
9061,1886
9062,1875
9063,1870
9064,1863
9065,1858
9066,1855
9067,1851
9068,1846
9069,1842
9070,1839
9071,1840
9072,1835
9073,1834
9074,1828
9075,1822
9076,1814
9077,1805
9078,1804
9079,1792
9080,1805
9081,1807
9082,1808
9083,1809
9084,1809
9085,1811
9086,1813
9087,1819
9088,1828
9089,1831
9090,1836
9091,1841
9092,1845
9093,1852
9094,1857
9095,1862
9096,1871
9097,1872
9098,1873
9099,1874
9500,1885
9501,1882
9502,1885
9503,1885
9504,1886
9505,1888
9506,1887
9507,1890
9508,1893
9509,1895
9510,1899
9511,1903
9512,1904
9513,1902
9514,1902
9515,1904
9516,1902
9517,1904
9518,1904
9519,1904
9520,1902
9521,1900
9522,1899
9523,1899
9524,1904
9525,1903
9526,1899
9527,1897
9528,1885
9529,1874
9530,1870
9531,1862
9532,1858
9533,1857
9534,1853
9535,1845
9536,1843
9537,1840
9538,1839
9539,1835
9540,1833
9541,1826
9542,1820
9543,1813
9544,1810
9545,1808
9546,1808
9547,1809
9548,1811
9549,1813
9550,1815
9551,1818
9552,1820
9553,1821
9554,1828
9555,1831
9556,1840
9557,1841
9558,1849
9559,1849
9560,1858
9561,1867
9562,1872
9563,1873
9564,1879
9565,1879
9566,1879
9567,1883
9568,1887
9569,1887
9570,1890
9571,1890
9572,1889
9573,1891
9574,1889
9575,1893
9576,1903
9577,1892
9578,1897
9579,1898
9580,1897
9581,1893
9582,1893
9583,1894
9584,1891
9585,1894
9586,1894
9587,1891
9588,1887
9589,1891
9590,1894
9591,1897
9592,1894
9593,1892
9594,1893
9595,1886
9596,1875
9597,1871
9598,1864
9599,1858
10100,1881
10101,1879
10102,1883
10103,1887
10104,1887
10105,1889
10106,1889
10107,1885
10108,1886
10109,1885
10110,1895
10111,1898
10112,1899
10113,1899
10114,1899
10115,1901
10116,1901
10117,1903
10118,1904
10119,1904
10120,1899
10121,1894
10122,1897
10123,1898
10124,1898
10125,1900
10126,1894
10127,1891
10128,1882
10129,1873
10130,1871
10131,1861
10132,1857
10133,1854
10134,1847
10135,1845
10136,1838
10137,1838
10138,1834
10139,1830
10140,1830
10141,1821
10142,1817
10143,1812
10144,1808
10145,1808
10146,1808
10147,1808
10148,1810
10149,1809
10150,1813
10151,1813
10152,1814
10153,1819
10154,1829
10155,1830
10156,1837
10157,1840
10158,1845
10159,1851
10160,1856
10161,1861
10162,1871
10163,1873
10164,1875
10165,1878
10166,1879
10167,1883
10168,1882
10169,1879
10170,1886
10171,1887
10172,1885
10173,1886
10174,1885
10175,1889
10176,1894
10177,1892
10178,1887
10179,1895
10180,1892
10181,1890
10182,1893
10183,1892
10184,1890
10185,1892
10186,1891
10187,1887
10188,1886
10189,1890
10190,1891
10191,1892
10192,1890
10193,1890
10194,1879
10195,1872
10196,1863
10197,1858
10198,1854
10199,1847
10600,1851
10601,1850
10602,1840
10603,1840
10604,1838
10605,1839
10606,1832
10607,1828
10608,1821
10609,1815
10610,1811
10611,1808
10612,1808
10613,1808
10614,1808
10615,1810
10616,1815
10617,1814
10618,1814
10619,1820
10620,1825
10621,1825
10622,1839
10623,1840
10624,1842
10625,1850
10626,1856
10627,1856
10628,1857
10629,1863
10630,1877
10631,1879
10632,1881
10633,1879
10634,1884
10635,1882
10636,1888
10637,1888
10638,1891
10639,1889
10640,1890
10641,1893
10642,1897
10643,1899
10644,1902
10645,1901
10646,1902
10647,1900
10648,1900
10649,1898
10650,1899
10651,1901
10652,1904
10653,1902
10654,1895
10655,1898
10656,1904
10657,1898
10658,1891
10659,1893
10660,1889
10661,1877
10662,1872
10663,1862
10664,1860
10665,1856
10666,1846
10667,1845
10668,1843
10669,1837
10670,1831
10671,1830
10672,1827
10673,1824
10674,1819
10675,1809
10676,1807
10677,1805
10678,1799
10679,1801
10680,1802
10681,1806
10682,1808
10683,1813
10684,1811
10685,1812
10686,1819
10687,1827
10688,1833
10689,1837
10690,1843
10691,1845
10692,1852
10693,1859
10694,1863
10695,1871
10696,1875
10697,1875
10698,1877
10699,1882
11100,2160
11101,2160
11102,2157
11103,2151
11104,2143
11105,2135
11106,2126
11107,2123
11108,2114
11109,2111
11110,2102
11111,2099
11112,2095
11113,2085
11114,2079
11115,2071
11116,2065
11117,2062
11118,2057
11119,2047
11120,2034
11121,2029
11122,2028
11123,2023
11124,2021
11125,2010
11126,1999
11127,1985
11128,1968
11129,1956
11130,1938
11131,1936
11132,1931
11133,1920
11134,1914
11135,1910
11136,1903
11137,1890
11138,1888
11139,1882
11140,1875
11141,1869
11142,1858
11143,1855
11144,1850
11145,1845
11146,1845
11147,1848
11148,1846
11149,1843
11150,1846
11151,1842
11152,1845
11153,1853
11154,1861
11155,1867
11156,1867
11157,1872
11158,1872
11159,1877
11160,1886
11161,1890
11162,1900
11163,1900
11164,1904
11165,1903
11166,1904
11167,1903
11168,1904
11169,1904
11170,1901
11171,1906
11172,1904
11173,1906
11174,1904
11175,1910
11176,1911
11177,1910
11178,1911
11179,1910
11180,1909
11181,1905
11182,1907
11183,1905
11184,1910
11185,1909
11186,1906
11187,1904
11188,1903
11189,1904
11190,1906
11191,1904
11192,1904
11193,1902
11194,1891
11195,1881
11196,1872
11197,1867
11198,1861
11199,1856
11600,2107
11601,2094
11602,2081
11603,2064
11604,2060
11605,2041
11606,2032
11607,2019
11608,2000
11609,1989
11610,1977
11611,1968
11612,1961
11613,1959
11614,1952
11615,1943
11616,1939
11617,1935
11618,1927
11619,1925
11620,1925
11621,1919
11622,1915
11623,1913
11624,1909
11625,1908
11626,1910
11627,1914
11628,1920
11629,1923
11630,1921
11631,1926
11632,1922
11633,1925
11634,1931
11635,1933
11636,1935
11637,1935
11638,1931
11639,1930
11640,1930
11641,1931
11642,1935
11643,1935
11644,1932
11645,1933
11646,1930
11647,1930
11648,1931
11649,1926
11650,1930
11651,1927
11652,1927
11653,1922
11654,1920
11655,1920
11656,1923
11657,1925
11658,1921
11659,1919
11660,1911
11661,1904
11662,1894
11663,1885
11664,1879
11665,1875
11666,1872
11667,1865
11668,1861
11669,1855
11670,1851
11671,1850
11672,1840
11673,1840
11674,1830
11675,1829
11676,1822
11677,1818
11678,1817
11679,1814
11680,1816
11681,1815
11682,1815
11683,1819
11684,1818
11685,1821
11686,1825
11687,1832
11688,1840
11689,1840
11690,1842
11691,1846
11692,1853
11693,1859
11694,1868
11695,1872
11696,1879
11697,1880
11698,1881
11699,1886
12100,2087
12101,2081
12102,2077
12103,2066
12104,2063
12105,2059
12106,2045
12107,2044
12108,2039
12109,2039
12110,2033
12111,2032
12112,2027
12113,2023
12114,2021
12115,2021
12116,2003
12117,2000
12118,1994
12119,1982
12120,1974
12121,1968
12122,1971
12123,1968
12124,1966
12125,1959
12126,1958
12127,1947
12128,1934
12129,1921
12130,1913
12131,1905
12132,1903
12133,1895
12134,1888
12135,1883
12136,1876
12137,1869
12138,1870
12139,1866
12140,1856
12141,1851
12142,1840
12143,1838
12144,1833
12145,1830
12146,1829
12147,1834
12148,1830
12149,1834
12150,1834
12151,1834
12152,1834
12153,1840
12154,1847
12155,1849
12156,1855
12157,1856
12158,1859
12159,1867
12160,1872
12161,1882
12162,1886
12163,1888
12164,1892
12165,1894
12166,1895
12167,1894
12168,1895
12169,1901
12170,1904
12171,1900
12172,1902
12173,1902
12174,1904
12175,1908
12176,1910
12177,1907
12178,1913
12179,1910
12180,1909
12181,1910
12182,1910
12183,1907
12184,1910
12185,1909
12186,1908
12187,1899
12188,1897
12189,1903
12190,1908
12191,1904
12192,1905
12193,1904
12194,1894
12195,1885
12196,1874
12197,1872
12198,1862
12199,1862
12600,2032
12601,2020
12602,2006
12603,1999
12604,1990
12605,1982
12606,1972
12607,1963
12608,1947
12609,1936
12610,1931
12611,1920
12612,1911
12613,1904
12614,1891
12615,1887
12616,1883
12617,1879
12618,1874
12619,1879
12620,1884
12621,1884
12622,1888
12623,1890
12624,1894
12625,1897
12626,1902
12627,1905
12628,1914
12629,1911
12630,1914
12631,1916
12632,1917
12633,1919
12634,1919
12635,1919
12636,1920
12637,1921
12638,1919
12639,1919
12640,1919
12641,1923
12642,1921
12643,1922
12644,1923
12645,1924
12646,1920
12647,1920
12648,1922
12649,1920
12650,1919
12651,1921
12652,1919
12653,1914
12654,1915
12655,1915
12656,1920
12657,1919
12658,1918
12659,1914
12660,1909
12661,1897
12662,1887
12663,1881
12664,1872
12665,1870
12666,1868
12667,1863
12668,1857
12669,1852
12670,1846
12671,1847
12672,1840
12673,1838
12674,1834
12675,1825
12676,1819
12677,1815
12678,1812
12679,1815
12680,1814
12681,1815
12682,1817
12683,1819
12684,1816
12685,1822
12686,1826
12687,1831
12688,1838
12689,1840
12690,1843
12691,1847
12692,1853
12693,1862
12694,1871
12695,1873
12696,1877
12697,1873
12698,2483
12699,966
13200,1535
13201,1798
13202,1950
13203,2033
13204,2089
13205,2110
13206,2113
13207,2109
13208,2096
13209,2080
13210,2070
13211,2063
13212,2056
13213,2039
13214,2032
13215,2027
13216,2016
13217,2009
13218,2001
13219,1995
13220,1989
13221,1986
13222,1990
13223,1989
13224,1986
13225,1984
13226,1985
13227,1991
13228,1991
13229,1990
13230,1988
13231,1983
13232,1969
13233,1965
13234,1961
13235,1957
13236,1955
13237,1953
13238,1947
13239,1947
13240,1943
13241,1951
13242,1948
13243,1949
13244,1947
13245,1946
13246,1942
13247,1941
13248,1943
13249,1941
13250,1942
13251,1940
13252,1937
13253,1934
13254,1933
13255,1932
13256,1936
13257,1935
13258,1929
13259,1927
13260,1919
13261,1908
13262,1903
13263,1895
13264,1888
13265,1883
13266,1877
13267,1872
13268,1866
13269,1861
13270,1856
13271,1856
13272,1851
13273,1850
13274,1840
13275,1830
13276,1828
13277,1825
13278,1823
13279,1824
13280,1822
13281,1825
13282,1825
13283,1825
13284,1822
13285,1826
13286,1833
13287,1840
13288,1840
13289,1843
13290,1851
13291,1853
13292,1858
13293,1865
13294,1872
13295,1876
13296,1879
13297,1875
13298,1875
13299,1875
13700,1879
13701,1879
13702,1882
13703,1886
13704,1886
13705,1883
13706,1883
13707,1889
13708,1893
13709,1898
13710,1899
13711,1900
13712,1901
13713,1901
13714,1903
13715,1901
13716,1902
13717,1904
13718,1904
13719,1903
13720,1899
13721,1901
13722,1904
13723,1904
13724,1904
13725,1903
13726,1899
13727,1889
13728,1877
13729,1874
13730,1871
13731,1865
13732,1861
13733,1857
13734,1844
13735,1840
13736,1836
13737,1840
13738,1838
13739,1835
13740,1829
13741,1818
13742,1813
13743,1810
13744,1810
13745,1808
13746,1810
13747,1812
13748,1812
13749,1813
13750,1813
13751,1813
13752,1819
13753,1828
13754,1831
13755,1838
13756,1840
13757,1845
13758,1847
13759,1855
13760,1862
13761,1872
13762,1873
13763,1874
13764,1878
13765,1877
13766,1878
13767,1882
13768,1884
13769,1890
13770,1889
13771,1888
13772,1887
13773,1887
13774,1893
13775,1895
13776,1903
13777,1898
13778,1899
13779,1894
13780,1895
13781,1900
13782,1898
13783,1901
13784,1901
13785,1901
13786,1898
13787,1893
13788,1901
13789,1903
13790,1902
13791,1903
13792,1895
13793,1891
13794,1882
13795,1874
13796,1871
13797,1861
13798,1858
13799,1853
14200,1857
14201,1853
14202,1846
14203,1843
14204,1841
14205,1840
14206,1835
14207,1827
14208,1819
14209,1815
14210,1811
14211,1811
14212,1810
14213,1813
14214,1811
14215,1813
14216,1815
14217,1819
14218,1821
14219,1826
14220,1830
14221,1837
14222,1836
14223,1841
14224,1843
14225,1850
14226,1856
14227,1863
14228,1870
14229,1872
14230,1872
14231,1878
14232,1876
14233,1880
14234,1882
14235,1884
14236,1886
14237,1887
14238,1887
14239,1886
14240,1887
14241,1897
14242,1897
14243,1898
14244,1897
14245,1895
14246,1895
14247,1894
14248,1898
14249,1899
14250,1899
14251,1903
14252,1902
14253,1895
14254,1893
14255,1901
14256,1903
14257,1901
14258,1899
14259,1895
14260,1889
14261,1881
14262,1872
14263,1867
14264,1863
14265,1858
14266,1856
14267,1851
14268,1843
14269,1838
14270,1835
14271,1834
14272,1830
14273,1827
14274,1815
14275,1809
14276,1807
14277,1806
14278,1805
14279,1806
14280,1805
14281,1806
14282,1811
14283,1813
14284,1813
14285,1820
14286,1823
14287,1827
14288,1835
14289,1839
14290,1841
14291,1845
14292,1853
14293,1855
14294,1867
14295,1872
14296,1872
14297,1874
14298,1877
14299,1878
14700,1879
14701,1879
14702,1883
14703,1885
14704,1883
14705,1885
14706,1886
14707,1890
14708,1893
14709,1895
14710,1899
14711,1902
14712,1902
14713,1902
14714,1903
14715,1901
14716,1903
14717,1904
14718,1903
14719,1903
14720,1899
14721,1903
14722,1904
14723,1904
14724,1905
14725,1904
14726,1903
14727,1890
14728,1881
14729,1874
14730,1871
14731,1867
14732,1862
14733,1861
14734,1853
14735,1845
14736,1845
14737,1837
14738,1835
14739,1827
14740,1823
14741,1815
14742,1811
14743,1808
14744,1808
14745,1804
14746,1808
14747,1808
14748,1808
14749,1810
14750,1808
14751,1809
14752,1810
14753,1823
14754,1826
14755,1834
14756,1840
14757,1841
14758,1845
14759,1854
14760,1862
14761,1869
14762,1871
14763,1873
14764,1874
14765,1875
14766,1874
14767,1879
14768,1884
14769,1881
14770,1883
14771,1885
14772,1887
14773,1886
14774,1893
14775,1895
14776,1899
14777,1900
14778,1902
14779,1901
14780,1900
14781,1902
14782,1903
14783,1902
14784,1906
14785,1904
14786,1903
14787,1901
14788,1904
14789,1904
14790,1904
14791,1904
14792,1904
14793,1898
14794,1888
14795,1881
14796,1872
14797,1872
14798,1866
14799,1860
15200,1857
15201,1851
15202,1843
15203,1844
15204,1843
15205,1840
15206,1834
15207,1826
15208,1822
15209,1814
15210,1812
15211,1808
15212,1810
15213,1811
15214,1810
15215,1814
15216,1814
15217,1808
15218,1809
15219,1815
15220,1819
15221,1825
15222,1831
15223,1836
15224,1839
15225,1840
15226,1847
15227,1857
15228,1862
15229,1863
15230,1870
15231,1868
15232,1871
15233,1876
15234,1878
15235,1881
15236,1883
15237,1879
15238,1887
15239,1886
15240,1891
15241,1887
15242,1896
15243,1894
15244,1900
15245,1899
15246,1898
15247,1900
15248,1902
15249,1903
15250,1904
15251,1904
15252,1903
15253,1899
15254,1901
15255,1904
15256,1906
15257,1905
15258,1904
15259,1902
15260,1890
15261,1886
15262,1882
15263,1872
15264,1871
15265,1869
15266,1862
15267,1850
15268,1842
15269,1840
15270,1840
15271,1834
15272,1839
15273,1834
15274,1825
15275,1821
15276,1819
15277,1814
15278,1813
15279,1811
15280,1814
15281,1813
15282,1818
15283,1819
15284,1815
15285,1819
15286,1825
15287,1828
15288,1834
15289,1839
15290,1842
15291,1843
15292,1852
15293,1861
15294,1866
15295,1871
15296,1872
15297,1872
15298,1876
15299,1875
15700,1882
15701,1887
15702,1887
15703,1886
15704,1890
15705,1889
15706,1898
15707,1895
15708,1904
15709,1903
15710,1904
15711,1904
15712,1906
15713,1911
15714,1915
15715,1915
15716,1918
15717,1920
15718,1920
15719,1915
15720,1913
15721,1918
15722,1922
15723,1920
15724,1918
15725,1917
15726,1911
15727,1903
15728,1898
15729,1888
15730,1881
15731,1874
15732,1871
15733,1867
15734,1857
15735,1856
15736,1855
15737,1852
15738,1846
15739,1840
15740,1837
15741,1825
15742,1823
15743,1818
15744,1817
15745,1811
15746,1817
15747,1811
15748,1815
15749,1819
15750,1817
15751,1818
15752,1823
15753,1830
15754,1830
15755,1837
15756,1839
15757,1843
15758,1845
15759,1851
15760,1858
15761,1859
15762,1863
15763,1863
15764,1868
15765,1868
15766,1870
15767,1870
15768,1871
15769,1872
15770,1872
15771,1871
15772,1876
15773,1872
15774,1878
15775,1878
15776,1883
15777,1883
15778,1884
15779,1882
15780,1883
15781,1885
15782,1882
15783,1885
15784,1887
15785,1888
15786,1885
15787,1882
15788,1885
15789,1888
15790,1881
15791,1878
15792,1887
15793,1877
15794,1872
15795,1870
15796,1862
15797,1856
15798,1855
15799,1851
16300,1872
16301,1872
16302,1873
16303,1873
16304,1873
16305,1877
16306,1878
16307,1885
16308,1888
16309,1886
16310,1891
16311,1893
16312,1893
16313,1894
16314,1895
16315,1901
16316,1903
16317,1904
16318,1903
16319,1899
16320,1900
16321,1903
16322,1904
16323,1906
16324,1904
16325,1903
16326,1895
16327,1885
16328,1882
16329,1873
16330,1872
16331,1868
16332,1865
16333,1857
16334,1853
16335,1847
16336,1843
16337,1845
16338,1840
16339,1839
16340,1829
16341,1824
16342,1817
16343,1815
16344,1813
16345,1813
16346,1815
16347,1814
16348,1815
16349,1817
16350,1817
16351,1821
16352,1826
16353,1830
16354,1830
16355,1839
16356,1840
16357,1842
16358,1849
16359,1853
16360,1863
16361,1866
16362,1872
16363,1872
16364,1873
16365,1877
16366,1875
16367,1877
16368,1881
16369,1883
16370,1879
16371,1882
16372,1885
16373,1888
16374,1888
16375,1894
16376,1898
16377,1900
16378,1899
16379,1899
16380,1901
16381,1899
16382,1902
16383,1904
16384,1904
16385,1903
16386,1898
16387,1902
16388,1904
16389,1904
16390,1905
16391,1904
16392,1903
16393,1894
16394,1887
16395,1877
16396,1872
16397,1871
16398,1869
16399,1860
16800,1855
16801,1849
16802,1842
16803,1842
16804,1841
16805,1840
16806,1831
16807,1827
16808,1819
16809,1816
16810,1811
16811,1809
16812,1811
16813,1811
16814,1811
16815,1812
16816,1814
16817,1814
16818,1819
16819,1826
16820,1831
16821,1839
16822,1838
16823,1841
16824,1845
16825,1850
16826,1855
16827,1858
16828,1861
16829,1865
16830,1874
16831,1872
16832,1875
16833,1877
16834,1877
16835,1879
16836,1881
16837,1885
16838,1885
16839,1886
16840,1893
16841,1890
16842,1894
16843,1898
16844,1898
16845,1897
16846,1898
16847,1899
16848,1902
16849,1904
16850,1902
16851,1903
16852,1902
16853,1899
16854,1904
16855,1904
16856,1904
16857,1904
16858,1901
16859,1899
16860,1890
16861,1883
16862,1877
16863,1871
16864,1870
16865,1864
16866,1857
16867,1854
16868,1849
16869,1845
16870,1843
16871,1842
16872,1840
16873,1833
16874,1823
16875,1819
16876,1817
16877,1815
16878,1813
16879,1812
16880,1811
16881,1814
16882,1815
16883,1818
16884,1818
16885,1823
16886,1830
16887,1833
16888,1834
16889,1840
16890,1842
16891,1845
16892,1853
16893,1858
16894,1863
16895,1867
16896,1872
16897,1867
16898,1870
16899,1870
17300,2137
17301,2128
17302,2119
17303,2112
17304,2105
17305,2093
17306,2091
17307,2087
17308,2078
17309,2069
17310,2064
17311,2061
17312,2047
17313,2039
17314,2032
17315,2032
17316,2029
17317,2018
17318,2005
17319,1995
17320,1984
17321,1983
17322,1981
17323,1972
17324,1968
17325,1967
17326,1953
17327,1938
17328,1934
17329,1924
17330,1918
17331,1907
17332,1905
17333,1902
17334,1894
17335,1885
17336,1883
17337,1872
17338,1867
17339,1865
17340,1860
17341,1853
17342,1843
17343,1841
17344,1841
17345,1840
17346,1838
17347,1836
17348,1836
17349,1839
17350,1837
17351,1838
17352,1841
17353,1841
17354,1847
17355,1847
17356,1850
17357,1855
17358,1857
17359,1866
17360,1872
17361,1874
17362,1879
17363,1881
17364,1883
17365,1883
17366,1885
17367,1889
17368,1889
17369,1889
17370,1889
17371,1891
17372,1891
17373,1894
17374,1900
17375,1898
17376,1902
17377,1898
17378,1898
17379,1895
17380,1895
17381,1897
17382,1893
17383,1901
17384,1898
17385,1894
17386,1893
17387,1895
17388,1899
17389,1901
17390,1902
17391,1895
17392,1891
17393,1883
17394,1874
17395,1871
17396,1863
17397,1857
17398,1855
17399,1849
17800,2042
17801,2029
17802,2019
17803,2007
17804,1998
17805,1986
17806,1978
17807,1965
17808,1951
17809,1942
17810,1936
17811,1934
17812,1927
17813,1920
17814,1909
17815,1902
17816,1895
17817,1889
17818,1888
17819,1891
17820,1891
17821,1893
17822,1894
17823,1895
17824,1899
17825,1901
17826,1904
17827,1910
17828,1910
17829,1911
17830,1917
17831,1916
17832,1915
17833,1915
17834,1914
17835,1915
17836,1915
17837,1915
17838,1914
17839,1920
17840,1915
17841,1919
17842,1921
17843,1924
17844,1920
17845,1920
17846,1920
17847,1919
17848,1920
17849,1919
17850,1921
17851,1919
17852,1909
17853,1907
17854,1910
17855,1910
17856,1907
17857,1910
17858,1905
17859,1902
17860,1893
17861,1886
17862,1874
17863,1872
17864,1868
17865,1865
17866,1861
17867,1855
17868,1850
17869,1843
17870,1844
17871,1843
17872,1839
17873,1829
17874,1821
17875,1814
17876,1814
17877,1809
17878,1811
17879,1811
17880,1808
17881,1810
17882,1819
17883,1815
17884,1818
17885,1824
17886,1830
17887,1834
17888,1837
17889,1840
17890,1842
17891,1853
17892,1856
17893,1861
17894,1870
17895,1871
17896,1873
17897,1879
17898,1877
17899,1991
18300,2031
18301,2032
18302,2021
18303,2016
18304,2013
18305,2007
18306,2004
18307,2006
18308,2001
18309,1998
18310,1985
18311,1980
18312,1974
18313,1968
18314,1966
18315,1965
18316,1965
18317,1963
18318,1952
18319,1950
18320,1946
18321,1953
18322,1951
18323,1945
18324,1942
18325,1940
18326,1934
18327,1921
18328,1915
18329,1906
18330,1903
18331,1895
18332,1890
18333,1883
18334,1875
18335,1873
18336,1872
18337,1863
18338,1856
18339,1849
18340,1840
18341,1838
18342,1831
18343,1829
18344,1825
18345,1827
18346,1825
18347,1826
18348,1824
18349,1824
18350,1824
18351,1827
18352,1835
18353,1837
18354,1843
18355,1851
18356,1855
18357,1854
18358,1862
18359,1867
18360,1873
18361,1877
18362,1882
18363,1881
18364,1885
18365,1879
18366,1878
18367,1883
18368,1889
18369,1889
18370,1890
18371,1893
18372,1892
18373,1901
18374,1899
18375,1901
18376,1902
18377,1903
18378,1903
18379,1903
18380,1904
18381,1904
18382,1904
18383,1907
18384,1904
18385,1904
18386,1901
18387,1904
18388,1904
18389,1904
18390,1904
18391,1902
18392,1897
18393,1889
18394,1883
18395,2351
18396,1310
18397,0
18398,0
18399,196
18800,1983
18801,1973
18802,1967
18803,1959
18804,1946
18805,1934
18806,1919
18807,1904
18808,1897
18809,1886
18810,1878
18811,1879
18812,1873
18813,1872
18814,1869
18815,1867
18816,1869
18817,1860
18818,1862
18819,1867
18820,1869
18821,1870
18822,1872
18823,1874
18824,1875
18825,1879
18826,1886
18827,1891
18828,1894
18829,1895
18830,1898
18831,1898
18832,1901
18833,1900
18834,1899
18835,1905
18836,1904
18837,1904
18838,1907
18839,1907
18840,1910
18841,1914
18842,1916
18843,1916
18844,1915
18845,1914
18846,1913
18847,1917
18848,1914
18849,1916
18850,1917
18851,1913
18852,1906
18853,1909
18854,1913
18855,1914
18856,1913
18857,1909
18858,1907
18859,1902
18860,1892
18861,1886
18862,1878
18863,1874
18864,1871
18865,1870
18866,1862
18867,1861
18868,1854
18869,1851
18870,1847
18871,1840
18872,1831
18873,1831
18874,1826
18875,1824
18876,1819
18877,1809
18878,1810
18879,1805
18880,1813
18881,1821
18882,1822
18883,1819
18884,1821
18885,1826
18886,1829
18887,1833
18888,1839
18889,1842
18890,1879
18891,2512
18892,477
18893,0
18894,0
18895,462
18896,1047
18897,1488
18898,1777
18899,1953
19300,1973
19301,1968
19302,1959
19303,1951
19304,1949
19305,1950
19306,1948
19307,1945
19308,1946
19309,1946
19310,1945
19311,1940
19312,1941
19313,1939
19314,1945
19315,1943
19316,1943
19317,1942
19318,1937
19319,1932
19320,1936
19321,1937
19322,1936
19323,1936
19324,1931
19325,1926
19326,1915
19327,1909
19328,1904
19329,1899
19330,1891
19331,1887
19332,1881
19333,1874
19334,1870
19335,1867
19336,1866
19337,1862
19338,1854
19339,1850
19340,1840
19341,1836
19342,1831
19343,1827
19344,1826
19345,1827
19346,1823
19347,1823
19348,1827
19349,1825
19350,1824
19351,1830
19352,1835
19353,1838
19354,1840
19355,1841
19356,1847
19357,1854
19358,1855
19359,1869
19360,1872
19361,1875
19362,1877
19363,1879
19364,1881
19365,1881
19366,1883
19367,1883
19368,1885
19369,1889
19370,1889
19371,1891
19372,1889
19373,1899
19374,1897
19375,1902
19376,1903
19377,1899
19378,1903
19379,1903
19380,1901
19381,1903
19382,1904
19383,1904
19384,1904
19385,1902
19386,2210
19387,1898
19388,0
19389,0
19390,112
19391,737
19392,1277
19393,1632
19394,1866
19395,2002
19396,2082
19397,2121
19398,2138
19399,2139
19900,1866
19901,1867
19902,1867
19903,1869
19904,1871
19905,1872
19906,1872
19907,1877
19908,1881
19909,1882
19910,1882
19911,1882
19912,1883
19913,1883
19914,1885
19915,1888
19916,1888
19917,1889
19918,1886
19919,1883
19920,1888
19921,1890
19922,1901
19923,1898
19924,1900
19925,1890
19926,1882
19927,1875
19928,1867
19929,1862
19930,1863
19931,1856
19932,1856
19933,1844
19934,1840
19935,1840
19936,1841
19937,1837
19938,1832
19939,1825
19940,1823
19941,1810
19942,1809
19943,1808
19944,1808
19945,1808
19946,1808
19947,1811
19948,1808
19949,1810
19950,1813
19951,1818
19952,1824
19953,1827
19954,1834
19955,1834
19956,1840
19957,1840
19958,1845
19959,1856
19960,1861
19961,1865
19962,1870
19963,1872
19964,1872
19965,1873
19966,1873
19967,1874
19968,1878
19969,1875
19970,1879
19971,1879
19972,1886
19973,1886
19974,1889
19975,1892
19976,1895
19977,1891
19978,1895
19979,1895
19980,1898
19981,1897
19982,1898
19983,1902
19984,1899
19985,1894
19986,1899
19987,1899
19988,1904
19989,1903
19990,1899
19991,1901
19992,1890
19993,1885
19994,1875
19995,1872
19996,1867
19997,1863
19998,1856
19999,1856
20400,1855
20401,1847
20402,1845
20403,1842
20404,1840
20405,1838
20406,1826
20407,1821
20408,1820
20409,1815
20410,1814
20411,1815
20412,1814
20413,1813
20414,1818
20415,1819
20416,1817
20417,1819
20418,1824
20419,1824
20420,1824
20421,1827
20422,1836
20423,1844
20424,1849
20425,1856
20426,1861
20427,1869
20428,1867
20429,1872
20430,1872
20431,1872
20432,1875
20433,1877
20434,1879
20435,1879
20436,1882
20437,1882
20438,1881
20439,1887
20440,1887
20441,1889
20442,1894
20443,1895
20444,1896
20445,1899
20446,1898
20447,1898
20448,1902
20449,1904
20450,1903
20451,1899
20452,1899
20453,1899
20454,1904
20455,1902
20456,1904
20457,1901
20458,1901
20459,1889
20460,1881
20461,1875
20462,1871
20463,1869
20464,1867
20465,1861
20466,1855
20467,1850
20468,1845
20469,1843
20470,1841
20471,1840
20472,1834
20473,1825
20474,1820
20475,1818
20476,1811
20477,1811
20478,1813
20479,1814
20480,1813
20481,1818
20482,1815
20483,1817
20484,1819
20485,1826
20486,1830
20487,1834
20488,1840
20489,1840
20490,1842
20491,1851
20492,1855
20493,1862
20494,1865
20495,1871
20496,1872
20497,1872
20498,1869
20499,1870
20900,1877
20901,1881
20902,1879
20903,1879
20904,1881
20905,1883
20906,1887
20907,1892
20908,1891
20909,1894
20910,1899
20911,1897
20912,1900
20913,1898
20914,1899
20915,1900
20916,1901
20917,1903
20918,1901
20919,1898
20920,1901
20921,1904
20922,1904
20923,1903
20924,1904
20925,1894
20926,1887
20927,1881
20928,1873
20929,1872
20930,1867
20931,1862
20932,1856
20933,1856
20934,1846
20935,1845
20936,1833
20937,1840
20938,1839
20939,1830
20940,1819
20941,1812
20942,1811
20943,1813
20944,1813
20945,1814
20946,1813
20947,1813
20948,1819
20949,1813
20950,1821
20951,1826
20952,1829
20953,1834
20954,1839
20955,1840
20956,1846
20957,1852
20958,1858
20959,1863
20960,1871
20961,1871
20962,1873
20963,1872
20964,1877
20965,1876
20966,1875
20967,1879
20968,1882
20969,1881
20970,1883
20971,1884
20972,1888
20973,1890
20974,1894
20975,1895
20976,1895
20977,1888
20978,1888
20979,1889
20980,1893
20981,1892
20982,1892
20983,1897
20984,1891
20985,1889
20986,1890
20987,1894
20988,1898
20989,1895
20990,1895
20991,1892
20992,1884
20993,1875
20994,1872
20995,1867
20996,1860
20997,1856
20998,1855
20999,1847
21400,1853
21401,1847
21402,1845
21403,1842
21404,1840
21405,1837
21406,1834
21407,1823
21408,1823
21409,1818
21410,1818
21411,1820
21412,1818
21413,1818
21414,1818
21415,1818
21416,1818
21417,1825
21418,1828
21419,1835
21420,1837
21421,1840
21422,1843
21423,1847
21424,1850
21425,1858
21426,1862
21427,1869
21428,1872
21429,1872
21430,1872
21431,1872
21432,1872
21433,1876
21434,1877
21435,1878
21436,1875
21437,1879
21438,1886
21439,1886
21440,1890
21441,1895
21442,1893
21443,1895
21444,1892
21445,1895
21446,1894
21447,1895
21448,1898
21449,1899
21450,1902
21451,1897
21452,1895
21453,1901
21454,1903
21455,1904
21456,1900
21457,1893
21458,1887
21459,1878
21460,1872
21461,1870
21462,1869
21463,1862
21464,1856
21465,1855
21466,1846
21467,1842
21468,1841
21469,1840
21470,1838
21471,1831
21472,1826
21473,1815
21474,1811
21475,1810
21476,1808
21477,1810
21478,1808
21479,1811
21480,1811
21481,1811
21482,1818
21483,1821
21484,1824
21485,1829
21486,1834
21487,1836
21488,1840
21489,1842
21490,1845
21491,1855
21492,1861
21493,1862
21494,1867
21495,1871
21496,1872
21497,1872
21498,1874
21499,1875
21900,1875
21901,1879
21902,1878
21903,1878
21904,1879
21905,1885
21906,1886
21907,1888
21908,1889
21909,1895
21910,1891
21911,1891
21912,1894
21913,1895
21914,1895
21915,1903
21916,1898
21917,1895
21918,1898
21919,1895
21920,1901
21921,1903
21922,1902
21923,1898
21924,1900
21925,1891
21926,1883
21927,1878
21928,1873
21929,1872
21930,1867
21931,1861
21932,1857
21933,1856
21934,1851
21935,1849
21936,1845
21937,1839
21938,1831
21939,1823
21940,1818
21941,1813
21942,1814
21943,1809
21944,1811
21945,1809
21946,1810
21947,1811
21948,1813
21949,1813
21950,1815
21951,1819
21952,1822
21953,1825
21954,1830
21955,1840
21956,1841
21957,1846
21958,1857
21959,1857
21960,1868
21961,1869
21962,1869
21963,1871
21964,1872
21965,1872
21966,1875
21967,1878
21968,1877
21969,1877
21970,1879
21971,1878
21972,1876
21973,1879
21974,1879
21975,1892
21976,1890
21977,1892
21978,1892
21979,1891
21980,1895
21981,1897
21982,1901
21983,1899
21984,1895
21985,1895
21986,1898
21987,1902
21988,1902
21989,1902
21990,1898
21991,1893
21992,1887
21993,1882
21994,1875
21995,1872
21996,1870
21997,1863
21998,1861
21999,1858
22400,1851
22401,1845
22402,1845
22403,1842
22404,1840
22405,1835
22406,1827
22407,1825
22408,1818
22409,1821
22410,1817
22411,1818
22412,1819
22413,1819
22414,1818
22415,1818
22416,1823
22417,1820
22418,1822
22419,1826
22420,1828
22421,1834
22422,1837
22423,1840
22424,1845
22425,1851
22426,1858
22427,1859
22428,1861
22429,1862
22430,1866
22431,1869
22432,1868
22433,1871
22434,1872
22435,1878
22436,1879
22437,1883
22438,1883
22439,1887
22440,1888
22441,1893
22442,1890
22443,1894
22444,1889
22445,1893
22446,1894
22447,1893
22448,1897
22449,1901
22450,1899
22451,1896
22452,1892
22453,1899
22454,1899
22455,1901
22456,1901
22457,1897
22458,1893
22459,1885
22460,1879
22461,1874
22462,1869
22463,1866
22464,1862
22465,1858
22466,1854
22467,1851
22468,1847
22469,1845
22470,1842
22471,1840
22472,1835
22473,1826
22474,1821
22475,1819
22476,1818
22477,1818
22478,1818
22479,1819
22480,1821
22481,1820
22482,1819
22483,1822
22484,1829
22485,1827
22486,1830
22487,1831
22488,1840
22489,1845
22490,1846
22491,1856
22492,1859
22493,1867
22494,1866
22495,1870
22496,1872
22497,1872
22498,1872
22499,1873
22900,1870
22901,1872
22902,1872
22903,1871
22904,1873
22905,1874
22906,1881
22907,1879
22908,1881
22909,1885
22910,1883
22911,1885
22912,1884
22913,1886
22914,1886
22915,1898
22916,1899
22917,1893
22918,1894
22919,1898
22920,1900
22921,1901
22922,1899
22923,1899
22924,1894
22925,1886
22926,1882
22927,1874
22928,1871
22929,1869
22930,1866
22931,1859
22932,1856
22933,1851
22934,1850
22935,1843
22936,1843
22937,1840
22938,1838
22939,1830
22940,1823
22941,1821
22942,1815
22943,1819
22944,1816
22945,1819
22946,1818
22947,1820
22948,1819
22949,1818
22950,1822
22951,1831
22952,1833
22953,1834
22954,1839
22955,1840
22956,1843
22957,1847
22958,1854
22959,1859
22960,1866
22961,1867
22962,1869
22963,1872
22964,1871
22965,1872
22966,1873
22967,1875
22968,1879
22969,1878
22970,1881
22971,1877
22972,1885
22973,1885
22974,1886
22975,1888
22976,1889
22977,1892
22978,1892
22979,1894
22980,1890
22981,1897
22982,1899
22983,1899
22984,1893
22985,1893
22986,1895
22987,1900
22988,1901
22989,1902
22990,1897
22991,1893
22992,1889
22993,1882
22994,1873
22995,1872
22996,1870
22997,1858
22998,1853
22999,1849
23500,1872
23501,1872
23502,1871
23503,1872
23504,1872
23505,1875
23506,1879
23507,1883
23508,1886
23509,1887
23510,1886
23511,1887
23512,1889
23513,1887
23514,1891
23515,1893
23516,1892
23517,1888
23518,1887
23519,1891
23520,1891
23521,1893
23522,1897
23523,1899
23524,1895
23525,1888
23526,1881
23527,1878
23528,1869
23529,1870
23530,1868
23531,1862
23532,1857
23533,1853
23534,1853
23535,1849
23536,1842
23537,1840
23538,1837
23539,1827
23540,1821
23541,1819
23542,1818
23543,1818
23544,1819
23545,1819
23546,1818
23547,1822
23548,1821
23549,1822
23550,1827
23551,1831
23552,1835
23553,1839
23554,1840
23555,1841
23556,1847
23557,1851
23558,1857
23559,1861
23560,1866
23561,1869
23562,1872
23563,1872
23564,1872
23565,1872
23566,1877
23567,1878
23568,1877
23569,1879
23570,1879
23571,1881
23572,1886
23573,1888
23574,1888
23575,1889
23576,1895
23577,1891
23578,1894
23579,1895
23580,1895
23581,1897
23582,1900
23583,1898
23584,1896
23585,1893
23586,1897
23587,1899
23588,1902
23589,1898
23590,1898
23591,1892
23592,1887
23593,1877
23594,1873
23595,1871
23596,1869
23597,1863
23598,1859
23599,1856
24000,1987
24001,1981
24002,1971
24003,1963
24004,1955
24005,1943
24006,1927
24007,1915
24008,1904
24009,1899
24010,1889
24011,1887
24012,1882
24013,1878
24014,1875
24015,1874
24016,1873
24017,1877
24018,1878
24019,1881
24020,1879
24021,1882
24022,1883
24023,1887
24024,1891
24025,1889
24026,1891
24027,1895
24028,1904
24029,1904
24030,1905
24031,1905
24032,1904
24033,1906
24034,1906
24035,1905
24036,1904
24037,1906
24038,1904
24039,1909
24040,1910
24041,1911
24042,1913
24043,1912
24044,1914
24045,1911
24046,1911
24047,1911
24048,1913
24049,1914
24050,1907
24051,1906
24052,1906
24053,1911
24054,1909
24055,1909
24056,1907
24057,1906
24058,1902
24059,1892
24060,1886
24061,1883
24062,1875
24063,1872
24064,1872
24065,1863
24066,1859
24067,1855
24068,1853
24069,1851
24070,1847
24071,1842
24072,1837
24073,1830
24074,1826
24075,1825
24076,1823
24077,1822
24078,1827
24079,1824
24080,1822
24081,1822
24082,1822
24083,1825
24084,1831
24085,1835
24086,1837
24087,1840
24088,1841
24089,1843
24090,1850
24091,1857
24092,2326
24093,1419
24094,0
24095,0
24096,176
24097,803
24098,1311
24099,1658
24500,1993
24501,1985
24502,1975
24503,1968
24504,1959
24505,1959
24506,1963
24507,1951
24508,1955
24509,1950
24510,1952
24511,1947
24512,1948
24513,1946
24514,1945
24515,1943
24516,1944
24517,1937
24518,1936
24519,1936
24520,1936
24521,1937
24522,1934
24523,1930
24524,1926
24525,1917
24526,1907
24527,1904
24528,1897
24529,1892
24530,1890
24531,1885
24532,1879
24533,1872
24534,1872
24535,1867
24536,1863
24537,1856
24538,1855
24539,1845
24540,1840
24541,1833
24542,1827
24543,1834
24544,1836
24545,1838
24546,1837
24547,1834
24548,1831
24549,1834
24550,1840
24551,1840
24552,1841
24553,1845
24554,1850
24555,1851
24556,1857
24557,1859
24558,1863
24559,1871
24560,1872
24561,1874
24562,1879
24563,1879
24564,1879
24565,1879
24566,1884
24567,1886
24568,1887
24569,1885
24570,1887
24571,1886
24572,1893
24573,1896
24574,1894
24575,1898
24576,1899
24577,1893
24578,1892
24579,1893
24580,1895
24581,1893
24582,1895
24583,1893
24584,1891
24585,1889
24586,1897
24587,1922
24588,2559
24589,555
24590,0
24591,0
24592,464
24593,1053
24594,1471
24595,1756
24596,1934
24597,2031
24598,2090
24599,2113
25000,1919
25001,1909
25002,1904
25003,1894
25004,1886
25005,1878
25006,1870
25007,1866
25008,1858
25009,1856
25010,1853
25011,1853
25012,1850
25013,1847
25014,1845
25015,1844
25016,1843
25017,1846
25018,1847
25019,1852
25020,1856
25021,1855
25022,1855
25023,1859
25024,1863
25025,1872
25026,1873
25027,1875
25028,1877
25029,1881
25030,1883
25031,1882
25032,1883
25033,1883
25034,1887
25035,1886
25036,1886
25037,1890
25038,1891
25039,1894
25040,1895
25041,1898
25042,1898
25043,1898
25044,1902
25045,1902
25046,1902
25047,1904
25048,1901
25049,1904
25050,1901
25051,1902
25052,1904
25053,1904
25054,1905
25055,1898
25056,1902
25057,1893
25058,1887
25059,1881
25060,1877
25061,1872
25062,1870
25063,1867
25064,1860
25065,1856
25066,1849
25067,1850
25068,1845
25069,1843
25070,1840
25071,1836
25072,1831
25073,1823
25074,1821
25075,1819
25076,1818
25077,1819
25078,1815
25079,1815
25080,1821
25081,1819
25082,1825
25083,2223
25084,1627
25085,0
25086,0
25087,91
25088,712
25089,1242
25090,1617
25091,1841
25092,1988
25093,2075
25094,2119
25095,2141
25096,2148
25097,2149
25098,2145
25099,2144
25500,1939
25501,1936
25502,1936
25503,1936
25504,1936
25505,1936
25506,1936
25507,1935
25508,1936
25509,1935
25510,1933
25511,1935
25512,1932
25513,1932
25514,1930
25515,1931
25516,1930
25517,1926
25518,1925
25519,1926
25520,1923
25521,1922
25522,1921
25523,1922
25524,1919
25525,1906
25526,1902
25527,1895
25528,1891
25529,1885
25530,1879
25531,1874
25532,1871
25533,1867
25534,1865
25535,1863
25536,1859
25537,1850
25538,1840
25539,1835
25540,1830
25541,1825
25542,1822
25543,1823
25544,1824
25545,1823
25546,1822
25547,1822
25548,1823
25549,1824
25550,1829
25551,1831
25552,1836
25553,1837
25554,1842
25555,1847
25556,1852
25557,1859
25558,1865
25559,1872
25560,1872
25561,1874
25562,1876
25563,1878
25564,1881
25565,1882
25566,1882
25567,1876
25568,1876
25569,1875
25570,1883
25571,1889
25572,1893
25573,1892
25574,1895
25575,1894
25576,1898
25577,1900
25578,1901
25579,2589
25580,736
25581,0
25582,0
25583,399
25584,1004
25585,1461
25586,1776
25587,1962
25588,2074
25589,2134
25590,2162
25591,2163
25592,2160
25593,2155
25594,2145
25595,2128
25596,2119
25597,2107
25598,2096
25599,2080
26000,1901
26001,1895
26002,1890
26003,1887
26004,1878
26005,1871
26006,1866
26007,1859
26008,1856
26009,1855
26010,1853
26011,1850
26012,1851
26013,1851
26014,1849
26015,1849
26016,1854
26017,1847
26018,1850
26019,1851
26020,1856
26021,1857
26022,1858
26023,1861
26024,1869
26025,1874
26026,1874
26027,1876
26028,1878
26029,1881
26030,1881
26031,1885
26032,1882
26033,1886
26034,1883
26035,1891
26036,1894
26037,1894
26038,1899
26039,1901
26040,1901
26041,1903
26042,1903
26043,1902
26044,1903
26045,1904
26046,1904
26047,1904
26048,1905
26049,1904
26050,1904
26051,1902
26052,1904
26053,1905
26054,1906
26055,1904
26056,1904
26057,1899
26058,1889
26059,1887
26060,1878
26061,1875
26062,1870
26063,1872
26064,1866
26065,1859
26066,1856
26067,1853
26068,1847
26069,1848
26070,1841
26071,1838
26072,1834
26073,1829
26074,2117
26075,1891
26076,0
26077,0
26078,14
26079,662
26080,1216
26081,1559
26082,1811
26083,1947
26084,2034
26085,2086
26086,2105
26087,2113
26088,2119
26089,2114
26090,2119
26091,2113
26092,2103
26093,2096
26094,2094
26095,2091
26096,2086
26097,2079
26098,2070
26099,2064
26600,1847
26601,1847
26602,1844
26603,1840
26604,1838
26605,1830
26606,1825
26607,1823
26608,1820
26609,1814
26610,1821
26611,1823
26612,1822
26613,1822
26614,1821
26615,1817
26616,1820
26617,1823
26618,1826
26619,1831
26620,1836
26621,1837
26622,1840
26623,1847
26624,1855
26625,1856
26626,1859
26627,1862
26628,1866
26629,1867
26630,1869
26631,1869
26632,1871
26633,1872
26634,1874
26635,1872
26636,1872
26637,1874
26638,1874
26639,1877
26640,1883
26641,1885
26642,1896
26643,1894
26644,1892
26645,1893
26646,1894
26647,1899
26648,1901
26649,1901
26650,1895
26651,1894
26652,1899
26653,1903
26654,1902
26655,1902
26656,1900
26657,1895
26658,1885
26659,1879
26660,1872
26661,1872
26662,1866
26663,1864
26664,1856
26665,1856
26666,1849
26667,1847
26668,1846
26669,1840
26670,1840
26671,1833
26672,1826
26673,1823
26674,1818
26675,1819
26676,1815
26677,1822
26678,1819
26679,1821
26680,1822
26681,1823
26682,1822
26683,1826
26684,1831
26685,1838
26686,1837
26687,1840
26688,1844
26689,1845
26690,1854
26691,1859
26692,1867
26693,1867
26694,1871
26695,1872
26696,1872
26697,1874
26698,1875
26699,1877
27100,1874
27101,1872
27102,1875
27103,1874
27104,1879
27105,1877
27106,1883
27107,1883
27108,1889
27109,1887
27110,1886
27111,1887
27112,1887
27113,1889
27114,1893
27115,1900
27116,1899
27117,1897
27118,1899
27119,1901
27120,1902
27121,1899
27122,1901
27123,1894
27124,1886
27125,1883
27126,1875
27127,1865
27128,1865
27129,1860
27130,1863
27131,1859
27132,1851
27133,1854
27134,1846
27135,1846
27136,1840
27137,1840
27138,1831
27139,1826
27140,1826
27141,1823
27142,1819
27143,1820
27144,1815
27145,1823
27146,1823
27147,1823
27148,1823
27149,1824
27150,1833
27151,1835
27152,1840
27153,1840
27154,1843
27155,1847
27156,1852
27157,1856
27158,1863
27159,1867
27160,1871
27161,1872
27162,1872
27163,1872
27164,1875
27165,1873
27166,1877
27167,1879
27168,1882
27169,1883
27170,1886
27171,1885
27172,1888
27173,1892
27174,1893
27175,1898
27176,1894
27177,1894
27178,1895
27179,1899
27180,1899
27181,1900
27182,1899
27183,1897
27184,1895
27185,1898
27186,1902
27187,1903
27188,1901
27189,1902
27190,1898
27191,1887
27192,1881
27193,1874
27194,1872
27195,1867
27196,1867
27197,1862
27198,1857
27199,1851
27600,1846
27601,1847
27602,1840
27603,1840
27604,1834
27605,1830
27606,1822
27607,1826
27608,1821
27609,1819
27610,1822
27611,1819
27612,1823
27613,1822
27614,1823
27615,1823
27616,1826
27617,1831
27618,1836
27619,1840
27620,1840
27621,1846
27622,1849
27623,1853
27624,1860
27625,1866
27626,1869
27627,1870
27628,1872
27629,1872
27630,1874
27631,1874
27632,1876
27633,1877
27634,1883
27635,1879
27636,1880
27637,1885
27638,1888
27639,1889
27640,1887
27641,1887
27642,1881
27643,1895
27644,1893
27645,1895
27646,1895
27647,1898
27648,1900
27649,1898
27650,1896
27651,1895
27652,1897
27653,1902
27654,1902
27655,1895
27656,1899
27657,1891
27658,1885
27659,1877
27660,1873
27661,1870
27662,1866
27663,1861
27664,1858
27665,1855
27666,1851
27667,1845
27668,1846
27669,1841
27670,1840
27671,1837
27672,1830
27673,1824
27674,1822
27675,1821
27676,1819
27677,1824
27678,1818
27679,1823
27680,1821
27681,1821
27682,1827
27683,1828
27684,1831
27685,1837
27686,1839
27687,1841
27688,1843
27689,1851
27690,1856
27691,1861
27692,1866
27693,1870
27694,1871
27695,1871
27696,1873
27697,1872
27698,1871
27699,1871
28100,1878
28101,1879
28102,1879
28103,1883
28104,1887
28105,1889
28106,1892
28107,1893
28108,1895
28109,1893
28110,1894
28111,1897
28112,1896
28113,1894
28114,1899
28115,1902
28116,1897
28117,1893
28118,1897
28119,1901
28120,1903
28121,1902
28122,1899
28123,1895
28124,1886
28125,1881
28126,1873
28127,1870
28128,1869
28129,1863
28130,1861
28131,1856
28132,1851
28133,1847
28134,1845
28135,1843
28136,1840
28137,1839
28138,1831
28139,1828
28140,1821
28141,1822
28142,1822
28143,1819
28144,1819
28145,1821
28146,1824
28147,1823
28148,1824
28149,1829
28150,1835
28151,1838
28152,1835
28153,1838
28154,1840
28155,1855
28156,1853
28157,1857
28158,1863
28159,1869
28160,1872
28161,1872
28162,1872
28163,1872
28164,1875
28165,1879
28166,1879
28167,1879
28168,1881
28169,1881
28170,1886
28171,1887
28172,1887
28173,1890
28174,1893
28175,1893
28176,1894
28177,1886
28178,1890
28179,1890
28180,1891
28181,1891
28182,1893
28183,1887
28184,1888
28185,1891
28186,1891
28187,1894
28188,1893
28189,1893
28190,1889
28191,1879
28192,1873
28193,1870
28194,1866
28195,1861
28196,1857
28197,1853
28198,1849
28199,1845
28600,1845
28601,1842
28602,1842
28603,1838
28604,1831
28605,1829
28606,1824
28607,1819
28608,1819
28609,1820
28610,1821
28611,1819
28612,1821
28613,1819
28614,1819
28615,1825
28616,1831
28617,1833
28618,1833
28619,1839
28620,1840
28621,1844
28622,1849
28623,1855
28624,1860
28625,1867
28626,1868
28627,1871
28628,1872
28629,1873
28630,1873
28631,1876
28632,1879
28633,1875
28634,1878
28635,1883
28636,1877
28637,1885
28638,1886
28639,1889
28640,1890
28641,1894
28642,1895
28643,1895
28644,1895
28645,1893
28646,1898
28647,1899
28648,1900
28649,1897
28650,1895
28651,1895
28652,1898
28653,1902
28654,1901
28655,1900
28656,1899
28657,1883
28658,1875
28659,1871
28660,1873
28661,1862
28662,1850
28663,1855
28664,1850
28665,1846
28666,1843
28667,1842
28668,1838
28669,1838
28670,1834
28671,1825
28672,1817
28673,1821
28674,1812
28675,1820
28676,1821
28677,1819
28678,1821
28679,1820
28680,1823
28681,1823
28682,1827
28683,1831
28684,1837
28685,1839
28686,1840
28687,1844
28688,1849
28689,1853
28690,1857
28691,1863
28692,1869
28693,1871
28694,1872
28695,1874
28696,1875
28697,1874
28698,1875
28699,1879
29100,1879
29101,1882
29102,1881
29103,1886
29104,1887
29105,1890
29106,1893
29107,1893
29108,1894
29109,1895
29110,1895
29111,1899
29112,1899
29113,1899
29114,1900
29115,1901
29116,1898
29117,1898
29118,1897
29119,1899
29120,1903
29121,1901
29122,1899
29123,1891
29124,1887
29125,1880
29126,1873
29127,1872
29128,1869
29129,1861
29130,1858
29131,1855
29132,1853
29133,1847
29134,1843
29135,1841
29136,1840
29137,1827
29138,1820
29139,1815
29140,1814
29141,1810
29142,1811
29143,1808
29144,1813
29145,1810
29146,1811
29147,1811
29148,1815
29149,1819
29150,1822
29151,1829
29152,1829
29153,1840
29154,1835
29155,1850
29156,1853
29157,1859
29158,1865
29159,1869
29160,1872
29161,1873
29162,1874
29163,1872
29164,1875
29165,1876
29166,1877
29167,1881
29168,1879
29169,1878
29170,1886
29171,1891
29172,1891
29173,1893
29174,1893
29175,1893
29176,1893
29177,1894
29178,1889
29179,1889
29180,1900
29181,1902
29182,1902
29183,1898
29184,1895
29185,1901
29186,1901
29187,1900
29188,1898
29189,1900
29190,1891
29191,1882
29192,1878
29193,1872
29194,1871
29195,1865
29196,1861
29197,1857
29198,1853
29199,1853
29600,1850
29601,1847
29602,1845
29603,1840
29604,1831
29605,1824
29606,1819
29607,1819
29608,1814
29609,1815
29610,1817
29611,1817
29612,1816
29613,1821
29614,1820
29615,1823
29616,1826
29617,1827
29618,1830
29619,1832
29620,1837
29621,1840
29622,1843
29623,1850
29624,1857
29625,1862
29626,1862
29627,1867
29628,1869
29629,1871
29630,1872
29631,1873
29632,1873
29633,1874
29634,1878
29635,1885
29636,1886
29637,1891
29638,1894
29639,1898
29640,1899
29641,1903
29642,1903
29643,1902
29644,1903
29645,1903
29646,1903
29647,1904
29648,1904
29649,1904
29650,1902
29651,1903
29652,1905
29653,1907
29654,1906
29655,1906
29656,1903
29657,1895
29658,1890
29659,1885
29660,1873
29661,1872
29662,1869
29663,1865
29664,1859
29665,1855
29666,1851
29667,1851
29668,1846
29669,1842
29670,1837
29671,1829
29672,1823
29673,1820
29674,1815
29675,1815
29676,1815
29677,1816
29678,1816
29679,1822
29680,1817
29681,1821
29682,1823
29683,1828
29684,1836
29685,1839
29686,1840
29687,1845
29688,1846
29689,1855
29690,1855
29691,1858
29692,1863
29693,1872
29694,1873
29695,1876
29696,1877
29697,1879
29698,1881
29699,1883
30100,1874
30101,1874
30102,1873
30103,1877
30104,1886
30105,1885
30106,1887
30107,1890
30108,1891
30109,1891
30110,1891
30111,1895
30112,1893
30113,1895
30114,1897
30115,1904
30116,1900
30117,1899
30118,1904
30119,1904
30120,1904
30121,1904
30122,1904
30123,1898
30124,1889
30125,1883
30126,1874
30127,1872
30128,1870
30129,1864
30130,1857
30131,1853
30132,1851
30133,1843
30134,1842
30135,1840
30136,1837
30137,1829
30138,1825
30139,1818
30140,1814
30141,1813
30142,1813
30143,1813
30144,1817
30145,1814
30146,1819
30147,1818
30148,1821
30149,1823
30150,1827
30151,1831
30152,1836
30153,1840
30154,1841
30155,1843
30156,1853
30157,1861
30158,1866
30159,1870
30160,1981
30161,2394
30162,286
30163,0
30164,0
30165,560
30166,1153
30167,1586
30168,1867
30169,2041
30170,2139
30171,2194
30172,2223
30173,2231
30174,2229
30175,2224
30176,2209
30177,2198
30178,2192
30179,2177
30180,2167
30181,2160
30182,2148
30183,2131
30184,2123
30185,2116
30186,2109
30187,2098
30188,2091
30189,2081
30190,2064
30191,2045
30192,2031
30193,2017
30194,2005
30195,1999
30196,1989
30197,1984
30198,1962
30199,1949
30700,1937
30701,1936
30702,1935
30703,1936
30704,1936
30705,1937
30706,1937
30707,1936
30708,1936
30709,1936
30710,1934
30711,1933
30712,1933
30713,1931
30714,1932
30715,1936
30716,1931
30717,1930
30718,1932
30719,1933
30720,1930
30721,1931
30722,1929
30723,1922
30724,1908
30725,1903
30726,1897
30727,1883
30728,1879
30729,1872
30730,1871
30731,1871
30732,1866
30733,1861
30734,1862
30735,1856
30736,1855
30737,1843
30738,1839
30739,1833
30740,1830
30741,1825
30742,1826
30743,1827
30744,1826
30745,1828
30746,1827
30747,1826
30748,1829
30749,1832
30750,1837
30751,1839
30752,1843
30753,1845
30754,1847
30755,1851
30756,1858
30757,1870
30758,1871
30759,1875
30760,1874
30761,1878
30762,1882
30763,1883
30764,1879
30765,1886
30766,1884
30767,1887
30768,1886
30769,1888
30770,1890
30771,1893
30772,1899
30773,1899
30774,1903
30775,1903
30776,1900
30777,1902
30778,1901
30779,1903
30780,2448
30781,1149
30782,0
30783,0
30784,265
30785,890
30786,1391
30787,1721
30788,1929
30789,2058
30790,2117
30791,2146
30792,2157
30793,2158
30794,2149
30795,2139
30796,2128
30797,2114
30798,2101
30799,2087
31200,1900
31201,1891
31202,1887
31203,1879
31204,1872
31205,1862
31206,1860
31207,1854
31208,1851
31209,1852
31210,1847
31211,1845
31212,1847
31213,1845
31214,1845
31215,1849
31216,1851
31217,1855
31218,1856
31219,1857
31220,1862
31221,1866
31222,1871
31223,1875
31224,1882
31225,1883
31226,1887
31227,1886
31228,1893
31229,1891
31230,1893
31231,1897
31232,1899
31233,1895
31234,1897
31235,1901
31236,1903
31237,1902
31238,1905
31239,1906
31240,1908
31241,1907
31242,1907
31243,1907
31244,1906
31245,1905
31246,1905
31247,1916
31248,1909
31249,1906
31250,1904
31251,1904
31252,1907
31253,1904
31254,1901
31255,1906
31256,1904
31257,1893
31258,1886
31259,1879
31260,1875
31261,1872
31262,1869
31263,1863
31264,1860
31265,1852
31266,1850
31267,1849
31268,1840
31269,1841
31270,1834
31271,1830
31272,1820
31273,1822
31274,1815
31275,1920
31276,2359
31277,260
31278,0
31279,0
31280,479
31281,1056
31282,1469
31283,1746
31284,1918
31285,2015
31286,2078
31287,2107
31288,2121
31289,2128
31290,2129
31291,2128
31292,2127
31293,2118
31294,2112
31295,2107
31296,2100
31297,2091
31298,2073
31299,2073
31700,1926
31701,1922
31702,1924
31703,1925
31704,1926
31705,1927
31706,1928
31707,1929
31708,1927
31709,1927
31710,1929
31711,1931
31712,1929
31713,1927
31714,1929
31715,1923
31716,1921
31717,1919
31718,1923
31719,1922
31720,1921
31721,1922
31722,1918
31723,1910
31724,1902
31725,1895
31726,1892
31727,1885
31728,1882
31729,1874
31730,1872
31731,1867
31732,1856
31733,1858
31734,1855
31735,1851
31736,1846
31737,1840
31738,1835
31739,1829
31740,1824
31741,1819
31742,1819
31743,1825
31744,1821
31745,1826
31746,1825
31747,1822
31748,1825
31749,1829
31750,1836
31751,1835
31752,1840
31753,1843
31754,1845
31755,1853
31756,1859
31757,1865
31758,1870
31759,1872
31760,1874
31761,1877
31762,1877
31763,1881
31764,1879
31765,1885
31766,1886
31767,1884
31768,1887
31769,1887
31770,1891
31771,2351
31772,1478
31773,0
31774,0
31775,171
31776,803
31777,1333
31778,1675
31779,1902
31780,2034
31781,2114
31782,2155
31783,2170
31784,2176
31785,2176
31786,2172
31787,2160
31788,2151
31789,2136
31790,2121
31791,2107
31792,2094
31793,2079
31794,2065
31795,2055
31796,2036
31797,2023
31798,2011
31799,1999
32200,1879
32201,1877
32202,1872
32203,1865
32204,1855
32205,1851
32206,1845
32207,1841
32208,1840
32209,1840
32210,1839
32211,1840
32212,1840
32213,1838
32214,1839
32215,1840
32216,1842
32217,1846
32218,1849
32219,1855
32220,1856
32221,1858
32222,1863
32223,1872
32224,1874
32225,1877
32226,1880
32227,1884
32228,1883
32229,1888
32230,1890
32231,1894
32232,1890
32233,1893
32234,1890
32235,1891
32236,1894
32237,1899
32238,1903
32239,1904
32240,1904
32241,1904
32242,1904
32243,1904
32244,1904
32245,1904
32246,1905
32247,1907
32248,1905
32249,1904
32250,1904
32251,1905
32252,1910
32253,1904
32254,1904
32255,1904
32256,1899
32257,1890
32258,1875
32259,1872
32260,1867
32261,1859
32262,1859
32263,1856
32264,1849
32265,1843
32266,1873
32267,2503
32268,470
32269,0
32270,0
32271,417
32272,1008
32273,1423
32274,1710
32275,1885
32276,1989
32277,2042
32278,2078
32279,2095
32280,2094
32281,2096
32282,2094
32283,2086
32284,2085
32285,2075
32286,2067
32287,2065
32288,2063
32289,2062
32290,2047
32291,2043
32292,2038
32293,2045
32294,2038
32295,2032
32296,2027
32297,2023
32298,2020
32299,2013
32800,1839
32801,1826
32802,1840
32803,1827
32804,1817
32805,1809
32806,1811
32807,1808
32808,1806
32809,1802
32810,1809
32811,1809
32812,1810
32813,1809
32814,1811
32815,1819
32816,1821
32817,1826
32818,1833
32819,1836
32820,1841
32821,1842
32822,1846
32823,1854
32824,1860
32825,1867
32826,1867
32827,1870
32828,1872
32829,1873
32830,1872
32831,1874
32832,1875
32833,1877
32834,1877
32835,1878
32836,1882
32837,1885
32838,1887
32839,1891
32840,1892
32841,1894
32842,1893
32843,1891
32844,1895
32845,1897
32846,1895
32847,1900
32848,1898
32849,1895
32850,1894
32851,1898
32852,1903
32853,1902
32854,1896
32855,1899
32856,1890
32857,1884
32858,1872
32859,1864
32860,1858
32861,1856
32862,1854
32863,1846
32864,1842
32865,1839
32866,1839
32867,1835
32868,1831
32869,1827
32870,1818
32871,1812
32872,1808
32873,1808
32874,1806
32875,1807
32876,1806
32877,1808
32878,1808
32879,1808
32880,1808
32881,1810
32882,1811
32883,1823
32884,1824
32885,1834
32886,1835
32887,1840
32888,1845
32889,1851
32890,1858
32891,1863
32892,1869
32893,1872
32894,1872
32895,1873
32896,1875
32897,1875
32898,1875
32899,1882
33300,1882
33301,1884
33302,1886
33303,1888
33304,1891
33305,1895
33306,1897
33307,1898
33308,1900
33309,1900
33310,1901
33311,1904
33312,1903
33313,1904
33314,1906
33315,1903
33316,1899
33317,1903
33318,1905
33319,1904
33320,1897
33321,1897
33322,1895
33323,1887
33324,1879
33325,1872
33326,1870
33327,1861
33328,1860
33329,1855
33330,1854
33331,1844
33332,1840
33333,1840
33334,1840
33335,1834
33336,1826
33337,1821
33338,1813
33339,1810
33340,1808
33341,1808
33342,1808
33343,1808
33344,1809
33345,1808
33346,1810
33347,1811
33348,1814
33349,1819
33350,1824
33351,1828
33352,1829
33353,1839
33354,1840
33355,1843
33356,1851
33357,1858
33358,1859
33359,1863
33360,1865
33361,1866
33362,1869
33363,1875
33364,1879
33365,1881
33366,1882
33367,1878
33368,1880
33369,1883
33370,1888
33371,1889
33372,1895
33373,1899
33374,1898
33375,1897
33376,1901
33377,1901
33378,1901
33379,1902
33380,1904
33381,1903
33382,1901
33383,1899
33384,1902
33385,1904
33386,1905
33387,1904
33388,1905
33389,1897
33390,1890
33391,1881
33392,1875
33393,1872
33394,1866
33395,1866
33396,1859
33397,1855
33398,1847
33399,1845
33800,1845
33801,1840
33802,1839
33803,1831
33804,1824
33805,1819
33806,1814
33807,1813
33808,1813
33809,1811
33810,1813
33811,1819
33812,1818
33813,1820
33814,1819
33815,1825
33816,1829
33817,1835
33818,1827
33819,1831
33820,1837
33821,1840
33822,1846
33823,1854
33824,1857
33825,1858
33826,1859
33827,1868
33828,1869
33829,1870
33830,1872
33831,1872
33832,1872
33833,1874
33834,1872
33835,1883
33836,1888
33837,1891
33838,1893
33839,1895
33840,1898
33841,1898
33842,1899
33843,1899
33844,1903
33845,1901
33846,1903
33847,1902
33848,1904
33849,1902
33850,1901
33851,1904
33852,1904
33853,1904
33854,1903
33855,1903
33856,1895
33857,1886
33858,1879
33859,1872
33860,1867
33861,1868
33862,1862
33863,1856
33864,1853
33865,1847
33866,1845
33867,1841
33868,1840
33869,1837
33870,1830
33871,1825
33872,1821
33873,1815
33874,1813
33875,1813
33876,1813
33877,1812
33878,1814
33879,1813
33880,1813
33881,1819
33882,1825
33883,1827
33884,1833
33885,1839
33886,1841
33887,1843
33888,1847
33889,1856
33890,1862
33891,1867
33892,1872
33893,1872
33894,1872
33895,1873
33896,1875
33897,1875
33898,1882
33899,1882
34300,1875
34301,1877
34302,1882
34303,1883
34304,1884
34305,1889
34306,1889
34307,1891
34308,1889
34309,1894
34310,1891
34311,1891
34312,1894
34313,1899
34314,1897
34315,1902
34316,1901
34317,1902
34318,1903
34319,1904
34320,1903
34321,1902
34322,1898
34323,1889
34324,1882
34325,1876
34326,1872
34327,1871
34328,1863
34329,1858
34330,1855
34331,1853
34332,1846
34333,1847
34334,1841
34335,1840
34336,1834
34337,1824
34338,1819
34339,1817
34340,1813
34341,1812
34342,1811
34343,1808
34344,1808
34345,1811
34346,1814
34347,1815
34348,1822
34349,1827
34350,1826
34351,1833
34352,1840
34353,1842
34354,1843
34355,1850
34356,1854
34357,1861
34358,1866
34359,1869
34360,1872
34361,1872
34362,1872
34363,1875
34364,1877
34365,1881
34366,1881
34367,1883
34368,1882
34369,1887
34370,1891
34371,1893
34372,1894
34373,1894
34374,1899
34375,1897
34376,1898
34377,1899
34378,1900
34379,1902
34380,1903
34381,1903
34382,1900
34383,1901
34384,1899
34385,1905
34386,1904
34387,1904
34388,1904
34389,1898
34390,1888
34391,1883
34392,1874
34393,1872
34394,1869
34395,1867
34396,1858
34397,1856
34398,1849
34399,1842
34800,1842
34801,1840
34802,1839
34803,1829
34804,1823
34805,1815
34806,1815
34807,1810
34808,1811
34809,1812
34810,1812
34811,1814
34812,1813
34813,1817
34814,1820
34815,1823
34816,1826
34817,1834
34818,1837
34819,1840
34820,1841
34821,1845
34822,1855
34823,1858
34824,1866
34825,1869
34826,1872
34827,1872
34828,1875
34829,1875
34830,1875
34831,1881
34832,1879
34833,1882
34834,1883
34835,1887
34836,1888
34837,1893
34838,1892
34839,1895
34840,1895
34841,1897
34842,1895
34843,1898
34844,1899
34845,1904
34846,1902
34847,1904
34848,1902
34849,1901
34850,1903
34851,1891
34852,1904
34853,1904
34854,1904
34855,1903
34856,1893
34857,1884
34858,1875
34859,1870
34860,1867
34861,1866
34862,1862
34863,1855
34864,1851
34865,1844
34866,1847
34867,1842
34868,1840
34869,1835
34870,1827
34871,1821
34872,1814
34873,1813
34874,1810
34875,1813
34876,1814
34877,1815
34878,1819
34879,1813
34880,1815
34881,1822
34882,1825
34883,1829
34884,1834
34885,1838
34886,1840
34887,1845
34888,1851
34889,1856
34890,1866
34891,1870
34892,1869
34893,1871
34894,1873
34895,1875
34896,1875
34897,1877
34898,1875
34899,1875
35300,1879
35301,1879
35302,1880
35303,1885
35304,1893
35305,1888
35306,1892
35307,1895
35308,1899
35309,1897
35310,1899
35311,1901
35312,1899
35313,1903
35314,1900
35315,1902
35316,1894
35317,1899
35318,1903
35319,1904
35320,1902
35321,1903
35322,1898
35323,1888
35324,1879
35325,1873
35326,1872
35327,1869
35328,1861
35329,1860
35330,1856
35331,1847
35332,1846
35333,1840
35334,1840
35335,1834
35336,1827
35337,1818
35338,1818
35339,1817
35340,1811
35341,1814
35342,1811
35343,1817
35344,1818
35345,1818
35346,1815
35347,1819
35348,1824
35349,1828
35350,1831
35351,1835
35352,1840
35353,1842
35354,1847
35355,1853
35356,1860
35357,1862
35358,1869
35359,1871
35360,1872
35361,1873
35362,1874
35363,1877
35364,1879
35365,1881
35366,1883
35367,1883
35368,1886
35369,1885
35370,1886
35371,1885
35372,1889
35373,1889
35374,1890
35375,1889
35376,1891
35377,1891
35378,1893
35379,1897
35380,1894
35381,1897
35382,1892
35383,1891
35384,1895
35385,1899
35386,1900
35387,1894
35388,1893
35389,1889
35390,1879
35391,1873
35392,1867
35393,1863
35394,1859
35395,1856
35396,1854
35397,1844
35398,1840
35399,1840
35800,1842
35801,1841
35802,1837
35803,1829
35804,1824
35805,1820
35806,1813
35807,1814
35808,1814
35809,1811
35810,1814
35811,1815
35812,1815
35813,1815
35814,1822
35815,1826
35816,1829
35817,1833
35818,1837
35819,1840
35820,1846
35821,1850
35822,1856
35823,1859
35824,1865
35825,1872
35826,1873
35827,1875
35828,1877
35829,1875
35830,1879
35831,1883
35832,1881
35833,1882
35834,1881
35835,1883
35836,1885
35837,1891
35838,1893
35839,1895
35840,1899
35841,1901
35842,1901
35843,1899
35844,1904
35845,1903
35846,1903
35847,1904
35848,1902
35849,1899
35850,1903
35851,1904
35852,1904
35853,1905
35854,1904
35855,1895
35856,1883
35857,1877
35858,1872
35859,1868
35860,1862
35861,1860
35862,1856
35863,1847
35864,1841
35865,1842
35866,1840
35867,1838
35868,1836
35869,1824
35870,1818
35871,1811
35872,1808
35873,1808
35874,1808
35875,1812
35876,1815
35877,1815
35878,1813
35879,1815
35880,1821
35881,1822
35882,1826
35883,1827
35884,1833
35885,1832
35886,1833
35887,1839
35888,1842
35889,1854
35890,1862
35891,1869
35892,1871
35893,1872
35894,1872
35895,1874
35896,1874
35897,1881
35898,1881
35899,1878
36400,1841
36401,1840
36402,1832
36403,1824
36404,1823
36405,1818
36406,1815
36407,1813
36408,1814
36409,1811
36410,1810
36411,1808
36412,1809
36413,1808
36414,1822
36415,1826
36416,1828
36417,1834
36418,1835
36419,1840
36420,1843
36421,1850
36422,1856
36423,1863
36424,1866
36425,1872
36426,1872
36427,1872
36428,1875
36429,1876
36430,1878
36431,1881
36432,1881
36433,1885
36434,1883
36435,1885
36436,1890
36437,1891
36438,1895
36439,1895
36440,1897
36441,1902
36442,1899
36443,1901
36444,1899
36445,1901
36446,1902
36447,1903
36448,1899
36449,1898
36450,1903
36451,1904
36452,1906
36453,1903
36454,1903
36455,1882
36456,1881
36457,1874
36458,1872
36459,1870
36460,1861
36461,1859
36462,1856
36463,1851
36464,1842
36465,1840
36466,1840
36467,1835
36468,1833
36469,1825
36470,1819
36471,1813
36472,1808
36473,1808
36474,1808
36475,1808
36476,1810
36477,1808
36478,1810
36479,1810
36480,1808
36481,1812
36482,1817
36483,1830
36484,1833
36485,1838
36486,1840
36487,1843
36488,1851
36489,1856
36490,1862
36491,1867
36492,1872
36493,1872
36494,1874
36495,1874
36496,1874
36497,1877
36498,1878
36499,1879
36900,1932
36901,1930
36902,1933
36903,1933
36904,1932
36905,1933
36906,1931
36907,1936
36908,1930
36909,1929
36910,1929
36911,1930
36912,1928
36913,1930
36914,1927
36915,1921
36916,1923
36917,1921
36918,1926
36919,1922
36920,1920
36921,1918
36922,1910
36923,1904
36924,1897
36925,1892
36926,1879
36927,1884
36928,1875
36929,1872
36930,1867
36931,1863
36932,1858
36933,1856
36934,1849
36935,1843
36936,1831
36937,1829
36938,1822
36939,1819
36940,1817
36941,1814
36942,1817
36943,1815
36944,1814
36945,1817
36946,1814
36947,1817
36948,1822
36949,1825
36950,1827
36951,1831
36952,1837
36953,1838
36954,1842
36955,1851
36956,1857
36957,1863
36958,1867
36959,1870
36960,1871
36961,1871
36962,1872
36963,1882
36964,1883
36965,1886
36966,1886
36967,1885
36968,1886
36969,1890
36970,1891
36971,1897
36972,2164
36973,2032
36974,48
36975,0
36976,49
36977,682
36978,1232
36979,1618
36980,1867
36981,2015
36982,2103
36983,2148
36984,2173
36985,2180
36986,2183
36987,2174
36988,2164
36989,2146
36990,2131
36991,2118
36992,2100
36993,2091
36994,2075
36995,2064
36996,2053
36997,2034
36998,2021
36999,2015
37400,1884
37401,1875
37402,1872
37403,1863
37404,1855
37405,1854
37406,1846
37407,1846
37408,1843
37409,1845
37410,1840
37411,1841
37412,1840
37413,1840
37414,1845
37415,1840
37416,1841
37417,1846
37418,1847
37419,1854
37420,1855
37421,1859
37422,1868
37423,1872
37424,1873
37425,1877
37426,1878
37427,1879
37428,1882
37429,1883
37430,1884
37431,1883
37432,1885
37433,1885
37434,1888
37435,1895
37436,1902
37437,1903
37438,1904
37439,1906
37440,1906
37441,1904
37442,1904
37443,1905
37444,1905
37445,1906
37446,1903
37447,1906
37448,1905
37449,1904
37450,1903
37451,1904
37452,1904
37453,1907
37454,1904
37455,1903
37456,1891
37457,1886
37458,1882
37459,1873
37460,1872
37461,1869
37462,1863
37463,1857
37464,1853
37465,1847
37466,1847
37467,1842
37468,2478
37469,880
37470,0
37471,0
37472,254
37473,849
37474,1328
37475,1648
37476,1849
37477,1969
37478,2035
37479,2075
37480,2096
37481,2101
37482,2103
37483,2100
37484,2096
37485,2094
37486,2087
37487,2079
37488,2077
37489,2078
37490,2070
37491,2066
37492,2064
37493,2059
37494,2054
37495,2047
37496,2039
37497,2032
37498,2032
37499,2028
37900,1921
37901,1918
37902,1924
37903,1924
37904,1926
37905,1927
37906,1928
37907,1926
37908,1929
37909,1925
37910,1928
37911,1924
37912,1926
37913,1925
37914,1923
37915,1926
37916,1927
37917,1931
37918,1931
37919,1929
37920,1925
37921,1924
37922,1915
37923,1908
37924,1901
37925,1893
37926,1886
37927,1883
37928,1878
37929,1872
37930,1866
37931,1865
37932,1857
37933,1856
37934,1853
37935,1845
37936,1839
37937,1831
37938,1831
37939,1824
37940,1825
37941,1820
37942,1819
37943,1819
37944,1821
37945,1821
37946,1819
37947,1823
37948,1830
37949,1830
37950,1833
37951,1838
37952,1840
37953,1842
37954,1850
37955,1856
37956,1861
37957,1863
37958,1869
37959,1871
37960,1868
37961,1871
37962,1872
37963,2032
37964,2267
37965,87
37966,0
37967,0
37968,576
37969,1136
37970,1535
37971,1822
37972,1983
37973,2086
37974,2133
37975,2161
37976,2167
37977,2169
37978,2163
37979,2157
37980,2151
37981,2135
37982,2126
37983,2117
37984,2112
37985,2105
37986,2096
37987,2090
37988,2074
37989,2059
37990,2041
37991,2031
37992,2018
37993,2005
37994,2000
37995,1989
37996,1979
37997,1968
37998,1962
37999,1955
38400,1867
38401,1862
38402,1856
38403,1852
38404,1841
38405,1840
38406,1835
38407,1834
38408,1836
38409,1834
38410,1837
38411,1829
38412,1831
38413,1837
38414,1839
38415,1840
38416,1840
38417,1843
38418,1850
38419,1854
38420,1857
38421,1859
38422,1869
38423,1873
38424,1875
38425,1879
38426,1880
38427,1883
38428,1885
38429,1884
38430,1887
38431,1889
38432,1888
38433,1891
38434,1889
38435,1895
38436,1895
38437,1899
38438,1901
38439,1902
38440,1904
38441,1903
38442,1904
38443,1904
38444,1904
38445,1904
38446,1904
38447,1904
38448,1905
38449,1904
38450,1905
38451,1906
38452,1905
38453,1906
38454,1903
38455,1897
38456,1889
38457,1883
38458,1875
38459,2443
38460,1082
38461,0
38462,0
38463,238
38464,846
38465,1335
38466,1664
38467,1869
38468,1984
38469,2054
38470,2083
38471,2096
38472,2099
38473,2096
38474,2087
38475,2080
38476,2074
38477,2064
38478,2057
38479,2039
38480,2035
38481,2033
38482,2027
38483,2015
38484,2011
38485,2004
38486,2002
38487,2000
38488,2000
38489,2000
38490,1999
38491,1999
38492,1993
38493,1995
38494,1990
38495,1984
38496,1983
38497,1973
38498,1967
38499,1956
38900,1906
38901,1906
38902,1907
38903,1911
38904,1909
38905,1913
38906,1913
38907,1914
38908,1915
38909,1914
38910,1914
38911,1914
38912,1917
38913,1915
38914,1915
38915,1909
38916,1912
38917,1915
38918,1914
38919,1918
38920,1910
38921,1911
38922,1902
38923,1893
38924,1887
38925,1879
38926,1873
38927,1873
38928,1870
38929,1862
38930,1856
38931,1855
38932,1849
38933,1847
38934,1843
38935,1841
38936,1831
38937,1829
38938,1819
38939,1821
38940,1822
38941,1819
38942,1820
38943,1821
38944,1823
38945,1817
38946,1819
38947,1824
38948,1828
38949,1829
38950,1835
38951,1839
38952,1841
38953,1846
38954,1949
38955,2402
38956,305
38957,0
38958,0
38959,511
38960,1091
38961,1517
38962,1795
38963,1970
38964,2071
38965,2127
38966,2154
38967,2167
38968,2165
38969,2169
38970,2163
38971,2160
38972,2149
38973,2141
38974,2133
38975,2113
38976,2110
38977,2098
38978,2095
38979,2093
38980,2082
38981,2071
38982,2061
38983,2058
38984,2047
38985,2042
38986,2033
38987,2029
38988,2019
38989,2000
38990,1990
38991,1983
38992,1969
38993,1955
38994,1946
38995,1937
38996,1929
38997,1919
38998,1910
38999,1907
39400,1841
39401,1838
39402,1833
39403,1823
39404,1819
39405,1815
39406,1814
39407,1814
39408,1811
39409,1815
39410,1814
39411,1815
39412,1813
39413,1815
39414,1821
39415,1824
39416,1831
39417,1834
39418,1840
39419,1840
39420,1846
39421,1853
39422,1858
39423,1869
39424,1867
39425,1872
39426,1872
39427,1872
39428,1875
39429,1877
39430,1881
39431,1881
39432,1879
39433,1884
39434,1881
39435,1889
39436,1887
39437,1895
39438,1893
39439,1901
39440,1894
39441,1898
39442,1898
39443,1898
39444,1898
39445,1902
39446,1904
39447,1903
39448,1900
39449,1902
39450,1904
39451,1904
39452,1903
39453,1902
39454,1904
39455,1889
39456,1879
39457,1875
39458,1870
39459,1865
39460,1859
39461,1857
39462,1850
39463,1843
39464,1839
39465,1839
39466,1840
39467,1836
39468,1827
39469,1822
39470,1814
39471,1809
39472,1808
39473,1808
39474,1808
39475,1816
39476,1813
39477,1815
39478,1818
39479,1815
39480,1819
39481,1823
39482,1828
39483,1831
39484,1837
39485,1840
39486,1843
39487,1850
39488,1855
39489,1863
39490,1866
39491,1871
39492,1872
39493,1873
39494,1874
39495,1875
39496,1877
39497,1884
39498,1879
39499,1883
40000,1841
40001,1838
40002,1831
40003,1824
40004,1821
40005,1816
40006,1813
40007,1815
40008,1815
40009,1814
40010,1821
40011,1807
40012,1815
40013,1825
40014,1827
40015,1825
40016,1825
40017,1831
40018,1844
40019,1842
40020,1847
40021,1854
40022,1858
40023,1867
40024,1869
40025,1871
40026,1872
40027,1872
40028,1875
40029,1875
40030,1879
40031,1883
40032,1879
40033,1883
40034,1886
40035,1889
40036,1890
40037,1893
40038,1897
40039,1898
40040,1898
40041,1898
40042,1901
40043,1901
40044,1901
40045,1902
40046,1904
40047,1901
40048,1896
40049,1901
40050,1903
40051,1904
40052,1904
40053,1904
40054,1902
40055,1890
40056,1879
40057,1872
40058,1867
40059,1863
40060,1861
40061,1857
40062,1851
40063,1847
40064,1840
40065,1841
40066,1839
40067,1835
40068,1830
40069,1822
40070,1815
40071,1812
40072,1809
40073,1808
40074,1808
40075,1808
40076,1810
40077,1808
40078,1811
40079,1808
40080,1815
40081,1818
40082,1822
40083,1832
40084,1835
40085,1839
40086,1842
40087,1843
40088,1855
40089,1859
40090,1867
40091,1871
40092,1872
40093,1872
40094,1873
40095,1875
40096,1877
40097,1881
40098,1881
40099,1883
40500,1883
40501,1887
40502,1887
40503,1890
40504,1894
40505,1894
40506,1898
40507,1898
40508,1899
40509,1898
40510,1899
40511,1902
40512,1903
40513,1903
40514,1903
40515,1898
40516,1902
40517,1904
40518,1904
40519,1904
40520,1903
40521,1899
40522,1890
40523,1882
40524,1873
40525,1872
40526,1869
40527,1866
40528,1856
40529,1853
40530,1847
40531,1840
40532,1839
40533,1835
40534,1834
40535,1828
40536,1817
40537,1815
40538,1809
40539,1807
40540,1808
40541,1808
40542,1808
40543,1808
40544,1810
40545,1809
40546,1808
40547,1817
40548,1820
40549,1822
40550,1829
40551,1834
40552,1834
40553,1840
40554,1847
40555,1853
40556,1857
40557,1865
40558,1864
40559,1868
40560,1866
40561,1871
40562,1871
40563,1877
40564,1879
40565,1884
40566,1884
40567,1883
40568,1882
40569,1890
40570,1893
40571,1893
40572,1895
40573,1898
40574,1899
40575,1898
40576,1900
40577,1899
40578,1904
40579,1901
40580,1904
40581,1900
40582,1899
40583,1904
40584,1904
40585,1904
40586,1903
40587,1902
40588,1895
40589,1886
40590,1877
40591,1875
40592,1872
40593,1867
40594,1863
40595,1856
40596,1853
40597,1850
40598,1847
40599,1843
41000,1830
41001,1826
41002,1821
41003,1811
41004,1808
41005,1808
41006,1808
41007,1808
41008,1808
41009,1808
41010,1808
41011,1811
41012,1809
41013,1815
41014,1821
41015,1818
41016,1821
41017,1825
41018,1830
41019,1836
41020,1840
41021,1845
41022,1854
41023,1859
41024,1861
41025,1863
41026,1870
41027,1869
41028,1870
41029,1872
41030,1874
41031,1877
41032,1877
41033,1875
41034,1878
41035,1884
41036,1893
41037,1894
41038,1897
41039,1898
41040,1893
41041,1895
41042,1893
41043,1904
41044,1902
41045,1904
41046,1904
41047,1904
41048,1901
41049,1903
41050,1904
41051,1904
41052,1904
41053,1906
41054,1904
41055,1898
41056,1888
41057,1879
41058,1875
41059,1871
41060,1865
41061,1863
41062,1858
41063,1854
41064,1846
41065,1844
41066,1842
41067,1839
41068,1834
41069,1827
41070,1823
41071,1819
41072,1813
41073,1814
41074,1809
41075,1811
41076,1811
41077,1812
41078,1817
41079,1812
41080,1819
41081,1826
41082,1831
41083,1834
41084,1840
41085,1840
41086,1843
41087,1850
41088,1855
41089,1861
41090,1866
41091,1866
41092,1872
41093,1872
41094,1874
41095,1879
41096,1878
41097,1879
41098,1883
41099,1878
41500,1876
41501,1878
41502,1884
41503,1885
41504,1888
41505,1890
41506,1890
41507,1891
41508,1893
41509,1891
41510,1894
41511,1894
41512,1897
41513,1899
41514,1893
41515,1900
41516,1902
41517,1904
41518,1904
41519,1902
41520,1902
41521,1899
41522,1889
41523,1885
41524,1875
41525,1872
41526,1867
41527,1862
41528,1859
41529,1856
41530,1845
41531,1845
41532,1843
41533,1840
41534,1839
41535,1836
41536,1825
41537,1820
41538,1815
41539,1815
41540,1813
41541,1814
41542,1813
41543,1814
41544,1815
41545,1814
41546,1818
41547,1825
41548,1827
41549,1833
41550,1835
41551,1840
41552,1841
41553,1843
41554,1854
41555,1862
41556,1868
41557,1868
41558,1872
41559,1872
41560,1874
41561,1873
41562,1878
41563,1873
41564,1873
41565,1878
41566,1881
41567,1881
41568,1887
41569,1888
41570,1893
41571,1893
41572,1898
41573,1899
41574,1899
41575,1900
41576,1902
41577,1901
41578,1903
41579,1904
41580,1903
41581,1900
41582,1900
41583,1901
41584,1904
41585,1903
41586,1903
41587,1903
41588,1895
41589,1886
41590,1879
41591,1872
41592,1870
41593,1869
41594,1862
41595,1858
41596,1851
41597,1846
41598,1845
41599,1842
42000,1840
42001,1836
42002,1830
42003,1823
42004,1815
42005,1814
42006,1811
42007,1813
42008,1812
42009,1814
42010,1815
42011,1814
42012,1817
42013,1823
42014,1823
42015,1829
42016,1834
42017,1837
42018,1840
42019,1842
42020,1847
42021,1855
42022,1861
42023,1867
42024,1871
42025,1871
42026,1872
42027,1875
42028,1875
42029,1878
42030,1878
42031,1879
42032,1881
42033,1879
42034,1882
42035,1884
42036,1889
42037,1894
42038,1897
42039,1898
42040,1895
42041,1895
42042,1895
42043,1901
42044,1899
42045,1902
42046,1902
42047,1900
42048,1901
42049,1901
42050,1900
42051,1904
42052,1903
42053,1901
42054,1899
42055,1894
42056,1885
42057,1874
42058,1872
42059,1870
42060,1866
42061,1858
42062,1856
42063,1852
42064,1849
42065,1843
42066,1841
42067,1839
42068,1831
42069,1826
42070,1817
42071,1818
42072,1811
42073,1811
42074,1811
42075,1814
42076,1805
42077,1818
42078,1818
42079,1818
42080,1821
42081,1827
42082,1830
42083,1830
42084,1831
42085,1829
42086,1839
42087,1840
42088,1852
42089,1856
42090,1863
42091,1863
42092,1863
42093,1867
42094,1868
42095,1872
42096,1872
42097,1872
42098,1872
42099,1874
42500,1882
42501,1883
42502,1888
42503,1891
42504,1893
42505,1895
42506,1895
42507,1900
42508,1895
42509,1902
42510,1898
42511,1902
42512,1904
42513,1901
42514,1898
42515,1900
42516,1903
42517,1904
42518,1904
42519,1901
42520,1904
42521,1897
42522,1887
42523,1879
42524,1874
42525,1870
42526,1869
42527,1863
42528,1859
42529,1854
42530,1849
42531,1843
42532,1846
42533,1840
42534,1836
42535,1829
42536,1825
42537,1819
42538,1817
42539,1813
42540,1812
42541,1811
42542,1813
42543,1817
42544,1813
42545,1815
42546,1815
42547,1825
42548,1826
42549,1830
42550,1835
42551,1840
42552,1843
42553,1846
42554,1854
42555,1857
42556,1867
42557,1867
42558,1875
42559,1872
42560,1873
42561,1874
42562,1879
42563,1878
42564,1882
42565,1878
42566,1886
42567,1884
42568,1887
42569,1891
42570,1892
42571,1892
42572,1898
42573,1899
42574,1898
42575,1890
42576,1895
42577,1891
42578,1894
42579,1898
42580,1891
42581,1891
42582,1891
42583,1897
42584,1898
42585,1894
42586,1897
42587,1895
42588,1886
42589,1879
42590,1874
42591,1868
42592,1863
42593,1858
42594,1855
42595,1852
42596,1849
42597,1845
42598,1845
42599,1841
43100,1919
43101,1920
43102,1921
43103,1922
43104,1921
43105,1923
43106,1918
43107,1918
43108,1916
43109,1919
43110,1918
43111,1921
43112,1920
43113,1920
43114,1917
43115,1914
43116,1915
43117,1915
43118,1914
43119,1915
43120,1912
43121,1905
43122,1895
43123,1889
43124,1883
43125,1879
43126,1872
43127,1872
43128,1862
43129,1858
43130,1855
43131,1853
43132,1846
43133,1847
43134,1840
43135,1839
43136,1826
43137,1824
43138,1819
43139,1818
43140,1820
43141,1815
43142,1819
43143,1818
43144,1819
43145,1817
43146,1820
43147,1823
43148,1827
43149,1831
43150,1837
43151,1840
43152,1840
43153,1847
43154,1853
43155,1859
43156,1865
43157,1867
43158,1871
43159,1872
43160,1871
43161,1872
43162,1871
43163,1872
43164,1888
43165,2559
43166,642
43167,0
43168,0
43169,437
43170,1041
43171,1489
43172,1789
43173,1971
43174,2080
43175,2138
43176,2160
43177,2173
43178,2176
43179,2173
43180,2162
43181,2153
43182,2142
43183,2129
43184,2128
43185,2118
43186,2110
43187,2097
43188,2083
43189,2066
43190,2055
43191,2039
43192,2026
43193,2015
43194,2002
43195,1995
43196,1980
43197,1971
43198,1967
43199,1960
43600,1871
43601,1860
43602,1854
43603,1846
43604,1840
43605,1840
43606,1839
43607,1837
43608,1837
43609,1835
43610,1835
43611,1835
43612,1836
43613,1838
43614,1841
43615,1847
43616,1842
43617,1851
43618,1853
43619,1855
43620,1861
43621,1858
43622,1865
43623,1872
43624,1879
43625,1883
43626,1884
43627,1884
43628,1883
43629,1888
43630,1890
43631,1889
43632,1891
43633,1890
43634,1893
43635,1899
43636,1901
43637,1902
43638,1904
43639,1904
43640,1904
43641,1904
43642,1905
43643,1904
43644,1904
43645,1905
43646,1904
43647,1903
43648,1903
43649,1903
43650,1906
43651,1904
43652,1905
43653,1904
43654,1902
43655,1891
43656,1879
43657,1872
43658,1867
43659,1866
43660,2155
43661,1926
43662,0
43663,0
43664,109
43665,747
43666,1249
43667,1602
43668,1817
43669,1945
43670,2016
43671,2054
43672,2074
43673,2076
43674,2077
43675,2075
43676,2066
43677,2063
43678,2055
43679,2038
43680,2038
43681,2033
43682,2028
43683,2026
43684,2021
43685,2016
43686,2009
43687,2011
43688,2011
43689,2011
43690,2009
43691,2006
43692,2001
43693,2000
43694,1994
43695,1990
43696,1988
43697,1987
43698,1978
43699,1968
44100,1907
44101,1909
44102,1913
44103,1915
44104,1918
44105,1918
44106,1917
44107,1914
44108,1917
44109,1917
44110,1911
44111,1918
44112,1917
44113,1914
44114,1910
44115,1910
44116,1914
44117,1914
44118,1913
44119,1913
44120,1908
44121,1902
44122,1897
44123,1889
44124,1883
44125,1877
44126,1872
44127,1872
44128,1862
44129,1858
44130,1856
44131,1854
44132,1849
44133,1846
44134,1844
44135,1835
44136,1820
44137,1821
44138,1809
44139,1811
44140,1809
44141,1810
44142,1809
44143,1808
44144,1809
44145,1809
44146,1811
44147,1819
44148,1821
44149,1826
44150,1829
44151,1837
44152,1839
44153,1840
44154,1846
44155,1856
44156,2539
44157,828
44158,0
44159,0
44160,349
44161,961
44162,1424
44163,1749
44164,1936
44165,2047
44166,2113
44167,2149
44168,2164
44169,2170
44170,2167
44171,2161
44172,2155
44173,2150
44174,2141
44175,2133
44176,2127
44177,2115
44178,2111
44179,2101
44180,2095
44181,2082
44182,2075
44183,2071
44184,2064
44185,2062
44186,2053
44187,2038
44188,2029
44189,2014
44190,2001
44191,1993
44192,1984
44193,1973
44194,1962
44195,1943
44196,1930
44197,1921
44198,1917
44199,1907
44600,1859
44601,1851
44602,1843
44603,1840
44604,1837
44605,1834
44606,1832
44607,1830
44608,1832
44609,1830
44610,1830
44611,1829
44612,1829
44613,1836
44614,1836
44615,1840
44616,1840
44617,1840
44618,1844
44619,1846
44620,1854
44621,1859
44622,1865
44623,1871
44624,1872
44625,1872
44626,1872
44627,1873
44628,1878
44629,1878
44630,1881
44631,1879
44632,1881
44633,1879
44634,1884
44635,1888
44636,1899
44637,1902
44638,1899
44639,1902
44640,1903
44641,1904
44642,1904
44643,1904
44644,1908
44645,1904
44646,1904
44647,1904
44648,1904
44649,1905
44650,1907
44651,2087
44652,2224
44653,162
44654,0
44655,0
44656,602
44657,1163
44658,1558
44659,1810
44660,1968
44661,2061
44662,2103
44663,2125
44664,2128
44665,2128
44666,2121
44667,2109
44668,2093
44669,2081
44670,2064
44671,2054
44672,2038
44673,2029
44674,2021
44675,2011
44676,2000
44677,1997
44678,1986
44679,1984
44680,1982
44681,1982
44682,1977
44683,1970
44684,1970
44685,1968
44686,1968
44687,1968
44688,1974
44689,1967
44690,1962
44691,1956
44692,1951
44693,1945
44694,1943
44695,1941
44696,1938
44697,1939
44698,1938
44699,1936
45100,1895
45101,1899
45102,1903
45103,1904
45104,1904
45105,1903
45106,1904
45107,1903
45108,1904
45109,1904
45110,1904
45111,1904
45112,1907
45113,1904
45114,1901
45115,1893
45116,1910
45117,1911
45118,1910
45119,1906
45120,1909
45121,1903
45122,1892
45123,1886
45124,1879
45125,1874
45126,1872
45127,1871
45128,1863
45129,1857
45130,1851
45131,1850
45132,1847
45133,1846
45134,1840
45135,1833
45136,1826
45137,1823
45138,1822
45139,1815
45140,1818
45141,1819
45142,1814
45143,1818
45144,1821
45145,1815
45146,1823
45147,2401
45148,1154
45149,0
45150,0
45151,272
45152,867
45153,1362
45154,1680
45155,1905
45156,2014
45157,2092
45158,2128
45159,2147
45160,2153
45161,2154
45162,2147
45163,2137
45164,2128
45165,2122
45166,2126
45167,2112
45168,2106
45169,2098
45170,2096
45171,2091
45172,2083
45173,2074
45174,2067
45175,2064
45176,2058
45177,2047
45178,2040
45179,2037
45180,2031
45181,2023
45182,2021
45183,2021
45184,2010
45185,2000
45186,1988
45187,1979
45188,1963
45189,1952
45190,1939
45191,1936
45192,1927
45193,1921
45194,1914
45195,1906
45196,1903
45197,1895
45198,1891
45199,1887
45600,1840
45601,1833
45602,1824
45603,1821
45604,1819
45605,1818
45606,1813
45607,1813
45608,1815
45609,1814
45610,1815
45611,1814
45612,1819
45613,1818
45614,1825
45615,1829
45616,1831
45617,1839
45618,1840
45619,1842
45620,1849
45621,1857
45622,1858
45623,1868
45624,1870
45625,1868
45626,1872
45627,1871
45628,1872
45629,1873
45630,1874
45631,1876
45632,1873
45633,1878
45634,1878
45635,1882
45636,1888
45637,1889
