Time(ms),Raw_ADC
0,1903
1,1907
2,1916
3,1919
4,1903
5,1883
6,1875
7,1856
8,1850
9,1851
10,1862
11,1875
12,1891
13,1895
14,1899
15,1903
16,1904
17,1903
18,1907
19,1922
20,1916
21,1899
22,1879
23,1872
24,1847
25,1841
26,1847
27,1861
28,1872
29,1887
30,1887
31,1895
32,1901
33,1903
34,1903
35,1913
36,1920
37,1903
38,1888
39,1873
40,1862
41,1850
42,1847
43,1856
44,1870
45,1882
46,1892
47,1897
48,1897
49,1901
50,1903
51,1904
52,1919
53,1916
54,1895
55,1873
56,1863
57,1852
58,1839
59,1847
60,1861
61,1872
62,1882
63,1890
64,1898
65,1903
66,1904
67,1901
68,1906
69,1921
70,1906
71,1891
72,1875
73,1869
74,1850
75,1847
76,1846
77,1861
78,1872
79,1887
80,1893
81,1897
82,1898
83,1903
84,1895
85,1904
86,1914
87,1898
88,1888
89,1872
90,1863
91,1847
92,1850
93,1852
94,1870
95,1877
96,1889
97,1890
98,1892
99,1899
100,1901
101,1904
102,1914
103,1917
104,1895
105,1879
106,1870
107,1856
108,1844
109,1845
110,1850
111,1863
112,1877
113,1880
114,1886
115,1888
116,1895
117,1893
118,1902
119,1910
120,1903
121,1882
122,1873
123,1863
124,1847
125,1847
126,1845
127,1858
128,1869
129,1381
130,1631
131,1979
132,2006
133,2000
134,1979
135,1990
136,2001
137,1981
138,1997
139,2026
140,2035
141,1959
142,1887
143,1887
144,1904
145,1917
146,1905
147,1882
148,1848
149,1808
150,1757
151,1738
152,1774
153,1808
154,1811
155,1818
156,1819
157,1808
158,1806
159,1819
160,1932
161,1509
162,1952
163,2002
164,2001
165,2000
166,2015
167,2025
168,2039
169,2063
170,2065
171,2044
172,1963
173,1936
174,1929
175,1918
176,1872
177,1822
178,1786
179,1733
180,1679
181,1686
182,1742
183,1787
184,1823
185,1851
186,1874
187,1872
188,1871
189,1868
190,1867
191,2407
192,1447
193,1919
194,2000
195,2022
196,2034
197,2059
198,2065
199,2033
200,2004
201,2026
202,2024
203,1971
204,1953
205,1957
206,1922
207,1840
208,1755
209,1689
210,1643
211,1662
212,1721
213,1777
214,1811
215,1837
216,1854
217,1867
218,1893
219,1919
220,1921
221,1907
222,2903
223,1293
224,1897
225,1995
226,2001
227,2023
228,2064
229,2078
230,2004
231,1968
232,2003
233,1984
234,1934
235,1965
236,1982
237,1915
238,1830
239,1751
240,1663
241,1618
242,1660
243,1715
244,1775
245,1810
246,1840
247,1856
248,1875
249,1899
250,1909
251,1917
252,1933
253,2214
254,1163
255,1904
256,2036
257,2034
258,2035
259,2087
260,2083
261,1981
262,1968
263,2002
264,1934
265,1876
266,1894
267,1907
268,1885
269,1861
270,1784
271,1695
272,1680
273,1718
274,1741
275,1755
276,1774
277,1807
278,1840
279,1873
280,1895
281,1908
282,1916
283,1921
284,1920
285,944
286,1910
287,2085
288,2093
289,2094
290,2129
291,2082
292,1959
293,1963
294,1989
295,1895
296,1850
297,1899
298,1904
299,1866
300,1826
301,1745
302,1711
303,1738
304,1763
305,1781
306,1787
307,1782
308,1792
309,1817
310,1845
311,1872
312,1894
313,1906
314,1911
315,1917
316,767
317,1847
318,2085
319,2137
320,2148
321,2179
322,2099
323,1969
324,1967
325,1957
326,1828
327,1827
328,1895
329,1898
330,1855
331,1787
332,1712
333,1689
334,1744
335,1805
336,1843
337,1840
338,1833
339,1829
340,1833
341,1829
342,1835
343,1840
344,1862
345,1888
346,1906
347,656
348,1778
349,2065
350,2117
351,2137
352,2209
353,2161
354,2013
355,2029
356,1989
357,1833
358,1814
359,1854
360,1845
361,1817
362,1770
363,1695
364,1687
365,1744
366,1780
367,1804
368,1814
369,1846
370,1870
371,1878
372,1881
373,1886
374,1878
375,1878
376,1883
377,1891
378,686
379,1695
380,2063
381,2145
382,2171
383,2231
384,2176
385,2070
386,2071
387,1969
388,1815
389,1827
390,1851
391,1815
392,1774
393,1691
394,1631
395,1654
396,1714
397,1762
398,1787
399,1808
400,1837
401,1866
402,1904
403,1925
404,1914
405,1905
406,1898
407,1881
408,1874
409,822
410,1631
411,2042
412,2166
413,2194
414,2253
415,2176
416,2039
417,2031
418,1907
419,1827
420,1877
421,1876
422,1847
423,1781
424,1657
425,1590
426,1627
427,1699
428,1745
429,1782
430,1811
431,1840
432,1873
433,1903
434,1906
435,1922
436,1943
437,1931
438,1915
439,1904
440,1789
441,1488
442,2023
443,2181
444,2221
445,2286
446,2215
447,2042
448,1980
449,1839
450,1782
451,1847
452,1883
453,1871
454,1779
455,1642
456,1586
457,1633
458,1683
459,1721
460,1749
461,1790
462,1840
463,1878
464,1904
465,1918
466,1925
467,1927
468,1933
469,1947
470,1941
471,2704
472,1395
473,2026
474,2192
475,2226
476,2279
477,2206
478,2058
479,1954
480,1807
481,1782
482,1856
483,1883
484,1846
485,1744
486,1633
487,1611
488,1671
489,1710
490,1734
491,1749
492,1778
493,1811
494,1855
495,1889
496,1916
497,1920
498,1922
499,1932
500,1935
501,1934
502,2818
503,1262
504,2027
505,2238
506,2279
507,2294
508,2189
509,2032
510,1931
511,1808
512,1808
513,1872
514,1880
515,1833
516,1699
517,1568
518,1574
519,1665
520,1741
521,1771
522,1793
523,1811
524,1825
525,1843
526,1866
527,1882
528,1902
529,1921
530,1929
531,1930
532,1932
533,2485
534,1126
535,2019
536,2320
537,2373
538,2378
539,2255
540,2095
541,1931
542,1805
543,1775
544,1806
545,1798
546,1741
547,1604
548,1521
549,1588
550,1671
551,1728
552,1775
553,1820
554,1840
555,1861
556,1873
557,1875
558,1877
559,1879
560,1893
561,1908
562,1920
563,1929
564,1925
565,855
566,1945
567,2288
568,2383
569,2416
570,2310
571,2175
572,2013
573,1860
574,1771
575,1769
576,1745
577,1677
578,1565
579,1500
580,1581
581,1667
582,1729
583,1774
584,1808
585,1856
586,1904
587,1919
588,1914
589,1908
590,1904
591,1891
592,1887
593,1888
594,1891
595,1901
596,746
597,1903
598,2275
599,2378
600,2401
601,2303
602,2195
603,2077
604,1899
605,1808
606,1799
607,1743
608,1639
609,1495
610,1436
611,1533
612,1649
613,1728
614,1783
615,1817
616,1859
617,1893
618,1914
619,1939
620,1943
621,1926
622,1911
623,1904
624,1885
625,1874
626,1874
627,580
628,1809
629,2237
630,2375
631,2404
632,2306
633,2203
634,2067
635,1911
636,1835
637,1819
638,1766
639,1655
640,1515
641,1450
642,1535
643,1630
644,1702
645,1748
646,1799
647,1845
648,1884
649,1913
650,1929
651,1936
652,1949
653,1959
654,1936
655,1921
656,1904
657,1885
658,549
659,1719
660,2166
661,2323
662,2368
663,2290
664,2210
665,2096
666,1930
667,1830
668,1818
669,1786
670,1692
671,1535
672,1456
673,1534
674,1622
675,1689
676,1741
677,1789
678,1840
679,1889
680,1915
681,1930
682,1937
683,1936
684,1927
685,1934
686,1947
687,1935
688,1915
689,693
690,1662
691,2128
692,2275
693,2314
694,2257
695,2191
696,2111
697,1945
698,1845
699,1833
700,1790
701,1694
702,1566
703,1497
704,1562
705,1648
706,1712
707,1745
708,1773
709,1808
710,1851
711,1886
712,1916
713,1926
714,1924
715,1925
716,1934
717,1931
718,1935
719,1941
720,1599
721,1521
722,2112
723,2304
724,2338
725,2285
726,2203
727,2085
728,1915
729,1829
730,1822
731,1782
732,1693
733,1568
734,1481
735,1557
736,1670
737,1734
738,1776
739,1795
740,1827
741,1845
742,1870
743,1883
744,1895
745,1909
746,1921
747,1926
748,1924
749,1921
750,1918
751,1916
752,1930
753,1933
754,1911
755,1894
756,1878
757,1867
758,1853
759,1848
760,1849
761,1863
762,1878
763,1881
764,1887
765,1881
766,1882
767,1879
768,1885
769,1899
770,1902
771,1882
772,1866
773,1856
774,1839
775,1830
776,1827
777,1838
778,1845
779,1870
780,1877
781,1875
782,1879
783,1879
784,1882
785,1887
786,1901
787,1893
788,1873
789,1858
790,1850
791,1838
792,1833
793,1832
794,1843
795,1855
796,1870
797,1872
798,1872
799,1876
800,1875
801,1876
802,1883
803,1898
804,1872
805,1856
806,1845
807,1836
808,1826
809,1826
810,1833
811,1847
812,1862
813,1874
814,1872
815,1878
816,1877
817,1872
818,1872
819,1888
820,1893
821,1872
822,1863
823,1851
824,1838
825,1830
826,1836
827,1842
828,1853
829,1859
830,1871
831,1872
832,1874
833,1876
834,1871
835,1879
836,1891
837,1882
838,1871
839,1854
840,1845
841,1831
842,1829
843,1833
844,1846
845,1855
846,1870
847,1872
848,1873
849,1875
850,1879
851,1876
852,1887
853,1900
854,1886
855,1867
856,1856
857,1843
858,1836
859,1831
860,1838
861,1850
862,1863
863,1871
864,1867
865,1867
866,1872
867,1872
868,1877
869,1893
870,1893
871,1877
872,1862
873,1853
874,1840
875,1836
876,1830
877,1843
878,1853
879,1868
880,1872
881,1872
882,1877
883,1879
884,1878
885,1885
886,1898
887,1889
888,1872
889,1857
890,1853
891,1835
892,1833
893,1829
894,1839
895,1852
896,1866
897,1867
898,1872
899,1875
900,1878
901,1877
902,1884
903,1898
904,1885
905,1867
906,1854
907,1842
908,1829
909,1830
910,1837
911,1847
912,1858
913,1871
914,1872
915,1872
916,1878
917,1875
918,1884
919,1892
920,1886
921,1871
922,1857
923,1843
924,1833
925,1825
926,1829
927,1838
928,1847
929,1861
930,1867
931,1868
932,1872
933,1881
934,1878
935,1881
936,1895
937,1890
938,1872
939,1856
940,1851
941,1839
942,1831
943,1834
944,1843
945,1856
946,1871
947,1871
948,1872
949,1874
950,1877
951,1878
952,1887
953,1897
954,1875
955,1861
956,1851
957,1840
958,1825
959,1831
960,1839
961,1851
962,1857
963,1869
964,1873
965,1873
966,1875
967,1875
968,1877
969,1892
970,1895
971,1875
972,1865
973,1856
974,1842
975,1833
976,1835
977,1840
978,1854
979,1866
980,1872
981,1873
982,1877
983,1879
984,1872
985,1877
986,1891
987,1885
988,1874
989,1861
990,1851
991,1839
992,1833
993,1834
994,1843
995,1856
996,1871
997,1872
998,1873
999,1877
1000,1878
1001,1879
1002,1886
1003,1898
1004,1874
1005,1872
1006,1857
1007,1847
1008,1836
1009,1835
1010,1840
1011,1851
1012,1861
1013,1871
1014,1869
1015,1867
1016,1870
1017,1872
1018,1874
1019,1894
1020,1897
1021,1877
1022,1865
1023,1855
1024,1840
1025,1835
1026,1835
1027,1840
1028,1856
1029,1867
1030,1872
1031,1873
1032,1873
1033,1879
1034,1879
1035,1885
1036,1898
1037,1894
1038,1876
1039,1859
1040,1855
1041,1841
1042,1837
1043,1837
1044,1840
1045,1851
1046,1863
1047,1869
1048,1870
1049,1872
1050,1874
1051,1872
1052,1887
1053,1901
1054,1884
1055,1872
1056,1860
1057,1848
1058,1839
1059,1835
1060,1839
1061,1849
1062,1860
1063,1873
1064,1879
1065,1879
1066,1882
1067,1878
1068,1877
1069,1886
1070,1892
1071,1878
1072,1866
1073,1855
1074,1837
1075,1826
1076,1829
1077,1839
1078,1848
1079,1866
1080,1872
1081,1873
1082,1875
1083,1878
1084,1879
1085,1881
1086,1894
1087,1893
1088,1875
1089,1861
1090,1853
1091,1840
1092,1835
1093,1836
1094,1846
1095,1856
1096,1870
1097,1872
1098,1872
1099,1873
1100,1877
1101,1875
1102,1888
1103,1897
1104,1875
1105,1866
1106,1855
1107,1841
1108,1839
1109,1833
1110,1835
1111,1847
1112,1858
1113,1869
1114,1872
1115,1872
1116,1876
1117,1876
1118,1871
1119,1888
1120,1890
1121,1877
1122,1866
1123,1854
1124,1840
1125,1831
1126,1835
1127,1841
1128,1853
1129,1862
1130,1872
1131,1871
1132,1873
1133,1875
1134,1872
1135,1874
1136,1888
1137,1886
1138,1870
1139,1855
1140,1840
1141,1830
1142,1837
1143,1837
1144,1845
1145,1856
1146,1868
1147,1871
1148,1871
1149,1874
1150,1879
1151,1881
1152,1887
1153,1901
1154,1893
1155,1871
1156,1853
1157,1840
1158,1826
1159,1831
1160,1831
1161,1847
1162,1857
1163,1870
1164,1866
1165,1869
1166,1871
1167,1872
1168,1873
1169,1890
1170,1895
1171,1877
1172,1866
1173,1856
1174,1841
1175,1833
1176,1835
1177,1840
1178,1854
1179,1866
1180,1870
1181,1872
1182,1873
1183,1877
1184,1876
1185,1881
1186,1894
1187,1891
1188,1872
1189,1856
1190,1852
1191,1839
1192,1833
1193,1835
1194,1840
1195,1850
1196,1861
1197,1866
1198,1872
1199,1874
1200,1876
1201,1877
1202,1883
1203,1895
1204,1882
1205,1870
1206,1857
1207,1845
1208,1833
1209,1835
1210,1837
1211,1848
1212,1858
1213,1871
1214,1872
1215,1872
1216,1874
1217,1873
1218,1879
1219,1889
1220,1889
1221,1872
1222,1856
1223,1845
1224,1831
1225,1825
1226,1824
1227,1835
1228,1848
1229,1858
1230,1867
1231,1867
1232,1872
1233,1874
1234,1872
1235,1879
1236,1891
1237,1897
1238,1876
1239,1866
1240,1857
1241,1840
1242,1827
1243,1828
1244,1840
1245,1851
1246,1865
1247,1871
1248,1871
1249,1873
1250,1873
1251,1872
1252,1881
1253,1899
1254,1875
1255,1868
1256,1856
1257,1848
1258,1833
1259,1837
1260,1840
1261,1850
1262,1857
1263,1867
1264,1869
1265,1870
1266,1872
1267,1872
1268,1877
1269,1888
1270,1894
1271,1877
1272,1866
1273,1855
1274,1840
1275,1831
1276,1837
1277,1840
1278,1853
1279,1863
1280,1871
1281,1873
1282,1872
1283,1872
1284,1871
1285,1876
1286,1886
1287,1889
1288,1875
1289,1860
1290,1853
1291,1840
1292,1833
1293,1835
1294,1843
1295,1856
1296,1868
1297,1872
1298,1872
1299,1874
1300,1876
1301,1875
1302,1883
1303,1897
1304,1886
1305,1871
1306,1856
1307,1845
1308,1836
1309,1834
1310,1835
1311,1850
1312,1859
1313,1872
1314,1866
1315,1871
1316,1871
1317,1863
1318,1866
1319,1883
1320,1894
1321,1876
1322,1863
1323,1855
1324,1841
1325,1831
1326,1833
1327,1837
1328,1849
1329,1863
1330,1872
1331,1874
1332,1876
1333,1875
1334,1876
1335,1882
1336,1894
1337,1894
1338,1876
1339,1861
1340,1854
1341,1839
1342,1830
1343,1833
1344,1837
1345,1846
1346,1862
1347,1865
1348,1868
1349,1871
1350,1872
1351,1871
1352,1881
1353,1899
1354,1885
1355,1872
1356,1856
1357,1850
1358,1834
1359,1831
1360,1835
1361,1845
1362,1856
1363,1870
1364,1872
1365,1873
1366,1872
1367,1878
1368,1876
1369,1887
1370,1898
1371,1879
1372,1868
1373,1854
1374,1834
1375,1826
1376,1826
1377,1835
1378,1843
1379,1863
1380,1871
1381,1872
1382,1872
1383,1877
1384,1874
1385,1880
1386,1894
1387,1891
1388,1874
1389,1861
1390,1853
1391,1840
1392,1831
1393,1834
1394,1843
1395,1854
1396,1865
1397,1872
1398,1872
1399,1873
1400,1876
1401,1877
1402,1881
1403,1898
1404,1883
1405,1865
1406,1852
1407,1843
1408,1835
1409,1834
1410,1834
1411,1847
1412,1856
1413,1871
1414,1872
1415,1872
1416,1875
1417,1878
1418,1877
1419,1885
1420,1895
1421,1879
1422,1865
1423,1853
1424,1842
1425,1831
1426,1831
1427,1836
1428,1850
1429,1861
1430,1872
1431,1871
1432,1872
1433,1876
1434,1872
1435,1872
1436,1889
1437,1888
1438,1870
1439,1856
1440,1849
1441,1829
1442,1828
1443,1831
1444,1840
1445,1856
1446,1867
1447,1872
1448,1872
1449,1875
1450,1877
1451,1878
1452,1885
1453,1900
1454,1890
1455,1872
1456,1857
1457,1847
1458,1834
1459,1825
1460,1829
1461,1842
1462,1855
1463,1869
1464,1865
1465,1868
1466,1872
1467,1873
1468,1872
1469,1889
1470,1898
1471,1881
1472,1866
1473,1855
1474,1842
1475,1834
1476,1831
1477,1836
1478,1851
1479,1863
1480,1872
1481,1872
1482,1874
1483,1875
1484,1875
1485,1878
1486,1893
1487,1894
1488,1875
1489,1860
1490,1853
1491,1839
1492,1831
1493,1831
1494,1838
1495,1845
1496,1858
1497,1865
1498,1866
1499,1875
1500,1876
1501,1874
1502,1885
1503,1896
1504,1888
1505,1872
1506,1856
1507,1850
1508,1833
1509,1829
1510,1829
1511,1843
1512,1856
1513,1869
1514,1872
1515,1872
1516,1877
1517,1875
1518,1876
1519,1882
1520,1892
1521,1874
1522,1865
1523,1853
1524,1840
1525,1822
1526,1818
1527,1822
1528,1839
1529,1853
1530,1862
1531,1865
1532,1872
1533,1875
1534,1879
1535,1879
1536,1897
1537,1904
1538,1881
1539,1866
1540,1853
1541,1836
1542,1819
1543,1821
1544,1833
1545,1848
1546,1862
1547,1871
1548,1872
1549,1875
1550,1879
1551,1878
1552,1888
1553,1902
1554,1887
1555,1872
1556,1854
1557,1843
1558,1827
1559,1828
1560,1827
1561,1840
1562,1854
1563,1865
1564,1872
1565,1872
1566,1877
1567,1874
1568,1875
1569,1887
1570,1897
1571,1883
1572,1870
1573,1855
1574,1843
1575,1829
1576,1829
1577,1831
1578,1850
1579,1857
1580,1868
1581,1870
1582,1872
1583,1874
1584,1872
1585,1872
1586,1887
1587,1889
1588,1879
1589,1861
1590,1855
1591,1840
1592,1824
1593,1826
1594,1837
1595,1850
1596,1865
1597,1872
1598,1872
1599,1875
1600,1877
1601,1875
1602,1883
1603,1899
1604,1890
1605,1875
1606,1861
1607,1851
1608,1833
1609,1827
1610,1833
1611,1841
1612,1856
1613,1868
1614,1869
1615,1865
1616,1867
1617,1872
1618,1872
1619,1887
1620,1895
1621,1882
1622,1867
1623,1854
1624,1845
1625,1829
1626,1829
1627,1835
1628,1846
1629,1858
1630,1870
1631,1871
1632,1872
1633,1874
1634,1873
1635,1877
1636,1891
1637,1894
1638,1875
1639,1863
1640,1855
1641,1840
1642,1827
1643,1830
1644,1833
1645,1846
1646,1859
1647,1867
1648,1870
1649,1866
1650,1871
1651,1870
1652,1882
1653,1893
1654,1888
1655,1872
1656,1856
1657,1849
1658,1837
1659,1829
1660,1831
1661,1843
1662,1853
1663,1868
1664,1872
1665,1872
1666,1872
1667,1874
1668,1873
1669,1883
1670,1892
1671,1881
1672,1869
1673,1854
1674,1840
1675,1827
1676,1823
1677,1830
1678,1842
1679,1858
1680,1872
1681,1872
1682,1873
1683,1875
1684,1874
1685,1875
1686,1888
1687,1892
1688,1875
1689,1859
1690,1854
1691,1839
1692,1831
1693,1833
1694,1840
1695,1852
1696,1862
1697,1870
1698,1872
1699,1872
1700,1873
1701,1873
1702,1879
1703,1894
1704,1879
1705,1866
1706,1852
1707,1842
1708,1835
1709,1834
1710,1833
1711,1845
1712,1856
1713,1866
1714,1872
1715,1872
1716,1872
1717,1873
1718,1874
1719,1882
1720,1888
1721,1885
1722,1869
1723,1853
1724,1845
1725,1834
1726,1831
1727,1835
1728,1849
1729,1859
1730,1870
1731,1872
1732,1873
1733,1874
1734,1872
1735,1870
1736,1881
1737,1891
1738,1872
1739,1856
1740,1843
1741,1831
1742,1830
1743,1833
1744,1839
1745,1854
1746,2495
1747,1235
1748,1952
1749,2043
1750,2035
1751,2015
1752,2005
1753,2007
1754,1984
1755,1980
1756,2006
1757,2037
1758,1987
1759,1893
1760,1872
1761,1907
1762,1925
1763,1907
1764,1862
1765,1816
1766,1757
1767,1701
1768,1687
1769,1729
1770,1777
1771,1797
1772,1799
1773,1802
1774,1804
1775,1801
1776,1811
1777,1894
1778,975
1779,1889
1780,2032
1781,2034
1782,2023
1783,2018
1784,2017
1785,2003
1786,2036
1787,2083
1788,2097
1789,2009
1790,1907
1791,1911
1792,1927
1793,1884
1794,1799
1795,1728
1796,1659
1797,1629
1798,1666
1799,1719
1800,1773
1801,1801
1802,1824
1803,1850
1804,1861
1805,1861
1806,1857
1807,1860
1808,1854
1809,875
1810,1856
1811,2033
1812,2063
1813,2071
1814,2081
1815,2078
1816,2067
1817,2081
1818,2082
1819,2022
1820,1919
1821,1884
1822,1936
1823,1923
1824,1849
1825,1744
1826,1634
1827,1562
1828,1599
1829,1668
1830,1734
1831,1771
1832,1804
1833,1827
1834,1851
1835,1870
1836,1895
1837,1913
1838,1904
1839,1891
1840,734
1841,1829
1842,2036
1843,2069
1844,2079
1845,2091
1846,2091
1847,2073
1848,2061
1849,2032
1850,1950
1851,1861
1852,1914
1853,1973
1854,1936
1855,1839
1856,1713
1857,1600
1858,1571
1859,1619
1860,1686
1861,1744
1862,1779
1863,1814
1864,1840
1865,1866
1866,1885
1867,1902
1868,1904
1869,1911
1870,1925
1871,601
1872,1762
1873,2056
1874,2092
1875,2078
1876,2080
1877,2074
1878,2057
1879,2061
1880,2043
1881,1935
1882,1862
1883,1935
1884,1967
1885,1918
1886,1827
1887,1693
1888,1584
1889,1598
1890,1654
1891,1697
1892,1724
1893,1751
1894,1781
1895,1822
1896,1858
1897,1887
1898,1895
1899,1903
1900,1906
1901,1906
1902,644
1903,1701
1904,2096
1905,2141
1906,2128
1907,2128
1908,2096
1909,2045
1910,2027
1911,1970
1912,1862
1913,1857
1914,1937
1915,1963
1916,1913
1917,1786
1918,1635
1919,1583
1920,1642
1921,1715
1922,1761
1923,1789
1924,1815
1925,1827
1926,1811
1927,1791
1928,1831
1929,1872
1930,1901
1931,1911
1932,1917
1933,1121
1934,1584
1935,2083
1936,2173
1937,2180
1938,2170
1939,2128
1940,2077
1941,2020
1942,1936
1943,1807
1944,1804
1945,1907
1946,1938
1947,1892
1948,1746
1949,1597
1950,1582
1951,1659
1952,1751
1953,1803
1954,1840
1955,1844
1956,1855
1957,1783
1958,1787
1959,1843
1960,1857
1961,1862
1962,1875
1963,1893
1964,2030
1965,1451
1966,2078
1967,2190
1968,2194
1969,2224
1970,2205
1971,2137
1972,2066
1973,1945
1974,1784
1975,1803
1976,1883
1977,1883
1978,1807
1979,1648
1980,1555
1981,1597
1982,1667
1983,1734
1984,1776
1985,1814
1986,1856
1987,1892
1988,1894
1989,1891
1990,1884
1991,1874
1992,1863
1993,1872
1994,1875
1995,2463
1996,1338
1997,2038
1998,2163
1999,2176
2000,2192
2001,2160
2002,2129
2003,2087
2004,1949
2005,1843
2006,1891
2007,1935
2008,1894
2009,1777
2010,1590
2011,1520
2012,1595
2013,1680
2014,1745
2015,1783
2016,1813
2017,1845
2018,1871
2019,1904
2020,1922
2021,1920
2022,1905
2023,1898
2024,1889
2025,1874
2026,2335
2027,1051
2028,1957
2029,2149
2030,2187
2031,2207
2032,2176
2033,2149
2034,2062
2035,1926
2036,1872
2037,1936
2038,1948
2039,1901
2040,1744
2041,1558
2042,1510
2043,1583
2044,1653
2045,1720
2046,1770
2047,1811
2048,1847
2049,1877
2050,1901
2051,1902
2052,1906
2053,1922
2054,1927
2055,1914
2056,1904
2057,1981
2058,869
2059,1903
2060,2139
2061,2185
2062,2204
2063,2175
2064,2144
2065,2073
2066,1952
2067,1892
2068,1923
2069,1950
2070,1905
2071,1730
2072,1534
2073,1517
2074,1591
2075,1648
2076,1698
2077,1741
2078,1788
2079,1838
2080,1878
2081,1896
2082,1905
2083,1915
2084,1920
2085,1920
2086,1923
2087,1936
2088,1920
2089,784
2090,1899
2091,2139
2092,2169
2093,2171
2094,2126
2095,2118
2096,2096
2097,1993
2098,1926
2099,1941
2100,1943
2101,1867
2102,1681
2103,1535
2104,1535
2105,1610
2106,1679
2107,1725
2108,1745
2109,1776
2110,1815
2111,1855
2112,1881
2113,1903
2114,1909
2115,1916
2116,1920
2117,1920
2118,1913
2119,1921
2120,604
2121,1863
2122,2160
2123,2198
2124,2198
2125,2135
2126,2112
2127,2078
2128,1975
2129,1910
2130,1930
2131,1932
2132,1851
2133,1671
2134,1516
2135,1523
2136,1622
2137,1712
2138,1754
2139,1782
2140,1808
2141,1833
2142,1850
2143,1866
2144,1872
2145,1885
2146,1900
2147,1906
2148,1910
2149,1910
2150,1914
2151,414
2152,1750
2153,2160
2154,2227
2155,2223
2156,2175
2157,2150
2158,2099
2159,1970
2160,1903
2161,1909
2162,1922
2163,1847
2164,1661
2165,1504
2166,1521
2167,1621
2168,1702
2169,1762
2170,1808
2171,1838
2172,1857
2173,1871
2174,1877
2175,1872
2176,1875
2177,1882
2178,1893
2179,1901
2180,1905
2181,1911
2182,418
2183,1707
2184,2127
2185,2208
2186,2224
2187,2192
2188,2163
2189,2128
2190,2019
2191,1929
2192,1913
2193,1905
2194,1808
2195,1631
2196,1485
2197,1525
2198,1621
2199,1702
2200,1757
2201,1792
2202,1833
2203,1879
2204,1908
2205,1906
2206,1902
2207,1895
2208,1885
2209,1876
2210,1875
2211,1879
2212,1893
2213,949
2214,1535
2215,2085
2216,2199
2217,2219
2218,2182
2219,2173
2220,2167
2221,2073
2222,1962
2223,1936
2224,1920
2225,1805
2226,1621
2227,1467
2228,1499
2229,1605
2230,1691
2231,1745
2232,1786
2233,1827
2234,1863
2235,1891
2236,1916
2237,1934
2238,1922
2239,1910
2240,1902
2241,1889
2242,1872
2243,1871
2244,1905
2245,1383
2246,2035
2247,2177
2248,2203
2249,2176
2250,2158
2251,2164
2252,2096
2253,1990
2254,1970
2255,1941
2256,1838
2257,1653
2258,1479
2259,1482
2260,1579
2261,1662
2262,1727
2263,1776
2264,1819
2265,1862
2266,1891
2267,1909
2268,1915
2269,1925
2270,1938
2271,1936
2272,1919
2273,1903
2274,1877
2275,2583
2276,1227
2277,1983
2278,2160
2279,2199
2280,2185
2281,2160
2282,2172
2283,2086
2284,1969
2285,1943
2286,1945
2287,1872
2288,1695
2289,1520
2290,1508
2291,1590
2292,1648
2293,1702
2294,1744
2295,1795
2296,1840
2297,1879
2298,1903
2299,1913
2300,1920
2301,1919
2302,1925
2303,1934
2304,1930
2305,1907
2306,2398
2307,1072
2308,1943
2309,2131
2310,2167
2311,2155
2312,2128
2313,2160
2314,2096
2315,1982
2316,1950
2317,1950
2318,1866
2319,1715
2320,1535
2321,1535
2322,1614
2323,1676
2324,1726
2325,1745
2326,1770
2327,1807
2328,1851
2329,1883
2330,1904
2331,1915
2332,1919
2333,1921
2334,1918
2335,1911
2336,1914
2337,2057
2338,903
2339,1933
2340,2142
2341,2169
2342,2149
2343,2103
2344,2144
2345,2101
2346,1987
2347,1948
2348,1950
2349,1869
2350,1712
2351,1535
2352,1526
2353,1625
2354,1710
2355,1745
2356,1774
2357,1798
2358,1821
2359,1840
2360,1856
2361,1877
2362,1897
2363,1907
2364,1907
2365,1905
2366,1910
2367,1909
2368,1904
2369,1914
2370,1920
2371,1913
2372,1895
2373,1875
2374,1870
2375,1854
2376,1844
2377,1845
2378,1851
2379,1861
2380,1872
2381,1874
2382,1874
2383,1877
2384,1877
2385,1875
2386,1885
2387,1894
2388,1883
2389,1867
2390,1856
2391,1844
2392,1834
2393,1836
2394,1827
2395,1840
2396,1851
2397,1865
2398,1871
2399,1872
2400,1872
2401,1871
2402,1873
2403,1888
2404,1892
2405,1872
2406,1856
2407,1846
2408,1831
2409,1819
2410,1824
2411,1835
2412,1843
2413,1856
2414,1863
2415,1860
2416,1867
2417,1865
2418,1862
2419,1874
2420,1882
2421,1877
2422,1862
2423,1845
2424,1841
2425,1830
2426,1825
2427,1824
2428,1824
2429,1839
2430,1855
2431,1861
2432,1871
2433,1872
2434,1875
2435,1872
2436,1875
2437,1882
2438,1872
2439,1859
2440,1850
2441,1841
2442,1829
2443,1829
2444,1834
2445,1840
2446,1856
2447,1866
2448,1871
2449,1872
2450,1872
2451,1872
2452,1872
2453,1882
2454,1885
2455,1872
2456,1855
2457,1846
2458,1838
2459,1833
2460,1831
2461,1839
2462,1852
2463,1862
2464,1872
2465,1872
2466,1872
2467,1872
2468,1872
2469,1876
2470,1889
2471,1886
2472,1871
2473,1856
2474,1851
2475,1838
2476,1830
2477,1833
2478,1840
2479,1851
2480,1863
2481,1871
2482,1872
2483,1873
2484,1869
2485,1870
2486,1875
2487,1887
2488,1877
2489,1866
2490,1856
2491,1845
2492,1837
2493,1831
2494,1833
2495,1843
2496,1856
2497,1870
2498,1871
2499,1872
2500,1873
2501,1875
2502,1873
2503,1886
2504,1893
2505,1875
2506,1863
2507,1854
2508,1840
2509,1831
2510,1830
2511,1838
2512,1847
2513,1862
2514,1861
2515,1865
2516,1865
2517,1868
2518,1870
2519,1877
2520,1891
2521,1893
2522,1873
2523,1847
2524,1841
2525,1838
2526,1829
2527,1830
2528,1843
2529,1854
2530,1868
2531,1871
2532,1872
2533,1870
2534,1872
2535,1872
2536,1879
2537,1889
2538,1878
2539,1866
2540,1852
2541,1843
2542,1834
2543,1831
2544,1825
2545,1841
2546,1851
2547,1862
2548,1862
2549,1863
2550,1867
2551,1875
2552,1873
2553,1881
2554,1890
2555,1873
2556,1859
2557,1851
2558,1840
2559,1829
2560,1833
2561,1836
2562,1848
2563,1862
2564,1867
2565,1871
2566,1870
2567,1872
2568,1872
2569,1878
2570,1887
2571,1887
2572,1872
2573,1856
2574,1845
2575,1831
2576,1823
2577,1826
2578,1838
2579,1843
2580,1863
2581,1871
2582,1872
2583,1872
2584,1872
2585,1872
2586,1878
2587,1890
2588,1879
2589,1867
2590,1854
2591,1843
2592,1834
2593,1831
2594,1833
2595,1843
2596,1855
2597,1867
2598,1870
2599,1872
2600,1875
2601,1872
2602,1872
2603,1885
2604,1885
2605,1870
2606,1855
2607,1845
2608,1838
2609,1830
2610,1832
2611,1837
2612,1850
2613,1861
2614,1870
2615,1870
2616,1870
2617,1872
2618,1872
2619,1872
2620,1889
2621,1887
2622,1870
2623,1856
2624,1847
2625,1838
2626,1832
2627,1835
2628,1843
2629,1855
2630,1863
2631,1866
2632,1870
2633,1872
2634,1871
2635,1869
2636,1874
2637,1887
2638,1874
2639,1862
2640,1849
2641,1843
2642,1837
2643,1831
2644,1837
2645,1847
2646,1857
2647,1869
2648,1872
2649,1872
2650,1873
2651,1874
2652,1875
2653,1883
2654,1891
2655,1876
2656,1863
2657,1855
2658,1840
2659,1831
2660,1833
2661,1838
2662,1850
2663,1859
2664,1861
2665,1865
2666,1865
2667,1869
2668,1871
2669,1874
2670,1890
2671,1889
2672,1873
2673,1857
2674,1851
2675,1839
2676,1835
2677,1835
2678,1840
2679,1855
2680,1867
2681,1871
2682,1872
2683,1872
2684,1875
2685,1872
2686,1881
2687,1890
2688,1885
2689,1871
2690,1856
2691,1846
2692,1834
2693,1833
2694,1827
2695,1839
2696,1851
2697,1860
2698,1863
2699,1870
2700,1872
2701,1873
2702,1872
2703,1883
2704,1893
2705,1877
2706,1865
2707,1852
2708,1841
2709,1829
2710,1831
2711,1837
2712,1850
2713,1858
2714,1869
2715,1866
2716,1871
2717,1870
2718,1872
2719,1873
2720,1879
2721,1883
2722,1867
2723,1855
2724,1847
2725,1833
2726,1826
2727,1827
2728,1838
2729,1842
2730,1855
2731,1859
2732,1869
2733,1875
2734,1877
2735,1874
2736,1879
2737,1893
2738,1886
2739,1867
2740,1853
2741,1845
2742,1835
2743,1835
2744,1834
2745,1846
2746,1856
2747,1867
2748,1870
2749,1870
2750,1873
2751,1875
2752,1877
2753,1884
2754,1889
2755,1872
2756,1856
2757,1845
2758,1839
2759,1834
2760,1831
2761,1833
2762,1849
2763,1862
2764,1869
2765,1869
2766,1871
2767,1872
2768,1872
2769,1872
2770,1889
2771,1890
2772,1872
2773,1859
2774,1851
2775,1840
2776,1833
2777,1834
2778,1841
2779,1854
2780,1865
2781,1873
2782,1872
2783,1872
2784,1869
2785,1867
2786,1873
2787,1887
2788,1877
2789,1862
2790,1851
2791,1845
2792,1833
2793,1829
2794,1831
2795,1844
2796,1856
2797,1866
2798,1869
2799,1872
2800,1873
2801,1873
2802,1875
2803,1879
2804,1891
2805,1875
2806,1867
2807,1854
2808,1841
2809,1831
2810,1835
2811,1840
2812,1854
2813,1861
2814,1863
2815,1867
2816,1862
2817,1869
2818,1870
2819,1871
2820,1888
2821,1884
2822,1867
2823,1856
2824,1851
2825,1839
2826,1830
2827,1833
2828,1840
2829,1854
2830,1863
2831,1872
2832,1872
2833,1873
2834,1872
2835,1873
2836,1879
2837,1894
2838,1883
2839,1868
2840,1857
2841,1845
2842,1831
2843,1830
2844,1825
2845,1840
2846,1849
2847,1862
2848,1867
2849,1869
2850,1872
2851,1873
2852,1874
2853,1883
2854,1893
2855,1878
2856,1870
2857,1859
2858,1843
2859,1831
2860,1830
2861,1834
2862,1846
2863,1856
2864,1867
2865,1871
2866,1871
2867,1872
2868,1872
2869,1873
2870,1887
2871,1888
2872,1872
2873,1857
2874,1841
2875,1831
2876,1824
2877,1826
2878,1838
2879,1855
2880,1870
2881,1872
2882,1866
2883,1865
2884,1864
2885,1871
2886,1884
2887,1891
2888,1885
2889,1868
2890,1855
2891,1851
2892,1838
2893,1833
2894,1831
2895,1843
2896,1851
2897,1863
2898,1868
2899,1867
2900,1867
2901,1872
2902,1877
2903,1882
2904,1887
2905,1872
2906,1857
2907,1850
2908,1840
2909,1835
2910,1835
2911,1838
2912,1849
2913,1857
2914,1869
2915,1871
2916,1871
2917,1872
2918,1870
2919,1873
2920,1885
2921,1887
2922,1870
2923,1855
2924,1847
2925,1839
2926,1831
2927,1835
2928,1841
2929,1855
2930,1867
2931,1870
2932,1871
2933,1872
2934,1870
2935,1869
2936,1871
2937,1888
2938,1877
2939,1872
2940,1856
2941,1846
2942,1835
2943,1828
2944,1831
2945,1844
2946,1855
2947,1870
2948,1872
2949,1872
2950,1871
2951,1872
2952,1872
2953,1876
2954,1889
2955,1881
2956,1869
2957,1852
2958,1841
2959,1835
2960,1835
2961,1835
2962,1849
2963,1859
2964,1865
2965,1869
2966,1870
2967,1863
2968,1867
2969,1868
2970,1878
2971,1885
2972,1872
2973,1857
2974,1847
2975,1839
2976,1831
2977,1831
2978,1839
2979,1851
2980,1862
2981,1870
2982,1870
2983,1872
2984,1877
2985,1875
2986,1879
2987,1895
2988,1889
2989,1872
2990,1858
2991,1850
2992,1831
2993,1824
2994,1822
2995,1837
2996,1847
2997,1861
2998,1863
2999,1872
3000,1874
3001,1876
3002,1872
3003,1883
3004,1893
3005,1879
3006,1869
3007,1853
3008,1843
3009,1831
3010,1830
3011,1834
3012,1844
3013,1856
3014,1869
3015,1869
3016,1870
3017,1872
3018,1870
3019,1875
3020,1883
3021,1889
3022,1872
3023,1856
3024,1847
3025,1836
3026,1827
3027,1823
3028,1834
3029,1840
3030,1850
3031,1856
3032,1867
3033,1870
3034,1875
3035,1873
3036,1877
3037,1895
3038,1895
3039,1878
3040,1865
3041,1852
3042,1834
3043,1825
3044,1822
3045,1833
3046,1851
3047,1871
3048,1877
3049,1875
3050,1875
3051,1874
3052,1872
3053,1878
3054,1888
3055,1875
3056,1862
3057,1850
3058,1840
3059,1824
3060,1826
3061,1828
3062,1841
3063,1855
3064,1869
3065,1873
3066,1872
3067,1872
3068,1872
3069,1871
3070,1885
3071,1890
3072,1874
3073,1860
3074,1855
3075,1839
3076,1829
3077,1830
3078,1840
3079,1853
3080,1861
3081,1872
3082,1870
3083,1872
3084,1869
3085,1865
3086,1872
3087,1885
3088,1879
3089,1872
3090,1856
3091,1851
3092,1837
3093,1829
3094,1832
3095,1841
3096,1853
3097,1867
3098,1869
3099,1872
3100,1872
3101,1872
3102,1872
3103,1882
3104,1889
3105,1877
3106,1863
3107,1852
3108,1843
3109,1830
3110,1834
3111,1835
3112,1847
3113,1857
3114,1865
3115,1865
3116,1859
3117,1869
3118,1866
3119,1872
3120,1883
3121,1890
3122,1872
3123,1862
3124,1855
3125,1840
3126,1825
3127,1829
3128,1836
3129,1851
3130,1863
3131,1871
3132,1871
3133,1873
3134,1874
3135,1872
3136,1873
3137,1886
3138,1881
3139,1871
3140,1857
3141,1849
3142,1834
3143,1827
3144,1821
3145,1840
3146,1850
3147,1859
3148,1865
3149,1866
3150,1866
3151,1870
3152,1872
3153,1883
3154,1893
3155,1882
3156,1867
3157,1855
3158,1844
3159,1834
3160,1831
3161,1838
3162,1845
3163,1856
3164,1870
3165,1872
3166,1872
3167,1873
3168,1872
3169,1873
3170,1883
3171,1892
3172,1872
3173,1861
3174,1846
3175,1837
3176,1822
3177,1825
3178,1833
3179,1852
3180,1861
3181,1871
3182,1872
3183,1873
3184,1873
3185,1872
3186,1874
3187,1889
3188,1887
3189,1872
3190,1857
3191,1851
3192,1837
3193,1826
3194,1831
3195,1840
3196,1854
3197,1862
3198,1869
3199,1871
3200,1872
3201,1875
3202,1873
3203,1881
3204,1885
3205,1876
3206,1858
3207,1846
3208,1839
3209,1831
3210,1828
3211,1831
3212,1843
3213,1855
3214,1867
3215,1870
3216,1870
3217,1872
3218,1871
3219,1874
3220,1890
3221,1891
3222,1874
3223,1861
3224,1851
3225,1840
3226,1829
3227,1830
3228,1838
3229,1850
3230,1861
3231,1869
3232,1871
3233,1871
3234,1870
3235,1866
3236,1870
3237,1886
3238,1877
3239,1865
3240,1852
3241,1841
3242,1834
3243,1830
3244,1835
3245,1841
3246,1850
3247,1867
3248,1872
3249,1872
3250,1872
3251,1873
3252,1873
3253,1879
3254,1894
3255,1882
3256,1870
3257,1856
3258,1845
3259,1835
3260,1836
3261,1835
3262,1845
3263,1856
3264,1859
3265,1863
3266,1865
3267,1866
3268,1872
3269,1875
3270,1883
3271,1891
3272,1874
3273,1861
3274,1847
3275,1840
3276,1829
3277,1830
3278,1838
3279,1849
3280,1858
3281,1867
3282,1872
3283,1872
3284,1872
3285,1872
3286,1875
3287,1889
3288,1891
3289,1871
3290,1857
3291,1852
3292,1840
3293,1829
3294,1825
3295,1837
3296,1845
3297,1859
3298,1862
3299,1872
3300,1873
3301,1874
3302,1872
3303,1878
3304,1891
3305,1879
3306,1866
3307,1855
3308,1847
3309,1833
3310,1831
3311,1834
3312,1846
3313,1856
3314,1866
3315,1867
3316,1872
3317,1873
3318,1869
3319,1875
3320,1874
3321,1886
3322,1872
3323,1857
3324,1842
3325,1835
3326,1826
3327,1825
3328,1828
3329,1841
3330,1847
3331,1857
3332,1869
3333,1871
3334,1878
3335,1875
3336,1878
3337,1891
3338,1893
3339,1869
3340,1852
3341,1844
3342,1839
3343,1830
3344,1831
3345,1842
3346,1855
3347,1865
3348,1867
3349,1872
3350,1872
3351,1871
3352,1868
3353,1875
3354,1886
3355,1875
3356,1863
3357,1846
3358,1840
3359,1831
3360,1827
3361,1835
3362,1845
3363,1857
3364,557
3365,1745
3366,2012
3367,2030
3368,2012
3369,1983
3370,1987
3371,1984
3372,1963
3373,1981
3374,2016
3375,2029
3376,1953
3377,1902
3378,1904
3379,1919
3380,1917
3381,1899
3382,1870
3383,1835
3384,1776
3385,1722
3386,1703
3387,1745
3388,1776
3389,1791
3390,1792
3391,1792
3392,1790
3393,1791
3394,1803
3395,554
3396,1678
3397,1997
3398,2032
3399,2026
3400,2010
3401,2011
3402,2000
3403,2001
3404,2044
3405,2064
3406,2037
3407,1938
3408,1891
3409,1894
3410,1911
3411,1875
3412,1840
3413,1789
3414,1718
3415,1653
3416,1663
3417,1717
3418,1774
3419,1808
3420,1823
3421,1851
3422,1840
3423,1840
3424,1855
3425,1865
3426,882
3427,1600
3428,1983
3429,2031
3430,2023
3431,2027
3432,2043
3433,2037
3434,2032
3435,2029
3436,2037
3437,1984
3438,1899
3439,1907
3440,1968
3441,1953
3442,1881
3443,1808
3444,1719
3445,1634
3446,1616
3447,1664
3448,1714
3449,1750
3450,1785
3451,1808
3452,1831
3453,1855
3454,1886
3455,1895
3456,1890
3457,1705
3458,1494
3459,1977
3460,2043
3461,2046
3462,2058
3463,2074
3464,2065
3465,2037
3466,2027
3467,2013
3468,1919
3469,1851
3470,1921
3471,1975
3472,1937
3473,1872
3474,1787
3475,1688
3476,1614
3477,1627
3478,1678
3479,1734
3480,1776
3481,1807
3482,1824
3483,1836
3484,1865
3485,1884
3486,1899
3487,1917
3488,2623
3489,1313
3490,1968
3491,2079
3492,2069
3493,2057
3494,2077
3495,2071
3496,2029
3497,2013
3498,1998
3499,1887
3500,1831
3501,1918
3502,1958
3503,1930
3504,1872
3505,1785
3506,1680
3507,1631
3508,1661
3509,1695
3510,1729
3511,1764
3512,1790
3513,1799
3514,1824
3515,1857
3516,1883
3517,1901
3518,1899
3519,2543
3520,1214
3521,2000
3522,2126
3523,2117
3524,2098
3525,2113
3526,2068
3527,2004
3528,1980
3529,1954
3530,1818
3531,1824
3532,1935
3533,1963
3534,1914
3535,1843
3536,1744
3537,1661
3538,1659
3539,1685
3540,1723
3541,1754
3542,1766
3543,1776
3544,1793
3545,1826
3546,1858
3547,1885
3548,1898
3549,1904
3550,1967
3551,927
3552,1932
3553,2119
3554,2160
3555,2160
3556,2163
3557,2103
3558,2028
3559,1998
3560,1936
3561,1777
3562,1803
3563,1894
3564,1901
3565,1861
3566,1806
3567,1715
3568,1655
3569,1683
3570,1744
3571,1797
3572,1813
3573,1808
3574,1809
3575,1813
3576,1823
3577,1838
3578,1855
3579,1872
3580,1889
3581,1903
3582,806
3583,1909
3584,2135
3585,2170
3586,2167
3587,2198
3588,2150
3589,2065
3590,2022
3591,1894
3592,1741
3593,1787
3594,1865
3595,1873
3596,1856
3597,1790
3598,1680
3599,1632
3600,1675
3601,1739
3602,1777
3603,1811
3604,1841
3605,1855
3606,1853
3607,1850
3608,1861
3609,1858
3610,1857
3611,1859
3612,1872
3613,511
3614,1818
3615,2123
3616,2176
3617,2188
3618,2209
3619,2134
3620,2065
3621,2032
3622,1883
3623,1761
3624,1823
3625,1881
3626,1872
3627,1829
3628,1749
3629,1651
3630,1628
3631,1689
3632,1745
3633,1772
3634,1786
3635,1797
3636,1829
3637,1871
3638,1893
3639,1892
3640,1890
3641,1882
3642,1872
3643,1870
3644,430
3645,1725
3646,2091
3647,2168
3648,2181
3649,2198
3650,2133
3651,2064
3652,2027
3653,1894
3654,1808
3655,1872
3656,1931
3657,1919
3658,1860
3659,1743
3660,1601
3661,1568
3662,1637
3663,1706
3664,1760
3665,1799
3666,1823
3667,1842
3668,1865
3669,1883
3670,1906
3671,1923
3672,1919
3673,1904
3674,1896
3675,581
3676,1629
3677,2063
3678,2162
3679,2186
3680,2217
3681,2159
3682,2066
3683,1989
3684,1853
3685,1791
3686,1856
3687,1925
3688,1927
3689,1861
3690,1743
3691,1628
3692,1611
3693,1664
3694,1706
3695,1738
3696,1770
3697,1801
3698,1829
3699,1845
3700,1874
3701,1898
3702,1904
3703,1918
3704,1927
3705,1921
3706,1111
3707,1533
3708,2054
3709,2146
3710,2157
3711,2163
3712,2115
3713,2063
3714,2014
3715,1884
3716,1826
3717,1878
3718,1919
3719,1904
3720,1861
3721,1763
3722,1643
3723,1639
3724,1697
3725,1727
3726,1728
3727,1743
3728,1769
3729,1807
3730,1841
3731,1875
3732,1894
3733,1906
3734,1911
3735,1918
3736,1918
3737,2079
3738,1433
3739,2066
3740,2176
3741,2176
3742,2171
3743,2099
3744,2054
3745,2012
3746,1878
3747,1821
3748,1873
3749,1909
3750,1906
3751,1857
3752,1735
3753,1627
3754,1659
3755,1727
3756,1744
3757,1746
3758,1758
3759,1765
3760,1791
3761,1817
3762,1853
3763,1877
3764,1904
3765,1910
3766,1909
3767,1910
3768,2445
3769,1335
3770,2065
3771,2227
3772,2234
3773,2224
3774,2142
3775,2082
3776,2005
3777,1853
3778,1781
3779,1838
3780,1873
3781,1868
3782,1821
3783,1712
3784,1626
3785,1656
3786,1719
3787,1765
3788,1790
3789,1792
3790,1802
3791,1810
3792,1829
3793,1840
3794,1857
3795,1870
3796,1890
3797,1902
3798,1911
3799,2343
3800,1076
3801,2013
3802,2225
3803,2260
3804,2274
3805,2214
3806,2114
3807,2026
3808,1881
3809,1792
3810,1808
3811,1835
3812,1826
3813,1791
3814,1695
3815,1601
3816,1627
3817,1700
3818,1741
3819,1766
3820,1794
3821,1832
3822,1855
3823,1867
3824,1871
3825,1875
3826,1872
3827,1874
3828,1872
3829,1888
3830,2128
3831,960
3832,1980
3833,2221
3834,2254
3835,2257
3836,2208
3837,2131
3838,2060
3839,1904
3840,1817
3841,1821
3842,1842
3843,1824
3844,1780
3845,1670
3846,1582
3847,1611
3848,1695
3849,1743
3850,1771
3851,1787
3852,1811
3853,1850
3854,1887
3855,1909
3856,1904
3857,1902
3858,1901
3859,1883
3860,1875
3861,1873
3862,656
3863,1891
3864,2196
3865,2259
3866,2263
3867,2217
3868,2144
3869,2090
3870,1951
3871,1849
3872,1833
3873,1841
3874,1831
3875,1792
3876,1673
3877,1535
3878,1577
3879,1665
3880,1728
3881,1773
3882,1792
3883,1821
3884,1843
3885,1856
3886,1874
3887,1913
3888,1936
3889,1923
3890,1909
3891,1898
3892,1883
3893,491
3894,1791
3895,2157
3896,2243
3897,2263
3898,2231
3899,2163
3900,2096
3901,1955
3902,1829
3903,1809
3904,1853
3905,1857
3906,1814
3907,1707
3908,1581
3909,1574
3910,1648
3911,1700
3912,1729
3913,1759
3914,1802
3915,1838
3916,1857
3917,1880
3918,1909
3919,1919
3920,1925
3921,1936
3922,1923
3923,1904
3924,432
3925,1730
3926,2135
3927,2231
3928,2248
3929,2224
3930,2145
3931,2096
3932,1958
3933,1823
3934,1803
3935,1835
3936,1835
3937,1815
3938,1740
3939,1607
3940,1597
3941,1665
3942,1709
3943,1722
3944,1744
3945,1776
3946,1814
3947,1851
3948,1883
3949,1904
3950,1917
3951,1923
3952,1927
3953,1926
3954,1933
3955,547
3956,1668
3957,2134
3958,2245
3959,2255
3960,2223
3961,2131
3962,2068
3963,1946
3964,1825
3965,1803
3966,1840
3967,1841
3968,1823
3969,1729
3970,1614
3971,1622
3972,1699
3973,1738
3974,1745
3975,1762
3976,1776
3977,1795
3978,1825
3979,1859
3980,1886
3981,1909
3982,1917
3983,1921
3984,1919
3985,1918
3986,1916
3987,1920
3988,1927
3989,1909
3990,1894
3991,1876
3992,1863
3993,1853
3994,1851
3995,1848
3996,1856
3997,1867
3998,1873
3999,1878
4000,1882
4001,1877
4002,1878
4003,1878
4004,1895
4005,1895
4006,1875
4007,1859
4008,1847
4009,1835
4010,1830
4011,1835
4012,1840
4013,1846
4014,1855
4015,1862
4016,1865
4017,1863
4018,1869
4019,1868
4020,1876
4021,1890
4022,1877
4023,1865
4024,1850
4025,1841
4026,1824
4027,1826
4028,1827
4029,1840
4030,1850
4031,1859
4032,1862
4033,1869
4034,1869
4035,1872
4036,1871
4037,1874
4038,1883
4039,1870
4040,1858
4041,1847
4042,1840
4043,1827
4044,1821
4045,1822
4046,1840
4047,1855
4048,1862
4049,1866
4050,1869
4051,1872
4052,1873
4053,1874
4054,1886
4055,1888
4056,1872
4057,1858
4058,1849
4059,1829
4060,1824
4061,1830
4062,1839
4063,1847
4064,1859
4065,1866
4066,1869
4067,1872
4068,1874
4069,1872
4070,1878
4071,1891
4072,1887
4073,1872
4074,1854
4075,1840
4076,1826
4077,1821
4078,1825
4079,1841
4080,1855
4081,1864
4082,1867
4083,1870
4084,1872
4085,1872
4086,1872
4087,1879
4088,1893
4089,1883
4090,1871
4091,1855
4092,1841
4093,1827
4094,1827
4095,1837
4096,1850
4097,1859
4098,1870
4099,1871
4100,1876
4101,1873
4102,1872
4103,1875
4104,1879
4105,1883
4106,1867
4107,1850
4108,1841
4109,1840
4110,1829
4111,1830
4112,1841
4113,1851
4114,1867
4115,1871
4116,1872
4117,1869
4118,1872
4119,1865
4120,1879
4121,1891
4122,1883
4123,1869
4124,1856
4125,1846
4126,1834
4127,1825
4128,1824
4129,1841
4130,1851
4131,1867
4132,1872
4133,1872
4134,1869
4135,1871
4136,1870
4137,1877
4138,1885
4139,1871
4140,1856
4141,1846
4142,1841
4143,1829
4144,1833
4145,1837
4146,1845
4147,1856
4148,1871
4149,1871
4150,1872
4151,1873
4152,1873
4153,1874
4154,1885
4155,1888
4156,1873
4157,1861
4158,1851
4159,1840
4160,1827
4161,1826
4162,1839
4163,1850
4164,1857
4165,1861
4166,1863
4167,1866
4168,1871
4169,1872
4170,1879
4171,1894
4172,1887
4173,1870
4174,1852
4175,1846
4176,1831
4177,1828
4178,1829
4179,1842
4180,1853
4181,1863
4182,1871
4183,1871
4184,1872
4185,1873
4186,1872
4187,1878
4188,1890
4189,1881
4190,1862
4191,1851
4192,1840
4193,1833
4194,1823
4195,1828
4196,1840
4197,1852
4198,1862
4199,1870
4200,1872
4201,1872
4202,1873
4203,1874
4204,1885
4205,1890
4206,1872
4207,1858
4208,1847
4209,1835
4210,1827
4211,1830
4212,1838
4213,1849
4214,1859
4215,1866
4216,1870
4217,1866
4218,1876
4219,1869
4220,1872
4221,1885
4222,1881
4223,1862
4224,1844
4225,1841
4226,1830
4227,1823
4228,1825
4229,1838
4230,1843
4231,1861
4232,1871
4233,1872
4234,1872
4235,1872
4236,1872
4237,1883
4238,1892
4239,1878
4240,1864
4241,1851
4242,1843
4243,1830
4244,1829
4245,1835
4246,1849
4247,1857
4248,1864
4249,1871
4250,1872
4251,1872
4252,1875
4253,1876
4254,1877
4255,1883
4256,1871
4257,1855
4258,1842
4259,1838
4260,1829
4261,1829
4262,1840
4263,1853
4264,1862
4265,1872
4266,1871
4267,1872
4268,1873
4269,1875
4270,1877
4271,1891
4272,1886
4273,1870
4274,1856
4275,1847
4276,1835
4277,1829
4278,1831
4279,1843
4280,1855
4281,1867
4282,1872
4283,1872
4284,1869
4285,1872
4286,1871
4287,1876
4288,1889
4289,1878
4290,1866
4291,1853
4292,1842
4293,1829
4294,1831
4295,1833
4296,1842
4297,1856
4298,1870
4299,1871
4300,1871
4301,1872
4302,1873
4303,1874
4304,1887
4305,1890
4306,1874
4307,1857
4308,1850
4309,1840
4310,1829
4311,1833
4312,1839
4313,1847
4314,1856
4315,1861
4316,1863
4317,1866
4318,1867
4319,1872
4320,1886
4321,1892
4322,1888
4323,1867
4324,1855
4325,1850
4326,1835
4327,1829
4328,1830
4329,1841
4330,1853
4331,1865
4332,1871
4333,1872
4334,1875
4335,1876
4336,1873
4337,1879
4338,1892
4339,1879
4340,1865
4341,1853
4342,1843
4343,1833
4344,1822
4345,1828
4346,1841
4347,1850
4348,1863
4349,1863
4350,1872
4351,1874
4352,1872
4353,1875
4354,1886
4355,1890
4356,1873
4357,1861
4358,1851
4359,1838
4360,1829
4361,1830
4362,1837
4363,1847
4364,1859
4365,1867
4366,1871
4367,1872
4368,1872
4369,1873
4370,1877
4371,1892
4372,1886
4373,1872
4374,1850
4375,1841
4376,1829
4377,1823
4378,1822
4379,1843
4380,1853
4381,1865
4382,1869
4383,1872
4384,1872
4385,1872
4386,1875
4387,1881
4388,1894
4389,1878
4390,1866
4391,1853
4392,1841
4393,1830
4394,1829
4395,1829
4396,1845
4397,1856
4398,1870
4399,1872
4400,1871
4401,1872
4402,1875
4403,1873
4404,1877
4405,1886
4406,1870
4407,1853
4408,1846
4409,1839
4410,1829
4411,1831
4412,1834
4413,1847
4414,1858
4415,1869
4416,1871
4417,1866
4418,1873
4419,1871
4420,1875
4421,1890
4422,1885
4423,1871
4424,1857
4425,1849
4426,1834
4427,1827
4428,1833
4429,1840
4430,1854
4431,1867
4432,1870
4433,1871
4434,1869
4435,1867
4436,1870
4437,1874
4438,1889
4439,1875
4440,1860
4441,1849
4442,1840
4443,1826
4444,1831
4445,1833
4446,1843
4447,1855
4448,1867
4449,1871
4450,1870
4451,1872
4452,1872
4453,1875
4454,1886
4455,1890
4456,1872
4457,1861
4458,1849
4459,1839
4460,1829
4461,1831
4462,1836
4463,1849
4464,1855
4465,1863
4466,1865
4467,1867
4468,1869
4469,1873
4470,1875
4471,1890
4472,1890
4473,1872
4474,1856
4475,1850
4476,1835
4477,1830
4478,1829
4479,1842
4480,1854
4481,1866
4482,1871
4483,1871
4484,1872
4485,1875
4486,1873
4487,1882
4488,1894
4489,1883
4490,1869
4491,1856
4492,1845
4493,1831
4494,1825
4495,1826
4496,1840
4497,1847
4498,1861
4499,1872
4500,1871
4501,1872
4502,1875
4503,1873
4504,1884
4505,1891
4506,1873
4507,1859
4508,1850
4509,1838
4510,1827
4511,1828
4512,1834
4513,1846
4514,1863
4515,1869
4516,1869
4517,1871
4518,1868
4519,1872
4520,1875
4521,1883
4522,1882
4523,1865
4524,1851
4525,1842
4526,1825
4527,1821
4528,1825
4529,1835
4530,1847
4531,1857
4532,1863
4533,1871
4534,1872
4535,1872
4536,1872
4537,1879
4538,1891
4539,1879
4540,1870
4541,1853
4542,1845
4543,1832
4544,1828
4545,1829
4546,1845
4547,1857
4548,1865
4549,1870
4550,1867
4551,1873
4552,1873
4553,1875
4554,1877
4555,1886
4556,1868
4557,1857
4558,1842
4559,1840
4560,1827
4561,1835
4562,1835
4563,1846
4564,1859
4565,1869
4566,1870
4567,1872
4568,1872
4569,1876
4570,1877
4571,1890
4572,1890
4573,1871
4574,1859
4575,1849
4576,1837
4577,1828
4578,1830
4579,1840
4580,1854
4581,1865
4582,1867
4583,1872
4584,1866
4585,1871
4586,1870
4587,1875
4588,1886
4589,1884
4590,1870
4591,1856
4592,1844
4593,1835
4594,1830
4595,1833
4596,1843
4597,1856
4598,1867
4599,1872
4600,1872
4601,1872
4602,1875
4603,1874
4604,1885
4605,1893
4606,1875
4607,1862
4608,1851
4609,1840
4610,1827
4611,1829
4612,1836
4613,1847
4614,1853
4615,1862
4616,1863
4617,1862
4618,1866
4619,1873
4620,1872
4621,1891
4622,1889
4623,1872
4624,1857
4625,1846
4626,1835
4627,1828
4628,1826
4629,1840
4630,1851
4631,1863
4632,1872
4633,1871
4634,1872
4635,1873
4636,1873
4637,1879
4638,1894
4639,1884
4640,1870
4641,1853
4642,1845
4643,1834
4644,1823
4645,1826
4646,1839
4647,1851
4648,1863
4649,1866
4650,1867
4651,1869
4652,1872
4653,1874
4654,1882
4655,1894
4656,1879
4657,1861
4658,1851
4659,1840
4660,1827
4661,1825
4662,1835
4663,1846
4664,1857
4665,1872
4666,1872
4667,1872
4668,1874
4669,1877
4670,1878
4671,1889
4672,1889
4673,1873
4674,1853
4675,1845
4676,1827
4677,1819
4678,1825
4679,1839
4680,1850
4681,1866
4682,1870
4683,1872
4684,1872
4685,1875
4686,1875
4687,1879
4688,1892
4689,1884
4690,1869
4691,1857
4692,1847
4693,1835
4694,1826
4695,1829
4696,1843
4697,1854
4698,1869
4699,1872
4700,1872
4701,1872
4702,1875
4703,1873
4704,1875
4705,1886
4706,1871
4707,1856
4708,1842
4709,1840
4710,1826
4711,1829
4712,1835
4713,1843
4714,1858
4715,1871
4716,1872
4717,1870
4718,1869
4719,1873
4720,1877
4721,1887
4722,1893
4723,1872
4724,1857
4725,1847
4726,1836
4727,1829
4728,1833
4729,1839
4730,1851
4731,1865
4732,1870
4733,1871
4734,1869
4735,1867
4736,1870
4737,1874
4738,1886
4739,1877
4740,1862
4741,1849
4742,1845
4743,1835
4744,1827
4745,1833
4746,1840
4747,1855
4748,1866
4749,1872
4750,1872
4751,1872
4752,1875
4753,1875
4754,1884
4755,1893
4756,1878
4757,1865
4758,1852
4759,1840
4760,1830
4761,1828
4762,1835
4763,1846
4764,1854
4765,1860
4766,1863
4767,1869
4768,1872
4769,1874
4770,1874
4771,1888
4772,1889
4773,1872
4774,1857
4775,1851
4776,1838
4777,1829
4778,1829
4779,1840
4780,1850
4781,1862
4782,1872
4783,1872
4784,1872
4785,1872
4786,1875
4787,1883
4788,1894
4789,1888
4790,1872
4791,1853
4792,1843
4793,1829
4794,1821
4795,1826
4796,1838
4797,1846
4798,1856
4799,1870
4800,1867
4801,1872
4802,1873
4803,1875
4804,1882
4805,1894
4806,1878
4807,1866
4808,1852
4809,1840
4810,1826
4811,1827
4812,1833
4813,1844
4814,1856
4815,1867
4816,1871
4817,1872
4818,1869
4819,1873
4820,1872
4821,1882
4822,1885
4823,1866
4824,1853
4825,1843
4826,1829
4827,1822
4828,1825
4829,1830
4830,1841
4831,1856
4832,1867
4833,1871
4834,1872
4835,1872
4836,1875
4837,1878
4838,1892
4839,1886
4840,1871
4841,1855
4842,1847
4843,1834
4844,1829
4845,1831
4846,1842
4847,1855
4848,1869
4849,1869
4850,1871
4851,1872
4852,1876
4853,1874
4854,1872
4855,1888
4856,1872
4857,1859
4858,1845
4859,1841
4860,1827
4861,1829
4862,1833
4863,1845
4864,1856
4865,1871
4866,1871
4867,1872
4868,1873
4869,1876
4870,1875
4871,1889
4872,1895
4873,1873
4874,1861
4875,1851
4876,1838
4877,1827
4878,1829
4879,1839
4880,1850
4881,1864
4882,1871
4883,1872
4884,1865
4885,1865
4886,1871
4887,1873
4888,1887
4889,1889
4890,1871
4891,1857
4892,1851
4893,1835
4894,1826
4895,1830
4896,1841
4897,1855
4898,1868
4899,1872
4900,1872
4901,1875
4902,1873
4903,1874
4904,1879
4905,1893
4906,1878
4907,1866
4908,1854
4909,1840
4910,1825
4911,1825
4912,1832
4913,1844
4914,1853
4915,1861
4916,1866
4917,1865
4918,1869
4919,1873
4920,1873
4921,1889
4922,1890
4923,1874
4924,1860
4925,1852
4926,1839
4927,1828
4928,1828
4929,1837
4930,1847
4931,1860
4932,1870
4933,1871
4934,1872
4935,1875
4936,1873
4937,1882
4938,1891
4939,1887
4940,1871
4941,1855
4942,1846
4943,1831
4944,1821
4945,1825
4946,1836
4947,1846
4948,1858
4949,1861
4950,1861
4951,1866
4952,1875
4953,1874
4954,1885
4955,1894
4956,1882
4957,1868
4958,1855
4959,1841
4960,1830
4961,1830
4962,1834
4963,1846
4964,1856
4965,1866
4966,1867
4967,1871
4968,1873
4969,1873
4970,1873
4971,1887
4972,1893
4973,1873
4974,1854
4975,1844
4976,1830
4977,1822
4978,1826
4979,1840
4980,1847
4981,2521
4982,1355
4983,1970
4984,2061
4985,2057
4986,2025
4987,2019
4988,2023
4989,1986
4990,1974
4991,1990
4992,2010
4993,1952
4994,1840
4995,1811
4996,1856
4997,1885
4998,1885
4999,1859
5000,1835
5001,1802
5002,1760
5003,1729
5004,1744
5005,1797
5006,1815
5007,1819
5008,1808
5009,1805
5010,1792
5011,1798
5012,2304
5013,1175
5014,1936
5015,2066
5016,2064
5017,2038
5018,2026
5019,2018
5020,1989
5021,2015
5022,2035
5023,2031
5024,1935
5025,1861
5026,1885
5027,1933
5028,1920
5029,1872
5030,1822
5031,1759
5032,1683
5033,1647
5034,1662
5035,1712
5036,1755
5037,1792
5038,1827
5039,1843
5040,1843
5041,1849
5042,1867
5043,1973
5044,1033
5045,1902
5046,2064
5047,2073
5048,2066
5049,2064
5050,2047
5051,2026
5052,2029
5053,2035
5054,2013
5055,1909
5056,1854
5057,1924
5058,1951
5059,1904
5060,1808
5061,1728
5062,1639
5063,1607
5064,1639
5065,1705
5066,1753
5067,1783
5068,1809
5069,1838
5070,1851
5071,1878
5072,1904
5073,1899
5074,1890
5075,847
5076,1866
5077,2063
5078,2086
5079,2086
5080,2095
5081,2095
5082,2067
5083,2047
5084,2028
5085,1949
5086,1827
5087,1834
5088,1937
5089,1952
5090,1891
5091,1798
5092,1698
5093,1600
5094,1591
5095,1648
5096,1709
5097,1754
5098,1792
5099,1822
5100,1840
5101,1865
5102,1886
5103,1898
5104,1911
5105,1922
5106,759
5107,1864
5108,2082
5109,2107
5110,2090
5111,2087
5112,2087
5113,2046
5114,2022
5115,2015
5116,1904
5117,1806
5118,1874
5119,1943
5120,1935
5121,1880
5122,1792
5123,1663
5124,1604
5125,1630
5126,1679
5127,1712
5128,1742
5129,1766
5130,1799
5131,1830
5132,1865
5133,1888
5134,1904
5135,1910
5136,1909
5137,555
5138,1798
5139,2111
5140,2139
5141,2123
5142,2126
5143,2103
5144,2027
5145,1979
5146,1966
5147,1880
5148,1827
5149,1907
5150,1966
5151,1938
5152,1872
5153,1755
5154,1642
5155,1630
5156,1675
5157,1715
5158,1743
5159,1771
5160,1779
5161,1793
5162,1811
5163,1845
5164,1875
5165,1898
5166,1904
5167,1910
5168,592
5169,1694
5170,2083
5171,2159
5172,2167
5173,2169
5174,2155
5175,2064
5176,1998
5177,1967
5178,1850
5179,1806
5180,1900
5181,1942
5182,1917
5183,1835
5184,1708
5185,1606
5186,1607
5187,1667
5188,1741
5189,1794
5190,1808
5191,1808
5192,1825
5193,1830
5194,1844
5195,1861
5196,1874
5197,1893
5198,1904
5199,1023
5200,1582
5201,2065
5202,2160
5203,2171
5204,2197
5205,2199
5206,2101
5207,2015
5208,1967
5209,1831
5210,1779
5211,1863
5212,1898
5213,1877
5214,1799
5215,1680
5216,1591
5217,1617
5218,1701
5219,1754
5220,1796
5221,1831
5222,1853
5223,1856
5224,1858
5225,1866
5226,1870
5227,1867
5228,1868
5229,1874
5230,1502
5231,1488
5232,2073
5233,2193
5234,2207
5235,2229
5236,2213
5237,2115
5238,2059
5239,1974
5240,1787
5241,1749
5242,1840
5243,1857
5244,1817
5245,1730
5246,1632
5247,1600
5248,1665
5249,1728
5250,1761
5251,1786
5252,1809
5253,1827
5254,1861
5255,1897
5256,1904
5257,1902
5258,1891
5259,1885
5260,1872
5261,2559
5262,1258
5263,2013
5264,2193
5265,2227
5266,2254
5267,2219
5268,2112
5269,2029
5270,1951
5271,1791
5272,1807
5273,1883
5274,1884
5275,1825
5276,1707
5277,1570
5278,1535
5279,1631
5280,1709
5281,1762
5282,1804
5283,1828
5284,1847
5285,1872
5286,1888
5287,1910
5288,1930
5289,1933
5290,1915
5291,1903
5292,2349
5293,1091
5294,1957
5295,2162
5296,2208
5297,2230
5298,2208
5299,2112
5300,2033
5301,1943
5302,1810
5303,1835
5304,1904
5305,1907
5306,1834
5307,1686
5308,1559
5309,1570
5310,1632
5311,1690
5312,1740
5313,1781
5314,1817
5315,1842
5316,1869
5317,1878
5318,1904
5319,1914
5320,1909
5321,1927
5322,1937
5323,2005
5324,913
5325,1950
5326,2213
5327,2240
5328,2256
5329,2206
5330,2116
5331,2047
5332,1933
5333,1793
5334,1808
5335,1859
5336,1844
5337,1776
5338,1651
5339,1558
5340,1584
5341,1648
5342,1707
5343,1737
5344,1761
5345,1791
5346,1823
5347,1855
5348,1887
5349,1903
5350,1908
5351,1919
5352,1920
5353,1920
5354,1931
5355,718
5356,1925
5357,2235
5358,2288
5359,2289
5360,2224
5361,2127
5362,2046
5363,1926
5364,1801
5365,1819
5366,1855
5367,1826
5368,1745
5369,1615
5370,1519
5371,1587
5372,1690
5373,1742
5374,1770
5375,1791
5376,1807
5377,1821
5378,1840
5379,1859
5380,1883
5381,1905
5382,1919
5383,1920
5384,1920
5385,1922
5386,526
5387,1854
5388,2240
5389,2322
5390,2315
5391,2249
5392,2147
5393,2067
5394,1922
5395,1797
5396,1794
5397,1840
5398,1825
5399,1743
5400,1584
5401,1503
5402,1584
5403,1671
5404,1744
5405,1803
5406,1830
5407,1840
5408,1853
5409,1865
5410,1857
5411,1867
5412,1878
5413,1897
5414,1904
5415,1917
5416,1917
5417,437
5418,1823
5419,2214
5420,2303
5421,2320
5422,2288
5423,2179
5424,2096
5425,1958
5426,1829
5427,1792
5428,1810
5429,1776
5430,1673
5431,1530
5432,1490
5433,1589
5434,1680
5435,1744
5436,1794
5437,1834
5438,1871
5439,1897
5440,1895
5441,1889
5442,1890
5443,1881
5444,1873
5445,1882
5446,1888
5447,1902
5448,528
5449,1651
5450,2162
5451,2301
5452,2327
5453,2291
5454,2194
5455,2133
5456,2028
5457,1889
5458,1821
5459,1825
5460,1761
5461,1636
5462,1491
5463,1466
5464,1575
5465,1680
5466,1742
5467,1786
5468,1826
5469,1851
5470,1877
5471,1906
5472,1934
5473,1930
5474,1919
5475,1904
5476,1891
5477,1884
5478,1875
5479,1034
5480,1514
5481,2128
5482,2288
5483,2311
5484,2282
5485,2192
5486,2147
5487,2056
5488,1919
5489,1862
5490,1849
5491,1779
5492,1648
5493,1486
5494,1452
5495,1556
5496,1651
5497,1728
5498,1784
5499,1823
5500,1852
5501,1878
5502,1903
5503,1914
5504,1921
5505,1938
5506,1936
5507,1921
5508,1904
5509,1891
5510,1578
5511,1429
5512,2070
5513,2239
5514,2267
5515,2247
5516,2174
5517,2149
5518,2079
5519,1936
5520,1856
5521,1865
5522,1807
5523,1664
5524,1506
5525,1481
5526,1577
5527,1650
5528,1711
5529,1756
5530,1805
5531,1841
5532,1874
5533,1895
5534,1906
5535,1919
5536,1926
5537,1931
5538,1941
5539,1939
5540,1920
5541,2597
5542,1232
5543,2009
5544,2189
5545,2218
5546,2195
5547,2142
5548,2159
5549,2145
5550,2002
5551,1892
5552,1863
5553,1787
5554,1648
5555,1511
5556,1503
5557,1600
5558,1673
5559,1725
5560,1754
5561,1789
5562,1821
5563,1853
5564,1874
5565,1904
5566,1917
5567,1918
5568,1920
5569,1923
5570,1918
5571,1924
5572,2350
5573,1072
5574,1991
5575,2203
5576,2228
5577,2189
5578,2116
5579,2139
5580,2153
5581,2015
5582,1904
5583,1872
5584,1797
5585,1647
5586,1496
5587,1491
5588,1618
5589,1716
5590,1751
5591,1779
5592,1802
5593,1814
5594,1833
5595,1858
5596,1877
5597,1901
5598,1912
5599,1919
5600,1920
5601,1923
5602,1920
5603,1918
5604,1906
5605,1915
5606,1905
5607,1887
5608,1872
5609,1869
5610,1853
5611,1843
5612,1843
5613,1854
5614,1857
5615,1872
5616,1872
5617,1876
5618,1873
5619,1873
5620,1873
5621,1874
5622,1890
5623,1873
5624,1866
5625,1854
5626,1845
5627,1834
5628,1833
5629,1837
5630,1849
5631,1863
5632,1872
5633,1872
5634,1865
5635,1865
5636,1862
5637,1867
5638,1877
5639,1882
5640,1865
5641,1853
5642,1846
5643,1839
5644,1831
5645,1830
5646,1835
5647,1840
5648,1856
5649,1867
5650,1867
5651,1865
5652,1870
5653,1871
5654,1872
5655,1887
5656,1888
5657,1867
5658,1846
5659,1836
5660,1822
5661,1824
5662,1834
5663,1840
5664,1843
5665,1858
5666,1863
5667,1860
5668,1863
5669,1872
5670,1870
5671,1873
5672,1885
5673,1875
5674,1862
5675,1851
5676,1841
5677,1835
5678,1831
5679,1831
5680,1840
5681,1855
5682,1870
5683,1871
5684,1869
5685,1868
5686,1869
5687,1872
5688,1882
5689,1889
5690,1872
5691,1858
5692,1850
5693,1837
5694,1818
5695,1825
5696,1828
5697,1841
5698,1855
5699,1870
5700,1870
5701,1871
5702,1872
5703,1872
5704,1878
5705,1888
5706,1882
5707,1870
5708,1856
5709,1846
5710,1831
5711,1825
5712,1833
5713,1841
5714,1851
5715,1867
5716,1869
5717,1862
5718,1872
5719,1867
5720,1870
5721,1872
5722,1881
5723,1870
5724,1856
5725,1845
5726,1839
5727,1825
5728,1829
5729,1825
5730,1840
5731,1847
5732,1862
5733,1862
5734,1870
5735,1873
5736,1872
5737,1872
5738,1884
5739,1889
5740,1872
5741,1858
5742,1847
5743,1838
5744,1824
5745,1829
5746,1835
5747,1850
5748,1859
5749,1867
5750,1869
5751,1871
5752,1872
5753,1872
5754,1871
5755,1881
5756,1879
5757,1861
5758,1847
5759,1850
5760,1834
5761,1830
5762,1827
5763,1840
5764,1851
5765,1866
5766,1870
5767,1872
5768,1872
5769,1872
5770,1873
5771,1878
5772,1891
5773,1879
5774,1862
5775,1852
5776,1843
5777,1835
5778,1831
5779,1837
5780,1845
5781,1856
5782,1866
5783,1868
5784,1861
5785,1867
5786,1867
5787,1869
5788,1877
5789,1889
5790,1875
5791,1861
5792,1847
5793,1839
5794,1830
5795,1830
5796,1837
5797,1847
5798,1860
5799,1870
5800,1866
5801,1872
5802,1873
5803,1873
5804,1874
5805,1889
5806,1887
5807,1869
5808,1853
5809,1847
5810,1837
5811,1830
5812,1831
5813,1840
5814,1841
5815,1858
5816,1862
5817,1862
5818,1872
5819,1872
5820,1869
5821,1879
5822,1891
5823,1879
5824,1866
5825,1854
5826,1846
5827,1834
5828,1831
5829,1834
5830,1843
5831,1857
5832,1867
5833,1870
5834,1872
5835,1872
5836,1874
5837,1875
5838,1885
5839,1893
5840,1874
5841,1861
5842,1851
5843,1840
5844,1826
5845,1826
5846,1828
5847,1845
5848,1856
5849,1863
5850,1872
5851,1872
5852,1874
5853,1873
5854,1878
5855,1892
5856,1889
5857,1872
5858,1857
5859,1849
5860,1839
5861,1831
5862,1829
5863,1840
5864,1856
5865,1865
5866,1871
5867,1872
5868,1872
5869,1873
5870,1874
5871,1879
5872,1893
5873,1883
5874,1862
5875,1849
5876,1841
5877,1826
5878,1826
5879,1834
5880,1845
5881,1858
5882,1869
5883,1869
5884,1871
5885,1872
5886,1875
5887,1876
5888,1886
5889,1893
5890,1875
5891,1863
5892,1849
5893,1840
5894,1829
5895,1832
5896,1837
5897,1847
5898,1859
5899,1869
5900,1871
5901,1872
5902,1875
5903,1874
5904,1870
5905,1883
5906,1882
5907,1868
5908,1855
5909,1851
5910,1838
5911,1829
5912,1831
5913,1840
5914,1849
5915,1865
5916,1870
5917,1862
5918,1872
5919,1869
5920,1872
5921,1881
5922,1891
5923,1885
5924,1871
5925,1855
5926,1850
5927,1834
5928,1831
5929,1832
5930,1843
5931,1856
5932,1867
5933,1872
5934,1869
5935,1870
5936,1868
5937,1869
5938,1877
5939,1887
5940,1871
5941,1856
5942,1853
5943,1840
5944,1831
5945,1831
5946,1837
5947,1849
5948,1859
5949,1870
5950,1871
5951,1872
5952,1879
5953,1873
5954,1876
5955,1891
5956,1893
5957,1872
5958,1857
5959,1851
5960,1837
5961,1830
5962,1831
5963,1840
5964,1843
5965,1859
5966,1865
5967,1867
5968,1869
5969,1873
5970,1873
5971,1881
5972,1895
5973,1882
5974,1869
5975,1855
5976,1847
5977,1833
5978,1831
5979,1831
5980,1843
5981,1854
5982,1868
5983,1870
5984,1872
5985,1872
5986,1874
5987,1872
5988,1883
5989,1892
5990,1876
5991,1867
5992,1854
5993,1840
5994,1823
5995,1824
5996,1833
5997,1840
5998,1853
5999,1870
6000,1872
6001,1872
6002,1873
6003,1874
6004,1875
6005,1887
6006,1887
6007,1871
6008,1856
6009,1847
6010,1838
6011,1831
6012,1833
6013,1840
6014,1851
6015,1863
6016,1869
6017,1867
6018,1872
6019,1869
6020,1872
6021,1872
6022,1887
6023,1877
6024,1860
6025,1845
6026,1839
6027,1830
6028,1826
6029,1821
6030,1840
6031,1850
6032,1866
6033,1866
6034,1869
6035,1872
6036,1873
6037,1875
6038,1882
6039,1892
6040,1875
6041,1863
6042,1847
6043,1839
6044,1828
6045,1833
6046,1835
6047,1846
6048,1857
6049,1865
6050,1867
6051,1872
6052,1873
6053,1872
6054,1872
6055,1883
6056,1885
6057,1869
6058,1851
6059,1851
6060,1837
6061,1828
6062,1831
6063,1840
6064,1846
6065,1862
6066,1869
6067,1870
6068,1872
6069,1873
6070,1872
6071,1879
6072,1893
6073,1886
6074,1872
6075,1856
6076,1845
6077,1834
6078,1828
6079,1831
6080,1841
6081,1854
6082,1867
6083,1870
6084,1866
6085,1870
6086,1870
6087,1870
6088,1873
6089,1893
6090,1879
6091,1863
6092,1851
6093,1840
6094,1831
6095,1831
6096,1834
6097,1846
6098,1857
6099,1869
6100,1870
6101,1872
6102,1872
6103,1871
6104,1874
6105,1883
6106,1892
6107,1872
6108,1857
6109,1846
6110,1837
6111,1826
6112,1830
6113,1839
6114,1840
6115,1856
6116,1861
6117,1862
6118,1863
6119,1867
6120,1869
6121,1875
6122,1891
6123,1885
6124,1869
6125,1856
6126,1846
6127,1835
6128,1827
6129,1835
6130,1842
6131,1854
6132,1863
6133,1871
6134,1872
6135,1872
6136,1873
6137,1874
6138,1882
6139,1891
6140,1876
6141,1866
6142,1850
6143,1842
6144,1825
6145,1827
6146,1827
6147,1841
6148,1851
6149,1862
6150,1866
6151,1872
6152,1874
6153,1876
6154,1875
6155,1887
6156,1890
6157,1873
6158,1859
6159,1855
6160,1838
6161,1833
6162,1831
6163,1839
6164,1851
6165,1863
6166,1871
6167,1872
6168,1873
6169,1873
6170,1872
6171,1884
6172,1895
6173,1885
6174,1863
6175,1852
6176,1840
6177,1827
6178,1820
6179,1835
6180,1845
6181,1855
6182,1862
6183,1871
6184,1872
6185,1872
6186,1872
6187,1873
6188,1879
6189,1892
6190,1877
6191,1863
6192,1853
6193,1840
6194,1831
6195,1830
6196,1833
6197,1846
6198,1856
6199,1870
6200,1870
6201,1872
6202,1873
6203,1874
6204,1870
6205,1878
6206,1883
6207,1868
6208,1851
6209,1849
6210,1839
6211,1828
6212,1829
6213,1839
6214,1851
6215,1862
6216,1869
6217,1869
6218,1867
6219,1873
6220,1871
6221,1877
6222,1889
6223,1886
6224,1870
6225,1856
6226,1846
6227,1834
6228,1829
6229,1833
6230,1841
6231,1854
6232,1866
6233,1870
6234,1865
6235,1870
6236,1870
6237,1870
6238,1874
6239,1886
6240,1872
6241,1857
6242,1853
6243,1841
6244,1830
6245,1830
6246,1834
6247,1845
6248,1857
6249,1870
6250,1869
6251,1871
6252,1873
6253,1874
6254,1878
6255,1887
6256,1888
6257,1872
6258,1861
6259,1851
6260,1839
6261,1826
6262,1830
6263,1837
6264,1845
6265,1854
6266,1863
6267,1867
6268,1866
6269,1872
6270,1872
6271,1879
6272,1894
6273,1886
6274,1871
6275,1856
6276,1843
6277,1833
6278,1829
6279,1831
6280,1842
6281,1853
6282,1869
6283,1869
6284,1871
6285,1872
6286,1872
6287,1873
6288,1882
6289,1895
6290,1877
6291,1867
6292,1854
6293,1841
6294,1825
6295,1825
6296,1827
6297,1840
6298,1851
6299,1869
6300,1872
6301,1872
6302,1872
6303,1872
6304,1873
6305,1888
6306,1888
6307,1873
6308,1861
6309,1850
6310,1838
6311,1826
6312,1831
6313,1838
6314,1847
6315,1861
6316,1859
6317,1870
6318,1866
6319,1874
6320,1868
6321,1872
6322,1887
6323,1878
6324,1862
6325,1853
6326,1843
6327,1831
6328,1826
6329,1827
6330,1838
6331,1845
6332,1867
6333,1872
6334,1870
6335,1872
6336,1874
6337,1873
6338,1880
6339,1893
6340,1879
6341,1865
6342,1856
6343,1841
6344,1831
6345,1831
6346,1835
6347,1846
6348,1857
6349,1867
6350,1870
6351,1872
6352,1872
6353,1872
6354,1869
6355,1878
6356,1887
6357,1871
6358,1856
6359,1853
6360,1840
6361,1830
6362,1829
6363,1837
6364,1851
6365,1861
6366,1871
6367,1872
6368,1872
6369,1874
6370,1872
6371,1877
6372,1892
6373,1889
6374,1872
6375,1857
6376,1850
6377,1835
6378,1828
6379,1833
6380,1841
6381,1853
6382,1865
6383,1871
6384,1867
6385,1867
6386,1871
6387,1871
6388,1874
6389,1893
6390,1875
6391,1865
6392,1851
6393,1841
6394,1831
6395,1828
6396,1833
6397,1845
6398,1856
6399,1870
6400,1871
6401,1872
6402,1874
6403,1875
6404,1874
6405,1883
6406,1887
6407,1872
6408,1857
6409,1847
6410,1839
6411,1829
6412,1829
6413,1838
6414,1841
6415,1850
6416,1865
6417,1866
6418,1868
6419,1875
6420,1877
6421,1879
6422,1889
6423,1885
6424,1871
6425,1856
6426,1850
6427,1837
6428,1827
6429,1830
6430,1840
6431,1852
6432,1865
6433,1872
6434,1872
6435,1873
6436,1874
6437,1874
6438,1883
6439,1895
6440,1882
6441,1867
6442,1851
6443,1844
6444,1823
6445,1824
6446,1823
6447,1839
6448,1851
6449,1859
6450,1866
6451,1866
6452,1875
6453,1873
6454,1872
6455,1886
6456,1895
6457,1885
6458,1872
6459,1858
6460,1840
6461,1830
6462,1823
6463,1826
6464,1839
6465,1851
6466,1865
6467,1871
6468,1872
6469,1875
6470,1872
6471,1877
6472,1890
6473,1888
6474,1863
6475,1855
6476,1842
6477,1830
6478,1826
6479,1834
6480,1842
6481,1855
6482,1867
6483,1872
6484,1872
6485,1872
6486,1871
6487,1872
6488,1877
6489,1890
6490,1879
6491,1872
6492,1856
6493,1845
6494,1833
6495,1830
6496,1831
6497,1846
6498,1855
6499,1870
6500,1872
6501,1873
6502,1872
6503,1872
6504,1868
6505,1877
6506,1887
6507,1871
6508,1856
6509,1854
6510,1840
6511,1830
6512,1833
6513,1835
6514,1847
6515,1857
6516,1869
6517,1872
6518,1866
6519,1873
6520,1866
6521,1874
6522,1890
6523,1889
6524,1872
6525,1857
6526,1850
6527,1835
6528,1830
6529,1831
6530,1840
6531,1853
6532,1866
6533,1872
6534,1862
6535,1869
6536,1871
6537,1871
6538,1874
6539,1886
6540,1874
6541,1870
6542,1855
6543,1846
6544,1833
6545,1829
6546,1831
6547,1844
6548,1856
6549,1866
6550,1872
6551,1872
6552,1872
6553,1874
6554,1875
6555,1884
6556,1890
6557,1873
6558,1860
6559,1850
6560,1840
6561,1828
6562,1830
6563,1834
6564,1841
6565,1855
6566,1863
6567,1863
6568,1869
6569,1871
6570,1871
6571,1876
6572,1889
6573,1888
6574,1872
6575,1857
6576,1851
6577,1837
6578,1829
6579,1830
6580,1840
6581,1851
6582,1860
6583,1871
6584,1872
6585,1873
6586,1874
6587,1873
6588,1879
6589,1893
6590,1883
6591,1867
6592,1856
6593,1844
6594,1826
6595,1823
6596,1825
6597,1839
6598,1850
6599,774
6600,1866
6601,2023
6602,2022
6603,2000
6604,1978
6605,1986
6606,1984
6607,1967
6608,1986
6609,2028
6610,2031
6611,1946
6612,1902
6613,1908
6614,1930
6615,1926
6616,1903
6617,1867
6618,1818
6619,1755
6620,1697
6621,1686
6622,1730
6623,1769
6624,1783
6625,1789
6626,1796
6627,1790
6628,1791
6629,1805
6630,589
6631,1744
6632,1988
6633,2004
6634,1997
6635,1991
6636,2007
6637,2006
6638,2022
6639,2062
6640,2075
6641,2032
6642,1943
6643,1935
6644,1945
6645,1947
6646,1910
6647,1863
6648,1803
6649,1728
6650,1659
6651,1649
6652,1686
6653,1737
6654,1767
6655,1798
6656,1827
6657,1825
6658,1823
6659,1838
6660,1841
6661,605
6662,1666
6663,1971
6664,2011
6665,2023
6666,2033
6667,2064
6668,2064
6669,2053
6670,2042
6671,2046
6672,1997
6673,1927
6674,1927
6675,1968
6676,1965
6677,1894
6678,1809
6679,1712
6680,1617
6681,1606
6682,1663
6683,1719
6684,1765
6685,1797
6686,1812
6687,1831
6688,1853
6689,1890
6690,1899
6691,1891
6692,886
6693,1611
6694,1990
6695,2047
6696,2055
6697,2065
6698,2100
6699,2093
6700,2059
6701,2054
6702,2039
6703,1937
6704,1851
6705,1920
6706,1984
6707,1942
6708,1845
6709,1744
6710,1626
6711,1568
6712,1594
6713,1655
6714,1712
6715,1759
6716,1794
6717,1814
6718,1835
6719,1857
6720,1875
6721,1902
6722,1918
6723,1696
6724,1525
6725,2017
6726,2083
6727,2074
6728,2068
6729,2093
6730,2067
6731,2045
6732,2057
6733,2030
6734,1897
6735,1857
6736,1946
6737,1968
6738,1929
6739,1859
6740,1739
6741,1616
6742,1584
6743,1628
6744,1665
6745,1710
6746,1743
6747,1776
6748,1808
6749,1840
6750,1870
6751,1890
6752,1904
6753,1907
6754,2459
6755,1390
6756,2030
6757,2112
6758,2101
6759,2100
6760,2113
6761,2057
6762,2010
6763,2013
6764,1987
6765,1887
6766,1919
6767,1997
6768,1986
6769,1914
6770,1799
6771,1663
6772,1599
6773,1630
6774,1675
6775,1714
6776,1745
6777,1761
6778,1771
6779,1799
6780,1831
6781,1858
6782,1887
6783,1898
6784,1904
6785,2601
6786,1294
6787,2003
6788,2138
6789,2158
6790,2165
6791,2171
6792,2096
6793,2031
6794,2011
6795,1923
6796,1811
6797,1889
6798,1957
6799,1941
6800,1863
6801,1744
6802,1616
6803,1584
6804,1644
6805,1712
6806,1771
6807,1789
6808,1797
6809,1811
6810,1825
6811,1835
6812,1853
6813,1861
6814,1883
6815,1897
6816,2160
6817,999
6818,1971
6819,2139
6820,2165
6821,2178
6822,2210
6823,2143
6824,2064
6825,2033
6826,1919
6827,1807
6828,1862
6829,1916
6830,1905
6831,1840
6832,1703
6833,1578
6834,1574
6835,1653
6836,1719
6837,1757
6838,1795
6839,1834
6840,1847
6841,1855
6842,1869
6843,1872
6844,1866
6845,1869
6846,1872
6847,1886
6848,782
6849,1914
6850,2147
6851,2179
6852,2194
6853,2214
6854,2145
6855,2096
6856,2074
6857,1945
6858,1834
6859,1873
6860,1920
6861,1886
6862,1786
6863,1609
6864,1499
6865,1565
6866,1657
6867,1723
6868,1765
6869,1807
6870,1834
6871,1856
6872,1885
6873,1906
6874,1904
6875,1895
6876,1891
6877,1878
6878,1872
6879,579
6880,1836
6881,2122
6882,2175
6883,2188
6884,2190
6885,2128
6886,2098
6887,2055
6888,1925
6889,1862
6890,1915
6891,1931
6892,1887
6893,1765
6894,1587
6895,1535
6896,1619
6897,1681
6898,1716
6899,1758
6900,1788
6901,1819
6902,1854
6903,1878
6904,1895
6905,1915
6906,1935
6907,1920
6908,1907
6909,1895
6910,461
6911,1747
6912,2111
6913,2185
6914,2205
6915,2208
6916,2158
6917,2110
6918,2031
6919,1890
6920,1851
6921,1917
6922,1947
6923,1890
6924,1705
6925,1519
6926,1497
6927,1578
6928,1645
6929,1697
6930,1741
6931,1778
6932,1827
6933,1857
6934,1883
6935,1900
6936,1904
6937,1909
6938,1922
6939,1936
6940,1931
6941,476
6942,1702
6943,2127
6944,2197
6945,2209
6946,2205
6947,2144
6948,2092
6949,2015
6950,1904
6951,1872
6952,1930
6953,1951
6954,1851
6955,1669
6956,1521
6957,1520
6958,1607
6959,1679
6960,1719
6961,1743
6962,1773
6963,1801
6964,1840
6965,1872
6966,1901
6967,1911
6968,1920
6969,1925
6970,1921
6971,1921
6972,720
6973,1635
6974,2128
6975,2211
6976,2213
6977,2195
6978,2122
6979,2074
6980,2022
6981,1930
6982,1904
6983,1950
6984,1938
6985,1830
6986,1639
6987,1488
6988,1520
6989,1648
6990,1715
6991,1746
6992,1773
6993,1795
6994,1808
6995,1827
6996,1853
6997,1875
6998,1897
6999,1913
7000,1921
7001,1921
7002,1919
7003,1022
7004,1566
7005,2122
7006,2240
7007,2238
7008,2212
7009,2137
7010,2096
7011,2022
7012,1914
7013,1878
7014,1922
7015,1914
7016,1808
7017,1622
7018,1482
7019,1533
7020,1635
7021,1712
7022,1776
7023,1814
7024,1824
7025,1839
7026,1853
7027,1861
7028,1862
7029,1875
7030,1885
7031,1899
7032,1909
7033,1918
7034,1984
7035,1423
7036,2087
7037,2215
7038,2229
7039,2239
7040,2176
7041,2121
7042,2064
7043,1943
7044,1879
7045,1907
7046,1888
7047,1788
7048,1611
7049,1476
7050,1520
7051,1622
7052,1706
7053,1757
7054,1798
7055,1835
7056,1872
7057,1878
7058,1886
7059,1885
7060,1886
7061,1878
7062,1879
7063,1879
7064,1894
7065,2514
7066,1193
7067,2023
7068,2209
7069,2237
7070,2238
7071,2179
7072,2141
7073,2080
7074,1957
7075,1894
7076,1919
7077,1903
7078,1795
7079,1626
7080,1468
7081,1488
7082,1605
7083,1697
7084,1748
7085,1791
7086,1823
7087,1851
7088,1876
7089,1909
7090,1923
7091,1911
7092,1905
7093,1904
7094,1886
7095,1878
7096,2171
7097,981
7098,1959
7099,2195
7100,2241
7101,2249
7102,2197
7103,2151
7104,2073
7105,1967
7106,1917
7107,1927
7108,1908
7109,1822
7110,1657
7111,1472
7112,1458
7113,1569
7114,1663
7115,1728
7116,1767
7117,1811
7118,1843
7119,1865
7120,1892
7121,1907
7122,1927
7123,1939
7124,1926
7125,1910
7126,1899
7127,1987
7128,885
7129,1914
7130,2151
7131,2199
7132,2215
7133,2170
7134,2124
7135,2079
7136,1967
7137,1914
7138,1936
7139,1951
7140,1871
7141,1708
7142,1521
7143,1488
7144,1575
7145,1648
7146,1706
7147,1756
7148,1798
7149,1839
7150,1867
7151,1887
7152,1904
7153,1918
7154,1922
7155,1932
7156,1942
7157,1930
7158,1910
7159,734
7160,1878
7161,2137
7162,2185
7163,2195
7164,2145
7165,2111
7166,2081
7167,1974
7168,1904
7169,1926
7170,1936
7171,1872
7172,1744
7173,1579
7174,1517
7175,1598
7176,1670
7177,1708
7178,1734
7179,1772
7180,1803
7181,1840
7182,1872
7183,1898
7184,1909
7185,1920
7186,1922
7187,1926
7188,1931
7189,1936
7190,525
7191,1812
7192,2153
7193,2219
7194,2207
7195,2160
7196,2105
7197,2042
7198,1955
7199,1895
7200,1915
7201,1936
7202,1874
7203,1749
7204,1582
7205,1511
7206,1607
7207,1689
7208,1728
7209,1759
7210,1787
7211,1797
7212,1819
7213,1841
7214,1872
7215,1895
7216,1917
7217,1919
7218,1922
7219,1921
7220,1917
7221,1915
7222,1915
7223,1920
7224,1898
7225,1883
7226,1870
7227,1856
7228,1840
7229,1840
7230,1841
7231,1851
7232,1863
7233,1875
7234,1877
7235,1879
7236,1879
7237,1881
7238,1881
7239,1894
7240,1892
7241,1872
7242,1858
7243,1850
7244,1839
7245,1829
7246,1835
7247,1840
7248,1850
7249,1865
7250,1871
7251,1872
7252,1872
7253,1872
7254,1870
7255,1872
7256,1887
7257,1873
7258,1859
7259,1850
7260,1841
7261,1826
7262,1823
7263,1827
7264,1840
7265,1847
7266,1859
7267,1866
7268,1869
7269,1867
7270,1871
7271,1872
7272,1876
7273,1886
7274,1872
7275,1859
7276,1846
7277,1837
7278,1827
7279,1827
7280,1833
7281,1846
7282,1857
7283,1863
7284,1861
7285,1862
7286,1866
7287,1869
7288,1872
7289,1888
7290,1885
7291,1871
7292,1856
7293,1841
7294,1833
7295,1825
7296,1830
7297,1840
7298,1849
7299,1860
7300,1871
7301,1869
7302,1869
7303,1872
7304,1872
7305,1878
7306,1888
7307,1879
7308,1865
7309,1851
7310,1843
7311,1831
7312,1828
7313,1834
7314,1838
7315,1847
7316,1860
7317,1862
7318,1861
7319,1872
7320,1867
7321,1874
7322,1883
7323,1890
7324,1875
7325,1862
7326,1853
7327,1840
7328,1827
7329,1830
7330,1835
7331,1847
7332,1859
7333,1867
7334,1870
7335,1872
7336,1872
7337,1872
7338,1873
7339,1889
7340,1893
7341,1872
7342,1856
7343,1852
7344,1834
7345,1822
7346,1825
7347,1834
7348,1845
7349,1856
7350,1861
7351,1863
7352,1868
7353,1873
7354,1872
7355,1879
7356,1891
7357,1883
7358,1872
7359,1851
7360,1847
7361,1835
7362,1830
7363,1830
7364,1842
7365,1850
7366,1866
7367,1868
7368,1867
7369,1871
7370,1872
7371,1874
7372,1886
7373,1894
7374,1873
7375,1858
7376,1847
7377,1840
7378,1826
7379,1830
7380,1837
7381,1849
7382,1857
7383,1869
7384,1867
7385,1871
7386,1872
7387,1872
7388,1877
7389,1885
7390,1889
7391,1872
7392,1858
7393,1853
7394,1839
7395,1829
7396,1830
7397,1840
7398,1853
7399,1865
7400,1868
7401,1871
7402,1872
7403,1874
7404,1867
7405,1872
7406,1885
7407,1876
7408,1862
7409,1855
7410,1846
7411,1833
7412,1830
7413,1831
7414,1840
7415,1854
7416,1864
7417,1868
7418,1867
7419,1866
7420,1872
7421,1872
7422,1879
7423,1890
7424,1873
7425,1863
7426,1851
7427,1840
7428,1828
7429,1827
7430,1835
7431,1847
7432,1856
7433,1869
7434,1866
7435,1863
7436,1870
7437,1869
7438,1867
7439,1883
7440,1881
7441,1865
7442,1855
7443,1852
7444,1836
7445,1827
7446,1829
7447,1838
7448,1850
7449,1863
7450,1867
7451,1872
7452,1873
7453,1873
7454,1872
7455,1882
7456,1894
7457,1885
7458,1868
7459,1855
7460,1846
7461,1833
7462,1829
7463,1830
7464,1839
7465,1846
7466,1858
7467,1859
7468,1866
7469,1872
7470,1873
7471,1872
7472,1882
7473,1890
7474,1874
7475,1864
7476,1851
7477,1841
7478,1830
7479,1831
7480,1837
7481,1850
7482,1858
7483,1871
7484,1869
7485,1872
7486,1876
7487,1874
7488,1877
7489,1889
7490,1893
7491,1872
7492,1858
7493,1850
7494,1829
7495,1821
7496,1824
7497,1831
7498,1843
7499,1866
7500,1868
7501,1872
7502,1873
7503,1872
7504,1872
7505,1876
7506,1894
7507,1887
7508,1870
7509,1856
7510,1849
7511,1835
7512,1824
7513,1834
7514,1842
7515,1853
7516,1859
7517,1869
7518,1871
7519,1872
7520,1870
7521,1866
7522,1873
7523,1887
7524,1873
7525,1862
7526,1846
7527,1840
7528,1825
7529,1822
7530,1827
7531,1840
7532,1851
7533,1868
7534,1872
7535,1872
7536,1872
7537,1872
7538,1876
7539,1887
7540,1889
7541,1873
7542,1861
7543,1853
7544,1840
7545,1831
7546,1834
7547,1840
7548,1847
7549,1858
7550,1866
7551,1866
7552,1868
7553,1872
7554,1871
7555,1875
7556,1887
7557,1881
7558,1866
7559,1855
7560,1845
7561,1834
7562,1829
7563,1831
7564,1840
7565,1852
7566,1867
7567,1870
7568,1871
7569,1873
7570,1872
7571,1874
7572,1883
7573,1893
7574,1877
7575,1867
7576,1855
7577,1843
7578,1828
7579,1830
7580,1835
7581,1845
7582,1855
7583,1867
7584,1861
7585,1867
7586,1869
7587,1870
7588,1872
7589,1888
7590,1890
7591,1873
7592,1858
7593,1850
7594,1840
7595,1830
7596,1828
7597,1837
7598,1850
7599,1861
7600,1867
7601,1872
7602,1872
7603,1873
7604,1872
7605,1877
7606,1889
7607,1887
7608,1869
7609,1856
7610,1846
7611,1835
7612,1827
7613,1831
7614,1835
7615,1844
7616,1858
7617,1861
7618,1865
7619,1873
7620,1871
7621,1873
7622,1879
7623,1893
7624,1879
7625,1863
7626,1851
7627,1841
7628,1829
7629,1829
7630,1831
7631,1843
7632,1855
7633,1863
7634,1866
7635,1871
7636,1877
7637,1873
7638,1873
7639,1887
7640,1894
7641,1877
7642,1867
7643,1856
7644,1837
7645,1824
7646,1821
7647,1829
7648,1840
7649,1852
7650,1858
7651,1859
7652,1868
7653,1872
7654,1874
7655,1884
7656,1902
7657,1898
7658,1873
7659,1858
7660,1846
7661,1831
7662,1822
7663,1823
7664,1839
7665,1851
7666,1863
7667,1871
7668,1871
7669,1872
7670,1875
7671,1876
7672,1886
7673,1900
7674,1885
7675,1866
7676,1850
7677,1839
7678,1819
7679,1822
7680,1824
7681,1843
7682,1852
7683,1867
7684,1872
7685,1872
7686,1875
7687,1874
7688,1881
7689,1893
7690,1903
7691,1882
7692,1867
7693,1853
7694,1837
7695,1822
7696,1819
7697,1833
7698,1844
7699,1858
7700,1871
7701,1872
7702,1872
7703,1878
7704,1872
7705,1875
7706,1893
7707,1887
7708,1867
7709,1856
7710,1846
7711,1829
7712,1822
7713,1825
7714,1837
7715,1846
7716,1861
7717,1867
7718,1870
7719,1870
7720,1874
7721,1876
7722,1884
7723,1899
7724,1882
7725,1868
7726,1851
7727,1840
7728,1822
7729,1822
7730,1826
7731,1841
7732,1853
7733,1863
7734,1859
7735,1861
7736,1867
7737,1872
7738,1872
7739,1883
7740,1893
7741,1872
7742,1860
7743,1850
7744,1839
7745,1826
7746,1829
7747,1833
7748,1846
7749,1861
7750,1866
7751,1871
7752,1874
7753,1876
7754,1874
7755,1881
7756,1897
7757,1889
7758,1874
7759,1859
7760,1847
7761,1829
7762,1824
7763,1826
7764,1834
7765,1842
7766,1856
7767,1864
7768,1862
7769,1872
7770,1874
7771,1876
7772,1882
7773,1894
7774,1883
7775,1868
7776,1855
7777,1844
7778,1830
7779,1826
7780,1833
7781,1845
7782,1855
7783,1867
7784,1869
7785,1871
7786,1873
7787,1872
7788,1872
7789,1887
7790,1893
7791,1875
7792,1863
7793,1850
7794,1831
7795,1823
7796,1823
7797,1830
7798,1841
7799,1859
7800,1869
7801,1872
7802,1871
7803,1872
7804,1873
7805,1874
7806,1891
7807,1889
7808,1873
7809,1856
7810,1847
7811,1835
7812,1830
7813,1828
7814,1840
7815,1851
7816,1863
7817,1869
7818,1862
7819,1867
7820,1872
7821,1869
7822,1875
7823,1889
7824,1873
7825,1859
7826,1846
7827,1839
7828,1824
7829,1821
7830,1827
7831,1840
7832,1856
7833,1869
7834,1869
7835,1870
7836,1872
7837,1873
7838,1874
7839,1885
7840,1891
7841,1874
7842,1860
7843,1851
7844,1840
7845,1830
7846,1833
7847,1834
7848,1847
7849,1857
7850,1867
7851,1870
7852,1871
7853,1872
7854,1873
7855,1872
7856,1884
7857,1887
7858,1865
7859,1856
7860,1848
7861,1835
7862,1827
7863,1830
7864,1840
7865,1851
7866,1862
7867,1869
7868,1871
7869,1872
7870,1873
7871,1874
7872,1879
7873,1895
7874,1885
7875,1868
7876,1854
7877,1842
7878,1830
7879,1830
7880,1830
7881,1843
7882,1855
7883,1866
7884,1861
7885,1867
7886,1870
7887,1872
7888,1871
7889,1885
7890,1895
7891,1875
7892,1861
7893,1851
7894,1840
7895,1829
7896,1829
7897,1836
7898,1845
7899,1857
7900,1870
7901,1871
7902,1871
7903,1873
7904,1872
7905,1877
7906,1889
7907,1890
7908,1872
7909,1858
7910,1849
7911,1835
7912,1827
7913,1830
7914,1833
7915,1846
7916,1859
7917,1863
7918,1863
7919,1872
7920,1874
7921,1873
7922,1881
7923,1890
7924,1883
7925,1869
7926,1855
7927,1845
7928,1831
7929,1828
7930,1834
7931,1843
7932,1855
7933,1867
7934,1871
7935,1871
7936,1872
7937,1873
7938,1874
7939,1884
7940,1893
7941,1875
7942,1865
7943,1852
7944,1834
7945,1823
7946,1821
7947,1826
7948,1844
7949,1854
7950,1865
7951,1867
7952,1875
7953,1876
7954,1875
7955,1874
7956,1885
7957,1882
7958,1866
7959,1856
7960,1849
7961,1838
7962,1826
7963,1831
7964,1840
7965,1853
7966,1866
7967,1871
7968,1872
7969,1874
7970,1872
7971,1873
7972,1877
7973,1895
7974,1875
7975,1866
7976,1850
7977,1840
7978,1824
7979,1830
7980,1835
7981,1845
7982,1855
7983,1869
7984,1870
7985,1871
7986,1872
7987,1874
7988,1874
7989,1885
7990,1891
7991,1874
7992,1863
7993,1850
7994,1840
7995,1831
7996,1830
7997,1835
7998,1844
7999,1857
8000,1868
8001,1871
8002,1871
8003,1872
8004,1870
8005,1868
8006,1879
8007,1883
8008,1865
8009,1855
8010,1849
8011,1835
8012,1826
8013,1833
8014,1840
8015,1851
8016,1863
8017,1871
8018,1862
8019,1871
8020,1871
8021,1874
8022,1878
8023,1894
8024,1884
8025,1868
8026,1854
8027,1843
8028,1830
8029,1826
8030,1833
8031,1840
8032,1853
8033,1866
8034,1862
8035,1867
8036,1867
8037,1869
8038,1872
8039,1876
8040,1884
8041,1872
8042,1862
8043,1853
8044,1842
8045,1827
8046,1830
8047,1831
8048,1846
8049,1858
8050,1870
8051,1870
8052,1872
8053,1873
8054,1872
8055,1875
8056,1889
8057,1890
8058,1872
8059,1858
8060,1849
8061,1838
8062,1825
8063,1833
8064,1834
8065,1843
8066,1856
8067,1861
8068,1869
8069,1872
8070,1872
8071,1872
8072,1877
8073,1891
8074,1886
8075,1871
8076,1857
8077,1847
8078,1833
8079,1826
8080,1831
8081,1845
8082,1855
8083,1867
8084,1869
8085,1870
8086,1872
8087,1872
8088,1873
8089,1882
8090,1891
8091,1874
8092,1864
8093,1849
8094,1838
8095,1821
8096,1822
8097,1831
8098,1843
8099,1859
8100,1871
8101,1872
8102,1871
8103,1873
8104,1874
8105,1875
8106,1887
8107,1891
8108,1872
8109,1856
8110,1849
8111,1835
8112,1824
8113,1829
8114,1839
8115,1846
8116,1862
8117,1869
8118,1858
8119,1866
8120,1870
8121,1869
8122,1872
8123,1884
8124,1877
8125,1866
8126,1851
8127,1841
8128,1826
8129,1821
8130,1823
8131,1836
8132,1851
8133,1866
8134,1872
8135,1872
8136,1873
8137,1873
8138,1872
8139,1878
8140,1894
8141,1879
8142,1865
8143,1851
8144,1841
8145,1827
8146,1829
8147,1835
8148,1845
8149,1856
8150,1863
8151,1869
8152,1871
8153,1872
8154,1867
8155,1872
8156,1883
8157,1883
8158,1870
8159,1858
8160,1850
8161,1835
8162,1827
8163,1829
8164,1839
8165,1849
8166,1861
8167,1869
8168,1870
8169,1872
8170,1878
8171,1876
8172,1877
8173,1894
8174,1885
8175,1870
8176,1856
8177,1846
8178,1834
8179,1827
8180,1831
8181,1842
8182,1855
8183,1869
8184,1866
8185,1867
8186,1870
8187,1869
8188,1874
8189,1882
8190,1894
8191,1877
8192,1867
8193,1855
8194,1842
8195,1830
8196,1829
8197,1831
8198,1845
8199,1854
8200,1870
8201,1872
8202,1873
8203,1876
8204,1873
8205,1878
8206,1888
8207,1891
8208,1872
8209,1860
8210,1853
8211,1838
8212,1823
8213,1827
8214,1830
8215,1840
8216,832
8217,1610
8218,1983
8219,2006
8220,1995
8221,1967
8222,1967
8223,1978
8224,1968
8225,1977
8226,2022
8227,2066
8228,2034
8229,1963
8230,1946
8231,1941
8232,1931
8233,1905
8234,1859
8235,1808
8236,1755
8237,1708
8238,1686
8239,1721
8240,1775
8241,1797
8242,1803
8243,1798
8244,1792
8245,1785
8246,1793
8247,1682
8248,1467
8249,1940
8250,1997
8251,1989
8252,1980
8253,1987
8254,1999
8255,2004
8256,2035
8257,2077
8258,2091
8259,2023
8260,1952
8261,1938
8262,1929
8263,1890
8264,1824
8265,1760
8266,1697
8267,1648
8268,1655
8269,1715
8270,1774
8271,1808
8272,1827
8273,1851
8274,1850
8275,1845
8276,1846
8277,1853
8278,2549
8279,1277
8280,1904
8281,1983
8282,1991
8283,2010
8284,2034
8285,2067
8286,2070
8287,2077
8288,2091
8289,2086
8290,1989
8291,1913
8292,1927
8293,1945
8294,1903
8295,1814
8296,1717
8297,1617
8298,1594
8299,1635
8300,1703
8301,1750
8302,1777
8303,1801
8304,1809
8305,1836
8306,1863
8307,1887
8308,1883
8309,2263
8310,1129
8311,1905
8312,2023
8313,2032
8314,2042
8315,2077
8316,2093
8317,2075
8318,2059
8319,2037
8320,1998
8321,1877
8322,1887
8323,1971
8324,1980
8325,1906
8326,1805
8327,1680
8328,1583
8329,1585
8330,1642
8331,1698
8332,1743
8333,1781
8334,1807
8335,1829
8336,1850
8337,1873
8338,1888
8339,1902
8340,1954
8341,949
8342,1905
8343,2064
8344,2068
8345,2057
8346,2077
8347,2081
8348,2037
8349,2031
8350,2055
8351,1972
8352,1869
8353,1911
8354,1971
8355,1954
8356,1891
8357,1786
8358,1653
8359,1596
8360,1623
8361,1667
8362,1703
8363,1735
8364,1759
8365,1794
8366,1826
8367,1855
8368,1875
8369,1897
8370,1904
8371,1906
8372,740
8373,1898
8374,2105
8375,2111
8376,2096
8377,2117
8378,2091
8379,2018
8380,2016
8381,2032
8382,1923
8383,1847
8384,1927
8385,1976
8386,1943
8387,1861
8388,1741
8389,1631
8390,1629
8391,1675
8392,1712
8393,1739
8394,1755
8395,1763
8396,1779
8397,1805
8398,1841
8399,1872
8400,1894
8401,1902
8402,1906
8403,637
8404,1854
8405,2092
8406,2127
8407,2134
8408,2131
8409,2105
8410,2044
8411,2029
8412,2027
8413,1888
8414,1845
8415,1936
8416,1973
8417,1926
8418,1824
8419,1680
8420,1591
8421,1610
8422,1677
8423,1744
8424,1780
8425,1791
8426,1797
8427,1808
8428,1817
8429,1829
8430,1846
8431,1863
8432,1878
8433,1898
8434,476
8435,1754
8436,2077
8437,2116
8438,2119
8439,2149
8440,2139
8441,2068
8442,2045
8443,2042
8444,1916
8445,1863
8446,1921
8447,1936
8448,1904
8449,1811
8450,1666
8451,1584
8452,1615
8453,1684
8454,1731
8455,1773
8456,1808
8457,1839
8458,1842
8459,1853
8460,1859
8461,1861
8462,1860
8463,1867
8464,1872
8465,583
8466,1648
8467,2076
8468,2151
8469,2160
8470,2192
8471,2170
8472,2099
8473,2091
8474,2055
8475,1867
8476,1817
8477,1895
8478,1915
8479,1867
8480,1759
8481,1616
8482,1564
8483,1627
8484,1691
8485,1741
8486,1777
8487,1805
8488,1831
8489,1856
8490,1887
8491,1894
8492,1892
8493,1887
8494,1881
8495,1870
8496,1168
8497,1513
8498,2035
8499,2147
8500,2164
8501,2197
8502,2166
8503,2095
8504,2064
8505,1995
8506,1840
8507,1854
8508,1917
8509,1921
8510,1872
8511,1758
8512,1613
8513,1583
8514,1639
8515,1693
8516,1734
8517,1760
8518,1782
8519,1814
8520,1845
8521,1872
8522,1894
8523,1913
8524,1921
8525,1909
8526,1899
8527,2176
8528,1392
8529,2006
8530,2141
8531,2161
8532,2192
8533,2167
8534,2093
8535,2053
8536,1970
8537,1826
8538,1843
8539,1918
8540,1942
8541,1895
8542,1751
8543,1598
8544,1556
8545,1610
8546,1672
8547,1715
8548,1763
8549,1797
8550,1825
8551,1855
8552,1874
8553,1892
8554,1902
8555,1906
8556,1922
8557,1934
8558,2613
8559,1271
8560,2009
8561,2166
8562,2175
8563,2195
8564,2163
8565,2082
8566,2039
8567,1947
8568,1805
8569,1819
8570,1891
8571,1907
8572,1872
8573,1762
8574,1634
8575,1613
8576,1664
8577,1703
8578,1714
8579,1726
8580,1751
8581,1787
8582,1824
8583,1862
8584,1886
8585,1902
8586,1911
8587,1918
8588,1920
8589,2311
8590,1116
8591,2008
8592,2205
8593,2223
8594,2233
8595,2189
8596,2071
8597,1995
8598,1901
8599,1794
8600,1823
8601,1890
8602,1896
8603,1858
8604,1733
8605,1616
8606,1624
8607,1706
8608,1738
8609,1753
8610,1763
8611,1773
8612,1782
8613,1808
8614,1835
8615,1867
8616,1888
8617,1906
8618,1911
8619,1911
8620,1957
8621,883
8622,1958
8623,2220
8624,2260
8625,2261
8626,2222
8627,2099
8628,1997
8629,1878
8630,1766
8631,1793
8632,1866
8633,1887
8634,1853
8635,1744
8636,1623
8637,1620
8638,1686
8639,1742
8640,1783
8641,1795
8642,1798
8643,1809
8644,1826
8645,1837
8646,1844
8647,1855
8648,1875
8649,1891
8650,1907
8651,1915
8652,697
8653,1904
8654,2203
8655,2258
8656,2281
8657,2267
8658,2139
8659,2025
8660,1895
8661,1761
8662,1779
8663,1840
8664,1853
8665,1840
8666,1744
8667,1625
8668,1609
8669,1680
8670,1742
8671,1769
8672,1789
8673,1823
8674,1843
8675,1850
8676,1859
8677,1870
8678,1865
8679,1867
8680,1872
8681,1885
8682,1893
8683,530
8684,1833
8685,2193
8686,2278
8687,2295
8688,2274
8689,2162
8690,2071
8691,1936
8692,1789
8693,1779
8694,1825
8695,1829
8696,1796
8697,1710
8698,1600
8699,1590
8700,1664
8701,1731
8702,1763
8703,1790
8704,1810
8705,1834
8706,1863
8707,1897
8708,1893
8709,1889
8710,1887
8711,1882
8712,1872
8713,1874
8714,465
8715,1772
8716,2176
8717,2277
8718,2293
8719,2272
8720,2151
8721,2047
8722,1925
8723,1815
8724,1824
8725,1854
8726,1856
8727,1827
8728,1722
8729,1589
8730,1558
8731,1615
8732,1693
8733,1747
8734,1776
8735,1799
8736,1826
8737,1851
8738,1873
8739,1897
8740,1922
8741,1925
8742,1916
8743,1903
8744,1893
8745,504
8746,1677
8747,2125
8748,2256
8749,2288
8750,2289
8751,2174
8752,2053
8753,1926
8754,1796
8755,1799
8756,1858
8757,1883
8758,1854
8759,1749
8760,1623
8761,1562
8762,1605
8763,1681
8764,1722
8765,1750
8766,1782
8767,1818
8768,1851
8769,1873
8770,1893
8771,1904
8772,1919
8773,1936
8774,1936
8775,1922
8776,1151
8777,1535
8778,2094
8779,2243
8780,2273
8781,2285
8782,2175
8783,2059
8784,1923
8785,1799
8786,1786
8787,1836
8788,1854
8789,1847
8790,1791
8791,1664
8792,1590
8793,1633
8794,1703
8795,1725
8796,1735
8797,1754
8798,1795
8799,1833
8800,1867
8801,1890
8802,1903
8803,1912
8804,1917
8805,1922
8806,1932
8807,2102
8808,1443
8809,2099
8810,2278
8811,2295
8812,2288
8813,2173
8814,2064
8815,1936
8816,1796
8817,1777
8818,1810
8819,1837
8820,1819
8821,1758
8822,1645
8823,1600
8824,1664
8825,1728
8826,1751
8827,1755
8828,1762
8829,1779
8830,1808
8831,1839
8832,1863
8833,1893
8834,1908
8835,1918
8836,1922
8837,1925
8838,1924
8839,1922
8840,1936
8841,1927
8842,1905
8843,1889
8844,1871
8845,1849
8846,1840
8847,1840
8848,1853
8849,1859
8850,1869
8851,1872
8852,1871
8853,1879
8854,1882
8855,1881
8856,1885
8857,1900
8858,1885
8859,1870
8860,1855
8861,1842
8862,1831
8863,1834
8864,1834
8865,1843
8866,1855
8867,1867
8868,1870
8869,1868
8870,1873
8871,1876
8872,1875
8873,1888
8874,1883
8875,1866
8876,1853
8877,1840
8878,1821
8879,1824
8880,1825
8881,1834
8882,1843
8883,1856
8884,1865
8885,1866
8886,1866
8887,1870
8888,1870
8889,1874
8890,1888
8891,1881
8892,1867
8893,1850
8894,1842
8895,1835
8896,1827
8897,1829
8898,1840
8899,1851
8900,1861
8901,1868
8902,1869
8903,1872
8904,1870
8905,1870
8906,1872
8907,1883
8908,1873
8909,1860
8910,1850
8911,1840
8912,1823
8913,1827
8914,1829
8915,1841
8916,1855
8917,1862
8918,1869
8919,1867
8920,1873
8921,1874
8922,1873
8923,1886
8924,1890
8925,1872
8926,1858
8927,1847
8928,1838
8929,1828
8930,1829
8931,1838
8932,1847
8933,1861
8934,1862
8935,1869
8936,1863
8937,1871
8938,1870
8939,1872
8940,1885
8941,1877
8942,1862
8943,1855
8944,1849
8945,1834
8946,1827
8947,1829
8948,1842
8949,1851
8950,1864
8951,1870
8952,1870
8953,1872
8954,1873
8955,1872
8956,1882
8957,1894
8958,1879
8959,1870
8960,1850
8961,1843
8962,1828
8963,1828
8964,1825
8965,1840
8966,1850
8967,1859
8968,1856
8969,1872
8970,1872
8971,1871
8972,1873
8973,1887
8974,1891
8975,1875
8976,1862
8977,1854
8978,1840
8979,1829
8980,1829
8981,1838
8982,1847
8983,1861
8984,1868
8985,1872
8986,1872
8987,1872
8988,1873
8989,1882
8990,1892
8991,1887
8992,1872
8993,1856
8994,1841
8995,1828
8996,1821
8997,1826
8998,1840
8999,1851
9000,1868
9001,1871
9002,1872
9003,1872
9004,1874
9005,1872
9006,1881
9007,1890
9008,1879
9009,1867
9010,1852
9011,1840
9012,1827
9013,1828
9014,1830
9015,1843
9016,1855
9017,1869
9018,1872
9019,1868
9020,1870
9021,1866
9022,1871
9023,1879
9024,1886
9025,1871
9026,1855
9027,1842
9028,1833
9029,1821
9030,1823
9031,1840
9032,1846
9033,1859
9034,1865
9035,1870
9036,1871
9037,1872
9038,1872
9039,1876
9040,1891
9041,1884
9042,1872
9043,1856
9044,1853
9045,1834
9046,1827
9047,1831
9048,1841
9049,1850
9050,1865
9051,1870
9052,1872
9053,1872
9054,1870
9055,1869
9056,1875
9057,1886
9058,1876
9059,1860
9060,1854
9061,1843
9062,1829
9063,1830
9064,1831
9065,1841
9066,1855
9067,1865
9068,1870
9069,1870
9070,1872
9071,1873
9072,1875
9073,1887
9074,1888
9075,1872
9076,1860
9077,1850
9078,1840
9079,1830
9080,1830
9081,1837
9082,1847
9083,1860
9084,1861
9085,1862
9086,1867
9087,1867
9088,1868
9089,1878
9090,1891
9091,1888
9092,1872
9093,1856
9094,1851
9095,1839
9096,1829
9097,1829
9098,1843
9099,1853
9100,1865
9101,1872
9102,1872
9103,1872
9104,1872
9105,1872
9106,1878
9107,1891
9108,1879
9109,1869
9110,1856
9111,1843
9112,1830
9113,1829
9114,1825
9115,1840
9116,1851
9117,1861
9118,1862
9119,1869
9120,1872
9121,1872
9122,1873
9123,1884
9124,1889
9125,1872
9126,1860
9127,1853
9128,1839
9129,1830
9130,1827
9131,1834
9132,1845
9133,1860
9134,1869
9135,1872
9136,1872
9137,1872
9138,1874
9139,1876
9140,1890
9141,1886
9142,1871
9143,1856
9144,1841
9145,1829
9146,1823
9147,1826
9148,1835
9149,1843
9150,1856
9151,1861
9152,1869
9153,1872
9154,1874
9155,1873
9156,1879
9157,1893
9158,1879
9159,1867
9160,1853
9161,1843
9162,1828
9163,1829
9164,1833
9165,1842
9166,1855
9167,1862
9168,1869
9169,1869
9170,1872
9171,1872
9172,1872
9173,1882
9174,1887
9175,1871
9176,1856
9177,1846
9178,1834
9179,1830
9180,1828
9181,1835
9182,1849
9183,1860
9184,1870
9185,1870
9186,1872
9187,1872
9188,1872
9189,1877
9190,1891
9191,1890
9192,1872
9193,1853
9194,1849
9195,1835
9196,1826
9197,1829
9198,1839
9199,1851
9200,1863
9201,1869
9202,1872
9203,1874
9204,1870
9205,1870
9206,1872
9207,1883
9208,1867
9209,1866
9210,1851
9211,1844
9212,1834
9213,1827
9214,1829
9215,1841
9216,1847
9217,1864
9218,1871
9219,1853
9220,1873
9221,1875
9222,1873
9223,1884
9224,1893
9225,1874
9226,1861
9227,1854
9228,1840
9229,1829
9230,1825
9231,1838
9232,1847
9233,1859
9234,1861
9235,1864
9236,1863
9237,1871
9238,1867
9239,1871
9240,1879
9241,1879
9242,1872
9243,1857
9244,1851
9245,1835
9246,1829
9247,1830
9248,1842
9249,1851
9250,1862
9251,1869
9252,1871
9253,1872
9254,1875
9255,1872
9256,1878
9257,1894
9258,1881
9259,1868
9260,1854
9261,1847
9262,1830
9263,1831
9264,1831
9265,1843
9266,1854
9267,1864
9268,1863
9269,1872
9270,1872
9271,1871
9272,1871
9273,1879
9274,1887
9275,1873
9276,1863
9277,1847
9278,1840
9279,1830
9280,1834
9281,1840
9282,1845
9283,1860
9284,1870
9285,1872
9286,1872
9287,1873
9288,1873
9289,1877
9290,1891
9291,1888
9292,1871
9293,1856
9294,1843
9295,1831
9296,1824
9297,1825
9298,1836
9299,1850
9300,1863
9301,1870
9302,1868
9303,1872
9304,1872
9305,1872
9306,1881
9307,1892
9308,1882
9309,1866
9310,1854
9311,1845
9312,1828
9313,1827
9314,1831
9315,1841
9316,1856
9317,1865
9318,1870
9319,1865
9320,1866
9321,1867
9322,1872
9323,1874
9324,1885
9325,1869
9326,1855
9327,1843
9328,1835
9329,1822
9330,1826
9331,1830
9332,1851
9333,1858
9334,1868
9335,1867
9336,1872
9337,1872
9338,1873
9339,1873
9340,1888
9341,1889
9342,1871
9343,1855
9344,1847
9345,1840
9346,1826
9347,1830
9348,1839
9349,1853
9350,1863
9351,1867
9352,1872
9353,1872
9354,1870
9355,1871
9356,1873
9357,1888
9358,1875
9359,1869
9360,1856
9361,1847
9362,1834
9363,1828
9364,1834
9365,1843
9366,1855
9367,1867
9368,1869
9369,1871
9370,1871
9371,1872
9372,1872
9373,1882
9374,1890
9375,1875
9376,1861
9377,1853
9378,1840
9379,1827
9380,1831
9381,1837
9382,1845
9383,1858
9384,1860
9385,1863
9386,1865
9387,1871
9388,1870
9389,1874
9390,1889
9391,1887
9392,1872
9393,1856
9394,1847
9395,1838
9396,1830
9397,1832
9398,1840
9399,1851
9400,1862
9401,1870
9402,1871
9403,1872
9404,1872
9405,1872
9406,1881
9407,1891
9408,1886
9409,1869
9410,1855
9411,1845
9412,1831
9413,1827
9414,1824
9415,1839
9416,1847
9417,1859
9418,1865
9419,1872
9420,1872
9421,1875
9422,1873
9423,1881
9424,1891
9425,1875
9426,1861
9427,1853
9428,1840
9429,1829
9430,1830
9431,1835
9432,1846
9433,1858
9434,1869
9435,1869
9436,1871
9437,1874
9438,1877
9439,1877
9440,1889
9441,1890
9442,1872
9443,1856
9444,1843
9445,1835
9446,1823
9447,1827
9448,1834
9449,1845
9450,1861
9451,1861
9452,1872
9453,1873
9454,1875
9455,1873
9456,1879
9457,1895
9458,1881
9459,1870
9460,1853
9461,1851
9462,1835
9463,1831
9464,1828
9465,1842
9466,1853
9467,1867
9468,1872
9469,1871
9470,1873
9471,1876
9472,1873
9473,1885
9474,1888
9475,1872
9476,1857
9477,1845
9478,1837
9479,1831
9480,1831
9481,1838
9482,1847
9483,1858
9484,1871
9485,1871
9486,1871
9487,1872
9488,1873
9489,1874
9490,1890
9491,1890
9492,1872
9493,1858
9494,1846
9495,1838
9496,1829
9497,1829
9498,1840
9499,1850
9500,1861
9501,1870
9502,1872
9503,1872
9504,1870
9505,1871
9506,1872
9507,1886
9508,1878
9509,1870
9510,1854
9511,1846
9512,1833
9513,1827
9514,1831
9515,1843
9516,1854
9517,1863
9518,1859
9519,1872
9520,1865
9521,1875
9522,1872
9523,1883
9524,1893
9525,1879
9526,1865
9527,1851
9528,1840
9529,1828
9530,1831
9531,1830
9532,1846
9533,1858
9534,1862
9535,1867
9536,1863
9537,1871
9538,1866
9539,1870
9540,1881
9541,1885
9542,1869
9543,1858
9544,1850
9545,1835
9546,1826
9547,1834
9548,1838
9549,1849
9550,1865
9551,1870
9552,1872
9553,1873
9554,1873
9555,1873
9556,1879
9557,1892
9558,1888
9559,1872
9560,1854
9561,1844
9562,1829
9563,1825
9564,1827
9565,1837
9566,1846
9567,1859
9568,1865
9569,1871
9570,1872
9571,1872
9572,1873
9573,1881
9574,1893
9575,1877
9576,1863
9577,1853
9578,1840
9579,1830
9580,1829
9581,1834
9582,1847
9583,1858
9584,1872
9585,1871
9586,1872
9587,1874
9588,1874
9589,1873
9590,1889
9591,1892
9592,1872
9593,1859
9594,1843
9595,1832
9596,1822
9597,1825
9598,1831
9599,1850
9600,1862
9601,1870
9602,1872
9603,1872
9604,1872
9605,1874
9606,1878
9607,1890
9608,1886
9609,1869
9610,1855
9611,1846
9612,1829
9613,1826
9614,1830
9615,1842
9616,1853
9617,1866
9618,1871
9619,1864
9620,1867
9621,1869
9622,1872
9623,1873
9624,1887
9625,1872
9626,1861
9627,1849
9628,1839
9629,1821
9630,1821
9631,1822
9632,1845
9633,1856
9634,1870
9635,1870
9636,1872
9637,1872
9638,1872
9639,1874
9640,1887
9641,1888
9642,1872
9643,1861
9644,1850
9645,1837
9646,1827
9647,1830
9648,1837
9649,1847
9650,1861
9651,1870
9652,1872
9653,1872
9654,1871
9655,1869
9656,1874
9657,1886
9658,1886
9659,1874
9660,1856
9661,1847
9662,1836
9663,1831
9664,1829
9665,1840
9666,1854
9667,1867
9668,1869
9669,1869
9670,1870
9671,1873
9672,1877
9673,1881
9674,1894
9675,1877
9676,1863
9677,1853
9678,1840
9679,1827
9680,1833
9681,1833
9682,1846
9683,1856
9684,1857
9685,1862
9686,1866
9687,1867
9688,1870
9689,1875
9690,1887
9691,1891
9692,1873
9693,1859
9694,1851
9695,1839
9696,1829
9697,1829
9698,1838
9699,1846
9700,1861
9701,1871
9702,1872
9703,1872
9704,1874
9705,1874
9706,1879
9707,1892
9708,1887
9709,1871
9710,1856
9711,1847
9712,1831
9713,1826
9714,1822
9715,1838
9716,1846
9717,1857
9718,1861
9719,1870
9720,1873
9721,1874
9722,1872
9723,1879
9724,1895
9725,1880
9726,1863
9727,1853
9728,1845
9729,1831
9730,1830
9731,1835
9732,1846
9733,1855
9734,1867
9735,1871
9736,1873
9737,1872
9738,1873
9739,1876
9740,1887
9741,1892
9742,1872
9743,1861
9744,1843
9745,1831
9746,1822
9747,1825
9748,1833
9749,1845
9750,1851
9751,1872
9752,1871
9753,1873
9754,1873
9755,1874
9756,1877
9757,1891
9758,1887
9759,1869
9760,1856
9761,1851
9762,1834
9763,1828
9764,1830
9765,1841
9766,1855
9767,1865
9768,1872
9769,1870
9770,1872
9771,1873
9772,1873
9773,1882
9774,1886
9775,1872
9776,1861
9777,1846
9778,1840
9779,1824
9780,1822
9781,1827
9782,1843
9783,1854
9784,1869
9785,1872
9786,1872
9787,1872
9788,1872
9789,1873
9790,1887
9791,1894
9792,1872
9793,1862
9794,1854
9795,1840
9796,1822
9797,1830
9798,1839
9799,1850
9800,1862
9801,1870
9802,1871
9803,1871
9804,1868
9805,1869
9806,1871
9807,1883
9808,1881
9809,1872
9810,1856
9811,1849
9812,1834
9813,1826
9814,1831
9815,1840
9816,1849
9817,1863
9818,1869
9819,1871
9820,1866
9821,1873
9822,1872
9823,1881
9824,1894
9825,1881
9826,1862
9827,1856
9828,1843
9829,1830
9830,1830
9831,1833
9832,1845
9833,2030
9834,1047
9835,1904
9836,2001
9837,1991
9838,1970
9839,1955
9840,1970
9841,1972
9842,1971
9843,1999
9844,2054
9845,2062
9846,1981
9847,1911
9848,1901
9849,1901
9850,1897
9851,1885
9852,1856
9853,1826
9854,1786
9855,1739
9856,1721
9857,1748
9858,1778
9859,1792
9860,1797
9861,1803
9862,1792
9863,1791
9864,1793
9865,847
9866,1829
9867,1985
9868,1990
9869,1975
9870,1973
9871,1979
9872,1974
9873,1996
9874,2038
9875,2079
9876,2062
9877,1970
9878,1933
9879,1931
9880,1930
9881,1909
9882,1876
9883,1828
9884,1771
9885,1700
9886,1669
9887,1696
9888,1734
9889,1769
9890,1803
9891,1827
9892,1831
9893,1831
9894,1828
9895,1830
9896,794
9897,1797
9898,1968
9899,1997
9900,2000
9901,2007
9902,2030
9903,2029
9904,2012
9905,2027
9906,2064
9907,2031
9908,1958
9909,1959
9910,1983
9911,1974
9912,1913
9913,1840
9914,1761
9915,1674
9916,1616
9917,1639
9918,1687
9919,1736
9920,1768
9921,1792
9922,1811
9923,1836
9924,1865
9925,1870
9926,1869
9927,618
9928,1747
9929,1968
9930,1990
9931,1991
9932,2009
9933,2063
9934,2046
9935,2006
9936,2019
9937,2066
9938,1994
9939,1910
9940,1951
9941,2006
9942,1975
9943,1906
9944,1824
9945,1721
9946,1616
9947,1595
9948,1642
9949,1699
9950,1749
9951,1787
9952,1809
9953,1829
9954,1841
9955,1859
9956,1877
9957,1902
9958,594
9959,1746
9960,2013
9961,2038
9962,2025
9963,2034
9964,2078
9965,2033
9966,1986
9967,2034
9968,2066
9969,1959
9970,1894
9971,1924
9972,1959
9973,1941
9974,1895
9975,1808
9976,1686
9977,1616
9978,1625
9979,1664
9980,1703
9981,1742
9982,1776
9983,1803
9984,1826
9985,1846
9986,1869
9987,1885
9988,1895
9989,666
9990,1687
9991,2061
9992,2095
9993,2082
9994,2093
9995,2117
9996,2031
9997,1979
9998,2021
9999,2026
10000,1901
10001,1866
10002,1933
10003,1965
10004,1927
10005,1853
10006,1754
10007,1664
10008,1643
10009,1670
10010,1710
10011,1744
10012,1754
10013,1769
10014,1781
10015,1810
10016,1825
10017,1871
10018,1883
10019,1902
10020,1650
10021,1520
10022,2017
10023,2108
10024,2124
10025,2135
10026,2160
10027,2061
10028,1995
10029,2023
10030,1971
10031,1837
10032,1835
10033,1920
10034,1937
10035,1902
10036,1841
10037,1746
10038,1669
10039,1677
10040,1730
10041,1773
10042,1775
10043,1772
10044,1776
10045,1787
10046,1797
10047,1819
10048,1841
10049,1865
10050,1885
10051,2116
10052,1432
10053,2029
10054,2137
10055,2147
10056,2173
10057,2211
10058,2112
10059,2038
10060,2055
10061,1943
10062,1776
10063,1821
10064,1914
10065,1919
10066,1870
10067,1776
10068,1648
10069,1587
10070,1636
10071,1705
10072,1746
10073,1787
10074,1820
10075,1835
10076,1835
10077,1845
10078,1859
10079,1855
10080,1860
10081,1867
10082,2475
10083,1179
10084,1982
10085,2128
10086,2145
10087,2164
10088,2183
10089,2099
10090,2062
10091,2089
10092,1953
10093,1817
10094,1872
10095,1922
10096,1898
10097,1841
10098,1744
10099,1642
10100,1626
10101,1685
10102,1730
10103,1757
10104,1770
10105,1787
10106,1815
10107,1855
10108,1873
10109,1877
10110,1878
10111,1881
10112,1873
10113,2113
10114,959
10115,1921
10116,2114
10117,2153
10118,2177
10119,2185
10120,2103
10121,2079
10122,2081
10123,1918
10124,1824
10125,1894
10126,1936
10127,1902
10128,1835
10129,1700
10130,1595
10131,1603
10132,1681
10133,1729
10134,1754
10135,1771
10136,1791
10137,1818
10138,1849
10139,1867
10140,1891
10141,1916
10142,1904
10143,1903
10144,1894
10145,775
10146,1878
10147,2119
10148,2163
10149,2190
10150,2199
10151,2127
10152,2078
10153,2041
10154,1882
10155,1812
10156,1889
10157,1943
10158,1919
10159,1822
10160,1661
10161,1561
10162,1586
10163,1650
10164,1696
10165,1742
10166,1779
10167,1810
10168,1843
10169,1866
10170,1881
10171,1900
10172,1907
10173,1918
10174,1935
10175,1924
10176,587
10177,1849
10178,2130
10179,2166
10180,2175
10181,2161
10182,2099
10183,2075
10184,2033
10185,1885
10186,1846
10187,1920
10188,1945
10189,1906
10190,1805
10191,1646
10192,1574
10193,1627
10194,1681
10195,1718
10196,1741
10197,1765
10198,1793
10199,1829
10200,1856
10201,1875
10202,1890
10203,1904
10204,1913
10205,1916
10206,1917
10207,423
10208,1808
10209,2157
10210,2214
10211,2213
10212,2178
10213,2106
10214,2067
10215,2019
10216,1888
10217,1861
10218,1907
10219,1915
10220,1853
10221,1726
10222,1570
10223,1557
10224,1655
10225,1719
10226,1744
10227,1764
10228,1787
10229,1794
10230,1799
10231,1829
10232,1855
10233,1882
10234,1901
10235,1908
10236,1914
10237,1919
10238,364
10239,1759
10240,2173
10241,2256
10242,2243
10243,2202
10244,2129
10245,2096
10246,2024
10247,1904
10248,1858
10249,1895
10250,1887
10251,1809
10252,1662
10253,1534
10254,1567
10255,1651
10256,1718
10257,1773
10258,1808
10259,1826
10260,1839
10261,1846
10262,1846
10263,1851
10264,1862
10265,1881
10266,1893
10267,1907
10268,1910
10269,450
10270,1661
10271,2161
10272,2257
10273,2269
10274,2248
10275,2178
10276,2151
10277,2067
10278,1920
10279,1842
10280,1849
10281,1840
10282,1765
10283,1606
10284,1495
10285,1557
10286,1655
10287,1719
10288,1764
10289,1807
10290,1840
10291,1873
10292,1878
10293,1882
10294,1879
10295,1877
10296,1872
10297,1872
10298,1877
10299,1895
10300,1409
10301,1466
10302,2112
10303,2234
10304,2241
10305,2210
10306,2153
10307,2167
10308,2134
10309,1995
10310,1895
10311,1884
10312,1857
10313,1749
10314,1572
10315,1467
10316,1535
10317,1647
10318,1718
10319,1769
10320,1804
10321,1839
10322,1863
10323,1885
10324,1912
10325,1911
10326,1904
10327,1898
10328,1888
10329,1875
10330,1871
10331,1942
10332,1371
10333,2075
10334,2227
10335,2239
10336,2208
10337,2158
10338,2163
10339,2118
10340,1993
10341,1920
10342,1915
10343,1875
10344,1742
10345,1562
10346,1461
10347,1526
10348,1625
10349,1702
10350,1750
10351,1795
10352,1827
10353,1858
10354,1881
10355,1895
10356,1909
10357,1922
10358,1930
10359,1917
10360,1905
10361,1891
10362,2591
10363,1202
10364,2001
10365,2176
10366,2203
10367,2189
10368,2137
10369,2160
10370,2128
10371,2001
10372,1917
10373,1924
10374,1905
10375,1781
10376,1593
10377,1488
10378,1535
10379,1638
10380,1690
10381,1733
10382,1776
10383,1811
10384,1853
10385,1884
10386,1903
10387,1911
10388,1918
10389,1920
10390,1931
10391,1936
10392,1919
10393,2368
10394,1042
10395,1959
10396,2138
10397,2160
10398,2142
10399,2096
10400,2131
10401,2142
10402,2032
10403,1938
10404,1936
10405,1902
10406,1776
10407,1607
10408,1525
10409,1585
10410,1663
10411,1713
10412,1742
10413,1765
10414,1792
10415,1825
10416,1855
10417,1881
10418,1897
10419,1904
10420,1913
10421,1921
10422,1920
10423,1920
10424,1936
10425,767
10426,1924
10427,2169
10428,2197
10429,2170
10430,2097
10431,2114
10432,2123
10433,2014
10434,1915
10435,1918
10436,1893
10437,1791
10438,1616
10439,1509
10440,1581
10441,1682
10442,1731
10443,1766
10444,1789
10445,1805
10446,1819
10447,1840
10448,1858
10449,1883
10450,1903
10451,1909
10452,1914
10453,1916
10454,1914
10455,1911
10456,1907
10457,1914
10458,1907
10459,1891
10460,1874
10461,1863
10462,1851
10463,1841
10464,1840
10465,1841
10466,1855
10467,1865
10468,1872
10469,1873
10470,1875
10471,1881
10472,1879
10473,1879
10474,1891
10475,1889
10476,1872
10477,1856
10478,1847
10479,1838
10480,1831
10481,1833
10482,1841
10483,1852
10484,1862
10485,1867
10486,1872
10487,1872
10488,1873
10489,1872
10490,1878
10491,1890
10492,1877
10493,1859
10494,1841
10495,1836
10496,1823
10497,1821
10498,1827
10499,1842
10500,1849
10501,1863
10502,1859
10503,1865
10504,1867
10505,1866
10506,1872
10507,1881
10508,1885
10509,1870
10510,1856
10511,1845
10512,1836
10513,1823
10514,1823
10515,1834
10516,1847
10517,1857
10518,1864
10519,1866
10520,1871
10521,1869
10522,1863
10523,1870
10524,1882
10525,1877
10526,1861
10527,1847
10528,1840
10529,1826
10530,1811
10531,1824
10532,1835
10533,1852
10534,1862
10535,1869
10536,1870
10537,1872
10538,1869
10539,1872
10540,1877
10541,1892
10542,1879
10543,1866
10544,1851
10545,1842
10546,1827
10547,1829
10548,1834
10549,1847
10550,1856
10551,1867
10552,1872
10553,1872
10554,1869
10555,1866
10556,1870
10557,1878
10558,1890
10559,1872
10560,1859
10561,1851
10562,1838
10563,1827
10564,1831
10565,1839
10566,1850
10567,1862
10568,1871
10569,1872
10570,1872
10571,1872
10572,1874
10573,1882
10574,1892
10575,1883
10576,1872
10577,1854
10578,1842
10579,1834
10580,1826
10581,1834
10582,1842
10583,1853
10584,1859
10585,1865
10586,1866
10587,1867
10588,1871
10589,1872
10590,1877
10591,1890
10592,1879
10593,1866
10594,1855
10595,1842
10596,1827
10597,1828
10598,1835
10599,1843
10600,1856
10601,1870
10602,1871
10603,1872
10604,1872
10605,1872
10606,1873
10607,1883
10608,1887
10609,1872
10610,1858
10611,1849
10612,1840
10613,1827
10614,1823
10615,1829
10616,1842
10617,1855
10618,1858
10619,1871
10620,1867
10621,1873
10622,1872
10623,1874
10624,1888
10625,1885
10626,1871
10627,1855
10628,1845
10629,1834
10630,1827
10631,1831
10632,1841
10633,1851
10634,1865
10635,1869
10636,1868
10637,1872
10638,1872
10639,1872
10640,1877
10641,1890
10642,1877
10643,1866
10644,1841
10645,1839
10646,1825
10647,1824
10648,1827
10649,1839
10650,1851
10651,1866
10652,1869
10653,1871
10654,1872
10655,1873
10656,1872
10657,1887
10658,1889
10659,1872
10660,1859
10661,1850
10662,1839
10663,1828
10664,1830
10665,1838
10666,1849
10667,1859
10668,1871
10669,1869
10670,1871
10671,1874
10672,1874
10673,1879
10674,1887
10675,1882
10676,1867
10677,1850
10678,1843
10679,1827
10680,1828
10681,1831
10682,1840
10683,1853
10684,1867
10685,1871
10686,1872
10687,1872
10688,1873
10689,1872
10690,1882
10691,1893
10692,1881
10693,1869
10694,1856
10695,1847
10696,1834
10697,1830
10698,1831
10699,1842
10700,1856
10701,1868
10702,1871
10703,1871
10704,1870
10705,1869
10706,1872
10707,1877
10708,1883
10709,1872
10710,1862
10711,1851
10712,1840
10713,1831
10714,1829
10715,1837
10716,1847
10717,1857
10718,1871
10719,1859
10720,1870
10721,1872
10722,1872
10723,1875
10724,1891
10725,1889
10726,1872
10727,1857
10728,1849
10729,1838
10730,1829
10731,1831
10732,1842
10733,1853
10734,1856
10735,1865
10736,1863
10737,1867
10738,1872
10739,1870
10740,1877
10741,1887
10742,1881
10743,1866
10744,1855
10745,1844
10746,1835
10747,1830
10748,1838
10749,1843
10750,1856
10751,1870
10752,1870
10753,1872
10754,1872
10755,1873
10756,1875
10757,1887
10758,1891
10759,1874
10760,1863
10761,1855
10762,1840
10763,1830
10764,1825
10765,1831
10766,1842
10767,1856
10768,1866
10769,1871
10770,1873
10771,1873
10772,1874
10773,1876
10774,1891
10775,1887
10776,1871
10777,1859
10778,1848
10779,1839
10780,1830
10781,1831
10782,1840
10783,1850
10784,1865
10785,1872
10786,1872
10787,1872
10788,1872
10789,1872
10790,1881
10791,1893
10792,1882
10793,1867
10794,1843
10795,1840
10796,1827
10797,1821
10798,1826
10799,1844
10800,1856
10801,1870
10802,1871
10803,1871
10804,1872
10805,1872
10806,1873
10807,1885
10808,1893
10809,1874
10810,1861
10811,1854
10812,1840
10813,1827
10814,1830
10815,1836
10816,1849
10817,1858
10818,1868
10819,1872
10820,1874
10821,1867
10822,1867
10823,1872
10824,1885
10825,1883
10826,1867
10827,1854
10828,1852
10829,1835
10830,1831
10831,1830
10832,1840
10833,1853
10834,1862
10835,1870
10836,1872
10837,1872
10838,1877
10839,1873
10840,1881
10841,1891
10842,1882
10843,1869
10844,1855
10845,1847
10846,1831
10847,1829
10848,1830
10849,1843
10850,1855
10851,1866
10852,1871
10853,1871
10854,1867
10855,1872
10856,1871
10857,1875
10858,1886
10859,1870
10860,1857
10861,1846
10862,1840
10863,1829
10864,1826
10865,1837
10866,1846
10867,1858
10868,1867
10869,1871
10870,1872
10871,1875
10872,1872
10873,1875
10874,1890
10875,1886
10876,1871
10877,1856
10878,1852
10879,1836
10880,1830
10881,1830
10882,1840
10883,1851
10884,1856
10885,1861
10886,1861
10887,1867
10888,1870
10889,1874
10890,1879
10891,1891
10892,1886
10893,1867
10894,1854
10895,1847
10896,1835
10897,1825
10898,1834
10899,1842
10900,1854
10901,1866
10902,1868
10903,1872
10904,1873
10905,1875
10906,1872
10907,1883
10908,1889
10909,1873
10910,1858
10911,1847
10912,1840
10913,1827
10914,1824
10915,1828
10916,1842
10917,1855
10918,1865
10919,1870
10920,1871
10921,1872
10922,1874
10923,1874
10924,1889
10925,1891
10926,1871
10927,1854
10928,1845
10929,1837
10930,1827
10931,1829
10932,1839
10933,1851
10934,1866
10935,1869
10936,1872
10937,1872
10938,1873
10939,1872
10940,1878
10941,1891
10942,1883
10943,1868
10944,1850
10945,1842
10946,1829
10947,1823
10948,1827
10949,1840
10950,1852
10951,1857
10952,1871
10953,1871
10954,1872
10955,1873
10956,1873
10957,1883
10958,1892
10959,1877
10960,1865
10961,1851
10962,1840
10963,1830
10964,1831
10965,1836
10966,1846
10967,1856
10968,1870
10969,1871
10970,1871
10971,1874
10972,1873
10973,1875
10974,1882
10975,1885
10976,1867
10977,1853
10978,1842
10979,1835
10980,1830
10981,1830
10982,1841
10983,1853
10984,1864
10985,1869
10986,1872
10987,1872
10988,1874
10989,1873
10990,1879
10991,1891
10992,1883
10993,1870
10994,1855
10995,1845
10996,1833
10997,1831
10998,1830
10999,1843
11000,1853
11001,1865
11002,1870
11003,1870
11004,1868
11005,1871
11006,1872
11007,1875
11008,1887
11009,1875
11010,1862
11011,1854
11012,1841
11013,1830
11014,1833
11015,1834
11016,1842
11017,1857
11018,1862
11019,1870
11020,1870
11021,1873
11022,1872
11023,1875
11024,1889
11025,1889
11026,1872
11027,1858
11028,1849
11029,1840
11030,1829
11031,1829
11032,1839
11033,1850
11034,1856
11035,1860
11036,1865
11037,1867
11038,1872
11039,1870
11040,1874
11041,1885
11042,1888
11043,1872
11044,1855
11045,1851
11046,1835
11047,1827
11048,1830
11049,1843
11050,1854
11051,1867
11052,1872
11053,1872
11054,1873
11055,1872
11056,1873
11057,1882
11058,1895
11059,1877
11060,1863
11061,1854
11062,1842
11063,1830
11064,1824
11065,1827
11066,1841
11067,1853
11068,1863
11069,1871
11070,1872
11071,1874
11072,1874
11073,1875
11074,1891
11075,1889
11076,1872
11077,1857
11078,1851
11079,1837
11080,1827
11081,1827
11082,1837
11083,1850
11084,1862
11085,1871
11086,1872
11087,1872
11088,1873
11089,1874
11090,1879
11091,1893
11092,1887
11093,1872
11094,1851
11095,1840
11096,1829
11097,1821
11098,1824
11099,1845
11100,1855
11101,1866
11102,1872
11103,1872
11104,1872
11105,1873
11106,1873
11107,1885
11108,1894
11109,1877
11110,1862
11111,1852
11112,1840
11113,1831
11114,1827
11115,1834
11116,1846
11117,1856
11118,1866
11119,1872
11120,1872
11121,1871
11122,1869
11123,1872
11124,1881
11125,1886
11126,1870
11127,1855
11128,1843
11129,1830
11130,1821
11131,1825
11132,1839
11133,1849
11134,1863
11135,1870
11136,1871
11137,1872
11138,1875
11139,1875
11140,1881
11141,1892
11142,1889
11143,1872
11144,1855
11145,1846
11146,1833
11147,1829
11148,1830
11149,1842
11150,1855
11151,1867
11152,1869
11153,1871
11154,1867
11155,1870
11156,1869
11157,1878
11158,1891
11159,1882
11160,1865
11161,1851
11162,1840
11163,1827
11164,1831
11165,1835
11166,1847
11167,1856
11168,1868
11169,1871
11170,1872
11171,1874
11172,1875
11173,1875
11174,1888
11175,1890
11176,1873
11177,1859
11178,1851
11179,1839
11180,1829
11181,1829
11182,1837
11183,1851
11184,1858
11185,1862
11186,1866
11187,1870
11188,1871
11189,1874
11190,1879
11191,1894
11192,1890
11193,1872
11194,1856
11195,1849
11196,1834
11197,1827
11198,1830
11199,1842
11200,1851
11201,1866
11202,1870
11203,1870
11204,1872
11205,1874
11206,1873
11207,1882
11208,1894
11209,1878
11210,1863
11211,1853
11212,1840
11213,1826
11214,1819
11215,1825
11216,1840
11217,1851
11218,1858
11219,1871
11220,1863
11221,1872
11222,1872
11223,1875
11224,1888
11225,1893
11226,1873
11227,1858
11228,1847
11229,1839
11230,1826
11231,1827
11232,1837
11233,1850
11234,1862
11235,1870
11236,1872
11237,1871
11238,1876
11239,1874
11240,1883
11241,1894
11242,1887
11243,1871
11244,1854
11245,1841
11246,1829
11247,1821
11248,1824
11249,1834
11250,1845
11251,1859
11252,1872
11253,1870
11254,1872
11255,1874
11256,1873
11257,1883
11258,1898
11259,1879
11260,1866
11261,1853
11262,1841
11263,1826
11264,1829
11265,1829
11266,1840
11267,1856
11268,1865
11269,1870
11270,1871
11271,1875
11272,1874
11273,1875
11274,1881
11275,1889
11276,1869
11277,1856
11278,1853
11279,1838
11280,1829
11281,1826
11282,1834
11283,1846
11284,1858
11285,1872
11286,1872
11287,1872
11288,1875
11289,1875
11290,1880
11291,1895
11292,1886
11293,1872
11294,1856
11295,1850
11296,1831
11297,1826
11298,1828
11299,1840
11300,1850
11301,1866
11302,1872
11303,1871
11304,1870
11305,1872
11306,1870
11307,1877
11308,1889
11309,1881
11310,1867
11311,1853
11312,1843
11313,1830
11314,1827
11315,1829
11316,1841
11317,1855
11318,1862
11319,1870
11320,1872
11321,1872
11322,1874
11323,1875
11324,1887
11325,1894
11326,1876
11327,1860
11328,1851
11329,1840
11330,1827
11331,1826
11332,1837
11333,1846
11334,1856
11335,1863
11336,1865
11337,1869
11338,1872
11339,1869
11340,1872
11341,1885
11342,1889
11343,1873
11344,1855
11345,1846
11346,1835
11347,1826
11348,1827
11349,1840
11350,1854
11351,1863
11352,1871
11353,1869
11354,1872
11355,1874
11356,1873
11357,1882
11358,1895
11359,1883
11360,1867
11361,1853
11362,1840
11363,1826
11364,1826
11365,1824
11366,1840
11367,1847
11368,1865
11369,1871
11370,1871
11371,1872
11372,1872
11373,1875
11374,1887
11375,1895
11376,1874
11377,1859
11378,1849
11379,1837
11380,1825
11381,1829
11382,1837
11383,1845
11384,1858
11385,1868
11386,1872
11387,1870
11388,1873
11389,1873
11390,1877
11391,1892
11392,1888
11393,1872
11394,1851
11395,1843
11396,1827
11397,1819
11398,1821
11399,1840
11400,1854
11401,1866
11402,1867
11403,1871
11404,1872
11405,1874
11406,1872
11407,1881
11408,1893
11409,1883
11410,1871
11411,1855
11412,1842
11413,1829
11414,1828
11415,1832
11416,1851
11417,1856
11418,1868
11419,1869
11420,1871
11421,1871
11422,1869
11423,1872
11424,1879
11425,1885
11426,1872
11427,1855
11428,1843
11429,1831
11430,1819
11431,1822
11432,1834
11433,1847
11434,1859
11435,1869
11436,1871
11437,1872
11438,1875
11439,1874
11440,1880
11441,1891
11442,1891
11443,1872
11444,1859
11445,1849
11446,1831
11447,1825
11448,1826
11449,1840
11450,1851
11451,464
11452,1749
11453,2009
11454,2010
11455,1999
11456,1973
11457,1985
11458,2003
11459,2007
11460,2026
11461,2064
11462,2077
11463,1983
11464,1921
11465,1926
11466,1947
11467,1936
11468,1907
11469,1859
11470,1804
11471,1729
11472,1673
11473,1667
11474,1713
11475,1761
11476,1781
11477,1791
11478,1793
11479,1791
11480,1786
11481,1798
11482,464
11483,1663
11484,1975
11485,2014
11486,2007
11487,2000
11488,2013
11489,2029
11490,2042
11491,2089
11492,2117
11493,2096
11494,1989
11495,1955
11496,1939
11497,1898
11498,1847
11499,1785
11500,1719
11501,1657
11502,1619
11503,1659
11504,1719
11505,1769
11506,1803
11507,1821
11508,1844
11509,1849
11510,1846
11511,1849
11512,1855
11513,1061
11514,1514
11515,1950
11516,2004
11517,2017
11518,2035
11519,2080
11520,2096
11521,2082
11522,2096
11523,2126
11524,2079
11525,1981
11526,1979
11527,1993
11528,1950
11529,1855
11530,1740
11531,1616
11532,1535
11533,1583
11534,1649
11535,1711
11536,1744
11537,1776
11538,1803
11539,1826
11540,1857
11541,1894
11542,1906
11543,1899
11544,1503
11545,1488
11546,1977
11547,2047
11548,2067
11549,2087
11550,2128
11551,2116
11552,2079
11553,2092
11554,2096
11555,1967
11556,1902
11557,1949
11558,1974
11559,1919
11560,1817
11561,1677
11562,1569
11563,1555
11564,1613
11565,1663
11566,1712
11567,1757
11568,1798
11569,1827
11570,1852
11571,1875
11572,1893
11573,1904
11574,1913
11575,2401
11576,1392
11577,2005
11578,2110
11579,2103
11580,2105
11581,2134
11582,2085
11583,2033
11584,2066
11585,2035
11586,1907
11587,1904
11588,1967
11589,1949
11590,1882
11591,1779
11592,1637
11593,1570
11594,1603
11595,1661
11596,1690
11597,1715
11598,1750
11599,1785
11600,1821
11601,1858
11602,1885
11603,1899
11604,1901
11605,1904
11606,2374
11607,1104
11608,1995
11609,2134
11610,2131
11611,2133
11612,2149
11613,2069
11614,2019
11615,2079
11616,2021
11617,1889
11618,1925
11619,1970
11620,1938
11621,1869
11622,1729
11623,1594
11624,1586
11625,1669
11626,1712
11627,1744
11628,1776
11629,1789
11630,1782
11631,1807
11632,1843
11633,1866
11634,1847
11635,1881
11636,1893
11637,2175
11638,981
11639,1954
11640,2129
11641,2166
11642,2188
11643,2189
11644,2099
11645,2031
11646,2034
11647,1943
11648,1867
11649,1920
11650,1953
11651,1927
11652,1835
11653,1671
11654,1571
11655,1601
11656,1674
11657,1729
11658,1781
11659,1805
11660,1809
11661,1822
11662,1838
11663,1840
11664,1841
11665,1853
11666,1873
11667,1888
11668,1906
11669,783
11670,1919
11671,2128
11672,2160
11673,2171
11674,2185
11675,2135
11676,2096
11677,2099
11678,1969
11679,1875
11680,1915
11681,1936
11682,1889
11683,1775
11684,1606
11685,1535
11686,1602
11687,1678
11688,1732
11689,1771
11690,1805
11691,1841
11692,1865
11693,1872
11694,1870
11695,1865
11696,1858
11697,1857
11698,1862
11699,1878
11700,558
11701,1856
11702,2148
11703,2194
11704,2211
11705,2225
11706,2155
11707,2112
11708,2086
11709,1909
11710,1872
11711,1923
11712,1936
11713,1863
11714,1712
11715,1535
11716,1522
11717,1603
11718,1679
11719,1735
11720,1776
11721,1799
11722,1827
11723,1849
11724,1881
11725,1906
11726,1904
11727,1894
11728,1887
11729,1876
11730,1866
11731,349
11732,1721
11733,2108
11734,2190
11735,2213
11736,2224
11737,2146
11738,2096
11739,2039
11740,1923
11741,1928
11742,1993
11743,1987
11744,1896
11745,1707
11746,1520
11747,1494
11748,1579
11749,1653
11750,1712
11751,1766
11752,1799
11753,1823
11754,1845
11755,1870
11756,1885
11757,1906
11758,1915
11759,1925
11760,1911
11761,1899
11762,386
11763,1679
11764,2096
11765,2183
11766,2209
11767,2214
11768,2160
11769,2110
11770,2032
11771,1935
11772,1936
11773,1979
11774,1968
11775,1871
11776,1667
11777,1505
11778,1520
11779,1599
11780,1648
11781,1695
11782,1738
11783,1776
11784,1808
11785,1844
11786,1872
11787,1890
11788,1904
11789,1919
11790,1925
11791,1937
11792,1938
11793,882
11794,1559
11795,2087
11796,2177
11797,2181
11798,2167
11799,2121
11800,2110
11801,2063
11802,1966
11803,1938
11804,1969
11805,1947
11806,1840
11807,1667
11808,1535
11809,1567
11810,1634
11811,1680
11812,1718
11813,1742
11814,1756
11815,1781
11816,1822
11817,1851
11818,1890
11819,1907
11820,1919
11821,1925
11822,1926
11823,1921
11824,1823
11825,1456
11826,2087
11827,2197
11828,2205
11829,2177
11830,2113
11831,2089
11832,2039
11833,1954
11834,1936
11835,1967
11836,1936
11837,1837
11838,1666
11839,1526
11840,1565
11841,1664
11842,1725
11843,1752
11844,1770
11845,1786
11846,1792
11847,1807
11848,1830
11849,1855
11850,1881
11851,1906
11852,1917
11853,1917
11854,1919
11855,2559
11856,1282
11857,2063
11858,2227
11859,2240
11860,2216
11861,2147
11862,2115
11863,2035
11864,1935
11865,1897
11866,1930
11867,1911
11868,1838
11869,1680
11870,1535
11871,1563
11872,1648
11873,1712
11874,1760
11875,1807
11876,1818
11877,1827
11878,1837
11879,1842
11880,1849
11881,1856
11882,1866
11883,1887
11884,1902
11885,1915
11886,2448
11887,1104
11888,2014
11889,2211
11890,2244
11891,2254
11892,2197
11893,2141
11894,2064
11895,1953
11896,1902
11897,1911
11898,1888
11899,1812
11900,1664
11901,1533
11902,1535
11903,1629
11904,1693
11905,1743
11906,1779
11907,1812
11908,1849
11909,1874
11910,1873
11911,1876
11912,1882
11913,1874
11914,1872
11915,1873
11916,1887
11917,2039
11918,885
11919,1975
11920,2196
11921,2251
11922,2250
11923,2192
11924,2149
