Time(ms),Raw_ADC
0,1861
1,1857
2,1858
3,1858
4,1861
5,1862
6,1857
7,1859
8,1856
9,1857
10,1863
11,1865
12,1866
13,1865
14,1863
15,1862
16,1862
17,1859
18,1857
19,1857
20,1858
21,1859
22,1858
23,1853
24,1856
25,1856
26,1859
27,1862
28,1864
29,1862
30,1863
31,1859
32,1863
33,1861
34,1859
35,1857
36,1858
37,1857
38,1862
39,1859
40,1862
41,1861
42,1863
43,1862
44,1866
45,1869
46,1869
47,1866
48,1863
49,1859
50,1857
51,1856
52,1856
53,1849
54,1853
55,1856
56,1854
57,1855
58,1860
59,1859
60,1866
61,1867
62,1869
63,1865
64,1867
65,1863
66,1869
67,1859
68,1861
69,1859
70,1857
71,1857
72,1856
73,1863
74,640
75,1955
76,2276
77,4095
78,4095
79,3750
80,3363
81,3103
82,1618
83,407
84,0
85,0
86,89
87,831
88,1357
89,1616
90,1727
91,1771
92,1806
93,1843
94,1873
95,1911
96,1937
97,1936
98,1933
99,1933
100,1936
101,1936
102,1935
103,1953
104,1953
105,1435
106,2016
107,2089
108,3348
109,4095
110,4057
111,3583
112,3254
113,1377
114,539
115,0
116,0
117,333
118,1107
119,1520
120,1713
121,1798
122,1849
123,1895
124,1925
125,1961
126,1983
127,1989
128,1969
129,1950
130,1961
131,1967
132,1963
133,1957
134,1950
135,1942
136,1937
137,1773
138,2015
139,2523
140,3566
141,3851
142,3819
143,3071
144,1535
145,865
146,111
147,69
148,722
149,1314
150,1609
151,1763
152,1818
153,1854
154,1879
155,1902
156,1918
157,1931
158,1939
159,1947
160,1943
161,1943
162,1937
163,1933
164,1925
165,1920
166,1918
167,1904
168,833
169,1984
170,2250
171,2848
172,3066
173,3757
174,3055
175,1818
176,1110
177,402
178,432
179,1006
180,1450
181,1655
182,1712
183,1730
184,1794
185,1856
186,1887
187,1904
188,1923
189,1930
190,1930
191,1923
192,1920
193,1915
194,1906
195,1893
196,1900
197,1904
198,1904
199,891
200,1877
201,2110
202,2655
203,3035
204,3679
205,3441
206,1970
207,1055
208,219
209,511
210,1177
211,1479
212,1611
213,1734
214,1786
215,1826
216,1861
217,1879
218,1899
219,1893
220,1904
221,1919
222,1923
223,1907
224,1920
225,1923
226,1920
227,1914
228,1899
229,1890
230,1894
231,1745
232,2031
233,2538
234,2967
235,3482
236,3566
237,2013
238,1072
239,258
240,675
241,1206
242,1473
243,1660
244,1753
245,1799
246,1834
247,1863
248,1883
249,1903
250,1909
251,1914
252,1923
253,1921
254,1915
255,1918
256,1904
257,1895
258,1901
259,1900
260,1901
261,1895
262,1343
263,1965
264,2349
265,2867
266,3209
267,3887
268,2207
269,1185
270,386
271,647
272,1191
273,1459
274,1647
275,1757
276,1798
277,1840
278,1871
279,1887
280,1904
281,1919
282,1923
283,1926
284,1927
285,1926
286,1906
287,1889
288,1869
289,1873
290,1887
291,1888
292,1886
293,375
294,1919
295,2158
296,2706
297,2982
298,3903
299,2608
300,1431
301,560
302,563
303,1120
304,1419
305,1616
306,1750
307,1788
308,1811
309,1850
310,1877
311,1895
312,1908
313,1914
314,1913
315,1917
316,1916
317,1910
318,1904
319,1897
320,1894
321,1894
322,1892
323,1883
324,1582
325,1831
326,2063
327,2599
328,2886
329,3669
330,2962
331,1616
332,713
333,496
334,1043
335,1409
336,1616
337,1776
338,1811
339,1794
340,1803
341,1853
342,1883
343,1904
344,1909
345,1907
346,1911
347,1913
348,1915
349,1919
350,1891
351,1889
352,1895
353,1887
354,1881
355,1878
356,1483
357,1979
358,2448
359,2896
360,3270
361,3458
362,1803
363,876
364,414
365,962
366,1424
367,1571
368,1741
369,1789
370,1808
371,1839
372,1872
373,1893
374,1899
375,1902
376,1904
377,1909
378,1905
379,1904
380,1904
381,1903
382,1902
383,1886
384,1879
385,1878
386,1879
387,498
388,1941
389,2211
390,2711
391,2999
392,3920
393,2224
394,1258
395,511
396,756
397,1270
398,1506
399,1723
400,1815
401,1823
402,1801
403,1815
404,1863
405,1888
406,1895
407,1898
408,1904
409,1910
410,1905
411,1905
412,1904
413,1897
414,1895
415,1890
416,1887
417,1883
418,835
419,1888
420,2119
421,2637
422,2869
423,3808
424,2554
425,1451
426,627
427,646
428,1174
429,1488
430,1707
431,1808
432,1833
433,1826
434,1814
435,1853
436,1882
437,1894
438,1900
439,1901
440,1904
441,1906
442,1910
443,1910
444,1875
445,1872
446,1883
447,1883
448,1889
449,1886
450,1659
451,2000
452,2475
453,2816
454,3422
455,3198
456,1698
457,865
458,530
459,1018
460,1399
461,1615
462,1775
463,1835
464,1845
465,1828
466,1831
467,1857
468,1890
469,1898
470,1899
471,1914
472,1904
473,1904
474,1907
475,1893
476,1879
477,1879
478,1879
479,1881
480,1887
481,1013
482,1968
483,2352
484,2847
485,3137
486,3583
487,1902
488,981
489,439
490,922
491,1411
492,1600
493,1773
494,1823
495,1839
496,1831
497,1827
498,1857
499,1887
500,1894
501,1897
502,1894
503,1911
504,1904
505,1904
506,1895
507,1872
508,1872
509,1874
510,1885
511,1885
512,367
513,1938
514,2205
515,2713
516,2926
517,3837
518,2291
519,1334
520,563
521,732
522,1232
523,1485
524,1707
525,1802
526,1825
527,1840
528,1856
529,1872
530,1892
531,1904
532,1907
533,1902
534,1897
535,1901
536,1899
537,1887
538,1887
539,1891
540,1893
541,1889
542,1885
543,1859
544,1819
545,2063
546,2669
547,2926
548,3646
549,2737
550,1405
551,585
552,615
553,1219
554,1487
555,1688
556,1808
557,1841
558,1850
559,1839
560,1839
561,1872
562,1889
563,1902
564,1907
565,1907
566,1906
567,1904
568,1898
569,1881
570,1870
571,1879
572,1881
573,1883
574,1881
575,1486
576,1990
577,2496
578,2910
579,3311
580,3299
581,1682
582,777
583,450
584,1038
585,1456
586,1655
587,1794
588,1834
589,1840
590,1840
591,1830
592,1856
593,1883
594,1907
595,1920
596,1917
597,1904
598,1882
599,1855
600,1856
601,1882
602,1887
603,1886
604,1886
605,1878
606,374
607,1955
608,2270
609,2843
610,3058
611,3795
612,2105
613,1046
614,389
615,827
616,1377
617,1584
618,1750
619,1824
620,1846
621,1847
622,1840
623,1842
624,1870
625,1884
626,1883
627,1891
628,1898
629,1898
630,1906
631,1904
632,1901
633,1894
634,1892
635,1890
636,1885
637,1103
638,1885
639,2119
640,2678
641,2928
642,3855
643,2603
644,1405
645,533
646,607
647,1168
648,1484
649,1723
650,1812
651,1841
652,1849
653,1840
654,1829
655,1849
656,1872
657,1878
658,1901
659,1920
660,1903
661,1901
662,1911
663,1902
664,1891
665,1901
666,1898
667,1882
668,1886
669,1603
670,2000
671,2477
672,2823
673,3417
674,3299
675,1701
676,761
677,471
678,1008
679,1425
680,1670
681,1793
682,1834
683,1840
684,1842
685,1833
686,1842
687,1872
688,1884
689,1891
690,1904
691,1913
692,1909
693,1918
694,1894
695,1883
696,1893
697,1893
698,1894
699,1901
700,1882
701,1882
702,1882
703,1879
704,1872
705,1866
706,1869
707,1867
708,1861
709,1857
710,1863
711,1866
712,1869
713,1865
714,1862
715,1858
716,1859
717,1858
718,1861
719,1856
720,1858
721,1859
722,1862
723,1863
724,1868
725,1868
726,1863
727,1859
728,1855
729,1850
730,1851
731,1858
732,1859
733,1859
734,1866
735,1870
736,1867
737,1866
738,1866
739,1866
740,1859
741,1858
742,1854
743,1844
744,1850
745,1857
746,1867
747,1869
748,1865
749,1863
750,1871
751,1868
752,1857
753,1846
754,1840
755,1849
756,1854
757,1857
758,1859
759,1856
760,1855
761,1852
762,1852
763,1855
764,1857
765,1857
766,1859
767,1853
768,1857
769,1856
770,1858
771,1857
772,1857
773,1854
774,1851
775,1849
776,1854
777,1857
778,1855
779,1849
780,1859
781,1858
782,1858
783,1857
784,1857
785,1859
786,1858
787,1862
788,1859
789,1862
790,1858
791,1856
792,1852
793,1854
794,1857
795,1854
796,1857
797,1867
798,1872
799,1867
800,1858
801,1847
802,1853
803,1847
804,1846
805,1845
806,1849
807,1854
808,1861
809,1856
810,1856
811,1855
812,1853
813,1856
814,1857
815,1857
816,1855
817,1854
818,1845
819,1854
820,1853
821,1852
822,1853
823,1855
824,1854
825,1855
826,1855
827,1857
828,1856
829,1854
830,1855
831,1853
832,1855
833,1847
834,1853
835,1849
836,1853
837,1847
838,1847
839,1843
840,1853
841,1856
842,1855
843,1856
844,1856
845,1859
846,1858
847,1856
848,1856
849,1856
850,1858
851,1855
852,1855
853,1855
854,1854
855,1855
856,1857
857,1856
858,1857
859,1853
860,1857
861,1860
862,1861
863,1853
864,1851
865,1852
866,1851
867,1849
868,1854
869,1850
870,1854
871,1851
872,1853
873,1853
874,1854
875,1856
876,1862
877,1861
878,1863
879,1858
880,1861
881,1860
882,1859
883,1860
884,1858
885,1856
886,1855
887,1856
888,1855
889,1857
890,1856
891,1857
892,1856
893,1850
894,1853
895,1854
896,1853
897,1855
898,1857
899,1856
900,1856
901,1856
902,1855
903,1854
904,1853
905,1855
906,1855
907,1856
908,1855
909,1855
910,1857
911,1859
912,1856
913,1858
914,1856
915,1856
916,1855
917,1856
918,1849
919,1850
920,1849
921,1845
922,1846
923,1855
924,1853
925,1853
926,1853
927,1851
928,1854
929,1851
930,1851
931,1857
932,1860
933,1858
934,1856
935,1858
936,1859
937,1857
938,1856
939,1856
940,1858
941,1859
942,1861
943,1859
944,1858
945,1861
946,1859
947,1858
948,1861
949,1861
950,1856
951,1859
952,1858
953,1853
954,1852
955,1851
956,1855
957,1852
958,1856
959,1859
960,1862
961,1862
962,1863
963,1863
964,1859
965,1861
966,1856
967,1855
968,1856
969,1859
970,1857
971,1857
972,1858
973,1856
974,1856
975,1861
976,1862
977,1860
978,1859
979,1860
980,1865
981,1862
982,1862
983,1856
984,1855
985,1855
986,1851
987,1851
988,1849
989,1856
990,1856
991,1856
992,1857
993,1858
994,1861
995,1861
996,1865
997,1862
998,1861
999,1858
1000,1857
1001,1859
1002,1855
1003,1852
1004,1857
1005,1856
1006,1856
1007,1857
1008,1857
1009,1857
1010,1861
1011,1861
1012,1857
1013,1853
1014,1856
1015,1856
1016,1854
1017,1851
1018,1856
1019,1856
1020,1857
1021,1856
1022,1855
1023,1856
1024,1857
1025,1859
1026,1861
1027,1860
1028,1861
1029,1861
1030,1860
1031,1861
1032,1859
1033,1860
1034,1861
1035,1857
1036,1858
1037,1860
1038,1859
1039,1858
1040,1858
1041,1856
1042,1857
1043,1856
1044,1856
1045,1857
1046,1858
1047,1857
1048,1855
1049,1852
1050,1861
1051,1857
1052,1859
1053,1856
1054,1856
1055,1857
1056,1859
1057,1856
1058,1859
1059,1859
1060,1863
1061,1862
1062,1863
1063,1862
1064,1860
1065,1860
1066,1859
1067,1853
1068,1861
1069,1859
1070,1861
1071,1859
1072,1861
1073,1855
1074,1855
1075,1856
1076,1857
1077,1862
1078,1858
1079,1854
1080,1856
1081,1853
1082,1857
1083,1859
1084,1858
1085,1859
1086,1859
1087,1858
1088,1856
1089,1856
1090,1857
1091,1858
1092,1858
1093,1861
1094,1863
1095,1866
1096,1862
1097,1862
1098,1866
1099,1861
1100,1861
1101,1857
1102,1856
1103,1851
1104,1854
1105,1851
1106,1854
1107,1854
1108,1859
1109,1861
1110,1861
1111,1862
1112,1859
1113,1863
1114,1861
1115,1860
1116,1859
1117,1861
1118,1856
1119,1859
1120,1859
1121,1856
1122,1859
1123,1859
1124,1857
1125,1859
1126,1859
1127,1863
1128,1862
1129,1862
1130,1861
1131,1860
1132,1861
1133,1856
1134,1854
1135,1854
1136,1853
1137,1854
1138,1853
1139,1850
1140,1860
1141,1861
1142,1859
1143,1863
1144,1863
1145,1861
1146,1863
1147,1863
1148,1863
1149,1859
1150,1857
1151,1859
1152,1859
1153,1859
1154,1857
1155,1860
1156,1860
1157,1860
1158,1859
1159,1860
1160,1861
1161,1865
1162,1865
1163,1856
1164,1855
1165,1854
1166,1855
1167,1855
1168,1860
1169,1858
1170,1856
1171,1856
1172,1856
1173,1858
1174,1858
1175,1860
1176,1859
1177,1863
1178,1863
1179,1861
1180,1859
1181,1861
1182,1860
1183,1859
1184,1859
1185,1859
1186,1856
1187,1855
1188,1856
1189,1861
1190,1859
1191,1861
1192,1858
1193,1856
1194,1857
1195,1858
1196,1857
1197,1859
1198,1856
1199,1859
1200,1862
1201,1858
1202,1856
1203,1857
1204,1857
1205,1856
1206,1861
1207,1860
1208,1858
1209,1861
1210,1863
1211,1866
1212,1861
1213,1857
1214,1858
1215,1856
1216,1857
1217,1857
1218,1853
1219,1851
1220,1854
1221,1856
1222,1856
1223,1855
1224,1853
1225,1857
1226,1854
1227,1857
1228,1865
1229,1860
1230,1861
1231,1861
1232,1859
1233,1858
1234,1857
1235,1858
1236,1858
1237,1858
1238,1858
1239,1858
1240,1861
1241,1864
1242,1862
1243,1862
1244,1867
1245,1869
1246,1866
1247,1863
1248,1862
1249,1859
1250,1856
1251,1856
1252,1856
1253,1853
1254,1851
1255,1852
1256,1856
1257,1855
1258,1854
1259,1856
1260,1869
1261,1871
1262,1869
1263,1869
1264,1866
1265,1858
1266,1855
1267,1849
1268,1855
1269,1856
1270,1855
1271,1862
1272,1860
1273,1862
1274,1862
1275,1863
1276,1862
1277,1871
1278,1873
1279,1870
1280,1869
1281,1862
1282,1856
1283,1847
1284,1846
1285,1847
1286,1847
1287,1854
1288,1853
1289,1851
1290,1862
1291,1866
1292,1867
1293,1867
1294,1872
1295,1874
1296,1872
1297,1867
1298,1862
1299,1854
1300,1850
1301,1852
1302,1853
1303,1853
1304,1855
1305,1858
1306,1863
1307,1863
1308,1866
1309,1867
1310,1869
1311,1879
1312,1879
1313,1867
1314,1863
1315,1851
1316,1841
1317,1840
1318,1842
1319,1846
1320,1853
1321,1858
1322,1859
1323,1866
1324,1865
1325,1867
1326,1863
1327,1873
1328,1882
1329,1878
1330,1871
1331,1860
1332,1854
1333,1845
1334,1845
1335,1842
1336,1846
1337,1854
1338,1861
1339,1863
1340,1869
1341,1867
1342,1867
1343,1863
1344,1872
1345,1877
1346,1871
1347,1863
1348,1851
1349,1840
1350,1842
1351,1843
1352,1844
1353,1847
1354,1856
1355,1860
1356,1862
1357,1865
1358,1866
1359,1863
1360,1872
1361,1885
1362,1881
1363,1872
1364,1866
1365,1855
1366,1846
1367,1837
1368,1841
1369,1845
1370,1851
1371,1857
1372,1860
1373,1861
1374,1859
1375,1859
1376,1859
1377,1872
1378,1878
1379,1872
1380,1872
1381,1862
1382,1850
1383,1842
1384,1840
1385,1842
1386,1844
1387,1854
1388,1859
1389,1863
1390,1868
1391,1865
1392,1861
1393,1871
1394,1885
1395,1892
1396,1878
1397,1870
1398,1856
1399,1841
1400,1840
1401,1840
1402,1843
1403,1840
1404,1849
1405,1856
1406,1858
1407,1865
1408,1869
1409,1866
1410,1873
1411,1889
1412,1889
1413,1873
1414,1861
1415,1850
1416,1840
1417,1837
1418,1831
1419,1840
1420,1847
1421,1861
1422,1866
1423,1869
1424,1870
1425,1868
1426,1869
1427,1881
1428,1892
1429,1883
1430,1872
1431,1857
1432,1843
1433,1831
1434,1830
1435,1835
1436,1838
1437,1845
1438,1856
1439,1857
1440,1871
1441,1867
1442,1870
1443,1871
1444,1885
1445,1891
1446,1879
1447,1870
1448,1855
1449,1840
1450,1838
1451,1835
1452,1840
1453,1845
1454,1857
1455,1862
1456,1867
1457,1869
1458,1868
1459,1867
1460,1874
1461,1890
1462,1889
1463,1872
1464,1856
1465,1842
1466,1833
1467,1831
1468,1837
1469,1841
1470,1846
1471,1859
1472,1861
1473,1870
1474,1869
1475,1869
1476,1863
1477,1882
1478,1894
1479,1886
1480,1871
1481,1858
1482,1844
1483,1839
1484,1838
1485,1840
1486,1843
1487,1855
1488,1862
1489,1863
1490,1870
1491,1869
1492,1870
1493,1869
1494,1883
1495,1888
1496,1872
1497,1866
1498,1845
1499,1840
1500,1837
1501,1837
1502,1840
1503,1843
1504,1856
1505,1863
1506,1869
1507,1869
1508,1870
1509,1867
1510,1875
1511,1893
1512,1893
1513,1876
1514,1865
1515,1847
1516,1838
1517,1833
1518,1831
1519,1837
1520,1843
1521,1856
1522,1858
1523,1863
1524,1865
1525,1863
1526,1857
1527,1872
1528,1882
1529,1872
1530,1869
1531,1856
1532,1846
1533,1839
1534,1837
1535,1840
1536,1843
1537,1851
1538,1858
1539,1865
1540,1872
1541,1870
1542,1869
1543,1872
1544,1885
1545,1899
1546,1884
1547,1867
1548,1855
1549,1842
1550,1837
1551,1839
1552,1840
1553,1840
1554,1850
1555,1858
1556,1858
1557,1863
1558,1869
1559,1870
1560,1875
1561,1891
1562,1890
1563,1873
1564,1863
1565,1850
1566,1839
1567,1829
1568,1838
1569,1841
1570,1849
1571,1861
1572,1865
1573,1872
1574,1869
1575,1871
1576,1870
1577,1883
1578,1895
1579,1887
1580,1873
1581,1860
1582,1845
1583,1837
1584,1833
1585,1831
1586,1827
1587,1841
1588,1856
1589,1871
1590,1877
1591,1872
1592,1870
1593,1872
1594,1891
1595,1899
1596,1882
1597,1862
1598,1850
1599,1835
1600,1835
1601,1835
1602,1837
1603,1840
1604,1856
1605,1867
1606,1869
1607,1871
1608,1871
1609,1872
1610,1877
1611,1894
1612,1891
1613,1873
1614,1866
1615,1854
1616,1843
1617,1837
1618,1843
1619,1842
1620,1840
1621,1851
1622,1851
1623,1861
1624,1859
1625,1861
1626,1869
1627,1892
1628,1905
1629,1895
1630,1875
1631,1857
1632,1841
1633,1819
1634,1820
1635,1834
1636,1840
1637,1853
1638,1863
1639,1871
1640,1877
1641,1872
1642,1872
1643,1869
1644,1882
1645,1887
1646,1870
1647,1856
1648,1842
1649,1828
1650,1835
1651,1840
1652,1840
1653,1843
1654,1856
1655,1866
1656,1871
1657,1872
1658,1871
1659,1871
1660,1876
1661,1897
1662,1894
1663,1879
1664,1866
1665,1851
1666,1843
1667,1834
1668,1840
1669,1846
1670,1853
1671,1862
1672,1857
1673,1861
1674,1869
1675,1877
1676,1877
1677,1890
1678,1897
1679,1887
1680,1863
1681,1844
1682,1840
1683,1838
1684,1826
1685,1824
1686,1824
1687,1847
1688,1862
1689,1867
1690,1872
1691,1870
1692,1869
1693,1872
1694,1889
1695,1901
1696,1883
1697,1870
1698,1855
1699,1840
1700,1835
1701,494
1702,1939
1703,2185
1704,3634
1705,4095
1706,3950
1707,3206
1708,2513
1709,1653
1710,683
1711,241
1712,80
1713,150
1714,567
1715,1203
1716,1616
1717,1775
1718,1829
1719,1852
1720,1874
1721,1921
1722,1950
1723,1981
1724,1993
1725,1978
1726,1891
1727,1911
1728,1969
1729,1968
1730,1955
1731,1937
1732,1730
1733,1984
1734,2039
1735,3099
1736,4095
1737,4095
1738,3776
1739,2883
1740,1639
1741,793
1742,286
1743,0
1744,0
1745,648
1746,1382
1747,1728
1748,1835
1749,1890
1750,1903
1751,1918
1752,1939
1753,1960
1754,1981
1755,1991
1756,1991
1757,1987
1758,1985
1759,1984
1760,1985
1761,1996
1762,1987
1763,1966
1764,1866
1765,1997
1766,2484
1767,3397
1768,4081
1769,3854
1770,2965
1771,1723
1772,1018
1773,509
1774,1
1775,217
1776,981
1777,1535
1778,1778
1779,1863
1780,1893
1781,1904
1782,1908
1783,1914
1784,1926
1785,1938
1786,1951
1787,1955
1788,1962
1789,1957
1790,1954
1791,1941
1792,1939
1793,1936
1794,1951
1795,800
1796,1990
1797,2192
1798,2908
1799,3495
1800,3701
1801,3248
1802,1919
1803,1166
1804,533
1805,66
1806,525
1807,1255
1808,1606
1809,1761
1810,1827
1811,1874
1812,1905
1813,1923
1814,1927
1815,1920
1816,1910
1817,1914
1818,1919
1819,1911
1820,1909
1821,1923
1822,1923
1823,1925
1824,1918
1825,1914
1826,1008
1827,1885
1828,2157
1829,2765
1830,3099
1831,3120
1832,3251
1833,2064
1834,1264
1835,486
1836,272
1837,1011
1838,1485
1839,1689
1840,1789
1841,1811
1842,1841
1843,1873
1844,1912
1845,1938
1846,1945
1847,1937
1848,1945
1849,1911
1850,1897
1851,1890
1852,1890
1853,1871
1854,1882
1855,1895
1856,1901
1857,1899
1858,1742
1859,2030
1860,2559
1861,3024
1862,3120
1863,3230
1864,2127
1865,1313
1866,361
1867,511
1868,1189
1869,1535
1870,1711
1871,1794
1872,1818
1873,1845
1874,1878
1875,1900
1876,1909
1877,1932
1878,1943
1879,1935
1880,1930
1881,1911
1882,1891
1883,1878
1884,1877
1885,1878
1886,1874
1887,1883
1888,1883
1889,1310
1890,1967
1891,2358
1892,2848
1893,2953
1894,3280
1895,2288
1896,1583
1897,603
1898,669
1899,1249
1900,1554
1901,1650
1902,1690
1903,1747
1904,1793
1905,1846
1906,1875
1907,1894
1908,1904
1909,1904
1910,1913
1911,1919
1912,1915
1913,1910
1914,1908
1915,1875
1916,1867
1917,1872
1918,1879
1919,1875
1920,424
1921,1904
1922,2143
1923,2704
1924,2838
1925,3213
1926,2559
1927,1744
1928,761
1929,618
1930,1235
1931,1563
1932,1614
1933,1733
1934,1782
1935,1808
1936,1840
1937,1872
1938,1893
1939,1904
1940,1910
1941,1909
1942,1914
1943,1911
1944,1914
1945,1904
1946,1873
1947,1872
1948,1878
1949,1872
1950,1877
1951,1875
1952,1775
1953,2015
1954,2535
1955,2781
1956,3039
1957,2832
1958,1909
1959,989
1960,608
1961,1160
1962,1503
1963,1584
1964,1732
1965,1806
1966,1829
1967,1843
1968,1871
1969,1879
1970,1894
1971,1904
1972,1901
1973,1899
1974,1897
1975,1893
1976,1890
1977,1901
1978,1903
1979,1888
1980,1894
1981,1889
1982,1879
1983,1520
1984,1968
1985,2381
1986,2719
1987,2889
1988,3035
1989,2007
1990,1197
1991,627
1992,1088
1993,1491
1994,1593
1995,1746
1996,1799
1997,1810
1998,1841
1999,1869
2000,1885
2001,1890
2002,1889
2003,1889
2004,1898
2005,1900
2006,1893
2007,1891
2008,1895
2009,1891
2010,1895
2011,1889
2012,1885
2013,1882
2014,449
2015,1936
2016,2192
2017,2660
2018,2733
2019,3147
2020,2249
2021,1494
2022,709
2023,951
2024,1430
2025,1558
2026,1716
2027,1809
2028,1829
2029,1840
2030,1860
2031,1878
2032,1890
2033,1886
2034,1879
2035,1875
2036,1880
2037,1904
2038,1892
2039,1885
2040,1893
2041,1887
2042,1886
2043,1888
2044,1888
2045,945
2046,1874
2047,2089
2048,2607
2049,2690
2050,3148
2051,2475
2052,1648
2053,847
2054,832
2055,1332
2056,1535
2057,1680
2058,1781
2059,1808
2060,1840
2061,1868
2062,1882
2063,1890
2064,1894
2065,1893
2066,1896
2067,1889
2068,1889
2069,1891
2070,1892
2071,1894
2072,1890
2073,1894
2074,1883
2075,1879
2076,1877
2077,1616
2078,1987
2079,2417
2080,2671
2081,2923
2082,2882
2083,1899
2084,1122
2085,731
2086,1202
2087,1488
2088,1615
2089,1767
2090,1818
2091,1834
2092,1847
2093,1867
2094,1878
2095,1887
2096,1890
2097,1902
2098,1887
2099,1883
2100,1887
2101,1893
2102,1891
2103,1886
2104,1883
2105,1882
2106,1879
2107,1878
2108,1115
2109,1959
2110,2280
2111,2640
2112,2780
2113,3117
2114,2032
2115,1324
2116,720
2117,1088
2118,1487
2119,1600
2120,1747
2121,1802
2122,1819
2123,1840
2124,1861
2125,1875
2126,1879
2127,1888
2128,1893
2129,1891
2130,1902
2131,1902
2132,1904
2133,1904
2134,1882
2135,1872
2136,1873
2137,1875
2138,1873
2139,412
2140,1919
2141,2138
2142,2631
2143,2723
2144,3266
2145,2276
2146,1520
2147,784
2148,915
2149,1401
2150,1535
2151,1721
2152,1809
2153,1815
2154,1827
2155,1845
2156,1863
2157,1873
2158,1885
2159,1888
2160,1900
2161,1901
2162,1894
2163,1895
2164,1904
2165,1897
2166,1891
2167,1884
2168,1883
2169,1878
2170,1879
2171,1785
2172,2030
2173,2545
2174,2713
2175,3164
2176,2613
2177,1666
2178,919
2179,774
2180,1285
2181,1517
2182,1680
2183,1777
2184,1809
2185,1837
2186,1855
2187,1874
2188,1891
2189,1894
2190,1897
2191,1898
2192,1899
2193,1899
2194,1898
2195,1894
2196,1892
2197,1888
2198,1886
2199,1881
2200,1879
2201,1877
2202,1424
2203,1980
2204,2366
2205,2672
2206,2923
2207,3009
2208,1915
2209,1177
2210,682
2211,1125
2212,1457
2213,1634
2214,1798
2215,1851
2216,1855
2217,1827
2218,1826
2219,1853
2220,1881
2221,1896
2222,1895
2223,1887
2224,1887
2225,1890
2226,1894
2227,1887
2228,1885
2229,1889
2230,1890
2231,1887
2232,1883
2233,400
2234,1946
2235,2211
2236,2681
2237,2800
2238,3318
2239,2178
2240,1396
2241,640
2242,915
2243,1418
2244,1589
2245,1750
2246,1808
2247,1821
2248,1835
2249,1849
2250,1871
2251,1883
2252,1889
2253,1891
2254,1912
2255,1931
2256,1881
2257,1871
2258,1891
2259,1872
2260,1875
2261,1883
2262,1881
2263,1882
2264,1718
2265,1846
2266,2065
2267,2602
2268,2781
2269,3362
2270,2594
2271,1600
2272,717
2273,685
2274,1286
2275,1535
2276,1733
2277,1827
2278,1847
2279,1840
2280,1823
2281,1827
2282,1858
2283,1875
2284,1881
2285,1889
2286,1904
2287,1904
2288,1899
2289,1881
2290,1884
2291,1887
2292,1882
2293,1882
2294,1877
2295,1878
2296,1535
2297,1991
2298,2432
2299,2741
2300,3125
2301,3015
2302,1872
2303,944
2304,573
2305,1118
2306,1467
2307,1642
2308,1771
2309,1811
2310,1834
2311,1851
2312,1867
2313,1877
2314,1887
2315,1894
2316,1897
2317,1900
2318,1897
2319,1895
2320,1893
2321,1891
2322,1890
2323,1888
2324,1885
2325,1879
2326,1876
2327,1875
2328,1876
2329,1875
2330,1872
2331,1872
2332,1872
2333,1863
2334,1862
2335,1859
2336,1857
2337,1859
2338,1859
2339,1855
2340,1872
2341,1864
2342,1862
2343,1867
2344,1867
2345,1865
2346,1861
2347,1856
2348,1856
2349,1855
2350,1854
2351,1856
2352,1858
2353,1860
2354,1861
2355,1859
2356,1862
2357,1861
2358,1861
2359,1861
2360,1866
2361,1863
2362,1862
2363,1860
2364,1856
2365,1856
2366,1852
2367,1852
2368,1857
2369,1861
2370,1865
2371,1863
2372,1859
2373,1861
2374,1859
2375,1860
2376,1857
2377,1858
2378,1859
2379,1858
2380,1859
2381,1862
2382,1861
2383,1858
2384,1855
2385,1861
2386,1857
2387,1856
2388,1857
2389,1856
2390,1855
2391,1856
2392,1860
2393,1859
2394,1857
2395,1856
2396,1856
2397,1857
2398,1853
2399,1850
2400,1857
2401,1858
2402,1858
2403,1859
2404,1859
2405,1858
2406,1862
2407,1857
2408,1860
2409,1859
2410,1860
2411,1859
2412,1862
2413,1862
2414,1859
2415,1866
2416,1865
2417,1860
2418,1855
2419,1847
2420,1850
2421,1851
2422,1850
2423,1855
2424,1858
2425,1856
2426,1854
2427,1843
2428,1842
2429,1847
2430,1859
2431,1859
2432,1858
2433,1855
2434,1855
2435,1855
2436,1856
2437,1856
2438,1855
2439,1855
2440,1856
2441,1856
2442,1855
2443,1860
2444,1857
2445,1856
2446,1858
2447,1857
2448,1859
2449,1856
2450,1856
2451,1855
2452,1854
2453,1850
2454,1851
2455,1850
2456,1852
2457,1853
2458,1856
2459,1855
2460,1854
2461,1856
2462,1856
2463,1861
2464,1861
2465,1858
2466,1856
2467,1849
2468,1855
2469,1853
2470,1853
2471,1854
2472,1855
2473,1856
2474,1856
2475,1857
2476,1856
2477,1856
2478,1854
2479,1859
2480,1861
2481,1862
2482,1860
2483,1849
2484,1851
2485,1849
2486,1851
2487,1854
2488,1847
2489,1846
2490,1856
2491,1858
2492,1855
2493,1856
2494,1855
2495,1855
2496,1858
2497,1859
2498,1858
2499,1858
2500,1856
2501,1855
2502,1856
2503,1854
2504,1856
2505,1854
2506,1855
2507,1859
2508,1856
2509,1859
2510,1859
2511,1859
2512,1859
2513,1855
2514,1853
2515,1854
2516,1856
2517,1855
2518,1856
2519,1856
2520,1855
2521,1853
2522,1851
2523,1855
2524,1858
2525,1859
2526,1858
2527,1861
2528,1861
2529,1857
2530,1857
2531,1859
2532,1859
2533,1859
2534,1856
2535,1856
2536,1854
2537,1856
2538,1854
2539,1856
2540,1858
2541,1859
2542,1856
2543,1855
2544,1853
2545,1854
2546,1850
2547,1853
2548,1854
2549,1847
2550,1856
2551,1856
2552,1856
2553,1856
2554,1856
2555,1856
2556,1856
2557,1856
2558,1856
2559,1856
2560,1859
2561,1858
2562,1856
2563,1859
2564,1862
2565,1857
2566,1856
2567,1849
2568,1857
2569,1858
2570,1857
2571,1856
2572,1856
2573,1851
2574,1850
2575,1852
2576,1853
2577,1855
2578,1851
2579,1851
2580,1860
2581,1860
2582,1858
2583,1856
2584,1859
2585,1856
2586,1858
2587,1857
2588,1856
2589,1854
2590,1856
2591,1859
2592,1858
2593,1858
2594,1858
2595,1862
2596,1862
2597,1860
2598,1859
2599,1858
2600,1858
2601,1858
2602,1857
2603,1856
2604,1854
2605,1853
2606,1851
2607,1851
2608,1858
2609,1856
2610,1858
2611,1860
2612,1861
2613,1859
2614,1861
2615,1861
2616,1862
2617,1856
2618,1856
2619,1859
2620,1856
2621,1857
2622,1857
2623,1858
2624,1857
2625,1858
2626,1859
2627,1862
2628,1861
2629,1863
2630,1862
2631,1861
2632,1861
2633,1856
2634,1855
2635,1854
2636,1856
2637,1856
2638,1850
2639,1852
2640,1862
2641,1863
2642,1861
2643,1861
2644,1862
2645,1856
2646,1858
2647,1859
2648,1859
2649,1860
2650,1859
2651,1856
2652,1857
2653,1857
2654,1857
2655,1856
2656,1858
2657,1859
2658,1861
2659,1861
2660,1861
2661,1862
2662,1862
2663,1858
2664,1857
2665,1855
2666,1855
2667,1853
2668,1856
2669,1858
2670,1856
2671,1857
2672,1856
2673,1861
2674,1857
2675,1859
2676,1860
2677,1859
2678,1861
2679,1859
2680,1861
2681,1860
2682,1862
2683,1862
2684,1858
2685,1857
2686,1858
2687,1859
2688,1857
2689,1858
2690,1859
2691,1858
2692,1859
2693,1856
2694,1855
2695,1855
2696,1856
2697,1858
2698,1856
2699,1855
2700,1858
2701,1858
2702,1858
2703,1856
2704,1856
2705,1858
2706,1856
2707,1856
2708,1857
2709,1861
2710,1860
2711,1861
2712,1859
2713,1866
2714,1861
2715,1860
2716,1859
2717,1859
2718,1851
2719,1854
2720,1854
2721,1855
2722,1854
2723,1853
2724,1854
2725,1856
2726,1856
2727,1856
2728,1854
2729,1853
2730,1862
2731,1862
2732,1862
2733,1861
2734,1859
2735,1857
2736,1859
2737,1857
2738,1856
2739,1859
2740,1859
2741,1858
2742,1858
2743,1859
2744,1864
2745,1862
2746,1865
2747,1863
2748,1859
2749,1863
2750,1863
2751,1860
2752,1858
2753,1855
2754,1853
2755,1853
2756,1854
2757,1855
2758,1861
2759,1859
2760,1862
2761,1865
2762,1863
2763,1861
2764,1866
2765,1862
2766,1861
2767,1853
2768,1856
2769,1859
2770,1860
2771,1857
2772,1859
2773,1858
2774,1859
2775,1859
2776,1859
2777,1862
2778,1862
2779,1863
2780,1865
2781,1865
2782,1862
2783,1855
2784,1853
2785,1853
2786,1853
2787,1855
2788,1851
2789,1856
2790,1859
2791,1859
2792,1857
2793,1859
2794,1863
2795,1861
2796,1863
2797,1866
2798,1862
2799,1862
2800,1859
2801,1859
2802,1856
2803,1857
2804,1856
2805,1860
2806,1859
2807,1858
2808,1860
2809,1858
2810,1859
2811,1859
2812,1859
2813,1854
2814,1856
2815,1856
2816,1856
2817,1855
2818,1855
2819,1856
2820,1856
2821,1856
2822,1857
2823,1856
2824,1860
2825,1859
2826,1861
2827,1861
2828,1861
2829,1863
2830,1862
2831,1863
2832,1862
2833,1860
2834,1859
2835,1858
2836,1856
2837,1859
2838,1857
2839,1857
2840,1858
2841,1859
2842,1859
2843,1855
2844,1859
2845,1856
2846,1857
2847,1856
2848,1854
2849,1854
2850,1861
2851,1858
2852,1857
2853,1857
2854,1858
2855,1857
2856,1858
2857,1859
2858,1860
2859,1859
2860,1862
2861,1863
2862,1860
2863,1862
2864,1862
2865,1865
2866,1862
2867,1854
2868,1860
2869,1857
2870,1858
2871,1857
2872,1861
2873,1855
2874,1856
2875,1855
2876,1855
2877,1857
2878,1856
2879,1854
2880,1863
2881,1863
2882,1859
2883,1859
2884,1863
2885,1859
2886,1860
2887,1856
2888,1857
2889,1858
2890,1859
2891,1860
2892,1865
2893,1863
2894,1863
2895,1863
2896,1867
2897,1863
2898,1865
2899,1860
2900,1859
2901,1859
2902,1857
2903,1852
2904,1853
2905,1855
2906,1854
2907,1855
2908,1862
2909,1860
2910,1860
2911,1860
2912,1863
2913,1865
2914,1862
2915,1857
2916,1860
2917,1861
2918,1855
2919,1856
2920,1858
2921,1859
2922,1856
2923,1859
2924,1861
2925,1861
2926,1861
2927,1866
2928,1863
2929,1863
2930,1862
2931,1863
2932,1866
2933,1856
2934,1855
2935,1853
2936,1853
2937,1855
2938,1855
2939,1852
2940,1860
2941,1862
2942,1862
2943,1865
2944,1867
2945,1866
2946,1865
2947,1865
2948,1866
2949,1863
2950,1861
2951,1861
2952,1856
2953,1858
2954,1858
2955,1861
2956,1859
2957,1861
2958,1861
2959,1860
2960,1866
2961,1867
2962,1866
2963,1859
2964,1856
2965,1856
2966,1857
2967,1856
2968,1861
2969,1858
2970,1862
2971,1858
2972,1858
2973,1859
2974,1861
2975,1862
2976,1866
2977,1865
2978,1863
2979,1865
2980,1867
2981,1866
2982,1863
2983,1865
2984,1861
2985,1858
2986,1858
2987,1862
2988,1862
2989,1860
2990,1863
2991,1863
2992,1862
2993,1857
2994,1857
2995,1858
2996,1858
2997,1861
2998,1856
2999,1859
3000,1859
3001,1859
3002,1857
3003,1857
3004,1861
3005,1858
3006,1859
3007,1857
3008,1862
3009,1862
3010,1865
3011,1866
3012,1863
3013,1865
3014,1866
3015,1858
3016,1863
3017,1859
3018,1855
3019,1854
3020,1855
3021,1853
3022,1855
3023,1853
3024,1855
3025,1854
3026,1857
3027,1859
3028,1856
3029,1856
3030,1863
3031,1866
3032,1862
3033,1862
3034,1862
3035,1858
3036,1856
3037,1859
3038,1858
3039,1859
3040,1860
3041,1863
3042,1865
3043,1868
3044,1865
3045,1866
3046,1867
3047,1865
3048,1863
3049,1865
3050,1860
3051,1861
3052,1857
3053,1853
3054,1854
3055,1853
3056,1856
3057,1857
3058,1862
3059,1865
3060,1867
3061,1867
3062,1865
3063,1866
3064,1862
3065,1861
3066,1860
3067,1855
3068,1861
3069,1859
3070,1859
3071,1862
3072,1862
3073,1862
3074,1861
3075,1866
3076,1866
3077,1869
3078,1869
3079,1867
3080,1866
3081,1863
3082,1860
3083,1850
3084,1846
3085,1850
3086,1855
3087,1855
3088,1850
3089,1858
3090,1857
3091,1863
3092,1863
3093,1863
3094,1867
3095,1865
3096,1863
3097,1865
3098,1865
3099,1862
3100,1861
3101,1858
3102,1859
3103,1857
3104,1857
3105,1859
3106,1862
3107,1859
3108,1862
3109,1861
3110,1866
3111,1866
3112,1861
3113,1857
3114,1856
3115,1855
3116,1856
3117,1856
3118,1861
3119,1860
3120,1862
3121,1865
3122,1865
3123,1872
3124,1870
3125,1870
3126,1867
3127,1867
3128,1859
3129,1854
3130,1855
3131,1854
3132,1847
3133,1853
3134,1856
3135,1861
3136,1862
3137,1861
3138,1862
3139,1863
3140,1861
3141,1861
3142,1858
3143,1857
3144,1858
3145,1853
3146,1857
3147,1859
3148,1856
3149,1853
3150,1856
3151,1856
3152,1859
3153,1859
3154,1857
3155,1857
3156,1859
3157,1864
3158,1867
3159,1868
3160,1870
3161,1870
3162,1866
3163,1866
3164,1860
3165,1857
3166,1856
3167,1852
3168,1856
3169,1856
3170,1860
3171,1864
3172,1857
3173,1854
3174,1853
3175,1854
3176,1855
3177,1856
3178,1857
3179,1858
3180,1866
3181,1866
3182,1863
3183,1863
3184,1863
3185,1865
3186,1865
3187,1863
3188,1862
3189,1863
3190,1859
3191,1856
3192,1857
3193,1857
3194,1861
3195,1861
3196,1865
3197,1862
3198,1861
3199,1863
3200,1863
3201,1865
3202,1863
3203,1856
3204,1856
3205,1853
3206,1856
3207,1857
3208,1866
3209,1861
3210,1863
3211,1867
3212,1867
3213,1865
3214,1866
3215,1862
3216,1862
3217,1861
3218,1855
3219,1858
3220,1856
3221,1861
3222,1860
3223,1859
3224,1861
3225,1862
3226,1861
3227,1867
3228,1869
3229,1867
3230,1868
3231,1867
3232,1862
3233,1857
3234,1855
3235,1856
3236,1855
3237,1857
3238,1855
3239,1856
3240,1853
3241,1855
3242,1865
3243,1866
3244,1865
3245,1857
3246,1855
3247,1854
3248,1859
3249,1858
3250,1859
3251,1861
3252,1862
3253,1861
3254,1862
3255,1860
3256,1860
3257,1863
3258,1865
3259,1863
3260,1862
3261,1862
3262,1865
3263,1861
3264,1860
3265,1853
3266,1851
3267,1855
3268,1859
3269,1857
3270,1857
3271,1857
3272,1856
3273,1858
3274,1862
3275,1863
3276,1861
3277,1863
3278,1858
3279,1865
3280,1862
3281,1861
3282,1863
3283,1859
3284,1861
3285,1857
3286,1858
3287,1858
3288,1856
3289,1857
3290,1856
3291,1861
3292,1862
3293,1858
3294,1856
3295,1856
3296,1857
3297,1858
3298,1859
3299,1859
3300,1859
3301,1861
3302,1859
3303,1860
3304,1856
3305,1855
3306,1856
3307,1858
3308,1860
3309,1859
3310,1863
3311,1866
3312,1863
3313,1863
3314,1865
3315,1860
3316,1859
3317,1856
3318,1858
3319,1847
3320,1851
3321,1853
3322,1853
3323,1855
3324,1853
3325,1854
3326,1855
3327,1859
3328,554
3329,1966
3330,2234
3331,3981
3332,4095
3333,3959
3334,3105
3335,2417
3336,1535
3337,595
3338,70
3339,17
3340,225
3341,613
3342,1136
3343,1600
3344,1798
3345,1858
3346,1889
3347,1904
3348,1918
3349,1936
3350,1952
3351,1955
3352,1953
3353,1923
3354,1919
3355,1926
3356,1936
3357,1939
3358,1945
3359,1947
3360,2029
3361,2078
3362,3269
3363,4095
3364,4095
3365,3493
3366,2736
3367,1637
3368,553
3369,104
3370,0
3371,6
3372,524
3373,1290
3374,1758
3375,1936
3376,1971
3377,1967
3378,1968
3379,1978
3380,1990
3381,1997
3382,1999
3383,1994
3384,1985
3385,1982
3386,1973
3387,1968
3388,1959
3389,1947
3390,1951
3391,1829
3392,2032
3393,2582
3394,3712
3395,4095
3396,4011
3397,3329
3398,1699
3399,863
3400,551
3401,10
3402,0
3403,567
3404,1313
3405,1712
3406,1861
3407,1903
3408,1920
3409,1941
3410,1965
3411,1978
3412,1985
3413,1981
3414,1979
3415,1975
3416,1968
3417,1963
3418,1962
3419,1949
3420,1941
3421,1937
3422,634
3423,2022
3424,2174
3425,3045
3426,3931
3427,4051
3428,3219
3429,1821
3430,1174
3431,764
3432,125
3433,159
3434,823
3435,1443
3436,1712
3437,1823
3438,1870
3439,1899
3440,1919
3441,1940
3442,1953
3443,1954
3444,1950
3445,1951
3446,1951
3447,1949
3448,1943
3449,1936
3450,1936
3451,1936
3452,1927
3453,1495
3454,1991
3455,2035
3456,2639
3457,3247
3458,3626
3459,3488
3460,2137
3461,1535
3462,965
3463,244
3464,273
3465,976
3466,1478
3467,1710
3468,1808
3469,1855
3470,1882
3471,1904
3472,1923
3473,1931
3474,1938
3475,1942
3476,1940
3477,1936
3478,1936
3479,1930
3480,1934
3481,1931
3482,1925
3483,1921
3484,1918
3485,1630
3486,2000
3487,2442
3488,3031
3489,3147
3490,3523
3491,2311
3492,1737
3493,1056
3494,258
3495,494
3496,1214
3497,1584
3498,1744
3499,1808
3500,1836
3501,1865
3502,1891
3503,1898
3504,1904
3505,1904
3506,1918
3507,1925
3508,1935
3509,1927
3510,1923
3511,1920
3512,1914
3513,1918
3514,1907
3515,1903
3516,1066
3517,1961
3518,2262
3519,2816
3520,3051
3521,3626
3522,2526
3523,1721
3524,976
3525,272
3526,638
3527,1267
3528,1601
3529,1749
3530,1808
3531,1840
3532,1863
3533,1891
3534,1906
3535,1913
3536,1917
3537,1919
3538,1911
3539,1904
3540,1903
3541,1899
3542,1901
3543,1904
3544,1904
3545,1899
3546,1898
3547,622
3548,1911
3549,2103
3550,2605
3551,2915
3552,3495
3553,2899
3554,1949
3555,1121
3556,359
3557,752
3558,1284
3559,1563
3560,1652
3561,1758
3562,1805
3563,1827
3564,1861
3565,1879
3566,1901
3567,1919
3568,1925
3569,1920
3570,1917
3571,1909
3572,1903
3573,1901
3574,1878
3575,1886
3576,1894
3577,1897
3578,1899
3579,1727
3580,2009
3581,2481
3582,2926
3583,3317
3584,3394
3585,2098
3586,1186
3587,307
3588,664
3589,1275
3590,1507
3591,1664
3592,1761
3593,1771
3594,1791
3595,1843
3596,1874
3597,1897
3598,1904
3599,1908
3600,1918
3601,1917
3602,1918
3603,1911
3604,1911
3605,1906
3606,1904
3607,1902
3608,1895
3609,1890
3610,1362
3611,1977
3612,2315
3613,2762
3614,3071
3615,3693
3616,2283
3617,1342
3618,449
3619,611
3620,1203
3621,1462
3622,1631
3623,1754
3624,1807
3625,1826
3626,1855
3627,1872
3628,1882
3629,1894
3630,1904
3631,1906
3632,1909
3633,1926
3634,1933
3635,1905
3636,1882
3637,1893
3638,1892
3639,1891
3640,1888
3641,433
3642,1936
3643,2117
3644,2556
3645,2761
3646,3630
3647,2665
3648,1753
3649,800
3650,537
3651,1076
3652,1424
3653,1603
3654,1749
3655,1806
3656,1830
3657,1855
3658,1881
3659,1898
3660,1902
3661,1904
3662,1905
3663,1906
3664,1906
3665,1906
3666,1917
3667,1906
3668,1903
3669,1899
3670,1893
3671,1887
3672,1886
3673,1810
3674,2010
3675,2429
3676,2719
3677,3410
3678,3055
3679,1869
3680,1050
3681,468
3682,930
3683,1379
3684,1567
3685,1722
3686,1783
3687,1814
3688,1840
3689,1859
3690,1890
3691,1904
3692,1905
3693,1910
3694,1911
3695,1910
3696,1916
3697,1910
3698,1904
3699,1897
3700,1891
3701,1889
3702,1886
3703,1885
3704,1479
3705,1981
3706,2289
3707,2670
3708,3057
3709,3545
3710,2077
3711,1307
3712,503
3713,795
3714,1312
3715,1530
3716,1715
3717,1794
3718,1822
3719,1840
3720,1863
3721,1877
3722,1885
3723,1895
3724,1892
3725,1900
3726,1919
3727,1923
3728,1910
3729,1904
3730,1903
3731,1889
3732,1879
3733,1876
3734,1874
3735,490
3736,1959
3737,2198
3738,2717
3739,2943
3740,3953
3741,2352
3742,1429
3743,503
3744,582
3745,1141
3746,1428
3747,1662
3748,1775
3749,1819
3750,1856
3751,1865
3752,1875
3753,1886
3754,1889
3755,1895
3756,1904
3757,1921
3758,1914
3759,1905
3760,1907
3761,1904
3762,1901
3763,1899
3764,1894
3765,1893
3766,1136
3767,1889
3768,2083
3769,2607
3770,2838
3771,3782
3772,2850
3773,1680
3774,731
3775,391
3776,950
3777,1383
3778,1622
3779,1761
3780,1819
3781,1838
3782,1853
3783,1872
3784,1890
3785,1900
3786,1905
3787,1917
3788,1911
3789,1910
3790,1904
3791,1904
3792,1902
3793,1899
3794,1895
3795,1894
3796,1890
3797,1889
3798,1676
3799,2004
3800,2379
3801,2736
3802,3294
3803,3392
3804,1901
3805,1119
3806,416
3807,826
3808,1331
3809,1584
3810,1759
3811,1820
3812,1835
3813,1840
3814,1860
3815,1877
3816,1877
3817,1887
3818,1889
3819,1926
3820,1915
3821,1904
3822,1902
3823,1902
3824,1904
3825,1903
3826,1899
3827,1891
3828,1889
3829,1168
3830,1987
3831,2257
3832,2683
3833,3011
3834,3859
3835,2189
3836,1355
3837,405
3838,631
3839,1230
3840,1531
3841,1743
3842,1807
3843,1827
3844,1840
3845,1855
3846,1881
3847,1897
3848,1911
3849,1920
3850,1920
3851,1915
3852,1909
3853,1899
3854,1890
3855,1892
3856,1886
3857,1883
3858,1884
3859,1883
3860,438
3861,1947
3862,2127
3863,2633
3864,2877
3865,4051
3866,2552
3867,1575
3868,509
3869,422
3870,1090
3871,1476
3872,1705
3873,1791
3874,1813
3875,1826
3876,1855
3877,1875
3878,1898
3879,1910
3880,1911
3881,1916
3882,1921
3883,1924
3884,1901
3885,1903
3886,1904
3887,1901
3888,1895
3889,1886
3890,1874
3891,1874
3892,1821
3893,2022
3894,2470
3895,2778
3896,3677
3897,3141
3898,1795
3899,773
3900,349
3901,967
3902,1433
3903,1664
3904,1776
3905,1794
3906,1808
3907,1830
3908,1856
3909,1873
3910,1889
3911,1904
3912,1917
3913,1918
3914,1917
3915,1907
3916,1904
3917,1901
3918,1889
3919,1883
3920,1884
3921,1879
3922,1876
3923,1346
3924,1979
3925,2278
3926,2706
3927,3163
3928,3999
3929,2142
3930,1072
3931,272
3932,772
3933,1351
3934,1582
3935,1739
3936,1794
3937,1810
3938,1834
3939,1855
3940,1872
3941,1889
3942,1904
3943,1917
3944,1917
3945,1915
3946,1913
3947,1903
3948,1892
3949,1895
3950,1901
3951,1901
3952,1894
3953,1877
3954,1872
3955,1872
3956,1873
3957,1872
3958,1875
3959,1871
3960,1866
3961,1869
3962,1861
3963,1870
3964,1872
3965,1872
3966,1870
3967,1863
3968,1865
3969,1862
3970,1869
3971,1873
3972,1871
3973,1867
3974,1863
3975,1865
3976,1869
3977,1863
3978,1860
3979,1861
3980,1859
3981,1857
3982,1857
3983,1853
3984,1853
3985,1856
3986,1859
3987,1855
3988,1850
3989,1844
3990,1859
3991,1862
3992,1863
3993,1867
3994,1863
3995,1863
3996,1859
3997,1856
3998,1855
3999,1856
4000,1858
4001,1861
4002,1862
4003,1867
4004,1872
4005,1863
4006,1862
4007,1866
4008,1866
4009,1859
4010,1862
4011,1866
4012,1869
4013,1861
4014,1852
4015,1846
4016,1845
4017,1847
4018,1856
4019,1857
4020,1857
4021,1856
4022,1856
4023,1856
4024,1856
4025,1858
4026,1858
4027,1861
4028,1861
4029,1860
4030,1862
4031,1859
4032,1856
4033,1858
4034,1862
4035,1859
4036,1857
4037,1856
4038,1854
4039,1852
4040,1853
4041,1851
4042,1855
4043,1851
4044,1851
4045,1846
4046,1847
4047,1846
4048,1842
4049,1840
4050,1853
4051,1861
4052,1850
4053,1840
4054,1844
4055,1849
4056,1843
4057,1856
4058,1858
4059,1845
4060,1851
4061,1847
4062,1845
4063,1842
4064,1843
4065,1842
4066,1857
4067,1842
4068,1845
4069,1843
4070,1850
4071,1850
4072,1846
4073,1840
4074,1842
4075,1840
4076,1849
4077,1842
4078,1840
4079,1845
4080,1855
4081,1855
4082,1856
4083,1855
4084,1851
4085,1851
4086,1851
4087,1849
4088,1850
4089,1852
4090,1852
4091,1855
4092,1854
4093,1853
4094,1851
4095,1852
4096,1851
4097,1854
4098,1854
4099,1856
4100,1856
4101,1851
4102,1846
4103,1842
4104,1847
4105,1845
4106,1843
4107,1847
4108,1855
4109,1858
4110,1857
4111,1856
4112,1855
4113,1856
4114,1856
4115,1856
4116,1856
4117,1849
4118,1840
4119,1847
4120,1849
4121,1847
4122,1850
4123,1853
4124,1854
4125,1855
4126,1861
4127,1859
4128,1857
4129,1859
4130,1863
4131,1863
4132,1866
4133,1861
4134,1856
4135,1854
4136,1855
4137,1859
4138,1855
4139,1847
4140,1858
4141,1858
4142,1861
4143,1858
4144,1859
4145,1856
4146,1857
4147,1862
4148,1861
4149,1862
4150,1862
4151,1858
4152,1857
4153,1857
4154,1858
4155,1857
4156,1856
4157,1858
4158,1859
4159,1861
4160,1861
4161,1857
4162,1857
4163,1854
4164,1851
4165,1851
4166,1854
4167,1856
4168,1857
4169,1858
4170,1856
4171,1857
4172,1857
4173,1857
4174,1858
4175,1857
4176,1857
4177,1859
4178,1858
4179,1865
4180,1866
4181,1862
4182,1861
4183,1858
4184,1859
4185,1857
4186,1856
4187,1856
4188,1855
4189,1853
4190,1853
4191,1857
4192,1861
4193,1861
4194,1853
4195,1852
4196,1855
4197,1853
4198,1861
4199,1863
4200,1861
4201,1859
4202,1857
4203,1857
4204,1858
4205,1858
4206,1858
4207,1856
4208,1856
4209,1856
4210,1861
4211,1858
4212,1856
4213,1859
4214,1857
4215,1856
4216,1859
4217,1861
4218,1855
4219,1855
4220,1856
4221,1855
4222,1852
4223,1851
4224,1852
4225,1852
4226,1847
4227,1847
4228,1851
4229,1853
4230,1853
4231,1858
4232,1860
4233,1862
4234,1859
4235,1858
4236,1858
4237,1858
4238,1858
4239,1861
4240,1859
4241,1862
4242,1866
4243,1870
4244,1863
4245,1859
4246,1861
4247,1861
4248,1861
4249,1859
4250,1857
4251,1858
4252,1857
4253,1855
4254,1852
4255,1855
4256,1857
4257,1856
4258,1858
4259,1858
4260,1858
4261,1856
4262,1856
4263,1859
4264,1863
4265,1867
4266,1869
4267,1857
4268,1862
4269,1856
4270,1856
4271,1858
4272,1862
4273,1863
4274,1859
4275,1861
4276,1863
4277,1859
4278,1858
4279,1865
4280,1862
4281,1861
4282,1861
4283,1853
4284,1856
4285,1856
4286,1858
4287,1859
4288,1861
4289,1871
4290,1885
4291,1897
4292,1889
4293,1881
4294,1867
4295,1851
4296,1840
4297,1837
4298,1835
4299,1831
4300,1831
4301,1841
4302,1856
4303,1863
4304,1862
4305,1859
4306,1862
4307,1859
4308,1858
4309,1859
4310,1865
4311,1863
4312,1859
4313,1858
4314,1861
4315,1861
4316,1857
4317,1857
4318,1861
4319,1859
4320,1857
4321,1856
4322,1856
4323,1859
4324,1857
4325,1859
4326,1860
4327,1865
4328,1865
4329,1869
4330,1868
4331,1869
4332,1869
4333,1865
4334,1855
4335,1855
4336,1857
4337,1857
4338,1858
4339,1859
4340,1859
4341,1867
4342,1866
4343,1860
4344,1856
4345,1856
4346,1856
4347,1857
4348,1863
4349,1856
4350,1863
4351,1860
4352,1862
4353,1867
4354,1867
4355,1861
4356,1858
4357,1857
4358,1863
4359,1869
4360,1870
4361,1868
4362,1867
4363,1868
4364,1868
4365,1866
4366,1862
4367,1856
4368,1862
4369,1862
4370,1863
4371,1861
4372,1859
4373,1856
4374,1857
4375,1858
4376,1856
4377,1861
4378,1856
4379,1858
4380,1866
4381,1861
4382,1865
4383,1862
4384,1865
4385,1862
4386,1862
4387,1857
4388,1859
4389,1859
4390,1860
4391,1861
4392,1861
4393,1863
4394,1862
4395,1861
4396,1865
4397,1863
4398,1865
4399,1862
4400,1862
4401,1862
4402,1858
4403,1861
4404,1854
4405,1854
4406,1856
4407,1858
4408,1861
4409,1863
4410,1860
4411,1861
4412,1866
4413,1866
4414,1866
4415,1862
4416,1866
4417,1861
4418,1861
4419,1863
4420,1863
4421,1862
4422,1863
4423,1859
4424,1859
4425,1861
4426,1870
4427,1863
4428,1861
4429,1863
4430,1865
4431,1867
4432,1865
4433,1861
4434,1858
4435,1853
4436,1853
4437,1855
4438,1853
4439,1850
4440,1856
4441,1859
4442,1863
4443,1863
4444,1863
4445,1872
4446,1874
4447,1872
4448,1865
4449,1863
4450,1857
4451,1857
4452,1862
4453,1859
4454,1856
4455,1859
4456,1865
4457,1868
4458,1867
4459,1865
4460,1867
4461,1863
4462,1862
4463,1866
4464,1859
4465,1857
4466,1854
4467,1856
4468,1857
4469,1857
4470,1859
4471,1858
4472,1858
4473,1859
4474,1859
4475,1858
4476,1862
4477,1860
4478,1860
4479,1866
4480,1871
4481,1867
4482,1866
4483,1863
4484,1858
4485,1859
4486,1861
4487,1854
4488,1858
4489,1862
4490,1861
4491,1859
4492,1859
4493,1861
4494,1853
4495,1853
4496,1855
4497,1859
4498,1857
4499,1862
4500,1862
4501,1856
4502,1856
4503,1859
4504,1861
4505,1860
4506,1856
4507,1856
4508,1857
4509,1857
4510,1866
4511,1871
4512,1869
4513,1868
4514,1865
4515,1861
4516,1856
4517,1855
4518,1852
4519,1844
4520,1854
4521,1852
4522,1852
4523,1854
4524,1858
4525,1857
4526,1856
4527,1859
4528,1857
4529,1855
4530,1863
4531,1867
4532,1867
4533,1862
4534,1856
4535,1858
4536,1855
4537,1856
4538,1853
4539,1856
4540,1859
4541,1861
4542,1864
4543,1866
4544,1857
4545,1861
4546,1865
4547,1862
4548,1865
4549,1870
4550,1864
4551,1856
4552,1857
4553,1861
4554,1850
4555,1853
4556,1853
4557,1855
4558,1865
4559,1869
4560,1863
4561,1866
4562,1867
4563,1866
4564,1866
4565,1869
4566,1859
4567,1848
4568,1850
4569,1853
4570,1856
4571,1854
4572,1853
4573,1850
4574,1847
4575,1859
4576,1872
4577,1871
4578,1865
4579,1863
4580,1863
4581,1857
4582,1862
4583,1866
4584,1861
4585,1859
4586,1862
4587,1862
4588,1856
4589,1862
4590,1856
4591,1861
4592,1859
4593,1860
4594,1867
4595,1867
4596,1862
4597,1866
4598,1863
4599,1861
4600,1866
4601,1863
4602,1862
4603,1861
4604,1859
4605,1861
4606,1861
4607,1859
4608,1860
4609,1865
4610,1865
4611,1858
4612,1856
4613,1863
4614,1855
4615,1853
4616,1856
4617,1859
4618,1866
4619,1867
4620,1866
4621,1871
4622,1872
4623,1871
4624,1872
4625,1870
4626,1872
4627,1871
4628,1851
4629,1838
4630,1841
4631,1857
4632,1856
4633,1857
4634,1858
4635,1859
4636,1862
4637,1859
4638,1857
4639,1859
4640,1862
4641,1863
4642,1862
4643,1872
4644,1857
4645,1854
4646,1856
4647,1856
4648,1852
4649,1850
4650,1859
4651,1862
4652,1856
4653,1857
4654,1861
4655,1859
4656,1859
4657,1859
4658,1861
4659,1862
4660,1862
4661,1863
4662,1860
4663,1860
4664,1859
4665,1861
4666,1861
4667,1860
4668,1851
4669,1856
4670,1856
4671,1857
4672,1855
4673,1851
4674,1855
4675,1863
4676,1872
4677,1875
4678,1870
4679,1862
4680,1863
4681,1857
4682,1847
4683,1833
4684,1840
4685,1850
4686,1856
4687,1859
4688,1861
4689,1863
4690,1869
4691,1873
4692,1872
4693,1869
4694,1867
4695,1861
4696,1853
4697,1841
4698,1855
4699,1865
4700,1867
4701,1866
4702,1865
4703,1856
4704,1853
4705,1853
4706,1855
4707,1855
4708,1863
4709,1864
4710,1863
4711,1866
4712,1859
4713,1862
4714,1870
4715,1867
4716,1862
4717,1859
4718,1859
4719,1863
4720,1862
4721,1859
4722,1859
4723,1861
4724,1862
4725,1868
4726,1866
4727,1866
4728,1863
4729,1862
4730,1864
4731,1863
4732,1862
4733,1862
4734,1854
4735,1855
4736,1856
4737,1856
4738,1855
4739,1857
4740,1863
4741,1866
4742,1867
4743,1869
4744,1872
4745,1867
4746,1865
4747,1863
4748,1861
4749,1861
4750,1863
4751,1857
4752,1859
4753,1861
4754,1860
4755,1863
4756,1866
4757,1863
4758,1862
4759,1863
4760,1862
4761,1863
4762,1862
4763,1865
4764,1857
4765,1855
4766,1856
4767,1856
4768,1858
4769,1861
4770,1859
4771,1857
4772,1857
4773,1862
4774,1859
4775,1858
4776,1859
4777,1867
4778,1863
4779,1867
4780,1866
4781,1862
4782,1862
4783,1860
4784,1861
4785,1861
4786,1856
4787,1857
4788,1858
4789,1857
4790,1858
4791,1862
4792,1862
4793,1863
4794,1855
4795,1854
4796,1859
4797,1857
4798,1856
4799,1859
4800,1866
4801,1861
4802,1862
4803,1867
4804,1866
4805,1863
4806,1862
4807,1858
4808,1857
4809,1857
4810,1860
4811,1859
4812,1859
4813,1859
4814,1861
4815,1859
4816,1861
4817,1862
4818,1857
4819,1855
4820,1857
4821,1854
4822,1851
4823,1852
4824,1856
4825,1856
4826,1855
4827,1863
4828,1857
4829,1856
4830,1861
4831,1859
4832,1859
4833,1859
4834,1862
4835,1860
4836,1858
4837,1857
4838,1859
4839,1863
4840,1860
4841,1862
4842,1862
4843,1863
4844,1862
4845,1859
4846,1859
4847,1861
4848,1859
4849,1861
4850,1861
4851,1859
4852,1860
4853,1862
4854,1855
4855,1853
4856,1850
4857,1854
4858,1856
4859,1861
4860,1862
4861,1861
4862,1858
4863,1861
4864,1861
4865,1857
4866,1858
4867,1855
4868,1859
4869,1858
4870,1856
4871,1857
4872,1856
4873,1855
4874,1861
4875,1867
4876,1862
4877,1862
4878,1865
4879,1867
4880,1866
4881,1863
4882,1861
4883,1861
4884,1854
4885,1854
4886,1854
4887,1853
4888,1850
4889,1859
4890,1863
4891,1861
4892,1859
4893,1863
4894,1862
4895,1861
4896,1866
4897,1865
4898,1863
4899,1859
4900,1859
4901,1859
4902,1857
4903,1859
4904,1859
4905,1862
4906,1859
4907,1858
4908,1858
4909,1858
4910,1865
4911,1863
4912,1863
4913,1865
4914,1854
4915,1854
4916,1856
4917,1855
4918,1853
4919,1857
4920,1858
4921,1856
4922,1861
4923,1861
4924,1857
4925,1859
4926,1862
4927,1861
4928,1860
4929,1860
4930,1865
4931,1862
4932,1863
4933,1859
4934,1861
4935,1860
4936,1861
4937,1861
4938,1857
4939,1859
4940,1861
4941,1861
4942,1861
4943,1865
4944,1858
4945,1854
4946,1856
4947,1856
4948,1856
4949,1845
4950,1857
4951,1858
4952,1858
4953,1858
4954,1858
4955,1040
4956,1965
4957,2081
4958,3195
4959,4095
4960,4095
4961,3457
4962,2834
4963,2003
4964,1002
4965,331
4966,106
4967,98
4968,274
4969,768
4970,1359
4971,1681
4972,1807
4973,1869
4974,1885
4975,1903
4976,1921
4977,1945
4978,1947
4979,1957
4980,1951
4981,1953
4982,1958
4983,1961
4984,1953
4985,1946
4986,1939
4987,1983
4988,2041
4989,2921
4990,4095
4991,4095
4992,3766
4993,3022
4994,1815
4995,771
4996,334
4997,84
4998,0
4999,327
5000,1075
5001,1630
5002,1869
5003,1942
5004,1948
5005,1952
5006,1969
5007,1979
5008,1994
5009,2019
5010,2032
5011,2017
5012,1989
5013,1975
5014,1959
5015,1954
5016,1950
5017,1941
5018,1362
5019,2032
5020,2303
5021,3210
5022,4001
5023,4022
5024,3334
5025,2011
5026,1150
5027,987
5028,498
5029,58
5030,327
5031,1039
5032,1575
5033,1768
5034,1840
5035,1871
5036,1904
5037,1938
5038,1963
5039,1973
5040,1984
5041,1979
5042,1975
5043,1977
5044,1971
5045,1962
5046,1949
5047,1938
5048,1930
5049,721
5050,2026
5051,2064
5052,2706
5053,3356
5054,3739
5055,3344
5056,2219
5057,1567
5058,1253
5059,528
5060,128
5061,528
5062,1210
5063,1616
5064,1770
5065,1821
5066,1845
5067,1867
5068,1888
5069,1926
5070,1975
5071,1987
5072,1977
5073,1968
5074,1959
5075,1947
5076,1927
5077,1922
5078,1930
5079,1931
5080,1923
5081,1914
5082,2000
5083,2535
5084,3216
5085,3648
5086,3493
5087,2243
5088,1566
5089,1072
5090,330
5091,153
5092,851
5093,1451
5094,1702
5095,1813
5096,1856
5097,1876
5098,1895
5099,1907
5100,1931
5101,1966
5102,2001
5103,2054
5104,2007
5105,1885
5106,1868
5107,1856
5108,1892
5109,1915
5110,1927
5111,1936
5112,1490
5113,2006
5114,2455
5115,3139
5116,3195
5117,3350
5118,2370
5119,1734
5120,1212
5121,393
5122,288
5123,995
5124,1472
5125,1692
5126,1789
5127,1846
5128,1887
5129,1909
5130,1929
5131,1927
5132,1925
5133,1924
5134,1921
5135,1919
5136,1915
5137,1923
5138,1921
5139,1922
5140,1925
5141,1921
5142,1917
5143,585
5144,1977
5145,2320
5146,3051
5147,3238
5148,3440
5149,2470
5150,1717
5151,1062
5152,251
5153,465
5154,1155
5155,1520
5156,1711
5157,1797
5158,1842
5159,1886
5160,1925
5161,1951
5162,1954
5163,1947
5164,1935
5165,1927
5166,1921
5167,1902
5168,1900
5169,1900
5170,1906
5171,1916
5172,1915
5173,1910
5174,1580
5175,1833
5176,2106
5177,2799
5178,3311
5179,3555
5180,2896
5181,1855
5182,1134
5183,214
5184,389
5185,1115
5186,1509
5187,1711
5188,1786
5189,1819
5190,1847
5191,1884
5192,1915
5193,1933
5194,1947
5195,1952
5196,1961
5197,1945
5198,1920
5199,1903
5200,1895
5201,1893
5202,1888
5203,1897
5204,1904
5205,1902
5206,1570
5207,2006
5208,2594
5209,3238
5210,3455
5211,3380
5212,2006
5213,1205
5214,254
5215,324
5216,1082
5217,1491
5218,1667
5219,1763
5220,1808
5221,1840
5222,1872
5223,1909
5224,1931
5225,1936
5226,1939
5227,1949
5228,1957
5229,1946
5230,1935
5231,1909
5232,1891
5233,1887
5234,1890
5235,1884
5236,1873
5237,794
5238,1947
5239,2417
5240,3163
5241,3402
5242,3678
5243,2149
5244,1306
5245,335
5246,240
5247,1023
5248,1483
5249,1673
5250,1761
5251,1805
5252,1831
5253,1856
5254,1889
5255,1909
5256,1924
5257,1934
5258,1939
5259,1938
5260,1939
5261,1946
5262,1935
5263,1919
5264,1904
5265,1893
5266,1885
5267,1871
5268,607
5269,1879
5270,2192
5271,2906
5272,3298
5273,3949
5274,2604
5275,1565
5276,594
5277,171
5278,869
5279,1399
5280,1614
5281,1659
5282,1739
5283,1787
5284,1833
5285,1872
5286,1887
5287,1904
5288,1916
5289,1923
5290,1932
5291,1930
5292,1929
5293,1936
5294,1937
5295,1933
5296,1925
5297,1913
5298,1895
5299,1877
5300,1746
5301,2055
5302,2711
5303,3274
5304,3790
5305,3053
5306,1766
5307,849
5308,75
5309,661
5310,1303
5311,1569
5312,1682
5313,1797
5314,1833
5315,1840
5316,1862
5317,1884
5318,1900
5319,1905
5320,1923
5321,1930
5322,1921
5323,1919
5324,1918
5325,1911
5326,1904
5327,1922
5328,1931
5329,1919
5330,1904
5331,1348
5332,1969
5333,2543
5334,3251
5335,3514
5336,3685
5337,1967
5338,1053
5339,141
5340,447
5341,1167
5342,1501
5343,1643
5344,1776
5345,1818
5346,1833
5347,1859
5348,1889
5349,1899
5350,1900
5351,1905
5352,1914
5353,1923
5354,1927
5355,1919
5356,1921
5357,1920
5358,1917
5359,1910
5360,1921
5361,1932
5362,400
5363,1938
5364,2324
5365,3169
5366,3437
5367,3902
5368,2301
5369,1249
5370,263
5371,202
5372,1008
5373,1445
5374,1614
5375,1745
5376,1801
5377,1840
5378,1872
5379,1895
5380,1914
5381,1913
5382,1906
5383,1906
5384,1915
5385,1913
5386,1909
5387,1914
5388,1915
5389,1917
5390,1914
5391,1906
5392,1905
5393,1906
5394,1793
5395,2119
5396,2894
5397,3440
5398,3909
5399,2960
5400,1527
5401,562
5402,50
5403,752
5404,1303
5405,1535
5406,1725
5407,1808
5408,1845
5409,1875
5410,1910
5411,1931
5412,1921
5413,1910
5414,1905
5415,1908
5416,1905
5417,1907
5418,1899
5419,1904
5420,1904
5421,1906
5422,1907
5423,1901
5424,1889
5425,1448
5426,1996
5427,2559
5428,3243
5429,3563
5430,3647
5431,1947
5432,1017
5433,113
5434,524
5435,1216
5436,1498
5437,1680
5438,1776
5439,1813
5440,1841
5441,1865
5442,1884
5443,1901
5444,1918
5445,1927
5446,1941
5447,1933
5448,1918
5449,1903
5450,1899
5451,1898
5452,1896
5453,1899
5454,1898
5455,1903
5456,714
5457,1972
5458,2401
5459,3157
5460,3392
5461,3887
5462,2238
5463,1258
5464,209
5465,320
5466,1083
5467,1427
5468,1622
5469,1744
5470,1808
5471,1839
5472,1858
5473,1879
5474,1904
5475,1934
5476,1940
5477,1950
5478,1963
5479,1953
5480,1933
5481,1911
5482,1902
5483,1890
5484,1881
5485,1883
5486,1884
5487,1232
5488,1851
5489,2137
5490,2926
5491,3337
5492,3899
5493,2817
5494,1499
5495,487
5496,146
5497,867
5498,1390
5499,1600
5500,1727
5501,1776
5502,1793
5503,1810
5504,1849
5505,1866
5506,1887
5507,1904
5508,1917
5509,1933
5510,1946
5511,1959
5512,1947
5513,1934
5514,1916
5515,1904
5516,1898
5517,1893
5518,1891
5519,1680
5520,2061
5521,2715
5522,3259
5523,3679
5524,3373
5525,1758
5526,817
5527,150
5528,685
5529,1295
5530,1520
5531,1696
5532,1773
5533,1808
5534,1838
5535,1858
5536,1878
5537,1895
5538,1914
5539,1936
5540,1941
5541,1946
5542,1938
5543,1935
5544,1932
5545,1925
5546,1920
5547,1902
5548,1878
5549,1873
5550,955
5551,1966
5552,2391
5553,3071
5554,3280
5555,3858
5556,2229
5557,1151
5558,269
5559,441
5560,1154
5561,1483
5562,1674
5563,1775
5564,1813
5565,1834
5566,1843
5567,1861
5568,1887
5569,1896
5570,1905
5571,1935
5572,1946
5573,1936
5574,1922
5575,1921
5576,1930
5577,1927
5578,1911
5579,1908
5580,1910
5581,1881
5582,1870
5583,1863
5584,1859
5585,1855
5586,1852
5587,1854
5588,1855
5589,1869
5590,1871
5591,1872
5592,1875
5593,1884
5594,1884
5595,1878
5596,1875
5597,1871
5598,1859
5599,1857
5600,1860
5601,1862
5602,1870
5603,1876
5604,1872
5605,1865
5606,1859
5607,1846
5608,1845
5609,1843
5610,1846
5611,1856
5612,1861
5613,1867
5614,1869
5615,1863
5616,1861
5617,1861
5618,1866
5619,1871
5620,1871
5621,1859
5622,1858
5623,1863
5624,1859
5625,1856
5626,1852
5627,1858
5628,1859
5629,1863
5630,1862
5631,1862
5632,1862
5633,1858
5634,1855
5635,1851
5636,1854
5637,1846
5638,1840
5639,1847
5640,1859
5641,1860
5642,1862
5643,1869
5644,1870
5645,1862
5646,1865
5647,1857
5648,1851
5649,1847
5650,1840
5651,1842
5652,1840
5653,1842
5654,1851
5655,1858
5656,1857
5657,1855
5658,1856
5659,1855
5660,1857
5661,1854
5662,1853
5663,1853
5664,1843
5665,1842
5666,1840
5667,1840
5668,1846
5669,1849
5670,1855
5671,1854
5672,1853
5673,1850
5674,1850
5675,1855
5676,1853
5677,1850
5678,1843
5679,1841
5680,1840
5681,1843
5682,1847
5683,1850
5684,1850
5685,1849
5686,1851
5687,1850
5688,1845
5689,1849
5690,1843
5691,1850
5692,1847
5693,1852
5694,1849
5695,1847
5696,1846
5697,1841
5698,1842
5699,1840
5700,1845
5701,1850
5702,1846
5703,1851
5704,1853
5705,1853
5706,1854
5707,1849
5708,1842
5709,1841
5710,1849
5711,1844
5712,1841
5713,1844
5714,1846
5715,1843
5716,1850
5717,1855
5718,1845
5719,1841
5720,1845
5721,1845
5722,1843
5723,1841
5724,1845
5725,1843
5726,1852
5727,1854
5728,1845
5729,1846
5730,1854
5731,1854
5732,1851
5733,1853
5734,1852
5735,1852
5736,1854
5737,1855
5738,1856
5739,1856
5740,1855
5741,1858
5742,1857
5743,1861
5744,1857
5745,1853
5746,1854
5747,1854
5748,1847
5749,1851
5750,1855
5751,1858
5752,1855
5753,1851
5754,1845
5755,1841
5756,1851
5757,1852
5758,1856
5759,1869
5760,1905
5761,1978
5762,1949
5763,1904
5764,1839
5765,1774
5766,1759
5767,1758
5768,1781
5769,1795
5770,1819
5771,1840
5772,1872
5773,1890
5774,1883
5775,1879
5776,1905
5777,1991
5778,2026
5779,1936
5780,1839
5781,1768
5782,1740
5783,1751
5784,1773
5785,1791
5786,1796
5787,1808
5788,1835
5789,1891
5790,1889
5791,1887
5792,1873
5793,1952
5794,2016
5795,1967
5796,1898
5797,1815
5798,1751
5799,1741
5800,1754
5801,1778
5802,1793
5803,1803
5804,1820
5805,1866
5806,1911
5807,1883
5808,1887
5809,1893
5810,2000
5811,2037
5812,1921
5813,1843
5814,1767
5815,1717
5816,1729
5817,1758
5818,1783
5819,1801
5820,1814
5821,1829
5822,1901
5823,1913
5824,1891
5825,1885
5826,1951
5827,2069
5828,2003
5829,1890
5830,1805
5831,1743
5832,1726
5833,1744
5834,1773
5835,1799
5836,1801
5837,1826
5838,1873
5839,1934
5840,1903
5841,1904
5842,1885
5843,2012
5844,2077
5845,1931
5846,1851
5847,1770
5848,1713
5849,1721
5850,1755
5851,1790
5852,1799
5853,1799
5854,1814
5855,1894
5856,1941
5857,1904
5858,1903
5859,1918
5860,2053
5861,2058
5862,1906
5863,1826
5864,1747
5865,1719
5866,1742
5867,1759
5868,1798
5869,1801
5870,1813
5871,1842
5872,1925
5873,1921
5874,1892
5875,1878
5876,1968
5877,2079
5878,1984
5879,1874
5880,1793
5881,1731
5882,1723
5883,1745
5884,1782
5885,1802
5886,1801
5887,1811
5888,1873
5889,1950
5890,1902
5891,1902
5892,1885
5893,2030
5894,2090
5895,1936
5896,1840
5897,1759
5898,1715
5899,1728
5900,1756
5901,1789
5902,1798
5903,1789
5904,1822
5905,1902
5906,1945
5907,1890
5908,1891
5909,1917
5910,2075
5911,2047
5912,1889
5913,1809
5914,1744
5915,1711
5916,1737
5917,1767
5918,1792
5919,1804
5920,1801
5921,1842
5922,1939
5923,1930
5924,1904
5925,1889
5926,1978
5927,2096
5928,1995
5929,1873
5930,1783
5931,1718
5932,1716
5933,1745
5934,1775
5935,1797
5936,1792
5937,1808
5938,1870
5939,1946
5940,1904
5941,1905
5942,1886
5943,2029
5944,2090
5945,1926
5946,1837
5947,1758
5948,1714
5949,1728
5950,1755
5951,1792
5952,1807
5953,1798
5954,1823
5955,1910
5956,1949
5957,1900
5958,1903
5959,1916
5960,2064
5961,2059
5962,1898
5963,1814
5964,1739
5965,1710
5966,1732
5967,1767
5968,1791
5969,1808
5970,1808
5971,1843
5972,1929
5973,1925
5974,1901
5975,1891
5976,1957
5977,2064
5978,1997
5979,1890
5980,1813
5981,1758
5982,1738
5983,1756
5984,1788
5985,1808
5986,1807
5987,1825
5988,1856
5989,1904
5990,1902
5991,1897
5992,1878
5993,1921
5994,1915
5995,1867
5996,1852
5997,1851
5998,1840
5999,1847
6000,1850
6001,1853
6002,1853
6003,1860
6004,1862
6005,1860
6006,1861
6007,1857
6008,1858
6009,1861
6010,1872
6011,1872
6012,1856
6013,1855
6014,1849
6015,1845
6016,1844
6017,1852
6018,1843
6019,1850
6020,1859
6021,1857
6022,1857
6023,1855
6024,1852
6025,1854
6026,1871
6027,1894
6028,1889
6029,1876
6030,1867
6031,1844
6032,1829
6033,1827
6034,1830
6035,1833
6036,1835
6037,1861
6038,1856
6039,1867
6040,1866
6041,1868
6042,1863
6043,1904
6044,1932
6045,1959
6046,1926
6047,1858
6048,1793
6049,1765
6050,1771
6051,1792
6052,1803
6053,1810
6054,1830
6055,1870
6056,1919
6057,1887
6058,1890
6059,1904
6060,2005
6061,2031
6062,1922
6063,1846
6064,1787
6065,1744
6066,1753
6067,1770
6068,1800
6069,1806
6070,1830
6071,1849
6072,1901
6073,1917
6074,1893
6075,1891
6076,1909
6077,1957
6078,1989
6079,1930
6080,1857
6081,1802
6082,1782
6083,1791
6084,1798
6085,1808
6086,1811
6087,1840
6088,1849
6089,1875
6090,1867
6091,1871
6092,1871
6093,1905
6094,1936
6095,1946
6096,1933
6097,1849
6098,1797
6099,1791
6100,1799
6101,1810
6102,1821
6103,1829
6104,1855
6105,1862
6106,1877
6107,1867
6108,1872
6109,1877
6110,1919
6111,1922
6112,1904
6113,1879
6114,1850
6115,1823
6116,1813
6117,1815
6118,1823
6119,1833
6120,1852
6121,1858
6122,1865
6123,1865
6124,1866
6125,1869
6126,1889
6127,1903
6128,1895
6129,1879
6130,1857
6131,1841
6132,1842
6133,1844
6134,1851
6135,1855
6136,1856
6137,1867
6138,1862
6139,1866
6140,1858
6141,1860
6142,1859
6143,1872
6144,1866
6145,1855
6146,1852
6147,1850
6148,1844
6149,1841
6150,1855
6151,1857
6152,1857
6153,1865
6154,1866
6155,1865
6156,1865
6157,1861
6158,1863
6159,1865
6160,1872
6161,1872
6162,1861
6163,1857
6164,1856
6165,1851
6166,1854
6167,1855
6168,1856
6169,1859
6170,1864
6171,1866
6172,1866
6173,1857
6174,1856
6175,1853
6176,1863
6177,1872
6178,1859
6179,1857
6180,1856
6181,1854
6182,1854
6183,1855
6184,1839
6185,1823
6186,1808
6187,1840
6188,1857
6189,1891
6190,1883
6191,1886
6192,1877
6193,1988
6194,2063
6195,1958
6196,1867
6197,1783
6198,1731
6199,1734
6200,1760
6201,1792
6202,1803
6203,1797
6204,1810
6205,1898
6206,1936
6207,1891
6208,1893
6209,1925
6210,2064
6211,2067
6212,1904
6213,1818
6214,1749
6215,1713
6216,1735
6217,1771
6218,1786
6219,1801
6220,1812
6221,1893
6222,1944
6223,1927
6224,1909
6225,1889
6226,2001
6227,2112
6228,1999
6229,1882
6230,1791
6231,1722
6232,1719
6233,1740
6234,1774
6235,1791
6236,1808
6237,1810
6238,1904
6239,1968
6240,1903
6241,1912
6242,1877
6243,2055
6244,2134
6245,1926
6246,1830
6247,1751
6248,1712
6249,1722
6250,1751
6251,1791
6252,1797
6253,1776
6254,1859
6255,1935
6256,1961
6257,1899
6258,1899
6259,1947
6260,2088
6261,2057
6262,1899
6263,1795
6264,1746
6265,1706
6266,1723
6267,1757
6268,1785
6269,1789
6270,1807
6271,1874
6272,1951
6273,1926
6274,1937
6275,1886
6276,1973
6277,2102
6278,1969
6279,1872
6280,1774
6281,1722
6282,1717
6283,1744
6284,1776
6285,1798
6286,1788
6287,1811
6288,1890
6289,1963
6290,1881
6291,1910
6292,1884
6293,2042
6294,2070
6295,1904
6296,1808
6297,1744
6298,1701
6299,1726
6300,1758
6301,1795
6302,1803
6303,1805
6304,1870
6305,1927
6306,1958
6307,1895
6308,1891
6309,1925
6310,2080
6311,2063
6312,1885
6313,1815
6314,1733
6315,1712
6316,1731
6317,1767
6318,1805
6319,1795
6320,1813
6321,1861
6322,1936
6323,1911
6324,1903
6325,1878
6326,1979
6327,2094
6328,1961
6329,1856
6330,1796
6331,1728
6332,1718
6333,1746
6334,1781
6335,1802
6336,1818
6337,1825
6338,1879
6339,1964
6340,1905
6341,1904
6342,1886
6343,2064
6344,2090
6345,1922
6346,1804
6347,1734
6348,1715
6349,1728
6350,1761
6351,1794
6352,1803
6353,1788
6354,1824
6355,1923
6356,1954
6357,1901
6358,1889
6359,1927
6360,2064
6361,2047
6362,1889
6363,1804
6364,1746
6365,1717
6366,1741
6367,1769
6368,1801
6369,1798
6370,1814
6371,1856
6372,1954
6373,1922
6374,1909
6375,1883
6376,1987
6377,2105
6378,1982
6379,1857
6380,1797
6381,1731
6382,1722
6383,1745
6384,1776
6385,1793
6386,1788
6387,1818
6388,1893
6389,1971
6390,1904
6391,1915
6392,1887
6393,2013
6394,2085
6395,1945
6396,1837
6397,1766
6398,1713
6399,1729
6400,1754
6401,1791
6402,1803
6403,1790
6404,1827
6405,1932
6406,1955
6407,1902
6408,1902
6409,1925
6410,2094
6411,2055
6412,1886
6413,1814
6414,1727
6415,1705
6416,1725
6417,1765
6418,1790
6419,1804
6420,1822
6421,1879
6422,1961
6423,1920
6424,1904
6425,1887
6426,2004
6427,2102
6428,1968
6429,1871
6430,1786
6431,1727
6432,1717
6433,1744
6434,1778
6435,1801
6436,1792
6437,1813
6438,1923
6439,1965
6440,1902
6441,1908
6442,1883
6443,2043
6444,2076
6445,1930
6446,1827
6447,1745
6448,1710
6449,1715
6450,1749
6451,1790
6452,1792
6453,1792
6454,1837
6455,1951
6456,1949
6457,1899
6458,1891
6459,1927
6460,2078
6461,2054
6462,1891
6463,1807
6464,1763
6465,1715
6466,1734
6467,1764
6468,1798
6469,1802
6470,1816
6471,1886
6472,1967
6473,1917
6474,1893
6475,1874
6476,2000
6477,2111
6478,1968
6479,1858
6480,1789
6481,1715
6482,1716
6483,1744
6484,1779
6485,1798
6486,1784
6487,1810
6488,1903
6489,1968
6490,1904
6491,1907
6492,1883
6493,2043
6494,2091
6495,1919
6496,1821
6497,1760
6498,1712
6499,1726
6500,1757
6501,1792
6502,1807
6503,1795
6504,1839
6505,1933
6506,1968
6507,1885
6508,1889
6509,1936
6510,2083
6511,2064
6512,1886
6513,1791
6514,1744
6515,1709
6516,1736
6517,1770
6518,1794
6519,1799
6520,1809
6521,1868
6522,1966
6523,1919
6524,1897
6525,1873
6526,2009
6527,2113
6528,1973
6529,1854
6530,1783
6531,1723
6532,1723
6533,1743
6534,1775
6535,1794
6536,1791
6537,1803
6538,1881
6539,1956
6540,1911
6541,1911
6542,1879
6543,2043
6544,2087
6545,1920
6546,1821
6547,1755
6548,1714
6549,1727
6550,1757
6551,1787
6552,1798
6553,1794
6554,1828
6555,1924
6556,1955
6557,1907
6558,1898
6559,1919
6560,2077
6561,2038
6562,1895
6563,1778
6564,1730
6565,1709
6566,1732
6567,1762
6568,1790
6569,1796
6570,1803
6571,1855
6572,1943
6573,1923
6574,1904
6575,1885
6576,2023
6577,2096
6578,1968
6579,1861
6580,1790
6581,1728
6582,1264
6583,1931
6584,1943
6585,2990
6586,3828
6587,3920
6588,3469
6589,2960
6590,2159
6591,1186
6592,441
6593,333
6594,246
6595,306
6596,715
6597,1235
6598,1519
6599,1654
6600,1744
6601,1823
6602,1853
6603,1865
6604,1923
6605,2031
6606,2032
6607,1967
6608,1959
6609,2000
6610,2160
6611,2130
6612,1983
6613,1887
6614,2174
6615,1923
6616,2614
6617,3776
6618,4095
6619,3651
6620,3054
6621,2055
6622,991
6623,431
6624,89
6625,0
6626,349
6627,1186
6628,1666
6629,1832
6630,1840
6631,1815
6632,1825
6633,1870
6634,1933
6635,1966
6636,1975
6637,1984
6638,1994
6639,2015
6640,1985
6641,2007
6642,1987
6643,2106
6644,2128
6645,1555
6646,2090
6647,2203
6648,3024
6649,3789
6650,3979
6651,3530
6652,2204
6653,1150
6654,871
6655,455
6656,6
6657,154
6658,874
6659,1514
6660,1919
6661,2000
6662,1909
6663,1878
6664,1851
6665,1847
6666,1884
6667,1912
6668,1935
6669,1947
6670,1969
6671,1989
6672,2037
6673,2016
6674,1991
6675,1970
6676,1186
6677,2169
6678,2160
6679,2693
6680,3245
6681,3553
6682,3407
6683,2365
6684,1463
6685,1136
6686,551
6687,50
6688,417
6689,1145
6690,1584
6691,1790
6692,1851
6693,2006
6694,2087
6695,2000
6696,1926
6697,1878
6698,1853
6699,1863
6700,1878
6701,1902
6702,1904
6703,1915
6704,1927
6705,1984
6706,1999
6707,1947
6708,1870
6709,2078
6710,2666
6711,3354
6712,3422
6713,3615
6714,2401
6715,1435
6716,1103
6717,483
6718,131
6719,635
6720,1326
6721,1655
6722,1855
6723,1899
6724,1911
6725,1916
6726,2027
6727,2115
6728,2032
6729,1948
6730,1910
6731,1860
6732,1844
6733,1850
6734,1856
6735,1871
6736,1879
6737,1891
6738,1946
6739,1462
6740,2011
6741,2433
6742,3018
6743,3150
6744,3478
6745,2550
6746,1838
6747,1318
6748,460
6749,225
6750,912
6751,1442
6752,1663
6753,1755
6754,1804
6755,1885
6756,1936
6757,1925
6758,1943
6759,2013
6760,2121
6761,2095
6762,1975
6763,1897
6764,1822
6765,1791
6766,1813
6767,1837
6768,1863
6769,1867
6770,464
6771,1947
6772,2205
6773,2786
6774,3043
6775,3328
6776,2863
6777,2156
6778,1535
6779,511
6780,318
6781,917
6782,1335
6783,1584
6784,1718
6785,1779
6786,1823
6787,1857
6788,1935
6789,1988
6790,1953
6791,1955
6792,1950
6793,2063
6794,2096
6795,1942
6796,1887
6797,1831
6798,1793
6799,1797
6800,1823
6801,1840
6802,1781
6803,2022
6804,2687
6805,3248
6806,3325
6807,3007
6808,1951
6809,1315
6810,497
6811,526
6812,1175
6813,1497
6814,1620
6815,1679
6816,1729
6817,1779
6818,1824
6819,1858
6820,1882
6821,1925
6822,1989
6823,1971
6824,1957
6825,1937
6826,2020
6827,2081
6828,2001
6829,1907
6830,1836
6831,1795
6832,1789
6833,1468
6834,1923
6835,2402
6836,2992
6837,3136
6838,3447
6839,2211
6840,1430
6841,471
6842,387
6843,1181
6844,1639
6845,1744
6846,1746
6847,1728
6848,1712
6849,1761
6850,1810
6851,1850
6852,1871
6853,1893
6854,1922
6855,1990
6856,1998
6857,1956
6858,1933
6859,1957
6860,2077
6861,2031
6862,1911
6863,1845
6864,526
6865,1885
6866,2186
6867,2800
6868,2998
6869,3517
6870,2436
6871,1655
6872,701
6873,354
6874,959
6875,1407
6876,1697
6877,1835
6878,1853
6879,1809
6880,1797
6881,1778
6882,1790
6883,1819
6884,1856
6885,1875
6886,1884
6887,1893
6888,1936
6889,1974
6890,1939
6891,1939
6892,1918
6893,2032
6894,2055
6895,1087
6896,1968
6897,2059
6898,2640
6899,2950
6900,3486
6901,2719
6902,1691
6903,721
6904,177
6905,865
6906,1421
6907,1570
6908,1711
6909,1845
6910,1978
6911,1986
6912,1911
6913,1872
6914,1826
6915,1806
6916,1818
6917,1868
6918,1874
6919,1886
6920,1911
6921,1913
6922,1941
6923,1933
6924,1931
6925,1909
6926,1996
6927,1767
6928,2112
6929,2597
6930,3017
6931,3221
6932,3173
6933,1904
6934,1049
6935,202
6936,593
6937,1185
6938,1509
6939,1731
6940,1803
6941,1841
6942,1869
6943,2003
6944,2057
6945,1945
6946,1882
6947,1843
6948,1813
6949,1818
6950,1836
6951,1867
6952,1872
6953,1881
6954,1903
6955,1949
6956,1937
6957,1923
6958,965
6959,2019
6960,2534
6961,3183
6962,3215
6963,3699
6964,2161
6965,1193
6966,270
6967,339
6968,1054
6969,1394
6970,1599
6971,1771
6972,1872
6973,1890
6974,1903
6975,1917
6976,2013
6977,2096
6978,2017
6979,1936
6980,1858
6981,1819
6982,1818
6983,1828
6984,1836
6985,1840
6986,1851
6987,1871
6988,1920
6989,533
6990,1937
6991,2256
6992,2887
6993,3242
6994,3993
6995,2607
6996,1535
6997,528
6998,202
6999,850
7000,1310
7001,1522
7002,1684
7003,1777
7004,1847
7005,1911
7006,1961
7007,1948
7008,1945
7009,1991
7010,2107
7011,2075
7012,1962
7013,1863
7014,1806
7015,1788
7016,1801
7017,1827
7018,1844
7019,1856
7020,1873
7021,1776
7022,2146
7023,2704
7024,3183
7025,3508
7026,3110
7027,1883
7028,930
7029,246
7030,711
7031,1257
7032,1519
7033,1664
7034,1744
7035,1805
7036,1825
7037,1861
7038,1934
7039,1981
7040,1934
7041,1952
7042,1942
7043,2079
7044,2089
7045,1953
7046,1856
7047,1817
7048,1781
7049,1780
7050,1809
7051,1838
7052,1415
7053,1968
7054,2490
7055,3125
7056,3394
7057,3620
7058,2008
7059,1194
7060,464
7061,727
7062,1205
7063,1424
7064,1568
7065,1650
7066,1710
7067,1757
7068,1823
7069,1855
7070,1883
7071,1926
7072,1981
7073,1969
7074,1942
7075,1927
7076,2019
7077,2070
7078,1984
7079,1893
7080,1819
7081,1791
7082,1783
7083,325
7084,1910
7085,2202
7086,2859
7087,3049
7088,3856
7089,2489
7090,1478
7091,592
7092,400
7093,1169
7094,1584
7095,1648
7096,1717
7097,1713
7098,1722
7099,1761
7100,1805
7101,1840
7102,1856
7103,1889
7104,1926
7105,1979
7106,1981
7107,1938
7108,1933
7109,1963
7110,2064
7111,2030
7112,1931
7113,1872
7114,1668
7115,1824
7116,1985
7117,2651
7118,2990
7119,3515
7120,2854
7121,1685
7122,885
7123,328
7124,839
7125,1344
7126,1660
7127,1895
7128,1876
7129,1818
7130,1792
7131,1785
7132,1796
7133,1821
7134,1849
7135,1867
7136,1873
7137,1886
7138,1932
7139,1979
7140,1936
7141,1936
7142,1926
7143,2032
7144,2079
7145,1941
7146,1699
7147,1949
7148,2329
7149,2864
7150,3151
7151,3306
7152,1925
7153,1169
7154,320
7155,662
7156,1286
7157,1513
7158,1699
7159,1836
7160,1979
7161,1985
7162,1899
7163,1845
7164,1798
7165,1785
7166,1806
7167,1840
7168,1869
7169,1875
7170,1900
7171,1920
7172,1970
7173,1936
7174,1937
7175,1911
7176,1998
7177,706
7178,2023
7179,2323
7180,2925
7181,3024
7182,3611
7183,2147
7184,1315
7185,469
7186,395
7187,1061
7188,1445
7189,1686
7190,1767
7191,1839
7192,1843
7193,1997
7194,2063
7195,1935
7196,1873
7197,1841
7198,1808
7199,1830
7200,1859
7201,1878
7202,1887
7203,1890
7204,1904
7205,1959
7206,1950
7207,1905
7208,1904
7209,1943
7210,2042
7211,2007
7212,1897
7213,1819
7214,1779
7215,1759
7216,1776
7217,1806
7218,1817
7219,1820
7220,1840
7221,1875
7222,1943
7223,1904
7224,1878
7225,1863
7226,1968
7227,2033
7228,1930
7229,1850
7230,1792
7231,1751
7232,1749
7233,1775
7234,1800
7235,1815
7236,1827
7237,1840
7238,1893
7239,1937
7240,1897
7241,1899
7242,1878
7243,2009
7244,2035
7245,1906
7246,1840
7247,1774
7248,1734
7249,1744
7250,1777
7251,1805
7252,1808
7253,1830
7254,1839
7255,1906
7256,1914
7257,1883
7258,1877
7259,1946
7260,2019
7261,1987
7262,1877
7263,1813
7264,1770
7265,1747
7266,1766
7267,1789
7268,1811
7269,1808
7270,1844
7271,1866
7272,1922
7273,1899
7274,1891
7275,1877
7276,1980
7277,2031
7278,1937
7279,1858
7280,1794
7281,1745
7282,1744
7283,1772
7284,1792
7285,1805
7286,1808
7287,1830
7288,1871
7289,1909
7290,1875
7291,1881
7292,1877
7293,1991
7294,2015
7295,1887
7296,1813
7297,1773
7298,1737
7299,1747
7300,1776
7301,1799
7302,1808
7303,1827
7304,1855
7305,1890
7306,1904
7307,1880
7308,1877
7309,1919
7310,2019
7311,1978
7312,1861
7313,1799
7314,1746
7315,1732
7316,1755
7317,1799
7318,1846
7319,1888
7320,1917
7321,1913
7322,1946
7323,1894
7324,1845
7325,1774
7326,1867
7327,1961
7328,1882
7329,1791
7330,1727
7331,1703
7332,1730
7333,1791
7334,1829
7335,1850
7336,1805
7337,1798
7338,1878
7339,1926
7340,1872
7341,1873
7342,1872
7343,2000
7344,2011
7345,1893
7346,1855
7347,1779
7348,1743
7349,1746
7350,1783
7351,1813
7352,1824
7353,1834
7354,1844
7355,1915
7356,1933
7357,1890
7358,1881
7359,1927
7360,2019
7361,1978
7362,1878
7363,1808
7364,1765
7365,1745
7366,1761
7367,1783
7368,1814
7369,1820
7370,1840
7371,1872
7372,1924
7373,1899
7374,1892
7375,1872
7376,1965
7377,2017
7378,1907
7379,1842
7380,1783
7381,1749
7382,1754
7383,1776
7384,1806
7385,1815
7386,1825
7387,1840
7388,1897
7389,1930
7390,1885
7391,1891
7392,1879
7393,1997
7394,2012
7395,1885
7396,1839
7397,1773
7398,1744
7399,1761
7400,1792
7401,1809
7402,1816
7403,1832
7404,1848
7405,1893
7406,1902
7407,1875
7408,1871
7409,1930
7410,2010
7411,1975
7412,1872
7413,1833
7414,1761
7415,1742
7416,1762
7417,1787
7418,1801
7419,1808
7420,1836
7421,1862
7422,1908
7423,1886
7424,1877
7425,1863
7426,1964
7427,2028
7428,1914
7429,1839
7430,1776
7431,1744
7432,1745
7433,1771
7434,1790
7435,1804
7436,1810
7437,1830
7438,1877
7439,1915
7440,1883
7441,1884
7442,1878
7443,1991
7444,2000
7445,1872
7446,1810
7447,1779
7448,1743
7449,1751
7450,1775
7451,1807
7452,1810
7453,1831
7454,1841
7455,1904
7456,1915
7457,1885
7458,1875
7459,1922
7460,2014
7461,1968
7462,1875
7463,1805
7464,1754
7465,1739
7466,1755
7467,1783
7468,1808
7469,1814
7470,1840
7471,1872
7472,1919
7473,1890
7474,1894
7475,1872
7476,1966
7477,2020
7478,1913
7479,1853
7480,1789
7481,1753
7482,1748
7483,1775
7484,1807
7485,1817
7486,1824
7487,1828
7488,1886
7489,1930
7490,1890
7491,1888
7492,1889
7493,2000
7494,2007
7495,1883
7496,1813
7497,1771
7498,1738
7499,1762
7500,1785
7501,1808
7502,1817
7503,1839
7504,1855
7505,1917
7506,1914
7507,1889
7508,1881
7509,1923
7510,2011
7511,1968
7512,1878
7513,1801
7514,1763
7515,1749
7516,1771
7517,1795
7518,1808
7519,1815
7520,1831
7521,1862
7522,1909
7523,1888
7524,1882
7525,1872
7526,1968
7527,2026
7528,1933
7529,1823
7530,1776
7531,1750
7532,1754
7533,1778
7534,1808
7535,1819
7536,1824
7537,1838
7538,1899
7539,1926
7540,1889
7541,1887
7542,1883
7543,1993
7544,2002
7545,1895
7546,1833
7547,1762
7548,1746
7549,1762
7550,1789
7551,1809
7552,1820
7553,1839
7554,1844
7555,1907
7556,1911
7557,1886
7558,1873
7559,1927
7560,2023
7561,1977
7562,1872
7563,1837
7564,1774
7565,1756
7566,1774
7567,1792
7568,1814
7569,1821
7570,1841
7571,1872
7572,1925
7573,1904
7574,1891
7575,1875
7576,1975
7577,2032
7578,1920
7579,1856
7580,1789
7581,1750
7582,1758
7583,1776
7584,1797
7585,1811
7586,1821
7587,1840
7588,1890
7589,1943
7590,1890
7591,1893
7592,1890
7593,2005
7594,2000
7595,1907
7596,1827
7597,1779
7598,1747
7599,1762
7600,1790
7601,1813
7602,1821
7603,1839
7604,1860
7605,1919
7606,1920
7607,1890
7608,1881
7609,1934
7610,2036
7611,1968
7612,1881
7613,1798
7614,1761
7615,1744
7616,1766
7617,1791
7618,1813
7619,1820
7620,1836
7621,1878
7622,1937
7623,1902
7624,1890
7625,1877
7626,1985
7627,2032
7628,1910
7629,1846
7630,1789
7631,1747
7632,1756
7633,1776
7634,1808
7635,1819
7636,1827
7637,1843
7638,1899
7639,1931
7640,1887
7641,1891
7642,1883
7643,1997
7644,2000
7645,1882
7646,1821
7647,1781
7648,1741
7649,1751
7650,1786
7651,1813
7652,1820
7653,1840
7654,1855
7655,1915
7656,1919
7657,1911
7658,1882
7659,1936
7660,2019
7661,1969
7662,1868
7663,1808
7664,1766
7665,1746
7666,1776
7667,1793
7668,1819
7669,1822
7670,1840
7671,1872
7672,1923
7673,1898
7674,1882
7675,1872
7676,1968
7677,2031
7678,1915
7679,1850
7680,1779
7681,1755
7682,1759
7683,1778
7684,1808
7685,1820
7686,1829
7687,1831
7688,1894
7689,1930
7690,1888
7691,1889
7692,1884
7693,2010
7694,2007
7695,1891
7696,1825
7697,1774
7698,1744
7699,1764
7700,1790
7701,1811
7702,1821
7703,1842
7704,1847
7705,1907
7706,1906
7707,1890
7708,1873
7709,1926
7710,2025
7711,1967
7712,1878
7713,1794
7714,1766
7715,1751
7716,1772
7717,1798
7718,1819
7719,1823
7720,1840
7721,1872
7722,1929
7723,1897
7724,1897
7725,1876
7726,1977
7727,2022
7728,1904
7729,1844
7730,1782
7731,1754
7732,1757
7733,1778
7734,1802
7735,1815
7736,1823
7737,1838
7738,1882
7739,1921
7740,1891
7741,1889
7742,1895
7743,2019
7744,2000
7745,1881
7746,1824
7747,1779
7748,1746
7749,1766
7750,1789
7751,1813
7752,1823
7753,1839
7754,1858
7755,1917
7756,1916
7757,1890
7758,1881
7759,1929
7760,2026
7761,1968
7762,1869
7763,1799
7764,1775
7765,1747
7766,1767
7767,1796
7768,1810
7769,1821
7770,1842
7771,1877
7772,1927
7773,1898
7774,1894
7775,1872
7776,1979
7777,2020
7778,1919
7779,1840
7780,1793
7781,1749
7782,1758
7783,1778
7784,1809
7785,1822
7786,1830
7787,1839
7788,1893
7789,1930
7790,1895
7791,1889
7792,1897
7793,2005
7794,2002
7795,1882
7796,1815
7797,1770
7798,1743
7799,1763
7800,1791
7801,1812
7802,1818
7803,1838
7804,1863
7805,1920
7806,1914
7807,1891
7808,1877
7809,1945
7810,2029
7811,1963
7812,1866
7813,1806
7814,1765
7815,1750
7816,1771
7817,1803
7818,1819
7819,1814
7820,1840
7821,1877
7822,1922
7823,1890
7824,1902
7825,1879
7826,1982
7827,2021
7828,1931
7829,1834
7830,1792
7831,1751
7832,1758
7833,1778
7834,1808
7835,1821
7836,1829
7837,1842
7838,1898
7839,1929
7840,1891
7841,1887
7842,1888
7843,2000
7844,2030
7845,1887
7846,1819
7847,1776
7848,1747
7849,1765
7850,1791
7851,1814
7852,1821
7853,1840
7854,1853
7855,1909
7856,1910
7857,1895
7858,1873
7859,1938
7860,2029
7861,1969
7862,1877
7863,1797
7864,1766
7865,1750
7866,1776
7867,1799
7868,1820
7869,1821
7870,1838
7871,1872
7872,1926
7873,1893
7874,1895
7875,1875
7876,1981
7877,2032
7878,1919
7879,1841
7880,1787
7881,1755
7882,1760
7883,1778
7884,1803
7885,1811
7886,1825
7887,1837
7888,1885
7889,1924
7890,1897
7891,1890
7892,1895
7893,2006
7894,2007
7895,1888
7896,1826
7897,1779
7898,1746
7899,1765
7900,1791
7901,1812
7902,1819
7903,1843
7904,1861
7905,1910
7906,1915
7907,1891
7908,1881
7909,1936
7910,2026
7911,1968
7912,1874
7913,1808
7914,1760
7915,1744
7916,1770
7917,1793
7918,1811
7919,1821
7920,1842
7921,1872
7922,1925
7923,1895
7924,1894
7925,1877
7926,1974
7927,2029
7928,1916
7929,1846
7930,1793
7931,1753
7932,1760
7933,1781
7934,1807
7935,1817
7936,1829
7937,1841
7938,1890
7939,1922
7940,1894
7941,1890
7942,1898
7943,1997
7944,1990
7945,1887
7946,1824
7947,1776
7948,1747
7949,1760
7950,1792
7951,1814
7952,1824
7953,1840
7954,1854
7955,1895
7956,1905
7957,1895
7958,1882
7959,1923
7960,1995
7961,1971
7962,1893
7963,1829
7964,1785
7965,1767
7966,1776
7967,1793
7968,1819
7969,1819
7970,1840
7971,1866
7972,1902
7973,1894
7974,1887
7975,1874
7976,1925
7977,1991
7978,1931
7979,1884
7980,1826
7981,1791
7982,1776
7983,1782
7984,1798
7985,1813
7986,1824
7987,1849
7988,1872
7989,1904
7990,1885
7991,1886
7992,1887
7993,1991
7994,2015
7995,1910
7996,1840
7997,1787
7998,1754
7999,1771
8000,1794
8001,1815
8002,1819
8003,1840
8004,1853
8005,1904
8006,1905
8007,1883
8008,1875
8009,1948
8010,2029
8011,1966
8012,1874
8013,1798
8014,1763
8015,1751
8016,1770
8017,1800
8018,1816
8019,1824
8020,1839
8021,1874
8022,1927
8023,1899
8024,1895
8025,1877
8026,1981
8027,2021
8028,1918
8029,1845
8030,1783
8031,1751
8032,1760
8033,1779
8034,1802
8035,1813
8036,1831
8037,1835
8038,1890
8039,1918
8040,1889
8041,1889
8042,1903
8043,1999
8044,2000
8045,1888
8046,1824
8047,1778
8048,1749
8049,1770
8050,1792
8051,1814
8052,1822
8053,1843
8054,1860
8055,1915
8056,1909
8057,1883
8058,1886
8059,1942
8060,2019
8061,1964
8062,1874
8063,1808
8064,1761
8065,1751
8066,1772
8067,1798
8068,1811
8069,1824
8070,1843
8071,1875
8072,1920
8073,1894
8074,1891
8075,1877
8076,1969
8077,2013
8078,1915
8079,1853
8080,1793
8081,1759
8082,1765
8083,1786
8084,1808
8085,1821
8086,1834
8087,1846
8088,1890
8089,1921
8090,1892
8091,1887
8092,1898
8093,1984
8094,1984
8095,1888
8096,1823
8097,1781
8098,1758
8099,1775
8100,1797
8101,1819
8102,1826
8103,1840
8104,1858
8105,1899
8106,1901
8107,1889
8108,1878
8109,1927
8110,1994
8111,1959
8112,1885
8113,1824
8114,1785
8115,1766
8116,1779
8117,1806
8118,1822
8119,1821
8120,1839
8121,1866
8122,1900
8123,1884
8124,1881
8125,1872
8126,1936
8127,1979
8128,1925
8129,1870
8130,1813
8131,1782
8132,1776
8133,1792
8134,1811
8135,1824
8136,1834
8137,1856
8138,1874
8139,1897
8140,1882
8141,1885
8142,1885
8143,1938
8144,1965
8145,1920
8146,1872
8147,1824
8148,1789
8149,1789
8150,1797
8151,1818
8152,1822
8153,1838
8154,1859
8155,1881
8156,1883
8157,1876
8158,1872
8159,1894
8160,1961
8161,1963
8162,1904
8163,1849
8164,1805
8165,1780
8166,1787
8167,1805
8168,1818
8169,1825
8170,1845
8171,1871
8172,1897
8173,1885
8174,1885
8175,1874
8176,1946
8177,1989
8178,1931
8179,1871
8180,1813
8181,1776
8182,1775
8183,1788
8184,1805
8185,1814
8186,1829
8187,1843
8188,1872
8189,1908
8190,1886
8191,1887
8192,1895
8193,1981
8194,1986
8195,1901
8196,1840
8197,1791
8198,1762
8199,1774
8200,1796
8201,1819
8202,1828
8203,1842
8204,1863
8205,1902
8206,1904
8207,1888
8208,1881
8209,1919
8210,2073
8211,2094
8212,2992
8213,4065
8214,4022
8215,3410
8216,2863
8217,2055
8218,1097
8219,432
8220,99
8221,2
8222,247
8223,720
8224,1328
8225,1678
8226,1882
8227,1984
8228,1953
8229,1921
8230,1886
8231,1868
8232,1878
8233,1903
8234,1905
8235,1905
8236,1919
8237,1962
8238,1974
8239,1984
8240,1971
8241,1905
8242,2062
8243,2762
8244,4095
8245,4095
8246,4019
8247,3205
8248,1972
8249,901
8250,377
8251,29
8252,0
8253,181
8254,946
8255,1563
8256,1847
8257,1938
8258,1948
8259,1969
8260,1996
8261,2002
8262,2005
8263,2002
8264,2003
8265,1995
8266,1985
8267,1968
8268,1970
8269,1961
8270,1947
8271,1955
8272,649
8273,2053
8274,2189
8275,3098
8276,4058
8277,4095
8278,3860
8279,2361
8280,1287
8281,944
8282,443
8283,0
8284,85
8285,799
8286,1414
8287,1743
8288,1851
8289,1904
8290,1921
8291,1951
8292,1982
8293,2054
8294,2093
8295,2034
8296,1975
8297,1930
8298,1891
8299,1887
8300,1898
8301,1909
8302,1911
8303,1595
8304,2017
8305,2069
8306,2670
8307,3363
8308,3825
8309,3609
8310,2441
8311,1665
8312,1264
8313,505
8314,50
8315,371
8316,1062
8317,1510
8318,1717
8319,1792
8320,1854
8321,1907
8322,1965
8323,1968
8324,1982
8325,1977
8326,2036
8327,2094
8328,2030
8329,1963
8330,1888
8331,1845
8332,1846
8333,1856
8334,1866
8335,1803
8336,1986
8337,2477
8338,3067
8339,3342
8340,3489
8341,2433
8342,1775
8343,1359
8344,615
8345,302
8346,821
8347,1337
8348,1579
8349,1701
8350,1774
8351,1822
8352,1853
8353,1874
8354,1930
8355,1957
8356,1971
8357,1969
8358,1966
8359,1968
8360,1985
8361,1985
8362,1967
8363,1936
8364,1904
8365,1880
8366,1007
8367,1956
8368,2257
8369,2928
8370,3055
8371,3333
8372,2512
8373,1883
8374,1299
8375,400
8376,403
8377,1139
8378,1531
8379,1719
8380,1808
8381,1829
8382,1841
8383,1871
8384,1895
8385,1909
8386,1930
8387,1968
8388,2000
8389,1997
8390,1870
8391,1868
8392,1904
8393,1921
8394,1919
8395,1911
8396,1904
8397,652
8398,1934
8399,2134
8400,2825
8401,3167
8402,3440
8403,2742
8404,1838
8405,1145
8406,279
8407,447
8408,1138
8409,1526
8410,1723
8411,1805
8412,1838
8413,1861
8414,1888
8415,1899
8416,1907
8417,1915
8418,1910
8419,1920
8420,1919
8421,1920
8422,1917
8423,1919
8424,1917
8425,1911
8426,1915
8427,1913
8428,1904
8429,1741
8430,2039
8431,2623
8432,3185
8433,3329
8434,3108
8435,1958
8436,1251
8437,334
8438,401
8439,1097
8440,1510
8441,1706
8442,1785
8443,1815
8444,1844
8445,1882
8446,1905
8447,1916
8448,1914
8449,1920
8450,1921
8451,1919
8452,1919
8453,1923
8454,1920
8455,1919
8456,1913
8457,1897
8458,1881
8459,1894
8460,1257
8461,1978
8462,2467
8463,3153
8464,3281
8465,3389
8466,2071
8467,1334
8468,378
8469,279
8470,1011
8471,1475
8472,1691
8473,1791
8474,1830
8475,1853
8476,1877
8477,1917
8478,1927
8479,1930
8480,1935
8481,1936
8482,1926
8483,1904
8484,1898
8485,1904
8486,1904
8487,1907
8488,1899
8489,1890
8490,1904
8491,435
8492,1926
8493,2231
8494,2917
8495,3209
8496,3703
8497,2543
8498,1680
8499,689
8500,213
8501,848
8502,1369
8503,1588
8504,1664
8505,1750
8506,1803
8507,1847
8508,1883
8509,1906
8510,1926
8511,1937
8512,1941
8513,1937
8514,1923
8515,1903
8516,1875
8517,1872
8518,1887
8519,1904
8520,1904
8521,1901
8522,1882
8523,1808
8524,2095
8525,2823
8526,3386
8527,3758
8528,3000
8529,1772
8530,784
8531,58
8532,633
8533,1247
8534,1510
8535,1659
8536,1770
8537,1818
8538,1855
8539,1891
8540,1911
8541,1930
8542,1932
8543,1939
8544,1938
8545,1935
8546,1927
8547,1919
8548,1909
8549,1898
8550,1901
8551,1899
8552,1892
8553,1894
8554,1495
8555,2000
8556,2605
8557,3285
8558,3386
8559,3293
8560,1874
8561,1047
8562,197
8563,500
8564,1227
8565,1584
8566,1717
8567,1779
8568,1825
8569,1851
8570,1882
8571,1906
8572,1925
8573,1929
8574,1922
8575,1929
8576,1922
8577,1923
8578,1917
8579,1911
8580,1910
8581,1904
8582,1903
8583,1885
8584,1879
8585,560
8586,1947
8587,2348
8588,3087
8589,3251
8590,3823
8591,2301
8592,1362
8593,402
8594,315
8595,1005
8596,1424
8597,1579
8598,1715
8599,1794
8600,1838
8601,1862
8602,1884
8603,1907
8604,1914
8605,1919
8606,1919
8607,1918
8608,1925
8609,1948
8610,1959
8611,1923
8612,1903
8613,1907
8614,1902
8615,1895
8616,880
8617,1897
8618,2183
8619,2960
8620,3283
8621,3805
8622,2640
8623,1520
8624,541
8625,179
8626,865
8627,1376
8628,1566
8629,1731
8630,1806
8631,1825
8632,1849
8633,1871
8634,1887
8635,1904
8636,1922
8637,1928
8638,1922
8639,1924
8640,1925
8641,1920
8642,1918
8643,1907
8644,1917
8645,1913
8646,1909
8647,1895
8648,1665
8649,2023
8650,2687
8651,3315
8652,3583
8653,3242
8654,1759
8655,880
8656,160
8657,603
8658,1243
8659,1503
8660,1687
8661,1793
8662,1839
8663,1856
8664,1872
8665,1890
8666,1898
8667,1908
8668,1920
8669,1927
8670,1918
8671,1920
8672,1924
8673,1920
8674,1919
8675,1915
8676,1919
8677,1915
8678,1907
8679,1062
8680,1985
8681,2421
8682,3139
8683,3280
8684,3664
8685,2077
8686,1233
8687,303
8688,410
8689,1107
8690,1445
8691,1648
8692,1774
8693,1830
8694,1849
8695,1873
8696,1902
8697,1915
8698,1911
8699,1923
8700,1917
8701,1907
8702,1908
8703,1906
8704,1905
8705,1910
8706,1915
8707,1910
8708,1902
8709,1906
8710,413
8711,1951
8712,2272
8713,3005
8714,3200
8715,3731
8716,2379
8717,1426
8718,461
8719,270
8720,944
8721,1385
8722,1615
8723,1744
8724,1808
8725,1840
8726,1904
8727,1962
8728,1956
8729,1935
8730,1917
8731,1893
8732,1883
8733,1874
8734,1871
8735,1877
8736,1890
8737,1911
8738,1915
8739,1921
8740,1909
8741,1907
8742,1785
8743,2144
8744,2829
8745,3291
8746,3653
8747,2977
8748,1680
8749,760
8750,135
8751,680
8752,1264
8753,1515
8754,1710
8755,1803
8756,1843
8757,1858
8758,1883
8759,1929
8760,1984
8761,1982
8762,1955
8763,1921
8764,1891
8765,1865
8766,1863
8767,1866
8768,1874
8769,1875
8770,1895
8771,1906
8772,1919
8773,1393
8774,2011
8775,2538
8776,3259
8777,3453
8778,3562
8779,1980
8780,1110
8781,228
8782,492
8783,1151
8784,1424
8785,1633
8786,1749
8787,1808
8788,1835
8789,1869
8790,1899
8791,1916
8792,1925
8793,1939
8794,1947
8795,1945
8796,1934
8797,1924
8798,1919
8799,1909
8800,1902
8801,1895
8802,1890
8803,1889
8804,405
8805,1952
8806,2291
8807,3026
8808,3203
8809,3824
8810,2288
8811,1397
8812,447
8813,351
8814,1009
8815,1393
8816,1614
8817,1748
8818,1807
8819,1840
8820,1862
8821,1893
8822,1904
8823,1909
8824,1916
8825,1917
8826,1943
8827,1942
8828,1937
8829,1926
8830,1907
8831,1900
8832,1902
8833,1898
8834,1888
8835,1879
8836,1879
8837,1879
8838,1879
8839,1877
8840,1877
8841,1878
8842,1872
8843,1882
8844,1875
8845,1874
8846,1878
8847,1872
8848,1858
8849,1854
8850,1862
8851,1856
8852,1849
8853,1855
8854,1856
8855,1857
8856,1856
8857,1856
8858,1861
8859,1869
8860,1862
8861,1869
8862,1874
8863,1872
8864,1865
8865,1854
8866,1852
8867,1845
8868,1846
8869,1847
8870,1855
8871,1863
8872,1872
8873,1872
8874,1869
8875,1858
8876,1882
8877,1908
8878,1905
8879,1875
8880,1845
8881,1817
8882,1809
8883,1808
8884,1815
8885,1827
8886,1837
8887,1860
8888,1872
8889,1884
8890,1875
8891,1876
8892,1879
8893,1921
8894,1957
8895,1919
8896,1872
8897,1822
8898,1791
8899,1791
8900,1798
8901,1809
8902,1822
8903,1839
8904,1858
8905,1875
8906,1883
8907,1877
8908,1878
8909,1911
8910,1973
8911,1965
8912,1895
8913,1834
8914,1789
8915,1767
8916,1776
8917,1799
8918,1807
8919,1820
8920,1843
8921,1872
8922,1898
8923,1878
8924,1881
8925,1878
8926,1936
8927,1985
8928,1919
8929,1860
8930,1804
8931,1771
8932,1771
8933,1785
8934,1801
8935,1808
8936,1822
8937,1841
8938,1866
8939,1879
8940,1872
8941,1872
8942,1889
8943,1962
8944,1973
8945,1898
8946,1834
8947,1783
8948,1757
8949,1766
8950,1786
8951,1806
8952,1808
8953,1826
8954,1854
8955,1887
8956,1878
8957,1874
8958,1866
8959,1915
8960,1981
8961,1933
8962,1872
8963,1813
8964,1775
8965,1763
8966,1776
8967,1778
8968,1789
8969,1804
8970,1829
8971,1867
8972,1891
8973,1867
8974,1872
8975,1867
8976,1945
8977,1987
8978,1907
8979,1850
8980,1793
8981,1765
8982,1770
8983,1786
8984,1807
8985,1817
8986,1829
8987,1851
8988,1885
8989,1901
8990,1878
8991,1873
8992,1902
8993,1978
8994,1968
8995,1886
8996,1822
8997,1777
8998,1761
8999,1775
9000,1795
9001,1813
9002,1822
9003,1840
9004,1865
9005,1904
9006,1894
9007,1892
9008,1875
9009,1949
9010,1999
9011,1936
9012,1863
9013,1798
9014,1761
9015,1763
9016,1781
9017,1806
9018,1810
9019,1818
9020,1840
9021,1873
9022,1906
9023,1876
9024,1878
9025,1872
9026,1969
9027,1994
9028,1895
9029,1834
9030,1785
9031,1753
9032,1767
9033,1791
9034,1813
9035,1822
9036,1839
9037,1851
9038,1889
9039,1907
9040,1879
9041,1876
9042,1907
9043,1990
9044,1970
9045,1879
9046,1815
9047,1771
9048,1750
9049,1770
9050,1793
9051,1813
9052,1821
9053,1840
9054,1854
9055,1895
9056,1881
9057,1873
9058,1870
9059,1938
9060,1993
9061,1924
9062,1856
9063,1808
9064,1763
9065,1761
9066,1778
9067,1804
9068,1814
9069,1826
9070,1841
9071,1872
9072,1904
9073,1878
9074,1881
9075,1872
9076,1948
9077,1981
9078,1904
9079,1842
9080,1792
9081,1766
9082,1774
9083,1790
9084,1803
9085,1808
9086,1825
9087,1853
9088,1872
9089,1892
9090,1878
9091,1874
9092,1893
9093,1950
9094,1959
9095,1898
9096,1841
9097,1801
9098,1784
9099,1785
9100,1802
9101,1813
9102,1822
9103,1840
9104,1866
9105,1883
9106,1883
9107,1875
9108,1872
9109,1899
9110,1943
9111,1936
9112,1887
9113,1840
9114,1802
9115,1787
9116,1790
9117,1807
9118,1815
9119,1829
9120,1846
9121,1866
9122,1877
9123,1872
9124,1872
9125,1870
9126,1883
9127,1900
9128,1898
9129,1882
9130,1856
9131,1840
9132,1830
9133,1834
9134,1840
9135,1841
9136,1853
9137,1855
9138,1860
9139,1859
9140,1865
9141,1866
9142,1872
9143,1881
9144,1873
9145,1869
9146,1861
9147,1856
9148,1847
9149,1827
9150,1836
9151,1840
9152,1851
9153,1856
9154,1862
9155,1862
9156,1863
9157,1863
9158,1865
9159,1867
9160,1873
9161,1873
9162,1872
9163,1868
9164,1856
9165,1847
9166,1847
9167,1850
9168,1849
9169,1854
9170,1859
9171,1861
9172,1863
9173,1863
9174,1858
9175,1861
9176,1863
9177,1872
9178,1867
9179,1863
9180,1866
9181,1858
9182,1856
9183,1853
9184,1855
9185,1855
9186,1856
9187,1857
9188,1862
9189,1865
9190,1867
9191,1866
9192,1869
9193,1873
9194,1875
9195,1873
9196,1871
9197,1861
9198,1854
9199,1854
9200,1854
9201,1853
9202,1854
9203,1857
9204,1856
9205,1856
9206,1857
9207,1858
9208,1864
9209,1871
9210,1874
9211,1872
9212,1870
9213,1863
9214,1856
9215,1852
9216,1850
9217,1851
9218,1843
9219,1854
9220,1857
9221,1859
9222,1862
9223,1863
9224,1865
9225,1866
9226,1872
9227,1875
9228,1872
9229,1865
9230,1861
9231,1856
9232,1850
9233,1849
9234,1844
9235,1843
9236,1847
9237,1854
9238,1854
9239,1855
9240,1863
9241,1863
9242,1863
9243,1871
9244,1873
9245,1870
9246,1867
9247,1859
9248,1855
9249,1855
9250,1852
9251,1854
9252,1855
9253,1855
9254,1857
9255,1861
9256,1864
9257,1865
9258,1866
9259,1872
9260,1874
9261,1869
9262,1869
9263,1863
9264,1853
9265,1849
9266,1845
9267,1845
9268,1841
9269,1854
9270,1858
9271,1861
9272,1862
9273,1864
9274,1865
9275,1869
9276,1869
9277,1874
9278,1872
9279,1870
9280,1860
9281,1856
9282,1853
9283,1854
9284,1851
9285,1853
9286,1857
9287,1861
9288,1866
9289,1866
9290,1866
9291,1863
9292,1869
9293,1872
9294,1870
9295,1870
9296,1859
9297,1856
9298,1857
9299,1853
9300,1854
9301,1853
9302,1853
9303,1856
9304,1857
9305,1862
9306,1862
9307,1863
9308,1863
9309,1871
9310,1872
9311,1870
9312,1870
9313,1866
9314,1861
9315,1856
9316,1854
9317,1851
9318,1851
9319,1853
9320,1854
9321,1856
9322,1856
9323,1857
9324,1857
9325,1857
9326,1865
9327,1869
9328,1865
9329,1860
9330,1858
9331,1857
9332,1854
9333,1852
9334,1854
9335,1853
9336,1857
9337,1858
9338,1861
9339,1866
9340,1866
9341,1865
9342,1862
9343,1869
9344,1872
9345,1872
9346,1869
9347,1865
9348,1857
9349,1856
9350,1855
9351,1853
9352,1854
9353,1856
9354,1854
9355,1856
9356,1858
9357,1859
9358,1863
9359,1869
9360,1872
9361,1873
9362,1872
9363,1868
9364,1862
9365,1856
9366,1856
9367,1856
9368,1851
9369,1853
9370,1856
9371,1858
9372,1861
9373,1865
9374,1862
9375,1866
9376,1869
9377,1872
9378,1873
9379,1871
9380,1870
9381,1859
9382,1856
9383,1854
9384,1845
9385,1845
9386,1851
9387,1851
9388,1855
9389,1858
9390,1865
9391,1863
9392,1867
9393,1872
9394,1872
9395,1872
9396,1870
9397,1863
9398,1856
9399,1854
9400,1854
9401,1853
9402,1853
9403,1856
9404,1857
9405,1861
9406,1861
9407,1862
9408,1863
9409,1869
9410,1872
9411,1872
9412,1871
9413,1867
9414,1855
9415,1851
9416,1846
9417,1845
9418,1841
9419,1855
9420,1855
9421,1858
9422,1860
9423,1861
9424,1863
9425,1867
9426,1868
9427,1872
9428,1871
9429,1870
9430,1866
9431,1859
9432,1856
9433,1854
9434,1856
9435,1857
9436,1866
9437,1870
9438,1869
9439,1867
9440,1869
9441,1856
9442,1840
9443,1851
9444,1859
9445,1866
9446,1867
9447,1859
9448,1855
9449,1842
9450,1851
9451,1849
9452,1851
9453,1856
9454,1856
9455,1856
9456,1861
9457,1865
9458,1865
9459,1866
9460,1872
9461,1874
9462,1873
9463,1872
9464,1862
9465,1855
9466,1851
9467,1854
9468,1852
9469,1854
9470,1857
9471,1861
9472,1862
9473,1866
9474,1858
9475,1858
9476,1865
9477,1869
9478,1862
9479,1868
9480,1863
9481,1858
9482,1856
9483,1855
9484,1855
9485,1856
9486,1859
9487,1858
9488,1857
9489,1863
9490,1863
9491,1859
9492,1860
9493,1870
9494,1873
9495,1872
9496,1871
9497,1865
9498,1857
9499,1855
9500,1846
9501,1846
9502,1850
9503,1852
9504,1846
9505,1852
9506,1858
9507,1867
9508,1872
9509,1873
9510,1876
9511,1871
9512,1869
9513,1861
9514,1854
9515,1850
9516,1854
9517,1857
9518,1861
9519,1871
9520,1872
9521,1865
9522,1866
9523,1867
9524,1856
9525,1851
9526,1863
9527,1876
9528,1879
9529,1877
9530,1871
9531,1855
9532,1843
9533,1850
9534,1846
9535,1845
9536,1849
9537,1846
9538,1853
9539,1854
9540,1859
9541,1859
9542,1866
9543,1876
9544,1889
9545,1892
9546,1872
9547,1857
9548,1847
9549,1841
9550,1840
9551,1841
9552,1840
9553,1846
9554,1858
9555,1866
9556,1872
9557,1872
9558,1872
9559,1879
9560,1894
9561,1899
9562,1892
9563,1871
9564,1842
9565,1828
9566,1820
9567,1823
9568,1826
9569,1840
9570,1856
9571,1866
9572,1876
9573,1872
9574,1874
9575,1875
9576,1909
9577,1936
9578,1919
9579,1883
9580,1849
9581,1818
9582,1807
9583,1809
9584,1822
9585,1825
9586,1839
9587,1867
9588,1875
9589,1883
9590,1879
9591,1879
9592,1894
9593,1930
9594,1933
9595,1904
9596,1867
9597,1825
9598,1807
9599,1808
9600,1815
9601,1826
9602,1831
9603,1847
9604,1865
9605,1875
9606,1879
9607,1877
9608,1872
9609,1898
9610,1920
9611,1909
9612,1887
9613,1862
9614,1839
9615,1825
9616,1823
9617,1827
9618,1824
9619,1829
9620,1849
9621,1854
9622,1864
9623,1860
9624,1867
9625,1871
9626,1888
9627,1902
9628,1887
9629,1870
9630,1855
9631,1837
9632,1830
9633,1830
9634,1837
9635,1840
9636,1847
9637,1856
9638,1867
9639,1867
9640,1870
9641,1870
9642,1877
9643,1900
9644,1904
9645,1895
9646,1879
9647,1857
9648,1837
9649,1831
9650,1834
9651,1838
9652,1835
9653,1846
9654,1852
9655,1862
9656,1861
9657,1863
9658,1872
9659,1888
9660,1910
9661,1917
9662,1899
9663,1872
9664,1844
9665,1827
9666,1821
9667,1818
9668,1826
9669,1831
9670,1857
9671,1865
9672,1875
9673,1872
9674,1872
9675,1872
9676,1911
9677,1942
9678,1915
9679,1883
9680,1841
9681,1808
9682,1803
9683,1808
9684,1814
9685,1814
9686,1826
9687,1859
9688,1873
9689,1885
9690,1872
9691,1874
9692,1897
9693,1939
9694,1953
9695,1904
9696,1858
9697,1817
9698,1792
9699,1791
9700,1808
9701,1821
9702,1831
9703,1850
9704,1871
9705,1887
9706,1875
9707,1877
9708,1872
9709,1917
9710,1967
9711,1936
9712,1885
9713,1834
9714,1788
9715,1776
9716,1785
9717,1807
9718,1817
9719,1830
9720,1855
9721,1872
9722,1898
9723,1884
9724,1879
9725,1884
9726,1939
9727,1970
9728,1915
9729,1863
9730,1815
9731,1787
9732,1786
9733,1798
9734,1817
9735,1826
9736,1839
9737,1861
9738,1884
9739,1889
9740,1883
9741,1879
9742,1904
9743,1957
9744,1950
9745,1893
9746,1840
9747,1807
9748,1777
9749,1781
9750,1808
9751,1823
9752,1827
9753,1845
9754,1870
9755,1889
9756,1886
9757,1883
9758,1878
9759,1921
9760,1961
9761,1936
9762,1886
9763,1840
9764,1798
9765,1787
9766,1791
9767,1809
9768,1823
9769,1829
9770,1855
9771,1872
9772,1891
9773,1875
9774,1872
9775,1874
9776,1930
9777,1960
9778,1914
9779,1870
9780,1824
9781,1789
9782,1787
9783,1801
9784,1813
9785,1823
9786,1839
9787,1868
9788,1881
9789,1887
9790,1882
9791,1878
9792,1903
9793,1953
9794,1955
9795,1904
9796,1849
9797,1808
9798,1789
9799,1792
9800,1808
9801,1822
9802,1824
9803,1843
9804,1862
9805,1885
9806,1876
9807,1875
9808,1877
9809,1930
9810,1971
9811,1933
9812,1877
9813,1826
9814,1789
9815,1779
9816,1792
9817,1811
9818,1815
9819,1829
9820,1856
9821,1878
9822,1903
9823,1881
9824,1883
9825,1888
9826,1951
9827,1975
9828,1910
9829,1852
9830,1809
9831,1786
9832,1786
9833,1798
9834,1808
9835,1821
9836,1835
9837,1957
9838,1995
9839,2838
9840,4054
9841,4095
9842,3831
9843,3292
9844,2368
9845,1260
9846,509
9847,80
9848,0
9849,0
9850,543
9851,1220
9852,1582
9853,1772
9854,1855
9855,1910
9856,1967
9857,2000
9858,1991
9859,2041
9860,2083
9861,2006
9862,1937
9863,1872
9864,1827
9865,1840
9866,1880
9867,1921
9868,1667
9869,2031
9870,2512
9871,3766
9872,4095
9873,4095
9874,3558
9875,2226
9876,1168
9877,756
9878,171
9879,0
9880,119
9881,880
9882,1444
9883,1715
9884,1827
9885,1867
9886,1904
9887,1954
9888,1984
9889,1990
9890,1997
9891,2036
9892,2055
9893,2090
9894,2082
9895,2023
9896,1959
9897,1906
9898,1888
9899,584
9900,2032
9901,2091
9902,2949
9903,3906
9904,4095
9905,3717
9906,2241
9907,1333
9908,986
9909,425
9910,48
9911,402
9912,1082
9913,1498
9914,1680
9915,1754
9916,1810
9917,1859
9918,1878
9919,1907
9920,1952
9921,1979
9922,2000
9923,1982
9924,1972
9925,1974
9926,2030
9927,2062
9928,1997
9929,1932
9930,1881
9931,1987
9932,1953
9933,2533
9934,3123
9935,3326
9936,3500
9937,2367
9938,1724
9939,1261
9940,458
9941,134
9942,715
9943,1413
9944,1714
9945,1793
9946,1807
9947,1802
9948,1808
9949,1845
9950,1883
9951,1905
9952,1920
9953,1933
9954,1956
9955,1969
9956,1953
9957,1937
9958,1937
9959,1979
9960,2028
9961,1988
9962,1895
9963,2010
9964,2509
9965,3234
9966,3250
9967,3474
9968,2282
9969,1479
9970,808
9971,176
9972,384
9973,1078
9974,1504
9975,1711
9976,1855
9977,1936
9978,1930
9979,1910
9980,1886
9981,1867
9982,1869
9983,1893
9984,1916
9985,1882
9986,1887
9987,1918
9988,1951
9989,1949
9990,1941
9991,1936
9992,1949
9993,831
9994,2053
9995,2423
9996,3129
9997,3270
9998,3543
9999,2471
10000,1515
10001,730
10002,38
10003,468
10004,1235
10005,1586
10006,1745
10007,1826
10008,1860
10009,1934
10010,2010
10011,2003
10012,1961
10013,1883
10014,1791
10015,1833
10016,1908
10017,1920
10018,1904
10019,1904
10020,1920
10021,1933
10022,1943
10023,1927
10024,990
10025,1919
10026,2237
10027,3003
10028,3395
10029,3712
10030,2876
10031,1695
10032,823
10033,13
10034,365
10035,1117
10036,1515
10037,1712
10038,1808
10039,1856
10040,1888
10041,1919
10042,1965
10043,2031
10044,2061
10045,2013
10046,1946
10047,1874
10048,1851
10049,1852
10050,1838
10051,1808
10052,1840
10053,1878
10054,1906
10055,1923
10056,1729
10057,2064
10058,2722
10059,3488
10060,3854
10061,3579
10062,1901
10063,940
10064,31
10065,257
10066,1033
10067,1456
10068,1655
10069,1744
10070,1813
10071,1866
10072,1915
10073,1929
10074,1938
10075,1949
10076,2007
10077,2053
10078,1978
10079,1926
10080,1891
10081,1846
10082,1830
10083,1845
10084,1861
10085,1866
10086,1874
10087,1230
10088,2002
10089,2529
10090,3323
10091,3515
10092,3966
10093,2351
10094,1392
10095,270
10096,87
10097,833
10098,1343
10099,1556
10100,1644
10101,1723
10102,1772
10103,1835
10104,1894
10105,1941
10106,1941
10107,1951
10108,1953
10109,2006
10110,2061
10111,2004
10112,1941
10113,1876
10114,1834
10115,1829
10116,1837
10117,1853
10118,464
10119,1918
10120,2270
10121,3067
10122,3396
10123,3851
10124,2474
10125,1446
10126,583
10127,180
10128,851
10129,1387
10130,1594
10131,1676
10132,1740
10133,1785
10134,1820
10135,1856
10136,1895
10137,1936
10138,1964
10139,1962
10140,1959
10141,1948
10142,1985
10143,2033
10144,2010
10145,1943
10146,1872
10147,1829
10148,1808
10149,1823
10150,1792
10151,2064
10152,2827
10153,3376
10154,3840
10155,3071
10156,1712
10157,805
10158,67
10159,651
10160,1349
10161,1583
10162,1627
10163,1712
10164,1728
10165,1754
10166,1804
10167,1851
10168,1877
10169,1892
10170,1931
10171,1955
10172,1968
10173,1951
10174,1938
10175,1943
10176,2004
10177,2029
10178,1957
10179,1890
10180,1837
10181,1431
10182,1931
10183,2529
10184,3332
10185,3503
10186,3746
10187,1968
10188,1033
10189,112
10190,321
10191,1069
10192,1489
10193,1722
10194,1835
10195,1827
10196,1803
10197,1808
10198,1823
10199,1845
10200,1885
10201,1910
10202,1922
10203,1927
10204,1957
10205,1988
10206,1963
10207,1906
10208,1901
10209,1985
10210,2029
10211,1961
10212,452
10213,1946
10214,2239
10215,3031
10216,3280
10217,3949
10218,2305
10219,1202
10220,240
10221,112
10222,951
10223,1437
10224,1616
10225,1779
10226,1920
10227,1962
10228,1904
10229,1872
10230,1853
10231,1837
10232,1850
10233,1885
10234,1905
10235,1917
10236,1918
10237,1925
10238,1952
10239,1941
10240,1933
10241,1919
10242,1968
10243,1682
10244,1927
10245,2163
10246,2823
10247,3188
10248,3740
10249,2813
10250,1607
10251,666
10252,41
10253,671
10254,1283
10255,1535
10256,1711
10257,1808
10258,1857
10259,1955
10260,2020
10261,1963
10262,1921
10263,1872
10264,1855
10265,1871
10266,1873
10267,1874
10268,1882
10269,1883
10270,1902
10271,1933
10272,1946
10273,1919
10274,1917
10275,1691
10276,2160
10277,2895
10278,3542
10279,3690
10280,3312
10281,1675
10282,714
10283,0
10284,420
10285,1138
10286,1441
10287,1663
10288,1803
10289,1845
10290,1883
10291,1905
10292,1985
10293,2064
10294,2026
10295,1968
10296,1917
10297,1871
10298,1843
10299,1837
10300,1843
10301,1872
10302,1875
10303,1892
10304,1915
10305,1937
10306,810
10307,2000
10308,2497
10309,3406
10310,3573
10311,3926
10312,2255
10313,1139
10314,145
10315,173
10316,912
10317,1335
10318,1575
10319,1707
10320,1796
10321,1855
10322,1904
10323,1907
10324,1924
10325,1951
10326,2018
10327,2046
10328,1978
10329,1918
10330,1871
10331,1840
10332,1847
10333,1865
10334,1872
10335,1866
10336,1879
10337,611
10338,1955
10339,2290
10340,3135
10341,3355
10342,3986
10343,2726
10344,1470
10345,438
10346,99
10347,757
10348,1254
10349,1483
10350,1673
10351,1774
10352,1817
10353,1863
10354,1902
10355,1935
10356,1936
10357,1939
10358,1943
10359,1995
10360,2033
10361,1995
10362,1946
10363,1893
10364,1855
10365,1840
10366,1841
10367,1851
10368,1862
10369,1773
10370,2095
10371,2851
10372,3379
10373,3707
10374,3120
10375,1705
10376,818
10377,187
10378,653
10379,1238
10380,1459
10381,1629
10382,1717
10383,1778
10384,1815
10385,1855
10386,1889
10387,1926
10388,1949
10389,1967
10390,1974
10391,1936
10392,1968
10393,2002
10394,2007
10395,1953
10396,1894
10397,1856
10398,1840
10399,1839
10400,1369
10401,1977
10402,2544
10403,3248
10404,3346
10405,3689
10406,2023
10407,1082
10408,210
10409,415
10410,1163
10411,1493
10412,1655
10413,1744
10414,1776
10415,1808
10416,1831
10417,1861
10418,1875
10419,1931
10420,1966
10421,1968
10422,1967
10423,1954
10424,1936
10425,1920
10426,1895
10427,1911
10428,1923
10429,1911
10430,1889
10431,386
10432,1935
10433,2256
10434,3022
10435,3183
10436,3891
10437,2479
10438,1395
10439,464
10440,189
10441,853
10442,1360
10443,1632
10444,1804
10445,1855
10446,1849
10447,1840
10448,1840
10449,1853
10450,1872
10451,1891
10452,1934
10453,2017
10454,2067
10455,1977
10456,1894
10457,1893
10458,1838
10459,1886
10460,1968
10461,1962
10462,1909
10463,1858
10464,1815
10465,1808
10466,1810
10467,1822
10468,1827
10469,1834
10470,1870
10471,1883
10472,1899
10473,1895
10474,1899
10475,1904
10476,1952
10477,1974
10478,1922
10479,1865
10480,1819
10481,1799
10482,1792
10483,1806
10484,1814
10485,1821
10486,1833
10487,1856
10488,1875
10489,1883
10490,1879
10491,1881
10492,1919
10493,1964
10494,1950
10495,1899
10496,1842
10497,1797
10498,1783
10499,1787
10500,1798
10501,1813
10502,1826
10503,1854
10504,1870
10505,1889
10506,1879
10507,1886
10508,1883
10509,1935
10510,1975
10511,1930
10512,1879
10513,1827
10514,1792
10515,1782
10516,1799
10517,1815
10518,1809
10519,1815
10520,1843
10521,1870
10522,1887
10523,1872
10524,1870
10525,1886
10526,1947
10527,1970
10528,1904
10529,1841
10530,1805
10531,1779
10532,1786
10533,1801
10534,1813
10535,1823
10536,1838
10537,1856
10538,1881
10539,1879
10540,1875
10541,1872
10542,1919
10543,1969
10544,1946
10545,1885
10546,1826
10547,1789
10548,1775
10549,1781
10550,1799
10551,1815
10552,1823
10553,1846
10554,1861
10555,1890
10556,1872
10557,1877
10558,1877
10559,1938
10560,1981
10561,1919
10562,1857
10563,1805
10564,1772
10565,1770
10566,1780
10567,1794
10568,1809
10569,1823
10570,1853
10571,1876
10572,1883
10573,1879
10574,1885
10575,1904
10576,1963
10577,1968
10578,1895
10579,1835
10580,1793
10581,1763
10582,1772
10583,1789
10584,1803
10585,1810
10586,1829
10587,1852
10588,1879
10589,1878
10590,1873
10591,1871
10592,1918
10593,1973
10594,1941
10595,1872
10596,1806
10597,1773
10598,1760
10599,1775
10600,1798
10601,1809
10602,1818
10603,1840
10604,1863
10605,1890
10606,1873
10607,1874
10608,1872
10609,1938
10610,1983
10611,1914
10612,1849
10613,1797
10614,1757
10615,1757
10616,1776
10617,1798
10618,1813
10619,1830
10620,1855
10621,1874
10622,1889
10623,1874
10624,1870
10625,1899
10626,1964
10627,1972
10628,1900
10629,1837
10630,1791
10631,1769
10632,1776
10633,1797
10634,1815
10635,1821
10636,1838
10637,1863
10638,1893
10639,1890
10640,1885
10641,1877
10642,1930
10643,1983
10644,1938
10645,1872
10646,1808
10647,1775
10648,1761
10649,1775
10650,1806
10651,1817
10652,1823
10653,1840
10654,1872
10655,1895
10656,1877
10657,1883
10658,1881
10659,1952
10660,1986
10661,1910
10662,1850
10663,1801
10664,1771
10665,1773
10666,1783
10667,1805
10668,1810
10669,1819
10670,1846
10671,1872
10672,1883
10673,1869
10674,1866
10675,1888
10676,1953
10677,1963
10678,1882
10679,1822
10680,1779
10681,1765
10682,1775
10683,1790
10684,1808
10685,1811
10686,1835
10687,1857
10688,1890
10689,1883
10690,1876
10691,1872
10692,1923
10693,1972
10694,1935
10695,1872
10696,1814
10697,1776
10698,1769
10699,1779
10700,1803
10701,1813
10702,1822
10703,1842
10704,1865
10705,1891
10706,1872
10707,1873
10708,1878
10709,1945
10710,1978
10711,1913
10712,1855
10713,1803
10714,1774
10715,1775
10716,1789
10717,1811
10718,1811
10719,1833
10720,1860
10721,1883
10722,1898
10723,1879
10724,1876
10725,1904
10726,1968
10727,1968
10728,1903
10729,1839
10730,1795
10731,1773
10732,1776
10733,1798
10734,1808
10735,1819
10736,1835
10737,1862
10738,1887
10739,1885
10740,1884
10741,1876
10742,1927
10743,1982
10744,1940
10745,1876
10746,1819
10747,1789
10748,1778
10749,1791
10750,1810
10751,1825
10752,1838
10753,1857
10754,1876
10755,1901
10756,1881
10757,1885
10758,1885
10759,1949
10760,1994
10761,1918
10762,1856
10763,1805
10764,1770
10765,1775
10766,1791
10767,1806
10768,1811
10769,1830
10770,1856
10771,1882
10772,1897
10773,1878
10774,1877
10775,1905
10776,1962
10777,1968
10778,1898
10779,1837
10780,1794
10781,1773
10782,1783
10783,1803
10784,1819
10785,1825
10786,1841
10787,1869
10788,1897
10789,1887
10790,1882
10791,1875
10792,1929
10793,1982
10794,1933
10795,1868
10796,1810
10797,1778
10798,1776
10799,1791
10800,1810
10801,1819
10802,1833
10803,1850
10804,1872
10805,1901
10806,1882
10807,1885
10808,1885
10809,1953
10810,1984
10811,1913
10812,1855
10813,1803
10814,1776
10815,1779
10816,1794
10817,1814
10818,1817
10819,1832
10820,1855
10821,1883
10822,1892
10823,1881
10824,1873
10825,1904
10826,1968
10827,1967
10828,1886
10829,1827
10830,1790
10831,1774
10832,1779
10833,1805
10834,1823
10835,1827
10836,1840
10837,1867
10838,1899
10839,1890
10840,1883
10841,1881
10842,1929
10843,1983
10844,1936
10845,1871
10846,1820
10847,1786
10848,1776
10849,1790
10850,1810
10851,1819
10852,1826
10853,1854
10854,1870
10855,1890
10856,1873
10857,1874
10858,1878
10859,1942
10860,1983
10861,1911
10862,1855
10863,1808
10864,1776
10865,1776
10866,1793
10867,1809
10868,1823
10869,1840
10870,1866
10871,1885
10872,1895
10873,1879
10874,1878
10875,1904
10876,1955
10877,1968
10878,1899
10879,1843
10880,1806
10881,1780
10882,1789
10883,1804
10884,1815
10885,1820
10886,1835
10887,1859
10888,1879
10889,1885
10890,1883
10891,1875
10892,1921
10893,1970
10894,1937
10895,1881
10896,1829
10897,1792
10898,1782
10899,1795
10900,1811
10901,1824
10902,1831
10903,1851
10904,1877
10905,1895
10906,1880
10907,1879
10908,1881
10909,1934
10910,1971
10911,1916
10912,1865
10913,1814
10914,1783
10915,1783
10916,1794
10917,1811
10918,1825
10919,1837
10920,1860
10921,1874
10922,1886
10923,1877
10924,1874
10925,1891
10926,1935
10927,1961
10928,1904
10929,1855
10930,1818
10931,1805
10932,1803
10933,1810
10934,1823
10935,1833
10936,1850
10937,1866
10938,1872
10939,1873
10940,1872
10941,1876
10942,1886
10943,1890
10944,1875
10945,1869
10946,1859
10947,1852
10948,1841
10949,1840
10950,1849
10951,1851
10952,1855
10953,1856
10954,1856
10955,1862
10956,1861
10957,1863
10958,1863
10959,1871
10960,1872
10961,1872
10962,1872
10963,1862
10964,1856
10965,1851
10966,1850
10967,1841
10968,1847
10969,1855
10970,1856
10971,1859
10972,1863
10973,1862
10974,1857
10975,1861
10976,1869
10977,1871
10978,1863
10979,1863
10980,1858
10981,1855
10982,1851
10983,1851
10984,1852
10985,1854
10986,1856
10987,1857
10988,1861
10989,1862
10990,1864
10991,1865
10992,1872
10993,1873
10994,1874
10995,1871
10996,1863
10997,1857
10998,1853
10999,1852
11000,1847
11001,1851
11002,1855
11003,1860
11004,1855
11005,1855
11006,1857
11007,1857
11008,1865
11009,1872
11010,1873
11011,1872
11012,1869
11013,1863
11014,1855
11015,1851
11016,1849
11017,1849
11018,1846
11019,1856
11020,1857
11021,1858
11022,1863
11023,1863
11024,1862
11025,1868
11026,1872
11027,1874
11028,1872
11029,1867
11030,1859
11031,1855
11032,1854
11033,1851
11034,1842
11035,1847
11036,1850
11037,1851
11038,1855
11039,1851
11040,1866
11041,1865
11042,1869
11043,1874
11044,1875
11045,1871
11046,1863
11047,1858
11048,1855
11049,1853
11050,1852
11051,1850
11052,1854
11053,1856
11054,1858
11055,1867
11056,1862
11057,1861
11058,1865
11059,1872
11060,1876
11061,1872
11062,1869
11063,1863
11064,1851
11065,1845
11066,1843
11067,1842
11068,1842
11069,1853
11070,1857
11071,1862
11072,1863
11073,1865
11074,1865
11075,1869
11076,1872
11077,1872
11078,1872
11079,1869
11080,1862
11081,1856
11082,1853
11083,1851
11084,1853
11085,1853
11086,1856
11087,1859
11088,1862
11089,1863
11090,1863
11091,1866
11092,1870
11093,1873
11094,1869
11095,1867
11096,1858
11097,1853
11098,1856
11099,1850
11100,1851
11101,1850
11102,1853
11103,1856
11104,1860
11105,1862
11106,1862
11107,1863
11108,1861
11109,1869
11110,1872
11111,1872
11112,1868
11113,1862
11114,1857
11115,1854
11116,1851
11117,1850
11118,1841
11119,1845
11120,1851
11121,1855
11122,1856
11123,1857
11124,1858
11125,1863
11126,1867
11127,1869
11128,1864
11129,1856
11130,1858
11131,1855
11132,1853
11133,1850
11134,1850
11135,1850
11136,1855
11137,1857
11138,1861
11139,1863
11140,1863
11141,1861
11142,1870
11143,1874
11144,1872
11145,1872
11146,1868
11147,1857
11148,1853
11149,1851
11150,1851
11151,1851
11152,1853
11153,1858
11154,1855
11155,1857
11156,1857
11157,1856
11158,1865
11159,1872
11160,1874
11161,1872
11162,1870
11163,1863
11164,1856
11165,1853
11166,1851
11167,1847
11168,1852
11169,1856
11170,1857
11171,1863
11172,1863
11173,1863
11174,1865
11175,1870
11176,1873
11177,1872
11178,1871
11179,1866
11180,1861
11181,1856
11182,1853
11183,1850
11184,1842
11185,1844
11186,1850
11187,1853
11188,1856
11189,1862
11190,1863
11191,1863
11192,1872
11193,1876
11194,1872
11195,1867
11196,1863
11197,1859
11198,1853
11199,1847
11200,1851
11201,1854
11202,1856
11203,1856
11204,1857
11205,1859
11206,1865
11207,1865
11208,1866
11209,1872
11210,1875
11211,1872
11212,1869
11213,1859
11214,1847
11215,1840
11216,1840
11217,1842
11218,1851
11219,1858
11220,1861
11221,1862
11222,1859
11223,1863
11224,1865
11225,1869
11226,1874
11227,1873
11228,1872
11229,1866
11230,1857
11231,1851
11232,1849
11233,1849
11234,1849
11235,1849
11236,1856
11237,1859
11238,1865
11239,1862
11240,1863
11241,1862
11242,1872
11243,1875
11244,1869
11245,1861
11246,1856
11247,1850
11248,1847
11249,1840
11250,1847
11251,1853
11252,1853
11253,1856
11254,1861
11255,1863
11256,1862
11257,1865
11258,1869
11259,1872
11260,1875
11261,1872
11262,1867
11263,1862
11264,1855
11265,1850
11266,1847
11267,1841
11268,1850
11269,1856
11270,1860
11271,1862
11272,1863
11273,1866
11274,1856
11275,1861
11276,1872
11277,1869
11278,1866
11279,1863
11280,1859
11281,1855
11282,1847
11283,1849
11284,1853
11285,1851
11286,1858
11287,1862
11288,1862
11289,1866
11290,1865
11291,1863
11292,1870
11293,1874
11294,1873
11295,1872
11296,1859
11297,1856
11298,1853
11299,1850
11300,1850
11301,1852
11302,1854
11303,1857
11304,1854
11305,1857
11306,1855
11307,1856
11308,1867
11309,1872
11310,1875
11311,1872
11312,1867
11313,1860
11314,1853
11315,1850
11316,1846
11317,1847
11318,1850
11319,1855
11320,1857
11321,1861
11322,1861
11323,1862
11324,1863
11325,1871
11326,1879
11327,1873
11328,1872
11329,1863
11330,1857
11331,1855
11332,1849
11333,1852
11334,1843
11335,1847
11336,1854
11337,1853
11338,1856
11339,1856
11340,1862
11341,1860
11342,1870
11343,1873
11344,1872
11345,1866
11346,1869
11347,1856
11348,1849
11349,1847
11350,1847
11351,1851
11352,1851
11353,1858
11354,1858
11355,1864
11356,1865
11357,1863
11358,1863
11359,1872
11360,1875
11361,1872
11362,1868
11363,1859
11364,1848
11365,1843
11366,1842
11367,1842
11368,1846
11369,1851
11370,1860
11371,1865
11372,1863
11373,1865
11374,1865
11375,1869
11376,1873
11377,1874
11378,1871
11379,1866
11380,1859
11381,1853
11382,1851
11383,1849
11384,1847
11385,1853
11386,1858
11387,1859
11388,1865
11389,1862
11390,1863
11391,1861
11392,1871
11393,1874
11394,1869
11395,1866
11396,1857
11397,1851
11398,1853
11399,1850
11400,1850
11401,1850
11402,1854
11403,1857
11404,1858
11405,1856
11406,1865
11407,1861
11408,1864
11409,1872
11410,1874
11411,1872
11412,1867
11413,1861
11414,1856
11415,1851
11416,1851
11417,1846
11418,1846
11419,1847
11420,1851
11421,1856
11422,1855
11423,1857
11424,1857
11425,1857
11426,1867
11427,1869
11428,1865
11429,1853
11430,1856
11431,1855
11432,1847
11433,1850
11434,1847
11435,1851
11436,1856
11437,1859
11438,1861
11439,1864
11440,1862
11441,1863
11442,1872
11443,1874
11444,1871
11445,1870
11446,1863
11447,1857
11448,1854
11449,1851
11450,1850
11451,1850
11452,1854
11453,1858
11454,1856
11455,1856
11456,1859
11457,1856
11458,1866
11459,1872
11460,1874
11461,1872
11462,1867
11463,1859
11464,1949
11465,1967
11466,2867
11467,4095
11468,4095
11469,3537
11470,2895
11471,2172
11472,1186
11473,476
11474,156
11475,64
11476,239
11477,645
11478,1221
11479,1635
11480,1785
11481,1846
11482,1866
11483,1887
11484,1904
11485,1933
11486,1950
11487,1959
11488,1963
11489,1969
11490,1968
11491,1968
11492,1970
11493,1977
11494,1968
11495,1690
11496,2046
11497,2590
11498,3967
11499,4095
11500,3917
11501,3166
11502,2067
11503,939
11504,409
11505,53
11506,0
11507,192
11508,879
11509,1534
11510,1862
11511,1964
11512,1969
11513,1964
11514,1963
11515,1973
11516,1985
11517,1984
11518,1991
11519,1999
11520,1983
11521,1974
11522,1972
11523,1969
11524,1966
11525,1963
11526,784
11527,2018
11528,2154
11529,3143
11530,4095
11531,4095
11532,3847
11533,2365
11534,1174
11535,755
11536,375
11537,0
11538,53
11539,784
11540,1454
11541,1794
11542,1907
11543,1935
11544,1946
11545,1953
11546,1969
11547,1968
11548,1969
11549,1971
11550,1981
11551,1977
11552,1971
11553,1967
11554,1963
11555,1963
11556,1959
11557,1952
11558,1994
11559,2034
11560,2622
11561,3503
11562,3982
11563,3520
11564,2425
11565,1419
11566,1115
11567,593
11568,89
11569,339
11570,1040
11571,1566
11572,1781
11573,1859
11574,1893
11575,1923
11576,1962
11577,1991
11578,2000
11579,1981
11580,1965
11581,1941
11582,1926
11583,1917
11584,1911
11585,1911
11586,1922
11587,1937
11588,1948
11589,1751
11590,2027
11591,2388
11592,3142
11593,3731
11594,3728
11595,2593
11596,1623
11597,1242
11598,545
11599,58
11600,479
11601,1232
11602,1584
11603,1773
11604,1846
11605,1894
11606,1919
11607,1945
11608,1973
11609,2015
11610,2045
11611,2032
11612,2000
11613,1939
11614,1904
11615,1899
11616,1898
11617,1898
11618,1890
11619,1904
11620,638
11621,1983
11622,2214
11623,2928
11624,3383
11625,3787
11626,2767
11627,1937
11628,1574
11629,648
11630,62
11631,578
11632,1251
11633,1574
11634,1712
11635,1776
11636,1840
11637,1893
11638,1936
11639,1939
11640,1953
11641,1962
11642,2010
11643,2055
11644,2019
11645,1966
11646,1907
11647,1870
11648,1855
11649,1855
11650,1866
11651,1534
11652,1857
11653,2070
11654,2669
11655,3163
11656,3358
11657,3159
11658,2096
11659,1673
11660,853
11661,206
11662,656
11663,1249
11664,1524
11665,1673
11666,1754
11667,1806
11668,1843
11669,1882
11670,1924
11671,1953
11672,1959
11673,1968
11674,1968
11675,1980
11676,2011
11677,2000
11678,1952
11679,1899
11680,1855
11681,1833
11682,1834
11683,1686
11684,1970
11685,2480
11686,3091
11687,3303
11688,3399
11689,2173
11690,1535
11691,615
11692,192
11693,861
11694,1409
11695,1662
11696,1740
11697,1776
11698,1792
11699,1823
11700,1859
11701,1879
11702,1893
11703,1920
11704,1936
11705,1955
11706,1946
11707,1938
11708,1941
11709,1967
11710,1984
11711,1962
11712,1925
11713,1893
11714,874
11715,1933
11716,2237
11717,2875
11718,3030
11719,3622
11720,2463
11721,1665
11722,775
11723,196
11724,748
11725,1358
11726,1680
11727,1817
11728,1838
11729,1818
11730,1824
11731,1831
11732,1840
11733,1856
11734,1872
11735,1887
11736,1926
11737,1943
11738,1947
11739,1936
11740,1931
11741,1927
11742,1938
11743,1943
11744,1925
11745,638
11746,1926
11747,2153
11748,2769
11749,3065
11750,3685
11751,2746
11752,1721
11753,844
11754,128
11755,657
11756,1283
11757,1593
11758,1741
11759,1817
11760,1856
11761,1873
11762,1895
11763,1906
11764,1914
11765,1914
11766,1933
11767,1984
11768,2064
11769,2025
11770,1889
11771,1860
11772,1835
11773,1794
11774,1847
11775,1883
11776,1902
11777,1797
11778,2061
11779,2605
11780,3038
11781,3399
11782,3206
11783,2026
11784,1249
11785,318
11786,465
11787,1136
11788,1494
11789,1616
11790,1719
11791,1791
11792,1844
11793,1891
11794,1907
11795,1911
11796,1921
11797,1924
11798,1925
11799,1914
11800,1917
11801,1915
11802,1907
11803,1897
11804,1889
11805,1893
11806,1901
11807,1903
11808,1288
11809,2000
11810,2405
11811,2975
11812,3179
11813,3842
11814,2319
11815,1455
11816,433
11817,275
11818,961
11819,1405
11820,1571
11821,1723
11822,1805
11823,1843
11824,1872
11825,1910
11826,1926
11827,1932
11828,1922
11829,1919
11830,1919
11831,1917
11832,1910
11833,1906
11834,1905
11835,1904
11836,1905
11837,1903
11838,1906
11839,432
11840,1947
11841,2207
11842,2835
11843,3082
11844,3966
11845,2694
11846,1639
11847,650
11848,171
11849,795
11850,1339
11851,1517
11852,1668
11853,1792
11854,1840
11855,1866
11856,1894
11857,1917
11858,1933
11859,1940
11860,1939
11861,1936
11862,1923
11863,1918
11864,1904
11865,1899
11866,1895
11867,1886
11868,1891
11869,1895
11870,1873
11871,1839
11872,2082
11873,2686
11874,3093
11875,3652
11876,3024
11877,1726
11878,885
11879,171
11880,646
11881,1286
11882,1587
11883,1719
11884,1791
11885,1839
11886,1869
11887,1886
11888,1911
11889,1922
11890,1949
11891,1965
11892,1971
11893,1938
11894,1927
11895,1904
11896,1879
11897,1883
11898,1883
11899,1875
11900,1874
11901,1875
11902,1522
11903,2000
11904,2480
11905,3056
11906,3287
11907,3540
11908,1964
11909,1182
11910,299
11911,433
11912,1157
11913,1535
11914,1705
11915,1776
11916,1813
11917,1845
11918,1867
11919,1904
11920,1920
11921,1927
11922,1927
11923,1934
11924,1926
11925,1931
11926,1935
11927,1926
11928,1917
11929,1910
11930,1904
11931,1889
11932,1883
11933,764
11934,1965
11935,2301
11936,2913
11937,3071
11938,3920
11939,2335
11940,1471
11941,503
11942,299
11943,999
11944,1456
11945,1593
11946,1723
11947,1786
11948,1809
11949,1849
11950,1885
11951,1904
11952,1918
11953,1927
11954,1930
11955,1931
11956,1918
11957,1915
11958,1919
11959,1923
11960,1921
11961,1917
11962,1905
11963,1895
11964,1165
11965,1902
11966,2119
11967,2734
11968,3028
