Time(ms),ENV_Value,RMS,MDF,MW_Amp,MW_Area,MW_Latency,Marker
0,8.3,18.2,242.2,0.0,0.0,0.0,
100,10.1,16.0,242.2,0.0,0.0,0.0,
200,8.9,15.5,250.0,0.0,0.0,0.0,
300,9.7,15.4,265.6,0.0,0.0,0.0,
400,8.7,13.6,265.6,0.0,0.0,0.0,
500,13.2,12.8,242.2,0.0,0.0,0.0,
600,11.6,15.3,246.1,0.0,0.0,0.0,
700,10.2,16.0,253.9,0.0,0.0,0.0,
800,15.0,16.0,246.1,0.0,0.0,0.0,
900,12.9,17.4,250.0,0.0,0.0,0.0,
1000,7.5,17.8,250.0,0.0,0.0,0.0,
1100,11.9,17.6,242.2,0.0,0.0,0.0,
1200,11.2,17.5,242.2,0.0,0.0,0.0,
1300,9.7,17.8,246.1,0.0,0.0,0.0,
1400,8.0,17.6,253.9,0.0,0.0,0.0,
1500,8.6,17.6,257.8,0.0,0.0,0.0,
1600,9.7,15.6,246.1,0.0,0.0,0.0,
1700,8.5,15.0,234.4,0.0,0.0,0.0,
1800,9.0,14.8,226.6,0.0,0.0,0.0,
1900,9.5,13.3,214.8,0.0,0.0,0.0,
2000,9.1,13.0,234.4,0.0,0.0,0.0,
2100,11.5,13.2,234.4,0.0,0.0,0.0,
2200,10.9,13.4,257.8,0.0,0.0,0.0,
2300,14.8,13.2,253.9,0.0,0.0,0.0,
2400,11.1,15.1,238.3,0.0,0.0,0.0,
2500,9.3,15.4,253.9,0.0,0.0,0.0,
2600,13.6,15.7,242.2,0.0,0.0,0.0,
2700,11.3,16.9,257.8,0.0,0.0,0.0,
2800,8.3,17.2,238.3,0.0,0.0,0.0,
2900,9.0,17.2,210.9,0.0,0.0,0.0,
3000,9.1,17.1,238.3,0.0,0.0,0.0,
3100,8.1,17.1,250.0,0.0,0.0,0.0,
3200,7.6,16.6,257.8,0.0,0.0,0.0,
3300,8.9,16.4,261.7,0.0,0.0,0.0,
3400,8.5,14.8,230.5,0.0,0.0,0.0,
3500,9.4,14.5,203.1,0.0,0.0,0.0,
3600,7.8,14.1,250.0,0.0,0.0,0.0,
3700,8.7,12.4,261.7,0.0,0.0,0.0,
3800,17.3,13.4,246.1,0.0,0.0,0.0,
3900,11.1,15.5,246.1,0.0,0.0,0.0,
4000,11.2,15.7,269.5,0.0,0.0,0.0,
4100,13.6,16.5,250.0,0.0,0.0,0.0,
4200,9.9,18.0,250.0,0.0,0.0,0.0,
4300,9.2,18.0,253.9,0.0,0.0,0.0,
4400,9.9,17.9,242.2,0.0,0.0,0.0,
4500,7.7,17.9,226.6,0.0,0.0,0.0,
4600,9.0,18.0,246.1,0.0,0.0,0.0,
4700,9.8,18.0,242.2,0.0,0.0,0.0,
4800,7.5,17.1,234.4,0.0,0.0,0.0,
4900,9.8,15.3,226.6,0.0,0.0,0.0,
5000,9.0,15.3,253.9,0.0,0.0,0.0,
5100,8.8,14.3,257.8,0.0,0.0,0.0,
5200,10.0,12.6,257.8,0.0,0.0,0.0,
5300,12.8,12.8,265.6,0.0,0.0,0.0,
5400,12.3,13.8,253.9,0.0,0.0,0.0,
5500,13.2,13.9,250.0,0.0,0.0,0.0,
5600,13.0,15.1,257.8,0.0,0.0,0.0,
5700,11.0,16.1,257.8,0.0,0.0,0.0,
5800,8.9,16.2,257.8,0.0,0.0,0.0,
5900,13.1,17.3,246.1,0.0,0.0,0.0,
6000,9.8,17.7,257.8,0.0,0.0,0.0,
6100,11.2,17.7,261.7,0.0,0.0,0.0,
6200,10.9,17.8,250.0,0.0,0.0,0.0,
6300,8.7,17.8,261.7,0.0,0.0,0.0,
6400,9.5,16.9,242.2,0.0,0.0,0.0,
6500,8.8,16.8,242.2,0.0,0.0,0.0,
6600,10.0,15.9,261.7,0.0,0.0,0.0,
6700,8.9,15.0,253.9,0.0,0.0,0.0,
6800,9.4,14.9,230.5,0.0,0.0,0.0,
6900,9.1,13.5,242.2,0.0,0.0,0.0,
7000,12.9,13.3,246.1,0.0,0.0,0.0,
7100,11.1,15.1,230.5,0.0,0.0,0.0,
7200,10.7,15.1,234.4,0.0,0.0,0.0,
7300,13.4,15.2,238.3,0.0,0.0,0.0,
7400,11.3,16.7,230.5,0.0,0.0,0.0,
7500,11.8,17.2,250.0,0.0,0.0,0.0,
7600,9.6,17.3,281.3,0.0,0.0,0.0,
7700,10.6,17.3,250.0,0.0,0.0,0.0,
7800,7.9,17.4,253.9,0.0,0.0,0.0,
7900,11.4,17.4,250.0,0.0,0.0,0.0,
8000,9.2,17.3,253.9,0.0,0.0,0.0,
8100,11.3,15.9,261.7,0.0,0.0,0.0,
8200,8.6,15.8,242.2,0.0,0.0,0.0,
8300,10.0,15.7,265.6,0.0,0.0,0.0,
8400,12.0,14.2,265.6,0.0,0.0,0.0,
8500,11.2,13.9,265.6,0.0,0.0,0.0,
8600,10.8,14.3,250.0,0.0,0.0,0.0,
8700,9.6,14.6,253.9,0.0,0.0,0.0,
8800,11.2,15.7,230.5,0.0,0.0,0.0,
8900,12.1,16.4,253.9,0.0,0.0,0.0,
9000,9.6,16.3,257.8,0.0,0.0,0.0,
9100,13.5,17.2,218.8,0.0,0.0,0.0,
9200,9.7,17.7,253.9,0.0,0.0,0.0,
9300,9.1,17.8,253.9,0.0,0.0,0.0,
9400,9.1,17.7,246.1,0.0,0.0,0.0,
9500,8.7,17.5,257.8,0.0,0.0,0.0,
9600,10.2,16.9,242.2,0.0,0.0,0.0,
9700,11.8,16.7,269.5,0.0,0.0,0.0,
9800,9.2,15.8,281.3,0.0,0.0,0.0,
9900,8.3,15.1,261.7,0.0,0.0,0.0,
10000,10.0,15.0,257.8,0.0,0.0,0.0,
10100,10.8,14.0,242.2,0.0,0.0,0.0,
10200,13.3,13.5,257.8,0.0,0.0,0.0,
10300,12.9,15.3,269.5,0.0,0.0,0.0,
10400,11.3,16.3,281.3,0.0,0.0,0.0,
10500,14.6,16.6,250.0,0.0,0.0,0.0,
10600,13.8,18.3,257.8,0.0,0.0,0.0,
10700,8.8,18.8,265.6,0.0,0.0,0.0,
10800,8.7,18.8,238.3,0.0,0.0,0.0,
10900,9.0,18.6,246.1,0.0,0.0,0.0,
11000,11.2,18.5,265.6,0.0,0.0,0.0,
11100,9.2,18.7,230.5,0.0,0.0,0.0,
11200,7.6,18.4,238.3,0.0,0.0,0.0,
11300,8.9,16.7,257.8,0.0,0.0,0.0,
11400,9.5,15.8,261.7,0.0,0.0,0.0,
11500,11.0,15.5,246.1,0.0,0.0,0.0,
11600,9.2,13.7,242.2,0.0,0.0,0.0,
11700,10.4,12.8,218.8,0.0,0.0,0.0,
11800,12.0,13.6,261.7,0.0,0.0,0.0,
11900,11.3,14.1,273.4,0.0,0.0,0.0,
12000,13.8,14.3,234.4,0.0,0.0,0.0,
12100,11.7,16.2,234.4,0.0,0.0,0.0,
12200,10.8,16.6,265.6,0.0,0.0,0.0,
12300,15.7,16.8,277.3,0.0,0.0,0.0,
12400,11.0,18.1,253.9,0.0,0.0,0.0,
12500,10.3,18.3,246.1,0.0,0.0,0.0,
12600,10.7,18.2,246.1,0.0,0.0,0.0,
12700,11.7,18.4,261.7,0.0,0.0,0.0,
12800,9.9,17.9,253.9,0.0,0.0,0.0,
12900,8.6,17.8,261.7,0.0,0.0,0.0,
13000,6.7,17.4,277.3,0.0,0.0,0.0,
13100,7.7,15.4,257.8,0.0,0.0,0.0,
13200,9.6,15.1,277.3,0.0,0.0,0.0,
13300,8.1,15.1,253.9,0.0,0.0,0.0,
13400,9.7,13.3,242.2,0.0,0.0,0.0,
13500,16.0,13.8,238.3,0.0,0.0,0.0,
13600,12.1,15.3,265.6,0.0,0.0,0.0,
13700,10.1,15.4,261.7,0.0,0.0,0.0,
13800,13.8,15.5,234.4,0.0,0.0,0.0,
13900,11.4,16.9,242.2,0.0,0.0,0.0,
14000,9.0,17.4,238.3,0.0,0.0,0.0,
14100,10.1,17.4,242.2,0.0,0.0,0.0,
14200,10.6,17.3,246.1,0.0,0.0,0.0,
14300,8.4,17.3,242.2,0.0,0.0,0.0,
14400,9.0,17.5,238.3,0.0,0.0,0.0,
14500,9.9,16.9,242.2,0.0,0.0,0.0,
14600,8.0,15.9,261.7,0.0,0.0,0.0,
14700,8.5,15.4,257.8,0.0,0.0,0.0,
14800,10.2,15.2,253.9,0.0,0.0,0.0,
14900,10.5,13.6,269.5,0.0,0.0,0.0,
15000,13.3,13.7,246.1,0.0,0.0,0.0,
15100,12.3,15.8,246.1,0.0,0.0,0.0,
15200,14.1,16.2,238.3,0.0,0.0,0.0,
15300,12.3,17.1,234.4,0.0,0.0,0.0,
15400,11.6,17.7,257.8,0.0,0.0,0.0,
15500,9.9,18.0,261.7,0.0,0.0,0.0,
15600,10.6,17.9,273.4,0.0,0.0,0.0,
15700,9.5,18.1,250.0,0.0,0.0,0.0,
15800,8.3,17.9,269.5,0.0,0.0,0.0,
15900,9.3,17.7,222.7,0.0,0.0,0.0,
16000,8.7,17.3,253.9,0.0,0.0,0.0,
16100,9.6,15.5,269.5,0.0,0.0,0.0,
16200,8.5,15.1,261.7,0.0,0.0,0.0,
16300,8.7,14.1,246.1,0.0,0.0,0.0,
16400,9.0,13.2,238.3,0.0,0.0,0.0,
16500,9.7,12.8,261.7,0.0,0.0,0.0,
16600,10.7,12.6,238.3,0.0,0.0,0.0,
16700,10.8,12.7,257.8,0.0,0.0,0.0,
16800,12.7,14.5,250.0,0.0,0.0,0.0,
16900,10.0,15.1,253.9,0.0,0.0,0.0,
17000,10.7,15.4,253.9,0.0,0.0,0.0,
17100,11.4,16.2,253.9,0.0,0.0,0.0,
17200,7.5,16.6,246.1,0.0,0.0,0.0,
17300,9.0,16.5,226.6,0.0,0.0,0.0,
17400,10.4,16.6,246.1,0.0,0.0,0.0,
17500,8.4,16.6,226.6,0.0,0.0,0.0,
17600,8.9,16.4,257.8,0.0,0.0,0.0,
17700,9.8,16.0,226.6,0.0,0.0,0.0,
17800,9.7,14.7,218.8,0.0,0.0,0.0,
17900,11.4,14.0,218.8,0.0,0.0,0.0,
18000,9.3,13.9,234.4,0.0,0.0,0.0,
18100,10.5,13.0,265.6,0.0,0.0,0.0,
18200,16.2,13.5,246.1,0.0,0.0,0.0,
18300,12.4,15.8,253.9,0.0,0.0,0.0,
18400,9.6,16.2,230.5,0.0,0.0,0.0,
18500,12.3,17.0,257.8,0.0,0.0,0.0,
18600,11.8,19.0,257.8,0.0,0.0,0.0,
18700,8.7,19.2,257.8,0.0,0.0,0.0,
18800,10.2,19.2,261.7,0.0,0.0,0.0,
18900,10.0,19.2,234.4,0.0,0.0,0.0,
19000,8.9,19.1,234.4,0.0,0.0,0.0,
19100,8.1,19.1,257.8,0.0,0.0,0.0,
19200,9.3,18.3,257.8,0.0,0.0,0.0,
19300,11.1,16.5,246.1,0.0,0.0,0.0,
19400,9.4,16.2,253.9,0.0,0.0,0.0,
19500,7.1,15.3,261.7,0.0,0.0,0.0,
19600,10.2,12.8,265.6,0.0,0.0,0.0,
19700,8.8,12.6,218.8,0.0,0.0,0.0,
19800,9.0,12.6,250.0,0.0,0.0,0.0,
19900,13.7,12.4,199.2,0.0,0.0,0.0,
20000,13.2,14.4,250.0,0.0,0.0,0.0,
20100,10.8,14.7,250.0,0.0,0.0,0.0,
20200,10.6,14.8,250.0,0.0,0.0,0.0,
20300,10.6,16.0,234.4,0.0,0.0,0.0,
20400,8.6,15.9,242.2,0.0,0.0,0.0,
20500,9.6,16.1,230.5,0.0,0.0,0.0,
20600,8.6,16.3,218.8,0.0,0.0,0.0,
20700,10.0,16.4,238.3,0.0,0.0,0.0,
20800,10.1,16.3,246.1,0.0,0.0,0.0,
20900,11.1,16.7,218.8,0.0,0.0,0.0,
21000,8.7,15.3,234.4,0.0,0.0,0.0,
21100,9.3,15.0,234.4,0.0,0.0,0.0,
21200,8.7,15.0,238.3,0.0,0.0,0.0,
21300,10.1,13.7,234.4,0.0,0.0,0.0,
21400,15.4,14.8,265.6,0.0,0.0,0.0,
21500,12.6,16.1,250.0,0.0,0.0,0.0,
21600,10.5,16.1,257.8,0.0,0.0,0.0,
21700,14.5,16.5,242.2,0.0,0.0,0.0,
21800,11.7,17.7,265.6,0.0,0.0,0.0,
21900,11.9,17.9,253.9,0.0,0.0,0.0,
22000,12.6,18.5,257.8,0.0,0.0,0.0,
22100,9.9,18.7,273.4,0.0,0.0,0.0,
22200,10.6,18.8,230.5,0.0,0.0,0.0,
22300,9.9,18.7,257.8,0.0,0.0,0.0,
22400,11.2,17.9,250.0,0.0,0.0,0.0,
22500,9.7,16.8,257.8,0.0,0.0,0.0,
22600,9.5,16.8,246.1,0.0,0.0,0.0,
22700,11.1,16.2,230.5,0.0,0.0,0.0,
22800,11.0,15.0,230.5,0.0,0.0,0.0,
22900,12.0,14.8,242.2,0.0,0.0,0.0,
23000,12.0,14.0,273.4,0.0,0.0,0.0,
23100,11.5,14.0,253.9,0.0,0.0,0.0,
23200,15.0,16.0,253.9,0.0,0.0,0.0,
23300,10.9,16.7,246.1,0.0,0.0,0.0,
23400,12.0,16.7,226.6,0.0,0.0,0.0,
23500,14.8,18.8,253.9,0.0,0.0,0.0,
23600,11.7,19.3,253.9,0.0,0.0,0.0,
23700,8.9,19.5,257.8,0.0,0.0,0.0,
23800,10.0,19.3,238.3,0.0,0.0,0.0,
23900,9.9,19.2,265.6,0.0,0.0,0.0,
24000,11.3,19.0,210.9,0.0,0.0,0.0,
24100,10.6,19.0,218.8,0.0,0.0,0.0,
24200,10.6,17.4,269.5,0.0,0.0,0.0,
24300,9.2,17.0,242.2,0.0,0.0,0.0,
24400,11.8,16.9,238.3,0.0,0.0,0.0,
24500,9.7,14.7,250.0,0.0,0.0,0.0,
24600,16.1,14.1,242.2,0.0,0.0,0.0,
24700,14.8,16.1,246.1,0.0,0.0,0.0,
24800,13.2,16.9,230.5,0.0,0.0,0.0,
24900,16.5,16.9,257.8,0.0,0.0,0.0,
25000,11.0,18.6,261.7,0.0,0.0,0.0,
25100,10.9,18.5,222.7,0.0,0.0,0.0,
25200,9.0,18.7,238.3,0.0,0.0,0.0,
25300,10.3,18.5,234.4,0.0,0.0,0.0,
25400,9.6,18.6,261.7,0.0,0.0,0.0,
25500,11.5,18.5,246.1,0.0,0.0,0.0,
25600,10.8,18.4,234.4,0.0,0.0,0.0,
25700,10.6,16.8,238.3,0.0,0.0,0.0,
25800,8.8,16.0,222.7,0.0,0.0,0.0,
25900,9.4,15.8,242.2,0.0,0.0,0.0,
26000,10.4,13.9,273.4,0.0,0.0,0.0,
26100,10.6,13.9,242.2,0.0,0.0,0.0,
26200,9.0,13.6,246.1,0.0,0.0,0.0,
26300,11.0,13.7,234.4,0.0,0.0,0.0,
26400,13.3,13.9,234.4,0.0,0.0,0.0,
26500,12.8,16.3,226.6,0.0,0.0,0.0,
26600,12.4,16.8,234.4,0.0,0.0,0.0,
26700,13.3,16.8,234.4,0.0,0.0,0.0,
26800,10.8,18.0,250.0,0.0,0.0,0.0,
26900,8.1,18.4,234.4,0.0,0.0,0.0,
27000,9.2,18.2,226.6,0.0,0.0,0.0,
27100,10.4,18.2,289.1,0.0,0.0,0.0,
27200,12.8,18.3,304.7,0.0,0.0,0.0,
27300,7.6,18.2,242.2,0.0,0.0,0.0,
27400,7.6,17.9,250.0,0.0,0.0,0.0,
27500,9.9,15.7,253.9,0.0,0.0,0.0,
27600,8.9,15.2,257.8,0.0,0.0,0.0,
27700,8.9,14.9,234.4,0.0,0.0,0.0,
27800,10.3,13.4,246.1,0.0,0.0,0.0,
27900,13.1,13.3,257.8,0.0,0.0,0.0,
28000,9.6,14.9,238.3,0.0,0.0,0.0,
28100,9.7,14.7,250.0,0.0,0.0,0.0,
28200,11.2,14.5,238.3,0.0,0.0,0.0,
28300,11.5,15.5,246.1,0.0,0.0,0.0,
28400,9.9,15.6,234.4,0.0,0.0,0.0,
28500,8.9,15.6,250.0,0.0,0.0,0.0,
28600,9.0,15.5,246.1,0.0,0.0,0.0,
28700,7.8,15.5,253.9,0.0,0.0,0.0,
28800,10.3,15.6,230.5,0.0,0.0,0.0,
28900,9.5,15.2,250.0,0.0,0.0,0.0,
29000,10.4,13.9,230.5,0.0,0.0,0.0,
29100,9.9,14.1,253.9,0.0,0.0,0.0,
29200,10.4,14.0,257.8,0.0,0.0,0.0,
29300,9.3,12.9,234.4,0.0,0.0,0.0,
29400,10.4,12.7,210.9,0.0,0.0,0.0,
29500,10.4,14.0,257.8,0.0,0.0,0.0,
29600,11.9,14.0,250.0,0.0,0.0,0.0,
29700,14.4,14.7,242.2,0.0,0.0,0.0,
29800,10.5,16.2,250.0,0.0,0.0,0.0,
29900,9.4,16.2,269.5,0.0,0.0,0.0,
30000,11.4,16.7,261.7,0.0,0.0,0.0,
30100,9.3,17.2,230.5,0.0,0.0,0.0,
30200,10.6,17.3,230.5,0.0,0.0,0.0,
30300,7.9,17.3,210.9,0.0,0.0,0.0,
30400,11.8,17.2,234.4,0.0,0.0,0.0,
30500,7.5,16.4,253.9,0.0,0.0,0.0,
30600,9.9,16.3,253.9,0.0,0.0,0.0,
30700,11.1,15.9,246.1,0.0,0.0,0.0,
30800,9.7,14.4,234.4,0.0,0.0,0.0,
30900,8.7,14.2,246.1,0.0,0.0,0.0,
31000,10.5,13.7,250.0,0.0,0.0,0.0,
31100,12.7,12.8,242.2,0.0,0.0,0.0,
31200,16.5,15.1,230.5,0.0,0.0,0.0,
31300,11.8,15.8,257.8,0.0,0.0,0.0,
31400,13.0,16.0,269.5,0.0,0.0,0.0,
31500,12.2,17.6,261.7,0.0,0.0,0.0,
31600,9.2,17.9,257.8,0.0,0.0,0.0,
31700,9.4,18.0,257.8,0.0,0.0,0.0,
31800,9.3,17.9,250.0,0.0,0.0,0.0,
31900,8.7,17.9,238.3,0.0,0.0,0.0,
32000,8.5,17.9,246.1,0.0,0.0,0.0,
32100,9.0,17.9,261.7,0.0,0.0,0.0,
32200,9.8,16.0,257.8,0.0,0.0,0.0,
32300,10.2,15.3,222.7,0.0,0.0,0.0,
32400,9.8,15.1,257.8,0.0,0.0,0.0,
32500,9.9,12.8,250.0,0.0,0.0,0.0,
32600,13.0,12.7,250.0,0.0,0.0,0.0,
32700,10.4,13.3,257.8,0.0,0.0,0.0,
32800,9.2,13.4,238.3,0.0,0.0,0.0,
32900,16.0,14.0,238.3,0.0,0.0,0.0,
33000,10.5,15.1,250.0,0.0,0.0,0.0,
33100,11.8,15.2,250.0,0.0,0.0,0.0,
33200,11.8,16.0,250.0,0.0,0.0,0.0,
33300,8.9,16.8,253.9,0.0,0.0,0.0,
33400,8.2,16.6,257.8,0.0,0.0,0.0,
33500,9.2,16.6,273.4,0.0,0.0,0.0,
33600,8.5,16.3,265.6,0.0,0.0,0.0,
33700,10.8,15.8,238.3,0.0,0.0,0.0,
33800,11.1,15.8,242.2,0.0,0.0,0.0,
33900,10.0,15.5,250.0,0.0,0.0,0.0,
34000,9.9,14.4,253.9,0.0,0.0,0.0,
34100,10.1,14.3,242.2,0.0,0.0,0.0,
34200,10.7,13.4,250.0,0.0,0.0,0.0,
34300,16.9,12.6,250.0,0.0,0.0,0.0,
34400,12.3,14.6,253.9,0.0,0.0,0.0,
34500,11.0,15.2,238.3,0.0,0.0,0.0,
34600,15.5,15.5,246.1,0.0,0.0,0.0,
34700,13.0,17.3,242.2,0.0,0.0,0.0,
34800,11.0,17.6,222.7,0.0,0.0,0.0,
34900,8.5,17.4,261.7,0.0,0.0,0.0,
35000,9.2,17.4,242.2,0.0,0.0,0.0,
35100,9.6,17.4,238.3,0.0,0.0,0.0,
35200,9.0,17.3,238.3,0.0,0.0,0.0,
35300,10.3,17.5,238.3,0.0,0.0,0.0,
35400,11.0,16.0,238.3,0.0,0.0,0.0,
35500,8.6,15.6,218.8,0.0,0.0,0.0,
35600,9.0,15.4,222.7,0.0,0.0,0.0,
35700,9.9,13.3,269.5,0.0,0.0,0.0,
35800,9.2,12.8,281.3,0.0,0.0,0.0,
35900,12.2,13.0,265.6,0.0,0.0,0.0,
36000,12.9,13.5,269.5,0.0,0.0,0.0,
36100,14.8,14.2,261.7,0.0,0.0,0.0,
36200,12.7,16.7,257.8,0.0,0.0,0.0,
36300,10.6,16.9,257.8,0.0,0.0,0.0,
36400,14.0,17.3,242.2,0.0,0.0,0.0,
36500,12.1,18.4,253.9,0.0,0.0,0.0,
36600,10.9,18.6,269.5,0.0,0.0,0.0,
36700,10.7,18.7,269.5,0.0,0.0,0.0,
36800,9.9,18.9,261.7,0.0,0.0,0.0,
36900,10.9,18.8,238.3,0.0,0.0,0.0,
37000,11.0,18.6,269.5,0.0,0.0,0.0,
37100,10.8,18.3,230.5,0.0,0.0,0.0,
37200,11.0,16.4,242.2,0.0,0.0,0.0,
37300,11.4,16.1,242.2,0.0,0.0,0.0,
37400,12.8,15.8,238.3,0.0,0.0,0.0,
37500,12.4,14.9,234.4,0.0,0.0,0.0,
37600,11.5,16.4,257.8,0.0,0.0,0.0,
37700,13.1,16.5,253.9,0.0,0.0,0.0,
37800,12.5,16.8,261.7,0.0,0.0,0.0,
38000,11.4,18.2,261.7,0.0,0.0,0.0,
38100,10.6,18.1,261.7,0.0,0.0,0.0,
38200,9.4,17.8,253.9,0.0,0.0,0.0,
38300,9.7,17.6,269.5,0.0,0.0,0.0,
38400,10.7,17.4,265.6,0.0,0.0,0.0,
38500,11.6,17.2,257.8,0.0,0.0,0.0,
38600,11.7,16.0,265.6,0.0,0.0,0.0,
38700,10.7,15.8,242.2,0.0,0.0,0.0,
38800,12.0,15.5,222.7,0.0,0.0,0.0,
38900,12.1,14.2,214.8,0.0,0.0,0.0,
39000,13.6,14.7,234.4,0.0,0.0,0.0,
39100,10.9,15.0,250.0,0.0,0.0,0.0,
39200,9.6,15.1,257.8,0.0,0.0,0.0,
39300,16.5,16.6,253.9,0.0,0.0,0.0,
39400,9.7,18.0,238.3,0.0,0.0,0.0,
39500,11.7,17.8,253.9,0.0,0.0,0.0,
39600,14.5,18.7,265.6,0.0,0.0,0.0,
39700,13.5,19.3,261.7,0.0,0.0,0.0,
39800,10.1,19.3,261.7,0.0,0.0,0.0,
39900,12.1,19.1,257.8,0.0,0.0,0.0,
40000,8.5,18.7,214.8,0.0,0.0,0.0,
40100,9.9,18.3,230.5,0.0,0.0,0.0,
40200,9.4,18.2,238.3,0.0,0.0,0.0,
40300,9.0,16.8,261.7,0.0,0.0,0.0,
40400,10.3,15.5,250.0,0.0,0.0,0.0,
40500,8.6,15.6,246.1,0.0,0.0,0.0,
40600,10.1,14.3,234.4,0.0,0.0,0.0,
40700,15.3,13.3,253.9,0.0,0.0,0.0,
40800,13.6,15.8,253.9,0.0,0.0,0.0,
40900,12.3,16.3,257.8,0.0,0.0,0.0,
41000,16.1,16.6,238.3,0.0,0.0,0.0,
41100,13.8,17.9,230.5,0.0,0.0,0.0,
41200,12.5,18.5,261.7,0.0,0.0,0.0,
41300,9.5,18.8,250.0,0.0,0.0,0.0,
41400,10.5,18.5,242.2,0.0,0.0,0.0,
41500,9.6,18.4,234.4,0.0,0.0,0.0,
41600,9.2,18.5,246.1,0.0,0.0,0.0,
41700,10.2,18.5,273.4,0.0,0.0,0.0,
41800,8.8,16.0,234.4,0.0,0.0,0.0,
41900,10.7,15.5,230.5,0.0,0.0,0.0,
42000,9.9,15.1,257.8,0.0,0.0,0.0,
42100,12.4,13.6,253.9,0.0,0.0,0.0,
42200,11.5,13.0,230.5,0.0,0.0,0.0,
42300,10.8,12.9,230.5,0.0,0.0,0.0,
42400,11.7,13.2,265.6,0.0,0.0,0.0,
42500,10.5,15.1,261.7,0.0,0.0,0.0,
42600,13.3,15.4,238.3,0.0,0.0,0.0,
42700,13.3,15.7,234.4,0.0,0.0,0.0,
42800,13.7,16.7,234.4,0.0,0.0,0.0,
42900,11.6,17.9,250.0,0.0,0.0,0.0,
43000,9.7,18.0,261.7,0.0,0.0,0.0,
43100,10.1,18.0,218.8,0.0,0.0,0.0,
43200,8.4,18.1,214.8,0.0,0.0,0.0,
43300,10.6,17.9,230.5,0.0,0.0,0.0,
43400,10.5,17.9,257.8,0.0,0.0,0.0,
43500,10.5,16.4,285.2,0.0,0.0,0.0,
43600,9.7,16.1,273.4,0.0,0.0,0.0,
43700,10.4,15.7,230.5,0.0,0.0,0.0,
43800,11.1,14.7,242.2,0.0,0.0,0.0,
43900,17.2,13.9,242.2,0.0,0.0,0.0,
44000,13.6,15.6,238.3,0.0,0.0,0.0,
44100,11.2,16.0,253.9,0.0,0.0,0.0,
44200,13.9,16.4,230.5,0.0,0.0,0.0,
44300,10.3,18.0,226.6,0.0,0.0,0.0,
44400,10.2,17.9,242.2,0.0,0.0,0.0,
44500,8.8,18.0,253.9,0.0,0.0,0.0,
44600,10.0,17.8,242.2,0.0,0.0,0.0,
44700,9.5,17.9,199.2,0.0,0.0,0.0,
44800,9.1,17.8,253.9,0.0,0.0,0.0,
44900,11.7,17.5,289.1,0.0,0.0,0.0,
45000,10.2,15.9,250.0,0.0,0.0,0.0,
45100,13.5,15.9,261.7,0.0,0.0,0.0,
45200,11.0,15.9,253.9,0.0,0.0,0.0,
45300,8.7,14.4,246.1,0.0,0.0,0.0,
45400,8.5,14.3,253.9,0.0,0.0,0.0,
45500,10.6,14.1,261.7,0.0,0.0,0.0,
45600,12.8,14.2,250.0,0.0,0.0,0.0,
45700,13.0,15.3,242.2,0.0,0.0,0.0,
45800,10.9,16.1,257.8,0.0,0.0,0.0,
45900,11.8,16.0,253.9,0.0,0.0,0.0,
46000,15.0,17.8,253.9,0.0,0.0,0.0,
46100,12.7,18.5,242.2,0.0,0.0,0.0,
46200,10.1,18.0,246.1,0.0,0.0,0.0,
46300,8.9,18.0,230.5,0.0,0.0,0.0,
46400,9.3,17.9,253.9,0.0,0.0,0.0,
46500,9.3,18.0,261.7,0.0,0.0,0.0,
46600,10.5,18.1,257.8,0.0,0.0,0.0,
46700,11.1,17.2,261.7,0.0,0.0,0.0,
46800,12.0,16.6,261.7,0.0,0.0,0.0,
46900,10.7,16.8,234.4,0.0,0.0,0.0,
47000,9.3,14.7,253.9,0.0,0.0,0.0,
47100,14.2,14.7,261.7,0.0,0.0,0.0,
47200,12.3,15.6,250.0,0.0,0.0,0.0,
47300,11.8,15.6,250.0,0.0,0.0,0.0,
47400,15.4,16.3,234.4,0.0,0.0,0.0,
47500,12.9,18.5,246.1,0.0,0.0,0.0,
47600,12.2,18.7,257.8,0.0,0.0,0.0,
47700,11.1,19.3,230.5,0.0,0.0,0.0,
47800,10.4,19.4,230.5,0.0,0.0,0.0,
48000,9.1,19.4,234.4,0.0,0.0,0.0,
48100,9.5,18.6,222.7,0.0,0.0,0.0,
48200,9.0,17.8,238.3,0.0,0.0,0.0,
48300,11.6,17.7,238.3,0.0,0.0,0.0,
48400,9.8,17.3,265.6,0.0,0.0,0.0,
48500,8.0,15.0,269.5,0.0,0.0,0.0,
48600,9.9,14.8,253.9,0.0,0.0,0.0,
48700,9.9,14.0,242.2,0.0,0.0,0.0,
48800,12.9,13.9,250.0,0.0,0.0,0.0,
48900,13.7,16.4,257.8,0.0,0.0,0.0,
49000,10.5,16.8,261.7,0.0,0.0,0.0,
49100,14.7,17.0,242.2,0.0,0.0,0.0,
49200,10.5,19.1,242.2,0.0,0.0,0.0,
49300,10.6,19.5,257.8,0.0,0.0,0.0,
49400,10.8,19.4,257.8,0.0,0.0,0.0,
49500,8.3,19.3,269.5,0.0,0.0,0.0,
49600,13.5,19.3,230.5,0.0,0.0,0.0,
49700,9.3,19.6,277.3,0.0,0.0,0.0,
49800,13.0,19.6,246.1,0.0,0.0,0.0,
49900,11.5,17.7,246.1,0.0,0.0,0.0,
50000,10.8,17.4,242.2,0.0,0.0,0.0,
50100,10.1,17.6,246.1,0.0,0.0,0.0,
50200,9.3,15.3,265.6,0.0,0.0,0.0,
50300,11.4,14.9,261.7,0.0,0.0,0.0,
50400,9.9,15.3,246.1,0.0,0.0,0.0,
50500,10.4,15.3,253.9,0.0,0.0,0.0,
50600,12.9,17.1,230.5,0.0,0.0,0.0,
50700,10.2,17.2,257.8,0.0,0.0,0.0,
50800,12.1,17.3,238.3,0.0,0.0,0.0,
50900,12.8,18.4,242.2,0.0,0.0,0.0,
51000,9.9,18.5,257.8,0.0,0.0,0.0,
51100,8.6,18.3,242.2,0.0,0.0,0.0,
51200,9.6,18.3,269.5,0.0,0.0,0.0,
51300,8.5,18.3,277.3,0.0,0.0,0.0,
51400,8.0,17.9,257.8,0.0,0.0,0.0,
51500,10.6,17.8,265.6,0.0,0.0,0.0,
51600,8.5,16.0,238.3,0.0,0.0,0.0,
51700,9.9,15.3,230.5,0.0,0.0,0.0,
51800,11.0,15.2,210.9,0.0,0.0,0.0,
51900,14.0,13.6,226.6,0.0,0.0,0.0,
52000,13.9,14.4,230.5,0.0,0.0,0.0,
52100,13.3,15.5,250.0,0.0,0.0,0.0,
52200,10.0,15.5,273.4,0.0,0.0,0.0,
52300,14.0,17.3,230.5,0.0,0.0,0.0,
52400,14.1,18.0,250.0,0.0,0.0,0.0,
52500,11.2,18.3,234.4,0.0,0.0,0.0,
52600,8.4,18.5,218.8,0.0,0.0,0.0,
52700,12.3,18.7,218.8,0.0,0.0,0.0,
52800,8.4,18.8,222.7,0.0,0.0,0.0,
52900,10.5,18.7,246.1,0.0,0.0,0.0,
53000,9.3,18.0,234.4,0.0,0.0,0.0,
53100,12.8,17.1,265.6,0.0,0.0,0.0,
53200,11.4,17.4,250.0,0.0,0.0,0.0,
53300,9.9,15.7,257.8,0.0,0.0,0.0,
53400,11.5,14.9,226.6,0.0,0.0,0.0,
53500,10.4,14.8,234.4,0.0,0.0,0.0,
53600,11.9,14.6,273.4,0.0,0.0,0.0,
53700,15.3,15.2,261.7,0.0,0.0,0.0,
53800,12.4,17.1,257.8,0.0,0.0,0.0,
53900,12.0,17.3,242.2,0.0,0.0,0.0,
54000,15.0,18.0,226.6,0.0,0.0,0.0,
54100,11.3,19.2,261.7,0.0,0.0,0.0,
54200,10.9,19.0,238.3,0.0,0.0,0.0,
54300,9.9,19.0,238.3,0.0,0.0,0.0,
54400,11.5,19.1,257.8,0.0,0.0,0.0,
54500,10.0,19.0,257.8,0.0,0.0,0.0,
54600,10.0,19.0,246.1,0.0,0.0,0.0,
54700,9.9,18.4,250.0,0.0,0.0,0.0,
54800,9.1,16.5,246.1,0.0,0.0,0.0,
54900,9.0,16.3,226.6,0.0,0.0,0.0,
55000,9.1,15.3,230.5,0.0,0.0,0.0,
55100,12.5,13.6,277.3,0.0,0.0,0.0,
55200,11.9,15.1,253.9,0.0,0.0,0.0,
55300,11.0,15.4,257.8,0.0,0.0,0.0,
55400,13.3,15.4,238.3,0.0,0.0,0.0,
55500,11.7,17.1,261.7,0.0,0.0,0.0,
55600,10.6,17.8,246.1,0.0,0.0,0.0,
55700,8.8,17.7,230.5,0.0,0.0,0.0,
55800,9.1,17.9,230.5,0.0,0.0,0.0,
55900,10.2,17.9,269.5,0.0,0.0,0.0,
56000,9.7,18.1,281.3,0.0,0.0,0.0,
56100,9.0,18.1,265.6,0.0,0.0,0.0,
56200,10.3,16.6,242.2,0.0,0.0,0.0,
56300,8.8,16.4,234.4,0.0,0.0,0.0,
56400,8.3,16.2,257.8,0.0,0.0,0.0,
56500,10.1,14.4,273.4,0.0,0.0,0.0,
56600,8.4,13.4,226.6,0.0,0.0,0.0,
56700,9.1,13.3,253.9,0.0,0.0,0.0,
56800,11.2,12.9,273.4,0.0,0.0,0.0,
56900,11.9,15.2,246.1,0.0,0.0,0.0,
57000,9.3,15.5,250.0,0.0,0.0,0.0,
57100,13.1,15.4,250.0,0.0,0.0,0.0,
57200,11.8,16.8,246.1,0.0,0.0,0.0,
57300,11.1,17.2,230.5,0.0,0.0,0.0,
57400,10.0,17.3,238.3,0.0,0.0,0.0,
57500,8.8,17.4,242.2,0.0,0.0,0.0,
57600,11.1,17.6,265.6,0.0,0.0,0.0,
57700,9.7,17.8,269.5,0.0,0.0,0.0,
57800,8.4,17.9,246.1,0.0,0.0,0.0,
58000,8.8,15.2,246.1,0.0,0.0,0.0,
58100,10.8,15.4,242.2,0.0,0.0,0.0,
58200,9.3,14.1,242.2,0.0,0.0,0.0,
58300,14.1,13.5,265.6,0.0,0.0,0.0,
58400,8.4,14.3,238.3,0.0,0.0,0.0,
58500,10.9,14.3,246.1,0.0,0.0,0.0,
58600,11.8,15.1,246.1,0.0,0.0,0.0,
58700,11.3,15.5,246.1,0.0,0.0,0.0,
58800,12.7,15.7,242.2,0.0,0.0,0.0,
58900,12.0,16.5,238.3,0.0,0.0,0.0,
59000,9.3,17.5,238.3,0.0,0.0,0.0,
59100,9.9,17.2,257.8,0.0,0.0,0.0,
59200,12.2,17.1,308.6,0.0,0.0,0.0,
59300,9.0,17.1,265.6,0.0,0.0,0.0,
59400,9.0,16.3,265.6,0.0,0.0,0.0,
59500,9.1,16.3,238.3,0.0,0.0,0.0,
59600,11.0,15.3,253.9,0.0,0.0,0.0,
59700,10.5,15.2,273.4,0.0,0.0,0.0,
59800,9.5,15.0,242.2,0.0,0.0,0.0,
59900,12.8,14.5,238.3,0.0,0.0,0.0,
60000,14.0,15.8,250.0,0.0,0.0,0.0,
60100,11.2,17.4,253.9,0.0,0.0,0.0,
60200,8.7,17.6,265.6,0.0,0.0,0.0,
60300,12.2,18.8,253.9,0.0,0.0,0.0,
60400,12.1,19.3,257.8,0.0,0.0,0.0,
60500,11.2,19.5,261.7,0.0,0.0,0.0,
60600,9.1,19.5,257.8,0.0,0.0,0.0,
60700,8.7,19.1,238.3,0.0,0.0,0.0,
60800,10.6,19.1,253.9,0.0,0.0,0.0,
60900,10.9,19.0,269.5,0.0,0.0,0.0,
61000,8.5,17.2,246.1,0.0,0.0,0.0,
61100,9.4,15.7,269.5,0.0,0.0,0.0,
61200,10.4,15.3,238.3,0.0,0.0,0.0,
61300,10.5,14.0,242.2,0.0,0.0,0.0,
61400,7.2,13.2,218.8,0.0,0.0,0.0,
61500,9.7,13.0,261.7,0.0,0.0,0.0,
61600,11.3,13.2,210.9,0.0,0.0,0.0,
61700,13.7,14.0,226.6,0.0,0.0,0.0,
61800,11.4,15.4,246.1,0.0,0.0,0.0,
61900,10.5,16.0,257.8,0.0,0.0,0.0,
62000,17.2,17.6,234.4,0.0,0.0,0.0,
62100,10.2,18.7,261.7,0.0,0.0,0.0,
62200,10.4,18.9,257.8,0.0,0.0,0.0,
62300,10.5,18.8,226.6,0.0,0.0,0.0,
62400,9.3,18.7,253.9,0.0,0.0,0.0,
62500,11.0,18.7,238.3,0.0,0.0,0.0,
62600,9.9,18.5,246.1,0.0,0.0,0.0,
62700,10.8,18.0,230.5,0.0,0.0,0.0,
62800,9.6,16.8,210.9,0.0,0.0,0.0,
62900,8.8,16.3,210.9,0.0,0.0,0.0,
63000,9.0,14.5,261.7,0.0,0.0,0.0,
63100,9.6,13.1,253.9,0.0,0.0,0.0,
63200,10.2,13.5,246.1,0.0,0.0,0.0,
63300,9.5,13.6,253.9,0.0,0.0,0.0,
63400,14.7,14.5,234.4,0.0,0.0,0.0,
63500,12.1,16.7,253.9,0.0,0.0,0.0,
63600,9.8,17.1,261.7,0.0,0.0,0.0,
63700,15.7,17.3,242.2,0.0,0.0,0.0,
63800,8.8,18.2,242.2,0.0,0.0,0.0,
63900,8.7,18.0,242.2,0.0,0.0,0.0,
64000,12.2,18.0,253.9,0.0,0.0,0.0,
64100,8.3,18.3,242.2,0.0,0.0,0.0,
64200,9.5,18.0,265.6,0.0,0.0,0.0,
64300,9.3,18.1,265.6,0.0,0.0,0.0,
64400,10.3,17.4,234.4,0.0,0.0,0.0,
64500,9.6,15.5,281.3,0.0,0.0,0.0,
64600,10.6,15.2,269.5,0.0,0.0,0.0,
64700,9.7,15.0,246.1,0.0,0.0,0.0,
64800,10.4,13.9,265.6,0.0,0.0,0.0,
64900,11.7,16.0,210.9,0.0,0.0,0.0,
65000,11.8,17.1,250.0,0.0,0.0,0.0,
65100,10.7,17.0,257.8,0.0,0.0,0.0,
65200,12.2,17.5,250.0,0.0,0.0,0.0,
65300,10.4,18.2,250.0,0.0,0.0,0.0,
65400,9.1,18.4,246.1,0.0,0.0,0.0,
65500,9.3,18.4,261.7,0.0,0.0,0.0,
65600,9.4,18.2,257.8,0.0,0.0,0.0,
65700,10.7,18.2,265.6,0.0,0.0,0.0,
65800,10.0,18.2,242.2,0.0,0.0,0.0,
65900,8.4,16.6,238.3,0.0,0.0,0.0,
66000,9.5,15.2,250.0,0.0,0.0,0.0,
66100,8.1,15.1,242.2,0.0,0.0,0.0,
66200,7.5,14.1,242.2,0.0,0.0,0.0,
66300,7.5,12.7,246.1,0.0,0.0,0.0,
66400,10.4,12.8,273.4,0.0,0.0,0.0,
66500,10.1,12.7,253.9,0.0,0.0,0.0,
66600,10.7,13.7,250.0,0.0,0.0,0.0,
66700,14.0,16.3,246.1,0.0,0.0,0.0,
66800,11.4,16.8,257.8,0.0,0.0,0.0,
66900,11.8,16.9,265.6,0.0,0.0,0.0,
67000,10.5,18.7,257.8,0.0,0.0,0.0,
67100,9.0,18.9,246.1,0.0,0.0,0.0,
67200,8.3,19.0,261.7,0.0,0.0,0.0,
67300,9.5,19.0,226.6,0.0,0.0,0.0,
67400,9.7,18.9,238.3,0.0,0.0,0.0,
67500,8.8,18.8,273.4,0.0,0.0,0.0,
67600,8.9,18.2,281.3,0.0,0.0,0.0,
67700,9.0,16.0,273.4,0.0,0.0,0.0,
67800,12.1,15.5,250.0,0.0,0.0,0.0,
68000,13.5,13.7,253.9,0.0,0.0,0.0,
68100,12.4,15.0,238.3,0.0,0.0,0.0,
68200,10.6,16.3,257.8,0.0,0.0,0.0,
68300,11.1,16.6,257.8,0.0,0.0,0.0,
68400,13.3,17.8,253.9,0.0,0.0,0.0,
68500,9.8,18.3,257.8,0.0,0.0,0.0,
68600,9.8,18.4,253.9,0.0,0.0,0.0,
68700,7.5,18.2,234.4,0.0,0.0,0.0,
68800,10.1,18.0,234.4,0.0,0.0,0.0,
68900,8.3,17.7,261.7,0.0,0.0,0.0,
69000,8.4,17.6,250.0,0.0,0.0,0.0,
69100,9.1,16.4,234.4,0.0,0.0,0.0,
69200,8.7,15.2,250.0,0.0,0.0,0.0,
69300,8.2,15.1,269.5,0.0,0.0,0.0,
69400,7.6,13.3,250.0,0.0,0.0,0.0,
69500,7.2,12.3,269.5,0.0,0.0,0.0,
69600,9.6,13.0,261.7,0.0,0.0,0.0,
69700,8.6,13.4,261.7,0.0,0.0,0.0,
69800,13.1,13.7,257.8,0.0,0.0,0.0,
69900,10.2,17.0,250.0,0.0,0.0,0.0,
70000,9.7,17.2,253.9,0.0,0.0,0.0,
70100,16.8,17.4,238.3,0.0,0.0,0.0,
70200,10.5,19.5,230.5,0.0,0.0,0.0,
70300,8.1,19.5,257.8,0.0,0.0,0.0,
70400,7.6,19.6,234.4,0.0,0.0,0.0,
70500,9.3,19.6,281.3,0.0,0.0,0.0,
70600,9.1,19.3,250.0,0.0,0.0,0.0,
70700,8.5,18.9,226.6,0.0,0.0,0.0,
70800,9.8,18.9,253.9,0.0,0.0,0.0,
70900,9.1,16.1,289.1,0.0,0.0,0.0,
71000,9.1,15.9,265.6,0.0,0.0,0.0,
71100,9.8,15.8,269.5,0.0,0.0,0.0,
71200,10.2,13.4,238.3,0.0,0.0,0.0,
71300,13.1,15.7,253.9,0.0,0.0,0.0,
71400,10.7,16.6,257.8,0.0,0.0,0.0,
71500,12.8,16.9,230.5,0.0,0.0,0.0,
71600,14.7,19.5,250.0,0.0,0.0,0.0,
71700,10.2,20.4,253.9,0.0,0.0,0.0,
71800,10.1,20.4,257.8,0.0,0.0,0.0,
71900,9.5,20.2,250.0,0.0,0.0,0.0,
72000,11.8,20.3,253.9,0.0,0.0,0.0,
72100,7.6,20.3,238.3,0.0,0.0,0.0,
72200,9.6,20.1,238.3,0.0,0.0,0.0,
72300,9.8,18.4,246.1,0.0,0.0,0.0,
72400,8.5,17.6,242.2,0.0,0.0,0.0,
72500,8.1,17.8,261.7,0.0,0.0,0.0,
72600,10.8,14.7,277.3,0.0,0.0,0.0,
72700,9.9,13.8,265.6,0.0,0.0,0.0,
72800,12.2,13.7,269.5,0.0,0.0,0.0,
72900,9.2,14.7,261.7,0.0,0.0,0.0,
73000,15.9,15.1,261.7,0.0,0.0,0.0,
73100,14.7,17.1,253.9,0.0,0.0,0.0,
73200,9.9,17.4,253.9,0.0,0.0,0.0,
73300,12.6,18.1,230.5,0.0,0.0,0.0,
73400,10.2,20.1,261.7,0.0,0.0,0.0,
73500,7.3,19.7,253.9,0.0,0.0,0.0,
73600,8.4,19.6,250.0,0.0,0.0,0.0,
73700,8.1,19.3,285.2,0.0,0.0,0.0,
73800,9.9,19.3,253.9,0.0,0.0,0.0,
73900,9.1,18.7,246.1,0.0,0.0,0.0,
74000,7.9,18.4,230.5,0.0,0.0,0.0,
74100,8.6,16.4,257.8,0.0,0.0,0.0,
74200,10.1,16.1,257.8,0.0,0.0,0.0,
74300,9.4,15.2,250.0,0.0,0.0,0.0,
74400,10.0,12.5,246.1,0.0,0.0,0.0,
74500,12.2,13.7,261.7,0.0,0.0,0.0,
74600,8.2,16.5,242.2,0.0,0.0,0.0,
74700,14.4,16.5,250.0,0.0,0.0,0.0,
74800,11.8,18.3,257.8,0.0,0.0,0.0,
74900,9.2,19.4,242.2,0.0,0.0,0.0,
75000,9.2,19.2,261.7,0.0,0.0,0.0,
75100,10.1,19.3,246.1,0.0,0.0,0.0,
75200,9.0,19.3,234.4,0.0,0.0,0.0,
75300,8.1,19.2,238.3,0.0,0.0,0.0,
75400,7.7,19.0,269.5,0.0,0.0,0.0,
75500,9.0,18.2,257.8,0.0,0.0,0.0,
75600,8.4,15.9,261.7,0.0,0.0,0.0,
75700,9.0,15.9,238.3,0.0,0.0,0.0,
75800,9.4,14.0,234.4,0.0,0.0,0.0,
75900,9.4,12.4,242.2,0.0,0.0,0.0,
76000,11.3,12.3,289.1,0.0,0.0,0.0,
76100,11.1,12.8,253.9,0.0,0.0,0.0,
76200,14.1,13.0,226.6,0.0,0.0,0.0,
76300,9.5,16.5,250.0,0.0,0.0,0.0,
76400,7.6,16.5,257.8,0.0,0.0,0.0,
76500,13.5,16.5,253.9,0.0,0.0,0.0,
76600,8.8,18.5,261.7,0.0,0.0,0.0,
76700,9.4,18.6,253.9,0.0,0.0,0.0,
76800,10.1,18.7,261.7,0.0,0.0,0.0,
76900,9.3,18.7,273.4,0.0,0.0,0.0,
77000,8.1,18.7,230.5,0.0,0.0,0.0,
77100,10.0,18.4,269.5,0.0,0.0,0.0,
77200,8.3,18.4,253.9,0.0,0.0,0.0,
77300,11.0,15.3,265.6,0.0,0.0,0.0,
77400,8.8,15.4,234.4,0.0,0.0,0.0,
77500,8.2,15.5,257.8,0.0,0.0,0.0,
77600,9.7,13.1,273.4,0.0,0.0,0.0,
77700,12.9,15.9,246.1,0.0,0.0,0.0,
77800,9.8,16.5,253.9,0.0,0.0,0.0,
78000,10.8,18.1,246.1,0.0,0.0,0.0,
78100,12.9,18.6,253.9,0.0,0.0,0.0,
78200,8.6,18.7,257.8,0.0,0.0,0.0,
78300,9.0,18.7,265.6,0.0,0.0,0.0,
78400,9.6,18.6,257.8,0.0,0.0,0.0,
78500,7.6,18.8,234.4,0.0,0.0,0.0,
78600,8.8,18.7,261.7,0.0,0.0,0.0,
78700,10.9,16.2,250.0,0.0,0.0,0.0,
78800,9.3,15.7,269.5,0.0,0.0,0.0,
78900,8.2,15.8,250.0,0.0,0.0,0.0,
79000,9.1,13.6,238.3,0.0,0.0,0.0,
79100,9.3,13.1,261.7,0.0,0.0,0.0,
79200,9.8,12.7,269.5,0.0,0.0,0.0,
79300,9.8,13.2,265.6,0.0,0.0,0.0,
79400,15.3,13.6,257.8,0.0,0.0,0.0,
79500,11.4,15.1,250.0,0.0,0.0,0.0,
79600,10.9,15.4,246.1,0.0,0.0,0.0,
79700,14.4,16.0,238.3,0.0,0.0,0.0,
79800,11.1,17.7,230.5,0.0,0.0,0.0,
79900,10.3,17.9,257.8,0.0,0.0,0.0,
80000,10.5,18.0,238.3,0.0,0.0,0.0,
80100,9.6,18.0,250.0,0.0,0.0,0.0,
80200,9.6,18.1,281.3,0.0,0.0,0.0,
80300,10.1,18.0,273.4,0.0,0.0,0.0,
80400,9.5,17.7,242.2,0.0,0.0,0.0,
80500,8.3,16.2,261.7,0.0,0.0,0.0,
80600,9.1,16.2,250.0,0.0,0.0,0.0,
80700,7.8,15.7,250.0,0.0,0.0,0.0,
80800,12.3,13.5,230.5,0.0,0.0,0.0,
80900,14.5,16.5,281.3,0.0,0.0,0.0,
81000,9.0,17.1,257.8,0.0,0.0,0.0,
81100,12.7,16.9,253.9,0.0,0.0,0.0,
81200,11.8,18.6,238.3,0.0,0.0,0.0,
81300,8.9,19.1,253.9,0.0,0.0,0.0,
81400,10.4,19.2,257.8,0.0,0.0,0.0,
81500,8.6,19.2,238.3,0.0,0.0,0.0,
81600,8.2,19.0,250.0,0.0,0.0,0.0,
81700,7.4,18.8,234.4,0.0,0.0,0.0,
81800,7.8,18.8,222.7,0.0,0.0,0.0,
81900,8.4,16.0,226.6,0.0,0.0,0.0,
82000,8.8,15.2,269.5,0.0,0.0,0.0,
82100,10.8,15.2,222.7,0.0,0.0,0.0,
82200,9.4,13.2,222.7,0.0,0.0,0.0,
82300,8.9,12.5,273.4,0.0,0.0,0.0,
82400,9.8,12.4,273.4,0.0,0.0,0.0,
82500,10.1,12.4,238.3,0.0,0.0,0.0,
82600,12.3,13.8,238.3,0.0,0.0,0.0,
82700,9.0,14.8,250.0,0.0,0.0,0.0,
82800,10.3,14.9,230.5,0.0,0.0,0.0,
82900,12.7,15.5,222.7,0.0,0.0,0.0,
83000,11.4,16.9,250.0,0.0,0.0,0.0,
83100,8.5,16.9,238.3,0.0,0.0,0.0,
83200,9.1,16.8,242.2,0.0,0.0,0.0,
83300,9.5,16.5,230.5,0.0,0.0,0.0,
83400,6.9,16.6,238.3,0.0,0.0,0.0,
83500,8.2,16.4,246.1,0.0,0.0,0.0,
83600,8.6,15.3,246.1,0.0,0.0,0.0,
83700,8.4,14.4,261.7,0.0,0.0,0.0,
83800,7.9,14.4,246.1,0.0,0.0,0.0,
83900,9.1,13.7,257.8,0.0,0.0,0.0,
84000,14.1,12.0,222.7,0.0,0.0,0.0,
84100,10.8,13.3,214.8,0.0,0.0,0.0,
84200,10.4,13.5,234.4,0.0,0.0,0.0,
84300,13.6,14.8,273.4,0.0,0.0,0.0,
84400,10.9,16.8,257.8,0.0,0.0,0.0,
84500,9.6,17.0,269.5,0.0,0.0,0.0,
84600,14.1,17.3,257.8,0.0,0.0,0.0,
84700,8.9,19.4,250.0,0.0,0.0,0.0,
84800,9.9,19.5,257.8,0.0,0.0,0.0,
84900,8.4,19.7,250.0,0.0,0.0,0.0,
85000,7.8,19.6,226.6,0.0,0.0,0.0,
85100,9.3,18.8,261.7,0.0,0.0,0.0,
85200,12.2,18.7,277.3,0.0,0.0,0.0,
85300,8.6,18.0,238.3,0.0,0.0,0.0,
85400,10.1,16.0,261.7,0.0,0.0,0.0,
85500,10.8,16.0,285.2,0.0,0.0,0.0,
85600,12.3,15.8,265.6,0.0,0.0,0.0,
85700,17.5,13.4,250.0,0.0,0.0,0.0,
85800,16.2,16.2,246.1,0.0,0.0,0.0,
85900,12.0,16.9,257.8,0.0,0.0,0.0,
86000,12.2,17.3,234.4,0.0,0.0,0.0,
86100,13.6,19.4,253.9,0.0,0.0,0.0,
86200,11.9,19.6,257.8,0.0,0.0,0.0,
86300,9.8,19.4,246.1,0.0,0.0,0.0,
86400,10.1,19.6,269.5,0.0,0.0,0.0,
86500,9.8,19.6,261.7,0.0,0.0,0.0,
86600,9.7,19.6,242.2,0.0,0.0,0.0,
86700,10.1,19.5,250.0,0.0,0.0,0.0,
86800,9.2,17.2,234.4,0.0,0.0,0.0,
86900,11.1,16.5,226.6,0.0,0.0,0.0,
87000,10.8,16.2,257.8,0.0,0.0,0.0,
87100,8.9,13.7,257.8,0.0,0.0,0.0,
87200,9.4,13.3,250.0,0.0,0.0,0.0,
87300,12.3,13.5,214.8,0.0,0.0,0.0,
87400,13.0,13.5,238.3,0.0,0.0,0.0,
87500,16.5,16.0,246.1,0.0,0.0,0.0,
87600,9.9,17.1,253.9,0.0,0.0,0.0,
87700,11.0,17.1,242.2,0.0,0.0,0.0,
87800,14.8,19.2,230.5,0.0,0.0,0.0,
88000,10.0,19.6,246.1,0.0,0.0,0.0,
88100,9.6,19.5,250.0,0.0,0.0,0.0,
88200,10.3,19.6,257.8,0.0,0.0,0.0,
88300,9.8,19.4,230.5,0.0,0.0,0.0,
88400,9.0,19.4,281.3,0.0,0.0,0.0,
88500,11.1,17.3,246.1,0.0,0.0,0.0,
88600,7.4,16.2,214.8,0.0,0.0,0.0,
88700,9.6,16.1,218.8,0.0,0.0,0.0,
88800,8.5,13.6,226.6,0.0,0.0,0.0,
88900,13.9,13.6,242.2,0.0,0.0,0.0,
89000,12.3,16.1,257.8,0.0,0.0,0.0,
89100,11.7,16.4,234.4,0.0,0.0,0.0,
89200,13.5,16.5,250.0,0.0,0.0,0.0,
89300,12.2,19.1,238.3,0.0,0.0,0.0,
89400,8.6,19.3,234.4,0.0,0.0,0.0,
89500,9.4,19.3,257.8,0.0,0.0,0.0,
89600,8.9,19.3,230.5,0.0,0.0,0.0,
89700,8.4,19.4,261.7,0.0,0.0,0.0,
89800,9.0,19.2,285.2,0.0,0.0,0.0,
89900,9.1,18.6,250.0,0.0,0.0,0.0,
90000,8.7,16.4,230.5,0.0,0.0,0.0,
90100,9.1,16.1,242.2,0.0,0.0,0.0,
90200,9.6,15.9,246.1,0.0,0.0,0.0,
90300,9.1,12.8,238.3,0.0,0.0,0.0,
90400,8.9,12.3,234.4,0.0,0.0,0.0,
90500,9.8,12.3,253.9,0.0,0.0,0.0,
90600,12.9,12.3,257.8,0.0,0.0,0.0,
90700,13.4,15.7,261.7,0.0,0.0,0.0,
90800,12.1,16.4,246.1,0.0,0.0,0.0,
90900,12.5,16.6,253.9,0.0,0.0,0.0,
91000,12.1,18.5,281.3,0.0,0.0,0.0,
91100,7.6,18.8,269.5,0.0,0.0,0.0,
91200,12.7,18.7,261.7,0.0,0.0,0.0,
91300,11.3,18.9,238.3,0.0,0.0,0.0,
91400,11.1,19.1,242.2,0.0,0.0,0.0,
91500,8.0,19.2,257.8,0.0,0.0,0.0,
91600,10.9,19.0,218.8,0.0,0.0,0.0,
91700,9.3,16.3,234.4,0.0,0.0,0.0,
91800,9.9,15.7,242.2,0.0,0.0,0.0,
91900,8.6,15.5,238.3,0.0,0.0,0.0,
92000,8.5,13.2,218.8,0.0,0.0,0.0,
92100,15.7,13.4,242.2,0.0,0.0,0.0,
92200,10.8,16.6,253.9,0.0,0.0,0.0,
92300,8.5,16.4,230.5,0.0,0.0,0.0,
92400,13.2,17.0,257.8,0.0,0.0,0.0,
92500,11.1,18.4,230.5,0.0,0.0,0.0,
92600,8.9,18.5,257.8,0.0,0.0,0.0,
92700,10.2,18.7,234.4,0.0,0.0,0.0,
92800,7.4,18.8,242.2,0.0,0.0,0.0,
92900,9.0,18.7,250.0,0.0,0.0,0.0,
93000,8.3,18.9,246.1,0.0,0.0,0.0,
93100,9.5,18.4,281.3,0.0,0.0,0.0,
93200,8.4,15.7,269.5,0.0,0.0,0.0,
93300,8.2,15.5,265.6,0.0,0.0,0.0,
93400,9.3,14.6,246.1,0.0,0.0,0.0,
93500,9.5,12.9,250.0,0.0,0.0,0.0,
93600,10.9,12.9,234.4,0.0,0.0,0.0,
93700,12.4,12.9,238.3,0.0,0.0,0.0,
93800,13.9,13.2,253.9,0.0,0.0,0.0,
93900,11.3,15.5,242.2,0.0,0.0,0.0,
94000,10.8,16.1,257.8,0.0,0.0,0.0,
94100,13.3,16.0,253.9,0.0,0.0,0.0,
94200,12.6,17.2,246.1,0.0,0.0,0.0,
94300,8.3,17.8,253.9,0.0,0.0,0.0,
94400,9.8,17.9,218.8,0.0,0.0,0.0,
94500,7.9,17.9,273.4,0.0,0.0,0.0,
94600,9.3,17.7,246.1,0.0,0.0,0.0,
94700,9.9,17.5,238.3,0.0,0.0,0.0,
94800,8.6,17.4,226.6,0.0,0.0,0.0,
94900,9.6,15.2,246.1,0.0,0.0,0.0,
95000,10.6,14.6,230.5,0.0,0.0,0.0,
95100,13.3,14.8,257.8,0.0,0.0,0.0,
95200,11.4,13.9,234.4,0.0,0.0,0.0,
95300,11.8,13.6,253.9,0.0,0.0,0.0,
95400,10.9,15.6,242.2,0.0,0.0,0.0,
95500,9.7,15.7,230.5,0.0,0.0,0.0,
95600,12.4,15.6,250.0,0.0,0.0,0.0,
95700,11.2,18.1,230.5,0.0,0.0,0.0,
95800,8.5,18.2,265.6,0.0,0.0,0.0,
95900,9.4,18.4,261.7,0.0,0.0,0.0,
96000,10.5,18.4,246.1,0.0,0.0,0.0,
96100,8.1,18.4,238.3,0.0,0.0,0.0,
96200,9.4,18.0,242.2,0.0,0.0,0.0,
96300,10.4,17.8,230.5,0.0,0.0,0.0,
96400,9.0,16.3,238.3,0.0,0.0,0.0,
96500,9.3,16.2,253.9,0.0,0.0,0.0,
96600,7.6,16.3,250.0,0.0,0.0,0.0,
96700,5.8,13.3,250.0,0.0,0.0,0.0,
96800,8.8,12.9,242.2,0.0,0.0,0.0,
96900,8.5,12.7,222.7,0.0,0.0,0.0,
97000,10.1,12.8,234.4,0.0,0.0,0.0,
97100,11.8,15.2,230.5,0.0,0.0,0.0,
97200,11.3,16.1,242.2,0.0,0.0,0.0,
97300,14.5,16.1,253.9,0.0,0.0,0.0,
97400,12.6,18.3,253.9,0.0,0.0,0.0,
97500,12.0,19.1,257.8,0.0,0.0,0.0,
97600,12.0,19.5,257.8,0.0,0.0,0.0,
97700,9.7,19.8,257.8,0.0,0.0,0.0,
97800,10.3,19.8,253.9,0.0,0.0,0.0,
98000,9.6,20.3,210.9,0.0,0.0,0.0,
98100,12.0,18.7,289.1,0.0,0.0,0.0,
98200,13.2,18.1,250.0,0.0,0.0,0.0,
98300,10.1,18.2,257.8,0.0,0.0,0.0,
98400,9.5,16.0,238.3,0.0,0.0,0.0,
98500,13.9,15.1,246.1,0.0,0.0,0.0,
98600,13.9,17.8,257.8,0.0,0.0,0.0,
98700,10.8,17.9,250.0,0.0,0.0,0.0,
98800,14.4,18.6,246.1,0.0,0.0,0.0,
98900,13.1,20.0,257.8,0.0,0.0,0.0,
99000,13.1,20.3,257.8,0.0,0.0,0.0,
99100,9.2,20.3,257.8,0.0,0.0,0.0,
99200,8.2,20.2,230.5,0.0,0.0,0.0,
99300,8.5,20.0,230.5,0.0,0.0,0.0,
99400,8.1,19.9,261.7,0.0,0.0,0.0,
99500,10.4,19.8,261.7,0.0,0.0,0.0,
99600,12.4,17.0,250.0,0.0,0.0,0.0,
99700,11.0,17.0,277.3,0.0,0.0,0.0,
99800,13.1,16.5,273.4,0.0,0.0,0.0,
99900,11.0,14.5,261.7,0.0,0.0,0.0,
100000,10.5,14.1,226.6,0.0,0.0,0.0,
100100,11.4,14.0,234.4,0.0,0.0,0.0,
100200,12.2,14.1,230.5,0.0,0.0,0.0,
100300,13.5,16.2,234.4,0.0,0.0,0.0,
100400,11.5,16.8,250.0,0.0,0.0,0.0,
100500,12.4,17.0,257.8,0.0,0.0,0.0,
100600,13.8,18.2,253.9,0.0,0.0,0.0,
100700,11.2,19.0,253.9,0.0,0.0,0.0,
100800,8.6,18.9,265.6,0.0,0.0,0.0,
100900,10.6,18.7,234.4,0.0,0.0,0.0,
101000,9.3,18.6,253.9,0.0,0.0,0.0,
101100,8.2,18.5,250.0,0.0,0.0,0.0,
101200,9.1,18.3,265.6,0.0,0.0,0.0,
101300,7.5,16.3,257.8,0.0,0.0,0.0,
101400,6.1,15.5,250.0,0.0,0.0,0.0,
101500,8.3,15.3,257.8,0.0,0.0,0.0,
101600,8.6,13.5,238.3,0.0,0.0,0.0,
101700,15.5,12.1,246.1,0.0,0.0,0.0,
101800,10.6,14.3,257.8,0.0,0.0,0.0,
101900,8.4,14.4,253.9,0.0,0.0,0.0,
102000,13.6,16.2,257.8,0.0,0.0,0.0,
102100,12.6,17.5,257.8,0.0,0.0,0.0,
102200,11.4,17.7,257.8,0.0,0.0,0.0,
102300,10.1,18.8,246.1,0.0,0.0,0.0,
102400,11.2,19.6,250.0,0.0,0.0,0.0,
102500,9.1,20.0,246.1,0.0,0.0,0.0,
102600,11.2,20.0,253.9,0.0,0.0,0.0,
102700,10.1,20.0,246.1,0.0,0.0,0.0,
102800,9.3,19.1,246.1,0.0,0.0,0.0,
102900,9.3,18.8,296.9,0.0,0.0,0.0,
103000,8.9,17.3,253.9,0.0,0.0,0.0,
103100,11.4,16.1,234.4,0.0,0.0,0.0,
103200,10.0,16.2,261.7,0.0,0.0,0.0,
103300,12.6,15.2,246.1,0.0,0.0,0.0,
103400,19.6,14.8,250.0,0.0,0.0,0.0,
103500,15.3,18.2,269.5,0.0,0.0,0.0,
103600,9.1,18.6,253.9,0.0,0.0,0.0,
103700,11.4,19.1,242.2,0.0,0.0,0.0,
103800,11.7,20.4,242.2,0.0,0.0,0.0,
103900,9.1,20.7,234.4,0.0,0.0,0.0,
104000,7.1,20.7,238.3,0.0,0.0,0.0,
104100,7.3,20.8,234.4,0.0,0.0,0.0,
104200,8.7,20.4,234.4,0.0,0.0,0.0,
104300,12.2,20.4,246.1,0.0,0.0,0.0,
104400,11.8,20.4,246.1,0.0,0.0,0.0,
104500,9.5,17.2,250.0,0.0,0.0,0.0,
104600,10.2,17.0,269.5,0.0,0.0,0.0,
104700,11.9,16.6,293.0,0.0,0.0,0.0,
104800,10.5,14.3,273.4,0.0,0.0,0.0,
104900,11.3,14.3,257.8,0.0,0.0,0.0,
105000,11.4,14.8,253.9,0.0,0.0,0.0,
105100,16.0,14.9,246.1,0.0,0.0,0.0,
105200,9.7,16.3,230.5,0.0,0.0,0.0,
105300,9.6,16.7,250.0,0.0,0.0,0.0,
105400,11.0,16.6,253.9,0.0,0.0,0.0,
105500,12.2,18.1,238.3,0.0,0.0,0.0,
105600,12.9,18.2,250.0,0.0,0.0,0.0,
105700,11.8,18.5,253.9,0.0,0.0,0.0,
105800,9.3,18.4,253.9,0.0,0.0,0.0,
105900,9.5,18.1,250.0,0.0,0.0,0.0,
106000,10.3,17.7,261.7,0.0,0.0,0.0,
106100,9.5,17.6,281.3,0.0,0.0,0.0,
106200,9.3,16.5,238.3,0.0,0.0,0.0,
106300,11.5,15.8,281.3,0.0,0.0,0.0,
106400,10.2,15.7,234.4,0.0,0.0,0.0,
106500,11.3,13.8,238.3,0.0,0.0,0.0,
106600,14.1,15.5,265.6,0.0,0.0,0.0,
106700,10.8,15.9,269.5,0.0,0.0,0.0,
106800,10.9,16.0,257.8,0.0,0.0,0.0,
106900,13.4,16.9,218.8,0.0,0.0,0.0,
107000,11.0,18.2,242.2,0.0,0.0,0.0,
107100,10.3,18.3,226.6,0.0,0.0,0.0,
107200,10.0,18.5,222.7,0.0,0.0,0.0,
107300,7.8,18.6,261.7,0.0,0.0,0.0,
107400,7.7,18.4,250.0,0.0,0.0,0.0,
107500,8.1,18.3,250.0,0.0,0.0,0.0,
107600,8.6,16.6,257.8,0.0,0.0,0.0,
107700,8.7,15.8,246.1,0.0,0.0,0.0,
107800,8.1,15.3,257.8,0.0,0.0,0.0,
108000,8.4,12.5,242.2,0.0,0.0,0.0,
108100,9.1,12.3,250.0,0.0,0.0,0.0,
108200,10.0,12.0,281.3,0.0,0.0,0.0,
108300,12.0,12.9,281.3,0.0,0.0,0.0,
108400,11.7,15.4,226.6,0.0,0.0,0.0,
108500,11.8,15.8,226.6,0.0,0.0,0.0,
108600,14.7,16.1,226.6,0.0,0.0,0.0,
108700,11.1,17.9,238.3,0.0,0.0,0.0,
108800,10.6,18.3,257.8,0.0,0.0,0.0,
108900,11.6,18.3,250.0,0.0,0.0,0.0,
109000,9.7,18.7,289.1,0.0,0.0,0.0,
109100,11.4,18.7,234.4,0.0,0.0,0.0,
109200,8.5,18.9,242.2,0.0,0.0,0.0,
109300,8.9,18.2,261.7,0.0,0.0,0.0,
109400,8.8,16.3,246.1,0.0,0.0,0.0,
109500,7.6,15.8,253.9,0.0,0.0,0.0,
109600,8.6,15.5,273.4,0.0,0.0,0.0,
109700,14.3,13.2,289.1,0.0,0.0,0.0,
109800,12.4,14.7,265.6,0.0,0.0,0.0,
109900,8.9,15.4,261.7,0.0,0.0,0.0,
110000,10.8,15.2,242.2,0.0,0.0,0.0,
110100,12.4,16.9,234.4,0.0,0.0,0.0,
110200,11.4,17.2,257.8,0.0,0.0,0.0,
110300,10.3,17.4,253.9,0.0,0.0,0.0,
110400,8.2,17.4,242.2,0.0,0.0,0.0,
110500,8.4,17.4,226.6,0.0,0.0,0.0,
110600,8.7,17.4,226.6,0.0,0.0,0.0,
110700,8.9,17.7,250.0,0.0,0.0,0.0,
110800,9.2,15.9,273.4,0.0,0.0,0.0,
110900,9.9,15.3,246.1,0.0,0.0,0.0,
111000,8.3,15.3,242.2,0.0,0.0,0.0,
111100,8.9,13.2,230.5,0.0,0.0,0.0,
111200,9.7,12.5,253.9,0.0,0.0,0.0,
111300,8.0,12.3,257.8,0.0,0.0,0.0,
111400,10.0,12.3,214.8,0.0,0.0,0.0,
111500,16.6,12.9,218.8,0.0,0.0,0.0,
111600,12.4,16.3,238.3,0.0,0.0,0.0,
111700,8.4,16.5,242.2,0.0,0.0,0.0,
111800,16.8,17.1,281.3,0.0,0.0,0.0,
111900,12.6,19.2,257.8,0.0,0.0,0.0,
112000,8.1,19.5,257.8,0.0,0.0,0.0,
112100,10.5,19.6,246.1,0.0,0.0,0.0,
112200,8.3,19.8,250.0,0.0,0.0,0.0,
112300,7.8,19.7,238.3,0.0,0.0,0.0,
112400,9.4,19.7,253.9,0.0,0.0,0.0,
112500,9.2,19.4,242.2,0.0,0.0,0.0,
112600,8.1,16.7,253.9,0.0,0.0,0.0,
112700,8.6,16.3,242.2,0.0,0.0,0.0,
112800,8.9,15.9,234.4,0.0,0.0,0.0,
112900,9.9,13.3,234.4,0.0,0.0,0.0,
113000,14.9,15.8,238.3,0.0,0.0,0.0,
113100,10.1,17.0,242.2,0.0,0.0,0.0,
113200,14.3,16.8,234.4,0.0,0.0,0.0,
113300,13.5,18.8,261.7,0.0,0.0,0.0,
113400,10.0,20.1,253.9,0.0,0.0,0.0,
113500,12.4,20.2,253.9,0.0,0.0,0.0,
113600,8.5,20.5,234.4,0.0,0.0,0.0,
113700,8.2,20.5,230.5,0.0,0.0,0.0,
113800,11.4,20.3,238.3,0.0,0.0,0.0,
113900,10.7,20.3,234.4,0.0,0.0,0.0,
114000,8.6,18.3,257.8,0.0,0.0,0.0,
114100,10.5,17.2,238.3,0.0,0.0,0.0,
114200,8.8,17.3,230.5,0.0,0.0,0.0,
114300,9.5,15.2,230.5,0.0,0.0,0.0,
114400,8.7,13.3,230.5,0.0,0.0,0.0,
114500,7.7,13.2,234.4,0.0,0.0,0.0,
114600,12.4,12.7,242.2,0.0,0.0,0.0,
114700,12.4,13.8,234.4,0.0,0.0,0.0,
114800,13.3,16.6,257.8,0.0,0.0,0.0,
114900,10.1,17.0,261.7,0.0,0.0,0.0,
115000,13.9,16.8,257.8,0.0,0.0,0.0,
115100,11.0,19.4,257.8,0.0,0.0,0.0,
115200,8.1,19.4,246.1,0.0,0.0,0.0,
115300,7.7,19.7,246.1,0.0,0.0,0.0,
115400,10.3,19.6,242.2,0.0,0.0,0.0,
115500,9.0,19.6,222.7,0.0,0.0,0.0,
115600,7.5,19.6,246.1,0.0,0.0,0.0,
115700,7.1,18.9,242.2,0.0,0.0,0.0,
115800,10.1,16.4,253.9,0.0,0.0,0.0,
115900,7.3,15.9,281.3,0.0,0.0,0.0,
116000,8.5,15.9,265.6,0.0,0.0,0.0,
116100,7.9,12.4,261.7,0.0,0.0,0.0,
116200,14.4,14.1,218.8,0.0,0.0,0.0,
116300,13.3,15.6,261.7,0.0,0.0,0.0,
116400,10.3,15.9,234.4,0.0,0.0,0.0,
116500,12.2,19.1,261.7,0.0,0.0,0.0,
116600,10.9,19.6,253.9,0.0,0.0,0.0,
116700,10.6,19.7,261.7,0.0,0.0,0.0,
116800,8.3,21.8,230.5,0.0,0.0,0.0,
116900,8.2,21.6,246.1,0.0,0.0,0.0,
117000,8.0,21.5,238.3,0.0,0.0,0.0,
117100,9.6,21.5,218.8,0.0,0.0,0.0,
117200,9.2,20.4,234.4,0.0,0.0,0.0,
117300,7.9,19.1,218.8,0.0,0.0,0.0,
117400,8.8,18.8,250.0,0.0,0.0,0.0,
117500,8.2,15.5,261.7,0.0,0.0,0.0,
117600,8.1,14.8,257.8,0.0,0.0,0.0,
117700,9.0,14.7,261.7,0.0,0.0,0.0,
117800,7.2,11.6,257.8,0.0,0.0,0.0,
118000,10.5,15.9,253.9,0.0,0.0,0.0,
118100,8.8,16.2,257.8,0.0,0.0,0.0,
118200,15.1,17.5,253.9,0.0,0.0,0.0,
118300,9.3,19.3,250.0,0.0,0.0,0.0,
118400,9.2,19.3,257.8,0.0,0.0,0.0,
118500,7.6,19.3,242.2,0.0,0.0,0.0,
118600,7.5,19.3,242.2,0.0,0.0,0.0,
118700,8.7,19.1,289.1,0.0,0.0,0.0,
118800,6.8,19.1,257.8,0.0,0.0,0.0,
118900,9.7,18.4,253.9,0.0,0.0,0.0,
119000,8.1,16.0,226.6,0.0,0.0,0.0,
119100,11.4,15.8,250.0,0.0,0.0,0.0,
119200,7.9,14.5,261.7,0.0,0.0,0.0,
119300,6.5,11.5,261.7,0.0,0.0,0.0,
119400,9.8,12.4,242.2,0.0,0.0,0.0,
119500,7.9,12.6,253.9,0.0,0.0,0.0,
119600,14.1,12.9,238.3,0.0,0.0,0.0,
119700,8.2,16.8,250.0,0.0,0.0,0.0,
119800,7.0,16.8,253.9,0.0,0.0,0.0,
119900,15.6,16.9,242.2,0.0,0.0,0.0,
120000,10.4,19.2,261.7,0.0,0.0,0.0,
120100,8.3,19.3,253.9,0.0,0.0,0.0,
120200,8.0,19.2,250.0,0.0,0.0,0.0,
120300,8.6,19.3,242.2,0.0,0.0,0.0,
120400,8.5,18.7,265.6,0.0,0.0,0.0,
120500,9.2,18.5,261.7,0.0,0.0,0.0,
120600,7.6,18.4,257.8,0.0,0.0,0.0,
120700,7.5,15.1,250.0,0.0,0.0,0.0,
120800,9.2,14.9,269.5,0.0,0.0,0.0,
120900,7.7,15.0,253.9,0.0,0.0,0.0,
121000,8.4,11.6,273.4,0.0,0.0,0.0,
121100,15.7,13.5,250.0,0.0,0.0,0.0,
121200,9.7,15.6,253.9,0.0,0.0,0.0,
121300,11.2,15.8,253.9,0.0,0.0,0.0,
121400,13.3,18.6,246.1,0.0,0.0,0.0,
121500,9.5,19.7,242.2,0.0,0.0,0.0,
121600,7.7,19.9,253.9,0.0,0.0,0.0,
121700,7.4,19.8,246.1,0.0,0.0,0.0,
121800,8.0,19.9,222.7,0.0,0.0,0.0,
121900,6.9,19.8,250.0,0.0,0.0,0.0,
122000,7.9,19.8,238.3,0.0,0.0,0.0,
122100,7.2,18.5,265.6,0.0,0.0,0.0,
122200,8.2,16.6,250.0,0.0,0.0,0.0,
122300,8.7,16.4,230.5,0.0,0.0,0.0,
122400,12.8,13.3,226.6,0.0,0.0,0.0,
122500,10.8,12.0,234.4,0.0,0.0,0.0,
122600,11.9,12.1,257.8,0.0,0.0,0.0,
122700,11.2,13.1,253.9,0.0,0.0,0.0,
122800,16.0,13.8,250.0,0.0,0.0,0.0,
122900,13.9,15.7,242.2,0.0,0.0,0.0,
123000,11.7,16.5,234.4,0.0,0.0,0.0,
123100,14.4,17.7,230.5,0.0,0.0,0.0,
123200,10.2,19.0,234.4,0.0,0.0,0.0,
123300,12.1,19.3,238.3,0.0,0.0,0.0,
123400,10.6,19.5,273.4,0.0,0.0,0.0,
123500,9.5,19.4,234.4,0.0,0.0,0.0,
123600,10.4,19.4,234.4,0.0,0.0,0.0,
123700,9.2,19.1,269.5,0.0,0.0,0.0,
123800,11.7,18.6,253.9,0.0,0.0,0.0,
123900,9.0,17.3,238.3,0.0,0.0,0.0,
124000,11.3,16.9,207.0,0.0,0.0,0.0,
124100,8.3,15.9,253.9,0.0,0.0,0.0,
124200,18.4,14.4,265.6,0.0,0.0,0.0,
124300,13.6,19.0,265.6,0.0,0.0,0.0,
124400,12.4,19.4,257.8,0.0,0.0,0.0,
124500,21.2,19.6,226.6,0.0,0.0,0.0,
124600,13.4,22.1,222.7,0.0,0.0,0.0,
124700,12.6,22.4,257.8,0.0,0.0,0.0,
124800,11.6,22.6,250.0,0.0,0.0,0.0,
124900,10.9,22.6,242.2,0.0,0.0,0.0,
125000,7.6,22.7,285.2,0.0,0.0,0.0,
125100,9.0,22.5,273.4,0.0,0.0,0.0,
125200,11.6,22.6,250.0,0.0,0.0,0.0,
125300,9.6,18.8,250.0,0.0,0.0,0.0,
125400,11.2,18.2,265.6,0.0,0.0,0.0,
125500,9.3,18.1,269.5,0.0,0.0,0.0,
125600,9.9,14.7,246.1,0.0,0.0,0.0,
125700,12.0,14.2,250.0,0.0,0.0,0.0,
125800,13.2,14.3,246.1,0.0,0.0,0.0,
125900,12.5,14.6,246.1,0.0,0.0,0.0,
126000,16.4,15.7,242.2,0.0,0.0,0.0,
126100,12.9,18.4,250.0,0.0,0.0,0.0,
126200,12.7,18.7,253.9,0.0,0.0,0.0,
126300,16.9,20.2,246.1,0.0,0.0,0.0,
126400,10.9,21.8,261.7,0.0,0.0,0.0,
126500,10.8,21.6,253.9,0.0,0.0,0.0,
126600,9.9,21.8,273.4,0.0,0.0,0.0,
126700,10.0,21.7,281.3,0.0,0.0,0.0,
126800,9.6,21.5,238.3,0.0,0.0,0.0,
126900,9.8,21.1,238.3,0.0,0.0,0.0,
127000,9.9,20.1,257.8,0.0,0.0,0.0,
127100,8.7,17.7,253.9,0.0,0.0,0.0,
127200,8.0,17.3,246.1,0.0,0.0,0.0,
127300,9.7,15.2,261.7,0.0,0.0,0.0,
127400,11.0,13.1,265.6,0.0,0.0,0.0,
127500,11.8,15.7,253.9,0.0,0.0,0.0,
127600,14.9,15.7,281.3,0.0,0.0,0.0,
127700,15.9,19.5,250.0,0.0,0.0,0.0,
127800,13.5,20.6,222.7,0.0,0.0,0.0,
128000,12.1,22.0,242.2,0.0,0.0,0.0,
128100,10.5,22.8,250.0,0.0,0.0,0.0,
128200,9.6,23.0,242.2,0.0,0.0,0.0,
128300,9.6,23.0,285.2,0.0,0.0,0.0,
128400,7.7,22.9,242.2,0.0,0.0,0.0,
128500,8.3,21.0,234.4,0.0,0.0,0.0,
128600,9.8,20.8,253.9,0.0,0.0,0.0,
128700,9.3,17.3,269.5,0.0,0.0,0.0,
128800,10.7,15.8,226.6,0.0,0.0,0.0,
128900,9.2,15.6,238.3,0.0,0.0,0.0,
129000,9.4,13.9,234.4,0.0,0.0,0.0,
129100,16.5,14.3,246.1,0.0,0.0,0.0,
129200,10.7,15.9,253.9,0.0,0.0,0.0,
129300,9.3,16.2,238.3,0.0,0.0,0.0,
129400,12.7,17.8,238.3,0.0,0.0,0.0,
129500,11.0,18.5,230.5,0.0,0.0,0.0,
129600,10.0,18.7,226.6,0.0,0.0,0.0,
129700,9.3,18.8,230.5,0.0,0.0,0.0,
129800,9.3,18.8,242.2,0.0,0.0,0.0,
129900,8.9,18.7,269.5,0.0,0.0,0.0,
130000,9.4,18.6,269.5,0.0,0.0,0.0,
130100,11.2,17.5,234.4,0.0,0.0,0.0,
130200,9.8,16.0,242.2,0.0,0.0,0.0,
130300,8.9,15.5,242.2,0.0,0.0,0.0,
130400,8.3,13.8,242.2,0.0,0.0,0.0,
130500,9.9,12.9,222.7,0.0,0.0,0.0,
130600,10.2,12.8,238.3,0.0,0.0,0.0,
130700,8.8,13.1,281.3,0.0,0.0,0.0,
130800,16.3,13.6,253.9,0.0,0.0,0.0,
130900,12.5,15.5,257.8,0.0,0.0,0.0,
131000,11.6,15.7,257.8,0.0,0.0,0.0,
131100,12.7,16.6,226.6,0.0,0.0,0.0,
131200,11.8,18.2,242.2,0.0,0.0,0.0,
131300,9.1,18.5,257.8,0.0,0.0,0.0,
131400,8.2,18.5,253.9,0.0,0.0,0.0,
131500,11.0,18.6,234.4,0.0,0.0,0.0,
131600,8.8,18.8,234.4,0.0,0.0,0.0,
131700,9.8,18.5,253.9,0.0,0.0,0.0,
131800,11.2,18.3,234.4,0.0,0.0,0.0,
131900,9.5,16.8,234.4,0.0,0.0,0.0,
132000,7.9,16.6,242.2,0.0,0.0,0.0,
132100,8.4,15.2,257.8,0.0,0.0,0.0,
132200,15.0,13.3,250.0,0.0,0.0,0.0,
132300,12.5,15.0,257.8,0.0,0.0,0.0,
132400,11.7,15.4,250.0,0.0,0.0,0.0,
132500,17.0,15.6,226.6,0.0,0.0,0.0,
132600,14.5,17.5,234.4,0.0,0.0,0.0,
132700,10.4,18.1,253.9,0.0,0.0,0.0,
132800,10.6,18.6,230.5,0.0,0.0,0.0,
132900,11.5,19.3,242.2,0.0,0.0,0.0,
133000,10.0,19.4,250.0,0.0,0.0,0.0,
133100,10.8,19.7,246.1,0.0,0.0,0.0,
133200,11.1,19.9,242.2,0.0,0.0,0.0,
133300,8.5,18.6,265.6,0.0,0.0,0.0,
133400,11.0,18.1,250.0,0.0,0.0,0.0,
133500,10.9,18.0,265.6,0.0,0.0,0.0,
133600,10.7,16.1,281.3,0.0,0.0,0.0,
133700,9.2,15.8,257.8,0.0,0.0,0.0,
133800,9.3,15.2,273.4,0.0,0.0,0.0,
133900,14.6,14.2,265.6,0.0,0.0,0.0,
134000,12.2,16.5,250.0,0.0,0.0,0.0,
134100,10.5,17.0,242.2,0.0,0.0,0.0,
134200,15.7,16.9,257.8,0.0,0.0,0.0,
134300,13.0,18.8,250.0,0.0,0.0,0.0,
134400,12.0,19.4,265.6,0.0,0.0,0.0,
134500,11.2,19.3,257.8,0.0,0.0,0.0,
134600,11.2,19.3,246.1,0.0,0.0,0.0,
134700,12.5,19.3,234.4,0.0,0.0,0.0,
134800,12.3,19.5,230.5,0.0,0.0,0.0,
134900,10.5,19.7,242.2,0.0,0.0,0.0,
135000,11.4,17.8,253.9,0.0,0.0,0.0,
135100,11.4,17.2,250.0,0.0,0.0,0.0,
135200,12.6,17.2,265.6,0.0,0.0,0.0,
135300,10.1,15.1,261.7,0.0,0.0,0.0,
135400,8.7,14.4,250.0,0.0,0.0,0.0,
135500,12.1,14.5,246.1,0.0,0.0,0.0,
135600,16.4,15.3,246.1,0.0,0.0,0.0,
135700,13.7,18.0,230.5,0.0,0.0,0.0,
135800,14.8,17.9,257.8,0.0,0.0,0.0,
135900,16.9,18.8,281.3,0.0,0.0,0.0,
136000,14.0,20.6,250.0,0.0,0.0,0.0,
136100,10.5,20.9,257.8,0.0,0.0,0.0,
136200,11.2,20.9,269.5,0.0,0.0,0.0,
136300,10.7,20.7,257.8,0.0,0.0,0.0,
136400,10.9,20.8,234.4,0.0,0.0,0.0,
136500,10.5,20.8,242.2,0.0,0.0,0.0,
136600,11.1,20.1,246.1,0.0,0.0,0.0,
136700,9.7,17.9,218.8,0.0,0.0,0.0,
136800,10.1,17.6,222.7,0.0,0.0,0.0,
136900,10.3,16.6,230.5,0.0,0.0,0.0,
137000,10.7,14.3,222.7,0.0,0.0,0.0,
137100,11.8,14.8,253.9,0.0,0.0,0.0,
137200,14.6,15.2,253.9,0.0,0.0,0.0,
137300,14.6,16.6,238.3,0.0,0.0,0.0,
137400,11.1,18.6,234.4,0.0,0.0,0.0,
137500,12.0,18.6,234.4,0.0,0.0,0.0,
137600,16.2,20.0,226.6,0.0,0.0,0.0,
137700,10.8,21.0,234.4,0.0,0.0,0.0,
137800,11.4,21.1,250.0,0.0,0.0,0.0,
138000,11.0,21.3,234.4,0.0,0.0,0.0,
138100,10.7,20.6,226.6,0.0,0.0,0.0,
138200,11.4,20.5,265.6,0.0,0.0,0.0,
138300,9.5,19.4,261.7,0.0,0.0,0.0,
138400,10.8,17.4,261.7,0.0,0.0,0.0,
138500,10.5,17.4,246.1,0.0,0.0,0.0,
138600,11.0,15.9,234.4,0.0,0.0,0.0,
138700,14.0,16.9,261.7,0.0,0.0,0.0,
138800,12.4,17.6,261.7,0.0,0.0,0.0,
138900,13.5,17.7,261.7,0.0,0.0,0.0,
139000,14.3,19.5,246.1,0.0,0.0,0.0,
139100,10.0,19.9,261.7,0.0,0.0,0.0,
139200,11.5,19.9,257.8,0.0,0.0,0.0,
139300,11.2,20.9,230.5,0.0,0.0,0.0,
139400,9.3,21.0,238.3,0.0,0.0,0.0,
139500,9.8,20.9,261.7,0.0,0.0,0.0,
139600,10.6,20.7,277.3,0.0,0.0,0.0,
139700,11.3,18.8,265.6,0.0,0.0,0.0,
139800,10.3,18.1,238.3,0.0,0.0,0.0,
139900,11.2,18.0,257.8,0.0,0.0,0.0,
140000,10.8,16.0,234.4,0.0,0.0,0.0,
140100,9.9,15.4,222.7,0.0,0.0,0.0,
140200,12.3,15.3,234.4,0.0,0.0,0.0,
140300,13.1,14.8,230.5,0.0,0.0,0.0,
140400,13.5,17.6,234.4,0.0,0.0,0.0,
140500,13.5,18.4,257.8,0.0,0.0,0.0,
140600,15.1,18.5,257.8,0.0,0.0,0.0,
140700,13.9,19.7,246.1,0.0,0.0,0.0,
140800,11.3,20.5,253.9,0.0,0.0,0.0,
140900,10.5,20.4,246.1,0.0,0.0,0.0,
141000,12.5,20.3,277.3,0.0,0.0,0.0,
141100,10.4,20.3,269.5,0.0,0.0,0.0,
141200,10.2,20.4,269.5,0.0,0.0,0.0,
141300,10.8,19.7,238.3,0.0,0.0,0.0,
141400,13.0,17.3,261.7,0.0,0.0,0.0,
141500,9.4,16.7,261.7,0.0,0.0,0.0,
141600,10.9,16.4,242.2,0.0,0.0,0.0,
141700,10.6,15.1,246.1,0.0,0.0,0.0,
141800,10.0,14.0,257.8,0.0,0.0,0.0,
141900,11.8,14.0,273.4,0.0,0.0,0.0,
142000,12.4,14.3,265.6,0.0,0.0,0.0,
142100,13.8,16.7,257.8,0.0,0.0,0.0,
142200,13.3,17.2,253.9,0.0,0.0,0.0,
142300,13.1,17.7,246.1,0.0,0.0,0.0,
142400,13.5,18.5,222.7,0.0,0.0,0.0,
142500,9.2,19.2,250.0,0.0,0.0,0.0,
142600,11.7,19.4,257.8,0.0,0.0,0.0,
142700,12.7,19.2,234.4,0.0,0.0,0.0,
142800,11.4,19.4,253.9,0.0,0.0,0.0,
142900,9.2,19.5,269.5,0.0,0.0,0.0,
143000,10.3,19.2,265.6,0.0,0.0,0.0,
143100,9.9,17.2,289.1,0.0,0.0,0.0,
143200,8.9,16.5,261.7,0.0,0.0,0.0,
143300,9.7,15.9,253.9,0.0,0.0,0.0,
143400,8.6,14.8,261.7,0.0,0.0,0.0,
143500,14.3,14.3,246.1,0.0,0.0,0.0,
143600,11.0,15.1,265.6,0.0,0.0,0.0,
143700,10.1,15.3,257.8,0.0,0.0,0.0,
143800,12.8,16.6,257.8,0.0,0.0,0.0,
143900,12.5,17.0,257.8,0.0,0.0,0.0,
144000,10.6,17.4,257.8,0.0,0.0,0.0,
144100,9.2,17.9,230.5,0.0,0.0,0.0,
144200,12.5,18.0,246.1,0.0,0.0,0.0,
144300,11.0,18.2,253.9,0.0,0.0,0.0,
144400,10.4,18.3,242.2,0.0,0.0,0.0,
144500,11.1,17.9,214.8,0.0,0.0,0.0,
144600,9.5,17.1,273.4,0.0,0.0,0.0,
144700,9.4,16.8,273.4,0.0,0.0,0.0,
144800,9.3,15.2,273.4,0.0,0.0,0.0,
144900,9.1,14.6,277.3,0.0,0.0,0.0,
145000,9.0,14.4,261.7,0.0,0.0,0.0,
145100,9.4,13.6,250.0,0.0,0.0,0.0,
145200,14.1,14.2,230.5,0.0,0.0,0.0,
145300,9.7,15.0,234.4,0.0,0.0,0.0,
145400,10.6,15.0,253.9,0.0,0.0,0.0,
145500,10.3,15.5,250.0,0.0,0.0,0.0,
145600,11.0,16.0,257.8,0.0,0.0,0.0,
145700,9.1,16.2,226.6,0.0,0.0,0.0,
145800,10.4,16.3,246.1,0.0,0.0,0.0,
145900,9.8,16.1,242.2,0.0,0.0,0.0,
146000,8.3,16.0,238.3,0.0,0.0,0.0,
146100,10.5,16.1,218.8,0.0,0.0,0.0,
146200,10.6,15.6,222.7,0.0,0.0,0.0,
146300,10.9,14.7,230.5,0.0,0.0,0.0,
146400,10.7,14.9,222.7,0.0,0.0,0.0,
146500,9.7,14.3,234.4,0.0,0.0,0.0,
146600,9.3,13.7,246.1,0.0,0.0,0.0,
146700,10.3,13.7,238.3,0.0,0.0,0.0,
146800,10.2,13.4,246.1,0.0,0.0,0.0,
146900,15.8,14.1,246.1,0.0,0.0,0.0,
147000,12.4,15.7,273.4,0.0,0.0,0.0,
147100,10.6,15.9,269.5,0.0,0.0,0.0,
147200,10.6,16.0,265.6,0.0,0.0,0.0,
147300,9.4,16.8,273.4,0.0,0.0,0.0,
147400,9.1,16.7,285.2,0.0,0.0,0.0,
147500,9.4,16.7,257.8,0.0,0.0,0.0,
147600,11.6,16.6,265.6,0.0,0.0,0.0,
147700,8.7,16.9,238.3,0.0,0.0,0.0,
147800,9.6,16.9,246.1,0.0,0.0,0.0,
148000,9.0,15.1,246.1,0.0,0.0,0.0,
148100,10.1,14.9,242.2,0.0,0.0,0.0,
148200,10.0,14.6,226.6,0.0,0.0,0.0,
148300,14.2,13.6,246.1,0.0,0.0,0.0,
148400,12.1,16.0,246.1,0.0,0.0,0.0,
148500,10.5,16.2,250.0,0.0,0.0,0.0,
148600,16.7,16.3,253.9,0.0,0.0,0.0,
148700,13.6,17.5,242.2,0.0,0.0,0.0,
148800,10.9,17.8,238.3,0.0,0.0,0.0,
148900,10.5,18.2,250.0,0.0,0.0,0.0,
149000,10.7,18.1,273.4,0.0,0.0,0.0,
149100,10.4,18.0,253.9,0.0,0.0,0.0,
149200,13.0,18.2,261.7,0.0,0.0,0.0,
149300,10.4,18.3,257.8,0.0,0.0,0.0,
149400,9.8,16.2,246.1,0.0,0.0,0.0,
149500,10.7,16.0,250.0,0.0,0.0,0.0,
149600,10.7,16.1,281.3,0.0,0.0,0.0,
149700,12.2,14.6,250.0,0.0,0.0,0.0,
149800,11.8,14.3,250.0,0.0,0.0,0.0,
149900,11.4,14.4,250.0,0.0,0.0,0.0,
150000,12.1,14.5,253.9,0.0,0.0,0.0,
150100,11.5,15.8,238.3,0.0,0.0,0.0,
150200,11.5,16.2,253.9,0.0,0.0,0.0,
150300,17.0,16.2,257.8,0.0,0.0,0.0,
150400,12.6,17.7,253.9,0.0,0.0,0.0,
150500,9.3,18.0,238.3,0.0,0.0,0.0,
150600,10.8,17.8,257.8,0.0,0.0,0.0,
150700,13.8,17.8,269.5,0.0,0.0,0.0,
150800,12.9,18.0,242.2,0.0,0.0,0.0,
150900,12.1,17.8,269.5,0.0,0.0,0.0,
151000,10.0,17.9,277.3,0.0,0.0,0.0,
151100,9.7,16.7,253.9,0.0,0.0,0.0,
151200,7.5,16.0,242.2,0.0,0.0,0.0,
151300,10.1,15.7,210.9,0.0,0.0,0.0,
151400,9.7,14.3,261.7,0.0,0.0,0.0,
151500,11.0,13.9,269.5,0.0,0.0,0.0,
151600,9.4,14.3,257.8,0.0,0.0,0.0,
151700,12.8,13.9,250.0,0.0,0.0,0.0,
151800,10.2,14.7,257.8,0.0,0.0,0.0,
151900,10.2,14.5,261.7,0.0,0.0,0.0,
152000,10.9,14.3,250.0,0.0,0.0,0.0,
152100,10.4,14.9,230.5,0.0,0.0,0.0,
152200,10.2,15.4,234.4,0.0,0.0,0.0,
152300,8.4,15.4,226.6,0.0,0.0,0.0,
152400,12.1,15.4,214.8,0.0,0.0,0.0,
152500,7.0,15.5,261.7,0.0,0.0,0.0,
152600,9.2,14.9,257.8,0.0,0.0,0.0,
152700,10.4,15.1,246.1,0.0,0.0,0.0,
152800,10.2,14.1,246.1,0.0,0.0,0.0,
152900,9.5,13.9,253.9,0.0,0.0,0.0,
153000,9.7,13.8,234.4,0.0,0.0,0.0,
153100,9.5,13.2,253.9,0.0,0.0,0.0,
153200,13.0,13.9,230.5,0.0,0.0,0.0,
153300,10.0,14.3,242.2,0.0,0.0,0.0,
153400,9.9,14.2,238.3,0.0,0.0,0.0,
153500,11.2,14.7,257.8,0.0,0.0,0.0,
153600,8.9,15.1,261.7,0.0,0.0,0.0,
153700,10.1,15.1,257.8,0.0,0.0,0.0,
153800,10.7,15.2,242.2,0.0,0.0,0.0,
153900,11.1,15.5,234.4,0.0,0.0,0.0,
154000,10.1,15.6,253.9,0.0,0.0,0.0,
154100,9.5,15.8,238.3,0.0,0.0,0.0,
154200,9.9,14.9,246.1,0.0,0.0,0.0,
154300,7.2,14.5,250.0,0.0,0.0,0.0,
154400,8.6,14.5,230.5,0.0,0.0,0.0,
154500,10.8,13.6,246.1,0.0,0.0,0.0,
154600,7.2,13.6,261.7,0.0,0.0,0.0,
154700,10.7,13.4,261.7,0.0,0.0,0.0,
154800,10.2,13.4,238.3,0.0,0.0,0.0,
154900,10.6,14.1,246.1,0.0,0.0,0.0,
155000,11.2,14.2,257.8,0.0,0.0,0.0,
155100,11.9,14.7,257.8,0.0,0.0,0.0,
155200,10.6,15.5,261.7,0.0,0.0,0.0,
155300,10.5,15.5,257.8,0.0,0.0,0.0,
155400,10.9,15.8,253.9,0.0,0.0,0.0,
155500,9.2,16.0,222.7,0.0,0.0,0.0,
155600,10.0,16.0,257.8,0.0,0.0,0.0,
155700,10.0,16.1,269.5,0.0,0.0,0.0,
155800,9.1,16.0,246.1,0.0,0.0,0.0,
155900,10.1,15.0,238.3,0.0,0.0,0.0,
156000,11.1,14.9,230.5,0.0,0.0,0.0,
156100,9.5,14.4,261.7,0.0,0.0,0.0,
156200,10.2,13.6,230.5,0.0,0.0,0.0,
156300,10.2,13.8,238.3,0.0,0.0,0.0,
156400,8.9,13.7,261.7,0.0,0.0,0.0,
156500,15.7,13.7,273.4,0.0,0.0,0.0,
156600,9.8,15.3,253.9,0.0,0.0,0.0,
156700,8.8,15.2,265.6,0.0,0.0,0.0,
156800,12.5,16.0,222.7,0.0,0.0,0.0,
156900,10.4,17.0,242.2,0.0,0.0,0.0,
157000,10.1,16.9,257.8,0.0,0.0,0.0,
157100,10.8,17.1,269.5,0.0,0.0,0.0,
157200,9.0,17.0,289.1,0.0,0.0,0.0,
157300,9.9,16.8,242.2,0.0,0.0,0.0,
157400,10.1,16.7,234.4,0.0,0.0,0.0,
157500,9.6,16.6,250.0,0.0,0.0,0.0,
157600,11.3,15.6,234.4,0.0,0.0,0.0,
157700,10.7,16.0,246.1,0.0,0.0,0.0,
157800,9.1,15.4,257.8,0.0,0.0,0.0,
158000,12.4,14.9,261.7,0.0,0.0,0.0,
158100,11.3,15.3,257.8,0.0,0.0,0.0,
158200,15.2,15.5,234.4,0.0,0.0,0.0,
158300,9.5,16.5,261.7,0.0,0.0,0.0,
158400,10.0,16.5,257.8,0.0,0.0,0.0,
158500,12.2,16.7,246.1,0.0,0.0,0.0,
158600,9.9,16.7,250.0,0.0,0.0,0.0,
158700,9.5,16.5,257.8,0.0,0.0,0.0,
158800,9.0,16.4,246.1,0.0,0.0,0.0,
158900,9.9,16.5,285.2,0.0,0.0,0.0,
159000,9.7,15.8,269.5,0.0,0.0,0.0,
159100,9.1,15.1,261.7,0.0,0.0,0.0,
159200,6.3,14.9,234.4,0.0,0.0,0.0,
159300,9.8,13.9,242.2,0.0,0.0,0.0,
159400,7.9,13.9,250.0,0.0,0.0,0.0,
159500,10.4,13.5,230.5,0.0,0.0,0.0,
159600,14.2,13.5,250.0,0.0,0.0,0.0,
159700,11.4,14.5,261.7,0.0,0.0,0.0,
159800,9.1,14.7,261.7,0.0,0.0,0.0,
159900,12.0,14.9,210.9,0.0,0.0,0.0,
160000,10.2,15.4,253.9,0.0,0.0,0.0,
160100,10.1,15.4,242.2,0.0,0.0,0.0,
160200,10.1,15.4,218.8,0.0,0.0,0.0,
160300,9.1,15.4,246.1,0.0,0.0,0.0,
160400,9.5,15.3,253.9,0.0,0.0,0.0,
160500,9.6,15.4,238.3,0.0,0.0,0.0,
160600,7.5,15.0,246.1,0.0,0.0,0.0,
160700,8.3,13.7,261.7,0.0,0.0,0.0,
160800,10.9,13.5,253.9,0.0,0.0,0.0,
160900,8.7,13.3,230.5,0.0,0.0,0.0,
161000,10.5,12.5,250.0,0.0,0.0,0.0,
161100,8.4,12.7,242.2,0.0,0.0,0.0,
161200,8.9,12.7,246.1,0.0,0.0,0.0,
161300,13.4,12.9,250.0,0.0,0.0,0.0,
161400,10.5,14.2,226.6,0.0,0.0,0.0,
161500,11.9,14.4,257.8,0.0,0.0,0.0,
161600,14.0,15.4,257.8,0.0,0.0,0.0,
161700,10.6,16.5,257.8,0.0,0.0,0.0,
161800,10.1,16.6,269.5,0.0,0.0,0.0,
161900,7.8,16.5,253.9,0.0,0.0,0.0,
162000,11.3,16.4,257.8,0.0,0.0,0.0,
162100,8.2,16.5,210.9,0.0,0.0,0.0,
162200,9.0,16.6,230.5,0.0,0.0,0.0,
162300,8.9,16.4,265.6,0.0,0.0,0.0,
162400,8.6,15.3,238.3,0.0,0.0,0.0,
162500,10.6,15.3,246.1,0.0,0.0,0.0,
162600,8.7,14.3,238.3,0.0,0.0,0.0,
162700,11.6,13.2,242.2,0.0,0.0,0.0,
162800,10.5,13.5,246.1,0.0,0.0,0.0,
162900,14.5,13.6,253.9,0.0,0.0,0.0,
163000,12.8,14.5,226.6,0.0,0.0,0.0,
163100,11.5,15.3,246.1,0.0,0.0,0.0,
163200,8.6,15.4,253.9,0.0,0.0,0.0,
163300,13.6,17.2,242.2,0.0,0.0,0.0,
163400,8.7,18.3,230.5,0.0,0.0,0.0,
163500,10.3,18.0,257.8,0.0,0.0,0.0,
163600,9.5,18.1,246.1,0.0,0.0,0.0,
163700,10.5,18.2,226.6,0.0,0.0,0.0,
163800,9.9,17.9,253.9,0.0,0.0,0.0,
163900,8.9,17.8,238.3,0.0,0.0,0.0,
164000,9.3,17.3,261.7,0.0,0.0,0.0,
164100,8.9,16.3,253.9,0.0,0.0,0.0,
164200,9.0,16.2,238.3,0.0,0.0,0.0,
164300,7.4,14.3,273.4,0.0,0.0,0.0,
164400,11.2,14.6,242.2,0.0,0.0,0.0,
164500,10.1,15.2,230.5,0.0,0.0,0.0,
164600,10.8,15.1,230.5,0.0,0.0,0.0,
164700,14.1,15.7,226.6,0.0,0.0,0.0,
164800,12.0,16.5,273.4,0.0,0.0,0.0,
164900,10.8,16.8,250.0,0.0,0.0,0.0,
165000,8.3,17.3,222.7,0.0,0.0,0.0,
165100,8.6,17.3,261.7,0.0,0.0,0.0,
165200,8.6,17.3,269.5,0.0,0.0,0.0,
165300,7.4,17.1,230.5,0.0,0.0,0.0,
165400,8.9,15.7,273.4,0.0,0.0,0.0,
165500,9.8,15.4,253.9,0.0,0.0,0.0,
165600,7.5,15.3,257.8,0.0,0.0,0.0,
165700,9.6,14.6,261.7,0.0,0.0,0.0,
165800,12.5,13.8,261.7,0.0,0.0,0.0,
165900,9.0,13.8,265.6,0.0,0.0,0.0,
166000,9.1,12.9,242.2,0.0,0.0,0.0,
166100,11.1,13.6,250.0,0.0,0.0,0.0,
166200,10.5,14.1,246.1,0.0,0.0,0.0,
166300,9.5,14.2,261.7,0.0,0.0,0.0,
166400,10.2,14.7,261.7,0.0,0.0,0.0,
166500,12.0,15.4,242.2,0.0,0.0,0.0,
166600,9.1,15.5,257.8,0.0,0.0,0.0,
166700,8.2,15.6,246.1,0.0,0.0,0.0,
166800,10.1,15.3,269.5,0.0,0.0,0.0,
166900,11.5,15.1,253.9,0.0,0.0,0.0,
167000,9.0,15.3,265.6,0.0,0.0,0.0,
167100,9.9,14.9,277.3,0.0,0.0,0.0,
167200,9.4,14.4,261.7,0.0,0.0,0.0,
167300,9.5,14.5,257.8,0.0,0.0,0.0,
167400,10.0,14.1,226.6,0.0,0.0,0.0,
167500,9.6,13.2,253.9,0.0,0.0,0.0,
167600,11.4,12.9,265.6,0.0,0.0,0.0,
167700,9.9,13.2,253.9,0.0,0.0,0.0,
167800,11.1,14.1,226.6,0.0,0.0,0.0,
168000,13.3,14.7,257.8,0.0,0.0,0.0,
168100,12.0,15.7,238.3,0.0,0.0,0.0,
168200,11.1,16.2,253.9,0.0,0.0,0.0,
168300,10.0,16.3,269.5,0.0,0.0,0.0,
168400,10.6,16.3,238.3,0.0,0.0,0.0,
168500,9.0,16.4,253.9,0.0,0.0,0.0,
168600,9.4,16.4,230.5,0.0,0.0,0.0,
168700,9.8,16.2,230.5,0.0,0.0,0.0,
168800,9.4,15.4,261.7,0.0,0.0,0.0,
168900,9.6,14.6,261.7,0.0,0.0,0.0,
169000,8.4,14.9,238.3,0.0,0.0,0.0,
169100,8.3,13.7,281.3,0.0,0.0,0.0,
169200,13.7,13.4,234.4,0.0,0.0,0.0,
169300,10.1,13.8,257.8,0.0,0.0,0.0,
169400,10.8,13.9,261.7,0.0,0.0,0.0,
169500,11.6,14.8,246.1,0.0,0.0,0.0,
169600,9.6,15.3,234.4,0.0,0.0,0.0,
169700,11.6,15.3,269.5,0.0,0.0,0.0,
169800,9.5,15.7,246.1,0.0,0.0,0.0,
169900,9.8,15.9,257.8,0.0,0.0,0.0,
170000,10.8,15.8,238.3,0.0,0.0,0.0,
170100,10.7,16.0,250.0,0.0,0.0,0.0,
170200,11.2,16.1,246.1,0.0,0.0,0.0,
170300,10.6,15.4,234.4,0.0,0.0,0.0,
170400,9.2,15.5,277.3,0.0,0.0,0.0,
170500,7.8,14.6,253.9,0.0,0.0,0.0,
170600,9.3,14.0,250.0,0.0,0.0,0.0,
170700,8.3,14.0,253.9,0.0,0.0,0.0,
170800,11.2,13.6,253.9,0.0,0.0,0.0,
170900,13.7,14.4,234.4,0.0,0.0,0.0,
171000,9.9,15.2,222.7,0.0,0.0,0.0,
171100,11.4,15.4,242.2,0.0,0.0,0.0,
171200,10.3,15.9,238.3,0.0,0.0,0.0,
171300,9.2,16.4,250.0,0.0,0.0,0.0,
171400,11.4,16.5,242.2,0.0,0.0,0.0,
171500,9.5,16.8,242.2,0.0,0.0,0.0,
171600,10.3,16.8,273.4,0.0,0.0,0.0,
171700,10.4,16.8,257.8,0.0,0.0,0.0,
171800,9.4,17.0,253.9,0.0,0.0,0.0,
171900,11.2,16.2,265.6,0.0,0.0,0.0,
172000,9.7,15.5,238.3,0.0,0.0,0.0,
172100,9.0,15.3,222.7,0.0,0.0,0.0,
172200,8.5,14.4,265.6,0.0,0.0,0.0,
172300,8.1,13.7,277.3,0.0,0.0,0.0,
172400,11.6,13.6,238.3,0.0,0.0,0.0,
172500,9.8,13.3,222.7,0.0,0.0,0.0,
172600,14.6,14.1,246.1,0.0,0.0,0.0,
172700,11.6,16.2,246.1,0.0,0.0,0.0,
172800,10.3,16.0,250.0,0.0,0.0,0.0,
172900,11.9,16.5,210.9,0.0,0.0,0.0,
173000,8.2,16.7,226.6,0.0,0.0,0.0,
173100,8.7,16.4,242.2,0.0,0.0,0.0,
173200,10.4,16.5,230.5,0.0,0.0,0.0,
173300,8.5,16.6,261.7,0.0,0.0,0.0,
173400,9.6,16.4,257.8,0.0,0.0,0.0,
173500,9.4,16.5,253.9,0.0,0.0,0.0,
173600,9.1,15.9,250.0,0.0,0.0,0.0,
173700,8.6,13.7,273.4,0.0,0.0,0.0,
173800,8.4,13.6,253.9,0.0,0.0,0.0,
173900,10.3,13.2,218.8,0.0,0.0,0.0,
174000,13.9,12.6,222.7,0.0,0.0,0.0,
174100,11.5,14.4,234.4,0.0,0.0,0.0,
174200,10.8,14.6,234.4,0.0,0.0,0.0,
174300,13.2,15.3,261.7,0.0,0.0,0.0,
174400,9.5,15.9,273.4,0.0,0.0,0.0,
174500,10.9,16.0,246.1,0.0,0.0,0.0,
174600,11.7,16.8,234.4,0.0,0.0,0.0,
174700,8.5,17.0,261.7,0.0,0.0,0.0,
174800,9.1,17.2,261.7,0.0,0.0,0.0,
174900,9.2,17.0,214.8,0.0,0.0,0.0,
175000,9.8,17.0,261.7,0.0,0.0,0.0,
175100,11.0,15.7,222.7,0.0,0.0,0.0,
175200,9.4,15.7,242.2,0.0,0.0,0.0,
175300,10.2,15.0,250.0,0.0,0.0,0.0,
175400,10.7,14.5,250.0,0.0,0.0,0.0,
175500,9.4,14.4,238.3,0.0,0.0,0.0,
175600,11.6,13.6,246.1,0.0,0.0,0.0,
175700,11.0,14.4,257.8,0.0,0.0,0.0,
175800,11.5,15.0,269.5,0.0,0.0,0.0,
175900,12.8,15.0,273.4,0.0,0.0,0.0,
176000,12.9,15.8,234.4,0.0,0.0,0.0,
176100,9.3,16.1,226.6,0.0,0.0,0.0,
176200,8.8,16.0,242.2,0.0,0.0,0.0,
176300,11.4,16.0,250.0,0.0,0.0,0.0,
176400,9.3,16.1,277.3,0.0,0.0,0.0,
176500,10.5,16.0,261.7,0.0,0.0,0.0,
176600,8.9,16.0,250.0,0.0,0.0,0.0,
176700,7.6,15.1,246.1,0.0,0.0,0.0,
176800,8.1,14.2,238.3,0.0,0.0,0.0,
176900,8.4,14.1,257.8,0.0,0.0,0.0,
177000,9.4,13.1,226.6,0.0,0.0,0.0,
177100,9.2,12.7,238.3,0.0,0.0,0.0,
177200,9.8,12.5,257.8,0.0,0.0,0.0,
177300,8.8,12.6,246.1,0.0,0.0,0.0,
177400,10.1,12.9,250.0,0.0,0.0,0.0,
177500,8.3,13.2,253.9,0.0,0.0,0.0,
177600,11.0,12.8,257.8,0.0,0.0,0.0,
177700,12.5,13.6,253.9,0.0,0.0,0.0,
177800,10.1,14.1,257.8,0.0,0.0,0.0,
178000,11.9,14.2,238.3,0.0,0.0,0.0,
178100,10.0,14.5,269.5,0.0,0.0,0.0,
178200,8.6,14.5,257.8,0.0,0.0,0.0,
178300,9.1,14.6,242.2,0.0,0.0,0.0,
178400,7.9,14.0,242.2,0.0,0.0,0.0,
178500,8.6,13.6,230.5,0.0,0.0,0.0,
178600,8.5,13.7,234.4,0.0,0.0,0.0,
178700,7.8,12.8,257.8,0.0,0.0,0.0,
178800,9.9,12.3,242.2,0.0,0.0,0.0,
178900,9.4,12.6,257.8,0.0,0.0,0.0,
179000,11.0,12.5,265.6,0.0,0.0,0.0,
179100,10.0,13.8,273.4,0.0,0.0,0.0,
179200,10.7,14.1,253.9,0.0,0.0,0.0,
179300,13.8,14.1,222.7,0.0,0.0,0.0,
179400,8.0,15.1,253.9,0.0,0.0,0.0,
179500,8.7,15.1,261.7,0.0,0.0,0.0,
179600,8.8,15.2,253.9,0.0,0.0,0.0,
179700,10.0,15.3,257.8,0.0,0.0,0.0,
179800,10.6,15.7,253.9,0.0,0.0,0.0,
179900,9.4,15.5,230.5,0.0,0.0,0.0,
180000,10.4,15.6,242.2,0.0,0.0,0.0,
180100,8.0,14.2,261.7,0.0,0.0,0.0,
180200,9.0,13.7,242.2,0.0,0.0,0.0,
180300,10.8,13.8,222.7,0.0,0.0,0.0,
180400,10.5,12.9,226.6,0.0,0.0,0.0,
180500,8.7,14.0,242.2,0.0,0.0,0.0,
180600,8.7,14.0,253.9,0.0,0.0,0.0,
180700,12.4,14.2,242.2,0.0,0.0,0.0,
180800,10.4,15.0,261.7,0.0,0.0,0.0,
180900,9.0,15.0,250.0,0.0,0.0,0.0,
181000,9.5,15.1,246.1,0.0,0.0,0.0,
181100,8.4,15.6,250.0,0.0,0.0,0.0,
181200,9.9,15.6,269.5,0.0,0.0,0.0,
181300,8.1,15.6,265.6,0.0,0.0,0.0,
181400,8.9,15.2,246.1,0.0,0.0,0.0,
181500,8.5,14.6,226.6,0.0,0.0,0.0,
181600,6.9,14.4,238.3,0.0,0.0,0.0,
181700,7.1,14.1,222.7,0.0,0.0,0.0,
181800,9.6,12.6,257.8,0.0,0.0,0.0,
181900,8.6,12.6,238.3,0.0,0.0,0.0,
182000,10.2,12.4,242.2,0.0,0.0,0.0,
182100,10.8,12.6,257.8,0.0,0.0,0.0,
182200,12.7,13.6,246.1,0.0,0.0,0.0,
182300,9.3,13.7,261.7,0.0,0.0,0.0,
182400,13.0,14.4,230.5,0.0,0.0,0.0,
182500,11.7,15.2,250.0,0.0,0.0,0.0,
182600,12.4,15.7,253.9,0.0,0.0,0.0,
182700,8.5,16.2,257.8,0.0,0.0,0.0,
182800,9.4,16.3,261.7,0.0,0.0,0.0,
182900,9.6,16.3,242.2,0.0,0.0,0.0,
183000,11.9,16.2,273.4,0.0,0.0,0.0,
183100,9.8,15.9,273.4,0.0,0.0,0.0,
183200,11.0,15.2,265.6,0.0,0.0,0.0,
183300,9.7,15.0,250.0,0.0,0.0,0.0,
183400,10.4,14.7,242.2,0.0,0.0,0.0,
183500,8.6,13.5,265.6,0.0,0.0,0.0,
183600,9.0,13.0,265.6,0.0,0.0,0.0,
183700,11.4,12.6,257.8,0.0,0.0,0.0,
183800,10.7,13.4,257.8,0.0,0.0,0.0,
183900,10.2,13.9,242.2,0.0,0.0,0.0,
184000,10.8,14.0,261.7,0.0,0.0,0.0,
184100,11.8,14.2,234.4,0.0,0.0,0.0,
184200,11.7,14.6,226.6,0.0,0.0,0.0,
184300,10.4,14.9,238.3,0.0,0.0,0.0,
184400,11.6,14.7,234.4,0.0,0.0,0.0,
184500,8.7,15.1,246.1,0.0,0.0,0.0,
184600,10.7,15.1,281.3,0.0,0.0,0.0,
184700,10.6,15.4,261.7,0.0,0.0,0.0,
184800,9.9,14.9,226.6,0.0,0.0,0.0,
184900,10.7,14.6,246.1,0.0,0.0,0.0,
185000,10.4,14.6,250.0,0.0,0.0,0.0,
185100,11.0,14.3,246.1,0.0,0.0,0.0,
185200,11.2,13.8,230.5,0.0,0.0,0.0,
185300,10.6,13.8,218.8,0.0,0.0,0.0,
185400,12.4,13.8,250.0,0.0,0.0,0.0,
185500,12.6,14.2,218.8,0.0,0.0,0.0,
185600,11.3,14.7,261.7,0.0,0.0,0.0,
185700,11.9,14.8,234.4,0.0,0.0,0.0,
185800,12.9,15.7,253.9,0.0,0.0,0.0,
185900,10.3,16.0,261.7,0.0,0.0,0.0,
186000,9.8,16.1,257.8,0.0,0.0,0.0,
186100,10.2,16.0,246.1,0.0,0.0,0.0,
186200,9.8,16.3,242.2,0.0,0.0,0.0,
186300,10.0,16.1,238.3,0.0,0.0,0.0,
186400,8.8,16.1,234.4,0.0,0.0,0.0,
186500,9.9,15.4,234.4,0.0,0.0,0.0,
186600,9.6,14.8,281.3,0.0,0.0,0.0,
186700,9.5,14.6,261.7,0.0,0.0,0.0,
186800,9.7,13.7,261.7,0.0,0.0,0.0,
186900,12.9,14.5,234.4,0.0,0.0,0.0,
187000,10.9,14.7,261.7,0.0,0.0,0.0,
187100,11.8,14.7,257.8,0.0,0.0,0.0,
187200,14.6,15.7,246.1,0.0,0.0,0.0,
187300,11.2,16.2,261.7,0.0,0.0,0.0,
187400,15.9,16.2,257.8,0.0,0.0,0.0,
187500,9.7,16.8,250.0,0.0,0.0,0.0,
187600,12.0,16.8,234.4,0.0,0.0,0.0,
187700,10.3,17.1,253.9,0.0,0.0,0.0,
187800,11.0,16.9,242.2,0.0,0.0,0.0,
188000,11.1,15.6,285.2,0.0,0.0,0.0,
188100,9.9,15.6,253.9,0.0,0.0,0.0,
188200,11.1,14.2,257.8,0.0,0.0,0.0,
188300,9.2,13.8,246.1,0.0,0.0,0.0,
188400,8.0,13.5,269.5,0.0,0.0,0.0,
188500,8.8,12.7,265.6,0.0,0.0,0.0,
188600,13.4,13.8,257.8,0.0,0.0,0.0,
188700,9.8,13.9,250.0,0.0,0.0,0.0,
188800,11.2,13.9,246.1,0.0,0.0,0.0,
188900,11.4,14.6,257.8,0.0,0.0,0.0,
189000,10.6,15.4,246.1,0.0,0.0,0.0,
189100,10.3,15.3,222.7,0.0,0.0,0.0,
189200,8.8,15.5,214.8,0.0,0.0,0.0,
189300,9.0,15.4,222.7,0.0,0.0,0.0,
189400,8.8,15.6,253.9,0.0,0.0,0.0,
189500,10.2,15.7,238.3,0.0,0.0,0.0,
189600,9.3,14.9,242.2,0.0,0.0,0.0,
189700,11.0,14.5,238.3,0.0,0.0,0.0,
189800,10.7,14.6,230.5,0.0,0.0,0.0,
189900,9.4,13.8,269.5,0.0,0.0,0.0,
190000,8.9,13.2,246.1,0.0,0.0,0.0,
190100,10.2,13.1,230.5,0.0,0.0,0.0,
190200,10.2,13.3,234.4,0.0,0.0,0.0,
190300,9.6,14.0,257.8,0.0,0.0,0.0,
190400,10.2,14.3,250.0,0.0,0.0,0.0,
190500,10.7,14.2,273.4,0.0,0.0,0.0,
190600,12.2,15.1,250.0,0.0,0.0,0.0,
190700,9.0,15.3,253.9,0.0,0.0,0.0,
190800,11.1,15.2,222.7,0.0,0.0,0.0,
190900,9.9,15.1,234.4,0.0,0.0,0.0,
191000,8.7,15.0,234.4,0.0,0.0,0.0,
191100,9.7,15.0,242.2,0.0,0.0,0.0,
191200,9.5,14.9,242.2,0.0,0.0,0.0,
191300,7.9,14.2,238.3,0.0,0.0,0.0,
191400,9.8,13.6,250.0,0.0,0.0,0.0,
191500,10.7,13.8,257.8,0.0,0.0,0.0,
191600,9.6,13.0,265.6,0.0,0.0,0.0,
191700,13.4,12.9,265.6,0.0,0.0,0.0,
191800,12.3,13.2,257.8,0.0,0.0,0.0,
191900,14.6,13.5,253.9,0.0,0.0,0.0,
192000,9.1,14.4,234.4,0.0,0.0,0.0,
192100,9.0,14.5,234.4,0.0,0.0,0.0,
192200,11.8,14.7,246.1,0.0,0.0,0.0,
192300,10.5,15.4,257.8,0.0,0.0,0.0,
192400,11.1,15.7,253.9,0.0,0.0,0.0,
192500,9.5,15.9,242.2,0.0,0.0,0.0,
192600,9.2,15.8,218.8,0.0,0.0,0.0,
192700,9.9,15.6,269.5,0.0,0.0,0.0,
192800,9.3,15.4,269.5,0.0,0.0,0.0,
192900,10.5,15.2,246.1,0.0,0.0,0.0,
193000,8.9,14.6,277.3,0.0,0.0,0.0,
193100,8.9,14.4,246.1,0.0,0.0,0.0,
193200,9.3,14.0,230.5,0.0,0.0,0.0,
193300,12.7,13.5,250.0,0.0,0.0,0.0,
193400,11.4,14.6,234.4,0.0,0.0,0.0,
193500,9.2,14.4,246.1,0.0,0.0,0.0,
193600,15.1,15.4,238.3,0.0,0.0,0.0,
193700,11.5,15.9,230.5,0.0,0.0,0.0,
193800,13.0,16.0,257.8,0.0,0.0,0.0,
193900,10.6,16.7,222.7,0.0,0.0,0.0,
194000,10.1,16.5,230.5,0.0,0.0,0.0,
194100,10.3,16.8,226.6,0.0,0.0,0.0,
194200,10.2,17.1,253.9,0.0,0.0,0.0,
194300,9.7,17.0,246.1,0.0,0.0,0.0,
194400,9.4,15.9,261.7,0.0,0.0,0.0,
194500,10.3,15.8,257.8,0.0,0.0,0.0,
194600,9.5,14.8,257.8,0.0,0.0,0.0,
194700,8.4,14.1,253.9,0.0,0.0,0.0,
194800,10.8,14.0,242.2,0.0,0.0,0.0,
194900,13.4,13.9,242.2,0.0,0.0,0.0,
195000,11.8,15.2,234.4,0.0,0.0,0.0,
195100,10.8,15.4,222.7,0.0,0.0,0.0,
195200,9.8,15.4,265.6,0.0,0.0,0.0,
195300,11.3,16.7,253.9,0.0,0.0,0.0,
195400,10.5,17.1,257.8,0.0,0.0,0.0,
195500,9.7,17.1,242.2,0.0,0.0,0.0,
195600,7.8,17.2,226.6,0.0,0.0,0.0,
195700,10.0,17.1,222.7,0.0,0.0,0.0,
195800,9.1,17.2,238.3,0.0,0.0,0.0,
195900,7.9,16.6,242.2,0.0,0.0,0.0,
196000,11.9,15.2,234.4,0.0,0.0,0.0,
196100,8.2,15.0,242.2,0.0,0.0,0.0,
196200,10.2,14.7,246.1,0.0,0.0,0.0,
196300,10.3,13.0,230.5,0.0,0.0,0.0,
196400,10.0,12.6,226.6,0.0,0.0,0.0,
196500,9.4,12.5,242.2,0.0,0.0,0.0,
196600,12.2,12.4,253.9,0.0,0.0,0.0,
196700,10.4,13.7,253.9,0.0,0.0,0.0,
196800,12.6,13.7,257.8,0.0,0.0,0.0,
196900,10.5,14.0,261.7,0.0,0.0,0.0,
197000,10.8,15.1,277.3,0.0,0.0,0.0,
197100,10.7,15.1,238.3,0.0,0.0,0.0,
197200,8.9,15.4,191.4,0.0,0.0,0.0,
197300,9.3,15.4,226.6,0.0,0.0,0.0,
197400,10.7,15.7,230.5,0.0,0.0,0.0,
197500,9.2,15.8,230.5,0.0,0.0,0.0,
197600,8.7,15.6,242.2,0.0,0.0,0.0,
197700,7.5,14.7,269.5,0.0,0.0,0.0,
197800,9.7,14.5,261.7,0.0,0.0,0.0,
198000,10.6,13.1,214.8,0.0,0.0,0.0,
198100,11.8,13.4,269.5,0.0,0.0,0.0,
198200,10.1,13.3,257.8,0.0,0.0,0.0,
198300,13.8,13.3,265.6,0.0,0.0,0.0,
198400,10.3,15.0,277.3,0.0,0.0,0.0,
198500,10.0,15.1,265.6,0.0,0.0,0.0,
198600,10.6,15.4,293.0,0.0,0.0,0.0,
198700,9.3,16.6,230.5,0.0,0.0,0.0,
198800,7.8,16.7,253.9,0.0,0.0,0.0,
198900,9.8,16.7,250.0,0.0,0.0,0.0,
199000,9.1,16.8,234.4,0.0,0.0,0.0,
199100,10.2,16.3,246.1,0.0,0.0,0.0,
199200,9.7,16.4,234.4,0.0,0.0,0.0,
199300,11.1,16.4,265.6,0.0,0.0,0.0,
199400,11.3,14.6,242.2,0.0,0.0,0.0,
199500,12.5,14.8,222.7,0.0,0.0,0.0,
199600,8.3,15.0,242.2,0.0,0.0,0.0,
199700,13.0,13.7,242.2,0.0,0.0,0.0,
199800,12.5,15.1,257.8,0.0,0.0,0.0,
199900,9.2,15.4,257.8,0.0,0.0,0.0,
200000,14.6,15.2,218.8,0.0,0.0,0.0,
200100,14.1,16.8,253.9,0.0,0.0,0.0,
200200,10.5,17.1,253.9,0.0,0.0,0.0,
200300,10.0,17.5,265.6,0.0,0.0,0.0,
200400,8.0,17.4,238.3,0.0,0.0,0.0,
200500,8.2,17.1,253.9,0.0,0.0,0.0,
200600,10.0,16.7,226.6,0.0,0.0,0.0,
200700,8.2,16.8,253.9,0.0,0.0,0.0,
200800,9.6,15.3,250.0,0.0,0.0,0.0,
200900,9.6,15.2,265.6,0.0,0.0,0.0,
201000,9.9,15.2,253.9,0.0,0.0,0.0,
201100,9.0,13.5,261.7,0.0,0.0,0.0,
201200,8.9,12.8,289.1,0.0,0.0,0.0,
201300,10.0,12.3,242.2,0.0,0.0,0.0,
201400,11.2,12.4,246.1,0.0,0.0,0.0,
201500,13.0,14.3,234.4,0.0,0.0,0.0,
201600,10.7,14.5,226.6,0.0,0.0,0.0,
201700,13.0,14.9,218.8,0.0,0.0,0.0,
201800,10.0,16.0,261.7,0.0,0.0,0.0,
201900,9.9,15.9,253.9,0.0,0.0,0.0,
202000,9.9,16.0,253.9,0.0,0.0,0.0,
202100,9.5,16.2,238.3,0.0,0.0,0.0,
202200,11.0,16.4,230.5,0.0,0.0,0.0,
202300,8.1,16.6,246.1,0.0,0.0,0.0,
202400,9.9,16.3,273.4,0.0,0.0,0.0,
202500,7.3,14.7,234.4,0.0,0.0,0.0,
202600,7.5,14.3,250.0,0.0,0.0,0.0,
202700,10.9,13.9,261.7,0.0,0.0,0.0,
202800,9.2,12.8,238.3,0.0,0.0,0.0,
202900,10.9,12.6,230.5,0.0,0.0,0.0,
203000,12.4,12.7,246.1,0.0,0.0,0.0,
203100,13.1,14.9,218.8,0.0,0.0,0.0,
203200,10.0,15.7,257.8,0.0,0.0,0.0,
203300,15.1,15.7,230.5,0.0,0.0,0.0,
203400,12.5,17.3,230.5,0.0,0.0,0.0,
203500,10.5,17.9,253.9,0.0,0.0,0.0,
203600,8.2,18.2,257.8,0.0,0.0,0.0,
203700,9.1,18.0,257.8,0.0,0.0,0.0,
203800,10.9,17.9,242.2,0.0,0.0,0.0,
203900,9.6,18.0,234.4,0.0,0.0,0.0,
204000,8.8,17.8,246.1,0.0,0.0,0.0,
204100,9.1,15.8,261.7,0.0,0.0,0.0,
204200,10.3,14.8,269.5,0.0,0.0,0.0,
204300,7.4,14.8,230.5,0.0,0.0,0.0,
204400,8.9,12.9,253.9,0.0,0.0,0.0,
204500,8.0,12.3,253.9,0.0,0.0,0.0,
204600,10.9,12.4,250.0,0.0,0.0,0.0,
204700,13.2,12.6,246.1,0.0,0.0,0.0,
204800,11.3,14.3,238.3,0.0,0.0,0.0,
204900,9.2,14.5,234.4,0.0,0.0,0.0,
205000,16.2,14.9,246.1,0.0,0.0,0.0,
205100,11.7,16.4,246.1,0.0,0.0,0.0,
205200,10.1,16.6,265.6,0.0,0.0,0.0,
205300,10.8,16.5,273.4,0.0,0.0,0.0,
205400,9.9,16.7,257.8,0.0,0.0,0.0,
205500,9.1,17.2,250.0,0.0,0.0,0.0,
205600,9.6,17.0,246.1,0.0,0.0,0.0,
205700,9.2,17.0,242.2,0.0,0.0,0.0,
205800,9.6,15.7,277.3,0.0,0.0,0.0,
205900,8.3,15.8,261.7,0.0,0.0,0.0,
206000,9.8,15.2,261.7,0.0,0.0,0.0,
206100,10.8,13.8,238.3,0.0,0.0,0.0,
206200,12.7,15.0,242.2,0.0,0.0,0.0,
206300,11.1,15.2,250.0,0.0,0.0,0.0,
206400,13.1,15.3,246.1,0.0,0.0,0.0,
206500,12.1,15.5,242.2,0.0,0.0,0.0,
206600,10.5,15.8,257.8,0.0,0.0,0.0,
206700,11.3,16.4,257.8,0.0,0.0,0.0,
206800,9.4,17.1,226.6,0.0,0.0,0.0,
206900,8.1,17.0,218.8,0.0,0.0,0.0,
207000,9.9,17.0,238.3,0.0,0.0,0.0,
207100,9.4,17.0,218.8,0.0,0.0,0.0,
207200,10.6,15.6,246.1,0.0,0.0,0.0,
207300,10.6,15.5,226.6,0.0,0.0,0.0,
207400,9.8,15.5,210.9,0.0,0.0,0.0,
207500,9.9,14.4,218.8,0.0,0.0,0.0,
207600,10.6,14.3,242.2,0.0,0.0,0.0,
207700,9.5,13.5,230.5,0.0,0.0,0.0,
207800,13.5,13.8,253.9,0.0,0.0,0.0,
208000,10.5,14.8,257.8,0.0,0.0,0.0,
208100,12.5,15.2,246.1,0.0,0.0,0.0,
208200,10.9,16.2,250.0,0.0,0.0,0.0,
208300,13.2,16.4,257.8,0.0,0.0,0.0,
208400,9.0,16.4,250.0,0.0,0.0,0.0,
208500,9.4,16.4,246.1,0.0,0.0,0.0,
208600,7.8,16.3,242.2,0.0,0.0,0.0,
208700,9.9,16.3,261.7,0.0,0.0,0.0,
208800,8.5,15.2,261.7,0.0,0.0,0.0,
208900,9.2,14.3,253.9,0.0,0.0,0.0,
209000,14.9,14.2,222.7,0.0,0.0,0.0,
209100,12.0,14.4,242.2,0.0,0.0,0.0,
209200,9.3,13.5,257.8,0.0,0.0,0.0,
209300,9.4,13.1,218.8,0.0,0.0,0.0,
209400,8.5,12.9,242.2,0.0,0.0,0.0,
209500,11.4,14.0,242.2,0.0,0.0,0.0,
209600,11.3,14.6,257.8,0.0,0.0,0.0,
209700,11.3,14.8,257.8,0.0,0.0,0.0,
209800,11.7,15.5,250.0,0.0,0.0,0.0,
209900,12.4,16.3,250.0,0.0,0.0,0.0,
210000,7.7,16.4,253.9,0.0,0.0,0.0,
210100,9.4,15.7,210.9,0.0,0.0,0.0,
210200,9.4,15.4,250.0,0.0,0.0,0.0,
210300,9.7,15.5,242.2,0.0,0.0,0.0,
210400,9.0,15.5,242.2,0.0,0.0,0.0,
210500,9.0,14.6,238.3,0.0,0.0,0.0,
210600,10.4,14.0,257.8,0.0,0.0,0.0,
210700,8.2,14.0,242.2,0.0,0.0,0.0,
210800,7.6,13.1,242.2,0.0,0.0,0.0,
210900,11.7,12.1,250.0,0.0,0.0,0.0,
211000,11.3,12.3,214.8,0.0,0.0,0.0,
211100,11.6,12.7,238.3,0.0,0.0,0.0,
211200,9.2,14.1,257.8,0.0,0.0,0.0,
211300,9.1,14.4,246.1,0.0,0.0,0.0,
211400,12.8,14.5,246.1,0.0,0.0,0.0,
211500,10.3,15.7,257.8,0.0,0.0,0.0,
211600,9.9,16.0,246.1,0.0,0.0,0.0,
211700,7.5,15.9,226.6,0.0,0.0,0.0,
211800,7.7,15.8,242.2,0.0,0.0,0.0,
211900,8.8,15.8,238.3,0.0,0.0,0.0,
212000,8.9,15.6,261.7,0.0,0.0,0.0,
212100,10.2,15.4,273.4,0.0,0.0,0.0,
212200,9.1,14.2,273.4,0.0,0.0,0.0,
212300,8.2,13.9,273.4,0.0,0.0,0.0,
212400,8.9,13.7,242.2,0.0,0.0,0.0,
212500,10.0,12.1,246.1,0.0,0.0,0.0,
212600,11.8,13.1,257.8,0.0,0.0,0.0,
212700,9.1,13.5,265.6,0.0,0.0,0.0,
212800,13.5,13.7,222.7,0.0,0.0,0.0,
212900,10.5,15.8,261.7,0.0,0.0,0.0,
213000,9.5,15.7,253.9,0.0,0.0,0.0,
213100,13.7,16.0,250.0,0.0,0.0,0.0,
213200,9.1,16.6,222.7,0.0,0.0,0.0,
213300,9.0,16.6,242.2,0.0,0.0,0.0,
213400,9.0,16.8,261.7,0.0,0.0,0.0,
213500,8.3,17.0,261.7,0.0,0.0,0.0,
213600,9.1,15.9,230.5,0.0,0.0,0.0,
213700,7.1,15.6,230.5,0.0,0.0,0.0,
213800,9.6,15.5,207.0,0.0,0.0,0.0,
213900,8.8,13.6,199.2,0.0,0.0,0.0,
214000,8.7,13.6,218.8,0.0,0.0,0.0,
214100,8.1,13.2,242.2,0.0,0.0,0.0,
214200,11.4,13.1,250.0,0.0,0.0,0.0,
214300,11.5,14.2,234.4,0.0,0.0,0.0,
214400,9.1,14.2,253.9,0.0,0.0,0.0,
214500,11.2,14.8,238.3,0.0,0.0,0.0,
214600,13.5,16.2,238.3,0.0,0.0,0.0,
214700,11.2,16.4,226.6,0.0,0.0,0.0,
214800,11.4,16.9,214.8,0.0,0.0,0.0,
214900,8.1,17.1,238.3,0.0,0.0,0.0,
215000,8.5,17.2,218.8,0.0,0.0,0.0,
215100,8.7,17.1,234.4,0.0,0.0,0.0,
215200,8.3,16.7,253.9,0.0,0.0,0.0,
215300,9.8,15.7,250.0,0.0,0.0,0.0,
215400,8.3,15.5,234.4,0.0,0.0,0.0,
215500,9.3,14.8,253.9,0.0,0.0,0.0,
215600,8.9,13.6,226.6,0.0,0.0,0.0,
215700,8.7,13.2,293.0,0.0,0.0,0.0,
215800,10.4,12.6,238.3,0.0,0.0,0.0,
215900,11.2,13.5,234.4,0.0,0.0,0.0,
216000,11.1,14.4,242.2,0.0,0.0,0.0,
216100,11.2,14.6,257.8,0.0,0.0,0.0,
216200,12.0,15.8,253.9,0.0,0.0,0.0,
216300,9.7,16.7,257.8,0.0,0.0,0.0,
216400,8.2,16.6,253.9,0.0,0.0,0.0,
216500,10.5,16.8,230.5,0.0,0.0,0.0,
216600,9.7,16.6,250.0,0.0,0.0,0.0,
216700,9.5,16.9,253.9,0.0,0.0,0.0,
216800,8.8,17.1,289.1,0.0,0.0,0.0,
216900,10.6,15.9,253.9,0.0,0.0,0.0,
217000,8.6,15.0,207.0,0.0,0.0,0.0,
217100,9.4,15.1,285.2,0.0,0.0,0.0,
217200,8.3,13.7,273.4,0.0,0.0,0.0,
217300,9.7,12.5,218.8,0.0,0.0,0.0,
217400,9.5,12.9,214.8,0.0,0.0,0.0,
217500,9.2,13.0,238.3,0.0,0.0,0.0,
217600,15.0,14.9,246.1,0.0,0.0,0.0,
217700,11.3,15.8,246.1,0.0,0.0,0.0,
217800,13.3,15.6,253.9,0.0,0.0,0.0,
218000,9.4,18.4,230.5,0.0,0.0,0.0,
218100,8.2,18.5,230.5,0.0,0.0,0.0,
218200,8.2,18.5,210.9,0.0,0.0,0.0,
218300,9.3,18.6,250.0,0.0,0.0,0.0,
218400,11.0,18.5,234.4,0.0,0.0,0.0,
218500,8.4,18.4,257.8,0.0,0.0,0.0,
218600,9.4,16.9,238.3,0.0,0.0,0.0,
218700,9.0,15.9,214.8,0.0,0.0,0.0,
218800,9.6,16.1,218.8,0.0,0.0,0.0,
218900,9.2,13.9,273.4,0.0,0.0,0.0,
219000,12.9,14.7,250.0,0.0,0.0,0.0,
219100,9.8,15.6,265.6,0.0,0.0,0.0,
219200,10.8,16.2,226.6,0.0,0.0,0.0,
219300,14.5,17.7,265.6,0.0,0.0,0.0,
219400,11.1,18.4,257.8,0.0,0.0,0.0,
219500,10.3,18.6,253.9,0.0,0.0,0.0,
219600,9.4,19.1,242.2,0.0,0.0,0.0,
219700,7.7,19.2,234.4,0.0,0.0,0.0,
219800,7.7,19.0,261.7,0.0,0.0,0.0,
219900,8.7,18.5,257.8,0.0,0.0,0.0,
220000,8.2,17.5,253.9,0.0,0.0,0.0,
220100,8.0,16.7,273.4,0.0,0.0,0.0,
220200,8.2,16.2,226.6,0.0,0.0,0.0,
220300,9.4,14.6,242.2,0.0,0.0,0.0,
220400,9.3,13.4,242.2,0.0,0.0,0.0,
220500,10.6,13.1,250.0,0.0,0.0,0.0,
220600,14.3,12.5,269.5,0.0,0.0,0.0,
220700,14.7,14.6,253.9,0.0,0.0,0.0,
220800,11.2,15.5,257.8,0.0,0.0,0.0,
220900,11.6,15.7,269.5,0.0,0.0,0.0,
221000,13.5,17.7,238.3,0.0,0.0,0.0,
221100,10.6,18.0,253.9,0.0,0.0,0.0,
221200,9.6,18.4,246.1,0.0,0.0,0.0,
221300,9.2,18.2,253.9,0.0,0.0,0.0,
221400,7.9,18.1,250.0,0.0,0.0,0.0,
221500,7.7,18.1,269.5,0.0,0.0,0.0,
221600,9.8,17.8,234.4,0.0,0.0,0.0,
221700,10.6,16.0,242.2,0.0,0.0,0.0,
221800,8.9,15.5,242.2,0.0,0.0,0.0,
221900,9.4,15.2,230.5,0.0,0.0,0.0,
222000,10.1,13.0,261.7,0.0,0.0,0.0,
222100,7.8,12.6,242.2,0.0,0.0,0.0,
222200,8.4,12.1,238.3,0.0,0.0,0.0,
222300,14.8,12.8,230.5,0.0,0.0,0.0,
222400,10.0,15.0,257.8,0.0,0.0,0.0,
222500,8.7,15.1,257.8,0.0,0.0,0.0,
222600,11.9,16.8,257.8,0.0,0.0,0.0,
222700,11.3,17.7,246.1,0.0,0.0,0.0,
222800,8.7,17.6,226.6,0.0,0.0,0.0,
222900,8.4,17.8,265.6,0.0,0.0,0.0,
223000,11.1,17.7,257.8,0.0,0.0,0.0,
223100,9.4,17.7,242.2,0.0,0.0,0.0,
223200,9.6,17.8,250.0,0.0,0.0,0.0,
223300,7.3,17.3,257.8,0.0,0.0,0.0,
223400,9.8,15.6,261.7,0.0,0.0,0.0,
223500,8.5,15.5,253.9,0.0,0.0,0.0,
223600,8.2,13.9,265.6,0.0,0.0,0.0,
223700,9.7,12.4,234.4,0.0,0.0,0.0,
223800,9.9,12.7,253.9,0.0,0.0,0.0,
223900,12.3,12.8,238.3,0.0,0.0,0.0,
224000,14.5,15.6,234.4,0.0,0.0,0.0,
224100,10.2,16.6,250.0,0.0,0.0,0.0,
224200,11.8,16.5,238.3,0.0,0.0,0.0,
224300,12.3,18.9,214.8,0.0,0.0,0.0,
224400,11.6,19.4,253.9,0.0,0.0,0.0,
224500,9.2,19.6,273.4,0.0,0.0,0.0,
224600,10.7,19.6,277.3,0.0,0.0,0.0,
224700,8.4,19.9,253.9,0.0,0.0,0.0,
224800,8.4,19.6,273.4,0.0,0.0,0.0,
224900,11.6,19.4,281.3,0.0,0.0,0.0,
225000,9.8,17.5,234.4,0.0,0.0,0.0,
225100,9.2,16.5,277.3,0.0,0.0,0.0,
225200,7.4,16.6,250.0,0.0,0.0,0.0,
225300,9.6,13.8,250.0,0.0,0.0,0.0,
225400,12.9,13.2,230.5,0.0,0.0,0.0,
225500,9.3,13.9,246.1,0.0,0.0,0.0,
225600,17.1,13.9,242.2,0.0,0.0,0.0,
225700,12.8,16.7,226.6,0.0,0.0,0.0,
225800,10.8,17.3,253.9,0.0,0.0,0.0,
225900,15.8,17.9,242.2,0.0,0.0,0.0,
226000,10.6,20.1,246.1,0.0,0.0,0.0,
226100,9.2,20.2,253.9,0.0,0.0,0.0,
226200,9.5,20.1,257.8,0.0,0.0,0.0,
226300,8.6,20.1,250.0,0.0,0.0,0.0,
226400,10.0,20.0,261.7,0.0,0.0,0.0,
226500,9.6,19.4,250.0,0.0,0.0,0.0,
226600,9.5,19.4,238.3,0.0,0.0,0.0,
226700,10.0,17.0,230.5,0.0,0.0,0.0,
226800,10.4,16.6,250.0,0.0,0.0,0.0,
226900,10.0,16.1,273.4,0.0,0.0,0.0,
227000,15.2,12.8,253.9,0.0,0.0,0.0,
227100,13.8,15.9,253.9,0.0,0.0,0.0,
227200,12.7,16.2,234.4,0.0,0.0,0.0,
227300,16.3,18.7,257.8,0.0,0.0,0.0,
227400,12.3,19.9,250.0,0.0,0.0,0.0,
227500,12.7,20.0,257.8,0.0,0.0,0.0,
227600,11.1,22.0,242.2,0.0,0.0,0.0,
227700,10.7,22.0,230.5,0.0,0.0,0.0,
227800,8.5,22.0,242.2,0.0,0.0,0.0,
228000,10.4,21.7,246.1,0.0,0.0,0.0,
228100,8.4,19.7,257.8,0.0,0.0,0.0,
228200,8.1,19.5,246.1,0.0,0.0,0.0,
228300,7.8,17.0,265.6,0.0,0.0,0.0,
228400,8.5,15.5,250.0,0.0,0.0,0.0,
228500,8.5,15.4,230.5,0.0,0.0,0.0,
228600,18.6,12.2,273.4,0.0,0.0,0.0,
228700,13.9,16.4,230.5,0.0,0.0,0.0,
228800,8.4,17.3,257.8,0.0,0.0,0.0,
228900,11.9,17.4,281.3,0.0,0.0,0.0,
229000,13.1,21.0,257.8,0.0,0.0,0.0,
229100,13.0,21.3,234.4,0.0,0.0,0.0,
229200,11.5,21.3,257.8,0.0,0.0,0.0,
229300,8.2,22.1,226.6,0.0,0.0,0.0,
229400,8.9,22.1,253.9,0.0,0.0,0.0,
229500,10.8,22.1,265.6,0.0,0.0,0.0,
229600,8.4,22.2,218.8,0.0,0.0,0.0,
229700,11.4,19.1,246.1,0.0,0.0,0.0,
229800,9.2,18.4,234.4,0.0,0.0,0.0,
229900,8.5,18.4,226.6,0.0,0.0,0.0,
230000,10.5,14.5,238.3,0.0,0.0,0.0,
230100,8.9,13.9,253.9,0.0,0.0,0.0,
230200,8.9,13.9,257.8,0.0,0.0,0.0,
230300,18.1,12.8,265.6,0.0,0.0,0.0,
230400,14.3,16.5,230.5,0.0,0.0,0.0,
230500,10.9,17.5,238.3,0.0,0.0,0.0,
230600,13.9,18.1,250.0,0.0,0.0,0.0,
230700,15.6,21.9,253.9,0.0,0.0,0.0,
230800,9.5,22.4,257.8,0.0,0.0,0.0,
230900,7.8,22.4,242.2,0.0,0.0,0.0,
231000,10.2,22.1,250.0,0.0,0.0,0.0,
231100,10.0,22.1,257.8,0.0,0.0,0.0,
231200,10.7,22.3,250.0,0.0,0.0,0.0,
231300,8.9,22.3,230.5,0.0,0.0,0.0,
231400,8.0,19.7,238.3,0.0,0.0,0.0,
231500,8.2,18.9,253.9,0.0,0.0,0.0,
231600,10.5,18.2,250.0,0.0,0.0,0.0,
231700,8.9,13.7,230.5,0.0,0.0,0.0,
231800,9.3,12.5,246.1,0.0,0.0,0.0,
231900,10.0,13.1,253.9,0.0,0.0,0.0,
232000,18.9,13.9,261.7,0.0,0.0,0.0,
232100,12.9,18.2,257.8,0.0,0.0,0.0,
232200,10.8,18.7,253.9,0.0,0.0,0.0,
232300,14.5,19.4,246.1,0.0,0.0,0.0,
232400,11.6,21.9,238.3,0.0,0.0,0.0,
232500,10.3,22.1,257.8,0.0,0.0,0.0,
232600,7.6,22.2,273.4,0.0,0.0,0.0,
232700,7.6,22.0,250.0,0.0,0.0,0.0,
232800,10.4,22.1,265.6,0.0,0.0,0.0,
232900,10.2,21.8,250.0,0.0,0.0,0.0,
233000,9.2,21.4,261.7,0.0,0.0,0.0,
233100,8.8,17.9,222.7,0.0,0.0,0.0,
233200,10.3,17.2,222.7,0.0,0.0,0.0,
233300,8.2,16.5,210.9,0.0,0.0,0.0,
233400,12.5,12.9,242.2,0.0,0.0,0.0,
233500,11.5,14.3,253.9,0.0,0.0,0.0,
233600,12.6,14.8,261.7,0.0,0.0,0.0,
233700,16.1,16.9,253.9,0.0,0.0,0.0,
233800,13.1,18.8,261.7,0.0,0.0,0.0,
233900,11.7,19.0,250.0,0.0,0.0,0.0,
234000,15.1,21.5,250.0,0.0,0.0,0.0,
234100,11.3,22.1,246.1,0.0,0.0,0.0,
234200,10.6,22.3,246.1,0.0,0.0,0.0,
234300,9.7,22.2,230.5,0.0,0.0,0.0,
234400,8.6,22.4,218.8,0.0,0.0,0.0,
234500,10.2,21.2,242.2,0.0,0.0,0.0,
234600,9.7,21.0,257.8,0.0,0.0,0.0,
234700,7.9,19.4,250.0,0.0,0.0,0.0,
234800,10.0,17.6,246.1,0.0,0.0,0.0,
234900,11.5,17.4,273.4,0.0,0.0,0.0,
235000,17.5,14.3,257.8,0.0,0.0,0.0,
235100,12.6,17.1,242.2,0.0,0.0,0.0,
235200,11.7,17.9,257.8,0.0,0.0,0.0,
235300,19.7,18.3,253.9,0.0,0.0,0.0,
235400,12.8,21.5,257.8,0.0,0.0,0.0,
235500,12.2,21.9,242.2,0.0,0.0,0.0,
235600,16.4,23.3,261.7,0.0,0.0,0.0,
235700,10.2,24.8,250.0,0.0,0.0,0.0,
235800,10.4,24.7,257.8,0.0,0.0,0.0,
235900,8.9,24.8,277.3,0.0,0.0,0.0,
236000,10.7,24.9,293.0,0.0,0.0,0.0,
236100,8.9,22.5,269.5,0.0,0.0,0.0,
236200,7.9,21.8,273.4,0.0,0.0,0.0,
236300,10.1,21.6,277.3,0.0,0.0,0.0,
236400,10.1,18.3,261.7,0.0,0.0,0.0,
236500,8.2,18.0,257.8,0.0,0.0,0.0,
236600,10.5,15.9,218.8,0.0,0.0,0.0,
236700,16.9,14.4,250.0,0.0,0.0,0.0,
236800,12.5,19.3,257.8,0.0,0.0,0.0,
236900,10.7,19.7,257.8,0.0,0.0,0.0,
237000,17.1,20.8,257.8,0.0,0.0,0.0,
237100,14.0,22.8,257.8,0.0,0.0,0.0,
237200,11.5,23.1,257.8,0.0,0.0,0.0,
237300,10.0,23.0,250.0,0.0,0.0,0.0,
237400,9.7,23.1,257.8,0.0,0.0,0.0,
237500,9.0,23.0,269.5,0.0,0.0,0.0,
237600,11.3,23.0,269.5,0.0,0.0,0.0,
237700,11.1,22.6,257.8,0.0,0.0,0.0,
237800,7.4,18.9,234.4,0.0,0.0,0.0,
238000,8.2,16.8,230.5,0.0,0.0,0.0,
238100,10.4,13.6,261.7,0.0,0.0,0.0,
238200,9.8,13.1,257.8,0.0,0.0,0.0,
238300,14.5,13.2,242.2,0.0,0.0,0.0,
238400,19.1,17.4,238.3,0.0,0.0,0.0,
238500,13.1,19.8,250.0,0.0,0.0,0.0,
238600,11.4,20.3,246.1,0.0,0.0,0.0,
238700,18.0,23.0,238.3,0.0,0.0,0.0,
238800,12.1,24.1,257.8,0.0,0.0,0.0,
238900,10.2,24.4,261.7,0.0,0.0,0.0,
239000,8.4,24.3,222.7,0.0,0.0,0.0,
239100,10.2,24.3,234.4,0.0,0.0,0.0,
239200,7.8,24.4,218.8,0.0,0.0,0.0,
239300,9.5,24.3,257.8,0.0,0.0,0.0,
239400,8.1,21.4,238.3,0.0,0.0,0.0,
239500,10.5,19.0,265.6,0.0,0.0,0.0,
239600,10.0,18.7,230.5,0.0,0.0,0.0,
239700,10.1,15.2,273.4,0.0,0.0,0.0,
239800,10.5,13.0,210.9,0.0,0.0,0.0,
239900,12.0,13.1,214.8,0.0,0.0,0.0,
240000,21.1,13.3,250.0,0.0,0.0,0.0,
240100,14.2,17.9,246.1,0.0,0.0,0.0,
240200,10.9,18.6,257.8,0.0,0.0,0.0,
240300,14.6,19.8,257.8,0.0,0.0,0.0,
240400,13.8,23.5,257.8,0.0,0.0,0.0,
