Time(ms),Raw_ADC,ENV_Value,RMS,MDF,MW_Amp,MW_Area,MW_Latency,MW_Valid,Marker
0,1857.3,8.6,0.0,158.8,0.0,0.0,0.0,0,
100,1856.1,6.0,0.0,158.8,0.0,0.0,0.0,0,
200,1859.0,5.5,0.0,158.8,0.0,0.0,0.0,0,
300,1858.1,5.9,0.0,158.8,0.0,0.0,0.0,0,
400,1859.1,5.8,0.0,158.8,0.0,0.0,0.0,0,
500,1857.5,6.0,0.0,93.7,0.0,0.0,0.0,0,
600,1858.4,6.6,0.0,87.8,0.0,0.0,0.0,0,
700,1857.3,5.7,0.0,85.4,0.0,0.0,0.0,0,
800,1857.4,102.2,0.0,78.0,0.0,0.0,0.0,0,
900,1852.9,156.7,0.0,74.4,1445.0,6753.0,5.0,1,
1000,1869.9,343.3,0.0,68.3,1992.0,5878.0,2.0,0,
1100,1851.8,200.4,0.0,55.5,2384.0,5718.0,2.0,0,
1200,1872.5,190.3,0.0,38.7,1110.0,4542.0,2.0,0,
1400,1866.4,148.3,0.0,134.3,2296.0,5881.0,2.0,0,
1500,1844.8,13.8,0.0,185.3,1489.0,5033.0,2.0,0,
1600,1857.1,10.4,189.0,199.2,1489.0,5033.0,2.0,0,
1700,1851.3,5.4,189.1,199.4,1489.0,5033.0,2.0,0,
1900,1857.8,5.8,189.1,170.2,1489.0,5033.0,2.0,0,
2000,1858.5,5.7,189.1,98.7,1489.0,5033.0,2.0,0,
2100,1857.9,6.4,189.1,101.6,1489.0,5033.0,2.0,0,
2200,1858.3,5.7,189.1,99.0,1489.0,5033.0,2.0,0,
2500,1869.2,84.5,188.1,67.8,999.0,4542.0,6.0,1,
2700,1869.4,92.8,151.5,55.6,969.0,3598.0,2.0,0,
2800,1848.8,160.8,135.6,66.1,860.0,4009.0,2.0,0,
3000,1843.1,90.0,118.6,184.4,1164.0,4070.0,2.0,0,
3100,1859.7,27.4,115.9,168.7,812.0,3691.0,2.0,0,
3200,1859.8,13.3,115.9,183.0,812.0,3691.0,2.0,0,
3300,1853.8,6.9,115.8,134.7,812.0,3691.0,2.0,0,
3700,1858.5,5.8,115.8,100.2,812.0,3691.0,2.0,0,
3800,1859.1,5.1,115.8,98.8,812.0,3691.0,2.0,0,
3900,1859.9,5.8,115.8,68.9,812.0,3691.0,2.0,0,
4000,1858.8,5.7,115.8,74.7,812.0,3691.0,2.0,0,
4100,1864.4,159.8,115.7,99.4,787.0,4138.0,2.0,0,
4300,1849.7,121.8,132.0,36.6,833.0,4136.0,2.0,0,
4700,1873.0,46.5,125.8,103.8,710.0,3719.0,2.0,0,
4800,1850.6,7.8,126.5,139.2,710.0,3719.0,2.0,0,
4900,1856.4,7.7,126.5,102.6,710.0,3719.0,2.0,0,
5000,1857.0,5.7,126.5,41.9,710.0,3719.0,2.0,0,
5100,1859.8,5.2,126.5,35.5,710.0,3719.0,2.0,0,
5200,1860.3,4.9,126.5,39.5,710.0,3719.0,2.0,0,
5300,1859.2,4.6,126.4,83.8,710.0,3719.0,2.0,0,
5500,1860.5,5.9,126.4,99.3,710.0,3719.0,2.0,0,
5800,1867.4,175.3,127.3,38.6,1447.0,5249.0,2.0,0,
6000,1847.0,155.1,128.1,37.9,889.0,3677.0,2.0,0,
6100,1871.7,104.3,128.6,67.7,974.0,4262.0,2.0,0,
6200,1860.8,152.6,129.3,168.3,1247.0,4924.0,28.0,0,
6300,1845.8,93.5,131.7,165.9,663.0,3658.0,2.0,0,
6500,1860.6,7.0,131.4,125.7,663.0,3658.0,2.0,0,
6600,1857.1,5.2,131.4,66.9,663.0,3658.0,2.0,0,
6700,1860.1,5.4,131.4,35.5,663.0,3658.0,2.0,0,
6800,1859.0,4.9,131.4,34.9,663.0,3658.0,2.0,0,
6900,1859.2,5.2,131.4,100.6,663.0,3658.0,2.0,0,
7000,1860.1,5.3,131.4,103.8,663.0,3658.0,2.0,0,
7100,1859.9,5.9,131.4,82.8,663.0,3658.0,2.0,0,
7200,1859.5,5.1,131.4,82.4,663.0,3658.0,2.0,0,
7300,1860.0,19.3,131.4,99.9,663.0,3658.0,2.0,0,
7500,1852.6,158.6,112.9,66.9,1210.0,5014.0,2.0,0,
7600,1872.2,217.8,115.0,68.7,958.0,3254.0,27.0,0,
7700,1858.9,144.2,123.9,131.8,1166.0,4699.0,28.0,0,
7800,1850.4,197.3,124.1,175.6,794.0,4136.0,28.0,0,
7900,1854.1,72.6,125.9,167.1,1181.0,4695.0,2.0,0,
8000,1864.3,9.6,122.2,166.6,1261.0,4532.0,2.0,0,
8100,1859.6,9.7,122.3,134.6,1261.0,4532.0,2.0,0,
8200,1856.7,6.7,122.3,134.4,1261.0,4532.0,2.0,0,
8300,1858.7,5.6,122.3,152.6,1261.0,4532.0,2.0,0,
8500,1859.1,5.6,122.3,68.8,1261.0,4532.0,2.0,0,
8600,1859.2,5.4,122.3,85.7,1261.0,4532.0,2.0,0,
8700,1859.5,5.5,122.3,99.1,1261.0,4532.0,2.0,0,
8800,1859.8,5.4,122.3,99.0,1261.0,4532.0,2.0,0,
8900,1859.7,5.3,122.3,101.9,1261.0,4532.0,2.0,0,
9000,1856.2,81.9,122.3,82.4,1307.0,6184.0,5.0,1,
9100,1883.7,136.9,122.1,43.1,1122.0,4960.0,2.0,0,
9200,1844.8,81.8,123.6,40.9,1265.0,3872.0,28.0,0,
9300,1851.5,145.3,113.2,67.7,820.0,3979.0,28.0,0,
9500,1855.9,91.0,106.5,183.2,1209.0,4506.0,2.0,0,
9600,1865.4,23.0,110.9,167.7,710.0,3451.0,2.0,0,
9700,1861.5,6.4,110.9,168.4,710.0,3451.0,2.0,0,
9800,1856.5,6.3,110.9,167.7,710.0,3451.0,2.0,0,
9900,1859.8,5.9,110.9,104.8,710.0,3451.0,2.0,0,
10000,1861.5,5.2,110.9,65.7,710.0,3451.0,2.0,0,
10100,1859.5,5.1,110.9,84.6,710.0,3451.0,2.0,0,
10200,1859.3,5.2,110.9,83.2,710.0,3451.0,2.0,0,
10300,1860.2,5.9,110.9,83.8,710.0,3451.0,2.0,0,
10500,1859.7,5.1,110.9,101.5,710.0,3451.0,2.0,0,
10600,1863.4,61.5,110.9,100.2,946.0,4734.0,6.0,1,
10700,1855.3,50.3,108.7,71.0,1152.0,5518.0,5.0,1,
10800,1858.2,54.5,95.6,66.8,966.0,3610.0,5.0,1,
10900,1854.5,152.9,94.2,66.1,1168.0,4467.0,2.0,0,
11000,1860.7,87.9,91.1,144.2,1160.0,4713.0,2.0,0,
11100,1881.7,116.8,86.7,225.7,1087.0,5107.0,28.0,0,
11200,1834.2,46.9,89.7,168.3,540.0,3358.0,14.0,1,
11300,1862.5,7.8,91.5,167.4,540.0,3358.0,14.0,1,
11500,1857.1,6.3,91.6,56.0,540.0,3358.0,14.0,1,
11600,1858.9,5.7,91.6,37.4,540.0,3358.0,14.0,1,
11700,1859.8,5.5,91.6,36.9,540.0,3358.0,14.0,1,
11800,1858.8,6.1,91.6,89.3,540.0,3358.0,14.0,1,
11900,1858.7,6.1,91.6,100.4,540.0,3358.0,14.0,1,
12000,1859.5,4.9,91.6,111.3,540.0,3358.0,14.0,1,
12100,1859.5,5.4,91.6,101.3,540.0,3358.0,14.0,1,
12200,1858.9,67.3,91.6,132.4,540.0,3358.0,14.0,1,
12300,1853.7,117.3,95.2,76.6,1197.0,6075.0,5.0,1,
12500,1862.8,103.9,106.6,65.8,1135.0,4715.0,28.0,0,
12600,1876.0,170.6,105.6,76.9,1180.0,5247.0,28.0,0,
12700,1837.2,160.3,110.4,186.2,1336.0,4578.0,2.0,0,
12800,1861.0,52.2,112.8,142.0,1277.0,4539.0,2.0,0,
12900,1861.4,7.6,106.2,89.6,1277.0,4539.0,2.0,0,
13000,1860.6,8.3,106.2,103.2,1277.0,4539.0,2.0,0,
13100,1857.7,5.4,106.2,106.3,1277.0,4539.0,2.0,0,
13200,1859.0,5.4,106.2,135.5,1277.0,4539.0,2.0,0,
13300,1859.7,5.6,106.2,99.9,1277.0,4539.0,2.0,0,
13500,1860.0,4.9,106.1,152.8,1277.0,4539.0,2.0,0,
13600,1860.1,5.5,106.1,133.0,1277.0,4539.0,2.0,0,
13700,1859.0,6.4,106.1,105.0,1277.0,4539.0,2.0,0,
13800,1859.5,86.0,106.1,122.5,1277.0,4539.0,2.0,0,
13900,1858.0,108.2,106.2,80.0,1191.0,5980.0,5.0,1,
14000,1862.2,128.2,111.2,56.4,1132.0,4989.0,28.0,0,
14100,1871.0,115.6,115.1,39.4,1205.0,4800.0,28.0,0,
14200,1842.7,179.5,113.5,37.5,776.0,3801.0,28.0,0,
14300,1860.5,195.2,112.0,91.7,1188.0,4922.0,2.0,0,
14500,1855.1,10.3,115.6,134.1,1250.0,4273.0,2.0,0,rest_end
14600,1860.0,7.2,115.6,104.9,1250.0,4273.0,2.0,0,
14700,1857.7,7.3,115.6,134.5,1250.0,4273.0,2.0,0,
14800,1859.0,6.3,115.6,190.0,1250.0,4273.0,2.0,0,
14900,1859.5,6.0,115.6,195.3,1250.0,4273.0,2.0,0,
15000,1859.8,5.1,115.6,111.2,1250.0,4273.0,2.0,0,
15100,1860.4,5.4,115.6,107.1,1250.0,4273.0,2.0,0,
15200,1859.7,6.1,115.6,102.2,1250.0,4273.0,2.0,0,
15300,1860.3,4.7,115.6,100.3,1250.0,4273.0,2.0,0,
15500,1856.6,100.2,115.3,98.7,1066.0,5351.0,6.0,1,
15800,1855.9,72.5,113.4,54.6,1092.0,4773.0,28.0,0,
15900,1862.0,82.1,108.6,99.5,1122.0,5034.0,28.0,0,
16000,1872.8,147.2,104.6,172.4,1177.0,5636.0,28.0,0,
16100,1837.3,16.8,107.6,167.2,1275.0,4677.0,2.0,0,
16200,1861.1,6.1,107.6,137.4,1275.0,4677.0,2.0,0,
16300,1857.7,7.5,107.6,156.8,1275.0,4677.0,2.0,0,
16500,1861.5,4.7,107.6,201.5,1275.0,4677.0,2.0,0,
16600,1860.4,5.3,107.6,100.1,1275.0,4677.0,2.0,0,
16900,1861.1,6.0,107.5,99.9,1275.0,4677.0,2.0,0,
17000,1861.0,6.4,107.5,98.9,1275.0,4677.0,2.0,0,
17100,1879.4,95.5,107.0,123.8,714.0,3733.0,6.0,1,
17200,1840.2,191.9,106.9,81.8,981.0,4898.0,2.0,0,
17300,1863.4,165.9,106.5,65.9,1144.0,4965.0,2.0,0,
17600,1838.8,163.9,111.7,166.3,1206.0,5075.0,28.0,0,
17700,1854.1,25.5,111.8,166.1,1250.0,4508.0,2.0,0,
17800,1862.4,7.1,111.8,133.9,1250.0,4508.0,2.0,0,
18000,1863.0,5.3,111.7,185.8,1250.0,4508.0,2.0,0,
18100,1862.3,5.8,111.7,219.4,1250.0,4508.0,2.0,0,
18200,1861.9,5.4,111.7,68.1,1250.0,4508.0,2.0,0,
18300,1862.7,4.9,111.6,91.1,1250.0,4508.0,2.0,0,
18800,1857.8,174.2,111.2,68.9,974.0,4537.0,2.0,0,
19100,1843.4,147.3,109.2,80.4,1462.0,5047.0,28.0,0,
19200,1856.1,156.1,109.4,199.3,1354.0,4509.0,2.0,0,
19300,1864.1,49.4,107.4,199.3,1175.0,4359.0,2.0,0,
19500,1861.7,5.9,108.5,157.5,1175.0,4359.0,2.0,0,
19600,1861.2,5.6,108.5,166.7,1175.0,4359.0,2.0,0,
19700,1859.7,6.0,108.5,200.6,1175.0,4359.0,2.0,0,
19900,1859.8,5.2,108.6,69.2,1175.0,4359.0,2.0,0,
20500,1888.2,117.8,104.0,55.8,1022.0,4551.0,2.0,0,
20600,1839.4,97.6,104.2,43.4,1502.0,4390.0,28.0,0,
20800,1855.4,83.0,110.5,154.7,1078.0,4565.0,2.0,0,
21000,1855.6,10.4,114.1,167.4,1078.0,4565.0,2.0,0,
21500,1859.0,5.2,114.1,93.1,1078.0,4565.0,2.0,0,
21600,1859.9,4.9,114.1,99.9,1078.0,4565.0,2.0,0,
21700,1859.5,5.9,114.2,106.3,1078.0,4565.0,2.0,0,
21800,1858.1,6.3,114.2,103.5,1078.0,4565.0,2.0,0,
21900,1858.9,19.7,114.2,99.3,1078.0,4565.0,2.0,0,
22100,1850.4,103.4,114.0,65.5,1613.0,5477.0,2.0,0,
22200,1854.7,100.3,115.3,45.8,593.0,3032.0,28.0,0,
22300,1852.5,180.4,114.2,38.0,1049.0,4255.0,2.0,0,
22500,1873.8,126.2,118.7,216.0,1337.0,5280.0,28.0,0,
22600,1839.3,14.0,115.6,198.6,1214.0,4245.0,2.0,0,
22700,1859.6,6.3,115.6,168.7,1214.0,4245.0,2.0,0,
23000,1858.2,6.0,115.6,253.2,1214.0,4245.0,2.0,0,
23700,1850.1,113.3,113.1,82.6,1176.0,6060.0,5.0,1,
23800,1859.7,119.7,112.6,78.0,999.0,4561.0,28.0,0,
23900,1857.6,214.6,109.3,74.9,968.0,3631.0,27.0,0,
24000,1870.3,107.4,117.1,122.4,1185.0,4481.0,28.0,0,
24100,1843.5,148.7,108.8,167.2,751.0,3915.0,28.0,0,
24200,1862.0,25.0,109.4,88.4,1025.0,4319.0,2.0,0,
24300,1855.6,6.5,109.5,157.5,1025.0,4319.0,2.0,0,
24800,1858.7,6.0,109.5,102.3,1025.0,4319.0,2.0,0,
25900,1853.8,7.7,94.8,134.3,1025.0,4319.0,2.0,0,
26300,1858.4,6.2,94.8,199.9,1025.0,4319.0,2.0,0,
26500,1859.3,6.1,94.8,99.9,1025.0,4319.0,2.0,0,
26900,1864.5,134.0,93.6,99.6,1008.0,5127.0,5.0,1,
27000,1865.9,106.2,95.8,78.2,1171.0,5111.0,28.0,0,
27100,1855.3,121.9,101.8,66.6,1067.0,4860.0,28.0,0,
27200,1857.1,162.8,103.5,65.6,1373.0,5014.0,2.0,0,
27300,1856.1,98.3,102.7,94.2,1305.0,5318.0,28.0,0,
27600,1860.7,8.5,107.8,94.5,1305.0,5318.0,28.0,0,
27700,1857.4,6.2,107.8,94.6,1305.0,5318.0,28.0,0,
27800,1858.7,6.2,107.7,131.5,1305.0,5318.0,28.0,0,
28000,1859.6,5.5,107.7,100.6,1305.0,5318.0,28.0,0,
28100,1859.1,6.8,107.7,99.7,1305.0,5318.0,28.0,0,
28200,1859.5,4.9,107.7,99.5,1305.0,5318.0,28.0,0,
28700,1861.7,91.5,110.1,70.4,571.0,3212.0,28.0,0,
28800,1844.1,182.6,108.1,67.1,1243.0,5107.0,28.0,0,
28900,1885.5,151.7,112.7,118.0,1254.0,5325.0,28.0,0,
29000,1840.9,121.8,114.4,201.6,1231.0,5724.0,28.0,0,
29100,1851.8,14.3,112.2,184.5,1196.0,4798.0,2.0,0,
29200,1860.2,5.6,112.2,170.2,1196.0,4798.0,2.0,0,
29300,1859.6,6.0,112.2,201.4,1196.0,4798.0,2.0,0,
29600,1858.1,7.3,112.2,99.1,1196.0,4798.0,2.0,0,
29900,1859.2,6.0,112.2,99.5,1196.0,4798.0,2.0,0,
30200,1854.3,95.7,111.1,36.7,1124.0,5273.0,5.0,1,
