Time(ms),Raw_ADC,ENV_Value,RMS,MDF,MW_Amp,MW_Area,MW_Latency,MW_Valid,Marker
0,1875.5,186.7,0.0,0.0,0.0,0.0,0.0,0,
100,1845.1,79.8,0.0,0.0,0.0,0.0,0.0,0,
200,1856.3,72.6,0.0,0.0,0.0,0.0,0.0,0,
300,1859.5,72.3,0.0,0.0,0.0,0.0,0.0,0,
400,1860.2,67.7,0.0,0.0,0.0,0.0,0.0,0,
500,1859.3,72.1,0.0,114.5,0.0,0.0,0.0,0,
600,1859.5,77.3,0.0,220.7,0.0,0.0,0.0,0,
700,1858.4,84.1,0.0,178.0,0.0,0.0,0.0,0,
800,1860.2,80.5,0.0,122.2,0.0,0.0,0.0,0,
900,1860.6,80.2,0.0,122.6,0.0,0.0,0.0,0,
1000,1861.0,89.8,0.0,217.2,0.0,0.0,0.0,0,
1100,1859.3,127.1,0.0,239.4,0.0,0.0,0.0,0,
1200,1859.3,160.4,0.0,166.8,0.0,0.0,0.0,0,
1300,1861.3,141.4,0.0,131.1,0.0,0.0,0.0,0,
1400,1863.2,209.1,0.0,129.9,0.0,0.0,0.0,0,
1500,1858.1,175.5,0.0,131.5,0.0,0.0,0.0,0,
1600,1858.3,159.6,154.6,194.4,0.0,0.0,0.0,0,
1700,1853.7,104.7,153.2,216.8,0.0,0.0,0.0,0,
1800,1861.8,81.7,153.0,226.4,0.0,0.0,0.0,0,
1900,1857.3,80.1,153.3,197.6,0.0,0.0,0.0,0,
2000,1862.3,82.7,153.7,131.1,0.0,0.0,0.0,0,
2100,1861.8,79.5,154.2,123.9,0.0,0.0,0.0,0,
2200,1856.9,79.8,154.4,238.1,0.0,0.0,0.0,0,
2300,1860.5,81.5,154.5,239.3,0.0,0.0,0.0,0,
2400,1859.3,78.8,154.2,239.8,0.0,0.0,0.0,0,
2600,1857.0,75.3,153.7,241.0,0.0,0.0,0.0,0,
2700,1859.4,169.6,153.2,241.4,0.0,0.0,0.0,0,
2800,1853.1,141.7,157.7,231.3,771.0,3760.0,4.0,1,
2900,1870.5,208.8,156.8,99.4,771.0,3760.0,4.0,1,
3000,1867.6,154.7,163.8,99.7,771.0,3760.0,4.0,1,
3100,1840.3,146.9,161.6,130.6,930.0,3618.0,8.0,1,
3200,1859.2,119.3,158.0,198.9,1090.0,5549.0,8.0,1,
3300,1866.3,107.4,154.6,206.6,980.0,4428.0,8.0,1,
3400,1852.7,78.6,152.2,198.5,980.0,4428.0,8.0,1,
3600,1861.3,81.7,152.1,199.9,980.0,4428.0,8.0,1,
3700,1861.0,82.3,152.0,198.9,980.0,4428.0,8.0,1,
3800,1861.2,80.7,152.0,240.1,980.0,4428.0,8.0,1,
3900,1860.3,85.1,152.0,241.1,980.0,4428.0,8.0,1,
4000,1860.1,82.4,152.1,241.1,980.0,4428.0,8.0,1,
4100,1860.2,83.3,152.2,241.0,980.0,4428.0,8.0,1,
4200,1860.6,84.1,152.4,240.9,980.0,4428.0,8.0,1,
4300,1860.7,262.9,152.7,240.8,980.0,4428.0,8.0,1,
4400,1852.2,183.8,156.9,239.4,1016.0,5426.0,12.0,1,
4600,1857.8,158.0,142.7,38.0,1073.0,4043.0,23.0,1,
4700,1847.1,141.0,139.4,53.5,725.0,4858.0,23.0,1,
4800,1859.8,89.4,138.2,85.7,789.0,3305.0,8.0,1,
4900,1859.4,203.3,131.4,107.8,1218.0,5200.0,24.0,1,
5000,1853.2,86.3,134.9,91.8,807.0,4565.0,2.0,0,
5100,1859.0,83.3,134.8,104.1,807.0,4565.0,2.0,0,
5200,1861.6,85.4,134.9,138.6,807.0,4565.0,2.0,0,
5300,1862.5,84.2,135.0,123.2,807.0,4565.0,2.0,0,
5400,1860.4,85.5,135.0,178.0,807.0,4565.0,2.0,0,
5600,1858.5,86.2,135.1,241.9,807.0,4565.0,2.0,0,
5700,1858.1,82.6,135.1,240.9,807.0,4565.0,2.0,0,
5800,1859.6,82.1,135.0,240.4,807.0,4565.0,2.0,0,
5900,1860.5,81.5,135.0,240.7,807.0,4565.0,2.0,0,
6000,1876.3,76.9,124.7,241.1,1007.0,4830.0,11.0,1,
6100,1846.1,95.3,120.1,122.4,789.0,4953.0,12.0,1,
6200,1867.1,146.2,120.7,65.8,970.0,4768.0,11.0,1,
6300,1860.2,108.0,118.1,66.2,678.0,3720.0,8.0,1,
6400,1852.2,124.4,114.1,42.5,943.0,5582.0,8.0,1,
6600,1854.7,82.0,116.1,29.0,815.0,3393.0,8.0,1,
6700,1860.8,80.9,116.0,34.4,815.0,3393.0,8.0,1,
6800,1860.8,83.1,116.0,39.2,815.0,3393.0,8.0,1,
6900,1862.4,82.9,115.9,57.1,815.0,3393.0,8.0,1,
7000,1860.7,83.3,115.8,143.6,815.0,3393.0,8.0,1,
7100,1859.5,82.4,115.7,273.8,815.0,3393.0,8.0,1,
7200,1858.2,84.9,115.6,262.4,815.0,3393.0,8.0,1,
7300,1860.0,84.2,115.7,261.8,815.0,3393.0,8.0,1,
7400,1859.3,85.7,115.9,265.4,815.0,3393.0,8.0,1,
7600,1860.9,103.4,116.3,240.0,1140.0,5883.0,13.0,1,
7700,1855.4,190.4,117.8,178.0,878.0,5063.0,12.0,1,
7800,1868.5,131.1,122.4,55.8,763.0,4284.0,5.0,1,
7900,1866.2,145.4,118.4,30.2,915.0,5448.0,10.0,1,
8000,1848.5,79.3,123.7,29.4,704.0,3328.0,8.0,1,
8100,1853.3,119.2,119.7,29.1,909.0,5386.0,8.0,1,
8200,1867.8,97.7,117.4,28.5,818.0,4918.0,10.0,1,
8300,1856.1,81.3,118.8,28.0,818.0,4918.0,10.0,1,
8400,1860.0,84.4,118.8,28.9,818.0,4918.0,10.0,1,
8600,1859.5,88.3,119.1,83.9,818.0,4918.0,10.0,1,
8700,1857.1,85.6,119.3,240.4,818.0,4918.0,10.0,1,
8800,1858.6,88.1,119.5,240.8,818.0,4918.0,10.0,1,
8900,1858.4,87.3,119.8,240.5,818.0,4918.0,10.0,1,
9000,1859.4,88.3,119.9,240.6,818.0,4918.0,10.0,1,
9100,1859.4,85.0,119.9,240.8,818.0,4918.0,10.0,1,
9200,1859.3,262.1,120.0,240.7,1011.0,6238.0,13.0,1,
9300,1857.0,182.2,129.3,178.3,976.0,4928.0,12.0,1,
9400,1862.6,133.4,129.6,86.1,1041.0,5382.0,11.0,1,
9600,1850.4,205.2,126.9,72.4,1153.0,5936.0,25.0,0,
9700,1861.3,92.1,136.8,49.3,1233.0,4602.0,25.0,0,
9800,1853.0,133.9,135.3,44.9,848.0,5149.0,8.0,1,
9900,1861.2,87.0,138.7,91.4,848.0,5149.0,8.0,1,
10000,1860.7,86.3,138.8,91.2,848.0,5149.0,8.0,1,
10100,1862.4,88.6,139.0,66.1,848.0,5149.0,8.0,1,
10200,1861.0,90.7,139.3,37.7,848.0,5149.0,8.0,1,
10300,1859.1,90.5,139.5,239.9,848.0,5149.0,8.0,1,
10400,1860.2,91.3,139.8,241.1,848.0,5149.0,8.0,1,
10600,1859.0,88.3,139.9,241.0,848.0,5149.0,8.0,1,
10700,1858.0,89.0,140.0,240.6,848.0,5149.0,8.0,1,
10800,1859.2,146.7,140.2,240.3,848.0,5149.0,8.0,1,
10900,1873.4,168.8,132.2,240.2,1309.0,7204.0,13.0,1,
11000,1843.4,130.5,135.2,71.0,830.0,4571.0,4.0,1,
11100,1867.5,143.7,135.4,56.8,902.0,5434.0,11.0,1,
11200,1862.7,135.2,140.2,67.1,669.0,3147.0,3.0,1,
11300,1848.8,113.8,133.5,91.4,824.0,5540.0,8.0,1,
11400,1867.1,113.7,128.5,72.0,632.0,3705.0,8.0,1,
11600,1860.9,92.2,125.0,30.1,632.0,3705.0,8.0,1,
11700,1861.6,80.1,125.2,43.8,632.0,3705.0,8.0,1,
11800,1860.8,80.0,124.7,54.5,632.0,3705.0,8.0,1,
11900,1858.2,76.8,124.2,236.7,632.0,3705.0,8.0,1,
12000,1859.7,90.1,123.6,240.6,632.0,3705.0,8.0,1,
12100,1863.0,88.6,123.9,239.1,632.0,3705.0,8.0,1,
12200,1859.0,77.9,123.8,174.4,632.0,3705.0,8.0,1,
12300,1861.0,71.3,123.2,144.3,632.0,3705.0,8.0,1,
12400,1862.8,70.9,122.4,143.1,632.0,3705.0,8.0,1,
12600,1845.5,242.2,123.5,125.5,815.0,4658.0,19.0,1,
12700,1862.5,119.6,134.1,100.7,593.0,3494.0,9.0,1,
12800,1871.8,137.2,126.6,79.2,1057.0,5852.0,23.0,1,
12900,1862.4,132.6,133.6,65.8,587.0,4228.0,8.0,1,
13000,1846.4,92.7,134.7,45.6,1017.0,5606.0,8.0,1,
13100,1869.8,83.1,136.2,52.6,977.0,5989.0,8.0,1,
13200,1863.2,84.8,136.1,66.3,977.0,5989.0,8.0,1,
13300,1862.6,89.7,135.9,66.1,977.0,5989.0,8.0,1,
13400,1863.2,83.6,136.7,43.6,977.0,5989.0,8.0,1,
13600,1858.2,83.7,137.1,178.5,977.0,5989.0,8.0,1,
13700,1855.7,89.2,136.9,239.0,977.0,5989.0,8.0,1,
13800,1860.1,118.8,137.0,239.3,977.0,5989.0,8.0,1,
13900,1857.9,117.7,138.9,239.5,977.0,5989.0,8.0,1,
14000,1858.6,84.4,141.1,239.5,977.0,5989.0,8.0,1,
14100,1858.5,244.9,141.8,218.9,1386.0,6020.0,19.0,1,
14200,1866.8,185.5,154.8,99.6,741.0,3875.0,5.0,1,
14300,1850.3,156.9,146.6,46.3,1096.0,4985.0,15.0,1,
14400,1866.3,138.4,150.3,39.9,637.0,3573.0,8.0,1,
14600,1856.3,139.9,146.2,35.5,1156.0,5475.0,25.0,0,
14700,1864.9,96.9,150.2,35.8,687.0,3594.0,9.0,1,
14800,1861.3,73.5,149.7,89.2,687.0,3594.0,9.0,1,rest_end
14900,1859.0,95.1,149.5,76.7,687.0,3594.0,9.0,1,
15000,1860.4,80.2,149.4,68.7,687.0,3594.0,9.0,1,
15100,1859.7,78.7,149.2,75.3,687.0,3594.0,9.0,1,
15200,1855.5,139.2,149.4,178.7,687.0,3594.0,9.0,1,
15300,1856.0,128.1,152.4,238.6,687.0,3594.0,9.0,1,
15400,1860.5,134.4,154.1,176.2,687.0,3594.0,9.0,1,
15600,1858.6,112.6,152.4,177.1,687.0,3594.0,9.0,1,
15700,1858.6,226.3,153.7,87.8,505.0,2915.0,14.0,1,
15800,1866.7,121.3,146.0,69.2,812.0,5108.0,13.0,1,
15900,1845.5,116.3,140.8,54.0,680.0,3665.0,12.0,1,
16000,1861.3,177.3,134.7,30.0,1264.0,6124.0,23.0,1,
16100,1865.1,254.2,145.7,30.1,554.0,3909.0,8.0,1,
16200,1845.4,109.5,149.4,43.9,1010.0,4663.0,8.0,1,
16300,1874.1,122.0,147.9,93.5,1270.0,5352.0,23.0,1,
16400,1846.7,81.4,153.9,93.0,1270.0,5352.0,23.0,1,
16600,1859.3,86.3,153.6,105.5,1270.0,5352.0,23.0,1,
16700,1859.4,85.4,153.8,100.5,1270.0,5352.0,23.0,1,
16800,1855.5,80.9,153.9,239.7,1270.0,5352.0,23.0,1,
16900,1857.5,73.5,151.2,241.0,1270.0,5352.0,23.0,1,
17000,1858.4,70.0,148.8,239.6,1270.0,5352.0,23.0,1,
17100,1859.1,72.0,145.9,239.3,1270.0,5352.0,23.0,1,
17200,1857.5,75.3,145.7,239.3,1270.0,5352.0,23.0,1,
17300,1857.2,117.8,144.7,239.3,944.0,6408.0,14.0,1,
17400,1870.0,101.4,139.0,239.6,884.0,4592.0,5.0,1,
17600,1863.6,109.5,140.1,41.8,582.0,3054.0,4.0,1,
17700,1869.5,198.9,131.0,37.8,803.0,5152.0,9.0,1,
17800,1856.9,122.8,122.2,29.7,550.0,3596.0,7.0,1,
17900,1841.1,101.1,122.4,29.3,905.0,4318.0,8.0,1,
18000,1865.7,81.7,109.9,28.8,905.0,4318.0,8.0,1,
18100,1856.4,83.6,109.9,28.8,905.0,4318.0,8.0,1,
18200,1859.3,86.0,110.1,30.2,905.0,4318.0,8.0,1,
18300,1860.6,77.6,110.0,67.4,905.0,4318.0,8.0,1,
18400,1858.4,74.1,109.6,239.5,905.0,4318.0,8.0,1,
18600,1859.1,99.1,109.8,240.0,905.0,4318.0,8.0,1,
18700,1863.2,75.3,111.7,240.3,905.0,4318.0,8.0,1,
18800,1856.6,73.8,112.1,232.4,905.0,4318.0,8.0,1,
18900,1860.8,74.7,112.3,175.6,905.0,4318.0,8.0,1,
19000,1864.0,216.8,110.9,72.3,1300.0,6640.0,20.0,1,
19100,1865.1,158.8,131.2,71.4,549.0,3247.0,4.0,1,
19200,1855.4,125.9,129.6,92.8,746.0,5200.0,8.0,1,
19300,1868.0,108.1,131.6,93.1,658.0,3143.0,8.0,1,
19400,1843.4,139.7,127.0,88.7,1070.0,4785.0,24.0,1,
19600,1868.0,81.7,137.2,68.8,563.0,3979.0,13.0,1,
19700,1860.6,78.6,137.1,100.4,563.0,3979.0,13.0,1,
19800,1858.7,80.3,136.8,83.0,563.0,3979.0,13.0,1,
19900,1862.7,80.1,136.6,50.2,563.0,3979.0,13.0,1,
20000,1856.3,75.1,136.7,69.3,563.0,3979.0,13.0,1,
20100,1855.6,79.0,136.6,240.3,563.0,3979.0,13.0,1,
20200,1857.4,77.5,136.8,240.1,563.0,3979.0,13.0,1,
20300,1858.2,79.0,135.6,239.6,563.0,3979.0,13.0,1,
20400,1859.3,78.4,135.3,239.4,563.0,3979.0,13.0,1,
20600,1862.8,193.2,135.4,240.3,715.0,3973.0,13.0,1,
20700,1860.0,105.2,129.9,94.1,848.0,5298.0,13.0,1,
20800,1852.8,63.9,120.5,39.8,689.0,3165.0,4.0,1,
20900,1863.9,137.5,117.0,29.4,766.0,5009.0,11.0,1,
21000,1863.6,246.4,122.1,29.2,795.0,4374.0,12.0,1,
21100,1852.5,128.1,129.7,28.5,670.0,3259.0,8.0,1,
21200,1866.5,76.9,118.6,28.2,791.0,4789.0,9.0,1,
21300,1845.9,75.3,119.1,28.6,791.0,4789.0,9.0,1,
21400,1856.3,75.1,119.0,35.3,791.0,4789.0,9.0,1,
21600,1860.5,76.5,118.8,91.7,791.0,4789.0,9.0,1,
21700,1855.2,75.1,119.0,240.3,791.0,4789.0,9.0,1,
21800,1859.8,78.1,118.7,240.2,791.0,4789.0,9.0,1,
21900,1858.5,71.6,118.9,239.8,791.0,4789.0,9.0,1,
22000,1859.6,79.7,118.8,178.1,791.0,4789.0,9.0,1,
22100,1859.9,77.6,118.7,145.9,791.0,4789.0,9.0,1,
22200,1858.5,172.7,118.7,238.5,918.0,6584.0,13.0,1,
22300,1867.7,158.4,121.8,103.7,628.0,3791.0,4.0,1,
22400,1847.0,143.3,124.2,67.4,743.0,5170.0,12.0,1,
22600,1862.5,187.1,127.5,34.2,701.0,3405.0,8.0,1,
22700,1853.6,119.8,119.1,29.2,751.0,4394.0,13.0,1,
22800,1840.8,83.2,121.3,28.9,492.0,2954.0,8.0,1,
22900,1856.8,72.5,120.9,28.0,492.0,2954.0,8.0,1,
23000,1855.9,74.9,120.9,29.3,492.0,2954.0,8.0,1,
23100,1860.7,72.1,120.8,42.3,492.0,2954.0,8.0,1,
23200,1854.2,77.5,120.4,66.6,492.0,2954.0,8.0,1,
23300,1858.6,83.9,120.6,178.6,492.0,2954.0,8.0,1,
23400,1860.2,71.3,121.0,165.6,492.0,2954.0,8.0,1,
23600,1857.1,75.6,120.8,147.2,492.0,2954.0,8.0,1,
23700,1862.4,72.7,120.8,150.4,492.0,2954.0,8.0,1,
23800,1857.1,121.5,120.6,173.9,646.0,4583.0,13.0,1,
23900,1863.8,75.3,113.8,141.5,886.0,5297.0,12.0,1,
24000,1868.4,221.2,111.8,66.4,727.0,4767.0,5.0,1,
24100,1852.2,104.8,115.5,65.6,620.0,3707.0,12.0,1,
24200,1878.3,72.2,110.5,35.4,591.0,3879.0,13.0,1,
24300,1841.9,166.5,105.6,29.3,477.0,2875.0,11.0,1,
24400,1855.9,78.0,114.5,27.9,589.0,4347.0,12.0,1,
24600,1859.7,72.9,114.4,37.3,589.0,4347.0,12.0,1,
24700,1862.4,77.4,114.4,35.9,589.0,4347.0,12.0,1,
24800,1869.6,80.7,114.8,35.9,589.0,4347.0,12.0,1,
24900,1876.7,80.8,115.0,220.6,589.0,4347.0,12.0,1,
25000,1866.2,78.9,115.0,240.1,589.0,4347.0,12.0,1,
25100,1861.2,81.0,115.3,240.7,589.0,4347.0,12.0,1,
25200,1859.3,81.6,115.4,240.7,589.0,4347.0,12.0,1,
25300,1858.6,82.6,115.7,240.3,589.0,4347.0,12.0,1,
25400,1858.0,85.4,115.9,240.3,589.0,4347.0,12.0,1,
25600,1862.3,210.6,121.4,48.8,851.0,4832.0,13.0,1,
25700,1858.5,142.6,120.2,36.1,759.0,4453.0,4.0,1,
25800,1848.4,122.6,128.5,35.1,652.0,3573.0,4.0,1,
25900,1852.0,110.2,132.1,29.6,734.0,4441.0,12.0,1,
26000,1859.8,101.8,124.6,28.6,406.0,3131.0,4.0,1,
26100,1849.1,73.0,124.2,27.8,487.0,2904.0,9.0,1,
26200,1856.9,75.6,124.3,29.3,487.0,2904.0,9.0,1,
26300,1858.7,71.0,124.2,30.2,487.0,2904.0,9.0,1,
26400,1856.7,66.9,123.8,65.8,487.0,2904.0,9.0,1,
26600,1873.4,81.4,123.2,240.5,487.0,2904.0,9.0,1,
26700,1864.4,79.7,123.2,240.0,487.0,2904.0,9.0,1,
26800,1861.6,82.7,123.1,239.8,487.0,2904.0,9.0,1,
26900,1859.8,81.2,123.2,240.7,487.0,2904.0,9.0,1,
27000,1860.5,78.9,123.2,241.0,487.0,2904.0,9.0,1,
27100,1859.1,169.4,122.8,240.7,1044.0,5799.0,13.0,1,
27200,1868.3,119.2,123.6,90.0,737.0,4301.0,12.0,1,
27300,1843.4,88.1,119.7,56.8,723.0,4750.0,5.0,1,
27400,1859.0,96.6,117.7,37.5,773.0,5366.0,13.0,1,
27600,1850.0,78.7,113.2,29.7,609.0,3741.0,13.0,1,
27700,1857.5,68.4,112.6,29.6,614.0,4130.0,12.0,1,
27800,1854.1,63.7,112.5,29.1,614.0,4130.0,12.0,1,
27900,1858.8,61.3,112.0,28.0,614.0,4130.0,12.0,1,
28000,1858.7,57.8,111.6,38.1,614.0,4130.0,12.0,1,
28100,1856.5,70.7,111.1,78.9,614.0,4130.0,12.0,1,
28200,1866.2,81.9,110.5,239.5,614.0,4130.0,12.0,1,
28300,1868.7,81.4,110.5,239.7,614.0,4130.0,12.0,1,
28400,1862.7,81.2,110.5,235.4,614.0,4130.0,12.0,1,
28600,1864.4,79.7,110.5,240.4,614.0,4130.0,12.0,1,
28700,1859.3,148.2,110.5,240.6,737.0,5879.0,13.0,1,
28800,1857.0,154.6,106.4,177.0,916.0,5137.0,12.0,1,
28900,1864.0,241.8,109.5,93.6,1051.0,6455.0,13.0,1,
29000,1848.7,131.4,118.6,70.3,742.0,4345.0,4.0,1,
29100,1862.6,90.4,116.5,29.6,699.0,4731.0,13.0,1,
29200,1841.4,75.8,111.7,28.5,544.0,3423.0,5.0,1,
29300,1852.9,73.1,110.7,27.9,518.0,3435.0,12.0,1,
29400,1861.1,63.0,110.8,28.6,518.0,3435.0,12.0,1,
29600,1859.0,59.8,110.7,57.0,518.0,3435.0,12.0,1,
29700,1859.5,59.7,110.9,81.6,518.0,3435.0,12.0,1,
29800,1862.7,77.5,110.7,238.3,518.0,3435.0,12.0,1,
29900,1868.0,81.4,110.4,238.5,518.0,3435.0,12.0,1,
30000,1862.3,79.5,110.3,239.6,518.0,3435.0,12.0,1,
30100,1862.1,82.7,110.2,238.8,518.0,3435.0,12.0,1,
30200,1859.8,80.8,110.2,240.3,518.0,3435.0,12.0,1,
30300,1859.6,80.8,110.2,240.7,928.0,5417.0,14.0,1,
30400,1868.2,97.6,107.6,239.7,928.0,6333.0,13.0,1,
30600,1865.1,87.2,93.0,69.6,733.0,4952.0,13.0,1,
30700,1856.8,87.3,93.4,67.2,722.0,3841.0,4.0,1,
30800,1847.6,72.6,94.7,29.9,662.0,4043.0,13.0,1,
30900,1869.3,70.4,95.1,29.1,576.0,4382.0,14.0,1,
31000,1856.3,62.4,95.0,28.6,576.0,4382.0,14.0,1,
31100,1858.8,58.9,94.9,30.0,576.0,4382.0,14.0,1,
31200,1859.7,55.2,94.6,43.5,576.0,4382.0,14.0,1,
31300,1858.8,50.7,94.4,54.4,576.0,4382.0,14.0,1,
31400,1858.9,52.1,94.0,238.9,576.0,4382.0,14.0,1,
31600,1859.2,51.6,91.2,240.0,576.0,4382.0,14.0,1,
31700,1860.0,54.1,89.8,239.7,576.0,4382.0,14.0,1,
31800,1860.3,56.5,88.4,240.0,576.0,4382.0,14.0,1,
31900,1859.3,70.2,87.1,240.3,576.0,4382.0,14.0,1,
32000,1867.1,116.0,87.9,204.0,602.0,3784.0,15.0,1,
32100,1871.0,91.2,86.3,72.1,697.0,4699.0,14.0,1,
32200,1850.9,68.8,84.9,75.0,534.0,3350.0,13.0,1,
32300,1871.1,75.0,82.5,76.9,599.0,4370.0,13.0,1,
32400,1865.3,66.2,82.4,86.2,479.0,3592.0,15.0,1,
32600,1861.7,48.9,80.2,140.8,603.0,3806.0,13.0,1,
32700,1860.3,45.0,79.4,132.9,603.0,3806.0,13.0,1,
32800,1858.4,41.7,78.7,71.1,603.0,3806.0,13.0,1,
32900,1858.7,30.6,78.0,57.0,603.0,3806.0,13.0,1,
33000,1861.0,35.8,77.3,178.3,603.0,3806.0,13.0,1,
33100,1863.0,40.0,76.8,240.9,603.0,3806.0,13.0,1,
33200,1860.4,38.1,76.2,240.5,603.0,3806.0,13.0,1,
33300,1859.9,42.2,75.6,239.7,603.0,3806.0,13.0,1,
33400,1863.1,42.2,75.2,240.7,603.0,3806.0,13.0,1,
33600,1883.5,131.0,73.8,240.2,697.0,4784.0,14.0,1,
33700,1837.4,95.3,80.3,50.0,545.0,3210.0,13.0,1,
33800,1871.2,76.1,81.3,40.4,640.0,4211.0,13.0,1,
33900,1868.0,90.8,91.6,44.7,530.0,3245.0,4.0,1,
34000,1858.0,152.0,94.9,87.1,570.0,3272.0,13.0,1,
34100,1859.6,67.9,100.8,42.0,492.0,3481.0,14.0,1,
34200,1858.7,29.9,100.5,30.2,386.0,2954.0,14.0,1,
34300,1858.7,19.6,100.0,36.5,386.0,2954.0,14.0,1,
34400,1859.2,22.1,99.5,38.5,386.0,2954.0,14.0,1,
34600,1860.8,5.8,98.7,65.8,386.0,2954.0,14.0,1,
34700,1862.2,7.3,98.2,56.3,386.0,2954.0,14.0,1,
34800,1861.4,8.4,97.6,75.4,386.0,2954.0,14.0,1,
34900,1859.7,8.7,97.1,243.2,386.0,2954.0,14.0,1,
35000,1859.5,9.0,96.5,252.4,386.0,2954.0,14.0,1,
35100,1857.5,9.3,95.8,240.5,386.0,2954.0,14.0,1,
35200,1859.4,66.4,95.2,240.3,573.0,3561.0,14.0,1,
35300,1871.8,61.2,85.5,91.9,671.0,4501.0,14.0,1,
35400,1850.3,58.1,85.1,68.1,378.0,2407.0,14.0,1,
35600,1855.7,65.7,61.4,79.8,349.0,2711.0,14.0,1,
35700,1849.7,38.7,50.4,99.8,493.0,2855.0,14.0,1,
35800,1871.7,21.3,49.2,73.9,559.0,3683.0,13.0,1,
35900,1849.2,8.1,49.4,65.5,559.0,3683.0,13.0,1,
36000,1859.5,7.5,49.2,67.0,559.0,3683.0,13.0,1,
36100,1861.7,6.9,48.7,67.1,559.0,3683.0,13.0,1,
36200,1861.0,7.3,48.8,72.8,559.0,3683.0,13.0,1,
36300,1859.2,7.5,48.7,228.8,559.0,3683.0,13.0,1,
36400,1859.4,6.8,48.6,237.6,559.0,3683.0,13.0,1,
36600,1860.8,6.7,48.7,261.6,559.0,3683.0,13.0,1,
36700,1861.4,5.9,48.7,260.4,559.0,3683.0,13.0,1,
36800,1860.8,94.6,48.7,244.7,733.0,4782.0,15.0,1,
36900,1865.3,72.3,52.2,106.4,453.0,2731.0,15.0,1,
37000,1865.8,78.5,49.9,80.7,618.0,3796.0,14.0,1,
37100,1858.8,45.4,51.8,80.2,358.0,2245.0,13.0,1,
37200,1855.7,45.4,50.4,75.0,516.0,2693.0,14.0,1,
37300,1870.5,63.2,50.3,100.9,486.0,3166.0,14.0,1,
37400,1854.7,20.1,51.3,99.2,318.0,2020.0,14.0,1,
37600,1860.9,6.1,49.5,93.7,318.0,2020.0,14.0,1,
37700,1861.0,6.0,49.5,130.7,318.0,2020.0,14.0,1,
37800,1860.2,7.5,49.4,164.3,318.0,2020.0,14.0,1,
37900,1858.7,7.0,49.4,247.7,318.0,2020.0,14.0,1,
38000,1860.5,6.1,49.4,268.8,318.0,2020.0,14.0,1,
38100,1859.1,6.6,49.4,252.9,318.0,2020.0,14.0,1,
38200,1857.8,6.5,49.4,264.1,318.0,2020.0,14.0,1,
38300,1860.4,6.3,49.4,251.5,318.0,2020.0,14.0,1,
38400,1861.0,42.2,49.4,241.6,318.0,2020.0,14.0,1,
38600,1848.8,44.3,62.8,93.2,349.0,1873.0,15.0,1,
38700,1869.9,42.6,60.9,46.8,518.0,3066.0,14.0,1,
38800,1864.1,75.7,60.9,38.5,431.0,2457.0,15.0,1,
38900,1848.3,50.5,66.0,38.4,363.0,2415.0,14.0,1,
39000,1866.6,50.3,64.5,37.6,522.0,2973.0,14.0,1,
39100,1855.7,8.4,65.5,34.2,522.0,2973.0,14.0,1,
39200,1860.5,6.0,65.5,38.2,522.0,2973.0,14.0,1,
39300,1859.1,7.0,65.4,104.7,522.0,2973.0,14.0,1,
39400,1860.7,6.8,65.5,122.3,522.0,2973.0,14.0,1,
39600,1860.0,7.0,65.5,244.8,522.0,2973.0,14.0,1,
39700,1861.2,6.7,65.5,263.0,522.0,2973.0,14.0,1,
39800,1860.3,7.0,65.5,250.8,522.0,2973.0,14.0,1,
39900,1860.1,7.0,65.5,226.9,522.0,2973.0,14.0,1,
40000,1862.4,6.4,65.5,249.9,522.0,2973.0,14.0,1,
40100,1872.4,63.8,67.4,221.3,472.0,3124.0,18.0,1,
40200,1862.4,61.5,52.8,79.0,579.0,3438.0,14.0,1,
40300,1855.4,35.3,53.6,75.9,381.0,2265.0,15.0,1,
40400,1872.1,50.4,53.0,87.3,491.0,2877.0,14.0,1,
40600,1855.3,23.5,48.5,155.3,339.0,1843.0,14.0,1,
40700,1866.6,9.3,46.8,152.3,417.0,2286.0,15.0,1,
40800,1857.9,6.2,46.8,147.6,417.0,2286.0,15.0,1,
40900,1860.4,5.9,46.8,151.7,417.0,2286.0,15.0,1,
41000,1861.2,6.3,46.8,171.8,417.0,2286.0,15.0,1,
41100,1860.4,6.4,46.7,228.9,417.0,2286.0,15.0,1,
41200,1862.0,6.0,46.8,229.9,417.0,2286.0,15.0,1,
41300,1860.9,7.1,46.7,187.0,417.0,2286.0,15.0,1,
41400,1858.0,7.1,46.7,198.7,417.0,2286.0,15.0,1,
41600,1861.3,5.3,46.7,231.6,417.0,2286.0,15.0,1,
41700,1873.9,92.5,46.7,219.2,601.0,3731.0,15.0,1,
41800,1849.6,47.8,47.5,72.7,311.0,2044.0,16.0,1,
41900,1867.2,50.3,46.4,66.4,512.0,3029.0,14.0,1,
42000,1864.9,55.5,47.0,66.4,394.0,2290.0,15.0,1,
42100,1847.8,53.5,49.2,76.1,357.0,1909.0,15.0,1,
42200,1870.3,51.4,50.4,136.7,480.0,2937.0,15.0,1,
42300,1862.2,18.3,54.9,140.0,468.0,2621.0,15.0,1,
42400,1857.9,6.4,55.4,143.3,468.0,2621.0,15.0,1,
42600,1860.4,7.0,55.5,136.8,468.0,2621.0,15.0,1,
42700,1861.2,6.1,55.5,134.9,468.0,2621.0,15.0,1,
42800,1859.8,6.1,55.4,187.9,468.0,2621.0,15.0,1,
42900,1860.5,7.3,55.4,213.7,468.0,2621.0,15.0,1,
43000,1858.3,5.1,55.4,226.7,468.0,2621.0,15.0,1,
43100,1862.8,6.5,55.5,219.0,468.0,2621.0,15.0,1,
43200,1858.5,6.0,55.4,210.0,468.0,2621.0,15.0,1,
43300,1858.8,56.2,55.4,211.7,379.0,2382.0,19.0,1,
43400,1867.4,65.7,48.8,131.8,530.0,3312.0,15.0,1,
43600,1869.9,22.0,49.5,99.0,383.0,1870.0,14.0,1,
43700,1857.4,103.9,43.5,100.0,417.0,2370.0,15.0,1,
43800,1854.6,21.1,47.9,115.1,177.0,1235.0,28.0,0,
43900,1871.8,13.9,44.9,78.4,374.0,2089.0,15.0,1,
44000,1851.8,5.9,40.3,38.0,374.0,2089.0,15.0,1,
44100,1861.3,6.0,40.3,38.9,374.0,2089.0,15.0,1,
44200,1860.3,5.7,40.2,133.5,374.0,2089.0,15.0,1,
44300,1860.3,6.1,40.2,184.2,374.0,2089.0,15.0,1,
44400,1860.3,5.8,40.2,204.0,374.0,2089.0,15.0,1,
44600,1861.7,7.9,40.2,219.9,374.0,2089.0,15.0,1,
44700,1859.5,7.2,40.2,217.5,374.0,2089.0,15.0,1,
44800,1860.3,7.3,40.2,242.9,374.0,2089.0,15.0,1,
44900,1861.1,58.2,40.3,251.6,547.0,3512.0,16.0,1,
45000,1858.7,70.8,43.8,157.5,303.0,1581.0,18.0,1,
45100,1866.2,45.1,44.2,91.0,455.0,2642.0,14.0,1,
45200,1864.7,47.9,43.7,92.0,461.0,2788.0,14.0,1,
45300,1853.4,20.0,48.1,99.0,289.0,1635.0,15.0,1,
45400,1861.6,40.7,41.1,137.4,426.0,2451.0,15.0,1,
45600,1851.1,7.9,47.0,150.6,426.0,2451.0,15.0,1,
45700,1861.0,6.2,47.0,49.6,426.0,2451.0,15.0,1,
45800,1861.0,6.0,47.0,38.3,426.0,2451.0,15.0,1,
45900,1860.1,6.7,47.1,38.8,426.0,2451.0,15.0,1,
46000,1862.5,5.7,47.1,189.8,426.0,2451.0,15.0,1,
46100,1860.3,6.7,47.1,233.9,426.0,2451.0,15.0,1,
46200,1859.3,6.3,47.1,241.7,426.0,2451.0,15.0,1,
46300,1862.4,6.5,47.1,230.3,426.0,2451.0,15.0,1,
46400,1862.4,8.3,47.1,229.0,426.0,2451.0,15.0,1,
46600,1871.5,101.5,44.4,204.4,450.0,2889.0,16.0,1,
46700,1851.4,37.8,44.8,124.9,382.0,2226.0,16.0,1,
46800,1864.6,23.0,44.9,71.0,352.0,1872.0,15.0,1,
46900,1862.5,83.1,40.5,66.6,360.0,2018.0,15.0,1,
47000,1854.1,12.8,49.3,66.7,162.0,1043.0,27.0,0,
47100,1871.2,28.0,48.0,39.8,304.0,1715.0,16.0,1,
47200,1857.7,9.2,43.5,36.1,318.0,1425.0,16.0,1,
47300,1862.5,6.1,43.5,36.9,318.0,1425.0,16.0,1,
47400,1860.6,6.8,43.5,148.8,318.0,1425.0,16.0,1,
47600,1858.7,5.6,43.6,228.2,318.0,1425.0,16.0,1,
47700,1858.9,5.8,43.5,264.5,318.0,1425.0,16.0,1,
47800,1861.7,7.1,43.5,297.1,318.0,1425.0,16.0,1,
47900,1860.1,6.7,43.5,246.8,318.0,1425.0,16.0,1,
48000,1858.7,5.9,43.6,176.6,318.0,1425.0,16.0,1,
48100,1861.1,6.3,43.5,190.0,318.0,1425.0,16.0,1,
48200,1865.0,68.9,43.5,207.7,424.0,2660.0,18.0,1,
48300,1859.3,35.1,44.5,91.5,405.0,2382.0,15.0,1,
48400,1869.5,27.9,43.5,88.4,314.0,1506.0,16.0,1,
48600,1863.5,30.1,32.7,99.5,342.0,1672.0,16.0,1,
48700,1860.6,14.9,34.3,125.6,189.0,1233.0,16.0,1,
48800,1864.0,8.0,33.5,125.1,129.0,1077.0,26.0,0,
48900,1859.0,7.6,33.5,103.8,129.0,1077.0,26.0,0,
49000,1861.3,6.2,33.5,94.1,129.0,1077.0,26.0,0,
49100,1860.1,7.2,33.5,131.1,129.0,1077.0,26.0,0,
49200,1858.7,6.8,33.4,226.7,129.0,1077.0,26.0,0,
49300,1860.1,6.4,33.5,240.8,129.0,1077.0,26.0,0,
49400,1861.5,7.7,33.5,240.3,129.0,1077.0,26.0,0,
49600,1859.7,5.6,33.5,252.1,129.0,1077.0,26.0,0,
49700,1860.4,5.8,33.5,241.0,129.0,1077.0,26.0,0,
49800,1861.2,51.8,33.5,212.4,409.0,2786.0,16.0,1,
49900,1863.6,30.8,27.7,136.9,262.0,1677.0,16.0,1,
50000,1870.7,11.8,29.6,94.5,197.0,1027.0,14.0,1,
50100,1860.3,15.6,28.4,98.8,173.0,1206.0,22.0,1,
50200,1852.0,9.2,28.5,115.9,173.0,1163.0,28.0,0,
50300,1866.4,29.6,27.2,145.4,313.0,1793.0,16.0,1,
50400,1863.1,15.4,27.9,143.3,305.0,1922.0,17.0,1,
50600,1861.0,7.0,28.6,125.1,305.0,1922.0,17.0,1,
50700,1858.7,7.2,28.6,114.7,305.0,1922.0,17.0,1,
50800,1860.0,7.1,28.6,123.9,305.0,1922.0,17.0,1,
50900,1861.7,8.2,28.7,201.6,305.0,1922.0,17.0,1,
51000,1857.7,5.9,28.6,207.8,305.0,1922.0,17.0,1,
51100,1860.9,7.3,28.6,203.7,305.0,1922.0,17.0,1,
51200,1858.3,5.9,28.6,200.5,305.0,1922.0,17.0,1,
51300,1859.3,5.6,28.5,215.6,305.0,1922.0,17.0,1,
51400,1858.9,42.4,28.5,217.7,415.0,2680.0,18.0,1,
51600,1858.9,41.4,30.4,78.1,373.0,2073.0,15.0,1,
51700,1863.7,27.9,31.6,74.7,300.0,1493.0,5.0,1,
51800,1855.2,55.7,33.6,66.3,259.0,1468.0,5.0,1,
51900,1862.3,15.5,37.9,65.5,310.0,1568.0,4.0,1,
52000,1872.6,13.7,37.0,155.5,163.0,1083.0,16.0,1,
52100,1848.9,7.9,36.1,186.3,163.0,1083.0,16.0,1,
52200,1859.8,8.1,36.1,185.6,163.0,1083.0,16.0,1,
52300,1860.7,7.7,36.2,155.6,163.0,1083.0,16.0,1,
52400,1859.8,5.5,36.1,199.7,163.0,1083.0,16.0,1,
52600,1860.7,6.6,36.1,247.7,163.0,1083.0,16.0,1,
52700,1859.2,7.1,36.1,247.8,163.0,1083.0,16.0,1,
52800,1858.0,7.2,36.1,253.0,163.0,1083.0,16.0,1,
52900,1861.4,8.4,36.1,242.5,163.0,1083.0,16.0,1,
53000,1859.8,109.3,36.1,242.3,163.0,1083.0,16.0,1,
53100,1854.2,42.1,43.1,140.4,358.0,2151.0,17.0,1,
53200,1862.1,10.8,43.3,29.5,229.0,1172.0,16.0,1,
53300,1860.7,44.0,38.2,29.6,275.0,1533.0,15.0,1,
53400,1854.3,10.4,39.5,37.2,279.0,1417.0,5.0,1,
53600,1863.1,23.0,35.3,37.6,218.0,1315.0,17.0,1,
53700,1850.9,7.9,38.1,53.4,130.0,969.0,4.0,1,
53800,1858.9,5.5,38.1,151.8,130.0,969.0,4.0,1,
53900,1860.6,5.4,38.0,152.7,130.0,969.0,4.0,1,
54000,1861.0,6.1,38.0,155.6,130.0,969.0,4.0,1,
54100,1860.8,6.9,38.0,209.4,130.0,969.0,4.0,1,
54200,1860.6,7.7,38.0,226.4,130.0,969.0,4.0,1,
54300,1860.2,6.7,38.0,213.1,130.0,969.0,4.0,1,
54400,1859.9,6.9,38.0,215.5,130.0,969.0,4.0,1,
54600,1859.3,7.6,38.1,212.9,130.0,969.0,4.0,1,
54700,1856.4,10.9,28.0,212.5,212.0,1301.0,17.0,1,
54800,1870.3,23.8,24.0,212.4,269.0,1346.0,16.0,1,
54900,1866.4,6.2,28.2,201.3,141.0,1000.0,14.0,1,
55000,1853.5,8.7,23.5,190.0,173.0,1094.0,27.0,0,
55100,1862.5,12.4,26.8,188.1,149.0,1134.0,25.0,0,
55200,1861.2,9.4,26.7,178.6,159.0,960.0,25.0,0,
55300,1856.0,6.8,22.4,171.1,146.0,1014.0,24.0,1,
55400,1859.2,6.6,22.4,168.0,146.0,1014.0,24.0,1,
55600,1860.4,6.0,22.6,216.4,146.0,1014.0,24.0,1,
55700,1859.5,6.5,22.5,244.7,146.0,1014.0,24.0,1,
55800,1859.8,7.2,22.6,244.0,146.0,1014.0,24.0,1,
55900,1861.3,7.4,22.6,236.9,146.0,1014.0,24.0,1,
56000,1859.3,5.4,22.5,227.2,146.0,1014.0,24.0,1,
56100,1858.6,5.9,22.6,221.3,146.0,1014.0,24.0,1,
56200,1860.0,6.6,22.4,228.7,146.0,1014.0,24.0,1,
56300,1859.5,32.3,22.4,204.7,287.0,1594.0,18.0,1,
56400,1872.9,9.6,24.5,145.2,122.0,848.0,20.0,1,
56600,1852.9,8.4,23.3,90.4,128.0,933.0,19.0,1,
56700,1864.1,6.5,23.2,143.5,129.0,1020.0,19.0,1,
56800,1860.4,22.6,19.1,187.9,140.0,1078.0,28.0,0,
56900,1866.9,7.7,23.3,178.5,160.0,951.0,20.0,1,
57000,1853.7,7.7,23.3,166.5,160.0,951.0,20.0,1,
57100,1861.8,22.3,23.3,165.7,160.0,951.0,20.0,1,
57200,1873.6,377.7,31.3,163.8,2197.0,16485.0,19.0,1,
57300,1882.5,410.8,125.9,87.0,2343.0,17415.0,19.0,1,
57400,1866.2,558.4,180.5,88.5,1769.0,14248.0,2.0,0,
57600,1854.3,806.3,453.0,36.7,4089.0,36561.0,2.0,0,
57700,1937.1,602.6,515.1,29.0,1425.0,11328.0,17.0,1,
57800,1756.4,622.1,549.8,27.9,3216.0,20822.0,7.0,1,
57900,1850.3,65.2,580.1,28.7,196.0,1188.0,16.0,1,
58000,1867.5,111.7,580.1,34.7,571.0,3833.0,16.0,1,
58100,1859.4,79.3,580.9,38.9,376.0,2380.0,16.0,1,
58200,1857.5,24.5,581.2,56.0,169.0,1189.0,18.0,1,
58300,1862.9,8.5,581.3,68.5,163.0,967.0,26.0,0,
58400,1867.9,18.2,581.3,122.5,130.0,892.0,23.0,1,
58600,1863.3,8.5,581.3,150.0,130.0,892.0,23.0,1,
58700,1860.9,8.1,581.3,150.9,130.0,892.0,23.0,1,
58800,1860.6,6.2,581.2,154.2,130.0,892.0,23.0,1,
58900,1861.6,6.3,569.8,221.0,130.0,892.0,23.0,1,
59000,1860.2,6.2,554.6,251.1,130.0,892.0,23.0,1,
59100,1860.4,8.2,530.7,229.6,130.0,892.0,23.0,1,
59200,1860.2,9.3,421.3,229.3,130.0,892.0,23.0,1,
59300,1860.8,10.0,310.5,227.5,130.0,892.0,23.0,1,
59400,1861.1,6.9,203.2,211.7,130.0,892.0,23.0,1,
59600,1869.9,15.0,44.5,173.7,126.0,778.0,15.0,1,
59700,1857.0,27.7,33.5,178.7,130.0,1042.0,27.0,0,
59800,1856.8,8.2,27.1,175.6,134.0,882.0,26.0,0,
59900,1866.0,14.6,26.0,168.7,178.0,1057.0,23.0,1,
60000,1863.2,12.2,25.8,166.3,150.0,1050.0,28.0,0,
60100,1850.6,13.4,22.0,166.7,116.0,954.0,22.0,1,
60200,1866.1,7.6,22.1,166.2,116.0,954.0,22.0,1,
60300,1860.0,6.4,22.1,139.5,116.0,954.0,22.0,1,
60400,1860.0,7.1,22.1,152.7,116.0,954.0,22.0,1,
60600,1858.6,5.8,22.1,210.6,116.0,954.0,22.0,1,
60700,1861.1,6.9,22.1,208.9,116.0,954.0,22.0,1,
60800,1859.8,6.7,22.0,244.2,116.0,954.0,22.0,1,
60900,1860.1,147.0,21.9,265.5,1591.0,8885.0,18.0,1,
61000,1887.9,406.6,87.8,88.9,2101.0,15584.0,18.0,1,
61100,1869.0,382.3,159.7,89.3,2173.0,16225.0,2.0,0,
61200,1881.8,386.5,215.6,89.5,1331.0,9635.0,11.0,1,
61300,1833.7,72.0,240.7,88.9,237.0,1259.0,12.0,1,
61400,1848.6,28.4,240.8,81.4,429.0,2088.0,17.0,1,
61600,1856.6,52.9,241.5,79.7,298.0,1648.0,16.0,1,
61700,1858.5,32.7,242.4,152.9,356.0,1658.0,5.0,1,
61800,1864.0,7.7,242.4,167.0,132.0,1053.0,9.0,1,
61900,1861.3,6.8,242.4,82.8,132.0,1053.0,9.0,1,
62000,1859.5,5.4,242.5,87.5,132.0,1053.0,9.0,1,
62100,1859.4,7.2,242.5,117.9,132.0,1053.0,9.0,1,
62200,1860.6,7.2,242.4,230.3,132.0,1053.0,9.0,1,
62300,1860.7,6.8,242.4,250.9,132.0,1053.0,9.0,1,
62400,1861.6,13.0,242.5,268.2,132.0,1053.0,9.0,1,
62600,1859.2,9.2,236.9,235.5,132.0,1053.0,9.0,1,
62700,1858.3,8.0,197.8,199.6,132.0,1053.0,9.0,1,
62800,1872.3,34.0,144.6,208.6,293.0,1525.0,21.0,1,
62900,1851.8,76.8,40.5,175.8,422.0,2484.0,17.0,1,
63000,1853.3,17.4,41.6,102.9,169.0,986.0,5.0,1,
63100,1873.7,43.1,40.6,116.9,481.0,2379.0,17.0,1,
63200,1858.5,39.3,39.6,124.5,307.0,1898.0,18.0,1,
63300,1862.8,33.1,39.7,123.6,262.0,1489.0,15.0,1,
63400,1862.1,20.7,40.5,125.0,465.0,2598.0,17.0,1,
63600,1861.0,7.1,42.6,92.5,465.0,2598.0,17.0,1,
63700,1861.1,6.8,42.6,70.7,465.0,2598.0,17.0,1,
63800,1860.4,6.8,42.6,76.2,465.0,2598.0,17.0,1,
63900,1859.7,6.8,42.6,194.4,465.0,2598.0,17.0,1,
64000,1860.8,8.1,42.6,245.6,465.0,2598.0,17.0,1,
64100,1860.1,10.6,42.4,246.6,465.0,2598.0,17.0,1,
64200,1872.2,301.2,46.4,226.6,2220.0,14058.0,18.0,1,
64300,1936.0,521.4,149.6,44.5,3567.0,26394.0,2.0,0,
64400,1892.5,648.1,270.1,57.0,4040.0,35755.0,2.0,0,
64600,1779.2,291.4,453.3,87.7,2517.0,15739.0,18.0,1,
64700,1933.4,686.4,509.4,37.6,1385.0,9591.0,8.0,1,
64800,1828.2,220.5,571.2,35.9,627.0,4690.0,14.0,1,
64900,1802.2,109.5,572.7,36.3,625.0,4979.0,17.0,1,
65000,1859.0,26.9,573.6,36.2,330.0,1858.0,4.0,1,
65100,1852.1,7.8,573.3,36.6,330.0,1858.0,4.0,1,
65200,1861.0,12.8,573.3,93.0,330.0,1858.0,4.0,1,
65300,1863.4,19.9,573.4,147.6,330.0,1858.0,4.0,1,
65400,1859.9,203.0,573.5,171.1,1095.0,6175.0,17.0,1,
65600,1847.9,227.6,578.5,37.8,1095.0,6175.0,17.0,1,
65700,1901.6,496.3,586.4,36.8,2969.0,22963.0,2.0,0,
65800,1876.3,105.8,610.7,82.5,2423.0,15426.0,2.0,0,
65900,1832.8,10.4,604.6,88.4,2423.0,15426.0,2.0,0,
66000,1859.7,21.4,567.8,88.5,284.0,1691.0,16.0,1,
66100,1866.8,63.3,509.3,86.7,431.0,3040.0,17.0,1,
66200,1872.4,22.3,421.3,57.1,213.0,1270.0,4.0,1,
66300,1852.9,32.1,404.7,94.2,332.0,1556.0,16.0,1,
66400,1865.9,33.4,230.1,99.7,334.0,1914.0,17.0,1,
66600,1864.1,41.2,221.9,144.2,341.0,2223.0,17.0,1,
66700,1858.6,8.3,221.1,92.4,341.0,2223.0,17.0,1,
66800,1861.5,6.3,221.1,38.4,341.0,2223.0,17.0,1,
66900,1861.6,6.4,221.1,45.3,341.0,2223.0,17.0,1,
67000,1861.0,7.0,220.7,87.2,341.0,2223.0,17.0,1,
67100,1860.0,9.2,214.5,169.1,341.0,2223.0,17.0,1,
67200,1857.2,6.3,208.5,227.7,341.0,2223.0,17.0,1,
67300,1859.9,8.8,191.0,242.2,341.0,2223.0,17.0,1,
67400,1860.5,8.3,97.1,252.7,341.0,2223.0,17.0,1,
67600,1860.5,13.2,42.3,280.3,341.0,2223.0,17.0,1,
67700,1880.1,22.1,43.7,220.2,179.0,1272.0,21.0,1,
67800,1846.1,31.7,38.4,88.0,311.0,1707.0,17.0,1,
67900,1862.0,22.3,40.8,84.4,254.0,1388.0,4.0,1,
68000,1864.0,13.9,38.4,102.0,186.0,1141.0,25.0,0,
68100,1853.0,73.2,36.5,182.8,239.0,1440.0,17.0,1,
68200,1870.1,12.7,40.5,187.7,120.0,916.0,28.0,0,
68300,1860.3,8.2,33.9,79.1,145.0,1045.0,13.0,1,
68400,1858.9,6.7,34.0,36.1,145.0,1045.0,13.0,1,
68600,1859.4,6.4,34.0,51.4,145.0,1045.0,13.0,1,
68700,1859.7,6.4,33.9,178.7,145.0,1045.0,13.0,1,
68800,1860.3,6.9,33.8,170.7,145.0,1045.0,13.0,1,
68900,1862.5,8.6,33.8,205.4,145.0,1045.0,13.0,1,
69000,1860.2,7.3,33.8,231.6,145.0,1045.0,13.0,1,
69100,1859.5,6.5,33.8,204.9,145.0,1045.0,13.0,1,
69200,1859.6,7.5,33.9,214.4,145.0,1045.0,13.0,1,
69300,1867.2,58.0,33.8,233.7,352.0,1960.0,17.0,1,
69400,1853.3,23.0,37.2,166.5,117.0,1000.0,18.0,1,
69600,1865.5,11.1,33.9,147.2,223.0,1242.0,17.0,1,
69700,1864.9,63.9,34.3,141.0,147.0,966.0,22.0,1,
69800,1853.7,18.1,33.2,141.6,176.0,1157.0,24.0,1,
69900,1863.0,8.8,31.9,83.9,211.0,1451.0,18.0,1,
70000,1860.5,8.3,32.0,37.1,211.0,1451.0,18.0,1,
70100,1860.8,8.0,32.0,38.7,211.0,1451.0,18.0,1,
70200,1861.7,8.6,32.0,102.5,211.0,1451.0,18.0,1,
70300,1859.2,6.2,32.0,194.7,211.0,1451.0,18.0,1,
70400,1860.3,6.0,32.0,217.0,211.0,1451.0,18.0,1,
70600,1860.0,6.6,32.0,237.2,211.0,1451.0,18.0,1,
70700,1859.3,8.2,32.0,258.9,211.0,1451.0,18.0,1,
70800,1860.4,7.2,32.0,237.2,211.0,1451.0,18.0,1,
70900,1860.8,7.2,32.0,210.7,100.0,815.0,22.0,1,
71000,1858.7,45.3,24.5,210.5,177.0,1075.0,27.0,0,
71100,1865.6,13.7,26.2,196.3,182.0,1157.0,26.0,0,
71200,1867.5,15.7,25.3,168.7,139.0,1107.0,20.0,1,
71300,1854.6,33.3,27.6,168.6,181.0,1127.0,23.0,1,
71400,1857.3,9.0,26.3,174.1,181.0,967.0,20.0,1,
71600,1856.1,7.7,26.0,168.1,181.0,967.0,20.0,1,
71700,1857.4,8.3,26.0,157.7,181.0,967.0,20.0,1,
71800,1859.9,7.4,26.0,184.5,181.0,967.0,20.0,1,
71900,1862.1,7.2,26.0,242.5,181.0,967.0,20.0,1,
72000,1860.0,8.6,26.0,225.8,181.0,967.0,20.0,1,
72100,1858.1,6.8,26.1,197.2,181.0,967.0,20.0,1,
72200,1861.6,6.7,26.0,201.2,181.0,967.0,20.0,1,
72300,1858.9,7.4,26.0,230.8,181.0,967.0,20.0,1,
72400,1859.1,8.7,25.9,251.4,181.0,967.0,20.0,1,
72600,1866.9,35.8,28.2,215.3,160.0,1096.0,28.0,0,
72700,1848.5,10.0,26.3,94.2,135.0,1132.0,21.0,1,
72800,1862.5,8.2,25.9,94.3,167.0,988.0,24.0,1,
72900,1859.4,21.7,23.1,112.8,150.0,964.0,22.0,1,
73000,1856.1,7.0,20.8,141.4,155.0,1221.0,28.0,0,
73100,1871.8,7.2,20.6,165.8,124.0,869.0,25.0,0,
73200,1850.7,6.5,20.6,165.4,124.0,869.0,25.0,0,
73300,1860.2,7.0,20.6,164.7,124.0,869.0,25.0,0,
73400,1857.8,6.5,20.6,238.9,124.0,869.0,25.0,0,
73600,1859.5,6.6,20.6,244.4,124.0,869.0,25.0,0,
73700,1859.2,7.5,20.5,240.3,124.0,869.0,25.0,0,
73800,1858.4,7.3,20.5,239.8,124.0,869.0,25.0,0,
73900,1860.1,7.4,20.5,227.0,124.0,869.0,25.0,0,
74000,1860.0,6.6,20.5,234.1,124.0,869.0,25.0,0,
74100,1858.3,4.9,20.5,242.3,124.0,869.0,25.0,0,
74200,1868.4,32.1,18.3,231.5,178.0,1108.0,19.0,1,
74300,1853.7,11.7,18.8,218.5,155.0,966.0,28.0,0,
74400,1870.1,16.5,19.0,194.5,154.0,996.0,26.0,0,
74600,1862.0,8.8,23.8,210.2,141.0,1011.0,22.0,1,
74700,1858.1,5.9,23.8,209.8,179.0,1038.0,19.0,1,
74800,1861.2,7.0,23.8,183.8,151.0,989.0,22.0,1,
74900,1861.8,7.8,23.8,174.8,151.0,989.0,22.0,1,
75000,1858.6,7.1,23.9,194.7,151.0,989.0,22.0,1,
75100,1860.8,7.2,23.9,216.1,151.0,989.0,22.0,1,
75200,1862.1,6.5,24.0,205.7,151.0,989.0,22.0,1,
75300,1860.2,8.0,24.0,216.6,151.0,989.0,22.0,1,
75400,1859.4,6.5,24.0,215.5,151.0,989.0,22.0,1,
75600,1858.2,6.4,23.9,219.4,151.0,989.0,22.0,1,
75700,1859.1,5.9,23.9,221.0,151.0,989.0,22.0,1,
75800,1863.6,23.4,24.0,240.1,141.0,959.0,26.0,0,
75900,1855.3,8.7,22.9,210.3,192.0,1056.0,26.0,0,
76000,1870.1,10.1,22.8,158.5,155.0,1066.0,26.0,0,
76100,1866.6,25.9,18.7,152.6,116.0,915.0,20.0,1,
76200,1848.6,18.2,18.7,149.1,157.0,1053.0,22.0,1,
76300,1859.0,11.1,18.8,150.3,159.0,905.0,22.0,1,
76400,1866.8,9.1,19.0,147.5,119.0,1003.0,21.0,1,
76600,1860.3,6.4,18.9,138.8,119.0,1003.0,21.0,1,
76700,1860.6,7.5,18.9,211.0,119.0,1003.0,21.0,1,
76800,1857.5,7.5,18.8,242.5,119.0,1003.0,21.0,1,
76900,1857.4,7.9,18.7,246.7,119.0,1003.0,21.0,1,
77000,1858.5,8.1,18.7,197.2,119.0,1003.0,21.0,1,
77100,1856.4,6.3,18.8,234.6,119.0,1003.0,21.0,1,
77200,1859.6,5.8,18.7,265.4,119.0,1003.0,21.0,1,
77300,1860.9,7.0,18.7,263.9,119.0,1003.0,21.0,1,
77400,1858.1,23.5,18.7,261.0,234.0,1298.0,19.0,1,
77600,1850.3,10.1,22.3,174.6,172.0,1082.0,25.0,0,
77700,1864.6,25.9,22.4,172.8,147.0,1058.0,22.0,1,
77800,1853.1,14.9,24.4,178.3,133.0,1001.0,25.0,0,
77900,1860.6,11.3,24.3,169.9,148.0,1012.0,23.0,1,
78000,1872.7,12.1,27.2,163.4,148.0,1040.0,23.0,1,
78100,1847.6,7.1,28.0,152.6,148.0,1040.0,23.0,1,
78200,1860.7,7.5,27.9,146.4,148.0,1040.0,23.0,1,
78300,1858.7,7.2,28.0,146.8,148.0,1040.0,23.0,1,
78400,1856.9,7.1,28.0,154.2,148.0,1040.0,23.0,1,
78600,1859.3,7.1,27.9,266.1,148.0,1040.0,23.0,1,
78700,1858.8,7.1,27.9,267.3,148.0,1040.0,23.0,1,
78800,1859.4,8.5,27.9,276.3,148.0,1040.0,23.0,1,
78900,1858.4,6.9,27.9,285.4,148.0,1040.0,23.0,1,
79000,1857.4,15.9,27.9,285.1,148.0,1040.0,23.0,1,
79100,1854.5,8.2,27.2,251.4,125.0,1043.0,19.0,1,
79200,1855.8,8.3,27.0,195.0,119.0,904.0,25.0,0,
79300,1866.6,13.2,25.2,173.9,147.0,997.0,25.0,0,
79400,1854.0,15.0,23.8,167.4,122.0,989.0,27.0,0,
79600,1861.6,11.2,27.3,157.2,225.0,1050.0,25.0,0,
79700,1852.7,8.1,23.5,154.3,225.0,1050.0,25.0,0,
79800,1857.7,8.4,23.6,151.4,225.0,1050.0,25.0,0,
79900,1859.7,8.9,23.7,152.1,225.0,1050.0,25.0,0,
80000,1857.8,7.2,23.7,182.7,225.0,1050.0,25.0,0,
80100,1858.3,7.1,23.7,266.3,225.0,1050.0,25.0,0,
80200,1859.3,7.1,23.7,267.4,225.0,1050.0,25.0,0,
80300,1860.0,8.7,23.8,272.1,225.0,1050.0,25.0,0,
80400,1857.2,9.6,23.8,296.3,225.0,1050.0,25.0,0,
80600,1857.9,17.8,23.8,258.8,225.0,1050.0,25.0,0,
80700,1857.5,11.9,21.9,232.9,121.0,987.0,25.0,0,
80800,1856.0,10.0,23.5,185.5,135.0,1131.0,27.0,0,
80900,1867.7,18.5,23.5,131.9,153.0,1059.0,23.0,1,
81000,1862.9,13.8,24.4,143.3,161.0,1044.0,21.0,1,
81100,1850.4,13.5,24.4,150.9,133.0,1110.0,21.0,1,
81200,1863.2,11.5,28.5,150.6,154.0,926.0,20.0,1,
81300,1853.9,6.7,25.1,150.9,154.0,926.0,20.0,1,
81400,1860.8,7.8,25.0,150.9,154.0,926.0,20.0,1,
81600,1858.2,7.5,25.0,169.4,154.0,926.0,20.0,1,
81700,1858.3,8.3,25.0,263.8,154.0,926.0,20.0,1,
81800,1857.5,7.3,25.0,271.6,154.0,926.0,20.0,1,
81900,1859.1,8.5,24.9,274.2,154.0,926.0,20.0,1,
82000,1859.5,7.4,24.9,269.1,154.0,926.0,20.0,1,
82100,1859.1,7.9,24.9,267.4,154.0,926.0,20.0,1,
82200,1856.5,10.2,24.9,261.3,154.0,926.0,20.0,1,
82300,1860.2,6.9,24.6,240.5,159.0,1126.0,21.0,1,
82400,1856.9,6.5,24.0,240.9,137.0,1000.0,27.0,0,
82600,1861.0,9.9,20.3,185.3,139.0,1162.0,21.0,1,
82700,1850.6,27.9,20.1,173.3,138.0,1011.0,23.0,1,
82800,1862.0,9.4,24.0,170.3,156.0,1037.0,19.0,1,
82900,1863.5,7.8,19.0,172.0,136.0,1092.0,27.0,0,
83000,1859.4,7.0,19.0,170.3,136.0,1092.0,27.0,0,
83100,1858.0,7.8,18.9,169.1,136.0,1092.0,27.0,0,
83200,1857.3,7.2,19.0,173.1,136.0,1092.0,27.0,0,
83300,1858.5,7.6,18.9,220.8,136.0,1092.0,27.0,0,
83400,1856.9,6.7,18.9,246.5,136.0,1092.0,27.0,0,
83600,1857.8,7.2,18.9,202.3,136.0,1092.0,27.0,0,
83700,1856.6,6.3,19.0,210.7,136.0,1092.0,27.0,0,
83800,1860.7,7.3,19.1,219.9,136.0,1092.0,27.0,0,
83900,1873.9,33.7,19.0,201.7,179.0,1117.0,27.0,0,
84000,1845.1,15.8,22.3,199.8,163.0,1274.0,19.0,1,
84100,1859.3,11.4,25.4,231.7,152.0,1062.0,22.0,1,
84200,1861.3,11.2,23.8,226.5,141.0,1017.0,25.0,0,
84300,1851.7,9.2,23.9,185.9,156.0,1125.0,15.0,1,
84400,1871.1,8.3,20.6,166.1,147.0,935.0,20.0,1,
84600,1854.1,8.2,19.9,147.3,147.0,935.0,20.0,1,
84700,1859.3,7.9,20.0,200.5,147.0,935.0,20.0,1,
84800,1858.2,8.5,19.9,239.5,147.0,935.0,20.0,1,
84900,1856.5,7.1,19.9,234.3,147.0,935.0,20.0,1,
85000,1858.7,7.0,19.9,232.9,147.0,935.0,20.0,1,
85100,1859.8,6.2,19.9,238.3,147.0,935.0,20.0,1,
85200,1857.9,8.5,20.0,227.0,147.0,935.0,20.0,1,
85300,1857.4,6.9,20.0,239.7,147.0,935.0,20.0,1,
85400,1859.7,8.9,19.9,238.0,147.0,935.0,20.0,1,
85600,1853.0,10.3,16.1,201.1,145.0,954.0,19.0,1,
85700,1865.1,8.2,16.0,202.3,191.0,1063.0,27.0,0,
85800,1862.5,22.9,10.3,178.0,134.0,977.0,26.0,0,
85900,1865.9,39.4,12.1,118.1,133.0,1015.0,21.0,1,
86000,1854.2,8.2,17.9,45.8,146.0,948.0,20.0,1,
86100,1866.9,14.4,17.9,125.4,153.0,1105.0,25.0,0,
86200,1852.8,7.6,22.0,148.6,153.0,1105.0,25.0,0,
86300,1859.8,7.8,22.1,174.1,153.0,1105.0,25.0,0,
86400,1857.7,6.1,22.0,210.6,153.0,1105.0,25.0,0,
86600,1858.3,6.7,22.0,208.9,153.0,1105.0,25.0,0,
86700,1857.5,7.6,22.0,220.1,153.0,1105.0,25.0,0,
86800,1860.0,8.1,22.0,233.1,153.0,1105.0,25.0,0,
86900,1858.6,7.2,21.9,234.0,153.0,1105.0,25.0,0,
87000,1855.6,6.6,22.0,233.8,153.0,1105.0,25.0,0,
87100,1859.4,23.6,21.8,231.5,153.0,1105.0,25.0,0,
87200,1851.5,43.5,24.5,227.1,148.0,1038.0,27.0,0,
87300,1862.5,11.7,28.6,212.5,128.0,920.0,15.0,1,
87400,1869.1,23.4,28.7,198.6,138.0,921.0,23.0,1,
87600,1853.5,7.8,29.7,169.2,129.0,1079.0,27.0,0,
87700,1868.2,14.3,29.7,169.1,132.0,1019.0,23.0,1,
87800,1850.0,8.0,29.4,154.8,132.0,1019.0,23.0,1,
87900,1858.9,8.6,29.4,177.3,132.0,1019.0,23.0,1,
88000,1857.8,6.6,29.5,205.7,132.0,1019.0,23.0,1,
88100,1857.3,8.2,29.4,215.2,132.0,1019.0,23.0,1,
88200,1859.5,7.8,29.5,235.3,132.0,1019.0,23.0,1,
88300,1860.5,7.8,29.5,204.7,132.0,1019.0,23.0,1,
88400,1859.0,8.0,29.5,174.3,132.0,1019.0,23.0,1,
88600,1859.0,7.3,29.5,262.5,132.0,1019.0,23.0,1,
88700,1859.3,5.2,29.6,274.1,132.0,1019.0,23.0,1,
88800,1871.9,36.0,27.6,270.0,140.0,1074.0,25.0,0,
88900,1848.7,13.4,26.2,189.8,147.0,1142.0,15.0,1,
89000,1866.2,16.3,26.1,142.8,153.0,1062.0,28.0,0,
89100,1853.5,20.0,26.2,144.7,127.0,991.0,24.0,1,
89200,1859.2,7.8,23.2,155.0,164.0,991.0,21.0,1,
89300,1874.0,10.2,25.3,166.6,135.0,956.0,18.0,1,
89400,1849.2,8.2,23.0,163.7,81.0,809.0,22.0,1,
89600,1857.5,7.7,23.0,203.5,81.0,809.0,22.0,1,
89700,1859.9,8.7,23.1,213.4,81.0,809.0,22.0,1,
89800,1858.2,10.0,23.1,253.1,81.0,809.0,22.0,1,
89900,1858.9,8.0,23.2,234.0,81.0,809.0,22.0,1,
90000,1856.3,8.2,23.2,219.0,81.0,809.0,22.0,1,
90100,1857.6,6.5,23.1,202.5,81.0,809.0,22.0,1,
90200,1858.5,7.6,23.2,176.0,81.0,809.0,22.0,1,
90300,1859.9,8.0,23.3,197.3,81.0,809.0,22.0,1,
90400,1867.2,31.7,23.3,208.8,186.0,1141.0,19.0,1,
90600,1868.3,13.0,23.1,159.0,152.0,1032.0,23.0,1,
90700,1853.6,33.7,22.6,153.9,150.0,1001.0,13.0,1,
90800,1866.1,8.2,25.5,168.5,115.0,969.0,25.0,0,
90900,1859.1,10.7,26.1,182.8,153.0,1128.0,20.0,1,
91000,1864.6,10.4,23.8,152.1,138.0,1033.0,23.0,1,
91100,1855.4,6.8,23.9,103.2,138.0,1033.0,23.0,1,
91200,1858.6,7.4,23.8,44.3,138.0,1033.0,23.0,1,
91300,1858.8,7.7,23.9,124.9,138.0,1033.0,23.0,1,
91400,1859.7,8.6,23.9,232.7,138.0,1033.0,23.0,1,
91600,1859.6,9.0,23.9,247.2,138.0,1033.0,23.0,1,
91700,1858.0,8.0,24.0,271.3,138.0,1033.0,23.0,1,
91800,1857.5,7.4,24.0,270.4,138.0,1033.0,23.0,1,
91900,1857.9,7.0,23.9,261.3,138.0,1033.0,23.0,1,
92000,1860.1,28.8,23.9,247.6,194.0,1187.0,19.0,1,
92100,1855.1,8.4,27.8,219.3,138.0,1031.0,23.0,1,
92200,1870.3,22.6,27.6,184.8,164.0,995.0,16.0,1,
92300,1868.1,19.0,26.4,189.2,183.0,1057.0,21.0,1,
92400,1846.7,8.9,25.7,195.6,162.0,1092.0,26.0,0,
92600,1864.0,9.0,24.7,145.6,159.0,1149.0,22.0,1,
92700,1855.7,8.1,24.6,139.9,159.0,1149.0,22.0,1,
92800,1860.4,7.0,24.6,113.9,159.0,1149.0,22.0,1,
92900,1859.7,8.4,24.5,204.3,159.0,1149.0,22.0,1,
93000,1857.7,6.7,24.5,234.6,159.0,1149.0,22.0,1,
93100,1859.4,7.1,24.4,273.4,159.0,1149.0,22.0,1,
93200,1858.0,6.4,24.3,262.0,159.0,1149.0,22.0,1,
93300,1857.9,9.2,24.2,248.4,159.0,1149.0,22.0,1,
93400,1858.4,8.9,24.2,268.6,159.0,1149.0,22.0,1,
93600,1857.9,9.6,24.4,254.4,216.0,1201.0,19.0,1,
93700,1853.1,8.6,17.6,232.5,162.0,1003.0,18.0,1,
93800,1867.7,18.0,18.3,205.3,125.0,937.0,27.0,0,
93900,1862.0,28.7,18.2,196.1,150.0,1090.0,25.0,0,
94000,1853.4,30.1,18.9,168.1,131.0,948.0,22.0,1,
94100,1862.1,14.4,22.8,182.7,170.0,963.0,26.0,0,
94200,1870.3,19.6,22.9,200.3,132.0,1105.0,23.0,1,
94300,1845.3,8.1,25.8,178.3,132.0,1105.0,23.0,1,
94400,1858.7,8.1,25.8,194.4,132.0,1105.0,23.0,1,
94600,1859.7,7.1,25.9,247.1,132.0,1105.0,23.0,1,
94700,1859.0,7.6,25.9,244.7,132.0,1105.0,23.0,1,
94800,1857.8,6.8,25.9,243.7,132.0,1105.0,23.0,1,
94900,1859.4,6.6,26.0,253.2,132.0,1105.0,23.0,1,
95000,1858.3,5.9,25.9,246.1,132.0,1105.0,23.0,1,
95100,1857.1,7.1,25.8,243.2,132.0,1105.0,23.0,1,
95200,1858.4,12.3,25.7,247.8,132.0,1105.0,23.0,1,
95300,1860.0,19.0,25.8,262.9,345.0,1777.0,16.0,1,
95400,1861.0,23.9,29.3,201.2,201.0,1097.0,5.0,1,
95600,1849.7,40.1,25.8,172.6,141.0,1160.0,27.0,0,
95700,1868.3,8.0,25.8,170.7,167.0,891.0,20.0,1,
95800,1861.4,12.2,25.2,146.4,152.0,1282.0,27.0,0,
95900,1848.5,7.4,22.4,149.7,191.0,1158.0,28.0,0,
96000,1859.4,7.2,22.4,151.3,191.0,1158.0,28.0,0,
96100,1858.0,7.0,22.3,147.7,191.0,1158.0,28.0,0,
96200,1858.1,8.7,22.3,197.4,191.0,1158.0,28.0,0,
96300,1857.7,8.1,22.3,218.1,191.0,1158.0,28.0,0,
96400,1858.9,7.4,22.4,232.4,191.0,1158.0,28.0,0,
96600,1856.9,8.7,22.4,201.4,191.0,1158.0,28.0,0,
96700,1858.0,7.2,22.5,198.1,191.0,1158.0,28.0,0,
96800,1857.1,7.8,22.5,216.0,191.0,1158.0,28.0,0,
96900,1859.7,11.1,22.4,219.5,169.0,1284.0,20.0,1,
97000,1858.4,17.0,25.0,237.5,311.0,1637.0,5.0,1,
97100,1862.7,20.8,21.1,169.4,613.0,2606.0,4.0,1,
97200,1865.5,37.0,21.3,167.6,170.0,1118.0,28.0,0,
97300,1847.8,13.4,21.0,166.7,150.0,1175.0,28.0,0,
97400,1862.3,14.1,21.0,174.7,237.0,1285.0,4.0,1,
97600,1859.8,7.8,21.4,163.8,237.0,1285.0,4.0,1,
97700,1856.2,6.1,21.4,87.4,237.0,1285.0,4.0,1,
97800,1857.7,8.6,21.4,152.6,237.0,1285.0,4.0,1,
97900,1857.9,7.3,21.4,230.4,237.0,1285.0,4.0,1,
98000,1860.1,6.9,21.4,230.7,237.0,1285.0,4.0,1,
98100,1859.3,5.9,21.4,227.4,237.0,1285.0,4.0,1,
98200,1859.4,6.7,21.4,206.3,237.0,1285.0,4.0,1,
98300,1858.2,8.2,21.3,212.1,237.0,1285.0,4.0,1,
98400,1859.2,8.5,21.3,227.9,237.0,1285.0,4.0,1,
98600,1863.3,10.5,24.6,218.0,170.0,1196.0,25.0,0,
98700,1871.0,19.8,21.6,189.1,292.0,1440.0,5.0,1,
98800,1849.3,31.5,24.1,173.9,156.0,1137.0,27.0,0,
98900,1853.1,12.2,24.3,187.7,124.0,954.0,21.0,1,
99000,1866.3,7.6,24.3,198.2,152.0,1090.0,28.0,0,
99100,1853.9,8.2,23.8,173.4,140.0,1069.0,27.0,0,
99200,1864.8,7.5,23.8,157.7,140.0,1069.0,27.0,0,
99300,1859.1,6.7,23.8,149.4,140.0,1069.0,27.0,0,
99400,1859.3,7.5,23.9,190.0,140.0,1069.0,27.0,0,
99600,1858.8,8.7,23.9,230.2,140.0,1069.0,27.0,0,
99700,1857.9,7.3,24.0,219.1,140.0,1069.0,27.0,0,
99800,1861.0,7.8,24.0,209.7,140.0,1069.0,27.0,0,
99900,1857.6,7.1,24.0,226.4,140.0,1069.0,27.0,0,
100000,1857.2,7.3,24.0,248.3,140.0,1069.0,27.0,0,
100100,1858.2,11.8,24.1,246.3,206.0,1276.0,19.0,1,
100200,1860.9,5.6,20.3,227.9,134.0,1040.0,28.0,0,
100300,1863.1,17.3,20.0,219.6,149.0,1099.0,19.0,1,
100400,1854.5,22.5,20.3,200.6,113.0,938.0,28.0,0,
100600,1871.8,10.0,19.3,199.1,152.0,918.0,27.0,0,
100700,1858.6,10.0,19.4,166.5,131.0,1127.0,26.0,0,
100800,1852.2,7.6,19.4,144.4,131.0,1127.0,26.0,0,
100900,1860.0,6.5,19.5,87.8,131.0,1127.0,26.0,0,
101000,1859.1,8.6,19.4,187.8,131.0,1127.0,26.0,0,
101100,1857.0,7.5,19.4,252.5,131.0,1127.0,26.0,0,
101200,1859.4,7.9,19.3,261.0,131.0,1127.0,26.0,0,
101300,1858.5,7.7,19.3,210.9,131.0,1127.0,26.0,0,
101400,1859.3,8.6,19.3,201.9,131.0,1127.0,26.0,0,
101600,1858.0,7.5,19.4,237.0,131.0,1127.0,26.0,0,
101700,1858.5,19.5,19.3,241.0,131.0,1127.0,26.0,0,
101800,1850.2,25.3,20.0,250.6,194.0,1162.0,19.0,1,
101900,1868.2,15.9,21.9,166.5,120.0,863.0,26.0,0,
102000,1852.9,8.5,20.9,133.0,143.0,1180.0,27.0,0,
102100,1867.3,6.8,18.0,147.0,129.0,1000.0,17.0,1,
102200,1857.5,13.0,20.7,167.6,159.0,1099.0,25.0,0,
102300,1862.5,10.7,20.5,173.7,154.0,999.0,16.0,1,
102400,1851.6,6.6,20.7,168.5,154.0,999.0,16.0,1,
102600,1856.6,8.6,20.7,168.1,154.0,999.0,16.0,1,
102700,1857.3,7.3,20.7,229.7,154.0,999.0,16.0,1,
102800,1859.3,6.5,20.6,242.7,154.0,999.0,16.0,1,
102900,1861.6,7.3,20.6,221.1,154.0,999.0,16.0,1,
103000,1858.5,6.4,20.6,212.4,154.0,999.0,16.0,1,
103100,1858.6,7.4,20.5,215.1,154.0,999.0,16.0,1,
103200,1859.1,6.7,20.5,215.2,154.0,999.0,16.0,1,
103300,1859.0,6.4,20.4,226.8,154.0,999.0,16.0,1,
103400,1853.8,8.8,19.8,236.1,151.0,1148.0,18.0,1,
103600,1862.8,31.8,18.5,166.0,126.0,1017.0,28.0,0,
103700,1847.3,9.4,22.0,164.6,153.0,1011.0,20.0,1,
103800,1861.2,10.4,25.2,174.2,133.0,1038.0,28.0,0,
103900,1860.6,22.9,22.8,200.9,139.0,1017.0,25.0,0,
104000,1853.4,7.7,25.5,170.1,143.0,934.0,28.0,0,
104100,1858.2,6.1,25.5,154.3,143.0,934.0,28.0,0,
104200,1858.0,5.7,25.4,166.0,143.0,934.0,28.0,0,
104300,1859.7,5.6,25.4,167.0,143.0,934.0,28.0,0,
104400,1859.4,7.7,25.3,195.0,143.0,934.0,28.0,0,
104600,1859.7,6.5,25.4,244.3,143.0,934.0,28.0,0,
104700,1859.0,7.1,25.4,250.1,143.0,934.0,28.0,0,
104800,1858.8,6.5,25.4,249.2,143.0,934.0,28.0,0,
104900,1860.0,6.7,25.4,233.8,143.0,934.0,28.0,0,
105000,1858.0,11.5,25.4,231.0,167.0,1063.0,16.0,1,
105100,1864.2,19.5,27.2,239.6,172.0,1079.0,25.0,0,
105200,1857.8,30.4,27.8,182.9,152.0,990.0,28.0,0,
105300,1852.1,28.5,28.2,186.6,103.0,849.0,23.0,1,
105400,1863.6,8.0,31.1,199.6,143.0,1071.0,25.0,0,
105600,1849.4,8.2,29.3,183.8,111.0,908.0,11.0,1,
105700,1854.6,7.1,29.3,173.9,111.0,908.0,11.0,1,
105800,1859.2,8.0,29.3,177.6,111.0,908.0,11.0,1,
105900,1857.9,7.5,29.4,172.1,111.0,908.0,11.0,1,
106000,1859.7,6.5,29.5,201.6,111.0,908.0,11.0,1,
106100,1860.4,8.2,29.5,209.4,111.0,908.0,11.0,1,
106200,1858.5,5.9,29.5,207.6,111.0,908.0,11.0,1,
106300,1859.6,6.5,29.5,227.1,111.0,908.0,11.0,1,
106400,1859.7,7.4,29.4,231.4,111.0,908.0,11.0,1,
106600,1859.9,10.6,29.4,229.1,131.0,959.0,21.0,1,
106700,1866.2,17.0,29.4,250.6,156.0,997.0,27.0,0,
106800,1857.0,20.8,24.9,252.7,130.0,1024.0,24.0,1,
106900,1853.3,8.5,22.9,188.4,200.0,1164.0,27.0,0,
107000,1867.6,7.5,19.3,144.9,143.0,1037.0,16.0,1,
107100,1860.5,14.8,18.7,146.0,128.0,880.0,25.0,0,
107200,1852.8,7.8,16.4,146.1,139.0,960.0,24.0,1,
107300,1863.5,6.2,16.4,142.7,139.0,960.0,24.0,1,
107400,1857.6,6.1,16.4,140.8,139.0,960.0,24.0,1,
107600,1858.3,7.4,16.3,207.9,139.0,960.0,24.0,1,
107700,1860.1,8.1,16.4,235.1,139.0,960.0,24.0,1,
107800,1857.3,6.5,16.3,235.0,139.0,960.0,24.0,1,
107900,1860.0,6.5,16.3,235.5,139.0,960.0,24.0,1,
108000,1857.7,7.3,16.3,238.2,139.0,960.0,24.0,1,
108100,1859.9,8.4,16.3,241.0,139.0,960.0,24.0,1,
108200,1855.9,13.5,16.4,230.5,224.0,1220.0,18.0,1,
108300,1866.8,12.0,16.7,263.5,116.0,851.0,22.0,1,
108400,1855.4,19.9,19.2,219.0,136.0,1060.0,20.0,1,
108600,1853.6,14.1,22.8,176.2,135.0,956.0,26.0,0,
108700,1864.5,14.0,22.7,170.1,148.0,1024.0,25.0,0,
108800,1851.4,11.0,23.7,185.9,137.0,943.0,25.0,0,
108900,1866.4,7.7,23.8,175.3,137.0,943.0,25.0,0,
109000,1859.5,7.7,23.9,150.5,137.0,943.0,25.0,0,
109100,1859.8,6.8,23.9,141.9,137.0,943.0,25.0,0,
109200,1858.9,7.0,23.9,197.9,137.0,943.0,25.0,0,
109300,1858.0,6.2,23.8,233.5,137.0,943.0,25.0,0,
109400,1858.1,6.6,23.7,207.3,137.0,943.0,25.0,0,
109600,1859.5,8.1,23.7,251.3,137.0,943.0,25.0,0,
109700,1857.0,7.3,23.7,229.9,137.0,943.0,25.0,0,
109800,1858.7,7.4,23.7,220.6,137.0,943.0,25.0,0,
109900,1861.7,14.1,23.6,217.0,170.0,1140.0,27.0,0,
110000,1865.0,18.4,24.3,204.9,138.0,1042.0,27.0,0,
110100,1848.8,7.9,24.7,175.6,138.0,1065.0,25.0,0,
110200,1859.6,13.3,27.4,170.8,153.0,957.0,16.0,1,
110300,1866.2,10.9,25.6,177.5,142.0,1056.0,24.0,1,
110400,1853.0,38.6,22.9,199.8,160.0,1013.0,21.0,1,
110600,1859.4,8.0,26.0,199.9,160.0,1013.0,21.0,1,
110700,1858.4,7.6,26.0,206.7,160.0,1013.0,21.0,1,
110800,1858.2,7.0,26.0,205.3,160.0,1013.0,21.0,1,
110900,1859.2,6.5,26.0,207.0,160.0,1013.0,21.0,1,
111000,1859.2,7.7,26.1,245.1,160.0,1013.0,21.0,1,
111100,1858.3,7.8,26.1,266.7,160.0,1013.0,21.0,1,
111200,1858.1,7.7,26.1,267.1,160.0,1013.0,21.0,1,
111300,1857.7,7.6,26.1,262.9,160.0,1013.0,21.0,1,
111400,1860.8,6.7,26.2,218.6,160.0,1013.0,21.0,1,
111600,1860.8,9.2,25.8,203.8,144.0,1141.0,22.0,1,
111700,1851.0,25.2,23.4,171.6,124.0,911.0,17.0,1,
111800,1860.4,12.4,25.0,165.8,162.0,1021.0,17.0,1,
111900,1874.0,11.4,21.5,157.1,132.0,956.0,14.0,1,
112000,1851.6,30.1,21.7,148.4,127.0,967.0,21.0,1,
112100,1852.8,7.1,20.5,135.1,149.0,951.0,23.0,1,
112200,1858.9,6.0,20.4,134.6,149.0,951.0,23.0,1,
112300,1860.6,7.7,20.4,143.4,149.0,951.0,23.0,1,
112400,1858.4,6.4,20.4,143.1,149.0,951.0,23.0,1,
112600,1858.5,6.8,20.3,239.4,149.0,951.0,23.0,1,
112700,1857.9,6.0,20.3,240.6,149.0,951.0,23.0,1,
112800,1859.3,6.5,20.3,237.9,149.0,951.0,23.0,1,
112900,1857.9,8.1,20.2,231.3,149.0,951.0,23.0,1,
113000,1857.9,5.9,20.2,229.0,149.0,951.0,23.0,1,
113100,1859.3,13.9,20.1,231.8,157.0,1066.0,23.0,1,
113200,1864.0,23.0,17.4,229.5,163.0,1078.0,16.0,1,
113300,1850.5,8.8,21.1,169.4,145.0,1089.0,28.0,0,
113400,1868.0,14.5,19.5,205.2,164.0,1058.0,25.0,0,
113600,1853.8,29.2,21.2,227.3,138.0,1098.0,27.0,0,
113700,1854.3,7.3,22.6,187.3,114.0,1028.0,26.0,0,
113800,1859.6,6.8,22.7,174.6,114.0,1028.0,26.0,0,
113900,1860.0,7.2,22.6,166.6,114.0,1028.0,26.0,0,
114000,1857.7,5.8,22.6,163.1,114.0,1028.0,26.0,0,
114100,1858.5,8.9,22.6,186.1,114.0,1028.0,26.0,0,
114200,1858.2,6.6,22.7,220.4,114.0,1028.0,26.0,0,
114300,1856.4,7.0,22.7,228.2,114.0,1028.0,26.0,0,
114400,1856.6,6.0,22.7,216.5,114.0,1028.0,26.0,0,
114600,1857.8,6.2,22.6,207.6,114.0,1028.0,26.0,0,
114700,1857.9,7.8,22.6,240.9,157.0,1002.0,22.0,1,
114800,1869.0,8.0,22.2,233.7,154.0,1044.0,18.0,1,
114900,1866.8,33.5,18.9,202.5,147.0,1178.0,23.0,1,
115000,1849.7,16.8,21.4,203.4,134.0,998.0,24.0,1,
115100,1863.1,10.3,21.4,196.7,144.0,1072.0,27.0,0,
115200,1854.3,22.1,19.2,189.7,138.0,1114.0,28.0,0,
115300,1855.2,9.6,17.6,184.1,160.0,1123.0,26.0,0,
115400,1865.3,7.4,17.5,163.8,160.0,1123.0,26.0,0,
115600,1858.4,7.6,17.4,166.4,160.0,1123.0,26.0,0,
115700,1859.1,7.9,17.5,190.1,160.0,1123.0,26.0,0,
115800,1858.8,6.5,17.5,220.0,160.0,1123.0,26.0,0,
115900,1857.5,8.4,17.4,271.2,160.0,1123.0,26.0,0,
116000,1857.6,7.0,17.4,259.6,160.0,1123.0,26.0,0,
116100,1858.7,7.4,17.4,241.4,160.0,1123.0,26.0,0,
116200,1859.5,7.0,17.5,240.9,160.0,1123.0,26.0,0,
116300,1859.0,5.7,17.4,247.7,160.0,1123.0,26.0,0,
116400,1867.6,10.7,17.6,246.3,140.0,963.0,27.0,0,
116600,1853.2,8.9,18.9,176.4,155.0,1043.0,16.0,1,
116700,1868.5,13.7,18.8,175.9,137.0,927.0,24.0,1,
116800,1872.5,18.3,22.7,184.9,170.0,1146.0,26.0,0,
116900,1849.0,6.5,23.9,210.0,142.0,995.0,25.0,0,
117000,1859.3,7.3,23.9,201.4,135.0,1009.0,19.0,1,
117100,1860.1,7.7,23.9,167.8,135.0,1009.0,19.0,1,
117200,1858.3,6.4,23.9,154.1,135.0,1009.0,19.0,1,
117300,1858.5,5.2,23.9,204.5,135.0,1009.0,19.0,1,
117400,1860.1,6.6,23.9,245.0,135.0,1009.0,19.0,1,
117600,1858.1,7.0,23.9,220.5,135.0,1009.0,19.0,1,
117700,1858.9,6.0,23.9,218.0,135.0,1009.0,19.0,1,
117800,1859.4,6.8,23.9,229.2,135.0,1009.0,19.0,1,
117900,1860.1,6.1,23.9,247.5,135.0,1009.0,19.0,1,
118000,1863.6,10.9,23.8,262.9,151.0,971.0,25.0,0,
118100,1856.4,8.4,23.7,246.9,146.0,1102.0,26.0,0,
118200,1857.7,5.3,20.4,240.4,145.0,996.0,23.0,1,
118300,1873.4,22.5,20.4,143.7,143.0,1037.0,28.0,0,
118400,1859.7,21.2,16.5,136.9,128.0,1038.0,27.0,0,
118600,1862.4,12.7,24.5,153.5,142.0,968.0,27.0,0,
118700,1858.1,7.0,24.5,139.2,142.0,968.0,27.0,0,
118800,1859.2,6.8,24.5,41.8,142.0,968.0,27.0,0,
118900,1859.8,8.4,24.5,34.6,142.0,968.0,27.0,0,
119000,1861.0,6.8,24.6,42.6,142.0,968.0,27.0,0,
119100,1858.2,6.8,24.6,214.7,142.0,968.0,27.0,0,
119200,1859.9,8.4,24.6,218.3,142.0,968.0,27.0,0,
119300,1857.6,7.0,24.6,213.5,142.0,968.0,27.0,0,
119400,1859.4,6.3,24.6,234.8,142.0,968.0,27.0,0,
119600,1859.7,27.7,24.6,248.6,153.0,1041.0,19.0,1,
119700,1853.7,15.1,35.1,41.5,139.0,1212.0,25.0,0,
119800,1865.0,8.3,35.2,35.0,165.0,1076.0,6.0,1,
119900,1860.8,20.5,36.9,35.1,165.0,1029.0,28.0,0,
120000,1859.1,9.3,37.0,41.9,174.0,1107.0,27.0,0,
120100,1849.9,36.3,34.6,196.4,157.0,1055.0,24.0,1,
120200,1864.8,9.0,37.2,195.9,158.0,966.0,21.0,1,
120300,1853.4,6.2,32.6,172.6,158.0,966.0,21.0,1,
120400,1860.1,6.6,32.6,163.6,158.0,966.0,21.0,1,
120600,1857.4,6.9,32.6,178.3,158.0,966.0,21.0,1,
120700,1859.7,7.7,32.6,291.0,158.0,966.0,21.0,1,
120800,1857.5,6.1,32.6,244.7,158.0,966.0,21.0,1,
120900,1858.9,7.0,32.6,210.6,158.0,966.0,21.0,1,
121000,1857.8,7.9,32.6,219.4,158.0,966.0,21.0,1,
121100,1857.9,8.5,32.6,249.5,158.0,966.0,21.0,1,
121200,1857.3,4.7,32.6,213.7,166.0,1105.0,24.0,1,
121300,1866.0,35.1,20.6,208.8,158.0,1062.0,16.0,1,
121400,1853.7,11.3,23.6,207.1,155.0,1003.0,20.0,1,
121600,1857.4,23.9,20.5,157.2,145.0,1137.0,17.0,1,
121700,1854.6,6.3,22.7,156.4,182.0,1206.0,24.0,1,
121800,1866.5,10.3,18.3,185.2,177.0,1209.0,25.0,0,
121900,1851.8,8.1,18.2,183.4,177.0,1209.0,25.0,0,
122000,1859.0,7.7,18.2,173.0,177.0,1209.0,25.0,0,
122100,1856.7,7.9,18.2,207.8,177.0,1209.0,25.0,0,
122200,1856.4,7.8,18.2,244.6,177.0,1209.0,25.0,0,
122300,1857.5,6.4,18.2,246.5,177.0,1209.0,25.0,0,
122400,1858.0,8.4,18.1,266.8,177.0,1209.0,25.0,0,
122600,1859.6,6.3,18.2,252.6,177.0,1209.0,25.0,0,
122700,1858.0,7.6,18.2,248.9,177.0,1209.0,25.0,0,
122800,1858.8,8.2,18.2,248.4,177.0,1209.0,25.0,0,
122900,1863.7,8.3,18.2,263.9,152.0,1030.0,27.0,0,
123000,1857.5,10.2,13.8,267.9,146.0,985.0,25.0,0,
123100,1868.0,15.4,13.9,243.7,143.0,955.0,28.0,0,
123200,1868.8,12.5,18.8,218.7,167.0,1235.0,23.0,1,
123300,1843.8,12.5,16.0,218.6,142.0,1105.0,27.0,0,
123400,1859.4,12.2,18.9,215.9,153.0,919.0,22.0,1,
123600,1857.7,7.2,18.9,150.4,153.0,919.0,22.0,1,
123700,1858.0,7.0,18.9,147.7,153.0,919.0,22.0,1,
123800,1859.1,8.3,18.9,155.0,153.0,919.0,22.0,1,
123900,1858.7,7.5,18.9,214.1,153.0,919.0,22.0,1,
124000,1860.2,8.4,19.0,266.9,153.0,919.0,22.0,1,
124100,1859.8,7.1,19.0,280.9,153.0,919.0,22.0,1,
124200,1859.5,7.2,19.0,248.0,153.0,919.0,22.0,1,
124300,1860.9,7.7,19.1,210.2,153.0,919.0,22.0,1,
124400,1857.9,4.9,19.0,230.9,153.0,919.0,22.0,1,
124600,1855.1,8.3,19.1,235.2,131.0,980.0,24.0,1,
124700,1869.7,11.0,22.1,220.6,184.0,1126.0,27.0,0,
124800,1857.0,30.4,18.9,183.8,225.0,1161.0,5.0,1,
124900,1848.5,11.0,22.5,169.7,146.0,1196.0,23.0,1,
125000,1867.3,9.6,22.5,187.0,147.0,1184.0,19.0,1,
125100,1856.9,7.8,20.1,232.9,158.0,1075.0,18.0,1,
125200,1858.5,7.5,20.2,237.2,158.0,1075.0,18.0,1,
125300,1859.2,7.4,20.2,208.5,158.0,1075.0,18.0,1,
125400,1857.5,7.1,20.2,196.1,158.0,1075.0,18.0,1,
125600,1858.5,6.5,20.2,246.5,158.0,1075.0,18.0,1,
125700,1859.2,8.2,20.0,236.4,158.0,1075.0,18.0,1,
125800,1857.4,7.3,20.0,200.9,158.0,1075.0,18.0,1,
125900,1858.8,6.9,20.0,198.3,158.0,1075.0,18.0,1,
126000,1859.2,7.8,20.0,229.5,158.0,1075.0,18.0,1,
126100,1859.0,40.0,20.1,267.8,140.0,1081.0,16.0,1,
126200,1866.9,7.8,23.4,269.9,148.0,1114.0,23.0,1,
126300,1862.1,12.6,23.4,173.0,186.0,1156.0,4.0,1,
126400,1856.4,28.7,19.8,157.9,159.0,1155.0,24.0,1,
126600,1866.5,11.4,20.6,167.8,140.0,1034.0,26.0,0,
126700,1867.8,8.4,23.7,173.4,141.0,1108.0,27.0,0,
126800,1852.8,6.1,23.8,205.7,141.0,1108.0,27.0,0,
126900,1859.7,6.6,23.7,232.0,141.0,1108.0,27.0,0,
127000,1860.3,5.9,23.7,228.0,141.0,1108.0,27.0,0,
127100,1859.8,5.9,23.7,227.5,141.0,1108.0,27.0,0,
127200,1859.2,8.0,23.7,231.2,141.0,1108.0,27.0,0,
127300,1857.9,8.9,23.8,240.3,141.0,1108.0,27.0,0,
127400,1858.6,7.6,23.8,218.2,141.0,1108.0,27.0,0,
127600,1859.1,8.5,23.8,220.4,141.0,1108.0,27.0,0,
127700,1860.0,43.2,23.8,231.7,159.0,1097.0,25.0,0,
127800,1861.1,13.6,26.5,198.1,176.0,957.0,20.0,1,
127900,1869.4,15.9,26.5,164.6,147.0,989.0,22.0,1,
128000,1855.4,24.7,29.3,164.8,138.0,1037.0,24.0,1,
128100,1865.5,11.3,29.0,185.4,141.0,1080.0,27.0,0,
128200,1855.6,14.3,31.4,206.4,137.0,989.0,22.0,1,
128300,1862.4,8.2,29.2,184.7,135.0,973.0,22.0,1,
128400,1856.5,8.3,29.1,173.0,135.0,973.0,22.0,1,
128600,1858.8,7.8,29.2,174.1,135.0,973.0,22.0,1,
128700,1857.6,6.8,29.2,186.8,135.0,973.0,22.0,1,
128800,1857.5,7.0,29.2,195.8,135.0,973.0,22.0,1,
128900,1858.8,5.8,29.2,219.4,135.0,973.0,22.0,1,
129000,1858.4,8.2,29.2,246.9,135.0,973.0,22.0,1,
129100,1857.3,6.5,29.2,250.2,135.0,973.0,22.0,1,
129200,1860.0,7.8,29.1,267.9,135.0,973.0,22.0,1,
129300,1859.3,7.6,29.1,272.4,149.0,1134.0,16.0,1,
129400,1853.5,11.5,23.8,271.1,150.0,1062.0,21.0,1,
129600,1868.2,20.4,23.0,238.0,160.0,1150.0,24.0,1,
129700,1845.7,17.4,23.0,218.6,146.0,1094.0,28.0,0,
129800,1858.6,16.3,25.0,183.3,146.0,1137.0,26.0,0,
129900,1864.5,16.6,22.1,155.1,144.0,1019.0,28.0,0,
130000,1850.9,6.4,26.2,153.2,144.0,1019.0,28.0,0,
130100,1858.9,6.9,26.1,149.7,144.0,1019.0,28.0,0,
130200,1858.5,7.7,26.1,146.3,144.0,1019.0,28.0,0,
130300,1859.1,6.5,26.1,153.8,144.0,1019.0,28.0,0,
130400,1858.0,7.1,26.1,227.7,144.0,1019.0,28.0,0,
130600,1858.9,7.3,26.1,278.7,144.0,1019.0,28.0,0,
130700,1859.0,6.3,26.0,270.2,144.0,1019.0,28.0,0,
130800,1857.5,6.2,26.0,284.4,144.0,1019.0,28.0,0,
130900,1859.0,7.4,26.0,267.9,144.0,1019.0,28.0,0,
131000,1854.8,14.8,26.0,237.9,130.0,950.0,20.0,1,
131100,1867.1,11.9,27.7,236.5,127.0,1019.0,18.0,1,
131200,1862.7,14.6,25.8,200.4,132.0,953.0,25.0,0,
131300,1851.5,12.0,24.9,185.5,150.0,1078.0,17.0,1,
131400,1861.8,8.8,26.0,169.7,138.0,946.0,23.0,1,
131600,1855.7,7.7,23.0,153.9,143.0,906.0,25.0,0,
131700,1857.0,7.2,23.0,196.1,143.0,906.0,25.0,0,
131800,1859.0,7.2,23.0,229.5,143.0,906.0,25.0,0,
131900,1858.6,7.0,23.0,230.5,143.0,906.0,25.0,0,
132000,1857.2,7.4,23.0,237.6,143.0,906.0,25.0,0,
132100,1859.7,7.0,23.1,248.0,143.0,906.0,25.0,0,
132200,1858.6,7.4,23.1,251.2,143.0,906.0,25.0,0,
132300,1859.3,7.3,23.1,251.3,143.0,906.0,25.0,0,
132400,1859.0,7.1,23.2,263.9,143.0,906.0,25.0,0,
132600,1865.6,7.3,23.1,281.7,151.0,946.0,22.0,1,
132700,1858.6,11.7,26.2,245.6,160.0,887.0,11.0,1,
132800,1865.5,9.1,24.0,232.1,127.0,891.0,28.0,0,
132900,1853.3,30.2,21.4,229.6,131.0,939.0,24.0,1,
133000,1861.8,8.5,23.1,218.7,121.0,834.0,24.0,1,
133100,1867.2,9.9,25.2,220.9,129.0,953.0,24.0,1,
133200,1858.1,7.6,22.5,218.7,138.0,933.0,26.0,0,
133300,1858.7,7.3,22.4,176.9,138.0,933.0,26.0,0,
133400,1859.3,6.2,22.5,156.2,138.0,933.0,26.0,0,
133600,1859.5,6.5,22.4,226.9,138.0,933.0,26.0,0,
133700,1860.1,6.1,22.4,239.6,138.0,933.0,26.0,0,
133800,1859.7,6.8,22.4,238.6,138.0,933.0,26.0,0,
133900,1859.8,7.0,22.3,218.2,138.0,933.0,26.0,0,
134000,1859.5,5.8,22.3,216.9,138.0,933.0,26.0,0,
134100,1858.3,7.0,22.3,214.5,138.0,933.0,26.0,0,
134200,1858.7,11.0,22.3,219.1,155.0,993.0,18.0,1,
134300,1860.0,9.1,24.4,246.7,123.0,950.0,27.0,0,
134400,1864.6,11.0,21.1,238.3,128.0,906.0,18.0,1,
134600,1847.7,11.9,23.7,177.9,126.0,1017.0,24.0,1,
134700,1859.0,10.5,26.1,174.8,171.0,958.0,20.0,1,
134800,1859.1,6.9,23.1,216.0,140.0,1124.0,26.0,0,
134900,1858.4,5.8,23.0,195.4,140.0,1124.0,26.0,0,
135000,1857.7,7.9,23.0,159.0,140.0,1124.0,26.0,0,
135100,1859.7,7.3,23.0,165.0,140.0,1124.0,26.0,0,
135200,1858.0,7.1,23.0,204.9,140.0,1124.0,26.0,0,
135300,1858.4,7.9,23.0,220.5,140.0,1124.0,26.0,0,
135400,1858.0,6.4,23.0,233.2,140.0,1124.0,26.0,0,
135600,1857.6,5.5,23.1,241.1,140.0,1124.0,26.0,0,
135700,1859.0,5.6,23.0,244.6,140.0,1124.0,26.0,0,
135800,1857.7,6.3,23.0,242.2,132.0,988.0,26.0,0,
135900,1853.9,8.1,23.0,229.4,108.0,879.0,25.0,0,
136000,1867.8,12.6,21.7,226.2,125.0,1060.0,24.0,1,
136100,1858.1,26.8,19.6,195.5,130.0,932.0,28.0,0,
136200,1848.2,9.0,18.7,172.5,136.0,1010.0,28.0,0,
136300,1867.5,5.2,18.6,184.8,161.0,867.0,21.0,1,
136400,1863.2,16.7,15.1,204.3,142.0,938.0,25.0,0,
136600,1859.2,7.4,17.7,233.6,142.0,938.0,25.0,0,
136700,1858.1,6.3,17.7,233.8,142.0,938.0,25.0,0,
136800,1858.8,6.8,17.6,228.4,142.0,938.0,25.0,0,
136900,1859.4,6.2,17.6,208.3,142.0,938.0,25.0,0,
137000,1858.2,6.2,17.6,202.6,142.0,938.0,25.0,0,
137100,1857.8,7.2,17.5,207.5,142.0,938.0,25.0,0,
137200,1857.9,6.3,17.6,252.2,142.0,938.0,25.0,0,
137300,1858.5,5.9,17.7,272.9,142.0,938.0,25.0,0,
137400,1859.9,33.0,17.8,269.0,142.0,938.0,25.0,0,
137600,1859.4,11.1,23.3,231.8,125.0,867.0,24.0,1,
137700,1863.7,21.7,21.9,208.7,118.0,907.0,26.0,0,
137800,1853.3,7.0,22.1,170.9,143.0,991.0,14.0,1,
137900,1866.0,15.1,22.2,168.3,120.0,779.0,26.0,0,
138000,1867.3,15.9,22.4,217.2,120.0,1020.0,22.0,1,
138100,1846.1,6.7,22.6,216.3,119.0,951.0,28.0,0,
138200,1857.5,7.2,22.6,183.9,119.0,951.0,28.0,0,
138300,1856.5,6.7,22.6,186.8,119.0,951.0,28.0,0,
138400,1859.4,5.9,22.6,197.3,119.0,951.0,28.0,0,
138600,1858.3,6.1,22.6,234.5,119.0,951.0,28.0,0,
138700,1859.6,7.0,22.6,242.3,119.0,951.0,28.0,0,
138800,1859.3,5.9,22.6,239.2,119.0,951.0,28.0,0,
138900,1858.8,6.7,22.5,220.7,119.0,951.0,28.0,0,
139000,1859.2,7.0,22.5,200.7,119.0,951.0,28.0,0,
139100,1859.4,7.4,19.3,207.0,128.0,963.0,26.0,0,
139200,1861.8,9.7,21.7,241.3,130.0,952.0,24.0,1,
139300,1861.4,19.3,19.6,166.8,118.0,901.0,28.0,0,
139400,1866.3,37.1,20.0,146.4,118.0,845.0,27.0,0,
139600,1861.4,15.1,23.3,183.4,151.0,969.0,15.0,1,
139700,1852.6,6.4,22.5,166.1,116.0,845.0,19.0,1,
139800,1857.9,7.0,22.5,154.1,116.0,845.0,19.0,1,
139900,1858.4,8.2,22.6,167.6,116.0,845.0,19.0,1,
140000,1858.1,6.4,22.6,197.2,116.0,845.0,19.0,1,
140100,1859.4,6.9,22.7,279.4,116.0,845.0,19.0,1,
140200,1859.2,5.5,22.7,252.1,116.0,845.0,19.0,1,
140300,1859.7,5.7,22.7,268.3,116.0,845.0,19.0,1,
140400,1860.0,7.7,22.7,254.4,116.0,845.0,19.0,1,
140600,1858.7,7.2,22.8,259.0,116.0,845.0,19.0,1,
140700,1859.8,9.9,22.7,243.0,154.0,1007.0,12.0,1,
140800,1863.5,6.2,22.8,206.3,127.0,959.0,25.0,0,
140900,1870.3,15.4,20.5,199.4,136.0,944.0,21.0,1,
141000,1845.7,7.8,19.4,188.4,136.0,945.0,22.0,1,
141100,1859.1,11.7,18.8,153.3,116.0,829.0,20.0,1,
141200,1865.4,13.7,18.7,170.5,124.0,966.0,25.0,0,
141300,1850.5,8.2,19.7,210.1,133.0,951.0,25.0,0,
141400,1864.0,7.3,19.7,199.1,133.0,951.0,25.0,0,
141600,1857.9,6.5,19.7,151.0,133.0,951.0,25.0,0,
141700,1858.6,7.0,19.7,234.7,133.0,951.0,25.0,0,
141800,1857.8,6.5,19.6,271.5,133.0,951.0,25.0,0,
141900,1858.4,6.9,19.6,253.1,133.0,951.0,25.0,0,
142000,1859.6,5.4,19.6,233.7,133.0,951.0,25.0,0,
142100,1858.3,6.1,19.4,231.7,133.0,951.0,25.0,0,
142200,1859.2,5.9,19.4,237.2,133.0,951.0,25.0,0,
142300,1858.0,5.9,19.4,244.6,151.0,1039.0,20.0,1,
142400,1861.5,16.3,21.3,245.6,146.0,951.0,24.0,1,
142600,1850.2,10.7,22.1,226.8,123.0,949.0,21.0,1,
142700,1858.7,10.5,24.0,201.5,130.0,906.0,20.0,1,
142800,1866.7,11.9,21.3,185.2,131.0,900.0,27.0,0,
142900,1863.0,7.9,21.2,199.2,124.0,1046.0,25.0,0,
143000,1855.8,7.6,21.2,175.6,124.0,1046.0,25.0,0,
143100,1858.6,7.9,21.2,153.3,124.0,1046.0,25.0,0,
143200,1858.1,6.9,21.3,143.8,124.0,1046.0,25.0,0,
143300,1857.8,6.2,21.3,215.3,124.0,1046.0,25.0,0,
143400,1858.0,7.3,21.3,283.4,124.0,1046.0,25.0,0,
143600,1859.1,7.6,21.3,239.7,124.0,1046.0,25.0,0,
143700,1859.1,6.4,21.4,253.3,124.0,1046.0,25.0,0,
143800,1859.8,8.0,21.4,248.1,124.0,1046.0,25.0,0,
143900,1856.8,7.2,21.4,235.4,124.0,1046.0,25.0,0,
144000,1852.1,6.7,21.5,226.7,135.0,933.0,26.0,0,
144100,1866.0,23.9,18.8,211.3,130.0,918.0,24.0,1,
144200,1852.3,13.4,19.3,156.3,120.0,964.0,22.0,1,
144300,1855.8,9.5,17.8,117.7,115.0,900.0,18.0,1,
144400,1864.9,11.1,19.2,109.8,150.0,1016.0,28.0,0,
144600,1852.8,8.0,19.6,156.8,150.0,1016.0,28.0,0,
144700,1859.6,6.9,19.6,172.6,150.0,1016.0,28.0,0,
144800,1858.5,6.0,19.6,212.4,150.0,1016.0,28.0,0,
144900,1858.0,8.0,19.6,217.5,150.0,1016.0,28.0,0,
145000,1858.4,6.5,19.7,213.6,150.0,1016.0,28.0,0,
145100,1860.0,5.9,19.7,262.3,150.0,1016.0,28.0,0,
145200,1858.3,7.8,19.6,249.8,150.0,1016.0,28.0,0,
145300,1858.3,5.5,19.6,231.8,150.0,1016.0,28.0,0,
145400,1859.5,6.6,19.6,230.3,150.0,1016.0,28.0,0,
145600,1853.8,11.5,22.5,236.9,128.0,937.0,23.0,1,
145700,1865.3,19.1,22.5,235.8,115.0,850.0,22.0,1,
145800,1867.6,30.3,22.6,231.1,114.0,894.0,28.0,0,
145900,1849.9,9.3,24.4,215.6,137.0,954.0,26.0,0,
146000,1861.3,8.7,25.9,205.7,117.0,840.0,26.0,0,
146100,1862.6,20.7,24.1,199.3,124.0,897.0,16.0,1,
146200,1853.9,7.4,24.3,173.9,127.0,884.0,27.0,0,
146300,1859.8,6.6,24.3,185.5,127.0,884.0,27.0,0,
146400,1858.5,6.6,24.3,213.4,127.0,884.0,27.0,0,
146600,1859.7,7.1,24.3,201.4,127.0,884.0,27.0,0,
146700,1859.5,5.3,24.3,226.2,127.0,884.0,27.0,0,
146800,1859.8,7.5,24.4,274.4,127.0,884.0,27.0,0,
146900,1860.3,6.6,24.4,283.7,127.0,884.0,27.0,0,
147000,1859.2,5.7,24.4,280.8,127.0,884.0,27.0,0,
147100,1860.3,5.9,24.5,270.4,127.0,884.0,27.0,0,
147200,1859.2,9.9,24.4,262.8,145.0,1009.0,14.0,1,
147300,1867.4,15.2,23.2,242.3,142.0,919.0,15.0,1,
147400,1858.9,25.9,21.3,178.4,122.0,920.0,28.0,0,
147600,1858.5,7.7,24.2,167.8,136.0,885.0,28.0,0,
147700,1863.4,16.4,22.5,210.2,122.0,1043.0,26.0,0,
147800,1861.5,6.1,22.9,184.9,115.0,942.0,25.0,0,
147900,1853.4,7.1,22.9,189.8,115.0,942.0,25.0,0,
148000,1858.3,6.5,22.9,221.4,115.0,942.0,25.0,0,
148100,1860.9,7.0,22.9,221.0,115.0,942.0,25.0,0,
148200,1859.3,7.5,22.9,220.7,115.0,942.0,25.0,0,
148300,1861.4,7.9,23.0,221.2,115.0,942.0,25.0,0,
148400,1861.3,5.3,23.1,216.8,115.0,942.0,25.0,0,
148600,1861.2,6.5,23.0,225.7,115.0,942.0,25.0,0,
148700,1860.7,6.0,23.0,237.8,115.0,942.0,25.0,0,
148800,1859.7,7.1,23.0,229.1,149.0,924.0,23.0,1,
148900,1864.0,12.4,25.2,214.6,143.0,969.0,28.0,0,
149000,1865.5,25.9,23.3,225.7,130.0,862.0,16.0,1,
149100,1853.0,28.4,25.5,218.0,129.0,944.0,13.0,1,
149200,1865.1,10.4,26.3,211.7,131.0,897.0,25.0,0,
149300,1868.4,14.9,25.6,215.9,129.0,885.0,22.0,1,
149400,1857.3,7.7,25.6,226.0,133.0,855.0,23.0,1,
149600,1859.0,7.0,25.7,234.8,133.0,855.0,23.0,1,
149700,1858.3,6.3,25.6,231.2,133.0,855.0,23.0,1,
149800,1860.7,6.8,25.6,229.5,133.0,855.0,23.0,1,
149900,1860.9,5.3,25.6,233.9,133.0,855.0,23.0,1,
150000,1860.6,5.4,25.5,250.5,133.0,855.0,23.0,1,
150100,1859.8,7.4,25.5,271.5,133.0,855.0,23.0,1,
150200,1862.1,5.1,25.6,235.5,133.0,855.0,23.0,1,
150300,1862.1,7.2,25.6,217.8,133.0,855.0,23.0,1,
150400,1860.2,7.5,25.6,212.0,133.0,855.0,23.0,1,
150600,1865.0,11.7,24.8,186.3,131.0,837.0,28.0,0,
150700,1866.8,27.1,22.6,170.0,150.0,813.0,27.0,0,
150800,1850.7,9.1,22.2,168.7,125.0,965.0,26.0,0,
150900,1863.3,18.1,25.1,169.9,128.0,876.0,20.0,1,
151000,1859.6,19.3,24.7,178.1,120.0,783.0,22.0,1,
151100,1858.3,7.8,26.1,186.7,120.0,783.0,22.0,1,
151200,1862.7,6.2,26.2,199.0,120.0,783.0,22.0,1,
151300,1860.9,5.7,26.2,214.7,120.0,783.0,22.0,1,
151400,1859.8,6.5,26.1,218.2,120.0,783.0,22.0,1,
151600,1859.3,6.7,26.2,218.6,120.0,783.0,22.0,1,
151700,1859.0,5.6,26.2,245.4,120.0,783.0,22.0,1,
151800,1859.9,7.4,26.1,235.8,120.0,783.0,22.0,1,
151900,1859.1,6.0,26.2,199.7,120.0,783.0,22.0,1,
152000,1859.8,26.3,26.1,186.8,120.0,783.0,22.0,1,
152100,1853.3,6.8,28.5,195.7,126.0,886.0,28.0,0,
152200,1870.0,18.2,28.8,230.6,140.0,994.0,24.0,1,
152300,1856.8,28.5,29.6,219.4,185.0,1050.0,20.0,1,
152400,1852.5,8.4,30.1,217.3,143.0,962.0,26.0,0,
152600,1860.2,16.3,27.6,177.0,134.0,946.0,23.0,1,
152700,1856.7,7.3,27.8,177.6,128.0,845.0,24.0,1,
152800,1862.0,7.3,27.8,196.8,128.0,845.0,24.0,1,
152900,1860.8,5.6,27.7,176.8,128.0,845.0,24.0,1,
153000,1859.2,6.1,27.8,175.3,128.0,845.0,24.0,1,
153100,1858.7,6.3,27.8,227.4,128.0,845.0,24.0,1,
153200,1861.1,6.7,27.8,239.8,128.0,845.0,24.0,1,
153300,1860.5,6.0,27.8,242.6,128.0,845.0,24.0,1,
153400,1860.1,5.6,27.8,239.9,128.0,845.0,24.0,1,
153600,1860.4,6.8,27.8,221.0,128.0,845.0,24.0,1,
153700,1864.7,9.1,25.6,220.5,123.0,932.0,24.0,1,
153800,1861.3,20.3,28.1,205.7,135.0,958.0,21.0,1,
153900,1859.7,23.5,26.2,186.4,127.0,965.0,17.0,1,
154000,1851.3,6.7,25.9,188.5,135.0,844.0,26.0,0,
154100,1867.5,5.0,25.8,190.1,142.0,927.0,26.0,0,
154200,1867.3,14.8,23.3,175.2,139.0,898.0,20.0,1,
154300,1852.0,7.7,23.0,147.2,157.0,972.0,24.0,1,
154400,1857.6,7.4,22.9,154.5,157.0,972.0,24.0,1,
154600,1860.8,5.6,23.0,155.0,157.0,972.0,24.0,1,
154700,1860.9,6.4,22.9,178.1,157.0,972.0,24.0,1,
154800,1859.9,6.4,22.9,178.3,157.0,972.0,24.0,1,
154900,1861.3,6.8,22.9,212.8,157.0,972.0,24.0,1,
155000,1861.2,6.4,22.9,233.0,157.0,972.0,24.0,1,
155100,1858.1,6.6,22.8,231.0,157.0,972.0,24.0,1,
155200,1859.9,6.1,22.8,237.9,157.0,972.0,24.0,1,
155300,1859.8,10.4,22.8,244.1,143.0,984.0,22.0,1,
155400,1869.6,13.3,22.8,268.6,119.0,858.0,26.0,0,
155600,1855.1,7.6,19.9,227.0,139.0,935.0,15.0,1,
155700,1866.9,7.1,21.6,211.2,126.0,867.0,21.0,1,
155800,1864.1,20.0,21.8,175.8,148.0,967.0,19.0,1,
155900,1852.4,6.1,22.5,167.8,111.0,832.0,18.0,1,
156000,1865.5,6.6,22.5,170.6,111.0,832.0,18.0,1,
156100,1859.4,6.5,22.5,165.3,111.0,832.0,18.0,1,
156200,1860.7,6.5,22.4,163.3,111.0,832.0,18.0,1,
156300,1860.6,7.0,22.5,218.1,111.0,832.0,18.0,1,
156400,1860.1,6.5,22.5,211.5,111.0,832.0,18.0,1,
156600,1859.6,6.4,22.5,283.1,111.0,832.0,18.0,1,
156700,1859.8,7.9,22.6,280.5,111.0,832.0,18.0,1,
156800,1861.1,7.2,22.6,272.1,111.0,832.0,18.0,1,
156900,1858.9,5.7,22.7,272.4,142.0,888.0,25.0,0,
157000,1867.4,15.9,22.6,241.1,132.0,958.0,21.0,1,
157100,1867.2,15.4,22.7,231.4,149.0,1031.0,16.0,1,
157200,1846.7,10.6,22.3,231.8,131.0,962.0,21.0,1,
157300,1859.3,14.8,24.8,210.0,139.0,878.0,28.0,0,
157400,1866.7,8.6,23.4,185.4,122.0,889.0,25.0,0,
157600,1869.3,7.4,21.3,210.4,122.0,889.0,25.0,0,
157700,1859.2,7.7,21.3,185.3,122.0,889.0,25.0,0,
157800,1857.5,6.8,21.4,217.2,122.0,889.0,25.0,0,
157900,1862.5,5.9,21.4,230.2,122.0,889.0,25.0,0,
158000,1859.8,6.2,21.4,204.8,122.0,889.0,25.0,0,
158100,1859.8,5.8,21.3,203.4,122.0,889.0,25.0,0,
158200,1861.1,6.8,21.3,215.9,122.0,889.0,25.0,0,
158300,1858.6,5.9,21.3,232.7,122.0,889.0,25.0,0,
158400,1859.6,5.6,21.2,243.2,122.0,889.0,25.0,0,
158600,1866.2,8.4,21.2,226.2,221.0,1014.0,5.0,1,
158700,1864.8,16.1,17.2,215.4,150.0,938.0,24.0,1,
158800,1855.2,9.2,19.5,155.9,152.0,931.0,17.0,1,
158900,1859.9,9.1,21.7,149.0,141.0,917.0,25.0,0,
159000,1867.2,12.9,18.5,150.9,123.0,866.0,22.0,1,
159100,1863.9,26.0,21.4,158.7,145.0,906.0,28.0,0,
159200,1850.6,6.4,23.0,153.7,145.0,906.0,28.0,0,
159300,1858.8,6.3,23.0,158.7,145.0,906.0,28.0,0,
159400,1859.5,5.9,23.0,205.2,145.0,906.0,28.0,0,
159600,1859.5,6.3,22.9,253.3,145.0,906.0,28.0,0,
159700,1861.8,6.4,23.0,253.3,145.0,906.0,28.0,0,
159800,1860.4,5.8,23.0,251.4,145.0,906.0,28.0,0,
159900,1858.7,7.0,23.0,240.8,145.0,906.0,28.0,0,
160000,1860.7,5.9,23.1,237.5,145.0,906.0,28.0,0,
160100,1860.8,6.5,23.0,240.6,145.0,906.0,28.0,0,
160200,1857.7,5.0,23.0,249.8,154.0,878.0,28.0,0,
160300,1869.8,16.5,22.9,243.9,163.0,918.0,4.0,1,
160400,1852.7,6.3,21.6,209.7,127.0,944.0,26.0,0,
160600,1867.4,8.9,21.0,187.8,112.0,802.0,26.0,0,
160700,1862.0,5.3,18.1,173.1,132.0,978.0,27.0,0,
160800,1853.8,2.5,15.9,154.3,122.0,899.0,25.0,0,
160900,1859.9,2.9,15.8,151.8,122.0,899.0,25.0,0,
161000,1860.8,2.4,15.7,145.0,122.0,899.0,25.0,0,
161100,1860.0,2.5,15.5,146.1,122.0,899.0,25.0,0,
161200,1860.7,4.4,15.4,207.2,122.0,899.0,25.0,0,
161300,1859.1,2.7,15.3,216.0,122.0,899.0,25.0,0,
161400,1860.3,3.6,15.2,246.0,122.0,899.0,25.0,0,
161600,1859.7,5.3,14.9,243.2,122.0,899.0,25.0,0,
161700,1859.5,6.0,14.9,234.1,122.0,899.0,25.0,0,
161800,1859.3,6.8,14.9,233.4,130.0,937.0,24.0,1,
161900,1869.9,12.5,15.0,216.7,153.0,978.0,24.0,1,
162000,1867.5,7.6,16.1,201.6,133.0,1073.0,20.0,1,
162100,1847.7,6.5,16.1,208.7,122.0,903.0,21.0,1,
162200,1864.1,11.2,20.1,207.8,145.0,954.0,27.0,0,
162300,1863.7,25.1,18.0,173.1,139.0,898.0,24.0,1,
162400,1851.4,8.9,21.5,153.1,146.0,1032.0,23.0,1,
162600,1860.5,7.1,21.7,210.8,146.0,1032.0,23.0,1,
162700,1858.9,5.6,21.9,210.8,146.0,1032.0,23.0,1,
162800,1859.3,6.1,22.0,204.1,146.0,1032.0,23.0,1,
162900,1860.0,5.7,22.0,238.5,146.0,1032.0,23.0,1,
163000,1860.2,5.9,22.1,213.9,146.0,1032.0,23.0,1,
163100,1858.4,6.0,22.2,211.3,146.0,1032.0,23.0,1,
163200,1860.6,6.1,22.3,233.4,146.0,1032.0,23.0,1,
163300,1859.8,5.8,22.3,264.8,146.0,1032.0,23.0,1,
163400,1859.9,7.4,22.3,265.7,163.0,1068.0,20.0,1,
163600,1861.2,7.8,22.4,187.6,129.0,989.0,22.0,1,
163700,1853.3,8.3,22.4,169.4,161.0,1003.0,17.0,1,
163800,1862.8,10.9,24.7,165.2,156.0,979.0,23.0,1,
163900,1864.8,5.2,21.7,169.7,120.0,921.0,20.0,1,
164000,1865.4,8.8,18.3,175.2,156.0,1012.0,27.0,0,
164100,1855.0,6.1,18.3,171.6,156.0,1012.0,27.0,0,
164200,1860.3,5.2,18.3,164.2,156.0,1012.0,27.0,0,
164300,1860.3,5.7,18.2,164.1,156.0,1012.0,27.0,0,
164400,1859.8,5.7,18.2,214.1,156.0,1012.0,27.0,0,
164600,1860.9,5.9,18.2,267.9,156.0,1012.0,27.0,0,
164700,1859.3,7.4,18.3,264.0,156.0,1012.0,27.0,0,
164800,1861.5,6.4,18.3,245.6,156.0,1012.0,27.0,0,
164900,1860.9,5.1,18.3,240.0,156.0,1012.0,27.0,0,
165000,1860.3,6.2,18.3,237.6,156.0,1012.0,27.0,0,
165100,1860.9,9.4,20.5,245.8,121.0,852.0,18.0,1,
165200,1868.5,16.0,16.7,236.1,128.0,958.0,23.0,1,
165300,1849.1,30.3,20.2,208.4,127.0,959.0,24.0,1,
165400,1862.8,19.4,22.4,176.3,131.0,1045.0,22.0,1,
165600,1855.0,26.8,20.3,186.1,141.0,950.0,25.0,0,
165700,1855.6,7.1,22.6,174.7,141.0,950.0,25.0,0,
165800,1860.1,5.6,22.6,167.1,141.0,950.0,25.0,0,
165900,1859.9,6.6,22.6,186.4,141.0,950.0,25.0,0,
166000,1860.5,6.1,22.6,186.9,141.0,950.0,25.0,0,
166100,1861.4,6.3,22.7,206.7,141.0,950.0,25.0,0,
166200,1859.4,6.4,22.6,220.6,141.0,950.0,25.0,0,
166300,1861.0,5.6,22.6,231.9,141.0,950.0,25.0,0,
166400,1860.7,5.8,22.6,220.5,141.0,950.0,25.0,0,
166600,1859.4,5.4,22.5,209.5,141.0,950.0,25.0,0,
166700,1855.7,10.5,24.9,207.0,120.0,927.0,20.0,1,
166800,1864.1,14.0,23.2,83.2,132.0,858.0,23.0,1,
166900,1855.0,35.5,23.3,42.8,137.0,937.0,25.0,0,
167000,1864.4,10.6,24.3,122.7,144.0,914.0,21.0,1,
167100,1862.9,8.5,23.9,166.9,131.0,975.0,24.0,1,
167200,1858.5,21.2,23.8,178.2,143.0,1029.0,25.0,0,
167300,1853.9,7.4,23.2,183.6,117.0,780.0,13.0,1,
167400,1858.3,4.7,23.2,202.7,117.0,780.0,13.0,1,
167600,1858.1,6.6,23.1,198.6,117.0,780.0,13.0,1,
167700,1859.3,6.9,23.1,198.3,117.0,780.0,13.0,1,
167800,1860.2,7.4,23.1,203.3,117.0,780.0,13.0,1,
167900,1858.5,5.2,23.2,206.2,117.0,780.0,13.0,1,
168000,1859.6,6.6,23.2,229.2,117.0,780.0,13.0,1,
168100,1860.2,6.5,23.1,234.5,117.0,780.0,13.0,1,
168200,1860.3,6.4,23.2,246.2,117.0,780.0,13.0,1,
168300,1858.9,6.9,23.2,253.4,159.0,1007.0,25.0,0,
168400,1871.5,10.2,22.4,239.7,126.0,951.0,25.0,0,
168600,1850.8,8.1,19.5,154.0,174.0,956.0,27.0,0,
168700,1865.8,7.7,23.3,173.4,133.0,860.0,19.0,1,
168800,1861.7,17.6,23.3,210.5,145.0,1082.0,24.0,1,
168900,1865.4,7.2,24.5,178.3,162.0,973.0,23.0,1,
169000,1850.9,7.8,24.5,177.8,162.0,973.0,23.0,1,
169100,1857.8,7.0,24.5,217.7,162.0,973.0,23.0,1,
169200,1858.7,6.1,24.6,226.6,162.0,973.0,23.0,1,
169300,1859.6,6.7,24.6,209.5,162.0,973.0,23.0,1,
169400,1859.2,6.6,24.6,227.1,162.0,973.0,23.0,1,
169600,1860.6,6.2,24.7,246.5,162.0,973.0,23.0,1,
169700,1860.2,5.8,24.7,249.8,162.0,973.0,23.0,1,
169800,1859.6,6.3,24.7,252.2,162.0,973.0,23.0,1,
169900,1859.6,10.2,24.7,267.3,173.0,1041.0,18.0,1,
170000,1866.3,16.2,26.8,264.8,121.0,871.0,26.0,0,
170100,1865.3,14.1,24.7,221.2,133.0,935.0,23.0,1,
170200,1854.4,25.9,26.1,207.5,171.0,1033.0,22.0,1,
170300,1860.6,11.2,27.6,177.1,139.0,972.0,25.0,0,
170400,1868.8,11.8,26.7,169.5,122.0,879.0,18.0,1,
170600,1859.3,7.1,24.6,177.0,122.0,879.0,18.0,1,
170700,1860.0,5.9,24.6,156.6,122.0,879.0,18.0,1,
170800,1860.3,6.8,24.6,158.0,122.0,879.0,18.0,1,
170900,1861.7,5.9,24.6,225.7,122.0,879.0,18.0,1,
171000,1859.0,5.9,24.6,245.6,122.0,879.0,18.0,1,
171100,1860.0,6.2,24.5,272.5,122.0,879.0,18.0,1,
171200,1861.4,5.4,24.5,302.9,122.0,879.0,18.0,1,
171300,1860.6,6.5,24.5,279.8,122.0,879.0,18.0,1,
171400,1859.8,5.7,24.5,238.8,122.0,879.0,18.0,1,
171600,1855.3,11.5,24.2,204.8,131.0,963.0,23.0,1,
171700,1867.3,11.7,22.0,188.4,163.0,893.0,23.0,1,
171800,1854.1,10.8,19.7,174.4,142.0,1037.0,28.0,0,
171900,1864.5,7.0,17.6,166.8,137.0,928.0,28.0,0,
172000,1862.4,10.2,20.3,164.8,129.0,870.0,24.0,1,
172100,1862.2,23.1,16.8,163.8,137.0,980.0,23.0,1,
172200,1858.2,6.8,20.5,154.9,137.0,980.0,23.0,1,
172300,1860.5,5.7,20.5,174.4,137.0,980.0,23.0,1,
172400,1859.3,5.4,20.4,207.1,137.0,980.0,23.0,1,
172600,1861.1,5.9,20.5,231.4,137.0,980.0,23.0,1,
172700,1860.2,5.9,20.5,242.0,137.0,980.0,23.0,1,
172800,1859.1,6.0,20.5,243.2,137.0,980.0,23.0,1,
172900,1861.5,6.9,20.5,241.2,137.0,980.0,23.0,1,
173000,1860.3,7.8,20.5,218.1,137.0,980.0,23.0,1,
173100,1859.0,6.5,20.6,219.4,137.0,980.0,23.0,1,
173200,1856.0,5.3,20.6,234.7,149.0,1072.0,16.0,1,
173300,1868.9,8.5,20.5,264.2,140.0,995.0,22.0,1,
173400,1866.7,39.2,21.3,234.5,243.0,1150.0,5.0,1,
173600,1861.3,9.3,30.2,207.8,138.0,924.0,11.0,1,
173700,1865.7,8.0,28.4,199.5,126.0,999.0,28.0,0,
173800,1854.9,6.4,25.9,203.0,124.0,979.0,25.0,0,
173900,1859.5,6.0,25.9,197.2,124.0,979.0,25.0,0,
174000,1860.5,6.5,25.9,178.6,124.0,979.0,25.0,0,
174100,1861.1,6.7,26.0,215.2,124.0,979.0,25.0,0,
174200,1860.0,7.0,26.0,232.7,124.0,979.0,25.0,0,
174300,1859.8,6.3,26.0,218.4,124.0,979.0,25.0,0,
174400,1861.1,6.1,26.0,225.7,124.0,979.0,25.0,0,
174600,1859.5,6.2,26.0,228.4,124.0,979.0,25.0,0,
174700,1860.6,6.7,26.0,208.2,124.0,979.0,25.0,0,
174800,1871.5,5.3,26.0,194.5,155.0,1046.0,28.0,0,
174900,1858.4,17.7,28.2,211.7,156.0,978.0,5.0,1,
175000,1861.0,14.8,26.3,229.6,149.0,1006.0,26.0,0,
175100,1851.6,27.7,23.2,217.2,122.0,921.0,5.0,1,
175200,1863.2,7.4,24.9,200.2,154.0,970.0,25.0,0,
175300,1871.5,10.4,22.4,183.2,128.0,996.0,27.0,0,
175400,1852.2,7.0,22.5,173.5,132.0,868.0,27.0,0,
175600,1860.5,6.9,22.5,166.6,132.0,868.0,27.0,0,
175700,1859.4,6.8,22.4,225.8,132.0,868.0,27.0,0,
175800,1859.8,6.2,22.4,234.4,132.0,868.0,27.0,0,
175900,1860.5,5.1,22.3,245.2,132.0,868.0,27.0,0,
176000,1861.9,5.8,22.3,268.2,132.0,868.0,27.0,0,
176100,1861.8,5.2,22.3,271.2,132.0,868.0,27.0,0,
176200,1860.8,5.3,22.3,230.9,132.0,868.0,27.0,0,
176300,1861.1,4.9,22.3,200.0,132.0,868.0,27.0,0,
176400,1859.7,6.2,22.2,199.1,142.0,960.0,28.0,0,
176600,1867.9,11.2,22.0,234.1,120.0,849.0,27.0,0,
176700,1852.6,30.8,20.2,228.4,125.0,938.0,25.0,0,
176800,1866.7,6.5,20.8,188.3,124.0,943.0,27.0,0,
176900,1861.8,8.9,23.8,170.1,121.0,891.0,27.0,0,
177000,1860.2,3.2,23.6,196.4,127.0,979.0,23.0,1,
177100,1862.2,2.7,23.5,175.3,127.0,979.0,23.0,1,
177200,1859.9,2.2,23.4,157.0,127.0,979.0,23.0,1,
177300,1859.9,2.1,23.3,150.8,127.0,979.0,23.0,1,
177400,1860.2,2.7,23.2,130.9,127.0,979.0,23.0,1,
177600,1859.4,1.6,23.0,185.4,127.0,979.0,23.0,1,
177700,1860.8,2.1,22.9,189.6,127.0,979.0,23.0,1,
177800,1860.9,2.2,22.8,156.0,127.0,979.0,23.0,1,
177900,1859.8,2.3,22.7,145.6,127.0,979.0,23.0,1,
178000,1860.3,16.6,22.6,167.8,137.0,999.0,19.0,1,
178100,1856.9,7.9,24.6,158.5,130.0,895.0,28.0,0,
178200,1867.9,9.1,21.6,163.6,120.0,838.0,27.0,0,
178300,1861.7,27.8,23.0,165.0,124.0,926.0,28.0,0,
178400,1851.6,6.5,22.6,159.2,126.0,927.0,27.0,0,
178600,1858.3,16.8,19.0,176.7,125.0,952.0,24.0,1,
178700,1860.3,2.9,21.2,176.9,125.0,952.0,24.0,1,
178800,1859.8,1.9,21.2,152.9,125.0,952.0,24.0,1,
178900,1860.6,2.4,21.2,150.3,125.0,952.0,24.0,1,
179000,1860.4,2.0,21.2,147.9,125.0,952.0,24.0,1,
179100,1859.8,32.1,21.2,142.3,125.0,952.0,24.0,1,
179200,1861.1,4.4,25.2,123.6,125.0,952.0,24.0,1,
179300,1860.3,2.1,25.2,115.7,125.0,952.0,24.0,1,
179400,1860.0,1.6,25.2,114.4,125.0,952.0,24.0,1,
179600,1860.7,32.9,25.2,112.9,125.0,952.0,24.0,1,
179700,1863.1,6.7,26.5,154.7,124.0,914.0,28.0,0,
179800,1861.7,6.0,26.0,150.6,117.0,834.0,27.0,0,
179900,1858.7,25.2,22.6,148.6,128.0,1000.0,25.0,0,
180000,1857.2,4.6,23.8,146.7,117.0,871.0,26.0,0,
180100,1868.5,8.1,23.8,152.2,122.0,886.0,26.0,0,
180200,1873.0,6.1,26.6,157.7,129.0,952.0,27.0,0,
180300,1844.9,2.3,24.9,188.4,117.0,854.0,18.0,1,
180400,1860.8,2.3,24.9,219.9,117.0,854.0,18.0,1,
180600,1860.0,2.0,24.9,158.5,117.0,854.0,18.0,1,
180700,1860.8,2.3,24.9,132.3,117.0,854.0,18.0,1,
180800,1860.3,1.9,20.9,135.8,117.0,854.0,18.0,1,
180900,1859.9,1.9,20.8,118.2,117.0,854.0,18.0,1,
181000,1860.8,1.9,20.8,139.2,117.0,854.0,18.0,1,
181100,1860.8,2.0,20.8,164.4,117.0,854.0,18.0,1,
181200,1859.8,2.1,20.8,175.9,117.0,854.0,18.0,1,
181300,1860.1,6.4,17.4,178.3,129.0,916.0,28.0,0,
181400,1868.1,11.7,17.4,151.9,120.0,862.0,26.0,0,
181600,1858.2,40.5,26.0,215.6,1547.0,6677.0,4.0,1,
181700,1870.2,11.3,30.2,168.4,130.0,923.0,27.0,0,
181800,1860.7,6.0,28.4,135.0,136.0,998.0,28.0,0,
181900,1852.9,3.5,28.4,133.7,139.0,968.0,25.0,0,
182000,1859.0,2.7,28.4,147.8,139.0,968.0,25.0,0,
182100,1859.8,2.2,28.4,184.0,139.0,968.0,25.0,0,
182200,1860.7,2.8,28.4,186.4,139.0,968.0,25.0,0,
182300,1860.5,2.9,28.4,218.4,139.0,968.0,25.0,0,
182400,1859.7,2.4,28.4,213.4,139.0,968.0,25.0,0,
182600,1860.7,3.0,28.4,214.4,139.0,968.0,25.0,0,
182700,1859.0,2.3,28.4,233.8,139.0,968.0,25.0,0,
182800,1860.5,2.5,28.4,232.7,139.0,968.0,25.0,0,
182900,1860.2,4.2,28.4,221.3,127.0,907.0,24.0,1,
183000,1869.0,9.9,28.4,233.0,118.0,864.0,25.0,0,
183100,1855.0,29.4,28.7,153.3,128.0,938.0,25.0,0,
183200,1864.4,6.6,25.8,153.0,115.0,866.0,25.0,0,
183300,1864.7,7.7,20.3,166.8,140.0,917.0,25.0,0,
183400,1865.0,158.9,15.8,209.0,1059.0,6596.0,22.0,1,
183600,1855.0,6.8,64.7,102.3,1059.0,6596.0,22.0,1,
183700,1860.2,2.7,64.7,122.6,1059.0,6596.0,22.0,1,
183800,1860.3,30.6,64.7,139.0,1059.0,6596.0,22.0,1,
183900,1860.9,15.1,66.6,146.4,1059.0,6596.0,22.0,1,
184000,1859.8,3.3,67.5,117.2,1059.0,6596.0,22.0,1,
184100,1859.9,2.8,67.5,115.9,1059.0,6596.0,22.0,1,
184200,1860.0,2.5,67.5,116.3,1059.0,6596.0,22.0,1,
184300,1860.3,2.6,67.5,116.5,1059.0,6596.0,22.0,1,
184400,1860.4,2.9,67.5,123.3,1059.0,6596.0,22.0,1,
184600,1872.0,6.8,67.9,208.7,120.0,789.0,27.0,0,
184700,1860.5,24.9,67.4,156.4,119.0,873.0,27.0,0,
184800,1851.5,6.1,67.1,153.7,119.0,818.0,27.0,0,
184900,1866.1,12.3,67.1,158.2,120.0,818.0,23.0,1,
185000,1860.1,18.1,68.1,185.0,118.0,893.0,24.0,1,
185100,1866.0,5.0,52.0,217.2,115.0,821.0,27.0,0,
185200,1857.7,3.2,27.9,209.9,115.0,821.0,27.0,0,
185300,1859.8,2.3,27.9,169.1,115.0,821.0,27.0,0,
185400,1859.6,2.3,27.9,147.6,115.0,821.0,27.0,0,
185600,1860.6,2.3,20.1,200.1,115.0,821.0,27.0,0,
185700,1859.8,2.5,20.1,205.1,115.0,821.0,27.0,0,
185800,1860.8,2.6,20.1,174.0,115.0,821.0,27.0,0,
185900,1861.0,2.7,20.2,164.4,115.0,821.0,27.0,0,
186000,1860.0,2.3,20.2,183.6,115.0,821.0,27.0,0,
186100,1860.8,2.2,20.2,187.9,115.0,821.0,27.0,0,
186200,1870.9,12.1,20.2,202.1,134.0,973.0,27.0,0,
186300,1856.2,21.3,20.2,229.8,129.0,929.0,27.0,0,
186400,1854.9,5.6,20.3,216.7,136.0,886.0,24.0,1,
186600,1870.7,39.2,19.6,170.7,119.0,906.0,25.0,0,
186700,1846.6,7.3,23.5,198.9,114.0,874.0,26.0,0,
186800,1865.5,2.7,23.5,207.5,117.0,860.0,26.0,0,
186900,1859.6,2.1,23.5,198.3,117.0,860.0,26.0,0,
187000,1860.7,3.0,23.6,201.6,117.0,860.0,26.0,0,
187100,1860.4,2.3,23.6,199.7,117.0,860.0,26.0,0,
187200,1860.8,2.4,23.6,188.4,117.0,860.0,26.0,0,
187300,1860.9,2.5,23.6,203.1,117.0,860.0,26.0,0,
187400,1860.9,2.6,23.6,206.5,117.0,860.0,26.0,0,
187600,1860.7,2.9,23.6,233.5,117.0,860.0,26.0,0,
187700,1860.2,2.4,23.6,232.7,117.0,860.0,26.0,0,
187800,1860.1,11.1,23.6,201.1,133.0,878.0,26.0,0,
187900,1856.9,19.1,23.9,207.2,130.0,971.0,23.0,1,
188000,1856.2,7.7,24.0,206.4,132.0,900.0,23.0,1,
188100,1871.0,9.7,26.0,184.2,120.0,846.0,28.0,0,
188200,1865.7,12.8,24.1,168.0,123.0,904.0,27.0,0,
188300,1852.3,7.4,21.3,199.2,117.0,890.0,27.0,0,
188400,1863.6,4.4,22.8,185.3,117.0,890.0,27.0,0,
188600,1859.8,3.0,22.8,167.3,117.0,890.0,27.0,0,
188700,1859.6,2.3,22.8,174.0,117.0,890.0,27.0,0,
188800,1860.1,2.9,22.8,173.2,117.0,890.0,27.0,0,
188900,1860.5,2.7,22.8,183.2,117.0,890.0,27.0,0,
189000,1859.6,2.1,22.8,198.8,117.0,890.0,27.0,0,
189100,1860.5,2.9,22.8,220.2,117.0,890.0,27.0,0,
189200,1860.7,2.4,22.8,228.1,117.0,890.0,27.0,0,
189300,1860.1,1.9,22.8,232.8,117.0,890.0,27.0,0,
189400,1860.8,9.4,22.8,226.7,131.0,893.0,28.0,0,
189600,1861.8,7.0,23.8,170.0,127.0,897.0,24.0,1,
189700,1862.9,8.4,25.5,167.2,121.0,858.0,28.0,0,
189800,1865.3,5.2,23.2,153.8,115.0,839.0,25.0,0,
189900,1852.8,28.2,20.6,149.1,115.0,881.0,27.0,0,
190000,1865.2,4.8,21.7,146.1,118.0,864.0,28.0,0,
190100,1857.3,2.6,20.9,146.3,118.0,864.0,28.0,0,
190200,1859.8,2.6,20.9,149.8,118.0,864.0,28.0,0,
190300,1860.7,2.9,20.9,148.2,118.0,864.0,28.0,0,
190400,1860.2,2.7,20.9,146.3,118.0,864.0,28.0,0,
190600,1860.7,3.0,20.9,231.7,118.0,864.0,28.0,0,
190700,1860.3,2.4,20.9,219.5,118.0,864.0,28.0,0,
190800,1860.8,2.1,20.9,201.7,118.0,864.0,28.0,0,
190900,1860.5,2.7,20.9,184.3,118.0,864.0,28.0,0,
191000,1860.3,4.1,20.9,147.2,139.0,932.0,24.0,1,
191100,1868.7,26.0,18.0,188.7,130.0,946.0,27.0,0,
191200,1851.6,7.4,16.5,201.7,135.0,904.0,22.0,1,
191300,1864.9,8.5,19.5,198.4,124.0,877.0,24.0,1,
191400,1863.1,15.4,17.2,177.3,123.0,952.0,25.0,0,
191600,1856.4,3.4,17.7,166.8,124.0,878.0,25.0,0,
191700,1857.2,2.6,17.6,203.9,124.0,878.0,25.0,0,
191800,1860.6,2.6,17.6,202.9,124.0,878.0,25.0,0,
191900,1860.7,2.8,17.6,140.3,124.0,878.0,25.0,0,
192000,1859.9,2.1,17.6,99.8,124.0,878.0,25.0,0,
192100,1861.0,2.4,17.6,155.5,124.0,878.0,25.0,0,
192200,1860.7,2.4,17.6,174.8,124.0,878.0,25.0,0,
192300,1860.2,2.5,17.6,182.7,124.0,878.0,25.0,0,
192400,1860.4,3.1,17.6,176.0,124.0,878.0,25.0,0,
192600,1859.6,4.7,17.6,198.3,124.0,878.0,25.0,0,
192700,1869.2,22.8,17.6,199.1,131.0,983.0,20.0,1,
192800,1857.5,5.9,17.8,152.9,126.0,927.0,25.0,0,
192900,1867.0,10.0,17.8,152.6,124.0,886.0,27.0,0,
193000,1872.7,14.8,19.0,159.0,118.0,939.0,27.0,0,
193100,1850.2,5.5,18.8,204.1,133.0,926.0,26.0,0,
193200,1858.5,6.8,21.9,206.8,127.0,894.0,26.0,0,
193300,1864.2,3.0,21.9,177.7,127.0,894.0,26.0,0,
193400,1859.9,2.2,21.9,211.1,127.0,894.0,26.0,0,
193600,1860.8,2.5,21.9,212.6,127.0,894.0,26.0,0,
193700,1860.8,2.6,21.9,165.8,127.0,894.0,26.0,0,
193800,1860.0,2.1,21.9,176.4,127.0,894.0,26.0,0,
193900,1860.6,2.7,21.9,171.3,127.0,894.0,26.0,0,
194000,1860.4,2.4,21.9,156.3,127.0,894.0,26.0,0,
194100,1860.5,2.5,21.9,198.9,127.0,894.0,26.0,0,
194200,1860.3,2.3,21.9,217.5,127.0,894.0,26.0,0,
194300,1867.6,17.9,21.9,200.1,130.0,995.0,22.0,1,
194400,1853.8,36.1,22.0,203.7,125.0,935.0,28.0,0,
194600,1868.4,12.7,26.3,205.8,126.0,928.0,25.0,0,
194700,1853.2,16.9,26.3,209.1,125.0,949.0,27.0,0,
194800,1859.9,6.4,28.8,210.5,115.0,888.0,25.0,0,
194900,1868.0,3.1,26.6,199.9,129.0,903.0,27.0,0,
195000,1859.5,2.3,26.6,217.2,129.0,903.0,27.0,0,
195100,1860.5,2.6,26.6,221.4,129.0,903.0,27.0,0,
195200,1860.1,2.5,26.6,211.7,129.0,903.0,27.0,0,
195300,1859.4,2.6,26.6,141.0,129.0,903.0,27.0,0,
195400,1860.7,3.4,26.6,211.4,129.0,903.0,27.0,0,
195600,1859.6,3.1,26.6,217.5,129.0,903.0,27.0,0,
195700,1860.8,3.4,26.6,231.5,129.0,903.0,27.0,0,
195800,1860.3,3.5,26.6,217.2,129.0,903.0,27.0,0,
195900,1874.8,13.6,26.6,217.3,134.0,1007.0,26.0,0,
196000,1849.4,7.1,26.4,178.1,132.0,943.0,28.0,0,
196100,1858.0,9.3,25.7,172.4,130.0,886.0,28.0,0,
196200,1870.0,10.3,21.8,178.2,121.0,865.0,21.0,1,
196300,1852.5,29.7,22.1,211.2,133.0,927.0,24.0,1,
196400,1871.9,5.0,22.1,194.6,131.0,885.0,27.0,0,
196600,1857.2,3.2,24.0,198.5,131.0,885.0,27.0,0,
196700,1859.5,2.9,24.0,175.1,131.0,885.0,27.0,0,
196800,1859.3,2.6,24.0,154.9,131.0,885.0,27.0,0,
196900,1860.3,3.1,24.0,152.9,131.0,885.0,27.0,0,
197000,1859.9,2.9,24.0,185.6,131.0,885.0,27.0,0,
197100,1859.2,2.8,24.0,202.2,131.0,885.0,27.0,0,
197200,1860.2,2.8,24.0,209.0,131.0,885.0,27.0,0,
197300,1859.9,2.7,23.9,200.6,131.0,885.0,27.0,0,
197400,1859.5,2.4,23.9,211.2,131.0,885.0,27.0,0,
197600,1854.7,6.7,24.3,154.0,129.0,961.0,28.0,0,
197700,1860.3,6.3,26.7,153.8,128.0,907.0,28.0,0,
197800,1867.5,9.3,24.0,165.5,122.0,863.0,25.0,0,
197900,1866.6,29.0,24.5,198.5,126.0,947.0,25.0,0,
198000,1851.5,7.7,24.3,176.7,130.0,892.0,23.0,1,
198100,1866.2,10.5,24.2,165.5,119.0,909.0,25.0,0,
198200,1854.4,2.8,24.5,186.5,119.0,909.0,25.0,0,
198300,1859.4,2.5,24.5,217.3,119.0,909.0,25.0,0,
198400,1860.6,2.6,24.5,230.4,119.0,909.0,25.0,0,
198600,1860.0,2.3,24.5,197.5,119.0,909.0,25.0,0,
198700,1860.6,3.0,24.5,188.7,119.0,909.0,25.0,0,
198800,1860.4,2.9,24.6,168.5,119.0,909.0,25.0,0,
198900,1859.6,2.3,24.5,158.5,119.0,909.0,25.0,0,
199000,1861.0,2.6,24.6,167.1,119.0,909.0,25.0,0,
199100,1860.2,4.0,24.6,167.4,127.0,892.0,27.0,0,
199200,1855.7,27.1,22.1,166.9,130.0,945.0,25.0,0,
199300,1863.6,5.4,24.1,182.7,123.0,900.0,28.0,0,
199400,1871.2,5.6,21.4,187.6,121.0,852.0,28.0,0,
199600,1856.7,7.4,19.5,177.1,127.0,896.0,22.0,1,
199700,1867.5,9.3,19.5,163.4,113.0,848.0,23.0,1,
199800,1852.7,2.6,18.9,164.8,113.0,848.0,23.0,1,
199900,1860.5,2.8,18.9,188.6,113.0,848.0,23.0,1,
200000,1860.4,2.1,18.9,221.6,113.0,848.0,23.0,1,
200100,1859.9,2.2,18.9,219.2,113.0,848.0,23.0,1,
200200,1860.4,2.6,18.9,202.6,113.0,848.0,23.0,1,
200300,1860.5,2.5,18.9,153.3,113.0,848.0,23.0,1,
200400,1859.8,2.3,18.9,140.8,113.0,848.0,23.0,1,
200600,1860.7,2.9,18.9,155.4,113.0,848.0,23.0,1,
200700,1859.5,2.5,18.9,197.5,113.0,848.0,23.0,1,
200800,1859.3,33.8,18.9,203.2,129.0,958.0,28.0,0,
200900,1865.7,9.6,23.7,189.4,132.0,912.0,28.0,0,
201000,1865.3,12.0,23.8,185.8,130.0,967.0,26.0,0,
201100,1853.8,23.2,25.6,188.6,130.0,958.0,22.0,1,
201200,1860.0,8.5,25.6,189.4,118.0,904.0,17.0,1,
201300,1870.5,8.2,26.1,186.6,117.0,837.0,28.0,0,
201400,1851.9,3.3,25.2,216.2,123.0,869.0,24.0,1,
201600,1859.5,2.2,25.2,154.4,123.0,869.0,24.0,1,
201700,1860.0,2.6,25.2,143.3,123.0,869.0,24.0,1,
201800,1859.8,2.5,25.2,151.6,123.0,869.0,24.0,1,
201900,1859.6,2.4,25.2,171.6,123.0,869.0,24.0,1,
202000,1860.0,2.5,25.1,177.2,123.0,869.0,24.0,1,
202100,1860.5,2.5,25.2,183.6,123.0,869.0,24.0,1,
202200,1860.0,2.5,25.1,202.7,123.0,869.0,24.0,1,
202300,1860.2,3.1,25.1,205.8,123.0,869.0,24.0,1,
202400,1864.7,5.1,25.1,186.1,130.0,965.0,24.0,1,
202600,1867.7,12.8,20.5,174.2,124.0,874.0,22.0,1,
202700,1852.7,31.5,21.6,169.8,123.0,925.0,28.0,0,
202800,1868.1,6.8,20.8,158.6,123.0,879.0,28.0,0,
202900,1861.0,6.2,20.3,157.9,116.0,860.0,26.0,0,
203000,1858.3,3.4,18.1,174.8,119.0,886.0,28.0,0,
203100,1858.3,2.3,18.1,186.0,119.0,886.0,28.0,0,
203200,1860.3,3.0,18.1,164.9,119.0,886.0,28.0,0,
203300,1859.9,2.7,18.1,101.5,119.0,886.0,28.0,0,
203400,1859.8,2.3,18.1,140.3,119.0,886.0,28.0,0,
203600,1860.0,2.9,18.1,219.7,119.0,886.0,28.0,0,
203700,1859.7,2.4,18.1,241.6,119.0,886.0,28.0,0,
203800,1860.5,2.5,18.1,210.9,119.0,886.0,28.0,0,
203900,1860.6,2.4,18.1,187.1,119.0,886.0,28.0,0,
204000,1859.6,4.9,18.1,184.4,137.0,971.0,26.0,0,
204100,1867.5,6.3,21.7,168.5,137.0,908.0,24.0,1,
204200,1865.4,17.1,19.6,152.6,125.0,957.0,23.0,1,
204300,1865.0,30.4,19.8,153.1,125.0,922.0,28.0,0,
204400,1852.9,8.1,20.0,177.5,125.0,895.0,27.0,0,
204600,1856.0,3.2,22.6,176.7,125.0,945.0,25.0,0,
204700,1866.3,2.9,22.6,185.1,125.0,945.0,25.0,0,
204800,1860.1,2.7,22.6,212.9,125.0,945.0,25.0,0,
204900,1859.9,2.3,22.6,208.0,125.0,945.0,25.0,0,
205000,1860.8,2.5,22.6,167.9,125.0,945.0,25.0,0,
205100,1861.1,2.4,22.6,143.6,125.0,945.0,25.0,0,
205200,1860.7,2.1,22.6,154.3,125.0,945.0,25.0,0,
205300,1860.6,2.8,22.6,188.0,125.0,945.0,25.0,0,
205400,1860.7,2.0,22.6,177.4,125.0,945.0,25.0,0,
205600,1861.1,34.2,22.6,188.8,139.0,1033.0,28.0,0,
205700,1862.2,8.0,24.8,168.9,133.0,908.0,24.0,1,
205800,1870.2,15.1,22.9,157.2,142.0,987.0,22.0,1,
205900,1853.2,8.2,22.0,156.2,125.0,932.0,20.0,1,
206000,1859.8,7.5,22.6,168.7,125.0,893.0,27.0,0,
206100,1869.3,9.9,22.6,199.5,123.0,848.0,25.0,0,
206200,1854.3,4.2,22.2,216.7,122.0,918.0,22.0,1,
206300,1866.5,2.2,22.2,202.1,122.0,918.0,22.0,1,
206400,1860.1,2.4,22.2,173.8,122.0,918.0,22.0,1,
206600,1860.2,2.5,22.2,165.3,122.0,918.0,22.0,1,
206700,1859.9,2.4,22.2,232.6,122.0,918.0,22.0,1,
206800,1860.2,2.7,22.1,232.0,122.0,918.0,22.0,1,
206900,1861.0,2.4,22.2,172.9,122.0,918.0,22.0,1,
207000,1860.3,2.4,22.2,165.0,122.0,918.0,22.0,1,
207100,1861.3,2.6,22.2,198.9,122.0,918.0,22.0,1,
207200,1860.7,2.7,22.2,157.9,122.0,918.0,22.0,1,
207300,1857.2,8.3,21.7,188.6,134.0,927.0,22.0,1,
207400,1866.4,13.5,21.8,216.9,133.0,964.0,23.0,1,
207600,1863.5,6.4,24.6,183.0,133.0,906.0,28.0,0,
207700,1874.0,7.3,24.4,168.8,126.0,850.0,26.0,0,
207800,1855.9,26.2,23.2,200.0,128.0,962.0,28.0,0,
207900,1853.9,3.7,25.1,182.7,128.0,962.0,28.0,0,
208000,1860.9,2.4,25.1,167.9,128.0,962.0,28.0,0,
208100,1860.9,2.5,25.1,173.8,128.0,962.0,28.0,0,
208200,1860.4,2.5,25.1,178.5,128.0,962.0,28.0,0,
208300,1860.6,2.7,25.1,178.5,128.0,962.0,28.0,0,
208400,1860.7,2.2,25.1,142.6,128.0,962.0,28.0,0,
208600,1860.8,2.5,25.1,171.0,128.0,962.0,28.0,0,
208700,1860.5,2.3,25.1,211.8,128.0,962.0,28.0,0,
208800,1860.3,2.4,25.1,220.4,128.0,962.0,28.0,0,
208900,1855.9,8.9,27.9,209.9,131.0,930.0,28.0,0,
209000,1868.0,5.9,25.4,208.6,125.0,872.0,27.0,0,
209100,1852.9,32.1,23.2,205.2,136.0,948.0,27.0,0,
209200,1866.6,5.7,22.7,201.7,131.0,922.0,24.0,1,
209300,1864.5,14.8,22.3,171.9,129.0,972.0,27.0,0,
209400,1856.2,23.5,22.2,164.9,126.0,952.0,25.0,0,
209600,1859.8,2.9,22.6,206.6,126.0,952.0,25.0,0,
209700,1859.2,2.2,22.6,165.9,126.0,952.0,25.0,0,
209800,1860.9,2.6,22.6,144.5,126.0,952.0,25.0,0,
209900,1860.1,2.6,22.6,144.1,126.0,952.0,25.0,0,
210000,1859.1,2.5,22.6,173.1,126.0,952.0,25.0,0,
210100,1860.4,2.5,22.6,158.6,126.0,952.0,25.0,0,
210200,1860.2,2.5,22.6,168.9,126.0,952.0,25.0,0,
210300,1859.8,3.1,22.6,218.0,126.0,952.0,25.0,0,
210400,1859.7,3.2,22.6,234.8,126.0,952.0,25.0,0,
210600,1863.5,16.7,19.0,197.7,126.0,1035.0,27.0,0,
210700,1863.3,34.5,22.4,227.3,137.0,1006.0,25.0,0,
210800,1853.5,8.6,23.6,230.3,130.0,960.0,26.0,0,
210900,1867.4,12.0,23.6,203.6,122.0,892.0,26.0,0,
211000,1855.1,30.3,22.7,169.5,130.0,996.0,27.0,0,
211100,1858.1,4.7,23.0,168.5,127.0,901.0,28.0,0,
211200,1859.7,2.6,23.0,203.1,127.0,901.0,28.0,0,
211300,1860.7,2.8,23.0,217.4,127.0,901.0,28.0,0,
211400,1860.2,3.1,23.0,219.4,127.0,901.0,28.0,0,
211600,1860.5,3.2,23.0,228.2,127.0,901.0,28.0,0,
211700,1859.6,2.6,23.0,232.5,127.0,901.0,28.0,0,
211800,1859.5,2.8,23.0,232.1,127.0,901.0,28.0,0,
211900,1860.4,2.7,23.0,195.1,127.0,901.0,28.0,0,
212000,1860.7,2.3,23.0,173.0,127.0,901.0,28.0,0,
212100,1859.4,5.6,23.0,200.2,135.0,947.0,28.0,0,
212200,1875.5,6.6,23.0,198.9,131.0,1005.0,28.0,0,
212300,1852.8,6.4,19.6,172.1,137.0,985.0,26.0,0,
212400,1860.0,7.9,18.8,195.0,133.0,944.0,28.0,0,
212600,1870.5,31.0,16.0,204.3,133.0,947.0,24.0,1,
212700,1849.0,6.3,15.1,198.9,127.0,913.0,19.0,1,
212800,1858.2,3.2,15.0,163.8,127.0,913.0,19.0,1,
212900,1860.4,2.3,15.0,152.4,127.0,913.0,19.0,1,
213000,1859.5,2.3,15.0,150.5,127.0,913.0,19.0,1,
213100,1860.5,2.8,15.0,149.1,127.0,913.0,19.0,1,
213200,1860.3,2.4,15.0,178.6,127.0,913.0,19.0,1,
213300,1859.7,2.5,15.0,176.5,127.0,913.0,19.0,1,
213400,1860.5,2.7,15.0,154.7,127.0,913.0,19.0,1,
213600,1859.8,2.4,15.0,142.2,127.0,913.0,19.0,1,
213700,1860.2,4.4,15.0,172.5,127.0,913.0,19.0,1,
213800,1869.2,23.6,15.0,166.3,153.0,1046.0,6.0,1,
213900,1853.8,5.8,18.4,202.2,139.0,991.0,26.0,0,
214000,1867.0,4.5,18.4,210.4,129.0,921.0,27.0,0,
214100,1874.6,15.4,15.0,209.1,124.0,978.0,27.0,0,
214200,1850.3,5.6,19.0,196.2,137.0,953.0,27.0,0,
214300,1862.0,8.9,19.9,151.5,122.0,887.0,19.0,1,
214400,1861.2,2.9,19.9,156.2,122.0,887.0,19.0,1,
214600,1861.2,2.5,19.9,221.6,122.0,887.0,19.0,1,
214700,1860.3,2.7,19.9,218.7,122.0,887.0,19.0,1,
214800,1859.9,2.6,19.9,171.2,122.0,887.0,19.0,1,
214900,1860.6,2.3,19.9,229.7,122.0,887.0,19.0,1,
215000,1860.6,2.5,19.9,205.5,122.0,887.0,19.0,1,
215100,1859.9,2.4,19.9,200.3,122.0,887.0,19.0,1,
215200,1860.7,2.9,19.9,199.8,122.0,887.0,19.0,1,
215300,1860.3,2.6,19.9,202.0,122.0,887.0,19.0,1,
215400,1862.3,5.3,19.9,204.1,138.0,1017.0,27.0,0,
215600,1871.1,8.5,19.4,195.3,126.0,933.0,28.0,0,
215700,1860.0,6.3,19.9,154.5,138.0,1029.0,25.0,0,
215800,1851.5,14.0,16.0,150.9,131.0,960.0,21.0,1,
215900,1864.2,7.7,18.8,147.7,133.0,921.0,27.0,0,
216000,1862.9,2.9,15.0,143.4,128.0,968.0,28.0,0,
216100,1859.9,2.7,15.0,143.2,128.0,968.0,28.0,0,
216200,1860.4,2.7,15.0,140.2,128.0,968.0,28.0,0,
216300,1859.6,2.5,15.0,135.3,128.0,968.0,28.0,0,
216400,1860.3,3.1,15.0,209.6,128.0,968.0,28.0,0,
216600,1859.6,2.6,15.0,167.9,128.0,968.0,28.0,0,
216700,1860.5,2.7,15.0,168.9,128.0,968.0,28.0,0,
216800,1860.6,2.4,15.0,170.6,128.0,968.0,28.0,0,
216900,1860.3,2.6,15.0,198.7,128.0,968.0,28.0,0,
217000,1859.7,32.4,15.0,226.4,141.0,1042.0,24.0,1,
217100,1866.0,6.1,18.6,216.7,132.0,986.0,28.0,0,
217200,1864.1,6.1,18.6,204.9,132.0,929.0,25.0,0,
217300,1858.9,22.3,15.3,201.5,138.0,991.0,27.0,0,
217400,1855.7,7.2,18.4,195.7,131.0,974.0,26.0,0,
217600,1866.0,4.6,18.9,164.8,127.0,973.0,25.0,0,
217700,1855.8,3.0,18.9,196.9,127.0,973.0,25.0,0,
217800,1859.3,2.5,18.9,212.1,127.0,973.0,25.0,0,
217900,1859.9,2.8,18.9,207.5,127.0,973.0,25.0,0,
218000,1860.2,2.4,18.9,196.9,127.0,973.0,25.0,0,
218100,1860.0,2.7,18.9,213.2,127.0,973.0,25.0,0,
218200,1859.9,3.2,18.9,227.1,127.0,973.0,25.0,0,
218300,1859.6,3.0,18.9,211.8,127.0,973.0,25.0,0,
218400,1859.5,2.6,18.9,198.6,127.0,973.0,25.0,0,
218600,1859.9,32.5,18.9,171.1,145.0,1074.0,26.0,0,
218700,1859.8,6.1,21.5,165.8,134.0,974.0,24.0,1,
218800,1868.4,12.1,21.5,156.9,137.0,917.0,25.0,0,
218900,1855.1,6.9,23.9,156.3,129.0,1003.0,20.0,1,
219000,1866.3,5.0,21.7,165.0,130.0,917.0,27.0,0,
219100,1860.0,10.3,24.1,166.7,123.0,897.0,28.0,0,
219200,1862.8,4.0,21.7,155.9,128.0,957.0,26.0,0,
219300,1862.1,2.5,21.7,153.2,128.0,957.0,26.0,0,
219400,1860.7,2.9,21.7,151.4,128.0,957.0,26.0,0,
219600,1859.8,2.2,21.7,149.3,128.0,957.0,26.0,0,
219700,1860.5,2.8,21.7,174.5,128.0,957.0,26.0,0,
219800,1860.3,2.5,21.7,156.7,128.0,957.0,26.0,0,
219900,1859.9,2.5,21.7,156.1,128.0,957.0,26.0,0,
220000,1860.3,3.0,21.7,165.8,128.0,957.0,26.0,0,
220100,1860.2,3.0,21.7,166.4,128.0,957.0,26.0,0,
220200,1859.8,3.8,21.7,174.4,145.0,1086.0,25.0,0,
220300,1860.2,7.9,20.2,175.2,144.0,980.0,25.0,0,
220400,1865.9,7.4,20.2,169.5,130.0,899.0,21.0,1,
220600,1850.5,8.7,20.3,166.0,138.0,974.0,28.0,0,
220700,1867.0,11.4,20.3,169.0,129.0,891.0,28.0,0,
220800,1856.8,19.6,20.2,172.1,130.0,990.0,27.0,0,
220900,1860.5,3.4,22.8,184.4,130.0,990.0,27.0,0,
221000,1860.2,2.7,22.8,176.8,130.0,990.0,27.0,0,
221100,1860.0,2.4,22.8,157.8,130.0,990.0,27.0,0,
221200,1860.0,2.5,22.8,152.4,130.0,990.0,27.0,0,
221300,1860.4,2.6,22.8,157.1,130.0,990.0,27.0,0,
221400,1860.1,2.6,22.8,198.9,130.0,990.0,27.0,0,
221600,1860.2,2.5,22.8,190.3,130.0,990.0,27.0,0,
221700,1860.2,2.4,22.8,201.8,130.0,990.0,27.0,0,
221800,1860.3,34.9,22.8,200.1,130.0,990.0,27.0,0,
221900,1855.6,8.2,25.7,172.3,132.0,938.0,23.0,1,
222000,1868.0,16.3,22.7,158.8,131.0,1031.0,26.0,0,
222100,1854.1,30.3,25.0,156.2,138.0,1000.0,20.0,1,
222200,1855.8,8.7,29.5,164.5,133.0,965.0,28.0,0,
222300,1870.8,10.6,29.5,176.8,128.0,886.0,28.0,0,
222400,1854.5,32.9,29.5,186.9,130.0,987.0,28.0,0,
222600,1859.7,2.5,30.0,186.2,130.0,987.0,28.0,0,
222700,1860.3,3.0,30.0,217.9,130.0,987.0,28.0,0,
222800,1860.0,2.7,30.0,229.3,130.0,987.0,28.0,0,
222900,1859.9,2.7,30.0,226.7,130.0,987.0,28.0,0,
223000,1860.6,2.6,30.0,201.3,130.0,987.0,28.0,0,
223100,1860.5,2.6,30.0,200.5,130.0,987.0,28.0,0,
223200,1860.5,2.6,30.0,201.4,130.0,987.0,28.0,0,
223300,1860.2,2.7,30.0,201.9,130.0,987.0,28.0,0,
223400,1860.0,3.2,30.0,202.6,130.0,987.0,28.0,0,
223600,1867.0,7.6,30.2,197.7,146.0,1044.0,23.0,1,
223700,1854.3,25.8,28.3,190.4,138.0,1021.0,25.0,0,
223800,1864.7,7.4,27.2,187.4,133.0,962.0,28.0,0,
223900,1876.0,5.7,24.1,190.2,125.0,905.0,27.0,0,
224000,1853.5,30.6,21.7,196.4,133.0,1026.0,28.0,0,
224100,1854.1,4.3,21.3,188.3,129.0,957.0,27.0,0,
224200,1859.6,2.4,21.4,156.4,129.0,957.0,27.0,0,
224300,1860.9,2.6,21.4,151.6,129.0,957.0,27.0,0,
224400,1859.7,2.3,21.4,150.0,129.0,957.0,27.0,0,
224600,1860.1,2.5,21.4,158.2,129.0,957.0,27.0,0,
224700,1860.1,2.5,21.4,156.3,129.0,957.0,27.0,0,
224800,1861.0,3.1,21.4,195.7,129.0,957.0,27.0,0,
224900,1860.2,2.9,21.4,210.3,129.0,957.0,27.0,0,
225000,1859.4,2.9,21.4,173.0,129.0,957.0,27.0,0,
225100,1860.2,6.5,21.4,165.4,138.0,1001.0,28.0,0,
225200,1865.1,20.3,16.8,187.2,134.0,1067.0,21.0,1,
225300,1853.6,39.3,21.1,215.3,134.0,979.0,27.0,0,
225400,1869.5,10.2,26.0,221.0,137.0,953.0,23.0,1,
225600,1852.0,5.3,28.3,195.6,131.0,983.0,25.0,0,
225700,1861.8,6.5,28.6,190.3,142.0,959.0,27.0,0,
225800,1858.9,2.8,28.5,177.1,142.0,959.0,27.0,0,
225900,1859.7,2.5,28.5,155.1,142.0,959.0,27.0,0,
226000,1860.4,2.8,28.5,152.4,142.0,959.0,27.0,0,
226100,1860.0,3.0,28.5,150.8,142.0,959.0,27.0,0,
226200,1859.9,2.6,28.5,184.2,142.0,959.0,27.0,0,
226300,1860.2,3.2,28.5,209.7,142.0,959.0,27.0,0,
226400,1859.7,2.4,28.5,198.8,142.0,959.0,27.0,0,
226600,1859.5,2.7,28.5,177.5,142.0,959.0,27.0,0,
226700,1860.1,4.5,28.5,197.6,148.0,1021.0,20.0,1,
226800,1863.6,17.4,28.5,189.3,139.0,1067.0,27.0,0,
226900,1863.2,8.7,28.0,152.6,132.0,978.0,26.0,0,
227000,1858.5,8.5,27.1,151.4,134.0,973.0,25.0,0,
227100,1865.0,12.0,23.7,158.4,129.0,904.0,25.0,0,
227200,1852.6,34.3,25.2,198.6,134.0,1010.0,27.0,0,
227300,1864.3,6.7,26.9,183.4,135.0,926.0,23.0,1,
227400,1859.8,2.5,24.8,155.6,135.0,926.0,23.0,1,
227600,1859.8,2.7,24.8,146.5,135.0,926.0,23.0,1,
227700,1859.1,2.8,24.8,141.4,135.0,926.0,23.0,1,
227800,1859.8,3.1,24.8,153.8,135.0,926.0,23.0,1,
227900,1859.7,2.9,24.8,147.7,135.0,926.0,23.0,1,
228000,1859.1,2.4,24.8,169.4,135.0,926.0,23.0,1,
228100,1860.7,2.6,24.8,198.8,135.0,926.0,23.0,1,
228200,1859.9,2.7,24.8,200.9,135.0,926.0,23.0,1,
228300,1859.5,2.1,24.8,209.5,135.0,926.0,23.0,1,
228400,1874.3,5.8,24.8,205.4,142.0,1084.0,27.0,0,
228600,1864.6,7.8,25.6,133.1,134.0,956.0,28.0,0,
228700,1860.2,19.1,22.4,151.9,140.0,1078.0,27.0,0,
228800,1866.0,9.0,21.0,151.6,136.0,976.0,25.0,0,
228900,1853.6,7.6,17.8,157.3,135.0,934.0,27.0,0,
229000,1860.6,2.8,17.7,172.4,130.0,939.0,20.0,1,
229100,1860.4,2.7,17.7,170.9,130.0,939.0,20.0,1,
229200,1859.5,2.5,17.7,147.9,130.0,939.0,20.0,1,
229300,1859.9,2.7,17.7,151.9,130.0,939.0,20.0,1,
229400,1859.6,2.5,17.7,198.9,130.0,939.0,20.0,1,
229600,1859.9,2.8,17.7,168.3,130.0,939.0,20.0,1,
229700,1859.9,2.4,17.7,156.9,130.0,939.0,20.0,1,
229800,1859.8,2.3,17.7,165.2,130.0,939.0,20.0,1,
229900,1859.7,2.8,17.7,177.5,130.0,939.0,20.0,1,
230000,1868.6,25.9,17.7,196.0,222.0,1238.0,6.0,1,
230100,1852.8,5.9,20.7,163.9,141.0,997.0,27.0,0,
230200,1868.0,10.6,20.7,154.9,132.0,929.0,24.0,1,
230300,1870.5,17.2,20.3,165.1,133.0,1016.0,28.0,0,
230400,1847.4,8.8,22.2,196.3,144.0,988.0,23.0,1,
230600,1863.3,3.3,25.2,167.3,129.0,970.0,22.0,1,
230700,1858.8,2.4,25.2,153.4,129.0,970.0,22.0,1,
230800,1859.9,2.9,25.2,149.8,129.0,970.0,22.0,1,
230900,1860.3,3.0,25.2,148.4,129.0,970.0,22.0,1,
231000,1858.6,2.6,25.2,173.4,129.0,970.0,22.0,1,
231100,1860.0,2.9,25.2,208.6,129.0,970.0,22.0,1,
231200,1860.1,2.5,25.2,185.8,129.0,970.0,22.0,1,
231300,1860.0,2.5,25.2,172.9,129.0,970.0,22.0,1,
231400,1859.7,3.4,25.2,205.6,129.0,970.0,22.0,1,
231600,1859.2,32.3,25.2,197.9,148.0,1088.0,28.0,0,
231700,1864.2,6.6,25.7,200.5,134.0,988.0,27.0,0,
231800,1871.3,9.7,28.8,184.8,128.0,933.0,28.0,0,
231900,1857.4,26.9,26.4,177.6,141.0,1008.0,27.0,0,
232000,1854.7,8.0,24.7,168.7,131.0,954.0,23.0,1,
232100,1870.1,12.4,24.7,166.5,130.0,940.0,28.0,0,
232200,1857.6,3.8,25.3,184.0,131.0,1002.0,28.0,0,
232300,1865.2,3.1,25.3,216.4,131.0,1002.0,28.0,0,
232400,1860.4,2.3,25.3,230.5,131.0,1002.0,28.0,0,
232600,1860.2,2.9,25.3,194.5,131.0,1002.0,28.0,0,
232700,1860.0,3.0,25.3,190.4,131.0,1002.0,28.0,0,
232800,1859.8,2.8,25.3,198.5,131.0,1002.0,28.0,0,
232900,1859.8,3.0,25.3,201.3,131.0,1002.0,28.0,0,
233000,1860.0,2.9,25.4,201.6,131.0,1002.0,28.0,0,
233100,1859.3,2.9,25.4,198.3,131.0,1002.0,28.0,0,
233200,1859.5,2.7,25.3,204.1,147.0,1104.0,26.0,0,
233300,1866.0,6.1,22.5,206.8,140.0,1011.0,24.0,1,
233400,1866.2,12.5,22.3,137.9,138.0,1081.0,28.0,0,
233600,1858.4,5.7,18.3,195.3,132.0,983.0,25.0,0,
233700,1873.0,6.2,18.3,189.0,131.0,943.0,27.0,0,
233800,1859.5,5.2,12.8,185.1,138.0,1050.0,27.0,0,
233900,1857.4,2.7,12.7,174.0,138.0,1050.0,27.0,0,
234000,1859.7,2.4,12.7,125.5,138.0,1050.0,27.0,0,
234100,1860.4,2.8,12.7,122.6,138.0,1050.0,27.0,0,
234200,1860.0,3.1,12.7,150.1,138.0,1050.0,27.0,0,
234300,1859.0,2.9,12.7,147.9,138.0,1050.0,27.0,0,
234400,1859.6,3.5,12.7,152.2,138.0,1050.0,27.0,0,
234600,1858.8,2.9,12.7,208.2,138.0,1050.0,27.0,0,
234700,1859.4,3.3,12.7,200.9,138.0,1050.0,27.0,0,
234800,1859.5,3.5,12.7,185.7,138.0,1050.0,27.0,0,
234900,1857.6,6.9,13.6,158.4,143.0,1006.0,26.0,0,
235000,1867.5,7.3,13.7,36.2,140.0,973.0,23.0,1,
235100,1852.1,36.8,6.6,30.2,143.0,1069.0,24.0,1,
235200,1869.8,7.7,13.1,36.7,135.0,985.0,25.0,0,
235300,1863.5,15.5,13.1,158.2,131.0,1048.0,25.0,0,
235400,1853.5,28.2,18.3,167.7,135.0,1002.0,26.0,0,
235600,1859.3,2.9,22.9,199.8,135.0,1002.0,26.0,0,
235700,1859.9,2.5,22.9,170.1,135.0,1002.0,26.0,0,
235800,1860.2,2.0,22.9,157.2,135.0,1002.0,26.0,0,
235900,1860.3,2.8,22.9,155.5,135.0,1002.0,26.0,0,
236000,1860.0,2.6,22.9,188.1,135.0,1002.0,26.0,0,
236100,1859.6,2.1,22.9,199.8,135.0,1002.0,26.0,0,
236200,1860.1,2.5,22.9,198.3,135.0,1002.0,26.0,0,
236300,1860.8,2.3,22.9,199.0,135.0,1002.0,26.0,0,
236400,1859.8,2.3,22.9,198.4,135.0,1002.0,26.0,0,
236600,1859.6,18.4,22.3,165.7,145.0,1086.0,23.0,1,
236700,1863.7,8.5,25.1,164.7,139.0,1009.0,23.0,1,
236800,1856.3,8.0,22.4,165.4,131.0,1010.0,27.0,0,
236900,1866.4,5.6,22.4,163.3,128.0,911.0,24.0,1,
237000,1852.9,32.1,18.5,156.4,134.0,1031.0,28.0,0,
237100,1862.9,4.5,17.0,158.4,134.0,1031.0,28.0,0,
237200,1860.5,2.5,17.0,195.2,134.0,1031.0,28.0,0,
237300,1859.8,2.4,17.0,189.3,134.0,1031.0,28.0,0,
237400,1860.2,2.8,17.0,187.8,134.0,1031.0,28.0,0,
237600,1859.6,2.1,17.0,198.9,134.0,1031.0,28.0,0,
237700,1860.7,2.6,17.0,185.9,134.0,1031.0,28.0,0,
237800,1860.5,2.7,17.1,156.5,134.0,1031.0,28.0,0,
237900,1859.6,2.4,17.0,146.1,134.0,1031.0,28.0,0,
238000,1860.4,2.9,17.0,148.5,134.0,1031.0,28.0,0,
238100,1860.3,10.4,17.1,167.1,155.0,1006.0,27.0,0,
238200,1866.4,5.9,19.5,37.1,149.0,1069.0,24.0,1,
238300,1850.3,7.9,15.8,35.4,145.0,1052.0,26.0,0,
238400,1863.5,9.0,20.1,36.4,143.0,1029.0,26.0,0,
238600,1852.9,6.0,20.1,155.5,140.0,1054.0,27.0,0,
238700,1869.0,3.4,16.4,152.7,131.0,988.0,24.0,1,
238800,1854.9,2.2,16.2,145.6,131.0,988.0,24.0,1,
238900,1860.3,2.9,16.2,75.3,131.0,988.0,24.0,1,
239000,1860.2,2.9,16.2,131.3,131.0,988.0,24.0,1,
239100,1859.6,2.0,16.2,184.4,131.0,988.0,24.0,1,
239200,1860.5,3.2,16.2,238.2,131.0,988.0,24.0,1,
239300,1860.2,2.9,16.2,199.9,131.0,988.0,24.0,1,
239400,1859.2,2.8,16.2,175.6,131.0,988.0,24.0,1,
239600,1859.7,2.5,16.2,178.3,131.0,988.0,24.0,1,
239700,1859.9,6.8,16.2,189.0,151.0,1041.0,25.0,0,
239800,1865.3,27.2,13.2,188.7,145.0,1111.0,23.0,1,
239900,1854.2,7.7,18.1,205.5,147.0,1059.0,26.0,0,
240000,1866.5,7.1,18.1,208.3,139.0,1032.0,25.0,0,
240100,1875.4,16.3,13.3,205.5,138.0,1076.0,25.0,0,
240200,1848.1,6.7,18.0,197.3,149.0,1078.0,27.0,0,
240300,1858.6,7.0,22.2,167.0,146.0,1004.0,26.0,0,
240400,1857.5,3.1,22.2,167.4,146.0,1004.0,26.0,0,
240600,1859.3,2.5,22.2,186.5,146.0,1004.0,26.0,0,
240700,1860.3,2.9,22.2,184.3,146.0,1004.0,26.0,0,
240800,1859.8,2.9,22.2,124.2,146.0,1004.0,26.0,0,
240900,1859.5,2.5,22.2,172.1,146.0,1004.0,26.0,0,
241000,1860.0,2.9,22.2,171.9,146.0,1004.0,26.0,0,
241100,1859.9,3.0,22.2,167.4,146.0,1004.0,26.0,0,
241200,1859.3,2.3,22.2,168.3,146.0,1004.0,26.0,0,
241300,1860.1,4.8,22.2,175.5,146.0,1054.0,21.0,1,
241400,1861.4,33.0,22.2,164.2,149.0,1095.0,28.0,0,
241600,1875.6,6.2,22.7,212.7,137.0,994.0,27.0,0,
241700,1858.7,29.4,22.6,211.6,147.0,1102.0,28.0,0,
241800,1854.6,6.6,22.8,207.1,140.0,1029.0,26.0,0,
241900,1871.1,5.4,22.8,201.7,147.0,1001.0,25.0,0,
242000,1854.2,2.6,18.7,200.3,147.0,1001.0,25.0,0,
242100,1860.0,2.1,18.7,195.9,147.0,1001.0,25.0,0,
242200,1860.5,2.5,18.7,169.9,147.0,1001.0,25.0,0,
242300,1860.4,2.6,18.7,105.5,147.0,1001.0,25.0,0,
242400,1859.3,2.4,18.7,166.3,147.0,1001.0,25.0,0,
242600,1860.2,2.9,18.7,174.7,147.0,1001.0,25.0,0,
242700,1859.7,2.4,18.7,187.1,147.0,1001.0,25.0,0,
242800,1860.4,2.9,18.7,182.7,147.0,1001.0,25.0,0,
242900,1859.7,3.1,18.7,140.7,147.0,1001.0,25.0,0,
243000,1859.2,37.3,18.7,142.7,148.0,1067.0,27.0,0,
243100,1868.2,7.9,18.3,158.3,144.0,1022.0,28.0,0,
243200,1864.6,16.0,18.0,153.0,141.0,1076.0,26.0,0,
243300,1854.0,6.8,22.5,154.6,133.0,1059.0,22.0,1,
243400,1857.1,5.8,18.7,184.7,137.0,1053.0,28.0,0,
243600,1852.4,2.8,21.9,202.2,133.0,967.0,27.0,0,
243700,1860.3,2.8,21.8,169.7,133.0,967.0,27.0,0,
243800,1860.2,2.7,21.8,166.9,133.0,967.0,27.0,0,
243900,1860.3,2.3,21.8,163.5,133.0,967.0,27.0,0,
244000,1860.6,2.8,21.9,167.0,133.0,967.0,27.0,0,
244100,1860.2,2.4,21.9,165.1,133.0,967.0,27.0,0,
244200,1859.7,2.0,21.9,163.8,133.0,967.0,27.0,0,
244300,1860.7,2.7,21.9,187.4,133.0,967.0,27.0,0,
244400,1860.5,2.9,21.9,190.2,133.0,967.0,27.0,0,
244600,1869.4,8.1,21.9,167.8,143.0,1096.0,26.0,0,
244700,1855.5,9.3,22.6,184.1,141.0,1018.0,27.0,0,
244800,1866.9,12.1,22.6,219.7,133.0,955.0,25.0,0,
244900,1853.4,37.5,23.6,215.6,143.0,1069.0,23.0,1,
245000,1872.9,7.6,26.6,184.5,146.0,966.0,25.0,0,
245100,1861.6,15.7,26.6,165.3,142.0,1044.0,27.0,0,
245200,1856.3,3.6,27.0,153.8,142.0,994.0,23.0,1,
245300,1859.1,2.4,27.0,177.8,142.0,994.0,23.0,1,
245400,1860.0,2.5,27.0,217.0,142.0,994.0,23.0,1,
245600,1860.1,2.5,27.0,204.5,142.0,994.0,23.0,1,
245700,1859.7,2.1,27.0,216.7,142.0,994.0,23.0,1,
245800,1860.4,2.7,27.0,204.2,142.0,994.0,23.0,1,
245900,1860.2,2.7,27.0,173.2,142.0,994.0,23.0,1,
246000,1859.8,2.6,27.0,186.7,142.0,994.0,23.0,1,
246100,1860.5,3.0,27.0,177.8,142.0,994.0,23.0,1,
246200,1859.8,6.1,27.0,156.2,148.0,1049.0,27.0,0,
246300,1865.7,8.3,29.9,155.1,140.0,1024.0,27.0,0,
246400,1863.6,18.5,26.7,150.0,140.0,1136.0,27.0,0,
246600,1853.1,11.2,26.3,168.6,144.0,1013.0,22.0,1,
246700,1867.7,15.1,26.3,206.0,129.0,968.0,23.0,1,
246800,1853.0,5.1,25.8,216.6,140.0,1080.0,21.0,1,
246900,1865.1,2.7,25.8,199.8,140.0,1080.0,21.0,1,
247000,1860.0,3.4,25.8,167.4,140.0,1080.0,21.0,1,
247100,1859.7,2.3,25.8,153.6,140.0,1080.0,21.0,1,
247200,1860.2,1.9,25.8,156.3,140.0,1080.0,21.0,1,
247300,1860.6,2.9,25.8,175.5,140.0,1080.0,21.0,1,
247400,1860.1,2.3,25.8,165.2,140.0,1080.0,21.0,1,
247600,1860.2,3.0,25.8,188.7,140.0,1080.0,21.0,1,
247700,1859.9,2.9,25.8,169.7,140.0,1080.0,21.0,1,
247800,1859.9,4.0,25.8,189.3,158.0,1152.0,27.0,0,
247900,1871.2,10.4,25.8,156.1,140.0,1020.0,28.0,0,
248000,1867.8,5.1,26.3,185.8,143.0,1090.0,23.0,1,
248100,1849.2,7.2,22.7,183.3,149.0,1075.0,24.0,1,
248200,1862.5,10.5,25.7,176.8,135.0,973.0,22.0,1,
248300,1864.0,21.0,21.8,172.8,136.0,1073.0,23.0,1,
248400,1853.4,5.1,22.4,171.8,137.0,1002.0,26.0,0,
248600,1860.5,2.6,22.4,200.6,137.0,1002.0,26.0,0,
248700,1860.0,2.2,22.4,197.5,137.0,1002.0,26.0,0,
248800,1860.6,2.9,22.4,171.7,137.0,1002.0,26.0,0,
248900,1860.2,2.3,22.4,201.4,137.0,1002.0,26.0,0,
249000,1859.9,2.5,22.4,200.2,137.0,1002.0,26.0,0,
249100,1860.5,2.6,22.4,184.5,137.0,1002.0,26.0,0,
249200,1860.2,2.4,22.4,166.0,137.0,1002.0,26.0,0,
249300,1860.2,2.4,22.4,173.4,137.0,1002.0,26.0,0,
249400,1861.0,2.7,22.4,177.9,137.0,1002.0,26.0,0,
249600,1859.8,27.7,22.3,150.6,146.0,1107.0,27.0,0,
249700,1854.5,8.9,26.2,150.0,144.0,1060.0,22.0,1,
249800,1868.5,6.6,26.2,166.9,147.0,1032.0,27.0,0,
249900,1874.2,16.8,23.3,205.0,142.0,1066.0,25.0,0,
250000,1849.6,6.5,22.8,207.4,146.0,1007.0,26.0,0,
250100,1862.4,2.2,22.8,167.0,144.0,1046.0,24.0,1,
250200,1860.9,2.2,22.8,156.6,144.0,1046.0,24.0,1,
250300,1861.1,2.4,22.8,151.8,144.0,1046.0,24.0,1,
250400,1861.0,2.4,22.8,130.4,144.0,1046.0,24.0,1,
250600,1860.7,2.9,22.8,198.3,144.0,1046.0,24.0,1,
250700,1861.0,2.3,22.8,169.6,144.0,1046.0,24.0,1,
250800,1860.3,2.3,22.8,158.3,144.0,1046.0,24.0,1,
250900,1860.7,2.5,22.8,156.0,144.0,1046.0,24.0,1,
251000,1861.2,2.5,22.8,170.3,144.0,1046.0,24.0,1,
251100,1865.3,12.5,22.8,188.5,155.0,1166.0,28.0,0,
251200,1854.9,24.0,22.7,204.3,148.0,1102.0,24.0,1,
251300,1857.6,7.2,22.2,200.4,148.0,1060.0,28.0,0,
251400,1872.5,9.6,25.1,177.2,142.0,982.0,26.0,0,
251600,1852.4,5.4,23.3,185.8,146.0,1008.0,26.0,0,
251700,1863.5,5.0,25.9,211.9,146.0,1008.0,26.0,0,
251800,1860.0,3.0,25.9,184.8,146.0,1008.0,26.0,0,
251900,1860.7,2.6,25.9,163.6,146.0,1008.0,26.0,0,
252000,1860.3,2.6,25.9,158.1,146.0,1008.0,26.0,0,
252100,1860.3,2.4,25.9,158.4,146.0,1008.0,26.0,0,
252200,1860.4,2.3,25.9,184.3,146.0,1008.0,26.0,0,
252300,1860.4,2.4,25.9,176.4,146.0,1008.0,26.0,0,
252400,1860.9,2.8,25.9,178.0,146.0,1008.0,26.0,0,
252600,1859.4,2.2,25.9,199.9,146.0,1008.0,26.0,0,
252700,1860.7,3.4,25.9,188.9,148.0,1026.0,26.0,0,
252800,1856.2,11.6,22.1,148.1,147.0,1107.0,22.0,1,
252900,1867.3,6.7,18.0,69.1,145.0,1019.0,22.0,1,
253000,1862.8,11.5,23.7,89.8,136.0,986.0,28.0,0,
253100,1859.9,25.7,19.8,152.0,143.0,1094.0,27.0,0,
253200,1854.9,6.1,23.3,154.1,147.0,1033.0,27.0,0,
253300,1871.0,3.5,23.3,153.8,137.0,992.0,27.0,0,
253400,1855.6,2.5,20.4,153.3,137.0,992.0,27.0,0,
253600,1860.7,2.5,20.3,136.7,137.0,992.0,27.0,0,
253700,1860.5,2.2,20.3,148.7,137.0,992.0,27.0,0,
253800,1860.0,2.1,20.3,186.5,137.0,992.0,27.0,0,
253900,1860.8,2.7,20.3,177.2,137.0,992.0,27.0,0,
254000,1860.5,2.1,20.3,171.9,137.0,992.0,27.0,0,
254100,1860.6,2.4,20.3,172.2,137.0,992.0,27.0,0,
254200,1860.7,3.0,20.3,184.4,137.0,992.0,27.0,0,
254300,1860.7,5.2,20.4,198.0,153.0,1031.0,24.0,1,
254400,1864.4,33.3,20.4,208.7,144.0,1081.0,27.0,0,
254600,1867.3,13.4,23.8,186.7,141.0,971.0,27.0,0,
254700,1856.9,21.0,22.3,186.5,146.0,1091.0,26.0,0,
254800,1856.8,5.0,22.4,202.6,137.0,1027.0,26.0,0,
254900,1868.5,8.3,25.7,185.6,136.0,984.0,22.0,1,
255000,1853.5,2.7,25.9,169.4,136.0,984.0,22.0,1,
255100,1860.2,2.6,25.9,199.4,136.0,984.0,22.0,1,
255200,1860.3,2.5,25.9,219.4,136.0,984.0,22.0,1,
255300,1859.9,2.1,25.9,218.5,136.0,984.0,22.0,1,
255400,1860.3,2.7,25.9,210.1,136.0,984.0,22.0,1,
255600,1860.0,2.2,25.9,200.8,136.0,984.0,22.0,1,
255700,1861.0,2.4,25.9,189.0,136.0,984.0,22.0,1,
255800,1860.3,2.9,25.9,149.4,136.0,984.0,22.0,1,
255900,1860.1,4.8,25.9,152.5,136.0,984.0,22.0,1,
256000,1865.3,31.6,25.9,169.5,200.0,1199.0,6.0,1,
256100,1858.3,6.8,27.8,155.4,146.0,1048.0,28.0,0,
256200,1868.1,11.3,27.8,157.2,145.0,1013.0,24.0,1,
256300,1871.8,5.3,27.7,158.0,141.0,1096.0,28.0,0,
256400,1848.7,6.2,24.7,167.8,149.0,1026.0,27.0,0,
256600,1856.2,3.3,24.6,164.5,135.0,1020.0,28.0,0,
256700,1859.8,2.3,24.6,153.8,135.0,1020.0,28.0,0,
256800,1859.6,2.4,24.6,152.0,135.0,1020.0,28.0,0,
256900,1860.6,2.7,24.6,148.9,135.0,1020.0,28.0,0,
257000,1860.2,2.7,24.6,134.5,135.0,1020.0,28.0,0,
257100,1859.6,2.3,24.6,169.0,135.0,1020.0,28.0,0,
257200,1860.2,2.9,24.6,159.1,135.0,1020.0,28.0,0,
257300,1860.2,2.7,24.5,166.9,135.0,1020.0,28.0,0,
257400,1859.8,2.9,24.6,171.8,135.0,1020.0,28.0,0,
257600,1862.4,34.3,24.6,152.7,144.0,1064.0,27.0,0,
257700,1862.0,8.3,22.5,167.9,147.0,1051.0,28.0,0,
257800,1876.5,5.1,22.6,168.8,144.0,1009.0,26.0,0,
257900,1857.2,30.8,18.5,167.2,150.0,1096.0,28.0,0,
258000,1853.7,6.4,22.4,165.1,135.0,1005.0,24.0,1,
258100,1871.7,12.2,22.4,173.9,150.0,981.0,25.0,0,
258200,1858.3,3.1,23.4,185.0,150.0,1010.0,26.0,0,
258300,1859.5,2.3,23.3,210.8,150.0,1010.0,26.0,0,
258400,1860.8,2.4,23.4,226.3,150.0,1010.0,26.0,0,
258600,1859.7,2.4,23.4,200.9,150.0,1010.0,26.0,0,
258700,1860.8,3.0,23.4,165.5,150.0,1010.0,26.0,0,
258800,1860.5,2.5,23.4,150.7,150.0,1010.0,26.0,0,
258900,1860.2,2.5,23.4,171.9,150.0,1010.0,26.0,0,
259000,1860.0,2.8,23.4,176.8,150.0,1010.0,26.0,0,
259100,1860.5,2.4,23.4,168.0,150.0,1010.0,26.0,0,
259200,1860.7,4.0,23.4,187.4,148.0,1087.0,26.0,0,
259300,1872.2,4.9,19.9,225.6,143.0,1009.0,28.0,0,
259400,1867.9,14.3,19.7,155.7,150.0,1094.0,26.0,0,
259600,1863.1,4.7,19.7,178.2,148.0,1020.0,27.0,0,
259700,1869.3,10.9,19.7,176.2,140.0,966.0,23.0,1,
259800,1864.7,3.9,18.3,168.2,146.0,1034.0,26.0,0,
259900,1855.3,2.7,18.3,152.3,146.0,1034.0,26.0,0,
260000,1860.5,2.4,18.3,150.3,146.0,1034.0,26.0,0,
260100,1860.2,2.6,18.3,147.6,146.0,1034.0,26.0,0,
260200,1860.7,2.9,18.3,151.9,146.0,1034.0,26.0,0,
260300,1860.4,2.7,18.3,175.4,146.0,1034.0,26.0,0,
260400,1860.3,2.5,18.3,177.3,146.0,1034.0,26.0,0,
260600,1860.3,2.8,18.3,157.6,146.0,1034.0,26.0,0,
260700,1859.6,2.6,18.3,152.0,146.0,1034.0,26.0,0,
260800,1860.0,6.9,18.3,168.5,158.0,1160.0,28.0,0,
260900,1862.5,6.6,18.3,167.0,146.0,1107.0,26.0,0,
261000,1867.7,12.6,18.3,101.6,134.0,957.0,26.0,0,
261100,1853.7,6.7,18.1,155.0,145.0,1117.0,28.0,0,
261200,1871.4,6.2,18.1,154.7,151.0,998.0,25.0,0,
261300,1858.2,10.7,22.9,152.1,139.0,980.0,22.0,1,
261400,1858.9,5.1,19.5,150.2,149.0,1089.0,23.0,1,
261600,1859.5,2.4,19.5,152.4,149.0,1089.0,23.0,1,
261700,1859.8,2.8,19.5,150.4,149.0,1089.0,23.0,1,
261800,1860.4,2.7,19.5,164.3,149.0,1089.0,23.0,1,
261900,1859.7,3.0,19.5,188.5,149.0,1089.0,23.0,1,
262000,1859.5,2.9,19.5,227.8,149.0,1089.0,23.0,1,
262100,1860.3,3.3,19.5,230.3,149.0,1089.0,23.0,1,
262200,1859.4,2.7,19.5,173.6,149.0,1089.0,23.0,1,
262300,1860.2,3.1,19.5,169.1,149.0,1089.0,23.0,1,
262400,1860.3,5.4,19.5,169.3,156.0,1171.0,26.0,0,
262600,1866.9,12.8,24.1,155.4,140.0,1037.0,27.0,0,
262700,1864.3,38.0,21.3,152.9,148.0,1085.0,27.0,0,
262800,1852.3,9.5,25.2,146.2,153.0,1093.0,24.0,1,
262900,1866.7,14.2,25.2,138.3,141.0,973.0,22.0,1,
263000,1856.0,6.6,25.1,154.0,139.0,1085.0,27.0,0,
263100,1863.4,2.4,25.1,184.7,139.0,1085.0,27.0,0,
263200,1860.7,2.7,25.1,211.2,139.0,1085.0,27.0,0,
263300,1860.2,2.3,25.1,208.3,139.0,1085.0,27.0,0,
263400,1860.0,2.3,25.1,186.3,139.0,1085.0,27.0,0,
263600,1859.9,3.1,25.1,176.7,139.0,1085.0,27.0,0,
263700,1859.4,2.6,25.1,184.8,139.0,1085.0,27.0,0,
263800,1860.0,2.7,25.1,198.6,139.0,1085.0,27.0,0,
263900,1860.6,2.4,25.1,200.8,139.0,1085.0,27.0,0,
264000,1859.9,2.4,25.1,201.3,139.0,1085.0,27.0,0,
264100,1858.5,4.1,25.1,201.7,146.0,1089.0,27.0,0,
264200,1871.7,15.8,20.8,167.0,145.0,1134.0,26.0,0,
264300,1848.5,6.4,23.6,147.1,152.0,1090.0,26.0,0,
264400,1861.2,7.6,19.3,153.2,144.0,1003.0,20.0,1,
264600,1851.5,37.4,20.3,151.9,147.0,1087.0,27.0,0,
264700,1864.4,4.4,23.8,157.0,147.0,1087.0,27.0,0,
264800,1860.4,2.3,23.8,165.1,147.0,1087.0,27.0,0,
264900,1860.8,2.4,23.8,173.5,147.0,1087.0,27.0,0,
265000,1860.5,2.7,23.8,177.5,147.0,1087.0,27.0,0,
265100,1860.8,2.7,23.8,173.6,147.0,1087.0,27.0,0,
265200,1860.0,2.6,23.8,167.4,147.0,1087.0,27.0,0,
265300,1860.6,2.9,23.8,173.3,147.0,1087.0,27.0,0,
265400,1860.3,2.3,23.8,201.1,147.0,1087.0,27.0,0,
265600,1859.8,2.8,23.8,205.8,147.0,1087.0,27.0,0,
265700,1861.2,10.9,28.2,157.5,154.0,1083.0,28.0,0,
265800,1863.3,5.3,28.4,154.2,147.0,1163.0,26.0,0,
265900,1853.0,29.3,25.6,152.4,159.0,1125.0,24.0,1,
266000,1864.4,9.1,29.0,150.9,146.0,1070.0,27.0,0,
266100,1875.0,17.5,28.9,152.3,145.0,1119.0,27.0,0,
266200,1852.9,8.4,27.9,155.1,146.0,1079.0,27.0,0,
266300,1858.9,3.4,25.0,165.6,145.0,1006.0,26.0,0,
266400,1858.2,2.3,25.0,171.6,145.0,1006.0,26.0,0,
266600,1860.2,2.5,25.0,146.4,145.0,1006.0,26.0,0,
266700,1859.7,2.5,25.0,150.6,145.0,1006.0,26.0,0,
266800,1860.2,2.6,25.0,199.3,145.0,1006.0,26.0,0,
266900,1860.2,2.9,25.0,200.7,145.0,1006.0,26.0,0,
267000,1859.8,2.6,25.0,200.3,145.0,1006.0,26.0,0,
267100,1860.1,2.6,25.0,189.1,145.0,1006.0,26.0,0,
267200,1860.2,2.5,25.0,189.7,145.0,1006.0,26.0,0,
267300,1860.5,5.4,25.0,197.7,163.0,1117.0,27.0,0,
267400,1861.9,25.1,19.4,194.4,150.0,1146.0,25.0,0,
267600,1873.6,5.6,20.7,151.7,145.0,1059.0,27.0,0,
267700,1861.8,8.6,20.0,150.1,145.0,1145.0,26.0,0,
267800,1854.3,6.6,15.0,147.4,147.0,1118.0,23.0,1,
267900,1861.8,6.2,20.2,146.1,144.0,1005.0,27.0,0,
268000,1857.0,3.3,20.2,202.5,144.0,1005.0,27.0,0,
268100,1859.7,2.6,20.2,201.8,144.0,1005.0,27.0,0,
268200,1860.0,2.2,20.2,199.8,144.0,1005.0,27.0,0,
268300,1860.1,2.4,20.2,196.4,144.0,1005.0,27.0,0,
268400,1860.2,2.6,20.2,142.6,144.0,1005.0,27.0,0,
268600,1860.4,2.6,20.2,188.5,144.0,1005.0,27.0,0,
268700,1859.9,2.5,20.2,172.9,144.0,1005.0,27.0,0,
268800,1859.5,2.5,20.2,164.9,144.0,1005.0,27.0,0,
268900,1860.0,5.2,20.2,152.0,160.0,1092.0,26.0,0,
269000,1859.3,5.5,20.2,170.7,151.0,1147.0,28.0,0,
269100,1867.7,7.4,14.3,145.4,151.0,1098.0,28.0,0,
269200,1863.5,7.6,14.3,67.3,146.0,1035.0,26.0,0,
