Time(ms),Raw_ADC,ENV_Value,RMS,MDF,MW_Amp,MW_Area,MW_Latency,MW_Valid,Marker
0,1859.9,54.6,0.0,0.0,0.0,0.0,0.0,0,
100,1859.2,52.7,0.0,0.0,0.0,0.0,0.0,0,
200,1858.6,53.9,0.0,0.0,0.0,0.0,0.0,0,
300,1863.1,58.3,0.0,0.0,0.0,0.0,0.0,0,
400,1859.2,58.0,0.0,0.0,0.0,0.0,0.0,0,
500,1851.2,165.6,0.0,252.5,0.0,0.0,0.0,0,
600,1882.3,179.4,0.0,117.2,0.0,0.0,0.0,0,
700,1860.4,211.7,0.0,99.1,0.0,0.0,0.0,0,
800,1848.7,140.4,0.0,130.5,0.0,0.0,0.0,0,
900,1863.3,138.4,0.0,153.2,0.0,0.0,0.0,0,
1000,1854.0,168.0,0.0,207.3,0.0,0.0,0.0,0,
1100,1871.5,97.9,0.0,227.2,0.0,0.0,0.0,0,
1200,1856.1,66.9,0.0,231.2,0.0,0.0,0.0,0,
1300,1861.3,59.4,0.0,188.5,0.0,0.0,0.0,0,
1400,1857.7,54.6,0.0,158.1,0.0,0.0,0.0,0,
1500,1863.2,59.8,0.0,188.3,0.0,0.0,0.0,0,
1600,1860.7,58.2,165.5,240.6,0.0,0.0,0.0,0,
1700,1857.5,58.3,165.6,244.3,0.0,0.0,0.0,0,
1800,1859.4,53.8,165.7,239.9,0.0,0.0,0.0,0,
1900,1861.5,55.6,165.7,240.1,0.0,0.0,0.0,0,
2000,1858.9,55.3,165.6,247.7,0.0,0.0,0.0,0,
2100,1860.3,112.9,165.6,272.1,0.0,0.0,0.0,0,
2200,1855.1,203.4,163.7,158.7,0.0,0.0,0.0,0,
2300,1855.6,150.5,166.4,93.3,0.0,0.0,0.0,0,
2400,1866.7,194.8,164.4,99.2,0.0,0.0,0.0,0,
2600,1874.0,175.1,166.1,166.3,0.0,0.0,0.0,0,
2700,1859.6,189.8,171.2,199.9,0.0,0.0,0.0,0,
2800,1859.6,68.7,171.3,226.3,0.0,0.0,0.0,0,
2900,1858.9,61.4,171.2,135.9,0.0,0.0,0.0,0,
3000,1861.6,61.6,171.2,98.9,0.0,0.0,0.0,0,
3100,1861.2,55.0,171.3,93.7,0.0,0.0,0.0,0,
3200,1861.1,56.6,171.3,197.0,0.0,0.0,0.0,0,
3300,1863.4,57.1,171.2,240.0,0.0,0.0,0.0,0,
3400,1863.1,52.6,171.0,240.7,0.0,0.0,0.0,0,
3600,1861.0,58.5,171.1,241.0,0.0,0.0,0.0,0,
3700,1860.7,56.4,171.1,284.9,0.0,0.0,0.0,0,
3800,1861.4,133.3,170.8,247.1,0.0,0.0,0.0,0,
3900,1854.5,172.0,166.1,157.9,0.0,0.0,0.0,0,
4000,1853.9,144.8,166.0,131.9,0.0,0.0,0.0,0,
4100,1879.8,159.2,157.1,132.4,0.0,0.0,0.0,0,
4200,1858.5,175.0,156.2,188.8,0.0,0.0,0.0,0,
4300,1849.5,104.6,149.4,225.8,0.0,0.0,0.0,0,
4400,1864.4,84.5,143.6,250.5,0.0,0.0,0.0,0,
4600,1859.8,77.7,144.9,122.1,0.0,0.0,0.0,0,
4700,1858.6,78.0,145.5,135.5,0.0,0.0,0.0,0,
4800,1861.3,81.8,146.2,240.4,0.0,0.0,0.0,0,
4900,1858.5,77.9,147.0,267.4,0.0,0.0,0.0,0,
5000,1859.9,77.8,147.6,291.7,0.0,0.0,0.0,0,
5100,1860.4,75.9,148.3,283.9,0.0,0.0,0.0,0,
5200,1861.3,75.8,148.8,297.4,0.0,0.0,0.0,0,
5300,1861.7,74.2,149.5,295.7,0.0,0.0,0.0,0,
5400,1854.6,149.3,147.4,240.9,0.0,0.0,0.0,0,
5600,1873.7,154.8,136.0,91.3,0.0,0.0,0.0,0,
5700,1849.1,147.1,137.3,110.2,0.0,0.0,0.0,0,
5800,1866.1,104.0,135.7,177.0,0.0,0.0,0.0,0,
5900,1863.9,144.8,128.7,233.1,695.0,4467.0,8.0,1,
6000,1850.5,85.3,132.4,198.1,695.0,4467.0,8.0,1,
6100,1861.9,65.8,132.1,87.9,695.0,4467.0,8.0,1,
6200,1855.1,65.3,131.6,77.1,695.0,4467.0,8.0,1,
6300,1864.0,65.2,131.1,79.3,695.0,4467.0,8.0,1,
6400,1861.3,63.4,130.6,168.8,695.0,4467.0,8.0,1,
6600,1860.6,63.3,129.4,277.3,695.0,4467.0,8.0,1,
6700,1859.7,64.3,129.0,268.0,695.0,4467.0,8.0,1,
6800,1860.0,64.4,128.6,240.8,695.0,4467.0,8.0,1,
6900,1860.5,65.8,128.2,240.0,695.0,4467.0,8.0,1,
7000,1869.7,124.3,125.2,240.5,519.0,3294.0,8.0,1,
7100,1858.6,242.1,122.4,89.2,763.0,4010.0,6.0,1,
7200,1856.5,86.8,132.2,54.5,562.0,3298.0,8.0,1,
7300,1863.7,50.3,123.1,67.3,671.0,2596.0,8.0,1,
7400,1857.1,185.3,121.4,68.5,1118.0,4042.0,23.0,1,
7600,1873.0,62.2,121.6,73.4,708.0,4004.0,8.0,1,
7700,1858.8,65.7,121.3,67.1,708.0,4004.0,8.0,1,
7800,1862.1,66.5,121.1,46.6,708.0,4004.0,8.0,1,
7900,1858.9,65.1,121.3,50.6,708.0,4004.0,8.0,1,
8000,1859.3,64.6,121.3,219.1,708.0,4004.0,8.0,1,
8100,1861.5,65.4,121.4,239.5,708.0,4004.0,8.0,1,
8200,1858.6,66.6,121.6,240.0,708.0,4004.0,8.0,1,
8300,1858.0,66.1,121.7,240.3,708.0,4004.0,8.0,1,
8400,1859.1,65.6,121.8,240.4,708.0,4004.0,8.0,1,
8600,1859.8,115.2,121.8,239.8,708.0,4004.0,8.0,1,
8700,1861.0,144.2,128.1,164.2,888.0,5863.0,10.0,1,
8800,1851.6,264.7,122.3,37.0,1306.0,6071.0,28.0,0,
8900,1854.9,228.7,144.3,36.1,1042.0,5529.0,24.0,1,
9000,1893.9,322.7,155.1,36.0,1137.0,5103.0,28.0,0,
9100,1834.7,251.0,160.2,66.9,1912.0,7894.0,3.0,1,
9200,1850.9,198.8,170.3,135.1,1682.0,7041.0,2.0,0,
9300,1876.8,78.0,172.7,131.7,1594.0,5664.0,3.0,1,
9400,1861.4,72.3,172.8,136.6,1594.0,5664.0,3.0,1,
9600,1862.2,70.0,173.0,163.7,1594.0,5664.0,3.0,1,
9700,1854.1,71.3,173.3,240.1,1594.0,5664.0,3.0,1,
9800,1860.2,69.3,173.4,239.6,1594.0,5664.0,3.0,1,
9900,1859.8,70.8,173.4,238.6,1594.0,5664.0,3.0,1,
10000,1855.3,72.5,173.6,239.7,1594.0,5664.0,3.0,1,
10100,1861.5,66.7,173.7,240.8,1594.0,5664.0,3.0,1,
10200,1858.6,65.5,173.7,242.1,1594.0,5664.0,3.0,1,
10300,1839.7,103.9,174.3,198.2,1584.0,9888.0,9.0,1,
10400,1871.3,126.2,179.8,68.5,1917.0,9719.0,7.0,1,
10600,1813.6,59.3,153.6,70.4,1903.0,8776.0,7.0,1,
10700,1865.5,85.5,134.0,66.0,1554.0,6279.0,6.0,1,
10800,1872.8,77.5,121.9,28.5,1796.0,7970.0,6.0,1,
10900,1853.8,70.2,113.3,28.6,1719.0,7502.0,6.0,1,
11000,1857.2,64.3,113.4,28.8,1719.0,7502.0,6.0,1,
11100,1855.3,72.1,113.4,29.0,1719.0,7502.0,6.0,1,
11200,1859.8,64.7,113.3,56.4,1719.0,7502.0,6.0,1,
11300,1857.3,63.9,113.0,240.3,1719.0,7502.0,6.0,1,
11400,1862.8,68.8,112.8,241.1,1719.0,7502.0,6.0,1,
11600,1860.9,64.4,112.4,281.5,1719.0,7502.0,6.0,1,
11700,1856.4,63.1,112.3,270.7,1719.0,7502.0,6.0,1,
11800,1863.4,64.3,112.2,266.6,1719.0,7502.0,6.0,1,
11900,1864.1,138.4,111.6,240.7,890.0,5586.0,11.0,1,
12000,1875.1,194.0,107.6,68.6,1502.0,7838.0,27.0,0,
12100,1827.3,253.9,115.0,30.2,1204.0,6327.0,28.0,0,
12200,1866.3,316.3,145.2,66.3,1433.0,6155.0,2.0,0,
12300,1850.8,151.6,156.5,93.3,1926.0,7270.0,3.0,1,
12400,1861.3,214.7,161.2,75.0,1357.0,5439.0,2.0,0,
12600,1859.5,71.3,170.0,91.4,1357.0,5439.0,2.0,0,
12700,1856.2,68.6,170.0,91.1,1357.0,5439.0,2.0,0,
12800,1857.1,67.9,170.0,92.6,1357.0,5439.0,2.0,0,
12900,1854.2,67.1,170.2,203.4,1357.0,5439.0,2.0,0,
13000,1860.1,69.9,170.2,291.9,1357.0,5439.0,2.0,0,
13100,1861.9,68.6,170.3,298.3,1357.0,5439.0,2.0,0,
13200,1857.3,69.0,170.3,267.9,1357.0,5439.0,2.0,0,
13300,1859.8,66.3,170.3,219.2,1357.0,5439.0,2.0,0,
13400,1860.3,66.1,170.3,209.4,1357.0,5439.0,2.0,0,
13600,1839.3,146.2,172.7,122.1,1083.0,6539.0,9.0,1,
13700,1855.4,125.1,170.1,67.0,1406.0,6343.0,4.0,1,
13800,1848.1,242.3,164.4,43.0,1200.0,5516.0,2.0,0,
13900,1880.8,293.2,157.6,40.7,1042.0,5023.0,28.0,0,
14000,1854.0,259.5,167.4,93.9,1968.0,8289.0,3.0,1,
14100,1838.5,138.2,169.6,158.0,1406.0,5738.0,3.0,1,
14200,1868.6,75.3,169.7,145.2,1406.0,5738.0,3.0,1,
14300,1860.2,68.8,169.8,99.2,1406.0,5738.0,3.0,1,
14400,1856.9,70.4,169.9,93.0,1406.0,5738.0,3.0,1,
14600,1859.3,68.8,169.9,240.2,1406.0,5738.0,3.0,1,rest_end
14700,1859.6,70.4,169.9,239.8,1406.0,5738.0,3.0,1,
14800,1859.2,69.9,170.0,239.9,1406.0,5738.0,3.0,1,
14900,1858.7,66.9,170.1,240.2,1406.0,5738.0,3.0,1,
15000,1856.7,71.0,170.1,240.9,1406.0,5738.0,3.0,1,
15100,1857.9,100.5,170.3,240.8,1406.0,5738.0,3.0,1,
15200,1859.7,98.3,166.7,132.2,1111.0,6361.0,5.0,1,
15300,1853.7,81.9,165.7,37.7,1050.0,4983.0,8.0,1,
15400,1873.7,235.9,162.1,36.9,960.0,3631.0,28.0,0,
15600,1858.2,193.3,154.8,38.3,993.0,3529.0,2.0,0,
15700,1867.5,113.3,147.0,46.5,1282.0,4123.0,2.0,0,
15800,1862.5,74.5,145.6,104.3,975.0,4524.0,2.0,0,
15900,1860.3,73.3,145.7,199.2,975.0,4524.0,2.0,0,
16000,1858.6,74.0,145.8,220.1,975.0,4524.0,2.0,0,
16100,1857.3,71.6,145.9,212.2,975.0,4524.0,2.0,0,
16200,1858.5,72.6,146.1,240.4,975.0,4524.0,2.0,0,
16300,1859.6,73.5,146.2,240.7,975.0,4524.0,2.0,0,
16400,1860.1,72.7,146.4,241.0,975.0,4524.0,2.0,0,
16600,1858.8,72.6,146.7,240.3,975.0,4524.0,2.0,0,
16700,1858.2,75.0,147.0,239.9,975.0,4524.0,2.0,0,
16800,1848.4,118.7,147.7,239.3,636.0,4499.0,9.0,1,
16900,1873.2,168.1,147.9,66.9,908.0,5408.0,5.0,1,
17000,1845.6,194.4,157.2,30.1,1270.0,5449.0,2.0,0,
17100,1859.2,256.6,155.5,30.2,1140.0,4253.0,28.0,0,
17200,1854.3,266.0,159.4,47.6,956.0,5263.0,24.0,1,
17300,1853.4,165.8,165.1,157.4,668.0,3386.0,2.0,0,
17400,1871.7,87.5,164.2,174.0,342.0,2367.0,22.0,1,
17600,1854.6,78.6,165.0,69.8,342.0,2367.0,22.0,1,
17700,1859.6,79.0,165.1,91.5,342.0,2367.0,22.0,1,
17800,1854.6,78.9,165.4,241.2,342.0,2367.0,22.0,1,
17900,1858.8,81.5,165.7,264.3,342.0,2367.0,22.0,1,
18000,1858.0,78.2,165.9,263.5,342.0,2367.0,22.0,1,
18100,1854.6,75.0,166.2,249.9,342.0,2367.0,22.0,1,
18200,1861.8,79.1,166.2,240.8,342.0,2367.0,22.0,1,
18300,1860.5,77.1,166.3,240.5,342.0,2367.0,22.0,1,
18400,1879.2,94.6,164.5,240.6,819.0,5147.0,6.0,1,
18600,1852.9,73.4,156.9,57.4,643.0,3386.0,8.0,1,
18700,1862.5,84.3,145.4,50.7,1096.0,5846.0,8.0,1,
18800,1856.7,141.2,129.1,29.4,666.0,3366.0,7.0,1,
18900,1868.0,78.9,110.0,29.0,871.0,3730.0,7.0,1,
19000,1848.8,83.5,103.3,28.8,885.0,4863.0,7.0,1,
19100,1861.9,85.3,103.2,28.8,885.0,4863.0,7.0,1,
19200,1856.5,83.4,103.4,29.6,885.0,4863.0,7.0,1,
19300,1859.8,82.6,103.7,91.6,885.0,4863.0,7.0,1,
19400,1860.1,77.0,103.8,239.9,885.0,4863.0,7.0,1,
19600,1862.7,76.6,103.6,298.6,885.0,4863.0,7.0,1,
19700,1858.5,83.3,103.6,298.0,885.0,4863.0,7.0,1,
19800,1862.6,80.1,103.9,242.1,885.0,4863.0,7.0,1,
19900,1858.8,79.0,104.1,242.5,885.0,4863.0,7.0,1,
20000,1855.4,118.4,104.6,280.3,902.0,5365.0,7.0,1,
20100,1860.5,106.1,105.6,177.4,897.0,4916.0,5.0,1,
20200,1861.0,112.3,107.2,34.6,1422.0,7459.0,8.0,1,
20300,1857.1,104.3,112.0,29.3,1343.0,5768.0,7.0,1,
20400,1870.2,101.5,112.3,28.7,1617.0,9349.0,7.0,1,
20600,1863.4,87.7,112.6,30.2,1233.0,6066.0,7.0,1,
20700,1866.7,82.7,112.5,28.9,1233.0,6066.0,7.0,1,
20800,1859.6,85.2,112.3,36.6,1233.0,6066.0,7.0,1,
20900,1856.9,82.8,112.1,86.9,1233.0,6066.0,7.0,1,
21000,1858.2,84.6,112.0,196.7,1233.0,6066.0,7.0,1,
21100,1859.7,81.6,112.2,242.9,1233.0,6066.0,7.0,1,
21200,1856.3,80.4,112.3,240.4,1233.0,6066.0,7.0,1,
21300,1858.9,84.1,112.3,240.5,1233.0,6066.0,7.0,1,
21400,1858.7,78.2,112.3,260.3,1233.0,6066.0,7.0,1,
21600,1859.8,183.8,112.2,241.0,878.0,6252.0,6.0,1,
21700,1844.1,142.5,124.7,75.0,1519.0,8250.0,8.0,1,
21800,1880.7,217.3,131.0,66.6,1558.0,8054.0,8.0,1,
21900,1855.6,213.5,141.4,66.9,1676.0,8919.0,5.0,1,
22000,1830.1,220.3,151.7,66.5,1377.0,6599.0,23.0,1,
22100,1864.2,222.3,160.9,66.7,1062.0,5067.0,27.0,0,
22200,1856.8,187.1,174.1,94.4,899.0,4481.0,2.0,0,
22300,1870.6,86.9,174.7,158.7,899.0,4481.0,2.0,0,
22400,1854.9,80.5,174.6,78.7,899.0,4481.0,2.0,0,
22600,1860.9,80.0,174.5,92.5,899.0,4481.0,2.0,0,
22700,1859.5,74.6,174.2,281.6,899.0,4481.0,2.0,0,
22800,1859.8,82.9,174.0,241.4,899.0,4481.0,2.0,0,
22900,1859.4,84.4,173.9,241.0,899.0,4481.0,2.0,0,
23000,1856.9,82.0,174.0,241.1,899.0,4481.0,2.0,0,
23100,1855.5,84.7,174.2,265.2,899.0,4481.0,2.0,0,
23200,1857.1,106.2,174.4,281.7,899.0,4481.0,2.0,0,
23300,1877.8,126.0,169.6,239.5,676.0,4308.0,3.0,1,
23400,1860.3,201.7,162.2,30.0,1104.0,6883.0,9.0,1,
23600,1870.6,87.8,146.6,36.3,985.0,4989.0,8.0,1,
23700,1855.6,97.7,138.1,52.0,667.0,4394.0,7.0,1,
23800,1864.8,221.9,118.2,29.9,580.0,3081.0,7.0,1,
23900,1860.3,87.6,117.1,29.2,874.0,3719.0,7.0,1,
24000,1859.1,88.2,117.1,29.5,874.0,3719.0,7.0,1,
24100,1856.4,84.6,117.5,29.9,874.0,3719.0,7.0,1,
24200,1856.1,81.1,117.6,37.3,874.0,3719.0,7.0,1,
24300,1856.8,80.2,117.8,237.6,874.0,3719.0,7.0,1,
24400,1855.1,77.9,118.0,253.5,874.0,3719.0,7.0,1,
24600,1854.6,82.9,117.8,291.8,874.0,3719.0,7.0,1,
24700,1860.3,84.2,117.6,270.1,874.0,3719.0,7.0,1,
24800,1857.5,83.7,117.5,297.9,874.0,3719.0,7.0,1,
24900,1862.0,151.8,117.7,252.5,1238.0,8845.0,9.0,1,
25000,1833.1,150.9,129.7,87.3,1442.0,8219.0,9.0,1,
25100,1868.5,201.3,130.2,67.5,1898.0,9930.0,4.0,1,
25200,1862.5,208.6,139.2,67.4,1602.0,8244.0,3.0,1,
25300,1882.4,127.9,148.5,94.4,1813.0,8281.0,4.0,1,
25400,1829.0,91.5,155.8,104.3,2071.0,9567.0,3.0,1,
25600,1856.2,88.8,156.3,198.1,2071.0,9567.0,3.0,1,
25700,1854.1,85.6,156.2,131.6,2071.0,9567.0,3.0,1,
25800,1853.0,87.3,156.2,99.8,2071.0,9567.0,3.0,1,
25900,1858.9,83.8,156.4,232.9,2071.0,9567.0,3.0,1,
26000,1855.5,84.0,156.5,298.9,2071.0,9567.0,3.0,1,
26100,1859.8,84.2,156.6,298.6,2071.0,9567.0,3.0,1,
26200,1855.6,81.0,156.6,271.5,2071.0,9567.0,3.0,1,
26300,1862.6,83.2,156.7,263.7,2071.0,9567.0,3.0,1,
26400,1859.4,84.9,156.6,265.9,2071.0,9567.0,3.0,1,
26600,1854.5,135.4,148.3,56.8,1135.0,7445.0,5.0,1,
26700,1859.7,127.7,148.1,39.5,1163.0,6229.0,8.0,1,
26800,1887.7,96.4,144.4,66.5,1222.0,6464.0,8.0,1,
26900,1827.9,159.8,142.6,88.8,1312.0,7187.0,7.0,1,
27000,1855.3,63.7,135.5,66.8,1073.0,5299.0,7.0,1,
27100,1863.1,64.2,126.2,82.0,1442.0,7080.0,7.0,1,
27200,1862.9,62.3,125.2,89.3,1442.0,7080.0,7.0,1,
27300,1858.7,62.6,124.3,113.0,1442.0,7080.0,7.0,1,
27400,1859.5,62.7,123.5,155.1,1442.0,7080.0,7.0,1,
27600,1857.6,60.0,121.6,241.4,1442.0,7080.0,7.0,1,
27700,1860.3,60.1,120.8,242.1,1442.0,7080.0,7.0,1,
27800,1860.3,59.0,119.7,242.2,1442.0,7080.0,7.0,1,
27900,1859.1,61.6,118.8,243.4,1442.0,7080.0,7.0,1,
28000,1858.3,60.8,117.9,243.5,1442.0,7080.0,7.0,1,
28100,1853.3,87.4,117.0,273.9,972.0,6113.0,8.0,1,
28200,1873.0,153.9,119.0,155.2,736.0,4620.0,6.0,1,
28300,1865.2,120.0,119.1,30.2,885.0,4782.0,7.0,1,
28400,1842.6,145.6,115.4,29.6,835.0,4709.0,8.0,1,
28600,1849.5,92.2,105.2,35.0,790.0,4628.0,7.0,1,
28700,1862.5,88.4,108.1,29.7,539.0,3356.0,7.0,1,
28800,1863.5,63.2,108.1,39.4,539.0,3356.0,7.0,1,
28900,1862.5,60.2,108.0,55.9,539.0,3356.0,7.0,1,
29000,1862.5,61.8,107.9,42.8,539.0,3356.0,7.0,1,
29100,1858.9,64.3,107.8,123.9,539.0,3356.0,7.0,1,
29200,1859.9,62.0,107.7,251.8,539.0,3356.0,7.0,1,
29300,1860.3,61.2,107.8,254.8,539.0,3356.0,7.0,1,
29400,1857.8,62.4,107.9,240.9,539.0,3356.0,7.0,1,
29600,1861.4,60.1,108.1,298.0,539.0,3356.0,7.0,1,
29700,1856.3,66.1,108.0,279.1,539.0,3356.0,7.0,1,
29800,1868.9,102.1,104.5,239.5,994.0,5732.0,6.0,1,
29900,1848.9,118.8,100.9,65.8,918.0,5301.0,8.0,1,
30000,1861.5,87.5,101.7,65.9,882.0,5243.0,8.0,1,
30100,1849.5,92.5,99.5,44.1,893.0,4819.0,7.0,1,
30200,1870.0,80.9,100.9,40.1,597.0,3268.0,8.0,1,
30300,1863.7,83.2,97.4,36.0,874.0,3983.0,7.0,1,
30400,1848.0,63.3,96.5,29.4,888.0,4765.0,8.0,1,
30600,1859.6,61.5,96.6,90.9,888.0,4765.0,8.0,1,
30700,1858.8,59.7,96.6,173.9,888.0,4765.0,8.0,1,
30800,1859.5,60.2,96.6,241.1,888.0,4765.0,8.0,1,
30900,1861.3,63.3,96.5,246.7,888.0,4765.0,8.0,1,
31000,1858.7,62.5,96.7,264.5,888.0,4765.0,8.0,1,
31100,1856.9,64.8,96.7,240.5,888.0,4765.0,8.0,1,
31200,1858.1,61.2,96.6,240.9,888.0,4765.0,8.0,1,
31300,1860.1,59.7,96.7,246.0,888.0,4765.0,8.0,1,
31400,1858.6,178.5,98.7,240.3,904.0,5482.0,9.0,1,
31600,1852.6,64.6,95.0,29.8,801.0,4411.0,8.0,1,
31700,1875.4,110.3,95.6,30.2,468.0,2899.0,8.0,1,
31800,1852.7,102.0,96.0,35.6,713.0,3887.0,7.0,1,
31900,1853.6,107.6,96.8,29.6,644.0,3582.0,8.0,1,
32000,1868.6,64.5,98.0,30.1,432.0,2831.0,8.0,1,
32100,1858.4,60.2,98.0,66.0,432.0,2831.0,8.0,1,
32200,1859.5,59.3,97.9,66.0,432.0,2831.0,8.0,1,
32300,1858.8,63.0,97.9,71.7,432.0,2831.0,8.0,1,
32400,1858.9,59.1,97.9,237.4,432.0,2831.0,8.0,1,
32600,1857.4,57.9,97.7,248.0,432.0,2831.0,8.0,1,
32700,1863.2,57.6,97.5,270.4,432.0,2831.0,8.0,1,
32800,1861.3,57.5,97.3,270.3,432.0,2831.0,8.0,1,
32900,1858.0,62.4,97.3,284.1,432.0,2831.0,8.0,1,
33000,1851.0,90.6,95.3,241.7,891.0,5519.0,7.0,1,
33100,1856.4,151.3,93.7,99.5,786.0,4737.0,8.0,1,
33200,1870.5,86.1,98.0,54.6,461.0,2967.0,7.0,1,
33300,1845.5,81.2,97.1,29.6,765.0,4502.0,8.0,1,
33400,1857.1,78.2,95.9,29.2,543.0,3479.0,8.0,1,
33600,1857.4,64.1,90.9,28.8,725.0,4060.0,8.0,1,
33700,1860.5,57.3,90.8,29.1,725.0,4060.0,8.0,1,
33800,1859.7,59.5,90.7,34.4,725.0,4060.0,8.0,1,
33900,1861.3,59.0,90.5,89.2,725.0,4060.0,8.0,1,
34000,1858.7,56.0,90.4,240.6,725.0,4060.0,8.0,1,
34100,1858.1,58.2,90.5,278.2,725.0,4060.0,8.0,1,
34200,1859.6,56.0,90.4,251.8,725.0,4060.0,8.0,1,
34300,1857.9,56.9,90.4,240.6,725.0,4060.0,8.0,1,
34400,1857.6,58.4,90.3,241.0,725.0,4060.0,8.0,1,
34600,1862.0,68.1,90.2,267.1,731.0,4279.0,9.0,1,
34700,1865.5,50.0,86.6,118.0,466.0,3115.0,7.0,1,
34800,1856.2,62.4,75.3,38.1,732.0,4186.0,8.0,1,
34900,1864.4,114.4,80.8,35.0,441.0,2471.0,8.0,1,
35000,1848.6,60.1,81.9,30.0,608.0,3711.0,7.0,1,
35100,1857.1,68.9,81.5,28.2,490.0,3198.0,9.0,1,
35200,1873.6,98.1,86.0,27.6,409.0,2584.0,7.0,1,
35300,1852.2,62.2,86.5,28.3,409.0,2584.0,7.0,1,
35400,1860.3,57.2,86.6,29.6,409.0,2584.0,7.0,1,
35600,1858.8,56.4,86.6,56.1,409.0,2584.0,7.0,1,
35700,1856.7,57.3,86.6,260.7,409.0,2584.0,7.0,1,
35800,1859.4,52.4,86.5,240.8,409.0,2584.0,7.0,1,
35900,1860.6,60.2,86.4,233.2,409.0,2584.0,7.0,1,
36000,1857.8,56.1,86.5,239.4,409.0,2584.0,7.0,1,
36100,1857.8,60.0,86.5,241.1,409.0,2584.0,7.0,1,
36200,1861.3,98.7,86.6,240.0,409.0,2584.0,7.0,1,
36300,1853.0,197.8,88.2,217.9,899.0,5414.0,7.0,1,
36400,1855.0,72.4,98.3,65.6,550.0,3441.0,8.0,1,
36600,1866.9,91.6,93.2,29.9,598.0,3748.0,9.0,1,
36700,1873.1,194.2,94.0,29.9,746.0,3376.0,9.0,1,
36800,1845.1,80.4,103.2,29.5,940.0,4965.0,8.0,1,
36900,1866.0,61.5,99.5,30.2,760.0,4335.0,7.0,1,
37000,1858.3,60.6,99.5,37.7,760.0,4335.0,7.0,1,
37100,1859.9,60.5,99.6,36.8,760.0,4335.0,7.0,1,
37200,1858.5,59.0,99.6,105.1,760.0,4335.0,7.0,1,
37300,1859.2,56.6,99.7,240.3,760.0,4335.0,7.0,1,
37400,1860.0,59.9,99.7,240.7,760.0,4335.0,7.0,1,
37600,1859.0,59.1,99.8,252.7,760.0,4335.0,7.0,1,
37700,1861.5,59.6,99.8,253.7,760.0,4335.0,7.0,1,
37800,1861.7,60.0,99.9,253.2,760.0,4335.0,7.0,1,
37900,1853.5,85.7,98.5,241.0,673.0,4214.0,6.0,1,
38000,1853.7,55.8,90.4,54.3,704.0,4367.0,8.0,1,
38100,1872.1,85.9,90.8,37.4,383.0,2840.0,12.0,1,
38200,1859.5,179.7,89.9,36.8,545.0,3268.0,8.0,1,
38300,1857.0,97.9,95.9,29.3,549.0,3703.0,7.0,1,
38400,1860.4,64.1,87.5,27.9,557.0,3288.0,8.0,1,
38600,1860.8,58.9,86.2,29.3,557.0,3288.0,8.0,1,
38700,1860.4,59.2,86.1,36.2,557.0,3288.0,8.0,1,
38800,1860.3,60.7,86.2,90.7,557.0,3288.0,8.0,1,
38900,1856.0,58.4,86.3,241.1,557.0,3288.0,8.0,1,
39000,1861.2,57.4,86.3,241.1,557.0,3288.0,8.0,1,
39100,1859.7,58.0,86.2,240.8,557.0,3288.0,8.0,1,
39200,1862.1,61.6,86.2,240.8,557.0,3288.0,8.0,1,
39300,1861.5,64.4,86.2,241.1,557.0,3288.0,8.0,1,
39400,1860.1,55.4,86.2,280.2,557.0,3288.0,8.0,1,
39600,1875.3,140.5,89.0,90.9,632.0,3756.0,9.0,1,
39700,1861.4,89.2,90.7,35.9,794.0,4314.0,8.0,1,
39800,1852.1,148.8,91.1,35.4,629.0,3852.0,9.0,1,
39900,1849.9,78.2,89.7,38.9,576.0,3335.0,7.0,1,
40000,1856.3,66.2,88.5,29.3,611.0,3765.0,8.0,1,
40100,1873.9,61.5,89.6,29.0,381.0,2856.0,8.0,1,
40200,1862.6,57.1,89.4,28.3,381.0,2856.0,8.0,1,
40300,1862.1,58.7,89.4,29.8,381.0,2856.0,8.0,1,
40400,1860.8,58.8,89.2,38.3,381.0,2856.0,8.0,1,
40600,1859.2,61.3,89.2,241.0,381.0,2856.0,8.0,1,
40700,1860.2,56.9,89.3,268.5,381.0,2856.0,8.0,1,
40800,1861.4,61.0,89.2,240.9,381.0,2856.0,8.0,1,
40900,1860.0,55.7,89.1,239.7,381.0,2856.0,8.0,1,
41000,1858.7,59.3,88.8,239.6,381.0,2856.0,8.0,1,
41100,1866.6,57.7,88.9,238.7,471.0,3437.0,8.0,1,
41200,1848.5,130.1,91.2,110.2,831.0,5079.0,8.0,1,
41300,1849.3,106.1,89.9,66.6,507.0,3733.0,9.0,1,
41400,1865.3,65.5,89.9,73.8,822.0,4293.0,8.0,1,
41600,1870.5,93.4,89.1,29.7,540.0,3341.0,8.0,1,
41700,1849.8,76.2,90.7,28.1,1000.0,5482.0,8.0,1,
41800,1857.5,57.4,91.0,28.9,1000.0,5482.0,8.0,1,
41900,1860.2,57.5,90.9,29.2,1000.0,5482.0,8.0,1,
42000,1861.0,58.1,90.9,65.8,1000.0,5482.0,8.0,1,
42100,1858.1,54.5,90.9,164.3,1000.0,5482.0,8.0,1,
42200,1859.3,60.1,91.0,240.0,1000.0,5482.0,8.0,1,
42300,1860.8,57.7,91.0,240.8,1000.0,5482.0,8.0,1,
42400,1856.0,60.2,91.2,265.6,1000.0,5482.0,8.0,1,
42600,1859.9,57.9,91.4,261.3,1000.0,5482.0,8.0,1,
42700,1858.7,165.7,91.4,264.5,1000.0,5482.0,8.0,1,
42800,1853.5,156.9,109.9,78.0,1378.0,7341.0,9.0,1,
42900,1857.0,145.6,117.6,39.5,1626.0,9181.0,7.0,1,
43000,1879.8,155.9,125.2,39.5,1279.0,6484.0,6.0,1,
43100,1846.1,60.7,129.7,43.7,1750.0,8023.0,7.0,1,
43200,1844.2,58.9,126.8,40.5,1716.0,8163.0,6.0,1,
43300,1860.5,87.5,127.1,30.2,1680.0,7515.0,7.0,1,
43400,1866.6,70.1,126.5,34.6,1680.0,7515.0,7.0,1,
43600,1858.9,61.7,127.0,55.9,1680.0,7515.0,7.0,1,
43700,1858.1,62.0,127.1,158.7,1680.0,7515.0,7.0,1,
43800,1857.2,59.2,127.2,264.0,1680.0,7515.0,7.0,1,
43900,1860.3,55.7,127.2,240.6,1680.0,7515.0,7.0,1,
44000,1861.1,57.9,127.1,240.0,1680.0,7515.0,7.0,1,
44100,1857.4,59.6,127.1,240.8,1680.0,7515.0,7.0,1,
44200,1862.2,59.1,127.2,240.0,1680.0,7515.0,7.0,1,
44300,1858.5,62.5,127.1,240.3,1680.0,7515.0,7.0,1,
44400,1841.8,95.9,120.9,239.9,1155.0,7442.0,7.0,1,
44600,1857.3,76.6,111.8,67.3,1348.0,8059.0,7.0,1,
44700,1839.8,97.0,106.8,66.0,1250.0,6770.0,7.0,1,
44800,1857.8,117.8,107.7,66.1,1416.0,6841.0,6.0,1,
44900,1851.4,68.0,110.7,78.7,1434.0,6834.0,7.0,1,
45000,1868.8,66.1,109.2,36.0,1163.0,5695.0,7.0,1,
45100,1863.9,64.3,109.2,35.4,1163.0,5695.0,7.0,1,
45200,1857.3,62.1,109.1,50.4,1163.0,5695.0,7.0,1,
45300,1858.3,56.8,109.0,117.9,1163.0,5695.0,7.0,1,
45400,1861.8,58.3,108.8,240.2,1163.0,5695.0,7.0,1,
45600,1857.2,58.7,108.6,269.8,1163.0,5695.0,7.0,1,
45700,1859.6,57.8,108.7,277.8,1163.0,5695.0,7.0,1,
45800,1860.6,55.5,108.5,240.5,1163.0,5695.0,7.0,1,
45900,1862.3,57.8,108.4,239.5,1163.0,5695.0,7.0,1,
46000,1879.4,103.7,108.1,237.7,584.0,3828.0,3.0,1,
46100,1851.5,89.4,98.5,41.1,699.0,4424.0,7.0,1,
46200,1852.5,66.8,89.1,34.8,552.0,3363.0,9.0,1,
46300,1863.9,59.2,86.2,36.4,515.0,3144.0,7.0,1,
46400,1850.9,96.2,83.6,66.2,526.0,3383.0,8.0,1,
46600,1857.2,60.7,79.4,27.9,474.0,3315.0,8.0,1,
46700,1860.6,57.6,79.0,35.7,474.0,3315.0,8.0,1,
46800,1861.0,57.7,78.8,71.9,474.0,3315.0,8.0,1,
46900,1859.8,56.2,78.7,100.0,474.0,3315.0,8.0,1,
47000,1859.7,55.8,78.6,229.2,474.0,3315.0,8.0,1,
47100,1856.4,55.9,78.6,239.6,474.0,3315.0,8.0,1,
47200,1862.6,61.5,78.6,240.0,474.0,3315.0,8.0,1,
47300,1857.8,58.4,78.6,240.3,474.0,3315.0,8.0,1,
47400,1859.7,54.9,78.7,260.1,474.0,3315.0,8.0,1,
47600,1859.5,178.3,79.4,259.0,942.0,5213.0,8.0,1,
47700,1849.9,116.2,85.4,101.9,789.0,4795.0,6.0,1,
47800,1861.1,105.1,91.2,38.8,1478.0,9399.0,5.0,1,
47900,1865.5,115.9,99.0,30.1,1628.0,8442.0,4.0,1,
48000,1867.7,206.8,102.4,73.5,1455.0,7483.0,7.0,1,
48100,1833.6,54.1,107.7,94.6,1417.0,8241.0,6.0,1,
48200,1863.0,64.9,108.5,30.2,1164.0,5627.0,4.0,1,
48300,1866.5,57.1,108.7,29.3,1164.0,5627.0,4.0,1,
48400,1860.1,57.2,108.8,30.0,1164.0,5627.0,4.0,1,
48600,1857.5,54.8,108.7,238.1,1164.0,5627.0,4.0,1,
48700,1861.8,59.5,108.7,243.3,1164.0,5627.0,4.0,1,
48800,1862.9,57.1,108.7,239.8,1164.0,5627.0,4.0,1,
48900,1857.3,55.8,108.5,239.5,1164.0,5627.0,4.0,1,
49000,1859.5,56.2,108.5,239.8,1164.0,5627.0,4.0,1,
49100,1861.4,55.1,108.5,239.7,1164.0,5627.0,4.0,1,
49200,1858.8,117.0,108.4,239.1,724.0,4560.0,4.0,1,
49300,1854.1,98.7,105.8,104.2,1151.0,7512.0,6.0,1,
49400,1859.8,109.6,109.7,65.9,1236.0,7331.0,9.0,1,
49600,1833.5,125.8,112.6,66.9,1555.0,8524.0,7.0,1,
49700,1853.8,60.7,107.3,37.2,1366.0,6700.0,6.0,1,
49800,1855.0,68.6,107.2,28.2,1422.0,7095.0,7.0,1,
49900,1868.6,59.0,107.5,28.1,1422.0,7095.0,7.0,1,
50000,1862.0,60.1,107.4,30.1,1422.0,7095.0,7.0,1,
50100,1857.6,58.7,107.5,90.0,1422.0,7095.0,7.0,1,
50200,1860.0,58.3,107.4,186.9,1422.0,7095.0,7.0,1,
50300,1859.7,57.9,107.5,240.2,1422.0,7095.0,7.0,1,
50400,1857.7,64.0,107.5,240.3,1422.0,7095.0,7.0,1,
50600,1859.0,61.1,107.6,241.1,1422.0,7095.0,7.0,1,
50700,1860.4,55.9,107.7,242.6,1422.0,7095.0,7.0,1,
50800,1861.5,71.7,107.7,269.0,1422.0,7095.0,7.0,1,
50900,1872.2,96.3,107.0,239.8,767.0,4625.0,6.0,1,
51000,1860.5,120.0,107.8,65.5,904.0,5496.0,6.0,1,
51100,1828.9,112.4,104.0,35.2,1026.0,6057.0,8.0,1,
51200,1864.0,93.4,99.3,36.1,1381.0,7884.0,4.0,1,
51300,1853.5,97.1,100.4,37.0,1451.0,7750.0,7.0,1,
51400,1882.5,92.8,101.9,36.5,998.0,4987.0,7.0,1,
51600,1858.7,61.8,102.4,41.6,998.0,4987.0,7.0,1,
51700,1856.1,62.3,102.4,87.6,998.0,4987.0,7.0,1,
51800,1858.2,59.4,102.5,124.8,998.0,4987.0,7.0,1,
51900,1860.6,63.2,102.6,291.0,998.0,4987.0,7.0,1,
52000,1859.3,56.2,102.7,297.9,998.0,4987.0,7.0,1,
52100,1858.1,60.9,102.6,247.8,998.0,4987.0,7.0,1,
52200,1859.1,58.3,102.6,241.1,998.0,4987.0,7.0,1,
52300,1860.8,58.6,102.5,241.9,998.0,4987.0,7.0,1,
52400,1859.7,60.0,102.5,241.1,998.0,4987.0,7.0,1,
52600,1853.6,93.7,93.9,99.2,568.0,4115.0,5.0,1,
52700,1866.2,92.2,91.1,70.6,989.0,4654.0,8.0,1,
52800,1849.6,80.0,89.0,53.2,1128.0,5816.0,8.0,1,
52900,1879.6,148.4,89.2,30.2,1090.0,5871.0,7.0,1,
53000,1838.7,70.2,91.0,35.4,1564.0,8428.0,7.0,1,
53100,1865.2,63.4,91.0,30.1,1442.0,7127.0,7.0,1,
53200,1859.2,61.4,91.1,50.8,1442.0,7127.0,7.0,1,
53300,1858.8,60.9,91.1,92.3,1442.0,7127.0,7.0,1,
53400,1861.7,59.0,91.0,130.1,1442.0,7127.0,7.0,1,
53600,1859.1,55.6,90.6,251.9,1442.0,7127.0,7.0,1,
53700,1862.1,56.9,90.5,240.7,1442.0,7127.0,7.0,1,
53800,1859.9,56.0,90.4,244.0,1442.0,7127.0,7.0,1,
53900,1862.0,56.4,90.3,274.7,1442.0,7127.0,7.0,1,
54000,1858.4,53.8,90.3,276.1,1442.0,7127.0,7.0,1,
54100,1868.6,165.8,89.9,240.5,700.0,4130.0,8.0,1,
54200,1854.0,106.8,93.7,36.2,768.0,4380.0,6.0,1,
54300,1852.7,117.0,96.8,29.7,672.0,3771.0,9.0,1,
54400,1882.7,86.9,99.9,30.3,456.0,2989.0,8.0,1,
54600,1849.3,131.0,101.0,28.0,453.0,2965.0,8.0,1,
54700,1863.7,61.1,103.2,28.1,672.0,3614.0,7.0,1,
54800,1860.6,57.5,103.1,36.5,672.0,3614.0,7.0,1,
54900,1859.8,55.6,103.0,41.8,672.0,3614.0,7.0,1,
55000,1858.8,58.6,102.9,88.0,672.0,3614.0,7.0,1,
55100,1861.4,56.6,102.9,237.4,672.0,3614.0,7.0,1,
55200,1860.2,55.9,102.9,240.8,672.0,3614.0,7.0,1,
55300,1859.7,58.8,103.0,241.2,672.0,3614.0,7.0,1,
55400,1858.6,58.8,103.0,247.7,672.0,3614.0,7.0,1,
55600,1858.8,55.9,103.2,241.3,672.0,3614.0,7.0,1,
55700,1859.5,74.0,103.2,240.5,659.0,4188.0,8.0,1,
55800,1855.0,110.0,98.7,218.8,524.0,3566.0,7.0,1,
55900,1868.8,122.3,96.1,29.9,581.0,2988.0,9.0,1,
56000,1843.5,100.3,95.3,29.2,638.0,3805.0,8.0,1,
56100,1860.6,77.4,92.6,29.5,363.0,2480.0,8.0,1,
56200,1863.9,100.7,81.4,42.0,596.0,3787.0,8.0,1,
56300,1846.7,103.4,84.4,28.1,389.0,2846.0,9.0,1,
56400,1866.4,60.5,86.4,27.6,389.0,2846.0,9.0,1,
56600,1862.3,59.5,86.5,29.9,389.0,2846.0,9.0,1,
56700,1860.0,58.4,86.6,51.0,389.0,2846.0,9.0,1,
56800,1861.1,57.4,86.8,240.5,389.0,2846.0,9.0,1,
56900,1860.4,57.8,86.7,240.8,389.0,2846.0,9.0,1,
57000,1857.9,55.8,86.7,240.9,389.0,2846.0,9.0,1,
57100,1858.0,59.0,86.8,240.2,389.0,2846.0,9.0,1,
57200,1859.0,55.8,86.8,242.0,389.0,2846.0,9.0,1,
57300,1859.3,56.2,86.8,241.2,389.0,2846.0,9.0,1,
57400,1862.0,131.4,84.5,238.1,593.0,3449.0,7.0,1,
57600,1857.2,82.0,89.7,29.3,461.0,2549.0,9.0,1,
57700,1846.3,65.5,88.9,28.4,516.0,3498.0,7.0,1,
57800,1867.3,176.9,89.3,28.5,284.0,2115.0,9.0,1,
57900,1875.7,89.7,93.1,27.8,463.0,2802.0,9.0,1,
58000,1848.3,58.9,89.9,27.9,515.0,3406.0,9.0,1,
58100,1861.8,55.7,89.9,37.4,515.0,3406.0,9.0,1,
58200,1857.5,57.4,89.8,42.6,515.0,3406.0,9.0,1,
58300,1861.8,55.5,89.7,140.6,515.0,3406.0,9.0,1,
58400,1860.3,55.5,89.7,241.2,515.0,3406.0,9.0,1,
58600,1856.6,58.5,89.6,240.3,515.0,3406.0,9.0,1,
58700,1858.3,57.9,89.5,240.5,515.0,3406.0,9.0,1,
58800,1857.3,54.8,89.5,270.8,515.0,3406.0,9.0,1,
58900,1861.0,56.5,89.6,259.2,515.0,3406.0,9.0,1,
59000,1862.0,186.2,93.9,240.1,542.0,3469.0,9.0,1,
59100,1849.0,130.8,98.6,29.7,660.0,3507.0,8.0,1,
59200,1851.5,76.9,101.9,29.0,599.0,3650.0,9.0,1,
59300,1876.0,51.3,97.9,29.0,430.0,2694.0,9.0,1,
59400,1860.1,68.3,97.0,29.0,604.0,3790.0,7.0,1,
59600,1868.5,62.5,95.5,46.6,335.0,2447.0,9.0,1,
59700,1857.1,61.0,95.6,48.9,335.0,2447.0,9.0,1,
59800,1861.3,53.7,95.7,46.1,335.0,2447.0,9.0,1,
59900,1859.0,56.5,95.7,57.3,335.0,2447.0,9.0,1,
60000,1860.7,59.3,95.7,240.3,335.0,2447.0,9.0,1,
60100,1859.7,55.6,95.8,241.1,335.0,2447.0,9.0,1,
60200,1858.4,54.3,95.9,240.9,335.0,2447.0,9.0,1,
60300,1856.7,56.2,95.9,252.5,335.0,2447.0,9.0,1,
60400,1858.8,54.9,95.9,241.1,335.0,2447.0,9.0,1,
60600,1856.0,74.2,95.8,242.9,702.0,4171.0,10.0,1,
60700,1849.9,111.1,85.9,125.1,544.0,3305.0,9.0,1,
60800,1864.5,38.6,82.6,30.2,438.0,2614.0,8.0,1,
60900,1861.5,185.5,81.3,29.3,592.0,3613.0,9.0,1,
61000,1859.2,93.2,93.9,29.3,392.0,2667.0,8.0,1,
61100,1857.0,89.5,99.8,29.4,535.0,3645.0,9.0,1,
61200,1855.1,63.3,94.3,28.6,539.0,3123.0,9.0,1,
61300,1858.3,56.9,94.1,28.7,539.0,3123.0,9.0,1,
61400,1859.7,53.0,93.9,29.8,539.0,3123.0,9.0,1,
61600,1860.5,56.6,93.8,230.1,539.0,3123.0,9.0,1,
61700,1856.2,57.5,93.8,238.8,539.0,3123.0,9.0,1,
61800,1860.6,56.3,93.7,238.2,539.0,3123.0,9.0,1,
61900,1858.5,55.0,93.8,240.1,539.0,3123.0,9.0,1,
62000,1857.6,56.2,93.7,239.7,539.0,3123.0,9.0,1,
62100,1861.5,56.4,93.8,240.0,539.0,3123.0,9.0,1,
62200,1854.9,69.8,93.8,240.7,451.0,3509.0,11.0,1,
62300,1872.9,62.7,92.5,219.8,613.0,3228.0,7.0,1,
62400,1861.1,90.1,90.1,38.0,638.0,3725.0,8.0,1,
62600,1851.0,63.6,88.4,28.8,599.0,3611.0,8.0,1,
62700,1854.2,77.5,82.6,29.0,370.0,2598.0,8.0,1,
62800,1873.1,49.9,77.4,28.0,514.0,2883.0,8.0,1,
62900,1853.9,55.0,76.9,28.1,514.0,2883.0,8.0,1,
63000,1861.7,58.6,77.0,29.7,514.0,2883.0,8.0,1,
63100,1859.2,53.2,76.9,90.4,514.0,2883.0,8.0,1,
63200,1856.6,57.5,76.9,221.6,514.0,2883.0,8.0,1,
63300,1860.0,55.9,76.9,242.3,514.0,2883.0,8.0,1,
63400,1859.6,58.2,76.9,259.0,514.0,2883.0,8.0,1,
63600,1859.9,56.6,76.8,241.6,514.0,2883.0,8.0,1,
63700,1859.8,58.9,76.9,240.9,514.0,2883.0,8.0,1,
63800,1860.4,86.3,77.0,239.8,514.0,2883.0,8.0,1,
63900,1857.5,83.8,79.8,219.3,558.0,3935.0,10.0,1,
64000,1851.6,96.3,80.3,88.2,853.0,3880.0,8.0,1,
64100,1856.6,126.4,81.9,29.9,857.0,4864.0,8.0,1,
64200,1866.7,140.3,89.6,29.3,706.0,3857.0,8.0,1,
64300,1875.7,92.7,93.8,29.2,949.0,4637.0,7.0,1,
64400,1838.4,162.3,96.2,28.1,970.0,5125.0,8.0,1,
64600,1860.3,59.1,100.5,34.9,970.0,5125.0,8.0,1,
64700,1861.4,61.3,100.6,55.2,970.0,5125.0,8.0,1,
64800,1860.0,54.1,100.8,68.4,970.0,5125.0,8.0,1,
64900,1860.4,53.8,100.7,240.0,970.0,5125.0,8.0,1,
65000,1855.6,56.2,100.7,240.8,970.0,5125.0,8.0,1,
65100,1857.9,54.5,100.6,252.2,970.0,5125.0,8.0,1,
65200,1860.3,55.8,100.6,247.8,970.0,5125.0,8.0,1,
65300,1859.5,55.6,100.6,264.1,970.0,5125.0,8.0,1,
65400,1859.2,56.7,100.5,271.0,970.0,5125.0,8.0,1,
65600,1849.1,146.5,106.5,71.5,892.0,4804.0,9.0,1,
65700,1862.3,79.7,109.8,56.4,807.0,4131.0,8.0,1,
65800,1875.4,82.0,102.3,34.9,1236.0,5934.0,8.0,1,
65900,1848.3,131.3,105.1,34.9,1145.0,5287.0,7.0,1,
66000,1857.1,101.4,108.0,34.4,1389.0,7042.0,8.0,1,
66100,1858.2,59.3,104.7,29.5,1383.0,6743.0,7.0,1,
66200,1857.0,54.6,104.7,29.8,1383.0,6743.0,7.0,1,
66300,1858.5,55.3,104.7,38.1,1383.0,6743.0,7.0,1,
66400,1858.5,57.8,104.6,91.2,1383.0,6743.0,7.0,1,
66600,1858.4,57.8,104.6,241.0,1383.0,6743.0,7.0,1,
66700,1861.5,55.7,104.6,254.2,1383.0,6743.0,7.0,1,
66800,1858.4,53.4,104.7,262.0,1383.0,6743.0,7.0,1,
66900,1858.7,55.9,104.6,240.5,1383.0,6743.0,7.0,1,
67000,1857.8,55.0,104.6,240.3,1383.0,6743.0,7.0,1,
67100,1842.8,131.2,106.3,275.9,586.0,4579.0,7.0,1,
67200,1874.9,60.4,105.4,86.0,748.0,4123.0,9.0,1,
67300,1866.2,153.7,110.3,43.6,1152.0,5823.0,8.0,1,
67400,1843.9,103.4,112.4,36.7,1014.0,4926.0,7.0,1,
67600,1848.4,86.4,103.7,38.3,1110.0,4781.0,7.0,1,
67700,1875.2,62.4,100.4,38.1,1110.0,5117.0,7.0,1,
67800,1860.3,58.2,100.4,29.9,1110.0,5117.0,7.0,1,
67900,1859.6,56.2,100.4,36.8,1110.0,5117.0,7.0,1,
68000,1859.6,55.0,100.5,69.2,1110.0,5117.0,7.0,1,
68100,1858.5,55.0,100.6,206.8,1110.0,5117.0,7.0,1,
68200,1857.4,55.5,100.5,241.2,1110.0,5117.0,7.0,1,
68300,1858.8,52.7,100.5,241.1,1110.0,5117.0,7.0,1,
68400,1858.1,58.6,100.5,261.5,1110.0,5117.0,7.0,1,
68600,1857.8,57.0,100.6,241.5,1110.0,5117.0,7.0,1,
68700,1868.5,93.7,101.7,240.4,721.0,4311.0,5.0,1,
68800,1843.2,88.5,98.6,145.0,666.0,4633.0,6.0,1,
68900,1856.2,67.4,94.6,76.3,577.0,3695.0,8.0,1,
69000,1862.8,86.6,86.5,65.4,783.0,4698.0,8.0,1,
69100,1849.3,94.9,86.1,29.6,546.0,3284.0,9.0,1,
69200,1868.9,126.0,90.1,71.7,797.0,4353.0,8.0,1,
69300,1853.1,82.6,96.1,40.3,647.0,3960.0,8.0,1,
69400,1856.7,58.2,96.5,26.9,647.0,3960.0,8.0,1,
69600,1860.1,55.1,96.5,29.8,647.0,3960.0,8.0,1,
69700,1859.2,57.5,96.4,108.9,647.0,3960.0,8.0,1,
69800,1857.7,56.0,96.6,240.9,647.0,3960.0,8.0,1,
69900,1857.2,56.1,96.5,240.5,647.0,3960.0,8.0,1,
70000,1860.7,53.8,96.6,238.7,647.0,3960.0,8.0,1,
70100,1859.9,51.6,96.6,241.1,647.0,3960.0,8.0,1,
70200,1857.9,55.5,96.5,272.7,647.0,3960.0,8.0,1,
70300,1861.7,84.4,96.5,248.6,647.0,3960.0,8.0,1,
70400,1860.4,86.9,97.0,166.1,776.0,4518.0,8.0,1,
70600,1841.7,59.0,95.9,36.2,431.0,2793.0,8.0,1,
70700,1873.6,69.2,92.4,36.6,648.0,3942.0,8.0,1,
70800,1854.9,82.6,92.6,29.3,507.0,3280.0,11.0,1,
70900,1847.1,75.6,82.6,29.4,568.0,3505.0,9.0,1,
71000,1871.7,59.6,82.1,28.1,568.0,3505.0,9.0,1,
71100,1859.8,53.5,82.1,27.5,568.0,3505.0,9.0,1,
71200,1861.6,54.9,82.0,27.9,568.0,3505.0,9.0,1,
71300,1858.5,54.1,81.9,90.6,568.0,3505.0,9.0,1,
71400,1858.2,52.9,81.8,240.3,568.0,3505.0,9.0,1,
71600,1857.5,51.1,81.5,275.8,568.0,3505.0,9.0,1,
71700,1857.7,55.4,81.4,240.4,568.0,3505.0,9.0,1,
71800,1858.7,53.8,81.4,236.2,568.0,3505.0,9.0,1,
71900,1861.4,54.8,81.4,239.3,568.0,3505.0,9.0,1,
72000,1836.6,159.1,84.6,219.4,888.0,6098.0,10.0,1,
72100,1879.0,112.9,93.3,73.0,1083.0,5194.0,8.0,1,
72200,1879.4,66.9,92.8,42.4,1338.0,6364.0,8.0,1,
72300,1838.7,110.3,100.4,34.7,942.0,4502.0,6.0,1,
72400,1857.3,75.6,100.4,37.8,1198.0,6119.0,7.0,1,
72600,1865.0,59.7,102.7,35.7,906.0,4346.0,7.0,1,
72700,1860.6,54.5,102.6,38.9,906.0,4346.0,7.0,1,
72800,1859.6,52.6,102.7,45.3,906.0,4346.0,7.0,1,
72900,1858.2,55.7,102.8,77.5,906.0,4346.0,7.0,1,
73000,1859.8,59.3,102.8,239.3,906.0,4346.0,7.0,1,
73100,1857.8,53.9,103.0,241.4,906.0,4346.0,7.0,1,
73200,1858.8,59.4,103.1,264.1,906.0,4346.0,7.0,1,
73300,1859.0,54.9,103.2,243.1,906.0,4346.0,7.0,1,
73400,1861.8,51.7,103.2,240.9,906.0,4346.0,7.0,1,
73600,1868.6,69.0,102.0,240.3,765.0,5061.0,8.0,1,
73700,1847.8,78.5,91.1,122.2,881.0,5086.0,9.0,1,
73800,1857.3,95.6,96.9,92.0,892.0,4572.0,8.0,1,
73900,1864.9,81.5,104.0,66.1,1151.0,5826.0,7.0,1,
74000,1848.4,114.2,99.3,29.7,816.0,4075.0,8.0,1,
74100,1871.4,156.4,95.4,30.0,1051.0,4966.0,7.0,1,
74200,1854.2,70.7,101.8,29.3,972.0,5376.0,7.0,1,
74300,1857.6,59.3,101.8,29.4,972.0,5376.0,7.0,1,
74400,1859.5,56.6,101.9,40.7,972.0,5376.0,7.0,1,
74600,1860.5,53.1,101.8,218.5,972.0,5376.0,7.0,1,
74700,1859.8,54.7,101.7,241.1,972.0,5376.0,7.0,1,
74800,1861.2,54.3,101.5,262.6,972.0,5376.0,7.0,1,
74900,1861.6,52.6,101.4,298.0,972.0,5376.0,7.0,1,
75000,1858.7,53.5,101.5,299.0,972.0,5376.0,7.0,1,
75100,1862.7,57.8,101.5,298.1,972.0,5376.0,7.0,1,
75200,1863.5,82.0,100.6,242.9,863.0,5261.0,10.0,1,
75300,1848.8,63.3,102.0,136.8,830.0,4542.0,9.0,1,
75400,1852.3,77.8,97.3,38.9,1268.0,6045.0,8.0,1,
75600,1885.2,69.9,96.2,35.1,1200.0,6161.0,7.0,1,
75700,1850.4,121.5,95.9,29.6,953.0,5436.0,9.0,1,
75800,1848.2,101.9,102.0,28.9,1165.0,5534.0,6.0,1,
75900,1866.9,56.1,101.8,27.5,1165.0,5534.0,6.0,1,
76000,1859.2,51.7,101.7,27.7,1165.0,5534.0,6.0,1,
76100,1858.0,49.0,101.5,35.6,1165.0,5534.0,6.0,1,
76200,1859.6,47.7,101.4,46.6,1165.0,5534.0,6.0,1,
76300,1858.4,50.5,101.1,240.3,1165.0,5534.0,6.0,1,
76400,1860.9,46.8,101.0,241.1,1165.0,5534.0,6.0,1,
76600,1861.4,51.5,101.2,239.5,1165.0,5534.0,6.0,1,
76700,1854.3,44.2,101.1,113.4,1165.0,5534.0,6.0,1,
76800,1859.3,67.6,100.7,86.1,790.0,4535.0,8.0,1,
76900,1857.3,102.4,98.6,88.6,700.0,4453.0,8.0,1,
77000,1848.8,86.4,110.2,81.0,498.0,3219.0,8.0,1,
77100,1881.2,73.9,109.6,29.9,716.0,4343.0,9.0,1,
77200,1842.2,83.3,102.3,29.1,504.0,3437.0,9.0,1,
77300,1861.0,42.2,102.1,28.3,625.0,3381.0,8.0,1,
77400,1868.8,72.0,100.4,29.1,611.0,3847.0,9.0,1,
77600,1860.5,48.9,90.3,27.6,611.0,3847.0,9.0,1,
77700,1860.8,51.5,90.3,28.2,611.0,3847.0,9.0,1,
77800,1859.8,51.9,90.3,69.1,611.0,3847.0,9.0,1,
77900,1857.5,50.8,90.4,240.4,611.0,3847.0,9.0,1,
78000,1858.3,49.0,90.4,240.9,611.0,3847.0,9.0,1,
78100,1861.7,50.9,90.4,262.4,611.0,3847.0,9.0,1,
78200,1857.3,49.1,89.9,271.6,611.0,3847.0,9.0,1,
78300,1859.4,54.0,89.9,275.0,611.0,3847.0,9.0,1,
78400,1860.6,55.5,90.2,298.2,611.0,3847.0,9.0,1,
78600,1863.1,71.9,76.1,70.0,782.0,4656.0,9.0,1,
78700,1854.7,90.2,85.1,66.9,539.0,3288.0,8.0,1,
78800,1866.4,48.0,83.7,36.5,670.0,3807.0,8.0,1,
78900,1850.9,78.3,83.5,29.4,545.0,3644.0,11.0,1,
79000,1852.1,65.4,82.5,29.6,482.0,3099.0,8.0,1,
79100,1869.5,53.1,81.6,29.5,560.0,3409.0,7.0,1,
79200,1859.2,53.2,81.7,29.5,560.0,3409.0,7.0,1,
79300,1858.6,51.3,81.8,35.6,560.0,3409.0,7.0,1,
79400,1857.8,49.5,81.8,88.9,560.0,3409.0,7.0,1,
79600,1860.7,50.2,81.7,260.9,560.0,3409.0,7.0,1,
79700,1856.8,49.2,82.0,240.9,560.0,3409.0,7.0,1,
79800,1860.0,52.8,82.0,239.6,560.0,3409.0,7.0,1,
79900,1860.2,51.3,82.0,239.9,560.0,3409.0,7.0,1,
80000,1859.4,52.7,82.0,246.4,560.0,3409.0,7.0,1,
80100,1863.8,92.1,81.5,239.5,852.0,4941.0,6.0,1,
80200,1852.9,97.4,92.8,83.1,500.0,3559.0,9.0,1,
80300,1850.8,88.0,87.1,43.4,745.0,4634.0,9.0,1,
80400,1849.3,124.8,88.9,29.8,565.0,3379.0,8.0,1,
80600,1876.1,56.9,91.7,28.7,704.0,4335.0,9.0,1,
80700,1844.9,68.1,93.3,28.9,518.0,3241.0,8.0,1,
80800,1860.4,59.9,93.7,28.4,518.0,3241.0,8.0,1,
80900,1859.1,55.5,93.9,29.9,518.0,3241.0,8.0,1,
81000,1859.3,57.6,94.1,43.4,518.0,3241.0,8.0,1,
81100,1857.8,55.1,94.3,232.4,518.0,3241.0,8.0,1,
81200,1855.8,51.9,94.6,240.9,518.0,3241.0,8.0,1,
81300,1862.2,50.8,94.6,240.9,518.0,3241.0,8.0,1,
81400,1860.8,53.1,94.6,242.6,518.0,3241.0,8.0,1,
81600,1858.3,61.7,94.9,246.4,518.0,3241.0,8.0,1,
81700,1858.3,66.9,91.8,240.7,466.0,3549.0,7.0,1,
81800,1849.6,123.4,82.1,114.9,846.0,4859.0,8.0,1,
81900,1854.3,116.6,88.4,66.4,504.0,3472.0,8.0,1,
82000,1880.2,90.7,93.7,36.2,670.0,3713.0,8.0,1,
82100,1851.9,125.0,95.8,29.2,652.0,4097.0,8.0,1,
82200,1852.5,57.4,97.7,29.5,370.0,2869.0,9.0,1,
82300,1865.1,65.3,97.1,29.3,686.0,4346.0,8.0,1,
82400,1862.0,58.1,97.0,28.3,686.0,4346.0,8.0,1,
82600,1859.7,57.9,97.3,89.6,686.0,4346.0,8.0,1,
82700,1860.0,57.9,97.3,194.5,686.0,4346.0,8.0,1,
82800,1858.5,60.3,97.6,240.4,686.0,4346.0,8.0,1,
82900,1858.6,64.0,97.9,240.9,686.0,4346.0,8.0,1,
83000,1861.4,58.4,98.3,244.2,686.0,4346.0,8.0,1,
83100,1857.2,59.7,98.5,281.3,686.0,4346.0,8.0,1,
83200,1860.1,59.2,98.6,263.3,686.0,4346.0,8.0,1,
83300,1857.7,71.4,98.8,241.0,712.0,4558.0,8.0,1,
83400,1848.2,127.9,102.1,218.6,422.0,3237.0,9.0,1,
83600,1853.0,95.4,94.6,28.8,527.0,3578.0,8.0,1,
83700,1858.8,78.4,95.2,28.1,492.0,2909.0,8.0,1,
83800,1857.0,100.5,96.0,28.4,670.0,4070.0,9.0,1,
83900,1847.7,77.7,97.4,28.6,400.0,2821.0,7.0,1,
84000,1867.1,61.7,97.1,38.0,400.0,2821.0,7.0,1,
84100,1857.3,59.9,97.1,38.7,400.0,2821.0,7.0,1,
84200,1859.6,56.6,97.0,35.9,400.0,2821.0,7.0,1,
84300,1860.3,61.6,97.0,110.8,400.0,2821.0,7.0,1,
84400,1860.4,60.2,97.0,248.2,400.0,2821.0,7.0,1,
84600,1859.2,54.2,96.7,270.8,400.0,2821.0,7.0,1,
84700,1858.1,52.8,96.6,265.9,400.0,2821.0,7.0,1,
84800,1860.5,52.4,96.3,241.1,400.0,2821.0,7.0,1,
84900,1861.0,112.5,96.0,240.9,400.0,2821.0,7.0,1,
85000,1862.0,192.8,97.9,170.3,820.0,5114.0,9.0,1,
85100,1853.6,100.3,100.4,55.7,603.0,4059.0,8.0,1,
85200,1856.5,62.6,97.2,39.5,695.0,3969.0,8.0,1,
85300,1848.7,67.6,96.3,29.6,576.0,3657.0,8.0,1,
85400,1848.5,60.6,91.5,28.7,412.0,2658.0,8.0,1,
85600,1848.7,50.9,85.2,28.6,585.0,3713.0,8.0,1,
85700,1859.0,47.1,84.5,28.2,585.0,3713.0,8.0,1,
85800,1858.4,45.6,83.9,66.9,585.0,3713.0,8.0,1,
85900,1858.3,47.2,83.3,139.2,585.0,3713.0,8.0,1,
86000,1858.0,44.4,82.7,273.1,585.0,3713.0,8.0,1,
86100,1858.9,45.3,81.9,263.4,585.0,3713.0,8.0,1,
86200,1859.4,46.4,81.4,244.7,585.0,3713.0,8.0,1,
86300,1859.5,46.4,81.0,250.7,585.0,3713.0,8.0,1,
86400,1861.2,45.2,80.6,278.3,585.0,3713.0,8.0,1,
86600,1864.9,155.6,76.1,240.9,561.0,4049.0,7.0,1,
86700,1850.4,152.0,72.5,35.8,724.0,4330.0,8.0,1,
86800,1846.0,142.9,89.9,29.6,587.0,3716.0,9.0,1,
86900,1873.1,56.2,97.4,30.1,560.0,3035.0,8.0,1,
87000,1871.8,185.2,99.2,37.3,663.0,3896.0,8.0,1,
87100,1844.4,110.5,104.3,37.3,429.0,2787.0,9.0,1,
87200,1867.1,49.5,105.5,34.6,390.0,2799.0,9.0,1,
87300,1860.2,48.9,105.3,35.4,390.0,2799.0,9.0,1,
87400,1858.7,46.0,105.4,43.1,390.0,2799.0,9.0,1,
87600,1861.0,45.3,105.4,239.4,390.0,2799.0,9.0,1,
87700,1858.9,46.7,105.4,242.3,390.0,2799.0,9.0,1,
87800,1858.9,48.0,105.4,242.1,390.0,2799.0,9.0,1,
87900,1860.7,47.2,105.4,241.1,390.0,2799.0,9.0,1,
88000,1862.6,48.3,105.4,239.7,390.0,2799.0,9.0,1,
88100,1860.3,45.7,105.4,238.4,390.0,2799.0,9.0,1,
88200,1854.5,72.9,105.5,212.3,764.0,4663.0,8.0,1,
88300,1851.8,84.5,102.4,115.4,560.0,3903.0,8.0,1,
88400,1879.6,182.9,97.4,69.8,654.0,3457.0,9.0,1,
88600,1860.2,61.5,100.5,27.3,389.0,2845.0,9.0,1,
88700,1860.7,111.2,100.5,28.7,630.0,3943.0,8.0,1,
88800,1854.9,66.0,102.3,28.7,474.0,2946.0,10.0,1,
88900,1861.7,61.1,102.6,27.9,474.0,2946.0,10.0,1,
89000,1862.6,63.8,103.3,29.4,474.0,2946.0,10.0,1,
89100,1859.6,60.4,103.8,37.5,474.0,2946.0,10.0,1,
89200,1855.1,65.6,104.5,240.4,474.0,2946.0,10.0,1,
89300,1859.4,56.8,105.2,298.3,474.0,2946.0,10.0,1,
89400,1858.6,58.2,105.6,299.1,474.0,2946.0,10.0,1,
89600,1857.4,57.4,106.6,300.0,474.0,2946.0,10.0,1,
89700,1859.7,58.3,107.0,299.3,474.0,2946.0,10.0,1,
89800,1863.9,121.6,107.5,300.9,414.0,3255.0,8.0,1,
89900,1865.7,145.7,108.9,143.9,801.0,4201.0,9.0,1,
90000,1861.0,93.2,102.5,36.3,630.0,4156.0,9.0,1,
90100,1853.1,63.3,103.4,35.1,458.0,2772.0,9.0,1,
90200,1853.1,73.0,99.5,28.1,671.0,4043.0,9.0,1,
90300,1848.8,86.0,92.6,35.8,375.0,2275.0,10.0,1,
90400,1888.0,60.7,90.5,36.1,653.0,3929.0,8.0,1,
90600,1859.3,62.2,90.6,28.9,653.0,3929.0,8.0,1,
90700,1860.3,64.3,90.7,57.2,653.0,3929.0,8.0,1,
90800,1859.6,66.6,90.8,175.4,653.0,3929.0,8.0,1,
90900,1859.5,68.4,91.1,293.9,653.0,3929.0,8.0,1,
91000,1848.1,65.0,91.7,281.4,653.0,3929.0,8.0,1,
91100,1850.4,63.4,92.1,259.6,653.0,3929.0,8.0,1,
91200,1861.3,60.7,92.2,242.7,653.0,3929.0,8.0,1,
91300,1860.0,61.6,92.3,241.2,653.0,3929.0,8.0,1,
91400,1859.0,55.2,92.2,242.6,653.0,3929.0,8.0,1,
91600,1851.9,77.4,95.0,29.9,620.0,3435.0,9.0,1,
91700,1859.6,118.7,97.3,28.9,666.0,4147.0,10.0,1,
91800,1854.4,70.4,103.9,29.2,439.0,2468.0,10.0,1,
91900,1872.8,64.9,102.2,39.5,653.0,3920.0,10.0,1,
92000,1847.0,88.9,101.8,38.7,525.0,3365.0,11.0,1,
92100,1858.6,61.7,102.3,27.9,438.0,2735.0,9.0,1,
92200,1859.8,58.2,102.2,28.9,438.0,2735.0,9.0,1,
92300,1858.5,56.8,102.1,29.7,438.0,2735.0,9.0,1,
92400,1857.3,58.8,101.6,43.9,438.0,2735.0,9.0,1,
92600,1857.0,56.0,100.7,241.1,438.0,2735.0,9.0,1,
92700,1856.9,56.6,100.2,259.0,438.0,2735.0,9.0,1,
92800,1859.7,55.8,100.0,246.6,438.0,2735.0,9.0,1,
92900,1858.2,59.4,99.7,240.1,438.0,2735.0,9.0,1,
93000,1857.4,59.7,99.8,240.0,438.0,2735.0,9.0,1,
93100,1854.1,71.2,98.5,241.2,850.0,4713.0,6.0,1,
93200,1850.8,86.6,93.1,93.4,594.0,3970.0,9.0,1,
93300,1865.3,118.2,83.7,67.0,450.0,2973.0,8.0,1,
93400,1863.4,65.5,79.1,36.5,621.0,4039.0,8.0,1,
93600,1859.1,47.7,80.0,29.8,548.0,3675.0,9.0,1,
93700,1855.8,58.3,78.9,28.2,615.0,4093.0,9.0,1,
93800,1856.7,54.7,78.9,29.2,615.0,4093.0,9.0,1,
93900,1859.2,55.5,78.8,68.1,615.0,4093.0,9.0,1,
94000,1860.1,58.1,78.8,117.7,615.0,4093.0,9.0,1,
94100,1858.5,56.5,78.8,240.3,615.0,4093.0,9.0,1,
94200,1859.8,58.0,78.6,241.6,615.0,4093.0,9.0,1,
94300,1862.1,56.1,78.7,240.7,615.0,4093.0,9.0,1,
94400,1856.8,55.2,78.7,240.5,615.0,4093.0,9.0,1,
94600,1858.8,61.2,78.6,250.9,615.0,4093.0,9.0,1,
94700,1853.5,106.6,79.6,262.7,635.0,3830.0,7.0,1,
94800,1857.1,124.9,79.2,78.8,689.0,3800.0,9.0,1,
94900,1873.5,92.1,82.2,29.3,952.0,5189.0,8.0,1,
95000,1855.7,89.3,82.5,29.5,596.0,3243.0,9.0,1,
95100,1844.7,92.9,82.1,44.5,867.0,4635.0,7.0,1,
95200,1848.0,65.9,84.4,36.7,604.0,3726.0,10.0,1,
95300,1881.3,61.8,84.5,35.4,574.0,3090.0,9.0,1,
95400,1859.5,58.6,84.5,79.4,574.0,3090.0,9.0,1,
95600,1857.4,55.7,84.7,57.0,574.0,3090.0,9.0,1,
95700,1861.0,62.1,84.6,176.9,574.0,3090.0,9.0,1,
95800,1861.8,59.3,84.8,240.6,574.0,3090.0,9.0,1,
95900,1861.4,63.1,84.9,241.7,574.0,3090.0,9.0,1,
96000,1861.3,59.2,84.9,251.4,574.0,3090.0,9.0,1,
96100,1858.7,59.1,85.1,271.6,574.0,3090.0,9.0,1,
96200,1857.3,60.3,85.3,293.8,574.0,3090.0,9.0,1,
96300,1864.4,82.7,86.0,260.3,703.0,3825.0,6.0,1,
96400,1857.3,152.8,84.4,145.7,631.0,4168.0,10.0,1,
96600,1863.1,70.3,84.3,29.8,936.0,5269.0,8.0,1,
96700,1850.5,90.1,85.3,29.4,611.0,3407.0,8.0,1,
96800,1876.2,118.6,82.9,29.4,961.0,4475.0,8.0,1,
96900,1844.5,73.2,87.1,29.0,896.0,5286.0,9.0,1,
97000,1858.4,63.5,87.9,34.8,896.0,5286.0,9.0,1,
97100,1858.2,65.6,88.3,89.4,896.0,5286.0,9.0,1,
97200,1862.2,64.0,88.6,89.0,896.0,5286.0,9.0,1,
97300,1856.9,66.7,89.0,158.2,896.0,5286.0,9.0,1,
97400,1859.3,63.7,89.4,240.6,896.0,5286.0,9.0,1,
97600,1857.2,68.1,90.1,248.4,896.0,5286.0,9.0,1,
97700,1855.1,64.4,90.4,241.2,896.0,5286.0,9.0,1,
97800,1859.3,62.3,90.6,240.7,896.0,5286.0,9.0,1,
97900,1862.9,119.3,90.6,240.6,896.0,5286.0,9.0,1,
98000,1864.5,64.3,90.4,178.5,676.0,3732.0,5.0,1,
98100,1864.0,92.3,86.3,38.7,828.0,4944.0,9.0,1,
98200,1846.2,111.8,89.2,36.3,597.0,3070.0,8.0,1,
98300,1877.5,122.7,90.3,29.5,980.0,4883.0,8.0,1,
98400,1854.6,117.3,94.4,28.9,905.0,5205.0,8.0,1,
98600,1862.6,66.3,93.3,29.0,1125.0,5495.0,7.0,1,
98700,1857.0,70.4,93.6,29.8,1125.0,5495.0,7.0,1,
98800,1859.7,70.7,93.9,80.3,1125.0,5495.0,7.0,1,
98900,1857.2,70.0,94.2,131.4,1125.0,5495.0,7.0,1,
99000,1855.5,68.9,94.2,241.3,1125.0,5495.0,7.0,1,
99100,1860.2,66.2,94.3,242.2,1125.0,5495.0,7.0,1,
99200,1858.0,65.8,94.2,245.5,1125.0,5495.0,7.0,1,
99300,1860.0,65.9,94.0,241.9,1125.0,5495.0,7.0,1,
99400,1860.7,61.7,94.1,243.5,1125.0,5495.0,7.0,1,
99600,1850.9,137.5,94.7,246.4,478.0,3738.0,6.0,1,
99700,1850.2,180.9,99.5,66.6,495.0,3027.0,9.0,1,
99800,1880.5,89.1,105.1,29.7,894.0,4769.0,8.0,1,
99900,1843.5,128.3,106.7,29.3,670.0,4256.0,8.0,1,
100000,1851.8,63.9,104.3,29.2,1145.0,5797.0,8.0,1,
100100,1855.3,87.6,103.7,29.4,824.0,4794.0,8.0,1,
100200,1864.2,68.6,103.2,29.7,632.0,4047.0,10.0,1,
100300,1861.8,66.2,103.2,40.5,632.0,4047.0,10.0,1,
100400,1856.2,66.0,103.1,38.8,632.0,4047.0,10.0,1,
100600,1855.9,65.1,103.0,241.8,632.0,4047.0,10.0,1,
100700,1859.6,67.4,102.9,244.1,632.0,4047.0,10.0,1,
100800,1857.0,71.6,103.0,269.7,632.0,4047.0,10.0,1,
100900,1860.8,55.0,103.2,298.3,632.0,4047.0,10.0,1,
101000,1857.6,52.9,102.7,281.5,632.0,4047.0,10.0,1,
101100,1862.8,54.6,102.2,245.2,632.0,4047.0,10.0,1,
101200,1868.6,79.7,101.7,239.5,664.0,4133.0,5.0,1,
101300,1862.0,77.4,95.9,65.7,929.0,5468.0,8.0,1,
101400,1841.3,78.0,89.9,52.0,891.0,4552.0,8.0,1,
101600,1850.9,122.2,84.1,66.4,916.0,5001.0,7.0,1,
101700,1874.8,58.5,86.8,66.2,1141.0,4888.0,6.0,1,
101800,1861.0,55.5,84.8,29.3,1232.0,6130.0,7.0,1,
101900,1856.7,52.6,84.2,29.2,1232.0,6130.0,7.0,1,
102000,1855.6,60.3,83.5,30.1,1232.0,6130.0,7.0,1,
102100,1859.9,57.1,83.0,103.4,1232.0,6130.0,7.0,1,
102200,1860.2,55.3,82.2,245.7,1232.0,6130.0,7.0,1,
102300,1857.8,56.0,81.5,241.9,1232.0,6130.0,7.0,1,
102400,1856.9,53.6,80.8,241.4,1232.0,6130.0,7.0,1,
102600,1861.0,52.4,79.7,250.0,1232.0,6130.0,7.0,1,
102700,1858.9,55.2,79.7,242.9,1232.0,6130.0,7.0,1,
102800,1872.2,199.5,79.5,259.9,1039.0,6225.0,8.0,1,
102900,1839.2,100.3,91.7,88.0,909.0,4837.0,9.0,1,
103000,1863.0,79.3,91.0,44.5,1336.0,6571.0,7.0,1,
103100,1843.6,104.6,92.0,30.1,973.0,4570.0,6.0,1,
103200,1883.7,176.9,93.5,65.6,1292.0,5647.0,7.0,1,
103300,1851.7,79.9,96.8,36.5,1196.0,5949.0,7.0,1,
103400,1848.4,105.8,105.8,28.2,1035.0,4751.0,6.0,1,
103600,1857.2,61.4,106.3,29.0,1035.0,4751.0,6.0,1,
103700,1856.5,57.3,106.4,29.4,1035.0,4751.0,6.0,1,
103800,1859.2,56.5,106.5,42.5,1035.0,4751.0,6.0,1,
103900,1860.2,56.0,106.7,241.1,1035.0,4751.0,6.0,1,
104000,1857.1,58.3,106.8,284.2,1035.0,4751.0,6.0,1,
104100,1859.4,59.9,107.0,299.3,1035.0,4751.0,6.0,1,
104200,1860.9,56.8,107.1,298.3,1035.0,4751.0,6.0,1,
104300,1858.5,57.3,107.3,252.8,1035.0,4751.0,6.0,1,
104400,1859.7,134.6,107.4,240.3,1035.0,4751.0,6.0,1,
104600,1859.0,105.8,105.9,65.9,867.0,4614.0,8.0,1,
104700,1893.7,71.8,107.1,67.8,1442.0,7977.0,4.0,1,
104800,1825.6,81.8,105.4,73.3,1207.0,6440.0,6.0,1,
104900,1857.3,99.5,97.8,73.6,1173.0,5682.0,4.0,1,
105000,1866.4,61.7,98.1,37.8,1032.0,5704.0,7.0,1,
105100,1856.4,58.3,90.6,28.1,1032.0,5704.0,7.0,1,
105200,1859.0,64.1,90.5,29.4,1032.0,5704.0,7.0,1,
105300,1857.6,61.2,90.4,52.1,1032.0,5704.0,7.0,1,
105400,1859.8,58.0,90.4,188.5,1032.0,5704.0,7.0,1,
105600,1862.0,58.1,90.5,240.8,1032.0,5704.0,7.0,1,
105700,1861.0,60.4,90.5,240.4,1032.0,5704.0,7.0,1,
105800,1861.7,56.4,90.4,240.0,1032.0,5704.0,7.0,1,
105900,1860.1,58.1,90.5,241.0,1032.0,5704.0,7.0,1,
106000,1859.4,98.1,90.6,269.2,1032.0,5704.0,7.0,1,
106100,1867.7,141.1,97.5,186.3,844.0,4536.0,4.0,1,
106200,1873.4,234.7,104.2,27.3,1163.0,6817.0,8.0,1,
106300,1825.9,162.6,109.5,27.3,1110.0,5629.0,4.0,1,
106400,1867.6,58.4,113.5,29.4,1301.0,6562.0,7.0,1,
106600,1858.6,71.0,115.4,39.4,1071.0,5322.0,7.0,1,
106700,1857.4,59.8,115.3,35.0,1257.0,6357.0,7.0,1,
106800,1857.8,57.5,115.2,34.7,1257.0,6357.0,7.0,1,
106900,1857.2,58.8,115.1,65.9,1257.0,6357.0,7.0,1,
107000,1858.8,56.0,115.1,131.6,1257.0,6357.0,7.0,1,
107100,1859.0,56.6,115.0,245.2,1257.0,6357.0,7.0,1,
107200,1858.0,55.7,115.0,265.4,1257.0,6357.0,7.0,1,
107300,1862.2,55.8,115.0,260.7,1257.0,6357.0,7.0,1,
107400,1859.0,59.1,114.9,241.0,1257.0,6357.0,7.0,1,
107600,1859.3,56.2,114.8,240.0,1257.0,6357.0,7.0,1,
107700,1874.6,187.2,111.2,238.2,1489.0,9022.0,5.0,1,
107800,1825.5,123.8,115.8,91.3,1309.0,7193.0,4.0,1,
107900,1863.7,107.0,109.6,70.6,2022.0,10318.0,3.0,1,
108000,1853.5,116.2,105.5,65.9,1564.0,7099.0,3.0,1,
108100,1895.3,149.8,109.3,41.8,1927.0,8839.0,4.0,1,
108200,1836.0,47.0,109.1,35.5,1566.0,8070.0,6.0,1,
108300,1854.9,59.5,108.8,28.7,1230.0,6224.0,6.0,1,
108400,1858.0,60.3,108.9,28.9,1230.0,6224.0,6.0,1,
108600,1862.3,55.5,109.1,93.8,1230.0,6224.0,6.0,1,
108700,1859.6,59.3,109.1,241.1,1230.0,6224.0,6.0,1,
108800,1857.0,55.0,109.2,241.0,1230.0,6224.0,6.0,1,
108900,1860.7,54.9,109.1,241.8,1230.0,6224.0,6.0,1,
109000,1859.3,57.3,109.1,245.2,1230.0,6224.0,6.0,1,
109100,1857.5,59.7,109.2,247.7,1230.0,6224.0,6.0,1,
109200,1859.1,63.0,109.3,264.1,1230.0,6224.0,6.0,1,
109300,1861.2,195.6,108.3,239.2,904.0,5738.0,6.0,1,
109400,1845.9,141.5,106.7,41.0,1300.0,7899.0,4.0,1,
109600,1894.0,51.7,113.7,37.0,1282.0,6171.0,4.0,1,
109700,1839.0,88.6,111.3,38.9,1110.0,6346.0,7.0,1,
109800,1855.5,126.8,108.7,44.6,915.0,4844.0,7.0,1,
109900,1865.7,61.0,111.7,48.8,1190.0,6588.0,7.0,1,
110000,1865.0,60.9,111.7,46.6,1190.0,6588.0,7.0,1,
110100,1858.7,58.3,111.7,66.2,1190.0,6588.0,7.0,1,
110200,1859.1,57.7,111.7,91.9,1190.0,6588.0,7.0,1,
110300,1857.8,56.5,111.8,239.1,1190.0,6588.0,7.0,1,
110400,1859.1,59.9,111.7,241.1,1190.0,6588.0,7.0,1,
110600,1858.8,58.0,111.9,245.8,1190.0,6588.0,7.0,1,
110700,1858.7,61.5,111.9,245.5,1190.0,6588.0,7.0,1,
110800,1857.9,59.7,111.9,261.3,1190.0,6588.0,7.0,1,
110900,1858.9,99.8,111.9,249.7,1185.0,6942.0,7.0,1,
111000,1856.0,125.9,108.4,130.9,862.0,5002.0,6.0,1,
111100,1878.4,56.9,103.1,67.9,1156.0,6430.0,4.0,1,
111200,1836.3,81.5,94.6,37.3,1087.0,6294.0,8.0,1,
111300,1861.7,91.0,102.1,34.9,1129.0,5475.0,4.0,1,
111400,1854.9,92.4,102.7,29.9,1079.0,6603.0,5.0,1,
111600,1860.5,59.5,107.4,28.2,1079.0,6603.0,5.0,1,
111700,1859.1,56.7,107.3,30.2,1079.0,6603.0,5.0,1,
111800,1858.7,58.8,107.4,38.5,1079.0,6603.0,5.0,1,
111900,1857.9,62.3,107.3,43.4,1079.0,6603.0,5.0,1,
112000,1858.4,52.4,107.2,241.1,1079.0,6603.0,5.0,1,
112100,1859.5,58.5,107.2,271.0,1079.0,6603.0,5.0,1,
112200,1859.2,55.2,107.2,241.5,1079.0,6603.0,5.0,1,
112300,1857.2,59.9,107.2,244.0,1079.0,6603.0,5.0,1,
112400,1859.8,56.9,107.1,241.0,1079.0,6603.0,5.0,1,
112600,1869.4,199.2,101.3,218.6,929.0,5604.0,5.0,1,
112700,1846.7,126.2,109.1,67.0,1040.0,6045.0,8.0,1,
112800,1858.2,99.5,115.5,39.4,1101.0,5929.0,8.0,1,
112900,1857.2,121.3,114.0,29.1,998.0,5878.0,7.0,1,
113000,1862.3,95.5,113.1,29.1,826.0,4295.0,7.0,1,
113100,1880.1,113.1,114.8,29.3,1051.0,6306.0,4.0,1,
113200,1842.3,62.1,109.5,29.2,979.0,6038.0,7.0,1,
113300,1859.6,62.4,109.7,38.6,979.0,6038.0,7.0,1,
113400,1861.0,60.8,109.6,87.4,979.0,6038.0,7.0,1,
113600,1858.2,58.1,109.7,240.7,979.0,6038.0,7.0,1,
113700,1859.2,58.3,109.7,248.5,979.0,6038.0,7.0,1,
113800,1862.5,58.1,109.6,299.0,979.0,6038.0,7.0,1,
113900,1857.8,53.3,109.6,298.4,979.0,6038.0,7.0,1,
114000,1858.6,57.9,109.5,246.3,979.0,6038.0,7.0,1,
114100,1860.4,55.0,109.4,239.9,979.0,6038.0,7.0,1,
114200,1858.3,118.2,110.8,232.0,849.0,5465.0,5.0,1,
114300,1854.2,77.7,102.8,75.0,1133.0,6038.0,8.0,1,
114400,1847.0,99.8,105.9,40.9,1217.0,6211.0,8.0,1,
114600,1863.7,82.7,97.7,86.6,1263.0,6620.0,8.0,1,
114700,1840.2,100.5,99.1,68.5,945.0,5202.0,7.0,1,
114800,1871.1,63.5,94.5,30.2,841.0,4469.0,8.0,1,
114900,1856.1,56.6,94.4,29.7,841.0,4469.0,8.0,1,
115000,1860.4,58.1,94.2,35.0,841.0,4469.0,8.0,1,
115100,1858.4,57.0,94.3,56.9,841.0,4469.0,8.0,1,
115200,1857.2,54.3,94.2,238.7,841.0,4469.0,8.0,1,
115300,1858.5,55.6,94.2,242.0,841.0,4469.0,8.0,1,
115400,1858.4,53.9,94.1,266.3,841.0,4469.0,8.0,1,
115600,1861.9,56.4,94.1,268.3,841.0,4469.0,8.0,1,
115700,1856.3,59.2,94.2,246.4,841.0,4469.0,8.0,1,
115800,1856.0,99.0,98.0,240.7,1059.0,5797.0,6.0,1,
115900,1847.2,116.6,102.1,73.8,1012.0,5582.0,10.0,1,
116000,1866.6,84.1,98.1,68.5,1188.0,5195.0,7.0,1,
116100,1861.7,63.6,97.2,70.4,1399.0,6558.0,7.0,1,
116200,1850.0,92.9,98.2,44.9,1031.0,4822.0,8.0,1,
116300,1853.3,74.0,98.6,42.0,1102.0,6026.0,8.0,1,
116400,1862.1,61.2,97.6,30.1,963.0,5585.0,7.0,1,
116600,1859.8,58.5,97.9,38.8,963.0,5585.0,7.0,1,
116700,1857.9,57.8,97.8,91.7,963.0,5585.0,7.0,1,
116800,1858.8,55.9,97.7,240.6,963.0,5585.0,7.0,1,
116900,1857.0,58.2,97.7,291.3,963.0,5585.0,7.0,1,
117000,1859.3,57.7,97.8,241.2,963.0,5585.0,7.0,1,
117100,1856.7,58.6,97.9,241.0,963.0,5585.0,7.0,1,
117200,1861.3,56.1,97.9,241.1,963.0,5585.0,7.0,1,
117300,1859.6,57.8,97.9,240.7,963.0,5585.0,7.0,1,
117400,1847.3,83.3,95.9,240.8,743.0,4829.0,6.0,1,
117600,1854.8,86.8,89.0,38.3,1257.0,6830.0,8.0,1,
117700,1843.1,120.5,88.6,36.7,1113.0,4939.0,8.0,1,
117800,1865.4,68.5,89.7,35.3,1413.0,7207.0,7.0,1,
117900,1848.2,99.1,89.8,29.1,952.0,5101.0,7.0,1,
118000,1886.2,60.8,89.8,28.6,1142.0,5425.0,8.0,1,
118100,1844.2,57.4,89.5,29.3,1142.0,5425.0,8.0,1,
118200,1858.6,59.7,89.4,30.1,1142.0,5425.0,8.0,1,
118300,1859.2,58.2,89.5,69.9,1142.0,5425.0,8.0,1,
118400,1856.9,55.6,89.6,166.2,1142.0,5425.0,8.0,1,
118600,1856.2,55.8,89.6,262.1,1142.0,5425.0,8.0,1,
118700,1858.5,55.2,89.6,240.3,1142.0,5425.0,8.0,1,
118800,1859.7,55.1,89.5,240.7,1142.0,5425.0,8.0,1,
118900,1859.3,56.4,89.5,249.8,1142.0,5425.0,8.0,1,
119000,1858.0,75.3,89.6,251.9,1142.0,5425.0,8.0,1,
119100,1855.3,108.2,91.1,220.3,1040.0,6521.0,7.0,1,
119200,1861.2,97.7,94.8,89.9,1091.0,5173.0,8.0,1,
119300,1864.0,114.8,94.3,67.0,1382.0,6781.0,7.0,1,
119400,1847.8,124.5,96.8,30.0,1028.0,5279.0,7.0,1,
119600,1845.9,124.9,105.5,78.5,1211.0,6404.0,7.0,1,
119700,1859.2,61.9,106.1,41.8,1050.0,5700.0,7.0,1,
119800,1860.3,60.8,106.0,38.6,1050.0,5700.0,7.0,1,
119900,1858.5,58.4,106.0,39.4,1050.0,5700.0,7.0,1,
120000,1860.1,59.1,106.0,80.1,1050.0,5700.0,7.0,1,
120100,1859.5,57.6,106.0,246.5,1050.0,5700.0,7.0,1,
120200,1859.9,55.5,105.9,276.5,1050.0,5700.0,7.0,1,
120300,1859.5,57.1,105.9,277.2,1050.0,5700.0,7.0,1,
120400,1861.5,54.5,105.9,272.4,1050.0,5700.0,7.0,1,
120600,1861.8,56.4,105.9,241.0,1050.0,5700.0,7.0,1,
120700,1858.3,75.2,103.8,239.7,870.0,4905.0,6.0,1,
120800,1852.9,96.1,101.7,68.4,1236.0,7143.0,8.0,1,
120900,1863.8,107.5,102.3,68.8,964.0,5043.0,8.0,1,
121000,1878.9,91.0,100.4,91.6,1306.0,6567.0,7.0,1,
121100,1833.6,104.3,98.4,36.5,1113.0,5940.0,7.0,1,
121200,1857.4,63.0,100.0,67.2,1172.0,5651.0,7.0,1,
121300,1870.0,58.2,92.4,71.1,1124.0,6214.0,8.0,1,
121400,1860.7,59.2,92.3,30.0,1124.0,6214.0,8.0,1,
121600,1860.1,62.0,92.3,101.5,1124.0,6214.0,8.0,1,
121700,1855.7,59.1,92.4,241.6,1124.0,6214.0,8.0,1,
121800,1857.4,55.5,92.5,272.7,1124.0,6214.0,8.0,1,
121900,1859.4,56.2,92.6,253.3,1124.0,6214.0,8.0,1,
122000,1860.6,54.5,92.6,274.5,1124.0,6214.0,8.0,1,
122100,1858.2,58.3,92.5,252.3,1124.0,6214.0,8.0,1,
122200,1860.5,54.3,92.6,241.6,1124.0,6214.0,8.0,1,
122300,1840.1,97.0,95.7,239.7,889.0,5301.0,6.0,1,
122400,1883.7,75.5,95.6,91.5,676.0,3832.0,5.0,1,
122600,1842.6,109.8,103.4,66.5,986.0,5117.0,8.0,1,
122700,1865.7,57.0,101.0,28.1,1316.0,6580.0,7.0,1,
122800,1854.0,133.4,104.3,28.9,1119.0,6563.0,8.0,1,
122900,1867.0,71.2,106.6,30.0,1002.0,5379.0,7.0,1,
123000,1858.8,59.9,106.7,28.4,1002.0,5379.0,7.0,1,
123100,1858.5,56.7,106.6,29.0,1002.0,5379.0,7.0,1,
123200,1859.5,58.0,106.6,37.4,1002.0,5379.0,7.0,1,
123300,1861.5,59.4,106.5,172.7,1002.0,5379.0,7.0,1,
123400,1858.0,55.5,106.6,240.6,1002.0,5379.0,7.0,1,
123600,1860.3,55.0,106.4,272.6,1002.0,5379.0,7.0,1,
123700,1862.3,55.2,106.4,251.3,1002.0,5379.0,7.0,1,
123800,1858.4,55.1,106.4,243.4,1002.0,5379.0,7.0,1,
123900,1865.8,191.3,104.6,244.5,680.0,4017.0,5.0,1,
124000,1862.6,94.1,109.6,86.1,899.0,5196.0,5.0,1,
124100,1855.6,166.7,114.0,39.7,924.0,5428.0,8.0,1,
124200,1853.0,77.7,107.4,37.5,1292.0,7167.0,7.0,1,
124300,1853.2,164.3,109.6,28.8,1203.0,6889.0,8.0,1,
124400,1891.1,88.0,113.6,28.9,1147.0,5335.0,7.0,1,
124600,1862.8,56.1,110.4,38.0,1147.0,5335.0,7.0,1,
124700,1858.9,57.2,110.2,39.8,1147.0,5335.0,7.0,1,
124800,1858.1,57.9,110.3,92.8,1147.0,5335.0,7.0,1,
124900,1858.0,56.1,110.3,166.2,1147.0,5335.0,7.0,1,
125000,1856.7,55.1,110.2,238.9,1147.0,5335.0,7.0,1,
125100,1858.3,58.6,110.2,239.7,1147.0,5335.0,7.0,1,
125200,1859.2,55.4,110.3,241.1,1147.0,5335.0,7.0,1,
125300,1858.7,58.8,110.4,268.1,1147.0,5335.0,7.0,1,
125400,1859.8,54.8,110.3,244.0,1147.0,5335.0,7.0,1,
125600,1849.5,71.7,104.6,165.9,754.0,4406.0,6.0,1,
125700,1869.2,65.7,100.7,41.5,968.0,5632.0,8.0,1,
125800,1854.0,138.1,102.8,39.1,961.0,6029.0,9.0,1,
125900,1879.4,81.6,105.1,45.6,1170.0,5944.0,7.0,1,
126000,1836.2,213.8,98.4,38.5,1221.0,6915.0,8.0,1,
126100,1866.0,109.2,109.2,37.6,915.0,4975.0,8.0,1,
126200,1857.9,63.5,109.0,35.2,907.0,5143.0,8.0,1,
126300,1859.9,58.0,109.1,29.4,907.0,5143.0,8.0,1,
126400,1860.0,57.8,109.1,30.0,907.0,5143.0,8.0,1,
126600,1857.8,58.5,109.2,275.4,907.0,5143.0,8.0,1,
126700,1860.2,57.1,109.2,294.1,907.0,5143.0,8.0,1,
126800,1860.8,57.0,109.3,254.6,907.0,5143.0,8.0,1,
126900,1860.9,56.2,109.2,241.0,907.0,5143.0,8.0,1,
127000,1858.5,58.4,109.1,240.8,907.0,5143.0,8.0,1,
127100,1856.8,55.5,109.2,270.5,907.0,5143.0,8.0,1,
127200,1862.7,166.7,111.6,240.0,870.0,5424.0,5.0,1,
127300,1844.0,106.0,119.5,67.1,622.0,4023.0,10.0,1,
127400,1878.6,74.9,118.0,41.6,877.0,4886.0,8.0,1,
127600,1853.9,100.3,121.5,28.1,900.0,4850.0,8.0,1,
127700,1857.9,67.2,112.3,38.9,1033.0,5654.0,8.0,1,
127800,1872.0,59.9,112.2,50.3,910.0,5327.0,8.0,1,
127900,1861.7,60.8,112.1,66.6,910.0,5327.0,8.0,1,
128000,1859.9,63.8,112.2,65.7,910.0,5327.0,8.0,1,
128100,1859.5,60.6,112.3,80.3,910.0,5327.0,8.0,1,
128200,1857.8,58.2,112.2,240.1,910.0,5327.0,8.0,1,
128300,1857.3,59.5,112.3,241.1,910.0,5327.0,8.0,1,
128400,1857.4,59.2,112.3,240.2,910.0,5327.0,8.0,1,
128600,1859.9,55.9,112.4,275.0,910.0,5327.0,8.0,1,
128700,1858.0,55.2,112.3,297.4,910.0,5327.0,8.0,1,
128800,1862.7,128.2,117.7,230.0,631.0,4588.0,6.0,1,
128900,1877.3,70.7,108.2,37.6,661.0,3961.0,9.0,1,
129000,1842.6,102.0,103.6,36.5,814.0,4960.0,9.0,1,
129100,1868.7,60.7,103.2,38.9,787.0,4086.0,8.0,1,
129200,1852.8,81.7,93.1,39.6,1035.0,5947.0,8.0,1,
129300,1874.9,114.9,103.0,29.0,716.0,4135.0,9.0,1,
129400,1856.2,61.5,102.1,36.1,959.0,5128.0,8.0,1,
129600,1863.0,55.3,101.9,40.0,959.0,5128.0,8.0,1,
129700,1860.6,56.4,101.8,57.2,959.0,5128.0,8.0,1,
129800,1857.9,58.5,101.7,229.1,959.0,5128.0,8.0,1,
129900,1859.8,57.7,101.6,246.3,959.0,5128.0,8.0,1,
130000,1860.8,52.7,101.5,241.0,959.0,5128.0,8.0,1,
130100,1861.0,55.0,101.4,240.0,959.0,5128.0,8.0,1,
130200,1861.7,54.7,101.3,240.9,959.0,5128.0,8.0,1,
130300,1858.9,55.5,101.2,241.8,959.0,5128.0,8.0,1,
130400,1868.7,80.2,91.6,243.6,771.0,4327.0,7.0,1,
130600,1867.8,121.2,98.7,85.1,797.0,4029.0,8.0,1,
130700,1841.6,89.2,100.5,42.8,796.0,4892.0,8.0,1,
130800,1870.1,190.8,102.3,37.8,497.0,3236.0,9.0,1,
130900,1875.5,105.4,100.5,28.0,711.0,4206.0,8.0,1,
131000,1849.9,87.8,102.5,27.1,635.0,3794.0,9.0,1,
131100,1860.6,62.6,102.5,27.6,635.0,3794.0,9.0,1,
131200,1864.1,55.6,102.6,29.3,635.0,3794.0,9.0,1,
131300,1859.4,53.6,102.6,30.0,635.0,3794.0,9.0,1,
131400,1860.3,56.1,102.6,51.5,635.0,3794.0,9.0,1,
131600,1859.6,58.9,102.6,240.9,635.0,3794.0,9.0,1,
131700,1862.6,56.6,102.6,276.1,635.0,3794.0,9.0,1,
131800,1858.1,52.2,102.7,254.7,635.0,3794.0,9.0,1,
131900,1863.3,53.4,102.6,239.8,635.0,3794.0,9.0,1,
132000,1862.1,81.8,102.7,240.2,635.0,3794.0,9.0,1,
132100,1858.3,52.6,100.6,177.6,714.0,4092.0,7.0,1,
132200,1857.2,88.1,95.3,40.4,673.0,4284.0,10.0,1,
132300,1885.1,54.5,92.6,42.4,460.0,3129.0,9.0,1,
132400,1849.2,73.2,90.4,42.7,773.0,4885.0,8.0,1,
132600,1866.6,74.8,89.4,29.6,594.0,3775.0,7.0,1,
132700,1858.4,58.3,85.7,29.7,594.0,3775.0,7.0,1,
132800,1857.4,55.5,85.7,30.1,594.0,3775.0,7.0,1,
132900,1861.9,61.1,85.7,35.9,594.0,3775.0,7.0,1,
133000,1861.2,51.4,85.7,68.9,594.0,3775.0,7.0,1,
133100,1860.3,56.1,85.6,239.8,594.0,3775.0,7.0,1,
133200,1861.1,53.1,85.6,240.3,594.0,3775.0,7.0,1,
133300,1860.1,53.3,85.5,240.6,594.0,3775.0,7.0,1,
133400,1863.3,52.7,85.4,241.0,594.0,3775.0,7.0,1,
133600,1861.2,55.3,85.7,240.4,594.0,3775.0,7.0,1,
133700,1859.3,122.2,96.5,238.8,629.0,4572.0,7.0,1,
133800,1865.5,55.0,95.9,36.0,511.0,3249.0,6.0,1,
133900,1856.5,96.4,98.1,28.9,720.0,4686.0,8.0,1,
134000,1862.6,111.2,100.2,29.0,423.0,3010.0,8.0,1,
134100,1859.5,90.2,100.2,42.1,624.0,4363.0,8.0,1,
134200,1844.2,62.5,97.6,29.3,496.0,3519.0,10.0,1,
134300,1870.0,57.9,93.4,27.6,403.0,2895.0,8.0,1,
134400,1862.8,53.5,93.4,54.4,403.0,2895.0,8.0,1,
134600,1860.3,53.6,93.4,84.4,403.0,2895.0,8.0,1,
134700,1859.7,55.5,93.5,240.8,403.0,2895.0,8.0,1,
134800,1860.7,51.6,93.5,241.1,403.0,2895.0,8.0,1,
134900,1860.3,55.3,93.5,241.8,403.0,2895.0,8.0,1,
135000,1859.3,57.0,93.5,250.8,403.0,2895.0,8.0,1,
135100,1861.3,55.6,93.6,270.0,403.0,2895.0,8.0,1,
135200,1858.5,55.2,93.5,258.8,403.0,2895.0,8.0,1,
135300,1879.4,85.3,84.7,240.4,688.0,3894.0,6.0,1,
135400,1847.3,80.4,83.0,57.5,638.0,4434.0,7.0,1,
135600,1854.1,52.5,77.6,37.2,750.0,4544.0,9.0,1,
135700,1874.1,115.6,85.5,28.3,602.0,3532.0,10.0,1,
135800,1866.6,81.8,85.4,28.0,618.0,3375.0,7.0,1,
135900,1857.2,59.2,85.0,29.4,661.0,4001.0,8.0,1,
136000,1858.8,54.3,85.1,29.7,661.0,4001.0,8.0,1,
136100,1859.1,52.0,85.1,34.5,661.0,4001.0,8.0,1,
136200,1862.1,55.2,84.9,88.5,661.0,4001.0,8.0,1,
136300,1859.3,56.1,84.9,241.2,661.0,4001.0,8.0,1,
136400,1861.5,55.8,85.0,266.8,661.0,4001.0,8.0,1,
136600,1857.1,52.8,85.1,242.1,661.0,4001.0,8.0,1,
136700,1858.4,53.9,85.1,245.6,661.0,4001.0,8.0,1,
136800,1861.6,53.5,85.1,247.6,661.0,4001.0,8.0,1,
136900,1857.5,79.4,85.8,244.7,720.0,4419.0,7.0,1,
137000,1857.0,106.1,96.9,94.0,554.0,3189.0,6.0,1,
137100,1855.8,74.6,95.9,29.0,719.0,4829.0,9.0,1,
137200,1866.0,219.5,97.8,28.7,510.0,3478.0,9.0,1,
137300,1868.0,90.4,102.7,28.1,639.0,3744.0,8.0,1,
137400,1858.1,84.7,106.0,28.8,655.0,4021.0,10.0,1,
137600,1863.7,56.8,104.0,28.3,655.0,4021.0,10.0,1,
137700,1862.0,58.4,104.0,29.0,655.0,4021.0,10.0,1,
137800,1862.8,56.4,104.1,34.9,655.0,4021.0,10.0,1,
137900,1863.0,54.8,104.1,132.6,655.0,4021.0,10.0,1,
138000,1859.7,54.6,104.0,240.1,655.0,4021.0,10.0,1,
138100,1860.5,55.7,104.0,240.7,655.0,4021.0,10.0,1,
138200,1862.0,56.9,103.9,247.7,655.0,4021.0,10.0,1,
138300,1859.1,54.0,104.0,251.7,655.0,4021.0,10.0,1,
138400,1860.1,54.6,104.0,242.1,655.0,4021.0,10.0,1,
138600,1856.2,64.7,96.3,217.9,627.0,4452.0,6.0,1,
138700,1881.6,80.6,94.4,91.8,496.0,3381.0,9.0,1,
138800,1855.8,147.3,95.0,77.0,708.0,4092.0,9.0,1,
138900,1845.5,145.9,84.2,29.8,691.0,4217.0,10.0,1,
139000,1867.0,51.9,85.2,37.5,544.0,3358.0,9.0,1,
139100,1852.3,113.8,91.9,47.8,641.0,4050.0,9.0,1,
139200,1871.2,54.8,93.3,36.1,641.0,4050.0,9.0,1,
139300,1864.1,51.6,93.2,35.4,641.0,4050.0,9.0,1,
139400,1861.7,55.3,93.1,37.6,641.0,4050.0,9.0,1,
139600,1858.7,51.6,93.2,240.4,641.0,4050.0,9.0,1,
139700,1860.3,52.7,93.2,241.0,641.0,4050.0,9.0,1,
139800,1860.5,54.3,93.2,240.4,641.0,4050.0,9.0,1,
139900,1859.2,50.1,93.3,240.6,641.0,4050.0,9.0,1,
140000,1858.8,54.3,93.2,250.4,641.0,4050.0,9.0,1,
140100,1859.3,46.9,93.1,274.8,641.0,4050.0,9.0,1,
140200,1867.7,108.2,96.0,228.7,570.0,3698.0,5.0,1,
140300,1851.6,172.3,95.3,30.2,637.0,4254.0,6.0,1,
140400,1863.7,122.7,106.4,29.1,471.0,3452.0,8.0,1,
140600,1846.2,100.6,98.7,27.9,670.0,4258.0,8.0,1,
140700,1883.2,56.9,95.9,28.7,422.0,3259.0,10.0,1,
140800,1850.4,53.0,92.2,28.9,497.0,3255.0,8.0,1,
140900,1859.1,55.7,92.3,28.8,497.0,3255.0,8.0,1,
141000,1860.9,52.2,92.2,29.8,497.0,3255.0,8.0,1,
141100,1861.3,50.3,92.2,68.1,497.0,3255.0,8.0,1,
141200,1862.2,56.7,92.0,240.7,497.0,3255.0,8.0,1,
141300,1861.1,51.3,92.0,241.9,497.0,3255.0,8.0,1,
141400,1863.7,52.9,92.0,264.1,497.0,3255.0,8.0,1,
141600,1864.4,51.8,91.9,281.2,497.0,3255.0,8.0,1,
141700,1859.5,50.1,92.0,241.0,497.0,3255.0,8.0,1,
141800,1871.0,110.5,98.4,239.0,848.0,4960.0,6.0,1,
141900,1858.9,105.2,96.6,83.1,480.0,3764.0,9.0,1,
142000,1848.0,51.1,88.0,56.3,705.0,4269.0,8.0,1,
142100,1873.5,91.9,91.1,41.6,667.0,4466.0,9.0,1,
142200,1879.3,54.3,92.1,28.9,583.0,3551.0,9.0,1,
142300,1841.7,112.0,96.9,37.7,812.0,4719.0,8.0,1,
142400,1870.3,64.6,98.6,35.6,679.0,4224.0,9.0,1,
142600,1860.5,53.3,98.7,27.4,679.0,4224.0,9.0,1,
142700,1861.9,52.8,98.7,28.4,679.0,4224.0,9.0,1,
142800,1857.1,50.4,98.8,218.7,679.0,4224.0,9.0,1,
142900,1860.8,56.0,98.7,262.4,679.0,4224.0,9.0,1,
143000,1861.8,53.5,98.7,262.7,679.0,4224.0,9.0,1,
143100,1863.4,51.5,98.6,240.4,679.0,4224.0,9.0,1,
143200,1861.0,53.1,98.6,229.3,679.0,4224.0,9.0,1,
143300,1863.2,53.8,98.4,240.4,679.0,4224.0,9.0,1,
143400,1854.8,104.3,98.9,241.7,620.0,3994.0,6.0,1,
143600,1883.2,118.4,96.0,35.0,719.0,4620.0,11.0,1,
143700,1859.5,183.5,91.2,34.6,643.0,3656.0,8.0,1,
143800,1851.5,79.2,99.5,28.7,829.0,5079.0,8.0,1,
143900,1867.7,90.8,102.3,29.6,547.0,3675.0,8.0,1,
144000,1854.1,51.6,92.3,36.5,767.0,4323.0,8.0,1,
144100,1864.2,54.7,92.4,28.9,767.0,4323.0,8.0,1,
144200,1860.7,53.8,92.2,30.2,767.0,4323.0,8.0,1,
144300,1861.7,52.1,92.2,74.7,767.0,4323.0,8.0,1,
144400,1863.3,51.9,92.1,175.3,767.0,4323.0,8.0,1,
144600,1860.3,55.5,92.2,242.4,767.0,4323.0,8.0,1,
144700,1861.9,51.2,92.3,241.1,767.0,4323.0,8.0,1,
144800,1863.1,52.8,92.2,244.8,767.0,4323.0,8.0,1,
144900,1862.0,52.5,92.3,276.1,767.0,4323.0,8.0,1,
145000,1863.8,61.0,92.2,282.1,758.0,4592.0,8.0,1,
145100,1861.0,99.1,89.6,217.5,516.0,3882.0,11.0,1,
145200,1865.3,60.2,89.3,69.0,700.0,3906.0,9.0,1,
145300,1855.3,98.3,92.4,29.9,942.0,5552.0,9.0,1,
145400,1851.7,121.3,85.1,29.3,774.0,4444.0,8.0,1,
145600,1893.2,85.8,96.8,29.5,1015.0,5647.0,7.0,1,
145700,1842.4,56.5,97.2,38.6,1015.0,5647.0,7.0,1,
145800,1860.4,55.9,97.3,65.8,1015.0,5647.0,7.0,1,
145900,1863.0,57.5,97.3,57.3,1015.0,5647.0,7.0,1,
146000,1858.8,54.5,97.3,98.8,1015.0,5647.0,7.0,1,
146100,1861.2,52.0,97.4,240.7,1015.0,5647.0,7.0,1,
146200,1863.3,50.8,97.2,252.5,1015.0,5647.0,7.0,1,
146300,1862.8,56.8,97.2,269.7,1015.0,5647.0,7.0,1,
146400,1862.8,53.0,97.3,249.4,1015.0,5647.0,7.0,1,
146600,1861.0,60.0,97.4,262.2,1015.0,5647.0,7.0,1,
146700,1865.3,98.3,100.0,239.8,815.0,4460.0,6.0,1,
146800,1846.3,180.7,101.0,65.8,778.0,5127.0,9.0,1,
146900,1858.1,63.2,110.2,48.1,811.0,4243.0,8.0,1,
147000,1857.2,62.2,108.5,29.4,891.0,5577.0,8.0,1,
147100,1881.3,157.1,109.4,29.1,598.0,3616.0,10.0,1,
147200,1838.1,101.4,105.3,29.7,784.0,4507.0,9.0,1,
147300,1868.5,58.4,106.0,29.5,836.0,5301.0,7.0,1,
147400,1858.0,54.8,106.1,29.1,836.0,5301.0,7.0,1,
147600,1861.0,54.3,106.2,91.0,836.0,5301.0,7.0,1,
147700,1859.8,53.3,106.2,244.1,836.0,5301.0,7.0,1,
147800,1860.3,56.0,106.3,252.4,836.0,5301.0,7.0,1,
147900,1860.3,54.4,106.4,273.7,836.0,5301.0,7.0,1,
148000,1860.6,56.4,106.3,299.3,836.0,5301.0,7.0,1,
148100,1862.1,54.0,106.4,275.7,836.0,5301.0,7.0,1,
148200,1862.3,53.1,106.3,241.4,836.0,5301.0,7.0,1,
148300,1850.1,111.1,109.2,204.5,672.0,4332.0,6.0,1,
148400,1851.2,65.4,113.4,48.2,984.0,5133.0,8.0,1,
148600,1873.6,139.2,111.1,51.5,1066.0,5576.0,4.0,1,
148700,1848.1,63.0,105.1,49.8,1335.0,7630.0,4.0,1,
148800,1865.9,127.5,103.6,38.7,1067.0,5044.0,3.0,1,
148900,1857.7,63.1,106.5,36.0,1154.0,5210.0,3.0,1,
149000,1861.1,62.0,106.5,29.6,1154.0,5210.0,3.0,1,
149100,1860.9,56.1,106.6,29.4,1154.0,5210.0,3.0,1,
149200,1862.1,57.3,106.6,35.5,1154.0,5210.0,3.0,1,
149300,1859.8,57.4,106.7,238.6,1154.0,5210.0,3.0,1,
149400,1862.1,53.1,106.7,276.4,1154.0,5210.0,3.0,1,
149600,1858.3,54.4,106.7,240.1,1154.0,5210.0,3.0,1,
149700,1860.4,54.1,106.7,240.7,1154.0,5210.0,3.0,1,
149800,1861.9,51.6,106.7,241.1,1154.0,5210.0,3.0,1,
149900,1848.8,60.4,100.8,241.5,971.0,5015.0,5.0,1,
150000,1874.0,77.8,94.6,116.5,771.0,4929.0,9.0,1,
150100,1873.4,101.2,99.6,88.9,717.0,4592.0,8.0,1,
150200,1846.6,77.3,92.2,65.5,977.0,5927.0,8.0,1,
150300,1859.8,138.3,90.1,29.2,801.0,4305.0,3.0,1,
150400,1858.6,59.0,96.7,29.4,1050.0,5935.0,4.0,1,
150600,1862.8,57.8,91.9,38.8,1050.0,5935.0,4.0,1,
150700,1860.6,53.5,91.7,38.2,1050.0,5935.0,4.0,1,
150800,1859.8,53.9,91.7,91.7,1050.0,5935.0,4.0,1,
150900,1863.5,55.3,91.5,239.8,1050.0,5935.0,4.0,1,
151000,1862.4,58.0,91.4,280.4,1050.0,5935.0,4.0,1,
151100,1860.1,54.3,91.4,261.2,1050.0,5935.0,4.0,1,
151200,1861.8,52.5,91.4,240.8,1050.0,5935.0,4.0,1,
151300,1861.5,55.5,91.4,240.7,1050.0,5935.0,4.0,1,
151400,1859.3,57.7,91.4,240.5,1050.0,5935.0,4.0,1,
151600,1851.1,92.8,92.1,113.8,704.0,4293.0,5.0,1,
151700,1849.3,187.2,91.7,35.1,1164.0,6371.0,8.0,1,
151800,1870.4,107.9,103.9,34.5,890.0,4525.0,7.0,1,
151900,1857.8,74.9,107.2,28.9,1131.0,6376.0,8.0,1,
152000,1876.1,90.6,101.5,28.1,914.0,5198.0,7.0,1,
152100,1843.4,66.0,106.4,28.4,1205.0,5547.0,4.0,1,
152200,1866.7,58.7,106.2,28.4,1205.0,5547.0,4.0,1,
152300,1865.9,56.2,106.1,29.0,1205.0,5547.0,4.0,1,
152400,1860.5,54.2,106.1,30.0,1205.0,5547.0,4.0,1,
152600,1865.0,56.9,106.0,240.3,1205.0,5547.0,4.0,1,
152700,1862.2,53.3,106.0,242.3,1205.0,5547.0,4.0,1,
152800,1861.7,53.5,105.9,240.9,1205.0,5547.0,4.0,1,
152900,1861.7,55.2,105.9,238.3,1205.0,5547.0,4.0,1,
153000,1861.1,52.9,105.9,240.3,1205.0,5547.0,4.0,1,
153100,1862.2,97.5,105.9,240.6,1205.0,5547.0,4.0,1,
153200,1857.9,87.7,109.1,213.8,971.0,5758.0,6.0,1,
153300,1852.5,142.5,110.7,67.9,870.0,4793.0,9.0,1,
153400,1857.6,97.9,105.3,45.7,1230.0,6145.0,8.0,1,
153600,1846.2,139.7,104.3,29.9,1133.0,5274.0,8.0,1,
153700,1851.5,146.2,102.4,38.7,1147.0,6227.0,7.0,1,
153800,1871.8,61.0,107.0,38.3,924.0,5714.0,7.0,1,
153900,1861.6,58.4,107.1,36.5,924.0,5714.0,7.0,1,
154000,1862.8,56.7,107.0,34.5,924.0,5714.0,7.0,1,
154100,1859.4,56.9,107.1,52.7,924.0,5714.0,7.0,1,
154200,1861.7,51.6,107.1,241.1,924.0,5714.0,7.0,1,
154300,1860.4,59.1,107.1,241.0,924.0,5714.0,7.0,1,
154400,1858.5,57.2,107.2,244.7,924.0,5714.0,7.0,1,
154600,1858.0,53.9,107.2,273.7,924.0,5714.0,7.0,1,
154700,1861.9,55.7,107.1,274.6,924.0,5714.0,7.0,1,
154800,1851.1,138.7,105.2,240.2,827.0,4232.0,5.0,1,
154900,1879.0,125.0,113.4,39.5,1070.0,6446.0,8.0,1,
155000,1875.7,135.9,111.0,35.9,1034.0,5276.0,7.0,1,
155100,1840.0,64.7,110.0,29.1,1119.0,5739.0,7.0,1,
155200,1864.7,95.8,106.6,30.1,926.0,5623.0,8.0,1,
155300,1849.8,53.9,105.0,37.3,1025.0,5172.0,8.0,1,
155400,1870.3,56.7,100.3,37.4,1131.0,5928.0,7.0,1,
155600,1862.0,57.7,100.3,66.7,1131.0,5928.0,7.0,1,
155700,1861.9,54.0,100.3,88.7,1131.0,5928.0,7.0,1,
155800,1858.4,55.5,100.3,239.3,1131.0,5928.0,7.0,1,
155900,1860.1,54.7,100.3,240.6,1131.0,5928.0,7.0,1,
156000,1861.6,54.4,100.1,240.8,1131.0,5928.0,7.0,1,
156100,1863.6,57.6,100.1,245.4,1131.0,5928.0,7.0,1,
156200,1862.0,51.3,100.1,242.4,1131.0,5928.0,7.0,1,
156300,1862.0,55.1,100.2,239.9,1131.0,5928.0,7.0,1,
156400,1861.0,80.0,100.4,238.9,970.0,5729.0,7.0,1,
156600,1841.7,81.5,96.7,35.6,1327.0,7674.0,5.0,1,
156700,1855.3,110.0,95.5,30.2,905.0,5098.0,8.0,1,
156800,1851.7,117.9,97.2,66.2,1012.0,5152.0,4.0,1,
156900,1882.7,97.8,108.3,73.4,1023.0,6272.0,7.0,1,
157000,1851.7,73.5,111.4,36.0,785.0,5081.0,6.0,1,
157100,1861.0,56.1,111.5,39.9,785.0,5081.0,6.0,1,
157200,1861.3,53.5,111.5,50.4,785.0,5081.0,6.0,1,
157300,1865.1,57.6,111.5,68.1,785.0,5081.0,6.0,1,
157400,1860.0,59.8,111.5,206.2,785.0,5081.0,6.0,1,
157600,1858.5,55.0,111.8,240.7,785.0,5081.0,6.0,1,
157700,1860.2,51.1,111.9,240.8,785.0,5081.0,6.0,1,
157800,1862.3,51.9,111.7,240.2,785.0,5081.0,6.0,1,
157900,1864.7,55.1,111.7,239.8,785.0,5081.0,6.0,1,
158000,1881.0,180.5,110.9,240.3,829.0,4961.0,7.0,1,
158100,1829.7,91.7,112.8,66.6,1153.0,6756.0,5.0,1,
158200,1861.1,103.4,111.3,56.0,1050.0,5396.0,4.0,1,
158300,1867.0,60.7,109.5,67.3,1286.0,6767.0,4.0,1,
158400,1882.3,82.3,106.6,92.2,1073.0,6283.0,4.0,1,
158600,1863.4,58.6,92.3,48.3,1108.0,6664.0,4.0,1,
158700,1871.0,57.4,92.2,29.3,1108.0,6664.0,4.0,1,
158800,1859.5,55.6,92.2,81.4,1108.0,6664.0,4.0,1,
158900,1862.8,53.9,92.3,113.1,1108.0,6664.0,4.0,1,
159000,1863.8,58.8,92.5,189.2,1108.0,6664.0,4.0,1,
159100,1863.0,57.0,92.5,242.0,1108.0,6664.0,4.0,1,
159200,1862.7,56.7,92.5,240.1,1108.0,6664.0,4.0,1,
159300,1861.8,59.6,92.5,240.3,1108.0,6664.0,4.0,1,
159400,1860.0,58.2,92.8,270.4,1108.0,6664.0,4.0,1,
159600,1864.5,123.3,93.0,240.7,1108.0,6664.0,4.0,1,
159700,1850.8,135.7,98.9,101.0,897.0,5177.0,4.0,1,
159800,1861.5,75.2,97.7,35.9,1220.0,6909.0,7.0,1,
159900,1881.8,98.0,98.3,35.0,976.0,5741.0,7.0,1,
160000,1843.9,92.4,102.6,35.3,1037.0,5198.0,5.0,1,
160100,1852.2,85.4,101.9,34.3,1084.0,6599.0,8.0,1,
160200,1864.5,97.1,103.6,29.9,906.0,5030.0,7.0,1,
160300,1863.1,59.2,104.0,35.5,906.0,5030.0,7.0,1,
160400,1860.4,56.8,103.9,36.7,906.0,5030.0,7.0,1,
160600,1862.5,53.0,103.8,99.2,906.0,5030.0,7.0,1,
160700,1860.0,50.0,103.5,254.6,906.0,5030.0,7.0,1,
160800,1859.2,52.7,103.3,274.8,906.0,5030.0,7.0,1,
160900,1860.2,51.9,103.2,278.6,906.0,5030.0,7.0,1,
161000,1858.9,53.7,103.1,297.9,906.0,5030.0,7.0,1,
161100,1861.8,54.2,103.0,292.4,906.0,5030.0,7.0,1,
161200,1858.3,50.1,102.9,261.0,906.0,5030.0,7.0,1,
161300,1866.5,54.8,93.6,201.5,1064.0,6429.0,4.0,1,
161400,1883.3,114.5,94.7,89.8,859.0,5473.0,9.0,1,
161600,1865.8,85.8,89.0,89.8,950.0,6165.0,7.0,1,
161700,1854.7,94.1,91.8,88.9,970.0,5438.0,4.0,1,
161800,1882.7,63.0,90.5,91.3,1238.0,7341.0,7.0,1,
161900,1850.8,58.6,90.6,39.3,1126.0,6842.0,7.0,1,
162000,1861.1,53.9,90.7,38.5,1126.0,6842.0,7.0,1,
162100,1861.3,56.3,90.5,92.4,1126.0,6842.0,7.0,1,
162200,1858.1,54.1,90.6,149.8,1126.0,6842.0,7.0,1,
162300,1862.2,51.6,90.6,248.3,1126.0,6842.0,7.0,1,
162400,1863.7,51.3,90.6,241.0,1126.0,6842.0,7.0,1,
162600,1860.1,53.1,90.4,242.4,1126.0,6842.0,7.0,1,
162700,1859.2,54.3,90.5,253.5,1126.0,6842.0,7.0,1,
162800,1861.9,55.8,90.3,245.3,1126.0,6842.0,7.0,1,
162900,1870.5,142.7,90.5,240.2,1041.0,6284.0,5.0,1,
163000,1841.1,75.5,89.5,69.5,997.0,5405.0,4.0,1,
163100,1861.5,105.9,91.7,37.2,1111.0,6192.0,8.0,1,
163200,1848.8,56.6,92.9,65.6,1026.0,5445.0,3.0,1,
163300,1885.2,54.5,88.9,67.1,1213.0,7033.0,7.0,1,
163400,1861.6,105.9,89.9,35.7,886.0,5046.0,8.0,1,
163600,1861.7,54.0,89.8,30.2,886.0,5046.0,8.0,1,
163700,1860.0,53.1,89.8,45.9,886.0,5046.0,8.0,1,
163800,1861.4,51.1,89.8,73.3,886.0,5046.0,8.0,1,
163900,1860.4,53.7,89.7,233.7,886.0,5046.0,8.0,1,
164000,1860.0,54.1,89.8,251.8,886.0,5046.0,8.0,1,
164100,1860.7,49.1,89.9,253.0,886.0,5046.0,8.0,1,
164200,1858.6,50.6,89.9,241.9,886.0,5046.0,8.0,1,
164300,1862.7,51.2,89.8,241.1,886.0,5046.0,8.0,1,
164400,1858.5,53.6,89.8,242.3,886.0,5046.0,8.0,1,
164600,1861.1,151.1,88.7,138.6,762.0,4782.0,4.0,1,
164700,1857.5,84.4,101.7,90.2,1081.0,6058.0,5.0,1,
164800,1895.4,60.1,99.0,42.5,1299.0,7348.0,8.0,1,
164900,1831.3,103.4,102.1,29.0,1022.0,5261.0,4.0,1,
165000,1858.4,70.5,101.3,29.0,1223.0,6848.0,7.0,1,
165100,1867.0,66.9,101.9,30.0,1010.0,6292.0,8.0,1,
165200,1867.2,53.7,101.9,34.2,1010.0,6292.0,8.0,1,
165300,1866.1,51.5,101.9,65.8,1010.0,6292.0,8.0,1,
165400,1860.9,54.6,101.9,65.7,1010.0,6292.0,8.0,1,
165600,1861.7,54.6,102.0,266.5,1010.0,6292.0,8.0,1,
165700,1861.0,51.6,102.0,262.1,1010.0,6292.0,8.0,1,
165800,1859.2,51.4,102.2,259.0,1010.0,6292.0,8.0,1,
165900,1859.8,50.3,102.2,241.0,1010.0,6292.0,8.0,1,
166000,1860.6,52.3,102.2,240.7,1010.0,6292.0,8.0,1,
166100,1860.3,81.5,102.1,240.4,908.0,5282.0,6.0,1,
166200,1857.2,92.8,105.3,99.9,1022.0,5039.0,5.0,1,
166300,1872.2,93.8,92.5,51.3,1089.0,6539.0,8.0,1,
166400,1848.6,95.3,93.2,43.7,1009.0,5159.0,7.0,1,
166600,1853.5,140.6,91.6,30.2,917.0,4992.0,7.0,1,
166700,1861.7,63.8,99.1,37.1,1069.0,5963.0,7.0,1,
166800,1865.4,55.8,98.3,29.5,1069.0,5963.0,7.0,1,
166900,1863.2,53.7,98.4,29.3,1069.0,5963.0,7.0,1,
167000,1863.5,55.7,98.3,34.9,1069.0,5963.0,7.0,1,
167100,1860.7,51.9,98.4,100.2,1069.0,5963.0,7.0,1,
167200,1859.1,51.1,98.3,272.6,1069.0,5963.0,7.0,1,
167300,1862.2,51.4,98.2,274.6,1069.0,5963.0,7.0,1,
167400,1858.5,51.2,98.1,298.7,1069.0,5963.0,7.0,1,
167600,1863.0,50.2,98.2,254.2,1069.0,5963.0,7.0,1,
167700,1862.6,51.3,98.1,260.5,1069.0,5963.0,7.0,1,
167800,1879.6,125.8,94.6,218.7,824.0,5315.0,4.0,1,
167900,1840.3,97.9,96.7,77.1,1090.0,5766.0,5.0,1,
168000,1862.7,119.2,95.7,36.3,1365.0,7704.0,6.0,1,
168100,1851.8,106.1,99.2,45.1,1303.0,6518.0,4.0,1,
168200,1888.9,93.0,103.7,37.1,1546.0,8354.0,3.0,1,
168300,1847.4,115.8,97.3,29.6,1351.0,7365.0,3.0,1,
168400,1860.3,54.2,98.4,29.7,1201.0,6262.0,4.0,1,
168600,1859.6,52.4,98.4,65.6,1201.0,6262.0,4.0,1,
168700,1860.8,51.8,98.3,94.7,1201.0,6262.0,4.0,1,
168800,1858.5,49.5,98.5,244.5,1201.0,6262.0,4.0,1,
168900,1861.5,55.2,98.5,283.7,1201.0,6262.0,4.0,1,
169000,1863.8,52.7,98.6,277.2,1201.0,6262.0,4.0,1,
169100,1859.4,53.9,98.8,271.5,1201.0,6262.0,4.0,1,
169200,1863.1,51.8,98.8,264.3,1201.0,6262.0,4.0,1,
169300,1862.0,47.9,98.8,254.5,1201.0,6262.0,4.0,1,
169400,1849.9,66.0,97.8,240.1,813.0,4446.0,5.0,1,
169600,1850.9,122.0,101.4,69.8,1057.0,5617.0,7.0,1,
169700,1880.0,51.0,98.0,78.9,1307.0,7587.0,4.0,1,
169800,1849.3,103.1,94.4,43.7,1179.0,6994.0,4.0,1,
169900,1855.5,57.9,93.1,37.4,1330.0,6550.0,4.0,1,
170000,1861.5,56.4,91.2,39.0,1384.0,7998.0,4.0,1,
170100,1858.6,50.9,91.3,67.0,1384.0,7998.0,4.0,1,
170200,1858.8,53.4,91.2,102.8,1384.0,7998.0,4.0,1,
170300,1862.5,52.9,91.2,139.6,1384.0,7998.0,4.0,1,
170400,1861.6,48.9,91.1,240.2,1384.0,7998.0,4.0,1,
170600,1860.8,51.5,90.9,291.0,1384.0,7998.0,4.0,1,
170700,1859.0,51.2,90.8,273.2,1384.0,7998.0,4.0,1,
170800,1861.1,51.7,90.7,249.7,1384.0,7998.0,4.0,1,
170900,1863.2,51.9,90.7,247.5,1384.0,7998.0,4.0,1,
171000,1855.5,77.3,89.8,240.7,849.0,5517.0,5.0,1,
171100,1853.4,93.0,90.5,154.2,984.0,5161.0,4.0,1,
171200,1894.0,64.4,85.8,73.1,1355.0,7638.0,7.0,1,
171300,1835.9,117.6,84.2,40.3,1266.0,6880.0,4.0,1,
171400,1851.5,113.1,84.1,57.5,1312.0,7124.0,4.0,1,
171600,1863.1,68.8,88.9,29.7,1201.0,6182.0,4.0,1,
171700,1861.0,54.8,88.8,30.0,1201.0,6182.0,4.0,1,
171800,1862.3,49.1,88.8,42.0,1201.0,6182.0,4.0,1,
171900,1860.0,49.7,88.7,57.5,1201.0,6182.0,4.0,1,
172000,1859.5,53.3,88.7,190.0,1201.0,6182.0,4.0,1,
172100,1858.9,49.1,88.9,240.9,1201.0,6182.0,4.0,1,
172200,1859.4,51.1,89.0,241.6,1201.0,6182.0,4.0,1,
172300,1863.2,51.8,89.1,247.5,1201.0,6182.0,4.0,1,
172400,1859.1,49.4,89.1,243.0,1201.0,6182.0,4.0,1,
172600,1864.8,60.9,89.0,250.5,909.0,4812.0,6.0,1,
172700,1869.7,84.0,87.6,151.4,1275.0,7237.0,5.0,1,
172800,1832.8,112.4,92.9,93.9,1220.0,6010.0,4.0,1,
172900,1868.6,74.6,94.0,91.0,1624.0,8730.0,4.0,1,
173000,1853.3,135.8,101.4,30.0,1164.0,6356.0,4.0,1,
173100,1867.9,98.8,100.6,29.9,1400.0,6584.0,4.0,1,
173200,1879.6,63.1,99.3,29.5,1173.0,7714.0,6.0,1,
173300,1845.6,50.9,99.6,29.2,1173.0,7714.0,6.0,1,
173400,1858.8,53.9,99.6,45.1,1173.0,7714.0,6.0,1,
173600,1861.5,51.8,99.7,218.2,1173.0,7714.0,6.0,1,
173700,1863.9,50.8,99.6,298.6,1173.0,7714.0,6.0,1,
173800,1861.5,51.3,99.5,279.3,1173.0,7714.0,6.0,1,
173900,1860.0,46.7,99.6,277.1,1173.0,7714.0,6.0,1,
174000,1862.4,52.0,99.6,290.2,1173.0,7714.0,6.0,1,
174100,1859.6,50.0,99.6,253.8,1173.0,7714.0,6.0,1,
174200,1862.9,64.0,99.7,240.8,1173.0,7714.0,6.0,1,
174300,1846.5,110.7,104.1,178.5,1195.0,5458.0,4.0,1,
174400,1853.3,175.9,98.9,66.0,1421.0,8333.0,4.0,1,
174600,1886.9,78.4,106.3,29.4,1357.0,7327.0,7.0,1,
174700,1852.4,117.3,102.8,28.5,1241.0,7530.0,6.0,1,
174800,1842.3,109.3,106.1,29.2,1028.0,5837.0,4.0,1,
174900,1869.7,57.0,106.3,29.5,1198.0,6324.0,4.0,1,
175000,1863.4,56.2,106.4,29.4,1198.0,6324.0,4.0,1,
175100,1860.4,50.8,106.5,36.2,1198.0,6324.0,4.0,1,
175200,1856.3,51.7,106.6,88.3,1198.0,6324.0,4.0,1,
175300,1859.8,54.7,106.6,240.5,1198.0,6324.0,4.0,1,
175400,1863.1,56.0,106.7,267.1,1198.0,6324.0,4.0,1,
175600,1862.7,53.8,106.7,243.0,1198.0,6324.0,4.0,1,
175700,1860.0,49.5,106.8,240.7,1198.0,6324.0,4.0,1,
175800,1860.5,49.7,106.7,265.9,1198.0,6324.0,4.0,1,
175900,1861.7,86.7,107.5,238.7,1200.0,6997.0,4.0,1,
176000,1852.3,147.3,109.8,92.6,976.0,5488.0,5.0,1,
176100,1879.4,55.7,102.5,74.6,1338.0,7693.0,4.0,1,
176200,1850.4,114.2,101.0,38.5,1416.0,8125.0,4.0,1,
176300,1855.8,122.3,105.7,29.3,1295.0,6979.0,5.0,1,
176400,1852.9,180.0,103.1,44.4,1236.0,7819.0,6.0,1,
176600,1863.0,54.0,111.6,41.2,1236.0,7819.0,6.0,1,
176700,1859.8,54.2,111.6,66.3,1236.0,7819.0,6.0,1,
176800,1860.7,50.7,111.5,86.4,1236.0,7819.0,6.0,1,
176900,1858.4,55.5,111.5,208.7,1236.0,7819.0,6.0,1,
177000,1861.9,51.6,111.4,240.4,1236.0,7819.0,6.0,1,
177100,1859.2,52.1,111.4,248.3,1236.0,7819.0,6.0,1,
177200,1859.5,49.9,111.4,239.7,1236.0,7819.0,6.0,1,
177300,1862.8,53.6,111.4,237.3,1236.0,7819.0,6.0,1,
177400,1860.5,54.9,111.5,239.8,1236.0,7819.0,6.0,1,
177600,1888.5,85.1,114.7,66.8,1062.0,6407.0,5.0,1,
177700,1842.5,120.1,112.2,42.9,768.0,5232.0,5.0,1,
177800,1854.8,76.8,111.8,41.7,817.0,4947.0,5.0,1,
177900,1873.0,126.9,115.2,40.7,969.0,6375.0,7.0,1,
178000,1854.8,121.9,116.7,37.9,910.0,5320.0,5.0,1,
178100,1861.4,58.0,108.1,77.0,1205.0,6651.0,7.0,1,
178200,1863.1,52.2,108.0,72.2,1205.0,6651.0,7.0,1,
178300,1862.3,49.8,107.9,66.9,1205.0,6651.0,7.0,1,
178400,1863.4,48.6,107.9,79.4,1205.0,6651.0,7.0,1,
178600,1861.1,49.8,107.9,240.2,1205.0,6651.0,7.0,1,
178700,1860.3,50.2,107.8,239.8,1205.0,6651.0,7.0,1,
178800,1860.8,51.5,107.8,239.4,1205.0,6651.0,7.0,1,
178900,1861.5,50.7,107.7,260.2,1205.0,6651.0,7.0,1,
179000,1860.2,52.5,107.7,264.9,1205.0,6651.0,7.0,1,
179100,1876.6,89.5,107.6,272.1,1076.0,5916.0,6.0,1,
179200,1849.3,101.0,100.7,125.8,720.0,4213.0,5.0,1,
179300,1865.1,69.6,97.9,70.6,845.0,4541.0,5.0,1,
179400,1854.5,139.6,97.0,45.8,641.0,4844.0,7.0,1,
179600,1889.5,62.8,90.1,34.4,1128.0,6858.0,7.0,1,
179700,1839.7,84.3,91.9,29.9,877.0,5484.0,7.0,1,
179800,1866.6,55.8,92.2,37.2,877.0,5484.0,7.0,1,
179900,1861.5,55.0,92.2,48.5,877.0,5484.0,7.0,1,
180000,1858.3,52.4,92.3,48.4,877.0,5484.0,7.0,1,
180100,1860.2,52.6,92.3,116.1,877.0,5484.0,7.0,1,
180200,1860.9,51.1,92.2,270.4,877.0,5484.0,7.0,1,
180300,1863.7,54.0,92.3,281.1,877.0,5484.0,7.0,1,
180400,1862.3,54.9,92.3,241.9,877.0,5484.0,7.0,1,
180600,1858.7,51.3,92.5,240.1,877.0,5484.0,7.0,1,
180700,1857.8,87.6,92.5,240.2,877.0,5484.0,7.0,1,
180800,1846.3,55.2,89.0,156.1,910.0,5296.0,6.0,1,
180900,1856.5,111.8,92.2,67.6,742.0,5131.0,9.0,1,
181000,1877.4,61.6,94.5,75.7,801.0,4587.0,6.0,1,
181100,1861.1,89.8,88.4,68.1,971.0,5810.0,7.0,1,
181200,1842.4,100.9,89.2,30.1,712.0,4154.0,7.0,1,
181300,1871.3,58.8,86.3,34.4,1010.0,5702.0,7.0,1,
181400,1862.0,54.3,85.1,29.3,1010.0,5702.0,7.0,1,
181600,1860.7,55.1,85.3,84.7,1010.0,5702.0,7.0,1,
181700,1857.3,52.2,85.5,126.0,1010.0,5702.0,7.0,1,
181800,1863.0,51.6,85.5,249.4,1010.0,5702.0,7.0,1,
181900,1861.9,53.0,85.7,283.0,1010.0,5702.0,7.0,1,
182000,1858.1,50.9,85.6,279.4,1010.0,5702.0,7.0,1,
182100,1861.0,52.4,85.6,278.9,1010.0,5702.0,7.0,1,
182200,1860.0,52.7,85.7,253.9,1010.0,5702.0,7.0,1,
182300,1862.5,51.8,85.7,244.5,1010.0,5702.0,7.0,1,
182400,1853.1,117.2,88.3,239.3,706.0,5047.0,7.0,1,
182600,1866.6,100.0,88.5,29.6,773.0,5216.0,8.0,1,
182700,1857.6,104.9,90.2,29.6,531.0,3495.0,8.0,1,
182800,1847.3,95.1,88.3,55.9,771.0,5042.0,7.0,1,
182900,1843.4,107.4,95.9,36.6,556.0,3806.0,7.0,1,
183000,1880.1,62.8,95.8,34.8,454.0,3230.0,7.0,1,
183100,1860.3,54.7,95.8,39.3,454.0,3230.0,7.0,1,
183200,1864.3,52.9,95.7,56.7,454.0,3230.0,7.0,1,
183300,1861.5,53.8,95.6,82.9,454.0,3230.0,7.0,1,
183400,1862.5,53.4,95.6,240.3,454.0,3230.0,7.0,1,
183600,1859.4,53.1,95.4,278.3,454.0,3230.0,7.0,1,
183700,1862.8,50.0,95.5,273.4,454.0,3230.0,7.0,1,
183800,1860.7,54.6,95.4,271.4,454.0,3230.0,7.0,1,
183900,1864.0,53.4,95.5,264.7,454.0,3230.0,7.0,1,
184000,1876.2,74.2,95.0,240.5,894.0,4685.0,6.0,1,
184100,1854.2,90.7,93.4,80.3,647.0,4660.0,8.0,1,
184200,1846.8,58.5,89.0,57.6,510.0,3411.0,8.0,1,
184300,1873.8,81.0,89.4,50.6,837.0,5103.0,8.0,1,
184400,1851.6,100.7,91.1,29.3,506.0,3695.0,8.0,1,
184600,1859.3,58.2,84.7,29.6,681.0,4568.0,7.0,1,
184700,1860.7,58.6,84.6,28.6,681.0,4568.0,7.0,1,
184800,1861.8,56.8,84.7,28.1,681.0,4568.0,7.0,1,
184900,1860.6,53.0,84.8,57.1,681.0,4568.0,7.0,1,
185000,1861.4,55.2,84.8,239.8,681.0,4568.0,7.0,1,
185100,1861.3,54.9,84.8,282.0,681.0,4568.0,7.0,1,
185200,1859.3,54.3,85.0,297.6,681.0,4568.0,7.0,1,
185300,1861.2,53.3,85.0,278.8,681.0,4568.0,7.0,1,
185400,1859.8,52.2,85.1,265.4,681.0,4568.0,7.0,1,
185600,1861.6,99.0,85.1,275.1,789.0,5062.0,7.0,1,
185700,1855.0,65.2,83.7,125.0,658.0,4054.0,6.0,1,
185800,1854.2,75.5,82.7,36.0,772.0,5125.0,8.0,1,
185900,1852.8,100.8,83.1,34.5,517.0,3588.0,7.0,1,
186000,1882.1,76.8,87.3,29.1,770.0,4493.0,7.0,1,
186100,1856.5,113.1,96.5,29.5,496.0,3997.0,10.0,1,
186200,1845.7,63.3,94.3,29.7,540.0,3481.0,7.0,1,
186300,1864.2,56.0,94.4,28.3,540.0,3481.0,7.0,1,
186400,1861.1,55.4,94.3,28.8,540.0,3481.0,7.0,1,
186600,1857.8,58.3,94.2,159.0,540.0,3481.0,7.0,1,
186700,1861.8,53.2,94.2,266.2,540.0,3481.0,7.0,1,
186800,1863.0,50.1,94.2,244.3,540.0,3481.0,7.0,1,
186900,1861.2,51.8,94.0,237.4,540.0,3481.0,7.0,1,
187000,1859.9,53.1,93.9,238.1,540.0,3481.0,7.0,1,
187100,1862.3,51.0,93.8,250.3,540.0,3481.0,7.0,1,
187200,1862.1,66.0,93.7,247.2,883.0,4800.0,6.0,1,
187300,1854.6,142.1,93.3,177.2,711.0,4634.0,7.0,1,
187400,1870.7,98.6,104.6,84.8,500.0,3533.0,7.0,1,
187600,1841.8,187.6,103.4,35.6,523.0,3862.0,7.0,1,
187700,1864.3,68.0,102.1,35.5,661.0,4190.0,7.0,1,
187800,1852.2,155.2,104.5,45.9,540.0,3972.0,7.0,1,
187900,1873.8,57.7,110.3,39.1,540.0,3972.0,7.0,1,
188000,1862.2,53.5,110.2,29.7,540.0,3972.0,7.0,1,
188100,1863.3,54.1,110.3,30.1,540.0,3972.0,7.0,1,
188200,1862.1,51.4,110.2,36.7,540.0,3972.0,7.0,1,
188300,1863.6,50.8,110.1,240.1,540.0,3972.0,7.0,1,
188400,1859.5,54.1,110.0,280.6,540.0,3972.0,7.0,1,
188600,1861.2,53.2,110.3,249.6,540.0,3972.0,7.0,1,
188700,1856.5,53.5,110.4,240.9,540.0,3972.0,7.0,1,
188800,1862.8,52.9,110.5,259.3,540.0,3972.0,7.0,1,
188900,1857.9,115.6,114.5,239.0,681.0,4327.0,5.0,1,
189000,1868.3,78.2,109.0,42.1,788.0,5179.0,8.0,1,
189100,1855.6,95.2,110.5,39.7,576.0,3798.0,8.0,1,
189200,1853.8,68.2,104.7,38.5,827.0,5135.0,7.0,1,
189300,1850.3,123.3,98.4,29.6,543.0,4011.0,10.0,1,
189400,1880.5,89.0,99.8,28.7,591.0,3926.0,7.0,1,
189600,1857.8,57.2,91.7,29.7,591.0,3926.0,7.0,1,
189700,1862.1,56.5,91.7,36.0,591.0,3926.0,7.0,1,
189800,1863.0,53.6,91.8,77.1,591.0,3926.0,7.0,1,
189900,1860.9,52.1,91.7,241.0,591.0,3926.0,7.0,1,
190000,1860.8,53.4,91.9,241.1,591.0,3926.0,7.0,1,
190100,1860.0,55.9,92.0,247.2,591.0,3926.0,7.0,1,
190200,1861.2,53.9,91.9,241.0,591.0,3926.0,7.0,1,
190300,1866.7,53.8,91.9,240.6,591.0,3926.0,7.0,1,
190400,1860.0,56.9,92.0,240.2,591.0,3926.0,7.0,1,
190600,1846.7,122.3,94.2,27.7,448.0,3490.0,6.0,1,
190700,1867.5,86.2,94.5,27.8,814.0,5196.0,7.0,1,
190800,1851.1,103.9,98.0,28.6,519.0,3524.0,7.0,1,
190900,1883.0,149.6,97.4,28.9,698.0,4025.0,8.0,1,
191000,1850.3,177.6,98.4,28.8,655.0,4515.0,7.0,1,
191100,1866.6,68.0,104.2,30.0,428.0,3331.0,8.0,1,
191200,1862.2,54.8,104.3,47.8,428.0,3331.0,8.0,1,
191300,1862.9,53.7,104.2,44.2,428.0,3331.0,8.0,1,
191400,1861.7,55.0,104.2,42.4,428.0,3331.0,8.0,1,
191600,1857.7,54.7,104.2,260.1,428.0,3331.0,8.0,1,
191700,1863.5,55.2,104.1,259.2,428.0,3331.0,8.0,1,
191800,1863.6,52.1,104.0,241.6,428.0,3331.0,8.0,1,
191900,1861.5,51.7,104.0,260.3,428.0,3331.0,8.0,1,
192000,1861.3,56.6,103.8,278.3,428.0,3331.0,8.0,1,
192100,1854.3,75.9,98.8,276.7,698.0,4439.0,5.0,1,
192200,1862.6,138.2,94.0,68.7,705.0,4709.0,7.0,1,
192300,1848.1,92.8,100.0,51.4,669.0,4041.0,7.0,1,
192400,1888.6,64.7,97.5,48.1,831.0,4801.0,8.0,1,
192600,1851.4,48.2,100.7,39.6,779.0,4283.0,7.0,1,
192700,1860.0,57.0,94.4,29.8,910.0,5508.0,7.0,1,
192800,1866.0,54.2,94.4,35.1,910.0,5508.0,7.0,1,
192900,1861.3,55.9,94.4,90.2,910.0,5508.0,7.0,1,
193000,1861.6,52.8,94.5,124.2,910.0,5508.0,7.0,1,
193100,1865.5,55.2,94.5,216.3,910.0,5508.0,7.0,1,
193200,1859.0,53.5,94.6,241.5,910.0,5508.0,7.0,1,
193300,1859.3,49.1,94.6,243.0,910.0,5508.0,7.0,1,
193400,1862.7,55.6,94.5,241.0,910.0,5508.0,7.0,1,
193600,1860.3,51.9,94.8,239.9,910.0,5508.0,7.0,1,
193700,1856.7,129.4,94.3,240.5,933.0,5492.0,8.0,1,
193800,1861.8,108.1,106.9,90.7,640.0,3866.0,6.0,1,
193900,1881.1,90.1,105.4,29.6,801.0,5404.0,8.0,1,
194000,1837.0,92.1,104.8,29.5,561.0,3977.0,10.0,1,
194100,1859.0,81.2,106.0,29.5,805.0,4349.0,7.0,1,
194200,1851.8,86.9,106.0,29.2,523.0,3995.0,9.0,1,
194300,1874.5,68.7,107.0,28.4,553.0,3376.0,7.0,1,
194400,1865.3,62.7,106.5,27.8,553.0,3376.0,7.0,1,
194600,1859.6,55.6,106.8,37.6,553.0,3376.0,7.0,1,
194700,1859.7,57.7,106.9,154.8,553.0,3376.0,7.0,1,
194800,1860.4,59.7,107.1,242.5,553.0,3376.0,7.0,1,
194900,1862.4,50.7,107.0,243.9,553.0,3376.0,7.0,1,
195000,1858.6,57.4,107.2,241.0,553.0,3376.0,7.0,1,
195100,1861.0,56.8,107.3,249.3,553.0,3376.0,7.0,1,
195200,1861.7,53.2,107.2,293.9,553.0,3376.0,7.0,1,
195300,1859.7,124.0,107.2,291.4,553.0,3376.0,7.0,1,
195400,1859.9,119.1,96.5,188.5,965.0,5647.0,6.0,1,
195600,1858.3,125.6,97.6,66.7,802.0,5005.0,7.0,1,
195700,1847.6,95.0,96.7,38.0,474.0,4087.0,8.0,1,
195800,1880.9,42.5,91.0,34.8,647.0,3935.0,7.0,1,
195900,1863.6,73.7,91.1,38.7,699.0,4704.0,7.0,1,
196000,1855.1,57.8,91.8,28.9,637.0,4332.0,7.0,1,
196100,1864.5,54.7,91.4,48.0,637.0,4332.0,7.0,1,
196200,1860.0,55.7,91.2,88.9,637.0,4332.0,7.0,1,
196300,1865.4,49.2,91.1,130.0,637.0,4332.0,7.0,1,
196400,1861.7,53.2,90.9,265.3,637.0,4332.0,7.0,1,
196600,1860.8,53.7,90.7,278.1,637.0,4332.0,7.0,1,
196700,1860.7,51.2,90.5,279.1,637.0,4332.0,7.0,1,
196800,1861.1,57.7,90.5,254.5,637.0,4332.0,7.0,1,
196900,1863.0,55.6,90.8,254.1,637.0,4332.0,7.0,1,
197000,1847.6,130.3,90.9,236.6,1016.0,5563.0,4.0,1,
197100,1861.4,74.1,90.6,67.2,904.0,5787.0,5.0,1,
197200,1852.7,115.8,95.4,66.4,705.0,4093.0,4.0,1,
197300,1893.8,54.9,91.3,66.4,1095.0,5890.0,7.0,1,
197400,1834.6,98.0,90.4,29.7,915.0,5455.0,7.0,1,
197600,1867.7,55.1,99.7,29.1,1133.0,6065.0,6.0,1,
197700,1861.3,58.3,99.7,29.2,1133.0,6065.0,6.0,1,
197800,1860.3,55.3,99.8,29.9,1133.0,6065.0,6.0,1,
197900,1860.3,56.8,100.0,85.4,1133.0,6065.0,6.0,1,
198000,1859.3,53.9,100.1,239.2,1133.0,6065.0,6.0,1,
198100,1861.8,54.2,100.2,268.0,1133.0,6065.0,6.0,1,
198200,1861.0,53.7,100.2,265.6,1133.0,6065.0,6.0,1,
198300,1866.1,57.5,100.2,266.1,1133.0,6065.0,6.0,1,
198400,1861.9,59.0,100.4,265.1,1133.0,6065.0,6.0,1,
198600,1868.3,98.9,100.8,243.2,1116.0,6627.0,7.0,1,
198700,1855.8,178.6,100.1,100.5,563.0,3742.0,8.0,1,
198800,1871.7,86.4,100.8,65.8,884.0,5072.0,8.0,1,
198900,1851.9,71.0,100.1,29.6,719.0,4405.0,7.0,1,
199000,1858.5,90.1,105.9,29.1,1075.0,5786.0,7.0,1,
199100,1862.2,160.7,96.5,29.0,1005.0,5264.0,3.0,1,
199200,1871.8,67.6,105.6,29.1,870.0,3865.0,3.0,1,
199300,1862.8,57.3,105.7,28.8,870.0,3865.0,3.0,1,
199400,1858.0,59.2,105.8,28.2,870.0,3865.0,3.0,1,
199600,1861.5,62.4,106.1,233.3,870.0,3865.0,3.0,1,
199700,1858.5,57.0,106.2,298.5,870.0,3865.0,3.0,1,
199800,1860.5,54.6,106.3,271.0,870.0,3865.0,3.0,1,
199900,1860.0,56.0,106.3,242.9,870.0,3865.0,3.0,1,
200000,1861.9,54.4,106.3,296.3,870.0,3865.0,3.0,1,
200100,1861.1,60.7,106.3,299.6,870.0,3865.0,3.0,1,
200200,1856.8,72.6,106.4,298.8,699.0,4136.0,6.0,1,
200300,1874.5,85.4,105.5,158.8,910.0,5263.0,6.0,1,
200400,1846.3,128.9,104.0,75.4,490.0,3946.0,9.0,1,
200600,1853.0,108.8,112.0,36.0,631.0,4287.0,7.0,1,
200700,1871.8,81.4,117.6,30.0,505.0,3381.0,7.0,1,
200800,1859.1,59.4,108.7,37.4,733.0,4670.0,7.0,1,
200900,1856.1,57.1,109.0,39.1,733.0,4670.0,7.0,1,
201000,1863.5,59.6,109.0,44.1,733.0,4670.0,7.0,1,
201100,1859.0,59.0,109.1,89.4,733.0,4670.0,7.0,1,
201200,1866.5,57.2,109.0,239.6,733.0,4670.0,7.0,1,
201300,1864.8,57.8,108.9,240.8,733.0,4670.0,7.0,1,
201400,1858.3,56.8,108.9,242.3,733.0,4670.0,7.0,1,
201600,1862.4,52.3,108.8,241.2,733.0,4670.0,7.0,1,
201700,1864.3,52.0,108.7,239.7,733.0,4670.0,7.0,1,
201800,1863.3,139.1,108.5,260.7,733.0,4670.0,7.0,1,
201900,1865.6,90.2,106.5,219.0,507.0,4005.0,7.0,1,
202000,1861.3,58.6,105.9,56.2,748.0,4721.0,8.0,1,
202100,1850.0,153.9,101.4,41.2,595.0,3986.0,9.0,1,
202200,1868.0,178.1,101.2,36.0,638.0,3648.0,7.0,1,
202300,1871.8,78.5,94.5,28.8,679.0,4315.0,8.0,1,
202400,1848.9,108.2,101.0,28.8,467.0,2906.0,7.0,1,
202600,1863.6,54.1,100.7,29.1,467.0,2906.0,7.0,1,
202700,1858.2,51.1,100.5,29.7,467.0,2906.0,7.0,1,
202800,1861.2,55.4,100.3,40.2,467.0,2906.0,7.0,1,
202900,1857.2,51.7,100.2,239.5,467.0,2906.0,7.0,1,
203000,1858.9,50.9,100.2,266.6,467.0,2906.0,7.0,1,
203100,1861.9,51.4,99.9,267.6,467.0,2906.0,7.0,1,
203200,1863.3,51.9,99.9,253.1,467.0,2906.0,7.0,1,
203300,1861.0,52.0,99.8,242.1,467.0,2906.0,7.0,1,
203400,1863.9,52.5,99.8,241.1,467.0,2906.0,7.0,1,
203600,1856.6,93.9,100.1,93.0,554.0,3734.0,8.0,1,
203700,1885.5,56.1,100.8,66.3,713.0,3740.0,8.0,1,
203800,1849.8,73.4,90.9,30.0,740.0,4661.0,9.0,1,
203900,1856.9,80.1,93.1,28.8,458.0,3201.0,9.0,1,
204000,1867.6,63.6,91.4,28.0,597.0,3882.0,8.0,1,
204100,1855.1,55.8,84.9,28.9,568.0,3619.0,9.0,1,
204200,1860.3,56.3,84.9,29.4,568.0,3619.0,9.0,1,
204300,1858.0,52.3,84.8,35.1,568.0,3619.0,9.0,1,
204400,1862.8,52.1,84.8,92.5,568.0,3619.0,9.0,1,
204600,1861.3,51.7,84.9,267.3,568.0,3619.0,9.0,1,
204700,1860.4,51.6,84.9,242.3,568.0,3619.0,9.0,1,
204800,1862.5,52.7,84.9,240.4,568.0,3619.0,9.0,1,
204900,1862.8,50.6,84.9,238.9,568.0,3619.0,9.0,1,
205000,1862.1,53.7,85.0,240.1,568.0,3619.0,9.0,1,
205100,1854.5,92.6,85.9,251.8,706.0,5091.0,10.0,1,
205200,1876.1,135.7,83.9,56.7,761.0,4752.0,6.0,1,
205300,1862.5,122.8,89.7,35.9,735.0,4910.0,8.0,1,
205400,1856.2,133.4,91.3,35.2,512.0,3367.0,8.0,1,
205600,1853.6,85.5,97.9,29.4,434.0,2897.0,8.0,1,
205700,1877.4,59.6,98.0,29.5,612.0,3286.0,8.0,1,
205800,1860.1,60.1,98.3,28.2,612.0,3286.0,8.0,1,
205900,1862.7,58.4,98.5,28.6,612.0,3286.0,8.0,1,
206000,1863.7,60.0,98.8,51.7,612.0,3286.0,8.0,1,
206100,1860.8,60.2,99.1,237.5,612.0,3286.0,8.0,1,
206200,1857.3,62.0,99.4,241.0,612.0,3286.0,8.0,1,
206300,1863.3,59.6,99.8,259.2,612.0,3286.0,8.0,1,
206400,1860.3,57.2,100.1,260.0,612.0,3286.0,8.0,1,
206600,1862.0,59.3,100.8,240.9,612.0,3286.0,8.0,1,
206700,1872.4,132.6,105.4,271.4,803.0,4555.0,7.0,1,
206800,1846.5,125.3,109.1,90.3,503.0,4052.0,6.0,1,
206900,1859.2,54.3,108.2,75.9,760.0,4341.0,9.0,1,
207000,1854.5,78.5,107.7,51.8,698.0,4261.0,8.0,1,
207100,1873.8,107.3,111.2,30.0,490.0,3100.0,9.0,1,
207200,1864.8,111.9,101.7,28.0,662.0,4220.0,8.0,1,
207300,1854.2,88.2,109.2,35.8,423.0,2829.0,8.0,1,
207400,1860.1,62.0,109.5,34.3,423.0,2829.0,8.0,1,
207600,1860.2,64.4,109.9,34.5,423.0,2829.0,8.0,1,
207700,1863.5,58.0,110.1,88.7,423.0,2829.0,8.0,1,
207800,1860.6,60.4,110.0,239.4,423.0,2829.0,8.0,1,
207900,1858.1,59.2,110.1,238.5,423.0,2829.0,8.0,1,
208000,1861.3,63.6,110.0,238.8,423.0,2829.0,8.0,1,
208100,1860.0,57.9,110.1,240.8,423.0,2829.0,8.0,1,
208200,1863.4,60.9,110.1,263.9,423.0,2829.0,8.0,1,
208300,1858.7,86.1,110.1,283.2,423.0,2829.0,8.0,1,
208400,1860.4,85.4,109.3,178.6,761.0,5240.0,7.0,1,
208600,1871.3,183.3,105.0,45.1,638.0,3625.0,9.0,1,
208700,1871.5,81.3,103.4,29.6,704.0,4409.0,9.0,1,
208800,1859.3,156.7,104.4,28.5,445.0,2790.0,10.0,1,
208900,1846.8,69.1,102.9,28.4,631.0,4251.0,7.0,1,
209000,1866.4,56.7,102.5,29.1,631.0,4251.0,7.0,1,
209100,1860.1,57.7,102.3,29.0,631.0,4251.0,7.0,1,
209200,1862.9,58.0,102.0,30.0,631.0,4251.0,7.0,1,
209300,1863.0,56.6,101.8,156.8,631.0,4251.0,7.0,1,
209400,1860.7,60.3,101.8,241.6,631.0,4251.0,7.0,1,
209600,1861.2,59.3,101.5,240.9,631.0,4251.0,7.0,1,
209700,1863.5,58.0,101.4,239.7,631.0,4251.0,7.0,1,
209800,1861.8,59.2,101.3,252.3,631.0,4251.0,7.0,1,
209900,1858.8,54.0,101.3,249.2,631.0,4251.0,7.0,1,
210000,1846.0,120.4,96.8,215.2,687.0,4935.0,7.0,1,
210100,1888.1,72.3,97.2,34.4,802.0,4355.0,8.0,1,
210200,1855.3,117.6,99.7,29.7,737.0,4766.0,7.0,1,
210300,1855.5,65.7,93.4,30.0,466.0,3126.0,8.0,1,
210400,1869.5,89.6,97.6,34.3,717.0,4505.0,8.0,1,
210600,1871.1,68.4,94.9,41.4,456.0,2922.0,8.0,1,
210700,1856.7,60.9,95.3,49.0,456.0,2922.0,8.0,1,
210800,1861.9,57.4,95.3,36.6,456.0,2922.0,8.0,1,
210900,1864.9,57.9,95.3,40.6,456.0,2922.0,8.0,1,
211000,1858.4,62.9,95.4,240.1,456.0,2922.0,8.0,1,
211100,1859.3,55.0,95.5,240.6,456.0,2922.0,8.0,1,
211200,1858.1,56.8,95.4,240.2,456.0,2922.0,8.0,1,
211300,1866.6,56.6,95.3,240.7,456.0,2922.0,8.0,1,
211400,1861.1,56.9,95.2,240.4,456.0,2922.0,8.0,1,
211600,1868.0,215.5,94.3,282.4,966.0,5860.0,7.0,1,
211700,1848.9,111.6,103.6,67.2,607.0,4438.0,9.0,1,
211800,1862.7,48.4,105.7,36.2,713.0,3884.0,8.0,1,
211900,1855.8,93.5,100.4,35.1,677.0,4486.0,9.0,1,
212000,1851.0,81.5,100.9,29.7,443.0,2849.0,9.0,1,
212100,1881.4,67.1,96.1,28.2,601.0,3862.0,7.0,1,
212200,1852.3,57.4,94.6,28.9,621.0,3986.0,8.0,1,
212300,1860.7,62.0,94.3,29.5,621.0,3986.0,8.0,1,
212400,1861.8,56.6,94.3,35.0,621.0,3986.0,8.0,1,
212600,1862.8,54.3,94.3,240.0,621.0,3986.0,8.0,1,
212700,1860.9,56.6,94.1,240.6,621.0,3986.0,8.0,1,
212800,1861.0,55.2,94.3,240.2,621.0,3986.0,8.0,1,
212900,1859.7,56.2,94.4,240.4,621.0,3986.0,8.0,1,
213000,1862.6,55.7,94.5,240.6,621.0,3986.0,8.0,1,
213100,1860.9,56.1,94.4,268.5,621.0,3986.0,8.0,1,
213200,1875.0,137.1,94.5,273.5,631.0,4583.0,8.0,1,
213300,1846.1,110.9,84.1,67.2,743.0,4266.0,5.0,1,
213400,1855.1,144.0,93.9,35.5,706.0,4592.0,8.0,1,
213600,1879.2,136.1,100.3,39.8,732.0,4544.0,8.0,1,
213700,1842.8,61.9,102.1,38.4,446.0,3061.0,10.0,1,
213800,1869.2,49.6,101.4,28.0,563.0,3397.0,7.0,1,
213900,1866.0,60.1,101.5,40.0,563.0,3397.0,7.0,1,
214000,1862.1,58.1,101.3,66.6,563.0,3397.0,7.0,1,
214100,1861.1,58.4,101.4,89.9,563.0,3397.0,7.0,1,
214200,1861.1,56.6,101.4,240.2,563.0,3397.0,7.0,1,
214300,1861.6,57.0,101.5,241.1,563.0,3397.0,7.0,1,
214400,1861.5,57.6,101.4,242.5,563.0,3397.0,7.0,1,
214600,1858.8,62.9,101.5,240.7,563.0,3397.0,7.0,1,
214700,1859.2,59.6,101.7,243.1,563.0,3397.0,7.0,1,
214800,1859.9,73.7,101.7,241.3,833.0,4737.0,7.0,1,
214900,1846.2,176.3,103.5,220.7,618.0,4678.0,6.0,1,
215000,1868.6,124.7,104.9,30.0,693.0,3753.0,7.0,1,
215100,1870.8,68.3,100.7,29.2,783.0,5011.0,7.0,1,
215200,1858.2,119.8,108.8,29.4,493.0,3305.0,8.0,1,
215300,1850.2,106.4,114.3,29.7,678.0,4480.0,8.0,1,
215400,1844.9,76.1,115.2,28.8,478.0,3195.0,10.0,1,
215600,1863.7,60.8,115.6,28.3,478.0,3195.0,10.0,1,
215700,1861.3,60.3,115.6,29.8,478.0,3195.0,10.0,1,
215800,1859.7,60.0,115.6,115.3,478.0,3195.0,10.0,1,
215900,1859.5,57.0,115.6,241.4,478.0,3195.0,10.0,1,
216000,1855.9,60.1,115.5,274.4,478.0,3195.0,10.0,1,
216100,1860.3,57.5,115.6,261.1,478.0,3195.0,10.0,1,
216200,1858.9,57.4,115.5,240.3,478.0,3195.0,10.0,1,
216300,1860.9,61.4,115.4,242.0,478.0,3195.0,10.0,1,
216400,1860.8,120.7,115.4,248.5,478.0,3195.0,10.0,1,
216600,1857.3,187.0,116.4,38.1,826.0,5251.0,9.0,1,
216700,1845.8,166.3,114.9,36.6,484.0,3143.0,8.0,1,
216800,1863.2,66.1,119.5,28.8,726.0,4490.0,8.0,1,
216900,1851.3,106.3,110.6,28.5,453.0,3114.0,7.0,1,
217000,1876.6,96.4,108.5,28.5,545.0,3383.0,7.0,1,
217100,1864.3,60.7,109.6,28.5,615.0,3971.0,8.0,1,
217200,1860.6,59.5,109.6,29.6,615.0,3971.0,8.0,1,
217300,1865.1,59.6,109.5,35.9,615.0,3971.0,8.0,1,
217400,1860.5,57.2,109.4,69.2,615.0,3971.0,8.0,1,
217600,1861.3,57.3,109.5,242.8,615.0,3971.0,8.0,1,
217700,1863.5,57.8,109.4,240.8,615.0,3971.0,8.0,1,
217800,1864.5,62.6,109.3,240.6,615.0,3971.0,8.0,1,
217900,1861.6,57.5,109.4,240.9,615.0,3971.0,8.0,1,
218000,1864.0,61.4,109.4,240.2,615.0,3971.0,8.0,1,
218100,1857.1,221.4,105.6,239.7,822.0,5577.0,7.0,1,
218200,1858.7,97.2,106.5,86.5,496.0,3554.0,6.0,1,
218300,1859.8,91.4,106.5,30.1,826.0,5203.0,8.0,1,
218400,1849.4,126.7,102.3,28.9,460.0,3039.0,7.0,1,
218600,1863.1,84.9,102.5,45.5,576.0,3888.0,10.0,1,
218700,1850.5,65.9,98.8,39.4,403.0,2729.0,8.0,1,
218800,1861.2,61.7,98.8,28.7,403.0,2729.0,8.0,1,
218900,1860.6,62.8,99.0,30.0,403.0,2729.0,8.0,1,
219000,1859.4,60.0,99.2,38.6,403.0,2729.0,8.0,1,
219100,1860.8,56.1,99.2,240.4,403.0,2729.0,8.0,1,
219200,1860.6,58.3,99.2,249.5,403.0,2729.0,8.0,1,
219300,1859.6,58.1,99.2,242.7,403.0,2729.0,8.0,1,
219400,1863.8,58.9,99.2,241.2,403.0,2729.0,8.0,1,
219600,1858.6,56.7,99.0,244.4,403.0,2729.0,8.0,1,
219700,1858.8,77.1,97.8,240.5,950.0,5444.0,7.0,1,
219800,1859.1,79.0,89.3,104.2,751.0,5196.0,9.0,1,
219900,1864.0,68.8,87.0,71.8,495.0,3435.0,8.0,1,
220000,1882.3,59.3,82.5,70.5,776.0,4804.0,8.0,1,
220100,1842.2,93.8,78.6,29.6,610.0,3978.0,10.0,1,
220200,1861.3,63.9,79.7,28.3,549.0,3480.0,7.0,1,
220300,1866.2,62.9,78.5,28.9,703.0,4363.0,9.0,1,
220400,1859.7,59.7,78.4,28.8,703.0,4363.0,9.0,1,
220600,1858.9,60.1,78.0,87.0,703.0,4363.0,9.0,1,
220700,1861.6,59.5,78.0,239.7,703.0,4363.0,9.0,1,
220800,1860.0,59.4,77.9,240.8,703.0,4363.0,9.0,1,
220900,1859.0,56.8,78.0,240.5,703.0,4363.0,9.0,1,
221000,1860.4,54.6,77.9,239.9,703.0,4363.0,9.0,1,
221100,1863.9,57.6,77.7,239.4,703.0,4363.0,9.0,1,
221200,1862.9,57.2,77.8,240.4,703.0,4363.0,9.0,1,
221300,1845.0,70.0,77.9,244.4,739.0,4925.0,7.0,1,
221400,1871.8,68.5,78.3,139.2,559.0,4123.0,5.0,1,
221600,1857.7,117.4,81.3,29.9,624.0,4102.0,7.0,1,
221700,1856.8,108.0,81.5,28.1,788.0,4378.0,7.0,1,
221800,1840.7,177.1,87.7,28.8,563.0,4243.0,7.0,1,
221900,1874.6,81.5,100.2,29.9,461.0,3225.0,6.0,1,
222000,1858.4,61.7,100.0,34.5,461.0,3225.0,6.0,1,
222100,1861.7,62.5,100.1,28.7,461.0,3225.0,6.0,1,
222200,1859.6,59.6,100.3,29.1,461.0,3225.0,6.0,1,
222300,1862.0,60.3,100.5,81.3,461.0,3225.0,6.0,1,
222400,1860.9,60.7,100.5,249.5,461.0,3225.0,6.0,1,
222600,1860.1,61.9,100.8,272.5,461.0,3225.0,6.0,1,
222700,1861.5,60.6,101.0,298.3,461.0,3225.0,6.0,1,
222800,1856.8,57.5,101.2,265.4,461.0,3225.0,6.0,1,
222900,1858.8,58.4,101.2,240.2,461.0,3225.0,6.0,1,
223000,1873.2,80.5,100.7,239.3,954.0,5288.0,6.0,1,
223100,1844.6,123.2,106.2,92.2,541.0,4209.0,9.0,1,
223200,1862.7,64.4,109.0,68.2,860.0,4802.0,7.0,1,
223300,1850.1,81.7,106.6,30.1,585.0,4068.0,9.0,1,
223400,1884.7,116.4,107.4,27.3,620.0,3598.0,6.0,1,
223600,1864.5,65.0,106.0,28.5,694.0,4656.0,8.0,1,
223700,1861.3,61.3,105.8,26.9,694.0,4656.0,8.0,1,
223800,1862.2,56.1,105.6,28.8,694.0,4656.0,8.0,1,
223900,1862.4,55.8,105.3,35.6,694.0,4656.0,8.0,1,
224000,1863.1,56.6,105.2,213.4,694.0,4656.0,8.0,1,
224100,1861.5,54.0,104.9,274.2,694.0,4656.0,8.0,1,
224200,1858.7,59.3,104.9,268.5,694.0,4656.0,8.0,1,
224300,1858.7,59.9,104.8,263.1,694.0,4656.0,8.0,1,
224400,1859.4,62.3,104.6,275.2,694.0,4656.0,8.0,1,
224600,1859.6,106.9,106.3,241.0,746.0,5137.0,5.0,1,
224700,1868.6,94.4,109.6,52.6,885.0,5569.0,7.0,1,
224800,1843.8,96.5,103.7,66.1,628.0,4543.0,8.0,1,
224900,1879.6,187.2,104.0,72.8,819.0,4058.0,7.0,1,
225000,1856.7,93.8,107.5,81.9,1003.0,6234.0,7.0,1,
225100,1854.5,80.1,108.3,28.0,1035.0,5238.0,5.0,1,
225200,1866.6,59.1,98.1,28.1,1270.0,6357.0,4.0,1,
225300,1859.3,61.8,98.2,29.8,1270.0,6357.0,4.0,1,
225400,1859.3,61.0,98.3,56.0,1270.0,6357.0,4.0,1,
225600,1859.5,58.0,98.7,250.9,1270.0,6357.0,4.0,1,
225700,1861.8,58.2,98.8,298.5,1270.0,6357.0,4.0,1,
225800,1859.6,54.5,98.9,280.4,1270.0,6357.0,4.0,1,
225900,1860.5,59.8,98.7,241.0,1270.0,6357.0,4.0,1,
226000,1861.6,57.4,98.8,243.5,1270.0,6357.0,4.0,1,
226100,1861.8,61.1,98.7,294.5,1270.0,6357.0,4.0,1,
226200,1847.2,84.7,98.3,290.7,1013.0,6057.0,7.0,1,
226300,1872.3,127.7,102.5,106.2,541.0,4366.0,8.0,1,
226400,1883.6,69.4,101.0,57.5,890.0,4647.0,8.0,1,
226600,1863.0,80.2,96.8,29.4,769.0,3737.0,8.0,1,
226700,1850.9,85.9,100.9,29.0,888.0,5179.0,7.0,1,
226800,1867.0,77.6,102.5,29.3,620.0,4379.0,8.0,1,
226900,1863.0,59.2,102.5,35.3,620.0,4379.0,8.0,1,
227000,1862.1,59.0,102.5,37.4,620.0,4379.0,8.0,1,
227100,1862.3,59.8,102.5,37.8,620.0,4379.0,8.0,1,
227200,1860.2,60.1,102.5,237.9,620.0,4379.0,8.0,1,
227300,1862.2,57.9,102.6,291.1,620.0,4379.0,8.0,1,
227400,1863.2,59.5,102.5,298.3,620.0,4379.0,8.0,1,
227600,1857.6,61.3,102.6,298.8,620.0,4379.0,8.0,1,
227700,1858.4,58.5,102.7,298.6,620.0,4379.0,8.0,1,
227800,1872.4,109.3,102.8,298.9,665.0,4405.0,8.0,1,
227900,1854.8,87.9,94.2,92.8,815.0,4465.0,6.0,1,
228000,1852.8,99.8,94.3,36.7,926.0,5624.0,9.0,1,
228100,1866.4,118.5,96.8,36.0,783.0,3995.0,8.0,1,
228200,1846.7,143.8,95.6,38.2,903.0,5369.0,9.0,1,
228300,1865.5,208.6,99.8,29.1,533.0,3585.0,8.0,1,
228400,1873.8,63.6,103.1,27.3,1061.0,5765.0,7.0,1,
228600,1860.9,60.0,103.0,39.4,1061.0,5765.0,7.0,1,
228700,1860.4,58.3,103.0,66.9,1061.0,5765.0,7.0,1,
228800,1861.0,59.6,103.0,216.9,1061.0,5765.0,7.0,1,
228900,1861.9,57.9,102.9,294.5,1061.0,5765.0,7.0,1,
229000,1862.0,60.4,103.1,261.9,1061.0,5765.0,7.0,1,
229100,1859.6,56.3,103.1,279.5,1061.0,5765.0,7.0,1,
229200,1858.4,55.2,103.1,269.9,1061.0,5765.0,7.0,1,
229300,1862.1,55.0,103.0,282.9,1061.0,5765.0,7.0,1,
229400,1863.0,104.1,103.0,290.5,1061.0,5765.0,7.0,1,
229600,1857.1,69.1,106.6,70.6,730.0,4077.0,8.0,1,
229700,1855.1,74.8,103.8,30.0,974.0,6057.0,9.0,1,
229800,1880.4,156.1,111.5,29.4,636.0,3623.0,7.0,1,
229900,1850.3,88.2,105.6,28.2,770.0,4814.0,7.0,1,
230000,1854.5,85.5,98.2,28.8,640.0,4465.0,8.0,1,
230100,1866.2,57.9,98.7,28.8,602.0,4048.0,8.0,1,
230200,1862.6,58.5,98.7,28.9,602.0,4048.0,8.0,1,
230300,1860.3,61.4,98.6,29.8,602.0,4048.0,8.0,1,
230400,1866.0,57.6,98.7,55.8,602.0,4048.0,8.0,1,
230600,1864.0,59.6,98.5,243.0,602.0,4048.0,8.0,1,
230700,1861.2,59.0,98.6,241.8,602.0,4048.0,8.0,1,
230800,1862.9,55.1,98.6,243.1,602.0,4048.0,8.0,1,
230900,1861.3,58.5,98.6,268.6,602.0,4048.0,8.0,1,
231000,1862.7,57.5,98.6,267.9,602.0,4048.0,8.0,1,
231100,1862.9,74.8,100.7,239.2,1033.0,5436.0,5.0,1,
231200,1863.5,79.4,97.9,38.2,746.0,5392.0,9.0,1,
231300,1872.6,75.1,99.3,37.4,535.0,3777.0,8.0,1,
231400,1857.7,86.9,96.2,37.6,829.0,4870.0,7.0,1,
231600,1848.2,71.9,91.4,34.5,686.0,3822.0,8.0,1,
231700,1870.0,56.9,91.3,28.7,708.0,4286.0,8.0,1,
231800,1859.7,58.5,91.2,28.5,708.0,4286.0,8.0,1,
231900,1857.6,57.2,91.4,35.0,708.0,4286.0,8.0,1,
232000,1857.6,55.7,91.5,93.4,708.0,4286.0,8.0,1,
232100,1858.4,58.5,91.5,298.0,708.0,4286.0,8.0,1,
232200,1862.2,57.0,91.5,297.9,708.0,4286.0,8.0,1,
232300,1864.3,56.5,91.5,298.7,708.0,4286.0,8.0,1,
232400,1862.3,57.4,91.4,298.6,708.0,4286.0,8.0,1,
232600,1863.4,59.3,91.4,242.1,708.0,4286.0,8.0,1,
232700,1855.7,127.5,89.4,240.2,866.0,5955.0,6.0,1,
232800,1871.0,76.2,91.8,76.1,417.0,3234.0,6.0,1,
232900,1854.2,85.6,90.3,29.4,883.0,5437.0,8.0,1,
233000,1845.9,130.7,86.1,29.3,462.0,3505.0,7.0,1,
233100,1859.5,55.7,87.8,29.2,715.0,4318.0,7.0,1,
233200,1871.2,97.5,87.8,29.2,677.0,4469.0,8.0,1,
233300,1859.3,70.6,89.8,29.0,488.0,3193.0,7.0,1,
233400,1862.4,60.6,90.0,28.2,488.0,3193.0,7.0,1,
233600,1859.4,63.5,89.8,35.8,488.0,3193.0,7.0,1,
233700,1861.1,60.2,89.8,195.7,488.0,3193.0,7.0,1,
233800,1863.7,56.4,89.7,239.9,488.0,3193.0,7.0,1,
233900,1861.5,58.7,89.7,252.4,488.0,3193.0,7.0,1,
234000,1860.9,55.3,89.7,273.1,488.0,3193.0,7.0,1,
234100,1861.3,59.6,89.6,262.3,488.0,3193.0,7.0,1,
234200,1858.2,58.9,89.7,245.0,488.0,3193.0,7.0,1,
234300,1887.4,98.2,89.6,240.5,671.0,4309.0,6.0,1,
234400,1832.4,145.6,85.6,125.3,1008.0,5993.0,6.0,1,
234600,1858.4,90.7,95.0,66.9,859.0,5245.0,7.0,1,
234700,1876.0,158.8,98.0,35.1,673.0,4633.0,9.0,1,
234800,1864.5,172.2,103.6,29.1,826.0,4312.0,7.0,1,
234900,1855.4,68.3,106.5,29.2,912.0,5194.0,7.0,1,
235000,1864.8,61.0,106.3,29.3,912.0,5194.0,7.0,1,
235100,1862.7,61.8,106.4,29.0,912.0,5194.0,7.0,1,
235200,1861.5,59.0,106.4,35.6,912.0,5194.0,7.0,1,
235300,1864.5,58.8,106.3,218.3,912.0,5194.0,7.0,1,
235400,1860.8,62.1,106.4,259.0,912.0,5194.0,7.0,1,
235600,1863.6,58.8,106.4,245.4,912.0,5194.0,7.0,1,
235700,1858.4,59.5,106.4,252.8,912.0,5194.0,7.0,1,
235800,1861.1,58.5,106.5,240.8,912.0,5194.0,7.0,1,
235900,1859.7,79.4,106.4,243.0,912.0,5194.0,7.0,1,
236000,1845.4,78.2,107.4,227.3,862.0,4341.0,6.0,1,
236100,1850.5,117.6,103.6,36.8,846.0,5287.0,7.0,1,
236200,1881.6,124.1,104.5,34.6,617.0,4472.0,10.0,1,
236300,1866.6,64.3,104.0,28.2,804.0,4056.0,8.0,1,
236400,1850.5,102.5,96.5,28.2,741.0,4652.0,7.0,1,
236600,1863.0,64.2,94.1,28.0,741.0,4652.0,7.0,1,
236700,1860.0,60.1,94.2,28.3,741.0,4652.0,7.0,1,
236800,1861.0,57.1,94.1,29.6,741.0,4652.0,7.0,1,
236900,1862.3,56.6,94.0,74.8,741.0,4652.0,7.0,1,
237000,1864.4,58.9,94.0,262.2,741.0,4652.0,7.0,1,
237100,1863.0,61.2,94.0,264.8,741.0,4652.0,7.0,1,
237200,1862.6,64.3,94.1,249.7,741.0,4652.0,7.0,1,
237300,1861.3,56.9,94.3,242.5,741.0,4652.0,7.0,1,
237400,1861.6,59.2,94.1,242.6,741.0,4652.0,7.0,1,
237600,1854.2,58.5,93.3,240.3,912.0,5601.0,6.0,1,
237700,1879.3,127.8,103.6,110.8,599.0,3927.0,9.0,1,
237800,1845.4,143.4,96.5,78.1,809.0,4496.0,8.0,1,
237900,1854.4,94.0,100.7,36.8,706.0,4526.0,9.0,1,
238000,1869.0,64.2,103.9,34.4,811.0,4368.0,7.0,1,
238100,1855.0,93.0,97.5,45.8,763.0,5173.0,7.0,1,
238200,1866.4,61.0,98.9,52.5,726.0,4885.0,3.0,1,
238300,1864.5,58.8,98.8,41.3,726.0,4885.0,3.0,1,
238400,1862.3,61.9,98.7,35.7,726.0,4885.0,3.0,1,
238600,1863.3,53.9,98.9,263.8,726.0,4885.0,3.0,1,
238700,1861.6,58.6,98.8,295.2,726.0,4885.0,3.0,1,
238800,1862.3,60.2,98.8,292.8,726.0,4885.0,3.0,1,
238900,1863.8,59.8,98.6,271.7,726.0,4885.0,3.0,1,
239000,1861.6,62.5,98.8,241.2,726.0,4885.0,3.0,1,
239100,1860.5,59.4,98.8,239.9,726.0,4885.0,3.0,1,
239200,1866.3,226.9,99.5,240.1,716.0,4619.0,7.0,1,
239300,1853.8,77.0,97.3,38.4,784.0,4693.0,5.0,1,
239400,1864.7,126.6,97.4,29.9,422.0,3570.0,7.0,1,
239600,1856.6,110.0,90.4,27.9,594.0,4188.0,10.0,1,
239700,1882.3,80.5,95.9,28.5,388.0,2846.0,7.0,1,
239800,1847.1,63.8,94.4,29.3,578.0,3700.0,7.0,1,
239900,1861.9,61.1,94.5,28.3,578.0,3700.0,7.0,1,
240000,1856.8,57.7,94.6,27.7,578.0,3700.0,7.0,1,
240100,1861.0,57.8,94.6,40.9,578.0,3700.0,7.0,1,
240200,1860.7,57.3,94.6,248.5,578.0,3700.0,7.0,1,
240300,1862.6,58.5,94.5,298.9,578.0,3700.0,7.0,1,
240400,1863.4,62.0,94.5,253.7,578.0,3700.0,7.0,1,
240600,1858.0,57.6,94.5,267.4,578.0,3700.0,7.0,1,
240700,1862.8,60.4,94.5,252.3,578.0,3700.0,7.0,1,
240800,1864.8,148.9,102.3,240.4,1028.0,5930.0,6.0,1,
240900,1849.3,124.7,96.9,86.0,574.0,3547.0,3.0,1,
241000,1854.1,67.2,98.8,73.7,954.0,5989.0,8.0,1,
241100,1892.5,97.4,98.7,70.7,1016.0,6652.0,8.0,1,
241200,1851.8,77.4,102.5,66.9,888.0,4669.0,7.0,1,
241300,1848.9,78.5,99.8,39.4,1152.0,6060.0,7.0,1,
241400,1865.8,105.4,106.9,29.6,823.0,4585.0,7.0,1,
241600,1861.5,60.5,107.1,28.7,823.0,4585.0,7.0,1,
241700,1861.2,62.9,107.1,29.3,823.0,4585.0,7.0,1,
241800,1860.0,59.1,107.2,41.6,823.0,4585.0,7.0,1,
241900,1860.6,63.2,107.3,242.4,823.0,4585.0,7.0,1,
242000,1860.2,60.7,107.4,241.0,823.0,4585.0,7.0,1,
242100,1860.1,57.6,107.3,242.0,823.0,4585.0,7.0,1,
242200,1859.7,61.5,107.2,254.2,823.0,4585.0,7.0,1,
242300,1863.1,58.6,107.2,264.1,823.0,4585.0,7.0,1,
242400,1859.8,86.1,107.2,251.1,671.0,4424.0,3.0,1,
242600,1878.2,121.7,99.4,65.6,832.0,5959.0,4.0,1,
242700,1848.6,60.2,100.5,66.1,1173.0,5893.0,7.0,1,
242800,1860.8,117.6,110.9,37.4,1216.0,6680.0,7.0,1,
242900,1853.4,87.9,110.8,29.6,948.0,4918.0,7.0,1,
243000,1849.2,59.4,106.8,39.2,1258.0,6687.0,7.0,1,
243100,1873.4,63.6,102.0,39.0,1258.0,6687.0,7.0,1,
243200,1861.9,61.2,102.0,30.0,1258.0,6687.0,7.0,1,
243300,1861.5,63.3,102.1,56.9,1258.0,6687.0,7.0,1,
243400,1863.4,62.1,102.0,165.7,1258.0,6687.0,7.0,1,
243600,1858.8,57.7,101.9,282.5,1258.0,6687.0,7.0,1,
243700,1862.8,55.6,101.8,271.0,1258.0,6687.0,7.0,1,
243800,1859.1,60.7,101.7,254.0,1258.0,6687.0,7.0,1,
243900,1859.5,58.3,101.8,278.8,1258.0,6687.0,7.0,1,
244000,1858.7,75.6,101.8,291.1,1258.0,6687.0,7.0,1,
244100,1880.2,132.0,105.9,238.7,854.0,5586.0,5.0,1,
244200,1857.5,129.2,107.7,35.9,786.0,4703.0,6.0,1,
244300,1844.0,175.9,106.5,34.8,835.0,5592.0,8.0,1,
244400,1865.7,77.1,107.3,36.6,656.0,4313.0,7.0,1,
244600,1879.3,125.2,101.2,29.8,731.0,4815.0,6.0,1,
244700,1851.3,67.7,102.7,35.8,756.0,4468.0,8.0,1,
244800,1861.9,62.0,102.7,39.0,756.0,4468.0,8.0,1,
244900,1861.9,63.8,102.8,36.1,756.0,4468.0,8.0,1,
245000,1862.7,63.1,102.7,55.8,756.0,4468.0,8.0,1,
245100,1862.3,59.1,102.7,240.0,756.0,4468.0,8.0,1,
245200,1864.3,60.3,102.8,240.4,756.0,4468.0,8.0,1,
245300,1859.3,60.1,102.8,240.7,756.0,4468.0,8.0,1,
245400,1862.1,58.4,102.9,283.4,756.0,4468.0,8.0,1,
245600,1860.6,62.6,102.8,261.6,756.0,4468.0,8.0,1,
245700,1847.1,218.5,98.8,240.9,1049.0,5911.0,6.0,1,
245800,1858.9,118.6,106.4,67.0,691.0,5350.0,5.0,1,
245900,1865.4,64.0,105.9,40.8,843.0,4934.0,6.0,1,
246000,1846.5,60.0,98.3,29.7,875.0,5623.0,8.0,1,
246100,1876.3,104.8,100.4,29.5,588.0,4389.0,8.0,1,
246200,1850.1,94.2,106.0,41.5,985.0,5676.0,7.0,1,
246300,1853.3,66.3,103.9,29.9,869.0,5673.0,7.0,1,
246400,1861.8,62.4,103.8,35.7,869.0,5673.0,7.0,1,
246600,1859.6,61.8,103.7,57.1,869.0,5673.0,7.0,1,
246700,1858.1,57.5,103.8,240.2,869.0,5673.0,7.0,1,
246800,1858.5,62.2,103.7,274.1,869.0,5673.0,7.0,1,
246900,1861.1,58.5,103.7,260.4,869.0,5673.0,7.0,1,
247000,1860.1,59.9,103.7,245.8,869.0,5673.0,7.0,1,
247100,1860.5,62.7,103.7,262.5,869.0,5673.0,7.0,1,
247200,1859.0,59.7,103.9,269.5,869.0,5673.0,7.0,1,
247300,1857.7,149.8,109.2,240.6,1011.0,6200.0,6.0,1,
247400,1850.2,76.7,104.2,29.0,1416.0,7409.0,5.0,1,
247600,1851.8,100.1,110.4,29.2,1501.0,6570.0,4.0,1,
247700,1840.4,164.5,108.3,82.0,1665.0,8078.0,4.0,1,
247800,1861.5,93.5,114.9,84.7,1423.0,6198.0,4.0,1,
247900,1864.8,71.5,109.8,39.4,1772.0,7348.0,4.0,1,
248000,1862.7,62.5,110.0,67.2,1772.0,7348.0,4.0,1,
248100,1859.4,62.5,110.0,70.9,1772.0,7348.0,4.0,1,
248200,1863.6,64.3,109.9,84.0,1772.0,7348.0,4.0,1,
248300,1858.5,62.0,110.0,219.8,1772.0,7348.0,4.0,1,
248400,1861.8,60.7,110.1,240.2,1772.0,7348.0,4.0,1,
248600,1863.4,60.8,110.1,241.1,1772.0,7348.0,4.0,1,
248700,1863.4,60.7,110.0,241.1,1772.0,7348.0,4.0,1,
248800,1859.0,60.2,110.0,245.5,1772.0,7348.0,4.0,1,
248900,1847.1,77.7,108.7,280.4,990.0,5632.0,7.0,1,
249000,1891.8,152.4,103.9,174.8,1212.0,7508.0,4.0,1,
249100,1830.3,59.8,102.4,87.3,1456.0,7017.0,4.0,1,
249200,1865.0,64.0,100.9,66.9,1487.0,7999.0,4.0,1,
249300,1872.1,107.4,106.0,30.1,1215.0,5653.0,3.0,1,
249400,1850.8,97.5,100.0,29.7,1503.0,7198.0,3.0,1,
249600,1848.0,67.2,100.5,28.6,1503.0,7198.0,3.0,1,
249700,1860.6,66.4,100.6,29.3,1503.0,7198.0,3.0,1,
249800,1857.6,63.2,100.7,37.8,1503.0,7198.0,3.0,1,
249900,1859.3,61.0,100.8,229.3,1503.0,7198.0,3.0,1,
250000,1862.5,60.0,100.6,298.7,1503.0,7198.0,3.0,1,
250100,1861.5,59.2,100.6,247.0,1503.0,7198.0,3.0,1,
250200,1862.4,59.9,100.5,240.4,1503.0,7198.0,3.0,1,
250300,1857.3,62.4,100.6,240.5,1503.0,7198.0,3.0,1,
250400,1861.4,62.5,100.6,241.2,1503.0,7198.0,3.0,1,
250600,1867.4,85.1,103.5,164.9,990.0,5007.0,5.0,1,
250700,1848.3,151.8,103.6,28.2,1306.0,7550.0,4.0,1,
250800,1852.7,105.3,105.9,28.7,1441.0,6170.0,3.0,1,
250900,1873.9,58.3,101.3,42.2,1574.0,7983.0,4.0,1,
251000,1874.3,129.4,104.4,44.8,1280.0,5718.0,3.0,1,
251100,1837.6,120.4,110.3,29.2,1444.0,5604.0,3.0,1,
251200,1874.2,68.7,110.4,28.5,1507.0,6716.0,4.0,1,
251300,1856.6,65.0,110.5,29.1,1507.0,6716.0,4.0,1,
251400,1857.2,61.6,110.6,29.4,1507.0,6716.0,4.0,1,
251600,1862.7,62.3,110.7,284.4,1507.0,6716.0,4.0,1,
251700,1864.0,62.1,110.8,298.9,1507.0,6716.0,4.0,1,
251800,1860.0,63.3,111.0,295.1,1507.0,6716.0,4.0,1,
251900,1861.0,60.8,110.9,280.8,1507.0,6716.0,4.0,1,
252000,1861.5,58.7,110.9,297.9,1507.0,6716.0,4.0,1,
252100,1860.9,64.4,110.9,294.8,1507.0,6716.0,4.0,1,
252200,1846.9,100.2,104.9,241.1,903.0,6219.0,6.0,1,
252300,1869.1,110.1,111.9,100.8,991.0,4976.0,4.0,1,
252400,1865.5,56.3,105.6,54.9,1316.0,8021.0,5.0,1,
252600,1844.6,70.7,109.6,29.2,1411.0,6782.0,3.0,1,
252700,1871.8,104.9,112.7,29.5,1142.0,6252.0,3.0,1,
252800,1860.8,67.9,107.2,29.7,1083.0,5592.0,3.0,1,
252900,1860.5,59.5,106.9,50.6,1083.0,5592.0,3.0,1,
253000,1860.1,61.1,106.7,66.0,1083.0,5592.0,3.0,1,
253100,1859.8,61.8,106.7,66.6,1083.0,5592.0,3.0,1,
253200,1862.2,61.6,106.6,240.1,1083.0,5592.0,3.0,1,
253300,1863.3,61.6,106.6,253.1,1083.0,5592.0,3.0,1,
253400,1861.6,61.4,106.5,243.3,1083.0,5592.0,3.0,1,
253600,1861.4,62.8,106.4,241.8,1083.0,5592.0,3.0,1,
253700,1860.2,62.4,106.5,242.2,1083.0,5592.0,3.0,1,
253800,1854.1,140.0,113.2,240.0,1231.0,6563.0,5.0,1,
253900,1883.7,62.8,110.2,40.5,1572.0,8779.0,4.0,1,
254000,1847.1,105.1,108.9,29.2,1257.0,6360.0,4.0,1,
254100,1856.2,76.2,110.1,35.3,1633.0,8086.0,4.0,1,
254200,1851.5,103.0,106.5,35.8,1091.0,6000.0,3.0,1,
254300,1847.8,90.1,98.8,35.4,1363.0,6180.0,3.0,1,
254400,1884.0,63.9,98.8,30.1,1307.0,7606.0,4.0,1,
254600,1863.1,63.1,98.8,28.7,1307.0,7606.0,4.0,1,
254700,1857.7,58.5,98.9,46.8,1307.0,7606.0,4.0,1,
254800,1861.0,62.7,98.8,220.9,1307.0,7606.0,4.0,1,
254900,1860.7,63.2,99.0,279.2,1307.0,7606.0,4.0,1,
255000,1858.8,59.5,99.0,259.9,1307.0,7606.0,4.0,1,
255100,1862.6,61.8,98.8,245.5,1307.0,7606.0,4.0,1,
255200,1859.8,59.4,99.0,248.2,1307.0,7606.0,4.0,1,
255300,1860.3,62.2,98.9,241.4,1307.0,7606.0,4.0,1,
255400,1868.3,66.4,93.6,240.8,979.0,5738.0,7.0,1,
255600,1836.8,105.9,93.9,78.5,1585.0,8342.0,4.0,1,
255700,1874.7,112.3,93.7,36.3,1244.0,6545.0,4.0,1,
255800,1853.7,138.2,101.8,35.0,1269.0,6481.0,3.0,1,
255900,1885.7,88.8,103.9,28.9,1266.0,7705.0,6.0,1,
256000,1842.6,83.2,104.5,28.8,923.0,5391.0,3.0,1,
256100,1863.3,66.2,104.5,28.1,923.0,5391.0,3.0,1,
256200,1860.3,62.8,104.7,28.9,923.0,5391.0,3.0,1,
256300,1859.9,60.7,104.5,38.8,923.0,5391.0,3.0,1,
256400,1861.5,59.0,104.6,130.7,923.0,5391.0,3.0,1,
256600,1863.9,59.5,104.6,240.5,923.0,5391.0,3.0,1,
256700,1864.1,63.4,104.7,244.4,923.0,5391.0,3.0,1,
256800,1860.1,61.9,104.8,251.0,923.0,5391.0,3.0,1,
256900,1861.2,62.3,104.9,275.9,923.0,5391.0,3.0,1,
257000,1861.7,74.8,104.8,261.4,923.0,5391.0,3.0,1,
257100,1857.8,105.6,105.9,227.5,1354.0,8098.0,6.0,1,
257200,1858.0,124.9,106.3,80.1,1191.0,6807.0,5.0,1,
257300,1865.0,83.7,106.6,76.2,1528.0,8059.0,4.0,1,
257400,1875.5,82.2,103.0,66.6,1057.0,6674.0,7.0,1,
257600,1843.8,68.6,97.2,90.9,1263.0,6950.0,7.0,1,
257700,1876.6,66.8,97.0,39.0,1186.0,7153.0,7.0,1,
257800,1857.8,62.2,97.1,29.7,1186.0,7153.0,7.0,1,
257900,1860.2,60.9,97.2,67.3,1186.0,7153.0,7.0,1,
258000,1860.1,59.9,97.2,178.4,1186.0,7153.0,7.0,1,
258100,1861.3,60.8,97.0,294.7,1186.0,7153.0,7.0,1,
258200,1861.2,60.1,97.0,292.3,1186.0,7153.0,7.0,1,
258300,1861.2,57.5,97.0,248.7,1186.0,7153.0,7.0,1,
258400,1862.5,60.1,96.7,261.7,1186.0,7153.0,7.0,1,
258600,1860.7,59.4,96.8,249.1,1186.0,7153.0,7.0,1,
258700,1850.6,136.7,97.3,217.4,860.0,5385.0,5.0,1,
258800,1875.9,54.4,94.0,68.4,1376.0,7758.0,4.0,1,
258900,1875.6,141.1,91.3,39.9,1086.0,7007.0,8.0,1,
259000,1828.9,140.7,92.7,41.0,1124.0,5891.0,4.0,1,
259100,1868.2,78.9,95.8,35.6,1122.0,7194.0,7.0,1,
259200,1872.2,150.9,95.9,29.4,785.0,4738.0,7.0,1,
259300,1856.6,67.3,102.0,29.0,934.0,5385.0,4.0,1,
259400,1864.5,59.9,101.8,28.6,934.0,5385.0,4.0,1,
259600,1861.3,60.6,101.8,38.0,934.0,5385.0,4.0,1,
259700,1859.6,57.0,101.9,233.5,934.0,5385.0,4.0,1,
259800,1860.1,58.5,102.0,238.1,934.0,5385.0,4.0,1,
259900,1859.3,66.1,102.0,240.9,934.0,5385.0,4.0,1,
260000,1862.2,57.6,102.3,298.9,934.0,5385.0,4.0,1,
260100,1862.1,59.3,102.1,296.6,934.0,5385.0,4.0,1,
260200,1860.9,59.3,102.0,284.4,934.0,5385.0,4.0,1,
260300,1865.9,61.9,99.5,292.5,988.0,5533.0,4.0,1,
260400,1864.4,129.3,100.3,130.0,985.0,6753.0,4.0,1,
260600,1853.6,97.6,102.9,66.9,1287.0,7917.0,7.0,1,
260700,1848.2,102.1,100.9,29.8,1120.0,5816.0,4.0,1,
260800,1893.0,68.9,105.8,39.9,1289.0,7396.0,4.0,1,
260900,1850.5,73.5,102.4,39.9,1136.0,7316.0,6.0,1,
261000,1861.3,63.6,102.4,35.1,1136.0,7316.0,6.0,1,
261100,1859.2,60.6,102.5,45.6,1136.0,7316.0,6.0,1,
261200,1862.3,60.4,102.4,84.1,1136.0,7316.0,6.0,1,
261300,1856.6,60.1,102.6,211.6,1136.0,7316.0,6.0,1,
261400,1860.9,58.7,102.6,260.0,1136.0,7316.0,6.0,1,
261600,1860.7,59.7,102.6,282.9,1136.0,7316.0,6.0,1,
261700,1859.5,59.0,102.7,296.3,1136.0,7316.0,6.0,1,
261800,1859.7,56.3,102.8,269.0,1136.0,7316.0,6.0,1,
261900,1885.1,106.6,102.2,240.9,763.0,5294.0,7.0,1,
262000,1832.2,119.5,108.6,101.9,1149.0,5760.0,4.0,1,
262100,1865.0,115.9,109.0,37.1,1245.0,8028.0,8.0,1,
262200,1859.3,107.7,111.9,37.5,1269.0,6589.0,4.0,1,
262300,1894.5,145.6,110.8,38.1,1448.0,8741.0,5.0,1,
262400,1828.0,81.1,109.0,29.8,1087.0,5879.0,4.0,1,
262600,1871.1,59.4,106.2,73.3,1087.0,5879.0,4.0,1,
262700,1859.7,60.2,106.1,80.7,1087.0,5879.0,4.0,1,
262800,1861.0,58.8,106.2,83.7,1087.0,5879.0,4.0,1,
262900,1862.2,58.7,106.1,164.6,1087.0,5879.0,4.0,1,
263000,1860.3,59.7,106.2,242.4,1087.0,5879.0,4.0,1,
263100,1860.7,57.1,106.1,279.1,1087.0,5879.0,4.0,1,
263200,1862.1,59.9,105.9,298.1,1087.0,5879.0,4.0,1,
263300,1865.4,57.8,105.9,298.6,1087.0,5879.0,4.0,1,
263400,1859.8,62.7,105.8,291.8,1087.0,5879.0,4.0,1,
263600,1853.9,199.2,113.4,176.3,1236.0,7385.0,4.0,1,
263700,1855.6,54.4,110.9,66.4,1418.0,6661.0,3.0,1,
263800,1887.4,47.3,104.0,35.4,1361.0,8250.0,7.0,1,
263900,1835.7,139.4,109.6,35.1,1062.0,6070.0,3.0,1,
264000,1854.6,74.2,106.2,30.1,1461.0,7493.0,3.0,1,
264100,1864.2,98.5,106.9,28.8,913.0,5674.0,4.0,1,
264200,1863.6,62.8,107.8,29.0,913.0,5674.0,4.0,1,
264300,1859.7,57.3,107.8,42.7,913.0,5674.0,4.0,1,
264400,1862.7,57.2,107.6,51.5,913.0,5674.0,4.0,1,
264600,1861.7,55.0,107.4,268.2,913.0,5674.0,4.0,1,
264700,1861.0,61.8,107.3,285.5,913.0,5674.0,4.0,1,
264800,1862.1,59.1,107.3,299.2,913.0,5674.0,4.0,1,
264900,1860.1,57.5,107.3,259.9,913.0,5674.0,4.0,1,
265000,1857.7,58.6,107.3,239.7,913.0,5674.0,4.0,1,
265100,1858.6,96.2,107.4,228.7,913.0,5674.0,4.0,1,
265200,1869.7,78.6,106.7,169.1,1460.0,6998.0,4.0,1,
265300,1876.5,68.2,96.9,47.2,1492.0,8970.0,5.0,1,
265400,1816.0,99.9,99.8,65.7,1252.0,6323.0,4.0,1,
265600,1874.0,148.1,100.3,35.9,1070.0,6375.0,3.0,1,
265700,1865.8,85.5,104.6,29.1,1264.0,6371.0,3.0,1,
265800,1857.5,66.5,105.4,28.8,1308.0,7634.0,4.0,1,
265900,1860.7,62.0,105.4,29.2,1308.0,7634.0,4.0,1,
