Time(ms),Raw_ADC
0,1855
1,1854
2,1859
3,1858
4,1869
5,1869
6,1868
7,1860
8,1861
9,1859
10,1856
11,1856
12,1850
13,1851
14,1849
15,1851
16,1856
17,1857
18,1865
19,1863
20,1863
21,1867
22,1869
23,1861
24,1858
25,1856
26,1854
27,1856
28,1856
29,1854
30,1853
31,1853
32,1857
33,1859
34,1861
35,1867
36,1867
37,1870
38,1870
39,1869
40,1867
41,1867
42,1863
43,1857
44,1856
45,1856
46,1854
47,1853
48,1855
49,1861
50,1861
51,1867
52,1870
53,1858
54,1866
55,1861
56,1860
57,1865
58,1863
59,1860
60,1856
61,1855
62,1855
63,1855
64,1856
65,1854
66,1854
67,1854
68,1861
69,1858
70,1859
71,1865
72,1865
73,1860
74,1859
75,1857
76,1856
77,1855
78,1851
79,1846
80,1850
81,1851
82,1853
83,1843
84,1843
85,1850
86,1854
87,1856
88,1856
89,1857
90,1854
91,1856
92,1851
93,1845
94,1843
95,1846
96,1845
97,1845
98,1847
99,1851
100,1851
101,1851
102,1861
103,1858
104,1862
105,1857
106,1857
107,1854
108,1853
109,1851
110,1846
111,1844
112,1844
113,1840
114,1841
115,1846
116,1846
117,1853
118,1861
119,1863
120,1863
121,1871
122,1871
123,1870
124,1863
125,1863
126,1862
127,1857
128,1861
129,1857
130,1857
131,1856
132,1861
133,1861
134,1864
135,1869
136,1869
137,1867
138,1865
139,1867
140,1865
141,1863
142,1858
143,1845
144,1843
145,1841
146,1840
147,1841
148,1851
149,1855
150,1856
151,1858
152,1861
153,1862
154,1862
155,1858
156,1861
157,1855
158,1854
159,1851
160,1847
161,1843
162,1844
163,1844
164,1843
165,1849
166,1850
167,1853
168,1857
169,1859
170,1856
171,1864
172,1861
173,1855
174,1851
175,1852
176,1849
177,1849
178,1852
179,1847
180,1850
181,1849
182,1856
183,1854
184,1857
185,1863
186,1867
187,1865
188,1863
189,1869
190,1865
191,1863
192,1862
193,1858
194,1859
195,1859
196,1857
197,1856
198,1859
199,1861
200,1861
201,1862
202,1858
203,1853
204,1856
205,1856
206,1859
207,1858
208,1861
209,1861
210,1857
211,1856
212,1853
213,1856
214,1854
215,1856
216,1856
217,1859
218,1866
219,1867
220,1867
221,1871
222,1869
223,1866
224,1862
225,1861
226,1859
227,1856
228,1856
229,1854
230,1856
231,1856
232,1857
233,1850
234,1854
235,1856
236,1857
237,1847
238,1866
239,1865
240,1867
241,1866
242,1865
243,1856
244,1854
245,1854
246,1853
247,1853
248,1854
249,1859
250,1863
251,1866
252,1868
253,1871
254,1871
255,1869
256,1865
257,1861
258,1859
259,1861
260,1856
261,1855
262,1854
263,1846
264,1846
265,1850
266,1847
267,1852
268,1863
269,1867
270,1867
271,1869
272,1869
273,1867
274,1865
275,1865
276,1860
277,1856
278,1856
279,1849
280,1854
281,1857
282,1856
283,1855
284,1858
285,1862
286,1864
287,1866
288,1863
289,1867
290,1865
291,1865
292,1866
293,1854
294,1851
295,1851
296,1845
297,1847
298,1853
299,1855
300,1857
301,1858
302,1863
303,1867
304,1867
305,1865
306,1867
307,1865
308,1865
309,1866
310,1859
311,1856
312,1856
313,1856
314,1855
315,1861
316,1861
317,1859
318,1863
319,1862
320,1864
321,1869
322,1863
323,1856
324,1854
325,1855
326,1855
327,1853
328,1856
329,1856
330,1856
331,1855
332,1858
333,1857
334,1856
335,1861
336,1863
337,1865
338,1866
339,1868
340,1859
341,1859
342,1858
343,1856
344,1854
345,1855
346,1850
347,1850
348,1851
349,1855
350,1856
351,1859
352,1859
353,1856
354,1860
355,1858
356,1856
357,1856
358,1859
359,1861
360,1856
361,1857
362,1853
363,1853
364,1853
365,1855
366,1856
367,1856
368,1859
369,1859
370,1862
371,1865
372,1866
373,1863
374,1860
375,1857
376,1858
377,1854
378,1856
379,1853
380,1855
381,1854
382,1856
383,1851
384,1855
385,1863
386,1861
387,1865
388,1863
389,1861
390,1856
391,1853
392,1854
393,1858
394,1850
395,1856
396,1851
397,1851
398,1849
399,1854
400,1855
401,1857
402,1859
403,1862
404,1869
405,1867
406,1870
407,1866
408,1860
409,1863
410,1855
411,1853
412,1855
413,1846
414,1846
415,1846
416,1851
417,1859
418,1863
419,1865
420,1867
421,1870
422,1871
423,1868
424,1863
425,1858
426,1859
427,1855
428,1857
429,1855
430,1856
431,1855
432,1859
433,1859
434,1858
435,1863
436,1867
437,1867
438,1861
439,1865
440,1862
441,1857
442,1859
443,1852
444,1850
445,1851
446,1849
447,1855
448,1856
449,1859
450,1859
451,1861
452,1866
453,1863
454,1869
455,1865
456,1865
457,1859
458,1857
459,1856
460,1849
461,1850
462,1852
463,1855
464,1853
465,1855
466,1857
467,1859
468,1863
469,1865
470,1867
471,1871
472,1870
473,1859
474,1857
475,1857
476,1854
477,1856
478,1857
479,1853
480,1858
481,1858
482,1861
483,1861
484,1859
485,1867
486,1869
487,1866
488,1867
489,1865
490,1860
491,1858
492,1856
493,1855
494,1852
495,1856
496,1854
497,1851
498,1854
499,1858
500,1857
501,1860
502,1866
503,1859
504,1861
505,1859
506,1857
507,1857
508,1853
509,1853
510,1847
511,1843
512,1854
513,1851
514,1849
515,1853
516,1856
517,1857
518,1863
519,1863
520,1865
521,1870
522,1872
523,1870
524,1866
525,1862
526,1858
527,1855
528,1853
529,1850
530,1851
531,1855
532,1857
533,1853
534,1853
535,1857
536,1860
537,1866
538,1869
539,1872
540,1867
541,1865
542,1863
543,1859
544,1857
545,1859
546,1853
547,1851
548,1855
549,1856
550,1857
551,1859
552,1862
553,1859
554,1865
555,1862
556,1862
557,1859
558,1859
559,1859
560,1856
561,1853
562,1853
563,1845
564,1841
565,1847
566,1854
567,1865
568,1870
569,1871
570,1866
571,1868
572,1865
573,1859
574,1857
575,1856
576,1856
577,1852
578,1855
579,1850
580,1853
581,1851
582,1854
583,1857
584,1857
585,1861
586,1867
587,1863
588,1865
589,1868
590,1862
591,1858
592,1858
593,1847
594,1847
595,1846
596,1842
597,1845
598,1843
599,1846
600,1852
601,1855
602,1857
603,1866
604,1863
605,1870
606,1868
607,1862
608,1857
609,1857
610,1854
611,1856
612,1855
613,1852
614,1852
615,1854
616,1857
617,1863
618,1866
619,1869
620,1866
621,1872
622,1871
623,1866
624,1858
625,1859
626,1857
627,1860
628,1859
629,1856
630,1856
631,1855
632,1856
633,1855
634,1856
635,1863
636,1865
637,1862
638,1865
639,1865
640,1865
641,1859
642,1856
643,1853
644,1854
645,1855
646,1849
647,1852
648,1850
649,1853
650,1856
651,1858
652,1866
653,1857
654,1859
655,1858
656,1857
657,1861
658,1857
659,1861
660,1855
661,1855
662,1856
663,1851
664,1851
665,1853
666,1857
667,1860
668,1860
669,1866
670,1866
671,1872
672,1872
673,1871
674,1866
675,1866
676,1859
677,1851
678,1854
679,1845
680,1851
681,1853
682,1853
683,1851
684,1852
685,1855
686,1856
687,1863
688,1862
689,1863
690,1862
691,1857
692,1857
693,1855
694,1856
695,1854
696,1847
697,1852
698,1853
699,1856
700,1856
701,1858
702,1863
703,1865
704,1870
705,1868
706,1868
707,1869
708,1867
709,1862
710,1857
711,1855
712,1853
713,1843
714,1841
715,1849
716,1850
717,1850
718,1851
719,1851
720,1850
721,1856
722,1856
723,1865
724,1851
725,1856
726,1857
727,1856
728,1855
729,1853
730,1855
731,1854
732,1857
733,1858
734,1861
735,1869
736,1865
737,1863
738,1867
739,1867
740,1862
741,1861
742,1856
743,1850
744,1849
745,1846
746,1841
747,1853
748,1849
749,1853
750,1856
751,1855
752,1862
753,1856
754,1863
755,1859
756,1862
757,1858
758,1859
759,1858
760,1855
761,1855
762,1855
763,1853
764,1852
765,1854
766,1855
767,1855
768,1862
769,1862
770,1866
771,1871
772,1869
773,1861
774,1856
775,1855
776,1849
777,1854
778,1852
779,1851
780,1851
781,1849
782,1851
783,1855
784,1854
785,1859
786,1861
787,1861
788,1866
789,1865
790,1866
791,1865
792,1861
793,1859
794,1856
795,1856
796,1853
797,1855
798,1857
799,1861
800,1860
801,1859
802,1862
803,1857
804,1858
805,1858
806,1856
807,1861
808,1856
809,1858
810,1856
811,1854
812,1856
813,1853
814,1854
815,1855
816,1856
817,1856
818,1859
819,1866
820,1865
821,1870
822,1867
823,1868
824,1859
825,1858
826,1857
827,1850
828,1853
829,1851
830,1853
831,1854
832,1852
833,1849
834,1855
835,1858
836,1857
837,1867
838,1871
839,1870
840,1867
841,1863
842,1861
843,1858
844,1856
845,1856
846,1847
847,1855
848,1857
849,1861
850,1862
851,1861
852,1863
853,1865
854,1866
855,1863
856,1860
857,1856
858,1856
859,1857
860,1855
861,1853
862,1856
863,1847
864,1847
865,1849
866,1849
867,1862
868,1860
869,1859
870,1858
871,1866
872,1863
873,1866
874,1861
875,1861
876,1857
877,1853
878,1851
879,1852
880,1847
881,1850
882,1854
883,1853
884,1856
885,1863
886,1862
887,1865
888,1866
889,1867
890,1863
891,1861
892,1859
893,1850
894,1846
895,1846
896,1842
897,1847
898,1846
899,1852
900,1855
901,1856
902,1859
903,1856
904,1866
905,1861
906,1857
907,1856
908,1856
909,1856
910,1854
911,1854
912,1855
913,1854
914,1851
915,1854
916,1857
917,1857
918,1855
919,1857
920,1861
921,1867
922,1867
923,1859
924,1854
925,1856
926,1855
927,1858
928,1857
929,1855
930,1853
931,1850
932,1852
933,1855
934,1855
935,1861
936,1861
937,1861
938,1866
939,1865
940,1867
941,1865
942,1860
943,1861
944,1856
945,1856
946,1855
947,1854
948,1854
949,1266
950,1989
951,1943
952,1957
953,2082
954,2162
955,2213
956,2190
957,2130
958,2202
959,2093
960,1796
961,1671
962,1482
963,1437
964,1565
965,1676
966,1774
967,1839
968,1884
969,1933
970,1939
971,1926
972,1904
973,1883
974,1872
975,1867
976,1856
977,1835
978,1810
979,1790
980,494
981,1933
982,1905
983,1948
984,2127
985,2254
986,2336
987,2229
988,2135
989,2256
990,2002
991,1585
992,1361
993,1332
994,1460
995,1605
996,1719
997,1821
998,1884
999,1913
1000,1912
1001,1904
1002,1911
1003,1918
1004,1914
1005,1895
1006,1872
1007,1837
1008,1794
1009,1773
1010,1776
1011,674
1012,1949
1013,1938
1014,2101
1015,2467
1016,2597
1017,2584
1018,2387
1019,2070
1020,1908
1021,1565
1022,1246
1023,1152
1024,1249
1025,1442
1026,1638
1027,1778
1028,1869
1029,1905
1030,1921
1031,1923
1032,1929
1033,1936
1034,1936
1035,1925
1036,1893
1037,1846
1038,1803
1039,1783
1040,1807
1041,1843
1042,1862
1043,1857
1044,1993
1045,2159
1046,2550
1047,2618
1048,2533
1049,2320
1050,1857
1051,1627
1052,1520
1053,1371
1054,1291
1055,1391
1056,1584
1057,1748
1058,1859
1059,1921
1060,1940
1061,1936
1062,1925
1063,1930
1064,1915
1065,1909
1066,1889
1067,1856
1068,1794
1069,1770
1070,1787
1071,1831
1072,1858
1073,1861
1074,1627
1075,2011
1076,2112
1077,2516
1078,2691
1079,2609
1080,2304
1081,1762
1082,1466
1083,1476
1084,1381
1085,1387
1086,1488
1087,1648
1088,1792
1089,1875
1090,1931
1091,1945
1092,1936
1093,1935
1094,1936
1095,1941
1096,1926
1097,1885
1098,1825
1099,1754
1100,1712
1101,1775
1102,1834
1103,1854
1104,1866
1105,668
1106,2032
1107,2078
1108,2464
1109,2782
1110,2717
1111,2362
1112,1754
1113,1346
1114,1379
1115,1398
1116,1397
1117,1479
1118,1642
1119,1791
1120,1895
1121,1952
1122,1955
1123,1946
1124,1940
1125,1949
1126,1936
1127,1906
1128,1847
1129,1771
1130,1742
1131,1753
1132,1794
1133,1828
1134,1846
1135,1863
1136,370
1137,2001
1138,2053
1139,2395
1140,2798
1141,2718
1142,2399
1143,1715
1144,1329
1145,1411
1146,1436
1147,1453
1148,1520
1149,1671
1150,1808
1151,1901
1152,1953
1153,1962
1154,1952
1155,1954
1156,1963
1157,1942
1158,1910
1159,1847
1160,1758
1161,1746
1162,1767
1163,1786
1164,1817
1165,1827
1166,1846
1167,1806
1168,1904
1169,2032
1170,2251
1171,2717
1172,2701
1173,2442
1174,1739
1175,1392
1176,1498
1177,1527
1178,1489
1179,1535
1180,1675
1181,1808
1182,1900
1183,1942
1184,1950
1185,1951
1186,1954
1187,1953
1188,1952
1189,1911
1190,1837
1191,1745
1192,1722
1193,1744
1194,1792
1195,1834
1196,1841
1197,1860
1198,1872
1199,1643
1200,2026
1201,2139
1202,2652
1203,2723
1204,2558
1205,1838
1206,1399
1207,1475
1208,1535
1209,1509
1210,1520
1211,1648
1212,1785
1213,1872
1214,1921
1215,1936
1216,1943
1217,1949
1218,1946
1219,1936
1220,1903
1221,1825
1222,1749
1223,1727
1224,1742
1225,1790
1226,1832
1227,1847
1228,1860
1229,1869
1230,1019
1231,2023
1232,2059
1233,2557
1234,2758
1235,2654
1236,1959
1237,1424
1238,1438
1239,1523
1240,1518
1241,1504
1242,1614
1243,1751
1244,1866
1245,1925
1246,1937
1247,1939
1248,1941
1249,1948
1250,1935
1251,1898
1252,1833
1253,1746
1254,1734
1255,1756
1256,1803
1257,1841
1258,1854
1259,1867
1260,1872
1261,270
1262,2021
1263,2000
1264,2406
1265,2791
1266,2683
1267,2109
1268,1526
1269,1421
1270,1502
1271,1499
1272,1488
1273,1602
1274,1761
1275,1878
1276,1935
1277,1947
1278,1938
1279,1936
1280,1937
1281,1931
1282,1903
1283,1826
1284,1749
1285,1734
1286,1755
1287,1798
1288,1841
1289,1856
1290,1865
1291,1871
1292,865
1293,1979
1294,2006
1295,2239
1296,2815
1297,2735
1298,2265
1299,1614
1400,1901
1401,1948
1402,1968
1403,1953
1404,1939
1405,1945
1406,1933
1407,1888
1408,1815
1409,1743
1410,1727
1411,1741
1412,1787
1413,1823
1414,1840
1415,1855
1416,1870
1417,491
1418,2015
1419,2016
1420,2341
1421,2923
1422,2785
1423,2160
1424,1459
1425,1354
1426,1511
1427,1489
1428,1434
1429,1562
1430,1749
1431,1865
1432,1921
1433,1940
1434,1941
1435,1936
1436,1943
1437,1933
1438,1906
1439,1840
1440,1758
1441,1731
1442,1744
1443,1791
1444,1831
1445,1856
1446,1863
1447,1872
1448,1875
1449,1889
1450,2022
1451,2153
1452,2864
1453,2837
1454,2404
1455,1631
1456,1353
1457,1482
1458,1501
1459,1424
1460,1488
1461,1674
1462,1823
1463,1893
1464,1928
1465,1937
1466,1942
1467,1949
1468,1949
1469,1918
1470,1853
1471,1776
1472,1739
1473,1748
1474,1789
1475,1830
1476,1847
1477,1856
1478,1862
1479,1872
1480,1677
1481,2025
1482,2064
1483,2759
1484,2853
1485,2541
1486,1750
1487,1345
1488,1453
1489,1517
1490,1442
1491,1467
1492,1646
1493,1797
1494,1885
1495,1921
1496,1936
1497,1943
1498,1939
1499,1936
1500,1904
1501,1845
1502,1763
1503,1728
1504,1747
1505,1814
1506,1827
1507,1840
1508,1858
1509,1872
1510,1875
1511,727
1512,2037
1513,2002
1514,2550
1515,2910
1516,2715
1517,1936
1518,1360
1519,1393
1520,1502
1521,1440
1522,1434
1523,1600
1524,1776
1525,1879
1526,1927
1527,1947
1528,1943
1529,1946
1530,1941
1531,1921
1532,1872
1533,1807
1534,1744
1535,1735
1536,1749
1537,1808
1538,1850
1539,1861
1540,1872
1541,1874
1542,419
1543,2038
1544,2000
1545,2367
1546,2935
1547,2813
1548,2118
1549,1408
1550,1324
1551,1485
1552,1453
1553,1407
1554,1565
1555,1771
1556,1882
1557,1936
1558,1955
1559,1957
1560,1951
1561,1953
1562,1937
1563,1902
1564,1814
1565,1742
1566,1708
1567,1718
1568,1783
1569,1837
1570,1856
1571,1871
1572,1878
1573,1889
1574,1891
1575,1892
1576,1890
1577,1888
1578,1885
1579,1881
1580,1877
1581,1875
1582,1877
1583,1871
1584,1871
1585,1872
1586,1872
1587,1874
1588,1878
1589,1872
1590,1872
1591,1869
1592,1863
1593,1865
1594,1857
1595,1857
1596,1854
1597,1859
1598,1859
1599,1860
1600,1860
1601,1861
1602,1865
1603,1861
1604,1857
1605,1864
1606,1863
1607,1862
1608,1861
1609,1856
1610,1854
1611,1852
1612,1851
1613,1843
1614,1843
1615,1845
1616,1852
1617,1852
1618,1852
1619,1861
1620,1858
1621,1860
1622,1859
1623,1859
1624,1863
1625,1863
1626,1857
1627,1852
1628,1853
1629,1854
1630,1853
1631,1847
1632,1850
1633,1853
1634,1856
1635,1858
1636,1863
1637,1861
1638,1868
1639,1863
1640,1868
1641,1860
1642,1858
1643,1854
1644,1845
1645,1845
1646,1847
1647,1854
1648,1855
1649,1856
1650,1857
1651,1859
1652,1861
1653,1865
1654,1865
1655,1870
1656,1869
1657,1867
1658,1860
1659,1860
1660,1859
1661,1858
1662,1861
1663,1857
1664,1853
1665,1854
1666,1858
1667,1861
1668,1861
1669,1868
1670,1867
1671,1868
1672,1865
1673,1858
1674,1857
1675,1856
1676,1855
1677,1859
1678,1855
1679,1856
1680,1851
1681,1850
1682,1853
1683,1855
1684,1857
1685,1858
1686,1860
1687,1860
1688,1865
1689,1866
1690,1865
1691,1861
1692,1858
1693,1857
1694,1852
1695,1846
1696,1843
1697,1843
1698,1841
1699,1845
1700,1847
1701,1849
1702,1852
1703,1846
1704,1846
1705,1847
1706,1847
1707,1847
1708,1843
1709,1841
1710,1837
1711,1834
1712,1829
1713,1832
1714,1829
1715,1835
1716,1839
1717,1840
1718,1841
1719,1847
1720,1847
1721,1849
1722,1852
1723,1853
1724,1851
1725,1851
1726,1846
1727,1840
1728,1840
1729,1840
1730,1839
1731,1840
1732,1841
1733,1842
1734,1845
1735,1849
1736,1854
1737,1859
1738,1864
1739,1863
1740,1867
1741,1863
1742,1863
1743,1865
1744,1858
1745,1860
1746,1859
1747,1862
1748,1863
1749,1865
1750,1865
1751,1865
1752,1870
1753,1871
1754,1872
1755,1874
1756,1873
1757,1872
1758,1867
1759,1861
1760,1858
1761,1855
1762,1850
1763,1838
1764,1840
1765,1840
1766,1842
1767,1852
1768,1850
1769,1856
1770,1856
1771,1856
1772,1858
1773,1859
1774,1856
1775,1855
1776,1853
1777,1848
1778,1847
1779,1849
1780,1849
1781,1845
1782,1851
1783,1854
1784,1856
1785,1857
1786,1856
1787,1855
1788,1857
1789,1856
1790,1857
1791,1853
1792,1855
1793,1845
1794,1840
1795,1840
1796,1842
1797,1842
1798,1841
1799,1849
1800,1852
1801,1851
1802,1855
1803,1855
1804,1853
1805,1859
1806,1862
1807,1858
1808,1857
1809,1854
1810,1853
1811,1850
1812,1845
1813,1842
1814,1847
1815,1850
1816,1855
1817,1856
1818,1858
1819,1862
1820,1869
1821,1867
1822,1865
1823,1856
1824,1856
1825,1856
1826,1855
1827,1861
1828,1858
1829,1862
1830,1858
1831,1856
1832,1857
1833,1859
1834,1861
1835,1861
1836,1866
1837,1867
1838,1871
1839,1869
1840,1867
1841,1863
1842,1863
1843,1860
1844,1857
1845,1856
1846,1856
1847,1859
1848,1857
1849,1861
1850,1862
1851,1860
1852,1861
1853,1858
1854,1857
1855,1858
1856,1862
1857,1868
1858,1862
1859,1862
1860,1858
1861,1855
1862,1856
1863,1854
1864,1854
1865,1854
1866,1856
1867,1858
1868,1857
1869,1862
1870,1863
1871,1862
1872,1862
1873,1862
1874,1861
1875,1857
1876,1857
1877,1855
1878,1855
1879,1856
1880,1851
1881,1853
1882,1855
1883,1853
1884,1854
1885,1855
1886,1856
1887,1858
1888,1863
1889,1863
1890,1867
1891,1859
1892,1857
1893,1856
1894,1853
1895,1855
1896,1851
1897,1852
1898,1851
1899,1853
1900,1856
1901,1856
1902,1859
1903,1863
1904,1862
1905,1865
1906,1863
1907,1863
1908,1860
1909,1861
1910,1862
1911,1857
1912,1856
1913,1846
1914,1851
1915,1847
1916,1853
1917,1855
1918,1858
1919,1863
1920,1867
1921,1862
1922,1861
1923,1865
1924,1860
1925,1858
1926,1859
1927,1856
1928,1855
1929,1855
1930,1851
1931,1847
1932,1854
1933,1857
1934,1858
1935,1859
1936,1867
1937,1866
1938,1867
1939,1867
1940,1865
1941,1863
1942,1866
1943,1858
1944,1850
1945,1849
1946,1850
1947,1841
1948,1855
1949,1856
1950,1858
1951,1857
1952,1861
1953,1863
1954,1863
1955,1870
1956,1868
1957,1867
1958,1859
1959,1861
1960,1859
1961,1855
1962,1854
1963,1849
1964,1854
1965,1853
1966,1854
1967,1856
1968,1857
1969,1863
1970,1862
1971,1859
1972,1863
1973,1857
1974,1856
1975,1854
1976,1855
1977,1851
1978,1855
1979,1856
1980,1850
1981,1855
1982,1855
1983,1858
1984,1858
1985,1859
1986,1863
1987,1861
1988,1867
1989,1863
1990,1863
1991,1858
1992,1856
1993,1856
1994,1851
1995,1851
1996,1851
1997,1853
1998,1851
1999,1853
2000,1858
2001,1859
2002,1863
2003,1859
2004,1856
2005,1859
2006,1858
2007,1857
2008,1854
2009,1851
2010,1854
2011,1851
2012,1853
2013,1846
2014,1854
2015,1851
2016,1862
2017,1859
2018,1856
2019,1863
2020,1867
2021,1863
2022,1865
2023,1867
2024,1866
2025,1866
2026,1860
2027,1859
2028,1859
2029,1858
2030,1856
2031,1856
2032,1856
2033,1855
2034,1855
2035,1856
2036,1861
2037,1867
2038,1871
2039,1869
2040,1870
2041,1862
2042,1858
2043,1862
2044,1855
2045,1854
2046,1854
2047,1854
2048,1852
2049,1856
2050,1856
2051,1862
2052,1866
2053,1867
2054,1866
2055,1870
2056,1869
2057,1867
2058,1863
2059,1859
2060,1856
2061,1856
2062,1855
2063,1845
2064,1845
2065,1847
2066,1850
2067,1856
2068,1856
2069,1862
2070,1861
2071,1860
2072,1859
2073,1862
2074,1861
2075,1857
2076,1857
2077,1856
2078,1855
2079,1854
2080,1850
2081,1851
2082,1851
2083,1856
2084,1855
2085,1858
2086,1862
2087,1862
2088,1865
2089,1866
2090,1866
2091,1863
2092,1863
2093,1856
2094,1851
2095,1851
2096,1856
2097,1860
2098,1858
2099,1860
2200,1856
2201,1856
2202,1862
2203,1867
2204,1866
2205,1871
2206,1870
2207,1867
2208,1862
2209,1860
2210,1858
2211,1853
2212,1855
2213,1846
2214,1849
2215,1850
2216,1850
2217,1853
2218,1851
2219,1856
2220,1867
2221,1857
2222,1870
2223,1870
2224,1867
2225,1862
2226,1859
2227,1856
2228,1854
2229,1855
2230,1850
2231,1852
2232,1853
2233,1857
2234,1858
2235,1862
2236,1861
2237,1860
2238,1862
2239,1863
2240,1865
2241,1861
2242,1859
2243,1853
2244,1846
2245,1847
2246,1847
2247,1851
2248,1853
2249,1855
2250,1858
2251,1858
2252,1861
2253,1865
2254,1866
2255,1871
2256,1868
2257,1871
2258,1863
2259,1859
2260,1857
2261,1853
2262,1854
2263,1851
2264,1854
2265,1855
2266,1857
2267,1856
2268,1857
2269,1863
2270,1867
2271,1867
2272,1871
2273,1867
2274,1860
2275,1851
2276,1855
2277,1851
2278,1850
2279,1850
2280,1845
2281,1849
2282,1851
2283,1859
2284,1858
2285,1858
2286,1867
2287,1863
2288,1867
2289,1865
2290,1869
2291,1864
2292,1863
2293,1861
2294,1856
2295,1855
2296,1854
2297,1851
2298,1852
2299,1851
2300,1855
2301,1858
2302,1861
2303,1856
2304,1856
2305,1861
2306,1857
2307,1863
2308,1857
2309,1856
2310,1857
2311,1850
2312,1851
2313,1849
2314,1851
2315,1851
2316,1854
2317,1856
2318,1856
2319,1862
2320,1863
2321,1867
2322,1866
2323,1867
2324,1863
2325,1858
2326,1859
2327,1856
2328,1853
2329,1856
2330,1847
2331,1849
2332,1853
2333,1854
2334,1853
2335,1856
2336,1856
2337,1867
2338,1869
2339,1866
2340,1867
2341,1863
2342,1861
2343,1860
2344,1856
2345,1854
2346,1855
2347,1853
2348,1853
2349,1854
2350,1860
2351,1859
2352,1863
2353,1866
2354,1868
2355,1870
2356,1866
2357,1866
2358,1862
2359,1859
2360,1859
2361,1856
2362,1856
2363,1850
2364,1849
2365,1845
2366,1849
2367,1855
2368,1856
2369,1858
2370,1861
2371,1862
2372,1862
2373,1867
2374,1863
2375,1859
2376,1858
2377,1854
2378,1854
2379,1853
2380,1851
2381,1854
2382,1855
2383,1857
2384,1857
2385,1859
2386,1863
2387,1862
2388,1866
2389,1863
2390,1861
2391,1862
2392,1858
2393,1853
2394,1847
2395,1845
2396,1846
2397,1853
2398,1851
2399,1854
2500,1858
2501,1862
2502,1861
2503,1863
2504,1866
2505,1870
2506,1871
2507,1868
2508,1867
2509,1865
2510,1860
2511,1856
2512,1855
2513,1847
2514,1850
2515,1846
2516,1846
2517,1846
2518,1857
2519,1861
2520,1866
2521,1869
2522,1869
2523,1867
2524,1864
2525,1856
2526,1857
2527,1855
2528,1853
2529,1856
2530,1851
2531,1856
2532,1855
2533,1859
2534,1860
2535,1859
2536,1865
2537,1866
2538,1862
2539,1862
2540,1867
2541,1863
2542,1861
2543,1855
2544,1849
2545,1847
2546,1843
2547,1844
2548,1847
2549,1849
2550,1855
2551,1853
2552,1858
2553,1863
2554,1863
2555,1867
2556,1867
2557,1870
2558,1862
2559,1865
2560,1861
2561,1856
2562,1855
2563,1854
2564,1854
2565,1855
2566,1860
2567,1862
2568,1859
2569,1861
2570,1862
2571,1861
2572,1867
2573,2009
2574,1997
2575,1870
2576,1881
2577,1981
2578,2110
2579,2231
2580,2217
2581,2177
2582,2183
2583,1899
2584,1678
2585,1579
2586,1488
2587,1563
2588,1678
2589,1765
2590,1830
2591,1869
2592,1894
2593,1906
2594,1905
2595,1903
2596,1904
2597,1913
2598,1907
2599,1889
2600,1859
2601,1829
2602,1798
2603,1768
2604,1334
2605,1968
2606,1813
2607,1815
2608,1977
2609,2192
2610,2352
2611,2239
2612,2159
2613,2181
2614,1855
2615,1446
2616,1353
2617,1431
2618,1578
2619,1693
2620,1778
2621,1845
2622,1897
2623,1917
2624,1925
2625,1920
2626,1921
2627,1919
2628,1909
2629,1884
2630,1840
2631,1792
2632,1749
2633,1725
2634,1746
2635,478
2636,2090
2637,1914
2638,2096
2639,2490
2640,2622
2641,2559
2642,2337
2643,1952
2644,1647
2645,1403
2646,1263
2647,1228
2648,1360
2649,1535
2650,1712
2651,1829
2652,1897
2653,1930
2654,1942
2655,1942
2656,1946
2657,1957
2658,1948
2659,1925
2660,1882
2661,1811
2662,1762
2663,1747
2664,1792
2665,1834
2666,1363
2667,2141
2668,1983
2669,2101
2670,2458
2671,2554
2672,2526
2673,2220
2674,1737
2675,1451
2676,1456
2677,1474
2678,1469
2679,1535
2680,1682
2681,1807
2682,1879
2683,1924
2684,1938
2685,1936
2686,1935
2687,1947
2688,1950
2689,1934
2690,1898
2691,1836
2692,1766
2693,1727
2694,1751
2695,1805
2696,1833
2697,1845
2698,2047
2699,1997
3100,1840
3101,1853
3102,1863
3103,1875
3104,2126
3105,2010
3106,1987
3107,2531
3108,2673
3109,2538
3110,1815
3111,1446
3112,1469
3113,1459
3114,1374
3115,1446
3116,1664
3117,1824
3118,1888
3119,1917
3120,1935
3121,1936
3122,1950
3123,1949
3124,1935
3125,1873
3126,1807
3127,1744
3128,1741
3129,1766
3130,1810
3131,1846
3132,1856
3133,1866
3134,1874
3135,1834
3136,2067
3137,1939
3138,2403
3139,2658
3140,2676
3141,2016
3142,1472
3143,1417
3144,1472
3145,1392
3146,1424
3147,1629
3148,1805
3149,1879
3150,1911
3151,1930
3152,1937
3153,1950
3154,1955
3155,1940
3156,1904
3157,1839
3158,1770
3159,1740
3160,1761
3161,1807
3162,1829
3163,1843
3164,1853
3165,1865
3166,705
3167,2129
3168,1934
3169,2210
3170,2636
3171,2722
3172,2213
3173,1563
3174,1401
3175,1472
3176,1427
3177,1407
3178,1585
3179,1774
3180,1869
3181,1903
3182,1931
3183,1952
3184,1947
3185,1943
3186,1940
3187,1919
3188,1861
3189,1778
3190,1746
3191,1762
3192,1802
3193,1839
3194,1849
3195,1857
3196,1869
3197,1870
3198,1872
3199,1876
3200,1879
3201,1883
3202,1886
3203,1881
3204,1867
3205,1867
3206,1870
3207,1877
3208,1872
3209,1871
3210,1870
3211,1868
3212,1857
3213,1855
3214,1851
3215,1851
3216,1847
3217,1859
3218,1863
3219,1864
3220,1866
3221,1866
3222,1872
3223,1867
3224,1867
3225,1865
3226,1866
3227,1862
3228,1855
3229,1853
3230,1853
3231,1856
3232,1855
3233,1852
3234,1855
3235,1858
3236,1861
3237,1870
3238,1869
3239,1869
3240,1867
3241,1863
3242,1860
3243,1856
3244,1856
3245,1850
3246,1850
3247,1845
3248,1847
3249,1849
3250,1853
3251,1858
3252,1855
3253,1857
3254,1861
3255,1867
3256,1867
3257,1865
3258,1865
3259,1862
3260,1859
3261,1856
3262,1856
3263,1850
3264,1847
3265,1846
3266,1846
3267,1854
3268,1850
3269,1850
3270,1856
3271,1856
3272,1859
3273,1862
3274,1857
3275,1863
3276,1863
3277,1861
3278,1857
3279,1856
3280,1857
3281,1855
3282,1853
3283,1856
3284,1857
3285,1858
3286,1861
3287,1864
3288,1862
3289,1869
3290,1869
3291,1863
3292,1856
3293,1851
3294,1850
3295,1847
3296,1852
3297,1854
3298,1855
3299,1855
3300,1857
3301,1859
3302,1859
3303,1862
3304,1866
3305,1870
3306,1865
3307,1862
3308,1861
3309,1863
3310,1860
3311,1857
3312,1855
3313,1856
3314,1854
3315,1851
3316,1855
3317,1856
3318,1858
3319,1859
3320,1863
3321,1861
3322,1865
3323,1856
3324,1856
3325,1849
3326,1850
3327,1846
3328,1841
3329,1843
3330,1845
3331,1844
3332,1842
3333,1847
3334,1847
3335,1851
3336,1856
3337,1857
3338,1855
3339,1857
3340,1858
3341,1855
3342,1851
3343,1850
3344,1845
3345,1840
3346,1842
3347,1841
3348,1844
3349,1842
3350,1846
3351,1846
3352,1845
3353,1843
3354,1844
3355,1845
3356,1845
3357,1853
3358,1851
3359,1847
3360,1846
3361,1844
3362,1841
3363,1841
3364,1840
3365,1843
3366,1845
3367,1851
3368,1853
3369,1856
3370,1857
3371,1861
3372,1863
3373,1862
3374,1866
3375,1863
3376,1863
3377,1862
3378,1859
3379,1861
3380,1859
3381,1858
3382,1856
3383,1855
3384,1861
3385,1862
3386,1863
3387,1869
3388,1859
3389,1863
3390,1858
3391,1858
3392,1856
3393,1854
3394,1860
3395,1850
3396,1856
3397,1853
3398,1852
3399,1850
3400,1851
3401,1849
3402,1852
3403,1858
3404,1861
3405,1861
3406,1861
3407,1862
3408,1861
3409,1857
3410,1854
3411,1851
3412,1846
3413,1840
3414,1835
3415,1838
3416,1840
3417,1849
3418,1848
3419,1852
3420,1856
3421,1856
3422,1859
3423,1856
3424,1856
3425,1856
3426,1855
3427,1854
3428,1850
3429,1850
3430,1850
3431,1850
3432,1846
3433,1855
3434,1856
3435,1856
3436,1862
3437,1863
3438,1862
3439,1869
3440,1871
3441,1866
3442,1859
3443,1851
3444,1850
3445,1851
3446,1849
3447,1853
3448,1856
3449,1855
3450,1857
3451,1856
3452,1857
3453,1863
3454,1866
3455,1865
3456,1867
3457,1869
3458,1866
3459,1865
3460,1863
3461,1859
3462,1857
3463,1856
3464,1855
3465,1857
3466,1857
3467,1859
3468,1857
3469,1861
3470,1866
3471,1867
3472,1871
3473,1861
3474,1862
3475,1861
3476,1860
3477,1866
3478,1863
3479,1858
3480,1858
3481,1857
3482,1860
3483,1858
3484,1864
3485,1863
3486,1866
3487,1868
3488,1865
3489,1872
3490,1870
3491,1870
3492,1862
3493,1863
3494,1858
3495,1856
3496,1855
3497,1853
3498,1855
3499,1856
3800,1857
3801,1858
3802,1855
3803,1858
3804,1861
3805,1858
3806,1860
3807,1862
3808,1863
3809,1861
3810,1860
3811,1859
3812,1857
3813,1859
3814,1853
3815,1856
3816,1856
3817,1867
3818,1861
3819,1862
3820,1868
3821,1869
3822,1872
3823,1868
3824,1869
3825,1867
3826,1865
3827,1862
3828,1858
3829,1856
3830,1854
3831,1853
3832,1847
3833,1847
3834,1855
3835,1853
3836,1856
3837,1858
3838,1856
3839,1862
3840,1858
3841,1858
3842,1856
3843,1856
3844,1856
3845,1847
3846,1854
3847,1851
3848,1855
3849,1851
3850,1857
3851,1855
3852,1858
3853,1863
3854,1867
3855,1865
3856,1869
3857,1870
3858,1867
3859,1859
3860,1858
3861,1857
3862,1856
3863,1851
3864,1845
3865,1846
3866,1850
3867,1858
3868,1859
3869,1861
3870,1866
3871,1863
3872,1869
3873,1862
3874,1866
3875,1866
3876,1863
3877,1861
3878,1857
3879,1857
3880,1856
3881,1856
3882,1851
3883,1853
3884,1858
3885,1857
3886,1863
3887,1867
3888,1867
3889,1869
3890,1868
3891,1867
3892,1865
3893,1857
3894,1856
3895,1853
3896,1853
3897,1856
3898,1857
3899,1857
4000,1852
4001,1853
4002,1857
4003,1860
4004,1861
4005,1861
4006,1867
4007,1866
4008,1865
4009,1859
4010,1856
4011,1856
4012,1856
4013,1844
4014,1840
4015,1842
4016,1841
4017,1844
4018,1856
4019,1856
4020,1866
4021,1865
4022,1865
4023,1863
4024,1863
4025,1861
4026,1859
4027,1859
4028,1856
4029,1856
4030,1856
4031,1855
4032,1853
4033,1859
4034,1858
4035,1861
4036,1866
4037,1871
4038,1871
4039,1873
4040,1872
4041,1872
4042,1869
4043,1857
4044,1856
4045,1853
4046,1850
4047,1851
4048,1849
4049,1851
4050,1851
4051,1858
4052,1860
4053,1862
4054,1860
4055,1861
4056,1863
4057,1867
4058,1862
4059,1862
4060,1861
4061,1859
4062,1855
4063,1854
4064,1851
4065,1855
4066,1855
4067,1856
4068,1860
4069,1859
4070,1865
4071,1868
4072,1867
4073,1859
4074,1861
4075,1858
4076,1855
4077,1863
4078,1858
4079,1856
4080,1858
4081,1853
4082,1854
4083,1855
4084,1856
4085,1858
4086,1862
4087,1862
4088,1869
4089,1871
4090,1867
4091,1867
4092,1863
4093,1863
4094,1861
4095,1856
4096,1854
4097,1851
4098,1855
4099,1855
4400,1917
4401,1927
4402,1927
4403,1933
4404,1939
4405,1926
4406,1901
4407,1856
4408,1782
4409,1745
4410,1775
4411,1793
4412,1824
4413,1839
4414,1842
4415,687
4416,2192
4417,1923
4418,2030
4419,2486
4420,2559
4421,2298
4422,1744
4423,1520
4424,1579
4425,1535
4426,1465
4427,1517
4428,1667
4429,1808
4430,1886
4431,1911
4432,1922
4433,1920
4434,1933
4435,1937
4436,1927
4437,1901
4438,1842
4439,1775
4440,1738
4441,1758
4442,1808
4443,1836
4444,1849
4445,1846
4446,1504
4447,2258
4448,1955
4449,1926
4450,2330
4451,2543
4452,2323
4453,1776
4454,1612
4455,1699
4456,1680
4457,1521
4458,1530
4459,1646
4460,1771
4461,1847
4462,1887
4463,1902
4464,1904
4465,1916
4466,1920
4467,1923
4468,1898
4469,1841
4470,1777
4471,1744
4472,1762
4473,1811
4474,1843
4475,1851
4476,1853
4477,1866
4478,2246
4479,2000
4480,1890
4481,2272
4482,2512
4483,2398
4484,1885
4485,1621
4486,1619
4487,1659
4488,1520
4489,1519
4490,1648
4491,1793
4492,1867
4493,1890
4494,1911
4495,1915
4496,1918
4497,1924
4498,1915
4499,1889
4500,1840
4501,1773
4502,1735
4503,1753
4504,1796
4505,1835
4506,1849
4507,1859
4508,1872
4509,1968
4510,2075
4511,1885
4512,2224
4513,2512
4514,2550
4515,2032
4516,1559
4517,1517
4518,1647
4519,1531
4520,1482
4521,1610
4522,1769
4523,1843
4524,1887
4525,1905
4526,1914
4527,1922
4528,1931
4529,1936
4530,1905
4531,1855
4532,1776
4533,1715
4534,1737
4535,1795
4536,1837
4537,1851
4538,1860
4539,1873
4540,986
4541,2164
4542,1914
4543,2135
4544,2535
4545,2629
4546,2187
4547,1615
4548,1474
4549,1584
4550,1488
4551,1427
4552,1555
4553,1730
4554,1845
4555,1889
4556,1915
4557,1931
4558,1936
4559,1936
4560,1936
4561,1922
4562,1866
4563,1799
4564,1734
4565,1738
4566,1786
4567,1826
4568,1840
4569,1845
4570,1862
4571,1163
4572,2261
4573,1953
4574,1984
4575,2480
4576,2608
4577,2369
4578,1759
4579,1471
4580,1535
4581,1509
4582,1424
4583,1488
4584,1680
4585,1821
4586,1885
4587,1922
4588,1938
4589,1936
4590,1936
4591,1943
4592,1932
4593,1893
4594,1835
4595,1765
4596,1741
4597,1776
4598,1819
4599,1837
4800,1430
4801,1411
4802,1591
4803,1785
4804,1879
4805,1915
4806,1938
4807,1941
4808,1949
4809,1949
4810,1937
4811,1901
4812,1838
4813,1760
4814,1723
4815,1773
4816,1812
4817,1818
4818,1839
4819,1855
4820,1872
4821,1879
4822,1885
4823,1885
4824,1887
4825,1886
4826,1879
4827,1873
4828,1873
4829,1868
4830,1863
4831,1856
4832,1858
4833,1858
4834,1870
4835,1861
4836,1869
4837,1869
4838,1870
4839,1866
4840,1868
4841,1870
4842,1869
4843,1867
4844,1862
4845,1858
4846,1857
4847,1856
4848,1855
4849,1855
4850,1855
4851,1859
4852,1858
4853,1857
4854,1859
4855,1861
4856,1867
4857,1868
4858,1869
4859,1861
4860,1860
4861,1859
4862,1856
4863,1854
4864,1855
4865,1855
4866,1854
4867,1856
4868,1856
4869,1856
4870,1862
4871,1867
4872,1862
4873,1862
4874,1859
4875,1861
4876,1858
4877,1859
4878,1858
4879,1856
4880,1858
4881,1851
4882,1856
4883,1853
4884,1855
4885,1857
4886,1857
4887,1869
4888,1867
4889,1868
4890,1869
4891,1870
4892,1863
4893,1862
4894,1863
4895,1858
4896,1856
4897,1854
4898,1853
4899,1853
4900,1855
4901,1856
4902,1861
4903,1859
4904,1864
4905,1863
4906,1867
4907,1868
4908,1869
4909,1862
4910,1863
4911,1862
4912,1856
4913,1851
4914,1851
4915,1847
4916,1843
4917,1854
4918,1857
4919,1856
4920,1859
4921,1863
4922,1864
4923,1868
4924,1868
4925,1870
4926,1866
4927,1865
4928,1859
4929,1856
4930,1854
4931,1854
4932,1855
4933,1854
4934,1856
4935,1856
4936,1857
4937,1862
4938,1867
4939,1867
4940,1869
4941,1867
4942,1867
4943,1863
4944,1856
4945,1855
4946,1853
4947,1855
4948,1851
4949,1851
4950,1851
4951,1853
4952,1856
4953,1860
4954,1869
4955,1869
4956,1871
4957,1868
4958,1866
4959,1862
4960,1860
4961,1859
4962,1856
4963,1851
4964,1849
4965,1846
4966,1850
4967,1851
4968,1853
4969,1853
4970,1859
4971,1861
4972,1859
4973,1856
4974,1856
4975,1855
4976,1847
4977,1851
4978,1854
4979,1849
4980,1847
4981,1841
4982,1845
4983,1843
4984,1843
4985,1844
4986,1847
4987,1852
4988,1856
4989,1856
4990,1855
4991,1856
4992,1852
4993,1853
4994,1853
4995,1846
4996,1844
4997,1846
4998,1845
4999,1846
5000,1846
5001,1849
5002,1852
5003,1853
5004,1858
5005,1858
5006,1858
5007,1868
5008,1866
5009,1863
5010,1863
5011,1861
5012,1856
5013,1857
5014,1858
5015,1857
5016,1856
5017,1857
5018,1866
5019,1866
5020,1870
5021,1872
5022,1870
5023,1872
5024,1872
5025,1871
5026,1862
5027,1864
5028,1862
5029,1859
5030,1862
5031,1856
5032,1857
5033,1848
5034,1853
5035,1850
5036,1847
5037,1853
5038,1856
5039,1856
5040,1856
5041,1858
5042,1855
5043,1861
5044,1862
5045,1857
5046,1854
5047,1854
5048,1846
5049,1849
5050,1847
5051,1854
5052,1853
5053,1853
5054,1855
5055,1860
5056,1861
5057,1859
5058,1857
5059,1857
5060,1856
5061,1856
5062,1851
5063,1840
5064,1840
5065,1840
5066,1840
5067,1846
5068,1854
5069,1855
5070,1857
5071,1857
5072,1859
5073,1866
5074,1865
5075,1859
5076,1857
5077,1856
5078,1854
5079,1853
5080,1851
5081,1849
5082,1853
5083,1850
5084,1855
5085,1856
5086,1857
5087,1862
5088,1863
5089,1865
5090,1867
5091,1868
5092,1865
5093,1856
5094,1856
5095,1854
5096,1853
5097,1857
5098,1854
5099,1856
5100,1856
5101,1862
5102,1861
5103,1863
5104,1869
5105,1869
5106,1868
5107,1867
5108,1865
5109,1863
5110,1862
5111,1862
5112,1858
5113,1859
5114,1860
5115,1857
5116,1857
5117,1860
5118,1859
5119,1862
5120,1866
5121,1867
5122,1867
5123,1857
5124,1861
5125,1857
5126,1856
5127,1857
5128,1861
5129,1859
5130,1858
5131,1854
5132,1856
5133,1854
5134,1855
5135,1856
5136,1857
5137,1865
5138,1867
5139,1866
5140,1870
5141,1869
5142,1865
5143,1861
5144,1860
5145,1856
5146,1855
5147,1855
5148,1849
5149,1851
5150,1854
5151,1857
5152,1856
5153,1854
5154,1858
5155,1859
5156,1862
5157,1861
5158,1857
5159,1857
5160,1856
5161,1856
5162,1848
5163,1850
5164,1858
5165,1854
5166,1854
5167,1856
5168,1855
5169,1859
5170,1862
5171,1866
5172,1863
5173,1871
5174,1867
5175,1870
5176,1870
5177,1865
5178,1861
5179,1858
5180,1857
5181,1853
5182,1856
5183,1847
5184,1853
5185,1855
5186,1858
5187,1859
5188,1867
5189,1867
5190,1871
5191,1872
5192,1867
5193,1863
5194,1859
5195,1856
5196,1855
5197,1856
5198,1853
5199,1853
5200,1855
5201,1859
5202,1862
5203,1860
5204,1863
5205,1866
5206,1867
5207,1865
5208,1869
5209,1866
5210,1865
5211,1861
5212,1856
5213,1851
5214,1853
5215,1853
5216,1850
5217,1853
5218,1861
5219,1863
5220,1867
5221,1869
5222,1870
5223,1872
5224,1871
5225,1871
5226,1866
5227,1865
5228,1859
5229,1855
5230,1854
5231,1853
5232,1854
5233,1851
5234,1854
5235,1855
5236,1856
5237,1862
5238,1863
5239,1865
5240,1863
5241,1866
5242,1865
5243,1857
5244,1857
5245,1855
5246,1847
5247,1853
5248,1854
5249,1854
5250,1854
5251,1861
5252,1856
5253,1858
5254,1862
5255,1862
5256,1867
5257,1865
5258,1869
5259,1869
5260,1863
5261,1862
5262,1858
5263,1856
5264,1856
5265,1854
5266,1854
5267,1856
5268,1861
5269,1863
5270,1863
5271,1866
5272,1866
5273,1863
5274,1863
5275,1867
5276,1859
5277,1860
5278,1866
5279,1862
5280,1862
5281,1856
5282,1856
5283,1853
5284,1852
5285,1855
5286,1856
5287,1861
5288,1865
5289,1863
5290,1867
5291,1869
5292,1867
5293,1861
5294,1861
5295,1858
5296,1857
5297,1857
5298,1855
5299,1855
5300,1855
5301,1856
5302,1856
5303,1854
5304,1861
5305,1859
5306,1860
5307,1859
5308,1867
5309,1867
5310,1862
5311,1862
5312,1856
5313,1856
5314,1856
5315,1854
5316,1851
5317,1851
5318,1855
5319,1857
5320,1859
5321,1862
5322,1867
5323,1872
5324,1871
5325,1867
5326,1863
5327,1862
5328,1863
5329,1857
5330,1856
5331,1853
5332,1853
5333,1850
5334,1853
5335,1856
5336,1855
5337,1856
5338,1858
5339,1855
5340,1857
5341,1859
5342,1867
5343,1861
5344,1862
5345,1861
5346,1857
5347,1857
5348,1851
5349,1855
5350,1855
5351,1858
5352,1857
5353,1859
5354,1863
5355,1866
5356,1866
5357,1868
5358,1865
5359,1863
5360,1862
5361,1860
5362,1856
5363,1849
5364,1855
5365,1851
5366,1850
5367,1854
5368,1858
5369,1861
5370,1862
5371,1867
5372,1867
5373,1869
5374,1866
5375,1869
5376,1861
5377,1861
5378,1859
5379,1855
5380,1858
5381,1858
5382,1856
5383,1856
5384,1857
5385,1861
5386,1858
5387,1863
5388,1864
5389,1863
5390,1867
5391,1869
5392,1866
5393,1857
5394,1856
5395,1855
5396,1851
5397,1854
5398,1854
5399,1855
5400,1855
5401,1856
5402,1858
5403,1858
5404,1866
5405,1866
5406,1866
5407,1863
5408,1866
5409,1863
5410,1857
5411,1857
5412,1856
5413,1856
5414,1854
5415,1851
5416,1851
5417,1853
5418,1857
5419,1857
5420,1866
5421,1867
5422,1867
5423,1867
5424,1862
5425,1863
5426,1860
5427,1863
5428,1865
5429,1861
5430,1861
5431,1857
5432,1856
5433,1856
5434,1856
5435,1857
5436,1857
5437,1862
5438,1865
5439,1866
5440,1870
5441,1871
5442,1869
5443,1863
5444,1863
5445,1857
5446,1859
5447,1856
5448,1854
5449,1857
5450,1854
5451,1857
5452,1857
5453,1853
5454,1856
5455,1856
5456,1859
5457,1863
5458,1865
5459,1861
5460,1861
5461,1859
5462,1856
5463,1856
5464,1856
5465,1850
5466,1853
5467,1857
5468,1863
5469,1866
5470,1865
5471,1870
5472,1867
5473,1871
5474,1866
5475,1872
5476,1866
5477,1867
5478,1863
5479,1861
5480,1858
5481,1858
5482,1856
5483,1844
5484,1850
5485,1851
5486,1855
5487,1861
5488,1864
5489,1866
5490,1866
5491,1871
5492,1871
5493,1866
5494,1862
5495,1863
5496,1857
5497,1856
5498,1854
5499,1855
5500,1855
5501,1858
5502,1859
5503,1860
5504,1866
5505,1867
5506,1869
5507,1866
5508,1869
5509,1863
5510,1857
5511,1858
5512,1856
5513,1846
5514,1851
5515,1847
5516,1854
5517,1846
5518,1863
5519,1861
5520,1862
5521,1867
5522,1867
5523,1867
5524,1867
5525,1868
5526,1862
5527,1861
5528,1861
5529,1856
5530,1858
5531,1857
5532,1858
5533,1856
5534,1858
5535,1860
5536,1863
5537,1870
5538,1871
5539,1867
5540,1870
5541,1867
5542,1866
5543,1858
5544,1857
5545,1854
5546,1853
5547,1849
5548,1842
5549,1849
5550,1854
5551,1857
5552,1856
5553,1857
5554,1866
5555,1867
5556,1869
5557,1867
5558,1869
5559,1869
5560,1860
5561,1860
5562,1856
5563,1857
5564,1857
5565,1853
5566,1855
5567,1856
5568,1863
5569,1863
5570,1862
5571,1869
5572,1870
5573,1865
5574,1861
5575,1861
5576,1858
5577,1857
5578,1863
5579,1857
5580,1854
5581,1855
5582,1855
5583,1854
5584,1855
5585,1857
5586,1861
5587,1862
5588,1867
5589,1867
5590,1869
5591,1871
5592,1872
5593,1866
5594,1865
5595,1862
5596,1858
5597,1857
5598,1856
5599,1856
5600,1855
5601,1857
5602,1858
5603,1856
5604,1858
5605,1857
5606,1858
5607,1860
5608,1857
5609,1854
5610,1858
5611,1856
5612,1851
5613,1854
5614,1847
5615,1851
5616,1853
5617,1854
5618,1857
5619,1857
5620,1858
5621,1866
5622,1868
5623,1871
5624,1869
5625,1866
5626,1859
5627,1859
5628,1859
5629,1855
5630,1853
5631,1855
5632,1855
5633,1846
5634,1856
5635,1854
5636,1856
5637,1857
5638,1867
5639,1868
5640,1871
5641,1872
5642,1872
5643,1867
5644,1863
5645,1861
5646,1858
5647,1856
5648,1855
5649,1853
5650,1853
5651,1856
5652,1855
5653,1857
5654,1859
5655,1862
5656,1866
5657,1869
5658,1869
5659,1866
5660,1859
5661,1858
5662,1856
5663,1851
5664,1854
5665,1851
5666,1854
5667,1860
5668,1862
5669,1863
5670,1862
5671,1867
5672,1870
5673,1872
5674,1870
5675,1870
5676,1866
5677,1867
5678,1863
5679,1856
5680,1855
5681,1855
5682,1855
5683,1854
5684,1855
5685,1856
5686,1860
5687,1865
5688,1871
5689,1869
5690,1871
5691,1870
5692,1870
5693,1859
5694,1858
5695,1857
5696,1858
5697,1856
5698,1856
5699,1857
6100,1845
6101,1856
6102,2353
6103,1968
6104,1865
6105,2289
6106,2496
6107,2400
6108,1899
6109,1616
6110,1616
6111,1639
6112,1513
6113,1511
6114,1626
6115,1754
6116,1839
6117,1879
6118,1910
6119,1920
6120,1927
6121,1936
6122,1934
6123,1907
6124,1846
6125,1769
6126,1729
6127,1744
6128,1801
6129,1827
6130,1839
6131,1850
6132,1857
6133,2307
6134,2021
6135,1845
6136,2241
6137,2483
6138,2515
6139,1970
6140,1563
6141,1535
6142,1637
6143,1520
6144,1492
6145,1615
6146,1760
6147,1845
6148,1875
6149,1902
6150,1914
6151,1921
6152,1933
6153,1939
6154,1918
6155,1868
6156,1780
6157,1727
6158,1747
6159,1799
6160,1834
6161,1845
6162,1855
6163,1862
6164,2015
6165,2114
6166,1856
6167,2133
6168,2479
6169,2608
6170,2111
6171,1615
6172,1511
6173,1568
6174,1483
6175,1456
6176,1582
6177,1747
6178,1861
6179,1902
6180,1919
6181,1931
6182,1926
6183,1929
6184,1934
6185,1915
6186,1869
6187,1794
6188,1741
6189,1729
6190,1791
6191,1839
6192,1850
6193,1855
6194,1863
6195,816
6196,2259
6197,1892
6198,1998
6199,2448
6200,2621
6201,2297
6202,1681
6203,1474
6204,1530
6205,1477
6206,1424
6207,1533
6208,1727
6209,1851
6210,1899
6211,1920
6212,1936
6213,1935
6214,1936
6215,1963
6216,1929
6217,1907
6218,1786
6219,1690
6220,1730
6221,1796
6222,1813
6223,1831
6224,1844
6225,1858
6226,1326
6227,2339
6228,1936
6229,1932
6230,2414
6231,2593
6232,2413
6233,1744
6234,1447
6235,1489
6236,1485
6237,1439
6238,1535
6239,1730
6240,1856
6241,1906
6242,1929
6243,1936
6244,1935
6245,1943
6246,1941
6247,1929
6248,1890
6249,1825
6250,1751
6251,1725
6252,1759
6253,1797
6254,1827
6255,1846
6256,1857
6257,1871
6258,2371
6259,2005
6260,1887
6261,2354
6262,2559
6263,2539
6264,1824
6265,1441
6266,1502
6267,1535
6268,1407
6269,1446
6270,1653
6271,1810
6272,1880
6273,1922
6274,1936
6275,1947
6276,1946
6277,1947
6278,1934
6279,1889
6280,1823
6281,1748
6282,1727
6283,1749
6284,1793
6285,1833
6286,1847
6287,1859
6288,1874
6289,1968
6290,2125
6291,1870
6292,2208
6293,2515
6294,2678
6295,2097
6296,1515
6297,1456
6298,1527
6299,1404
6300,1417
6301,1615
6302,1791
6303,1870
6304,1909
6305,1934
6306,1937
6307,1939
6308,1946
6309,1936
6310,1888
6311,1827
6312,1762
6313,1739
6314,1766
6315,1810
6316,1840
6317,1840
6318,1845
6319,1858
6320,915
6321,2230
6322,1883
6323,2043
6324,2482
6325,2689
6326,2258
6327,1613
6328,1474
6329,1535
6330,1427
6331,1402
6332,1565
6333,1737
6334,1831
6335,1881
6336,1913
6337,1936
6338,1941
6339,1953
6340,1951
6341,1931
6342,1883
6343,1808
6344,1751
6345,1744
6346,1781
6347,1822
6348,1839
6349,1835
6350,1840
6351,1072
6352,2319
6353,1908
6354,1975
6355,2471
6356,2674
6357,2411
6358,1690
6359,1425
6360,1517
6361,1445
6362,1392
6363,1520
6364,1713
6365,1824
6366,1885
6367,1911
6368,1936
6369,1941
6370,1953
6371,1958
6372,1939
6373,1894
6374,1813
6375,1751
6376,1719
6377,1744
6378,1803
6379,1837
6380,1848
6381,1864
6382,1871
6383,2381
6384,1989
6385,1874
6386,2357
6387,2593
6388,2605
6389,1889
6390,1451
6391,1490
6392,1474
6393,1398
6394,1482
6395,1678
6396,1813
6397,1882
6398,1909
6399,1929
6400,1934
6401,1938
6402,1946
6403,1936
6404,1917
6405,1849
6406,1765
6407,1744
6408,1755
6409,1803
6410,1817
6411,1836
6412,1852
6413,1859
6414,2149
6415,2070
6416,1838
6417,2220
6418,2543
6419,2710
6420,2064
6421,1482
6422,1458
6423,1483
6424,1401
6425,1446
6426,1634
6427,1797
6428,1877
6429,1906
6430,1926
6431,1936
6432,1937
6433,1947
6434,1949
6435,1925
6436,1872
6437,1781
6438,1709
6439,1714
6440,1776
6441,1811
6442,1838
6443,1855
6444,1887
6445,1881
6446,1850
6447,1855
6448,1863
6449,1870
6450,1867
6451,1872
6452,1873
6453,1879
6454,1873
6455,1882
6456,1882
6457,1886
6458,1879
6459,1877
6460,1873
6461,1872
6462,1870
6463,1865
6464,1863
6465,1859
6466,1861
6467,1859
6468,1863
6469,1867
6470,1866
6471,1870
6472,1872
6473,1866
6474,1865
6475,1865
6476,1861
6477,1858
6478,1865
6479,1858
6480,1856
6481,1857
6482,1851
6483,1851
6484,1853
6485,1855
6486,1855
6487,1859
6488,1862
6489,1863
6490,1865
6491,1865
6492,1866
6493,1861
6494,1859
6495,1858
6496,1855
6497,1853
6498,1855
6499,1855
6500,1853
6501,1855
6502,1855
6503,1850
6504,1855
6505,1860
6506,1861
6507,1869
6508,1871
6509,1871
6510,1866
6511,1866
6512,1863
6513,1856
6514,1855
6515,1850
6516,1847
6517,1850
6518,1855
6519,1859
6520,1858
6521,1867
6522,1869
6523,1867
6524,1871
6525,1872
6526,1870
6527,1862
6528,1865
6529,1860
6530,1856
6531,1857
6532,1853
6533,1850
6534,1851
6535,1856
6536,1858
6537,1862
6538,1871
6539,1867
6540,1869
6541,1867
6542,1869
6543,1863
6544,1863
6545,1863
6546,1856
6547,1856
6548,1854
6549,1856
6550,1852
6551,1855
6552,1856
6553,1856
6554,1862
6555,1863
6556,1861
6557,1871
6558,1869
6559,1870
6560,1861
6561,1861
6562,1858
6563,1853
6564,1850
6565,1847
6566,1849
6567,1852
6568,1861
6569,1857
6570,1861
6571,1866
6572,1871
6573,1871
6574,1870
6575,1872
6576,1867
6577,1867
6578,1863
6579,1859
6580,1859
6581,1861
6582,1856
6583,1856
6584,1856
6585,1859
6586,1860
6587,1863
6588,1870
6589,1868
6590,1872
6591,1868
6592,1869
6593,1862
6594,1860
6595,1856
6596,1853
6597,1846
6598,1856
6599,1851
6600,1852
6601,1851
6602,1855
6603,1856
6604,1860
6605,1862
6606,1863
6607,1867
6608,1866
6609,1860
6610,1856
6611,1855
6612,1853
6613,1847
6614,1849
6615,1850
6616,1856
6617,1849
6618,1851
6619,1854
6620,1855
6621,1858
6622,1858
6623,1853
6624,1847
6625,1851
6626,1849
6627,1846
6628,1852
6629,1846
6630,1841
6631,1844
6632,1840
6633,1842
6634,1843
6635,1847
6636,1849
6637,1853
6638,1856
6639,1858
6640,1866
6641,1863
6642,1862
6643,1859
6644,1859
6645,1856
6646,1856
6647,1857
6648,1858
6649,1861
6650,1857
6651,1860
6652,1868
6653,1859
6654,1866
6655,1871
6656,1870
6657,1872
6658,1870
6659,1868
6660,1863
6661,1865
6662,1862
6663,1866
6664,1863
6665,1861
6666,1863
6667,1863
6668,1865
6669,1862
6670,1862
6671,1863
6672,1862
6673,1863
6674,1869
6675,1869
6676,1866
6677,1863
6678,1861
6679,1857
6680,1856
6681,1856
6682,1851
6683,1845
6684,1850
6685,1850
6686,1853
6687,1854
6688,1856
6689,1855
6690,1859
6691,1856
6692,1857
6693,1859
6694,1856
6695,1860
6696,1851
6697,1853
6698,1853
6699,1851
6700,1847
6701,1849
6702,1852
6703,1855
6704,1858
6705,1859
6706,1859
6707,1865
6708,1863
6709,1863
6710,1857
6711,1859
6712,1856
6713,1849
6714,1846
6715,1847
6716,1847
6717,1850
6718,1858
6719,1859
6720,1859
6721,1866
6722,1869
6723,1872
6724,1871
6725,1871
6726,1869
6727,1867
6728,1863
6729,1863
6730,1863
6731,1865
6732,1859
6733,1859
6734,1856
6735,1857
6736,1860
6737,1859
6738,1867
6739,1869
6740,1870
6741,1869
6742,1867
6743,1858
6744,1858
6745,1857
6746,1854
6747,1854
6748,1859
6749,1857
6750,1856
6751,1859
6752,1863
6753,1863
6754,1866
6755,1866
6756,1866
6757,1870
6758,1871
6759,1868
6760,1866
6761,1863
6762,1859
6763,1860
6764,1857
6765,1856
6766,1856
6767,1856
6768,1857
6769,1859
6770,1859
6771,1867
6772,1871
6773,1861
6774,1866
6775,1866
6776,1862
6777,1856
6778,1859
6779,1858
6780,1856
6781,1855
6782,1847
6783,1851
6784,1850
6785,1856
6786,1859
6787,1859
6788,1865
6789,1866
6790,1867
6791,1865
6792,1868
6793,1863
6794,1859
6795,1858
6796,1855
6797,1856
6798,1855
6799,1856
6800,1854
6801,1856
6802,1856
6803,1853
6804,1855
6805,1857
6806,1858
6807,1866
6808,1861
6809,1862
6810,1857
6811,1857
6812,1857
6813,1853
6814,1856
6815,1845
6816,1854
6817,1856
6818,1857
6819,1859
6820,1862
6821,1865
6822,1867
6823,1863
6824,1866
6825,1863
6826,1863
6827,1858
6828,1857
6829,1855
6830,1855
6831,1855
6832,1847
6833,1846
6834,1847
6835,1853
6836,1853
6837,1856
6838,1865
6839,1863
6840,1867
6841,1863
6842,1862
6843,1862
6844,1866
6845,1862
6846,1856
6847,1856
6848,1856
6849,1855
6850,1856
6851,1856
6852,1856
6853,1859
6854,1861
6855,1867
6856,1865
6857,1871
6858,1867
6859,1869
6860,1868
6861,1865
6862,1859
6863,1850
6864,1850
6865,1847
6866,1850
6867,1853
6868,1858
6869,1859
6870,1861
6871,1865
6872,1866
6873,1863
6874,1866
6875,1865
6876,1865
6877,1865
6878,1861
6879,1857
6880,1856
6881,1856
6882,1856
6883,1857
6884,1857
6885,1862
6886,1862
6887,1863
6888,1867
6889,1871
6890,1868
6891,1869
6892,1869
6893,1858
6894,1858
6895,1856
6896,1854
6897,1855
6898,1849
6899,1847
6900,1851
6901,1847
6902,1853
6903,1852
6904,1861
6905,1855
6906,1861
6907,1869
6908,1866
6909,1863
6910,1861
6911,1860
6912,1860
6913,1856
6914,1854
6915,1854
6916,1853
6917,1853
6918,1856
6919,1859
6920,1860
6921,1867
6922,1868
6923,1861
6924,1865
6925,1867
6926,1862
6927,1860
6928,1856
6929,1853
6930,1850
6931,1851
6932,1847
6933,1849
6934,1856
6935,1857
6936,1863
6937,1862
6938,1866
6939,1863
6940,1867
6941,1865
6942,1866
6943,1863
6944,1862
6945,1860
6946,1857
6947,1856
6948,1858
6949,1855
6950,1854
6951,1856
6952,1857
6953,1854
6954,1858
6955,1858
6956,1859
6957,1865
6958,1868
6959,1867
6960,1863
6961,1863
6962,1859
6963,1855
6964,1854
6965,1852
6966,1853
6967,1853
6968,1856
6969,1856
6970,1859
6971,1866
6972,1869
6973,1868
6974,1870
6975,1867
6976,1868
6977,1861
6978,1859
6979,1859
6980,1857
6981,1855
6982,1851
6983,1847
6984,1850
6985,1854
6986,1854
6987,1856
6988,1867
6989,1870
6990,1867
6991,1867
6992,1867
6993,1866
6994,1863
6995,1863
6996,1861
6997,1857
6998,1856
6999,1854
7000,1854
7001,1855
7002,1856
7003,1861
7004,1859
7005,1866
7006,1865
7007,1872
7008,1871
7009,1868
7010,1866
7011,1866
7012,1863
7013,1855
7014,1854
7015,1852
7016,1854
7017,1849
7018,1859
7019,1859
7020,1862
7021,1867
7022,1867
7023,1870
7024,1872
7025,1870
7026,1866
7027,1859
7028,1857
7029,1856
7030,1851
7031,1854
7032,1850
7033,1854
7034,1854
7035,1856
7036,1855
7037,1855
7038,1861
7039,1861
7040,1859
7041,1862
7042,1865
7043,1858
7044,1856
7045,1856
7046,1853
7047,1855
7048,1859
7049,1855
7050,1856
7051,1857
7052,1863
7053,1861
7054,1863
7055,1868
7056,1867
7057,1871
7058,1869
7059,1871
7060,1866
7061,1863
7062,1864
7063,1859
7064,1858
7065,1857
7066,1857
7067,1856
7068,1856
7069,1857
7070,1861
7071,1865
7072,1866
7073,1861
7074,1866
7075,1863
7076,1860
7077,1857
7078,1863
7079,1857
7080,1855
7081,1855
7082,1852
7083,1854
7084,1853
7085,1856
7086,1857
7087,1857
7088,1866
7089,1868
7090,1866
7091,1867
7092,1867
7093,1862
7094,1862
7095,1861
7096,1857
7097,1853
7098,1856
7099,1851
7100,1853
7101,1851
7102,1859
7103,1854
7104,1855
7105,1859
7106,1859
7107,1859
7108,1857
7109,1859
7110,1866
7111,1858
7112,1859
7113,1857
7114,1857
7115,1856
7116,1856
7117,1856
7118,1858
7119,1862
7120,1859
7121,1866
7122,1869
7123,1867
7124,1872
7125,1871
7126,1869
7127,1866
7128,1858
7129,1857
7130,1856
7131,1857
7132,1855
7133,1849
7134,1849
7135,1855
7136,1855
7137,1858
7138,1867
7139,1869
7140,1869
7141,1869
7142,1871
7143,1867
7144,1863
7145,1865
7146,1859
7147,1856
7148,1856
7149,1853
7150,1854
7151,1855
7152,1859
7153,1863
7154,1867
7155,1869
7156,1867
7157,1868
7158,1867
7159,1867
7160,1867
7161,1861
7162,1863
7163,1854
7164,1851
7165,1851
7166,1851
7167,1850
7168,1857
7169,1859
7170,1859
7171,1866
7172,1865
7173,1863
7174,1867
7175,1867
7176,1867
7177,1862
7178,1861
7179,1858
7180,1856
7181,1856
7182,1853
7183,1854
7184,1855
7185,1858
7186,1855
7187,1856
7188,1859
7189,1863
7190,1867
7191,1866
7192,1869
7193,1862
7194,1858
7195,1856
7196,1856
7197,1851
7198,1855
7199,1846
7200,1845
7201,1845
7202,1850
7203,1859
7204,1859
7205,1866
7206,1868
7207,1869
7208,1868
7209,1867
7210,1866
7211,1863
7212,1861
7213,1858
7214,1855
7215,1859
7216,1856
7217,1855
7218,1847
7219,1849
7220,1852
7221,1856
7222,1857
7223,1856
7224,1861
7225,1862
7226,1859
7227,1857
7228,1856
7229,1854
7230,1849
7231,1855
7232,1853
7233,1856
7234,1856
7235,1856
7236,1858
7237,1856
7238,1862
7239,1862
7240,1866
7241,1867
7242,1870
7243,1867
7244,1863
7245,1864
7246,1858
7247,1856
7248,1856
7249,1851
7250,1851
7251,1856
7252,1857
7253,1851
7254,1854
7255,1859
7256,1862
7257,1869
7258,1872
7259,1871
7260,1869
7261,1867
7262,1863
7263,1856
7264,1858
7265,1853
7266,1856
7267,1856
7268,1856
7269,1859
7270,1864
7271,1867
7272,1869
7273,1871
7274,1871
7275,1870
7276,1867
7277,1862
7278,1862
7279,1861
7280,1853
7281,1854
7282,1853
7283,1849
7284,1850
7285,1856
7286,1855
7287,1856
7288,1867
7289,1867
7290,1867
7291,1869
7292,1870
7293,1867
7294,1862
7295,1858
7296,1856
7297,1856
7298,1856
7299,1851
7300,1856
7301,1855
7302,1857
7303,1857
7304,1858
7305,1863
7306,1864
7307,1865
7308,1863
7309,1865
7310,1863
7311,1860
7312,1861
7313,1852
7314,1851
7315,1853
7316,1851
7317,1847
7318,1854
7319,1856
7320,1861
7321,1863
7322,1865
7323,1864
7324,1870
7325,1869
7326,1868
7327,1863
7328,1863
7329,1863
7330,1856
7331,1855
7332,1855
7333,1855
7334,1853
7335,1856
7336,1856
7337,1859
7338,1867
7339,1868
7340,1866
7341,1866
7342,1869
7343,1857
7344,1856
7345,1853
7346,1851
7347,1849
7348,1855
7349,1853
7350,1856
7351,1859
7352,1863
7353,1862
7354,1861
7355,1863
7356,1867
7357,1871
7358,1866
7359,1866
7360,1866
7361,1865
7362,1866
7363,1861
7364,1858
7365,1859
7366,1856
7367,1856
7368,1856
7369,1858
7370,1862
7371,1867
7372,1866
7373,1860
7374,1865
7375,1862
7376,1865
7377,1857
7378,1863
7379,1859
7380,1858
7381,1855
7382,1854
7383,1856
7384,1856
7385,1857
7386,1858
7387,1859
7388,1865
7389,1865
7390,1867
7391,1868
7392,1870
7393,1866
7394,1859
7395,1858
7396,1855
7397,1854
7398,1855
7399,1853
7400,1851
7401,1855
7402,1857
7403,1853
7404,1855
7405,1858
7406,1863
7407,1863
7408,1855
7409,1856
7410,1854
7411,1861
7412,1859
7413,1856
7414,1856
7415,1858
7416,1856
7417,1854
7418,1858
7419,1858
7420,1859
7421,1865
7422,1867
7423,1868
7424,1871
7425,1870
7426,1867
7427,1863
7428,1866
7429,1861
7430,1857
7431,1857
7432,1856
7433,1854
7434,1852
7435,1854
7436,1853
7437,1855
7438,1865
7439,1867
7440,1868
7441,1871
7442,1868
7443,1867
7444,1104
7445,2325
7446,1916
7447,1867
7448,1936
7449,2006
7450,2101
7451,2182
7452,2113
7453,2074
7454,2140
7455,1920
7456,1661
7457,1515
7458,1471
7459,1519
7460,1618
7461,1707
7462,1777
7463,1827
7464,1871
7465,1904
7466,1914
7467,1901
7468,1908
7469,1913
7470,1898
7471,1877
7472,1862
7473,1840
7474,1813
7475,1785
7476,2365
7477,1873
7478,1797
7479,1904
7480,2078
7481,2233
7482,2281
7483,2111
7484,2083
7485,2107
7486,1803
7487,1421
7488,1328
7489,1392
7490,1523
7491,1648
7492,1757
7493,1835
7494,1879
7495,1902
7496,1907
7497,1907
7498,1925
7499,1922
7500,1937
7501,1933
7502,1887
7503,1819
7504,1757
7505,1737
7506,1751
7507,2282
7508,2016
7509,1840
7510,2026
7511,2333
7512,2432
7513,2451
7514,2269
7515,1978
7516,1697
7517,1455
7518,1341
7519,1266
7520,1351
7521,1525
7522,1695
7523,1809
7524,1882
7525,1915
7526,1927
7527,1922
7528,1920
7529,1931
7530,1930
7531,1913
7532,1873
7533,1835
7534,1780
7535,1767
7536,1794
7537,1837
7538,1471
7539,2175
7540,1891
7541,2021
7542,2336
7543,2449
7544,2490
7545,2199
7546,1791
7547,1488
7548,1477
7549,1427
7550,1415
7551,1504
7552,1653
7553,1777
7554,1863
7555,1908
7556,1925
7557,1927
7558,1931
7559,1941
7560,1942
7561,1929
7562,1901
7563,1854
7564,1792
7565,1755
7566,1766
7567,1805
7568,1818
7569,845
7570,2253
7571,1907
7572,2006
7573,2352
7574,2511
7575,2549
7576,2171
7577,1653
7578,1424
7579,1436
7580,1425
7581,1445
7582,1535
7583,1680
7584,1787
7585,1857
7586,1897
7587,1903
7588,1904
7589,1909
7590,1925
7591,1930
7592,1916
7593,1871
7594,1808
7595,1748
7596,1744
7597,1783
7598,1820
7599,1835
7600,1789
7601,2390
7602,1955
7603,1968
7604,2338
7605,2527
7606,2597
7607,2193
7608,1646
7609,1420
7610,1387
7611,1417
7612,1440
7613,1527
7614,1671
7615,1793
7616,1865
7617,1893
7618,1911
7619,1917
7620,1933
7621,1950
7622,1948
7623,1923
7624,1873
7625,1786
7626,1745
7627,1764
7628,1803
7629,1839
7630,1841
7631,1850
7632,2354
7633,2026
7634,1897
7635,2215
7636,2497
7637,2547
7638,2202
7639,1677
7640,1479
7641,1520
7642,1475
7643,1427
7644,1508
7645,1659
7646,1797
7647,1872
7648,1910
7649,1919
7650,1922
7651,1926
7652,1934
7653,1926
7654,1904
7655,1861
7656,1797
7657,1754
7658,1766
7659,1808
7660,1838
7661,1850
7662,1858
7663,1840
7664,2102
7665,1872
7666,2004
7667,2353
7668,2455
7669,2102
7670,1740
7671,1696
7672,1700
7673,1581
7674,1489
7675,1559
7676,1685
7677,1803
7678,1872
7679,1906
7680,1915
7681,1919
7682,1925
7683,1936
7684,1929
7685,1911
7686,1863
7687,1792
7688,1735
7689,1750
7690,1793
7691,1826
7692,1840
7693,1854
7694,870
7695,2256
7696,1883
7697,1871
7698,2193
7699,2378
7700,2095
7701,1865
7702,1907
7703,1766
7704,1635
7705,1488
7706,1520
7707,1658
7708,1793
7709,1866
7710,1899
7711,1904
7712,1907
7713,1918
7714,1925
7715,1925
7716,1900
7717,1847
7718,1776
7719,1726
7720,1741
7721,1783
7722,1821
7723,1840
7724,1859
7725,1469
7726,2382
7727,1937
7728,1850
7729,2196
7730,2436
7731,2261
7732,1936
7733,1820
7734,1676
7735,1585
7736,1456
7737,1485
7738,1650
7739,1787
7740,1856
7741,1900
7742,1924
7743,1925
7744,1923
7745,1931
7746,1926
7747,1898
7748,1845
7749,1776
7750,1734
7751,1742
7752,1781
7753,1823
7754,1841
7755,1859
7756,1872
7757,2414
7758,2011
7759,1849
7760,2255
7761,2469
7762,2475
7763,1977
7764,1555
7765,1526
7766,1597
7767,1469
7768,1467
7769,1633
7770,1778
7771,1859
7772,1895
7773,1914
7774,1930
7775,1936
7776,1943
7777,1939
7778,1917
7779,1862
7780,1791
7781,1734
7782,1729
7783,1774
7784,1813
7785,1840
7786,1853
7787,1861
7788,2098
7789,2112
7790,1856
7791,2159
7792,2481
7793,2559
7794,2065
7795,1599
7796,1515
7797,1626
7798,1487
7799,1424
7800,1584
7801,1749
7802,1847
7803,1879
7804,1904
7805,1927
7806,1935
7807,1946
7808,1947
7809,1939
7810,1897
7811,1810
7812,1744
7813,1719
7814,1758
7815,1810
7816,1829
7817,1840
7818,1851
7819,1054
7820,2224
7821,1878
7822,2035
7823,2465
7824,2599
7825,2224
7826,1677
7827,1481
7828,1535
7829,1456
7830,1406
7831,1535
7832,1727
7833,1847
7834,1894
7835,1920
7836,1934
7837,1936
7838,1941
7839,1943
7840,1929
7841,1889
7842,1826
7843,1758
7844,1739
7845,1766
7846,1814
7847,1840
7848,1849
7849,1855
7850,1186
7851,2352
7852,1915
7853,1925
7854,2415
7855,2559
7856,2406
7857,1807
7858,1462
7859,1520
7860,1488
7861,1408
7862,1504
7863,1689
7864,1833
7865,1885
7866,1904
7867,1925
7868,1931
7869,1936
7870,1941
7871,1936
7872,1904
7873,1841
7874,1779
7875,1744
7876,1765
7877,1810
7878,1827
7879,1835
7880,1847
7881,1862
7882,2417
7883,1952
7884,1872
7885,2367
7886,2559
7887,2525
7888,1886
7889,1463
7890,1488
7891,1506
7892,1424
7893,1487
7894,1655
7895,1792
7896,1867
7897,1898
7898,1923
7899,1929
7900,1931
7901,1931
7902,1927
7903,1902
7904,1852
7905,1795
7906,1746
7907,1754
7908,1803
7909,1831
7910,1846
7911,1856
7912,1863
7913,2340
7914,2034
7915,1837
7916,2261
7917,2521
7918,2605
7919,2029
7920,1507
7921,1454
7922,1520
7923,1426
7924,1449
7925,1616
7926,1783
7927,1872
7928,1905
7929,1926
7930,1932
7931,1926
7932,1936
7933,1936
7934,1911
7935,1853
7936,1777
7937,1732
7938,1744
7939,1794
7940,1836
7941,1855
7942,1861
7943,1866
7944,1392
7945,2186
7946,1851
7947,2096
7948,2498
7949,2670
7950,2215
7951,1600
7952,1409
7953,1520
7954,1450
7955,1408
7956,1559
7957,1748
7958,1860
7959,1905
7960,1927
7961,1936
7962,1936
7963,1937
7964,1946
7965,1924
7966,1870
7967,1797
7968,1738
7969,1734
7970,1770
7971,1808
7972,1840
7973,1850
7974,1866
7975,889
7976,2295
7977,1893
7978,2005
7979,2490
7980,2673
7981,2334
7982,1642
7983,1380
7984,1489
7985,1467
7986,1392
7987,1518
7988,1726
7989,1855
7990,1905
7991,1936
7992,1947
7993,1941
7994,1946
7995,1954
7996,1939
7997,1891
7998,1821
7999,1751
8000,1735
8001,1764
8002,1810
8003,1831
8004,1840
8005,1850
8006,1627
8007,2410
8008,1937
8009,1894
8010,2399
8011,2599
8012,2543
8013,1801
8014,1362
8015,1456
8016,1487
8017,1394
8018,1488
8019,1698
8020,1835
8021,1895
8022,1924
8023,1936
8024,1938
8025,1943
8026,1956
8027,1948
8028,1910
8029,1835
8030,1745
8031,1725
8032,1754
8033,1791
8034,1813
8035,1827
8036,1843
8037,1857
8038,2379
8039,2037
8040,1850
8041,2277
8042,2551
8043,2667
8044,1991
8045,1428
8046,1424
8047,1503
8048,1406
8049,1431
8050,1637
8051,1797
8052,1877
8053,1911
8054,1934
8055,1943
8056,1953
8057,1977
8058,1968
8059,1917
8060,1856
8061,1778
8062,1725
8063,1721
8064,1763
8065,1805
8066,1818
8067,1838
8068,1859
8069,1873
8070,1878
8071,1884
8072,1898
8073,1905
8074,1879
8075,1879
8076,1889
8077,1886
8078,1889
8079,1870
8080,1856
8081,1862
8082,1869
8083,1867
8084,1863
8085,1863
8086,1868
8087,1868
8088,1872
8089,1872
8090,1873
8091,1873
8092,1873
8093,1867
8094,1859
8095,1857
8096,1857
8097,1854
8098,1856
8099,1854
8100,1856
8101,1854
8102,1855
8103,1856
8104,1856
8105,1862
8106,1866
8107,1870
8108,1865
8109,1866
8110,1862
8111,1857
8112,1856
8113,1855
8114,1854
8115,1850
8116,1846
8117,1855
8118,1846
8119,1855
8120,1856
8121,1856
8122,1862
8123,1859
8124,1861
8125,1861
8126,1862
8127,1863
8128,1863
8129,1859
8130,1859
8131,1855
8132,1853
8133,1852
8134,1853
8135,1855
8136,1857
8137,1859
8138,1866
8139,1865
8140,1869
8141,1872
8142,1873
8143,1872
8144,1870
8145,1866
8146,1863
8147,1859
8148,1856
8149,1850
8150,1854
8151,1854
8152,1855
8153,1851
8154,1852
8155,1857
8156,1858
8157,1859
8158,1865
8159,1869
8160,1866
8161,1863
8162,1861
8163,1856
8164,1853
8165,1854
8166,1856
8167,1856
8168,1856
8169,1860
8170,1860
8171,1862
8172,1867
8173,1869
8174,1871
8175,1869
8176,1872
8177,1864
8178,1866
8179,1865
8180,1859
8181,1855
8182,1856
8183,1847
8184,1846
8185,1849
8186,1856
8187,1855
8188,1863
8189,1866
8190,1866
8191,1869
8192,1867
8193,1867
8194,1862
8195,1859
8196,1858
8197,1856
8198,1857
8199,1856
8200,1856
8201,1857
8202,1856
8203,1861
8204,1863
8205,1867
8206,1871
8207,1868
8208,1871
8209,1872
8210,1869
8211,1868
8212,1866
8213,1855
8214,1854
8215,1853
8216,1845
8217,1850
8218,1845
8219,1847
8220,1849
8221,1853
8222,1855
8223,1854
8224,1866
8225,1865
8226,1866
8227,1863
8228,1859
8229,1857
8230,1853
8231,1853
8232,1851
8233,1849
8234,1847
8235,1847
8236,1852
8237,1856
8238,1855
8239,1856
8240,1857
8241,1863
8242,1862
8243,1853
8244,1851
8245,1850
8246,1846
8247,1843
8248,1846
8249,1845
8250,1846
8251,1845
8252,1842
8253,1841
8254,1849
8255,1854
8256,1853
8257,1853
8258,1856
8259,1855
8260,1856
8261,1853
8262,1851
8263,1847
8264,1841
8265,1846
8266,1841
8267,1847
8268,1847
8269,1851
8270,1851
8271,1851
8272,1858
8273,1853
8274,1856
8275,1856
8276,1859
8277,1855
8278,1855
8279,1853
8280,1854
8281,1853
8282,1853
8283,1850
8284,1857
8285,1862
8286,1865
8287,1867
8288,1871
8289,1872
8290,1873
8291,1877
8292,1879
8293,1879
8294,1875
8295,1873
8296,1872
8297,1871
8298,1870
8299,1863
8300,1867
8301,1863
8302,1866
8303,1859
8304,1860
8305,1866
8306,1867
8307,1865
8308,1865
8309,1863
8310,1859
8311,1863
8312,1861
8313,1857
8314,1855
8315,1856
8316,1841
8317,1854
8318,1851
8319,1857
8320,1855
8321,1857
8322,1862
8323,1861
8324,1861
8325,1861
8326,1862
8327,1859
8328,1856
8329,1856
8330,1849
8331,1847
8332,1848
8333,1840
8334,1840
8335,1841
8336,1845
8337,1847
8338,1857
8339,1859
8340,1857
8341,1861
8342,1858
8343,1860
8344,1857
8345,1858
8346,1858
8347,1856
8348,1852
8349,1852
8350,1854
8351,1850
8352,1855
8353,1856
8354,1858
8355,1862
8356,1863
8357,1866
8358,1869
8359,1871
8360,1868
8361,1862
8362,1862
8363,1854
8364,1852
8365,1847
8366,1843
8367,1846
8368,1850
8369,1851
8370,1855
8371,1862
8372,1866
8373,1870
8374,1872
8375,1872
8376,1872
8377,1869
8378,1867
8379,1866
8380,1861
8381,1859
8382,1861
8383,1856
8384,1857
8385,1860
8386,1859
8387,1866
8388,1868
8389,1869
8390,1871
8391,1872
8392,1872
8393,1867
8394,1860
8395,1858
8396,1854
8397,1854
8398,1858
8399,1855
8400,1856
8401,1854
8402,1855
8403,1857
8404,1857
8405,1861
8406,1866
8407,1862
8408,1867
8409,1867
8410,1867
8411,1860
8412,1857
8413,1858
8414,1855
8415,1854
8416,1852
8417,1853
8418,1844
8419,1852
8420,1851
8421,1856
8422,1858
8423,1860
8424,1859
8425,1855
8426,1857
8427,1856
8428,1858
8429,1857
8430,1856
8431,1853
8432,1855
8433,1852
8434,1850
8435,1852
8436,1856
8437,1856
8438,1861
8439,1861
8440,1863
8441,1869
8442,1863
8443,1866
8444,1862
8445,1863
8446,1861
8447,1855
8448,1855
8449,1853
8450,1854
8451,1853
8452,1856
8453,1850
8454,1856
8455,1859
8456,1859
8457,1859
8458,1871
8459,1870
8460,1869
8461,1861
8462,1859
8463,1862
8464,1859
8465,1857
8466,1854
8467,1856
8468,1853
8469,1856
8470,1855
8471,1859
8472,1866
8473,1865
8474,1867
8475,1868
8476,1868
8477,1861
8478,1857
8479,1860
8480,1856
8481,1856
8482,1856
8483,1843
8484,1846
8485,1851
8486,1855
8487,1855
8488,1866
8489,1870
8490,1871
8491,1872
8492,1871
8493,1869
8494,1865
8495,1865
8496,1860
8497,1860
8498,1857
8499,1856
8500,1859
8501,1858
8502,1856
8503,1859
8504,1859
8505,1865
8506,1864
8507,1865
8508,1867
8509,1869
8510,1867
8511,1862
8512,1859
8513,1853
8514,1851
8515,1849
8516,1843
8517,1847
8518,1847
8519,1851
8520,1853
8521,1854
8522,1856
8523,1862
8524,1865
8525,1867
8526,1867
8527,1862
8528,1862
8529,1859
8530,1856
8531,1855
8532,1855
8533,1855
8534,1853
8535,1855
8536,1859
8537,1858
8538,1862
8539,1865
8540,1867
8541,1870
8542,1871
8543,1862
8544,1858
8545,1857
8546,1857
8547,1855
8548,1855
8549,1853
8550,1855
8551,1854
8552,1856
8553,1856
8554,1857
8555,1861
8556,1863
8557,1863
8558,1867
8559,1869
8560,1866
8561,1865
8562,1862
8563,1859
8564,1856
8565,1857
8566,1849
8567,1856
8568,1855
8569,1857
8570,1858
8571,1860
8572,1863
8573,1856
8574,1860
8575,1858
8576,1862
8577,1858
8578,1864
8579,1862
8580,1856
8581,1857
8582,1855
8583,1851
8584,1854
8585,1855
8586,1858
8587,1862
8588,1862
8589,1866
8590,1866
8591,1870
8592,1867
8593,1867
8594,1863
8595,1858
8596,1859
8597,1854
8598,1854
8599,1853
8600,1852
8601,1850
8602,1854
8603,1851
8604,1852
8605,1856
8606,1861
8607,1859
8608,1862
8609,1856
8610,1856
8611,1854
8612,1859
8613,1859
8614,1856
8615,1856
8616,1853
8617,1855
8618,1856
8619,1855
8620,1857
8621,1859
8622,1862
8623,1869
8624,1867
8625,1869
8626,1869
8627,1867
8628,1865
8629,1861
8630,1858
8631,1858
8632,1855
8633,1845
8634,1845
8635,1849
8636,1855
8637,1856
8638,1863
8639,1867
8640,1869
8641,1873
8642,1872
8643,1872
8644,1867
8645,1865
8646,1865
8647,1859
8648,1857
8649,1855
8650,1855
8651,1856
8652,1855
8653,1858
8654,1857
8655,1866
8656,1867
8657,1867
8658,1870
8659,1866
8660,1867
8661,1861
8662,1860
8663,1855
8664,1853
8665,1850
8666,1845
8667,1851
8668,1845
8669,1847
8670,1857
8671,1861
8672,1865
8673,1867
8674,1867
8675,1866
8676,1868
8677,1867
8678,1858
8679,1858
8680,1857
8681,1854
8682,1855
8683,1853
8684,1855
8685,1854
8686,1857
8687,1858
8688,1863
8689,1866
8690,1867
8691,1870
8692,1869
8693,1862
8694,1859
8695,1858
8696,1857
8697,1851
8698,1856
8699,1854
8700,1855
8701,1853
8702,1854
8703,1856
8704,1858
8705,1860
8706,1861
8707,1863
8708,1870
8709,1870
8710,1867
8711,1862
8712,1859
8713,1859
8714,1855
8715,1856
8716,1851
8717,1853
8718,1847
8719,1850
8720,1851
8721,1854
8722,1857
8723,1857
8724,1862
8725,1862
8726,1862
8727,1861
8728,1856
8729,1856
8730,1852
8731,1856
8732,1856
8733,1850
8734,1851
8735,1851
8736,1856
8737,1859
8738,1856
8739,1865
8740,1869
8741,1872
8742,1869
8743,1871
8744,1867
8745,1865
8746,1863
8747,1859
8748,1859
8749,1858
8750,1855
8751,1856
8752,1857
8753,1858
8754,1858
8755,1859
8756,1862
8757,1859
8758,1872
8759,1871
8760,1870
8761,1864
8762,1862
8763,1857
8764,1853
8765,1855
8766,1851
8767,1854
8768,1856
8769,1856
8770,1857
8771,1857
8772,1865
8773,1865
8774,1867
8775,1869
8776,1870
8777,1870
8778,1862
8779,1861
8780,1856
8781,1854
8782,1856
8783,1845
8784,1850
8785,1851
8786,1854
8787,1854
8788,1863
8789,1866
8790,1869
8791,1869
8792,1869
8793,1869
8794,1865
8795,1862
8796,1862
8797,1856
8798,1855
8799,1855
8800,1855
8801,1854
8802,1856
8803,1861
8804,1862
8805,1867
8806,1870
8807,1870
8808,1872
8809,1872
8810,1870
8811,1863
8812,1858
8813,1851
8814,1847
8815,1849
8816,1845
8817,1855
8818,1850
8819,1854
8820,1856
8821,1856
8822,1861
8823,1862
8824,1863
8825,1865
8826,1867
8827,1865
8828,1859
8829,1859
8830,1856
8831,1857
8832,1856
8833,1852
8834,1855
8835,1855
8836,1858
8837,1856
8838,1859
8839,1862
8840,1863
8841,1869
8842,1869
8843,1863
8844,1857
8845,1856
8846,1856
8847,1853
8848,1852
8849,1850
8850,1855
8851,1854
8852,1857
8853,1862
8854,1861
8855,1863
8856,1869
8857,1871
8858,1871
8859,1867
8860,1868
8861,1862
8862,1861
8863,1857
8864,1854
8865,1856
8866,1854
8867,1856
8868,1856
8869,1859
8870,1860
8871,1859
8872,1862
8873,1858
8874,1861
8875,1863
8876,1863
8877,1859
8878,1859
8879,1863
8880,1858
8881,1856
8882,1857
8883,1855
8884,1856
8885,1852
8886,1856
8887,1856
8888,1857
8889,1863
8890,1866
8891,1871
8892,1867
8893,1869
8894,1867
8895,1866
8896,1863
8897,1860
8898,1859
8899,1858
8900,1856
8901,1855
8902,1853
8903,1850
8904,1853
8905,1857
8906,1859
8907,1856
8908,1869
8909,1866
8910,1867
8911,1862
8912,1860
8913,1857
8914,1855
8915,1854
8916,1853
8917,1855
8918,1855
8919,1856
8920,1857
8921,1858
8922,1862
8923,1867
8924,1866
8925,1869
8926,1871
8927,1868
8928,1865
8929,1865
8930,1862
8931,1863
8932,1863
8933,1853
8934,1854
8935,1854
8936,1855
8937,1856
8938,1853
8939,1855
8940,1862
8941,1866
8942,1867
8943,1862
8944,1861
8945,1858
8946,1862
8947,1860
8948,1856
8949,1855
8950,1851
8951,1850
8952,1855
8953,1856
8954,1858
8955,1861
8956,1869
8957,1869
8958,1874
8959,1872
8960,1870
8961,1863
8962,1862
8963,1853
8964,1845
8965,1847
8966,1845
8967,1847
8968,1855
8969,1859
8970,1862
8971,1862
8972,1861
8973,1859
8974,1859
8975,1864
8976,1869
8977,1869
8978,1867
8979,1863
8980,1860
8981,1860
8982,1861
8983,1856
8984,1857
8985,1856
8986,1862
8987,1861
8988,1862
8989,1859
8990,1863
8991,1868
8992,1865
8993,1863
8994,1860
8995,1857
8996,1859
8997,1854
8998,1856
8999,1857
9000,1857
9001,1857
9002,1857
9003,1859
9004,1862
9005,1866
9006,1866
9007,1869
9008,1872
9009,1872
9010,1872
9011,1866
9012,1863
9013,1862
9014,1857
9015,1855
9016,1855
9017,1854
9018,1849
9019,1851
9020,1853
9021,1855
9022,1858
9023,1861
9024,1860
9025,1867
9026,1869
9027,1865
9028,1857
9029,1856
9030,1854
9031,1856
9032,1856
9033,1854
9034,1851
9035,1851
9036,1856
9037,1856
9038,1859
9039,1866
9040,1869
9041,1868
9042,1867
9043,1870
9044,1866
9045,1862
9046,1861
9047,1856
9048,1856
9049,1856
9050,1853
9051,1853
9052,1853
9053,1854
9054,1855
9055,1857
9056,1862
9057,1865
9058,1872
9059,1867
9060,1869
9061,1863
9062,1861
9063,1860
9064,1857
9065,1857
9066,1863
9067,1855
9068,966
9069,2320
9070,1889
9071,1805
9072,1858
9073,1949
9074,2094
9075,2202
9076,2141
9077,2119
9078,2160
9079,1909
9080,1632
9081,1526
9082,1507
9083,1558
9084,1648
9085,1729
9086,1795
9087,1840
9088,1887
9089,1926
9090,1935
9091,1933
9092,1914
9093,1919
9094,1901
9095,1840
9096,1823
9097,1857
9098,1824
9099,1725
9100,2375
9101,1826
9102,1731
9103,1858
9104,2062
9105,2263
9106,2300
9107,2112
9108,2133
9109,2089
9110,1713
9111,1408
9112,1337
9113,1409
9114,1527
9115,1639
9116,1735
9117,1819
9118,1870
9119,1906
9120,1921
9121,1925
9122,1935
9123,1936
9124,1936
9125,1917
9126,1863
9127,1808
9128,1776
9129,1754
9130,1763
9131,2421
9132,1985
9133,1825
9134,2082
9135,2407
9136,2507
9137,2481
9138,2225
9139,1917
9140,1639
9141,1447
9142,1302
9143,1200
9144,1309
9145,1487
9146,1675
9147,1804
9148,1870
9149,1904
9150,1919
9151,1916
9152,1925
9153,1939
9154,1945
9155,1938
9156,1902
9157,1843
9158,1801
9159,1775
9160,1796
9161,1831
9162,2117
9163,2117
9164,1867
9165,2065
9166,2427
9167,2538
9168,2487
9169,2143
9170,1727
9171,1469
9172,1456
9173,1387
9174,1374
9175,1479
9176,1648
9177,1777
9178,1865
9179,1907
9180,1926
9181,1927
9182,1922
9183,1938
9184,1943
9185,1931
9186,1900
9187,1847
9188,1791
9189,1755
9190,1769
9191,1811
9192,1840
9193,1023
9194,2242
9195,1887
9196,1994
9197,2368
9198,2529
9199,2511
9200,2083
9201,1523
9202,1421
9203,1439
9204,1427
9205,1456
9206,1575
9207,1712
9208,1826
9209,1887
9210,1920
9211,1927
9212,1924
9213,1928
9214,1941
9215,1937
9216,1911
9217,1869
9218,1798
9219,1735
9220,1726
9221,1763
9222,1813
9223,1838
9224,1293
9225,2384
9226,1918
9227,1892
9228,2320
9229,2537
9230,2513
9231,2160
9232,1658
9233,1402
9234,1407
9235,1391
9236,1424
9237,1574
9238,1728
9239,1836
9240,1901
9241,1923
9242,1928
9243,1933
9244,1935
9245,1936
9246,1927
9247,1904
9248,1855
9249,1792
9250,1763
9251,1745
9252,1776
9253,1825
9254,1840
9255,1853
9256,2459
9257,1986
9258,1871
9259,2242
9260,2506
9261,2519
9262,2094
9263,1632
9264,1535
9265,1533
9266,1438
9267,1412
9268,1520
9269,1694
9270,1827
9271,1893
9272,1920
9273,1935
9274,1934
9275,1942
9276,1948
9277,1935
9278,1904
9279,1849
9280,1786
9281,1740
9282,1748
9283,1791
9284,1822
9285,1837
9286,1847
9287,2141
9288,2113
9289,1839
9290,1946
9291,2311
9292,2448
9293,2036
9294,1889
9295,1820
9296,1696
9297,1535
9298,1437
9299,1516
9300,1680
9301,1799
9302,1857
9303,1894
9304,1905
9305,1911
9306,1923
9307,1936
9308,1935
9309,1904
9310,1856
9311,1792
9312,1747
9313,1750
9314,1791
9315,1818
9316,1837
9317,1843
9318,1281
9319,2202
9320,1835
9321,1880
9322,2287
9323,2449
9324,2128
9325,1818
9326,1723
9327,1745
9328,1602
9329,1437
9330,1517
9331,1690
9332,1807
9333,1856
9334,1888
9335,1901
9336,1911
9337,1921
9338,1926
9339,1929
9340,1904
9341,1856
9342,1792
9343,1747
9344,1754
9345,1798
9346,1830
9347,1840
9348,1847
9349,1085
9350,2350
9351,1872
9352,1835
9353,2278
9354,2497
9355,2366
9356,1895
9357,1612
9358,1616
9359,1535
9360,1418
9361,1488
9362,1677
9363,1808
9364,1862
9365,1886
9366,1905
9367,1920
9368,1927
9369,1939
9370,1937
9371,1909
9372,1868
9373,1799
9374,1726
9375,1741
9376,1794
9377,1834
9378,1845
9379,1855
9380,1860
9381,2470
9382,1953
9383,1807
9384,2217
9385,2466
9386,2513
9387,1968
9388,1585
9389,1607
9390,1621
9391,1399
9392,1445
9393,1651
9394,1787
9395,1840
9396,1871
9397,1899
9398,1914
9399,1922
9400,1931
9401,1931
9402,1906
9403,1867
9404,1787
9405,1734
9406,1744
9407,1790
9408,1834
9409,1847
9410,1858
9411,1868
9412,2318
9413,2078
9414,1809
9415,2113
9416,2458
9417,2663
9418,2151
9419,1616
9420,1569
9421,1557
9422,1360
9423,1382
9424,1571
9425,1741
9426,1841
9427,1893
9428,1916
9429,1927
9430,1934
9431,1936
9432,1938
9433,1921
9434,1878
9435,1822
9436,1751
9437,1714
9438,1755
9439,1809
9440,1838
9441,1855
9442,1869
9443,1693
9444,2180
9445,1819
9446,1993
9447,2407
9448,2657
9449,2288
9450,1685
9451,1531
9452,1535
9453,1387
9454,1374
9455,1535
9456,1728
9457,1840
9458,1889
9459,1914
9460,1934
9461,1936
9462,1938
9463,1941
9464,1919
9465,1887
9466,1815
9467,1759
9468,1730
9469,1771
9470,1819
9471,1840
9472,1854
9473,1861
9474,1070
9475,2366
9476,1881
9477,1869
9478,2330
9479,2591
9480,2497
9481,1830
9482,1513
9483,1535
9484,1417
9485,1360
9486,1488
9487,1687
9488,1819
9489,1882
9490,1914
9491,1936
9492,1945
9493,1951
9494,1954
9495,1940
9496,1904
9497,1842
9498,1778
9499,1733
9500,1735
9501,1786
9502,1811
9503,1823
9504,1840
9505,1723
9506,2463
9507,1936
9508,1840
9509,2291
9510,2557
9511,2611
9512,1911
9513,1511
9514,1525
9515,1433
9516,1346
9517,1452
9518,1650
9519,1801
9520,1869
9521,1903
9522,1926
9523,1936
9524,1943
9525,1954
9526,1943
9527,1911
9528,1850
9529,1781
9530,1743
9531,1750
9532,1801
9533,1822
9534,1838
9535,1843
9536,1858
9537,2469
9538,2027
9539,1811
9540,2192
9541,2497
9542,2725
9543,2064
9544,1529
9545,1504
9546,1457
9547,1351
9548,1409
9549,1619
9550,1781
9551,1861
9552,1897
9553,1921
9554,1936
9555,1938
9556,1950
9557,1946
9558,1918
9559,1859
9560,1795
9561,1744
9562,1745
9563,1785
9564,1815
9565,1827
9566,1842
9567,1854
9568,2032
9569,2139
9570,1796
9571,2031
9572,2417
9573,2751
9574,2275
9575,1615
9576,1489
9577,1499
9578,1392
9579,1398
9580,1587
9581,1755
9582,1844
9583,1879
9584,1911
9585,1925
9586,1934
9587,1941
9588,1953
9589,1938
9590,1903
9591,1840
9592,1773
9593,1747
9594,1779
9595,1807
9596,1815
9597,1824
9598,1839
9599,982
9600,2275
9601,1830
9602,1911
9603,2362
9604,2687
9605,2419
9606,1683
9607,1462
9608,1515
9609,1420
9610,1390
9611,1558
9612,1747
9613,1842
9614,1877
9615,1904
9616,1924
9617,1930
9618,1923
9619,1936
9620,1915
9621,1884
9622,1826
9623,1763
9624,1742
9625,1776
9626,1824
9627,1845
9628,1847
9629,1855
9630,1411
9631,2434
9632,1904
9633,1834
9634,2290
9635,2583
9636,2583
9637,1854
9638,1456
9639,1488
9640,1439
9641,1374
9642,1505
9643,1717
9644,1834
9645,1877
9646,1904
9647,1936
9648,1945
9649,1925
9650,1927
9651,1933
9652,1904
9653,1845
9654,1777
9655,1725
9656,1749
9657,1794
9658,1838
9659,1853
9660,1869
9661,1872
9662,2493
9663,2018
9664,1792
9665,2170
9666,2478
9667,2736
9668,2070
9669,1488
9670,1478
9671,1455
9672,1360
9673,1439
9674,1662
9675,1808
9676,1874
9677,1909
9678,1929
9679,1930
9680,1931
9681,1930
9682,1925
9683,1889
9684,1844
9685,1790
9686,1745
9687,1747
9688,1803
9689,1838
9690,1851
9691,1857
9692,1872
9693,1885
9694,1886
9695,1879
9696,1879
9697,1879
9698,1885
9699,1885
9700,1857
9701,1867
9702,1872
9703,1872
9704,1872
9705,1857
9706,1866
9707,1872
9708,1873
9709,1872
9710,1872
9711,1870
9712,1867
9713,1857
9714,1854
9715,1853
9716,1854
9717,1855
9718,1850
9719,1849
9720,1861
9721,1862
9722,1867
9723,1866
9724,1866
9725,1872
9726,1870
9727,1869
9728,1870
9729,1882
9730,1869
9731,1835
9732,1844
9733,1855
9734,1855
9735,1854
9736,1857
9737,1857
9738,1858
9739,1861
9740,1861
9741,1860
9742,1865
9743,1861
9744,1862
9745,1857
9746,1856
9747,1851
9748,1846
9749,1847
9750,1850
9751,1850
9752,1856
9753,1857
9754,1857
9755,1861
9756,1870
9757,1869
9758,1870
9759,1872
9760,1872
9761,1872
9762,1867
9763,1863
9764,1857
9765,1856
9766,1857
9767,1855
9768,1855
9769,1856
9770,1857
9771,1859
9772,1862
9773,1859
9774,1858
9775,1862
9776,1857
9777,1863
9778,1856
9779,1857
9780,1863
9781,1859
9782,1858
9783,1857
9784,1859
9785,1859
9786,1861
9787,1865
9788,1865
9789,1867
9790,1871
9791,1870
9792,1872
9793,1872
9794,1871
9795,1866
9796,1867
9797,1863
9798,1856
9799,1856
9800,1854
9801,1854
9802,1851
9803,1851
9804,1852
9805,1853
9806,1856
9807,1856
9808,1867
9809,1865
9810,1863
9811,1859
9812,1860
9813,1859
9814,1857
9815,1857
9816,1856
9817,1853
9818,1855
9819,1849
9820,1858
9821,1860
9822,1861
9823,1866
9824,1869
9825,1872
9826,1871
9827,1869
9828,1863
9829,1863
9830,1859
9831,1858
9832,1854
9833,1849
9834,1851
9835,1847
9836,1854
9837,1855
9838,1856
9839,1858
9840,1862
9841,1856
9842,1859
9843,1866
9844,1867
9845,1859
9846,1861
9847,1858
9848,1852
9849,1851
9850,1850
9851,1851
9852,1852
9853,1855
9854,1855
9855,1855
9856,1858
9857,1861
9858,1862
9859,1859
9860,1863
9861,1861
9862,1857
9863,1854
9864,1849
9865,1847
9866,1846
9867,1842
9868,1851
9869,1854
9870,1856
9871,1857
9872,1860
9873,1865
9874,1867
9875,1870
9876,1865
9877,1863
9878,1861
9879,1861
9880,1860
9881,1854
9882,1851
9883,1851
9884,1850
9885,1850
9886,1848
9887,1851
9888,1853
9889,1855
9890,1856
9891,1855
9892,1859
9893,1854
9894,1850
9895,1847
9896,1845
9897,1842
9898,1849
9899,1849
9900,1843
9901,1846
9902,1849
9903,1847
9904,1851
9905,1851
9906,1855
9907,1860
9908,1863
9909,1861
9910,1866
9911,1863
9912,1865
9913,1861
9914,1856
9915,1856
9916,1859
9917,1855
9918,1853
9919,1856
9920,1856
9921,1859
9922,1864
9923,1868
9924,1872
9925,1873
9926,1872
9927,1872
9928,1866
9929,1862
9930,1863
9931,1858
9932,1856
9933,1866
9934,1863
9935,1868
9936,1871
9937,1866
9938,1868
9939,1871
9940,1872
9941,1872
9942,1874
9943,1872
9944,1871
9945,1870
9946,1866
9947,1862
9948,1860
9949,1855
9950,1852
9951,1854
9952,1855
9953,1859
9954,1854
9955,1853
9956,1857
9957,1862
9958,1868
9959,1867
9960,1870
9961,1866
9962,1858
9963,1859
9964,1855
9965,1853
9966,1851
9967,1847
9968,1847
9969,1847
9970,1851
9971,1853
9972,1856
9973,1860
9974,1862
9975,1866
9976,1862
9977,1863
9978,1860
9979,1858
9980,1857
9981,1855
9982,1852
9983,1843
9984,1846
9985,1847
9986,1847
9987,1853
9988,1851
9989,1859
9990,1862
9991,1865
9992,1870
9993,1871
9994,1869
9995,1864
9996,1862
9997,1860
9998,1857
9999,1858
10000,1853
10001,1856
10002,1855
10003,1856
10004,1861
10005,1862
10006,1867
10007,1872
10008,1872
10009,1872
10010,1872
10011,1868
10012,1861
10013,1858
10014,1855
10015,1855
10016,1855
10017,1857
10018,1857
10019,1858
10020,1861
10021,1865
10022,1867
10023,1871
10024,1871
10025,1872
10026,1871
10027,1872
10028,1871
10029,1867
10030,1866
10031,1857
10032,1857
10033,1859
10034,1857
10035,1856
10036,1858
10037,1859
10038,1861
10039,1867
10040,1871
10041,1870
10042,1872
10043,1867
10044,1865
10045,1859
10046,1859
10047,1856
10048,1850
10049,1851
10050,1854
10051,1854
10052,1855
10053,1857
10054,1863
10055,1863
10056,1866
10057,1870
10058,1870
10059,1867
10060,1872
10061,1869
10062,1865
10063,1862
10064,1861
10065,1856
10066,1858
10067,1854
10068,1854
10069,1855
10070,1856
10071,1856
10072,1860
10073,1856
10074,1857
10075,1860
10076,1857
10077,1858
10078,1863
10079,1860
10080,1861
10081,1856
10082,1856
10083,1856
10084,1855
10085,1856
10086,1857
10087,1859
10088,1858
10089,1863
10090,1868
10091,1869
10092,1870
10093,1867
10094,1869
10095,1863
10096,1860
10097,1859
10098,1856
10099,1856
10100,1856
10101,1856
10102,1855
10103,1854
10104,1853
10105,1855
10106,1857
10107,1859
10108,1867
10109,1867
10110,1867
10111,1865
10112,1860
10113,1859
10114,1856
10115,1856
10116,1856
10117,1851
10118,1851
10119,1853
10120,1856
10121,1856
10122,1861
10123,1863
10124,1867
10125,1869
10126,1866
10127,1867
10128,1866
10129,1866
10130,1863
10131,1857
10132,1857
10133,1853
10134,1852
10135,1846
10136,1850
10137,1855
10138,1853
10139,1856
10140,1856
10141,1866
10142,1871
10143,1869
10144,1867
10145,1862
10146,1861
10147,1861
10148,1858
10149,1858
10150,1856
10151,1856
10152,1855
10153,1857
10154,1860
10155,1861
10156,1866
10157,1866
10158,1867
10159,1868
10160,1871
10161,1869
10162,1863
10163,1858
10164,1854
10165,1851
10166,1850
10167,1845
10168,1853
10169,1852
10170,1856
10171,1857
10172,1862
10173,1864
10174,1865
10175,1870
10176,1869
10177,1866
10178,1861
10179,1863
10180,1861
10181,1856
10182,1856
10183,1856
10184,1856
10185,1854
10186,1856
10187,1857
10188,1858
10189,1863
10190,1866
10191,1863
10192,1870
10193,1861
10194,1861
10195,1858
10196,1855
10197,1855
10198,1857
10199,1856
10200,1854
10201,1856
10202,1856
10203,1856
10204,1856
10205,1858
10206,1863
10207,1867
10208,1867
10209,1871
10210,1870
10211,1869
10212,1861
10213,1861
10214,1858
10215,1855
10216,1856
10217,1853
10218,1849
10219,1851
10220,1853
10221,1857
10222,1856
10223,1862
10224,1859
10225,1862
10226,1861
10227,1863
10228,1859
10229,1857
10230,1856
10231,1857
10232,1857
10233,1857
10234,1856
10235,1855
10236,1856
10237,1859
10238,1861
10239,1862
10240,1867
10241,1867
10242,1871
10243,1872
10244,1871
10245,1863
10246,1863
10247,1861
10248,1856
10249,1856
10250,1856
10251,1855
10252,1853
10253,1854
10254,1853
10255,1854
10256,1857
10257,1861
10258,1869
10259,1870
10260,1870
10261,1866
10262,1862
10263,1863
10264,1857
10265,1856
10266,1857
10267,1855
10268,1853
10269,1855
10270,1858
10271,1857
10272,1860
10273,1861
10274,1862
10275,1865
10276,1861
10277,1862
10278,1859
10279,1859
10280,1861
10281,1856
10282,1855
10283,1849
10284,1846
10285,1844
10286,1847
10287,1854
10288,1858
10289,1861
10290,1865
10291,1867
10292,1869
10293,1867
10294,1862
10295,1863
10296,1858
10297,1861
10298,1856
10299,1853
10300,1853
10301,1856
10302,1855
10303,1856
10304,1856
10305,1859
10306,1866
10307,1866
10308,1867
10309,1868
10310,1865
10311,1867
10312,1862
10313,1855
10314,1854
10315,1855
10316,1853
10317,1846
10318,1856
10319,1855
10320,1857
10321,1858
10322,1861
10323,1865
10324,1869
10325,1871
10326,1865
10327,1870
10328,1866
10329,1863
10330,1861
10331,1859
10332,1856
10333,1856
10334,1855
10335,1854
10336,1855
10337,1857
10338,1859
10339,1865
10340,1870
10341,1870
10342,1871
10343,1865
10344,1866
10345,1857
10346,1856
10347,1855
10348,1857
10349,1856
10350,1855
10351,1856
10352,1856
10353,1858
10354,1856
10355,1857
10356,1861
10357,1865
10358,1866
10359,1870
10360,1871
10361,1865
10362,1860
10363,1859
10364,1856
10365,1855
10366,1856
10367,1851
10368,1855
10369,1853
10370,1856
10371,1857
10372,1859
10373,1857
10374,1859
10375,1863
10376,1862
10377,1863
10378,1867
10379,1865
10380,1865
10381,1858
10382,1856
10383,1856
10384,1853
10385,1853
10386,1856
10387,1859
10388,1863
10389,1863
10390,1863
10391,1865
10392,1872
10393,1867
10394,1869
10395,1863
10396,1863
10397,1860
10398,1855
10399,1856
10400,1854
10401,1856
10402,1852
10403,1849
10404,1851
10405,1854
10406,1858
10407,1859
10408,1866
10409,1869
10410,1867
10411,1869
10412,1863
10413,1859
10414,1857
10415,1855
10416,1853
10417,1849
10418,1853
10419,1853
10420,1856
10421,1858
10422,1859
10423,1865
10424,1868
10425,1870
10426,1870
10427,1871
10428,1866
10429,1863
10430,1860
10431,1856
10432,1858
10433,1850
10434,1846
10435,1844
10436,1852
10437,1851
10438,1861
10439,1863
10440,1866
10441,1867
10442,1872
10443,1870
10444,1871
10445,1866
10446,1862
10447,1861
10448,1856
10449,1856
10450,1855
10451,1855
10452,1853
10453,1855
10454,1858
10455,1857
10456,1863
10457,1869
10458,1867
10459,1868
10460,1872
10461,1868
10462,1861
10463,1857
10464,1854
10465,1850
10466,1851
10467,1847
10468,1855
10469,1858
10470,1859
10471,1861
10472,1859
10473,1867
10474,1866
10475,1868
10476,1869
10477,1870
10478,1867
10479,1865
10480,1862
10481,1856
10482,1854
10483,1853
10484,1850
10485,1853
10486,1855
10487,1857
10488,1856
10489,1862
10490,1863
10491,1867
10492,1871
10493,1865
10494,1859
10495,1856
10496,1856
10497,1856
10498,1856
10499,1853
10500,1851
10501,1852
10502,1853
10503,1856
10504,1858
10505,1858
10506,1866
10507,1868
10508,1868
10509,1869
10510,1869
10511,1867
10512,1861
10513,1862
10514,1857
10515,1855
10516,1857
10517,1852
10518,1845
10519,1849
10520,1850
10521,1853
10522,1856
10523,1862
10524,1861
10525,1858
10526,1856
10527,1857
10528,1858
10529,1856
10530,1853
10531,1850
10532,1852
10533,1857
10534,1856
10535,1856
10536,1856
10537,1859
10538,1860
10539,1867
10540,1870
10541,1869
10542,1872
10543,1870
10544,1871
10545,1867
10546,1866
10547,1863
10548,1863
10549,1859
10550,1859
10551,1856
10552,1854
10553,1853
10554,1853
10555,1856
10556,1861
10557,1865
10558,1861
10559,1863
10560,1862
10561,1861
10562,1856
10563,1861
10564,1861
10565,1856
10566,1855
10567,1853
10568,1856
10569,1854
10570,1857
10571,1858
10572,1860
10573,1865
10574,1863
10575,1867
10576,1865
10577,1868
10578,1868
10579,1866
10580,1862
10581,1860
10582,1856
10583,1850
10584,1846
10585,1849
10586,1850
10587,1850
10588,1856
10589,1862
10590,1862
10591,1867
10592,1869
10593,1868
10594,1872
10595,1869
10596,1868
10597,1864
10598,1860
10599,1856
10600,1857
10601,1858
10602,1858
10603,1859
10604,1865
10605,1857
10606,1856
10607,1858
10608,1859
10609,1863
10610,1863
10611,1861
10612,1860
10613,1856
10614,1853
10615,1850
10616,1849
10617,1847
10618,1856
10619,1855
10620,1859
10621,1860
10622,1860
10623,1865
10624,1867
10625,1870
10626,1867
10627,1871
10628,1869
10629,1863
10630,1861
10631,1859
10632,1858
10633,1858
10634,1855
10635,1853
10636,1856
10637,1858
10638,1862
10639,1864
10640,1865
10641,1865
10642,1870
10643,1861
10644,1861
10645,1857
10646,1856
10647,1856
10648,1856
10649,1855
10650,1856
10651,1855
10652,1854
10653,1856
10654,1856
10655,1859
10656,1866
10657,1867
10658,1867
10659,1870
10660,1870
10661,1869
10662,1865
10663,1863
10664,1861
10665,1857
10666,1851
10667,1852
10668,1855
10669,1853
10670,1855
10671,1854
10672,1856
10673,1856
10674,1861
10675,1863
10676,1863
10677,1863
10678,1867
10679,1867
10680,1861
10681,1859
10682,1856
10683,1854
10684,1850
10685,1854
10686,1855
10687,1856
10688,1862
10689,1861
10690,1863
10691,1867
10692,974
10693,2318
10694,1894
10695,1847
10696,1911
10697,1997
10698,2125
10699,2193
10700,2096
10701,2069
10702,2066
10703,1808
10704,1571
10705,1495
10706,1515
10707,1573
10708,1651
10709,1742
10710,1813
10711,1866
10712,1905
10713,1945
10714,1955
10715,1936
10716,1943
10717,1936
10718,1872
10719,1803
10720,1801
10721,1818
10722,1806
10723,1305
10724,2357
10725,1806
10726,1747
10727,1897
10728,2101
10729,2304
10730,2277
10731,2073
10732,2100
10733,1978
10734,1566
10735,1359
10736,1358
10737,1436
10738,1535
10739,1664
10740,1776
10741,1857
10742,1904
10743,1920
10744,1931
10745,1924
10746,1925
10747,1936
10748,1928
10749,1906
10750,1872
10751,1828
10752,1778
10753,1750
10754,1765
10755,2499
10756,1949
10757,1825
10758,2105
10759,2442
10760,2531
10761,2461
10762,2157
10763,1799
10764,1473
10765,1360
10766,1319
10767,1298
10768,1374
10769,1535
10770,1727
10771,1840
10772,1899
10773,1929
10774,1942
10775,1936
10776,1936
10777,1955
10778,1947
10779,1918
10780,1882
10781,1840
10782,1792
10783,1769
10784,1782
10785,1819
10786,2311
10787,2091
10788,1842
10789,2028
10790,2423
10791,2538
10792,2475
10793,2096
10794,1615
10795,1427
10796,1427
10797,1392
10798,1424
10799,1558
10800,1717
10801,1826
10802,1881
10803,1912
10804,1925
10805,1925
10806,1930
10807,1942
10808,1950
10809,1938
10810,1906
10811,1858
10812,1804
10813,1759
10814,1763
10815,1799
10816,1830
10817,1129
10818,2251
10819,1855
10820,1925
10821,2361
10822,2550
10823,2503
10824,2134
10825,1579
10826,1398
10827,1414
10828,1402
10829,1441
10830,1585
10831,1731
10832,1834
10833,1888
10834,1909
10835,1915
10836,1914
10837,1914
10838,1931
10839,1939
10840,1931
10841,1910
10842,1847
10843,1758
10844,1739
10845,1761
10846,1798
10847,1818
10848,1296
10849,2398
10850,1887
10851,1849
10852,2307
10853,2527
10854,2512
10855,2097
10856,1593
10857,1463
10858,1437
10859,1414
10860,1435
10861,1573
10862,1733
10863,1840
10864,1895
10865,1915
10866,1921
10867,1921
10868,1922
10869,1932
10870,1934
10871,1920
10872,1885
10873,1829
10874,1770
10875,1751
10876,1781
10877,1825
10878,1846
10879,1856
10880,2490
10881,1963
10882,1821
10883,2186
10884,2459
10885,2493
10886,1983
10887,1650
10888,1648
10889,1607
10890,1429
10891,1409
10892,1566
10893,1735
10894,1831
10895,1879
10896,1907
10897,1919
10898,1921
10899,1933
10900,1941
10901,1936
10902,1909
10903,1865
10904,1808
10905,1754
10906,1747
10907,1781
10908,1817
10909,1842
10910,1853
10911,2377
10912,2055
10913,1788
10914,1936
10915,2318
10916,2421
10917,1987
10918,1856
10919,1776
10920,1678
10921,1523
10922,1455
10923,1583
10924,1734
10925,1823
10926,1872
10927,1907
10928,1922
10929,1923
10930,1935
10931,1936
10932,1919
10933,1895
10934,1852
10935,1792
10936,1769
10937,1745
10938,1765
10939,1808
10940,1835
10941,1849
10942,1601
10943,2182
10944,1817
10945,1910
10946,2350
10947,2531
10948,2171
10949,1712
10950,1619
10951,1662
10952,1535
10953,1452
10954,1555
10955,1712
10956,1814
10957,1869
10958,1899
10959,1919
10960,1925
10961,1940
10962,1968
10963,1946
10964,1947
10965,1841
10966,1743
10967,1712
10968,1730
10969,1771
10970,1808
10971,1828
10972,1841
10973,1086
10974,2369
10975,1878
10976,1862
10977,2345
10978,2559
10979,2430
10980,1788
10981,1502
10982,1578
10983,1535
10984,1422
10985,1499
10986,1678
10987,1805
10988,1856
10989,1886
10990,1914
10991,1931
10992,1943
10993,1951
10994,1950
10995,1920
10996,1872
10997,1811
10998,1749
10999,1733
11000,1767
11001,1803
11002,1825
11003,1835
11004,1722
11005,2467
11006,1929
11007,1818
11008,2288
11009,2556
11010,2559
11011,1895
11012,1524
11013,1562
11014,1506
11015,1391
11016,1467
11017,1649
11018,1795
11019,1854
11020,1883
11021,1907
11022,1923
11023,1939
11024,1950
11025,1953
11026,1925
11027,1889
11028,1819
11029,1744
11030,1731
11031,1767
11032,1808
11033,1827
11034,1840
11035,1853
11036,2471
11037,2022
11038,1794
11039,2170
11040,2503
11041,2673
11042,2064
11043,1535
11044,1488
11045,1497
11046,1408
11047,1440
11048,1616
11049,1774
11050,1853
11051,1889
11052,1909
11053,1925
11054,1936
11055,1946
11056,1949
11057,1939
11058,1908
11059,1843
11060,1757
11061,1730
11062,1759
11063,1801
11064,1825
11065,1837
11066,1840
11067,1991
11068,2130
11069,1808
11070,2054
11071,2430
11072,2674
11073,2167
11074,1561
11075,1447
11076,1518
11077,1449
11078,1453
11079,1624
11080,1783
11081,1866
11082,1886
11083,1907
11084,1921
11085,1930
11086,1933
11087,1937
11088,1924
11089,1888
11090,1840
11091,1776
11092,1743
11093,1764
11094,1808
11095,1828
11096,1837
11097,1846
11098,991
11099,2285
11100,1851
11101,1941
11102,2423
11103,2698
11104,2373
11105,1634
11106,1419
11107,1499
11108,1454
11109,1403
11110,1535
11111,1727
11112,1825
11113,1874
11114,1905
11115,1922
11116,1929
11117,1931
11118,1936
11119,1929
11120,1904
11121,1850
11122,1781
11123,1739
11124,1743
11125,1781
11126,1810
11127,1840
11128,1854
11129,1428
11130,2448
11131,1918
11132,1863
11133,2359
11134,2628
11135,2554
11136,1773
11137,1394
11138,1456
11139,1472
11140,1405
11141,1501
11142,1699
11143,1823
11144,1891
11145,1920
11146,1937
11147,1945
11148,1937
11149,1941
11150,1936
11151,1904
11152,1853
11153,1786
11154,1738
11155,1741
11156,1781
11157,1819
11158,1844
11159,1859
11160,1870
11161,2512
11162,2000
11163,1818
11164,2286
11165,2551
11166,2684
11167,1966
11168,1427
11169,1410
11170,1473
11171,1395
11172,1453
11173,1658
11174,1808
11175,1873
11176,1914
11177,1936
11178,1949
11179,1941
11180,1943
11181,1946
11182,1919
11183,1870
11184,1790
11185,1727
11186,1729
11187,1762
11188,1813
11189,1835
11190,1855
11191,1869
11192,2118
11193,2143
11194,1834
11195,2115
11196,2497
11197,2768
11198,2173
11199,1474
11200,1379
11201,1483
11202,1407
11203,1406
11204,1603
11205,1776
11206,1862
11207,1904
11208,1926
11209,1947
11210,1950
11211,1958
11212,1965
11213,1936
11214,1899
11215,1821
11216,1734
11217,1708
11218,1743
11219,1786
11220,1821
11221,1841
11222,1858
11223,1237
11224,2249
11225,1837
11226,1987
11227,2448
11228,2747
11229,2341
11230,1600
11231,1382
11232,1485
11233,1422
11234,1377
11235,1535
11236,1737
11237,1843
11238,1891
11239,1918
11240,1939
11241,1947
11242,1951
11243,1947
11244,1934
11245,1894
11246,1834
11247,1765
11248,1729
11249,1751
11250,1800
11251,1823
11252,1840
11253,1853
11254,1345
11255,2432
11256,1913
11257,1889
11258,2387
11259,2694
11260,2559
11261,1732
11262,1343
11263,1443
11264,1455
11265,1372
11266,1487
11267,1698
11268,1817
11269,1871
11270,1904
11271,1926
11272,1936
11273,1936
11274,1941
11275,1935
11276,1906
11277,1855
11278,1794
11279,1744
11280,1753
11281,1803
11282,1834
11283,1838
11284,1839
11285,1857
11286,2515
11287,1987
11288,1814
11289,2259
11290,2559
11291,2693
11292,1919
11293,1398
11294,1425
11295,1493
11296,1411
11297,1472
11298,1676
11299,1808
11300,1871
11301,1899
11302,1918
11303,1931
11304,1938
11305,1938
11306,1936
11307,1918
11308,1886
11309,1819
11310,1751
11311,1740
11312,1773
11313,1811
11314,1840
11315,1846
11316,1857
11317,1866
11318,1872
11319,1872
11320,1874
11321,1878
11322,1879
11323,1884
11324,1887
11325,1887
11326,1887
11327,1888
11328,1880
11329,1875
11330,1871
11331,1867
11332,1867
11333,1858
11334,1852
11335,1853
11336,1856
11337,1855
11338,1855
11339,1856
11340,1860
11341,1863
11342,1870
11343,1867
11344,1871
11345,1867
11346,1866
11347,1863
11348,1858
11349,1855
11350,1856
11351,1851
11352,1846
11353,1850
11354,1855
11355,1858
11356,1857
11357,1866
11358,1865
11359,1869
11360,1867
11361,1870
11362,1862
11363,1857
11364,1850
11365,1854
11366,1847
11367,1849
11368,1847
11369,1846
11370,1857
11371,1858
11372,1859
11373,1861
11374,1863
11375,1861
11376,1867
11377,1869
11378,1867
11379,1862
11380,1863
11381,1859
11382,1857
11383,1855
11384,1853
11385,1850
11386,1850
11387,1855
11388,1855
11389,1857
11390,1867
11391,1869
11392,1870
11393,1856
11394,1866
11395,1862
11396,1857
11397,1855
11398,1856
11399,1857
11400,1857
11401,1854
11402,1856
11403,1856
11404,1859
11405,1863
11406,1862
11407,1863
11408,1871
11409,1871
11410,1871
11411,1871
11412,1869
11413,1868
11414,1870
11415,1861
11416,1859
11417,1857
11418,1853
11419,1847
11420,1853
11421,1854
11422,1856
11423,1861
11424,1859
11425,1858
11426,1866
11427,1863
11428,1871
11429,1863
11430,1862
11431,1861
11432,1856
11433,1857
11434,1853
11435,1855
11436,1855
11437,1856
11438,1857
11439,1858
11440,1863
11441,1865
11442,1865
11443,1862
11444,1867
11445,1867
11446,1865
11447,1861
11448,1858
11449,1855
11450,1856
11451,1851
11452,1855
11453,1846
11454,1851
11455,1851
11456,1856
11457,1857
11458,1867
11459,1871
11460,1870
11461,1872
11462,1865
11463,1863
11464,1863
11465,1857
11466,1850
11467,1856
11468,1855
11469,1854
11470,1855
11471,1857
11472,1860
11473,1861
11474,1866
11475,1865
11476,1870
11477,1867
11478,1868
11479,1859
11480,1858
11481,1856
11482,1852
11483,1846
11484,1842
11485,1844
11486,1844
11487,1846
11488,1855
11489,1856
11490,1859
11491,1861
11492,1861
11493,1860
11494,1860
11495,1859
11496,1855
11497,1854
11498,1849
11499,1843
11500,1845
11501,1840
11502,1841
11503,1842
11504,1845
11505,1845
11506,1847
11507,1855
11508,1856
11509,1857
11510,1855
11511,1856
11512,1855
11513,1843
11514,1845
11515,1840
11516,1839
11517,1840
11518,1843
11519,1842
11520,1844
11521,1849
11522,1853
11523,1857
11524,1863
11525,1860
11526,1867
11527,1867
11528,1863
11529,1860
11530,1861
11531,1859
11532,1857
11533,1859
11534,1856
11535,1858
11536,1860
11537,1862
11538,1863
11539,1870
11540,1875
11541,1875
11542,1873
11543,1870
11544,1871
11545,1869
11546,1868
11547,1867
11548,1857
11549,1861
11550,1859
11551,1853
11552,1857
11553,1861
11554,1863
11555,1865
11556,1863
11557,1871
11558,1872
11559,1872
11560,1872
11561,1871
11562,1867
11563,1863
11564,1861
11565,1857
11566,1856
11567,1857
11568,1856
11569,1855
11570,1854
11571,1856
11572,1856
11573,1857
11574,1856
11575,1854
11576,1856
11577,1853
11578,1860
11579,1857
11580,1856
11581,1856
11582,1852
11583,1847
11584,1846
11585,1847
11586,1847
11587,1850
11588,1852
11589,1855
11590,1859
11591,1863
11592,1859
11593,1859
11594,1861
11595,1861
11596,1858
11597,1858
11598,1855
11599,1855
11600,1856
11601,1850
11602,1854
11603,1849
11604,1852
11605,1854
11606,1854
11607,1856
11608,1856
11609,1858
11610,1868
11611,1870
11612,1867
11613,1869
11614,1862
11615,1858
11616,1857
11617,1856
11618,1856
11619,1856
11620,1857
11621,1861
11622,1862
11623,1867
11624,1867
11625,1865
11626,1870
11627,1869
11628,1869
11629,1867
11630,1867
11631,1866
11632,1857
11633,1851
11634,1847
11635,1851
11636,1850
11637,1853
11638,1851
11639,1850
11640,1866
11641,1865
11642,1868
11643,1869
11644,1870
11645,1867
11646,1859
11647,1858
11648,1857
11649,1853
11650,1853
11651,1850
11652,1852
11653,1856
11654,1856
11655,1858
11656,1861
11657,1866
11658,1869
11659,1872
11660,1864
11661,1863
11662,1865
11663,1856
11664,1854
11665,1847
11666,1846
11667,1846
11668,1841
11669,1851
11670,1853
11671,1856
11672,1857
11673,1861
11674,1863
11675,1862
11676,1870
11677,1869
11678,1868
11679,1862
11680,1859
11681,1859
11682,1856
11683,1854
11684,1852
11685,1852
11686,1850
11687,1854
11688,1858
11689,1857
11690,1862
11691,1865
11692,1867
11693,1863
11694,1863
11695,1859
11696,1856
11697,1855
11698,1858
11699,1856
11700,1856
11701,1851
11702,1855
11703,1856
11704,1858
11705,1859
11706,1862
11707,1865
11708,1867
11709,1869
11710,1867
11711,1869
11712,1867
11713,1865
11714,1862
11715,1857
11716,1856
11717,1856
11718,1849
11719,1846
11720,1850
11721,1856
11722,1856
11723,1858
11724,1859
11725,1861
11726,1862
11727,1861
11728,1870
11729,1862
11730,1863
11731,1862
11732,1856
11733,1855
11734,1853
11735,1856
11736,1856
11737,1856
11738,1857
11739,1857
11740,1862
11741,1863
11742,1864
11743,1867
11744,1867
11745,1867
11746,1861
11747,1859
11748,1856
11749,1854
11750,1854
11751,1850
11752,1854
11753,1850
11754,1854
11755,1855
11756,1856
11757,1858
11758,1867
11759,1870
11760,1869
11761,1869
11762,1867
11763,1865
11764,1859
11765,1856
11766,1850
11767,1856
11768,1854
11769,1855
11770,1856
11771,1856
11772,1859
11773,1861
11774,1866
11775,1861
11776,1865
11777,1867
11778,1867
11779,1867
11780,1863
11781,1862
11782,1857
11783,1850
11784,1852
11785,1853
11786,1847
11787,1855
11788,1858
11789,1859
11790,1863
11791,1867
11792,1869
11793,1870
11794,1872
11795,1865
11796,1863
11797,1863
11798,1859
11799,1857
11800,1856
11801,1852
11802,1855
11803,1853
11804,1856
11805,1856
11806,1856
11807,1862
11808,1865
11809,1869
11810,1867
11811,1863
11812,1865
11813,1856
11814,1856
11815,1854
11816,1850
11817,1851
11818,1855
11819,1847
11820,1856
11821,1857
11822,1858
11823,1859
11824,1863
11825,1866
11826,1869
11827,1867
11828,1865
11829,1859
11830,1860
11831,1859
11832,1856
11833,1853
11834,1855
11835,1856
11836,1853
11837,1857
11838,1856
11839,1859
11840,1862
11841,1865
11842,1863
11843,1865
11844,1863
11845,1864
11846,1858
11847,1858
11848,1855
11849,1854
11850,1850
11851,1842
11852,1845
11853,1851
11854,1856
11855,1856
11856,1856
11857,1861
11858,1861
11859,1865
11860,1867
11861,1868
11862,1865
11863,1863
11864,1861
11865,1856
11866,1845
11867,1853
11868,1850
11869,1852
11870,1855
11871,1856
11872,1859
11873,1855
11874,1856
11875,1859
11876,1864
11877,1863
11878,1871
11879,1865
11880,1866
11881,1864
11882,1859
11883,1856
11884,1855
11885,1856
11886,1855
11887,1856
11888,1856
11889,1859
11890,1865
11891,1867
11892,1869
11893,1868
11894,1869
11895,1867
11896,1862
11897,1859
11898,1858
11899,1856
11900,1857
11901,1852
11902,1855
11903,1849
11904,1854
11905,1854
11906,1853
11907,1858
11908,1865
11909,1867
11910,1867
11911,1868
11912,1866
11913,1862
11914,1860
11915,1856
11916,1855
11917,1856
11918,1853
11919,1851
11920,1854
11921,1857
11922,1856
11923,1862
11924,1867
11925,1866
11926,1871
11927,1869
11928,1869
11929,1863
11930,1865
11931,1860
11932,1856
11933,1849
11934,1850
11935,1851
11936,1849
11937,1849
11938,1850
11939,1845
11940,1856
11941,1859
11942,1858
11943,1871
11944,1870
11945,1866
11946,1865
11947,1859
11948,1856
11949,1856
11950,1856
11951,1851
11952,1853
11953,1855
11954,1857
11955,1856
11956,1859
11957,1863
11958,1867
11959,1868
11960,1866
11961,1870
11962,1865
11963,1858
11964,1856
11965,1853
11966,1849
11967,1851
11968,1854
11969,1854
11970,1856
11971,1861
11972,1859
11973,1862
11974,1865
11975,1863
11976,1871
11977,1867
11978,1867
11979,1862
11980,1859
11981,1861
11982,1856
11983,1856
11984,1855
11985,1855
11986,1856
11987,1856
11988,1856
11989,1856
11990,1860
11991,1861
11992,1862
11993,1860
11994,1860
11995,1859
11996,1855
11997,1856
11998,1852
11999,1856
12000,1855
12001,1852
12002,1851
12003,1853
12004,1856
12005,1857
12006,1857
12007,1862
12008,1865
12009,1869
12010,1867
12011,1870
12012,1863
12013,1863
12014,1861
12015,1855
12016,1857
12017,1856
12018,1845
12019,1844
12020,1847
12021,1853
12022,1856
12023,1856
12024,1859
12025,1860
12026,1865
12027,1865
12028,1871
12029,1865
12030,1865
12031,1858
12032,1857
12033,1856
12034,1856
12035,1856
12036,1855
12037,1858
12038,1858
12039,1859
12040,1863
12041,1869
12042,1866
12043,1870
12044,1871
12045,1871
12046,1862
12047,1859
12048,1858
12049,1856
12050,1856
12051,1849
12052,1853
12053,1847
12054,1853
12055,1851
12056,1854
12057,1859
12058,1871
12059,1869
12060,1869
12061,1867
12062,1866
12063,1864
12064,1863
12065,1858
12066,1847
12067,1857
12068,1854
12069,1855
12070,1853
12071,1858
12072,1859
12073,1859
12074,1861
12075,1867
12076,1871
12077,1866
12078,1868
12079,1863
12080,1862
12081,1863
12082,1857
12083,1851
12084,1847
12085,1851
12086,1851
12087,1854
12088,1860
12089,1859
12090,1859
12091,1863
12092,1861
12093,1871
12094,1865
12095,1870
12096,1861
12097,1862
12098,1859
12099,1856
12100,1855
12101,1852
12102,1856
12103,1855
12104,1858
12105,1857
12106,1859
12107,1865
12108,1865
12109,1865
12110,1869
12111,1869
12112,1863
12113,1854
12114,1856
12115,1850
12116,1847
12117,1853
12118,1853
12119,1852
12120,1854
12121,1857
12122,1859
12123,1859
12124,1865
12125,1863
12126,1869
12127,1866
12128,1868
12129,1863
12130,1863
12131,1863
12132,1858
12133,1856
12134,1855
12135,1856
12136,1855
12137,1856
12138,1859
12139,1861
12140,1863
12141,1867
12142,1867
12143,1863
12144,1862
12145,1859
12146,1859
12147,1859
12148,1855
12149,1854
12150,1849
12151,1846
12152,1851
12153,1856
12154,1860
12155,1861
12156,1863
12157,1866
12158,1867
12159,1865
12160,1867
12161,1866
12162,1866
12163,1863
12164,1863
12165,1857
12166,1851
12167,1856
12168,1855
12169,1852
12170,1854
12171,1856
12172,1858
12173,1853
12174,1857
12175,1861
12176,1863
12177,1860
12178,1870
12179,1863
12180,1862
12181,1862
12182,1857
12183,1855
12184,1855
12185,1855
12186,1853
12187,1857
12188,1857
12189,1860
12190,1863
12191,1866
12192,1863
12193,1869
12194,1865
12195,1867
12196,1863
12197,1863
12198,1860
12199,1857
12200,1856
12201,1856
12202,1855
12203,1846
12204,1851
12205,1851
12206,1855
12207,1856
12208,1855
12209,1863
12210,1867
12211,1870
12212,1868
12213,1863
12214,1861
12215,1857
12216,1860
12217,1856
12218,1851
12219,1853
12220,1856
12221,1856
12222,1859
12223,1862
12224,1865
12225,1865
12226,1867
12227,1865
12228,1865
12229,1862
12230,1862
12231,1863
12232,1858
12233,1851
12234,1850
12235,1851
12236,1846
12237,1851
12238,1846
12239,1850
12240,1859
12241,1863
12242,1863
12243,1871
12244,1867
12245,1868
12246,1863
12247,1863
12248,1862
12249,1856
12250,1856
12251,1855
12252,1855
12253,1854
12254,1857
12255,1859
12256,1857
12257,1862
12258,1866
12259,1867
12260,1871
12261,1871
12262,1866
12263,1857
12264,1860
12265,1856
12266,1851
12267,1852
12268,1847
12269,1852
12270,1854
12271,1855
12272,1858
12273,1859
12274,1862
12275,1863
12276,1869
12277,1866
12278,1867
12279,1863
12280,1861
12281,1860
12282,1855
12283,1853
12284,1851
12285,1851
12286,1852
12287,1854
12288,1857
12289,1859
12290,1865
12291,1864
12292,1869
12293,1863
12294,1863
12295,1861
12296,1857
12297,1856
12298,1859
12299,1858
12300,1856
12301,1855
12302,1856
12303,1855
12304,1857
12305,1859
12306,1859
12307,1865
12308,1867
12309,1867
12310,1867
12311,1870
12312,1866
12313,1862
12314,1860
12315,1857
12316,1655
12317,2202
12318,1830
12319,1797
12320,1876
12321,1984
12322,2159
12323,2200
12324,2109
12325,2121
12326,2031
12327,1728
12328,1535
12329,1506
12330,1535
12331,1600
12332,1684
12333,1761
12334,1825
12335,1869
12336,1895
12337,1911
12338,1917
12339,1914
12340,1921
12341,1937
12342,1923
12343,1904
12344,1879
12345,1856
12346,1814
12347,986
12348,2274
12349,1750
12350,1694
12351,1818
12352,2023
12353,2246
12354,2190
12355,2054
12356,2119
12357,1943
12358,1535
12359,1403
12360,1450
12361,1531
12362,1637
12363,1730
12364,1815
12365,1872
12366,1898
12367,1922
12368,1926
12369,1920
12370,1923
12371,1938
12372,1933
12373,1917
12374,1877
12375,1833
12376,1777
12377,1738
12378,1717
12379,2474
12380,1881
12381,1832
12382,2151
12383,2461
12384,2518
12385,2387
12386,2093
12387,1723
12388,1411
12389,1326
12390,1327
12391,1328
12392,1428
12393,1616
12394,1776
12395,1870
12396,1911
12397,1935
12398,1939
12399,1936
12400,1936
12401,1947
12402,1944
12403,1920
12404,1885
12405,1834
12406,1775
12407,1741
12408,1761
12409,1803
12410,2512
12411,2027
12412,1835
12413,2103
12414,2496
12415,2559
12416,2389
12417,1994
12418,1520
12419,1388
12420,1392
12421,1362
12422,1408
12423,1569
12424,1746
12425,1867
12426,1921
12427,1945
12428,1958
12429,1959
12430,1955
12431,1969
12432,1968
12433,1937
12434,1877
12435,1819
12436,1754
12437,1712
12438,1731
12439,1787
12440,1827
12441,1929
12442,2160
12443,1854
12444,2035
12445,2496
12446,2637
12447,2451
12448,1970
12449,1424
12450,1381
12451,1377
12452,1379
12453,1453
12454,1617
12455,1773
12456,1858
12457,1914
12458,1939
12459,1950
12460,1955
12461,1963
12462,1965
12463,1946
12464,1918
12465,1867
12466,1788
12467,1726
12468,1709
12469,1749
12470,1793
12471,1821
12472,971
12473,2286
12474,1871
12475,1982
12476,2510
12477,2666
12478,2523
12479,1963
12480,1461
12481,1344
12482,1341
12483,1344
12484,1408
12485,1586
12486,1755
12487,1855
12488,1905
12489,1927
12490,1944
12491,1948
12492,1956
12493,1964
12494,1951
12495,1921
12496,1863
12497,1787
12498,1729
12499,1722
12500,1761
12501,1803
12502,1823
12503,1743
12504,2481
12505,1941
12506,1889
12507,2380
12508,2631
12509,2541
12510,1971
12511,1478
12512,1439
12513,1455
12514,1401
12515,1422
12516,1586
12517,1757
12518,1847
12519,1905
12520,1927
12521,1939
12522,1939
12523,1950
12524,1963
12525,1957
12526,1931
12527,1855
12528,1789
12529,1739
12530,1732
12531,1776
12532,1808
12533,1821
12534,1839
12535,2489
12536,2016
12537,1827
12538,2085
12539,2433
12540,2483
12541,1958
12542,1712
12543,1668
12544,1615
12545,1520
12546,1470
12547,1593
12548,1746
12549,1838
12550,1883
12551,1910
12552,1925
12553,1932
12554,1941
12555,1954
12556,1943
12557,1920
12558,1855
12559,1766
12560,1715
12561,1726
12562,1767
12563,1803
12564,1824
12565,1837
12566,1997
12567,2142
12568,1837
12569,2032
12570,2475
12571,2559
12572,2077
12573,1569
12574,1527
12575,1635
12576,1567
12577,1474
12578,1585
12579,1744
12580,1833
12581,1872
12582,1902
12583,1919
12584,1932
12585,1936
12586,1943
12587,1942
12588,1922
12589,1863
12590,1774
12591,1717
12592,1725
12593,1767
12594,1808
12595,1829
12596,1841
12597,999
12598,2300
12599,1865
12600,1975
12601,2496
12602,2630
12603,2255
12604,1610
12605,1424
12606,1559
12607,1530
12608,1445
12609,1535
12610,1710
12611,1822
12612,1878
12613,1907
12614,1926
12615,1936
12616,1940
12617,1947
12618,1936
12619,1908
12620,1857
12621,1785
12622,1723
12623,1712
12624,1762
12625,1808
12626,1829
12627,1842
12628,1281
12629,2418
12630,1910
12631,1906
12632,2453
12633,2640
12634,2403
12635,1713
12636,1383
12637,1499
12638,1526
12639,1424
12640,1500
12641,1683
12642,1818
12643,1882
12644,1907
12645,1929
12646,1937
12647,1943
12648,1956
12649,1950
12650,1933
12651,1875
12652,1806
12653,1714
12654,1698
12655,1741
12656,1794
12657,1830
12658,1843
12659,1856
12660,2518
12661,2005
12662,1861
12663,2341
12664,2633
12665,2559
12666,1825
12667,1383
12668,1446
12669,1535
12670,1425
12671,1446
12672,1635
12673,1797
12674,1873
12675,1904
12676,1924
12677,1937
12678,1947
12679,1949
12680,1953
12681,1931
12682,1893
12683,1827
12684,1744
12685,1710
12686,1737
12687,1786
12688,1826
12689,1841
12690,1855
12691,2231
12692,2127
12693,1857
12694,2224
12695,2635
12696,2706
12697,2065
12698,1452
12699,1415
12700,1469
12701,1392
12702,1394
12703,1573
12704,1757
12705,1854
12706,1877
12707,1909
12708,1940
12709,1938
12710,1938
12711,1949
12712,1943
12713,1904
12714,1831
12715,1776
12716,1726
12717,1730
12718,1776
12719,1809
12720,1823
12721,1840
12722,1410
12723,2229
12724,1867
12725,2128
12726,2628
12727,2727
12728,2159
12729,1515
12730,1387
12731,1443
12732,1394
12733,1374
12734,1530
12735,1727
12736,1840
12737,1894
12738,1925
12739,1939
12740,1950
12741,1953
12742,1958
12743,1945
12744,1918
12745,1865
12746,1795
12747,1734
12748,1737
12749,1775
12750,1810
12751,1838
12752,1850
12753,1237
12754,2417
12755,1915
12756,1969
12757,2559
12758,2715
12759,2402
12760,1611
12761,1297
12762,1434
12763,1442
12764,1392
12765,1503
12766,1693
12767,1824
12768,1878
12769,1911
12770,1929
12771,1942
12772,1940
12773,1939
12774,1950
12775,1930
12776,1889
12777,1828
12778,1744
12779,1702
12780,1750
12781,1808
12782,1835
12783,1843
12784,1856
12785,2528
12786,1974
12787,1873
12788,2449
12789,2682
12790,2543
12791,1785
12792,1310
12793,1391
12794,1464
12795,1407
12796,1473
12797,1675
12798,1809
12799,1877
12800,1910
12801,1939
12802,1959
12803,1936
12804,1933
12805,1935
12806,1920
12807,1895
12808,1839
12809,1771
12810,1739
12811,1763
12812,1802
12813,1825
12814,1840
12815,1852
12816,2413
12817,2074
12818,1839
12819,2307
12820,2664
12821,2671
12822,1934
12823,1335
12824,1339
12825,1463
12826,1414
12827,1439
12828,1635
12829,1796
12830,1878
12831,1920
12832,1936
12833,1942
12834,1941
12835,1934
12836,1936
12837,1923
12838,1899
12839,1840
12840,1773
12841,1730
12842,1744
12843,1792
12844,1824
12845,1843
12846,1856
12847,1823
12848,2183
12849,1854
12850,2192
12851,2641
12852,2717
12853,2038
12854,1389
12855,1311
12856,1457
12857,1433
12858,1419
12859,1602
12860,1781
12861,1873
12862,1911
12863,1925
12864,1943
12865,1946
12866,1938
12867,1936
12868,1930
12869,1903
12870,1847
12871,1783
12872,1729
12873,1728
12874,1778
12875,1823
12876,1845
12877,1859
12878,1055
12879,2379
12880,1902
12881,2014
12882,2585
12883,2734
12884,2302
12885,1507
12886,1251
12887,1422
12888,1453
12889,1405
12890,1535
12891,1742
12892,1850
12893,1904
12894,1926
12895,1942
12896,1947
12897,1938
12898,1946
12899,1937
12900,1909
12901,1860
12902,1795
12903,1735
12904,1727
12905,1767
12906,1808
12907,1840
12908,1856
12909,1847
12910,2517
12911,1968
12912,1917
12913,2496
12914,2716
12915,2512
12916,1666
12917,1235
12918,1367
12919,1455
12920,1393
12921,1488
12922,1690
12923,1819
12924,1887
12925,1920
12926,1946
12927,1963
12928,1947
12929,1937
12930,1939
12931,1920
12932,1874
12933,1803
12934,1748
12935,1731
12936,1757
12937,1801
12938,1834
12939,1845
12940,1863
12941,1877
12942,1882
12943,1891
12944,1889
12945,1891
12946,1890
12947,1885
12948,1885
12949,1876
12950,1872
12951,1872
12952,1869
12953,1858
12954,1861
12955,1860
12956,1863
12957,1868
12958,1862
12959,1854
12960,1873
12961,1871
12962,1872
12963,1866
12964,1865
12965,1867
12966,1855
12967,1857
12968,1855
12969,1856
12970,1855
12971,1858
12972,1859
12973,1859
12974,1862
12975,1867
12976,1869
12977,1870
12978,1869
12979,1865
12980,1863
12981,1861
12982,1858
12983,1850
12984,1850
12985,1842
12986,1845
12987,1849
12988,1857
12989,1857
12990,1859
12991,1863
12992,1864
12993,1867
12994,1865
12995,1866
12996,1863
12997,1862
12998,1861
12999,1861
13000,1856
13001,1853
13002,1851
13003,1854
13004,1856
13005,1857
13006,1858
13007,1863
13008,1866
13009,1867
13010,1872
13011,1869
13012,1867
13013,1855
13014,1855
13015,1851
13016,1855
13017,1855
13018,1858
13019,1858
13020,1856
13021,1857
13022,1861
13023,1863
13024,1869
13025,1869
13026,1871
13027,1871
13028,1872
13029,1869
13030,1863
13031,1863
13032,1861
13033,1856
13034,1856
13035,1855
13036,1856
13037,1855
13038,1859
13039,1859
13040,1863
13041,1868
13042,1869
13043,1865
13044,1863
13045,1863
13046,1859
13047,1862
13048,1856
13049,1853
13050,1851
13051,1853
13052,1850
13053,1854
13054,1858
13055,1862
13056,1861
13057,1863
13058,1869
13059,1869
13060,1871
13061,1870
13062,1870
13063,1865
13064,1866
13065,1863
13066,1855
13067,1857
13068,1857
13069,1859
13070,1858
13071,1859
13072,1859
13073,1856
13074,1859
13075,1865
13076,1862
13077,1866
13078,1867
13079,1863
13080,1857
13081,1863
13082,1866
13083,1861
13084,1857
13085,1856
13086,1856
13087,1856
13088,1856
13089,1856
13090,1858
13091,1859
13092,1861
13093,1863
13094,1862
13095,1865
13096,1861
13097,1861
13098,1858
13099,1854
13100,1852
13101,1849
13102,1851
13103,1840
13104,1843
13105,1847
13106,1848
13107,1854
13108,1858
13109,1857
13110,1861
13111,1858
13112,1857
13113,1853
13114,1854
13115,1853
13116,1850
13117,1846
13118,1841
13119,1842
13120,1845
13121,1847
13122,1846
13123,1850
13124,1855
13125,1856
13126,1855
13127,1856
13128,1858
13129,1857
13130,1855
13131,1854
13132,1853
13133,1842
13134,1841
13135,1840
13136,1841
13137,1841
13138,1852
13139,1854
13140,1854
13141,1858
13142,1863
13143,1866
13144,1866
13145,1866
13146,1866
13147,1867
13148,1866
13149,1861
13150,1860
13151,1862
13152,1862
13153,1861
13154,1862
13155,1869
13156,1872
13157,1872
13158,1873
13159,1876
13160,1878
13161,1877
13162,1877
13163,1867
13164,1865
13165,1863
13166,1858
13167,1858
13168,1855
13169,1856
13170,1856
13171,1863
13172,1866
13173,1863
13174,1872
13175,1872
13176,1870
13177,1871
13178,1871
13179,1869
13180,1865
13181,1861
13182,1859
13183,1856
13184,1853
13185,1852
13186,1854
13187,1854
13188,1855
13189,1855
13190,1856
13191,1860
13192,1861
13193,1859
13194,1856
13195,1857
13196,1856
13197,1856
13198,1857
13199,1850
13200,1847
13201,1850
13202,1845
13203,1847
13204,1850
13205,1851
13206,1855
13207,1857
13208,1861
13209,1862
13210,1863
13211,1865
13212,1864
13213,1859
13214,1862
13215,1858
13216,1856
13217,1854
13218,1845
13219,1847
13220,1847
13221,1853
13222,1855
13223,1855
13224,1858
13225,1862
13226,1859
13227,1867
13228,1872
13229,1868
13230,1863
13231,1861
13232,1859
13233,1859
13234,1857
13235,1856
13236,1856
13237,1857
13238,1859
13239,1861
13240,1861
13241,1867
13242,1870
13243,1872
13244,1870
13245,1869
13246,1868
13247,1863
13248,1863
13249,1859
13250,1859
13251,1861
13252,1855
13253,1850
13254,1853
13255,1855
13256,1857
13257,1859
13258,1857
13259,1856
13260,1861
13261,1866
13262,1869
13263,1863
13264,1863
13265,1862
13266,1856
13267,1855
13268,1854
13269,1856
13270,1855
13271,1855
13272,1856
13273,1857
13274,1865
13275,1866
13276,1862
13277,1867
13278,1870
13279,1867
13280,1859
13281,1858
13282,1859
13283,1850
13284,1851
13285,1842
13286,1847
13287,1854
13288,1856
13289,1857
13290,1857
13291,1862
13292,1863
13293,1869
13294,1867
13295,1869
13296,1869
13297,1863
13298,1862
13299,1856
13300,1855
13301,1856
13302,1853
13303,1854
13304,1856
13305,1857
13306,1857
13307,1857
13308,1862
13309,1866
13310,1872
13311,1867
13312,1866
13313,1856
13314,1855
13315,1857
13316,1855
13317,1851
13318,1850
13319,1856
13320,1855
13321,1856
13322,1856
13323,1856
13324,1862
13325,1866
13326,1863
13327,1866
13328,1871
13329,1866
13330,1861
13331,1862
13332,1858
13333,1856
13334,1858
13335,1852
13336,1855
13337,1855
13338,1858
13339,1859
13340,1861
13341,1866
13342,1869
13343,1862
13344,1860
13345,1863
13346,1861
13347,1857
13348,1856
13349,1847
13350,1856
13351,1856
13352,1853
13353,1853
13354,1854
13355,1856
13356,1859
13357,1866
13358,1867
13359,1867
13360,1872
13361,1870
13362,1867
13363,1863
13364,1863
13365,1866
13366,1853
13367,1856
13368,1856
13369,1856
13370,1856
13371,1858
13372,1862
13373,1855
13374,1857
13375,1858
13376,1861
13377,1866
13378,1863
13379,1867
13380,1865
13381,1861
13382,1860
13383,1856
13384,1857
13385,1854
13386,1856
13387,1854
13388,1856
13389,1857
13390,1857
13391,1863
13392,1869
13393,1863
13394,1868
13395,1867
13396,1866
13397,1861
13398,1857
13399,1855
13400,1856
13401,1857
13402,1853
13403,1843
13404,1850
13405,1856
13406,1856
13407,1862
13408,1867
13409,1866
13410,1871
13411,1868
13412,1867
13413,1865
13414,1862
13415,1862
13416,1856
13417,1855
13418,1856
13419,1856
13420,1855
13421,1855
13422,1858
13423,1859
13424,1866
13425,1867
13426,1869
13427,1869
13428,1869
13429,1870
13430,1862
13431,1860
13432,1862
13433,1851
13434,1853
13435,1846
13436,1851
13437,1850
13438,1857
13439,1857
13440,1862
13441,1865
13442,1869
13443,1867
13444,1866
13445,1870
13446,1867
13447,1865
13448,1862
13449,1857
13450,1856
13451,1856
13452,1851
13453,1855
13454,1856
13455,1858
13456,1858
13457,1863
13458,1865
13459,1870
13460,1872
13461,1867
13462,1870
13463,1856
13464,1856
13465,1857
13466,1851
13467,1847
13468,1856
13469,1855
13470,1853
13471,1855
13472,1856
13473,1858
13474,1859
13475,1863
13476,1863
13477,1870
13478,1869
13479,1869
13480,1866
13481,1860
13482,1862
13483,1855
13484,1855
13485,1853
13486,1854
13487,1853
13488,1857
13489,1857
13490,1859
13491,1863
13492,1867
13493,1858
13494,1859
13495,1862
13496,1861
13497,1856
13498,1863
13499,1856
13500,1857
13501,1856
13502,1853
13503,1855
13504,1855
13505,1858
13506,1861
13507,1858
13508,1867
13509,1866
13510,1871
13511,1867
13512,1871
13513,1867
13514,1862
13515,1863
13516,1858
13517,1856
13518,1854
13519,1853
13520,1847
13521,1853
13522,1854
13523,1851
13524,1856
13525,1858
13526,1860
13527,1866
13528,1869
13529,1869
13530,1861
13531,1861
13532,1859
13533,1857
13534,1855
13535,1851
13536,1856
13537,1855
13538,1859
13539,1859
13540,1859
13541,1866
13542,1867
13543,1868
13544,1867
13545,1871
13546,1867
13547,1863
13548,1862
13549,1858
13550,1857
13551,1855
13552,1851
13553,1849
13554,1847
13555,1853
13556,1855
13557,1858
13558,1862
13559,1857
13560,1863
13561,1861
13562,1861
13563,1866
13564,1865
13565,1863
13566,1859
13567,1857
13568,1856
13569,1856
13570,1855
13571,1856
13572,1862
13573,1863
13574,1863
13575,1863
13576,1863
13577,1871
13578,1870
13579,1867
13580,1863
13581,1861
13582,1859
13583,1851
13584,1850
13585,1846
13586,1852
13587,1856
13588,1856
13589,1858
13590,1858
13591,1866
13592,1869
13593,1865
13594,1870
13595,1869
13596,1867
13597,1862
13598,1863
13599,1858
13600,1856
13601,1855
13602,1850
13603,1855
13604,1854
13605,1856
13606,1857
13607,1859
13608,1863
13609,1863
13610,1868
13611,1866
13612,1866
13613,1857
13614,1856
13615,1857
13616,1855
13617,1853
13618,1855
13619,1856
13620,1856
13621,1858
13622,1861
13623,1861
13624,1866
13625,1863
13626,1865
13627,1870
13628,1866
13629,1869
13630,1863
13631,1861
13632,1858
13633,1856
13634,1855
13635,1851
13636,1855
13637,1855
13638,1855
13639,1858
13640,1857
13641,1865
13642,1866
13643,1857
13644,1863
13645,1862
13646,1861
13647,1857
13648,1861
13649,1859
13650,1857
13651,1859
13652,1853
13653,1853
13654,1857
13655,1858
13656,1859
13657,1862
13658,1867
13659,1870
13660,1871
13661,1869
13662,1871
13663,1865
13664,1861
13665,1857
13666,1855
13667,1856
13668,1856
13669,1856
13670,1853
13671,1856
13672,1858
13673,1856
13674,1858
13675,1861
13676,1860
13677,1863
13678,1871
13679,1869
13680,1866
13681,1861
13682,1861
13683,1856
13684,1856
13685,1852
13686,1856
13687,1856
13688,1857
13689,1859
13690,1858
13691,1863
13692,1871
13693,1866
13694,1870
13695,1870
13696,1867
13697,1863
13698,1858
13699,1859
13700,1856
13701,1856
13702,1851
13703,1843
13704,1845
13705,1849
13706,1852
13707,1855
13708,1865
13709,1866
13710,1869
13711,1863
13712,1865
13713,1865
13714,1861
13715,1861
13716,1855
13717,1855
13718,1853
13719,1852
13720,1852
13721,1856
13722,1855
13723,1861
13724,1862
13725,1863
13726,1865
13727,1872
13728,1869
13729,1867
13730,1861
13731,1861
13732,1861
13733,1851
13734,1851
13735,1850
13736,1852
13737,1850
