Time(ms),Raw_ADC
0,1777
1,1789
2,1766
3,1799
4,1863
5,1925
6,1965
7,1926
8,1926
9,1911
10,1892
11,1898
12,1878
13,1863
14,1794
15,1798
16,1775
17,1784
18,1799
19,1783
20,1775
21,1882
22,1971
23,1930
24,1920
25,1916
26,1904
27,1887
28,1931
29,1867
30,1811
31,1840
32,1781
33,1776
34,1785
35,1808
36,1781
37,1795
38,1905
39,1934
40,1947
41,1925
42,1927
43,1904
44,1887
45,1941
46,1872
47,1883
48,1793
49,1782
50,1776
51,1786
52,1812
53,1786
54,1859
55,1957
56,1948
57,1916
58,1919
59,1904
60,1882
61,1854
62,1894
63,1858
64,1825
65,1790
66,1776
67,1782
68,1789
69,1814
70,1830
71,1872
72,1939
73,1946
74,1919
75,1921
76,1903
77,1889
78,1911
79,1879
80,1822
81,1840
82,1789
83,1771
84,1787
85,1788
86,1753
87,1829
88,1903
89,1920
90,1949
91,1922
92,1915
93,1895
94,1892
95,1938
96,1904
97,1891
98,1802
99,1770
100,1772
101,1793
102,1758
103,1776
104,1833
105,1877
106,1938
107,1922
108,1918
109,1916
110,1890
111,1883
112,1905
113,1874
114,1847
115,1787
116,1775
117,1775
118,1783
119,1781
120,1794
121,1873
122,1877
123,1941
124,1922
125,1926
126,1910
127,1895
128,1909
129,1919
130,1895
131,1840
132,1790
133,1777
134,1776
135,1803
136,1741
137,1827
138,1902
139,1950
140,1945
141,1930
142,1919
143,1897
144,1886
145,1931
146,1890
147,1847
148,1801
149,1790
150,1776
151,1797
152,1808
153,1744
154,1856
155,1961
156,1951
157,1910
158,1922
159,1919
160,1880
161,1897
162,1904
163,1840
164,1866
165,1788
166,1787
167,1771
168,1793
169,1778
170,1757
171,1877
172,1890
173,1953
174,1922
175,1910
176,1898
177,1885
178,1926
179,1855
180,1873
181,1839
182,1782
183,1769
184,1783
185,1809
186,1824
187,1845
188,1905
189,1933
190,1945
191,1929
192,1914
193,1899
194,1890
195,1904
196,1911
197,1847
198,1805
199,1785
200,1779
201,1790
202,1788
203,1799
204,1872
205,1930
206,1937
207,1923
208,1910
209,1907
210,1885
211,1892
212,1905
213,1887
214,1847
215,1795
216,1775
217,1779
218,1804
219,1775
220,1798
221,1840
222,1932
223,1941
224,1908
225,1920
226,1905
227,1894
228,1899
229,1850
230,1847
231,1842
232,1794
233,1776
234,1781
235,1795
236,1724
237,1845
238,1910
239,1932
240,1936
241,1917
242,1926
243,1899
244,1879
245,1936
246,1875
247,1853
248,1803
249,1790
250,1776
251,1778
252,1797
253,1791
254,1904
255,1870
256,1924
257,1922
258,1911
259,1920
260,1901
261,1875
262,1904
263,1808
264,1867
265,1781
266,1754
267,1762
268,1804
269,1766
270,1790
271,1904
272,1945
273,1941
274,1919
275,1915
276,1904
277,1896
278,1926
279,1888
280,1865
281,1831
282,1785
283,1787
284,1786
285,1807
286,1776
287,1849
288,1880
289,1935
290,1942
291,1912
292,1917
293,1891
294,1887
295,1955
296,1867
297,1831
298,1798
299,1792
300,1765
301,1791
302,1787
303,1770
304,1862
305,1936
306,1939
307,1925
308,1914
309,1919
310,1879
311,1914
312,1936
313,1856
314,1847
315,1792
316,1776
317,1770
318,1806
319,1795
320,1799
321,1870
322,1936
323,1946
324,1923
325,1909
326,1899
327,1878
328,1936
329,1872
330,1842
331,1831
332,1794
333,1776
334,1782
335,1815
336,1826
337,1875
338,1905
339,1938
340,1948
341,1920
342,1922
343,1892
344,1873
345,1965
346,1888
347,1845
348,1802
349,1791
350,1776
351,1793
352,1791
353,1787
354,1879
355,1931
356,1936
357,1922
358,1927
359,1913
360,1881
361,1885
362,1905
363,1895
364,1845
365,1801
366,1775
367,1790
368,1808
369,1781
370,1807
371,1888
372,1923
373,1947
374,1919
375,1907
376,1898
377,1894
378,1963
379,1903
380,1847
381,1819
382,1798
383,1776
384,1775
385,1808
386,1744
387,1826
388,1908
389,1936
390,1931
391,1932
392,1921
393,1891
394,1901
395,1911
396,1872
397,1872
398,1811
399,1780
400,1775
401,1796
402,1779
403,1747
404,1844
405,1921
406,1954
407,1917
408,1915
409,1906
410,1899
411,1882
412,1927
413,1861
414,1823
415,1785
416,1781
417,1775
418,1788
419,1792
420,1761
421,1865
422,1887
423,1949
424,1922
425,1927
426,1901
427,1892
428,1933
429,1913
430,1801
431,1813
432,1776
433,1771
434,1785
435,1807
436,1808
437,1855
438,1936
439,1930
440,1937
441,1919
442,1922
443,1885
444,1876
445,1946
446,1871
447,1840
448,1792
449,1778
450,1771
451,1803
452,1775
453,1799
454,1857
455,1922
456,1931
457,1926
458,1932
459,1914
460,1887
461,1850
462,1872
463,1830
464,1877
465,1789
466,1775
467,1776
468,1800
469,1779
470,1825
471,1907
472,1936
473,1942
474,1922
475,1914
476,1903
477,1893
478,1941
479,1883
480,1891
481,1826
482,1786
483,1765
484,1776
485,1805
486,1743
487,1818
488,1914
489,1965
490,1939
491,1932
492,1929
493,1902
494,1877
495,1968
496,1841
497,1861
498,1803
499,1781
500,1761
501,1782
502,1749
503,1742
504,1871
505,1936
506,1936
507,1929
508,1920
509,1918
510,1888
511,1850
512,1897
513,1832
514,1847
515,1790
516,1779
517,1776
518,1802
519,1827
520,1799
521,1856
522,1934
523,1946
524,1923
525,1925
526,1909
527,1897
528,1953
529,1919
530,1833
531,1845
532,1778
533,1776
534,1787
535,1805
536,1776
537,1837
538,1888
539,1932
540,1938
541,1909
542,1909
543,1897
544,1885
545,1909
546,1872
547,1860
548,1808
549,1776
550,1775
551,1789
552,1805
553,1826
554,1897
555,1936
556,1942
557,1927
558,1925
559,1918
560,1879
561,1840
562,1927
563,1906
564,1873
565,1777
566,1776
567,1776
568,1795
569,1819
570,1804
571,1886
572,1958
573,1947
574,1927
575,1924
576,1906
577,1891
578,1944
579,1894
580,1847
581,1834
582,1803
583,1783
584,1769
585,1806
586,1777
587,1840
588,1913
589,1955
590,1936
591,1937
592,1910
593,1904
594,1887
595,1924
596,1868
597,1814
598,1334
599,1175
600,1811
601,1954
602,1998
603,2020
604,2202
605,2294
606,2297
607,2164
608,2045
609,2014
610,1948
611,1847
612,1731
613,1584
614,1493
615,1399
616,1474
617,1630
618,1727
619,1797
620,1810
621,1907
622,1936
623,1936
624,1927
625,1921
626,1920
627,1894
628,1937
629,2362
630,1097
631,1799
632,2013
633,2124
634,2128
635,2159
636,2138
637,2091
638,2075
639,2027
640,2035
641,2013
642,1899
643,1707
644,1497
645,1487
646,1434
647,1535
648,1650
649,1742
650,1773
651,1808
652,1834
653,1818
654,1935
655,1936
656,1972
657,1968
658,1957
659,1936
660,2834
661,942
662,1777
663,2022
664,2110
665,2083
666,2089
667,2113
668,2081
669,1955
670,1927
671,2067
672,1987
673,1884
674,1680
675,1535
676,1503
677,1584
678,1789
679,1878
680,1830
681,1866
682,1810
683,1776
684,1783
685,1819
686,1803
687,1870
688,1949
689,1942
690,1971
691,1945
692,1035
693,1614
694,2000
695,2218
696,2192
697,2188
698,2147
699,2064
700,1978
701,1982
702,1906
703,1777
704,1729
705,1669
706,1535
707,1487
708,1618
709,1797
710,1871
711,1888
712,1895
713,1906
714,1863
715,1796
716,1793
717,1801
718,1828
719,1812
720,1808
721,1970
722,1958
723,1232
724,1451
725,1955
726,2069
727,2128
728,2208
729,2149
730,2101
731,2145
732,2159
733,2016
734,1821
735,1688
736,1491
737,1460
738,1535
739,1650
740,1809
741,1886
742,1911
743,1911
744,1895
745,1971
746,1904
747,1879
748,1825
749,1808
750,1805
751,1825
752,1785
753,1773
754,1686
755,1355
756,1893
757,1997
758,2121
759,2189
760,2197
761,2199
762,2352
763,2254
764,2045
765,1771
766,1632
767,1472
768,1382
769,1385
770,1572
771,1795
772,1952
773,1955
774,1936
775,1936
776,1918
777,1901
778,1928
779,1959
780,1857
781,1863
782,1819
783,1798
784,1801
785,2823
786,945
787,1673
788,1911
789,2063
790,2161
791,2162
792,2155
793,2343
794,2304
795,2151
796,1893
797,1680
798,1533
799,1411
800,1413
801,1590
802,1737
803,1794
804,1902
805,1951
806,1962
807,1937
808,1936
809,1924
810,1919
811,1881
812,1933
813,1877
814,1840
815,1807
816,1840
817,942
818,1489
819,1680
820,1897
821,2068
822,2149
823,2193
824,2438
825,2391
826,2117
827,1933
828,1892
829,1667
830,1561
831,1492
832,1567
833,1687
834,1771
835,1778
836,1826
837,1811
838,1914
839,1959
840,1936
841,1930
842,1936
843,1929
844,1904
845,1963
846,1892
847,1838
848,1124
849,1301
850,1698
851,1810
852,1930
853,1983
854,2022
855,2372
856,2465
857,2202
858,2011
859,1847
860,1677
861,1581
862,1561
863,1690
864,1809
865,1775
866,1780
867,1794
868,1808
869,1773
870,1817
871,1953
872,2009
873,1986
874,1952
875,1949
876,1935
877,1913
878,1965
879,1638
880,1187
881,1745
882,1776
883,1898
884,1985
885,2015
886,2224
887,2343
888,2189
889,2032
890,1913
891,1731
892,1597
893,1535
894,1664
895,1847
896,1831
897,1841
898,1803
899,1787
900,1781
901,1792
902,1747
903,1815
904,1902
905,1930
906,1978
907,1937
908,1943
909,1939
910,2203
911,1006
912,1767
913,1856
914,1971
915,1999
916,1992
917,2218
918,2353
919,2032
920,1883
921,1849
922,1716
923,1616
924,1566
925,1677
926,1797
927,1873
928,1960
929,1888
930,1847
931,1818
932,1794
933,1777
934,1808
935,1821
936,1776
937,1858
938,1973
939,1941
940,1952
941,2546
942,891
943,1722
944,1854
945,1998
946,1995
947,1978
948,2160
949,2415
950,2190
951,2001
952,1885
953,1686
954,1625
955,1595
956,1682
957,1787
958,1875
959,1882
960,1872
961,1882
962,1899
963,1856
964,1867
965,1786
966,1779
967,1775
968,1801
969,1740
970,1819
971,1904
972,1995
973,1042
974,1611
975,1889
976,1907
977,1955
978,2061
979,2164
980,2449
981,2301
982,2077
983,1947
984,1798
985,1601
986,1473
987,1619
988,1742
989,1877
990,1891
991,1895
992,1893
993,1874
994,1859
995,1910
996,1865
997,1895
998,1824
999,1817
1000,1811
1001,1806
1002,1811
1003,1743
1004,1291
1005,1473
1006,1885
1007,1906
1008,1963
1009,1998
1010,2101
1011,2473
1012,2352
1013,2182
1014,2063
1015,1808
1016,1588
1017,1455
1018,1535
1019,1607
1020,1700
1021,1830
1022,1939
1023,1925
1024,1902
1025,1927
1026,1904
1027,1904
1028,1935
1029,1905
1030,1892
1031,1846
1032,1789
1033,1778
1034,1790
1035,1774
1036,1061
1037,1718
1038,1893
1039,2003
1040,2015
1041,2098
1042,2450
1043,2389
1044,2204
1045,2114
1046,1963
1047,1696
1048,1501
1049,1519
1050,1602
1051,1685
1052,1740
1053,1730
1054,1831
1055,1904
1056,1920
1057,1920
1058,1949
1059,1945
1060,1893
1061,1904
1062,1914
1063,1893
1064,1904
1065,1792
1066,2709
1067,886
1068,1607
1069,1695
1070,1777
1071,1969
1072,2047
1073,2394
1074,2433
1075,2234
1076,2082
1077,1979
1078,1835
1079,1603
1080,1648
1081,1655
1082,1693
1083,1702
1084,1727
1085,1779
1086,1749
1087,1834
1088,1946
1089,1914
1090,1943
1091,1941
1092,1943
1093,1910
1094,1902
1095,1954
1096,1856
1097,1929
1098,913
1099,1472
1100,1712
1101,1772
1102,1793
1103,1831
1104,2229
1105,2490
1106,2294
1107,2160
1108,2065
1109,1874
1110,1698
1111,1665
1112,1767
1113,1781
1114,1781
1115,1742
1116,1728
1117,1728
1118,1770
1119,1764
1120,1819
1121,1882
1122,1988
1123,1966
1124,1930
1125,1942
1126,1922
1127,1915
1128,1959
1129,1177
1130,1393
1131,1763
1132,1746
1133,1780
1134,1851
1135,2090
1136,2303
1137,2225
1138,2176
1139,2105
1140,1930
1141,1744
1142,1702
1143,1710
1144,1755
1145,1857
1146,1840
1147,1840
1148,1765
1149,1744
1150,1735
1151,1782
1152,1782
1153,1801
1154,1886
1155,1939
1156,1970
1157,1955
1158,1947
1159,1936
1160,1520
1161,1227
1162,1798
1163,1844
1164,1858
1165,1838
1166,1980
1167,2350
1168,2259
1169,2070
1170,1957
1171,1905
1172,1777
1173,1707
1174,1735
1175,1789
1176,1810
1177,1840
1178,1904
1179,1866
1180,1845
1181,1818
1182,1772
1183,1765
1184,1793
1185,1810
1186,1784
1187,1818
1188,1924
1189,1985
1190,1953
1191,2704
1192,934
1193,1775
1194,1849
1195,1946
1196,1878
1197,1966
1198,2310
1199,2287
1200,2094
1201,1974
1202,1815
1203,1677
1204,1662
1205,1712
1206,1777
1207,1837
1208,1875
1209,1884
1210,1859
1211,1838
1212,1855
1213,1805
1214,1790
1215,1809
1216,1795
1217,1799
1218,1814
1219,1788
1220,1825
1221,1897
1222,1950
1223,1961
1224,1927
1225,1936
1226,1913
1227,1890
1228,1914
1229,1889
1230,1882
1231,1824
1232,1786
1233,1775
1234,1776
1235,1808
1236,1787
1237,1893
1238,1886
1239,1935
1240,1937
1241,1936
1242,1931
1243,1910
1244,1899
1245,1929
1246,1868
1247,1810
1248,1792
1249,1775
1250,1766
1251,1802
1252,1759
1253,1759
1254,1894
1255,1936
1256,1936
1257,1935
1258,1915
1259,1920
1260,1886
1261,1890
1262,1904
1263,1883
1264,1825
1265,1776
1266,1766
1267,1766
1268,1796
1269,1737
1270,1772
1271,1895
1272,1881
1273,1949
1274,1924
1275,1941
1276,1904
1277,1901
1278,1945
1279,1890
1280,1855
1281,1821
1282,1767
1283,1762
1284,1774
1285,1810
1286,1776
1287,1860
1288,1881
1289,1979
1290,1946
1291,1936
1292,1918
1293,1897
1294,1882
1295,1921
1296,1890
1297,1831
1298,1776
1299,1778
1300,1769
1301,1771
1302,1777
1303,1777
1304,1820
1305,1925
1306,1950
1307,1920
1308,1927
1309,1927
1310,1903
1311,1901
1312,1877
1313,1861
1314,1794
1315,1776
1316,1759
1317,1763
1318,1792
1319,1773
1320,1803
1321,1910
1322,1966
1323,1962
1324,1936
1325,1920
1326,1898
1327,1904
1328,1968
1329,1927
1330,1872
1331,1805
1332,1793
1333,1770
1334,1776
1335,1779
1336,1781
1337,1888
1338,1939
1339,1984
1340,1935
1341,1936
1342,1936
1343,1895
1344,1887
1345,1919
1346,1882
1347,1791
1348,1783
1349,1776
1350,1755
1351,1795
1352,1781
1353,1805
1354,1885
1355,1926
1356,1953
1357,1934
1358,1931
1359,1908
1360,1895
1361,1872
1362,1865
1363,1808
1364,1879
1365,1786
1366,1767
1367,1777
1368,1802
1369,1772
1370,1847
1371,1895
1372,1954
1373,1947
1374,1935
1375,1906
1376,1898
1377,1898
1378,1919
1379,1930
1380,1850
1381,1808
1382,1782
1383,1771
1384,1779
1385,1744
1386,1749
1387,1805
1388,1966
1389,1945
1390,1934
1391,1918
1392,1921
1393,1894
1394,1883
1395,1933
1396,1872
1397,1886
1398,1805
1399,1776
1400,1773
1401,1791
1402,1802
1403,1794
1404,1865
1405,1936
1406,1936
1407,1914
1408,1918
1409,1915
1410,1903
1411,1883
1412,1907
1413,1855
1414,1841
1415,1783
1416,1780
1417,1786
1418,1781
1419,1782
1420,1814
1421,1882
1422,1950
1423,1940
1424,1933
1425,1922
1426,1902
1427,1891
1428,1939
1429,1881
1430,1806
1431,1822
1432,1797
1433,1777
1434,1779
1435,1787
1436,1771
1437,1840
1438,1904
1439,1875
1440,1929
1441,1919
1442,1922
1443,1895
1444,1887
1445,1953
1446,1841
1447,1810
1448,1797
1449,1765
1450,1764
1451,1783
1452,1728
1453,1782
1454,1891
1455,1916
1456,1936
1457,1921
1458,1922
1459,1910
1460,1904
1461,1904
1462,1891
1463,1890
1464,1855
1465,1765
1466,1761
1467,1772
1468,1797
1469,1775
1470,1789
1471,1910
1472,1919
1473,1951
1474,1926
1475,1915
1476,1904
1477,1895
1478,1930
1479,1894
1480,1829
1481,1811
1482,1791
1483,1778
1484,1781
1485,1797
1486,1798
1487,1860
1488,1877
1489,1931
1490,1934
1491,1914
1492,1918
1493,1894
1494,1882
1495,1919
1496,1873
1497,1840
1498,1789
1499,1777
1500,1776
1501,1799
1502,1827
1503,1815
1504,1856
1505,1940
1506,1942
1507,1920
1508,1923
1509,1910
1510,1893
1511,1871
1512,1911
1513,1867
1514,1791
1515,1782
1516,1775
1517,1763
1518,1803
1519,1815
1520,1808
1521,1925
1522,1922
1523,1936
1524,1908
1525,1915
1526,1895
1527,1885
1528,1920
1529,1872
1530,1838
1531,1817
1532,1775
1533,1775
1534,1774
1535,1819
1536,1776
1537,1870
1538,1926
1539,1964
1540,1929
1541,1922
1542,1920
1543,1886
1544,1878
1545,1904
1546,1862
1547,1879
1548,1786
1549,1786
1550,1780
1551,1792
1552,1810
1553,1811
1554,1870
1555,1962
1556,1937
1557,1917
1558,1920
1559,1907
1560,1877
1561,1882
1562,1907
1563,1893
1564,1836
1565,1776
1566,1776
1567,1782
1568,1807
1569,1783
1570,1863
1571,1889
1572,1943
1573,1953
1574,1922
1575,1920
1576,1888
1577,1898
1578,1943
1579,1878
1580,1846
1581,1818
1582,1791
1583,1787
1584,1795
1585,1829
1586,1778
1587,1844
1588,1953
1589,1955
1590,1923
1591,1922
1592,1920
1593,1899
1594,1871
1595,1921
1596,1886
1597,1856
1598,1792
1599,1759
1600,1781
1601,1793
1602,1803
1603,1781
1604,1891
1605,1920
1606,1955
1607,1927
1608,1919
1609,1905
1610,1894
1611,1891
1612,1895
1613,1802
1614,1796
1615,1791
1616,1774
1617,1770
1618,1791
1619,1778
1620,1767
1621,1894
1622,1943
1623,1933
1624,1931
1625,1927
1626,1904
1627,1904
1628,1920
1629,1920
1630,1823
1631,1815
1632,1787
1633,1785
1634,1765
1635,1809
1636,1751
1637,1850
1638,1909
1639,1922
1640,1935
1641,1938
1642,1919
1643,1892
1644,1879
1645,1918
1646,1909
1647,1838
1648,1781
1649,1766
1650,1765
1651,1783
1652,1775
1653,1744
1654,1872
1655,1939
1656,1936
1657,1935
1658,1931
1659,1909
1660,1899
1661,1927
1662,1899
1663,1859
1664,1815
1665,1785
1666,1780
1667,1776
1668,1806
1669,1803
1670,1822
1671,1910
1672,1936
1673,1958
1674,1933
1675,1921
1676,1903
1677,1886
1678,1939
1679,1903
1680,1879
1681,1825
1682,1781
1683,1776
1684,1783
1685,1830
1686,1796
1687,1851
1688,1923
1689,1919
1690,1939
1691,1936
1692,1922
1693,1899
1694,1873
1695,1895
1696,1895
1697,1840
1698,1787
1699,1776
1700,1755
1701,1793
1702,1778
1703,1728
1704,1826
1705,1907
1706,1937
1707,1921
1708,1920
1709,1904
1710,1891
1711,1903
1712,1914
1713,1862
1714,1860
1715,1782
1716,1770
1717,1767
1718,1796
1719,1786
1720,1850
1721,1886
1722,1906
1723,1942
1724,1936
1725,1933
1726,1898
1727,1889
1728,1953
1729,1914
1730,1894
1731,1810
1732,1778
1733,1777
1734,1783
1735,1803
1736,1713
1737,1840
1738,1860
1739,1936
1740,1919
1741,1923
1742,1909
1743,1897
1744,1877
1745,1919
1746,1855
1747,1802
1748,1799
1749,1775
1750,1761
1751,1799
1752,1733
1753,1790
1754,1878
1755,1949
1756,1932
1757,1924
1758,1917
1759,1921
1760,1899
1761,1917
1762,1872
1763,1867
1764,1869
1765,1778
1766,1766
1767,1762
1768,1806
1769,1787
1770,1775
1771,1872
1772,1958
1773,1959
1774,1937
1775,1915
1776,1906
1777,1883
1778,1935
1779,1904
1780,1809
1781,1797
1782,1767
1783,1776
1784,1776
1785,1818
1786,1776
1787,1846
1788,1909
1789,1955
1790,1934
1791,1919
1792,1921
1793,1908
1794,1888
1795,1910
1796,1852
1797,1877
1798,1793
1799,1776
1800,1774
1801,1793
1802,1729
1803,1786
1804,1899
1805,1957
1806,1945
1807,1936
1808,1921
1809,1911
1810,1904
1811,1909
1812,1878
1813,1851
1814,1842
1815,1788
1816,1782
1817,1776
1818,1798
1819,1808
1820,1789
1821,1931
1822,1931
1823,1939
1824,1916
1825,1910
1826,1896
1827,1881
1828,1941
1829,1907
1830,1840
1831,1823
1832,1783
1833,1773
1834,1778
1835,1827
1836,1729
1837,1811
1838,1938
1839,1936
1840,1941
1841,1918
1842,1920
1843,1891
1844,1877
1845,1906
1846,1872
1847,1838
1848,1791
1849,1777
1850,1763
1851,1797
1852,1733
1853,1747
1854,1888
1855,1943
1856,1946
1857,1917
1858,1921
1859,1904
1860,1884
1861,1911
1862,1920
1863,1833
1864,1820
1865,1777
1866,1759
1867,1785
1868,1794
1869,1819
1870,1825
1871,1907
1872,1968
1873,1931
1874,1922
1875,1922
1876,1910
1877,1897
1878,1936
1879,1891
1880,1837
1881,1811
1882,1792
1883,1771
1884,1792
1885,1819
1886,1800
1887,1855
1888,1907
1889,1936
1890,1934
1891,1924
1892,1906
1893,1893
1894,1875
1895,1895
1896,1820
1897,1842
1898,1786
1899,1774
1900,1780
1901,1799
1902,1803
1903,1795
1904,1872
1905,1953
1906,1927
1907,1910
1908,1925
1909,1905
1910,1895
1911,1924
1912,1855
1913,1823
1914,1856
1915,1789
1916,1754
1917,1779
1918,1806
1919,1834
1920,1831
1921,1914
1922,1903
1923,1938
1924,1921
1925,1919
1926,1894
1927,1889
1928,1946
1929,1856
1930,1867
1931,1811
1932,1787
1933,1774
1934,1789
1935,1798
1936,1827
1937,1828
1938,1915
1939,1929
1940,1939
1941,1919
1942,1918
1943,1886
1944,1890
1945,1890
1946,1860
1947,1839
1948,1787
1949,1781
1950,1767
1951,1805
1952,1779
1953,1790
1954,1915
1955,1936
1956,1952
1957,1923
1958,1926
1959,1911
1960,1893
1961,1907
1962,1866
1963,1867
1964,1824
1965,1777
1966,1771
1967,1791
1968,1789
1969,1776
1970,1827
1971,1934
1972,1875
1973,1937
1974,1917
1975,1907
1976,1903
1977,1889
1978,1934
1979,1879
1980,1849
1981,1808
1982,1778
1983,1771
1984,1782
1985,1802
1986,1822
1987,1863
1988,1918
1989,1953
1990,1922
1991,1930
1992,1922
1993,1882
1994,1884
1995,1920
1996,1910
1997,1872
1998,1795
1999,1769
2000,1759
2001,1797
2002,1818
2003,1765
2004,1869
2005,1905
2006,1942
2007,1927
2008,1911
2009,1907
2010,1891
2011,1918
2012,1872
2013,1871
2014,1821
2015,1778
2016,1782
2017,1762
2018,1784
2019,1792
2020,1797
2021,1905
2022,1951
2023,1936
2024,1919
2025,1919
2026,1898
2027,1888
2028,1904
2029,1918
2030,1835
2031,1812
2032,1785
2033,1781
2034,1781
2035,1829
2036,1783
2037,1872
2038,1928
2039,1929
2040,1935
2041,1917
2042,1915
2043,1890
2044,1878
2045,1906
2046,1809
2047,1844
2048,1786
2049,1776
2050,1775
2051,1799
2052,1791
2053,1803
2054,1843
2055,1920
2056,1941
2057,1927
2058,1927
2059,1918
2060,1903
2061,1926
2062,1919
2063,1854
2064,1808
2065,1778
2066,1776
2067,1775
2068,1802
2069,1823
2070,1835
2071,1900
2072,1951
2073,1941
2074,1926
2075,1930
2076,1902
2077,1893
2078,1953
2079,1879
2080,1821
2081,1812
2082,1783
2083,1776
2084,1781
2085,1803
2086,1779
2087,1805
2088,1872
2089,1955
2090,1937
2091,1930
2092,1919
2093,1883
2094,1877
2095,1883
2096,1859
2097,1856
2098,1789
2099,1759
2100,1767
2101,1802
2102,1776
2103,1839
2104,1877
2105,1959
2106,1944
2107,1929
2108,1921
2109,1904
2110,1884
2111,1905
2112,1909
2113,1891
2114,1810
2115,1779
2116,1773
2117,1776
2118,1806
2119,1813
2120,1859
2121,1861
2122,1949
2123,1941
2124,1920
2125,1913
2126,1895
2127,1886
2128,1967
2129,1875
2130,1863
2131,1796
2132,1783
2133,1783
2134,1799
2135,1777
2136,1789
2137,1815
2138,1872
2139,1936
2140,1938
2141,1935
2142,1917
2143,1885
2144,1878
2145,1915
2146,1854
2147,1844
2148,1791
2149,1778
2150,1776
2151,1799
2152,1776
2153,1783
2154,1903
2155,1967
2156,1945
2157,1919
2158,1925
2159,1919
2160,1896
2161,1893
2162,1856
2163,1846
2164,1847
2165,1783
2166,1775
2167,1776
2168,1793
2169,1778
2170,1827
2171,1885
2172,1934
2173,1953
2174,1919
2175,1921
2176,1895
2177,1886
2178,1936
2179,1911
2180,1849
2181,1809
2182,1783
2183,1760
2184,1779
2185,1766
2186,1763
2187,1857
2188,1927
2189,1935
2190,1925
2191,1925
2192,1911
2193,1898
2194,1893
2195,1904
2196,1852
2197,1840
2198,1788
2199,1767
2200,1771
2201,1794
2202,1779
2203,1806
2204,1838
2205,1933
2206,1947
2207,1929
2208,1930
2209,1904
2210,1895
2211,1930
2212,1905
2213,1846
2214,1833
2215,1778
2216,1770
2217,1774
2218,1791
2219,1776
2220,1870
2221,1936
2222,1049
2223,1767
2224,2027
2225,2121
2226,2126
2227,2159
2228,2288
2229,2267
2230,2128
2231,1936
2232,1837
2233,1854
2234,1830
2235,1759
2236,1600
2237,1535
2238,1510
2239,1626
2240,1713
2241,1809
2242,1872
2243,1861
2244,1845
2245,1893
2246,1877
2247,1827
2248,1770
2249,1766
2250,1777
2251,1808
2252,1747
2253,1201
2254,1493
2255,2005
2256,2182
2257,2234
2258,2251
2259,2246
2260,2195
2261,2128
2262,1994
2263,1950
2264,1977
2265,1872
2266,1738
2267,1535
2268,1430
2269,1394
2270,1479
2271,1643
2272,1839
2273,1915
2274,1931
2275,1936
2276,1910
2277,1899
2278,1963
2279,1924
2280,1893
2281,1841
2282,1812
2283,1801
2284,1583
2285,1118
2286,1762
2287,2032
2288,2261
2289,2256
2290,2269
2291,2253
2292,2128
2293,1987
2294,1995
2295,2021
2296,1879
2297,1719
2298,1507
2299,1407
2300,1441
2301,1572
2302,1638
2303,1776
2304,1874
2305,1927
2306,1941
2307,1913
2308,1925
2309,1929
2310,1921
2311,1906
2312,1935
2313,1840
2314,1893
2315,2192
2316,928
2317,1744
2318,1954
2319,2045
2320,2159
2321,2274
2322,2257
2323,2191
2324,2111
2325,2115
2326,1985
2327,1851
2328,1792
2329,1535
2330,1455
2331,1476
2332,1574
2333,1710
2334,1761
2335,1767
2336,1830
2337,1886
2338,1936
2339,1957
2340,1947
2341,1947
2342,1950
2343,1925
2344,1923
2345,1914
2346,2529
2347,903
2348,1663
2349,1856
2350,1968
2351,2055
2352,2094
2353,2110
2354,2101
2355,2231
2356,2249
2357,2068
2358,1906
2359,1750
2360,1584
2361,1535
2362,1527
2363,1666
2364,1739
2365,1745
2366,1759
2367,1791
2368,1808
2369,1799
2370,1853
2371,1943
2372,1966
2373,1999
2374,1968
2375,1958
2376,1927
2377,1919
2378,1038
2379,1441
2380,1819
2381,1949
2382,1982
2383,2022
2384,2047
2385,2032
2386,2257
2387,2288
2388,2096
2389,1974
2390,1814
2391,1653
2392,1535
2393,1535
2394,1667
2395,1776
2396,1791
2397,1779
2398,1792
2399,1786
2400,1781
2401,1806
2402,1776
2403,1799
2404,1917
2405,1981
2406,1968
2407,1961
2408,1943
2409,1370
2410,1327
2411,1895
2412,1969
2413,1946
2414,1984
2415,1959
2416,2061
2417,2371
2418,2321
2419,2045
2420,1940
2421,1866
2422,1697
2423,1563
2424,1534
2425,1651
2426,1746
2427,1793
2428,1866
2429,1904
2430,1840
2431,1814
2432,1789
2433,1807
2434,1821
2435,1821
2436,1794
2437,1888
2438,1999
2439,1977
2440,2107
2441,1058
2442,1837
2443,1927
2444,2041
2445,2150
2446,2061
2447,2127
2448,2395
2449,2223
2450,1932
2451,1787
2452,1626
2453,1417
2454,1461
2455,1573
2456,1750
2457,1854
2458,1904
2459,1911
2460,1910
2461,1971
2462,1923
2463,1872
2464,1862
2465,1815
2466,1810
2467,1822
2468,1840
2469,1755
2470,1872
2471,2795
2472,1036
2473,1806
2474,1927
2475,2062
2476,2128
2477,2126
2478,2234
2479,2480
2480,2272
2481,1963
2482,1770
2483,1621
2484,1465
2485,1327
2486,1430
2487,1657
2488,1879
2489,1938
2490,1930
2491,1933
2492,1921
2493,1903
2494,1875
2495,1906
2496,1897
2497,1890
2498,1815
2499,1802
2500,1799
2501,1821
2502,1799
2503,1008
2504,1600
2505,1913
2506,2011
2507,2113
2508,2135
2509,2188
2510,2530
2511,2416
2512,2071
2513,1888
2514,1712
2515,1501
2516,1367
2517,1417
2518,1585
2519,1652
2520,1819
2521,1846
2522,1942
2523,1942
2524,1915
2525,1907
2526,1900
2527,1889
2528,1968
2529,1916
2530,1935
2531,1856
2532,1811
2533,1793
2534,1114
2535,1303
2536,1717
2537,1894
2538,2111
2539,2158
2540,2192
2541,2583
2542,2422
2543,2086
2544,1937
2545,1808
2546,1573
2547,1465
2548,1418
2549,1560
2550,1683
2551,1790
2552,1777
2553,1837
2554,1910
2555,1937
2556,1954
2557,1930
2558,1937
2559,1920
2560,1919
2561,1919
2562,1934
2563,1901
2564,1839
2565,1525
2566,1067
2567,1698
2568,1798
2569,1930
2570,2015
2571,2096
2572,2496
2573,2512
2574,2198
2575,1998
2576,1818
2577,1648
2578,1580
2579,1495
2580,1669
2581,1726
2582,1776
2583,1763
2584,1794
2585,1810
2586,1765
2587,1888
2588,1954
2589,1965
2590,1951
2591,1936
2592,1943
2593,1918
2594,1916
2595,1935
2596,2493
2597,1002
2598,1669
2599,1727
2600,1822
2601,1911
2602,1950
2603,2274
2604,2452
2605,2256
2606,2098
2607,1955
2608,1796
2609,1635
2610,1595
2611,1735
2612,1823
2613,1763
2614,1827
2615,1785
2616,1774
2617,1773
2618,1785
2619,1783
2620,1840
2621,1955
2622,1953
2623,1970
2624,1954
2625,1947
2626,1917
2627,2288
2628,862
2629,1697
2630,1822
2631,1829
2632,1846
2633,1847
2634,2179
2635,2432
2636,2193
2637,2109
2638,2089
2639,1901
2640,1692
2641,1627
2642,1678
2643,1772
2644,1808
2645,1870
2646,1840
2647,1790
2648,1773
2649,1744
2650,1751
2651,1797
2652,1808
2653,1818
2654,1900
2655,1909
2656,1970
2657,1946
2658,1953
2659,1079
2660,1510
2661,1849
2662,1906
2663,1947
2664,1862
2665,2059
2666,2407
2667,2247
2668,2099
2669,1942
2670,1869
2671,1732
2672,1637
2673,1682
2674,1768
2675,1840
2676,1853
2677,1854
2678,1923
2679,1835
2680,1809
2681,1815
2682,1798
2683,1777
2684,1776
2685,1825
2686,1807
2687,1883
2688,1891
2689,1962
2690,1351
2691,1356
2692,1847
2693,1903
2694,1943
2695,1945
2696,2079
2697,2478
2698,2291
2699,2098
2700,1953
2701,1808
2702,1573
2703,1515
2704,1626
2705,1774
2706,1854
2707,1871
2708,1890
2709,1888
2710,1873
2711,1891
2712,1872
2713,1836
2714,1847
2715,1799
2716,1791
2717,1803
2718,1813
2719,1836
2720,1856
2721,2249
2722,1149
2723,1846
2724,1900
2725,1936
2726,1948
2727,2015
2728,2522
2729,2475
2730,2160
2731,2000
2732,1842
2733,1623
2734,1488
2735,1523
2736,1627
2737,1717
2738,1805
2739,1903
2740,1891
2741,1894
2742,1902
2743,1872
2744,1903
2745,1959
2746,1895
2747,1905
2748,1808
2749,1793
2750,1805
2751,1823
2752,2675
2753,928
2754,1699
2755,1876
2756,1936
2757,1965
2758,2023
2759,2440
2760,2490
2761,2302
2762,2065
2763,1968
2764,1713
2765,1500
2766,1479
2767,1594
2768,1669
2769,1753
2770,1742
2771,1866
2772,1911
2773,1925
2774,1917
2775,1925
2776,1902
2777,1910
2778,1979
2779,1903
2780,1870
2781,1820
2782,1807
2783,1780
2784,976
2785,1424
2786,1697
2787,1852
2788,1971
2789,2019
2790,2327
2791,2544
2792,2338
2793,2131
2794,2003
2795,1835
2796,1619
2797,1535
2798,1576
2799,1638
2800,1686
2801,1759
2802,1733
2803,1771
2804,1904
2805,1904
2806,1927
2807,1934
2808,1943
2809,1929
2810,1923
2811,1986
2812,1872
2813,1823
2814,1856
2815,1248
2816,1203
2817,1725
2818,1781
2819,1845
2820,1902
2821,2167
2822,2525
2823,2415
2824,2228
2825,2085
2826,1879
2827,1683
2828,1668
2829,1707
2830,1723
2831,1695
2832,1712
2833,1739
2834,1743
2835,1705
2836,1718
2837,1849
2838,1966
2839,1964
2840,1947
2841,1973
2842,1942
2843,1917
2844,1876
2845,1923
2846,1850
2847,1870
2848,1791
2849,1778
2850,1770
2851,1791
2852,1794
2853,1791
2854,1904
2855,1920
2856,1958
2857,1933
2858,1936
2859,1918
2860,1897
2861,1939
2862,1902
2863,1883
2864,1829
2865,1774
2866,1772
2867,1786
2868,1803
2869,1787
2870,1788
2871,1914
2872,1936
2873,1939
2874,1922
2875,1926
2876,1906
2877,1891
2878,1963
2879,1874
2880,1861
2881,1787
2882,1777
2883,1769
2884,1785
2885,1735
2886,1787
2887,1895
2888,1973
2889,1956
2890,1933
2891,1932
2892,1909
2893,1886
2894,1926
2895,1911
2896,1891
2897,1842
2898,1794
2899,1776
2900,1769
2901,1796
2902,1776
2903,1764
2904,1890
2905,1951
2906,1936
2907,1919
2908,1914
2909,1917
2910,1900
2911,1935
2912,1858
2913,1853
2914,1831
2915,1791
2916,1779
2917,1770
2918,1797
2919,1738
2920,1879
2921,1905
2922,1942
2923,1940
2924,1925
2925,1925
2926,1901
2927,1899
2928,1929
2929,1904
2930,1856
2931,1808
2932,1781
2933,1757
2934,1771
2935,1777
2936,1782
2937,1814
2938,1874
2939,1951
2940,1936
2941,1930
2942,1911
2943,1899
2944,1874
2945,1907
2946,1862
2947,1805
2948,1795
2949,1776
2950,1771
2951,1803
2952,1770
2953,1802
2954,1887
2955,1978
2956,1954
2957,1936
2958,1925
2959,1913
2960,1905
2961,1889
2962,1935
2963,1838
2964,1820
2965,1776
2966,1763
2967,1776
2968,1799
2969,1781
2970,1826
2971,1919
2972,1945
2973,1929
2974,1936
2975,1929
2976,1904
2977,1891
2978,1936
2979,1846
2980,1875
2981,1781
2982,1776
2983,1759
2984,1782
2985,1741
2986,1773
2987,1852
2988,1931
2989,1946
2990,1938
2991,1923
2992,1920
2993,1896
2994,1874
2995,1904
2996,1840
2997,1847
2998,1779
2999,1774
3000,1772
3001,1806
3002,1818
3003,1814
3004,1921
3005,1885
3006,1950
3007,1929
3008,1927
3009,1917
3010,1902
3011,1927
3012,1901
3013,1872
3014,1827
3015,1781
3016,1772
3017,1773
3018,1795
3019,1778
3020,1835
3021,1928
3022,1950
3023,1946
3024,1935
3025,1919
3026,1894
3027,1885
3028,1907
3029,1827
3030,1799
3031,1796
3032,1786
3033,1769
3034,1778
3035,1791
3036,1789
3037,1903
3038,1963
3039,1941
3040,1925
3041,1931
3042,1931
3043,1892
3044,1901
3045,1909
3046,1885
3047,1840
3048,1776
3049,1776
3050,1776
3051,1780
3052,1755
3053,1815
3054,1904
3055,1921
3056,1952
3057,1909
3058,1926
3059,1903
3060,1899
3061,1943
3062,1914
3063,1891
3064,1831
3065,1779
3066,1771
3067,1773
3068,1793
3069,1770
3070,1840
3071,1870
3072,1935
3073,1938
3074,1923
3075,1935
3076,1898
3077,1880
3078,1927
3079,1849
3080,1843
3081,1798
3082,1781
3083,1782
3084,1780
3085,1776
3086,1766
3087,1845
3088,1919
3089,1941
3090,1930
3091,1925
3092,1920
3093,1894
3094,1889
3095,1911
3096,1897
3097,1855
3098,1781
3099,1755
3100,1779
3101,1797
3102,1781
3103,1754
3104,1840
3105,1922
3106,1956
3107,1927
3108,1917
3109,1914
3110,1903
3111,1935
3112,1923
3113,1886
3114,1824
3115,1782
3116,1760
3117,1783
3118,1795
3119,1747
3120,1829
3121,1904
3122,1934
3123,1945
3124,1928
3125,1923
3126,1899
3127,1898
3128,1936
3129,1887
3130,1843
3131,1792
3132,1776
3133,1751
3134,1792
3135,1813
3136,1776
3137,1872
3138,1923
3139,1941
3140,1929
3141,1919
3142,1919
3143,1883
3144,1903
3145,1867
3146,1856
3147,1856
3148,1785
3149,1763
3150,1764
3151,1808
3152,1774
3153,1840
3154,1929
3155,1915
3156,1949
3157,1920
3158,1927
3159,1905
3160,1898
3161,1926
3162,1921
3163,1810
3164,1839
3165,1782
3166,1779
3167,1777
3168,1801
3169,1787
3170,1839
3171,1889
3172,1933
3173,1933
3174,1920
3175,1922
3176,1892
3177,1885
3178,1920
3179,1904
3180,1884
3181,1801
3182,1776
3183,1774
3184,1777
3185,1808
3186,1792
3187,1854
3188,1929
3189,1942
3190,1919
3191,1927
3192,1927
3193,1893
3194,1883
3195,1885
3196,1898
3197,1844
3198,1771
3199,1776
3200,1775
3201,1815
3202,1749
3203,1807
3204,1901
3205,1930
3206,1946
3207,1919
3208,1922
3209,1901
3210,1890
3211,1926
3212,1879
3213,1863
3214,1840
3215,1783
3216,1776
3217,1787
3218,1817
3219,1791
3220,1840
3221,1930
3222,1970
3223,1936
3224,1933
3225,1920
3226,1902
3227,1895
3228,1902
3229,1867
3230,1867
3231,1807
3232,1785
3233,1785
3234,1787
3235,1807
3236,1831
3237,1891
3238,1882
3239,1922
3240,1921
3241,1924
3242,1901
3243,1888
3244,1903
3245,1919
3246,1824
3247,1840
3248,1789
3249,1776
3250,1777
3251,1797
3252,1734
3253,1802
3254,1887
3255,1974
3256,1942
3257,1919
3258,1922
3259,1904
3260,1895
3261,1906
3262,1921
3263,1830
3264,1814
3265,1772
3266,1772
3267,1775
3268,1786
3269,1807
3270,1841
3271,1925
3272,1938
3273,1938
3274,1933
3275,1910
3276,1889
3277,1887
3278,1899
3279,1871
3280,1848
3281,1811
3282,1777
3283,1778
3284,1791
3285,1785
3286,1729
3287,1862
3288,1941
3289,1941
3290,1929
3291,1931
3292,1909
3293,1890
3294,1889
3295,1889
3296,1895
3297,1839
3298,1777
3299,1774
3300,1776
3301,1808
3302,1836
3303,1803
3304,1883
3305,1936
3306,1947
3307,1924
3308,1933
3309,1919
3310,1891
3311,1905
3312,1926
3313,1855
3314,1809
3315,1799
3316,1758
3317,1779
3318,1808
3319,1800
3320,1851
3321,1923
3322,1970
3323,1932
3324,1915
3325,1921
3326,1891
3327,1876
3328,1942
3329,1867
3330,1839
3331,1791
3332,1776
3333,1773
3334,1791
3335,1808
3336,1810
3337,1883
3338,1875
3339,1941
3340,1921
3341,1930
3342,1921
3343,1889
3344,1883
3345,1930
3346,1871
3347,1867
3348,1787
3349,1791
3350,1773
3351,1806
3352,1806
3353,1821
3354,1895
3355,1930
3356,1936
3357,1919
3358,1920
3359,1904
3360,1886
3361,1927
3362,1895
3363,1879
3364,1808
3365,1776
3366,1779
3367,1791
3368,1813
3369,1783
3370,1885
3371,1908
3372,1961
3373,1943
3374,1922
3375,1931
3376,1891
3377,1887
3378,1926
3379,1871
3380,1849
3381,1796
3382,1793
3383,1764
3384,1789
3385,1817
3386,1723
3387,1857
3388,1942
3389,1956
3390,1921
3391,1933
3392,1918
3393,1886
3394,1843
3395,1911
3396,1854
3397,1801
3398,1789
3399,1767
3400,1780
3401,1797
3402,1817
3403,1807
3404,1920
3405,1941
3406,1954
3407,1917
3408,1929
3409,1906
3410,1901
3411,1895
3412,1889
3413,1847
3414,1818
3415,1781
3416,1766
3417,1777
3418,1799
3419,1793
3420,1865
3421,1911
3422,1925
3423,1938
3424,1928
3425,1910
3426,1905
3427,1897
3428,1951
3429,1900
3430,1861
3431,1808
3432,1779
3433,1776
3434,1786
3435,1795
3436,1774
3437,1882
3438,1915
3439,1937
3440,1927
3441,1930
3442,1909
3443,1892
3444,1851
3445,1909
3446,1872
3447,1870
3448,1783
3449,1767
3450,1773
3451,1802
3452,1806
3453,1783
3454,1885
3455,1971
3456,1954
3457,1927
3458,1923
3459,1910
3460,1882
3461,1936
3462,1879
3463,1840
3464,1826
3465,1785
3466,1777
3467,1782
3468,1824
3469,1792
3470,1840
3471,1867
3472,1967
3473,1936
3474,1931
3475,1904
3476,1891
3477,1872
3478,1907
3479,1878
3480,1834
3481,1808
3482,1777
3483,1776
3484,1794
3485,1778
3486,1831
3487,1872
3488,1931
3489,1930
3490,1918
3491,1922
3492,1914
3493,1902
3494,1885
3495,1907
3496,1859
3497,1866
3498,1794
3499,1776
3500,1777
3501,1810
3502,1813
3503,1811
3504,1867
3505,1966
3506,1923
3507,1913
3508,1914
3509,1897
3510,1887
3511,1935
3512,1890
3513,1852
3514,1840
3515,1797
3516,1774
3517,1783
3518,1786
3519,1804
3520,1865
3521,1937
3522,1939
3523,1935
3524,1934
3525,1914
3526,1898
3527,1885
3528,1901
3529,1897
3530,1844
3531,1808
3532,1790
3533,1776
3534,1802
3535,1799
3536,1770
3537,1859
3538,1953
3539,1939
3540,1925
3541,1926
3542,1910
3543,1888
3544,1904
3545,1895
3546,1875
3547,1842
3548,1791
3549,1776
3550,1790
3551,1798
3552,1785
3553,1808
3554,1895
3555,1873
3556,1953
3557,1927
3558,1918
3559,1906
3560,1892
3561,1931
3562,1893
3563,1840
3564,1819
3565,1789
3566,1770
3567,1781
3568,1803
3569,1753
3570,1842
3571,1923
3572,1923
3573,1933
3574,1930
3575,1920
3576,1894
3577,1879
3578,1951
3579,1891
3580,1843
3581,1803
3582,1789
3583,1766
3584,1787
3585,1827
3586,1750
3587,1862
3588,1927
3589,1933
3590,1926
3591,1921
3592,1906
3593,1895
3594,1879
3595,1902
3596,1850
3597,1776
3598,1783
3599,1767
3600,1774
3601,1808
3602,1779
3603,1811
3604,1888
3605,1978
3606,1949
3607,1909
3608,1920
3609,1910
3610,1886
3611,1954
3612,1879
3613,1872
3614,1827
3615,1785
3616,1773
3617,1777
3618,1805
3619,1782
3620,1843
3621,1925
3622,1879
3623,1936
3624,1911
3625,1904
3626,1878
3627,1883
3628,1919
3629,1829
3630,1870
3631,1799
3632,1779
3633,1779
3634,1803
3635,1798
3636,1808
3637,1895
3638,1943
3639,1959
3640,1925
3641,1927
3642,1904
3643,1895
3644,1872
3645,1902
3646,1854
3647,1845
3648,1788
3649,1762
3650,1776
3651,1801
3652,1819
3653,1812
3654,1877
3655,1967
3656,1949
3657,1921
3658,1926
3659,1915
3660,1882
3661,1929
3662,1854
3663,1847
3664,1822
3665,1781
3666,1767
3667,1792
3668,1810
3669,1794
3670,1835
3671,1912
3672,1958
3673,1936
3674,1920
3675,1915
3676,1895
3677,1883
3678,1921
3679,1891
3680,1808
3681,1795
3682,1779
3683,1776
3684,1793
3685,1774
3686,1744
3687,1863
3688,1942
3689,1936
3690,1919
3691,1934
3692,1907
3693,1894
3694,1880
3695,1903
3696,1861
3697,1843
3698,1791
3699,1772
3700,1785
3701,1815
3702,1795
3703,1814
3704,1837
3705,1936
3706,1933
3707,1920
3708,1917
3709,1898
3710,1886
3711,1963
3712,1893
3713,1846
3714,1803
3715,1776
3716,1769
3717,1776
3718,1805
3719,1778
3720,1840
3721,1929
3722,1965
3723,1936
3724,1930
3725,1910
3726,1908
3727,1888
3728,1943
3729,1840
3730,1840
3731,1795
3732,1783
3733,1776
3734,1795
3735,1786
3736,1787
3737,1872
3738,1949
3739,1942
3740,1936
3741,1927
3742,1918
3743,1895
3744,1890
3745,1879
3746,1807
3747,1859
3748,1781
3749,1774
3750,1788
3751,1805
3752,1786
3753,1818
3754,1913
3755,1959
3756,1935
3757,1926
3758,1926
3759,1901
3760,1893
3761,1930
3762,1833
3763,1820
3764,1823
3765,1782
3766,1775
3767,1781
3768,1821
3769,1794
3770,1842
3771,1917
3772,1957
3773,1937
3774,1923
3775,1904
3776,1878
3777,1867
3778,1938
3779,1878
3780,1853
3781,1795
3782,1780
3783,1776
3784,1792
3785,1775
3786,1782
3787,1879
3788,1897
3789,1940
3790,1925
3791,1925
3792,1911
3793,1895
3794,1893
3795,1903
3796,1856
3797,1859
3798,1787
3799,1771
3800,1779
3801,1795
3802,1778
3803,1806
3804,1889
3805,1879
3806,1934
3807,1918
3808,1926
3809,1897
3810,1890
3811,1968
3812,1840
3813,1892
3814,1823
3815,1766
3816,1760
3817,1779
3818,1838
3819,1727
3820,1859
3821,1909
3822,1891
3823,1936
3824,1929
3825,1915
3826,1899
3827,1883
3828,1953
3829,1886
3830,1822
3831,1787
3832,1778
3833,1776
3834,1787
3835,1822
3836,1799
3837,1855
3838,1935
3839,1927
3840,1927
3841,1923
3842,1915
3843,1888
3844,1891
3845,2207
3846,1046
3847,1811
3848,1930
3849,1978
3850,2007
3851,2079
3852,2127
3853,2062
3854,2035
3855,2061
3856,2095
3857,2077
3858,1973
3859,1822
3860,1659
3861,1602
3862,1535
3863,1610
3864,1660
3865,1723
3866,1734
3867,1743
3868,1792
3869,1772
3870,1843
3871,1858
3872,1921
3873,1926
3874,1911
3875,1921
3876,2559
3877,916
3878,1757
3879,1972
3880,2155
3881,2142
3882,2115
3883,2098
3884,2031
3885,1927
3886,1923
3887,2031
3888,2031
3889,1958
3890,1801
3891,1632
3892,1535
3893,1520
3894,1639
3895,1779
3896,1879
3897,1872
3898,1792
3899,1778
3900,1767
3901,1808
3902,1765
3903,1825
3904,1885
3905,1913
3906,1966
3907,1951
3908,994
3909,1674
3910,1981
3911,2199
3912,2271
3913,2254
3914,2155
3915,2033
3916,1903
3917,1875
3918,1914
3919,1814
3920,1770
3921,1685
3922,1644
3923,1601
3924,1678
3925,1797
3926,1871
3927,1894
3928,1945
3929,1885
3930,1841
3931,1800
3932,1787
3933,1790
3934,1817
3935,1807
3936,1771
3937,1920
3938,1897
3939,1216
3940,1456
3941,1945
3942,2062
3943,2144
3944,2191
3945,2256
3946,2105
3947,2017
3948,2014
3949,1898
3950,1776
3951,1705
3952,1564
3953,1523
3954,1623
3955,1781
3956,1876
3957,1923
3958,1936
3959,1912
3960,1903
3961,1903
3962,1904
3963,1857
3964,1827
3965,1792
3966,1794
3967,1804
3968,1783
3969,1808
3970,1761
3971,1231
3972,1855
3973,1943
3974,1974
3975,2035
3976,2096
3977,2106
3978,2209
3979,2283
3980,2154
3981,1937
3982,1807
3983,1650
3984,1598
3985,1535
3986,1584
3987,1761
3988,1866
3989,1911
3990,1898
3991,1907
3992,1887
3993,1866
3994,1867
3995,1887
3996,1837
3997,1925
3998,1825
3999,1808
4000,1801
4001,2545
4002,929
4003,1681
4004,1872
4005,1978
4006,2070
4007,2097
4008,2149
4009,2287
4010,2317
4011,2189
4012,2054
4013,1883
4014,1683
4015,1578
4016,1533
4017,1625
4018,1710
4019,1774
4020,1799
4021,1840
4022,1951
4023,1905
4024,1913
4025,1903
4026,1910
4027,1914
4028,1943
4029,1889
4030,1821
4031,1808
4032,2041
4033,895
4034,1562
4035,1769
4036,1823
4037,1979
4038,2112
4039,2163
4040,2328
4041,2306
4042,2134
4043,1999
4044,1904
4045,1762
4046,1647
4047,1638
4048,1662
4049,1702
4050,1733
4051,1753
4052,1755
4053,1794
4054,1822
4055,1968
4056,1940
4057,1924
4058,1925
4059,1915
4060,1909
4061,1926
4062,1910
4063,1880
4064,1008
4065,1348
4066,1728
4067,1805
4068,1891
4069,1936
4070,1961
4071,2274
4072,2351
4073,2219
4074,2084
4075,1969
4076,1811
4077,1683
4078,1746
4079,1743
4080,1821
4081,1771
4082,1750
4083,1751
4084,1775
4085,1772
4086,1775
4087,1879
4088,1933
4089,1968
4090,1936
4091,1945
4092,1934
4093,1915
4094,1920
4095,1535
4096,1195
4097,1744
4098,1776
4099,1805
4100,1883
4101,1942
4102,2082
4103,2227
4104,2230
4105,2153
4106,2018
4107,1876
4108,1742
4109,1697
4110,1751
4111,1872
4112,1872
4113,1827
4114,1783
4115,1760
4116,1737
4117,1766
4118,1791
4119,1775
4120,1840
4121,1920
4122,1951
4123,1952
4124,1946
4125,1935
4126,2081
4127,999
4128,1849
4129,1883
4130,1870
4131,1883
4132,1904
4133,2043
4134,2223
4135,2121
4136,1943
4137,1927
4138,1984
4139,1833
4140,1767
4141,1809
4142,1870
4143,1870
4144,1882
4145,1904
4146,1866
4147,1883
4148,1710
4149,1735
4150,1747
4151,1728
4152,1716
4153,1774
4154,1854
4155,1966
4156,2000
4157,2769
4158,1319
4159,1844
4160,1878
4161,1882
4162,1935
4163,1925
4164,1932
4165,2194
4166,2092
4167,1974
4168,1917
4169,1758
4170,1674
4171,1709
4172,1770
4173,1855
4174,1887
4175,1924
4176,1855
4177,1886
4178,1931
4179,1855
4180,1840
4181,1775
4182,1730
4183,1754
4184,1776
4185,1744
4186,1707
4187,1854
4188,1926
4189,1254
4190,1825
4191,1893
4192,1911
4193,1930
4194,1965
4195,2047
4196,2240
4197,2166
4198,2032
4199,1899
4200,1805
4201,1675
4202,1535
4203,1569
4204,1718
4205,1844
4206,1919
4207,1919
4208,1941
4209,1921
4210,1885
4211,1963
4212,1897
4213,1802
4214,1826
4215,1767
4216,1767
4217,1770
4218,1797
4219,1786
4220,1203
4221,1635
4222,1823
4223,1926
4224,1939
4225,2022
4226,2037
4227,2271
4228,2326
4229,2158
4230,1970
4231,1877
4232,1701
4233,1535
4234,1535
4235,1605
4236,1677
4237,1715
4238,1903
4239,1936
4240,1875
4241,1936
4242,1918
4243,1863
4244,1951
4245,1937
4246,1839
4247,1861
4248,1785
4249,1790
4250,1770
4251,1778
4252,1326
4253,1703
4254,1809
4255,1959
4256,2001
4257,2064
4258,2288
4259,2340
4260,2227
4261,2194
4262,2035
4263,1875
4264,1633
4265,1535
4266,1568
4267,1642
4268,1712
4269,1703
4270,1765
4271,1851
4272,1938
4273,1952
4274,1951
4275,1953
4276,1919
4277,1919
4278,1955
4279,1905
4280,1845
4281,1782
4282,2766
4283,1206
4284,1696
4285,1691
4286,1678
4287,1827
4288,1967
4289,2201
4290,2371
4291,2320
4292,2197
4293,2099
4294,1921
4295,1762
4296,1654
4297,1632
4298,1650
4299,1659
4300,1671
4301,1743
4302,1657
4303,1721
4304,1821
4305,1875
4306,1961
4307,1965
4308,1931
4309,1948
4310,1902
4311,1972
4312,1904
4313,2042
4314,1197
4315,1683
4316,1658
4317,1741
4318,1791
4319,1737
4320,1986
4321,2287
4322,2255
4323,2236
4324,2115
4325,1997
4326,1777
4327,1644
4328,1783
4329,1784
4330,1738
4331,1724
4332,1727
4333,1709
4334,1744
4335,1680
4336,1716
4337,1814
4338,1910
4339,1969
4340,1968
4341,1973
4342,1963
4343,1978
4344,1911
4345,1120
4346,1646
4347,1776
4348,1742
4349,1789
4350,1817
4351,1951
4352,2143
4353,2119
4354,2174
4355,2149
4356,2047
4357,1849
4358,1787
4359,1744
4360,1784
4361,1906
4362,1827
4363,1842
4364,1775
4365,1728
4366,1728
4367,1741
4368,1776
4369,1739
4370,1807
4371,1904
4372,1996
4373,1980
4374,1967
4375,1979
4376,1483
4377,1605
4378,1931
4379,1877
4380,1821
4381,1817
4382,1878
4383,2109
4384,2169
4385,2070
4386,1927
4387,1918
4388,1863
4389,1779
4390,1779
4391,1799
4392,1828
4393,1850
4394,1827
4395,1876
4396,1829
4397,1782
4398,1754
4399,1739
4400,1744
4401,1793
4402,1808
4403,1741
4404,1826
4405,1899
4406,1984
4407,2157
4408,1490
4409,1902
4410,1905
4411,1939
4412,1966
4413,1955
4414,2105
4415,2131
4416,2039
4417,1982
4418,1907
4419,1698
4420,1600
4421,1706
4422,1761
4423,1838
4424,1890
4425,1906
4426,1886
4427,1865
4428,1923
4429,1833
4430,1840
4431,1791
4432,1763
4433,1747
4434,1777
4435,1744
4436,1682
4437,1847
4438,2241
4439,1328
4440,1887
4441,1950
4442,1957
4443,1977
4444,2015
4445,2133
4446,2223
4447,2113
4448,2013
4449,1899
4450,1737
4451,1630
4452,1534
4453,1616
4454,1735
4455,1843
4456,1922
4457,1930
4458,1927
4459,1905
4460,1885
4461,1959
4462,1939
4463,1879
4464,1817
4465,1782
4466,1754
4467,1769
4468,1802
4469,1749
4470,1789
4471,1841
4472,1953
4473,1978
4474,1975
4475,1973
4476,1947
4477,1915
4478,1950
4479,1914
4480,1792
4481,1788
4482,1771
4483,1760
4484,1794
4485,1749
4486,1733
4487,1814
4488,1909
4489,1964
4490,1983
4491,1955
4492,1945
4493,1937
4494,1943
4495,1949
4496,1842
4497,1831
4498,1765
4499,1760
4500,1735
4501,1782
4502,1767
4503,1783
4504,1814
4505,1963
4506,1967
4507,1963
4508,1970
4509,1937
4510,1915
4511,2027
4512,1913
4513,1872
4514,1809
4515,1778
4516,1759
4517,1771
4518,1776
4519,1727
4520,1808
4521,1894
4522,1923
4523,1979
4524,1967
4525,1954
4526,1921
4527,1906
4528,1920
4529,1872
4530,1828
4531,1783
4532,1762
4533,1750
4534,1787
4535,1742
4536,1719
4537,1827
4538,1926
4539,1975
4540,1971
4541,1968
4542,1957
4543,1933
4544,1945
4545,1918
4546,1867
4547,1840
4548,1780
4549,1757
4550,1755
4551,1763
4552,1714
4553,1748
4554,1842
4555,1946
4556,1953
4557,1957
4558,1959
4559,1919
4560,1920
4561,1961
4562,1920
4563,1855
4564,1811
4565,1779
4566,1744
4567,1765
4568,1795
4569,1706
4570,1779
4571,1839
4572,1936
4573,1958
4574,1973
4575,1940
4576,1934
4577,1926
4578,1952
4579,1808
4580,1874
4581,1803
4582,1745
4583,1751
4584,1767
4585,1706
4586,1747
4587,1851
4588,1907
4589,1965
4590,1968
4591,1931
4592,1949
4593,1935
4594,1895
4595,1904
4596,1818
4597,1834
4598,1787
4599,1744
4600,1723
4601,1781
4602,1745
4603,1764
4604,1857
4605,1957
4606,1954
4607,1956
4608,1960
4609,1951
4610,1935
4611,1908
4612,1872
4613,1797
4614,1797
4615,1778
4616,1728
4617,1759
4618,1757
4619,1687
4620,1780
4621,1858
4622,1903
4623,1970
4624,1989
4625,1957
4626,1929
4627,1933
4628,1940
4629,1889
4630,1840
4631,1801
4632,1768
4633,1744
4634,1767
4635,1718
4636,1728
4637,1794
4638,1883
4639,1953
4640,1968
4641,1979
4642,1947
4643,1920
4644,1923
4645,1920
4646,1851
4647,1887
4648,1776
4649,1751
4650,1762
4651,1787
4652,1776
4653,1758
4654,1872
4655,1946
4656,1973
4657,1963
4658,1968
4659,1935
4660,1922
4661,1951
4662,1882
4663,1885
4664,1805
4665,1770
4666,1766
4667,1767
4668,1810
4669,1742
4670,1787
4671,1914
4672,1937
4673,1963
4674,1961
4675,1953
4676,1913
4677,1904
4678,1951
4679,1883
4680,1869
4681,1799
4682,1751
4683,1769
4684,1785
4685,1773
4686,1675
4687,1847
4688,1918
4689,1957
4690,1964
4691,1968
4692,1943
4693,1923
4694,1915
4695,1925
4696,1861
4697,1858
4698,1781
4699,1762
4700,1758
4701,1791
4702,1747
4703,1761
4704,1842
4705,1934
4706,1962
4707,1936
4708,1954
4709,1936
4710,1920
4711,1968
4712,1872
4713,1855
4714,1787
4715,1775
4716,1742
4717,1776
4718,1777
4719,1687
4720,1797
4721,1895
4722,1958
4723,1951
4724,1964
4725,1953
4726,1917
4727,1907
4728,1948
4729,1905
4730,1885
4731,1776
4732,1760
4733,1755
4734,1772
4735,1751
4736,1722
4737,1839
4738,1909
4739,1952
4740,1931
4741,1946
4742,1942
4743,1926
4744,1931
4745,1919
4746,1883
4747,1855
4748,1776
4749,1744
4750,1757
4751,1774
4752,1789
4753,1747
4754,1817
4755,1907
4756,1977
4757,1955
4758,1957
4759,1937
4760,1923
4761,1957
4762,1943
4763,1855
4764,1815
4765,1763
4766,1745
4767,1761
4768,1712
4769,1744
4770,1793
4771,1871
4772,1952
4773,1954
4774,1970
4775,1960
4776,1919
4777,1903
4778,1961
4779,1867
4780,1845
4781,1789
4782,1766
4783,1733
4784,1797
4785,1773
4786,1735
4787,1819
4788,1945
4789,1963
4790,1953
4791,1966
4792,1945
4793,1921
4794,1893
4795,1916
4796,1863
4797,1796
4798,1759
4799,1751
4800,1765
4801,1783
4802,1787
4803,1711
4804,1891
4805,1953
4806,1962
4807,1962
4808,1953
4809,1935
4810,1912
4811,1973
4812,1911
4813,1843
4814,1809
4815,1771
4816,1739
4817,1760
4818,1797
4819,1715
4820,1809
4821,1898
4822,1940
4823,1972
4824,1957
4825,1962
4826,1910
4827,1894
4828,1931
4829,1918
4830,1841
4831,1778
4832,1773
4833,1744
4834,1763
4835,1778
4836,1707
4837,1872
4838,1911
4839,1937
4840,1967
4841,1946
4842,1957
4843,1923
4844,1893
4845,1920
4846,1875
4847,1770
4848,1776
4849,1758
4850,1761
4851,1782
4852,1754
4853,1773
4854,1861
4855,1864
4856,1953
4857,1946
4858,1967
4859,1925
4860,1920
4861,1954
4862,1855
4863,1850
4864,1808
4865,1776
4866,1753
4867,1747
4868,1794
4869,1719
4870,1807
4871,1932
4872,1967
4873,1984
4874,1964
4875,1952
4876,1923
4877,1912
4878,1946
4879,1868
4880,1855
4881,1779
4882,1764
4883,1769
4884,1786
4885,1747
4886,1731
4887,1782
4888,1936
4889,1947
4890,1968
4891,1967
4892,1947
4893,1957
4894,1926
4895,1904
4896,1946
4897,1831
4898,1764
4899,1797
4900,1749
4901,1791
4902,1759
4903,1709
4904,1856
4905,1936
4906,1963
4907,1955
4908,1969
4909,1917
4910,1923
4911,1979
4912,1903
4913,1845
4914,1823
4915,1711
4916,1749
4917,1761
4918,1719
4919,1703
4920,1776
4921,1873
4922,1961
4923,1943
4924,1952
4925,1936
4926,1936
4927,1872
4928,1920
4929,1911
4930,1776
4931,1770
4932,1761
4933,1719
4934,1764
4935,1794
4936,1744
4937,1835
4938,1921
4939,1964
4940,1952
4941,1953
4942,1955
4943,1907
4944,1942
4945,1907
4946,1878
4947,1821
4948,1757
4949,1725
4950,1758
4951,1782
4952,1731
4953,1755
4954,1883
4955,1939
4956,1969
4957,1963
4958,1963
4959,1937
4960,1920
4961,1939
4962,1892
4963,1808
4964,1787
4965,1774
4966,1744
4967,1758
4968,1766
4969,1739
4970,1799
4971,1908
4972,1959
4973,1947
4974,1952
4975,1947
4976,1917
4977,1901
4978,1920
4979,1872
4980,1854
4981,1805
4982,1765
4983,1751
4984,1783
4985,1840
4986,1721
4987,1840
4988,2013
4989,1957
4990,1969
4991,1958
4992,1954
4993,1906
4994,1934
4995,1923
4996,1907
4997,1847
4998,1780
4999,1765
5000,1758
5001,1791
5002,1735
5003,1746
5004,1905
5005,1974
5006,1950
5007,1935
5008,1936
5009,1930
5010,1931
5011,1951
5012,1862
5013,1855
5014,1830
5015,1767
5016,1760
5017,1760
5018,1760
5019,1769
5020,1789
5021,1899
5022,1956
5023,1947
5024,1968
5025,1942
5026,1915
5027,1919
5028,1939
5029,1920
5030,1785
5031,1793
5032,1758
5033,1745
5034,1774
5035,1777
5036,1718
5037,1840
5038,1870
5039,1966
5040,1942
5041,1955
5042,1938
5043,1913
5044,1927
5045,1932
5046,1904
5047,1840
5048,1783
5049,1769
5050,1746
5051,1785
5052,1744
5053,1760
5054,1871
5055,1883
5056,1962
5057,1943
5058,1966
5059,1935
5060,1913
5061,1937
5062,1907
5063,1820
5064,1820
5065,1771
5066,1734
5067,1759
5068,1783
5069,1743
5070,1793
5071,1925
5072,1945
5073,1954
5074,1956
5075,1946
5076,1931
5077,1911
5078,1941
5079,1889
5080,1842
5081,1783
5082,1773
5083,1750
5084,1781
5085,1769
5086,1763
5087,1853
5088,1900
5089,1959
5090,1953
5091,1949
5092,1934
5093,1931
5094,1935
5095,1936
5096,1854
5097,1804
5098,1777
5099,1744
5100,1759
5101,1781
5102,1741
5103,1762
5104,1866
5105,1930
5106,1953
5107,1955
5108,1954
5109,1932
5110,1929
5111,1947
5112,1936
5113,1791
5114,1808
5115,1790
5116,1754
5117,1759
5118,1712
5119,1765
5120,1796
5121,1922
5122,1947
5123,1961
5124,1951
5125,1947
5126,1919
5127,1894
5128,1922
5129,1927
5130,1843
5131,1788
5132,1773
5133,1771
5134,1771
5135,1738
5136,1744
5137,1846
5138,1918
5139,1958
5140,1951
5141,1968
5142,1947
5143,1936
5144,1919
5145,1933
5146,1842
5147,1821
5148,1769
5149,1769
5150,1756
5151,1781
5152,1746
5153,1764
5154,1900
5155,1920
5156,1971
5157,1947
5158,1953
5159,1926
5160,1903
5161,1941
5162,1941
5163,1847
5164,1808
5165,1773
5166,1759
5167,1762
5168,1789
5169,1734
5170,1825
5171,1901
5172,1943
5173,1962
5174,1961
5175,1936
5176,1934
5177,1893
5178,1936
5179,1844
5180,1840
5181,1773
5182,1759
5183,1753
5184,1772
5185,1775
5186,1761
5187,1791
5188,1914
5189,1962
5190,1957
5191,1958
5192,1928
5193,1926
5194,1930
5195,1959
5196,1807
5197,1865
5198,1787
5199,1754
5200,1758
5201,1791
5202,1730
5203,1723
5204,1879
5205,1888
5206,1968
5207,1966
5208,1953
5209,1925
5210,1909
5211,1993
5212,1905
5213,1851
5214,1777
5215,1765
5216,1748
5217,1762
5218,1795
5219,1767
5220,1823
5221,1935
5222,1930
5223,1947
5224,1961
5225,1943
5226,1913
5227,1894
5228,1945
5229,1879
5230,1826
5231,1782
5232,1778
5233,1753
5234,1782
5235,1744
5236,1751
5237,1828
5238,1991
5239,1954
5240,1951
5241,1968
5242,1947
5243,1935
5244,1907
5245,1911
5246,1887
5247,1830
5248,1767
5249,1763
5250,1763
5251,1778
5252,1776
5253,1790
5254,1914
5255,1936
5256,1959
5257,1961
5258,1955
5259,1935
5260,1912
5261,1922
5262,1927
5263,1852
5264,1798
5265,1767
5266,1753
5267,1775
5268,1775
5269,1727
5270,1823
5271,1874
5272,1957
5273,1961
5274,1962
5275,1936
5276,1918
5277,1904
5278,1929
5279,1861
5280,1827
5281,1776
5282,1761
5283,1750
5284,1776
5285,1765
5286,1761
5287,1831
5288,1888
5289,1961
5290,1952
5291,1958
5292,1947
5293,1907
5294,1911
5295,1921
5296,1869
5297,1834
5298,1776
5299,1776
5300,1751
5301,1805
5302,1707
5303,1760
5304,1899
5305,1929
5306,1966
5307,1972
5308,1938
5309,1946
5310,1914
5311,1930
5312,1919
5313,1845
5314,1805
5315,1775
5316,1758
5317,1766
5318,1761
5319,1737
5320,1794
5321,1889
5322,1954
5323,1959
5324,1966
5325,1947
5326,1917
5327,1907
5328,1939
5329,1914
5330,1853
5331,1776
5332,1744
5333,1757
5334,1776
5335,1783
5336,1726
5337,1800
5338,1913
5339,1967
5340,1955
5341,1943
5342,1940
5343,1907
5344,1924
5345,1921
5346,1874
5347,1810
5348,1781
5349,1761
5350,1746
5351,1791
5352,1771
5353,1767
5354,1914
5355,1983
5356,1946
5357,1949
5358,1962
5359,1929
5360,1936
5361,1983
5362,1915
5363,1858
5364,1806
5365,1770
5366,1761
5367,1757
5368,1761
5369,1744
5370,1803
5371,1911
5372,1943
5373,1966
5374,1946
5375,1959
5376,1923
5377,1902
5378,1907
5379,1904
5380,1838
5381,1776
5382,1765
5383,1761
5384,1776
5385,1789
5386,1712
5387,1793
5388,1912
5389,1965
5390,1952
5391,1967
5392,1936
5393,1923
5394,1942
5395,1910
5396,1877
5397,1827
5398,1789
5399,1770
5400,1755
5401,1792
5402,1753
5403,1776
5404,1872
5405,1904
5406,1963
5407,1955
5408,1959
5409,1936
5410,1919
5411,1942
5412,1906
5413,1871
5414,1813
5415,1790
5416,1765
5417,1761
5418,1788
5419,1734
5420,1814
5421,1920
5422,1957
5423,1969
5424,1968
5425,1943
5426,1917
5427,1889
5428,1948
5429,1851
5430,1840
5431,1790
5432,1761
5433,1742
5434,1776
5435,1782
5436,1728
5437,1877
5438,1917
5439,1967
5440,1968
5441,1957
5442,1937
5443,1921
5444,1889
5445,1904
5446,1866
5447,1847
5448,1770
5449,1758
5450,1757
5451,1777
5452,1787
5453,1721
5454,1886
5455,1911
5456,1962
5457,1942
5458,1964
5459,1925
5460,1915
5461,1920
5462,1933
5463,1820
5464,1822
5465,1766
5466,1735
5467,1758
5468,1820
5469,1136
5470,1617
5471,1915
5472,2055
5473,2142
5474,2169
5475,2241
5476,2253
5477,2141
5478,2027
5479,1891
5480,1872
5481,1812
5482,1738
5483,1643
5484,1531
5485,1456
5486,1487
5487,1633
5488,1815
5489,1892
5490,1918
5491,1963
5492,1936
5493,1917
5494,1899
5495,1878
5496,1870
5497,1827
5498,1776
5499,1763
5500,1269
5501,1557
5502,1760
5503,1846
5504,2063
5505,2163
5506,2253
5507,2241
5508,2134
5509,1954
5510,1949
5511,2015
5512,1941
5513,1837
5514,1629
5515,1479
5516,1476
5517,1535
5518,1675
5519,1696
5520,1793
5521,1925
5522,1950
5523,1968
5524,1936
5525,1936
5526,1904
5527,1904
5528,1967
5529,1889
5530,1835
5531,2177
5532,1350
5533,1727
5534,1805
5535,1891
5536,1877
5537,2000
5538,2165
5539,2182
5540,2083
5541,2069
5542,2099
5543,1999
5544,1904
5545,1786
5546,1609
5547,1653
5548,1645
5549,1651
5550,1712
5551,1759
5552,1699
5553,1721
5554,1806
5555,1914
5556,1945
5557,1958
5558,1951
5559,1943
5560,1920
5561,1942
5562,2896
5563,1249
5564,1713
5565,1759
5566,1795
5567,1881
5568,2001
5569,1977
5570,1999
5571,2052
5572,2167
5573,2119
5574,2033
5575,1918
5576,1814
5577,1717
5578,1786
5579,1809
5580,1727
5581,1714
5582,1743
5583,1715
5584,1744
5585,1679
5586,1745
5587,1822
5588,1936
5589,1970
5590,1968
5591,1946
5592,1959
5593,1921
5594,1161
5595,1717
5596,1783
5597,1817
5598,1779
5599,1850
5600,1946
5601,1968
5602,1962
5603,2096
5604,2112
5605,2075
5606,2013
5607,1872
5608,1776
5609,1802
5610,1818
5611,1851
5612,1860
5613,1819
5614,1781
5615,1728
5616,1715
5617,1773
5618,1758
5619,1728
5620,1805
5621,1902
5622,1972
5623,1956
5624,1962
5625,1180
5626,1691
5627,1902
5628,1963
5629,1881
5630,1926
5631,1923
5632,1944
5633,2019
5634,2100
5635,1942
5636,1873
5637,1836
5638,1857
5639,1840
5640,1826
5641,1861
5642,1883
5643,1890
5644,1849
5645,1867
5646,1846
5647,1813
5648,1745
5649,1744
5650,1700
5651,1807
5652,1697
5653,1715
5654,1857
5655,1949
5656,1792
5657,1567
5658,1919
5659,1911
5660,1904
5661,1963
5662,2057
5663,2000
5664,2111
5665,2064
5666,1975
5667,1910
5668,1862
5669,1701
5670,1744
5671,1751
5672,1857
5673,1887
5674,1902
5675,1914
5676,1883
5677,1872
5678,1904
5679,1845
5680,1760
5681,1783
5682,1767
5683,1758
5684,1781
5685,1764
5686,1740
5687,2446
5688,1344
5689,1862
5690,1904
5691,1921
5692,1971
5693,2000
5694,2082
5695,2245
5696,2172
5697,2045
5698,1920
5699,1829
5700,1705
5701,1654
5702,1625
5703,1660
5704,1805
5705,1877
5706,1936
5707,1929
5708,1933
5709,1907
5710,1904
5711,1967
5712,1907
5713,1879
5714,1793
5715,1808
5716,1760
5717,1770
5718,2014
5719,1149
5720,1616
5721,1863
5722,1909
5723,1966
5724,2034
5725,2076
5726,2210
5727,2225
5728,2157
5729,2055
5730,1959
5731,1733
5732,1621
5733,1581
5734,1648
5735,1693
5736,1656
5737,1808
5738,1890
5739,1938
5740,1931
5741,1950
5742,1937
5743,1921
5744,1904
5745,1954
5746,1867
5747,1859
5748,1787
5749,1766
5750,1111
5751,1645
5752,1731
5753,1688
5754,1858
5755,1994
5756,2046
5757,2208
5758,2298
5759,2191
5760,2097
5761,2017
5762,1902
5763,1728
5764,1643
5765,1637
5766,1658
5767,1733
5768,1680
5769,1633
5770,1768
5771,1872
5772,1922
5773,1959
5774,1965
5775,1963
5776,1930
5777,1907
5778,1943
5779,1894
5780,1889
5781,1258
5782,1495
5783,1708
5784,1727
5785,1695
5786,1775
5787,1905
5788,2139
5789,2277
5790,2269
5791,2195
5792,2126
5793,1961
5794,1775
5795,1729
5796,1737
5797,1759
5798,1686
5799,1689
5800,1709
5801,1744
5802,1667
5803,1709
5804,1870
5805,1943
5806,1965
5807,1959
5808,1981
5809,1937
5810,1930
5811,1921
5812,2091
5813,1383
5814,1726
5815,1761
5816,1789
5817,1840
5818,1906
5819,1969
5820,2123
5821,2214
5822,2198
5823,2135
5824,2011
5825,1849
5826,1695
5827,1685
5828,1792
5829,1829
5830,1773
5831,1755
5832,1746
5833,1715
5834,1742
5835,1767
5836,1670
5837,1827
5838,1920
5839,1983
5840,1998
5841,1975
5842,1968
5843,2702
5844,1233
5845,1859
5846,1889
5847,1854
5848,1864
5849,1886
5850,1935
5851,2128
5852,1989
5853,2018
5854,2112
5855,2022
5856,1861
5857,1746
5858,1745
5859,1763
5860,1808
5861,1865
5862,1841
5863,1795
5864,1785
5865,1742
5866,1744
5867,1757
5868,1840
5869,1747
5870,1839
5871,1932
5872,1983
5873,1995
5874,1973
5875,1184
5876,1790
5877,1904
5878,1936
5879,1906
5880,1933
5881,1919
5882,2071
5883,2095
5884,2084
5885,1971
5886,1836
5887,1764
5888,1776
5889,1753
5890,1793
5891,1818
5892,1850
5893,1861
5894,1828
5895,1909
5896,1843
5897,1840
5898,1778
5899,1747
5900,1761
5901,1781
5902,1795
5903,1805
5904,1889
5905,1936
5906,1267
5907,1702
5908,1949
5909,1953
5910,1941
5911,2044
5912,2022
5913,2087
5914,2101
5915,2075
5916,2007
5917,1879
5918,1721
5919,1581
5920,1610
5921,1676
5922,1831
5923,1877
5924,1918
5925,1913
5926,1887
5927,1870
5928,1919
5929,1860
5930,1833
5931,1804
5932,1777
5933,1768
5934,1804
5935,1791
5936,1728
5937,1642
5938,1521
5939,1904
5940,1967
5941,1993
5942,2005
5943,2037
5944,2192
5945,2193
5946,2192
5947,2099
5948,1886
5949,1719
5950,1601
5951,1535
5952,1579
5953,1601
5954,1729
5955,1847
5956,1921
5957,1904
5958,1927
5959,1921
5960,1936
5961,1984
5962,1886
5963,1841
5964,1808
5965,1796
5966,1767
5967,1775
5968,2790
5969,1257
5970,1686
5971,1888
5972,1975
5973,2039
5974,2086
5975,2167
5976,2224
5977,2205
5978,2190
5979,2062
5980,1840
5981,1611
5982,1535
5983,1529
5984,1616
5985,1658
5986,1716
5987,1727
5988,1918
5989,1920
5990,1925
5991,1943
5992,1933
5993,1946
5994,1920
5995,1916
5996,1886
5997,1843
5998,1792
5999,1776
6000,1104
6001,1683
6002,1711
6003,1787
6004,1936
6005,1991
6006,2122
6007,2253
6008,2240
6009,2170
6010,2083
6011,1968
6012,1776
6013,1648
6014,1599
6015,1591
6016,1637
6017,1696
6018,1723
6019,1703
6020,1779
6021,1881
6022,1930
6023,1950
6024,1955
6025,1941
6026,1921
6027,1904
6028,1956
6029,1862
6030,1842
6031,1091
6032,1535
6033,1760
6034,1809
6035,1803
6036,1870
6037,1977
6038,2202
6039,2230
6040,2209
6041,2142
6042,1995
6043,1824
6044,1718
6045,1714
6046,1699
6047,1703
6048,1681
6049,1709
6050,1732
6051,1766
6052,1727
6053,1790
6054,1915
6055,1953
6056,1977
6057,1953
6058,1967
6059,1945
6060,1918
6061,1949
6062,1561
6063,1468
6064,1795
6065,1802
6066,1813
6067,1881
6068,1974
6069,1994
6070,2091
6071,2173
6072,2151
6073,2022
6074,1872
6075,1761
6076,1697
6077,1710
6078,1791
6079,1742
6080,1771
6081,1763
6082,1754
6083,1758
6084,1787
6085,1780
6086,1793
6087,1902
6088,1935
6089,1961
6090,1936
6091,1965
6092,1950
6093,1921
6094,1940
6095,1908
6096,1873
6097,1855
6098,1806
6099,1787
6100,1776
6101,1813
6102,1744
6103,1810
6104,1915
6105,1979
6106,1960
6107,1946
6108,1963
6109,1921
6110,1903
6111,1949
6112,1903
6113,1818
6114,1789
6115,1759
6116,1774
6117,1762
6118,1809
6119,1733
6120,1791
6121,1917
6122,1947
6123,1945
6124,1947
6125,1951
6126,1917
6127,1894
6128,1929
6129,1883
6130,1883
6131,1786
6132,1779
6133,1761
6134,1791
6135,1757
6136,1728
6137,1873
6138,1962
6139,1965
6140,1946
6141,1947
6142,1933
6143,1905
6144,1918
6145,1889
6146,1864
6147,1835
6148,1777
6149,1757
6150,1764
6151,1788
6152,1721
6153,1744
6154,1879
6155,1983
6156,1961
6157,1954
6158,1943
6159,1920
6160,1904
6161,1963
6162,1907
6163,1842
6164,1808
6165,1791
6166,1767
6167,1773
6168,1733
6169,1761
6170,1811
6171,1887
6172,1950
6173,1953
6174,1937
6175,1931
6176,1908
6177,1888
6178,1922
6179,1833
6180,1838
6181,1798
6182,1776
6183,1763
6184,1789
6185,1775
6186,1755
6187,1856
6188,1963
6189,1958
6190,1936
6191,1942
6192,1920
6193,1911
6194,1933
6195,1920
6196,1867
6197,1819
6198,1774
6199,1772
6200,1783
6201,1808
6202,1765
6203,1791
6204,1856
6205,1871
6206,1934
6207,1928
6208,1929
6209,1900
6210,1913
6211,1937
6212,1926
6213,1871
6214,1822
6215,1783
6216,1782
6217,1781
6218,1840
6219,1738
6220,1849
6221,1925
6222,1946
6223,1957
6224,1943
6225,1936
6226,1914
6227,1902
6228,1955
6229,1875
6230,1877
6231,1783
6232,1789
6233,1782
6234,1790
6235,1751
6236,1712
6237,1808
6238,1910
6239,1949
6240,1951
6241,1946
6242,1936
6243,1901
6244,1898
6245,1887
6246,1842
6247,1728
6248,1781
6249,1773
6250,1776
6251,1738
6252,1707
6253,1779
6254,1830
6255,1891
6256,1947
6257,1936
6258,1943
6259,1906
6260,1903
6261,1915
6262,1872
6263,1844
6264,1807
6265,1783
6266,1759
6267,1776
6268,1776
6269,1744
6270,1781
6271,1879
6272,1960
6273,1961
6274,1945
6275,1938
6276,1911
6277,1892
6278,1936
6279,1841
6280,1818
6281,1783
6282,1768
6283,1763
6284,1778
6285,1746
6286,1741
6287,1853
6288,1929
6289,1941
6290,1925
6291,1931
6292,1923
6293,1902
6294,1905
6295,1895
6296,1891
6297,1823
6298,1793
6299,1776
6300,1754
6301,1801
6302,1808
6303,1821
6304,1915
6305,1948
6306,1951
6307,1943
6308,1936
6309,1923
6310,1907
6311,1949
6312,1855
6313,1808
6314,1815
6315,1782
6316,1775
6317,1786
6318,1816
6319,1719
6320,1849
6321,1941
6322,1949
6323,1943
6324,1947
6325,1923
6326,1891
6327,1890
6328,1939
6329,1927
6330,1841
6331,1789
6332,1787
6333,1773
6334,1798
6335,1808
6336,1773
6337,1838
6338,1926
6339,1954
6340,1945
6341,1946
6342,1984
6343,1904
6344,1958
6345,1910
6346,1853
6347,1829
6348,1782
6349,1780
6350,1818
6351,1825
6352,1789
6353,1799
6354,1854
6355,1936
6356,1953
6357,1936
6358,1936
6359,1926
6360,1910
6361,1955
6362,1913
6363,1832
6364,1796
6365,1764
6366,1760
6367,1773
6368,1823
6369,1746
6370,1825
6371,1872
6372,1920
6373,1930
6374,1935
6375,1918
6376,1904
6377,1883
6378,1926
6379,1865
6380,1852
6381,1786
6382,1771
6383,1776
6384,1797
6385,1755
6386,1776
6387,1845
6388,1951
6389,1951
6390,1927
6391,1933
6392,1917
6393,1911
6394,1920
6395,1898
6396,1815
6397,1838
6398,1792
6399,1777
6400,1777
6401,1798
6402,1769
6403,1763
6404,1936
6405,1929
6406,1946
6407,1936
6408,1937
6409,1905
6410,1904
6411,1965
6412,1890
6413,1868
6414,1808
6415,1776
6416,1758
6417,1773
6418,1778
6419,1744
6420,1791
6421,1904
6422,1927
6423,1939
6424,1937
6425,1909
6426,1895
6427,1913
6428,1918
6429,1789
6430,1870
6431,1780
6432,1778
6433,1767
6434,1819
6435,1783
6436,1789
6437,1855
6438,1941
6439,1961
6440,1947
6441,1931
6442,1925
6443,1906
6444,1930
6445,1926
6446,1867
6447,1797
6448,1783
6449,1774
6450,1771
6451,1794
6452,1750
6453,1813
6454,1862
6455,1950
6456,1927
6457,1920
6458,1938
6459,1922
6460,1906
6461,1954
6462,1926
6463,1869
6464,1806
6465,1786
6466,1775
6467,1786
6468,1755
6469,1752
6470,1825
6471,1906
6472,1957
6473,1938
6474,1938
6475,1927
6476,1902
6477,1889
6478,1939
6479,1875
6480,1861
6481,1789
6482,1776
6483,1776
6484,1799
6485,1775
6486,1779
6487,1859
6488,1953
6489,1927
6490,1939
6491,1933
6492,1921
6493,1898
6494,1947
6495,1929
6496,1826
6497,1808
6498,1790
6499,1777
6500,1786
6501,1808
6502,1726
6503,1789
6504,1904
6505,1957
6506,1936
6507,1936
6508,1935
6509,1907
6510,1904
6511,1925
6512,1898
6513,1850
6514,1807
6515,1792
6516,1774
6517,1777
6518,1839
6519,1714
6520,1845
6521,1864
6522,1939
6523,1953
6524,1941
6525,1935
6526,1917
6527,1892
6528,1919
6529,1866
6530,1855
6531,1788
6532,1776
6533,1767
6534,1791
6535,1759
6536,1762
6537,1808
6538,1931
6539,1936
6540,1934
6541,1933
6542,1917
6543,1888
6544,1947
6545,1870
6546,1853
6547,1827
6548,1781
6549,1771
6550,1783
6551,1795
6552,1779
6553,1797
6554,1905
6555,1931
6556,1950
6557,1929
6558,1933
6559,1909
6560,1902
6561,1946
6562,1845
6563,1827
6564,1815
6565,1778
6566,1769
6567,1781
6568,1772
6569,1776
6570,1805
6571,1930
6572,1938
6573,1950
6574,1938
6575,1935
6576,1909
6577,1904
6578,1907
6579,1899
6580,1867
6581,1791
6582,1778
6583,1775
6584,1777
6585,1797
6586,1766
6587,1843
6588,1959
6589,1952
6590,1931
6591,1926
6592,1922
6593,1904
6594,1921
6595,1907
6596,1842
6597,1806
6598,1793
6599,1770
6600,1782
6601,1792
6602,1786
6603,1770
6604,1846
6605,1901
6606,1967
6607,1936
6608,1942
6609,1905
6610,1901
6611,1972
6612,1929
6613,1851
6614,1810
6615,1790
6616,1776
6617,1777
6618,1791
6619,1759
6620,1795
6621,1936
6622,1931
6623,1942
6624,1931
6625,1918
6626,1898
6627,1890
6628,1915
6629,1895
6630,1830
6631,1803
6632,1779
6633,1770
6634,1796
6635,1725
6636,1763
6637,1843
6638,1913
6639,1963
6640,1940
6641,1934
6642,1934
6643,1911
6644,1916
6645,1885
6646,1890
6647,1854
6648,1777
6649,1759
6650,1786
6651,1810
6652,1765
6653,1776
6654,1902
6655,1917
6656,1938
6657,1931
6658,1922
6659,1914
6660,1893
6661,1959
6662,1845
6663,1879
6664,1808
6665,1783
6666,1770
6667,1779
6668,1746
6669,1769
6670,1830
6671,1938
6672,1923
6673,1943
6674,1936
6675,1936
6676,1917
6677,1884
6678,1935
6679,1877
6680,1856
6681,1810
6682,1780
6683,1776
6684,1792
6685,1763
6686,1793
6687,1871
6688,1914
6689,1949
6690,1930
6691,1931
6692,1922
6693,1889
6694,1891
6695,1899
6696,1872
6697,1822
6698,1791
6699,1776
6700,1775
6701,1803
6702,1744
6703,1758
6704,1907
6705,1946
6706,1953
6707,1936
6708,1920
6709,1913
6710,1918
6711,1923
6712,1877
6713,1859
6714,1806
6715,1791
6716,1771
6717,1776
6718,1793
6719,1777
6720,1827
6721,1918
6722,1933
6723,1942
6724,1942
6725,1934
6726,1903
6727,1889
6728,1935
6729,1885
6730,1844
6731,1788
6732,1778
6733,1778
6734,1792
6735,1749
6736,1709
6737,1808
6738,1923
6739,1946
6740,1933
6741,1935
6742,1921
6743,1903
6744,1904
6745,1872
6746,1874
6747,1847
6748,1776
6749,1778
6750,1778
6751,1807
6752,1728
6753,1787
6754,1833
6755,1943
6756,1967
6757,1949
6758,1936
6759,1915
6760,1904
6761,1951
6762,1892
6763,1845
6764,1822
6765,1778
6766,1771
6767,1781
6768,1776
6769,1755
6770,1829
6771,1925
6772,1968
6773,1951
6774,1941
6775,1927
6776,1904
6777,1886
6778,1954
6779,1840
6780,1794
6781,1782
6782,1776
6783,1778
6784,1808
6785,1814
6786,1771
6787,1870
6788,1904
6789,1950
6790,1940
6791,1934
6792,1932
6793,1902
6794,1929
6795,1923
6796,1846
6797,1808
6798,1795
6799,1763
6800,1781
6801,1808
6802,1766
6803,1790
6804,1902
6805,1906
6806,1953
6807,1935
6808,1930
6809,1921
6810,1897
6811,1940
6812,1902
6813,1893
6814,1823
6815,1780
6816,1776
6817,1785
6818,1783
6819,1744
6820,1842
6821,1893
6822,1957
6823,1951
6824,1927
6825,1929
6826,1904
6827,1899
6828,1931
6829,1872
6830,1833
6831,1776
6832,1776
6833,1775
6834,1792
6835,1777
6836,1745
6837,1839
6838,1918
6839,1945
6840,1935
6841,1935
6842,1914
6843,1904
6844,1910
6845,1907
6846,1872
6847,1833
6848,1778
6849,1776
6850,1787
6851,1806
6852,1714
6853,1802
6854,1868
6855,1975
6856,1967
6857,1933
6858,1935
6859,1922
6860,1905
6861,1947
6862,1911
6863,1860
6864,1797
6865,1775
6866,1770
6867,1780
6868,1805
6869,1755
6870,1804
6871,1901
6872,1918
6873,1947
6874,1937
6875,1933
6876,1901
6877,1882
6878,1936
6879,1862
6880,1795
6881,1770
6882,1776
6883,1767
6884,1776
6885,1785
6886,1742
6887,1822
6888,1918
6889,1948
6890,1947
6891,1930
6892,1921
6893,1915
6894,1950
6895,1907
6896,1858
6897,1845
6898,1775
6899,1755
6900,1776
6901,1805
6902,1769
6903,1776
6904,1898
6905,1968
6906,1950
6907,1933
6908,1926
6909,1911
6910,1893
6911,1929
6912,1830
6913,1838
6914,1775
6915,1775
6916,1771
6917,1791
6918,1770
6919,1763
6920,1830
6921,1904
6922,1953
6923,1959
6924,1936
6925,1931
6926,1899
6927,1889
6928,1905
6929,1872
6930,1840
6931,1801
6932,1785
6933,1775
6934,1796
6935,1773
6936,1777
6937,1875
6938,1932
6939,1939
6940,1930
6941,1929
6942,1920
6943,1913
6944,1952
6945,1901
6946,1859
6947,1830
6948,1783
6949,1765
6950,1787
6951,1808
6952,1755
6953,1809
6954,1879
6955,1917
6956,1931
6957,1951
6958,1936
6959,1918
6960,1878
6961,1969
6962,1951
6963,1777
6964,1811
6965,1798
6966,1773
6967,1777
6968,1750
6969,1747
6970,1776
6971,1904
6972,1963
6973,1931
6974,1937
6975,1941
6976,1906
6977,1893
6978,1951
6979,1918
6980,1841
6981,1777
6982,1780
6983,1770
6984,1787
6985,1776
6986,1762
6987,1854
6988,1898
6989,1941
6990,1937
6991,1923
6992,1920
6993,1899
6994,1913
6995,1935
6996,1902
6997,1836
6998,1787
6999,1769
7000,1778
7001,1805
7002,1774
7003,1802
7004,1892
7005,1942
7006,1958
7007,1936
7008,1933
7009,1926
7010,1901
7011,1966
7012,1906
7013,1819
7014,1811
7015,1783
7016,1767
7017,1783
7018,1802
7019,1748
7020,1805
7021,1936
7022,1936
7023,1926
7024,1927
7025,1914
7026,1893
7027,1885
7028,1916
7029,1872
7030,1822
7031,1781
7032,1773
7033,1763
7034,1790
7035,1769
7036,1773
7037,1795
7038,1923
7039,1946
7040,1936
7041,1926
7042,1921
7043,1906
7044,1921
7045,1931
7046,1847
7047,1834
7048,1787
7049,1776
7050,1776
7051,1798
7052,1774
7053,1790
7054,1878
7055,1934
7056,1943
7057,1923
7058,1922
7059,1902
7060,1882
7061,1922
7062,1871
7063,1798
7064,1794
7065,1763
7066,1753
7067,1747
7068,1783
7069,1717
7070,1808
7071,1873
7072,1936
7073,1939
7074,1942
7075,1917
7076,1902
7077,1897
7078,1926
7079,1849
7080,1863
7081,1786
7082,1779
7083,1776
7084,1801
7085,1762
7086,1758
7087,1840
7088,1935
7089,1952
7090,1936
7091,1939
7092,2859
7093,1205
7094,1895
7095,2047
7096,2051
7097,2047
7098,2034
7099,2087
7100,2122
7101,2026
7102,1872
7103,1836
7104,1943
7105,2004
7106,1918
7107,1777
7108,1663
7109,1603
7110,1636
7111,1765
7112,1788
7113,1811
7114,1776
7115,1775
7116,1779
7117,1776
7118,1782
7119,1745
7120,1826
7121,1916
7122,1936
7123,2074
7124,990
7125,1823
7126,2016
7127,2137
7128,2225
7129,2221
7130,2157
7131,2074
7132,1935
7133,1829
7134,1894
7135,1886
7136,1825
7137,1805
7138,1771
7139,1648
7140,1615
7141,1673
7142,1746
7143,1844
7144,1899
7145,1942
7146,1872
7147,1843
7148,1801
7149,1776
7150,1793
7151,1820
7152,1803
7153,1819
7154,1902
7155,1137
7156,1761
7157,1968
7158,2096
7159,2219
7160,2268
7161,2318
7162,2215
7163,1958
7164,1833
7165,1782
7166,1744
7167,1703
7168,1649
7169,1558
7170,1555
7171,1701
7172,1812
7173,1878
7174,1941
7175,1936
7176,1923
7177,1887
7178,1939
7179,1829
7180,1842
7181,1793
7182,1807
7183,1790
7184,1802
7185,1753
7186,1502
7187,1479
7188,1857
7189,2009
7190,2126
7191,2226
7192,2271
7193,2221
7194,2094
7195,1997
7196,1936
7197,1843
7198,1744
7199,1629
7200,1520
7201,1505
7202,1503
7203,1616
7204,1837
7205,1927
7206,1951
7207,1949
7208,1932
7209,1917
7210,1901
7211,1957
7212,1911
7213,1872
7214,1835
7215,1799
7216,1807
7217,2300
7218,1216
7219,1738
7220,1807
7221,1950
7222,2058
7223,2169
7224,2213
7225,2161
7226,2182
7227,2109
7228,2002
7229,1933
7230,1775
7231,1600
7232,1557
7233,1590
7234,1682
7235,1712
7236,1746
7237,1829
7238,1887
7239,1927
7240,1914
7241,1919
7242,1927
7243,1936
7244,1962
7245,1936
7246,1881
7247,1882
7248,2224
7249,1060
7250,1698
7251,1753
7252,1750
7253,1872
7254,2067
7255,2128
7256,2205
7257,2283
7258,2170
7259,2034
7260,1941
7261,1851
7262,1755
7263,1638
7264,1648
7265,1691
7266,1728
7267,1742
7268,1769
7269,1744
7270,1786
7271,1905
7272,1939
7273,1963
7274,1936
7275,1929
7276,1907
7277,1904
7278,1936
7279,1888
7280,983
7281,1616
7282,1726
7283,1758
7284,1821
7285,1874
7286,1927
7287,2071
7288,2288
7289,2199
7290,2111
7291,2034
7292,1909
7293,1738
7294,1739
7295,1735
7296,1763
7297,1793
7298,1743
7299,1743
7300,1761
7301,1785
7302,1760
7303,1792
7304,1904
7305,1898
7306,1969
7307,1951
7308,1958
7309,1931
7310,1915
7311,1327
7312,1487
7313,1802
7314,1747
7315,1746
7316,1805
7317,1892
7318,1952
7319,2192
7320,2170
7321,2141
7322,2096
7323,1998
7324,1837
7325,1744
7326,1735
7327,1779
7328,1871
7329,1778
7330,1808
7331,1770
7332,1767
7333,1732
7334,1764
7335,1789
7336,1723
7337,1871
7338,1940
7339,1968
7340,1957
7341,1950
7342,1853
7343,1415
7344,1889
7345,1847
7346,1745
7347,1839
7348,1877
7349,1967
7350,2205
7351,2167
7352,1983
7353,1958
7354,1943
7355,1867
7356,1776
7357,1774
7358,1825
7359,1841
7360,1854
7361,1890
7362,1892
7363,1773
7364,1777
7365,1766
7366,1763
7367,1776
7368,1827
7369,1776
7370,1829
7371,1945
7372,1951
7373,2677
7374,1040
7375,1814
7376,1847
7377,1838
7378,1902
7379,1914
7380,1997
7381,2181
7382,2161
7383,2053
7384,1984
7385,1891
7386,1775
7387,1770
7388,1794
7389,1844
7390,1854
7391,1872
7392,1888
7393,1876
7394,1891
7395,1904
7396,1859
7397,1838
7398,1780
7399,1777
7400,1771
7401,1809
7402,1795
7403,1839
7404,1904
7405,1103
7406,1830
7407,1862
7408,1872
7409,1879
7410,1922
7411,2055
7412,2223
7413,2254
7414,2099
7415,1995
7416,1891
7417,1762
7418,1649
7419,1583
7420,1757
7421,1796
7422,1865
7423,1909
7424,1906
7425,1893
7426,1871
7427,1856
7428,1910
7429,1875
7430,1833
7431,1815
7432,1808
7433,1792
7434,1804
7435,1722
7436,1049
7437,1642
7438,1865
7439,1888
7440,1914
7441,1982
7442,2013
7443,2201
7444,2273
7445,2179
7446,2065
7447,1971
7448,1763
7449,1619
7450,1584
7451,1648
7452,1649
7453,1712
7454,1841
7455,1905
7456,1920
7457,1904
7458,1903
7459,1888
7460,1882
7461,1936
7462,1908
7463,1849
7464,1835
7465,1791
7466,1780
7467,1645
7468,1485
7469,1705
7470,1712
7471,1904
7472,1951
7473,1990
7474,2176
7475,2323
7476,2242
7477,2163
7478,2144
7479,1904
7480,1776
7481,1616
7482,1622
7483,1654
7484,1713
7485,1712
7486,1711
7487,1815
7488,1881
7489,1908
7490,1901
7491,1911
7492,1904
7493,1897
7494,1920
7495,1901
7496,1861
7497,1839
7498,2762
7499,1191
7500,1730
7501,1745
7502,1747
7503,1840
7504,1974
7505,2114
7506,2313
7507,2277
7508,2224
7509,2126
7510,1969
7511,1859
7512,1697
7513,1680
7514,1679
7515,1691
7516,1705
7517,1727
7518,1735
7519,1694
7520,1776
7521,1865
7522,1918
7523,1933
7524,1936
7525,1937
7526,1918
7527,1891
7528,1963
7529,2237
7530,1119
7531,1679
7532,1783
7533,1794
7534,1843
7535,1909
7536,1904
7537,2163
7538,2255
7539,2263
7540,2154
7541,2014
7542,1806
7543,1669
7544,1695
7545,1733
7546,1693
7547,1770
7548,1733
7549,1712
7550,1728
7551,1776
7552,1735
7553,1817
7554,1882
7555,1955
7556,1969
7557,1940
7558,1948
7559,1936
7560,1919
7561,1074
7562,1704
7563,1869
7564,1821
7565,1833
7566,1846
7567,1917
7568,2096
7569,2084
7570,2151
7571,2192
7572,2062
7573,1854
7574,1723
7575,1734
7576,1744
7577,1791
7578,1851
7579,1846
7580,1819
7581,1762
7582,1767
7583,1761
7584,1793
7585,1762
7586,1787
7587,1824
7588,1924
7589,1969
7590,1946
7591,1951
7592,1448
7593,1535
7594,1935
7595,1918
7596,1838
7597,1891
7598,1881
7599,2032
7600,2131
7601,2143
7602,1989
7603,1927
7604,1850
7605,1787
7606,1763
7607,1776
7608,1815
7609,1835
7610,1843
7611,1904
7612,1876
7613,1835
7614,1799
7615,1776
7616,1763
7617,1781
7618,1735
7619,1750
7620,1860
7621,1915
7622,1951
7623,2030
7624,1422
7625,1901
7626,1899
7627,1881
7628,2000
7629,2006
7630,2089
7631,2177
7632,2106
7633,2032
7634,1932
7635,1747
7636,1607
7637,1662
7638,1792
7639,1811
7640,1850
7641,1851
7642,1872
7643,1869
7644,1903
7645,1888
7646,1829
7647,1841
7648,1777
7649,1777
7650,1760
7651,1819
7652,1789
7653,1808
7654,2714
7655,1285
7656,1876
7657,1931
7658,1936
7659,1970
7660,2033
7661,2138
7662,2277
7663,2160
7664,2087
7665,1966
7666,1785
7667,1647
7668,1608
7669,1535
7670,1667
7671,1779
7672,1828
7673,1840
7674,1901
7675,1882
7676,1871
7677,1877
7678,1913
7679,1859
7680,1821
7681,1791
7682,1777
7683,1791
7684,1824
7685,1823
7686,1099
7687,1651
7688,1917
7689,1952
7690,1963
7691,2020
7692,2110
7693,2231
7694,2243
7695,2240
7696,2083
7697,1879
7698,1651
7699,1535
7700,1579
7701,1599
7702,1664
7703,1691
7704,1771
7705,1871
7706,1894
7707,1897
7708,1913
7709,1904
7710,1911
7711,1962
7712,1963
7713,1872
7714,1875
7715,1859
7716,1790
7717,1794
7718,1866
7719,1760
7720,1842
7721,1899
7722,1915
7723,1951
7724,1965
7725,1969
7726,1919
7727,1901
7728,1917
7729,1882
7730,1841
7731,1795
7732,1777
7733,1763
7734,1790
7735,1744
7736,1742
7737,1849
7738,1934
7739,1962
7740,1955
7741,1947
7742,1981
7743,1930
7744,1949
7745,1949
7746,1888
7747,1889
7748,1791
7749,1770
7750,1776
7751,1809
7752,1763
7753,1771
7754,1889
7755,1930
7756,1957
7757,1938
7758,1933
7759,1908
7760,1898
7761,1937
7762,1888
7763,1856
7764,1821
7765,1786
7766,1778
7767,1780
7768,1808
7769,1837
7770,1849
7771,1867
7772,1936
7773,1938
7774,1939
7775,1927
7776,1899
7777,1893
7778,1928
7779,1846
7780,1851
7781,1787
7782,1775
7783,1776
7784,1797
7785,1754
7786,1760
7787,1808
7788,1921
7789,1953
7790,1939
7791,1939
7792,1933
7793,1907
7794,1922
7795,1906
7796,1856
7797,1814
7798,1778
7799,1783
7800,1775
7801,1802
7802,1761
7803,1826
7804,1875
7805,1875
7806,1936
7807,1941
7808,1936
7809,1911
7810,1900
7811,1936
7812,1905
7813,1803
7814,1814
7815,1792
7816,1773
7817,1787
7818,1890
7819,1730
7820,1809
7821,1922
7822,1942
7823,1943
7824,1945
7825,1925
7826,1904
7827,1883
7828,1936
7829,1849
7830,1874
7831,1787
7832,1760
7833,1761
7834,1777
7835,1706
7836,1783
7837,1879
7838,1923
7839,1947
7840,1937
7841,1941
7842,1942
7843,1918
7844,1937
7845,1893
7846,1869
7847,1840
7848,1792
7849,1774
7850,1769
7851,1808
7852,1767
7853,1781
7854,1822
7855,1904
7856,1941
7857,1918
7858,1924
7859,1909
7860,1898
7861,1904
7862,1934
7863,1805
7864,1808
7865,1779
7866,1767
7867,1791
7868,1835
7869,1809
7870,1837
7871,1912
7872,1935
7873,1968
7874,1959
7875,1937
7876,1902
7877,1891
7878,1952
7879,1915
7880,1841
7881,1792
7882,1765
7883,1762
7884,1787
7885,1758
7886,1744
7887,1879
7888,1869
7889,1963
7890,1937
7891,1941
7892,1939
7893,1911
7894,1914
7895,1902
7896,1917
7897,1887
7898,1786
7899,1767
7900,1783
7901,1785
7902,1784
7903,1792
7904,1919
7905,1929
7906,1949
7907,1922
7908,1936
7909,1915
7910,1894
7911,1904
7912,1906
7913,1849
7914,1819
7915,1781
7916,1749
7917,1774
7918,1757
7919,1761
7920,1824
7921,1918
7922,1950
7923,1957
7924,1955
7925,1939
7926,1905
7927,1883
7928,1941
7929,1874
7930,1883
7931,1795
7932,1770
7933,1749
7934,1776
7935,1789
7936,1754
7937,1891
7938,1920
7939,1955
7940,1939
7941,1942
7942,1934
7943,1920
7944,1904
7945,1910
7946,1855
7947,1798
7948,1780
7949,1766
7950,1769
7951,1809
7952,1729
7953,1777
7954,1873
7955,1959
7956,1938
7957,1950
7958,1948
7959,1907
7960,1901
7961,1913
7962,1917
7963,1887
7964,1803
7965,1774
7966,1765
7967,1776
7968,1808
7969,1751
7970,1863
7971,1922
7972,1924
7973,1962
7974,1947
7975,1935
7976,1906
7977,1878
7978,1891
7979,1904
7980,1869
7981,1765
7982,1754
7983,1742
7984,1793
7985,1712
7986,1689
7987,1842
7988,1943
7989,1939
7990,1929
7991,1947
7992,1950
7993,1915
7994,1896
7995,1886
7996,1804
7997,1821
7998,1765
7999,1760
8000,1767
8001,1789
8002,1784
8003,1819
8004,1852
8005,1930
8006,1930
8007,1931
8008,1932
8009,1903
8010,1901
8011,1935
8012,1885
8013,1847
8014,1809
8015,1779
8016,1776
8017,1776
8018,1826
8019,1755
8020,1786
8021,1856
8022,1951
8023,1962
8024,1953
8025,1937
8026,1910
8027,1886
8028,1923
8029,1871
8030,1841
8031,1776
8032,1763
8033,1762
8034,1779
8035,1808
8036,1771
8037,1840
8038,1897
8039,1961
8040,1935
8041,1949
8042,1936
8043,1921
8044,1878
8045,1887
8046,1865
8047,1846
8048,1775
8049,1770
8050,1767
8051,1806
8052,1745
8053,1825
8054,1846
8055,1930
8056,1951
8057,1948
8058,1938
8059,1911
8060,1897
8061,1937
8062,1890
8063,1879
8064,1813
8065,1780
8066,1770
8067,1776
8068,1819
8069,1707
8070,1841
8071,1871
8072,1935
8073,1952
8074,1936
8075,1933
8076,1913
8077,1875
8078,1920
8079,1863
8080,1857
8081,1793
8082,1773
8083,1758
8084,1787
8085,1758
8086,1793
8087,1856
8088,1937
8089,1954
8090,1939
8091,1936
8092,1933
8093,1910
8094,1929
8095,1881
8096,1859
8097,1825
8098,1791
8099,1761
8100,1764
8101,1782
8102,1738
8103,1768
8104,1905
8105,1921
8106,1948
8107,1939
8108,1926
8109,1910
8110,1902
8111,1914
8112,1895
8113,1841
8114,1811
8115,1792
8116,1749
8117,1781
8118,1794
8119,1707
8120,1820
8121,1898
8122,1923
8123,1937
8124,1944
8125,1931
8126,1904
8127,1893
8128,1920
8129,1889
8130,1872
8131,1796
8132,1772
8133,1761
8134,1776
8135,1773
8136,1776
8137,1875
8138,1981
8139,1949
8140,1949
8141,1958
8142,1929
8143,1918
8144,1922
8145,1909
8146,1859
8147,1835
8148,1778
8149,1760
8150,1775
8151,1797
8152,1763
8153,1776
8154,1840
8155,1898
8156,1939
8157,1946
8158,1937
8159,1909
8160,1899
8161,1898
8162,1946
8163,1871
8164,1841
8165,1783
8166,1766
8167,1794
8168,1811
8169,1754
8170,1830
8171,1862
8172,1983
8173,1951
8174,1949
8175,1936
8176,1910
8177,1889
8178,1926
8179,1872
8180,1845
8181,1788
8182,1776
8183,1776
8184,1793
8185,1771
8186,1757
8187,1845
8188,1922
8189,1958
8190,1949
8191,1951
8192,1932
8193,1911
8194,1945
8195,1966
8196,1866
8197,1818
8198,1785
8199,1751
8200,1773
8201,1797
8202,1728
8203,1785
8204,1866
8205,1977
8206,1956
8207,1938
8208,1925
8209,1904
8210,1901
8211,1917
8212,1917
8213,1850
8214,1805
8215,1781
8216,1757
8217,1776
8218,1799
8219,1758
8220,1810
8221,1887
8222,1954
8223,1943
8224,1943
8225,1936
8226,1916
8227,1883
8228,1915
8229,1856
8230,1856
8231,1776
8232,1776
8233,1755
8234,1776
8235,1807
8236,1771
8237,1858
8238,1946
8239,1959
8240,1947
8241,1947
8242,1932
8243,1914
8244,1889
8245,1909
8246,1837
8247,1868
8248,1792
8249,1755
8250,1767
8251,1790
8252,1751
8253,1791
8254,1877
8255,1904
8256,1947
8257,1941
8258,1950
8259,1910
8260,1900
8261,1955
8262,1898
8263,1857
8264,1819
8265,1776
8266,1766
8267,1773
8268,1765
8269,1715
8270,1840
8271,1930
8272,1942
8273,1951
8274,1936
8275,1927
8276,1899
8277,1883
8278,1909
8279,1862
8280,1826
8281,1767
8282,1764
8283,1727
8284,1776
8285,1777
8286,1753
8287,1815
8288,1934
8289,1958
8290,1941
8291,1959
8292,1935
8293,1909
8294,1894
8295,1912
8296,1829
8297,1869
8298,1791
8299,1774
8300,1749
8301,1777
8302,1749
8303,1775
8304,1891
8305,1923
8306,1920
8307,1948
8308,1914
8309,1919
8310,1908
8311,1936
8312,1910
8313,1858
8314,1818
8315,1778
8316,1750
8317,1777
8318,1783
8319,1714
8320,1839
8321,1921
8322,1949
8323,1953
8324,1951
8325,1949
8326,1920
8327,1886
8328,1895
8329,1859
8330,1829
8331,1778
8332,1783
8333,1770
8334,1804
8335,1777
8336,1767
8337,1815
8338,1917
8339,1940
8340,1941
8341,1947
8342,1935
8343,1919
8344,1934
8345,1874
8346,1813
8347,1862
8348,1788
8349,1771
8350,1776
8351,1787
8352,1761
8353,1802
8354,1885
8355,1936
8356,1986
8357,1978
8358,1949
8359,1923
8360,1904
8361,1909
8362,1904
8363,1846
8364,1811
8365,1775
8366,1776
8367,1776
8368,1798
8369,1766
8370,1827
8371,1846
8372,1929
8373,1958
8374,1943
8375,1936
8376,1913
8377,1898
8378,1904
8379,1855
8380,1810
8381,1793
8382,1775
8383,1774
8384,1782
8385,1766
8386,1744
8387,1824
8388,1895
8389,1942
8390,1950
8391,1951
8392,1936
8393,1910
8394,1883
8395,1888
8396,1904
8397,1808
8398,1770
8399,1758
8400,1759
8401,1759
8402,1720
8403,1773
8404,1931
8405,1936
8406,1943
8407,1943
8408,1919
8409,1909
8410,1901
8411,1936
8412,1938
8413,1887
8414,1815
8415,1773
8416,1763
8417,1773
8418,1808
8419,1765
8420,1834
8421,1878
8422,1911
8423,1920
8424,1930
8425,1907
8426,1891
8427,1887
8428,1905
8429,1850
8430,1806
8431,1775
8432,1756
8433,1748
8434,1808
8435,1741
8436,1759
8437,1855
8438,1942
8439,1937
8440,1940
8441,1953
8442,1936
8443,1915
8444,1904
8445,1913
8446,1872
8447,1858
8448,1772
8449,1765
8450,1749
8451,1777
8452,1794
8453,1742
8454,1862
8455,1963
8456,1992
8457,1938
8458,1943
8459,1920
8460,1905
8461,1907
8462,1904
8463,1870
8464,1814
8465,1797
8466,1761
8467,1790
8468,1798
8469,1762
8470,1822
8471,1859
8472,1948
8473,1947
8474,1942
8475,1962
8476,1907
8477,1897
8478,1950
8479,1853
8480,1808
8481,1777
8482,1777
8483,1765
8484,1776
8485,1817
8486,1783
8487,1854
8488,1917
8489,1949
8490,1946
8491,1942
8492,1931
8493,1906
8494,1897
8495,1926
8496,1867
8497,1838
8498,1771
8499,1765
8500,1765
8501,1789
8502,1824
8503,1789
8504,1904
8505,1962
8506,1948
8507,1958
8508,1943
8509,1933
8510,1918
8511,1967
8512,1922
8513,1855
8514,1812
8515,1791
8516,1773
8517,1772
8518,1797
8519,1760
8520,1808
8521,1861
8522,1924
8523,1940
8524,1959
8525,1937
8526,1907
8527,1903
8528,1935
8529,1847
8530,1829
8531,1813
8532,1783
8533,1751
8534,1789
8535,1774
8536,1808
8537,1843
8538,1936
8539,1968
8540,1935
8541,1959
8542,1937
8543,1908
8544,1932
8545,1924
8546,1819
8547,1828
8548,1789
8549,1758
8550,1767
8551,1792
8552,1718
8553,1775
8554,1899
8555,1936
8556,1941
8557,1934
8558,1950
8559,1922
8560,1911
8561,1936
8562,1887
8563,1903
8564,1805
8565,1787
8566,1779
8567,1779
8568,1791
8569,1738
8570,1825
8571,1921
8572,1937
8573,1940
8574,1938
8575,1917
8576,1904
8577,1874
8578,1917
8579,1830
8580,1839
8581,1807
8582,1786
8583,1774
8584,1791
8585,1778
8586,1751
8587,1792
8588,1870
8589,1968
8590,1939
8591,1956
8592,1936
8593,1907
8594,1883
8595,1913
8596,1870
8597,1856
8598,1775
8599,1773
8600,1771
8601,1806
8602,1758
8603,1779
8604,1883
8605,1899
8606,1949
8607,1939
8608,1942
8609,1920
8610,1921
8611,1965
8612,1904
8613,1860
8614,1815
8615,1779
8616,1776
8617,1770
8618,1798
8619,1776
8620,1812
8621,1904
8622,1931
8623,1950
8624,1933
8625,1925
8626,1909
8627,1899
8628,1936
8629,1861
8630,1792
8631,1810
8632,1776
8633,1755
8634,1796
8635,1789
8636,1785
8637,1808
8638,1925
8639,1954
8640,1949
8641,1949
8642,1922
8643,1908
8644,1871
8645,1918
8646,1863
8647,1853
8648,1775
8649,1763
8650,1750
8651,1795
8652,1714
8653,1792
8654,1887
8655,1931
8656,1967
8657,1954
8658,1957
8659,1931
8660,1909
8661,1908
8662,1915
8663,1856
8664,1827
8665,1767
8666,1759
8667,1762
8668,1781
8669,1741
8670,1809
8671,1895
8672,1968
8673,1946
8674,1943
8675,1925
8676,1905
8677,1898
8678,1931
8679,1892
8680,1863
8681,1801
8682,1782
8683,1767
8684,1795
8685,1795
8686,1737
8687,1840
8688,1885
8689,1962
8690,1936
8691,1946
8692,1918
8693,1904
8694,1899
8695,1911
8696,1857
8697,1795
8698,1771
8699,1765
8700,1766
8701,1794
8702,1787
8703,1781
8704,1862
8705,1919
8706,1966
8707,1961
8708,1961
8709,1923
8710,1911
8711,1940
8712,1872
8713,1874
8714,1803
8715,1778
8716,1246
8717,1473
8718,1817
8719,1826
8720,2039
8721,2174
8722,2155
8723,2203
8724,2190
8725,2139
8726,2096
8727,2113
8728,2109
8729,2000
8730,1866
8731,1629
8732,1477
8733,1354
8734,1392
8735,1423
8736,1520
8737,1662
8738,1787
8739,1904
8740,1927
8741,1933
8742,1933
8743,1918
8744,1895
8745,1915
8746,1881
8747,2080
8748,1358
8749,1761
8750,1911
8751,2070
8752,2078
8753,2067
8754,2109
8755,2142
8756,2162
8757,2208
8758,2167
8759,2122
8760,2032
8761,1872
8762,1633
8763,1461
8764,1387
8765,1360
8766,1451
8767,1599
8768,1686
8769,1747
8770,1747
8771,1888
8772,1942
8773,1971
8774,1973
8775,1973
8776,1959
8777,1935
8778,3027
8779,1232
8780,1845
8781,1937
8782,2105
8783,2129
8784,2143
8785,2091
8786,1994
8787,2115
8788,2257
8789,2242
8790,2112
8791,1926
8792,1679
8793,1474
8794,1379
8795,1369
8796,1467
8797,1535
8798,1617
8799,1682
8800,1744
8801,1807
8802,1766
8803,1838
8804,1897
8805,1969
8806,2010
8807,2000
8808,1996
8809,2007
8810,1120
8811,1863
8812,1986
8813,2100
8814,2133
8815,2158
8816,2114
8817,2112
8818,2285
8819,2260
8820,2095
8821,1930
8822,1806
8823,1605
8824,1436
8825,1371
8826,1398
8827,1525
8828,1686
8829,1791
8830,1785
8831,1782
8832,1778
8833,1776
8834,1809
8835,1821
8836,1763
8837,1895
8838,1929
8839,1986
8840,1989
8841,1186
8842,1697
8843,1903
8844,2047
8845,2225
8846,2235
8847,2192
8848,2167
8849,2448
8850,2421
8851,2129
8852,1881
8853,1595
8854,1458
8855,1342
8856,1263
8857,1296
8858,1505
8859,1708
8860,1822
8861,1872
8862,1874
8863,1875
8864,1821
8865,1797
8866,1776
8867,1814
8868,1874
8869,1812
8870,1875
8871,1959
8872,1779
8873,1622
8874,1904
8875,2032
8876,2221
8877,2258
8878,2225
8879,2247
8880,2509
8881,2469
8882,2149
8883,1863
8884,1600
8885,1315
8886,1055
8887,1159
8888,1358
8889,1625
8890,1792
8891,1882
8892,1906
8893,1915
8894,1887
8895,1950
8896,1885
8897,1911
8898,1821
8899,1835
8900,1825
8901,1837
8902,1818
8903,2321
8904,1375
8905,1913
8906,2080
8907,2325
8908,2361
8909,2207
8910,2258
8911,2694
8912,2555
8913,2060
8914,1757
8915,1450
8916,1165
8917,1040
8918,1092
8919,1235
8920,1573
8921,1867
8922,1929
8923,2004
8924,2018
8925,1991
8926,1963
8927,1953
8928,1987
8929,1975
8930,1870
8931,1815
8932,1812
8933,1810
8934,1917
8935,1056
8936,1694
8937,1968
8938,2298
8939,2412
8940,2238
8941,2201
8942,2657
8943,2386
8944,1941
8945,1741
8946,1509
8947,1345
8948,1131
8949,1152
8950,1379
8951,1669
8952,1776
8953,1766
8954,1872
8955,2033
8956,1997
8957,1986
8958,1986
8959,1982
8960,1978
8961,1979
8962,1939
8963,1907
8964,1857
8965,1808
8966,960
8967,1600
8968,1873
8969,2107
8970,2285
8971,2210
8972,2202
8973,2699
8974,2407
8975,1978
8976,1706
8977,1497
8978,1408
8979,1235
8980,1290
8981,1434
8982,1677
8983,1776
8984,1805
8985,1815
8986,1782
8987,1859
8988,1969
8989,1999
8990,1988
8991,2003
8992,1994
8993,1970
8994,1927
8995,1967
8996,1893
8997,1449
8998,1504
8999,1724
9000,1945
9001,2229
9002,2093
9003,2065
9004,2624
9005,2480
9006,2090
9007,1807
9008,1613
9009,1393
9010,1217
9011,1255
9012,1514
9013,1727
9014,1792
9015,1785
9016,1792
9017,1802
9018,1808
9019,1779
9020,1850
9021,1983
9022,1991
9023,2017
9024,2000
9025,2000
9026,1941
9027,1949
9028,2259
9029,1285
9030,1745
9031,1916
9032,2237
9033,2262
9034,2128
9035,2622
9036,2311
9037,1993
9038,1846
9039,1670
9040,1463
9041,1219
9042,1223
9043,1438
9044,1698
9045,1819
9046,1858
9047,1861
9048,1827
9049,1796
9050,1807
9051,1861
9052,1872
9053,1815
9054,1939
9055,1998
9056,2003
9057,1989
9058,1959
9059,2385
9060,1131
9061,1867
9062,2026
9063,2295
9064,2320
9065,2192
9066,2633
9067,2559
9068,2091
9069,1746
9070,1601
9071,1491
9072,1257
9073,1146
9074,1351
9075,1674
9076,1836
9077,1905
9078,1970
9079,1943
9080,1857
9081,1830
9082,1808
9083,1815
9084,1840
9085,1856
9086,1904
9087,1936
9088,1975
9089,1989
9090,1993
9091,1078
9092,1798
9093,1913
9094,2222
9095,2379
9096,2229
9097,2559
9098,2643
9099,2089
9100,1792
9101,1606
9102,1335
9103,1147
9104,1101
9105,1359
9106,1721
9107,1849
9108,1951
9109,1950
9110,1934
9111,1957
9112,1925
9113,1908
9114,1871
9115,1833
9116,1805
9117,1826
9118,1849
9119,1801
9120,1840
9121,1937
9122,1293
9123,1714
9124,1904
9125,2238
9126,2422
9127,2320
9128,2559
9129,2802
9130,2224
9131,1815
9132,1535
9133,1287
9134,1031
9135,970
9136,1184
9137,1564
9138,1843
9139,1945
9140,1951
9141,1971
9142,1979
9143,1957
9144,1962
9145,1974
9146,1914
9147,1891
9148,1840
9149,1824
9150,1824
9151,1843
9152,1782
9153,1728
9154,1479
9155,1882
9156,2209
9157,2518
9158,2462
9159,2480
9160,2832
9161,2321
9162,1903
9163,1578
9164,1328
9165,975
9166,887
9167,1119
9168,1513
9169,1632
9170,1771
9171,1944
9172,1975
9173,1983
9174,1984
9175,1968
9176,1958
9177,1962
9178,1975
9179,1999
9180,1918
9181,1862
9182,1840
9183,1808
9184,2646
9185,1197
9186,1638
9187,2024
9188,2448
9189,2437
9190,2451
9191,2895
9192,2374
9193,1964
9194,1705
9195,1472
9196,1175
9197,985
9198,1141
9199,1469
9200,1691
9201,1776
9202,1789
9203,1833
9204,1914
9205,1955
9206,2018
9207,2005
9208,2000
9209,1980
9210,1971
9211,2014
9212,1952
9213,1915
9214,1870
9215,1945
9216,983
9217,1638
9218,1865
9219,2186
9220,2353
9221,2450
9222,3019
9223,2559
9224,2102
9225,1808
9226,1497
9227,1162
9228,1019
9229,1113
9230,1380
9231,1637
9232,1744
9233,1781
9234,1812
9235,1819
9236,1795
9237,1894
9238,1975
9239,2014
9240,2026
9241,2013
9242,2000
9243,1969
9244,1949
9245,1966
9246,1900
9247,1087
9248,1589
9249,1787
9250,2221
9251,2433
9252,2326
9253,2695
9254,2545
9255,2113
9256,1822
9257,1535
9258,1200
9259,965
9260,1072
9261,1489
9262,1774
9263,1869
9264,1823
9265,1805
9266,1790
9267,1805
9268,1841
9269,1818
9270,1872
9271,1926
9272,1975
9273,2037
9274,2007
9275,2014
9276,1979
9277,1955
9278,1403
9279,1585
9280,1811
9281,2162
9282,2426
9283,2315
9284,2645
9285,2593
9286,1968
9287,1749
9288,1535
9289,1285
9290,963
9291,1076
9292,1434
9293,1745
9294,1851
9295,1936
9296,1905
9297,1830
9298,1827
9299,1825
9300,1840
9301,1863
9302,1843
9303,1855
9304,1936
9305,2006
9306,2027
9307,2000
9308,1998
9309,2557
9310,1321
9311,1831
9312,2127
9313,2432
9314,2307
9315,2442
9316,2704
9317,2106
9318,1730
9319,1510
9320,1264
9321,1110
9322,1125
9323,1450
9324,1766
9325,1889
9326,1914
9327,1924
9328,1962
9329,1893
9330,1830
9331,1850
9332,1838
9333,1834
9334,1847
9335,1886
9336,1834
9337,1897
9338,1972
9339,1969
9340,1985
9341,1971
9342,1968
9343,1935
9344,1918
9345,1929
9346,1930
9347,1898
9348,1812
9349,1792
9350,1788
9351,1807
9352,1793
9353,1791
9354,1873
9355,1908
9356,1953
9357,1939
9358,1949
9359,1938
9360,1930
9361,1933
9362,1911
9363,1840
9364,1795
9365,1777
9366,1760
9367,1773
9368,1800
9369,1722
9370,1829
9371,1917
9372,1951
9373,1970
9374,1952
9375,1953
9376,1926
9377,1907
9378,1967
9379,1901
9380,1899
9381,1783
9382,1776
9383,1761
9384,1787
9385,1733
9386,1727
9387,1823
9388,1911
9389,1936
9390,1919
9391,1955
9392,1930
9393,1904
9394,1887
9395,1882
9396,1839
9397,1811
9398,1779
9399,1763
9400,1759
9401,1799
9402,1793
9403,1793
9404,1871
9405,1920
9406,1966
9407,1948
9408,1952
9409,1936
9410,1907
9411,1919
9412,1887
9413,1894
9414,1821
9415,1762
9416,1754
9417,1745
9418,1791
9419,1745
9420,1824
9421,1897
9422,1936
9423,1957
9424,1956
9425,1951
9426,1921
9427,1906
9428,1948
9429,1901
9430,1895
9431,1807
9432,1778
9433,1748
9434,1755
9435,1765
9436,1776
9437,1830
9438,1939
9439,1949
9440,1937
9441,1952
9442,1936
9443,1914
9444,1904
9445,1904
9446,1829
9447,1829
9448,1795
9449,1773
9450,1769
9451,1791
9452,1751
9453,1774
9454,1870
9455,1922
9456,1962
9457,1946
9458,1947
9459,1930
9460,1920
9461,1900
9462,1886
9463,1840
9464,1815
9465,1772
9466,1763
9467,1759
9468,1792
9469,1744
9470,1833
9471,1911
9472,1950
9473,1968
9474,1961
9475,1942
9476,1919
9477,1887
9478,1963
9479,1885
9480,1838
9481,1774
9482,1774
9483,1740
9484,1775
9485,1807
9486,1682
9487,1821
9488,1923
9489,1936
9490,1935
9491,1933
9492,1923
9493,1909
9494,1909
9495,1920
9496,1890
9497,1840
9498,1785
9499,1783
9500,1749
9501,1777
9502,1776
9503,1787
9504,1827
9505,1912
9506,1953
9507,1942
9508,1957
9509,1922
9510,1894
9511,1922
9512,1887
9513,1833
9514,1819
9515,1756
9516,1763
9517,1776
9518,1802
9519,1761
9520,1786
9521,1904
9522,1936
9523,1964
9524,1954
9525,1943
9526,1922
9527,1904
9528,1971
9529,1890
9530,1883
9531,1783
9532,1772
9533,1766
9534,1766
9535,1744
9536,1691
9537,1826
9538,1915
9539,1943
9540,1920
9541,1941
9542,1929
9543,1905
9544,1883
9545,1911
9546,1891
9547,1860
9548,1808
9549,1775
9550,1777
9551,1793
9552,1791
9553,1777
9554,1872
9555,1925
9556,1942
9557,1934
9558,1946
9559,1921
9560,1904
9561,1947
9562,1862
9563,1853
9564,1819
9565,1773
9566,1764
9567,1762
9568,1790
9569,1711
9570,1772
9571,1884
9572,1969
9573,1963
9574,1962
9575,1954
9576,1920
9577,1911
9578,1919
9579,1889
9580,1869
9581,1808
9582,1774
9583,1744
9584,1771
9585,1744
9586,1746
9587,1854
9588,1872
9589,1942
9590,1939
9591,1943
9592,1942
9593,1908
9594,1899
9595,1919
9596,1872
9597,1844
9598,1782
9599,1760
9600,1771
9601,1789
9602,1757
9603,1787
9604,1877
9605,1943
9606,1958
9607,1939
9608,1936
9609,1915
9610,1904
9611,1931
9612,1891
9613,1815
9614,1826
9615,1778
9616,1775
9617,1765
9618,1801
9619,1733
9620,1782
9621,1923
9622,1942
9623,1962
9624,1955
9625,1938
9626,1927
9627,1913
9628,1957
9629,1914
9630,1867
9631,1805
9632,1772
9633,1760
9634,1762
9635,1790
9636,1710
9637,1851
9638,1867
9639,1951
9640,1942
9641,1934
9642,1933
9643,1887
9644,1904
9645,1975
9646,1887
9647,1851
9648,1778
9649,1760
9650,1763
9651,1791
9652,1755
9653,1739
9654,1872
9655,1926
9656,1963
9657,1938
9658,1899
9659,1950
9660,1904
9661,1899
9662,1883
9663,1904
9664,1808
9665,1806
9666,1783
9667,1776
9668,1810
9669,1763
9670,1794
9671,1931
9672,1975
9673,1968
9674,1962
9675,1958
9676,1922
9677,1904
9678,1938
9679,1894
9680,1826
9681,1823
9682,1798
9683,1765
9684,1765
9685,1696
9686,1733
9687,1801
9688,1857
9689,1938
9690,1943
9691,1971
9692,1936
9693,1925
9694,1910
9695,1921
9696,1905
9697,1877
9698,1793
9699,1767
9700,1776
9701,1793
9702,1758
9703,1732
9704,1853
9705,1905
9706,1943
9707,1940
9708,1952
9709,1916
9710,1907
9711,1958
9712,1858
9713,1842
9714,1818
9715,1782
9716,1753
9717,1739
9718,1787
9719,1693
9720,1803
9721,1902
9722,1934
9723,1957
9724,1955
9725,1951
9726,1917
9727,1913
9728,1919
9729,1892
9730,1842
9731,1781
9732,1776
9733,1789
9734,1782
9735,1799
9736,1734
9737,1831
9738,1905
9739,1936
9740,1931
9741,1936
9742,1924
9743,1906
9744,1889
9745,1894
9746,1904
9747,1841
9748,1786
9749,1760
9750,1751
9751,1773
9752,1743
9753,1718
9754,1777
9755,1883
9756,1938
9757,1933
9758,1946
9759,1929
9760,1919
9761,1931
9762,1914
9763,1851
9764,1815
9765,1753
9766,1726
9767,1744
9768,1822
9769,1790
9770,1808
9771,1939
9772,1945
9773,1963
9774,1948
9775,1937
9776,1915
9777,1904
9778,1923
9779,1826
9780,1834
9781,1758
9782,1765
9783,1746
9784,1766
9785,1775
9786,1712
9787,1813
9788,1862
9789,1907
9790,1946
9791,1968
9792,1938
9793,1915
9794,1899
9795,1922
9796,1920
9797,1863
9798,1781
9799,1766
9800,1745
9801,1788
9802,1781
9803,1762
9804,1861
9805,1901
9806,1949
9807,1918
9808,1920
9809,1932
9810,1909
9811,1871
9812,1915
9813,1827
9814,1856
9815,1807
9816,1759
9817,1776
9818,1790
9819,1754
9820,1802
9821,1917
9822,1934
9823,1963
9824,1951
9825,1939
9826,1915
9827,1904
9828,1946
9829,1923
9830,1776
9831,1792
9832,1773
9833,1744
9834,1787
9835,1755
9836,1723
9837,1819
9838,1917
9839,1933
9840,1935
9841,1947
9842,1935
9843,1916
9844,1889
9845,1964
9846,1902
9847,1838
9848,1761
9849,1753
9850,1744
9851,1794
9852,1762
9853,1763
9854,1843
9855,1920
9856,1954
9857,1936
9858,1950
9859,1925
9860,1917
9861,1965
9862,1920
9863,1867
9864,1805
9865,1772
9866,1760
9867,1778
9868,1793
9869,1781
9870,1805
9871,1891
9872,1936
9873,1956
9874,1943
9875,1936
9876,1918
9877,1903
9878,1947
9879,1893
9880,1863
9881,1781
9882,1786
9883,1758
9884,1774
9885,1759
9886,1782
9887,1823
9888,1925
9889,1959
9890,1941
9891,1955
9892,1948
9893,1911
9894,1899
9895,1904
9896,1921
9897,1849
9898,1787
9899,1744
9900,1774
9901,1771
9902,1766
9903,1775
9904,1874
9905,1915
9906,1937
9907,1936
9908,1955
9909,1927
9910,1920
9911,1895
9912,1869
9913,1889
9914,1815
9915,1798
9916,1767
9917,1767
9918,1799
9919,1710
9920,1829
9921,1872
9922,1936
9923,1958
9924,1947
9925,1947
9926,1899
9927,1903
9928,1934
9929,1918
9930,1838
9931,1786
9932,1759
9933,1755
9934,1776
9935,1771
9936,1761
9937,1840
9938,1857
9939,1966
9940,1945
9941,1968
9942,1929
9943,1921
9944,1927
9945,1908
9946,1877
9947,1865
9948,1773
9949,1749
9950,1766
9951,1787
9952,1745
9953,1763
9954,1895
9955,1917
9956,1958
9957,1930
9958,1939
9959,1919
9960,1895
9961,1904
9962,1904
9963,1853
9964,1828
9965,1807
9966,1773
9967,1775
9968,1797
9969,1722
9970,1768
9971,1883
9972,1938
9973,1962
9974,1952
9975,1936
9976,1918
9977,1919
9978,1936
9979,1882
9980,1886
9981,1798
9982,1773
9983,1767
9984,1783
9985,1827
9986,1738
9987,1795
9988,1907
9989,1946
9990,1957
9991,1963
9992,1941
9993,1905
9994,1885
9995,1936
9996,1838
9997,1857
9998,1778
9999,1761
10000,1744
10001,1789
10002,1789
10003,1771
10004,1810
10005,1935
10006,1958
10007,1936
10008,1951
10009,1907
10010,1906
10011,1917
10012,1884
10013,1887
10014,1819
10015,1762
10016,1764
10017,1771
10018,1793
10019,1744
10020,1731
10021,1883
10022,1978
10023,1959
10024,1943
10025,1956
10026,1931
10027,1904
10028,1911
10029,1889
10030,1839
10031,1792
10032,1771
10033,1761
10034,1762
10035,1792
10036,1686
10037,1877
10038,1936
10039,1939
10040,1943
10041,1946
10042,1933
10043,1919
10044,1902
10045,1923
10046,1830
10047,1776
10048,1771
10049,1743
10050,1742
10051,1797
10052,1744
10053,1737
10054,1856
10055,1915
10056,1946
10057,1936
10058,1941
10059,1922
10060,1901
10061,1940
10062,1931
10063,1862
10064,1831
10065,1792
10066,1760
10067,1754
10068,1795
10069,1773
10070,1789
10071,1831
10072,1943
10073,1954
10074,1965
10075,1939
10076,1904
10077,1887
10078,1956
10079,1887
10080,1877
10081,1814
10082,1759
10083,1744
10084,1776
10085,1738
10086,1695
10087,1791
10088,1937
10089,1955
10090,1955
10091,1951
10092,1943
10093,1915
10094,1889
10095,1936
10096,1835
10097,1786
10098,1777
10099,1767
10100,1763
10101,1780
10102,1763
10103,1796
10104,1795
10105,1925
10106,1942
10107,1921
10108,1943
10109,1925
10110,1909
10111,1936
10112,1927
10113,1883
10114,1830
10115,1780
10116,1756
10117,1776
10118,1779
10119,1753
10120,1838
10121,1919
10122,1910
10123,1975
10124,1959
10125,1947
10126,1915
10127,1895
10128,1932
10129,1906
10130,1834
10131,1803
10132,1779
10133,1764
10134,1777
10135,1737
10136,1745
10137,1804
10138,1913
10139,1948
10140,1947
10141,1950
10142,1943
10143,1929
10144,1899
10145,1931
10146,1916
10147,1838
10148,1778
10149,1775
10150,1759
10151,1782
10152,1762
10153,1807
10154,1898
10155,1936
10156,1965
10157,1935
10158,1948
10159,1923
10160,1915
10161,1919
10162,1889
10163,1840
10164,1846
10165,1783
10166,1762
10167,1762
10168,1788
10169,1757
10170,1792
10171,1935
10172,1936
10173,1965
10174,1939
10175,1937
10176,1904
10177,1902
10178,1938
10179,1884
10180,1822
10181,1792
10182,1781
10183,1754
10184,1777
10185,1809
10186,1741
10187,1807
10188,1926
10189,1965
10190,1951
10191,1954
10192,1934
10193,1908
10194,1903
10195,1899
10196,1857
10197,1830
10198,1776
10199,1773
10200,1777
10201,1783
10202,1750
10203,1741
10204,1845
10205,1885
10206,1945
10207,1927
10208,1938
10209,1922
10210,1910
10211,1885
10212,1872
10213,1841
10214,1811
10215,1782
10216,1762
10217,1765
10218,1802
10219,1761
10220,1794
10221,1810
10222,1949
10223,1949
10224,1943
10225,1936
10226,1904
10227,1893
10228,1909
10229,1814
10230,1841
10231,1794
10232,1782
10233,1750
10234,1784
10235,1785
10236,1738
10237,1813
10238,1919
10239,1958
10240,1938
10241,1962
10242,1954
10243,1920
10244,1903
10245,1927
10246,1879
10247,1807
10248,1781
10249,1758
10250,1758
10251,1786
10252,1755
10253,1744
10254,1904
10255,1911
10256,1938
10257,1949
10258,1938
10259,1918
10260,1915
10261,1910
10262,1903
10263,1898
10264,1830
10265,1786
10266,1776
10267,1772
10268,1794
10269,1776
10270,1807
10271,1892
10272,1927
10273,1956
10274,1933
10275,1936
10276,1909
10277,1904
10278,1927
10279,1872
10280,1894
10281,1792
10282,1780
10283,1765
10284,1797
10285,1840
10286,1771
10287,1869
10288,1968
10289,1938
10290,1955
10291,1958
10292,1945
10293,1915
10294,1886
10295,1901
10296,1879
10297,1835
10298,1781
10299,1765
10300,1758
10301,1781
10302,1742
10303,1805
10304,1885
10305,1936
10306,1957
10307,1946
10308,1937
10309,1926
10310,1915
10311,1942
10312,1878
10313,1838
10314,1829
10315,1775
10316,1753
10317,1763
10318,1792
10319,1737
10320,1795
10321,1913
10322,1904
10323,1938
10324,1940
10325,1943
10326,1913
10327,1900
10328,1904
10329,1870
10330,1840
10331,1798
10332,1776
10333,1759
10334,1781
10335,1793
10336,1769
10337,1851
10338,1911
10339,1975
10340,1091
10341,1857
10342,2047
10343,2210
10344,2201
10345,2240
10346,2155
10347,2160
10348,2122
10349,2128
10350,2087
10351,2102
10352,2023
10353,1855
10354,1719
10355,1510
10356,1402
10357,1274
10358,1239
10359,1364
10360,1535
10361,1717
10362,1850
10363,1828
10364,1815
10365,1802
10366,1778
10367,1798
10368,1806
10369,1712
10370,1814
10371,1162
10372,1706
10373,2071
10374,2277
10375,2288
10376,2235
10377,2198
10378,2213
10379,2247
10380,2245
10381,2229
10382,2174
10383,2031
10384,1733
10385,1438
10386,1173
10387,1247
10388,1234
10389,1383
10390,1597
10391,1759
10392,1853
10393,1872
10394,1887
10395,1920
10396,1923
10397,1811
10398,1841
10399,1812
10400,1793
10401,1846
10402,1403
10403,1500
10404,1933
10405,2252
10406,2415
10407,2441
10408,2384
10409,2320
10410,2384
10411,2487
10412,2381
10413,2098
10414,1791
10415,1381
10416,1011
10417,903
10418,903
10419,1101
10420,1439
10421,1741
10422,1889
10423,1935
10424,1969
10425,1982
10426,1943
10427,1953
10428,2010
10429,1950
10430,1914
10431,1862
10432,1855
10433,2479
10434,1358
10435,1904
10436,2031
10437,2315
10438,2354
10439,2430
10440,2373
10441,2498
10442,2635
10443,2446
10444,2080
10445,1835
10446,1395
10447,1074
10448,785
10449,821
10450,1152
10451,1469
10452,1600
10453,1687
10454,1849
10455,1968
10456,2013
10457,2002
10458,2019
10459,2014
10460,2011
10461,2091
10462,1983
10463,1898
10464,2545
10465,1181
10466,1754
10467,2066
10468,2458
10469,2427
10470,2331
10471,2361
10472,2602
10473,2699
10474,2338
10475,1947
10476,1577
10477,1199
10478,898
10479,742
10480,917
10481,1243
10482,1530
10483,1670
10484,1763
10485,1825
10486,1891
10487,1982
10488,2014
10489,2031
10490,2069
10491,2058
10492,2045
10493,2017
10494,1982
10495,1993
10496,1104
10497,1726
10498,1954
10499,2448
10500,2559
10501,2413
10502,2253
10503,2606
10504,2559
10505,2215
10506,1904
10507,1521
10508,1156
10509,785
10510,689
10511,1008
10512,1446
10513,1686
10514,1807
10515,1815
10516,1829
10517,1850
10518,1878
10519,1854
10520,1897
10521,1938
10522,2064
10523,2037
10524,2026
10525,2017
10526,1983
10527,1303
10528,1726
10529,2038
10530,2338
10531,2538
10532,2413
10533,2274
10534,2623
10535,2443
10536,1894
10537,1663
10538,1466
10539,1195
10540,906
10541,891
10542,1233
10543,1619
10544,1808
10545,1920
10546,1943
10547,1896
10548,1858
10549,1844
10550,1847
10551,1874
10552,1855
10553,1822
10554,1926
10555,2046
10556,2014
10557,1995
10558,2032
10559,1423
10560,1967
10561,2274
10562,2624
10563,2544
10564,2299
10565,2639
10566,2416
10567,1840
10568,1535
10569,1232
10570,1097
10571,925
10572,1072
10573,1426
10574,1747
10575,1915
10576,1936
10577,1949
10578,1995
10579,1953
10580,1919
10581,1877
10582,1862
10583,1855
10584,1851
10585,1840
10586,1803
10587,1901
10588,1991
10589,2857
10590,1216
10591,1937
10592,2193
10593,2586
10594,2610
10595,2441
10596,2737
10597,2534
10598,1833
10599,1501
10600,1229
10601,967
10602,848
10603,915
10604,1347
10605,1740
10606,1938
10607,1982
10608,2013
10609,2025
10610,2000
10611,1999
10612,1997
10613,1935
10614,1911
10615,1863
10616,1872
10617,1840
10618,1842
10619,1787
10620,1840
10621,1077
10622,1801
10623,2036
10624,2490
10625,2661
10626,2511
10627,2836
10628,2710
10629,2059
10630,1648
10631,1306
10632,965
10633,741
10634,817
10635,1214
10636,1569
10637,1822
10638,1972
10639,2015
10640,2017
10641,2029
10642,2008
10643,1976
10644,1977
10645,2032
10646,1900
10647,1905
10648,1856
10649,1807
10650,1799
10651,1813
10652,1120
10653,1518
10654,1905
10655,2286
10656,2689
10657,2604
10658,2832
10659,2802
10660,2113
10661,1782
10662,1461
10663,1103
10664,883
10665,804
10666,1137
10667,1535
10668,1765
10669,1777
10670,1849
10671,1984
10672,1997
10673,2026
10674,2006
10675,1998
10676,1995
10677,1985
10678,1995
10679,1975
10680,1907
10681,1872
10682,1842
10683,1385
10684,1452
10685,1803
10686,2037
10687,2480
10688,2452
10689,2682
10690,2868
10691,2265
10692,1902
10693,1531
10694,1197
10695,965
10696,1007
10697,1269
10698,1535
10699,1728
10700,1791
10701,1840
10702,1844
10703,1837
10704,1933
10705,2023
10706,2031
10707,2021
10708,2023
10709,2009
10710,1983
10711,2000
10712,1983
10713,1914
10714,2559
10715,1187
10716,1710
10717,2025
10718,2412
10719,2308
10720,2407
10721,2828
10722,2320
10723,1950
10724,1647
10725,1328
10726,1056
10727,1008
10728,1322
10729,1650
10730,1808
10731,1819
10732,1840
10733,1840
10734,1856
10735,1841
10736,1808
10737,1885
10738,1984
10739,2029
10740,2024
10741,2000
10742,1973
10743,1936
10744,1921
10745,2159
10746,1151
10747,1652
10748,1932
10749,2371
10750,2386
10751,2389
10752,2754
10753,2277
10754,1893
10755,1679
10756,1369
10757,1023
10758,953
10759,1254
10760,1645
10761,1865
10762,1879
10763,1889
10764,1882
10765,1849
10766,1808
10767,1810
10768,1845
10769,1802
10770,1872
10771,1925
10772,1978
10773,2015
10774,1994
10775,1994
10776,1965
10777,931
10778,1729
10779,1977
10780,2257
10781,2334
10782,2268
10783,2690
10784,2349
10785,1948
10786,1639
10787,1392
10788,1181
10789,1136
10790,1314
10791,1628
10792,1823
10793,1872
10794,1909
10795,1925
10796,1907
10797,1911
10798,1823
10799,1839
10800,1815
10801,1869
10802,1835
10803,1799
10804,1905
10805,1968
10806,1979
10807,1969
10808,1318
10809,1535
10810,1919
10811,2357
10812,2553
10813,2339
10814,2634
10815,2469
10816,1969
10817,1682
10818,1365
10819,1062
10820,946
10821,1179
10822,1509
10823,1830
10824,1910
10825,1957
10826,1941
10827,1969
10828,2000
10829,1952
10830,1917
10831,1869
10832,1841
10833,1842
10834,1851
10835,1866
10836,1826
10837,1869
10838,1979
10839,2166
10840,1421
10841,1902
10842,2320
10843,2614
10844,2435
10845,2666
10846,2703
10847,2047
10848,1701
10849,1357
10850,1067
10851,867
10852,941
10853,1315
10854,1680
10855,1892
10856,1978
10857,1989
10858,2012
10859,2000
10860,1975
10861,1974
10862,2007
10863,1920
10864,1887
10865,1853
10866,1819
10867,1826
10868,1836
10869,1814
10870,2774
10871,1277
10872,1773
10873,2203
10874,2608
10875,2455
10876,2559
10877,2768
10878,2256
10879,1872
10880,1595
10881,1216
10882,944
10883,943
10884,1315
10885,1637
10886,1703
10887,1806
10888,1907
10889,1989
10890,1998
10891,1989
10892,1978
10893,1956
10894,1961
10895,1987
10896,1931
10897,1851
10898,1840
10899,1811
10900,1794
10901,1823
10902,971
10903,1584
10904,1967
10905,2421
10906,2418
10907,2474
10908,2887
10909,2400
10910,1975
10911,1693
10912,1455
10913,1195
10914,1091
10915,1261
10916,1520
10917,1670
10918,1760
10919,1737
10920,1810
10921,1906
10922,1962
10923,1991
10924,1998
10925,1989
10926,1977
10927,1984
10928,2032
10929,1937
10930,1878
10931,1825
10932,1811
10933,1069
10934,1514
10935,1776
10936,2165
10937,2338
10938,2343
10939,2791
10940,2581
10941,2094
10942,1797
10943,1505
10944,1175
10945,1072
10946,1264
10947,1530
10948,1691
10949,1744
10950,1776
10951,1838
10952,1812
10953,1763
10954,1867
10955,1993
10956,2029
10957,2007
10958,2019
10959,1979
10960,1953
10961,1948
10962,1940
10963,1904
10964,1841
10965,1814
10966,1790
10967,1779
10968,1808
10969,1802
10970,1773
10971,1905
10972,1981
10973,1967
10974,1955
10975,1943
10976,1908
10977,1919
10978,1918
10979,1872
10980,1856
10981,1808
10982,1782
10983,1766
10984,1776
10985,1808
10986,1740
10987,1854
10988,1906
10989,1936
10990,1927
10991,1926
10992,1922
10993,1878
10994,1872
10995,1893
10996,1863
10997,1872
10998,1773
10999,1776
11000,1770
11001,1776
11002,1761
11003,1755
11004,1846
11005,1918
11006,1971
11007,1950
11008,1961
11009,1935
11010,1904
11011,1904
11012,1963
11013,1809
11014,1806
11015,1757
11016,1759
11017,1750
11018,1789
11019,1728
11020,1757
11021,1865
11022,1904
11023,1939
11024,1951
11025,1970
11026,1920
11027,1910
11028,1934
11029,1901
11030,1860
11031,1789
11032,1776
11033,1766
11034,1780
11035,1785
11036,1729
11037,1815
11038,1919
11039,1940
11040,1939
11041,1923
11042,1922
11043,1909
11044,1872
11045,1882
11046,1840
11047,1827
11048,1807
11049,1774
11050,1770
11051,1779
11052,1811
11053,1760
11054,1869
11055,1936
11056,1966
11057,1947
11058,1955
11059,1935
11060,1904
11061,1932
11062,1921
11063,1872
11064,1838
11065,1760
11066,1742
11067,1760
11068,1783
11069,1753
11070,1804
11071,1936
11072,1978
11073,1953
11074,1934
11075,1938
11076,1921
11077,1913
11078,1919
11079,1872
11080,1834
11081,1813
11082,1787
11083,1773
11084,1761
11085,1809
11086,1729
11087,1808
11088,1925
11089,1943
11090,1923
11091,1935
11092,1926
11093,1906
11094,1885
11095,1881
11096,1851
11097,1822
11098,1770
11099,1761
11100,1765
11101,1788
11102,1738
11103,1768
11104,1889
11105,1930
11106,1943
11107,1942
11108,1946
11109,1922
11110,1904
11111,1892
11112,1903
11113,1839
11114,1804
11115,1743
11116,1749
11117,1754
11118,1792
11119,1753
11120,1792
11121,1865
11122,1902
11123,1935
11124,1939
11125,1926
11126,1902
11127,1886
11128,1900
11129,1906
11130,1867
11131,1784
11132,1790
11133,1766
11134,1774
11135,1808
11136,1776
11137,1806
11138,1889
11139,1938
11140,1942
11141,1968
11142,1907
11143,1872
11144,1876
11145,1947
11146,1859
11147,1856
11148,1774
11149,1776
11150,1767
11151,1789
11152,1767
11153,1685
11154,1851
11155,1927
11156,1961
11157,1951
11158,1955
11159,1927
11160,1904
11161,1937
11162,1902
11163,1839
11164,1831
11165,1742
11166,1742
11167,1759
11168,1758
11169,1731
11170,1791
11171,1936
11172,1922
11173,1970
11174,1959
11175,1951
11176,1925
11177,1904
11178,1963
11179,1900
11180,1811
11181,1817
11182,1759
11183,1762
11184,1778
11185,1808
11186,1747
11187,1815
11188,1885
11189,1948
11190,1959
11191,1942
11192,1945
11193,1907
11194,1897
11195,1904
11196,1817
11197,1843
11198,1792
11199,1761
11200,1761
11201,1794
11202,1773
11203,1753
11204,1854
11205,1950
11206,1962
11207,1941
11208,1949
11209,1936
11210,1917
11211,1914
11212,1889
11213,1847
11214,1845
11215,1769
11216,1751
11217,1766
11218,1792
11219,1763
11220,1819
11221,1891
11222,1936
11223,1966
11224,1951
11225,1945
11226,1925
11227,1914
11228,1977
11229,1904
11230,1790
11231,1804
11232,1776
11233,1770
11234,1787
11235,1755
11236,1737
11237,1823
11238,1904
11239,1921
11240,1939
11241,1949
11242,1933
11243,1907
11244,1893
11245,1911
11246,1866
11247,1830
11248,1774
11249,1775
11250,1773
11251,1797
11252,1737
11253,1771
11254,1847
11255,1936
11256,1973
11257,1927
11258,1937
11259,1930
11260,1907
11261,1918
11262,1918
11263,1859
11264,1831
11265,1757
11266,1758
11267,1779
11268,1798
11269,1712
11270,1799
11271,1913
11272,1910
11273,1967
11274,1946
11275,1941
11276,1906
11277,1904
11278,1961
11279,1890
11280,1861
11281,1812
11282,1767
11283,1764
11284,1772
11285,1815
11286,1754
11287,1865
11288,1897
11289,1954
11290,1940
11291,1933
11292,1929
11293,1909
11294,1873
11295,1896
11296,1872
11297,1785
11298,1793
11299,1790
11300,1769
11301,1791
11302,1773
11303,1775
11304,1857
11305,1917
11306,1947
11307,1923
11308,1936
11309,1934
11310,1898
11311,1886
11312,1907
11313,1887
11314,1851
11315,1774
11316,1743
11317,1773
11318,1799
11319,1803
11320,1795
11321,1858
11322,1936
11323,1953
11324,1947
11325,1939
11326,1926
11327,1895
11328,1921
11329,1911
11330,1842
11331,1801
11332,1774
11333,1760
11334,1776
11335,1764
11336,1744
11337,1840
11338,1882
11339,1912
11340,1920
11341,1920
11342,1927
11343,1895
11344,1889
11345,1933
11346,1882
11347,1867
11348,1787
11349,1776
11350,1759
11351,1791
11352,1759
11353,1744
11354,1845
11355,1914
11356,1958
11357,1943
11358,1945
11359,1933
11360,1891
11361,1920
11362,1895
11363,1849
11364,1811
11365,1775
11366,1763
11367,1760
11368,1799
11369,1735
11370,1811
11371,1890
11372,1917
11373,1961
11374,1936
11375,1936
11376,1921
11377,1907
11378,1955
11379,1872
11380,1850
11381,1793
11382,1776
11383,1763
11384,1766
11385,1839
11386,1711
11387,1787
11388,1936
11389,1936
11390,1945
11391,1935
11392,1927
11393,1895
11394,1904
11395,1909
11396,1872
11397,1843
11398,1780
11399,1758
11400,1783
11401,1792
11402,1776
11403,1799
11404,1797
11405,1961
11406,1953
11407,1947
11408,1945
11409,1921
11410,1892
11411,1866
11412,1898
11413,1806
11414,1846
11415,1772
11416,1766
11417,1754
11418,1802
11419,1766
11420,1835
11421,1906
11422,1971
11423,1962
11424,1951
11425,1941
11426,1913
11427,1904
11428,1926
11429,1883
11430,1831
11431,1827
11432,1782
11433,1767
11434,1775
11435,1842
11436,1700
11437,1825
11438,1895
11439,1947
11440,1946
11441,1951
11442,1922
11443,1904
11444,1897
11445,1957
11446,1879
11447,1835
11448,1774
11449,1776
11450,1757
11451,1789
11452,1810
11453,1755
11454,1840
11455,1950
11456,1946
11457,1949
11458,1927
11459,1927
11460,1899
11461,1930
11462,1872
11463,1875
11464,1851
11465,1781
11466,1776
11467,1776
11468,1799
11469,1808
11470,1794
11471,1923
11472,1931
11473,1947
11474,1933
11475,1946
11476,1911
11477,1913
11478,1935
11479,1892
11480,1846
11481,1818
11482,1790
11483,1763
11484,1776
11485,1776
11486,1743
11487,1807
11488,1925
11489,1947
11490,1946
11491,1945
11492,1947
11493,1904
11494,1909
11495,1965
11496,1878
11497,1835
11498,1792
11499,1765
11500,1765
11501,1779
11502,1746
11503,1730
11504,1865
11505,1929
11506,1943
11507,1938
11508,1936
11509,1925
11510,1904
11511,1909
11512,1904
11513,1904
11514,1808
11515,1776
11516,1758
11517,1770
11518,1797
11519,1760
11520,1787
11521,1866
11522,1969
11523,1971
11524,1950
11525,1952
11526,1911
11527,1893
11528,1928
11529,1926
11530,1875
11531,1809
11532,1775
11533,1765
11534,1763
11535,1802
11536,1744
11537,1843
11538,1925
11539,1946
11540,1955
11541,1947
11542,1931
11543,1914
11544,1901
11545,1918
11546,1851
11547,1813
11548,1779
11549,1774
11550,1759
11551,1778
11552,1727
11553,1749
11554,1844
11555,1855
11556,1956
11557,1946
11558,1938
11559,1924
11560,1905
11561,1856
11562,1908
11563,1870
11564,1789
11565,1789
11566,1758
11567,1776
11568,1801
11569,1767
11570,1787
11571,1879
11572,1937
11573,1954
11574,1950
11575,1936
11576,1911
11577,1903
11578,1934
11579,1854
11580,1809
11581,1830
11582,1787
11583,1754
11584,1787
11585,1813
11586,1712
11587,1847
11588,1894
11589,1949
11590,1943
11591,1941
11592,1955
11593,1899
11594,1911
11595,1936
11596,1908
11597,1843
11598,1781
11599,1791
11600,1765
11601,1789
11602,1783
11603,1775
11604,1842
11605,1866
11606,1938
11607,1926
11608,1936
11609,1920
11610,1904
11611,1914
11612,1904
11613,1840
11614,1836
11615,1787
11616,1760
11617,1770
11618,1796
11619,1815
11620,1751
11621,1899
11622,1891
11623,1946
11624,1936
11625,1949
11626,1914
11627,1904
11628,1906
11629,1907
11630,1874
11631,1811
11632,1761
11633,1776
11634,1771
11635,1792
11636,1743
11637,1846
11638,1893
11639,1968
11640,1940
11641,1958
11642,1943
11643,1904
11644,1889
11645,1911
11646,1872
11647,1831
11648,1791
11649,1808
11650,1776
11651,1806
11652,1806
11653,1755
11654,1867
11655,1923
11656,1943
11657,1939
11658,1939
11659,1923
11660,1920
11661,1907
11662,1875
11663,1885
11664,1793
11665,1782
11666,1764
11667,1776
11668,1803
11669,1732
11670,1787
11671,1874
11672,1942
11673,1954
11674,1949
11675,1940
11676,1920
11677,1902
11678,1951
11679,1899
11680,1856
11681,1803
11682,1760
11683,1762
11684,1776
11685,1823
11686,1750
11687,1861
11688,1919
11689,1941
11690,1937
11691,1945
11692,1949
11693,1915
11694,1887
11695,1923
11696,1914
11697,1815
11698,1792
11699,1781
11700,1770
11701,1777
11702,1776
11703,1694
11704,1847
11705,1935
11706,1963
11707,1938
11708,1938
11709,1909
11710,1914
11711,1911
11712,1918
11713,1851
11714,1776
11715,1755
11716,1755
11717,1774
11718,1794
11719,1798
11720,1794
11721,1889
11722,1936
11723,1956
11724,1941
11725,1933
11726,1899
11727,1901
11728,1883
11729,1853
11730,1862
11731,1807
11732,1783
11733,1760
11734,1767
11735,1799
11736,1765
11737,1783
11738,1914
11739,1941
11740,1937
11741,1942
11742,1904
11743,1875
11744,1915
11745,1929
11746,1879
11747,1793
11748,1776
11749,1758
11750,1728
11751,1776
11752,1856
11753,1753
11754,1868
11755,1957
11756,1942
11757,1918
11758,1938
11759,1910
11760,1903
11761,1878
11762,1920
11763,1827
11764,1853
11765,1798
11766,1776
11767,1765
11768,1776
11769,1719
11770,1767
11771,1856
11772,1885
11773,1915
11774,1927
11775,1947
11776,1933
11777,1921
11778,1968
11779,1861
11780,1840
11781,1822
11782,1781
11783,1762
11784,1790
11785,1792
11786,1782
11787,1759
11788,1871
11789,1994
11790,1965
11791,1984
11792,1934
11793,1895
11794,1898
11795,1933
11796,1901
11797,1806
11798,1840
11799,1779
11800,1770
11801,1837
11802,1771
11803,1753
11804,1835
11805,1941
11806,1943
11807,1920
11808,1934
11809,1925
11810,1897
11811,1888
11812,1913
11813,1857
11814,1846
11815,1799
11816,1761
11817,1765
11818,1794
11819,1778
11820,1814
11821,1891
11822,1909
11823,1968
11824,1957
11825,1946
11826,1920
11827,1904
11828,1935
11829,1884
11830,1845
11831,1808
11832,1776
11833,1776
11834,1778
11835,1801
11836,1767
11837,1823
11838,1941
11839,1936
11840,1956
11841,1952
11842,1951
11843,1970
11844,1883
11845,1936
11846,1985
11847,1840
11848,1777
11849,1767
11850,1761
11851,1776
11852,1759
11853,1794
11854,1888
11855,1926
11856,1947
11857,1943
11858,1936
11859,1916
11860,1904
11861,1892
11862,1911
11863,1828
11864,1845
11865,1779
11866,1770
11867,1776
11868,1799
11869,1783
11870,1780
11871,1874
11872,1919
11873,1957
11874,1942
11875,1951
11876,1924
11877,1900
11878,1929
11879,1882
11880,1863
11881,1792
11882,1776
11883,1760
11884,1765
11885,1791
11886,1745
11887,1823
11888,1936
11889,1975
11890,1952
11891,1941
11892,1931
11893,1906
11894,1891
11895,1906
11896,1849
11897,1872
11898,1782
11899,1774
11900,1759
11901,1795
11902,1811
11903,1714
11904,1794
11905,1920
11906,1938
11907,1936
11908,1942
11909,1923
11910,1901
11911,1909
11912,1882
11913,1904
11914,1814
11915,1791
11916,1777
11917,1781
11918,1787
11919,1763
11920,1823
11921,1870
