Time(ms),Raw_ADC,ENV_Value,RMS,MDF,MW_Amp,MW_Area,MW_Latency,MW_Valid,Marker
0,1862.7,21.5,0.0,0.0,0.0,0.0,0.0,0,
100,1863.5,93.1,0.0,0.0,0.0,0.0,0.0,0,
200,1858.2,134.9,0.0,0.0,0.0,0.0,0.0,0,
300,1850.3,180.6,0.0,0.0,0.0,0.0,0.0,0,
400,1877.2,195.9,0.0,0.0,0.0,0.0,0.0,0,
500,1846.2,149.2,0.0,130.8,0.0,0.0,0.0,0,
600,1878.5,128.1,0.0,196.6,0.0,0.0,0.0,0,
700,1853.1,104.0,0.0,196.6,0.0,0.0,0.0,0,
800,1859.5,26.6,0.0,198.2,0.0,0.0,0.0,0,
900,1861.3,22.7,0.0,164.9,0.0,0.0,0.0,0,
1000,1859.8,21.3,0.0,132.2,0.0,0.0,0.0,0,
1100,1863.1,20.3,0.0,131.3,0.0,0.0,0.0,0,
1200,1862.0,22.4,0.0,212.9,0.0,0.0,0.0,0,
1300,1863.4,19.2,0.0,240.2,0.0,0.0,0.0,0,
1400,1862.6,21.7,0.0,240.1,0.0,0.0,0.0,0,
1500,1866.0,23.1,0.0,240.2,0.0,0.0,0.0,0,
1600,1864.0,20.9,167.5,240.4,0.0,0.0,0.0,0,
1700,1862.9,83.4,167.5,240.5,0.0,0.0,0.0,0,
1800,1868.5,88.7,168.1,240.3,0.0,0.0,0.0,0,
1900,1851.4,155.6,161.4,131.0,1281.0,4107.0,3.0,1,
2000,1873.6,143.6,160.7,105.6,1281.0,4107.0,3.0,1,
2100,1859.5,27.4,154.4,117.3,1244.0,3796.0,4.0,1,
2200,1850.4,141.6,142.2,130.3,1045.0,2731.0,2.0,0,
2300,1877.2,149.6,136.1,131.1,1152.0,2966.0,2.0,0,
2400,1850.8,28.5,134.5,135.4,1140.0,2619.0,2.0,0,
2600,1859.7,22.2,134.4,150.2,1140.0,2619.0,2.0,0,
2700,1864.5,24.5,134.4,124.1,1140.0,2619.0,2.0,0,
2800,1866.2,21.5,134.4,239.4,1140.0,2619.0,2.0,0,
2900,1858.7,22.4,134.5,240.5,1140.0,2619.0,2.0,0,
3000,1863.2,25.0,134.5,240.2,1140.0,2619.0,2.0,0,
3100,1863.0,21.6,134.5,240.2,1140.0,2619.0,2.0,0,
3200,1863.4,20.3,134.4,240.5,1140.0,2619.0,2.0,0,
3300,1861.3,21.4,134.4,240.4,1140.0,2619.0,2.0,0,
3400,1876.4,122.1,131.9,240.3,1326.0,3310.0,28.0,0,
3600,1848.8,173.7,123.3,251.8,1440.0,3381.0,28.0,0,
3700,1870.8,77.5,117.3,260.3,1134.0,2590.0,2.0,0,
3800,1848.9,205.2,127.4,226.8,1035.0,2435.0,2.0,0,
3900,1865.5,92.6,129.9,195.1,1088.0,2587.0,2.0,0,
4000,1861.2,28.3,122.6,219.9,1166.0,2748.0,2.0,0,
4100,1861.4,22.0,122.6,132.2,1166.0,2748.0,2.0,0,
4200,1860.8,21.3,122.6,196.3,1166.0,2748.0,2.0,0,
4300,1862.4,21.7,122.6,239.2,1166.0,2748.0,2.0,0,
4400,1861.8,21.8,122.6,240.0,1166.0,2748.0,2.0,0,
4600,1862.5,20.7,122.6,240.2,1166.0,2748.0,2.0,0,
4700,1861.5,19.7,122.6,240.2,1166.0,2748.0,2.0,0,
4800,1860.6,19.3,122.6,240.4,1166.0,2748.0,2.0,0,
4900,1862.5,20.9,122.6,240.4,1166.0,2748.0,2.0,0,
5000,1865.0,66.0,122.6,240.3,1023.0,3957.0,3.0,1,
5100,1853.3,132.2,120.4,240.2,1117.0,2978.0,2.0,0,
5200,1860.6,82.5,124.5,152.7,1317.0,3077.0,2.0,0,
5300,1862.7,132.0,117.6,150.0,1326.0,3420.0,28.0,0,
5400,1868.3,49.7,119.0,218.5,1215.0,2848.0,2.0,0,
5600,1875.3,38.5,124.2,205.1,972.0,2547.0,2.0,0,
5700,1863.7,25.9,124.1,154.0,972.0,2547.0,2.0,0,
5800,1863.9,22.6,124.1,132.4,972.0,2547.0,2.0,0,
5900,1860.5,20.7,124.1,226.2,972.0,2547.0,2.0,0,
6000,1861.9,20.7,124.1,240.9,972.0,2547.0,2.0,0,
6100,1863.0,21.3,124.1,240.4,972.0,2547.0,2.0,0,
6200,1863.4,24.7,124.1,240.6,972.0,2547.0,2.0,0,
6300,1862.5,22.9,124.2,240.7,972.0,2547.0,2.0,0,
6400,1862.6,20.6,124.1,240.5,972.0,2547.0,2.0,0,
6600,1861.6,16.8,124.2,240.4,977.0,4018.0,3.0,1,
6700,1860.2,110.9,123.0,240.3,1262.0,4785.0,4.0,1,
6800,1861.0,23.8,115.6,239.9,1241.0,3771.0,3.0,1,
6900,1857.7,56.4,105.4,74.4,1230.0,3945.0,4.0,1,
7000,1859.2,116.3,97.7,38.7,966.0,2475.0,2.0,0,
7100,1862.4,243.9,100.4,50.9,1170.0,3032.0,2.0,0,
7200,1853.1,68.3,97.8,225.8,858.0,2100.0,2.0,0,
7300,1871.5,25.8,99.3,206.2,858.0,2100.0,2.0,0,
7400,1863.4,21.2,99.3,130.2,858.0,2100.0,2.0,0,
7600,1862.8,19.8,99.4,219.8,858.0,2100.0,2.0,0,
7700,1860.5,21.4,99.4,240.4,858.0,2100.0,2.0,0,
7800,1863.3,20.8,99.4,240.4,858.0,2100.0,2.0,0,
7900,1860.2,23.1,99.4,240.5,858.0,2100.0,2.0,0,
8000,1861.9,19.9,99.4,240.3,858.0,2100.0,2.0,0,
8100,1860.9,21.8,99.3,240.1,858.0,2100.0,2.0,0,
8200,1862.7,18.6,99.3,240.2,856.0,3515.0,4.0,1,
8300,1868.4,22.2,99.4,240.3,1333.0,4499.0,3.0,1,
8400,1847.9,26.2,95.5,240.1,1161.0,3889.0,4.0,1,
8600,1854.7,95.7,101.4,38.5,1206.0,3702.0,4.0,1,
8700,1869.7,83.4,96.8,29.6,1210.0,2855.0,2.0,0,
8800,1853.6,143.8,82.3,37.3,1122.0,2468.0,2.0,0,
8900,1857.4,26.0,94.6,195.5,1122.0,2468.0,2.0,0,
9000,1859.2,23.9,94.6,163.6,1122.0,2468.0,2.0,0,
9100,1860.6,19.8,94.6,94.5,1122.0,2468.0,2.0,0,
9200,1861.0,21.9,94.5,88.8,1122.0,2468.0,2.0,0,
9300,1863.5,22.0,94.5,237.5,1122.0,2468.0,2.0,0,
9400,1861.5,21.5,94.5,240.2,1122.0,2468.0,2.0,0,
9600,1860.7,24.7,94.5,240.5,1122.0,2468.0,2.0,0,
9700,1862.5,22.3,94.5,240.3,1122.0,2468.0,2.0,0,
9800,1862.5,89.0,94.5,240.2,1122.0,2468.0,2.0,0,
9900,1861.8,144.5,98.9,240.2,799.0,2659.0,2.0,0,
10000,1889.1,224.9,110.6,158.0,1408.0,3503.0,2.0,0,
10100,1834.4,145.3,131.5,195.2,1535.0,3730.0,28.0,0,
10200,1876.5,134.7,136.3,202.3,1263.0,3027.0,2.0,0,
10300,1850.8,185.5,146.3,135.0,1071.0,2714.0,28.0,0,
10400,1874.4,106.2,150.9,197.0,1163.0,2737.0,2.0,0,
10600,1860.4,25.3,142.7,158.6,1163.0,2737.0,2.0,0,
10700,1858.7,23.5,142.7,233.6,1163.0,2737.0,2.0,0,
10800,1862.0,21.1,142.7,239.9,1163.0,2737.0,2.0,0,
10900,1863.9,20.8,142.6,240.4,1163.0,2737.0,2.0,0,
11000,1861.5,20.3,142.6,240.6,1163.0,2737.0,2.0,0,
11100,1864.4,20.4,142.6,240.4,1163.0,2737.0,2.0,0,
11200,1863.4,23.6,142.6,240.4,1163.0,2737.0,2.0,0,
11300,1864.4,26.1,142.6,240.5,1163.0,2737.0,2.0,0,
11400,1862.0,19.3,142.6,240.6,1163.0,2737.0,2.0,0,
11600,1850.7,140.9,137.1,240.4,1179.0,3255.0,2.0,0,
11700,1878.0,236.2,126.6,158.1,1348.0,3717.0,2.0,0,
11800,1845.8,186.0,134.2,163.2,1435.0,3394.0,28.0,0,
11900,1880.6,61.8,133.3,211.9,1299.0,2989.0,2.0,0,
12000,1845.4,171.5,132.8,132.2,1166.0,2621.0,2.0,0,
12100,1867.9,38.3,136.3,155.7,1242.0,2727.0,2.0,0,
12200,1864.0,23.1,136.3,173.8,1242.0,2727.0,2.0,0,
12300,1858.9,21.1,136.3,130.4,1242.0,2727.0,2.0,0,
12400,1859.2,23.5,136.3,133.1,1242.0,2727.0,2.0,0,
12600,1861.3,22.1,136.3,240.3,1242.0,2727.0,2.0,0,
12700,1862.3,20.9,136.3,240.5,1242.0,2727.0,2.0,0,
12800,1862.4,24.3,136.3,240.5,1242.0,2727.0,2.0,0,
12900,1861.6,21.5,136.3,240.6,1242.0,2727.0,2.0,0,
13000,1862.3,19.3,136.3,240.5,1242.0,2727.0,2.0,0,
13100,1862.7,51.6,136.3,240.5,926.0,3428.0,3.0,1,
13200,1850.6,149.5,137.3,240.2,1255.0,4394.0,3.0,1,
13300,1878.3,125.9,132.0,82.3,1366.0,3418.0,2.0,0,
13400,1858.6,189.1,125.9,69.7,1399.0,3320.0,2.0,0,
13600,1879.0,177.8,132.8,213.1,1245.0,2965.0,2.0,0,
13700,1847.4,56.9,131.5,155.3,1141.0,2342.0,2.0,0,
13800,1859.0,21.5,133.2,166.5,1141.0,2342.0,2.0,0,
13900,1861.0,20.8,133.1,132.0,1141.0,2342.0,2.0,0,
14000,1863.7,22.4,133.1,74.9,1141.0,2342.0,2.0,0,
14100,1863.3,20.3,133.1,85.7,1141.0,2342.0,2.0,0,
14200,1865.0,20.8,133.1,240.1,1141.0,2342.0,2.0,0,
14300,1865.8,22.0,133.0,240.4,1141.0,2342.0,2.0,0,
14400,1862.0,20.6,133.0,240.6,1141.0,2342.0,2.0,0,
14600,1862.9,25.4,132.9,240.7,1141.0,2342.0,2.0,0,
14700,1865.5,108.4,132.9,240.7,944.0,3962.0,4.0,1,
14800,1868.8,94.3,137.2,240.4,1086.0,3285.0,2.0,0,rest_end
14900,1858.3,172.4,140.4,239.5,1223.0,3120.0,2.0,0,
15000,1856.0,148.9,144.7,249.7,1113.0,3219.0,2.0,0,
15100,1873.7,186.6,137.6,228.6,1197.0,2814.0,2.0,0,
15200,1854.3,142.6,136.6,170.6,1481.0,3629.0,28.0,0,
15300,1879.3,41.0,134.1,221.4,1164.0,2849.0,2.0,0,
15400,1858.1,23.0,128.8,167.3,1164.0,2849.0,2.0,0,
15600,1861.8,19.0,128.9,259.0,1164.0,2849.0,2.0,0,
15700,1859.4,21.0,128.9,240.7,1164.0,2849.0,2.0,0,
15800,1861.7,19.1,128.9,240.6,1164.0,2849.0,2.0,0,
15900,1862.0,21.2,129.0,240.4,1164.0,2849.0,2.0,0,
16000,1861.7,20.4,129.0,240.4,1164.0,2849.0,2.0,0,
16100,1863.2,20.2,129.0,240.5,1164.0,2849.0,2.0,0,
16200,1864.6,21.4,129.0,240.6,1164.0,2849.0,2.0,0,
16300,1861.7,25.2,129.0,240.4,962.0,4067.0,3.0,1,
16400,1851.5,96.0,126.4,240.3,1161.0,4276.0,4.0,1,
16600,1863.0,191.0,118.2,239.0,1123.0,3318.0,2.0,0,
16700,1853.9,120.5,122.7,258.8,1510.0,3585.0,28.0,0,
16800,1878.0,118.5,119.1,226.9,1133.0,2769.0,2.0,0,
16900,1848.7,84.3,121.2,163.3,992.0,2346.0,2.0,0,
17000,1867.4,22.6,120.7,228.1,992.0,2346.0,2.0,0,
17100,1860.8,22.5,120.6,203.6,992.0,2346.0,2.0,0,
17200,1865.0,23.2,120.6,132.1,992.0,2346.0,2.0,0,
17300,1863.4,21.5,120.6,153.6,992.0,2346.0,2.0,0,
17400,1863.8,20.5,120.5,240.4,992.0,2346.0,2.0,0,
17600,1863.9,21.9,120.6,240.5,992.0,2346.0,2.0,0,
17700,1861.9,22.0,120.6,240.5,992.0,2346.0,2.0,0,
17800,1862.3,19.9,120.6,240.5,992.0,2346.0,2.0,0,
17900,1863.8,20.5,120.5,240.5,992.0,2346.0,2.0,0,
18000,1885.5,41.1,123.5,240.2,993.0,3778.0,3.0,1,
18100,1834.0,105.7,124.7,72.8,1104.0,4077.0,4.0,1,
18200,1866.6,113.5,121.6,29.9,1262.0,3174.0,2.0,0,
18300,1862.7,205.3,113.9,37.1,907.0,2868.0,2.0,0,
18400,1857.5,147.8,123.6,142.8,1133.0,3077.0,2.0,0,
18600,1851.5,27.3,131.5,164.3,992.0,2182.0,2.0,0,
18700,1860.6,20.9,131.5,198.3,992.0,2182.0,2.0,0,
18800,1862.0,19.3,131.5,134.9,992.0,2182.0,2.0,0,
18900,1862.7,24.5,131.5,99.2,992.0,2182.0,2.0,0,
19000,1864.2,20.5,131.5,197.8,992.0,2182.0,2.0,0,
19100,1863.4,21.0,131.5,240.8,992.0,2182.0,2.0,0,
19200,1865.9,21.6,131.5,240.7,992.0,2182.0,2.0,0,
19300,1866.3,18.8,131.4,240.6,992.0,2182.0,2.0,0,
19400,1860.4,21.0,131.5,240.5,992.0,2182.0,2.0,0,
19600,1856.3,134.2,131.5,240.3,1220.0,3214.0,28.0,0,
19700,1874.0,236.5,131.8,240.4,1570.0,3804.0,2.0,0,
19800,1844.9,225.7,147.9,240.6,1124.0,2828.0,2.0,0,
19900,1875.2,93.3,151.2,221.5,1139.0,2673.0,2.0,0,
20000,1854.1,209.7,149.1,163.2,1284.0,3394.0,2.0,0,
20100,1852.6,148.3,157.3,165.8,1201.0,3047.0,2.0,0,
20200,1872.6,28.4,149.4,198.1,1220.0,3052.0,2.0,0,
20300,1858.2,19.1,149.4,132.6,1220.0,3052.0,2.0,0,
20400,1857.8,20.0,149.5,158.7,1220.0,3052.0,2.0,0,
20600,1862.1,22.6,149.5,240.2,1220.0,3052.0,2.0,0,
20700,1864.5,20.6,149.5,240.5,1220.0,3052.0,2.0,0,
20800,1863.3,20.8,149.5,240.4,1220.0,3052.0,2.0,0,
20900,1863.1,19.3,149.5,240.4,1220.0,3052.0,2.0,0,
21000,1861.7,17.7,149.5,240.3,1220.0,3052.0,2.0,0,
21100,1862.7,22.0,149.5,240.3,1220.0,3052.0,2.0,0,
21200,1854.2,23.7,149.5,240.2,1067.0,4131.0,3.0,1,
21300,1859.2,30.3,145.6,240.1,1364.0,4904.0,3.0,1,
21400,1865.4,28.3,131.4,239.3,1240.0,4187.0,3.0,1,
21600,1862.9,243.1,109.7,42.9,1140.0,3007.0,2.0,0,
21700,1864.6,256.4,107.4,87.0,1102.0,3115.0,2.0,0,
21800,1852.0,42.5,114.8,167.8,1186.0,2784.0,2.0,0,
21900,1864.2,20.0,115.7,187.8,1186.0,2784.0,2.0,0,
22000,1860.0,22.3,115.7,130.0,1186.0,2784.0,2.0,0,
22100,1861.8,18.6,115.7,93.2,1186.0,2784.0,2.0,0,
22200,1861.8,21.0,115.7,108.8,1186.0,2784.0,2.0,0,
22300,1864.0,22.4,115.6,240.2,1186.0,2784.0,2.0,0,
22400,1860.5,20.2,115.7,240.3,1186.0,2784.0,2.0,0,
22600,1862.1,19.6,115.7,240.3,1186.0,2784.0,2.0,0,
22700,1860.5,20.6,115.7,240.3,1186.0,2784.0,2.0,0,
22800,1863.0,59.4,115.7,240.4,1011.0,3873.0,4.0,1,
22900,1875.0,34.5,123.3,231.0,1453.0,4938.0,3.0,1,
23000,1847.3,33.5,122.3,43.0,1317.0,4291.0,3.0,1,
23100,1878.4,33.1,122.3,43.6,1232.0,3741.0,3.0,1,
23200,1850.7,26.2,117.6,49.2,1181.0,4116.0,4.0,1,
23300,1865.5,36.8,97.8,84.7,1193.0,3855.0,3.0,1,
23400,1863.3,22.3,61.9,70.4,1229.0,3972.0,3.0,1,
23600,1861.4,20.4,55.5,86.1,1229.0,3972.0,3.0,1,
23700,1861.1,21.9,55.4,238.4,1229.0,3972.0,3.0,1,
23800,1862.8,20.7,55.5,240.3,1229.0,3972.0,3.0,1,
23900,1861.9,23.0,55.5,240.3,1229.0,3972.0,3.0,1,
24000,1863.9,20.3,55.5,240.5,1229.0,3972.0,3.0,1,
24100,1864.1,20.9,55.5,240.7,1229.0,3972.0,3.0,1,
24200,1861.8,23.4,55.5,240.5,1229.0,3972.0,3.0,1,
24300,1862.2,23.9,55.7,240.3,1229.0,3972.0,3.0,1,
24400,1862.9,23.3,55.7,240.2,969.0,4006.0,4.0,1,
24600,1879.6,114.2,60.6,215.1,1629.0,3889.0,2.0,0,
24700,1837.8,155.2,91.3,135.3,1114.0,2968.0,2.0,0,
24800,1876.4,102.6,103.1,164.3,1149.0,2830.0,2.0,0,
24900,1854.8,193.0,112.9,164.3,1007.0,2685.0,2.0,0,
25000,1871.0,68.0,131.3,209.1,1083.0,2680.0,2.0,0,
25100,1863.7,20.6,133.6,209.9,1083.0,2680.0,2.0,0,
25200,1857.6,20.6,133.6,156.2,1083.0,2680.0,2.0,0,
25300,1862.7,22.9,133.6,197.2,1083.0,2680.0,2.0,0,
25400,1863.3,21.0,133.6,263.2,1083.0,2680.0,2.0,0,
25600,1862.0,21.0,133.7,240.4,1083.0,2680.0,2.0,0,
25700,1860.2,20.0,133.7,240.4,1083.0,2680.0,2.0,0,
25800,1862.0,21.8,133.7,240.4,1083.0,2680.0,2.0,0,
25900,1861.9,24.2,133.7,240.6,1083.0,2680.0,2.0,0,
26000,1862.2,49.1,133.7,240.6,1083.0,2680.0,2.0,0,
26100,1855.3,24.1,133.6,240.5,915.0,3457.0,4.0,1,
26200,1848.8,152.9,126.8,239.3,1130.0,3359.0,2.0,0,
26300,1880.3,170.4,120.2,87.8,1262.0,3234.0,2.0,0,
26400,1844.3,203.8,123.5,131.7,1164.0,3177.0,28.0,0,
26600,1851.0,157.9,122.9,164.7,995.0,2634.0,2.0,0,
26700,1859.6,25.9,127.9,195.8,995.0,2634.0,2.0,0,
26800,1859.8,22.4,127.9,195.9,995.0,2634.0,2.0,0,
26900,1862.7,21.0,127.9,102.7,995.0,2634.0,2.0,0,
27000,1861.5,23.6,127.9,93.7,995.0,2634.0,2.0,0,
27100,1863.7,19.4,127.9,238.4,995.0,2634.0,2.0,0,
27200,1860.6,19.9,127.9,240.5,995.0,2634.0,2.0,0,
27300,1860.4,21.6,127.9,240.4,995.0,2634.0,2.0,0,
27400,1864.0,20.5,127.9,240.5,995.0,2634.0,2.0,0,
27600,1862.6,59.3,127.8,240.5,995.0,2634.0,2.0,0,
27700,1860.7,123.9,129.9,240.3,805.0,2482.0,2.0,0,
27800,1871.8,251.4,139.4,201.0,1337.0,3645.0,2.0,0,
27900,1851.8,161.7,151.6,201.4,1450.0,3791.0,28.0,0,
28000,1872.9,181.0,148.8,195.6,1118.0,2916.0,2.0,0,
28100,1849.8,179.6,152.1,156.9,1026.0,2889.0,2.0,0,
28200,1866.9,202.4,152.8,197.6,1193.0,2914.0,2.0,0,
28300,1859.9,33.9,150.2,195.8,942.0,2287.0,2.0,0,
28400,1861.7,18.6,150.3,159.1,942.0,2287.0,2.0,0,
28600,1860.0,18.9,150.3,146.8,942.0,2287.0,2.0,0,
28700,1861.2,20.4,150.2,158.6,942.0,2287.0,2.0,0,
28800,1862.3,21.5,150.2,240.3,942.0,2287.0,2.0,0,
28900,1860.5,22.7,150.3,240.3,942.0,2287.0,2.0,0,
29000,1864.8,22.9,150.2,240.2,942.0,2287.0,2.0,0,
29100,1862.8,19.8,150.3,240.4,942.0,2287.0,2.0,0,
29200,1862.8,20.1,150.3,240.4,942.0,2287.0,2.0,0,
29300,1869.7,16.8,149.6,240.0,1156.0,4323.0,3.0,1,
29400,1843.0,111.4,143.4,240.0,1349.0,4239.0,28.0,0,
29600,1849.2,164.9,132.5,263.8,1520.0,3538.0,28.0,0,
29700,1882.9,212.0,129.1,262.8,1114.0,2824.0,2.0,0,
29800,1840.8,162.8,133.6,225.7,1058.0,2823.0,2.0,0,
29900,1873.0,34.3,132.1,219.7,1166.0,2779.0,2.0,0,
30000,1862.4,20.2,130.6,167.0,1166.0,2779.0,2.0,0,
30100,1860.7,19.4,130.6,156.1,1166.0,2779.0,2.0,0,
30200,1861.2,19.1,130.7,232.8,1166.0,2779.0,2.0,0,
30300,1864.0,20.0,130.6,243.1,1166.0,2779.0,2.0,0,
30400,1862.4,22.1,130.6,240.5,1166.0,2779.0,2.0,0,
30600,1863.3,21.7,130.6,240.2,1166.0,2779.0,2.0,0,
30700,1864.0,21.1,130.6,240.3,1166.0,2779.0,2.0,0,
30800,1862.3,20.8,130.6,240.4,1166.0,2779.0,2.0,0,
30900,1862.4,39.9,130.6,240.4,987.0,4074.0,3.0,1,
31000,1865.7,25.4,130.5,240.3,1255.0,5083.0,4.0,1,
31100,1853.4,124.4,122.8,239.4,1063.0,3116.0,2.0,0,
31200,1866.2,163.5,120.7,196.3,1232.0,3342.0,2.0,0,
31300,1847.2,157.1,123.9,239.4,1212.0,3636.0,2.0,0,
31400,1878.6,138.5,117.7,228.7,1176.0,3005.0,2.0,0,
31600,1859.5,24.5,121.0,198.2,1176.0,3005.0,2.0,0,
31700,1859.8,19.7,121.0,157.7,1176.0,3005.0,2.0,0,
31800,1860.1,20.8,121.0,93.4,1176.0,3005.0,2.0,0,
31900,1864.3,21.0,121.0,86.7,1176.0,3005.0,2.0,0,
32000,1860.8,19.5,121.1,239.9,1176.0,3005.0,2.0,0,
32100,1861.0,22.0,121.0,240.3,1176.0,3005.0,2.0,0,
32200,1863.1,20.9,121.1,240.5,1176.0,3005.0,2.0,0,
32300,1865.6,21.2,121.1,240.6,1176.0,3005.0,2.0,0,
32400,1862.9,24.3,121.1,240.6,1176.0,3005.0,2.0,0,
32600,1877.0,104.2,127.5,240.4,792.0,2481.0,2.0,0,
32700,1853.1,150.1,135.0,227.0,1200.0,3519.0,2.0,0,
32800,1854.5,149.6,140.8,230.1,1285.0,3156.0,2.0,0,
32900,1876.3,222.3,136.4,226.5,1520.0,3581.0,2.0,0,
33000,1853.6,166.9,144.4,196.4,1532.0,3496.0,28.0,0,
33100,1870.5,46.4,143.3,226.8,1233.0,3000.0,2.0,0,
33200,1861.7,20.1,136.5,164.8,1233.0,3000.0,2.0,0,
33300,1861.1,20.0,136.5,194.7,1233.0,3000.0,2.0,0,
33400,1860.9,20.5,136.5,239.3,1233.0,3000.0,2.0,0,
33600,1864.5,21.6,136.4,240.2,1233.0,3000.0,2.0,0,
33700,1863.8,21.4,136.4,240.3,1233.0,3000.0,2.0,0,
33800,1863.0,21.1,136.4,240.3,1233.0,3000.0,2.0,0,
33900,1862.2,21.4,136.4,240.4,1233.0,3000.0,2.0,0,
34000,1862.3,18.4,136.3,240.4,1233.0,3000.0,2.0,0,
34100,1860.0,25.6,136.3,240.4,814.0,3851.0,3.0,1,
34200,1848.0,135.0,133.5,240.4,761.0,2702.0,2.0,0,
34300,1865.8,98.2,131.9,239.3,1247.0,3398.0,2.0,0,
34400,1867.5,219.2,129.9,43.7,1254.0,3569.0,2.0,0,
34600,1873.2,201.1,125.7,194.9,1177.0,3277.0,2.0,0,
34700,1851.1,115.4,136.2,164.3,1197.0,3018.0,2.0,0,
34800,1874.9,28.0,136.3,226.1,1197.0,3018.0,2.0,0,
34900,1863.6,19.5,136.3,159.1,1197.0,3018.0,2.0,0,
35000,1860.0,21.7,136.3,154.4,1197.0,3018.0,2.0,0,
35100,1862.0,20.0,136.3,207.5,1197.0,3018.0,2.0,0,
35200,1864.7,23.2,136.3,240.3,1197.0,3018.0,2.0,0,
35300,1864.8,21.6,136.3,240.5,1197.0,3018.0,2.0,0,
35400,1862.9,21.0,136.3,240.6,1197.0,3018.0,2.0,0,
35600,1863.1,25.8,136.3,240.7,1197.0,3018.0,2.0,0,
35700,1865.2,25.5,136.4,240.6,1197.0,3018.0,2.0,0,
35800,1870.1,22.3,136.3,240.5,947.0,3412.0,3.0,1,
35900,1854.0,107.2,133.2,240.1,1355.0,4606.0,4.0,1,
36000,1857.3,97.0,128.2,215.0,1202.0,3340.0,2.0,0,
36100,1862.1,208.3,123.0,99.7,1130.0,3224.0,2.0,0,
36200,1850.5,138.8,131.5,196.6,1167.0,3055.0,2.0,0,
36300,1878.3,243.9,122.1,194.8,1558.0,3737.0,2.0,0,
36400,1844.9,31.4,129.7,157.3,1042.0,2571.0,2.0,0,
36600,1862.3,21.4,129.7,133.6,1042.0,2571.0,2.0,0,
36700,1863.8,18.9,129.7,98.9,1042.0,2571.0,2.0,0,
36800,1861.1,20.1,129.7,164.1,1042.0,2571.0,2.0,0,
36900,1863.6,22.7,129.7,240.3,1042.0,2571.0,2.0,0,
37000,1863.7,23.0,129.7,240.3,1042.0,2571.0,2.0,0,
37100,1863.2,21.0,129.6,240.4,1042.0,2571.0,2.0,0,
37200,1865.3,19.9,129.6,240.5,1042.0,2571.0,2.0,0,
37300,1863.2,19.5,129.6,240.6,1042.0,2571.0,2.0,0,
37400,1857.6,104.4,129.5,240.5,1041.0,4327.0,4.0,1,
37600,1861.4,209.9,141.8,242.4,1135.0,3351.0,2.0,0,
37700,1867.6,235.7,148.0,239.5,1038.0,2954.0,2.0,0,
37800,1858.0,173.8,143.9,187.7,1208.0,3466.0,2.0,0,
37900,1852.3,147.9,149.9,158.2,1209.0,3292.0,2.0,0,
38000,1877.4,27.8,140.3,196.7,1131.0,3054.0,2.0,0,
38100,1864.7,18.3,140.4,158.1,1131.0,3054.0,2.0,0,
38200,1863.3,20.7,140.4,188.6,1131.0,3054.0,2.0,0,
38300,1862.8,20.6,140.4,253.8,1131.0,3054.0,2.0,0,
38400,1861.8,19.8,140.4,241.7,1131.0,3054.0,2.0,0,
38600,1863.1,22.8,140.4,240.7,1131.0,3054.0,2.0,0,
38700,1861.8,23.1,140.4,240.4,1131.0,3054.0,2.0,0,
38800,1863.4,19.4,140.4,240.4,1131.0,3054.0,2.0,0,
38900,1862.3,18.7,140.4,240.4,1131.0,3054.0,2.0,0,
39000,1862.4,19.8,140.4,240.5,1048.0,4008.0,3.0,1,
39100,1855.5,126.6,137.5,240.5,959.0,3924.0,4.0,1,
39200,1863.5,106.6,133.7,239.6,1148.0,3269.0,2.0,0,
39300,1855.5,205.6,128.3,150.2,1151.0,3456.0,2.0,0,
39400,1853.7,163.2,134.8,214.7,1069.0,2830.0,2.0,0,
39600,1854.7,54.6,136.3,134.8,1094.0,2894.0,2.0,0,
39700,1852.5,21.8,138.9,207.6,1094.0,2894.0,2.0,0,
39800,1859.7,20.5,139.0,153.4,1094.0,2894.0,2.0,0,
39900,1861.7,21.8,139.0,94.0,1094.0,2894.0,2.0,0,
40000,1863.5,17.3,138.9,92.9,1094.0,2894.0,2.0,0,
40100,1862.3,21.2,138.9,240.3,1094.0,2894.0,2.0,0,
40200,1859.0,22.5,139.0,240.5,1094.0,2894.0,2.0,0,
40300,1863.0,23.6,139.0,240.3,1094.0,2894.0,2.0,0,
40400,1864.2,19.8,139.0,240.2,1094.0,2894.0,2.0,0,
40600,1864.7,117.5,139.0,240.5,883.0,3749.0,3.0,1,
40700,1869.6,188.9,144.5,240.0,725.0,2315.0,2.0,0,
40800,1862.8,189.9,151.8,184.0,960.0,2921.0,2.0,0,
40900,1853.7,153.6,156.5,226.0,1059.0,3469.0,2.0,0,
41000,1886.9,219.5,145.3,218.8,1454.0,3627.0,2.0,0,
41100,1837.8,160.8,151.3,189.1,1328.0,3583.0,28.0,0,
41200,1879.9,76.2,145.0,225.9,955.0,2393.0,2.0,0,
41300,1863.3,24.2,144.3,166.4,955.0,2393.0,2.0,0,
41400,1861.9,22.9,144.3,157.4,955.0,2393.0,2.0,0,
41600,1860.0,21.9,144.3,89.0,955.0,2393.0,2.0,0,
41700,1861.3,24.7,144.4,239.8,955.0,2393.0,2.0,0,
41800,1863.3,22.9,144.3,240.4,955.0,2393.0,2.0,0,
41900,1865.0,21.6,144.3,240.3,955.0,2393.0,2.0,0,
42000,1861.4,21.4,144.3,240.2,955.0,2393.0,2.0,0,
42100,1864.3,22.6,144.2,240.2,955.0,2393.0,2.0,0,
42200,1861.7,27.7,144.3,240.3,864.0,3684.0,3.0,1,
42300,1856.0,119.4,141.6,240.6,874.0,3371.0,3.0,1,
42400,1868.0,239.1,132.3,240.1,1263.0,4006.0,2.0,0,
42600,1846.1,167.3,146.3,158.2,1282.0,3576.0,28.0,0,
42700,1883.1,147.4,139.2,195.4,1151.0,2933.0,2.0,0,
42800,1849.7,102.6,140.7,164.4,1161.0,3027.0,2.0,0,
42900,1859.2,24.7,139.6,226.0,1161.0,3027.0,2.0,0,
43000,1859.5,22.1,139.6,165.2,1161.0,3027.0,2.0,0,
43100,1860.7,21.0,139.6,93.7,1161.0,3027.0,2.0,0,
43200,1863.6,23.8,139.6,67.8,1161.0,3027.0,2.0,0,
43300,1863.3,24.6,139.5,239.7,1161.0,3027.0,2.0,0,
43400,1864.0,22.8,139.5,240.2,1161.0,3027.0,2.0,0,
43600,1864.7,18.5,139.5,240.4,1161.0,3027.0,2.0,0,
43700,1862.9,21.3,139.5,240.5,1161.0,3027.0,2.0,0,
43800,1860.7,97.9,139.5,240.5,1161.0,3027.0,2.0,0,
43900,1882.5,187.6,142.2,240.4,847.0,2648.0,2.0,0,
44000,1845.5,178.8,153.3,239.9,1168.0,3476.0,2.0,0,
44100,1854.1,199.2,155.3,194.7,1067.0,3113.0,2.0,0,
44200,1880.3,233.8,149.7,152.9,1524.0,3932.0,2.0,0,
44300,1852.6,238.2,155.3,169.6,1340.0,3518.0,28.0,0,
44400,1865.0,221.7,157.5,253.2,1463.0,3566.0,2.0,0,
44600,1860.2,23.0,162.2,164.1,1463.0,3566.0,2.0,0,
44700,1863.7,23.2,162.1,94.7,1463.0,3566.0,2.0,0,
44800,1862.7,21.2,162.2,89.6,1463.0,3566.0,2.0,0,
44900,1863.3,22.1,162.1,202.9,1463.0,3566.0,2.0,0,
45000,1862.9,22.4,162.1,240.2,1463.0,3566.0,2.0,0,
45100,1863.0,23.3,162.1,240.2,1463.0,3566.0,2.0,0,
45200,1861.4,23.8,162.2,240.2,1463.0,3566.0,2.0,0,
45300,1863.8,19.5,162.2,240.4,1463.0,3566.0,2.0,0,
45400,1863.3,19.7,162.2,240.5,1463.0,3566.0,2.0,0,
45600,1860.9,42.5,153.9,240.2,1471.0,5350.0,3.0,1,
45700,1872.2,38.2,137.7,237.7,1168.0,4247.0,4.0,1,
45800,1845.6,134.0,125.8,47.1,1083.0,3358.0,2.0,0,
45900,1873.9,171.2,113.9,81.7,1311.0,3681.0,2.0,0,
46000,1850.0,168.8,115.0,123.5,1360.0,3587.0,28.0,0,
46100,1874.4,30.9,99.3,194.6,1227.0,3015.0,2.0,0,
46200,1861.0,22.5,99.4,164.5,1227.0,3015.0,2.0,0,
46300,1860.2,23.3,99.4,188.7,1227.0,3015.0,2.0,0,
46400,1863.7,20.9,99.3,253.6,1227.0,3015.0,2.0,0,
46600,1862.7,23.2,99.3,240.4,1227.0,3015.0,2.0,0,
46700,1861.5,24.0,99.4,240.4,1227.0,3015.0,2.0,0,
46800,1862.4,19.6,99.3,240.6,1227.0,3015.0,2.0,0,
46900,1863.7,20.6,99.3,240.5,1227.0,3015.0,2.0,0,
47000,1860.2,20.8,99.3,240.3,1227.0,3015.0,2.0,0,
47100,1866.0,15.5,99.3,240.2,971.0,4008.0,3.0,1,
47200,1847.7,119.9,99.0,240.0,1140.0,4446.0,4.0,1,
47300,1867.0,128.1,107.1,238.2,1226.0,3602.0,2.0,0,
47400,1865.8,191.3,115.7,88.7,1201.0,3420.0,2.0,0,
47600,1885.7,226.9,119.3,209.4,1506.0,4288.0,2.0,0,
47700,1831.3,45.7,127.3,165.5,1181.0,2954.0,2.0,0,
47800,1864.6,22.4,128.0,197.7,1181.0,2954.0,2.0,0,
47900,1858.5,19.1,128.1,133.1,1181.0,2954.0,2.0,0,
48000,1860.1,23.1,128.1,94.4,1181.0,2954.0,2.0,0,
48100,1862.7,20.9,128.1,102.4,1181.0,2954.0,2.0,0,
48200,1861.0,23.6,128.1,240.5,1181.0,2954.0,2.0,0,
48300,1862.0,22.7,128.1,240.5,1181.0,2954.0,2.0,0,
48400,1862.7,22.2,128.1,240.5,1181.0,2954.0,2.0,0,
48600,1865.0,19.8,128.2,240.6,1181.0,2954.0,2.0,0,
48700,1863.0,140.3,128.1,240.7,1003.0,3263.0,28.0,0,
48800,1869.8,196.4,134.4,239.6,1322.0,3332.0,2.0,0,
48900,1853.6,200.0,142.8,94.1,1171.0,3404.0,2.0,0,
49000,1881.5,222.9,145.9,157.8,1307.0,3558.0,2.0,0,
49100,1845.4,200.4,146.4,169.5,1243.0,3780.0,2.0,0,
49200,1853.2,143.9,153.2,194.6,1195.0,3272.0,2.0,0,
49300,1877.3,62.0,144.2,197.4,1060.0,2497.0,2.0,0,
49400,1857.1,27.6,147.5,158.4,1060.0,2497.0,2.0,0,
49600,1862.5,19.9,147.5,140.2,1060.0,2497.0,2.0,0,
49700,1859.5,21.5,147.5,131.2,1060.0,2497.0,2.0,0,
49800,1860.3,21.0,147.5,239.9,1060.0,2497.0,2.0,0,
49900,1860.9,16.2,147.5,240.4,1060.0,2497.0,2.0,0,
50000,1859.1,20.6,147.5,240.6,1060.0,2497.0,2.0,0,
50100,1863.5,23.6,147.5,240.7,1060.0,2497.0,2.0,0,
50200,1864.7,19.5,147.5,240.6,1060.0,2497.0,2.0,0,
50300,1861.9,27.8,147.5,240.4,855.0,3769.0,3.0,1,
50400,1853.1,16.6,142.7,240.4,908.0,3668.0,4.0,1,
50600,1846.3,44.4,118.4,208.5,1272.0,4701.0,4.0,1,
50700,1858.7,118.7,106.5,67.2,1190.0,3173.0,2.0,0,
50800,1873.4,221.2,89.5,163.1,1159.0,3620.0,2.0,0,
50900,1867.9,77.3,98.6,250.9,1311.0,3394.0,2.0,0,
51000,1852.0,20.8,93.4,227.1,1311.0,3394.0,2.0,0,
51100,1860.0,21.0,93.3,158.2,1311.0,3394.0,2.0,0,
51200,1861.1,20.7,93.3,133.3,1311.0,3394.0,2.0,0,
51300,1861.2,23.2,93.3,220.3,1311.0,3394.0,2.0,0,
51400,1865.4,21.8,93.3,240.2,1311.0,3394.0,2.0,0,
51600,1862.7,22.4,93.3,240.5,1311.0,3394.0,2.0,0,
51700,1861.0,22.6,93.3,240.3,1311.0,3394.0,2.0,0,
51800,1862.8,20.7,93.4,240.3,1311.0,3394.0,2.0,0,
51900,1862.9,34.9,93.3,240.5,1311.0,3394.0,2.0,0,
52000,1871.7,23.6,93.8,240.7,887.0,3670.0,3.0,1,
52100,1847.5,143.9,93.9,240.1,1578.0,4413.0,28.0,0,
52200,1872.4,106.2,101.4,71.2,1327.0,3657.0,2.0,0,
52300,1873.3,168.5,112.6,156.1,1249.0,3434.0,2.0,0,
52400,1849.0,119.2,114.1,228.0,1101.0,3110.0,2.0,0,
52600,1856.0,26.1,115.9,197.7,1101.0,3110.0,2.0,0,
52700,1860.7,22.1,115.9,196.8,1101.0,3110.0,2.0,0,
52800,1860.4,19.8,116.0,131.9,1101.0,3110.0,2.0,0,
52900,1860.6,22.2,115.9,94.6,1101.0,3110.0,2.0,0,
53000,1863.5,21.4,116.0,235.7,1101.0,3110.0,2.0,0,
53100,1858.3,21.8,116.0,240.3,1101.0,3110.0,2.0,0,
53200,1863.6,18.5,116.0,240.4,1101.0,3110.0,2.0,0,
53300,1861.5,22.8,116.0,240.5,1101.0,3110.0,2.0,0,
53400,1862.8,18.9,116.0,240.4,1101.0,3110.0,2.0,0,
53600,1854.2,31.6,116.0,240.4,922.0,3926.0,4.0,1,
53700,1886.7,32.1,115.6,240.3,1433.0,5323.0,3.0,1,
53800,1841.4,96.2,110.3,239.6,1269.0,4611.0,4.0,1,
53900,1871.6,122.9,108.2,174.2,1195.0,3667.0,2.0,0,
54000,1858.0,186.5,108.9,164.9,1142.0,3147.0,2.0,0,
54100,1860.2,134.9,116.0,212.1,1225.0,3194.0,2.0,0,
54200,1871.0,28.1,105.4,187.8,1225.0,3259.0,2.0,0,
54300,1860.8,19.6,105.4,158.4,1225.0,3259.0,2.0,0,
54400,1861.7,20.2,105.3,201.9,1225.0,3259.0,2.0,0,
54600,1860.2,23.6,105.4,239.8,1225.0,3259.0,2.0,0,
54700,1861.7,19.8,105.4,240.3,1225.0,3259.0,2.0,0,
54800,1861.0,21.5,105.4,240.4,1225.0,3259.0,2.0,0,
54900,1861.3,21.2,105.5,240.5,1225.0,3259.0,2.0,0,
55000,1861.4,21.2,105.4,240.6,1225.0,3259.0,2.0,0,
55100,1862.2,19.7,105.5,240.5,1225.0,3259.0,2.0,0,
55200,1862.8,32.2,105.6,240.3,852.0,3437.0,3.0,1,
55300,1846.4,148.7,109.0,240.0,1274.0,4054.0,2.0,0,
55400,1876.0,228.8,117.2,116.6,1511.0,4070.0,2.0,0,
55600,1889.9,203.3,136.6,195.3,1186.0,3267.0,2.0,0,
55700,1832.4,163.6,135.6,165.2,1081.0,2882.0,2.0,0,
55800,1867.0,38.9,138.2,198.0,1251.0,3266.0,2.0,0,
55900,1866.3,19.4,138.2,195.8,1251.0,3266.0,2.0,0,
56000,1860.8,18.8,138.2,131.7,1251.0,3266.0,2.0,0,
56100,1860.2,21.1,138.2,130.9,1251.0,3266.0,2.0,0,
56200,1861.7,21.8,138.1,239.4,1251.0,3266.0,2.0,0,
56300,1861.4,21.7,138.1,240.4,1251.0,3266.0,2.0,0,
56400,1861.0,19.9,138.1,240.5,1251.0,3266.0,2.0,0,
56600,1860.6,23.6,138.1,240.7,1251.0,3266.0,2.0,0,
56700,1862.4,19.6,138.1,240.6,1251.0,3266.0,2.0,0,
56800,1861.3,33.1,138.1,240.3,907.0,3440.0,3.0,1,
56900,1861.6,28.1,138.4,240.1,1020.0,4011.0,4.0,1,
57000,1865.9,108.7,130.3,237.6,1232.0,3617.0,2.0,0,
57100,1850.0,186.7,122.8,163.8,1347.0,3823.0,2.0,0,
57200,1849.3,159.1,126.8,226.9,1180.0,3417.0,2.0,0,
57300,1876.8,219.6,122.8,194.9,1494.0,3750.0,2.0,0,
57400,1840.8,56.8,127.3,158.8,1158.0,3014.0,2.0,0,
57600,1861.2,19.9,127.3,158.2,1158.0,3014.0,2.0,0,
57700,1859.1,20.5,127.3,100.0,1158.0,3014.0,2.0,0,
57800,1863.6,20.1,127.3,100.8,1158.0,3014.0,2.0,0,
57900,1863.1,21.7,127.3,240.2,1158.0,3014.0,2.0,0,
58000,1861.8,21.5,127.2,240.3,1158.0,3014.0,2.0,0,
58100,1863.2,23.1,127.2,239.9,1158.0,3014.0,2.0,0,
58200,1864.3,21.6,127.2,240.1,1158.0,3014.0,2.0,0,
58300,1862.1,23.1,127.2,240.3,1158.0,3014.0,2.0,0,
58400,1858.4,136.4,127.3,240.4,1044.0,3264.0,28.0,0,
58600,1846.9,186.4,147.6,211.4,1205.0,3790.0,28.0,0,
58700,1868.2,163.8,151.9,196.8,1192.0,3553.0,2.0,0,
58800,1864.7,236.9,145.8,158.8,1151.0,3317.0,2.0,0,
58900,1866.3,130.9,152.0,165.0,1076.0,3204.0,2.0,0,
59000,1845.0,88.9,149.8,197.4,992.0,2706.0,2.0,0,
59100,1859.6,21.1,151.4,158.8,992.0,2706.0,2.0,0,
59200,1862.0,21.0,151.4,158.5,992.0,2706.0,2.0,0,
59300,1858.3,21.6,151.5,104.0,992.0,2706.0,2.0,0,
59400,1861.9,20.2,151.4,94.6,992.0,2706.0,2.0,0,
59600,1861.6,21.8,151.5,240.1,992.0,2706.0,2.0,0,
59700,1861.3,19.9,151.5,240.1,992.0,2706.0,2.0,0,
59800,1861.6,20.8,151.6,240.3,992.0,2706.0,2.0,0,
59900,1863.8,21.0,151.5,240.2,992.0,2706.0,2.0,0,
60000,1864.6,16.4,151.4,240.2,869.0,3741.0,3.0,1,
60100,1854.6,177.6,148.6,240.4,761.0,2734.0,2.0,0,
60200,1873.7,278.1,146.6,239.7,1436.0,4077.0,2.0,0,
60300,1857.7,182.3,152.4,172.0,1361.0,4059.0,28.0,0,
60400,1863.7,220.2,152.9,149.3,1376.0,3832.0,2.0,0,
60600,1863.9,82.2,159.2,202.4,1173.0,3262.0,2.0,0,
60700,1871.7,23.1,152.4,182.6,1173.0,3262.0,2.0,0,
60800,1859.0,23.4,152.5,155.3,1173.0,3262.0,2.0,0,
60900,1863.4,19.3,152.4,225.9,1173.0,3262.0,2.0,0,
61000,1861.2,21.4,152.4,240.0,1173.0,3262.0,2.0,0,
61100,1861.1,22.0,152.4,240.3,1173.0,3262.0,2.0,0,
61200,1861.8,18.7,152.4,240.5,1173.0,3262.0,2.0,0,
61300,1863.3,19.3,152.4,240.4,1173.0,3262.0,2.0,0,
61400,1859.3,21.0,152.4,240.4,1173.0,3262.0,2.0,0,
61600,1862.3,15.3,152.4,240.6,1173.0,3262.0,2.0,0,
61700,1860.9,133.9,152.4,240.5,949.0,3829.0,3.0,1,
61800,1854.8,111.7,149.7,240.1,1151.0,3723.0,2.0,0,
61900,1864.5,196.2,135.3,141.9,1203.0,3679.0,2.0,0,
62000,1850.3,149.5,142.7,194.6,1099.0,3334.0,2.0,0,
62100,1879.5,258.2,133.7,199.1,1530.0,3921.0,2.0,0,
62200,1863.9,180.4,134.2,156.8,1168.0,3354.0,2.0,0,
62300,1852.1,28.9,134.7,196.6,1244.0,3153.0,2.0,0,
62400,1861.5,22.0,134.7,133.0,1244.0,3153.0,2.0,0,
62600,1861.4,21.5,134.6,93.7,1244.0,3153.0,2.0,0,
62700,1859.7,20.2,134.6,239.3,1244.0,3153.0,2.0,0,
62800,1863.4,19.0,134.6,240.4,1244.0,3153.0,2.0,0,
62900,1857.8,18.5,134.7,240.5,1244.0,3153.0,2.0,0,
63000,1861.7,21.1,134.6,240.3,1244.0,3153.0,2.0,0,
63100,1861.6,20.7,134.7,240.3,1244.0,3153.0,2.0,0,
63200,1861.2,19.0,134.7,240.4,1244.0,3153.0,2.0,0,
63300,1866.9,17.3,134.6,240.4,974.0,3961.0,3.0,1,
63400,1847.5,74.5,131.6,240.4,1267.0,4908.0,4.0,1,
63600,1874.6,210.9,127.7,100.9,1124.0,3537.0,2.0,0,
63700,1843.3,111.7,132.0,132.7,1104.0,3586.0,2.0,0,
63800,1869.5,180.3,122.3,164.4,1220.0,3728.0,2.0,0,
63900,1850.8,35.3,126.3,165.6,1116.0,3077.0,2.0,0,
64000,1861.5,21.4,126.2,226.4,1116.0,3077.0,2.0,0,
64100,1860.8,19.0,126.3,153.7,1116.0,3077.0,2.0,0,
64200,1859.2,20.0,126.3,93.3,1116.0,3077.0,2.0,0,
64300,1861.0,21.7,126.3,102.2,1116.0,3077.0,2.0,0,
64400,1864.3,22.5,126.3,240.5,1116.0,3077.0,2.0,0,
64600,1861.8,18.7,126.3,240.4,1116.0,3077.0,2.0,0,
64700,1863.0,20.8,126.3,240.4,1116.0,3077.0,2.0,0,
64800,1862.2,21.3,126.3,240.4,1116.0,3077.0,2.0,0,
64900,1863.2,128.6,126.2,240.5,1181.0,3479.0,28.0,0,
65000,1880.5,117.6,131.6,240.0,1433.0,3661.0,2.0,0,
65100,1837.6,161.8,145.0,195.3,1222.0,3937.0,2.0,0,
65200,1862.4,132.4,142.4,174.6,1244.0,3506.0,2.0,0,
65300,1862.0,215.6,138.0,158.9,1142.0,3438.0,2.0,0,
65400,1856.8,184.5,146.8,165.6,1169.0,3302.0,2.0,0,
65600,1843.2,21.0,141.7,138.0,1169.0,3302.0,2.0,0,
65700,1860.3,21.1,141.7,201.6,1169.0,3302.0,2.0,0,
65800,1860.8,22.2,141.7,227.4,1169.0,3302.0,2.0,0,
65900,1863.2,22.1,141.7,237.5,1169.0,3302.0,2.0,0,
66000,1861.1,19.1,141.7,240.1,1169.0,3302.0,2.0,0,
66100,1864.2,23.2,141.7,240.3,1169.0,3302.0,2.0,0,
66200,1863.2,18.8,141.7,240.4,1169.0,3302.0,2.0,0,
66300,1865.7,19.9,141.7,240.2,1169.0,3302.0,2.0,0,
66400,1862.2,19.7,141.7,240.3,1169.0,3302.0,2.0,0,
66600,1845.7,196.6,138.5,240.6,1184.0,3103.0,27.0,0,
66700,1878.6,252.5,142.7,189.0,1554.0,4286.0,26.0,0,
66800,1853.9,268.2,152.4,68.0,917.0,3708.0,22.0,1,
66900,1892.3,244.1,163.4,93.9,1417.0,3711.0,26.0,0,
67000,1834.9,121.6,165.4,118.0,867.0,3189.0,27.0,0,
67100,1859.3,45.9,163.5,125.0,388.0,1106.0,27.0,0,
67200,1874.0,19.4,164.8,131.6,388.0,1106.0,27.0,0,
67300,1861.7,21.1,164.8,131.8,388.0,1106.0,27.0,0,
67400,1863.0,19.3,164.8,159.1,388.0,1106.0,27.0,0,
67600,1862.1,19.3,164.8,240.6,388.0,1106.0,27.0,0,
67700,1863.0,21.7,164.9,240.3,388.0,1106.0,27.0,0,
67800,1861.1,18.8,164.8,240.2,388.0,1106.0,27.0,0,
67900,1862.3,22.9,164.8,240.3,388.0,1106.0,27.0,0,
68000,1864.9,17.9,164.8,240.3,388.0,1106.0,27.0,0,
68100,1861.2,43.7,164.8,240.4,806.0,3616.0,3.0,1,
68200,1856.7,34.4,165.1,240.3,731.0,3028.0,3.0,1,
68300,1861.5,142.9,155.7,202.3,1333.0,4163.0,2.0,0,
68400,1862.3,180.3,145.3,80.7,1386.0,4247.0,2.0,0,
68600,1876.1,149.8,122.8,194.6,1200.0,3508.0,2.0,0,
68700,1843.5,107.9,121.9,164.4,1117.0,3165.0,2.0,0,
68800,1866.7,23.3,122.8,218.8,1117.0,3165.0,2.0,0,
68900,1862.0,19.9,122.7,187.6,1117.0,3165.0,2.0,0,
69000,1860.7,18.3,122.8,99.2,1117.0,3165.0,2.0,0,
69100,1861.2,20.9,122.8,90.6,1117.0,3165.0,2.0,0,
69200,1862.4,20.5,122.8,239.5,1117.0,3165.0,2.0,0,
69300,1861.2,21.7,122.8,240.5,1117.0,3165.0,2.0,0,
69400,1864.2,18.9,122.7,240.6,1117.0,3165.0,2.0,0,
69600,1863.1,20.0,122.8,240.4,1117.0,3165.0,2.0,0,
69700,1858.9,13.6,122.9,240.4,1117.0,3165.0,2.0,0,
69800,1875.5,22.2,122.6,240.5,978.0,4008.0,3.0,1,
69900,1849.9,45.1,122.6,240.4,1243.0,4764.0,4.0,1,
70000,1860.2,125.8,116.4,237.8,1156.0,3774.0,2.0,0,
70100,1871.0,223.5,109.2,137.9,1122.0,3734.0,2.0,0,
70200,1864.8,176.8,118.0,226.0,1109.0,3542.0,2.0,0,
70300,1855.3,159.3,117.8,196.3,1253.0,3873.0,2.0,0,
70400,1852.7,28.0,117.4,159.2,1118.0,3184.0,2.0,0,
70600,1861.5,19.7,117.4,166.0,1118.0,3184.0,2.0,0,
70700,1862.2,18.5,117.4,139.9,1118.0,3184.0,2.0,0,
70800,1865.8,18.6,117.4,235.9,1118.0,3184.0,2.0,0,
70900,1860.4,18.7,117.4,240.5,1118.0,3184.0,2.0,0,
71000,1860.0,22.3,117.5,240.2,1118.0,3184.0,2.0,0,
71100,1863.2,21.4,117.5,240.2,1118.0,3184.0,2.0,0,
71200,1862.1,22.1,117.5,240.5,1118.0,3184.0,2.0,0,
71300,1862.1,20.1,117.4,240.5,1118.0,3184.0,2.0,0,
71400,1857.3,21.8,117.4,240.5,863.0,3837.0,4.0,1,
71600,1858.8,108.0,116.7,239.4,1191.0,4405.0,4.0,1,
71700,1858.7,185.8,111.8,156.9,1190.0,3705.0,2.0,0,
71800,1855.4,187.6,112.2,207.0,1125.0,3348.0,2.0,0,
71900,1853.1,133.9,117.1,210.2,1149.0,3366.0,2.0,0,
72000,1873.0,24.1,112.1,163.5,1119.0,3631.0,2.0,0,
72100,1862.6,21.9,112.1,151.9,1119.0,3631.0,2.0,0,
72200,1861.9,19.2,112.1,202.6,1119.0,3631.0,2.0,0,
72300,1864.5,18.3,112.2,239.8,1119.0,3631.0,2.0,0,
72400,1865.1,20.6,112.2,240.3,1119.0,3631.0,2.0,0,
72600,1859.9,23.2,112.1,240.3,1119.0,3631.0,2.0,0,
72700,1868.4,22.1,112.1,240.6,1119.0,3631.0,2.0,0,
72800,1861.7,19.7,112.1,240.8,1119.0,3631.0,2.0,0,
72900,1862.0,18.5,112.0,240.8,1119.0,3631.0,2.0,0,
73000,1867.3,12.8,112.1,240.5,910.0,3708.0,3.0,1,
73100,1840.9,111.4,112.2,240.3,1170.0,3623.0,28.0,0,
73200,1877.5,214.8,118.6,240.1,1477.0,4019.0,2.0,0,
73300,1850.9,191.5,137.9,241.0,1394.0,4361.0,28.0,0,
73400,1874.0,107.0,135.9,195.0,1219.0,3618.0,2.0,0,
73600,1842.9,40.8,127.7,195.0,1166.0,3381.0,2.0,0,
73700,1864.5,20.4,128.2,240.2,1166.0,3381.0,2.0,0,
73800,1860.9,19.9,128.1,154.5,1166.0,3381.0,2.0,0,
73900,1863.8,20.1,128.2,93.5,1166.0,3381.0,2.0,0,
74000,1861.8,19.5,128.2,216.8,1166.0,3381.0,2.0,0,
74100,1862.4,23.0,128.2,240.3,1166.0,3381.0,2.0,0,
74200,1864.6,20.3,128.2,240.4,1166.0,3381.0,2.0,0,
74300,1858.6,18.5,128.3,240.5,1166.0,3381.0,2.0,0,
74400,1861.6,19.4,128.3,240.5,1166.0,3381.0,2.0,0,
74600,1861.2,60.5,128.3,240.6,896.0,3537.0,3.0,1,
74700,1862.8,25.9,129.0,240.3,889.0,3838.0,4.0,1,
74800,1851.9,166.9,125.0,78.6,1276.0,4323.0,28.0,0,
74900,1894.5,203.5,115.5,55.5,1230.0,3711.0,2.0,0,
75000,1834.5,152.3,118.4,226.8,1146.0,3819.0,2.0,0,
75100,1874.8,112.9,120.7,226.6,1279.0,3499.0,2.0,0,
75200,1852.0,54.9,115.0,164.9,1193.0,3296.0,2.0,0,
75300,1857.6,22.4,119.8,197.5,1193.0,3296.0,2.0,0,
75400,1862.6,22.1,119.8,226.1,1193.0,3296.0,2.0,0,
75600,1863.3,20.3,119.8,125.5,1193.0,3296.0,2.0,0,
75700,1862.8,18.6,119.8,240.2,1193.0,3296.0,2.0,0,
75800,1859.1,18.3,119.7,240.3,1193.0,3296.0,2.0,0,
75900,1860.7,22.4,119.7,240.2,1193.0,3296.0,2.0,0,
76000,1864.3,24.4,119.7,240.3,1193.0,3296.0,2.0,0,
76100,1864.0,21.9,119.6,240.3,1193.0,3296.0,2.0,0,
76200,1862.4,103.9,119.7,240.4,727.0,3188.0,3.0,1,
76300,1879.4,227.7,122.6,240.2,900.0,2851.0,2.0,0,
76400,1851.8,188.9,137.2,205.6,1180.0,4039.0,2.0,0,
76600,1876.1,215.4,136.3,158.1,1400.0,4179.0,2.0,0,
76700,1846.1,174.3,141.2,157.0,1535.0,4110.0,28.0,0,
76800,1894.9,54.4,140.3,220.0,1270.0,3663.0,2.0,0,
76900,1845.0,26.2,136.4,158.5,1270.0,3663.0,2.0,0,
77000,1860.4,18.3,136.4,182.8,1270.0,3663.0,2.0,0,
77100,1860.0,21.9,136.4,235.4,1270.0,3663.0,2.0,0,
77200,1863.1,23.9,136.4,239.4,1270.0,3663.0,2.0,0,
77300,1865.1,22.3,136.4,240.6,1270.0,3663.0,2.0,0,
77400,1864.0,21.8,136.4,240.5,1270.0,3663.0,2.0,0,
77600,1860.6,20.0,136.5,240.2,1270.0,3663.0,2.0,0,
77700,1861.0,21.7,136.5,240.1,1270.0,3663.0,2.0,0,
77800,1864.0,26.3,136.4,240.4,1270.0,3663.0,2.0,0,
77900,1851.9,116.1,135.5,240.5,1115.0,3325.0,28.0,0,
78000,1869.0,161.7,128.9,239.8,1373.0,4472.0,2.0,0,
78100,1860.4,203.7,120.5,136.8,1161.0,3942.0,2.0,0,
78200,1872.4,151.3,127.9,197.1,1187.0,3730.0,2.0,0,
78300,1849.3,173.3,127.7,195.3,1460.0,4268.0,2.0,0,
78400,1849.8,123.6,133.4,189.3,1122.0,3166.0,2.0,0,
78600,1860.0,19.4,134.5,164.6,1122.0,3166.0,2.0,0,
78700,1860.4,20.6,134.5,166.5,1122.0,3166.0,2.0,0,
78800,1862.0,22.8,134.4,237.9,1122.0,3166.0,2.0,0,
78900,1863.2,21.1,134.5,240.1,1122.0,3166.0,2.0,0,
79000,1861.3,20.3,134.5,240.3,1122.0,3166.0,2.0,0,
79100,1862.1,19.8,134.5,240.1,1122.0,3166.0,2.0,0,
79200,1861.0,20.2,134.5,240.0,1122.0,3166.0,2.0,0,
79300,1861.2,23.7,134.5,240.0,1122.0,3166.0,2.0,0,
79400,1864.1,112.6,134.5,240.1,1122.0,3166.0,2.0,0,
79600,1857.3,160.2,135.9,43.7,996.0,3447.0,28.0,0,
79700,1863.5,82.9,134.2,36.8,1218.0,3797.0,2.0,0,
79800,1850.2,168.2,129.9,43.1,1163.0,3430.0,2.0,0,
79900,1856.0,129.3,131.3,164.1,1293.0,3675.0,2.0,0,
80000,1861.8,233.8,122.9,195.3,1155.0,3878.0,2.0,0,
80100,1864.7,32.5,127.2,156.7,1200.0,3308.0,2.0,0,
80200,1860.6,21.3,127.3,196.9,1200.0,3308.0,2.0,0,
80300,1862.8,17.4,127.3,102.2,1200.0,3308.0,2.0,0,
80400,1862.8,20.4,127.3,84.3,1200.0,3308.0,2.0,0,
80600,1861.9,20.3,127.2,240.2,1200.0,3308.0,2.0,0,
80700,1861.7,20.4,127.2,240.4,1200.0,3308.0,2.0,0,
80800,1866.0,19.4,127.2,240.4,1200.0,3308.0,2.0,0,
80900,1862.4,21.3,127.2,240.3,1200.0,3308.0,2.0,0,
81000,1863.0,18.4,127.2,240.3,1200.0,3308.0,2.0,0,
81100,1869.0,112.8,127.4,240.3,757.0,2954.0,2.0,0,
81200,1868.1,183.5,135.7,136.8,1080.0,3476.0,2.0,0,
81300,1847.4,186.2,143.9,86.5,1479.0,4595.0,28.0,0,
81400,1880.5,237.4,145.6,158.3,1352.0,4112.0,2.0,0,
81600,1851.8,103.8,150.7,207.5,1204.0,3592.0,2.0,0,
81700,1855.7,28.4,144.3,185.3,1247.0,3716.0,2.0,0,
81800,1864.8,21.0,144.0,157.5,1247.0,3716.0,2.0,0,
81900,1862.2,19.4,144.0,228.9,1247.0,3716.0,2.0,0,
82000,1859.4,23.1,144.1,237.3,1247.0,3716.0,2.0,0,
82100,1862.9,20.4,144.1,240.2,1247.0,3716.0,2.0,0,
82200,1864.8,20.7,144.1,240.5,1247.0,3716.0,2.0,0,
82300,1862.6,19.9,144.1,240.5,1247.0,3716.0,2.0,0,
82400,1863.0,21.4,144.1,240.3,1247.0,3716.0,2.0,0,
82600,1863.2,22.6,144.1,240.6,1247.0,3716.0,2.0,0,
82700,1860.3,70.2,144.1,240.3,927.0,3658.0,4.0,1,
82800,1855.5,205.8,137.5,240.1,882.0,3054.0,2.0,0,
82900,1881.8,231.4,135.0,238.0,1135.0,3924.0,2.0,0,
83000,1841.2,131.1,139.1,213.4,1219.0,4241.0,2.0,0,
83100,1872.4,225.6,136.8,158.9,1238.0,3872.0,2.0,0,
83200,1850.5,186.9,141.9,158.3,1432.0,4199.0,28.0,0,
83300,1871.5,39.3,144.6,200.6,1185.0,3559.0,2.0,0,
83400,1867.7,21.3,142.4,158.2,1185.0,3559.0,2.0,0,
83600,1860.8,21.5,142.4,232.9,1185.0,3559.0,2.0,0,
83700,1862.5,19.6,142.4,240.3,1185.0,3559.0,2.0,0,
83800,1864.3,21.1,142.4,240.6,1185.0,3559.0,2.0,0,
83900,1862.8,17.3,142.4,240.9,1185.0,3559.0,2.0,0,
84000,1862.9,20.2,142.4,240.7,1185.0,3559.0,2.0,0,
84100,1862.9,19.8,142.4,240.4,1185.0,3559.0,2.0,0,
84200,1865.3,19.3,142.3,240.2,1185.0,3559.0,2.0,0,
84300,1863.7,15.2,142.3,240.3,704.0,3150.0,3.0,1,
84400,1851.5,91.7,141.5,240.5,835.0,3630.0,4.0,1,
84600,1861.6,183.2,129.6,220.9,1257.0,3920.0,2.0,0,
84700,1855.5,140.2,132.4,228.1,1192.0,4160.0,2.0,0,
84800,1891.3,48.6,117.3,225.8,1315.0,3767.0,2.0,0,
84900,1827.5,70.7,115.4,158.6,1126.0,3389.0,2.0,0,
85000,1868.1,23.3,117.1,226.7,1126.0,3389.0,2.0,0,
85100,1861.8,20.7,117.2,189.4,1126.0,3389.0,2.0,0,
85200,1861.0,21.2,117.2,90.3,1126.0,3389.0,2.0,0,
85300,1863.3,20.0,117.2,75.9,1126.0,3389.0,2.0,0,
85400,1861.8,20.9,117.2,239.9,1126.0,3389.0,2.0,0,
85600,1863.9,24.3,117.3,240.4,1126.0,3389.0,2.0,0,
85700,1865.4,19.5,117.2,240.5,1126.0,3389.0,2.0,0,
85800,1861.8,19.3,117.2,240.5,1126.0,3389.0,2.0,0,
85900,1862.1,51.2,117.3,240.4,721.0,3088.0,4.0,1,
86000,1867.0,30.5,122.2,240.0,970.0,3948.0,3.0,1,
86100,1850.0,153.8,120.1,43.1,1284.0,4280.0,2.0,0,
86200,1888.7,100.7,117.8,35.6,1257.0,3842.0,2.0,0,
86300,1830.8,179.2,113.7,44.9,1340.0,4073.0,2.0,0,
86400,1857.0,127.0,120.2,164.9,1255.0,3525.0,2.0,0,
86600,1854.0,20.7,114.9,156.9,1255.0,3525.0,2.0,0,
86700,1859.3,19.0,114.8,231.2,1255.0,3525.0,2.0,0,
86800,1863.0,24.0,114.8,240.3,1255.0,3525.0,2.0,0,
86900,1864.1,20.2,114.8,238.4,1255.0,3525.0,2.0,0,
87000,1860.3,21.9,114.9,240.3,1255.0,3525.0,2.0,0,
87100,1864.0,22.8,114.8,240.3,1255.0,3525.0,2.0,0,
87200,1862.6,19.6,114.9,240.3,1255.0,3525.0,2.0,0,
87300,1862.2,18.7,114.9,240.3,1255.0,3525.0,2.0,0,
87400,1862.2,21.4,114.9,240.3,1255.0,3525.0,2.0,0,
87600,1869.9,128.3,114.6,240.3,776.0,3021.0,2.0,0,
87700,1856.6,208.2,117.9,238.1,1428.0,3833.0,2.0,0,
87800,1846.6,175.1,133.2,158.2,1677.0,4740.0,28.0,0,
87900,1880.3,92.6,134.4,163.5,1392.0,4106.0,2.0,0,
88000,1847.3,209.8,126.8,132.3,1338.0,3922.0,2.0,0,
88100,1897.3,118.8,133.7,189.9,1323.0,3401.0,2.0,0,
88200,1844.9,26.2,133.4,196.8,1283.0,3429.0,2.0,0,
88300,1860.6,19.9,133.4,135.5,1283.0,3429.0,2.0,0,
88400,1862.1,20.9,133.4,208.9,1283.0,3429.0,2.0,0,
88600,1863.7,19.3,133.3,240.3,1283.0,3429.0,2.0,0,
88700,1861.3,20.7,133.3,240.2,1283.0,3429.0,2.0,0,
88800,1864.0,23.6,133.3,240.2,1283.0,3429.0,2.0,0,
88900,1863.4,22.7,133.3,240.2,1283.0,3429.0,2.0,0,
89000,1865.0,21.3,133.3,240.4,1283.0,3429.0,2.0,0,
89100,1863.6,20.7,133.3,240.4,1283.0,3429.0,2.0,0,
89200,1856.0,39.8,133.3,240.4,891.0,3506.0,4.0,1,
89300,1856.6,282.2,133.6,239.9,1382.0,4154.0,26.0,0,
89400,1868.8,185.2,145.4,77.4,1175.0,3889.0,26.0,0,
89600,1853.5,217.0,153.0,46.5,1549.0,3921.0,26.0,0,
89700,1848.6,175.7,161.3,93.7,947.0,3438.0,27.0,0,
89800,1875.4,31.1,163.7,132.1,441.0,1146.0,21.0,1,
89900,1863.3,19.6,163.7,116.9,441.0,1146.0,21.0,1,
90000,1861.5,21.5,163.8,130.3,441.0,1146.0,21.0,1,
90100,1864.3,18.4,163.8,167.2,441.0,1146.0,21.0,1,
90200,1860.9,20.6,163.7,239.3,441.0,1146.0,21.0,1,
90300,1860.3,21.5,163.8,240.4,441.0,1146.0,21.0,1,
90400,1861.4,19.7,163.8,240.2,441.0,1146.0,21.0,1,
90600,1864.1,20.0,163.7,240.5,441.0,1146.0,21.0,1,
90700,1863.8,21.3,163.7,240.4,441.0,1146.0,21.0,1,
90800,1863.6,22.0,163.7,240.3,886.0,3585.0,3.0,1,
90900,1860.3,103.2,163.7,239.9,785.0,3421.0,4.0,1,
91000,1864.5,103.7,146.7,147.0,1296.0,3713.0,2.0,0,
91100,1857.6,174.7,135.2,136.8,1187.0,3447.0,2.0,0,
91200,1858.2,150.8,138.8,227.9,1324.0,3836.0,2.0,0,
91300,1865.6,192.1,124.0,220.8,1357.0,4054.0,2.0,0,
91400,1875.5,47.7,119.2,158.5,1403.0,3610.0,2.0,0,
91600,1859.7,23.3,120.5,132.8,1403.0,3610.0,2.0,0,
91700,1860.5,21.3,120.6,69.9,1403.0,3610.0,2.0,0,
91800,1864.1,18.7,120.6,88.6,1403.0,3610.0,2.0,0,
91900,1861.5,19.7,120.5,240.4,1403.0,3610.0,2.0,0,
92000,1863.1,20.9,120.5,240.5,1403.0,3610.0,2.0,0,
92100,1864.0,19.9,120.5,240.5,1403.0,3610.0,2.0,0,
92200,1865.1,23.6,120.5,240.4,1403.0,3610.0,2.0,0,
92300,1864.4,19.8,120.5,240.3,1403.0,3610.0,2.0,0,
92400,1862.8,21.6,120.5,240.2,762.0,3384.0,4.0,1,
92600,1845.1,178.0,121.0,174.4,1708.0,4410.0,28.0,0,
92700,1878.1,208.2,123.0,46.2,1184.0,3746.0,2.0,0,
92800,1866.8,203.4,123.0,76.0,1220.0,3474.0,2.0,0,
92900,1852.2,108.1,126.8,158.9,1286.0,3730.0,2.0,0,
93000,1860.8,66.3,121.9,173.7,1207.0,3375.0,2.0,0,
93100,1859.8,23.4,125.6,158.3,1207.0,3375.0,2.0,0,
93200,1859.4,21.5,125.7,204.7,1207.0,3375.0,2.0,0,
93300,1861.5,19.0,125.6,149.8,1207.0,3375.0,2.0,0,
93400,1862.7,21.4,125.6,132.1,1207.0,3375.0,2.0,0,
93600,1861.5,21.8,125.7,240.3,1207.0,3375.0,2.0,0,
93700,1864.0,20.9,125.7,240.3,1207.0,3375.0,2.0,0,
93800,1863.9,19.7,125.7,240.3,1207.0,3375.0,2.0,0,
93900,1862.3,25.0,125.7,240.4,1207.0,3375.0,2.0,0,
94000,1864.9,82.2,125.8,240.5,750.0,2903.0,3.0,1,
94100,1857.6,233.5,128.7,240.4,914.0,2851.0,2.0,0,
94200,1884.1,246.0,141.3,156.7,1320.0,4408.0,2.0,0,
94300,1838.2,154.3,147.9,138.0,1531.0,4666.0,28.0,0,
94400,1874.7,176.9,146.0,164.3,1356.0,4192.0,2.0,0,
94600,1868.6,71.9,148.6,227.3,1117.0,3824.0,2.0,0,
94700,1865.6,24.3,142.2,197.9,1117.0,3824.0,2.0,0,
94800,1859.6,24.0,142.2,167.2,1117.0,3824.0,2.0,0,
94900,1864.5,19.8,142.2,228.8,1117.0,3824.0,2.0,0,
95000,1862.1,21.2,142.2,237.5,1117.0,3824.0,2.0,0,
95100,1861.3,25.3,142.2,240.1,1117.0,3824.0,2.0,0,
95200,1862.3,20.6,142.2,240.3,1117.0,3824.0,2.0,0,
95300,1861.2,20.7,142.3,240.5,1117.0,3824.0,2.0,0,
95400,1859.3,20.9,142.4,240.5,1117.0,3824.0,2.0,0,
95600,1862.0,23.7,142.4,240.3,1117.0,3824.0,2.0,0,
95700,1855.1,42.5,141.2,240.3,883.0,3698.0,3.0,1,
95800,1857.1,123.6,130.4,240.3,1109.0,3533.0,2.0,0,
95900,1861.6,215.8,122.5,228.1,1078.0,3490.0,2.0,0,
96000,1853.0,159.8,129.2,196.0,1313.0,4226.0,2.0,0,
96100,1889.9,189.6,126.6,163.1,1190.0,3925.0,2.0,0,
96200,1829.6,166.1,127.3,155.8,1434.0,4197.0,28.0,0,
96300,1874.4,30.3,131.4,220.6,1214.0,3668.0,2.0,0,
96400,1858.4,22.6,131.4,133.8,1214.0,3668.0,2.0,0,
96600,1864.0,23.8,131.5,101.5,1214.0,3668.0,2.0,0,
96700,1864.7,21.1,131.4,239.9,1214.0,3668.0,2.0,0,
96800,1861.9,19.6,131.3,240.5,1214.0,3668.0,2.0,0,
96900,1861.0,21.8,131.3,240.4,1214.0,3668.0,2.0,0,
97000,1863.0,21.2,131.3,240.1,1214.0,3668.0,2.0,0,
97100,1862.9,21.7,131.2,240.2,1214.0,3668.0,2.0,0,
97200,1862.6,19.4,131.2,240.4,1214.0,3668.0,2.0,0,
97300,1868.1,23.9,131.1,240.4,939.0,3622.0,3.0,1,
97400,1849.3,164.3,131.0,240.3,1174.0,4204.0,2.0,0,
97600,1835.9,170.2,125.6,87.4,1243.0,3636.0,2.0,0,
97700,1862.6,142.4,126.7,159.1,1267.0,4187.0,3.0,1,
97800,1869.0,245.0,126.6,155.8,1271.0,3968.0,2.0,0,
97900,1855.4,36.9,132.5,154.1,1248.0,3495.0,2.0,0,
98000,1862.5,22.2,132.5,173.3,1248.0,3495.0,2.0,0,
98100,1859.9,22.0,132.5,94.4,1248.0,3495.0,2.0,0,
98200,1860.5,22.5,132.5,49.7,1248.0,3495.0,2.0,0,
98300,1862.6,23.7,132.6,100.2,1248.0,3495.0,2.0,0,
98400,1861.2,24.5,132.6,240.5,1248.0,3495.0,2.0,0,
98600,1861.0,23.6,132.6,240.4,1248.0,3495.0,2.0,0,
98700,1861.5,22.5,132.7,240.4,1248.0,3495.0,2.0,0,
98800,1864.6,22.7,132.6,240.3,1248.0,3495.0,2.0,0,
98900,1875.1,219.7,133.5,240.3,763.0,2773.0,2.0,0,
99000,1859.8,205.7,147.1,237.4,1259.0,3163.0,2.0,0,
99100,1847.1,164.9,157.3,100.5,1218.0,4287.0,2.0,0,
99200,1875.5,221.7,155.0,143.3,1378.0,4034.0,2.0,0,
99300,1843.5,205.5,156.7,156.0,1296.0,4341.0,28.0,0,
99400,1894.6,78.5,158.7,197.4,1227.0,3981.0,2.0,0,
99600,1862.9,21.1,150.4,158.9,1227.0,3981.0,2.0,0,
99700,1861.6,19.4,150.4,196.4,1227.0,3981.0,2.0,0,
99800,1863.4,21.0,150.4,132.2,1227.0,3981.0,2.0,0,
99900,1860.3,19.0,150.4,132.6,1227.0,3981.0,2.0,0,
100000,1863.4,21.5,150.3,240.2,1227.0,3981.0,2.0,0,
100100,1864.0,20.4,150.2,240.3,1227.0,3981.0,2.0,0,
100200,1860.5,21.2,150.3,240.5,1227.0,3981.0,2.0,0,
100300,1863.1,20.2,150.2,240.5,1227.0,3981.0,2.0,0,
100400,1861.1,21.8,150.3,240.4,1227.0,3981.0,2.0,0,
100600,1860.6,236.2,143.8,240.0,1120.0,2974.0,2.0,0,
100700,1865.2,235.7,144.8,104.6,1382.0,4633.0,2.0,0,
100800,1871.8,140.3,147.0,135.5,1339.0,4344.0,2.0,0,
100900,1851.3,48.8,142.1,187.6,1400.0,4148.0,2.0,0,
101000,1848.1,174.3,139.7,183.7,1329.0,4532.0,28.0,0,
101100,1878.5,42.0,140.8,226.9,1306.0,3974.0,2.0,0,
101200,1860.3,20.9,136.1,195.8,1306.0,3974.0,2.0,0,
101300,1858.0,19.1,136.1,159.1,1306.0,3974.0,2.0,0,
101400,1860.7,21.5,136.1,230.6,1306.0,3974.0,2.0,0,
101600,1864.3,19.9,136.1,240.3,1306.0,3974.0,2.0,0,
101700,1861.5,24.7,136.2,240.3,1306.0,3974.0,2.0,0,
101800,1863.7,19.5,136.2,240.4,1306.0,3974.0,2.0,0,
101900,1861.7,22.8,136.2,240.5,1306.0,3974.0,2.0,0,
102000,1861.9,20.3,136.2,240.7,1306.0,3974.0,2.0,0,
102100,1863.7,11.1,136.2,240.7,822.0,3361.0,3.0,1,
102200,1859.7,205.9,133.5,240.6,830.0,2939.0,2.0,0,
102300,1865.1,110.9,128.1,239.1,1130.0,3512.0,2.0,0,
102400,1848.1,183.2,126.8,90.7,1220.0,3869.0,2.0,0,
102600,1858.4,225.6,133.8,171.6,1097.0,3903.0,2.0,0,
102700,1882.7,81.3,132.7,164.9,1262.0,3934.0,2.0,0,
102800,1855.1,25.8,135.1,226.2,1262.0,3934.0,2.0,0,
102900,1859.3,19.6,135.1,154.4,1262.0,3934.0,2.0,0,
103000,1862.0,19.7,135.1,132.9,1262.0,3934.0,2.0,0,
103100,1862.9,21.6,135.0,230.8,1262.0,3934.0,2.0,0,
103200,1860.4,22.6,135.1,240.4,1262.0,3934.0,2.0,0,
103300,1865.9,21.6,135.1,240.4,1262.0,3934.0,2.0,0,
103400,1861.5,22.7,135.1,240.3,1262.0,3934.0,2.0,0,
103600,1862.2,21.3,135.1,240.8,1262.0,3934.0,2.0,0,
103700,1863.5,116.8,135.1,240.6,1262.0,3934.0,2.0,0,
103800,1864.7,25.3,138.4,240.0,765.0,3642.0,3.0,1,
103900,1852.1,164.4,131.8,38.1,1366.0,4430.0,28.0,0,
104000,1879.1,203.1,130.4,37.2,1271.0,4034.0,2.0,0,
104100,1864.6,177.8,127.7,70.6,1287.0,4162.0,2.0,0,
104200,1853.4,98.6,128.7,187.6,1198.0,3630.0,2.0,0,
104300,1853.0,146.7,121.6,185.0,1095.0,3427.0,2.0,0,
104400,1860.1,24.1,126.8,166.8,1095.0,3427.0,2.0,0,
104600,1862.1,19.8,126.8,94.4,1095.0,3427.0,2.0,0,
104700,1859.5,21.4,126.8,49.3,1095.0,3427.0,2.0,0,
104800,1863.1,20.2,126.8,237.7,1095.0,3427.0,2.0,0,
104900,1862.2,21.9,126.8,240.4,1095.0,3427.0,2.0,0,
105000,1860.8,21.1,126.8,240.4,1095.0,3427.0,2.0,0,
105100,1861.9,20.4,126.7,240.4,1095.0,3427.0,2.0,0,
105200,1861.0,19.1,126.8,240.4,1095.0,3427.0,2.0,0,
105300,1861.0,98.7,126.8,240.6,1095.0,3427.0,2.0,0,
105400,1866.6,215.4,128.2,240.3,792.0,2671.0,2.0,0,
105600,1845.8,124.2,143.8,152.0,1263.0,4173.0,2.0,0,
105700,1869.0,117.0,141.3,154.7,1201.0,4020.0,2.0,0,
105800,1853.3,156.1,143.3,158.1,1200.0,4133.0,28.0,0,
105900,1871.3,211.1,144.3,226.4,1312.0,3985.0,2.0,0,
106000,1859.6,31.8,141.6,196.2,1242.0,3557.0,2.0,0,
106100,1862.9,23.6,141.6,225.9,1242.0,3557.0,2.0,0,
106200,1862.1,22.5,141.7,187.2,1242.0,3557.0,2.0,0,
106300,1863.1,17.5,141.7,138.1,1242.0,3557.0,2.0,0,
106400,1864.0,21.2,141.6,198.9,1242.0,3557.0,2.0,0,
106600,1864.5,20.1,141.6,240.4,1242.0,3557.0,2.0,0,
106700,1862.6,22.2,141.5,240.5,1242.0,3557.0,2.0,0,
106800,1862.1,21.2,141.5,240.6,1242.0,3557.0,2.0,0,
106900,1861.1,20.2,141.6,240.5,1242.0,3557.0,2.0,0,
107000,1863.8,91.5,139.7,240.5,824.0,3446.0,3.0,1,
107100,1866.2,98.2,132.2,240.3,1098.0,3745.0,2.0,0,
107200,1855.8,195.5,121.7,218.7,1379.0,3918.0,2.0,0,
107300,1866.0,150.8,130.5,227.0,1438.0,4135.0,2.0,0,
107400,1882.9,213.5,125.7,196.5,1331.0,4461.0,2.0,0,
107600,1872.8,30.3,128.2,200.8,1333.0,3820.0,2.0,0,
107700,1864.1,21.7,127.7,156.7,1333.0,3820.0,2.0,0,
107800,1860.6,21.1,127.7,170.7,1333.0,3820.0,2.0,0,
107900,1863.0,21.8,127.7,241.1,1333.0,3820.0,2.0,0,
108000,1860.3,20.4,127.8,240.3,1333.0,3820.0,2.0,0,
108100,1861.8,22.8,127.8,240.5,1333.0,3820.0,2.0,0,
108200,1863.0,19.9,127.8,240.3,1333.0,3820.0,2.0,0,
108300,1861.5,20.7,127.9,240.4,1333.0,3820.0,2.0,0,
108400,1862.2,22.7,127.8,240.4,1333.0,3820.0,2.0,0,
108600,1865.5,15.3,127.8,240.4,868.0,3268.0,3.0,1,
108700,1845.2,167.6,126.3,240.5,1172.0,3227.0,28.0,0,
108800,1892.8,205.3,126.7,203.9,1298.0,4216.0,2.0,0,
108900,1835.8,164.4,127.6,123.1,1120.0,3354.0,2.0,0,
109000,1863.3,137.0,131.3,215.9,1306.0,4074.0,2.0,0,
109100,1861.2,187.9,123.1,190.1,1238.0,3899.0,2.0,0,
109200,1856.0,53.5,127.1,135.6,1276.0,3668.0,2.0,0,
109300,1870.7,20.0,128.0,225.8,1276.0,3668.0,2.0,0,
109400,1859.9,21.1,128.0,133.0,1276.0,3668.0,2.0,0,
109600,1861.4,22.2,127.9,135.6,1276.0,3668.0,2.0,0,
109700,1862.5,20.1,127.9,240.4,1276.0,3668.0,2.0,0,
109800,1864.8,21.2,127.9,240.4,1276.0,3668.0,2.0,0,
109900,1863.8,24.2,127.8,240.5,1276.0,3668.0,2.0,0,
110000,1863.4,21.5,127.8,240.6,1276.0,3668.0,2.0,0,
110100,1862.7,21.7,127.8,240.3,1276.0,3668.0,2.0,0,
110200,1860.4,90.6,127.9,240.3,804.0,3568.0,4.0,1,
110300,1869.7,28.9,128.6,240.1,825.0,3331.0,3.0,1,
110400,1850.6,145.4,121.5,150.6,1329.0,4496.0,2.0,0,
110600,1841.6,233.6,116.9,164.8,1597.0,4896.0,28.0,0,
110700,1901.0,91.1,121.8,227.1,1323.0,3932.0,2.0,0,
110800,1829.3,71.5,118.5,157.6,1216.0,3217.0,2.0,0,
110900,1861.5,27.9,119.7,132.8,1216.0,3217.0,2.0,0,
111000,1861.4,20.4,119.7,197.6,1216.0,3217.0,2.0,0,
111100,1863.0,23.6,119.6,138.5,1216.0,3217.0,2.0,0,
111200,1860.7,20.2,119.7,101.5,1216.0,3217.0,2.0,0,
111300,1862.0,19.8,119.6,239.8,1216.0,3217.0,2.0,0,
111400,1862.4,21.6,119.6,240.3,1216.0,3217.0,2.0,0,
111600,1862.8,22.6,119.6,240.5,1216.0,3217.0,2.0,0,
111700,1862.9,21.7,119.6,240.3,1216.0,3217.0,2.0,0,
111800,1866.1,93.3,119.6,240.4,763.0,2355.0,2.0,0,
111900,1861.6,210.1,122.0,240.4,1046.0,3036.0,2.0,0,
112000,1866.2,188.3,135.3,131.7,1389.0,4170.0,2.0,0,
112100,1873.3,147.8,142.0,124.0,1403.0,4364.0,2.0,0,
112200,1850.0,167.8,140.9,136.5,1410.0,4056.0,2.0,0,
112300,1848.3,195.4,139.9,156.7,1403.0,4401.0,28.0,0,
112400,1874.1,63.5,142.5,225.7,1237.0,3678.0,2.0,0,
112600,1861.1,20.4,138.7,93.3,1237.0,3678.0,2.0,0,
112700,1862.5,22.0,138.7,198.8,1237.0,3678.0,2.0,0,
112800,1862.2,20.6,138.7,238.0,1237.0,3678.0,2.0,0,
112900,1861.9,20.8,138.7,240.5,1237.0,3678.0,2.0,0,
113000,1862.4,23.1,138.8,240.5,1237.0,3678.0,2.0,0,
113100,1862.2,21.9,138.8,240.6,1237.0,3678.0,2.0,0,
113200,1864.5,23.8,138.7,240.6,1237.0,3678.0,2.0,0,
113300,1861.8,21.4,138.8,240.6,1237.0,3678.0,2.0,0,
113400,1861.9,13.5,138.8,240.7,1237.0,3678.0,2.0,0,
113600,1859.0,106.0,129.5,240.4,1178.0,3551.0,2.0,0,
113700,1856.2,163.1,120.4,207.9,1280.0,3747.0,2.0,0,
113800,1859.0,155.1,125.6,228.6,1327.0,4005.0,2.0,0,
113900,1867.3,53.3,123.4,227.2,1488.0,3957.0,2.0,0,
114000,1869.8,171.8,113.8,137.3,1402.0,4189.0,28.0,0,
114100,1859.4,26.3,118.0,197.5,1295.0,3653.0,2.0,0,
114200,1860.9,20.7,118.0,197.9,1295.0,3653.0,2.0,0,
114300,1860.3,22.8,118.0,135.1,1295.0,3653.0,2.0,0,
114400,1864.5,22.0,118.0,158.2,1295.0,3653.0,2.0,0,
114600,1861.2,21.3,118.0,240.3,1295.0,3653.0,2.0,0,
114700,1862.3,20.9,118.0,240.4,1295.0,3653.0,2.0,0,
114800,1863.4,22.3,118.0,240.3,1295.0,3653.0,2.0,0,
114900,1862.9,21.8,118.0,240.3,1295.0,3653.0,2.0,0,
115000,1865.4,21.6,117.9,240.3,1295.0,3653.0,2.0,0,
115100,1872.4,45.6,117.9,240.5,950.0,3801.0,3.0,1,
115200,1851.2,81.5,117.8,239.5,1025.0,4658.0,4.0,1,
115300,1868.7,127.6,114.4,35.7,1191.0,3755.0,2.0,0,
115400,1877.6,159.8,109.9,38.2,1240.0,3859.0,2.0,0,
115600,1877.4,113.0,109.9,228.4,1291.0,3995.0,2.0,0,
115700,1849.6,33.1,108.7,196.8,1152.0,3291.0,2.0,0,
115800,1860.0,19.4,108.8,227.0,1152.0,3291.0,2.0,0,
115900,1860.9,23.5,108.7,196.7,1152.0,3291.0,2.0,0,
116000,1865.0,22.1,108.7,131.3,1152.0,3291.0,2.0,0,
116100,1863.1,23.1,108.7,149.7,1152.0,3291.0,2.0,0,
116200,1863.8,20.8,108.6,240.5,1152.0,3291.0,2.0,0,
116300,1864.5,21.6,108.6,240.4,1152.0,3291.0,2.0,0,
116400,1860.5,23.3,108.6,240.3,1152.0,3291.0,2.0,0,
116600,1861.2,19.4,108.7,240.1,1152.0,3291.0,2.0,0,
116700,1861.5,144.5,108.7,240.5,1163.0,3230.0,28.0,0,
116800,1886.2,259.4,114.5,240.2,1288.0,3417.0,2.0,0,
116900,1835.6,168.9,135.7,201.0,1345.0,4185.0,2.0,0,
117000,1863.1,126.4,139.2,135.6,1324.0,3812.0,2.0,0,
117100,1865.5,187.2,136.1,130.0,1216.0,3867.0,2.0,0,
117200,1853.8,172.8,139.5,157.5,1262.0,3917.0,2.0,0,
117300,1890.3,34.9,140.4,226.8,1376.0,3922.0,2.0,0,
117400,1848.3,22.4,137.5,165.5,1376.0,3922.0,2.0,0,
117600,1863.6,20.4,137.5,228.7,1376.0,3922.0,2.0,0,
117700,1861.0,21.1,137.5,239.4,1376.0,3922.0,2.0,0,
117800,1862.3,20.7,137.5,240.1,1376.0,3922.0,2.0,0,
117900,1861.2,20.4,137.6,240.2,1376.0,3922.0,2.0,0,
118000,1862.6,21.9,137.6,240.3,1376.0,3922.0,2.0,0,
118100,1862.3,18.2,137.6,240.3,1376.0,3922.0,2.0,0,
118200,1861.7,18.8,137.5,240.4,1376.0,3922.0,2.0,0,
118300,1862.4,24.0,137.5,240.5,662.0,3166.0,3.0,1,
118400,1846.5,162.2,133.8,240.3,975.0,3254.0,28.0,0,
118600,1844.5,204.8,123.4,38.0,1200.0,3990.0,2.0,0,
118700,1902.0,108.6,125.7,94.0,1322.0,4130.0,2.0,0,
118800,1831.3,174.8,122.5,163.9,1142.0,3897.0,2.0,0,
118900,1855.6,61.1,126.3,163.5,1202.0,3350.0,2.0,0,
119000,1873.2,21.4,128.4,207.5,1202.0,3350.0,2.0,0,
119100,1861.6,20.0,128.4,132.7,1202.0,3350.0,2.0,0,
119200,1862.7,23.0,128.4,124.7,1202.0,3350.0,2.0,0,
119300,1861.7,19.6,128.4,220.0,1202.0,3350.0,2.0,0,
119400,1860.4,18.1,128.4,240.2,1202.0,3350.0,2.0,0,
119600,1857.0,19.4,128.4,240.4,1202.0,3350.0,2.0,0,
119700,1861.3,18.7,128.5,240.5,1202.0,3350.0,2.0,0,
119800,1864.2,19.9,128.4,240.5,1202.0,3350.0,2.0,0,
119900,1863.2,85.6,128.4,240.6,800.0,3301.0,3.0,1,
120000,1860.2,32.8,131.9,239.9,724.0,3285.0,3.0,1,
120100,1866.6,163.3,123.9,38.5,1394.0,4686.0,28.0,0,
120200,1854.1,192.6,123.8,37.2,1407.0,4390.0,2.0,0,
120300,1848.6,187.6,130.0,44.1,1443.0,4240.0,28.0,0,
120400,1872.2,102.8,132.0,145.4,1291.0,3850.0,2.0,0,
120600,1862.3,22.1,125.5,166.3,1291.0,3850.0,2.0,0,
120700,1857.3,20.3,125.6,226.3,1291.0,3850.0,2.0,0,
120800,1860.5,19.0,125.6,136.6,1291.0,3850.0,2.0,0,
120900,1862.3,20.1,125.6,93.3,1291.0,3850.0,2.0,0,
121000,1863.7,23.1,125.5,239.5,1291.0,3850.0,2.0,0,
121100,1863.7,20.4,125.5,240.2,1291.0,3850.0,2.0,0,
121200,1861.7,20.3,125.6,240.3,1291.0,3850.0,2.0,0,
121300,1861.4,20.1,125.6,240.2,1291.0,3850.0,2.0,0,
121400,1863.5,19.8,125.6,240.1,1291.0,3850.0,2.0,0,
121600,1875.1,172.7,129.0,240.2,804.0,2815.0,2.0,0,
121700,1856.3,186.2,140.4,138.9,1208.0,3875.0,2.0,0,
121800,1855.3,133.3,145.3,164.0,1223.0,3962.0,2.0,0,
121900,1866.1,271.1,140.2,163.9,1333.0,4315.0,2.0,0,
122000,1874.5,204.5,146.1,157.1,1339.0,4516.0,28.0,0,
122100,1852.4,68.5,149.4,197.2,1293.0,3940.0,2.0,0,
122200,1858.6,21.0,146.8,133.6,1248.0,3891.0,2.0,0,
122300,1857.8,21.3,146.8,158.7,1248.0,3891.0,2.0,0,
122400,1862.4,19.1,146.7,226.8,1248.0,3891.0,2.0,0,
122600,1861.7,21.8,146.7,240.3,1248.0,3891.0,2.0,0,
122700,1863.6,17.6,146.7,240.3,1248.0,3891.0,2.0,0,
122800,1862.0,20.3,146.7,240.3,1248.0,3891.0,2.0,0,
122900,1863.0,19.4,146.7,240.5,1248.0,3891.0,2.0,0,
123000,1863.4,24.6,146.6,240.5,1248.0,3891.0,2.0,0,
123100,1863.7,21.8,146.7,240.6,1248.0,3891.0,2.0,0,
123200,1860.2,158.2,142.5,240.5,1041.0,2955.0,28.0,0,
123300,1874.8,134.5,140.4,237.5,1309.0,3893.0,2.0,0,
123400,1867.9,195.2,137.3,94.0,1341.0,3899.0,2.0,0,
123600,1860.0,165.9,128.2,166.0,1307.0,3829.0,2.0,0,
123700,1855.5,147.6,127.9,158.0,1258.0,3815.0,2.0,0,
123800,1871.5,29.8,129.9,226.1,1383.0,4038.0,2.0,0,
123900,1862.1,19.7,129.9,131.2,1383.0,4038.0,2.0,0,
124000,1859.6,22.2,129.9,94.4,1383.0,4038.0,2.0,0,
124100,1864.2,21.9,129.9,200.3,1383.0,4038.0,2.0,0,
124200,1864.4,24.0,129.9,240.2,1383.0,4038.0,2.0,0,
124300,1864.1,21.5,129.9,240.6,1383.0,4038.0,2.0,0,
124400,1864.7,21.4,129.9,240.5,1383.0,4038.0,2.0,0,
124600,1865.6,22.2,129.8,240.4,1383.0,4038.0,2.0,0,
124700,1863.2,19.8,129.8,240.5,1383.0,4038.0,2.0,0,
124800,1868.9,53.0,129.7,240.6,841.0,3568.0,3.0,1,
124900,1846.3,127.1,124.8,240.4,1124.0,3368.0,28.0,0,
125000,1870.3,174.5,122.2,136.4,1317.0,4399.0,2.0,0,
125100,1852.3,187.0,118.4,91.5,1242.0,4376.0,2.0,0,
125200,1874.3,106.1,123.7,197.8,1221.0,3836.0,2.0,0,
125300,1871.1,191.7,118.8,197.4,1157.0,3409.0,2.0,0,
125400,1847.0,44.2,122.1,190.3,1266.0,3789.0,2.0,0,
125600,1857.1,22.2,122.6,117.5,1266.0,3789.0,2.0,0,
125700,1863.3,21.0,122.6,68.7,1266.0,3789.0,2.0,0,
125800,1863.5,20.8,122.6,196.4,1266.0,3789.0,2.0,0,
125900,1861.6,22.0,122.6,240.3,1266.0,3789.0,2.0,0,
126000,1865.6,18.4,122.6,240.3,1266.0,3789.0,2.0,0,
126100,1860.3,19.9,122.6,240.4,1266.0,3789.0,2.0,0,
126200,1860.9,18.0,122.6,240.4,1266.0,3789.0,2.0,0,
126300,1861.7,20.4,122.7,240.2,1266.0,3789.0,2.0,0,
126400,1862.0,31.4,122.7,240.4,864.0,3498.0,3.0,1,
126600,1857.9,131.5,118.4,239.5,1327.0,4103.0,2.0,0,
126700,1888.8,101.5,111.5,89.7,1477.0,4459.0,2.0,0,
126800,1828.3,137.7,112.6,140.4,1281.0,4416.0,2.0,0,
126900,1873.5,84.2,113.7,194.4,1391.0,3893.0,2.0,0,
127000,1850.3,53.2,105.7,130.0,1226.0,3417.0,2.0,0,
127100,1859.5,21.0,109.3,133.4,1226.0,3417.0,2.0,0,
127200,1857.1,19.2,109.3,171.4,1226.0,3417.0,2.0,0,
127300,1861.9,20.7,109.3,131.8,1226.0,3417.0,2.0,0,
127400,1862.5,20.7,109.3,100.1,1226.0,3417.0,2.0,0,
127600,1862.1,21.8,109.4,240.7,1226.0,3417.0,2.0,0,
127700,1865.0,19.3,109.4,240.5,1226.0,3417.0,2.0,0,
127800,1864.8,19.0,109.4,240.4,1226.0,3417.0,2.0,0,
127900,1860.9,23.7,109.4,240.6,1226.0,3417.0,2.0,0,
128000,1865.4,166.4,109.4,240.7,1226.0,3417.0,2.0,0,
128100,1885.7,237.4,118.8,239.6,1128.0,2945.0,2.0,0,
128200,1841.0,179.5,135.0,83.7,1050.0,3852.0,2.0,0,
128300,1857.1,135.1,139.3,83.7,1151.0,3660.0,2.0,0,
128400,1867.6,146.8,135.2,99.8,1371.0,4310.0,2.0,0,
128600,1887.8,51.4,139.1,228.5,1338.0,3678.0,2.0,0,
128700,1843.9,18.4,135.9,165.6,1338.0,3678.0,2.0,0,
128800,1859.1,20.2,135.8,157.4,1338.0,3678.0,2.0,0,
128900,1861.3,21.6,135.8,229.4,1338.0,3678.0,2.0,0,
129000,1861.6,19.3,135.8,239.6,1338.0,3678.0,2.0,0,
129100,1862.3,21.6,135.8,240.5,1338.0,3678.0,2.0,0,
129200,1859.9,21.9,135.9,240.5,1338.0,3678.0,2.0,0,
129300,1862.1,21.0,135.9,240.4,1338.0,3678.0,2.0,0,
129400,1860.7,21.0,136.0,240.4,1338.0,3678.0,2.0,0,
129600,1860.8,25.3,136.0,240.7,1338.0,3678.0,2.0,0,
129700,1851.2,168.4,131.4,240.7,1092.0,2996.0,27.0,0,
129800,1870.5,158.6,128.2,239.4,1394.0,3986.0,2.0,0,
129900,1847.5,195.0,124.7,38.0,1246.0,3809.0,2.0,0,
130000,1895.0,130.3,127.9,76.2,1359.0,3717.0,2.0,0,
130100,1837.9,66.1,127.8,164.0,1430.0,4621.0,2.0,0,
130200,1852.0,115.8,125.1,188.5,1236.0,3543.0,2.0,0,
130300,1876.7,25.2,127.0,227.0,1236.0,3543.0,2.0,0,
130400,1856.0,19.3,127.1,195.2,1236.0,3543.0,2.0,0,
130600,1863.5,22.6,127.1,232.9,1236.0,3543.0,2.0,0,
130700,1859.7,21.1,127.1,240.4,1236.0,3543.0,2.0,0,
130800,1863.2,20.8,127.0,240.5,1236.0,3543.0,2.0,0,
130900,1862.8,19.8,127.0,240.5,1236.0,3543.0,2.0,0,
131000,1859.3,19.4,126.9,240.4,1236.0,3543.0,2.0,0,
131100,1862.0,19.1,126.9,240.4,1236.0,3543.0,2.0,0,
131200,1861.6,76.0,126.9,240.4,1236.0,3543.0,2.0,0,
131300,1863.5,19.8,128.2,240.4,733.0,3226.0,3.0,1,
131400,1859.4,176.0,120.6,103.6,1215.0,3140.0,27.0,0,
131600,1846.5,187.3,120.1,52.6,1259.0,3798.0,28.0,0,
131700,1866.1,113.6,122.4,156.5,1236.0,3821.0,2.0,0,
131800,1853.6,220.8,124.3,163.7,1115.0,3624.0,2.0,0,
131900,1862.7,32.4,125.8,166.3,1193.0,3313.0,2.0,0,
132000,1861.1,20.2,125.8,225.9,1193.0,3313.0,2.0,0,
132100,1860.6,22.8,125.8,101.1,1193.0,3313.0,2.0,0,
132200,1863.0,23.1,125.8,71.9,1193.0,3313.0,2.0,0,
132300,1863.8,19.6,125.8,186.8,1193.0,3313.0,2.0,0,
132400,1863.0,22.7,125.8,240.5,1193.0,3313.0,2.0,0,
132600,1859.7,20.0,125.8,240.5,1193.0,3313.0,2.0,0,
132700,1863.6,18.5,125.7,240.4,1193.0,3313.0,2.0,0,
132800,1862.4,21.9,125.7,240.3,1193.0,3313.0,2.0,0,
132900,1871.3,40.2,124.8,240.4,754.0,3231.0,4.0,1,
133000,1860.1,27.7,124.4,240.6,946.0,4126.0,4.0,1,
133100,1845.4,157.1,114.7,239.7,1304.0,4155.0,2.0,0,
133200,1867.1,244.5,114.6,157.7,1412.0,4299.0,2.0,0,
133300,1874.2,195.6,115.8,209.6,1232.0,4030.0,2.0,0,
133400,1850.0,75.6,119.3,216.3,1423.0,4252.0,2.0,0,
133600,1865.1,18.4,119.1,155.1,1423.0,4252.0,2.0,0,
133700,1861.0,19.2,119.0,165.8,1423.0,4252.0,2.0,0,
133800,1861.3,19.5,119.0,135.7,1423.0,4252.0,2.0,0,
133900,1861.9,21.2,119.1,143.2,1423.0,4252.0,2.0,0,
134000,1863.2,24.6,119.1,240.1,1423.0,4252.0,2.0,0,
134100,1863.2,21.6,119.1,240.2,1423.0,4252.0,2.0,0,
134200,1862.9,21.5,119.1,240.3,1423.0,4252.0,2.0,0,
134300,1864.2,19.9,119.1,240.4,1423.0,4252.0,2.0,0,
134400,1860.4,20.7,119.1,240.5,1423.0,4252.0,2.0,0,
134600,1870.0,261.8,128.5,239.7,1246.0,3166.0,2.0,0,
134700,1868.0,202.7,147.6,73.9,1220.0,3647.0,2.0,0,
134800,1844.7,189.5,151.1,99.5,1208.0,3828.0,2.0,0,
134900,1862.0,227.3,152.3,163.8,1210.0,4051.0,2.0,0,
135000,1849.2,179.2,158.9,196.7,1256.0,4191.0,2.0,0,
135100,1871.0,39.6,161.6,197.0,1209.0,3923.0,2.0,0,
135200,1869.8,19.3,156.0,133.2,1209.0,3923.0,2.0,0,
135300,1858.8,20.3,156.0,165.9,1209.0,3923.0,2.0,0,
135400,1861.1,21.6,156.1,229.1,1209.0,3923.0,2.0,0,
135600,1861.7,19.2,156.1,240.4,1209.0,3923.0,2.0,0,
135700,1863.5,20.3,156.0,240.5,1209.0,3923.0,2.0,0,
135800,1862.6,20.9,156.0,240.5,1209.0,3923.0,2.0,0,
135900,1863.9,23.2,156.0,240.3,1209.0,3923.0,2.0,0,
136000,1862.1,19.0,156.0,240.2,1209.0,3923.0,2.0,0,
136100,1862.6,11.1,156.0,240.3,498.0,2433.0,3.0,1,
136200,1846.5,193.3,152.0,240.3,713.0,2804.0,27.0,0,
136300,1872.0,200.2,146.1,139.6,1427.0,4427.0,2.0,0,
136400,1854.9,202.9,145.7,41.1,1246.0,3688.0,2.0,0,
136600,1879.7,221.5,135.9,153.7,1117.0,4171.0,2.0,0,
136700,1835.0,79.6,140.6,134.0,1330.0,3896.0,2.0,0,
136800,1875.1,21.6,142.2,196.9,1330.0,3896.0,2.0,0,
136900,1859.5,19.5,142.2,99.4,1330.0,3896.0,2.0,0,
137000,1861.4,20.5,142.2,44.3,1330.0,3896.0,2.0,0,
137100,1863.9,21.1,142.2,91.9,1330.0,3896.0,2.0,0,
137200,1863.8,19.3,142.2,239.9,1330.0,3896.0,2.0,0,
137300,1861.3,19.4,142.2,240.3,1330.0,3896.0,2.0,0,
137400,1862.9,19.8,142.2,240.3,1330.0,3896.0,2.0,0,
137600,1864.7,19.5,142.2,240.1,1330.0,3896.0,2.0,0,
137700,1860.7,36.3,142.2,240.4,576.0,2630.0,5.0,1,
137800,1869.8,30.3,142.4,240.6,786.0,3509.0,3.0,1,
137900,1848.7,146.6,132.5,239.0,1297.0,4103.0,28.0,0,
138000,1898.6,213.0,127.9,45.9,1212.0,3803.0,2.0,0,
138100,1830.1,154.6,129.3,106.0,1133.0,3644.0,2.0,0,
138200,1867.3,104.2,131.6,195.6,1241.0,3925.0,2.0,0,
138300,1855.5,106.2,122.5,158.9,1149.0,3546.0,2.0,0,
138400,1853.3,22.5,123.0,164.0,1149.0,3546.0,2.0,0,
138600,1860.0,21.7,123.0,154.6,1149.0,3546.0,2.0,0,
138700,1863.2,19.2,123.0,93.0,1149.0,3546.0,2.0,0,
138800,1861.3,21.3,123.1,239.0,1149.0,3546.0,2.0,0,
138900,1863.3,20.1,123.1,240.5,1149.0,3546.0,2.0,0,
139000,1863.0,18.1,123.0,240.6,1149.0,3546.0,2.0,0,
139100,1863.2,19.8,123.0,240.7,1149.0,3546.0,2.0,0,
139200,1860.8,18.6,123.1,240.6,1149.0,3546.0,2.0,0,
139300,1861.7,72.9,123.0,240.3,1149.0,3546.0,2.0,0,
139400,1877.4,162.7,125.9,239.9,665.0,2584.0,2.0,0,
139600,1848.7,150.0,131.2,65.4,1188.0,3930.0,2.0,0,
139700,1877.6,237.4,127.1,55.4,1281.0,4096.0,2.0,0,
139800,1841.8,176.7,134.0,79.0,1314.0,4259.0,28.0,0,
139900,1893.3,91.8,133.4,130.9,1187.0,3715.0,2.0,0,
140000,1840.5,22.6,129.4,131.3,1267.0,3870.0,2.0,0,
140100,1860.1,21.2,129.4,197.2,1267.0,3870.0,2.0,0,
140200,1863.3,19.3,129.4,239.4,1267.0,3870.0,2.0,0,
140300,1861.5,19.6,129.4,230.6,1267.0,3870.0,2.0,0,
140400,1863.6,17.4,129.4,240.3,1267.0,3870.0,2.0,0,
140600,1861.0,20.5,129.3,240.3,1267.0,3870.0,2.0,0,
140700,1862.1,20.1,129.4,240.2,1267.0,3870.0,2.0,0,
140800,1864.1,20.1,129.3,240.4,1267.0,3870.0,2.0,0,
140900,1862.2,20.6,129.4,240.5,1267.0,3870.0,2.0,0,
141000,1859.6,58.2,127.9,240.4,634.0,3019.0,4.0,1,
141100,1863.0,30.2,115.4,239.7,844.0,3441.0,3.0,1,
141200,1853.3,14.7,115.4,90.2,1261.0,5371.0,4.0,1,
141300,1883.0,136.1,108.2,81.9,1222.0,3917.0,2.0,0,
141400,1848.4,55.8,93.1,83.1,1216.0,3951.0,2.0,0,
141600,1878.5,31.1,93.3,226.7,1215.0,3470.0,2.0,0,
141700,1863.6,21.5,93.3,221.5,1215.0,3470.0,2.0,0,
141800,1861.6,20.2,93.3,220.1,1215.0,3470.0,2.0,0,
141900,1862.8,24.8,93.3,243.3,1215.0,3470.0,2.0,0,
142000,1864.3,20.8,93.4,240.5,1215.0,3470.0,2.0,0,
142100,1862.0,18.2,93.5,240.5,1215.0,3470.0,2.0,0,
142200,1860.2,22.2,93.5,240.7,1215.0,3470.0,2.0,0,
142300,1861.3,20.7,93.5,240.7,1215.0,3470.0,2.0,0,
142400,1863.8,20.2,93.5,240.7,1215.0,3470.0,2.0,0,
142600,1862.5,16.9,93.4,240.4,816.0,3469.0,3.0,1,
142700,1859.5,102.1,90.9,240.2,784.0,3532.0,4.0,1,
142800,1858.7,90.2,97.3,239.6,1354.0,4096.0,2.0,0,
142900,1851.6,169.8,111.8,207.5,1226.0,3900.0,2.0,0,
143000,1863.3,140.6,113.3,219.4,1295.0,3973.0,2.0,0,
143100,1860.3,228.7,116.7,164.8,1302.0,4182.0,2.0,0,
143200,1870.2,45.5,119.4,164.5,1228.0,3589.0,2.0,0,
143300,1850.5,20.3,120.4,227.4,1228.0,3589.0,2.0,0,
143400,1861.6,19.5,120.5,130.6,1228.0,3589.0,2.0,0,
143600,1862.5,16.8,120.4,100.2,1228.0,3589.0,2.0,0,
143700,1860.1,19.0,120.4,240.4,1228.0,3589.0,2.0,0,
143800,1858.6,19.9,120.4,240.5,1228.0,3589.0,2.0,0,
143900,1862.3,19.8,120.4,240.5,1228.0,3589.0,2.0,0,
144000,1862.8,22.6,120.4,240.6,1228.0,3589.0,2.0,0,
144100,1862.9,21.4,120.4,240.6,1228.0,3589.0,2.0,0,
144200,1862.8,19.6,120.3,240.5,654.0,2975.0,3.0,1,
144300,1875.9,28.8,121.1,240.4,792.0,3501.0,3.0,1,
144400,1849.1,171.4,119.2,238.7,1460.0,4624.0,28.0,0,
144600,1873.6,174.8,123.5,93.9,1187.0,3601.0,2.0,0,
144700,1849.4,101.2,125.7,157.6,1248.0,4048.0,2.0,0,
144800,1855.2,74.5,123.9,157.5,1119.0,3467.0,2.0,0,
144900,1861.5,23.7,126.6,186.9,1119.0,3467.0,2.0,0,
145000,1862.8,22.4,126.5,158.8,1119.0,3467.0,2.0,0,
145100,1863.6,18.8,126.5,100.3,1119.0,3467.0,2.0,0,
145200,1861.7,19.9,126.5,93.8,1119.0,3467.0,2.0,0,
145300,1861.7,20.0,126.5,239.8,1119.0,3467.0,2.0,0,
145400,1863.7,22.4,126.4,240.2,1119.0,3467.0,2.0,0,
145600,1864.1,20.8,126.4,240.5,1119.0,3467.0,2.0,0,
145700,1862.0,18.9,126.4,240.5,1119.0,3467.0,2.0,0,
145800,1865.3,21.2,126.4,240.4,754.0,3011.0,4.0,1,
145900,1861.4,253.1,126.4,240.3,1141.0,3319.0,2.0,0,
146000,1882.8,253.2,142.5,210.7,1374.0,4639.0,2.0,0,
146100,1832.8,150.1,152.0,94.4,1574.0,4681.0,28.0,0,
146200,1876.3,121.0,146.3,100.4,1284.0,4139.0,2.0,0,
146300,1848.9,223.8,146.7,131.5,1377.0,4390.0,28.0,0,
146400,1871.0,70.7,152.8,202.0,1328.0,4115.0,2.0,0,
146600,1861.7,17.8,143.7,131.4,1328.0,4115.0,2.0,0,
146700,1859.7,24.8,143.7,184.1,1328.0,4115.0,2.0,0,
146800,1861.0,22.2,143.8,230.6,1328.0,4115.0,2.0,0,
146900,1860.9,21.3,143.8,240.5,1328.0,4115.0,2.0,0,
147000,1863.5,20.6,143.8,240.9,1328.0,4115.0,2.0,0,
147100,1861.2,22.5,143.9,240.9,1328.0,4115.0,2.0,0,
147200,1863.6,21.4,143.9,240.6,1328.0,4115.0,2.0,0,
147300,1862.2,19.6,143.9,240.5,1328.0,4115.0,2.0,0,
147400,1862.3,18.9,143.9,240.4,1328.0,4115.0,2.0,0,
147600,1858.7,119.7,136.1,239.8,1106.0,3698.0,2.0,0,
147700,1870.9,204.2,122.6,100.1,1211.0,3885.0,2.0,0,
147800,1847.7,191.2,126.5,154.7,1316.0,4393.0,2.0,0,
147900,1892.4,184.2,128.3,226.0,1259.0,3787.0,2.0,0,
148000,1831.2,161.4,125.8,143.8,1076.0,3551.0,2.0,0,
148100,1868.4,26.3,128.7,187.1,1054.0,3123.0,2.0,0,
148200,1860.5,19.9,128.7,130.5,1054.0,3123.0,2.0,0,
148300,1860.6,21.7,128.7,38.1,1054.0,3123.0,2.0,0,
148400,1864.1,22.9,128.7,37.8,1054.0,3123.0,2.0,0,
148600,1864.3,19.7,128.6,240.5,1054.0,3123.0,2.0,0,
148700,1862.1,19.2,128.6,240.4,1054.0,3123.0,2.0,0,
148800,1860.7,23.3,128.6,240.4,1054.0,3123.0,2.0,0,
148900,1862.8,21.5,128.6,240.2,1054.0,3123.0,2.0,0,
149000,1861.2,21.3,128.6,240.3,1054.0,3123.0,2.0,0,
149100,1870.8,32.7,128.8,240.3,807.0,3280.0,3.0,1,
149200,1845.8,119.5,127.1,238.7,1002.0,4541.0,4.0,1,
149300,1897.3,135.5,122.4,44.0,1272.0,4161.0,2.0,0,
149400,1839.5,196.2,120.4,73.9,1351.0,4295.0,2.0,0,
149600,1876.3,73.5,125.2,164.1,1462.0,4265.0,2.0,0,
149700,1850.4,24.4,118.1,131.7,1317.0,4353.0,2.0,0,
149800,1859.9,18.2,118.2,207.5,1317.0,4353.0,2.0,0,
149900,1862.8,20.9,118.1,230.6,1317.0,4353.0,2.0,0,
150000,1859.9,22.5,118.2,229.2,1317.0,4353.0,2.0,0,
150100,1862.3,19.6,118.2,239.9,1317.0,4353.0,2.0,0,
150200,1864.5,19.0,118.2,240.2,1317.0,4353.0,2.0,0,
150300,1863.2,19.8,118.2,240.4,1317.0,4353.0,2.0,0,
150400,1863.3,19.7,118.1,240.3,1317.0,4353.0,2.0,0,
150600,1860.8,19.1,118.1,240.3,1317.0,4353.0,2.0,0,
150700,1880.2,175.9,118.2,240.3,1470.0,5094.0,28.0,0,
150800,1852.6,96.8,126.9,239.0,1168.0,3760.0,2.0,0,
150900,1850.8,168.9,131.4,91.0,954.0,2773.0,28.0,0,
151000,1862.4,130.1,135.7,150.0,960.0,2171.0,2.0,0,
151100,1855.7,226.7,122.5,194.8,866.0,2642.0,2.0,0,
151200,1867.6,138.6,123.5,164.8,851.0,2470.0,28.0,0,
151300,1867.5,34.8,125.3,220.8,953.0,2521.0,2.0,0,
151400,1860.4,24.9,125.4,156.2,953.0,2521.0,2.0,0,
151600,1860.2,18.5,125.4,230.8,953.0,2521.0,2.0,0,
151700,1863.2,21.3,125.3,239.7,953.0,2521.0,2.0,0,
151800,1861.8,20.5,125.3,240.4,953.0,2521.0,2.0,0,
151900,1862.6,22.3,125.3,240.4,953.0,2521.0,2.0,0,
152000,1865.8,21.0,125.3,240.3,953.0,2521.0,2.0,0,
152100,1865.0,21.0,125.4,240.4,953.0,2521.0,2.0,0,
152200,1864.4,22.9,125.3,240.5,953.0,2521.0,2.0,0,
152300,1865.8,18.7,125.3,240.5,1188.0,5049.0,4.0,1,
152400,1849.0,174.5,117.1,240.7,1177.0,3589.0,2.0,0,
152600,1871.8,152.8,116.0,165.1,1072.0,3313.0,28.0,0,
152700,1863.5,76.9,117.6,195.2,1031.0,2796.0,2.0,0,
152800,1853.1,151.6,110.5,195.8,915.0,2743.0,2.0,0,
152900,1861.3,51.1,111.8,198.2,944.0,2654.0,2.0,0,
153000,1870.9,21.1,113.3,221.1,944.0,2654.0,2.0,0,
153100,1861.7,21.2,113.2,157.8,944.0,2654.0,2.0,0,
153200,1861.7,21.6,113.3,154.4,944.0,2654.0,2.0,0,
153300,1863.7,20.0,113.3,239.4,944.0,2654.0,2.0,0,
153400,1863.5,19.9,113.3,240.4,944.0,2654.0,2.0,0,
153600,1859.4,21.4,113.4,240.0,944.0,2654.0,2.0,0,
153700,1864.9,23.2,113.4,240.0,944.0,2654.0,2.0,0,
153800,1863.7,22.4,113.3,240.3,944.0,2654.0,2.0,0,
153900,1863.5,59.1,113.3,240.6,960.0,3999.0,3.0,1,
154000,1872.9,16.1,116.3,240.0,1041.0,4115.0,3.0,1,
154100,1844.1,127.8,109.2,38.5,1336.0,4047.0,2.0,0,
154200,1867.6,98.9,111.0,37.5,1208.0,3553.0,2.0,0,
154300,1852.7,194.2,113.9,93.7,1304.0,3580.0,28.0,0,
154400,1872.8,71.0,118.8,225.7,1086.0,3096.0,2.0,0,
154600,1852.9,19.7,114.0,169.8,1086.0,3096.0,2.0,0,
154700,1861.2,22.9,114.0,200.9,1086.0,3096.0,2.0,0,
154800,1862.3,18.5,114.0,139.1,1086.0,3096.0,2.0,0,
154900,1862.3,17.7,114.0,94.7,1086.0,3096.0,2.0,0,
155000,1863.5,21.0,114.0,240.1,1086.0,3096.0,2.0,0,
155100,1860.1,20.5,114.0,240.4,1086.0,3096.0,2.0,0,
155200,1860.7,23.6,114.0,240.2,1086.0,3096.0,2.0,0,
155300,1866.6,20.4,114.0,240.2,1086.0,3096.0,2.0,0,
155400,1863.8,20.1,114.0,240.4,1086.0,3096.0,2.0,0,
155600,1876.4,34.2,113.9,240.0,959.0,3970.0,3.0,1,
155700,1852.9,112.3,114.8,84.8,1486.0,5644.0,4.0,1,
155800,1865.7,136.2,109.6,73.9,1330.0,3827.0,2.0,0,
155900,1877.0,156.0,110.7,70.3,1246.0,3732.0,2.0,0,
156000,1837.6,134.2,107.5,100.5,1308.0,3882.0,28.0,0,
156100,1873.8,130.8,109.2,195.2,789.0,2417.0,2.0,0,
156200,1857.1,27.3,112.5,157.5,789.0,2417.0,2.0,0,
156300,1860.5,19.7,112.5,166.8,789.0,2417.0,2.0,0,
156400,1860.4,19.0,112.5,158.0,789.0,2417.0,2.0,0,
156600,1862.8,22.6,112.5,238.1,789.0,2417.0,2.0,0,
156700,1863.9,23.0,112.5,240.4,789.0,2417.0,2.0,0,
156800,1861.6,22.4,112.5,240.5,789.0,2417.0,2.0,0,
156900,1861.9,21.8,112.5,240.3,789.0,2417.0,2.0,0,
157000,1864.1,19.2,112.5,240.2,789.0,2417.0,2.0,0,
157100,1861.3,15.9,112.6,240.3,789.0,2417.0,2.0,0,
157200,1852.1,170.8,110.1,240.3,1135.0,2825.0,28.0,0,
157300,1889.2,208.8,121.7,158.1,977.0,3304.0,2.0,0,
157400,1832.9,175.0,137.2,84.7,1133.0,3229.0,2.0,0,
157600,1861.3,234.0,135.9,157.8,899.0,3160.0,2.0,0,
157700,1852.8,139.6,145.0,155.7,1047.0,3304.0,2.0,0,
157800,1870.4,24.8,140.9,196.7,1037.0,3131.0,2.0,0,
157900,1860.3,19.2,140.9,102.8,1037.0,3131.0,2.0,0,
158000,1861.9,21.2,140.8,124.7,1037.0,3131.0,2.0,0,
158100,1860.5,24.1,140.8,231.2,1037.0,3131.0,2.0,0,
158200,1866.5,26.5,140.8,240.3,1037.0,3131.0,2.0,0,
158300,1862.9,20.5,140.8,240.6,1037.0,3131.0,2.0,0,
158400,1862.3,19.4,140.9,240.5,1037.0,3131.0,2.0,0,
158600,1864.8,22.5,140.7,240.1,1037.0,3131.0,2.0,0,
158700,1860.8,20.9,140.8,240.3,1037.0,3131.0,2.0,0,
158800,1863.4,22.3,140.8,240.4,776.0,2958.0,3.0,1,
158900,1845.8,140.4,133.6,240.4,1024.0,3785.0,2.0,0,
159000,1871.2,93.0,125.7,238.9,1235.0,3735.0,2.0,0,
159100,1843.2,206.9,118.1,177.6,1146.0,3956.0,2.0,0,
159200,1897.8,72.3,122.4,227.1,1119.0,3449.0,2.0,0,
159300,1838.7,184.2,115.9,189.5,1062.0,3562.0,2.0,0,
159400,1857.5,36.2,123.7,133.6,1058.0,3208.0,2.0,0,
159600,1859.2,20.2,123.7,91.6,1058.0,3208.0,2.0,0,
159700,1863.6,20.3,123.7,37.0,1058.0,3208.0,2.0,0,
159800,1861.4,21.5,123.7,94.4,1058.0,3208.0,2.0,0,
159900,1861.7,22.0,123.7,240.3,1058.0,3208.0,2.0,0,
160000,1864.2,22.9,123.7,240.5,1058.0,3208.0,2.0,0,
160100,1862.4,22.3,123.7,240.4,1058.0,3208.0,2.0,0,
160200,1862.4,21.3,123.8,240.4,1058.0,3208.0,2.0,0,
160300,1865.5,19.7,123.7,240.3,1058.0,3208.0,2.0,0,
160400,1864.0,78.5,123.7,240.3,571.0,2643.0,3.0,1,
160600,1878.1,135.6,120.3,37.6,1219.0,4384.0,28.0,0,
160700,1856.3,66.7,121.1,37.5,1150.0,3581.0,2.0,0,
160800,1852.9,192.5,119.9,136.0,1396.0,4296.0,28.0,0,
160900,1871.2,97.8,124.1,227.3,1107.0,3248.0,2.0,0,
161000,1850.7,50.0,112.6,166.3,945.0,3010.0,2.0,0,
161100,1863.9,21.8,115.0,155.8,945.0,3010.0,2.0,0,
161200,1862.4,19.7,114.9,195.7,945.0,3010.0,2.0,0,
161300,1860.8,22.7,115.0,132.1,945.0,3010.0,2.0,0,
161400,1866.5,23.5,115.0,100.3,945.0,3010.0,2.0,0,
161600,1864.6,19.2,115.0,240.3,945.0,3010.0,2.0,0,
161700,1861.3,20.6,114.9,240.4,945.0,3010.0,2.0,0,
161800,1864.7,18.3,115.0,240.6,945.0,3010.0,2.0,0,
161900,1860.0,20.9,115.0,240.8,945.0,3010.0,2.0,0,
162000,1862.5,67.1,115.0,240.8,515.0,2547.0,4.0,1,
162100,1869.9,28.1,114.1,240.0,671.0,2902.0,4.0,1,
162200,1858.7,58.3,114.2,94.0,1172.0,4944.0,4.0,1,
162300,1854.6,152.2,109.2,86.2,1134.0,3459.0,2.0,0,
162400,1871.5,197.0,112.5,86.5,1303.0,3894.0,2.0,0,
162600,1866.6,49.1,110.1,226.4,1081.0,3039.0,2.0,0,
162700,1861.6,23.7,103.3,170.6,1081.0,3039.0,2.0,0,
162800,1861.4,21.0,103.3,168.6,1081.0,3039.0,2.0,0,
162900,1862.9,20.9,103.3,231.7,1081.0,3039.0,2.0,0,
163000,1863.7,22.5,103.3,239.6,1081.0,3039.0,2.0,0,
163100,1863.5,21.6,103.3,240.4,1081.0,3039.0,2.0,0,
163200,1862.4,21.4,103.3,240.4,1081.0,3039.0,2.0,0,
163300,1861.4,20.9,103.3,240.4,1081.0,3039.0,2.0,0,
163400,1860.4,21.8,103.4,240.4,1081.0,3039.0,2.0,0,
163600,1860.1,24.6,103.4,240.5,607.0,2687.0,3.0,1,
163700,1848.7,51.8,101.6,240.4,638.0,2943.0,4.0,1,
163800,1865.8,50.9,104.3,237.9,1084.0,4426.0,4.0,1,
163900,1878.5,140.5,105.2,90.3,1240.0,4811.0,4.0,1,
164000,1838.0,131.6,101.9,86.6,1248.0,3950.0,2.0,0,
164100,1863.8,184.9,100.2,77.7,1112.0,3896.0,2.0,0,
164200,1851.8,110.9,105.8,90.7,1054.0,2971.0,2.0,0,
164300,1877.9,23.7,110.6,195.6,1054.0,2971.0,2.0,0,
164400,1859.0,20.7,110.6,157.7,1054.0,2971.0,2.0,0,
164600,1862.3,23.3,110.5,158.7,1054.0,2971.0,2.0,0,
164700,1865.0,19.6,110.5,239.7,1054.0,2971.0,2.0,0,
164800,1863.0,19.3,110.5,240.1,1054.0,2971.0,2.0,0,
164900,1863.8,21.8,110.4,240.2,1054.0,2971.0,2.0,0,
165000,1861.6,21.2,110.4,240.2,1054.0,2971.0,2.0,0,
165100,1861.2,19.0,110.4,240.2,1054.0,2971.0,2.0,0,
165200,1863.5,15.4,110.3,240.3,1054.0,2971.0,2.0,0,
165300,1874.9,21.4,110.2,240.2,683.0,2894.0,3.0,1,
165400,1840.4,129.8,107.5,240.0,835.0,3072.0,2.0,0,
165600,1853.2,223.9,122.9,71.6,1147.0,3482.0,2.0,0,
165700,1861.2,134.8,130.2,163.7,1239.0,3911.0,2.0,0,
165800,1873.8,213.4,128.1,158.4,1102.0,3689.0,2.0,0,
165900,1844.1,29.4,132.8,132.3,950.0,2712.0,2.0,0,
166000,1861.1,20.8,132.8,158.8,950.0,2712.0,2.0,0,
166100,1863.2,21.0,132.8,99.1,950.0,2712.0,2.0,0,
166200,1861.2,24.5,132.8,90.9,950.0,2712.0,2.0,0,
166300,1862.4,20.6,132.9,195.8,950.0,2712.0,2.0,0,
166400,1861.9,21.2,132.9,240.3,950.0,2712.0,2.0,0,
166600,1865.2,18.7,132.9,240.4,950.0,2712.0,2.0,0,
166700,1864.2,22.4,132.9,240.5,950.0,2712.0,2.0,0,
166800,1864.3,21.9,132.9,240.5,950.0,2712.0,2.0,0,
166900,1860.0,59.5,133.0,240.5,600.0,2667.0,4.0,1,
167000,1871.3,41.3,135.3,230.9,897.0,3700.0,3.0,1,
167100,1842.7,168.6,130.6,87.0,1282.0,4391.0,28.0,0,
167200,1902.4,200.6,128.5,82.0,1109.0,3613.0,2.0,0,
167300,1833.5,151.9,125.6,100.8,1221.0,3732.0,2.0,0,
167400,1856.4,117.5,126.2,195.8,1130.0,3345.0,2.0,0,
167600,1862.0,19.3,112.4,93.4,1130.0,3345.0,2.0,0,
167700,1861.0,21.8,112.4,169.8,1130.0,3345.0,2.0,0,
167800,1862.1,21.5,112.4,228.8,1130.0,3345.0,2.0,0,
167900,1859.7,20.1,112.4,240.0,1130.0,3345.0,2.0,0,
168000,1861.8,20.4,112.3,240.4,1130.0,3345.0,2.0,0,
168100,1861.8,22.4,112.3,240.5,1130.0,3345.0,2.0,0,
168200,1862.8,22.8,112.3,240.6,1130.0,3345.0,2.0,0,
168300,1862.5,21.0,112.3,240.6,1130.0,3345.0,2.0,0,
168400,1859.2,20.9,112.4,240.5,1130.0,3345.0,2.0,0,
168600,1875.7,153.8,111.1,240.2,1170.0,3609.0,27.0,0,
168700,1864.3,56.2,123.2,237.4,1346.0,3975.0,2.0,0,
168800,1848.3,169.1,127.4,211.7,1303.0,4303.0,28.0,0,
168900,1877.3,77.7,123.6,228.2,1244.0,3621.0,2.0,0,
169000,1846.8,200.1,117.3,221.0,1046.0,3621.0,2.0,0,
169100,1879.9,40.9,121.5,208.6,1020.0,3065.0,2.0,0,
169200,1855.0,22.3,121.9,197.2,1020.0,3065.0,2.0,0,
169300,1860.8,21.4,121.9,132.7,1020.0,3065.0,2.0,0,
169400,1863.3,22.2,121.9,186.6,1020.0,3065.0,2.0,0,
169600,1862.5,21.8,121.9,240.3,1020.0,3065.0,2.0,0,
169700,1862.1,22.0,121.9,240.3,1020.0,3065.0,2.0,0,
169800,1863.4,24.9,121.9,240.4,1020.0,3065.0,2.0,0,
169900,1865.7,22.7,121.9,240.5,1020.0,3065.0,2.0,0,
170000,1864.4,20.9,121.9,240.5,1020.0,3065.0,2.0,0,
170100,1861.7,37.8,121.9,240.4,576.0,2369.0,3.0,1,
170200,1855.9,58.2,122.9,240.0,802.0,3700.0,5.0,1,
170300,1860.4,139.3,116.6,46.7,1136.0,3643.0,2.0,0,
170400,1861.6,246.2,118.9,44.6,1202.0,3878.0,2.0,0,
170600,1860.0,61.6,123.6,176.8,1297.0,3765.0,2.0,0,
170700,1848.1,69.3,122.9,156.1,1075.0,3215.0,2.0,0,
170800,1865.7,22.2,124.4,197.0,1075.0,3215.0,2.0,0,
170900,1861.6,21.6,124.4,155.4,1075.0,3215.0,2.0,0,
171000,1861.3,22.8,124.5,90.4,1075.0,3215.0,2.0,0,
171100,1862.0,20.8,124.5,88.1,1075.0,3215.0,2.0,0,
171200,1862.1,20.4,124.4,239.9,1075.0,3215.0,2.0,0,
171300,1861.1,23.0,124.4,240.3,1075.0,3215.0,2.0,0,
171400,1864.0,23.6,124.4,240.1,1075.0,3215.0,2.0,0,
171600,1865.0,21.6,124.4,240.4,1075.0,3215.0,2.0,0,
171700,1863.2,41.2,124.4,240.4,1075.0,3215.0,2.0,0,
171800,1869.4,24.2,124.8,239.9,767.0,3393.0,3.0,1,
171900,1868.7,116.2,123.9,91.4,1067.0,4308.0,4.0,1,
172000,1850.9,106.9,117.7,85.4,1212.0,3778.0,2.0,0,
172100,1864.0,206.0,108.3,84.4,1101.0,3840.0,2.0,0,
172200,1850.6,166.9,119.1,152.7,1124.0,3577.0,2.0,0,
172300,1875.5,51.1,123.4,188.8,1152.0,3576.0,2.0,0,
172400,1858.3,23.8,113.5,132.6,1152.0,3576.0,2.0,0,
172600,1861.2,21.7,113.6,232.3,1152.0,3576.0,2.0,0,
172700,1860.2,21.2,113.6,238.2,1152.0,3576.0,2.0,0,
172800,1862.2,24.6,113.6,240.0,1152.0,3576.0,2.0,0,
172900,1862.0,22.3,113.6,240.2,1152.0,3576.0,2.0,0,
173000,1860.2,19.8,113.7,240.4,1152.0,3576.0,2.0,0,
173100,1861.6,21.2,113.6,240.3,1152.0,3576.0,2.0,0,
173200,1864.9,20.7,113.7,240.3,1152.0,3576.0,2.0,0,
173300,1862.7,25.0,113.7,240.4,1152.0,3576.0,2.0,0,
173400,1856.6,119.2,112.3,240.6,964.0,2769.0,28.0,0,
173600,1851.9,188.8,128.7,141.4,1121.0,3582.0,2.0,0,
173700,1865.0,114.3,133.5,210.6,1218.0,3688.0,2.0,0,
173800,1871.5,213.9,122.9,194.5,1102.0,3622.0,2.0,0,
173900,1844.7,118.8,127.3,156.4,1091.0,3490.0,2.0,0,
174000,1873.7,23.9,128.8,219.9,1142.0,3378.0,2.0,0,
174100,1859.5,18.3,128.8,131.0,1142.0,3378.0,2.0,0,
174200,1861.7,18.6,128.8,123.7,1142.0,3378.0,2.0,0,
174300,1860.0,21.2,128.7,203.8,1142.0,3378.0,2.0,0,
174400,1865.0,20.1,128.7,240.3,1142.0,3378.0,2.0,0,
174600,1860.9,22.8,128.6,240.5,1142.0,3378.0,2.0,0,
174700,1863.1,20.9,128.6,240.4,1142.0,3378.0,2.0,0,
174800,1862.4,22.5,128.6,240.3,1142.0,3378.0,2.0,0,
174900,1861.2,21.0,128.6,240.3,1142.0,3378.0,2.0,0,
175000,1861.9,21.5,128.5,240.2,579.0,2692.0,3.0,1,
175100,1847.2,170.1,123.7,240.2,1147.0,3996.0,28.0,0,
175200,1896.2,226.8,123.3,214.4,1426.0,4248.0,2.0,0,
175300,1829.4,172.0,129.3,153.8,1162.0,3550.0,2.0,0,
175400,1870.2,112.3,135.0,195.7,1177.0,3783.0,2.0,0,
175600,1859.8,29.6,129.8,134.9,1042.0,3161.0,2.0,0,
175700,1860.4,22.3,129.8,225.8,1042.0,3161.0,2.0,0,
175800,1860.7,20.8,129.8,93.2,1042.0,3161.0,2.0,0,
175900,1865.0,19.5,129.8,39.0,1042.0,3161.0,2.0,0,
176000,1862.7,20.8,129.8,138.2,1042.0,3161.0,2.0,0,
176100,1862.9,21.5,129.9,240.2,1042.0,3161.0,2.0,0,
176200,1861.0,20.1,129.9,239.9,1042.0,3161.0,2.0,0,
176300,1861.5,21.5,129.9,239.9,1042.0,3161.0,2.0,0,
176400,1863.2,21.9,129.9,240.3,1042.0,3161.0,2.0,0,
176600,1879.9,102.1,130.0,240.1,742.0,3114.0,4.0,1,
176700,1855.4,31.1,131.9,239.7,1051.0,4257.0,4.0,1,
176800,1849.5,136.9,124.3,36.5,1265.0,4112.0,2.0,0,
176900,1875.5,65.5,115.3,35.3,1305.0,3772.0,2.0,0,
177000,1845.1,184.2,107.1,151.0,1184.0,3988.0,28.0,0,
177100,1887.9,85.6,106.9,229.3,1119.0,3310.0,2.0,0,
177200,1839.0,25.7,101.3,227.3,1304.0,3715.0,2.0,0,
177300,1861.6,20.6,99.8,199.5,1304.0,3715.0,2.0,0,
177400,1860.5,18.8,99.7,228.4,1304.0,3715.0,2.0,0,
177600,1858.9,22.9,99.8,240.2,1304.0,3715.0,2.0,0,
177700,1863.3,23.7,99.7,240.3,1304.0,3715.0,2.0,0,
177800,1864.1,20.6,99.7,240.3,1304.0,3715.0,2.0,0,
177900,1861.0,20.0,99.8,240.4,1304.0,3715.0,2.0,0,
178000,1863.6,21.3,99.8,240.5,1304.0,3715.0,2.0,0,
178100,1860.8,22.4,99.8,240.5,1304.0,3715.0,2.0,0,
178200,1865.1,56.8,99.8,240.4,646.0,2881.0,3.0,1,
178300,1858.5,21.2,99.0,240.3,831.0,3378.0,4.0,1,
178400,1865.1,23.6,98.9,109.1,1322.0,5077.0,4.0,1,
178600,1855.7,54.2,94.9,87.1,1250.0,3642.0,2.0,0,
178700,1848.3,172.4,98.6,134.6,1306.0,3934.0,28.0,0,
178800,1878.5,44.4,102.3,217.0,1038.0,2952.0,2.0,0,
178900,1862.4,20.8,101.4,186.9,1038.0,2952.0,2.0,0,
179000,1861.3,22.0,101.4,157.5,1038.0,2952.0,2.0,0,
179100,1860.9,21.7,101.4,229.7,1038.0,2952.0,2.0,0,
179200,1862.7,23.6,101.4,240.6,1038.0,2952.0,2.0,0,
179300,1865.0,23.4,101.4,240.6,1038.0,2952.0,2.0,0,
179400,1863.8,18.0,101.4,240.6,1038.0,2952.0,2.0,0,
179600,1863.2,22.8,101.3,240.2,1038.0,2952.0,2.0,0,
179700,1861.7,23.0,101.4,240.2,1038.0,2952.0,2.0,0,
179800,1863.3,23.2,101.4,240.3,657.0,3000.0,3.0,1,
179900,1862.7,98.4,100.3,240.3,688.0,2897.0,4.0,1,
180000,1852.7,113.3,108.2,239.8,1083.0,3341.0,2.0,0,
180100,1862.7,190.4,117.1,94.3,1063.0,3614.0,2.0,0,
180200,1852.2,177.9,124.5,150.8,1312.0,3778.0,2.0,0,
180300,1871.7,219.4,128.4,195.1,1172.0,3663.0,2.0,0,
180400,1856.9,83.7,126.7,157.9,1019.0,3061.0,2.0,0,
180600,1859.9,19.7,129.2,152.1,1019.0,3061.0,2.0,0,
180700,1861.4,21.1,129.1,89.4,1019.0,3061.0,2.0,0,
180800,1861.7,22.4,129.1,47.7,1019.0,3061.0,2.0,0,
180900,1860.7,19.9,129.2,239.5,1019.0,3061.0,2.0,0,
181000,1863.3,21.0,129.2,240.2,1019.0,3061.0,2.0,0,
181100,1861.2,22.5,129.2,240.3,1019.0,3061.0,2.0,0,
181200,1864.2,21.4,129.2,240.4,1019.0,3061.0,2.0,0,
181300,1860.9,19.4,129.2,240.2,1019.0,3061.0,2.0,0,
181400,1860.1,22.8,129.2,240.2,769.0,3390.0,4.0,1,
181600,1849.2,24.5,127.4,240.1,997.0,4149.0,4.0,1,
181700,1868.6,54.8,115.9,237.4,1227.0,4954.0,3.0,1,
181800,1869.9,42.5,98.7,69.3,1167.0,4654.0,3.0,1,
181900,1841.8,109.2,89.6,40.6,1209.0,3554.0,2.0,0,
182000,1869.3,127.6,82.4,45.4,910.0,2858.0,2.0,0,
182100,1855.8,22.8,84.9,93.9,910.0,2858.0,2.0,0,
182200,1858.1,21.2,84.9,164.1,910.0,2858.0,2.0,0,
182300,1859.6,21.5,84.9,153.3,910.0,2858.0,2.0,0,
182400,1859.6,20.9,84.9,114.6,910.0,2858.0,2.0,0,
182600,1863.0,23.9,84.9,240.6,910.0,2858.0,2.0,0,
182700,1861.0,20.1,84.9,240.5,910.0,2858.0,2.0,0,
182800,1861.2,23.6,84.9,240.3,910.0,2858.0,2.0,0,
182900,1864.8,21.1,85.0,240.2,910.0,2858.0,2.0,0,
183000,1862.4,16.6,85.0,240.2,910.0,2858.0,2.0,0,
183100,1854.3,203.6,85.4,240.2,1069.0,2700.0,28.0,0,
183200,1888.1,47.8,99.9,219.4,952.0,3969.0,3.0,1,
183300,1836.5,123.8,100.0,92.8,1187.0,3933.0,2.0,0,
183400,1877.7,131.3,108.3,72.4,1066.0,3587.0,2.0,0,
183600,1872.0,127.7,124.5,199.6,1013.0,3472.0,2.0,0,
183700,1858.6,23.1,118.3,194.6,1178.0,3667.0,2.0,0,
183800,1859.7,24.2,118.3,156.5,1178.0,3667.0,2.0,0,
183900,1864.7,22.1,118.2,218.9,1178.0,3667.0,2.0,0,
184000,1860.8,19.1,118.2,233.1,1178.0,3667.0,2.0,0,
184100,1861.5,22.7,118.2,240.1,1178.0,3667.0,2.0,0,
184200,1861.3,20.3,118.3,240.5,1178.0,3667.0,2.0,0,
184300,1862.3,20.8,118.2,240.5,1178.0,3667.0,2.0,0,
184400,1862.8,21.5,118.2,240.3,1178.0,3667.0,2.0,0,
184600,1863.7,20.0,118.2,240.3,1178.0,3667.0,2.0,0,
184700,1857.1,21.1,118.2,240.2,848.0,3531.0,4.0,1,
184800,1854.1,124.8,109.6,240.0,860.0,2999.0,2.0,0,
184900,1873.3,201.1,116.0,237.7,1151.0,3896.0,2.0,0,
185000,1848.5,155.7,125.1,227.3,1084.0,4038.0,2.0,0,
185100,1885.4,79.0,123.0,225.9,1213.0,3693.0,2.0,0,
185200,1837.7,165.2,113.1,135.5,1101.0,3599.0,2.0,0,
185300,1872.7,37.3,117.1,188.0,1058.0,3212.0,2.0,0,
185400,1864.0,21.3,117.2,226.2,1058.0,3212.0,2.0,0,
185600,1862.0,21.3,117.2,158.6,1058.0,3212.0,2.0,0,
185700,1863.9,25.1,117.2,239.9,1058.0,3212.0,2.0,0,
185800,1861.8,20.2,117.2,240.3,1058.0,3212.0,2.0,0,
185900,1862.2,21.5,117.2,240.3,1058.0,3212.0,2.0,0,
186000,1862.2,21.4,117.2,240.3,1058.0,3212.0,2.0,0,
186100,1860.8,20.1,117.3,240.4,1058.0,3212.0,2.0,0,
186200,1861.0,20.3,117.3,240.4,1058.0,3212.0,2.0,0,
186300,1863.0,47.5,117.3,240.3,639.0,2704.0,4.0,1,
186400,1848.2,110.9,122.3,109.4,722.0,3609.0,4.0,1,
186600,1839.8,149.5,115.4,41.0,1210.0,3653.0,2.0,0,
186700,1853.7,140.5,120.1,208.6,1050.0,3469.0,2.0,0,
186800,1877.2,81.2,121.0,197.6,1270.0,3771.0,2.0,0,
186900,1856.3,42.0,116.1,163.2,1028.0,2969.0,2.0,0,
187000,1858.8,21.9,117.2,227.1,1028.0,2969.0,2.0,0,
187100,1859.5,24.5,117.2,216.3,1028.0,2969.0,2.0,0,
187200,1862.5,22.1,117.2,124.5,1028.0,2969.0,2.0,0,
187300,1862.6,21.8,117.2,124.9,1028.0,2969.0,2.0,0,
187400,1861.1,21.3,117.1,240.6,1028.0,2969.0,2.0,0,
187600,1864.1,20.5,117.1,240.6,1028.0,2969.0,2.0,0,
187700,1862.4,17.5,117.1,240.4,1028.0,2969.0,2.0,0,
187800,1860.6,23.1,117.1,240.3,1028.0,2969.0,2.0,0,
187900,1862.3,40.1,117.1,240.3,1028.0,2969.0,2.0,0,
188000,1871.4,33.5,113.7,239.8,975.0,4036.0,3.0,1,
188100,1848.9,128.3,111.6,92.7,1266.0,4462.0,28.0,0,
188200,1874.6,104.1,110.5,81.0,1291.0,3596.0,2.0,0,
188300,1851.0,205.5,100.7,84.3,1005.0,3312.0,2.0,0,
188400,1871.7,116.7,100.5,214.7,1125.0,3101.0,2.0,0,
188600,1859.8,19.2,100.9,134.3,1125.0,3101.0,2.0,0,
188700,1858.1,23.8,100.9,216.5,1125.0,3101.0,2.0,0,
188800,1864.5,21.8,100.8,229.2,1125.0,3101.0,2.0,0,
188900,1861.2,19.3,100.8,239.2,1125.0,3101.0,2.0,0,
189000,1860.4,23.2,100.8,240.6,1125.0,3101.0,2.0,0,
189100,1867.2,17.6,100.8,240.5,1125.0,3101.0,2.0,0,
189200,1861.0,19.8,100.8,240.5,1125.0,3101.0,2.0,0,
189300,1860.1,21.5,100.8,240.4,1125.0,3101.0,2.0,0,
189400,1861.8,20.3,100.8,240.3,1125.0,3101.0,2.0,0,
189600,1859.7,55.6,101.7,240.3,646.0,2804.0,4.0,1,
189700,1867.0,20.4,101.0,106.3,957.0,4314.0,3.0,1,
189800,1869.5,139.7,95.7,87.9,1370.0,4296.0,28.0,0,
189900,1856.5,70.8,97.4,84.4,1148.0,3502.0,2.0,0,
190000,1848.7,183.4,91.2,150.1,1172.0,3713.0,28.0,0,
190100,1868.2,78.0,100.5,228.1,1073.0,3045.0,2.0,0,
190200,1868.8,20.6,100.0,197.1,1073.0,3045.0,2.0,0,
190300,1860.8,19.6,100.0,137.7,1073.0,3045.0,2.0,0,
190400,1860.4,21.3,99.9,188.5,1073.0,3045.0,2.0,0,
190600,1860.7,18.5,99.9,240.2,1073.0,3045.0,2.0,0,
190700,1861.5,20.6,99.9,240.3,1073.0,3045.0,2.0,0,
190800,1861.7,19.7,99.9,240.2,1073.0,3045.0,2.0,0,
190900,1864.7,20.6,99.9,240.3,1073.0,3045.0,2.0,0,
191000,1863.5,24.1,99.9,240.5,1073.0,3045.0,2.0,0,
191100,1860.3,28.2,100.0,240.4,1073.0,3045.0,2.0,0,
191200,1864.3,100.1,98.6,240.2,757.0,3112.0,3.0,1,
191300,1848.0,110.0,102.0,239.7,959.0,3190.0,2.0,0,
191400,1863.1,98.6,111.2,104.0,1276.0,4172.0,2.0,0,
191600,1874.4,212.3,117.0,226.0,1087.0,3386.0,2.0,0,
191700,1854.9,168.1,115.8,165.1,1218.0,3613.0,28.0,0,
191800,1866.0,26.7,118.5,163.4,982.0,2812.0,2.0,0,
191900,1858.2,21.2,118.6,156.9,982.0,2812.0,2.0,0,
192000,1864.3,20.7,118.5,130.7,982.0,2812.0,2.0,0,
192100,1863.8,22.8,118.5,156.9,982.0,2812.0,2.0,0,
192200,1864.2,18.1,118.5,240.5,982.0,2812.0,2.0,0,
192300,1861.3,21.3,118.5,240.6,982.0,2812.0,2.0,0,
192400,1862.2,21.1,118.5,240.5,982.0,2812.0,2.0,0,
192600,1863.0,20.3,118.5,240.6,982.0,2812.0,2.0,0,
192700,1864.5,21.9,118.5,240.6,982.0,2812.0,2.0,0,
192800,1867.1,28.5,123.2,240.1,801.0,3399.0,4.0,1,
192900,1846.8,152.2,121.1,47.2,891.0,3156.0,28.0,0,
193000,1869.8,230.2,121.7,35.8,1153.0,3853.0,2.0,0,
193100,1872.7,209.4,128.0,39.2,1059.0,3775.0,2.0,0,
193200,1847.3,123.9,132.1,141.1,1101.0,3440.0,2.0,0,
193300,1868.5,112.8,128.6,158.3,1235.0,3938.0,2.0,0,
193400,1849.3,33.3,128.0,133.2,964.0,3080.0,2.0,0,
193600,1861.4,24.5,128.0,189.7,964.0,3080.0,2.0,0,
193700,1862.6,21.2,128.0,131.6,964.0,3080.0,2.0,0,
193800,1861.9,20.8,128.0,163.5,964.0,3080.0,2.0,0,
193900,1864.1,21.2,128.0,240.4,964.0,3080.0,2.0,0,
194000,1863.2,20.6,128.0,240.5,964.0,3080.0,2.0,0,
194100,1860.4,21.6,128.0,240.4,964.0,3080.0,2.0,0,
194200,1862.9,22.7,128.1,240.6,964.0,3080.0,2.0,0,
194300,1862.4,22.5,128.1,240.5,964.0,3080.0,2.0,0,
194400,1856.3,31.5,128.2,240.4,873.0,3541.0,4.0,1,
194600,1838.1,95.2,118.8,240.1,1170.0,4874.0,4.0,1,
194700,1872.9,210.7,110.8,219.9,1446.0,3999.0,2.0,0,
194800,1861.0,216.5,109.9,166.1,922.0,3162.0,2.0,0,
194900,1865.8,124.4,117.3,194.4,1042.0,3469.0,2.0,0,
195000,1862.4,31.3,116.2,158.6,1117.0,3726.0,2.0,0,
195100,1855.2,18.8,113.1,158.6,1117.0,3726.0,2.0,0,
195200,1861.0,20.1,113.1,226.7,1117.0,3726.0,2.0,0,
195300,1863.0,22.1,113.1,229.1,1117.0,3726.0,2.0,0,
195400,1862.5,20.2,113.1,240.2,1117.0,3726.0,2.0,0,
195600,1862.5,22.0,113.1,240.4,1117.0,3726.0,2.0,0,
195700,1865.1,21.0,113.1,240.5,1117.0,3726.0,2.0,0,
195800,1865.8,22.4,113.0,240.4,1117.0,3726.0,2.0,0,
195900,1865.6,21.8,112.9,240.3,1117.0,3726.0,2.0,0,
196000,1865.5,16.5,112.8,240.4,858.0,3683.0,3.0,1,
196100,1854.7,127.4,115.7,240.3,848.0,2918.0,2.0,0,
196200,1872.3,240.5,123.0,203.4,1203.0,4232.0,2.0,0,
196300,1850.6,193.7,138.9,154.9,1256.0,4536.0,28.0,0,
196400,1888.1,59.6,134.0,164.0,1066.0,3404.0,2.0,0,
196600,1870.0,52.2,135.3,167.7,1008.0,3191.0,2.0,0,
196700,1862.0,18.6,134.5,156.1,1008.0,3191.0,2.0,0,
196800,1859.7,21.1,134.5,80.8,1008.0,3191.0,2.0,0,
196900,1863.9,22.3,134.5,92.7,1008.0,3191.0,2.0,0,
197000,1864.4,19.1,134.4,211.8,1008.0,3191.0,2.0,0,
197100,1860.8,20.4,134.5,240.2,1008.0,3191.0,2.0,0,
197200,1865.5,18.9,134.4,240.3,1008.0,3191.0,2.0,0,
197300,1864.9,22.2,134.4,240.5,1008.0,3191.0,2.0,0,
197400,1865.2,19.4,134.4,240.6,1008.0,3191.0,2.0,0,
197600,1859.7,28.0,134.6,240.4,499.0,2488.0,3.0,1,
197700,1845.5,116.6,134.5,240.4,890.0,3679.0,4.0,1,
197800,1888.2,126.4,129.1,239.7,1078.0,3759.0,2.0,0,
197900,1848.9,49.9,118.4,134.7,1293.0,4028.0,2.0,0,
198000,1845.9,165.8,118.0,206.1,1024.0,3612.0,2.0,0,
198100,1875.3,181.7,120.8,227.5,1057.0,3376.0,2.0,0,
198200,1851.3,99.0,117.0,189.2,994.0,3187.0,2.0,0,
198300,1859.3,24.1,119.5,189.0,994.0,3187.0,2.0,0,
198400,1860.9,22.2,119.5,139.0,994.0,3187.0,2.0,0,
198600,1862.5,19.2,119.5,37.8,994.0,3187.0,2.0,0,
198700,1863.8,19.4,119.5,239.3,994.0,3187.0,2.0,0,
198800,1861.0,20.4,119.5,240.1,994.0,3187.0,2.0,0,
198900,1865.0,22.5,119.5,240.3,994.0,3187.0,2.0,0,
199000,1863.7,21.9,119.6,240.5,994.0,3187.0,2.0,0,
199100,1863.9,17.9,119.5,240.6,994.0,3187.0,2.0,0,
199200,1863.5,25.2,119.5,240.6,994.0,3187.0,2.0,0,
199300,1876.0,92.1,119.6,240.5,1111.0,3048.0,2.0,0,
199400,1851.0,180.2,132.5,238.2,1022.0,3235.0,2.0,0,
199600,1865.3,119.6,139.1,98.8,1228.0,3948.0,2.0,0,
199700,1860.5,125.1,135.5,132.8,1053.0,3743.0,28.0,0,
199800,1864.2,51.9,131.8,225.7,1095.0,3157.0,2.0,0,
199900,1854.8,19.6,126.3,196.4,1095.0,3157.0,2.0,0,
200000,1861.8,22.2,126.3,227.7,1095.0,3157.0,2.0,0,
200100,1860.1,22.3,126.3,230.4,1095.0,3157.0,2.0,0,
200200,1862.5,23.6,126.3,237.3,1095.0,3157.0,2.0,0,
200300,1861.5,19.5,126.4,240.3,1095.0,3157.0,2.0,0,
200400,1860.6,20.5,126.4,240.5,1095.0,3157.0,2.0,0,
200600,1860.2,20.1,126.4,240.3,1095.0,3157.0,2.0,0,
200700,1862.1,19.9,126.4,240.2,1095.0,3157.0,2.0,0,
200800,1864.4,23.8,126.4,240.3,1095.0,3157.0,2.0,0,
200900,1859.5,213.3,126.5,240.6,1179.0,3009.0,27.0,0,
201000,1872.5,225.4,133.2,239.5,1066.0,3444.0,2.0,0,
201100,1873.1,164.0,129.7,55.1,1088.0,3789.0,2.0,0,
201200,1847.7,110.5,134.4,99.8,1030.0,3531.0,2.0,0,
201300,1861.7,171.3,130.0,163.6,1028.0,3677.0,2.0,0,
201400,1851.7,146.6,135.0,169.7,1009.0,3112.0,2.0,0,
201600,1862.6,19.5,135.9,158.9,1009.0,3112.0,2.0,0,
201700,1861.5,20.5,135.8,158.7,1009.0,3112.0,2.0,0,
201800,1861.5,21.5,135.8,233.8,1009.0,3112.0,2.0,0,
201900,1862.5,20.6,135.8,240.2,1009.0,3112.0,2.0,0,
202000,1859.7,18.7,135.8,240.3,1009.0,3112.0,2.0,0,
202100,1863.1,22.6,135.8,240.2,1009.0,3112.0,2.0,0,
202200,1865.0,19.3,135.8,240.1,1009.0,3112.0,2.0,0,
202300,1861.9,19.0,135.8,240.3,1009.0,3112.0,2.0,0,
202400,1861.3,21.6,135.8,240.4,1009.0,3112.0,2.0,0,
202600,1835.3,141.7,126.3,240.3,1032.0,3159.0,28.0,0,
202700,1877.2,170.4,122.2,219.5,1466.0,4758.0,2.0,0,
202800,1852.9,191.5,122.4,135.4,1085.0,3621.0,2.0,0,
202900,1872.6,113.3,124.1,198.4,1088.0,3502.0,2.0,0,
203000,1860.7,187.4,119.7,195.4,979.0,3609.0,2.0,0,
203100,1849.1,37.9,124.1,183.0,985.0,2820.0,2.0,0,
203200,1862.3,17.8,124.3,199.5,985.0,2820.0,2.0,0,
203300,1859.4,18.1,124.3,101.0,985.0,2820.0,2.0,0,
203400,1860.7,23.3,124.3,67.5,985.0,2820.0,2.0,0,
203600,1862.0,20.1,124.2,240.3,985.0,2820.0,2.0,0,
203700,1860.2,19.7,124.3,240.5,985.0,2820.0,2.0,0,
203800,1864.3,20.2,124.3,240.2,985.0,2820.0,2.0,0,
203900,1862.7,19.6,124.3,240.1,985.0,2820.0,2.0,0,
204000,1865.1,20.9,124.2,240.3,985.0,2820.0,2.0,0,
204100,1861.5,24.3,124.3,240.3,807.0,3413.0,4.0,1,
204200,1868.6,18.2,124.5,240.2,820.0,3775.0,3.0,1,
204300,1847.4,208.1,118.2,239.7,1428.0,4435.0,28.0,0,
204400,1888.3,180.7,115.8,48.0,1083.0,3654.0,2.0,0,
204600,1866.4,114.5,123.9,136.8,1136.0,3427.0,2.0,0,
204700,1861.9,54.6,115.5,165.0,847.0,2779.0,2.0,0,
204800,1856.5,21.3,120.6,157.6,847.0,2779.0,2.0,0,
204900,1860.0,22.3,120.6,196.5,847.0,2779.0,2.0,0,
205000,1863.8,21.6,120.6,142.4,847.0,2779.0,2.0,0,
205100,1860.7,18.8,120.7,130.8,847.0,2779.0,2.0,0,
205200,1860.6,21.2,120.7,239.9,847.0,2779.0,2.0,0,
205300,1862.6,22.5,120.7,240.4,847.0,2779.0,2.0,0,
205400,1862.6,22.0,120.8,240.6,847.0,2779.0,2.0,0,
205600,1863.5,17.1,120.8,240.3,847.0,2779.0,2.0,0,
205700,1861.4,128.2,120.8,240.0,705.0,3106.0,4.0,1,
205800,1870.1,237.3,124.0,239.9,941.0,2796.0,27.0,0,
205900,1855.1,102.4,142.0,99.2,1204.0,3386.0,2.0,0,
206000,1852.9,169.1,145.2,93.9,1097.0,4013.0,2.0,0,
206100,1878.1,67.0,143.8,130.0,1079.0,3321.0,2.0,0,
206200,1855.8,200.4,139.0,149.2,1045.0,3365.0,2.0,0,
206300,1874.3,52.7,142.5,212.9,948.0,2960.0,2.0,0,
206400,1854.2,21.5,138.0,196.0,948.0,2960.0,2.0,0,
206600,1863.9,20.7,137.9,164.0,948.0,2960.0,2.0,0,
206700,1863.1,22.4,137.9,238.1,948.0,2960.0,2.0,0,
206800,1863.2,20.1,137.9,240.3,948.0,2960.0,2.0,0,
206900,1858.9,18.9,137.9,240.3,948.0,2960.0,2.0,0,
207000,1861.2,19.5,137.9,240.3,948.0,2960.0,2.0,0,
207100,1863.7,19.8,137.8,240.5,948.0,2960.0,2.0,0,
207200,1861.0,21.3,137.9,240.5,948.0,2960.0,2.0,0,
207300,1862.0,21.0,137.9,240.3,515.0,2315.0,3.0,1,
207400,1851.8,66.0,135.9,240.3,734.0,3127.0,3.0,1,
207600,1863.3,235.8,132.2,75.5,1089.0,3981.0,2.0,0,
207700,1870.8,211.7,131.4,52.6,1070.0,4099.0,28.0,0,
207800,1861.0,187.8,135.9,102.4,1033.0,3385.0,2.0,0,
207900,1848.1,126.1,140.0,164.0,970.0,3052.0,2.0,0,
208000,1872.6,23.9,141.7,198.4,970.0,3052.0,2.0,0,
208100,1860.4,20.2,141.7,139.9,970.0,3052.0,2.0,0,
208200,1861.1,22.9,141.8,93.2,970.0,3052.0,2.0,0,
208300,1861.0,17.7,141.9,92.8,970.0,3052.0,2.0,0,
208400,1863.1,22.2,141.8,239.8,970.0,3052.0,2.0,0,
208600,1861.6,21.3,141.8,240.1,970.0,3052.0,2.0,0,
208700,1861.3,23.1,141.8,239.9,970.0,3052.0,2.0,0,
208800,1863.2,20.5,141.8,240.1,970.0,3052.0,2.0,0,
208900,1862.3,17.8,141.8,240.5,970.0,3052.0,2.0,0,
209000,1866.1,19.9,141.7,240.6,843.0,3279.0,3.0,1,
209100,1866.2,128.3,140.5,240.4,934.0,3470.0,2.0,0,
209200,1856.9,91.8,127.9,235.4,1265.0,4046.0,2.0,0,
209300,1852.2,182.1,118.6,152.5,1093.0,3436.0,2.0,0,
209400,1858.8,133.3,122.1,225.8,1035.0,3080.0,2.0,0,
209600,1847.5,31.4,118.9,154.6,894.0,2819.0,2.0,0,
209700,1859.9,18.3,118.9,165.7,894.0,2819.0,2.0,0,
209800,1860.1,22.1,119.0,93.1,894.0,2819.0,2.0,0,
209900,1862.3,19.7,119.0,40.5,894.0,2819.0,2.0,0,
210000,1858.8,19.6,119.0,106.8,894.0,2819.0,2.0,0,
210100,1860.9,21.0,119.1,240.2,894.0,2819.0,2.0,0,
210200,1862.7,18.1,119.0,240.2,894.0,2819.0,2.0,0,
210300,1857.9,19.2,119.0,240.5,894.0,2819.0,2.0,0,
210400,1863.9,19.4,119.0,240.6,894.0,2819.0,2.0,0,
210600,1862.1,22.9,120.5,240.4,679.0,3078.0,4.0,1,
210700,1868.8,25.6,121.0,138.4,972.0,3890.0,3.0,1,
210800,1851.0,167.3,116.8,91.8,1410.0,4255.0,28.0,0,
210900,1877.1,227.5,119.5,86.0,1132.0,3489.0,2.0,0,
211000,1856.1,181.4,119.6,91.0,966.0,3111.0,2.0,0,
211100,1862.2,127.9,124.3,195.2,1028.0,2962.0,2.0,0,
211200,1859.7,23.6,114.9,156.1,1047.0,3178.0,2.0,0,
211300,1863.1,18.2,114.9,140.6,1047.0,3178.0,2.0,0,
211400,1860.2,23.0,114.9,226.8,1047.0,3178.0,2.0,0,
211600,1858.9,20.0,114.9,239.9,1047.0,3178.0,2.0,0,
211700,1861.9,20.1,114.9,240.4,1047.0,3178.0,2.0,0,
211800,1862.4,17.3,114.9,240.6,1047.0,3178.0,2.0,0,
211900,1861.7,18.3,114.9,240.5,1047.0,3178.0,2.0,0,
212000,1859.2,21.0,114.9,240.2,1047.0,3178.0,2.0,0,
212100,1863.9,20.5,114.9,240.3,1047.0,3178.0,2.0,0,
212200,1863.4,81.9,114.9,240.5,609.0,2730.0,3.0,1,
212300,1854.4,266.7,115.9,240.3,934.0,2847.0,2.0,0,
212400,1881.5,212.7,134.3,87.6,1316.0,4570.0,2.0,0,
212600,1876.7,128.1,138.9,75.2,1198.0,3962.0,2.0,0,
212700,1852.9,206.3,136.8,131.1,1248.0,3522.0,28.0,0,
212800,1886.5,45.4,138.8,221.3,1032.0,2967.0,2.0,0,
212900,1854.2,21.3,139.6,188.8,1032.0,2967.0,2.0,0,
213000,1860.4,18.4,139.6,132.0,1032.0,2967.0,2.0,0,
213100,1864.6,22.2,139.5,158.3,1032.0,2967.0,2.0,0,
213200,1864.3,21.7,139.4,239.4,1032.0,2967.0,2.0,0,
213300,1862.6,22.1,139.4,240.4,1032.0,2967.0,2.0,0,
213400,1863.0,21.9,139.4,240.3,1032.0,2967.0,2.0,0,
213600,1863.3,22.0,139.4,240.3,1032.0,2967.0,2.0,0,
213700,1861.1,21.1,139.5,240.3,1032.0,2967.0,2.0,0,
213800,1861.2,18.6,139.5,240.3,667.0,3144.0,3.0,1,
213900,1849.3,83.2,138.1,240.4,902.0,3566.0,4.0,1,
214000,1858.2,104.8,127.8,239.9,1308.0,4256.0,2.0,0,
214100,1861.9,214.5,114.7,56.4,1120.0,3631.0,2.0,0,
214200,1859.7,149.0,121.7,146.9,1043.0,3508.0,2.0,0,
214300,1870.0,161.2,120.3,170.5,1030.0,3348.0,2.0,0,
214400,1841.5,69.6,119.1,132.7,979.0,2697.0,2.0,0,
214600,1861.5,19.1,119.9,132.6,979.0,2697.0,2.0,0,
214700,1864.4,19.9,120.0,66.9,979.0,2697.0,2.0,0,
214800,1862.7,22.2,120.0,40.0,979.0,2697.0,2.0,0,
214900,1862.3,24.2,119.9,239.9,979.0,2697.0,2.0,0,
215000,1863.6,21.5,119.9,240.5,979.0,2697.0,2.0,0,
215100,1861.4,21.7,120.0,240.5,979.0,2697.0,2.0,0,
215200,1864.1,22.4,119.9,240.1,979.0,2697.0,2.0,0,
215300,1861.7,21.0,119.9,240.3,979.0,2697.0,2.0,0,
215400,1862.3,77.4,119.9,240.4,694.0,2972.0,4.0,1,
215600,1848.7,175.2,121.5,57.6,1098.0,3899.0,28.0,0,
215700,1893.1,210.2,121.3,37.9,1085.0,3984.0,2.0,0,
215800,1838.6,155.7,121.3,65.5,1056.0,3620.0,2.0,0,
215900,1862.4,128.8,124.5,146.0,1040.0,3491.0,2.0,0,
216000,1868.5,102.6,119.8,154.7,911.0,2982.0,2.0,0,
216100,1853.1,21.8,121.4,153.1,911.0,2982.0,2.0,0,
216200,1862.0,20.6,121.4,187.2,911.0,2982.0,2.0,0,
216300,1859.8,22.3,121.5,135.5,911.0,2982.0,2.0,0,
216400,1864.5,20.3,121.5,98.9,911.0,2982.0,2.0,0,
216600,1862.6,22.0,121.4,240.4,911.0,2982.0,2.0,0,
216700,1864.2,18.7,121.3,240.2,911.0,2982.0,2.0,0,
216800,1862.6,20.6,121.3,240.2,911.0,2982.0,2.0,0,
216900,1861.8,20.1,121.3,240.2,911.0,2982.0,2.0,0,
217000,1862.6,14.4,121.3,240.2,911.0,2982.0,2.0,0,
217100,1875.6,200.4,120.8,240.2,830.0,3038.0,2.0,0,
217200,1857.4,148.7,129.6,239.3,1099.0,3426.0,2.0,0,
217300,1847.7,172.5,139.6,210.0,1213.0,4287.0,2.0,0,
217400,1876.1,96.1,134.9,195.9,1084.0,3421.0,2.0,0,
217600,1872.1,120.3,136.9,167.5,1009.0,3159.0,2.0,0,
217700,1859.7,25.5,132.9,197.4,1016.0,2959.0,2.0,0,
217800,1861.1,21.7,132.9,135.5,1016.0,2959.0,2.0,0,
217900,1862.8,20.7,132.9,217.4,1016.0,2959.0,2.0,0,
218000,1864.1,22.0,132.9,237.5,1016.0,2959.0,2.0,0,
218100,1865.2,20.4,132.9,240.1,1016.0,2959.0,2.0,0,
218200,1860.3,18.9,133.0,240.5,1016.0,2959.0,2.0,0,
218300,1860.6,20.9,133.1,240.6,1016.0,2959.0,2.0,0,
218400,1860.0,19.1,133.1,240.3,1016.0,2959.0,2.0,0,
218600,1862.2,18.5,133.0,240.5,1016.0,2959.0,2.0,0,
218700,1857.6,49.4,133.0,240.4,823.0,3302.0,4.0,1,
218800,1857.6,182.6,124.4,239.7,977.0,2982.0,2.0,0,
218900,1871.2,118.8,128.7,93.6,1337.0,4165.0,2.0,0,
219000,1863.1,136.5,125.0,94.1,1244.0,3892.0,28.0,0,
219100,1866.3,98.3,126.7,164.7,1194.0,3656.0,2.0,0,
219200,1850.6,177.5,119.3,189.7,1285.0,3717.0,28.0,0,
219300,1873.8,30.9,123.4,227.8,906.0,2901.0,2.0,0,
219400,1862.0,20.3,123.4,226.1,906.0,2901.0,2.0,0,
219600,1862.3,20.6,123.4,156.8,906.0,2901.0,2.0,0,
219700,1864.9,19.2,123.3,239.9,906.0,2901.0,2.0,0,
219800,1861.5,21.1,123.3,240.3,906.0,2901.0,2.0,0,
219900,1860.2,20.3,123.3,240.4,906.0,2901.0,2.0,0,
220000,1863.2,20.7,123.3,240.4,906.0,2901.0,2.0,0,
220100,1859.9,21.6,123.3,240.6,906.0,2901.0,2.0,0,
220200,1865.2,23.3,123.3,240.6,906.0,2901.0,2.0,0,
220300,1871.1,16.2,123.3,240.5,821.0,3226.0,3.0,1,
220400,1863.1,16.9,122.8,240.5,716.0,3277.0,3.0,1,
220600,1868.7,197.2,108.6,168.4,1152.0,3837.0,2.0,0,
220700,1850.2,160.8,115.1,195.2,889.0,3415.0,2.0,0,
220800,1874.3,245.0,114.2,163.2,1273.0,3627.0,2.0,0,
220900,1849.5,43.9,121.1,155.3,850.0,2942.0,2.0,0,
221000,1859.3,21.9,121.6,188.0,850.0,2942.0,2.0,0,
221100,1860.2,17.9,121.6,102.2,850.0,2942.0,2.0,0,
221200,1862.2,20.4,121.6,92.2,850.0,2942.0,2.0,0,
221300,1861.8,21.1,121.6,99.1,850.0,2942.0,2.0,0,
221400,1863.5,23.0,121.6,240.3,850.0,2942.0,2.0,0,
221600,1863.4,20.6,121.6,240.3,850.0,2942.0,2.0,0,
221700,1860.8,18.9,121.6,240.3,850.0,2942.0,2.0,0,
221800,1863.6,21.3,121.5,240.4,850.0,2942.0,2.0,0,
221900,1862.9,98.7,121.6,240.5,718.0,3181.0,3.0,1,
222000,1868.9,101.3,127.1,240.0,1135.0,3746.0,2.0,0,
222100,1857.8,198.8,133.1,147.1,1138.0,3669.0,2.0,0,
222200,1867.1,135.0,139.9,194.8,1189.0,3738.0,2.0,0,
222300,1863.1,167.2,130.5,194.9,1182.0,3732.0,2.0,0,
222400,1845.2,169.3,136.0,155.9,1010.0,3248.0,2.0,0,
222600,1857.7,21.5,127.4,158.9,1010.0,3248.0,2.0,0,
222700,1861.5,20.6,127.4,159.2,1010.0,3248.0,2.0,0,
222800,1861.5,18.8,127.4,227.2,1010.0,3248.0,2.0,0,
222900,1861.4,20.2,127.4,237.3,1010.0,3248.0,2.0,0,
223000,1862.7,21.8,127.4,240.3,1010.0,3248.0,2.0,0,
223100,1861.7,21.2,127.4,240.4,1010.0,3248.0,2.0,0,
223200,1861.8,21.2,127.5,240.3,1010.0,3248.0,2.0,0,
223300,1863.3,22.3,127.4,240.2,1010.0,3248.0,2.0,0,
223400,1861.9,20.5,127.5,240.3,1010.0,3248.0,2.0,0,
223600,1849.5,176.0,124.6,240.5,973.0,3133.0,28.0,0,
223700,1893.2,190.1,122.9,239.3,1061.0,3641.0,2.0,0,
223800,1835.1,174.0,124.9,100.2,1126.0,3627.0,2.0,0,
223900,1864.7,135.5,129.2,164.3,1106.0,3592.0,2.0,0,
224000,1871.9,218.5,123.8,154.2,928.0,3276.0,2.0,0,
224100,1864.1,84.5,126.9,133.0,990.0,2968.0,2.0,0,
224200,1861.1,23.3,129.4,226.8,990.0,2968.0,2.0,0,
224300,1859.0,21.6,129.4,132.3,990.0,2968.0,2.0,0,
224400,1862.4,21.2,129.4,92.7,990.0,2968.0,2.0,0,
224600,1861.8,21.9,129.5,239.7,990.0,2968.0,2.0,0,
224700,1861.7,19.4,129.6,240.1,990.0,2968.0,2.0,0,
224800,1862.8,25.1,129.5,240.3,990.0,2968.0,2.0,0,
224900,1861.9,21.8,129.6,240.4,990.0,2968.0,2.0,0,
225000,1860.5,17.1,129.6,240.3,990.0,2968.0,2.0,0,
225100,1860.1,31.8,129.6,240.0,990.0,2968.0,2.0,0,
225200,1864.5,19.2,130.0,240.2,891.0,3729.0,3.0,1,
225300,1845.3,162.1,124.3,239.4,1176.0,4266.0,28.0,0,
225400,1876.4,82.3,123.8,71.9,1159.0,3256.0,2.0,0,
225600,1869.8,105.1,122.2,196.1,956.0,2864.0,2.0,0,
225700,1849.5,132.6,115.3,189.6,821.0,2567.0,2.0,0,
225800,1858.3,30.6,115.8,132.8,821.0,2567.0,2.0,0,
225900,1861.0,20.6,115.8,225.9,821.0,2567.0,2.0,0,
226000,1861.7,21.9,115.8,159.1,821.0,2567.0,2.0,0,
226100,1863.0,19.3,115.8,99.9,821.0,2567.0,2.0,0,
226200,1861.1,18.3,115.7,239.7,821.0,2567.0,2.0,0,
226300,1862.0,21.9,115.6,240.6,821.0,2567.0,2.0,0,
226400,1860.2,17.8,115.7,240.1,821.0,2567.0,2.0,0,
226600,1862.8,21.4,115.6,240.1,821.0,2567.0,2.0,0,
226700,1858.5,64.1,115.6,240.3,821.0,2567.0,2.0,0,
226800,1864.4,93.9,117.5,240.2,788.0,3377.0,3.0,1,
226900,1865.8,29.1,123.1,87.6,1042.0,4224.0,4.0,1,
227000,1872.0,201.3,115.7,67.6,1199.0,4210.0,28.0,0,
227100,1857.2,186.0,120.0,45.6,1077.0,3435.0,2.0,0,
227200,1848.1,180.8,121.1,73.0,1344.0,3905.0,28.0,0,
227300,1870.2,93.6,124.6,164.2,1047.0,3002.0,2.0,0,
227400,1857.0,21.7,119.7,156.2,1054.0,3247.0,2.0,0,
227600,1860.8,19.5,119.6,229.6,1054.0,3247.0,2.0,0,
227700,1862.4,18.3,119.6,238.7,1054.0,3247.0,2.0,0,
227800,1863.3,20.4,119.6,240.0,1054.0,3247.0,2.0,0,
227900,1863.2,21.2,119.6,240.1,1054.0,3247.0,2.0,0,
228000,1861.7,19.5,119.6,240.2,1054.0,3247.0,2.0,0,
228100,1862.3,21.6,119.6,240.2,1054.0,3247.0,2.0,0,
228200,1860.1,21.6,119.6,240.2,1054.0,3247.0,2.0,0,
228300,1862.5,21.4,119.6,240.2,1054.0,3247.0,2.0,0,
228400,1869.3,17.0,118.6,240.6,853.0,3799.0,3.0,1,
228600,1867.4,27.0,116.7,238.5,1245.0,5507.0,3.0,1,
228700,1852.2,162.0,104.5,35.1,1054.0,3816.0,2.0,0,
228800,1883.5,68.7,97.9,36.6,1200.0,3818.0,2.0,0,
228900,1846.3,176.3,91.1,79.5,975.0,3294.0,28.0,0,
229000,1866.4,33.8,100.0,206.9,960.0,2821.0,2.0,0,
229100,1866.2,19.0,100.2,187.3,960.0,2821.0,2.0,0,
229200,1860.4,19.8,100.1,152.5,960.0,2821.0,2.0,0,
229300,1862.6,21.1,100.2,171.4,960.0,2821.0,2.0,0,
229400,1864.7,21.1,100.2,239.5,960.0,2821.0,2.0,0,
229600,1863.5,20.1,100.1,240.4,960.0,2821.0,2.0,0,
229700,1861.3,20.6,100.1,240.3,960.0,2821.0,2.0,0,
229800,1863.7,21.8,100.1,240.3,960.0,2821.0,2.0,0,
229900,1861.6,22.3,100.1,240.4,960.0,2821.0,2.0,0,
230000,1864.0,35.0,100.1,240.3,762.0,3376.0,3.0,1,
230100,1853.3,150.6,101.3,239.7,635.0,2438.0,2.0,0,
230200,1870.3,115.6,104.8,78.7,1188.0,3954.0,2.0,0,
230300,1862.9,175.4,115.1,67.4,1023.0,3801.0,2.0,0,
230400,1847.5,144.1,120.4,133.5,1003.0,3394.0,2.0,0,
230600,1852.5,58.1,124.7,163.8,927.0,2951.0,2.0,0,
230700,1865.5,20.5,126.2,196.5,927.0,2951.0,2.0,0,
230800,1861.8,20.5,126.1,124.8,927.0,2951.0,2.0,0,
230900,1862.1,21.5,126.1,90.8,927.0,2951.0,2.0,0,
231000,1861.3,20.9,126.2,79.0,927.0,2951.0,2.0,0,
231100,1861.3,21.7,126.1,239.8,927.0,2951.0,2.0,0,
231200,1863.8,20.6,126.2,240.1,927.0,2951.0,2.0,0,
231300,1860.5,20.5,126.2,240.3,927.0,2951.0,2.0,0,
231400,1863.8,22.6,126.2,240.3,927.0,2951.0,2.0,0,
231600,1861.8,14.5,126.1,240.0,753.0,3186.0,4.0,1,
231700,1881.2,13.4,125.2,240.0,768.0,3441.0,3.0,1,
231800,1839.8,150.6,121.0,239.9,1011.0,3631.0,2.0,0,
231900,1875.6,230.3,125.0,140.2,1208.0,4057.0,2.0,0,
232000,1855.1,198.8,129.2,44.3,887.0,2966.0,2.0,0,
232100,1873.6,114.9,132.1,94.0,1003.0,3406.0,2.0,0,
232200,1852.7,94.3,126.6,147.6,855.0,2899.0,2.0,0,
232300,1854.2,24.6,130.0,184.3,855.0,2899.0,2.0,0,
232400,1863.5,21.1,130.0,142.2,855.0,2899.0,2.0,0,
232600,1862.4,20.5,130.0,90.7,855.0,2899.0,2.0,0,
232700,1863.9,24.5,130.0,239.3,855.0,2899.0,2.0,0,
232800,1860.9,23.0,130.0,240.4,855.0,2899.0,2.0,0,
232900,1863.0,22.7,130.0,240.4,855.0,2899.0,2.0,0,
233000,1866.2,20.9,130.0,240.4,855.0,2899.0,2.0,0,
233100,1862.7,19.7,130.0,240.4,855.0,2899.0,2.0,0,
233200,1864.3,23.1,130.0,240.4,753.0,3371.0,3.0,1,
233300,1857.0,16.9,130.0,240.5,930.0,4178.0,4.0,1,
233400,1874.3,27.8,130.0,240.3,1160.0,4642.0,3.0,1,
233600,1877.6,76.0,111.3,86.0,973.0,3430.0,2.0,0,
233700,1846.3,165.0,107.6,85.3,1086.0,3592.0,28.0,0,
233800,1866.0,74.8,112.1,211.4,974.0,3333.0,2.0,0,
233900,1861.3,20.8,98.4,164.7,974.0,3333.0,2.0,0,
234000,1858.3,18.4,98.5,94.3,974.0,3333.0,2.0,0,
234100,1860.7,20.0,98.5,139.8,974.0,3333.0,2.0,0,
234200,1865.4,19.2,98.4,197.8,974.0,3333.0,2.0,0,
234300,1860.8,21.0,98.5,240.0,974.0,3333.0,2.0,0,
234400,1862.5,20.3,98.4,240.3,974.0,3333.0,2.0,0,
234600,1863.6,22.5,98.5,240.2,974.0,3333.0,2.0,0,
234700,1864.4,19.8,98.4,240.4,974.0,3333.0,2.0,0,
234800,1863.3,15.8,98.4,240.6,974.0,3333.0,2.0,0,
234900,1850.4,106.8,98.4,240.5,741.0,3187.0,3.0,1,
235000,1883.0,93.7,103.2,240.3,845.0,2933.0,2.0,0,
235100,1844.7,135.4,109.7,234.8,1225.0,3981.0,2.0,0,
235200,1858.5,133.5,113.9,232.5,1095.0,3545.0,2.0,0,
235300,1875.5,163.5,115.7,227.9,1100.0,3471.0,2.0,0,
235400,1858.2,178.8,112.6,164.2,1155.0,3558.0,28.0,0,
235600,1859.8,20.1,116.2,157.4,1155.0,3558.0,28.0,0,
235700,1861.3,23.4,116.2,124.5,1155.0,3558.0,28.0,0,
235800,1862.2,20.0,116.3,176.1,1155.0,3558.0,28.0,0,
235900,1862.5,21.6,116.3,240.5,1155.0,3558.0,28.0,0,
236000,1861.7,20.7,116.2,240.6,1155.0,3558.0,28.0,0,
236100,1863.5,20.3,116.2,240.3,1155.0,3558.0,28.0,0,
236200,1861.7,18.2,116.2,240.0,1155.0,3558.0,28.0,0,
236300,1860.0,23.4,116.2,239.9,1155.0,3558.0,28.0,0,
236400,1862.9,20.7,116.3,240.2,1155.0,3558.0,28.0,0,
236600,1848.6,129.9,115.3,238.2,1287.0,3988.0,28.0,0,
236700,1868.5,115.9,115.1,43.6,1220.0,3832.0,2.0,0,
236800,1861.1,220.5,114.0,98.7,968.0,3393.0,2.0,0,
236900,1863.0,122.1,119.2,226.8,1071.0,3367.0,2.0,0,
237000,1855.5,157.6,116.8,194.9,893.0,3136.0,2.0,0,
237100,1850.5,38.4,120.5,133.2,797.0,2724.0,2.0,0,
237200,1863.3,20.2,120.4,197.3,797.0,2724.0,2.0,0,
237300,1861.0,17.9,120.5,124.9,797.0,2724.0,2.0,0,
237400,1861.4,22.1,120.4,70.2,797.0,2724.0,2.0,0,
237600,1859.7,23.5,120.4,240.3,797.0,2724.0,2.0,0,
237700,1862.6,19.9,120.5,240.3,797.0,2724.0,2.0,0,
237800,1862.6,19.9,120.5,240.3,797.0,2724.0,2.0,0,
237900,1861.9,22.7,120.5,240.3,797.0,2724.0,2.0,0,
238000,1864.1,23.1,120.4,240.2,797.0,2724.0,2.0,0,
238100,1862.9,51.8,120.4,240.5,868.0,3744.0,4.0,1,
238200,1873.4,32.7,121.6,231.9,965.0,4084.0,3.0,1,
238300,1860.8,118.2,117.5,89.9,1251.0,5312.0,4.0,1,
238400,1859.3,123.3,117.3,84.7,1132.0,3627.0,2.0,0,
238600,1854.3,157.4,118.2,167.5,988.0,3041.0,2.0,0,
238700,1884.3,32.7,114.3,195.8,921.0,2948.0,2.0,0,
238800,1849.3,20.0,109.5,135.5,921.0,2948.0,2.0,0,
238900,1861.9,19.9,109.5,165.5,921.0,2948.0,2.0,0,
239000,1860.3,20.9,109.5,226.9,921.0,2948.0,2.0,0,
239100,1860.2,20.0,109.6,238.4,921.0,2948.0,2.0,0,
239200,1862.4,19.8,109.6,240.2,921.0,2948.0,2.0,0,
239300,1861.4,20.4,109.5,240.3,921.0,2948.0,2.0,0,
239400,1861.7,19.6,109.5,240.2,921.0,2948.0,2.0,0,
239600,1863.5,20.4,109.5,240.4,921.0,2948.0,2.0,0,
239700,1861.0,37.4,109.4,240.5,668.0,2728.0,3.0,1,
239800,1848.1,143.0,107.3,240.4,768.0,2482.0,2.0,0,
239900,1874.1,147.2,116.3,202.8,1243.0,4030.0,2.0,0,
240000,1855.9,221.0,124.8,78.5,1090.0,3184.0,2.0,0,
240100,1874.5,133.8,130.4,157.4,1142.0,3483.0,2.0,0,
240200,1858.5,158.5,123.8,158.1,1052.0,3288.0,2.0,0,
240300,1847.0,65.7,127.7,131.4,791.0,2675.0,2.0,0,
240400,1870.1,20.1,128.2,225.7,791.0,2675.0,2.0,0,
240600,1858.9,22.3,128.2,68.0,791.0,2675.0,2.0,0,
240700,1862.9,19.4,128.2,91.7,791.0,2675.0,2.0,0,
240800,1863.4,23.3,128.1,239.9,791.0,2675.0,2.0,0,
240900,1863.0,21.5,128.2,240.3,791.0,2675.0,2.0,0,
241000,1864.2,22.4,128.2,240.3,791.0,2675.0,2.0,0,
241100,1863.4,22.6,128.1,240.2,791.0,2675.0,2.0,0,
241200,1863.4,22.1,128.2,240.2,791.0,2675.0,2.0,0,
241300,1864.2,187.1,128.1,240.2,1012.0,2946.0,27.0,0,
241400,1870.8,257.7,139.2,239.6,1227.0,3406.0,2.0,0,
241600,1882.0,97.4,150.9,84.5,1105.0,3515.0,2.0,0,
241700,1843.6,170.2,141.8,102.3,982.0,3056.0,2.0,0,
241800,1856.7,138.6,146.8,166.4,1070.0,3280.0,2.0,0,
241900,1875.3,39.2,143.2,200.7,1075.0,3115.0,2.0,0,
242000,1854.4,21.9,142.4,138.0,1075.0,3115.0,2.0,0,
242100,1860.4,25.2,142.4,202.8,1075.0,3115.0,2.0,0,
242200,1863.2,19.8,142.4,229.0,1075.0,3115.0,2.0,0,
242300,1863.5,21.3,142.3,236.0,1075.0,3115.0,2.0,0,
242400,1862.5,19.6,142.4,240.3,1075.0,3115.0,2.0,0,
242600,1860.8,22.1,142.4,240.4,1075.0,3115.0,2.0,0,
242700,1863.0,22.2,142.4,240.3,1075.0,3115.0,2.0,0,
242800,1864.6,21.4,142.4,240.2,1075.0,3115.0,2.0,0,
242900,1861.0,28.5,142.5,240.3,1075.0,3115.0,2.0,0,
243000,1865.6,127.6,135.4,240.2,935.0,2899.0,28.0,0,
243100,1869.7,185.0,121.4,239.5,981.0,3217.0,2.0,0,
243200,1851.7,173.8,125.6,139.4,1042.0,3589.0,2.0,0,
243300,1865.1,124.2,127.9,185.0,1009.0,3237.0,2.0,0,
243400,1878.6,215.1,122.9,157.3,1027.0,3529.0,2.0,0,
243600,1870.0,28.4,128.9,220.3,1012.0,3052.0,2.0,0,
243700,1860.4,17.6,128.9,132.3,1012.0,3052.0,2.0,0,
243800,1859.8,21.6,128.9,98.9,1012.0,3052.0,2.0,0,
243900,1866.2,22.9,128.9,168.2,1012.0,3052.0,2.0,0,
244000,1863.7,19.1,128.9,240.3,1012.0,3052.0,2.0,0,
244100,1863.5,19.3,128.8,240.7,1012.0,3052.0,2.0,0,
244200,1864.2,23.4,128.8,240.6,1012.0,3052.0,2.0,0,
244300,1863.6,22.0,128.8,240.4,1012.0,3052.0,2.0,0,
244400,1864.3,23.2,128.8,240.3,1012.0,3052.0,2.0,0,
244600,1869.1,16.6,128.9,240.3,926.0,3799.0,4.0,1,
244700,1849.3,157.0,124.7,240.0,1043.0,3524.0,2.0,0,
244800,1883.0,105.4,118.7,232.8,1239.0,3788.0,2.0,0,
244900,1849.6,93.2,112.5,45.5,1088.0,3551.0,2.0,0,
245000,1851.0,139.7,116.1,135.0,1002.0,3217.0,2.0,0,
245100,1871.4,210.5,109.3,205.7,1050.0,3261.0,2.0,0,
245200,1847.6,32.6,115.9,156.6,855.0,2545.0,2.0,0,
245300,1860.7,20.6,115.9,134.8,855.0,2545.0,2.0,0,
245400,1862.3,24.2,115.9,93.3,855.0,2545.0,2.0,0,
245600,1860.3,20.1,115.9,101.3,855.0,2545.0,2.0,0,
245700,1861.4,20.9,116.0,240.5,855.0,2545.0,2.0,0,
245800,1861.9,21.5,116.0,240.6,855.0,2545.0,2.0,0,
245900,1863.7,20.4,116.0,240.7,855.0,2545.0,2.0,0,
246000,1861.7,21.0,116.0,240.7,855.0,2545.0,2.0,0,
246100,1863.5,18.7,116.0,240.5,855.0,2545.0,2.0,0,
246200,1860.6,144.7,116.0,240.4,858.0,2750.0,28.0,0,
246300,1879.6,140.9,124.6,239.5,1017.0,2712.0,2.0,0,
246400,1849.5,161.4,134.3,137.0,1067.0,3691.0,2.0,0,
246600,1869.8,248.6,133.2,164.4,1038.0,3300.0,2.0,0,
246700,1866.6,146.3,142.2,165.5,1043.0,3502.0,28.0,0,
246800,1860.5,33.4,137.8,187.2,930.0,3022.0,2.0,0,
246900,1858.4,21.7,135.7,130.7,930.0,3022.0,2.0,0,
247000,1860.5,19.7,135.7,134.8,930.0,3022.0,2.0,0,
247100,1860.8,18.6,135.7,231.2,930.0,3022.0,2.0,0,
247200,1860.1,24.3,135.8,239.6,930.0,3022.0,2.0,0,
247300,1863.8,20.7,135.8,240.3,930.0,3022.0,2.0,0,
247400,1861.5,21.7,135.8,240.4,930.0,3022.0,2.0,0,
247600,1861.5,22.2,135.9,239.9,930.0,3022.0,2.0,0,
247700,1863.5,19.7,135.9,239.9,930.0,3022.0,2.0,0,
247800,1861.2,26.7,135.9,240.2,895.0,3714.0,3.0,1,
247900,1850.6,124.2,131.9,240.3,876.0,3006.0,28.0,0,
248000,1864.8,117.4,122.4,237.8,1268.0,4143.0,2.0,0,
248100,1876.1,218.8,116.2,77.5,1182.0,4228.0,2.0,0,
248200,1844.7,161.5,122.7,164.0,1317.0,4057.0,28.0,0,
248300,1874.6,89.6,113.8,204.3,1108.0,3547.0,2.0,0,
248400,1851.8,59.1,115.9,157.0,823.0,2537.0,2.0,0,
248600,1861.8,18.4,118.0,157.2,823.0,2537.0,2.0,0,
248700,1860.9,20.6,118.0,84.9,823.0,2537.0,2.0,0,
248800,1862.3,17.4,117.9,67.7,823.0,2537.0,2.0,0,
248900,1862.9,20.9,117.9,240.1,823.0,2537.0,2.0,0,
249000,1864.2,22.1,117.8,240.7,823.0,2537.0,2.0,0,
249100,1864.3,20.8,117.8,240.5,823.0,2537.0,2.0,0,
249200,1862.4,19.5,117.8,240.3,823.0,2537.0,2.0,0,
249300,1863.6,19.7,117.7,240.3,823.0,2537.0,2.0,0,
249400,1862.0,44.2,117.7,240.2,823.0,2537.0,2.0,0,
249600,1853.7,44.5,116.7,93.5,1002.0,4170.0,4.0,1,
249700,1853.1,125.6,112.3,86.9,1061.0,3423.0,2.0,0,
249800,1872.6,142.0,103.5,87.1,1081.0,3530.0,2.0,0,
249900,1849.7,180.8,103.2,163.5,1230.0,3820.0,28.0,0,
250000,1894.3,54.4,107.3,219.2,1051.0,3344.0,2.0,0,
250100,1843.5,19.7,99.8,166.6,1051.0,3344.0,2.0,0,
250200,1858.5,21.3,99.9,166.2,1051.0,3344.0,2.0,0,
250300,1862.7,20.5,99.9,227.5,1051.0,3344.0,2.0,0,
250400,1865.7,20.7,99.9,233.2,1051.0,3344.0,2.0,0,
250600,1862.9,20.4,100.0,240.4,1051.0,3344.0,2.0,0,
250700,1864.8,20.6,100.0,240.4,1051.0,3344.0,2.0,0,
250800,1862.2,21.2,100.0,240.2,1051.0,3344.0,2.0,0,
250900,1861.4,20.5,100.0,240.2,1051.0,3344.0,2.0,0,
251000,1862.2,24.6,100.0,240.1,1051.0,3344.0,2.0,0,
251100,1852.2,28.8,97.9,240.2,718.0,3470.0,4.0,1,
251200,1858.9,105.1,100.2,240.0,1041.0,4203.0,3.0,1,
251300,1873.3,20.4,105.6,85.0,1219.0,4874.0,3.0,1,
251400,1869.4,159.2,94.9,70.0,1417.0,4337.0,28.0,0,
251600,1846.3,138.0,96.1,94.0,935.0,2907.0,2.0,0,
251700,1871.1,26.8,101.3,226.8,935.0,2907.0,2.0,0,
251800,1860.1,19.6,101.3,164.4,935.0,2907.0,2.0,0,
251900,1859.6,22.0,101.4,79.6,935.0,2907.0,2.0,0,
252000,1865.8,19.3,101.3,39.7,935.0,2907.0,2.0,0,
252100,1861.9,21.2,101.4,239.5,935.0,2907.0,2.0,0,
252200,1866.8,18.6,101.3,240.3,935.0,2907.0,2.0,0,
252300,1861.3,18.5,101.4,240.3,935.0,2907.0,2.0,0,
252400,1864.6,20.7,101.3,240.2,935.0,2907.0,2.0,0,
252600,1860.0,61.1,101.3,240.3,935.0,2907.0,2.0,0,
252700,1863.4,21.1,103.1,240.1,784.0,3322.0,4.0,1,
252800,1874.5,22.5,102.9,110.9,766.0,3204.0,4.0,1,
252900,1856.8,130.9,96.3,84.4,1199.0,4149.0,28.0,0,
253000,1869.9,178.0,106.0,79.5,1318.0,3862.0,2.0,0,
253100,1845.6,202.8,115.2,68.8,1458.0,4123.0,28.0,0,
253200,1875.1,93.2,120.8,185.1,1066.0,3408.0,2.0,0,
253300,1859.5,19.2,112.7,156.3,1171.0,3711.0,2.0,0,
253400,1855.6,19.9,112.8,157.8,1171.0,3711.0,2.0,0,
253600,1863.9,21.6,112.7,229.5,1171.0,3711.0,2.0,0,
253700,1858.9,22.8,112.8,240.3,1171.0,3711.0,2.0,0,
253800,1863.6,19.1,112.9,240.4,1171.0,3711.0,2.0,0,
253900,1863.2,20.0,112.8,240.2,1171.0,3711.0,2.0,0,
254000,1863.6,19.2,112.8,240.4,1171.0,3711.0,2.0,0,
254100,1864.3,23.5,112.8,240.4,1171.0,3711.0,2.0,0,
254200,1863.8,19.7,112.8,240.3,1171.0,3711.0,2.0,0,
254300,1865.9,15.9,111.8,240.4,942.0,3668.0,3.0,1,
254400,1849.6,177.1,113.2,240.3,973.0,3313.0,2.0,0,
254600,1851.9,182.1,137.8,141.4,1120.0,3972.0,28.0,0,
254700,1896.3,67.2,133.3,132.6,1082.0,3274.0,2.0,0,
254800,1830.9,175.5,126.0,131.3,1019.0,3402.0,2.0,0,
254900,1866.7,34.2,132.6,196.7,984.0,3015.0,2.0,0,
255000,1864.4,21.1,132.6,196.1,984.0,3015.0,2.0,0,
255100,1861.5,21.3,132.5,101.3,984.0,3015.0,2.0,0,
255200,1861.9,22.0,132.5,94.6,984.0,3015.0,2.0,0,
255300,1862.4,20.3,132.5,237.4,984.0,3015.0,2.0,0,
255400,1862.9,18.9,132.4,240.3,984.0,3015.0,2.0,0,
255600,1857.9,20.7,132.6,240.0,984.0,3015.0,2.0,0,
255700,1862.9,22.7,132.6,240.0,984.0,3015.0,2.0,0,
255800,1866.2,20.4,132.6,240.4,984.0,3015.0,2.0,0,
255900,1862.0,50.6,132.6,240.6,763.0,3135.0,3.0,1,
256000,1865.7,16.9,132.9,240.1,808.0,3539.0,3.0,1,
256100,1866.7,144.9,123.1,117.9,1269.0,3967.0,28.0,0,
256200,1865.5,91.3,109.4,38.8,1405.0,4213.0,2.0,0,
256300,1849.9,176.4,113.7,195.2,1359.0,4105.0,28.0,0,
256400,1876.2,107.1,117.0,211.9,1152.0,3681.0,2.0,0,
256600,1866.0,23.4,114.9,165.6,1152.0,3681.0,2.0,0,
256700,1863.4,20.2,114.9,187.3,1152.0,3681.0,2.0,0,
256800,1864.5,19.5,114.8,132.3,1152.0,3681.0,2.0,0,
256900,1863.7,23.0,114.8,104.2,1152.0,3681.0,2.0,0,
257000,1865.0,22.6,114.8,240.0,1152.0,3681.0,2.0,0,
257100,1862.2,18.2,114.8,240.2,1152.0,3681.0,2.0,0,
257200,1862.8,24.1,114.8,240.1,1152.0,3681.0,2.0,0,
257300,1864.8,20.5,114.8,240.1,1152.0,3681.0,2.0,0,
257400,1863.6,20.7,114.8,240.2,1152.0,3681.0,2.0,0,
257600,1870.2,106.0,118.5,240.2,777.0,2696.0,2.0,0,
257700,1863.7,172.7,129.8,140.4,1010.0,3632.0,2.0,0,
257800,1854.7,158.2,135.4,167.7,1137.0,3867.0,2.0,0,
257900,1877.8,71.4,131.3,166.2,1103.0,3855.0,2.0,0,
258000,1868.1,182.7,127.5,137.2,992.0,3500.0,28.0,0,
258100,1858.0,54.1,128.8,217.2,1014.0,3124.0,2.0,0,
258200,1861.9,18.0,123.8,217.0,1014.0,3124.0,2.0,0,
258300,1860.7,19.3,123.8,132.5,1014.0,3124.0,2.0,0,
258400,1863.9,21.6,123.8,139.3,1014.0,3124.0,2.0,0,
258600,1863.2,20.6,123.9,240.3,1014.0,3124.0,2.0,0,
258700,1864.1,21.2,123.8,240.2,1014.0,3124.0,2.0,0,
258800,1865.9,23.7,123.8,240.1,1014.0,3124.0,2.0,0,
