Time(ms),Raw_ADC,ENV_Value,RMS,MDF,MW_Amp,MW_Area,MW_Latency,MW_Valid,Marker
0,1861.7,12.5,0.0,0.0,0.0,0.0,0.0,0,
100,1861.0,9.7,0.0,0.0,0.0,0.0,0.0,0,
200,1861.1,9.0,0.0,0.0,0.0,0.0,0.0,0,
300,1862.1,9.1,0.0,0.0,0.0,0.0,0.0,0,
400,1851.8,300.1,0.0,0.0,813.0,4306.0,3.0,1,
508,1891.9,93.2,0.0,29.9,1050.0,6928.0,3.0,1,
608,1836.4,242.4,0.0,29.8,1056.0,6245.0,3.0,1,
708,1873.4,115.5,0.0,34.6,1115.0,6638.0,4.0,1,
808,1854.4,43.1,0.0,34.2,931.0,4791.0,4.0,1,
908,1866.9,148.9,0.0,28.0,1004.0,5037.0,4.0,1,
1008,1875.3,20.9,0.0,28.2,1002.0,5150.0,4.0,1,
1108,1859.6,11.1,0.0,28.9,1002.0,5150.0,4.0,1,
1208,1862.2,9.9,0.0,28.9,1002.0,5150.0,4.0,1,
1308,1862.2,10.6,0.0,36.7,1002.0,5150.0,4.0,1,
1408,1861.4,9.7,0.0,67.1,1002.0,5150.0,4.0,1,
1508,1861.1,10.0,0.0,137.9,1002.0,5150.0,4.0,1,
1608,1861.0,10.6,149.7,143.3,1002.0,5150.0,4.0,1,
1708,1859.8,10.4,149.7,142.5,1002.0,5150.0,4.0,1,
1809,1861.9,9.8,149.7,123.0,1002.0,5150.0,4.0,1,
1909,1862.0,11.0,149.7,114.6,1002.0,5150.0,4.0,1,
2009,1857.6,33.4,144.1,100.3,733.0,4404.0,4.0,1,
2109,1860.1,107.4,116.6,67.0,1034.0,6671.0,4.0,1,
2209,1861.1,66.7,119.5,68.5,994.0,6688.0,4.0,1,
2309,1854.5,95.3,68.8,68.1,1056.0,6448.0,3.0,1,
2409,1890.5,62.4,79.4,36.0,1092.0,6457.0,5.0,1,
2609,1885.3,71.9,103.7,27.2,920.0,4521.0,3.0,1,
2709,1859.7,12.8,103.7,28.3,920.0,4521.0,3.0,1,
2809,1862.2,10.9,103.7,29.5,920.0,4521.0,3.0,1,
2909,1861.6,10.1,103.7,29.7,920.0,4521.0,3.0,1,
3009,1862.0,9.9,103.7,30.2,920.0,4521.0,3.0,1,
3109,1862.1,10.2,103.7,124.0,920.0,4521.0,3.0,1,
3209,1861.5,9.9,103.7,155.4,920.0,4521.0,3.0,1,
3309,1860.5,9.8,103.6,188.0,920.0,4521.0,3.0,1,
3409,1861.1,10.7,103.6,171.5,920.0,4521.0,3.0,1,
3609,1861.3,64.7,106.0,49.1,645.0,3952.0,3.0,1,
3709,1825.2,77.4,106.5,38.2,1004.0,6308.0,4.0,1,
3809,1916.6,120.6,119.6,37.5,1001.0,6467.0,3.0,1,
3909,1831.9,56.6,115.3,37.9,1060.0,6660.0,4.0,1,
4009,1864.2,99.6,112.4,40.9,939.0,4940.0,3.0,1,
4109,1872.6,46.9,113.1,42.5,827.0,4209.0,4.0,1,
4209,1854.4,23.0,84.2,42.5,864.0,4015.0,4.0,1,
4309,1860.1,11.2,84.2,45.9,864.0,4015.0,4.0,1,
4409,1861.9,9.7,84.2,79.2,864.0,4015.0,4.0,1,
4609,1861.6,10.2,84.2,83.7,864.0,4015.0,4.0,1,
4709,1861.5,10.7,84.2,89.5,864.0,4015.0,4.0,1,
4809,1860.5,9.8,84.2,131.8,864.0,4015.0,4.0,1,
4909,1860.8,11.0,84.2,86.3,864.0,4015.0,4.0,1,
5009,1861.7,10.8,84.2,87.2,864.0,4015.0,4.0,1,
5109,1860.9,10.2,84.2,104.9,864.0,4015.0,4.0,1,
5209,1870.8,155.1,89.2,54.3,864.0,4015.0,4.0,1,
5309,1877.4,109.6,102.8,27.2,996.0,6333.0,3.0,1,
5409,1831.0,58.4,83.7,27.3,1056.0,6929.0,4.0,1,
5609,1834.3,53.7,97.4,29.8,1217.0,7027.0,4.0,1,
5709,1900.3,49.8,90.4,39.0,952.0,4640.0,3.0,1,
5809,1851.3,51.8,99.6,41.2,841.0,3990.0,4.0,1,
5909,1864.7,12.0,99.7,36.3,841.0,3990.0,4.0,1,
6009,1861.0,9.5,99.7,35.7,841.0,3990.0,4.0,1,
6109,1861.4,10.3,99.7,36.2,841.0,3990.0,4.0,1,
6209,1861.5,9.8,99.7,45.6,841.0,3990.0,4.0,1,
6309,1860.9,9.2,99.7,177.6,841.0,3990.0,4.0,1,
6409,1862.6,10.6,99.6,177.0,841.0,3990.0,4.0,1,
6609,1860.6,10.1,99.6,168.7,841.0,3990.0,4.0,1,
6709,1860.9,10.6,99.6,148.0,841.0,3990.0,4.0,1,
6809,1860.5,10.3,99.6,185.1,841.0,3990.0,4.0,1,
6909,1844.6,130.9,76.9,99.2,955.0,6015.0,4.0,1,
7009,1856.2,104.5,97.6,29.7,991.0,6365.0,3.0,1,
7109,1883.1,59.4,85.3,29.6,1022.0,6777.0,4.0,1,
7209,1856.8,108.6,92.9,30.0,1126.0,6545.0,4.0,1,
7309,1849.6,33.8,92.3,35.6,1013.0,5047.0,4.0,1,
7409,1876.0,161.3,82.9,42.6,858.0,4184.0,4.0,1,
7609,1860.3,11.1,89.7,29.3,858.0,4184.0,4.0,1,
7709,1860.4,9.7,89.7,29.6,858.0,4184.0,4.0,1,
7809,1860.9,9.7,89.7,34.4,858.0,4184.0,4.0,1,
7909,1860.8,10.4,89.7,46.5,858.0,4184.0,4.0,1,
8009,1860.0,9.8,89.8,156.5,858.0,4184.0,4.0,1,
8109,1861.7,9.9,89.8,144.4,858.0,4184.0,4.0,1,
8209,1862.3,10.7,89.7,135.5,858.0,4184.0,4.0,1,
8309,1860.7,10.1,89.7,136.6,858.0,4184.0,4.0,1,
8409,1860.3,10.0,89.7,136.3,858.0,4184.0,4.0,1,
8609,1852.2,125.8,72.6,67.1,1017.0,6349.0,3.0,1,
8709,1859.3,73.0,76.3,67.0,1107.0,7218.0,4.0,1,
8809,1853.4,123.4,68.7,66.5,1216.0,7362.0,6.0,1,
8909,1872.1,127.0,91.7,36.9,1161.0,6246.0,4.0,1,
9009,1869.5,36.8,91.7,28.9,988.0,4877.0,4.0,1,
9109,1857.8,14.5,84.9,27.7,881.0,4394.0,4.0,1,
9209,1859.6,9.7,84.9,27.9,881.0,4394.0,4.0,1,
9309,1861.0,9.8,84.9,34.8,881.0,4394.0,4.0,1,
9409,1861.8,11.5,84.9,93.5,881.0,4394.0,4.0,1,
9609,1861.6,9.8,84.8,117.1,881.0,4394.0,4.0,1,
9709,1861.8,11.3,84.8,133.4,881.0,4394.0,4.0,1,
9809,1860.5,9.9,84.9,167.5,881.0,4394.0,4.0,1,
9909,1860.5,9.8,84.9,151.3,881.0,4394.0,4.0,1,
10009,1861.1,11.1,84.9,109.0,881.0,4394.0,4.0,1,
10109,1875.3,88.3,85.0,91.1,800.0,4661.0,4.0,1,
10209,1855.3,69.4,88.4,47.2,1029.0,6833.0,4.0,1,
10309,1852.6,122.0,93.8,37.9,1054.0,6574.0,3.0,1,
10409,1899.5,61.5,94.1,36.3,1176.0,7512.0,5.0,1,
10609,1884.0,62.4,77.7,36.0,936.0,4542.0,3.0,1,
10709,1862.3,16.2,77.6,34.6,982.0,4877.0,4.0,1,
10809,1858.8,11.1,77.6,35.6,982.0,4877.0,4.0,1,
10909,1861.7,10.8,77.6,38.1,982.0,4877.0,4.0,1,
11009,1860.9,10.0,77.6,65.8,982.0,4877.0,4.0,1,
11109,1861.3,9.5,77.6,77.4,982.0,4877.0,4.0,1,
11209,1861.1,10.7,77.6,123.3,982.0,4877.0,4.0,1,
11309,1861.2,9.6,77.6,135.3,982.0,4877.0,4.0,1,
11409,1860.9,10.5,77.6,133.6,982.0,4877.0,4.0,1,
11609,1860.0,10.2,77.6,123.6,982.0,4877.0,4.0,1,
11709,1831.4,37.0,77.6,117.7,649.0,3842.0,3.0,1,
11809,1905.2,115.3,84.6,38.5,1030.0,6383.0,3.0,1,
11909,1841.1,79.9,79.9,35.2,1037.0,6753.0,4.0,1,
12009,1848.3,131.7,87.3,28.1,1250.0,7649.0,5.0,1,
12109,1883.6,103.5,100.0,28.2,1082.0,5858.0,4.0,1,
12209,1840.6,44.8,94.5,28.1,905.0,4323.0,4.0,1,
12309,1893.5,37.6,101.9,27.9,867.0,4490.0,4.0,1,
12409,1859.6,11.8,101.9,28.0,867.0,4490.0,4.0,1,
12609,1860.9,10.1,101.9,38.9,867.0,4490.0,4.0,1,
12709,1861.7,11.1,101.9,44.6,867.0,4490.0,4.0,1,
12809,1861.5,10.3,101.9,156.5,867.0,4490.0,4.0,1,
12909,1861.6,10.4,101.9,159.0,867.0,4490.0,4.0,1,
13009,1861.0,10.4,101.9,188.4,867.0,4490.0,4.0,1,
13109,1861.6,10.1,101.9,173.7,867.0,4490.0,4.0,1,
13209,1861.1,10.0,101.9,157.6,867.0,4490.0,4.0,1,
13309,1872.2,111.3,107.2,42.6,600.0,3624.0,3.0,1,
13409,1837.2,58.2,98.0,35.8,1039.0,6541.0,4.0,1,
13609,1848.8,75.1,118.6,35.4,1119.0,7271.0,4.0,1,
13709,1887.7,92.7,100.8,35.6,1198.0,7147.0,5.0,1,
13809,1855.7,65.6,103.8,36.7,832.0,4082.0,4.0,1,
13909,1850.2,32.5,95.5,67.7,934.0,4552.0,4.0,1,
14009,1864.4,10.0,95.5,49.6,934.0,4552.0,4.0,1,
14109,1860.2,9.2,95.5,56.6,934.0,4552.0,4.0,1,
14209,1860.2,10.4,95.5,89.1,934.0,4552.0,4.0,1,
14309,1861.2,9.4,95.5,99.9,934.0,4552.0,4.0,1,
14409,1861.3,10.1,95.5,124.5,934.0,4552.0,4.0,1,
14609,1859.9,10.1,95.5,117.2,934.0,4552.0,4.0,1,
14709,1861.2,10.2,95.5,148.3,934.0,4552.0,4.0,1,
14809,1861.3,11.0,95.5,148.5,934.0,4552.0,4.0,1,
14909,1860.7,6.3,95.5,159.1,934.0,4552.0,4.0,1,rest_end
15009,1862.4,116.7,107.6,29.7,829.0,4958.0,4.0,1,
15110,1880.4,70.9,81.6,34.5,1027.0,6909.0,4.0,1,
15210,1856.0,114.5,82.1,35.4,1026.0,6843.0,5.0,1,
15310,1852.2,69.6,90.4,36.0,1265.0,7845.0,5.0,1,
15410,1865.6,56.0,85.9,30.2,1131.0,6056.0,4.0,1,
15610,1869.5,12.0,90.8,29.9,1071.0,5253.0,4.0,1,
15710,1859.8,10.6,90.8,29.5,1071.0,5253.0,4.0,1,
15810,1860.6,9.6,90.8,36.7,1071.0,5253.0,4.0,1,
15910,1861.0,9.4,90.8,68.7,1071.0,5253.0,4.0,1,
16010,1860.8,10.2,90.8,134.6,1071.0,5253.0,4.0,1,
16110,1861.7,9.0,90.8,142.3,1071.0,5253.0,4.0,1,
16210,1863.8,10.0,90.7,138.2,1071.0,5253.0,4.0,1,
16310,1860.8,11.6,90.7,133.2,1071.0,5253.0,4.0,1,
16410,1860.0,10.7,90.8,136.8,1071.0,5253.0,4.0,1,
16610,1856.3,46.4,68.1,65.6,883.0,5062.0,4.0,1,
16710,1862.2,60.8,70.5,68.1,1292.0,7595.0,3.0,1,
16810,1849.8,61.7,69.5,66.7,1280.0,8122.0,4.0,1,
16910,1871.2,131.4,70.0,66.9,1489.0,8969.0,4.0,1,
17010,1882.3,75.2,72.2,65.8,1477.0,9255.0,4.0,1,
17110,1843.4,130.4,70.1,41.3,1492.0,8846.0,4.0,1,
17210,1874.9,28.2,80.2,40.6,1459.0,8703.0,3.0,1,
17310,1857.6,11.3,80.2,30.2,1459.0,8703.0,3.0,1,
17410,1861.3,11.1,80.2,30.1,1459.0,8703.0,3.0,1,
17610,1862.1,10.6,80.2,78.0,1459.0,8703.0,3.0,1,
17710,1860.8,9.9,80.2,84.1,1459.0,8703.0,3.0,1,
17810,1861.3,14.8,80.3,85.0,1459.0,8703.0,3.0,1,
17910,1860.3,10.5,80.4,77.3,1459.0,8703.0,3.0,1,
18010,1861.2,10.7,80.4,67.0,1459.0,8703.0,3.0,1,
18110,1861.5,12.3,80.3,74.5,1459.0,8703.0,3.0,1,
18210,1857.8,39.5,83.8,52.3,922.0,5100.0,3.0,1,
18310,1842.3,62.1,81.0,41.6,1032.0,6539.0,4.0,1,
18410,1911.1,85.5,83.9,44.9,1120.0,7534.0,5.0,1,
18610,1873.5,176.4,98.3,66.1,1404.0,8653.0,5.0,1,
18710,1856.7,77.5,96.6,37.1,1363.0,8391.0,5.0,1,
18810,1860.6,23.2,89.0,34.3,1367.0,8301.0,4.0,1,
18910,1858.6,8.8,88.9,34.8,1367.0,8301.0,4.0,1,
19010,1861.9,8.9,88.9,55.3,1367.0,8301.0,4.0,1,
19110,1862.0,8.1,88.9,100.0,1367.0,8301.0,4.0,1,
19210,1863.1,8.8,88.8,104.8,1367.0,8301.0,4.0,1,
19310,1863.5,9.7,88.8,123.8,1367.0,8301.0,4.0,1,
19410,1859.7,9.3,88.8,122.9,1367.0,8301.0,4.0,1,
19610,1860.7,9.8,88.7,157.1,1367.0,8301.0,4.0,1,
19710,1860.3,9.3,88.7,153.9,1367.0,8301.0,4.0,1,
19810,1891.0,52.9,87.7,45.2,733.0,3779.0,3.0,1,
19910,1833.8,79.3,89.9,28.0,1409.0,8289.0,3.0,1,
20010,1844.6,130.9,100.0,29.7,1300.0,7980.0,3.0,1,
20110,1874.2,72.6,110.8,35.8,1231.0,7695.0,5.0,1,
20210,1840.8,180.8,102.3,34.2,1295.0,8027.0,4.0,1,
20310,1900.0,139.3,110.1,27.9,1328.0,7948.0,4.0,1,
20410,1831.5,34.5,110.2,28.1,1417.0,8355.0,4.0,1,
20610,1860.2,8.5,110.2,34.7,1417.0,8355.0,4.0,1,
20710,1856.7,11.4,110.2,47.0,1417.0,8355.0,4.0,1,
20810,1861.8,10.5,110.3,89.9,1417.0,8355.0,4.0,1,
20910,1863.7,10.1,110.3,81.9,1417.0,8355.0,4.0,1,
21010,1861.7,10.2,110.3,82.2,1417.0,8355.0,4.0,1,
21110,1862.5,11.6,110.3,85.3,1417.0,8355.0,4.0,1,
21210,1861.7,10.3,110.3,99.2,1417.0,8355.0,4.0,1,
21310,1862.2,9.2,110.3,90.9,1417.0,8355.0,4.0,1,
21410,1854.4,12.0,108.7,90.8,927.0,4864.0,4.0,1,
21610,1832.9,68.5,107.4,93.1,1195.0,7356.0,4.0,1,
21710,1913.8,91.7,88.2,91.2,1207.0,7383.0,3.0,1,
21810,1822.7,52.4,90.0,87.1,1061.0,6042.0,4.0,1,
21910,1851.0,122.7,77.2,84.0,1195.0,6798.0,3.0,1,
22010,1871.7,63.5,79.8,41.7,1236.0,7371.0,4.0,1,
22110,1860.9,12.1,79.8,29.8,1236.0,7371.0,4.0,1,
22210,1859.7,9.7,79.8,29.9,1236.0,7371.0,4.0,1,
22310,1855.9,10.8,79.8,39.2,1236.0,7371.0,4.0,1,
22410,1861.8,10.2,79.8,71.4,1236.0,7371.0,4.0,1,
22610,1862.5,11.4,79.8,94.7,1236.0,7371.0,4.0,1,
22710,1861.3,7.7,79.8,92.0,1236.0,7371.0,4.0,1,
22810,1862.8,21.0,79.9,74.0,1236.0,7371.0,4.0,1,
22910,1859.6,14.5,80.0,54.0,1236.0,7371.0,4.0,1,
23010,1842.9,40.4,80.1,40.3,1236.0,7371.0,4.0,1,
23110,1891.3,87.6,82.4,65.5,1279.0,7525.0,4.0,1,
23210,1856.7,74.0,84.0,67.6,1210.0,7584.0,3.0,1,
23310,1834.8,72.1,79.0,67.0,1303.0,8469.0,4.0,1,
23410,1881.9,158.1,94.6,67.0,1269.0,8251.0,3.0,1,
23610,1903.8,150.7,118.4,35.8,1256.0,8094.0,4.0,1,
23710,1841.6,16.6,119.0,35.3,1256.0,8094.0,4.0,1,
23811,1859.7,10.6,119.0,40.6,1256.0,8094.0,4.0,1,
23911,1861.1,10.0,118.9,43.6,1256.0,8094.0,4.0,1,
24011,1861.5,10.3,118.9,74.6,1256.0,8094.0,4.0,1,
24111,1862.2,10.9,119.0,100.3,1256.0,8094.0,4.0,1,
24211,1860.9,9.7,119.0,100.4,1256.0,8094.0,4.0,1,
24311,1861.9,9.6,119.0,84.7,1256.0,8094.0,4.0,1,
24411,1861.4,9.7,118.9,101.8,1256.0,8094.0,4.0,1,
24611,1861.0,54.2,118.8,132.5,1256.0,8094.0,4.0,1,
24711,1844.0,65.1,124.2,36.0,1386.0,7783.0,3.0,1,
24811,1862.9,52.4,122.9,36.6,1151.0,7045.0,3.0,1,
24911,1854.1,83.8,126.0,39.9,1157.0,7435.0,3.0,1,
25011,1893.2,133.3,122.8,66.3,1296.0,8377.0,4.0,1,
25111,1840.0,116.7,126.4,40.7,1256.0,8068.0,3.0,1,
25211,1844.7,230.4,93.6,28.3,1302.0,8456.0,4.0,1,
25311,1872.1,29.0,110.1,28.0,1337.0,8383.0,3.0,1,
25411,1858.3,14.8,110.2,30.0,1337.0,8383.0,3.0,1,
25611,1862.5,10.5,110.1,30.1,1337.0,8383.0,3.0,1,
25711,1862.8,9.5,110.1,39.3,1337.0,8383.0,3.0,1,
25811,1861.2,9.6,110.1,101.5,1337.0,8383.0,3.0,1,
25911,1861.0,10.8,110.1,111.7,1337.0,8383.0,3.0,1,
26011,1860.5,9.6,110.1,145.1,1337.0,8383.0,3.0,1,
26111,1861.0,9.3,110.1,173.7,1337.0,8383.0,3.0,1,
26211,1861.8,9.0,110.1,171.5,1337.0,8383.0,3.0,1,
26311,1858.1,93.5,104.4,66.7,1350.0,6939.0,4.0,1,
26411,1886.9,85.1,105.0,66.5,1407.0,8552.0,4.0,1,
26611,1842.2,73.4,105.9,67.1,1336.0,8497.0,4.0,1,
26711,1864.9,85.9,90.8,49.4,1376.0,8434.0,3.0,1,
26811,1863.0,102.6,98.2,40.6,1334.0,8493.0,3.0,1,
26911,1863.3,23.9,79.0,39.6,1323.0,8607.0,4.0,1,
27011,1858.2,10.0,79.0,37.8,1323.0,8607.0,4.0,1,
27111,1862.6,11.1,78.9,80.6,1323.0,8607.0,4.0,1,
27211,1863.2,10.4,78.9,101.1,1323.0,8607.0,4.0,1,
27311,1863.2,10.0,78.9,99.3,1323.0,8607.0,4.0,1,
27411,1861.5,10.2,78.9,84.7,1323.0,8607.0,4.0,1,
27611,1861.0,9.6,78.9,130.3,1323.0,8607.0,4.0,1,
27711,1861.5,10.5,78.9,130.5,1323.0,8607.0,4.0,1,
27811,1861.3,10.0,78.9,143.9,1323.0,8607.0,4.0,1,
27911,1869.3,117.4,83.7,55.8,1294.0,7022.0,3.0,1,
28011,1853.7,105.6,95.5,40.5,1363.0,8272.0,3.0,1,
28111,1850.7,80.8,94.4,29.1,1234.0,7859.0,4.0,1,
28211,1865.6,101.7,94.3,29.0,1173.0,7493.0,4.0,1,
28311,1881.2,78.8,94.7,38.1,1205.0,8081.0,4.0,1,
28411,1848.1,108.5,90.0,71.4,1195.0,7848.0,4.0,1,
28611,1858.7,12.7,91.5,67.0,1195.0,7848.0,4.0,1,
28711,1861.6,10.0,91.6,72.6,1195.0,7848.0,4.0,1,
28811,1862.4,9.9,91.6,91.7,1195.0,7848.0,4.0,1,
28911,1863.8,9.9,91.5,91.9,1195.0,7848.0,4.0,1,
29011,1860.8,9.0,91.6,132.9,1195.0,7848.0,4.0,1,
29111,1860.8,9.9,91.6,196.9,1195.0,7848.0,4.0,1,
29211,1861.6,10.1,91.5,198.4,1195.0,7848.0,4.0,1,
29311,1861.8,9.1,91.5,155.8,1195.0,7848.0,4.0,1,
29411,1862.3,11.8,91.5,155.7,1195.0,7848.0,4.0,1,
29611,1850.8,157.7,94.5,66.4,1410.0,8412.0,3.0,1,
29711,1903.8,100.3,95.8,40.7,1268.0,8298.0,3.0,1,
29811,1825.3,86.1,95.5,37.6,1263.0,8303.0,4.0,1,
29911,1868.1,118.1,111.0,37.7,1372.0,8780.0,4.0,1,
30011,1852.5,106.9,110.9,42.0,1474.0,9655.0,4.0,1,
30111,1879.5,62.6,111.1,34.7,1513.0,9619.0,4.0,1,
30211,1862.6,12.5,111.0,40.5,1513.0,9619.0,4.0,1,
30311,1860.5,9.6,111.0,68.2,1513.0,9619.0,4.0,1,
30411,1862.6,9.3,111.0,70.4,1513.0,9619.0,4.0,1,
30611,1861.8,9.8,111.0,89.3,1513.0,9619.0,4.0,1,
30711,1861.5,11.1,111.0,87.9,1513.0,9619.0,4.0,1,
30811,1861.1,10.6,111.1,92.3,1513.0,9619.0,4.0,1,
30911,1861.1,9.9,111.1,125.1,1513.0,9619.0,4.0,1,
31011,1861.4,11.2,111.1,133.1,1513.0,9619.0,4.0,1,
31111,1874.4,92.9,112.6,73.9,1513.0,9619.0,4.0,1,
31211,1841.7,80.7,100.5,47.4,1326.0,8353.0,4.0,1,
31311,1853.3,175.2,112.1,46.4,1452.0,8572.0,3.0,1,
31411,1866.5,80.4,111.4,42.8,1556.0,9546.0,4.0,1,
31611,1899.7,108.9,118.6,41.7,1722.0,10930.0,3.0,1,
31711,1811.7,102.1,119.1,35.7,1715.0,10635.0,4.0,1,
31811,1873.0,14.3,118.4,36.1,1715.0,10635.0,4.0,1,
31911,1859.7,10.1,118.4,85.3,1715.0,10635.0,4.0,1,
32011,1861.7,10.4,118.4,99.1,1715.0,10635.0,4.0,1,
32111,1862.5,10.2,118.4,98.7,1715.0,10635.0,4.0,1,
32211,1863.6,11.0,118.4,93.6,1715.0,10635.0,4.0,1,
32311,1861.4,10.2,118.4,135.1,1715.0,10635.0,4.0,1,
32411,1861.2,9.6,118.4,184.0,1715.0,10635.0,4.0,1,
32611,1861.3,10.2,118.4,171.1,1715.0,10635.0,4.0,1,
32711,1861.4,22.2,118.3,149.6,1715.0,10635.0,4.0,1,
32811,1873.1,94.8,120.5,67.0,1439.0,8194.0,3.0,1,
32911,1832.3,94.8,115.1,46.0,1439.0,8833.0,4.0,1,
33011,1922.9,226.9,118.8,55.8,1534.0,9607.0,4.0,1,
33111,1818.9,105.4,109.3,36.5,1454.0,9639.0,4.0,1,
33211,1855.0,181.6,119.9,28.3,1680.0,10342.0,3.0,1,
33311,1873.1,127.3,121.6,28.2,1614.0,10669.0,4.0,1,
33411,1864.5,19.1,121.9,38.7,1562.0,10555.0,4.0,1,
33611,1861.5,8.7,121.9,90.6,1562.0,10555.0,4.0,1,
33711,1863.9,9.8,121.9,86.1,1562.0,10555.0,4.0,1,
33811,1863.5,8.4,121.8,101.4,1562.0,10555.0,4.0,1,
33911,1861.7,9.1,121.8,165.8,1562.0,10555.0,4.0,1,
34011,1861.4,9.0,121.8,144.4,1562.0,10555.0,4.0,1,
34111,1860.9,9.0,121.8,139.0,1562.0,10555.0,4.0,1,
34211,1861.0,8.5,121.8,136.7,1562.0,10555.0,4.0,1,
34311,1861.5,8.9,121.8,149.6,1562.0,10555.0,4.0,1,
34411,1874.3,80.4,120.0,72.1,1032.0,5781.0,4.0,1,
34611,1828.9,240.1,112.6,81.6,1324.0,8612.0,4.0,1,
34711,1880.2,185.3,127.1,66.1,1331.0,9063.0,4.0,1,
34811,1844.2,128.0,127.1,34.6,1432.0,9600.0,4.0,1,
34911,1916.7,133.2,124.1,28.2,1533.0,10213.0,5.0,1,
35011,1835.3,29.6,126.7,34.5,1581.0,10413.0,4.0,1,
35111,1858.2,10.1,126.7,37.4,1581.0,10413.0,4.0,1,
35211,1861.5,9.1,126.7,45.9,1581.0,10413.0,4.0,1,
35311,1863.4,9.0,126.7,78.5,1581.0,10413.0,4.0,1,
35411,1863.4,8.7,126.7,86.7,1581.0,10413.0,4.0,1,
35611,1861.3,8.5,126.7,103.3,1581.0,10413.0,4.0,1,
35711,1861.2,8.8,126.7,102.7,1581.0,10413.0,4.0,1,
35811,1861.9,9.3,126.7,104.4,1581.0,10413.0,4.0,1,
35911,1860.7,9.5,126.7,124.5,1581.0,10413.0,4.0,1,
36011,1850.6,27.6,126.5,89.8,910.0,4634.0,3.0,1,
36111,1847.8,71.1,123.6,69.3,1287.0,8072.0,4.0,1,
36211,1860.4,120.8,134.6,67.6,1317.0,8715.0,4.0,1,
36311,1894.6,95.5,115.2,37.9,1472.0,9708.0,4.0,1,
36411,1847.1,143.5,118.9,35.9,1619.0,10136.0,4.0,1,
36611,1881.2,33.7,103.2,80.3,1667.0,10602.0,3.0,1,
36711,1859.3,10.4,103.2,92.2,1667.0,10602.0,3.0,1,
36811,1861.0,8.2,103.1,92.2,1667.0,10602.0,3.0,1,
36911,1863.1,10.0,103.2,87.9,1667.0,10602.0,3.0,1,
37011,1865.4,9.0,103.1,81.4,1667.0,10602.0,3.0,1,
37111,1861.3,8.6,103.2,144.2,1667.0,10602.0,3.0,1,
37211,1861.8,9.6,103.1,156.6,1667.0,10602.0,3.0,1,
37311,1861.8,9.1,103.1,154.0,1667.0,10602.0,3.0,1,
37411,1861.7,8.4,103.1,154.7,1667.0,10602.0,3.0,1,
37611,1860.4,195.0,105.3,100.7,711.0,4058.0,4.0,1,
37711,1882.5,87.4,114.1,34.5,1146.0,7081.0,3.0,1,
37811,1857.1,192.0,111.0,35.1,1190.0,8578.0,5.0,1,
37911,1842.5,105.6,123.4,34.8,1251.0,8698.0,4.0,1,
38011,1853.9,259.8,118.0,27.9,1384.0,9588.0,4.0,1,
38111,1877.4,162.2,130.8,28.0,1362.0,9413.0,4.0,1,
38211,1858.1,63.5,131.6,43.2,1402.0,9856.0,4.0,1,
38311,1860.8,11.6,131.6,78.0,1402.0,9856.0,4.0,1,
38411,1860.7,9.1,131.6,71.5,1402.0,9856.0,4.0,1,
38611,1863.6,8.5,131.6,70.5,1402.0,9856.0,4.0,1,
38711,1862.2,9.7,131.6,124.5,1402.0,9856.0,4.0,1,
38811,1862.2,8.7,131.6,117.1,1402.0,9856.0,4.0,1,
38911,1861.8,8.2,131.6,112.6,1402.0,9856.0,4.0,1,
39011,1861.8,9.3,131.6,131.7,1402.0,9856.0,4.0,1,
39111,1862.1,8.4,131.6,159.0,1402.0,9856.0,4.0,1,
39211,1865.0,93.9,131.6,155.0,780.0,4684.0,4.0,1,
39311,1862.4,124.2,143.9,36.8,1211.0,7371.0,4.0,1,
39411,1851.5,86.7,136.5,30.1,1271.0,8410.0,4.0,1,
39611,1896.6,113.2,138.8,43.4,1347.0,9317.0,4.0,1,
39711,1824.9,220.4,141.7,47.4,1371.0,9433.0,3.0,1,
39811,1863.0,126.7,148.2,36.0,1469.0,9763.0,4.0,1,
39911,1873.9,24.6,148.2,30.1,1469.0,9763.0,4.0,1,
40011,1859.8,9.6,148.2,29.4,1469.0,9763.0,4.0,1,
40111,1862.5,9.0,148.2,37.4,1469.0,9763.0,4.0,1,
40211,1864.5,9.6,148.2,48.5,1469.0,9763.0,4.0,1,
40311,1862.1,8.4,148.2,55.2,1469.0,9763.0,4.0,1,
40411,1861.6,8.9,148.2,109.6,1469.0,9763.0,4.0,1,
40611,1862.0,9.0,148.2,154.9,1469.0,9763.0,4.0,1,
40711,1860.9,8.8,148.2,153.8,1469.0,9763.0,4.0,1,
40811,1861.8,11.6,148.2,149.8,1469.0,9763.0,4.0,1,
40911,1829.2,57.7,127.9,94.7,1018.0,6046.0,4.0,1,
41011,1921.8,221.6,137.3,66.6,1335.0,8462.0,4.0,1,
41111,1826.0,102.6,136.0,36.3,1328.0,9177.0,4.0,1,
41211,1852.9,182.1,139.6,29.1,1404.0,9416.0,3.0,1,
41311,1870.4,132.7,141.0,34.5,1615.0,10467.0,4.0,1,
41411,1863.9,92.5,118.4,39.1,1581.0,10080.0,4.0,1,
41611,1858.0,9.8,117.8,79.6,1581.0,10080.0,4.0,1,
41711,1862.2,9.8,117.8,67.9,1581.0,10080.0,4.0,1,
41811,1865.4,8.9,117.8,68.5,1581.0,10080.0,4.0,1,
41911,1862.0,8.7,117.8,67.0,1581.0,10080.0,4.0,1,
42011,1861.2,9.6,117.8,142.1,1581.0,10080.0,4.0,1,
42111,1861.7,8.8,117.8,166.7,1581.0,10080.0,4.0,1,
42211,1861.4,8.8,117.8,195.0,1581.0,10080.0,4.0,1,
42311,1861.5,9.1,117.8,175.6,1581.0,10080.0,4.0,1,
42411,1861.5,13.2,117.8,170.0,1581.0,10080.0,4.0,1,
42611,1831.0,84.7,113.9,37.6,1242.0,7790.0,4.0,1,
42711,1877.5,223.3,103.9,66.0,1331.0,9300.0,4.0,1,
42811,1849.3,129.7,109.7,66.7,1527.0,10253.0,4.0,1,
42911,1904.9,121.3,96.3,65.9,1618.0,10461.0,4.0,1,
43011,1832.5,125.4,100.6,66.6,1563.0,10079.0,4.0,1,
43111,1863.3,25.2,100.6,79.3,1588.0,10216.0,4.0,1,
43211,1859.2,10.5,100.5,82.1,1588.0,10216.0,4.0,1,
43311,1861.8,8.8,100.5,74.1,1588.0,10216.0,4.0,1,
43411,1863.1,9.3,100.5,70.2,1588.0,10216.0,4.0,1,
43611,1862.1,9.1,100.5,134.9,1588.0,10216.0,4.0,1,
43711,1861.7,9.1,100.5,117.9,1588.0,10216.0,4.0,1,
43811,1861.9,9.7,100.5,139.9,1588.0,10216.0,4.0,1,
43911,1862.5,8.5,100.5,157.4,1588.0,10216.0,4.0,1,
44011,1861.8,8.9,100.5,150.4,1588.0,10216.0,4.0,1,
44111,1848.2,31.0,100.3,100.1,899.0,5244.0,4.0,1,
44211,1872.6,200.2,116.1,45.0,1217.0,7924.0,4.0,1,
44311,1885.2,124.7,119.1,37.9,1496.0,9616.0,4.0,1,
44411,1851.6,164.0,116.6,45.2,1536.0,9670.0,4.0,1,
44611,1863.4,332.3,118.6,93.2,1587.0,9815.0,3.0,1,
44711,1885.7,65.7,140.5,67.1,1574.0,10151.0,3.0,1,
44811,1858.3,11.6,140.5,37.2,1574.0,10151.0,3.0,1,
44911,1860.3,9.4,140.5,35.8,1574.0,10151.0,3.0,1,
45011,1861.6,9.7,140.5,37.5,1574.0,10151.0,3.0,1,
45111,1863.4,9.4,140.5,41.6,1574.0,10151.0,3.0,1,
45211,1862.8,9.1,140.5,133.6,1574.0,10151.0,3.0,1,
45311,1860.7,9.6,140.5,151.7,1574.0,10151.0,3.0,1,
45411,1860.8,8.4,140.6,124.0,1574.0,10151.0,3.0,1,
45611,1862.1,10.3,140.6,141.9,1574.0,10151.0,3.0,1,
45711,1871.6,74.3,144.3,41.0,759.0,4429.0,3.0,1,
45811,1839.8,158.4,133.6,37.9,1316.0,8092.0,4.0,1,
45911,1858.3,176.8,150.4,36.8,1520.0,9306.0,3.0,1,
46011,1853.1,133.2,148.9,34.5,1571.0,10127.0,4.0,1,
46111,1881.9,175.4,159.5,28.5,1599.0,10355.0,4.0,1,
46211,1883.5,136.5,162.4,34.4,1602.0,10180.0,4.0,1,
46311,1829.2,56.8,143.3,30.0,1643.0,10433.0,4.0,1,
46411,1859.1,11.7,143.3,34.9,1643.0,10433.0,4.0,1,
46611,1861.8,8.8,143.3,67.4,1643.0,10433.0,4.0,1,
46711,1863.2,9.2,143.3,68.2,1643.0,10433.0,4.0,1,
46811,1862.7,9.6,143.3,130.9,1643.0,10433.0,4.0,1,
46911,1861.6,8.6,143.3,110.8,1643.0,10433.0,4.0,1,
47011,1860.5,9.6,143.3,141.8,1643.0,10433.0,4.0,1,
47111,1860.7,9.5,143.3,139.7,1643.0,10433.0,4.0,1,
47211,1861.8,8.4,143.3,152.6,1643.0,10433.0,4.0,1,
47311,1859.0,177.5,138.9,112.4,705.0,4056.0,4.0,1,
47411,1872.1,130.2,161.0,30.0,1255.0,7893.0,4.0,1,
47611,1918.6,177.8,148.9,35.1,1539.0,10132.0,4.0,1,
47711,1815.3,129.5,135.8,36.7,1638.0,10867.0,4.0,1,
47811,1864.3,223.2,131.4,66.9,1597.0,10238.0,4.0,1,
47911,1862.2,96.7,136.8,67.4,1702.0,10956.0,4.0,1,
48011,1870.8,13.9,136.7,39.8,1702.0,10956.0,4.0,1,
48111,1860.4,8.8,136.7,39.5,1702.0,10956.0,4.0,1,
48211,1861.6,9.0,136.7,66.4,1702.0,10956.0,4.0,1,
48311,1863.3,10.3,136.7,68.2,1702.0,10956.0,4.0,1,
48411,1865.1,8.4,136.7,101.3,1702.0,10956.0,4.0,1,
48611,1861.0,9.7,136.7,133.6,1702.0,10956.0,4.0,1,
48711,1861.8,8.7,136.7,139.2,1702.0,10956.0,4.0,1,
48811,1861.3,9.0,136.7,131.3,1702.0,10956.0,4.0,1,
48911,1843.7,32.1,136.7,122.6,1702.0,10956.0,4.0,1,
49011,1899.6,170.6,116.7,75.5,1245.0,7371.0,4.0,1,
49111,1851.5,128.1,124.1,81.5,1426.0,9282.0,4.0,1,
49211,1831.8,125.0,118.9,81.2,1570.0,10139.0,4.0,1,
49311,1889.1,197.6,128.1,81.4,1565.0,10134.0,3.0,1,
49411,1854.1,143.8,128.0,77.5,1610.0,10564.0,4.0,1,
49611,1836.7,21.3,132.1,41.9,1610.0,10564.0,4.0,1,
49711,1858.6,9.7,132.1,36.3,1610.0,10564.0,4.0,1,
49811,1861.7,9.3,132.1,35.0,1610.0,10564.0,4.0,1,
49911,1863.1,8.8,132.1,39.3,1610.0,10564.0,4.0,1,
50011,1863.3,9.3,132.1,49.8,1610.0,10564.0,4.0,1,
50111,1861.7,9.7,132.1,158.0,1610.0,10564.0,4.0,1,
50211,1861.4,9.1,132.1,143.8,1610.0,10564.0,4.0,1,
50311,1860.7,9.1,132.1,142.9,1610.0,10564.0,4.0,1,
50411,1863.3,15.0,132.1,139.0,1610.0,10564.0,4.0,1,
50611,1843.0,71.6,133.2,67.0,1115.0,7120.0,4.0,1,
50711,1865.4,176.2,131.0,84.7,1536.0,9568.0,3.0,1,
50811,1860.6,145.6,132.9,81.1,1594.0,10100.0,4.0,1,
50911,1892.0,205.9,133.6,74.3,1662.0,10248.0,3.0,1,
51011,1837.1,157.2,136.1,67.1,1644.0,10751.0,4.0,1,
51111,1837.0,195.6,135.3,38.3,1584.0,10334.0,4.0,1,
51211,1882.5,27.4,130.3,30.1,1595.0,10172.0,3.0,1,
51311,1858.7,10.9,130.3,40.1,1595.0,10172.0,3.0,1,
51411,1861.7,8.0,130.3,50.4,1595.0,10172.0,3.0,1,
51611,1864.4,9.9,130.3,38.5,1595.0,10172.0,3.0,1,
51711,1862.9,8.4,130.3,142.8,1595.0,10172.0,3.0,1,
51811,1860.7,8.9,130.3,144.3,1595.0,10172.0,3.0,1,
51911,1861.3,9.8,130.3,143.5,1595.0,10172.0,3.0,1,
52011,1861.0,8.5,130.3,140.2,1595.0,10172.0,3.0,1,
52111,1861.2,8.9,130.2,106.6,1595.0,10172.0,3.0,1,
52211,1866.6,149.9,136.7,39.0,809.0,4533.0,4.0,1,
52311,1883.1,110.8,134.6,41.4,1361.0,8658.0,4.0,1,
52411,1854.7,195.5,128.3,48.8,1415.0,10021.0,4.0,1,
52611,1858.5,220.9,141.7,36.9,1496.0,10117.0,3.0,1,
52711,1885.7,166.7,143.2,35.3,1542.0,10611.0,4.0,1,
52811,1857.3,35.3,140.9,36.2,1547.0,10357.0,4.0,1,
52911,1858.7,9.9,140.9,37.1,1547.0,10357.0,4.0,1,
53011,1861.0,8.6,140.9,43.4,1547.0,10357.0,4.0,1,
53111,1863.5,9.1,140.9,54.1,1547.0,10357.0,4.0,1,
53211,1863.7,7.3,140.9,48.2,1547.0,10357.0,4.0,1,
53311,1861.0,9.2,140.9,122.2,1547.0,10357.0,4.0,1,
53411,1861.3,9.8,140.9,125.2,1547.0,10357.0,4.0,1,
53611,1861.1,9.2,140.9,197.8,1547.0,10357.0,4.0,1,
53711,1861.0,8.6,140.9,207.5,1547.0,10357.0,4.0,1,
53811,1853.4,42.0,134.4,113.6,785.0,4782.0,4.0,1,
53911,1863.0,158.2,132.8,81.4,1241.0,7852.0,4.0,1,
54011,1855.0,130.4,135.5,65.7,1359.0,9427.0,4.0,1,
54111,1872.6,162.1,123.0,66.3,1396.0,9566.0,3.0,1,
54211,1891.0,146.4,121.7,78.3,1633.0,10874.0,4.0,1,
54311,1821.2,183.4,119.7,84.4,1606.0,10769.0,3.0,1,
54411,1884.8,60.2,120.0,66.9,1587.0,10819.0,5.0,1,
54611,1860.7,9.8,120.0,42.8,1587.0,10819.0,5.0,1,
54711,1862.2,8.4,120.0,41.2,1587.0,10819.0,5.0,1,
54811,1864.5,8.9,120.0,42.4,1587.0,10819.0,5.0,1,
54911,1862.1,9.7,120.0,124.4,1587.0,10819.0,5.0,1,
55011,1861.6,8.6,120.0,166.9,1587.0,10819.0,5.0,1,
55111,1860.7,8.8,120.0,168.1,1587.0,10819.0,5.0,1,
55211,1860.7,9.5,120.0,189.9,1587.0,10819.0,5.0,1,
55311,1861.1,8.4,120.0,189.3,1587.0,10819.0,5.0,1,
55411,1863.2,82.2,123.7,47.0,701.0,4120.0,3.0,1,
55611,1918.6,174.1,121.2,41.0,1487.0,9433.0,3.0,1,
55711,1820.2,126.0,121.2,50.2,1739.0,11120.0,4.0,1,
55811,1858.5,309.4,122.5,41.4,1658.0,10984.0,4.0,1,
55911,1867.4,171.9,135.1,37.5,1745.0,11160.0,4.0,1,
56011,1857.2,89.3,130.5,28.7,1717.0,11142.0,4.0,1,
56111,1865.7,13.1,130.5,29.9,1717.0,11142.0,4.0,1,
56211,1860.9,8.2,130.5,65.5,1717.0,11142.0,4.0,1,
56311,1861.8,9.1,130.5,65.9,1717.0,11142.0,4.0,1,
56411,1862.8,9.1,130.5,55.2,1717.0,11142.0,4.0,1,
56611,1861.4,9.2,130.5,156.1,1717.0,11142.0,4.0,1,
56711,1861.0,8.3,130.5,188.9,1717.0,11142.0,4.0,1,
56811,1861.2,7.3,130.5,159.0,1717.0,11142.0,4.0,1,
56911,1861.8,14.6,130.5,122.8,1717.0,11142.0,4.0,1,
57011,1883.0,134.5,132.5,48.7,1717.0,11142.0,4.0,1,
57111,1857.6,149.5,148.4,27.9,1466.0,9055.0,4.0,1,
57211,1830.5,122.4,150.5,28.8,1603.0,10310.0,4.0,1,
57311,1885.9,182.9,149.5,34.6,1675.0,10885.0,4.0,1,
57411,1857.6,159.8,145.6,38.7,1680.0,10853.0,4.0,1,
57611,1824.3,139.3,140.0,94.7,1648.0,10792.0,4.0,1,
57711,1868.5,15.2,138.7,81.1,1648.0,10792.0,4.0,1,
57811,1859.9,9.6,138.7,66.5,1648.0,10792.0,4.0,1,
57911,1862.1,8.6,138.7,65.7,1648.0,10792.0,4.0,1,
58011,1862.4,8.7,138.7,49.2,1648.0,10792.0,4.0,1,
58111,1862.9,9.6,138.7,57.3,1648.0,10792.0,4.0,1,
58211,1862.0,8.3,138.7,115.6,1648.0,10792.0,4.0,1,
58311,1861.5,8.1,138.7,107.8,1648.0,10792.0,4.0,1,
58411,1861.1,8.2,138.7,110.8,1648.0,10792.0,4.0,1,
58611,1860.9,12.1,138.6,51.8,1648.0,10792.0,4.0,1,
58711,1848.8,145.7,127.9,49.6,1224.0,7032.0,3.0,1,
58811,1868.4,150.2,136.6,34.6,1537.0,10030.0,4.0,1,
58911,1887.1,138.7,135.4,28.3,1590.0,10609.0,4.0,1,
59011,1840.1,155.0,136.2,29.2,1732.0,11407.0,4.0,1,
59111,1838.1,134.9,133.6,52.1,1711.0,11168.0,4.0,1,
59211,1884.8,250.9,131.0,93.6,1739.0,11150.0,4.0,1,
59311,1876.9,27.6,134.8,94.4,1757.0,11405.0,4.0,1,
59411,1859.5,9.7,134.8,66.5,1757.0,11405.0,4.0,1,
59611,1862.4,8.8,134.8,46.7,1757.0,11405.0,4.0,1,
59711,1863.8,8.7,134.8,50.0,1757.0,11405.0,4.0,1,
59811,1863.3,8.2,134.8,157.3,1757.0,11405.0,4.0,1,
59911,1862.2,9.2,134.8,141.4,1757.0,11405.0,4.0,1,
60011,1861.2,9.3,134.8,122.1,1757.0,11405.0,4.0,1,
60111,1861.5,8.5,134.8,124.4,1757.0,11405.0,4.0,1,
60211,1861.9,9.7,134.8,123.2,1757.0,11405.0,4.0,1,
60311,1864.5,55.8,130.5,57.0,865.0,5281.0,4.0,1,
60411,1855.8,153.5,130.7,39.1,1321.0,8057.0,3.0,1,
60611,1851.5,262.9,130.5,39.0,1612.0,10425.0,4.0,1,
60711,1890.5,186.0,138.1,42.0,1690.0,10995.0,4.0,1,
60811,1870.8,155.9,139.2,67.3,1622.0,10557.0,4.0,1,
60911,1844.5,29.4,134.5,79.2,1653.0,10450.0,3.0,1,
61011,1859.2,9.7,134.5,66.7,1653.0,10450.0,3.0,1,
61111,1861.1,8.5,134.5,65.8,1653.0,10450.0,3.0,1,
61211,1862.0,8.9,134.5,54.6,1653.0,10450.0,3.0,1,
61311,1863.2,8.4,134.5,51.4,1653.0,10450.0,3.0,1,
61411,1863.1,8.8,134.5,144.9,1653.0,10450.0,3.0,1,
61611,1861.1,8.1,134.5,133.3,1653.0,10450.0,3.0,1,
61711,1861.1,9.3,134.5,141.4,1653.0,10450.0,3.0,1,
61811,1861.3,8.8,134.5,142.4,1653.0,10450.0,3.0,1,
61911,1875.5,185.6,147.9,34.2,807.0,5281.0,3.0,1,
62011,1851.9,97.0,134.1,30.1,1167.0,7253.0,4.0,1,
62111,1876.0,152.5,133.0,34.9,1361.0,9429.0,5.0,1,
62211,1887.9,148.4,134.1,36.2,1588.0,10248.0,4.0,1,
62311,1830.6,147.5,128.1,66.2,1660.0,10179.0,3.0,1,
62411,1852.7,153.9,128.8,66.4,1590.0,10445.0,4.0,1,
62611,1858.5,10.8,129.0,39.3,1590.0,10445.0,4.0,1,
62711,1861.3,8.9,129.0,38.1,1590.0,10445.0,4.0,1,
62811,1861.5,8.4,129.0,39.9,1590.0,10445.0,4.0,1,
62911,1862.7,9.2,129.0,39.2,1590.0,10445.0,4.0,1,
63011,1861.9,8.9,129.0,134.4,1590.0,10445.0,4.0,1,
63111,1861.4,8.3,129.1,141.2,1590.0,10445.0,4.0,1,
63211,1860.5,9.2,129.1,150.1,1590.0,10445.0,4.0,1,
63311,1860.9,8.5,129.0,168.4,1590.0,10445.0,4.0,1,
63411,1860.8,9.2,129.1,125.7,1590.0,10445.0,4.0,1,
63611,1914.1,136.6,146.3,39.2,1250.0,7926.0,4.0,1,
63711,1827.3,126.2,147.8,38.8,1548.0,9956.0,4.0,1,
63811,1857.0,221.0,148.9,40.3,1603.0,10386.0,4.0,1,
63911,1859.5,180.2,152.3,44.6,1676.0,10680.0,4.0,1,
64011,1886.6,183.2,151.0,36.4,1695.0,10613.0,3.0,1,
64111,1860.6,85.6,152.6,35.5,1594.0,10491.0,4.0,1,
64211,1862.4,12.2,152.5,54.5,1594.0,10491.0,4.0,1,
64311,1860.6,8.7,152.5,38.7,1594.0,10491.0,4.0,1,
64411,1861.6,9.1,152.5,36.3,1594.0,10491.0,4.0,1,
64611,1863.7,8.0,152.5,100.3,1594.0,10491.0,4.0,1,
64711,1861.9,9.1,152.5,145.1,1594.0,10491.0,4.0,1,
64811,1861.4,8.5,152.5,174.1,1594.0,10491.0,4.0,1,
64911,1860.8,8.5,152.5,197.8,1594.0,10491.0,4.0,1,
65011,1860.9,8.9,152.5,157.0,1594.0,10491.0,4.0,1,
65111,1864.6,20.7,152.5,151.4,761.0,4675.0,4.0,1,
65211,1836.9,58.0,120.9,66.3,1098.0,6712.0,4.0,1,
65311,1877.6,132.3,123.1,66.6,1258.0,8188.0,4.0,1,
65411,1847.3,134.0,118.3,66.6,1484.0,9765.0,4.0,1,
65611,1818.7,141.9,137.6,37.8,1702.0,11007.0,4.0,1,
65711,1855.5,209.6,147.8,30.0,1605.0,10701.0,3.0,1,
65811,1879.4,20.8,147.7,36.0,1605.0,10701.0,3.0,1,
65911,1859.3,9.7,147.7,36.0,1605.0,10701.0,3.0,1,
66011,1861.8,8.5,147.7,35.2,1605.0,10701.0,3.0,1,
66111,1862.0,8.2,147.7,36.8,1605.0,10701.0,3.0,1,
66211,1862.5,9.2,147.7,99.2,1605.0,10701.0,3.0,1,
66311,1863.4,8.4,147.7,202.8,1605.0,10701.0,3.0,1,
66411,1861.9,8.6,147.7,136.0,1605.0,10701.0,3.0,1,
66611,1860.9,8.2,147.7,188.3,1605.0,10701.0,3.0,1,
66711,1860.6,19.3,147.7,150.0,1605.0,10701.0,3.0,1,
66811,1856.0,82.9,149.3,35.9,921.0,5667.0,4.0,1,
66911,1891.7,158.9,150.7,35.7,1449.0,9326.0,3.0,1,
67011,1848.9,148.7,152.5,37.8,1628.0,10699.0,4.0,1,
67111,1831.7,284.0,139.4,41.6,1659.0,10954.0,4.0,1,
67211,1890.5,201.3,141.0,40.7,1685.0,10912.0,4.0,1,
67311,1869.4,158.1,138.6,41.9,1646.0,10756.0,4.0,1,
67411,1853.4,19.9,126.8,37.7,1660.0,10777.0,4.0,1,
67611,1861.2,8.1,126.8,41.4,1660.0,10777.0,4.0,1,
67711,1862.0,8.0,126.8,39.7,1660.0,10777.0,4.0,1,
67811,1861.4,8.4,126.8,47.0,1660.0,10777.0,4.0,1,
67911,1863.0,9.1,126.8,145.2,1660.0,10777.0,4.0,1,
68011,1862.4,8.5,126.8,99.7,1660.0,10777.0,4.0,1,
68111,1861.5,8.7,126.8,82.8,1660.0,10777.0,4.0,1,
68211,1861.3,8.5,126.8,88.9,1660.0,10777.0,4.0,1,
68311,1861.4,9.4,126.8,103.9,1660.0,10777.0,4.0,1,
68411,1881.3,115.9,127.6,37.9,1044.0,6568.0,5.0,1,
68611,1859.4,155.4,127.3,65.7,1528.0,9790.0,3.0,1,
68711,1886.5,161.5,127.7,67.1,1718.0,11057.0,4.0,1,
68811,1875.6,165.3,116.7,67.1,1681.0,10691.0,4.0,1,
68911,1847.9,181.1,124.5,67.2,1664.0,10794.0,4.0,1,
69011,1864.9,29.4,122.9,67.3,1675.0,10802.0,4.0,1,
69111,1859.1,9.8,122.9,65.9,1675.0,10802.0,4.0,1,
69211,1861.6,8.5,122.9,44.6,1675.0,10802.0,4.0,1,
69311,1862.0,8.2,122.9,42.2,1675.0,10802.0,4.0,1,
69411,1862.4,8.3,122.9,46.0,1675.0,10802.0,4.0,1,
69611,1863.0,7.6,122.9,143.1,1675.0,10802.0,4.0,1,
69711,1861.8,8.9,122.9,143.7,1675.0,10802.0,4.0,1,
69811,1861.3,9.6,122.9,146.4,1675.0,10802.0,4.0,1,
69911,1860.9,7.4,122.9,139.1,1675.0,10802.0,4.0,1,
70011,1849.1,53.2,120.1,68.1,748.0,4540.0,3.0,1,
70111,1871.5,169.5,118.5,55.3,1274.0,8089.0,5.0,1,
70211,1884.9,147.1,120.7,67.2,1355.0,9635.0,4.0,1,
70311,1846.7,218.6,123.2,80.1,1507.0,10085.0,4.0,1,
70411,1842.9,158.8,131.3,66.2,1621.0,10584.0,4.0,1,
70611,1895.0,44.4,139.4,35.0,1624.0,10675.0,4.0,1,
70711,1859.1,10.2,139.4,37.8,1624.0,10675.0,4.0,1,
70811,1861.2,8.2,139.4,39.2,1624.0,10675.0,4.0,1,
70911,1862.1,8.9,139.4,38.8,1624.0,10675.0,4.0,1,
71011,1863.3,8.8,139.4,42.0,1624.0,10675.0,4.0,1,
71111,1863.1,7.6,139.4,133.1,1624.0,10675.0,4.0,1,
71211,1861.8,8.7,139.4,141.8,1624.0,10675.0,4.0,1,
71311,1861.3,8.2,139.4,166.1,1624.0,10675.0,4.0,1,
71411,1861.3,8.0,139.4,168.8,1624.0,10675.0,4.0,1,
71611,1872.3,67.6,140.6,48.5,833.0,5468.0,4.0,1,
71711,1838.5,104.1,141.4,44.1,1217.0,7664.0,4.0,1,
71811,1864.3,155.0,143.8,54.4,1377.0,9236.0,4.0,1,
71911,1852.8,154.8,141.4,43.1,1418.0,9412.0,4.0,1,
72011,1890.6,176.8,134.3,36.5,1656.0,10565.0,3.0,1,
72111,1873.9,152.9,126.3,42.7,1639.0,10741.0,4.0,1,
72211,1832.7,67.8,119.3,68.1,1661.0,10648.0,4.0,1,
72311,1860.8,10.1,119.3,67.0,1661.0,10648.0,4.0,1,
72411,1860.7,8.9,119.3,47.7,1661.0,10648.0,4.0,1,
72611,1863.0,7.9,119.3,38.3,1661.0,10648.0,4.0,1,
72711,1863.6,9.0,119.3,139.4,1661.0,10648.0,4.0,1,
72811,1861.6,9.0,119.3,154.2,1661.0,10648.0,4.0,1,
72911,1861.3,7.4,119.3,152.2,1661.0,10648.0,4.0,1,
73011,1861.4,8.8,119.3,146.9,1661.0,10648.0,4.0,1,
73111,1861.8,8.3,119.3,200.0,1661.0,10648.0,4.0,1,
73211,1868.5,38.8,118.8,98.6,765.0,4356.0,3.0,1,
73311,1865.5,88.2,120.6,67.7,1105.0,6704.0,4.0,1,
73411,1853.1,168.9,119.5,66.6,1260.0,8160.0,4.0,1,
73611,1820.8,219.8,121.7,34.3,1678.0,10977.0,4.0,1,
73711,1866.3,164.8,131.6,29.2,1660.0,11029.0,5.0,1,
73811,1855.4,120.3,132.7,35.2,1649.0,10919.0,4.0,1,
73911,1876.8,14.4,132.7,36.7,1649.0,10919.0,4.0,1,
74011,1861.0,8.4,132.7,36.0,1649.0,10919.0,4.0,1,
74111,1861.6,7.7,132.7,36.9,1649.0,10919.0,4.0,1,
74211,1863.0,9.4,132.7,37.9,1649.0,10919.0,4.0,1,
74311,1863.6,8.2,132.7,85.3,1649.0,10919.0,4.0,1,
74411,1862.3,8.2,132.7,134.2,1649.0,10919.0,4.0,1,
74611,1861.2,8.3,132.7,201.9,1649.0,10919.0,4.0,1,
74711,1861.5,7.3,132.7,184.1,1649.0,10919.0,4.0,1,
74811,1847.0,27.7,132.6,165.8,1649.0,10919.0,4.0,1,
74911,1902.5,88.2,131.1,67.8,1102.0,7243.0,5.0,1,
75011,1839.2,110.1,140.0,47.9,1463.0,9137.0,4.0,1,
75111,1840.7,140.8,131.5,35.9,1655.0,10502.0,3.0,1,
75211,1878.3,211.2,141.1,38.7,1655.0,10858.0,4.0,1,
75311,1873.3,267.5,134.1,30.2,1720.0,11236.0,4.0,1,
75411,1893.9,181.2,143.0,29.9,1652.0,10850.0,4.0,1,
75611,1859.7,8.8,142.7,40.9,1652.0,10850.0,4.0,1,
75711,1861.3,9.2,142.7,38.8,1652.0,10850.0,4.0,1,
75811,1861.7,8.7,142.7,38.0,1652.0,10850.0,4.0,1,
75911,1862.4,8.1,142.7,52.3,1652.0,10850.0,4.0,1,
76011,1864.2,8.9,142.7,123.4,1652.0,10850.0,4.0,1,
76111,1862.5,8.3,142.7,110.8,1652.0,10850.0,4.0,1,
76211,1861.7,7.9,142.7,131.6,1652.0,10850.0,4.0,1,
76311,1861.5,9.3,142.7,143.1,1652.0,10850.0,4.0,1,
76411,1861.5,8.2,142.7,151.9,1652.0,10850.0,4.0,1,
76611,1875.9,200.6,136.1,66.4,1234.0,8135.0,5.0,1,
76711,1853.5,141.5,138.4,65.8,1354.0,9135.0,4.0,1,
76811,1902.2,162.4,129.1,66.4,1557.0,10313.0,4.0,1,
76911,1832.5,143.5,138.8,78.0,1638.0,10513.0,4.0,1,
77011,1838.0,129.6,123.3,37.9,1693.0,10928.0,4.0,1,
77111,1893.0,22.6,122.8,35.5,1709.0,11054.0,4.0,1,
77211,1859.1,10.1,122.8,65.6,1709.0,11054.0,4.0,1,
77311,1861.9,8.5,122.8,37.6,1709.0,11054.0,4.0,1,
77411,1861.2,7.7,122.8,36.4,1709.0,11054.0,4.0,1,
77611,1862.7,8.5,122.8,133.4,1709.0,11054.0,4.0,1,
77711,1861.8,8.3,122.8,131.9,1709.0,11054.0,4.0,1,
77811,1861.2,9.0,122.8,133.1,1709.0,11054.0,4.0,1,
77911,1861.4,8.5,122.8,140.3,1709.0,11054.0,4.0,1,
78011,1860.9,8.2,122.8,169.5,1709.0,11054.0,4.0,1,
78111,1862.9,91.9,126.3,39.9,945.0,5611.0,4.0,1,
78211,1883.1,109.0,124.2,37.3,1425.0,9273.0,4.0,1,
78311,1850.0,188.3,132.8,38.5,1585.0,9901.0,4.0,1,
78411,1834.8,127.1,131.5,37.3,1643.0,10632.0,4.0,1,
78611,1882.8,155.0,124.8,36.5,1713.0,11021.0,4.0,1,
78711,1849.8,37.7,124.3,44.7,1716.0,10993.0,4.0,1,
78811,1859.2,10.3,124.3,40.3,1716.0,10993.0,4.0,1,
78911,1861.2,8.1,124.3,39.7,1716.0,10993.0,4.0,1,
79011,1862.8,9.5,124.3,38.6,1716.0,10993.0,4.0,1,
79111,1862.7,8.7,124.3,40.0,1716.0,10993.0,4.0,1,
79211,1862.5,8.2,124.3,145.6,1716.0,10993.0,4.0,1,
79311,1862.3,9.0,124.3,122.8,1716.0,10993.0,4.0,1,
79411,1861.5,8.5,124.3,145.5,1716.0,10993.0,4.0,1,
79611,1861.5,9.2,124.3,134.1,1716.0,10993.0,4.0,1,
79711,1869.3,91.2,123.2,74.0,848.0,5344.0,3.0,1,
79811,1851.8,87.0,123.8,42.7,1303.0,8585.0,4.0,1,
79911,1850.2,305.2,118.6,30.0,1381.0,9551.0,4.0,1,
80011,1883.8,177.1,130.4,36.5,1455.0,9614.0,4.0,1,
80111,1876.8,148.9,127.7,36.9,1692.0,10922.0,4.0,1,
80211,1847.8,177.0,136.7,29.3,1698.0,11012.0,4.0,1,
80311,1862.3,58.5,135.6,30.2,1696.0,10987.0,4.0,1,
80411,1860.2,10.1,135.6,37.0,1696.0,10987.0,4.0,1,
80611,1861.7,8.8,135.6,39.2,1696.0,10987.0,4.0,1,
80711,1862.0,8.1,135.6,39.3,1696.0,10987.0,4.0,1,
80811,1863.2,9.2,135.6,152.1,1696.0,10987.0,4.0,1,
80911,1862.4,8.3,135.6,144.2,1696.0,10987.0,4.0,1,
81011,1861.4,7.7,135.6,155.0,1696.0,10987.0,4.0,1,
81111,1861.5,9.2,135.6,123.8,1696.0,10987.0,4.0,1,
81211,1860.5,9.1,135.6,141.5,1696.0,10987.0,4.0,1,
81311,1856.0,42.7,135.7,103.0,772.0,4890.0,4.0,1,
81411,1863.1,102.8,133.3,55.9,1023.0,6121.0,3.0,1,
81611,1826.4,138.4,123.2,38.1,1588.0,10354.0,4.0,1,
81711,1862.4,146.5,123.9,40.7,1690.0,10947.0,4.0,1,
81811,1852.5,172.4,116.2,66.8,1649.0,10641.0,4.0,1,
81911,1886.4,98.7,117.7,67.4,1634.0,10642.0,4.0,1,
82011,1868.7,13.2,117.6,66.9,1634.0,10642.0,4.0,1,
82111,1860.7,8.4,117.6,41.1,1634.0,10642.0,4.0,1,
82211,1861.7,8.2,117.6,38.1,1634.0,10642.0,4.0,1,
82311,1863.2,9.1,117.6,39.1,1634.0,10642.0,4.0,1,
82411,1863.3,8.2,117.6,117.3,1634.0,10642.0,4.0,1,
82611,1861.3,9.3,117.6,135.2,1634.0,10642.0,4.0,1,
82711,1860.7,8.2,117.6,142.9,1634.0,10642.0,4.0,1,
82811,1860.8,8.1,117.6,167.4,1634.0,10642.0,4.0,1,
82911,1881.5,180.7,127.2,43.4,748.0,4507.0,3.0,1,
83011,1845.3,72.0,131.8,36.0,994.0,6253.0,4.0,1,
83111,1847.2,145.6,130.3,36.2,1360.0,8902.0,3.0,1,
83211,1869.1,169.0,131.5,37.7,1512.0,9737.0,4.0,1,
83311,1873.5,125.0,130.2,66.3,1710.0,10776.0,4.0,1,
83411,1889.8,162.3,133.5,75.9,1602.0,10117.0,4.0,1,
83611,1867.7,22.0,130.5,54.7,1602.0,10117.0,4.0,1,
83711,1860.5,9.0,130.6,49.2,1602.0,10117.0,4.0,1,
83811,1862.0,9.0,130.5,41.8,1602.0,10117.0,4.0,1,
83911,1862.0,8.2,130.6,42.3,1602.0,10117.0,4.0,1,
84011,1862.8,8.1,130.6,68.6,1602.0,10117.0,4.0,1,
84111,1863.8,8.8,130.5,130.3,1602.0,10117.0,4.0,1,
84211,1862.3,8.1,130.5,132.3,1602.0,10117.0,4.0,1,
84311,1861.3,7.8,130.5,135.8,1602.0,10117.0,4.0,1,
84411,1861.5,8.9,130.5,145.1,1602.0,10117.0,4.0,1,
84611,1866.2,308.6,131.6,44.5,918.0,5770.0,3.0,1,
84711,1858.2,112.4,139.3,29.0,1311.0,8027.0,4.0,1,
84811,1897.2,239.9,141.0,29.4,1541.0,9899.0,3.0,1,
84911,1841.8,179.1,150.8,34.6,1708.0,10970.0,4.0,1,
85011,1836.5,286.6,145.9,37.2,1681.0,10594.0,4.0,1,
85111,1883.3,215.6,162.9,35.9,1586.0,10259.0,3.0,1,
85211,1873.8,22.9,162.8,35.5,1573.0,10208.0,4.0,1,
85311,1859.4,9.4,162.7,28.9,1573.0,10208.0,4.0,1,
85411,1861.8,7.6,162.7,30.0,1573.0,10208.0,4.0,1,
85611,1863.7,8.6,162.7,43.9,1573.0,10208.0,4.0,1,
85711,1862.8,8.3,162.7,157.4,1573.0,10208.0,4.0,1,
85811,1861.7,7.5,162.7,169.9,1573.0,10208.0,4.0,1,
85911,1861.5,8.6,162.7,123.7,1573.0,10208.0,4.0,1,
86011,1861.4,7.5,162.7,144.0,1573.0,10208.0,4.0,1,
86111,1860.9,8.5,162.7,166.9,1573.0,10208.0,4.0,1,
86211,1865.2,51.5,153.7,87.5,961.0,6221.0,4.0,1,
86311,1856.0,161.3,147.5,66.8,1342.0,8534.0,4.0,1,
86411,1842.2,123.5,150.4,43.5,1482.0,9521.0,4.0,1,
86611,1894.7,183.6,145.1,37.8,1686.0,10880.0,4.0,1,
86711,1867.9,282.1,142.3,37.8,1646.0,10535.0,3.0,1,
86811,1852.5,42.1,143.7,34.2,1619.0,10668.0,4.0,1,
86911,1859.9,10.1,143.7,35.4,1619.0,10668.0,4.0,1,
87011,1861.9,8.6,143.7,34.4,1619.0,10668.0,4.0,1,
87111,1862.6,8.6,143.7,28.1,1619.0,10668.0,4.0,1,
87211,1863.0,8.1,143.7,27.2,1619.0,10668.0,4.0,1,
87311,1862.3,8.2,143.7,130.2,1619.0,10668.0,4.0,1,
87411,1861.9,8.8,143.7,139.9,1619.0,10668.0,4.0,1,
87611,1862.0,8.5,143.7,123.1,1619.0,10668.0,4.0,1,
87711,1861.9,8.6,143.7,116.8,1619.0,10668.0,4.0,1,
87811,1869.6,125.3,151.4,35.3,935.0,5890.0,3.0,1,
87911,1849.4,127.9,148.7,34.8,1288.0,8463.0,4.0,1,
88011,1883.8,340.6,162.0,35.5,1422.0,9368.0,3.0,1,
88111,1877.3,155.9,167.9,36.2,1523.0,9990.0,4.0,1,
88211,1837.3,207.3,167.4,29.8,1641.0,10428.0,3.0,1,
88311,1855.1,129.4,166.3,35.6,1636.0,10738.0,4.0,1,
88411,1871.8,47.3,152.0,39.7,1646.0,10760.0,4.0,1,
88611,1861.5,8.3,151.9,40.2,1646.0,10760.0,4.0,1,
88711,1862.2,7.8,151.9,35.9,1646.0,10760.0,4.0,1,
88811,1862.7,8.3,151.9,36.2,1646.0,10760.0,4.0,1,
88911,1863.2,8.6,151.9,152.9,1646.0,10760.0,4.0,1,
89011,1862.1,7.7,151.9,150.2,1646.0,10760.0,4.0,1,
89111,1861.5,8.1,151.9,135.2,1646.0,10760.0,4.0,1,
89211,1862.3,8.5,151.9,135.8,1646.0,10760.0,4.0,1,
89311,1861.9,7.9,151.9,169.4,1646.0,10760.0,4.0,1,
89411,1847.0,47.5,150.9,134.3,829.0,5213.0,4.0,1,
89611,1827.7,129.5,152.5,30.3,1471.0,9401.0,4.0,1,
89711,1863.8,233.4,140.1,35.0,1435.0,9403.0,4.0,1,
89811,1862.5,183.3,145.3,37.7,1725.0,11312.0,4.0,1,
89911,1892.9,358.5,157.0,38.4,1652.0,10295.0,3.0,1,
90011,1854.4,90.3,163.9,36.3,1659.0,10694.0,4.0,1,
90111,1864.2,14.6,163.8,41.0,1659.0,10694.0,4.0,1,
90211,1860.7,10.8,163.8,40.4,1659.0,10694.0,4.0,1,
90311,1861.7,10.5,163.9,38.8,1659.0,10694.0,4.0,1,
90411,1862.4,11.0,163.9,38.2,1659.0,10694.0,4.0,1,
90611,1862.0,9.4,163.9,157.4,1659.0,10694.0,4.0,1,
90711,1861.8,9.6,163.9,154.1,1659.0,10694.0,4.0,1,
90811,1861.3,9.0,163.9,198.3,1659.0,10694.0,4.0,1,
90911,1861.5,22.4,163.9,165.5,1659.0,10694.0,4.0,1,
91011,1862.2,30.3,164.2,74.0,848.0,5157.0,4.0,1,
91111,1833.3,202.7,146.2,50.9,1409.0,9006.0,4.0,1,
91211,1881.9,248.9,166.4,45.7,1552.0,10020.0,4.0,1,
91311,1867.6,177.1,168.2,36.6,1717.0,11163.0,4.0,1,
91411,1896.5,194.7,168.4,30.0,1758.0,11173.0,4.0,1,
91611,1847.4,144.2,152.0,68.0,1654.0,10513.0,3.0,1,
91711,1879.9,15.4,152.0,66.3,1654.0,10513.0,3.0,1,
91811,1859.9,8.8,152.0,54.9,1654.0,10513.0,3.0,1,
91911,1862.1,9.2,152.0,40.2,1654.0,10513.0,3.0,1,
92011,1862.3,8.1,152.0,37.2,1654.0,10513.0,3.0,1,
92111,1863.4,8.8,152.0,43.3,1654.0,10513.0,3.0,1,
92211,1863.0,9.1,151.9,123.8,1654.0,10513.0,3.0,1,
92311,1861.6,8.7,151.9,156.4,1654.0,10513.0,3.0,1,
92411,1860.8,9.4,151.9,151.5,1654.0,10513.0,3.0,1,
92611,1862.3,195.7,151.8,93.2,1654.0,10513.0,3.0,1,
92711,1873.4,119.8,167.0,35.4,963.0,5585.0,3.0,1,
92811,1877.9,130.7,150.8,35.3,1487.0,9914.0,4.0,1,
92911,1850.2,191.9,151.5,35.6,1617.0,10622.0,4.0,1,
93011,1839.0,144.0,146.5,38.8,1816.0,11650.0,4.0,1,
93111,1884.5,397.9,154.4,66.6,1751.0,11268.0,3.0,1,
93211,1882.7,176.4,161.9,45.1,1683.0,10875.0,4.0,1,
93311,1845.3,21.1,161.0,30.0,1706.0,10928.0,4.0,1,
93411,1860.0,9.5,161.0,35.2,1706.0,10928.0,4.0,1,
93611,1861.9,9.2,161.0,37.7,1706.0,10928.0,4.0,1,
93711,1862.4,9.2,161.0,43.4,1706.0,10928.0,4.0,1,
93811,1864.4,12.0,161.0,101.6,1706.0,10928.0,4.0,1,
93911,1861.6,11.4,161.0,111.5,1706.0,10928.0,4.0,1,
94011,1862.0,10.2,161.0,99.8,1706.0,10928.0,4.0,1,
94111,1861.0,9.5,161.0,85.8,1706.0,10928.0,4.0,1,
94211,1861.0,11.8,161.0,67.7,1706.0,10928.0,4.0,1,
94311,1855.1,92.5,147.0,68.1,1088.0,6509.0,3.0,1,
94411,1857.8,139.2,152.3,41.8,1562.0,9686.0,4.0,1,
94611,1907.8,196.8,154.3,35.0,1756.0,11061.0,4.0,1,
94711,1858.6,183.2,145.3,55.4,1818.0,11560.0,4.0,1,
94811,1850.4,205.4,145.0,35.5,1744.0,11190.0,4.0,1,
94911,1872.6,33.7,144.4,39.2,1782.0,11249.0,4.0,1,
95011,1859.1,10.8,144.4,39.6,1782.0,11249.0,4.0,1,
95111,1861.9,11.1,144.4,37.5,1782.0,11249.0,4.0,1,
95211,1862.5,10.6,144.4,37.0,1782.0,11249.0,4.0,1,
95311,1862.8,11.9,144.4,38.1,1782.0,11249.0,4.0,1,
95411,1863.0,11.9,144.4,123.8,1782.0,11249.0,4.0,1,
95611,1862.3,10.4,144.4,79.2,1782.0,11249.0,4.0,1,
95711,1862.7,11.4,144.4,90.7,1782.0,11249.0,4.0,1,
95811,1861.3,13.2,144.4,99.4,1782.0,11249.0,4.0,1,
95911,1852.1,66.2,144.2,83.5,976.0,5902.0,4.0,1,
96011,1873.7,136.8,138.0,67.2,1354.0,8235.0,3.0,1,
96111,1885.7,135.6,137.0,66.1,1648.0,10470.0,4.0,1,
96211,1824.8,239.8,142.3,53.3,1683.0,10817.0,3.0,1,
96311,1866.8,162.5,143.0,46.4,1756.0,11353.0,4.0,1,
96411,1840.9,199.9,131.1,40.7,1756.0,11431.0,4.0,1,
96611,1858.9,12.8,134.5,35.7,1756.0,11431.0,4.0,1,
96711,1861.0,10.5,134.5,35.3,1756.0,11431.0,4.0,1,
96811,1862.3,10.6,134.5,35.4,1756.0,11431.0,4.0,1,
96911,1863.2,11.5,134.5,37.2,1756.0,11431.0,4.0,1,
97011,1864.8,10.5,134.5,185.1,1756.0,11431.0,4.0,1,
97111,1861.6,10.4,134.5,156.3,1756.0,11431.0,4.0,1,
97211,1861.3,11.2,134.5,145.6,1756.0,11431.0,4.0,1,
97311,1861.7,10.1,134.5,153.2,1756.0,11431.0,4.0,1,
97411,1861.1,10.5,134.5,176.7,1756.0,11431.0,4.0,1,
97611,1841.2,87.9,136.4,68.0,1268.0,7790.0,4.0,1,
97711,1849.2,134.9,138.1,67.3,1450.0,9458.0,3.0,1,
97811,1873.6,196.0,141.4,66.1,1700.0,10905.0,4.0,1,
97911,1881.6,233.6,131.4,35.1,1724.0,11071.0,4.0,1,
98011,1881.9,209.3,150.6,41.1,1681.0,10992.0,4.0,1,
98111,1834.2,71.7,145.6,37.3,1618.0,10782.0,4.0,1,
98211,1861.1,13.6,145.6,34.4,1618.0,10782.0,4.0,1,
98311,1860.6,10.4,145.6,35.7,1618.0,10782.0,4.0,1,
98411,1861.9,12.1,145.6,36.0,1618.0,10782.0,4.0,1,
98611,1864.4,13.8,145.6,102.1,1618.0,10782.0,4.0,1,
98711,1861.5,11.4,145.6,100.7,1618.0,10782.0,4.0,1,
98811,1862.4,11.0,145.6,89.2,1618.0,10782.0,4.0,1,
98911,1861.6,10.4,145.6,70.4,1618.0,10782.0,4.0,1,
99011,1861.4,12.8,145.6,99.2,1618.0,10782.0,4.0,1,
99111,1857.3,28.4,145.0,57.1,814.0,4813.0,4.0,1,
99211,1860.7,287.0,150.3,52.9,1211.0,7186.0,3.0,1,
99311,1869.7,131.6,154.8,30.2,1398.0,8493.0,4.0,1,
99411,1884.5,266.1,158.9,35.0,1677.0,10658.0,3.0,1,
99611,1841.2,154.3,143.1,40.9,1773.0,11592.0,4.0,1,
99711,1890.6,154.8,148.7,66.4,1734.0,11285.0,4.0,1,
99811,1875.7,18.2,148.6,67.1,1734.0,11285.0,4.0,1,
99911,1860.1,12.0,148.6,37.8,1734.0,11285.0,4.0,1,
100011,1861.9,12.4,148.6,35.7,1734.0,11285.0,4.0,1,
100111,1862.3,11.7,148.6,36.5,1734.0,11285.0,4.0,1,
100211,1862.9,14.9,148.7,76.0,1734.0,11285.0,4.0,1,
100311,1862.9,13.1,148.6,78.2,1734.0,11285.0,4.0,1,
100411,1861.5,10.9,148.7,72.6,1734.0,11285.0,4.0,1,
100611,1862.6,14.6,148.7,100.3,1734.0,11285.0,4.0,1,
100711,1859.5,47.2,148.7,79.7,1734.0,11285.0,4.0,1,
100811,1871.8,74.7,145.4,65.5,1323.0,8011.0,4.0,1,
100911,1853.4,175.6,139.8,66.6,1414.0,9111.0,4.0,1,
101011,1844.5,135.9,141.0,65.8,1629.0,10360.0,4.0,1,
101111,1866.5,370.5,129.0,30.1,1713.0,10819.0,3.0,1,
101211,1903.3,188.0,142.4,37.2,1747.0,11233.0,4.0,1,
101311,1855.0,284.1,151.1,43.6,1714.0,10969.0,3.0,1,
101411,1843.6,27.3,151.3,41.2,1714.0,10969.0,3.0,1,
101611,1861.6,11.8,151.4,36.8,1714.0,10969.0,3.0,1,
101711,1862.5,12.0,151.3,34.9,1714.0,10969.0,3.0,1,
101811,1863.5,12.6,151.4,27.4,1714.0,10969.0,3.0,1,
101911,1863.2,12.1,151.3,104.2,1714.0,10969.0,3.0,1,
102011,1862.0,12.4,151.3,137.0,1714.0,10969.0,3.0,1,
102111,1860.9,11.3,151.3,157.7,1714.0,10969.0,3.0,1,
102211,1861.5,14.2,151.3,177.2,1714.0,10969.0,3.0,1,
102311,1860.4,45.6,151.3,132.0,1714.0,10969.0,3.0,1,
102411,1877.0,169.3,170.2,29.8,1026.0,6084.0,4.0,1,
102611,1894.5,301.5,180.0,34.6,1418.0,8990.0,4.0,1,
102711,1866.5,151.8,183.3,34.8,1682.0,11093.0,4.0,1,
102811,1834.0,196.0,176.2,28.8,1696.0,10961.0,3.0,1,
102911,1862.5,143.8,176.8,28.9,1729.0,11102.0,4.0,1,
103011,1878.6,27.3,163.4,48.2,1730.0,11309.0,4.0,1,
103111,1859.5,12.5,163.4,49.4,1730.0,11309.0,4.0,1,
103211,1861.7,12.5,163.4,38.5,1730.0,11309.0,4.0,1,
103311,1862.0,11.8,163.4,37.7,1730.0,11309.0,4.0,1,
103411,1862.5,11.5,163.4,39.4,1730.0,11309.0,4.0,1,
103611,1862.4,11.6,163.4,145.3,1730.0,11309.0,4.0,1,
103711,1861.1,11.9,163.4,146.9,1730.0,11309.0,4.0,1,
103811,1861.0,11.9,163.4,154.5,1730.0,11309.0,4.0,1,
103911,1861.6,11.8,163.4,142.1,1730.0,11309.0,4.0,1,
104011,1849.1,96.9,151.9,44.5,983.0,6503.0,4.0,1,
104111,1899.7,182.6,166.1,34.4,1296.0,8433.0,4.0,1,
104211,1824.8,140.3,156.4,30.0,1365.0,9246.0,4.0,1,
104311,1864.5,215.3,145.2,34.7,1424.0,9701.0,5.0,1,
104411,1844.4,170.8,146.5,37.9,1498.0,10029.0,4.0,1,
104611,1849.1,51.4,149.2,67.2,1684.0,10900.0,4.0,1,
104711,1859.8,13.6,149.2,37.7,1684.0,10900.0,4.0,1,
104811,1861.5,11.5,149.2,34.6,1684.0,10900.0,4.0,1,
104911,1862.3,11.7,149.2,35.3,1684.0,10900.0,4.0,1,
105011,1862.2,12.2,149.2,37.2,1684.0,10900.0,4.0,1,
105111,1862.5,11.9,149.2,154.8,1684.0,10900.0,4.0,1,
105211,1861.6,11.5,149.2,142.3,1684.0,10900.0,4.0,1,
105311,1861.5,12.1,149.2,157.9,1684.0,10900.0,4.0,1,
105411,1862.1,12.3,149.2,208.6,1684.0,10900.0,4.0,1,
105611,1859.6,81.0,150.0,72.9,1004.0,6776.0,4.0,1,
105711,1837.0,310.6,128.6,54.4,1415.0,9110.0,4.0,1,
105811,1878.2,201.2,149.3,40.8,1427.0,9257.0,4.0,1,
105911,1873.9,164.3,149.3,36.0,1596.0,10367.0,4.0,1,
106011,1887.9,292.3,168.0,28.9,1736.0,10956.0,4.0,1,
106111,1828.8,145.2,172.6,28.3,1619.0,10476.0,4.0,1,
106211,1865.6,56.7,163.0,28.0,1705.0,10827.0,4.0,1,
106311,1859.2,13.9,163.0,29.9,1705.0,10827.0,4.0,1,
106411,1860.3,11.9,163.0,36.0,1705.0,10827.0,4.0,1,
106611,1862.0,12.5,163.0,36.8,1705.0,10827.0,4.0,1,
106711,1862.5,12.5,163.0,145.3,1705.0,10827.0,4.0,1,
106811,1861.8,12.4,163.0,144.7,1705.0,10827.0,4.0,1,
106911,1861.1,12.2,163.0,142.4,1705.0,10827.0,4.0,1,
107011,1860.8,11.1,163.0,167.3,1705.0,10827.0,4.0,1,
107111,1860.4,13.5,163.0,152.0,1705.0,10827.0,4.0,1,
107211,1859.2,269.4,169.7,39.3,1154.0,7104.0,3.0,1,
107311,1889.2,151.6,176.6,28.5,1401.0,9125.0,4.0,1,
107411,1863.6,155.2,161.4,29.8,1624.0,10589.0,4.0,1,
107611,1842.8,127.4,157.0,67.1,1801.0,11450.0,4.0,1,
107711,1868.2,290.5,143.4,66.8,1718.0,11198.0,4.0,1,
107811,1883.5,98.7,149.8,66.5,1727.0,10969.0,4.0,1,
107911,1868.2,16.1,149.7,36.8,1727.0,10969.0,4.0,1,
108011,1860.4,12.8,149.7,35.3,1727.0,10969.0,4.0,1,
108111,1861.9,11.6,149.7,36.2,1727.0,10969.0,4.0,1,
108211,1861.6,11.6,149.7,38.4,1727.0,10969.0,4.0,1,
108311,1862.6,12.7,149.7,116.4,1727.0,10969.0,4.0,1,
108411,1861.6,12.3,149.7,144.7,1727.0,10969.0,4.0,1,
108611,1861.6,12.8,149.7,156.2,1727.0,10969.0,4.0,1,
108711,1861.8,11.6,149.7,157.1,1727.0,10969.0,4.0,1,
108811,1875.2,40.1,145.1,216.6,981.0,6125.0,4.0,1,
108911,1832.7,213.4,148.3,42.9,1205.0,7685.0,3.0,1,
109011,1861.8,135.7,152.8,37.5,1469.0,9477.0,4.0,1,
109111,1842.4,348.2,145.8,28.8,1590.0,10654.0,4.0,1,
109211,1919.6,185.2,155.9,29.1,1642.0,10828.0,4.0,1,
109311,1848.7,121.7,155.6,35.6,1676.0,10805.0,4.0,1,
109411,1853.0,143.5,150.5,30.0,1571.0,10491.0,4.0,1,
109611,1860.2,11.8,149.6,38.4,1571.0,10491.0,4.0,1,
109711,1861.4,11.5,149.6,36.1,1571.0,10491.0,4.0,1,
109811,1862.5,12.9,149.6,36.6,1571.0,10491.0,4.0,1,
109911,1863.6,12.2,149.6,48.5,1571.0,10491.0,4.0,1,
110011,1862.3,11.5,149.6,135.2,1571.0,10491.0,4.0,1,
110111,1860.8,12.4,149.6,143.1,1571.0,10491.0,4.0,1,
110211,1861.7,11.7,149.6,170.9,1571.0,10491.0,4.0,1,
110311,1861.7,11.8,149.6,169.2,1571.0,10491.0,4.0,1,
110411,1861.1,209.2,149.6,154.9,1571.0,10491.0,4.0,1,
110611,1871.2,187.6,142.7,37.8,1308.0,8380.0,4.0,1,
110711,1888.6,163.7,151.6,39.6,1546.0,10318.0,4.0,1,
110811,1820.4,172.4,138.4,42.0,1563.0,10521.0,4.0,1,
110911,1871.8,221.3,156.8,42.0,1664.0,10890.0,4.0,1,
111011,1834.3,168.4,155.8,37.8,1669.0,10884.0,4.0,1,
111111,1896.6,22.3,155.8,30.0,1605.0,10545.0,4.0,1,
111211,1859.1,12.4,155.8,35.6,1605.0,10545.0,4.0,1,
111311,1862.4,11.9,155.8,36.1,1605.0,10545.0,4.0,1,
111411,1862.0,12.1,155.8,36.0,1605.0,10545.0,4.0,1,
111611,1863.2,12.9,155.8,143.3,1605.0,10545.0,4.0,1,
111711,1862.3,12.0,155.8,157.4,1605.0,10545.0,4.0,1,
111811,1860.8,12.3,155.8,178.3,1605.0,10545.0,4.0,1,
111911,1860.7,10.8,155.8,132.9,1605.0,10545.0,4.0,1,
112011,1860.1,22.9,156.0,75.2,1605.0,10545.0,4.0,1,
112111,1895.0,141.2,148.0,53.2,1425.0,9069.0,5.0,1,
112211,1834.4,157.2,162.0,40.0,1536.0,9949.0,4.0,1,
112311,1845.0,259.0,163.4,30.1,1698.0,10602.0,3.0,1,
112411,1862.2,188.6,166.1,35.2,1732.0,11119.0,4.0,1,
112611,1877.0,228.5,155.7,40.2,1714.0,11110.0,3.0,1,
112711,1846.2,36.7,156.1,65.8,1690.0,11070.0,4.0,1,
112811,1859.1,14.1,156.1,38.5,1690.0,11070.0,4.0,1,
112911,1861.8,11.5,156.1,36.2,1690.0,11070.0,4.0,1,
113011,1861.3,11.7,156.1,37.0,1690.0,11070.0,4.0,1,
113111,1862.1,12.8,156.1,40.0,1690.0,11070.0,4.0,1,
113211,1862.7,11.7,156.1,149.1,1690.0,11070.0,4.0,1,
113311,1863.6,12.8,156.1,143.0,1690.0,11070.0,4.0,1,
113411,1861.3,13.0,156.1,152.3,1690.0,11070.0,4.0,1,
113611,1861.4,12.0,156.0,133.0,1690.0,11070.0,4.0,1,
113711,1850.0,51.1,153.0,67.1,1023.0,6162.0,4.0,1,
113811,1865.9,124.8,140.3,56.9,1420.0,8781.0,3.0,1,
113911,1884.2,161.0,141.6,66.4,1498.0,9758.0,4.0,1,
114011,1861.1,237.3,138.2,42.2,1684.0,10603.0,3.0,1,
114111,1850.7,178.3,151.8,35.4,1617.0,10519.0,4.0,1,
114211,1842.0,111.4,149.3,28.0,1646.0,10768.0,4.0,1,
114311,1887.9,51.5,141.2,28.3,1631.0,10329.0,3.0,1,
114411,1859.3,13.5,141.2,34.3,1631.0,10329.0,3.0,1,
114611,1862.0,13.1,141.2,35.4,1631.0,10329.0,3.0,1,
114711,1862.4,11.5,141.2,36.2,1631.0,10329.0,3.0,1,
114811,1863.5,12.3,141.2,168.8,1631.0,10329.0,3.0,1,
114911,1861.9,12.4,141.2,114.5,1631.0,10329.0,3.0,1,
115011,1860.7,11.4,141.2,109.0,1631.0,10329.0,3.0,1,
115111,1860.5,12.6,141.2,112.7,1631.0,10329.0,3.0,1,
115211,1860.9,12.8,141.2,141.1,1631.0,10329.0,3.0,1,
115311,1878.6,222.8,150.7,39.9,940.0,6122.0,3.0,1,
115411,1874.9,120.5,154.4,35.4,1493.0,9723.0,4.0,1,
115611,1858.0,114.4,151.5,37.2,1618.0,10265.0,4.0,1,
115711,1843.4,175.3,128.2,66.1,1725.0,10968.0,4.0,1,
115811,1933.5,192.0,138.6,66.4,1622.0,10618.0,3.0,1,
115911,1828.7,73.9,137.5,66.8,1691.0,10905.0,4.0,1,
116011,1863.0,15.4,137.4,35.1,1691.0,10905.0,4.0,1,
116111,1861.0,11.9,137.4,35.5,1691.0,10905.0,4.0,1,
116211,1862.0,11.0,137.4,35.9,1691.0,10905.0,4.0,1,
116311,1862.7,12.8,137.4,36.7,1691.0,10905.0,4.0,1,
116411,1863.2,13.6,137.4,175.8,1691.0,10905.0,4.0,1,
116611,1861.7,13.9,137.4,93.4,1691.0,10905.0,4.0,1,
116711,1860.8,13.3,137.4,132.9,1691.0,10905.0,4.0,1,
116811,1860.9,11.3,137.4,135.4,1691.0,10905.0,4.0,1,
116911,1857.0,56.5,131.5,106.2,953.0,6243.0,4.0,1,
117011,1866.8,158.2,125.6,37.1,1333.0,8225.0,4.0,1,
117111,1836.0,148.2,126.8,35.8,1545.0,9775.0,4.0,1,
117211,1914.3,223.1,142.0,65.6,1558.0,10187.0,3.0,1,
117311,1861.4,141.0,150.5,42.8,1710.0,10968.0,4.0,1,
117411,1826.5,261.1,141.5,28.9,1627.0,10782.0,4.0,1,
117611,1879.3,19.1,154.0,29.8,1627.0,10782.0,4.0,1,
117711,1860.8,11.6,154.0,35.1,1627.0,10782.0,4.0,1,
117811,1861.6,12.0,154.0,35.6,1627.0,10782.0,4.0,1,
117911,1862.8,12.1,154.0,35.9,1627.0,10782.0,4.0,1,
118011,1863.6,12.1,154.0,66.1,1627.0,10782.0,4.0,1,
118111,1861.8,12.5,154.0,156.7,1627.0,10782.0,4.0,1,
118211,1861.4,12.7,154.0,176.3,1627.0,10782.0,4.0,1,
118311,1861.1,12.4,154.0,206.2,1627.0,10782.0,4.0,1,
118411,1861.5,14.2,154.0,170.4,1627.0,10782.0,4.0,1,
118611,1861.3,143.1,154.6,50.2,1493.0,9546.0,4.0,1,
118711,1885.8,195.9,167.0,47.7,1615.0,10681.0,5.0,1,
118811,1823.3,168.6,158.2,43.1,1727.0,11281.0,4.0,1,
118911,1852.0,172.3,153.8,41.1,1713.0,10766.0,3.0,1,
119011,1855.9,176.6,157.5,41.2,1695.0,10951.0,4.0,1,
119111,1917.6,231.2,148.3,37.9,1635.0,10731.0,4.0,1,
119211,1838.3,25.7,149.8,30.1,1642.0,10496.0,3.0,1,
119311,1859.4,12.7,149.8,36.5,1642.0,10496.0,3.0,1,
119411,1861.9,11.9,149.8,39.4,1642.0,10496.0,3.0,1,
119611,1863.4,12.8,149.8,26.7,1642.0,10496.0,3.0,1,
119711,1863.6,12.4,149.8,154.2,1642.0,10496.0,3.0,1,
119811,1861.3,11.1,149.8,132.9,1642.0,10496.0,3.0,1,
119911,1861.0,14.2,149.8,137.5,1642.0,10496.0,3.0,1,
120011,1862.0,13.3,149.8,117.3,1642.0,10496.0,3.0,1,
120111,1862.3,28.4,149.8,70.8,1642.0,10496.0,3.0,1,
120211,1871.6,228.8,168.3,37.9,1504.0,9861.0,4.0,1,
120311,1842.3,136.4,154.9,36.2,1582.0,10136.0,4.0,1,
120411,1865.2,292.0,154.3,36.5,1640.0,11010.0,5.0,1,
120611,1863.4,226.8,160.1,38.3,1680.0,10663.0,3.0,1,
120711,1842.9,139.0,162.0,35.5,1628.0,10680.0,4.0,1,
120811,1871.0,30.2,156.3,40.5,1612.0,10675.0,4.0,1,
120911,1859.0,13.2,156.3,41.3,1612.0,10675.0,4.0,1,
121011,1861.5,11.5,156.3,36.1,1612.0,10675.0,4.0,1,
121111,1862.4,12.7,156.3,35.6,1612.0,10675.0,4.0,1,
121211,1863.3,11.8,156.3,36.9,1612.0,10675.0,4.0,1,
121311,1863.1,11.2,156.3,153.3,1612.0,10675.0,4.0,1,
121411,1862.0,11.9,156.3,145.1,1612.0,10675.0,4.0,1,
121611,1861.4,11.4,156.3,87.2,1612.0,10675.0,4.0,1,
121711,1861.5,13.6,156.2,78.5,1612.0,10675.0,4.0,1,
121811,1834.2,115.6,144.1,66.9,1326.0,8463.0,4.0,1,
121911,1909.8,238.4,159.6,39.0,1430.0,8957.0,4.0,1,
122011,1855.3,138.3,158.4,29.9,1554.0,10364.0,4.0,1,
122111,1846.8,211.8,152.7,30.2,1642.0,10697.0,4.0,1,
122211,1853.1,142.3,156.1,36.0,1785.0,11269.0,4.0,1,
122311,1854.6,161.2,147.0,37.6,1763.0,11309.0,4.0,1,
122411,1901.7,62.7,159.0,35.9,1644.0,10717.0,4.0,1,
122611,1861.5,12.7,159.0,29.7,1644.0,10717.0,4.0,1,
122711,1861.2,12.9,159.0,30.0,1644.0,10717.0,4.0,1,
122811,1862.8,11.0,159.0,35.2,1644.0,10717.0,4.0,1,
122911,1862.5,12.0,159.0,131.9,1644.0,10717.0,4.0,1,
123011,1862.8,12.1,159.0,123.2,1644.0,10717.0,4.0,1,
123111,1863.3,11.6,159.0,133.2,1644.0,10717.0,4.0,1,
123211,1861.6,11.6,159.0,138.9,1644.0,10717.0,4.0,1,
123311,1861.8,13.0,159.0,177.6,1644.0,10717.0,4.0,1,
123411,1885.1,140.5,166.4,38.7,1154.0,7592.0,4.0,1,
123611,1871.7,213.4,156.8,39.9,1488.0,9915.0,5.0,1,
123711,1834.4,164.3,158.0,42.3,1554.0,10296.0,4.0,1,
123811,1928.5,202.8,164.0,35.8,1581.0,10141.0,3.0,1,
123911,1852.3,126.9,168.8,36.9,1576.0,10225.0,4.0,1,
124011,1840.3,58.7,156.4,28.5,1600.0,10566.0,4.0,1,
124111,1860.9,14.6,156.4,29.2,1600.0,10566.0,4.0,1,
124211,1861.2,12.1,156.4,35.3,1600.0,10566.0,4.0,1,
124311,1861.5,11.7,156.4,35.5,1600.0,10566.0,4.0,1,
124411,1861.8,11.9,156.4,35.1,1600.0,10566.0,4.0,1,
124611,1863.1,11.8,156.4,136.5,1600.0,10566.0,4.0,1,
124711,1861.4,11.5,156.4,132.6,1600.0,10566.0,4.0,1,
124811,1861.3,15.8,156.4,151.9,1600.0,10566.0,4.0,1,
124911,1861.3,18.9,156.5,90.4,1600.0,10566.0,4.0,1,
125011,1847.0,61.1,149.3,48.1,1333.0,7903.0,4.0,1,
125111,1857.1,298.9,163.8,37.4,1630.0,10478.0,4.0,1,
125211,1900.5,180.6,157.1,34.5,1585.0,10412.0,4.0,1,
125311,1873.0,178.4,157.8,35.0,1726.0,11230.0,4.0,1,
125411,1830.9,143.6,151.0,65.5,1616.0,10607.0,4.0,1,
125611,1885.5,108.3,151.4,77.7,1702.0,11131.0,4.0,1,
125711,1875.7,16.9,151.4,65.7,1702.0,11131.0,4.0,1,
125811,1860.5,11.1,151.4,36.0,1702.0,11131.0,4.0,1,
125911,1861.6,11.4,151.4,36.0,1702.0,11131.0,4.0,1,
126011,1862.3,12.3,151.4,35.8,1702.0,11131.0,4.0,1,
126111,1864.3,12.0,151.4,98.8,1702.0,11131.0,4.0,1,
126211,1863.1,11.7,151.4,111.5,1702.0,11131.0,4.0,1,
126311,1862.0,12.2,151.4,136.8,1702.0,11131.0,4.0,1,
126411,1861.4,10.9,151.4,118.0,1702.0,11131.0,4.0,1,
126611,1870.7,50.3,150.9,102.1,1702.0,11131.0,4.0,1,
126711,1856.7,138.4,139.6,54.9,1460.0,9625.0,4.0,1,
126811,1852.9,213.7,145.3,44.9,1498.0,9877.0,4.0,1,
126911,1845.6,130.4,141.7,36.7,1569.0,10442.0,4.0,1,
127011,1858.7,156.7,136.8,29.1,1606.0,10476.0,3.0,1,
127111,1913.3,152.3,138.1,30.2,1575.0,10310.0,4.0,1,
127211,1848.1,147.1,131.9,66.5,1567.0,10110.0,3.0,1,
127311,1850.5,19.3,131.3,36.0,1567.0,10110.0,3.0,1,
127411,1859.7,12.7,131.3,37.3,1567.0,10110.0,3.0,1,
127611,1862.8,11.2,131.3,36.2,1567.0,10110.0,3.0,1,
127711,1862.2,11.8,131.3,30.2,1567.0,10110.0,3.0,1,
127811,1862.2,11.7,131.3,108.0,1567.0,10110.0,3.0,1,
127911,1862.1,11.5,131.3,107.7,1567.0,10110.0,3.0,1,
128011,1861.3,11.8,131.3,124.3,1567.0,10110.0,3.0,1,
128111,1861.8,11.8,131.3,142.3,1567.0,10110.0,3.0,1,
128211,1861.1,110.0,131.2,114.3,1567.0,10110.0,3.0,1,
128311,1866.4,242.7,153.0,26.4,1358.0,8835.0,4.0,1,
128411,1832.0,169.6,150.6,28.1,1434.0,9925.0,4.0,1,
128611,1852.0,120.0,150.6,35.7,1505.0,9825.0,4.0,1,
128711,1833.8,148.3,151.6,37.8,1581.0,10218.0,3.0,1,
128811,1872.9,129.6,156.8,39.6,1612.0,10528.0,4.0,1,
128911,1878.8,25.1,155.3,35.7,1592.0,10429.0,4.0,1,
129011,1859.4,12.6,155.3,29.7,1592.0,10429.0,4.0,1,
129111,1862.0,11.5,155.3,34.9,1592.0,10429.0,4.0,1,
129211,1862.1,12.3,155.3,35.9,1592.0,10429.0,4.0,1,
129311,1862.6,11.7,155.3,36.7,1592.0,10429.0,4.0,1,
129411,1863.1,11.4,155.3,154.8,1592.0,10429.0,4.0,1,
129611,1861.3,11.8,155.3,166.8,1592.0,10429.0,4.0,1,
129711,1861.3,10.4,155.3,144.7,1592.0,10429.0,4.0,1,
129811,1861.1,11.7,155.3,123.3,1592.0,10429.0,4.0,1,
129911,1866.9,131.9,140.5,44.5,1275.0,8406.0,4.0,1,
130011,1878.4,181.8,135.9,37.0,1507.0,10247.0,5.0,1,
130111,1830.1,142.5,135.5,36.0,1504.0,10362.0,4.0,1,
130211,1846.7,187.3,141.5,42.7,1490.0,10088.0,3.0,1,
130311,1870.9,147.3,142.0,38.4,1585.0,10549.0,4.0,1,
130411,1904.2,128.2,131.8,38.1,1493.0,10000.0,4.0,1,
130611,1859.2,12.4,132.8,34.7,1493.0,10000.0,4.0,1,
130711,1860.9,12.6,132.8,30.2,1493.0,10000.0,4.0,1,
130811,1861.9,11.8,132.8,30.2,1493.0,10000.0,4.0,1,
130911,1862.0,10.8,132.8,34.9,1493.0,10000.0,4.0,1,
131011,1862.2,12.1,132.8,142.2,1493.0,10000.0,4.0,1,
131111,1863.0,12.1,132.8,159.1,1493.0,10000.0,4.0,1,
131211,1861.9,11.5,132.8,102.4,1493.0,10000.0,4.0,1,
131311,1860.9,12.3,132.8,101.7,1493.0,10000.0,4.0,1,
131411,1861.1,12.5,132.8,138.1,1493.0,10000.0,4.0,1,
131611,1846.6,134.2,151.1,35.8,1520.0,10143.0,4.0,1,
131711,1858.5,198.1,148.9,36.0,1529.0,10100.0,3.0,1,
131811,1916.2,173.6,154.5,39.4,1504.0,10329.0,4.0,1,
131911,1846.2,181.3,153.3,66.4,1562.0,10307.0,3.0,1,
132011,1854.5,133.3,159.6,35.8,1492.0,9955.0,4.0,1,
132111,1868.4,51.4,158.4,35.6,1567.0,10367.0,4.0,1,
132211,1860.3,13.6,158.4,29.6,1567.0,10367.0,4.0,1,
132311,1861.1,11.9,158.4,34.7,1567.0,10367.0,4.0,1,
132411,1862.1,11.3,158.4,35.2,1567.0,10367.0,4.0,1,
132611,1861.9,12.5,158.4,189.1,1567.0,10367.0,4.0,1,
132711,1862.9,11.8,158.4,163.1,1567.0,10367.0,4.0,1,
132811,1861.6,12.1,158.4,138.9,1567.0,10367.0,4.0,1,
132911,1861.1,12.6,158.4,137.4,1567.0,10367.0,4.0,1,
133011,1861.4,11.7,158.4,135.2,1567.0,10367.0,4.0,1,
133111,1827.7,91.6,148.0,72.4,1108.0,7281.0,4.0,1,
133211,1920.2,290.0,154.0,36.9,1319.0,8849.0,3.0,1,
133311,1851.5,138.6,154.2,29.9,1560.0,10515.0,4.0,1,
133411,1832.7,139.9,146.4,29.9,1570.0,10172.0,3.0,1,
133611,1850.8,250.1,136.6,44.6,1612.0,10467.0,4.0,1,
133711,1894.0,130.4,151.2,30.2,1516.0,10138.0,3.0,1,
133811,1867.7,17.4,151.2,27.8,1516.0,10138.0,3.0,1,
133911,1861.2,11.9,151.2,27.8,1516.0,10138.0,3.0,1,
134011,1862.4,12.1,151.2,28.7,1516.0,10138.0,3.0,1,
134111,1862.2,11.9,151.2,29.5,1516.0,10138.0,3.0,1,
134211,1863.3,11.2,151.2,100.3,1516.0,10138.0,3.0,1,
134311,1862.8,12.2,151.2,132.3,1516.0,10138.0,3.0,1,
134411,1860.8,12.5,151.2,143.0,1516.0,10138.0,3.0,1,
134611,1861.5,12.4,151.2,122.8,1516.0,10138.0,3.0,1,
134711,1881.6,116.9,155.4,38.7,1060.0,6717.0,4.0,1,
134811,1829.4,116.4,145.1,40.1,1429.0,9377.0,4.0,1,
134911,1865.8,306.3,142.2,42.3,1527.0,10169.0,4.0,1,
135011,1849.5,163.5,150.2,40.6,1595.0,10594.0,4.0,1,
135111,1919.6,234.4,151.8,28.8,1645.0,10873.0,4.0,1,
135211,1854.4,129.5,159.3,28.7,1639.0,10617.0,4.0,1,
135311,1830.3,108.7,145.0,36.7,1549.0,10172.0,4.0,1,
135411,1874.5,16.5,144.3,36.1,1549.0,10172.0,4.0,1,
135611,1861.4,11.7,144.3,35.4,1549.0,10172.0,4.0,1,
135711,1862.5,11.3,144.3,34.5,1549.0,10172.0,4.0,1,
135811,1862.6,11.5,144.3,53.1,1549.0,10172.0,4.0,1,
135911,1862.2,11.4,144.3,136.5,1549.0,10172.0,4.0,1,
136011,1861.5,11.2,144.3,153.5,1549.0,10172.0,4.0,1,
136111,1861.3,11.9,144.3,173.7,1549.0,10172.0,4.0,1,
136211,1861.0,11.9,144.3,189.5,1549.0,10172.0,4.0,1,
136311,1861.9,11.4,144.4,154.1,1549.0,10172.0,4.0,1,
136411,1848.8,168.7,140.8,51.6,1354.0,9126.0,4.0,1,
136611,1868.5,163.9,126.5,65.5,1488.0,10481.0,5.0,1,
136711,1832.8,119.2,132.1,66.4,1465.0,10058.0,4.0,1,
136811,1846.0,307.3,118.4,65.9,1563.0,10474.0,4.0,1,
136911,1881.0,175.7,145.3,41.2,1545.0,10143.0,4.0,1,
137011,1878.5,23.8,145.1,29.7,1482.0,9817.0,4.0,1,
137111,1859.8,12.0,145.1,34.3,1482.0,9817.0,4.0,1,
137211,1862.2,10.6,145.1,35.3,1482.0,9817.0,4.0,1,
137311,1862.5,12.1,145.1,35.6,1482.0,9817.0,4.0,1,
137411,1863.3,12.0,145.1,40.3,1482.0,9817.0,4.0,1,
137611,1861.8,11.8,145.1,165.4,1482.0,9817.0,4.0,1,
137711,1861.3,11.3,145.1,199.1,1482.0,9817.0,4.0,1,
137811,1861.4,11.0,145.1,168.1,1482.0,9817.0,4.0,1,
137911,1861.5,11.9,145.1,177.6,1482.0,9817.0,4.0,1,
138011,1866.0,101.3,145.9,42.5,1322.0,8703.0,4.0,1,
138111,1845.6,238.2,154.6,38.8,1517.0,10267.0,4.0,1,
138211,1853.3,140.9,158.8,37.7,1544.0,10450.0,4.0,1,
138311,1863.0,209.9,162.8,29.4,1600.0,10302.0,3.0,1,
138411,1914.3,158.6,172.3,29.3,1493.0,10001.0,4.0,1,
138611,1864.4,31.0,150.2,28.3,1506.0,9678.0,3.0,1,
138711,1859.4,12.8,150.2,34.3,1506.0,9678.0,3.0,1,
138811,1862.2,11.9,150.2,34.9,1506.0,9678.0,3.0,1,
138911,1864.0,11.7,150.2,34.7,1506.0,9678.0,3.0,1,
139011,1863.3,11.2,150.2,36.1,1506.0,9678.0,3.0,1,
139111,1861.7,11.5,150.2,125.0,1506.0,9678.0,3.0,1,
139211,1861.0,11.3,150.2,156.3,1506.0,9678.0,3.0,1,
139311,1861.7,11.1,150.2,156.7,1506.0,9678.0,3.0,1,
139411,1861.3,11.6,150.2,158.0,1506.0,9678.0,3.0,1,
139611,1862.2,237.4,161.3,35.7,1339.0,8949.0,3.0,1,
139711,1836.9,177.5,155.9,35.4,1506.0,10362.0,4.0,1,
139811,1926.9,190.7,155.6,35.8,1386.0,10027.0,5.0,1,
139911,1848.4,125.1,151.6,37.8,1459.0,9916.0,4.0,1,
140011,1835.7,150.3,144.9,41.7,1392.0,9364.0,3.0,1,
140111,1872.5,124.9,152.0,35.8,1480.0,9862.0,4.0,1,
140211,1874.9,38.1,150.8,28.7,1522.0,9846.0,4.0,1,
140311,1859.6,12.0,150.8,29.0,1522.0,9846.0,4.0,1,
140411,1862.1,11.4,150.8,34.4,1522.0,9846.0,4.0,1,
140611,1862.2,11.3,150.8,35.8,1522.0,9846.0,4.0,1,
140711,1862.9,11.3,150.8,140.9,1522.0,9846.0,4.0,1,
140811,1862.3,11.2,150.8,156.2,1522.0,9846.0,4.0,1,
140911,1861.6,11.9,150.8,152.5,1522.0,9846.0,4.0,1,
141011,1861.7,11.4,150.8,114.2,1522.0,9846.0,4.0,1,
141111,1861.5,10.7,150.8,83.9,1522.0,9846.0,4.0,1,
141211,1875.2,105.9,145.7,49.5,1229.0,8227.0,4.0,1,
141311,1871.5,247.5,160.6,40.2,1517.0,9893.0,3.0,1,
141411,1831.0,131.6,156.7,36.8,1453.0,9909.0,4.0,1,
141611,1871.9,163.9,157.2,29.5,1600.0,10637.0,4.0,1,
141711,1897.6,133.0,146.1,65.8,1552.0,10160.0,4.0,1,
141811,1845.2,105.8,157.1,66.2,1498.0,9958.0,3.0,1,
141911,1863.3,16.1,157.0,45.7,1498.0,9958.0,3.0,1,
142011,1860.9,10.6,157.0,30.0,1498.0,9958.0,3.0,1,
142111,1861.5,11.1,157.0,29.8,1498.0,9958.0,3.0,1,
142211,1862.8,11.1,157.0,34.3,1498.0,9958.0,3.0,1,
142311,1863.0,11.4,157.0,100.8,1498.0,9958.0,3.0,1,
142411,1861.9,12.0,157.0,131.8,1498.0,9958.0,3.0,1,
142611,1861.4,10.4,157.0,145.2,1498.0,9958.0,3.0,1,
142711,1861.7,9.8,157.0,123.6,1498.0,9958.0,3.0,1,
142811,1860.6,136.8,163.3,43.5,1120.0,7658.0,3.0,1,
142911,1844.9,140.0,149.3,38.6,1470.0,9675.0,4.0,1,
143011,1868.3,345.1,152.5,40.1,1526.0,10336.0,4.0,1,
143111,1903.0,160.3,161.1,37.8,1525.0,10820.0,4.0,1,
143211,1847.2,119.9,157.9,29.2,1564.0,10336.0,3.0,1,
143311,1855.9,142.3,166.1,29.8,1503.0,9903.0,4.0,1,
143411,1848.5,100.5,156.2,41.4,1503.0,9827.0,4.0,1,
143611,1860.8,11.6,156.2,35.6,1503.0,9827.0,4.0,1,
143711,1863.3,11.5,156.2,35.5,1503.0,9827.0,4.0,1,
143811,1863.2,10.6,156.2,35.0,1503.0,9827.0,4.0,1,
143911,1862.8,11.7,156.2,56.3,1503.0,9827.0,4.0,1,
144011,1862.3,11.3,156.2,139.1,1503.0,9827.0,4.0,1,
144111,1861.5,10.2,156.2,136.0,1503.0,9827.0,4.0,1,
144211,1861.8,11.5,156.2,123.4,1503.0,9827.0,4.0,1,
144311,1862.4,10.7,156.2,133.7,1503.0,9827.0,4.0,1,
144411,1840.9,72.8,156.2,123.6,1503.0,9827.0,4.0,1,
144611,1845.8,133.4,157.6,36.4,1475.0,10027.0,4.0,1,
144711,1836.0,122.4,145.7,29.6,1399.0,9807.0,3.0,1,
144811,1869.2,136.8,148.5,30.0,1433.0,9943.0,4.0,1,
144911,1856.9,132.9,138.1,65.6,1336.0,9281.0,4.0,1,
145011,1917.1,204.5,162.1,35.8,1423.0,9576.0,4.0,1,
145111,1840.2,24.9,162.1,29.2,1423.0,9576.0,4.0,1,
145211,1860.8,11.7,162.1,29.9,1423.0,9576.0,4.0,1,
145311,1862.1,10.8,162.1,34.6,1423.0,9576.0,4.0,1,
145411,1861.9,11.4,162.1,35.6,1423.0,9576.0,4.0,1,
145611,1862.5,10.9,162.1,108.8,1423.0,9576.0,4.0,1,
145711,1861.7,11.7,162.1,109.7,1423.0,9576.0,4.0,1,
145811,1862.0,12.2,162.1,76.9,1423.0,9576.0,4.0,1,
145911,1863.3,13.4,162.2,66.4,1423.0,9576.0,4.0,1,
146011,1860.7,14.5,162.2,56.7,1423.0,9576.0,4.0,1,
146111,1842.9,110.6,148.6,56.2,1520.0,9761.0,4.0,1,
146211,1864.2,368.9,157.1,53.0,1509.0,9908.0,3.0,1,
146311,1858.2,179.7,166.0,38.0,1585.0,10760.0,4.0,1,
146411,1910.9,198.3,165.0,29.6,1555.0,10225.0,3.0,1,
146611,1832.6,193.0,144.6,39.4,1516.0,9943.0,4.0,1,
146711,1881.2,32.2,147.5,65.5,1536.0,9905.0,3.0,1,
146811,1860.3,11.1,147.4,48.1,1536.0,9905.0,3.0,1,
146911,1861.6,11.6,147.4,39.7,1536.0,9905.0,3.0,1,
147011,1862.8,10.9,147.4,37.4,1536.0,9905.0,3.0,1,
147111,1863.3,10.5,147.5,48.1,1536.0,9905.0,3.0,1,
147211,1862.5,11.7,147.5,137.8,1536.0,9905.0,3.0,1,
147311,1863.2,11.2,147.5,132.7,1536.0,9905.0,3.0,1,
147411,1862.6,10.8,147.4,154.1,1536.0,9905.0,3.0,1,
147611,1862.6,15.7,147.4,117.8,1536.0,9905.0,3.0,1,
147711,1857.0,232.8,164.6,36.8,1340.0,8871.0,4.0,1,
147811,1895.9,158.8,156.7,36.3,1482.0,9960.0,4.0,1,
147911,1863.1,166.9,146.1,36.8,1500.0,10165.0,4.0,1,
148011,1836.5,111.6,146.6,41.2,1470.0,9857.0,4.0,1,
148111,1858.6,144.6,143.7,68.2,1573.0,9969.0,3.0,1,
148211,1885.7,149.7,149.5,65.7,1490.0,9724.0,4.0,1,
148311,1866.7,37.0,146.0,28.3,1443.0,9633.0,4.0,1,
148411,1859.8,13.0,146.0,29.6,1443.0,9633.0,4.0,1,
148611,1862.4,10.2,146.1,34.8,1443.0,9633.0,4.0,1,
148711,1862.7,11.0,146.1,34.6,1443.0,9633.0,4.0,1,
148811,1863.4,11.6,146.1,157.6,1443.0,9633.0,4.0,1,
148911,1862.8,10.6,146.1,135.3,1443.0,9633.0,4.0,1,
149011,1861.3,11.4,146.1,132.9,1443.0,9633.0,4.0,1,
149111,1861.3,10.4,146.1,148.4,1443.0,9633.0,4.0,1,
149211,1861.5,9.3,146.1,107.6,1443.0,9633.0,4.0,1,
149311,1866.8,184.4,129.4,53.7,1628.0,10601.0,4.0,1,
149411,1852.1,211.5,156.1,30.2,1610.0,10700.0,4.0,1,
149611,1886.2,240.9,156.5,34.8,1704.0,11194.0,4.0,1,
149711,1893.8,134.5,158.1,44.6,1626.0,10717.0,4.0,1,
149811,1852.2,242.8,157.3,66.5,1557.0,10199.0,4.0,1,
149911,1865.6,71.8,169.3,35.2,1457.0,9902.0,4.0,1,
150011,1861.0,14.7,169.3,27.8,1457.0,9902.0,4.0,1,
150111,1861.8,11.5,169.3,29.5,1457.0,9902.0,4.0,1,
150211,1861.9,11.8,169.3,34.7,1457.0,9902.0,4.0,1,
150311,1861.9,11.7,169.3,36.4,1457.0,9902.0,4.0,1,
150411,1863.1,11.2,169.3,135.5,1457.0,9902.0,4.0,1,
150611,1861.7,11.7,169.3,168.1,1457.0,9902.0,4.0,1,
150711,1861.1,10.8,169.3,178.4,1457.0,9902.0,4.0,1,
150811,1860.6,17.3,169.3,150.8,1457.0,9902.0,4.0,1,
150911,1850.6,73.8,169.1,46.7,1285.0,8412.0,4.0,1,
151011,1852.4,254.5,146.8,51.6,1525.0,10265.0,4.0,1,
151111,1915.0,190.7,152.0,52.6,1507.0,10460.0,4.0,1,
151211,1834.8,179.1,152.0,39.5,1603.0,11018.0,4.0,1,
151311,1860.1,235.7,160.7,35.9,1529.0,10409.0,3.0,1,
151411,1854.9,114.2,156.7,36.0,1561.0,10448.0,4.0,1,
151611,1873.3,16.2,147.5,29.0,1561.0,10448.0,4.0,1,
151711,1860.7,11.6,147.5,29.6,1561.0,10448.0,4.0,1,
151811,1861.8,12.4,147.5,29.7,1561.0,10448.0,4.0,1,
151911,1863.3,10.8,147.5,30.0,1561.0,10448.0,4.0,1,
152011,1863.7,12.2,147.5,117.3,1561.0,10448.0,4.0,1,
152111,1861.5,13.3,147.5,53.3,1561.0,10448.0,4.0,1,
152211,1860.7,11.4,147.5,46.9,1561.0,10448.0,4.0,1,
152311,1860.4,16.8,147.6,52.1,1561.0,10448.0,4.0,1,
152411,1860.7,16.1,147.7,52.4,1561.0,10448.0,4.0,1,
152611,1845.8,170.3,162.4,36.2,1611.0,10689.0,4.0,1,
152711,1824.8,174.1,157.3,36.1,1571.0,10624.0,4.0,1,
152811,1877.7,164.5,158.1,37.7,1661.0,10709.0,3.0,1,
152911,1855.0,160.5,152.7,65.8,1599.0,10458.0,4.0,1,
153011,1913.8,226.0,150.0,41.5,1540.0,10240.0,3.0,1,
153111,1834.4,113.8,148.6,65.6,1551.0,10389.0,4.0,1,
153211,1859.2,19.2,147.6,30.1,1551.0,10389.0,4.0,1,
153311,1860.5,11.9,147.6,34.6,1551.0,10389.0,4.0,1,
153411,1862.4,11.0,147.6,35.1,1551.0,10389.0,4.0,1,
153611,1863.0,12.3,147.6,49.3,1551.0,10389.0,4.0,1,
153711,1863.7,11.0,147.6,157.0,1551.0,10389.0,4.0,1,
153811,1862.5,11.1,147.6,158.1,1551.0,10389.0,4.0,1,
153911,1861.4,11.1,147.5,188.3,1551.0,10389.0,4.0,1,
154011,1861.4,10.8,147.4,197.7,1551.0,10389.0,4.0,1,
154111,1861.2,10.2,147.3,153.5,1551.0,10389.0,4.0,1,
154211,1839.9,129.2,130.3,42.0,1398.0,9302.0,4.0,1,
154311,1875.6,172.8,127.6,37.3,1496.0,10066.0,4.0,1,
154411,1893.3,131.4,124.9,37.3,1584.0,10282.0,4.0,1,
154611,1834.3,92.3,122.6,65.9,1573.0,10425.0,4.0,1,
154711,1871.5,257.1,112.1,52.4,1545.0,10422.0,4.0,1,
154811,1884.8,28.7,121.4,65.7,1510.0,9992.0,3.0,1,
154911,1860.1,10.4,121.4,29.9,1510.0,9992.0,3.0,1,
155011,1861.9,10.6,121.4,29.6,1510.0,9992.0,3.0,1,
155111,1862.2,11.2,121.4,29.8,1510.0,9992.0,3.0,1,
155211,1863.3,9.4,121.4,36.4,1510.0,9992.0,3.0,1,
155311,1863.8,9.9,121.4,112.3,1510.0,9992.0,3.0,1,
155411,1862.3,10.6,121.4,116.4,1510.0,9992.0,3.0,1,
155611,1861.0,9.5,121.4,142.0,1510.0,9992.0,3.0,1,
155711,1863.0,24.1,121.5,69.3,1510.0,9992.0,3.0,1,
155811,1888.4,150.0,128.3,38.8,1576.0,10033.0,4.0,1,
155911,1832.5,194.3,128.6,37.7,1677.0,11070.0,4.0,1,
156011,1863.5,194.4,143.5,42.8,1586.0,10606.0,4.0,1,
156111,1851.9,117.7,143.3,66.2,1675.0,11097.0,4.0,1,
156211,1894.7,286.9,151.8,36.0,1523.0,10239.0,4.0,1,
156311,1884.2,114.9,157.4,35.7,1592.0,10629.0,4.0,1,
156411,1836.1,27.9,150.3,28.5,1603.0,10687.0,4.0,1,
156611,1862.3,10.0,150.3,35.5,1603.0,10687.0,4.0,1,
156711,1862.2,8.9,150.3,35.5,1603.0,10687.0,4.0,1,
156811,1862.1,9.8,150.3,35.2,1603.0,10687.0,4.0,1,
156911,1861.5,10.2,150.3,132.2,1603.0,10687.0,4.0,1,
157011,1862.5,8.7,150.3,73.6,1603.0,10687.0,4.0,1,
157111,1861.9,9.0,150.3,66.8,1603.0,10687.0,4.0,1,
157211,1862.3,9.2,150.3,67.8,1603.0,10687.0,4.0,1,
157311,1861.9,8.8,150.2,99.8,1603.0,10687.0,4.0,1,
157411,1839.7,199.5,145.4,43.6,1411.0,9645.0,4.0,1,
157611,1852.0,179.0,145.7,34.9,1525.0,10634.0,4.0,1,
157711,1916.6,277.8,157.3,35.8,1442.0,9975.0,4.0,1,
157811,1834.5,96.9,153.1,40.4,1447.0,9693.0,4.0,1,
157911,1850.4,125.6,147.2,29.3,1441.0,9699.0,3.0,1,
158011,1889.9,52.8,148.1,29.7,1428.0,9846.0,4.0,1,
158111,1859.5,12.7,148.1,36.4,1428.0,9846.0,4.0,1,
158211,1862.1,9.1,148.1,34.8,1428.0,9846.0,4.0,1,
158311,1861.9,9.7,148.1,34.9,1428.0,9846.0,4.0,1,
158411,1862.2,10.1,148.1,35.3,1428.0,9846.0,4.0,1,
158611,1861.0,9.4,148.1,141.9,1428.0,9846.0,4.0,1,
158711,1862.2,10.2,148.1,152.5,1428.0,9846.0,4.0,1,
158811,1861.9,8.9,148.1,147.9,1428.0,9846.0,4.0,1,
158911,1861.4,9.7,148.1,148.1,1428.0,9846.0,4.0,1,
159011,1850.6,144.6,150.2,45.8,1128.0,7863.0,4.0,1,
159111,1890.9,147.8,143.6,40.3,1574.0,10455.0,4.0,1,
159211,1855.5,208.8,158.3,40.2,1679.0,11186.0,4.0,1,
159311,1833.2,112.7,145.8,37.5,1612.0,10911.0,4.0,1,
159411,1869.8,416.2,165.1,29.1,1608.0,10539.0,3.0,1,
159611,1848.9,69.5,171.3,28.2,1461.0,10044.0,4.0,1,
159711,1867.8,12.0,171.3,29.9,1461.0,10044.0,4.0,1,
159811,1862.0,9.8,171.3,35.4,1461.0,10044.0,4.0,1,
159911,1862.4,9.8,171.3,34.9,1461.0,10044.0,4.0,1,
160011,1862.4,8.4,171.3,34.2,1461.0,10044.0,4.0,1,
160111,1862.5,9.4,171.3,141.7,1461.0,10044.0,4.0,1,
160211,1861.6,9.6,171.3,183.1,1461.0,10044.0,4.0,1,
160311,1861.9,8.7,171.3,164.9,1461.0,10044.0,4.0,1,
160411,1861.6,9.6,171.3,177.3,1461.0,10044.0,4.0,1,
160611,1871.5,57.7,169.8,168.3,1141.0,7974.0,4.0,1,
160711,1851.5,161.3,177.4,30.2,1464.0,10042.0,4.0,1,
160811,1847.6,139.2,167.7,30.1,1531.0,10578.0,4.0,1,
160911,1887.8,207.9,164.9,34.9,1488.0,10441.0,5.0,1,
161011,1880.9,117.2,145.3,46.0,1529.0,10376.0,4.0,1,
161111,1854.5,169.9,125.8,36.7,1394.0,9732.0,5.0,1,
161211,1847.5,105.1,131.8,29.9,1436.0,9739.0,4.0,1,
161311,1875.3,15.3,131.5,36.1,1436.0,9739.0,4.0,1,
161411,1861.3,10.7,131.5,34.4,1436.0,9739.0,4.0,1,
161611,1862.0,9.7,131.5,35.2,1436.0,9739.0,4.0,1,
161711,1863.0,10.0,131.5,51.7,1436.0,9739.0,4.0,1,
161811,1862.1,8.4,131.5,139.9,1436.0,9739.0,4.0,1,
161911,1862.1,9.4,131.5,141.6,1436.0,9739.0,4.0,1,
162011,1861.4,10.4,131.5,147.5,1436.0,9739.0,4.0,1,
162111,1862.2,9.4,131.5,144.8,1436.0,9739.0,4.0,1,
162211,1861.8,37.7,131.5,145.7,1436.0,9739.0,4.0,1,
162311,1846.4,140.9,120.9,39.0,1429.0,9999.0,4.0,1,
162411,1909.1,145.9,121.5,37.0,1551.0,10787.0,4.0,1,
162611,1863.3,200.7,141.5,35.8,1458.0,9975.0,4.0,1,
162711,1852.0,110.3,141.7,35.4,1504.0,10145.0,4.0,1,
162811,1895.3,335.7,153.7,27.7,1415.0,9590.0,3.0,1,
162911,1858.0,30.1,159.8,27.6,1397.0,9497.0,3.0,1,
163011,1860.8,9.7,159.8,29.2,1397.0,9497.0,3.0,1,
163111,1862.2,9.7,159.8,29.7,1397.0,9497.0,3.0,1,
163211,1861.9,9.8,159.8,30.2,1397.0,9497.0,3.0,1,
163311,1862.6,9.1,159.8,36.8,1397.0,9497.0,3.0,1,
163411,1861.7,9.5,159.8,144.3,1397.0,9497.0,3.0,1,
163611,1862.0,9.0,159.8,124.6,1397.0,9497.0,3.0,1,
163711,1861.6,9.6,159.8,125.4,1397.0,9497.0,3.0,1,
163811,1862.1,18.1,159.8,158.7,1397.0,9497.0,3.0,1,
163911,1865.1,132.0,161.0,43.3,1472.0,10223.0,4.0,1,
164011,1838.5,141.6,160.7,44.5,1568.0,10613.0,3.0,1,
164111,1868.9,141.9,163.3,49.4,1496.0,10577.0,4.0,1,
164211,1871.6,245.9,152.8,53.9,1439.0,10188.0,4.0,1,
164311,1902.3,163.2,155.3,35.8,1443.0,9803.0,4.0,1,
164411,1833.9,88.6,143.5,34.7,1405.0,9536.0,4.0,1,
164611,1859.5,9.7,130.2,34.2,1405.0,9536.0,4.0,1,
164711,1862.4,10.5,130.2,34.9,1405.0,9536.0,4.0,1,
164811,1862.7,8.5,130.2,30.2,1405.0,9536.0,4.0,1,
164911,1862.5,9.6,130.2,34.9,1405.0,9536.0,4.0,1,
165011,1862.3,10.4,130.2,117.0,1405.0,9536.0,4.0,1,
165111,1862.2,8.7,130.2,136.1,1405.0,9536.0,4.0,1,
165211,1861.8,9.7,130.2,149.2,1405.0,9536.0,4.0,1,
165311,1861.4,10.4,130.2,146.6,1405.0,9536.0,4.0,1,
165411,1862.1,8.9,130.2,124.0,1405.0,9536.0,4.0,1,
165611,1854.4,175.4,134.1,41.8,1440.0,9939.0,4.0,1,
165711,1913.5,155.5,130.2,46.2,1410.0,10631.0,4.0,1,
165811,1839.9,101.9,135.3,66.0,1430.0,9764.0,4.0,1,
165911,1841.3,388.5,135.6,30.2,1422.0,9312.0,3.0,1,
166011,1877.9,145.3,159.2,29.9,1432.0,9495.0,4.0,1,
166111,1872.9,36.2,158.9,28.3,1423.0,9462.0,4.0,1,
166211,1859.8,11.4,158.9,30.0,1423.0,9462.0,4.0,1,
166311,1862.1,9.0,158.9,34.8,1423.0,9462.0,4.0,1,
166411,1862.3,9.6,158.9,35.0,1423.0,9462.0,4.0,1,
166611,1862.7,9.0,158.9,146.8,1423.0,9462.0,4.0,1,
166711,1861.9,9.2,158.9,145.2,1423.0,9462.0,4.0,1,
166811,1862.0,9.8,158.9,141.2,1423.0,9462.0,4.0,1,
166911,1862.2,8.8,158.9,123.8,1423.0,9462.0,4.0,1,
167011,1861.5,9.2,158.9,134.8,1423.0,9462.0,4.0,1,
167111,1875.7,95.9,155.2,52.2,1251.0,8803.0,4.0,1,
167211,1862.7,251.1,167.1,36.7,1395.0,9872.0,4.0,1,
167311,1830.5,130.0,166.9,34.3,1526.0,10556.0,4.0,1,
167411,1867.7,167.9,166.9,29.9,1425.0,9716.0,3.0,1,
167611,1880.7,168.1,134.6,44.8,1403.0,9379.0,3.0,1,
167711,1855.8,86.3,141.5,36.8,1370.0,9122.0,4.0,1,
167811,1863.4,20.3,141.5,27.3,1370.0,9122.0,4.0,1,
167911,1861.9,9.6,141.5,27.7,1370.0,9122.0,4.0,1,
168011,1862.4,9.7,141.5,28.7,1370.0,9122.0,4.0,1,
168111,1862.5,8.6,141.5,29.3,1370.0,9122.0,4.0,1,
168211,1862.2,9.1,141.5,47.0,1370.0,9122.0,4.0,1,
168311,1862.9,10.1,141.5,141.0,1370.0,9122.0,4.0,1,
168411,1862.2,9.1,141.5,117.1,1370.0,9122.0,4.0,1,
168611,1861.7,9.9,141.5,107.9,1370.0,9122.0,4.0,1,
168711,1856.8,128.9,147.0,43.2,1193.0,8491.0,4.0,1,
168811,1848.3,136.1,145.7,38.7,1477.0,10118.0,4.0,1,
168911,1880.8,326.5,142.0,41.2,1374.0,9552.0,3.0,1,
169011,1884.7,115.9,143.0,40.4,1368.0,9412.0,4.0,1,
169111,1843.0,106.6,139.9,29.6,1489.0,9605.0,3.0,1,
169211,1857.4,90.7,142.5,29.9,1524.0,10211.0,4.0,1,
169311,1854.6,73.7,132.4,37.2,1409.0,9339.0,4.0,1,
169411,1874.0,15.6,132.3,35.5,1409.0,9339.0,4.0,1,
169611,1861.8,9.3,132.3,35.5,1409.0,9339.0,4.0,1,
169711,1861.6,9.1,132.3,35.2,1409.0,9339.0,4.0,1,
169811,1862.5,9.6,132.3,83.6,1409.0,9339.0,4.0,1,
169911,1862.8,8.6,132.3,150.1,1409.0,9339.0,4.0,1,
170011,1861.7,9.2,132.3,174.7,1409.0,9339.0,4.0,1,
170111,1862.1,10.2,132.3,184.8,1409.0,9339.0,4.0,1,
170211,1861.6,9.3,132.3,156.0,1409.0,9339.0,4.0,1,
170311,1852.0,64.3,131.7,152.3,1409.0,9339.0,4.0,1,
170411,1909.3,244.5,143.5,43.2,1346.0,9255.0,4.0,1,
170611,1850.9,373.3,140.4,34.4,1411.0,9704.0,3.0,1,
170711,1866.3,135.5,155.4,36.1,1412.0,9857.0,4.0,1,
170811,1877.1,298.9,158.2,29.7,1433.0,9737.0,4.0,1,
170911,1886.3,148.4,180.1,34.4,1398.0,9420.0,4.0,1,
171011,1844.8,19.7,180.1,35.8,1398.0,9420.0,4.0,1,
171111,1860.5,9.2,180.1,29.8,1398.0,9420.0,4.0,1,
171211,1861.6,9.1,180.1,34.4,1398.0,9420.0,4.0,1,
171311,1862.5,10.4,180.1,35.4,1398.0,9420.0,4.0,1,
171411,1862.7,8.6,180.1,52.0,1398.0,9420.0,4.0,1,
171611,1861.3,9.7,180.1,144.9,1398.0,9420.0,4.0,1,
171711,1861.8,8.4,180.1,164.8,1398.0,9420.0,4.0,1,
171811,1861.1,8.8,180.1,137.4,1398.0,9420.0,4.0,1,
171911,1861.9,7.9,180.1,137.1,1398.0,9420.0,4.0,1,
172011,1839.6,110.4,170.0,38.9,1436.0,9835.0,4.0,1,
172111,1869.0,303.8,179.6,36.7,1500.0,10311.0,4.0,1,
172211,1874.5,160.6,183.7,36.5,1398.0,9967.0,4.0,1,
172311,1887.7,232.7,167.2,28.4,1463.0,9880.0,3.0,1,
172411,1850.1,117.2,181.8,28.1,1469.0,9841.0,4.0,1,
172611,1882.3,25.4,155.8,34.6,1370.0,9018.0,3.0,1,
172711,1859.1,9.6,155.8,35.8,1370.0,9018.0,3.0,1,
172811,1862.1,10.2,155.8,45.5,1370.0,9018.0,3.0,1,
172911,1862.6,8.4,155.8,40.7,1370.0,9018.0,3.0,1,
173011,1862.9,8.8,155.8,56.1,1370.0,9018.0,3.0,1,
173111,1862.7,10.0,155.8,140.2,1370.0,9018.0,3.0,1,
173211,1863.3,9.3,155.8,133.6,1370.0,9018.0,3.0,1,
173311,1861.7,9.3,155.8,122.4,1370.0,9018.0,3.0,1,
173411,1861.5,10.2,155.8,117.0,1370.0,9018.0,3.0,1,
173611,1874.3,146.2,155.6,42.1,1119.0,7824.0,4.0,1,
173711,1881.6,131.1,139.2,35.6,1497.0,10199.0,4.0,1,
173811,1857.3,228.2,132.4,35.5,1444.0,10497.0,5.0,1,
173911,1848.1,90.2,142.0,65.6,1460.0,9657.0,4.0,1,
174011,1861.0,394.4,131.8,30.1,1513.0,9454.0,3.0,1,
174111,1898.9,141.2,156.9,29.8,1409.0,9371.0,4.0,1,
174211,1849.9,31.5,154.1,27.8,1348.0,9164.0,4.0,1,
174311,1859.7,11.2,154.1,29.2,1348.0,9164.0,4.0,1,
174411,1861.9,9.4,154.1,34.3,1348.0,9164.0,4.0,1,
174611,1861.6,10.5,154.1,34.8,1348.0,9164.0,4.0,1,
174711,1862.6,8.9,154.1,157.8,1348.0,9164.0,4.0,1,
174811,1863.2,9.4,154.1,157.1,1348.0,9164.0,4.0,1,
174911,1862.5,9.6,154.1,135.0,1348.0,9164.0,4.0,1,
175011,1862.1,8.8,154.1,137.6,1348.0,9164.0,4.0,1,
175111,1861.1,9.3,154.1,125.4,1348.0,9164.0,4.0,1,
175211,1854.8,182.8,155.1,71.4,1288.0,8884.0,4.0,1,
175311,1867.4,142.1,164.2,42.6,1449.0,9984.0,5.0,1,
175411,1852.3,134.7,164.4,40.1,1583.0,10524.0,4.0,1,
175611,1875.3,107.8,152.4,30.2,1522.0,10048.0,4.0,1,
175711,1837.5,345.1,134.5,38.0,1414.0,9276.0,3.0,1,
175811,1882.2,97.7,160.9,35.3,1411.0,9445.0,3.0,1,
175911,1861.5,13.2,160.9,27.8,1411.0,9445.0,3.0,1,
176011,1862.2,9.2,160.9,28.6,1411.0,9445.0,3.0,1,
176111,1862.0,9.8,160.9,29.3,1411.0,9445.0,3.0,1,
176211,1862.8,8.9,161.0,29.6,1411.0,9445.0,3.0,1,
176311,1862.5,9.0,161.0,138.4,1411.0,9445.0,3.0,1,
176411,1862.5,10.6,160.9,144.0,1411.0,9445.0,3.0,1,
176611,1861.8,9.4,160.9,156.5,1411.0,9445.0,3.0,1,
176711,1861.0,10.5,160.9,146.6,1411.0,9445.0,3.0,1,
176811,1850.1,152.1,163.3,48.2,1465.0,10400.0,4.0,1,
176911,1862.9,187.0,157.2,38.7,1582.0,11301.0,4.0,1,
177011,1908.2,257.5,167.4,37.7,1580.0,10782.0,3.0,1,
177111,1829.2,103.8,169.5,37.3,1512.0,10386.0,4.0,1,
177211,1855.2,125.6,170.2,29.5,1484.0,9876.0,3.0,1,
177311,1853.5,126.4,174.0,29.7,1390.0,9424.0,4.0,1,
177411,1874.4,73.4,138.8,47.0,1391.0,9590.0,4.0,1,
177611,1861.3,10.5,138.7,39.7,1391.0,9590.0,4.0,1,
177711,1862.3,10.1,138.7,34.9,1391.0,9590.0,4.0,1,
177811,1862.5,9.9,138.7,34.5,1391.0,9590.0,4.0,1,
177911,1862.5,11.1,138.7,135.5,1391.0,9590.0,4.0,1,
178011,1862.0,9.9,138.7,176.9,1391.0,9590.0,4.0,1,
178111,1861.5,10.2,138.7,141.9,1391.0,9590.0,4.0,1,
178211,1861.7,10.3,138.7,132.9,1391.0,9590.0,4.0,1,
178311,1862.0,10.1,138.7,123.5,1391.0,9590.0,4.0,1,
178411,1889.2,68.5,138.2,100.5,1252.0,8370.0,4.0,1,
178611,1836.0,107.2,139.6,35.7,1481.0,10085.0,4.0,1,
178711,1876.2,299.4,135.4,35.3,1453.0,10157.0,4.0,1,
178811,1880.1,135.5,143.0,35.1,1436.0,9753.0,4.0,1,
178911,1879.4,172.9,137.9,27.2,1332.0,9432.0,4.0,1,
179011,1855.2,124.5,144.9,27.4,1233.0,8889.0,4.0,1,
179111,1862.5,17.6,144.4,36.2,1233.0,8889.0,4.0,1,
179211,1861.2,9.8,144.4,35.1,1233.0,8889.0,4.0,1,
179311,1861.9,9.9,144.4,35.0,1233.0,8889.0,4.0,1,
179411,1862.8,10.1,144.4,35.0,1233.0,8889.0,4.0,1,
179611,1862.9,9.2,144.4,144.7,1233.0,8889.0,4.0,1,
179711,1862.5,9.9,144.4,135.4,1233.0,8889.0,4.0,1,
179811,1862.0,9.2,144.4,134.5,1233.0,8889.0,4.0,1,
179911,1863.7,14.5,144.4,144.3,1233.0,8889.0,4.0,1,
180011,1861.5,12.1,144.4,84.1,1233.0,8889.0,4.0,1,
180111,1837.0,150.1,142.1,54.0,1475.0,10128.0,4.0,1,
180211,1894.3,259.1,143.4,44.5,1419.0,9856.0,5.0,1,
180311,1868.8,117.0,140.3,37.9,1584.0,10581.0,4.0,1,
180411,1846.8,375.9,158.9,29.3,1523.0,10116.0,3.0,1,
180611,1840.0,104.0,161.4,27.9,1509.0,10216.0,4.0,1,
180711,1897.3,18.8,161.4,29.0,1447.0,9635.0,3.0,1,
180811,1860.4,9.5,161.3,35.4,1447.0,9635.0,3.0,1,
180911,1862.4,9.5,161.3,35.2,1447.0,9635.0,3.0,1,
181011,1862.3,9.1,161.3,30.3,1447.0,9635.0,3.0,1,
181111,1862.7,9.6,161.3,44.2,1447.0,9635.0,3.0,1,
181211,1862.8,10.6,161.3,147.6,1447.0,9635.0,3.0,1,
181311,1861.9,8.9,161.3,140.0,1447.0,9635.0,3.0,1,
181411,1861.9,9.5,161.3,140.8,1447.0,9635.0,3.0,1,
181611,1862.2,9.1,161.3,156.3,1447.0,9635.0,3.0,1,
181711,1900.2,161.2,170.7,35.8,1392.0,9404.0,4.0,1,
181811,1822.9,133.9,164.6,35.9,1447.0,10050.0,4.0,1,
181911,1864.3,194.5,163.8,36.7,1508.0,10779.0,5.0,1,
182011,1837.0,117.8,151.9,40.6,1467.0,10247.0,4.0,1,
182111,1918.8,162.6,133.4,36.1,1343.0,8965.0,3.0,1,
182211,1873.1,89.9,132.7,35.8,1381.0,9341.0,4.0,1,
182311,1844.3,25.1,132.2,37.3,1380.0,9124.0,4.0,1,
182411,1860.2,10.3,132.2,36.2,1380.0,9124.0,4.0,1,
182611,1862.6,9.4,132.2,30.1,1380.0,9124.0,4.0,1,
182711,1862.8,9.6,132.2,29.6,1380.0,9124.0,4.0,1,
182811,1863.0,8.7,132.2,130.1,1380.0,9124.0,4.0,1,
182911,1862.8,9.4,132.2,164.3,1380.0,9124.0,4.0,1,
183011,1862.5,10.5,132.2,178.0,1380.0,9124.0,4.0,1,
183111,1862.1,8.8,132.2,172.3,1380.0,9124.0,4.0,1,
183211,1861.6,9.4,132.2,111.0,1380.0,9124.0,4.0,1,
183311,1839.3,187.8,118.7,41.7,1228.0,8532.0,4.0,1,
183411,1880.6,276.3,139.9,41.3,1491.0,10126.0,4.0,1,
183611,1892.5,148.1,139.2,34.2,1330.0,9346.0,4.0,1,
183711,1836.6,85.8,133.4,35.8,1453.0,9920.0,4.0,1,
183811,1849.3,117.5,136.8,46.2,1414.0,9348.0,3.0,1,
183911,1893.8,59.1,143.1,36.1,1327.0,9017.0,4.0,1,
184011,1860.7,11.6,143.1,26.8,1327.0,9017.0,4.0,1,
184111,1861.5,9.9,143.1,27.6,1327.0,9017.0,4.0,1,
184211,1862.7,10.4,143.0,28.4,1327.0,9017.0,4.0,1,
184311,1862.8,9.1,143.1,29.6,1327.0,9017.0,4.0,1,
184411,1862.7,9.3,143.1,125.5,1327.0,9017.0,4.0,1,
184611,1862.5,8.7,143.1,154.5,1327.0,9017.0,4.0,1,
184711,1861.4,9.5,143.0,125.0,1327.0,9017.0,4.0,1,
184811,1861.9,10.2,143.0,116.3,1327.0,9017.0,4.0,1,
184911,1866.9,125.5,144.7,43.8,1053.0,7389.0,4.0,1,
185011,1868.0,143.8,126.9,39.0,1399.0,9613.0,4.0,1,
185111,1857.5,240.4,143.0,37.9,1363.0,9327.0,3.0,1,
185211,1839.5,91.4,138.4,36.5,1389.0,9705.0,4.0,1,
185311,1850.9,178.4,146.4,28.6,1433.0,9699.0,3.0,1,
185411,1914.5,119.7,149.6,29.8,1428.0,9823.0,4.0,1,
185611,1865.8,13.1,140.7,28.8,1428.0,9823.0,4.0,1,
185711,1861.5,10.3,140.7,34.6,1428.0,9823.0,4.0,1,
185811,1862.1,9.2,140.7,35.4,1428.0,9823.0,4.0,1,
185911,1861.4,9.7,140.7,34.8,1428.0,9823.0,4.0,1,
186011,1861.6,10.7,140.7,116.0,1428.0,9823.0,4.0,1,
186111,1862.8,9.5,140.7,136.1,1428.0,9823.0,4.0,1,
186211,1862.3,9.6,140.7,146.8,1428.0,9823.0,4.0,1,
186311,1862.0,10.3,140.7,150.9,1428.0,9823.0,4.0,1,
186411,1861.5,8.8,140.7,148.5,1428.0,9823.0,4.0,1,
186611,1859.6,168.7,146.8,35.6,1419.0,9762.0,4.0,1,
186711,1833.1,160.1,138.4,30.2,1504.0,10469.0,4.0,1,
186811,1922.9,194.5,136.7,34.2,1487.0,10140.0,3.0,1,
186911,1860.6,102.3,134.0,37.8,1542.0,10205.0,4.0,1,
187011,1837.0,109.6,129.0,37.2,1440.0,9505.0,3.0,1,
187111,1868.0,99.8,133.1,36.0,1379.0,9489.0,4.0,1,
187211,1875.0,16.0,133.1,35.7,1379.0,9489.0,4.0,1,
187311,1860.4,9.5,133.1,29.6,1379.0,9489.0,4.0,1,
187411,1861.4,9.9,133.1,34.3,1379.0,9489.0,4.0,1,
187611,1862.0,9.6,133.1,56.3,1379.0,9489.0,4.0,1,
187711,1862.0,10.1,133.1,156.4,1379.0,9489.0,4.0,1,
187811,1862.5,11.0,133.1,156.1,1379.0,9489.0,4.0,1,
187911,1861.9,9.5,133.1,122.8,1379.0,9489.0,4.0,1,
188011,1861.2,10.0,133.1,130.2,1379.0,9489.0,4.0,1,
188111,1861.3,47.4,133.1,154.0,1379.0,9489.0,4.0,1,
188211,1860.3,159.4,131.1,38.5,1321.0,9082.0,4.0,1,
188311,1896.4,225.0,134.2,35.8,1523.0,10271.0,4.0,1,
188411,1826.5,126.0,126.2,35.0,1440.0,9784.0,4.0,1,
188611,1844.1,117.8,142.2,35.0,1488.0,9993.0,4.0,1,
188711,1919.7,122.0,136.6,26.5,1418.0,9746.0,4.0,1,
188811,1841.3,18.7,136.8,27.2,1401.0,9324.0,3.0,1,
188911,1859.4,10.5,136.8,30.0,1401.0,9324.0,3.0,1,
189011,1861.8,11.1,136.8,30.0,1401.0,9324.0,3.0,1,
189111,1862.5,10.2,136.8,30.0,1401.0,9324.0,3.0,1,
189211,1862.2,10.5,136.8,45.7,1401.0,9324.0,3.0,1,
189311,1862.3,10.9,136.8,109.8,1401.0,9324.0,3.0,1,
189411,1862.0,10.0,136.8,134.5,1401.0,9324.0,3.0,1,
189611,1861.4,10.7,136.8,149.0,1401.0,9324.0,3.0,1,
189711,1861.6,11.8,136.8,143.2,1401.0,9324.0,3.0,1,
189811,1876.0,125.8,138.6,66.1,1335.0,9339.0,4.0,1,
189911,1836.9,107.1,136.7,38.1,1448.0,9820.0,4.0,1,
190011,1864.1,298.6,128.9,36.0,1494.0,10486.0,5.0,1,
190111,1905.4,124.5,128.7,65.6,1487.0,10147.0,4.0,1,
190211,1867.1,258.3,125.3,36.2,1480.0,9791.0,4.0,1,
190311,1847.8,101.5,140.1,35.7,1431.0,9662.0,4.0,1,
190411,1865.8,24.5,139.2,29.7,1388.0,9404.0,4.0,1,
190611,1862.0,9.8,139.2,35.2,1388.0,9404.0,4.0,1,
190711,1862.3,10.1,139.2,35.1,1388.0,9404.0,4.0,1,
190811,1862.6,10.8,139.2,34.9,1388.0,9404.0,4.0,1,
190911,1862.5,10.2,139.2,202.4,1388.0,9404.0,4.0,1,
191011,1861.4,10.7,139.2,175.0,1388.0,9404.0,4.0,1,
191111,1861.3,10.8,139.2,165.1,1388.0,9404.0,4.0,1,
191211,1861.6,10.4,139.2,135.5,1388.0,9404.0,4.0,1,
191311,1861.0,10.5,139.2,156.5,1388.0,9404.0,4.0,1,
191411,1829.1,134.1,140.0,47.1,1328.0,9377.0,4.0,1,
191611,1858.8,125.5,144.7,35.5,1528.0,10826.0,4.0,1,
191711,1847.3,228.8,149.5,30.1,1473.0,10230.0,5.0,1,
191811,1850.7,71.2,154.0,34.4,1405.0,9623.0,4.0,1,
191911,1850.7,252.9,133.3,27.8,1467.0,9783.0,4.0,1,
192011,1901.3,40.2,140.8,27.6,1403.0,9555.0,5.0,1,
192111,1859.6,10.9,140.8,30.0,1403.0,9555.0,5.0,1,
192211,1861.0,10.7,140.8,35.4,1403.0,9555.0,5.0,1,
192311,1861.7,11.1,140.8,36.1,1403.0,9555.0,5.0,1,
192411,1862.9,9.7,140.8,38.4,1403.0,9555.0,5.0,1,
192611,1861.2,10.8,140.8,163.5,1403.0,9555.0,5.0,1,
192711,1861.5,9.9,140.8,154.2,1403.0,9555.0,5.0,1,
192811,1861.1,10.3,140.8,142.3,1403.0,9555.0,5.0,1,
192911,1861.1,10.6,140.7,164.3,1403.0,9555.0,5.0,1,
193011,1889.4,168.1,150.2,37.6,1265.0,8733.0,4.0,1,
193111,1822.9,121.1,151.0,37.1,1423.0,9895.0,4.0,1,
193211,1864.1,201.6,146.0,37.9,1393.0,10243.0,4.0,1,
193311,1835.9,136.1,134.3,45.0,1487.0,10132.0,4.0,1,
193411,1928.2,165.3,140.7,38.6,1494.0,10051.0,3.0,1,
193611,1839.7,47.1,143.0,28.1,1387.0,9473.0,5.0,1,
193711,1861.9,12.4,142.9,28.8,1387.0,9473.0,5.0,1,
193811,1861.5,11.0,142.9,34.9,1387.0,9473.0,5.0,1,
193911,1862.2,10.0,142.9,35.2,1387.0,9473.0,5.0,1,
194011,1861.2,10.5,142.9,30.1,1387.0,9473.0,5.0,1,
194111,1862.8,10.9,142.9,150.1,1387.0,9473.0,5.0,1,
194211,1862.4,9.7,142.9,155.7,1387.0,9473.0,5.0,1,
194311,1861.3,10.4,142.9,150.0,1387.0,9473.0,5.0,1,
194411,1861.3,10.7,142.9,151.3,1387.0,9473.0,5.0,1,
194611,1847.3,56.5,134.6,66.3,1076.0,7567.0,4.0,1,
194711,1852.4,231.7,145.7,35.3,1369.0,9450.0,4.0,1,
194811,1894.4,154.8,145.1,34.4,1403.0,9874.0,4.0,1,
194911,1881.5,147.3,143.1,34.9,1397.0,10019.0,5.0,1,
195011,1832.1,89.9,135.1,37.5,1523.0,10262.0,4.0,1,
195111,1848.5,142.7,131.8,66.6,1468.0,9691.0,4.0,1,
195211,1883.4,79.0,132.3,36.1,1419.0,9445.0,4.0,1,
195311,1874.2,14.3,132.3,35.9,1419.0,9445.0,4.0,1,
195411,1861.1,9.8,132.3,29.9,1419.0,9445.0,4.0,1,
195611,1861.8,10.2,132.3,30.2,1419.0,9445.0,4.0,1,
195711,1862.4,9.4,132.3,122.8,1419.0,9445.0,4.0,1,
195811,1861.5,10.1,132.3,136.3,1419.0,9445.0,4.0,1,
195911,1860.9,10.4,132.3,133.4,1419.0,9445.0,4.0,1,
196011,1861.7,8.9,132.3,123.5,1419.0,9445.0,4.0,1,
196111,1860.8,10.6,132.3,131.6,1419.0,9445.0,4.0,1,
196211,1871.7,62.8,132.3,149.4,1419.0,9445.0,4.0,1,
196311,1856.8,149.6,121.3,37.9,1322.0,9061.0,4.0,1,
196411,1858.2,243.6,136.7,36.9,1413.0,9757.0,4.0,1,
196611,1859.1,139.7,134.5,28.6,1544.0,10321.0,4.0,1,
196711,1917.1,110.3,134.9,29.5,1490.0,9967.0,4.0,1,
196811,1841.4,196.2,139.0,65.8,1449.0,9478.0,3.0,1,
196911,1851.4,21.1,139.4,36.0,1449.0,9478.0,3.0,1,
197011,1859.7,10.9,139.4,36.1,1449.0,9478.0,3.0,1,
197111,1862.2,10.3,139.4,37.3,1449.0,9478.0,3.0,1,
197211,1861.9,8.9,139.4,36.3,1449.0,9478.0,3.0,1,
197311,1862.1,10.5,139.4,29.6,1449.0,9478.0,3.0,1,
197411,1861.9,10.3,139.4,204.3,1449.0,9478.0,3.0,1,
197611,1861.0,10.1,139.4,148.0,1449.0,9478.0,3.0,1,
197711,1861.5,10.4,139.4,175.9,1449.0,9478.0,3.0,1,
197811,1861.7,12.7,139.4,157.3,1449.0,9478.0,3.0,1,
197911,1870.2,191.3,150.2,30.1,1303.0,9034.0,3.0,1,
198011,1827.0,162.5,144.6,30.0,1564.0,10583.0,4.0,1,
198111,1933.5,334.1,153.8,34.5,1562.0,10699.0,3.0,1,
198211,1848.1,105.6,159.3,35.1,1536.0,10443.0,4.0,1,
198311,1838.7,75.3,157.0,28.2,1467.0,9822.0,4.0,1,
198411,1870.1,97.8,160.8,29.4,1376.0,9345.0,4.0,1,
198611,1859.7,10.3,152.1,30.3,1376.0,9345.0,4.0,1,
198711,1861.9,9.1,152.1,35.0,1376.0,9345.0,4.0,1,
198811,1861.4,10.0,152.1,35.5,1376.0,9345.0,4.0,1,
198911,1863.1,10.2,152.1,35.6,1376.0,9345.0,4.0,1,
199011,1862.2,8.9,152.1,151.7,1376.0,9345.0,4.0,1,
199111,1861.2,10.2,152.1,145.4,1376.0,9345.0,4.0,1,
199211,1860.7,9.6,152.1,164.6,1376.0,9345.0,4.0,1,
199311,1861.2,9.2,152.1,141.9,1376.0,9345.0,4.0,1,
199411,1860.8,15.1,152.1,122.8,1376.0,9345.0,4.0,1,
199611,1886.4,176.0,152.7,38.5,1510.0,10396.0,4.0,1,
199711,1823.7,130.2,140.4,39.5,1533.0,10460.0,4.0,1,
199811,1856.3,117.2,127.0,40.6,1532.0,10523.0,4.0,1,
199911,1860.3,133.6,134.3,47.5,1564.0,10474.0,4.0,1,
200011,1909.6,227.4,135.1,66.9,1434.0,9695.0,4.0,1,
200111,1849.1,34.0,138.4,36.4,1407.0,9792.0,5.0,1,
200211,1859.7,10.2,138.4,35.4,1407.0,9792.0,5.0,1,
200311,1861.0,9.9,138.4,28.1,1407.0,9792.0,5.0,1,
200411,1862.2,10.2,138.4,26.9,1407.0,9792.0,5.0,1,
200611,1862.2,10.3,138.4,116.4,1407.0,9792.0,5.0,1,
200711,1861.5,10.2,138.4,134.8,1407.0,9792.0,5.0,1,
200811,1861.0,8.4,138.4,147.7,1407.0,9792.0,5.0,1,
200911,1861.3,9.9,138.4,133.3,1407.0,9792.0,5.0,1,
201011,1862.0,10.3,138.4,132.1,1407.0,9792.0,5.0,1,
201111,1868.3,175.7,147.4,36.9,1323.0,8864.0,4.0,1,
201211,1840.2,119.7,135.2,34.9,1491.0,10226.0,4.0,1,
201311,1859.9,371.3,149.6,35.3,1583.0,10629.0,3.0,1,
201411,1910.8,133.8,157.2,35.8,1519.0,10278.0,4.0,1,
201611,1851.8,87.3,152.5,29.9,1437.0,9570.0,4.0,1,
201711,1864.3,42.0,144.3,40.1,1433.0,9691.0,4.0,1,
201811,1860.0,11.2,144.3,37.8,1433.0,9691.0,4.0,1,
201911,1861.8,9.8,144.3,35.3,1433.0,9691.0,4.0,1,
202011,1862.5,9.5,144.3,34.9,1433.0,9691.0,4.0,1,
202111,1862.4,9.9,144.3,34.6,1433.0,9691.0,4.0,1,
202211,1862.5,9.9,144.3,131.9,1433.0,9691.0,4.0,1,
202311,1862.0,9.1,144.3,135.2,1433.0,9691.0,4.0,1,
202411,1861.4,9.8,144.3,124.0,1433.0,9691.0,4.0,1,
202611,1861.5,9.3,144.3,131.7,1433.0,9691.0,4.0,1,
202711,1826.8,100.5,144.3,65.8,1096.0,7802.0,4.0,1,
202811,1921.4,269.6,153.1,42.7,1350.0,9848.0,4.0,1,
202911,1849.8,126.9,144.1,35.4,1519.0,10724.0,4.0,1,
203011,1841.2,166.7,139.5,28.8,1395.0,9578.0,4.0,1,
203111,1860.0,86.3,138.9,28.3,1535.0,10318.0,4.0,1,
203211,1845.7,114.0,134.8,35.9,1469.0,9889.0,4.0,1,
203311,1891.0,108.8,143.8,38.6,1368.0,9328.0,4.0,1,
203411,1869.3,14.2,143.7,37.0,1368.0,9328.0,4.0,1,
203611,1861.5,10.3,143.7,29.4,1368.0,9328.0,4.0,1,
203711,1862.3,9.6,143.7,29.7,1368.0,9328.0,4.0,1,
203811,1862.9,9.0,143.7,133.7,1368.0,9328.0,4.0,1,
203911,1861.5,10.4,143.7,132.7,1368.0,9328.0,4.0,1,
204011,1861.0,9.6,143.7,163.6,1368.0,9328.0,4.0,1,
204111,1861.5,8.5,143.7,141.3,1368.0,9328.0,4.0,1,
204211,1861.7,10.0,143.7,118.0,1368.0,9328.0,4.0,1,
204311,1883.7,148.0,148.5,38.2,1050.0,7189.0,4.0,1,
204411,1827.6,116.6,136.1,37.3,1351.0,9053.0,4.0,1,
204611,1856.6,144.6,135.9,43.3,1516.0,10425.0,4.0,1,
204711,1911.6,223.7,132.8,43.0,1533.0,10673.0,4.0,1,
204811,1862.9,169.7,148.0,35.7,1568.0,10350.0,4.0,1,
204911,1829.9,92.9,140.9,30.0,1444.0,9864.0,4.0,1,
205011,1872.2,14.9,140.5,29.0,1444.0,9864.0,4.0,1,
205111,1860.7,11.0,140.5,34.8,1444.0,9864.0,4.0,1,
205211,1861.8,10.3,140.5,35.3,1444.0,9864.0,4.0,1,
205311,1861.7,9.7,140.5,34.6,1444.0,9864.0,4.0,1,
205411,1862.6,10.4,140.5,53.1,1444.0,9864.0,4.0,1,
205611,1861.5,9.4,140.5,117.1,1444.0,9864.0,4.0,1,
205711,1860.7,11.0,140.5,111.4,1444.0,9864.0,4.0,1,
205811,1861.2,9.9,140.5,141.7,1444.0,9864.0,4.0,1,
205911,1861.6,7.9,140.5,165.5,1444.0,9864.0,4.0,1,
206011,1843.7,129.3,133.5,44.5,1211.0,8269.0,3.0,1,
206111,1908.2,177.5,145.3,36.4,1390.0,9729.0,4.0,1,
206211,1844.3,125.9,138.7,30.2,1435.0,10174.0,4.0,1,
206311,1852.5,124.9,141.4,34.6,1497.0,10311.0,4.0,1,
206411,1844.4,93.6,123.2,40.6,1552.0,10643.0,4.0,1,
206611,1876.5,26.1,130.6,40.3,1431.0,9804.0,4.0,1,
206711,1859.4,10.7,130.6,29.2,1431.0,9804.0,4.0,1,
206811,1861.9,9.7,130.6,29.4,1431.0,9804.0,4.0,1,
206911,1862.1,10.8,130.6,29.6,1431.0,9804.0,4.0,1,
207011,1862.7,9.8,130.6,37.2,1431.0,9804.0,4.0,1,
207111,1862.6,9.3,130.6,134.2,1431.0,9804.0,4.0,1,
207211,1861.6,10.6,130.6,122.1,1431.0,9804.0,4.0,1,
207311,1861.7,9.8,130.6,130.1,1431.0,9804.0,4.0,1,
207411,1861.4,9.7,130.6,125.1,1431.0,9804.0,4.0,1,
207611,1878.0,116.8,144.3,37.1,1248.0,8615.0,4.0,1,
207711,1827.9,210.1,132.7,37.6,1382.0,9825.0,4.0,1,
207811,1874.3,158.5,139.8,39.4,1421.0,9856.0,4.0,1,
207911,1842.6,129.3,139.1,40.5,1344.0,9782.0,4.0,1,
208011,1927.8,126.4,138.0,35.4,1282.0,9573.0,5.0,1,
208111,1838.8,83.3,137.8,66.6,1439.0,9847.0,4.0,1,
208211,1851.3,24.2,128.6,66.7,1449.0,9998.0,4.0,1,
208311,1860.1,9.8,128.6,48.5,1449.0,9998.0,4.0,1,
208411,1862.0,10.0,128.6,35.8,1449.0,9998.0,4.0,1,
208611,1862.3,9.8,128.6,35.0,1449.0,9998.0,4.0,1,
208711,1862.2,9.9,128.6,152.9,1449.0,9998.0,4.0,1,
208811,1861.8,10.1,128.6,166.9,1449.0,9998.0,4.0,1,
208911,1861.9,9.9,128.6,170.5,1449.0,9998.0,4.0,1,
209011,1862.1,10.6,128.6,134.1,1449.0,9998.0,4.0,1,
209111,1861.9,10.1,128.6,106.2,1449.0,9998.0,4.0,1,
209211,1843.7,205.7,132.0,53.8,1308.0,8916.0,3.0,1,
209311,1868.5,166.5,134.2,43.3,1434.0,9822.0,4.0,1,
209411,1897.5,140.8,126.2,29.9,1393.0,10075.0,4.0,1,
209611,1831.0,80.6,128.2,35.7,1545.0,10691.0,4.0,1,
209711,1863.4,92.5,127.2,41.1,1549.0,10231.0,4.0,1,
209811,1888.0,39.2,128.0,53.1,1452.0,9818.0,4.0,1,
209911,1860.2,11.6,128.0,65.9,1452.0,9818.0,4.0,1,
210011,1862.0,10.1,128.0,34.3,1452.0,9818.0,4.0,1,
210111,1863.0,9.6,128.0,30.2,1452.0,9818.0,4.0,1,
210211,1862.6,10.2,128.0,35.0,1452.0,9818.0,4.0,1,
210311,1863.4,10.0,128.0,123.7,1452.0,9818.0,4.0,1,
210411,1863.0,9.9,128.1,116.8,1452.0,9818.0,4.0,1,
210611,1861.6,10.0,128.1,117.0,1452.0,9818.0,4.0,1,
210711,1862.0,14.0,128.1,132.6,1452.0,9818.0,4.0,1,
210811,1881.5,109.2,122.2,47.1,1044.0,7280.0,4.0,1,
210911,1840.2,126.0,109.3,39.7,1458.0,10132.0,4.0,1,
211011,1856.1,163.0,116.4,37.8,1473.0,10213.0,4.0,1,
211111,1847.1,112.9,116.5,42.7,1499.0,10486.0,4.0,1,
211211,1879.1,303.5,125.7,34.9,1574.0,10679.0,5.0,1,
211311,1896.9,119.4,136.4,30.2,1461.0,9971.0,4.0,1,
211411,1828.2,56.7,136.1,27.9,1374.0,9699.0,4.0,1,
211611,1862.3,9.0,136.0,35.5,1374.0,9699.0,4.0,1,
211711,1862.4,9.8,136.0,35.8,1374.0,9699.0,4.0,1,
211811,1863.1,9.7,136.0,35.4,1374.0,9699.0,4.0,1,
211911,1864.8,9.8,136.0,99.4,1374.0,9699.0,4.0,1,
212011,1862.0,10.1,136.0,101.7,1374.0,9699.0,4.0,1,
212111,1861.0,10.7,136.0,136.5,1374.0,9699.0,4.0,1,
212211,1862.0,10.0,136.0,133.4,1374.0,9699.0,4.0,1,
212311,1863.6,18.6,136.1,99.6,1374.0,9699.0,4.0,1,
212411,1854.8,75.2,137.2,54.4,1253.0,8768.0,4.0,1,
212611,1842.5,140.8,137.0,36.0,1575.0,10357.0,4.0,1,
212711,1933.4,208.1,136.8,36.0,1601.0,10955.0,4.0,1,
212811,1830.8,96.2,129.7,66.8,1650.0,11163.0,4.0,1,
212911,1854.8,118.8,129.3,37.1,1453.0,10260.0,5.0,1,
213011,1867.5,92.0,130.1,35.0,1486.0,10125.0,4.0,1,
213111,1877.1,13.6,130.1,30.1,1486.0,10125.0,4.0,1,
213211,1861.3,10.3,130.1,29.6,1486.0,10125.0,4.0,1,
213311,1862.2,9.4,130.1,30.3,1486.0,10125.0,4.0,1,
213411,1862.8,9.8,130.1,35.4,1486.0,10125.0,4.0,1,
213611,1863.9,9.8,130.1,148.5,1486.0,10125.0,4.0,1,
213711,1863.4,9.4,130.1,130.7,1486.0,10125.0,4.0,1,
213811,1862.3,10.2,130.1,130.1,1486.0,10125.0,4.0,1,
213911,1861.7,9.8,130.1,139.1,1486.0,10125.0,4.0,1,
214011,1846.1,89.4,130.1,99.8,1486.0,10125.0,4.0,1,
214111,1891.0,283.1,136.4,38.6,1356.0,9656.0,4.0,1,
214211,1862.7,126.3,141.9,37.7,1465.0,9963.0,4.0,1,
214311,1828.4,89.2,140.2,38.7,1445.0,9963.0,4.0,1,
214411,1875.6,189.9,133.6,39.2,1537.0,10355.0,5.0,1,
214611,1907.3,148.9,132.6,47.9,1392.0,9559.0,4.0,1,
214711,1840.0,19.8,132.5,35.9,1392.0,9559.0,4.0,1,
214811,1860.8,10.7,132.5,35.1,1392.0,9559.0,4.0,1,
214911,1862.7,9.7,132.5,27.2,1392.0,9559.0,4.0,1,
215011,1863.2,10.6,132.6,26.6,1392.0,9559.0,4.0,1,
215111,1863.7,9.5,132.6,51.0,1392.0,9559.0,4.0,1,
215211,1864.0,9.4,132.6,154.9,1392.0,9559.0,4.0,1,
215311,1863.0,9.9,132.6,123.0,1392.0,9559.0,4.0,1,
215411,1862.5,9.5,132.5,123.7,1392.0,9559.0,4.0,1,
215611,1862.0,14.8,132.6,117.4,1392.0,9559.0,4.0,1,
215711,1860.3,122.3,135.5,37.0,1432.0,10005.0,4.0,1,
215811,1840.5,119.6,121.4,35.6,1505.0,10254.0,4.0,1,
215911,1880.8,137.5,121.9,35.7,1559.0,11198.0,5.0,1,
216011,1896.1,112.6,122.2,65.7,1474.0,10487.0,4.0,1,
216111,1859.1,124.9,119.8,66.8,1468.0,10148.0,5.0,1,
216211,1839.3,74.6,109.0,66.2,1340.0,9494.0,4.0,1,
216311,1868.7,23.3,108.9,65.8,1350.0,9654.0,4.0,1,
216411,1859.9,9.9,108.9,35.3,1350.0,9654.0,4.0,1,
216611,1862.5,10.3,108.9,34.3,1350.0,9654.0,4.0,1,
216711,1863.5,9.7,108.9,34.9,1350.0,9654.0,4.0,1,
216811,1862.1,10.0,108.8,109.4,1350.0,9654.0,4.0,1,
216911,1862.5,10.0,108.8,111.3,1350.0,9654.0,4.0,1,
217011,1861.6,9.8,108.8,141.7,1350.0,9654.0,4.0,1,
217111,1861.3,10.6,108.8,140.7,1350.0,9654.0,4.0,1,
217211,1861.8,10.9,108.8,166.8,1350.0,9654.0,4.0,1,
217311,1846.8,184.9,105.3,54.2,1066.0,7486.0,4.0,1,
217411,1914.3,174.0,117.6,34.8,1360.0,9194.0,4.0,1,
217611,1860.3,214.4,140.6,34.8,1560.0,10668.0,4.0,1,
217711,1851.4,96.6,140.0,34.6,1528.0,10326.0,4.0,1,
217811,1881.0,156.0,143.9,28.8,1426.0,9688.0,3.0,1,
217911,1867.9,42.7,146.7,34.3,1390.0,9684.0,4.0,1,
218011,1859.8,11.3,146.7,28.0,1390.0,9684.0,4.0,1,
218111,1861.7,9.7,146.7,27.9,1390.0,9684.0,4.0,1,
218211,1862.4,9.3,146.7,28.6,1390.0,9684.0,4.0,1,
218311,1862.5,10.0,146.7,30.0,1390.0,9684.0,4.0,1,
218411,1863.2,9.7,146.7,123.4,1390.0,9684.0,4.0,1,
218611,1861.1,10.6,146.7,143.1,1390.0,9684.0,4.0,1,
218711,1861.7,10.1,146.7,130.4,1390.0,9684.0,4.0,1,
218811,1861.3,9.6,146.7,132.0,1390.0,9684.0,4.0,1,
218911,1869.5,90.0,148.9,43.8,1092.0,7448.0,4.0,1,
219011,1829.3,114.1,137.0,41.9,1317.0,8859.0,4.0,1,
219111,1873.2,209.7,144.4,44.0,1536.0,10785.0,4.0,1,
219211,1856.4,122.2,130.7,40.5,1540.0,10434.0,4.0,1,
219311,1918.9,155.2,129.7,29.5,1511.0,10368.0,5.0,1,
219411,1835.4,84.7,126.5,30.3,1476.0,10053.0,4.0,1,
219611,1861.1,11.7,122.0,43.3,1476.0,10053.0,4.0,1,
219711,1861.6,10.3,122.0,37.1,1476.0,10053.0,4.0,1,
219811,1862.1,9.9,122.0,34.7,1476.0,10053.0,4.0,1,
219911,1863.0,9.8,122.0,29.9,1476.0,10053.0,4.0,1,
220011,1863.3,9.8,122.0,117.1,1476.0,10053.0,4.0,1,
220111,1861.9,9.7,122.0,150.8,1476.0,10053.0,4.0,1,
220211,1862.2,9.7,122.0,169.0,1476.0,10053.0,4.0,1,
220311,1861.8,9.4,122.0,206.4,1476.0,10053.0,4.0,1,
220411,1860.9,10.4,122.0,204.5,1476.0,10053.0,4.0,1,
220611,1867.9,165.2,127.9,46.2,1312.0,8958.0,4.0,1,
220711,1886.2,126.4,124.5,29.8,1362.0,9392.0,4.0,1,
220811,1861.8,215.5,132.6,29.8,1414.0,9707.0,4.0,1,
220911,1836.2,82.1,124.4,36.5,1515.0,10313.0,4.0,1,
221011,1859.0,106.4,123.1,30.2,1515.0,10334.0,4.0,1,
221111,1880.4,78.6,126.4,35.6,1500.0,9983.0,4.0,1,
221211,1871.6,13.4,126.3,65.6,1500.0,9983.0,4.0,1,
221311,1860.9,10.1,126.3,36.2,1500.0,9983.0,4.0,1,
221411,1862.3,9.8,126.3,35.7,1500.0,9983.0,4.0,1,
221611,1863.2,10.4,126.3,132.8,1500.0,9983.0,4.0,1,
221711,1862.3,9.8,126.3,133.0,1500.0,9983.0,4.0,1,
221811,1861.9,9.8,126.3,116.4,1500.0,9983.0,4.0,1,
221911,1861.3,9.9,126.3,116.8,1500.0,9983.0,4.0,1,
222011,1861.5,9.7,126.3,133.3,1500.0,9983.0,4.0,1,
222111,1882.6,58.5,126.3,147.7,1050.0,7394.0,4.0,1,
222211,1836.2,144.3,119.9,42.8,1326.0,9123.0,4.0,1,
222311,1861.8,223.8,133.5,38.3,1434.0,9680.0,4.0,1,
222411,1849.3,112.4,134.0,35.7,1506.0,10348.0,4.0,1,
222611,1886.8,111.9,126.1,28.6,1536.0,10477.0,4.0,1,
222711,1834.2,176.8,131.2,38.2,1436.0,9515.0,3.0,1,
222811,1860.3,20.2,130.7,39.1,1436.0,9515.0,3.0,1,
222911,1861.1,10.3,130.7,37.9,1436.0,9515.0,3.0,1,
223011,1862.5,9.3,130.7,37.8,1436.0,9515.0,3.0,1,
223111,1862.9,10.3,130.7,36.8,1436.0,9515.0,3.0,1,
223211,1862.6,9.8,130.7,36.2,1436.0,9515.0,3.0,1,
223311,1862.3,9.2,130.7,201.4,1436.0,9515.0,3.0,1,
223411,1861.8,10.0,130.7,168.4,1436.0,9515.0,3.0,1,
223611,1861.8,9.5,130.7,175.2,1436.0,9515.0,3.0,1,
223711,1861.7,20.6,130.7,168.8,1436.0,9515.0,3.0,1,
223811,1873.9,179.5,141.3,29.7,1151.0,7746.0,3.0,1,
223911,1848.0,146.1,136.7,29.7,1388.0,9503.0,4.0,1,
224011,1909.4,144.8,127.9,34.2,1403.0,10056.0,5.0,1,
224111,1837.6,112.4,130.0,36.0,1566.0,10869.0,4.0,1,
224211,1843.7,109.9,131.1,37.6,1553.0,10291.0,4.0,1,
224311,1878.4,100.3,131.4,35.5,1485.0,10220.0,4.0,1,
224411,1875.6,20.2,123.6,47.1,1480.0,10037.0,4.0,1,
224611,1862.2,10.1,123.6,34.6,1480.0,10037.0,4.0,1,
224711,1862.1,10.0,123.6,34.7,1480.0,10037.0,4.0,1,
224811,1862.2,9.6,123.6,42.3,1480.0,10037.0,4.0,1,
224911,1861.8,9.9,123.6,137.9,1480.0,10037.0,4.0,1,
225011,1863.1,9.7,123.6,158.4,1480.0,10037.0,4.0,1,
225111,1862.0,9.7,123.6,171.0,1480.0,10037.0,4.0,1,
225211,1861.2,10.1,123.6,166.8,1480.0,10037.0,4.0,1,
225311,1861.2,12.9,123.6,166.1,1480.0,10037.0,4.0,1,
225411,1872.3,107.3,117.4,43.5,1196.0,8149.0,4.0,1,
225611,1839.2,114.4,117.8,36.0,1526.0,10977.0,4.0,1,
225711,1847.5,276.6,113.0,65.7,1412.0,10065.0,4.0,1,
225811,1897.7,136.6,122.3,66.8,1523.0,10368.0,4.0,1,
225911,1869.7,122.4,120.8,45.2,1406.0,9929.0,4.0,1,
226011,1846.1,38.7,126.7,42.2,1406.0,9719.0,4.0,1,
226111,1859.1,11.7,126.7,44.9,1406.0,9719.0,4.0,1,
226211,1861.5,10.1,126.7,39.8,1406.0,9719.0,4.0,1,
226311,1862.7,9.4,126.7,38.1,1406.0,9719.0,4.0,1,
226411,1862.8,9.7,126.7,36.0,1406.0,9719.0,4.0,1,
226611,1861.7,10.0,126.7,150.8,1406.0,9719.0,4.0,1,
226711,1861.1,10.6,126.7,166.2,1406.0,9719.0,4.0,1,
226811,1861.0,9.6,126.7,183.3,1406.0,9719.0,4.0,1,
226911,1863.0,16.6,126.7,197.0,1406.0,9719.0,4.0,1,
227011,1863.3,208.8,128.6,38.7,1177.0,8344.0,4.0,1,
227111,1854.5,144.8,136.4,29.8,1406.0,9875.0,4.0,1,
227211,1874.0,278.7,136.0,30.0,1413.0,10315.0,4.0,1,
227311,1895.1,145.9,141.6,34.9,1385.0,10051.0,4.0,1,
227411,1826.1,143.4,132.5,37.4,1416.0,9925.0,4.0,1,
227611,1870.3,42.7,143.6,36.0,1299.0,9121.0,4.0,1,
227711,1859.8,10.9,143.6,29.7,1299.0,9121.0,4.0,1,
227811,1861.8,9.8,143.6,34.4,1299.0,9121.0,4.0,1,
227911,1862.4,9.9,143.6,35.3,1299.0,9121.0,4.0,1,
228011,1862.8,9.2,143.6,36.8,1299.0,9121.0,4.0,1,
228111,1863.1,9.8,143.6,125.4,1299.0,9121.0,4.0,1,
228211,1862.1,9.8,143.6,141.2,1299.0,9121.0,4.0,1,
228311,1861.8,9.8,143.6,140.2,1299.0,9121.0,4.0,1,
228411,1861.5,9.9,143.6,125.8,1299.0,9121.0,4.0,1,
228611,1849.4,91.7,143.0,76.2,1035.0,7119.0,4.0,1,
228711,1901.5,189.0,142.2,38.5,1395.0,9580.0,4.0,1,
228811,1842.3,138.1,153.5,36.9,1502.0,10478.0,4.0,1,
228911,1836.0,148.7,143.3,29.0,1474.0,10106.0,4.0,1,
229011,1879.1,147.9,147.2,28.9,1608.0,10758.0,4.0,1,
229111,1874.6,114.9,134.4,37.2,1471.0,10048.0,4.0,1,
229211,1862.4,77.7,138.5,44.9,1313.0,9464.0,5.0,1,
229311,1866.9,13.1,138.4,35.8,1313.0,9464.0,5.0,1,
229411,1861.8,10.4,138.4,34.7,1313.0,9464.0,5.0,1,
229611,1862.6,9.9,138.4,27.1,1313.0,9464.0,5.0,1,
229711,1863.1,10.3,138.4,123.7,1313.0,9464.0,5.0,1,
229811,1862.8,9.8,138.4,134.6,1313.0,9464.0,5.0,1,
229911,1861.6,10.0,138.4,170.4,1313.0,9464.0,5.0,1,
230011,1860.7,10.0,138.4,167.8,1313.0,9464.0,5.0,1,
230111,1862.0,9.2,138.4,146.2,1313.0,9464.0,5.0,1,
230211,1881.9,108.5,138.9,146.9,1016.0,7348.0,4.0,1,
230311,1836.5,118.7,135.8,34.9,1370.0,9605.0,4.0,1,
230411,1850.2,322.1,122.1,35.3,1443.0,9587.0,4.0,1,
230611,1871.7,137.7,132.8,36.6,1556.0,10955.0,4.0,1,
230711,1855.0,152.7,148.3,35.8,1562.0,10426.0,4.0,1,
230811,1844.3,79.2,138.7,35.2,1569.0,10372.0,4.0,1,
230911,1874.4,14.0,138.6,28.6,1569.0,10372.0,4.0,1,
231011,1861.0,10.3,138.6,30.1,1569.0,10372.0,4.0,1,
231111,1862.7,9.4,138.6,35.7,1569.0,10372.0,4.0,1,
231211,1862.1,10.2,138.6,36.4,1569.0,10372.0,4.0,1,
231311,1862.5,9.4,138.6,73.3,1569.0,10372.0,4.0,1,
231411,1863.0,9.6,138.6,168.3,1569.0,10372.0,4.0,1,
231611,1862.4,10.1,138.6,170.0,1569.0,10372.0,4.0,1,
231711,1862.2,9.9,138.6,134.9,1569.0,10372.0,4.0,1,
231811,1861.7,39.9,138.6,122.8,1569.0,10372.0,4.0,1,
231911,1867.5,180.8,138.1,43.1,1311.0,9274.0,3.0,1,
232011,1888.4,156.5,149.3,38.9,1367.0,9197.0,4.0,1,
232111,1829.2,140.6,136.3,29.6,1421.0,10221.0,4.0,1,
232211,1868.6,135.3,144.2,29.6,1394.0,9564.0,3.0,1,
232311,1833.1,106.6,131.3,37.9,1381.0,9664.0,4.0,1,
232411,1923.2,357.3,159.0,34.6,1408.0,9473.0,4.0,1,
232611,1860.5,10.8,165.2,27.8,1408.0,9473.0,4.0,1,
232711,1862.0,9.8,165.2,28.9,1408.0,9473.0,4.0,1,
232811,1862.1,9.2,165.2,29.6,1408.0,9473.0,4.0,1,
232911,1863.5,9.5,165.2,36.2,1408.0,9473.0,4.0,1,
233011,1863.0,9.7,165.2,143.7,1408.0,9473.0,4.0,1,
233111,1862.2,9.7,165.2,133.3,1408.0,9473.0,4.0,1,
233211,1862.1,9.6,165.2,138.4,1408.0,9473.0,4.0,1,
233311,1862.2,9.9,165.2,132.1,1408.0,9473.0,4.0,1,
233411,1862.1,26.1,165.2,135.1,1408.0,9473.0,4.0,1,
233611,1830.6,417.8,174.6,39.1,1604.0,11294.0,3.0,1,
233711,1879.1,172.1,187.8,42.3,1645.0,11308.0,4.0,1,
233811,1878.3,122.8,185.1,42.0,1579.0,10720.0,4.0,1,
233911,1893.5,226.4,190.4,37.9,1391.0,9665.0,3.0,1,
234011,1830.4,77.2,172.2,39.3,1461.0,9911.0,4.0,1,
234111,1862.0,22.5,160.3,29.5,1430.0,9760.0,4.0,1,
234211,1859.8,10.4,160.3,34.9,1430.0,9760.0,4.0,1,
234311,1861.8,9.3,160.3,35.8,1430.0,9760.0,4.0,1,
234411,1862.0,10.0,160.3,35.6,1430.0,9760.0,4.0,1,
234611,1863.2,9.4,160.3,153.5,1430.0,9760.0,4.0,1,
234711,1862.1,10.0,160.3,140.1,1430.0,9760.0,4.0,1,
234811,1860.8,10.2,160.3,137.5,1430.0,9760.0,4.0,1,
234911,1861.6,10.0,160.3,135.8,1430.0,9760.0,4.0,1,
235011,1862.0,9.8,160.3,136.2,1430.0,9760.0,4.0,1,
235111,1849.8,322.6,153.5,56.7,1274.0,8516.0,3.0,1,
235211,1883.8,177.1,168.8,30.1,1375.0,9755.0,4.0,1,
235311,1874.2,161.8,142.8,29.9,1481.0,10517.0,4.0,1,
235411,1852.8,129.5,152.3,34.3,1555.0,10633.0,4.0,1,
235611,1864.1,256.9,143.2,35.6,1438.0,10064.0,5.0,1,
235711,1893.4,38.6,148.7,39.4,1412.0,9618.0,4.0,1,
235811,1859.9,11.3,148.7,29.6,1412.0,9618.0,4.0,1,
235911,1861.8,10.3,148.7,30.1,1412.0,9618.0,4.0,1,
236011,1861.8,10.0,148.7,35.7,1412.0,9618.0,4.0,1,
236111,1862.9,10.1,148.7,38.5,1412.0,9618.0,4.0,1,
236211,1861.7,10.2,148.7,174.1,1412.0,9618.0,4.0,1,
236311,1860.9,10.1,148.7,155.0,1412.0,9618.0,4.0,1,
236411,1861.2,9.8,148.7,106.6,1412.0,9618.0,4.0,1,
236611,1861.8,10.4,148.7,123.2,1412.0,9618.0,4.0,1,
236711,1875.7,79.3,147.5,53.5,1074.0,7196.0,4.0,1,
236811,1839.0,126.2,127.2,36.5,1365.0,8829.0,3.0,1,
236911,1856.1,134.8,132.8,37.2,1542.0,10698.0,4.0,1,
237011,1840.4,128.8,123.3,36.6,1581.0,10973.0,4.0,1,
237111,1923.5,172.7,132.1,29.7,1656.0,10936.0,5.0,1,
237211,1854.0,97.8,130.8,36.1,1387.0,9643.0,4.0,1,
237311,1845.0,63.2,124.4,39.8,1403.0,9486.0,3.0,1,
237411,1863.3,13.5,124.4,65.8,1403.0,9486.0,3.0,1,
237611,1862.4,9.6,124.4,37.8,1403.0,9486.0,3.0,1,
237711,1862.5,10.3,124.4,36.7,1403.0,9486.0,3.0,1,
237811,1861.8,10.1,124.4,109.5,1403.0,9486.0,3.0,1,
237911,1863.3,10.0,124.4,151.6,1403.0,9486.0,3.0,1,
238011,1862.0,10.5,124.4,135.4,1403.0,9486.0,3.0,1,
238111,1860.9,10.5,124.4,134.8,1403.0,9486.0,3.0,1,
238211,1861.5,9.7,124.4,130.6,1403.0,9486.0,3.0,1,
238311,1862.1,231.7,124.7,66.8,1003.0,7055.0,3.0,1,
238411,1861.3,128.7,138.3,30.3,1371.0,8979.0,4.0,1,
238611,1888.0,155.9,136.4,35.9,1597.0,11045.0,4.0,1,
238711,1824.2,92.1,128.6,41.6,1536.0,10571.0,4.0,1,
238811,1876.1,147.1,138.3,29.9,1421.0,9940.0,5.0,1,
238911,1857.1,79.9,137.6,36.4,1435.0,9846.0,4.0,1,
239011,1874.6,13.7,137.6,36.6,1435.0,9846.0,4.0,1,
239111,1861.3,9.6,137.6,36.1,1435.0,9846.0,4.0,1,
239211,1862.4,10.1,137.6,36.0,1435.0,9846.0,4.0,1,
239311,1862.2,10.1,137.6,35.5,1435.0,9846.0,4.0,1,
239411,1862.9,9.6,137.6,101.8,1435.0,9846.0,4.0,1,
239611,1862.3,10.1,137.6,133.3,1435.0,9846.0,4.0,1,
239711,1861.7,9.5,137.6,123.9,1435.0,9846.0,4.0,1,
239811,1861.5,9.8,137.6,116.3,1435.0,9846.0,4.0,1,
239911,1863.3,64.8,137.6,116.9,1435.0,9846.0,4.0,1,
240011,1881.9,143.1,125.9,36.3,1299.0,9121.0,3.0,1,
240111,1848.5,135.1,138.9,34.7,1529.0,10577.0,4.0,1,
240211,1835.3,309.5,132.1,30.1,1506.0,10620.0,4.0,1,
240311,1867.7,186.0,157.5,34.4,1557.0,10605.0,5.0,1,
240411,1903.9,110.4,147.0,37.4,1604.0,10626.0,4.0,1,
240611,1846.4,16.3,147.3,45.7,1604.0,10626.0,4.0,1,
240711,1860.8,10.9,147.3,47.2,1604.0,10626.0,4.0,1,
240811,1861.9,10.4,147.3,35.1,1604.0,10626.0,4.0,1,
240911,1862.4,9.3,147.3,30.0,1604.0,10626.0,4.0,1,
241011,1864.4,11.3,147.3,50.3,1604.0,10626.0,4.0,1,
241111,1862.6,10.2,147.3,133.0,1604.0,10626.0,4.0,1,
241211,1861.7,9.6,147.3,155.0,1604.0,10626.0,4.0,1,
241311,1861.7,10.3,147.3,170.5,1604.0,10626.0,4.0,1,
241411,1861.6,10.3,147.3,143.1,1604.0,10626.0,4.0,1,
241611,1856.8,107.6,147.4,36.2,1201.0,8405.0,4.0,1,
241711,1844.5,219.2,135.3,35.7,1395.0,9394.0,4.0,1,
241811,1908.5,180.3,144.5,35.9,1408.0,9675.0,4.0,1,
241911,1857.3,111.8,115.1,36.8,1458.0,10347.0,4.0,1,
242011,1856.0,150.8,120.3,29.3,1524.0,10565.0,5.0,1,
242111,1850.2,76.8,120.0,36.0,1419.0,9852.0,4.0,1,
242211,1871.8,21.4,120.2,65.9,1415.0,9860.0,4.0,1,
242311,1859.3,10.7,120.2,65.5,1415.0,9860.0,4.0,1,
242411,1862.2,9.5,120.2,35.7,1415.0,9860.0,4.0,1,
242611,1862.9,9.8,120.2,35.3,1415.0,9860.0,4.0,1,
242711,1862.7,9.5,120.2,132.5,1415.0,9860.0,4.0,1,
242811,1862.8,10.7,120.2,145.2,1415.0,9860.0,4.0,1,
242911,1861.7,9.9,120.2,148.2,1415.0,9860.0,4.0,1,
243011,1860.3,10.4,120.2,131.7,1415.0,9860.0,4.0,1,
243111,1862.4,17.0,120.2,53.3,1415.0,9860.0,4.0,1,
243211,1871.7,170.1,121.3,46.0,1323.0,8898.0,4.0,1,
243311,1883.8,159.4,127.7,36.7,1486.0,10178.0,4.0,1,
243411,1822.4,206.9,118.4,35.4,1518.0,10482.0,4.0,1,
243611,1831.5,128.4,136.1,34.6,1520.0,10616.0,4.0,1,
243711,1932.8,130.5,136.0,27.9,1427.0,9752.0,4.0,1,
243811,1846.3,38.0,138.6,29.5,1367.0,9564.0,4.0,1,
243911,1860.2,10.2,138.6,40.1,1367.0,9564.0,4.0,1,
244011,1862.2,9.8,138.6,34.6,1367.0,9564.0,4.0,1,
244111,1862.2,10.0,138.6,30.3,1367.0,9564.0,4.0,1,
244211,1863.7,10.1,138.6,29.9,1367.0,9564.0,4.0,1,
244311,1864.8,11.3,138.6,149.2,1367.0,9564.0,4.0,1,
244411,1862.1,9.6,138.6,158.0,1367.0,9564.0,4.0,1,
244611,1861.1,10.4,138.6,142.7,1367.0,9564.0,4.0,1,
244711,1862.1,10.3,138.5,139.1,1367.0,9564.0,4.0,1,
244811,1859.8,86.3,139.8,50.7,1151.0,8169.0,4.0,1,
244911,1836.0,221.8,132.8,41.3,1411.0,9728.0,4.0,1,
245011,1863.5,205.1,145.4,44.0,1531.0,11056.0,4.0,1,
245111,1902.0,134.7,134.4,37.5,1472.0,10499.0,4.0,1,
245211,1883.3,100.7,125.1,35.5,1503.0,10299.0,5.0,1,
245311,1831.6,72.6,123.8,46.9,1477.0,10001.0,4.0,1,
245411,1864.7,41.6,119.6,67.0,1390.0,9693.0,4.0,1,
245611,1861.5,9.9,119.5,36.7,1390.0,9693.0,4.0,1,
245711,1861.7,10.0,119.5,35.3,1390.0,9693.0,4.0,1,
245811,1863.2,11.0,119.5,35.1,1390.0,9693.0,4.0,1,
245911,1862.8,9.8,119.5,134.8,1390.0,9693.0,4.0,1,
246011,1862.3,9.4,119.5,138.9,1390.0,9693.0,4.0,1,
246111,1862.2,11.3,119.5,156.6,1390.0,9693.0,4.0,1,
246211,1861.2,10.3,119.5,183.2,1390.0,9693.0,4.0,1,
246311,1861.7,14.7,119.6,118.1,1390.0,9693.0,4.0,1,
246411,1866.3,115.6,119.0,52.1,1023.0,6585.0,3.0,1,
246611,1860.4,316.1,128.6,30.1,1575.0,10436.0,3.0,1,
246711,1854.8,172.5,146.2,35.4,1663.0,11348.0,4.0,1,
246811,1840.4,78.7,145.6,42.5,1510.0,10586.0,4.0,1,
246911,1867.9,307.5,148.7,42.7,1422.0,9978.0,5.0,1,
247011,1881.2,73.6,158.7,40.9,1424.0,9769.0,4.0,1,
247111,1869.6,13.6,158.6,29.4,1424.0,9769.0,4.0,1,
247211,1861.4,9.7,158.6,34.4,1424.0,9769.0,4.0,1,
247311,1862.5,10.6,158.6,35.6,1424.0,9769.0,4.0,1,
247411,1862.9,10.2,158.6,37.1,1424.0,9769.0,4.0,1,
247611,1863.5,10.5,158.6,123.2,1424.0,9769.0,4.0,1,
247711,1861.2,9.8,158.6,136.6,1424.0,9769.0,4.0,1,
247811,1860.7,9.5,158.6,151.3,1424.0,9769.0,4.0,1,
247911,1862.2,10.4,158.6,168.3,1424.0,9769.0,4.0,1,
248011,1877.5,69.8,158.8,70.7,943.0,6243.0,3.0,1,
248111,1833.3,247.8,154.0,42.2,1420.0,9331.0,3.0,1,
248211,1859.4,151.5,168.8,41.0,1611.0,11128.0,4.0,1,
248311,1831.6,128.0,145.7,34.4,1510.0,10621.0,4.0,1,
248411,1941.6,218.8,150.1,35.2,1631.0,11018.0,5.0,1,
248611,1852.7,113.0,143.1,43.6,1397.0,9861.0,5.0,1,
248711,1869.3,15.6,142.4,42.9,1397.0,9861.0,5.0,1,
248811,1860.7,10.9,142.4,35.7,1397.0,9861.0,5.0,1,
248911,1862.5,9.9,142.4,29.1,1397.0,9861.0,5.0,1,
249011,1862.3,10.0,142.4,28.3,1397.0,9861.0,5.0,1,
249111,1863.9,11.3,142.4,57.2,1397.0,9861.0,5.0,1,
249211,1863.8,10.0,142.4,168.7,1397.0,9861.0,5.0,1,
249311,1862.7,10.2,142.4,202.2,1397.0,9861.0,5.0,1,
249411,1860.8,10.3,142.4,149.4,1397.0,9861.0,5.0,1,
249611,1862.0,10.6,142.3,147.0,1397.0,9861.0,5.0,1,
249711,1844.0,148.4,144.9,34.3,1212.0,8218.0,4.0,1,
249811,1900.2,258.9,127.8,34.7,1439.0,9906.0,4.0,1,
249911,1879.3,211.5,144.1,35.3,1560.0,10607.0,4.0,1,
250011,1823.3,88.5,138.6,27.9,1625.0,11018.0,4.0,1,
250111,1875.6,167.6,135.6,28.2,1474.0,10201.0,5.0,1,
250211,1841.0,110.8,134.3,29.2,1420.0,9721.0,4.0,1,
250311,1890.9,19.3,134.0,66.0,1405.0,9600.0,4.0,1,
250411,1860.4,10.3,134.0,36.1,1405.0,9600.0,4.0,1,
250611,1862.1,10.5,134.0,35.5,1405.0,9600.0,4.0,1,
250711,1863.0,10.4,134.0,56.7,1405.0,9600.0,4.0,1,
250811,1864.2,9.5,134.0,112.9,1405.0,9600.0,4.0,1,
250911,1862.2,10.4,134.0,116.2,1405.0,9600.0,4.0,1,
251011,1860.7,10.5,134.0,146.8,1405.0,9600.0,4.0,1,
251111,1861.7,9.5,134.0,147.0,1405.0,9600.0,4.0,1,
251211,1862.0,10.4,134.0,147.2,1405.0,9600.0,4.0,1,
251311,1879.7,100.9,131.4,39.1,1195.0,8240.0,3.0,1,
251411,1848.8,118.2,136.6,35.5,1362.0,9505.0,4.0,1,
251611,1865.7,147.5,126.6,34.5,1470.0,10226.0,5.0,1,
251711,1908.2,108.5,123.1,36.0,1505.0,9980.0,4.0,1,
251811,1866.1,129.3,119.7,39.2,1412.0,9729.0,5.0,1,
251911,1852.6,32.4,124.8,43.8,1409.0,9600.0,4.0,1,
252011,1859.5,10.5,124.8,29.9,1409.0,9600.0,4.0,1,
252111,1862.3,11.3,124.8,29.7,1409.0,9600.0,4.0,1,
252211,1862.5,9.9,124.8,29.8,1409.0,9600.0,4.0,1,
252311,1862.8,9.9,124.8,30.2,1409.0,9600.0,4.0,1,
252411,1863.7,12.0,124.8,142.9,1409.0,9600.0,4.0,1,
252611,1861.9,9.8,124.8,133.6,1409.0,9600.0,4.0,1,
252711,1861.7,11.1,124.8,109.8,1409.0,9600.0,4.0,1,
252811,1861.9,10.5,124.8,118.0,1409.0,9600.0,4.0,1,
252911,1850.6,70.6,123.9,65.7,1009.0,7066.0,4.0,1,
253011,1837.0,252.4,120.9,37.4,1377.0,9778.0,4.0,1,
253111,1919.1,148.8,126.9,34.8,1468.0,10298.0,4.0,1,
253211,1847.2,139.1,111.7,30.2,1439.0,10276.0,4.0,1,
253311,1857.4,191.0,134.8,35.7,1419.0,10052.0,4.0,1,
253411,1850.2,72.7,133.8,38.4,1364.0,9251.0,4.0,1,
253611,1860.4,12.3,129.3,35.2,1364.0,9251.0,4.0,1,
253711,1862.3,10.5,129.3,35.5,1364.0,9251.0,4.0,1,
253811,1862.6,9.6,129.3,34.6,1364.0,9251.0,4.0,1,
253911,1863.0,11.2,129.3,30.3,1364.0,9251.0,4.0,1,
254011,1862.9,10.3,129.3,122.1,1364.0,9251.0,4.0,1,
254111,1862.7,10.1,129.3,133.7,1364.0,9251.0,4.0,1,
254211,1862.6,10.5,129.3,132.6,1364.0,9251.0,4.0,1,
254311,1862.1,9.7,129.3,164.7,1364.0,9251.0,4.0,1,
254411,1862.5,9.5,129.3,204.2,1364.0,9251.0,4.0,1,
254611,1867.6,139.8,147.3,27.0,1320.0,9356.0,4.0,1,
254711,1827.8,190.2,150.8,27.8,1440.0,9766.0,3.0,1,
254811,1871.0,100.1,150.5,29.1,1479.0,10267.0,4.0,1,
254911,1836.8,111.2,137.3,35.5,1566.0,10388.0,4.0,1,
255011,1938.0,159.3,133.0,34.9,1574.0,10541.0,5.0,1,
255111,1829.5,58.7,134.4,42.1,1441.0,9882.0,4.0,1,
255211,1864.8,11.8,134.3,75.6,1441.0,9882.0,4.0,1,
255311,1862.1,9.4,134.3,40.5,1441.0,9882.0,4.0,1,
255411,1862.6,10.5,134.3,35.9,1441.0,9882.0,4.0,1,
255611,1863.9,9.5,134.3,178.3,1441.0,9882.0,4.0,1,
255711,1863.5,10.4,134.3,154.7,1441.0,9882.0,4.0,1,
255811,1862.4,9.2,134.3,145.1,1441.0,9882.0,4.0,1,
255911,1861.4,9.8,134.3,145.1,1441.0,9882.0,4.0,1,
256011,1861.9,10.0,134.3,156.9,1441.0,9882.0,4.0,1,
256111,1860.6,37.2,120.9,113.8,896.0,6333.0,4.0,1,
256211,1848.5,99.1,113.9,47.0,1371.0,9036.0,3.0,1,
256311,1844.3,152.8,119.2,39.5,1465.0,10048.0,4.0,1,
256411,1914.4,129.3,107.1,35.0,1488.0,10151.0,4.0,1,
256611,1830.6,254.0,111.6,43.6,1485.0,10241.0,4.0,1,
256711,1878.1,215.5,153.2,34.6,1457.0,9698.0,4.0,1,
256811,1875.6,18.8,153.2,27.9,1457.0,9698.0,4.0,1,
256911,1862.1,11.0,153.2,28.3,1457.0,9698.0,4.0,1,
257011,1863.0,9.1,153.2,29.2,1457.0,9698.0,4.0,1,
257111,1863.3,9.3,153.2,30.0,1457.0,9698.0,4.0,1,
257211,1863.9,10.5,153.2,67.7,1457.0,9698.0,4.0,1,
257311,1863.9,9.3,153.2,117.7,1457.0,9698.0,4.0,1,
257411,1862.8,8.6,153.2,123.8,1457.0,9698.0,4.0,1,
257611,1861.3,9.4,153.2,148.0,1457.0,9698.0,4.0,1,
257711,1844.2,89.8,153.3,166.3,1457.0,9698.0,4.0,1,
257811,1884.8,121.3,154.2,41.0,1213.0,8433.0,4.0,1,
257911,1876.5,222.2,160.5,39.5,1408.0,10047.0,4.0,1,
258011,1833.2,102.6,168.1,37.5,1501.0,10445.0,4.0,1,
258111,1845.0,294.6,164.6,28.3,1457.0,10445.0,4.0,1,
258211,1867.4,151.7,185.0,27.6,1476.0,10029.0,4.0,1,
258311,1906.9,97.6,157.0,28.1,1480.0,9974.0,4.0,1,
258411,1836.1,16.3,150.2,29.7,1480.0,9974.0,4.0,1,
258611,1862.1,8.6,150.2,36.1,1480.0,9974.0,4.0,1,
258711,1862.5,9.9,150.2,35.6,1480.0,9974.0,4.0,1,
258811,1863.2,9.3,150.2,54.0,1480.0,9974.0,4.0,1,
258911,1862.4,9.5,150.2,153.6,1480.0,9974.0,4.0,1,
259011,1863.2,10.6,150.2,146.1,1480.0,9974.0,4.0,1,
259111,1862.8,9.2,150.2,132.5,1480.0,9974.0,4.0,1,
259211,1861.7,10.2,150.2,123.7,1480.0,9974.0,4.0,1,
259311,1862.1,10.1,150.2,116.9,1480.0,9974.0,4.0,1,
259411,1867.5,198.0,152.2,57.6,1244.0,8504.0,4.0,1,
259611,1851.0,314.5,145.9,30.2,1558.0,10589.0,3.0,1,
259711,1925.9,119.7,152.6,35.3,1580.0,10727.0,4.0,1,
259811,1834.5,121.3,127.0,43.3,1455.0,10166.0,4.0,1,
