Time(ms),Raw_ADC
0,1714
1,1771
2,1807
3,1840
4,1869
5,1877
6,1878
7,1893
8,1904
9,1890
10,1889
11,1905
12,1902
13,1892
14,1892
15,1886
16,762
17,1671
18,2318
19,2359
20,2350
21,2455
22,2690
23,2559
24,1828
25,1298
26,1088
27,1216
28,1465
29,1605
30,1668
31,1705
32,1754
33,1810
34,1857
35,1891
36,1895
37,1900
38,1931
39,1952
40,1924
41,1894
42,1883
43,1856
44,1843
45,1856
46,1870
47,878
48,1607
49,2261
50,2349
51,2323
52,2437
53,2693
54,2586
55,1891
56,1397
57,1135
58,1247
59,1477
60,1593
61,1635
62,1691
63,1745
64,1791
65,1840
66,1863
67,1886
68,1904
69,1907
70,1906
71,1887
72,1901
73,1909
74,1902
75,1891
76,1898
77,1884
78,881
79,1593
80,2251
81,2337
82,2343
83,2442
84,2692
85,2559
86,1856
87,1354
88,1122
89,1259
90,1507
91,1616
92,1654
93,1698
94,1739
95,1776
96,1812
97,1842
98,1871
99,1883
100,1905
101,1922
102,1913
103,1903
104,1905
105,1914
106,1904
107,1903
108,1886
109,1872
110,1873
111,1870
112,1868
113,1872
114,1879
115,1879
116,1888
117,1886
118,1872
119,1877
120,1886
121,1895
122,1885
123,1881
124,1870
125,1862
126,1853
127,1851
128,1847
129,1849
130,1852
131,1851
132,1861
133,1861
134,1867
135,1884
136,1873
137,1874
138,1879
139,1865
140,1868
141,1857
142,1867
143,1841
144,1842
145,1838
146,1837
147,1847
148,1861
149,1859
150,1859
151,1882
152,1871
153,1870
154,1871
155,1879
156,1863
157,1851
158,1851
159,1849
160,1837
161,1841
162,1840
163,1841
164,1840
165,1845
166,1863
167,1855
168,1878
169,1870
170,1871
171,1877
172,1885
173,1872
174,1850
175,1846
176,1840
177,1838
178,1835
179,1837
180,1845
181,1856
182,1849
183,1863
184,1872
185,1872
186,1869
187,1866
188,1872
189,1889
190,1866
191,1850
192,1844
193,1856
194,1843
195,1840
196,1840
197,1837
198,1853
199,1857
200,1858
201,1871
202,1876
203,1876
204,1881
205,1874
206,1869
207,1843
208,1840
209,1838
210,1845
211,1851
212,1859
213,1855
214,1847
215,1859
216,1872
217,1872
218,1856
219,1861
220,1872
221,1872
222,1882
223,1873
224,1878
225,1886
226,1871
227,1866
228,1859
229,1841
230,1819
231,1799
232,1818
233,1846
234,1850
235,1878
236,1874
237,1874
238,1875
239,1866
240,1854
241,1847
242,1843
243,1844
244,1822
245,1823
246,1837
247,1853
248,1857
249,1863
250,1875
251,1871
252,1875
253,1876
254,1882
255,1903
256,1905
257,1882
258,1872
259,1853
260,1826
261,1823
262,1826
263,1828
264,1845
265,1853
266,1859
267,1847
268,1857
269,1872
270,1873
271,1885
272,1870
273,1871
274,1863
275,1843
276,1842
277,1840
278,1845
279,1847
280,1853
281,1856
282,1860
283,1863
284,1871
285,1867
286,1873
287,1873
288,1878
289,1872
290,1869
291,1856
292,1866
293,1860
294,1855
295,1853
296,1851
297,1843
298,1855
299,1840
300,1845
301,1857
302,1866
303,1872
304,1885
305,1887
306,1875
307,1862
308,1850
309,1865
310,1856
311,1851
312,1846
313,1851
314,1849
315,1857
316,1862
317,1868
318,1855
319,1872
320,1874
321,1873
322,1897
323,1873
324,1862
325,1853
326,1873
327,1857
328,1850
329,1843
330,1840
331,1857
332,1840
333,1840
334,1840
335,1866
336,1866
337,1875
338,1889
339,1875
340,1878
341,1867
342,1854
343,1840
344,1839
345,1845
346,1862
347,1872
348,1886
349,1877
350,1862
351,1866
352,1873
353,1871
354,1856
355,1865
356,1873
357,1869
358,1867
359,1843
360,1829
361,1822
362,1838
363,1842
364,1871
365,1855
366,1862
367,1856
368,1885
369,1874
370,1872
371,1877
372,1904
373,1891
374,1871
375,1867
376,1857
377,1840
378,1831
379,1829
380,1838
381,1853
382,1859
383,1867
384,1873
385,1878
386,1882
387,1884
388,1890
389,1875
390,1862
391,1852
392,1847
393,1827
394,1834
395,1840
396,1846
397,1850
398,1872
399,1866
400,1872
401,1872
402,1870
403,1862
404,1869
405,1874
406,1873
407,1857
408,1855
409,1870
410,1840
411,1845
412,1844
413,1843
414,1842
415,1850
416,1855
417,1872
418,1874
419,1872
420,1871
421,1882
422,1877
423,1872
424,1856
425,1856
426,1855
427,1843
428,1839
429,1840
430,1843
431,1869
432,1857
433,1861
434,1872
435,1879
436,1871
437,1872
438,1881
439,1886
440,1870
441,1857
442,1852
443,1860
444,1841
445,1837
446,1834
447,1846
448,1866
449,1861
450,1874
451,1872
452,1872
453,1869
454,1873
455,1879
456,1874
457,1872
458,1856
459,1838
460,1845
461,1845
462,1847
463,1851
464,1853
465,1856
466,1863
467,1856
468,1872
469,1874
470,1872
471,1874
472,1872
473,1879
474,1856
475,1845
476,1846
477,1837
478,1835
479,1840
480,1846
481,1853
482,1859
483,1871
484,1873
485,1883
486,1872
487,1875
488,1882
489,1892
490,1872
491,1867
492,1853
493,1856
494,1849
495,1846
496,1853
497,1849
498,1863
499,1846
500,1846
501,1840
502,1858
503,1861
504,1873
505,1886
506,1879
507,1884
508,1869
509,1855
510,1849
511,1840
512,1829
513,1826
514,1839
515,1850
516,1857
517,1868
518,1872
519,1890
520,1886
521,1887
522,1873
523,1870
524,1858
525,1840
526,1837
527,1847
528,1853
529,1854
530,1855
531,1872
532,1856
533,1858
534,1858
535,1856
536,1859
537,1859
538,1870
539,1865
540,1866
541,1861
542,1859
543,1843
544,1843
545,1842
546,1850
547,1862
548,1862
549,1865
550,1872
551,1872
552,1873
553,1872
554,1872
555,1883
556,1889
557,1865
558,1855
559,1870
560,1840
561,1840
562,1834
563,1842
564,1856
565,1855
566,1856
567,1870
568,1873
569,1872
570,1872
571,1887
572,1875
573,1872
574,1862
575,1853
576,1850
577,1846
578,1842
579,1842
580,1846
581,1862
582,1861
583,1867
584,1869
585,1885
586,1879
587,1877
588,1875
589,1867
590,1873
591,1863
592,1853
593,1840
594,1840
595,1839
596,1840
597,1841
598,1845
599,1853
600,1860
601,1877
602,1873
603,1872
604,1877
605,1886
606,1871
607,1866
608,1856
609,1839
610,1841
611,1840
612,1842
613,1842
614,1856
615,1861
616,1863
617,1863
618,1859
619,1874
620,1873
621,1871
622,1871
623,1871
624,1860
625,1855
626,1847
627,1841
628,1837
629,1841
630,1847
631,1849
632,1859
633,1866
634,1855
635,1872
636,1872
637,1872
638,1873
639,1862
640,1871
641,1855
642,1856
643,1840
644,1844
645,1841
646,1845
647,1853
648,1863
649,1859
650,1871
651,1872
652,1878
653,1875
654,1871
655,1879
656,1873
657,1866
658,1855
659,1858
660,1839
661,1849
662,1847
663,1851
664,1866
665,1863
666,1863
667,1881
668,1872
669,1891
670,1882
671,1891
672,1897
673,1885
674,1868
675,1854
676,1840
677,1815
678,1814
679,1831
680,1850
681,1855
682,1849
683,1853
684,1854
685,1859
686,1856
687,1857
688,1865
689,1871
690,1871
691,1851
692,1850
693,1840
694,1842
695,1842
696,1843
697,1847
698,1867
699,1866
700,1872
701,1882
702,1877
703,1872
704,1874
705,1883
706,1897
707,1863
708,1854
709,1839
710,1839
711,1840
712,1841
713,1844
714,1839
715,1847
716,1862
717,1857
718,1869
719,1870
720,1864
721,1876
722,1873
723,1886
724,1863
725,1856
726,1842
727,1840
728,1842
729,1840
730,1852
731,1845
732,1862
733,1867
734,1873
735,1886
736,1875
737,1877
738,1889
739,1883
740,1871
741,1855
742,1834
743,1843
744,1840
745,1836
746,1838
747,1845
748,1859
749,1858
750,1867
751,1867
752,1875
753,1875
754,1872
755,1877
756,1879
757,1872
758,1856
759,1845
760,1830
761,1840
762,1840
763,1840
764,1840
765,1859
766,1862
767,1874
768,1862
769,1878
770,1871
771,1859
772,1872
773,1874
774,1859
775,1856
776,1841
777,1847
778,1850
779,1846
780,1850
781,1853
782,1851
783,1854
784,1843
785,1872
786,1872
787,1871
788,1882
789,1899
790,1872
791,1855
792,1841
793,1863
794,1847
795,1842
796,1847
797,1842
798,1859
799,1863
800,1871
801,1881
802,1873
803,1871
804,1869
805,1881
806,1879
807,1863
808,1864
809,1843
810,1851
811,1840
812,1840
813,1846
814,1843
815,1853
816,1872
817,1871
818,1874
819,1874
820,1872
821,1876
822,1885
823,1879
824,1868
825,1856
826,1855
827,1850
828,1840
829,1842
830,1850
831,1856
832,1859
833,1863
834,1877
835,1867
836,1867
837,1871
838,1875
839,1865
840,1871
841,1859
842,1854
843,1837
844,1841
845,1841
846,1844
847,1840
848,1859
849,1858
850,1866
851,1866
852,1872
853,1872
854,1873
855,1887
856,1899
857,1884
858,1872
859,1846
860,1841
861,1847
862,1841
863,1843
864,1839
865,1833
866,1837
867,1841
868,1859
869,1872
870,1869
871,1872
872,1879
873,1872
874,1868
875,1862
876,1851
877,1840
878,1838
879,1829
880,1830
881,1850
882,1856
883,1863
884,1874
885,1877
886,1875
887,1874
888,1876
889,1898
890,1868
891,1857
892,1858
893,1861
894,1840
895,1840
896,1850
897,1846
898,1858
899,1857
900,1869
901,1874
902,1873
903,1875
904,1874
905,1886
906,1883
907,1858
908,1856
909,1862
910,1840
911,1843
912,1838
913,1843
914,1859
915,1870
916,1858
917,1863
918,1875
919,1877
920,1871
921,1872
922,1875
923,1870
924,1856
925,1846
926,1855
927,1840
928,1841
929,1841
930,1851
931,1850
932,1859
933,1869
934,1877
935,1892
936,1885
937,1883
938,1885
939,1875
940,1874
941,1847
942,1834
943,1829
944,1840
945,1846
946,1842
947,1853
948,1862
949,1862
950,1869
951,1877
952,1873
953,1870
954,1868
955,1869
956,1867
957,1859
958,1857
959,1851
960,1836
961,1841
962,1840
963,1842
964,1840
965,1862
966,1861
967,1863
968,1866
969,1872
970,1873
971,1869
972,1875
973,1877
974,1862
975,1850
976,1843
977,1847
978,1842
979,1843
980,1850
981,1856
982,1865
983,1864
984,1870
985,1877
986,1872
987,1870
988,1872
989,1850
990,1862
991,1857
992,1855
993,1847
994,1841
995,1840
996,1843
997,1857
998,1855
999,1863
1000,1872
1001,1871
1002,1873
1003,1871
1004,1873
1005,1882
1006,1883
1007,1865
1008,1854
1009,1850
1010,1838
1011,1845
1012,1846
1013,1859
1014,1878
1015,1872
1016,1871
1017,1866
1018,1871
1019,1858
1020,1863
1021,1883
1022,1899
1023,1886
1024,1863
1025,1854
1026,1843
1027,1821
1028,1812
1029,1821
1030,1835
1031,1872
1032,1871
1033,1877
1034,1875
1035,1889
1036,1863
1037,1858
1038,1857
1039,1856
1040,1872
1041,1857
1042,1851
1043,1853
1044,1847
1045,1836
1046,1831
1047,1840
1048,1863
1049,1858
1050,1860
1051,1866
1052,1877
1053,1875
1054,1882
1055,1883
1056,1874
1057,1871
1058,1856
1059,1849
1060,1835
1061,1847
1062,1850
1063,1845
1064,1862
1065,1847
1066,1856
1067,1862
1068,1875
1069,1870
1070,1867
1071,1873
1072,1877
1073,1888
1074,1867
1075,1848
1076,1839
1077,1835
1078,1838
1079,1840
1080,1844
1081,1856
1082,1863
1083,1875
1084,1883
1085,1902
1086,1881
1087,1867
1088,1865
1089,1890
1090,1872
1091,1869
1092,1856
1093,1843
1094,1847
1095,1847
1096,1853
1097,1859
1098,1865
1099,1866
1100,1808
1101,844
1102,1981
1103,2306
1104,2283
1105,2231
1106,2225
1107,2215
1108,2205
1109,2153
1110,2115
1111,1990
1112,1748
1113,1487
1114,1437
1115,1488
1116,1504
1117,1563
1118,1648
1119,1711
1120,1740
1121,1779
1122,1834
1123,1839
1124,1846
1125,1855
1126,1854
1127,1808
1128,1781
1129,1795
1130,1839
1131,1862
1132,731
1133,1950
1134,2257
1135,2222
1136,2192
1137,2213
1138,2269
1139,2284
1140,2306
1141,2240
1142,1998
1143,1605
1144,1419
1145,1386
1146,1414
1147,1501
1148,1613
1149,1678
1150,1741
1151,1793
1152,1836
1153,1857
1154,1878
1155,1899
1156,1882
1157,1878
1158,1870
1159,1891
1160,1869
1161,1873
1162,1872
1163,788
1164,1948
1165,2304
1166,2233
1167,2199
1168,2253
1169,2302
1170,2366
1171,2357
1172,2109
1173,1725
1174,1443
1175,1332
1176,1360
1177,1471
1178,1562
1179,1645
1180,1705
1181,1761
1182,1809
1183,1849
1184,1872
1185,1888
1186,1899
1187,1904
1188,1912
1189,1895
1190,1903
1191,1901
1192,1882
1193,1890
1194,715
1195,1950
1196,2358
1197,2288
1198,2278
1199,2286
1200,2343
1201,2416
1202,2312
1203,1875
1204,1478
1205,1284
1206,1277
1207,1384
1208,1523
1209,1637
1210,1706
1211,1751
1212,1791
1213,1827
1214,1850
1215,1891
1216,1921
1217,1910
1218,1891
1219,1886
1220,1899
1221,1922
1222,1942
1223,1957
1224,1924
1225,643
1226,1911
1227,2363
1228,2293
1229,2250
1230,2267
1231,2386
1232,2496
1233,2260
1234,1799
1235,1438
1236,1235
1237,1265
1238,1437
1239,1569
1240,1647
1241,1685
1242,1759
1243,1815
1244,1841
1245,1874
1246,1897
1247,1915
1248,1935
1249,1914
1250,1907
1251,1911
1252,1907
1253,1904
1254,1907
1255,1921
1256,668
1257,1955
1258,2358
1259,2275
1260,2213
1261,2250
1262,2416
1263,2529
1264,2179
1265,1657
1266,1323
1267,1199
1268,1279
1269,1477
1270,1619
1271,1711
1272,1790
1273,1837
1274,1853
1275,1869
1276,1886
1277,1895
1278,1898
1279,1875
1280,1871
1281,1877
1282,1886
1283,1897
1284,1903
1285,1918
1286,1904
1287,694
1288,1957
1289,2371
1290,2306
1291,2257
1292,2299
1293,2487
1294,2542
1295,2080
1296,1573
1297,1278
1298,1153
1299,1286
1300,1525
1301,1675
1302,1750
1303,1808
1304,1840
1305,1872
1306,1888
1307,1901
1308,1899
1309,1882
1310,1882
1311,1878
1312,1886
1313,1883
1314,1888
1315,1890
1316,1883
1317,1882
1318,683
1319,1927
1320,2384
1321,2338
1322,2327
1323,2352
1324,2523
1325,2523
1326,2000
1327,1531
1328,1215
1329,1136
1330,1343
1331,1535
1332,1647
1333,1696
1334,1747
1335,1802
1336,1847
1337,1890
1338,1920
1339,1911
1340,1939
1341,1927
1342,1897
1343,1890
1344,1875
1345,1872
1346,1877
1347,1891
1348,1894
1349,599
1350,1887
1351,2362
1352,2327
1353,2293
1354,2351
1355,2559
1356,2549
1357,2045
1358,1535
1359,1201
1360,1147
1361,1344
1362,1535
1363,1677
1364,1711
1365,1765
1366,1787
1367,1821
1368,1879
1369,1892
1370,1917
1371,1925
1372,1895
1373,1903
1374,1893
1375,1902
1376,1922
1377,1886
1378,1873
1379,1855
1380,610
1381,1899
1382,2356
1383,2323
1384,2309
1385,2378
1386,2603
1387,2556
1388,2011
1389,1513
1390,1215
1391,1179
1392,1387
1393,1535
1394,1636
1395,1665
1396,1712
1397,1774
1398,1831
1399,1854
1400,1858
1401,1879
1402,1904
1403,1940
1404,1955
1405,1947
1406,1950
1407,1905
1408,1895
1409,1885
1410,1899
1411,550
1412,1856
1413,2352
1414,2305
1415,2297
1416,2352
1417,2559
1418,2559
1419,1977
1420,1477
1421,1232
1422,1242
1423,1440
1424,1574
1425,1633
1426,1696
1427,1732
1428,1777
1429,1823
1430,1847
1431,1873
1432,1889
1433,1920
1434,1901
1435,1892
1436,1907
1437,1911
1438,1920
1439,1920
1440,1904
1441,1903
1442,592
1443,1915
1444,2366
1445,2320
1446,2297
1447,2342
1448,2599
1449,2531
1450,1933
1451,1445
1452,1200
1453,1226
1454,1429
1455,1603
1456,1699
1457,1725
1458,1761
1459,1802
1460,1808
1461,1847
1462,1860
1463,1861
1464,1887
1465,1883
1466,1886
1467,1887
1468,1887
1469,1899
1470,1906
1471,1919
1472,1909
1473,653
1474,1914
1475,2354
1476,2314
1477,2277
1478,2326
1479,2559
1480,2493
1481,1891
1482,1430
1483,1230
1484,1315
1485,1509
1486,1623
1487,1682
1488,1735
1489,1785
1490,1797
1491,1826
1492,1839
1493,1844
1494,1850
1495,1870
1496,1884
1497,1875
1498,1906
1499,1903
1500,1893
1501,1901
1502,1915
1503,1920
1504,610
1505,1886
1506,2372
1507,2283
1508,2258
1509,2355
1510,2609
1511,2559
1512,1967
1513,1457
1514,1173
1515,1231
1516,1435
1517,1578
1518,1648
1519,1713
1520,1775
1521,1807
1522,1843
1523,1879
1524,1875
1525,1872
1526,1901
1527,1899
1528,1901
1529,1911
1530,1904
1531,1886
1532,1872
1533,1882
1534,1881
1535,575
1536,1869
1537,2367
1538,2299
1539,2270
1540,2338
1541,2559
1542,2536
1543,1958
1544,1471
1545,1216
1546,1234
1547,1439
1548,1597
1549,1659
1550,1691
1551,1758
1552,1817
1553,1869
1554,1876
1555,1901
1556,1913
1557,1913
1558,1899
1559,1891
1560,1865
1561,1867
1562,1874
1563,1887
1564,1877
1565,1895
1566,650
1567,1899
1568,2357
1569,2314
1570,2290
1571,2357
1572,2622
1573,2523
1574,1925
1575,1424
1576,1193
1577,1266
1578,1490
1579,1610
1580,1665
1581,1697
1582,1748
1583,1802
1584,1858
1585,1887
1586,1887
1587,1879
1588,1874
1589,1878
1590,1901
1591,1887
1592,1895
1593,1888
1594,1886
1595,1877
1596,1881
1597,579
1598,1851
1599,2368
1600,2309
1601,2275
1602,2351
1603,2581
1604,2544
1605,1982
1606,1470
1607,1221
1608,1274
1609,1439
1610,1556
1611,1646
1612,1695
1613,1752
1614,1813
1615,1857
1616,1861
1617,1879
1618,1894
1619,1905
1620,1904
1621,1903
1622,1903
1623,1903
1624,1893
1625,1887
1626,1873
1627,1877
1628,547
1629,1846
1630,2348
1631,2282
1632,2269
1633,2337
1634,2551
1635,2528
1636,1943
1637,1439
1638,1225
1639,1315
1640,1498
1641,1612
1642,1675
1643,1714
1644,1744
1645,1787
1646,1822
1647,1840
1648,1872
1649,1893
1650,1906
1651,1920
1652,1920
1653,1913
1654,1912
1655,1904
1656,1916
1657,1901
1658,1891
1659,538
1660,1835
1661,2341
1662,2288
1663,2257
1664,2332
1665,2559
1666,2517
1667,1947
1668,1450
1669,1242
1670,1299
1671,1503
1672,1625
1673,1706
1674,1728
1675,1750
1676,1791
1677,1818
1678,1842
1679,1855
1680,1875
1681,1902
1682,1872
1683,1874
1684,1877
1685,1899
1686,1917
1687,1909
1688,1917
1689,1919
1690,541
1691,1831
1692,2335
1693,2263
1694,2246
1695,2318
1696,2559
1697,2535
1698,1968
1699,1456
1700,1229
1701,1280
1702,1489
1703,1625
1704,1697
1705,1746
1706,1781
1707,1839
1708,1876
1709,1897
1710,1887
1711,1899
1712,1891
1713,1877
1714,1855
1715,1822
1716,1850
1717,1863
1718,1899
1719,1903
1720,1900
1721,1901
1722,1911
1723,1890
1724,1882
1725,1873
1726,1872
1727,1862
1728,1859
1729,1856
1730,1859
1731,1872
1732,1871
1733,1873
1734,1887
1735,1888
1736,1879
1737,1874
1738,1879
1739,1875
1740,1878
1741,1867
1742,1861
1743,1865
1744,1854
1745,1843
1746,1840
1747,1840
1748,1856
1749,1857
1750,1862
1751,1871
1752,1879
1753,1872
1754,1873
1755,1879
1756,1875
1757,1871
1758,1861
1759,1873
1760,1846
1761,1837
1762,1840
1763,1847
1764,1857
1765,1850
1766,1856
1767,1858
1768,1867
1769,1871
1770,1872
1771,1873
1772,1875
1773,1877
1774,1854
1775,1841
1776,1827
1777,1846
1778,1840
1779,1840
1780,1840
1781,1836
1782,1853
1783,1859
1784,1859
1785,1861
1786,1872
1787,1872
1788,1870
1789,1882
1790,1869
1791,1858
1792,1851
1793,1839
1794,1838
1795,1835
1796,1835
1797,1837
1798,1844
1799,1855
1800,1870
1801,1861
1802,1879
1803,1875
1804,1872
1805,1875
1806,1894
1807,1874
1808,1865
1809,1855
1810,1834
1811,1833
1812,1821
1813,1835
1814,1861
1815,1879
1816,1906
1817,1907
1818,1911
1819,1927
1820,1901
1821,1881
1822,1856
1823,1824
1824,1833
1825,1814
1826,1808
1827,1840
1828,1840
1829,1840
1830,1845
1831,1839
1832,1854
1833,1875
1834,1893
1835,1868
1836,1819
1837,1827
1838,1859
1839,1854
1840,1859
1841,1870
1842,1906
1843,1914
1844,1904
1845,1906
1846,1888
1847,1831
1848,1808
1849,1803
1850,1814
1851,1843
1852,1837
1853,1820
1854,1856
1855,1887
1856,1904
1857,1887
1858,1881
1859,1853
1860,1818
1861,1814
1862,1821
1863,1846
1864,1868
1865,1866
1866,1871
1867,1878
1868,1884
1869,1877
1870,1870
1871,1866
1872,1876
1873,1877
1874,1875
1875,1871
1876,1878
1877,1878
1878,1862
1879,1837
1880,1840
1881,1849
1882,1853
1883,1859
1884,1861
1885,1856
1886,1872
1887,1872
1888,1870
1889,1890
1890,1865
1891,1827
1892,1822
1893,1836
1894,1831
1895,1841
1896,1846
1897,1842
1898,1861
1899,1867
1900,1873
1901,1877
1902,1887
1903,1873
1904,1875
1905,1885
1906,1876
1907,1872
1908,1856
1909,1856
1910,1848
1911,1847
1912,1845
1913,1841
1914,1845
1915,1854
1916,1866
1917,1872
1918,1872
1919,1883
1920,1880
1921,1873
1922,1872
1923,1867
1924,1859
1925,1850
1926,1835
1927,1830
1928,1848
1929,1851
1930,1851
1931,1863
1932,1855
1933,1849
1934,1859
1935,1871
1936,1884
1937,1893
1938,1893
1939,1913
1940,1876
1941,1843
1942,1819
1943,1831
1944,1840
1945,1838
1946,1843
1947,1855
1948,1870
1949,1863
1950,1863
1951,1861
1952,1860
1953,1858
1954,1862
1955,1872
1956,1889
1957,1872
1958,1851
1959,1843
1960,1853
1961,1840
1962,1841
1963,1847
1964,1853
1965,1859
1966,1869
1967,1872
1968,1870
1969,1872
1970,1872
1971,1869
1972,1875
1973,1887
1974,1866
1975,1855
1976,1858
1977,1836
1978,1840
1979,1838
1980,1842
1981,1867
1982,1855
1983,1863
1984,1863
1985,1872
1986,1874
1987,1872
1988,1878
1989,1871
1990,1873
1991,1860
1992,1856
1993,1856
1994,1847
1995,1848
1996,1839
1997,1855
1998,1843
1999,1858
2000,1866
2001,1877
2002,1875
2003,1872
2004,1867
2005,1873
2006,1876
2007,1861
2008,1857
2009,1858
2010,1837
2011,1839
2012,1838
2013,1842
2014,1854
2015,1854
2016,1856
2017,1859
2018,1875
2019,1879
2020,1879
2021,1890
2022,1874
2023,1871
2024,1872
2025,1869
2026,1872
2027,1846
2028,1835
2029,1847
2030,1859
2031,1865
2032,1876
2033,1876
2034,1865
2035,1882
2036,1862
2037,1851
2038,1841
2039,1836
2040,1842
2041,1850
2042,1854
2043,1853
2044,1841
2045,1842
2046,1840
2047,1847
2048,1866
2049,1865
2050,1867
2051,1870
2052,1875
2053,1875
2054,1874
2055,1883
2056,1870
2057,1872
2058,1862
2059,1872
2060,1840
2061,1840
2062,1840
2063,1842
2064,1843
2065,1851
2066,1858
2067,1859
2068,1871
2069,1872
2070,1872
2071,1875
2072,1888
2073,1886
2074,1867
2075,1853
2076,1863
2077,1844
2078,1846
2079,1846
2080,1843
2081,1858
2082,1861
2083,1859
2084,1871
2085,1872
2086,1871
2087,1872
2088,1880
2089,1877
2090,1877
2091,1865
2092,1847
2093,1842
2094,1840
2095,1840
2096,1837
2097,1847
2098,1857
2099,1866
2100,1863
2101,1877
2102,1878
2103,1877
2104,1874
2105,1876
2106,1871
2107,1866
2108,1857
2109,1842
2110,1849
2111,1851
2112,1840
2113,1838
2114,1844
2115,1853
2116,1851
2117,1856
2118,1857
2119,1872
2120,1874
2121,1878
2122,1889
2123,1883
2124,1872
2125,1856
2126,1840
2127,1827
2128,1826
2129,1831
2130,1845
2131,1856
2132,1859
2133,1863
2134,1873
2135,1895
2136,1887
2137,1882
2138,1898
2139,1874
2140,1863
2141,1849
2142,1838
2143,1839
2144,1840
2145,1845
2146,1843
2147,1840
2148,1845
2149,1862
2150,1865
2151,1857
2152,1866
2153,1872
2154,1872
2155,1872
2156,1885
2157,1882
2158,1874
2159,1866
2160,1856
2161,1861
2162,1857
2163,1846
2164,1823
2165,1821
2166,1828
2167,1851
2168,1863
2169,1883
2170,1879
2171,1879
2172,1898
2173,1893
2174,1878
2175,1870
2176,1879
2177,1861
2178,1842
2179,1840
2180,1828
2181,1815
2182,1819
2183,1842
2184,1872
2185,1885
2186,1875
2187,1872
2188,1877
2189,1876
2190,1867
2191,1859
2192,1850
2193,1853
2194,1842
2195,1845
2196,1847
2197,1856
2198,1860
2199,1858
2200,1863
2201,1871
2202,1873
2203,1872
2204,1875
2205,1876
2206,1889
2207,1869
2208,1856
2209,1840
2210,1854
2211,1844
2212,1850
2213,1866
2214,1857
2215,1875
2216,1860
2217,1851
2218,1856
2219,1847
2220,1845
2221,1850
2222,1866
2223,1875
2224,1863
2225,1863
2226,1874
2227,1859
2228,1858
2229,1856
2230,1856
2231,1872
2232,1856
2233,1834
2234,1854
2235,1872
2236,1858
2237,1857
2238,1871
2239,1886
2240,1873
2241,1868
2242,1856
2243,1865
2244,1862
2245,1856
2246,1853
2247,1850
2248,1849
2249,1856
2250,1847
2251,1839
2252,1847
2253,1858
2254,1867
2255,1875
2256,1890
2257,1872
2258,1856
2259,1865
2260,1840
2261,1846
2262,1843
2263,1853
2264,1862
2265,1863
2266,1870
2267,1872
2268,1889
2269,1881
2270,1875
2271,1874
2272,1877
2273,1874
2274,1855
2275,1844
2276,1840
2277,1835
2278,1840
2279,1849
2280,1856
2281,1856
2282,1860
2283,1863
2284,1854
2285,1878
2286,1872
2287,1871
2288,1872
2289,1890
2290,1874
2291,1870
2292,1865
2293,1851
2294,1855
2295,1842
2296,1846
2297,1858
2298,1873
2299,1863
2300,1866
2301,1862
2302,1883
2303,1870
2304,1865
2305,1872
2306,1895
2307,1871
2308,1871
2309,1863
2310,1855
2311,1844
2312,1840
2313,1829
2314,1814
2315,1840
2316,1849
2317,1856
2318,1863
2319,1872
2320,1872
2321,1872
2322,1874
2323,1862
2324,1853
2325,1844
2326,1840
2327,1866
2328,1862
2329,1871
2330,1872
2331,1872
2332,1859
2333,1855
2334,1858
2335,1872
2336,1859
2337,1858
2338,1863
2339,1869
2340,1863
2341,1857
2342,1841
2343,1839
2344,1856
2345,1862
2346,1863
2347,1862
2348,1872
2349,1861
2350,1858
2351,1849
2352,1856
2353,1860
2354,1866
2355,1875
2356,1883
2357,1872
2358,1867
2359,1877
2360,1863
2361,1872
2362,1872
2363,1870
2364,1872
2365,1872
2366,1855
2367,1862
2368,1840
2369,1827
2370,1810
2371,1831
2372,1849
2373,1867
2374,1870
2375,1859
2376,1867
2377,1855
2378,1852
2379,1857
2380,1869
2381,1876
2382,1872
2383,1862
2384,1862
2385,1858
2386,1860
2387,1858
2388,1874
2389,1872
2390,1882
2391,1872
2392,1870
2393,1861
2394,1843
2395,1843
2396,1826
2397,1835
2398,1863
2399,1860
2400,1854
2401,1861
2402,1858
2403,1862
2404,1867
2405,1872
2406,1872
2407,1872
2408,1858
2409,1862
2410,1840
2411,1850
2412,1862
2413,1871
2414,1871
2415,1889
2416,1909
2417,1926
2418,1953
2419,1939
2420,1919
2421,1895
2422,1899
2423,1873
2424,1821
2425,1757
2426,1744
2427,1761
2428,1748
2429,1779
2430,1830
2431,1863
2432,1869
2433,1878
2434,1878
2435,1868
2436,1865
2437,1856
2438,1862
2439,1866
2440,1882
2441,1875
2442,1877
2443,1870
2444,1872
2445,1858
2446,1853
2447,1863
2448,1885
2449,1861
2450,1843
2451,1852
2452,1863
2453,1855
2454,1840
2455,1849
2456,1886
2457,1862
2458,1859
2459,1851
2460,1835
2461,1849
2462,1847
2463,1850
2464,1857
2465,1853
2466,1866
2467,1872
2468,1883
2469,1887
2470,1885
2471,1887
2472,1897
2473,1887
2474,1874
2475,1859
2476,1850
2477,1847
2478,1850
2479,1840
2480,1846
2481,1837
2482,1878
2483,1888
2484,1908
2485,1887
2486,1874
2487,1869
2488,1872
2489,1888
2490,1875
2491,1840
2492,1829
2493,1855
2494,1861
2495,1839
2496,1813
2497,1805
2498,1818
2499,1835
2500,1855
2501,1847
2502,1867
2503,1871
2504,1855
2505,1855
2506,1872
2507,1861
2508,1859
2509,1867
2510,1861
2511,1855
2512,1856
2513,1858
2514,1847
2515,1879
2516,1886
2517,1901
2518,1898
2519,1877
2520,1859
2521,1859
2522,1858
2523,1843
2524,1853
2525,1845
2526,1856
2527,1851
2528,1843
2529,1840
2530,1845
2531,1863
2532,1859
2533,1856
2534,1863
2535,1873
2536,1881
2537,1872
2538,1886
2539,1894
2540,1877
2541,1869
2542,1859
2543,1852
2544,1843
2545,1840
2546,1838
2547,1840
2548,1853
2549,1861
2550,1861
2551,1874
2552,1865
2553,1866
2554,1872
2555,1881
2556,1876
2557,1871
2558,1856
2559,1855
2560,1833
2561,1841
2562,1841
2563,1846
2564,1841
2565,1857
2566,1861
2567,1866
2568,1862
2569,1870
2570,1872
2571,1883
2572,1891
2573,1882
2574,1877
2575,1867
2576,1856
2577,1843
2578,1842
2579,1854
2580,1851
2581,1840
2582,1833
2583,1839
2584,1856
2585,1881
2586,1873
2587,1873
2588,1870
2589,1867
2590,1843
2591,1826
2592,1826
2593,1855
2594,1849
2595,1855
2596,1850
2597,1853
2598,1850
2599,1855
2600,1868
2601,1872
2602,1884
2603,1882
2604,1878
2605,1879
2606,1883
2607,1857
2608,1859
2609,1858
2610,1851
2611,1843
2612,1838
2613,1840
2614,1841
2615,1873
2616,1862
2617,1867
2618,1881
2619,1878
2620,1871
2621,1874
2622,1883
2623,1883
2624,1872
2625,1860
2626,1861
2627,1840
2628,1844
2629,1843
2630,1843
2631,1872
2632,1866
2633,1860
2634,1861
2635,1865
2636,1871
2637,1872
2638,1872
2639,1881
2640,1887
2641,1862
2642,1855
2643,1857
2644,1842
2645,1842
2646,1843
2647,1851
2648,1859
2649,1865
2650,1870
2651,1870
2652,1872
2653,1873
2654,1870
2655,1872
2656,1867
2657,1871
2658,1859
2659,1857
2660,1841
2661,1846
2662,1840
2663,1840
2664,1840
2665,1839
2666,1849
2667,1847
2668,1865
2669,1872
2670,1869
2671,1871
2672,1872
2673,1886
2674,1867
2675,1851
2676,1843
2677,1856
2678,1847
2679,1849
2680,1851
2681,1856
2682,1863
2683,1863
2684,1862
2685,1873
2686,1872
2687,1872
2688,1871
2689,1889
2690,1872
2691,1867
2692,1855
2693,1849
2694,1840
2695,1837
2696,1838
2697,1838
2698,1855
2699,1857
2700,1862
2701,1872
2702,1872
2703,1874
2704,1875
2705,1879
2706,1891
2707,1871
2708,1856
2709,1861
2710,1860
2711,1847
2712,2238
2713,918
2714,2081
2715,2415
2716,2363
2717,2295
2718,2235
2719,2221
2720,2196
2721,2099
2722,1959
2723,1786
2724,1663
2725,1595
2726,1554
2727,1587
2728,1613
2729,1625
2730,1651
2731,1706
2732,1735
2733,1754
2734,1781
2735,1808
2736,1818
2737,1827
2738,1843
2739,1873
2740,1887
2741,1884
2742,1883
2743,2283
2744,943
2745,2093
2746,2390
2747,2318
2748,2234
2749,2167
2750,2169
2751,2164
2752,2059
2753,1844
2754,1662
2755,1627
2756,1619
2757,1647
2758,1685
2759,1705
2760,1687
2761,1734
2762,1763
2763,1778
2764,1808
2765,1813
2766,1853
2767,1874
2768,1905
2769,1919
2770,1913
2771,1918
2772,1925
2773,1917
2774,2534
2775,1034
2776,2098
2777,2303
2778,2205
2779,2128
2780,2122
2781,2193
2782,2149
2783,1974
2784,1792
2785,1717
2786,1675
2787,1670
2788,1691
2789,1710
2790,1732
2791,1776
2792,1791
2793,1808
2794,1811
2795,1829
2796,1840
2797,1872
2798,1897
2799,1891
2800,1889
2801,1877
2802,1890
2803,1885
2804,1881
2805,2208
2806,895
2807,2037
2808,2223
2809,2107
2810,2071
2811,2112
2812,2205
2813,2150
2814,1968
2815,1830
2816,1722
2817,1662
2818,1729
2819,1735
2820,1733
2821,1776
2822,1823
2823,1826
2824,1830
2825,1819
2826,1826
2827,1847
2828,1855
2829,1866
2830,1869
2831,1862
2832,1881
2833,1886
2834,1881
2835,1894
2836,2210
2837,926
2838,2067
2839,2251
2840,2125
2841,2139
2842,2218
2843,2314
2844,2203
2845,1975
2846,1765
2847,1535
2848,1593
2849,1646
2850,1646
2851,1679
2852,1754
2853,1786
2854,1824
2855,1857
2856,1872
2857,1870
2858,1856
2859,1857
2860,1871
2861,1871
2862,1858
2863,1852
2864,1869
2865,1873
2866,1891
2867,2161
2868,917
2869,2096
2870,2333
2871,2235
2872,2230
2873,2282
2874,2323
2875,2167
2876,1913
2877,1630
2878,1424
2879,1525
2880,1595
2881,1610
2882,1667
2883,1756
2884,1797
2885,1840
2886,1851
2887,1867
2888,1875
2889,1885
2890,1887
2891,1874
2892,1871
2893,1856
2894,1866
2895,1857
2896,1856
2897,1872
2898,2475
2899,975
2900,2114
2901,2320
2902,2236
2903,2246
2904,2330
2905,2385
2906,2212
2907,1926
2908,1574
2909,1491
2910,1585
2911,1563
2912,1569
2913,1648
2914,1744
2915,1799
2916,1825
2917,1846
2918,1869
2919,1877
2920,1877
2921,1901
2922,1911
2923,1909
2924,1895
2925,1867
2926,1855
2927,1850
2928,1841
2929,2070
2930,813
2931,2059
2932,2358
2933,2257
2934,2282
2935,2370
2936,2411
2937,2181
2938,1871
2939,1501
2940,1510
2941,1616
2942,1584
2943,1591
2944,1651
2945,1726
2946,1781
2947,1815
2948,1839
2949,1847
2950,1857
2951,1858
2952,1898
2953,1904
2954,1905
2955,1907
2956,1897
2957,1882
2958,1857
2959,1878
2960,2148
2961,799
2962,2038
2963,2377
2964,2302
2965,2320
2966,2409
2967,2384
2968,2087
2969,1750
2970,1423
2971,1529
2972,1621
2973,1609
2974,1616
2975,1685
2976,1759
2977,1786
2978,1808
2979,1830
2980,1851
2981,1889
2982,1886
2983,1889
2984,1890
2985,1904
2986,1895
2987,1900
2988,1904
2989,1905
2990,1898
2991,2334
2992,861
2993,2090
2994,2368
2995,2276
2996,2311
2997,2444
2998,2351
2999,1990
3000,1627
3001,1424
3002,1581
3003,1617
3004,1609
3005,1683
3006,1751
3007,1799
3008,1810
3009,1825
3010,1840
3011,1834
3012,1839
3013,1841
3014,1869
3015,1887
3016,1898
3017,1901
3018,1904
3019,1903
3020,1904
3021,1895
3022,2093
3023,759
3024,2061
3025,2364
3026,2237
3027,2259
3028,2404
3029,2302
3030,1974
3031,1648
3032,1506
3033,1609
3034,1602
3035,1597
3036,1651
3037,1730
3038,1785
3039,1843
3040,1855
3041,1861
3042,1861
3043,1866
3044,1862
3045,1857
3046,1856
3047,1860
3048,1860
3049,1891
3050,1907
3051,1906
3052,1905
3053,2398
3054,832
3055,2099
3056,2383
3057,2271
3058,2302
3059,2480
3060,2329
3061,1968
3062,1577
3063,1470
3064,1590
3065,1591
3066,1590
3067,1678
3068,1776
3069,1817
3070,1836
3071,1843
3072,1863
3073,1872
3074,1874
3075,1893
3076,1904
3077,1901
3078,1887
3079,1871
3080,1873
3081,1856
3082,1872
3083,1872
3084,2064
3085,736
3086,2065
3087,2384
3088,2271
3089,2292
3090,2453
3091,2310
3092,1995
3093,1535
3094,1417
3095,1535
3096,1575
3097,1601
3098,1677
3099,1769
3100,1822
3101,1870
3102,1887
3103,1904
3104,1919
3105,1921
3106,1903
3107,1902
3108,1873
3109,1872
3110,1847
3111,1856
3112,1855
3113,1854
3114,1840
3115,2085
3116,670
3117,2022
3118,2375
3119,2262
3120,2287
3121,2479
3122,2398
3123,2070
3124,1577
3125,1467
3126,1579
3127,1581
3128,1586
3129,1664
3130,1718
3131,1743
3132,1812
3133,1841
3134,1865
3135,1872
3136,1891
3137,1902
3138,1909
3139,1904
3140,1875
3141,1874
3142,1856
3143,1847
3144,1873
3145,1895
3146,2064
3147,686
3148,2069
3149,2415
3150,2287
3151,2287
3152,2483
3153,2386
3154,2033
3155,1520
3156,1415
3157,1535
3158,1530
3159,1572
3160,1680
3161,1762
3162,1799
3163,1835
3164,1843
3165,1875
3166,1877
3167,1895
3168,1885
3169,1897
3170,1871
3171,1856
3172,1872
3173,1925
3174,1923
3175,1895
3176,1872
3177,2257
3178,722
3179,2045
3180,2362
3181,2256
3182,2304
3183,2514
3184,2423
3185,2061
3186,1522
3187,1470
3188,1573
3189,1563
3190,1565
3191,1662
3192,1740
3193,1775
3194,1808
3195,1835
3196,1835
3197,1853
3198,1863
3199,1873
3200,1883
3201,1905
3202,1925
3203,1905
3204,1890
3205,1911
3206,1936
3207,1925
3208,2290
3209,742
3210,2093
3211,2377
3212,2254
3213,2259
3214,2436
3215,2343
3216,1936
3217,1422
3218,1414
3219,1571
3220,1593
3221,1664
3222,1763
3223,1839
3224,1856
3225,1874
3226,1895
3227,1891
3228,1874
3229,1866
3230,1835
3231,1822
3232,1807
3233,1776
3234,1825
3235,1868
3236,1899
3237,1897
3238,1899
3239,2287
3240,751
3241,2064
3242,2368
3243,2278
3244,2286
3245,2467
3246,2385
3247,2023
3248,1517
3249,1508
3250,1623
3251,1622
3252,1649
3253,1722
3254,1761
3255,1769
3256,1818
3257,1814
3258,1830
3259,1841
3260,1853
3261,1871
3262,1857
3263,1863
3264,1894
3265,1887
3266,1883
3267,1884
3268,1887
3269,1889
3270,2254
3271,731
3272,2079
3273,2381
3274,2266
3275,2264
3276,2457
3277,2378
3278,1983
3279,1454
3280,1487
3281,1611
3282,1616
3283,1655
3284,1744
3285,1792
3286,1798
3287,1817
3288,1847
3289,1872
3290,1882
3291,1856
3292,1859
3293,1858
3294,1877
3295,1858
3296,1855
3297,1851
3298,1867
3299,1874
3300,1883
3301,2010
3302,593
3303,2017
3304,2389
3305,2287
3306,2279
3307,2470
3308,2411
3309,2016
3310,1472
3311,1456
3312,1597
3313,1590
3314,1638
3315,1715
3316,1778
3317,1806
3318,1840
3319,1871
3320,1891
3321,1915
3322,1933
3323,1904
3324,1853
3325,1837
3326,1844
3327,1843
3328,1851
3329,1845
3330,1845
3331,1876
3332,1872
3333,1878
3334,1883
3335,1878
3336,1891
3337,1887
3338,1889
3339,1903
3340,1890
3341,1874
3342,1863
3343,1877
3344,1868
3345,1863
3346,1858
3347,1865
3348,1856
3349,1861
3350,1869
3351,1857
3352,1874
3353,1867
3354,1859
3355,1874
3356,1872
3357,1869
3358,1865
3359,1856
3360,1851
3361,1846
3362,1842
3363,1851
3364,1857
3365,1870
3366,1859
3367,1866
3368,1879
3369,1872
3370,1872
3371,1873
3372,1879
3373,1860
3374,1861
3375,1854
3376,1843
3377,1835
3378,1839
3379,1839
3380,1847
3381,1833
3382,1851
3383,1849
3384,1854
3385,1872
3386,1877
3387,1862
3388,1854
3389,1875
3390,1877
3391,1852
3392,1855
3393,1843
3394,1846
3395,1841
3396,1843
3397,1847
3398,1854
3399,1857
3400,1866
3401,1866
3402,1871
3403,1871
3404,1863
3405,1883
3406,1859
3407,1872
3408,1862
3409,1869
3410,1861
3411,1840
3412,1840
3413,1838
3414,1862
3415,1869
3416,1866
3417,1863
3418,1867
3419,1865
3420,1860
3421,1861
3422,1881
3423,1899
3424,1863
3425,1859
3426,1851
3427,1858
3428,1866
3429,1855
3430,1853
3431,1856
3432,1851
3433,1849
3434,1850
3435,1861
3436,1863
3437,1871
3438,1873
3439,1868
3440,1873
3441,1863
3442,1867
3443,1866
3444,1866
3445,1860
3446,1835
3447,1808
3448,1830
3449,1853
3450,1858
3451,1870
3452,1871
3453,1856
3454,1859
3455,1865
3456,1899
3457,1883
3458,1877
3459,1871
3460,1855
3461,1851
3462,1842
3463,1840
3464,1825
3465,1847
3466,1847
3467,1869
3468,1873
3469,1894
3470,1893
3471,1904
3472,1905
3473,1904
3474,1856
3475,1823
3476,1808
3477,1829
3478,1822
3479,1822
3480,1838
3481,1857
3482,1875
3483,1892
3484,1900
3485,1905
3486,1894
3487,1889
3488,1874
3489,1874
3490,1904
3491,1856
3492,1842
3493,1847
3494,1845
3495,1827
3496,1857
3497,1840
3498,1819
3499,1843
3500,1871
3501,1870
3502,1904
3503,1905
3504,1894
3505,1889
3506,1857
3507,1830
3508,1814
3509,1825
3510,1825
3511,1840
3512,1841
3513,1840
3514,1850
3515,1865
3516,1853
3517,1878
3518,1870
3519,1883
3520,1873
3521,1872
3522,1884
3523,1867
3524,1866
3525,1855
3526,1845
3527,1865
3528,1855
3529,1845
3530,1859
3531,1851
3532,1861
3533,1857
3534,1867
3535,1856
3536,1864
3537,1859
3538,1869
3539,1867
3540,1878
3541,1872
3542,1859
3543,1868
3544,1849
3545,1843
3546,1843
3547,1846
3548,1859
3549,1855
3550,1865
3551,1866
3552,1863
3553,1872
3554,1876
3555,1887
3556,1871
3557,1871
3558,1855
3559,1857
3560,1840
3561,1840
3562,1840
3563,1840
3564,1838
3565,1851
3566,1856
3567,1859
3568,1856
3569,1873
3570,1872
3571,1872
3572,1878
3573,1887
3574,1871
3575,1858
3576,1846
3577,1840
3578,1841
3579,1843
3580,1854
3581,1841
3582,1860
3583,1862
3584,1872
3585,1867
3586,1874
3587,1866
3588,1869
3589,1870
3590,1868
3591,1862
3592,1862
3593,1861
3594,1851
3595,1841
3596,1840
3597,1846
3598,1871
3599,1862
3600,1863
3601,1863
3602,1876
3603,1869
3604,1865
3605,1875
3606,1891
3607,1872
3608,1867
3609,1860
3610,1859
3611,1850
3612,1843
3613,1846
3614,1843
3615,1857
3616,1870
3617,1869
3618,1877
3619,1879
3620,1872
3621,1869
3622,1871
3623,1862
3624,1867
3625,1850
3626,1853
3627,1856
3628,1842
3629,1840
3630,1853
3631,1867
3632,1857
3633,1863
3634,1863
3635,1875
3636,1878
3637,1883
3638,1877
3639,1886
3640,1867
3641,1856
3642,1849
3643,1844
3644,1841
3645,1840
3646,1840
3647,1851
3648,1851
3649,1863
3650,1871
3651,1866
3652,1882
3653,1869
3654,1869
3655,1872
3656,1870
3657,1863
3658,1862
3659,1855
3660,1840
3661,1843
3662,1841
3663,1843
3664,1845
3665,1853
3666,1858
3667,1861
3668,1869
3669,1882
3670,1870
3671,1872
3672,1878
3673,1872
3674,1872
3675,1863
3676,1858
3677,1843
3678,1845
3679,1851
3680,1845
3681,1870
3682,1861
3683,1852
3684,1851
3685,1850
3686,1866
3687,1862
3688,1867
3689,1874
3690,1873
3691,1862
3692,1859
3693,1853
3694,1842
3695,1846
3696,1847
3697,1853
3698,1853
3699,1856
3700,1863
3701,1875
3702,1862
3703,1872
3704,1874
3705,1885
3706,1899
3707,1873
3708,1858
3709,1847
3710,1840
3711,1842
3712,1840
3713,1840
3714,1840
3715,1841
3716,1855
3717,1861
3718,1859
3719,1859
3720,1871
3721,1873
3722,1876
3723,1887
3724,1879
3725,1870
3726,1859
3727,1871
3728,1854
3729,1847
3730,1858
3731,1872
3732,1847
3733,1843
3734,1859
3735,1859
3736,1872
3737,1867
3738,1871
3739,1893
3740,1887
3741,1860
3742,1837
3743,1853
3744,1839
3745,1835
3746,1834
3747,1840
3748,1858
3749,1859
3750,1857
3751,1863
3752,1872
3753,1863
3754,1872
3755,1881
3756,1879
3757,1895
3758,1889
3759,1892
3760,1872
3761,1861
3762,1849
3763,1856
3764,1851
3765,1847
3766,1852
3767,1868
3768,1872
3769,1869
3770,1870
3771,1867
3772,1873
3773,1872
3774,1855
3775,1843
3776,1856
3777,1841
3778,1844
3779,1842
3780,1856
3781,1863
3782,1863
3783,1860
3784,1867
3785,1869
3786,1883
3787,1874
3788,1875
3789,1882
3790,1867
3791,1862
3792,1851
3793,1840
3794,1847
3795,1841
3796,1849
3797,1855
3798,1856
3799,1860
3800,1865
3801,1872
3802,1871
3803,1861
3804,1855
3805,1859
3806,1856
3807,1863
3808,1859
3809,1856
3810,1858
3811,1856
3812,1853
3813,1856
3814,1863
3815,1870
3816,1858
3817,1853
3818,1855
3819,1879
3820,1869
3821,1872
3822,1878
3823,1872
3824,1865
3825,1849
3826,1853
3827,1845
3828,1850
3829,1866
3830,1881
3831,1886
3832,1893
3833,1891
3834,1883
3835,1861
3836,1872
3837,1858
3838,1835
3839,1839
3840,1839
3841,1845
3842,1828
3843,1817
3844,1834
3845,1820
3846,1808
3847,1827
3848,1843
3849,1851
3850,1852
3851,1845
3852,1886
3853,1892
3854,1904
3855,1894
3856,1904
3857,1889
3858,1871
3859,1862
3860,1871
3861,1841
3862,1846
3863,1846
3864,1839
3865,1859
3866,1851
3867,1850
3868,1851
3869,1869
3870,1873
3871,1872
3872,1877
3873,1890
3874,1865
3875,1842
3876,1840
3877,1831
3878,1844
3879,1855
3880,1854
3881,1855
3882,1877
3883,1874
3884,1872
3885,1862
3886,1868
3887,1856
3888,1850
3889,1869
3890,1863
3891,1862
3892,1858
3893,1843
3894,1856
3895,1851
3896,1853
3897,1855
3898,1874
3899,1861
3900,1858
3901,1871
3902,1854
3903,1862
3904,1859
3905,1865
3906,1878
3907,1872
3908,1855
3909,1846
3910,1858
3911,1850
3912,1840
3913,1841
3914,1851
3915,1878
3916,1898
3917,1901
3918,1898
3919,1895
3920,1861
3921,1856
3922,1853
3923,1827
3924,1825
3925,1823
3926,1831
3927,1819
3928,1818
3929,1827
3930,1857
3931,1877
3932,1893
3933,1893
3934,1886
3935,1874
3936,1862
3937,1858
3938,1872
3939,1879
3940,1872
3941,1870
3942,1859
3943,1857
3944,1857
3945,1857
3946,1861
3947,1859
3948,1849
3949,1861
3950,1866
3951,1872
3952,1875
3953,1863
3954,1857
3955,1875
3956,1876
3957,1873
3958,1868
3959,1856
3960,1850
3961,1846
3962,1840
3963,1838
3964,1840
3965,1846
3966,1851
3967,1856
3968,1873
3969,1877
3970,1881
3971,1882
3972,1887
3973,1879
3974,1856
3975,1840
3976,1815
3977,1847
3978,1850
3979,1853
3980,1854
3981,1850
3982,1867
3983,1856
3984,1854
3985,1861
3986,1881
3987,1878
3988,1883
3989,1894
3990,1894
3991,1889
3992,1872
3993,1876
3994,1857
3995,1857
3996,1840
3997,1844
3998,1867
3999,1846
4000,1835
4001,1839
4002,1847
4003,1860
4004,1847
4005,1837
4006,1852
4007,1850
4008,1852
4009,1853
4010,1856
4011,1851
4012,1850
4013,1846
4014,1841
4015,1840
4016,1858
4017,1866
4018,1861
4019,1871
4020,1874
4021,1872
4022,1873
4023,1879
4024,1861
4025,1850
4026,1844
4027,1856
4028,1834
4029,1839
4030,1839
4031,1857
4032,1856
4033,1866
4034,1870
4035,1879
4036,1878
4037,1872
4038,1879
4039,1889
4040,1874
4041,1870
4042,1863
4043,1866
4044,1853
4045,1841
4046,1840
4047,1844
4048,1842
4049,1862
4050,1859
4051,1872
4052,1875
4053,1869
4054,1869
4055,1874
4056,1871
4057,1865
4058,1858
4059,1845
4060,1842
4061,1840
4062,1843
4063,1842
4064,1849
4065,1846
4066,1862
4067,1877
4068,1871
4069,1878
4070,1872
4071,1870
4072,1875
4073,1863
4074,1858
4075,1852
4076,1851
4077,1857
4078,1854
4079,1854
4080,1851
4081,1857
4082,1853
4083,1847
4084,1854
4085,1854
4086,1872
4087,1874
4088,1885
4089,1907
4090,1901
4091,1899
4092,1859
4093,1839
4094,1826
4095,1835
4096,1831
4097,1841
4098,1840
4099,1857
4100,1856
4101,1838
4102,1815
4103,1818
4104,1845
4105,1865
4106,1872
4107,1879
4108,1883
4109,1894
4110,1904
4111,1886
4112,1861
4113,1858
4114,1858
4115,1875
4116,1865
4117,1859
4118,1883
4119,1884
4120,1872
4121,1871
4122,1873
4123,1877
4124,1859
4125,1847
4126,1859
4127,1844
4128,1843
4129,1840
4130,1847
4131,1840
4132,1858
4133,1864
4134,1855
4135,1858
4136,1846
4137,1843
4138,1853
4139,1851
4140,1853
4141,1840
4142,1854
4143,1856
4144,1856
4145,1856
4146,1870
4147,1874
4148,1858
4149,1858
4150,1864
4151,1879
4152,1889
4153,1878
4154,1884
4155,1879
4156,1875
4157,1872
4158,1843
4159,1823
4160,1813
4161,1827
4162,1823
4163,1824
4164,1840
4165,1872
4166,1885
4167,1887
4168,1857
4169,1841
4170,1847
4171,1858
4172,1882
4173,1872
4174,1877
4175,1856
4176,1859
4177,1840
4178,1840
4179,1837
4180,1859
4181,1894
4182,1935
4183,1941
4184,1904
4185,1869
4186,1861
4187,1839
4188,1845
4189,1855
4190,1871
4191,1855
4192,1840
4193,1847
4194,1865
4195,1865
4196,1871
4197,1869
4198,1874
4199,1861
4200,1861
4201,1872
4202,1889
4203,1867
4204,1856
4205,1866
4206,1875
4207,1875
4208,1885
4209,1882
4210,1875
4211,1845
4212,1841
4213,1840
4214,1828
4215,1814
4216,1778
4217,1789
4218,1802
4219,1818
4220,1847
4221,1905
4222,1941
4223,1939
4224,1904
4225,1868
4226,1856
4227,1859
4228,1882
4229,1879
4230,1891
4231,1889
4232,1873
4233,1855
4234,1858
4235,1855
4236,1857
4237,1837
4238,1840
4239,1874
4240,1878
4241,1841
4242,1819
4243,1847
4244,1824
4245,1824
4246,1836
4247,1841
4248,1874
4249,1889
4250,1920
4251,1919
4252,1913
4253,1909
4254,1913
4255,1911
4256,1906
4257,1869
4258,1841
4259,1837
4260,1829
4261,1843
4262,1840
4263,1840
4264,1851
4265,1863
4266,1879
4267,1899
4268,1897
4269,1895
4270,1898
4271,1895
4272,1870
4273,1802
4274,1751
4275,1759
4276,1796
4277,1802
4278,1835
4279,1862
4280,1877
4281,1869
4282,1878
4283,1873
4284,1843
4285,1856
4286,1871
4287,1886
4288,1904
4289,1902
4290,1895
4291,1873
4292,1855
4293,1862
4294,1856
4295,1863
4296,1861
4297,1846
4298,1851
4299,1856
4300,1868
4301,1872
4302,1870
4303,1857
4304,1877
4305,1895
4306,1895
4307,1872
4308,1857
4309,1835
4310,1815
4311,1814
4312,1814
4313,1833
4314,1855
4315,1863
4316,1863
4317,1856
4318,1863
4319,1856
4320,1862
4321,1867
4322,1878
4323,1887
4324,1680
4325,1083
4326,2167
4327,2413
4328,2412
4329,2320
4330,2254
4331,2178
4332,2127
4333,2097
4334,1997
4335,1887
4336,1710
4337,1520
4338,1462
4339,1471
4340,1520
4341,1603
4342,1648
4343,1680
4344,1669
4345,1707
4346,1753
4347,1803
4348,1870
4349,1907
4350,1946
4351,1984
4352,1967
4353,1945
4354,1929
4355,1366
4356,1223
4357,2309
4358,2448
4359,2357
4360,2299
4361,2260
4362,2208
4363,2162
4364,2140
4365,2067
4366,1925
4367,1634
4368,1441
4369,1418
4370,1450
4371,1523
4372,1603
4373,1662
4374,1705
4375,1730
4376,1770
4377,1802
4378,1845
4379,1867
4380,1893
4381,1920
4382,1919
4383,1903
4384,1895
4385,1907
4386,1455
4387,1137
4388,2278
4389,2466
4390,2402
4391,2345
4392,2285
4393,2224
4394,2160
4395,2086
4396,1967
4397,1805
4398,1535
4399,1445
4400,1431
4401,1454
4402,1535
4403,1643
4404,1726
4405,1767
4406,1781
4407,1781
4408,1791
4409,1814
4410,1845
4411,1897
4412,1905
4413,1899
4414,1917
4415,1936
4416,1959
4417,1974
4418,1040
4419,2278
4420,2486
4421,2414
4422,2353
4423,2317
4424,2235
4425,2162
4426,2090
4427,1967
4428,1728
4429,1494
4430,1439
4431,1424
4432,1477
4433,1576
4434,1648
4435,1724
4436,1790
4437,1820
4438,1851
4439,1890
4440,1901
4441,1905
4442,1887
4443,1882
4444,1890
4445,1885
4446,1900
4447,1888
4448,1919
4449,999
4450,2234
4451,2430
4452,2339
4453,2288
4454,2240
4455,2199
4456,2199
4457,2149
4458,2016
4459,1749
4460,1535
4461,1485
4462,1469
4463,1501
4464,1583
4465,1678
4466,1733
4467,1763
4468,1779
4469,1825
4470,1861
4471,1893
4472,1911
4473,1920
4474,1936
4475,1929
4476,1922
4477,1920
4478,1904
4479,2096
4480,1049
4481,2192
4482,2363
4483,2226
4484,2165
4485,2128
4486,2129
4487,2160
4488,2160
4489,2059
4490,1805
4491,1586
4492,1535
4493,1535
4494,1565
4495,1627
4496,1703
4497,1758
4498,1803
4499,1814
4500,1836
4501,1886
4502,1905
4503,1903
4504,1904
4505,1911
4506,1917
4507,1915
4508,1907
4509,1886
4510,2150
4511,1043
4512,2183
4513,2340
4514,2243
4515,2196
4516,2157
4517,2125
4518,2119
4519,2096
4520,1998
4521,1745
4522,1583
4523,1535
4524,1535
4525,1571
4526,1648
4527,1722
4528,1759
4529,1777
4530,1801
4531,1826
4532,1852
4533,1872
4534,1883
4535,1902
4536,1919
4537,1914
4538,1919
4539,1936
4540,1941
4541,2242
4542,1063
4543,2176
4544,2379
4545,2304
4546,2242
4547,2209
4548,2181
4549,2156
4550,2098
4551,1975
4552,1700
4553,1521
4554,1487
4555,1519
4556,1584
4557,1665
4558,1723
4559,1757
4560,1778
4561,1792
4562,1786
4563,1804
4564,1833
4565,1845
4566,1863
4567,1884
4568,1903
4569,1936
4570,1927
4571,1932
4572,2330
4573,1104
4574,2199
4575,2385
4576,2319
4577,2258
4578,2218
4579,2175
4580,2111
4581,2061
4582,1930
4583,1674
4584,1535
4585,1531
4586,1565
4587,1623
4588,1692
4589,1755
4590,1808
4591,1803
4592,1776
4593,1779
4594,1815
4595,1840
4596,1859
4597,1889
4598,1903
4599,1918
4600,1911
4601,1904
4602,1915
4603,2371
4604,1073
4605,2192
4606,2416
4607,2313
4608,2243
4609,2207
4610,2161
4611,2114
4612,2075
4613,1927
4614,1648
4615,1486
4616,1497
4617,1535
4618,1602
4619,1691
4620,1749
4621,1792
4622,1808
4623,1824
4624,1827
4625,1840
4626,1873
4627,1867
4628,1882
4629,1890
4630,1879
4631,1901
4632,1902
4633,1895
4634,2335
4635,1005
4636,2196
4637,2466
4638,2419
4639,2362
4640,2289
4641,2206
4642,2097
4643,2022
4644,1825
4645,1586
4646,1453
4647,1433
4648,1488
4649,1584
4650,1663
4651,1744
4652,1783
4653,1810
4654,1830
4655,1855
4656,1891
4657,1902
4658,1895
4659,1893
4660,1893
4661,1890
4662,1900
4663,1887
4664,1883
4665,1931
4666,1082
4667,2205
4668,2489
4669,2469
4670,2416
4671,2333
4672,2224
4673,2084
4674,1950
4675,1769
4676,1533
4677,1437
4678,1424
4679,1482
4680,1573
4681,1638
4682,1727
4683,1776
4684,1807
4685,1835
4686,1869
4687,1893
4688,1919
4689,1931
4690,1929
4691,1883
4692,1871
4693,1875
4694,1879
4695,1889
4696,2453
4697,1010
4698,2171
4699,2514
4700,2490
4701,2407
4702,2320
4703,2223
4704,2077
4705,1950
4706,1805
4707,1585
4708,1457
4709,1439
4710,1494
4711,1565
4712,1632
4713,1701
4714,1767
4715,1821
4716,1840
4717,1861
4718,1889
4719,1904
4720,1919
4721,1909
4722,1920
4723,1924
4724,1900
4725,1890
4726,1882
4727,2138
4728,1325
4729,2224
4730,2427
4731,2371
4732,2298
4733,2240
4734,2161
4735,2065
4736,1970
4737,1807
4738,1583
4739,1489
4740,1493
4741,1534
4742,1594
4743,1655
4744,1723
4745,1791
4746,1826
4747,1840
4748,1846
4749,1872
4750,1899
4751,1890
4752,1893
4753,1887
4754,1872
4755,1855
4756,1873
4757,1899
4758,2207
4759,1502
4760,2225
4761,2314
4762,2212
4763,2141
4764,2106
4765,2065
4766,2011
4767,1991
4768,1866
4769,1680
4770,1557
4771,1581
4772,1621
4773,1642
4774,1691
4775,1739
4776,1787
4777,1809
4778,1812
4779,1824
4780,1850
4781,1862
4782,1875
4783,1893
4784,1904
4785,1911
4786,1910
4787,1906
4788,1906
4789,2210
4790,1555
4791,2230
4792,2260
4793,2123
4794,2061
4795,2036
4796,2035
4797,2035
4798,2013
4799,1947
4800,1747
4801,1615
4802,1614
4803,1628
4804,1646
4805,1699
4806,1770
4807,1808
4808,1819
4809,1817
4810,1829
4811,1837
4812,1844
4813,1853
4814,1870
4815,1879
4816,1879
4817,1886
4818,1875
4819,1895
4820,2256
4821,1535
4822,2223
4823,2294
4824,2165
4825,2096
4826,2063
4827,2064
4828,2043
4829,2001
4830,1918
4831,1719
4832,1590
4833,1583
4834,1614
4835,1649
4836,1702
4837,1747
4838,1803
4839,1839
4840,1859
4841,1858
4842,1861
4843,1871
4844,1867
4845,1865
4846,1862
4847,1861
4848,1873
4849,1879
4850,1889
4851,2625
4852,1409
4853,2147
4854,2283
4855,2184
4856,2127
4857,2075
4858,2064
4859,2055
4860,1967
4861,1860
4862,1671
4863,1581
4864,1616
4865,1654
4866,1669
4867,1712
4868,1763
4869,1808
4870,1826
4871,1840
4872,1854
4873,1872
4874,1872
4875,1869
4876,1847
4877,1859
4878,1855
4879,1865
4880,1874
4881,1881
4882,2721
4883,1360
4884,2178
4885,2338
4886,2207
4887,2095
4888,2023
4889,2042
4890,2030
4891,1940
4892,1818
4893,1654
4894,1625
4895,1664
4896,1683
4897,1703
4898,1738
4899,1792
4900,1815
4901,1850
4902,1835
4903,1847
4904,1855
4905,1872
4906,1886
4907,1885
4908,1872
4909,1878
4910,1874
4911,1871
4912,1867
4913,2800
4914,1235
4915,2179
4916,2352
4917,2242
4918,2128
4919,2054
4920,2077
4921,2034
4922,1921
4923,1770
4924,1638
4925,1615
4926,1680
4927,1702
4928,1713
4929,1749
4930,1782
4931,1803
4932,1805
4933,1821
4934,1837
4935,1851
4936,1875
4937,1878
4938,1873
4939,1890
4940,1883
4941,1882
4942,1877
4943,1872
4944,1863
4945,1859
4946,1862
4947,1863
4948,1882
4949,1881
4950,1884
4951,1879
4952,1876
4953,1881
4954,1880
4955,1879
4956,1882
4957,1885
4958,1871
4959,1855
4960,1868
4961,1847
4962,1850
4963,1851
4964,1854
4965,1865
4966,1863
4967,1867
4968,1857
4969,1871
4970,1871
4971,1869
4972,1873
4973,1872
4974,1866
4975,1857
4976,1851
4977,1858
4978,1838
4979,1829
4980,1840
4981,1842
4982,1854
4983,1863
4984,1869
4985,1882
4986,1878
4987,1869
4988,1869
4989,1861
4990,1855
4991,1861
4992,1869
4993,1851
4994,1852
4995,1842
4996,1846
4997,1851
4998,1842
4999,1856
5000,1858
5001,1869
5002,1856
5003,1865
5004,1860
5005,1859
5006,1875
5007,1859
5008,1861
5009,1855
5010,1851
5011,1843
5012,1840
5013,1843
5014,1854
5015,1863
5016,1858
5017,1861
5018,1866
5019,1867
5020,1872
5021,1871
5022,1873
5023,1877
5024,1875
5025,1866
5026,1863
5027,1845
5028,1840
5029,1840
5030,1840
5031,1852
5032,1861
5033,1853
5034,1847
5035,1867
5036,1867
5037,1872
5038,1883
5039,1879
5040,1882
5041,1854
5042,1843
5043,1846
5044,1840
5045,1847
5046,1851
5047,1859
5048,1871
5049,1877
5050,1872
5051,1873
5052,1875
5053,1885
5054,1891
5055,1908
5056,1902
5057,1915
5058,1891
5059,1870
5060,1850
5061,1842
5062,1824
5063,1805
5064,1811
5065,1829
5066,1819
5067,1828
5068,1830
5069,1853
5070,1867
5071,1863
5072,1873
5073,1889
5074,1869
5075,1854
5076,1846
5077,1855
5078,1849
5079,1842
5080,1854
5081,1873
5082,1871
5083,1872
5084,1875
5085,1888
5086,1917
5087,1923
5088,1915
5089,1936
5090,1942
5091,1918
5092,1892
5093,1845
5094,1814
5095,1786
5096,1776
5097,1774
5098,1800
5099,1824
5100,1834
5101,1844
5102,1872
5103,1871
5104,1875
5105,1890
5106,1913
5107,1935
5108,1951
5109,1936
5110,1913
5111,1879
5112,1853
5113,1808
5114,1797
5115,1808
5116,1812
5117,1840
5118,1856
5119,1869
5120,1866
5121,1872
5122,1878
5123,1872
5124,1857
5125,1857
5126,1851
5127,1846
5128,1815
5129,1808
5130,1834
5131,1839
5132,1855
5133,1842
5134,1853
5135,1875
5136,1890
5137,1887
5138,1887
5139,1887
5140,1895
5141,1872
5142,1850
5143,1855
5144,1846
5145,1840
5146,1845
5147,1851
5148,1853
5149,1862
5150,1869
5151,1871
5152,1865
5153,1874
5154,1870
5155,1872
5156,1868
5157,1877
5158,1857
5159,1856
5160,1845
5161,1853
5162,1842
5163,1845
5164,1849
5165,1869
5166,1862
5167,1861
5168,1869
5169,1873
5170,1872
5171,1871
5172,1877
5173,1894
5174,1869
5175,1859
5176,1855
5177,1857
5178,1846
5179,1845
5180,1857
5181,1852
5182,1863
5183,1874
5184,1875
5185,1885
5186,1892
5187,1898
5188,1904
5189,1918
5190,1919
5191,1886
5192,1875
5193,1863
5194,1840
5195,1835
5196,1812
5197,1786
5198,1813
5199,1822
5200,1834
5201,1838
5202,1856
5203,1853
5204,1857
5205,1866
5206,1879
5207,1871
5208,1862
5209,1859
5210,1853
5211,1855
5212,1847
5213,1851
5214,1851
5215,1859
5216,1861
5217,1859
5218,1861
5219,1876
5220,1874
5221,1873
5222,1874
5223,1872
5224,1872
5225,1855
5226,1859
5227,1837
5228,1846
5229,1841
5230,1844
5231,1840
5232,1856
5233,1857
5234,1871
5235,1883
5236,1879
5237,1871
5238,1869
5239,1879
5240,1877
5241,1872
5242,1866
5243,1873
5244,1840
5245,1843
5246,1853
5247,1856
5248,1864
5249,1863
5250,1862
5251,1870
5252,1860
5253,1858
5254,1859
5255,1860
5256,1861
5257,1869
5258,1857
5259,1853
5260,1837
5261,1851
5262,1846
5263,1847
5264,1851
5265,1858
5266,1859
5267,1869
5268,1867
5269,1872
5270,1872
5271,1872
5272,1884
5273,1873
5274,1866
5275,1850
5276,1840
5277,1841
5278,1850
5279,1849
5280,1861
5281,1863
5282,1872
5283,1873
5284,1875
5285,1877
5286,1861
5287,1847
5288,1855
5289,1872
5290,1875
5291,1854
5292,1846
5293,1863
5294,1839
5295,1847
5296,1845
5297,1847
5298,1859
5299,1861
5300,1872
5301,1871
5302,1869
5303,1872
5304,1866
5305,1868
5306,1867
5307,1872
5308,1859
5309,1856
5310,1862
5311,1853
5312,1847
5313,1843
5314,1857
5315,1872
5316,1863
5317,1870
5318,1855
5319,1867
5320,1872
5321,1867
5322,1870
5323,1853
5324,1856
5325,1845
5326,1850
5327,1846
5328,1854
5329,1843
5330,1845
5331,1845
5332,1866
5333,1865
5334,1865
5335,1869
5336,1883
5337,1873
5338,1874
5339,1877
5340,1883
5341,1898
5342,1883
5343,1872
5344,1859
5345,1843
5346,1842
5347,1829
5348,1807
5349,1814
5350,1823
5351,1861
5352,1874
5353,1875
5354,1877
5355,1887
5356,1875
5357,1869
5358,1853
5359,1847
5360,1829
5361,1840
5362,1840
5363,1840
5364,1844
5365,1845
5366,1857
5367,1857
5368,1847
5369,1867
5370,1873
5371,1875
5372,1879
5373,1872
5374,1872
5375,1860
5376,1843
5377,1854
5378,1840
5379,1842
5380,1849
5381,1852
5382,1851
5383,1863
5384,1869
5385,1882
5386,1878
5387,1872
5388,1871
5389,1875
5390,1877
5391,1867
5392,1857
5393,1856
5394,1840
5395,1841
5396,1840
5397,1846
5398,1839
5399,1861
5400,1862
5401,1872
5402,1875
5403,1872
5404,1869
5405,1873
5406,1869
5407,1879
5408,1863
5409,1853
5410,1861
5411,1846
5412,1846
5413,1855
5414,1863
5415,1877
5416,1870
5417,1863
5418,1872
5419,1858
5420,1863
5421,1867
5422,1883
5423,1902
5424,1872
5425,1857
5426,1848
5427,1853
5428,1839
5429,1839
5430,1837
5431,1838
5432,1839
5433,1859
5434,1869
5435,1890
5436,1882
5437,1873
5438,1862
5439,1870
5440,1860
5441,1849
5442,1840
5443,1855
5444,1856
5445,1846
5446,1845
5447,1856
5448,1869
5449,1861
5450,1862
5451,1872
5452,1871
5453,1878
5454,1859
5455,1856
5456,1870
5457,1878
5458,1869
5459,1869
5460,1843
5461,1852
5462,1857
5463,1870
5464,1871
5465,1884
5466,1872
5467,1863
5468,1861
5469,1848
5470,1846
5471,1847
5472,1856
5473,1859
5474,1859
5475,1851
5476,1846
5477,1851
5478,1851
5479,1847
5480,1847
5481,1856
5482,1859
5483,1857
5484,1856
5485,1856
5486,1872
5487,1869
5488,1871
5489,1877
5490,1886
5491,1872
5492,1861
5493,1868
5494,1861
5495,1849
5496,1847
5497,1850
5498,1865
5499,1855
5500,1857
5501,1864
5502,1872
5503,1871
5504,1867
5505,1869
5506,1863
5507,1881
5508,1863
5509,1857
5510,1850
5511,1855
5512,1851
5513,1856
5514,1841
5515,1844
5516,1852
5517,1854
5518,1859
5519,1859
5520,1867
5521,1862
5522,1871
5523,1884
5524,1878
5525,1872
5526,1862
5527,1845
5528,1831
5529,1836
5530,1835
5531,1847
5532,1854
5533,1847
5534,1858
5535,1872
5536,1886
5537,1881
5538,1875
5539,1873
5540,1881
5541,1872
5542,1858
5543,1852
5544,1853
5545,1840
5546,1842
5547,1847
5548,1863
5549,1854
5550,1859
5551,1863
5552,1869
5553,1875
5554,1871
5555,1877
5556,1872
5557,1874
5558,1867
5559,1854
5560,1853
5561,1840
5562,1842
5563,1842
5564,1844
5565,1851
5566,1862
5567,1870
5568,1862
5569,1857
5570,1872
5571,1872
5572,1870
5573,1885
5574,1870
5575,1854
5576,1845
5577,1846
5578,1841
5579,1840
5580,1847
5581,1839
5582,1855
5583,1856
5584,1859
5585,1863
5586,1873
5587,1883
5588,1883
5589,1885
5590,1885
5591,1863
5592,1855
5593,1866
5594,1852
5595,1843
5596,1841
5597,1844
5598,1862
5599,1862
5600,1863
5601,1869
5602,1871
5603,1879
5604,1874
5605,1883
5606,1890
5607,1891
5608,1895
5609,1886
5610,1871
5611,1862
5612,1856
5613,1853
5614,1839
5615,1840
5616,1825
5617,1819
5618,1839
5619,1845
5620,1866
5621,1871
5622,1860
5623,1882
5624,1870
5625,1860
5626,1861
5627,1850
5628,1856
5629,1858
5630,1860
5631,1856
5632,1873
5633,1855
5634,1838
5635,1857
5636,1854
5637,1831
5638,1850
5639,1869
5640,1872
5641,1868
5642,1858
5643,1849
5644,1859
5645,1844
5646,1852
5647,1853
5648,1856
5649,1869
5650,1873
5651,1872
5652,1870
5653,1869
5654,1872
5655,1875
5656,1871
5657,1878
5658,1871
5659,1859
5660,1856
5661,1850
5662,1843
5663,1840
5664,1837
5665,1830
5666,1851
5667,1856
5668,1845
5669,1859
5670,1859
5671,1866
5672,1874
5673,1877
5674,1881
5675,1878
5676,1861
5677,1842
5678,1847
5679,1855
5680,1842
5681,1846
5682,1874
5683,1863
5684,1863
5685,1879
5686,1883
5687,1872
5688,1865
5689,1859
5690,1869
5691,1865
5692,1856
5693,1877
5694,1835
5695,1842
5696,1851
5697,1840
5698,1830
5699,1840
5700,1841
5701,1854
5702,1877
5703,1893
5704,1889
5705,1890
5706,1886
5707,1904
5708,1872
5709,1850
5710,1841
5711,1859
5712,1867
5713,1882
5714,1887
5715,1913
5716,1899
5717,1879
5718,1871
5719,1841
5720,1799
5721,1798
5722,1801
5723,1817
5724,1841
5725,1854
5726,1870
5727,1861
5728,1856
5729,1840
5730,1846
5731,1856
5732,1872
5733,1861
5734,1872
5735,1863
5736,1872
5737,1871
5738,1865
5739,1867
5740,1882
5741,1871
5742,1867
5743,1850
5744,1843
5745,1855
5746,1853
5747,1855
5748,1843
5749,1859
5750,1861
5751,1871
5752,1854
5753,1867
5754,1862
5755,1869
5756,1872
5757,1857
5758,1861
5759,1854
5760,1844
5761,1852
5762,1846
5763,1846
5764,1855
5765,1867
5766,1858
5767,1856
5768,1873
5769,1856
5770,1871
5771,1871
5772,1872
5773,1869
5774,1875
5775,1859
5776,1856
5777,1847
5778,1840
5779,1840
5780,1846
5781,1847
5782,1863
5783,1856
5784,1871
5785,1885
5786,1889
5787,1879
5788,1879
5789,1888
5790,1904
5791,1893
5792,1883
5793,1862
5794,1850
5795,1836
5796,1802
5797,1781
5798,1810
5799,1839
5800,1858
5801,1874
5802,1904
5803,1894
5804,1885
5805,1880
5806,1886
5807,1872
5808,1856
5809,1841
5810,1822
5811,1827
5812,1838
5813,1840
5814,1835
5815,1856
5816,1854
5817,1863
5818,1853
5819,1898
5820,1899
5821,1866
5822,1846
5823,1831
5824,1846
5825,1851
5826,1851
5827,1851
5828,1870
5829,1875
5830,1871
5831,1862
5832,1861
5833,1865
5834,1863
5835,1872
5836,1884
5837,1877
5838,1882
5839,1878
5840,1890
5841,1867
5842,1859
5843,1849
5844,1829
5845,1830
5846,1831
5847,1843
5848,1856
5849,1862
5850,1866
5851,1867
5852,1879
5853,1874
5854,1872
5855,1885
5856,1887
5857,1865
5858,1858
5859,1853
5860,1842
5861,1851
5862,1849
5863,1853
5864,1854
5865,1856
5866,1858
5867,1860
5868,1856
5869,1868
5870,1872
5871,1871
5872,1872
5873,1855
5874,1856
5875,1847
5876,1846
5877,1847
5878,1843
5879,1843
5880,1857
5881,1863
5882,1863
5883,1856
5884,1865
5885,1871
5886,1878
5887,1874
5888,1881
5889,1887
5890,1889
5891,1862
5892,1849
5893,1854
5894,1851
5895,1847
5896,1839
5897,1846
5898,1858
5899,1857
5900,1862
5901,1859
5902,1871
5903,1873
5904,1862
5905,1869
5906,1878
5907,1866
5908,1864
5909,1855
5910,1851
5911,1853
5912,1847
5913,1849
5914,1846
5915,1866
5916,1850
5917,1854
5918,1867
5919,1883
5920,1869
5921,1868
5922,1863
5923,1875
5924,1870
5925,1858
5926,1857
5927,1846
5928,1849
5929,1841
5930,1836
5931,1847
5932,1843
5933,1860
5934,1866
5935,1857
5936,1374
5937,1845
5938,2208
5939,2272
5940,2279
5941,2240
5942,2211
5943,2202
5944,2148
5945,2035
5946,1936
5947,1767
5948,1578
5949,1502
5950,1507
5951,1530
5952,1568
5953,1630
5954,1664
5955,1649
5956,1667
5957,1686
5958,1744
5959,1789
5960,1835
5961,1855
5962,1872
5963,1881
5964,1877
5965,1901
5966,1891
5967,1490
5968,1845
5969,2242
5970,2238
5971,2192
5972,2195
5973,2219
5974,2227
5975,2175
5976,2062
5977,1920
5978,1712
5979,1495
5980,1466
5981,1527
5982,1561
5983,1604
5984,1670
5985,1727
5986,1749
5987,1758
5988,1776
5989,1813
5990,1838
5991,1862
5992,1870
5993,1863
5994,1855
5995,1862
5996,1873
5997,1885
5998,1460
5999,1819
6000,2203
6001,2214
6002,2189
6003,2217
6004,2240
6005,2249
6006,2192
6007,2091
6008,1909
6009,1627
6010,1455
6011,1501
6012,1535
6013,1535
6014,1609
6015,1689
6016,1715
6017,1731
6018,1771
6019,1782
6020,1835
6021,1871
6022,1891
6023,1904
6024,1881
6025,1877
6026,1872
6027,1869
6028,1873
6029,1427
6030,1791
6031,2192
6032,2230
6033,2217
6034,2240
6035,2279
6036,2256
6037,2181
6038,2042
6039,1855
6040,1600
6041,1520
6042,1531
6043,1513
6044,1520
6045,1578
6046,1642
6047,1689
6048,1723
6049,1744
6050,1788
6051,1836
6052,1873
6053,1904
6054,1890
6055,1887
6056,1879
6057,1885
6058,1901
6059,1911
6060,1483
6061,1790
6062,2211
6063,2226
6064,2194
6065,2241
6066,2257
6067,2254
6068,2142
6069,2032
6070,1771
6071,1526
6072,1521
6073,1558
6074,1533
6075,1576
6076,1621
6077,1665
6078,1708
6079,1745
6080,1761
6081,1802
6082,1846
6083,1872
6084,1873
6085,1877
6086,1879
6087,1890
6088,1911
6089,1923
6090,1917
6091,1477
6092,1784
6093,2204
6094,2263
6095,2263
6096,2261
6097,2268
6098,2255
6099,2157
6100,1979
6101,1661
6102,1467
6103,1511
6104,1520
6105,1520
6106,1579
6107,1638
6108,1674
6109,1715
6110,1756
6111,1783
6112,1805
6113,1830
6114,1855
6115,1875
6116,1873
6117,1867
6118,1872
6119,1899
6120,1912
6121,1921
6122,1455
6123,1840
6124,2241
6125,2299
6126,2291
6127,2287
6128,2271
6129,2246
6130,2126
6131,1905
6132,1571
6133,1443
6134,1526
6135,1532
6136,1535
6137,1594
6138,1651
6139,1699
6140,1755
6141,1791
6142,1810
6143,1815
6144,1841
6145,1850
6146,1849
6147,1852
6148,1863
6149,1883
6150,1889
6151,1907
6152,1920
6153,1558
6154,1789
6155,2260
6156,2364
6157,2351
6158,2327
6159,2293
6160,2259
6161,2105
6162,1797
6163,1389
6164,1327
6165,1428
6166,1521
6167,1570
6168,1663
6169,1730
6170,1744
6171,1765
6172,1805
6173,1838
6174,1835
6175,1843
6176,1862
6177,1858
6178,1841
6179,1850
6180,1885
6181,1904
6182,1903
6183,1908
6184,1454
6185,1838
6186,2302
6187,2351
6188,2282
6189,2282
6190,2283
6191,2252
6192,2115
6193,1781
6194,1403
6195,1370
6196,1484
6197,1535
6198,1585
6199,1641
6200,1687
6201,1733
6202,1776
6203,1831
6204,1862
6205,1875
6206,1903
6207,1895
6208,1890
6209,1861
6210,1830
6211,1851
6212,1867
6213,1878
6214,1876
6215,1391
6216,1777
6217,2258
6218,2301
6219,2275
6220,2253
6221,2256
6222,2287
6223,2148
6224,1805
6225,1447
6226,1421
6227,1520
6228,1502
6229,1535
6230,1627
6231,1683
6232,1735
6233,1778
6234,1808
6235,1854
6236,1870
6237,1878
6238,1887
6239,1888
6240,1902
6241,1886
6242,1878
6243,1887
6244,1895
6245,1886
6246,1525
6247,1723
6248,2225
6249,2301
6250,2263
6251,2253
6252,2256
6253,2299
6254,2171
6255,1787
6256,1421
6257,1423
6258,1535
6259,1573
6260,1627
6261,1647
6262,1680
6263,1727
6264,1767
6265,1813
6266,1834
6267,1857
6268,1891
6269,1879
6270,1887
6271,1872
6272,1869
6273,1895
6274,1901
6275,1885
6276,1870
6277,1535
6278,1728
6279,2206
6280,2277
6281,2217
6282,2246
6283,2278
6284,2313
6285,2182
6286,1774
6287,1433
6288,1483
6289,1586
6290,1574
6291,1614
6292,1664
6293,1691
6294,1706
6295,1741
6296,1775
6297,1797
6298,1822
6299,1870
6300,1873
6301,1874
6302,1856
6303,1846
6304,1879
6305,1919
6306,1939
6307,1923
6308,1621
6309,1722
6310,2215
6311,2285
6312,2227
6313,2233
6314,2275
6315,2317
6316,2173
6317,1728
6318,1411
6319,1494
6320,1574
6321,1569
6322,1618
6323,1674
6324,1717
6325,1730
6326,1750
6327,1778
6328,1782
6329,1802
6330,1853
6331,1891
6332,1893
6333,1876
6334,1859
6335,1872
6336,1882
6337,1897
6338,1909
6339,1646
6340,1744
6341,2245
6342,2334
6343,2275
6344,2239
6345,2282
6346,2320
6347,2166
6348,1678
6349,1383
6350,1461
6351,1535
6352,1577
6353,1635
6354,1664
6355,1704
6356,1744
6357,1758
6358,1776
6359,1803
6360,1815
6361,1840
6362,1858
6363,1845
6364,1827
6365,1857
6366,1890
6367,1915
6368,1920
6369,1911
6370,1680
6371,1744
6372,2247
6373,2373
6374,2286
6375,2277
6376,2342
6377,2389
6378,2210
6379,1712
6380,1374
6381,1449
6382,1533
6383,1511
6384,1535
6385,1580
6386,1635
6387,1703
6388,1759
6389,1815
6390,1843
6391,1887
6392,1899
6393,1900
6394,1874
6395,1854
6396,1834
6397,1855
6398,1867
6399,1894
6400,1904
6401,1711
6402,1726
6403,2241
6404,2365
6405,2291
6406,2303
6407,2358
6408,2395
6409,2189
6410,1647
6411,1306
6412,1419
6413,1503
6414,1507
6415,1584
6416,1634
6417,1680
6418,1739
6419,1749
6420,1801
6421,1838
6422,1856
6423,1903
6424,1914
6425,1905
6426,1871
6427,1856
6428,1869
6429,1863
6430,1866
6431,1884
6432,1729
6433,1723
6434,2255
6435,2368
6436,2304
6437,2310
6438,2371
6439,2399
6440,2170
6441,1600
6442,1280
6443,1443
6444,1503
6445,1515
6446,1565
6447,1616
6448,1693
6449,1741
6450,1789
6451,1831
6452,1867
6453,1878
6454,1887
6455,1895
6456,1891
6457,1846
6458,1839
6459,1852
6460,1870
6461,1889
6462,1898
6463,1738
6464,1702
6465,2237
6466,2352
6467,2293
6468,2305
6469,2395
6470,2401
6471,2161
6472,1581
6473,1328
6474,1477
6475,1521
6476,1522
6477,1566
6478,1638
6479,1698
6480,1747
6481,1778
6482,1817
6483,1824
6484,1842
6485,1840
6486,1863
6487,1888
6488,1893
6489,1891
6490,1873
6491,1886
6492,1902
6493,1894
6494,1767
6495,1697
6496,2225
6497,2367
6498,2305
6499,2320
6500,2384
6501,2410
6502,2153
6503,1535
6504,1266
6505,1446
6506,1531
6507,1568
6508,1615
6509,1670
6510,1734
6511,1744
6512,1763
6513,1776
6514,1781
6515,1823
6516,1852
6517,1866
6518,1872
6519,1886
6520,1890
6521,1906
6522,1922
6523,1935
6524,1920
6525,1801
6526,1668
6527,2201
6528,2357
6529,2293
6530,2314
6531,2394
6532,2399
6533,2134
6534,1507
6535,1255
6536,1488
6537,1535
6538,1535
6539,1604
6540,1662
6541,1711
6542,1743
6543,1795
6544,1818
6545,1808
6546,1814
6547,1840
6548,1871
6549,1882
6550,1885
6551,1881
6552,1909
6553,1921
6554,1919
6555,1915
6556,1919
6557,1927
6558,1903
6559,1895
6560,1874
6561,1866
6562,1865
6563,1866
6564,1866
6565,1877
6566,1872
6567,1873
6568,1874
6569,1877
6570,1878
6571,1886
6572,1878
6573,1891
6574,1875
6575,1856
6576,1853
6577,1857
6578,1860
6579,1854
6580,1857
6581,1861
6582,1870
6583,1869
6584,1865
6585,1856
6586,1867
6587,1866
6588,1870
6589,1873
6590,1879
6591,1869
6592,1866
6593,1868
6594,1858
6595,1844
6596,1846
6597,1855
6598,1862
6599,1866
6600,1856
6601,1856
6602,1840
6603,1856
6604,1854
6605,1859
6606,1872
6607,1861
6608,1840
6609,1833
6610,1859
6611,1857
6612,1850
6613,1850
6614,1851
6615,1863
6616,1850
6617,1856
6618,1859
6619,1878
6620,1876
6621,1875
6622,1871
6623,1862
6624,1857
6625,1857
6626,1853
6627,1843
6628,1840
6629,1838
6630,1840
6631,1844
6632,1843
6633,1856
6634,1861
6635,1871
6636,1858
6637,1865
6638,1856
6639,1856
6640,1882
6641,1875
6642,1869
6643,1862
6644,1852
6645,1849
6646,1850
6647,1847
6648,1843
6649,1857
6650,1854
6651,1863
6652,1860
6653,1873
6654,1869
6655,1866
6656,1870
6657,1868
6658,1854
6659,1862
6660,1843
6661,1863
6662,1839
6663,1823
6664,1828
6665,1840
6666,1859
6667,1865
6668,1861
6669,1871
6670,1875
6671,1872
6672,1873
6673,1871
6674,1861
6675,1861
6676,1852
6677,1855
6678,1850
6679,1843
6680,1847
6681,1849
6682,1868
6683,1859
6684,1855
6685,1866
6686,1874
6687,1867
6688,1863
6689,1874
6690,1875
6691,1872
6692,1856
6693,1841
6694,1849
6695,1850
6696,1851
6697,1855
6698,1843
6699,1863
6700,1863
6701,1871
6702,1857
6703,1868
6704,1862
6705,1867
6706,1869
6707,1883
6708,1862
6709,1850
6710,1834
6711,1842
6712,1850
6713,1855
6714,1844
6715,1849
6716,1854
6717,1854
6718,1856
6719,1872
6720,1871
6721,1872
6722,1873
6723,1866
6724,1869
6725,1863
6726,1855
6727,1847
6728,1846
6729,1843
6730,1843
6731,1851
6732,1872
6733,1861
6734,1867
6735,1877
6736,1871
6737,1870
6738,1871
6739,1874
6740,1861
6741,1870
6742,1860
6743,1841
6744,1834
6745,1845
6746,1846
6747,1847
6748,1840
6749,1856
6750,1861
6751,1868
6752,1872
6753,1872
6754,1870
6755,1871
6756,1869
6757,1867
6758,1860
6759,1850
6760,1858
6761,1854
6762,1843
6763,1846
6764,1855
6765,1865
6766,1862
6767,1870
6768,1879
6769,1886
6770,1872
6771,1871
6772,1875
6773,1883
6774,1860
6775,1858
6776,1846
6777,1842
6778,1846
6779,1847
6780,1851
6781,1853
6782,1853
6783,1858
6784,1859
6785,1859
6786,1882
6787,1874
6788,1874
6789,1879
6790,1869
6791,1866
6792,1855
6793,1831
6794,1859
6795,1850
6796,1853
6797,1841
6798,1843
6799,1860
6800,1875
6801,1869
6802,1883
6803,1875
6804,1867
6805,1870
6806,1883
6807,1868
6808,1867
6809,1858
6810,1847
6811,1840
6812,1849
6813,1844
6814,1854
6815,1867
6816,1858
6817,1870
6818,1857
6819,1885
6820,1872
6821,1872
6822,1868
6823,1882
6824,1867
6825,1865
6826,1853
6827,1844
6828,1848
6829,1846
6830,1845
6831,1854
6832,1867
6833,1862
6834,1857
6835,1871
6836,1882
6837,1862
6838,1866
6839,1872
6840,1873
6841,1872
6842,1858
6843,1845
6844,1853
6845,1844
6846,1846
6847,1842
6848,1849
6849,1857
6850,1871
6851,1862
6852,1882
6853,1875
6854,1872
6855,1872
6856,1877
6857,1879
6858,1855
6859,1847
6860,1856
6861,1855
6862,1844
6863,1843
6864,1847
6865,1851
6866,1854
6867,1858
6868,1874
6869,1883
6870,1877
6871,1872
6872,1872
6873,1886
6874,1878
6875,1857
6876,1845
6877,1844
6878,1844
6879,1846
6880,1847
6881,1851
6882,1866
6883,1866
6884,1871
6885,1877
6886,1875
6887,1872
6888,1871
6889,1872
6890,1885
6891,1870
6892,1857
6893,1865
6894,1856
6895,1842
6896,1842
6897,1840
6898,1851
6899,1853
6900,1861
6901,1867
6902,1871
6903,1872
6904,1869
6905,1872
6906,1873
6907,1879
6908,1862
6909,1853
6910,1845
6911,1840
6912,1847
6913,1850
6914,1855
6915,1850
6916,1866
6917,1867
6918,1874
6919,1866
6920,1871
6921,1877
6922,1883
6923,1889
6924,1865
6925,1856
6926,1856
6927,1850
6928,1840
6929,1838
6930,1841
6931,1854
6932,1857
6933,1856
6934,1863
6935,1862
6936,1873
6937,1873
6938,1870
6939,1877
6940,1890
6941,1871
6942,1853
6943,1846
6944,1857
6945,1847
6946,1844
6947,1849
6948,1866
6949,1865
6950,1859
6951,1869
6952,1878
6953,1873
6954,1869
6955,1866
6956,1878
6957,1877
6958,1862
6959,1856
6960,1863
6961,1840
6962,1843
6963,1845
6964,1849
6965,1861
6966,1855
6967,1856
6968,1867
6969,1882
6970,1871
6971,1871
6972,1872
6973,1872
6974,1882
6975,1863
6976,1860
6977,1845
6978,1845
6979,1847
6980,1843
6981,1851
6982,1867
6983,1860
6984,1865
6985,1859
6986,1865
6987,1867
6988,1865
6989,1870
6990,1889
6991,1869
6992,1858
6993,1842
6994,1850
6995,1850
6996,1850
6997,1858
6998,1857
6999,1862
7000,1857
7001,1856
7002,1855
7003,1871
7004,1872
7005,1872
7006,1874
7007,1879
7008,1866
7009,1857
7010,1867
7011,1858
7012,1851
7013,1850
7014,1842
7015,1854
7016,1854
7017,1853
7018,1854
7019,1862
7020,1872
7021,1872
7022,1869
7023,1871
7024,1875
7025,1867
7026,1854
7027,1869
7028,1847
7029,1846
7030,1846
7031,1849
7032,1850
7033,1856
7034,1863
7035,1873
7036,1871
7037,1869
7038,1871
7039,1874
7040,1874
7041,1868
7042,1857
7043,1862
7044,1840
7045,1851
7046,1843
7047,1841
7048,1840
7049,1851
7050,1861
7051,1867
7052,1877
7053,1872
7054,1872
7055,1870
7056,1872
7057,1861
7058,1863
7059,1853
7060,1841
7061,1845
7062,1849
7063,1850
7064,1853
7065,1845
7066,1866
7067,1869
7068,1860
7069,1857
7070,1872
7071,1872
7072,1875
7073,1878
7074,1859
7075,1857
7076,1855
7077,1847
7078,1840
7079,1846
7080,1842
7081,1850
7082,1866
7083,1867
7084,1862
7085,1859
7086,1867
7087,1874
7088,1872
7089,1879
7090,1889
7091,1872
7092,1861
7093,1851
7094,1862
7095,1847
7096,1843
7097,1843
7098,1843
7099,1867
7100,1862
7101,1863
7102,1867
7103,1872
7104,1863
7105,1871
7106,1872
7107,1870
7108,1861
7109,1859
7110,1850
7111,1856
7112,1840
7113,1847
7114,1853
7115,1869
7116,1859
7117,1861
7118,1872
7119,1858
7120,1872
7121,1871
7122,1872
7123,1871
7124,1871
7125,1866
7126,1856
7127,1857
7128,1850
7129,1845
7130,1847
7131,1853
7132,1859
7133,1859
7134,1855
7135,1846
7136,1865
7137,1872
7138,1861
7139,1869
7140,1881
7141,1872
7142,1858
7143,1857
7144,1847
7145,1851
7146,1849
7147,1853
7148,1837
7149,1871
7150,1859
7151,1851
7152,1863
7153,1872
7154,1872
7155,1873
7156,1878
7157,1875
7158,1869
7159,1859
7160,1862
7161,1848
7162,1840
7163,1842
7164,1845
7165,1858
7166,1853
7167,1857
7168,1862
7169,1875
7170,1872
7171,1869
7172,1871
7173,1871
7174,1877
7175,1861
7176,1853
7177,1842
7178,1847
7179,1847
7180,1842
7181,1847
7182,1846
7183,1860
7184,1869
7185,1863
7186,1869
7187,1871
7188,1872
7189,1878
7190,1872
7191,1873
7192,1856
7193,1844
7194,1838
7195,1841
7196,1840
7197,1840
7198,1850
7199,1858
7200,1867
7201,1862
7202,1863
7203,1870
7204,1867
7205,1872
7206,1876
7207,1863
7208,1870
7209,1857
7210,1844
7211,1855
7212,1845
7213,1850
7214,1851
7215,1847
7216,1861
7217,1859
7218,1870
7219,1859
7220,1872
7221,1871
7222,1874
7223,1871
7224,1866
7225,1856
7226,1847
7227,1847
7228,1843
7229,1840
7230,1843
7231,1846
7232,1871
7233,1858
7234,1866
7235,1867
7236,1871
7237,1870
7238,1872
7239,1878
7240,1877
7241,1872
7242,1858
7243,1850
7244,1837
7245,1847
7246,1846
7247,1840
7248,1842
7249,1855
7250,1863
7251,1871
7252,1873
7253,1867
7254,1868
7255,1871
7256,1877
7257,1865
7258,1858
7259,1856
7260,1852
7261,1862
7262,1851
7263,1844
7264,1849
7265,1842
7266,1858
7267,1865
7268,1859
7269,1872
7270,1873
7271,1870
7272,1871
7273,1877
7274,1873
7275,1855
7276,1851
7277,1856
7278,1857
7279,1855
7280,1856
7281,1849
7282,1859
7283,1859
7284,1855
7285,1871
7286,1859
7287,1861
7288,1869
7289,1875
7290,1887
7291,1872
7292,1857
7293,1853
7294,1840
7295,1847
7296,1846
7297,1847
7298,1846
7299,1875
7300,1865
7301,1871
7302,1872
7303,1879
7304,1878
7305,1873
7306,1872
7307,1871
7308,1862
7309,1857
7310,1834
7311,1847
7312,1841
7313,1846
7314,1834
7315,1828
7316,1850
7317,1862
7318,1858
7319,1858
7320,1872
7321,1873
7322,1874
7323,1873
7324,1883
7325,1859
7326,1853
7327,1840
7328,1840
7329,1837
7330,1840
7331,1850
7332,1872
7333,1856
7334,1860
7335,1858
7336,1881
7337,1869
7338,1864
7339,1871
7340,1872
7341,1867
7342,1859
7343,1851
7344,1855
7345,1846
7346,1841
7347,1849
7348,1856
7349,1866
7350,1859
7351,1868
7352,1883
7353,1872
7354,1872
7355,1872
7356,1880
7357,1893
7358,1873
7359,1861
7360,1843
7361,1848
7362,1849
7363,1845
7364,1847
7365,1867
7366,1858
7367,1861
7368,1855
7369,1883
7370,1872
7371,1870
7372,1871
7373,1874
7374,1867
7375,1856
7376,1841
7377,1841
7378,1842
7379,1847
7380,1850
7381,1853
7382,1857
7383,1859
7384,1862
7385,1855
7386,1886
7387,1879
7388,1874
7389,1881
7390,1891
7391,1868
7392,1859
7393,1853
7394,1863
7395,1846
7396,1844
7397,1845
7398,1847
7399,1847
7400,1840
7401,1856
7402,1858
7403,1872
7404,1865
7405,1862
7406,1872
7407,1885
7408,1859
7409,1861
7410,1861
7411,1853
7412,1846
7413,1850
7414,1850
7415,1869
7416,1860
7417,1856
7418,1866
7419,1852
7420,1869
7421,1871
7422,1870
7423,1879
7424,1879
7425,1871
7426,1869
7427,1869
7428,1869
7429,1872
7430,1872
7431,1873
7432,1894
7433,1873
7434,1856
7435,1845
7436,1852
7437,1842
7438,1847
7439,1858
7440,1867
7441,1877
7442,1863
7443,1854
7444,1847
7445,1851
7446,1851
7447,1842
7448,1840
7449,1822
7450,1826
7451,1842
7452,1871
7453,1872
7454,1861
7455,1869
7456,1883
7457,1903
7458,1894
7459,1897
7460,1891
7461,1886
7462,1881
7463,1867
7464,1841
7465,1819
7466,1826
7467,1822
7468,1808
7469,1814
7470,1841
7471,1857
7472,1872
7473,1870
7474,1879
7475,1866
7476,1852
7477,1859
7478,1856
7479,1853
7480,1850
7481,1846
7482,1854
7483,1851
7484,1854
7485,1863
7486,1869
7487,1867
7488,1870
7489,1866
7490,1867
7491,1856
7492,1851
7493,1846
7494,1849
7495,1857
7496,1859
7497,1862
7498,1857
7499,1862
7500,1863
7501,1854
7502,1867
7503,1875
7504,1871
7505,1875
7506,1885
7507,1892
7508,1872
7509,1865
7510,1872
7511,1838
7512,1840
7513,1838
7514,1837
7515,1855
7516,1856
7517,1867
7518,1870
7519,1887
7520,1878
7521,1872
7522,1870
7523,1875
7524,1854
7525,1856
7526,1843
7527,1856
7528,1855
7529,1845
7530,1853
7531,1850
7532,1854
7533,1858
7534,1869
7535,1865
7536,1883
7537,1885
7538,1889
7539,1895
7540,1904
7541,1875
7542,1831
7543,1798
7544,1779
7545,1802
7546,1817
7547,1842
7548,1379
7549,1890
7550,2218
7551,2282
7552,2276
7553,2241
7554,2194
7555,2161
7556,2090
7557,2022
7558,1936
7559,1839
7560,1706
7561,1595
7562,1527
7563,1517
7564,1525
7565,1651
7566,1741
7567,1798
7568,1819
7569,1846
7570,1873
7571,1875
7572,1870
7573,1859
7574,1837
7575,1758
7576,1659
7577,1655
7578,1712
7579,1245
7580,1874
7581,2253
7582,2379
7583,2354
7584,2299
7585,2263
7586,2192
7587,2089
7588,1991
7589,1865
7590,1701
7591,1482
7592,1386
7593,1454
7594,1499
7595,1535
7596,1605
7597,1651
7598,1690
7599,1742
7600,1785
7601,1817
7602,1856
7603,1886
7604,1900
7605,1911
7606,1920
7607,1917
7608,1918
7609,1907
7610,1307
7611,1891
7612,2235
7613,2295
7614,2298
7615,2240
7616,2224
7617,2169
7618,2071
7619,1971
7620,1862
7621,1721
7622,1602
7623,1555
7624,1535
7625,1529
7626,1535
7627,1598
7628,1641
7629,1693
7630,1735
7631,1767
7632,1808
7633,1844
7634,1872
7635,1870
7636,1895
7637,1889
7638,1902
7639,1913
7640,1904
7641,1328
7642,1901
7643,2258
7644,2354
7645,2343
7646,2315
7647,2274
7648,2182
7649,2091
7650,1948
7651,1788
7652,1639
7653,1525
7654,1478
7655,1472
7656,1513
7657,1559
7658,1620
7659,1689
7660,1753
7661,1767
7662,1782
7663,1805
7664,1817
7665,1826
7666,1852
7667,1861
7668,1882
7669,1910
7670,1919
7671,1935
7672,1379
7673,1954
7674,2323
7675,2415
7676,2389
7677,2365
7678,2287
7679,2195
7680,2092
7681,1968
7682,1799
7683,1611
7684,1469
7685,1376
7686,1403
7687,1446
7688,1511
7689,1594
7690,1683
7691,1723
7692,1753
7693,1776
7694,1807
7695,1835
7696,1849
7697,1850
7698,1858
7699,1878
7700,1904
7701,1937
7702,1955
7703,1397
7704,1955
7705,2384
7706,2497
7707,2461
7708,2405
7709,2320
7710,2209
7711,2082
7712,1949
7713,1744
7714,1531
7715,1367
7716,1267
7717,1306
7718,1397
7719,1513
7720,1616
7721,1703
7722,1763
7723,1818
7724,1853
7725,1866
7726,1872
7727,1871
7728,1889
7729,1885
7730,1884
7731,1891
7732,1904
7733,1913
7734,1326
7735,1930
7736,2365
7737,2469
7738,2432
7739,2377
7740,2306
7741,2185
7742,2098
7743,1954
7744,1699
7745,1488
7746,1328
7747,1297
7748,1353
7749,1484
7750,1577
7751,1654
7752,1729
7753,1776
7754,1805
7755,1825
7756,1856
7757,1884
7758,1888
7759,1894
7760,1904
7761,1897
7762,1899
7763,1906
7764,1895
7765,1273
7766,1887
7767,2361
7768,2466
7769,2422
7770,2363
7771,2269
7772,2169
7773,2087
7774,1956
7775,1687
7776,1486
7777,1409
7778,1401
7779,1434
7780,1505
7781,1578
7782,1637
7783,1701
7784,1744
7785,1797
7786,1840
7787,1869
7788,1898
7789,1900
7790,1890
7791,1904
7792,1901
7793,1904
7794,1900
7795,1898
7796,1205
7797,1893
7798,2374
7799,2483
7800,2448
7801,2407
7802,2322
7803,2198
7804,2092
7805,1926
7806,1667
7807,1453
7808,1314
7809,1328
7810,1385
7811,1461
7812,1535
7813,1631
7814,1721
7815,1785
7816,1835
7817,1866
7818,1883
7819,1876
7820,1893
7821,1881
7822,1887
7823,1911
7824,1930
7825,1924
7826,1904
7827,1179
7828,1887
7829,2417
7830,2530
7831,2481
7832,2419
7833,2339
7834,2221
7835,2110
7836,1933
7837,1606
7838,1328
7839,1237
7840,1328
7841,1407
7842,1499
7843,1559
7844,1648
7845,1691
7846,1746
7847,1808
7848,1840
7849,1872
7850,1887
7851,1891
7852,1882
7853,1902
7854,1920
7855,1927
7856,1930
7857,1930
7858,1177
7859,1918
7860,2467
7861,2548
7862,2478
7863,2407
7864,2315
7865,2205
7866,2081
7867,1859
7868,1535
7869,1315
7870,1313
7871,1360
7872,1434
7873,1531
7874,1594
7875,1665
7876,1718
7877,1771
7878,1803
7879,1827
7880,1853
7881,1877
7882,1901
7883,1895
7884,1899
7885,1904
7886,1901
7887,1916
7888,1918
7889,1185
7890,1891
7891,2450
7892,2559
7893,2511
7894,2448
7895,2361
7896,2241
7897,2098
7898,1849
7899,1507
7900,1264
7901,1247
7902,1328
7903,1433
7904,1516
7905,1594
7906,1667
7907,1723
7908,1785
7909,1827
7910,1856
7911,1859
7912,1886
7913,1891
7914,1872
7915,1885
7916,1899
7917,1907
7918,1904
7919,1908
7920,1174
7921,1901
7922,2463
7923,2592
7924,2542
7925,2465
7926,2381
7927,2269
7928,2112
7929,1795
7930,1425
7931,1226
7932,1282
7933,1331
7934,1430
7935,1500
7936,1589
7937,1651
7938,1725
7939,1785
7940,1840
7941,1842
7942,1856
7943,1871
7944,1863
7945,1862
7946,1872
7947,1894
7948,1923
7949,1938
7950,1939
7951,1174
7952,1879
7953,2483
7954,2618
7955,2557
7956,2486
7957,2417
7958,2303
7959,2128
7960,1799
7961,1386
7962,1191
7963,1232
7964,1323
7965,1436
7966,1522
7967,1598
7968,1665
7969,1722
7970,1776
7971,1830
7972,1861
7973,1875
7974,1904
7975,1886
7976,1857
7977,1854
7978,1894
7979,1904
7980,1904
7981,1906
7982,1123
7983,1871
7984,2465
7985,2623
7986,2554
7987,2496
7988,2432
7989,2355
7990,2178
7991,1808
7992,1394
7993,1185
7994,1211
7995,1318
7996,1435
7997,1510
7998,1586
7999,1655
8000,1713
8001,1765
8002,1803
8003,1827
8004,1840
8005,1862
8006,1883
8007,1917
8008,1904
8009,1914
8010,1936
8011,1921
8012,1918
8013,1106
8014,1863
8015,2495
8016,2619
8017,2558
8018,2485
8019,2418
8020,2343
8021,2146
8022,1754
8023,1347
8024,1218
8025,1275
8026,1382
8027,1463
8028,1527
8029,1583
8030,1629
8031,1682
8032,1730
8033,1799
8034,1830
8035,1855
8036,1893
8037,1891
8038,1886
8039,1902
8040,1936
8041,1941
8042,1946
8043,1935
8044,1104
8045,1847
8046,2455
8047,2613
8048,2541
8049,2493
8050,2426
8051,2353
8052,2152
8053,1750
8054,1327
8055,1211
8056,1275
8057,1408
8058,1473
8059,1520
8060,1567
8061,1623
8062,1685
8063,1746
8064,1802
8065,1840
8066,1858
8067,1877
8068,1871
8069,1873
8070,1892
8071,1914
8072,1930
8073,1941
8074,1953
8075,1092
8076,1851
8077,2484
8078,2639
8079,2559
8080,2514
8081,2466
8082,2391
8083,2167
8084,1738
8085,1318
8086,1168
8087,1234
8088,1360
8089,1450
8090,1519
8091,1582
8092,1630
8093,1695
8094,1735
8095,1778
8096,1817
8097,1858
8098,1900
8099,1913
8100,1907
8101,1903
8102,1917
8103,1924
8104,1930
8105,1927
8106,1118
8107,1903
8108,2514
8109,2645
8110,2621
8111,2522
8112,2496
8113,2425
8114,2164
8115,1693
8116,1239
8117,1117
8118,1224
8119,1344
8120,1425
8121,1473
8122,1535
8123,1622
8124,1711
8125,1766
8126,1798
8127,1813
8128,1844
8129,1871
8130,1879
8131,1877
8132,1903
8133,1909
8134,1931
8135,1949
8136,1945
8137,1123
8138,1871
8139,2496
8140,2659
8141,2617
8142,2544
8143,2496
8144,2419
8145,2167
8146,1681
8147,1234
8148,1141
8149,1248
8150,1363
8151,1426
8152,1470
8153,1535
8154,1613
8155,1695
8156,1767
8157,1831
8158,1841
8159,1870
8160,1887
8161,1871
8162,1886
8163,1885
8164,1887
8165,1914
8166,1929
8167,1933
8168,1926
8169,1946
8170,1932
8171,1930
8172,1932
8173,1931
8174,1935
8175,1906
8176,1894
8177,1904
8178,1891
8179,1878
8180,1872
8181,1872
8182,1872
8183,1878
8184,1872
8185,1893
8186,1884
8187,1874
8188,1873
8189,1877
8190,1875
8191,1882
8192,1872
8193,1859
8194,1857
8195,1847
8196,1839
8197,1845
8198,1851
8199,1861
8200,1862
8201,1867
8202,1875
8203,1886
8204,1873
8205,1867
8206,1872
8207,1879
8208,1867
8209,1858
8210,1843
8211,1863
8212,1847
8213,1847
8214,1840
8215,1852
8216,1847
8217,1853
8218,1860
8219,1859
8220,1875
8221,1872
8222,1881
8223,1889
8224,1894
8225,1868
8226,1862
8227,1831
8228,1836
8229,1837
8230,1838
8231,1840
8232,1837
8233,1852
8234,1856
8235,1858
8236,1877
8237,1869
8238,1867
8239,1860
8240,1875
8241,1866
8242,1857
8243,1849
8244,1840
8245,1841
8246,1842
8247,1840
8248,1842
8249,1845
8250,1850
8251,1854
8252,1850
8253,1861
8254,1865
8255,1867
8256,1872
8257,1883
8258,1862
8259,1855
8260,1850
8261,1841
8262,1843
8263,1844
8264,1852
8265,1847
8266,1856
8267,1863
8268,1861
8269,1873
8270,1873
8271,1871
8272,1867
8273,1870
8274,1872
8275,1858
8276,1847
8277,1865
8278,1847
8279,1840
8280,1846
8281,1843
8282,1872
8283,1863
8284,1855
8285,1872
8286,1866
8287,1871
8288,1872
8289,1872
8290,1888
8291,1874
8292,1863
8293,1850
8294,1862
8295,1843
8296,1846
8297,1849
8298,1846
8299,1861
8300,1862
8301,1861
8302,1867
8303,1875
8304,1862
8305,1871
8306,1872
8307,1875
8308,1862
8309,1859
8310,1847
8311,1862
8312,1850
8313,1847
8314,1852
8315,1856
8316,1859
8317,1863
8318,1872
8319,1869
8320,1877
8321,1872
8322,1878
8323,1871
8324,1867
8325,1863
8326,1857
8327,1863
8328,1861
8329,1851
8330,1847
8331,1847
8332,1871
8333,1866
8334,1859
8335,1859
8336,1873
8337,1870
8338,1869
8339,1870
8340,1872
8341,1872
8342,1858
8343,1857
8344,1858
8345,1848
8346,1846
8347,1849
8348,1849
8349,1872
8350,1863
8351,1867
8352,1877
8353,1868
8354,1872
8355,1872
8356,1880
8357,1871
8358,1872
8359,1861
8360,1827
8361,1842
8362,1842
8363,1841
8364,1845
8365,1847
8366,1862
8367,1856
8368,1863
8369,1875
8370,1872
8371,1872
8372,1873
8373,1875
8374,1877
8375,1863
8376,1856
8377,1863
8378,1856
8379,1843
8380,1846
8381,1854
8382,1868
8383,1867
8384,1867
8385,1877
8386,1883
8387,1872
8388,1872
8389,1887
8390,1878
8391,1874
8392,1863
8393,1858
8394,1858
8395,1843
8396,1840
8397,1840
8398,1841
8399,1850
8400,1861
8401,1859
8402,1866
8403,1872
8404,1872
8405,1873
8406,1877
8407,1871
8408,1869
8409,1857
8410,1860
8411,1846
8412,1849
8413,1846
8414,1857
8415,1838
8416,1859
8417,1865
8418,1867
8419,1882
8420,1872
8421,1871
8422,1877
8423,1881
8424,1868
8425,1862
8426,1849
8427,1851
8428,1842
8429,1841
8430,1851
8431,1847
8432,1847
8433,1867
8434,1870
8435,1863
8436,1861
8437,1870
8438,1867
8439,1866
8440,1867
8441,1870
8442,1862
8443,1856
8444,1840
8445,1853
8446,1847
8447,1851
8448,1857
8449,1863
8450,1866
8451,1871
8452,1875
8453,1867
8454,1865
8455,1870
8456,1873
8457,1883
8458,1871
8459,1859
8460,1865
8461,1860
8462,1847
8463,1847
8464,1851
8465,1860
8466,1870
8467,1872
8468,1870
8469,1865
8470,1873
8471,1875
8472,1874
8473,1881
8474,1867
8475,1872
8476,1861
8477,1869
8478,1859
8479,1851
8480,1855
8481,1853
8482,1855
8483,1856
8484,1867
8485,1858
8486,1882
8487,1871
8488,1871
8489,1877
8490,1882
8491,1879
8492,1863
8493,1854
8494,1861
8495,1856
8496,1847
8497,1854
8498,1850
8499,1852
8500,1865
8501,1871
8502,1875
8503,1874
8504,1875
8505,1873
8506,1875
8507,1871
8508,1867
8509,1859
8510,1851
8511,1847
8512,1846
8513,1852
8514,1847
8515,1841
8516,1854
8517,1855
8518,1859
8519,1872
8520,1872
8521,1872
8522,1881
8523,1885
8524,1889
8525,1873
8526,1855
8527,1855
8528,1846
8529,1845
8530,1846
8531,1854
8532,1867
8533,1867
8534,1867
8535,1852
8536,1878
8537,1869
8538,1867
8539,1872
8540,1875
8541,1872
8542,1866
8543,1853
8544,1846
8545,1840
8546,1840
8547,1840
8548,1847
8549,1856
8550,1858
8551,1866
8552,1874
8553,1879
8554,1873
8555,1878
8556,1877
8557,1883
8558,1873
8559,1858
8560,1870
8561,1856
8562,1844
8563,1847
8564,1850
8565,1859
8566,1857
8567,1861
8568,1866
8569,1870
8570,1877
8571,1873
8572,1872
8573,1874
8574,1869
8575,1862
8576,1855
8577,1842
8578,1852
8579,1850
8580,1852
8581,1846
8582,1870
8583,1858
8584,1862
8585,1878
8586,1872
8587,1873
8588,1873
8589,1882
8590,1870
8591,1879
8592,1863
8593,1846
8594,1840
8595,1853
8596,1844
8597,1846
8598,1856
8599,1862
8600,1858
8601,1863
8602,1869
8603,1871
8604,1867
8605,1871
8606,1872
8607,1889
8608,1866
8609,1856
8610,1862
8611,1857
8612,1851
8613,1854
8614,1850
8615,1845
8616,1858
8617,1863
8618,1865
8619,1870
8620,1872
8621,1872
8622,1871
8623,1873
8624,1878
8625,1866
8626,1857
8627,1846
8628,1840
8629,1849
8630,1844
8631,1855
8632,1857
8633,1863
8634,1855
8635,1847
8636,1856
8637,1869
8638,1870
8639,1875
8640,1872
8641,1867
8642,1861
8643,1857
8644,1855
8645,1843
8646,1847
8647,1851
8648,1850
8649,1855
8650,1863
8651,1867
8652,1872
8653,1873
8654,1872
8655,1872
8656,1879
8657,1874
8658,1868
8659,1855
8660,1844
8661,1835
8662,1842
8663,1847
8664,1847
8665,1840
8666,1858
8667,1854
8668,1866
8669,1874
8670,1874
8671,1873
8672,1872
8673,1873
8674,1876
8675,1869
8676,1857
8677,1858
8678,1862
8679,1847
8680,1847
8681,1853
8682,1854
8683,1858
8684,1864
8685,1873
8686,1866
8687,1873
8688,1872
8689,1874
8690,1873
8691,1878
8692,1858
8693,1853
8694,1845
8695,1850
8696,1840
8697,1842
8698,1843
8699,1871
8700,1858
8701,1865
8702,1871
8703,1877
8704,1870
8705,1872
8706,1873
8707,1885
8708,1866
8709,1860
8710,1853
8711,1855
8712,1845
8713,1846
8714,1850
8715,1858
8716,1856
8717,1859
8718,1857
8719,1872
8720,1872
8721,1872
8722,1873
8723,1882
8724,1873
8725,1859
8726,1851
8727,1847
8728,1843
8729,1838
8730,1841
8731,1847
8732,1872
8733,1865
8734,1858
8735,1866
8736,1885
8737,1875
8738,1872
8739,1872
8740,1889
8741,1872
8742,1861
8743,1853
8744,1851
8745,1847
8746,1845
8747,1842
8748,1851
8749,1845
8750,1863
8751,1862
8752,1863
8753,1868
8754,1867
8755,1865
8756,1871
8757,1863
8758,1868
8759,1855
8760,1847
8761,1850
8762,1846
8763,1847
8764,1845
8765,1847
8766,1858
8767,1855
8768,1859
8769,1879
8770,1872
8771,1871
8772,1871
8773,1874
8774,1885
8775,1879
8776,1862
8777,1867
8778,1854
8779,1844
8780,1843
8781,1850
8782,1844
8783,1868
8784,1869
8785,1846
8786,1857
8787,1872
8788,1862
8789,1869
8790,1872
8791,1870
8792,1865
8793,1854
8794,1851
8795,1842
8796,1846
8797,1850
8798,1850
8799,1867
8800,1859
8801,1870
8802,1865
8803,1869
8804,1871
8805,1872
8806,1873
8807,1875
8808,1872
8809,1857
8810,1861
8811,1847
8812,1850
8813,1850
8814,1840
8815,1856
8816,1848
8817,1853
8818,1856
8819,1872
8820,1872
8821,1872
8822,1872
8823,1873
8824,1871
8825,1863
8826,1858
8827,1839
8828,1858
8829,1846
8830,1843
8831,1853
8832,1859
8833,1861
8834,1865
8835,1866
8836,1872
8837,1873
8838,1871
8839,1863
8840,1886
8841,1872
8842,1862
8843,1855
8844,1847
8845,1846
8846,1847
8847,1845
8848,1844
8849,1857
8850,1859
8851,1867
8852,1870
8853,1871
8854,1874
8855,1875
8856,1872
8857,1885
8858,1870
8859,1857
8860,1835
8861,1857
8862,1846
8863,1841
8864,1842
8865,1852
8866,1855
8867,1867
8868,1872
8869,1872
8870,1872
8871,1869
8872,1872
8873,1883
8874,1873
8875,1870
8876,1856
8877,1846
8878,1853
8879,1852
8880,1847
8881,1845
8882,1862
8883,1852
8884,1849
8885,1865
8886,1878
8887,1866
8888,1866
8889,1863
8890,1872
8891,1873
8892,1863
8893,1855
8894,1852
8895,1850
8896,1846
8897,1849
8898,1847
8899,1859
8900,1861
8901,1867
8902,1861
8903,1866
8904,1866
8905,1867
8906,1872
8907,1892
8908,1867
8909,1859
8910,1853
8911,1860
8912,1849
8913,1853
8914,1852
8915,1870
8916,1871
8917,1867
8918,1871
8919,1872
8920,1878
8921,1870
8922,1865
8923,1870
8924,1875
8925,1845
8926,1840
8927,1840
8928,1840
8929,1845
8930,1851
8931,1856
8932,1851
8933,1872
8934,1869
8935,1858
8936,1870
8937,1878
8938,1873
8939,1874
8940,1847
8941,1850
8942,1851
8943,1853
8944,1851
8945,1859
8946,1861
8947,1866
8948,1872
8949,1879
8950,1865
8951,1855
8952,1853
8953,1842
8954,1854
8955,1856
8956,1861
8957,1847
8958,1858
8959,1853
8960,1847
8961,1841
8962,1842
8963,1846
8964,1844
8965,1847
8966,1863
8967,1858
8968,1853
8969,1860
8970,1872
8971,1872
8972,1881
8973,1894
8974,1897
8975,1870
8976,1856
8977,1838
8978,1835
8979,1840
8980,1849
8981,1856
8982,1862
8983,1867
8984,1872
8985,1874
8986,1891
8987,1882
8988,1874
8989,1869
8990,1863
8991,1872
8992,1855
8993,1850
8994,1842
8995,1830
8996,1839
8997,1844
8998,1843
8999,1863
9000,1861
9001,1867
9002,1873
9003,1883
9004,1872
9005,1871
9006,1872
9007,1890
9008,1870
9009,1857
9010,1854
9011,1865
9012,1849
9013,1846
9014,1844
9015,1841
9016,1852
9017,1857
9018,1863
9019,1875
9020,1878
9021,1872
9022,1873
9023,1877
9024,1875
9025,1860
9026,1851
9027,1856
9028,1850
9029,1839
9030,1842
9031,1843
9032,1835
9033,1856
9034,1856
9035,1877
9036,1867
9037,1876
9038,1872
9039,1871
9040,1885
9041,1869
9042,1857
9043,1856
9044,1869
9045,1853
9046,1851
9047,1853
9048,1856
9049,1870
9050,1857
9051,1865
9052,1857
9053,1877
9054,1869
9055,1875
9056,1887
9057,1878
9058,1872
9059,1871
9060,1871
9061,1847
9062,1844
9063,1834
9064,1835
9065,1841
9066,1843
9067,1851
9068,1858
9069,1858
9070,1872
9071,1876
9072,1873
9073,1883
9074,1890
9075,1871
9076,1855
9077,1838
9078,1847
9079,1849
9080,1852
9081,1852
9082,1842
9083,1861
9084,1857
9085,1856
9086,1858
9087,1856
9088,1858
9089,1873
9090,1891
9091,1899
9092,1870
9093,1858
9094,1857
9095,1850
9096,1843
9097,1849
9098,1842
9099,1850
9100,1860
9101,1873
9102,1872
9103,1893
9104,1887
9105,1887
9106,1887
9107,1903
9108,1882
9109,1872
9110,1877
9111,1875
9112,1872
9113,1859
9114,1831
9115,1807
9116,1804
9117,1801
9118,1824
9119,1842
9120,1880
9121,1877
9122,1890
9123,1895
9124,1877
9125,1857
9126,1851
9127,1853
9128,1846
9129,1840
9130,1841
9131,1853
9132,1846
9133,1872
9134,1870
9135,1872
9136,1866
9137,1872
9138,1869
9139,1879
9140,1882
9141,1858
9142,1858
9143,1857
9144,1849
9145,1851
9146,1843
9147,1838
9148,1818
9149,1823
9150,1835
9151,1842
9152,1847
9153,1883
9154,1887
9155,1890
9156,1887
9157,1873
9158,1875
9159,1711
9160,1524
9161,1991
9162,2209
9163,2231
9164,2231
9165,2220
9166,2191
9167,2155
9168,2082
9169,2014
9170,1949
9171,1827
9172,1685
9173,1581
9174,1535
9175,1516
9176,1510
9177,1535
9178,1569
9179,1615
9180,1655
9181,1695
9182,1732
9183,1789
9184,1821
9185,1839
9186,1880
9187,1891
9188,1909
9189,1909
9190,1791
9191,1559
9192,2084
9193,2250
9194,2258
9195,2235
9196,2195
9197,2176
9198,2128
9199,2063
9200,1995
9201,1899
9202,1753
9203,1617
9204,1534
9205,1515
9206,1520
9207,1535
9208,1616
9209,1650
9210,1694
9211,1741
9212,1767
9213,1795
9214,1822
9215,1862
9216,1872
9217,1883
9218,1885
9219,1908
9220,1910
9221,1774
9222,1535
9223,2079
9224,2323
9225,2357
9226,2334
9227,2275
9228,2221
9229,2131
9230,2033
9231,1957
9232,1823
9233,1680
9234,1520
9235,1443
9236,1407
9237,1451
9238,1527
9239,1611
9240,1667
9241,1727
9242,1776
9243,1790
9244,1819
9245,1843
9246,1849
9247,1841
9248,1859
9249,1884
9250,1906
9251,1914
9252,1714
9253,1506
9254,2045
9255,2382
9256,2438
9257,2406
9258,2352
9259,2267
9260,2146
9261,2032
9262,1912
9263,1758
9264,1584
9265,1456
9266,1363
9267,1343
9268,1427
9269,1525
9270,1619
9271,1697
9272,1762
9273,1808
9274,1823
9275,1845
9276,1858
9277,1879
9278,1853
9279,1859
9280,1874
9281,1897
9282,1904
9283,1758
9284,1523
9285,2055
9286,2448
9287,2517
9288,2490
9289,2429
9290,2357
9291,2214
9292,2094
9293,1951
9294,1744
9295,1535
9296,1339
9297,1200
9298,1243
9299,1362
9300,1463
9301,1562
9302,1651
9303,1742
9304,1792
9305,1829
9306,1872
9307,1872
9308,1887
9309,1878
9310,1865
9311,1890
9312,1901
9313,1919
9314,1726
9315,1475
9316,2033
9317,2464
9318,2559
9319,2531
9320,2448
9321,2353
9322,2215
9323,2109
9324,1983
9325,1741
9326,1488
9327,1299
9328,1168
9329,1233
9330,1357
9331,1458
9332,1557
9333,1677
9334,1745
9335,1794
9336,1835
9337,1856
9338,1881
9339,1878
9340,1866
9341,1879
9342,1900
9343,1927
9344,1936
9345,1747
9346,1456
9347,2047
9348,2497
9349,2612
9350,2559
9351,2480
9352,2368
9353,2209
9354,2069
9355,1920
9356,1682
9357,1453
9358,1232
9359,1185
9360,1266
9361,1392
9362,1495
9363,1579
9364,1665
9365,1723
9366,1767
9367,1799
9368,1831
9369,1863
9370,1892
9371,1894
9372,1895
9373,1937
9374,1969
9375,1953
9376,1750
9377,1471
9378,2068
9379,2512
9380,2559
9381,2499
9382,2383
9383,2283
9384,2142
9385,2064
9386,1922
9387,1648
9388,1364
9389,1221
9390,1293
9391,1375
9392,1483
9393,1558
9394,1625
9395,1685
9396,1733
9397,1776
9398,1813
9399,1853
9400,1877
9401,1897
9402,1907
9403,1924
9404,1936
9405,1938
9406,1938
9407,1757
9408,1450
9409,2089
9410,2530
9411,2595
9412,2525
9413,2413
9414,2269
9415,2123
9416,2031
9417,1844
9418,1535
9419,1276
9420,1207
9421,1287
9422,1385
9423,1501
9424,1589
9425,1659
9426,1733
9427,1779
9428,1795
9429,1821
9430,1847
9431,1884
9432,1893
9433,1875
9434,1904
9435,1931
9436,1947
9437,1951
9438,1775
9439,1378
9440,2064
9441,2534
9442,2602
9443,2525
9444,2410
9445,2287
9446,2137
9447,2023
9448,1849
9449,1535
9450,1277
9451,1217
9452,1287
9453,1389
9454,1502
9455,1585
9456,1679
9457,1712
9458,1759
9459,1792
9460,1819
9461,1850
9462,1872
9463,1885
9464,1898
9465,1914
9466,1921
9467,1924
9468,1926
9469,1727
9470,1395
9471,2098
9472,2559
9473,2615
9474,2546
9475,2428
9476,2301
9477,2162
9478,2033
9479,1813
9480,1474
9481,1264
9482,1264
9483,1358
9484,1421
9485,1516
9486,1585
9487,1655
9488,1706
9489,1751
9490,1804
9491,1822
9492,1856
9493,1874
9494,1890
9495,1894
9496,1887
9497,1890
9498,1904
9499,1933
9500,1743
9501,1363
9502,2071
9503,2559
9504,2615
9505,2544
9506,2455
9507,2355
9508,2196
9509,2071
9510,1793
9511,1431
9512,1235
9513,1263
9514,1330
9515,1408
9516,1499
9517,1584
9518,1651
9519,1712
9520,1771
9521,1798
9522,1842
9523,1873
9524,1904
9525,1904
9526,1889
9527,1903
9528,1904
9529,1903
9530,1910
9531,1708
9532,1323
9533,2086
9534,2591
9535,2638
9536,2541
9537,2445
9538,2352
9539,2234
9540,2099
9541,1804
9542,1424
9543,1249
9544,1265
9545,1341
9546,1405
9547,1472
9548,1531
9549,1612
9550,1685
9551,1747
9552,1805
9553,1840
9554,1875
9555,1903
9556,1911
9557,1900
9558,1904
9559,1908
9560,1922
9561,1925
9562,1809
9563,1245
9564,2025
9565,2555
9566,2649
9567,2559
9568,2489
9569,2384
9570,2288
9571,2122
9572,1799
9573,1423
9574,1222
9575,1212
9576,1296
9577,1396
9578,1487
9579,1557
9580,1628
9581,1677
9582,1744
9583,1771
9584,1813
9585,1856
9586,1885
9587,1904
9588,1904
9589,1917
9590,1931
9591,1931
9592,1941
9593,1730
9594,1270
9595,2064
9596,2582
9597,2644
9598,2559
9599,2512
9600,2416
9601,2311
9602,2135
9603,1805
9604,1379
9605,1155
9606,1215
9607,1315
9608,1424
9609,1479
9610,1535
9611,1616
9612,1680
9613,1747
9614,1807
9615,1840
9616,1865
9617,1898
9618,1904
9619,1887
9620,1890
9621,1907
9622,1925
9623,1937
9624,1862
9625,1229
9626,2023
9627,2559
9628,2640
9629,2559
9630,2480
9631,2394
9632,2291
9633,2154
9634,1795
9635,1369
9636,1198
9637,1253
9638,1344
9639,1428
9640,1509
9641,1561
9642,1603
9643,1665
9644,1729
9645,1753
9646,1810
9647,1850
9648,1872
9649,1872
9650,1873
9651,1897
9652,1925
9653,1946
9654,1939
9655,1917
9656,1232
9657,2042
9658,2559
9659,2643
9660,2559
9661,2462
9662,2375
9663,2286
9664,2108
9665,1748
9666,1370
9667,1238
9668,1295
9669,1371
9670,1454
9671,1523
9672,1581
9673,1634
9674,1701
9675,1746
9676,1771
9677,1798
9678,1830
9679,1870
9680,1882
9681,1882
9682,1881
9683,1916
9684,1922
9685,1927
9686,1911
9687,1225
9688,2003
9689,2553
9690,2655
9691,2582
9692,2473
9693,2391
9694,2309
9695,2139
9696,1744
9697,1338
9698,1198
9699,1263
9700,1358
9701,1447
9702,1525
9703,1573
9704,1636
9705,1689
9706,1751
9707,1788
9708,1809
9709,1835
9710,1859
9711,1866
9712,1875
9713,1894
9714,1905
9715,1922
9716,1919
9717,1919
9718,1207
9719,2012
9720,2559
9721,2656
9722,2583
9723,2490
9724,2416
9725,2329
9726,2130
9727,1744
9728,1361
9729,1236
9730,1294
9731,1381
9732,1469
9733,1516
9734,1535
9735,1595
9736,1684
9737,1759
9738,1799
9739,1835
9740,1872
9741,1919
9742,1890
9743,1878
9744,1887
9745,1905
9746,1905
9747,1900
9748,1762
9749,1232
9750,2027
9751,2545
9752,2650
9753,2547
9754,2480
9755,2416
9756,2345
9757,2133
9758,1753
9759,1353
9760,1278
9761,1328
9762,1379
9763,1422
9764,1470
9765,1522
9766,1587
9767,1663
9768,1730
9769,1799
9770,1840
9771,1868
9772,1894
9773,1904
9774,1904
9775,1888
9776,1906
9777,1937
9778,1918
9779,1915
9780,1921
9781,1920
9782,1911
9783,1929
9784,1923
9785,1922
9786,1926
9787,1920
9788,1909
9789,1904
9790,1905
9791,1909
9792,1889
9793,1882
9794,1878
9795,1872
9796,1872
9797,1870
9798,1867
9799,1873
9800,1869
9801,1870
9802,1869
9803,1887
9804,1871
9805,1869
9806,1872
9807,1881
9808,1865
9809,1859
9810,1855
9811,1842
9812,1847
9813,1843
9814,1844
9815,1853
9816,1855
9817,1863
9818,1872
9819,1872
9820,1863
9821,1870
9822,1868
9823,1873
9824,1867
9825,1870
9826,1857
9827,1864
9828,1853
9829,1850
9830,1846
9831,1850
9832,1843
9833,1858
9834,1854
9835,1860
9836,1876
9837,1874
9838,1867
9839,1869
9840,1870
9841,1869
9842,1851
9843,1840
9844,1858
9845,1840
9846,1835
9847,1838
9848,1843
9849,1870
9850,1858
9851,1855
9852,1872
9853,1863
9854,1867
9855,1864
9856,1867
9857,1886
9858,1869
9859,1856
9860,1847
9861,1851
9862,1839
9863,1835
9864,1838
9865,1845
9866,1857
9867,1856
9868,1857
9869,1861
9870,1871
9871,1872
9872,1870
9873,1878
9874,1871
9875,1871
9876,1856
9877,1859
9878,1849
9879,1840
9880,1843
9881,1850
9882,1863
9883,1860
9884,1863
9885,1856
9886,1873
9887,1872
9888,1872
9889,1872
9890,1872
9891,1883
9892,1869
9893,1858
9894,1850
9895,1840
9896,1840
9897,1840
9898,1843
9899,1860
9900,1859
9901,1862
9902,1867
9903,1887
9904,1872
9905,1872
9906,1885
9907,1863
9908,1867
9909,1856
9910,1851
9911,1855
9912,1849
9913,1843
9914,1851
9915,1858
9916,1872
9917,1865
9918,1867
9919,1860
9920,1879
9921,1871
9922,1870
9923,1872
9924,1871
9925,1858
9926,1852
9927,1840
9928,1850
9929,1840
9930,1849
9931,1855
9932,1849
9933,1859
9934,1861
9935,1867
9936,1872
9937,1872
9938,1872
9939,1872
9940,1875
9941,1872
9942,1868
9943,1861
9944,1847
9945,1845
9946,1847
9947,1846
9948,1855
9949,1863
9950,1861
9951,1866
9952,1861
9953,1861
9954,1865
9955,1865
9956,1859
9957,1871
9958,1873
9959,1867
9960,1843
9961,1837
9962,1850
9963,1845
9964,1846
9965,1850
9966,1856
9967,1859
9968,1866
9969,1866
9970,1872
9971,1872
9972,1874
9973,1873
9974,1872
9975,1866
9976,1856
9977,1871
9978,1845
9979,1851
9980,1847
9981,1855
9982,1853
9983,1859
9984,1855
9985,1857
9986,1861
9987,1872
9988,1867
9989,1866
9990,1875
9991,1877
9992,1863
9993,1855
9994,1843
9995,1850
9996,1852
9997,1847
9998,1843
9999,1837
10000,1861
10001,1862
10002,1861
10003,1863
10004,1875
10005,1872
10006,1875
10007,1884
10008,1871
10009,1859
10010,1849
10011,1845
10012,1851
10013,1846
10014,1839
10015,1845
10016,1855
10017,1858
10018,1859
10019,1853
10020,1867
10021,1869
10022,1872
10023,1885
10024,1889
10025,1869
10026,1859
10027,1857
10028,1856
10029,1849
10030,1847
10031,1855
10032,1857
10033,1855
10034,1867
10035,1869
10036,1878
10037,1872
10038,1872
10039,1872
10040,1873
10041,1871
10042,1872
10043,1866
10044,1861
10045,1840
10046,1841
10047,1840
10048,1843
10049,1860
10050,1859
10051,1861
10052,1873
10053,1877
10054,1875
10055,1872
10056,1872
10057,1889
10058,1876
10059,1866
10060,1856
10061,1859
10062,1853
10063,1850
10064,1849
10065,1856
10066,1865
10067,1865
10068,1867
10069,1863
10070,1878
10071,1872
10072,1872
10073,1878
10074,1885
10075,1863
10076,1855
10077,1868
10078,1843
10079,1846
10080,1847
10081,1847
10082,1862
10083,1857
10084,1865
10085,1865
10086,1875
10087,1874
10088,1876
10089,1879
10090,1884
10091,1885
10092,1871
10093,1860
10094,1865
10095,1843
10096,1854
10097,1855
10098,1851
10099,1867
10100,1858
10101,1861
10102,1855
10103,1891
10104,1870
10105,1867
10106,1872
10107,1882
10108,1873
10109,1867
10110,1866
10111,1859
10112,1851
10113,1849
10114,1852
10115,1854
10116,1856
10117,1861
10118,1867
10119,1874
10120,1878
10121,1875
10122,1877
10123,1885
10124,1881
10125,1877
10126,1863
10127,1851
10128,1867
10129,1850
10130,1851
10131,1853
10132,1854
10133,1862
10134,1862
10135,1863
10136,1871
10137,1871
10138,1866
10139,1870
10140,1883
10141,1866
10142,1867
10143,1858
10144,1840
10145,1847
10146,1846
10147,1854
10148,1854
10149,1856
10150,1861
10151,1865
10152,1861
10153,1887
10154,1872
10155,1872
10156,1872
10157,1890
10158,1877
10159,1863
10160,1851
10161,1847
10162,1842
10163,1844
10164,1847
10165,1845
10166,1840
10167,1859
10168,1865
10169,1867
10170,1866
10171,1874
10172,1872
10173,1879
10174,1889
10175,1871
10176,1859
10177,1854
10178,1869
10179,1850
10180,1849
10181,1856
10182,1867
10183,1856
10184,1861
10185,1867
10186,1867
10187,1875
10188,1872
10189,1872
10190,1885
10191,1877
10192,1866
10193,1856
10194,1837
10195,1856
10196,1843
10197,1840
10198,1842
10199,1870
10200,1863
10201,1866
10202,1863
10203,1874
10204,1875
10205,1868
10206,1883
10207,1869
10208,1866
10209,1859
10210,1854
10211,1855
10212,1846
10213,1847
10214,1847
10215,1851
10216,1858
10217,1851
10218,1861
10219,1862
10220,1866
10221,1874
10222,1873
10223,1879
10224,1887
10225,1862
10226,1847
10227,1840
10228,1840
10229,1846
10230,1846
10231,1854
10232,1841
10233,1872
10234,1861
10235,1867
10236,1869
10237,1874
10238,1872
10239,1871
10240,1879
10241,1870
10242,1870
10243,1855
10244,1859
10245,1854
10246,1846
10247,1846
10248,1851
10249,1839
10250,1859
10251,1869
10252,1872
10253,1872
10254,1867
10255,1865
10256,1870
10257,1861
10258,1872
10259,1867
10260,1856
10261,1867
10262,1849
10263,1845
10264,1845
10265,1857
10266,1865
10267,1855
10268,1865
10269,1878
10270,1882
10271,1872
10272,1872
10273,1878
10274,1898
10275,1871
10276,1859
10277,1865
10278,1854
10279,1847
10280,1846
10281,1853
10282,1849
10283,1853
10284,1855
10285,1855
10286,1865
10287,1870
10288,1866
10289,1871
10290,1877
10291,1887
10292,1865
10293,1859
10294,1843
10295,1840
10296,1849
10297,1847
10298,1849
10299,1859
10300,1866
10301,1863
10302,1872
10303,1867
10304,1872
10305,1871
10306,1872
10307,1869
10308,1872
10309,1863
10310,1857
10311,1840
10312,1846
10313,1849
10314,1840
10315,1840
10316,1855
10317,1854
10318,1856
10319,1872
10320,1872
10321,1871
10322,1870
10323,1875
10324,1867
10325,1872
10326,1864
10327,1853
10328,1849
10329,1846
10330,1848
10331,1849
10332,1842
10333,1866
10334,1869
10335,1862
10336,1866
10337,1868
10338,1873
10339,1872
10340,1882
10341,1872
10342,1866
10343,1852
10344,1840
10345,1840
10346,1842
10347,1842
10348,1843
10349,1872
10350,1859
10351,1867
10352,1853
10353,1882
10354,1871
10355,1871
10356,1879
10357,1887
10358,1872
10359,1862
10360,1850
10361,1861
10362,1847
10363,1842
10364,1842
10365,1853
10366,1851
10367,1859
10368,1858
10369,1872
10370,1866
10371,1871
10372,1871
10373,1882
10374,1875
10375,1862
10376,1856
10377,1853
10378,1843
10379,1846
10380,1847
10381,1841
10382,1855
10383,1855
10384,1862
10385,1866
10386,1877
10387,1874
10388,1871
10389,1871
10390,1873
10391,1872
10392,1867
10393,1855
10394,1840
10395,1856
10396,1847
10397,1850
10398,1844
10399,1857
10400,1859
10401,1862
10402,1856
10403,1859
10404,1863
10405,1869
10406,1861
10407,1867
10408,1866
10409,1869
10410,1855
10411,1855
10412,1852
10413,1845
10414,1850
10415,1849
10416,1850
10417,1851
10418,1857
10419,1865
10420,1872
10421,1872
10422,1870
10423,1873
10424,1865
10425,1862
10426,1855
10427,1840
10428,1856
10429,1847
10430,1844
10431,1845
10432,1858
10433,1867
10434,1855
10435,1855
10436,1869
10437,1867
10438,1866
10439,1862
10440,1872
10441,1872
10442,1865
10443,1842
10444,1825
10445,1843
10446,1851
10447,1845
10448,1853
10449,1854
10450,1858
10451,1862
10452,1862
10453,1872
10454,1874
10455,1871
10456,1872
10457,1866
10458,1868
10459,1865
10460,1854
10461,1849
10462,1847
10463,1841
10464,1841
10465,1841
10466,1842
10467,1856
10468,1856
10469,1870
10470,1872
10471,1871
10472,1872
10473,1878
10474,1858
10475,1865
10476,1861
10477,1867
10478,1841
10479,1841
10480,1847
10481,1843
10482,1861
10483,1856
10484,1855
10485,1863
10486,1874
10487,1872
10488,1872
10489,1872
10490,1878
10491,1878
10492,1872
10493,1852
10494,1840
10495,1840
10496,1842
10497,1842
10498,1841
10499,1845
10500,1858
10501,1861
10502,1854
10503,1859
10504,1872
10505,1872
10506,1871
10507,1885
10508,1865
10509,1865
10510,1857
10511,1850
10512,1846
10513,1840
10514,1843
10515,1845
10516,1847
10517,1859
10518,1857
10519,1856
10520,1874
10521,1863
10522,1863
10523,1871
10524,1872
10525,1865
10526,1856
10527,1839
10528,1853
10529,1839
10530,1841
10531,1853
10532,1857
10533,1863
10534,1863
10535,1866
10536,1877
10537,1885
10538,1872
10539,1872
10540,1881
10541,1874
10542,1873
10543,1856
10544,1851
10545,1853
10546,1847
10547,1845
10548,1853
10549,1844
10550,1867
10551,1869
10552,1867
10553,1870
10554,1866
10555,1865
10556,1867
10557,1873
10558,1857
10559,1861
10560,1862
10561,1872
10562,1850
10563,1843
10564,1843
10565,1852
10566,1859
10567,1861
10568,1866
10569,1866
10570,1869
10571,1871
10572,1875
10573,1877
10574,1882
10575,1870
10576,1863
10577,1863
10578,1853
10579,1847
10580,1844
10581,1847
10582,1847
10583,1858
10584,1856
10585,1860
10586,1875
10587,1870
10588,1866
10589,1872
10590,1881
10591,1886
10592,1866
10593,1859
10594,1858
10595,1840
10596,1846
10597,1847
10598,1851
10599,1861
10600,1865
10601,1860
10602,1872
10603,1857
10604,1872
10605,1872
10606,1872
10607,1884
10608,1888
10609,1859
10610,1855
10611,1851
10612,1844
10613,1843
10614,1840
10615,1846
10616,1856
10617,1854
10618,1862
10619,1856
10620,1866
10621,1872
10622,1872
10623,1877
10624,1865
10625,1871
10626,1861
10627,1852
10628,1846
10629,1850
10630,1846
10631,1849
10632,1842
10633,1862
10634,1862
10635,1864
10636,1865
10637,1883
10638,1872
10639,1872
10640,1873
10641,1872
10642,1863
10643,1853
10644,1840
10645,1840
10646,1840
10647,1841
10648,1848
10649,1845
10650,1868
10651,1867
10652,1865
10653,1883
10654,1872
10655,1867
10656,1872
10657,1877
10658,1875
10659,1867
10660,1847
10661,1840
10662,1843
10663,1846
10664,1846
10665,1856
10666,1861
10667,1860
10668,1866
10669,1873
10670,1869
10671,1870
10672,1867
10673,1872
10674,1882
10675,1861
10676,1851
10677,1851
10678,1840
10679,1851
10680,1845
10681,1854
10682,1865
10683,1856
10684,1855
10685,1861
10686,1879
10687,1871
10688,1868
10689,1872
10690,1876
10691,1868
10692,1867
10693,1856
10694,1867
10695,1850
10696,1849
10697,1847
10698,1845
10699,1856
10700,1858
10701,1859
10702,1866
10703,1869
10704,1869
10705,1866
10706,1866
10707,1869
10708,1871
10709,1861
10710,1855
10711,1852
10712,1851
10713,1845
10714,1845
10715,1854
10716,1856
10717,1855
10718,1853
10719,1872
10720,1885
10721,1872
10722,1872
10723,1872
10724,1865
10725,1870
10726,1857
10727,1856
10728,1849
10729,1846
10730,1843
10731,1849
10732,1857
10733,1856
10734,1854
10735,1858
10736,1856
10737,1872
10738,1863
10739,1868
10740,1874
10741,1878
10742,1871
10743,1857
10744,1837
10745,1842
10746,1849
10747,1849
10748,1847
10749,1845
10750,1857
10751,1860
10752,1873
10753,1871
10754,1872
10755,1871
10756,1875
10757,1883
10758,1870
10759,1868
10760,1851
10761,1846
10762,1842
10763,1840
10764,1841
10765,1842
10766,1861
10767,1856
10768,1863
10769,1873
10770,1882
10771,2045
10772,1709
10773,2047
10774,2216
10775,2215
10776,2206
10777,2178
10778,2139
10779,2096
10780,2022
10781,1954
10782,1887
10783,1799
10784,1691
10785,1609
10786,1535
10787,1570
10788,1582
10789,1616
10790,1664
10791,1695
10792,1735
10793,1745
10794,1744
10795,1776
10796,1775
10797,1797
10798,1831
10799,1851
10800,1871
10801,1879
10802,2067
10803,1712
10804,2102
10805,2221
10806,2221
10807,2206
10808,2169
10809,2124
10810,2074
10811,1987
10812,1950
10813,1860
10814,1774
10815,1680
10816,1628
10817,1583
10818,1587
10819,1598
10820,1647
10821,1697
10822,1727
10823,1739
10824,1776
10825,1788
10826,1801
10827,1821
10828,1840
10829,1859
10830,1879
10831,1883
10832,1897
10833,2128
10834,1680
10835,2102
10836,2183
10837,2155
10838,2139
10839,2138
10840,2138
10841,2106
10842,2060
10843,2001
10844,1920
10845,1824
10846,1679
10847,1594
10848,1587
10849,1567
10850,1602
10851,1680
10852,1740
10853,1764
10854,1783
10855,1799
10856,1819
10857,1841
10858,1856
10859,1865
10860,1847
10861,1851
10862,1838
10863,1831
10864,2105
10865,1595
10866,2096
10867,2224
10868,2211
10869,2193
10870,2175
10871,2174
10872,2117
10873,2074
10874,2023
10875,1889
10876,1738
10877,1601
10878,1535
10879,1511
10880,1533
10881,1600
10882,1673
10883,1723
10884,1727
10885,1744
10886,1769
10887,1798
10888,1831
10889,1859
10890,1872
10891,1872
10892,1886
10893,1897
10894,1885
10895,2156
10896,1591
10897,2094
10898,2283
10899,2270
10900,2253
10901,2224
10902,2194
10903,2140
10904,2099
10905,2011
10906,1867
10907,1687
10908,1583
10909,1490
10910,1470
10911,1521
10912,1525
10913,1615
10914,1669
10915,1713
10916,1757
10917,1783
10918,1814
10919,1823
10920,1841
10921,1872
10922,1878
10923,1903
10924,1932
10925,1926
10926,2199
10927,1620
10928,2128
10929,2339
10930,2351
10931,2326
10932,2275
10933,2243
10934,2170
10935,2131
10936,2021
10937,1828
10938,1647
10939,1491
10940,1397
10941,1360
10942,1408
10943,1495
10944,1585
10945,1663
10946,1717
10947,1760
10948,1803
10949,1823
10950,1843
10951,1841
10952,1859
10953,1886
10954,1911
10955,1926
10956,1936
10957,2133
10958,1605
10959,2112
10960,2352
10961,2371
10962,2361
10963,2305
10964,2253
10965,2177
10966,2131
10967,1999
10968,1767
10969,1582
10970,1426
10971,1344
10972,1359
10973,1453
10974,1526
10975,1632
10976,1699
10977,1751
10978,1801
10979,1822
10980,1835
10981,1840
10982,1856
10983,1877
10984,1862
10985,1871
10986,1903
10987,1921
10988,2192
10989,1616
10990,2134
10991,2384
10992,2431
10993,2401
10994,2345
10995,2257
10996,2181
10997,2139
10998,1951
10999,1712
11000,1529
11001,1359
11002,1290
11003,1364
11004,1455
11005,1535
11006,1637
11007,1722
11008,1787
11009,1791
11010,1807
11011,1836
11012,1843
11013,1859
11014,1861
11015,1873
11016,1890
11017,1905
11018,1926
11019,2037
11020,1583
11021,2107
11022,2427
11023,2455
11024,2448
11025,2351
11026,2256
11027,2159
11028,2109
11029,1922
11030,1661
11031,1463
11032,1310
11033,1299
11034,1391
11035,1506
11036,1587
11037,1656
11038,1729
11039,1776
11040,1797
11041,1809
11042,1808
11043,1821
11044,1826
11045,1859
11046,1863
11047,1887
11048,1909
11049,1930
11050,2029
11051,1565
11052,2131
11053,2503
11054,2531
11055,2466
11056,2369
11057,2275
11058,2192
11059,2147
11060,1938
11061,1647
11062,1411
11063,1251
11064,1292
11065,1403
11066,1511
11067,1535
11068,1607
11069,1683
11070,1745
11071,1769
11072,1805
11073,1849
11074,1869
11075,1887
11076,1888
11077,1875
11078,1874
11079,1903
11080,1904
11081,1976
11082,1525
11083,2153
11084,2559
11085,2608
11086,2544
11087,2423
11088,2307
11089,2202
11090,2160
11091,1937
11092,1616
11093,1279
11094,1157
11095,1216
11096,1331
11097,1430
11098,1518
11099,1607
11100,1696
11101,1754
11102,1793
11103,1819
11104,1845
11105,1869
11106,1886
11107,1911
11108,1936
11109,1936
11110,1936
11111,1935
11112,2176
11113,1563
11114,2181
11115,2610
11116,2638
11117,2538
11118,2431
11119,2291
11120,2207
11121,2110
11122,1808
11123,1451
11124,1200
11125,1147
11126,1247
11127,1382
11128,1502
11129,1575
11130,1651
11131,1715
11132,1767
11133,1811
11134,1831
11135,1859
11136,1870
11137,1891
11138,1887
11139,1904
11140,1931
11141,1947
11142,1939
11143,1966
11144,1515
11145,2138
11146,2593
11147,2598
11148,2517
11149,2395
11150,2303
11151,2209
11152,2098
11153,1777
11154,1417
11155,1217
11156,1247
11157,1334
11158,1455
11159,1535
11160,1606
11161,1663
11162,1712
11163,1745
11164,1776
11165,1808
11166,1855
11167,1874
11168,1891
11169,1903
11170,1904
11171,1925
11172,1927
11173,1936
11174,1947
11175,1497
11176,2146
11177,2589
11178,2606
11179,2507
11180,2400
11181,2289
11182,2200
11183,2064
11184,1687
11185,1374
11186,1237
11187,1290
11188,1383
11189,1490
11190,1575
11191,1647
11192,1685
11193,1726
11194,1762
11195,1792
11196,1821
11197,1835
11198,1856
11199,1854
11200,1872
11201,1889
11202,1904
11203,1919
11204,1930
11205,2107
11206,1511
11207,2176
11208,2613
11209,2608
11210,2511
11211,2428
11212,2305
11213,2219
11214,2007
11215,1633
11216,1341
11217,1235
11218,1296
11219,1399
11220,1526
11221,1585
11222,1636
11223,1694
11224,1755
11225,1792
11226,1808
11227,1828
11228,1858
11229,1850
11230,1835
11231,1840
11232,1872
11233,1905
11234,1914
11235,1920
11236,1883
11237,1456
11238,2143
11239,2591
11240,2622
11241,2512
11242,2416
11243,2311
11244,2229
11245,2003
11246,1616
11247,1303
11248,1267
11249,1333
11250,1424
11251,1495
11252,1571
11253,1658
11254,1703
11255,1744
11256,1798
11257,1829
11258,1833
11259,1845
11260,1852
11261,1888
11262,1861
11263,1858
11264,1880
11265,1904
11266,1915
11267,2016
11268,1465
11269,2139
11270,2592
11271,2622
11272,2537
11273,2446
11274,2341
11275,2251
11276,2003
11277,1583
11278,1295
11279,1239
11280,1303
11281,1407
11282,1509
11283,1585
11284,1651
11285,1711
11286,1749
11287,1790
11288,1807
11289,1823
11290,1859
11291,1878
11292,1845
11293,1851
11294,1872
11295,1887
11296,1904
11297,1907
11298,1826
11299,1390
11300,2121
11301,2592
11302,2621
11303,2544
11304,2448
11305,2371
11306,2288
11307,2039
11308,1623
11309,1296
11310,1250
11311,1321
11312,1435
11313,1509
11314,1558
11315,1605
11316,1658
11317,1691
11318,1747
11319,1797
11320,1816
11321,1855
11322,1872
11323,1873
11324,1889
11325,1885
11326,1894
11327,1910
11328,1904
11329,1801
11330,1373
11331,2093
11332,2587
11333,2615
11334,2544
11335,2463
11336,2410
11337,2320
11338,2057
11339,1616
11340,1296
11341,1264
11342,1343
11343,1424
11344,1501
11345,1535
11346,1599
11347,1648
11348,1697
11349,1744
11350,1777
11351,1812
11352,1841
11353,1872
11354,1878
11355,1886
11356,1909
11357,1916
11358,1936
11359,1928
11360,1791
11361,1375
11362,2085
11363,2554
11364,2605
11365,2512
11366,2432
11367,2387
11368,2320
11369,2019
11370,1584
11371,1275
11372,1269
11373,1365
11374,1474
11375,1535
11376,1586
11377,1625
11378,1669
11379,1708
11380,1744
11381,1767
11382,1786
11383,1834
11384,1845
11385,1866
11386,1872
11387,1889
11388,1919
11389,1930
11390,1939
11391,1952
11392,1930
11393,1916
11394,1903
11395,1910
11396,1898
11397,1894
11398,1903
11399,1919
11400,1917
11401,1910
11402,1906
11403,1904
11404,1899
11405,1885
11406,1884
11407,1891
11408,1889
11409,1881
11410,1875
11411,1881
11412,1850
11413,1847
11414,1841
11415,1853
11416,1849
11417,1861
11418,1865
11419,1869
11420,1874
11421,1888
11422,1885
11423,1886
11424,1861
11425,1865
11426,1867
11427,1869
11428,1859
11429,1850
11430,1842
11431,1839
11432,1840
11433,1837
11434,1841
11435,1847
11436,1859
11437,1872
11438,1870
11439,1871
11440,1875
11441,1882
11442,1873
11443,1870
11444,1862
11445,1872
11446,1851
11447,1853
11448,1860
11449,1868
11450,1860
11451,1855
11452,1858
11453,1869
11454,1852
11455,1850
11456,1851
11457,1863
11458,1856
11459,1859
11460,1846
11461,1846
11462,1843
11463,1842
11464,1843
11465,1845
11466,1847
11467,1861
11468,1867
11469,1844
11470,1849
11471,1870
11472,1872
11473,1872
11474,1882
11475,1874
11476,1857
11477,1844
11478,1840
11479,1829
11480,1839
11481,1843
11482,1855
11483,1858
11484,1855
11485,1871
11486,1871
11487,1884
11488,1871
11489,1874
11490,1899
11491,1902
11492,1887
11493,1885
11494,1901
11495,1922
11496,1911
11497,1903
11498,1846
11499,1808
11500,1808
11501,1820
11502,1822
11503,1794
11504,1794
11505,1809
11506,1839
11507,1859
11508,1875
11509,1872
11510,1856
11511,1854
11512,1839
11513,1840
11514,1838
11515,1839
11516,1834
11517,1856
11518,1855
11519,1861
11520,1891
11521,1878
11522,1876
11523,1874
11524,1890
11525,1873
11526,1866
11527,1863
11528,1851
11529,1847
11530,1853
11531,1851
11532,1850
11533,1859
11534,1861
11535,1868
11536,1859
11537,1867
11538,1870
11539,1872
11540,1877
11541,1884
11542,1868
11543,1858
11544,1842
11545,1839
11546,1840
11547,1840
11548,1840
11549,1857
11550,1863
11551,1856
11552,1861
11553,1866
11554,1873
11555,1872
11556,1872
11557,1879
11558,1873
11559,1873
11560,1851
11561,1856
11562,1843
11563,1847
11564,1853
11565,1851
11566,1854
11567,1856
11568,1861
11569,1872
11570,1866
11571,1871
11572,1867
11573,1883
11574,1880
11575,1867
11576,1864
11577,1854
11578,1853
11579,1850
11580,1847
11581,1847
11582,1853
11583,1855
11584,1862
11585,1871
11586,1872
11587,1867
11588,1863
11589,1873
11590,1873
11591,1881
11592,1872
11593,1867
11594,1863
11595,1857
11596,1851
11597,1855
11598,1854
11599,1849
11600,1857
11601,1856
11602,1866
11603,1867
11604,1866
11605,1858
11606,1862
11607,1870
11608,1872
11609,1861
11610,1854
11611,1845
11612,1846
11613,1845
11614,1847
11615,1850
11616,1847
11617,1856
11618,1865
11619,1857
11620,1885
11621,1873
11622,1872
11623,1872
11624,1877
11625,1872
11626,1864
11627,1851
11628,1856
11629,1852
11630,1845
11631,1845
11632,1854
11633,1853
11634,1857
11635,1862
11636,1866
11637,1871
11638,1868
11639,1866
11640,1877
11641,1873
11642,1868
11643,1857
11644,1871
11645,1869
11646,1853
11647,1850
11648,1859
11649,1867
11650,1859
11651,1862
11652,1867
11653,1886
11654,1879
11655,1874
11656,1872
11657,1881
11658,1887
11659,1865
11660,1855
11661,1843
11662,1840
11663,1843
11664,1845
11665,1842
11666,1861
11667,1856
11668,1858
11669,1872
11670,1878
11671,1875
11672,1875
11673,1873
11674,1883
11675,1878
11676,1872
11677,1853
11678,1851
11679,1856
11680,1855
11681,1850
11682,1849
11683,1874
11684,1861
11685,1869
11686,1875
11687,1872
11688,1874
11689,1872
11690,1874
11691,1888
11692,1872
11693,1856
11694,1875
11695,1845
11696,1847
11697,1841
11698,1855
11699,1847
11700,1863
11701,1872
11702,1871
11703,1881
11704,1875
11705,1872
11706,1876
11707,1887
11708,1872
11709,1871
11710,1861
11711,1834
11712,1853
11713,1850
11714,1855
11715,1853
11716,1842
11717,1856
11718,1871
11719,1862
11720,1888
11721,1877
11722,1872
11723,1879
11724,1870
11725,1877
11726,1859
11727,1852
11728,1841
11729,1845
11730,1851
11731,1853
11732,1854
11733,1857
11734,1861
11735,1869
11736,1871
11737,1871
11738,1875
11739,1874
11740,1875
11741,1872
11742,1873
11743,1863
11744,1853
11745,1846
11746,1851
11747,1847
11748,1854
11749,1853
11750,1859
11751,1866
11752,1868
11753,1876
11754,1872
11755,1870
11756,1871
11757,1876
11758,1877
11759,1869
11760,1854
11761,1867
11762,1844
11763,1851
11764,1853
11765,1852
11766,1853
11767,1861
11768,1867
11769,1858
11770,1885
11771,1874
11772,1875
11773,1873
11774,1877
11775,1879
11776,1869
11777,1856
11778,1856
11779,1854
11780,1854
11781,1855
11782,1852
11783,1856
11784,1854
11785,1869
11786,1873
11787,1879
11788,1869
11789,1878
11790,1879
11791,1877
11792,1875
11793,1862
11794,1856
11795,1843
11796,1855
11797,1849
11798,1852
11799,1863
11800,1861
11801,1859
11802,1873
11803,1877
11804,1875
11805,1871
11806,1876
11807,1875
11808,1863
11809,1866
11810,1858
11811,1853
11812,1858
11813,1850
11814,1845
11815,1846
11816,1856
11817,1856
11818,1859
11819,1863
11820,1868
11821,1871
11822,1871
11823,1871
11824,1872
11825,1883
11826,1861
11827,1855
11828,1861
11829,1849
11830,1845
11831,1851
11832,1849
11833,1869
11834,1861
11835,1866
11836,1859
11837,1871
11838,1873
11839,1872
11840,1875
11841,1875
11842,1872
11843,1859
11844,1850
11845,1856
11846,1840
11847,1840
11848,1853
11849,1846
11850,1854
11851,1863
11852,1858
11853,1866
11854,1877
11855,1872
11856,1871
11857,1879
11858,1877
11859,1870
11860,1853
11861,1847
11862,1843
11863,1843
11864,1845
11865,1848
11866,1862
11867,1855
11868,1859
11869,1872
11870,1867
11871,1872
11872,1872
11873,1872
11874,1883
11875,1866
11876,1859
11877,1851
11878,1855
11879,1854
11880,1853
11881,1843
11882,1851
11883,1860
11884,1863
11885,1867
11886,1869
11887,1879
11888,1872
11889,1866
11890,1877
11891,1888
11892,1868
11893,1856
11894,1855
11895,1857
11896,1850
11897,1850
11898,1851
11899,1859
11900,1871
11901,1858
11902,1863
11903,1868
11904,1870
11905,1865
11906,1865
11907,1873
11908,1890
11909,1867
11910,1860
11911,1847
11912,1856
11913,1853
11914,1849
11915,1851
11916,1872
11917,1853
11918,1859
11919,1865
11920,1867
