Time(ms),Raw_ADC
0,1919
1,956
2,1872
3,1955
4,2035
5,2137
6,2234
7,2293
8,2192
9,2088
10,2077
11,2133
12,2112
13,1919
14,1862
15,1920
16,1906
17,1822
18,1680
19,1585
20,1535
21,1522
22,1488
23,1528
24,1599
25,1703
26,1719
27,1758
28,1787
29,1876
30,1872
31,1885
32,990
33,1855
34,1872
35,1915
36,2001
37,2114
38,2118
39,2002
40,1995
41,2254
42,2592
43,2191
44,1922
45,1942
46,1953
47,1872
48,1735
49,1604
50,1509
51,1461
52,1456
53,1511
54,1602
55,1678
56,1713
57,1776
58,1803
59,1794
60,1825
61,1874
62,1891
63,1712
64,1674
65,1896
66,1920
67,2007
68,2108
69,2125
70,2067
71,2035
72,2503
73,2608
74,2039
75,1968
76,1956
77,1921
78,1869
79,1731
80,1603
81,1517
82,1494
83,1497
84,1558
85,1633
86,1712
87,1789
88,1820
89,1830
90,1839
91,1886
92,1889
93,1877
94,2593
95,1520
96,1905
97,1883
98,1939
99,2021
100,2061
101,1940
102,1991
103,2673
104,2486
105,2124
106,2061
107,2015
108,1997
109,1872
110,1707
111,1569
112,1498
113,1474
114,1502
115,1594
116,1718
117,1754
118,1762
119,1779
120,1791
121,1841
122,1858
123,1883
124,1906
125,2678
126,1321
127,1873
128,1875
129,1924
130,1977
131,1981
132,1905
133,2080
134,2819
135,2445
136,2198
137,2181
138,2076
139,2016
140,1920
141,1756
142,1561
143,1442
144,1425
145,1497
146,1599
147,1645
148,1701
149,1754
150,1802
151,1841
152,1872
153,1904
154,1906
155,1904
156,2037
157,1033
158,1866
159,1805
160,1830
161,1873
162,1936
163,1811
164,2167
165,2927
166,2530
167,2278
168,2145
169,2099
170,2066
171,1971
172,1766
173,1584
174,1458
175,1423
176,1426
177,1501
178,1600
179,1706
180,1754
181,1803
182,1827
183,1891
184,1893
185,1904
186,1921
187,1934
188,877
189,1874
190,1807
191,1790
192,1786
193,1744
194,1690
195,2381
196,2969
197,2541
198,2343
199,2287
200,2207
201,2097
202,1942
203,1746
204,1611
205,1431
206,1419
207,1490
208,1611
209,1632
210,1681
211,1747
212,1815
213,1856
214,1872
215,1907
216,1939
217,1923
218,1920
219,660
220,1893
221,1839
222,1749
223,1706
224,1655
225,1676
226,2487
227,2928
228,2483
229,2349
230,2229
231,2186
232,2123
233,1985
234,1759
235,1535
236,1424
237,1457
238,1486
239,1535
240,1627
241,1701
242,1761
243,1798
244,1833
245,1867
246,1903
247,1894
248,1904
249,1921
250,583
251,1856
252,1813
253,1730
254,1725
255,1604
256,1712
257,2818
258,2944
259,2487
260,2298
261,2248
262,2229
263,2154
264,1968
265,1744
266,1535
267,1430
268,1439
269,1520
270,1619
271,1706
272,1739
273,1801
274,1851
275,1872
276,1872
277,1875
278,1887
279,1907
280,1904
281,736
282,1779
283,1827
284,1697
285,1617
286,1511
287,1733
288,2878
289,2879
290,2464
291,2247
292,2204
293,2164
294,2075
295,1898
296,1665
297,1424
298,1344
299,1446
300,1510
301,1590
302,1669
303,1734
304,1793
305,1825
306,1853
307,1875
308,1879
309,1885
310,1882
311,1903
312,1472
313,1712
314,1834
315,1677
316,1595
317,1455
318,1850
319,2977
320,2874
321,2463
322,2294
323,2246
324,2219
325,2095
326,1860
327,1593
328,1395
329,1380
330,1430
331,1520
332,1617
333,1729
334,1774
335,1828
336,1873
337,1894
338,1911
339,1898
340,1901
341,1905
342,1918
343,2469
344,1639
345,1851
346,1675
347,1520
348,1395
349,1922
350,3095
351,2864
352,2450
353,2308
354,2265
355,2140
356,1973
357,1727
358,1528
359,1365
360,1366
361,1469
362,1555
363,1666
364,1722
365,1786
366,1860
367,1875
368,1886
369,1893
370,1921
371,1917
372,1913
373,1905
374,2822
375,1535
376,1840
377,1655
378,1505
379,1393
380,2096
381,3150
382,2811
383,2465
384,2225
385,2144
386,2071
387,1937
388,1648
389,1392
390,1362
391,1405
392,1519
393,1600
394,1680
395,1769
396,1841
397,1862
398,1893
399,1910
400,1922
401,1906
402,1911
403,1941
404,1918
405,2157
406,1261
407,1904
408,1763
409,1581
410,1377
411,2082
412,3146
413,2774
414,2367
415,2214
416,2163
417,2032
418,1822
419,1535
420,1363
421,1351
422,1447
423,1554
424,1645
425,1746
426,1772
427,1825
428,1859
429,1895
430,1902
431,1904
432,1883
433,1939
434,1924
435,1911
436,1914
437,1009
438,1905
439,1767
440,1629
441,1495
442,2123
443,3225
444,2789
445,2389
446,2269
447,2101
448,1941
449,1734
450,1431
451,1291
452,1344
453,1473
454,1650
455,1680
456,1767
457,1831
458,1898
459,1847
460,1840
461,1875
462,1891
463,1917
464,1911
465,1920
466,1955
467,1923
468,773
469,1887
470,1817
471,1654
472,1441
473,2064
474,3188
475,2855
476,2442
477,2209
478,2090
479,1943
480,1675
481,1357
482,1264
483,1373
484,1488
485,1600
486,1702
487,1779
488,1840
489,1858
490,1903
491,1923
492,1906
493,1891
494,1901
495,1897
496,1925
497,1919
498,1910
499,591
500,1835
501,1830
502,1707
503,1533
504,2096
505,3171
506,2799
507,2439
508,2288
509,2115
510,1891
511,1585
512,1328
513,1289
514,1360
515,1491
516,1605
517,1713
518,1793
519,1845
520,1892
521,1917
522,1896
523,1914
524,1930
525,1917
526,1899
527,1891
528,1906
529,1955
530,635
531,1802
532,1855
533,1744
534,1533
535,1978
536,3185
537,2924
538,2518
539,2286
540,2123
541,1901
542,1574
543,1291
544,1243
545,1335
546,1488
547,1583
548,1697
549,1783
550,1856
551,1869
552,1886
553,1919
554,1915
555,1925
556,1915
557,1959
558,1922
559,1903
560,1894
561,1894
562,1898
563,1917
564,1903
565,1902
566,1913
567,1904
568,1889
569,1879
570,1894
571,1918
572,1887
573,1872
574,1903
575,1885
576,1856
577,1855
578,1848
579,1875
580,1873
581,1869
582,1878
583,1910
584,1885
585,1881
586,1873
587,1895
588,1882
589,1854
590,1859
591,1862
592,1872
593,1855
594,1847
595,1853
596,1890
597,1862
598,1856
599,1876
600,1894
601,1878
602,1872
603,1877
604,1889
605,1871
606,1863
607,1872
608,1855
609,1855
610,1850
611,1840
612,1861
613,1873
614,1863
615,1860
616,1895
617,1885
618,1872
619,1870
620,1876
621,1894
622,1872
623,1861
624,1873
625,1846
626,1839
627,1835
628,1851
629,1839
630,1851
631,1850
632,1856
633,1885
634,1872
635,1869
636,1863
637,1875
638,1875
639,1856
640,1849
641,1869
642,1851
643,1835
644,1837
645,1850
646,1865
647,1853
648,1856
649,1867
650,1873
651,1871
652,1862
653,1869
654,1920
655,1862
656,1845
657,1861
658,1849
659,1838
660,1824
661,1842
662,1846
663,1865
664,1845
665,1859
666,1883
667,1872
668,1856
669,1850
670,1855
671,1882
672,1851
673,1855
674,1875
675,1839
676,1836
677,1834
678,1841
679,1872
680,1859
681,1860
682,1858
683,1891
684,1856
685,1845
686,1868
687,1875
688,1867
689,1845
690,1856
691,1869
692,1846
693,1835
694,1832
695,1840
696,1872
697,1845
698,1850
699,1867
700,1863
701,1857
702,1859
703,1857
704,1891
705,1856
706,1843
707,1842
708,1854
709,1831
710,1826
711,1826
712,1862
713,1862
714,1847
715,1850
716,1862
717,1850
718,1845
719,1840
720,1861
721,1872
722,1846
723,1840
724,1853
725,1876
726,1833
727,1826
728,1842
729,1865
730,1845
731,1850
732,1847
733,1874
734,1857
735,1849
736,1856
737,1873
738,1868
739,1849
740,1858
741,1878
742,1841
743,1823
744,1826
745,1861
746,1855
747,1840
748,1846
749,1873
750,1876
751,1858
752,1857
753,1871
754,1895
755,1859
756,1846
757,1872
758,1837
759,1845
760,1836
761,1819
762,1854
763,1856
764,1846
765,1854
766,1866
767,1868
768,1851
769,1855
770,1865
771,1874
772,1856
773,1851
774,1870
775,1846
776,1837
777,1828
778,1837
779,1859
780,1856
781,1853
782,1854
783,1875
784,1871
785,1861
786,1866
787,1889
788,1874
789,1862
790,1859
791,1878
792,1853
793,1837
794,1837
795,1840
796,1862
797,1860
798,1868
799,1904
800,1857
801,1857
802,1864
803,1872
804,1874
805,1857
806,1845
807,1857
808,1850
809,1846
810,1835
811,1824
812,1826
813,1872
814,1858
815,1855
816,1867
817,1868
818,1859
819,1858
820,1874
821,1883
822,1862
823,1856
824,1899
825,1889
826,1840
827,1840
828,1852
829,1894
830,1877
831,1872
832,1833
833,1878
834,1879
835,1866
836,1879
837,1872
838,1878
839,1850
840,1833
841,1859
842,1843
843,1833
844,1837
845,1846
846,1879
847,1840
848,1850
849,1852
850,1853
851,1855
852,1845
853,1840
854,1863
855,1854
856,1843
857,1850
858,1857
859,1835
860,1824
861,1825
862,1830
863,1854
864,1842
865,1841
866,1862
867,1861
868,1844
869,1842
870,1872
871,1883
872,1849
873,1845
874,1871
875,1842
876,1835
877,1830
878,1836
879,1866
880,1863
881,1851
882,1873
883,1899
884,1867
885,1857
886,1856
887,1882
888,1872
889,1842
890,1835
891,1879
892,1840
893,1824
894,1827
895,1831
896,1872
897,1839
898,1836
899,1861
900,1863
901,1851
902,1850
903,1849
904,1917
905,1852
906,1834
907,1873
908,1825
909,1825
910,1814
911,1822
912,1808
913,1840
914,1824
915,1825
916,1847
917,1847
918,1833
919,1831
920,1840
921,1886
922,1817
923,1822
924,1841
925,1840
926,1830
927,1841
928,1847
929,1873
930,1878
931,1890
932,1904
933,1916
934,1910
935,1909
936,1904
937,1920
938,1921
939,1895
940,1879
941,1870
942,1872
943,1847
944,1840
945,1846
946,1872
947,1856
948,1866
949,1871
950,1905
951,1883
952,1887
953,1898
954,1951
955,1892
956,1881
957,1898
958,1906
959,1875
960,1863
961,1865
962,1863
963,1875
964,1863
965,1872
966,1886
967,1890
968,1872
969,1863
970,1865
971,1879
972,1861
973,1851
974,1856
975,1814
976,1827
977,1819
978,1822
979,1855
980,1840
981,1839
982,1823
983,1851
984,1849
985,1832
986,1838
987,1847
988,1855
989,1826
990,1826
991,1863
992,1830
993,1808
994,1807
995,1808
996,1840
997,1822
998,1826
999,1850
1000,1830
1001,1827
1002,1819
1003,1833
1004,1840
1005,1827
1006,1809
1007,1822
1008,1824
1009,1808
1010,1793
1011,1795
1012,1845
1013,1833
1014,1815
1015,1830
1016,1847
1017,1851
1018,1835
1019,1840
1020,1857
1021,1890
1022,1850
1023,1841
1024,1856
1025,1858
1026,1831
1027,1822
1028,1828
1029,1840
1030,1851
1031,1843
1032,1857
1033,1879
1034,1869
1035,1856
1036,1865
1037,1882
1038,1872
1039,1847
1040,1845
1041,1843
1042,1847
1043,1825
1044,1827
1045,1808
1046,1857
1047,1845
1048,1843
1049,1871
1050,1870
1051,1861
1052,1861
1053,1866
1054,1879
1055,1867
1056,1852
1057,1844
1058,1840
1059,1840
1060,1828
1061,1828
1062,1814
1063,1861
1064,1845
1065,1854
1066,1883
1067,1876
1068,1862
1069,1861
1070,1872
1071,1864
1072,1855
1073,1853
1074,1851
1075,1855
1076,1829
1077,1825
1078,1837
1079,1857
1080,1852
1081,1847
1082,1841
1083,1862
1084,1863
1085,1852
1086,1840
1087,1886
1088,1871
1089,1841
1090,1843
1091,1866
1092,1842
1093,1823
1094,1823
1095,1861
1096,1895
1097,1840
1098,1840
1099,1865
1100,1854
1101,1851
1102,1846
1103,1855
1104,1839
1105,1851
1106,1819
1107,1826
1108,1845
1109,1823
1110,1822
1111,1814
1112,1835
1113,1846
1114,1840
1115,1840
1116,1883
1117,1863
1118,1854
1119,1851
1120,1869
1121,1874
1122,1854
1123,1840
1124,1842
1125,1855
1126,1831
1127,1821
1128,1839
1129,1812
1130,1854
1131,1843
1132,1859
1133,1869
1134,1868
1135,1851
1136,1855
1137,1858
1138,1872
1139,1841
1140,1857
1141,1846
1142,1847
1143,1831
1144,1823
1145,1818
1146,1872
1147,1851
1148,1855
1149,1872
1150,1904
1151,1856
1152,1858
1153,1860
1154,1871
1155,1863
1156,1850
1157,1837
1158,1865
1159,1838
1160,1827
1161,1838
1162,1857
1163,1863
1164,1847
1165,1839
1166,1872
1167,1863
1168,1851
1169,1849
1170,1872
1171,1870
1172,1857
1173,1847
1174,1855
1175,1856
1176,1826
1177,1824
1178,1827
1179,1840
1180,1856
1181,1849
1182,1859
1183,1866
1184,1866
1185,1855
1186,1852
1187,1885
1188,1865
1189,1846
1190,1843
1191,1855
1192,1846
1193,1827
1194,1826
1195,1814
1196,1850
1197,1840
1198,1840
1199,1861
1200,1858
1201,1858
1202,1855
1203,1854
1204,1891
1205,1859
1206,1844
1207,1826
1208,1862
1209,1838
1210,1824
1211,1822
1212,1835
1213,1854
1214,1846
1215,1849
1216,1881
1217,1872
1218,1841
1219,1855
1220,1885
1221,1892
1222,1856
1223,1842
1224,1859
1225,1841
1226,1827
1227,1821
1228,1824
1229,1839
1230,1846
1231,1840
1232,1851
1233,1872
1234,1862
1235,1859
1236,1856
1237,1890
1238,1873
1239,1851
1240,1851
1241,1842
1242,1853
1243,1836
1244,1819
1245,1815
1246,1849
1247,1853
1248,1847
1249,1828
1250,1861
1251,1867
1252,1855
1253,1865
1254,1902
1255,1862
1256,1840
1257,1838
1258,1869
1259,1840
1260,1824
1261,1829
1262,1840
1263,1866
1264,1842
1265,1841
1266,1904
1267,1873
1268,1856
1269,1859
1270,1873
1271,1895
1272,1861
1273,1850
1274,1846
1275,1870
1276,1835
1277,1819
1278,1827
1279,1837
1280,1855
1281,1855
1282,1853
1283,1896
1284,1869
1285,1847
1286,1859
1287,1876
1288,1872
1289,1850
1290,1852
1291,1865
1292,1850
1293,1837
1294,1828
1295,1846
1296,1840
1297,1845
1298,1850
1299,1856
1300,1872
1301,1865
1302,1856
1303,1863
1304,1920
1305,1869
1306,1843
1307,1860
1308,1840
1309,1842
1310,1826
1311,1827
1312,1871
1313,1857
1314,1845
1315,1847
1316,1859
1317,1871
1318,1855
1319,1847
1320,1869
1321,1872
1322,1857
1323,1841
1324,1866
1325,1872
1326,1828
1327,1827
1328,1830
1329,1840
1330,1856
1331,1847
1332,1850
1333,1867
1334,1869
1335,1856
1336,1856
1337,1862
1338,1878
1339,1855
1340,1842
1341,1850
1342,1852
1343,1829
1344,1821
1345,1837
1346,1869
1347,1845
1348,1856
1349,1863
1350,1883
1351,1863
1352,1856
1353,1867
1354,1926
1355,1873
1356,1853
1357,1855
1358,1855
1359,1840
1360,1834
1361,1827
1362,1846
1363,1849
1364,1856
1365,1855
1366,1857
1367,1867
1368,1858
1369,1858
1370,1872
1371,1887
1372,1868
1373,1846
1374,1910
1375,1837
1376,1825
1377,1818
1378,1830
1379,1843
1380,1857
1381,1849
1382,1837
1383,1872
1384,1866
1385,1857
1386,1855
1387,1877
1388,1887
1389,1857
1390,1852
1391,1863
1392,1861
1393,1833
1394,1830
1395,1850
1396,1857
1397,1856
1398,1853
1399,1872
1400,1879
1401,1861
1402,1859
1403,1859
1404,1875
1405,1863
1406,1841
1407,1854
1408,1851
1409,1840
1410,1825
1411,1827
1412,1845
1413,1862
1414,1851
1415,1858
1416,1891
1417,1867
1418,1857
1419,1856
1420,1881
1421,1918
1422,1861
1423,1851
1424,1854
1425,1840
1426,1840
1427,1834
1428,1826
1429,1856
1430,1858
1431,1850
1432,1835
1433,1893
1434,1870
1435,1853
1436,1850
1437,1872
1438,1872
1439,1851
1440,1847
1441,1869
1442,1853
1443,1829
1444,1823
1445,1872
1446,1872
1447,1854
1448,1845
1449,1879
1450,1855
1451,1866
1452,1859
1453,1867
1454,1873
1455,1869
1456,1853
1457,1846
1458,1857
1459,1840
1460,1829
1461,1828
1462,1817
1463,1847
1464,1849
1465,1847
1466,1884
1467,1875
1468,1856
1469,1855
1470,1858
1471,1898
1472,1863
1473,1849
1474,1847
1475,1874
1476,1839
1477,1829
1478,1855
1479,1841
1480,1862
1481,1855
1482,1867
1483,1862
1484,1866
1485,1861
1486,1861
1487,1889
1488,1883
1489,1857
1490,1856
1491,1832
1492,1862
1493,1840
1494,1830
1495,1839
1496,1824
1497,1850
1498,1847
1499,1849
1500,1877
1501,1861
1502,1862
1503,1871
1504,1869
1505,1869
1506,1846
1507,1831
1508,1854
1509,1837
1510,1820
1511,1820
1512,1840
1513,1866
1514,1863
1515,1854
1516,1863
1517,1878
1518,1861
1519,1857
1520,1885
1521,1877
1522,1857
1523,1847
1524,1850
1525,1874
1526,1831
1527,1823
1528,1810
1529,1846
1530,1851
1531,1846
1532,1856
1533,1863
1534,1871
1535,1856
1536,1862
1537,1872
1538,1874
1539,1863
1540,1855
1541,1872
1542,1856
1543,1835
1544,1828
1545,1835
1546,1855
1547,1858
1548,1855
1549,1878
1550,1903
1551,1862
1552,1861
1553,1865
1554,1872
1555,1870
1556,1846
1557,1140
1558,1909
1559,1920
1560,2044
1561,2186
1562,2291
1563,2350
1564,2214
1565,2122
1566,2137
1567,1973
1568,1669
1569,1612
1570,1728
1571,1872
1572,1856
1573,1808
1574,1744
1575,1686
1576,1624
1577,1600
1578,1589
1579,1643
1580,1637
1581,1661
1582,1713
1583,1769
1584,1791
1585,1780
1586,1807
1587,1852
1588,1107
1589,1901
1590,1951
1591,2130
1592,2245
1593,2333
1594,2320
1595,2158
1596,2112
1597,2080
1598,1815
1599,1684
1600,1669
1601,1758
1602,1827
1603,1849
1604,1833
1605,1741
1606,1651
1607,1623
1608,1628
1609,1616
1610,1616
1611,1658
1612,1722
1613,1805
1614,1806
1615,1816
1616,1840
1617,1888
1618,1881
1619,934
1620,1878
1621,1921
1622,2046
1623,2190
1624,2351
1625,2351
1626,2182
1627,2035
1628,1931
1629,1770
1630,1850
1631,1808
1632,1776
1633,1867
1634,1872
1635,1813
1636,1728
1637,1674
1638,1669
1639,1632
1640,1633
1641,1681
1642,1696
1643,1742
1644,1763
1645,1803
1646,1845
1647,1855
1648,1872
1649,1926
1650,1185
1651,1840
1652,1917
1653,2010
1654,2221
1655,2381
1656,2352
1657,2175
1658,2010
1659,1756
1660,1762
1661,2032
1662,1934
1663,1872
1664,1903
1665,1872
1666,1805
1667,1744
1668,1648
1669,1621
1670,1617
1671,1678
1672,1691
1673,1743
1674,1845
1675,1808
1676,1808
1677,1829
1678,1860
1679,1905
1680,1919
1681,1991
1682,1767
1683,1928
1684,1927
1685,2060
1686,2221
1687,2257
1688,2171
1689,1932
1690,1678
1691,2170
1692,2342
1693,2074
1694,2000
1695,1958
1696,1886
1697,1787
1698,1683
1699,1616
1700,1625
1701,1602
1702,1626
1703,1695
1704,1744
1705,1791
1706,1783
1707,1819
1708,1874
1709,1872
1710,1872
1711,1879
1712,2666
1713,1648
1714,1883
1715,1875
1716,2046
1717,2180
1718,2160
1719,2035
1720,1856
1721,1780
1722,2420
1723,2339
1724,2128
1725,2025
1726,1936
1727,1843
1728,1746
1729,1616
1730,1599
1731,1569
1732,1603
1733,1648
1734,1728
1735,1738
1736,1760
1737,1798
1738,1835
1739,1846
1740,1872
1741,1878
1742,1903
1743,2558
1744,1607
1745,1879
1746,1840
1747,1990
1748,2099
1749,2064
1750,1911
1751,1691
1752,2043
1753,2653
1754,2327
1755,2128
1756,2000
1757,1903
1758,1794
1759,1677
1760,1567
1761,1503
1762,1517
1763,1590
1764,1648
1765,1707
1766,1776
1767,1813
1768,1819
1769,1853
1770,1871
1771,1914
1772,1900
1773,1878
1774,1929
1775,1421
1776,1889
1777,1783
1778,1894
1779,2035
1780,1953
1781,1792
1782,1665
1783,2426
1784,2701
1785,2330
1786,2122
1787,2003
1788,1909
1789,1779
1790,1646
1791,1584
1792,1532
1793,1527
1794,1588
1795,1635
1796,1700
1797,1757
1798,1797
1799,1839
1800,1878
1801,1887
1802,1879
1803,1891
1804,1921
1805,1914
1806,1265
1807,1916
1808,1839
1809,1908
1810,1975
1811,1868
1812,1721
1813,1803
1814,2672
1815,2589
1816,2220
1817,2059
1818,1943
1819,1851
1820,1738
1821,1637
1822,1519
1823,1498
1824,1573
1825,1631
1826,1673
1827,1709
1828,1778
1829,1833
1830,1850
1831,1867
1832,1885
1833,1902
1834,1904
1835,1899
1836,1903
1837,1165
1838,1983
1839,1825
1840,1874
1841,1965
1842,1784
1843,1689
1844,2002
1845,2725
1846,2461
1847,2146
1848,1999
1849,1945
1850,1791
1851,1699
1852,1589
1853,1526
1854,1583
1855,1616
1856,1648
1857,1693
1858,1766
1859,1790
1860,1827
1861,1851
1862,1875
1863,1893
1864,1899
1865,1899
1866,1903
1867,1909
1868,1014
1869,1907
1870,1814
1871,1831
1872,1840
1873,1643
1874,1648
1875,2269
1876,2880
1877,2533
1878,2133
1879,1975
1880,1922
1881,1792
1882,1643
1883,1525
1884,1475
1885,1502
1886,1598
1887,1710
1888,1795
1889,1834
1890,1856
1891,1909
1892,1840
1893,1793
1894,1827
1895,1850
1896,1886
1897,1891
1898,1881
1899,1193
1900,1863
1901,1857
1902,1843
1903,1865
1904,1709
1905,1778
1906,2494
1907,2779
1908,2426
1909,2081
1910,1935
1911,1850
1912,1755
1913,1567
1914,1439
1915,1407
1916,1491
1917,1606
1918,1675
1919,1728
1920,1810
1921,1862
1922,1883
1923,1888
1924,1885
1925,1863
1926,1883
1927,1874
1928,1872
1929,1888
1930,1890
1931,1808
1932,1865
1933,1827
1934,1811
1935,1633
1936,1781
1937,2688
1938,2859
1939,2379
1940,2022
1941,1940
1942,1856
1943,1702
1944,1504
1945,1389
1946,1392
1947,1508
1948,1603
1949,1680
1950,1803
1951,1840
1952,1860
1953,1862
1954,1898
1955,1901
1956,1895
1957,1907
1958,1915
1959,1879
1960,1869
1961,2559
1962,1685
1963,1861
1964,1814
1965,1814
1966,1658
1967,1810
1968,2725
1969,2879
1970,2320
1971,2083
1972,1954
1973,1869
1974,1707
1975,1520
1976,1348
1977,1363
1978,1478
1979,1606
1980,1725
1981,1764
1982,1841
1983,1894
1984,1902
1985,1892
1986,1910
1987,1904
1988,1925
1989,1911
1990,1915
1991,1904
1992,2450
1993,1602
1994,1827
1995,1767
1996,1763
1997,1615
1998,1792
1999,2771
2000,2839
2001,2256
2002,2015
2003,1990
2004,1908
2005,1716
2006,1483
2007,1344
2008,1424
2009,1514
2010,1599
2011,1686
2012,1744
2013,1824
2014,1869
2015,1887
2016,1900
2017,1905
2018,1904
2019,1905
2020,1901
2021,1910
2022,1904
2023,1945
2024,1482
2025,1915
2026,1790
2027,1781
2028,1637
2029,1806
2030,2825
2031,2786
2032,2182
2033,2005
2034,1969
2035,1871
2036,1698
2037,1466
2038,1392
2039,1411
2040,1521
2041,1653
2042,1714
2043,1762
2044,1793
2045,1856
2046,1886
2047,1899
2048,1903
2049,1913
2050,1901
2051,1917
2052,1898
2053,1905
2054,1927
2055,1395
2056,1899
2057,1754
2058,1769
2059,1580
2060,1679
2061,2709
2062,2893
2063,2334
2064,2019
2065,1983
2066,1905
2067,1707
2068,1452
2069,1365
2070,1389
2071,1581
2072,1648
2073,1698
2074,1761
2075,1847
2076,1856
2077,1878
2078,1886
2079,1883
2080,1907
2081,1901
2082,1908
2083,1920
2084,1910
2085,1891
2086,1217
2087,1951
2088,1818
2089,1743
2090,1584
2091,1647
2092,2714
2093,2976
2094,2261
2095,1999
2096,1997
2097,1904
2098,1713
2099,1520
2100,1377
2101,1410
2102,1513
2103,1616
2104,1726
2105,1798
2106,1808
2107,1846
2108,1903
2109,1882
2110,1865
2111,1865
2112,1911
2113,1915
2114,1901
2115,1909
2116,1912
2117,1111
2118,1894
2119,1791
2120,1701
2121,1593
2122,1575
2123,2645
2124,3035
2125,2399
2126,2042
2127,2000
2128,1927
2129,1766
2130,1510
2131,1341
2132,1396
2133,1535
2134,1610
2135,1683
2136,1759
2137,1790
2138,1875
2139,1872
2140,1882
2141,1904
2142,1898
2143,1884
2144,1878
2145,1887
2146,1911
2147,1903
2148,1189
2149,1854
2150,1794
2151,1712
2152,1535
2153,1453
2154,2558
2155,3183
2156,2442
2157,2112
2158,2064
2159,1968
2160,1775
2161,1535
2162,1344
2163,1393
2164,1488
2165,1585
2166,1695
2167,1762
2168,1809
2169,1846
2170,1878
2171,1905
2172,1904
2173,1898
2174,1870
2175,1890
2176,1875
2177,1873
2178,1875
2179,1886
2180,1898
2181,1882
2182,1881
2183,1872
2184,1893
2185,1872
2186,1871
2187,1882
2188,1899
2189,1872
2190,1856
2191,1902
2192,1870
2193,1849
2194,1835
2195,1847
2196,1859
2197,1872
2198,1854
2199,1840
2200,1869
2201,1863
2202,1856
2203,1852
2204,1845
2205,1881
2206,1857
2207,1860
2208,1863
2209,1851
2210,1831
2211,1829
2212,1823
2213,1863
2214,1852
2215,1840
2216,1860
2217,1851
2218,1858
2219,1857
2220,1863
2221,1877
2222,1872
2223,1849
2224,1843
2225,1870
2226,1838
2227,1830
2228,1847
2229,1846
2230,1857
2231,1853
2232,1850
2233,1853
2234,1868
2235,1857
2236,1853
2237,1885
2238,1881
2239,1861
2240,1847
2241,1868
2242,1861
2243,1828
2244,1817
2245,1827
2246,1849
2247,1855
2248,1847
2249,1860
2250,1859
2251,1869
2252,1853
2253,1856
2254,1856
2255,1873
2256,1848
2257,1849
2258,1858
2259,1856
2260,1831
2261,1831
2262,1854
2263,1904
2264,1858
2265,1854
2266,1861
2267,1887
2268,1858
2269,1857
2270,1874
2271,1890
2272,1872
2273,1841
2274,1840
2275,1840
2276,1831
2277,1826
2278,1818
2279,1840
2280,1867
2281,1855
2282,1847
2283,1860
2284,1872
2285,1859
2286,1859
2287,1856
2288,1848
2289,1859
2290,1850
2291,1846
2292,1872
2293,1840
2294,1829
2295,1822
2296,1874
2297,1851
2298,1854
2299,1859
2300,1887
2301,1863
2302,1854
2303,1869
2304,1871
2305,1873
2306,1841
2307,1850
2308,1838
2309,1854
2310,1833
2311,1828
2312,1822
2313,1863
2314,1850
2315,1855
2316,1852
2317,1905
2318,1851
2319,1857
2320,1854
2321,1845
2322,1862
2323,1842
2324,1856
2325,1848
2326,1836
2327,1825
2328,1823
2329,1810
2330,1869
2331,1851
2332,1855
2333,1859
2334,1862
2335,1845
2336,1844
2337,1856
2338,1861
2339,1846
2340,1840
2341,1911
2342,1848
2343,1835
2344,1827
2345,1840
2346,1838
2347,1856
2348,1856
2349,1876
2350,1877
2351,1869
2352,1859
2353,1858
2354,1887
2355,1879
2356,1856
2357,1850
2358,1865
2359,1851
2360,1829
2361,1833
2362,1822
2363,1858
2364,1855
2365,1851
2366,1889
2367,1907
2368,1856
2369,1851
2370,1842
2371,1853
2372,1861
2373,1849
2374,1829
2375,1868
2376,1840
2377,1829
2378,1835
2379,1849
2380,1854
2381,1853
2382,1856
2383,1859
2384,1869
2385,1857
2386,1862
2387,1854
2388,1887
2389,1858
2390,1850
2391,1841
2392,1861
2393,1836
2394,1834
2395,1858
2396,1843
2397,1867
2398,1860
2399,1858
2400,1911
2401,1872
2402,1863
2403,1862
2404,1890
2405,1879
2406,1853
2407,1853
2408,1851
2409,1853
2410,1835
2411,1834
2412,1862
2413,1863
2414,1853
2415,1858
2416,1860
2417,1859
2418,1863
2419,1859
2420,1853
2421,1874
2422,1867
2423,1856
2424,1846
2425,1863
2426,1837
2427,1826
2428,1825
2429,1847
2430,1866
2431,1858
2432,1857
2433,1858
2434,1888
2435,1870
2436,1865
2437,1904
2438,1876
2439,1869
2440,1855
2441,1846
2442,1853
2443,1840
2444,1835
2445,1828
2446,1841
2447,1865
2448,1852
2449,1870
2450,1877
2451,1872
2452,1859
2453,1859
2454,1885
2455,1879
2456,1854
2457,1841
2458,1853
2459,1856
2460,1840
2461,1835
2462,1835
2463,1895
2464,1862
2465,1862
2466,1877
2467,1875
2468,1872
2469,1869
2470,1868
2471,1885
2472,1872
2473,1857
2474,1862
2475,1851
2476,1840
2477,1829
2478,1829
2479,1845
2480,1867
2481,1851
2482,1851
2483,1872
2484,1879
2485,1845
2486,1847
2487,1875
2488,1907
2489,1851
2490,1843
2491,1869
2492,1849
2493,1838
2494,1828
2495,1814
2496,1842
2497,1850
2498,1842
2499,1856
2500,1890
2501,1872
2502,1856
2503,1860
2504,1875
2505,1879
2506,1847
2507,1846
2508,1871
2509,1845
2510,1831
2511,1827
2512,1865
2513,1878
2514,1856
2515,1856
2516,1857
2517,1879
2518,1857
2519,1856
2520,1871
2521,1885
2522,1867
2523,1853
2524,1837
2525,1843
2526,1840
2527,1825
2528,1826
2529,1840
2530,1865
2531,1850
2532,1854
2533,1885
2534,1855
2535,1863
2536,1863
2537,1875
2538,1918
2539,1861
2540,1846
2541,1840
2542,1831
2543,1827
2544,1812
2545,1825
2546,1843
2547,1843
2548,1839
2549,1841
2550,1891
2551,1868
2552,1856
2553,1854
2554,1865
2555,1889
2556,1853
2557,1843
2558,1847
2559,1828
2560,1831
2561,1824
2562,1865
2563,1873
2564,1856
2565,1851
2566,1851
2567,1901
2568,1862
2569,1862
2570,1872
2571,1878
2572,1871
2573,1845
2574,1841
2575,1865
2576,1837
2577,1817
2578,1820
2579,1835
2580,1863
2581,1853
2582,1856
2583,1840
2584,1873
2585,1866
2586,1861
2587,1886
2588,1878
2589,1862
2590,1856
2591,1867
2592,1847
2593,1828
2594,1823
2595,1814
2596,1840
2597,1857
2598,1851
2599,1883
2600,1879
2601,1872
2602,1859
2603,1858
2604,1877
2605,1875
2606,1845
2607,1847
2608,1847
2609,1855
2610,1825
2611,1823
2612,1839
2613,1904
2614,1850
2615,1844
2616,1847
2617,1885
2618,1867
2619,1857
2620,1872
2621,1889
2622,1871
2623,1853
2624,1856
2625,1861
2626,1839
2627,1820
2628,1830
2629,1840
2630,1869
2631,1850
2632,1857
2633,1853
2634,1861
2635,1851
2636,1856
2637,1869
2638,1880
2639,1853
2640,1839
2641,1850
2642,1845
2643,1833
2644,1824
2645,1850
2646,1854
2647,1856
2648,1851
2649,1877
2650,1872
2651,1870
2652,1856
2653,1856
2654,1891
2655,1883
2656,1854
2657,1841
2658,1879
2659,1837
2660,1830
2661,1830
2662,1826
2663,1886
2664,1855
2665,1847
2666,1856
2667,1891
2668,1857
2669,1851
2670,1856
2671,1871
2672,1872
2673,1848
2674,1855
2675,1873
2676,1847
2677,1828
2678,1830
2679,1830
2680,1861
2681,1854
2682,1853
2683,1868
2684,1862
2685,1859
2686,1866
2687,1863
2688,1881
2689,1860
2690,1849
2691,1856
2692,1848
2693,1838
2694,1828
2695,1822
2696,1835
2697,1856
2698,1850
2699,1847
2700,1871
2701,1872
2702,1866
2703,1862
2704,1870
2705,1887
2706,1856
2707,1847
2708,1893
2709,1862
2710,1838
2711,1834
2712,1839
2713,1850
2714,1856
2715,1860
2716,1840
2717,1875
2718,1865
2719,1863
2720,1867
2721,1897
2722,1872
2723,1850
2724,1856
2725,1858
2726,1846
2727,1827
2728,1829
2729,1868
2730,1861
2731,1856
2732,1855
2733,1891
2734,1871
2735,1869
2736,1866
2737,1875
2738,1879
2739,1863
2740,1855
2741,1856
2742,1869
2743,1840
2744,1834
2745,1824
2746,1846
2747,1865
2748,1852
2749,1863
2750,1894
2751,1874
2752,1864
2753,1867
2754,1883
2755,1875
2756,1851
2757,1841
2758,1882
2759,1859
2760,1840
2761,1833
2762,1853
2763,1868
2764,1857
2765,1868
2766,1861
2767,1865
2768,1871
2769,1867
2770,1854
2771,1867
2772,1879
2773,1854
2774,1840
2775,1871
2776,1847
2777,1838
2778,1842
2779,1831
2780,1869
2781,1862
2782,1863
2783,1895
2784,1887
2785,1857
2786,1856
2787,1882
2788,1890
2789,1866
2790,1862
2791,1871
2792,1872
2793,1843
2794,1835
2795,1866
2796,1844
2797,1868
2798,1857
2799,1863
2800,1871
2801,1873
2802,1865
2803,1863
2804,1877
2805,1881
2806,1856
2807,1854
2808,1840
2809,1844
2810,1840
2811,1834
2812,1851
2813,1871
2814,1859
2815,1843
2816,1853
2817,1858
2818,1863
2819,1855
2820,1866
2821,1872
2822,1875
2823,1857
2824,1875
2825,1847
2826,1851
2827,1829
2828,1835
2829,1844
2830,1866
2831,1855
2832,1856
2833,1840
2834,1866
2835,1869
2836,1862
2837,1871
2838,1931
2839,1871
2840,1854
2841,1840
2842,1872
2843,1840
2844,1826
2845,1831
2846,1837
2847,1858
2848,1852
2849,1862
2850,1904
2851,1873
2852,1867
2853,1863
2854,1875
2855,1927
2856,1861
2857,1856
2858,1855
2859,1857
2860,1835
2861,1833
2862,1871
2863,1840
2864,1860
2865,1858
2866,1829
2867,1917
2868,1873
2869,1869
2870,1872
2871,1882
2872,1879
2873,1859
2874,1856
2875,1846
2876,1844
2877,1833
2878,1837
2879,1855
2880,1872
2881,1861
2882,1856
2883,1894
2884,1905
2885,1869
2886,1869
2887,1889
2888,1935
2889,1872
2890,1861
2891,1872
2892,1861
2893,1851
2894,1840
2895,1843
2896,1853
2897,1872
2898,1862
2899,1867
2900,1881
2901,1879
2902,1871
2903,1866
2904,1887
2905,1866
2906,1859
2907,1846
2908,1867
2909,1879
2910,1842
2911,1838
2912,1831
2913,1872
2914,1863
2915,1857
2916,1882
2917,1870
2918,1871
2919,1871
2920,1875
2921,1872
2922,1878
2923,1859
2924,1859
2925,1854
2926,1857
2927,1840
2928,1838
2929,1847
2930,1862
2931,1862
2932,1871
2933,1882
2934,1875
2935,1862
2936,1862
2937,1862
2938,1876
2939,1871
2940,1850
2941,1855
2942,1869
2943,1856
2944,1840
2945,1852
2946,1869
2947,1872
2948,1859
2949,1875
2950,1880
2951,1875
2952,1872
2953,1868
2954,1889
2955,1888
2956,1865
2957,1859
2958,1851
2959,1861
2960,1843
2961,1840
2962,1869
2963,1865
2964,1872
2965,1860
2966,1872
2967,1888
2968,1869
2969,1859
2970,1872
2971,1869
2972,1886
2973,1858
2974,1859
2975,1877
2976,1856
2977,1840
2978,1842
2979,1859
2980,1879
2981,1863
2982,1858
2983,1870
2984,1873
2985,1871
2986,1865
2987,1899
2988,1888
2989,1872
2990,1859
2991,1856
2992,1878
2993,1851
2994,1839
2995,1817
2996,1827
2997,1863
2998,1853
2999,1859
3000,1876
3001,1875
3002,1871
3003,1868
3004,1875
3005,1883
3006,1869
3007,1863
3008,1890
3009,1878
3010,1840
3011,1835
3012,1828
3013,1858
3014,1865
3015,1857
3016,1859
3017,1889
3018,1872
3019,1866
3020,1876
3021,1917
3022,1878
3023,1862
3024,1857
3025,1847
3026,1847
3027,1833
3028,1839
3029,1849
3030,1855
3031,1859
3032,1857
3033,1841
3034,1872
3035,1866
3036,1865
3037,1891
3038,1930
3039,1875
3040,1858
3041,1851
3042,1859
3043,1840
3044,1837
3045,1825
3046,1885
3047,1867
3048,1857
3049,1862
3050,1904
3051,1879
3052,1863
3053,1869
3054,1876
3055,1873
3056,1855
3057,1842
3058,1859
3059,1866
3060,1839
3061,1835
3062,1831
3063,1901
3064,1870
3065,1862
3066,1856
3067,1883
3068,1870
3069,1861
3070,1871
3071,1885
3072,1882
3073,1857
3074,1856
3075,1863
3076,1846
3077,1839
3078,1839
3079,1840
3080,1881
3081,1858
3082,1856
3083,1882
3084,1865
3085,1869
3086,1858
3087,1879
3088,1855
3089,1858
3090,1853
3091,1854
3092,1852
3093,1843
3094,1834
3095,1838
3096,1855
3097,1865
3098,1853
3099,1872
3100,1889
3101,1872
3102,1863
3103,1861
3104,1891
3105,1879
3106,1859
3107,1851
3108,1872
3109,1863
3110,1840
3111,1834
3112,1871
3113,1868
3114,1857
3115,1836
3116,1846
3117,1881
3118,1859
3119,1852
3120,1860
3121,1883
3122,1877
3123,1855
3124,1861
3125,1873
3126,1846
3127,1835
3128,1831
3129,1872
3130,1870
3131,1853
3132,1850
3133,1871
3134,1899
3135,1862
3136,1861
3137,1871
3138,1899
3139,1870
3140,1851
3141,1859
3142,1856
3143,1840
3144,1825
3145,1844
3146,1844
3147,1862
3148,1851
3149,1849
3150,1891
3151,1874
3152,1861
3153,1859
3154,1845
3155,1883
3156,1858
3157,1853
3158,1847
3159,1835
3160,1840
3161,1833
3162,1831
3163,1863
3164,1860
3165,1857
3166,1872
3167,1840
3168,1863
3169,1859
3170,1872
3171,1883
3172,1885
3173,1855
3174,1850
3175,801
3176,1830
3177,1999
3178,2160
3179,2233
3180,2427
3181,2483
3182,2309
3183,2031
3184,2000
3185,2004
3186,1646
3187,1369
3188,1435
3189,1590
3190,1733
3191,1812
3192,1813
3193,1809
3194,1808
3195,1786
3196,1789
3197,1759
3198,1725
3199,1729
3200,1744
3201,1759
3202,1723
3203,1744
3204,1791
3205,1869
3206,785
3207,1839
3208,1939
3209,2191
3210,2259
3211,2416
3212,2512
3213,2297
3214,1989
3215,1933
3216,1794
3217,1403
3218,1350
3219,1580
3220,1783
3221,1907
3222,1890
3223,1835
3224,1791
3225,1721
3226,1713
3227,1678
3228,1685
3229,1713
3230,1777
3231,1803
3232,1831
3233,1853
3234,1911
3235,1878
3236,1886
3237,766
3238,1810
3239,1954
3240,2118
3241,2207
3242,2332
3243,2448
3244,2259
3245,1954
3246,1921
3247,1697
3248,1393
3249,1571
3250,1806
3251,1923
3252,1956
3253,1926
3254,1837
3255,1790
3256,1695
3257,1653
3258,1658
3259,1712
3260,1732
3261,1769
3262,1792
3263,1851
3264,1871
3265,1871
3266,1889
3267,1907
3268,1235
3269,1741
3270,1901
3271,2045
3272,2148
3273,2288
3274,2383
3275,2188
3276,1936
3277,1774
3278,1534
3279,1648
3280,1893
3281,1977
3282,2006
3283,2001
3284,1915
3285,1783
3286,1683
3287,1641
3288,1690
3289,1673
3290,1712
3291,1767
3292,1817
3293,1807
3294,1827
3295,1823
3296,1868
3297,1899
3298,1884
3299,2219
3300,1603
3301,1911
3302,1969
3303,2098
3304,2271
3305,2341
3306,2064
3307,1888
3308,1665
3309,1807
3310,2047
3311,2047
3312,2063
3313,2057
3314,1983
3315,1843
3316,1732
3317,1648
3318,1616
3319,1630
3320,1677
3321,1755
3322,1785
3323,1803
3324,1834
3325,1876
3326,1871
3327,1862
3328,1859
3329,1863
3330,2735
3331,1463
3332,1903
3333,1962
3334,2035
3335,2183
3336,2146
3337,1917
3338,1817
3339,1774
3340,2197
3341,2219
3342,2126
3343,2107
3344,2019
3345,1893
3346,1757
3347,1664
3348,1589
3349,1599
3350,1633
3351,1705
3352,1740
3353,1781
3354,1831
3355,1870
3356,1862
3357,1855
3358,1931
3359,1892
3360,1860
3361,2426
3362,1281
3363,1884
3364,1958
3365,2065
3366,2151
3367,2000
3368,1883
3369,1808
3370,2183
3371,2301
3372,2074
3373,2032
3374,2033
3375,1970
3376,1841
3377,1697
3378,1588
3379,1579
3380,1593
3381,1655
3382,1717
3383,1782
3384,1831
3385,1855
3386,1865
3387,1885
3388,1926
3389,1911
3390,1903
3391,1914
3392,1932
3393,951
3394,1873
3395,1937
3396,2066
3397,2001
3398,1751
3399,1797
3400,2029
3401,2416
3402,2178
3403,2064
3404,2151
3405,2162
3406,1965
3407,1811
3408,1661
3409,1570
3410,1535
3411,1594
3412,1662
3413,1767
3414,1793
3415,1840
3416,1867
3417,1885
3418,1909
3419,1933
3420,1927
3421,1963
3422,1951
3423,1933
3424,789
3425,1870
3426,1930
3427,1994
3428,1835
3429,1629
3430,1991
3431,2457
3432,2321
3433,2015
3434,2065
3435,2110
3436,2031
3437,1891
3438,1745
3439,1617
3440,1565
3441,1620
3442,1681
3443,1719
3444,1758
3445,1802
3446,1828
3447,1872
3448,1874
3449,1890
3450,1905
3451,1919
3452,1915
3453,1914
3454,1913
3455,590
3456,1827
3457,1933
3458,1975
3459,1814
3460,1607
3461,2313
3462,2817
3463,2284
3464,1981
3465,2017
3466,2077
3467,1984
3468,1801
3469,1615
3470,1527
3471,1589
3472,1638
3473,1703
3474,1779
3475,1828
3476,1861
3477,1882
3478,1854
3479,1831
3480,1859
3481,1893
3482,1889
3483,1910
3484,1938
3485,1906
3486,623
3487,1808
3488,1963
3489,1917
3490,1712
3491,1584
3492,2533
3493,2921
3494,2224
3495,1985
3496,2067
3497,2016
3498,1868
3499,1675
3500,1531
3501,1503
3502,1535
3503,1634
3504,1712
3505,1794
3506,1837
3507,1867
3508,1881
3509,1871
3510,1840
3511,1862
3512,1890
3513,1913
3514,1911
3515,1904
3516,1895
3517,1110
3518,1709
3519,1914
3520,1851
3521,1698
3522,1579
3523,2643
3524,3082
3525,2343
3526,2054
3527,2005
3528,1971
3529,1814
3530,1623
3531,1451
3532,1441
3533,1513
3534,1647
3535,1702
3536,1768
3537,1827
3538,1888
3539,1904
3540,1899
3541,1888
3542,1900
3543,1893
3544,1876
3545,1874
3546,1871
3547,1904
3548,2096
3549,1584
3550,1910
3551,1866
3552,1655
3553,1531
3554,2753
3555,3136
3556,2240
3557,1957
3558,2041
3559,2013
3560,1815
3561,1535
3562,1411
3563,1430
3564,1535
3565,1623
3566,1671
3567,1775
3568,1824
3569,1843
3570,1870
3571,1921
3572,1936
3573,1895
3574,1890
3575,1885
3576,1891
3577,1874
3578,1869
3579,2544
3580,1479
3581,1878
3582,1841
3583,1672
3584,1517
3585,2778
3586,3121
3587,2235
3588,1968
3589,1996
3590,1974
3591,1785
3592,1562
3593,1424
3594,1428
3595,1515
3596,1600
3597,1727
3598,1782
3599,1848
3600,1891
3601,1934
3602,1906
3603,1843
3604,1887
3605,1919
3606,1906
3607,1890
3608,1869
3609,1878
3610,2240
3611,1232
3612,1869
3613,1873
3614,1728
3615,1472
3616,2650
3617,3152
3618,2211
3619,1920
3620,1953
3621,2015
3622,1861
3623,1561
3624,1422
3625,1451
3626,1534
3627,1598
3628,1662
3629,1744
3630,1802
3631,1841
3632,1861
3633,1886
3634,1922
3635,1913
3636,1898
3637,1904
3638,1923
3639,1915
3640,1904
3641,1966
3642,1008
3643,1865
3644,1898
3645,1803
3646,1519
3647,2592
3648,3155
3649,2192
3650,1920
3651,1950
3652,1999
3653,1849
3654,1585
3655,1462
3656,1450
3657,1516
3658,1642
3659,1665
3660,1738
3661,1782
3662,1847
3663,1842
3664,1898
3665,1872
3666,1878
3667,1917
3668,1905
3669,1888
3670,1891
3671,1895
3672,1893
3673,925
3674,1872
3675,1879
3676,1770
3677,1435
3678,2544
3679,3296
3680,2202
3681,1873
3682,1936
3683,2043
3684,1874
3685,1607
3686,1438
3687,1449
3688,1599
3689,1610
3690,1662
3691,1706
3692,1814
3693,1835
3694,1847
3695,1859
3696,1878
3697,1874
3698,1883
3699,1885
3700,1899
3701,1901
3702,1889
3703,1887
3704,648
3705,1822
3706,1811
3707,1744
3708,1427
3709,2176
3710,3433
3711,2391
3712,1931
3713,1940
3714,2038
3715,1932
3716,1707
3717,1476
3718,1473
3719,1522
3720,1601
3721,1683
3722,1775
3723,1783
3724,1815
3725,1838
3726,1870
3727,1869
3728,1860
3729,1895
3730,1889
3731,1890
3732,1890
3733,1918
3734,1905
3735,635
3736,1771
3737,1819
3738,1781
3739,1443
3740,2064
3741,3670
3742,2507
3743,1936
3744,1904
3745,2007
3746,1943
3747,1723
3748,1469
3749,1417
3750,1472
3751,1613
3752,1644
3753,1699
3754,1789
3755,1877
3756,1856
3757,1875
3758,1891
3759,1872
3760,1858
3761,1859
3762,1887
3763,1872
3764,1890
3765,1874
3766,978
3767,1663
3768,1807
3769,1771
3770,1469
3771,1854
3772,3801
3773,2590
3774,1931
3775,1929
3776,2003
3777,1987
3778,1733
3779,1498
3780,1503
3781,1488
3782,1569
3783,1648
3784,1722
3785,1757
3786,1797
3787,1840
3788,1898
3789,1883
3790,1857
3791,1872
3792,1907
3793,1892
3794,1866
3795,1856
3796,1857
3797,1899
3798,1872
3799,1871
3800,1886
3801,1897
3802,1876
3803,1859
3804,1874
3805,1875
3806,1849
3807,1842
3808,1843
3809,1839
3810,1840
3811,1833
3812,1837
3813,1861
3814,1863
3815,1840
3816,1843
3817,1857
3818,1862
3819,1855
3820,1857
3821,1870
3822,1889
3823,1856
3824,1847
3825,1861
3826,1841
3827,1822
3828,1827
3829,1831
3830,1859
3831,1846
3832,1847
3833,1869
3834,1853
3835,1847
3836,1839
3837,1857
3838,1851
3839,1862
3840,1840
3841,1855
3842,1840
3843,1836
3844,1825
3845,1830
3846,1858
3847,1857
3848,1827
3849,1841
3850,1847
3851,1874
3852,1840
3853,1840
3854,1862
3855,1872
3856,1854
3857,1842
3858,1845
3859,1847
3860,1831
3861,1827
3862,1830
3863,1879
3864,1859
3865,1839
3866,1845
3867,1856
3868,1853
3869,1846
3870,1841
3871,1863
3872,1903
3873,1851
3874,1844
3875,1860
3876,1873
3877,1834
3878,1829
3879,1840
3880,1867
3881,1847
3882,1853
3883,1853
3884,1888
3885,1861
3886,1854
3887,1861
3888,1877
3889,1869
3890,1846
3891,1845
3892,1870
3893,1842
3894,1823
3895,1822
3896,1834
3897,1858
3898,1846
3899,1854
3900,1868
3901,1873
3902,1858
3903,1860
3904,1867
3905,1863
3906,1859
3907,1851
3908,1881
3909,1840
3910,1831
3911,1824
3912,1821
3913,1852
3914,1863
3915,1861
3916,1859
3917,1878
3918,1862
3919,1856
3920,1857
3921,1874
3922,1870
3923,1857
3924,1857
3925,1849
3926,1851
3927,1831
3928,1808
3929,1823
3930,1808
3931,1853
3932,1856
3933,1857
3934,1903
3935,1863
3936,1855
3937,1838
3938,1874
3939,1872
3940,1856
3941,1856
3942,1856
3943,1849
3944,1833
3945,1829
3946,1858
3947,1882
3948,1854
3949,1856
3950,1873
3951,1871
3952,1867
3953,1861
3954,1883
3955,1846
3956,1865
3957,1850
3958,1904
3959,1850
3960,1849
3961,1840
3962,1845
3963,1841
3964,1873
3965,1863
3966,1870
3967,1869
3968,1879
3969,1872
3970,1869
3971,1888
3972,1898
3973,1872
3974,1859
3975,1861
3976,1834
3977,1847
3978,1843
3979,1849
3980,1925
3981,1867
3982,1866
3983,1891
3984,1879
3985,1872
3986,1871
3987,1872
3988,1887
3989,1885
3990,1870
3991,1856
3992,1871
3993,1857
3994,1845
3995,1835
3996,1845
3997,1862
3998,1859
3999,1861
4000,1867
4001,1878
4002,1872
4003,1872
4004,1866
4005,1926
4006,1871
4007,1856
4008,1872
4009,1827
4010,1840
4011,1831
4012,1856
4013,1854
4014,1871
4015,1853
4016,1838
4017,1895
4018,1871
4019,1857
4020,1858
4021,1895
4022,1888
4023,1867
4024,1856
4025,1886
4026,1855
4027,1842
4028,1840
4029,1845
4030,1872
4031,1861
4032,1863
4033,1881
4034,1866
4035,1872
4036,1870
4037,1867
4038,1920
4039,1882
4040,1856
4041,1861
4042,1883
4043,1850
4044,1833
4045,1836
4046,1847
4047,1873
4048,1854
4049,1856
4050,1881
4051,1873
4052,1872
4053,1870
4054,1872
4055,1917
4056,1874
4057,1859
4058,1862
4059,1882
4060,1846
4061,1845
4062,1835
4063,1862
4064,1872
4065,1863
4066,1866
4067,1872
4068,1875
4069,1867
4070,1871
4071,1885
4072,1887
4073,1872
4074,1872
4075,1858
4076,1872
4077,1854
4078,1855
4079,1872
4080,1887
4081,1879
4082,1872
4083,1871
4084,1903
4085,1878
4086,1873
4087,1879
4088,1922
4089,1887
4090,1865
4091,1863
4092,1900
4093,1855
4094,1837
4095,1839
4096,1855
4097,1867
4098,1856
4099,1863
4100,1903
4101,1895
4102,1861
4103,1863
4104,1861
4105,1872
4106,1857
4107,1850
4108,1867
4109,1852
4110,1834
4111,1828
4112,1832
4113,1817
4114,1859
4115,1849
4116,1854
4117,1843
4118,1871
4119,1856
4120,1859
4121,1868
4122,1872
4123,1849
4124,1840
4125,1825
4126,1839
4127,1825
4128,1819
4129,1845
4130,1847
4131,1851
4132,1845
4133,1879
4134,1868
4135,1851
4136,1846
4137,1837
4138,1863
4139,1863
4140,1840
4141,1838
4142,1839
4143,1840
4144,1822
4145,1822
4146,1840
4147,1862
4148,1840
4149,1850
4150,1877
4151,1856
4152,1854
4153,1851
4154,1862
4155,1877
4156,1855
4157,1840
4158,1887
4159,1845
4160,1835
4161,1822
4162,1841
4163,1843
4164,1851
4165,1838
4166,1844
4167,1840
4168,1861
4169,1846
4170,1855
4171,1869
4172,1887
4173,1849
4174,1829
4175,1872
4176,1856
4177,1818
4178,1819
4179,1835
4180,1856
4181,1840
4182,1842
4183,1888
4184,1867
4185,1857
4186,1844
4187,1825
4188,1840
4189,1867
4190,1839
4191,1841
4192,1878
4193,1836
4194,1811
4195,1814
4196,1820
4197,1856
4198,1840
4199,1855
4200,1871
4201,1861
4202,1843
4203,1847
4204,1866
4205,1898
4206,1859
4207,1843
4208,1898
4209,1855
4210,1822
4211,1821
4212,1843
4213,1872
4214,1858
4215,1857
4216,1851
4217,1863
4218,1865
4219,1856
4220,1855
4221,1871
4222,1901
4223,1852
4224,1838
4225,1846
4226,1856
4227,1827
4228,1829
4229,1840
4230,1841
4231,1871
4232,1869
4233,1887
4234,1866
4235,1840
4236,1837
4237,1843
4238,1877
4239,1854
4240,1821
4241,1829
4242,1866
4243,1845
4244,1824
4245,1814
4246,1830
4247,1853
4248,1846
4249,1843
4250,1834
4251,1867
4252,1855
4253,1853
4254,1865
4255,1872
4256,1856
4257,1839
4258,1816
4259,1845
4260,1833
4261,1823
4262,1809
4263,1841
4264,1855
4265,1841
4266,1851
4267,1878
4268,1872
4269,1856
4270,1856
4271,1867
4272,1887
4273,1851
4274,1844
4275,1915
4276,1851
4277,1825
4278,1822
4279,1862
4280,1853
4281,1855
4282,1854
4283,1868
4284,1859
4285,1859
4286,1854
4287,1872
4288,1875
4289,1886
4290,1855
4291,1846
4292,1885
4293,1856
4294,1826
4295,1809
4296,1826
4297,1855
4298,1855
4299,1856
4300,1865
4301,1900
4302,1855
4303,1855
4304,1878
4305,1907
4306,1871
4307,1851
4308,1858
4309,1888
4310,1836
4311,1808
4312,1794
4313,1807
4314,1837
4315,1809
4316,1827
4317,1849
4318,1860
4319,1850
4320,1846
4321,1872
4322,1869
4323,1873
4324,1895
4325,1941
4326,1947
4327,1931
4328,1932
4329,1918
4330,1933
4331,1858
4332,1789
4333,1682
4334,1691
4335,1761
4336,1787
4337,1808
4338,1837
4339,1867
4340,1840
4341,1838
4342,1869
4343,1840
4344,1815
4345,1820
4346,1856
4347,1872
4348,1846
4349,1841
4350,1870
4351,1872
4352,1861
4353,1861
4354,1876
4355,1877
4356,1866
4357,1845
4358,1875
4359,1840
4360,1835
4361,1823
4362,1828
4363,1871
4364,1871
4365,1843
4366,1857
4367,1888
4368,1872
4369,1855
4370,1856
4371,1872
4372,1899
4373,1862
4374,1855
4375,1887
4376,1882
4377,1827
4378,1826
4379,1831
4380,1859
4381,1852
4382,1851
4383,1828
4384,1885
4385,1863
4386,1856
4387,1841
4388,1871
4389,1878
4390,1873
4391,1895
4392,1907
4393,1903
4394,1859
4395,1828
4396,1821
4397,1815
4398,1750
4399,1744
4400,1798
4401,1844
4402,1841
4403,1843
4404,1867
4405,1874
4406,1862
4407,1856
4408,1826
4409,1829
4410,1808
4411,1807
4412,1813
4413,1808
4414,1842
4415,1837
4416,1840
4417,1895
4418,1870
4419,1857
4420,1861
4421,1885
4422,1920
4423,1866
4424,1863
4425,1867
4426,1870
4427,1853
4428,1841
4429,1850
4430,1840
4431,1875
4432,1871
4433,1874
4434,1904
4435,1891
4436,1877
4437,1879
4438,1916
4439,1895
4440,1871
4441,1863
4442,1869
4443,1878
4444,1849
4445,1840
4446,1863
4447,1864
4448,1860
4449,1868
4450,1883
4451,1907
4452,1872
4453,1869
4454,1867
4455,1886
4456,1866
4457,1845
4458,1835
4459,1872
4460,1835
4461,1818
4462,1811
4463,1840
4464,1861
4465,1841
4466,1843
4467,1835
4468,1863
4469,1843
4470,1854
4471,1863
4472,1883
4473,1847
4474,1840
4475,1877
4476,1843
4477,1822
4478,1819
4479,1814
4480,1851
4481,1854
4482,1845
4483,1886
4484,1889
4485,1865
4486,1855
4487,1856
4488,1877
4489,1882
4490,1855
4491,1847
4492,1856
4493,1851
4494,1826
4495,1819
4496,1828
4497,1852
4498,1846
4499,1853
4500,1879
4501,1893
4502,1871
4503,1858
4504,1889
4505,1872
4506,1872
4507,1851
4508,1808
4509,1854
4510,1840
4511,1825
4512,1823
4513,1845
4514,1863
4515,1856
4516,1853
4517,1863
4518,1874
4519,1857
4520,1859
4521,1866
4522,1875
4523,1860
4524,1850
4525,1920
4526,1840
4527,1825
4528,1817
4529,1827
4530,1836
4531,1851
4532,1845
4533,1879
4534,1884
4535,1862
4536,1856
4537,1862
4538,1889
4539,1873
4540,1849
4541,1849
4542,1858
4543,1847
4544,1822
4545,1823
4546,1822
4547,1863
4548,1845
4549,1841
4550,1899
4551,1885
4552,1862
4553,1856
4554,1867
4555,1898
4556,1864
4557,1840
4558,1821
4559,1853
4560,1837
4561,1820
4562,1838
4563,1827
4564,1858
4565,1854
4566,1853
4567,1870
4568,1874
4569,1861
4570,1861
4571,1873
4572,1879
4573,1866
4574,1851
4575,1861
4576,1854
4577,1831
4578,1827
4579,1830
4580,1859
4581,1859
4582,1851
4583,1888
4584,1889
4585,1863
4586,1856
4587,1840
4588,1888
4589,1890
4590,1853
4591,1853
4592,1891
4593,1867
4594,1834
4595,1829
4596,1840
4597,1857
4598,1858
4599,1857
4600,1872
4601,1895
4602,1870
4603,1860
4604,1866
4605,1871
4606,1872
4607,1855
4608,1856
4609,1860
4610,1840
4611,1826
4612,1826
4613,1829
4614,1867
4615,1845
4616,1844
4617,1871
4618,1868
4619,1859
4620,1857
4621,1866
4622,1882
4623,1857
4624,1846
4625,1837
4626,1857
4627,1835
4628,1822
4629,1854
4630,1820
4631,1856
4632,1845
4633,1835
4634,1872
4635,1866
4636,1859
4637,1851
4638,1898
4639,1888
4640,1856
4641,1847
4642,1843
4643,1851
4644,1825
4645,1822
4646,1854
4647,1857
4648,1853
4649,1855
4650,1889
4651,1876
4652,1855
4653,1856
4654,1883
4655,1891
4656,1879
4657,1856
4658,1843
4659,1875
4660,1845
4661,1828
4662,1827
4663,1833
4664,1879
4665,1854
4666,1857
4667,1860
4668,1895
4669,1863
4670,1861
4671,1883
4672,1885
4673,1866
4674,1855
4675,1842
4676,1847
4677,1827
4678,1811
4679,1825
4680,1822
4681,1862
4682,1851
4683,1889
4684,1883
4685,1869
4686,1854
4687,1861
4688,1887
4689,1875
4690,1855
4691,1850
4692,1872
4693,1862
4694,1826
4695,1821
4696,1832
4697,1865
4698,1850
4699,1855
4700,1869
4701,1890
4702,1870
4703,1858
4704,1864
4705,1891
4706,1872
4707,1846
4708,1821
4709,1876
4710,1839
4711,1826
4712,1827
4713,1825
4714,1868
4715,1856
4716,1845
4717,1868
4718,1872
4719,1861
4720,1859
4721,1873
4722,1904
4723,1867
4724,1852
4725,1872
4726,1871
4727,1833
4728,1825
4729,1829
4730,1842
4731,1861
4732,1849
4733,1844
4734,1878
4735,1866
4736,1857
4737,1854
4738,1885
4739,1903
4740,1845
4741,1850
4742,1870
4743,1859
4744,1829
4745,1821
4746,1839
4747,1855
4748,1853
4749,1846
4750,1863
4751,1894
4752,1863
4753,1859
4754,1861
4755,1883
4756,1874
4757,1853
4758,1824
4759,1840
4760,1841
4761,1825
4762,1825
4763,1839
4764,1856
4765,1840
4766,1851
4767,1857
4768,1872
4769,1871
4770,1872
4771,1879
4772,1893
4773,1869
4774,1855
4775,1856
4776,1853
4777,1859
4778,1856
4779,1853
4780,1861
4781,1843
4782,1829
4783,1827
4784,1879
4785,1856
4786,1826
4787,1814
4788,1847
4789,1869
4790,1846
4791,1840
4792,1843
4793,999
4794,1872
4795,1968
4796,2180
4797,2356
4798,2459
4799,2434
4800,2210
4801,2067
4802,1984
4803,1619
4804,1474
4805,1587
4806,1703
4807,1809
4808,1869
4809,1840
4810,1769
4811,1698
4812,1670
4813,1671
4814,1680
4815,1643
4816,1631
4817,1679
4818,1709
4819,1746
4820,1791
4821,1839
4822,1866
4823,1856
4824,875
4825,1870
4826,1990
4827,2149
4828,2327
4829,2460
4830,2419
4831,2207
4832,2046
4833,1939
4834,1565
4835,1502
4836,1619
4837,1762
4838,1890
4839,1926
4840,1865
4841,1795
4842,1793
4843,1678
4844,1612
4845,1596
4846,1619
4847,1680
4848,1737
4849,1776
4850,1830
4851,1845
4852,1843
4853,1862
4854,1883
4855,948
4856,1845
4857,1939
4858,2194
4859,2402
4860,2533
4861,2388
4862,2075
4863,1859
4864,1594
4865,1471
4866,1762
4867,1878
4868,1888
4869,1920
4870,1911
4871,1898
4872,1877
4873,1732
4874,1663
4875,1642
4876,1628
4877,1623
4878,1667
4879,1728
4880,1792
4881,1827
4882,1836
4883,1871
4884,1911
4885,1899
4886,1619
4887,1747
4888,1925
4889,2025
4890,2192
4891,2346
4892,2260
4893,2025
4894,1761
4895,1462
4896,1976
4897,2219
4898,2012
4899,1978
4900,1978
4901,1959
4902,1875
4903,1777
4904,1680
4905,1664
4906,1616
4907,1595
4908,1642
4909,1728
4910,1755
4911,1776
4912,1791
4913,1822
4914,1878
4915,1872
4916,1888
4917,2507
4918,1628
4919,1895
4920,1928
4921,2107
4922,2251
4923,2114
4924,1942
4925,1695
4926,1745
4927,2362
4928,2224
4929,2106
4930,2062
4931,2013
4932,1951
4933,1888
4934,1793
4935,1693
4936,1603
4937,1562
4938,1606
4939,1694
4940,1712
4941,1748
4942,1809
4943,1819
4944,1835
4945,1849
4946,1851
4947,1873
4948,2654
4949,1342
4950,1902
4951,1889
4952,1948
4953,1947
4954,1845
4955,1807
4956,1535
4957,2354
4958,2701
4959,2353
4960,2160
4961,2071
4962,2000
4963,1966
4964,1872
4965,1744
4966,1636
4967,1582
4968,1590
4969,1594
4970,1669
4971,1754
4972,1786
4973,1818
4974,1837
4975,1892
4976,1903
4977,1858
4978,1855
4979,2027
4980,1210
4981,1879
4982,1810
4983,1856
4984,1818
4985,1710
4986,1739
4987,1936
4988,2894
4989,2603
4990,2256
4991,2128
4992,2085
4993,2021
4994,1939
4995,1817
4996,1667
4997,1594
4998,1527
4999,1533
5000,1614
5001,1707
5002,1761
5003,1791
5004,1838
5005,1834
5006,1883
5007,1882
5008,1882
5009,1910
5010,1883
5011,956
5012,1856
5013,1762
5014,1763
5015,1584
5016,1486
5017,1795
5018,2719
5019,2966
5020,2401
5021,2163
5022,2156
5023,2099
5024,2037
5025,1966
5026,1808
5027,1623
5028,1494
5029,1492
5030,1497
5031,1616
5032,1677
5033,1731
5034,1860
5035,1858
5036,1849
5037,1873
5038,1902
5039,1917
5040,1882
5041,1891
5042,704
5043,1829
5044,1781
5045,1674
5046,1438
5047,1390
5048,1997
5049,3133
5050,2731
5051,2204
5052,2096
5053,2132
5054,2112
5055,2055
5056,1954
5057,1765
5058,1596
5059,1488
5060,1511
5061,1570
5062,1659
5063,1721
5064,1779
5065,1790
5066,1773
5067,1843
5068,1877
5069,1873
5070,1882
5071,1917
5072,1951
5073,689
5074,1816
5075,1815
5076,1715
5077,1412
5078,1377
5079,2370
5080,3254
5081,2480
5082,2073
5083,2059
5084,2112
5085,2091
5086,2015
5087,1875
5088,1712
5089,1575
5090,1467
5091,1491
5092,1603
5093,1657
5094,1692
5095,1726
5096,1776
5097,1887
5098,1887
5099,1892
5100,1918
5101,1894
5102,1910
5103,1904
5104,770
5105,1748
5106,1849
5107,1649
5108,1344
5109,1307
5110,2463
5111,3253
5112,2436
5113,2056
5114,2114
5115,2109
5116,2090
5117,2017
5118,1903
5119,1674
5120,1511
5121,1472
5122,1526
5123,1619
5124,1676
5125,1777
5126,1779
5127,1789
5128,1813
5129,1839
5130,1865
5131,1895
5132,1879
5133,1893
5134,1946
5135,1391
5136,1666
5137,1830
5138,1634
5139,1328
5140,1220
5141,2525
5142,3375
5143,2559
5144,2125
5145,2096
5146,2114
5147,2101
5148,2008
5149,1835
5150,1617
5151,1486
5152,1452
5153,1513
5154,1637
5155,1746
5156,1835
5157,1839
5158,1783
5159,1769
5160,1817
5161,1833
5162,1848
5163,1872
5164,1891
5165,1888
5166,2398
5167,1573
5168,1872
5169,1648
5170,1331
5171,1154
5172,2533
5173,3405
5174,2543
5175,2147
5176,2128
5177,2123
5178,2102
5179,1984
5180,1769
5181,1596
5182,1434
5183,1449
5184,1585
5185,1630
5186,1683
5187,1755
5188,1845
5189,1881
5190,1877
5191,1874
5192,1894
5193,1892
5194,1872
5195,1866
5196,1865
5197,2768
5198,1389
5199,1869
5200,1678
5201,1392
5202,1143
5203,2494
5204,3533
5205,2615
5206,2166
5207,2101
5208,2128
5209,2119
5210,1965
5211,1731
5212,1509
5213,1395
5214,1458
5215,1523
5216,1643
5217,1759
5218,1802
5219,1844
5220,1868
5221,1799
5222,1851
5223,1871
5224,1876
5225,1882
5226,1891
5227,1872
5228,2126
5229,1204
5230,1887
5231,1669
5232,1331
5233,1136
5234,2456
5235,3677
5236,2603
5237,2149
5238,2149
5239,2176
5240,2085
5241,1947
5242,1793
5243,1509
5244,1363
5245,1405
5246,1493
5247,1622
5248,1693
5249,1744
5250,1835
5251,1861
5252,1875
5253,1879
5254,1872
5255,1949
5256,1917
5257,1895
5258,1894
5259,1926
5260,1035
5261,1842
5262,1653
5263,1360
5264,1136
5265,2354
5266,3815
5267,2669
5268,2155
5269,2084
5270,2129
5271,2101
5272,1991
5273,1734
5274,1471
5275,1353
5276,1465
5277,1508
5278,1588
5279,1648
5280,1744
5281,1815
5282,1837
5283,1863
5284,1886
5285,1895
5286,1894
5287,1901
5288,1907
5289,1904
5290,1895
5291,836
5292,1856
5293,1718
5294,1377
5295,1040
5296,2131
5297,3835
5298,2737
5299,2176
5300,2143
5301,2175
5302,2117
5303,1971
5304,1732
5305,1491
5306,1396
5307,1406
5308,1506
5309,1609
5310,1695
5311,1724
5312,1766
5313,1810
5314,1865
5315,1858
5316,1875
5317,1893
5318,1922
5319,1901
5320,1902
5321,1906
5322,762
5323,1819
5324,1729
5325,1386
5326,1162
5327,1965
5328,3712
5329,2802
5330,2177
5331,2082
5332,2117
5333,2118
5334,2016
5335,1786
5336,1513
5337,1371
5338,1423
5339,1530
5340,1597
5341,1663
5342,1745
5343,1797
5344,1808
5345,1830
5346,1840
5347,1898
5348,1904
5349,1901
5350,1892
5351,1933
5352,1910
5353,722
5354,1773
5355,1773
5356,1499
5357,1088
5358,1741
5359,3572
5360,2948
5361,2176
5362,2035
5363,2113
5364,2141
5365,2005
5366,1805
5367,1514
5368,1418
5369,1406
5370,1488
5371,1573
5372,1686
5373,1727
5374,1793
5375,1861
5376,1886
5377,1855
5378,1851
5379,1850
5380,1851
5381,1904
5382,1890
5383,1890
5384,1246
5385,1678
5386,1808
5387,1526
5388,1184
5389,1588
5390,3475
5391,3118
5392,2267
5393,2079
5394,2116
5395,2108
5396,2011
5397,1847
5398,1600
5399,1405
5400,1379
5401,1491
5402,1595
5403,1660
5404,1689
5405,1821
5406,1842
5407,1853
5408,1866
5409,1923
5410,1877
5411,1852
5412,1859
5413,1879
5414,1904
5415,1887
5416,1890
5417,1909
5418,1941
5419,1887
5420,1879
5421,1885
5422,1894
5423,1882
5424,1863
5425,1849
5426,1866
5427,1855
5428,1823
5429,1821
5430,1846
5431,1871
5432,1857
5433,1859
5434,1879
5435,1872
5436,1857
5437,1859
5438,1882
5439,1895
5440,1863
5441,1853
5442,1877
5443,1857
5444,1838
5445,1827
5446,1856
5447,1855
5448,1862
5449,1854
5450,1862
5451,1856
5452,1861
5453,1855
5454,1856
5455,1872
5456,1872
5457,1854
5458,1855
5459,1863
5460,1845
5461,1836
5462,1831
5463,1819
5464,1855
5465,1847
5466,1840
5467,1845
5468,1869
5469,1866
5470,1866
5471,1861
5472,1878
5473,1867
5474,1851
5475,1856
5476,1851
5477,1838
5478,1822
5479,1838
5480,1839
5481,1863
5482,1848
5483,1855
5484,1874
5485,1863
5486,1854
5487,1851
5488,1854
5489,1888
5490,1858
5491,1844
5492,1850
5493,1852
5494,1828
5495,1823
5496,1799
5497,1840
5498,1855
5499,1847
5500,1846
5501,1899
5502,1867
5503,1855
5504,1873
5505,1891
5506,1876
5507,1853
5508,1854
5509,1884
5510,1847
5511,1828
5512,1835
5513,1823
5514,1848
5515,1840
5516,1845
5517,1855
5518,1886
5519,1858
5520,1854
5521,1883
5522,1867
5523,1872
5524,1848
5525,1867
5526,1830
5527,1840
5528,1827
5529,1837
5530,1859
5531,1869
5532,1851
5533,1856
5534,1895
5535,1872
5536,1866
5537,1863
5538,1887
5539,1872
5540,1861
5541,1850
5542,1853
5543,1879
5544,1837
5545,1828
5546,1837
5547,1890
5548,1854
5549,1847
5550,1894
5551,1894
5552,1875
5553,1869
5554,1872
5555,1872
5556,1891
5557,1863
5558,1855
5559,1875
5560,1858
5561,1845
5562,1838
5563,1843
5564,1888
5565,1856
5566,1862
5567,1855
5568,1892
5569,1875
5570,1870
5571,1877
5572,1874
5573,1872
5574,1853
5575,1854
5576,1858
5577,1840
5578,1825
5579,1834
5580,1856
5581,1870
5582,1856
5583,1872
5584,1886
5585,1885
5586,1872
5587,1869
5588,1891
5589,1890
5590,1871
5591,1857
5592,1883
5593,1871
5594,1829
5595,1830
5596,1823
5597,1855
5598,1863
5599,1854
5600,1857
5601,1873
5602,1867
5603,1862
5604,1862
5605,1874
5606,1884
5607,1859
5608,1856
5609,1872
5610,1857
5611,1838
5612,1831
5613,1836
5614,1861
5615,1856
5616,1853
5617,1870
5618,1860
5619,1869
5620,1863
5621,1872
5622,1931
5623,1872
5624,1858
5625,1857
5626,1865
5627,1846
5628,1828
5629,1820
5630,1867
5631,1867
5632,1855
5633,1874
5634,1891
5635,1876
5636,1871
5637,1875
5638,1902
5639,1872
5640,1869
5641,1872
5642,1884
5643,1890
5644,1854
5645,1847
5646,1857
5647,1895
5648,1875
5649,1872
5650,1881
5651,1875
5652,1872
5653,1869
5654,1871
5655,1871
5656,1872
5657,1843
5658,1840
5659,1840
5660,1843
5661,1822
5662,1821
5663,1830
5664,1856
5665,1842
5666,1840
5667,1855
5668,1854
5669,1843
5670,1839
5671,1871
5672,1872
5673,1860
5674,1847
5675,1840
5676,1838
5677,1826
5678,1816
5679,1822
5680,1870
5681,1856
5682,1840
5683,1844
5684,1856
5685,1867
5686,1856
5687,1857
5688,1872
5689,1891
5690,1861
5691,1845
5692,1879
5693,1840
5694,1826
5695,1809
5696,1814
5697,1840
5698,1845
5699,1845
5700,1838
5701,1859
5702,1857
5703,1847
5704,1861
5705,1871
5706,1872
5707,1840
5708,1841
5709,1848
5710,1841
5711,1813
5712,1809
5713,1819
5714,1845
5715,1840
5716,1837
5717,1872
5718,1882
5719,1859
5720,1855
5721,1858
5722,1865
5723,1858
5724,1840
5725,1863
5726,1851
5727,1809
5728,1791
5729,1783
5730,1794
5731,1825
5732,1805
5733,1817
5734,1852
5735,1859
5736,1856
5737,1861
5738,1878
5739,1898
5740,1875
5741,1864
5742,1883
5743,1872
5744,1852
5745,1839
5746,1844
5747,1839
5748,1874
5749,1873
5750,1899
5751,1917
5752,1897
5753,1888
5754,1904
5755,1911
5756,1917
5757,1874
5758,1878
5759,1904
5760,1900
5761,1883
5762,1883
5763,1905
5764,1894
5765,1899
5766,1904
5767,1905
5768,1914
5769,1913
5770,1907
5771,1908
5772,1904
5773,1916
5774,1903
5775,1902
5776,1906
5777,1883
5778,1857
5779,1862
5780,1861
5781,1875
5782,1857
5783,1859
5784,1862
5785,1871
5786,1854
5787,1849
5788,1874
5789,1861
5790,1857
5791,1841
5792,1840
5793,1839
5794,1808
5795,1806
5796,1839
5797,1840
5798,1840
5799,1849
5800,1840
5801,1847
5802,1840
5803,1835
5804,1829
5805,1852
5806,1857
5807,1827
5808,1821
5809,1857
5810,1822
5811,1805
5812,1801
5813,1807
5814,1834
5815,1820
5816,1822
5817,1831
5818,1856
5819,1837
5820,1837
5821,1840
5822,1858
5823,1850
5824,1829
5825,1830
5826,1817
5827,1823
5828,1805
5829,1791
5830,1813
5831,1855
5832,1831
5833,1843
5834,1858
5835,1869
5836,1856
5837,1854
5838,1872
5839,1885
5840,1858
5841,1843
5842,1851
5843,1862
5844,1822
5845,1814
5846,1825
5847,1823
5848,1849
5849,1840
5850,1856
5851,1881
5852,1866
5853,1856
5854,1855
5855,1887
5856,1880
5857,1847
5858,1838
5859,1856
5860,1840
5861,1815
5862,1810
5863,1840
5864,1847
5865,1840
5866,1831
5867,1850
5868,1853
5869,1853
5870,1856
5871,1856
5872,1862
5873,1872
5874,1855
5875,1881
5876,1851
5877,1840
5878,1824
5879,1833
5880,1814
5881,1846
5882,1856
5883,1863
5884,1886
5885,1881
5886,1872
5887,1872
5888,1883
5889,1904
5890,1873
5891,1856
5892,1899
5893,1827
5894,1839
5895,1831
5896,1840
5897,1872
5898,1870
5899,1854
5900,1906
5901,1901
5902,1872
5903,1862
5904,1870
5905,1892
5906,1904
5907,1856
5908,1851
5909,1866
5910,1846
5911,1822
5912,1818
5913,1834
5914,1857
5915,1846
5916,1840
5917,1872
5918,1847
5919,1857
5920,1856
5921,1838
5922,1877
5923,1870
5924,1849
5925,1863
5926,1870
5927,1837
5928,1814
5929,1801
5930,1863
5931,1872
5932,1844
5933,1845
5934,1881
5935,1884
5936,1853
5937,1853
5938,1859
5939,1905
5940,1851
5941,1841
5942,1861
5943,1862
5944,1821
5945,1814
5946,1822
5947,1853
5948,1855
5949,1841
5950,1857
5951,1900
5952,1872
5953,1860
5954,1862
5955,1877
5956,1883
5957,1855
5958,1856
5959,1879
5960,1849
5961,1822
5962,1818
5963,1833
5964,1909
5965,1840
5966,1842
5967,1851
5968,1862
5969,1856
5970,1858
5971,1865
5972,1887
5973,1878
5974,1856
5975,1862
5976,1833
5977,1841
5978,1821
5979,1824
5980,1830
5981,1868
5982,1846
5983,1854
5984,1893
5985,1874
5986,1861
5987,1862
5988,1861
5989,1886
5990,1868
5991,1853
5992,1862
5993,1863
5994,1833
5995,1817
5996,1815
5997,1843
5998,1854
5999,1857
6000,1843
6001,1885
6002,1872
6003,1862
6004,1863
6005,1885
6006,1885
6007,1851
6008,1840
6009,1873
6010,1854
6011,1827
6012,1822
6013,1808
6014,1855
6015,1847
6016,1851
6017,1846
6018,1860
6019,1870
6020,1859
6021,1858
6022,1885
6023,1874
6024,1847
6025,1840
6026,1857
6027,1834
6028,1811
6029,1821
6030,1835
6031,1868
6032,1849
6033,1857
6034,1879
6035,1878
6036,1858
6037,1863
6038,1887
6039,1888
6040,1866
6041,1851
6042,1862
6043,1853
6044,1835
6045,1821
6046,1840
6047,1840
6048,1860
6049,1849
6050,1841
6051,1861
6052,1871
6053,1863
6054,1860
6055,1885
6056,1870
6057,1849
6058,1842
6059,1866
6060,1840
6061,1826
6062,1823
6063,1839
6064,1859
6065,1856
6066,1851
6067,1893
6068,1883
6069,1869
6070,1862
6071,1872
6072,1872
6073,1875
6074,1855
6075,1875
6076,1862
6077,1842
6078,1827
6079,1826
6080,1819
6081,1837
6082,1850
6083,1856
6084,1883
6085,1872
6086,1856
6087,1856
6088,1858
6089,1938
6090,1867
6091,1847
6092,1847
6093,1872
6094,1833
6095,1825
6096,1821
6097,1816
6098,1861
6099,1846
6100,1872
6101,1855
6102,1870
6103,1860
6104,1862
6105,1888
6106,1889
6107,1856
6108,1851
6109,1854
6110,1841
6111,1824
6112,1823
6113,1819
6114,1866
6115,1847
6116,1831
6117,1872
6118,1863
6119,1858
6120,1854
6121,1857
6122,1872
6123,1878
6124,1856
6125,1827
6126,1852
6127,1840
6128,1818
6129,1824
6130,1867
6131,1857
6132,1843
6133,1855
6134,1895
6135,1866
6136,1860
6137,1869
6138,1883
6139,1915
6140,1866
6141,1856
6142,1845
6143,1857
6144,1834
6145,1821
6146,1827
6147,1850
6148,1855
6149,1842
6150,1853
6151,1904
6152,1872
6153,1861
6154,1860
6155,1882
6156,1878
6157,1859
6158,1851
6159,1879
6160,1872
6161,1827
6162,1823
6163,1817
6164,1902
6165,1856
6166,1858
6167,1883
6168,1922
6169,1871
6170,1867
6171,1871
6172,1904
6173,1878
6174,1852
6175,1838
6176,1841
6177,1839
6178,1821
6179,1824
6180,1840
6181,1837
6182,1851
6183,1854
6184,1893
6185,1874
6186,1860
6187,1863
6188,1877
6189,1870
6190,1872
6191,1850
6192,1844
6193,1830
6194,1831
6195,1823
6196,1818
6197,1809
6198,1863
6199,1846
6200,1859
6201,1872
6202,1872
6203,1861
6204,1861
6205,1875
6206,1910
6207,1855
6208,1847
6209,1840
6210,1840
6211,1825
6212,1821
6213,1829
6214,1838
6215,1851
6216,1858
6217,1890
6218,1867
6219,1868
6220,1867
6221,1873
6222,1865
6223,1881
6224,1856
6225,1853
6226,1856
6227,1842
6228,1826
6229,1826
6230,1828
6231,1873
6232,1844
6233,1840
6234,1878
6235,1894
6236,1858
6237,1856
6238,1850
6239,1907
6240,1857
6241,1849
6242,1836
6243,1849
6244,1833
6245,1823
6246,1825
6247,1887
6248,1859
6249,1841
6250,1851
6251,1858
6252,1872
6253,1863
6254,1863
6255,1889
6256,1877
6257,1860
6258,1855
6259,1846
6260,1856
6261,1829
6262,1825
6263,1869
6264,1863
6265,1845
6266,1844
6267,1858
6268,1897
6269,1863
6270,1859
6271,1859
6272,1858
6273,1878
6274,1850
6275,1861
6276,1887
6277,1842
6278,1825
6279,1820
6280,1855
6281,1872
6282,1850
6283,1859
6284,1878
6285,1874
6286,1863
6287,1859
6288,1867
6289,1903
6290,1867
6291,1855
6292,1851
6293,1848
6294,1835
6295,1815
6296,1837
6297,1842
6298,1855
6299,1851
6300,1853
6301,1907
6302,1872
6303,1862
6304,1864
6305,1878
6306,1890
6307,1861
6308,1855
6309,1872
6310,1846
6311,1829
6312,1825
6313,1859
6314,1862
6315,1851
6316,1855
6317,1883
6318,1893
6319,1863
6320,1862
6321,1870
6322,1875
6323,1879
6324,1856
6325,1837
6326,1839
6327,1839
6328,1818
6329,1814
6330,1808
6331,1860
6332,1854
6333,1856
6334,1921
6335,1872
6336,1865
6337,1866
6338,1872
6339,1889
6340,1865
6341,1845
6342,1866
6343,1853
6344,1838
6345,1828
6346,1825
6347,1861
6348,1872
6349,1861
6350,1853
6351,1885
6352,1889
6353,1875
6354,1872
6355,1873
6356,1879
6357,1825
6358,1813
6359,1882
6360,1839
6361,1825
6362,1822
6363,1826
6364,1858
6365,1856
6366,1859
6367,1862
6368,1878
6369,1877
6370,1873
6371,1886
6372,1894
6373,1878
6374,1855
6375,1840
6376,1855
6377,1840
6378,1818
6379,1822
6380,1821
6381,1861
6382,1853
6383,1853
6384,1904
6385,1875
6386,1856
6387,1855
6388,1856
6389,1912
6390,1872
6391,1861
6392,1872
6393,1872
6394,1866
6395,1870
6396,1904
6397,1904
6398,1907
6399,1885
6400,1858
6401,1922
6402,1857
6403,1787
6404,1776
6405,1835
6406,1889
6407,1889
6408,1879
6409,1939
6410,1858
6411,1092
6412,1865
6413,1931
6414,2135
6415,2274
6416,2373
6417,2353
6418,2246
6419,2128
6420,2066
6421,1715
6422,1488
6423,1522
6424,1648
6425,1793
6426,1845
6427,1808
6428,1748
6429,1744
6430,1744
6431,1741
6432,1685
6433,1661
6434,1694
6435,1712
6436,1691
6437,1646
6438,1728
6439,1855
6440,1829
6441,1842
6442,978
6443,1860
6444,1962
6445,2160
6446,2290
6447,2416
6448,2349
6449,2139
6450,2035
6451,1982
6452,1649
6453,1520
6454,1603
6455,1791
6456,1906
6457,1901
6458,1866
6459,1842
6460,1743
6461,1648
6462,1609
6463,1595
6464,1634
6465,1687
6466,1735
6467,1790
6468,1819
6469,1843
6470,1853
6471,1875
6472,1907
6473,1175
6474,1856
6475,1936
6476,2078
6477,2225
6478,2340
6479,2257
6480,2014
6481,1931
6482,1679
6483,1713
6484,1973
6485,1922
6486,1923
6487,1938
6488,1934
6489,1949
6490,1810
6491,1724
6492,1711
6493,1631
6494,1595
6495,1610
6496,1658
6497,1730
6498,1795
6499,1809
6500,1846
6501,1872
6502,1897
6503,1896
6504,1811
6505,1762
6506,1958
6507,2015
6508,2191
6509,2336
6510,2211
6511,1958
6512,1687
6513,1525
6514,2153
6515,2111
6516,2000
6517,2032
6518,1967
6519,1936
6520,1867
6521,1791
6522,1695
6523,1643
6524,1585
6525,1594
6526,1642
6527,1709
6528,1739
6529,1761
6530,1774
6531,1840
6532,1867
6533,1872
6534,1889
6535,2635
6536,1611
6537,1901
6538,1955
6539,2110
6540,2126
6541,2000
6542,1947
6543,1639
6544,1923
6545,2343
6546,2190
6547,2081
6548,2063
6549,2001
6550,1963
6551,1899
6552,1796
6553,1680
6554,1606
6555,1587
6556,1697
6557,1665
6558,1712
6559,1789
6560,1815
6561,1801
6562,1821
6563,1845
6564,1934
6565,1887
6566,2495
6567,1427
6568,1888
6569,1874
6570,1950
6571,1909
6572,1856
6573,1846
6574,1729
6575,2499
6576,2470
6577,2231
6578,2115
6579,2045
6580,1988
6581,1970
6582,1847
6583,1717
6584,1663
6585,1612
6586,1587
6587,1637
6588,1715
6589,1749
6590,1757
6591,1785
6592,1882
6593,1876
6594,1856
6595,1855
6596,1846
6597,1946
6598,1253
6599,1889
6600,1829
6601,1840
6602,1709
6603,1602
6604,1731
6605,2379
6606,2832
6607,2405
6608,2164
6609,2141
6610,2101
6611,2018
6612,1930
6613,1823
6614,1744
6615,1598
6616,1533
6617,1584
6618,1718
6619,1745
6620,1771
6621,1763
6622,1783
6623,1821
6624,1852
6625,1872
6626,1890
6627,1872
6628,1856
6629,979
6630,1868
6631,1821
6632,1733
6633,1524
6634,1514
6635,2046
6636,2897
6637,2624
6638,2236
6639,2177
6640,2128
6641,2083
6642,2030
6643,1933
6644,1762
6645,1607
6646,1513
6647,1499
6648,1584
6649,1621
6650,1680
6651,1736
6652,1799
6653,1840
6654,1858
6655,1882
6656,1920
6657,1887
6658,1884
6659,1889
6660,843
6661,1823
6662,1758
6663,1614
6664,1421
6665,1446
6666,2413
6667,3097
6668,2509
6669,2102
6670,2097
6671,2150
6672,2106
6673,2037
6674,1891
6675,1734
6676,1601
6677,1499
6678,1488
6679,1575
6680,1658
6681,1755
6682,1754
6683,1765
6684,1826
6685,1867
6686,1872
6687,1881
6688,1894
6689,1905
6690,1910
6691,758
6692,1821
6693,1791
6694,1599
6695,1296
6696,1398
6697,2654
6698,3143
6699,2384
6700,2123
6701,2144
6702,2151
6703,2093
6704,2001
6705,1857
6706,1703
6707,1526
6708,1471
6709,1535
6710,1607
6711,1639
6712,1689
6713,1767
6714,1835
6715,1838
6716,1847
6717,1872
6718,1904
6719,1891
6720,1893
6721,1889
6722,946
6723,1737
6724,1811
6725,1584
6726,1319
6727,1345
6728,2778
6729,3166
6730,2414
6731,2161
6732,2134
6733,2131
6734,2135
6735,2000
6736,1799
6737,1591
6738,1477
6739,1470
6740,1532
6741,1619
6742,1701
6743,1778
6744,1782
6745,1751
6746,1815
6747,1849
6748,1891
6749,1886
6750,1892
6751,1927
6752,1926
6753,1342
6754,1725
6755,1877
6756,1676
6757,1296
6758,1424
6759,3001
6760,3149
6761,2347
6762,2097
6763,2112
6764,2113
6765,2069
6766,1914
6767,1687
6768,1527
6769,1422
6770,1450
6771,1535
6772,1661
6773,1759
6774,1805
6775,1845
6776,1866
6777,1775
6778,1782
6779,1830
6780,1870
6781,1923
6782,1889
6783,1894
6784,2666
6785,1578
6786,1840
6787,1598
6788,1269
6789,1329
6790,2773
6791,3365
6792,2549
6793,2210
6794,2132
6795,2106
6796,2032
6797,1859
6798,1682
6799,1440
6800,1362
6801,1487
6802,1557
6803,1622
6804,1698
6805,1770
6806,1881
6807,1854
6808,1857
6809,1869
6810,1873
6811,1867
6812,1872
6813,1883
6814,1894
6815,2593
6816,1419
6817,1863
6818,1641
6819,1294
6820,1194
6821,2769
6822,3487
6823,2581
6824,2175
6825,2134
6826,2155
6827,2077
6828,1875
6829,1633
6830,1407
6831,1383
6832,1419
6833,1520
6834,1616
6835,1695
6836,1725
6837,1804
6838,1919
6839,1919
6840,1893
6841,1890
6842,1925
6843,1929
6844,1891
6845,1867
6846,2174
6847,1232
6848,1857
6849,1641
6850,1305
6851,1237
6852,2761
6853,3527
6854,2518
6855,2202
6856,2167
6857,2156
6858,2079
6859,1905
6860,1664
6861,1361
6862,1295
6863,1387
6864,1535
6865,1626
6866,1683
6867,1773
6868,1867
6869,1867
6870,1874
6871,1904
6872,1936
6873,1931
6874,1904
6875,1907
6876,1905
6877,1899
6878,980
6879,1840
6880,1655
6881,1376
6882,1133
6883,2459
6884,3674
6885,2654
6886,2192
6887,2135
6888,2175
6889,2106
6890,1927
6891,1650
6892,1424
6893,1392
6894,1385
6895,1475
6896,1590
6897,1675
6898,1767
6899,1809
6900,1853
6901,1893
6902,1908
6903,1904
6904,1907
6905,1927
6906,1925
6907,1907
6908,1892
6909,855
6910,1867
6911,1677
6912,1335
6913,1087
6914,2251
6915,3664
6916,2746
6917,2244
6918,2193
6919,2192
6920,2117
6921,1936
6922,1729
6923,1479
6924,1328
6925,1364
6926,1499
6927,1597
6928,1637
6929,1713
6930,1794
6931,1855
6932,1863
6933,1901
6934,1927
6935,1946
6936,1902
6937,1904
6938,1913
6939,1958
6940,779
6941,1823
6942,1716
6943,1459
6944,1089
6945,1997
6946,3583
6947,2870
6948,2244
6949,2078
6950,2146
6951,2155
6952,2000
6953,1746
6954,1465
6955,1302
6956,1424
6957,1484
6958,1563
6959,1632
6960,1739
6961,1767
6962,1808
6963,1840
6964,1875
6965,1887
6966,1882
6967,1920
6968,1930
6969,1907
6970,1899
6971,906
6972,1755
6973,1795
6974,1473
6975,1104
6976,1759
6977,3510
6978,2960
6979,2269
6980,2131
6981,2192
6982,2155
6983,2035
6984,1831
6985,1535
6986,1369
6987,1371
6988,1485
6989,1590
6990,1677
6991,1725
6992,1748
6993,1829
6994,1835
6995,1840
6996,1857
6997,1872
6998,1905
6999,1889
7000,1899
7001,1893
7002,1621
7003,1663
7004,1809
7005,1530
7006,1187
7007,1599
7008,3287
7009,3130
7010,2313
7011,2070
7012,2112
7013,2129
7014,2062
7015,1847
7016,1535
7017,1392
7018,1390
7019,1461
7020,1535
7021,1648
7022,1750
7023,1840
7024,1857
7025,1846
7026,1840
7027,1845
7028,1850
7029,1854
7030,1852
7031,1927
7032,1887
7033,1887
7034,1889
7035,1909
7036,1904
7037,1893
7038,1895
7039,1900
7040,1883
7041,1854
7042,1855
7043,1879
7044,1857
7045,1842
7046,1813
7047,1866
7048,1861
7049,1847
7050,1861
7051,1879
7052,1876
7053,1861
7054,1861
7055,1897
7056,1906
7057,1861
7058,1851
7059,1871
7060,1889
7061,1840
7062,1830
7063,1837
7064,1860
7065,1854
7066,1859
7067,1840
7068,1857
7069,1871
7070,1866
7071,1874
7072,1910
7073,1883
7074,1855
7075,1840
7076,1841
7077,1846
7078,1820
7079,1823
7080,1853
7081,1836
7082,1859
7083,1856
7084,1885
7085,1903
7086,1865
7087,1859
7088,1883
7089,1902
7090,1871
7091,1852
7092,1841
7093,1871
7094,1843
7095,1830
7096,1821
7097,1808
7098,1862
7099,1849
7100,1856
7101,1854
7102,1870
7103,1852
7104,1853
7105,1859
7106,1902
7107,1847
7108,1835
7109,1854
7110,1867
7111,1825
7112,1818
7113,1850
7114,1834
7115,1852
7116,1859
7117,1834
7118,1870
7119,1871
7120,1858
7121,1859
7122,1871
7123,1882
7124,1855
7125,1846
7126,1868
7127,1843
7128,1824
7129,1822
7130,1837
7131,1862
7132,1843
7133,1852
7134,1857
7135,1904
7136,1860
7137,1855
7138,1876
7139,1856
7140,1866
7141,1849
7142,1840
7143,1872
7144,1840
7145,1826
7146,1831
7147,1824
7148,1863
7149,1851
7150,1855
7151,1858
7152,1877
7153,1863
7154,1860
7155,1880
7156,1933
7157,1861
7158,1845
7159,1871
7160,1870
7161,1838
7162,1829
7163,1836
7164,1819
7165,1859
7166,1841
7167,1855
7168,1870
7169,1872
7170,1858
7171,1862
7172,1904
7173,1885
7174,1862
7175,1854
7176,1846
7177,1861
7178,1827
7179,1826
7180,1834
7181,1846
7182,1850
7183,1853
7184,1867
7185,1901
7186,1870
7187,1862
7188,1863
7189,1914
7190,1874
7191,1854
7192,1858
7193,1863
7194,1843
7195,1825
7196,1828
7197,1810
7198,1856
7199,1856
7200,1856
7201,1899
7202,1870
7203,1869
7204,1867
7205,1873
7206,1904
7207,1870
7208,1855
7209,1872
7210,1870
7211,1843
7212,1837
7213,1825
7214,1904
7215,1861
7216,1847
7217,1867
7218,1870
7219,1874
7220,1865
7221,1871
7222,1903
7223,1890
7224,1872
7225,1859
7226,1879
7227,1867
7228,1831
7229,1830
7230,1828
7231,1863
7232,1861
7233,1856
7234,1872
7235,1890
7236,1877
7237,1873
7238,1877
7239,1909
7240,1879
7241,1859
7242,1898
7243,1870
7244,1850
7245,1838
7246,1846
7247,1855
7248,1858
7249,1856
7250,1858
7251,1893
7252,1903
7253,1871
7254,1867
7255,1867
7256,1871
7257,1861
7258,1837
7259,1882
7260,1883
7261,1842
7262,1833
7263,1838
7264,1884
7265,1865
7266,1855
7267,1831
7268,1872
7269,1878
7270,1877
7271,1872
7272,1879
7273,1886
7274,1872
7275,1860
7276,1881
7277,1846
7278,1843
7279,1838
7280,1856
7281,1887
7282,1867
7283,1871
7284,1878
7285,1890
7286,1872
7287,1867
7288,1874
7289,1928
7290,1887
7291,1859
7292,1865
7293,1842
7294,1850
7295,1831
7296,1829
7297,1831
7298,1866
7299,1847
7300,1854
7301,1881
7302,1872
7303,1856
7304,1857
7305,1872
7306,1921
7307,1859
7308,1853
7309,1855
7310,1872
7311,1829
7312,1811
7313,1846
7314,1840
7315,1843
7316,1826
7317,1828
7318,1872
7319,1840
7320,1834
7321,1840
7322,1873
7323,1872
7324,1839
7325,1840
7326,1841
7327,1843
7328,1813
7329,1810
7330,1854
7331,1855
7332,1839
7333,1835
7334,1834
7335,1870
7336,1842
7337,1840
7338,1869
7339,1861
7340,1853
7341,1818
7342,1814
7343,1840
7344,1811
7345,1799
7346,1794
7347,1814
7348,1839
7349,1815
7350,1818
7351,1832
7352,1830
7353,1817
7354,1835
7355,1889
7356,1890
7357,1872
7358,1857
7359,1866
7360,1864
7361,1834
7362,1824
7363,1842
7364,1857
7365,1879
7366,1881
7367,1901
7368,1936
7369,1909
7370,1907
7371,1911
7372,1920
7373,1927
7374,1905
7375,1895
7376,1878
7377,1915
7378,1866
7379,1862
7380,1898
7381,1891
7382,1899
7383,1905
7384,1935
7385,1955
7386,1946
7387,1951
7388,1967
7389,1985
7390,1989
7391,1961
7392,1960
7393,1961
7394,1930
7395,1913
7396,1908
7397,1919
7398,1953
7399,1935
7400,1921
7401,1921
7402,1922
7403,1883
7404,1877
7405,1875
7406,1889
7407,1853
7408,1835
7409,1845
7410,1846
7411,1811
7412,1803
7413,1786
7414,1822
7415,1829
7416,1827
7417,1837
7418,1859
7419,1839
7420,1827
7421,1827
7422,1830
7423,1854
7424,1824
7425,1811
7426,1847
7427,1822
7428,1799
7429,1792
7430,1813
7431,1823
7432,1830
7433,1823
7434,1831
7435,1854
7436,1830
7437,1827
7438,1827
7439,1854
7440,1840
7441,1824
7442,1827
7443,1841
7444,1814
7445,1802
7446,1797
7447,1803
7448,1842
7449,1831
7450,1840
7451,1847
7452,1847
7453,1841
7454,1841
7455,1845
7456,1892
7457,1850
7458,1834
7459,1822
7460,1831
7461,1822
7462,1814
7463,1824
7464,1851
7465,1844
7466,1834
7467,1849
7468,1867
7469,1857
7470,1840
7471,1855
7472,1884
7473,1872
7474,1847
7475,1840
7476,1861
7477,1840
7478,1821
7479,1816
7480,1828
7481,1855
7482,1847
7483,1843
7484,1863
7485,1889
7486,1857
7487,1854
7488,1855
7489,1894
7490,1869
7491,1842
7492,1848
7493,1830
7494,1827
7495,1808
7496,1806
7497,1813
7498,1854
7499,1838
7500,1825
7501,1857
7502,1867
7503,1847
7504,1851
7505,1853
7506,1895
7507,1858
7508,1850
7509,1865
7510,1857
7511,1833
7512,1823
7513,1833
7514,1849
7515,1871
7516,1854
7517,1857
7518,1903
7519,1877
7520,1872
7521,1869
7522,1876
7523,1925
7524,1871
7525,1861
7526,1871
7527,1837
7528,1829
7529,1827
7530,1855
7531,1861
7532,1860
7533,1857
7534,1854
7535,1877
7536,1872
7537,1862
7538,1865
7539,1901
7540,1872
7541,1844
7542,1846
7543,1858
7544,1843
7545,1821
7546,1819
7547,1833
7548,1862
7549,1844
7550,1859
7551,1872
7552,1869
7553,1856
7554,1856
7555,1869
7556,1895
7557,1856
7558,1841
7559,1818
7560,1849
7561,1828
7562,1819
7563,1824
7564,1854
7565,1857
7566,1846
7567,1856
7568,1855
7569,1866
7570,1857
7571,1855
7572,1873
7573,1895
7574,1855
7575,1847
7576,1871
7577,1849
7578,1823
7579,1817
7580,1853
7581,1864
7582,1852
7583,1850
7584,1845
7585,1864
7586,1857
7587,1850
7588,1850
7589,1856
7590,1872
7591,1844
7592,1845
7593,1863
7594,1845
7595,1815
7596,1821
7597,1851
7598,1856
7599,1842
7600,1840
7601,1870
7602,1872
7603,1859
7604,1863
7605,1882
7606,1888
7607,1856
7608,1843
7609,1856
7610,1867
7611,1828
7612,1821
7613,1807
7614,1807
7615,1853
7616,1831
7617,1847
7618,1866
7619,1871
7620,1855
7621,1865
7622,1855
7623,1893
7624,1856
7625,1855
7626,1869
7627,1857
7628,1824
7629,1825
7630,1807
7631,1864
7632,1852
7633,1855
7634,1863
7635,1866
7636,1867
7637,1861
7638,1872
7639,1885
7640,1875
7641,1857
7642,1829
7643,1866
7644,1840
7645,1823
7646,1817
7647,1861
7648,1866
7649,1842
7650,1852
7651,1839
7652,1869
7653,1858
7654,1865
7655,1879
7656,1883
7657,1869
7658,1853
7659,1850
7660,1839
7661,1839
7662,1824
7663,1813
7664,1809
7665,1863
7666,1844
7667,1854
7668,1872
7669,1872
7670,1860
7671,1858
7672,1890
7673,1890
7674,1856
7675,1847
7676,1861
7677,1849
7678,1831
7679,1822
7680,1834
7681,1855
7682,1856
7683,1853
7684,1871
7685,1885
7686,1867
7687,1858
7688,1871
7689,1873
7690,1881
7691,1851
7692,1853
7693,1857
7694,1846
7695,1826
7696,1817
7697,1840
7698,1850
7699,1853
7700,1861
7701,1877
7702,1873
7703,1859
7704,1861
7705,1879
7706,1903
7707,1863
7708,1842
7709,1857
7710,1861
7711,1831
7712,1819
7713,1820
7714,1893
7715,1865
7716,1851
7717,1865
7718,1877
7719,1872
7720,1861
7721,1861
7722,1879
7723,1892
7724,1863
7725,1855
7726,1863
7727,1875
7728,1828
7729,1826
7730,1839
7731,1853
7732,1856
7733,1855
7734,1861
7735,1874
7736,1856
7737,1856
7738,1869
7739,1883
7740,1882
7741,1857
7742,1858
7743,1861
7744,1841
7745,1827
7746,1825
7747,1852
7748,1875
7749,1848
7750,1862
7751,1887
7752,1886
7753,1861
7754,1862
7755,1887
7756,1872
7757,1870
7758,1853
7759,1855
7760,1866
7761,1837
7762,1815
7763,1842
7764,1843
7765,1856
7766,1841
7767,1856
7768,1871
7769,1871
7770,1857
7771,1863
7772,1872
7773,1890
7774,1861
7775,1852
7776,1869
7777,1851
7778,1831
7779,1823
7780,1808
7781,1834
7782,1855
7783,1851
7784,1877
7785,1865
7786,1867
7787,1863
7788,1872
7789,1889
7790,1886
7791,1860
7792,1851
7793,1858
7794,1847
7795,1818
7796,1818
7797,1810
7798,1846
7799,1855
7800,1842
7801,1866
7802,1873
7803,1862
7804,1862
7805,1854
7806,1860
7807,1869
7808,1855
7809,1859
7810,1874
7811,1836
7812,1823
7813,1826
7814,1845
7815,1862
7816,1854
7817,1859
7818,1862
7819,1873
7820,1866
7821,1859
7822,1869
7823,1904
7824,1860
7825,1840
7826,1865
7827,1855
7828,1823
7829,1814
7830,1833
7831,1903
7832,1854
7833,1849
7834,1862
7835,1856
7836,1871
7837,1859
7838,1863
7839,1883
7840,1883
7841,1857
7842,1862
7843,1872
7844,1852
7845,1825
7846,1823
7847,1843
7848,1883
7849,1843
7850,1851
7851,1863
7852,1902
7853,1869
7854,1856
7855,1872
7856,1894
7857,1863
7858,1843
7859,1818
7860,1862
7861,1840
7862,1823
7863,1827
7864,1843
7865,1867
7866,1853
7867,1859
7868,1872
7869,1875
7870,1862
7871,1863
7872,1872
7873,1889
7874,1869
7875,1849
7876,1849
7877,1859
7878,1831
7879,1823
7880,1833
7881,1847
7882,1856
7883,1851
7884,1877
7885,1863
7886,1866
7887,1859
7888,1841
7889,1869
7890,1885
7891,1857
7892,1852
7893,1856
7894,1851
7895,1825
7896,1823
7897,1827
7898,1840
7899,1854
7900,1872
7901,1879
7902,1885
7903,1862
7904,1859
7905,1866
7906,1888
7907,1873
7908,1856
7909,1894
7910,1861
7911,1842
7912,1824
7913,1807
7914,1843
7915,1856
7916,1857
7917,1850
7918,1899
7919,1869
7920,1854
7921,1863
7922,1888
7923,1904
7924,1861
7925,1852
7926,1873
7927,1863
7928,1831
7929,1824
7930,1839
7931,1901
7932,1856
7933,1851
7934,1813
7935,1902
7936,1872
7937,1866
7938,1870
7939,1872
7940,1883
7941,1847
7942,1842
7943,1853
7944,1842
7945,1821
7946,1819
7947,1826
7948,1832
7949,1844
7950,1842
7951,1879
7952,1873
7953,1867
7954,1864
7955,1874
7956,1894
7957,1871
7958,1849
7959,1822
7960,1875
7961,1840
7962,1822
7963,1823
7964,1847
7965,1866
7966,1847
7967,1863
7968,1872
7969,1878
7970,1863
7971,1862
7972,1883
7973,1927
7974,1861
7975,1841
7976,1860
7977,1857
7978,1830
7979,1823
7980,1822
7981,1872
7982,1856
7983,1853
7984,1872
7985,1890
7986,1872
7987,1866
7988,1859
7989,1904
7990,1884
7991,1857
7992,1856
7993,1869
7994,1855
7995,1824
7996,1826
7997,1838
7998,1854
7999,1856
8000,1850
8001,1859
8002,1895
8003,1866
8004,1862
8005,1856
8006,1903
8007,1866
8008,1845
8009,1829
8010,1861
8011,1839
8012,1825
8013,1808
8014,1851
8015,1865
8016,1843
8017,1854
8018,1879
8019,1874
8020,1867
8021,1865
8022,1881
8023,1934
8024,1865
8025,1861
8026,1856
8027,1873
8028,1831
8029,1040
8030,1879
8031,2005
8032,2151
8033,2270
8034,2352
8035,2395
8036,2229
8037,2141
8038,2103
8039,1776
8040,1519
8041,1519
8042,1679
8043,1812
8044,1863
8045,1822
8046,1770
8047,1724
8048,1667
8049,1646
8050,1607
8051,1617
8052,1687
8053,1658
8054,1707
8055,1774
8056,1808
8057,1822
8058,1822
8059,1810
8060,974
8061,1843
8062,1955
8063,2128
8064,2317
8065,2384
8066,2349
8067,2174
8068,2106
8069,2018
8070,1696
8071,1535
8072,1587
8073,1787
8074,1885
8075,1891
8076,1871
8077,1807
8078,1709
8079,1630
8080,1602
8081,1568
8082,1631
8083,1673
8084,1721
8085,1817
8086,1813
8087,1830
8088,1842
8089,1904
8090,1914
8091,1447
8092,1807
8093,1968
8094,2056
8095,2169
8096,2288
8097,2240
8098,2074
8099,1923
8100,1725
8101,1821
8102,1968
8103,1935
8104,1957
8105,1975
8106,1994
8107,1905
8108,1815
8109,1728
8110,1670
8111,1595
8112,1559
8113,1588
8114,1653
8115,1744
8116,1775
8117,1814
8118,1889
8119,1885
8120,1882
8121,1895
8122,2325
8123,1744
8124,1924
8125,1987
8126,2160
8127,2266
8128,2126
8129,1942
8130,1680
8131,1686
8132,2213
8133,2126
8134,2032
8135,2036
8136,1991
8137,1952
8138,1895
8139,1840
8140,1709
8141,1603
8142,1555
8143,1589
8144,1619
8145,1664
8146,1712
8147,1770
8148,1835
8149,1840
8150,1865
8151,1893
8152,1914
8153,2795
8154,1503
8155,1915
8156,1967
8157,2044
8158,2080
8159,1974
8160,1949
8161,1648
8162,2147
8163,2286
8164,2179
8165,2098
8166,2037
8167,2006
8168,1999
8169,1910
8170,1770
8171,1650
8172,1603
8173,1569
8174,1577
8175,1637
8176,1715
8177,1744
8178,1744
8179,1786
8180,1819
8181,1837
8182,1891
8183,1889
8184,2205
8185,1360
8186,1887
8187,1859
8188,1889
8189,1872
8190,1830
8191,1822
8192,1998
8193,2599
8194,2362
8195,2173
8196,2109
8197,2063
8198,2085
8199,1984
8200,1875
8201,1765
8202,1648
8203,1535
8204,1521
8205,1587
8206,1692
8207,1721
8208,1738
8209,1794
8210,1840
8211,1840
8212,1847
8213,1850
8214,1882
8215,1900
8216,1095
8217,1887
8218,1862
8219,1824
8220,1681
8221,1675
8222,1893
8223,2500
8224,2559
8225,2321
8226,2192
8227,2143
8228,2082
8229,2034
8230,1966
8231,1877
8232,1734
8233,1597
8234,1530
8235,1599
8236,1630
8237,1696
8238,1751
8239,1763
8240,1809
8241,1828
8242,1854
8243,1911
8244,1882
8245,1866
8246,1872
8247,820
8248,1842
8249,1814
8250,1683
8251,1490
8252,1583
8253,2169
8254,2811
8255,2559
8256,2334
8257,2153
8258,2113
8259,2094
8260,2064
8261,1970
8262,1821
8263,1657
8264,1510
8265,1497
8266,1504
8267,1588
8268,1675
8269,1743
8270,1800
8271,1823
8272,1855
8273,1883
8274,1890
8275,1879
8276,1904
8277,1916
8278,735
8279,1810
8280,1749
8281,1635
8282,1344
8283,1518
8284,2485
8285,3004
8286,2506
8287,2183
8288,2111
8289,2119
8290,2129
8291,2064
8292,1950
8293,1805
8294,1607
8295,1455
8296,1443
8297,1498
8298,1621
8299,1677
8300,1740
8301,1785
8302,1820
8303,1859
8304,1879
8305,1911
8306,1893
8307,1904
8308,1887
8309,832
8310,1757
8311,1779
8312,1593
8313,1294
8314,1505
8315,2657
8316,3037
8317,2368
8318,2109
8319,2093
8320,2107
8321,2103
8322,2089
8323,1978
8324,1753
8325,1535
8326,1436
8327,1463
8328,1519
8329,1590
8330,1697
8331,1757
8332,1797
8333,1827
8334,1861
8335,1904
8336,1893
8337,1891
8338,1898
8339,1927
8340,1082
8341,1683
8342,1837
8343,1671
8344,1366
8345,1509
8346,2717
8347,3027
8348,2353
8349,2075
8350,2069
8351,2124
8352,2128
8353,2045
8354,1895
8355,1654
8356,1504
8357,1437
8358,1469
8359,1535
8360,1673
8361,1695
8362,1729
8363,1775
8364,1817
8365,1868
8366,1867
8367,1880
8368,1899
8369,1919
8370,1900
8371,1799
8372,1617
8373,1903
8374,1684
8375,1332
8376,1534
8377,2738
8378,2961
8379,2370
8380,2087
8381,2102
8382,2125
8383,2096
8384,2042
8385,1883
8386,1599
8387,1411
8388,1407
8389,1521
8390,1631
8391,1680
8392,1774
8393,1786
8394,1813
8395,1817
8396,1840
8397,1862
8398,1902
8399,1899
8400,1903
8401,1919
8402,2862
8403,1398
8404,1879
8405,1694
8406,1403
8407,1427
8408,2682
8409,3177
8410,2527
8411,2135
8412,2071
8413,2107
8414,2081
8415,1977
8416,1745
8417,1507
8418,1395
8419,1447
8420,1520
8421,1622
8422,1712
8423,1750
8424,1820
8425,1834
8426,1876
8427,1904
8428,1871
8429,1868
8430,1887
8431,1911
8432,1920
8433,2240
8434,1232
8435,1920
8436,1731
8437,1395
8438,1399
8439,2683
8440,3337
8441,2496
8442,2157
8443,2134
8444,2151
8445,2070
8446,1890
8447,1666
8448,1475
8449,1360
8450,1413
8451,1562
8452,1663
8453,1719
8454,1789
8455,1842
8456,1939
8457,1890
8458,1886
8459,1904
8460,1901
8461,1903
8462,1887
8463,1883
8464,1893
8465,1007
8466,1872
8467,1746
8468,1471
8469,1386
8470,2643
8471,3260
8472,2614
8473,2235
8474,2165
8475,2166
8476,2095
8477,1878
8478,1593
8479,1344
8480,1263
8481,1434
8482,1527
8483,1616
8484,1755
8485,1799
8486,1834
8487,1849
8488,1874
8489,1939
8490,1936
8491,1907
8492,1905
8493,1911
8494,1909
8495,1879
8496,894
8497,1851
8498,1744
8499,1393
8500,1232
8501,2467
8502,3403
8503,2783
8504,2284
8505,2182
8506,2214
8507,2113
8508,1871
8509,1584
8510,1359
8511,1296
8512,1375
8513,1491
8514,1633
8515,1722
8516,1776
8517,1846
8518,1888
8519,1902
8520,1881
8521,1891
8522,1907
8523,1943
8524,1919
8525,1905
8526,1949
8527,848
8528,1834
8529,1725
8530,1428
8531,1242
8532,2383
8533,3369
8534,2742
8535,2317
8536,2193
8537,2202
8538,2125
8539,1914
8540,1574
8541,1301
8542,1279
8543,1389
8544,1530
8545,1609
8546,1685
8547,1776
8548,1840
8549,1847
8550,1872
8551,1903
8552,1927
8553,1919
8554,1920
8555,1936
8556,1937
8557,1926
8558,800
8559,1841
8560,1776
8561,1460
8562,1181
8563,2159
8564,3363
8565,2844
8566,2288
8567,2160
8568,2251
8569,2155
8570,1920
8571,1571
8572,1319
8573,1339
8574,1408
8575,1511
8576,1626
8577,1685
8578,1728
8579,1775
8580,1821
8581,1870
8582,1904
8583,1901
8584,1906
8585,1931
8586,1923
8587,1917
8588,1921
8589,1202
8590,1729
8591,1819
8592,1565
8593,1259
8594,1947
8595,3262
8596,2869
8597,2345
8598,2178
8599,2201
8600,2159
8601,1975
8602,1648
8603,1374
8604,1293
8605,1371
8606,1535
8607,1625
8608,1683
8609,1748
8610,1808
8611,1829
8612,1845
8613,1861
8614,1893
8615,1919
8616,1904
8617,1900
8618,1936
8619,1924
8620,2147
8621,1659
8622,1879
8623,1616
8624,1240
8625,1763
8626,3274
8627,3113
8628,2322
8629,2113
8630,2159
8631,2175
8632,2003
8633,1680
8634,1383
8635,1319
8636,1370
8637,1485
8638,1587
8639,1712
8640,1755
8641,1789
8642,1827
8643,1868
8644,1872
8645,1872
8646,1872
8647,1883
8648,1917
8649,1898
8650,1897
8651,1872
8652,1936
8653,1908
8654,1903
8655,1908
8656,1899
8657,1903
8658,1881
8659,1891
8660,1881
8661,1867
8662,1847
8663,1840
8664,1867
8665,1882
8666,1857
8667,1859
8668,1871
8669,1886
8670,1858
8671,1867
8672,1875
8673,1881
8674,1872
8675,1850
8676,1895
8677,1850
8678,1841
8679,1831
8680,1863
8681,1829
8682,1868
8683,1861
8684,1872
8685,1874
8686,1870
8687,1866
8688,1865
8689,1891
8690,1899
8691,1862
8692,1856
8693,1870
8694,1868
8695,1827
8696,1823
8697,1824
8698,1859
8699,1855
8700,1856
8701,1859
8702,1874
8703,1872
8704,1867
8705,1886
8706,1877
8707,1872
8708,1853
8709,1853
8710,1870
8711,1840
8712,1830
8713,1830
8714,1844
8715,1864
8716,1846
8717,1843
8718,1841
8719,1848
8720,1852
8721,1849
8722,1872
8723,1931
8724,1868
8725,1829
8726,1840
8727,1851
8728,1823
8729,1819
8730,1827
8731,1851
8732,1853
8733,1845
8734,1863
8735,1889
8736,1873
8737,1863
8738,1870
8739,1874
8740,1872
8741,1856
8742,1840
8743,1861
8744,1855
8745,1836
8746,1828
8747,1830
8748,1844
8749,1843
8750,1848
8751,1856
8752,1885
8753,1860
8754,1857
8755,1861
8756,1904
8757,1872
8758,1852
8759,1851
8760,1869
8761,1843
8762,1824
8763,1834
8764,1857
8765,1883
8766,1854
8767,1860
8768,1873
8769,1871
8770,1861
8771,1855
8772,1873
8773,1872
8774,1861
8775,1845
8776,1827
8777,1841
8778,1835
8779,1824
8780,1830
8781,1871
8782,1863
8783,1853
8784,1847
8785,1855
8786,1871
8787,1856
8788,1853
8789,1887
8790,1886
8791,1862
8792,1853
8793,1887
8794,1840
8795,1833
8796,1831
8797,1867
8798,1867
8799,1850
8800,1857
8801,1872
8802,1885
8803,1869
8804,1865
8805,1882
8806,1887
8807,1879
8808,1857
8809,1840
8810,1838
8811,1841
8812,1830
8813,1829
8814,1842
8815,1862
8816,1847
8817,1838
8818,1882
8819,1879
8820,1858
8821,1859
8822,1866
8823,1902
8824,1863
8825,1853
8826,1872
8827,1862
8828,1840
8829,1823
8830,1831
8831,1853
8832,1860
8833,1851
8834,1866
8835,1909
8836,1878
8837,1863
8838,1863
8839,1893
8840,1890
8841,1856
8842,1854
8843,1855
8844,1847
8845,1827
8846,1828
8847,1837
8848,1856
8849,1847
8850,1851
8851,1857
8852,1919
8853,1875
8854,1862
8855,1865
8856,1915
8857,1882
8858,1856
8859,1845
8860,1855
8861,1846
8862,1828
8863,1837
8864,1845
8865,1875
8866,1856
8867,1863
8868,1872
8869,1893
8870,1878
8871,1875
8872,1887
8873,1874
8874,1870
8875,1850
8876,1887
8877,1877
8878,1843
8879,1836
8880,1841
8881,1871
8882,1867
8883,1853
8884,1872
8885,1886
8886,1879
8887,1872
8888,1872
8889,1883
8890,1901
8891,1867
8892,1856
8893,1856
8894,1861
8895,1841
8896,1837
8897,1854
8898,1903
8899,1855
8900,1851
8901,1878
8902,1875
8903,1870
8904,1867
8905,1867
8906,1889
8907,1872
8908,1851
8909,1855
8910,1883
8911,1850
8912,1833
8913,1837
8914,1867
8915,1871
8916,1850
8917,1855
8918,1905
8919,1865
8920,1862
8921,1869
8922,1891
8923,1891
8924,1869
8925,1855
8926,1881
8927,1859
8928,1852
8929,1838
8930,1840
8931,1887
8932,1871
8933,1859
8934,1870
8935,1863
8936,1867
8937,1861
8938,1858
8939,1870
8940,1872
8941,1854
8942,1840
8943,1843
8944,1840
8945,1834
8946,1819
8947,1863
8948,1857
8949,1847
8950,1847
8951,1886
8952,1895
8953,1862
8954,1855
8955,1858
8956,1874
8957,1872
8958,1847
8959,1851
8960,1843
8961,1840
8962,1825
8963,1831
8964,1840
8965,1862
8966,1853
8967,1855
8968,1872
8969,1905
8970,1863
8971,1872
8972,1879
8973,1943
8974,1872
8975,1850
8976,1859
8977,1872
8978,1837
8979,1833
8980,1840
8981,1856
8982,1861
8983,1852
8984,1867
8985,1904
8986,1871
8987,1861
8988,1861
8989,1865
8990,1884
8991,1856
8992,1852
8993,1842
8994,1850
8995,1823
8996,1811
8997,1809
8998,1845
8999,1840
9000,1840
9001,1844
9002,1841
9003,1849
9004,1841
9005,1871
9006,1894
9007,1859
9008,1829
9009,1827
9010,1829
9011,1821
9012,1800
9013,1794
9014,1803
9015,1835
9016,1808
9017,1821
9018,1838
9019,1829
9020,1821
9021,1822
9022,1856
9023,1859
9024,1867
9025,1857
9026,1887
9027,1886
9028,1852
9029,1845
9030,1855
9031,1883
9032,1890
9033,1886
9034,1879
9035,1933
9036,1908
9037,1904
9038,1905
9039,1923
9040,1940
9041,1903
9042,1894
9043,1936
9044,1900
9045,1872
9046,1867
9047,1852
9048,1894
9049,1886
9050,1885
9051,1920
9052,1956
9053,1931
9054,1936
9055,1929
9056,1956
9057,1980
9058,1963
9059,1963
9060,1963
9061,1945
9062,1927
9063,1915
9064,1923
9065,1962
9066,1943
9067,1939
9068,1935
9069,1934
9070,1920
9071,1904
9072,1904
9073,1889
9074,1870
9075,1845
9076,1843
9077,1830
9078,1811
9079,1801
9080,1808
9081,1815
9082,1829
9083,1822
9084,1822
9085,1829
9086,1835
9087,1817
9088,1818
9089,1834
9090,1840
9091,1818
9092,1807
9093,1806
9094,1808
9095,1792
9096,1783
9097,1789
9098,1807
9099,1815
9100,1813
9101,1852
9102,1837
9103,1827
9104,1824
9105,1838
9106,1856
9107,1838
9108,1808
9109,1805
9110,1823
9111,1808
9112,1789
9113,1785
9114,1799
9115,1823
9116,1811
9117,1813
9118,1859
9119,1840
9120,1830
9121,1835
9122,1841
9123,1858
9124,1842
9125,1831
9126,1826
9127,1834
9128,1815
9129,1808
9130,1810
9131,1876
9132,1845
9133,1839
9134,1840
9135,1861
9136,1861
9137,1850
9138,1853
9139,1872
9140,1887
9141,1840
9142,1840
9143,1851
9144,1841
9145,1820
9146,1814
9147,1814
9148,1829
9149,1845
9150,1847
9151,1856
9152,1897
9153,1873
9154,1870
9155,1868
9156,1891
9157,1883
9158,1866
9159,1854
9160,1856
9161,1849
9162,1831
9163,1828
9164,1845
9165,1904
9166,1854
9167,1867
9168,1873
9169,1887
9170,1863
9171,1863
9172,1874
9173,1904
9174,1869
9175,1839
9176,1877
9177,1826
9178,1810
9179,1809
9180,1813
9181,1808
9182,1846
9183,1832
9184,1845
9185,1858
9186,1849
9187,1840
9188,1843
9189,1869
9190,1871
9191,1840
9192,1837
9193,1831
9194,1831
9195,1810
9196,1809
9197,1820
9198,1859
9199,1845
9200,1855
9201,1861
9202,1883
9203,1865
9204,1854
9205,1840
9206,1904
9207,1871
9208,1849
9209,1855
9210,1873
9211,1843
9212,1823
9213,1824
9214,1842
9215,1869
9216,1854
9217,1853
9218,1855
9219,1883
9220,1863
9221,1862
9222,1883
9223,1870
9224,1869
9225,1849
9226,1843
9227,1847
9228,1834
9229,1818
9230,1825
9231,1840
9232,1857
9233,1842
9234,1851
9235,1855
9236,1862
9237,1852
9238,1856
9239,1877
9240,1863
9241,1856
9242,1845
9243,1877
9244,1846
9245,1828
9246,1819
9247,1825
9248,1853
9249,1846
9250,1843
9251,1861
9252,1874
9253,1869
9254,1856
9255,1884
9256,1856
9257,1875
9258,1850
9259,1841
9260,1836
9261,1841
9262,1818
9263,1819
9264,1837
9265,1855
9266,1840
9267,1841
9268,1872
9269,1858
9270,1855
9271,1855
9272,1856
9273,1873
9274,1862
9275,1854
9276,1842
9277,1855
9278,1831
9279,1814
9280,1810
9281,1838
9282,1855
9283,1840
9284,1854
9285,1902
9286,1871
9287,1854
9288,1855
9289,1893
9290,1870
9291,1855
9292,1852
9293,1861
9294,1850
9295,1819
9296,1810
9297,1845
9298,1897
9299,1856
9300,1845
9301,1851
9302,1866
9303,1865
9304,1858
9305,1872
9306,1881
9307,1883
9308,1855
9309,1852
9310,1857
9311,1842
9312,1823
9313,1822
9314,1840
9315,1851
9316,1846
9317,1845
9318,1854
9319,1881
9320,1863
9321,1862
9322,1891
9323,1897
9324,1872
9325,1851
9326,1812
9327,1845
9328,1827
9329,1821
9330,1825
9331,1873
9332,1863
9333,1845
9334,1855
9335,1904
9336,1872
9337,1861
9338,1859
9339,1882
9340,1875
9341,1849
9342,1846
9343,1836
9344,1845
9345,1830
9346,1826
9347,1834
9348,1852
9349,1847
9350,1840
9351,1862
9352,1865
9353,1863
9354,1857
9355,1872
9356,1877
9357,1873
9358,1845
9359,1854
9360,1831
9361,1852
9362,1819
9363,1819
9364,1830
9365,1863
9366,1849
9367,1849
9368,1854
9369,1871
9370,1861
9371,1860
9372,1866
9373,1872
9374,1863
9375,1850
9376,1861
9377,1851
9378,1834
9379,1821
9380,1823
9381,1823
9382,1859
9383,1845
9384,1856
9385,1870
9386,1872
9387,1855
9388,1856
9389,1879
9390,1867
9391,1859
9392,1843
9393,1862
9394,1847
9395,1827
9396,1821
9397,1829
9398,1815
9399,1856
9400,1851
9401,1854
9402,1872
9403,1872
9404,1863
9405,1874
9406,1917
9407,1883
9408,1844
9409,1855
9410,1846
9411,1846
9412,1824
9413,1819
9414,1840
9415,1881
9416,1840
9417,1843
9418,1851
9419,1907
9420,1862
9421,1862
9422,1872
9423,1903
9424,1872
9425,1845
9426,1846
9427,1869
9428,1839
9429,1818
9430,1837
9431,1859
9432,1863
9433,1846
9434,1846
9435,1913
9436,1874
9437,1863
9438,1861
9439,1874
9440,1898
9441,1858
9442,1844
9443,1856
9444,1852
9445,1821
9446,1813
9447,1830
9448,1887
9449,1851
9450,1847
9451,1867
9452,1869
9453,1869
9454,1863
9455,1877
9456,1890
9457,1878
9458,1855
9459,1847
9460,1865
9461,1849
9462,1823
9463,1822
9464,1837
9465,1840
9466,1851
9467,1854
9468,1870
9469,1872
9470,1865
9471,1862
9472,1877
9473,1931
9474,1871
9475,1845
9476,1823
9477,1859
9478,1829
9479,1819
9480,1808
9481,1853
9482,1862
9483,1837
9484,1855
9485,1881
9486,1874
9487,1860
9488,1861
9489,1879
9490,1882
9491,1865
9492,1847
9493,1849
9494,1853
9495,1827
9496,1821
9497,1836
9498,1847
9499,1855
9500,1852
9501,1872
9502,1904
9503,1872
9504,1859
9505,1868
9506,1899
9507,1875
9508,1850
9509,1851
9510,1827
9511,1851
9512,1825
9513,1822
9514,1843
9515,1859
9516,1853
9517,1854
9518,1862
9519,1887
9520,1867
9521,1867
9522,1883
9523,1915
9524,1872
9525,1856
9526,1856
9527,1854
9528,1840
9529,1822
9530,1819
9531,1837
9532,1856
9533,1849
9534,1855
9535,1866
9536,1872
9537,1854
9538,1855
9539,1877
9540,1886
9541,1858
9542,1846
9543,1847
9544,1860
9545,1830
9546,1826
9547,1826
9548,1821
9549,1855
9550,1845
9551,1863
9552,1889
9553,1873
9554,1859
9555,1862
9556,1856
9557,1887
9558,1855
9559,1856
9560,1897
9561,1854
9562,1830
9563,1824
9564,1834
9565,1834
9566,1843
9567,1846
9568,1873
9569,1873
9570,1857
9571,1861
9572,1856
9573,1885
9574,1872
9575,1854
9576,1827
9577,1856
9578,1840
9579,1822
9580,1815
9581,1845
9582,1867
9583,1846
9584,1859
9585,1888
9586,1874
9587,1861
9588,1857
9589,1888
9590,1893
9591,1860
9592,1852
9593,1840
9594,1877
9595,1825
9596,1814
9597,1826
9598,1851
9599,1856
9600,1850
9601,1863
9602,1865
9603,1872
9604,1857
9605,1865
9606,1879
9607,1886
9608,1854
9609,1840
9610,1850
9611,1851
9612,1825
9613,1824
9614,1832
9615,1886
9616,1853
9617,1846
9618,1856
9619,1881
9620,1863
9621,1869
9622,1870
9623,1900
9624,1873
9625,1840
9626,1845
9627,1873
9628,1838
9629,1819
9630,1808
9631,1828
9632,1867
9633,1853
9634,1850
9635,1904
9636,1881
9637,1863
9638,1860
9639,1875
9640,1889
9641,1865
9642,1846
9643,1841
9644,1853
9645,1831
9646,1822
9647,977
9648,1882
9649,1951
9650,2084
9651,2218
9652,2309
9653,2342
9654,2230
9655,2159
9656,2113
9657,1837
9658,1556
9659,1530
9660,1771
9661,1856
9662,1859
9663,1821
9664,1799
9665,1730
9666,1661
9667,1638
9668,1642
9669,1674
9670,1655
9671,1677
9672,1729
9673,1795
9674,1792
9675,1778
9676,1810
9677,1855
9678,1063
9679,1847
9680,1903
9681,2091
9682,2222
9683,2307
9684,2309
9685,2209
9686,2104
9687,2038
9688,1809
9689,1667
9690,1648
9691,1776
9692,1872
9693,1904
9694,1863
9695,1759
9696,1671
9697,1643
9698,1616
9699,1618
9700,1625
9701,1683
9702,1753
9703,1793
9704,1807
9705,1844
9706,1893
9707,1895
9708,1878
9709,1616
9710,1821
9711,1936
9712,2003
9713,2138
9714,2256
9715,2264
9716,2068
9717,1969
9718,1842
9719,1801
9720,1932
9721,1903
9722,1923
9723,1955
9724,1921
9725,1856
9726,1793
9727,1743
9728,1648
9729,1585
9730,1565
9731,1611
9732,1667
9733,1711
9734,1770
9735,1829
9736,1859
9737,1865
9738,1887
9739,1886
9740,1774
9741,1808
9742,1903
9743,1946
9744,2101
9745,2238
9746,2165
9747,1990
9748,1776
9749,1651
9750,2145
9751,2181
9752,2035
9753,2005
9754,1958
9755,1934
9756,1899
9757,1808
9758,1686
9759,1609
9760,1535
9761,1569
9762,1586
9763,1655
9764,1716
9765,1793
9766,1808
9767,1841
9768,1858
9769,1905
9770,1899
9771,2691
9772,1643
9773,1936
9774,1931
9775,2016
9776,2098
9777,2032
9778,1885
9779,1633
9780,1877
9781,2337
9782,2206
9783,2096
9784,2032
9785,1984
9786,1967
9787,1886
9788,1775
9789,1677
9790,1680
9791,1601
9792,1589
9793,1664
9794,1712
9795,1728
9796,1690
9797,1725
9798,1802
9799,1850
9800,1865
9801,1891
9802,2128
9803,1428
9804,1902
9805,1874
9806,2000
9807,2003
9808,1879
9809,1842
9810,1716
9811,2305
9812,2363
9813,2173
9814,2092
9815,2064
9816,2000
9817,1966
9818,1883
9819,1808
9820,1712
9821,1706
9822,1686
9823,1725
9824,1779
9825,1805
9826,1717
9827,1535
9828,1644
9829,1755
9830,1806
9831,1850
9832,1883
9833,1872
9834,1202
9835,1899
9836,1869
9837,1915
9838,1855
9839,1739
9840,1794
9841,1986
9842,2606
9843,2387
9844,2149
9845,2090
9846,2029
9847,2006
9848,1973
9849,1894
9850,1765
9851,1663
9852,1578
9853,1576
9854,1606
9855,1659
9856,1744
9857,1781
9858,1776
9859,1818
9860,1885
9861,1875
9862,1868
9863,1869
9864,1875
9865,989
9866,1879
9867,1854
9868,1840
9869,1679
9870,1535
9871,1765
9872,2510
9873,2768
9874,2407
9875,2175
9876,2127
9877,2064
9878,2045
9879,1974
9880,1863
9881,1727
9882,1647
9883,1535
9884,1561
9885,1599
9886,1698
9887,1745
9888,1712
9889,1783
9890,1866
9891,1861
9892,1872
9893,1890
9894,1883
9895,1871
9896,814
9897,1830
9898,1808
9899,1687
9900,1454
9901,1422
9902,2066
9903,2931
9904,2671
9905,2263
9906,2131
9907,2121
9908,2087
9909,2059
9910,2006
9911,1872
9912,1696
9913,1535
9914,1495
9915,1520
9916,1600
9917,1655
9918,1746
9919,1780
9920,1754
9921,1821
9922,1865
9923,1904
9924,1898
9925,1883
9926,1881
9927,876
9928,1776
9929,1776
9930,1616
9931,1397
9932,1426
9933,2341
9934,3025
9935,2559
9936,2199
9937,2095
9938,2103
9939,2110
9940,2092
9941,1971
9942,1836
9943,1665
9944,1535
9945,1453
9946,1486
9947,1535
9948,1638
9949,1739
9950,1774
9951,1806
9952,1846
9953,1871
9954,1872
9955,1857
9956,1902
9957,1920
9958,1033
9959,1759
9960,1840
9961,1663
9962,1338
9963,1463
9964,2547
9965,3015
9966,2384
9967,2096
9968,2066
9969,2137
9970,2096
9971,2063
9972,1969
9973,1840
9974,1654
9975,1503
9976,1472
9977,1519
9978,1584
9979,1633
9980,1667
9981,1759
9982,1835
9983,1849
9984,1862
9985,1930
9986,1905
9987,1892
9988,1894
9989,2320
9990,1644
9991,1863
9992,1691
9993,1365
9994,1434
9995,2501
9996,2963
9997,2366
9998,2080
9999,2025
10000,2070
10001,2079
10002,2092
10003,1948
10004,1778
10005,1606
10006,1472
10007,1486
10008,1531
10009,1613
10010,1705
10011,1712
10012,1743
10013,1779
10014,1797
10015,1904
10016,1861
10017,1878
10018,1887
10019,1904
10020,2793
10021,1472
10022,1887
10023,1750
10024,1409
10025,1395
10026,2499
10027,3029
10028,2431
10029,2096
10030,2039
10031,2080
10032,2089
10033,2034
10034,1934
10035,1775
10036,1574
10037,1423
10038,1435
10039,1527
10040,1653
10041,1706
10042,1765
10043,1883
10044,1771
10045,1782
10046,1824
10047,1840
10048,1905
10049,1888
10050,1883
10051,2202
10052,1322
10053,1893
10054,1712
10055,1358
10056,1328
10057,2413
10058,3149
10059,2630
10060,2186
10061,2067
10062,2068
10063,2070
10064,2022
10065,1925
10066,1702
10067,1481
10068,1397
10069,1477
10070,1535
10071,1635
10072,1709
10073,1783
10074,1807
10075,1828
10076,1839
10077,1887
10078,1869
10079,1867
10080,1874
10081,1906
10082,1927
10083,1131
10084,1879
10085,1744
10086,1407
10087,1242
10088,2362
10089,3283
10090,2698
10091,2195
10092,2078
10093,2112
10094,2112
10095,2015
10096,1846
10097,1610
10098,1422
10099,1380
10100,1445
10101,1534
10102,1713
10103,1751
10104,1798
10105,1791
10106,1839
10107,1878
10108,1872
10109,1907
10110,1888
10111,1910
10112,1878
10113,1876
10114,966
10115,1887
10116,1746
10117,1427
10118,1296
10119,2278
10120,3312
10121,2734
10122,2228
10123,2133
10124,2149
10125,2117
10126,2020
10127,1831
10128,1558
10129,1341
10130,1344
10131,1438
10132,1583
10133,1650
10134,1718
10135,1781
10136,1855
10137,1872
10138,1887
10139,1904
10140,1920
10141,1911
10142,1906
10143,1926
10144,1931
10145,878
10146,1834
10147,1759
10148,1501
10149,1342
10150,2279
10151,3187
10152,2703
10153,2246
10154,2097
10155,2129
10156,2151
10157,2069
10158,1785
10159,1484
10160,1332
10161,1337
10162,1408
10163,1521
10164,1677
10165,1740
10166,1757
10167,1799
10168,1870
10169,1941
10170,1941
10171,1933
10172,1938
10173,1957
10174,1939
10175,1907
10176,960
10177,1840
10178,1776
10179,1451
10180,1232
10181,2123
10182,3259
10183,2838
10184,2313
10185,2138
10186,2191
10187,2152
10188,1999
10189,1732
10190,1470
10191,1278
10192,1311
10193,1483
10194,1594
10195,1664
10196,1730
10197,1801
10198,1801
10199,1879
10200,1900
10201,1895
10202,1970
10203,1936
10204,1923
10205,1925
10206,1945
10207,1156
10208,1840
10209,1813
10210,1535
10211,1285
10212,2015
10213,3178
10214,2908
10215,2395
10216,2160
10217,2179
10218,2163
10219,2035
10220,1694
10221,1357
10222,1218
10223,1342
10224,1479
10225,1598
10226,1717
10227,1765
10228,1817
10229,1819
10230,1843
10231,1861
10232,1908
10233,1907
10234,1936
10235,1939
10236,1933
10237,1921
10238,2162
10239,1799
10240,1855
10241,1607
10242,1286
10243,1872
10244,3141
10245,2918
10246,2321
10247,2154
10248,2226
10249,2169
10250,1969
10251,1651
10252,1407
10253,1275
10254,1334
10255,1483
10256,1616
10257,1737
10258,1713
10259,1751
10260,1883
10261,1950
10262,1902
10263,1899
10264,1904
10265,1946
10266,1929
10267,1923
10268,1904
10269,1943
10270,1928
10271,1920
10272,1926
10273,1921
10274,1923
10275,1893
10276,1904
10277,1911
10278,1872
10279,1859
10280,1862
10281,1861
10282,1872
10283,1873
10284,1872
10285,1890
10286,1877
10287,1882
10288,1882
10289,1884
10290,1911
10291,1882
10292,1872
10293,1862
10294,1885
10295,1847
10296,1841
10297,1839
10298,1852
10299,1877
10300,1872
10301,1891
10302,1891
10303,1891
10304,1881
10305,1875
10306,1898
10307,1925
10308,1873
10309,1861
10310,1878
10311,1856
10312,1831
10313,1835
10314,1853
10315,1853
10316,1861
10317,1849
10318,1871
10319,1891
10320,1869
10321,1871
10322,1879
10323,1895
10324,1888
10325,1860
10326,1866
10327,1855
10328,1861
10329,1846
10330,1840
10331,1847
10332,1868
10333,1850
10334,1857
10335,1860
10336,1871
10337,1858
10338,1861
10339,1875
10340,1897
10341,1857
10342,1843
10343,1854
10344,1855
10345,1823
10346,1817
10347,1817
10348,1851
10349,1852
10350,1842
10351,1859
10352,1879
10353,1872
10354,1856
10355,1857
10356,1885
10357,1878
10358,1857
10359,1856
10360,1842
10361,1856
10362,1826
10363,1827
10364,1839
10365,1865
10366,1856
10367,1856
10368,1873
10369,1869
10370,1867
10371,1862
10372,1872
10373,1889
10374,1866
10375,1846
10376,1833
10377,1835
10378,1839
10379,1826
10380,1827
10381,1819
10382,1863
10383,1852
10384,1855
10385,1861
10386,1871
10387,1856
10388,1853
10389,1879
10390,1902
10391,1866
10392,1850
10393,1853
10394,1849
10395,1833
10396,1825
10397,1811
10398,1823
10399,1855
10400,1841
10401,1850
10402,1884
10403,1872
10404,1855
10405,1859
10406,1882
10407,1893
10408,1847
10409,1847
10410,1866
10411,1853
10412,1823
10413,1824
10414,1833
10415,1856
10416,1843
10417,1838
10418,1887
10419,1862
10420,1867
10421,1858
10422,1866
10423,1878
10424,1875
10425,1853
10426,1861
10427,1850
10428,1849
10429,1831
10430,1831
10431,1840
10432,1869
10433,1856
10434,1870
10435,1859
10436,1887
10437,1861
10438,1859
10439,1881
10440,1875
10441,1869
10442,1854
10443,1856
10444,1867
10445,1840
10446,1827
10447,1829
10448,1856
10449,1855
10450,1845
10451,1856
10452,1894
10453,1872
10454,1859
10455,1867
10456,1911
10457,1878
10458,1861
10459,1860
10460,1859
10461,1863
10462,1838
10463,1833
10464,1832
10465,1859
10466,1844
10467,1846
10468,1865
10469,1904
10470,1872
10471,1866
10472,1891
10473,1862
10474,1876
10475,1855
10476,1858
10477,1843
10478,1847
10479,1833
10480,1833
10481,1839
10482,1852
10483,1855
10484,1860
10485,1878
10486,1886
10487,1872
10488,1869
10489,1861
10490,1922
10491,1871
10492,1866
10493,1910
10494,1847
10495,1831
10496,1825
10497,1829
10498,1871
10499,1856
10500,1846
10501,1840
10502,1869
10503,1873
10504,1865
10505,1865
10506,1881
10507,1887
10508,1856
10509,1853
10510,1856
10511,1853
10512,1840
10513,1837
10514,1869
10515,1830
10516,1844
10517,1855
10518,1872
10519,1875
10520,1865
10521,1862
10522,1874
10523,1883
10524,1876
10525,1851
10526,1856
10527,1849
10528,1840
10529,1831
10530,1831
10531,1857
10532,1871
10533,1858
10534,1859
10535,1851
10536,1897
10537,1872
10538,1871
10539,1895
10540,1941
10541,1867
10542,1856
10543,1862
10544,1872
10545,1842
10546,1839
10547,1839
10548,1873
10549,1867
10550,1851
10551,1859
10552,1881
10553,1876
10554,1862
10555,1859
10556,1868
10557,1872
10558,1859
10559,1847
10560,1863
10561,1856
10562,1842
10563,1839
10564,1830
10565,1853
10566,1860
10567,1861
10568,1872
10569,1863
10570,1879
10571,1872
10572,1871
10573,1872
10574,1873
10575,1856
10576,1841
10577,1840
10578,1837
10579,1822
10580,1825
10581,1839
10582,1845
10583,1843
10584,1828
10585,1879
10586,1873
10587,1854
10588,1845
10589,1862
10590,1915
10591,1855
10592,1840
10593,1878
10594,1874
10595,1825
10596,1810
10597,1801
10598,1822
10599,1849
10600,1845
10601,1846
10602,1858
10603,1862
10604,1850
10605,1849
10606,1870
10607,1869
10608,1833
10609,1830
10610,1830
10611,1823
10612,1814
10613,1808
10614,1821
10615,1841
10616,1835
10617,1856
10618,1842
10619,1867
10620,1850
10621,1855
10622,1847
10623,1870
10624,1871
10625,1845
10626,1842
10627,1849
10628,1836
10629,1819
10630,1821
10631,1858
10632,1866
10633,1845
10634,1847
10635,1834
10636,1891
10637,1857
10638,1862
10639,1870
10640,1881
10641,1862
10642,1840
10643,1857
10644,1862
10645,1827
10646,1819
10647,1821
10648,1818
10649,1847
10650,1838
10651,1846
10652,1894
10653,1865
10654,1858
10655,1858
10656,1872
10657,1870
10658,1856
10659,1844
10660,1853
10661,1835
10662,1821
10663,1813
10664,1851
10665,1819
10666,1841
10667,1840
10668,1828
10669,1845
10670,1853
10671,1849
10672,1862
10673,1895
10674,1863
10675,1833
10676,1823
10677,1846
10678,1834
10679,1840
10680,1857
10681,1881
10682,1915
10683,1899
10684,1907
10685,1949
10686,1921
10687,1923
10688,1923
10689,1932
10690,1943
10691,1921
10692,1904
10693,1920
10694,1910
10695,1879
10696,1871
10697,1874
10698,1875
10699,1894
10700,1887
10701,1898
10702,1907
10703,1909
10704,1893
10705,1895
10706,1898
10707,1915
10708,1883
10709,1878
10710,1895
10711,1873
10712,1852
10713,1847
10714,1835
10715,1866
10716,1863
10717,1866
10718,1896
10719,1895
10720,1895
10721,1892
10722,1881
10723,1927
10724,1904
10725,1887
10726,1894
10727,1925
10728,1887
10729,1873
10730,1877
10731,1886
10732,1891
10733,1879
10734,1881
10735,1885
10736,1875
10737,1873
10738,1875
10739,1875
10740,1881
10741,1863
10742,1847
10743,1866
10744,1839
10745,1813
10746,1807
10747,1805
10748,1821
10749,1834
10750,1818
10751,1833
10752,1856
10753,1840
10754,1828
10755,1822
10756,1862
10757,1851
10758,1824
10759,1811
10760,1845
10761,1811
10762,1798
10763,1792
10764,1785
10765,1813
10766,1809
10767,1808
10768,1840
10769,1859
10770,1826
10771,1826
10772,1812
10773,1837
10774,1842
10775,1815
10776,1810
10777,1815
10778,1809
10779,1799
10780,1802
10781,1799
10782,1843
10783,1828
10784,1830
10785,1861
10786,1845
10787,1847
10788,1844
10789,1842
10790,1869
10791,1862
10792,1843
10793,1839
10794,1847
10795,1820
10796,1811
10797,1808
10798,1867
10799,1850
10800,1845
10801,1855
10802,1866
10803,1862
10804,1858
10805,1857
10806,1876
10807,1867
10808,1847
10809,1846
10810,1843
10811,1836
10812,1821
10813,1813
10814,1830
10815,1829
10816,1847
10817,1847
10818,1820
10819,1860
10820,1861
10821,1857
10822,1853
10823,1885
10824,1870
10825,1843
10826,1837
10827,1853
10828,1840
10829,1817
10830,1819
10831,1826
10832,1876
10833,1853
10834,1859
10835,1843
10836,1889
10837,1872
10838,1872
10839,1872
10840,1891
10841,1869
10842,1846
10843,1872
10844,1860
10845,1834
10846,1814
10847,1801
10848,1863
10849,1846
10850,1838
10851,1846
10852,1877
10853,1856
10854,1836
10855,1828
10856,1851
10857,1861
10858,1829
10859,1815
10860,1813
10861,1829
10862,1806
10863,1808
10864,1819
10865,1852
10866,1844
10867,1842
10868,1843
10869,1883
10870,1862
10871,1856
10872,1857
10873,1882
10874,1879
10875,1856
10876,1848
10877,1867
10878,1840
10879,1825
10880,1822
10881,1841
10882,1821
10883,1841
10884,1840
10885,1865
10886,1863
10887,1857
10888,1861
10889,1877
10890,1867
10891,1872
10892,1850
10893,1910
10894,1857
10895,1829
10896,1824
10897,1808
10898,1830
10899,1855
10900,1844
10901,1863
10902,1897
10903,1862
10904,1859
10905,1857
10906,1891
10907,1886
10908,1859
10909,1852
10910,1899
10911,1858
10912,1828
10913,1819
10914,1839
10915,1838
10916,1839
10917,1843
10918,1858
10919,1899
10920,1856
10921,1857
10922,1871
10923,1853
10924,1874
10925,1850
10926,1846
10927,1874
10928,1844
10929,1827
10930,1829
10931,1843
10932,1872
10933,1849
10934,1841
10935,1862
10936,1878
10937,1859
10938,1861
10939,1871
10940,1883
10941,1855
10942,1840
10943,1869
10944,1847
10945,1826
10946,1811
10947,1808
10948,1840
10949,1852
10950,1840
10951,1846
10952,1871
10953,1872
10954,1854
10955,1856
10956,1857
10957,1895
10958,1855
10959,1841
10960,1845
10961,1854
10962,1829
10963,1822
10964,1826
10965,1886
10966,1847
10967,1841
10968,1858
10969,1899
10970,1867
10971,1858
10972,1871
10973,1861
10974,1868
10975,1843
10976,1865
10977,1833
10978,1840
10979,1827
10980,1824
10981,1862
10982,1869
10983,1841
10984,1854
10985,1886
10986,1871
10987,1856
10988,1856
10989,1858
10990,1891
10991,1865
10992,1855
10993,1855
10994,1874
10995,1838
10996,1827
10997,1833
10998,1813
10999,1860
11000,1845
11001,1842
11002,1865
11003,1868
11004,1853
11005,1850
11006,1863
11007,1881
11008,1853
11009,1854
11010,1857
11011,1856
11012,1830
11013,1829
11014,1830
11015,1847
11016,1853
11017,1847
11018,1863
11019,1875
11020,1863
11021,1856
11022,1875
11023,1878
11024,1875
11025,1854
11026,1857
11027,1879
11028,1845
11029,1825
11030,1834
11031,1838
11032,1873
11033,1854
11034,1842
11035,1882
11036,1870
11037,1854
11038,1854
11039,1840
11040,1883
11041,1868
11042,1850
11043,1845
11044,1840
11045,1834
11046,1826
11047,1834
11048,1850
11049,1862
11050,1845
11051,1866
11052,1872
11053,1871
11054,1856
11055,1857
11056,1862
11057,1889
11058,1858
11059,1850
11060,1919
11061,1844
11062,1836
11063,1833
11064,1833
11065,1843
11066,1847
11067,1854
11068,1866
11069,1872
11070,1858
11071,1857
11072,1872
11073,1894
11074,1878
11075,1850
11076,1849
11077,1879
11078,1841
11079,1829
11080,1830
11081,1840
11082,1877
11083,1855
11084,1855
11085,1869
11086,1872
11087,1862
11088,1857
11089,1856
11090,1904
11091,1867
11092,1850
11093,1860
11094,1850
11095,1834
11096,1821
11097,1833
11098,1835
11099,1863
11100,1845
11101,1853
11102,1883
11103,1872
11104,1859
11105,1856
11106,1875
11107,1920
11108,1851
11109,1845
11110,1843
11111,1853
11112,1840
11113,1827
11114,1840
11115,1867
11116,1856
11117,1845
11118,1867
11119,1907
11120,1867
11121,1858
11122,1854
11123,1860
11124,1873
11125,1844
11126,1830
11127,1852
11128,1840
11129,1823
11130,1823
11131,1843
11132,1867
11133,1847
11134,1851
11135,1855
11136,1890
11137,1859
11138,1859
11139,1857
11140,1881
11141,1851
11142,1849
11143,1857
11144,1889
11145,1841
11146,1828
11147,1837
11148,1849
11149,1866
11150,1853
11151,1859
11152,1869
11153,1871
11154,1855
11155,1851
11156,1875
11157,1885
11158,1857
11159,1844
11160,1859
11161,1860
11162,1835
11163,1838
11164,1841
11165,1856
11166,1859
11167,1840
11168,1855
11169,1882
11170,1862
11171,1861
11172,1875
11173,1849
11174,1876
11175,1854
11176,1862
11177,1863
11178,1851
11179,1829
11180,1829
11181,1854
11182,1872
11183,1853
11184,1850
11185,1878
11186,1874
11187,1856
11188,1855
11189,1871
11190,1934
11191,1867
11192,1853
11193,1858
11194,1873
11195,1842
11196,1830
11197,1830
11198,1853
11199,1867
11200,1851
11201,1848
11202,1872
11203,1871
11204,1858
11205,1859
11206,1855
11207,1929
11208,1858
11209,1856
11210,1840
11211,1865
11212,1835
11213,1830
11214,1837
11215,1862
11216,1851
11217,1842
11218,1840
11219,1904
11220,1856
11221,1859
11222,1874
11223,1866
11224,1877
11225,1850
11226,1849
11227,1853
11228,1853
11229,1827
11230,1833
11231,1840
11232,1870
11233,1855
11234,1853
11235,1914
11236,1876
11237,1862
11238,1863
11239,1873
11240,1856
11241,1861
11242,1851
11243,1845
11244,1861
11245,1838
11246,1822
11247,1830
11248,1851
11249,1856
11250,1847
11251,1861
11252,1904
11253,1872
11254,1857
11255,1857
11256,1882
11257,1883
11258,1863
11259,1853
11260,1873
11261,1865
11262,1834
11263,1825
11264,1834
11265,1072
11266,1874
11267,1968
11268,2101
11269,2239
11270,2334
11271,2353
11272,2265
11273,2187
11274,2094
11275,1819
11276,1581
11277,1570
11278,1685
11279,1830
11280,1863
11281,1841
11282,1803
11283,1711
11284,1654
11285,1636
11286,1648
11287,1616
11288,1621
11289,1675
11290,1712
11291,1747
11292,1777
11293,1799
11294,1830
11295,1840
11296,975
11297,1847
11298,1921
11299,2113
11300,2240
11301,2352
11302,2363
11303,2202
11304,2065
11305,2005
11306,1871
11307,1797
11308,1664
11309,1740
11310,1865
11311,1902
11312,1831
11313,1744
11314,1666
11315,1621
11316,1614
11317,1600
11318,1641
11319,1687
11320,1712
11321,1771
11322,1808
11323,1829
11324,1861
11325,1859
11326,1881
11327,1481
11328,1798
11329,1931
11330,2061
11331,2210
11332,2351
11333,2327
11334,2130
11335,1999
11336,1856
11337,1882
11338,1983
11339,1906
11340,1907
11341,1939
11342,1920
11343,1870
11344,1791
11345,1668
11346,1585
11347,1535
11348,1571
11349,1606
11350,1639
11351,1691
11352,1776
11353,1803
11354,1821
11355,1855
11356,1901
11357,1905
11358,2323
11359,1709
11360,1919
11361,1997
11362,2127
11363,2239
11364,2203
11365,2021
11366,1808
11367,1759
11368,2241
11369,2165
11370,1965
11371,1975
11372,1971
11373,1934
11374,1893
11375,1771
11376,1659
11377,1569
11378,1535
11379,1518
11380,1563
11381,1627
11382,1728
11383,1769
11384,1803
11385,1835
11386,1867
11387,1883
11388,1889
11389,2822
11390,1508
11391,1925
11392,1989
11393,2117
11394,2221
11395,2148
11396,1969
11397,1707
11398,2081
11399,2415
11400,2009
11401,2006
11402,2047
11403,2001
11404,1952
11405,1872
11406,1787
11407,1674
11408,1535
11409,1497
11410,1520
11411,1590
11412,1633
11413,1693
11414,1769
11415,1815
11416,1831
11417,1855
11418,1902
11419,1920
11420,2211
11421,1335
11422,1904
11423,1946
11424,2021
11425,2071
11426,2037
11427,1909
11428,1697
11429,2365
11430,2337
11431,2123
11432,2099
11433,2039
11434,2013
11435,1971
11436,1888
11437,1771
11438,1647
11439,1562
11440,1535
11441,1574
11442,1612
11443,1678
11444,1740
11445,1726
11446,1712
11447,1770
11448,1858
11449,1890
11450,1876
11451,1901
11452,1051
11453,1906
11454,1891
11455,1962
11456,2032
11457,2023
11458,1863
11459,1805
11460,2501
11461,2289
11462,2128
11463,2080
11464,2043
11465,2057
11466,1984
11467,1885
11468,1800
11469,1669
11470,1555
11471,1503
11472,1535
11473,1617
11474,1682
11475,1709
11476,1750
11477,1786
11478,1833
11479,1842
11480,1856
11481,1866
11482,1904
11483,814
11484,1892
11485,1887
11486,1934
11487,1927
11488,1902
11489,1888
11490,2122
11491,2495
11492,2286
11493,2193
11494,2112
11495,2066
11496,2021
11497,1970
11498,1901
11499,1796
11500,1628
11501,1529
11502,1509
11503,1533
11504,1589
11505,1657
11506,1723
11507,1753
11508,1793
11509,1829
11510,1856
11511,1871
11512,1871
11513,1868
11514,586
11515,1813
11516,1856
11517,1835
11518,1790
11519,1828
11520,1839
11521,2346
11522,2588
11523,2337
11524,2222
11525,2119
11526,2089
11527,2063
11528,2026
11529,1904
11530,1762
11531,1607
11532,1534
11533,1461
11534,1497
11535,1616
11536,1650
11537,1692
11538,1748
11539,1808
11540,1867
11541,1872
11542,1867
11543,1904
11544,1904
11545,612
11546,1761
11547,1806
11548,1748
11549,1707
11550,1651
11551,1811
11552,2515
11553,2671
11554,2355
11555,2176
11556,2131
11557,2147
11558,2080
11559,2030
11560,1966
11561,1825
11562,1645
11563,1507
11564,1409
11565,1477
11566,1567
11567,1635
11568,1697
11569,1744
11570,1802
11571,1834
11572,1869
11573,1898
11574,1904
11575,1883
11576,1123
11577,1680
11578,1841
11579,1733
11580,1632
11581,1600
11582,1866
11583,2703
11584,2671
11585,2378
11586,2183
11587,2143
11588,2116
11589,2103
11590,2075
11591,1935
11592,1786
11593,1600
11594,1492
11595,1437
11596,1462
11597,1534
11598,1586
11599,1667
11600,1760
11601,1810
11602,1845
11603,1879
11604,1872
11605,1879
11606,1895
11607,2016
11608,1531
11609,1863
11610,1828
11611,1668
11612,1534
11613,1878
11614,2779
11615,2647
11616,2320
11617,2164
11618,2092
11619,2101
11620,2080
11621,2021
11622,1930
11623,1816
11624,1626
11625,1468
11626,1436
11627,1480
11628,1598
11629,1618
11630,1635
11631,1713
11632,1808
11633,1835
11634,1858
11635,1879
11636,1904
11637,1904
11638,2807
11639,1379
11640,1904
11641,1760
11642,1584
11643,1479
11644,1936
11645,2851
11646,2668
11647,2317
11648,2150
11649,2122
11650,2107
11651,2098
11652,2058
11653,1930
11654,1747
11655,1568
11656,1463
11657,1482
11658,1503
11659,1574
11660,1651
11661,1696
11662,1741
11663,1787
11664,1847
11665,1907
11666,1881
11667,1879
11668,1899
11669,2368
11670,1136
11671,1873
11672,1746
11673,1575
11674,1461
11675,2005
11676,2929
11677,2695
11678,2350
11679,2135
11680,2091
11681,2092
11682,2102
11683,2021
11684,1893
11685,1729
11686,1535
11687,1415
11688,1415
11689,1480
11690,1616
11691,1664
11692,1783
11693,1816
11694,1802
11695,1818
11696,1839
11697,1862
11698,1883
11699,1919
11700,1934
11701,923
11702,1915
11703,1763
11704,1524
11705,1371
11706,1998
11707,3041
11708,2769
11709,2327
11710,2146
11711,2107
11712,2091
11713,2064
11714,1999
11715,1870
11716,1697
11717,1488
11718,1387
11719,1419
11720,1523
11721,1607
11722,1683
11723,1806
11724,1800
11725,1809
11726,1843
11727,1902
11728,1878
11729,1876
11730,1875
11731,1906
11732,690
11733,1840
11734,1795
11735,1577
11736,1373
11737,2000
11738,3071
11739,2866
11740,2377
11741,2161
11742,2114
11743,2115
11744,2096
11745,1989
11746,1811
11747,1603
11748,1424
11749,1373
11750,1402
11751,1534
11752,1681
11753,1744
11754,1776
11755,1826
11756,1865
11757,1924
11758,1900
11759,1902
11760,1936
11761,1915
11762,1907
11763,544
11764,1835
11765,1831
11766,1645
11767,1411
11768,2013
11769,2958
11770,2837
11771,2378
11772,2149
11773,2138
11774,2142
11775,2080
11776,1959
11777,1805
11778,1563
11779,1357
11780,1327
11781,1429
11782,1535
11783,1654
11784,1716
11785,1776
11786,1826
11787,1856
11788,1878
11789,1919
11790,1935
11791,1924
11792,1917
11793,1888
11794,647
11795,1775
11796,1813
11797,1584
11798,1346
11799,1877
11800,2969
11801,2919
11802,2480
11803,2190
11804,2145
11805,2135
11806,2104
11807,1984
11808,1758
11809,1503
11810,1360
11811,1342
11812,1438
11813,1535
11814,1616
11815,1712
11816,1771
11817,1827
11818,1937
11819,1935
11820,1923
11821,1926
11822,1941
11823,1952
11824,1946
11825,966
11826,1709
11827,1930
11828,1669
11829,1345
11830,1805
11831,2864
11832,3082
11833,2495
11834,2182
11835,2178
11836,2149
11837,2093
11838,1951
11839,1730
11840,1472
11841,1315
11842,1311
11843,1456
11844,1557
11845,1650
11846,1723
11847,1795
11848,1840
11849,1866
11850,1878
11851,1905
11852,1927
11853,1936
11854,1923
11855,1919
11856,1813
11857,1591
11858,1879
11859,1695
11860,1453
11861,1781
11862,2896
11863,2987
11864,2409
11865,2185
11866,2176
11867,2160
11868,2089
11869,1925
11870,1674
11871,1396
11872,1237
11873,1335
11874,1470
11875,1580
11876,1661
11877,1773
11878,1808
11879,1814
11880,1840
11881,1858
11882,1915
11883,1904
11884,1907
11885,1915
11886,1944
11887,1918
11888,1914
11889,1885
11890,1930
11891,1904
11892,1878
11893,1873
11894,1881
11895,1865
11896,1854
11897,1840
11898,1865
11899,1883
11900,1870
11901,1872
11902,1873
11903,1879
11904,1859
11905,1858
11906,1871
11907,1881
11908,1859
11909,1859
11910,1872
11911,1865
11912,1834
11913,1834
11914,1831
11915,1866
11916,1867
11917,1858
11918,1864
11919,1864
11920,1866
11921,1863
11922,1859
