Time(ms),Raw_ADC
0,464
1,1697
2,1875
3,1935
4,1949
5,1968
6,2389
7,2510
8,2198
9,2655
10,3070
11,2766
12,2091
13,1497
14,1230
15,1088
16,1084
17,1165
18,1377
19,1646
20,1762
21,1814
22,1834
23,1839
24,1856
25,1888
26,1887
27,1891
28,1904
29,1899
30,1904
31,755
32,1599
33,1942
34,1844
35,1837
36,1891
37,2327
38,2425
39,2160
40,2795
41,3181
42,2787
43,2080
44,1520
45,1266
46,1078
47,1048
48,1170
49,1461
50,1707
51,1777
52,1841
53,1834
54,1857
55,1845
56,1853
57,1861
58,1907
59,1889
60,1889
61,1913
62,1776
63,1427
64,1904
65,1866
66,1965
67,1968
68,2398
69,2447
70,1959
71,2651
72,3071
73,2729
74,2176
75,1607
76,1213
77,997
78,1040
79,1181
80,1417
81,1661
82,1804
83,1883
84,1873
85,1860
86,1866
87,1870
88,1858
89,1857
90,1883
91,1938
92,1905
93,2704
94,1190
95,1904
96,1863
97,1904
98,1968
99,2387
100,2428
101,2059
102,2710
103,3153
104,2832
105,2141
106,1531
107,1164
108,976
109,989
110,1127
111,1387
112,1691
113,1794
114,1852
115,1892
116,1905
117,1901
118,1872
119,1893
120,1877
121,1900
122,1878
123,1878
124,2499
125,942
126,1886
127,1872
128,1965
129,2021
130,2386
131,2478
132,1932
133,2608
134,3125
135,2861
136,2199
137,1607
138,1180
139,938
140,926
141,1107
142,1386
143,1633
144,1786
145,1876
146,1886
147,1893
148,1897
149,1933
150,1953
151,1900
152,1904
153,1920
154,1901
155,1967
156,681
157,1871
158,1863
159,1916
160,1968
161,2309
162,2525
163,1967
164,2559
165,3127
166,2944
167,2320
168,1637
169,1210
170,990
171,930
172,1040
173,1343
174,1616
175,1798
176,1856
177,1867
178,1872
179,1887
180,1885
181,1894
182,1895
183,1968
184,1904
185,1889
186,1888
187,397
188,1779
189,1815
190,1857
191,1893
192,2221
193,2466
194,2000
195,2658
196,3194
197,2977
198,2387
199,1755
200,1310
201,1011
202,959
203,1050
204,1359
205,1605
206,1745
207,1791
208,1829
209,1867
210,1881
211,1921
212,1909
213,1921
214,1920
215,1931
216,1936
217,1907
218,308
219,1727
220,1827
221,1827
222,1872
223,2133
224,2511
225,1996
226,2482
227,3148
228,3039
229,2439
230,1746
231,1287
232,1062
233,1008
234,1050
235,1296
236,1611
237,1786
238,1821
239,1840
240,1877
241,1881
242,1899
243,1888
244,1903
245,1945
246,1925
247,1913
248,1919
249,478
250,1641
251,1837
252,1821
253,1868
254,2101
255,2471
256,1955
257,2398
258,3124
259,3067
260,2534
261,1868
262,1367
263,1075
264,947
265,1072
266,1294
267,1586
268,1744
269,1824
270,1866
271,1867
272,1861
273,1898
274,1874
275,1909
276,1916
277,1911
278,1907
279,1899
280,689
281,1566
282,1891
283,1926
284,1987
285,2177
286,2559
287,2032
288,2166
289,3007
290,3071
291,2528
292,1846
293,1317
294,1008
295,955
296,1013
297,1259
298,1569
299,1767
300,1841
301,1851
302,1872
303,1861
304,1902
305,1873
306,1866
307,1925
308,1932
309,1920
310,1919
311,2127
312,1282
313,1911
314,1897
315,1998
316,2138
317,2512
318,1978
319,2043
320,2960
321,3131
322,2705
323,2070
324,1494
325,1168
326,943
327,985
328,1250
329,1564
330,1739
331,1825
332,1851
333,1857
334,1881
335,1857
336,1851
337,1855
338,1872
339,1879
340,1883
341,1891
342,2800
343,1131
344,1899
345,1863
346,1927
347,2006
348,2420
349,2202
350,2060
351,2918
352,3184
353,2851
354,2155
355,1520
356,1104
357,944
358,982
359,1119
360,1437
361,1683
362,1854
363,1866
364,1868
365,1901
366,1947
367,1897
368,1887
369,1921
370,1902
371,1897
372,1877
373,2298
374,832
375,1840
376,1808
377,1881
378,2018
379,2408
380,2304
381,1979
382,2885
383,3216
384,2836
385,2181
386,1570
387,1245
388,958
389,930
390,1136
391,1445
392,1680
393,1808
394,1862
395,1903
396,1881
397,1884
398,1882
399,1910
400,1919
401,1883
402,1894
403,1938
404,2018
405,739
406,1862
407,1866
408,2002
409,2077
410,2446
411,2343
412,1664
413,2613
414,3134
415,2921
416,2378
417,1715
418,1244
419,933
420,937
421,1061
422,1356
423,1629
424,1825
425,1852
426,1853
427,1873
428,1904
429,1902
430,1895
431,1907
432,1949
433,1970
434,1910
435,1898
436,402
437,1799
438,1833
439,1904
440,2013
441,2383
442,2405
443,1757
444,2544
445,3137
446,2976
447,2410
448,1808
449,1352
450,1014
451,880
452,992
453,1342
454,1646
455,1782
456,1853
457,1856
458,1900
459,1851
460,1859
461,1894
462,1941
463,1904
464,1904
465,1920
466,1954
467,1907
468,1902
469,1863
470,1903
471,1879
472,1872
473,1903
474,1875
475,1907
476,1883
477,1886
478,1900
479,1899
480,1865
481,1846
482,1863
483,1871
484,1867
485,1857
486,1875
487,1901
488,1843
489,1834
490,1845
491,1857
492,1882
493,1867
494,1887
495,1895
496,1874
497,1863
498,1872
499,1916
500,1883
501,1859
502,1838
503,1871
504,1831
505,1825
506,1853
507,1874
508,1876
509,1841
510,1854
511,1827
512,1861
513,1861
514,1867
515,1873
516,1887
517,1875
518,1840
519,1865
520,1835
521,1843
522,1839
523,1840
524,1856
525,1872
526,1852
527,1844
528,1894
529,1879
530,1861
531,1874
532,1879
533,1926
534,1852
535,1843
536,1832
537,1849
538,1839
539,1833
540,1827
541,1882
542,1867
543,1847
544,1875
545,1859
546,1872
547,1870
548,1883
549,1887
550,1891
551,1863
552,1851
553,1840
554,1847
555,1849
556,1869
557,1861
558,1901
559,1873
560,1840
561,1863
562,1904
563,1887
564,1899
565,1906
566,1879
567,1797
568,1783
569,1798
570,1845
571,1887
572,1863
573,1830
574,1851
575,1890
576,1867
577,1843
578,1863
579,1900
580,1883
581,1886
582,1882
583,1889
584,1822
585,1862
586,1872
587,1909
588,1872
589,1809
590,1818
591,1872
592,1847
593,1856
594,1849
595,1886
596,1891
597,1893
598,1855
599,1913
600,1869
601,1842
602,1825
603,1883
604,1843
605,1827
606,1825
607,1863
608,1873
609,1855
610,1867
611,1856
612,1867
613,1867
614,1868
615,1869
616,1927
617,1873
618,1856
619,1851
620,1885
621,1840
622,1837
623,1851
624,1840
625,1882
626,1856
627,1865
628,1862
629,1872
630,1863
631,1854
632,1862
633,1907
634,1852
635,1849
636,1869
637,1861
638,1842
639,1841
640,1880
641,1872
642,1867
643,1872
644,1855
645,1918
646,1872
647,1867
648,1871
649,1885
650,1872
651,1856
652,1845
653,1834
654,1836
655,1828
656,1835
657,1869
658,1905
659,1858
660,1856
661,1863
662,1914
663,1861
664,1861
665,1869
666,1872
667,1866
668,1850
669,1826
670,1862
671,1851
672,1839
673,1843
674,1871
675,1861
676,1855
677,1871
678,1882
679,1874
680,1867
681,1861
682,1904
683,1887
684,1850
685,1842
686,1862
687,1847
688,1837
689,1834
690,1861
691,1872
692,1858
693,1856
694,1838
695,1873
696,1890
697,1858
698,1831
699,1858
700,1872
701,1856
702,1859
703,1852
704,1872
705,1850
706,1834
707,1828
708,1883
709,1861
710,1847
711,1871
712,1907
713,1866
714,1852
715,1859
716,1883
717,1845
718,1849
719,1891
720,1861
721,1856
722,1840
723,1851
724,1872
725,1872
726,1867
727,1862
728,1872
729,1895
730,1865
731,1875
732,1895
733,1857
734,1853
735,1841
736,1855
737,1847
738,1841
739,1843
740,1856
741,1875
742,1884
743,1885
744,1891
745,1859
746,1851
747,1845
748,1842
749,1872
750,1871
751,1840
752,1845
753,1851
754,1856
755,1845
756,1856
757,1855
758,1873
759,1849
760,1852
761,1866
762,1871
763,1865
764,1859
765,1904
766,1922
767,1857
768,1856
769,1879
770,1872
771,1853
772,1845
773,1862
774,1840
775,1872
776,1855
777,1862
778,1875
779,1883
780,1872
781,1863
782,1890
783,1893
784,1854
785,1837
786,1850
787,1872
788,1843
789,1841
790,1843
791,1863
792,1875
793,1863
794,1840
795,1903
796,1877
797,1872
798,1843
799,1887
800,1850
801,1837
802,1861
803,1837
804,1851
805,1828
806,1831
807,1857
808,1885
809,1865
810,1863
811,1872
812,1863
813,1863
814,1857
815,1862
816,1873
817,1871
818,1852
819,1871
820,1854
821,1855
822,1838
823,1869
824,1826
825,1874
826,1856
827,1857
828,1872
829,1886
830,1869
831,1855
832,1871
833,1867
834,1845
835,1847
836,1883
837,1829
838,1826
839,1839
840,1829
841,1840
842,1867
843,1867
844,1867
845,1894
846,1889
847,1872
848,1863
849,1906
850,1884
851,1863
852,1858
853,1830
854,1863
855,1842
856,1831
857,1834
858,1909
859,1861
860,1862
861,1862
862,1866
863,1868
864,1858
865,1885
866,1878
867,1854
868,1840
869,1844
870,1851
871,1840
872,1839
873,1840
874,1870
875,1877
876,1865
877,1867
878,1883
879,1874
880,1867
881,1862
882,1855
883,1906
884,1859
885,1854
886,1852
887,1841
888,1835
889,1835
890,1841
891,1861
892,1872
893,1863
894,1874
895,1859
896,1854
897,1856
898,1862
899,1893
900,1898
901,1875
902,1879
903,1877
904,1829
905,1804
906,1810
907,1841
908,1892
909,1878
910,1877
911,1869
912,1902
913,1874
914,1866
915,1866
916,1874
917,1840
918,1849
919,1855
920,1854
921,1846
922,1842
923,1843
924,1846
925,1854
926,1843
927,1847
928,1878
929,1869
930,1861
931,1863
932,1905
933,1882
934,1858
935,1843
936,1882
937,1856
938,1843
939,1842
940,1868
941,1867
942,1871
943,1856
944,1863
945,1872
946,1869
947,1865
948,1845
949,1889
950,1875
951,1852
952,1854
953,1841
954,1844
955,1831
956,1826
957,1870
958,1888
959,1855
960,1859
961,1860
962,1871
963,1866
964,1859
965,1869
966,1891
967,1870
968,1851
969,1867
970,1824
971,1841
972,1836
973,1856
974,1858
975,1878
976,1853
977,1863
978,1923
979,1876
980,1865
981,1871
982,1868
983,1917
984,1856
985,1846
986,1871
987,1863
988,1827
989,1834
990,1869
991,1846
992,1871
993,1860
994,1856
995,1904
996,1886
997,1873
998,1847
999,1870
1000,1865
1001,1846
1002,1841
1003,1872
1004,1842
1005,1825
1006,1851
1007,1892
1008,1918
1009,1871
1010,1862
1011,1867
1012,1877
1013,1862
1014,1863
1015,1854
1016,1904
1017,1861
1018,1857
1019,1845
1020,1859
1021,1844
1022,1846
1023,1833
1024,1851
1025,1871
1026,1851
1027,1854
1028,1871
1029,1876
1030,1859
1031,1872
1032,1890
1033,1874
1034,1846
1035,1854
1036,1846
1037,1858
1038,1825
1039,1834
1040,1855
1041,1877
1042,1871
1043,1866
1044,1859
1045,1871
1046,1866
1047,1863
1048,1888
1049,1878
1050,1871
1051,1857
1052,1851
1053,1829
1054,1847
1055,1835
1056,1846
1057,1833
1058,1888
1059,1858
1060,1855
1061,1862
1062,1882
1063,1868
1064,1860
1065,1869
1066,1885
1067,1860
1068,1854
1069,1884
1070,1885
1071,1840
1072,1839
1073,1850
1074,1821
1075,1866
1076,1850
1077,1861
1078,1870
1079,1877
1080,1853
1081,1859
1082,1890
1083,1863
1084,1861
1085,1853
1086,1868
1087,1862
1088,1835
1089,1837
1090,1891
1091,1895
1092,1861
1093,1845
1094,1846
1095,1874
1096,1871
1097,1863
1098,1872
1099,1909
1100,1869
1101,1852
1102,1843
1103,1870
1104,1841
1105,1839
1106,1830
1107,1870
1108,1873
1109,1849
1110,1867
1111,1851
1112,1899
1113,1865
1114,1862
1115,1853
1116,1910
1117,1864
1118,1850
1119,1852
1120,1863
1121,1851
1122,1839
1123,1857
1124,1869
1125,1869
1126,1853
1127,1871
1128,1899
1129,1872
1130,1865
1131,1859
1132,1887
1133,1872
1134,1849
1135,1846
1136,1841
1137,1855
1138,1830
1139,1828
1140,1830
1141,1875
1142,1872
1143,1866
1144,1883
1145,1887
1146,1872
1147,1863
1148,1877
1149,1890
1150,1877
1151,1854
1152,1855
1153,1847
1154,1861
1155,1840
1156,1835
1157,1887
1158,1872
1159,1861
1160,1865
1161,1914
1162,1871
1163,1859
1164,1859
1165,1886
1166,1853
1167,1856
1168,1835
1169,1840
1170,1850
1171,1840
1172,1835
1173,1831
1174,1867
1175,1881
1176,1867
1177,1872
1178,1887
1179,1873
1180,1866
1181,1878
1182,1883
1183,1920
1184,1856
1185,1850
1186,1853
1187,1850
1188,1841
1189,1837
1190,1831
1191,1872
1192,1869
1193,1863
1194,1869
1195,1873
1196,1862
1197,1861
1198,1858
1199,1912
1200,1872
1201,1853
1202,1847
1203,1856
1204,1850
1205,1838
1206,1835
1207,1854
1208,1872
1209,1856
1210,1856
1211,1851
1212,1885
1213,1870
1214,1866
1215,1859
1216,1885
1217,1863
1218,1847
1219,1846
1220,1850
1221,1847
1222,1839
1223,1854
1224,1846
1225,1871
1226,1858
1227,1856
1228,1859
1229,1856
1230,1863
1231,1863
1232,1879
1233,1858
1234,1854
1235,1849
1236,1847
1237,1862
1238,1840
1239,1838
1240,1871
1241,1874
1242,1872
1243,1865
1244,1842
1245,1883
1246,1862
1247,1859
1248,1872
1249,1863
1250,1872
1251,1848
1252,1843
1253,1889
1254,1841
1255,1829
1256,1834
1257,1856
1258,1872
1259,1856
1260,1871
1261,1873
1262,1905
1263,1875
1264,1871
1265,1883
1266,1859
1267,1851
1268,1840
1269,1820
1270,1843
1271,1836
1272,1840
1273,1853
1274,1883
1275,1872
1276,1857
1277,1866
1278,1901
1279,1885
1280,1866
1281,1858
1282,1878
1283,1845
1284,1846
1285,1833
1286,1863
1287,1843
1288,1838
1289,1840
1290,1868
1291,1884
1292,1868
1293,1859
1294,1830
1295,1877
1296,1872
1297,1871
1298,1871
1299,1872
1300,1868
1301,1834
1302,1857
1303,1851
1304,1852
1305,1839
1306,1856
1307,1875
1308,1893
1309,1872
1310,1863
1311,1862
1312,1872
1313,1853
1314,1844
1315,1879
1316,1885
1317,1859
1318,1847
1319,1879
1320,1885
1321,1856
1322,1826
1323,1827
1324,1858
1325,1869
1326,1852
1327,1861
1328,1842
1329,1867
1330,1839
1331,1818
1332,1866
1333,1876
1334,1861
1335,1845
1336,1846
1337,1849
1338,1839
1339,1840
1340,1858
1341,1878
1342,1870
1343,1857
1344,1829
1345,1907
1346,1871
1347,1862
1348,1856
1349,1894
1350,1866
1351,1839
1352,1855
1353,1878
1354,1853
1355,1840
1356,1847
1357,1846
1358,1879
1359,1863
1360,1872
1361,1851
1362,1895
1363,1862
1364,1860
1365,1872
1366,1876
1367,1859
1368,1851
1369,1859
1370,1811
1371,1840
1372,1840
1373,1873
1374,1837
1375,1863
1376,1852
1377,1853
1378,1852
1379,1876
1380,1872
1381,1890
1382,1921
1383,1888
1384,1847
1385,1840
1386,1870
1387,1859
1388,1828
1389,1838
1390,1848
1391,1857
1392,1867
1393,1861
1394,1836
1395,1901
1396,1872
1397,1863
1398,1893
1399,1865
1400,1873
1401,1855
1402,1847
1403,1858
1404,1842
1405,1839
1406,1823
1407,1892
1408,1856
1409,1859
1410,1855
1411,1874
1412,1885
1413,1850
1414,1858
1415,1858
1416,1903
1417,1861
1418,1859
1419,1872
1420,1851
1421,1840
1422,1828
1423,1848
1424,1836
1425,1872
1426,1855
1427,1843
1428,1871
1429,1875
1430,1859
1431,1846
1432,1863
1433,1904
1434,1853
1435,1838
1436,1822
1437,1834
1438,1825
1439,1826
1440,1824
1441,1841
1442,1869
1443,1854
1444,1911
1445,1899
1446,1869
1447,1865
1448,1862
1449,1942
1450,1873
1451,1863
1452,1851
1453,1910
1454,1872
1455,1853
1456,1856
1457,1852
1458,1855
1459,1821
1460,1845
1461,1870
1462,1855
1463,579
1464,1840
1465,1931
1466,1859
1467,1785
1468,1797
1469,1806
1470,2043
1471,2192
1472,2289
1473,2642
1474,2928
1475,2775
1476,2289
1477,1765
1478,1471
1479,1395
1480,1399
1481,1411
1482,1440
1483,1534
1484,1631
1485,1722
1486,1691
1487,1598
1488,1662
1489,1767
1490,1835
1491,1891
1492,1870
1493,1872
1494,431
1495,1722
1496,1851
1497,1751
1498,1764
1499,1810
1500,1886
1501,2352
1502,2674
1503,2727
1504,2870
1505,2819
1506,2333
1507,1803
1508,1388
1509,1261
1510,1259
1511,1267
1512,1382
1513,1522
1514,1668
1515,1811
1516,1873
1517,1848
1518,1838
1519,1889
1520,1903
1521,1870
1522,1868
1523,1875
1524,1887
1525,450
1526,1670
1527,1837
1528,1807
1529,1778
1530,1773
1531,1904
1532,2551
1533,2768
1534,2511
1535,2707
1536,2839
1537,2448
1538,1744
1539,1311
1540,1191
1541,1197
1542,1221
1543,1360
1544,1535
1545,1730
1546,1822
1547,1842
1548,1872
1549,1915
1550,1879
1551,1857
1552,1877
1553,1887
1554,1872
1555,1856
1556,805
1557,1533
1558,1882
1559,1902
1560,1998
1561,1967
1562,2108
1563,2674
1564,2689
1565,2131
1566,2634
1567,2832
1568,2350
1569,1691
1570,1371
1571,1152
1572,1077
1573,1135
1574,1316
1575,1555
1576,1707
1577,1781
1578,1851
1579,1866
1580,1874
1581,1904
1582,1909
1583,1918
1584,1897
1585,1881
1586,1872
1587,1861
1588,1409
1589,1871
1590,1913
1591,1997
1592,1961
1593,2151
1594,2701
1595,2493
1596,2032
1597,2736
1598,2897
1599,2445
1600,1779
1601,1343
1602,1085
1603,958
1604,1046
1605,1258
1606,1488
1607,1678
1608,1840
1609,1847
1610,1871
1611,1913
1612,1909
1613,1903
1614,1894
1615,1942
1616,1970
1617,1904
1618,2739
1619,1239
1620,1824
1621,1783
1622,1863
1623,1872
1624,2147
1625,2656
1626,2343
1627,2157
1628,2899
1629,2930
1630,2411
1631,1803
1632,1379
1633,1072
1634,976
1635,1089
1636,1325
1637,1584
1638,1727
1639,1803
1640,1840
1641,1895
1642,1885
1643,1893
1644,1872
1645,1886
1646,1905
1647,1902
1648,1893
1649,2434
1650,1004
1651,1841
1652,1796
1653,1922
1654,1936
1655,2191
1656,2761
1657,2253
1658,2070
1659,2873
1660,2928
1661,2411
1662,1783
1663,1299
1664,994
1665,962
1666,1120
1667,1360
1668,1591
1669,1744
1670,1803
1671,1841
1672,1851
1673,1855
1674,1896
1675,1904
1676,1909
1677,1907
1678,1936
1679,1917
1680,1952
1681,752
1682,1891
1683,1817
1684,1855
1685,1875
1686,2159
1687,2691
1688,2215
1689,2167
1690,2978
1691,2991
1692,2434
1693,1793
1694,1344
1695,1051
1696,1001
1697,1094
1698,1315
1699,1603
1700,1771
1701,1825
1702,1877
1703,1893
1704,1863
1705,1855
1706,1871
1707,1894
1708,1905
1709,1899
1710,1905
1711,1907
1712,506
1713,1818
1714,1818
1715,1955
1716,2041
1717,2207
1718,2726
1719,2112
1720,1953
1721,2881
1722,2979
1723,2495
1724,1885
1725,1401
1726,1023
1727,963
1728,1062
1729,1291
1730,1580
1731,1780
1732,1892
1733,1867
1734,1857
1735,1856
1736,1822
1737,1841
1738,1845
1739,1857
1740,1871
1741,1929
1742,1925
1743,436
1744,1779
1745,1916
1746,1890
1747,1937
1748,2093
1749,2559
1750,2026
1751,2126
1752,2988
1753,3069
1754,2641
1755,1964
1756,1439
1757,1122
1758,991
1759,959
1760,1209
1761,1558
1762,1732
1763,1817
1764,1857
1765,1923
1766,1915
1767,1888
1768,1878
1769,1916
1770,1938
1771,1889
1772,1872
1773,1881
1774,578
1775,1611
1776,1856
1777,1933
1778,1989
1779,2110
1780,2533
1781,2068
1782,2032
1783,2975
1784,3101
1785,2687
1786,2092
1787,1517
1788,1088
1789,914
1790,944
1791,1183
1792,1481
1793,1714
1794,1813
1795,1872
1796,1883
1797,1875
1798,1891
1799,1911
1800,1908
1801,1889
1802,1900
1803,1923
1804,1894
1805,1139
1806,1465
1807,1850
1808,1854
1809,1942
1810,2055
1811,2512
1812,2059
1813,1968
1814,2941
1815,3225
1816,2848
1817,2157
1818,1573
1819,1121
1820,902
1821,871
1822,1104
1823,1404
1824,1675
1825,1806
1826,1837
1827,1867
1828,1891
1829,1907
1830,1921
1831,1949
1832,1965
1833,1942
1834,1895
1835,1882
1836,2240
1837,1248
1838,1840
1839,1838
1840,1995
1841,2062
1842,2481
1843,2064
1844,1794
1845,2783
1846,3159
1847,2883
1848,2320
1849,1778
1850,1294
1851,928
1852,855
1853,1086
1854,1396
1855,1643
1856,1767
1857,1791
1858,1882
1859,1874
1860,1890
1861,1909
1862,1925
1863,1915
1864,1924
1865,1939
1866,1938
1867,2774
1868,1089
1869,1911
1870,1889
1871,2006
1872,2069
1873,2444
1874,2111
1875,1599
1876,2653
1877,3171
1878,3013
1879,2430
1880,1810
1881,1297
1882,899
1883,880
1884,1033
1885,1358
1886,1613
1887,1763
1888,1807
1889,1840
1890,1879
1891,1901
1892,1877
1893,1891
1894,1909
1895,1937
1896,1923
1897,1920
1898,2255
1899,842
1900,1864
1901,1822
1902,1910
1903,2000
1904,2355
1905,2160
1906,1712
1907,2741
1908,3213
1909,3005
1910,2466
1911,1820
1912,1363
1913,947
1914,831
1915,999
1916,1363
1917,1616
1918,1769
1919,1820
1920,1884
1921,1863
1922,1871
1923,1872
1924,1955
1925,1925
1926,1924
1927,1894
1928,1952
1929,1961
1930,605
1931,1838
1932,1842
1933,1993
1934,2047
1935,2398
1936,2205
1937,1493
1938,2535
1939,3142
1940,3056
1941,2559
1942,1883
1943,1330
1944,926
1945,853
1946,987
1947,1310
1948,1646
1949,1769
1950,1840
1951,1853
1952,1877
1953,1877
1954,1872
1955,1872
1956,1890
1957,1903
1958,1939
1959,1910
1960,1909
1961,305
1962,1779
1963,1858
1964,2004
1965,2133
1966,2415
1967,2410
1968,1490
1969,2432
1970,3083
1971,3004
1972,2507
1973,1890
1974,1441
1975,1015
1976,894
1977,976
1978,1298
1979,1590
1980,1769
1981,1853
1982,1891
1983,1891
1984,1872
1985,1872
1986,1932
1987,1907
1988,1890
1989,1882
1990,1890
1991,1887
1992,323
1993,1712
1994,1873
1995,1975
1996,2099
1997,2356
1998,2423
1999,1437
2000,2323
2001,3071
2002,3126
2003,2689
2004,2019
2005,1454
2006,966
2007,816
2008,965
2009,1225
2010,1535
2011,1776
2012,1872
2013,1886
2014,1902
2015,1907
2016,1871
2017,1861
2018,1861
2019,1899
2020,1890
2021,1903
2022,1894
2023,593
2024,1535
2025,1867
2026,1925
2027,2094
2028,2333
2029,2483
2030,1507
2031,2261
2032,3059
2033,3167
2034,2658
2035,2002
2036,1503
2037,1056
2038,816
2039,858
2040,1179
2041,1526
2042,1745
2043,1836
2044,1866
2045,1890
2046,1892
2047,1894
2048,1920
2049,1913
2050,1917
2051,1899
2052,1929
2053,1937
2054,1458
2055,1437
2056,1890
2057,1872
2058,2046
2059,2202
2060,2479
2061,1600
2062,2167
2063,3056
2064,3179
2065,2762
2066,2141
2067,1520
2068,1023
2069,816
2070,917
2071,1168
2072,1466
2073,1690
2074,1794
2075,1856
2076,1895
2077,1923
2078,1931
2079,1919
2080,1906
2081,1915
2082,1909
2083,1925
2084,1899
2085,1906
2086,1887
2087,1895
2088,1872
2089,1872
2090,1915
2091,1899
2092,1895
2093,1888
2094,1904
2095,1887
2096,1893
2097,1882
2098,1895
2099,1945
2100,1889
2101,1842
2102,1837
2103,1855
2104,1839
2105,1827
2106,1844
2107,1883
2108,1883
2109,1862
2110,1872
2111,1882
2112,1889
2113,1873
2114,1860
2115,1895
2116,1883
2117,1856
2118,1844
2119,1858
2120,1856
2121,1834
2122,1835
2123,1855
2124,1877
2125,1871
2126,1860
2127,1855
2128,1872
2129,1856
2130,1856
2131,1884
2132,1872
2133,1895
2134,1855
2135,1853
2136,1830
2137,1851
2138,1831
2139,1837
2140,1858
2141,1845
2142,1863
2143,1858
2144,1925
2145,1881
2146,1869
2147,1855
2148,1879
2149,1915
2150,1865
2151,1838
2152,1845
2153,1872
2154,1840
2155,1829
2156,1823
2157,1869
2158,1872
2159,1849
2160,1869
2161,1902
2162,1898
2163,1877
2164,1869
2165,1890
2166,1858
2167,1851
2168,1862
2169,1868
2170,1904
2171,1853
2172,1813
2173,1811
2174,1835
2175,1856
2176,1859
2177,1872
2178,1869
2179,1878
2180,1885
2181,1891
2182,1905
2183,1907
2184,1871
2185,1825
2186,1846
2187,1860
2188,1837
2189,1807
2190,1804
2191,1901
2192,1857
2193,1857
2194,1858
2195,1881
2196,1872
2197,1871
2198,1907
2199,1936
2200,1875
2201,1831
2202,1834
2203,1885
2204,1841
2205,1831
2206,1814
2207,1840
2208,1869
2209,1856
2210,1861
2211,1863
2212,1872
2213,1872
2214,1872
2215,1882
2216,1880
2217,1856
2218,1850
2219,1854
2220,1869
2221,1840
2222,1840
2223,1851
2224,1867
2225,1867
2226,1871
2227,1841
2228,1914
2229,1883
2230,1867
2231,1874
2232,1872
2233,1886
2234,1840
2235,1836
2236,1840
2237,1859
2238,1840
2239,1841
2240,1869
2241,1879
2242,1863
2243,1871
2244,1883
2245,1889
2246,1863
2247,1862
2248,1862
2249,1850
2250,1857
2251,1845
2252,1836
2253,1869
2254,1840
2255,1836
2256,1835
2257,1846
2258,1874
2259,1863
2260,1883
2261,1875
2262,1907
2263,1902
2264,1916
2265,1911
2266,1874
2267,1845
2268,1827
2269,1794
2270,1851
2271,1834
2272,1838
2273,1872
2274,1837
2275,1840
2276,1843
2277,1872
2278,1898
2279,1874
2280,1886
2281,1872
2282,1870
2283,1871
2284,1829
2285,1845
2286,1852
2287,1850
2288,1856
2289,1871
2290,1861
2291,1841
2292,1819
2293,1838
2294,1895
2295,1882
2296,1872
2297,1866
2298,1899
2299,1875
2300,1859
2301,1839
2302,1831
2303,1895
2304,1850
2305,1847
2306,1874
2307,1904
2308,1843
2309,1853
2310,1863
2311,1866
2312,1872
2313,1863
2314,1860
2315,1893
2316,1879
2317,1861
2318,1856
2319,1858
2320,1849
2321,1839
2322,1837
2323,1861
2324,1863
2325,1872
2326,1864
2327,1869
2328,1911
2329,1872
2330,1855
2331,1856
2332,1873
2333,1873
2334,1847
2335,1841
2336,1850
2337,1855
2338,1846
2339,1847
2340,1857
2341,1873
2342,1845
2343,1842
2344,1883
2345,1877
2346,1872
2347,1872
2348,1874
2349,1883
2350,1861
2351,1847
2352,1863
2353,1857
2354,1846
2355,1837
2356,1856
2357,1846
2358,1872
2359,1865
2360,1872
2361,1906
2362,1895
2363,1865
2364,1869
2365,1886
2366,1877
2367,1847
2368,1838
2369,1837
2370,1850
2371,1840
2372,1840
2373,1889
2374,1877
2375,1868
2376,1870
2377,1904
2378,1905
2379,1887
2380,1887
2381,1866
2382,1855
2383,1859
2384,1858
2385,1857
2386,1840
2387,1829
2388,1822
2389,1839
2390,1881
2391,1887
2392,1863
2393,1863
2394,1857
2395,1903
2396,1859
2397,1855
2398,1861
2399,1917
2400,1855
2401,1856
2402,1856
2403,1858
2404,1843
2405,1843
2406,1851
2407,1915
2408,1887
2409,1871
2410,1869
2411,1879
2412,1867
2413,1854
2414,1861
2415,1877
2416,1868
2417,1856
2418,1847
2419,1851
2420,1861
2421,1840
2422,1835
2423,1845
2424,1859
2425,1850
2426,1856
2427,1826
2428,1895
2429,1866
2430,1869
2431,1885
2432,1904
2433,1887
2434,1854
2435,1853
2436,1868
2437,1842
2438,1834
2439,1838
2440,1856
2441,1875
2442,1860
2443,1860
2444,1889
2445,1874
2446,1875
2447,1867
2448,1882
2449,1877
2450,1866
2451,1840
2452,1855
2453,1846
2454,1832
2455,1808
2456,1819
2457,1878
2458,1866
2459,1850
2460,1861
2461,1902
2462,1889
2463,1862
2464,1871
2465,1879
2466,1879
2467,1870
2468,1847
2469,1856
2470,1825
2471,1839
2472,1835
2473,1843
2474,1879
2475,1871
2476,1869
2477,1914
2478,1892
2479,1872
2480,1873
2481,1851
2482,1886
2483,1872
2484,1842
2485,1842
2486,1859
2487,1855
2488,1845
2489,1845
2490,1856
2491,1888
2492,1862
2493,1861
2494,1855
2495,1879
2496,1857
2497,1871
2498,1890
2499,1933
2500,1868
2501,1857
2502,1855
2503,1854
2504,1840
2505,1830
2506,1835
2507,1857
2508,1874
2509,1866
2510,1869
2511,1856
2512,1886
2513,1869
2514,1859
2515,1887
2516,1887
2517,1842
2518,1829
2519,1825
2520,1814
2521,1833
2522,1840
2523,1861
2524,1867
2525,1874
2526,1861
2527,1840
2528,1925
2529,1872
2530,1846
2531,1856
2532,1901
2533,1883
2534,1856
2535,1842
2536,1891
2537,1847
2538,1834
2539,1846
2540,1883
2541,1872
2542,1859
2543,1856
2544,1872
2545,1890
2546,1865
2547,1859
2548,1891
2549,1865
2550,1856
2551,1847
2552,1841
2553,1872
2554,1840
2555,1828
2556,1838
2557,1827
2558,1872
2559,1855
2560,1870
2561,1890
2562,1875
2563,1870
2564,1866
2565,1879
2566,1874
2567,1856
2568,1851
2569,1847
2570,1855
2571,1840
2572,1838
2573,1821
2574,1861
2575,1863
2576,1850
2577,1861
2578,1909
2579,1863
2580,1861
2581,1867
2582,1861
2583,1869
2584,1841
2585,1845
2586,1855
2587,1851
2588,1838
2589,1841
2590,1851
2591,1875
2592,1866
2593,1866
2594,1853
2595,1880
2596,1867
2597,1854
2598,1858
2599,1873
2600,1859
2601,1843
2602,1849
2603,1831
2604,1840
2605,1834
2606,1870
2607,1900
2608,1875
2609,1856
2610,1851
2611,1851
2612,1876
2613,1866
2614,1877
2615,1885
2616,1905
2617,1857
2618,1853
2619,1857
2620,1841
2621,1838
2622,1827
2623,1855
2624,1888
2625,1858
2626,1844
2627,1867
2628,1874
2629,1871
2630,1863
2631,1853
2632,1882
2633,1872
2634,1849
2635,1850
2636,1872
2637,1851
2638,1828
2639,1839
2640,1852
2641,1882
2642,1848
2643,1863
2644,1878
2645,1875
2646,1872
2647,1859
2648,1868
2649,1909
2650,1872
2651,1855
2652,1872
2653,1839
2654,1840
2655,1827
2656,1872
2657,1838
2658,1867
2659,1871
2660,1868
2661,1933
2662,1875
2663,1865
2664,1867
2665,1894
2666,1881
2667,1856
2668,1839
2669,1839
2670,1840
2671,1840
2672,1827
2673,1873
2674,1865
2675,1856
2676,1861
2677,1870
2678,1884
2679,1872
2680,1858
2681,1850
2682,1872
2683,1873
2684,1856
2685,1858
2686,1853
2687,1851
2688,1839
2689,1830
2690,1837
2691,1889
2692,1855
2693,1857
2694,1913
2695,1869
2696,1861
2697,1842
2698,1898
2699,1872
2700,1872
2701,1848
2702,1879
2703,1840
2704,1840
2705,1839
2706,1858
2707,1836
2708,1872
2709,1857
2710,1856
2711,1894
2712,1874
2713,1859
2714,1856
2715,1870
2716,1870
2717,1852
2718,1856
2719,1858
2720,1867
2721,1835
2722,1831
2723,1852
2724,1866
2725,1871
2726,1879
2727,1873
2728,1927
2729,1863
2730,1868
2731,1853
2732,1871
2733,1875
2734,1858
2735,1867
2736,1877
2737,1859
2738,1833
2739,1808
2740,1866
2741,1866
2742,1840
2743,1856
2744,1919
2745,1875
2746,1863
2747,1865
2748,1904
2749,1858
2750,1856
2751,1850
2752,1891
2753,1873
2754,1851
2755,1814
2756,1803
2757,1866
2758,1856
2759,1852
2760,1849
2761,1855
2762,1877
2763,1870
2764,1854
2765,1904
2766,1899
2767,1855
2768,1828
2769,1878
2770,1852
2771,1840
2772,1835
2773,1866
2774,1882
2775,1869
2776,1862
2777,1854
2778,1888
2779,1872
2780,1872
2781,1872
2782,1879
2783,1872
2784,1840
2785,1841
2786,1867
2787,1845
2788,1830
2789,1859
2790,1856
2791,1879
2792,1859
2793,1863
2794,1900
2795,1887
2796,1862
2797,1866
2798,1904
2799,1883
2800,1856
2801,1850
2802,1872
2803,1851
2804,1841
2805,1830
2806,1830
2807,1874
2808,1874
2809,1867
2810,1872
2811,1888
2812,1875
2813,1861
2814,1845
2815,1882
2816,1867
2817,1841
2818,1849
2819,1846
2820,1849
2821,1839
2822,1840
2823,1854
2824,1871
2825,1863
2826,1847
2827,1860
2828,1887
2829,1870
2830,1861
2831,1889
2832,1902
2833,1873
2834,1853
2835,1840
2836,1855
2837,1840
2838,1835
2839,1838
2840,1851
2841,1875
2842,1856
2843,1856
2844,1855
2845,1883
2846,1869
2847,1858
2848,1869
2849,1900
2850,1859
2851,1846
2852,1881
2853,1866
2854,1835
2855,1839
2856,1831
2857,1854
2858,1867
2859,1855
2860,1867
2861,1875
2862,1873
2863,1866
2864,1886
2865,1904
2866,1908
2867,1845
2868,1842
2869,1860
2870,1854
2871,1832
2872,1828
2873,1840
2874,1875
2875,1843
2876,1856
2877,1859
2878,1872
2879,1857
2880,1861
2881,1865
2882,1927
2883,1873
2884,1857
2885,1842
2886,1859
2887,1841
2888,1835
2889,1828
2890,1856
2891,1877
2892,1868
2893,1872
2894,1891
2895,1883
2896,1870
2897,1868
2898,1893
2899,1875
2900,1868
2901,1854
2902,1855
2903,1859
2904,1837
2905,1821
2906,1840
2907,1857
2908,1873
2909,1859
2910,1872
2911,1872
2912,1873
2913,1863
2914,1853
2915,1904
2916,1879
2917,1852
2918,1851
2919,1850
2920,1866
2921,1839
2922,1831
2923,1826
2924,1887
2925,1863
2926,1862
2927,1857
2928,1881
2929,1872
2930,1856
2931,1872
2932,1938
2933,1862
2934,1844
2935,1863
2936,1840
2937,1837
2938,1829
2939,1861
2940,1840
2941,1877
2942,1865
2943,1860
2944,1857
2945,1882
2946,1871
2947,1872
2948,1872
2949,1873
2950,1857
2951,1842
2952,1849
2953,1840
2954,1845
2955,1838
2956,1827
2957,1860
2958,1869
2959,1846
2960,1858
2961,1918
2962,1875
2963,1859
2964,1828
2965,1898
2966,1874
2967,1845
2968,1843
2969,1879
2970,1845
2971,1840
2972,1836
2973,1842
2974,1884
2975,1869
2976,1858
2977,1846
2978,1859
2979,1871
2980,1866
2981,1905
2982,1891
2983,1881
2984,1854
2985,1840
2986,1840
2987,1840
2988,1829
2989,1839
2990,1835
2991,1889
2992,1862
2993,1866
2994,1895
2995,1887
2996,1862
2997,1857
2998,1907
2999,1891
3000,1857
3001,1854
3002,1866
3003,1877
3004,1855
3005,1843
3006,1843
3007,1837
3008,1855
3009,1827
3010,1843
3011,1891
3012,1877
3013,1866
3014,1889
3015,1884
3016,1878
3017,1851
3018,1846
3019,1891
3020,1860
3021,1835
3022,1830
3023,1843
3024,1854
3025,1865
3026,1855
3027,1873
3028,1878
3029,1857
3030,1850
3031,1867
3032,1884
3033,1872
3034,1855
3035,1861
3036,1871
3037,1840
3038,1824
3039,1840
3040,1853
3041,1877
3042,1867
3043,1872
3044,1875
3045,1892
3046,1870
3047,1859
3048,1867
3049,1953
3050,1856
3051,1842
3052,1877
3053,1863
3054,1841
3055,1835
3056,1844
3057,1862
3058,1874
3059,1857
3060,1872
3061,1873
3062,1867
3063,1862
3064,1870
3065,1873
3066,1904
3067,1858
3068,1835
3069,1847
3070,1855
3071,1840
3072,1843
3073,1839
3074,1884
3075,1865
3076,1870
3077,1877
3078,1910
3079,1872
3080,1870
3081,715
3082,1637
3083,1925
3084,1789
3085,1749
3086,1808
3087,1831
3088,1977
3089,2183
3090,2225
3091,2529
3092,2882
3093,2876
3094,2512
3095,1971
3096,1535
3097,1409
3098,1390
3099,1407
3100,1359
3101,1415
3102,1527
3103,1649
3104,1723
3105,1698
3106,1709
3107,1819
3108,1855
3109,1863
3110,1865
3111,1890
3112,1999
3113,1375
3114,1885
3115,1823
3116,1796
3117,1776
3118,1831
3119,2170
3120,2629
3121,2559
3122,2606
3123,2802
3124,2583
3125,2003
3126,1490
3127,1274
3128,1281
3129,1246
3130,1313
3131,1474
3132,1610
3133,1743
3134,1811
3135,1837
3136,1904
3137,1918
3138,1919
3139,1893
3140,1869
3141,1807
3142,1840
3143,2721
3144,1122
3145,1872
3146,1807
3147,1818
3148,1837
3149,1919
3150,2368
3151,2764
3152,2434
3153,2448
3154,2787
3155,2589
3156,2019
3157,1569
3158,1281
3159,1170
3160,1181
3161,1311
3162,1473
3163,1631
3164,1747
3165,1808
3166,1887
3167,1871
3168,1872
3169,1873
3170,1889
3171,1872
3172,1884
3173,1881
3174,2587
3175,1035
3176,1850
3177,1826
3178,1961
3179,1936
3180,1983
3181,2512
3182,2725
3183,2075
3184,2411
3185,2877
3186,2598
3187,1934
3188,1399
3189,1194
3190,1097
3191,1145
3192,1251
3193,1456
3194,1717
3195,1813
3196,1850
3197,1873
3198,1899
3199,1930
3200,1879
3201,1870
3202,1925
3203,1895
3204,1876
3205,1887
3206,704
3207,1813
3208,1821
3209,1965
3210,2005
3211,2112
3212,2632
3213,2653
3214,1858
3215,2495
3216,2925
3217,2599
3218,1940
3219,1494
3220,1197
3221,1052
3222,1072
3223,1211
3224,1488
3225,1690
3226,1808
3227,1839
3228,1879
3229,1887
3230,1875
3231,1888
3232,1895
3233,1901
3234,1879
3235,1899
3236,1915
3237,546
3238,1771
3239,1754
3240,1867
3241,1959
3242,2018
3243,2611
3244,2533
3245,1837
3246,2608
3247,2977
3248,2613
3249,2064
3250,1523
3251,1234
3252,1043
3253,1085
3254,1223
3255,1470
3256,1687
3257,1810
3258,1854
3259,1853
3260,1858
3261,1903
3262,1902
3263,1895
3264,1905
3265,1916
3266,1892
3267,1890
3268,455
3269,1724
3270,1775
3271,1739
3272,1776
3273,1890
3274,2525
3275,2413
3276,2070
3277,2806
3278,3033
3279,2622
3280,1988
3281,1533
3282,1251
3283,1086
3284,1075
3285,1235
3286,1495
3287,1697
3288,1791
3289,1823
3290,1869
3291,1893
3292,1875
3293,1876
3294,1920
3295,1921
3296,1905
3297,1903
3298,1947
3299,640
3300,1600
3301,1808
3302,1811
3303,1904
3304,2024
3305,2661
3306,2415
3307,1774
3308,2644
3309,2963
3310,2608
3311,2096
3312,1535
3313,1192
3314,1018
3315,1103
3316,1243
3317,1493
3318,1698
3319,1803
3320,1846
3321,1829
3322,1858
3323,1873
3324,1902
3325,1899
3326,1899
3327,1920
3328,1894
3329,1904
3330,1269
3331,1497
3332,1878
3333,1855
3334,1931
3335,2043
3336,2559
3337,2297
3338,1790
3339,2760
3340,3086
3341,2783
3342,2133
3343,1589
3344,1187
3345,991
3346,986
3347,1154
3348,1440
3349,1724
3350,1817
3351,1848
3352,1903
3353,1883
3354,1858
3355,1854
3356,1872
3357,1903
3358,1913
3359,1901
3360,1904
3361,2392
3362,1294
3363,1885
3364,1867
3365,2001
3366,2099
3367,2482
3368,2247
3369,1765
3370,2709
3371,3117
3372,2823
3373,2199
3374,1617
3375,1196
3376,959
3377,977
3378,1115
3379,1413
3380,1660
3381,1823
3382,1869
3383,1882
3384,1879
3385,1894
3386,1901
3387,1897
3388,1887
3389,1877
3390,1911
3391,1901
3392,2672
3393,1052
3394,1879
3395,1871
3396,2032
3397,2109
3398,2509
3399,2270
3400,1621
3401,2641
3402,3120
3403,2896
3404,2305
3405,1702
3406,1251
3407,985
3408,940
3409,1035
3410,1291
3411,1655
3412,1808
3413,1856
3414,1882
3415,1908
3416,1893
3417,1872
3418,1870
3419,1872
3420,1905
3421,1879
3422,1882
3423,2134
3424,767
3425,1857
3426,1818
3427,1974
3428,2074
3429,2451
3430,2303
3431,1708
3432,2681
3433,3169
3434,2944
3435,2337
3436,1741
3437,1251
3438,950
3439,913
3440,1052
3441,1337
3442,1635
3443,1789
3444,1861
3445,1904
3446,1898
3447,1892
3448,1928
3449,1904
3450,1904
3451,1895
3452,1892
3453,1914
3454,1902
3455,594
3456,1819
3457,1840
3458,1962
3459,2038
3460,2385
3461,2314
3462,1722
3463,2701
3464,3207
3465,2948
3466,2369
3467,1712
3468,1264
3469,962
3470,939
3471,1023
3472,1315
3473,1658
3474,1783
3475,1840
3476,1890
3477,1886
3478,1935
3479,1895
3480,1904
3481,1936
3482,1962
3483,1915
3484,1890
3485,1861
3486,376
3487,1744
3488,1801
3489,1873
3490,2013
3491,2320
3492,2375
3493,1648
3494,2599
3495,3162
3496,3024
3497,2476
3498,1859
3499,1374
3500,1035
3501,932
3502,1011
3503,1299
3504,1567
3505,1745
3506,1872
3507,1904
3508,1898
3509,1891
3510,1910
3511,1907
3512,1905
3513,1904
3514,1895
3515,1936
3516,1958
3517,276
3518,1678
3519,1872
3520,1911
3521,2011
3522,2298
3523,2448
3524,1579
3525,2435
3526,3120
3527,3043
3528,2559
3529,1831
3530,1359
3531,1067
3532,1037
3533,1045
3534,1264
3535,1567
3536,1734
3537,1803
3538,1855
3539,1883
3540,1862
3541,1917
3542,1900
3543,1914
3544,1935
3545,1932
3546,1906
3547,1891
3548,657
3549,1535
3550,1855
3551,1888
3552,2079
3553,2352
3554,2591
3555,1565
3556,2282
3557,3155
3558,3043
3559,2538
3560,1903
3561,1446
3562,1104
3563,931
3564,1051
3565,1261
3566,1535
3567,1733
3568,1823
3569,1934
3570,1895
3571,1870
3572,1856
3573,1887
3574,1903
3575,1906
3576,1904
3577,1937
3578,1919
3579,1627
3580,1397
3581,1904
3582,1877
3583,1967
3584,2149
3585,2493
3586,1742
3587,2273
3588,3067
3589,3120
3590,2671
3591,2000
3592,1443
3593,1089
3594,933
3595,1018
3596,1229
3597,1515
3598,1731
3599,1858
3600,1857
3601,1859
3602,1879
3603,1902
3604,1877
3605,1882
3606,1903
3607,1904
3608,1907
3609,1904
3610,2352
3611,1213
3612,1872
3613,1841
3614,2030
3615,2239
3616,2626
3617,1693
3618,2157
3619,3011
3620,3117
3621,2653
3622,1999
3623,1461
3624,1136
3625,930
3626,975
3627,1181
3628,1519
3629,1699
3630,1811
3631,1872
3632,1950
3633,1909
3634,1899
3635,1898
3636,1899
3637,1889
3638,1887
3639,1879
3640,1915
3641,2554
3642,928
3643,1872
3644,1851
3645,2027
3646,2183
3647,2599
3648,1905
3649,1937
3650,2937
3651,3168
3652,2781
3653,2128
3654,1532
3655,1132
3656,912
3657,981
3658,1150
3659,1411
3660,1663
3661,1856
3662,1869
3663,1891
3664,1904
3665,1919
3666,1918
3667,1900
3668,1905
3669,1952
3670,1905
3671,1880
3672,1983
3673,658
3674,1851
3675,1818
3676,1998
3677,2160
3678,2609
3679,1978
3680,1828
3681,2919
3682,3199
3683,2832
3684,2171
3685,1600
3686,1226
3687,912
3688,910
3689,1090
3690,1442
3691,1712
3692,1833
3693,1840
3694,1861
3695,1904
3696,1903
3697,1907
3698,1935
3699,1938
3700,1915
3701,1916
3702,1915
3703,1920
3704,1882
3705,1866
3706,1872
3707,1915
3708,1902
3709,1891
3710,1920
3711,1938
3712,1923
3713,1921
3714,1896
3715,1895
3716,1866
3717,1836
3718,1808
3719,1809
3720,1837
3721,1822
3722,1813
3723,1840
3724,1866
3725,1865
3726,1866
3727,1879
3728,1904
3729,1872
3730,1873
3731,1886
3732,1906
3733,1882
3734,1870
3735,1906
3736,1880
3737,1859
3738,1838
3739,1855
3740,1861
3741,1861
3742,1850
3743,1844
3744,1867
3745,1861
3746,1853
3747,1858
3748,1873
3749,1898
3750,1856
3751,1840
3752,1876
3753,1894
3754,1854
3755,1847
3756,1853
3757,1851
3758,1857
3759,1849
3760,1855
3761,1879
3762,1872
3763,1865
3764,1892
3765,1876
3766,1891
3767,1858
3768,1840
3769,1887
3770,1843
3771,1823
3772,1839
3773,1863
3774,1883
3775,1853
3776,1858
3777,1870
3778,1872
3779,1862
3780,1851
3781,1859
3782,1899
3783,1873
3784,1862
3785,1891
3786,1875
3787,1846
3788,1814
3789,1820
3790,1837
3791,1859
3792,1849
3793,1862
3794,1875
3795,1873
3796,1864
3797,1867
3798,1904
3799,1900
3800,1877
3801,1865
3802,1838
3803,1862
3804,1838
3805,1840
3806,1854
3807,1890
3808,1837
3809,1783
3810,1824
3811,1840
3812,1847
3813,1851
3814,1852
3815,1872
3816,1883
3817,1853
3818,1849
3819,1851
3820,1865
3821,1846
3822,1853
3823,1845
3824,1872
3825,1859
3826,1863
3827,1879
3828,1867
3829,1863
3830,1863
3831,1879
3832,1921
3833,1872
3834,1853
3835,1863
3836,1855
3837,1840
3838,1840
3839,1849
3840,1864
3841,1863
3842,1853
3843,1859
3844,1899
3845,1870
3846,1859
3847,1867
3848,1879
3849,1889
3850,1870
3851,1852
3852,1844
3853,1852
3854,1840
3855,1840
3856,1835
3857,1899
3858,1887
3859,1863
3860,1872
3861,1891
3862,1874
3863,1872
3864,1847
3865,1920
3866,1883
3867,1856
3868,1845
3869,1854
3870,1856
3871,1831
3872,1819
3873,1840
3874,1865
3875,1872
3876,1861
3877,1893
3878,1888
3879,1874
3880,1879
3881,1884
3882,1926
3883,1863
3884,1854
3885,1823
3886,1856
3887,1838
3888,1835
3889,1843
3890,1857
3891,1874
3892,1858
3893,1867
3894,1863
3895,1873
3896,1859
3897,1856
3898,1895
3899,1902
3900,1868
3901,1863
3902,1899
3903,1882
3904,1847
3905,1854
3906,1862
3907,1921
3908,1839
3909,1827
3910,1868
3911,1875
3912,1872
3913,1875
3914,1856
3915,1887
3916,1846
3917,1837
3918,1841
3919,1804
3920,1823
3921,1826
3922,1835
3923,1878
3924,1888
3925,1857
3926,1858
3927,1901
3928,1899
3929,1865
3930,1870
3931,1865
3932,1904
3933,1872
3934,1858
3935,1845
3936,1868
3937,1836
3938,1838
3939,1831
3940,1869
3941,1886
3942,1856
3943,1866
3944,1885
3945,1872
3946,1860
3947,1868
3948,1899
3949,1891
3950,1856
3951,1842
3952,1819
3953,1843
3954,1830
3955,1827
3956,1853
3957,1869
3958,1868
3959,1857
3960,1883
3961,1883
3962,1883
3963,1872
3964,1854
3965,1857
3966,1881
3967,1843
3968,1856
3969,1862
3970,1855
3971,1843
3972,1839
3973,1815
3974,1874
3975,1855
3976,1856
3977,1896
3978,1900
3979,1874
3980,1872
3981,1879
3982,1921
3983,1869
3984,1847
3985,1863
3986,1856
3987,1830
3988,1827
3989,1870
3990,1840
3991,1881
3992,1869
3993,1873
3994,1891
3995,1879
3996,1870
3997,1895
3998,1886
3999,1900
4000,1860
4001,1840
4002,1827
4003,1841
4004,1841
4005,1831
4006,1825
4007,1876
4008,1871
4009,1866
4010,1902
4011,1901
4012,1873
4013,1853
4014,1839
4015,1858
4016,1877
4017,1849
4018,1855
4019,1850
4020,1861
4021,1850
4022,1845
4023,1856
4024,1872
4025,1857
4026,1842
4027,1875
4028,1868
4029,1867
4030,1862
4031,1875
4032,1919
4033,1868
4034,1859
4035,1851
4036,1855
4037,1838
4038,1823
4039,1832
4040,1877
4041,1871
4042,1857
4043,1861
4044,1856
4045,1877
4046,1857
4047,1840
4048,1859
4049,1872
4050,1851
4051,1846
4052,1873
4053,1882
4054,1837
4055,1840
4056,1821
4057,1861
4058,1872
4059,1867
4060,1886
4061,1904
4062,1885
4063,1872
4064,1900
4065,1904
4066,1865
4067,1840
4068,1841
4069,1842
4070,1861
4071,1843
4072,1842
4073,1856
4074,1872
4075,1872
4076,1871
4077,1907
4078,1877
4079,1855
4080,1852
4081,1856
4082,1883
4083,1872
4084,1850
4085,1875
4086,1875
4087,1840
4088,1824
4089,1853
4090,1826
4091,1863
4092,1856
4093,1861
4094,1869
4095,1883
4096,1867
4097,1863
4098,1851
4099,1905
4100,1856
4101,1854
4102,1882
4103,1879
4104,1836
4105,1838
4106,1856
4107,1841
4108,1847
4109,1857
4110,1904
4111,1873
4112,1877
4113,1865
4114,1857
4115,1871
4116,1877
4117,1845
4118,1831
4119,1841
4120,1849
4121,1838
4122,1842
4123,1851
4124,1876
4125,1857
4126,1856
4127,1854
4128,1881
4129,1871
4130,1866
4131,1869
4132,1877
4133,1853
4134,1834
4135,1850
4136,1841
4137,1833
4138,1835
4139,1834
4140,1873
4141,1877
4142,1866
4143,1845
4144,1920
4145,1875
4146,1866
4147,1869
4148,1869
4149,1894
4150,1868
4151,1869
4152,1813
4153,1844
4154,1834
4155,1829
4156,1810
4157,1835
4158,1865
4159,1853
4160,1871
4161,1872
4162,1874
4163,1870
4164,1855
4165,1899
4166,1867
4167,1847
4168,1842
4169,1843
4170,1853
4171,1841
4172,1847
4173,1865
4174,1909
4175,1874
4176,1866
4177,1863
4178,1872
4179,1863
4180,1858
4181,1859
4182,1919
4183,1870
4184,1851
4185,1842
4186,1862
4187,1840
4188,1827
4189,1830
4190,1849
4191,1872
4192,1867
4193,1856
4194,1911
4195,1873
4196,1866
4197,1872
4198,1883
4199,1884
4200,1858
4201,1847
4202,1806
4203,1840
4204,1827
4205,1834
4206,1863
4207,1891
4208,1861
4209,1857
4210,1872
4211,1902
4212,1872
4213,1860
4214,1884
4215,1888
4216,1872
4217,1855
4218,1842
4219,1867
4220,1854
4221,1833
4222,1827
4223,1872
4224,1877
4225,1847
4226,1856
4227,1881
4228,1874
4229,1858
4230,1868
4231,1859
4232,1904
4233,1867
4234,1862
4235,1857
4236,1843
4237,1842
4238,1833
4239,1854
4240,1845
4241,1868
4242,1856
4243,1868
4244,1880
4245,1879
4246,1866
4247,1861
4248,1874
4249,1915
4250,1857
4251,1852
4252,1854
4253,1853
4254,1829
4255,1822
4256,1824
4257,1862
4258,1866
4259,1841
4260,1865
4261,1895
4262,1871
4263,1856
4264,1860
4265,1872
4266,1878
4267,1849
4268,1840
4269,1855
4270,1856
4271,1840
4272,1838
4273,1838
4274,1855
4275,1865
4276,1872
4277,1870
4278,1869
4279,1866
4280,1865
4281,1890
4282,1873
4283,1878
4284,1849
4285,1843
4286,1866
4287,1835
4288,1811
4289,1872
4290,1857
4291,1872
4292,1862
4293,1870
4294,1882
4295,1873
4296,1867
4297,1873
4298,1899
4299,1923
4300,1862
4301,1840
4302,1840
4303,1863
4304,1840
4305,1831
4306,1865
4307,1874
4308,1846
4309,1850
4310,1865
4311,1881
4312,1886
4313,1873
4314,1889
4315,1899
4316,1873
4317,1837
4318,1826
4319,1872
4320,1856
4321,1839
4322,1830
4323,1841
4324,1852
4325,1862
4326,1858
4327,1899
4328,1879
4329,1846
4330,1838
4331,1883
4332,1895
4333,1869
4334,1851
4335,1814
4336,1839
4337,1835
4338,1837
4339,1866
4340,1862
4341,1862
4342,1867
4343,1870
4344,1859
4345,1868
4346,1857
4347,1870
4348,1892
4349,1897
4350,1857
4351,1855
4352,1842
4353,1843
4354,1827
4355,1830
4356,1854
4357,1858
4358,1872
4359,1867
4360,1856
4361,1871
4362,1873
4363,1868
4364,1872
4365,1905
4366,1872
4367,1850
4368,1846
4369,1862
4370,1854
4371,1836
4372,1840
4373,1862
4374,1865
4375,1850
4376,1854
4377,1888
4378,1899
4379,1867
4380,1867
4381,1857
4382,1894
4383,1872
4384,1852
4385,1839
4386,1854
4387,1840
4388,1836
4389,1867
4390,1866
4391,1873
4392,1855
4393,1869
4394,1858
4395,1885
4396,1861
4397,1869
4398,1885
4399,1872
4400,1851
4401,1862
4402,1859
4403,1863
4404,1835
4405,1834
4406,1862
4407,1851
4408,1842
4409,1865
4410,1879
4411,1903
4412,1874
4413,1876
4414,1894
4415,1861
4416,1859
4417,1859
4418,1850
4419,1840
4420,1834
4421,1814
4422,1831
4423,1872
4424,1907
4425,1866
4426,1869
4427,1883
4428,1875
4429,1861
4430,1867
4431,1875
4432,1859
4433,1850
4434,1837
4435,1872
4436,1856
4437,1840
4438,1837
4439,1829
4440,1862
4441,1857
4442,1843
4443,1861
4444,1904
4445,1883
4446,1869
4447,1874
4448,1883
4449,1866
4450,1858
4451,1850
4452,1852
4453,1871
4454,1843
4455,1840
4456,1855
4457,1858
4458,1861
4459,1856
4460,1895
4461,1904
4462,1872
4463,1871
4464,1879
4465,1885
4466,1868
4467,1843
4468,1840
4469,1866
4470,1850
4471,1831
4472,1835
4473,1861
4474,1886
4475,1861
4476,1868
4477,1872
4478,1872
4479,1863
4480,1857
4481,1882
4482,1914
4483,1866
4484,1855
4485,1873
4486,1850
4487,1842
4488,1839
4489,1872
4490,1862
4491,1861
4492,1856
4493,1868
4494,1852
4495,1872
4496,1863
4497,1868
4498,1904
4499,1890
4500,1861
4501,1855
4502,1856
4503,1867
4504,1835
4505,1840
4506,1863
4507,1867
4508,1861
4509,1863
4510,1900
4511,1874
4512,1877
4513,1872
4514,1886
4515,1889
4516,1856
4517,1846
4518,1862
4519,1892
4520,1831
4521,1818
4522,1843
4523,1842
4524,1842
4525,1834
4526,1843
4527,1903
4528,1905
4529,1857
4530,1867
4531,1887
4532,1895
4533,1857
4534,1843
4535,1840
4536,1858
4537,1842
4538,1838
4539,1829
4540,1856
4541,1873
4542,1871
4543,1872
4544,1899
4545,1873
4546,1869
4547,1867
4548,1874
4549,1895
4550,1856
4551,1839
4552,1857
4553,1853
4554,1827
4555,1833
4556,1867
4557,1870
4558,1861
4559,1843
4560,1840
4561,1879
4562,1863
4563,1857
4564,1881
4565,1875
4566,1872
4567,1847
4568,1843
4569,1856
4570,1847
4571,1835
4572,1845
4573,1849
4574,1883
4575,1867
4576,1859
4577,1862
4578,1874
4579,1861
4580,1871
4581,1895
4582,1915
4583,1866
4584,1837
4585,1857
4586,1840
4587,1835
4588,1829
4589,1856
4590,1863
4591,1872
4592,1858
4593,1871
4594,1903
4595,1883
4596,1866
4597,1863
4598,1886
4599,1904
4600,1853
4601,1842
4602,1865
4603,1843
4604,1838
4605,1838
4606,1876
4607,1877
4608,1867
4609,1870
4610,1874
4611,1922
4612,1873
4613,1863
4614,1859
4615,1897
4616,1865
4617,1848
4618,1854
4619,1875
4620,1846
4621,1834
4622,1826
4623,1879
4624,1883
4625,1872
4626,1861
4627,1883
4628,1872
4629,1857
4630,1858
4631,1885
4632,1883
4633,1862
4634,1851
4635,1851
4636,1857
4637,1840
4638,1840
4639,1840
4640,1855
4641,1872
4642,1867
4643,1884
4644,1870
4645,1882
4646,1877
4647,1850
4648,1876
4649,1856
4650,1811
4651,1837
4652,1840
4653,1865
4654,1840
4655,1842
4656,1823
4657,1882
4658,1858
4659,1853
4660,1845
4661,1872
4662,1872
4663,1867
4664,1889
4665,1919
4666,1883
4667,1850
4668,1840
4669,1859
4670,1845
4671,1840
4672,1831
4673,1857
4674,1852
4675,1858
4676,1847
4677,1889
4678,1873
4679,1865
4680,1868
4681,1898
4682,1871
4683,1861
4684,1854
4685,1872
4686,1855
4687,1840
4688,1831
4689,1835
4690,1854
4691,1867
4692,1857
4693,1867
4694,1874
4695,1874
4696,1863
4697,1857
4698,1883
4699,2519
4700,1021
4701,1895
4702,1814
4703,1755
4704,1713
4705,1758
4706,1921
4707,2145
4708,2208
4709,2375
4710,2793
4711,3045
4712,2731
4713,2199
4714,1717
4715,1449
4716,1413
4717,1393
4718,1365
4719,1408
4720,1507
4721,1606
4722,1665
4723,1557
4724,1626
4725,1809
4726,1909
4727,1951
4728,1936
4729,1877
4730,1856
4731,660
4732,1783
4733,1772
4734,1684
4735,1707
4736,1722
4737,1983
4738,2522
4739,2669
4740,2585
4741,2838
4742,2768
4743,2288
4744,1699
4745,1371
4746,1280
4747,1247
4748,1311
4749,1430
4750,1535
4751,1670
4752,1801
4753,1835
4754,1840
4755,1853
4756,1884
4757,1915
4758,1901
4759,1901
4760,1895
4761,1910
4762,451
4763,1787
4764,1827
4765,1823
4766,1804
4767,1773
4768,2158
4769,2736
4770,2608
4771,2311
4772,2752
4773,2772
4774,2287
4775,1577
4776,1279
4777,1215
4778,1200
4779,1264
4780,1405
4781,1600
4782,1749
4783,1794
4784,1835
4785,1856
4786,1898
4787,1861
4788,1860
4789,1868
4790,1883
4791,1904
4792,1890
4793,416
4794,1717
4795,1854
4796,1927
4797,1982
4798,2000
4799,2370
4800,2783
4801,2242
4802,2035
4803,2767
4804,2785
4805,2213
4806,1619
4807,1281
4808,1122
4809,1078
4810,1162
4811,1437
4812,1616
4813,1779
4814,1853
4815,1859
4816,1857
4817,1857
4818,1876
4819,1909
4820,1876
4821,1863
4822,1888
4823,1907
4824,614
4825,1645
4826,1849
4827,1891
4828,1968
4829,1954
4830,2352
4831,2801
4832,2041
4833,2243
4834,2943
4835,2841
4836,2266
4837,1594
4838,1235
4839,1065
4840,1058
4841,1155
4842,1361
4843,1616
4844,1790
4845,1863
4846,1873
4847,1865
4848,1872
4849,1904
4850,1884
4851,1890
4852,1951
4853,1895
4854,1872
4855,1309
4856,1456
4857,1839
4858,1811
4859,1903
4860,1935
4861,2368
4862,2672
4863,1861
4864,2366
4865,3023
4866,2832
4867,2225
4868,1641
4869,1335
4870,1095
4871,1034
4872,1087
4873,1390
4874,1634
4875,1759
4876,1842
4877,1911
4878,1922
4879,1894
4880,1891
4881,1895
4882,1973
4883,1899
4884,1886
4885,1869
4886,2427
4887,1288
4888,1807
4889,1728
4890,1854
4891,1904
4892,2381
4893,2627
4894,1936
4895,2499
4896,3019
4897,2789
4898,2237
4899,1669
4900,1296
4901,1071
4902,1055
4903,1154
4904,1359
4905,1589
4906,1783
4907,1839
4908,1872
4909,1872
4910,1898
4911,1904
4912,1906
4913,1909
4914,1900
4915,1904
4916,1909
4917,2672
4918,1104
4919,1862
4920,1744
4921,1821
4922,1856
4923,2384
4924,2641
4925,1834
4926,2503
4927,3034
4928,2843
4929,2211
4930,1655
4931,1317
4932,1174
4933,1043
4934,1135
4935,1389
4936,1642
4937,1770
4938,1829
4939,1850
4940,1869
4941,1897
4942,1887
4943,1905
4944,1918
4945,1919
4946,1911
4947,1881
4948,2149
4949,774
4950,1841
4951,1809
4952,2000
4953,2064
4954,2445
4955,2618
4956,1585
4957,2299
4958,3039
4959,2946
4960,2401
4961,1787
4962,1333
4963,1047
4964,975
4965,1072
4966,1307
4967,1559
4968,1734
4969,1844
4970,1858
4971,1870
4972,1872
4973,1904
4974,1904
4975,1898
4976,1904
4977,1917
4978,1924
4979,1917
4980,605
4981,1840
4982,1853
4983,1973
4984,2044
4985,2321
4986,2525
4987,1525
4988,2282
4989,3041
4990,3038
4991,2541
4992,1911
4993,1431
4994,1165
4995,1004
4996,1004
4997,1211
4998,1534
4999,1733
5000,1838
5001,1874
5002,1872
5003,1867
5004,1835
5005,1851
5006,1850
5007,1927
5008,1901
5009,1899
5010,1904
5011,453
5012,1775
5013,1830
5014,1975
5015,2087
5016,2327
5017,2483
5018,1535
5019,2315
5020,3037
5021,3021
5022,2547
5023,1901
5024,1445
5025,1065
5026,944
5027,1013
5028,1267
5029,1555
5030,1722
5031,1819
5032,1895
5033,1879
5034,1885
5035,1906
5036,1885
5037,1883
5038,1886
5039,1874
5040,1922
5041,1923
5042,327
5043,1727
5044,1868
5045,1852
5046,1925
5047,2191
5048,2465
5049,1751
5050,2447
5051,3085
5052,3093
5053,2559
5054,1879
5055,1372
5056,1068
5057,943
5058,1008
5059,1217
5060,1535
5061,1778
5062,1841
5063,1881
5064,1887
5065,1908
5066,1904
5067,1885
5068,1886
5069,1919
5070,1898
5071,1876
5072,1856
5073,650
5074,1502
5075,1853
5076,1857
5077,1990
5078,2193
5079,2521
5080,1757
5081,2322
5082,3165
5083,3123
5084,2659
5085,2018
5086,1493
5087,1104
5088,912
5089,961
5090,1205
5091,1498
5092,1712
5093,1815
5094,1900
5095,1903
5096,1903
5097,1933
5098,1957
5099,1936
5100,1903
5101,1891
5102,1897
5103,1900
5104,1599
5105,1360
5106,1850
5107,1857
5108,1942
5109,2101
5110,2478
5111,1840
5112,2245
5113,3041
5114,3150
5115,2762
5116,2109
5117,1488
5118,1122
5119,977
5120,965
5121,1130
5122,1389
5123,1645
5124,1851
5125,1879
5126,1918
5127,1919
5128,1901
5129,1861
5130,1883
5131,1936
5132,1923
5133,1909
5134,1899
5135,2659
5136,1129
5137,1842
5138,1806
5139,1957
5140,2128
5141,2554
5142,1902
5143,2046
5144,2967
5145,3136
5146,2774
5147,2171
5148,1583
5149,1232
5150,962
5151,933
5152,1153
5153,1424
5154,1651
5155,1777
5156,1871
5157,1874
5158,1890
5159,1885
5160,1895
5161,1923
5162,1922
5163,1920
5164,1911
5165,1936
5166,2540
5167,895
5168,1875
5169,1808
5170,1962
5171,2095
5172,2554
5173,1914
5174,1922
5175,2913
5176,3157
5177,2865
5178,2233
5179,1616
5180,1193
5181,999
5182,999
5183,1109
5184,1389
5185,1652
5186,1841
5187,1840
5188,1840
5189,1886
5190,1901
5191,1909
5192,1904
5193,1882
5194,1969
5195,1922
5196,1907
5197,2192
5198,679
5199,1859
5200,1793
5201,1904
5202,2039
5203,2447
5204,1970
5205,1968
5206,2939
5207,3197
5208,2857
5209,2251
5210,1648
5211,1255
5212,978
5213,976
5214,1108
5215,1411
5216,1673
5217,1797
5218,1863
5219,1874
5220,1883
5221,1868
5222,1860
5223,1921
5224,1933
5225,1905
5226,1914
5227,1909
5228,1936
5229,500
5230,1815
5231,1833
5232,1888
5233,1963
5234,2347
5235,2175
5236,1951
5237,2804
5238,3156
5239,2949
5240,2351
5241,1730
5242,1280
5243,1015
5244,975
5245,1079
5246,1338
5247,1606
5248,1776
5249,1879
5250,1872
5251,1889
5252,1936
5253,1890
5254,1879
5255,1888
5256,1934
5257,1945
5258,1920
5259,1906
5260,272
5261,1744
5262,1834
5263,1917
5264,2077
5265,2432
5266,2304
5267,1694
5268,2662
5269,3111
5270,2928
5271,2359
5272,1751
5273,1275
5274,999
5275,944
5276,1050
5277,1327
5278,1613
5279,1778
5280,1856
5281,1889
5282,1962
5283,1904
5284,1897
5285,1890
5286,1918
5287,1895
5288,1891
5289,1883
5290,1903
5291,354
5292,1648
5293,1831
5294,1870
5295,1970
5296,2295
5297,2372
5298,1783
5299,2624
5300,3152
5301,3017
5302,2470
5303,1839
5304,1310
5305,1008
5306,967
5307,1010
5308,1264
5309,1535
5310,1744
5311,1895
5312,1879
5313,1891
5314,1915
5315,1904
5316,1921
5317,1898
5318,1917
5319,1908
5320,1881
5321,1869
5322,1888
5323,1893
5324,1889
5325,1895
5326,1895
5327,1935
5328,1904
5329,1879
5330,1867
5331,1903
5332,1963
5333,1908
5334,1875
5335,1859
5336,1855
5337,1799
5338,1799
5339,1837
5340,1875
5341,1870
5342,1863
5343,1869
5344,1917
5345,1881
5346,1879
5347,1872
5348,1904
5349,1906
5350,1872
5351,1872
5352,1901
5353,1840
5354,1815
5355,1813
5356,1858
5357,1898
5358,1859
5359,1868
5360,1897
5361,1872
5362,1867
5363,1873
5364,1903
5365,1879
5366,1872
5367,1840
5368,1792
5369,1850
5370,1835
5371,1822
5372,1858
5373,1861
5374,1886
5375,1853
5376,1865
5377,1870
5378,1878
5379,1866
5380,1861
5381,1879
5382,1888
5383,1863
5384,1850
5385,1831
5386,1851
5387,1834
5388,1830
5389,1878
5390,1856
5391,1872
5392,1849
5393,1863
5394,1883
5395,1862
5396,1857
5397,1859
5398,1850
5399,1881
5400,1846
5401,1845
5402,1822
5403,1856
5404,1837
5405,1838
5406,1851
5407,1879
5408,1865
5409,1862
5410,1830
5411,1872
5412,1872
5413,1872
5414,1860
5415,1879
5416,1872
5417,1840
5418,1810
5419,1845
5420,1840
5421,1835
5422,1879
5423,1850
5424,1900
5425,1877
5426,1876
5427,1875
5428,1851
5429,1825
5430,1853
5431,1877
5432,1922
5433,1856
5434,1830
5435,1792
5436,1856
5437,1824
5438,1838
5439,1859
5440,1871
5441,1856
5442,1861
5443,1855
5444,1888
5445,1863
5446,1872
5447,1865
5448,1884
5449,1872
5450,1835
5451,1850
5452,1866
5453,1858
5454,1813
5455,1813
5456,1847
5457,1859
5458,1856
5459,1851
5460,1841
5461,1888
5462,1871
5463,1871
5464,1910
5465,1895
5466,1871
5467,1834
5468,1869
5469,1863
5470,1843
5471,1834
5472,1839
5473,1871
5474,1874
5475,1863
5476,1855
5477,1879
5478,1882
5479,1865
5480,1872
5481,1884
5482,1904
5483,1862
5484,1846
5485,1822
5486,1862
5487,1835
5488,1831
5489,1837
5490,1865
5491,1870
5492,1867
5493,1893
5494,1872
5495,1879
5496,1872
5497,1856
5498,1875
5499,1867
5500,1871
5501,1851
5502,1847
5503,1856
5504,1837
5505,1833
5506,1883
5507,1883
5508,1858
5509,1857
5510,1879
5511,1895
5512,1867
5513,1869
5514,1859
5515,1911
5516,1854
5517,1837
5518,1823
5519,1862
5520,1844
5521,1846
5522,1849
5523,1872
5524,1861
5525,1855
5526,1835
5527,1872
5528,1875
5529,1859
5530,1859
5531,1898
5532,1853
5533,1851
5534,1856
5535,1875
5536,1847
5537,1828
5538,1829
5539,1840
5540,1882
5541,1882
5542,1871
5543,1887
5544,1888
5545,1863
5546,1841
5547,1857
5548,1895
5549,1876
5550,1856
5551,1843
5552,1839
5553,1859
5554,1853
5555,1856
5556,1855
5557,1872
5558,1845
5559,1857
5560,1891
5561,1882
5562,1867
5563,1870
5564,1869
5565,1872
5566,1870
5567,1854
5568,1858
5569,1866
5570,1847
5571,1838
5572,1830
5573,1856
5574,1874
5575,1855
5576,1855
5577,1883
5578,1874
5579,1855
5580,1853
5581,1874
5582,1877
5583,1856
5584,1861
5585,1863
5586,1877
5587,1838
5588,1834
5589,1859
5590,1885
5591,1867
5592,1866
5593,1871
5594,1884
5595,1883
5596,1867
5597,1854
5598,1872
5599,1891
5600,1850
5601,1854
5602,1879
5603,1854
5604,1829
5605,1832
5606,1867
5607,1867
5608,1871
5609,1878
5610,1877
5611,1872
5612,1840
5613,1850
5614,1877
5615,1922
5616,1869
5617,1859
5618,1854
5619,1891
5620,1844
5621,1837
5622,1835
5623,1855
5624,1872
5625,1863
5626,1871
5627,1872
5628,1891
5629,1858
5630,1857
5631,1872
5632,1881
5633,1859
5634,1853
5635,1861
5636,1850
5637,1853
5638,1839
5639,1808
5640,1875
5641,1847
5642,1851
5643,1828
5644,1879
5645,1876
5646,1872
5647,1873
5648,1900
5649,1911
5650,1858
5651,1835
5652,1890
5653,1851
5654,1815
5655,1820
5656,1832
5657,1891
5658,1860
5659,1865
5660,1874
5661,1890
5662,1872
5663,1870
5664,1897
5665,1913
5666,1869
5667,1844
5668,1835
5669,1851
5670,1847
5671,1831
5672,1840
5673,1868
5674,1867
5675,1862
5676,1879
5677,1895
5678,1891
5679,1872
5680,1869
5681,1890
5682,1892
5683,1853
5684,1841
5685,1851
5686,1870
5687,1838
5688,1840
5689,1853
5690,1872
5691,1857
5692,1859
5693,1859
5694,1890
5695,1871
5696,1857
5697,1871
5698,1910
5699,1883
5700,1855
5701,1841
5702,1850
5703,1856
5704,1838
5705,1839
5706,1840
5707,1872
5708,1867
5709,1859
5710,1876
5711,1877
5712,1871
5713,1867
5714,1872
5715,1886
5716,1863
5717,1862
5718,1834
5719,1869
5720,1847
5721,1834
5722,1840
5723,1854
5724,1842
5725,1858
5726,1857
5727,1866
5728,1868
5729,1855
5730,1863
5731,1860
5732,1891
5733,1861
5734,1854
5735,1849
5736,1873
5737,1842
5738,1840
5739,1852
5740,1837
5741,1863
5742,1857
5743,1904
5744,1898
5745,1872
5746,1866
5747,1880
5748,1886
5749,1879
5750,1856
5751,1856
5752,1847
5753,1856
5754,1831
5755,1831
5756,1827
5757,1899
5758,1849
5759,1856
5760,1874
5761,1887
5762,1872
5763,1867
5764,1872
5765,1942
5766,1870
5767,1846
5768,1838
5769,1856
5770,1842
5771,1830
5772,1815
5773,1903
5774,1882
5775,1861
5776,1855
5777,1855
5778,1883
5779,1866
5780,1871
5781,1882
5782,1866
5783,1863
5784,1840
5785,1846
5786,1850
5787,1831
5788,1833
5789,1856
5790,1874
5791,1874
5792,1863
5793,1874
5794,1872
5795,1869
5796,1859
5797,1855
5798,1854
5799,1883
5800,1861
5801,1860
5802,1874
5803,1853
5804,1838
5805,1840
5806,1858
5807,1872
5808,1870
5809,1863
5810,1863
5811,1891
5812,1868
5813,1861
5814,1872
5815,1915
5816,1862
5817,1847
5818,1833
5819,1855
5820,1852
5821,1840
5822,1861
5823,1856
5824,1874
5825,1856
5826,1867
5827,1903
5828,1885
5829,1856
5830,1854
5831,1873
5832,1883
5833,1843
5834,1847
5835,1899
5836,1845
5837,1837
5838,1835
5839,1835
5840,1873
5841,1872
5842,1855
5843,1855
5844,1869
5845,1872
5846,1863
5847,1872
5848,1922
5849,1872
5850,1840
5851,1839
5852,1884
5853,1854
5854,1835
5855,1840
5856,1872
5857,1879
5858,1867
5859,1865
5860,1874
5861,1898
5862,1856
5863,1860
5864,1863
5865,1882
5866,1871
5867,1854
5868,1858
5869,1858
5870,1843
5871,1834
5872,1843
5873,1860
5874,1871
5875,1856
5876,1852
5877,1872
5878,1872
5879,1864
5880,1866
5881,1889
5882,1904
5883,1865
5884,1852
5885,1870
5886,1874
5887,1834
5888,1823
5889,1839
5890,1839
5891,1870
5892,1861
5893,1858
5894,1891
5895,1877
5896,1867
5897,1862
5898,1879
5899,1886
5900,1853
5901,1852
5902,1878
5903,1846
5904,1825
5905,1820
5906,1847
5907,1875
5908,1867
5909,1859
5910,1876
5911,1887
5912,1863
5913,1868
5914,1885
5915,1866
5916,1871
5917,1856
5918,1829
5919,1849
5920,1834
5921,1832
5922,1855
5923,1903
5924,1873
5925,1862
5926,1872
5927,1855
5928,1873
5929,1862
5930,1862
5931,1883
5932,1892
5933,1840
5934,1825
5935,1858
5936,1856
5937,1834
5938,1822
5939,1837
5940,1872
5941,1878
5942,1872
5943,1840
5944,1916
5945,1878
5946,1866
5947,1870
5948,1856
5949,1865
5950,1846
5951,1844
5952,1829
5953,1852
5954,1837
5955,1827
5956,1856
5957,1840
5958,1872
5959,1855
5960,1879
5961,1866
5962,1867
5963,1859
5964,1856
5965,1916
5966,1856
5967,1856
5968,1855
5969,1854
5970,1843
5971,1834
5972,1853
5973,1889
5974,1872
5975,1867
5976,1872
5977,1921
5978,1882
5979,1866
5980,1872
5981,1864
5982,1895
5983,1845
5984,1843
5985,1867
5986,1847
5987,1837
5988,1835
5989,1884
5990,1843
5991,1867
5992,1862
5993,1872
5994,1868
5995,1861
5996,1852
5997,1857
5998,1904
5999,1882
6000,1856
6001,1857
6002,1849
6003,1856
6004,1840
6005,1838
6006,1861
6007,1909
6008,1855
6009,1854
6010,1857
6011,1871
6012,1874
6013,1857
6014,1893
6015,1916
6016,1861
6017,1841
6018,1840
6019,1853
6020,1847
6021,1840
6022,1840
6023,1889
6024,1863
6025,1846
6026,1858
6027,1922
6028,1882
6029,1863
6030,1870
6031,1899
6032,1903
6033,1869
6034,1859
6035,1872
6036,1874
6037,1840
6038,1830
6039,1826
6040,1894
6041,1871
6042,1871
6043,1895
6044,1897
6045,1874
6046,1868
6047,1856
6048,1861
6049,1874
6050,1846
6051,1841
6052,1897
6053,1853
6054,1829
6055,1838
6056,1850
6057,1899
6058,1856
6059,1856
6060,1862
6061,1904
6062,1872
6063,1870
6064,1891
6065,1936
6066,1864
6067,1855
6068,1870
6069,1856
6070,1847
6071,1829
6072,1821
6073,1903
6074,1878
6075,1879
6076,1857
6077,1924
6078,1872
6079,1862
6080,1857
6081,1900
6082,1903
6083,1857
6084,1853
6085,1849
6086,1856
6087,1840
6088,1840
6089,1891
6090,1854
6091,1859
6092,1842
6093,1828
6094,1891
6095,1872
6096,1863
6097,1900
6098,1878
6099,1883
6100,1851
6101,1849
6102,1877
6103,1851
6104,1835
6105,1838
6106,1842
6107,1868
6108,1860
6109,1862
6110,1861
6111,1883
6112,1872
6113,1865
6114,1869
6115,1898
6116,1860
6117,1831
6118,1872
6119,1857
6120,1841
6121,1839
6122,1872
6123,1857
6124,1868
6125,1861
6126,1863
6127,1865
6128,1890
6129,1869
6130,1867
6131,1878
6132,1873
6133,1855
6134,1846
6135,1846
6136,1851
6137,1850
6138,1849
6139,1856
6140,1888
6141,1857
6142,1851
6143,1894
6144,1866
6145,1869
6146,1857
6147,1885
6148,1861
6149,1875
6150,1850
6151,1850
6152,1834
6153,1854
6154,1834
6155,1840
6156,1847
6157,1866
6158,1861
6159,1860
6160,1854
6161,1903
6162,1869
6163,1872
6164,1892
6165,1915
6166,1871
6167,1856
6168,1821
6169,1863
6170,1844
6171,1833
6172,1825
6173,1871
6174,1869
6175,1855
6176,1847
6177,1869
6178,1875
6179,1858
6180,1860
6181,1854
6182,1872
6183,1866
6184,1844
6185,1871
6186,1867
6187,1835
6188,1835
6189,1844
6190,1871
6191,1867
6192,1865
6193,1867
6194,1887
6195,1875
6196,1858
6197,1872
6198,1917
6199,1888
6200,1850
6201,1846
6202,1870
6203,1845
6204,1827
6205,1830
6206,1843
6207,1866
6208,1858
6209,1847
6210,1882
6211,1875
6212,1868
6213,1857
6214,1874
6215,1884
6216,1873
6217,1862
6218,1838
6219,1856
6220,1839
6221,1825
6222,1828
6223,1859
6224,1872
6225,1855
6226,1856
6227,1883
6228,1886
6229,1872
6230,1868
6231,1868
6232,1872
6233,1850
6234,1837
6235,1838
6236,1857
6237,1836
6238,1840
6239,1872
6240,1887
6241,1843
6242,1845
6243,1845
6244,1871
6245,1872
6246,1863
6247,1873
6248,1883
6249,1874
6250,1840
6251,1833
6252,1854
6253,1855
6254,1843
6255,1856
6256,1879
6257,1894
6258,1859
6259,1847
6260,1853
6261,1872
6262,1872
6263,1871
6264,1881
6265,1867
6266,1858
6267,1841
6268,1849
6269,1856
6270,1846
6271,1839
6272,1842
6273,1901
6274,1855
6275,1862
6276,1870
6277,1927
6278,1881
6279,1866
6280,1872
6281,1894
6282,1890
6283,1861
6284,1853
6285,1840
6286,1853
6287,1840
6288,1830
6289,1846
6290,1872
6291,1868
6292,1871
6293,1858
6294,1869
6295,1867
6296,1856
6297,1854
6298,1911
6299,1882
6300,1856
6301,1853
6302,1837
6303,1851
6304,1836
6305,1825
6306,1840
6307,1867
6308,1862
6309,1857
6310,1869
6311,1870
6312,1866
6313,1862
6314,1890
6315,1895
6316,1859
6317,1854
6318,389
6319,1690
6320,1872
6321,1741
6322,1744
6323,1774
6324,1833
6325,2059
6326,2256
6327,2358
6328,2699
6329,3006
6330,2891
6331,2442
6332,1889
6333,1439
6334,1322
6335,1334
6336,1310
6337,1328
6338,1414
6339,1569
6340,1707
6341,1723
6342,1649
6343,1744
6344,1882
6345,1900
6346,1904
6347,1931
6348,1904
6349,661
6350,1558
6351,1821
6352,1723
6353,1712
6354,1712
6355,1805
6356,2275
6357,2724
6358,2643
6359,2749
6360,2926
6361,2559
6362,1939
6363,1425
6364,1263
6365,1216
6366,1212
6367,1297
6368,1443
6369,1607
6370,1726
6371,1799
6372,1840
6373,1850
6374,1904
6375,1900
6376,1887
6377,1905
6378,1911
6379,1902
6380,1099
6381,1479
6382,1883
6383,1767
6384,1757
6385,1763
6386,1827
6387,2395
6388,2674
6389,2459
6390,2752
6391,2971
6392,2634
6393,1962
6394,1466
6395,1205
6396,1094
6397,1159
6398,1312
6399,1490
6400,1664
6401,1780
6402,1866
6403,1863
6404,1849
6405,1840
6406,1866
6407,1895
6408,1892
6409,1904
6410,1882
6411,2559
6412,1232
6413,1872
6414,1873
6415,1979
6416,1958
6417,2032
6418,2515
6419,2559
6420,2000
6421,2585
6422,2943
6423,2594
6424,1938
6425,1397
6426,1151
6427,1076
6428,1116
6429,1247
6430,1463
6431,1709
6432,1819
6433,1841
6434,1852
6435,1856
6436,1887
6437,1855
6438,1863
6439,1881
6440,1927
6441,1919
6442,2559
6443,1019
6444,1888
6445,1857
6446,2003
6447,1994
6448,2099
6449,2559
6450,2314
6451,1855
6452,2708
6453,3026
6454,2611
6455,1936
6456,1495
6457,1197
6458,1017
6459,1051
6460,1193
6461,1502
6462,1685
6463,1797
6464,1862
6465,1951
6466,1897
6467,1875
6468,1899
6469,1922
6470,1918
6471,1893
6472,1921
6473,2207
6474,849
6475,1831
6476,1781
6477,1904
6478,1965
6479,2171
6480,2699
6481,2114
6482,2016
6483,2855
6484,2960
6485,2514
6486,1893
6487,1431
6488,1119
6489,1002
6490,1088
6491,1290
6492,1535
6493,1699
6494,1840
6495,1877
6496,1885
6497,1922
6498,1904
6499,1909
6500,1889
6501,1894
6502,1889
6503,1893
6504,1870
6505,570
6506,1801
6507,1767
6508,1803
6509,1854
6510,2094
6511,2672
6512,2125
6513,2217
6514,2928
6515,3041
6516,2527
6517,1869
6518,1447
6519,1163
6520,994
6521,1060
6522,1239
6523,1504
6524,1741
6525,1840
6526,1868
6527,1899
6528,1910
6529,1901
6530,1887
6531,1918
6532,1920
6533,1885
6534,1870
6535,1885
6536,434
6537,1745
6538,1738
6539,1831
6540,1939
6541,2197
6542,2767
6543,2016
6544,2090
6545,2913
6546,2970
6547,2527
6548,1904
6549,1473
6550,1121
6551,989
6552,1002
6553,1233
6554,1479
6555,1707
6556,1811
6557,1882
6558,1879
6559,1905
6560,1919
6561,1905
6562,1897
6563,1914
6564,1910
6565,1913
6566,1911
6567,407
6568,1675
6569,1819
6570,1917
6571,2079
6572,2258
6573,2736
6574,1853
6575,1750
6576,2815
6577,3031
6578,2695
6579,2063
6580,1490
6581,1127
6582,991
6583,983
6584,1163
6585,1473
6586,1685
6587,1786
6588,1859
6589,1923
6590,1946
6591,1914
6592,1904
6593,1931
6594,1918
6595,1907
6596,1919
6597,1938
6598,800
6599,1500
6600,1873
6601,1942
6602,2126
6603,2227
6604,2587
6605,1731
6606,1814
6607,2867
6608,3124
6609,2799
6610,2220
6611,1591
6612,1167
6613,943
6614,959
6615,1169
6616,1426
6617,1655
6618,1795
6619,1833
6620,1872
6621,1879
6622,1907
6623,1924
6624,1942
6625,1922
6626,1921
6627,1923
6628,1923
6629,1212
6630,1486
6631,1906
6632,1946
6633,2067
6634,2193
6635,2559
6636,1701
6637,1897
6638,2882
6639,3120
6640,2848
6641,2228
6642,1645
6643,1156
6644,961
6645,939
6646,1086
6647,1392
6648,1681
6649,1819
6650,1857
6651,1895
6652,1905
6653,1889
6654,1866
6655,1874
6656,1903
6657,1918
6658,1904
6659,1891
6660,2539
6661,1195
6662,1871
6663,1840
6664,2022
6665,2189
6666,2544
6667,1804
6668,1959
6669,2871
6670,3133
6671,2799
6672,2227
6673,1584
6674,1174
6675,923
6676,959
6677,1111
6678,1413
6679,1674
6680,1819
6681,1904
6682,1936
6683,1909
6684,1879
6685,1882
6686,1895
6687,1897
6688,1889
6689,1931
6690,1940
6691,2395
6692,816
6693,1871
6694,1857
6695,2055
6696,2197
6697,2619
6698,1995
6699,1747
6700,2789
6701,3130
6702,2858
6703,2256
6704,1629
6705,1171
6706,928
6707,937
6708,1072
6709,1360
6710,1648
6711,1837
6712,1870
6713,1905
6714,1936
6715,1953
6716,1921
6717,1898
6718,1877
6719,1893
6720,1875
6721,1870
6722,1901
6723,491
6724,1833
6725,1829
6726,1997
6727,2160
6728,2559
6729,1952
6730,1769
6731,2830
6732,3151
6733,2899
6734,2306
6735,1712
6736,1232
6737,932
6738,897
6739,1022
6740,1362
6741,1658
6742,1822
6743,1857
6744,1892
6745,1917
6746,1909
6747,1922
6748,1917
6749,1915
6750,1902
6751,1895
6752,1947
6753,1889
6754,319
6755,1772
6756,1810
6757,1938
6758,2101
6759,2481
6760,2154
6761,1722
6762,2789
6763,3207
6764,2982
6765,2395
6766,1749
6767,1233
6768,934
6769,941
6770,1023
6771,1284
6772,1592
6773,1776
6774,1862
6775,1846
6776,1866
6777,1894
6778,1923
6779,1920
6780,1930
6781,1936
6782,1922
6783,1906
6784,1899
6785,261
6786,1713
6787,1808
6788,1935
6789,2155
6790,2533
6791,2304
6792,1578
6793,2619
6794,3183
6795,2993
6796,2411
6797,1782
6798,1339
6799,981
6800,897
6801,994
6802,1303
6803,1525
6804,1701
6805,1792
6806,1885
6807,1927
6808,1904
6809,1922
6810,1949
6811,1941
6812,1930
6813,1930
6814,1948
6815,1953
6816,399
6817,1599
6818,1839
6819,1921
6820,2081
6821,2416
6822,2383
6823,1471
6824,2559
6825,3136
6826,3015
6827,2531
6828,1885
6829,1335
6830,1003
6831,936
6832,1037
6833,1238
6834,1493
6835,1712
6836,1832
6837,1857
6838,1872
6839,1873
6840,1887
6841,1919
6842,1921
6843,1935
6844,1975
6845,1926
6846,1914
6847,1191
6848,1490
6849,1876
6850,1877
6851,2101
6852,2448
6853,2532
6854,1447
6855,2381
6856,3089
6857,3085
6858,2555
6859,1919
6860,1416
6861,1035
6862,883
6863,981
6864,1245
6865,1582
6866,1728
6867,1821
6868,1858
6869,1919
6870,1894
6871,1899
6872,1913
6873,1898
6874,1931
6875,1921
6876,1934
6877,1930
6878,2378
6879,1271
6880,1888
6881,1839
6882,2064
6883,2297
6884,2559
6885,1535
6886,2286
6887,2999
6888,3003
6889,2594
6890,2026
6891,1470
6892,1072
6893,987
6894,1071
6895,1209
6896,1473
6897,1693
6898,1816
6899,1879
6900,1869
6901,1901
6902,1905
6903,1909
6904,1901
6905,1904
6906,1955
6907,1932
6908,1910
6909,2703
6910,1059
6911,1894
6912,1813
6913,2031
6914,2267
6915,2714
6916,1535
6917,2111
6918,3008
6919,3025
6920,2674
6921,2043
6922,1523
6923,1086
6924,967
6925,995
6926,1185
6927,1429
6928,1675
6929,1799
6930,1865
6931,1911
6932,1933
6933,1910
6934,1894
6935,1902
6936,1933
6937,1910
6938,1908
6939,1887
6940,1912
6941,1884
6942,1872
6943,1892
6944,1917
6945,1903
6946,1885
6947,1898
6948,1892
6949,1902
6950,1873
6951,1872
6952,1869
6953,1871
6954,1840
6955,1846
6956,1866
6957,1862
6958,1862
6959,1862
6960,1872
6961,1894
6962,1845
6963,1840
6964,1857
6965,1882
6966,1863
6967,1849
6968,1877
6969,1872
6970,1856
6971,1842
6972,1883
6973,1856
6974,1856
6975,1842
6976,1856
6977,1931
6978,1885
6979,1871
6980,1869
6981,1888
6982,1889
6983,1834
6984,1840
6985,1842
6986,1862
6987,1840
6988,1834
6989,1847
6990,1881
6991,1857
6992,1847
6993,1852
6994,1899
6995,1872
6996,1872
6997,1872
6998,1895
6999,1871
7000,1850
7001,1846
7002,1877
7003,1851
7004,1829
7005,1826
7006,1883
7007,1885
7008,1856
7009,1863
7010,1905
7011,1873
7012,1863
7013,1853
7014,1866
7015,1893
7016,1847
7017,1835
7018,1818
7019,1855
7020,1840
7021,1835
7022,1833
7023,1866
7024,1874
7025,1855
7026,1871
7027,1931
7028,1878
7029,1858
7030,1855
7031,1862
7032,1879
7033,1857
7034,1849
7035,1825
7036,1851
7037,1850
7038,1847
7039,1845
7040,1845
7041,1861
7042,1862
7043,1858
7044,1870
7045,1877
7046,1861
7047,1865
7048,1839
7049,1863
7050,1854
7051,1857
7052,1843
7053,1843
7054,1815
7055,1839
7056,1857
7057,1872
7058,1858
7059,1841
7060,1892
7061,1916
7062,1867
7063,1873
7064,1911
7065,1905
7066,1845
7067,1831
7068,1847
7069,1827
7070,1855
7071,1841
7072,1833
7073,1856
7074,1872
7075,1853
7076,1863
7077,1921
7078,1872
7079,1875
7080,1881
7081,1883
7082,1872
7083,1851
7084,1843
7085,1877
7086,1826
7087,1837
7088,1840
7089,1866
7090,1881
7091,1883
7092,1857
7093,1885
7094,1885
7095,1872
7096,1866
7097,1869
7098,1911
7099,1876
7100,1853
7101,1855
7102,1862
7103,1849
7104,1828
7105,1840
7106,1846
7107,1877
7108,1862
7109,1865
7110,1920
7111,1905
7112,1869
7113,1861
7114,1870
7115,1882
7116,1867
7117,1851
7118,1848
7119,1866
7120,1840
7121,1840
7122,1840
7123,1857
7124,1872
7125,1856
7126,1872
7127,1885
7128,1882
7129,1869
7130,1875
7131,1882
7132,1877
7133,1856
7134,1842
7135,1805
7136,1842
7137,1829
7138,1825
7139,1827
7140,1841
7141,1847
7142,1868
7143,1875
7144,1881
7145,1872
7146,1864
7147,1859
7148,1888
7149,1893
7150,1863
7151,1856
7152,1840
7153,1821
7154,1815
7155,1831
7156,1852
7157,1848
7158,1859
7159,1871
7160,1882
7161,1891
7162,1872
7163,1865
7164,1872
7165,1891
7166,1855
7167,1843
7168,1847
7169,1872
7170,1843
7171,1837
7172,1840
7173,1872
7174,1872
7175,1858
7176,1863
7177,1881
7178,1882
7179,1862
7180,1869
7181,1890
7182,1897
7183,1855
7184,1840
7185,1900
7186,1865
7187,1840
7188,1840
7189,1851
7190,1883
7191,1867
7192,1861
7193,1872
7194,1863
7195,1862
7196,1856
7197,1861
7198,1898
7199,1885
7200,1856
7201,1853
7202,1862
7203,1843
7204,1830
7205,1838
7206,1875
7207,1852
7208,1862
7209,1854
7210,1867
7211,1877
7212,1867
7213,1861
7214,1879
7215,1926
7216,1851
7217,1847
7218,1877
7219,1871
7220,1843
7221,1837
7222,1848
7223,1887
7224,1869
7225,1843
7226,1843
7227,1863
7228,1875
7229,1855
7230,1853
7231,1897
7232,1884
7233,1861
7234,1842
7235,1840
7236,1874
7237,1844
7238,1840
7239,1857
7240,1872
7241,1859
7242,1861
7243,1865
7244,1893
7245,1879
7246,1883
7247,1906
7248,1948
7249,1904
7250,1872
7251,1823
7252,1803
7253,1816
7254,1818
7255,1813
7256,1841
7257,1856
7258,1847
7259,1856
7260,1887
7261,1876
7262,1869
7263,1863
7264,1856
7265,1895
7266,1867
7267,1862
7268,1865
7269,1857
7270,1838
7271,1835
7272,1856
7273,1883
7274,1873
7275,1865
7276,1882
7277,1898
7278,1876
7279,1867
7280,1879
7281,1875
7282,1893
7283,1863
7284,1840
7285,1826
7286,1843
7287,1830
7288,1835
7289,1867
7290,1907
7291,1871
7292,1853
7293,1858
7294,1869
7295,1863
7296,1859
7297,1856
7298,1935
7299,1872
7300,1853
7301,1851
7302,1850
7303,1852
7304,1833
7305,1840
7306,1858
7307,1856
7308,1869
7309,1859
7310,1862
7311,1895
7312,1870
7313,1857
7314,1895
7315,1889
7316,1859
7317,1853
7318,1848
7319,1863
7320,1849
7321,1830
7322,1837
7323,1856
7324,1855
7325,1849
7326,1853
7327,1901
7328,1874
7329,1862
7330,1863
7331,1901
7332,1885
7333,1863
7334,1857
7335,1821
7336,1861
7337,1822
7338,1834
7339,1845
7340,1894
7341,1865
7342,1858
7343,1844
7344,1872
7345,1870
7346,1861
7347,1870
7348,1902
7349,1870
7350,1840
7351,1840
7352,1903
7353,1850
7354,1838
7355,1838
7356,1850
7357,1902
7358,1858
7359,1866
7360,1886
7361,1879
7362,1867
7363,1867
7364,1872
7365,1874
7366,1866
7367,1853
7368,1853
7369,1841
7370,1840
7371,1840
7372,1827
7373,1871
7374,1863
7375,1861
7376,1857
7377,1873
7378,1861
7379,1854
7380,1856
7381,1867
7382,1865
7383,1855
7384,1845
7385,1840
7386,1839
7387,1844
7388,1841
7389,1875
7390,1858
7391,1873
7392,1863
7393,1867
7394,1863
7395,1872
7396,1865
7397,1899
7398,1927
7399,1882
7400,1856
7401,1859
7402,1872
7403,1842
7404,1830
7405,1830
7406,1833
7407,1860
7408,1851
7409,1867
7410,1842
7411,1889
7412,1867
7413,1865
7414,1883
7415,1906
7416,1878
7417,1857
7418,1856
7419,1845
7420,1840
7421,1827
7422,1823
7423,1821
7424,1869
7425,1856
7426,1853
7427,1845
7428,1877
7429,1871
7430,1874
7431,1897
7432,1885
7433,1859
7434,1847
7435,1872
7436,1825
7437,1830
7438,1823
7439,1824
7440,1840
7441,1858
7442,1861
7443,1861
7444,1893
7445,1872
7446,1870
7447,1867
7448,1871
7449,1875
7450,1859
7451,1847
7452,1845
7453,1845
7454,1833
7455,1840
7456,1871
7457,1904
7458,1863
7459,1869
7460,1880
7461,1879
7462,1866
7463,1863
7464,1846
7465,1906
7466,1856
7467,1840
7468,1871
7469,1855
7470,1837
7471,1840
7472,1875
7473,1856
7474,1872
7475,1857
7476,1862
7477,1894
7478,1879
7479,1865
7480,1861
7481,1866
7482,1902
7483,1856
7484,1851
7485,1861
7486,1843
7487,1834
7488,1838
7489,1845
7490,1923
7491,1865
7492,1857
7493,1869
7494,1875
7495,1863
7496,1855
7497,1885
7498,1866
7499,1874
7500,1849
7501,1839
7502,1850
7503,1847
7504,1834
7505,1828
7506,1851
7507,1888
7508,1871
7509,1867
7510,1875
7511,1872
7512,1860
7513,1868
7514,1856
7515,1882
7516,1862
7517,1845
7518,1845
7519,1850
7520,1827
7521,1827
7522,1859
7523,1853
7524,1870
7525,1862
7526,1869
7527,1878
7528,1874
7529,1856
7530,1834
7531,1884
7532,1887
7533,1857
7534,1834
7535,1878
7536,1857
7537,1839
7538,1835
7539,1840
7540,1863
7541,1868
7542,1861
7543,1854
7544,1885
7545,1875
7546,1868
7547,1867
7548,1874
7549,1875
7550,1856
7551,1853
7552,1876
7553,1847
7554,1825
7555,1820
7556,1845
7557,1888
7558,1857
7559,1865
7560,1923
7561,1907
7562,1877
7563,1857
7564,1866
7565,1877
7566,1854
7567,1841
7568,1883
7569,1841
7570,1837
7571,1831
7572,1840
7573,1879
7574,1877
7575,1871
7576,1877
7577,1872
7578,1877
7579,1869
7580,1886
7581,1875
7582,1881
7583,1855
7584,1840
7585,1825
7586,1836
7587,1836
7588,1837
7589,1840
7590,1872
7591,1854
7592,1863
7593,1869
7594,1903
7595,1869
7596,1858
7597,1890
7598,1885
7599,1869
7600,1851
7601,1842
7602,1854
7603,1847
7604,1834
7605,1819
7606,1859
7607,1904
7608,1859
7609,1858
7610,1883
7611,1907
7612,1870
7613,1870
7614,1878
7615,1884
7616,1855
7617,1849
7618,1873
7619,1857
7620,1847
7621,1834
7622,1834
7623,1882
7624,1863
7625,1860
7626,1872
7627,1885
7628,1877
7629,1856
7630,1892
7631,1859
7632,1872
7633,1858
7634,1847
7635,1855
7636,1842
7637,1835
7638,1837
7639,1846
7640,1918
7641,1872
7642,1856
7643,1844
7644,1893
7645,1861
7646,1854
7647,1843
7648,1863
7649,1866
7650,1840
7651,1837
7652,1838
7653,1855
7654,1831
7655,1827
7656,1850
7657,1888
7658,1862
7659,1872
7660,1868
7661,1882
7662,1871
7663,1865
7664,1869
7665,1925
7666,1861
7667,1852
7668,1852
7669,1843
7670,1839
7671,1834
7672,1840
7673,1855
7674,1865
7675,1855
7676,1857
7677,1870
7678,1873
7679,1863
7680,1867
7681,1888
7682,1894
7683,1860
7684,1856
7685,1856
7686,1860
7687,1839
7688,1831
7689,1857
7690,1895
7691,1872
7692,1860
7693,1840
7694,1894
7695,1872
7696,1863
7697,1872
7698,1893
7699,1872
7700,1845
7701,1870
7702,1872
7703,1844
7704,1834
7705,1821
7706,1841
7707,1888
7708,1865
7709,1869
7710,1872
7711,1854
7712,1861
7713,1872
7714,1902
7715,1872
7716,1872
7717,1869
7718,1808
7719,1858
7720,1845
7721,1843
7722,1828
7723,1855
7724,1856
7725,1853
7726,1829
7727,1855
7728,1865
7729,1855
7730,1858
7731,1872
7732,1889
7733,1858
7734,1844
7735,1857
7736,1872
7737,1838
7738,1825
7739,1855
7740,1878
7741,1849
7742,1863
7743,1905
7744,1873
7745,1874
7746,1865
7747,1874
7748,1921
7749,1872
7750,1850
7751,1851
7752,1827
7753,1856
7754,1840
7755,1840
7756,1841
7757,1872
7758,1859
7759,1859
7760,1872
7761,1879
7762,1871
7763,1859
7764,1879
7765,1893
7766,1851
7767,1841
7768,1847
7769,1850
7770,1840
7771,1838
7772,1871
7773,1837
7774,1872
7775,1861
7776,1862
7777,1887
7778,1879
7779,1863
7780,1883
7781,1902
7782,1923
7783,1859
7784,1851
7785,1879
7786,1874
7787,1840
7788,1839
7789,1851
7790,1868
7791,1866
7792,1859
7793,1872
7794,1869
7795,1859
7796,1862
7797,1884
7798,1857
7799,1877
7800,1858
7801,1861
7802,1837
7803,1846
7804,1828
7805,1839
7806,1852
7807,1862
7808,1856
7809,1861
7810,1863
7811,1869
7812,1871
7813,1866
7814,1897
7815,1903
7816,1872
7817,1858
7818,1840
7819,1841
7820,1819
7821,1826
7822,1842
7823,1852
7824,1860
7825,1844
7826,1857
7827,1883
7828,1863
7829,1855
7830,1872
7831,1882
7832,1890
7833,1863
7834,1850
7835,1873
7836,1849
7837,1840
7838,1834
7839,1882
7840,1872
7841,1856
7842,1856
7843,1867
7844,1921
7845,1872
7846,1863
7847,1892
7848,1879
7849,1869
7850,1855
7851,1856
7852,1874
7853,1854
7854,1823
7855,1811
7856,1829
7857,1870
7858,1849
7859,1837
7860,1863
7861,1872
7862,1873
7863,1863
7864,1877
7865,1872
7866,1859
7867,1851
7868,1838
7869,1856
7870,1840
7871,1831
7872,1837
7873,1867
7874,1886
7875,1872
7876,1874
7877,1930
7878,1886
7879,1877
7880,1883
7881,1882
7882,1879
7883,1857
7884,1808
7885,1791
7886,1821
7887,1822
7888,1829
7889,1876
7890,1875
7891,1879
7892,1865
7893,1872
7894,1901
7895,1874
7896,1863
7897,1857
7898,1887
7899,1875
7900,1847
7901,1850
7902,1869
7903,1851
7904,1827
7905,1845
7906,1845
7907,1893
7908,1866
7909,1872
7910,1862
7911,1890
7912,1868
7913,1861
7914,1854
7915,1846
7916,1854
7917,1846
7918,1860
7919,1857
7920,1839
7921,1836
7922,1840
7923,1857
7924,1872
7925,1863
7926,1873
7927,1885
7928,1874
7929,1863
7930,1840
7931,1886
7932,1884
7933,1855
7934,1868
7935,1856
7936,2461
7937,1255
7938,1890
7939,1818
7940,1731
7941,1745
7942,1807
7943,1916
7944,2207
7945,2286
7946,2467
7947,2864
7948,2954
7949,2631
7950,2046
7951,1601
7952,1413
7953,1330
7954,1315
7955,1321
7956,1422
7957,1521
7958,1645
7959,1743
7960,1664
7961,1680
7962,1780
7963,1845
7964,1897
7965,1891
7966,1878
7967,2390
7968,927
7969,1839
7970,1791
7971,1726
7972,1761
7973,1787
7974,2097
7975,2641
7976,2686
7977,2633
7978,2824
7979,2705
7980,2178
7981,1641
7982,1346
7983,1232
7984,1207
7985,1266
7986,1370
7987,1478
7988,1638
7989,1722
7990,1855
7991,1919
7992,1956
7993,1999
7994,1977
7995,1937
7996,1874
7997,1846
7998,2037
7999,764
8000,1808
8001,1773
8002,1751
8003,1746
8004,1735
8005,2156
8006,2789
8007,2605
8008,2438
8009,2795
8010,2765
8011,2257
8012,1590
8013,1292
8014,1243
8015,1282
8016,1270
8017,1385
8018,1600
8019,1711
8020,1791
8021,1837
8022,1898
8023,1903
8024,1904
8025,1891
8026,1883
8027,1921
8028,1910
8029,1904
8030,459
8031,1791
8032,1845
8033,1829
8034,1856
8035,1878
8036,2283
8037,2759
8038,2305
8039,2259
8040,2832
8041,2743
8042,2165
8043,1535
8044,1283
8045,1143
8046,1137
8047,1200
8048,1410
8049,1619
8050,1759
8051,1837
8052,1869
8053,1872
8054,1861
8055,1855
8056,1884
8057,1919
8058,1906
8059,1920
8060,1930
8061,439
8062,1776
8063,1846
8064,1927
8065,2064
8066,1991
8067,2417
8068,2625
8069,1911
8070,2302
8071,2951
8072,2791
8073,2210
8074,1615
8075,1255
8076,1084
8077,1074
8078,1152
8079,1353
8080,1597
8081,1795
8082,1895
8083,1872
8084,1878
8085,1902
8086,1918
8087,1862
8088,1847
8089,1850
8090,1923
8091,1927
8092,663
8093,1664
8094,1840
8095,1776
8096,1808
8097,1862
8098,2342
8099,2609
8100,1931
8101,2510
8102,2999
8103,2797
8104,2235
8105,1669
8106,1319
8107,1115
8108,1055
8109,1163
8110,1367
8111,1650
8112,1779
8113,1856
8114,1904
8115,1936
8116,1899
8117,1874
8118,1901
8119,1909
8120,1882
8121,1873
8122,1875
8123,1320
8124,1462
8125,1807
8126,1716
8127,1805
8128,1840
8129,2439
8130,2606
8131,2022
8132,2677
8133,2983
8134,2738
8135,2227
8136,1671
8137,1263
8138,1023
8139,1067
8140,1211
8141,1417
8142,1648
8143,1791
8144,1894
8145,1888
8146,1898
8147,1897
8148,1961
8149,1911
8150,1903
8151,1894
8152,1917
8153,1894
8154,1938
8155,1418
8156,1814
8157,1776
8158,1887
8159,1970
8160,2559
8161,2550
8162,1756
8163,2490
8164,2953
8165,2827
8166,2173
8167,1616
8168,1284
8169,1072
8170,1047
8171,1136
8172,1354
8173,1633
8174,1794
8175,1851
8176,1874
8177,1929
8178,1920
8179,1904
8180,1913
8181,1954
8182,1940
8183,1895
8184,1877
8185,2694
8186,1105
8187,1807
8188,1695
8189,1821
8190,1910
8191,2385
8192,2471
8193,1890
8194,2599
8195,3018
8196,2831
8197,2333
8198,1808
8199,1371
8200,1061
8201,1035
8202,1150
8203,1323
8204,1578
8205,1762
8206,1840
8207,1904
8208,1903
8209,1886
8210,1874
8211,1917
8212,1926
8213,1921
8214,1925
8215,1922
8216,2208
8217,807
8218,1807
8219,1775
8220,1875
8221,1952
8222,2375
8223,2428
8224,1765
8225,2513
8226,3026
8227,2941
8228,2383
8229,1773
8230,1374
8231,1131
8232,1040
8233,1040
8234,1249
8235,1535
8236,1718
8237,1819
8238,1872
8239,1885
8240,1975
8241,1903
8242,1899
8243,1927
8244,1947
8245,1911
8246,1904
8247,1940
8248,567
8249,1808
8250,1777
8251,1849
8252,1950
8253,2320
8254,2418
8255,1722
8256,2511
8257,3046
8258,2903
8259,2416
8260,1856
8261,1419
8262,1106
8263,987
8264,1097
8265,1303
8266,1535
8267,1745
8268,1858
8269,1919
8270,1883
8271,1872
8272,1877
8273,1899
8274,1920
8275,1910
8276,1915
8277,1926
8278,1923
8279,374
8280,1765
8281,1808
8282,1879
8283,1954
8284,2288
8285,2435
8286,1766
8287,2459
8288,3009
8289,2882
8290,2469
8291,1843
8292,1410
8293,1080
8294,1023
8295,1078
8296,1264
8297,1534
8298,1750
8299,1839
8300,1872
8301,1883
8302,1923
8303,1918
8304,1891
8305,1888
8306,1933
8307,1943
8308,1903
8309,1907
8310,321
8311,1648
8312,1817
8313,1840
8314,1989
8315,2267
8316,2463
8317,1739
8318,2433
8319,3018
8320,2974
8321,2480
8322,1904
8323,1477
8324,1136
8325,966
8326,1034
8327,1246
8328,1515
8329,1717
8330,1825
8331,1887
8332,1931
8333,1909
8334,1890
8335,1893
8336,1916
8337,1895
8338,1890
8339,1890
8340,1920
8341,739
8342,1564
8343,1867
8344,1849
8345,1927
8346,2186
8347,2514
8348,1821
8349,2386
8350,3019
8351,2964
8352,2531
8353,1929
8354,1446
8355,1124
8356,944
8357,1062
8358,1207
8359,1488
8360,1700
8361,1838
8362,1891
8363,1918
8364,1954
8365,1920
8366,1923
8367,1922
8368,1936
8369,1935
8370,1878
8371,1859
8372,1673
8373,1328
8374,1845
8375,1792
8376,1948
8377,2166
8378,2542
8379,1851
8380,2285
8381,3022
8382,3133
8383,2622
8384,2000
8385,1514
8386,1198
8387,916
8388,974
8389,1156
8390,1429
8391,1685
8392,1815
8393,1872
8394,1936
8395,1933
8396,1921
8397,1920
8398,1984
8399,1937
8400,1907
8401,1891
8402,1881
8403,2686
8404,1135
8405,1845
8406,1790
8407,1926
8408,2131
8409,2551
8410,1898
8411,2206
8412,2951
8413,3024
8414,2675
8415,2157
8416,1583
8417,1186
8418,950
8419,1007
8420,1149
8421,1394
8422,1628
8423,1804
8424,1869
8425,1893
8426,1927
8427,1958
8428,1936
8429,1922
8430,1931
8431,1967
8432,1949
8433,1902
8434,2480
8435,918
8436,1850
8437,1761
8438,1936
8439,2177
8440,2623
8441,1915
8442,1969
8443,2849
8444,3071
8445,2727
8446,2128
8447,1648
8448,1269
8449,1023
8450,1009
8451,1147
8452,1437
8453,1603
8454,1738
8455,1820
8456,1889
8457,1927
8458,1909
8459,1910
8460,1937
8461,1933
8462,1926
8463,1923
8464,1936
8465,2006
8466,646
8467,1838
8468,1770
8469,1979
8470,2192
8471,2658
8472,2027
8473,1689
8474,2740
8475,3053
8476,2768
8477,2212
8478,1669
8479,1262
8480,990
8481,1041
8482,1162
8483,1346
8484,1596
8485,1733
8486,1870
8487,1870
8488,1891
8489,1944
8490,1927
8491,1918
8492,1939
8493,1939
8494,1958
8495,1935
8496,1917
8497,368
8498,1845
8499,1813
8500,1862
8501,2001
8502,2465
8503,2134
8504,1869
8505,2738
8506,3048
8507,2887
8508,2292
8509,1741
8510,1407
8511,1072
8512,1015
8513,1111
8514,1361
8515,1598
8516,1751
8517,1821
8518,1865
8519,1923
8520,1897
8521,1890
8522,1914
8523,1921
8524,1939
8525,1915
8526,1918
8527,1963
8528,318
8529,1777
8530,1793
8531,1947
8532,2175
8533,2559
8534,2274
8535,1501
8536,2535
8537,2997
8538,2821
8539,2335
8540,1806
8541,1365
8542,1066
8543,1023
8544,1136
8545,1338
8546,1577
8547,1776
8548,1882
8549,1867
8550,1859
8551,1883
8552,1923
8553,1904
8554,1895
8555,1889
8556,1915
8557,1917
8558,1925
8559,1913
8560,1937
8561,1933
8562,1904
8563,1891
8564,1925
8565,1920
8566,1899
8567,1874
8568,1870
8569,1887
8570,1847
8571,1834
8572,1863
8573,1866
8574,1885
8575,1871
8576,1879
8577,1883
8578,1882
8579,1856
8580,1872
8581,1871
8582,1885
8583,1856
8584,1856
8585,1876
8586,1856
8587,1835
8588,1827
8589,1835
8590,1888
8591,1867
8592,1871
8593,1867
8594,1889
8595,1871
8596,1861
8597,1895
8598,1878
8599,1882
8600,1857
8601,1841
8602,1856
8603,1842
8604,1819
8605,1841
8606,1835
8607,1866
8608,1857
8609,1859
8610,1874
8611,1902
8612,1875
8613,1875
8614,1899
8615,1863
8616,1850
8617,1847
8618,1865
8619,1873
8620,1838
8621,1837
8622,1861
8623,1855
8624,1873
8625,1862
8626,1860
8627,1885
8628,1872
8629,1862
8630,1843
8631,1867
8632,1874
8633,1846
8634,1831
8635,1826
8636,1865
8637,1829
8638,1826
8639,1840
8640,1840
8641,1861
8642,1857
8643,1888
8644,1911
8645,1871
8646,1863
8647,1879
8648,1926
8649,1877
8650,1853
8651,1839
8652,1899
8653,1855
8654,1845
8655,1861
8656,1858
8657,1839
8658,1841
8659,1861
8660,1867
8661,1905
8662,1866
8663,1858
8664,1867
8665,1920
8666,1858
8667,1858
8668,1863
8669,1845
8670,1831
8671,1839
8672,1841
8673,1872
8674,1891
8675,1901
8676,1872
8677,1857
8678,1854
8679,1855
8680,1857
8681,1867
8682,1887
8683,1857
8684,1840
8685,1813
8686,1837
8687,1827
8688,1844
8689,1879
8690,1883
8691,1870
8692,1854
8693,1824
8694,1889
8695,1863
8696,1856
8697,1883
8698,1866
8699,1900
8700,1877
8701,1858
8702,1857
8703,1849
8704,1825
8705,1829
8706,1834
8707,1875
8708,1865
8709,1858
8710,1905
8711,1883
8712,1865
8713,1859
8714,1866
8715,1877
8716,1865
8717,1851
8718,1850
8719,1851
8720,1840
8721,1834
8722,1827
8723,1872
8724,1874
8725,1858
8726,1873
8727,1875
8728,1877
8729,1861
8730,1871
8731,1911
8732,1918
8733,1860
8734,1844
8735,1886
8736,1853
8737,1834
8738,1835
8739,1835
8740,1863
8741,1862
8742,1864
8743,1861
8744,1871
8745,1870
8746,1863
8747,1874
8748,1888
8749,1873
8750,1856
8751,1849
8752,1861
8753,1846
8754,1825
8755,1850
8756,1840
8757,1875
8758,1855
8759,1853
8760,1874
8761,1884
8762,1865
8763,1862
8764,1908
8765,1878
8766,1872
8767,1851
8768,1850
8769,1875
8770,1842
8771,1835
8772,1862
8773,1849
8774,1866
8775,1854
8776,1867
8777,1904
8778,1877
8779,1867
8780,1867
8781,1897
8782,1930
8783,1856
8784,1840
8785,1845
8786,1847
8787,1828
8788,1821
8789,1858
8790,1903
8791,1863
8792,1868
8793,1867
8794,1883
8795,1872
8796,1865
8797,1876
8798,1885
8799,1874
8800,1857
8801,1861
8802,1854
8803,1845
8804,1835
8805,1851
8806,1829
8807,1892
8808,1855
8809,1855
8810,1901
8811,1861
8812,1857
8813,1858
8814,1887
8815,1874
8816,1843
8817,1840
8818,1843
8819,1852
8820,1842
8821,1836
8822,1866
8823,1898
8824,1872
8825,1857
8826,1873
8827,1858
8828,1875
8829,1859
8830,1878
8831,1894
8832,1906
8833,1861
8834,1863
8835,1845
8836,1854
8837,1835
8838,1836
8839,1840
8840,1853
8841,1872
8842,1862
8843,1861
8844,1910
8845,1868
8846,1866
8847,1869
8848,1883
8849,1873
8850,1833
8851,1842
8852,1857
8853,1853
8854,1839
8855,1834
8856,1840
8857,1867
8858,1855
8859,1861
8860,1887
8861,1870
8862,1863
8863,1872
8864,1866
8865,1895
8866,1871
8867,1841
8868,1838
8869,1843
8870,1835
8871,1836
8872,1845
8873,1887
8874,1872
8875,1855
8876,1863
8877,1859
8878,1872
8879,1871
8880,1863
8881,1878
8882,1891
8883,1857
8884,1856
8885,1888
8886,1844
8887,1838
8888,1834
8889,1876
8890,1851
8891,1867
8892,1863
8893,1859
8894,1901
8895,1870
8896,1870
8897,1892
8898,1881
8899,1874
8900,1850
8901,1846
8902,1901
8903,1850
8904,1831
8905,1840
8906,1856
8907,1852
8908,1856
8909,1871
8910,1867
8911,1872
8912,1865
8913,1855
8914,1899
8915,1874
8916,1859
8917,1850
8918,1840
8919,1891
8920,1839
8921,1835
8922,1840
8923,1905
8924,1872
8925,1856
8926,1859
8927,1886
8928,1874
8929,1866
8930,1879
8931,1904
8932,1879
8933,1851
8934,1843
8935,1906
8936,1856
8937,1828
8938,1835
8939,1850
8940,1853
8941,1853
8942,1861
8943,1862
8944,1895
8945,1871
8946,1865
8947,1891
8948,1875
8949,1878
8950,1854
8951,1870
8952,1881
8953,1851
8954,1840
8955,1845
8956,1829
8957,1856
8958,1855
8959,1861
8960,1874
8961,1889
8962,1868
8963,1872
8964,1874
8965,1904
8966,1862
8967,1856
8968,1824
8969,1855
8970,1840
8971,1843
8972,1854
8973,1867
8974,1872
8975,1869
8976,1872
8977,1873
8978,1881
8979,1867
8980,1878
8981,1895
8982,1895
8983,1854
8984,1853
8985,1916
8986,1885
8987,1839
8988,1826
8989,1835
8990,1857
8991,1855
8992,1857
8993,1854
8994,1884
8995,1871
8996,1865
8997,1878
8998,1891
8999,1882
9000,1854
9001,1865
9002,1862
9003,1840
9004,1835
9005,1859
9006,1878
9007,1878
9008,1866
9009,1863
9010,1875
9011,1888
9012,1863
9013,1863
9014,1859
9015,1889
9016,1856
9017,1846
9018,1854
9019,1871
9020,1843
9021,1840
9022,1847
9023,1863
9024,1869
9025,1855
9026,1853
9027,1878
9028,1869
9029,1856
9030,1864
9031,1903
9032,1921
9033,1859
9034,1854
9035,1863
9036,1875
9037,1837
9038,1839
9039,1861
9040,1869
9041,1857
9042,1854
9043,1838
9044,1867
9045,1872
9046,1868
9047,1879
9048,1928
9049,1872
9050,1847
9051,1847
9052,1842
9053,1840
9054,1823
9055,1839
9056,1846
9057,1877
9058,1862
9059,1855
9060,1857
9061,1902
9062,1867
9063,1866
9064,1859
9065,1889
9066,1861
9067,1850
9068,1863
9069,1889
9070,1841
9071,1835
9072,1882
9073,1858
9074,1875
9075,1872
9076,1862
9077,1901
9078,1875
9079,1869
9080,1884
9081,1891
9082,1871
9083,1856
9084,1839
9085,1872
9086,1871
9087,1827
9088,1830
9089,1856
9090,1844
9091,1856
9092,1861
9093,1840
9094,1878
9095,1875
9096,1865
9097,1872
9098,1862
9099,1869
9100,1853
9101,1847
9102,1897
9103,1853
9104,1837
9105,1827
9106,1863
9107,1920
9108,1860
9109,1871
9110,1886
9111,1887
9112,1872
9113,1872
9114,1871
9115,1910
9116,1855
9117,1840
9118,1867
9119,1872
9120,1839
9121,1839
9122,1855
9123,1882
9124,1875
9125,1856
9126,1872
9127,1856
9128,1877
9129,1871
9130,1869
9131,1867
9132,1887
9133,1861
9134,1841
9135,1825
9136,1859
9137,1839
9138,1831
9139,1826
9140,1883
9141,1872
9142,1866
9143,1869
9144,1915
9145,1862
9146,1857
9147,1861
9148,1869
9149,1872
9150,1842
9151,1836
9152,1872
9153,1847
9154,1836
9155,1847
9156,1842
9157,1873
9158,1856
9159,1861
9160,1856
9161,1903
9162,1869
9163,1872
9164,1900
9165,1863
9166,1862
9167,1846
9168,1847
9169,1840
9170,1838
9171,1833
9172,1854
9173,1851
9174,1869
9175,1857
9176,1851
9177,1898
9178,1872
9179,1861
9180,1872
9181,1899
9182,1861
9183,1855
9184,1853
9185,1856
9186,1850
9187,1843
9188,1840
9189,1835
9190,1860
9191,1857
9192,1852
9193,1883
9194,1890
9195,1867
9196,1857
9197,1863
9198,1887
9199,1872
9200,1854
9201,1840
9202,1832
9203,1855
9204,1835
9205,1840
9206,1861
9207,1876
9208,1850
9209,1856
9210,1865
9211,1885
9212,1872
9213,1872
9214,1882
9215,1903
9216,1855
9217,1841
9218,1856
9219,1851
9220,1846
9221,1838
9222,1835
9223,1873
9224,1872
9225,1858
9226,1877
9227,1886
9228,1883
9229,1872
9230,1867
9231,1882
9232,1855
9233,1853
9234,1840
9235,1867
9236,1825
9237,1827
9238,1815
9239,1846
9240,1868
9241,1857
9242,1861
9243,1835
9244,1884
9245,1869
9246,1869
9247,1883
9248,1904
9249,1874
9250,1852
9251,1856
9252,1840
9253,1846
9254,1840
9255,1835
9256,1857
9257,1878
9258,1862
9259,1872
9260,1867
9261,1872
9262,1860
9263,1860
9264,1844
9265,1889
9266,1858
9267,1845
9268,1838
9269,1829
9270,1841
9271,1836
9272,1837
9273,1885
9274,1872
9275,1865
9276,1867
9277,1880
9278,1875
9279,1871
9280,1877
9281,1894
9282,1891
9283,1858
9284,1850
9285,1865
9286,1846
9287,1841
9288,1843
9289,1879
9290,1878
9291,1862
9292,1856
9293,1873
9294,1872
9295,1869
9296,1854
9297,1867
9298,1904
9299,1872
9300,1850
9301,1841
9302,1841
9303,1842
9304,1838
9305,1854
9306,1866
9307,1856
9308,1872
9309,1860
9310,1875
9311,1872
9312,1867
9313,1862
9314,1862
9315,1922
9316,1865
9317,1848
9318,1843
9319,1862
9320,1839
9321,1827
9322,1834
9323,1840
9324,1872
9325,1856
9326,1847
9327,1911
9328,1864
9329,1856
9330,1863
9331,1891
9332,1894
9333,1856
9334,1842
9335,1872
9336,1856
9337,1840
9338,1840
9339,1874
9340,1859
9341,1857
9342,1860
9343,1879
9344,1917
9345,1867
9346,1867
9347,1870
9348,1890
9349,1875
9350,1856
9351,1849
9352,1860
9353,1847
9354,1823
9355,1805
9356,1856
9357,1840
9358,1861
9359,1858
9360,1870
9361,1890
9362,1872
9363,1879
9364,1907
9365,1934
9366,1862
9367,1842
9368,1810
9369,1842
9370,1839
9371,1830
9372,1855
9373,1879
9374,1873
9375,1869
9376,1872
9377,1872
9378,1882
9379,1869
9380,1872
9381,1866
9382,1865
9383,1849
9384,1837
9385,1870
9386,1850
9387,1830
9388,1830
9389,1840
9390,1885
9391,1867
9392,1875
9393,1870
9394,1890
9395,1872
9396,1861
9397,1847
9398,1905
9399,1872
9400,1856
9401,1854
9402,1870
9403,1855
9404,1840
9405,1838
9406,1842
9407,1897
9408,1859
9409,1869
9410,1872
9411,1906
9412,1867
9413,1871
9414,1862
9415,1884
9416,1856
9417,1840
9418,1863
9419,1857
9420,1835
9421,1834
9422,1825
9423,1877
9424,1872
9425,1854
9426,1868
9427,1883
9428,1872
9429,1860
9430,1854
9431,1889
9432,1892
9433,1854
9434,1852
9435,1898
9436,1861
9437,1840
9438,1828
9439,1867
9440,1865
9441,1868
9442,1856
9443,1857
9444,1905
9445,1862
9446,1858
9447,1853
9448,1889
9449,1867
9450,1845
9451,1834
9452,1820
9453,1845
9454,1837
9455,1830
9456,1856
9457,1875
9458,1871
9459,1862
9460,1855
9461,1875
9462,1870
9463,1861
9464,1891
9465,1873
9466,1865
9467,1840
9468,1840
9469,1856
9470,1834
9471,1821
9472,1854
9473,1819
9474,1867
9475,1863
9476,1856
9477,1872
9478,1863
9479,1856
9480,1843
9481,1871
9482,1905
9483,1859
9484,1848
9485,1840
9486,1863
9487,1839
9488,1839
9489,1834
9490,1886
9491,1869
9492,1857
9493,1873
9494,1886
9495,1867
9496,1867
9497,1903
9498,1879
9499,1875
9500,1851
9501,1840
9502,1856
9503,1843
9504,1824
9505,1838
9506,1863
9507,1858
9508,1856
9509,1855
9510,1872
9511,1865
9512,1869
9513,1863
9514,1875
9515,1878
9516,1870
9517,1856
9518,1862
9519,1839
9520,1838
9521,1826
9522,1815
9523,1839
9524,1871
9525,1854
9526,1867
9527,1866
9528,1886
9529,1875
9530,1888
9531,1892
9532,1887
9533,1830
9534,1834
9535,1847
9536,1840
9537,1830
9538,1823
9539,1837
9540,1838
9541,1855
9542,1859
9543,1872
9544,1901
9545,1874
9546,1869
9547,1890
9548,1890
9549,1872
9550,1824
9551,1850
9552,1895
9553,1843
9554,1831
9555,454
9556,1753
9557,1909
9558,1803
9559,1754
9560,1802
9561,1893
9562,2045
9563,2206
9564,2301
9565,2641
9566,2882
9567,2805
9568,2437
9569,1904
9570,1513
9571,1341
9572,1291
9573,1355
9574,1379
9575,1447
9576,1563
9577,1729
9578,1763
9579,1680
9580,1744
9581,1879
9582,1959
9583,1945
9584,1903
9585,1886
9586,365
9587,1616
9588,1761
9589,1722
9590,1716
9591,1723
9592,1819
9593,2341
9594,2698
9595,2655
9596,2848
9597,2928
9598,2582
9599,1931
9600,1411
9601,1234
9602,1225
9603,1200
9604,1282
9605,1440
9606,1595
9607,1747
9608,1795
9609,1861
9610,1926
9611,1968
9612,1986
9613,1993
9614,1955
9615,1939
9616,1853
9617,694
9618,1507
9619,1814
9620,1705
9621,1695
9622,1714
9623,1879
9624,2461
9625,2723
9626,2527
9627,2841
9628,2940
9629,2523
9630,1872
9631,1439
9632,1206
9633,1102
9634,1158
9635,1268
9636,1441
9637,1607
9638,1743
9639,1834
9640,1893
9641,1891
9642,1900
9643,1910
9644,1968
9645,1930
9646,1908
9647,1920
9648,1694
9649,1369
9650,1850
9651,1845
9652,1966
9653,1926
9654,2064
9655,2559
9656,2537
9657,2085
9658,2679
9659,2926
9660,2604
9661,1911
9662,1398
9663,1180
9664,1104
9665,1187
9666,1200
9667,1419
9668,1645
9669,1749
9670,1819
9671,1858
9672,1898
9673,1918
9674,1922
9675,1920
9676,1928
9677,1922
9678,1941
9679,2689
9680,1223
9681,1923
9682,1878
9683,2027
9684,2000
9685,2166
9686,2587
9687,2067
9688,1871
9689,2773
9690,3049
9691,2602
9692,1940
9693,1438
9694,1183
9695,1023
9696,1049
9697,1207
9698,1456
9699,1698
9700,1815
9701,1861
9702,1884
9703,1871
9704,1859
9705,1879
9706,1891
9707,1906
9708,1915
9709,1910
9710,2515
9711,1006
9712,1869
9713,1776
9714,1940
9715,1997
9716,2199
9717,2609
9718,1869
9719,2037
9720,2832
9721,2943
9722,2559
9723,1989
9724,1523
9725,1178
9726,1040
9727,1157
9728,1252
9729,1495
9730,1700
9731,1831
9732,1885
9733,1892
9734,1887
9735,1904
9736,1903
9737,1891
9738,1893
9739,1898
9740,1919
9741,1975
9742,755
9743,1862
9744,1741
9745,1744
9746,1776
9747,2133
9748,2640
9749,2062
9750,2352
9751,2942
9752,2951
9753,2495
9754,1858
9755,1385
9756,1180
9757,1132
9758,1134
9759,1280
9760,1499
9761,1697
9762,1820
9763,1863
9764,1929
9765,1936
9766,1894
9767,1886
9768,1901
9769,1898
9770,1902
9771,1888
9772,1902
9773,451
9774,1766
9775,1717
9776,1839
9777,1952
9778,2303
9779,2798
9780,1762
9781,2170
9782,2853
9783,2859
9784,2473
9785,1923
9786,1525
9787,1168
9788,1057
9789,1118
9790,1249
9791,1494
9792,1699
9793,1842
9794,1915
9795,1917
9796,1926
9797,1920
9798,1946
9799,1934
9800,1906
9801,1904
9802,1920
9803,1895
9804,357
9805,1723
9806,1770
9807,1870
9808,1995
9809,2310
9810,2735
9811,1733
9812,2090
9813,2858
9814,2998
9815,2589
9816,1961
9817,1487
9818,1179
9819,1040
9820,1038
9821,1169
9822,1435
9823,1706
9824,1823
9825,1876
9826,1893
9827,1950
9828,1936
9829,1920
9830,1934
9831,1945
9832,1906
9833,1904
9834,1900
9835,503
9836,1617
9837,1782
9838,1826
9839,2045
9840,2263
9841,2559
9842,1602
9843,2113
9844,2938
9845,3010
9846,2639
9847,2059
9848,1599
9849,1253
9850,982
9851,999
9852,1147
9853,1408
9854,1631
9855,1738
9856,1843
9857,1918
9858,1925
9859,1931
9860,1932
9861,1929
9862,1929
9863,1923
9864,1949
9865,1936
9866,1021
9867,1481
9868,1847
9869,1797
9870,1891
9871,2086
9872,2420
9873,1819
9874,2305
9875,2982
9876,3030
9877,2698
9878,2081
9879,1579
9880,1212
9881,1051
9882,1023
9883,1139
9884,1395
9885,1616
9886,1807
9887,1855
9888,1885
9889,1921
9890,1926
9891,1929
9892,1925
9893,1946
9894,1927
9895,1923
9896,1907
9897,2146
9898,1282
9899,1872
9900,1791
9901,1904
9902,2119
9903,2502
9904,1811
9905,2179
9906,2928
9907,3049
9908,2670
9909,2082
9910,1645
9911,1243
9912,1020
9913,999
9914,1168
9915,1447
9916,1648
9917,1782
9918,1835
9919,1878
9920,1892
9921,1893
9922,1901
9923,1903
9924,1936
9925,1919
9926,1902
9927,1911
9928,2789
9929,1136
9930,1875
9931,1791
9932,1869
9933,2005
9934,2441
9935,1927
9936,2201
9937,2915
9938,3033
9939,2695
9940,2166
9941,1637
9942,1264
9943,1057
9944,1014
9945,1133
9946,1356
9947,1620
9948,1797
9949,1875
9950,1890
9951,1901
9952,1911
9953,1909
9954,1894
9955,1899
9956,1907
9957,1941
9958,1904
9959,2263
9960,806
9961,1902
9962,1778
9963,1844
9964,2013
9965,2479
9966,2026
9967,2095
9968,2864
9969,3025
9970,2712
9971,2149
9972,1653
9973,1349
9974,1102
9975,1035
9976,1136
9977,1399
9978,1610
9979,1763
9980,1871
9981,1914
9982,1942
9983,1923
9984,1901
9985,1892
9986,1920
9987,1895
9988,1894
9989,1883
9990,1920
9991,502
9992,1826
9993,1775
9994,1828
9995,1973
9996,2432
9997,2126
9998,2132
9999,2832
10000,3032
10001,2770
10002,2288
10003,1703
10004,1315
10005,1062
10006,993
10007,1141
10008,1338
10009,1602
10010,1775
10011,1875
10012,1885
10013,1904
10014,1946
10015,1968
10016,1921
10017,1903
10018,1904
10019,1915
10020,1903
10021,1887
10022,265
10023,1745
10024,1792
10025,1826
10026,1995
10027,2461
10028,2227
10029,1950
10030,2739
10031,3038
10032,2834
10033,2282
10034,1733
10035,1412
10036,1124
10037,993
10038,1056
10039,1307
10040,1535
10041,1753
10042,1842
10043,1900
10044,1911
10045,1917
10046,1910
10047,1942
10048,1933
10049,1931
10050,1905
10051,1904
10052,1933
10053,219
10054,1664
10055,1787
10056,1764
10057,1857
10058,2282
10059,2325
10060,1989
10061,2734
10062,3051
10063,2880
10064,2375
10065,1878
10066,1430
10067,1119
10068,1039
10069,1088
10070,1265
10071,1488
10072,1744
10073,1847
10074,1893
10075,1906
10076,1921
10077,1924
10078,1929
10079,1919
10080,1908
10081,1950
10082,1938
10083,1894
10084,562
10085,1557
10086,1830
10087,1767
10088,1927
10089,2332
10090,2493
10091,1798
10092,2519
10093,3011
10094,2946
10095,2437
10096,1862
10097,1485
10098,1232
10099,1031
10100,1057
10101,1232
10102,1519
10103,1664
10104,1772
10105,1839
10106,1895
10107,1936
10108,1920
10109,1927
10110,1930
10111,1946
10112,1926
10113,1921
10114,1916
10115,1488
10116,1403
10117,1841
10118,1772
10119,1862
10120,2160
10121,2375
10122,1951
10123,2559
10124,3059
10125,2958
10126,2525
10127,1978
10128,1519
10129,1136
10130,986
10131,1046
10132,1202
10133,1431
10134,1628
10135,1810
10136,1874
10137,1879
10138,1895
10139,1887
10140,1948
10141,1923
10142,1932
10143,1968
10144,1936
10145,1931
10146,2598
10147,1179
10148,1910
10149,1792
10150,1868
10151,2135
10152,2484
10153,1837
10154,2323
10155,2937
10156,2977
10157,2639
10158,2045
10159,1595
10160,1296
10161,1061
10162,1054
10163,1197
10164,1423
10165,1680
10166,1785
10167,1853
10168,1915
10169,1942
10170,1898
10171,1883
10172,1935
10173,1947
10174,1936
10175,1919
10176,1936
10177,1922
10178,1926
10179,1907
10180,1894
10181,1909
10182,1910
10183,1889
10184,1885
10185,1843
10186,1859
10187,1858
10188,1856
10189,1872
10190,1942
10191,1872
10192,1855
10193,1853
10194,1872
10195,1872
10196,1865
10197,1878
10198,1864
10199,1877
10200,1851
10201,1854
10202,1833
10203,1851
10204,1835
10205,1827
10206,1870
10207,1876
10208,1863
10209,1864
10210,1917
10211,1876
10212,1853
10213,1854
10214,1883
10215,1888
10216,1872
10217,1854
10218,1858
10219,1871
10220,1831
10221,1831
10222,1817
10223,1870
10224,1868
10225,1858
10226,1855
10227,1907
10228,1873
10229,1860
10230,1858
10231,1879
10232,1878
10233,1853
10234,1841
10235,1856
10236,1839
10237,1838
10238,1840
10239,1870
10240,1885
10241,1872
10242,1861
10243,1833
10244,1886
10245,1872
10246,1869
10247,1877
10248,1879
10249,1877
10250,1841
10251,1843
10252,1861
10253,1848
10254,1823
10255,1825
10256,1827
10257,1863
10258,1862
10259,1851
10260,1921
10261,1872
10262,1881
10263,1874
10264,1899
10265,1887
10266,1853
10267,1829
10268,1822
10269,1870
10270,1847
10271,1831
10272,1840
10273,1859
10274,1863
10275,1829
10276,1862
10277,1911
10278,1895
10279,1871
10280,1858
10281,1865
10282,1863
10283,1853
10284,1844
10285,1879
10286,1846
10287,1840
10288,1854
10289,1858
10290,1920
10291,1861
10292,1845
10293,1837
10294,1861
10295,1874
10296,1846
10297,1853
10298,1939
10299,1903
10300,1858
10301,1830
10302,1869
10303,1851
10304,1840
10305,1840
10306,1860
10307,1872
10308,1857
10309,1866
10310,1840
10311,1872
10312,1869
10313,1868
10314,1872
10315,1907
10316,1855
10317,1835
10318,1824
10319,1841
10320,1838
10321,1833
10322,1821
10323,1851
10324,1879
10325,1865
10326,1872
10327,1878
10328,1884
10329,1872
10330,1878
10331,1883
10332,1879
10333,1849
10334,1845
10335,1834
10336,1837
10337,1830
10338,1833
10339,1860
10340,1923
10341,1868
10342,1863
10343,1862
10344,1886
10345,1863
10346,1862
10347,1855
10348,1921
10349,1871
10350,1847
10351,1856
10352,1899
10353,1852
10354,1839
10355,1846
10356,1840
10357,1887
10358,1859
10359,1863
10360,1872
10361,1898
10362,1871
10363,1872
10364,1886
10365,1923
10366,1869
10367,1854
10368,1861
10369,1870
10370,1841
10371,1839
10372,1838
10373,1865
10374,1869
10375,1851
10376,1837
10377,1878
10378,1873
10379,1869
10380,1869
10381,1901
10382,1890
10383,1852
10384,1840
10385,1891
10386,1859
10387,1839
10388,1831
10389,1851
10390,1874
10391,1867
10392,1859
10393,1857
10394,1903
10395,1873
10396,1865
10397,1866
10398,1895
10399,1879
10400,1855
10401,1857
10402,1877
10403,1846
10404,1825
10405,1828
10406,1859
10407,1866
10408,1854
10409,1863
10410,1877
10411,1891
10412,1872
10413,1868
10414,1900
10415,1936
10416,1859
10417,1847
10418,1858
10419,1870
10420,1840
10421,1836
10422,1833
10423,1860
10424,1872
10425,1865
10426,1858
10427,1891
10428,1880
10429,1864
10430,1870
10431,1861
10432,1856
10433,1840
10434,1838
10435,1849
10436,1865
10437,1834
10438,1840
10439,1870
10440,1835
10441,1841
10442,1859
10443,1899
10444,1888
10445,1872
10446,1867
10447,1904
10448,1903
10449,1877
10450,1854
10451,1853
10452,1851
10453,1853
10454,1835
10455,1845
10456,1831
10457,1873
10458,1861
10459,1867
10460,1895
10461,1917
10462,1871
10463,1872
10464,1866
10465,1926
10466,1862
10467,1846
10468,1872
10469,1850
10470,1839
10471,1838
10472,1841
10473,1870
10474,1874
10475,1863
10476,1861
10477,1885
10478,1874
10479,1866
10480,1853
10481,1858
10482,1867
10483,1858
10484,1853
10485,1895
10486,1872
10487,1834
10488,1840
10489,1825
10490,1854
10491,1863
10492,1859
10493,1837
10494,1872
10495,1865
10496,1856
10497,1860
10498,1846
10499,1878
10500,1856
10501,1836
10502,1887
10503,1845
10504,1838
10505,1819
10506,1854
10507,1882
10508,1862
10509,1863
10510,1917
10511,1863
10512,1867
10513,1868
10514,1903
10515,1877
10516,1867
10517,1856
10518,1856
10519,1856
10520,1839
10521,1808
10522,1826
10523,1898
10524,1866
10525,1856
10526,1847
10527,1909
10528,1874
10529,1862
10530,1872
10531,1878
10532,1886
10533,1856
10534,1841
10535,1814
10536,1829
10537,1839
10538,1828
10539,1873
10540,1920
10541,1867
10542,1863
10543,1849
10544,1867
10545,1871
10546,1863
10547,1858
10548,1895
10549,1873
10550,1855
10551,1856
10552,1872
10553,1853
10554,1829
10555,1840
10556,1845
10557,1872
10558,1845
10559,1854
10560,1875
10561,1883
10562,1871
10563,1871
10564,1890
10565,1950
10566,1863
10567,1863
10568,1855
10569,1843
10570,1847
10571,1831
10572,1834
10573,1858
10574,1873
10575,1859
10576,1861
10577,1878
10578,1878
10579,1866
10580,1870
10581,1878
10582,1872
10583,1849
10584,1838
10585,1838
10586,1859
10587,1839
10588,1830
10589,1840
10590,1858
10591,1865
10592,1871
10593,1878
10594,1867
10595,1872
10596,1863
10597,1879
10598,1916
10599,1875
10600,1854
10601,1838
10602,1872
10603,1850
10604,1835
10605,1852
10606,1882
10607,1873
10608,1856
10609,1859
10610,1911
10611,1881
10612,1863
10613,1861
10614,1865
10615,1920
10616,1859
10617,1840
10618,1835
10619,1858
10620,1839
10621,1831
10622,1830
10623,1861
10624,1872
10625,1855
10626,1860
10627,1921
10628,1878
10629,1863
10630,1858
10631,1878
10632,1895
10633,1856
10634,1853
10635,1874
10636,1875
10637,1834
10638,1843
10639,1840
10640,1895
10641,1870
10642,1862
10643,1859
10644,1872
10645,1869
10646,1859
10647,1882
10648,1921
10649,1872
10650,1840
10651,1839
10652,1883
10653,1852
10654,1840
10655,1862
10656,1850
10657,1891
10658,1865
10659,1845
10660,1874
10661,1903
10662,1871
10663,1862
10664,1869
10665,1875
10666,1865
10667,1853
10668,1866
10669,1874
10670,1840
10671,1827
10672,1853
10673,1853
10674,1871
10675,1857
10676,1855
10677,1859
10678,1872
10679,1868
10680,1878
10681,1877
10682,1868
10683,1858
10684,1845
10685,1861
10686,1845
10687,1837
10688,1838
10689,1840
10690,1881
10691,1867
10692,1871
10693,1837
10694,1914
10695,1872
10696,1863
10697,1901
10698,1903
10699,1872
10700,1849
10701,1855
10702,1851
10703,1851
10704,1831
10705,1834
10706,1846
10707,1840
10708,1857
10709,1857
10710,1873
10711,1877
10712,1871
10713,1860
10714,1886
10715,1887
10716,1865
10717,1850
10718,1871
10719,1835
10720,1840
10721,1840
10722,1838
10723,1853
10724,1875
10725,1845
10726,1863
10727,1900
10728,1872
10729,1866
10730,1859
10731,1866
10732,1858
10733,1855
10734,1840
10735,1879
10736,1853
10737,1827
10738,1829
10739,1859
10740,1857
10741,1852
10742,1861
10743,1845
10744,1878
10745,1869
10746,1866
10747,1879
10748,1904
10749,1875
10750,1847
10751,1853
10752,1855
10753,1843
10754,1834
10755,1840
10756,1835
10757,1873
10758,1862
10759,1856
10760,1885
10761,1904
10762,1863
10763,1865
10764,1851
10765,1911
10766,1855
10767,1844
10768,1871
10769,1872
10770,1840
10771,1836
10772,1857
10773,1906
10774,1872
10775,1859
10776,1862
10777,1923
10778,1877
10779,1866
10780,1854
10781,1879
10782,1882
10783,1861
10784,1846
10785,1818
10786,1831
10787,1837
10788,1839
10789,1838
10790,1858
10791,1871
10792,1861
10793,1868
10794,1867
10795,1861
10796,1856
10797,1854
10798,1921
10799,1875
10800,1856
10801,1840
10802,1872
10803,1843
10804,1837
10805,1824
10806,1840
10807,1889
10808,1856
10809,1853
10810,1867
10811,1861
10812,1870
10813,1860
10814,1893
10815,1858
10816,1858
10817,1845
10818,1856
10819,1874
10820,1840
10821,1834
10822,1845
10823,1905
10824,1872
10825,1855
10826,1861
10827,1901
10828,1870
10829,1854
10830,1854
10831,1873
10832,1894
10833,1847
10834,1855
10835,1851
10836,1874
10837,1838
10838,1833
10839,1840
10840,1853
10841,1863
10842,1862
10843,1872
10844,1877
10845,1869
10846,1865
10847,1865
10848,1858
10849,1877
10850,1848
10851,1847
10852,1855
10853,1847
10854,1823
10855,1816
10856,1872
10857,1872
10858,1850
10859,1855
10860,1841
10861,1865
10862,1869
10863,1862
10864,1904
10865,1890
10866,1863
10867,1841
10868,1856
10869,1879
10870,1843
10871,1833
10872,1855
10873,1881
10874,1871
10875,1859
10876,1880
10877,1914
10878,1881
10879,1868
10880,1856
10881,1910
10882,1887
10883,1856
10884,1847
10885,1899
10886,1874
10887,1835
10888,1838
10889,1854
10890,1857
10891,1863
10892,1858
10893,1854
10894,1867
10895,1872
10896,1869
10897,1876
10898,1870
10899,1869
10900,1846
10901,1835
10902,1893
10903,1840
10904,1828
10905,1822
10906,1882
10907,1875
10908,1863
10909,1861
10910,1887
10911,1909
10912,1861
10913,1862
10914,1866
10915,1871
10916,1850
10917,1849
10918,1851
10919,1863
10920,1843
10921,1840
10922,1835
10923,1834
10924,1868
10925,1855
10926,1871
10927,1896
10928,1874
10929,1867
10930,1852
10931,1904
10932,1892
10933,1861
10934,1847
10935,1866
10936,1872
10937,1840
10938,1838
10939,1853
10940,1904
10941,1859
10942,1861
10943,1847
10944,1902
10945,1867
10946,1859
10947,1875
10948,1894
10949,1865
10950,1849
10951,1840
10952,1852
10953,1845
10954,1834
10955,1843
10956,1879
10957,1873
10958,1861
10959,1867
10960,1920
10961,1903
10962,1872
10963,1857
10964,1863
10965,1906
10966,1862
10967,1850
10968,1847
10969,1871
10970,1840
10971,1833
10972,1843
10973,1857
10974,1866
10975,1852
10976,1850
10977,1891
10978,1872
10979,1867
10980,1868
10981,1889
10982,1890
10983,1854
10984,1845
10985,1843
10986,1875
10987,1840
10988,1835
10989,1841
10990,1835
10991,1865
10992,1856
10993,1899
10994,1862
10995,1861
10996,1866
10997,1887
10998,1882
10999,1876
11000,1854
11001,1843
11002,1870
11003,1843
11004,1824
11005,1836
11006,1849
11007,1875
11008,1854
11009,1859
11010,1885
11011,1904
11012,1872
11013,1867
11014,1866
11015,1941
11016,1862
11017,1853
11018,1837
11019,1863
11020,1838
11021,1834
11022,1826
11023,1861
11024,1869
11025,1871
11026,1865
11027,1906
11028,1883
11029,1872
11030,1863
11031,1891
11032,1871
11033,1825
11034,1840
11035,1850
11036,1844
11037,1831
11038,1824
11039,1872
11040,1882
11041,1849
11042,1843
11043,1867
11044,1882
11045,1877
11046,1889
11047,1902
11048,1888
11049,1872
11050,1843
11051,1820
11052,1904
11053,1827
11054,1819
11055,1839
11056,1840
11057,1887
11058,1859
11059,1882
11060,1869
11061,1862
11062,1872
11063,1872
11064,1863
11065,1856
11066,1849
11067,1840
11068,1861
11069,1833
11070,1840
11071,1840
11072,1840
11073,1870
11074,1872
11075,1855
11076,1856
11077,1889
11078,1875
11079,1865
11080,1872
11081,1894
11082,1903
11083,1855
11084,1856
11085,1843
11086,1840
11087,1839
11088,1826
11089,1861
11090,1872
11091,1870
11092,1863
11093,1877
11094,1877
11095,1863
11096,1853
11097,1856
11098,1906
11099,1872
11100,1858
11101,1840
11102,1898
11103,1851
11104,1838
11105,1841
11106,1867
11107,1885
11108,1857
11109,1872
11110,1885
11111,1885
11112,1862
11113,1869
11114,1901
11115,1940
11116,1861
11117,1849
11118,1835
11119,1856
11120,1839
11121,1833
11122,1866
11123,1875
11124,1872
11125,1855
11126,1856
11127,1894
11128,1873
11129,1857
11130,1856
11131,1886
11132,1873
11133,1854
11134,1845
11135,1851
11136,1854
11137,1835
11138,1834
11139,1826
11140,1891
11141,1871
11142,1867
11143,1871
11144,1889
11145,1873
11146,1870
11147,1872
11148,1872
11149,1878
11150,1840
11151,1839
11152,1843
11153,1847
11154,1829
11155,1835
11156,1859
11157,1842
11158,1857
11159,1841
11160,1878
11161,1897
11162,1865
11163,1858
11164,1867
11165,1872
11166,1872
11167,1834
11168,1856
11169,1848
11170,1833
11171,1834
11172,1860
11173,1627
11174,1394
11175,1909
11176,1819
11177,1731
11178,1749
11179,1805
11180,1983
11181,2256
11182,2297
11183,2429
11184,2786
11185,2863
11186,2555
11187,2044
11188,1615
11189,1415
11190,1419
11191,1350
11192,1344
11193,1394
11194,1507
11195,1643
11196,1759
11197,1741
11198,1740
11199,1813
11200,1838
11201,1851
11202,1860
11203,1872
11204,2735
11205,1135
11206,1851
11207,1814
11208,1723
11209,1729
11210,1755
11211,2125
11212,2624
11213,2635
11214,2559
11215,2781
11216,2691
11217,2242
11218,1691
11219,1405
11220,1271
11221,1200
11222,1262
11223,1359
11224,1534
11225,1665
11226,1762
11227,1871
11228,1875
11229,1889
11230,1904
11231,1899
11232,1930
11233,1904
11234,1891
11235,2545
11236,945
11237,1823
11238,1734
11239,1787
11240,1778
11241,1827
11242,2367
11243,2743
11244,2403
11245,2465
11246,2803
11247,2693
11248,2203
11249,1594
11250,1295
11251,1168
11252,1159
11253,1243
11254,1363
11255,1515
11256,1695
11257,1812
11258,1844
11259,1870
11260,1899
11261,1936
11262,1904
11263,1901
11264,1935
11265,1962
11266,1917
11267,574
11268,1809
11269,1847
11270,1978
11271,2036
11272,2102
11273,2605
11274,2748
11275,1798
11276,2157
11277,2874
11278,2790
11279,2182
11280,1616
11281,1322
11282,1104
11283,1023
11284,1100
11285,1295
11286,1535
11287,1689
11288,1789
11289,1872
11290,1914
11291,1914
11292,1910
11293,1927
11294,1932
11295,1929
11296,1919
11297,1942
11298,478
11299,1829
11300,1853
11301,2037
11302,2123
11303,2163
11304,2594
11305,2263
11306,1616
11307,2620
11308,3057
11309,2785
11310,2091
11311,1520
11312,1199
11313,1042
11314,1103
11315,1231
11316,1371
11317,1591
11318,1760
11319,1855
11320,1865
11321,1866
11322,1859
11323,1890
11324,1914
11325,1911
11326,1910
11327,1975
11328,1935
11329,415
11330,1765
11331,1793
11332,1850
11333,1901
11334,2022
11335,2559
11336,2109
11337,1945
11338,2799
11339,2994
11340,2697
11341,2112
11342,1535
11343,1237
11344,1136
11345,1106
11346,1197
11347,1424
11348,1681
11349,1777
11350,1840
11351,1862
11352,1926
11353,1897
11354,1886
11355,1875
11356,1919
11357,1931
11358,1910
11359,1909
11360,563
11361,1579
11362,1808
11363,1744
11364,1847
11365,2005
11366,2633
11367,2139
11368,2032
11369,2809
11370,2972
11371,2675
11372,2121
11373,1654
11374,1287
11375,1084
11376,1111
11377,1249
11378,1428
11379,1645
11380,1805
11381,1854
11382,1889
11383,1878
11384,1879
11385,1865
11386,1903
11387,1889
11388,1890
11389,1918
11390,1963
11391,1331
11392,1443
11393,1831
11394,1723
11395,1819
11396,2001
11397,2640
11398,2192
11399,2159
11400,2871
11401,2992
11402,2704
11403,2112
11404,1561
11405,1248
11406,1033
11407,1104
11408,1162
11409,1386
11410,1596
11411,1811
11412,1833
11413,1861
11414,1903
11415,1938
11416,1909
11417,1903
11418,1909
11419,1917
11420,1896
11421,1878
11422,2463
11423,1169
11424,1859
11425,1735
11426,1840
11427,2021
11428,2553
11429,2047
11430,2111
11431,2918
11432,3082
11433,2775
11434,2211
11435,1699
11436,1297
11437,1014
11438,985
11439,1140
11440,1344
11441,1585
11442,1766
11443,1853
11444,1871
11445,1890
11446,1900
11447,1915
11448,1930
11449,1946
11450,1920
11451,1923
11452,1974
11453,2672
11454,943
11455,1855
11456,1803
11457,2032
11458,2185
11459,2611
11460,2007
11461,1729
11462,2737
11463,3082
11464,2890
11465,2300
11466,1712
11467,1299
11468,981
11469,1022
11470,1050
11471,1242
11472,1511
11473,1734
11474,1826
11475,1874
11476,1891
11477,1975
11478,1943
11479,1921
11480,1935
11481,1940
11482,1956
11483,1918
11484,2325
11485,702
11486,1834
11487,1745
11488,1796
11489,1936
11490,2335
11491,2024
11492,2192
11493,2945
11494,3169
11495,2913
11496,2320
11497,1747
11498,1364
11499,1051
11500,973
11501,1072
11502,1290
11503,1522
11504,1706
11505,1811
11506,1882
11507,1951
11508,1927
11509,1907
11510,1904
11511,1914
11512,1923
11513,1920
11514,1937
11515,1961
11516,401
11517,1806
11518,1776
11519,1771
11520,1895
11521,2320
11522,2184
11523,2070
11524,2817
11525,3158
11526,2934
11527,2422
11528,1822
11529,1330
11530,1049
11531,1040
11532,1091
11533,1233
11534,1488
11535,1678
11536,1799
11537,1855
11538,1882
11539,1916
11540,1942
11541,1941
11542,1936
11543,1930
11544,1936
11545,1918
11546,1889
11547,185
11548,1709
11549,1808
11550,1819
11551,1943
11552,2363
11553,2239
11554,1862
11555,2693
11556,3095
11557,2992
11558,2431
11559,1808
11560,1391
11561,1122
11562,993
11563,1051
11564,1214
11565,1486
11566,1686
11567,1806
11568,1874
11569,1917
11570,1903
11571,1895
11572,1919
11573,1904
11574,1935
11575,1927
11576,1919
11577,1907
11578,253
11579,1662
11580,1833
11581,1787
11582,1895
11583,2259
11584,2307
11585,1950
11586,2677
11587,3103
11588,2960
11589,2477
11590,1936
11591,1435
11592,1091
11593,965
11594,1056
11595,1220
11596,1452
11597,1670
11598,1855
11599,1888
11600,1899
11601,1917
11602,1945
11603,1913
11604,1890
11605,1897
11606,1895
11607,1929
11608,1899
11609,751
11610,1486
11611,1872
11612,1765
11613,1872
11614,2198
11615,2357
11616,1917
11617,2643
11618,3130
11619,3022
11620,2554
11621,1922
11622,1425
11623,1102
11624,1021
11625,1057
11626,1190
11627,1448
11628,1665
11629,1808
11630,1875
11631,1947
11632,1920
11633,1908
11634,1893
11635,1902
11636,1924
11637,1897
11638,1890
11639,1909
11640,1687
11641,1280
11642,1871
11643,1797
11644,1910
11645,2203
11646,2492
11647,1872
11648,2458
11649,3060
11650,3027
11651,2586
11652,2023
11653,1516
11654,1142
11655,961
11656,1063
11657,1185
11658,1397
11659,1616
11660,1826
11661,1866
11662,1904
11663,1919
11664,1930
11665,1957
11666,1920
11667,1904
11668,1933
11669,1905
11670,1891
11671,2725
11672,1020
11673,1921
11674,1776
11675,1817
11676,2096
11677,2502
11678,1943
11679,2480
11680,3063
11681,3105
11682,2723
11683,2067
11684,1532
11685,1185
11686,999
11687,976
11688,1121
11689,1356
11690,1663
11691,1773
11692,1853
11693,1887
11694,1919
11695,1925
11696,1909
11697,1942
11698,1979
11699,1931
11700,1904
11701,1904
11702,2449
11703,795
11704,1834
11705,1729
11706,1813
11707,2065
11708,2478
11709,2022
11710,2324
11711,3015
11712,3097
11713,2733
11714,2176
11715,1681
11716,1243
11717,981
11718,994
11719,1134
11720,1305
11721,1514
11722,1686
11723,1864
11724,1897
11725,1904
11726,1926
11727,1981
11728,1935
11729,1927
11730,1937
11731,1954
11732,1955
11733,1968
11734,549
11735,1851
11736,1814
11737,1808
11738,1985
11739,2448
11740,2030
11741,2189
11742,2918
11743,3120
11744,2819
11745,2243
11746,1680
11747,1278
11748,1093
11749,998
11750,1099
11751,1293
11752,1598
11753,1706
11754,1793
11755,1841
11756,1889
11757,1925
11758,1918
11759,1925
11760,1913
11761,1989
11762,1936
11763,1925
11764,1927
11765,304
11766,1771
11767,1792
11768,1834
11769,1959
11770,2413
11771,2041
11772,2139
11773,2907
11774,3115
11775,2837
11776,2287
11777,1744
11778,1331
11779,1051
11780,994
11781,1104
11782,1329
11783,1520
11784,1701
11785,1835
11786,1868
11787,1872
11788,1890
11789,1925
11790,1920
11791,1933
11792,1927
11793,1974
11794,1972
11795,1933
11796,1922
11797,1952
11798,1904
11799,1920
11800,1883
11801,1869
11802,1879
11803,1867
11804,1853
11805,1851
11806,1877
11807,1904
11808,1877
11809,1879
11810,1905
11811,1883
11812,1880
11813,1871
11814,1853
11815,1891
11816,1844
11817,1839
11818,1811
11819,1853
11820,1843
11821,1840
11822,1840
11823,1879
11824,1885
11825,1856
11826,1861
11827,1934
11828,1894
11829,1877
11830,1889
11831,1876
11832,1885
11833,1858
11834,1840
11835,1813
11836,1843
11837,1833
11838,1842
11839,1869
11840,1888
11841,1867
11842,1856
11843,1852
11844,1863
11845,1852
11846,1844
11847,1883
11848,1891
11849,1867
11850,1834
11851,1819
11852,1843
11853,1852
11854,1838
11855,1838
11856,1854
11857,1886
11858,1863
11859,1869
11860,1872
11861,1915
11862,1863
11863,1857
11864,1870
11865,1875
11866,1869
11867,1871
11868,1879
11869,1860
11870,1836
11871,1811
11872,1808
11873,1895
11874,1868
11875,1851
11876,1859
11877,1904
11878,1872
11879,1854
11880,1855
11881,1895
11882,1889
11883,1861
11884,1846
11885,1834
11886,1863
11887,1839
11888,1824
11889,1861
11890,1902
11891,1872
11892,1867
11893,1866
11894,1887
11895,1878
11896,1863
11897,1859
11898,1870
11899,1890
11900,1869
11901,1872
11902,1829
11903,1797
11904,1831
11905,1872
11906,1811
11907,1840
11908,1829
11909,1858
11910,1888
11911,1879
11912,1882
11913,1879
11914,1887
11915,1872
11916,1833
11917,1808
11918,1854
11919,1867
11920,1863
11921,1846
11922,1865
11923,1839
11924,1872
11925,1838
11926,1861
11927,1859
11928,1875
11929,1867
11930,1872
11931,1875
11932,1879
11933,1847
11934,1847
11935,1855
11936,1866
11937,1835
11938,1822
