Time(ms),Raw_ADC
0,1713
1,1711
2,1721
3,1725
4,1731
5,1728
6,1729
7,1728
8,1734
9,1733
10,1737
11,1740
12,1740
13,1741
14,1741
15,1742
16,1744
17,1746
18,1745
19,1744
20,1745
21,1745
22,1734
23,1729
24,1727
25,1723
26,1717
27,1724
28,1727
29,1731
30,1734
31,1735
32,1738
33,1739
34,1739
35,1742
36,1741
37,1744
38,1743
39,1743
40,1744
41,1744
42,1744
43,1744
44,1745
45,1747
46,1746
47,1751
48,1750
49,1751
50,1751
51,1749
52,1745
53,1739
54,1732
55,1728
56,1723
57,1732
58,1734
59,2336
60,783
61,1758
62,1785
63,1734
64,1712
65,1710
66,1723
67,1749
68,1758
69,1813
70,1900
71,1926
72,1898
73,1883
74,1872
75,1861
76,1837
77,1806
78,1792
79,1776
80,1772
81,1767
82,1755
83,1747
84,1744
85,1733
86,1727
87,1730
88,1731
89,1733
90,2055
91,413
92,1675
93,1787
94,1734
95,1701
96,1690
97,1695
98,1730
99,1771
100,1832
101,1928
102,1933
103,1910
104,1887
105,1865
106,1841
107,1808
108,1782
109,1768
110,1758
111,1751
112,1743
113,1735
114,1728
115,1717
116,1709
117,1695
118,1691
119,1680
120,1670
121,1680
122,405
123,1407
124,1731
125,1675
126,1638
127,1625
128,1648
129,1705
130,1759
131,1850
132,1968
133,1975
134,1945
135,1907
136,1870
137,1838
138,1797
139,1770
140,1754
141,1745
142,1738
143,1728
144,1728
145,1721
146,1712
147,1720
148,1719
149,1719
150,1722
151,1721
152,1721
153,1120
154,1118
155,1744
156,1680
157,1620
158,1606
159,1634
160,1713
161,1789
162,1904
163,2030
164,2042
165,2000
166,1933
167,1873
168,1829
169,1778
170,1747
171,1728
172,1713
173,1709
174,1705
175,1707
176,1695
177,1683
178,1689
179,1695
180,1696
181,1696
182,1700
183,1704
184,2240
185,765
186,1700
187,1663
188,1594
189,1570
190,1598
191,1676
192,1758
193,1917
194,2078
195,2096
196,2011
197,1922
198,1869
199,1818
200,1785
201,1765
202,1737
203,1726
204,1722
205,1723
206,1717
207,1698
208,1682
209,1696
210,1698
211,1696
212,1697
213,1700
214,1702
215,1864
216,343
217,1606
218,1679
219,1575
220,1531
221,1559
222,1648
223,1746
224,1920
225,2112
226,2139
227,2033
228,1936
229,1882
230,1840
231,1794
232,1756
233,1731
234,1725
235,1718
236,1714
237,1719
238,1714
239,1712
240,1713
241,1714
242,1719
243,1715
244,1712
245,1714
246,1714
247,550
248,1374
249,1711
250,1575
251,1501
252,1511
253,1603
254,1688
255,1859
256,2111
257,2172
258,2078
259,1993
260,1931
261,1887
262,1840
263,1791
264,1757
265,1729
266,1716
267,1729
268,1728
269,1724
270,1723
271,1725
272,1727
273,1719
274,1716
275,1714
276,1717
277,1721
278,1328
279,1045
280,1716
281,1567
282,1451
283,1455
284,1535
285,1626
286,1830
287,2160
288,2229
289,2124
290,2041
291,1993
292,1945
293,1875
294,1811
295,1757
296,1713
297,1687
298,1703
299,1710
300,1698
301,1687
302,1681
303,1687
304,1705
305,1710
306,1712
307,1723
308,1727
309,2599
310,668
311,1687
312,1630
313,1495
314,1474
315,1532
316,1570
317,1799
318,2191
319,2176
320,2057
321,1997
322,1968
323,1935
324,1879
325,1808
326,1745
327,1707
328,1697
329,1710
330,1710
331,1703
332,1698
333,1703
334,1702
335,1700
336,1701
337,1699
338,1705
339,1706
340,1751
341,304
342,1582
343,1680
344,1506
345,1452
346,1491
347,1484
348,1728
349,2187
350,2158
351,2047
352,2007
353,2016
354,1989
355,1910
356,1818
357,1759
358,1729
359,1729
360,1735
361,1731
362,1726
363,1716
364,1713
365,1714
366,1712
367,1702
368,1708
369,1710
370,1711
371,1712
372,529
373,1366
374,1735
375,1589
376,1499
377,1511
378,1451
379,1631
380,2160
381,2135
382,1990
383,1983
384,2020
385,1993
386,1907
387,1805
388,1744
389,1721
390,1717
391,1721
392,1717
393,1712
394,1712
395,1714
396,1719
397,1727
398,1726
399,1717
400,1717
401,1715
402,1713
403,1291
404,1035
405,1746
406,1651
407,1535
408,1535
409,1450
410,1501
411,2101
412,2128
413,1973
414,1968
415,2013
416,1983
417,1891
418,1791
419,1741
420,1721
421,1718
422,1722
423,1721
424,1715
425,1712
426,1712
427,1713
428,1714
429,1712
430,1712
431,1702
432,1703
433,1712
434,2675
435,576
436,1693
437,1709
438,1581
439,1569
440,1503
441,1421
442,2003
443,2146
444,1978
445,1945
446,1999
447,1990
448,1917
449,1831
450,1776
451,1749
452,1743
453,1741
454,1742
455,1739
456,1731
457,1729
458,1728
459,1726
460,1725
461,1725
462,1724
463,1723
464,1722
465,1731
466,309
467,1571
468,1742
469,1601
470,1559
471,1517
472,1342
473,1866
474,2138
475,1963
476,1902
477,1942
478,1958
479,1904
480,1811
481,1750
482,1728
483,1721
484,1725
485,1726
486,1719
487,1714
488,1718
489,1718
490,1717
491,1717
492,1712
493,1712
494,1714
495,1715
496,1718
497,603
498,1328
499,1776
500,1655
501,1579
502,1535
503,1364
504,1703
505,2161
506,2032
507,1922
508,1939
509,1962
510,1918
511,1837
512,1773
513,1744
514,1739
515,1741
516,1741
517,1731
518,1728
519,1728
520,1735
521,1726
522,1714
523,1710
524,1712
525,1725
526,1730
527,1730
528,1767
529,873
530,1751
531,1739
532,1626
533,1616
534,1453
535,1531
536,2146
537,2087
538,1922
539,1922
540,1931
541,1891
542,1819
543,1773
544,1755
545,1744
546,1744
547,1744
548,1743
549,1734
550,1729
551,1725
552,1727
553,1726
554,1735
555,1734
556,1731
557,1728
558,1728
559,2538
560,511
561,1690
562,1743
563,1616
564,1602
565,1495
566,1438
567,2090
568,2131
569,1954
570,1939
571,1967
572,1921
573,1840
574,1786
575,1760
576,1753
577,1749
578,1747
579,1747
580,1744
581,1733
582,1730
583,1729
584,1722
585,1712
586,1725
587,1731
588,1731
589,1731
590,1728
591,300
592,1525
593,1746
594,1619
595,1581
596,1520
597,1340
598,1935
599,2176
600,1960
601,1900
602,1945
603,1949
604,1874
605,1795
606,1751
607,1737
608,1731
609,1735
610,1733
611,1727
612,1717
613,1715
614,1714
615,1712
616,1710
617,1709
618,1696
619,1693
620,1689
621,1684
622,747
623,1237
624,1725
625,1641
626,1561
627,1535
628,1339
629,1719
630,2157
631,1978
632,1869
633,1911
634,1918
635,1856
636,1791
637,1753
638,1739
639,1733
640,1735
641,1739
642,1731
643,1717
644,1712
645,1712
646,1714
647,1733
648,1739
649,1723
650,1712
651,1714
652,1711
653,2084
654,788
655,1691
656,1659
657,1522
658,1531
659,1399
660,1484
661,2121
662,2085
663,1921
664,1943
665,1979
666,1936
667,1840
668,1776
669,1745
670,1736
671,1733
672,1735
673,1734
674,1733
675,1732
676,1729
677,1719
678,1700
679,1687
680,1712
681,1742
682,1727
683,1709
684,1703
685,1693
686,1686
687,1679
688,1677
689,1664
690,1671
691,1679
692,1682
693,1685
694,1689
695,1695
696,1699
697,1702
698,1705
699,1709
700,1711
701,1712
702,1712
703,1712
704,1712
705,1712
706,1712
707,1712
708,1712
709,1711
710,1710
711,1712
712,1707
713,1699
714,1697
715,1687
716,1681
717,1694
718,1683
719,1698
720,1702
721,1703
722,1707
723,1709
724,1714
725,1719
726,1721
727,1723
728,1721
729,1724
730,1726
731,1729
732,1730
733,1730
734,1734
735,1733
736,1739
737,1737
738,1739
739,1735
740,1737
741,1737
742,1730
743,1720
744,1712
745,1712
746,1705
747,1693
748,1685
749,1700
750,1706
751,1712
752,1713
753,1718
754,1718
755,1719
756,1721
757,1725
758,1728
759,1728
760,1726
761,1727
762,1728
763,1730
764,1734
765,1735
766,1733
767,1726
768,1720
769,1712
770,1712
771,1707
772,1705
773,1701
774,1697
775,1691
776,1687
777,1680
778,1679
779,1689
780,1692
781,1696
782,1701
783,1705
784,1711
785,1712
786,1712
787,1715
788,1719
789,1723
790,1724
791,1726
792,1725
793,1727
794,1726
795,1728
796,1728
797,1731
798,1735
799,1739
800,1737
801,1735
802,1727
803,1721
804,1712
805,1705
806,1699
807,1705
808,1707
809,1707
810,1711
811,1712
812,1711
813,1712
814,1712
815,1713
816,1715
817,1714
818,1707
819,1719
820,1721
821,1719
822,1725
823,1724
824,1723
825,1727
826,1730
827,1731
828,1731
829,1731
830,1734
831,1738
832,1733
833,1719
834,1715
835,1712
836,1709
837,1695
838,1691
839,1702
840,1707
841,1712
842,1715
843,1718
844,1722
845,1721
846,1714
847,1713
848,1719
849,1727
850,1728
851,1733
852,1735
853,1735
854,1738
855,1741
856,1740
857,1741
858,1744
859,1744
860,1743
861,1744
862,1738
863,1728
864,1721
865,1715
866,1712
867,1721
868,1723
869,1727
870,1728
871,1730
872,1728
873,1728
874,1729
875,1732
876,1730
877,1730
878,1731
879,1735
880,1739
881,1742
882,1742
883,1744
884,1743
885,1744
886,1744
887,1744
888,1744
889,1744
890,1744
891,1743
892,1733
893,1728
894,1722
895,1717
896,1711
897,1701
898,1713
899,1716
900,1719
901,1722
902,1723
903,1727
904,1725
905,1725
906,1724
907,1725
908,1723
909,1722
910,1722
911,1723
912,1723
913,1723
914,1726
915,1722
916,1727
917,1725
918,1712
919,1709
920,1706
921,1705
922,1699
923,1697
924,1693
925,1691
926,1687
927,1679
928,1676
929,1687
930,1693
931,1698
932,1702
933,1707
934,1710
935,1712
936,1712
937,1715
938,1718
939,1723
940,1726
941,1727
942,1726
943,1728
944,1728
945,1731
946,1731
947,1734
948,1737
949,1737
950,1737
951,1738
952,1728
953,1724
954,1721
955,1712
956,1706
957,1716
958,1719
959,1725
960,1726
961,1726
962,1729
963,1730
964,1728
965,1732
966,1733
967,1729
968,1731
969,1732
970,1734
971,1739
972,1735
973,1738
974,1737
975,1738
976,1735
977,1735
978,1737
979,1739
980,1740
981,1741
982,1735
983,1726
984,1719
985,1718
986,1713
987,1725
988,1725
989,1723
990,1727
991,1731
992,1729
993,1732
994,1733
995,1733
996,1736
997,1739
998,1738
999,1741
1000,1742
1001,1742
1002,1739
1003,1725
1004,1733
1005,1729
1006,1729
1007,1729
1008,1730
1009,1730
1010,1729
1011,1734
1012,1724
1013,1716
1014,1709
1015,1703
1016,1696
1017,1681
1018,1698
1019,1702
1020,1707
1021,1711
1022,1714
1023,1716
1024,1717
1025,1721
1026,1723
1027,1728
1028,1728
1029,1728
1030,1733
1031,1734
1032,1738
1033,1738
1034,1743
1035,1744
1036,1744
1037,1744
1038,1744
1039,1744
1040,1745
1041,1746
1042,1740
1043,1730
1044,1724
1045,1718
1046,1710
1047,1701
1048,1696
1049,1710
1050,1712
1051,1715
1052,1718
1053,1723
1054,1728
1055,1728
1056,1728
1057,1730
1058,1732
1059,1733
1060,1735
1061,1735
1062,1740
1063,1741
1064,1741
1065,1739
1066,1738
1067,1725
1068,1723
1069,1717
1070,1712
1071,1709
1072,1705
1073,1699
1074,1693
1075,1693
1076,1687
1077,1680
1078,1692
1079,1698
1080,1703
1081,1709
1082,1712
1083,1712
1084,1717
1085,1719
1086,1722
1087,1722
1088,1726
1089,1727
1090,1727
1091,1728
1092,1727
1093,1727
1094,1728
1095,1738
1096,1742
1097,1743
1098,1742
1099,1742
1100,1733
1101,1730
1102,1721
1103,1716
1104,1712
1105,1706
1106,1702
1107,1709
1108,1712
1109,1712
1110,1716
1111,1717
1112,1717
1113,1717
1114,1718
1115,1719
1116,1721
1117,1725
1118,1714
1119,1725
1120,1727
1121,1727
1122,1728
1123,1733
1124,1735
1125,1735
1126,1735
1127,1738
1128,1739
1129,1741
1130,1741
1131,1744
1132,1736
1133,1728
1134,1722
1135,1713
1136,1710
1137,1698
1138,1691
1139,1707
1140,1709
1141,1706
1142,1711
1143,1712
1144,1717
1145,1721
1146,1724
1147,1726
1148,1729
1149,1734
1150,1737
1151,1735
1152,1731
1153,1729
1154,1734
1155,1734
1156,1738
1157,1739
1158,1744
1159,1744
1160,1744
1161,1746
1162,1731
1163,1721
1164,1717
1165,1713
1166,1711
1167,1701
1168,1694
1169,1709
1170,1711
1171,1717
1172,1718
1173,1722
1174,1722
1175,1726
1176,1727
1177,1728
1178,1729
1179,1728
1180,1733
1181,1732
1182,1734
1183,1729
1184,1727
1185,1728
1186,1731
1187,1741
1188,1745
1189,1751
1190,1745
1191,1743
1192,1738
1193,1728
1194,1719
1195,1713
1196,1711
1197,1699
1198,1696
1199,1683
1200,1697
1201,1698
1202,1698
1203,1699
1204,1701
1205,1705
1206,1707
1207,1711
1208,1712
1209,1714
1210,1715
1211,1714
1212,1715
1213,1718
1214,1719
1215,1719
1216,1722
1217,1723
1218,1712
1219,1710
1220,1706
1221,1703
1222,1703
1223,1698
1224,1699
1225,1696
1226,1691
1227,1683
1228,1680
1229,1694
1230,1697
1231,1705
1232,1707
1233,1712
1234,1714
1235,1712
1236,1718
1237,1720
1238,1729
1239,1729
1240,1730
1241,1733
1242,1728
1243,1719
1244,1715
1245,1717
1246,1728
1247,1730
1248,1735
1249,1738
1250,1742
1251,1746
1252,1741
1253,1727
1254,1717
1255,1713
1256,1708
1257,1694
1258,1693
1259,1703
1260,1707
1261,1712
1262,1712
1263,1714
1264,1715
1265,1719
1266,1721
1267,1721
1268,1723
1269,1723
1270,1725
1271,1723
1272,1728
1273,1728
1274,1727
1275,1728
1276,1729
1277,1732
1278,1735
1279,1737
1280,1741
1281,1740
1282,1733
1283,1728
1284,1719
1285,1712
1286,1707
1287,1701
1288,1711
1289,1712
1290,1712
1291,1711
1292,1712
1293,1718
1294,1725
1295,1728
1296,1729
1297,1731
1298,1734
1299,1732
1300,1733
1301,1731
1302,1728
1303,1729
1304,1729
1305,1727
1306,1727
1307,1726
1308,1730
1309,1731
1310,1733
1311,1730
1312,1722
1313,1714
1314,1709
1315,1705
1316,1701
1317,1709
1318,1697
1319,1713
1320,1716
1321,1717
1322,1717
1323,1718
1324,1722
1325,1722
1326,1725
1327,1724
1328,1728
1329,1735
1330,1738
1331,1738
1332,1738
1333,1739
1334,1731
1335,1734
1336,1738
1337,1743
1338,1743
1339,1743
1340,1744
1341,1744
1342,1739
1343,1729
1344,1719
1345,1712
1346,1711
1347,1702
1348,1699
1349,1712
1350,1717
1351,1721
1352,1728
1353,1730
1354,1734
1355,1730
1356,1731
1357,1733
1358,1733
1359,1735
1360,1737
1361,1738
1362,1738
1363,1739
1364,1739
1365,1741
1366,1741
1367,1726
1368,1723
1369,1715
1370,1712
1371,1707
1372,1703
1373,1699
1374,1696
1375,1696
1376,1691
1377,1680
1378,1679
1379,1690
1380,1697
1381,1702
1382,1706
1383,1710
1384,1712
1385,1713
1386,1717
1387,1722
1388,1725
1389,1726
1390,1727
1391,1727
1392,1729
1393,1729
1394,1731
1395,1733
1396,1738
1397,1738
1398,1740
1399,1741
1400,1741
1401,1741
1402,1729
1403,1722
1404,1714
1405,1709
1406,1698
1407,1686
1408,1683
1409,1673
1410,1681
1411,1684
1412,1688
1413,1692
1414,1696
1415,1695
1416,1699
1417,1698
1418,1692
1419,1702
1420,1707
1421,1710
1422,1712
1423,1712
1424,1714
1425,1715
1426,1719
1427,1723
1428,1725
1429,1727
1430,1728
1431,1730
1432,1726
1433,1721
1434,1718
1435,1712
1436,1711
1437,1702
1438,1693
1439,1709
1440,1710
1441,1707
1442,1703
1443,1706
1444,1712
1445,1715
1446,1718
1447,1722
1448,1723
1449,1727
1450,1727
1451,1730
1452,1730
1453,1732
1454,1733
1455,1732
1456,1733
1457,1735
1458,1733
1459,1734
1460,1737
1461,1740
1462,1730
1463,1723
1464,1719
1465,1713
1466,1711
1467,1718
1468,1715
1469,1719
1470,1727
1471,1728
1472,1730
1473,1731
1474,1730
1475,1733
1476,1735
1477,1734
1478,1738
1479,1739
1480,1741
1481,1742
1482,1742
1483,1742
1484,1742
1485,1744
1486,1744
1487,1744
1488,1744
1489,1744
1490,1743
1491,1743
1492,1728
1493,1726
1494,1718
1495,1714
1496,1709
1497,1698
1498,1712
1499,1712
1500,1714
1501,1714
1502,1717
1503,1718
1504,1717
1505,1720
1506,1721
1507,1724
1508,1721
1509,1723
1510,1721
1511,1723
1512,1722
1513,1723
1514,1727
1515,1727
1516,1727
1517,1727
1518,1715
1519,1712
1520,1710
1521,1703
1522,1701
1523,1705
1524,1701
1525,1695
1526,1686
1527,1680
1528,1675
1529,1685
1530,1691
1531,1695
1532,1701
1533,1703
1534,1707
1535,1709
1536,1712
1537,1716
1538,1716
1539,1719
1540,1722
1541,1726
1542,1728
1543,1729
1544,1729
1545,1733
1546,1732
1547,1731
1548,1736
1549,1737
1550,1738
1551,1738
1552,1734
1553,1722
1554,1717
1555,1717
1556,1718
1557,1726
1558,1727
1559,1725
1560,1723
1561,1718
1562,1722
1563,1726
1564,1728
1565,1729
1566,1733
1567,1729
1568,1729
1569,1733
1570,1733
1571,1736
1572,1738
1573,1737
1574,1737
1575,1735
1576,1737
1577,1740
1578,1741
1579,1742
1580,1741
1581,1744
1582,1739
1583,1729
1584,1728
1585,1722
1586,1712
1587,1705
1588,1713
1589,1717
1590,1718
1591,1719
1592,1721
1593,1723
1594,1725
1595,1727
1596,1729
1597,1730
1598,1733
1599,1731
1600,1733
1601,1733
1602,1733
1603,1730
1604,1729
1605,1729
1606,1731
1607,1728
1608,1728
1609,1728
1610,1729
1611,1729
1612,1721
1613,1715
1614,1711
1615,1703
1616,1698
1617,1708
1618,1699
1619,1712
1620,1712
1621,1714
1622,1716
1623,1718
1624,1719
1625,1724
1626,1726
1627,1729
1628,1731
1629,1735
1630,1734
1631,1739
1632,1738
1633,1738
1634,1743
1635,1741
1636,1742
1637,1742
1638,1739
1639,1739
1640,1740
1641,1739
1642,1730
1643,1726
1644,1723
1645,1715
1646,1712
1647,1721
1648,1726
1649,1726
1650,1729
1651,1731
1652,1738
1653,1741
1654,1741
1655,1743
1656,1741
1657,1742
1658,1742
1659,1744
1660,1741
1661,1742
1662,1743
1663,1744
1664,1744
1665,1745
1666,1746
1667,1735
1668,1728
1669,1723
1670,1717
1671,1712
1672,1710
1673,1705
1674,1702
1675,1699
1676,1693
1677,1683
1678,1680
1679,1695
1680,1702
1681,1707
1682,1710
1683,1712
1684,1715
1685,192
1686,1587
1687,1797
1688,1731
1689,1695
1690,1681
1691,1685
1692,1713
1693,1744
1694,1776
1695,1861
1696,1937
1697,1931
1698,1915
1699,1904
1700,1889
1701,1858
1702,1809
1703,1765
1704,1743
1705,1725
1706,1713
1707,1699
1708,1711
1709,1712
1710,1706
1711,1699
1712,1701
1713,1705
1714,1702
1715,1703
1716,642
1717,1274
1718,1744
1719,1690
1720,1643
1721,1621
1722,1631
1723,1668
1724,1722
1725,1785
1726,1919
1727,1999
1728,1965
1729,1936
1730,1902
1731,1870
1732,1823
1733,1774
1734,1743
1735,1727
1736,1712
1737,1723
1738,1722
1739,1723
1740,1714
1741,1714
1742,1713
1743,1717
1744,1714
1745,1714
1746,1712
1747,1506
1748,953
1749,1734
1750,1677
1751,1607
1752,1584
1753,1587
1754,1638
1755,1726
1756,1846
1757,2047
1758,2108
1759,2047
1760,1984
1761,1919
1762,1866
1763,1808
1764,1766
1765,1735
1766,1712
1767,1698
1768,1691
1769,1686
1770,1682
1771,1674
1772,1682
1773,1683
1774,1686
1775,1687
1776,1690
1777,1693
1778,2384
1779,445
1780,1659
1781,1681
1782,1600
1783,1570
1784,1583
1785,1638
1786,1721
1787,1849
1788,2046
1789,2115
1790,2060
1791,1971
1792,1901
1793,1840
1794,1783
1795,1741
1796,1718
1797,1716
1798,1713
1799,1716
1800,1723
1801,1722
1802,1712
1803,1710
1804,1710
1805,1712
1806,1705
1807,1703
1808,1701
1809,1702
1810,190
1811,1519
1812,1699
1813,1584
1814,1529
1815,1531
1816,1597
1817,1687
1818,1832
1819,2046
1820,2113
1821,2043
1822,1942
1823,1876
1824,1819
1825,1751
1826,1710
1827,1680
1828,1665
1829,1680
1830,1686
1831,1691
1832,1687
1833,1687
1834,1690
1835,1696
1836,1699
1837,1700
1838,1700
1839,1699
1840,1702
1841,761
1842,1184
1843,1727
1844,1616
1845,1529
1846,1509
1847,1556
1848,1641
1849,1797
1850,2059
1851,2176
1852,2091
1853,1984
1854,1917
1855,1856
1856,1797
1857,1766
1858,1745
1859,1730
1860,1718
1861,1723
1862,1726
1863,1719
1864,1712
1865,1712
1866,1710
1867,1702
1868,1700
1869,1705
1870,1706
1871,1703
1872,1810
1873,846
1874,1711
1875,1614
1876,1502
1877,1475
1878,1521
1879,1616
1880,1794
1881,2105
1882,2212
1883,2100
1884,2000
1885,1939
1886,1879
1887,1824
1888,1787
1889,1744
1890,1716
1891,1710
1892,1711
1893,1710
1894,1707
1895,1698
1896,1698
1897,1702
1898,1702
1899,1701
1900,1698
1901,1706
1902,1710
1903,1867
1904,290
1905,1611
1906,1671
1907,1530
1908,1470
1909,1489
1910,1535
1911,1712
1912,2075
1913,2182
1914,2039
1915,1963
1916,1922
1917,1893
1918,1835
1919,1789
1920,1744
1921,1713
1922,1711
1923,1713
1924,1713
1925,1711
1926,1705
1927,1704
1928,1706
1929,1702
1930,1697
1931,1695
1932,1696
1933,1705
1934,1712
1935,213
1936,1472
1937,1724
1938,1554
1939,1462
1940,1474
1941,1498
1942,1677
1943,2139
1944,2189
1945,2037
1946,1978
1947,1956
1948,1913
1949,1875
1950,1815
1951,1762
1952,1725
1953,1710
1954,1712
1955,1713
1956,1714
1957,1708
1958,1710
1959,1709
1960,1709
1961,1702
1962,1707
1963,1709
1964,1712
1965,1712
1966,719
1967,1180
1968,1730
1969,1586
1970,1455
1971,1431
1972,1418
1973,1521
1974,2062
1975,2141
1976,2000
1977,1951
1978,1968
1979,1973
1980,1914
1981,1827
1982,1761
1983,1714
1984,1704
1985,1703
1986,1710
1987,1705
1988,1694
1989,1693
1990,1695
1991,1698
1992,1701
1993,1707
1994,1701
1995,1699
1996,1703
1997,2247
1998,714
1999,1718
2000,1663
2001,1508
2002,1468
2003,1424
2004,1419
2005,1984
2006,2145
2007,2005
2008,1977
2009,2019
2010,2011
2011,1937
2012,1840
2013,1765
2014,1729
2015,1719
2016,1719
2017,1714
2018,1714
2019,1698
2020,1699
2021,1695
2022,1694
2023,1703
2024,1699
2025,1699
2026,1699
2027,1701
2028,1856
2029,234
2030,1616
2031,1741
2032,1594
2033,1531
2034,1497
2035,1389
2036,1877
2037,2144
2038,1968
2039,1917
2040,1963
2041,1963
2042,1904
2043,1817
2044,1754
2045,1728
2046,1727
2047,1728
2048,1731
2049,1725
2050,1715
2051,1712
2052,1712
2053,1713
2054,1712
2055,1713
2056,1712
2057,1712
2058,1715
2059,1713
2060,359
2061,1369
2062,1766
2063,1639
2064,1535
2065,1534
2066,1377
2067,1687
2068,2138
2069,2027
2070,1937
2071,1984
2072,2010
2073,1951
2074,1858
2075,1786
2076,1753
2077,1741
2078,1734
2079,1734
2080,1726
2081,1717
2082,1714
2083,1718
2084,1719
2085,1723
2086,1716
2087,1712
2088,1710
2089,1710
2090,1712
2091,1213
2092,999
2093,1747
2094,1657
2095,1524
2096,1513
2097,1370
2098,1498
2099,2105
2100,2059
2101,1936
2102,1968
2103,2015
2104,1991
2105,1898
2106,1798
2107,1745
2108,1726
2109,1718
2110,1718
2111,1713
2112,1710
2113,1700
2114,1693
2115,1693
2116,1691
2117,1687
2118,1681
2119,1701
2120,1694
2121,1680
2122,2624
2123,528
2124,1655
2125,1685
2126,1567
2127,1535
2128,1454
2129,1386
2130,1983
2131,2085
2132,1935
2133,1921
2134,1965
2135,1930
2136,1840
2137,1773
2138,1737
2139,1725
2140,1718
2141,1721
2142,1727
2143,1725
2144,1721
2145,1715
2146,1711
2147,1703
2148,1705
2149,1706
2150,1705
2151,1706
2152,1705
2153,1740
2154,258
2155,1579
2156,1726
2157,1597
2158,1557
2159,1517
2160,1376
2161,1955
2162,2181
2163,2006
2164,1949
2165,1990
2166,1974
2167,1891
2168,1810
2169,1762
2170,1745
2171,1739
2172,1740
2173,1735
2174,1733
2175,1723
2176,1712
2177,1712
2178,1710
2179,1717
2180,1744
2181,1745
2182,1721
2183,1705
2184,1698
2185,523
2186,1296
2187,1731
2188,1631
2189,1564
2190,1569
2191,1369
2192,1722
2193,2164
2194,2003
2195,1899
2196,1943
2197,1963
2198,1902
2199,1818
2200,1761
2201,1743
2202,1730
2203,1727
2204,1727
2205,1723
2206,1715
2207,1710
2208,1708
2209,1705
2210,1705
2211,1705
2212,1694
2213,1685
2214,1680
2215,1674
2216,1482
2217,948
2218,1707
2219,1654
2220,1535
2221,1575
2222,1408
2223,1517
2224,2121
2225,2059
2226,1920
2227,1961
2228,2012
2229,1968
2230,1869
2231,1790
2232,1756
2233,1743
2234,1743
2235,1743
2236,1735
2237,1727
2238,1725
2239,1729
2240,1734
2241,1728
2242,1712
2243,1705
2244,1697
2245,1691
2246,1686
2247,2350
2248,466
2249,1643
2250,1699
2251,1559
2252,1535
2253,1447
2254,1378
2255,2060
2256,2128
2257,1930
2258,1933
2259,1997
2260,1972
2261,1875
2262,1796
2263,1758
2264,1743
2265,1735
2266,1734
2267,1729
2268,1709
2269,1686
2270,1680
2271,1677
2272,1675
2273,1694
2274,1680
2275,1667
2276,1659
2277,1650
2278,1651
2279,70
2280,1478
2281,1739
2282,1618
2283,1584
2284,1535
2285,1341
2286,1872
2287,2159
2288,1968
2289,1907
2290,1965
2291,1973
2292,1901
2293,1813
2294,1767
2295,1749
2296,1744
2297,1743
2298,1744
2299,1733
2300,1726
2301,1712
2302,1696
2303,1678
2304,1680
2305,1703
2306,1695
2307,1667
2308,1671
2309,1671
2310,1678
2311,1680
2312,1680
2313,1680
2314,1682
2315,1687
2316,1687
2317,1693
2318,1683
2319,1697
2320,1701
2321,1700
2322,1699
2323,1705
2324,1709
2325,1711
2326,1712
2327,1714
2328,1714
2329,1717
2330,1717
2331,1716
2332,1712
2333,1705
2334,1699
2335,1698
2336,1694
2337,1683
2338,1679
2339,1691
2340,1695
2341,1696
2342,1705
2343,1708
2344,1706
2345,1708
2346,1711
2347,1712
2348,1713
2349,1715
2350,1716
2351,1719
2352,1719
2353,1721
2354,1722
2355,1722
2356,1723
2357,1724
2358,1725
2359,1727
2360,1727
2361,1729
2362,1723
2363,1715
2364,1712
2365,1708
2366,1702
2367,1712
2368,1714
2369,1717
2370,1719
2371,1719
2372,1723
2373,1725
2374,1723
2375,1723
2376,1728
2377,1727
2378,1729
2379,1729
2380,1731
2381,1732
2382,1731
2383,1731
2384,1730
2385,1732
2386,1732
2387,1735
2388,1737
2389,1734
2390,1735
2391,1737
2392,1729
2393,1722
2394,1717
2395,1712
2396,1707
2397,1694
2398,1702
2399,1709
2400,1711
2401,1712
2402,1710
2403,1712
2404,1712
2405,1712
2406,1713
2407,1712
2408,1712
2409,1714
2410,1715
2411,1715
2412,1716
2413,1718
2414,1717
2415,1719
2416,1722
2417,1725
2418,1711
2419,1711
2420,1703
2421,1698
2422,1695
2423,1693
2424,1686
2425,1682
2426,1680
2427,1674
2428,1670
2429,1683
2430,1691
2431,1692
2432,1699
2433,1702
2434,1709
2435,1712
2436,1713
2437,1712
2438,1713
2439,1716
2440,1717
2441,1719
2442,1723
2443,1723
2444,1723
2445,1726
2446,1728
2447,1728
2448,1729
2449,1728
2450,1730
2451,1733
2452,1729
2453,1723
2454,1719
2455,1712
2456,1707
2457,1693
2458,1686
2459,1701
2460,1703
2461,1707
2462,1712
2463,1713
2464,1714
2465,1713
2466,1717
2467,1716
2468,1716
2469,1717
2470,1725
2471,1725
2472,1727
2473,1728
2474,1728
2475,1729
2476,1730
2477,1738
2478,1738
2479,1735
2480,1739
2481,1739
2482,1733
2483,1725
2484,1715
2485,1712
2486,1705
2487,1693
2488,1702
2489,1705
2490,1709
2491,1712
2492,1712
2493,1712
2494,1717
2495,1717
2496,1723
2497,1725
2498,1726
2499,1729
2500,1732
2501,1731
2502,1729
2503,1730
2504,1731
2505,1726
2506,1725
2507,1727
2508,1727
2509,1724
2510,1723
2511,1722
2512,1714
2513,1710
2514,1700
2515,1696
2516,1689
2517,1697
2518,1693
2519,1703
2520,1709
2521,1710
2522,1711
2523,1712
2524,1716
2525,1717
2526,1721
2527,1723
2528,1725
2529,1728
2530,1728
2531,1729
2532,1728
2533,1728
2534,1730
2535,1731
2536,1734
2537,1733
2538,1733
2539,1737
2540,1737
2541,1738
2542,1729
2543,1726
2544,1723
2545,1720
2546,1712
2547,1703
2548,1696
2549,1708
2550,1712
2551,1712
2552,1713
2553,1715
2554,1718
2555,1725
2556,1726
2557,1723
2558,1726
2559,1728
2560,1730
2561,1729
2562,1732
2563,1732
2564,1731
2565,1735
2566,1737
2567,1722
2568,1718
2569,1714
2570,1710
2571,1707
2572,1701
2573,1699
2574,1695
2575,1691
2576,1686
2577,1676
2578,1684
2579,1690
2580,1697
2581,1701
2582,1706
2583,1712
2584,1712
2585,1713
2586,1714
2587,1718
2588,1719
2589,1722
2590,1726
2591,1725
2592,1727
2593,1730
2594,1731
2595,1730
2596,1731
2597,1734
2598,1735
2599,1739
2600,1739
2601,1739
2602,1728
2603,1721
2604,1713
2605,1710
2606,1703
2607,1706
2608,1706
2609,1705
2610,1707
2611,1710
2612,1711
2613,1712
2614,1712
2615,1711
2616,1712
2617,1712
2618,1710
2619,1722
2620,1727
2621,1728
2622,1725
2623,1719
2624,1722
2625,1722
2626,1727
2627,1727
2628,1728
2629,1731
2630,1733
2631,1734
2632,1727
2633,1722
2634,1717
2635,1712
2636,1707
2637,1695
2638,1687
2639,1703
2640,1706
2641,1709
2642,1709
2643,1709
2644,1712
2645,1714
2646,1715
2647,1719
2648,1723
2649,1726
2650,1726
2651,1729
2652,1729
2653,1729
2654,1730
2655,1731
2656,1731
2657,1731
2658,1735
2659,1731
2660,1733
2661,1734
2662,1727
2663,1721
2664,1712
2665,1709
2666,1700
2667,1710
2668,1712
2669,1712
2670,1717
2671,1720
2672,1721
2673,1719
2674,1722
2675,1727
2676,1729
2677,1729
2678,1734
2679,1734
2680,1735
2681,1738
2682,1741
2683,1739
2684,1742
2685,1742
2686,1744
2687,1744
2688,1743
2689,1744
2690,1744
2691,1744
2692,1739
2693,1729
2694,1728
2695,1721
2696,1712
2697,1701
2698,1689
2699,1707
2700,1711
2701,1713
2702,1713
2703,1715
2704,1714
2705,1712
2706,1712
2707,1713
2708,1715
2709,1713
2710,1714
2711,1714
2712,1715
2713,1714
2714,1721
2715,1726
2716,1725
2717,1728
2718,1712
2719,1705
2720,1697
2721,1692
2722,1690
2723,1690
2724,1689
2725,1689
2726,1682
2727,1677
2728,1671
2729,1683
2730,1690
2731,1693
2732,1701
2733,1707
2734,1707
2735,1711
2736,1712
2737,1712
2738,1717
2739,1719
2740,1723
2741,1725
2742,1725
2743,1726
2744,1728
2745,1730
2746,1733
2747,1731
2748,1731
2749,1733
2750,1731
2751,1733
2752,1728
2753,1723
2754,1717
2755,1713
2756,1712
2757,1712
2758,1714
2759,1723
2760,1725
2761,1723
2762,1725
2763,1725
2764,1726
2765,1728
2766,1729
2767,1724
2768,1727
2769,1728
2770,1730
2771,1734
2772,1733
2773,1733
2774,1727
2775,1727
2776,1730
2777,1733
2778,1738
2779,1740
2780,1741
2781,1743
2782,1739
2783,1730
2784,1727
2785,1717
2786,1710
2787,1700
2788,1710
2789,1713
2790,1713
2791,1717
2792,1723
2793,1726
2794,1728
2795,1728
2796,1730
2797,1729
2798,1729
2799,1730
2800,1731
2801,1730
2802,1727
2803,1727
2804,1727
2805,1726
2806,1727
2807,1727
2808,1727
2809,1724
2810,1726
2811,1726
2812,1716
2813,1712
2814,1705
2815,1699
2816,1699
2817,1703
2818,1699
2819,1711
2820,1715
2821,1717
2822,1719
2823,1718
2824,1719
2825,1712
2826,1712
2827,1716
2828,1721
2829,1725
2830,1728
2831,1730
2832,1733
2833,1735
2834,1739
2835,1739
2836,1741
2837,1742
2838,1739
2839,1741
2840,1741
2841,1744
2842,1735
2843,1728
2844,1723
2845,1716
2846,1713
2847,1723
2848,1728
2849,1729
2850,1730
2851,1733
2852,1734
2853,1735
2854,1737
2855,1737
2856,1737
2857,1739
2858,1739
2859,1737
2860,1741
2861,1741
2862,1738
2863,1739
2864,1741
2865,1736
2866,1738
2867,1727
2868,1721
2869,1714
2870,1712
2871,1706
2872,1701
2873,1700
2874,1695
2875,1693
2876,1686
2877,1680
2878,1680
2879,1690
2880,1695
2881,1699
2882,1702
2883,1711
2884,1712
2885,1715
2886,1721
2887,1722
2888,1725
2889,1722
2890,1725
2891,1726
2892,1729
2893,1729
2894,1734
2895,1733
2896,1737
2897,1738
2898,1741
2899,1743
2900,1742
2901,1741
2902,1730
2903,1721
2904,1714
2905,1711
2906,1702
2907,1690
2908,1697
2909,1699
2910,1701
2911,1706
2912,1709
2913,1711
2914,1712
2915,1711
2916,1712
2917,1715
2918,1705
2919,1713
2920,1714
2921,1717
2922,1717
2923,1719
2924,1720
2925,1723
2926,1726
2927,1728
2928,1728
2929,1728
2930,1728
2931,1732
2932,1728
2933,1719
2934,1714
2935,1712
2936,1707
2937,1697
2938,1690
2939,1702
2940,1707
2941,1712
2942,1714
2943,1714
2944,1718
2945,1721
2946,1724
2947,1726
2948,1726
2949,1728
2950,1728
2951,1727
2952,1729
2953,1730
2954,1732
2955,1734
2956,1733
2957,1734
2958,1735
2959,1738
2960,1742
2961,1741
2962,1737
2963,1728
2964,1726
2965,1717
2966,1712
2967,1721
2968,1722
2969,1726
2970,1727
2971,1728
2972,1730
2973,1728
2974,1729
2975,1731
2976,1729
2977,1731
2978,1734
2979,1737
2980,1737
2981,1738
2982,1742
2983,1744
2984,1743
2985,1744
2986,1742
2987,1739
2988,1730
2989,1731
2990,1737
2991,1741
2992,1733
2993,1729
2994,1724
2995,1718
2996,1712
2997,1703
2998,1712
2999,1717
3000,1719
3001,1723
3002,1719
3003,1723
3004,1723
3005,1721
3006,1722
3007,1723
3008,1724
3009,1725
3010,1722
3011,1726
3012,1726
3013,1727
3014,1727
3015,1726
3016,1728
3017,1726
3018,1726
3019,1719
3020,1714
3021,1712
3022,1710
3023,1705
3024,1705
3025,1699
3026,1692
3027,1684
3028,1680
3029,1691
3030,1696
3031,1703
3032,1706
3033,1711
3034,1712
3035,1715
3036,1718
3037,1719
3038,1723
3039,1723
3040,1725
3041,1726
3042,1728
3043,1729
3044,1731
3045,1731
3046,1731
3047,1733
3048,1734
3049,1733
3050,1737
3051,1739
3052,1729
3053,1722
3054,1715
3055,1712
3056,1711
3057,1718
3058,1721
3059,1723
3060,1723
3061,1727
3062,1728
3063,1730
3064,1733
3065,1731
3066,1735
3067,1730
3068,1731
3069,1731
3070,1733
3071,1737
3072,1734
3073,1734
3074,1735
3075,1733
3076,1733
3077,1735
3078,1734
3079,1735
3080,1735
3081,1741
3082,1732
3083,1728
3084,1726
3085,1719
3086,1715
3087,1701
3088,1712
3089,1712
3090,1717
3091,1717
3092,1723
3093,1723
3094,1727
3095,1728
3096,1727
3097,1728
3098,1729
3099,1728
3100,1729
3101,1734
3102,1732
3103,1731
3104,1733
3105,1733
3106,1731
3107,1729
3108,1729
3109,1728
3110,1727
3111,1726
3112,1719
3113,1713
3114,1710
3115,1700
3116,1695
3117,1705
3118,1694
3119,1707
3120,1712
3121,1712
3122,1716
3123,1721
3124,1723
3125,1725
3126,1727
3127,1729
3128,1730
3129,1732
3130,1733
3131,1735
3132,1737
3133,1739
3134,1741
3135,1741
3136,1741
3137,1742
3138,1742
3139,1741
3140,1743
3141,1743
3142,1738
3143,1726
3144,1722
3145,1714
3146,1710
3147,1699
3148,1695
3149,1710
3150,1712
3151,1715
3152,1718
3153,1723
3154,1725
3155,1727
3156,1727
3157,1728
3158,1731
3159,1733
3160,1733
3161,1734
3162,1735
3163,1738
3164,1737
3165,1739
3166,1740
3167,1727
3168,1723
3169,1716
3170,1713
3171,1712
3172,1706
3173,1702
3174,1697
3175,1699
3176,1695
3177,1681
3178,1697
3179,1698
3180,1704
3181,1707
3182,1712
3183,1712
3184,1713
3185,1717
3186,1721
3187,1723
3188,1725
3189,1725
3190,1727
3191,1728
3192,1730
3193,1731
3194,1735
3195,1735
3196,1737
3197,1735
3198,1741
3199,1739
3200,1741
3201,1740
3202,1735
3203,1721
3204,1714
3205,1708
3206,1699
3207,1707
3208,1708
3209,1712
3210,1711
3211,1712
3212,1714
3213,1712
3214,1713
3215,1713
3216,1714
3217,1716
3218,1711
3219,1716
3220,1719
3221,1722
3222,1726
3223,1728
3224,1730
3225,1730
3226,1731
3227,1734
3228,1734
3229,1739
3230,1739
3231,1741
3232,1734
3233,1729
3234,1721
3235,1717
3236,1713
3237,1700
3238,1693
3239,1709
3240,1711
3241,1712
3242,1716
3243,1719
3244,1719
3245,1727
3246,1728
3247,1729
3248,1733
3249,1733
3250,1733
3251,1737
3252,1738
3253,1742
3254,1742
3255,1742
3256,1741
3257,1743
3258,1741
3259,1741
3260,1742
3261,1744
3262,1737
3263,1729
3264,1726
3265,1715
3266,1712
3267,1701
3268,1697
3269,1710
3270,1712
3271,1713
3272,1715
3273,1718
3274,1718
3275,1722
3276,1723
3277,1727
3278,1728
3279,1728
3280,1729
3281,1733
3282,1738
3283,1737
3284,1738
3285,1739
3286,1743
3287,1744
3288,1743
3289,1743
3290,1744
3291,1744
3292,1739
3293,1730
3294,1726
3295,1721
3296,1712
3297,1705
3298,1712
3299,1715
3300,1717
3301,1719
3302,1722
3303,1723
3304,1723
3305,1722
3306,1723
3307,1724
3308,1725
3309,1723
3310,1247
3311,1014
3312,1801
3313,1788
3314,1729
3315,1709
3316,1698
3317,1712
3318,1725
3319,1737
3320,1761
3321,1850
3322,1889
3323,1861
3324,1850
3325,1839
3326,1811
3327,1773
3328,1738
3329,1729
3330,1719
3331,1719
3332,1718
3333,1721
3334,1719
3335,1725
3336,1721
3337,1719
3338,1713
3339,1718
3340,1719
3341,2597
3342,496
3343,1725
3344,1776
3345,1715
3346,1683
3347,1679
3348,1693
3349,1729
3350,1771
3351,1829
3352,1920
3353,1930
3354,1899
3355,1872
3356,1840
3357,1821
3358,1786
3359,1759
3360,1744
3361,1734
3362,1731
3363,1730
3364,1734
3365,1731
3366,1727
3367,1717
3368,1721
3369,1718
3370,1719
3371,1718
3372,1717
3373,64
3374,1533
3375,1773
3376,1704
3377,1666
3378,1658
3379,1677
3380,1729
3381,1783
3382,1869
3383,1979
3384,1984
3385,1936
3386,1887
3387,1833
3388,1805
3389,1771
3390,1744
3391,1731
3392,1724
3393,1725
3394,1727
3395,1733
3396,1737
3397,1731
3398,1727
3399,1729
3400,1728
3401,1724
3402,1724
3403,1716
3404,548
3405,1260
3406,1759
3407,1664
3408,1600
3409,1581
3410,1605
3411,1680
3412,1761
3413,1889
3414,2047
3415,2038
3416,1973
3417,1917
3418,1849
3419,1813
3420,1766
3421,1732
3422,1717
3423,1712
3424,1713
3425,1723
3426,1728
3427,1728
3428,1723
3429,1721
3430,1718
3431,1713
3432,1712
3433,1711
3434,1713
3435,1503
3436,918
3437,1744
3438,1673
3439,1587
3440,1559
3441,1586
3442,1664
3443,1744
3444,1895
3445,2064
3446,2095
3447,2010
3448,1922
3449,1872
3450,1818
3451,1766
3452,1735
3453,1722
3454,1717
3455,1718
3456,1722
3457,1722
3458,1715
3459,1712
3460,1712
3461,1712
3462,1712
3463,1711
3464,1710
3465,1707
3466,2451
3467,390
3468,1651
3469,1666
3470,1558
3471,1510
3472,1527
3473,1606
3474,1698
3475,1872
3476,2074
3477,2101
3478,1991
3479,1905
3480,1854
3481,1797
3482,1747
3483,1723
3484,1712
3485,1707
3486,1709
3487,1712
3488,1712
3489,1706
3490,1703
3491,1701
3492,1702
3493,1699
3494,1699
3495,1705
3496,1707
3497,1710
3498,73
3499,1479
3500,1718
3501,1573
3502,1488
3503,1477
3504,1535
3505,1631
3506,1809
3507,2096
3508,2172
3509,2069
3510,1978
3511,1921
3512,1867
3513,1813
3514,1769
3515,1735
3516,1717
3517,1709
3518,1695
3519,1707
3520,1703
3521,1703
3522,1699
3523,1700
3524,1696
3525,1693
3526,1697
3527,1698
3528,1698
3529,677
3530,1174
3531,1728
3532,1535
3533,1420
3534,1402
3535,1461
3536,1535
3537,1751
3538,2112
3539,2213
3540,2109
3541,2031
3542,1983
3543,1944
3544,1890
3545,1825
3546,1762
3547,1721
3548,1709
3549,1712
3550,1714
3551,1709
3552,1703
3553,1702
3554,1699
3555,1703
3556,1701
3557,1698
3558,1700
3559,1701
3560,1844
3561,810
3562,1717
3563,1621
3564,1481
3565,1450
3566,1485
3567,1522
3568,1805
3569,2208
3570,2181
3571,2054
3572,1987
3573,1961
3574,1911
3575,1856
3576,1799
3577,1751
3578,1725
3579,1722
3580,1726
3581,1725
3582,1716
3583,1713
3584,1712
3585,1712
3586,1711
3587,1710
3588,1712
3589,1710
3590,1710
3591,2075
3592,310
3593,1648
3594,1695
3595,1535
3596,1461
3597,1453
3598,1424
3599,1725
3600,2176
3601,2108
3602,1984
3603,1964
3604,1981
3605,1946
3606,1878
3607,1808
3608,1749
3609,1728
3610,1722
3611,1718
3612,1714
3613,1702
3614,1700
3615,1702
3616,1699
3617,1699
3618,1690
3619,1682
3620,1678
3621,1677
3622,1673
3623,130
3624,1442
3625,1694
3626,1522
3627,1425
3628,1419
3629,1358
3630,1607
3631,2118
3632,2085
3633,1983
3634,2003
3635,2032
3636,1983
3637,1895
3638,1808
3639,1750
3640,1733
3641,1728
3642,1727
3643,1717
3644,1712
3645,1703
3646,1700
3647,1706
3648,1711
3649,1709
3650,1702
3651,1699
3652,1699
3653,1685
3654,925
3655,1090
3656,1717
3657,1600
3658,1475
3659,1472
3660,1393
3661,1488
3662,2093
3663,2113
3664,1984
3665,1989
3666,2012
3667,1968
3668,1867
3669,1791
3670,1744
3671,1729
3672,1725
3673,1725
3674,1723
3675,1719
3676,1712
3677,1712
3678,1713
3679,1712
3680,1709
3681,1709
3682,1702
3683,1696
3684,1691
3685,2555
3686,621
3687,1678
3688,1659
3689,1527
3690,1509
3691,1446
3692,1391
3693,2028
3694,2155
3695,1981
3696,1961
3697,1998
3698,1970
3699,1887
3700,1801
3701,1753
3702,1733
3703,1726
3704,1723
3705,1727
3706,1719
3707,1712
3708,1708
3709,1703
3710,1703
3711,1706
3712,1705
3713,1686
3714,1679
3715,1667
3716,1812
3717,203
3718,1599
3719,1714
3720,1573
3721,1535
3722,1493
3723,1344
3724,1894
3725,2134
3726,1984
3727,1957
3728,2016
3729,2010
3730,1920
3731,1827
3732,1770
3733,1744
3734,1739
3735,1735
3736,1735
3737,1735
3738,1728
3739,1723
3740,1723
3741,1717
3742,1697
3743,1691
3744,1683
3745,1680
3746,1676
3747,1664
3748,321
3749,1363
3750,1744
3751,1645
3752,1583
3753,1584
3754,1386
3755,1695
3756,2143
3757,2012
3758,1918
3759,1955
3760,1962
3761,1897
3762,1815
3763,1769
3764,1744
3765,1739
3766,1730
3767,1706
3768,1712
3769,1702
3770,1687
3771,1680
3772,1669
3773,1673
3774,1664
3775,1661
3776,1659
3777,1649
3778,1648
3779,1060
3780,966
3781,1728
3782,1665
3783,1567
3784,1584
3785,1426
3786,1531
3787,2143
3788,2100
3789,1954
3790,1954
3791,1955
3792,1906
3793,1831
3794,1776
3795,1753
3796,1744
3797,1739
3798,1740
3799,1739
3800,1733
3801,1728
3802,1710
3803,1701
3804,1692
3805,1680
3806,1670
3807,1678
3808,1680
3809,1680
3810,2539
3811,579
3812,1695
3813,1694
3814,1566
3815,1570
3816,1459
3817,1438
3818,2086
3819,2128
3820,1950
3821,1949
3822,1985
3823,1947
3824,1854
3825,1779
3826,1745
3827,1733
3828,1728
3829,1729
3830,1729
3831,1726
3832,1703
3833,1693
3834,1683
3835,1677
3836,1673
3837,1667
3838,1659
3839,1668
3840,1673
3841,1674
3842,27
3843,1535
3844,1739
3845,1591
3846,1565
3847,1531
3848,1358
3849,1911
3850,2183
3851,1996
3852,1941
3853,1997
3854,1986
3855,1902
3856,1808
3857,1761
3858,1744
3859,1739
3860,1739
3861,1738
3862,1717
3863,1705
3864,1687
3865,1680
3866,1671
3867,1680
3868,1709
3869,1712
3870,1697
3871,1695
3872,1698
3873,342
3874,1298
3875,1771
3876,1652
3877,1584
3878,1591
3879,1376
3880,1731
3881,2204
3882,2066
3883,1962
3884,1999
3885,1990
3886,1905
3887,1810
3888,1765
3889,1745
3890,1738
3891,1740
3892,1725
3893,1713
3894,1699
3895,1689
3896,1682
3897,1671
3898,1675
3899,1675
3900,1677
3901,1680
3902,1682
3903,1682
3904,1403
3905,881
3906,1728
3907,1663
3908,1535
3909,1582
3910,1406
3911,1504
3912,2122
3913,2066
3914,1914
3915,1954
3916,2003
3917,1955
3918,1840
3919,1758
3920,1724
3921,1707
3922,1698
3923,1695
3924,1686
3925,1680
3926,1667
3927,1659
3928,1652
3929,1639
3930,1631
3931,1647
3932,1655
3933,1663
3934,1665
3935,1665
3936,1665
3937,1671
3938,1675
3939,1680
3940,1683
3941,1687
3942,1695
3943,1701
3944,1705
3945,1706
3946,1707
3947,1708
3948,1709
3949,1710
3950,1712
3951,1712
3952,1701
3953,1697
3954,1691
3955,1688
3956,1680
3957,1670
3958,1666
3959,1680
3960,1679
3961,1680
3962,1682
3963,1687
3964,1693
3965,1695
3966,1699
3967,1695
3968,1701
3969,1703
3970,1702
3971,1707
3972,1710
3973,1712
3974,1712
3975,1713
3976,1715
3977,1713
3978,1714
3979,1719
3980,1718
3981,1722
3982,1711
3983,1710
3984,1705
3985,1697
3986,1690
3987,1680
3988,1680
3989,1690
3990,1690
3991,1694
3992,1696
3993,1699
3994,1703
3995,1705
3996,1708
3997,1711
3998,1712
3999,1714
4000,1715
4001,1715
4002,1716
4003,1718
4004,1717
4005,1714
4006,1712
4007,1712
4008,1715
4009,1714
4010,1712
4011,1712
4012,1698
4013,1691
4014,1682
4015,1680
4016,1676
4017,1683
4018,1686
4019,1686
4020,1693
4021,1697
4022,1704
4023,1706
4024,1707
4025,1707
4026,1710
4027,1712
4028,1712
4029,1715
4030,1712
4031,1713
4032,1718
4033,1719
4034,1721
4035,1721
4036,1725
4037,1727
4038,1726
4039,1727
4040,1729
4041,1729
4042,1712
4043,1706
4044,1699
4045,1697
4046,1690
4047,1680
4048,1677
4049,1683
4050,1693
4051,1697
4052,1700
4053,1702
4054,1707
4055,1711
4056,1712
4057,1714
4058,1715
4059,1718
4060,1717
4061,1719
4062,1722
4063,1727
4064,1727
4065,1728
4066,1725
4067,1714
4068,1709
4069,1703
4070,1699
4071,1696
4072,1694
4073,1690
4074,1686
4075,1685
4076,1682
4077,1671
4078,1680
4079,1686
4080,1691
4081,1690
4082,1694
4083,1701
4084,1706
4085,1711
4086,1711
4087,1712
4088,1713
4089,1717
4090,1719
4091,1722
4092,1724
4093,1725
4094,1725
4095,1727
4096,1727
4097,1727
4098,1728
4099,1727
4100,1730
4101,1728
4102,1712
4103,1711
4104,1703
4105,1696
4106,1686
4107,1698
4108,1699
4109,1699
4110,1702
4111,1703
4112,1706
4113,1708
4114,1711
4115,1712
4116,1712
4117,1712
4118,1703
4119,1712
4120,1712
4121,1712
4122,1714
4123,1719
4124,1719
4125,1723
4126,1725
4127,1726
4128,1728
4129,1730
4130,1727
4131,1728
4132,1715
4133,1712
4134,1710
4135,1702
4136,1697
4137,1711
4138,1711
4139,1712
4140,1715
4141,1715
4142,1717
4143,1724
4144,1726
4145,1726
4146,1728
4147,1730
4148,1730
4149,1730
4150,1728
4151,1728
4152,1728
4153,1727
4154,1728
4155,1728
4156,1731
4157,1733
4158,1732
4159,1735
4160,1735
4161,1730
4162,1721
4163,1715
4164,1715
4165,1712
4166,1702
4167,1690
4168,1687
4169,1696
4170,1702
4171,1703
4172,1709
4173,1712
4174,1712
4175,1712
4176,1714
4177,1717
4178,1719
4179,1721
4180,1718
4181,1723
4182,1723
4183,1725
4184,1726
4185,1726
4186,1730
4187,1731
4188,1734
4189,1735
4190,1738
4191,1735
4192,1722
4193,1721
4194,1715
4195,1712
4196,1705
4197,1697
4198,1698
4199,1683
4200,1694
4201,1690
4202,1685
4203,1689
4204,1696
4205,1700
4206,1701
4207,1699
4208,1699
4209,1703
4210,1705
4211,1707
4212,1711
4213,1709
4214,1710
4215,1712
4216,1712
4217,1712
4218,1703
4219,1701
4220,1694
4221,1691
4222,1687
4223,1685
4224,1682
4225,1680
4226,1680
4227,1673
4228,1665
4229,1680
4230,1680
4231,1685
4232,1692
4233,1696
4234,1703
4235,1705
4236,1711
4237,1712
4238,1712
4239,1713
4240,1714
4241,1715
4242,1713
4243,1719
4244,1721
4245,1724
4246,1722
4247,1728
4248,1727
4249,1728
4250,1730
4251,1729
4252,1718
4253,1712
4254,1706
4255,1706
4256,1698
4257,1710
4258,1711
4259,1714
4260,1715
4261,1715
4262,1717
4263,1719
4264,1722
4265,1723
4266,1723
4267,1712
4268,1723
4269,1725
4270,1725
4271,1728
4272,1728
4273,1730
4274,1729
4275,1732
4276,1735
4277,1731
4278,1734
4279,1735
4280,1735
4281,1739
4282,1728
4283,1727
4284,1727
4285,1716
4286,1703
4287,1681
4288,1692
4289,1702
4290,1710
4291,1711
4292,1713
4293,1719
4294,1719
4295,1718
4296,1715
4297,1716
4298,1715
4299,1727
4300,1728
4301,1729
4302,1730
4303,1728
4304,1728
4305,1725
4306,1724
4307,1724
4308,1728
4309,1732
4310,1728
4311,1719
4312,1705
4313,1701
4314,1699
4315,1693
4316,1680
4317,1694
4318,1681
4319,1696
4320,1702
4321,1707
4322,1711
4323,1715
4324,1719
4325,1725
4326,1730
4327,1723
4328,1713
4329,1712
4330,1712
4331,1715
4332,1721
4333,1725
4334,1728
4335,1729
4336,1729
4337,1735
4338,1741
4339,1744
4340,1744
4341,1743
4342,1727
4343,1712
4344,1706
4345,1705
4346,1702
4347,1689
4348,1685
4349,1699
4350,1702
4351,1705
4352,1708
4353,1711
4354,1712
4355,1718
4356,1718
4357,1719
4358,1722
4359,1725
4360,1723
4361,1725
4362,1727
4363,1728
4364,1731
4365,1730
4366,1729
4367,1714
4368,1712
4369,1712
4370,1706
4371,1702
4372,1697
4373,1693
4374,1691
4375,1686
4376,1682
4377,1676
4378,1685
4379,1689
4380,1695
4381,1701
4382,1706
4383,1707
4384,1710
4385,1712
4386,1712
4387,1712
4388,1712
4389,1716
4390,1717
4391,1719
4392,1721
4393,1723
4394,1726
4395,1725
4396,1723
4397,1725
4398,1728
4399,1730
4400,1735
4401,1738
4402,1727
4403,1724
4404,1724
4405,1713
4406,1701
4407,1707
4408,1707
4409,1706
4410,1707
4411,1707
4412,1709
4413,1710
4414,1710
4415,1710
4416,1710
4417,1712
4418,1702
4419,1712
4420,1714
4421,1713
4422,1717
4423,1717
4424,1724
4425,1723
4426,1725
4427,1727
4428,1728
4429,1728
4430,1729
4431,1732
4432,1721
4433,1715
4434,1712
4435,1709
4436,1703
4437,1712
4438,1713
4439,1717
4440,1718
4441,1723
4442,1725
4443,1719
4444,1719
4445,1722
4446,1725
4447,1727
4448,1727
4449,1730
4450,1734
4451,1735
4452,1733
4453,1735
4454,1735
4455,1735
4456,1738
4457,1739
4458,1739
4459,1734
4460,1734
4461,1735
4462,1723
4463,1718
4464,1715
4465,1711
4466,1705
4467,1699
4468,1692
4469,1706
4470,1707
4471,1705
4472,1703
4473,1709
4474,1712
4475,1719
4476,1723
4477,1725
4478,1726
4479,1727
4480,1728
4481,1728
4482,1730
4483,1731
4484,1735
4485,1735
4486,1741
4487,1741
4488,1739
4489,1739
4490,1741
4491,1741
4492,1730
4493,1725
4494,1717
4495,1712
4496,1703
4497,1693
4498,1705
4499,1708
4500,1711
4501,1712
4502,1713
4503,1713
4504,1713
4505,1714
4506,1714
4507,1713
4508,1713
4509,1713
4510,1714
4511,1715
4512,1718
4513,1716
4514,1717
4515,1718
4516,1722
4517,1722
4518,1713
4519,1712
4520,1707
4521,1703
4522,1698
4523,1693
4524,1691
4525,1685
4526,1680
4527,1675
4528,1667
4529,1680
4530,1681
4531,1688
4532,1695
4533,1699
4534,1704
4535,1707
4536,1710
4537,1712
4538,1713
4539,1717
4540,1718
4541,1723
4542,1727
4543,1728
4544,1728
4545,1731
4546,1730
4547,1733
4548,1733
4549,1732
4550,1734
4551,1734
4552,1719
4553,1715
4554,1712
4555,1709
4556,1702
4557,1709
4558,1712
4559,1712
4560,1713
4561,1718
4562,1722
4563,1722
4564,1725
4565,1727
4566,1728
4567,1719
4568,1728
4569,1728
4570,1729
4571,1730
4572,1730
4573,1731
4574,1733
4575,1733
4576,1734
4577,1733
4578,1734
4579,1735
4580,1735
4581,1738
4582,1723
4583,1719
4584,1713
4585,1709
4586,1703
4587,1689
4588,1703
4589,1703
4590,1706
4591,1709
4592,1710
4593,1712
4594,1713
4595,1713
4596,1721
4597,1722
4598,1726
4599,1727
4600,1729
4601,1728
4602,1727
4603,1724
4604,1725
4605,1726
4606,1726
4607,1724
4608,1725
4609,1722
4610,1723
4611,1723
4612,1711
4613,1706
4614,1702
4615,1695
4616,1686
4617,1699
4618,1693
4619,1703
4620,1705
4621,1709
4622,1711
4623,1712
4624,1715
4625,1719
4626,1719
4627,1722
4628,1725
4629,1727
4630,1729
4631,1730
4632,1731
4633,1729
4634,1730
4635,1730
4636,1729
4637,1733
4638,1732
4639,1731
4640,1733
4641,1733
4642,1722
4643,1715
4644,1712
4645,1710
4646,1702
4647,1693
4648,1684
4649,1697
4650,1700
4651,1702
4652,1709
4653,1712
4654,1712
4655,1713
4656,1718
4657,1719
4658,1721
4659,1725
4660,1727
4661,1730
4662,1732
4663,1735
4664,1739
4665,1743
4666,1742
4667,1735
4668,1721
4669,1707
4670,1697
4671,1695
4672,1694
4673,1690
4674,1690
4675,1687
4676,1683
4677,1678
4678,1671
4679,1683
4680,1687
4681,1694
4682,1698
4683,1701
4684,1706
4685,1710
4686,1709
4687,1712
4688,1715
4689,1719
4690,1723
4691,1724
4692,1725
4693,1726
4694,1728
4695,1727
4696,1729
4697,1735
4698,1733
4699,1733
4700,1734
4701,1734
4702,1719
4703,1713
4704,1709
4705,1701
4706,1691
4707,1701
4708,1701
4709,1703
4710,1705
4711,1707
4712,1710
4713,1712
4714,1712
4715,1712
4716,1713
4717,1714
4718,1707
4719,1715
4720,1717
4721,1718
4722,1719
4723,1722
4724,1719
4725,1722
4726,1726
4727,1725
4728,1728
4729,1729
4730,1730
4731,1731
4732,1721
4733,1714
4734,1712
4735,1710
4736,1702
4737,1687
4738,1682
4739,1693
4740,1695
4741,1698
4742,1702
4743,1703
4744,1706
4745,1710
4746,1713
4747,1717
4748,1718
4749,1719
4750,1722
4751,1723
4752,1727
4753,1726
4754,1728
4755,1728
4756,1730
4757,1728
4758,1732
4759,1735
4760,1735
4761,1734
4762,1723
4763,1719
4764,1712
4765,1712
4766,1707
4767,1712
4768,1715
4769,1717
4770,1719
4771,1719
4772,1717
4773,1722
4774,1723
4775,1725
4776,1723
4777,1725
4778,1727
4779,1727
4780,1728
4781,1731
4782,1735
4783,1735
4784,1739
4785,1741
4786,1742
4787,1744
4788,1743
4789,1744
4790,1743
4791,1744
4792,1729
4793,1726
4794,1719
4795,1713
4796,1709
4797,1697
4798,1709
4799,1712
4800,1712
4801,1714
4802,1713
4803,1714
4804,1713
4805,1715
4806,1715
4807,1714
4808,1713
4809,1717
4810,1714
4811,1713
4812,1713
4813,1715
4814,1714
4815,1713
4816,1715
4817,1717
4818,1712
4819,1712
4820,1712
4821,1710
4822,1706
4823,1698
4824,1685
4825,1680
4826,1679
4827,1670
4828,1667
4829,1680
4830,1686
4831,1691
4832,1696
4833,1701
4834,1706
4835,1710
4836,1712
4837,1714
4838,1714
4839,1721
4840,1722
4841,1723
4842,1725
4843,1728
4844,1727
4845,1728
4846,1729
4847,1731
4848,1733
4849,1735
4850,1737
4851,1735
4852,1726
4853,1719
4854,1712
4855,1709
4856,1701
4857,1712
4858,1712
4859,1714
4860,1715
4861,1722
4862,1719
4863,1723
4864,1723
4865,1725
4866,1726
4867,1712
4868,1723
4869,1723
4870,1727
4871,1727
4872,1727
4873,1728
4874,1730
4875,1728
4876,1733
4877,1735
4878,1737
4879,1735
4880,1739
4881,1738
4882,1728
4883,1725
4884,1716
4885,1713
4886,1711
4887,1694
4888,1707
4889,1708
4890,1712
4891,1712
4892,1715
4893,1718
4894,1718
4895,1719
4896,1723
4897,1725
4898,1727
4899,1728
4900,1728
4901,1728
4902,1728
4903,1727
4904,1725
4905,1726
4906,1722
4907,1725
4908,1726
4909,1726
4910,1724
4911,1727
4912,1710
4913,1708
4914,1699
4915,1694
4916,1682
4917,1698
4918,1691
4919,1700
4920,1703
4921,1709
4922,1710
4923,1712
4924,1713
4925,1715
4926,1715
4927,1719
4928,1725
4929,1726
4930,1727
4931,1729
4932,1732
4933,1734
4934,1735
4935,1783
4936,167
4937,1659
4938,1808
4939,1738
4940,1696
4941,1685
4942,1680
4943,1709
4944,1733
4945,1767
4946,1862
4947,1918
4948,1899
4949,1903
4950,1888
4951,1865
4952,1825
4953,1781
4954,1754
4955,1743
4956,1737
4957,1734
4958,1734
4959,1735
4960,1731
4961,1729
4962,1725
4963,1726
4964,1723
4965,1723
4966,1722
4967,391
4968,1347
4969,1762
4970,1702
4971,1655
4972,1631
4973,1629
4974,1651
4975,1682
4976,1723
4977,1838
4978,1915
4979,1904
4980,1877
4981,1852
4982,1825
4983,1791
4984,1760
4985,1741
4986,1726
4987,1723
4988,1721
4989,1724
4990,1721
4991,1722
4992,1718
4993,1718
4994,1721
4995,1723
4996,1722
4997,1719
4998,1401
4999,951
5000,1775
5001,1730
5002,1661
5003,1623
5004,1617
5005,1645
5006,1687
5007,1776
5008,1921
5009,1976
5010,1955
5011,1906
5012,1855
5013,1811
5014,1770
5015,1743
5016,1725
5017,1713
5018,1711
5019,1709
5020,1713
5021,1716
5022,1713
5023,1712
5024,1712
5025,1712
5026,1712
5027,1711
5028,1711
5029,2397
5030,420
5031,1693
5032,1714
5033,1629
5034,1587
5035,1586
5036,1633
5037,1694
5038,1787
5039,1963
5040,2025
5041,2000
5042,1933
5043,1872
5044,1826
5045,1778
5046,1748
5047,1731
5048,1725
5049,1725
5050,1729
5051,1733
5052,1730
5053,1726
5054,1715
5055,1715
5056,1712
5057,1710
5058,1712
5059,1712
5060,1712
5061,80
5062,1569
5063,1717
5064,1600
5065,1535
5066,1535
5067,1616
5068,1706
5069,1840
5070,2027
5071,2104
5072,2038
5073,1955
5074,1893
5075,1835
5076,1781
5077,1754
5078,1738
5079,1731
5080,1731
5081,1733
5082,1735
5083,1728
5084,1719
5085,1715
5086,1714
5087,1713
5088,1715
5089,1723
5090,1726
5091,1719
5092,571
5093,1264
5094,1715
5095,1591
5096,1502
5097,1488
5098,1572
5099,1663
5100,1808
5101,2027
5102,2135
5103,2057
5104,1949
5105,1882
5106,1823
5107,1771
5108,1737
5109,1717
5110,1712
5111,1710
5112,1711
5113,1712
5114,1711
5115,1705
5116,1700
5117,1705
5118,1687
5119,1680
5120,1679
5121,1677
5122,1673
5123,1715
5124,833
5125,1677
5126,1555
5127,1421
5128,1387
5129,1445
5130,1533
5131,1701
5132,1985
5133,2151
5134,2077
5135,1985
5136,1931
5137,1883
5138,1842
5139,1793
5140,1751
5141,1727
5142,1714
5143,1715
5144,1713
5145,1709
5146,1703
5147,1699
5148,1699
5149,1703
5150,1706
5151,1702
5152,1687
5153,1680
5154,2351
5155,432
5156,1632
5157,1626
5158,1482
5159,1439
5160,1489
5161,1568
5162,1719
5163,2079
5164,2224
5165,2097
5166,1991
5167,1931
5168,1895
5169,1840
5170,1791
5171,1750
5172,1728
5173,1724
5174,1726
5175,1722
5176,1712
5177,1709
5178,1710
5179,1712
5180,1712
5181,1711
5182,1690
5183,1686
5184,1682
5185,1680
5186,127
5187,1441
5188,1692
5189,1535
5190,1456
5191,1469
5192,1510
5193,1643
5194,2067
5195,2232
5196,2079
5197,1968
5198,1927
5199,1900
5200,1853
5201,1808
5202,1767
5203,1736
5204,1723
5205,1723
5206,1719
5207,1712
5208,1703
5209,1702
5210,1702
5211,1698
5212,1680
5213,1673
5214,1666
5215,1660
5216,1655
5217,572
5218,1147
5219,1706
5220,1575
5221,1456
5222,1453
5223,1486
5224,1558
5225,2022
5226,2240
5227,2091
5228,1984
5229,1951
5230,1936
5231,1886
5232,1829
5233,1776
5234,1741
5235,1730
5236,1729
5237,1728
5238,1723
5239,1714
5240,1711
5241,1709
5242,1697
5243,1686
5244,1680
5245,1674
5246,1667
5247,1659
5248,2077
5249,762
5250,1693
5251,1598
5252,1431
5253,1411
5254,1453
5255,1458
5256,1909
5257,2239
5258,2113
5259,2018
5260,2003
5261,1998
5262,1932
5263,1847
5264,1783
5265,1743
5266,1722
5267,1711
5268,1711
5269,1699
5270,1683
5271,1669
5272,1664
5273,1659
5274,1657
5275,1651
5276,1654
5277,1650
5278,1666
5279,1856
5280,166
5281,1600
5282,1672
5283,1495
5284,1446
5285,1479
5286,1427
5287,1808
5288,2235
5289,2128
5290,2005
5291,1982
5292,1973
5293,1932
5294,1861
5295,1789
5296,1740
5297,1717
5298,1715
5299,1721
5300,1721
5301,1711
5302,1693
5303,1681
5304,1676
5305,1666
5306,1659
5307,1647
5308,1653
5309,1659
5310,1660
5311,109
5312,1394
5313,1707
5314,1564
5315,1487
5316,1516
5317,1426
5318,1675
5319,2210
5320,2128
5321,1968
5322,1935
5323,1946
5324,1905
5325,1830
5326,1770
5327,1737
5328,1722
5329,1717
5330,1717
5331,1721
5332,1699
5333,1685
5334,1682
5335,1680
5336,1673
5337,1661
5338,1655
5339,1664
5340,1667
5341,1673
5342,609
5343,1154
5344,1735
5345,1615
5346,1503
5347,1522
5348,1441
5349,1590
5350,2170
5351,2162
5352,2000
5353,1966
5354,1983
5355,1938
5356,1856
5357,1786
5358,1746
5359,1730
5360,1728
5361,1725
5362,1712
5363,1704
5364,1692
5365,1680
5366,1679
5367,1680
5368,1680
5369,1681
5370,1682
5371,1691
5372,1696
5373,2114
5374,710
5375,1723
5376,1691
5377,1535
5378,1535
5379,1490
5380,1499
5381,2101
5382,2209
5383,2021
5384,1949
5385,1949
5386,1927
5387,1868
5388,1803
5389,1759
5390,1742
5391,1732
5392,1720
5393,1713
5394,1707
5395,1695
5396,1683
5397,1675
5398,1680
5399,1681
5400,1680
5401,1680
5402,1682
5403,1682
5404,1872
5405,208
5406,1616
5407,1709
5408,1535
5409,1509
5410,1493
5411,1397
5412,1956
5413,2229
5414,2047
5415,1942
5416,1953
5417,1937
5418,1861
5419,1782
5420,1730
5421,1706
5422,1685
5423,1680
5424,1680
5425,1671
5426,1662
5427,1648
5428,1646
5429,1657
5430,1659
5431,1662
5432,1664
5433,1670
5434,1676
5435,1680
5436,116
5437,1413
5438,1741
5439,1595
5440,1510
5441,1522
5442,1392
5443,1791
5444,2259
5445,2111
5446,1963
5447,1959
5448,1957
5449,1889
5450,1808
5451,1761
5452,1723
5453,1710
5454,1705
5455,1703
5456,1693
5457,1687
5458,1680
5459,1680
5460,1687
5461,1699
5462,1709
5463,1701
5464,1696
5465,1699
5466,1697
5467,1123
5468,1057
5469,1735
5470,1615
5471,1471
5472,1495
5473,1395
5474,1534
5475,2160
5476,2173
5477,2014
5478,1984
5479,2015
5480,1978
5481,1891
5482,1793
5483,1739
5484,1712
5485,1701
5486,1693
5487,1681
5488,1683
5489,1682
5490,1683
5491,1683
5492,1683
5493,1681
5494,1683
5495,1681
5496,1684
5497,1686
5498,2625
5499,496
5500,1687
5501,1684
5502,1518
5503,1510
5504,1456
5505,1413
5506,2034
5507,2199
5508,2027
5509,1954
5510,1973
5511,1967
5512,1890
5513,1801
5514,1729
5515,1695
5516,1680
5517,1689
5518,1681
5519,1682
5520,1680
5521,1680
5522,1680
5523,1680
5524,1680
5525,1690
5526,1688
5527,1691
5528,1695
5529,1697
5530,80
5531,1559
5532,1744
5533,1587
5534,1535
5535,1521
5536,1392
5537,1899
5538,2245
5539,2076
5540,1956
5541,1968
5542,1942
5543,1872
5544,1791
5545,1735
5546,1709
5547,1686
5548,1679
5549,1686
5550,1687
5551,1682
5552,1680
5553,1677
5554,1677
5555,1680
5556,1685
5557,1701
5558,1703
5559,1697
5560,1698
5561,1698
5562,1703
5563,1707
5564,1711
5565,1712
5566,1712
5567,1702
5568,1698
5569,1694
5570,1691
5571,1683
5572,1680
5573,1680
5574,1677
5575,1675
5576,1670
5577,1658
5578,1665
5579,1675
5580,1679
5581,1681
5582,1682
5583,1686
5584,1689
5585,1694
5586,1696
5587,1699
5588,1703
5589,1708
5590,1709
5591,1710
5592,1710
5593,1712
5594,1711
5595,1714
5596,1714
5597,1714
5598,1715
5599,1718
5600,1718
5601,1719
5602,1706
5603,1699
5604,1694
5605,1685
5606,1680
5607,1686
5608,1686
5609,1691
5610,1693
5611,1696
5612,1697
5613,1697
5614,1699
5615,1703
5616,1701
5617,1703
5618,1694
5619,1703
5620,1702
5621,1709
5622,1712
5623,1712
5624,1713
5625,1715
5626,1716
5627,1715
5628,1715
5629,1719
5630,1725
5631,1721
5632,1712
5633,1707
5634,1699
5635,1694
5636,1687
5637,1680
5638,1674
5639,1686
5640,1692
5641,1697
5642,1699
5643,1704
5644,1706
5645,1708
5646,1711
5647,1713
5648,1716
5649,1716
5650,1718
5651,1721
5652,1722
5653,1724
5654,1727
5655,1728
5656,1726
5657,1727
5658,1728
5659,1728
5660,1729
5661,1731
5662,1717
5663,1713
5664,1709
5665,1706
5666,1693
5667,1681
5668,1680
5669,1690
5670,1694
5671,1697
5672,1700
5673,1703
5674,1705
5675,1709
5676,1711
5677,1711
5678,1712
5679,1713
5680,1716
5681,1717
5682,1718
5683,1719
5684,1723
5685,1723
5686,1728
5687,1728
5688,1728
5689,1729
5690,1730
5691,1731
5692,1723
5693,1716
5694,1712
5695,1710
5696,1703
5697,1689
5698,1680
5699,1695
5700,1699
5701,1703
5702,1701
5703,1704
5704,1703
5705,1707
5706,1706
5707,1707
5708,1708
5709,1709
5710,1709
5711,1709
5712,1709
5713,1711
5714,1710
5715,1712
5716,1712
5717,1712
5718,1706
5719,1700
5720,1698
5721,1693
5722,1687
5723,1683
5724,1683
5725,1681
5726,1680
5727,1670
5728,1667
5729,1680
5730,1681
5731,1690
5732,1695
5733,1699
5734,1701
5735,1703
5736,1712
5737,1715
5738,1718
5739,1718
5740,1713
5741,1708
5742,1711
5743,1715
5744,1717
5745,1718
5746,1722
5747,1723
5748,1723
5749,1728
5750,1729
5751,1730
5752,1715
5753,1712
5754,1709
5755,1705
5756,1699
5757,1709
5758,1712
5759,1712
5760,1715
5761,1719
5762,1721
5763,1724
5764,1725
5765,1725
5766,1725
5767,1712
5768,1722
5769,1725
5770,1725
5771,1727
5772,1727
5773,1727
5774,1730
5775,1729
5776,1730
5777,1735
5778,1737
5779,1734
5780,1738
5781,1738
5782,1727
5783,1720
5784,1713
5785,1711
5786,1702
5787,1692
5788,1699
5789,1705
5790,1706
5791,1707
5792,1712
5793,1712
5794,1715
5795,1718
5796,1719
5797,1721
5798,1722
5799,1722
5800,1723
5801,1725
5802,1725
5803,1723
5804,1724
5805,1724
5806,1722
5807,1719
5808,1718
5809,1718
5810,1718
5811,1713
5812,1703
5813,1701
5814,1697
5815,1691
5816,1680
5817,1692
5818,1685
5819,1698
5820,1702
5821,1702
5822,1706
5823,1710
5824,1712
5825,1713
5826,1715
5827,1717
5828,1721
5829,1721
5830,1725
5831,1727
5832,1728
5833,1728
5834,1728
5835,1728
5836,1728
5837,1731
5838,1730
5839,1732
5840,1729
5841,1731
5842,1717
5843,1713
5844,1710
5845,1705
5846,1699
5847,1691
5848,1683
5849,1697
5850,1698
5851,1702
5852,1707
5853,1711
5854,1712
5855,1713
5856,1713
5857,1714
5858,1717
5859,1719
5860,1722
5861,1724
5862,1728
5863,1728
5864,1728
5865,1728
5866,1729
5867,1712
5868,1712
5869,1708
5870,1703
5871,1698
5872,1695
5873,1690
5874,1687
5875,1685
5876,1681
5877,1675
5878,1670
5879,1680
5880,1685
5881,1691
5882,1697
5883,1701
5884,1707
5885,1712
5886,1716
5887,1717
5888,1718
5889,1714
5890,1712
5891,1712
5892,1715
5893,1722
5894,1723
5895,1727
5896,1726
5897,1726
5898,1728
5899,1729
5900,1728
5901,1728
5902,1712
5903,1709
5904,1706
5905,1696
5906,1689
5907,1680
5908,1671
5909,1661
5910,1673
5911,1673
5912,1677
5913,1680
5914,1680
5915,1682
5916,1686
5917,1692
5918,1687
5919,1696
5920,1698
5921,1701
5922,1701
5923,1707
5924,1711
5925,1712
5926,1712
5927,1713
5928,1716
5929,1717
5930,1719
5931,1719
5932,1709
5933,1702
5934,1697
5935,1694
5936,1687
5937,1680
5938,1665
5939,1682
5940,1690
5941,1697
5942,1699
5943,1706
5944,1707
5945,1711
5946,1712
5947,1712
5948,1713
5949,1715
5950,1715
5951,1719
5952,1722
5953,1723
5954,1723
5955,1723
5956,1723
5957,1725
5958,1728
5959,1725
5960,1727
5961,1727
5962,1712
5963,1711
5964,1710
5965,1701
5966,1692
5967,1706
5968,1707
5969,1711
5970,1712
5971,1712
5972,1712
5973,1717
5974,1718
5975,1720
5976,1719
5977,1722
5978,1723
5979,1722
5980,1726
5981,1727
5982,1729
5983,1730
5984,1729
5985,1734
5986,1731
5987,1731
5988,1733
5989,1732
5990,1734
5991,1734
5992,1724
5993,1723
5994,1718
5995,1712
5996,1703
5997,1687
5998,1691
5999,1694
6000,1701
6001,1708
6002,1709
6003,1710
6004,1712
6005,1712
6006,1712
6007,1712
6008,1712
6009,1712
6010,1712
6011,1712
6012,1712
6013,1712
6014,1712
6015,1715
6016,1714
6017,1717
6018,1717
6019,1712
6020,1707
6021,1703
6022,1701
6023,1695
6024,1687
6025,1684
6026,1693
6027,1696
6028,1698
6029,1707
6030,1708
6031,1711
6032,1712
6033,1713
6034,1714
6035,1718
6036,1719
6037,1722
6038,1722
6039,1726
6040,1725
6041,1725
6042,1726
6043,1727
6044,1728
6045,1729
6046,1731
6047,1729
6048,1732
6049,1731
6050,1730
6051,1730
6052,1718
6053,1713
6054,1711
6055,1707
6056,1701
6057,1690
6058,1681
6059,1693
6060,1697
6061,1703
6062,1706
6063,1707
6064,1709
6065,1712
6066,1712
6067,1698
6068,1712
6069,1715
6070,1721
6071,1718
6072,1722
6073,1721
6074,1725
6075,1724
6076,1728
6077,1728
6078,1730
6079,1729
6080,1734
6081,1733
6082,1721
6083,1716
6084,1712
6085,1709
6086,1702
6087,1690
6088,1699
6089,1703
6090,1709
6091,1711
6092,1714
6093,1714
6094,1718
6095,1720
6096,1721
6097,1724
6098,1726
6099,1727
6100,1728
6101,1727
6102,1727
6103,1726
6104,1726
6105,1722
6106,1720
6107,1719
6108,1719
6109,1722
6110,1719
6111,1721
6112,1707
6113,1700
6114,1696
6115,1690
6116,1682
6117,1695
6118,1687
6119,1697
6120,1703
6121,1703
6122,1707
6123,1709
6124,1712
6125,1712
6126,1712
6127,1712
6128,1715
6129,1717
6130,1723
6131,1719
6132,1723
6133,1726
6134,1728
6135,1730
6136,1730
6137,1731
6138,1732
6139,1732
6140,1731
6141,1732
6142,1723
6143,1714
6144,1712
6145,1709
6146,1704
6147,1689
6148,1683
6149,1696
6150,1702
6151,1703
6152,1710
6153,1712
6154,1715
6155,1716
6156,1717
6157,1722
6158,1723
6159,1719
6160,1722
6161,1723
6162,1725
6163,1723
6164,1723
6165,1726
6166,1725
6167,1705
6168,1711
6169,1707
6170,1702
6171,1698
6172,1691
6173,1691
6174,1689
6175,1683
6176,1680
6177,1678
6178,1683
6179,1686
6180,1695
6181,1702
6182,1708
6183,1708
6184,1711
6185,1713
6186,1715
6187,1715
6188,1717
6189,1718
6190,1721
6191,1725
6192,1727
6193,1727
6194,1728
6195,1728
6196,1727
6197,1729
6198,1733
6199,1734
6200,1733
6201,1731
6202,1718
6203,1711
6204,1701
6205,1698
6206,1691
6207,1694
6208,1697
6209,1699
6210,1702
6211,1702
6212,1701
6213,1707
6214,1707
6215,1710
6216,1710
6217,1712
6218,1701
6219,1712
6220,1712
6221,1715
6222,1717
6223,1723
6224,1723
6225,1723
6226,1727
6227,1726
6228,1726
6229,1728
6230,1731
6231,1731
6232,1722
6233,1717
6234,1713
6235,1710
6236,1699
6237,1692
6238,1682
6239,1692
6240,1698
6241,1700
6242,1705
6243,1709
6244,1712
6245,1712
6246,1712
6247,1714
6248,1718
6249,1719
6250,1722
6251,1723
6252,1727
6253,1727
6254,1726
6255,1727
6256,1726
6257,1727
6258,1728
6259,1728
6260,1730
6261,1730
6262,1719
6263,1717
6264,1712
6265,1707
6266,1699
6267,1711
6268,1712
6269,1712
6270,1716
6271,1718
6272,1717
6273,1719
6274,1719
6275,1721
6276,1723
6277,1725
6278,1728
6279,1729
6280,1730
6281,1730
6282,1731
6283,1734
6284,1733
6285,1735
6286,1739
6287,1738
6288,1738
6289,1744
6290,1744
6291,1743
6292,1728
6293,1723
6294,1713
6295,1712
6296,1705
6297,1694
6298,1706
6299,1706
6300,1709
6301,1712
6302,1712
6303,1712
6304,1711
6305,1712
6306,1712
6307,1713
6308,1712
6309,1713
6310,1713
6311,1717
6312,1718
6313,1717
6314,1718
6315,1718
6316,1723
6317,1723
6318,1712
6319,1711
6320,1706
6321,1703
6322,1695
6323,1695
6324,1692
6325,1687
6326,1686
6327,1677
6328,1674
6329,1682
6330,1685
6331,1691
6332,1695
6333,1698
6334,1703
6335,1709
6336,1712
6337,1712
6338,1713
6339,1715
6340,1716
6341,1721
6342,1723
6343,1727
6344,1727
6345,1728
6346,1727
6347,1729
6348,1729
6349,1729
6350,1730
6351,1731
6352,1719
6353,1712
6354,1711
6355,1705
6356,1712
6357,1712
6358,1713
6359,1717
6360,1719
6361,1722
6362,1723
6363,1727
6364,1729
6365,1728
6366,1729
6367,1715
6368,1726
6369,1727
6370,1728
6371,1728
6372,1729
6373,1730
6374,1731
6375,1729
6376,1731
6377,1734
6378,1738
6379,1739
6380,1741
6381,1739
6382,1726
6383,1722
6384,1715
6385,1712
6386,1707
6387,1697
6388,1706
6389,1709
6390,1710
6391,1711
6392,1712
6393,1713
6394,1716
6395,1719
6396,1723
6397,1723
6398,1726
6399,1728
6400,1728
6401,1727
6402,1728
6403,1725
6404,1727
6405,1723
6406,1723
6407,1724
6408,1724
6409,1723
6410,1723
6411,1724
6412,1712
6413,1708
6414,1703
6415,1698
6416,1691
6417,1699
6418,1691
6419,1702
6420,1703
6421,1709
6422,1712
6423,1712
6424,1712
6425,1715
6426,1719
6427,1721
6428,1721
6429,1722
6430,1723
6431,1728
6432,1729
6433,1728
6434,1730
6435,1730
6436,1734
6437,1734
6438,1733
6439,1733
6440,1731
6441,1731
6442,1718
6443,1717
6444,1714
6445,1711
6446,1702
6447,1691
6448,1687
6449,1697
6450,1699
6451,1709
6452,1709
6453,1711
6454,1711
6455,1712
6456,1714
6457,1715
6458,1717
6459,1721
6460,1726
6461,1725
6462,1727
6463,1727
6464,1729
6465,1730
6466,1729
6467,1718
6468,1712
6469,1712
6470,1706
6471,1701
6472,1697
6473,1695
6474,1690
6475,1689
6476,1680
6477,1673
6478,1681
6479,1686
6480,1695
6481,1699
6482,1702
6483,1707
6484,1712
6485,1713
6486,1717
6487,1717
6488,1718
6489,1720
6490,1722
6491,1725
6492,1724
6493,1726
6494,1727
6495,1730
6496,1731
6497,1731
6498,1730
6499,1731
6500,1731
6501,1730
6502,1715
6503,1712
6504,1708
6505,1701
6506,1690
6507,1699
6508,1698
6509,1701
6510,1705
6511,1705
6512,1707
6513,1709
6514,1709
6515,1710
6516,1711
6517,1712
6518,1703
6519,1712
6520,1713
6521,1717
6522,1716
6523,1717
6524,1719
6525,1723
6526,1725
6527,1728
6528,1728
6529,1728
6530,1729
6531,1728
6532,1718
6533,1712
6534,1709
6535,1703
6536,1698
6537,1685
6538,1680
6539,1691
6540,1696
6541,1701
6542,1706
6543,1709
6544,1712
6545,1712
6546,1715
6547,1715
6548,1722
6549,1722
6550,1725
6551,1727
6552,1727
6553,1729
6554,1730
6555,1729
6556,1731
6557,1733
6558,1730
6559,1731
6560,1730
6561,1211
6562,1040
6563,1791
6564,1748
6565,1671
6566,1637
6567,1645
6568,1667
6569,1712
6570,1739
6571,1808
6572,1915
6573,1947
6574,1930
6575,1920
6576,1894
6577,1861
6578,1821
6579,1782
6580,1762
6581,1753
6582,1746
6583,1743
6584,1743
6585,1743
6586,1739
6587,1734
6588,1730
6589,1729
6590,1728
6591,1727
6592,2608
6593,662
6594,1711
6595,1705
6596,1627
6597,1584
6598,1584
6599,1614
6600,1667
6601,1726
6602,1856
6603,1995
6604,1983
6605,1939
6606,1889
6607,1851
6608,1807
6609,1763
6610,1740
6611,1727
6612,1717
6613,1712
6614,1712
6615,1711
6616,1708
6617,1706
6618,1696
6619,1697
6620,1701
6621,1690
6622,1679
6623,1697
6624,183
6625,1558
6626,1680
6627,1578
6628,1523
6629,1522
6630,1566
6631,1633
6632,1729
6633,1927
6634,2055
6635,2032
6636,1968
6637,1909
6638,1857
6639,1808
6640,1762
6641,1738
6642,1726
6643,1718
6644,1714
6645,1715
6646,1723
6647,1723
6648,1718
6649,1717
6650,1718
6651,1717
6652,1701
6653,1693
6654,1687
6655,477
6656,1296
6657,1702
6658,1600
6659,1535
6660,1533
6661,1581
6662,1659
6663,1751
6664,1927
6665,2047
6666,2041
6667,1977
6668,1906
6669,1861
6670,1808
6671,1767
6672,1743
6673,1730
6674,1726
6675,1723
6676,1726
6677,1728
6678,1724
6679,1718
6680,1713
6681,1713
6682,1701
6683,1691
6684,1685
6685,1681
6686,1493
6687,921
6688,1671
6689,1600
6690,1505
6691,1485
6692,1534
6693,1626
6694,1735
6695,1933
6696,2086
6697,2091
6698,1999
6699,1927
6700,1874
6701,1819
6702,1771
6703,1735
6704,1721
6705,1714
6706,1713
6707,1717
6708,1715
6709,1711
6710,1703
6711,1697
6712,1680
6713,1677
6714,1671
6715,1664
6716,1657
6717,2608
6718,464
6719,1648
6720,1602
6721,1457
6722,1413
6723,1457
6724,1559
6725,1680
6726,1936
6727,2165
6728,2155
6729,2063
6730,1986
6731,1934
6732,1882
6733,1830
6734,1782
6735,1747
6736,1723
6737,1717
6738,1718
6739,1721
6740,1712
6741,1711
6742,1698
6743,1693
6744,1685
6745,1679
6746,1671
6747,1655
6748,1649
6749,58
6750,1485
6751,1663
6752,1503
6753,1437
6754,1455
6755,1531
6756,1619
6757,1925
6758,2214
6759,2176
6760,2061
6761,1994
6762,1947
6763,1887
6764,1819
6765,1765
6766,1730
6767,1709
6768,1705
6769,1699
6770,1688
6771,1678
6772,1669
6773,1666
6774,1663
6775,1662
6776,1658
6777,1646
6778,1649
6779,1654
6780,505
6781,1200
6782,1689
6783,1535
6784,1435
6785,1427
6786,1486
6787,1535
6788,1885
6789,2224
6790,2160
6791,2039
6792,1991
6793,1964
6794,1913
6795,1850
6796,1795
6797,1747
6798,1727
6799,1721
6800,1722
6801,1717
6802,1697
6803,1683
6804,1679
6805,1669
6806,1661
6807,1664
6808,1664
6809,1667
6810,1670
6811,1806
6812,790
6813,1686
6814,1616
6815,1487
6816,1455
6817,1482
6818,1483
6819,1834
6820,2224
6821,2130
6822,2000
6823,1959
6824,1939
6825,1903
6826,1845
6827,1787
6828,1744
6829,1724
6830,1719
6831,1718
6832,1705
6833,1695
6834,1681
6835,1680
6836,1677
6837,1661
6838,1653
6839,1661
6840,1665
6841,1669
6842,2281
6843,368
6844,1645
6845,1647
6846,1473
6847,1419
6848,1450
6849,1430
6850,1778
6851,2240
6852,2157
6853,2030
6854,1995
6855,2000
6856,1969
6857,1898
6858,1811
6859,1748
6860,1722
6861,1719
6862,1711
6863,1701
6864,1687
6865,1679
6866,1667
6867,1657
6868,1648
6869,1658
6870,1662
6871,1664
6872,1673
6873,1677
6874,119
6875,1442
6876,1718
6877,1571
6878,1483
6879,1495
6880,1440
6881,1634
6882,2182
6883,2174
6884,2017
6885,1977
6886,1986
6887,1950
6888,1870
6889,1793
6890,1749
6891,1735
6892,1712
6893,1706
6894,1696
6895,1687
6896,1673
6897,1661
6898,1667
6899,1682
6900,1687
6901,1680
6902,1678
6903,1680
6904,1680
6905,746
6906,1137
6907,1723
6908,1586
6909,1467
6910,1479
6911,1426
6912,1488
6913,2090
6914,2176
6915,2017
6916,1968
6917,1989
6918,1959
6919,1881
6920,1792
6921,1723
6922,1689
6923,1680
6924,1675
6925,1674
6926,1655
6927,1637
6928,1620
6929,1648
6930,1660
6931,1672
6932,1664
6933,1664
6934,1666
6935,1670
6936,2266
6937,671
6938,1701
6939,1662
6940,1507
6941,1488
6942,1458
6943,1423
6944,1996
6945,2196
6946,2042
6947,1979
6948,2004
6949,1995
6950,1920
6951,1837
6952,1758
6953,1722
6954,1702
6955,1694
6956,1687
6957,1693
6958,1686
6959,1684
6960,1684
6961,1686
6962,1685
6963,1684
6964,1686
6965,1686
6966,1687
6967,1814
6968,213
6969,1611
6970,1734
6971,1584
6972,1528
6973,1521
6974,1405
6975,1891
6976,2238
6977,2067
6978,1951
6979,1948
6980,1936
6981,1883
6982,1804
6983,1750
6984,1719
6985,1707
6986,1697
6987,1683
6988,1689
6989,1687
6990,1686
6991,1689
6992,1693
6993,1691
6994,1692
6995,1693
6996,1695
6997,1697
6998,1699
6999,165
7000,1488
7001,1757
7002,1611
7003,1526
7004,1535
7005,1392
7006,1776
7007,2246
7008,2099
7009,1955
7010,1945
7011,1949
7012,1889
7013,1805
7014,1743
7015,1708
7016,1687
7017,1685
7018,1690
7019,1680
7020,1686
7021,1682
7022,1682
7023,1687
7024,1687
7025,1684
7026,1685
7027,1687
7028,1690
7029,1691
7030,951
7031,1077
7032,1751
7033,1659
7034,1535
7035,1535
7036,1433
7037,1574
7038,2194
7039,2160
7040,1979
7041,1947
7042,1970
7043,1919
7044,1822
7045,1755
7046,1716
7047,1691
7048,1680
7049,1693
7050,1693
7051,1687
7052,1687
7053,1683
7054,1685
7055,1686
7056,1691
7057,1687
7058,1693
7059,1689
7060,1691
7061,2246
7062,694
7063,1721
7064,1681
7065,1521
7066,1523
7067,1449
7068,1424
7069,2061
7070,2181
7071,1999
7072,1927
7073,1938
7074,1920
7075,1852
7076,1770
7077,1702
7078,1685
7079,1681
7080,1681
7081,1685
7082,1683
7083,1680
7084,1680
7085,1682
7086,1683
7087,1682
7088,1682
7089,1683
7090,1685
7091,1686
7092,1726
7093,159
7094,1587
7095,1731
7096,1567
7097,1520
7098,1510
7099,1381
7100,1897
7101,2238
7102,2058
7103,1936
7104,1936
7105,1931
7106,1870
7107,1797
7108,1737
7109,1707
7110,1697
7111,1695
7112,1696
7113,1696
7114,1691
7115,1683
7116,1682
7117,1684
7118,1674
7119,1680
7120,1680
7121,1680
7122,1681
7123,1687
7124,326
7125,1357
7126,1766
7127,1650
7128,1563
7129,1572
7130,1407
7131,1724
7132,2209
7133,2064
7134,1903
7135,1891
7136,1903
7137,1842
7138,1774
7139,1733
7140,1712
7141,1703
7142,1701
7143,1703
7144,1705
7145,1696
7146,1692
7147,1695
7148,1695
7149,1693
7150,1690
7151,1691
7152,1693
7153,1691
7154,1695
7155,1178
7156,1008
7157,1744
7158,1650
7159,1518
7160,1535
7161,1415
7162,1520
7163,2160
7164,2142
7165,1959
7166,1925
7167,1973
7168,1934
7169,1849
7170,1779
7171,1742
7172,1723
7173,1716
7174,1717
7175,1717
7176,1712
7177,1705
7178,1703
7179,1709
7180,1707
7181,1702
7182,1701
7183,1702
7184,1707
7185,1710
7186,1710
7187,1709
7188,1710
7189,1709
7190,1712
7191,1712
7192,1700
7193,1698
7194,1690
7195,1687
7196,1680
7197,1671
7198,1680
7199,1687
7200,1690
7201,1693
7202,1694
7203,1695
7204,1694
7205,1697
7206,1699
7207,1701
7208,1695
7209,1697
7210,1697
7211,1697
7212,1698
7213,1703
7214,1701
7215,1700
7216,1701
7217,1706
7218,1696
7219,1692
7220,1686
7221,1680
7222,1679
7223,1677
7224,1676
7225,1669
7226,1666
7227,1655
7228,1650
7229,1662
7230,1667
7231,1675
7232,1680
7233,1685
7234,1692
7235,1695
7236,1697
7237,1701
7238,1702
7239,1706
7240,1711
7241,1710
7242,1712
7243,1713
7244,1713
7245,1718
7246,1716
7247,1718
7248,1718
7249,1721
7250,1727
7251,1728
7252,1713
7253,1712
7254,1706
7255,1699
7256,1695
7257,1682
7258,1683
7259,1687
7260,1693
7261,1695
7262,1697
7263,1702
7264,1703
7265,1705
7266,1709
7267,1699
7268,1711
7269,1712
7270,1712
7271,1714
7272,1717
7273,1718
7274,1719
7275,1721
7276,1721
7277,1725
7278,1727
7279,1725
7280,1728
7281,1728
7282,1717
7283,1712
7284,1707
7285,1702
7286,1695
7287,1682
7288,1691
7289,1695
7290,1695
7291,1698
7292,1705
7293,1710
7294,1712
7295,1713
7296,1712
7297,1713
7298,1717
7299,1719
7300,1719
7301,1721
7302,1719
7303,1719
7304,1716
7305,1715
7306,1715
7307,1717
7308,1715
7309,1714
7310,1713
7311,1716
7312,1706
7313,1702
7314,1695
7315,1692
7316,1685
7317,1691
7318,1690
7319,1697
7320,1699
7321,1703
7322,1707
7323,1710
7324,1712
7325,1712
7326,1713
7327,1715
7328,1717
7329,1717
7330,1722
7331,1722
7332,1723
7333,1725
7334,1726
7335,1728
7336,1728
7337,1729
7338,1728
7339,1731
7340,1731
7341,1734
7342,1723
7343,1715
7344,1712
7345,1711
7346,1705
7347,1694
7348,1685
7349,1699
7350,1706
7351,1712
7352,1712
7353,1714
7354,1719
7355,1718
7356,1719
7357,1717
7358,1723
7359,1727
7360,1725
7361,1726
7362,1727
7363,1727
7364,1729
7365,1729
7366,1731
7367,1718
7368,1712
7369,1710
7370,1707
7371,1703
7372,1698
7373,1695
7374,1691
7375,1691
7376,1685
7377,1675
7378,1683
7379,1687
7380,1694
7381,1697
7382,1698
7383,1701
7384,1707
7385,1710
7386,1712
7387,1712
7388,1713
7389,1717
7390,1718
7391,1719
7392,1722
7393,1722
7394,1726
7395,1727
7396,1728
7397,1728
7398,1731
7399,1732
7400,1729
7401,1730
7402,1714
7403,1712
7404,1702
7405,1696
7406,1687
7407,1697
7408,1699
7409,1698
7410,1697
7411,1700
7412,1702
7413,1703
7414,1706
7415,1709
7416,1710
7417,1711
7418,1702
7419,1712
7420,1713
7421,1718
7422,1719
7423,1721
7424,1722
7425,1722
7426,1726
7427,1725
7428,1727
7429,1728
7430,1729
7431,1729
7432,1717
7433,1712
7434,1711
7435,1703
7436,1697
7437,1684
7438,1689
7439,1694
7440,1698
7441,1703
7442,1708
7443,1711
7444,1712
7445,1712
7446,1712
7447,1715
7448,1722
7449,1723
7450,1719
7451,1723
7452,1723
7453,1727
7454,1724
7455,1725
7456,1728
7457,1730
7458,1730
7459,1730
7460,1730
7461,1731
7462,1721
7463,1716
7464,1712
7465,1710
7466,1701
7467,1712
7468,1712
7469,1713
7470,1713
7471,1714
7472,1715
7473,1716
7474,1722
7475,1725
7476,1726
7477,1726
7478,1726
7479,1729
7480,1729
7481,1732
7482,1733
7483,1733
7484,1733
7485,1735
7486,1735
7487,1734
7488,1735
7489,1734
7490,1737
7491,1738
7492,1725
7493,1717
7494,1714
7495,1712
7496,1703
7497,1694
7498,1703
7499,1708
7500,1712
7501,1712
7502,1711
7503,1712
7504,1711
7505,1713
7506,1715
7507,1713
7508,1712
7509,1713
7510,1712
7511,1712
7512,1713
7513,1718
7514,1717
7515,1715
7516,1715
7517,1717
7518,1706
7519,1706
7520,1698
7521,1695
7522,1691
7523,1690
7524,1683
7525,1684
7526,1682
7527,1676
7528,1668
7529,1680
7530,1686
7531,1692
7532,1695
7533,1699
7534,1701
7535,1705
7536,1710
7537,1712
7538,1714
7539,1715
7540,1717
7541,1718
7542,1722
7543,1726
7544,1728
7545,1725
7546,1724
7547,1726
7548,1728
7549,1728
7550,1728
7551,1728
7552,1716
7553,1712
7554,1710
7555,1706
7556,1698
7557,1707
7558,1709
7559,1712
7560,1713
7561,1717
7562,1719
7563,1721
7564,1723
7565,1725
7566,1725
7567,1712
7568,1723
7569,1723
7570,1725
7571,1725
7572,1727
7573,1727
7574,1727
7575,1725
7576,1728
7577,1731
7578,1731
7579,1731
7580,1732
7581,1733
7582,1722
7583,1717
7584,1713
7585,1709
7586,1699
7587,1687
7588,1701
7589,1702
7590,1707
7591,1708
7592,1711
7593,1712
7594,1712
7595,1717
7596,1722
7597,1725
7598,1726
7599,1728
7600,1733
7601,1728
7602,1728
7603,1730
7604,1729
7605,1729
7606,1723
7607,1721
7608,1713
7609,1711
7610,1712
7611,1714
7612,1701
7613,1698
7614,1695
7615,1693
7616,1684
7617,1694
7618,1686
7619,1698
7620,1700
7621,1705
7622,1706
7623,1710
7624,1711
7625,1712
7626,1714
7627,1719
7628,1721
7629,1723
7630,1726
7631,1727
7632,1729
7633,1731
7634,1730
7635,1729
7636,1730
7637,1728
7638,1729
7639,1729
7640,1731
7641,1729
7642,1718
7643,1714
7644,1712
7645,1706
7646,1698
7647,1689
7648,1696
7649,1698
7650,1701
7651,1707
7652,1711
7653,1712
7654,1712
7655,1715
7656,1717
7657,1721
7658,1724
7659,1721
7660,1723
7661,1727
7662,1727
7663,1727
7664,1729
7665,1729
7666,1727
7667,1726
7668,1712
7669,1708
7670,1703
7671,1699
7672,1696
7673,1692
7674,1690
7675,1686
7676,1685
7677,1680
7678,1671
7679,1685
7680,1690
7681,1694
7682,1697
7683,1703
7684,1703
7685,1705
7686,1710
7687,1710
7688,1710
7689,1712
7690,1713
7691,1715
7692,1717
7693,1718
7694,1722
7695,1723
7696,1722
7697,1727
7698,1728
7699,1728
7700,1729
7701,1728
7702,1712
7703,1707
7704,1698
7705,1694
7706,1687
7707,1694
7708,1695
7709,1697
7710,1698
7711,1701
7712,1702
7713,1703
7714,1707
7715,1707
7716,1709
7717,1711
7718,1707
7719,1712
7720,1711
7721,1713
7722,1713
7723,1716
7724,1718
7725,1718
7726,1722
7727,1721
7728,1726
7729,1725
7730,1726
7731,1728
7732,1715
7733,1712
7734,1706
7735,1701
7736,1697
7737,1683
7738,1687
7739,1694
7740,1697
7741,1699
7742,1703
7743,1705
7744,1709
7745,1711
7746,1712
7747,1713
7748,1715
7749,1719
7750,1724
7751,1722
7752,1725
7753,1722
7754,1727
7755,1728
7756,1729
7757,1732
7758,1732
7759,1731
7760,1734
7761,1733
7762,1721
7763,1717
7764,1712
7765,1709
7766,1699
7767,1711
7768,1712
7769,1712
7770,1712
7771,1713
7772,1717
7773,1718
7774,1719
7775,1719
7776,1722
7777,1724
7778,1727
7779,1728
7780,1728
7781,1732
7782,1730
7783,1733
7784,1731
7785,1730
7786,1732
7787,1733
7788,1731
7789,1731
7790,1733
7791,1733
7792,1725
7793,1721
7794,1713
7795,1710
7796,1703
7797,1691
7798,1706
7799,1711
7800,1712
7801,1712
7802,1713
7803,1713
7804,1714
7805,1713
7806,1712
7807,1712
7808,1712
7809,1712
7810,1712
7811,1714
7812,1716
7813,1715
7814,1719
7815,1718
7816,1719
7817,1723
7818,1708
7819,1707
7820,1706
7821,1707
7822,1703
7823,1701
7824,1695
7825,1686
7826,1677
7827,1667
7828,1664
7829,1677
7830,1681
7831,1687
7832,1693
7833,1696
7834,1701
7835,1703
7836,1707
7837,1712
7838,1712
7839,1712
7840,1715
7841,1717
7842,1719
7843,1720
7844,1723
7845,1726
7846,1727
7847,1728
7848,1728
7849,1729
7850,1730
7851,1728
7852,1719
7853,1712
7854,1712
7855,1706
7856,1698
7857,1710
7858,1711
7859,1712
7860,1712
7861,1719
7862,1719
7863,1725
7864,1726
7865,1727
7866,1725
7867,1712
7868,1723
7869,1723
7870,1724
7871,1726
7872,1726
7873,1727
7874,1727
7875,1729
7876,1731
7877,1731
7878,1734
7879,1734
7880,1733
7881,1733
7882,1722
7883,1721
7884,1716
7885,1712
7886,1703
7887,1694
7888,1707
7889,1708
7890,1711
7891,1712
7892,1714
7893,1714
7894,1716
7895,1719
7896,1719
7897,1725
7898,1727
7899,1726
7900,1728
7901,1727
7902,1727
7903,1727
7904,1727
7905,1726
7906,1723
7907,1723
7908,1723
7909,1722
7910,1725
7911,1721
7912,1710
7913,1703
7914,1699
7915,1694
7916,1687
7917,1695
7918,1693
7919,1702
7920,1708
7921,1707
7922,1711
7923,1712
7924,1714
7925,1715
7926,1717
7927,1720
7928,1722
7929,1719
7930,1725
7931,1723
7932,1728
7933,1729
7934,1731
7935,1731
7936,1729
7937,1731
7938,1729
7939,1729
7940,1731
7941,1733
7942,1723
7943,1718
7944,1712
7945,1711
7946,1707
7947,1692
7948,1697
7949,1700
7950,1709
7951,1711
7952,1712
7953,1714
7954,1715
7955,1717
7956,1719
7957,1722
7958,1722
7959,1727
7960,1726
7961,1729
7962,1731
7963,1731
7964,1730
7965,1732
7966,1732
7967,1724
7968,1718
7969,1712
7970,1710
7971,1707
7972,1701
7973,1697
7974,1690
7975,1689
7976,1682
7977,1675
7978,1683
7979,1687
7980,1694
7981,1696
7982,1703
7983,1707
7984,1708
7985,1712
7986,1712
7987,1713
7988,1715
7989,1717
7990,1718
7991,1723
7992,1720
7993,1725
7994,1728
7995,1728
7996,1729
7997,1729
7998,1731
7999,1732
8000,1731
8001,1730
8002,1716
8003,1712
8004,1707
8005,1701
8006,1691
8007,1698
8008,1699
8009,1701
8010,1703
8011,1703
8012,1706
8013,1709
8014,1707
8015,1708
8016,1711
8017,1711
8018,1712
8019,1702
8020,1712
8021,1714
8022,1715
8023,1719
8024,1722
8025,1723
8026,1726
8027,1727
8028,1728
8029,1730
8030,1731
8031,1733
8032,1724
8033,1717
8034,1712
8035,1709
8036,1703
8037,1687
8038,1695
8039,1698
8040,1701
8041,1708
8042,1707
8043,1709
8044,1712
8045,1713
8046,1714
8047,1717
8048,1718
8049,1719
8050,1723
8051,1726
8052,1726
8053,1725
8054,1727
8055,1729
8056,1728
8057,1729
8058,1730
8059,1729
8060,1730
8061,1728
8062,1722
8063,1715
8064,1712
8065,1710
8066,1701
8067,1688
8068,1693
8069,1696
8070,1700
8071,1706
8072,1709
8073,1711
8074,1712
8075,1717
8076,1718
8077,1721
8078,1725
8079,1727
8080,1728
8081,1728
8082,1731
8083,1730
8084,1731
8085,1731
8086,1731
8087,1734
8088,1733
8089,1734
8090,1734
8091,1732
8092,1723
8093,1721
8094,1714
8095,1711
8096,1708
8097,1695
8098,1687
8099,1680
8100,1687
8101,1687
8102,1688
8103,1690
8104,1693
8105,1695
8106,1694
8107,1695
8108,1697
8109,1696
8110,1701
8111,1702
8112,1706
8113,1707
8114,1710
8115,1711
8116,1712
8117,1712
8118,1709
8119,1701
8120,1694
8121,1691
8122,1688
8123,1689
8124,1683
8125,1680
8126,1678
8127,1666
8128,1669
8129,1678
8130,1680
8131,1687
8132,1691
8133,1694
8134,1697
8135,1699
8136,1706
8137,1707
8138,1711
8139,1712
8140,1712
8141,1718
8142,1718
8143,1722
8144,1722
8145,1721
8146,1724
8147,1725
8148,1727
8149,1728
8150,1730
8151,1731
8152,1717
8153,1714
8154,1709
8155,1707
8156,1698
8157,1709
8158,1709
8159,1712
8160,1712
8161,1713
8162,1715
8163,1722
8164,1721
8165,1719
8166,1722
8167,1711
8168,1718
8169,1718
8170,1721
8171,1723
8172,1723
8173,1727
8174,1729
8175,1728
8176,1730
8177,1733
8178,1733
8179,1733
8180,1732
8181,1735
8182,1723
8183,1714
8184,1712
8185,1709
8186,1868
8187,353
8188,1648
8189,1772
8190,1694
8191,1654
8192,1648
8193,1662
8194,1697
8195,1727
8196,1751
8197,1844
8198,1927
8199,1924
8200,1919
8201,1904
8202,1872
8203,1839
8204,1799
8205,1775
8206,1751
8207,1744
8208,1734
8209,1728
8210,1728
8211,1728
8212,1713
8213,1708
8214,1695
8215,1689
8216,1682
8217,1693
8218,144
8219,1424
8220,1771
8221,1710
8222,1666
8223,1648
8224,1658
8225,1686
8226,1719
8227,1763
8228,1872
8229,1930
8230,1918
8231,1904
8232,1879
8233,1853
8234,1813
8235,1778
8236,1755
8237,1744
8238,1735
8239,1732
8240,1731
8241,1733
8242,1718
8243,1711
8244,1702
8245,1698
8246,1695
8247,1682
8248,1681
8249,1127
8250,1010
8251,1737
8252,1675
8253,1610
8254,1584
8255,1587
8256,1631
8257,1705
8258,1803
8259,1979
8260,2055
8261,2018
8262,1968
8263,1916
8264,1867
8265,1811
8266,1771
8267,1735
8268,1714
8269,1709
8270,1702
8271,1702
8272,1697
8273,1692
8274,1680
8275,1678
8276,1673
8277,1662
8278,1664
8279,1670
8280,2607
8281,496
8282,1675
8283,1686
8284,1610
8285,1580
8286,1584
8287,1632
8288,1706
8289,1808
8290,1994
8291,2067
8292,2032
8293,1966
8294,1904
8295,1853
8296,1802
8297,1762
8298,1744
8299,1734
8300,1729
8301,1721
8302,1712
8303,1710
8304,1695
8305,1680
8306,1677
8307,1664
8308,1669
8309,1669
8310,1673
8311,1705
8312,132
8313,1569
8314,1682
8315,1567
8316,1504
8317,1507
8318,1569
8319,1659
8320,1808
8321,2017
8322,2113
8323,2070
8324,1981
8325,1913
8326,1853
8327,1791
8328,1750
8329,1729
8330,1723
8331,1725
8332,1712
8333,1712
8334,1699
8335,1685
8336,1678
8337,1666
8338,1669
8339,1680
8340,1679
8341,1678
8342,1680
8343,208
8344,1365
8345,1715
8346,1582
8347,1488
8348,1473
8349,1526
8350,1618
8351,1781
8352,2041
8353,2189
8354,2133
8355,2032
8356,1958
8357,1898
8358,1839
8359,1785
8360,1753
8361,1739
8362,1718
8363,1715
8364,1711
8365,1701
8366,1682
8367,1686
8368,1687
8369,1686
8370,1683
8371,1685
8372,1687
8373,1691
8374,1382
8375,930
8376,1713
8377,1578
8378,1435
8379,1407
8380,1457
8381,1554
8382,1725
8383,2064
8384,2251
8385,2187
8386,2096
8387,2032
8388,1981
8389,1921
8390,1857
8391,1801
8392,1743
8393,1711
8394,1699
8395,1693
8396,1683
8397,1667
8398,1665
8399,1669
8400,1676
8401,1679
8402,1680
8403,1677
8404,1678
8405,2608
8406,505
8407,1661
8408,1624
8409,1485
8410,1435
8411,1461
8412,1510
8413,1676
8414,2083
8415,2256
8416,2128
8417,2018
8418,1962
8419,1905
8420,1840
8421,1776
8422,1723
8423,1690
8424,1677
8425,1674
8426,1665
8427,1654
8428,1645
8429,1652
8430,1662
8431,1666
8432,1666
8433,1671
8434,1675
8435,1677
8436,1680
8437,21
8438,1507
8439,1703
8440,1522
8441,1434
8442,1440
8443,1462
8444,1595
8445,2081
8446,2268
8447,2126
8448,2031
8449,1999
8450,1967
8451,1905
8452,1833
8453,1760
8454,1712
8455,1694
8456,1685
8457,1675
8458,1679
8459,1675
8460,1673
8461,1678
8462,1679
8463,1677
8464,1677
8465,1677
8466,1680
8467,1670
8468,304
8469,1311
8470,1737
8471,1575
8472,1456
8473,1447
8474,1454
8475,1527
8476,2058
8477,2256
8478,2106
8479,2021
8480,2015
8481,1997
8482,1911
8483,1825
8484,1744
8485,1710
8486,1691
8487,1680
8488,1682
8489,1687
8490,1682
8491,1681
8492,1682
8493,1680
8494,1680
8495,1680
8496,1681
8497,1685
8498,1687
8499,1367
8500,912
8501,1742
8502,1673
8503,1533
8504,1491
8505,1472
8506,1456
8507,1968
8508,2229
8509,2064
8510,1966
8511,1958
8512,1927
8513,1863
8514,1787
8515,1728
8516,1693
8517,1689
8518,1680
8519,1689
8520,1680
8521,1678
8522,1677
8523,1680
8524,1689
8525,1701
8526,1696
8527,1687
8528,1687
8529,1693
8530,2405
8531,396
8532,1682
8533,1731
8534,1586
8535,1525
8536,1515
8537,1429
8538,1889
8539,2255
8540,2096
8541,1968
8542,1938
8543,1918
8544,1865
8545,1792
8546,1738
8547,1698
8548,1689
8549,1692
8550,1691
8551,1695
8552,1695
8553,1689
8554,1692
8555,1693
8556,1694
8557,1691
8558,1691
8559,1691
8560,1692
8561,1694
8562,51
8563,1485
8564,1753
8565,1584
8566,1491
8567,1492
8568,1381
8569,1667
8570,2192
8571,2115
8572,1975
8573,1947
8574,1936
8575,1893
8576,1813
8577,1731
8578,1695
8579,1680
8580,1682
8581,1680
8582,1680
8583,1680
8584,1678
8585,1678
8586,1680
8587,1680
8588,1681
8589,1682
8590,1686
8591,1686
8592,1689
8593,623
8594,1181
8595,1755
8596,1616
8597,1477
8598,1491
8599,1421
8600,1524
8601,2141
8602,2169
8603,2018
8604,1982
8605,2000
8606,1953
8607,1863
8608,1776
8609,1722
8610,1703
8611,1695
8612,1693
8613,1691
8614,1685
8615,1680
8616,1678
8617,1674
8618,1667
8619,1669
8620,1671
8621,1671
8622,1675
8623,1677
8624,1677
8625,813
8626,1726
8627,1677
8628,1535
8629,1535
8630,1472
8631,1473
8632,2090
8633,2190
8634,1994
8635,1911
8636,1909
8637,1879
8638,1825
8639,1761
8640,1723
8641,1707
8642,1700
8643,1703
8644,1703
8645,1699
8646,1694
8647,1694
8648,1695
8649,1700
8650,1698
8651,1699
8652,1700
8653,1699
8654,1703
8655,2147
8656,325
8657,1664
8658,1739
8659,1592
8660,1535
8661,1520
8662,1401
8663,1955
8664,2225
8665,2031
8666,1905
8667,1910
8668,1900
8669,1842
8670,1777
8671,1729
8672,1712
8673,1705
8674,1705
8675,1706
8676,1702
8677,1693
8678,1686
8679,1681
8680,1686
8681,1695
8682,1691
8683,1707
8684,1715
8685,1707
8686,1701
8687,163
8688,1439
8689,1771
8690,1625
8691,1535
8692,1535
8693,1388
8694,1711
8695,2207
8696,2089
8697,1926
8698,1895
8699,1906
8700,1863
8701,1794
8702,1744
8703,1716
8704,1703
8705,1697
8706,1696
8707,1695
8708,1688
8709,1682
8710,1680
8711,1682
8712,1690
8713,1690
8714,1683
8715,1681
8716,1681
8717,1683
8718,649
8719,1165
8720,1731
8721,1613
8722,1491
8723,1515
8724,1378
8725,1531
8726,2147
8727,2128
8728,1963
8729,1925
8730,1930
8731,1892
8732,1814
8733,1755
8734,1723
8735,1712
8736,1706
8737,1710
8738,1711
8739,1708
8740,1699
8741,1700
8742,1702
8743,1700
8744,1697
8745,1702
8746,1707
8747,1707
8748,1703
8749,2469
8750,641
8751,1725
8752,1701
8753,1535
8754,1535
8755,1462
8756,1399
8757,1994
8758,2160
8759,1984
8760,1915
8761,1945
8762,1921
8763,1846
8764,1774
8765,1731
8766,1714
8767,1696
8768,1705
8769,1710
8770,1703
8771,1698
8772,1695
8773,1694
8774,1695
8775,1697
8776,1694
8777,1694
8778,1695
8779,1697
8780,1763
8781,167
8782,1594
8783,1735
8784,1587
8785,1534
8786,1517
8787,1354
8788,1861
8789,2201
8790,2028
8791,1907
8792,1917
8793,1913
8794,1863
8795,1792
8796,1746
8797,1728
8798,1718
8799,1713
8800,1712
8801,1710
8802,1698
8803,1689
8804,1690
8805,1694
8806,1703
8807,1707
8808,1697
8809,1693
8810,1690
8811,1690
8812,1680
8813,1671
8814,1669
8815,1665
8816,1661
8817,1669
8818,1666
8819,1677
8820,1679
8821,1681
8822,1685
8823,1689
8824,1693
8825,1693
8826,1697
8827,1699
8828,1705
8829,1706
8830,1707
8831,1707
8832,1709
8833,1709
8834,1711
8835,1712
8836,1712
8837,1712
8838,1712
8839,1709
8840,1712
8841,1712
8842,1703
8843,1701
8844,1696
8845,1690
8846,1686
8847,1677
8848,1680
8849,1683
8850,1683
8851,1687
8852,1692
8853,1695
8854,1701
8855,1701
8856,1705
8857,1711
8858,1709
8859,1710
8860,1712
8861,1712
8862,1712
8863,1713
8864,1714
8865,1718
8866,1723
8867,1709
8868,1701
8869,1696
8870,1694
8871,1691
8872,1682
8873,1680
8874,1680
8875,1677
8876,1671
8877,1664
8878,1664
8879,1651
8880,1660
8881,1664
8882,1671
8883,1678
8884,1681
8885,1683
8886,1688
8887,1690
8888,1695
8889,1697
8890,1702
8891,1711
8892,1706
8893,1709
8894,1711
8895,1712
8896,1714
8897,1715
8898,1714
8899,1715
8900,1717
8901,1719
8902,1711
8903,1705
8904,1699
8905,1689
8906,1682
8907,1685
8908,1687
8909,1687
8910,1690
8911,1691
8912,1694
8913,1693
8914,1697
8915,1697
8916,1698
8917,1700
8918,1699
8919,1700
8920,1703
8921,1706
8922,1707
8923,1711
8924,1712
8925,1715
8926,1717
8927,1715
8928,1721
8929,1724
8930,1721
8931,1723
8932,1712
8933,1708
8934,1705
8935,1703
8936,1694
8937,1680
8938,1680
8939,1683
8940,1691
8941,1697
8942,1698
8943,1702
8944,1707
8945,1707
8946,1712
8947,1712
8948,1713
8949,1716
8950,1720
8951,1721
8952,1721
8953,1721
8954,1719
8955,1723
8956,1726
8957,1726
8958,1727
8959,1726
8960,1728
8961,1728
8962,1715
8963,1712
8964,1711
8965,1703
8966,1696
8967,1707
8968,1710
8969,1712
8970,1712
8971,1714
8972,1717
8973,1720
8974,1721
8975,1723
8976,1724
8977,1723
8978,1726
8979,1728
8980,1727
8981,1728
8982,1730
8983,1730
8984,1731
8985,1730
8986,1730
8987,1734
8988,1734
8989,1733
8990,1736
8991,1738
8992,1724
8993,1719
8994,1712
8995,1711
8996,1705
8997,1692
8998,1703
8999,1708
9000,1712
9001,1711
9002,1712
9003,1712
9004,1712
9005,1712
9006,1712
9007,1713
9008,1712
9009,1715
9010,1713
9011,1714
9012,1714
9013,1713
9014,1715
9015,1713
9016,1713
9017,1712
9018,1714
9019,1702
9020,1697
9021,1691
9022,1686
9023,1685
9024,1687
9025,1683
9026,1681
9027,1671
9028,1666
9029,1679
9030,1683
9031,1690
9032,1693
9033,1697
9034,1698
9035,1705
9036,1709
9037,1711
9038,1712
9039,1713
9040,1715
9041,1715
9042,1717
9043,1721
9044,1724
9045,1726
9046,1727
9047,1730
9048,1729
9049,1729
9050,1728
9051,1728
9052,1717
9053,1714
9054,1712
9055,1705
9056,1697
9057,1707
9058,1709
9059,1711
9060,1712
9061,1715
9062,1719
9063,1722
9064,1719
9065,1721
9066,1721
9067,1712
9068,1722
9069,1723
9070,1723
9071,1722
9072,1726
9073,1726
9074,1727
9075,1729
9076,1729
9077,1730
9078,1729
9079,1730
9080,1729
9081,1730
9082,1723
9083,1715
9084,1711
9085,1707
9086,1701
9087,1691
9088,1703
9089,1706
9090,1710
9091,1711
9092,1712
9093,1716
9094,1719
9095,1724
9096,1725
9097,1725
9098,1727
9099,1727
9100,1727
9101,1725
9102,1723
9103,1723
9104,1723
9105,1723
9106,1719
9107,1717
9108,1717
9109,1717
9110,1715
9111,1715
9112,1707
9113,1698
9114,1695
9115,1691
9116,1680
9117,1691
9118,1693
9119,1695
9120,1699
9121,1701
9122,1702
9123,1702
9124,1706
9125,1706
9126,1710
9127,1711
9128,1715
9129,1716
9130,1721
9131,1723
9132,1728
9133,1729
9134,1729
9135,1730
9136,1731
9137,1729
9138,1731
9139,1728
9140,1729
9141,1731
9142,1723
9143,1718
9144,1712
9145,1707
9146,1705
9147,1690
9148,1697
9149,1702
9150,1705
9151,1710
9152,1710
9153,1711
9154,1712
9155,1713
9156,1715
9157,1718
9158,1718
9159,1719
9160,1722
9161,1725
9162,1728
9163,1728
9164,1728
9165,1728
9166,1729
9167,1714
9168,1711
9169,1707
9170,1702
9171,1697
9172,1693
9173,1691
9174,1691
9175,1686
9176,1680
9177,1673
9178,1680
9179,1686
9180,1687
9181,1693
9182,1697
9183,1701
9184,1707
9185,1709
9186,1712
9187,1712
9188,1712
9189,1712
9190,1714
9191,1718
9192,1719
9193,1721
9194,1723
9195,1725
9196,1725
9197,1727
9198,1732
9199,1735
9200,1731
9201,1731
9202,1717
9203,1707
9204,1694
9205,1690
9206,1681
9207,1675
9208,1685
9209,1686
9210,1689
9211,1693
9212,1697
9213,1695
9214,1697
9215,1697
9216,1701
9217,1700
9218,1702
9219,1706
9220,1711
9221,1712
9222,1712
9223,1715
9224,1715
9225,1717
9226,1721
9227,1723
9228,1726
9229,1723
9230,1728
9231,1728
9232,1713
9233,1711
9234,1707
9235,1703
9236,1698
9237,1685
9238,1680
9239,1694
9240,1695
9241,1699
9242,1702
9243,1706
9244,1707
9245,1707
9246,1712
9247,1715
9248,1717
9249,1721
9250,1722
9251,1723
9252,1726
9253,1727
9254,1727
9255,1727
9256,1726
9257,1728
9258,1730
9259,1728
9260,1728
9261,1729
9262,1715
9263,1712
9264,1710
9265,1706
9266,1696
9267,1706
9268,1706
9269,1710
9270,1709
9271,1711
9272,1712
9273,1718
9274,1717
9275,1722
9276,1719
9277,1721
9278,1723
9279,1726
9280,1725
9281,1727
9282,1728
9283,1728
9284,1729
9285,1730
9286,1732
9287,1735
9288,1730
9289,1719
9290,1715
9291,1713
9292,1711
9293,1713
9294,1718
9295,1717
9296,1713
9297,1706
9298,1717
9299,1715
9300,1712
9301,1715
9302,1717
9303,1719
9304,1715
9305,1712
9306,1712
9307,1712
9308,1712
9309,1712
9310,1712
9311,1712
9312,1712
9313,1712
9314,1712
9315,1712
9316,1712
9317,1712
9318,1702
9319,1700
9320,1691
9321,1689
9322,1681
9323,1683
9324,1680
9325,1679
9326,1675
9327,1667
9328,1666
9329,1675
9330,1681
9331,1683
9332,1691
9333,1693
9334,1696
9335,1701
9336,1702
9337,1707
9338,1708
9339,1711
9340,1712
9341,1715
9342,1714
9343,1717
9344,1722
9345,1723
9346,1723
9347,1725
9348,1727
9349,1728
9350,1726
9351,1728
9352,1718
9353,1712
9354,1711
9355,1706
9356,1698
9357,1707
9358,1707
9359,1711
9360,1712
9361,1712
9362,1713
9363,1717
9364,1723
9365,1725
9366,1722
9367,1712
9368,1724
9369,1724
9370,1728
9371,1731
9372,1730
9373,1728
9374,1726
9375,1727
9376,1723
9377,1721
9378,1726
9379,1728
9380,1728
9381,1729
9382,1717
9383,1714
9384,1709
9385,1707
9386,1702
9387,1687
9388,1701
9389,1706
9390,1710
9391,1710
9392,1712
9393,1713
9394,1714
9395,1716
9396,1720
9397,1721
9398,1723
9399,1726
9400,1726
9401,1724
9402,1723
9403,1723
9404,1719
9405,1713
9406,1713
9407,1712
9408,1718
9409,1719
9410,1724
9411,1727
9412,1721
9413,1714
9414,1712
9415,1699
9416,1683
9417,1692
9418,1685
9419,1693
9420,1701
9421,1709
9422,1711
9423,1713
9424,1717
9425,1721
9426,1723
9427,1719
9428,1721
9429,1725
9430,1726
9431,1725
9432,1725
9433,1728
9434,1729
9435,1728
9436,1730
9437,1730
9438,1730
9439,1732
9440,1731
9441,1733
9442,1725
9443,1718
9444,1712
9445,1710
9446,1703
9447,1693
9448,1695
9449,1703
9450,1706
9451,1709
9452,1711
9453,1712
9454,1713
9455,1717
9456,1719
9457,1721
9458,1725
9459,1726
9460,1725
9461,1728
9462,1728
9463,1728
9464,1728
9465,1729
9466,1729
9467,1716
9468,1712
9469,1710
9470,1706
9471,1702
9472,1699
9473,1696
9474,1691
9475,1687
9476,1682
9477,1675
9478,1675
9479,1662
9480,1676
9481,1680
9482,1687
9483,1694
9484,1697
9485,1697
9486,1701
9487,1699
9488,1707
9489,1712
9490,1715
9491,1718
9492,1722
9493,1721
9494,1714
9495,1713
9496,1717
9497,1724
9498,1725
9499,1727
9500,1728
9501,1727
9502,1712
9503,1707
9504,1699
9505,1694
9506,1684
9507,1694
9508,1695
9509,1697
9510,1699
9511,1700
9512,1703
9513,1706
9514,1708
9515,1711
9516,1708
9517,1711
9518,1709
9519,1709
9520,1711
9521,1712
9522,1713
9523,1713
9524,1718
9525,1719
9526,1722
9527,1722
9528,1724
9529,1728
9530,1727
9531,1729
9532,1714
9533,1714
9534,1708
9535,1705
9536,1695
9537,1683
9538,1689
9539,1693
9540,1699
9541,1702
9542,1706
9543,1711
9544,1712
9545,1712
9546,1715
9547,1718
9548,1718
9549,1722
9550,1723
9551,1723
9552,1725
9553,1721
9554,1725
9555,1725
9556,1727
9557,1727
9558,1727
9559,1728
9560,1728
9561,1731
9562,1723
9563,1713
9564,1712
9565,1707
9566,1701
9567,1711
9568,1712
9569,1713
9570,1717
9571,1717
9572,1719
9573,1719
9574,1722
9575,1721
9576,1724
9577,1727
9578,1729
9579,1729
9580,1730
9581,1730
9582,1730
9583,1731
9584,1732
9585,1730
9586,1730
9587,1731
9588,1733
9589,1731
9590,1733
9591,1733
9592,1722
9593,1721
9594,1717
9595,1712
9596,1712
9597,1698
9598,1711
9599,1711
9600,1712
9601,1711
9602,1707
9603,1709
9604,1712
9605,1715
9606,1715
9607,1713
9608,1717
9609,1716
9610,1719
9611,1717
9612,1718
9613,1717
9614,1718
9615,1715
9616,1717
9617,1720
9618,1708
9619,1702
9620,1701
9621,1694
9622,1691
9623,1689
9624,1684
9625,1682
9626,1679
9627,1670
9628,1666
9629,1677
9630,1680
9631,1686
9632,1690
9633,1693
9634,1696
9635,1701
9636,1703
9637,1707
9638,1710
9639,1712
9640,1713
9641,1718
9642,1720
9643,1722
9644,1724
9645,1727
9646,1728
9647,1727
9648,1728
9649,1728
9650,1730
9651,1731
9652,1719
9653,1715
9654,1712
9655,1704
9656,1698
9657,1712
9658,1712
9659,1712
9660,1712
9661,1716
9662,1721
9663,1721
9664,1726
9665,1728
9666,1729
9667,1727
9668,1727
9669,1727
9670,1728
9671,1728
9672,1727
9673,1728
9674,1730
9675,1729
9676,1730
9677,1735
9678,1733
9679,1733
9680,1733
9681,1733
9682,1726
9683,1719
9684,1713
9685,1710
9686,1699
9687,1688
9688,1680
9689,1689
9690,1693
9691,1699
9692,1702
9693,1706
9694,1711
9695,1713
9696,1714
9697,1718
9698,1721
9699,1723
9700,1723
9701,1722
9702,1721
9703,1719
9704,1718
9705,1718
9706,1716
9707,1716
9708,1716
9709,1718
9710,1719
9711,1717
9712,1706
9713,1702
9714,1698
9715,1697
9716,1685
9717,1695
9718,1685
9719,1688
9720,1686
9721,1692
9722,1697
9723,1702
9724,1709
9725,1712
9726,1715
9727,1719
9728,1723
9729,1725
9730,1725
9731,1728
9732,1728
9733,1728
9734,1729
9735,1730
9736,1728
9737,1729
9738,1729
9739,1733
9740,1731
9741,1729
9742,1719
9743,1715
9744,1712
9745,1710
9746,1702
9747,1691
9748,1696
9749,1701
9750,1705
9751,1707
9752,1711
9753,1712
9754,1714
9755,1713
9756,1715
9757,1717
9758,1720
9759,1723
9760,1725
9761,1728
9762,1727
9763,1728
9764,1731
9765,1731
9766,1730
9767,1718
9768,1717
9769,1712
9770,1707
9771,1702
9772,1699
9773,1695
9774,1691
9775,1690
9776,1684
9777,1679
9778,1685
9779,1691
9780,1694
9781,1697
9782,1699
9783,1703
9784,1706
9785,1709
9786,1712
9787,1712
9788,1712
9789,1716
9790,1716
9791,1721
9792,1723
9793,1723
9794,1727
9795,1729
9796,1729
9797,1731
9798,1733
9799,1731
9800,1732
9801,1730
9802,1717
9803,1712
9804,1703
9805,1700
9806,1691
9807,1699
9808,1698
9809,1701
9810,1702
9811,1706
9812,993
9813,1091
9814,1795
9815,1783
9816,1734
9817,1710
9818,1691
9819,1701
9820,1723
9821,1731
9822,1758
9823,1833
9824,1862
9825,1857
9826,1870
9827,1869
9828,1852
9829,1823
9830,1794
9831,1770
9832,1744
9833,1729
9834,1722
9835,1712
9836,1703
9837,1693
9838,1693
9839,1694
9840,1695
9841,1699
9842,1700
9843,2411
9844,688
9845,1743
9846,1774
9847,1714
9848,1680
9849,1674
9850,1685
9851,1717
9852,1754
9853,1814
9854,1898
9855,1909
9856,1895
9857,1875
9858,1849
9859,1820
9860,1788
9861,1764
9862,1737
9863,1723
9864,1715
9865,1712
9866,1699
9867,1711
9868,1708
9869,1705
9870,1703
9871,1707
9872,1709
9873,1708
9874,1793
9875,195
9876,1623
9877,1776
9878,1718
9879,1680
9880,1666
9881,1682
9882,1724
9883,1771
9884,1837
9885,1922
9886,1933
9887,1911
9888,1885
9889,1854
9890,1820
9891,1784
9892,1748
9893,1733
9894,1719
9895,1710
9896,1706
9897,1694
9898,1705
9899,1706
9900,1699
9901,1697
9902,1699
9903,1698
9904,1695
9905,1694
9906,336
9907,1349
9908,1762
9909,1715
9910,1681
9911,1669
9912,1685
9913,1734
9914,1769
9915,1808
9916,1877
9917,1895
9918,1883
9919,1855
9920,1814
9921,1777
9922,1741
9923,1713
9924,1699
9925,1690
9926,1682
9927,1679
9928,1679
9929,1683
9930,1681
9931,1680
9932,1680
9933,1680
9934,1680
9935,1686
9936,1691
9937,1278
9938,974
9939,1742
9940,1699
9941,1637
9942,1616
9943,1643
9944,1712
9945,1773
9946,1840
9947,1938
9948,1977
9949,1952
9950,1907
9951,1870
9952,1814
9953,1762
9954,1728
9955,1710
9956,1697
9957,1707
9958,1712
9959,1714
9960,1712
9961,1707
9962,1703
9963,1707
9964,1706
9965,1703
9966,1703
9967,1693
9968,2654
9969,571
9970,1696
9971,1691
9972,1602
9973,1567
9974,1587
9975,1664
9976,1745
9977,1863
9978,2020
9979,2085
9980,2035
9981,1951
9982,1871
9983,1810
9984,1763
9985,1732
9986,1710
9987,1693
9988,1695
9989,1703
9990,1703
9991,1698
9992,1696
9993,1693
9994,1695
9995,1695
9996,1694
9997,1695
9998,1697
9999,1703
10000,158
10001,1590
10002,1701
10003,1589
10004,1529
10005,1535
10006,1617
10007,1698
10008,1829
10009,2026
10010,2132
10011,2075
10012,1954
10013,1869
10014,1799
10015,1746
10016,1710
10017,1680
10018,1680
10019,1681
10020,1685
10021,1682
10022,1680
10023,1675
10024,1678
10025,1679
10026,1681
10027,1686
10028,1698
10029,1705
10030,1701
10031,473
10032,1278
10033,1717
10034,1563
10035,1458
10036,1443
10037,1520
10038,1613
10039,1756
10040,2045
10041,2223
10042,2151
10043,2045
10044,1957
10045,1890
10046,1825
10047,1762
10048,1725
10049,1711
10050,1696
10051,1695
10052,1693
10053,1686
10054,1681
10055,1680
10056,1686
10057,1687
10058,1689
10059,1694
10060,1697
10061,1692
10062,1645
10063,856
10064,1709
10065,1557
10066,1411
10067,1373
10068,1424
10069,1515
10070,1687
10071,2063
10072,2250
10073,2170
10074,2061
10075,1986
10076,1924
10077,1850
10078,1795
10079,1743
10080,1697
10081,1679
10082,1679
10083,1685
10084,1683
10085,1680
10086,1680
10087,1681
10088,1680
10089,1680
10090,1679
10091,1680
10092,1681
10093,2174
10094,347
10095,1644
10096,1673
10097,1532
10098,1468
10099,1493
10100,1533
10101,1682
10102,2103
10103,2237
10104,2076
10105,1949
10106,1879
10107,1846
10108,1805
10109,1770
10110,1729
10111,1705
10112,1696
10113,1695
10114,1697
10115,1693
10116,1685
10117,1686
10118,1680
10119,1683
10120,1694
10121,1689
10122,1689
10123,1687
10124,1691
10125,95
10126,1488
10127,1722
10128,1574
10129,1475
10130,1486
10131,1505
10132,1605
10133,2084
10134,2234
10135,2064
10136,1953
10137,1899
10138,1874
10139,1839
10140,1790
10141,1740
10142,1712
10143,1702
10144,1701
10145,1705
10146,1705
10147,1701
10148,1696
10149,1698
10150,1699
10151,1699
10152,1695
10153,1693
10154,1693
10155,1696
10156,483
10157,1268
10158,1737
10159,1583
10160,1456
10161,1457
10162,1467
10163,1523
10164,2027
10165,2220
10166,2064
10167,1994
10168,1980
10169,1961
10170,1901
10171,1814
10172,1750
10173,1723
10174,1712
10175,1712
10176,1711
10177,1711
10178,1708
10179,1703
10180,1702
10181,1701
10182,1697
10183,1692
10184,1691
10185,1693
10186,1698
10187,1642
10188,864
10189,1730
10190,1638
10191,1488
10192,1463
10193,1488
10194,1478
10195,1953
10196,2213
10197,2065
10198,1983
10199,1969
10200,1938
10201,1872
10202,1790
10203,1733
10204,1707
10205,1695
10206,1691
10207,1691
10208,1690
10209,1683
10210,1680
10211,1679
10212,1680
10213,1686
10214,1686
10215,1681
10216,1681
10217,1684
10218,2158
10219,383
10220,1615
10221,1626
10222,1447
10223,1399
10224,1431
10225,1389
10226,1791
10227,2160
10228,2047
10229,1965
10230,1954
10231,1943
10232,1904
10233,1829
10234,1762
10235,1714
10236,1696
10237,1695
10238,1699
10239,1698
10240,1687
10241,1680
10242,1674
10243,1678
10244,1684
10245,1707
10246,1710
10247,1697
10248,1691
10249,1693
10250,129
10251,1488
10252,1724
10253,1563
10254,1459
10255,1482
10256,1411
10257,1705
10258,2202
10259,2122
10260,1987
10261,1954
10262,1937
10263,1889
10264,1819
10265,1757
10266,1726
10267,1701
10268,1706
10269,1706
10270,1705
10271,1701
10272,1695
10273,1694
10274,1695
10275,1697
10276,1693
10277,1694
10278,1697
10279,1697
10280,1698
10281,845
10282,1126
10283,1738
10284,1623
10285,1488
10286,1487
10287,1424
10288,1535
10289,2134
10290,2169
10291,1995
10292,1938
10293,1936
10294,1904
10295,1842
10296,1780
10297,1741
10298,1722
10299,1716
10300,1717
10301,1714
10302,1710
10303,1703
10304,1695
10305,1697
10306,1691
10307,1689
10308,1687
10309,1687
10310,1691
10311,1687
10312,1949
10313,813
10314,1680
10315,1600
10316,1441
10317,1443
10318,1416
10319,1424
10320,2037
10321,2192
10322,2018
10323,1946
10324,1953
10325,1929
10326,1857
10327,1783
10328,1739
10329,1720
10330,1712
10331,1710
10332,1709
10333,1707
10334,1701
10335,1699
10336,1697
10337,1699
10338,1708
10339,1707
10340,1707
10341,1709
10342,1697
10343,1785
10344,282
10345,1585
10346,1680
10347,1499
10348,1439
10349,1461
10350,1378
10351,1877
10352,2249
10353,2083
10354,1958
10355,1955
10356,1939
10357,1878
10358,1807
10359,1751
10360,1728
10361,1715
10362,1714
10363,1712
10364,1712
10365,1712
10366,1707
10367,1697
10368,1687
10369,1681
10370,1674
10371,1667
10372,1664
10373,1661
10374,1658
10375,343
10376,1372
10377,1687
10378,1535
10379,1451
10380,1472
10381,1371
10382,1693
10383,2205
10384,2092
10385,1939
10386,1920
10387,1945
10388,1904
10389,1823
10390,1759
10391,1733
10392,1718
10393,1713
10394,1713
10395,1712
10396,1712
10397,1703
10398,1701
10399,1706
10400,1705
10401,1703
10402,1685
10403,1680
10404,1676
10405,1667
10406,1042
10407,1074
10408,1709
10409,1599
10410,1463
10411,1485
10412,1408
10413,1526
10414,2145
10415,2150
10416,1975
10417,1927
10418,1927
10419,1903
10420,1830
10421,1762
10422,1730
10423,1713
10424,1708
10425,1709
10426,1706
10427,1707
10428,1702
10429,1699
10430,1701
10431,1699
10432,1693
10433,1683
10434,1678
10435,1675
10436,1670
10437,1662
10438,1667
10439,1673
10440,1675
10441,1679
10442,1682
10443,1686
10444,1691
10445,1697
10446,1696
10447,1699
10448,1702
10449,1702
10450,1703
10451,1707
10452,1706
10453,1709
10454,1710
10455,1710
10456,1712
10457,1713
10458,1714
10459,1715
10460,1713
10461,1715
10462,1707
10463,1702
10464,1695
10465,1690
10466,1680
10467,1690
10468,1693
10469,1698
10470,1698
10471,1701
10472,1707
10473,1710
10474,1711
10475,1709
10476,1709
10477,1712
10478,1712
10479,1713
10480,1713
10481,1714
10482,1715
10483,1717
10484,1719
10485,1718
10486,1722
10487,1722
10488,1719
10489,1725
10490,1725
10491,1725
10492,1714
10493,1714
10494,1711
10495,1707
10496,1698
10497,1685
10498,1691
10499,1696
10500,1697
10501,1698
10502,1700
10503,1702
10504,1702
10505,1702
10506,1707
10507,1706
10508,1708
10509,1709
10510,1707
10511,1707
10512,1709
10513,1711
10514,1712
10515,1712
10516,1712
10517,1712
10518,1697
10519,1696
10520,1691
10521,1686
10522,1685
10523,1681
10524,1681
10525,1679
10526,1679
10527,1667
10528,1661
10529,1674
10530,1680
10531,1685
10532,1690
10533,1691
10534,1693
10535,1695
10536,1697
10537,1699
10538,1705
10539,1709
10540,1710
10541,1711
10542,1712
10543,1714
10544,1716
10545,1717
10546,1716
10547,1719
10548,1723
10549,1723
10550,1725
10551,1723
10552,1713
10553,1709
10554,1706
10555,1698
10556,1693
10557,1702
10558,1707
10559,1711
10560,1709
10561,1712
10562,1712
10563,1712
10564,1714
10565,1714
10566,1717
10567,1709
10568,1719
10569,1717
10570,1718
10571,1722
10572,1725
10573,1723
10574,1725
10575,1727
10576,1727
10577,1729
10578,1733
10579,1731
10580,1730
10581,1729
10582,1718
10583,1714
10584,1712
10585,1709
10586,1699
10587,1687
10588,1701
10589,1705
10590,1707
10591,1711
10592,1712
10593,1715
10594,1714
10595,1717
10596,1723
10597,1723
10598,1726
10599,1729
10600,1728
10601,1727
10602,1727
10603,1727
10604,1726
10605,1728
10606,1726
10607,1725
10608,1722
10609,1719
10610,1723
10611,1723
10612,1712
10613,1705
10614,1697
10615,1694
10616,1682
10617,1672
10618,1682
10619,1690
10620,1698
10621,1697
10622,1701
10623,1705
10624,1710
10625,1712
10626,1713
10627,1715
10628,1717
10629,1721
10630,1723
10631,1725
10632,1725
10633,1725
10634,1727
10635,1726
10636,1726
10637,1728
10638,1727
10639,1728
10640,1729
10641,1730
10642,1717
10643,1713
10644,1710
10645,1706
10646,1695
10647,1685
10648,1680
10649,1691
10650,1696
10651,1698
10652,1702
10653,1708
10654,1711
10655,1712
10656,1715
10657,1718
10658,1722
10659,1721
10660,1724
10661,1726
10662,1725
10663,1727
10664,1728
10665,1728
10666,1723
10667,1726
10668,1712
10669,1710
10670,1702
10671,1699
10672,1695
10673,1693
10674,1690
10675,1686
10676,1680
10677,1669
10678,1662
10679,1677
10680,1680
10681,1683
10682,1691
10683,1695
10684,1699
10685,1702
10686,1705
10687,1710
10688,1711
10689,1712
10690,1713
10691,1713
10692,1717
10693,1719
10694,1721
10695,1719
10696,1723
10697,1724
10698,1723
10699,1726
10700,1725
10701,1725
10702,1714
10703,1709
10704,1702
10705,1696
10706,1686
10707,1693
10708,1695
10709,1696
10710,1699
10711,1699
10712,1703
10713,1705
10714,1705
10715,1708
10716,1708
10717,1710
10718,1705
10719,1709
10720,1711
10721,1712
10722,1714
10723,1714
10724,1715
10725,1719
10726,1718
10727,1721
10728,1726
10729,1723
10730,1725
10731,1726
10732,1714
10733,1712
10734,1708
10735,1700
10736,1691
10737,1680
10738,1687
10739,1692
10740,1694
10741,1698
10742,1705
10743,1708
10744,1710
10745,1712
10746,1713
10747,1714
10748,1717
10749,1719
10750,1720
10751,1722
10752,1723
10753,1725
10754,1724
10755,1728
10756,1726
10757,1727
10758,1729
10759,1729
10760,1730
10761,1734
10762,1725
10763,1719
10764,1712
10765,1708
10766,1697
10767,1707
10768,1709
10769,1711
10770,1712
10771,1713
10772,1718
10773,1722
10774,1722
10775,1723
10776,1726
10777,1725
10778,1727
10779,1728
10780,1728
10781,1728
10782,1730
10783,1730
10784,1730
10785,1731
10786,1730
10787,1731
10788,1729
10789,1729
10790,1733
10791,1731
10792,1723
10793,1717
10794,1712
10795,1711
10796,1703
10797,1690
10798,1703
10799,1707
10800,1709
10801,1708
10802,1709
10803,1706
10804,1710
10805,1706
10806,1709
10807,1711
10808,1710
10809,1711
10810,1711
10811,1712
10812,1712
10813,1711
10814,1712
10815,1712
10816,1712
10817,1714
10818,1705
10819,1699
10820,1698
10821,1694
10822,1691
10823,1690
10824,1685
10825,1685
10826,1680
10827,1674
10828,1669
10829,1681
10830,1689
10831,1694
10832,1697
10833,1699
10834,1701
10835,1702
10836,1707
10837,1711
10838,1712
10839,1713
10840,1715
10841,1714
10842,1719
10843,1721
10844,1719
10845,1721
10846,1723
10847,1724
10848,1728
10849,1726
10850,1726
10851,1727
10852,1714
10853,1711
10854,1710
10855,1707
10856,1700
10857,1712
10858,1712
10859,1713
10860,1715
10861,1712
10862,1710
10863,1712
10864,1713
10865,1714
10866,1718
10867,1712
10868,1716
10869,1721
10870,1724
10871,1724
10872,1727
10873,1727
10874,1727
10875,1730
10876,1728
10877,1728
10878,1728
10879,1729
10880,1728
10881,1730
10882,1721
10883,1713
10884,1710
10885,1707
10886,1696
10887,1689
10888,1698
10889,1701
10890,1703
10891,1707
10892,1709
10893,1710
10894,1712
10895,1714
10896,1715
10897,1719
10898,1719
10899,1723
10900,1723
10901,1723
10902,1723
10903,1719
10904,1719
10905,1722
10906,1722
10907,1721
10908,1719
10909,1719
10910,1722
10911,1719
10912,1710
10913,1706
10914,1699
10915,1693
10916,1690
10917,1700
10918,1689
10919,1699
10920,1702
10921,1705
10922,1709
10923,1709
10924,1712
10925,1715
10926,1715
10927,1718
10928,1717
10929,1719
10930,1725
10931,1723
10932,1726
10933,1727
10934,1728
10935,1728
10936,1730
10937,1729
10938,1730
10939,1732
10940,1730
10941,1731
10942,1723
10943,1715
10944,1714
10945,1710
10946,1702
10947,1687
10948,1694
10949,1699
10950,1703
10951,1707
10952,1711
10953,1712
10954,1712
10955,1714
10956,1717
10957,1718
10958,1719
10959,1722
10960,1724
10961,1727
10962,1727
10963,1727
10964,1728
10965,1730
10966,1730
10967,1721
10968,1713
10969,1710
10970,1707
10971,1704
10972,1697
10973,1696
10974,1694
10975,1691
10976,1696
10977,1677
10978,1686
10979,1689
10980,1693
10981,1700
10982,1702
10983,1707
10984,1708
10985,1711
10986,1712
10987,1713
10988,1714
10989,1717
10990,1719
10991,1722
10992,1723
10993,1725
10994,1726
10995,1728
10996,1726
10997,1729
10998,1729
10999,1731
11000,1730
11001,1728
11002,1715
11003,1711
11004,1701
11005,1696
11006,1696
11007,1694
11008,1696
11009,1695
11010,1699
11011,1699
11012,1701
11013,1702
11014,1703
11015,1705
11016,1706
11017,1708
11018,1709
11019,1699
11020,1712
11021,1712
11022,1714
11023,1715
11024,1716
11025,1717
11026,1717
11027,1718
11028,1720
11029,1722
11030,1723
11031,1724
11032,1714
11033,1712
11034,1707
11035,1702
11036,1694
11037,1681
11038,1686
11039,1693
11040,1694
11041,1699
11042,1702
11043,1706
11044,1711
11045,1712
11046,1714
11047,1712
11048,1716
11049,1718
11050,1721
11051,1722
11052,1722
11053,1723
11054,1725
11055,1726
11056,1726
11057,1727
11058,1727
11059,1728
11060,1730
11061,1729
11062,1718
11063,1712
11064,1709
11065,1703
11066,1694
11067,1702
11068,1704
11069,1709
11070,1712
11071,1715
11072,1719
11073,1719
11074,1725
11075,1722
11076,1725
11077,1726
11078,1727
11079,1728
11080,1729
11081,1730
11082,1731
11083,1731
11084,1730
11085,1731
11086,1731
11087,1730
11088,1733
11089,1734
11090,1733
11091,1734
11092,1725
11093,1718
11094,1712
11095,1709
11096,1703
11097,1716
11098,1718
11099,1717
11100,1720
11101,1717
11102,1717
11103,1717
11104,1717
11105,1719
11106,1722
11107,1719
11108,1718
11109,1719
11110,1719
11111,1721
11112,1718
11113,1719
11114,1722
11115,1719
11116,1722
11117,1723
11118,1709
11119,1707
11120,1701
11121,1698
11122,1694
11123,1693
11124,1685
11125,1682
11126,1680
11127,1671
11128,1665
11129,1659
11130,1670
11131,1675
11132,1680
11133,1680
11134,1690
11135,1692
11136,1696
11137,1702
11138,1704
11139,1710
11140,1712
11141,1712
11142,1714
11143,1718
11144,1723
11145,1724
11146,1723
11147,1723
11148,1723
11149,1724
11150,1723
11151,1727
11152,1714
11153,1710
11154,1705
11155,1698
11156,1693
11157,1702
11158,1707
11159,1710
11160,1713
11161,1713
11162,1715
11163,1715
11164,1720
11165,1721
11166,1722
11167,1712
11168,1719
11169,1725
11170,1727
11171,1726
11172,1727
11173,1728
11174,1731
11175,1731
11176,1731
11177,1732
11178,1731
11179,1731
11180,1734
11181,1733
11182,1723
11183,1714
11184,1712
11185,1706
11186,1699
11187,1683
11188,1698
11189,1702
11190,1708
11191,1711
11192,1712
11193,1713
11194,1715
11195,1719
11196,1721
11197,1721
11198,1723
11199,1725
11200,1727
11201,1728
11202,1727
11203,1726
11204,1725
11205,1722
11206,1722
11207,1722
11208,1722
11209,1722
11210,1721
11211,1717
11212,1709
11213,1701
11214,1695
11215,1687
11216,1683
11217,1689
11218,1686
11219,1697
11220,1699
11221,1702
11222,1707
11223,1710
11224,1714
11225,1714
11226,1717
11227,1718
11228,1724
11229,1723
11230,1727
11231,1727
11232,1727
11233,1727
11234,1728
11235,1729
11236,1729
11237,1731
11238,1731
11239,1732
11240,1731
11241,1734
11242,1722
11243,1718
11244,1712
11245,1710
11246,1702
11247,1693
11248,1695
11249,1697
11250,1702
11251,1705
11252,1703
11253,1707
11254,1711
11255,1714
11256,1716
11257,1717
11258,1719
11259,1721
11260,1719
11261,1723
11262,1726
11263,1728
11264,1728
11265,1728
11266,1728
11267,1717
11268,1712
11269,1711
11270,1706
11271,1701
11272,1697
11273,1694
11274,1691
11275,1686
11276,1682
11277,1674
11278,1685
11279,1690
11280,1693
11281,1697
11282,1701
11283,1703
11284,1707
11285,1711
11286,1712
11287,1712
11288,1713
11289,1716
11290,1719
11291,1719
11292,1723
11293,1725
11294,1725
11295,1725
11296,1726
11297,1728
11298,1728
11299,1731
11300,1729
11301,1731
11302,1716
11303,1712
11304,1706
11305,1701
11306,1695
11307,1701
11308,1699
11309,1701
11310,1703
11311,1705
11312,1706
11313,1706
11314,1707
11315,1711
11316,1709
11317,1710
11318,1696
11319,1712
11320,1712
11321,1715
11322,1715
11323,1718
11324,1719
11325,1719
11326,1722
11327,1727
11328,1726
11329,1730
11330,1728
11331,1729
11332,1728
11333,1713
11334,1710
11335,1705
11336,1697
11337,1689
11338,1694
11339,1696
11340,1699
11341,1707
11342,1707
11343,1712
11344,1712
11345,1715
11346,1717
11347,1721
11348,1725
11349,1723
11350,1723
11351,1723
11352,1723
11353,1725
11354,1726
11355,1725
11356,1727
11357,1728
11358,1730
11359,1729
11360,1733
11361,1730
11362,1721
11363,1715
11364,1712
11365,1707
11366,1698
11367,1708
11368,1709
11369,1712
11370,1712
11371,1715
11372,1714
11373,1717
11374,1722
11375,1725
11376,1727
11377,1727
11378,1726
11379,1728
11380,1728
11381,1731
11382,1729
11383,1732
11384,1730
11385,1729
11386,1730
11387,1732
11388,1736
11389,1733
11390,1735
11391,1738
11392,1726
11393,1718
11394,1713
11395,1711
11396,1702
11397,1694
11398,1707
11399,1709
11400,1712
11401,1711
11402,1712
11403,1713
11404,1712
11405,1714
11406,1712
11407,1713
11408,1715
11409,1717
11410,1717
11411,1719
11412,1719
11413,1719
11414,1715
11415,1716
11416,1717
11417,1715
11418,1708
11419,1701
11420,1699
11421,1695
11422,1692
11423,1687
11424,1685
11425,1683
11426,1679
11427,1674
11428,1674
11429,1682
11430,1684
11431,1692
11432,1694
11433,1697
11434,1702
11435,1705
11436,1709
11437,1939
11438,285
11439,1675
11440,1803
11441,1726
11442,1681
11443,1671
11444,1681
11445,1713
11446,1742
11447,1765
11448,1844
11449,1921
11450,1926
11451,1919
11452,1899
11453,1867
11454,1827
11455,1782
11456,1746
11457,1738
11458,1728
11459,1727
11460,1724
11461,1724
11462,1723
11463,1721
11464,1719
11465,1715
11466,1715
11467,1709
11468,1714
11469,162
11470,1469
11471,1795
11472,1739
11473,1695
11474,1680
11475,1681
11476,1711
11477,1743
11478,1782
11479,1877
11480,1936
11481,1915
11482,1885
11483,1856
11484,1822
11485,1782
11486,1745
11487,1715
11488,1714
11489,1710
11490,1711
11491,1712
11492,1713
11493,1712
11494,1712
11495,1711
11496,1710
11497,1712
11498,1712
11499,1710
11500,1125
11501,1050
11502,1749
11503,1694
11504,1634
11505,1604
11506,1605
11507,1647
11508,1711
11509,1785
11510,1934
11511,2013
11512,1979
11513,1935
11514,1875
11515,1823
11516,1774
11517,1730
11518,1707
11519,1702
11520,1698
11521,1698
11522,1702
11523,1707
11524,1706
11525,1708
11526,1703
11527,1712
11528,1714
11529,1712
11530,1708
11531,2528
11532,656
11533,1712
11534,1702
11535,1623
11536,1587
11537,1596
11538,1648
11539,1719
11540,1813
11541,1986
11542,2041
11543,2010
11544,1957
11545,1891
11546,1835
11547,1770
11548,1726
11549,1709
11550,1701
11551,1700
11552,1699
11553,1706
11554,1709
11555,1702
11556,1698
11557,1702
11558,1711
11559,1710
11560,1705
11561,1704
11562,1749
11563,183
11564,1602
11565,1712
11566,1602
11567,1535
11568,1531
11569,1587
11570,1660
11571,1771
11572,1968
11573,2086
11574,2059
11575,1962
11576,1877
11577,1807
11578,1750
11579,1719
11580,1701
11581,1696
11582,1694
11583,1698
11584,1706
11585,1705
11586,1697
11587,1695
11588,1695
11589,1698
11590,1694
11591,1693
11592,1696
11593,1698
11594,391
11595,1322
11596,1727
11597,1600
11598,1520
11599,1505
11600,1565
11601,1648
11602,1770
11603,1986
11604,2143
11605,2107
11606,1987
11607,1920
11608,1859
11609,1795
11610,1744
11611,1715
11612,1703
11613,1696
11614,1697
11615,1702
11616,1698
11617,1691
11618,1683
11619,1684
11620,1687
11621,1691
11622,1690
11623,1694
11624,1690
11625,1407
11626,938
11627,1717
11628,1602
11629,1487
11630,1451
11631,1490
11632,1563
11633,1696
11634,1981
11635,2190
11636,2139
11637,2025
11638,1939
11639,1897
11640,1839
11641,1776
11642,1744
11643,1719
11644,1706
11645,1703
11646,1706
11647,1705
11648,1697
11649,1694
11650,1695
11651,1696
11652,1695
11653,1694
11654,1694
11655,1696
11656,2368
11657,426
11658,1663
11659,1635
11660,1461
11661,1403
11662,1420
11663,1486
11664,1621
11665,1985
11666,2240
11667,2179
11668,2071
11669,2014
11670,1968
11671,1904
11672,1836
11673,1776
11674,1733
11675,1709
11676,1698
11677,1706
11678,1707
11679,1701
11680,1698
11681,1695
11682,1695
11683,1696
11684,1693
11685,1693
11686,1693
11687,1695
11688,125
11689,1558
11690,1702
11691,1535
11692,1454
11693,1450
11694,1474
11695,1584
11696,2006
11697,2220
11698,2091
11699,2000
11700,1954
11701,1914
11702,1862
11703,1810
11704,1757
11705,1714
11706,1699
11707,1697
11708,1699
11709,1692
11710,1687
11711,1681
11712,1682
11713,1684
11714,1680
11715,1680
11716,1680
11717,1681
11718,1670
11719,591
11720,1230
11721,1682
11722,1503
11723,1371
11724,1350
11725,1365
11726,1421
11727,1904
11728,2213
11729,2109
11730,2017
11731,2001
11732,1985
11733,1920
11734,1837
11735,1757
11736,1711
11737,1697
11738,1696
11739,1701
11740,1701
11741,1696
11742,1692
11743,1691
11744,1694
11745,1692
11746,1691
11747,1691
11748,1693
11749,1693
11750,1765
11751,821
11752,1719
11753,1649
11754,1503
11755,1449
11756,1434
11757,1412
11758,1893
11759,2238
11760,2105
11761,1995
11762,1984
11763,1969
11764,1911
11765,1828
11766,1765
11767,1725
11768,1715
11769,1712
11770,1712
11771,1712
11772,1706
11773,1698
11774,1701
11775,1702
11776,1701
11777,1702
11778,1701
11779,1701
11780,1703
11781,2403
11782,416
11783,1664
11784,1687
11785,1519
11786,1453
11787,1429
11788,1357
11789,1779
11790,2205
11791,2099
11792,1989
11793,1975
11794,1968
11795,1931
11796,1856
11797,1780
11798,1737
11799,1719
11800,1712
11801,1710
11802,1707
11803,1701
11804,1698
11805,1691
11806,1692
11807,1694
11808,1690
11809,1687
11810,1685
11811,1687
11812,1677
11813,203
11814,1492
11815,1696
11816,1519
11817,1431
11818,1438
11819,1341
11820,1635
11821,2167
11822,2121
11823,1995
11824,1981
11825,1983
11826,1936
11827,1861
11828,1781
11829,1738
11830,1717
11831,1712
11832,1709
11833,1700
11834,1698
11835,1693
11836,1690
11837,1692
11838,1699
11839,1709
11840,1703
11841,1709
11842,1703
11843,1695
11844,762
11845,1169
11846,1714
11847,1590
11848,1463
11849,1462
11850,1386
11851,1477
11852,2103
11853,2169
11854,2006
11855,1962
11856,1982
11857,1949
11858,1870
11859,1792
11860,1748
11861,1726
11862,1717
11863,1713
11864,1713
11865,1712
11866,1708
11867,1692
11868,1685
11869,1680
11870,1671
11871,1664
11872,1665
11873,1660
11874,1654
11875,2115
11876,719
11877,1660
11878,1628
11879,1490
11880,1471
11881,1424
11882,1385
11883,1995
11884,2205
11885,2026
11886,1930
11887,1931
11888,1909
11889,1855
11890,1782
11891,1742
11892,1723
11893,1711
11894,1706
11895,1706
11896,1707
11897,1701
11898,1699
11899,1702
11900,1706
11901,1707
11902,1687
11903,1680
11904,1671
11905,1670
11906,2069
11907,400
11908,1616
11909,1691
11910,1535
11911,1488
11912,1472
11913,1354
11914,1867
11915,2221
11916,2065
11917,1947
11918,1931
11919,1914
11920,1859
11921,1792
11922,1744
11923,1723
11924,1712
11925,1711
11926,1712
11927,1712
11928,1709
11929,1706
11930,1701
