Time(ms),Raw_ADC
0,1867
1,1856
2,1858
3,1851
4,1856
5,1853
6,1856
7,1860
8,1862
9,1865
10,1869
11,1871
12,1868
13,1871
14,1871
15,1869
16,1865
17,1868
18,1860
19,1856
20,1856
21,1856
22,1855
23,1856
24,1851
25,1855
26,1856
27,1861
28,1865
29,1871
30,1867
31,1871
32,1870
33,1869
34,1869
35,1862
36,1855
37,1857
38,1856
39,1858
40,1854
41,1862
42,1863
43,1869
44,1866
45,1871
46,1870
47,1871
48,1870
49,1866
50,1867
51,1859
52,1856
53,1853
54,1849
55,1849
56,1846
57,1855
58,1855
59,1856
60,1857
61,1869
62,1868
63,1871
64,1872
65,1869
66,1863
67,1866
68,1861
69,1860
70,1855
71,1857
72,1853
73,1855
74,1856
75,1856
76,1866
77,1867
78,1870
79,1866
80,1872
81,1868
82,1867
83,1867
84,1856
85,1854
86,1850
87,1849
88,1847
89,1854
90,1861
91,1856
92,1858
93,1863
94,1863
95,1867
96,1866
97,1866
98,1871
99,1858
100,1870
101,1855
102,1856
103,1853
104,1853
105,1855
106,1856
107,1856
108,1861
109,1862
110,1861
111,1868
112,1869
113,1867
114,1865
115,1860
116,1859
117,1856
118,1853
119,1850
120,1849
121,1853
122,1854
123,1859
124,1861
125,1862
126,1869
127,1863
128,1868
129,1867
130,1869
131,1865
132,1866
133,1865
134,1863
135,1855
136,1854
137,1853
138,1853
139,1852
140,1852
141,1856
142,1857
143,1866
144,1856
145,1860
146,1858
147,1861
148,1862
149,1861
150,1866
151,1863
152,1856
153,1852
154,1852
155,1852
156,1851
157,1856
158,1856
159,1871
160,1867
161,1870
162,1867
163,1869
164,1872
165,1867
166,1867
167,1867
168,1857
169,1854
170,1850
171,1855
172,1847
173,1856
174,1857
175,1853
176,1850
177,1847
178,1856
179,1865
180,1871
181,1871
182,1866
183,1867
184,1866
185,1861
186,1856
187,1853
188,1842
189,1840
190,1853
191,1858
192,1866
193,1870
194,1868
195,1870
196,1863
197,1862
198,1859
199,1858
200,1867
201,1862
202,1860
203,1856
204,1860
205,1858
206,1848
207,1839
208,1823
209,1829
210,1840
211,1855
212,1870
213,1867
214,1867
215,1857
216,1860
217,1859
218,1855
219,1858
220,1856
221,1855
222,1854
223,1860
224,1866
225,1864
226,1861
227,1869
228,1866
229,1871
230,1871
231,1871
232,1869
233,1860
234,1856
235,1854
236,1846
237,1847
238,1847
239,1845
240,1851
241,1857
242,1854
243,1860
244,1859
245,1863
246,1866
247,1866
248,1870
249,1866
250,1867
251,1856
252,1854
253,1850
254,1852
255,1850
256,1851
257,1850
258,1857
259,1856
260,1867
261,1870
262,1866
263,1865
264,1861
265,1858
266,1854
267,1855
268,1856
269,1855
270,1856
271,1849
272,1851
273,1849
274,1855
275,1862
276,1862
277,1866
278,1871
279,1865
280,1866
281,1870
282,1866
283,1864
284,1862
285,1856
286,1851
287,1856
288,1854
289,1853
290,1863
291,1856
292,1856
293,1859
294,1855
295,1856
296,1856
297,1859
298,1863
299,1870
300,1866
301,1851
302,1856
303,1854
304,1852
305,1840
306,1851
307,1858
308,1862
309,1866
310,1863
311,1872
312,1871
313,1869
314,1861
315,1856
316,1861
317,1861
318,1853
319,1849
320,1853
321,1853
322,1847
323,1855
324,1851
325,1851
326,1856
327,1857
328,1857
329,1859
330,1859
331,1867
332,1865
333,1869
334,1858
335,1857
336,1855
337,1854
338,1855
339,1847
340,1856
341,1867
342,1864
343,1867
344,1863
345,1869
346,1868
347,2855
348,1181
349,2103
350,2416
351,2587
352,2773
353,2854
354,2722
355,2289
356,1427
357,640
358,707
359,1280
360,1631
361,1744
362,1806
363,1869
364,1966
365,2041
366,2119
367,2118
368,2030
369,1908
370,1760
371,1618
372,1514
373,1477
374,1516
375,1591
376,1668
377,1729
378,1968
379,846
380,2053
381,2544
382,2740
383,2874
384,2800
385,2526
386,1874
387,800
388,447
389,1055
390,1535
391,1803
392,1915
393,2001
394,2080
395,2156
396,2177
397,2160
398,2066
399,1920
400,1792
401,1664
402,1591
403,1574
404,1621
405,1685
406,1742
407,1800
408,1841
409,1872
410,624
411,1987
412,2625
413,2863
414,2861
415,2714
416,2404
417,1627
418,656
419,801
420,1374
421,1697
422,1843
423,1923
424,1978
425,2032
426,2119
427,2144
428,2112
429,2002
430,1872
431,1741
432,1629
433,1569
434,1577
435,1636
436,1709
437,1775
438,1820
439,1847
440,1874
441,542
442,1855
443,2609
444,2890
445,2864
446,2705
447,2336
448,1387
449,605
450,1009
451,1505
452,1727
453,1840
454,1921
455,1979
456,2055
457,2134
458,2148
459,2091
460,1968
461,1831
462,1702
463,1600
464,1535
465,1582
466,1664
467,1744
468,1810
469,1847
470,1879
471,1904
472,897
473,1707
474,2539
475,2896
476,2910
477,2750
478,2288
479,1292
480,635
481,1143
482,1614
483,1785
484,1866
485,1923
486,1951
487,2013
488,2096
489,2114
490,2059
491,1950
492,1826
493,1712
494,1627
495,1608
496,1642
497,1714
498,1777
499,1850
500,1872
501,1871
502,1886
503,1680
504,1501
505,2438
506,2873
507,2922
508,2827
509,2382
510,1275
511,496
512,1076
513,1596
514,1765
515,1839
516,1914
517,1968
518,2032
519,2100
520,2097
521,2027
522,1919
523,1814
524,1727
525,1673
526,1655
527,1680
528,1714
529,1759
530,1821
531,1870
532,1898
533,1919
534,2855
535,1264
536,2322
537,2863
538,2954
539,2895
540,2492
541,1291
542,416
543,986
544,1535
545,1718
546,1824
547,1917
548,1981
549,2023
550,2064
551,2070
552,2004
553,1909
554,1802
555,1712
556,1638
557,1629
558,1679
559,1735
560,1807
561,1843
562,1872
563,1894
564,1904
565,2654
566,1075
567,2250
568,2901
569,2974
570,2895
571,2437
572,1200
573,403
574,1076
575,1602
576,1762
577,1856
578,1922
579,1971
580,2034
581,2096
582,2096
583,2032
584,1914
585,1795
586,1686
587,1615
588,1600
589,1633
590,1714
591,1787
592,1825
593,1872
594,1893
595,1910
596,1915
597,680
598,2074
599,2845
600,3043
601,2951
602,2538
603,1354
604,433
605,987
606,1526
607,1714
608,1829
609,1901
610,1952
611,2016
612,2064
613,2069
614,2030
615,1943
616,1837
617,1738
618,1639
619,1585
620,1606
621,1664
622,1744
623,1811
624,1851
625,1883
626,1904
627,1918
628,482
629,1909
630,2739
631,3106
632,2982
633,2559
634,1415
635,415
636,955
637,1562
638,1741
639,1797
640,1893
641,1959
642,2018
643,2085
644,2109
645,2084
646,1984
647,1863
648,1742
649,1635
650,1588
651,1599
652,1664
653,1734
654,1792
655,1830
656,1856
657,1891
658,1898
659,620
660,1760
661,2625
662,3058
663,3007
664,2640
665,1534
666,506
667,998
668,1562
669,1744
670,1817
671,1881
672,1936
673,1999
674,2074
675,2107
676,2093
677,1998
678,1872
679,1739
680,1630
681,1580
682,1599
683,1674
684,1748
685,1806
686,1818
687,1841
688,1887
689,1911
690,1312
691,1607
692,2512
693,2991
694,2960
695,2694
696,1682
697,501
698,912
699,1522
700,1747
701,1827
702,1907
703,1968
704,2026
705,2086
706,2112
707,2091
708,2013
709,1881
710,1755
711,1649
712,1585
713,1600
714,1670
715,1742
716,1808
717,1849
718,1872
719,1893
720,1904
721,2448
722,1356
723,2373
724,3010
725,3082
726,2800
727,1907
728,545
729,773
730,1472
731,1742
732,1788
733,1869
734,1941
735,2009
736,2080
737,2115
738,2096
739,2010
740,1891
741,1765
742,1660
743,1584
744,1574
745,1645
746,1721
747,1794
748,1840
749,1863
750,1885
751,1902
752,2726
753,1095
754,2247
755,2956
756,3067
757,2886
758,2045
759,640
760,743
761,1442
762,1737
763,1808
764,1890
765,1957
766,2010
767,2087
768,2113
769,2097
770,2015
771,1903
772,1767
773,1648
774,1577
775,1578
776,1629
777,1718
778,1793
779,1845
780,1881
781,1906
782,1908
783,1989
784,807
785,2117
786,2865
787,3061
788,2922
789,2160
790,733
791,656
792,1379
793,1725
794,1797
795,1886
796,1954
797,2018
798,2089
799,2119
800,2101
801,2042
802,1929
803,1810
804,1685
805,1585
806,1527
807,1585
808,1680
809,1773
810,1827
811,1869
812,1894
813,1912
814,1920
815,625
816,2042
817,2816
818,3120
819,2993
820,2320
821,905
822,530
823,1262
824,1669
825,1780
826,1856
827,1930
828,1994
829,2078
830,2128
831,2129
832,2069
833,1947
834,1808
835,1675
836,1579
837,1535
838,1602
839,1676
840,1751
841,1808
842,1852
843,1891
844,1914
845,1926
846,510
847,1838
848,2674
849,3070
850,2985
851,2432
852,1130
853,578
854,1219
855,1651
856,1777
857,1845
858,1920
859,1980
860,2063
861,2123
862,2140
863,2086
864,1968
865,1835
866,1689
867,1600
868,1535
869,1600
870,1665
871,1739
872,1798
873,1851
874,1888
875,1904
876,1922
877,964
878,1670
879,2559
880,3099
881,3031
882,2591
883,1360
884,496
885,1107
886,1610
887,1758
888,1830
889,1909
890,1978
891,2063
892,2107
893,2128
894,2085
895,1982
896,1853
897,1717
898,1611
899,1559
900,1586
901,1659
902,1744
903,1802
904,1846
905,1871
906,1894
907,1910
908,1895
909,1469
910,2443
911,3059
912,3066
913,2715
914,1572
915,507
916,1002
917,1566
918,1742
919,1798
920,1878
921,1957
922,2039
923,2116
924,2129
925,2094
926,1987
927,1872
928,1744
929,1627
930,1558
931,1600
932,1681
933,1769
934,1815
935,1829
936,1831
937,1869
938,1889
939,2921
940,1218
941,2307
942,2960
943,3106
944,2855
945,1825
946,578
947,875
948,1486
949,1737
950,1807
951,1880
952,1965
953,2032
954,2097
955,2123
956,2093
957,2004
958,1898
959,1765
960,1655
961,1579
962,1573
963,1627
964,1709
965,1789
966,1840
967,1879
968,1903
969,1916
970,1917
971,1909
972,1904
973,1904
974,1905
975,1904
976,1904
977,1898
978,1901
979,1891
980,1889
981,1888
982,1883
983,1878
984,1872
985,1866
986,1856
987,1853
988,1855
989,1859
990,1867
991,1871
992,1866
993,1869
994,1871
995,1872
996,1873
997,1875
998,1871
999,1865
1000,1863
1001,1865
1002,1853
1003,1851
1004,1855
1005,1852
1006,1841
1007,1862
1008,1856
1009,1856
1010,1863
1011,1863
1012,1873
1013,1872
1014,1870
1015,1865
1016,1860
1017,1859
1018,1853
1019,1856
1020,1846
1021,1853
1022,1850
1023,1850
1024,1854
1025,1861
1026,1866
1027,1866
1028,1870
1029,1868
1030,1865
1031,1867
1032,1859
1033,1860
1034,1865
1035,1855
1036,1853
1037,1849
1038,1854
1039,1851
1040,1855
1041,1855
1042,1852
1043,1856
1044,1851
1045,1853
1046,1855
1047,1856
1048,1858
1049,1857
1050,1856
1051,1852
1052,1844
1053,1850
1054,1851
1055,1851
1056,1847
1057,1858
1058,1854
1059,1856
1060,1855
1061,1866
1062,1871
1063,1867
1064,1872
1065,1873
1066,1872
1067,1870
1068,1869
1069,1866
1070,1854
1071,1855
1072,1870
1073,1857
1074,1855
1075,1862
1076,1855
1077,1851
1078,1854
1079,1869
1080,1876
1081,1858
1082,1826
1083,1821
1084,1840
1085,1843
1086,1849
1087,1854
1088,1856
1089,1854
1090,1861
1091,1867
1092,1863
1093,1865
1094,1871
1095,1872
1096,1873
1097,1878
1098,1874
1099,1872
1100,1872
1101,1869
1102,1867
1103,1858
1104,1852
1105,1855
1106,1855
1107,1856
1108,1862
1109,1865
1110,1866
1111,1872
1112,1871
1113,1871
1114,1871
1115,1869
1116,1867
1117,1869
1118,1862
1119,1856
1120,1857
1121,1857
1122,1854
1123,1853
1124,1857
1125,1857
1126,1859
1127,1862
1128,1863
1129,1860
1130,1862
1131,1865
1132,1865
1133,1866
1134,1852
1135,1850
1136,1844
1137,1838
1138,1847
1139,1847
1140,1845
1141,1847
1142,1854
1143,1857
1144,1863
1145,1862
1146,1859
1147,1863
1148,1865
1149,1862
1150,1863
1151,1859
1152,1855
1153,1850
1154,1850
1155,1851
1156,1847
1157,1849
1158,1855
1159,1857
1160,1858
1161,1861
1162,1867
1163,1867
1164,1861
1165,1857
1166,1858
1167,1856
1168,1855
1169,1856
1170,1854
1171,1853
1172,1853
1173,1850
1174,1854
1175,1858
1176,1859
1177,1859
1178,1865
1179,1862
1180,1866
1181,1865
1182,1866
1183,1869
1184,1863
1185,1856
1186,1856
1187,1851
1188,1853
1189,1851
1190,1850
1191,1858
1192,1858
1193,1866
1194,1859
1195,1862
1196,1862
1197,1863
1198,1869
1199,1865
1200,1863
1201,1858
1202,1856
1203,1850
1204,1854
1205,1855
1206,1855
1207,1853
1208,1855
1209,1856
1210,1862
1211,1862
1212,1869
1213,1866
1214,1867
1215,1867
1216,1862
1217,1867
1218,1855
1219,1856
1220,1854
1221,1853
1222,1851
1223,1851
1224,1850
1225,1855
1226,1857
1227,1855
1228,1862
1229,1861
1230,1862
1231,1867
1232,1862
1233,1859
1234,1860
1235,1855
1236,1853
1237,1850
1238,1853
1239,1853
1240,1856
1241,1857
1242,1861
1243,1862
1244,1863
1245,1865
1246,1868
1247,1866
1248,1867
1249,1865
1250,1863
1251,1859
1252,1856
1253,1855
1254,1851
1255,1846
1256,1850
1257,1856
1258,1855
1259,1851
1260,1859
1261,1866
1262,1865
1263,1863
1264,1867
1265,1865
1266,1869
1267,1863
1268,1861
1269,1857
1270,1856
1271,1856
1272,1854
1273,1856
1274,1858
1275,1861
1276,1867
1277,1867
1278,1869
1279,1868
1280,1866
1281,1870
1282,1867
1283,1863
1284,1857
1285,1856
1286,1853
1287,1849
1288,1850
1289,1856
1290,1855
1291,1858
1292,1861
1293,1865
1294,1861
1295,1865
1296,1866
1297,1867
1298,1867
1299,1862
1300,1863
1301,1859
1302,1856
1303,1854
1304,1855
1305,1856
1306,1855
1307,1856
1308,1857
1309,1857
1310,1858
1311,1867
1312,1868
1313,1866
1314,1862
1315,1865
1316,1857
1317,1857
1318,1856
1319,1856
1320,1856
1321,1854
1322,1855
1323,1854
1324,1856
1325,1857
1326,1862
1327,1865
1328,1866
1329,1869
1330,1867
1331,1869
1332,1865
1333,1863
1334,1858
1335,1856
1336,1854
1337,1853
1338,1856
1339,1857
1340,1858
1341,1859
1342,1858
1343,1867
1344,1861
1345,1859
1346,1862
1347,1862
1348,1862
1349,1857
1350,1856
1351,1853
1352,1856
1353,1857
1354,1856
1355,1855
1356,1856
1357,1856
1358,1859
1359,1856
1360,1863
1361,1863
1362,1862
1363,1866
1364,1869
1365,1869
1366,1868
1367,1867
1368,1861
1369,1859
1370,1855
1371,1856
1372,1859
1373,1856
1374,1854
1375,1852
1376,1856
1377,1863
1378,1861
1379,1868
1380,1872
1381,1868
1382,1867
1383,1867
1384,1865
1385,1859
1386,1857
1387,1856
1388,1858
1389,1855
1390,1860
1391,1856
1392,1861
1393,1867
1394,1867
1395,1869
1396,1869
1397,1871
1398,1863
1399,1865
1400,1862
1401,1861
1402,1857
1403,1855
1404,1850
1405,1847
1406,1849
1407,1847
1408,1853
1409,1857
1410,1861
1411,1863
1412,1867
1413,1863
1414,1865
1415,1863
1416,1857
1417,1860
1418,1856
1419,1856
1420,1854
1421,1856
1422,1857
1423,1857
1424,1859
1425,1858
1426,1859
1427,1863
1428,1865
1429,1865
1430,1869
1431,1870
1432,1867
1433,1867
1434,1859
1435,1858
1436,1856
1437,1851
1438,1852
1439,1853
1440,1856
1441,1856
1442,1861
1443,1869
1444,1868
1445,1867
1446,1869
1447,1867
1448,1866
1449,1863
1450,1866
1451,1861
1452,1857
1453,1855
1454,1855
1455,1856
1456,1856
1457,1857
1458,1859
1459,1858
1460,1862
1461,1866
1462,1870
1463,1869
1464,1863
1465,1859
1466,1859
1467,1859
1468,1856
1469,1858
1470,1854
1471,1855
1472,1858
1473,1854
1474,1857
1475,1856
1476,1858
1477,1862
1478,1865
1479,1869
1480,1863
1481,1867
1482,1866
1483,1860
1484,1862
1485,1856
1486,1859
1487,1857
1488,1856
1489,1857
1490,1858
1491,1857
1492,1858
1493,1866
1494,1856
1495,1861
1496,1859
1497,1857
1498,1861
1499,1866
1500,1864
1501,1861
1502,1857
1503,1854
1504,1856
1505,1856
1506,1851
1507,1859
1508,1858
1509,1859
1510,1859
1511,1863
1512,1865
1513,1870
1514,1872
1515,1866
1516,1863
1517,1866
1518,1857
1519,1855
1520,1856
1521,1855
1522,1856
1523,1854
1524,1850
1525,1854
1526,1856
1527,1857
1528,1861
1529,1857
1530,1858
1531,1867
1532,1862
1533,1862
1534,1866
1535,1857
1536,1857
1537,1855
1538,1855
1539,1855
1540,1855
1541,1857
1542,1863
1543,1863
1544,1869
1545,1867
1546,1868
1547,1866
1548,1865
1549,1859
1550,1861
1551,1861
1552,1861
1553,1855
1554,1845
1555,1847
1556,1846
1557,1850
1558,1854
1559,1856
1560,1861
1561,1862
1562,1866
1563,1862
1564,1868
1565,1869
1566,1863
1567,1865
1568,1858
1569,1856
1570,1855
1571,1857
1572,1856
1573,1854
1574,1857
1575,1858
1576,1859
1577,1862
1578,1868
1579,1869
1580,1867
1581,1865
1582,1861
1583,1858
1584,1856
1585,1850
1586,1850
1587,1851
1588,1854
1589,1854
1590,1856
1591,1859
1592,1860
1593,1866
1594,1869
1595,1870
1596,1872
1597,1872
1598,1872
1599,1870
1600,1863
1601,1858
1602,1854
1603,1849
1604,1847
1605,1849
1606,1851
1607,1853
1608,1859
1609,1856
1610,1863
1611,1863
1612,1868
1613,1863
1614,1856
1615,1857
1616,1857
1617,1858
1618,1854
1619,1855
1620,1856
1621,1856
1622,1856
1623,1856
1624,1857
1625,1857
1626,1859
1627,1862
1628,1864
1629,1866
1630,1867
1631,1867
1632,1862
1633,1862
1634,1863
1635,1859
1636,1856
1637,1857
1638,1856
1639,1855
1640,1856
1641,1859
1642,1861
1643,1865
1644,1860
1645,1862
1646,1862
1647,1858
1648,1859
1649,1857
1650,1856
1651,1856
1652,1859
1653,1856
1654,1856
1655,1856
1656,1855
1657,1856
1658,1858
1659,1855
1660,1864
1661,1862
1662,1863
1663,1867
1664,1867
1665,1866
1666,1861
1667,1862
1668,1859
1669,1855
1670,1855
1671,1855
1672,1855
1673,1855
1674,1851
1675,1853
1676,1854
1677,1853
1678,1857
1679,1865
1680,1867
1681,1869
1682,1867
1683,1861
1684,1856
1685,1851
1686,1850
1687,1850
1688,1856
1689,1858
1690,1862
1691,1866
1692,1861
1693,1862
1694,1867
1695,1872
1696,1875
1697,1878
1698,1877
1699,1875
1700,1879
1701,1872
1702,1856
1703,1861
1704,1887
1705,1891
1706,1866
1707,1846
1708,1840
1709,1821
1710,1808
1711,1792
1712,1822
1713,1842
1714,1855
1715,1856
1716,1861
1717,1857
1718,1855
1719,1853
1720,1854
1721,1862
1722,1870
1723,1875
1724,1875
1725,1872
1726,1871
1727,1850
1728,1853
1729,1846
1730,1860
1731,1873
1732,1866
1733,1869
1734,1863
1735,1862
1736,1850
1737,1845
1738,1850
1739,1850
1740,1855
1741,1853
1742,1857
1743,1860
1744,1860
1745,1856
1746,1854
1747,1867
1748,1872
1749,1866
1750,1864
1751,1859
1752,1858
1753,1854
1754,1855
1755,1856
1756,1859
1757,1857
1758,1862
1759,1860
1760,1863
1761,1866
1762,1866
1763,1867
1764,1862
1765,1858
1766,1857
1767,1860
1768,1859
1769,1859
1770,1854
1771,1860
1772,1856
1773,1856
1774,1857
1775,1856
1776,1854
1777,1860
1778,1860
1779,1867
1780,1862
1781,1867
1782,1861
1783,1856
1784,1857
1785,1847
1786,1846
1787,1846
1788,1855
1789,1854
1790,1853
1791,1856
1792,1859
1793,1867
1794,1852
1795,1859
1796,1861
1797,1858
1798,1861
1799,1866
1800,1860
1801,1858
1802,1857
1803,1846
1804,1851
1805,1854
1806,1849
1807,1854
1808,1858
1809,1856
1810,1859
1811,1859
1812,1861
1813,1867
1814,1863
1815,1862
1816,1859
1817,1858
1818,1858
1819,1855
1820,1849
1821,1852
1822,1851
1823,1851
1824,1853
1825,1846
1826,1853
1827,1855
1828,1857
1829,1857
1830,1859
1831,1871
1832,1871
1833,1872
1834,1868
1835,1863
1836,1858
1837,1843
1838,1840
1839,1841
1840,1846
1841,1855
1842,1864
1843,1867
1844,1867
1845,1863
1846,1867
1847,1867
1848,1870
1849,1857
1850,1852
1851,1850
1852,1846
1853,1849
1854,1840
1855,1851
1856,1846
1857,1843
1858,1837
1859,1837
1860,1850
1861,1871
1862,1866
1863,1866
1864,1868
1865,1863
1866,1859
1867,1859
1868,1859
1869,1857
1870,1856
1871,1856
1872,1856
1873,1854
1874,1857
1875,1860
1876,1860
1877,1868
1878,1868
1879,1871
1880,1863
1881,1862
1882,1861
1883,1855
1884,1850
1885,1850
1886,1855
1887,1850
1888,1856
1889,1862
1890,1856
1891,1857
1892,1856
1893,1856
1894,1858
1895,1863
1896,1867
1897,1863
1898,1867
1899,1862
1900,1868
1901,1867
1902,1861
1903,1857
1904,1854
1905,1853
1906,1849
1907,1853
1908,1853
1909,1855
1910,1857
1911,1861
1912,1863
1913,1867
1914,1861
1915,1859
1916,1854
1917,1862
1918,1856
1919,1854
1920,1854
1921,1855
1922,1854
1923,1853
1924,1856
1925,1856
1926,1856
1927,1863
1928,1862
1929,1865
1930,1866
1931,1867
1932,1861
1933,1859
1934,1863
1935,1859
1936,1855
1937,1855
1938,1851
1939,1851
1940,1854
1941,1855
1942,1857
1943,1862
1944,1855
1945,1861
1946,1857
1947,1859
1948,1861
1949,1856
1950,1860
1951,1856
1952,1856
1953,1856
1954,1855
1955,1855
1956,1855
1957,1855
1958,1857
1959,1856
1960,1861
1961,1859
1962,1863
1963,1862
1964,1868
1965,1867
1966,1863
1967,965
1968,1643
1969,2197
1970,2374
1971,2527
1972,2693
1973,2787
1974,2663
1975,2192
1976,1345
1977,707
1978,893
1979,1408
1980,1684
1981,1762
1982,1805
1983,1872
1984,1978
1985,2079
1986,2133
1987,2099
1988,1985
1989,1847
1990,1691
1991,1565
1992,1469
1993,1456
1994,1529
1995,1626
1996,1708
1997,1767
1998,1744
1999,1443
2000,2243
2001,2543
2002,2707
2003,2800
2004,2722
2005,2399
2006,1669
2007,704
2008,589
2009,1203
2010,1621
2011,1823
2012,1942
2013,2027
2014,2099
2015,2159
2016,2160
2017,2108
2018,2003
2019,1856
2020,1712
2021,1603
2022,1535
2023,1534
2024,1602
2025,1685
2026,1761
2027,1819
2028,1856
2029,2861
2030,1266
2031,2253
2032,2671
2033,2815
2034,2800
2035,2642
2036,2225
2037,1378
2038,593
2039,915
2040,1461
2041,1718
2042,1851
2043,1958
2044,2029
2045,2101
2046,2160
2047,2161
2048,2094
2049,1955
2050,1807
2051,1664
2052,1555
2053,1506
2054,1554
2055,1633
2056,1722
2057,1806
2058,1841
2059,1856
2060,2060
2061,955
2062,2128
2063,2647
2064,2786
2065,2736
2066,2559
2067,2128
2068,1209
2069,706
2070,1183
2071,1584
2072,1771
2073,1874
2074,1947
2075,2006
2076,2081
2077,2141
2078,2154
2079,2091
2080,1963
2081,1809
2082,1664
2083,1535
2084,1502
2085,1535
2086,1632
2087,1725
2088,1795
2089,1838
2090,1870
2091,1901
2092,750
2093,2005
2094,2624
2095,2814
2096,2760
2097,2549
2098,2000
2099,1127
2100,868
2101,1376
2102,1679
2103,1807
2104,1872
2105,1921
2106,1974
2107,2054
2108,2107
2109,2115
2110,2054
2111,1929
2112,1802
2113,1673
2114,1583
2115,1535
2116,1582
2117,1661
2118,1746
2119,1806
2120,1842
2121,1872
2122,1891
2123,650
2124,1903
2125,2592
2126,2832
2127,2820
2128,2618
2129,1967
2130,946
2131,811
2132,1367
2133,1680
2134,1793
2135,1879
2136,1942
2137,2010
2138,2080
2139,2123
2140,2114
2141,2044
2142,1929
2143,1808
2144,1680
2145,1586
2146,1573
2147,1622
2148,1703
2149,1769
2150,1807
2151,1830
2152,1866
2153,1902
2154,971
2155,1733
2156,2490
2157,2790
2158,2787
2159,2667
2160,2112
2161,1018
2162,742
2163,1337
2164,1679
2165,1791
2166,1872
2167,1935
2168,1970
2169,2020
2170,2082
2171,2090
2172,2030
2173,1919
2174,1803
2175,1681
2176,1601
2177,1581
2178,1616
2179,1703
2180,1777
2181,1836
2182,1875
2183,1898
2184,1909
2185,1713
2186,1569
2187,2435
2188,2880
2189,2896
2190,2785
2191,2220
2192,1010
2193,634
2194,1255
2195,1645
2196,1738
2197,1805
2198,1883
2199,1951
2200,2032
2201,2099
2202,2112
2203,2047
2204,1933
2205,1802
2206,1675
2207,1583
2208,1557
2209,1601
2210,1689
2211,1766
2212,1818
2213,1853
2214,1878
2215,1902
2216,2740
2217,1342
2218,2304
2219,2870
2220,2928
2221,2806
2222,2204
2223,987
2224,640
2225,1251
2226,1650
2227,1761
2228,1840
2229,1907
2230,1967
2231,2032
2232,2096
2233,2116
2234,2058
2235,1936
2236,1793
2237,1658
2238,1566
2239,1531
2240,1582
2241,1657
2242,1743
2243,1808
2244,1851
2245,1879
2246,1904
2247,2416
2248,1127
2249,2198
2250,2879
2251,2998
2252,2861
2253,2293
2254,1059
2255,582
2256,1211
2257,1634
2258,1727
2259,1776
2260,1868
2261,1945
2262,2035
2263,2109
2264,2128
2265,2106
2266,1994
2267,1850
2268,1706
2269,1573
2270,1520
2271,1562
2272,1648
2273,1729
2274,1790
2275,1840
2276,1875
2277,1905
2278,1920
2279,876
2280,2097
2281,2809
2282,3056
2283,2956
2284,2412
2285,1089
2286,511
2287,1186
2288,1634
2289,1723
2290,1770
2291,1873
2292,1965
2293,2034
2294,2110
2295,2134
2296,2112
2297,2000
2298,1866
2299,1726
2300,1607
2301,1535
2302,1600
2303,1649
2304,1712
2305,1777
2306,1817
2307,1856
2308,1878
2309,1904
2310,686
2311,1939
2312,2704
2313,3086
2314,2999
2315,2511
2316,1227
2317,543
2318,1125
2319,1610
2320,1712
2321,1746
2322,1849
2323,1954
2324,2063
2325,2114
2326,2113
2327,2096
2328,2004
2329,1874
2330,1741
2331,1618
2332,1535
2333,1535
2334,1623
2335,1711
2336,1782
2337,1827
2338,1866
2339,1887
2340,1899
2341,790
2342,1796
2343,2608
2344,3062
2345,2985
2346,2502
2347,1286
2348,544
2349,1135
2350,1610
2351,1738
2352,1803
2353,1894
2354,1973
2355,2057
2356,2118
2357,2143
2358,2123
2359,2020
2360,1889
2361,1757
2362,1630
2363,1535
2364,1535
2365,1600
2366,1686
2367,1769
2368,1819
2369,1861
2370,1882
2371,1904
2372,1128
2373,1699
2374,2505
2375,3039
2376,3071
2377,2663
2378,1419
2379,459
2380,1046
2381,1587
2382,1733
2383,1775
2384,1867
2385,1959
2386,2042
2387,2105
2388,2131
2389,2114
2390,2023
2391,1903
2392,1760
2393,1634
2394,1535
2395,1525
2396,1600
2397,1712
2398,1789
2399,1837
2400,1870
2401,1883
2402,1897
2403,1904
2404,1535
2405,2403
2406,2987
2407,3019
2408,2723
2409,1617
2410,485
2411,1006
2412,1567
2413,1728
2414,1788
2415,1873
2416,1964
2417,2054
2418,2121
2419,2142
2420,2122
2421,2035
2422,1901
2423,1757
2424,1623
2425,1535
2426,1535
2427,1607
2428,1701
2429,1778
2430,1833
2431,1875
2432,1901
2433,1917
2434,2927
2435,1253
2436,2254
2437,2897
2438,2992
2439,2788
2440,1877
2441,609
2442,906
2443,1503
2444,1722
2445,1779
2446,1871
2447,1961
2448,2042
2449,2115
2450,2134
2451,2137
2452,2064
2453,1926
2454,1763
2455,1621
2456,1519
2457,1509
2458,1584
2459,1677
2460,1767
2461,1825
2462,1866
2463,1894
2464,1910
2465,2084
2466,1001
2467,2145
2468,2843
2469,3119
2470,2977
2471,2104
2472,586
2473,724
2474,1422
2475,1704
2476,1744
2477,1814
2478,1935
2479,2032
2480,2112
2481,2154
2482,2153
2483,2082
2484,1945
2485,1795
2486,1648
2487,1528
2488,1509
2489,1601
2490,1697
2491,1778
2492,1811
2493,1839
2494,1875
2495,1915
2496,1937
2497,801
2498,2047
2499,2771
2500,3071
2501,2942
2502,2206
2503,729
2504,657
2505,1317
2506,1633
2507,1740
2508,1829
2509,1926
2510,2019
2511,2107
2512,2160
2513,2165
2514,2096
2515,1997
2516,1886
2517,1743
2518,1593
2519,1449
2520,1492
2521,1627
2522,1719
2523,1788
2524,1845
2525,1874
2526,1904
2527,1922
2528,727
2529,1894
2530,2667
2531,3130
2532,3083
2533,2459
2534,945
2535,592
2536,1287
2537,1651
2538,1714
2539,1728
2540,1825
2541,1965
2542,2075
2543,2144
2544,2157
2545,2109
2546,1995
2547,1851
2548,1726
2549,1607
2550,1535
2551,1574
2552,1619
2553,1717
2554,1786
2555,1828
2556,1856
2557,1884
2558,1898
2559,1072
2560,1743
2561,2533
2562,3024
2563,2995
2564,2523
2565,1143
2566,624
2567,1271
2568,1642
2569,1725
2570,1778
2571,1872
2572,1978
2573,2081
2574,2147
2575,2162
2576,2113
2577,2000
2578,1856
2579,1711
2580,1583
2581,1503
2582,1535
2583,1632
2584,1726
2585,1779
2586,1824
2587,1856
2588,1882
2589,1898
2590,1908
2591,1915
2592,1926
2593,1927
2594,1925
2595,1925
2596,1914
2597,1902
2598,1893
2599,1891
2600,1884
2601,1879
2602,1866
2603,1872
2604,1871
2605,1871
2606,1865
2607,1862
2608,1855
2609,1862
2610,1871
2611,1872
2612,1870
2613,1871
2614,1872
2615,1872
2616,1866
2617,1866
2618,1859
2619,1856
2620,1849
2621,1847
2622,1852
2623,1856
2624,1858
2625,1861
2626,1859
2627,1867
2628,1862
2629,1869
2630,1871
2631,1861
2632,1856
2633,1857
2634,1857
2635,1856
2636,1856
2637,1855
2638,1861
2639,1856
2640,1846
2641,1851
2642,1854
2643,1870
2644,1872
2645,1872
2646,1873
2647,1872
2648,1874
2649,1872
2650,1875
2651,1867
2652,1864
2653,1858
2654,1858
2655,1862
2656,1856
2657,1861
2658,1861
2659,1856
2660,1855
2661,1866
2662,1873
2663,1883
2664,1874
2665,1873
2666,1871
2667,1861
2668,1849
2669,1860
2670,1863
2671,1861
2672,1854
2673,1854
2674,1872
2675,1877
2676,1881
2677,1879
2678,1883
2679,1904
2680,1906
2681,1902
2682,1892
2683,1886
2684,1833
2685,1775
2686,1789
2687,1865
2688,1892
2689,1872
2690,1830
2691,1861
2692,1863
2693,1839
2694,1839
2695,1836
2696,1822
2697,1825
2698,1862
2699,1879
2700,1871
2701,1872
2702,1858
2703,1853
2704,1840
2705,1846
2706,1855
2707,1860
2708,1861
2709,1857
2710,1865
2711,1872
2712,1878
2713,1874
2714,1874
2715,1877
2716,1872
2717,1879
2718,1872
2719,1871
2720,1862
2721,1854
2722,1851
2723,1858
2724,1862
2725,1861
2726,1866
2727,1868
2728,1863
2729,1869
2730,1875
2731,1877
2732,1877
2733,1877
2734,1870
2735,1856
2736,1853
2737,1850
2738,1852
2739,1856
2740,1857
2741,1856
2742,1866
2743,1870
2744,1870
2745,1872
2746,1873
2747,1873
2748,1878
2749,1873
2750,1872
2751,1872
2752,1870
2753,1863
2754,1854
2755,1855
2756,1855
2757,1856
2758,1856
2759,1845
2760,1862
2761,1858
2762,1862
2763,1867
2764,1872
2765,1872
2766,1872
2767,1867
2768,1870
2769,1873
2770,1878
2771,1873
2772,1862
2773,1856
2774,1872
2775,1873
2776,1879
2777,1878
2778,1882
2779,1877
2780,1876
2781,1869
2782,1845
2783,1841
2784,1840
2785,1841
2786,1843
2787,1856
2788,1862
2789,1870
2790,1871
2791,1858
2792,1853
2793,1856
2794,1866
2795,1872
2796,1872
2797,1872
2798,1876
2799,1872
2800,1872
2801,1877
2802,1872
2803,1871
2804,1870
2805,1868
2806,1868
2807,1862
2808,1865
2809,1854
2810,1852
2811,1856
2812,1861
2813,1867
2814,1863
2815,1859
2816,1860
2817,1856
2818,1855
2819,1856
2820,1853
2821,1855
2822,1845
2823,1845
2824,1847
2825,1853
2826,1855
2827,1860
2828,1865
2829,1869
2830,1862
2831,1869
2832,1872
2833,1869
2834,1861
2835,1860
2836,1856
2837,1854
2838,1858
2839,1854
2840,1854
2841,1858
2842,1865
2843,1863
2844,1857
2845,1861
2846,1862
2847,1865
2848,1869
2849,1856
2850,1851
2851,1851
2852,1855
2853,1861
2854,1871
2855,1887
2856,1877
2857,1877
2858,1876
2859,1856
2860,1837
2861,1841
2862,1857
2863,1866
2864,1866
2865,1871
2866,1872
2867,1872
2868,1857
2869,1840
2870,1822
2871,1822
2872,1841
2873,1871
2874,1876
2875,1883
2876,1872
2877,1866
2878,1866
2879,1870
2880,1862
2881,1866
2882,1870
2883,1869
2884,1872
2885,1859
2886,1858
2887,1856
2888,1856
2889,1855
2890,1857
2891,1859
2892,1861
2893,1861
2894,1866
2895,1872
2896,1872
2897,1871
2898,1872
2899,1870
2900,1870
2901,1870
2902,1865
2903,1857
2904,1853
2905,1850
2906,1847
2907,1854
2908,1856
2909,1857
2910,1865
2911,1863
2912,1872
2913,1872
2914,1873
2915,1872
2916,1872
2917,1872
2918,1872
2919,1862
2920,1865
2921,1862
2922,1858
2923,1856
2924,1859
2925,1862
2926,1858
2927,1861
2928,1872
2929,1872
2930,1872
2931,1875
2932,1873
2933,1872
2934,1870
2935,1863
2936,1858
2937,1856
2938,1861
2939,1857
2940,1854
2941,1858
2942,1863
2943,1871
2944,1871
2945,1872
2946,1874
2947,1872
2948,1870
2949,1869
2950,1871
2951,1872
2952,1867
2953,1863
2954,1861
2955,1870
2956,1887
2957,1898
2958,1902
2959,1920
2960,1941
2961,1923
2962,1884
2963,1813
2964,1798
2965,1819
2966,1821
2967,1821
2968,1837
2969,1845
2970,1854
2971,1850
2972,1851
2973,1853
2974,1857
2975,1872
2976,1857
2977,1859
2978,1869
2979,1874
2980,1875
2981,1879
2982,1876
2983,1872
2984,1871
2985,1865
2986,1862
2987,1859
2988,1863
2989,1862
2990,1859
2991,1863
2992,1868
2993,1872
2994,1870
2995,1871
2996,1868
2997,1866
2998,1870
2999,1872
3000,1872
3001,1872
3002,1863
3003,1860
3004,1860
3005,1858
3006,1855
3007,1856
3008,1858
3009,1861
3010,1860
3011,1867
3012,1869
3013,1872
3014,1873
3015,1872
3016,1867
3017,1868
3018,1863
3019,1860
3020,1858
3021,1856
3022,1856
3023,1858
3024,1852
3025,1859
3026,1855
3027,1859
3028,1860
3029,1867
3030,1870
3031,1871
3032,1872
3033,1872
3034,1879
3035,1885
3036,1883
3037,1877
3038,1863
3039,1850
3040,1845
3041,1847
3042,1842
3043,1846
3044,1856
3045,1863
3046,1865
3047,1865
3048,1872
3049,1873
3050,1886
3051,1885
3052,1861
3053,1850
3054,1840
3055,1842
3056,1849
3057,1847
3058,1856
3059,1851
3060,1859
3061,1856
3062,1866
3063,1873
3064,1877
3065,1882
3066,1879
3067,1886
3068,1877
3069,1872
3070,1866
3071,1858
3072,1856
3073,1853
3074,1844
3075,1854
3076,1855
3077,1859
3078,1867
3079,1872
3080,1874
3081,1872
3082,1874
3083,1869
3084,1862
3085,1861
3086,1860
3087,1856
3088,1859
3089,1863
3090,1861
3091,1863
3092,1861
3093,1856
3094,1857
3095,1859
3096,1863
3097,1872
3098,1879
3099,1872
3100,1872
3101,1867
3102,1855
3103,1855
3104,1860
3105,1858
3106,1859
3107,1863
3108,1867
3109,1870
3110,1869
3111,1865
3112,1871
3113,1872
3114,1866
3115,1872
3116,1865
3117,1863
3118,1862
3119,1862
3120,1859
3121,1858
3122,1860
3123,1857
3124,1861
3125,1862
3126,1867
3127,1871
3128,1875
3129,1870
3130,1867
3131,1870
3132,1872
3133,1875
3134,1872
3135,1869
3136,1866
3137,1863
3138,1867
3139,1862
3140,1862
3141,1861
3142,1862
3143,1872
3144,1863
3145,1865
3146,1871
3147,1871
3148,1872
3149,1870
3150,1870
3151,1857
3152,1855
3153,1850
3154,1851
3155,1859
3156,1862
3157,1866
3158,1863
3159,1863
3160,1865
3161,1870
3162,1874
3163,1873
3164,1877
3165,1879
3166,1878
3167,1872
3168,1870
3169,1862
3170,1859
3171,1861
3172,1859
3173,1856
3174,1856
3175,1858
3176,1863
3177,1871
3178,1872
3179,1883
3180,1882
3181,1884
3182,1888
3183,1889
3184,1894
3185,1891
3186,1890
3187,1891
3188,1879
3189,1872
3190,1863
3191,1847
3192,1853
3193,1866
3194,1874
3195,1869
3196,1847
3197,1855
3198,1861
3199,1860
3200,1872
3201,1872
3202,1862
3203,1865
3204,1857
3205,1860
3206,1857
3207,1861
3208,1861
3209,1868
3210,1872
3211,1876
3212,1879
3213,1886
3214,1889
3215,1893
3216,1886
3217,1881
3218,1875
3219,1872
3220,1874
3221,1872
3222,1872
3223,1867
3224,1867
3225,1869
3226,1873
3227,1882
3228,1889
3229,1887
3230,1882
3231,1875
3232,1871
3233,1870
3234,1870
3235,1867
3236,1863
3237,1857
3238,1858
3239,1858
3240,1859
3241,1866
3242,1881
3243,1881
3244,1879
3245,1882
3246,1874
3247,1872
3248,1873
3249,1879
3250,1877
3251,1878
3252,1872
3253,1867
3254,1863
3255,1860
3256,1854
3257,1857
3258,1865
3259,1866
3260,1867
3261,1872
3262,1873
3263,1876
3264,1868
3265,1872
3266,1869
3267,1869
3268,1866
3269,1865
3270,1867
3271,1867
3272,1867
3273,1858
3274,1856
3275,1857
3276,1859
3277,1863
3278,1861
3279,1866
3280,1872
3281,1875
3282,1874
3283,1873
3284,1877
3285,1882
3286,1872
3287,1862
3288,1862
3289,1860
3290,1854
3291,1854
3292,1858
3293,1871
3294,1858
3295,1856
3296,1862
3297,1861
3298,1861
3299,1866
3300,1863
3301,1865
3302,1866
3303,1861
3304,1859
3305,1856
3306,1854
3307,1857
3308,1865
3309,1867
3310,1872
3311,1872
3312,1875
3313,1877
3314,1878
3315,1877
3316,1872
3317,1859
3318,1853
3319,1844
3320,1840
3321,1855
3322,1865
3323,1863
3324,1853
3325,1846
3326,1851
3327,1855
3328,1858
3329,1859
3330,1859
3331,1872
3332,1865
3333,1865
3334,1866
3335,1856
3336,1858
3337,1854
3338,1857
3339,1857
3340,1863
3341,1866
3342,1865
3343,1871
3344,1867
3345,1869
3346,1871
3347,1870
3348,1872
3349,1872
3350,1871
3351,1870
3352,1862
3353,1862
3354,1851
3355,1854
3356,1847
3357,1851
3358,1859
3359,1861
3360,1869
3361,1871
3362,1872
3363,1874
3364,1872
3365,1873
3366,1872
3367,1872
3368,1872
3369,1871
3370,1865
3371,1861
3372,1863
3373,1868
3374,1870
3375,1872
3376,1871
3377,1877
3378,1882
3379,1888
3380,1878
3381,1881
3382,1872
3383,1872
3384,1870
3385,1866
3386,1861
3387,1855
3388,1855
3389,1857
3390,1854
3391,1858
3392,1860
3393,1863
3394,1869
3395,1872
3396,1874
3397,1872
3398,1877
3399,1877
3400,1872
3401,1873
3402,1871
3403,1867
3404,1863
3405,1866
3406,1860
3407,1856
3408,1856
3409,1855
3410,1861
3411,1865
3412,1869
3413,1872
3414,1866
3415,1869
3416,1863
3417,1865
3418,1865
3419,1861
3420,1859
3421,1859
3422,1859
3423,1856
3424,1855
3425,1863
3426,1863
3427,1869
3428,1867
3429,1872
3430,1871
3431,1872
3432,1874
3433,1872
3434,1871
3435,1867
3436,1862
3437,1859
3438,1857
3439,1859
3440,1867
3441,1872
3442,1867
3443,1863
3444,1859
3445,1859
3446,1867
3447,1858
3448,1862
3449,1859
3450,1851
3451,1853
3452,1854
3453,1853
3454,1851
3455,1849
3456,1845
3457,1854
3458,1857
3459,1853
3460,1860
3461,1867
3462,1867
3463,1871
3464,1871
3465,1874
3466,1871
3467,1863
3468,1869
3469,1867
3470,1856
3471,1856
3472,1855
3473,1856
3474,1854
3475,1854
3476,1856
3477,1862
3478,1865
3479,1871
3480,1874
3481,1877
3482,1876
3483,1876
3484,1885
3485,1879
3486,1867
3487,1857
3488,1851
3489,1841
3490,1840
3491,1856
3492,1868
3493,1861
3494,1856
3495,1862
3496,1857
3497,1859
3498,1863
3499,1863
3500,1865
3501,1862
3502,1861
3503,1870
3504,1861
3505,1859
3506,1863
3507,1877
3508,1886
3509,1894
3510,1876
3511,1861
3512,1862
3513,1855
3514,1839
3515,1829
3516,1841
3517,1857
3518,1867
3519,1840
3520,1836
3521,1834
3522,1840
3523,1847
3524,1857
3525,1869
3526,1867
3527,1871
3528,1883
3529,1883
3530,1890
3531,1896
3532,1892
3533,1885
3534,1877
3535,1873
3536,1856
3537,1840
3538,1835
3539,1833
3540,1839
3541,1840
3542,1863
3543,1888
3544,1894
3545,1872
3546,1870
3547,1843
3548,1843
3549,1840
3550,1840
3551,1850
3552,1840
3553,1821
3554,1833
3555,1849
3556,1855
3557,1858
3558,1866
3559,1867
3560,1869
3561,1872
3562,1874
3563,1873
3564,1872
3565,1869
3566,1869
3567,1865
3568,1862
3569,1856
3570,1861
3571,1861
3572,1859
3573,1862
3574,1863
3575,1867
3576,1856
3577,1859
3578,1863
3579,1871
3580,1867
3581,1871
3582,1875
3583,1890
3584,1904
3585,1904
3586,1901
3587,525
3588,1942
3589,2541
3590,2808
3591,2902
3592,2862
3593,2651
3594,2368
3595,1902
3596,1197
3597,624
3598,621
3599,1051
3600,1434
3601,1593
3602,1663
3603,1727
3604,1830
3605,1953
3606,2042
3607,2082
3608,2064
3609,1969
3610,1862
3611,1759
3612,1673
3613,1618
3614,1646
3615,1712
3616,1770
3617,1807
3618,463
3619,1808
3620,2589
3621,2927
3622,3013
3623,2877
3624,2636
3625,2270
3626,1587
3627,634
3628,317
3629,827
3630,1405
3631,1711
3632,1838
3633,1907
3634,1999
3635,2082
3636,2145
3637,2157
3638,2102
3639,2000
3640,1879
3641,1764
3642,1665
3643,1626
3644,1648
3645,1698
3646,1775
3647,1837
3648,1867
3649,895
3650,1657
3651,2539
3652,2934
3653,3005
3654,2851
3655,2668
3656,2320
3657,1510
3658,495
3659,391
3660,1033
3661,1505
3662,1742
3663,1867
3664,1967
3665,2058
3666,2105
3667,2141
3668,2117
3669,2032
3670,1911
3671,1779
3672,1664
3673,1601
3674,1621
3675,1691
3676,1757
3677,1814
3678,1857
3679,1889
3680,1792
3681,1465
3682,2464
3683,3022
3684,3083
3685,2866
3686,2654
3687,2309
3688,1424
3689,291
3690,449
3691,1152
3692,1534
3693,1747
3694,1883
3695,1968
3696,2043
3697,2101
3698,2130
3699,2107
3700,2013
3701,1879
3702,1723
3703,1616
3704,1579
3705,1621
3706,1706
3707,1776
3708,1824
3709,1867
3710,1899
3711,2902
3712,1232
3713,2343
3714,2944
3715,3053
3716,2866
3717,2671
3718,2307
3719,1296
3720,309
3721,667
3722,1246
3723,1563
3724,1763
3725,1920
3726,1988
3727,2023
3728,2062
3729,2100
3730,2079
3731,1983
3732,1851
3733,1712
3734,1623
3735,1600
3736,1641
3737,1712
3738,1796
3739,1849
3740,1877
3741,1898
3742,2256
3743,944
3744,2176
3745,2832
3746,2985
3747,2852
3748,2678
3749,2305
3750,1191
3751,417
3752,827
3753,1289
3754,1578
3755,1803
3756,1959
3757,1990
3758,2003
3759,2032
3760,2065
3761,2030
3762,1936
3763,1821
3764,1713
3765,1643
3766,1642
3767,1690
3768,1744
3769,1807
3770,1845
3771,1857
3772,1897
3773,1904
3774,662
3775,2031
3776,2742
3777,2963
3778,2874
3779,2709
3780,2212
3781,1115
3782,560
3783,943
3784,1322
3785,1587
3786,1807
3787,1955
3788,2029
3789,2065
3790,2097
3791,2111
3792,2067
3793,1968
3794,1832
3795,1699
3796,1618
3797,1619
3798,1680
3799,1748
3800,1807
3801,1841
3802,1861
3803,1885
3804,1894
3805,485
3806,1887
3807,2669
3808,2966
3809,2895
3810,2683
3811,2097
3812,999
3813,734
3814,1135
3815,1411
3816,1631
3817,1845
3818,1975
3819,2000
3820,2021
3821,2064
3822,2094
3823,2054
3824,1948
3825,1813
3826,1677
3827,1616
3828,1618
3829,1670
3830,1728
3831,1790
3832,1826
3833,1850
3834,1869
3835,1883
3836,533
3837,1777
3838,2601
3839,2892
3840,2799
3841,2559
3842,1969
3843,993
3844,871
3845,1232
3846,1456
3847,1648
3848,1856
3849,1978
3850,2010
3851,2065
3852,2115
3853,2130
3854,2097
3855,1975
3856,1808
3857,1668
3858,1606
3859,1593
3860,1631
3861,1699
3862,1779
3863,1823
3864,1854
3865,1875
3866,1885
3867,1344
3868,1535
3869,2483
3870,2932
3871,2858
3872,2597
3873,1930
3874,1047
3875,1006
3876,1322
3877,1499
3878,1666
3879,1860
3880,1984
3881,2014
3882,2035
3883,2069
3884,2081
3885,2046
3886,1931
3887,1795
3888,1655
3889,1565
3890,1556
3891,1632
3892,1710
3893,1776
3894,1814
3895,1847
3896,1873
3897,1891
3898,2421
3899,1354
3900,2377
3901,2928
3902,2907
3903,2640
3904,1966
3905,1103
3906,1018
3907,1296
3908,1453
3909,1586
3910,1786
3911,1930
3912,2000
3913,2061
3914,2113
3915,2143
3916,2125
3917,2017
3918,1869
3919,1694
3920,1579
3921,1535
3922,1595
3923,1677
3924,1744
3925,1789
3926,1827
3927,1863
3928,1891
3929,2683
3930,1105
3931,2244
3932,2867
3933,2928
3934,2732
3935,2100
3936,1178
3937,995
3938,1286
3939,1457
3940,1577
3941,1775
3942,1939
3943,2021
3944,2078
3945,2116
3946,2128
3947,2096
3948,1997
3949,1850
3950,1695
3951,1577
3952,1554
3953,1594
3954,1653
3955,1742
3956,1793
3957,1839
3958,1872
3959,1899
3960,2149
3961,912
3962,2157
3963,2820
3964,2961
3965,2768
3966,2109
3967,1123
3968,1006
3969,1310
3970,1471
3971,1586
3972,1771
3973,1933
3974,2002
3975,2060
3976,2100
3977,2125
3978,2114
3979,2046
3980,1888
3981,1744
3982,1601
3983,1535
3984,1584
3985,1638
3986,1718
3987,1798
3988,1844
3989,1872
3990,1899
3991,1917
3992,605
3993,1983
3994,2750
3995,2946
3996,2775
3997,2169
3998,1290
3999,1054
4000,1285
4001,1472
4002,1575
4003,1753
4004,1936
4005,2025
4006,2071
4007,2105
4008,2113
4009,2090
4010,1997
4011,1859
4012,1723
4013,1617
4014,1568
4015,1605
4016,1660
4017,1730
4018,1796
4019,1842
4020,1870
4021,1891
4022,1899
4023,586
4024,1809
4025,2644
4026,3062
4027,2967
4028,2371
4029,1344
4030,947
4031,1207
4032,1414
4033,1519
4034,1679
4035,1889
4036,2010
4037,2080
4038,2112
4039,2117
4040,2096
4041,2030
4042,1893
4043,1745
4044,1617
4045,1535
4046,1583
4047,1646
4048,1735
4049,1794
4050,1825
4051,1863
4052,1890
4053,1903
4054,1053
4055,1645
4056,2514
4057,2933
4058,2893
4059,2426
4060,1481
4061,1050
4062,1278
4063,1443
4064,1533
4065,1674
4066,1866
4067,1986
4068,2041
4069,2081
4070,2110
4071,2115
4072,2085
4073,1957
4074,1783
4075,1641
4076,1517
4077,1534
4078,1617
4079,1710
4080,1778
4081,1831
4082,1872
4083,1899
4084,1915
4085,1918
4086,1478
4087,2428
4088,2918
4089,2896
4090,2507
4091,1612
4092,955
4093,1174
4094,1420
4095,1519
4096,1655
4097,1872
4098,2014
4099,2081
4100,2128
4101,2144
4102,2128
4103,2065
4104,1936
4105,1773
4106,1623
4107,1525
4108,1535
4109,1609
4110,1693
4111,1777
4112,1842
4113,1891
4114,1909
4115,1926
4116,2637
4117,1335
4118,2351
4119,2911
4120,2953
4121,2582
4122,1633
4123,1006
4124,1201
4125,1424
4126,1515
4127,1627
4128,1825
4129,1990
4130,2074
4131,2117
4132,2135
4133,2126
4134,2064
4135,1938
4136,1780
4137,1634
4138,1535
4139,1535
4140,1590
4141,1673
4142,1762
4143,1814
4144,1855
4145,1890
4146,1911
4147,2541
4148,1103
4149,2249
4150,2896
4151,3014
4152,2715
4153,1837
4154,1040
4155,1143
4156,1360
4157,1471
4158,1583
4159,1775
4160,1941
4161,2038
4162,2097
4163,2135
4164,2129
4165,2096
4166,1985
4167,1837
4168,1693
4169,1583
4170,1535
4171,1589
4172,1658
4173,1742
4174,1792
4175,1841
4176,1883
4177,1911
4178,1923
4179,753
4180,2045
4181,2758
4182,2963
4183,2772
4184,2051
4185,1138
4186,1126
4187,1372
4188,1472
4189,1554
4190,1742
4191,1928
4192,2035
4193,2096
4194,2135
4195,2151
4196,2119
4197,2032
4198,1875
4199,1719
4200,1600
4201,1535
4202,1582
4203,1651
4204,1737
4205,1805
4206,1839
4207,1865
4208,1891
4209,1905
4210,1914
4211,1916
4212,1918
4213,1917
4214,1913
4215,1917
4216,1905
4217,1903
4218,1894
4219,1881
4220,1875
4221,1872
4222,1871
4223,1861
4224,1856
4225,1859
4226,1857
4227,1862
4228,1861
4229,1866
4230,1870
4231,1870
4232,1869
4233,1864
4234,1862
4235,1861
4236,1856
4237,1854
4238,1852
4239,1851
4240,1849
4241,1852
4242,1854
4243,1858
4244,1862
4245,1865
4246,1867
4247,1867
4248,1869
4249,1870
4250,1865
4251,1866
4252,1860
4253,1856
4254,1841
4255,1842
4256,1845
4257,1843
4258,1849
4259,1854
4260,1863
4261,1862
4262,1873
4263,1872
4264,1871
4265,1872
4266,1871
4267,1867
4268,1867
4269,1859
4270,1854
4271,1856
4272,1855
4273,1853
4274,1856
4275,1863
4276,1863
4277,1872
4278,1872
4279,1872
4280,1872
4281,1872
4282,1874
4283,1870
4284,1862
4285,1861
4286,1853
4287,1855
4288,1853
4289,1858
4290,1856
4291,1860
4292,1861
4293,1865
4294,1871
4295,1872
4296,1876
4297,1876
4298,1877
4299,1872
4300,1872
4301,1869
4302,1867
4303,1863
4304,1862
4305,1861
4306,1856
4307,1856
4308,1863
4309,1870
4310,1873
4311,1875
4312,1889
4313,1904
4314,1914
4315,1921
4316,1899
4317,1863
4318,1840
4319,1814
4320,1802
4321,1819
4322,1847
4323,1857
4324,1859
4325,1876
4326,1873
4327,1897
4328,1892
4329,1899
4330,1893
4331,1872
4332,1834
4333,1837
4334,1863
4335,1863
4336,1840
4337,1830
4338,1847
4339,1852
4340,1855
4341,1858
4342,1865
4343,1870
4344,1865
4345,1869
4346,1871
4347,1872
4348,1874
4349,1872
4350,1862
4351,1869
4352,1867
4353,1866
4354,1866
4355,1865
4356,1871
4357,1862
4358,1866
4359,1868
4360,1871
4361,1878
4362,1875
4363,1879
4364,1873
4365,1872
4366,1869
4367,1867
4368,1872
4369,1867
4370,1867
4371,1862
4372,1863
4373,1862
4374,1856
4375,1862
4376,1866
4377,1863
4378,1863
4379,1875
4380,1876
4381,1873
4382,1872
4383,1874
4384,1872
4385,1869
4386,1865
4387,1865
4388,1865
4389,1859
4390,1863
4391,1860
4392,1878
4393,1867
4394,1867
4395,1871
4396,1879
4397,1872
4398,1874
4399,1872
4400,1872
4401,1872
4402,1869
4403,1861
4404,1855
4405,1858
4406,1849
4407,1851
4408,1856
4409,1863
4410,1861
4411,1870
4412,1872
4413,1872
4414,1872
4415,1871
4416,1869
4417,1863
4418,1859
4419,1856
4420,1851
4421,1855
4422,1857
4423,1855
4424,1857
4425,1862
4426,1860
4427,1861
4428,1868
4429,1878
4430,1894
4431,1891
4432,1889
4433,1897
4434,1889
4435,1874
4436,1867
4437,1845
4438,1839
4439,1835
4440,1817
4441,1813
4442,1840
4443,1840
4444,1826
4445,1823
4446,1840
4447,1861
4448,1872
4449,1874
4450,1873
4451,1860
4452,1856
4453,1862
4454,1853
4455,1854
4456,1863
4457,1862
4458,1863
4459,1866
4460,1859
4461,1861
4462,1865
4463,1872
4464,1867
4465,1866
4466,1863
4467,1857
4468,1859
4469,1859
4470,1856
4471,1855
4472,1853
4473,1853
4474,1855
4475,1862
4476,1857
4477,1863
4478,1866
4479,1862
4480,1867
4481,1866
4482,1867
4483,1869
4484,1865
4485,1863
4486,1859
4487,1855
4488,1854
4489,1859
4490,1857
4491,1867
4492,1865
4493,1858
4494,1853
4495,1856
4496,1861
4497,1859
4498,1866
4499,1867
4500,1861
4501,1863
4502,1865
4503,1857
4504,1852
4505,1859
4506,1858
4507,1857
4508,1863
4509,1858
4510,1863
4511,1867
4512,1866
4513,1863
4514,1870
4515,1871
4516,1866
4517,1865
4518,1861
4519,1859
4520,1856
4521,1856
4522,1858
4523,1856
4524,1851
4525,1860
4526,1856
4527,1858
4528,1867
4529,1871
4530,1872
4531,1872
4532,1874
4533,1872
4534,1872
4535,1881
4536,1883
4537,1879
4538,1870
4539,1859
4540,1840
4541,1840
4542,1840
4543,1831
4544,1841
4545,1850
4546,1865
4547,1861
4548,1861
4549,1872
4550,1863
4551,1865
4552,1867
4553,1870
4554,1872
4555,1872
4556,1876
4557,1878
4558,1856
4559,1830
4560,1819
4561,1831
4562,1850
4563,1855
4564,1858
4565,1868
4566,1865
4567,1865
4568,1866
4569,1862
4570,1861
4571,1863
4572,1862
4573,1858
4574,1857
4575,1856
4576,1859
4577,1866
4578,1872
4579,1873
4580,1873
4581,1871
4582,1865
4583,1869
4584,1866
4585,1862
4586,1853
4587,1851
4588,1855
4589,1856
4590,1856
4591,1858
4592,1866
4593,1859
4594,1857
4595,1865
4596,1872
4597,1868
4598,1870
4599,1866
4600,1858
4601,1863
4602,1863
4603,1858
4604,1856
4605,1855
4606,1856
4607,1854
4608,1853
4609,1856
4610,1863
4611,1861
4612,1867
4613,1870
4614,1867
4615,1862
4616,1857
4617,1857
4618,1857
4619,1856
4620,1856
4621,1854
4622,1853
4623,1850
4624,1845
4625,1855
4626,1850
4627,1854
4628,1859
4629,1858
4630,1857
4631,1863
4632,1873
4633,1870
4634,1865
4635,1870
4636,1866
4637,1861
4638,1866
4639,1867
4640,1865
4641,1857
4642,1858
4643,1860
4644,1857
4645,1865
4646,1863
4647,1862
4648,1868
4649,1872
4650,1865
4651,1869
4652,1871
4653,1872
4654,1861
4655,1856
4656,1857
4657,1851
4658,1856
4659,1862
4660,1862
4661,1862
4662,1839
4663,1819
4664,1837
4665,1850
4666,1853
4667,1858
4668,1870
4669,1867
4670,1863
4671,1857
4672,1859
4673,1857
4674,1849
4675,1845
4676,1851
4677,1861
4678,1862
4679,1867
4680,1867
4681,1870
4682,1872
4683,1872
4684,1871
4685,1872
4686,1865
4687,1867
4688,1857
4689,1847
4690,1845
4691,1853
4692,1860
4693,1857
4694,1866
4695,1871
4696,1870
4697,1870
4698,1870
4699,1871
4700,1871
4701,1869
4702,1863
4703,1858
4704,1849
4705,1854
4706,1849
4707,1849
4708,1851
4709,1863
4710,1866
4711,1866
4712,1862
4713,1866
4714,1869
4715,1870
4716,1867
4717,1865
4718,1863
4719,1865
4720,1858
4721,1849
4722,1850
4723,1849
4724,1853
4725,1861
4726,1865
4727,1867
4728,1871
4729,1872
4730,1871
4731,1872
4732,1868
4733,1862
4734,1852
4735,1847
4736,1840
4737,1847
4738,1851
4739,1847
4740,1851
4741,1851
4742,1847
4743,1865
4744,1872
4745,1881
4746,1878
4747,1877
4748,1867
4749,1850
4750,1849
4751,1864
4752,1868
4753,1864
4754,1858
4755,1858
4756,1855
4757,1839
4758,1843
4759,1865
4760,1865
4761,1860
4762,1842
4763,1843
4764,1844
4765,1852
4766,1849
4767,1857
4768,1869
4769,1876
4770,1873
4771,1870
4772,1869
4773,1860
4774,1850
4775,1850
4776,1856
4777,1866
4778,1871
4779,1869
4780,1872
4781,1867
4782,1870
4783,1863
4784,1859
4785,1858
4786,1861
4787,1855
4788,1857
4789,1856
4790,1852
4791,1861
4792,1857
4793,1858
4794,1856
4795,1862
4796,1861
4797,1859
4798,1861
4799,1869
4800,1866
4801,1867
4802,1858
4803,1855
4804,1854
4805,1856
4806,1856
4807,1855
4808,1854
4809,1857
4810,1862
4811,1866
4812,1861
4813,1867
4814,1873
4815,1878
4816,1876
4817,1872
4818,1865
4819,1859
4820,1846
4821,1845
4822,1846
4823,1837
4824,1831
4825,1839
4826,1841
4827,1853
4828,1853
4829,1857
4830,1856
4831,1857
4832,1869
4833,1867
4834,1861
4835,1863
4836,1862
4837,1855
4838,1854
4839,1854
4840,1847
4841,1853
4842,1857
4843,1860
4844,1863
4845,1863
4846,1870
4847,1871
4848,1869
4849,1871
4850,1869
4851,1870
4852,1867
4853,1860
4854,1852
4855,1851
4856,1849
4857,1853
4858,1853
4859,1859
4860,1865
4861,1861
4862,1867
4863,1869
4864,1867
4865,1870
4866,1866
4867,1863
4868,1861
4869,1856
4870,1856
4871,1853
4872,1856
4873,1851
4874,1856
4875,1857
4876,1856
4877,1869
4878,1862
4879,1866
4880,1873
4881,1875
4882,1876
4883,1871
4884,1863
4885,1856
4886,1850
4887,1841
4888,1833
4889,1838
4890,1840
4891,1845
4892,1855
4893,1854
4894,1858
4895,1863
4896,1862
4897,1865
4898,1870
4899,1872
4900,1873
4901,1880
4902,1874
4903,1872
4904,1867
4905,1859
4906,1856
4907,1840
4908,1840
4909,1850
4910,1853
4911,1858
4912,1861
4913,1868
4914,1856
4915,1859
4916,1859
4917,1861
4918,1856
4919,1860
4920,1855
4921,1851
4922,1855
4923,1854
4924,1853
4925,1856
4926,1857
4927,1858
4928,1856
4929,1867
4930,1867
4931,1867
4932,1866
4933,1867
4934,1864
4935,1867
4936,1858
4937,1856
4938,1854
4939,1855
4940,1850
4941,1856
4942,1857
4943,1858
4944,1857
4945,1856
4946,1860
4947,1861
4948,1866
4949,1863
4950,1857
4951,1858
4952,1863
4953,1861
4954,1857
4955,1857
4956,1856
4957,1856
4958,1857
4959,1863
4960,1859
4961,1865
4962,1863
4963,1872
4964,1869
4965,1871
4966,1870
4967,1869
4968,1867
4969,1861
4970,1855
4971,1853
4972,1855
4973,1853
4974,1850
4975,1850
4976,1850
4977,1855
4978,1853
4979,1864
4980,1867
4981,1872
4982,1872
4983,1871
4984,1865
4985,1869
4986,1863
4987,1859
4988,1857
4989,1856
4990,1855
4991,1856
4992,1863
4993,1861
4994,1866
4995,1867
4996,1872
4997,1870
4998,1871
4999,1871
5000,1871
5001,1869
5002,1861
5003,1863
5004,1856
5005,1856
5006,1854
5007,1850
5008,1847
5009,1856
5010,1856
5011,1861
5012,1864
5013,1866
5014,1865
5015,1872
5016,1871
5017,1872
5018,1869
5019,1867
5020,1860
5021,1854
5022,1849
5023,1849
5024,1852
5025,1857
5026,1859
5027,1859
5028,1851
5029,1869
5030,1866
5031,1872
5032,1873
5033,1872
5034,1861
5035,1858
5036,1857
5037,1852
5038,1851
5039,1850
5040,1851
5041,1851
5042,1858
5043,1863
5044,1863
5045,1866
5046,1872
5047,1872
5048,1871
5049,1870
5050,1869
5051,1869
5052,1857
5053,1859
5054,1855
5055,1858
5056,1856
5057,1849
5058,1860
5059,1862
5060,1863
5061,1861
5062,1867
5063,1869
5064,1861
5065,1862
5066,1862
5067,1857
5068,1859
5069,1859
5070,1859
5071,1856
5072,1858
5073,1856
5074,1857
5075,1858
5076,1862
5077,1867
5078,1869
5079,1871
5080,1870
5081,1871
5082,1872
5083,1870
5084,1866
5085,1865
5086,1858
5087,1858
5088,1856
5089,1856
5090,1855
5091,1858
5092,1862
5093,1858
5094,1856
5095,1861
5096,1863
5097,1861
5098,1863
5099,1870
5100,1867
5101,1865
5102,1862
5103,1859
5104,1856
5105,1859
5106,1856
5107,1859
5108,1858
5109,1857
5110,1857
5111,1857
5112,1868
5113,1871
5114,1872
5115,1872
5116,1870
5117,1867
5118,1855
5119,1862
5120,1858
5121,1856
5122,1857
5123,1856
5124,1842
5125,1854
5126,1851
5127,1858
5128,1860
5129,1857
5130,1859
5131,1862
5132,1871
5133,1871
5134,1863
5135,1863
5136,1857
5137,1855
5138,1855
5139,1859
5140,1855
5141,1858
5142,1857
5143,1856
5144,1869
5145,1867
5146,1873
5147,1872
5148,1870
5149,1868
5150,1870
5151,1872
5152,1874
5153,1875
5154,1860
5155,1845
5156,1839
5157,1832
5158,1839
5159,1845
5160,1853
5161,1863
5162,1863
5163,1863
5164,1861
5165,1865
5166,1861
5167,1867
5168,1870
5169,1859
5170,1858
5171,1856
5172,1858
5173,1857
5174,1858
5175,1859
5176,1855
5177,1865
5178,1866
5179,1869
5180,1867
5181,1871
5182,1872
5183,1871
5184,1859
5185,1862
5186,1859
5187,1857
5188,1854
5189,1855
5190,1851
5191,1857
5192,1857
5193,1858
5194,1863
5195,1868
5196,1867
5197,1870
5198,1870
5199,1867
5200,1866
5201,1867
5202,1858
5203,1862
5204,1856
5205,1857
5206,2871
5207,1197
5208,2096
5209,2421
5210,2597
5211,2773
5212,2866
5213,2743
5214,2295
5215,1453
5216,666
5217,701
5218,1191
5219,1509
5220,1648
5221,1757
5222,1865
5223,1962
5224,2035
5225,2101
5226,2112
5227,2080
5228,2007
5229,1895
5230,1764
5231,1645
5232,1535
5233,1521
5234,1576
5235,1640
5236,1703
5237,2027
5238,930
5239,2037
5240,2498
5241,2716
5242,2858
5243,2803
5244,2547
5245,1825
5246,691
5247,478
5248,1041
5249,1488
5250,1729
5251,1888
5252,1984
5253,2033
5254,2095
5255,2126
5256,2122
5257,2080
5258,1995
5259,1873
5260,1755
5261,1662
5262,1603
5263,1587
5264,1629
5265,1702
5266,1776
5267,1835
5268,1873
5269,804
5270,2038
5271,2672
5272,2917
5273,2889
5274,2699
5275,2256
5276,1297
5277,546
5278,910
5279,1408
5280,1680
5281,1852
5282,1966
5283,2020
5284,2082
5285,2128
5286,2147
5287,2128
5288,2055
5289,1936
5290,1808
5291,1693
5292,1613
5293,1578
5294,1610
5295,1679
5296,1751
5297,1819
5298,1861
5299,1897
5300,613
5301,1917
5302,2624
5303,2882
5304,2843
5305,2660
5306,2098
5307,1087
5308,685
5309,1151
5310,1503
5311,1719
5312,1860
5313,1946
5314,1969
5315,2017
5316,2093
5317,2105
5318,2081
5319,2009
5320,1905
5321,1788
5322,1678
5323,1600
5324,1568
5325,1617
5326,1696
5327,1762
5328,1812
5329,1859
5330,1890
5331,738
5332,1766
5333,2537
5334,2874
5335,2902
5336,2716
5337,2096
5338,1023
5339,720
5340,1171
5341,1511
5342,1695
5343,1850
5344,1939
5345,1966
5346,2003
5347,2061
5348,2077
5349,2053
5350,1975
5351,1872
5352,1762
5353,1666
5354,1611
5355,1615
5356,1663
5357,1729
5358,1790
5359,1831
5360,1859
5361,1882
5362,1563
5363,1535
5364,2417
5365,2898
5366,2989
5367,2899
5368,2308
5369,1018
5370,617
5371,1091
5372,1438
5373,1621
5374,1793
5375,1925
5376,1941
5377,1985
5378,2055
5379,2086
5380,2077
5381,2002
5382,1901
5383,1790
5384,1702
5385,1650
5386,1654
5387,1699
5388,1750
5389,1802
5390,1840
5391,1866
5392,1886
5393,2238
5394,1408
5395,2355
5396,2899
5397,2960
5398,2885
5399,2294
5400,1045
5401,723
5402,1136
5403,1451
5404,1618
5405,1813
5406,1928
5407,1952
5408,2000
5409,2064
5410,2075
5411,2042
5412,1963
5413,1859
5414,1759
5415,1683
5416,1648
5417,1663
5418,1712
5419,1765
5420,1810
5421,1847
5422,1877
5423,1899
5424,2491
5425,1063
5426,2224
5427,2890
5428,3133
5429,3037
5430,2359
5431,985
5432,598
5433,1097
5434,1414
5435,1600
5436,1807
5437,1959
5438,1993
5439,2019
5440,2066
5441,2096
5442,2076
5443,2000
5444,1885
5445,1778
5446,1682
5447,1642
5448,1654
5449,1705
5450,1771
5451,1810
5452,1840
5453,1850
5454,1859
5455,1900
5456,802
5457,2055
5458,2766
5459,2976
5460,2967
5461,2431
5462,1233
5463,743
5464,1113
5465,1424
5466,1603
5467,1790
5468,1946
5469,1987
5470,2017
5471,2058
5472,2090
5473,2066
5474,1998
5475,1887
5476,1775
5477,1687
5478,1661
5479,1660
5480,1689
5481,1744
5482,1801
5483,1830
5484,1851
5485,1881
5486,1899
5487,656
5488,1961
5489,2736
5490,3063
5491,3051
5492,2421
5493,1209
5494,678
5495,1075
5496,1392
5497,1575
5498,1772
5499,1953
5500,2019
5501,2063
5502,2091
5503,2096
5504,2065
5505,1996
5506,1887
5507,1776
5508,1682
5509,1623
5510,1611
5511,1661
5512,1741
5513,1804
5514,1843
5515,1872
5516,1888
5517,1902
5518,703
5519,1783
5520,2608
5521,2992
5522,3008
5523,2529
5524,1390
5525,727
5526,1104
5527,1389
5528,1535
5529,1753
5530,1952
5531,2032
5532,2065
5533,2082
5534,2098
5535,2078
5536,2003
5537,1895
5538,1777
5539,1679
5540,1615
5541,1614
5542,1661
5543,1729
5544,1792
5545,1840
5546,1867
5547,1879
5548,1895
5549,1253
5550,1607
5551,2487
5552,2965
5553,2992
5554,2608
5555,1609
5556,784
5557,1039
5558,1338
5559,1511
5560,1696
5561,1904
5562,2007
5563,2052
5564,2075
5565,2102
5566,2097
5567,2042
5568,1935
5569,1806
5570,1686
5571,1619
5572,1621
5573,1662
5574,1718
5575,1778
5576,1818
5577,1844
5578,1866
5579,1899
5580,2183
5581,1419
5582,2368
5583,2907
5584,3023
5585,2755
5586,1847
5587,867
5588,935
5589,1278
5590,1467
5591,1657
5592,1873
5593,2002
5594,2057
5595,2087
5596,2097
5597,2089
5598,2039
5599,1947
5600,1840
5601,1732
5602,1645
5603,1609
5604,1606
5605,1680
5606,1758
5607,1809
5608,1841
5609,1873
5610,1895
5611,2897
5612,1191
5613,2256
5614,2917
5615,3063
5616,2823
5617,1904
5618,877
5619,938
5620,1282
5621,1463
5622,1631
5623,1849
5624,1977
5625,2045
5626,2084
5627,2107
5628,2101
5629,2045
5630,1953
5631,1837
5632,1718
5633,1635
5634,1612
5635,1645
5636,1695
5637,1751
5638,1798
5639,1827
5640,1854
5641,1876
5642,2070
5643,930
5644,2129
5645,2836
5646,3022
5647,2881
5648,2107
5649,976
5650,909
5651,1260
5652,1457
5653,1614
5654,1810
5655,1955
5656,2032
5657,2075
5658,2101
5659,2103
5660,2065
5661,1981
5662,1858
5663,1743
5664,1647
5665,1616
5666,1643
5667,1694
5668,1759
5669,1807
5670,1840
5671,1869
5672,1887
5673,1899
5674,690
5675,1982
5676,2752
5677,3015
5678,2927
5679,2192
5680,1153
5681,881
5682,1229
5683,1447
5684,1607
5685,1814
5686,1974
5687,2059
5688,2091
5689,2109
5690,2097
5691,2047
5692,1963
5693,1843
5694,1735
5695,1648
5696,1609
5697,1626
5698,1678
5699,1754
5700,1817
5701,1850
5702,1870
5703,1891
5704,1900
5705,631
5706,1845
5707,2653
5708,2958
5709,2950
5710,2371
5711,1254
5712,881
5713,1210
5714,1421
5715,1574
5716,1776
5717,1942
5718,2017
5719,2067
5720,2094
5721,2097
5722,2080
5723,2004
5724,1881
5725,1758
5726,1659
5727,1635
5728,1648
5729,1680
5730,1744
5731,1798
5732,1839
5733,1863
5734,1888
5735,1903
5736,811
5737,1747
5738,2601
5739,3004
5740,2976
5741,2387
5742,1322
5743,866
5744,1158
5745,1406
5746,1563
5747,1756
5748,1947
5749,2047
5750,2083
5751,2109
5752,2105
5753,2069
5754,1970
5755,1863
5756,1742
5757,1645
5758,1589
5759,1600
5760,1680
5761,1751
5762,1814
5763,1861
5764,1879
5765,1895
5766,1904
5767,1723
5768,1520
5769,2437
5770,2973
5771,3025
5772,2588
5773,1535
5774,842
5775,1088
5776,1376
5777,1523
5778,1707
5779,1904
5780,2007
5781,2068
5782,2100
5783,2110
5784,2073
5785,2019
5786,1915
5787,1782
5788,1667
5789,1604
5790,1603
5791,1659
5792,1729
5793,1787
5794,1827
5795,1858
5796,1887
5797,1906
5798,2834
5799,1305
5800,2323
5801,2895
5802,2959
5803,2685
5804,1776
5805,919
5806,1072
5807,1362
5808,1512
5809,1679
5810,1880
5811,2000
5812,2059
5813,2096
5814,2105
5815,2090
5816,2017
5817,1920
5818,1819
5819,1711
5820,1616
5821,1597
5822,1642
5823,1709
5824,1772
5825,1818
5826,1840
5827,1862
5828,1887
5829,1913
5830,1919
5831,1920
5832,1921
5833,1915
5834,1910
5835,1904
5836,1899
5837,1895
5838,1887
5839,1882
5840,1872
5841,1875
5842,1875
5843,1876
5844,1872
5845,1872
5846,1873
5847,1870
5848,1872
5849,1872
5850,1865
5851,1865
5852,1866
5853,1861
5854,1856
5855,1857
5856,1857
5857,1855
5858,1856
5859,1863
5860,1861
5861,1866
5862,1869
5863,1870
5864,1869
5865,1872
5866,1871
5867,1865
5868,1866
5869,1862
5870,1857
5871,1856
5872,1857
5873,1857
5874,1850
5875,1856
5876,1859
5877,1857
5878,1857
5879,1868
5880,1870
5881,1873
5882,1873
5883,1871
5884,1871
5885,1872
5886,1862
5887,1861
5888,1856
5889,1855
5890,1856
5891,1857
5892,1857
5893,1859
5894,1862
5895,1865
5896,1870
5897,1871
5898,1875
5899,1875
5900,1872
5901,1869
5902,1861
5903,1858
5904,1851
5905,1855
5906,1853
5907,1853
5908,1855
5909,1867
5910,1863
5911,1870
5912,1862
5913,1870
5914,1872
5915,1872
5916,1871
5917,1869
5918,1868
5919,1863
5920,1859
5921,1859
5922,1857
5923,1856
5924,1856
5925,1857
5926,1860
5927,1858
5928,1861
5929,1874
5930,1882
5931,1879
5932,1869
5933,1872
5934,1880
5935,1887
5936,1887
5937,1899
5938,1917
5939,1936
5940,1958
5941,1886
5942,1758
5943,1679
5944,1762
5945,1808
5946,1817
5947,1823
5948,1853
5949,1874
5950,1877
5951,1862
5952,1855
5953,1852
5954,1846
5955,1846
5956,1857
5957,1865
5958,1868
5959,1868
5960,1870
5961,1870
5962,1869
5963,1872
5964,1870
5965,1869
5966,1866
5967,1862
5968,1866
5969,1865
5970,1861
5971,1856
5972,1859
5973,1858
5974,1853
5975,1856
5976,1860
5977,1861
5978,1866
5979,1869
5980,1869
5981,1872
5982,1872
5983,1872
5984,1870
5985,1869
5986,1861
5987,1856
5988,1856
5989,1858
5990,1859
5991,1864
5992,1866
5993,1857
5994,1855
5995,1856
5996,1858
5997,1861
5998,1863
5999,1872
6000,1870
6001,1869
6002,1871
6003,1867
6004,1866
6005,1863
6006,1865
6007,1859
6008,1861
6009,1867
6010,1866
6011,1867
6012,1870
6013,1872
6014,1870
6015,1872
6016,1872
6017,1871
6018,1865
6019,1867
6020,1861
6021,1858
6022,1862
6023,1862
6024,1854
6025,1855
6026,1856
6027,1859
6028,1859
6029,1858
6030,1861
6031,1861
6032,1872
6033,1872
6034,1871
6035,1870
6036,1862
6037,1861
6038,1856
6039,1856
6040,1860
6041,1859
6042,1869
6043,1871
6044,1869
6045,1868
6046,1872
6047,1869
6048,1872
6049,1872
6050,1872
6051,1871
6052,1869
6053,1866
6054,1857
6055,1856
6056,1855
6057,1856
6058,1856
6059,1871
6060,1865
6061,1867
6062,1866
6063,1870
6064,1870
6065,1871
6066,1871
6067,1869
6068,1869
6069,1871
6070,1862
6071,1859
6072,1857
6073,1857
6074,1855
6075,1858
6076,1867
6077,1865
6078,1866
6079,1870
6080,1870
6081,1872
6082,1873
6083,1871
6084,1858
6085,1863
6086,1857
6087,1857
6088,1852
6089,1858
6090,1857
6091,1853
6092,1861
6093,1859
6094,1869
6095,1867
6096,1872
6097,1872
6098,1872
6099,1872
6100,1872
6101,1870
6102,1871
6103,1865
6104,1863
6105,1861
6106,1862
6107,1854
6108,1846
6109,1859
6110,1856
6111,1863
6112,1865
6113,1865
6114,1856
6115,1858
6116,1857
6117,1851
6118,1850
6119,1840
6120,1850
6121,1856
6122,1857
6123,1857
6124,1854
6125,1856
6126,1856
6127,1854
6128,1862
6129,1865
6130,1868
6131,1870
6132,1869
6133,1869
6134,1868
6135,1863
6136,1858
6137,1858
6138,1860
6139,1862
6140,1863
6141,1865
6142,1863
6143,1862
6144,1856
6145,1848
6146,1846
6147,1853
6148,1853
6149,1856
6150,1862
6151,1861
6152,1858
6153,1855
6154,1856
6155,1854
6156,1855
6157,1856
6158,1858
6159,1858
6160,1856
6161,1858
6162,1866
6163,1871
6164,1871
6165,1872
6166,1872
6167,1872
6168,1871
6169,1870
6170,1863
6171,1858
6172,1856
6173,1854
6174,1841
6175,1847
6176,1851
6177,1853
6178,1855
6179,1868
6180,1870
6181,1870
6182,1871
6183,1866
6184,1859
6185,1866
6186,1861
6187,1861
6188,1855
6189,1853
6190,1852
6191,1855
6192,1859
6193,1862
6194,1870
6195,1865
6196,1867
6197,1868
6198,1866
6199,1868
6200,1869
6201,1871
6202,1868
6203,1862
6204,1854
6205,1851
6206,1855
6207,1850
6208,1853
6209,1862
6210,1859
6211,1863
6212,1866
6213,1870
6214,1865
6215,1871
6216,1869
6217,1857
6218,1865
6219,1869
6220,1858
6221,1857
6222,1861
6223,1859
6224,1859
6225,1857
6226,1861
6227,1855
6228,1859
6229,1865
6230,1868
6231,1869
6232,1872
6233,1870
6234,1865
6235,1858
6236,1858
6237,1854
6238,1847
6239,1847
6240,1847
6241,1847
6242,1853
6243,1860
6244,1860
6245,1863
6246,1867
6247,1867
6248,1867
6249,1868
6250,1868
6251,1860
6252,1861
6253,1859
6254,1857
6255,1857
6256,1857
6257,1857
6258,1859
6259,1862
6260,1861
6261,1862
6262,1868
6263,1869
6264,1863
6265,1867
6266,1867
6267,1861
6268,1858
6269,1861
6270,1856
6271,1855
6272,1856
6273,1853
6274,1861
6275,1861
6276,1867
6277,1870
6278,1872
6279,1871
6280,1867
6281,1868
6282,1865
6283,1859
6284,1862
6285,1868
6286,1857
6287,1857
6288,1857
6289,1856
6290,1857
6291,1855
6292,1857
6293,1858
6294,1855
6295,1856
6296,1862
6297,1862
6298,1863
6299,1872
6300,1872
6301,1870
6302,1867
6303,1863
6304,1861
6305,1859
6306,1857
6307,1856
6308,1859
6309,1860
6310,1859
6311,1866
6312,1866
6313,1866
6314,1865
6315,1866
6316,1866
6317,1861
6318,1868
6319,1863
6320,1862
6321,1856
6322,1855
6323,1854
6324,1847
6325,1852
6326,1855
6327,1849
6328,1855
6329,1856
6330,1856
6331,1858
6332,1872
6333,1872
6334,1862
6335,1863
6336,1857
6337,1855
6338,1854
6339,1857
6340,1857
6341,1856
6342,1857
6343,1858
6344,1863
6345,1867
6346,1865
6347,1867
6348,1872
6349,1872
6350,1862
6351,1867
6352,1863
6353,1856
6354,1847
6355,1847
6356,1849
6357,1855
6358,1857
6359,1856
6360,1853
6361,1861
6362,1859
6363,1863
6364,1861
6365,1870
6366,1870
6367,1867
6368,1866
6369,1859
6370,1856
6371,1856
6372,1857
6373,1859
6374,1859
6375,1865
6376,1859
6377,1859
6378,1867
6379,1870
6380,1867
6381,1869
6382,1870
6383,1871
6384,1858
6385,1859
6386,1857
6387,1857
6388,1853
6389,1856
6390,1856
6391,1858
6392,1858
6393,1860
6394,1861
6395,1864
6396,1866
6397,1871
6398,1871
6399,1870
6400,1867
6401,1868
6402,1869
6403,1857
6404,1854
6405,1852
6406,1855
6407,1853
6408,1855
6409,1856
6410,1856
6411,1856
6412,1868
6413,1871
6414,1861
6415,1861
6416,1861
6417,1858
6418,1863
6419,1863
6420,1857
6421,1856
6422,1855
6423,1854
6424,1856
6425,1857
6426,1861
6427,1856
6428,1868
6429,1870
6430,1871
6431,1870
6432,1872
6433,1867
6434,1867
6435,1869
6436,1862
6437,1859
6438,1857
6439,1857
6440,1856
6441,1857
6442,1863
6443,1860
6444,1857
6445,1856
6446,1857
6447,1861
6448,1859
6449,1861
6450,1858
6451,1857
6452,1865
6453,1858
6454,1857
6455,1833
6456,1856
6457,1856
6458,1858
6459,1861
6460,1862
6461,1857
6462,1863
6463,1868
6464,1869
6465,1870
6466,1869
6467,1867
6468,1868
6469,1861
6470,1860
6471,1858
6472,1856
6473,1859
6474,1850
6475,1853
6476,1858
6477,1855
6478,1857
6479,1868
6480,1868
6481,1867
6482,1864
6483,1870
6484,1869
6485,1870
6486,1870
6487,1866
6488,1858
6489,1858
6490,1858
6491,1856
6492,1857
6493,1857
6494,1862
6495,1865
6496,1867
6497,1869
6498,1868
6499,1870
6500,1869
6501,1868
6502,1867
6503,1861
6504,1856
6505,1853
6506,1850
6507,1849
6508,1861
6509,1861
6510,1858
6511,1861
6512,1865
6513,1869
6514,1871
6515,1870
6516,1870
6517,1861
6518,1863
6519,1861
6520,1857
6521,1856
6522,1854
6523,1856
6524,1856
6525,1856
6526,1856
6527,1847
6528,1861
6529,1867
6530,1867
6531,1867
6532,1872
6533,1870
6534,1857
6535,1860
6536,1854
6537,1851
6538,1849
6539,1852
6540,1851
6541,1848
6542,1860
6543,1865
6544,1859
6545,1866
6546,1871
6547,1869
6548,1871
6549,1871
6550,1869
6551,1870
6552,1868
6553,1859
6554,1858
6555,1857
6556,1858
6557,1857
6558,1858
6559,1857
6560,1858
6561,1858
6562,1861
6563,1869
6564,1863
6565,1870
6566,1867
6567,1863
6568,1863
6569,1861
6570,1863
6571,1856
6572,1859
6573,1860
6574,1861
6575,1861
6576,1862
6577,1861
6578,1855
6579,1856
6580,1861
6581,1867
6582,1871
6583,1870
6584,1870
6585,1865
6586,1861
6587,1857
6588,1856
6589,1857
6590,1856
6591,1856
6592,1857
6593,1856
6594,1856
6595,1857
6596,1857
6597,1859
6598,1863
6599,1872
6600,1871
6601,1871
6602,1870
6603,1859
6604,1861
6605,1858
6606,1856
6607,1855
6608,1856
6609,1859
6610,1858
6611,1862
6612,1862
6613,1869
6614,1867
6615,1866
6616,1868
6617,1867
6618,1859
6619,1865
6620,1861
6621,1863
6622,1858
6623,1856
6624,1849
6625,1851
6626,1857
6627,1858
6628,1861
6629,1862
6630,1870
6631,1871
6632,1872
6633,1869
6634,1869
6635,1866
6636,1865
6637,1861
6638,1857
6639,1857
6640,1860
6641,1858
6642,1863
6643,1866
6644,1863
6645,1862
6646,1870
6647,1869
6648,1863
6649,1867
6650,1867
6651,1863
6652,1861
6653,1861
6654,1851
6655,1847
6656,1849
6657,1852
6658,1848
6659,1854
6660,1853
6661,1869
6662,1867
6663,1867
6664,1872
6665,1870
6666,1869
6667,1865
6668,1867
6669,1859
6670,1857
6671,1856
6672,1856
6673,1855
6674,1856
6675,1856
6676,1861
6677,1863
6678,1867
6679,1867
6680,1866
6681,1871
6682,1869
6683,1866
6684,1857
6685,1859
6686,1856
6687,1855
6688,1851
6689,1856
6690,1856
6691,1855
6692,1858
6693,1858
6694,1861
6695,1871
6696,1867
6697,1869
6698,1872
6699,1873
6700,1870
6701,1866
6702,1869
6703,1862
6704,1861
6705,1866
6706,1865
6707,1873
6708,1887
6709,1887
6710,1875
6711,1873
6712,1876
6713,1869
6714,1823
6715,1810
6716,1827
6717,1849
6718,1856
6719,1856
6720,1849
6721,1846
6722,1847
6723,1841
6724,1845
6725,1859
6726,1868
6727,1857
6728,1857
6729,1856
6730,1858
6731,1866
6732,1872
6733,1872
6734,1868
6735,1869
6736,1867
6737,1866
6738,1859
6739,1862
6740,1857
6741,1858
6742,1859
6743,1857
6744,1859
6745,1860
6746,1862
6747,1863
6748,1865
6749,1866
6750,1862
6751,1865
6752,1863
6753,1862
6754,1858
6755,1856
6756,1857
6757,1858
6758,1858
6759,1858
6760,1863
6761,1865
6762,1866
6763,1868
6764,1872
6765,1871
6766,1872
6767,1871
6768,1870
6769,1869
6770,1856
6771,1857
6772,1856
6773,1857
6774,1851
6775,1851
6776,1851
6777,1853
6778,1859
6779,1867
6780,1871
6781,1872
6782,1872
6783,1871
6784,1867
6785,1869
6786,1861
6787,1861
6788,1856
6789,1857
6790,1858
6791,1855
6792,1856
6793,1859
6794,1866
6795,1867
6796,1866
6797,1869
6798,1867
6799,1869
6800,1866
6801,1867
6802,1866
6803,1859
6804,1854
6805,1849
6806,1851
6807,1850
6808,1849
6809,1857
6810,1867
6811,1867
6812,1872
6813,1872
6814,1870
6815,1872
6816,1874
6817,1858
6818,1863
6819,1863
6820,1857
6821,1856
6822,1856
6823,1857
6824,1856
6825,1856
6826,629
6827,1678
6828,2265
6829,2464
6830,2633
6831,2778
6832,2816
6833,2626
6834,2062
6835,1191
6836,626
6837,865
6838,1319
6839,1584
6840,1712
6841,1805
6842,1920
6843,2010
6844,2096
6845,2163
6846,2160
6847,2096
6848,1970
6849,1809
6850,1648
6851,1521
6852,1488
6853,1509
6854,1568
6855,1639
6856,1712
6857,1642
6858,1418
6859,2279
6860,2636
6861,2823
6862,2848
6863,2706
6864,2321
6865,1520
6866,567
6867,657
6868,1227
6869,1598
6870,1783
6871,1925
6872,2020
6873,2086
6874,2146
6875,2177
6876,2161
6877,2096
6878,1971
6879,1831
6880,1698
6881,1604
6882,1566
6883,1590
6884,1648
6885,1718
6886,1781
6887,1816
6888,2495
6889,1301
6890,2294
6891,2767
6892,2901
6893,2807
6894,2588
6895,2062
6896,1103
6897,592
6898,1046
6899,1472
6900,1710
6901,1872
6902,1990
6903,2046
6904,2093
6905,2128
6906,2136
6907,2109
6908,2015
6909,1889
6910,1755
6911,1637
6912,1557
6913,1535
6914,1602
6915,1690
6916,1768
6917,1825
6918,1859
6919,2297
6920,997
6921,2162
6922,2735
6923,2885
6924,2776
6925,2514
6926,1842
6927,973
6928,743
6929,1185
6930,1522
6931,1732
6932,1890
6933,1981
6934,2021
6935,2082
6936,2129
6937,2131
6938,2090
6939,1986
6940,1853
6941,1715
6942,1606
6943,1531
6944,1560
6945,1618
6946,1711
6947,1776
6948,1823
6949,1860
6950,1879
6951,751
6952,2034
6953,2698
6954,2896
6955,2837
6956,2559
6957,1806
6958,871
6959,795
6960,1232
6961,1532
6962,1732
6963,1888
6964,1971
6965,2003
6966,2068
6967,2116
6968,2128
6969,2098
6970,1997
6971,1865
6972,1734
6973,1629
6974,1573
6975,1597
6976,1673
6977,1743
6978,1796
6979,1845
6980,1879
6981,1904
6982,624
6983,1918
6984,2675
6985,2993
6986,2991
6987,2739
6988,1963
6989,800
6990,682
6991,1198
6992,1520
6993,1718
6994,1899
6995,1978
6996,2007
6997,2054
6998,2095
6999,2093
7000,2032
7001,1938
7002,1829
7003,1715
7004,1639
7005,1618
7006,1651
7007,1707
7008,1760
7009,1803
7010,1835
7011,1872
7012,1903
7013,662
7014,1808
7015,2615
7016,2961
7017,2999
7018,2832
7019,2081
7020,778
7021,693
7022,1186
7023,1491
7024,1662
7025,1843
7026,1943
7027,1971
7028,2021
7029,2073
7030,2081
7031,2032
7032,1937
7033,1826
7034,1727
7035,1662
7036,1645
7037,1673
7038,1725
7039,1783
7040,1826
7041,1855
7042,1877
7043,1902
7044,1367
7045,1589
7046,2483
7047,3010
7048,3062
7049,2886
7050,2101
7051,795
7052,695
7053,1153
7054,1451
7055,1633
7056,1840
7057,1962
7058,2000
7059,2047
7060,2086
7061,2096
7062,2047
7063,1955
7064,1849
7065,1744
7066,1661
7067,1631
7068,1633
7069,1687
7070,1744
7071,1802
7072,1842
7073,1872
7074,1882
7075,2006
7076,1442
7077,2398
7078,3024
7079,3114
7080,2946
7081,2163
7082,804
7083,671
7084,1151
7085,1465
7086,1615
7087,1823
7088,1957
7089,1997
7090,2025
7091,2064
7092,2064
7093,2059
7094,1987
7095,1867
7096,1751
7097,1648
7098,1616
7099,1655
7100,1713
7101,1776
7102,1823
7103,1855
7104,1869
7105,1882
7106,2711
7107,1113
7108,2217
7109,2908
7110,2974
7111,2853
7112,2207
7113,998
7114,770
7115,1196
7116,1486
7117,1629
7118,1810
7119,1954
7120,1999
7121,2043
7122,2091
7123,2098
7124,2064
7125,1982
7126,1872
7127,1767
7128,1654
7129,1600
7130,1619
7131,1679
7132,1757
7133,1810
7134,1833
7135,1856
7136,1881
7137,1977
7138,850
7139,2085
7140,2843
7141,3120
7142,3010
7143,2288
7144,949
7145,653
7146,1152
7147,1437
7148,1590
7149,1790
7150,1962
7151,2027
7152,2058
7153,2075
7154,2079
7155,2047
7156,1973
7157,1856
7158,1744
7159,1659
7160,1616
7161,1630
7162,1691
7163,1770
7164,1824
7165,1860
7166,1871
7167,1883
7168,1891
7169,658
7170,1951
7171,2736
7172,3140
7173,3117
7174,2471
7175,1107
7176,546
7177,1040
7178,1388
7179,1556
7180,1755
7181,1933
7182,2022
7183,2064
7184,2096
7185,2117
7186,2098
7187,2025
7188,1904
7189,1766
7190,1648
7191,1600
7192,1615
7193,1674
7194,1739
7195,1798
7196,1842
7197,1871
7198,1888
7199,1911
7200,667
7201,1823
7202,2629
7203,2942
7204,2918
7205,2496
7206,1382
7207,700
7208,1077
7209,1393
7210,1583
7211,1763
7212,1954
7213,2060
7214,2095
7215,2117
7216,2116
7217,2084
7218,2013
7219,1898
7220,1769
7221,1664
7222,1599
7223,1606
7224,1647
7225,1709
7226,1776
7227,1822
7228,1856
7229,1886
7230,1906
7231,1119
7232,1677
7233,2544
7234,3111
7235,3152
7236,2674
7237,1478
7238,604
7239,960
7240,1351
7241,1525
7242,1702
7243,1904
7244,2011
7245,2065
7246,2099
7247,2122
7248,2102
7249,2031
7250,1926
7251,1809
7252,1705
7253,1627
7254,1591
7255,1629
7256,1707
7257,1767
7258,1818
7259,1850
7260,1883
7261,1906
7262,1924
7263,1488
7264,2422
7265,3055
7266,3189
7267,2832
7268,1723
7269,599
7270,880
7271,1296
7272,1491
7273,1664
7274,1862
7275,1991
7276,2064
7277,2112
7278,2128
7279,2114
7280,2059
7281,1948
7282,1823
7283,1709
7284,1629
7285,1623
7286,1655
7287,1705
7288,1762
7289,1813
7290,1843
7291,1861
7292,1885
7293,2927
7294,1251
7295,2294
7296,2957
7297,3104
7298,2865
7299,1899
7300,778
7301,910
7302,1285
7303,1486
7304,1646
7305,1846
7306,1984
7307,2053
7308,2092
7309,2112
7310,2097
7311,2038
7312,1942
7313,1819
7314,1701
7315,1622
7316,1611
7317,1643
7318,1703
7319,1761
7320,1810
7321,1854
7322,1883
7323,1906
7324,2224
7325,991
7326,2202
7327,2895
7328,3053
7329,2903
7330,2067
7331,906
7332,827
7333,1248
7334,1461
7335,1616
7336,1824
7337,1984
7338,2062
7339,2103
7340,2128
7341,2112
7342,2047
7343,1952
7344,1814
7345,1709
7346,1630
7347,1637
7348,1664
7349,1709
7350,1767
7351,1819
7352,1854
7353,1872
7354,1882
7355,1911
7356,816
7357,2064
7358,2841
7359,3187
7360,3042
7361,2167
7362,871
7363,767
7364,1215
7365,1450
7366,1602
7367,1805
7368,1968
7369,2057
7370,2093
7371,2111
7372,2112
7373,2067
7374,1968
7375,1846
7376,1719
7377,1627
7378,1597
7379,1629
7380,1698
7381,1769
7382,1821
7383,1851
7384,1873
7385,1895
7386,1903
7387,624
7388,1879
7389,2679
7390,2974
7391,2943
7392,2343
7393,1140
7394,784
7395,1204
7396,1480
7397,1618
7398,1794
7399,1969
7400,2047
7401,2083
7402,2110
7403,2110
7404,2064
7405,1987
7406,1883
7407,1744
7408,1642
7409,1587
7410,1618
7411,1671
7412,1743
7413,1803
7414,1834
7415,1863
7416,1891
7417,1904
7418,880
7419,1758
7420,2614
7421,3122
7422,3151
7423,2543
7424,1273
7425,633
7426,1070
7427,1359
7428,1530
7429,1730
7430,1931
7431,2035
7432,2097
7433,2133
7434,2128
7435,2087
7436,1999
7437,1893
7438,1790
7439,1680
7440,1589
7441,1585
7442,1639
7443,1694
7444,1769
7445,1825
7446,1867
7447,1894
7448,1908
7449,1921
7450,1927
7451,1922
7452,1920
7453,1911
7454,1902
7455,1899
7456,1891
7457,1888
7458,1886
7459,1885
7460,1879
7461,1882
7462,1886
7463,1882
7464,1873
7465,1872
7466,1872
7467,1870
7468,1870
7469,1868
7470,1863
7471,1860
7472,1858
7473,1858
7474,1856
7475,1859
7476,1863
7477,1858
7478,1867
7479,1869
7480,1872
7481,1871
7482,1863
7483,1869
7484,1866
7485,1868
7486,1865
7487,1863
7488,1860
7489,1859
7490,1854
7491,1854
7492,1856
7493,1859
7494,1855
7495,1860
7496,1865
7497,1867
7498,1870
7499,1872
7500,1871
7501,1871
7502,1862
7503,1853
7504,1855
7505,1855
7506,1856
7507,1859
7508,1857
7509,1859
7510,1856
7511,1865
7512,1873
7513,1872
7514,1872
7515,1873
7516,1877
7517,1872
7518,1875
7519,1868
7520,1858
7521,1857
7522,1861
7523,1862
7524,1867
7525,1883
7526,1903
7527,1874
7528,1863
7529,1856
7530,1887
7531,1909
7532,1886
7533,1863
7534,1843
7535,1820
7536,1827
7537,1842
7538,1857
7539,1870
7540,1856
7541,1846
7542,1859
7543,1883
7544,1907
7545,1927
7546,1910
7547,1877
7548,1853
7549,1806
7550,1821
7551,1831
7552,1857
7553,1872
7554,1853
7555,1874
7556,1919
7557,1917
7558,1906
7559,1874
7560,1776
7561,1743
7562,1766
7563,1822
7564,1841
7565,1861
7566,1870
7567,1859
7568,1860
7569,1887
7570,1899
7571,1904
7572,1905
7573,1889
7574,1843
7575,1786
7576,1808
7577,1817
7578,1839
7579,1856
7580,1872
7581,1877
7582,1880
7583,1874
7584,1845
7585,1849
7586,1856
7587,1854
7588,1857
7589,1860
7590,1855
7591,1861
7592,1857
7593,1858
7594,1861
7595,1866
7596,1871
7597,1874
7598,1873
7599,1872
7600,1870
7601,1867
7602,1869
7603,1867
7604,1862
7605,1859
7606,1856
7607,1856
7608,1855
7609,1864
7610,1863
7611,1863
7612,1865
7613,1868
7614,1862
7615,1859
7616,1863
7617,1862
7618,1857
7619,1855
7620,1847
7621,1859
7622,1857
7623,1856
7624,1853
7625,1854
7626,1860
7627,1862
7628,1855
7629,1861
7630,1870
7631,1871
7632,1872
7633,1871
7634,1869
7635,1867
7636,1863
7637,1858
7638,1857
7639,1859
7640,1859
7641,1856
7642,1862
7643,1861
7644,1857
7645,1856
7646,1858
7647,1869
7648,1872
7649,1871
7650,1867
7651,1870
7652,1872
7653,1870
7654,1877
7655,1881
7656,1873
7657,1863
7658,1853
7659,1829
7660,1830
7661,1851
7662,1883
7663,1900
7664,1904
7665,1904
7666,1891
7667,1837
7668,1822
7669,1855
7670,1874
7671,1851
7672,1841
7673,1833
7674,1811
7675,1840
7676,1847
7677,1841
7678,1847
7679,1861
7680,1872
7681,1867
7682,1863
7683,1872
7684,1872
7685,1874
7686,1877
7687,1868
7688,1866
7689,1859
7690,1853
7691,1855
7692,1856
7693,1866
7694,1867
7695,1866
7696,1871
7697,1872
7698,1872
7699,1872
7700,1871
7701,1870
7702,1872
7703,1863
7704,1854
7705,1851
7706,1850
7707,1851
7708,1855
7709,1861
7710,1859
7711,1865
7712,1868
7713,1870
7714,1870
7715,1869
7716,1871
7717,1856
7718,1863
7719,1869
7720,1863
7721,1866
7722,1866
7723,1862
7724,1862
7725,1863
7726,1864
7727,1854
7728,1859
7729,1858
7730,1867
7731,1872
7732,1871
7733,1870
7734,1861
7735,1867
7736,1861
7737,1858
7738,1854
7739,1837
7740,1834
7741,1840
7742,1859
7743,1871
7744,1872
7745,1870
7746,1861
7747,1869
7748,1867
7749,1872
7750,1871
7751,1867
7752,1867
7753,1857
7754,1855
7755,1856
7756,1867
7757,1862
7758,1871
7759,1898
7760,1912
7761,1898
7762,1866
7763,1869
7764,1877
7765,1857
7766,1836
7767,1808
7768,1808
7769,1839
7770,1840
7771,1840
7772,1843
7773,1857
7774,1867
7775,1871
7776,1869
7777,1856
7778,1858
7779,1870
7780,1866
7781,1856
7782,1866
7783,1872
7784,1872
7785,1872
7786,1872
7787,1866
7788,1860
7789,1860
7790,1857
7791,1856
7792,1859
7793,1869
7794,1861
7795,1868
7796,1865
7797,1867
7798,1866
7799,1872
7800,1871
7801,1865
7802,1867
7803,1859
7804,1857
7805,1856
7806,1861
7807,1857
7808,1855
7809,1856
7810,1859
7811,1868
7812,1870
7813,1872
7814,1872
7815,1873
7816,1872
7817,1859
7818,1859
7819,1858
7820,1851
7821,1854
7822,1854
7823,1856
7824,1844
7825,1841
7826,1850
7827,1851
7828,1862
7829,1856
7830,1858
7831,1859
7832,1862
7833,1863
7834,1871
7835,1870
7836,1858
7837,1855
7838,1853
7839,1854
7840,1855
7841,1856
7842,1861
7843,1866
7844,1862
7845,1866
7846,1865
7847,1866
7848,1867
7849,1869
7850,1871
7851,1874
7852,1881
7853,1873
7854,1871
7855,1871
7856,1863
7857,1844
7858,1837
7859,1852
7860,1856
7861,1841
7862,1840
7863,1849
7864,1856
7865,1869
7866,1871
7867,1870
7868,1879
7869,1891
7870,1899
7871,1904
7872,1901
7873,1911
7874,1893
7875,1873
7876,1872
7877,1835
7878,1814
7879,1795
7880,1787
7881,1808
7882,1836
7883,1849
7884,1854
7885,1856
7886,1853
7887,1853
7888,1853
7889,1861
7890,1861
7891,1861
7892,1872
7893,1871
7894,1861
7895,1858
7896,1861
7897,1869
7898,1869
7899,1869
7900,1866
7901,1866
7902,1863
7903,1863
7904,1857
7905,1858
7906,1855
7907,1856
7908,1856
7909,1861
7910,1861
7911,1863
7912,1865
7913,1871
7914,1861
7915,1859
7916,1861
7917,1857
7918,1853
7919,1857
7920,1850
7921,1846
7922,1851
7923,1850
7924,1853
7925,1858
7926,1858
7927,1845
7928,1859
7929,1860
7930,1866
7931,1867
7932,1865
7933,1863
7934,1862
7935,1866
7936,1867
7937,1856
7938,1856
7939,1856
7940,1855
7941,1855
7942,1855
7943,1858
7944,1850
7945,1856
7946,1860
7947,1859
7948,1857
7949,1859
7950,1859
7951,1856
7952,1861
7953,1861
7954,1856
7955,1855
7956,1856
7957,1854
7958,1855
7959,1859
7960,1859
7961,1861
7962,1863
7963,1865
7964,1868
7965,1872
7966,1872
7967,1871
7968,1869
7969,1869
7970,1865
7971,1858
7972,1854
7973,1851
7974,1840
7975,1845
7976,1855
7977,1856
7978,1857
7979,1867
7980,1871
7981,1874
7982,1876
7983,1872
7984,1871
7985,1869
7986,1865
7987,1863
7988,1861
7989,1855
7990,1853
7991,1858
7992,1862
7993,1863
7994,1867
7995,1867
7996,1865
7997,1849
7998,1847
7999,1855
8000,1866
8001,1871
8002,1871
8003,1872
8004,1861
8005,1858
8006,1856
8007,1842
8008,1835
8009,1845
8010,1856
8011,1862
8012,1862
8013,1867
8014,1870
8015,1872
8016,1872
8017,1867
8018,1872
8019,1870
8020,1862
8021,1859
8022,1854
8023,1855
8024,1856
8025,1856
8026,1859
8027,1855
8028,1862
8029,1866
8030,1870
8031,1871
8032,1871
8033,1872
8034,1860
8035,1862
8036,1862
8037,1856
8038,1853
8039,1857
8040,1853
8041,1851
8042,1867
8043,1868
8044,1861
8045,1863
8046,1862
8047,1867
8048,1867
8049,1869
8050,1870
8051,1866
8052,1865
8053,1863
8054,1857
8055,1856
8056,1857
8057,1856
8058,1859
8059,1859
8060,1866
8061,1867
8062,1866
8063,1870
8064,1863
8065,1862
8066,1866
8067,1856
8068,1856
8069,1863
8070,1859
8071,1862
8072,1857
8073,1861
8074,1858
8075,1861
8076,1860
8077,1861
8078,1866
8079,1866
8080,1872
8081,1870
8082,1871
8083,1872
8084,1871
8085,1871
8086,1861
8087,1861
8088,1856
8089,1858
8090,1857
8091,1856
8092,1863
8093,1857
8094,1856
8095,1857
8096,1857
8097,1861
8098,1863
8099,1872
8100,1871
8101,1866
8102,1866
8103,1861
8104,1857
8105,1854
8106,1854
8107,1853
8108,1850
8109,1853
8110,1859
8111,1857
8112,1865
8113,1866
8114,1871
8115,1870
8116,1871
8117,1847
8118,1866
8119,1863
8120,1859
8121,1855
8122,1856
8123,1856
8124,1849
8125,1850
8126,1854
8127,1854
8128,1859
8129,1857
8130,1860
8131,1862
8132,1870
8133,1872
8134,1867
8135,1867
8136,1861
8137,1856
8138,1857
8139,1855
8140,1856
8141,1855
8142,1857
8143,1860
8144,1859
8145,1863
8146,1863
8147,1871
8148,1867
8149,1870
8150,1871
8151,1867
8152,1866
8153,1861
8154,1855
8155,1847
8156,1852
8157,1849
8158,1851
8159,1859
8160,1862
8161,1861
8162,1866
8163,1866
8164,1867
8165,1869
8166,1869
8167,1867
8168,1869
8169,1867
8170,1863
8171,1858
8172,1858
8173,1858
8174,1857
8175,1860
8176,1863
8177,1859
8178,1872
8179,1865
8180,1871
8181,1872
8182,1872
8183,1874
8184,1863
8185,1863
8186,1858
8187,1855
8188,1858
8189,1860
8190,1859
8191,1857
8192,1860
8193,1862
8194,1863
8195,1868
8196,1866
8197,1872
8198,1870
8199,1872
8200,1869
8201,1868
8202,1868
8203,1863
8204,1861
8205,1857
8206,1858
8207,1856
8208,1860
8209,1861
8210,1867
8211,1865
8212,1867
8213,1869
8214,1863
8215,1863
8216,1859
8217,1862
8218,1862
8219,1858
8220,1855
8221,1859
8222,1858
8223,1856
8224,1856
8225,1857
8226,1860
8227,1856
8228,1869
8229,1869
8230,1867
8231,1872
8232,1872
8233,1872
8234,1872
8235,1872
8236,1867
8237,1863
8238,1857
8239,1855
8240,1856
8241,1856
8242,1861
8243,1866
8244,1857
8245,1862
8246,1858
8247,1867
8248,1869
8249,1868
8250,1870
8251,1869
8252,1871
8253,1867
8254,1863
8255,1858
8256,1862
8257,1857
8258,1856
8259,1863
8260,1860
8261,1863
8262,1865
8263,1867
8264,1871
8265,1872
8266,1872
8267,1870
8268,1869
8269,1870
8270,1863
8271,1860
8272,1856
8273,1856
8274,1850
8275,1853
8276,1853
8277,1856
8278,1856
8279,1870
8280,1870
8281,1872
8282,1869
8283,1872
8284,1869
8285,1870
8286,1866
8287,1860
8288,1857
8289,1858
8290,1858
8291,1856
8292,1861
8293,1859
8294,1860
8295,1863
8296,1867
8297,1869
8298,1869
8299,1872
8300,1870
8301,1868
8302,1867
8303,1862
8304,1856
8305,1851
8306,1856
8307,1849
8308,1854
8309,1859
8310,1859
8311,1862
8312,1866
8313,1863
8314,1871
8315,1870
8316,1870
8317,1865
8318,1865
8319,1867
8320,1867
8321,1862
8322,1857
8323,1863
8324,1855
8325,1856
8326,1861
8327,1857
8328,1865
8329,1869
8330,1871
8331,1871
8332,1871
8333,1872
8334,1863
8335,1861
8336,1858
8337,1853
8338,1849
8339,1849
8340,1845
8341,1852
8342,1860
8343,1861
8344,1862
8345,1867
8346,1869
8347,1872
8348,1871
8349,1872
8350,1869
8351,1869
8352,1867
8353,1867
8354,1860
8355,1857
8356,1856
8357,1856
8358,1856
8359,1856
8360,1861
8361,1863
8362,1867
8363,1869
8364,1863
8365,1865
8366,1863
8367,1862
8368,1860
8369,1869
8370,1869
8371,1862
8372,1857
8373,1857
8374,1855
8375,1863
8376,1861
8377,1856
8378,1867
8379,1868
8380,1872
8381,1872
8382,1871
8383,1871
8384,1872
8385,1871
8386,1869
8387,1862
8388,1858
8389,1857
8390,1859
8391,1856
8392,1856
8393,1867
8394,1855
8395,1857
8396,1861
8397,1865
8398,1864
8399,1871
8400,1871
8401,1867
8402,1870
8403,1863
8404,1859
8405,1855
8406,1856
8407,1857
8408,1856
8409,1858
8410,1861
8411,1861
8412,1865
8413,1869
8414,1869
8415,1870
8416,1870
8417,1861
8418,1867
8419,1868
8420,1865
8421,1857
8422,1858
8423,1858
8424,1852
8425,1850
8426,1853
8427,1856
8428,1857
8429,1860
8430,1861
8431,1863
8432,1871
8433,1871
8434,1867
8435,1868
8436,1866
8437,1859
8438,1858
8439,1858
8440,1856
8441,1854
8442,1854
8443,1857
8444,1858
8445,1872
8446,726
8447,1934
8448,2310
8449,2480
8450,2697
8451,2852
8452,2896
8453,2627
8454,1922
8455,1014
8456,562
8457,871
8458,1344
8459,1600
8460,1728
8461,1823
8462,1920
8463,2007
8464,2098
8465,2159
8466,2133
8467,2035
8468,1903
8469,1734
8470,1584
8471,1487
8472,1474
8473,1520
8474,1600
8475,1675
8476,1739
8477,560
8478,1813
8479,2415
8480,2655
8481,2832
8482,2870
8483,2727
8484,2213
8485,1227
8486,409
8487,659
8488,1262
8489,1638
8490,1861
8491,1989
8492,2062
8493,2112
8494,2152
8495,2161
8496,2130
8497,2038
8498,1907
8499,1778
8500,1671
8501,1595
8502,1578
8503,1600
8504,1666
8505,1735
8506,1802
8507,1843
8508,762
8509,1729
8510,2494
8511,2822
8512,2911
8513,2827
8514,2559
8515,1890
8516,818
8517,560
8518,1119
8519,1533
8520,1774
8521,1936
8522,1997
8523,2035
8524,2096
8525,2129
8526,2130
8527,2066
8528,1966
8529,1831
8530,1707
8531,1611
8532,1567
8533,1584
8534,1642
8535,1713
8536,1780
8537,1827
8538,1862
8539,1612
8540,1511
8541,2417
8542,2835
8543,2895
8544,2770
8545,2434
8546,1633
8547,743
8548,807
8549,1291
8550,1599
8551,1799
8552,1930
8553,1984
8554,2007
8555,2070
8556,2112
8557,2117
8558,2069
8559,1952
8560,1813
8561,1682
8562,1593
8563,1535
8564,1577
8565,1647
8566,1727
8567,1791
8568,1837
8569,1870
8570,2768
8571,1297
8572,2289
8573,2803
8574,2893
8575,2805
8576,2387
8577,1486
8578,736
8579,946
8580,1370
8581,1629
8582,1827
8583,1958
8584,2000
8585,2029
8586,2075
8587,2099
8588,2085
8589,2016
8590,1924
8591,1807
8592,1682
8593,1599
8594,1557
8595,1589
8596,1672
8597,1758
8598,1823
8599,1862
8600,1890
8601,2763
8602,1149
8603,2213
8604,2749
8605,2901
8606,2884
8607,2449
8608,1504
8609,742
8610,957
8611,1331
8612,1585
8613,1795
8614,1939
8615,2005
8616,2037
8617,2066
8618,2076
8619,2054
8620,1983
8621,1885
8622,1787
8623,1702
8624,1649
8625,1629
8626,1646
8627,1694
8628,1766
8629,1821
8630,1863
8631,1881
8632,1903
8633,811
8634,2032
8635,2671
8636,2917
8637,3002
8638,2657
8639,1693
8640,685
8641,842
8642,1264
8643,1525
8644,1763
8645,1939
8646,1979
8647,1991
8648,2031
8649,2061
8650,2045
8651,1998
8652,1905
8653,1808
8654,1723
8655,1653
8656,1631
8657,1649
8658,1719
8659,1782
8660,1837
8661,1863
8662,1891
8663,1910
8664,634
8665,1920
8666,2686
8667,3023
8668,3047
8669,2746
8670,1761
8671,624
8672,769
8673,1244
8674,1494
8675,1730
8676,1922
8677,2001
8678,2013
8679,2027
8680,2056
8681,2061
8682,1997
8683,1898
8684,1791
8685,1700
8686,1641
8687,1632
8688,1680
8689,1739
8690,1799
8691,1841
8692,1878
8693,1900
8694,1915
8695,734
8696,1791
8697,2602
8698,2954
8699,2998
8700,2736
8701,1793
8702,707
8703,838
8704,1265
8705,1523
8706,1728
8707,1918
8708,1990
8709,2011
8710,2039
8711,2086
8712,2086
8713,2031
8714,1931
8715,1813
8716,1710
8717,1637
8718,1629
8719,1666
8720,1723
8721,1780
8722,1831
8723,1859
8724,1872
8725,1890
8726,1052
8727,1606
8728,2463
8729,3008
8730,3088
8731,2855
8732,1949
8733,710
8734,752
8735,1231
8736,1520
8737,1695
8738,1862
8739,1946
8740,1998
8741,2030
8742,2080
8743,2087
8744,2046
8745,1962
8746,1834
8747,1728
8748,1634
8749,1616
8750,1655
8751,1705
8752,1767
8753,1826
8754,1850
8755,1873
8756,1894
8757,2256
8758,1392
8759,2357
8760,3006
8761,3147
8762,2960
8763,2074
8764,720
8765,695
8766,1190
8767,1455
8768,1609
8769,1839
8770,1981
8771,2033
8772,2071
8773,2096
8774,2087
8775,2034
8776,1955
8777,1856
8778,1753
8779,1664
8780,1612
8781,1616
8782,1685
8783,1764
8784,1815
8785,1849
8786,1872
8787,1878
8788,2845
8789,1163
8790,2224
8791,2896
8792,3082
8793,2958
8794,2118
8795,845
8796,770
8797,1207
8798,1452
8799,1638
8800,1841
8801,1982
8802,2042
8803,2075
8804,2096
8805,2094
8806,2047
8807,1967
8808,1860
8809,1745
8810,1648
8811,1611
8812,1631
8813,1682
8814,1750
8815,1814
8816,1861
8817,1882
8818,1893
8819,2229
8820,995
8821,2144
8822,2859
8823,3119
8824,3029
8825,2241
8826,795
8827,662
8828,1143
8829,1436
8830,1621
8831,1825
8832,1985
8833,2061
8834,2096
8835,2118
8836,2112
8837,2062
8838,1958
8839,1840
8840,1728
8841,1643
8842,1616
8843,1639
8844,1680
8845,1747
8846,1809
8847,1847
8848,1872
8849,1891
8850,1903
8851,681
8852,1979
8853,2770
8854,3065
8855,2995
8856,2383
8857,1083
8858,661
8859,1115
8860,1402
8861,1584
8862,1783
8863,1962
8864,2035
8865,2091
8866,2128
8867,2125
8868,2086
8869,2007
8870,1902
8871,1776
8872,1655
8873,1600
8874,1597
8875,1649
8876,1727
8877,1787
8878,1832
8879,1863
8880,1892
8881,1907
8882,643
8883,1851
8884,2670
8885,3129
8886,3152
8887,2539
8888,1201
8889,593
8890,1042
8891,1377
8892,1535
8893,1753
8894,1941
8895,2039
8896,2091
8897,2128
8898,2128
8899,2095
8900,2000
8901,1885
8902,1765
8903,1664
8904,1605
8905,1613
8906,1655
8907,1721
8908,1778
8909,1835
8910,1866
8911,1892
8912,1907
8913,1051
8914,1693
8915,2547
8916,3066
8917,3121
8918,2687
8919,1473
8920,600
8921,963
8922,1331
8923,1535
8924,1730
8925,1919
8926,2014
8927,2065
8928,2097
8929,2121
8930,2096
8931,2026
8932,1918
8933,1798
8934,1682
8935,1628
8936,1617
8937,1654
8938,1711
8939,1773
8940,1815
8941,1845
8942,1877
8943,1898
8944,1500
8945,1571
8946,2464
8947,3065
8948,3119
8949,2727
8950,1582
8951,631
8952,959
8953,1322
8954,1505
8955,1698
8956,1906
8957,2013
8958,2064
8959,2096
8960,2115
8961,2101
8962,2043
8963,1951
8964,1823
8965,1707
8966,1623
8967,1603
8968,1643
8969,1716
8970,1783
8971,1823
8972,1851
8973,1881
8974,1899
8975,2900
8976,1285
8977,2308
8978,3003
8979,3173
8980,2880
8981,1817
8982,702
8983,870
8984,1265
8985,1466
8986,1648
8987,1867
8988,2000
8989,2060
8990,2086
8991,2112
8992,2105
8993,2034
8994,1930
8995,1813
8996,1702
8997,1621
8998,1613
8999,1659
9000,1722
9001,1789
9002,1835
9003,1855
9004,1866
9005,1885
9006,2274
9007,1011
9008,2154
9009,2896
9010,3152
9011,2986
9012,2014
9013,779
9014,816
9015,1245
9016,1456
9017,1627
9018,1835
9019,1990
9020,2071
9021,2115
9022,2121
9023,2102
9024,2030
9025,1938
9026,1825
9027,1717
9028,1634
9029,1599
9030,1617
9031,1696
9032,1775
9033,1827
9034,1865
9035,1891
9036,1898
9037,1946
9038,850
9039,2075
9040,2830
9041,3089
9042,2972
9043,2107
9044,810
9045,774
9046,1266
9047,1490
9048,1643
9049,1831
9050,1990
9051,2066
9052,2110
9053,2128
9054,2111
9055,2055
9056,1962
9057,1840
9058,1712
9059,1630
9060,1599
9061,1629
9062,1683
9063,1755
9064,1811
9065,1843
9066,1875
9067,1892
9068,1904
9069,1915
9070,1922
9071,1919
9072,1910
9073,1907
9074,1904
9075,1895
9076,1891
9077,1888
9078,1893
9079,1889
9080,1890
9081,1889
9082,1888
9083,1885
9084,1871
9085,1866
9086,1861
9087,1857
9088,1855
9089,1859
9090,1859
9091,1858
9092,1859
9093,1861
9094,1864
9095,1869
9096,1867
9097,1870
9098,1870
9099,1870
9100,1872
9101,1871
9102,1869
9103,1863
9104,1865
9105,1855
9106,1853
9107,1854
9108,1853
9109,1856
9110,1866
9111,1866
9112,1865
9113,1870
9114,1863
9115,1863
9116,1863
9117,1865
9118,1859
9119,1861
9120,1856
9121,1862
9122,1856
9123,1855
9124,1856
9125,1855
9126,1857
9127,1853
9128,1862
9129,1870
9130,1871
9131,1872
9132,1872
9133,1872
9134,1873
9135,1871
9136,1871
9137,1867
9138,1863
9139,1861
9140,1863
9141,1862
9142,1863
9143,1865
9144,1859
9145,1862
9146,1866
9147,1868
9148,1870
9149,1869
9150,1871
9151,1877
9152,1872
9153,1870
9154,1861
9155,1857
9156,1857
9157,1856
9158,1856
9159,1867
9160,1871
9161,1870
9162,1872
9163,1871
9164,1875
9165,1872
9166,1875
9167,1874
9168,1871
9169,1870
9170,1867
9171,1862
9172,1857
9173,1861
9174,1858
9175,1869
9176,1872
9177,1875
9178,1901
9179,1922
9180,1925
9181,1925
9182,1863
9183,1812
9184,1817
9185,1840
9186,1825
9187,1826
9188,1827
9189,1839
9190,1846
9191,1835
9192,1852
9193,1861
9194,1843
9195,1851
9196,1861
9197,1866
9198,1877
9199,1895
9200,1889
9201,1869
9202,1854
9203,1846
9204,1852
9205,1845
9206,1840
9207,1838
9208,1839
9209,1856
9210,1858
9211,1859
9212,1858
9213,1861
9214,1867
9215,1867
9216,1865
9217,1860
9218,1865
9219,1866
9220,1862
9221,1859
9222,1858
9223,1861
9224,1865
9225,1860
9226,1865
9227,1858
9228,1867
9229,1872
9230,1874
9231,1873
9232,1874
9233,1874
9234,1870
9235,1863
9236,1862
9237,1856
9238,1855
9239,1853
9240,1851
9241,1851
9242,1854
9243,1856
9244,1855
9245,1863
9246,1866
9247,1863
9248,1867
9249,1870
9250,1869
9251,1866
9252,1869
9253,1861
9254,1855
9255,1851
9256,1850
9257,1854
9258,1855
9259,1855
9260,1858
9261,1858
9262,1861
9263,1867
9264,1859
9265,1859
9266,1857
9267,1853
9268,1847
9269,1855
9270,1854
9271,1851
9272,1846
9273,1851
9274,1854
9275,1852
9276,1856
9277,1862
9278,1856
9279,1862
9280,1870
9281,1875
9282,1872
9283,1873
9284,1872
9285,1871
9286,1869
9287,1860
9288,1857
9289,1856
9290,1859
9291,1858
9292,1862
9293,1857
9294,1858
9295,1862
9296,1866
9297,1867
9298,1869
9299,1872
9300,1872
9301,1869
9302,1867
9303,1863
9304,1859
9305,1858
9306,1857
9307,1857
9308,1856
9309,1856
9310,1856
9311,1859
9312,1865
9313,1866
9314,1870
9315,1869
9316,1870
9317,1856
9318,1869
9319,1862
9320,1858
9321,1855
9322,1850
9323,1855
9324,1851
9325,1850
9326,1857
9327,1856
9328,1855
9329,1853
9330,1849
9331,1854
9332,1864
9333,1867
9334,1863
9335,1859
9336,1866
9337,1865
9338,1862
9339,1861
9340,1857
9341,1857
9342,1857
9343,1859
9344,1856
9345,1856
9346,1866
9347,1878
9348,1872
9349,1871
9350,1868
9351,1869
9352,1871
9353,1871
9354,1856
9355,1855
9356,1856
9357,1853
9358,1853
9359,1859
9360,1859
9361,1859
9362,1865
9363,1866
9364,1871
9365,1871
9366,1870
9367,1870
9368,1872
9369,1872
9370,1870
9371,1861
9372,1857
9373,1858
9374,1856
9375,1846
9376,1857
9377,1858
9378,1862
9379,1868
9380,1872
9381,1874
9382,1872
9383,1872
9384,1863
9385,1865
9386,1867
9387,1856
9388,1849
9389,1859
9390,1858
9391,1856
9392,1856
9393,1857
9394,1859
9395,1859
9396,1863
9397,1871
9398,1868
9399,1868
9400,1872
9401,1867
9402,1868
9403,1862
9404,1856
9405,1856
9406,1855
9407,1854
9408,1853
9409,1855
9410,1857
9411,1861
9412,1863
9413,1863
9414,1859
9415,1861
9416,1863
9417,1866
9418,1862
9419,1862
9420,1856
9421,1858
9422,1857
9423,1855
9424,1855
9425,1854
9426,1857
9427,1856
9428,1862
9429,1869
9430,1868
9431,1872
9432,1869
9433,1872
9434,1871
9435,1869
9436,1870
9437,1860
9438,1856
9439,1856
9440,1856
9441,1855
9442,1855
9443,1857
9444,1855
9445,1857
9446,1865
9447,1866
9448,1863
9449,1860
9450,1871
9451,1869
9452,1868
9453,1867
9454,1861
9455,1856
9456,1859
9457,1856
9458,1855
9459,1855
9460,1859
9461,1857
9462,1865
9463,1867
9464,1871
9465,1871
9466,1870
9467,1871
9468,1869
9469,1867
9470,1863
9471,1859
9472,1855
9473,1854
9474,1850
9475,1847
9476,1853
9477,1856
9478,1852
9479,1863
9480,1871
9481,1872
9482,1871
9483,1869
9484,1869
9485,1866
9486,1863
9487,1860
9488,1854
9489,1858
9490,1858
9491,1856
9492,1856
9493,1861
9494,1863
9495,1865
9496,1863
9497,1869
9498,1870
9499,1870
9500,1872
9501,1873
9502,1867
9503,1863
9504,1856
9505,1854
9506,1850
9507,1851
9508,1850
9509,1857
9510,1861
9511,1862
9512,1862
9513,1866
9514,1870
9515,1871
9516,1870
9517,1863
9518,1866
9519,1860
9520,1865
9521,1858
9522,1856
9523,1856
9524,1855
9525,1856
9526,1856
9527,1853
9528,1858
9529,1859
9530,1866
9531,1869
9532,1867
9533,1872
9534,1863
9535,1860
9536,1863
9537,1854
9538,1855
9539,1854
9540,1855
9541,1853
9542,1859
9543,1865
9544,1866
9545,1861
9546,1869
9547,1871
9548,1870
9549,1869
9550,1871
9551,1868
9552,1867
9553,1867
9554,1862
9555,1865
9556,1858
9557,1856
9558,1856
9559,1859
9560,1862
9561,1863
9562,1868
9563,1865
9564,1862
9565,1861
9566,1866
9567,1866
9568,1860
9569,1869
9570,1867
9571,1858
9572,1858
9573,1856
9574,1856
9575,1856
9576,1857
9577,1859
9578,1859
9579,1861
9580,1872
9581,1870
9582,1869
9583,1872
9584,1870
9585,1869
9586,1871
9587,1863
9588,1861
9589,1859
9590,1861
9591,1856
9592,1856
9593,1861
9594,1856
9595,1858
9596,1861
9597,1865
9598,1865
9599,1872
9600,1872
9601,1872
9602,1869
9603,1869
9604,1863
9605,1859
9606,1857
9607,1856
9608,1856
9609,1859
9610,1865
9611,1859
9612,1867
9613,1865
9614,1869
9615,1871
9616,1870
9617,1870
9618,1861
9619,1868
9620,1863
9621,1863
9622,1858
9623,1858
9624,1853
9625,1850
9626,1856
9627,1856
9628,1855
9629,1857
9630,1859
9631,1872
9632,1870
9633,1872
9634,1872
9635,1869
9636,1868
9637,1863
9638,1859
9639,1859
9640,1857
9641,1856
9642,1858
9643,1860
9644,1867
9645,1863
9646,1871
9647,1872
9648,1869
9649,1869
9650,1872
9651,1871
9652,1870
9653,1863
9654,1859
9655,1855
9656,1854
9657,1851
9658,1849
9659,1855
9660,1852
9661,1862
9662,1867
9663,1867
9664,1871
9665,1867
9666,1871
9667,1868
9668,1869
9669,1867
9670,1867
9671,1856
9672,1856
9673,1859
9674,1856
9675,1857
9676,1859
9677,1863
9678,1863
9679,1869
9680,1872
9681,1872
9682,1870
9683,1872
9684,1862
9685,1862
9686,1858
9687,1856
9688,1854
9689,1856
9690,1856
9691,1855
9692,1856
9693,1859
9694,1860
9695,1863
9696,1869
9697,1869
9698,1872
9699,1872
9700,1872
9701,1871
9702,1869
9703,1867
9704,1866
9705,1859
9706,1860
9707,1858
9708,1856
9709,1860
9710,1860
9711,1862
9712,1866
9713,1867
9714,1863
9715,1861
9716,1867
9717,1865
9718,1866
9719,1871
9720,1871
9721,1858
9722,1860
9723,1857
9724,1856
9725,1859
9726,1857
9727,1863
9728,1861
9729,1868
9730,1871
9731,1869
9732,1871
9733,1871
9734,1870
9735,1870
9736,1867
9737,1861
9738,1860
9739,1856
9740,1857
9741,1856
9742,1860
9743,1857
9744,1856
9745,1859
9746,1857
9747,1867
9748,1863
9749,1867
9750,1865
9751,1865
9752,1871
9753,1867
9754,1862
9755,1859
9756,1859
9757,1857
9758,1856
9759,1857
9760,1859
9761,1863
9762,1866
9763,1868
9764,1871
9765,1867
9766,1871
9767,1870
9768,1869
9769,1866
9770,1863
9771,1858
9772,1856
9773,1857
9774,1851
9775,1853
9776,1857
9777,1854
9778,1855
9779,1868
9780,1867
9781,1872
9782,1872
9783,1874
9784,1872
9785,1871
9786,1870
9787,1863
9788,1859
9789,1855
9790,1857
9791,1854
9792,1856
9793,1856
9794,1861
9795,1868
9796,1866
9797,1870
9798,1870
9799,1872
9800,1872
9801,1870
9802,1870
9803,1863
9804,1856
9805,1851
9806,1851
9807,1853
9808,1851
9809,1859
9810,1859
9811,1863
9812,1866
9813,1867
9814,1870
9815,1870
9816,1869
9817,1871
9818,1859
9819,1868
9820,1863
9821,1859
9822,1857
9823,1857
9824,1856
9825,1856
9826,1857
9827,1863
9828,1863
9829,1863
9830,1866
9831,1870
9832,1871
9833,1872
9834,1861
9835,1862
9836,1861
9837,1857
9838,1856
9839,1854
9840,1852
9841,1851
9842,1856
9843,1856
9844,1864
9845,1865
9846,1867
9847,1869
9848,1871
9849,1872
9850,1867
9851,1871
9852,1867
9853,1869
9854,1861
9855,1861
9856,1861
9857,1857
9858,1858
9859,1857
9860,1861
9861,1861
9862,1863
9863,1865
9864,1866
9865,1866
9866,1866
9867,1865
9868,1863
9869,1868
9870,1868
9871,1859
9872,1856
9873,1859
9874,1857
9875,1856
9876,1856
9877,1859
9878,1861
9879,1863
9880,1869
9881,1872
9882,1869
9883,1870
9884,1871
9885,1869
9886,1869
9887,1862
9888,1859
9889,1859
9890,1859
9891,1856
9892,1856
9893,1857
9894,1856
9895,1857
9896,1858
9897,1862
9898,1863
9899,1871
9900,1870
9901,1867
9902,1866
9903,1867
9904,1860
9905,1853
9906,1856
9907,1855
9908,1854
9909,1859
9910,1859
9911,1859
9912,1861
9913,1867
9914,1869
9915,1870
9916,1869
9917,1871
9918,1865
9919,1858
9920,1859
9921,1855
9922,1851
9923,1850
9924,1851
9925,1851
9926,1855
9927,1855
9928,1856
9929,1856
9930,1858
9931,1862
9932,1866
9933,1868
9934,1869
9935,1865
9936,1867
9937,1859
9938,1857
9939,1856
9940,1857
9941,1855
9942,1856
9943,1859
9944,1867
9945,1866
9946,1866
9947,1870
9948,1872
9949,1872
9950,1874
9951,1872
9952,1870
9953,1871
9954,1857
9955,1856
9956,1856
9957,1855
9958,1854
9959,1856
9960,1856
9961,1858
9962,1866
9963,1867
9964,1869
9965,1866
9966,1867
9967,1871
9968,1867
9969,1867
9970,1862
9971,1859
9972,1856
9973,1858
9974,1856
9975,1856
9976,1859
9977,1856
9978,1858
9979,1867
9980,1869
9981,1868
9982,1867
9983,1870
9984,1863
9985,1862
9986,1860
9987,1856
9988,1853
9989,1857
9990,1856
9991,1854
9992,1855
9993,1858
9994,1858
9995,1861
9996,1865
9997,1868
9998,1870
9999,1869
10000,1870
10001,1869
10002,1863
10003,1865
10004,1861
10005,1859
10006,1856
10007,1856
10008,1853
10009,1857
10010,1858
10011,1858
10012,1867
10013,1867
10014,1863
10015,1861
10016,1868
10017,1862
10018,1859
10019,1858
10020,1856
10021,1857
10022,1856
10023,1857
10024,1855
10025,1853
10026,1856
10027,1869
10028,1859
10029,1864
10030,1867
10031,1872
10032,1868
10033,1872
10034,1870
10035,1866
10036,1866
10037,1867
10038,1860
10039,1857
10040,1861
10041,1856
10042,1857
10043,1858
10044,1851
10045,1852
10046,1858
10047,1860
10048,1867
10049,1870
10050,1873
10051,1870
10052,1868
10053,1866
10054,1862
10055,1860
10056,1856
10057,1857
10058,1857
10059,1857
10060,1859
10061,1863
10062,1863
10063,1866
10064,1866
10065,2877
10066,1133
10067,2075
10068,2368
10069,2519
10070,2692
10071,2807
10072,2796
10073,2512
10074,1833
10075,1005
10076,628
10077,932
10078,1387
10079,1635
10080,1765
10081,1855
10082,1941
10083,2020
10084,2096
10085,2116
10086,2081
10087,1984
10088,1855
10089,1699
10090,1571
10091,1491
10092,1483
10093,1533
10094,1606
10095,1696
10096,1990
10097,890
10098,2065
10099,2544
10100,2743
10101,2864
10102,2827
10103,2602
10104,2045
10105,1092
10106,393
10107,694
10108,1285
10109,1648
10110,1863
10111,1999
10112,2082
10113,2135
10114,2173
10115,2178
10116,2126
10117,2011
10118,1870
10119,1733
10120,1621
10121,1535
10122,1535
10123,1598
10124,1675
10125,1747
10126,1813
10127,1855
10128,666
10129,1972
10130,2602
10131,2832
10132,2884
10133,2789
10134,2480
10135,1817
10136,834
10137,560
10138,1095
10139,1520
10140,1769
10141,1939
10142,2034
10143,2096
10144,2141
10145,2151
10146,2133
10147,2067
10148,1950
10149,1807
10150,1679
10151,1584
10152,1535
10153,1571
10154,1632
10155,1706
10156,1776
10157,1830
10158,1858
10159,574
10160,1838
10161,2559
10162,2847
10163,2849
10164,2719
10165,2354
10166,1582
10167,720
10168,793
10169,1301
10170,1624
10171,1819
10172,1947
10173,2007
10174,2055
10175,2110
10176,2141
10177,2125
10178,2043
10179,1929
10180,1791
10181,1670
10182,1590
10183,1564
10184,1599
10185,1664
10186,1744
10187,1805
10188,1842
10189,1869
10190,883
10191,1692
10192,2496
10193,2858
10194,2889
10195,2775
10196,2317
10197,1419
10198,640
10199,868
10200,1344
10201,1631
10202,1829
10203,1958
10204,2019
10205,2071
10206,2106
10207,2113
10208,2084
10209,2000
10210,1889
10211,1774
10212,1671
10213,1599
10214,1586
10215,1629
10216,1711
10217,1782
10218,1834
10219,1862
10220,1884
10221,1607
10222,1535
10223,2411
10224,2820
10225,2915
10226,2829
10227,2381
10228,1406
10229,602
10230,876
10231,1338
10232,1615
10233,1822
10234,1962
10235,2023
10236,2069
10237,2101
10238,2098
10239,2063
10240,1971
10241,1872
10242,1765
10243,1681
10244,1631
10245,1631
10246,1677
10247,1742
10248,1803
10249,1849
10250,1879
10251,1895
10252,2716
10253,1315
10254,2266
10255,2791
10256,2921
10257,2928
10258,2511
10259,1511
10260,559
10261,819
10262,1312
10263,1600
10264,1821
10265,1966
10266,1996
10267,2002
10268,2056
10269,2089
10270,2069
10271,1991
10272,1885
10273,1776
10274,1680
10275,1626
10276,1633
10277,1673
10278,1733
10279,1793
10280,1842
10281,1881
10282,1904
10283,2511
10284,1074
10285,2178
10286,2845
10287,3014
10288,3013
10289,2605
10290,1488
10291,526
10292,802
10293,1282
10294,1558
10295,1786
10296,1945
10297,2011
10298,2030
10299,2066
10300,2093
10301,2064
10302,1989
10303,1893
10304,1781
10305,1679
10306,1614
10307,1609
10308,1658
10309,1719
10310,1777
10311,1835
10312,1871
10313,1892
10314,2057
10315,894
10316,2112
10317,2807
10318,3024
10319,3027
10320,2593
10321,1458
10322,547
10323,833
10324,1296
10325,1562
10326,1790
10327,1947
10328,2000
10329,2001
10330,2047
10331,2083
10332,2066
10333,2005
10334,1903
10335,1782
10336,1682
10337,1613
10338,1614
10339,1663
10340,1730
10341,1789
10342,1835
10343,1861
10344,1872
10345,1898
10346,673
10347,1970
10348,2743
10349,3024
10350,3009
10351,2672
10352,1564
10353,559
10354,849
10355,1317
10356,1535
10357,1714
10358,1894
10359,1978
10360,2013
10361,2043
10362,2079
10363,2079
10364,2023
10365,1926
10366,1817
10367,1713
10368,1627
10369,1616
10370,1662
10371,1717
10372,1776
10373,1835
10374,1851
10375,1862
10376,1882
10377,688
10378,1795
10379,2594
10380,2975
10381,3008
10382,2750
10383,1732
10384,646
10385,832
10386,1287
10387,1506
10388,1682
10389,1891
10390,2013
10391,2063
10392,2096
10393,2114
10394,2096
10395,2023
10396,1919
10397,1810
10398,1713
10399,1639
10400,1617
10401,1661
10402,1719
10403,1779
10404,1817
10405,1851
10406,1867
10407,1884
10408,1206
10409,1636
10410,2473
10411,3087
10412,3200
10413,2953
10414,1861
10415,511
10416,679
10417,1210
10418,1488
10419,1680
10420,1891
10421,2000
10422,2035
10423,2063
10424,2080
10425,2066
10426,2023
10427,1935
10428,1822
10429,1724
10430,1650
10431,1631
10432,1665
10433,1728
10434,1782
10435,1816
10436,1854
10437,1873
10438,1886
10439,2082
10440,1446
10441,2363
10442,2955
10443,3044
10444,2919
10445,2077
10446,723
10447,715
10448,1227
10449,1488
10450,1616
10451,1814
10452,1961
10453,2032
10454,2078
10455,2108
10456,2110
10457,2057
10458,1962
10459,1854
10460,1744
10461,1648
10462,1622
10463,1651
10464,1710
10465,1775
10466,1825
10467,1858
10468,1872
10469,1887
10470,2942
10471,1221
10472,2243
10473,2922
10474,3039
10475,2949
10476,2181
10477,784
10478,677
10479,1200
10480,1472
10481,1649
10482,1850
10483,1995
10484,2058
10485,2082
10486,2105
10487,2096
10488,2053
10489,1967
10490,1850
10491,1737
10492,1646
10493,1615
10494,1632
10495,1687
10496,1746
10497,1810
10498,1850
10499,1883
10500,1901
10501,2155
10502,976
10503,2137
10504,2895
10505,3149
10506,3089
10507,2357
10508,877
10509,555
10510,1121
10511,1434
10512,1565
10513,1737
10514,1936
10515,2032
10516,2093
10517,2127
10518,2125
10519,2086
10520,2000
10521,1887
10522,1757
10523,1653
10524,1603
10525,1616
10526,1684
10527,1745
10528,1796
10529,1837
10530,1863
10531,1892
10532,1907
10533,809
10534,2059
10535,2832
10536,3071
10537,3014
10538,2448
10539,1023
10540,561
10541,1078
10542,1407
10543,1595
10544,1786
10545,1968
10546,2064
10547,2103
10548,2123
10549,2118
10550,2077
10551,1984
10552,1872
10553,1761
10554,1667
10555,1616
10556,1630
10557,1679
10558,1728
10559,1791
10560,1841
10561,1870
10562,1893
10563,1907
10564,624
10565,1877
10566,2693
10567,3125
10568,3148
10569,2641
10570,1249
10571,487
10572,973
10573,1364
10574,1563
10575,1745
10576,1938
10577,2026
10578,2064
10579,2098
10580,2114
10581,2095
10582,2023
10583,1929
10584,1813
10585,1699
10586,1615
10587,1597
10588,1637
10589,1714
10590,1792
10591,1840
10592,1860
10593,1872
10594,1891
10595,907
10596,1729
10597,2559
10598,3088
10599,3109
10600,2757
10601,1579
10602,560
10603,900
10604,1323
10605,1522
10606,1701
10607,1902
10608,2021
10609,2080
10610,2107
10611,2119
10612,2096
10613,2019
10614,1904
10615,1790
10616,1685
10617,1621
10618,1605
10619,1642
10620,1712
10621,1783
10622,1834
10623,1859
10624,1877
10625,1892
10626,1505
10627,1606
10628,2448
10629,3147
10630,3280
10631,2935
10632,1667
10633,464
10634,771
10635,1259
10636,1500
10637,1680
10638,1883
10639,2011
10640,2080
10641,2109
10642,2123
10643,2099
10644,2031
10645,1934
10646,1834
10647,1727
10648,1648
10649,1611
10650,1627
10651,1695
10652,1765
10653,1829
10654,1856
10655,1874
10656,1886
10657,2667
10658,1345
10659,2307
10660,2965
10661,3093
10662,2928
10663,1934
10664,688
10665,801
10666,1279
10667,1494
10668,1659
10669,1870
10670,2005
10671,2064
10672,2082
10673,2102
10674,2087
10675,2035
10676,1968
10677,1853
10678,1726
10679,1621
10680,1599
10681,1648
10682,1713
10683,1776
10684,1827
10685,1858
10686,1886
10687,1894
10688,1904
10689,1909
10690,1907
10691,1906
10692,1904
10693,1904
10694,1904
10695,1901
10696,1902
10697,1898
10698,1901
10699,1892
10700,1891
10701,1885
10702,1879
10703,1878
10704,1869
10705,1866
10706,1862
10707,1860
10708,1857
10709,1861
10710,1858
10711,1862
10712,1866
10713,1870
10714,1872
10715,1872
10716,1869
10717,1872
10718,1866
10719,1867
10720,1862
10721,1858
10722,1855
10723,1856
10724,1858
10725,1857
10726,1857
10727,1860
10728,1862
10729,1866
10730,1867
10731,1869
10732,1872
10733,1875
10734,1867
10735,1863
10736,1862
10737,1857
10738,1861
10739,1855
10740,1851
10741,1853
10742,1847
10743,1857
10744,1858
10745,1860
10746,1869
10747,1872
10748,1872
10749,1872
10750,1879
10751,1874
10752,1872
10753,1872
10754,1870
10755,1863
10756,1858
10757,1859
10758,1859
10759,1862
10760,1868
10761,1872
10762,1872
10763,1874
10764,1870
10765,1872
10766,1871
10767,1873
10768,1872
10769,1875
10770,1872
10771,1869
10772,1865
10773,1867
10774,1864
10775,1863
10776,1867
10777,1864
10778,1867
10779,1872
10780,1872
10781,1873
10782,1873
10783,1875
10784,1873
10785,1874
10786,1872
10787,1872
10788,1870
10789,1861
10790,1862
10791,1858
10792,1857
10793,1858
10794,1857
10795,1858
10796,1863
10797,1867
10798,1871
10799,1872
10800,1873
10801,1872
10802,1872
10803,1878
10804,1883
10805,1889
10806,1885
10807,1887
10808,1863
10809,1839
10810,1840
10811,1840
10812,1843
10813,1859
10814,1872
10815,1874
10816,1879
10817,1877
10818,1872
10819,1872
10820,1878
10821,1872
10822,1865
10823,1859
10824,1854
10825,1851
10826,1856
10827,1857
10828,1857
10829,1861
10830,1863
10831,1873
10832,1875
10833,1875
10834,1872
10835,1870
10836,1870
10837,1868
10838,1865
10839,1857
10840,1856
10841,1856
10842,1856
10843,1859
10844,1856
10845,1858
10846,1863
10847,1870
10848,1872
10849,1871
10850,1872
10851,1871
10852,1867
10853,1867
10854,1857
10855,1856
10856,1854
10857,1853
10858,1855
10859,1853
10860,1858
10861,1861
10862,1870
10863,1872
10864,1871
10865,1871
10866,1872
10867,1871
10868,1867
10869,1869
10870,1870
10871,1860
10872,1857
10873,1858
10874,1861
10875,1856
10876,1859
10877,1862
10878,1861
10879,1867
10880,1867
10881,1870
10882,1869
10883,1870
10884,1863
10885,1859
10886,1861
10887,1859
10888,1855
10889,1858
10890,1856
10891,1856
10892,1856
10893,1858
10894,1863
10895,1862
10896,1863
10897,1868
10898,1870
10899,1871
10900,1872
10901,1872
10902,1869
10903,1866
10904,1862
10905,1859
10906,1856
10907,1855
10908,1853
10909,1855
10910,1857
10911,1862
10912,1863
10913,1866
10914,1868
10915,1865
10916,1865
10917,1859
10918,1859
10919,1869
10920,1866
10921,1858
10922,1856
10923,1855
10924,1855
10925,1853
10926,1855
10927,1859
10928,1860
10929,1863
10930,1866
10931,1869
10932,1871
10933,1870
10934,1872
10935,1869
10936,1863
10937,1865
10938,1859
10939,1856
10940,1857
10941,1855
10942,1858
10943,1858
10944,1856
10945,1857
10946,1860
10947,1859
10948,1867
10949,1863
10950,1866
10951,1862
10952,1869
10953,1869
10954,1861
10955,1858
10956,1856
10957,1855
10958,1854
10959,1857
10960,1858
10961,1860
10962,1863
10963,1863
10964,1871
10965,1870
10966,1871
10967,1871
10968,1868
10969,1863
10970,1866
10971,1860
10972,1858
10973,1856
10974,1855
10975,1850
10976,1851
10977,1854
10978,1854
10979,1866
10980,1870
10981,1870
10982,1870
10983,1872
10984,1871
10985,1871
10986,1869
10987,1863
10988,1860
10989,1855
10990,1853
10991,1856
10992,1856
10993,1861
10994,1867
10995,1866
10996,1869
10997,1866
10998,1872
10999,1871
11000,1871
11001,1869
11002,1865
11003,1867
11004,1856
11005,1854
11006,1853
11007,1851
11008,1851
11009,1856
11010,1854
11011,1856
11012,1858
11013,1867
11014,1869
11015,1869
11016,1871
11017,1871
11018,1868
11019,1869
11020,1867
11021,1859
11022,1857
11023,1856
11024,1857
11025,1852
11026,1856
11027,1861
11028,1857
11029,1862
11030,1868
11031,1869
11032,1867
11033,1871
11034,1863
11035,1865
11036,1862
11037,1858
11038,1857
11039,1850
11040,1849
11041,1853
11042,1855
11043,1856
11044,1859
11045,1859
11046,1866
11047,1869
11048,1870
11049,1870
11050,1872
11051,1872
11052,1872
11053,1871
11054,1870
11055,1858
11056,1857
11057,1856
11058,1856
11059,1856
11060,1861
11061,1858
11062,1867
11063,1867
11064,1864
11065,1863
11066,1863
11067,1863
11068,1861
11069,1869
11070,1867
11071,1862
11072,1856
11073,1856
11074,1858
11075,1855
11076,1856
11077,1861
11078,1859
11079,1862
11080,1863
11081,1867
11082,1867
11083,1869
11084,1869
11085,1866
11086,1869
11087,1863
11088,1859
11089,1856
11090,1856
11091,1857
11092,1856
11093,1858
11094,1856
11095,1854
11096,1857
11097,1861
11098,1865
11099,1872
11100,1870
11101,1872
11102,1869
11103,1863
11104,1862
11105,1861
11106,1856
11107,1855
11108,1854
11109,1856
11110,1857
11111,1860
11112,1863
11113,1867
11114,1869
11115,1871
11116,1868
11117,1871
11118,1869
11119,1866
11120,1869
11121,1865
11122,1858
11123,1856
11124,1846
11125,1851
11126,1846
11127,1856
11128,1850
11129,1856
11130,1856
11131,1865
11132,1866
11133,1871
11134,1870
11135,1866
11136,1868
11137,1865
11138,1861
11139,1856
11140,1856
11141,1858
11142,1856
11143,1854
11144,1858
11145,1859
11146,1863
11147,1867
11148,1870
11149,1871
11150,1872
11151,1871
11152,1868
11153,1871
11154,1857
11155,1855
11156,1854
11157,1855
11158,1851
11159,1858
11160,1861
11161,1863
11162,1865
11163,1866
11164,1869
11165,1872
11166,1872
11167,1874
11168,1872
11169,1867
11170,1869
11171,1861
11172,1859
11173,1857
11174,1857
11175,1856
11176,1861
11177,1866
11178,1858
11179,1862
11180,1865
11181,1869
11182,1868
11183,1871
11184,1863
11185,1859
11186,1860
11187,1859
11188,1853
11189,1858
11190,1856
11191,1860
11192,1855
11193,1857
11194,1865
11195,1858
11196,1867
11197,1869
11198,1872
11199,1870
11200,1872
11201,1870
11202,1868
11203,1866
11204,1863
11205,1862
11206,1856
11207,1859
11208,1858
11209,1857
11210,1860
11211,1863
11212,1871
11213,1869
11214,1863
11215,1863
11216,1865
11217,1868
11218,1863
11219,1859
11220,1859
11221,1859
11222,1858
11223,1859
11224,1860
11225,1857
11226,1857
11227,1861
11228,1863
11229,1860
11230,1867
11231,1869
11232,1871
11233,1872
11234,1872
11235,1870
11236,1872
11237,1867
11238,1860
11239,1857
11240,1861
11241,1857
11242,1856
11243,1856
11244,1854
11245,1854
11246,1857
11247,1862
11248,1863
11249,1869
11250,1871
11251,1870
11252,1869
11253,1867
11254,1862
11255,1859
11256,1858
11257,1860
11258,1856
11259,1856
11260,1859
11261,1860
11262,1862
11263,1867
11264,1871
11265,1870
11266,1871
11267,1871
11268,1871
11269,1869
11270,1865
11271,1861
11272,1859
11273,1857
11274,1851
11275,1851
11276,1852
11277,1854
11278,1856
11279,1863
11280,1866
11281,1867
11282,1869
11283,1872
11284,1871
11285,1868
11286,1866
11287,1862
11288,1859
11289,1859
11290,1861
11291,1856
11292,1857
11293,1860
11294,1859
11295,1862
11296,1863
11297,1867
11298,1871
11299,1872
11300,1870
11301,1869
11302,1863
11303,1869
11304,1855
11305,1854
11306,1851
11307,1851
11308,1851
11309,1855
11310,1858
11311,1859
11312,1865
11313,1863
11314,1867
11315,1870
11316,1870
11317,1869
11318,1869
11319,1867
11320,1866
11321,1859
11322,1857
11323,1856
11324,1856
11325,1858
11326,1855
11327,1858
11328,1859
11329,1863
11330,1866
11331,1870
11332,1869
11333,1871
11334,1866
11335,1858
11336,1857
11337,1857
11338,1856
11339,1852
11340,1846
11341,1851
11342,1856
11343,1859
11344,1859
11345,1859
11346,1861
11347,1860
11348,1869
11349,1868
11350,1872
11351,1871
11352,1865
11353,1869
11354,1862
11355,1858
11356,1857
11357,1856
11358,1857
11359,1856
11360,1857
11361,1857
11362,1864
11363,1867
11364,1863
11365,1867
11366,1865
11367,1859
11368,1862
11369,1869
11370,1866
11371,1861
11372,1856
11373,1856
11374,1856
11375,1855
11376,1856
11377,1857
11378,1858
11379,1860
11380,1863
11381,1869
11382,1870
11383,1870
11384,1872
11385,1870
11386,1868
11387,1860
11388,1859
11389,1857
11390,1857
11391,1857
11392,1856
11393,1857
11394,1855
11395,1853
11396,1856
11397,1856
11398,1861
11399,1872
11400,1870
11401,1871
11402,1865
11403,1864
11404,1860
11405,1861
11406,1856
11407,1854
11408,1855
11409,1856
11410,1861
11411,1862
11412,1860
11413,1862
11414,1869
11415,1870
11416,1868
11417,1870
11418,1868
11419,1867
11420,1867
11421,1861
11422,1856
11423,1856
11424,1853
11425,1846
11426,1850
11427,1851
11428,1856
11429,1856
11430,1857
11431,1861
11432,1871
11433,1868
11434,1871
11435,1867
11436,1872
11437,1861
11438,1857
11439,1857
11440,1856
11441,1856
11442,1859
11443,1857
11444,1861
11445,1859
11446,1866
11447,1870
11448,1872
11449,1868
11450,1872
11451,1870
11452,1868
11453,1867
11454,1857
11455,1854
11456,1854
11457,1853
11458,1854
11459,1855
11460,1856
11461,1863
11462,1862
11463,1867
11464,1871
11465,1871
11466,1870
11467,1872
11468,1867
11469,1867
11470,1867
11471,1864
11472,1856
11473,1856
11474,1857
11475,1856
11476,1856
11477,1857
11478,1856
11479,1866
11480,1865
11481,1869
11482,1865
11483,1870
11484,1859
11485,1859
11486,1863
11487,1857
11488,1856
11489,1855
11490,1856
11491,1853
11492,1856
11493,1859
11494,1861
11495,1860
11496,1866
11497,1867
11498,1867
11499,1870
11500,1871
11501,1872
11502,1866
11503,1865
11504,1861
11505,1858
11506,1856
11507,1857
11508,1856
11509,1854
11510,1859
11511,1859
11512,1858
11513,1866
11514,1861
11515,1859
11516,1861
11517,1862
11518,1862
11519,1856
11520,1856
11521,1863
11522,1857
11523,1857
11524,1855
11525,1854
11526,1856
11527,1861
11528,1860
11529,1862
11530,1866
11531,1870
11532,1869
11533,1871
11534,1872
11535,1869
11536,1867
11537,1868
11538,1861
11539,1858
11540,1855
11541,1856
11542,1855
11543,1858
11544,1856
11545,1851
11546,1856
11547,1859
11548,1862
11549,1860
11550,1869
11551,1868
11552,1863
11553,1866
11554,1861
11555,1858
11556,1856
11557,1855
11558,1855
11559,1855
11560,1855
11561,1856
11562,1856
11563,1861
11564,1863
11565,1868
11566,1868
11567,1872
11568,1869
11569,1871
11570,1870
11571,1862
11572,1858
11573,1854
11574,1851
11575,1850
11576,1849
11577,1850
11578,1856
11579,1866
11580,1865
11581,1869
11582,1868
11583,1871
11584,1871
11585,1869
11586,1866
11587,1860
11588,1860
11589,1857
11590,1859
11591,1856
11592,1857
11593,1856
11594,1863
11595,1861
11596,1865
11597,1870
11598,1872
11599,1872
11600,1872
11601,1869
11602,1866
11603,1867
11604,1856
11605,1855
11606,1854
11607,1852
11608,1851
11609,1856
11610,1859
11611,1861
11612,1865
11613,1864
11614,1868
11615,1871
11616,1870
11617,1869
11618,1859
11619,1867
11620,1865
11621,1856
11622,1856
11623,1855
11624,1856
11625,1857
11626,1856
11627,1856
11628,1856
11629,1864
11630,1868
11631,1870
11632,1872
11633,1870
11634,1866
11635,1866
11636,1865
11637,1859
11638,1856
11639,1847
11640,1854
11641,1851
11642,1849
11643,1859
11644,1863
11645,1862
11646,1867
11647,1869
11648,1871
11649,1869
11650,1865
11651,1865
11652,1862
11653,1865
11654,1863
11655,1858
11656,1856
11657,1856
11658,1856
11659,1856
11660,1856
11661,1865
11662,1862
11663,1865
11664,1863
11665,1863
11666,1864
11667,1867
11668,1863
11669,1860
11670,1858
11671,1855
11672,1856
11673,1856
11674,1859
11675,1856
11676,1859
11677,1858
11678,1856
11679,1856
11680,1859
11681,1862
11682,1867
11683,1863
11684,1868
11685,656
11686,1674
11687,2236
11688,2431
11689,2594
11690,2739
11691,2822
11692,2720
11693,2305
11694,1506
11695,766
11696,686
11697,1130
11698,1488
11699,1689
11700,1825
11701,1915
11702,1987
11703,2073
11704,2137
11705,2131
11706,2064
11707,1936
11708,1795
11709,1641
11710,1514
11711,1464
11712,1488
11713,1565
11714,1645
11715,1728
11716,1264
11717,1497
11718,2288
11719,2608
11720,2766
11721,2817
11722,2730
11723,2399
11724,1693
11725,715
11726,501
11727,1023
11728,1511
11729,1779
11730,1933
11731,2031
11732,2095
11733,2157
11734,2183
11735,2165
11736,2093
11737,1955
11738,1808
11739,1680
11740,1586
11741,1535
11742,1553
11743,1615
11744,1702
11745,1776
11746,1838
11747,2493
11748,1319
11749,2297
11750,2738
11751,2884
11752,2864
11753,2704
11754,2224
11755,1392
11756,572
11757,789
11758,1337
11759,1662
11760,1854
11761,1981
11762,2064
11763,2113
11764,2153
11765,2155
11766,2112
11767,2011
11768,1879
11769,1741
11770,1627
11771,1535
11772,1534
11773,1587
11774,1667
11775,1744
11776,1803
11777,1847
11778,2585
11779,1062
11780,2183
11781,2737
11782,2887
11783,2810
11784,2559
11785,1974
11786,1117
11787,680
11788,1065
11789,1461
11790,1712
11791,1885
11792,1968
11793,2026
11794,2081
11795,2125
11796,2134
11797,2097
11798,1997
11799,1855
11800,1711
11801,1590
11802,1519
11803,1517
11804,1574
11805,1657
11806,1735
11807,1799
11808,1846
11809,1920
11810,830
11811,2036
11812,2659
11813,2864
11814,2807
11815,2559
11816,1915
11817,1041
11818,759
11819,1154
11820,1485
11821,1723
11822,1910
11823,2006
11824,2045
11825,2082
11826,2114
11827,2116
11828,2065
11829,1962
11830,1833
11831,1713
11832,1613
11833,1535
11834,1567
11835,1642
11836,1722
11837,1790
11838,1839
11839,1875
11840,1898
11841,646
11842,1925
11843,2602
11844,2865
11845,2879
11846,2700
11847,2002
11848,1040
11849,754
11850,1157
11851,1463
11852,1706
11853,1913
11854,2009
11855,2034
11856,2074
11857,2102
11858,2103
11859,2058
11860,1962
11861,1840
11862,1734
11863,1642
11864,1600
11865,1620
11866,1685
11867,1762
11868,1815
11869,1859
11870,1890
11871,1915
11872,657
11873,1822
11874,2548
11875,2877
11876,2933
11877,2739
11878,2034
11879,1078
11880,726
11881,1105
11882,1430
11883,1675
11884,1892
11885,2019
11886,2082
11887,2117
11888,2123
11889,2096
11890,2021
11891,1920
11892,1808
11893,1715
11894,1637
11895,1611
11896,1645
11897,1704
11898,1766
11899,1822
11900,1863
11901,1888
11902,1904
11903,1150
11904,1646
11905,2442
11906,2809
11907,2880
11908,2767
11909,2090
11910,1136
11911,813
11912,1152
11913,1443
11914,1671
11915,1884
11916,2022
11917,2080
11918,2109
11919,2134
11920,2126
11921,2063
11922,1955
11923,1842
11924,1732
11925,1638
11926,1584
11927,1589
11928,1642
11929,1728
11930,1801
11931,1851
11932,1879
11933,1904
11934,1985
11935,1443
11936,2358
11937,2825
11938,2913
11939,2786
11940,2124
11941,1228
11942,798
11943,1133
11944,1436
11945,1648
