Time(ms),Raw_ADC,ENV_Value,RMS,MDF,MW_Amp,MW_Area,MW_Latency,MW_Valid,Marker
0,1868.6,231.4,0.0,0.0,1964.0,10223.0,2.0,0,
100,1804.5,277.2,0.0,0.0,1686.0,8316.0,2.0,0,
200,1865.8,37.5,0.0,0.0,1690.0,7443.0,2.0,0,
300,1856.2,30.1,0.0,0.0,1690.0,7443.0,2.0,0,
400,1875.8,29.7,0.0,0.0,1690.0,7443.0,2.0,0,
500,1881.3,35.0,0.0,38.3,1690.0,7443.0,2.0,0,
600,1863.8,29.4,0.0,87.0,1690.0,7443.0,2.0,0,
700,1872.1,24.2,0.0,198.6,1690.0,7443.0,2.0,0,
800,1866.7,25.7,0.0,154.6,1690.0,7443.0,2.0,0,
900,1864.7,27.4,0.0,175.4,1690.0,7443.0,2.0,0,
1000,1866.1,27.3,0.0,240.6,1690.0,7443.0,2.0,0,
1100,1861.0,22.3,0.0,249.9,1690.0,7443.0,2.0,0,
1200,1843.3,357.5,0.0,219.7,991.0,5693.0,16.0,1,
1300,1892.3,310.3,0.0,37.9,1117.0,6944.0,21.0,1,
1400,1869.8,392.2,0.0,37.1,1711.0,8949.0,23.0,1,
1500,1799.4,316.7,0.0,56.4,2037.0,11212.0,24.0,1,
1600,1854.8,348.2,230.7,66.4,1922.0,11422.0,26.0,0,
1700,1857.9,322.5,247.5,66.3,1946.0,10229.0,25.0,0,
1800,1865.6,45.6,243.3,99.6,1161.0,5801.0,17.0,1,
1900,1863.7,28.5,243.3,67.8,1161.0,5801.0,17.0,1,
2000,1861.8,28.1,243.3,36.0,1161.0,5801.0,17.0,1,
2100,1868.0,27.6,243.1,36.1,1161.0,5801.0,17.0,1,
2200,1869.2,29.4,243.2,43.4,1161.0,5801.0,17.0,1,
2300,1877.6,56.9,243.1,235.0,1161.0,5801.0,17.0,1,
2400,1855.7,44.3,243.9,156.8,1161.0,5801.0,17.0,1,
2600,1867.1,26.1,244.2,28.1,1161.0,5801.0,17.0,1,
2700,1864.3,28.1,244.2,36.3,1161.0,5801.0,17.0,1,
2800,1884.4,313.4,245.6,150.2,1110.0,6256.0,2.0,0,
2900,1854.1,275.0,245.5,37.1,1147.0,7136.0,2.0,0,
3000,1816.1,232.9,240.9,36.8,1632.0,8416.0,2.0,0,
3100,1870.4,229.5,225.6,66.3,2089.0,11462.0,2.0,0,
3200,1872.7,168.3,211.4,130.9,1804.0,9212.0,2.0,0,
3300,1861.5,181.2,181.1,197.7,1835.0,9028.0,2.0,0,
3400,1823.2,50.6,158.3,228.2,1700.0,8467.0,2.0,0,
3600,1859.7,30.6,157.6,108.4,1700.0,8467.0,2.0,0,
3700,1863.7,30.0,157.7,100.1,1700.0,8467.0,2.0,0,
3800,1872.0,61.6,157.7,132.8,1700.0,8467.0,2.0,0,
3900,1858.1,49.4,159.1,201.7,1700.0,8467.0,2.0,0,
4000,1861.8,33.3,158.3,102.0,1700.0,8467.0,2.0,0,
4100,1874.1,25.7,157.8,43.5,1700.0,8467.0,2.0,0,
4200,1868.5,28.9,157.9,43.0,1700.0,8467.0,2.0,0,
4300,1864.1,24.1,158.0,139.6,1700.0,8467.0,2.0,0,
4400,1859.1,144.8,158.0,239.6,1056.0,7082.0,5.0,1,
4600,1904.5,195.9,145.2,38.3,1580.0,9487.0,2.0,0,
4700,1843.3,161.5,140.4,39.4,1909.0,10511.0,2.0,0,
4800,1798.0,198.3,137.8,66.6,1807.0,9988.0,2.0,0,
4900,1889.2,179.1,139.5,156.5,1700.0,9243.0,2.0,0,
5000,1844.0,75.7,140.7,250.6,1668.0,8566.0,2.0,0,
5100,1852.6,29.0,142.8,262.3,1668.0,8566.0,2.0,0,
5200,1858.1,30.2,142.8,253.2,1668.0,8566.0,2.0,0,
5300,1868.3,26.7,142.6,196.6,1668.0,8566.0,2.0,0,
5400,1872.2,28.2,142.6,133.7,1668.0,8566.0,2.0,0,
5600,1850.1,29.1,140.8,240.0,1668.0,8566.0,2.0,0,
5700,1870.0,28.8,140.9,240.4,1668.0,8566.0,2.0,0,
5800,1870.0,28.3,140.9,240.2,1668.0,8566.0,2.0,0,
5900,1871.1,28.4,140.8,253.5,1668.0,8566.0,2.0,0,
6000,1862.5,211.3,140.7,299.2,968.0,6630.0,6.0,1,
6100,1882.5,280.2,146.7,210.8,1036.0,5949.0,2.0,0,
6200,1856.3,236.6,147.3,68.2,1086.0,8190.0,2.0,0,
6300,1826.2,224.4,152.6,55.8,1463.0,9262.0,2.0,0,
6400,1849.9,193.2,154.3,66.0,1658.0,10225.0,2.0,0,
6600,1833.6,126.4,155.4,195.9,1878.0,10314.0,2.0,0,
6700,1858.3,28.7,154.8,253.5,1878.0,10314.0,2.0,0,
6800,1859.4,23.1,154.8,220.6,1878.0,10314.0,2.0,0,
6900,1872.1,26.5,154.5,90.6,1878.0,10314.0,2.0,0,
7000,1878.1,31.6,154.5,83.4,1878.0,10314.0,2.0,0,
7100,1861.5,27.3,154.7,207.0,1878.0,10314.0,2.0,0,
7200,1873.0,25.8,154.3,239.5,1878.0,10314.0,2.0,0,
7300,1868.7,26.8,154.2,240.7,1878.0,10314.0,2.0,0,
7400,1862.6,25.2,154.4,240.3,1878.0,10314.0,2.0,0,
7600,1862.0,136.5,154.5,241.8,1878.0,10314.0,2.0,0,
7700,1860.3,274.5,152.1,145.5,1032.0,6326.0,17.0,1,
7800,1851.5,353.7,157.5,36.1,998.0,7097.0,19.0,1,
7900,1887.7,349.6,170.4,37.5,1270.0,7163.0,21.0,1,
8000,1834.0,347.5,186.0,66.1,1555.0,9928.0,23.0,1,
8100,1802.7,302.8,203.0,66.4,1664.0,10535.0,25.0,0,
8200,1859.1,298.4,218.3,66.8,1820.0,10318.0,24.0,1,
8300,1850.0,36.1,225.3,93.0,1078.0,6276.0,12.0,1,
8400,1874.9,27.7,225.4,65.4,1078.0,6276.0,12.0,1,
8600,1880.9,64.4,225.5,35.4,1078.0,6276.0,12.0,1,
8700,1845.6,35.2,225.7,37.3,1078.0,6276.0,12.0,1,
8800,1885.9,26.1,225.9,103.8,1078.0,6276.0,12.0,1,
8900,1862.9,26.5,225.8,28.4,1078.0,6276.0,12.0,1,
9000,1861.4,27.4,225.8,29.4,1078.0,6276.0,12.0,1,
9100,1863.5,24.8,225.8,178.0,1078.0,6276.0,12.0,1,
9200,1863.5,82.4,225.8,240.5,1078.0,6276.0,12.0,1,
9300,1858.1,239.6,225.2,238.6,1485.0,7461.0,18.0,1,
9400,1873.3,331.5,223.7,50.9,1050.0,7476.0,20.0,1,
9600,1820.7,343.5,224.4,66.2,1531.0,9519.0,23.0,1,
9700,1880.7,357.0,222.7,66.4,1646.0,9769.0,24.0,1,
9800,1891.0,296.5,225.9,66.5,1627.0,9879.0,25.0,0,
9900,1796.3,41.4,218.7,66.6,1001.0,6536.0,20.0,1,
10000,1854.5,30.7,218.6,45.0,1001.0,6536.0,20.0,1,
10100,1874.9,29.6,218.6,35.9,1001.0,6536.0,20.0,1,
10200,1868.4,51.3,218.6,36.5,1001.0,6536.0,20.0,1,
10300,1866.2,28.7,218.6,42.3,1001.0,6536.0,20.0,1,
10400,1876.0,26.5,218.4,211.3,1001.0,6536.0,20.0,1,
10600,1869.8,26.9,218.5,140.6,1001.0,6536.0,20.0,1,
10700,1863.2,26.5,218.4,268.5,1001.0,6536.0,20.0,1,
10800,1862.4,25.5,218.4,265.8,1001.0,6536.0,20.0,1,
10900,1883.3,300.8,217.5,240.1,996.0,6482.0,2.0,0,
11000,1836.0,295.3,227.1,38.3,1006.0,7400.0,2.0,0,
11100,1858.9,247.1,224.7,36.3,1238.0,7726.0,2.0,0,
11200,1887.9,219.0,216.2,38.8,1346.0,8903.0,2.0,0,
11300,1840.4,240.7,198.7,67.0,1599.0,9915.0,2.0,0,
11400,1812.2,198.9,180.6,131.1,1635.0,9705.0,2.0,0,
11600,1843.8,29.1,161.2,196.1,1635.0,9705.0,2.0,0,
11700,1871.9,26.4,161.2,154.8,1635.0,9705.0,2.0,0,
11800,1869.8,43.7,161.1,130.6,1635.0,9705.0,2.0,0,
11900,1896.5,37.7,160.4,178.6,1635.0,9705.0,2.0,0,
12000,1852.0,27.8,161.0,261.3,1635.0,9705.0,2.0,0,
12100,1868.4,24.9,161.0,82.4,1635.0,9705.0,2.0,0,
12200,1867.3,27.8,161.0,27.5,1635.0,9705.0,2.0,0,
12300,1865.7,24.4,161.0,101.1,1635.0,9705.0,2.0,0,
12400,1867.6,27.0,160.9,241.6,1635.0,9705.0,2.0,0,
12600,1874.6,327.8,165.3,37.8,1068.0,6881.0,26.0,0,
12700,1856.2,209.1,165.3,36.9,1143.0,6809.0,2.0,0,
12800,1819.1,255.8,163.2,65.6,1283.0,9197.0,2.0,0,
12900,1816.2,193.9,166.1,93.8,1688.0,9892.0,2.0,0,
13000,1858.9,167.5,165.4,125.9,1718.0,10490.0,2.0,0,
13100,1883.7,49.9,162.8,135.3,1653.0,10137.0,2.0,0,
13200,1811.6,27.4,162.2,190.4,1653.0,10137.0,2.0,0,
13300,1867.7,24.4,162.1,165.8,1653.0,10137.0,2.0,0,
13400,1871.7,32.3,162.0,168.3,1653.0,10137.0,2.0,0,
13600,1867.6,29.9,161.7,246.5,1653.0,10137.0,2.0,0,
13700,1873.2,24.2,161.7,236.5,1653.0,10137.0,2.0,0,
13800,1866.2,23.4,161.6,234.4,1653.0,10137.0,2.0,0,
13900,1865.9,26.5,161.7,239.6,1653.0,10137.0,2.0,0,
14000,1863.9,26.5,161.7,241.0,1653.0,10137.0,2.0,0,
14100,1868.5,135.7,161.6,249.4,906.0,6317.0,5.0,1,
14200,1863.9,242.0,151.1,99.9,1055.0,7211.0,6.0,1,
14300,1835.3,273.4,143.9,47.9,1074.0,6695.0,2.0,0,
14400,1859.9,218.2,150.5,52.1,1392.0,8027.0,2.0,0,
14600,1809.9,154.3,149.2,67.0,1806.0,10554.0,2.0,0,
14700,1816.7,91.9,152.3,130.1,1682.0,9667.0,2.0,0,
14800,1868.9,26.5,153.3,157.0,1682.0,9667.0,2.0,0,rest_end
14900,1862.9,26.7,153.3,138.4,1682.0,9667.0,2.0,0,
15000,1873.0,29.9,153.3,93.9,1682.0,9667.0,2.0,0,
15100,1877.1,29.4,153.2,94.1,1682.0,9667.0,2.0,0,
15200,1871.2,31.3,153.4,175.9,1682.0,9667.0,2.0,0,
15300,1883.7,27.0,153.2,167.1,1682.0,9667.0,2.0,0,
15400,1873.8,24.1,153.1,104.6,1682.0,9667.0,2.0,0,
15600,1864.3,27.5,153.1,253.6,1682.0,9667.0,2.0,0,
15700,1861.2,197.5,153.2,248.6,1682.0,9667.0,2.0,0,
15800,1857.8,292.0,158.9,125.8,965.0,6351.0,17.0,1,
15900,1882.8,297.0,169.7,39.0,1109.0,6907.0,19.0,1,
16000,1857.8,352.1,174.1,45.4,1321.0,8169.0,20.0,1,
16100,1804.7,328.1,188.1,66.7,1479.0,9380.0,22.0,1,
16200,1847.0,338.2,204.3,66.6,1609.0,10367.0,24.0,1,
16300,1849.7,246.8,217.3,66.4,1008.0,6146.0,14.0,1,
16400,1851.5,20.5,224.8,66.5,1008.0,6146.0,14.0,1,
16600,1877.6,10.8,224.8,35.1,1008.0,6146.0,14.0,1,
16700,1872.0,43.4,224.6,34.9,1008.0,6146.0,14.0,1,
16800,1857.9,70.9,224.9,35.3,1008.0,6146.0,14.0,1,
16900,1876.5,21.1,225.3,23.1,1008.0,6146.0,14.0,1,
17000,1879.2,10.4,225.3,22.7,1008.0,6146.0,14.0,1,
17100,1864.8,10.2,225.2,22.9,1008.0,6146.0,14.0,1,
17200,1868.3,8.2,225.1,23.2,1008.0,6146.0,14.0,1,
17300,1864.0,69.5,225.0,25.0,1008.0,6146.0,14.0,1,
17400,1876.8,246.7,224.0,48.5,1428.0,7481.0,16.0,1,
17600,1846.5,348.0,223.2,38.0,1097.0,6973.0,18.0,1,
17700,1877.0,356.2,220.8,66.9,1330.0,8696.0,21.0,1,
17800,1884.9,364.7,220.7,67.0,1391.0,9116.0,22.0,1,
17900,1822.3,300.6,221.6,66.7,1553.0,10206.0,24.0,1,
18000,1831.7,30.3,216.7,66.4,913.0,6196.0,15.0,1,
18100,1846.7,15.4,216.5,65.5,913.0,6196.0,15.0,1,
18200,1865.0,16.0,216.4,35.7,913.0,6196.0,15.0,1,
18300,1860.9,80.3,216.4,35.7,913.0,6196.0,15.0,1,
18400,1851.2,76.6,216.6,36.7,913.0,6196.0,15.0,1,
18600,1873.9,9.5,217.1,24.5,913.0,6196.0,15.0,1,
18700,1868.2,6.9,217.1,24.1,913.0,6196.0,15.0,1,
18800,1864.9,8.2,217.1,24.3,913.0,6196.0,15.0,1,
18900,1865.8,7.4,217.1,28.0,913.0,6196.0,15.0,1,
19000,1846.2,150.8,217.4,57.3,943.0,7389.0,5.0,1,
19100,1873.7,279.1,213.5,46.4,1024.0,6918.0,2.0,0,
19200,1902.4,259.7,211.6,52.0,1088.0,6672.0,2.0,0,
19300,1854.0,215.3,206.2,40.4,1250.0,7855.0,2.0,0,
19400,1811.4,173.6,193.2,65.9,1332.0,8775.0,2.0,0,
19600,1855.0,39.9,164.0,67.1,1472.0,9088.0,2.0,0,
19700,1849.2,13.9,164.0,68.0,1472.0,9088.0,2.0,0,
19800,1868.2,14.3,164.0,66.2,1472.0,9088.0,2.0,0,
19900,1861.4,34.4,163.9,66.5,1472.0,9088.0,2.0,0,
20000,1890.6,43.3,162.6,68.5,1472.0,9088.0,2.0,0,
20100,1820.0,34.8,163.0,29.3,1472.0,9088.0,2.0,0,
20200,1883.8,13.6,162.9,23.7,1472.0,9088.0,2.0,0,
20300,1870.6,10.9,162.9,22.9,1472.0,9088.0,2.0,0,
20400,1866.8,10.2,162.9,23.1,1472.0,9088.0,2.0,0,
20600,1874.6,111.4,163.2,111.0,1142.0,7760.0,5.0,1,
20700,1872.0,338.4,166.9,38.0,1344.0,7809.0,2.0,0,
20800,1805.0,284.3,173.2,36.1,1269.0,8261.0,2.0,0,
20900,1870.9,221.8,173.8,35.9,1377.0,8513.0,2.0,0,
21000,1876.0,264.8,174.2,66.4,1388.0,8865.0,2.0,0,
21100,1878.5,257.1,178.9,86.0,1512.0,9303.0,2.0,0,
21200,1830.0,49.5,177.0,130.0,1522.0,9168.0,2.0,0,
21300,1835.7,14.5,176.8,130.9,1522.0,9168.0,2.0,0,
21400,1860.3,11.9,176.9,69.2,1522.0,9168.0,2.0,0,
21600,1892.1,55.5,176.7,68.2,1522.0,9168.0,2.0,0,
21700,1848.1,17.1,175.7,50.6,1522.0,9168.0,2.0,0,
21800,1868.7,11.9,175.8,25.0,1522.0,9168.0,2.0,0,
21900,1867.6,10.0,175.8,24.4,1522.0,9168.0,2.0,0,
22000,1865.4,8.7,175.8,28.6,1522.0,9168.0,2.0,0,
22100,1861.3,9.8,175.9,42.9,1522.0,9168.0,2.0,0,
22200,1862.7,212.7,175.7,101.8,1001.0,6481.0,15.0,1,
22300,1842.0,305.6,176.6,37.0,1124.0,7171.0,16.0,1,
22400,1863.8,320.6,173.9,35.7,1129.0,7822.0,18.0,1,
22600,1839.1,364.1,191.6,67.0,1324.0,8732.0,20.0,1,
22700,1821.6,321.3,203.2,67.0,1478.0,9890.0,23.0,1,
22800,1847.8,106.9,213.4,66.7,846.0,6093.0,16.0,1,
22900,1869.3,15.5,218.3,66.3,846.0,6093.0,16.0,1,
23000,1874.0,8.2,218.5,35.9,846.0,6093.0,16.0,1,
23100,1867.0,5.6,218.4,35.3,846.0,6093.0,16.0,1,
23200,1864.9,11.8,218.2,35.3,846.0,6093.0,16.0,1,
23300,1855.5,9.6,217.7,38.3,846.0,6093.0,16.0,1,
23400,1859.4,9.8,217.6,57.2,846.0,6093.0,16.0,1,
23600,1860.2,6.1,217.5,41.4,846.0,6093.0,16.0,1,
23700,1868.5,10.4,217.6,43.4,846.0,6093.0,16.0,1,
23800,1861.9,155.0,217.6,52.2,971.0,6694.0,6.0,1,
23900,1863.3,137.0,217.0,41.0,1027.0,7589.0,6.0,1,
24000,1881.4,305.2,212.2,52.5,1111.0,7643.0,2.0,0,
24100,1817.0,251.7,210.2,65.6,1096.0,7268.0,2.0,0,
24200,1853.4,230.6,203.1,49.1,1165.0,7789.0,2.0,0,
24300,1888.5,281.2,190.5,65.7,1239.0,8060.0,2.0,0,
24400,1869.2,132.1,178.2,66.9,1313.0,8593.0,2.0,0,
24600,1851.8,8.2,172.0,65.9,1313.0,8593.0,2.0,0,
24700,1868.0,9.8,172.0,50.8,1313.0,8593.0,2.0,0,
24800,1862.3,52.4,172.0,52.5,1313.0,8593.0,2.0,0,
24900,1853.9,33.9,172.9,46.9,1313.0,8593.0,2.0,0,
25000,1873.0,12.8,173.0,27.3,1313.0,8593.0,2.0,0,
25100,1875.6,7.8,173.1,26.1,1313.0,8593.0,2.0,0,
25200,1868.5,6.3,173.0,25.6,1313.0,8593.0,2.0,0,
25300,1866.3,5.1,173.0,25.3,1313.0,8593.0,2.0,0,
25400,1864.3,108.2,173.0,66.0,1313.0,8593.0,2.0,0,
25600,1859.9,346.0,178.8,35.6,1020.0,7503.0,16.0,1,
25700,1862.3,318.1,186.3,40.7,1048.0,6787.0,17.0,1,
25800,1892.3,336.1,194.1,67.5,1147.0,7982.0,19.0,1,
25900,1852.9,350.9,203.6,70.3,1232.0,8265.0,20.0,1,
26000,1816.0,322.3,208.0,67.2,1301.0,8679.0,22.0,1,
26100,1856.9,31.2,214.4,66.7,762.0,5078.0,16.0,1,
26200,1846.9,8.1,214.4,46.5,762.0,5078.0,16.0,1,
26300,1866.5,6.9,214.4,35.1,762.0,5078.0,16.0,1,
26400,1864.2,26.9,214.4,34.8,762.0,5078.0,16.0,1,
26600,1827.3,43.7,214.4,24.6,762.0,5078.0,16.0,1,
26700,1889.2,14.7,214.8,23.6,762.0,5078.0,16.0,1,
26800,1871.2,7.6,214.8,23.3,762.0,5078.0,16.0,1,
26900,1867.3,11.9,214.8,23.0,762.0,5078.0,16.0,1,
27000,1853.3,5.7,214.7,23.1,762.0,5078.0,16.0,1,
27100,1858.9,347.0,214.9,47.3,1347.0,7329.0,27.0,0,
27200,1873.7,352.4,226.6,35.1,1036.0,7067.0,2.0,0,
27300,1865.0,294.6,226.5,35.0,1060.0,7022.0,2.0,0,
27400,1845.5,249.3,222.8,35.7,1122.0,7642.0,2.0,0,
27600,1872.3,179.7,201.9,67.2,1319.0,8998.0,2.0,0,
27700,1835.2,34.0,186.4,66.7,1375.0,9420.0,3.0,1,
27800,1845.3,9.7,186.5,66.8,1375.0,9420.0,3.0,1,
27900,1862.4,6.7,186.5,66.0,1375.0,9420.0,3.0,1,
28000,1862.3,9.4,186.5,50.2,1375.0,9420.0,3.0,1,
28100,1874.7,33.3,186.4,47.9,1375.0,9420.0,3.0,1,
28200,1857.2,34.5,185.5,36.0,1375.0,9420.0,3.0,1,
28300,1890.7,18.2,185.4,27.6,1375.0,9420.0,3.0,1,
28400,1875.3,9.1,185.4,25.6,1375.0,9420.0,3.0,1,
28600,1864.6,4.9,185.3,24.7,1375.0,9420.0,3.0,1,
28700,1878.4,218.5,185.3,53.0,949.0,6500.0,7.0,1,
28800,1849.2,262.3,177.2,39.2,953.0,6416.0,2.0,0,
28900,1859.2,249.2,168.7,36.1,970.0,6756.0,2.0,0,
29000,1878.0,223.3,168.8,35.6,1073.0,7411.0,2.0,0,
29100,1875.8,288.0,164.5,35.8,1065.0,7604.0,3.0,1,
29200,1822.3,254.5,167.5,66.2,1208.0,8063.0,2.0,0,
29300,1827.0,43.3,172.0,66.8,1204.0,8371.0,3.0,1,
29400,1867.7,9.2,171.7,65.9,1204.0,8371.0,3.0,1,
29600,1862.4,8.0,171.7,37.6,1204.0,8371.0,3.0,1,
29700,1866.0,13.8,171.7,40.2,1204.0,8371.0,3.0,1,
29800,1830.3,30.5,172.6,73.5,1204.0,8371.0,3.0,1,
29900,1866.5,14.5,172.4,26.0,1204.0,8371.0,3.0,1,
30000,1872.1,13.4,172.5,25.0,1204.0,8371.0,3.0,1,
30100,1854.8,6.4,172.6,24.0,1204.0,8371.0,3.0,1,
30200,1860.2,6.0,172.6,22.8,1204.0,8371.0,3.0,1,
30300,1861.7,176.4,172.6,30.1,1010.0,7031.0,6.0,1,
30400,1879.7,252.0,171.5,45.8,956.0,6648.0,2.0,0,
30600,1857.5,247.1,166.9,65.4,1066.0,6995.0,2.0,0,
30700,1849.7,245.8,167.6,36.1,1040.0,7204.0,3.0,1,
30800,1857.1,213.5,167.9,66.0,1084.0,7870.0,3.0,1,
30900,1880.8,74.1,164.7,66.8,1090.0,7495.0,2.0,0,
31000,1836.1,10.0,166.4,66.3,1090.0,7495.0,2.0,0,
31100,1856.8,4.6,166.4,35.9,1090.0,7495.0,2.0,0,
31200,1860.0,8.3,166.4,35.2,1090.0,7495.0,2.0,0,
31300,1868.1,15.2,166.4,35.8,1090.0,7495.0,2.0,0,
31400,1872.3,15.3,166.2,42.0,1090.0,7495.0,2.0,0,
31600,1860.4,15.6,164.8,25.4,1090.0,7495.0,2.0,0,
31700,1869.0,26.4,164.8,27.4,1090.0,7495.0,2.0,0,
31800,1861.5,19.7,164.9,35.1,1090.0,7495.0,2.0,0,
31900,1880.2,293.9,165.0,28.3,1024.0,6945.0,2.0,0,
32000,1870.8,360.4,179.1,29.2,1309.0,7901.0,27.0,0,
32100,1822.4,299.2,189.1,34.3,1114.0,8168.0,2.0,0,
32200,1850.6,328.6,194.4,35.2,1589.0,9197.0,2.0,0,
32300,1879.0,248.0,204.4,66.1,1341.0,8994.0,28.0,0,
32400,1891.2,319.7,205.8,100.6,1234.0,8712.0,3.0,1,
32600,1847.8,13.1,213.9,132.0,1234.0,8712.0,3.0,1,
32700,1858.5,4.7,213.8,65.9,1234.0,8712.0,3.0,1,
32800,1860.3,5.8,213.8,36.6,1234.0,8712.0,3.0,1,
32900,1858.2,6.2,213.9,37.1,1234.0,8712.0,3.0,1,
33000,1862.8,6.8,213.9,39.1,1234.0,8712.0,3.0,1,
33100,1865.6,5.5,213.8,132.8,1234.0,8712.0,3.0,1,
33200,1861.3,6.7,213.8,134.3,1234.0,8712.0,3.0,1,
33300,1862.0,6.0,213.8,165.2,1234.0,8712.0,3.0,1,
33400,1863.0,5.6,213.7,145.9,1234.0,8712.0,3.0,1,
33600,1817.9,198.8,209.7,39.8,1118.0,8227.0,5.0,1,
33700,1911.5,310.0,196.4,38.8,1308.0,9368.0,2.0,0,
33800,1865.4,301.3,197.8,56.6,1281.0,8623.0,28.0,0,
33900,1843.0,243.9,194.3,55.7,1156.0,8870.0,2.0,0,
34000,1841.8,312.3,193.7,66.1,1223.0,9489.0,2.0,0,
34100,1845.3,215.5,196.9,130.6,1219.0,8810.0,2.0,0,
34200,1879.8,16.1,191.8,132.2,1219.0,8810.0,2.0,0,
34300,1859.9,5.7,191.8,69.5,1219.0,8810.0,2.0,0,
34400,1861.8,5.5,191.8,56.9,1219.0,8810.0,2.0,0,
34600,1860.9,8.2,191.8,36.8,1219.0,8810.0,2.0,0,
34700,1866.3,7.6,191.8,101.5,1219.0,8810.0,2.0,0,
34800,1860.2,6.4,191.8,93.4,1219.0,8810.0,2.0,0,
34900,1861.3,6.0,191.8,100.7,1219.0,8810.0,2.0,0,
35000,1861.9,6.6,191.8,133.3,1219.0,8810.0,2.0,0,
35100,1862.1,96.7,191.8,134.8,1219.0,8810.0,2.0,0,
35200,1887.5,206.8,192.5,56.6,1056.0,7410.0,6.0,1,
35300,1868.5,298.9,192.9,53.3,1583.0,9304.0,2.0,0,
35400,1813.6,237.6,192.3,43.6,1145.0,8720.0,28.0,0,
35600,1884.2,223.8,190.6,66.4,1154.0,9153.0,28.0,0,
35700,1873.6,320.9,182.3,125.4,1122.0,8714.0,2.0,0,
35800,1838.3,27.3,184.1,91.3,1084.0,8056.0,2.0,0,
35900,1862.8,7.5,184.1,100.7,1084.0,8056.0,2.0,0,
36000,1862.3,6.1,184.1,35.3,1084.0,8056.0,2.0,0,
36100,1861.2,7.9,184.1,30.2,1084.0,8056.0,2.0,0,
36200,1863.6,8.9,184.1,34.7,1084.0,8056.0,2.0,0,
36300,1860.6,8.1,184.1,65.9,1084.0,8056.0,2.0,0,
36400,1857.3,6.7,184.1,73.2,1084.0,8056.0,2.0,0,
36600,1861.5,6.4,184.1,99.2,1084.0,8056.0,2.0,0,
36700,1862.4,6.4,184.1,88.4,1084.0,8056.0,2.0,0,
36800,1873.7,305.7,183.6,80.2,1114.0,6706.0,2.0,0,
36900,1830.6,256.9,192.7,35.0,1081.0,8301.0,28.0,0,
37000,1891.4,307.7,191.5,34.8,1042.0,8269.0,2.0,0,
37100,1875.1,274.9,196.3,35.6,1456.0,8948.0,2.0,0,
37200,1825.6,284.1,193.2,66.9,1129.0,8907.0,28.0,0,
37300,1851.6,282.6,195.1,132.8,1491.0,9179.0,2.0,0,
37400,1850.9,40.3,192.3,197.5,1057.0,8093.0,2.0,0,
37600,1861.5,9.9,192.3,37.0,1057.0,8093.0,2.0,0,
37700,1860.7,8.7,192.3,35.6,1057.0,8093.0,2.0,0,
37800,1859.7,5.9,192.3,35.6,1057.0,8093.0,2.0,0,
37900,1862.7,6.1,192.3,52.5,1057.0,8093.0,2.0,0,
38000,1860.9,7.3,192.3,55.1,1057.0,8093.0,2.0,0,
38100,1861.6,6.4,192.3,70.9,1057.0,8093.0,2.0,0,
38200,1862.2,6.3,192.3,85.0,1057.0,8093.0,2.0,0,
38300,1862.0,7.3,192.3,99.7,1057.0,8093.0,2.0,0,
38400,1881.6,247.9,193.3,67.9,1033.0,6719.0,7.0,1,
38600,1862.2,278.4,182.3,65.6,1052.0,8104.0,2.0,0,
38700,1831.3,255.7,177.7,65.6,1097.0,8338.0,28.0,0,
38800,1862.6,310.0,180.1,34.8,1034.0,8214.0,2.0,0,
38900,1900.7,245.9,182.8,57.6,1525.0,9320.0,2.0,0,
39000,1845.8,59.8,180.5,157.8,1048.0,8143.0,3.0,1,
39100,1837.8,8.4,179.9,105.7,1048.0,8143.0,3.0,1,
39200,1861.3,6.4,179.9,69.4,1048.0,8143.0,3.0,1,
39300,1861.6,5.8,179.9,37.9,1048.0,8143.0,3.0,1,
39400,1859.3,8.4,179.9,35.8,1048.0,8143.0,3.0,1,
39600,1860.0,5.3,179.9,83.6,1048.0,8143.0,3.0,1,
39700,1862.2,6.6,179.9,98.7,1048.0,8143.0,3.0,1,
39800,1861.7,6.3,179.9,107.1,1048.0,8143.0,3.0,1,
39900,1862.0,4.8,179.9,117.6,1048.0,8143.0,3.0,1,
40000,1862.6,227.7,179.9,142.9,997.0,6257.0,7.0,1,
40100,1837.8,224.0,179.5,36.4,1028.0,7995.0,6.0,1,
40200,1866.0,269.5,178.2,35.3,1506.0,8900.0,2.0,0,
40300,1882.9,326.6,179.6,35.5,1058.0,7930.0,27.0,0,
40400,1874.8,302.8,184.7,34.5,1024.0,7730.0,2.0,0,
40600,1832.3,92.1,179.0,148.1,1077.0,8332.0,3.0,1,
40700,1882.1,10.7,178.3,132.5,1077.0,8332.0,3.0,1,
40800,1860.9,6.0,178.3,94.3,1077.0,8332.0,3.0,1,
40900,1861.5,5.0,178.3,57.5,1077.0,8332.0,3.0,1,
41000,1861.5,9.6,178.3,35.8,1077.0,8332.0,3.0,1,
41100,1862.9,6.8,178.3,38.5,1077.0,8332.0,3.0,1,
41200,1861.3,5.8,178.3,75.8,1077.0,8332.0,3.0,1,
41300,1862.3,6.1,178.3,91.9,1077.0,8332.0,3.0,1,
41400,1862.1,4.9,178.3,112.1,1077.0,8332.0,3.0,1,
41600,1862.0,243.2,178.3,110.3,976.0,6720.0,6.0,1,
41700,1881.8,225.3,181.2,51.9,993.0,7624.0,6.0,1,
41800,1878.5,265.5,182.0,51.9,1504.0,8942.0,2.0,0,
41900,1825.9,293.7,182.1,49.0,1026.0,8465.0,2.0,0,
42000,1850.4,285.2,179.8,38.1,1330.0,8646.0,2.0,0,
42100,1859.7,208.5,178.6,89.3,1069.0,8828.0,2.0,0,
42200,1904.2,193.2,176.4,132.2,1050.0,7766.0,2.0,0,
42300,1837.0,15.1,180.9,133.7,1050.0,7766.0,2.0,0,
42400,1861.0,4.9,180.9,79.0,1050.0,7766.0,2.0,0,
42600,1860.1,8.7,180.9,34.3,1050.0,7766.0,2.0,0,
42700,1862.8,8.0,180.9,34.7,1050.0,7766.0,2.0,0,
42800,1864.0,6.7,180.9,82.9,1050.0,7766.0,2.0,0,
42900,1861.7,5.1,180.9,79.6,1050.0,7766.0,2.0,0,
43000,1862.0,5.5,180.9,110.1,1050.0,7766.0,2.0,0,
43100,1862.2,6.9,180.9,123.1,1050.0,7766.0,2.0,0,
43200,1862.2,43.0,180.9,114.7,1050.0,7766.0,2.0,0,
43300,1886.1,270.1,177.8,46.5,965.0,6152.0,2.0,0,
43400,1830.0,252.6,185.0,37.3,1023.0,8072.0,2.0,0,
43600,1901.2,221.4,184.8,47.7,1562.0,8731.0,2.0,0,
43700,1845.8,307.0,183.6,84.2,961.0,7848.0,2.0,0,
43800,1849.8,228.3,188.5,163.5,960.0,7491.0,2.0,0,
43900,1860.4,20.1,182.5,226.1,960.0,7491.0,2.0,0,
44000,1861.3,7.3,182.5,69.2,960.0,7491.0,2.0,0,
44100,1862.0,7.3,182.5,35.4,960.0,7491.0,2.0,0,
44200,1861.2,6.5,182.5,34.6,960.0,7491.0,2.0,0,
44300,1861.3,7.5,182.5,34.7,960.0,7491.0,2.0,0,
44400,1863.3,6.3,182.5,78.0,960.0,7491.0,2.0,0,
44600,1861.8,7.9,182.5,92.7,960.0,7491.0,2.0,0,
44700,1861.7,6.0,182.5,116.2,960.0,7491.0,2.0,0,
44800,1861.8,56.8,182.5,114.5,960.0,7491.0,2.0,0,
44900,1852.9,332.8,186.8,36.6,1586.0,6943.0,2.0,0,
45000,1879.6,318.8,190.4,34.5,984.0,7246.0,2.0,0,
45100,1871.9,266.7,191.1,35.1,969.0,7311.0,2.0,0,
45200,1836.2,282.8,189.0,36.1,987.0,8033.0,2.0,0,
45300,1839.5,265.1,192.4,68.9,939.0,7557.0,2.0,0,
45400,1885.2,281.7,187.8,226.6,1393.0,8315.0,2.0,0,
45600,1872.0,7.1,189.8,125.5,1393.0,8315.0,2.0,0,
45700,1862.7,6.8,189.8,35.7,1393.0,8315.0,2.0,0,
45800,1861.3,6.1,189.8,34.5,1393.0,8315.0,2.0,0,
45900,1861.4,6.0,189.8,34.4,1393.0,8315.0,2.0,0,
46000,1864.3,6.4,189.8,79.6,1393.0,8315.0,2.0,0,
46100,1862.3,6.9,189.8,80.9,1393.0,8315.0,2.0,0,
46200,1861.8,6.2,189.8,122.1,1393.0,8315.0,2.0,0,
46300,1862.6,6.0,189.8,115.9,1393.0,8315.0,2.0,0,
46400,1862.5,7.5,189.8,135.1,1393.0,8315.0,2.0,0,
46600,1832.1,245.6,182.3,29.2,967.0,7676.0,6.0,1,
46700,1846.2,237.5,174.1,30.1,1558.0,8160.0,2.0,0,
46800,1857.8,306.5,172.0,34.4,935.0,7354.0,2.0,0,
46900,1900.5,239.5,176.6,30.3,939.0,7559.0,2.0,0,
47000,1847.7,285.6,172.4,66.3,1237.0,8150.0,2.0,0,
47100,1835.2,53.5,174.6,132.5,876.0,6830.0,2.0,0,
47200,1863.9,9.0,174.2,166.9,876.0,6830.0,2.0,0,
47300,1861.0,6.5,174.2,39.8,876.0,6830.0,2.0,0,
47400,1861.7,5.7,174.2,34.9,876.0,6830.0,2.0,0,
47600,1865.6,7.1,174.2,48.9,876.0,6830.0,2.0,0,
47700,1860.3,5.8,174.2,75.2,876.0,6830.0,2.0,0,
47800,1862.0,6.3,174.2,67.4,876.0,6830.0,2.0,0,
47900,1861.7,6.8,174.2,80.4,876.0,6830.0,2.0,0,
48000,1861.9,6.2,174.2,107.7,876.0,6830.0,2.0,0,
48100,1862.2,234.6,174.1,102.0,928.0,5958.0,9.0,1,
48200,1859.1,215.2,175.3,29.9,930.0,6726.0,2.0,0,
48300,1891.8,318.0,174.5,34.9,1225.0,7629.0,2.0,0,
48400,1847.0,274.8,181.6,35.3,913.0,7093.0,2.0,0,
48600,1833.7,278.3,178.2,69.1,876.0,7198.0,2.0,0,
48700,1895.7,82.5,178.5,164.0,848.0,6763.0,2.0,0,
48800,1855.6,11.9,176.8,163.5,848.0,6763.0,2.0,0,
48900,1861.3,8.1,176.8,65.8,848.0,6763.0,2.0,0,
49000,1862.1,6.7,176.8,35.2,848.0,6763.0,2.0,0,
49100,1860.9,8.4,176.8,30.2,848.0,6763.0,2.0,0,
49200,1864.5,6.3,176.9,37.9,848.0,6763.0,2.0,0,
49300,1863.4,6.2,176.8,86.7,848.0,6763.0,2.0,0,
49400,1862.1,6.5,176.8,88.7,848.0,6763.0,2.0,0,
49600,1862.8,6.6,176.8,85.1,848.0,6763.0,2.0,0,
49700,1862.2,195.0,176.8,99.7,980.0,6804.0,6.0,1,
49800,1891.5,321.6,175.0,37.2,956.0,6147.0,2.0,0,
49900,1843.5,300.6,185.6,35.1,920.0,7000.0,2.0,0,
50000,1838.6,247.1,185.5,34.8,923.0,6972.0,2.0,0,
50100,1891.4,283.7,183.2,35.4,1452.0,8371.0,2.0,0,
50200,1869.6,267.7,187.0,66.9,910.0,7307.0,2.0,0,
50300,1858.4,120.9,182.8,203.1,837.0,6650.0,2.0,0,
50400,1851.6,12.8,180.9,197.9,837.0,6650.0,2.0,0,
50600,1860.9,7.9,180.9,35.1,837.0,6650.0,2.0,0,
50700,1862.1,6.8,180.9,30.0,837.0,6650.0,2.0,0,
50800,1862.6,7.4,180.9,34.9,837.0,6650.0,2.0,0,
50900,1863.4,8.1,180.9,100.1,837.0,6650.0,2.0,0,
51000,1861.7,6.6,180.9,101.1,837.0,6650.0,2.0,0,
51100,1862.3,7.7,180.9,122.9,837.0,6650.0,2.0,0,
51200,1863.2,7.8,180.9,138.2,837.0,6650.0,2.0,0,
51300,1860.8,141.6,180.9,136.1,1075.0,7564.0,6.0,1,
51400,1851.8,242.2,181.7,52.3,1723.0,8147.0,2.0,0,
51600,1890.3,301.3,176.6,37.4,899.0,6778.0,2.0,0,
51700,1854.1,301.5,180.0,66.5,1156.0,7197.0,2.0,0,
51800,1834.9,228.3,183.0,131.3,826.0,6701.0,2.0,0,
51900,1867.3,209.5,180.9,134.7,771.0,5965.0,2.0,0,
52000,1867.2,19.0,185.2,163.6,771.0,5965.0,2.0,0,
52100,1860.5,9.1,185.2,93.5,771.0,5965.0,2.0,0,
52200,1861.6,7.9,185.2,34.6,771.0,5965.0,2.0,0,
52300,1861.7,10.2,185.2,34.4,771.0,5965.0,2.0,0,
52400,1864.5,9.0,185.2,30.1,771.0,5965.0,2.0,0,
52600,1862.6,8.7,185.2,68.8,771.0,5965.0,2.0,0,
52700,1861.9,8.5,185.2,70.5,771.0,5965.0,2.0,0,
52800,1860.9,7.4,185.2,89.1,771.0,5965.0,2.0,0,
52900,1861.8,100.9,185.2,105.6,771.0,5965.0,2.0,0,
53000,1883.3,216.5,185.8,35.6,1758.0,8098.0,2.0,0,
53100,1840.5,304.4,189.1,30.1,991.0,7332.0,2.0,0,
53200,1852.2,231.8,186.0,35.1,1307.0,7404.0,2.0,0,
53300,1842.2,288.8,185.9,65.8,898.0,6888.0,2.0,0,
53400,1894.8,224.7,182.3,154.1,862.0,6778.0,2.0,0,
53600,1822.6,26.7,182.6,133.5,802.0,6057.0,2.0,0,
53700,1865.0,7.9,182.6,99.2,802.0,6057.0,2.0,0,
53800,1861.9,7.0,182.6,35.8,802.0,6057.0,2.0,0,
53900,1861.5,7.6,182.6,35.3,802.0,6057.0,2.0,0,
54000,1864.3,5.8,182.6,35.1,802.0,6057.0,2.0,0,
54100,1863.7,6.6,182.6,94.2,802.0,6057.0,2.0,0,
54200,1862.1,6.8,182.6,94.1,802.0,6057.0,2.0,0,
54300,1858.4,6.6,182.6,133.8,802.0,6057.0,2.0,0,
54400,1859.8,6.9,182.6,166.1,802.0,6057.0,2.0,0,
54600,1867.3,273.2,182.3,87.6,1085.0,6934.0,6.0,1,
54700,1833.3,221.7,186.6,34.8,997.0,7433.0,6.0,1,
54800,1899.0,301.5,176.5,35.0,1602.0,7109.0,2.0,0,
54900,1855.2,252.5,183.5,35.1,853.0,6455.0,27.0,0,
55000,1862.5,289.7,176.4,29.9,795.0,6036.0,2.0,0,
55100,1847.0,260.6,182.4,36.0,822.0,6450.0,27.0,0,
55200,1842.1,44.3,181.6,163.7,748.0,5614.0,2.0,0,
55300,1879.1,9.3,181.6,105.3,748.0,5614.0,2.0,0,
55400,1861.8,6.9,181.6,35.9,748.0,5614.0,2.0,0,
55600,1863.6,8.3,181.6,30.2,748.0,5614.0,2.0,0,
55700,1862.1,8.7,181.6,67.6,748.0,5614.0,2.0,0,
55800,1858.1,9.4,181.6,102.4,748.0,5614.0,2.0,0,
55900,1859.2,9.6,181.6,104.3,748.0,5614.0,2.0,0,
56000,1860.8,8.5,181.6,102.2,748.0,5614.0,2.0,0,
56100,1862.5,8.8,181.6,133.2,748.0,5614.0,2.0,0,
56200,1880.9,275.1,181.6,125.4,1096.0,6845.0,7.0,1,
56300,1861.6,232.8,181.7,29.6,969.0,7102.0,6.0,1,
56400,1860.1,317.9,184.8,29.7,1533.0,7278.0,2.0,0,
56600,1873.3,290.3,190.5,34.2,1184.0,6612.0,2.0,0,
56700,1875.5,295.2,191.8,65.7,825.0,6198.0,27.0,0,
56800,1876.4,71.6,190.5,197.3,741.0,5557.0,2.0,0,
56900,1843.2,11.6,189.2,186.5,741.0,5557.0,2.0,0,
57000,1862.1,8.1,189.2,66.2,741.0,5557.0,2.0,0,
57100,1862.6,8.6,189.2,34.8,741.0,5557.0,2.0,0,
57200,1863.6,8.8,189.2,30.1,741.0,5557.0,2.0,0,
57300,1861.9,9.1,189.2,34.7,741.0,5557.0,2.0,0,
57400,1859.2,9.8,189.2,103.1,741.0,5557.0,2.0,0,
57600,1859.8,8.5,189.2,131.8,741.0,5557.0,2.0,0,
57700,1862.3,9.1,189.2,111.4,741.0,5557.0,2.0,0,
57800,1861.8,231.6,189.2,112.8,1107.0,7104.0,6.0,1,
57900,1870.0,245.2,187.4,47.7,1152.0,7091.0,2.0,0,
58000,1849.3,293.5,191.1,47.5,957.0,6618.0,27.0,0,
58100,1891.9,283.5,186.5,36.0,729.0,5537.0,26.0,0,
58200,1879.4,267.2,184.8,35.8,1442.0,6809.0,2.0,0,
58300,1838.8,293.7,185.3,67.3,857.0,5505.0,26.0,0,
58400,1860.1,107.7,186.1,226.0,699.0,5366.0,2.0,0,
58600,1861.8,8.4,184.1,67.0,699.0,5366.0,2.0,0,
58700,1861.4,7.4,184.1,34.9,699.0,5366.0,2.0,0,
58800,1862.9,7.7,184.1,30.1,699.0,5366.0,2.0,0,
58900,1864.3,9.0,184.1,36.6,699.0,5366.0,2.0,0,
59000,1859.0,9.4,184.1,78.2,699.0,5366.0,2.0,0,
59100,1859.4,8.6,184.1,85.4,699.0,5366.0,2.0,0,
59200,1861.4,9.0,184.1,100.1,699.0,5366.0,2.0,0,
59300,1861.4,7.8,184.1,99.9,699.0,5366.0,2.0,0,
59400,1861.7,194.6,184.1,105.4,1112.0,7532.0,5.0,1,
59600,1855.5,258.4,187.8,37.2,1042.0,6704.0,27.0,0,
59700,1864.2,295.4,183.3,36.1,781.0,5663.0,2.0,0,
59800,1846.3,294.1,184.7,66.3,852.0,5708.0,26.0,0,
59900,1858.9,283.9,189.1,157.9,707.0,5572.0,2.0,0,
60000,1895.0,185.0,186.2,188.3,672.0,5063.0,2.0,0,
60100,1839.2,18.8,188.3,202.0,672.0,5063.0,2.0,0,
60200,1863.0,8.3,188.3,67.4,672.0,5063.0,2.0,0,
60300,1862.1,8.1,188.2,30.2,672.0,5063.0,2.0,0,
60400,1862.1,8.9,188.3,29.9,672.0,5063.0,2.0,0,
60600,1857.7,8.9,188.3,154.8,672.0,5063.0,2.0,0,
60700,1860.5,9.0,188.3,133.1,672.0,5063.0,2.0,0,
60800,1861.4,8.6,188.3,132.5,672.0,5063.0,2.0,0,
60900,1862.0,8.1,188.3,132.6,672.0,5063.0,2.0,0,
61000,1861.9,143.4,188.3,133.0,672.0,5063.0,2.0,0,
61100,1874.3,311.8,187.5,29.8,1527.0,7571.0,2.0,0,
61200,1828.5,256.5,191.5,30.2,896.0,6647.0,2.0,0,
61300,1873.6,298.6,190.0,35.1,1480.0,6586.0,2.0,0,
61400,1874.7,308.7,190.7,65.8,849.0,5478.0,26.0,0,
61600,1848.8,279.9,187.6,201.8,1028.0,5280.0,26.0,0,
61700,1847.9,23.9,189.2,226.7,628.0,4739.0,2.0,0,
61800,1862.8,7.4,189.3,99.3,628.0,4739.0,2.0,0,
61900,1862.6,8.5,189.3,35.4,628.0,4739.0,2.0,0,
62000,1862.8,8.1,189.3,34.8,628.0,4739.0,2.0,0,
62100,1861.9,9.8,189.3,34.7,628.0,4739.0,2.0,0,
62200,1858.0,9.5,189.3,135.7,628.0,4739.0,2.0,0,
62300,1860.2,8.3,189.3,152.4,628.0,4739.0,2.0,0,
62400,1861.3,7.9,189.3,136.1,628.0,4739.0,2.0,0,
62600,1861.7,6.9,189.3,140.3,628.0,4739.0,2.0,0,
62700,1833.3,242.1,188.7,39.0,1065.0,6587.0,7.0,1,
62800,1904.0,285.5,186.3,30.1,926.0,6795.0,6.0,1,
62900,1865.7,323.5,187.0,35.1,1270.0,6459.0,2.0,0,
63000,1836.3,288.2,188.7,34.5,834.0,5255.0,26.0,0,
63100,1860.6,297.7,188.5,34.9,1343.0,5804.0,2.0,0,
63200,1858.3,285.4,192.8,67.0,785.0,4999.0,26.0,0,
63300,1859.6,33.4,188.4,194.4,644.0,4915.0,2.0,0,
63400,1873.8,9.3,188.4,123.8,644.0,4915.0,2.0,0,
63600,1861.9,7.8,188.4,34.9,644.0,4915.0,2.0,0,
63700,1863.1,8.1,188.4,30.0,644.0,4915.0,2.0,0,
63800,1861.7,8.2,188.3,105.4,644.0,4915.0,2.0,0,
63900,1860.5,8.1,188.3,200.1,644.0,4915.0,2.0,0,
64000,1861.3,8.9,188.3,200.2,644.0,4915.0,2.0,0,
64100,1860.9,8.2,188.3,199.9,644.0,4915.0,2.0,0,
64200,1860.7,8.2,188.3,189.2,644.0,4915.0,2.0,0,
64300,1886.1,221.3,188.4,150.5,1018.0,6261.0,7.0,1,
64400,1856.1,237.7,188.0,35.5,952.0,6359.0,6.0,1,
64600,1858.6,297.5,184.5,36.6,724.0,5221.0,26.0,0,
64700,1895.5,320.0,184.1,35.9,1461.0,6127.0,2.0,0,
64800,1841.9,274.0,185.6,122.8,790.0,4957.0,26.0,0,
64900,1858.8,51.9,183.2,196.9,629.0,4604.0,2.0,0,
65000,1861.5,9.4,182.9,157.2,629.0,4604.0,2.0,0,
65100,1862.4,7.5,182.9,66.3,629.0,4604.0,2.0,0,
65200,1862.3,8.3,182.8,35.0,629.0,4604.0,2.0,0,
65300,1864.2,8.3,182.8,29.7,629.0,4604.0,2.0,0,
65400,1860.4,8.7,182.9,49.2,629.0,4604.0,2.0,0,
65600,1861.3,8.3,182.9,152.2,629.0,4604.0,2.0,0,
65700,1861.0,8.6,182.9,151.8,629.0,4604.0,2.0,0,
65800,1861.1,8.8,182.9,146.6,629.0,4604.0,2.0,0,
65900,1861.3,236.0,182.9,149.1,1035.0,6544.0,6.0,1,
66000,1866.7,311.4,182.3,50.7,1358.0,6432.0,2.0,0,
66100,1877.5,259.1,188.5,37.6,835.0,6122.0,27.0,0,
66200,1861.6,272.9,185.9,35.0,683.0,5040.0,2.0,0,
66300,1850.6,291.5,183.4,35.5,1491.0,6121.0,2.0,0,
66400,1836.6,268.9,186.3,135.0,650.0,5056.0,2.0,0,
66600,1859.3,11.9,185.7,195.9,650.0,5056.0,2.0,0,
66700,1861.5,9.8,185.7,66.3,650.0,5056.0,2.0,0,
66800,1859.4,7.1,185.7,29.9,650.0,5056.0,2.0,0,
66900,1862.5,8.1,185.8,29.4,650.0,5056.0,2.0,0,
67000,1863.9,8.9,185.7,29.6,650.0,5056.0,2.0,0,
67100,1859.9,9.3,185.7,100.4,650.0,5056.0,2.0,0,
67200,1860.2,8.4,185.8,110.9,650.0,5056.0,2.0,0,
67300,1861.4,9.1,185.8,89.5,650.0,5056.0,2.0,0,
67400,1861.3,8.0,185.7,67.3,650.0,5056.0,2.0,0,
67600,1887.6,318.5,182.6,36.2,1688.0,6791.0,2.0,0,
67700,1831.5,256.3,188.5,34.8,810.0,5986.0,2.0,0,
67800,1853.5,269.6,187.5,35.0,891.0,5593.0,2.0,0,
67900,1871.3,313.7,188.5,66.1,758.0,4926.0,26.0,0,
68000,1884.5,274.4,187.6,195.4,668.0,5073.0,2.0,0,
68100,1861.9,140.9,185.3,199.3,610.0,4533.0,2.0,0,
68200,1845.5,14.6,185.3,197.9,610.0,4533.0,2.0,0,
68300,1861.3,7.6,185.3,67.1,610.0,4533.0,2.0,0,
68400,1861.0,7.6,185.3,34.3,610.0,4533.0,2.0,0,
68600,1862.6,8.5,185.3,30.1,610.0,4533.0,2.0,0,
68700,1862.3,8.2,185.3,112.8,610.0,4533.0,2.0,0,
68800,1861.5,8.8,185.3,99.4,610.0,4533.0,2.0,0,
68900,1860.5,7.6,185.3,100.3,610.0,4533.0,2.0,0,
69000,1860.7,8.1,185.3,101.5,610.0,4533.0,2.0,0,
69100,1861.6,203.5,185.3,111.4,1111.0,7053.0,2.0,0,
69200,1846.6,300.2,187.8,29.4,1391.0,6645.0,2.0,0,
69300,1863.9,289.1,186.1,30.0,842.0,6012.0,2.0,0,
69400,1894.0,276.9,186.2,34.9,1480.0,5915.0,2.0,0,
69600,1855.7,238.5,186.9,195.2,609.0,4614.0,2.0,0,
69700,1855.7,198.6,186.7,197.9,576.0,4244.0,2.0,0,
69800,1864.9,19.4,187.4,197.9,576.0,4244.0,2.0,0,
69900,1861.0,9.8,187.4,100.0,576.0,4244.0,2.0,0,
70000,1860.8,9.2,187.4,36.0,576.0,4244.0,2.0,0,
70100,1861.2,7.1,187.4,35.4,576.0,4244.0,2.0,0,
70200,1864.6,8.5,187.4,34.8,576.0,4244.0,2.0,0,
70300,1861.3,9.1,187.4,135.0,576.0,4244.0,2.0,0,
70400,1860.7,7.9,187.4,171.7,576.0,4244.0,2.0,0,
70600,1861.5,9.0,187.4,147.4,576.0,4244.0,2.0,0,
70700,1861.4,107.9,187.4,151.9,576.0,4244.0,2.0,0,
70800,1868.8,258.6,189.2,38.5,1051.0,6840.0,3.0,1,
70900,1863.7,294.6,184.8,35.5,874.0,5964.0,2.0,0,
71000,1857.2,276.8,185.3,36.1,1259.0,5676.0,2.0,0,
71100,1837.2,281.0,186.5,66.3,681.0,4846.0,26.0,0,
71200,1894.3,278.0,183.6,157.1,1216.0,5450.0,2.0,0,
71300,1858.9,287.8,186.0,199.9,676.0,4662.0,26.0,0,
71400,1835.5,25.7,184.2,200.1,617.0,4405.0,2.0,0,
71600,1861.1,6.4,184.1,56.0,617.0,4405.0,2.0,0,
71700,1861.8,8.4,184.1,35.3,617.0,4405.0,2.0,0,
71800,1862.3,8.3,184.2,30.3,617.0,4405.0,2.0,0,
71900,1860.9,7.5,184.2,87.6,617.0,4405.0,2.0,0,
72000,1862.2,8.6,184.2,101.8,617.0,4405.0,2.0,0,
72100,1862.2,8.8,184.1,132.3,617.0,4405.0,2.0,0,
72200,1861.5,7.3,184.1,132.1,617.0,4405.0,2.0,0,
72300,1861.7,8.5,184.1,172.1,617.0,4405.0,2.0,0,
72400,1865.8,245.8,183.4,92.1,1061.0,6828.0,6.0,1,
72600,1874.6,279.4,188.5,34.5,1177.0,5991.0,2.0,0,
72700,1870.0,285.8,187.0,35.1,674.0,4946.0,2.0,0,
72800,1865.5,279.9,185.7,35.4,1244.0,5766.0,2.0,0,
72900,1830.9,257.9,189.1,123.9,682.0,4835.0,26.0,0,
73000,1861.9,40.5,187.2,225.7,624.0,4495.0,2.0,0,
73100,1872.4,8.7,187.2,133.5,624.0,4495.0,2.0,0,
73200,1861.1,7.2,187.2,55.7,624.0,4495.0,2.0,0,
73300,1861.4,6.9,187.2,35.2,624.0,4495.0,2.0,0,
73400,1863.3,6.2,187.2,34.3,624.0,4495.0,2.0,0,
73600,1860.5,7.8,187.1,115.1,624.0,4495.0,2.0,0,
73700,1861.8,7.4,187.1,133.7,624.0,4495.0,2.0,0,
73800,1860.8,7.3,187.1,133.8,624.0,4495.0,2.0,0,
73900,1861.5,8.0,187.1,111.7,624.0,4495.0,2.0,0,
74000,1882.5,238.8,187.1,134.5,1002.0,6127.0,8.0,1,
74100,1869.5,279.4,187.3,29.2,1378.0,6703.0,2.0,0,
74200,1846.6,264.0,188.8,34.7,974.0,6056.0,2.0,0,
74300,1844.6,250.0,187.6,35.3,647.0,4749.0,2.0,0,
74400,1860.7,302.7,185.8,35.9,1081.0,5252.0,26.0,0,
74600,1877.3,66.9,187.3,166.1,596.0,4417.0,2.0,0,
74700,1843.2,11.1,187.3,133.2,596.0,4417.0,2.0,0,
74800,1861.7,7.9,187.3,36.0,596.0,4417.0,2.0,0,
74900,1861.8,6.1,187.3,29.9,596.0,4417.0,2.0,0,
75000,1862.1,8.3,187.3,29.4,596.0,4417.0,2.0,0,
75100,1864.7,8.9,187.3,34.3,596.0,4417.0,2.0,0,
75200,1860.8,7.2,187.3,141.8,596.0,4417.0,2.0,0,
75300,1863.8,7.4,187.3,143.2,596.0,4417.0,2.0,0,
75400,1862.0,7.7,187.3,139.6,596.0,4417.0,2.0,0,
75600,1861.6,218.6,187.3,156.9,998.0,6299.0,6.0,1,
75700,1872.2,290.1,185.0,41.8,1688.0,6551.0,2.0,0,
75800,1835.0,292.7,186.8,36.7,761.0,5029.0,26.0,0,
75900,1893.0,267.4,185.1,35.7,638.0,4368.0,2.0,0,
76000,1870.1,305.9,184.0,66.5,1148.0,5263.0,26.0,0,
76100,1843.3,171.6,183.5,187.8,613.0,5162.0,6.0,1,
76200,1860.3,106.8,179.6,158.5,540.0,4010.0,2.0,0,
76300,1868.2,12.4,178.8,67.0,540.0,4010.0,2.0,0,
76400,1860.7,7.7,178.8,39.0,540.0,4010.0,2.0,0,
76600,1864.3,8.8,178.8,29.0,540.0,4010.0,2.0,0,
76700,1863.7,8.8,178.8,37.7,540.0,4010.0,2.0,0,
76800,1861.1,8.8,178.8,92.6,540.0,4010.0,2.0,0,
76900,1861.8,8.2,178.8,104.7,540.0,4010.0,2.0,0,
77000,1862.7,7.2,178.8,105.7,540.0,4010.0,2.0,0,
77100,1862.0,7.8,178.8,112.9,540.0,4010.0,2.0,0,
77200,1861.8,141.5,178.8,135.0,1078.0,7292.0,6.0,1,
77300,1881.0,321.8,176.3,35.8,1710.0,6628.0,2.0,0,
77400,1849.0,301.7,181.6,34.6,794.0,5905.0,2.0,0,
77600,1842.8,282.4,184.7,65.9,688.0,4776.0,26.0,0,
77700,1855.1,252.3,183.8,190.0,614.0,4774.0,2.0,0,
77800,1891.4,166.9,186.4,139.3,545.0,4126.0,2.0,0,
77900,1839.3,14.7,186.4,104.9,545.0,4126.0,2.0,0,
78000,1859.6,7.6,186.4,41.3,545.0,4126.0,2.0,0,
78100,1861.1,6.9,186.4,30.0,545.0,4126.0,2.0,0,
78200,1862.2,6.3,186.5,30.0,545.0,4126.0,2.0,0,
78300,1864.7,6.7,186.5,29.7,545.0,4126.0,2.0,0,
78400,1863.9,7.5,186.4,205.1,545.0,4126.0,2.0,0,
78600,1861.3,7.4,186.4,113.8,545.0,4126.0,2.0,0,
78700,1861.3,7.6,186.4,105.6,545.0,4126.0,2.0,0,
78800,1861.4,155.2,186.4,141.2,545.0,4126.0,2.0,0,
78900,1878.0,341.1,188.7,29.8,1678.0,6632.0,2.0,0,
79000,1821.5,251.3,192.2,30.1,800.0,5747.0,2.0,0,
79100,1868.4,314.1,189.1,34.7,1212.0,5061.0,2.0,0,
79200,1870.4,304.0,191.8,37.2,623.0,4468.0,26.0,0,
79300,1867.5,219.7,188.1,188.7,556.0,4263.0,2.0,0,
79400,1851.0,136.8,186.4,131.5,569.0,4800.0,6.0,1,
79600,1860.9,8.0,179.3,43.1,569.0,4800.0,6.0,1,
79700,1859.6,6.1,179.3,37.1,569.0,4800.0,6.0,1,
79800,1863.2,7.0,179.3,35.4,569.0,4800.0,6.0,1,
79900,1865.0,8.7,179.3,28.2,569.0,4800.0,6.0,1,
80000,1866.3,7.6,179.3,165.6,569.0,4800.0,6.0,1,
80100,1860.1,6.9,179.3,139.1,569.0,4800.0,6.0,1,
80200,1860.5,7.3,179.3,98.8,569.0,4800.0,6.0,1,
80300,1862.4,6.3,179.3,94.3,569.0,4800.0,6.0,1,
80400,1861.6,54.3,179.3,100.7,569.0,4800.0,6.0,1,
80600,1883.1,300.6,179.3,34.4,841.0,5643.0,2.0,0,
80700,1869.3,229.9,179.5,35.0,889.0,4593.0,2.0,0,
80800,1833.8,176.8,173.7,36.1,633.0,4942.0,6.0,1,
80900,1852.1,211.1,166.6,55.0,530.0,4037.0,2.0,0,
81000,1866.3,156.3,165.4,40.3,569.0,4805.0,6.0,1,
81100,1843.5,24.2,165.2,38.3,569.0,4805.0,6.0,1,
81200,1869.6,6.8,165.2,37.0,569.0,4805.0,6.0,1,
81300,1860.3,6.4,165.2,36.0,569.0,4805.0,6.0,1,
81400,1863.4,7.2,165.2,30.0,569.0,4805.0,6.0,1,
81600,1859.5,7.1,165.3,86.6,569.0,4805.0,6.0,1,
81700,1861.5,6.9,165.3,53.7,569.0,4805.0,6.0,1,
81800,1861.9,7.9,165.3,55.2,569.0,4805.0,6.0,1,
81900,1862.4,7.6,165.3,82.8,569.0,4805.0,6.0,1,
82000,1861.6,7.2,165.3,72.9,569.0,4805.0,6.0,1,
82100,1882.3,226.6,163.7,77.3,930.0,5642.0,8.0,1,
82200,1840.8,212.4,157.0,29.9,816.0,5798.0,6.0,1,
82300,1853.6,272.2,153.2,34.2,1261.0,5389.0,2.0,0,
82400,1854.2,183.6,156.8,34.2,946.0,4596.0,2.0,0,
82600,1854.1,155.3,146.3,35.4,534.0,4576.0,6.0,1,
82700,1844.9,33.9,147.7,35.8,534.0,4576.0,6.0,1,
82800,1859.8,7.2,147.4,35.8,534.0,4576.0,6.0,1,
82900,1861.1,7.6,147.4,36.6,534.0,4576.0,6.0,1,
83000,1861.5,5.2,147.4,29.9,534.0,4576.0,6.0,1,
83100,1862.5,6.8,147.4,29.1,534.0,4576.0,6.0,1,
83200,1865.9,7.1,147.4,74.3,534.0,4576.0,6.0,1,
83300,1862.0,5.3,147.5,116.2,534.0,4576.0,6.0,1,
83400,1861.2,7.0,147.5,137.0,534.0,4576.0,6.0,1,
83600,1862.0,5.7,147.4,118.1,534.0,4576.0,6.0,1,
83700,1862.5,240.0,147.4,92.2,770.0,4596.0,8.0,1,
83800,1860.6,277.2,146.5,30.2,596.0,3502.0,2.0,0,
83900,1889.6,222.0,153.5,29.6,1004.0,4237.0,2.0,0,
84000,1847.6,143.6,148.2,34.4,1004.0,4237.0,2.0,0,
84100,1854.8,130.2,143.0,34.7,1004.0,4237.0,2.0,0,
84200,1855.7,142.1,139.2,35.2,480.0,4025.0,6.0,1,
84300,1878.9,53.6,139.2,35.7,480.0,4025.0,6.0,1,
84400,1855.1,9.2,138.2,38.6,480.0,4025.0,6.0,1,
84600,1860.2,7.0,138.2,34.8,480.0,4025.0,6.0,1,
84700,1865.3,7.3,138.2,34.6,480.0,4025.0,6.0,1,
84800,1864.9,6.8,138.2,43.8,480.0,4025.0,6.0,1,
84900,1860.9,9.8,138.2,81.9,480.0,4025.0,6.0,1,
85000,1856.7,7.4,138.2,75.3,480.0,4025.0,6.0,1,
85100,1860.2,5.6,138.2,84.2,480.0,4025.0,6.0,1,
85200,1861.4,6.1,138.2,90.8,480.0,4025.0,6.0,1,
85300,1862.8,256.9,138.2,109.3,879.0,5514.0,5.0,1,
85400,1880.2,147.1,143.5,37.3,744.0,4088.0,6.0,1,
85600,1842.8,128.9,118.3,36.0,479.0,2926.0,6.0,1,
85700,1882.2,99.3,116.6,36.0,479.0,2926.0,6.0,1,
85800,1862.5,110.9,112.3,36.4,381.0,2991.0,6.0,1,
85900,1858.4,67.6,112.5,35.4,381.0,2991.0,6.0,1,
86000,1856.4,8.5,111.4,37.7,381.0,2991.0,6.0,1,
86100,1860.4,5.8,111.4,36.6,381.0,2991.0,6.0,1,
86200,1860.6,5.6,111.4,34.9,381.0,2991.0,6.0,1,
86300,1861.1,5.3,111.3,34.4,381.0,2991.0,6.0,1,
86400,1861.5,6.6,111.3,39.0,381.0,2991.0,6.0,1,
86600,1864.6,5.4,111.4,81.6,381.0,2991.0,6.0,1,
86700,1863.3,5.4,111.4,100.0,381.0,2991.0,6.0,1,
86800,1863.1,7.5,111.4,134.6,381.0,2991.0,6.0,1,
86900,1860.7,107.0,111.4,100.9,797.0,4911.0,5.0,1,
87000,1867.2,167.4,103.0,39.3,620.0,3608.0,7.0,1,
87100,1874.6,158.9,98.4,37.8,536.0,3455.0,6.0,1,
87200,1864.7,125.5,98.6,37.7,511.0,3256.0,6.0,1,
87300,1862.7,110.0,99.3,37.3,466.0,3675.0,6.0,1,
87400,1845.7,121.6,99.2,36.5,448.0,3533.0,6.0,1,
87600,1866.8,13.1,101.2,36.8,448.0,3533.0,6.0,1,
87700,1860.9,92.6,101.2,35.4,1992.0,17717.0,4.0,1,
87800,2059.0,150.6,105.0,30.2,253.0,10305.0,28.0,0,
87900,1688.9,26.9,112.5,29.9,253.0,10305.0,28.0,0,
88000,1841.4,8.6,112.3,36.2,253.0,10305.0,28.0,0,
88100,1858.0,5.6,112.3,43.4,253.0,10305.0,28.0,0,
88200,1860.5,5.3,112.2,48.4,253.0,10305.0,28.0,0,
88300,1862.0,6.6,112.2,82.6,253.0,10305.0,28.0,0,
88400,1862.6,6.9,112.2,134.8,253.0,10305.0,28.0,0,
88600,1878.2,141.5,114.7,42.3,695.0,3769.0,7.0,1,
88700,1862.1,146.2,113.5,37.9,533.0,3120.0,6.0,1,
88800,1847.8,111.9,114.4,39.3,533.0,3120.0,6.0,1,
88900,1861.8,101.1,114.3,39.3,445.0,3426.0,6.0,1,
89000,1868.1,117.6,113.6,36.9,445.0,3314.0,6.0,1,
89100,1870.7,136.0,114.7,35.6,445.0,3314.0,6.0,1,
89200,1843.6,16.2,114.8,37.9,445.0,3314.0,6.0,1,
89300,1867.6,4.9,114.7,35.0,445.0,3314.0,6.0,1,
89400,1861.1,4.9,111.0,34.3,445.0,3314.0,6.0,1,
89600,1861.8,5.5,103.8,34.6,445.0,3314.0,6.0,1,
89700,1863.0,7.2,103.9,134.7,445.0,3314.0,6.0,1,
89800,1862.8,7.6,103.9,188.0,445.0,3314.0,6.0,1,
89900,1862.5,6.1,104.0,133.5,445.0,3314.0,6.0,1,
90000,1863.4,8.9,104.0,89.0,445.0,3314.0,6.0,1,
90100,1863.5,6.5,104.0,98.8,445.0,3314.0,6.0,1,
90200,1879.8,236.3,104.5,99.5,958.0,4528.0,2.0,0,
90300,1834.8,275.8,114.1,34.8,770.0,4246.0,2.0,0,
90400,1876.7,192.0,127.9,34.6,459.0,3141.0,2.0,0,
90600,1848.5,130.2,134.2,39.4,486.0,4054.0,6.0,1,
90700,1857.2,143.0,135.3,40.5,486.0,4054.0,6.0,1,
90800,1857.7,23.6,135.5,38.3,486.0,4054.0,6.0,1,
90900,1869.3,7.1,135.4,34.5,486.0,4054.0,6.0,1,
91000,1862.0,6.3,135.4,30.1,486.0,4054.0,6.0,1,
91100,1860.9,6.3,135.4,29.8,486.0,4054.0,6.0,1,
91200,1862.4,6.5,135.4,29.3,486.0,4054.0,6.0,1,
91300,1864.0,7.4,135.4,98.8,486.0,4054.0,6.0,1,
91400,1863.5,6.4,135.4,144.2,486.0,4054.0,6.0,1,
91600,1863.8,7.5,135.4,107.7,486.0,4054.0,6.0,1,
91700,1863.2,5.8,135.4,146.4,486.0,4054.0,6.0,1,
91800,1891.4,268.1,136.6,83.6,875.0,4910.0,2.0,0,
91900,1850.7,292.3,141.6,29.5,940.0,5078.0,2.0,0,
92000,1853.2,199.5,140.5,29.9,528.0,3670.0,2.0,0,
92100,1851.3,142.0,140.8,34.5,541.0,4326.0,6.0,1,
92200,1851.2,156.5,141.3,36.0,526.0,4299.0,6.0,1,
92300,1884.6,143.5,143.2,35.8,526.0,4299.0,6.0,1,
92400,1861.1,38.5,142.6,36.8,503.0,4339.0,6.0,1,
92600,1862.0,6.5,142.8,30.3,503.0,4339.0,6.0,1,
92700,1861.9,6.8,142.8,30.1,503.0,4339.0,6.0,1,
92800,1862.5,6.3,142.8,29.8,503.0,4339.0,6.0,1,
92900,1863.0,9.4,142.8,74.7,503.0,4339.0,6.0,1,
93000,1865.1,6.8,142.8,125.7,503.0,4339.0,6.0,1,
93100,1863.3,7.3,142.8,66.1,503.0,4339.0,6.0,1,
93200,1863.0,6.0,142.8,48.1,503.0,4339.0,6.0,1,
93300,1862.6,6.6,142.8,50.7,503.0,4339.0,6.0,1,
93400,1863.8,286.9,142.8,57.3,1087.0,5877.0,2.0,0,
93600,1854.6,206.2,149.5,30.0,626.0,4295.0,2.0,0,
93700,1881.7,153.5,146.0,34.5,540.0,4241.0,6.0,1,
93800,1862.2,147.8,146.1,35.3,540.0,4241.0,6.0,1,
93900,1852.9,149.1,145.8,35.9,540.0,4241.0,6.0,1,
94000,1846.5,66.7,145.9,40.7,540.0,4241.0,6.0,1,
94100,1864.8,8.1,146.6,35.8,540.0,4241.0,6.0,1,
94200,1861.4,6.9,146.6,34.5,540.0,4241.0,6.0,1,
94300,1861.9,6.8,146.6,34.2,540.0,4241.0,6.0,1,
94400,1862.7,7.0,146.6,30.0,540.0,4241.0,6.0,1,
94600,1868.9,8.1,146.6,143.0,540.0,4241.0,6.0,1,
94700,1866.1,7.0,146.6,103.6,540.0,4241.0,6.0,1,
94800,1863.4,7.3,146.6,100.4,540.0,4241.0,6.0,1,
94900,1863.7,10.1,146.6,101.8,540.0,4241.0,6.0,1,
95000,1862.9,211.6,146.6,116.3,885.0,5143.0,6.0,1,
95100,1861.3,286.2,141.9,37.8,657.0,4172.0,2.0,0,
95200,1877.5,219.9,139.9,34.5,638.0,4214.0,2.0,0,
95300,1838.5,143.9,140.4,34.9,504.0,4065.0,6.0,1,
95400,1848.6,150.9,139.5,35.0,504.0,4065.0,6.0,1,
95600,1872.8,90.9,139.7,37.2,504.0,4065.0,6.0,1,
95700,1846.8,12.0,138.9,34.9,504.0,4065.0,6.0,1,
95800,1858.0,8.7,138.9,35.1,504.0,4065.0,6.0,1,
95900,1860.1,10.3,138.9,34.4,504.0,4065.0,6.0,1,
96000,1862.1,9.4,138.9,30.0,504.0,4065.0,6.0,1,
96100,1862.5,8.5,138.9,35.8,504.0,4065.0,6.0,1,
96200,1862.5,7.2,138.9,46.7,504.0,4065.0,6.0,1,
96300,1864.7,7.1,138.9,45.3,504.0,4065.0,6.0,1,
96400,1866.5,9.0,138.9,56.3,504.0,4065.0,6.0,1,
96600,1863.7,29.8,138.9,100.2,504.0,4065.0,6.0,1,
96700,1880.6,191.2,137.8,36.3,746.0,4042.0,2.0,0,
96800,1841.5,203.1,130.8,37.5,678.0,4076.0,2.0,0,
96900,1849.3,153.7,125.2,37.2,520.0,3919.0,6.0,1,
97000,1882.4,144.2,126.4,36.1,520.0,3919.0,6.0,1,
97100,1859.4,145.0,125.6,40.1,520.0,3919.0,6.0,1,
97200,1845.9,130.4,125.9,41.2,520.0,3919.0,6.0,1,
97300,1860.5,14.3,125.5,36.1,520.0,3919.0,6.0,1,
97400,1861.6,6.7,125.5,35.3,520.0,3919.0,6.0,1,
97600,1860.9,12.4,125.5,29.8,520.0,3919.0,6.0,1,
97700,1863.7,15.4,125.5,29.3,520.0,3919.0,6.0,1,
97800,1875.2,10.8,125.6,130.6,520.0,3919.0,6.0,1,
97900,1868.2,6.8,125.6,149.9,520.0,3919.0,6.0,1,
98000,1863.4,6.4,125.6,135.4,520.0,3919.0,6.0,1,
98100,1862.9,6.1,125.5,71.1,520.0,3919.0,6.0,1,
98200,1863.5,90.1,125.5,109.3,520.0,3919.0,6.0,1,
98300,1857.5,240.2,133.7,45.4,645.0,3462.0,2.0,0,
98400,1890.9,159.5,134.4,37.6,606.0,3687.0,6.0,1,
98600,1844.9,111.4,125.4,37.4,606.0,3687.0,6.0,1,
98700,1852.6,137.1,123.5,37.2,445.0,3309.0,6.0,1,
98800,1866.2,121.9,121.2,34.8,445.0,3309.0,6.0,1,
98900,1852.8,20.1,119.2,37.3,445.0,3309.0,6.0,1,
99000,1870.2,6.8,119.2,42.9,445.0,3309.0,6.0,1,
99100,1857.4,6.4,119.2,34.3,445.0,3309.0,6.0,1,
99200,1857.4,6.5,119.2,29.8,445.0,3309.0,6.0,1,
99300,1860.2,5.5,119.1,29.4,445.0,3309.0,6.0,1,
99400,1860.3,5.1,119.0,71.3,445.0,3309.0,6.0,1,
99600,1860.4,5.7,118.7,132.3,445.0,3309.0,6.0,1,
99700,1861.0,5.1,118.7,99.6,445.0,3309.0,6.0,1,
99800,1860.4,7.5,118.7,57.3,445.0,3309.0,6.0,1,
99900,1867.5,216.8,114.1,78.7,749.0,4377.0,9.0,1,
100000,1874.9,280.4,113.0,38.0,989.0,3856.0,2.0,0,
100100,1841.6,170.4,130.2,36.0,690.0,3390.0,2.0,0,
100200,1870.5,132.4,130.6,35.2,690.0,3390.0,2.0,0,
100300,1872.4,130.5,131.9,35.1,690.0,3390.0,2.0,0,
100400,1855.7,121.7,133.3,35.4,690.0,3390.0,2.0,0,
100600,1862.5,6.2,133.6,65.8,690.0,3390.0,2.0,0,
100700,1859.9,5.2,133.6,34.3,690.0,3390.0,2.0,0,
100800,1860.0,5.2,133.5,29.9,690.0,3390.0,2.0,0,
100900,1859.8,6.3,133.5,29.7,690.0,3390.0,2.0,0,
101000,1857.7,7.4,133.6,68.7,690.0,3390.0,2.0,0,
101100,1857.4,10.1,133.8,69.5,690.0,3390.0,2.0,0,
101200,1870.5,5.5,133.8,51.1,690.0,3390.0,2.0,0,
101300,1864.1,10.0,133.8,47.8,690.0,3390.0,2.0,0,
101400,1868.3,30.3,133.7,48.6,690.0,3390.0,2.0,0,
101600,1861.0,267.3,139.8,38.2,1283.0,5696.0,2.0,0,
101700,1882.9,261.7,136.2,36.8,582.0,3811.0,2.0,0,
101800,1867.8,193.8,141.6,37.1,1230.0,4408.0,2.0,0,
101900,1837.8,137.8,146.4,66.5,593.0,4376.0,5.0,1,
102000,1864.7,199.3,145.0,90.5,447.0,3427.0,2.0,0,
102100,1871.9,52.1,151.6,38.1,582.0,4493.0,6.0,1,
102200,1853.8,7.7,151.0,38.0,582.0,4493.0,6.0,1,
102300,1862.2,6.4,151.0,37.2,582.0,4493.0,6.0,1,
102400,1864.1,5.5,151.0,36.5,582.0,4493.0,6.0,1,
102600,1862.5,6.8,151.0,67.4,582.0,4493.0,6.0,1,
102700,1863.3,8.4,150.8,78.5,582.0,4493.0,6.0,1,
102800,1862.6,9.2,150.8,99.1,582.0,4493.0,6.0,1,
102900,1863.1,6.4,150.8,71.2,582.0,4493.0,6.0,1,
103000,1861.7,8.3,150.8,52.2,582.0,4493.0,6.0,1,
103100,1859.8,256.2,150.7,46.3,1101.0,6456.0,2.0,0,
103200,1865.6,284.3,158.1,29.5,1329.0,5532.0,2.0,0,
103300,1845.4,201.4,159.1,30.0,736.0,4410.0,2.0,0,
103400,1858.5,285.2,158.6,34.9,1733.0,5095.0,2.0,0,
103600,1885.2,272.3,177.7,214.0,831.0,4121.0,2.0,0,
103700,1851.8,130.3,181.5,195.9,508.0,3635.0,2.0,0,
103800,1847.9,15.7,185.8,195.1,508.0,3635.0,2.0,0,
103900,1862.2,9.0,185.8,90.6,508.0,3635.0,2.0,0,
104000,1860.0,9.5,185.9,36.1,508.0,3635.0,2.0,0,
104100,1857.0,8.8,186.0,35.6,508.0,3635.0,2.0,0,
104200,1860.6,7.9,186.0,36.5,508.0,3635.0,2.0,0,
104300,1861.1,9.1,186.1,133.5,508.0,3635.0,2.0,0,
104400,1860.1,9.4,186.1,134.5,508.0,3635.0,2.0,0,
104600,1860.5,8.1,186.2,74.9,508.0,3635.0,2.0,0,
104700,1861.5,218.2,186.2,99.2,1740.0,7553.0,2.0,0,
104800,1825.5,296.4,192.5,30.1,911.0,5284.0,2.0,0,
104900,1885.6,271.6,187.2,34.7,800.0,5159.0,2.0,0,
105000,1884.8,280.0,189.6,35.4,1738.0,5530.0,2.0,0,
105100,1837.0,255.1,188.5,65.7,629.0,4149.0,26.0,0,
105200,1864.3,269.3,187.5,164.8,1379.0,5278.0,2.0,0,
105300,1848.0,175.4,191.3,197.9,676.0,4616.0,2.0,0,
105400,1869.6,18.4,188.0,226.4,676.0,4616.0,2.0,0,
105600,1860.2,8.9,188.0,71.9,676.0,4616.0,2.0,0,
105700,1859.6,8.2,188.0,37.7,676.0,4616.0,2.0,0,
105800,1860.7,8.0,188.0,37.1,676.0,4616.0,2.0,0,
105900,1861.4,7.6,187.9,137.4,676.0,4616.0,2.0,0,
106000,1861.8,8.9,187.9,131.9,676.0,4616.0,2.0,0,
106100,1862.0,8.2,187.9,71.9,676.0,4616.0,2.0,0,
106200,1861.2,9.2,187.9,66.8,676.0,4616.0,2.0,0,
106300,1861.7,10.9,187.9,70.1,676.0,4616.0,2.0,0,
106400,1862.2,218.7,187.5,29.9,879.0,5385.0,6.0,1,
106600,1864.7,299.1,180.9,34.6,1594.0,4431.0,26.0,0,
106700,1840.9,232.7,184.3,34.9,539.0,3454.0,26.0,0,
106800,1896.9,147.4,181.1,35.0,539.0,3454.0,26.0,0,
106900,1859.7,123.8,169.8,70.2,535.0,4042.0,6.0,1,
107000,1839.9,19.3,158.8,37.8,554.0,4167.0,6.0,1,
107100,1865.3,10.5,158.8,35.6,554.0,4167.0,6.0,1,
107200,1862.3,9.1,158.8,35.0,554.0,4167.0,6.0,1,
107300,1860.7,8.9,158.8,29.2,554.0,4167.0,6.0,1,
107400,1861.0,8.4,158.8,29.3,554.0,4167.0,6.0,1,
107600,1861.5,8.9,158.8,142.8,554.0,4167.0,6.0,1,
107700,1861.6,9.3,158.8,150.6,554.0,4167.0,6.0,1,
107800,1861.6,8.3,158.8,188.1,554.0,4167.0,6.0,1,
107900,1861.3,10.5,158.8,163.1,554.0,4167.0,6.0,1,
108000,1870.5,230.2,159.2,105.1,779.0,4275.0,6.0,1,
108100,1831.0,263.8,156.9,28.9,644.0,3673.0,2.0,0,
108200,1896.5,171.7,159.3,34.2,959.0,3766.0,2.0,0,
108300,1846.6,209.6,142.4,34.8,521.0,3964.0,6.0,1,
108400,1865.1,152.7,137.6,35.1,463.0,3460.0,2.0,0,
108600,1844.8,26.2,136.3,36.9,566.0,4416.0,6.0,1,
108700,1873.0,8.9,136.2,36.4,566.0,4416.0,6.0,1,
108800,1861.3,8.4,136.2,36.8,566.0,4416.0,6.0,1,
108900,1861.2,8.4,136.2,34.4,566.0,4416.0,6.0,1,
109000,1860.6,9.4,136.2,28.9,566.0,4416.0,6.0,1,
109100,1860.7,7.9,136.2,75.1,566.0,4416.0,6.0,1,
109200,1861.4,9.7,136.2,69.1,566.0,4416.0,6.0,1,
109300,1861.3,9.6,136.2,66.8,566.0,4416.0,6.0,1,
109400,1861.4,8.5,136.2,67.2,566.0,4416.0,6.0,1,
109600,1881.5,230.2,136.2,84.2,811.0,4490.0,8.0,1,
109700,1838.5,273.1,137.5,29.3,696.0,3792.0,2.0,0,
109800,1873.1,194.0,137.4,34.2,1377.0,4153.0,2.0,0,
109900,1838.3,164.6,140.6,34.8,519.0,3825.0,6.0,1,
110000,1868.1,166.6,142.4,35.0,444.0,3288.0,2.0,0,
110100,1879.5,109.1,139.2,37.2,551.0,4399.0,6.0,1,
110200,1851.6,41.6,141.2,39.5,567.0,4447.0,6.0,1,
110300,1850.2,10.1,141.1,37.0,567.0,4447.0,6.0,1,
110400,1861.6,8.6,141.1,39.2,567.0,4447.0,6.0,1,
110600,1860.8,8.8,141.1,29.8,567.0,4447.0,6.0,1,
110700,1861.9,8.6,141.1,53.6,567.0,4447.0,6.0,1,
110800,1861.6,7.9,141.1,71.2,567.0,4447.0,6.0,1,
110900,1861.6,8.6,141.1,99.0,567.0,4447.0,6.0,1,
111000,1861.5,9.5,141.1,83.0,567.0,4447.0,6.0,1,
111100,1861.9,11.6,141.1,78.0,567.0,4447.0,6.0,1,
111200,1861.5,227.8,141.2,111.2,978.0,5816.0,7.0,1,
111300,1838.5,222.4,144.1,30.2,851.0,5104.0,2.0,0,
111400,1877.6,280.0,136.3,34.4,1715.0,5758.0,2.0,0,
111600,1874.9,244.6,158.1,34.4,571.0,3899.0,2.0,0,
111700,1856.5,283.1,163.4,100.3,1535.0,5063.0,2.0,0,
111800,1836.3,105.6,181.2,198.2,563.0,3798.0,2.0,0,
111900,1874.9,12.8,183.5,214.5,563.0,3798.0,2.0,0,
112000,1861.7,8.5,183.5,92.0,563.0,3798.0,2.0,0,
112100,1861.2,8.9,183.5,35.7,563.0,3798.0,2.0,0,
112200,1861.1,8.8,183.5,30.3,563.0,3798.0,2.0,0,
112300,1861.3,7.9,183.5,34.4,563.0,3798.0,2.0,0,
112400,1861.3,8.4,183.5,100.0,563.0,3798.0,2.0,0,
112600,1861.9,8.1,183.5,100.3,563.0,3798.0,2.0,0,
112700,1861.7,8.7,183.5,99.6,563.0,3798.0,2.0,0,
112800,1861.7,228.1,183.5,100.3,1038.0,6741.0,6.0,1,
112900,1880.1,241.1,183.2,46.0,799.0,4595.0,2.0,0,
113000,1873.5,273.7,183.6,37.1,1865.0,5824.0,2.0,0,
113100,1834.2,257.3,188.4,36.0,562.0,3865.0,2.0,0,
113200,1863.0,288.4,185.4,37.1,992.0,4397.0,2.0,0,
113300,1860.0,309.6,192.3,149.8,839.0,4442.0,26.0,0,
113400,1881.2,141.1,189.8,196.4,541.0,3654.0,2.0,0,
113600,1861.9,8.9,187.1,66.1,541.0,3654.0,2.0,0,
113700,1861.1,8.4,187.1,35.6,541.0,3654.0,2.0,0,
113800,1861.2,8.7,187.1,29.6,541.0,3654.0,2.0,0,
113900,1860.6,9.7,187.1,26.8,541.0,3654.0,2.0,0,
114000,1861.4,9.2,187.1,89.8,541.0,3654.0,2.0,0,
114100,1861.0,8.2,187.1,71.1,541.0,3654.0,2.0,0,
114200,1861.6,8.9,187.1,103.3,541.0,3654.0,2.0,0,
114300,1861.9,9.1,187.1,110.0,541.0,3654.0,2.0,0,
114400,1861.8,52.4,187.1,110.8,541.0,3654.0,2.0,0,
114600,1853.3,306.8,188.6,37.2,1778.0,5538.0,2.0,0,
114700,1851.3,184.3,190.6,35.9,555.0,3568.0,2.0,0,
114800,1894.7,258.8,185.5,35.6,837.0,3920.0,2.0,0,
114900,1850.3,279.4,183.4,65.8,711.0,4115.0,26.0,0,
115000,1852.2,212.9,179.5,67.6,580.0,4036.0,2.0,0,
115100,1870.3,21.0,179.4,66.9,580.0,4036.0,2.0,0,
115200,1863.0,7.7,179.3,66.6,580.0,4036.0,2.0,0,
115300,1861.3,8.2,179.3,35.6,580.0,4036.0,2.0,0,
115400,1860.8,9.3,179.3,29.6,580.0,4036.0,2.0,0,
115600,1861.5,7.5,179.3,67.7,580.0,4036.0,2.0,0,
115700,1861.6,8.9,179.3,101.3,580.0,4036.0,2.0,0,
115800,1861.8,10.7,179.3,98.8,580.0,4036.0,2.0,0,
115900,1862.3,8.4,179.3,99.2,580.0,4036.0,2.0,0,
116000,1861.4,60.6,179.3,81.7,580.0,4036.0,2.0,0,
116100,1863.7,265.2,180.3,45.8,968.0,5346.0,2.0,0,
116200,1892.6,301.0,178.7,30.0,1858.0,5696.0,2.0,0,
116300,1844.1,266.0,177.3,30.0,576.0,3521.0,2.0,0,
116400,1866.8,273.6,180.0,34.8,938.0,3784.0,2.0,0,
116600,1884.5,155.7,178.0,196.4,938.0,3784.0,2.0,0,
116700,1853.8,24.8,173.2,100.6,938.0,3784.0,2.0,0,
116800,1872.3,9.0,173.2,50.4,938.0,3784.0,2.0,0,
116900,1861.3,9.0,173.2,34.8,938.0,3784.0,2.0,0,
117000,1861.3,8.9,173.2,29.5,938.0,3784.0,2.0,0,
117100,1861.6,8.2,173.2,28.9,938.0,3784.0,2.0,0,
117200,1862.1,8.6,173.2,109.5,938.0,3784.0,2.0,0,
117300,1861.7,8.2,173.2,132.5,938.0,3784.0,2.0,0,
117400,1861.7,7.9,173.2,140.2,938.0,3784.0,2.0,0,
117600,1862.0,8.5,173.2,135.1,938.0,3784.0,2.0,0,
117700,1892.3,216.9,173.1,72.3,946.0,5055.0,2.0,0,
117800,1854.9,298.8,172.5,29.7,1732.0,5561.0,2.0,0,
117900,1824.5,280.5,174.1,29.9,598.0,3559.0,2.0,0,
118000,1894.9,155.0,173.5,34.8,488.0,3039.0,2.0,0,
118100,1866.1,225.7,163.6,131.1,616.0,4359.0,6.0,1,
118200,1859.7,268.2,162.7,66.5,461.0,3452.0,2.0,0,
118300,1861.9,40.5,169.4,36.2,564.0,3727.0,2.0,0,
118400,1863.9,9.4,169.0,35.5,564.0,3727.0,2.0,0,
118600,1861.1,8.3,169.0,36.1,564.0,3727.0,2.0,0,
118700,1861.7,9.2,169.0,37.0,564.0,3727.0,2.0,0,
118800,1861.9,8.5,169.0,53.2,564.0,3727.0,2.0,0,
118900,1861.6,7.3,169.0,69.3,564.0,3727.0,2.0,0,
119000,1861.9,7.9,169.0,117.6,564.0,3727.0,2.0,0,
119100,1862.9,9.5,169.0,92.6,564.0,3727.0,2.0,0,
119200,1862.5,7.2,169.0,68.4,564.0,3727.0,2.0,0,
119300,1861.5,297.2,169.0,68.3,778.0,5044.0,2.0,0,
119400,1873.3,326.5,178.5,29.4,1951.0,6070.0,2.0,0,
119600,1870.2,189.5,176.5,34.7,817.0,3378.0,2.0,0,
119700,1849.3,144.1,176.8,103.1,613.0,4399.0,6.0,1,
119800,1850.2,261.9,176.8,116.0,519.0,3548.0,2.0,0,
119900,1891.1,79.2,177.4,37.2,444.0,3189.0,2.0,0,
120000,1851.1,10.4,179.0,35.0,444.0,3189.0,2.0,0,
120100,1862.5,7.0,179.0,29.9,444.0,3189.0,2.0,0,
120200,1861.3,9.6,179.0,29.7,444.0,3189.0,2.0,0,
120300,1861.7,8.9,179.0,29.4,444.0,3189.0,2.0,0,
120400,1861.5,7.8,179.0,34.4,444.0,3189.0,2.0,0,
120600,1862.3,9.6,179.0,78.2,444.0,3189.0,2.0,0,
120700,1862.2,8.8,179.0,101.3,444.0,3189.0,2.0,0,
120800,1862.1,9.3,179.0,108.1,444.0,3189.0,2.0,0,
120900,1861.9,218.9,179.0,108.5,1070.0,6211.0,2.0,0,
121000,1888.7,301.0,176.2,29.2,1934.0,6093.0,2.0,0,
121100,1829.1,231.4,175.7,29.7,679.0,4058.0,2.0,0,
121200,1864.5,269.1,173.6,34.3,1373.0,4560.0,2.0,0,
121300,1871.3,314.2,180.8,67.1,1047.0,4369.0,2.0,0,
121400,1868.2,275.9,191.9,226.4,573.0,3747.0,2.0,0,
121600,1852.3,14.8,190.6,198.1,573.0,3747.0,2.0,0,
121700,1861.9,8.9,190.6,66.5,573.0,3747.0,2.0,0,
121800,1861.0,9.5,190.7,34.7,573.0,3747.0,2.0,0,
121900,1863.4,11.8,190.6,34.3,573.0,3747.0,2.0,0,
122000,1858.4,13.8,190.7,36.9,573.0,3747.0,2.0,0,
122100,1861.8,13.5,190.7,105.7,573.0,3747.0,2.0,0,
122200,1863.7,13.2,190.7,103.5,573.0,3747.0,2.0,0,
122300,1860.7,15.2,190.8,103.8,573.0,3747.0,2.0,0,
122400,1859.5,17.6,190.9,112.9,573.0,3747.0,2.0,0,
122600,1852.8,288.5,192.3,34.8,2134.0,6857.0,2.0,0,
122700,1869.7,298.5,190.6,29.6,720.0,4425.0,2.0,0,
122800,1882.6,272.3,192.3,34.5,1087.0,4174.0,2.0,0,
122900,1850.5,262.7,192.9,82.9,1093.0,4222.0,2.0,0,
123000,1843.8,243.6,189.7,195.4,463.0,3489.0,2.0,0,
123100,1872.3,157.5,187.9,195.9,1412.0,4588.0,2.0,0,
123200,1862.0,17.5,188.6,151.3,1412.0,4588.0,2.0,0,
123300,1859.8,9.7,188.7,50.8,1412.0,4588.0,2.0,0,
123400,1862.5,9.5,188.6,40.0,1412.0,4588.0,2.0,0,
123600,1863.4,13.7,188.6,43.2,1412.0,4588.0,2.0,0,
123700,1860.2,12.7,188.6,112.3,1412.0,4588.0,2.0,0,
123800,1860.4,11.8,188.7,136.9,1412.0,4588.0,2.0,0,
123900,1860.8,9.1,188.6,110.8,1412.0,4588.0,2.0,0,
124000,1861.7,8.6,188.6,100.7,1412.0,4588.0,2.0,0,
124100,1861.3,147.3,188.5,102.5,1412.0,4588.0,2.0,0,
124200,1884.6,327.5,189.9,35.2,2034.0,6738.0,2.0,0,
124300,1841.3,260.5,195.3,29.5,809.0,5700.0,2.0,0,
124400,1856.8,267.4,194.0,30.1,903.0,3697.0,2.0,0,
124600,1875.9,154.0,178.9,94.1,520.0,4183.0,6.0,1,
124700,1874.2,144.1,172.1,38.0,520.0,4183.0,6.0,1,
124800,1835.5,18.0,163.9,36.4,532.0,4403.0,6.0,1,
124900,1863.9,10.0,163.9,30.1,532.0,4403.0,6.0,1,
125000,1860.6,11.0,163.9,30.2,532.0,4403.0,6.0,1,
125100,1862.3,10.4,163.9,30.0,532.0,4403.0,6.0,1,
125200,1859.5,8.7,163.9,30.2,532.0,4403.0,6.0,1,
125300,1861.8,9.7,163.8,69.8,532.0,4403.0,6.0,1,
125400,1862.4,13.7,163.8,78.8,532.0,4403.0,6.0,1,
125600,1860.9,13.5,163.8,103.6,532.0,4403.0,6.0,1,
125700,1862.6,12.3,163.9,123.0,532.0,4403.0,6.0,1,
125800,1868.6,274.4,165.2,74.5,2092.0,7925.0,2.0,0,
125900,1820.4,264.1,161.6,29.5,765.0,4895.0,2.0,0,
126000,1902.7,264.1,157.4,30.2,586.0,3524.0,2.0,0,
126100,1866.5,281.1,156.9,38.7,1357.0,4341.0,2.0,0,
126200,1843.3,158.3,171.5,195.7,697.0,3792.0,2.0,0,
126300,1865.1,175.4,171.6,156.3,1133.0,4240.0,2.0,0,
126400,1844.6,29.2,175.6,53.3,585.0,4646.0,6.0,1,
126600,1860.8,10.3,175.5,37.9,585.0,4646.0,6.0,1,
126700,1861.8,10.4,175.5,41.7,585.0,4646.0,6.0,1,
126800,1861.5,11.2,175.5,41.5,585.0,4646.0,6.0,1,
126900,1862.5,8.9,175.5,101.6,585.0,4646.0,6.0,1,
127000,1862.9,8.6,175.5,115.3,585.0,4646.0,6.0,1,
127100,1861.6,9.7,175.5,80.2,585.0,4646.0,6.0,1,
127200,1861.1,9.4,175.5,70.9,585.0,4646.0,6.0,1,
127300,1862.2,9.1,175.4,77.1,585.0,4646.0,6.0,1,
127400,1895.0,311.6,176.0,68.3,1918.0,6122.0,2.0,0,
127600,1866.1,275.9,176.1,34.2,616.0,3737.0,2.0,0,
127700,1852.3,183.5,178.8,35.6,1571.0,4088.0,2.0,0,
127800,1857.2,148.7,172.0,129.9,540.0,3774.0,6.0,1,
127900,1889.7,124.2,170.9,100.0,564.0,4050.0,6.0,1,
128000,1843.4,38.8,164.6,48.0,574.0,4440.0,6.0,1,
128100,1850.9,9.8,164.4,35.9,574.0,4440.0,6.0,1,
128200,1862.1,8.8,164.4,30.2,574.0,4440.0,6.0,1,
128300,1861.4,9.1,164.4,29.5,574.0,4440.0,6.0,1,
128400,1862.6,9.5,164.4,29.1,574.0,4440.0,6.0,1,
128600,1861.8,11.7,164.3,90.5,574.0,4440.0,6.0,1,
128700,1862.0,11.8,164.4,189.6,574.0,4440.0,6.0,1,
128800,1862.3,9.7,164.4,189.4,574.0,4440.0,6.0,1,
128900,1861.8,9.4,164.4,122.5,574.0,4440.0,6.0,1,
129000,1861.6,222.0,164.4,105.2,903.0,5198.0,7.0,1,
129100,1835.4,225.0,158.1,28.8,864.0,5132.0,2.0,0,
129200,1875.7,278.8,151.2,29.1,1031.0,4145.0,2.0,0,
129300,1872.6,148.4,153.9,34.7,540.0,3625.0,6.0,1,
129400,1860.3,146.8,139.0,34.7,531.0,3727.0,6.0,1,
129600,1836.5,67.0,138.2,41.1,574.0,4382.0,6.0,1,
129700,1873.6,11.6,139.9,35.5,574.0,4382.0,6.0,1,
129800,1861.6,8.4,139.9,36.8,574.0,4382.0,6.0,1,
129900,1861.3,9.2,139.9,34.4,574.0,4382.0,6.0,1,
130000,1861.4,8.4,139.9,29.0,574.0,4382.0,6.0,1,
130100,1862.2,8.5,139.9,30.1,574.0,4382.0,6.0,1,
130200,1862.1,10.0,139.9,116.6,574.0,4382.0,6.0,1,
130300,1861.8,8.5,139.9,100.1,574.0,4382.0,6.0,1,
130400,1862.1,9.0,139.9,107.3,574.0,4382.0,6.0,1,
130600,1861.8,208.7,139.9,109.1,1028.0,6982.0,6.0,1,
130700,1860.7,242.4,138.8,30.0,888.0,5983.0,7.0,1,
130800,1872.7,274.6,138.7,29.6,697.0,4687.0,2.0,0,
130900,1846.4,151.2,137.3,34.9,554.0,4155.0,6.0,1,
131000,1845.5,229.2,133.1,34.7,478.0,3531.0,2.0,0,
131100,1883.8,127.4,140.3,35.3,579.0,4524.0,6.0,1,
131200,1860.2,101.0,140.0,40.6,576.0,4752.0,5.0,1,
131300,1848.6,12.1,138.4,36.4,576.0,4752.0,5.0,1,
131400,1860.7,8.8,138.4,36.5,576.0,4752.0,5.0,1,
131600,1861.0,10.4,138.4,27.3,576.0,4752.0,5.0,1,
131700,1862.1,10.2,138.4,26.1,576.0,4752.0,5.0,1,
131800,1864.3,13.1,138.4,74.7,576.0,4752.0,5.0,1,
131900,1862.0,9.3,138.4,66.5,576.0,4752.0,5.0,1,
132000,1862.3,11.2,138.4,77.7,576.0,4752.0,5.0,1,
132100,1859.9,10.1,138.4,81.7,576.0,4752.0,5.0,1,
132200,1861.9,60.8,138.4,84.3,576.0,4752.0,5.0,1,
132300,1856.4,233.3,139.6,54.5,876.0,5375.0,2.0,0,
132400,1856.2,297.2,141.8,37.7,1545.0,5446.0,2.0,0,
132600,1879.2,154.2,154.3,35.6,515.0,3823.0,6.0,1,
132700,1863.3,218.1,153.0,35.7,1474.0,4980.0,2.0,0,
132800,1832.1,148.5,161.7,39.7,605.0,4896.0,5.0,1,
132900,1868.8,17.3,164.9,38.7,605.0,4896.0,5.0,1,
133000,1862.0,8.8,164.9,39.5,605.0,4896.0,5.0,1,
133100,1860.7,7.8,164.9,40.5,605.0,4896.0,5.0,1,
133200,1861.7,9.5,164.9,38.8,605.0,4896.0,5.0,1,
133300,1862.1,11.9,164.9,38.7,605.0,4896.0,5.0,1,
133400,1862.6,11.3,164.9,86.7,605.0,4896.0,5.0,1,
133600,1862.0,9.7,164.9,104.1,605.0,4896.0,5.0,1,
133700,1863.6,10.7,164.9,103.3,605.0,4896.0,5.0,1,
133800,1860.6,11.2,164.9,99.0,605.0,4896.0,5.0,1,
133900,1860.3,240.1,166.8,56.2,919.0,5471.0,2.0,0,
134000,1894.9,295.6,166.8,37.6,1197.0,5558.0,2.0,0,
134100,1845.5,179.0,168.5,36.1,554.0,4084.0,6.0,1,
134200,1849.3,149.0,163.2,35.3,554.0,4084.0,6.0,1,
134300,1860.3,133.1,162.5,35.7,567.0,4765.0,6.0,1,
134400,1868.1,149.4,147.7,45.6,560.0,4636.0,5.0,1,
134600,1869.7,9.2,145.3,35.3,560.0,4636.0,5.0,1,
134700,1861.6,8.4,145.3,28.5,560.0,4636.0,5.0,1,
134800,1862.1,9.5,145.3,28.9,560.0,4636.0,5.0,1,
134900,1862.3,8.5,145.3,28.0,560.0,4636.0,5.0,1,
135000,1863.0,9.2,145.2,100.3,560.0,4636.0,5.0,1,
135100,1862.9,9.8,145.2,110.8,560.0,4636.0,5.0,1,
135200,1862.2,9.0,145.2,98.7,560.0,4636.0,5.0,1,
135300,1862.4,9.2,145.2,53.2,560.0,4636.0,5.0,1,
135400,1862.3,7.6,145.2,48.6,560.0,4636.0,5.0,1,
135600,1854.0,303.3,142.8,30.1,1856.0,6363.0,2.0,0,
135700,1832.6,263.8,145.2,30.3,538.0,3850.0,2.0,0,
135800,1893.6,230.4,144.8,35.0,538.0,3850.0,2.0,0,
135900,1869.9,147.6,148.8,67.3,544.0,4466.0,6.0,1,
136000,1845.0,153.5,150.5,44.5,559.0,4647.0,6.0,1,
136100,1863.9,31.9,151.4,41.4,559.0,4647.0,6.0,1,
136200,1864.3,10.4,151.0,44.1,559.0,4647.0,6.0,1,
136300,1860.7,9.4,151.0,35.7,559.0,4647.0,6.0,1,
136400,1860.8,8.2,151.0,29.6,559.0,4647.0,6.0,1,
136600,1862.5,9.2,151.0,66.7,559.0,4647.0,6.0,1,
136700,1861.7,8.9,151.0,103.4,559.0,4647.0,6.0,1,
136800,1861.8,9.6,151.0,106.2,559.0,4647.0,6.0,1,
136900,1861.6,11.4,151.0,107.6,559.0,4647.0,6.0,1,
137000,1862.5,15.0,151.1,86.7,559.0,4647.0,6.0,1,
137100,1863.3,249.6,151.3,93.5,889.0,4566.0,2.0,0,
137200,1878.0,321.2,157.5,29.6,1913.0,6267.0,2.0,0,
137300,1854.7,280.4,163.3,29.8,614.0,3846.0,2.0,0,
137400,1865.6,161.3,164.1,34.7,441.0,3287.0,2.0,0,
137600,1851.0,187.1,161.4,93.9,568.0,3957.0,26.0,0,
137700,1890.3,52.5,162.5,37.4,568.0,3957.0,26.0,0,
137800,1848.7,11.4,161.9,37.4,568.0,3957.0,26.0,0,
137900,1861.2,8.4,161.9,35.5,568.0,3957.0,26.0,0,
138000,1861.3,8.8,161.8,30.3,568.0,3957.0,26.0,0,
138100,1862.1,9.3,161.8,29.2,568.0,3957.0,26.0,0,
138200,1862.1,7.9,161.8,49.5,568.0,3957.0,26.0,0,
138300,1861.9,8.6,161.8,74.7,568.0,3957.0,26.0,0,
138400,1862.2,8.2,161.8,74.0,568.0,3957.0,26.0,0,
138600,1862.1,8.3,161.8,150.1,568.0,3957.0,26.0,0,
138700,1862.8,154.7,161.8,98.9,969.0,5821.0,2.0,0,
138800,1885.3,282.9,161.0,29.5,1884.0,6181.0,2.0,0,
138900,1829.2,263.5,161.5,30.1,609.0,3601.0,2.0,0,
139000,1869.3,153.9,159.5,35.0,494.0,3036.0,2.0,0,
139100,1872.2,144.1,157.5,67.3,558.0,4035.0,6.0,1,
139200,1864.3,149.2,157.8,67.0,558.0,4035.0,6.0,1,
139300,1863.5,76.4,154.9,36.8,532.0,4269.0,6.0,1,
139400,1849.4,9.9,153.9,35.3,532.0,4269.0,6.0,1,
139600,1860.8,8.0,153.9,30.0,532.0,4269.0,6.0,1,
139700,1861.6,6.5,153.9,29.5,532.0,4269.0,6.0,1,
139800,1862.5,7.2,153.9,30.1,532.0,4269.0,6.0,1,
139900,1862.3,9.0,153.9,85.8,532.0,4269.0,6.0,1,
140000,1861.9,6.8,153.9,99.5,532.0,4269.0,6.0,1,
140100,1861.1,7.4,153.9,138.9,532.0,4269.0,6.0,1,
140200,1861.1,7.2,153.9,100.2,532.0,4269.0,6.0,1,
140300,1862.2,175.5,153.9,78.4,948.0,5540.0,2.0,0,
140400,1850.7,324.2,157.4,28.1,1651.0,4904.0,2.0,0,
140600,1876.6,131.8,155.7,34.3,558.0,2996.0,2.0,0,
140700,1849.5,102.0,150.1,35.9,435.0,2916.0,6.0,1,
140800,1850.0,166.1,149.1,38.5,435.0,2916.0,6.0,1,
140900,1874.3,103.3,149.5,36.3,543.0,4238.0,6.0,1,
141000,1856.0,15.8,149.4,34.8,543.0,4238.0,6.0,1,
141100,1862.3,8.3,149.4,34.2,543.0,4238.0,6.0,1,
141200,1861.8,6.4,149.3,30.1,543.0,4238.0,6.0,1,
141300,1862.4,7.0,149.3,30.0,543.0,4238.0,6.0,1,
141400,1861.2,7.5,149.3,44.9,543.0,4238.0,6.0,1,
141600,1861.7,7.9,149.3,71.3,543.0,4238.0,6.0,1,
141700,1862.3,7.9,149.3,100.5,543.0,4238.0,6.0,1,
141800,1862.0,7.1,149.3,99.8,543.0,4238.0,6.0,1,
141900,1861.5,117.7,149.3,77.6,543.0,4238.0,6.0,1,
142000,1875.1,308.0,150.0,30.2,1767.0,5029.0,2.0,0,
142100,1841.5,268.1,150.7,29.4,634.0,4014.0,2.0,0,
142200,1859.8,259.5,148.3,34.3,1233.0,3513.0,2.0,0,
142300,1850.1,132.5,157.4,36.0,496.0,3576.0,6.0,1,
142400,1884.7,144.0,158.7,66.9,496.0,3576.0,6.0,1,
142600,1833.8,23.1,157.0,38.2,536.0,4161.0,6.0,1,
142700,1861.9,6.3,157.0,30.2,536.0,4161.0,6.0,1,
142800,1863.8,8.3,157.0,30.3,536.0,4161.0,6.0,1,
142900,1862.8,6.3,157.0,35.2,536.0,4161.0,6.0,1,
143000,1862.2,6.1,157.0,66.6,536.0,4161.0,6.0,1,
143100,1862.5,9.3,157.0,83.1,536.0,4161.0,6.0,1,
143200,1861.8,7.8,157.0,88.3,536.0,4161.0,6.0,1,
143300,1861.8,7.3,157.0,82.8,536.0,4161.0,6.0,1,
143400,1862.2,8.3,157.0,68.2,536.0,4161.0,6.0,1,
143600,1868.6,236.9,158.6,37.6,1692.0,5920.0,10.0,1,
143700,1827.2,263.2,146.2,28.8,762.0,4917.0,2.0,0,
143800,1898.8,296.3,142.4,28.5,723.0,3815.0,2.0,0,
143900,1854.9,132.3,140.8,28.0,519.0,4006.0,7.0,1,
144000,1846.3,150.2,141.8,30.1,536.0,4158.0,6.0,1,
144100,1864.9,142.2,142.9,34.9,580.0,4471.0,6.0,1,
144200,1849.5,24.5,143.3,37.6,563.0,4509.0,7.0,1,
144300,1872.0,10.2,143.3,34.2,563.0,4509.0,7.0,1,
144400,1861.9,8.8,143.3,30.1,563.0,4509.0,7.0,1,
144600,1862.0,8.8,143.3,29.2,563.0,4509.0,7.0,1,
144700,1862.3,10.5,143.3,80.4,563.0,4509.0,7.0,1,
144800,1862.0,8.4,143.3,163.9,563.0,4509.0,7.0,1,
144900,1862.2,9.1,143.3,102.5,563.0,4509.0,7.0,1,
145000,1862.1,9.3,143.3,99.3,563.0,4509.0,7.0,1,
145100,1861.8,7.9,143.3,122.1,563.0,4509.0,7.0,1,
145200,1893.7,301.5,144.1,70.4,1866.0,5902.0,2.0,0,
145300,1826.8,233.0,154.8,30.2,801.0,5112.0,2.0,0,
145400,1868.2,245.2,153.7,35.1,625.0,3863.0,2.0,0,
145600,1866.2,157.6,160.8,88.1,586.0,4606.0,6.0,1,
145700,1885.1,162.3,161.2,101.5,779.0,4023.0,2.0,0,
145800,1843.9,44.9,164.3,45.9,557.0,4557.0,6.0,1,
145900,1850.6,12.3,164.2,39.8,557.0,4557.0,6.0,1,
146000,1862.3,7.7,164.3,38.0,557.0,4557.0,6.0,1,
146100,1862.7,8.5,164.2,41.4,557.0,4557.0,6.0,1,
146200,1862.4,7.9,164.2,41.3,557.0,4557.0,6.0,1,
146300,1862.6,7.2,164.2,86.8,557.0,4557.0,6.0,1,
146400,1862.9,8.4,164.2,52.2,557.0,4557.0,6.0,1,
146600,1861.8,7.7,164.2,99.6,557.0,4557.0,6.0,1,
146700,1862.8,7.1,164.2,134.0,557.0,4557.0,6.0,1,
146800,1862.2,206.7,164.2,131.9,778.0,4772.0,8.0,1,
146900,1834.8,272.1,156.7,27.8,744.0,4335.0,2.0,0,
147000,1885.5,276.3,159.8,28.5,873.0,3868.0,2.0,0,
147100,1869.8,148.1,161.8,34.8,479.0,3363.0,6.0,1,
147200,1858.1,136.2,147.0,34.8,536.0,3906.0,6.0,1,
147300,1864.3,129.7,146.2,35.5,537.0,4007.0,6.0,1,
147400,1841.5,71.6,138.9,45.9,497.0,3969.0,5.0,1,
147600,1862.5,6.6,141.1,34.5,497.0,3969.0,5.0,1,
147700,1861.8,6.9,141.1,35.7,497.0,3969.0,5.0,1,
147800,1861.2,6.2,141.1,39.9,497.0,3969.0,5.0,1,
147900,1862.2,7.3,141.1,66.1,497.0,3969.0,5.0,1,
148000,1862.4,6.9,141.1,67.3,497.0,3969.0,5.0,1,
148100,1862.2,6.0,141.1,89.2,497.0,3969.0,5.0,1,
148200,1862.3,8.8,141.1,122.3,497.0,3969.0,5.0,1,
148300,1862.3,6.4,141.1,101.6,497.0,3969.0,5.0,1,
148400,1862.1,196.3,141.1,68.1,685.0,3562.0,6.0,1,
148600,1878.6,122.3,130.9,34.5,685.0,3562.0,6.0,1,
148700,1852.8,82.1,114.3,35.2,435.0,2836.0,6.0,1,
148800,1853.1,130.1,106.1,35.3,279.0,1751.0,5.0,1,
148900,1882.0,89.6,107.8,35.5,279.0,1751.0,5.0,1,
149000,1852.8,82.3,105.6,40.0,501.0,3751.0,6.0,1,
149100,1850.4,11.2,103.0,38.9,501.0,3751.0,6.0,1,
149200,1861.7,7.0,103.0,39.0,501.0,3751.0,6.0,1,
149300,1862.4,6.1,103.1,39.5,501.0,3751.0,6.0,1,
149400,1862.0,7.4,103.1,35.0,501.0,3751.0,6.0,1,
149600,1862.5,6.3,103.1,100.5,501.0,3751.0,6.0,1,
149700,1861.8,7.4,103.1,107.9,501.0,3751.0,6.0,1,
149800,1862.3,7.2,103.1,123.0,501.0,3751.0,6.0,1,
149900,1863.5,8.5,103.1,111.2,501.0,3751.0,6.0,1,
150000,1860.6,56.4,103.1,102.2,501.0,3751.0,6.0,1,
150100,1855.3,217.0,104.2,38.6,817.0,4654.0,7.0,1,
150200,1846.2,227.9,110.6,28.8,748.0,4149.0,2.0,0,
150300,1884.4,115.7,117.0,34.4,602.0,4540.0,6.0,1,
150400,1858.5,238.9,119.1,34.8,530.0,3847.0,26.0,0,
150600,1841.0,127.6,141.6,29.5,557.0,4155.0,6.0,1,
150700,1866.2,14.8,141.6,30.3,557.0,4155.0,6.0,1,
150800,1861.5,6.5,141.6,36.7,557.0,4155.0,6.0,1,
150900,1862.0,6.6,141.6,42.1,557.0,4155.0,6.0,1,
151000,1862.5,8.8,141.6,35.7,557.0,4155.0,6.0,1,
151100,1861.9,6.5,141.6,29.7,557.0,4155.0,6.0,1,
151200,1862.3,6.8,141.6,100.6,557.0,4155.0,6.0,1,
151300,1861.8,7.1,141.6,69.2,557.0,4155.0,6.0,1,
151400,1862.0,5.3,141.6,86.0,557.0,4155.0,6.0,1,
151600,1862.0,5.7,141.6,104.8,557.0,4155.0,6.0,1,
151700,1845.7,269.4,141.4,50.1,811.0,4281.0,7.0,1,
151800,1887.8,265.9,144.2,35.3,732.0,4023.0,2.0,0,
151900,1859.7,189.3,151.4,35.3,1588.0,4312.0,2.0,0,
152000,1834.9,143.3,161.5,35.1,480.0,3191.0,6.0,1,
152100,1872.0,128.5,159.7,35.6,586.0,4370.0,6.0,1,
152200,1864.5,145.7,149.4,51.8,583.0,4354.0,6.0,1,
152300,1850.5,19.4,149.5,44.9,583.0,4354.0,6.0,1,
152400,1869.1,8.2,149.5,39.6,583.0,4354.0,6.0,1,
152600,1862.3,7.3,149.5,29.6,583.0,4354.0,6.0,1,
152700,1862.7,8.9,149.5,28.9,583.0,4354.0,6.0,1,
152800,1862.6,8.8,149.6,69.1,583.0,4354.0,6.0,1,
152900,1861.9,9.3,149.6,82.3,583.0,4354.0,6.0,1,
153000,1862.0,8.9,149.6,144.0,583.0,4354.0,6.0,1,
153100,1861.8,9.3,149.6,113.8,583.0,4354.0,6.0,1,
153200,1861.8,8.6,149.6,100.2,583.0,4354.0,6.0,1,
153300,1878.0,237.8,149.6,101.2,959.0,5560.0,7.0,1,
153400,1838.5,268.8,150.9,34.3,752.0,4201.0,2.0,0,
153600,1874.9,142.7,151.9,34.5,526.0,3683.0,7.0,1,
153700,1878.6,261.0,153.2,34.7,712.0,3813.0,2.0,0,
153800,1843.6,149.3,162.7,38.7,563.0,4206.0,6.0,1,
153900,1855.0,34.1,162.6,37.6,544.0,4160.0,6.0,1,
154000,1865.5,10.9,162.4,37.5,544.0,4160.0,6.0,1,
154100,1863.5,7.6,162.4,46.8,544.0,4160.0,6.0,1,
154200,1863.7,8.1,162.4,46.4,544.0,4160.0,6.0,1,
154300,1862.5,8.8,162.4,36.5,544.0,4160.0,6.0,1,
154400,1861.6,7.7,162.4,92.6,544.0,4160.0,6.0,1,
154600,1861.7,8.4,162.4,144.4,544.0,4160.0,6.0,1,
154700,1862.0,10.2,162.4,146.7,544.0,4160.0,6.0,1,
154800,1862.5,9.9,162.4,151.8,544.0,4160.0,6.0,1,
154900,1853.1,248.3,162.4,106.8,910.0,5419.0,8.0,1,
155000,1877.8,297.9,163.6,39.3,788.0,4263.0,2.0,0,
155100,1872.9,196.5,162.9,37.0,1647.0,4822.0,2.0,0,
155200,1841.1,143.4,153.6,35.4,523.0,3819.0,6.0,1,
155300,1862.7,140.4,154.1,35.0,523.0,3819.0,6.0,1,
155400,1855.3,149.4,141.2,42.6,537.0,4147.0,6.0,1,
155600,1849.3,9.6,139.5,34.7,537.0,4147.0,6.0,1,
155700,1860.0,8.5,139.5,34.6,537.0,4147.0,6.0,1,
155800,1862.0,9.2,139.4,27.1,537.0,4147.0,6.0,1,
155900,1861.9,7.5,139.4,27.9,537.0,4147.0,6.0,1,
156000,1862.2,9.3,139.4,48.9,537.0,4147.0,6.0,1,
156100,1861.3,9.0,139.4,105.6,537.0,4147.0,6.0,1,
156200,1861.7,8.2,139.5,104.5,537.0,4147.0,6.0,1,
156300,1861.9,10.1,139.4,118.1,537.0,4147.0,6.0,1,
156400,1861.7,8.9,139.4,131.5,537.0,4147.0,6.0,1,
156600,1871.1,278.9,138.3,41.4,871.0,5206.0,2.0,0,
156700,1856.6,277.0,140.2,36.8,1526.0,4988.0,2.0,0,
156800,1842.7,186.5,146.5,35.5,611.0,3651.0,26.0,0,
156900,1895.1,240.6,150.8,34.9,611.0,3651.0,26.0,0,
157000,1860.0,213.1,158.7,35.9,844.0,4290.0,26.0,0,
157100,1847.7,69.8,165.7,36.5,525.0,4366.0,6.0,1,
157200,1863.5,11.9,165.3,36.8,525.0,4366.0,6.0,1,
157300,1861.2,8.3,165.3,37.8,525.0,4366.0,6.0,1,
157400,1861.5,7.4,165.3,39.6,525.0,4366.0,6.0,1,
157600,1862.1,9.4,165.3,30.1,525.0,4366.0,6.0,1,
157700,1860.9,7.4,165.3,70.0,525.0,4366.0,6.0,1,
157800,1862.1,8.8,165.3,70.0,525.0,4366.0,6.0,1,
157900,1861.7,9.2,165.3,82.7,525.0,4366.0,6.0,1,
158000,1861.5,7.8,165.3,100.0,525.0,4366.0,6.0,1,
158100,1862.3,175.1,165.3,69.7,1023.0,6582.0,6.0,1,
158200,1851.5,237.4,165.5,45.0,904.0,5238.0,2.0,0,
158300,1898.2,323.3,163.8,37.3,1619.0,5259.0,2.0,0,
158400,1843.3,199.9,165.4,36.1,519.0,3382.0,25.0,0,
158600,1851.1,143.8,160.2,36.1,514.0,3791.0,6.0,1,
158700,1864.0,111.9,147.9,35.9,537.0,4146.0,6.0,1,
158800,1864.0,13.4,149.4,35.3,537.0,4146.0,6.0,1,
158900,1861.6,6.3,149.4,29.0,537.0,4146.0,6.0,1,
159000,1862.4,7.1,149.4,27.7,537.0,4146.0,6.0,1,
159100,1862.1,7.1,149.3,27.7,537.0,4146.0,6.0,1,
159200,1863.1,6.6,149.3,27.4,537.0,4146.0,6.0,1,
159300,1862.1,7.6,149.3,141.4,537.0,4146.0,6.0,1,
159400,1861.3,7.7,149.3,134.3,537.0,4146.0,6.0,1,
159600,1862.2,7.6,149.3,132.6,537.0,4146.0,6.0,1,
159700,1862.3,32.0,149.3,148.6,537.0,4146.0,6.0,1,
159800,1884.9,270.4,149.9,46.5,905.0,5169.0,2.0,0,
159900,1864.0,280.2,153.6,36.7,1700.0,5594.0,2.0,0,
160000,1831.6,254.3,154.4,35.5,462.0,3208.0,25.0,0,
160100,1883.5,139.4,152.0,35.4,462.0,3208.0,25.0,0,
160200,1864.5,158.0,151.2,66.1,588.0,4478.0,6.0,1,
160300,1858.8,156.2,152.7,37.6,642.0,4823.0,6.0,1,
160400,1857.3,18.0,152.9,36.6,642.0,4823.0,6.0,1,
160600,1860.9,8.3,152.9,30.0,642.0,4823.0,6.0,1,
160700,1861.9,6.2,152.9,28.8,642.0,4823.0,6.0,1,
160800,1862.5,7.6,152.9,28.6,642.0,4823.0,6.0,1,
160900,1861.4,7.5,152.9,93.5,642.0,4823.0,6.0,1,
161000,1862.2,7.1,152.9,84.6,642.0,4823.0,6.0,1,
161100,1860.7,7.3,152.9,99.3,642.0,4823.0,6.0,1,
161200,1861.8,8.1,152.9,142.7,642.0,4823.0,6.0,1,
161300,1861.7,6.7,152.9,140.6,642.0,4823.0,6.0,1,
161400,1862.3,218.0,154.4,73.9,931.0,6049.0,2.0,0,
161600,1868.3,302.8,148.7,36.0,561.0,3705.0,2.0,0,
161700,1866.3,148.7,147.5,35.8,414.0,3197.0,25.0,0,
161800,1844.9,135.7,147.2,65.9,594.0,4439.0,6.0,1,
161900,1859.2,167.0,145.3,40.5,560.0,4355.0,6.0,1,
162000,1863.4,26.8,145.8,35.7,560.0,4355.0,6.0,1,
162100,1871.5,7.7,145.8,35.8,560.0,4355.0,6.0,1,
162200,1861.4,6.1,145.7,29.6,560.0,4355.0,6.0,1,
162300,1861.7,7.2,145.7,29.3,560.0,4355.0,6.0,1,
162400,1863.3,7.2,145.7,28.8,560.0,4355.0,6.0,1,
162600,1862.1,6.8,145.7,213.3,560.0,4355.0,6.0,1,
162700,1862.3,7.1,145.7,145.9,560.0,4355.0,6.0,1,
162800,1862.5,7.6,145.7,135.2,560.0,4355.0,6.0,1,
162900,1862.3,6.4,145.7,139.9,560.0,4355.0,6.0,1,
163000,1899.5,307.4,148.3,53.3,1161.0,5126.0,2.0,0,
163100,1837.7,282.9,159.1,29.3,1275.0,5892.0,2.0,0,
163200,1842.8,250.4,159.7,29.9,575.0,3937.0,2.0,0,
163300,1858.4,122.0,155.9,35.1,504.0,3793.0,6.0,1,
163400,1862.5,154.0,154.3,67.4,552.0,4220.0,6.0,1,
163600,1849.7,48.4,163.3,36.1,540.0,4423.0,6.0,1,
163700,1847.0,10.2,163.3,29.8,540.0,4423.0,6.0,1,
163800,1864.2,7.4,163.3,34.6,540.0,4423.0,6.0,1,
163900,1861.4,6.9,163.3,37.7,540.0,4423.0,6.0,1,
164000,1862.7,6.0,163.3,39.2,540.0,4423.0,6.0,1,
164100,1862.7,7.4,163.3,74.9,540.0,4423.0,6.0,1,
164200,1862.5,7.9,163.3,133.0,540.0,4423.0,6.0,1,
164300,1862.0,6.6,163.3,99.1,540.0,4423.0,6.0,1,
164400,1862.5,7.1,163.3,106.4,540.0,4423.0,6.0,1,
164600,1862.3,268.9,163.3,123.7,1921.0,6105.0,2.0,0,
164700,1826.7,273.8,167.5,29.8,781.0,5072.0,2.0,0,
164800,1893.6,273.3,160.2,34.7,602.0,3800.0,2.0,0,
164900,1873.3,156.4,158.4,35.8,1139.0,4045.0,2.0,0,
165000,1846.7,159.8,162.6,66.9,573.0,4631.0,6.0,1,
165100,1860.8,163.9,165.6,45.6,444.0,3653.0,2.0,0,
165200,1847.8,57.0,159.2,43.6,547.0,4359.0,6.0,1,
165300,1868.2,12.8,159.1,39.5,547.0,4359.0,6.0,1,
165400,1858.6,10.0,159.1,37.0,547.0,4359.0,6.0,1,
165600,1863.6,7.6,159.1,38.3,547.0,4359.0,6.0,1,
165700,1863.9,7.0,159.1,54.9,547.0,4359.0,6.0,1,
165800,1862.2,5.9,159.1,53.0,547.0,4359.0,6.0,1,
165900,1862.4,6.8,159.1,99.3,547.0,4359.0,6.0,1,
166000,1862.3,8.1,159.1,114.4,547.0,4359.0,6.0,1,
166100,1862.4,6.3,159.1,125.7,547.0,4359.0,6.0,1,
166200,1862.7,222.7,159.1,134.7,1000.0,6185.0,6.0,1,
166300,1861.4,221.7,155.0,28.2,858.0,5253.0,7.0,1,
166400,1871.4,275.3,149.7,27.7,657.0,4128.0,2.0,0,
166600,1846.3,167.8,148.2,34.3,657.0,4128.0,2.0,0,
166700,1889.3,131.7,149.1,34.8,550.0,4191.0,6.0,1,
166800,1853.0,96.9,141.6,39.3,574.0,4380.0,6.0,1,
166900,1849.2,13.0,143.1,35.2,574.0,4380.0,6.0,1,
167000,1860.2,7.3,143.1,34.6,574.0,4380.0,6.0,1,
167100,1861.1,7.2,143.1,29.2,574.0,4380.0,6.0,1,
167200,1865.0,8.1,143.1,29.0,574.0,4380.0,6.0,1,
167300,1866.0,6.3,143.1,29.9,574.0,4380.0,6.0,1,
167400,1864.0,7.0,143.1,171.1,574.0,4380.0,6.0,1,
167600,1862.4,6.0,143.1,186.5,574.0,4380.0,6.0,1,
167700,1862.0,7.4,143.1,185.4,574.0,4380.0,6.0,1,
167800,1861.9,79.4,143.1,196.3,937.0,5736.0,6.0,1,
167900,1854.3,234.6,142.6,41.7,872.0,5096.0,2.0,0,
168000,1860.2,270.4,146.6,26.4,958.0,4603.0,2.0,0,
168100,1874.9,143.3,146.7,34.4,484.0,3434.0,6.0,1,
168200,1862.5,144.4,138.9,34.5,474.0,3371.0,7.0,1,
168300,1863.8,139.2,138.3,34.9,504.0,3931.0,6.0,1,
168400,1837.4,127.9,138.6,38.2,529.0,4069.0,6.0,1,
168600,1862.0,7.5,139.2,35.3,529.0,4069.0,6.0,1,
168700,1861.9,7.4,139.2,29.9,529.0,4069.0,6.0,1,
168800,1862.3,6.6,139.2,29.3,529.0,4069.0,6.0,1,
168900,1862.5,7.4,139.2,28.8,529.0,4069.0,6.0,1,
169000,1862.4,7.0,139.2,139.3,529.0,4069.0,6.0,1,
169100,1860.9,6.6,139.2,168.7,529.0,4069.0,6.0,1,
169200,1861.8,6.9,139.2,170.1,529.0,4069.0,6.0,1,
169300,1861.3,7.6,139.2,153.3,529.0,4069.0,6.0,1,
169400,1861.9,7.9,139.2,172.9,529.0,4069.0,6.0,1,
169600,1887.1,270.9,142.4,38.0,740.0,4736.0,2.0,0,
169700,1851.4,165.6,144.0,37.0,1139.0,4478.0,2.0,0,
169800,1848.9,159.5,144.5,35.6,1139.0,4478.0,2.0,0,
169900,1863.8,129.2,145.0,35.5,552.0,4429.0,6.0,1,
170000,1871.9,154.4,145.7,37.5,552.0,4505.0,6.0,1,
170100,1847.3,23.3,145.5,38.7,552.0,4505.0,6.0,1,
170200,1868.0,8.3,145.5,38.7,552.0,4505.0,6.0,1,
170300,1861.4,6.0,145.5,34.8,552.0,4505.0,6.0,1,
170400,1863.0,6.8,145.5,29.8,552.0,4505.0,6.0,1,
170600,1862.8,6.1,145.5,131.1,552.0,4505.0,6.0,1,
170700,1862.1,7.5,145.5,145.9,552.0,4505.0,6.0,1,
170800,1863.0,7.2,145.5,145.2,552.0,4505.0,6.0,1,
170900,1861.9,6.3,145.5,168.7,552.0,4505.0,6.0,1,
171000,1862.0,6.9,145.5,187.6,552.0,4505.0,6.0,1,
171100,1891.2,260.1,145.6,146.6,810.0,4170.0,2.0,0,
171200,1850.4,284.0,143.9,36.0,1529.0,5781.0,2.0,0,
171300,1844.1,190.8,145.3,35.0,587.0,3985.0,2.0,0,
171400,1889.0,137.4,141.7,35.0,587.0,3985.0,2.0,0,
171600,1847.0,138.8,141.2,37.6,566.0,4721.0,6.0,1,
171700,1859.1,28.5,139.2,35.9,566.0,4721.0,6.0,1,
171800,1865.8,7.3,138.9,36.8,566.0,4721.0,6.0,1,
171900,1861.7,6.8,138.9,29.8,566.0,4721.0,6.0,1,
172000,1861.6,7.0,138.9,29.4,566.0,4721.0,6.0,1,
172100,1862.8,6.1,138.9,28.6,566.0,4721.0,6.0,1,
172200,1863.5,7.2,138.9,107.3,566.0,4721.0,6.0,1,
172300,1862.8,7.4,138.9,243.7,566.0,4721.0,6.0,1,
172400,1861.8,6.0,138.9,209.3,566.0,4721.0,6.0,1,
172600,1861.4,7.8,138.9,185.3,566.0,4721.0,6.0,1,
172700,1868.8,217.8,138.9,171.2,749.0,4036.0,7.0,1,
172800,1879.9,282.1,141.2,39.0,1506.0,5657.0,2.0,0,
172900,1854.4,195.0,140.0,36.5,559.0,3751.0,2.0,0,
173000,1859.4,144.4,139.1,35.6,559.0,3751.0,2.0,0,
173100,1854.5,165.2,139.7,35.5,545.0,4471.0,6.0,1,
173200,1862.0,155.0,139.3,35.7,545.0,4471.0,6.0,1,
173300,1883.3,44.7,140.1,36.0,545.0,4471.0,6.0,1,
173400,1847.9,10.1,139.8,37.8,545.0,4471.0,6.0,1,
173600,1862.7,7.0,139.8,29.7,545.0,4471.0,6.0,1,
173700,1864.5,8.4,139.8,29.2,545.0,4471.0,6.0,1,
173800,1862.4,8.3,139.8,39.4,545.0,4471.0,6.0,1,
173900,1861.7,6.6,139.8,133.0,545.0,4471.0,6.0,1,
174000,1862.0,7.2,139.8,156.3,545.0,4471.0,6.0,1,
174100,1861.5,7.2,139.9,109.4,545.0,4471.0,6.0,1,
174200,1861.4,6.0,139.9,98.8,545.0,4471.0,6.0,1,
174300,1861.5,177.2,139.9,98.9,926.0,5488.0,6.0,1,
174400,1882.0,303.4,137.6,40.5,1370.0,5344.0,2.0,0,
174600,1866.2,135.6,138.2,35.0,1370.0,5344.0,2.0,0,
174700,1876.1,126.6,136.5,34.9,555.0,4264.0,6.0,1,
174800,1857.4,142.3,135.9,35.4,538.0,4292.0,6.0,1,
174900,1857.5,68.8,135.3,35.6,538.0,4292.0,6.0,1,
175000,1858.8,9.1,135.0,35.6,538.0,4292.0,6.0,1,
175100,1861.7,5.2,135.0,30.1,538.0,4292.0,6.0,1,
175200,1861.2,5.4,135.0,29.9,538.0,4292.0,6.0,1,
175300,1862.2,5.4,134.9,29.5,538.0,4292.0,6.0,1,
175400,1861.0,4.9,134.9,28.6,538.0,4292.0,6.0,1,
175600,1863.0,5.4,134.9,203.8,538.0,4292.0,6.0,1,
175700,1862.2,4.6,134.9,228.0,538.0,4292.0,6.0,1,
175800,1862.9,5.8,134.9,210.6,538.0,4292.0,6.0,1,
175900,1863.4,190.1,134.9,216.5,834.0,4540.0,2.0,0,
176000,1860.7,301.5,139.1,28.5,1142.0,4499.0,2.0,0,
176100,1878.2,177.3,142.1,29.6,737.0,4378.0,2.0,0,
176200,1867.4,130.2,136.4,30.2,737.0,4378.0,2.0,0,
176300,1855.8,132.5,136.6,35.1,505.0,4144.0,6.0,1,
176400,1849.4,159.4,137.4,35.7,505.0,4144.0,6.0,1,
176600,1860.6,10.3,136.9,37.3,505.0,4144.0,6.0,1,
176700,1860.5,5.7,136.9,34.2,505.0,4144.0,6.0,1,
176800,1862.2,4.7,136.9,29.8,505.0,4144.0,6.0,1,
176900,1861.8,5.4,136.9,29.5,505.0,4144.0,6.0,1,
177000,1861.0,5.7,136.9,29.3,505.0,4144.0,6.0,1,
177100,1861.9,5.0,136.9,197.1,505.0,4144.0,6.0,1,
177200,1861.6,6.9,136.9,167.1,505.0,4144.0,6.0,1,
177300,1861.7,6.5,136.9,140.1,505.0,4144.0,6.0,1,
177400,1862.3,5.6,136.9,130.4,505.0,4144.0,6.0,1,
177600,1878.8,206.9,136.2,36.2,765.0,4591.0,7.0,1,
177700,1846.6,230.0,123.9,29.3,708.0,4924.0,6.0,1,
177800,1855.5,145.5,124.1,29.3,632.0,3959.0,2.0,0,
177900,1867.7,142.4,123.8,30.2,541.0,4353.0,6.0,1,
178000,1877.6,136.0,124.8,35.7,541.0,4353.0,6.0,1,
178100,1862.0,137.7,124.6,36.5,510.0,4306.0,6.0,1,
178200,1846.4,15.2,124.1,35.2,510.0,4306.0,6.0,1,
178300,1862.7,6.8,124.0,34.3,510.0,4306.0,6.0,1,
178400,1860.8,5.9,124.0,34.2,510.0,4306.0,6.0,1,
178600,1861.9,5.4,124.0,35.4,510.0,4306.0,6.0,1,
178700,1861.2,5.7,124.0,186.2,510.0,4306.0,6.0,1,
178800,1861.9,5.8,124.0,202.9,510.0,4306.0,6.0,1,
178900,1862.4,6.2,124.0,178.2,510.0,4306.0,6.0,1,
179000,1861.6,5.6,124.0,146.3,510.0,4306.0,6.0,1,
179100,1862.2,14.1,124.0,155.4,510.0,4306.0,6.0,1,
179200,1860.1,292.3,125.2,35.1,924.0,4408.0,2.0,0,
179300,1852.3,231.1,139.7,29.7,631.0,4160.0,2.0,0,
179400,1884.2,148.3,140.1,34.4,631.0,4160.0,2.0,0,
179600,1855.0,142.8,141.4,35.6,631.0,4160.0,2.0,0,
179700,1854.1,156.5,141.0,36.2,492.0,3990.0,6.0,1,
179800,1858.7,23.2,139.8,30.3,492.0,3990.0,6.0,1,
179900,1870.5,6.2,139.8,30.3,492.0,3990.0,6.0,1,
180000,1861.8,5.7,139.8,30.2,492.0,3990.0,6.0,1,
180100,1861.2,5.5,139.8,29.7,492.0,3990.0,6.0,1,
180200,1862.1,5.4,139.8,29.2,492.0,3990.0,6.0,1,
180300,1862.0,5.3,139.8,113.3,492.0,3990.0,6.0,1,
180400,1862.2,5.7,139.8,140.7,492.0,3990.0,6.0,1,
180600,1860.4,6.9,139.8,72.6,492.0,3990.0,6.0,1,
180700,1863.5,5.3,139.8,100.1,492.0,3990.0,6.0,1,
180800,1885.1,171.7,138.2,102.1,635.0,3645.0,8.0,1,
180900,1847.5,289.3,124.3,29.5,611.0,4053.0,2.0,0,
181000,1859.8,152.0,126.1,34.8,506.0,3558.0,6.0,1,
181100,1844.4,158.1,125.0,35.0,476.0,3503.0,6.0,1,
181200,1879.3,153.1,126.4,35.2,476.0,3503.0,6.0,1,
181300,1867.7,139.6,124.9,36.3,499.0,3960.0,6.0,1,
181400,1856.3,34.2,126.1,30.2,499.0,3960.0,6.0,1,
181600,1862.0,5.4,126.1,29.5,499.0,3960.0,6.0,1,
181700,1861.4,5.6,126.1,29.0,499.0,3960.0,6.0,1,
181800,1862.2,6.7,126.1,28.5,499.0,3960.0,6.0,1,
181900,1862.0,5.8,126.1,66.5,499.0,3960.0,6.0,1,
182000,1862.0,4.7,126.1,148.5,499.0,3960.0,6.0,1,
182100,1861.5,5.8,126.1,111.2,499.0,3960.0,6.0,1,
182200,1862.2,5.6,126.1,102.2,499.0,3960.0,6.0,1,
182300,1861.9,5.7,126.1,136.3,499.0,3960.0,6.0,1,
182400,1861.9,174.1,126.1,147.1,668.0,3633.0,8.0,1,
182600,1875.5,164.9,130.4,36.6,550.0,3855.0,6.0,1,
182700,1867.0,137.8,130.3,35.5,550.0,3855.0,6.0,1,
182800,1862.7,152.7,130.2,35.3,550.0,3855.0,6.0,1,
182900,1844.9,141.4,129.3,36.6,510.0,4194.0,6.0,1,
183000,1862.1,56.5,130.8,35.7,510.0,4194.0,6.0,1,
183100,1869.4,8.2,130.6,40.8,510.0,4194.0,6.0,1,
183200,1862.0,5.4,130.6,34.7,510.0,4194.0,6.0,1,
183300,1861.6,5.9,130.6,29.7,510.0,4194.0,6.0,1,
183400,1862.7,5.4,130.6,29.0,510.0,4194.0,6.0,1,
183600,1862.4,5.9,130.6,146.3,510.0,4194.0,6.0,1,
183700,1861.8,6.2,130.6,124.9,510.0,4194.0,6.0,1,
183800,1862.5,6.0,130.6,122.4,510.0,4194.0,6.0,1,
183900,1862.2,6.2,130.6,79.9,510.0,4194.0,6.0,1,
184000,1862.0,89.9,130.6,73.8,754.0,4680.0,6.0,1,
184100,1886.6,290.8,127.2,38.0,929.0,4532.0,2.0,0,
184200,1853.5,170.8,130.2,34.7,1096.0,4555.0,2.0,0,
184300,1849.7,133.2,129.3,34.6,1096.0,4555.0,2.0,0,
184400,1855.8,131.8,129.1,35.1,515.0,4282.0,6.0,1,
184600,1871.8,87.8,127.9,36.3,515.0,4282.0,6.0,1,
184700,1848.0,9.4,127.8,36.8,515.0,4282.0,6.0,1,
184800,1861.6,5.8,127.8,29.9,515.0,4282.0,6.0,1,
184900,1861.7,6.2,127.8,29.6,515.0,4282.0,6.0,1,
185000,1862.3,5.8,127.8,29.1,515.0,4282.0,6.0,1,
185100,1863.4,6.2,127.8,28.4,515.0,4282.0,6.0,1,
185200,1863.0,5.6,127.8,176.9,515.0,4282.0,6.0,1,
185300,1862.5,5.7,127.8,166.9,515.0,4282.0,6.0,1,
185400,1862.2,6.6,127.8,156.4,515.0,4282.0,6.0,1,
185600,1862.5,60.5,127.8,177.7,769.0,4823.0,6.0,1,
185700,1874.3,294.8,128.2,46.6,1422.0,4937.0,2.0,0,
185800,1833.9,214.2,134.5,34.6,629.0,4105.0,2.0,0,
185900,1884.5,127.6,132.4,34.7,629.0,4105.0,2.0,0,
186000,1865.8,121.6,130.6,35.2,443.0,3215.0,6.0,1,
186100,1852.0,142.0,130.7,35.6,443.0,3215.0,6.0,1,
186200,1857.5,113.3,130.6,35.7,443.0,3215.0,6.0,1,
186300,1862.6,12.8,129.7,36.2,443.0,3215.0,6.0,1,
186400,1862.1,5.4,129.7,34.4,443.0,3215.0,6.0,1,
186600,1863.2,6.1,129.7,29.8,443.0,3215.0,6.0,1,
186700,1864.5,5.6,129.7,29.1,443.0,3215.0,6.0,1,
186800,1863.3,5.5,129.7,147.1,443.0,3215.0,6.0,1,
186900,1863.4,6.2,129.7,205.9,443.0,3215.0,6.0,1,
187000,1863.4,6.2,129.6,166.7,443.0,3215.0,6.0,1,
187100,1862.8,5.7,129.6,110.8,443.0,3215.0,6.0,1,
187200,1862.2,103.4,129.6,132.3,443.0,3215.0,6.0,1,
187300,1865.5,227.1,137.0,30.1,751.0,4405.0,7.0,1,
187400,1865.2,189.9,127.1,28.4,632.0,3940.0,2.0,0,
187600,1849.2,151.1,120.9,29.6,413.0,2623.0,6.0,1,
187700,1857.7,146.4,122.4,35.7,413.0,2623.0,6.0,1,
187800,1880.5,133.1,122.1,37.0,510.0,3974.0,6.0,1,
187900,1841.5,22.9,120.3,37.0,513.0,3987.0,6.0,1,
188000,1865.5,9.7,120.3,34.5,513.0,3987.0,6.0,1,
188100,1862.2,7.0,120.3,30.2,513.0,3987.0,6.0,1,
188200,1863.5,6.2,120.3,30.1,513.0,3987.0,6.0,1,
188300,1863.5,6.0,120.3,66.4,513.0,3987.0,6.0,1,
188400,1862.5,5.8,120.3,152.3,513.0,3987.0,6.0,1,
188600,1862.4,6.4,120.3,168.2,513.0,3987.0,6.0,1,
188700,1861.9,6.4,120.3,170.8,513.0,3987.0,6.0,1,
188800,1861.8,5.5,120.3,189.1,513.0,3987.0,6.0,1,
188900,1883.7,291.7,120.0,45.4,1262.0,4461.0,2.0,0,
189000,1827.6,195.9,135.5,30.2,624.0,3911.0,2.0,0,
189100,1863.6,135.4,135.1,35.0,655.0,3919.0,2.0,0,
189200,1872.0,124.6,134.9,35.6,473.0,3553.0,6.0,1,
189300,1866.4,148.2,134.9,36.0,473.0,3553.0,6.0,1,
189400,1852.6,135.1,136.2,37.1,502.0,4110.0,6.0,1,
189600,1866.9,6.3,136.2,30.3,502.0,4110.0,6.0,1,
189700,1862.0,6.5,136.2,29.8,502.0,4110.0,6.0,1,
189800,1860.1,7.0,136.2,28.5,502.0,4110.0,6.0,1,
189900,1864.2,6.8,136.2,27.9,502.0,4110.0,6.0,1,
190000,1862.6,6.2,136.2,69.8,502.0,4110.0,6.0,1,
190100,1861.4,6.1,136.2,85.6,502.0,4110.0,6.0,1,
190200,1862.1,6.5,136.2,105.1,502.0,4110.0,6.0,1,
190300,1862.0,5.8,136.2,142.6,502.0,4110.0,6.0,1,
190400,1862.2,5.7,136.2,157.2,502.0,4110.0,6.0,1,
190600,1869.7,296.2,122.5,35.5,688.0,4071.0,2.0,0,
190700,1867.9,164.6,127.2,35.3,803.0,4082.0,2.0,0,
190800,1845.5,124.0,126.5,35.0,455.0,3550.0,7.0,1,
190900,1854.1,151.8,127.2,34.9,455.0,3550.0,7.0,1,
191000,1863.7,143.2,126.4,35.0,455.0,3550.0,7.0,1,
191100,1875.3,41.8,127.5,30.0,455.0,3550.0,7.0,1,
191200,1848.7,7.4,127.0,34.8,455.0,3550.0,7.0,1,
191300,1861.4,5.0,127.0,34.7,455.0,3550.0,7.0,1,
191400,1861.7,6.4,127.0,29.9,455.0,3550.0,7.0,1,
191600,1863.6,5.8,127.0,39.0,455.0,3550.0,7.0,1,
191700,1862.0,6.4,127.0,168.5,455.0,3550.0,7.0,1,
191800,1862.3,8.3,127.0,165.2,455.0,3550.0,7.0,1,
191900,1862.5,6.5,127.0,142.1,455.0,3550.0,7.0,1,
192000,1862.8,6.7,127.0,88.3,455.0,3550.0,7.0,1,
192100,1862.1,170.6,127.0,87.9,858.0,5201.0,7.0,1,
192200,1870.5,278.2,130.7,41.5,762.0,4298.0,2.0,0,
192300,1852.1,186.7,134.1,37.1,584.0,4066.0,6.0,1,
192400,1856.0,139.8,131.9,35.5,505.0,3718.0,6.0,1,
192600,1857.0,148.3,134.5,35.5,505.0,3718.0,6.0,1,
192700,1851.5,67.2,135.0,30.1,505.0,3718.0,6.0,1,
192800,1860.0,8.2,134.8,34.9,505.0,3718.0,6.0,1,
192900,1860.9,6.7,134.8,34.8,505.0,3718.0,6.0,1,
193000,1860.9,6.1,134.8,29.9,505.0,3718.0,6.0,1,
193100,1863.2,6.1,134.8,29.2,505.0,3718.0,6.0,1,
193200,1865.1,6.5,134.8,28.4,505.0,3718.0,6.0,1,
193300,1863.7,5.6,134.8,146.8,505.0,3718.0,6.0,1,
193400,1862.4,7.0,134.8,141.4,505.0,3718.0,6.0,1,
193600,1861.8,5.7,134.7,124.7,505.0,3718.0,6.0,1,
193700,1861.4,217.5,134.7,106.9,864.0,5076.0,5.0,1,
193800,1859.9,267.9,138.6,40.1,754.0,4213.0,2.0,0,
193900,1889.5,224.7,136.1,36.9,982.0,4361.0,2.0,0,
194000,1846.2,134.9,140.3,35.7,527.0,3828.0,6.0,1,
194100,1853.5,139.9,140.0,35.1,527.0,3828.0,6.0,1,
194200,1844.2,160.8,139.6,35.1,514.0,4109.0,6.0,1,
194300,1872.7,92.3,138.5,35.7,514.0,4109.0,6.0,1,
194400,1855.8,11.8,137.9,36.2,514.0,4109.0,6.0,1,
194600,1861.5,7.1,137.9,30.2,514.0,4109.0,6.0,1,
194700,1862.8,7.6,137.9,29.7,514.0,4109.0,6.0,1,
194800,1864.6,10.8,137.9,29.4,514.0,4109.0,6.0,1,
194900,1872.1,7.5,137.9,131.7,514.0,4109.0,6.0,1,
195000,1863.5,7.4,137.9,81.3,514.0,4109.0,6.0,1,
195100,1862.4,7.5,137.9,72.1,514.0,4109.0,6.0,1,
195200,1861.7,6.9,137.9,134.0,514.0,4109.0,6.0,1,
195300,1861.6,111.1,137.9,132.8,514.0,4109.0,6.0,1,
195400,1879.9,277.9,138.5,36.1,772.0,3950.0,2.0,0,
195600,1832.5,146.0,135.8,35.5,576.0,3920.0,6.0,1,
195700,1870.3,129.9,135.8,35.0,576.0,3920.0,6.0,1,
195800,1863.8,122.0,134.9,35.0,558.0,4123.0,6.0,1,
195900,1853.9,128.2,134.1,35.4,558.0,4123.0,6.0,1,
196000,1853.3,14.2,133.8,40.7,558.0,4123.0,6.0,1,
196100,1861.4,8.6,133.8,38.2,558.0,4123.0,6.0,1,
196200,1860.9,8.4,133.8,29.9,558.0,4123.0,6.0,1,
196300,1862.2,7.2,133.8,29.4,558.0,4123.0,6.0,1,
196400,1865.0,8.5,133.8,28.7,558.0,4123.0,6.0,1,
196600,1861.5,7.6,133.8,99.8,558.0,4123.0,6.0,1,
196700,1859.9,7.6,133.8,100.5,558.0,4123.0,6.0,1,
196800,1860.9,8.5,133.8,153.5,558.0,4123.0,6.0,1,
196900,1861.1,8.3,133.8,167.8,558.0,4123.0,6.0,1,
197000,1865.1,199.4,131.6,73.1,652.0,3255.0,2.0,0,
197100,1874.2,207.0,122.6,35.3,969.0,4350.0,2.0,0,
197200,1859.7,136.5,116.8,35.2,608.0,4188.0,7.0,1,
197300,1851.8,136.1,116.5,35.4,608.0,4188.0,7.0,1,
197400,1843.5,140.6,117.4,36.8,531.0,3880.0,6.0,1,
197600,1860.4,20.7,117.2,40.1,531.0,3880.0,6.0,1,
197700,1867.7,9.2,117.2,39.9,531.0,3880.0,6.0,1,
197800,1860.3,7.4,117.2,30.2,531.0,3880.0,6.0,1,
197900,1861.5,8.5,117.2,29.7,531.0,3880.0,6.0,1,
198000,1865.4,9.2,117.2,29.2,531.0,3880.0,6.0,1,
198100,1867.9,8.4,117.2,114.0,531.0,3880.0,6.0,1,
198200,1861.6,7.6,117.2,94.5,531.0,3880.0,6.0,1,
198300,1861.0,7.9,117.2,90.5,531.0,3880.0,6.0,1,
198400,1861.0,7.0,117.2,102.1,531.0,3880.0,6.0,1,
198600,1891.2,260.3,117.2,146.7,766.0,4074.0,7.0,1,
198700,1855.6,307.2,127.5,37.3,1227.0,4572.0,2.0,0,
198800,1837.6,147.3,135.7,36.0,592.0,3807.0,6.0,1,
198900,1848.6,148.4,135.4,35.4,592.0,3807.0,6.0,1,
199000,1865.3,128.7,136.2,35.4,464.0,3295.0,6.0,1,
199100,1864.7,136.2,134.9,37.0,464.0,3295.0,6.0,1,
199200,1853.5,35.3,135.5,40.6,464.0,3295.0,6.0,1,
199300,1853.3,8.7,135.3,38.2,464.0,3295.0,6.0,1,
199400,1861.1,7.1,135.3,30.1,464.0,3295.0,6.0,1,
199600,1864.0,8.2,135.3,29.1,464.0,3295.0,6.0,1,
199700,1868.3,8.1,135.3,67.7,464.0,3295.0,6.0,1,
199800,1865.2,9.4,135.3,134.1,464.0,3295.0,6.0,1,
199900,1862.4,7.7,135.3,117.8,464.0,3295.0,6.0,1,
200000,1861.4,7.8,135.4,107.3,464.0,3295.0,6.0,1,
200100,1861.3,7.4,135.4,94.4,464.0,3295.0,6.0,1,
200200,1861.0,126.6,135.4,73.0,747.0,4449.0,6.0,1,
200300,1856.6,300.3,129.1,35.1,1278.0,4735.0,2.0,0,
200400,1868.6,169.6,129.7,34.6,498.0,3479.0,2.0,0,
200600,1846.4,139.6,132.2,35.2,510.0,4039.0,6.0,1,
200700,1846.8,121.0,132.2,35.6,510.0,4039.0,6.0,1,
200800,1861.6,49.9,130.6,44.1,510.0,4039.0,6.0,1,
200900,1865.5,8.8,130.7,45.8,510.0,4039.0,6.0,1,
201000,1861.0,7.4,130.7,34.2,510.0,4039.0,6.0,1,
201100,1861.1,8.9,130.7,29.6,510.0,4039.0,6.0,1,
201200,1863.1,9.8,130.7,29.1,510.0,4039.0,6.0,1,
201300,1867.9,7.8,130.7,35.3,510.0,4039.0,6.0,1,
201400,1864.6,6.4,130.7,90.3,510.0,4039.0,6.0,1,
201600,1860.9,6.1,130.7,101.7,510.0,4039.0,6.0,1,
201700,1860.7,5.6,130.7,149.1,510.0,4039.0,6.0,1,
201800,1860.6,80.5,130.6,157.5,730.0,4406.0,6.0,1,
201900,1880.1,191.2,129.2,38.6,740.0,4186.0,7.0,1,
202000,1847.1,148.7,114.3,36.5,674.0,4370.0,7.0,1,
202100,1844.0,138.6,105.5,36.0,674.0,4370.0,7.0,1,
202200,1846.2,151.0,106.8,34.6,490.0,3875.0,6.0,1,
202300,1876.8,128.4,106.1,34.9,490.0,3875.0,6.0,1,
202400,1862.8,78.4,106.5,35.3,490.0,3875.0,6.0,1,
202600,1860.5,6.6,106.1,30.2,490.0,3875.0,6.0,1,
202700,1861.2,6.9,106.1,29.8,490.0,3875.0,6.0,1,
202800,1863.8,8.5,106.1,29.3,490.0,3875.0,6.0,1,
202900,1866.7,7.6,106.1,29.1,490.0,3875.0,6.0,1,
203000,1865.9,6.2,106.1,106.2,490.0,3875.0,6.0,1,
203100,1862.5,6.1,106.1,100.9,490.0,3875.0,6.0,1,
203200,1860.2,6.1,106.0,133.0,490.0,3875.0,6.0,1,
203300,1859.7,7.3,106.0,146.0,490.0,3875.0,6.0,1,
203400,1859.7,72.4,106.0,133.6,784.0,4330.0,6.0,1,
203600,1831.7,230.2,114.8,29.1,510.0,3592.0,2.0,0,
203700,1872.3,133.2,121.4,29.7,510.0,3592.0,2.0,0,
203800,1856.7,148.8,121.2,34.8,510.0,3592.0,2.0,0,
203900,1848.7,127.3,124.5,35.4,510.0,3592.0,2.0,0,
204000,1854.7,104.6,124.1,36.1,510.0,3592.0,2.0,0,
204100,1863.2,12.0,123.7,40.5,510.0,3592.0,2.0,0,
204200,1860.0,8.1,123.7,34.6,510.0,3592.0,2.0,0,
204300,1860.7,7.6,123.7,30.1,510.0,3592.0,2.0,0,
204400,1863.7,7.7,123.7,29.9,510.0,3592.0,2.0,0,
204600,1869.3,7.4,123.7,112.0,510.0,3592.0,2.0,0,
204700,1862.4,6.4,123.7,132.2,510.0,3592.0,2.0,0,
204800,1860.8,6.7,123.7,111.5,510.0,3592.0,2.0,0,
204900,1860.6,6.9,123.7,133.3,510.0,3592.0,2.0,0,
205000,1861.0,6.4,123.8,173.1,510.0,3592.0,2.0,0,
205100,1880.9,188.1,123.0,50.4,774.0,4539.0,6.0,1,
205200,1850.6,234.3,117.3,37.6,720.0,4520.0,7.0,1,
205300,1853.1,138.7,115.1,36.9,581.0,3757.0,2.0,0,
205400,1838.4,137.2,115.0,36.8,524.0,4030.0,6.0,1,
205600,1878.5,112.6,111.2,35.7,524.0,4030.0,6.0,1,
205700,1842.3,15.8,110.5,35.8,524.0,4030.0,6.0,1,
205800,1863.5,7.7,110.4,30.3,524.0,4030.0,6.0,1,
205900,1860.2,6.5,110.4,30.1,524.0,4030.0,6.0,1,
206000,1860.5,6.9,110.4,29.7,524.0,4030.0,6.0,1,
206100,1861.8,11.7,110.4,29.4,524.0,4030.0,6.0,1,
206200,1865.6,9.0,110.3,114.6,524.0,4030.0,6.0,1,
206300,1867.9,7.7,110.4,115.1,524.0,4030.0,6.0,1,
206400,1861.4,7.2,110.4,108.6,524.0,4030.0,6.0,1,
206600,1859.6,7.5,110.4,147.0,524.0,4030.0,6.0,1,
206700,1885.4,255.0,110.4,142.4,647.0,3471.0,8.0,1,
206800,1832.5,237.5,125.0,37.1,742.0,4618.0,7.0,1,
206900,1837.1,161.0,123.1,36.7,492.0,3208.0,2.0,0,
207000,1873.3,131.4,127.9,36.9,492.0,3208.0,2.0,0,
207100,1851.9,139.5,129.9,38.0,492.0,3208.0,2.0,0,
207200,1850.2,106.6,130.4,37.7,492.0,3208.0,2.0,0,
207300,1846.4,24.9,129.9,38.5,492.0,3208.0,2.0,0,
207400,1868.3,7.6,129.9,35.4,492.0,3208.0,2.0,0,
207600,1861.2,7.4,129.9,29.6,492.0,3208.0,2.0,0,
207700,1860.0,20.1,129.9,29.0,492.0,3208.0,2.0,0,
207800,1882.2,7.9,130.1,66.5,492.0,3208.0,2.0,0,
207900,1862.5,7.6,130.1,37.9,492.0,3208.0,2.0,0,
208000,1859.2,6.7,130.1,36.5,492.0,3208.0,2.0,0,
208100,1861.2,7.1,130.1,66.7,492.0,3208.0,2.0,0,
208200,1860.8,7.8,130.1,111.5,492.0,3208.0,2.0,0,
208300,1872.0,228.8,130.9,108.5,783.0,4367.0,2.0,0,
208400,1856.8,276.7,128.1,27.9,712.0,4275.0,7.0,1,
208600,1833.7,110.8,121.0,28.0,712.0,4275.0,7.0,1,
208700,1846.3,152.4,120.0,35.6,712.0,4275.0,7.0,1,
208800,1872.7,132.2,119.8,36.9,712.0,4275.0,7.0,1,
208900,1869.3,39.3,120.7,65.7,712.0,4275.0,7.0,1,
209000,1845.8,10.1,120.5,35.6,712.0,4275.0,7.0,1,
209100,1860.7,7.5,120.5,30.1,712.0,4275.0,7.0,1,
209200,1860.9,6.4,120.5,29.7,712.0,4275.0,7.0,1,
209300,1862.3,17.1,120.5,29.3,712.0,4275.0,7.0,1,
209400,1876.1,10.3,120.4,41.8,712.0,4275.0,7.0,1,
209600,1859.0,7.6,120.4,67.2,712.0,4275.0,7.0,1,
209700,1859.8,7.5,120.4,71.0,712.0,4275.0,7.0,1,
209800,1861.0,6.6,120.4,132.3,712.0,4275.0,7.0,1,
209900,1860.6,166.5,120.4,155.2,768.0,4469.0,2.0,0,
210000,1871.3,221.5,124.3,29.1,739.0,4951.0,7.0,1,
210100,1830.4,204.2,120.1,29.4,507.0,3820.0,2.0,0,
210200,1858.5,137.8,127.6,29.5,507.0,3820.0,2.0,0,
210300,1866.6,132.2,128.3,35.5,507.0,3820.0,2.0,0,
210400,1856.9,140.1,128.3,35.7,507.0,3820.0,2.0,0,
210600,1856.7,9.9,128.5,36.0,507.0,3820.0,2.0,0,
210700,1857.7,7.1,128.5,30.3,507.0,3820.0,2.0,0,
210800,1859.3,8.0,128.5,30.0,507.0,3820.0,2.0,0,
210900,1861.7,22.3,128.5,29.7,507.0,3820.0,2.0,0,
211000,1878.6,8.1,128.6,29.9,507.0,3820.0,2.0,0,
211100,1861.5,8.2,128.5,91.0,507.0,3820.0,2.0,0,
211200,1860.4,6.9,128.5,68.5,507.0,3820.0,2.0,0,
211300,1860.6,6.6,128.5,100.1,507.0,3820.0,2.0,0,
211400,1859.7,8.0,128.5,176.9,507.0,3820.0,2.0,0,
211600,1854.1,220.1,126.0,29.4,733.0,4785.0,7.0,1,
211700,1870.2,165.6,125.2,29.6,635.0,4263.0,2.0,0,
211800,1839.5,130.1,120.6,29.8,635.0,4263.0,2.0,0,
211900,1847.7,133.1,120.6,36.0,635.0,4263.0,2.0,0,
212000,1854.0,157.2,120.8,35.8,635.0,4263.0,2.0,0,
212100,1875.9,100.9,122.3,38.3,635.0,4263.0,2.0,0,
212200,1853.3,11.7,121.8,35.9,635.0,4263.0,2.0,0,
212300,1858.9,7.6,121.8,30.2,635.0,4263.0,2.0,0,
212400,1860.6,9.5,121.8,29.9,635.0,4263.0,2.0,0,
212600,1868.1,7.6,121.7,29.5,635.0,4263.0,2.0,0,
212700,1865.4,11.1,121.7,65.9,635.0,4263.0,2.0,0,
212800,1860.9,6.0,121.7,65.6,635.0,4263.0,2.0,0,
212900,1860.5,6.4,121.7,68.2,635.0,4263.0,2.0,0,
213000,1860.2,5.5,121.7,68.9,635.0,4263.0,2.0,0,
213100,1860.4,174.2,121.7,88.1,635.0,4263.0,2.0,0,
213200,1867.5,216.4,125.3,35.6,765.0,4721.0,7.0,1,
213300,1847.6,253.8,129.1,29.5,510.0,3393.0,2.0,0,
213400,1846.7,152.6,139.1,29.5,447.0,3214.0,2.0,0,
213600,1871.0,129.9,138.9,35.0,447.0,3214.0,2.0,0,
213700,1852.9,126.9,138.2,36.1,447.0,3214.0,2.0,0,
213800,1853.3,15.2,137.9,38.7,447.0,3214.0,2.0,0,
213900,1862.2,6.3,137.9,34.8,447.0,3214.0,2.0,0,
214000,1862.7,6.2,137.9,34.2,447.0,3214.0,2.0,0,
214100,1862.3,18.1,137.9,29.8,447.0,3214.0,2.0,0,
214200,1872.9,7.0,137.9,28.8,447.0,3214.0,2.0,0,
214300,1860.8,16.0,137.9,75.9,447.0,3214.0,2.0,0,
214400,1871.2,8.1,138.0,51.5,447.0,3214.0,2.0,0,
214600,1862.0,5.7,138.0,37.9,447.0,3214.0,2.0,0,
214700,1860.6,7.2,138.0,41.0,447.0,3214.0,2.0,0,
214800,1842.0,240.8,133.2,52.7,775.0,4333.0,7.0,1,
214900,1873.0,286.4,136.9,28.9,679.0,4021.0,2.0,0,
215000,1872.2,163.0,136.6,34.8,642.0,3654.0,2.0,0,
215100,1842.7,150.3,135.4,34.9,509.0,3814.0,6.0,1,
215200,1847.4,148.4,136.1,34.8,509.0,3814.0,6.0,1,
215300,1858.2,143.9,136.7,34.6,509.0,3814.0,6.0,1,
215400,1861.1,21.1,136.5,29.9,509.0,3814.0,6.0,1,
215600,1862.5,6.8,136.5,34.3,509.0,3814.0,6.0,1,
215700,1863.1,6.2,136.5,29.9,509.0,3814.0,6.0,1,
215800,1862.9,16.9,136.5,29.4,509.0,3814.0,6.0,1,
215900,1874.4,7.3,136.5,90.4,509.0,3814.0,6.0,1,
216000,1864.3,5.6,136.5,76.0,509.0,3814.0,6.0,1,
216100,1860.6,5.4,136.4,65.9,509.0,3814.0,6.0,1,
216200,1861.6,6.5,136.4,84.8,509.0,3814.0,6.0,1,
216300,1861.5,5.8,136.4,204.0,509.0,3814.0,6.0,1,
216400,1879.3,238.3,136.4,205.1,721.0,4036.0,8.0,1,
216600,1856.6,185.0,137.8,36.6,1032.0,3885.0,2.0,0,
216700,1845.1,156.0,138.5,35.5,517.0,3560.0,6.0,1,
216800,1877.2,144.6,139.3,34.9,517.0,3560.0,6.0,1,
216900,1857.1,122.2,138.8,35.3,517.0,3560.0,6.0,1,
217000,1855.6,25.7,138.0,34.8,517.0,3560.0,6.0,1,
217100,1858.2,6.4,137.8,34.8,517.0,3560.0,6.0,1,
217200,1861.9,5.1,137.8,34.9,517.0,3560.0,6.0,1,
217300,1862.8,4.9,137.8,30.0,517.0,3560.0,6.0,1,
217400,1863.0,5.4,137.8,29.3,517.0,3560.0,6.0,1,
217600,1870.0,6.2,137.8,168.7,517.0,3560.0,6.0,1,
217700,1864.4,5.8,137.8,104.2,517.0,3560.0,6.0,1,
217800,1862.3,4.8,137.7,84.2,517.0,3560.0,6.0,1,
217900,1859.9,4.6,137.8,135.2,517.0,3560.0,6.0,1,
218000,1860.8,175.7,137.7,233.9,591.0,3193.0,8.0,1,
218100,1856.2,277.2,132.9,41.2,663.0,3519.0,2.0,0,
218200,1882.2,179.8,136.2,36.9,556.0,4022.0,6.0,1,
218300,1843.0,134.5,127.6,35.2,487.0,3556.0,6.0,1,
218400,1858.4,141.7,127.3,34.8,487.0,3556.0,6.0,1,
218600,1863.5,43.0,127.0,29.9,487.0,3556.0,6.0,1,
218700,1863.3,6.5,126.9,35.0,487.0,3556.0,6.0,1,
218800,1860.7,5.4,126.9,34.8,487.0,3556.0,6.0,1,
218900,1860.4,5.9,126.9,30.2,487.0,3556.0,6.0,1,
219000,1862.3,8.9,126.9,29.7,487.0,3556.0,6.0,1,
219100,1869.3,6.4,126.9,45.6,487.0,3556.0,6.0,1,
219200,1865.5,6.0,126.9,132.2,487.0,3556.0,6.0,1,
219300,1861.1,5.1,126.9,80.4,487.0,3556.0,6.0,1,
219400,1861.2,5.2,126.9,101.9,487.0,3556.0,6.0,1,
219600,1860.7,210.0,126.9,156.5,910.0,5888.0,5.0,1,
219700,1885.0,309.9,130.8,35.2,763.0,4552.0,2.0,0,
219800,1855.3,211.1,136.7,34.2,889.0,4291.0,2.0,0,
219900,1834.8,159.2,140.6,34.3,889.0,4291.0,2.0,0,
220000,1854.6,164.6,141.5,34.7,889.0,4291.0,2.0,0,
220100,1876.1,132.7,142.8,35.3,889.0,4291.0,2.0,0,
220200,1863.3,74.0,142.4,35.8,889.0,4291.0,2.0,0,
220300,1851.4,9.0,142.4,35.4,889.0,4291.0,2.0,0,
220400,1860.7,6.0,142.4,34.5,889.0,4291.0,2.0,0,
220600,1862.0,5.7,142.4,29.2,889.0,4291.0,2.0,0,
220700,1864.2,8.0,142.4,29.6,889.0,4291.0,2.0,0,
220800,1868.0,4.8,142.4,69.5,889.0,4291.0,2.0,0,
220900,1863.3,5.2,142.4,85.4,889.0,4291.0,2.0,0,
221000,1862.1,6.0,142.4,99.0,889.0,4291.0,2.0,0,
221100,1861.6,5.4,142.4,133.1,889.0,4291.0,2.0,0,
221200,1861.9,211.9,142.4,208.4,889.0,4291.0,2.0,0,
221300,1865.9,272.9,148.5,28.9,1029.0,4813.0,2.0,0,
221400,1844.5,243.8,144.6,29.5,687.0,4393.0,7.0,1,
221600,1860.7,134.8,140.2,35.1,687.0,4393.0,7.0,1,
221700,1851.0,121.4,139.1,41.6,575.0,4382.0,6.0,1,
221800,1854.8,94.7,138.1,41.3,575.0,4382.0,6.0,1,
221900,1869.0,11.0,137.5,43.5,575.0,4382.0,6.0,1,
222000,1861.6,5.2,137.5,35.7,575.0,4382.0,6.0,1,
222100,1861.7,4.6,137.5,30.0,575.0,4382.0,6.0,1,
222200,1862.2,6.0,137.5,29.5,575.0,4382.0,6.0,1,
222300,1862.2,4.4,137.5,29.4,575.0,4382.0,6.0,1,
222400,1861.0,8.4,137.5,157.3,575.0,4382.0,6.0,1,
222600,1862.0,4.5,137.5,132.9,575.0,4382.0,6.0,1,
222700,1861.9,4.2,137.5,79.9,575.0,4382.0,6.0,1,
222800,1863.0,114.2,137.5,91.2,575.0,4382.0,6.0,1,
222900,1882.3,315.1,136.6,37.3,867.0,4304.0,2.0,0,
223000,1851.5,293.0,140.8,29.6,926.0,4536.0,2.0,0,
223100,1845.4,143.8,145.7,30.0,449.0,3149.0,2.0,0,
223200,1851.6,172.6,144.8,34.7,449.0,3149.0,2.0,0,
223300,1864.8,145.7,146.3,35.3,449.0,3149.0,2.0,0,
223400,1874.4,129.0,146.6,35.1,449.0,3149.0,2.0,0,
223600,1864.2,5.6,147.1,35.3,449.0,3149.0,2.0,0,
223700,1860.8,5.9,147.1,30.1,449.0,3149.0,2.0,0,
223800,1862.3,5.4,147.1,29.7,449.0,3149.0,2.0,0,
223900,1862.1,6.7,147.1,29.3,449.0,3149.0,2.0,0,
224000,1865.7,7.9,147.1,150.4,449.0,3149.0,2.0,0,
224100,1867.2,4.9,147.1,117.1,449.0,3149.0,2.0,0,
224200,1862.1,5.6,147.1,66.2,449.0,3149.0,2.0,0,
224300,1860.4,6.4,147.1,65.9,449.0,3149.0,2.0,0,
224400,1860.2,5.7,147.1,99.3,449.0,3149.0,2.0,0,
224600,1837.6,220.1,138.6,27.9,750.0,4792.0,7.0,1,
224700,1863.7,211.6,129.3,28.0,476.0,3346.0,2.0,0,
224800,1873.3,138.7,132.0,27.9,572.0,4442.0,6.0,1,
224900,1847.2,147.6,129.7,34.6,573.0,4357.0,6.0,1,
225000,1854.7,126.9,129.7,35.4,573.0,4357.0,6.0,1,
225100,1850.9,20.6,128.9,37.2,468.0,3267.0,6.0,1,
225200,1866.0,6.2,128.9,34.5,468.0,3267.0,6.0,1,
225300,1861.5,5.3,128.9,34.2,468.0,3267.0,6.0,1,
225400,1863.2,7.8,128.9,30.1,468.0,3267.0,6.0,1,
225600,1865.4,5.3,128.9,67.4,468.0,3267.0,6.0,1,
225700,1863.5,5.6,128.9,66.4,468.0,3267.0,6.0,1,
225800,1860.5,5.8,128.9,68.3,468.0,3267.0,6.0,1,
225900,1860.5,11.1,128.9,137.9,468.0,3267.0,6.0,1,
226000,1870.0,16.1,129.0,105.2,468.0,3267.0,6.0,1,
226100,1878.4,286.4,130.0,46.0,1492.0,5013.0,2.0,0,
226200,1856.8,291.3,144.3,29.3,741.0,4323.0,2.0,0,
226300,1868.1,265.5,152.0,30.1,505.0,3540.0,2.0,0,
226400,1853.8,147.6,152.5,35.3,499.0,3820.0,6.0,1,
226600,1877.0,122.7,151.3,37.0,499.0,3820.0,6.0,1,
226700,1859.5,34.2,150.4,37.6,423.0,3244.0,6.0,1,
226800,1849.3,8.7,150.4,34.6,423.0,3244.0,6.0,1,
226900,1858.8,5.4,150.4,34.2,423.0,3244.0,6.0,1,
227000,1859.0,5.6,150.4,30.1,423.0,3244.0,6.0,1,
227100,1862.0,5.0,150.4,34.5,423.0,3244.0,6.0,1,
227200,1861.4,5.6,150.4,83.7,423.0,3244.0,6.0,1,
227300,1862.7,5.7,150.4,172.6,423.0,3244.0,6.0,1,
227400,1863.2,5.3,150.4,202.0,423.0,3244.0,6.0,1,
227600,1862.3,5.5,150.4,197.2,423.0,3244.0,6.0,1,
227700,1862.9,254.2,150.3,198.8,1752.0,6252.0,2.0,0,
227800,1852.0,271.7,153.7,34.7,784.0,4838.0,2.0,0,
227900,1859.4,259.4,150.8,35.2,627.0,3753.0,2.0,0,
228000,1871.3,160.3,146.3,35.8,546.0,4082.0,6.0,1,
228100,1871.5,157.5,147.3,36.1,546.0,4082.0,6.0,1,
228200,1864.2,124.7,148.7,35.3,486.0,3638.0,6.0,1,
228300,1840.2,51.7,147.8,35.4,422.0,3166.0,6.0,1,
228400,1861.4,7.4,148.3,34.6,422.0,3166.0,6.0,1,
228600,1861.3,4.9,148.3,38.0,422.0,3166.0,6.0,1,
228700,1861.4,5.6,148.3,35.6,422.0,3166.0,6.0,1,
228800,1860.7,5.4,148.3,37.6,422.0,3166.0,6.0,1,
228900,1862.6,5.3,148.3,194.5,422.0,3166.0,6.0,1,
229000,1867.0,5.9,148.3,197.0,422.0,3166.0,6.0,1,
229100,1864.4,5.9,148.3,116.0,422.0,3166.0,6.0,1,
229200,1862.3,5.0,148.3,68.6,422.0,3166.0,6.0,1,
229300,1861.6,160.7,148.3,81.5,814.0,5281.0,6.0,1,
229400,1850.4,268.2,139.5,37.1,813.0,4361.0,2.0,0,
229600,1850.1,160.9,137.6,35.0,556.0,3851.0,6.0,1,
229700,1846.8,140.3,138.9,34.8,556.0,3851.0,6.0,1,
229800,1859.3,121.9,137.5,35.2,460.0,3349.0,6.0,1,
229900,1864.5,88.3,137.3,40.8,476.0,3737.0,6.0,1,
230000,1855.4,9.2,137.7,35.1,476.0,3737.0,6.0,1,
230100,1859.7,5.2,137.7,35.1,476.0,3737.0,6.0,1,
230200,1859.8,4.9,137.7,34.6,476.0,3737.0,6.0,1,
230300,1860.7,10.4,137.7,29.4,476.0,3737.0,6.0,1,
230400,1870.1,6.2,137.8,34.3,476.0,3737.0,6.0,1,
230600,1861.4,5.9,137.8,86.5,476.0,3737.0,6.0,1,
230700,1861.3,4.8,137.7,81.8,476.0,3737.0,6.0,1,
230800,1861.9,6.4,137.7,123.7,476.0,3737.0,6.0,1,
230900,1861.6,24.4,137.7,188.0,476.0,3737.0,6.0,1,
231000,1870.7,278.1,141.1,28.6,894.0,5078.0,2.0,0,
231100,1865.2,284.7,142.5,36.4,1352.0,4433.0,2.0,0,
231200,1841.0,166.8,141.7,35.5,545.0,3534.0,7.0,1,
231300,1891.2,144.2,138.6,34.8,545.0,3534.0,7.0,1,
231400,1877.0,127.8,137.8,34.9,507.0,3767.0,6.0,1,
231600,1860.6,13.4,137.4,34.8,507.0,3767.0,6.0,1,
231700,1863.1,6.8,137.4,35.9,507.0,3767.0,6.0,1,
231800,1860.6,6.0,137.4,30.0,507.0,3767.0,6.0,1,
231900,1860.4,5.8,137.4,29.4,507.0,3767.0,6.0,1,
232000,1859.7,6.2,137.4,29.1,507.0,3767.0,6.0,1,
232100,1860.3,5.8,137.4,174.6,507.0,3767.0,6.0,1,
232200,1861.3,5.4,137.4,225.9,507.0,3767.0,6.0,1,
232300,1861.3,5.9,137.4,195.4,507.0,3767.0,6.0,1,
232400,1860.8,5.8,137.4,172.1,507.0,3767.0,6.0,1,
232600,1847.5,276.4,138.6,50.0,828.0,4811.0,2.0,0,
232700,1894.6,315.9,139.4,37.1,1017.0,4457.0,2.0,0,
232800,1860.7,165.3,140.9,36.0,1139.0,4220.0,2.0,0,
232900,1857.5,148.0,144.3,35.2,1139.0,4220.0,2.0,0,
233000,1859.1,131.2,144.9,35.2,514.0,3893.0,6.0,1,
233100,1852.2,147.1,144.4,36.0,475.0,3717.0,6.0,1,
233200,1866.4,19.8,145.2,35.3,475.0,3717.0,6.0,1,
233300,1866.6,7.5,145.2,34.9,475.0,3717.0,6.0,1,
233400,1861.1,5.7,145.2,30.0,475.0,3717.0,6.0,1,
233600,1860.3,6.4,145.2,29.6,475.0,3717.0,6.0,1,
233700,1862.1,5.1,145.2,122.1,475.0,3717.0,6.0,1,
233800,1860.8,6.0,145.2,135.2,475.0,3717.0,6.0,1,
233900,1861.0,5.8,145.2,150.8,475.0,3717.0,6.0,1,
234000,1861.0,5.4,145.2,207.2,475.0,3717.0,6.0,1,
234100,1861.0,6.5,145.2,217.9,475.0,3717.0,6.0,1,
234200,1884.4,222.4,145.2,183.9,702.0,3935.0,8.0,1,
234300,1862.5,323.2,143.0,37.2,1007.0,4568.0,2.0,0,
234400,1841.5,207.2,146.2,36.0,1084.0,4178.0,2.0,0,
234600,1887.4,164.3,151.3,35.2,907.0,4218.0,2.0,0,
234700,1848.9,137.5,155.0,36.0,527.0,4019.0,6.0,1,
234800,1863.0,32.2,155.3,37.0,527.0,4019.0,6.0,1,
234900,1859.5,7.6,155.1,39.1,527.0,4019.0,6.0,1,
235000,1859.7,7.2,155.1,35.7,527.0,4019.0,6.0,1,
235100,1863.6,5.7,155.1,29.9,527.0,4019.0,6.0,1,
235200,1858.1,5.2,155.1,29.3,527.0,4019.0,6.0,1,
235300,1860.8,5.1,155.2,65.8,527.0,4019.0,6.0,1,
235400,1864.8,6.6,155.1,93.6,527.0,4019.0,6.0,1,
235600,1861.9,6.5,155.1,101.5,527.0,4019.0,6.0,1,
235700,1861.4,5.3,155.1,99.7,527.0,4019.0,6.0,1,
235800,1861.4,189.5,155.1,100.6,850.0,4732.0,2.0,0,
235900,1863.3,297.4,157.0,35.3,1085.0,4635.0,2.0,0,
236000,1876.0,216.6,159.1,35.1,769.0,3665.0,2.0,0,
236100,1856.0,159.6,158.6,35.2,769.0,3665.0,2.0,0,
236200,1857.0,201.6,159.1,36.1,1063.0,4665.0,2.0,0,
236300,1840.6,169.2,160.3,37.4,546.0,4460.0,6.0,1,
236400,1877.9,53.8,161.4,37.1,546.0,4460.0,6.0,1,
236600,1863.2,4.7,161.2,35.7,546.0,4460.0,6.0,1,
236700,1861.6,4.9,161.2,30.0,546.0,4460.0,6.0,1,
236800,1862.6,6.0,161.2,29.2,546.0,4460.0,6.0,1,
236900,1862.1,4.9,161.2,43.8,546.0,4460.0,6.0,1,
237000,1862.2,4.8,161.2,99.0,546.0,4460.0,6.0,1,
237100,1862.2,6.1,161.2,133.6,546.0,4460.0,6.0,1,
237200,1863.2,5.4,161.2,149.4,546.0,4460.0,6.0,1,
237300,1860.9,10.6,161.2,149.4,546.0,4460.0,6.0,1,
237400,1865.6,250.8,161.2,206.2,875.0,5067.0,2.0,0,
237600,1854.4,196.5,157.3,29.7,666.0,4558.0,7.0,1,
237700,1836.5,237.0,150.2,34.3,479.0,3734.0,2.0,0,
237800,1874.5,239.0,156.1,35.5,1155.0,4506.0,2.0,0,
237900,1867.3,148.6,154.7,39.6,536.0,4081.0,6.0,1,
238000,1864.8,77.2,153.9,38.9,536.0,4081.0,6.0,1,
238100,1855.7,9.4,153.5,39.4,536.0,4081.0,6.0,1,
238200,1860.1,5.6,153.5,38.5,536.0,4081.0,6.0,1,
238300,1859.4,6.6,153.5,30.3,536.0,4081.0,6.0,1,
238400,1858.7,6.0,153.5,29.4,536.0,4081.0,6.0,1,
238600,1863.7,6.4,153.5,117.0,536.0,4081.0,6.0,1,
238700,1861.3,5.2,153.5,85.9,536.0,4081.0,6.0,1,
238800,1861.3,4.7,153.5,55.6,536.0,4081.0,6.0,1,
238900,1861.2,6.1,153.5,66.2,536.0,4081.0,6.0,1,
239000,1860.8,107.7,153.5,165.1,893.0,5450.0,6.0,1,
239100,1865.3,270.0,152.0,40.5,1198.0,4864.0,2.0,0,
239200,1855.3,302.4,154.1,35.9,1021.0,4374.0,2.0,0,
239300,1876.8,150.2,164.0,35.2,526.0,3505.0,2.0,0,
239400,1870.0,145.9,155.7,35.2,526.0,3505.0,2.0,0,
239600,1862.0,102.4,145.4,35.9,526.0,3505.0,2.0,0,
239700,1869.2,11.0,145.0,37.7,526.0,3505.0,2.0,0,
239800,1861.2,6.2,145.0,35.7,526.0,3505.0,2.0,0,
239900,1860.3,5.7,145.0,30.1,526.0,3505.0,2.0,0,
240000,1860.1,6.2,145.0,29.4,526.0,3505.0,2.0,0,
240100,1863.2,6.4,145.0,29.0,526.0,3505.0,2.0,0,
240200,1860.1,4.9,145.0,107.4,526.0,3505.0,2.0,0,
240300,1862.7,6.7,145.0,85.1,526.0,3505.0,2.0,0,
240400,1863.8,6.3,145.0,100.2,526.0,3505.0,2.0,0,
240600,1860.2,114.5,145.0,124.2,526.0,3505.0,2.0,0,
240700,1883.6,281.8,147.5,35.9,1074.0,4592.0,2.0,0,
240800,1858.4,294.3,154.0,29.2,1168.0,4636.0,2.0,0,
240900,1848.3,138.0,149.0,29.9,583.0,3521.0,2.0,0,
241000,1856.5,257.3,149.2,35.2,1393.0,4741.0,2.0,0,
241100,1865.6,160.7,159.2,38.0,582.0,4512.0,6.0,1,
241200,1880.7,135.2,160.0,38.0,582.0,4512.0,6.0,1,
241300,1845.8,19.1,160.2,42.9,582.0,4512.0,6.0,1,
241400,1864.2,7.6,160.2,42.9,582.0,4512.0,6.0,1,
241600,1860.3,6.0,160.2,29.9,582.0,4512.0,6.0,1,
241700,1860.0,5.4,160.2,30.0,582.0,4512.0,6.0,1,
241800,1859.3,6.0,160.3,133.9,582.0,4512.0,6.0,1,
241900,1860.1,5.8,160.3,146.1,582.0,4512.0,6.0,1,
242000,1860.7,5.4,160.3,110.2,582.0,4512.0,6.0,1,
242100,1860.4,5.3,160.3,108.4,582.0,4512.0,6.0,1,
242200,1861.2,5.5,160.3,154.9,582.0,4512.0,6.0,1,
242300,1884.9,221.9,162.1,44.7,982.0,5640.0,11.0,1,
242400,1819.7,247.5,157.6,28.2,794.0,5149.0,7.0,1,
242600,1884.4,299.9,155.8,28.6,1458.0,4986.0,2.0,0,
242700,1838.2,172.0,162.2,29.5,848.0,4314.0,2.0,0,
242800,1859.7,129.1,163.7,34.5,848.0,4314.0,2.0,0,
242900,1859.8,21.9,162.8,39.5,515.0,3848.0,6.0,1,
243000,1869.3,7.0,162.7,36.2,515.0,3848.0,6.0,1,
243100,1860.4,6.1,162.7,35.4,515.0,3848.0,6.0,1,
243200,1860.9,6.2,162.7,35.0,515.0,3848.0,6.0,1,
243300,1861.0,5.9,162.7,35.5,515.0,3848.0,6.0,1,
243400,1859.8,6.2,162.7,125.5,515.0,3848.0,6.0,1,
243600,1860.5,5.4,162.7,172.4,515.0,3848.0,6.0,1,
243700,1861.0,6.4,162.7,178.1,515.0,3848.0,6.0,1,
243800,1860.3,5.4,162.7,163.8,515.0,3848.0,6.0,1,
243900,1886.3,301.5,163.7,86.4,1093.0,5776.0,2.0,0,
244000,1859.3,288.1,171.7,29.2,1260.0,6378.0,2.0,0,
244100,1848.0,284.3,177.8,29.6,689.0,4570.0,2.0,0,
244200,1857.9,193.4,177.3,34.4,808.0,4303.0,2.0,0,
244300,1841.7,181.6,169.6,66.8,599.0,4766.0,6.0,1,
244400,1891.5,149.2,165.5,65.6,599.0,4766.0,6.0,1,
244600,1848.8,8.0,165.5,35.2,599.0,4766.0,6.0,1,
244700,1860.9,5.9,165.5,30.3,599.0,4766.0,6.0,1,
244800,1859.7,5.6,165.5,30.1,599.0,4766.0,6.0,1,
244900,1860.8,5.8,165.5,30.0,599.0,4766.0,6.0,1,
245000,1861.2,5.5,165.5,78.6,599.0,4766.0,6.0,1,
245100,1861.1,5.7,165.5,176.1,599.0,4766.0,6.0,1,
245200,1861.0,6.3,165.5,206.0,599.0,4766.0,6.0,1,
245300,1861.0,4.9,165.5,207.9,599.0,4766.0,6.0,1,
245400,1860.5,6.3,165.5,174.5,599.0,4766.0,6.0,1,
245600,1869.4,312.6,165.3,29.5,1089.0,6324.0,2.0,0,
245700,1836.5,286.5,166.6,29.9,698.0,4651.0,2.0,0,
245800,1892.7,287.2,167.7,34.6,910.0,4675.0,2.0,0,
245900,1863.8,215.6,170.8,65.7,456.0,3812.0,25.0,0,
246000,1859.5,142.3,174.8,109.8,456.0,3812.0,25.0,0,
246100,1856.5,56.2,174.0,48.0,505.0,4068.0,7.0,1,
246200,1861.9,7.5,173.6,36.0,505.0,4068.0,7.0,1,
246300,1862.0,5.7,173.6,35.3,505.0,4068.0,7.0,1,
246400,1860.6,5.3,173.6,34.7,505.0,4068.0,7.0,1,
246600,1859.6,6.4,173.6,84.1,505.0,4068.0,7.0,1,
246700,1859.6,6.4,173.6,157.2,505.0,4068.0,7.0,1,
246800,1861.6,5.2,173.6,141.0,505.0,4068.0,7.0,1,
246900,1861.5,5.4,173.6,171.9,505.0,4068.0,7.0,1,
247000,1861.5,6.0,173.6,174.8,505.0,4068.0,7.0,1,
247100,1862.0,210.6,173.6,176.3,976.0,6492.0,2.0,0,
247200,1870.3,315.0,173.8,29.6,1426.0,6622.0,2.0,0,
247300,1866.6,277.0,169.8,29.9,757.0,5042.0,2.0,0,
247400,1861.2,180.7,168.6,34.7,501.0,3726.0,2.0,0,
247600,1863.7,152.6,156.5,65.4,501.0,3726.0,2.0,0,
247700,1883.1,75.5,156.4,38.3,453.0,3410.0,6.0,1,
247800,1845.8,11.8,155.6,38.4,453.0,3410.0,6.0,1,
247900,1861.6,7.3,155.6,35.7,453.0,3410.0,6.0,1,
248000,1860.1,4.9,155.6,34.9,453.0,3410.0,6.0,1,
248100,1862.3,6.0,155.6,34.6,453.0,3410.0,6.0,1,
248200,1861.6,6.5,155.6,51.0,453.0,3410.0,6.0,1,
248300,1861.2,5.9,155.6,154.2,453.0,3410.0,6.0,1,
248400,1860.8,5.5,155.6,163.9,453.0,3410.0,6.0,1,
248600,1860.8,5.3,155.6,177.3,453.0,3410.0,6.0,1,
248700,1861.2,132.3,155.6,185.7,453.0,3410.0,6.0,1,
248800,1874.1,301.9,156.7,29.1,1702.0,6504.0,2.0,0,
248900,1832.4,283.9,156.2,30.1,804.0,4818.0,2.0,0,
249000,1870.4,259.8,157.2,35.0,1235.0,4825.0,2.0,0,
249100,1873.3,251.5,161.5,39.8,606.0,4591.0,6.0,1,
249200,1866.8,158.4,163.7,66.4,407.0,3592.0,2.0,0,
249300,1857.8,98.0,164.5,40.7,401.0,2821.0,6.0,1,
249400,1847.8,12.8,163.7,38.3,401.0,2821.0,6.0,1,
249600,1860.7,5.8,163.7,35.3,401.0,2821.0,6.0,1,
249700,1861.5,6.0,163.7,34.5,401.0,2821.0,6.0,1,
249800,1861.3,5.7,163.7,67.5,401.0,2821.0,6.0,1,
249900,1861.8,6.6,163.7,134.4,401.0,2821.0,6.0,1,
250000,1861.9,6.9,163.7,138.1,401.0,2821.0,6.0,1,
250100,1861.9,5.9,163.7,102.0,401.0,2821.0,6.0,1,
250200,1862.2,6.7,163.7,112.5,401.0,2821.0,6.0,1,
250300,1861.6,57.6,163.7,174.3,401.0,2821.0,6.0,1,
250400,1840.5,322.6,168.5,36.1,1083.0,5772.0,2.0,0,
250600,1874.1,279.5,168.0,35.1,905.0,4540.0,2.0,0,
250700,1842.3,218.8,168.4,35.9,661.0,5096.0,7.0,1,
250800,1856.1,192.6,170.5,65.6,430.0,3478.0,2.0,0,
250900,1869.2,107.7,170.3,44.7,422.0,3037.0,6.0,1,
251000,1850.8,17.0,170.1,39.4,391.0,2938.0,6.0,1,
251100,1868.8,7.3,170.1,36.1,391.0,2938.0,6.0,1,
251200,1860.4,6.6,170.1,36.0,391.0,2938.0,6.0,1,
251300,1860.1,5.9,170.1,36.2,391.0,2938.0,6.0,1,
251400,1861.4,6.9,170.1,27.4,391.0,2938.0,6.0,1,
251600,1861.1,6.2,170.2,99.3,391.0,2938.0,6.0,1,
251700,1862.0,7.3,170.1,100.5,391.0,2938.0,6.0,1,
251800,1861.9,7.3,170.2,167.6,391.0,2938.0,6.0,1,
251900,1861.8,6.0,170.2,167.5,391.0,2938.0,6.0,1,
252000,1881.6,221.9,167.9,111.3,789.0,4380.0,8.0,1,
252100,1842.9,266.8,161.7,28.9,817.0,4832.0,2.0,0,
252200,1854.9,273.0,158.8,34.7,1353.0,4459.0,2.0,0,
252300,1852.3,222.9,155.4,34.9,497.0,3867.0,25.0,0,
252400,1887.1,188.1,157.0,34.9,449.0,3394.0,2.0,0,
252600,1847.1,29.7,153.3,43.6,452.0,3273.0,6.0,1,
252700,1860.5,11.3,153.3,38.0,452.0,3273.0,6.0,1,
252800,1860.5,8.1,153.3,37.6,452.0,3273.0,6.0,1,
252900,1861.6,6.3,153.3,28.9,452.0,3273.0,6.0,1,
253000,1860.8,7.2,153.3,29.8,452.0,3273.0,6.0,1,
253100,1860.7,5.7,153.3,80.6,452.0,3273.0,6.0,1,
253200,1861.9,6.8,153.3,104.2,452.0,3273.0,6.0,1,
253300,1861.4,7.1,153.3,146.2,452.0,3273.0,6.0,1,
253400,1861.5,6.0,153.3,156.4,452.0,3273.0,6.0,1,
253600,1861.6,243.9,153.3,186.6,773.0,4198.0,8.0,1,
253700,1843.8,283.6,153.8,28.7,780.0,4480.0,2.0,0,
253800,1894.8,221.1,154.9,34.6,1355.0,4371.0,2.0,0,
253900,1848.0,243.8,151.8,34.7,563.0,4086.0,7.0,1,
254000,1860.9,187.3,155.3,34.7,463.0,3490.0,2.0,0,
254100,1847.5,134.3,154.0,36.2,468.0,3403.0,6.0,1,
254200,1875.0,40.0,154.5,38.0,468.0,3403.0,6.0,1,
254300,1858.4,7.4,154.1,36.4,468.0,3403.0,6.0,1,
254400,1861.0,7.1,154.1,37.7,468.0,3403.0,6.0,1,
254600,1859.4,6.8,154.1,29.4,468.0,3403.0,6.0,1,
254700,1860.4,7.3,154.1,50.4,468.0,3403.0,6.0,1,
254800,1861.3,6.3,154.1,133.2,468.0,3403.0,6.0,1,
254900,1860.9,7.2,154.1,136.1,468.0,3403.0,6.0,1,
255000,1861.4,7.1,154.1,132.7,468.0,3403.0,6.0,1,
255100,1861.6,7.5,154.1,115.7,468.0,3403.0,6.0,1,
255200,1862.6,191.7,154.1,105.0,921.0,5586.0,6.0,1,
255300,1870.9,277.1,153.2,27.4,864.0,5032.0,2.0,0,
255400,1861.1,284.2,153.0,34.3,1004.0,4698.0,2.0,0,
255600,1886.7,170.1,157.8,34.6,487.0,4015.0,2.0,0,
255700,1870.7,136.1,151.1,37.8,539.0,4161.0,6.0,1,
255800,1848.2,72.1,151.9,39.5,521.0,4285.0,7.0,1,
255900,1858.0,12.0,152.0,36.3,521.0,4285.0,7.0,1,
256000,1859.4,7.3,152.0,36.4,521.0,4285.0,7.0,1,
256100,1860.6,7.1,152.0,28.9,521.0,4285.0,7.0,1,
256200,1858.6,7.5,152.0,29.0,521.0,4285.0,7.0,1,
256300,1859.1,6.6,152.0,37.5,521.0,4285.0,7.0,1,
256400,1862.8,6.4,152.0,108.9,521.0,4285.0,7.0,1,
256600,1861.0,6.9,152.0,114.1,521.0,4285.0,7.0,1,
256700,1860.4,6.0,152.0,152.2,521.0,4285.0,7.0,1,
256800,1861.0,140.1,152.0,198.6,932.0,5722.0,6.0,1,
256900,1850.8,233.9,153.2,36.7,906.0,5285.0,11.0,1,
257000,1884.2,312.7,151.6,37.9,1283.0,5069.0,2.0,0,
257100,1861.7,169.1,152.6,44.3,611.0,4142.0,7.0,1,
257200,1865.2,180.1,146.4,36.0,442.0,3321.0,2.0,0,
257300,1856.5,126.0,147.3,35.8,508.0,3975.0,6.0,1,
257400,1846.9,95.5,146.8,40.8,481.0,3680.0,6.0,1,
257600,1862.5,5.2,146.3,37.9,481.0,3680.0,6.0,1,
257700,1860.8,7.4,146.3,35.3,481.0,3680.0,6.0,1,
257800,1858.9,6.4,146.3,30.3,481.0,3680.0,6.0,1,
257900,1858.5,6.6,146.3,35.0,481.0,3680.0,6.0,1,
258000,1863.0,7.0,146.3,154.2,481.0,3680.0,6.0,1,
258100,1860.4,6.7,146.3,130.0,481.0,3680.0,6.0,1,
258200,1860.9,5.9,146.3,90.6,481.0,3680.0,6.0,1,
258300,1860.7,6.9,146.3,89.0,481.0,3680.0,6.0,1,
258400,1861.1,8.1,146.3,132.0,481.0,3680.0,6.0,1,
258600,1871.4,288.9,151.6,36.0,1345.0,4886.0,2.0,0,
258700,1842.0,170.1,151.8,35.5,721.0,3824.0,2.0,0,
258800,1857.5,253.4,154.3,35.2,666.0,4140.0,2.0,0,
258900,1875.8,146.3,158.0,35.7,535.0,4145.0,6.0,1,
259000,1865.3,134.5,158.6,39.3,535.0,4145.0,6.0,1,
259100,1851.4,15.0,158.9,38.4,535.0,4145.0,6.0,1,
259200,1864.0,7.7,158.9,38.1,535.0,4145.0,6.0,1,
259300,1860.1,6.8,158.9,30.2,535.0,4145.0,6.0,1,
259400,1860.1,6.3,158.9,29.6,535.0,4145.0,6.0,1,
259600,1860.9,6.5,158.9,137.1,535.0,4145.0,6.0,1,
259700,1862.0,6.7,158.9,153.9,535.0,4145.0,6.0,1,
259800,1861.8,7.1,158.9,151.3,535.0,4145.0,6.0,1,
259900,1861.7,6.8,158.9,166.7,535.0,4145.0,6.0,1,
260000,1861.3,6.4,158.9,200.7,535.0,4145.0,6.0,1,
260100,1879.8,261.8,159.5,139.0,817.0,4437.0,2.0,0,
260200,1844.5,304.0,159.2,37.2,1300.0,5279.0,2.0,0,
260300,1867.9,185.3,158.2,36.3,486.0,3659.0,2.0,0,
260400,1881.0,264.7,158.0,35.7,496.0,3720.0,2.0,0,
260600,1848.2,127.4,156.1,38.8,496.0,3720.0,2.0,0,
260700,1863.2,21.7,155.4,37.6,496.0,3720.0,2.0,0,
260800,1870.0,8.1,155.4,36.9,496.0,3720.0,2.0,0,
260900,1860.0,6.6,155.4,30.0,496.0,3720.0,2.0,0,
261000,1859.9,6.8,155.4,29.5,496.0,3720.0,2.0,0,
261100,1859.1,7.1,155.4,28.7,496.0,3720.0,2.0,0,
261200,1860.0,6.3,155.4,69.2,496.0,3720.0,2.0,0,
261300,1861.0,7.3,155.4,102.3,496.0,3720.0,2.0,0,
261400,1861.3,6.1,155.4,151.1,496.0,3720.0,2.0,0,
261600,1862.8,7.1,155.4,175.7,496.0,3720.0,2.0,0,
261700,1887.8,173.9,155.4,98.9,723.0,4335.0,8.0,1,
261800,1864.3,304.9,150.7,37.1,1580.0,6058.0,2.0,0,
261900,1842.7,190.2,153.0,35.7,577.0,4106.0,2.0,0,
262000,1853.5,178.0,149.8,35.1,489.0,3717.0,2.0,0,
262100,1851.8,157.2,142.9,35.3,560.0,4365.0,6.0,1,
262200,1883.4,136.3,142.9,35.8,560.0,4365.0,6.0,1,
262300,1867.4,31.7,142.6,35.2,560.0,4365.0,6.0,1,
262400,1850.2,7.0,142.5,30.1,560.0,4365.0,6.0,1,
262600,1859.2,6.5,142.5,30.0,560.0,4365.0,6.0,1,
262700,1859.0,9.4,142.5,29.7,560.0,4365.0,6.0,1,
262800,1863.9,7.1,142.5,57.5,560.0,4365.0,6.0,1,
262900,1861.0,6.0,142.5,91.8,560.0,4365.0,6.0,1,
263000,1860.6,6.6,142.5,79.4,560.0,4365.0,6.0,1,
263100,1860.8,6.8,142.5,90.6,560.0,4365.0,6.0,1,
263200,1860.8,6.1,142.5,132.7,560.0,4365.0,6.0,1,
263300,1860.3,278.4,142.5,131.9,866.0,5259.0,2.0,0,
263400,1875.2,290.6,151.0,29.3,1660.0,5836.0,2.0,0,
263600,1891.2,275.8,156.7,34.5,503.0,3962.0,2.0,0,
263700,1865.3,169.6,161.3,65.5,1207.0,4516.0,2.0,0,
263800,1845.9,131.3,163.7,73.1,518.0,3984.0,6.0,1,
263900,1862.3,50.7,163.1,42.7,518.0,3984.0,6.0,1,
264000,1865.2,8.8,162.8,41.7,518.0,3984.0,6.0,1,
264100,1860.6,6.8,162.8,35.6,518.0,3984.0,6.0,1,
264200,1859.9,7.7,162.8,29.8,518.0,3984.0,6.0,1,
264300,1860.0,7.6,162.8,29.1,518.0,3984.0,6.0,1,
264400,1860.8,6.3,162.8,38.1,518.0,3984.0,6.0,1,
264600,1860.1,6.9,162.9,92.5,518.0,3984.0,6.0,1,
264700,1861.3,6.6,162.9,105.9,518.0,3984.0,6.0,1,
264800,1860.7,6.8,162.9,124.2,518.0,3984.0,6.0,1,
264900,1860.7,228.5,162.9,155.0,840.0,4892.0,2.0,0,
265000,1882.0,323.9,163.2,28.9,1259.0,4808.0,2.0,0,
265100,1857.7,199.4,164.3,29.5,655.0,4204.0,7.0,1,
265200,1855.3,150.8,155.7,30.2,560.0,3859.0,8.0,1,
265300,1855.3,143.8,148.4,35.1,557.0,4055.0,6.0,1,
265400,1856.7,135.8,141.3,37.2,538.0,4049.0,7.0,1,
265600,1848.8,9.9,141.3,35.5,538.0,4049.0,7.0,1,
265700,1860.3,8.1,141.3,34.6,538.0,4049.0,7.0,1,
265800,1859.0,8.2,141.3,30.2,538.0,4049.0,7.0,1,
