Time(ms),Raw_ADC
0,1883
1,1843
2,1829
3,1856
4,1846
5,1846
6,1865
7,1893
8,1904
9,1851
10,1874
11,1851
12,1859
13,1843
14,1856
15,1857
16,1837
17,1874
18,1861
19,1830
20,1857
21,1833
22,1836
23,1839
24,1857
25,1850
26,1862
27,1872
28,1861
29,1840
30,1847
31,1835
32,1885
33,1837
34,1840
35,1835
36,1865
37,1849
38,1855
39,1837
40,1873
41,1856
42,1856
43,1799
44,1859
45,1889
46,1851
47,1859
48,1799
49,1865
50,1915
51,1825
52,1867
53,1866
54,1835
55,1841
56,1830
57,1920
58,1833
59,1856
60,1885
61,1862
62,1853
63,1850
64,1882
65,1920
66,1868
67,1875
68,1839
69,1870
70,1871
71,1851
72,1853
73,1868
74,1882
75,1904
76,1869
77,1846
78,1877
79,1851
80,1862
81,1872
82,1875
83,1861
84,1840
85,1909
86,1855
87,1843
88,1823
89,1853
90,1901
91,1888
92,1851
93,1862
94,1911
95,1873
96,1874
97,1843
98,1901
99,1849
100,1844
101,1841
102,1843
103,1879
104,1855
105,1860
106,1840
107,1840
108,1856
109,1819
110,1843
111,1904
112,1867
113,1873
114,1856
115,1883
116,1836
117,1859
118,1791
119,1813
120,1845
121,1831
122,1859
123,1872
124,1850
125,1855
126,1869
127,1867
128,1837
129,1844
130,1852
131,1856
132,1915
133,1889
134,1866
135,1851
136,1838
137,1842
138,1854
139,1847
140,1831
141,1870
142,1868
143,1849
144,1868
145,1873
146,1841
147,1846
148,1879
149,1882
150,1801
151,1869
152,1854
153,1850
154,1855
155,1845
156,1854
157,1847
158,1863
159,1873
160,1853
161,1885
162,1856
163,1856
164,1846
165,1855
166,1857
167,1866
168,1863
169,1858
170,1857
171,1843
172,1859
173,1869
174,1864
175,1859
176,1871
177,1861
178,1875
179,1857
180,1872
181,1871
182,1872
183,1818
184,1841
185,1840
186,1869
187,1847
188,1845
189,1859
190,1869
191,1859
192,1870
193,1859
194,1842
195,1881
196,1862
197,1872
198,1813
199,1866
200,1857
201,1905
202,1817
203,1856
204,1843
205,1856
206,1840
207,1845
208,1865
209,1874
210,1823
211,1877
212,1850
213,1841
214,1854
215,1872
216,1881
217,1904
218,1853
219,1859
220,1840
221,1840
222,1845
223,1872
224,1867
225,1878
226,1840
227,1856
228,1892
229,1875
230,1877
231,1861
232,1819
233,1858
234,1838
235,1867
236,1851
237,1834
238,1840
239,1838
240,1834
241,1866
242,1843
243,1866
244,1876
245,1890
246,1849
247,1859
248,1855
249,1878
250,1871
251,1887
252,1872
253,1882
254,1847
255,1849
256,1851
257,1840
258,1886
259,1850
260,1877
261,1840
262,1870
263,1843
264,1867
265,1819
266,1909
267,1872
268,1889
269,1857
270,1846
271,1841
272,1859
273,1867
274,1840
275,1869
276,1846
277,1870
278,1857
279,1844
280,1859
281,1867
282,1867
283,1904
284,1834
285,1839
286,1831
287,1840
288,1844
289,1856
290,1856
291,1861
292,1872
293,1901
294,1847
295,1826
296,1841
297,1854
298,1833
299,1861
300,1872
301,1866
302,1872
303,1890
304,1855
305,1845
306,1854
307,1853
308,1831
309,1862
310,1862
311,1872
312,1881
313,1858
314,1870
315,1866
316,1863
317,1857
318,1841
319,1875
320,1835
321,1842
322,1862
323,1842
324,1865
325,1840
326,1871
327,1850
328,1883
329,1851
330,1840
331,1849
332,1856
333,1849
334,1875
335,1857
336,1849
337,1862
338,1840
339,1850
340,1855
341,1869
342,1831
343,1843
344,1841
345,1869
346,1870
347,1843
348,1901
349,1847
350,1845
351,1891
352,1861
353,1872
354,1829
355,1829
356,1849
357,1840
358,1840
359,1849
360,1865
361,1871
362,1870
363,1840
364,1851
365,1839
366,1806
367,1883
368,1867
369,1859
370,1863
371,1844
372,1834
373,1859
374,1873
375,1850
376,1859
377,1849
378,1883
379,1857
380,1855
381,1863
382,1861
383,1894
384,1872
385,1904
386,1853
387,1850
388,1837
389,1855
390,1856
391,1846
392,1850
393,1791
394,1871
395,1870
396,1860
397,1866
398,1871
399,1872
400,1904
401,1903
402,1872
403,1873
404,1845
405,1843
406,1853
407,1861
408,1873
409,1840
410,1805
411,1861
412,1857
413,1862
414,1844
415,1850
416,1908
417,1857
418,1827
419,1826
420,1857
421,1839
422,1831
423,1878
424,1837
425,1885
426,1840
427,1885
428,1850
429,1844
430,1845
431,1842
432,1853
433,1872
434,1872
435,1864
436,1861
437,1854
438,1837
439,1853
440,1836
441,1881
442,1824
443,1906
444,1887
445,1881
446,1857
447,1854
448,1904
449,1861
450,1889
451,1804
452,1892
453,1847
454,1845
455,1846
456,1838
457,1878
458,1889
459,1857
460,1873
461,1877
462,1868
463,1868
464,1862
465,1879
466,1838
467,1866
468,1863
469,1859
470,1852
471,1849
472,1832
473,1869
474,1879
475,1905
476,1829
477,1842
478,1860
479,1841
480,1858
481,1843
482,1878
483,1874
484,1865
485,1887
486,1872
487,1845
488,1854
489,1836
490,1807
491,1874
492,1834
493,1890
494,1872
495,1872
496,1853
497,1857
498,1844
499,1870
500,1870
501,1833
502,1840
503,1875
504,1840
505,1829
506,1844
507,1848
508,1856
509,1852
510,1842
511,1870
512,1845
513,1856
514,1850
515,1872
516,1897
517,1863
518,1875
519,1870
520,1858
521,1846
522,1843
523,1845
524,1840
525,1865
526,1874
527,1858
528,1903
529,1863
530,1840
531,1840
532,1849
533,1879
534,1868
535,1894
536,1863
537,1861
538,1843
539,1845
540,1843
541,1875
542,1822
543,1868
544,1862
545,1879
546,1840
547,1840
548,1853
549,1868
550,1870
551,1878
552,1914
553,1860
554,1856
555,1840
556,1846
557,1846
558,1840
559,1865
560,1866
561,1825
562,1873
563,1851
564,1853
565,1823
566,1859
567,1907
568,1850
569,1878
570,1867
571,1847
572,1851
573,1814
574,1846
575,1866
576,1843
577,1867
578,1884
579,1862
580,1855
581,1856
582,1870
583,1854
584,1872
585,1872
586,1876
587,1856
588,1853
589,1850
590,1846
591,1862
592,1870
593,1847
594,1863
595,1872
596,1855
597,1845
598,1840
599,1872
600,1866
601,1849
602,1881
603,1875
604,1855
605,1856
606,1849
607,1840
608,1863
609,1872
610,1872
611,1855
612,1859
613,1837
614,1858
615,1903
616,1853
617,1882
618,1843
619,1856
620,1852
621,1855
622,1843
623,1842
624,1858
625,1886
626,1845
627,1835
628,1847
629,1849
630,1840
631,1842
632,1883
633,1892
634,1865
635,1872
636,1872
637,1856
638,1846
639,1861
640,1895
641,1885
642,1852
643,1872
644,1870
645,1882
646,1863
647,1847
648,1840
649,1869
650,1866
651,1846
652,1868
653,1878
654,1846
655,1846
656,1854
657,1893
658,1851
659,1870
660,1870
661,1842
662,1845
663,1840
664,1853
665,1847
666,1883
667,1873
668,1903
669,1879
670,1857
671,1856
672,1841
673,1856
674,1843
675,1890
676,1865
677,1839
678,1892
679,1857
680,1840
681,1871
682,1869
683,1879
684,1872
685,1869
686,1863
687,1855
688,1854
689,1856
690,1851
691,1853
692,1865
693,1874
694,1839
695,1887
696,1858
697,1856
698,1810
699,1876
700,1937
701,1890
702,1871
703,1885
704,1859
705,1853
706,1846
707,1853
708,1863
709,1875
710,1925
711,1897
712,1871
713,1862
714,1846
715,1851
716,1897
717,1906
718,1879
719,1845
720,1870
721,1841
722,1841
723,1882
724,1871
725,1854
726,1843
727,1886
728,1901
729,1859
730,1856
731,1839
732,1872
733,1862
734,1809
735,1816
736,1897
737,1855
738,1844
739,1828
740,1856
741,1859
742,1856
743,1871
744,1857
745,1865
746,1845
747,1855
748,1851
749,1856
750,1859
751,1841
752,1863
753,1846
754,1842
755,1830
756,1843
757,1866
758,1857
759,1879
760,1868
761,1879
762,1866
763,1845
764,1856
765,1867
766,1856
767,1847
768,1846
769,1921
770,1853
771,1853
772,1844
773,1819
774,1790
775,1846
776,1844
777,1866
778,1872
779,1866
780,1846
781,1819
782,2256
783,1827
784,1831
785,2159
786,2509
787,2430
788,2243
789,2085
790,1982
791,1989
792,1920
793,1569
794,1488
795,1535
796,1600
797,1641
798,1744
799,1661
800,1708
801,1685
802,1776
803,1776
804,1778
805,1790
806,1815
807,1819
808,1837
809,1822
810,1856
811,1827
812,1839
813,2445
814,1829
815,1808
816,2141
817,2504
818,2461
819,2282
820,2082
821,2039
822,2093
823,1676
824,1481
825,1527
826,1600
827,1621
828,1712
829,1673
830,1716
831,1770
832,1748
833,1813
834,1791
835,1776
836,1791
837,1803
838,1824
839,1822
840,1817
841,1808
842,1828
843,1819
844,2341
845,1840
846,1819
847,1975
848,2514
849,2542
850,2381
851,2177
852,2137
853,1703
854,1465
855,1509
856,1579
857,1677
858,1727
859,1683
860,1712
861,1728
862,1733
863,1766
864,1787
865,1776
866,1779
867,1808
868,1793
869,1819
870,1812
871,1834
872,1839
873,1811
874,1847
875,2000
876,1857
877,1811
878,1975
879,2624
880,2559
881,2286
882,2146
883,1965
884,1505
885,1502
886,1558
887,1616
888,1645
889,1680
890,1695
891,1749
892,1775
893,1744
894,1783
895,1793
896,1799
897,1808
898,1801
899,1814
900,1808
901,1817
902,1823
903,1818
904,1850
905,1841
906,1856
907,1871
908,1834
909,1824
910,2469
911,2459
912,2192
913,2098
914,2036
915,1616
916,1569
917,1636
918,1658
919,1698
920,1690
921,1731
922,1761
923,1776
924,1760
925,1772
926,1795
927,1805
928,1826
929,1822
930,1814
931,1852
932,1819
933,1855
934,1819
935,1829
936,1851
937,1839
938,1935
939,1811
940,1813
941,2474
942,2470
943,2142
944,2000
945,2090
946,1594
947,1579
948,1558
949,1653
950,1699
951,1665
952,1769
953,1746
954,1774
955,1792
956,1797
957,1861
958,1805
959,1794
960,1819
961,1792
962,1834
963,1839
964,1837
965,1840
966,1871
967,1854
968,1868
969,2039
970,1819
971,1817
972,2448
973,2604
974,2179
975,1862
976,1982
977,1583
978,1590
979,1623
980,1670
981,1783
982,1702
983,1713
984,1770
985,1773
986,1792
987,1792
988,1808
989,1797
990,1827
991,1839
992,1829
993,1826
994,1840
995,1829
996,1856
997,1854
998,1852
999,1834
1000,2117
1001,1843
1002,1814
1003,2380
1004,2613
1005,2160
1006,1888
1007,2070
1008,1637
1009,1584
1010,1638
1011,1667
1012,1706
1013,1718
1014,1726
1015,1747
1016,1712
1017,1782
1018,1766
1019,1821
1020,1794
1021,1819
1022,1835
1023,1808
1024,1842
1025,1815
1026,1822
1027,1831
1028,1851
1029,1850
1030,1855
1031,2340
1032,1823
1033,1815
1034,2233
1035,2671
1036,2185
1037,1889
1038,2173
1039,1669
1040,1586
1041,1614
1042,1673
1043,1717
1044,1738
1045,1754
1046,1768
1047,1775
1048,1776
1049,1777
1050,1805
1051,1831
1052,1863
1053,1830
1054,1824
1055,1833
1056,1838
1057,1811
1058,1840
1059,1847
1060,1831
1061,1904
1062,2559
1063,1835
1064,1806
1065,2189
1066,2673
1067,2173
1068,1872
1069,2163
1070,1680
1071,1590
1072,1616
1073,1680
1074,1712
1075,1685
1076,1737
1077,1735
1078,1749
1079,1789
1080,1790
1081,1773
1082,1805
1083,1826
1084,1814
1085,1808
1086,1873
1087,1827
1088,1841
1089,1840
1090,1902
1091,1851
1092,1888
1093,1989
1094,1863
1095,1805
1096,2017
1097,2672
1098,2176
1099,1895
1100,2206
1101,1750
1102,1619
1103,1638
1104,1654
1105,1687
1106,1727
1107,1757
1108,1746
1109,1761
1110,1777
1111,1790
1112,1803
1113,1811
1114,1827
1115,1847
1116,1856
1117,1831
1118,1872
1119,1853
1120,1840
1121,1849
1122,1834
1123,1850
1124,1863
1125,1871
1126,1822
1127,1901
1128,2639
1129,2285
1130,1901
1131,2114
1132,1884
1133,1610
1134,1638
1135,1654
1136,1695
1137,1719
1138,1723
1139,1776
1140,1774
1141,1835
1142,1812
1143,1747
1144,1808
1145,1812
1146,1827
1147,1813
1148,1807
1149,1851
1150,1848
1151,1866
1152,1841
1153,1856
1154,1861
1155,1856
1156,1936
1157,1828
1158,1824
1159,2559
1160,2346
1161,1926
1162,2064
1163,1961
1164,1600
1165,1637
1166,1691
1167,1658
1168,1705
1169,1730
1170,1762
1171,1777
1172,1777
1173,1776
1174,1793
1175,1839
1176,1817
1177,1855
1178,1833
1179,1822
1180,1826
1181,1847
1182,1824
1183,1843
1184,1837
1185,1844
1186,1862
1187,1999
1188,1808
1189,1821
1190,2495
1191,2460
1192,1903
1193,2035
1194,2110
1195,1627
1196,1638
1197,1662
1198,1654
1199,1716
1200,1722
1201,1711
1202,1777
1203,1771
1204,1792
1205,1808
1206,1822
1207,1754
1208,1825
1209,1806
1210,1843
1211,1794
1212,1827
1213,1853
1214,1856
1215,1834
1216,1844
1217,1865
1218,2045
1219,1818
1220,1808
1221,2372
1222,2463
1223,1938
1224,1994
1225,2094
1226,1642
1227,1616
1228,1665
1229,1703
1230,1715
1231,1739
1232,1765
1233,1787
1234,1791
1235,1831
1236,1809
1237,1799
1238,1822
1239,1819
1240,1838
1241,1808
1242,1825
1243,1840
1244,1822
1245,1855
1246,1856
1247,1858
1248,1855
1249,2286
1250,1835
1251,1785
1252,2167
1253,2551
1254,2000
1255,1877
1256,2161
1257,1646
1258,1639
1259,1687
1260,1748
1261,1705
1262,1737
1263,1776
1264,1779
1265,1728
1266,1791
1267,1792
1268,1822
1269,1821
1270,1838
1271,1841
1272,1829
1273,1827
1274,1858
1275,1842
1276,1830
1277,1844
1278,1841
1279,1865
1280,2508
1281,1845
1282,1872
1283,2013
1284,2539
1285,2064
1286,1873
1287,2189
1288,1679
1289,1636
1290,1691
1291,1762
1292,1772
1293,1766
1294,1751
1295,1776
1296,1792
1297,1794
1298,1815
1299,1835
1300,1799
1301,1808
1302,1869
1303,1838
1304,1841
1305,1856
1306,1840
1307,1842
1308,1823
1309,1856
1310,1884
1311,2189
1312,1843
1313,1815
1314,1921
1315,2590
1316,2055
1317,1858
1318,2180
1319,1770
1320,1625
1321,1650
1322,1689
1323,1734
1324,1750
1325,1722
1326,1767
1327,1808
1328,1801
1329,1813
1330,1820
1331,1819
1332,1858
1333,1829
1334,1850
1335,1856
1336,1872
1337,1835
1338,1840
1339,1853
1340,1856
1341,1856
1342,1927
1343,1825
1344,1811
1345,1826
1346,2524
1347,2129
1348,1898
1349,2163
1350,1734
1351,1621
1352,1695
1353,1686
1354,1741
1355,1744
1356,1699
1357,1754
1358,1818
1359,1796
1360,1808
1361,1826
1362,1830
1363,1815
1364,1838
1365,1825
1366,1850
1367,1840
1368,1815
1369,1889
1370,1839
1371,1855
1372,1851
1373,1867
1374,1946
1375,1807
1376,1819
1377,2450
1378,2239
1379,1892
1380,2151
1381,1872
1382,1661
1383,1663
1384,1659
1385,1730
1386,1712
1387,1762
1388,1776
1389,1792
1390,1790
1391,1805
1392,1791
1393,1870
1394,1837
1395,1819
1396,1839
1397,1845
1398,1841
1399,1840
1400,1849
1401,1856
1402,1852
1403,1838
1404,1842
1405,1863
1406,1853
1407,1850
1408,1843
1409,1881
1410,1854
1411,1872
1412,1856
1413,1857
1414,1855
1415,1867
1416,1798
1417,1872
1418,1872
1419,1827
1420,1853
1421,1852
1422,1858
1423,1843
1424,1858
1425,1872
1426,1891
1427,1869
1428,1867
1429,1849
1430,1853
1431,1881
1432,1841
1433,1885
1434,1859
1435,1829
1436,1877
1437,1856
1438,1859
1439,1863
1440,1873
1441,1872
1442,1865
1443,1806
1444,1850
1445,1840
1446,1859
1447,1857
1448,1852
1449,1883
1450,1863
1451,1867
1452,1899
1453,1871
1454,1856
1455,1866
1456,1871
1457,1836
1458,1847
1459,1905
1460,1851
1461,1853
1462,1871
1463,1851
1464,1878
1465,1867
1466,1839
1467,1845
1468,1857
1469,1890
1470,1850
1471,1868
1472,1859
1473,1796
1474,1856
1475,1857
1476,1849
1477,1858
1478,1858
1479,1854
1480,1872
1481,1903
1482,1885
1483,1847
1484,1861
1485,1872
1486,1856
1487,1857
1488,1862
1489,1851
1490,1856
1491,1905
1492,1871
1493,1873
1494,1879
1495,1869
1496,1863
1497,1872
1498,1872
1499,1845
1500,1861
1501,1850
1502,1872
1503,1859
1504,1855
1505,1871
1506,1855
1507,1856
1508,1899
1509,1889
1510,1872
1511,1863
1512,1855
1513,1861
1514,1857
1515,1855
1516,1833
1517,1839
1518,1839
1519,1823
1520,1856
1521,1860
1522,1851
1523,1853
1524,1872
1525,1891
1526,1856
1527,1810
1528,1847
1529,1865
1530,1871
1531,1823
1532,1856
1533,1843
1534,1872
1535,1839
1536,1855
1537,1849
1538,1857
1539,1856
1540,1881
1541,1859
1542,1839
1543,1878
1544,1822
1545,1854
1546,1863
1547,1853
1548,1860
1549,1887
1550,1817
1551,1883
1552,1866
1553,1869
1554,1856
1555,1856
1556,1872
1557,1883
1558,1872
1559,1875
1560,1840
1561,1840
1562,1856
1563,1859
1564,1869
1565,1850
1566,1881
1567,1870
1568,1864
1569,1855
1570,1866
1571,1871
1572,1861
1573,1855
1574,1857
1575,1873
1576,1866
1577,1865
1578,1855
1579,1871
1580,1861
1581,1867
1582,1850
1583,1843
1584,1863
1585,1873
1586,1856
1587,1867
1588,1856
1589,1865
1590,1866
1591,1903
1592,1867
1593,1856
1594,1871
1595,1854
1596,1872
1597,1858
1598,1868
1599,1851
1600,1853
1601,1867
1602,1841
1603,1872
1604,1856
1605,1863
1606,1834
1607,1873
1608,1893
1609,1851
1610,1849
1611,1872
1612,1850
1613,1856
1614,1856
1615,1840
1616,1851
1617,1849
1618,1854
1619,1904
1620,1845
1621,1865
1622,1854
1623,1876
1624,1855
1625,1860
1626,1855
1627,1863
1628,1841
1629,1859
1630,1857
1631,1885
1632,1846
1633,1853
1634,1843
1635,1870
1636,1875
1637,1872
1638,1861
1639,1867
1640,1843
1641,1808
1642,1865
1643,1887
1644,1867
1645,1849
1646,1872
1647,1862
1648,1865
1649,1871
1650,1888
1651,1856
1652,1856
1653,1850
1654,1840
1655,1857
1656,1835
1657,1835
1658,1830
1659,1874
1660,1891
1661,1870
1662,1872
1663,1858
1664,1843
1665,1872
1666,1851
1667,1818
1668,1819
1669,1874
1670,1856
1671,1856
1672,1858
1673,1867
1674,1856
1675,1872
1676,1871
1677,1842
1678,1876
1679,1855
1680,1863
1681,1889
1682,1857
1683,1846
1684,1840
1685,1822
1686,1840
1687,1858
1688,1858
1689,1853
1690,1862
1691,1817
1692,1859
1693,1867
1694,1846
1695,1851
1696,1862
1697,1858
1698,1797
1699,1900
1700,1869
1701,1862
1702,1858
1703,1859
1704,1857
1705,1867
1706,1856
1707,1824
1708,1909
1709,1840
1710,1840
1711,1856
1712,1856
1713,1859
1714,1840
1715,1862
1716,1797
1717,1845
1718,1852
1719,1859
1720,1853
1721,1865
1722,1847
1723,1835
1724,1833
1725,1847
1726,1875
1727,1833
1728,1850
1729,1845
1730,1849
1731,1923
1732,1863
1733,1823
1734,1872
1735,1840
1736,1862
1737,1851
1738,1858
1739,1862
1740,1865
1741,1843
1742,1858
1743,1893
1744,1860
1745,1856
1746,1842
1747,1850
1748,1893
1749,1885
1750,1904
1751,1859
1752,1871
1753,1872
1754,1853
1755,1855
1756,1846
1757,1863
1758,1830
1759,1872
1760,1872
1761,1846
1762,1857
1763,1871
1764,1863
1765,1890
1766,1837
1767,1872
1768,1871
1769,1868
1770,1856
1771,1844
1772,1870
1773,1894
1774,1843
1775,1880
1776,1890
1777,1869
1778,1859
1779,1872
1780,1859
1781,1872
1782,1856
1783,1871
1784,1873
1785,1879
1786,1856
1787,1860
1788,1869
1789,1862
1790,1878
1791,1859
1792,1830
1793,1876
1794,1865
1795,1862
1796,1847
1797,1872
1798,1838
1799,1842
1800,1834
1801,1831
1802,1847
1803,1865
1804,1870
1805,1852
1806,1841
1807,1890
1808,1891
1809,1907
1810,1877
1811,1858
1812,1859
1813,1868
1814,1808
1815,1855
1816,1854
1817,1907
1818,1861
1819,1855
1820,1861
1821,1872
1822,1850
1823,1857
1824,1885
1825,1840
1826,1870
1827,1855
1828,1861
1829,1853
1830,1862
1831,1857
1832,1904
1833,1849
1834,1863
1835,1856
1836,1808
1837,1847
1838,1866
1839,1871
1840,1849
1841,1847
1842,1804
1843,1862
1844,1871
1845,1851
1846,1869
1847,1870
1848,1872
1849,1872
1850,1908
1851,1884
1852,1883
1853,1862
1854,1861
1855,1855
1856,1872
1857,1854
1858,1869
1859,1844
1860,1861
1861,1860
1862,1872
1863,1856
1864,1823
1865,1875
1866,1862
1867,1867
1868,1849
1869,1840
1870,1871
1871,1872
1872,1858
1873,1859
1874,1845
1875,1873
1876,1866
1877,1841
1878,1877
1879,1850
1880,1857
1881,1853
1882,1867
1883,1867
1884,1856
1885,1905
1886,1871
1887,1863
1888,1856
1889,1849
1890,1857
1891,1861
1892,1862
1893,1875
1894,1858
1895,1858
1896,1850
1897,1862
1898,1809
1899,1859
1900,1859
1901,1869
1902,1879
1903,1869
1904,1855
1905,1872
1906,1827
1907,1845
1908,1873
1909,1867
1910,1871
1911,1858
1912,1866
1913,1856
1914,1835
1915,1819
1916,1899
1917,1895
1918,1827
1919,1833
1920,1866
1921,1845
1922,1851
1923,1868
1924,1840
1925,1877
1926,1899
1927,1842
1928,1847
1929,1863
1930,1859
1931,1845
1932,1831
1933,1847
1934,1851
1935,1872
1936,1883
1937,1870
1938,1869
1939,1854
1940,1882
1941,1860
1942,1857
1943,1907
1944,1856
1945,1861
1946,1857
1947,1862
1948,1863
1949,1872
1950,1857
1951,1856
1952,1808
1953,1856
1954,1846
1955,1863
1956,1861
1957,1914
1958,1867
1959,1818
1960,1861
1961,1859
1962,1859
1963,1865
1964,1855
1965,1830
1966,1842
1967,1853
1968,1904
1969,1885
1970,1852
1971,1862
1972,1859
1973,1850
1974,1877
1975,1803
1976,1840
1977,1840
1978,1854
1979,1845
1980,1869
1981,1872
1982,1865
1983,1872
1984,1872
1985,1809
1986,1856
1987,1858
1988,1865
1989,1855
1990,1897
1991,1843
1992,1872
1993,1894
1994,1840
1995,1863
1996,1851
1997,1855
1998,1815
1999,1855
2000,1872
2001,1869
2002,1872
2003,1872
2004,1863
2005,1865
2006,1867
2007,1809
2008,1861
2009,1859
2010,1885
2011,1876
2012,1853
2013,1869
2014,1808
2015,1892
2016,1835
2017,1854
2018,1817
2019,1863
2020,1849
2021,1862
2022,1849
2023,1839
2024,1887
2025,1838
2026,1801
2027,1835
2028,1857
2029,1861
2030,1862
2031,1872
2032,1857
2033,1867
2034,1861
2035,1840
2036,1872
2037,1855
2038,1867
2039,1857
2040,1815
2041,1838
2042,1850
2043,1846
2044,1856
2045,1846
2046,1845
2047,1859
2048,1878
2049,1861
2050,1878
2051,1868
2052,1834
2053,1872
2054,1859
2055,1855
2056,1859
2057,1889
2058,1862
2059,1828
2060,1889
2061,1855
2062,1868
2063,1872
2064,1851
2065,1869
2066,1825
2067,1865
2068,1886
2069,1856
2070,1867
2071,1861
2072,1873
2073,1873
2074,1853
2075,1856
2076,1840
2077,1874
2078,1855
2079,1855
2080,1847
2081,1808
2082,1874
2083,1857
2084,1861
2085,1854
2086,1860
2087,1861
2088,1851
2089,1870
2090,1840
2091,1825
2092,1862
2093,1842
2094,1877
2095,1852
2096,1865
2097,1869
2098,1854
2099,1834
2100,1855
2101,1856
2102,1872
2103,1860
2104,1869
2105,1858
2106,1862
2107,1847
2108,1853
2109,1859
2110,1865
2111,1879
2112,1867
2113,1854
2114,1841
2115,1856
2116,1856
2117,1871
2118,1872
2119,1872
2120,1860
2121,1863
2122,1864
2123,1840
2124,1837
2125,1857
2126,1854
2127,1904
2128,1849
2129,1871
2130,1856
2131,1855
2132,1822
2133,1847
2134,1856
2135,1839
2136,1841
2137,1853
2138,1856
2139,1868
2140,1870
2141,1873
2142,1837
2143,1872
2144,1847
2145,1858
2146,1869
2147,1854
2148,1875
2149,1837
2150,1870
2151,1871
2152,1862
2153,1861
2154,1862
2155,1866
2156,1856
2157,1883
2158,1806
2159,1854
2160,1888
2161,1873
2162,1863
2163,1867
2164,1866
2165,1889
2166,1822
2167,1867
2168,1863
2169,1842
2170,1847
2171,1851
2172,1870
2173,1854
2174,1856
2175,1862
2176,1875
2177,1887
2178,1859
2179,1874
2180,1856
2181,1859
2182,1872
2183,1850
2184,1811
2185,1837
2186,1883
2187,1863
2188,1861
2189,1852
2190,1867
2191,1871
2192,1867
2193,1869
2194,1835
2195,1872
2196,1845
2197,1849
2198,1861
2199,1857
2200,1841
2201,1869
2202,1824
2203,1847
2204,1859
2205,1858
2206,1856
2207,1853
2208,1875
2209,1871
2210,1857
2211,1872
2212,1854
2213,1856
2214,1888
2215,1841
2216,1889
2217,1861
2218,1861
2219,1798
2220,1855
2221,1845
2222,1862
2223,1811
2224,1856
2225,1843
2226,1858
2227,1862
2228,1856
2229,1855
2230,1853
2231,1829
2232,1843
2233,1861
2234,1909
2235,1806
2236,1862
2237,1862
2238,1855
2239,1850
2240,1859
2241,1841
2242,1869
2243,1847
2244,1843
2245,1865
2246,1872
2247,1856
2248,1866
2249,1877
2250,1872
2251,1840
2252,1860
2253,1840
2254,1845
2255,1851
2256,1844
2257,1859
2258,1808
2259,1865
2260,1871
2261,1860
2262,1856
2263,1856
2264,1843
2265,1851
2266,1838
2267,1904
2268,1859
2269,1830
2270,1858
2271,1868
2272,1853
2273,1847
2274,1845
2275,1856
2276,1849
2277,1867
2278,1851
2279,1850
2280,1866
2281,1841
2282,1877
2283,1886
2284,1859
2285,1840
2286,1841
2287,1861
2288,1869
2289,1863
2290,1843
2291,1805
2292,1910
2293,1846
2294,1870
2295,1861
2296,1867
2297,1850
2298,1871
2299,1855
2300,1821
2301,1840
2302,1845
2303,1863
2304,1871
2305,1851
2306,1858
2307,1847
2308,1874
2309,1827
2310,1875
2311,1829
2312,1864
2313,1858
2314,1840
2315,1855
2316,1842
2317,1852
2318,1869
2319,1888
2320,1862
2321,1844
2322,1872
2323,1870
2324,1864
2325,1835
2326,1846
2327,1872
2328,1859
2329,1875
2330,1866
2331,1846
2332,1847
2333,1838
2334,1840
2335,1905
2336,1869
2337,1858
2338,1860
2339,1859
2340,1860
2341,1830
2342,1867
2343,1893
2344,1840
2345,1870
2346,1869
2347,1867
2348,1878
2349,1857
2350,1904
2351,1882
2352,1835
2353,1853
2354,1872
2355,1858
2356,1868
2357,1861
2358,1842
2359,1860
2360,1863
2361,1867
2362,1845
2363,1849
2364,1862
2365,1846
2366,1883
2367,1887
2368,1840
2369,1911
2370,1867
2371,1858
2372,1856
2373,1850
2374,1819
2375,1859
2376,1858
2377,1874
2378,1871
2379,1855
2380,1849
2381,1847
2382,1925
2383,1854
2384,1847
2385,1846
2386,1863
2387,1856
2388,1870
2389,1854
2390,1867
2391,1841
2392,1847
2393,1822
2394,1877
2395,1854
2396,1867
2397,1872
2398,1874
2399,1881
2400,1876
2401,1956
2402,1829
2403,1813
2404,1822
2405,1939
2406,2113
2407,2035
2408,1893
2409,1839
2410,1858
2411,1809
2412,1782
2413,1792
2414,1758
2415,1820
2416,1808
2417,1816
2418,1817
2419,1822
2420,1835
2421,1839
2422,1841
2423,1818
2424,1874
2425,1819
2426,1856
2427,1846
2428,1855
2429,1858
2430,1859
2431,1852
2432,2022
2433,1807
2434,1808
2435,1827
2436,1829
2437,2085
2438,2030
2439,1904
2440,1915
2441,1927
2442,1751
2443,1777
2444,1760
2445,1789
2446,1825
2447,1807
2448,1802
2449,1825
2450,1827
2451,1809
2452,1811
2453,1829
2454,1843
2455,1850
2456,1825
2457,1894
2458,1857
2459,1857
2460,1795
2461,1826
2462,1861
2463,2117
2464,1835
2465,1795
2466,1834
2467,1817
2468,2059
2469,2068
2470,1984
2471,1965
2472,1755
2473,1773
2474,1798
2475,1791
2476,1750
2477,1805
2478,1808
2479,1834
2480,1829
2481,1829
2482,1866
2483,1871
2484,1865
2485,1875
2486,1865
2487,1856
2488,1852
2489,1824
2490,1827
2491,1869
2492,1859
2493,1866
2494,2310
2495,1827
2496,1831
2497,1819
2498,2189
2499,2202
2500,1962
2501,1997
2502,1774
2503,1719
2504,1728
2505,1749
2506,1736
2507,1802
2508,1769
2509,1770
2510,1809
2511,1824
2512,1819
2513,1840
2514,1839
2515,1838
2516,1853
2517,1828
2518,1855
2519,1850
2520,1847
2521,1855
2522,1837
2523,1838
2524,1876
2525,2581
2526,1842
2527,1809
2528,1813
2529,1966
2530,2076
2531,1878
2532,1917
2533,1846
2534,1772
2535,1835
2536,1792
2537,1803
2538,1804
2539,1805
2540,1834
2541,1835
2542,1848
2543,1787
2544,1840
2545,1855
2546,1847
2547,1856
2548,1839
2549,1839
2550,1851
2551,1856
2552,1826
2553,1853
2554,1847
2555,1855
2556,1950
2557,1883
2558,1845
2559,1854
2560,1945
2561,2057
2562,1825
2563,1871
2564,1843
2565,1771
2566,1803
2567,1827
2568,1831
2569,1801
2570,1837
2571,1829
2572,1847
2573,1847
2574,1882
2575,1883
2576,1893
2577,1841
2578,1853
2579,1855
2580,1843
2581,1837
2582,1858
2583,1885
2584,1850
2585,1835
2586,1849
2587,1851
2588,1887
2589,1830
2590,1799
2591,2030
2592,2128
2593,1845
2594,1795
2595,1830
2596,1792
2597,1801
2598,1792
2599,1814
2600,1823
2601,1826
2602,1798
2603,1829
2604,1847
2605,1837
2606,1843
2607,1831
2608,1814
2609,1827
2610,1874
2611,1845
2612,1872
2613,1841
2614,1861
2615,1850
2616,1826
2617,1851
2618,1878
2619,1894
2620,1815
2621,1817
2622,2060
2623,2156
2624,1751
2625,1808
2626,1830
2627,1812
2628,1809
2629,1808
2630,1815
2631,1870
2632,1815
2633,1818
2634,1818
2635,1813
2636,1851
2637,1850
2638,1837
2639,1865
2640,1857
2641,1841
2642,1860
2643,1861
2644,1899
2645,1861
2646,1845
2647,1866
2648,1858
2649,1873
2650,1971
2651,1867
2652,1862
2653,1858
2654,2116
2655,1808
2656,1843
2657,1875
2658,1815
2659,1808
2660,1787
2661,1822
2662,1842
2663,1840
2664,1874
2665,1859
2666,1853
2667,1860
2668,1842
2669,1872
2670,1854
2671,1846
2672,1853
2673,1829
2674,1849
2675,1862
2676,1866
2677,1840
2678,1840
2679,1857
2680,1853
2681,2108
2682,1840
2683,1827
2684,1839
2685,2142
2686,1825
2687,1793
2688,1875
2689,1817
2690,1786
2691,1799
2692,1826
2693,1813
2694,1821
2695,1846
2696,1840
2697,1852
2698,1819
2699,1855
2700,1825
2701,1845
2702,1871
2703,1866
2704,1861
2705,1845
2706,1856
2707,1849
2708,1853
2709,1862
2710,1853
2711,1862
2712,2263
2713,1837
2714,1840
2715,1795
2716,2289
2717,1867
2718,1788
2719,1983
2720,1783
2721,1776
2722,1782
2723,1786
2724,1827
2725,1815
2726,1829
2727,1823
2728,1835
2729,1847
2730,1841
2731,1827
2732,1808
2733,1842
2734,1802
2735,1871
2736,1840
2737,1849
2738,1846
2739,1825
2740,1867
2741,1855
2742,1863
2743,2495
2744,1838
2745,1822
2746,1835
2747,2192
2748,1844
2749,1790
2750,2000
2751,1858
2752,1785
2753,1798
2754,1799
2755,1810
2756,1823
2757,1797
2758,1810
2759,1801
2760,1827
2761,1821
2762,1854
2763,1839
2764,1854
2765,1873
2766,1857
2767,1857
2768,1903
2769,1862
2770,1858
2771,1856
2772,1862
2773,1855
2774,2077
2775,1891
2776,1825
2777,1849
2778,2163
2779,1886
2780,1803
2781,1845
2782,1823
2783,1809
2784,1824
2785,1824
2786,1830
2787,1823
2788,1831
2789,1838
2790,1792
2791,1821
2792,1855
2793,1838
2794,1866
2795,1843
2796,1849
2797,1868
2798,1836
2799,1848
2800,1849
2801,1881
2802,1871
2803,1856
2804,1859
2805,1861
2806,1853
2807,1815
2808,1863
2809,2010
2810,1940
2811,1783
2812,1899
2813,1846
2814,1843
2815,1795
2816,1810
2817,1795
2818,1844
2819,1850
2820,1838
2821,1834
2822,1837
2823,1825
2824,1840
2825,1837
2826,1858
2827,1857
2828,1857
2829,1847
2830,1841
2831,1863
2832,1909
2833,1855
2834,1836
2835,1804
2836,1860
2837,1921
2838,1829
2839,1818
2840,2137
2841,2064
2842,1794
2843,1904
2844,1862
2845,1763
2846,1785
2847,1781
2848,1814
2849,1810
2850,1807
2851,1820
2852,1806
2853,1833
2854,1843
2855,1835
2856,1871
2857,1808
2858,1859
2859,1828
2860,1855
2861,1854
2862,1845
2863,1847
2864,1870
2865,1884
2866,1829
2867,1856
2868,1941
2869,1828
2870,1812
2871,2073
2872,2095
2873,1806
2874,1890
2875,1859
2876,1747
2877,1790
2878,1791
2879,1799
2880,1819
2881,1811
2882,1823
2883,1826
2884,1861
2885,1848
2886,1840
2887,1846
2888,1840
2889,1875
2890,1851
2891,1838
2892,1851
2893,1869
2894,1856
2895,1856
2896,1853
2897,1859
2898,1871
2899,2077
2900,1818
2901,1791
2902,1974
2903,2183
2904,1778
2905,1776
2906,1877
2907,1786
2908,1785
2909,1808
2910,1849
2911,1818
2912,1809
2913,1815
2914,1825
2915,1850
2916,1826
2917,1819
2918,1825
2919,1860
2920,1845
2921,1849
2922,1860
2923,1850
2924,1872
2925,1846
2926,1847
2927,1834
2928,1841
2929,1850
2930,2203
2931,1874
2932,1825
2933,1862
2934,2215
2935,1846
2936,1787
2937,2042
2938,1776
2939,1778
2940,1802
2941,1776
2942,1792
2943,1834
2944,1770
2945,1826
2946,1833
2947,1835
2948,1858
2949,1862
2950,1855
2951,1838
2952,1853
2953,1865
2954,1856
2955,1859
2956,1864
2957,1874
2958,1857
2959,1864
2960,1845
2961,2391
2962,1849
2963,1838
2964,1815
2965,2304
2966,1840
2967,1791
2968,2029
2969,1796
2970,1759
2971,1776
2972,1801
2973,1802
2974,1815
2975,1815
2976,1826
2977,1840
2978,1830
2979,1829
2980,1845
2981,1836
2982,1835
2983,1847
2984,1849
2985,1863
2986,1863
2987,1842
2988,1845
2989,1848
2990,1868
2991,1834
2992,2341
2993,1808
2994,1838
2995,1840
2996,2188
2997,1836
2998,1808
2999,2023
3000,1804
3001,1776
3002,1799
3003,1801
3004,1806
3005,1820
3006,1824
3007,1857
3008,1829
3009,1831
3010,1856
3011,1835
3012,1858
3013,1853
3014,1856
3015,1885
3016,1879
3017,1840
3018,1882
3019,1840
3020,1842
3021,1859
3022,1856
3023,1875
3024,1838
3025,1835
3026,1840
3027,1841
3028,1841
3029,1872
3030,1867
3031,1895
3032,1879
3033,1849
3034,1821
3035,1859
3036,1869
3037,1861
3038,1850
3039,1818
3040,1866
3041,1874
3042,1837
3043,1869
3044,1849
3045,1858
3046,1872
3047,1867
3048,1860
3049,1881
3050,1859
3051,1882
3052,1829
3053,1869
3054,1869
3055,1870
3056,1855
3057,1872
3058,1872
3059,1854
3060,1867
3061,1866
3062,1850
3063,1856
3064,1891
3065,1889
3066,1847
3067,1877
3068,1846
3069,1849
3070,1870
3071,1861
3072,1859
3073,1859
3074,1830
3075,1855
3076,1884
3077,1878
3078,1867
3079,1866
3080,1872
3081,1874
3082,1866
3083,1868
3084,1877
3085,1887
3086,1849
3087,1872
3088,1866
3089,1795
3090,1861
3091,1874
3092,1870
3093,1840
3094,1882
3095,1872
3096,1863
3097,1834
3098,1840
3099,1853
3100,1852
3101,1873
3102,1857
3103,1856
3104,1856
3105,1860
3106,1843
3107,1859
3108,1847
3109,1889
3110,1856
3111,1844
3112,1866
3113,1856
3114,1872
3115,1861
3116,1845
3117,1835
3118,1917
3119,1872
3120,1857
3121,1855
3122,1850
3123,1856
3124,1881
3125,1861
3126,1857
3127,1863
3128,1859
3129,1861
3130,1858
3131,1865
3132,1867
3133,1850
3134,1841
3135,1857
3136,1856
3137,1878
3138,1869
3139,1903
3140,1855
3141,1869
3142,1840
3143,1863
3144,1824
3145,1863
3146,1852
3147,1860
3148,1831
3149,1855
3150,1854
3151,1860
3152,1826
3153,1855
3154,1870
3155,1858
3156,1856
3157,1831
3158,1862
3159,1856
3160,1866
3161,1863
3162,1859
3163,1862
3164,1872
3165,1841
3166,1839
3167,1909
3168,1862
3169,1870
3170,1868
3171,1862
3172,1861
3173,1853
3174,1869
3175,1862
3176,1860
3177,1872
3178,1845
3179,1858
3180,1855
3181,1809
3182,1835
3183,1855
3184,1861
3185,1872
3186,1865
3187,1865
3188,1857
3189,1872
3190,1867
3191,1872
3192,1892
3193,1839
3194,1866
3195,1858
3196,1853
3197,1856
3198,1867
3199,1853
3200,1897
3201,1859
3202,1856
3203,1855
3204,1867
3205,1863
3206,1840
3207,1825
3208,1877
3209,1840
3210,1840
3211,1849
3212,1856
3213,1862
3214,1836
3215,1840
3216,1865
3217,1883
3218,1821
3219,1871
3220,1865
3221,1859
3222,1856
3223,1818
3224,1856
3225,1903
3226,1855
3227,1861
3228,1873
3229,1866
3230,1851
3231,1865
3232,1869
3233,1865
3234,1833
3235,1878
3236,1854
3237,1859
3238,1859
3239,1862
3240,1872
3241,1881
3242,1830
3243,1801
3244,1841
3245,1852
3246,1856
3247,1843
3248,1893
3249,1881
3250,1875
3251,1879
3252,1851
3253,1865
3254,1854
3255,1862
3256,1833
3257,1874
3258,1851
3259,1874
3260,1847
3261,1859
3262,1872
3263,1853
3264,1879
3265,1847
3266,1904
3267,1845
3268,1863
3269,1856
3270,1858
3271,1872
3272,1866
3273,1872
3274,1865
3275,1861
3276,1877
3277,1885
3278,1859
3279,1861
3280,1860
3281,1872
3282,1889
3283,1876
3284,1839
3285,1842
3286,1862
3287,1862
3288,1872
3289,1848
3290,1872
3291,1869
3292,1872
3293,1855
3294,1861
3295,1869
3296,1869
3297,1871
3298,1859
3299,1842
3300,1851
3301,1857
3302,1886
3303,1870
3304,1853
3305,1858
3306,1858
3307,1841
3308,1830
3309,1856
3310,1867
3311,1881
3312,1859
3313,1858
3314,1867
3315,1863
3316,1834
3317,1862
3318,1883
3319,1843
3320,1862
3321,1868
3322,1870
3323,1854
3324,1861
3325,1886
3326,1858
3327,1856
3328,1849
3329,1863
3330,1845
3331,1817
3332,1863
3333,1856
3334,1842
3335,1851
3336,1845
3337,1857
3338,1857
3339,1895
3340,1878
3341,1872
3342,1872
3343,1846
3344,1871
3345,1861
3346,1872
3347,1863
3348,1897
3349,1870
3350,1856
3351,1843
3352,1878
3353,1860
3354,1859
3355,1851
3356,1856
3357,1864
3358,1872
3359,1872
3360,1886
3361,1856
3362,1871
3363,1855
3364,1859
3365,1857
3366,1885
3367,1915
3368,1872
3369,1846
3370,1855
3371,1867
3372,1856
3373,1870
3374,1863
3375,1901
3376,1846
3377,1869
3378,1857
3379,1845
3380,1855
3381,1853
3382,1875
3383,1827
3384,1911
3385,1857
3386,1870
3387,1856
3388,1848
3389,1861
3390,1871
3391,1861
3392,1861
3393,1877
3394,1862
3395,1863
3396,1862
3397,1872
3398,1843
3399,1824
3400,1860
3401,1841
3402,1872
3403,1863
3404,1871
3405,1863
3406,1831
3407,1870
3408,1856
3409,1873
3410,1866
3411,1872
3412,1862
3413,1860
3414,1848
3415,1858
3416,1865
3417,1837
3418,1848
3419,1857
3420,1854
3421,1858
3422,1865
3423,1872
3424,1836
3425,1904
3426,1870
3427,1870
3428,1861
3429,1867
3430,1870
3431,1890
3432,1835
3433,1913
3434,1858
3435,1845
3436,1856
3437,1868
3438,1869
3439,1860
3440,1890
3441,1875
3442,1830
3443,1872
3444,1872
3445,1871
3446,1855
3447,1872
3448,1878
3449,1852
3450,1853
3451,1871
3452,1841
3453,1851
3454,1854
3455,1859
3456,1865
3457,1885
3458,1840
3459,1872
3460,1872
3461,1869
3462,1858
3463,1865
3464,1847
3465,1871
3466,1865
3467,1885
3468,1851
3469,1855
3470,1861
3471,1865
3472,1870
3473,1846
3474,1840
3475,1902
3476,1831
3477,1894
3478,1871
3479,1868
3480,1850
3481,1793
3482,1829
3483,1868
3484,1829
3485,1863
3486,1849
3487,1854
3488,1865
3489,1860
3490,1873
3491,1874
3492,1853
3493,1853
3494,1863
3495,1850
3496,1861
3497,1872
3498,1872
3499,1876
3500,1853
3501,1867
3502,1856
3503,1861
3504,1859
3505,1861
3506,1841
3507,1869
3508,1856
3509,1826
3510,1844
3511,1840
3512,1858
3513,1854
3514,1859
3515,1840
3516,1846
3517,1850
3518,1837
3519,1850
3520,1845
3521,1861
3522,1857
3523,1856
3524,1852
3525,1843
3526,1875
3527,1874
3528,1865
3529,1865
3530,1857
3531,1850
3532,1805
3533,1858
3534,1833
3535,1881
3536,1873
3537,1850
3538,1847
3539,1887
3540,1851
3541,1859
3542,1870
3543,1841
3544,1841
3545,1850
3546,1851
3547,1890
3548,1872
3549,1871
3550,1835
3551,1818
3552,1835
3553,1872
3554,1869
3555,1856
3556,1876
3557,1897
3558,1859
3559,1875
3560,1871
3561,1847
3562,1854
3563,1854
3564,1830
3565,1845
3566,1856
3567,1862
3568,1840
3569,1862
3570,1863
3571,1858
3572,1808
3573,1904
3574,1841
3575,1861
3576,1867
3577,1871
3578,1847
3579,1865
3580,1872
3581,1872
3582,1859
3583,1862
3584,1856
3585,1822
3586,1865
3587,1873
3588,1867
3589,1841
3590,1865
3591,1855
3592,1858
3593,1848
3594,1869
3595,1857
3596,1857
3597,1861
3598,1847
3599,1871
3600,1874
3601,1855
3602,1894
3603,1852
3604,1862
3605,1855
3606,1859
3607,1856
3608,1863
3609,1846
3610,1840
3611,1846
3612,1854
3613,1855
3614,1870
3615,1858
3616,1844
3617,1872
3618,1870
3619,1854
3620,1870
3621,1861
3622,1843
3623,1869
3624,1843
3625,1878
3626,1867
3627,1881
3628,1866
3629,1859
3630,1855
3631,1904
3632,1821
3633,1857
3634,1890
3635,1890
3636,1849
3637,1857
3638,1856
3639,1851
3640,1865
3641,1858
3642,1835
3643,1872
3644,1847
3645,1856
3646,1871
3647,1861
3648,1858
3649,1856
3650,1856
3651,1860
3652,1810
3653,1856
3654,1853
3655,1867
3656,1847
3657,1867
3658,1872
3659,1833
3660,1877
3661,1871
3662,1846
3663,1859
3664,1872
3665,1840
3666,1893
3667,1878
3668,1858
3669,1867
3670,1850
3671,1869
3672,1863
3673,1867
3674,1861
3675,1856
3676,1854
3677,1861
3678,1855
3679,1873
3680,1869
3681,1851
3682,1850
3683,1867
3684,1858
3685,1861
3686,1866
3687,1870
3688,1856
3689,1852
3690,1842
3691,1847
3692,1866
3693,1891
3694,1847
3695,1865
3696,1872
3697,1855
3698,1877
3699,1872
3700,1808
3701,1891
3702,1820
3703,1861
3704,1872
3705,1863
3706,1872
3707,1855
3708,1857
3709,1851
3710,1850
3711,1870
3712,1854
3713,1870
3714,1884
3715,1840
3716,1835
3717,1850
3718,1841
3719,1839
3720,1848
3721,1853
3722,1872
3723,1871
3724,1863
3725,1837
3726,1840
3727,1863
3728,1870
3729,1866
3730,1862
3731,1844
3732,1901
3733,1897
3734,1853
3735,1842
3736,1856
3737,1870
3738,1855
3739,1869
3740,1859
3741,1843
3742,1837
3743,1838
3744,1874
3745,1860
3746,1856
3747,1853
3748,1872
3749,1859
3750,1863
3751,1872
3752,1840
3753,1855
3754,1866
3755,1857
3756,1851
3757,1851
3758,1846
3759,1871
3760,1855
3761,1854
3762,1868
3763,1854
3764,1829
3765,1845
3766,1847
3767,1871
3768,1863
3769,1878
3770,1849
3771,1865
3772,1831
3773,1856
3774,1871
3775,1849
3776,1814
3777,1869
3778,1859
3779,1863
3780,1857
3781,1845
3782,1885
3783,1863
3784,1861
3785,1871
3786,1863
3787,1853
3788,1852
3789,1837
3790,1857
3791,1871
3792,1856
3793,1865
3794,1874
3795,1859
3796,1851
3797,1853
3798,1857
3799,1872
3800,1872
3801,1851
3802,1879
3803,1872
3804,1859
3805,1858
3806,1863
3807,1866
3808,1846
3809,1848
3810,1845
3811,1856
3812,1849
3813,1856
3814,1867
3815,1891
3816,1889
3817,1856
3818,1858
3819,1861
3820,1863
3821,1842
3822,1893
3823,1871
3824,1874
3825,1867
3826,1879
3827,1879
3828,1846
3829,1863
3830,1872
3831,1848
3832,1842
3833,1859
3834,1872
3835,1878
3836,1863
3837,1856
3838,1850
3839,1823
3840,1872
3841,1861
3842,1851
3843,1861
3844,1861
3845,1869
3846,1868
3847,1865
3848,1856
3849,1849
3850,1858
3851,1855
3852,1842
3853,1867
3854,1863
3855,1856
3856,1859
3857,1832
3858,1897
3859,1872
3860,1883
3861,1866
3862,1855
3863,1859
3864,1839
3865,1857
3866,1861
3867,1808
3868,1862
3869,1847
3870,1866
3871,1850
3872,1841
3873,1858
3874,1825
3875,1898
3876,1840
3877,1859
3878,1862
3879,1861
3880,1857
3881,1862
3882,1857
3883,1894
3884,1871
3885,1857
3886,1867
3887,1874
3888,1872
3889,1889
3890,1915
3891,1856
3892,1861
3893,1872
3894,1853
3895,1869
3896,1849
3897,1857
3898,1866
3899,1861
3900,1826
3901,1899
3902,1858
3903,1857
3904,1860
3905,1854
3906,1854
3907,1855
3908,1878
3909,1840
3910,1877
3911,1850
3912,1871
3913,1859
3914,1813
3915,1876
3916,1840
3917,1866
3918,1853
3919,1871
3920,1867
3921,1850
3922,1871
3923,1904
3924,1857
3925,1851
3926,1842
3927,1874
3928,1860
3929,1850
3930,1869
3931,1856
3932,1835
3933,1867
3934,1853
3935,1855
3936,1866
3937,1857
3938,1845
3939,1855
3940,1903
3941,1872
3942,1868
3943,1845
3944,1851
3945,1865
3946,1867
3947,1837
3948,1847
3949,1852
3950,1881
3951,1846
3952,1829
3953,1866
3954,1869
3955,1855
3956,1879
3957,1850
3958,1854
3959,1856
3960,1879
3961,1871
3962,1850
3963,1857
3964,1871
3965,1862
3966,1856
3967,1850
3968,1861
3969,1865
3970,1859
3971,1852
3972,1853
3973,1837
3974,1857
3975,1856
3976,1874
3977,1846
3978,1859
3979,1872
3980,1866
3981,1843
3982,1872
3983,1872
3984,1847
3985,1854
3986,1861
3987,1858
3988,1854
3989,1867
3990,1847
3991,1863
3992,1856
3993,1872
3994,1856
3995,1859
3996,1872
3997,1843
3998,1845
3999,1861
4000,1879
4001,1859
4002,1865
4003,1861
4004,1856
4005,1865
4006,1829
4007,1851
4008,1864
4009,1891
4010,1878
4011,1846
4012,1872
4013,1856
4014,1865
4015,1874
4016,1861
4017,1895
4018,1911
4019,2247
4020,1861
4021,1819
4022,1836
4023,1872
4024,1920
4025,1949
4026,1855
4027,1823
4028,1808
4029,1810
4030,1819
4031,1853
4032,1838
4033,1817
4034,1872
4035,1787
4036,1847
4037,1845
4038,1861
4039,1872
4040,1845
4041,1841
4042,1854
4043,1845
4044,1850
4045,1857
4046,1867
4047,1858
4048,1867
4049,1840
4050,1849
4051,1897
4052,1817
4053,1819
4054,1829
4055,1843
4056,1853
4057,1875
4058,1841
4059,1904
4060,1870
4061,1840
4062,1846
4063,1854
4064,1861
4065,1827
4066,1846
4067,1837
4068,1798
4069,1866
4070,1849
4071,1857
4072,1840
4073,1838
4074,1855
4075,1841
4076,1843
4077,1850
4078,1860
4079,1852
4080,1864
4081,1829
4082,1899
4083,1829
4084,1829
4085,1840
4086,1839
4087,1845
4088,1829
4089,1846
4090,1887
4091,1862
4092,1856
4093,1857
4094,1840
4095,1859
4096,1855
4097,1867
4098,1872
4099,1840
4100,1875
4101,1856
4102,1856
4103,1854
4104,1859
4105,1855
4106,1904
4107,1872
4108,1891
4109,1893
4110,1853
4111,1839
4112,1861
4113,1971
4114,1798
4115,1855
4116,1826
4117,2077
4118,1966
4119,1855
4120,1904
4121,1797
4122,1814
4123,1798
4124,1792
4125,1827
4126,1840
4127,1842
4128,1840
4129,1843
4130,1849
4131,1815
4132,1822
4133,1840
4134,1819
4135,1847
4136,1842
4137,1845
4138,1849
4139,1872
4140,1855
4141,1840
4142,1849
4143,1872
4144,2065
4145,1824
4146,1821
4147,1837
4148,2029
4149,1839
4150,1857
4151,1983
4152,1804
4153,1806
4154,1803
4155,1815
4156,1778
4157,1841
4158,1780
4159,1881
4160,1841
4161,1843
4162,1855
4163,1853
4164,1849
4165,1835
4166,1859
4167,1855
4168,1856
4169,1851
4170,1857
4171,1850
4172,1853
4173,1863
4174,1852
4175,2270
4176,1842
4177,1825
4178,1830
4179,1827
4180,1891
4181,1854
4182,1953
4183,1862
4184,1856
4185,1824
4186,1840
4187,1838
4188,1855
4189,1830
4190,1839
4191,1845
4192,1839
4193,1846
4194,1862
4195,1870
4196,1862
4197,1850
4198,1856
4199,1867
4200,1867
4201,1830
4202,1838
4203,1859
4204,1856
4205,1858
4206,2390
4207,1856
4208,1808
4209,1847
4210,2027
4211,1862
4212,1807
4213,1799
4214,1839
4215,1808
4216,1854
4217,1854
4218,1829
4219,1829
4220,1851
4221,1850
4222,1866
4223,1849
4224,1840
4225,1855
4226,1853
4227,1873
4228,1853
4229,1868
4230,1836
4231,1895
4232,1851
4233,1850
4234,1887
4235,1845
4236,1857
4237,2138
4238,1861
4239,1837
4240,1835
4241,2021
4242,1903
4243,1804
4244,1927
4245,1822
4246,1805
4247,1808
4248,1817
4249,1829
4250,1847
4251,1826
4252,1822
4253,1840
4254,1856
4255,1859
4256,1861
4257,1870
4258,1867
4259,1853
4260,1855
4261,1864
4262,1857
4263,1841
4264,1839
4265,1855
4266,1865
4267,1881
4268,1851
4269,1885
4270,1834
4271,1828
4272,2017
4273,1961
4274,1791
4275,1805
4276,1826
4277,1808
4278,1823
4279,1831
4280,1885
4281,1806
4282,1874
4283,1856
4284,1818
4285,1834
4286,1841
4287,1840
4288,1856
4289,1819
4290,1860
4291,1851
4292,1837
4293,1840
4294,1858
4295,1859
4296,1848
4297,1883
4298,1851
4299,1886
4300,1899
4301,1802
4302,1847
4303,1838
4304,1917
4305,1822
4306,1808
4307,1849
4308,1842
4309,1830
4310,1840
4311,1840
4312,1841
4313,1847
4314,1840
4315,1883
4316,1850
4317,1855
4318,1837
4319,1860
4320,1855
4321,1855
4322,1899
4323,1858
4324,1840
4325,1838
4326,1867
4327,1875
4328,1851
4329,1859
4330,1898
4331,1949
4332,1830
4333,1847
4334,1904
4335,1951
4336,1823
4337,1813
4338,1821
4339,1819
4340,1840
4341,1846
4342,1850
4343,1846
4344,1847
4345,1857
4346,1847
4347,1858
4348,1856
4349,1865
4350,1875
4351,1847
4352,1865
4353,1854
4354,1846
4355,1845
4356,1867
4357,1871
4358,1879
4359,1875
4360,1919
4361,1858
4362,2029
4363,1840
4364,1871
4365,1809
4366,2001
4367,1870
4368,1872
4369,1968
4370,1808
4371,1808
4372,1852
4373,1855
4374,1844
4375,1878
4376,1837
4377,1843
4378,1850
4379,1842
4380,1840
4381,1860
4382,1840
4383,1862
4384,1861
4385,1856
4386,1859
4387,1863
4388,1847
4389,1841
4390,1863
4391,1857
4392,1840
4393,2210
4394,1843
4395,1837
4396,1827
4397,2061
4398,1840
4399,1833
4400,1999
4401,1825
4402,1823
4403,1825
4404,1817
4405,1827
4406,1845
4407,1853
4408,1842
4409,1842
4410,1867
4411,1853
4412,1855
4413,1841
4414,1859
4415,1850
4416,1858
4417,1841
4418,1867
4419,1863
4420,1845
4421,1859
4422,1855
4423,1863
4424,2421
4425,1820
4426,1826
4427,1827
4428,2167
4429,1826
4430,1814
4431,1936
4432,1783
4433,1839
4434,1760
4435,1808
4436,1830
4437,1824
4438,1825
4439,1837
4440,1813
4441,1808
4442,1843
4443,1840
4444,1854
4445,1840
4446,1840
4447,1849
4448,1872
4449,1862
4450,1825
4451,1856
4452,1857
4453,1857
4454,1851
4455,2416
4456,1867
4457,1836
4458,1778
4459,2022
4460,1822
4461,1827
4462,2011
4463,1840
4464,1822
4465,1808
4466,1803
4467,1845
4468,1846
4469,1839
4470,1837
4471,1839
4472,1803
4473,1813
4474,1883
4475,1863
4476,1853
4477,1862
4478,1864
4479,1853
4480,1856
4481,1826
4482,1826
4483,1835
4484,1824
4485,1855
4486,1911
4487,1873
4488,1829
4489,1782
4490,2011
4491,1831
4492,1835
4493,2017
4494,1847
4495,1794
4496,1817
4497,1829
4498,1855
4499,1847
4500,1843
4501,1818
4502,1823
4503,1846
4504,1847
4505,1858
4506,1854
4507,1868
4508,1856
4509,1849
4510,1867
4511,1841
4512,1857
4513,1847
4514,1859
4515,1878
4516,1856
4517,1881
4518,1880
4519,1837
4520,1830
4521,1936
4522,1931
4523,1830
4524,1941
4525,1856
4526,1823
4527,1833
4528,1811
4529,1823
4530,1834
4531,1862
4532,1829
4533,1822
4534,1809
4535,1844
4536,1847
4537,1843
4538,1854
4539,1831
4540,1863
4541,1846
4542,1841
4543,1872
4544,1854
4545,1849
4546,1858
4547,1878
4548,1855
4549,1936
4550,1845
4551,1840
4552,1904
4553,1915
4554,1818
4555,1836
4556,1818
4557,1826
4558,1810
4559,1834
4560,1809
4561,1834
4562,1840
4563,1831
4564,1842
4565,1846
4566,1862
4567,1858
4568,1847
4569,1856
4570,1858
4571,1844
4572,1838
4573,1841
4574,1856
4575,1856
4576,1849
4577,1869
4578,1855
4579,1857
4580,1973
4581,1829
4582,1797
4583,1840
4584,1879
4585,1806
4586,1839
4587,1922
4588,1808
4589,1831
4590,1847
4591,1833
4592,1847
4593,1822
4594,1846
4595,1843
4596,1842
4597,1899
4598,1857
4599,1846
4600,1850
4601,1833
4602,1857
4603,1855
4604,1847
4605,1867
4606,1854
4607,1844
4608,1869
4609,1853
4610,1891
4611,2115
4612,1843
4613,1837
4614,1795
4615,2081
4616,1791
4617,1846
4618,1951
4619,1814
4620,1802
4621,1809
4622,1792
4623,1803
4624,1766
4625,1808
4626,1837
4627,1839
4628,1854
4629,1840
4630,1855
4631,1858
4632,1899
4633,1879
4634,1847
4635,1856
4636,1853
4637,1847
4638,1853
4639,1853
4640,1823
4641,1843
4642,1872
4643,1872
4644,1863
4645,1858
4646,1870
4647,1872
4648,1874
4649,1856
4650,1851
4651,1872
4652,1866
4653,1858
4654,1870
4655,1853
4656,1839
4657,1843
4658,1808
4659,1858
4660,1885
4661,1861
4662,1869
4663,1853
4664,1871
4665,1868
4666,1842
4667,1808
4668,1906
4669,1849
4670,1872
4671,1865
4672,1867
4673,1866
4674,1870
4675,1841
4676,1858
4677,1835
4678,1857
4679,1866
4680,1855
4681,1878
4682,1854
4683,1872
4684,1840
4685,1874
4686,1861
4687,1863
4688,1857
4689,1888
4690,1863
4691,1903
4692,1898
4693,1846
4694,1860
4695,1869
4696,1869
4697,1848
4698,1843
4699,1889
4700,1863
4701,1877
4702,1857
4703,1858
4704,1871
4705,1857
4706,1855
4707,1856
4708,1889
4709,1837
4710,1833
4711,1850
4712,1843
4713,1847
4714,1860
4715,1813
4716,1874
4717,1840
4718,1884
4719,1871
4720,1861
4721,1869
4722,1872
4723,1869
4724,1835
4725,1860
4726,1856
4727,1872
4728,1846
4729,1863
4730,1854
4731,1834
4732,1887
4733,1848
4734,1829
4735,1882
4736,1863
4737,1866
4738,1857
4739,1834
4740,1872
4741,1865
4742,1863
4743,1843
4744,1845
4745,1861
4746,1865
4747,1850
4748,1852
4749,1839
4750,1862
4751,1845
4752,1861
4753,1863
4754,1869
4755,1869
4756,1867
4757,1861
4758,1867
4759,1883
4760,1872
4761,1871
4762,1861
4763,1870
4764,1869
4765,1895
4766,1861
4767,1860
4768,1879
4769,1867
4770,1856
4771,1851
4772,1875
4773,1853
4774,1875
4775,1858
4776,1837
4777,1853
4778,1856
4779,1863
4780,1904
4781,1851
4782,1842
4783,1856
4784,1845
4785,1855
4786,1856
4787,1857
4788,1856
4789,1874
4790,1872
4791,1854
4792,1838
4793,1859
4794,1867
4795,1863
4796,1855
4797,1836
4798,1839
4799,1873
4800,1798
4801,1895
4802,1870
4803,1855
4804,1858
4805,1847
4806,1833
4807,1846
4808,1871
4809,1856
4810,1840
4811,1872
4812,1859
4813,1855
4814,1855
4815,1909
4816,1854
4817,1856
4818,1843
4819,1847
4820,1859
4821,1859
4822,1841
4823,1842
4824,1887
4825,1871
4826,1904
4827,1888
4828,1845
4829,1854
4830,1844
4831,1858
4832,1862
4833,1840
4834,1854
4835,1839
4836,1856
4837,1856
4838,1860
4839,1853
4840,1839
4841,1858
4842,1871
4843,1865
4844,1847
4845,1861
4846,1855
4847,1873
4848,1859
4849,1863
4850,1818
4851,1849
4852,1857
4853,1856
4854,1862
4855,1836
4856,1846
4857,1875
4858,1878
4859,1837
4860,1827
4861,1867
4862,1862
4863,1863
4864,1840
4865,1917
4866,1840
4867,1854
4868,1851
4869,1865
4870,1856
4871,1863
4872,1852
4873,1861
4874,1858
4875,1909
4876,1894
4877,1815
4878,1865
4879,1865
4880,1875
4881,1874
4882,1867
4883,1863
4884,1870
4885,1871
4886,1854
4887,1856
4888,1858
4889,1859
4890,1862
4891,1863
4892,1840
4893,1895
4894,1871
4895,1861
4896,1868
4897,1840
4898,1865
4899,1847
4900,1853
4901,1846
4902,1849
4903,1855
4904,1854
4905,1830
4906,1856
4907,1879
4908,1840
4909,1861
4910,1860
4911,1872
4912,1851
4913,1851
4914,1872
4915,1890
4916,1875
4917,1853
4918,1842
4919,1854
4920,1859
4921,1847
4922,1886
4923,1892
4924,1835
4925,1862
4926,1846
4927,1859
4928,1840
4929,1862
4930,1856
4931,1897
4932,1864
4933,1840
4934,1872
4935,1905
4936,1856
4937,1855
4938,1856
4939,1870
4940,1851
4941,1843
4942,1853
4943,1801
4944,1850
4945,1873
4946,1861
4947,1854
4948,1867
4949,1872
4950,1837
4951,1824
4952,1865
4953,1863
4954,1871
4955,1870
4956,1851
4957,1872
4958,1872
4959,1882
4960,1840
4961,1859
4962,1866
4963,1862
4964,1826
4965,1869
4966,1875
4967,1856
4968,1835
4969,1844
4970,1869
4971,1855
4972,1872
4973,1860
4974,1893
4975,1875
4976,1874
4977,1834
4978,1866
4979,1858
4980,1873
4981,1892
4982,1860
4983,1857
4984,1875
4985,1874
4986,1862
4987,1869
4988,1859
4989,1835
4990,1855
4991,1894
4992,1845
4993,1877
4994,1870
4995,1862
4996,1857
4997,1856
4998,1874
4999,1845
5000,1859
5001,1861
5002,1868
5003,1858
5004,1861
5005,1845
5006,1834
5007,1840
5008,1845
5009,1860
5010,1872
5011,1850
5012,1868
5013,1841
5014,1817
5015,1833
5016,1869
5017,1828
5018,1866
5019,1865
5020,1847
5021,1860
5022,1869
5023,1871
5024,1859
5025,1860
5026,1838
5027,1858
5028,1857
5029,1867
5030,1869
5031,1825
5032,1854
5033,1831
5034,1843
5035,1842
5036,1870
5037,1858
5038,1858
5039,1841
5040,1865
5041,1875
5042,1837
5043,1846
5044,1854
5045,1840
5046,1863
5047,1856
5048,1863
5049,1822
5050,1900
5051,1855
5052,1840
5053,1863
5054,1866
5055,1867
5056,1863
5057,1874
5058,1872
5059,1835
5060,1843
5061,1866
5062,1845
5063,1860
5064,1855
5065,1847
5066,1883
5067,1833
5068,1823
5069,1862
5070,1856
5071,1850
5072,1858
5073,1843
5074,1837
5075,1871
5076,1886
5077,1844
5078,1871
5079,1871
5080,1875
5081,1851
5082,1857
5083,1853
5084,1856
5085,1813
5086,1866
5087,1869
5088,1872
5089,1858
5090,1842
5091,1847
5092,1898
5093,1872
5094,1865
5095,1882
5096,1861
5097,1878
5098,1843
5099,1873
5100,1851
5101,1903
5102,1870
5103,1853
5104,1859
5105,1883
5106,1885
5107,1872
5108,1862
5109,1870
5110,1847
5111,1861
5112,1854
5113,1863
5114,1872
5115,1840
5116,1801
5117,1850
5118,1885
5119,1863
5120,1863
5121,1856
5122,1873
5123,1856
5124,1865
5125,1863
5126,1868
5127,1870
5128,1840
5129,1856
5130,1864
5131,1872
5132,1884
5133,1843
5134,1846
5135,1889
5136,1857
5137,1863
5138,1863
5139,1867
5140,1810
5141,1834
5142,1866
5143,1872
5144,1856
5145,1840
5146,1850
5147,1809
5148,1840
5149,1838
5150,1867
5151,1867
5152,1872
5153,1859
5154,1857
5155,1862
5156,1844
5157,1872
5158,1861
5159,1871
5160,1840
5161,1857
5162,1867
5163,1867
5164,1858
5165,1845
5166,1866
5167,1866
5168,1856
5169,1855
5170,1858
5171,1869
5172,1854
5173,1857
5174,1862
5175,1862
5176,1845
5177,1873
5178,1861
5179,1857
5180,1811
5181,1888
5182,1919
5183,1872
5184,1856
5185,1872
5186,1856
5187,1866
5188,1865
5189,1858
5190,1840
5191,1865
5192,1873
5193,1898
5194,1867
5195,1858
5196,1849
5197,1798
5198,1863
5199,1846
5200,1877
5201,1881
5202,1853
5203,1857
5204,1859
5205,1856
5206,1848
5207,1872
5208,1871
5209,1879
5210,1847
5211,1856
5212,1856
5213,1849
5214,1846
5215,1856
5216,1834
5217,1849
5218,1866
5219,1869
5220,1859
5221,1853
5222,1902
5223,1905
5224,1867
5225,1872
5226,1840
5227,1872
5228,1868
5229,1846
5230,1873
5231,1863
5232,1917
5233,1911
5234,1841
5235,1853
5236,1854
5237,1853
5238,1856
5239,1849
5240,1858
5241,1861
5242,1879
5243,1879
5244,1866
5245,1872
5246,1867
5247,1849
5248,1839
5249,1808
5250,1878
5251,1808
5252,1857
5253,1856
5254,1853
5255,1871
5256,1860
5257,1845
5258,1867
5259,1845
5260,1897
5261,1868
5262,1859
5263,1897
5264,1840
5265,1873
5266,1888
5267,1865
5268,1852
5269,1842
5270,1861
5271,1862
5272,1876
5273,1909
5274,1857
5275,1853
5276,1859
5277,1847
5278,1857
5279,1857
5280,1840
5281,1853
5282,1851
5283,1899
5284,1854
5285,1853
5286,1862
5287,1872
5288,1847
5289,1838
5290,1855
5291,1869
5292,1841
5293,1864
5294,1867
5295,1857
5296,1854
5297,1877
5298,1854
5299,1888
5300,1852
5301,1861
5302,1857
5303,1862
5304,1855
5305,1879
5306,1859
5307,1892
5308,1861
5309,1846
5310,1857
5311,1871
5312,1863
5313,1866
5314,1863
5315,1859
5316,1870
5317,1861
5318,1901
5319,1853
5320,1856
5321,1866
5322,1854
5323,1848
5324,1870
5325,1870
5326,1797
5327,1856
5328,1870
5329,1866
5330,1861
5331,1853
5332,1871
5333,1850
5334,1889
5335,1872
5336,1851
5337,1862
5338,1863
5339,1841
5340,1877
5341,1872
5342,1801
5343,1834
5344,1846
5345,1856
5346,1861
5347,1869
5348,1880
5349,1861
5350,1847
5351,1890
5352,1851
5353,1852
5354,1860
5355,1846
5356,1863
5357,1866
5358,1856
5359,1858
5360,1859
5361,1861
5362,1859
5363,1872
5364,1856
5365,1873
5366,1855
5367,1857
5368,1878
5369,1854
5370,1855
5371,1844
5372,1877
5373,1843
5374,1841
5375,1859
5376,1875
5377,1847
5378,1862
5379,1854
5380,1851
5381,1895
5382,1855
5383,1861
5384,1843
5385,1854
5386,1870
5387,1857
5388,1872
5389,1905
5390,1874
5391,1855
5392,1845
5393,1839
5394,1856
5395,1847
5396,1847
5397,1861
5398,1870
5399,1849
5400,1855
5401,1857
5402,1872
5403,1853
5404,1869
5405,1837
5406,1876
5407,1838
5408,1847
5409,1909
5410,1858
5411,1859
5412,1858
5413,1856
5414,1869
5415,1839
5416,1851
5417,1865
5418,1840
5419,1849
5420,1846
5421,1858
5422,1840
5423,1872
5424,1862
5425,1813
5426,1872
5427,1841
5428,1865
5429,1860
5430,1894
5431,1907
5432,1870
5433,1855
5434,1877
5435,1856
5436,1869
5437,1861
5438,1862
5439,1858
5440,1907
5441,1840
5442,1840
5443,1878
5444,1864
5445,1870
5446,1869
5447,1875
5448,1855
5449,1847
5450,1877
5451,1864
5452,1863
5453,1860
5454,1871
5455,1873
5456,1842
5457,1866
5458,1863
5459,1866
5460,1853
5461,1851
5462,1853
5463,1856
5464,1856
5465,1857
5466,1851
5467,1854
5468,1866
5469,1856
5470,1851
5471,1870
5472,1855
5473,1894
5474,1851
5475,1814
5476,1858
5477,1858
5478,1862
5479,1872
5480,1856
5481,1856
5482,1888
5483,1846
5484,1871
5485,1869
5486,1861
5487,1867
5488,1869
5489,1873
5490,1839
5491,1843
5492,1838
5493,1850
5494,1850
5495,1858
5496,1850
5497,1857
5498,1891
5499,1872
5500,1882
5501,1872
5502,1851
5503,1856
5504,1856
5505,1852
5506,1868
5507,1857
5508,1830
5509,1840
5510,1873
5511,1857
5512,1858
5513,1858
5514,1846
5515,1856
5516,1843
5517,1851
5518,1849
5519,1860
5520,1850
5521,1859
5522,1847
5523,1859
5524,1869
5525,1851
5526,1860
5527,1856
5528,1861
5529,1859
5530,1857
5531,1884
5532,1858
5533,1824
5534,1840
5535,1868
5536,1862
5537,1856
5538,1870
5539,1834
5540,1835
5541,1872
5542,1851
5543,1870
5544,1853
5545,1851
5546,1861
5547,1851
5548,1854
5549,1886
5550,1860
5551,1851
5552,1843
5553,1863
5554,1850
5555,1867
5556,1840
5557,1876
5558,1837
5559,1865
5560,1843
5561,1866
5562,1838
5563,1854
5564,1827
5565,1867
5566,1843
5567,1843
5568,1874
5569,1866
5570,1856
5571,1863
5572,1839
5573,1859
5574,1863
5575,1875
5576,1831
5577,1871
5578,1845
5579,1856
5580,1882
5581,1847
5582,1838
5583,1875
5584,1860
5585,1855
5586,1856
5587,1859
5588,1868
5589,1869
5590,1871
5591,1872
5592,1874
5593,1869
5594,1870
5595,1869
5596,1854
5597,1877
5598,1910
5599,1874
5600,1878
5601,1886
5602,1861
5603,1867
5604,1849
5605,1872
5606,1872
5607,1843
5608,1869
5609,1843
5610,1843
5611,1850
5612,1866
5613,1897
5614,1840
5615,1876
5616,1849
5617,1838
5618,1843
5619,1859
5620,1857
5621,1862
5622,1831
5623,1858
5624,1861
5625,1857
5626,1897
5627,1867
5628,1869
5629,1868
5630,1856
5631,1847
5632,1814
5633,1868
5634,1856
5635,1852
5636,1862
5637,1862
5638,2226
5639,1851
5640,1814
5641,1853
5642,1844
5643,1879
5644,1823
5645,1849
5646,1838
5647,1843
5648,1838
5649,1786
5650,1840
5651,1887
5652,1859
5653,1849
5654,1847
5655,1873
5656,1859
5657,1882
5658,1834
5659,1863
5660,1847
5661,1853
5662,1867
5663,1857
5664,1855
5665,1831
5666,1869
5667,1859
5668,1872
5669,2512
5670,1854
5671,1819
5672,1808
5673,1831
5674,1851
5675,1834
5676,1847
5677,1843
5678,1845
5679,1862
5680,1860
5681,1852
5682,1821
5683,1872
5684,1807
5685,1846
5686,1860
5687,1867
5688,1854
5689,1868
5690,1839
5691,1858
5692,1868
5693,1842
5694,1860
5695,1855
5696,1853
5697,1826
5698,1870
5699,1904
5700,2206
5701,1840
5702,1819
5703,1831
5704,1840
5705,1881
5706,1888
5707,1901
5708,1930
5709,1851
5710,1804
5711,1826
5712,1823
5713,1783
5714,1859
5715,1871
5716,1851
5717,1818
5718,1888
5719,1840
5720,1840
5721,1854
5722,1823
5723,1853
5724,1861
5725,1861
5726,1850
5727,1845
5728,1859
5729,1853
5730,1855
5731,1856
5732,1878
5733,1808
5734,1840
5735,1819
5736,2112
5737,1967
5738,1895
5739,1877
5740,1793
5741,1757
5742,1818
5743,1805
5744,1815
5745,1822
5746,1840
5747,1835
5748,1841
5749,1853
5750,1863
5751,1842
5752,1856
5753,1855
5754,1852
5755,1864
5756,1866
5757,1841
5758,1840
5759,1866
5760,1856
5761,1853
5762,1849
5763,1922
5764,1805
5765,1815
5766,1803
5767,1939
5768,1850
5769,1885
5770,1955
5771,1808
5772,1805
5773,1809
5774,1813
5775,1813
5776,1824
5777,1841
5778,1855
5779,1852
5780,1886
5781,1833
5782,1857
5783,1851
5784,1849
5785,1853
5786,1856
5787,1862
5788,1869
5789,1872
5790,1863
5791,1842
5792,1831
5793,1835
5794,1979
5795,1810
5796,1827
5797,1823
5798,1998
5799,1797
5800,1816
5801,1968
5802,1809
5803,1824
5804,1825
5805,1820
5806,1840
5807,1846
5808,1813
5809,1872
5810,1825
5811,1863
5812,1859
5813,1845
5814,1827
5815,1871
5816,1841
5817,1828
5818,1853
5819,1850
5820,1858
5821,1854
5822,1861
5823,1888
5824,1838
5825,2033
5826,1834
5827,1814
5828,1827
5829,1997
5830,1877
5831,1797
5832,2017
5833,1839
5834,1839
5835,1829
5836,1831
5837,1842
5838,1808
5839,1815
5840,1854
5841,1847
5842,1859
5843,1872
5844,1861
5845,1857
5846,1857
5847,1854
5848,1841
5849,1855
5850,1856
5851,1844
5852,1865
5853,1851
5854,1859
5855,1872
5856,2202
5857,1831
5858,1840
5859,1791
5860,2025
5861,1840
5862,1822
5863,1837
5864,1865
5865,1834
5866,1856
5867,1851
5868,1835
5869,1840
5870,1840
5871,1835
5872,1872
5873,1853
5874,1831
5875,1856
5876,1843
5877,1847
5878,1857
5879,1853
5880,1850
5881,1862
5882,1872
5883,1846
5884,1879
5885,1856
5886,1852
5887,2313
5888,1858
5889,1839
5890,1840
5891,1967
5892,1851
5893,1856
5894,2061
5895,1831
5896,1827
5897,1815
5898,1824
5899,1829
5900,1821
5901,1857
5902,1837
5903,1857
5904,1843
5905,1847
5906,1851
5907,1859
5908,1841
5909,1855
5910,1847
5911,1842
5912,1845
5913,1866
5914,1878
5915,1855
5916,1837
5917,1819
5918,2314
5919,1856
5920,1810
5921,1831
5922,2224
5923,1904
5924,1783
5925,1974
5926,1811
5927,1783
5928,1787
5929,1808
5930,1821
5931,1803
5932,1825
5933,1851
5934,1857
5935,1856
5936,1840
5937,1853
5938,1874
5939,1823
5940,1872
5941,1840
5942,1859
5943,1845
5944,1859
5945,1853
5946,1847
5947,1884
5948,1840
5949,1889
5950,1879
5951,1798
5952,1818
5953,2192
5954,1981
5955,1819
5956,1891
5957,1811
5958,1802
5959,1771
5960,1822
5961,1808
5962,1812
5963,1819
5964,1813
5965,1826
5966,1819
5967,1839
5968,1882
5969,1856
5970,1845
5971,1850
5972,1845
5973,1831
5974,1831
5975,1845
5976,1891
5977,1859
5978,1841
5979,1855
5980,1873
5981,1955
5982,1828
5983,1830
5984,2230
5985,2115
5986,1782
5987,1814
5988,1808
5989,1791
5990,1723
5991,1807
5992,1780
5993,1798
5994,1823
5995,1836
5996,1833
5997,1840
5998,1850
5999,1855
6000,1833
6001,1858
6002,1843
6003,1840
6004,1866
6005,1863
6006,1843
6007,1849
6008,1887
6009,1856
6010,1857
6011,1861
6012,1937
6013,1767
6014,1815
6015,2156
6016,2161
6017,1799
6018,1919
6019,1815
6020,1760
6021,1765
6022,1754
6023,1776
6024,1747
6025,1813
6026,1794
6027,1811
6028,1825
6029,1841
6030,1808
6031,1835
6032,1866
6033,1839
6034,1849
6035,1846
6036,1847
6037,1853
6038,1837
6039,1803
6040,1853
6041,1840
6042,1858
6043,2029
6044,1827
6045,1830
6046,2083
6047,2298
6048,1821
6049,1806
6050,1886
6051,1750
6052,1764
6053,1779
6054,1791
6055,1855
6056,1808
6057,1797
6058,1789
6059,1872
6060,1827
6061,1840
6062,1851
6063,1828
6064,1871
6065,1843
6066,1877
6067,1852
6068,1822
6069,1846
6070,1858
6071,1842
6072,1826
6073,1862
6074,2157
6075,1824
6076,1849
6077,1920
6078,2358
6079,1808
6080,1761
6081,1936
6082,1787
6083,1744
6084,1793
6085,1792
6086,1805
6087,1807
6088,1785
6089,1837
6090,1842
6091,1799
6092,1815
6093,1857
6094,1844
6095,1840
6096,1845
6097,1845
6098,1837
6099,1872
6100,1847
6101,1851
6102,1856
6103,1857
6104,1862
6105,2352
6106,1844
6107,1830
6108,1840
6109,2299
6110,1851
6111,1769
6112,1942
6113,1789
6114,1790
6115,1808
6116,1798
6117,1775
6118,1795
6119,1837
6120,1838
6121,1818
6122,1808
6123,1824
6124,1793
6125,1869
6126,1873
6127,1854
6128,1840
6129,1855
6130,1851
6131,1870
6132,1855
6133,1876
6134,1845
6135,1861
6136,2512
6137,1841
6138,1837
6139,1837
6140,2326
6141,1865
6142,1792
6143,2030
6144,1783
6145,1774
6146,1778
6147,1802
6148,1802
6149,1791
6150,1818
6151,1811
6152,1819
6153,1841
6154,1842
6155,1846
6156,1889
6157,1855
6158,1814
6159,1838
6160,1856
6161,1855
6162,1858
6163,1870
6164,1833
6165,1869
6166,1867
6167,2171
6168,1843
6169,1830
6170,1827
6171,2341
6172,1926
6173,1775
6174,1956
6175,1776
6176,1756
6177,1781
6178,1799
6179,1802
6180,1757
6181,1850
6182,1789
6183,1833
6184,1855
6185,1842
6186,1843
6187,1834
6188,1856
6189,1831
6190,1843
6191,1860
6192,1871
6193,1843
6194,1858
6195,1860
6196,1858
6197,1806
6198,1902
6199,1886
6200,1830
6201,1815
6202,2253
6203,2039
6204,1787
6205,1890
6206,1808
6207,1775
6208,1792
6209,1761
6210,1806
6211,1809
6212,1830
6213,1821
6214,1818
6215,1827
6216,1843
6217,1838
6218,1861
6219,1840
6220,1854
6221,1841
6222,1844
6223,1842
6224,1856
6225,1876
6226,1844
6227,1841
6228,1867
6229,1858
6230,1925
6231,1799
6232,1845
6233,2055
6234,2096
6235,1794
6236,1840
6237,1809
6238,1799
6239,1808
6240,1771
6241,1810
6242,1837
6243,1812
6244,1833
6245,1824
6246,1817
6247,1823
6248,1829
6249,1840
6250,1850
6251,1855
6252,1860
6253,1861
6254,1851
6255,1870
6256,1866
6257,1811
6258,1840
6259,1879
6260,1843
6261,1869
6262,1856
6263,1869
6264,1835
6265,1880
6266,1860
6267,1857
6268,1855
6269,1855
6270,1862
6271,1861
6272,1854
6273,1901
6274,1863
6275,1860
6276,1861
6277,1866
6278,1843
6279,1872
6280,1863
6281,1845
6282,1846
6283,1842
6284,1841
6285,1846
6286,1866
6287,1851
6288,1870
6289,1855
6290,1876
6291,1872
6292,1872
6293,1856
6294,1855
6295,1850
6296,1861
6297,1872
6298,1841
6299,1840
6300,1840
6301,1875
6302,1847
6303,1858
6304,1856
6305,1847
6306,1848
6307,1858
6308,1867
6309,1833
6310,1861
6311,1857
6312,1857
6313,1879
6314,1828
6315,1872
6316,1856
6317,1882
6318,1872
6319,1853
6320,1861
6321,1856
6322,1794
6323,1892
6324,1856
6325,1824
6326,1856
6327,1863
6328,1866
6329,1863
6330,1858
6331,1849
6332,1866
6333,1835
6334,1849
6335,1857
6336,1856
6337,1857
6338,1838
6339,1805
6340,1852
6341,1858
6342,1879
6343,1871
6344,1850
6345,1859
6346,1840
6347,1853
6348,1872
6349,1813
6350,1860
6351,1854
6352,1857
6353,1858
6354,1866
6355,1854
6356,1841
6357,1871
6358,1838
6359,1856
6360,1846
6361,1851
6362,1859
6363,1875
6364,1908
6365,1837
6366,1887
6367,1887
6368,1850
6369,1865
6370,1869
6371,1861
6372,1873
6373,1905
6374,1855
6375,1796
6376,1843
6377,1855
6378,1867
6379,1857
6380,1861
6381,1890
6382,1866
6383,1851
6384,1920
6385,1872
6386,1853
6387,1869
6388,1822
6389,1853
6390,1887
6391,1850
6392,1853
6393,1856
6394,1856
6395,1869
6396,1891
6397,1843
6398,1867
6399,1873
6400,1817
6401,1875
6402,1861
6403,1871
6404,1858
6405,1818
6406,1903
6407,1873
6408,1840
6409,1862
6410,1862
6411,1858
6412,1867
6413,1857
6414,1856
6415,1851
6416,1850
6417,1813
6418,1872
6419,1845
6420,1850
6421,1845
6422,1856
6423,1863
6424,1872
6425,1883
6426,1865
6427,1852
6428,1863
6429,1856
6430,1892
6431,1840
6432,1869
6433,1871
6434,1861
6435,1865
6436,1856
6437,1872
6438,1887
6439,1872
6440,1903
6441,1882
6442,1867
6443,1859
6444,1868
6445,1860
6446,1838
6447,1871
6448,1834
6449,1853
6450,1862
6451,1855
6452,1847
6453,1862
6454,1847
6455,1799
6456,1855
6457,1831
6458,1846
6459,1854
6460,1861
6461,1861
6462,1854
6463,1871
6464,1858
6465,1835
6466,1865
6467,1834
6468,1873
6469,1867
6470,1852
6471,1853
6472,1871
6473,1863
6474,1863
6475,1855
6476,1898
6477,1862
6478,1856
6479,1858
6480,1842
6481,1867
6482,1841
6483,1859
6484,1863
6485,1850
6486,1856
6487,1867
6488,1878
6489,1871
6490,1856
6491,1885
6492,1867
6493,1858
6494,1862
6495,1862
6496,1859
6497,1881
6498,1867
6499,1868
6500,1847
6501,1872
6502,1869
6503,1866
6504,1855
6505,1907
6506,1857
6507,1882
6508,1873
6509,1872
6510,1856
6511,1858
6512,1863
6513,1879
6514,1867
6515,1857
6516,1825
6517,1866
6518,1847
6519,1858
6520,1866
6521,1870
6522,1872
6523,1853
6524,1849
6525,1830
6526,1854
6527,1857
6528,1871
6529,1867
6530,1888
6531,1831
6532,1849
6533,1885
6534,1876
6535,1856
6536,1868
6537,1861
6538,1856
6539,1834
6540,1872
6541,1860
6542,1855
6543,1853
6544,1856
6545,1854
6546,1841
6547,1851
6548,1872
6549,1840
6550,1873
6551,1855
6552,1861
6553,1859
6554,1859
6555,1855
6556,1857
6557,1849
6558,1856
6559,1874
6560,1861
6561,1860
6562,1855
6563,1840
6564,1862
6565,1887
6566,1855
6567,1812
6568,1856
6569,1872
6570,1862
6571,1862
6572,1887
6573,1882
6574,1875
6575,1876
6576,1872
6577,1862
6578,1863
6579,1865
6580,1846
6581,1857
6582,1872
6583,1861
6584,1810
6585,1863
6586,1859
6587,1869
6588,1883
6589,1855
6590,1851
6591,1842
6592,1850
6593,1863
6594,1869
6595,1869
6596,1869
6597,1875
6598,1857
6599,1867
6600,1862
6601,1879
6602,1861
6603,1859
6604,1845
6605,1867
6606,1872
6607,1865
6608,1843
6609,1883
6610,1853
6611,1856
6612,1849
6613,1856
6614,1856
6615,1872
6616,1866
6617,1841
6618,1840
6619,1858
6620,1857
6621,1856
6622,1833
6623,1835
6624,1857
6625,1858
6626,1855
6627,1849
6628,1840
6629,1854
6630,1837
6631,1917
6632,1872
6633,1838
6634,1844
6635,1840
6636,1854
6637,1857
6638,1899
6639,1871
6640,1856
6641,1885
6642,1827
6643,1859
6644,1857
6645,1854
6646,1894
6647,1808
6648,1856
6649,1872
6650,1852
6651,1856
6652,1869
6653,1863
6654,1858
6655,1889
6656,1867
6657,1893
6658,1853
6659,1841
6660,1846
6661,1861
6662,1851
6663,1895
6664,1857
6665,1821
6666,1878
6667,1875
6668,1851
6669,1870
6670,1846
6671,1860
6672,1870
6673,1846
6674,1888
6675,1849
6676,1854
6677,1863
6678,1874
6679,1870
6680,1878
6681,1863
6682,1870
6683,1858
6684,1878
6685,1852
6686,1867
6687,1865
6688,1847
6689,1868
6690,1855
6691,1794
6692,1845
6693,1862
6694,1875
6695,1851
6696,1885
6697,1886
6698,1865
6699,1872
6700,1868
6701,1853
6702,1861
6703,1863
6704,1851
6705,1857
6706,1852
6707,1808
6708,1865
6709,1855
6710,1866
6711,1861
6712,1862
6713,1847
6714,1913
6715,1854
6716,1883
6717,1856
6718,1854
6719,1846
6720,1840
6721,1859
6722,1856
6723,1871
6724,1872
6725,1799
6726,1857
6727,1856
6728,1852
6729,1849
6730,1837
6731,1870
6732,1872
6733,1849
6734,1839
6735,1853
6736,1863
6737,1870
6738,1835
6739,1903
6740,1842
6741,1862
6742,1843
6743,1868
6744,1859
6745,1855
6746,1823
6747,1854
6748,1825
6749,1847
6750,1856
6751,1904
6752,1853
6753,1845
6754,1850
6755,1867
6756,1875
6757,1856
6758,1840
6759,1859
6760,1855
6761,1869
6762,1865
6763,1872
6764,1872
6765,1842
6766,1861
6767,1869
6768,1872
6769,1865
6770,1867
6771,1861
6772,1872
6773,1845
6774,1855
6775,1857
6776,1860
6777,1845
6778,1849
6779,1857
6780,1852
6781,1884
6782,1856
6783,1855
6784,1872
6785,1856
6786,1857
6787,1862
6788,1878
6789,1867
6790,1840
6791,1871
6792,1841
6793,1856
6794,1872
6795,1854
6796,1831
6797,1857
6798,1861
6799,1872
6800,1904
6801,1845
6802,1862
6803,1867
6804,1853
6805,1842
6806,1859
6807,1840
6808,1872
6809,1857
6810,1856
6811,1865
6812,1850
6813,1840
6814,1894
6815,1855
6816,1838
6817,1831
6818,1862
6819,1863
6820,1840
6821,1855
6822,1881
6823,1872
6824,1865
6825,1857
6826,1869
6827,1863
6828,1865
6829,1869
6830,1863
6831,1841
6832,1856
6833,1870
6834,1858
6835,1863
6836,1866
6837,1859
6838,1872
6839,1888
6840,1868
6841,1795
6842,1827
6843,1853
6844,1851
6845,1854
6846,1845
6847,1856
6848,1872
6849,1853
6850,1851
6851,1901
6852,1853
6853,1849
6854,1867
6855,1877
6856,1856
6857,1807
6858,1874
6859,1858
6860,1872
6861,1858
6862,1866
6863,1851
6864,1872
6865,1849
6866,1862
6867,1867
6868,1853
6869,1855
6870,1856
6871,1862
6872,1858
6873,1853
6874,1870
6875,1857
6876,1876
6877,1872
6878,1871
6879,1860
6880,1847
6881,1846
6882,1855
6883,1843
6884,1869
6885,1869
6886,1862
6887,1855
6888,1824
6889,1867
6890,1857
6891,1850
6892,1903
6893,1859
6894,1854
6895,1862
6896,1843
6897,1851
6898,1872
6899,1851
6900,1898
6901,1883
6902,1868
6903,1858
6904,1859
6905,1888
6906,1855
6907,1887
6908,1812
6909,1872
6910,1858
6911,1862
6912,1862
6913,1882
6914,1862
6915,1842
6916,1840
6917,1842
6918,1847
6919,1857
6920,1851
6921,1864
6922,1866
6923,1859
6924,1904
6925,1845
6926,1872
6927,1859
6928,1850
6929,1874
6930,1856
6931,1881
6932,1904
6933,1808
6934,1849
6935,1856
6936,1866
6937,1859
6938,1811
6939,1866
6940,1853
6941,1860
6942,1856
6943,1873
6944,1871
6945,1858
6946,1839
6947,1871
6948,1871
6949,1872
6950,1839
6951,1835
6952,1863
6953,1858
6954,1863
6955,1858
6956,1864
6957,1871
6958,1872
6959,1851
6960,1858
6961,1847
6962,1861
6963,1859
6964,1873
6965,1887
6966,1860
6967,1840
6968,1870
6969,1865
6970,1859
6971,1881
6972,1851
6973,1866
6974,1846
6975,1831
6976,1869
6977,1870
6978,1872
6979,1857
6980,1834
6981,1857
6982,1873
6983,1862
6984,1921
6985,1870
6986,1866
6987,1856
6988,1873
6989,1887
6990,1856
6991,1797
6992,1867
6993,1843
6994,1870
6995,1856
6996,1873
6997,1851
6998,1906
6999,1871
7000,1887
7001,1858
7002,1857
7003,1856
7004,1865
7005,1870
7006,1856
7007,1842
7008,1862
7009,1856
7010,1855
7011,1871
7012,1863
7013,1849
7014,1893
7015,1862
7016,1873
7017,1830
7018,1856
7019,1853
7020,1849
7021,1862
7022,1825
7023,1855
7024,1859
7025,1858
7026,1850
7027,1854
7028,1867
7029,1850
7030,1851
7031,1871
7032,1875
7033,1868
7034,1862
7035,1858
7036,1866
7037,1845
7038,1873
7039,1890
7040,1866
7041,1843
7042,1841
7043,1867
7044,1867
7045,1867
7046,1872
7047,1883
7048,1908
7049,1854
7050,1840
7051,1888
7052,1856
7053,1847
7054,1861
7055,1861
7056,1849
7057,1873
7058,1889
7059,1851
7060,1863
7061,1859
7062,1851
7063,1861
7064,1887
7065,1851
7066,1835
7067,1857
7068,1840
7069,1859
7070,1856
7071,1875
7072,1842
7073,1904
7074,1893
7075,1875
7076,1883
7077,1843
7078,1872
7079,1859
7080,1861
7081,1840
7082,1875
7083,1859
7084,1826
7085,1859
7086,1872
7087,1851
7088,1878
7089,1839
7090,1863
7091,1885
7092,1883
7093,1862
7094,1865
7095,1866
7096,1881
7097,1858
7098,1840
7099,1879
7100,1851
7101,1855
7102,1856
7103,1862
7104,1871
7105,1883
7106,1893
7107,1855
7108,1865
7109,1889
7110,1845
7111,1843
7112,1862
7113,1871
7114,1838
7115,1874
7116,1847
7117,1801
7118,1855
7119,1856
7120,1851
7121,1872
7122,1852
7123,1843
7124,1859
7125,1830
7126,1884
7127,1868
7128,1862
7129,1847
7130,1869
7131,1842
7132,1882
7133,1872
7134,1855
7135,1861
7136,1850
7137,1854
7138,1905
7139,1847
7140,1856
7141,1842
7142,1856
7143,1865
7144,1856
7145,1855
7146,1851
7147,1853
7148,1875
7149,1861
7150,1861
7151,1855
7152,1865
7153,1858
7154,1853
7155,1868
7156,1857
7157,1859
7158,1855
7159,1853
7160,1868
7161,1851
7162,1851
7163,1908
7164,1840
7165,1905
7166,1845
7167,1894
7168,1857
7169,1866
7170,1842
7171,1913
7172,1867
7173,1839
7174,1862
7175,1861
7176,1872
7177,1863
7178,1866
7179,1853
7180,1856
7181,1859
7182,1858
7183,1856
7184,1870
7185,1856
7186,1856
7187,1862
7188,1875
7189,1890
7190,1887
7191,1862
7192,1866
7193,1866
7194,1847
7195,1868
7196,1872
7197,1893
7198,1891
7199,1856
7200,1851
7201,1859
7202,1866
7203,1863
7204,1871
7205,1859
7206,1856
7207,1834
7208,1911
7209,1866
7210,1858
7211,1872
7212,1855
7213,1907
7214,1847
7215,1865
7216,1810
7217,1872
7218,1847
7219,1850
7220,1861
7221,1874
7222,1851
7223,1826
7224,1845
7225,1872
7226,1870
7227,1851
7228,1859
7229,1875
7230,1874
7231,1859
7232,1837
7233,1862
7234,1898
7235,1860
7236,1847
7237,1847
7238,1837
7239,1829
7240,1811
7241,1861
7242,1879
7243,1872
7244,1866
7245,1845
7246,1845
7247,1847
7248,1870
7249,1871
7250,1889
7251,1850
7252,1861
7253,1867
7254,1858
7255,1879
7256,1844
7257,1958
7258,1874
7259,1826
7260,1822
7261,1817
7262,1854
7263,1909
7264,1859
7265,1851
7266,1886
7267,1891
7268,1851
7269,1845
7270,1856
7271,1822
7272,1824
7273,1822
7274,1856
7275,1824
7276,1866
7277,1858
7278,1861
7279,1846
7280,1860
7281,1903
7282,1872
7283,1894
7284,1857
7285,1845
7286,1856
7287,1869
7288,2032
7289,1832
7290,1805
7291,1776
7292,1936
7293,2083
7294,1987
7295,1856
7296,1823
7297,1831
7298,1805
7299,1773
7300,1782
7301,1787
7302,1839
7303,1842
7304,1815
7305,1815
7306,1783
7307,1819
7308,1870
7309,1875
7310,1840
7311,1861
7312,1840
7313,1893
7314,1878
7315,1877
7316,1852
7317,1868
7318,1856
7319,2076
7320,1820
7321,1862
7322,1840
7323,1825
7324,1853
7325,1855
7326,1926
7327,1917
7328,1839
7329,1835
7330,1844
7331,1829
7332,1830
7333,1833
7334,1851
7335,1847
7336,1851
7337,1854
7338,1867
7339,1822
7340,1866
7341,1840
7342,1859
7343,1857
7344,1859
7345,1869
7346,1874
7347,1887
7348,1852
7349,1883
7350,2358
7351,1837
7352,1825
7353,1818
7354,1902
7355,2083
7356,1890
7357,1943
7358,1840
7359,1797
7360,1797
7361,1794
7362,1795
7363,1847
7364,1797
7365,1818
7366,1872
7367,1819
7368,1846
7369,1858
7370,1857
7371,1873
7372,1840
7373,1858
7374,1900
7375,1871
7376,1837
7377,1858
7378,1840
7379,1867
7380,1866
7381,2498
7382,1875
7383,1829
7384,1805
7385,1818
7386,1837
7387,1841
7388,1853
7389,1882
7390,1851
7391,1858
7392,1859
7393,1826
7394,1866
7395,1849
7396,1904
7397,1835
7398,1898
7399,1853
7400,1856
7401,1868
7402,1861
7403,1856
7404,1867
7405,1856
7406,1845
7407,1825
7408,1847
7409,1859
7410,1872
7411,1840
7412,2103
7413,1855
7414,1795
7415,1843
7416,1819
7417,1862
7418,1851
7419,1843
7420,1893
7421,1840
7422,1791
7423,1840
7424,1846
7425,1813
7426,1866
7427,1841
7428,1855
7429,1855
7430,1856
7431,1861
7432,1887
7433,1911
7434,1871
7435,1859
7436,1859
7437,1852
7438,1853
7439,1853
7440,1866
7441,1872
7442,1854
7443,1852
7444,1878
7445,1821
7446,1842
7447,1886
7448,1918
7449,1854
7450,1927
7451,1958
7452,1806
7453,1817
7454,1818
7455,1808
7456,1838
7457,1839
7458,1809
7459,1855
7460,1839
7461,1847
7462,1863
7463,1853
7464,1826
7465,1842
7466,1840
7467,1854
7468,1856
7469,1854
7470,1853
7471,1838
7472,1840
7473,1846
7474,1895
7475,1918
7476,1797
7477,1826
7478,1823
7479,1965
7480,1850
7481,1897
7482,1972
7483,1808
7484,1793
7485,1830
7486,1828
7487,1822
7488,1813
7489,1843
7490,1850
7491,1850
7492,1840
7493,1840
7494,1863
7495,1843
7496,1901
7497,1853
7498,1892
7499,1872
7500,1872
7501,1838
7502,1855
7503,1856
7504,1863
7505,1850
7506,2032
7507,1823
7508,1845
7509,1858
7510,2055
7511,1803
7512,1807
7513,2069
7514,1796
7515,1824
7516,1837
7517,1809
7518,1821
7519,1829
7520,1825
7521,1840
7522,1837
7523,1840
7524,1866
7525,1831
7526,1857
7527,1852
7528,1845
7529,1846
7530,1886
7531,1861
7532,1822
7533,1828
7534,1840
7535,1840
7536,1856
7537,2058
7538,1838
7539,1821
7540,1836
7541,2033
7542,1879
7543,1874
7544,2096
7545,1797
7546,1758
7547,1778
7548,1789
7549,1807
7550,1810
7551,1840
7552,1837
7553,1841
7554,1850
7555,1854
7556,1855
7557,1850
7558,1866
7559,1872
7560,1844
7561,1840
7562,1850
7563,1803
7564,1840
7565,1836
7566,1911
7567,1856
7568,2189
7569,1826
7570,1815
7571,1839
7572,2269
7573,1790
7574,1808
7575,2097
7576,1811
7577,1763
7578,1777
7579,1823
7580,1791
7581,1831
7582,1811
7583,1858
7584,1811
7585,1841
7586,1842
7587,1841
7588,1845
7589,1879
7590,1845
7591,1870
7592,1814
7593,1854
7594,1856
7595,1846
7596,1882
7597,1889
7598,1882
7599,2551
7600,1850
7601,1835
7602,1822
7603,2134
7604,1869
7605,1812
7606,2179
7607,1817
7608,1777
7609,1803
7610,1794
7611,1798
7612,1820
7613,1847
7614,1808
7615,1770
7616,1808
7617,1845
7618,1842
7619,1842
7620,1841
7621,1846
7622,1866
7623,1852
7624,1855
7625,1834
7626,1867
7627,1857
7628,1863
7629,1839
7630,2122
7631,1841
7632,1818
7633,1809
7634,2101
7635,1890
7636,1801
7637,2064
7638,1845
7639,1808
7640,1811
7641,1824
7642,1811
7643,1815
7644,1824
7645,1835
7646,1855
7647,1839
7648,1846
7649,1860
7650,1862
7651,1851
7652,1840
7653,1842
7654,1846
7655,1810
7656,1882
7657,1873
7658,1851
7659,1892
7660,1865
7661,1901
7662,1888
7663,1840
7664,1882
7665,1872
7666,1872
7667,1814
7668,2070
7669,1872
7670,1794
7671,1746
7672,1808
7673,1861
7674,1850
7675,1843
7676,1829
7677,1831
7678,1833
7679,1788
7680,1857
7681,1821
7682,1849
7683,1862
7684,1846
7685,1861
7686,1855
7687,1866
7688,1905
7689,1839
7690,1856
7691,1856
7692,1844
7693,1923
7694,1837
7695,1837
7696,1967
7697,1983
7698,1840
7699,2011
7700,1903
7701,1792
7702,1781
7703,1792
7704,1791
7705,1831
7706,1830
7707,1819
7708,1867
7709,1807
7710,1847
7711,1840
7712,1843
7713,1845
7714,1863
7715,1845
7716,1871
7717,1877
7718,1865
7719,1872
7720,1856
7721,1872
7722,1842
7723,1842
7724,2001
7725,1762
7726,1840
7727,1843
7728,1904
7729,1872
7730,1872
7731,1968
7732,1813
7733,1825
7734,1839
7735,1840
7736,1838
7737,1827
7738,1811
7739,1865
7740,1852
7741,1863
7742,1871
7743,1835
7744,1866
7745,1837
7746,1847
7747,1856
7748,1840
7749,1847
7750,1862
7751,1856
7752,1861
7753,1843
7754,1872
7755,2090
7756,1814
7757,1823
7758,1812
7759,2018
7760,1816
7761,1840
7762,2029
7763,1826
7764,1803
7765,1840
7766,1869
7767,1826
7768,1827
7769,1829
7770,1840
7771,1852
7772,1832
7773,1849
7774,1803
7775,1856
7776,1862
7777,1872
7778,1859
7779,1856
7780,1888
7781,1855
7782,1849
7783,1851
7784,1873
7785,1876
7786,2192
7787,1840
7788,1833
7789,1845
7790,1941
7791,1829
7792,1855
7793,2085
7794,1827
7795,1815
7796,1775
7797,1858
7798,1814
7799,1851
7800,1851
7801,1856
7802,1829
7803,1847
7804,1834
7805,1875
7806,1838
7807,1837
7808,1869
7809,1855
7810,1856
7811,1844
7812,1847
7813,1846
7814,1904
7815,1871
7816,1861
7817,2319
7818,1850
7819,1811
7820,1830
7821,2034
7822,1819
7823,1823
7824,2097
7825,1829
7826,1807
7827,1818
7828,1802
7829,1797
7830,1801
7831,1802
7832,1829
7833,1789
7834,1838
7835,1849
7836,1841
7837,1840
7838,1885
7839,1811
7840,1871
7841,1874
7842,1842
7843,1854
7844,1856
7845,1851
7846,1869
7847,1865
7848,2337
7849,1862
7850,1819
7851,1826
7852,1840
7853,1835
7854,1843
7855,2061
7856,1854
7857,1801
7858,1783
7859,1838
7860,1835
7861,1836
7862,1852
7863,1773
7864,1872
7865,1813
7866,1826
7867,1844
7868,1861
7869,1840
7870,1856
7871,1850
7872,1893
7873,1842
7874,1856
7875,1871
7876,1849
7877,1847
7878,1859
7879,1898
7880,1834
7881,1863
7882,1843
7883,1842
7884,1858
7885,1867
7886,1855
7887,1869
7888,1872
7889,1843
7890,1871
7891,1910
7892,1840
7893,1840
7894,1877
7895,1850
7896,1789
7897,1856
7898,1872
7899,1856
7900,1881
7901,1842
7902,1870
7903,1853
7904,1827
7905,1868
7906,1872
7907,1876
7908,1855
7909,1899
7910,1872
7911,1872
7912,1872
7913,1862
7914,1855
7915,1875
7916,1842
7917,1837
7918,1862
7919,1866
7920,1857
7921,1830
7922,1875
7923,1879
7924,1863
7925,1838
7926,1887
7927,1841
7928,1846
7929,1875
7930,1893
7931,1920
7932,1808
7933,1855
7934,1870
7935,1861
7936,1872
7937,1849
7938,1899
7939,1867
7940,1856
7941,1872
7942,1863
7943,1858
7944,1871
7945,1849
7946,1884
7947,1865
7948,1850
7949,1904
7950,1872
7951,1872
7952,1856
7953,1851
7954,1871
7955,1855
7956,1856
7957,1861
7958,1879
7959,1882
7960,1872
7961,1850
7962,1857
7963,1872
7964,1834
7965,1873
7966,1873
7967,1882
7968,1865
7969,1852
7970,1856
7971,1840
7972,1843
7973,1872
7974,1856
7975,1866
7976,1889
7977,1849
7978,1870
7979,1891
7980,1841
7981,1801
7982,1869
7983,1872
7984,1860
7985,1847
7986,1859
7987,1861
7988,1877
7989,1879
7990,1862
7991,1895
7992,1915
7993,1865
7994,1863
7995,1871
7996,1885
7997,1871
7998,1901
7999,1878
8000,1859
8001,1872
8002,1847
8003,1865
8004,1851
8005,1866
8006,1881
8007,1872
8008,1858
8009,1899
8010,1855
8011,1853
8012,1870
8013,1830
8014,1854
8015,1871
8016,1829
8017,1853
8018,1859
8019,1867
8020,1847
8021,1869
8022,1853
8023,1853
8024,1840
8025,1861
8026,1858
8027,1857
8028,1862
8029,1841
8030,1880
8031,1915
8032,1857
8033,1861
8034,1856
8035,1851
8036,1861
8037,1871
8038,1874
8039,1886
8040,1875
8041,1830
8042,1881
8043,1861
8044,1866
8045,1862
8046,1862
8047,1865
8048,1857
8049,1860
8050,1872
8051,1841
8052,1863
8053,1871
8054,1872
8055,1850
8056,1814
8057,1878
8058,1895
8059,1863
8060,1865
8061,1870
8062,1861
8063,1855
8064,1839
8065,1872
8066,1909
8067,1855
8068,1872
8069,1867
8070,1850
8071,1852
8072,1859
8073,1894
8074,1819
8075,1844
8076,1841
8077,1872
8078,1851
8079,1843
8080,1884
8081,1846
8082,1845
8083,1853
8084,1845
8085,1856
8086,1869
8087,1862
8088,1872
8089,1856
8090,1845
8091,1888
8092,1868
8093,1857
8094,1869
8095,1867
8096,1875
8097,1904
8098,1833
8099,1851
8100,1866
8101,1871
8102,1867
8103,1867
8104,1860
8105,1916
8106,1855
8107,1853
8108,1873
8109,1861
8110,1871
8111,1871
8112,1861
8113,1814
8114,1835
8115,1879
8116,1862
8117,1824
8118,1871
8119,1868
8120,1859
8121,1843
8122,1859
8123,1873
8124,1875
8125,1834
8126,1863
8127,1854
8128,1872
8129,1889
8130,1884
8131,1840
8132,1837
8133,1854
8134,1845
8135,1842
8136,1855
8137,1856
8138,1881
8139,1872
8140,1854
8141,1847
8142,1858
8143,1871
8144,1865
8145,1853
8146,1859
8147,1835
8148,1868
8149,1854
8150,1915
8151,1858
8152,1867
8153,1858
8154,1874
8155,1850
8156,1858
8157,1899
8158,1861
8159,1841
8160,1845
8161,1872
8162,1861
8163,1907
8164,1855
8165,1863
8166,1873
8167,1862
8168,1862
8169,1873
8170,1856
8171,1875
8172,1875
8173,1881
8174,1872
8175,1846
8176,1868
8177,1872
8178,1847
8179,1819
8180,1857
8181,1875
8182,1834
8183,1874
8184,1847
8185,1869
8186,1858
8187,1872
8188,1871
8189,1875
8190,1869
8191,1855
8192,1858
8193,1861
8194,1871
8195,1861
8196,1841
8197,1840
8198,1804
8199,1872
8200,1872
8201,1862
8202,1872
8203,1852
8204,1862
8205,1861
8206,1840
8207,1894
8208,1862
8209,1840
8210,1844
8211,1859
8212,1846
8213,1867
8214,1857
8215,1890
8216,1838
8217,1894
8218,1850
8219,1865
8220,1856
8221,1857
8222,1872
8223,1845
8224,1855
8225,1858
8226,1847
8227,1875
8228,1863
8229,1874
8230,1872
8231,1854
8232,1846
8233,1859
8234,1847
8235,1872
8236,1861
8237,1858
8238,1856
8239,1879
8240,1872
8241,1878
8242,1852
8243,1859
8244,1872
8245,1854
8246,1875
8247,1842
8248,1849
8249,1845
8250,1834
8251,1843
8252,1850
8253,1856
8254,1863
8255,1872
8256,1845
8257,1855
8258,1850
8259,1872
8260,1870
8261,1872
8262,1867
8263,1870
8264,1878
8265,1851
8266,1863
8267,1903
8268,1865
8269,1872
8270,1862
8271,1854
8272,1855
8273,1867
8274,1847
8275,1873
8276,1847
8277,1860
8278,1872
8279,1862
8280,1856
8281,1849
8282,1879
8283,1846
8284,1853
8285,1872
8286,1856
8287,1872
8288,1868
8289,1840
8290,1886
8291,1845
8292,1879
8293,1857
8294,1862
8295,1862
8296,1872
8297,1867
8298,1842
8299,1904
8300,1872
8301,1872
8302,1871
8303,1869
8304,1839
8305,1882
8306,1804
8307,1872
8308,1868
8309,1861
8310,1854
8311,1845
8312,1870
8313,1871
8314,1859
8315,1856
8316,1858
8317,1863
8318,1858
8319,1871
8320,1854
8321,1870
8322,1857
8323,1880
8324,1863
8325,1826
8326,1847
8327,1850
8328,1860
8329,1892
8330,1808
8331,1850
8332,1872
8333,1855
8334,1843
8335,1874
8336,1869
8337,1850
8338,1840
8339,1891
8340,1910
8341,1869
8342,1844
8343,1862
8344,1846
8345,1870
8346,1854
8347,1854
8348,1867
8349,1874
8350,1842
8351,1843
8352,1862
8353,1866
8354,1863
8355,1856
8356,1850
8357,1833
8358,1854
8359,1847
8360,1862
8361,1858
8362,1872
8363,1850
8364,1803
8365,1860
8366,1870
8367,1823
8368,1866
8369,1846
8370,1869
8371,1856
8372,1851
8373,1875
8374,1857
8375,1854
8376,1855
8377,1863
8378,1855
8379,1839
8380,1887
8381,1871
8382,1889
8383,1841
8384,1869
8385,1855
8386,1871
8387,1872
8388,1856
8389,1858
8390,1871
8391,1901
8392,1875
8393,1867
8394,1872
8395,1872
8396,1879
8397,1817
8398,1825
8399,1853
8400,1839
8401,1856
8402,1855
8403,1872
8404,1872
8405,1826
8406,1866
8407,1896
8408,1819
8409,1873
8410,1870
8411,1861
8412,1895
8413,1856
8414,1900
8415,1893
8416,1871
8417,1799
8418,1863
8419,1870
8420,1857
8421,1870
8422,1840
8423,1865
8424,1856
8425,1854
8426,1866
8427,1847
8428,1856
8429,1859
8430,1830
8431,1838
8432,1830
8433,1884
8434,1872
8435,1857
8436,1850
8437,1841
8438,1859
8439,1843
8440,1865
8441,1868
8442,1837
8443,1876
8444,1869
8445,1855
8446,1855
8447,1882
8448,1905
8449,1840
8450,1871
8451,1876
8452,1851
8453,1857
8454,1847
8455,1827
8456,1837
8457,1841
8458,1878
8459,1856
8460,1841
8461,1840
8462,1858
8463,1855
8464,1874
8465,1887
8466,1872
8467,1871
8468,1872
8469,1870
8470,1851
8471,1843
8472,1839
8473,1836
8474,1879
8475,1877
8476,1866
8477,1867
8478,1873
8479,1865
8480,1862
8481,1884
8482,1839
8483,1857
8484,1876
8485,1870
8486,1857
8487,1866
8488,1860
8489,1886
8490,1850
8491,1872
8492,1831
8493,1868
8494,1872
8495,1853
8496,1904
8497,1882
8498,1851
8499,1870
8500,1857
8501,1862
8502,1865
8503,1863
8504,1850
8505,1893
8506,1840
8507,1854
8508,1835
8509,1843
8510,1850
8511,1861
8512,1803
8513,1866
8514,1833
8515,1879
8516,1866
8517,1855
8518,1872
8519,1866
8520,1855
8521,1870
8522,1881
8523,1856
8524,1839
8525,1872
8526,1840
8527,1853
8528,1851
8529,1842
8530,1869
8531,1892
8532,1895
8533,1828
8534,1852
8535,1872
8536,1875
8537,1859
8538,1856
8539,1845
8540,1847
8541,1893
8542,1903
8543,1857
8544,1862
8545,1857
8546,1861
8547,1840
8548,1854
8549,1888
8550,1851
8551,1861
8552,1849
8553,1856
8554,1840
8555,1884
8556,1872
8557,1837
8558,1855
8559,1840
8560,1850
8561,1870
8562,1842
8563,1869
8564,1840
8565,1873
8566,1886
8567,1827
8568,1872
8569,1861
8570,1859
8571,1846
8572,1900
8573,1906
8574,1858
8575,1867
8576,1871
8577,1863
8578,1857
8579,1874
8580,1840
8581,1867
8582,1863
8583,1856
8584,1835
8585,1859
8586,1865
8587,1865
8588,1851
8589,1840
8590,1845
8591,1840
8592,1884
8593,1847
8594,1878
8595,1859
8596,1852
8597,1840
8598,1876
8599,1888
8600,1879
8601,1868
8602,1854
8603,1857
8604,1867
8605,1841
8606,1844
8607,1891
8608,1900
8609,1841
8610,1855
8611,1856
8612,1846
8613,1841
8614,1906
8615,1841
8616,1897
8617,1897
8618,1871
8619,1871
8620,1875
8621,1856
8622,1872
8623,1839
8624,1856
8625,1907
8626,1869
8627,1847
8628,1867
8629,1865
8630,1840
8631,1884
8632,1837
8633,1847
8634,1851
8635,1856
8636,1872
8637,1871
8638,1838
8639,1862
8640,1883
8641,1853
8642,1898
8643,1853
8644,1865
8645,1843
8646,1856
8647,1872
8648,1856
8649,1853
8650,1858
8651,1847
8652,1872
8653,1872
8654,1845
8655,1872
8656,1822
8657,1907
8658,1834
8659,1846
8660,1870
8661,1856
8662,1859
8663,1862
8664,1882
8665,1863
8666,1832
8667,1847
8668,1858
8669,1855
8670,1851
8671,1876
8672,1866
8673,1862
8674,1861
8675,1804
8676,1864
8677,1862
8678,1872
8679,1857
8680,1858
8681,1845
8682,1874
8683,1825
8684,1877
8685,1862
8686,1860
8687,1875
8688,1867
8689,1841
8690,1862
8691,1884
8692,1853
8693,1861
8694,1843
8695,1866
8696,1855
8697,1901
8698,1857
8699,1854
8700,1872
8701,1859
8702,1863
8703,1859
8704,1867
8705,1859
8706,1872
8707,1878
8708,1866
8709,1872
8710,1849
8711,1872
8712,1831
8713,1856
8714,1857
8715,1866
8716,1860
8717,1862
8718,1866
8719,1840
8720,1842
8721,1910
8722,1857
8723,1875
8724,1865
8725,1875
8726,1853
8727,1867
8728,1870
8729,1840
8730,1885
8731,1877
8732,1865
8733,1878
8734,1862
8735,1857
8736,1861
8737,1857
8738,1853
8739,1815
8740,1856
8741,1845
8742,1855
8743,1851
8744,1873
8745,1872
8746,1815
8747,1903
8748,1858
8749,1847
8750,1914
8751,1857
8752,1872
8753,1858
8754,1867
8755,1863
8756,1872
8757,1855
8758,1871
8759,1859
8760,1869
8761,1853
8762,1873
8763,1911
8764,1869
8765,1845
8766,1846
8767,1853
8768,1862
8769,1870
8770,1872
8771,1886
8772,1866
8773,1872
8774,1817
8775,1842
8776,1874
8777,1842
8778,1872
8779,1872
8780,1895
8781,1881
8782,1909
8783,1830
8784,1859
8785,1873
8786,1866
8787,1856
8788,1854
8789,1873
8790,1858
8791,1839
8792,1904
8793,1862
8794,1860
8795,1845
8796,1829
8797,1909
8798,1872
8799,1867
8800,1862
8801,1854
8802,1854
8803,1856
8804,1856
8805,1873
8806,1854
8807,1872
8808,1856
8809,1846
8810,1871
8811,1847
8812,1843
8813,1870
8814,1903
8815,1876
8816,1866
8817,1857
8818,1877
8819,1866
8820,1854
8821,1839
8822,1881
8823,1871
8824,1875
8825,1872
8826,1870
8827,1875
8828,1851
8829,1868
8830,1847
8831,1862
8832,1844
8833,1872
8834,1862
8835,1847
8836,1854
8837,1866
8838,1846
8839,1859
8840,1856
8841,1858
8842,1883
8843,1853
8844,1873
8845,1866
8846,1897
8847,1917
8848,1852
8849,1902
8850,1861
8851,1844
8852,1860
8853,1868
8854,1793
8855,1856
8856,1840
8857,1842
8858,1847
8859,1862
8860,1867
8861,1850
8862,1827
8863,1874
8864,1840
8865,1839
8866,1855
8867,1874
8868,1862
8869,1865
8870,1859
8871,1824
8872,1840
8873,1863
8874,1857
8875,2170
8876,1845
8877,1827
8878,1819
8879,1871
8880,2171
8881,2080
8882,1901
8883,1777
8884,1794
8885,1775
8886,1788
8887,1782
8888,1775
8889,1808
8890,1806
8891,1805
8892,1821
8893,1842
8894,1851
8895,1843
8896,1853
8897,1852
8898,1853
8899,1897
8900,1899
8901,1870
8902,1853
8903,1866
8904,1845
8905,1861
8906,1840
8907,1867
8908,1761
8909,1811
8910,1834
8911,1885
8912,2091
8913,1959
8914,1860
8915,1898
8916,1802
8917,1774
8918,1808
8919,1809
8920,1791
8921,1757
8922,1872
8923,1781
8924,1808
8925,1854
8926,1831
8927,1837
8928,1850
8929,1863
8930,1853
8931,1872
8932,1904
8933,1862
8934,1862
8935,1869
8936,1857
8937,1859
8938,1937
8939,1824
8940,1847
8941,1807
8942,1808
8943,1811
8944,1825
8945,1871
8946,1875
8947,1811
8948,1827
8949,1829
8950,1824
8951,1856
8952,1841
8953,1841
8954,1849
8955,1850
8956,1904
8957,1839
8958,1871
8959,1862
8960,1863
8961,1853
8962,1861
8963,1867
8964,1825
8965,1875
8966,1883
8967,1865
8968,1865
8969,1998
8970,1843
8971,1839
8972,1831
8973,2067
8974,2047
8975,1904
8976,1905
8977,1770
8978,1767
8979,1765
8980,1831
8981,1819
8982,1823
8983,1817
8984,1819
8985,1846
8986,1858
8987,1843
8988,1845
8989,1845
8990,1882
8991,1847
8992,1885
8993,1870
8994,1853
8995,1855
8996,1856
8997,1814
8998,1840
8999,1855
9000,2145
9001,1808
9002,1819
9003,1836
9004,1905
9005,1911
9006,1852
9007,2022
9008,1783
9009,1799
9010,1828
9011,1811
9012,1853
9013,1821
9014,1834
9015,1825
9016,1851
9017,1811
9018,1838
9019,1854
9020,1856
9021,1847
9022,1858
9023,1866
9024,1808
9025,1875
9026,1838
9027,1846
9028,1866
9029,1840
9030,1853
9031,2176
9032,1810
9033,1786
9034,1808
9035,1840
9036,1879
9037,1794
9038,1982
9039,1840
9040,1811
9041,1840
9042,1811
9043,1839
9044,1843
9045,1840
9046,1873
9047,1870
9048,1837
9049,1903
9050,1849
9051,1855
9052,1856
9053,1863
9054,1866
9055,1857
9056,1866
9057,1896
9058,1898
9059,1869
9060,1872
9061,1866
9062,2438
9063,1824
9064,1843
9065,1831
9066,2018
9067,1923
9068,1823
9069,1947
9070,1823
9071,1825
9072,1839
9073,1823
9074,1831
9075,1883
9076,1838
9077,1831
9078,1840
9079,1853
9080,1827
9081,1878
9082,1889
9083,1823
9084,1843
9085,1871
9086,1862
9087,1855
9088,1836
9089,1831
9090,1872
9091,1811
9092,1858
9093,2480
9094,1861
9095,1808
9096,1817
9097,2038
9098,1934
9099,1803
9100,2014
9101,1823
9102,1781
9103,1785
9104,1852
9105,1791
9106,1827
9107,1821
9108,1840
9109,1853
9110,1856
9111,1848
9112,1846
9113,1842
9114,1855
9115,1863
9116,1840
9117,1849
9118,1851
9119,1852
9120,1853
9121,1877
9122,1804
9123,1868
9124,1854
9125,1881
9126,1810
9127,1815
9128,2073
9129,2023
9130,1808
9131,2034
9132,1808
9133,1777
9134,1796
9135,1776
9136,1797
9137,1855
9138,1808
9139,1819
9140,1849
9141,1820
9142,1827
9143,1824
9144,1836
9145,1856
9146,1873
9147,1855
9148,1865
9149,1879
9150,1888
9151,1849
9152,1850
9153,1853
9154,1823
9155,1870
9156,1894
9157,1834
9158,1872
9159,2064
9160,2035
9161,1793
9162,1893
9163,1833
9164,1761
9165,1717
9166,1814
9167,1795
9168,1814
9169,1821
9170,1818
9171,1838
9172,1782
9173,1874
9174,1877
9175,1876
9176,1860
9177,1858
9178,1855
9179,1817
9180,1819
9181,1862
9182,1827
9183,1863
9184,1852
9185,1863
9186,1858
9187,1971
9188,1781
9189,1831
9190,1840
9191,2122
9192,1833
9193,1949
9194,1947
9195,1744
9196,1753
9197,1788
9198,1802
9199,1835
9200,1839
9201,1840
9202,1825
9203,1840
9204,1841
9205,1883
9206,1859
9207,1853
9208,1894
9209,1837
9210,1843
9211,1859
9212,1899
9213,1874
9214,1871
9215,1855
9216,1815
9217,1869
9218,2038
9219,1833
9220,1840
9221,1862
9222,2140
9223,1810
9224,1863
9225,2066
9226,1751
9227,1764
9228,1795
9229,1775
9230,1782
9231,1773
9232,1815
9233,1817
9234,1840
9235,1840
9236,1851
9237,1843
9238,1852
9239,1861
9240,1865
9241,1840
9242,1843
9243,1837
9244,1847
9245,1842
9246,1858
9247,1879
9248,1869
9249,2154
9250,1824
9251,1829
9252,1830
9253,2217
9254,1835
9255,1846
9256,2132
9257,1787
9258,1786
9259,1792
9260,1782
9261,1784
9262,1843
9263,1793
9264,1798
9265,1833
9266,1830
9267,1817
9268,1838
9269,1840
9270,1838
9271,1817
9272,1825
9273,1857
9274,1831
9275,1840
9276,1862
9277,1867
9278,1857
9279,1872
9280,2294
9281,1823
9282,1808
9283,1815
9284,2141
9285,1860
9286,1817
9287,2160
9288,1787
9289,1786
9290,1773
9291,1811
9292,1797
9293,1814
9294,1834
9295,1849
9296,1839
9297,1854
9298,1834
9299,1846
9300,1883
9301,1846
9302,1861
9303,1850
9304,1855
9305,1843
9306,1855
9307,1801
9308,1840
9309,1859
9310,1857
9311,2594
9312,1856
9313,1835
9314,1811
9315,2117
9316,1881
9317,1856
9318,2122
9319,1780
9320,1765
9321,1728
9322,1809
9323,1808
9324,1794
9325,1848
9326,1838
9327,1821
9328,1840
9329,1815
9330,1817
9331,1866
9332,1869
9333,1857
9334,1830
9335,1856
9336,1864
9337,1842
9338,1840
9339,1904
9340,1842
9341,1840
9342,2064
9343,1862
9344,1815
9345,1808
9346,2157
9347,1854
9348,1806
9349,2070
9350,1793
9351,1774
9352,1776
9353,1782
9354,1776
9355,1808
9356,1795
9357,1826
9358,1855
9359,1843
9360,1840
9361,1841
9362,1843
9363,1845
9364,1782
9365,1856
9366,1867
9367,1850
9368,1866
9369,1867
9370,1868
9371,1841
9372,1855
9373,1872
9374,1950
9375,1820
9376,1827
9377,1962
9378,1937
9379,1770
9380,2111
9381,1891
9382,1764
9383,1774
9384,1789
9385,1808
9386,1795
9387,1793
9388,1825
9389,1826
9390,1808
9391,1888
9392,1853
9393,1846
9394,1863
9395,1840
9396,1904
9397,1861
9398,1865
9399,1823
9400,1882
9401,1873
9402,1871
9403,1856
9404,1873
9405,1937
9406,1847
9407,1840
9408,1968
9409,2003
9410,1840
9411,1968
9412,1861
9413,1776
9414,1782
9415,1744
9416,1831
9417,1835
9418,1834
9419,1830
9420,1839
9421,1822
9422,1826
9423,1870
9424,1856
9425,1827
9426,1836
9427,1849
9428,1863
9429,1851
9430,1870
9431,1872
9432,1825
9433,1863
9434,1867
9435,1840
9436,2025
9437,1812
9438,1791
9439,1827
9440,1953
9441,1830
9442,1966
9443,1975
9444,1815
9445,1816
9446,1828
9447,1856
9448,1840
9449,1808
9450,1845
9451,1851
9452,1825
9453,1846
9454,1819
9455,1867
9456,1904
9457,1835
9458,1856
9459,1871
9460,1856
9461,1869
9462,1872
9463,1879
9464,1879
9465,1856
9466,1867
9467,2112
9468,1835
9469,1814
9470,1817
9471,2151
9472,1851
9473,1903
9474,2000
9475,1781
9476,1782
9477,1814
9478,1792
9479,1805
9480,1855
9481,1806
9482,1824
9483,1839
9484,1839
9485,1838
9486,1840
9487,1852
9488,1830
9489,1840
9490,1857
9491,1852
9492,1856
9493,1859
9494,1866
9495,1889
9496,1838
9497,1886
9498,1854
9499,1831
9500,1904
9501,1870
9502,1857
9503,1871
9504,1874
9505,1851
9506,1890
9507,1829
9508,1845
9509,1870
9510,1857
9511,1851
9512,1857
9513,1872
9514,1854
9515,1872
9516,1825
9517,1831
9518,1851
9519,1862
9520,1840
9521,1870
9522,1840
9523,1847
9524,1873
9525,1867
9526,1873
9527,1859
9528,1845
9529,1874
9530,1868
9531,1860
9532,1822
9533,1867
9534,1867
9535,1871
9536,1860
9537,1870
9538,1854
9539,1851
9540,1831
9541,1857
9542,1871
9543,1855
9544,1862
9545,1899
9546,1847
9547,1872
9548,1835
9549,1849
9550,1838
9551,1856
9552,1856
9553,1873
9554,1869
9555,1859
9556,1835
9557,1901
9558,1845
9559,1856
9560,1882
9561,1877
9562,1856
9563,1857
9564,1872
9565,1886
9566,1876
9567,1845
9568,1851
9569,1870
9570,1865
9571,1851
9572,1850
9573,1859
9574,1862
9575,1870
9576,1871
9577,1863
9578,1873
9579,1889
9580,1864
9581,1853
9582,1825
9583,1858
9584,1872
9585,1857
9586,1866
9587,1852
9588,1915
9589,1837
9590,1830
9591,1843
9592,1863
9593,1851
9594,1870
9595,1834
9596,1834
9597,1856
9598,1869
9599,1849
9600,1850
9601,1845
9602,1859
9603,1857
9604,1873
9605,1853
9606,1847
9607,1850
9608,1867
9609,1872
9610,1878
9611,1861
9612,1890
9613,1854
9614,1851
9615,1849
9616,1837
9617,1870
9618,1861
9619,1867
9620,1859
9621,1841
9622,1841
9623,1890
9624,1905
9625,1882
9626,1858
9627,1847
9628,1842
9629,1873
9630,1858
9631,1854
9632,1873
9633,1892
9634,1866
9635,1856
9636,1865
9637,1867
9638,1850
9639,1858
9640,1920
9641,1859
9642,1846
9643,1872
9644,1856
9645,1835
9646,1872
9647,1843
9648,1898
9649,1847
9650,1858
9651,1851
9652,1859
9653,1864
9654,1870
9655,1840
9656,1806
9657,1842
9658,1870
9659,1857
9660,1840
9661,1851
9662,1847
9663,1867
9664,1838
9665,1859
9666,1860
9667,1871
9668,1873
9669,1847
9670,1863
9671,1811
9672,1850
9673,1862
9674,1853
9675,1847
9676,1851
9677,1878
9678,1872
9679,1840
9680,1839
9681,1907
9682,1894
9683,1844
9684,1878
9685,1853
9686,1869
9687,1888
9688,1840
9689,1838
9690,1840
9691,1856
9692,1872
9693,1868
9694,1854
9695,1838
9696,1841
9697,1859
9698,1869
9699,1828
9700,1855
9701,1871
9702,1863
9703,1862
9704,1817
9705,1831
9706,1844
9707,1863
9708,1851
9709,1847
9710,1858
9711,1868
9712,1828
9713,1842
9714,1877
9715,1877
9716,1875
9717,1872
9718,1865
9719,1865
9720,1843
9721,1854
9722,1854
9723,1879
9724,1855
9725,1868
9726,1867
9727,1840
9728,1866
9729,1840
9730,1888
9731,1839
9732,1882
9733,1886
9734,1862
9735,1865
9736,1863
9737,1851
9738,1875
9739,1866
9740,1872
9741,1853
9742,1843
9743,1860
9744,1863
9745,1866
9746,1839
9747,1872
9748,1840
9749,1875
9750,1870
9751,1871
9752,1868
9753,1847
9754,1867
9755,1872
9756,1834
9757,1809
9758,1862
9759,1859
9760,1843
9761,1872
9762,1840
9763,1838
9764,1868
9765,1878
9766,1863
9767,1841
9768,1863
9769,1857
9770,1870
9771,1897
9772,1851
9773,1854
9774,1869
9775,1872
9776,1869
9777,1870
9778,1871
9779,1844
9780,1873
9781,1866
9782,1869
9783,1847
9784,1860
9785,1851
9786,1866
9787,1840
9788,1868
9789,1840
9790,1836
9791,1869
9792,1827
9793,1847
9794,1871
9795,1825
9796,1822
9797,1840
9798,1861
9799,1840
9800,1917
9801,1871
9802,1863
9803,1872
9804,1868
9805,1850
9806,1901
9807,1893
9808,1866
9809,1870
9810,1856
9811,1866
9812,1824
9813,1857
9814,1840
9815,1831
9816,1878
9817,1852
9818,1863
9819,1863
9820,1861
9821,1870
9822,1863
9823,1863
9824,1855
9825,1857
9826,1859
9827,1851
9828,1849
9829,1904
9830,1847
9831,1860
9832,1878
9833,1872
9834,1878
9835,1851
9836,1867
9837,1863
9838,1847
9839,1869
9840,1831
9841,1866
9842,1845
9843,1854
9844,1840
9845,1853
9846,1867
9847,1887
9848,1844
9849,1868
9850,1853
9851,1856
9852,1867
9853,1876
9854,1868
9855,1866
9856,1856
9857,1859
9858,1866
9859,1867
9860,1849
9861,1872
9862,1837
9863,1922
9864,1853
9865,1862
9866,1840
9867,1867
9868,1869
9869,1856
9870,1799
9871,1808
9872,1862
9873,1855
9874,1855
9875,1867
9876,1854
9877,1861
9878,1849
9879,1909
9880,1814
9881,1893
9882,1866
9883,1857
9884,1853
9885,1872
9886,1859
9887,1883
9888,1858
9889,1869
9890,1894
9891,1874
9892,1850
9893,1861
9894,1872
9895,1843
9896,1857
9897,1865
9898,1847
9899,1864
9900,1861
9901,1872
9902,1859
9903,1857
9904,1870
9905,1877
9906,1873
9907,1901
9908,1859
9909,1859
9910,1857
9911,1873
9912,1857
9913,1874
9914,1904
9915,1830
9916,1855
9917,1866
9918,1863
9919,1858
9920,1887
9921,1851
9922,1904
9923,1893
9924,1858
9925,1837
9926,1861
9927,1855
9928,1867
9929,1912
9930,1805
9931,1857
9932,1881
9933,1869
9934,1859
9935,1861
9936,1845
9937,1866
9938,1872
9939,1872
9940,1859
9941,1904
9942,1875
9943,1872
9944,1871
9945,1859
9946,1859
9947,1871
9948,1885
9949,1872
9950,1863
9951,1867
9952,1871
9953,1871
9954,1879
9955,1872
9956,1859
9957,1881
9958,1872
9959,1858
9960,1840
9961,1859
9962,1872
9963,1820
9964,1859
9965,1841
9966,1822
9967,1846
9968,1871
9969,1872
9970,1805
9971,1847
9972,1871
9973,1875
9974,1855
9975,1872
9976,1871
9977,1854
9978,1861
9979,1918
9980,1854
9981,1841
9982,1863
9983,1880
9984,1855
9985,1866
9986,1853
9987,1863
9988,1853
9989,1855
9990,1838
9991,1876
9992,1872
9993,1857
9994,1846
9995,1856
9996,1872
9997,1910
9998,1869
9999,1897
10000,1840
10001,1861
10002,1861
10003,1862
10004,1870
10005,1893
10006,1879
10007,1849
10008,1840
10009,1866
10010,1871
10011,1872
10012,1889
10013,1869
10014,1851
10015,1867
10016,1857
10017,1867
10018,1847
10019,1847
10020,1841
10021,1812
10022,1869
10023,1879
10024,1841
10025,1850
10026,1861
10027,1846
10028,1856
10029,1833
10030,1868
10031,1872
10032,1862
10033,1840
10034,1841
10035,1867
10036,1842
10037,1823
10038,1861
10039,1911
10040,1827
10041,1870
10042,1872
10043,1862
10044,1849
10045,1854
10046,1885
10047,1857
10048,1847
10049,1801
10050,1862
10051,1868
10052,1856
10053,1843
10054,1852
10055,1870
10056,1840
10057,1873
10058,1856
10059,1859
10060,1861
10061,1857
10062,1902
10063,1854
10064,1843
10065,1856
10066,1865
10067,1859
10068,1853
10069,1853
10070,1910
10071,1847
10072,1851
10073,1805
10074,1873
10075,1861
10076,1860
10077,1841
10078,1858
10079,1863
10080,1906
10081,1791
10082,1862
10083,1808
10084,1860
10085,1871
10086,1863
10087,1840
10088,1876
10089,1860
10090,1801
10091,1858
10092,1879
10093,1887
10094,1872
10095,1840
10096,1879
10097,1858
10098,1856
10099,1840
10100,1864
10101,1871
10102,1840
10103,1866
10104,1857
10105,1859
10106,1906
10107,1872
10108,1876
10109,1841
10110,1835
10111,1855
10112,1840
10113,1872
10114,1853
10115,1840
10116,1871
10117,1867
10118,1868
10119,1862
10120,1878
10121,1888
10122,1843
10123,1852
10124,1883
10125,1856
10126,1863
10127,1846
10128,1867
10129,1835
10130,1840
10131,1870
10132,1855
10133,1867
10134,1847
10135,1874
10136,1871
10137,1855
10138,1841
10139,1873
10140,1855
10141,1893
10142,1847
10143,1851
10144,1837
10145,1895
10146,1841
10147,1851
10148,1876
10149,1823
10150,1862
10151,1855
10152,1867
10153,1869
10154,1847
10155,1915
10156,1895
10157,1847
10158,1838
10159,1859
10160,1851
10161,1852
10162,1866
10163,1827
10164,1856
10165,1867
10166,1903
10167,1856
10168,1863
10169,1861
10170,1837
10171,1894
10172,1846
10173,1825
10174,1867
10175,1866
10176,1863
10177,1873
10178,1843
10179,1898
10180,1857
10181,1883
10182,1873
10183,1851
10184,1846
10185,1855
10186,1852
10187,1843
10188,1909
10189,1847
10190,1889
10191,1820
10192,1862
10193,1863
10194,1871
10195,1840
10196,1870
10197,1808
10198,1908
10199,1872
10200,1858
10201,1845
10202,1869
10203,1856
10204,1872
10205,1894
10206,1866
10207,1872
10208,1861
10209,1879
10210,1870
10211,1840
10212,1881
10213,1853
10214,1857
10215,1854
10216,1882
10217,1861
10218,1849
10219,1850
10220,1878
10221,1805
10222,1859
10223,1887
10224,1846
10225,1827
10226,1856
10227,1855
10228,1862
10229,1840
10230,1853
10231,1836
10232,1847
10233,1872
10234,1854
10235,1855
10236,1867
10237,1869
10238,1875
10239,1903
10240,1862
10241,1856
10242,1856
10243,1856
10244,1858
10245,1852
10246,1870
10247,1802
10248,1866
10249,1867
10250,1875
10251,1857
10252,1870
10253,1867
10254,1845
10255,1887
10256,1857
10257,1863
10258,1855
10259,1865
10260,1872
10261,1872
10262,1888
10263,1869
10264,1872
10265,1904
10266,1889
10267,1866
10268,1866
10269,1861
10270,1855
10271,1859
10272,1858
10273,1849
10274,1872
10275,1847
10276,1873
10277,1856
10278,1872
10279,1840
10280,1842
10281,1842
10282,1906
10283,1868
10284,1868
10285,1861
10286,1856
10287,1879
10288,1833
10289,1839
10290,1843
10291,1864
10292,1858
10293,1840
10294,1857
10295,1817
10296,1868
10297,1911
10298,1842
10299,1827
10300,1847
10301,1862
10302,1861
10303,1874
10304,1859
10305,1887
10306,1861
10307,1843
10308,1883
10309,1875
10310,1872
10311,1863
10312,1824
10313,1827
10314,1875
10315,1853
10316,1879
10317,1881
10318,1860
10319,1847
10320,1846
10321,1847
10322,1872
10323,1835
10324,1870
10325,1865
10326,1872
10327,1857
10328,1849
10329,1845
10330,1875
10331,1872
10332,1861
10333,1854
10334,1872
10335,1875
10336,1861
10337,1849
10338,1853
10339,1839
10340,1875
10341,1873
10342,1853
10343,1873
10344,1856
10345,1839
10346,1910
10347,1906
10348,1808
10349,1826
10350,1872
10351,1873
10352,1856
10353,1835
10354,1890
10355,1852
10356,1840
10357,1879
10358,1872
10359,1873
10360,1860
10361,1854
10362,1886
10363,1903
10364,1842
10365,1891
10366,1843
10367,1850
10368,1862
10369,1869
10370,1850
10371,1840
10372,1847
10373,1882
10374,1827
10375,1847
10376,1861
10377,1871
10378,1900
10379,1857
10380,1837
10381,1866
10382,1856
10383,1875
10384,1857
10385,1856
10386,1872
10387,1846
10388,1852
10389,1876
10390,1867
10391,1872
10392,1857
10393,1871
10394,1865
10395,1882
10396,1859
10397,1840
10398,1872
10399,1853
10400,1863
10401,1866
10402,1872
10403,1879
10404,1841
10405,1843
10406,1867
10407,1842
10408,1878
10409,1842
10410,1835
10411,1859
10412,1875
10413,1883
10414,1821
10415,1841
10416,1840
10417,1845
10418,1856
10419,1881
10420,1794
10421,1850
10422,1898
10423,1881
10424,1848
10425,1860
10426,1859
10427,1856
10428,1834
10429,1860
10430,1845
10431,1903
10432,1876
10433,1858
10434,1859
10435,1863
10436,1850
10437,1809
10438,1859
10439,1862
10440,1838
10441,1872
10442,1855
10443,1857
10444,1855
10445,1880
10446,1891
10447,1840
10448,1840
10449,1903
10450,1886
10451,1860
10452,1857
10453,1872
10454,1877
10455,1886
10456,1863
10457,1850
10458,1847
10459,1872
10460,1872
10461,1872
10462,1852
10463,1856
10464,1889
10465,1872
10466,1854
10467,1869
10468,1872
10469,1870
10470,1865
10471,1856
10472,1824
10473,1886
10474,1854
10475,1885
10476,1843
10477,1844
10478,1854
10479,1882
10480,1859
10481,1895
10482,1841
10483,1859
10484,1872
10485,1851
10486,1872
10487,1877
10488,1870
10489,1873
10490,1858
10491,1897
10492,1842
10493,1856
10494,2272
10495,1855
10496,1847
10497,1851
10498,1835
10499,1840
10500,1862
10501,1855
10502,1839
10503,1870
10504,1869
10505,1807
10506,1840
10507,1844
10508,1878
10509,1851
10510,1842
10511,1856
10512,1834
10513,1875
10514,1873
10515,1795
10516,1887
10517,1859
10518,1856
10519,1869
10520,1872
10521,1857
10522,1856
10523,1900
10524,1852
10525,2559
10526,1827
10527,1825
10528,1883
10529,1806
10530,1814
10531,1904
10532,1840
10533,1839
10534,1853
10535,1846
10536,1854
10537,1866
10538,1813
10539,1850
10540,1855
10541,1850
10542,1872
10543,1861
10544,1856
10545,1869
10546,1887
10547,1883
10548,1870
10549,1842
10550,1842
10551,1869
10552,1855
10553,1879
10554,1856
10555,1855
10556,2039
10557,1812
10558,1836
10559,1827
10560,1818
10561,1814
10562,1863
10563,1877
10564,1836
10565,1849
10566,1856
10567,1862
10568,1844
10569,1843
10570,1827
10571,1852
10572,1867
10573,1869
10574,1836
10575,1840
10576,1849
10577,1861
10578,1864
10579,1872
10580,1826
10581,1855
10582,1807
10583,1873
10584,1859
10585,1855
10586,1871
10587,1861
10588,1862
10589,1858
10590,1829
10591,1850
10592,1815
10593,1853
10594,1856
10595,1842
10596,1819
10597,1843
10598,1840
10599,1861
10600,1857
10601,1870
10602,1855
10603,1904
10604,1889
10605,1857
10606,1872
10607,1839
10608,1855
10609,1846
10610,1864
10611,1858
10612,1879
10613,1850
10614,1854
10615,1868
10616,1875
10617,1858
10618,1863
10619,1891
10620,1793
10621,1809
10622,1807
10623,1820
10624,1851
10625,1859
10626,1825
10627,1856
10628,1869
10629,1870
10630,1860
10631,1872
10632,1880
10633,1863
10634,1862
10635,1851
10636,1866
10637,1855
10638,1840
10639,1857
10640,1806
10641,1867
10642,1859
10643,1870
10644,1872
10645,1875
10646,1861
10647,1857
10648,1857
10649,1887
10650,1954
10651,1842
10652,1823
10653,1843
10654,1905
10655,1841
10656,1839
10657,1845
10658,1863
10659,1841
10660,1827
10661,1831
10662,1872
10663,1853
10664,1854
10665,1841
10666,1857
10667,1845
10668,1859
10669,1862
10670,1883
10671,1842
10672,1872
10673,1815
10674,1819
10675,1872
10676,1847
10677,1861
10678,1867
10679,1857
10680,1862
10681,2047
10682,1808
10683,1847
10684,1815
10685,1871
10686,1855
10687,1831
10688,1841
10689,1843
10690,1870
10691,1869
10692,1856
10693,1865
10694,1867
10695,1868
10696,1840
10697,1859
10698,1879
10699,1821
10700,1846
10701,1872
10702,1853
10703,1903
10704,1904
10705,1857
10706,1865
10707,1842
10708,1871
10709,1863
10710,1843
10711,1846
10712,2162
10713,1888
10714,1827
10715,1811
10716,1850
10717,1845
10718,1837
10719,1841
10720,1845
10721,1830
10722,1821
10723,1826
10724,1856
10725,1867
10726,1855
10727,1838
10728,1882
10729,1867
10730,1862
10731,1829
10732,1840
10733,1871
10734,1847
10735,1845
10736,1862
10737,1799
10738,1849
10739,1808
10740,1859
10741,1842
10742,1842
10743,2417
10744,1840
10745,1826
10746,1842
10747,1840
10748,1857
10749,1831
10750,1968
10751,1819
10752,1839
10753,1856
10754,1815
10755,1844
10756,1867
10757,1855
10758,1849
10759,1854
10760,1843
10761,1858
10762,1875
10763,1901
10764,1846
10765,1882
10766,1867
10767,1851
10768,1860
10769,1862
10770,1845
10771,1794
10772,1856
10773,1883
10774,2251
10775,1841
10776,1840
10777,1819
10778,1856
10779,1870
10780,1843
10781,1869
10782,1776
10783,1859
10784,1853
10785,1835
10786,1853
10787,1854
10788,1857
10789,1866
10790,1862
10791,1845
10792,1859
10793,1869
10794,1856
10795,1850
10796,1869
10797,1886
10798,1872
10799,1858
10800,1851
10801,1859
10802,1846
10803,1885
10804,1847
10805,1856
10806,1857
10807,1840
10808,1830
10809,1837
10810,1827
10811,1839
10812,1889
10813,1843
10814,1788
10815,1872
10816,1862
10817,1858
10818,1854
10819,1856
10820,1908
10821,1854
10822,1840
10823,1838
10824,1856
10825,1853
10826,1862
10827,1847
10828,1867
10829,1854
10830,1824
10831,1865
10832,1879
10833,1840
10834,1854
10835,1863
10836,1845
10837,1903
10838,1839
10839,1829
10840,1819
10841,1838
10842,1843
10843,1861
10844,1871
10845,1883
10846,1851
10847,1837
10848,1802
10849,1838
10850,1850
10851,1840
10852,1858
10853,1842
10854,1861
10855,1845
10856,1859
10857,1855
10858,1851
10859,1858
10860,1859
10861,1790
10862,1905
10863,1872
10864,1870
10865,1887
10866,1867
10867,1853
10868,1931
10869,1838
10870,1834
10871,1847
10872,1841
10873,1883
10874,1866
10875,1872
10876,1827
10877,1856
10878,1881
10879,1851
10880,1904
10881,1861
10882,1861
10883,1827
10884,1843
10885,1850
10886,1867
10887,1865
10888,1893
10889,1864
10890,1890
10891,1874
10892,1860
10893,1840
10894,1872
10895,1818
10896,1856
10897,1904
10898,1854
10899,2073
10900,1840
10901,1825
10902,1842
10903,1849
10904,1874
10905,1826
10906,1919
10907,1834
10908,1827
10909,1843
10910,1838
10911,1835
10912,1829
10913,1850
10914,1892
10915,1856
10916,1867
10917,1855
10918,1858
10919,1856
10920,1843
10921,1868
10922,1809
10923,1861
10924,1894
10925,1843
10926,1851
10927,1867
10928,1844
10929,1834
10930,2174
10931,1855
10932,1847
10933,1834
10934,1844
10935,1846
10936,1840
10937,1844
10938,1839
10939,1854
10940,1859
10941,1879
10942,1866
10943,1842
10944,1861
10945,1877
10946,1847
10947,1833
10948,1850
10949,1792
10950,1859
10951,1856
10952,1854
10953,1863
10954,1856
10955,1875
10956,1846
10957,1862
10958,1856
10959,1866
10960,1872
10961,2288
10962,1850
10963,1824
10964,1799
10965,1837
10966,1802
10967,1847
10968,2018
10969,1843
10970,1847
10971,1887
10972,1856
10973,1864
10974,1843
10975,1857
10976,1862
10977,1859
10978,1842
10979,1861
10980,1817
10981,1901
10982,1877
10983,1873
10984,1854
10985,1851
10986,1849
10987,1873
10988,1873
10989,1857
10990,1849
10991,1835
10992,2510
10993,1855
10994,1830
10995,1840
10996,1859
10997,1840
10998,1841
10999,2047
11000,1855
11001,1831
11002,1840
11003,1819
11004,1831
11005,1867
11006,1840
11007,1836
11008,1837
11009,1856
11010,1853
11011,1833
11012,1841
11013,1862
11014,1854
11015,1862
11016,1862
11017,1862
11018,1863
11019,1856
11020,1867
11021,1867
11022,1842
11023,2076
11024,1866
11025,1825
11026,1834
11027,1847
11028,1841
11029,1846
11030,2070
11031,1858
11032,1815
11033,1823
11034,1821
11035,1838
11036,1831
11037,1811
11038,1847
11039,1813
11040,1859
11041,1839
11042,1842
11043,1843
11044,1845
11045,1828
11046,1857
11047,1900
11048,1861
11049,1863
11050,1850
11051,1857
11052,1856
11053,1858
11054,1798
11055,1824
11056,1808
11057,1835
11058,1833
11059,1839
11060,1840
11061,1941
11062,1885
11063,1839
11064,1867
11065,1835
11066,1872
11067,1827
11068,1838
11069,1847
11070,1842
11071,1798
11072,1883
11073,1856
11074,1853
11075,1861
11076,1871
11077,1866
11078,1871
11079,1837
11080,1856
11081,1872
11082,1867
11083,1839
11084,1872
11085,1862
11086,1947
11087,1831
11088,1835
11089,1852
11090,1841
11091,1863
11092,2032
11093,1968
11094,1822
11095,1839
11096,1829
11097,1822
11098,1863
11099,1844
11100,1840
11101,1837
11102,1837
11103,1855
11104,1841
11105,1868
11106,1840
11107,1851
11108,1870
11109,1867
11110,1854
11111,1895
11112,1843
11113,1849
11114,1870
11115,1840
11116,1861
11117,1856
11118,1872
11119,1854
11120,1866
11121,1858
11122,1856
11123,1875
11124,1865
11125,1858
11126,1846
11127,1843
11128,1817
11129,1862
11130,1866
11131,1889
11132,1877
11133,1834
11134,1867
11135,1856
11136,1845
11137,1862
11138,1856
11139,1829
11140,1883
11141,1894
11142,1846
11143,1872
11144,1857
11145,1863
11146,1874
11147,1813
11148,1865
11149,1839
11150,1872
11151,1846
11152,1865
11153,1859
11154,1870
11155,1872
11156,1854
11157,1894
11158,1843
11159,1871
11160,1871
11161,1840
11162,1870
11163,1856
11164,1822
11165,1869
11166,1868
11167,1859
11168,1854
11169,1873
11170,1859
11171,1877
11172,1839
11173,1854
11174,1855
11175,1860
11176,1845
11177,1854
11178,1840
11179,1898
11180,1872
11181,1872
11182,1873
11183,1841
11184,1859
11185,1872
11186,1846
11187,1873
11188,1843
11189,1872
11190,1840
11191,1861
11192,1861
11193,1840
11194,1862
11195,1874
11196,1854
11197,1862
11198,1895
11199,1858
11200,1873
11201,1858
11202,1875
11203,1893
11204,1857
11205,1840
11206,1856
11207,1898
11208,1859
11209,1872
11210,1859
11211,1907
11212,1858
11213,1907
11214,1843
11215,1887
11216,1891
11217,1858
11218,1846
11219,1853
11220,1901
11221,1897
11222,1853
11223,1858
11224,1872
11225,1866
11226,1842
11227,1847
11228,1909
11229,1863
11230,1910
11231,1878
11232,1910
11233,1866
11234,1855
11235,1863
11236,1853
11237,1915
11238,1911
11239,1840
11240,1868
11241,1904
11242,1868
11243,1857
11244,1859
11245,1860
11246,1855
11247,1867
11248,1824
11249,1875
11250,1872
11251,1857
11252,1853
11253,1865
11254,1819
11255,1887
11256,1875
11257,1872
11258,1865
11259,1862
11260,1857
11261,1840
11262,1849
11263,1875
11264,1840
11265,1839
11266,1906
11267,1873
11268,1871
11269,1855
11270,1863
11271,1883
11272,1884
11273,1883
11274,1840
11275,1871
11276,1863
11277,1866
11278,1887
11279,1850
11280,1861
11281,1840
11282,1869
11283,1872
11284,1851
11285,1867
11286,1849
11287,1863
11288,1883
11289,1808
11290,1872
11291,1855
11292,1863
11293,1873
11294,1863
11295,1917
11296,1842
11297,1859
11298,1856
11299,1849
11300,1870
11301,1862
11302,1868
11303,1835
11304,1887
11305,1872
11306,1861
11307,1873
11308,1863
11309,1864
11310,1854
11311,1851
11312,1863
11313,1823
11314,1915
11315,1873
11316,1840
11317,1860
11318,1846
11319,1870
11320,1831
11321,1859
11322,1855
11323,1867
11324,1874
11325,1845
11326,1879
11327,1855
11328,1862
11329,1853
11330,1862
11331,1855
11332,1872
11333,1873
11334,1861
11335,1859
11336,1849
11337,1907
11338,1870
11339,1879
11340,1907
11341,1872
11342,1858
11343,1839
11344,1849
11345,1865
11346,1791
11347,1856
11348,1869
11349,1856
11350,1865
11351,1867
11352,1872
11353,1870
11354,1872
11355,1837
11356,1915
11357,1842
11358,1870
11359,1863
11360,1866
11361,1841
11362,1874
11363,1863
11364,1868
11365,1853
11366,1872
11367,1858
11368,1865
11369,1854
11370,1856
11371,1830
11372,1856
11373,1872
11374,1857
11375,1862
11376,1860
11377,1870
11378,1795
11379,1885
11380,1872
11381,1802
11382,1823
11383,1859
11384,1849
11385,1863
11386,1845
11387,1849
11388,1840
11389,1856
11390,1876
11391,1822
11392,1874
11393,1872
11394,1850
11395,1801
11396,1859
11397,1898
11398,1856
11399,1838
11400,1862
11401,1844
11402,1850
11403,1867
11404,1820
11405,1840
11406,1855
11407,1900
11408,1845
11409,1859
11410,1858
11411,1847
11412,1856
11413,1851
11414,1872
11415,1920
11416,1857
11417,1840
11418,1869
11419,1865
11420,1862
11421,1867
11422,1840
11423,1818
11424,1851
11425,1856
11426,1872
11427,1870
11428,1860
11429,1911
11430,1840
11431,1841
11432,1867
11433,1869
11434,1856
11435,1843
11436,1850
11437,1872
11438,1853
11439,1872
11440,1872
11441,1865
11442,1860
11443,1873
11444,1848
11445,1866
11446,1840
11447,1871
11448,1878
11449,1806
11450,1875
11451,1853
11452,1859
11453,1867
11454,1910
11455,1857
11456,1870
11457,1875
11458,1865
11459,1847
11460,1859
11461,1854
11462,1842
11463,1847
11464,1837
11465,1842
11466,1862
11467,1871
11468,1873
11469,1871
11470,1872
11471,1925
11472,1875
11473,1859
11474,1841
11475,1874
11476,1867
11477,1870
11478,1879
11479,1872
11480,1880
11481,1852
11482,1839
11483,1841
11484,1858
11485,1859
11486,1861
11487,1840
11488,1865
11489,1857
11490,1862
11491,1859
11492,1859
11493,1855
11494,1846
11495,1858
11496,1872
11497,1858
11498,1911
11499,1885
11500,1862
11501,1854
11502,1867
11503,1872
11504,1871
11505,1824
11506,1856
11507,1840
11508,1847
11509,1863
11510,1872
11511,1881
11512,1885
11513,1868
11514,1831
11515,1839
11516,1905
11517,1853
11518,1858
11519,1860
11520,1867
11521,1863
11522,1885
11523,1872
11524,1798
11525,1860
11526,1872
11527,1872
11528,1872
11529,1854
11530,1869
11531,1857
11532,1875
11533,1856
11534,1855
11535,1855
11536,1879
11537,1865
11538,1875
11539,1859
11540,1818
11541,1873
11542,1856
11543,1843
11544,1854
11545,1915
11546,1883
11547,1871
11548,1837
11549,1883
11550,1856
11551,1856
11552,1864
11553,1872
11554,1850
11555,1827
11556,1903
11557,1850
11558,1857
11559,1865
11560,1870
11561,1891
11562,1875
11563,1876
11564,1872
11565,1876
11566,1847
11567,1852
11568,1870
11569,1847
11570,1877
11571,1862
11572,1859
11573,1865
11574,1811
11575,1872
11576,1871
11577,1853
11578,1856
11579,1846
11580,1852
11581,1873
11582,1856
11583,1869
11584,1853
11585,1855
11586,1843
11587,1856
11588,1854
11589,1866
11590,1858
11591,1849
11592,1858
11593,1863
11594,1867
11595,1866
11596,1844
11597,1853
11598,1879
11599,1879
11600,1872
11601,1857
11602,1872
11603,1883
11604,1825
11605,1872
11606,1855
11607,1903
11608,1844
11609,1865
11610,1861
11611,1863
11612,1853
11613,1890
11614,1855
11615,1889
11616,1856
11617,1866
11618,1856
11619,1863
11620,1860
11621,1856
11622,1868
11623,1845
11624,1866
11625,1863
11626,1861
11627,1858
11628,1859
11629,1818
11630,1887
11631,1856
11632,1801
11633,1859
11634,1842
11635,1845
11636,1856
11637,1862
11638,1855
11639,1917
11640,1855
11641,1873
11642,1867
11643,1853
11644,1854
11645,1821
11646,1808
11647,1841
11648,1830
11649,1865
11650,1872
11651,1870
11652,1861
11653,1883
11654,1872
11655,1857
11656,1878
11657,1850
11658,1857
11659,1842
11660,1867
11661,1872
11662,1835
11663,1876
11664,1867
11665,1855
11666,1846
11667,1867
11668,1856
11669,1856
11670,1856
11671,1821
11672,1863
11673,1840
11674,1821
11675,1866
11676,1872
11677,1872
11678,1856
11679,1870
11680,1875
11681,1872
11682,1867
11683,1873
11684,1863
11685,1873
11686,1841
11687,1863
11688,1863
11689,1902
11690,1874
11691,1875
11692,1853
11693,1866
11694,1878
11695,1872
11696,1847
11697,1813
11698,1859
11699,1855
11700,1859
11701,1852
11702,1851
11703,1869
11704,1864
11705,1839
11706,1848
11707,1901
11708,1867
11709,1873
11710,1871
11711,1840
11712,1870
11713,1876
11714,1901
11715,1857
11716,1861
11717,1846
11718,1869
11719,1871
11720,1855
11721,1837
11722,1865
11723,1869
11724,1815
11725,1857
11726,1843
11727,1856
11728,1846
11729,1855
11730,1850
11731,1913
11732,1841
11733,1838
11734,1854
11735,1845
11736,1861
11737,1876
11738,1877
11739,1872
11740,1870
11741,1856
11742,1877
11743,1843
11744,1836
11745,1852
11746,1894
11747,1843
11748,1860
11749,1860
11750,1856
11751,1873
11752,1872
11753,1879
11754,1846
11755,1840
11756,1879
11757,1808
11758,1889
11759,1886
11760,1861
11761,1847
11762,1878
11763,1863
11764,1857
11765,1882
11766,1870
11767,1862
11768,1851
11769,1851
11770,1872
11771,1840
11772,1878
11773,1868
11774,1875
11775,1867
11776,1874
11777,1877
11778,1852
11779,1856
11780,1851
11781,1878
11782,1894
11783,1872
11784,1850
11785,1872
11786,1878
11787,1802
11788,1839
11789,1872
11790,1860
11791,1801
11792,1853
11793,1872
11794,1839
11795,1883
11796,1872
11797,1902
11798,1871
11799,1882
11800,1867
11801,1869
11802,1851
11803,1859
11804,1859
11805,1854
11806,1870
11807,1876
11808,1850
11809,1840
11810,1867
11811,1875
11812,1845
11813,1869
11814,1858
11815,1881
11816,1835
11817,1856
11818,1862
11819,1862
11820,1846
11821,1847
11822,1843
11823,1856
11824,1875
11825,1871
11826,1872
11827,1854
11828,1833
11829,1873
11830,1857
11831,1870
11832,1886
11833,1871
11834,1850
11835,1863
11836,1851
11837,1870
11838,1885
11839,1885
11840,1873
11841,1872
11842,1872
11843,1858
11844,1847
11845,1872
11846,1858
11847,1849
11848,1854
11849,1872
11850,1863
11851,1870
11852,1857
11853,1861
11854,1855
11855,1840
11856,1871
11857,1882
11858,1863
11859,1872
11860,1865
11861,1920
11862,1866
11863,1852
11864,1852
11865,1853
11866,1863
11867,1872
11868,1851
11869,1873
11870,1856
11871,1870
11872,1902
11873,1865
11874,1837
11875,1849
11876,1869
11877,1858
11878,1830
11879,1854
11880,1863
11881,1851
11882,1863
11883,1854
11884,1843
11885,1850
11886,1839
11887,1871
11888,1874
11889,1856
11890,1846
11891,1867
11892,1860
11893,1863
11894,1857
11895,1867
11896,1861
11897,1873
11898,1873
11899,1875
11900,1856
11901,1866
11902,1858
11903,1854
11904,1871
11905,1857
11906,1865
11907,1875
11908,1853
11909,1847
11910,1863
11911,1879
11912,1856
11913,1856
11914,1859
11915,1840
11916,1858
