Time(ms),Raw_ADC
0,1877
1,1875
2,1842
3,1890
4,1850
5,1867
6,1862
7,1871
8,1883
9,1859
10,1867
11,1887
12,1921
13,1897
14,1873
15,1862
16,1872
17,1873
18,1856
19,1844
20,1894
21,1856
22,1855
23,1854
24,1856
25,1851
26,1872
27,1911
28,1867
29,1829
30,1840
31,1871
32,1862
33,1878
34,1885
35,1863
36,1861
37,1791
38,1877
39,1859
40,1862
41,1865
42,1863
43,1833
44,1872
45,1801
46,1871
47,1865
48,1871
49,1855
50,1858
51,1870
52,1867
53,1853
54,1904
55,1869
56,1850
57,1856
58,1838
59,1904
60,1872
61,1917
62,1898
63,1857
64,1872
65,1863
66,1867
67,1851
68,1855
69,1863
70,1891
71,1857
72,1853
73,1858
74,1863
75,1904
76,1889
77,1872
78,1832
79,1860
80,1850
81,1858
82,1861
83,1839
84,1844
85,1788
86,1859
87,1858
88,1872
89,1859
90,1850
91,1866
92,1794
93,1833
94,1901
95,1869
96,1838
97,1861
98,1840
99,1872
100,1914
101,1885
102,1854
103,1849
104,1867
105,1875
106,1863
107,1846
108,1857
109,1855
110,1862
111,1897
112,1810
113,1889
114,1855
115,1856
116,1851
117,1845
118,1844
119,1905
120,1856
121,1858
122,1872
123,1855
124,1853
125,1875
126,1866
127,1890
128,1776
129,1852
130,1879
131,1850
132,1850
133,1888
134,1859
135,1903
136,1808
137,1856
138,1871
139,1855
140,1861
141,1863
142,1847
143,1879
144,1863
145,1859
146,1874
147,1856
148,1858
149,1872
150,1873
151,1791
152,1918
153,1886
154,1913
155,1862
156,1869
157,1869
158,1856
159,1854
160,1862
161,1871
162,1879
163,1872
164,1840
165,1872
166,1866
167,1846
168,1856
169,1877
170,1919
171,1854
172,1863
173,1849
174,1840
175,1905
176,1855
177,1857
178,1887
179,1877
180,1867
181,1856
182,1862
183,1875
184,1876
185,1846
186,1843
187,1893
188,1861
189,1871
190,1879
191,1851
192,1920
193,1859
194,1862
195,1858
196,1891
197,1862
198,1871
199,1871
200,1879
201,1842
202,1875
203,1914
204,1883
205,1830
206,1841
207,1855
208,1846
209,1872
210,1808
211,1838
212,1870
213,1899
214,1862
215,1861
216,1878
217,1861
218,1866
219,1883
220,1851
221,1893
222,1841
223,1837
224,1841
225,1883
226,1890
227,1808
228,1892
229,1877
230,1872
231,1861
232,1857
233,1857
234,1861
235,1843
236,1869
237,1904
238,1894
239,1862
240,1857
241,1872
242,1806
243,1835
244,1846
245,1870
246,1842
247,1853
248,1866
249,1865
250,1863
251,1853
252,1911
253,1891
254,1888
255,1861
256,1850
257,1847
258,1869
259,1867
260,1863
261,1876
262,1919
263,1861
264,1874
265,1856
266,1863
267,1828
268,1871
269,1886
270,1875
271,1889
272,1872
273,1872
274,1835
275,1911
276,1904
277,1831
278,1820
279,1813
280,1858
281,1852
282,1872
283,1859
284,1898
285,1904
286,1860
287,1878
288,1866
289,1858
290,1863
291,1847
292,1792
293,1907
294,1881
295,1782
296,1897
297,1853
298,1847
299,1860
300,1871
301,1911
302,1886
303,1899
304,1812
305,1890
306,1840
307,1854
308,1856
309,1868
310,1871
311,1907
312,1889
313,1861
314,1859
315,1865
316,1839
317,1919
318,1799
319,1877
320,1861
321,1861
322,1835
323,1853
324,1858
325,1857
326,1856
327,1859
328,1866
329,1869
330,1862
331,1854
332,1863
333,1845
334,1877
335,1923
336,1873
337,1857
338,1871
339,1875
340,1872
341,1890
342,1874
343,1875
344,1856
345,1863
346,1879
347,1873
348,1869
349,1842
350,1899
351,1908
352,1809
353,1847
354,1798
355,1851
356,1856
357,1834
358,1907
359,1867
360,1879
361,1869
362,1857
363,1821
364,1859
365,1857
366,1853
367,1875
368,1908
369,1818
370,1863
371,1802
372,1878
373,1853
374,1872
375,1808
376,1874
377,1857
378,1871
379,1798
380,1872
381,1862
382,1860
383,1858
384,1821
385,1865
386,1854
387,1889
388,1881
389,1847
390,1846
391,1888
392,1891
393,1790
394,1909
395,1872
396,1859
397,1879
398,1858
399,1881
400,1893
401,1803
402,1895
403,1853
404,1817
405,1860
406,1874
407,1862
408,1893
409,1871
410,1917
411,1910
412,1861
413,1868
414,1854
415,1867
416,1850
417,1840
418,1881
419,1895
420,1871
421,1873
422,1865
423,1878
424,1863
425,1893
426,1840
427,1865
428,1888
429,1904
430,1859
431,1853
432,1855
433,1872
434,1873
435,1839
436,1869
437,1856
438,1891
439,1854
440,1869
441,1905
442,1862
443,1883
444,1856
445,1863
446,1845
447,1830
448,1870
449,1850
450,1847
451,1856
452,1910
453,1828
454,1907
455,1837
456,1856
457,1840
458,1903
459,1842
460,1855
461,1815
462,1797
463,1851
464,1858
465,1858
466,1857
467,1855
468,1909
469,1798
470,1862
471,1852
472,1881
473,1827
474,1840
475,1860
476,1904
477,1860
478,1849
479,1873
480,1870
481,1861
482,1859
483,1853
484,1895
485,1859
486,1871
487,1862
488,1836
489,1843
490,1866
491,1871
492,1910
493,1881
494,1840
495,1857
496,1894
497,1872
498,1860
499,1846
500,1857
501,1887
502,1865
503,1859
504,1786
505,1845
506,1850
507,1835
508,1869
509,1845
510,1791
511,1858
512,1871
513,1867
514,1840
515,1862
516,1856
517,1863
518,1872
519,1844
520,1854
521,1887
522,1867
523,1863
524,1846
525,1887
526,1923
527,1899
528,1887
529,1872
530,1872
531,1856
532,1846
533,1827
534,1851
535,1792
536,1881
537,1861
538,1889
539,1867
540,1863
541,1895
542,1922
543,1882
544,1900
545,1851
546,1918
547,1857
548,1859
549,1862
550,1842
551,1872
552,1890
553,1861
554,1887
555,1863
556,1872
557,1872
558,1852
559,1808
560,1862
561,1883
562,1907
563,1858
564,1826
565,1854
566,1846
567,1830
568,1916
569,1904
570,1846
571,1875
572,1863
573,1872
574,1883
575,1791
576,1842
577,1873
578,1888
579,1883
580,1884
581,1845
582,1861
583,1871
584,1903
585,1872
586,1904
587,1839
588,1886
589,1882
590,1857
591,1874
592,1871
593,1904
594,1870
595,1861
596,1845
597,1857
598,1861
599,1844
600,1841
601,1885
602,1872
603,1872
604,1840
605,1844
606,1863
607,1867
608,1859
609,1917
610,1893
611,1914
612,1868
613,1858
614,1867
615,1865
616,1843
617,1866
618,1840
619,1875
620,1869
621,1853
622,1872
623,1855
624,1843
625,1873
626,1892
627,1840
628,1856
629,1863
630,1851
631,1879
632,1847
633,1861
634,1852
635,1853
636,1831
637,1904
638,1841
639,1861
640,1857
641,1879
642,1904
643,1872
644,1858
645,1873
646,1809
647,1856
648,1858
649,1856
650,1882
651,1920
652,1858
653,1879
654,1807
655,1825
656,1862
657,1846
658,1855
659,1859
660,1871
661,1875
662,1901
663,1872
664,1867
665,1863
666,1862
667,1904
668,1893
669,1857
670,1889
671,1904
672,1840
673,1856
674,1862
675,1869
676,1907
677,1919
678,1875
679,1869
680,1863
681,1856
682,1871
683,1826
684,1877
685,1857
686,1853
687,1882
688,1871
689,1856
690,1858
691,1905
692,1871
693,1910
694,1910
695,1869
696,1883
697,1867
698,1858
699,1866
700,1886
701,1857
702,1917
703,1872
704,1877
705,1847
706,1862
707,1868
708,1881
709,1858
710,1902
711,1783
712,1850
713,1869
714,1833
715,1870
716,1871
717,1885
718,1859
719,1910
720,1904
721,1823
722,1861
723,1871
724,1847
725,1926
726,1859
727,1902
728,1873
729,1894
730,1629
731,1926
732,1926
733,1935
734,1923
735,1842
736,1891
737,1907
738,1857
739,1878
740,1859
741,1901
742,1859
743,1870
744,1863
745,1875
746,1872
747,1840
748,1869
749,1849
750,1799
751,1897
752,1838
753,1846
754,1847
755,1854
756,1848
757,1859
758,1873
759,1859
760,1857
761,1465
762,1943
763,1926
764,1950
765,1921
766,1911
767,1959
768,1902
769,1891
770,1888
771,1854
772,1867
773,1845
774,1862
775,1811
776,1898
777,1881
778,1845
779,1871
780,1846
781,1865
782,1863
783,1901
784,1889
785,1857
786,1872
787,1863
788,1854
789,1862
790,1843
791,1865
792,944
793,1945
794,1933
795,1957
796,1965
797,1917
798,1925
799,1885
800,1913
801,1839
802,1895
803,1809
804,1920
805,1872
806,1845
807,1872
808,1881
809,1921
810,1838
811,1830
812,1867
813,1865
814,1872
815,1858
816,1899
817,1859
818,1902
819,1863
820,1864
821,1902
822,1887
823,751
824,1920
825,1986
826,1941
827,1924
828,1960
829,1907
830,1904
831,1876
832,1899
833,1888
834,1874
835,1879
836,1884
837,1892
838,1867
839,1869
840,1847
841,1867
842,1792
843,1821
844,1904
845,1846
846,1854
847,1862
848,1849
849,1866
850,1854
851,1901
852,1873
853,1915
854,575
855,1861
856,1965
857,1955
858,1942
859,1991
860,1906
861,1956
862,1901
863,1881
864,1872
865,1881
866,1893
867,1904
868,1862
869,1903
870,1937
871,1927
872,1861
873,1874
874,1869
875,1920
876,1863
877,1863
878,1887
879,1910
880,1872
881,1854
882,1874
883,1851
884,1887
885,878
886,1825
887,1908
888,1953
889,1918
890,1933
891,1863
892,1893
893,1856
894,1898
895,1844
896,1929
897,1887
898,1873
899,1863
900,1877
901,1863
902,1905
903,1862
904,1862
905,1872
906,1875
907,1866
908,1893
909,1853
910,1871
911,1872
912,1871
913,1879
914,1857
915,1863
916,1772
917,1694
918,1939
919,1955
920,1936
921,1893
922,1913
923,1927
924,1885
925,1855
926,1864
927,1917
928,1872
929,1889
930,1875
931,1883
932,1877
933,1869
934,1831
935,1874
936,1904
937,1872
938,1877
939,1887
940,1872
941,1846
942,1882
943,1850
944,1795
945,1889
946,1879
947,1872
948,1647
949,1969
950,1975
951,1962
952,1932
953,1917
954,1913
955,1899
956,1877
957,1881
958,1882
959,1869
960,1894
961,1903
962,1872
963,1872
964,1872
965,1879
966,1904
967,1869
968,1857
969,1879
970,1866
971,1876
972,1885
973,1839
974,1856
975,1857
976,1890
977,1907
978,1795
979,1279
980,1959
981,1985
982,1936
983,1942
984,1968
985,1904
986,1921
987,1919
988,1903
989,1892
990,1904
991,1884
992,1855
993,1818
994,1872
995,1893
996,1856
997,1874
998,1871
999,1869
1000,1901
1001,1918
1002,1863
1003,1917
1004,1824
1005,1864
1006,1850
1007,1855
1008,1904
1009,1885
1010,1038
1011,1906
1012,1901
1013,1949
1014,1936
1015,1929
1016,1899
1017,1909
1018,1907
1019,1920
1020,1903
1021,1824
1022,1882
1023,1877
1024,1875
1025,1872
1026,1904
1027,1810
1028,1876
1029,1862
1030,1875
1031,1858
1032,1867
1033,1872
1034,1872
1035,1848
1036,1885
1037,1859
1038,1863
1039,1867
1040,1872
1041,704
1042,1907
1043,2017
1044,1954
1045,1937
1046,1918
1047,1919
1048,1905
1049,1901
1050,1895
1051,1891
1052,1936
1053,1925
1054,1875
1055,1905
1056,1871
1057,1874
1058,1935
1059,1931
1060,1831
1061,1814
1062,1895
1063,1851
1064,1843
1065,1861
1066,1918
1067,1872
1068,1865
1069,1872
1070,1904
1071,1857
1072,502
1073,1914
1074,1948
1075,1952
1076,1931
1077,1860
1078,1894
1079,1929
1080,1909
1081,1885
1082,1874
1083,1876
1084,1872
1085,1872
1086,1884
1087,1872
1088,1867
1089,1849
1090,1872
1091,1871
1092,1844
1093,1904
1094,1909
1095,1924
1096,1837
1097,1872
1098,1875
1099,1853
1100,1871
1101,1885
1102,1877
1103,726
1104,1820
1105,1963
1106,1958
1107,1936
1108,1974
1109,1952
1110,1915
1111,1937
1112,1903
1113,1913
1114,1878
1115,1887
1116,1915
1117,1827
1118,1875
1119,1827
1120,1862
1121,1827
1122,1840
1123,1863
1124,1890
1125,1837
1126,1876
1127,1863
1128,1831
1129,1870
1130,1874
1131,1856
1132,1859
1133,1872
1134,1200
1135,1714
1136,1968
1137,1968
1138,1958
1139,1931
1140,1905
1141,1919
1142,1932
1143,1922
1144,1889
1145,1899
1146,1887
1147,1867
1148,1884
1149,1883
1150,1904
1151,1910
1152,1856
1153,1903
1154,1867
1155,1867
1156,1877
1157,1870
1158,1890
1159,1893
1160,1859
1161,1887
1162,1802
1163,1857
1164,1840
1165,1825
1166,1690
1167,2018
1168,1992
1169,1905
1170,1952
1171,1923
1172,1910
1173,1903
1174,1923
1175,1949
1176,1936
1177,1850
1178,1920
1179,1930
1180,1891
1181,1856
1182,1856
1183,1815
1184,1877
1185,1919
1186,1853
1187,1859
1188,1858
1189,1863
1190,1863
1191,1895
1192,1899
1193,1911
1194,1793
1195,1796
1196,1869
1197,1485
1198,1978
1199,1962
1200,1954
1201,1863
1202,1941
1203,1916
1204,1893
1205,1889
1206,1869
1207,1872
1208,1889
1209,1921
1210,1883
1211,1909
1212,1872
1213,1861
1214,1870
1215,1871
1216,1857
1217,1881
1218,1857
1219,1912
1220,1788
1221,1870
1222,1856
1223,1863
1224,1875
1225,1834
1226,1853
1227,1852
1228,1146
1229,2032
1230,1977
1231,1969
1232,1927
1233,1941
1234,1946
1235,1912
1236,1903
1237,1902
1238,1898
1239,1879
1240,1895
1241,1873
1242,1892
1243,1914
1244,1873
1245,1904
1246,1883
1247,1856
1248,1875
1249,1882
1250,1867
1251,1817
1252,1851
1253,1862
1254,1891
1255,1872
1256,1859
1257,1840
1258,1820
1259,733
1260,1967
1261,2000
1262,1998
1263,1942
1264,1935
1265,1923
1266,1931
1267,1889
1268,1843
1269,1889
1270,1893
1271,1904
1272,1879
1273,1858
1274,1886
1275,1858
1276,1904
1277,1850
1278,1905
1279,1871
1280,1845
1281,1865
1282,1872
1283,1887
1284,1788
1285,1840
1286,1853
1287,1903
1288,1871
1289,1862
1290,502
1291,1938
1292,1962
1293,1904
1294,1918
1295,2000
1296,1921
1297,1910
1298,1899
1299,1872
1300,1892
1301,1902
1302,1936
1303,1822
1304,1923
1305,1873
1306,1866
1307,1889
1308,1902
1309,1919
1310,1904
1311,1831
1312,1907
1313,1859
1314,1857
1315,1872
1316,1824
1317,1888
1318,1841
1319,1838
1320,1881
1321,560
1322,1878
1323,1970
1324,1941
1325,1935
1326,1969
1327,1916
1328,1947
1329,1922
1330,1905
1331,1881
1332,1875
1333,1871
1334,1841
1335,1909
1336,1881
1337,1904
1338,1853
1339,1885
1340,1853
1341,1878
1342,1861
1343,1894
1344,1885
1345,1820
1346,1869
1347,1843
1348,1859
1349,1877
1350,1887
1351,1857
1352,1862
1353,1932
1354,1822
1355,1873
1356,1861
1357,1859
1358,1904
1359,1921
1360,1840
1361,1911
1362,1895
1363,1881
1364,1858
1365,1863
1366,1911
1367,1866
1368,1813
1369,1883
1370,1809
1371,1837
1372,1863
1373,1876
1374,1851
1375,1889
1376,1836
1377,1887
1378,1927
1379,1891
1380,1844
1381,1854
1382,1855
1383,1857
1384,1851
1385,1855
1386,1873
1387,1900
1388,1862
1389,1839
1390,1870
1391,1887
1392,1839
1393,1854
1394,1895
1395,1867
1396,1872
1397,1850
1398,1861
1399,1879
1400,1856
1401,1881
1402,1857
1403,1856
1404,1854
1405,1861
1406,1867
1407,1840
1408,1867
1409,1804
1410,1870
1411,1890
1412,1887
1413,1876
1414,1876
1415,1856
1416,1906
1417,1809
1418,1914
1419,1903
1420,1854
1421,1869
1422,1869
1423,1873
1424,1899
1425,1876
1426,1796
1427,1857
1428,1847
1429,1805
1430,1866
1431,1872
1432,1845
1433,1845
1434,1905
1435,1802
1436,1855
1437,1881
1438,1837
1439,1872
1440,1851
1441,1817
1442,1808
1443,1840
1444,1857
1445,1808
1446,1839
1447,1859
1448,1860
1449,1867
1450,1899
1451,1808
1452,1910
1453,1861
1454,1872
1455,1883
1456,1851
1457,1863
1458,1871
1459,1799
1460,1904
1461,1861
1462,1846
1463,1854
1464,1862
1465,1853
1466,1907
1467,1815
1468,1863
1469,1842
1470,1840
1471,1857
1472,1863
1473,1871
1474,1856
1475,1925
1476,1883
1477,1909
1478,1850
1479,1880
1480,1879
1481,1858
1482,1866
1483,1906
1484,1845
1485,1868
1486,1854
1487,1858
1488,1840
1489,1840
1490,1841
1491,1810
1492,1840
1493,1877
1494,1867
1495,1831
1496,1872
1497,1856
1498,1852
1499,1859
1500,1899
1501,1895
1502,1869
1503,1869
1504,1872
1505,1862
1506,1858
1507,1870
1508,1872
1509,1875
1510,1906
1511,1889
1512,1872
1513,1862
1514,1853
1515,1847
1516,1910
1517,1843
1518,1858
1519,1843
1520,1783
1521,1853
1522,1856
1523,1851
1524,1857
1525,1841
1526,1872
1527,1901
1528,1890
1529,1818
1530,1856
1531,1862
1532,1857
1533,1878
1534,1851
1535,1893
1536,1877
1537,1858
1538,1865
1539,1838
1540,1840
1541,1855
1542,1847
1543,1840
1544,1926
1545,1904
1546,1871
1547,1843
1548,1872
1549,1863
1550,1891
1551,1919
1552,1869
1553,1841
1554,1881
1555,1865
1556,1831
1557,1837
1558,1906
1559,1887
1560,1792
1561,1913
1562,1832
1563,1867
1564,1863
1565,1856
1566,1805
1567,1911
1568,1921
1569,1907
1570,1888
1571,1854
1572,1840
1573,1861
1574,1908
1575,1862
1576,1818
1577,1866
1578,1885
1579,1840
1580,1858
1581,1874
1582,1856
1583,1856
1584,1856
1585,1859
1586,1826
1587,1805
1588,1856
1589,1841
1590,1842
1591,1842
1592,1915
1593,1876
1594,1841
1595,1865
1596,1856
1597,1844
1598,1872
1599,1791
1600,1893
1601,1797
1602,1824
1603,1893
1604,1865
1605,1879
1606,1840
1607,1875
1608,1844
1609,1822
1610,1872
1611,1908
1612,1841
1613,1849
1614,1871
1615,1847
1616,1840
1617,1869
1618,1878
1619,1844
1620,1858
1621,1872
1622,1859
1623,1853
1624,1875
1625,1889
1626,1871
1627,1880
1628,1866
1629,1822
1630,1868
1631,1872
1632,1872
1633,1883
1634,1874
1635,1907
1636,1870
1637,1871
1638,1872
1639,1872
1640,1862
1641,1858
1642,1855
1643,1839
1644,1909
1645,1863
1646,1837
1647,1858
1648,1858
1649,1873
1650,1863
1651,1861
1652,1794
1653,1889
1654,1854
1655,1856
1656,1866
1657,1854
1658,1855
1659,1882
1660,1844
1661,1873
1662,1885
1663,1877
1664,1863
1665,1875
1666,1862
1667,1870
1668,1922
1669,1907
1670,1878
1671,1859
1672,1856
1673,1863
1674,1861
1675,1844
1676,1872
1677,1893
1678,1882
1679,1837
1680,1861
1681,1881
1682,1866
1683,1839
1684,1895
1685,1861
1686,1888
1687,1805
1688,1869
1689,1853
1690,1854
1691,1924
1692,1863
1693,1788
1694,1823
1695,1911
1696,1867
1697,1874
1698,1860
1699,1840
1700,1866
1701,1841
1702,1899
1703,1835
1704,1811
1705,1834
1706,1856
1707,1842
1708,1885
1709,1814
1710,1857
1711,1871
1712,1839
1713,1871
1714,1878
1715,1841
1716,1811
1717,1879
1718,1857
1719,1915
1720,1882
1721,1862
1722,1835
1723,1840
1724,1842
1725,1830
1726,1918
1727,1858
1728,1866
1729,1887
1730,1851
1731,1850
1732,1853
1733,1851
1734,1863
1735,1878
1736,1851
1737,1917
1738,1870
1739,1882
1740,1856
1741,1899
1742,1876
1743,1893
1744,1785
1745,1802
1746,1854
1747,1860
1748,1861
1749,1873
1750,1856
1751,1862
1752,1808
1753,1856
1754,1865
1755,1874
1756,1883
1757,1803
1758,1855
1759,1913
1760,1920
1761,1866
1762,1878
1763,1850
1764,1863
1765,1854
1766,1895
1767,1840
1768,1855
1769,1855
1770,1851
1771,1834
1772,1860
1773,1857
1774,1895
1775,1877
1776,1797
1777,1797
1778,1869
1779,1868
1780,1859
1781,1858
1782,1863
1783,1851
1784,1869
1785,1837
1786,1854
1787,1857
1788,1843
1789,1836
1790,1857
1791,1869
1792,1851
1793,1853
1794,1846
1795,1796
1796,1848
1797,1881
1798,1851
1799,1861
1800,1914
1801,1872
1802,1885
1803,1853
1804,1871
1805,1869
1806,1852
1807,1868
1808,1856
1809,1847
1810,1833
1811,1831
1812,1819
1813,1862
1814,1851
1815,1876
1816,1916
1817,1904
1818,1802
1819,1855
1820,1904
1821,1856
1822,1855
1823,1837
1824,1876
1825,1880
1826,1898
1827,1886
1828,1872
1829,1858
1830,1857
1831,1862
1832,1867
1833,1872
1834,1895
1835,1825
1836,1902
1837,1872
1838,1858
1839,1863
1840,1869
1841,1888
1842,1862
1843,1817
1844,1919
1845,1894
1846,1862
1847,1859
1848,1880
1849,1874
1850,1874
1851,1863
1852,1905
1853,1901
1854,1878
1855,1842
1856,1855
1857,1850
1858,1871
1859,1808
1860,1799
1861,1842
1862,1857
1863,1848
1864,1872
1865,1857
1866,1880
1867,1903
1868,1871
1869,1872
1870,1872
1871,1876
1872,1857
1873,1886
1874,1867
1875,1905
1876,1854
1877,1883
1878,1883
1879,1842
1880,1849
1881,1876
1882,1865
1883,1867
1884,1857
1885,1841
1886,1902
1887,1862
1888,1850
1889,1868
1890,1872
1891,1825
1892,1823
1893,1858
1894,1892
1895,1850
1896,1860
1897,1860
1898,1858
1899,1855
1900,1856
1901,1837
1902,1870
1903,1867
1904,1854
1905,1861
1906,1842
1907,1914
1908,1885
1909,1861
1910,1879
1911,1912
1912,1861
1913,1852
1914,1857
1915,1852
1916,1840
1917,1861
1918,1889
1919,1851
1920,1911
1921,1877
1922,1871
1923,1859
1924,1876
1925,1802
1926,1849
1927,1858
1928,1856
1929,1882
1930,1861
1931,1862
1932,1859
1933,1841
1934,1899
1935,1876
1936,1854
1937,1860
1938,1850
1939,1856
1940,1866
1941,1814
1942,1890
1943,1858
1944,1855
1945,1863
1946,1856
1947,1854
1948,1856
1949,1822
1950,1866
1951,1905
1952,1847
1953,1899
1954,1862
1955,1874
1956,1879
1957,1890
1958,1895
1959,1791
1960,1883
1961,1885
1962,1887
1963,1841
1964,1879
1965,1856
1966,1857
1967,1803
1968,1857
1969,1856
1970,1872
1971,1862
1972,1859
1973,1837
1974,1872
1975,1857
1976,1895
1977,1852
1978,1855
1979,1847
1980,1869
1981,1862
1982,1872
1983,1831
1984,1879
1985,1868
1986,1808
1987,1861
1988,1855
1989,1835
1990,1851
1991,1904
1992,1859
1993,1918
1994,1866
1995,1803
1996,1863
1997,1867
1998,1873
1999,1868
2000,1885
2001,1851
2002,1871
2003,1808
2004,1844
2005,1856
2006,1861
2007,1865
2008,1917
2009,1833
2010,1863
2011,1891
2012,1877
2013,1859
2014,1838
2015,1870
2016,1905
2017,1883
2018,1853
2019,1914
2020,1873
2021,1835
2022,1862
2023,1855
2024,1891
2025,1797
2026,1854
2027,1888
2028,1920
2029,1875
2030,1845
2031,1869
2032,1847
2033,1850
2034,1901
2035,1859
2036,1866
2037,1855
2038,1859
2039,1867
2040,1858
2041,1840
2042,1903
2043,1859
2044,1856
2045,1833
2046,1867
2047,1835
2048,1861
2049,1860
2050,1808
2051,1872
2052,1885
2053,1934
2054,1863
2055,1862
2056,1874
2057,1865
2058,1872
2059,1875
2060,1869
2061,1897
2062,1843
2063,1848
2064,1847
2065,1852
2066,1862
2067,1862
2068,1827
2069,1914
2070,1919
2071,1847
2072,1874
2073,1858
2074,1891
2075,1905
2076,1898
2077,1883
2078,1879
2079,1883
2080,1867
2081,1842
2082,1872
2083,1879
2084,1904
2085,1872
2086,1886
2087,1800
2088,1851
2089,1883
2090,1866
2091,1807
2092,1871
2093,1838
2094,1855
2095,1853
2096,1831
2097,1843
2098,1859
2099,1857
2100,1872
2101,1793
2102,1882
2103,1851
2104,1873
2105,1872
2106,1857
2107,1835
2108,1865
2109,1821
2110,1797
2111,1918
2112,1876
2113,1867
2114,1876
2115,1858
2116,1862
2117,1893
2118,1783
2119,1856
2120,1887
2121,1856
2122,1851
2123,1874
2124,1855
2125,1825
2126,1904
2127,1810
2128,1851
2129,1834
2130,1855
2131,1839
2132,1846
2133,1798
2134,1909
2135,1851
2136,1866
2137,1860
2138,1874
2139,1863
2140,1872
2141,1881
2142,1920
2143,1866
2144,1791
2145,1920
2146,1840
2147,1861
2148,1862
2149,1873
2150,1916
2151,1839
2152,1894
2153,1875
2154,1827
2155,1840
2156,1842
2157,1838
2158,1842
2159,1865
2160,1858
2161,1886
2162,1883
2163,1872
2164,1840
2165,1843
2166,1867
2167,1883
2168,1856
2169,1873
2170,1867
2171,1841
2172,1859
2173,1855
2174,1889
2175,1871
2176,1871
2177,1869
2178,1781
2179,1865
2180,1840
2181,1850
2182,1856
2183,1866
2184,1872
2185,1851
2186,1845
2187,1867
2188,1874
2189,1882
2190,1841
2191,1887
2192,1887
2193,1915
2194,1879
2195,1861
2196,1857
2197,1884
2198,1866
2199,1917
2200,1853
2201,1882
2202,1889
2203,1843
2204,1864
2205,1856
2206,1853
2207,1896
2208,1925
2209,1881
2210,1907
2211,1853
2212,1819
2213,1854
2214,1856
2215,1838
2216,1889
2217,1876
2218,1861
2219,1856
2220,1870
2221,1872
2222,1865
2223,1859
2224,1850
2225,1860
2226,1872
2227,1856
2228,1840
2229,1859
2230,1845
2231,1856
2232,1865
2233,1893
2234,1856
2235,1904
2236,1873
2237,1882
2238,1861
2239,1840
2240,1872
2241,1843
2242,1888
2243,1850
2244,1831
2245,1885
2246,1848
2247,1867
2248,1840
2249,1863
2250,1836
2251,1904
2252,1856
2253,1853
2254,1856
2255,1859
2256,1841
2257,1893
2258,1856
2259,1882
2260,1856
2261,1914
2262,1857
2263,1881
2264,1856
2265,1843
2266,1872
2267,1886
2268,1909
2269,1859
2270,1859
2271,1893
2272,1862
2273,1856
2274,1809
2275,1863
2276,1844
2277,1897
2278,1861
2279,1865
2280,1861
2281,1872
2282,1900
2283,1856
2284,1857
2285,1801
2286,1856
2287,1903
2288,1869
2289,1858
2290,1862
2291,1895
2292,1788
2293,1883
2294,1802
2295,1853
2296,1877
2297,1866
2298,1858
2299,1802
2300,1876
2301,1857
2302,1842
2303,1854
2304,1853
2305,1858
2306,1855
2307,1854
2308,1801
2309,1861
2310,1882
2311,1882
2312,1861
2313,1847
2314,1861
2315,1874
2316,1930
2317,1879
2318,1877
2319,1856
2320,1874
2321,1870
2322,1866
2323,1881
2324,1885
2325,1911
2326,1909
2327,1815
2328,1909
2329,1855
2330,1858
2331,1857
2332,1887
2333,1840
2334,1861
2335,1861
2336,1885
2337,1895
2338,1856
2339,1856
2340,1851
2341,1907
2342,1872
2343,1846
2344,1802
2345,1906
2346,1863
2347,1855
2348,817
2349,1903
2350,1947
2351,1957
2352,1942
2353,1969
2354,1903
2355,1882
2356,1889
2357,1887
2358,1943
2359,1878
2360,1883
2361,1872
2362,1867
2363,1861
2364,1875
2365,1857
2366,1886
2367,1790
2368,1823
2369,1840
2370,1857
2371,1872
2372,1860
2373,1877
2374,1885
2375,1888
2376,1879
2377,1856
2378,1878
2379,1450
2380,1825
2381,1954
2382,1945
2383,1967
2384,1872
2385,1934
2386,1863
2387,1904
2388,1889
2389,1885
2390,1906
2391,1903
2392,1936
2393,1839
2394,1887
2395,1889
2396,1847
2397,1858
2398,1877
2399,1858
2400,1863
2401,1871
2402,1855
2403,1872
2404,1879
2405,1859
2406,1861
2407,1854
2408,1921
2409,1861
2410,1833
2411,1698
2412,1936
2413,1947
2414,1929
2415,1910
2416,1928
2417,1906
2418,1823
2419,1936
2420,1906
2421,1875
2422,1876
2423,1858
2424,1911
2425,1875
2426,1879
2427,1840
2428,1907
2429,1856
2430,1865
2431,1863
2432,1839
2433,1890
2434,1873
2435,1900
2436,1871
2437,1879
2438,1875
2439,1874
2440,1872
2441,1912
2442,1577
2443,1921
2444,1953
2445,1930
2446,1924
2447,1918
2448,1905
2449,1905
2450,1896
2451,1911
2452,1904
2453,1872
2454,1887
2455,1856
2456,1872
2457,1904
2458,1843
2459,1902
2460,1862
2461,1855
2462,1865
2463,1853
2464,1878
2465,1872
2466,1899
2467,1915
2468,1851
2469,1840
2470,1872
2471,1866
2472,1882
2473,1453
2474,1998
2475,1906
2476,1920
2477,1921
2478,1907
2479,1907
2480,1904
2481,1904
2482,1873
2483,1877
2484,1931
2485,1891
2486,1870
2487,1899
2488,1846
2489,1843
2490,1871
2491,1904
2492,1898
2493,1897
2494,1869
2495,1861
2496,1863
2497,1842
2498,1857
2499,1861
2500,1808
2501,1875
2502,1874
2503,1855
2504,934
2505,1922
2506,1958
2507,1915
2508,1930
2509,1959
2510,1920
2511,1927
2512,1904
2513,1890
2514,1876
2515,1863
2516,1895
2517,1879
2518,1921
2519,1866
2520,1919
2521,1868
2522,1856
2523,1869
2524,1872
2525,1890
2526,1865
2527,1894
2528,1885
2529,1857
2530,1863
2531,1869
2532,1856
2533,1881
2534,1879
2535,652
2536,1904
2537,1973
2538,1963
2539,1955
2540,1861
2541,1952
2542,1907
2543,1945
2544,1820
2545,1866
2546,1877
2547,1853
2548,1872
2549,1840
2550,1847
2551,1898
2552,1858
2553,1830
2554,1859
2555,1851
2556,1875
2557,1855
2558,1866
2559,1890
2560,1872
2561,1871
2562,1872
2563,1874
2564,1863
2565,1843
2566,594
2567,1868
2568,1969
2569,1906
2570,1985
2571,1919
2572,1905
2573,1903
2574,1931
2575,1903
2576,1894
2577,1886
2578,1894
2579,1891
2580,1868
2581,1872
2582,1858
2583,1883
2584,1873
2585,1829
2586,1871
2587,1794
2588,1872
2589,1869
2590,1823
2591,1869
2592,1893
2593,1901
2594,1920
2595,1863
2596,1866
2597,976
2598,1831
2599,1909
2600,1966
2601,1937
2602,1903
2603,1967
2604,1899
2605,1887
2606,1903
2607,1874
2608,1879
2609,1904
2610,1881
2611,1899
2612,1878
2613,1883
2614,1872
2615,1871
2616,1862
2617,1866
2618,1875
2619,1886
2620,1867
2621,1861
2622,1863
2623,1857
2624,1867
2625,1868
2626,1889
2627,1906
2628,1496
2629,1739
2630,1989
2631,1968
2632,1887
2633,1946
2634,1946
2635,1968
2636,1893
2637,1915
2638,1892
2639,1876
2640,1923
2641,1904
2642,1904
2643,1887
2644,1899
2645,1865
2646,1879
2647,1886
2648,1865
2649,1883
2650,1797
2651,1867
2652,1815
2653,1914
2654,1877
2655,1893
2656,1851
2657,1856
2658,1878
2659,1890
2660,1570
2661,1963
2662,1971
2663,1947
2664,1936
2665,1918
2666,1853
2667,1959
2668,1904
2669,1895
2670,1916
2671,1872
2672,1909
2673,1882
2674,1892
2675,1872
2676,1861
2677,1838
2678,1893
2679,1868
2680,1856
2681,1870
2682,1891
2683,1851
2684,1904
2685,1882
2686,1880
2687,1866
2688,1860
2689,1882
2690,1889
2691,1417
2692,2015
2693,2026
2694,2023
2695,1968
2696,1927
2697,1934
2698,1905
2699,1906
2700,1935
2701,1872
2702,1893
2703,1936
2704,1856
2705,1881
2706,1879
2707,1887
2708,1913
2709,1868
2710,1827
2711,1901
2712,1869
2713,1868
2714,1865
2715,1867
2716,1914
2717,1858
2718,1903
2719,1907
2720,1869
2721,1857
2722,1108
2723,1961
2724,1923
2725,1968
2726,1884
2727,1909
2728,1840
2729,1904
2730,1879
2731,1904
2732,1937
2733,1923
2734,1821
2735,1873
2736,1937
2737,1817
2738,1853
2739,1857
2740,1873
2741,1856
2742,1840
2743,1885
2744,1862
2745,1856
2746,1859
2747,1856
2748,1871
2749,1856
2750,1849
2751,1863
2752,1790
2753,687
2754,1931
2755,1970
2756,1973
2757,1890
2758,1933
2759,1943
2760,1968
2761,1856
2762,1906
2763,1887
2764,1904
2765,1887
2766,1860
2767,1893
2768,1914
2769,1835
2770,1921
2771,1891
2772,1871
2773,1858
2774,1906
2775,1810
2776,1839
2777,1917
2778,1904
2779,1872
2780,1863
2781,1847
2782,1856
2783,1815
2784,395
2785,1931
2786,1968
2787,1963
2788,1946
2789,1916
2790,1879
2791,1908
2792,1914
2793,1840
2794,1888
2795,1890
2796,1886
2797,1885
2798,1870
2799,1858
2800,1904
2801,1872
2802,1869
2803,1887
2804,1867
2805,1878
2806,1853
2807,1797
2808,1870
2809,1866
2810,1920
2811,1872
2812,1827
2813,1858
2814,1845
2815,476
2816,1898
2817,2007
2818,1968
2819,1952
2820,1886
2821,1904
2822,1921
2823,1890
2824,1846
2825,1953
2826,1896
2827,1887
2828,1911
2829,1889
2830,1875
2831,1887
2832,1872
2833,1873
2834,1901
2835,1858
2836,1850
2837,1882
2838,1866
2839,1843
2840,1888
2841,1889
2842,1858
2843,1872
2844,1829
2845,1862
2846,1392
2847,1794
2848,1949
2849,1953
2850,1875
2851,1939
2852,1920
2853,1909
2854,1895
2855,1915
2856,1911
2857,1888
2858,1906
2859,1883
2860,1839
2861,1883
2862,1874
2863,1856
2864,1872
2865,1878
2866,1866
2867,1809
2868,1920
2869,1883
2870,1898
2871,1874
2872,1858
2873,1861
2874,1842
2875,1872
2876,1872
2877,1787
2878,1634
2879,1981
2880,1950
2881,1968
2882,1949
2883,1968
2884,1961
2885,1920
2886,1904
2887,1911
2888,1897
2889,1887
2890,1900
2891,1913
2892,1887
2893,1909
2894,1871
2895,1907
2896,1871
2897,1840
2898,1874
2899,1911
2900,1795
2901,1908
2902,1855
2903,1857
2904,1850
2905,1858
2906,1870
2907,1877
2908,1889
2909,1399
2910,1958
2911,1984
2912,1971
2913,1941
2914,1934
2915,1925
2916,1843
2917,1905
2918,1911
2919,1906
2920,1856
2921,1882
2922,1856
2923,1872
2924,1877
2925,1898
2926,1808
2927,1900
2928,1841
2929,1867
2930,1866
2931,1872
2932,1872
2933,1876
2934,1877
2935,1814
2936,1863
2937,1860
2938,1837
2939,1859
2940,1248
2941,1993
2942,2023
2943,1963
2944,1957
2945,1930
2946,1906
2947,1920
2948,1907
2949,1841
2950,1844
2951,1823
2952,1886
2953,1879
2954,1871
2955,1873
2956,1874
2957,1888
2958,1888
2959,1866
2960,1890
2961,1909
2962,1849
2963,1869
2964,1855
2965,1868
2966,1799
2967,1798
2968,1853
2969,1831
2970,1835
2971,1873
2972,1867
2973,1865
2974,1805
2975,1862
2976,1903
2977,1858
2978,1863
2979,1857
2980,1872
2981,1858
2982,1869
2983,1889
2984,1880
2985,1856
2986,1820
2987,1890
2988,1869
2989,1851
2990,1896
2991,1814
2992,1905
2993,1866
2994,1859
2995,1881
2996,1852
2997,1867
2998,1863
2999,1803
3000,1871
3001,1895
3002,1877
3003,1846
3004,1869
3005,1858
3006,1860
3007,1863
3008,1863
3009,1863
3010,1905
3011,1845
3012,1874
3013,1873
3014,1859
3015,1855
3016,1907
3017,1895
3018,1904
3019,1867
3020,1862
3021,1867
3022,1865
3023,1857
3024,1856
3025,1881
3026,1911
3027,1889
3028,1840
3029,1840
3030,1840
3031,1858
3032,1873
3033,1869
3034,1901
3035,1861
3036,1840
3037,1817
3038,1840
3039,1865
3040,1857
3041,1867
3042,1856
3043,1839
3044,1891
3045,1894
3046,1856
3047,1870
3048,1862
3049,1840
3050,1869
3051,1804
3052,1882
3053,1857
3054,1833
3055,1872
3056,1856
3057,1856
3058,1867
3059,1898
3060,1794
3061,1869
3062,1883
3063,1847
3064,1847
3065,1867
3066,1910
3067,1865
3068,1895
3069,1868
3070,1866
3071,1872
3072,1860
3073,1882
3074,1907
3075,1899
3076,1878
3077,1859
3078,1902
3079,1843
3080,1878
3081,1855
3082,1859
3083,1852
3084,1876
3085,1847
3086,1857
3087,1871
3088,1840
3089,1850
3090,1883
3091,1879
3092,1810
3093,1867
3094,1846
3095,1865
3096,1872
3097,1861
3098,1858
3099,1863
3100,1885
3101,1877
3102,1895
3103,1843
3104,1872
3105,1831
3106,1871
3107,1913
3108,1895
3109,1858
3110,1911
3111,1882
3112,1838
3113,1843
3114,1858
3115,1907
3116,1854
3117,1881
3118,1814
3119,1863
3120,1904
3121,1862
3122,1840
3123,1840
3124,1857
3125,1885
3126,1860
3127,1845
3128,1862
3129,1878
3130,1840
3131,1862
3132,1872
3133,1871
3134,1872
3135,1827
3136,1891
3137,1862
3138,1856
3139,1871
3140,1885
3141,1823
3142,1879
3143,1894
3144,1893
3145,1867
3146,1834
3147,1835
3148,1853
3149,1876
3150,1858
3151,1871
3152,1839
3153,1897
3154,1871
3155,1885
3156,1858
3157,1793
3158,1871
3159,1909
3160,1882
3161,1877
3162,1855
3163,1843
3164,1864
3165,1895
3166,1891
3167,1864
3168,1913
3169,1882
3170,1866
3171,1852
3172,1856
3173,1856
3174,1797
3175,1806
3176,1854
3177,1874
3178,1872
3179,1846
3180,1872
3181,1843
3182,1889
3183,1791
3184,1853
3185,1863
3186,1871
3187,1858
3188,1885
3189,1856
3190,1840
3191,1915
3192,1851
3193,1846
3194,1911
3195,1862
3196,1845
3197,1861
3198,1844
3199,1866
3200,1864
3201,1889
3202,1891
3203,1847
3204,1840
3205,1881
3206,1850
3207,1881
3208,1866
3209,1882
3210,1900
3211,1903
3212,1865
3213,1855
3214,1864
3215,1886
3216,1860
3217,1920
3218,1915
3219,1801
3220,1883
3221,1860
3222,1856
3223,1905
3224,1872
3225,1889
3226,1871
3227,1879
3228,1893
3229,1871
3230,1877
3231,1867
3232,1809
3233,1906
3234,1874
3235,1808
3236,1851
3237,1855
3238,1855
3239,1856
3240,1929
3241,1885
3242,1847
3243,1841
3244,1907
3245,1871
3246,1861
3247,1840
3248,1842
3249,1862
3250,1859
3251,1872
3252,1839
3253,1904
3254,1887
3255,1840
3256,1859
3257,1808
3258,1840
3259,1839
3260,1847
3261,1801
3262,1855
3263,1859
3264,1839
3265,1861
3266,1827
3267,1801
3268,1825
3269,1868
3270,1894
3271,1860
3272,1872
3273,1842
3274,1855
3275,1872
3276,1859
3277,1903
3278,1884
3279,1853
3280,1851
3281,1858
3282,1861
3283,1902
3284,1915
3285,1808
3286,1872
3287,1850
3288,1878
3289,1843
3290,1872
3291,1909
3292,1851
3293,1893
3294,1852
3295,1856
3296,1858
3297,1857
3298,1877
3299,1864
3300,1888
3301,1861
3302,1867
3303,1927
3304,1850
3305,1872
3306,1872
3307,1872
3308,1867
3309,1852
3310,1826
3311,1894
3312,1836
3313,1860
3314,1846
3315,1863
3316,1920
3317,1821
3318,1862
3319,1851
3320,1870
3321,1872
3322,1856
3323,1859
3324,1845
3325,1890
3326,1851
3327,1808
3328,1863
3329,1862
3330,1863
3331,1862
3332,1827
3333,1905
3334,1872
3335,1845
3336,1878
3337,1875
3338,1837
3339,1857
3340,1867
3341,1856
3342,1879
3343,1894
3344,1867
3345,1854
3346,1870
3347,1874
3348,1859
3349,1859
3350,1886
3351,1799
3352,1872
3353,1874
3354,1872
3355,1872
3356,1855
3357,1859
3358,1872
3359,1837
3360,1872
3361,1869
3362,1859
3363,1872
3364,1861
3365,1855
3366,1851
3367,1873
3368,1891
3369,1872
3370,1857
3371,1873
3372,1862
3373,1842
3374,1837
3375,1875
3376,1859
3377,1873
3378,1883
3379,1877
3380,1875
3381,1845
3382,1856
3383,1866
3384,1893
3385,1856
3386,1851
3387,1844
3388,1877
3389,1862
3390,1879
3391,1888
3392,1873
3393,1899
3394,1913
3395,1829
3396,1861
3397,1870
3398,1866
3399,1856
3400,1867
3401,1850
3402,1810
3403,1815
3404,1876
3405,1872
3406,1840
3407,1862
3408,1867
3409,1906
3410,1871
3411,1878
3412,1859
3413,1839
3414,1855
3415,1838
3416,1850
3417,1859
3418,1786
3419,1835
3420,1866
3421,1872
3422,1867
3423,1794
3424,1872
3425,1838
3426,1858
3427,1874
3428,1825
3429,1856
3430,1851
3431,1862
3432,1899
3433,1895
3434,1871
3435,1850
3436,1863
3437,1868
3438,1876
3439,1858
3440,1876
3441,1873
3442,1855
3443,1875
3444,1893
3445,1843
3446,1851
3447,1851
3448,1838
3449,1859
3450,1856
3451,1872
3452,1884
3453,1920
3454,1855
3455,1862
3456,1861
3457,1853
3458,1840
3459,1905
3460,1782
3461,1893
3462,1841
3463,1861
3464,1851
3465,1810
3466,1889
3467,1830
3468,1862
3469,1857
3470,1831
3471,1859
3472,1859
3473,1862
3474,1845
3475,1789
3476,1867
3477,1905
3478,1874
3479,1849
3480,1855
3481,1884
3482,1804
3483,1862
3484,1877
3485,1859
3486,1891
3487,1859
3488,1859
3489,1863
3490,1874
3491,1875
3492,1904
3493,1872
3494,1904
3495,1862
3496,1859
3497,1863
3498,1869
3499,1889
3500,1804
3501,1861
3502,1913
3503,1859
3504,1833
3505,1840
3506,1847
3507,1883
3508,1877
3509,1870
3510,1879
3511,1918
3512,1856
3513,1869
3514,1872
3515,1859
3516,1878
3517,1878
3518,1907
3519,1883
3520,1845
3521,1859
3522,1859
3523,1872
3524,1840
3525,1878
3526,1881
3527,1849
3528,1791
3529,1846
3530,1869
3531,1844
3532,1780
3533,1865
3534,1844
3535,1854
3536,1842
3537,1862
3538,1868
3539,1862
3540,1806
3541,1882
3542,1883
3543,1889
3544,1856
3545,1881
3546,1853
3547,1866
3548,1865
3549,1827
3550,1852
3551,1879
3552,1847
3553,1879
3554,1870
3555,1873
3556,1844
3557,1904
3558,1906
3559,1879
3560,1925
3561,1879
3562,1840
3563,1840
3564,1845
3565,1859
3566,1798
3567,1857
3568,1904
3569,1895
3570,1856
3571,1863
3572,1872
3573,1791
3574,1913
3575,1854
3576,1882
3577,1899
3578,1915
3579,1856
3580,1861
3581,1859
3582,1889
3583,1883
3584,1818
3585,1872
3586,1858
3587,1867
3588,1857
3589,1861
3590,1846
3591,1885
3592,1828
3593,1872
3594,1877
3595,1857
3596,1857
3597,1854
3598,1857
3599,1857
3600,1862
3601,1887
3602,1885
3603,1843
3604,1859
3605,1874
3606,1856
3607,1806
3608,1799
3609,1807
3610,1904
3611,1866
3612,1859
3613,1859
3614,1845
3615,1803
3616,1875
3617,1890
3618,1879
3619,1875
3620,1885
3621,1866
3622,1850
3623,1794
3624,1867
3625,1881
3626,1857
3627,1872
3628,1909
3629,1863
3630,1861
3631,1859
3632,1827
3633,1808
3634,1845
3635,1855
3636,1905
3637,1866
3638,1857
3639,1858
3640,1904
3641,1863
3642,1827
3643,1851
3644,1859
3645,1877
3646,1858
3647,1856
3648,1858
3649,1871
3650,1856
3651,1866
3652,1793
3653,1871
3654,1854
3655,1838
3656,1858
3657,1872
3658,1894
3659,1840
3660,1902
3661,1854
3662,1874
3663,1859
3664,1856
3665,1870
3666,1861
3667,1855
3668,1904
3669,1857
3670,1858
3671,1848
3672,1841
3673,1904
3674,1861
3675,1871
3676,1875
3677,1870
3678,1831
3679,1840
3680,1872
3681,1851
3682,1882
3683,1791
3684,1882
3685,1856
3686,1830
3687,1863
3688,1883
3689,1870
3690,1840
3691,1857
3692,1801
3693,1862
3694,1874
3695,1872
3696,1885
3697,1862
3698,1805
3699,1843
3700,1859
3701,1861
3702,1844
3703,1857
3704,1862
3705,1871
3706,1861
3707,1852
3708,1872
3709,1843
3710,1901
3711,1853
3712,1854
3713,1838
3714,1843
3715,1874
3716,1883
3717,1856
3718,1857
3719,1872
3720,1863
3721,1860
3722,1866
3723,1920
3724,1853
3725,1893
3726,1851
3727,1824
3728,1844
3729,1860
3730,1858
3731,1847
3732,1875
3733,1844
3734,1866
3735,1855
3736,1863
3737,1863
3738,1867
3739,1883
3740,1845
3741,1877
3742,1857
3743,1886
3744,1909
3745,1871
3746,1840
3747,1856
3748,1831
3749,1897
3750,1826
3751,1919
3752,1791
3753,1837
3754,1863
3755,1886
3756,1862
3757,1873
3758,1791
3759,1873
3760,1889
3761,1863
3762,1865
3763,1859
3764,1859
3765,1849
3766,1814
3767,1856
3768,1808
3769,1865
3770,1863
3771,1858
3772,1835
3773,1856
3774,1878
3775,1878
3776,1840
3777,1878
3778,1905
3779,1872
3780,1842
3781,1867
3782,1858
3783,1865
3784,1827
3785,1894
3786,1918
3787,1873
3788,1865
3789,1868
3790,1901
3791,1808
3792,1895
3793,1877
3794,1893
3795,1870
3796,1875
3797,1863
3798,1891
3799,1890
3800,1905
3801,1911
3802,1806
3803,1856
3804,1853
3805,1854
3806,1853
3807,1920
3808,1867
3809,1861
3810,1826
3811,1858
3812,1851
3813,1862
3814,1872
3815,1855
3816,1811
3817,1884
3818,1845
3819,1874
3820,1831
3821,1872
3822,1857
3823,1919
3824,1844
3825,1860
3826,1904
3827,1857
3828,1856
3829,1858
3830,1860
3831,1869
3832,1867
3833,1903
3834,1782
3835,1875
3836,1876
3837,1854
3838,1854
3839,1838
3840,1922
3841,1883
3842,1862
3843,1922
3844,1878
3845,1868
3846,1872
3847,1846
3848,1847
3849,1855
3850,1910
3851,1877
3852,1871
3853,1811
3854,1882
3855,1869
3856,1856
3857,1869
3858,1851
3859,1809
3860,1888
3861,1923
3862,1870
3863,1859
3864,1847
3865,1852
3866,1807
3867,1862
3868,1852
3869,1874
3870,1877
3871,1874
3872,1870
3873,1857
3874,1840
3875,1826
3876,1856
3877,1888
3878,1863
3879,1861
3880,1857
3881,1866
3882,1795
3883,1869
3884,1861
3885,1791
3886,1867
3887,1849
3888,1872
3889,1861
3890,1882
3891,1881
3892,1849
3893,1863
3894,1910
3895,1878
3896,1857
3897,1845
3898,1918
3899,1828
3900,1858
3901,1856
3902,1904
3903,1862
3904,1844
3905,1870
3906,1837
3907,1917
3908,1861
3909,1870
3910,1889
3911,1903
3912,1866
3913,1869
3914,1851
3915,1869
3916,1862
3917,1863
3918,1893
3919,1813
3920,1872
3921,1861
3922,1851
3923,1885
3924,1856
3925,1904
3926,1856
3927,1856
3928,1862
3929,1848
3930,1853
3931,1872
3932,1888
3933,1885
3934,1826
3935,1855
3936,1848
3937,1854
3938,1833
3939,1851
3940,1872
3941,1851
3942,1883
3943,1872
3944,1905
3945,1859
3946,1856
3947,1863
3948,1829
3949,1808
3950,1855
3951,1905
3952,1872
3953,1842
3954,1854
3955,1845
3956,1855
3957,1860
3958,1890
3959,1828
3960,1850
3961,1867
3962,1862
3963,1878
3964,1857
3965,1808
3966,1893
3967,1424
3968,1970
3969,1919
3970,1936
3971,1900
3972,1923
3973,1904
3974,1861
3975,1897
3976,1814
3977,1817
3978,1883
3979,1872
3980,1881
3981,1872
3982,1859
3983,1893
3984,1802
3985,1870
3986,1888
3987,1859
3988,1859
3989,1870
3990,1872
3991,1827
3992,1871
3993,1882
3994,1888
3995,1871
3996,1863
3997,1846
3998,1290
3999,1885
4000,1925
4001,1885
4002,1921
4003,1909
4004,1899
4005,1895
4006,1929
4007,1825
4008,1846
4009,1856
4010,1867
4011,1873
4012,1874
4013,1851
4014,1885
4015,1872
4016,1889
4017,1919
4018,1889
4019,1867
4020,1841
4021,1865
4022,1860
4023,1863
4024,1857
4025,1910
4026,1851
4027,1871
4028,1873
4029,816
4030,1909
4031,1962
4032,1934
4033,1927
4034,1955
4035,1929
4036,1908
4037,1906
4038,1904
4039,1889
4040,1840
4041,1918
4042,1897
4043,1890
4044,1870
4045,1843
4046,1855
4047,1859
4048,1839
4049,1870
4050,1823
4051,1875
4052,1847
4053,1840
4054,1858
4055,1872
4056,1870
4057,1863
4058,1922
4059,1883
4060,803
4061,1885
4062,1961
4063,1933
4064,1932
4065,1915
4066,1891
4067,1916
4068,1959
4069,1888
4070,1882
4071,1883
4072,1875
4073,1873
4074,1904
4075,1808
4076,1919
4077,1901
4078,1877
4079,1865
4080,1866
4081,1866
4082,1909
4083,1890
4084,1906
4085,1845
4086,1801
4087,1871
4088,1850
4089,1867
4090,1828
4091,945
4092,1798
4093,1961
4094,1986
4095,1916
4096,1923
4097,1910
4098,1963
4099,1890
4100,1935
4101,1891
4102,1881
4103,1885
4104,1869
4105,1872
4106,1872
4107,1877
4108,1917
4109,1797
4110,1870
4111,1907
4112,1875
4113,1866
4114,1887
4115,1852
4116,1904
4117,1918
4118,1867
4119,1859
4120,1856
4121,1843
4122,1643
4123,1840
4124,1978
4125,1969
4126,1984
4127,1925
4128,1915
4129,1915
4130,1897
4131,1893
4132,1931
4133,1901
4134,1879
4135,1885
4136,1868
4137,1869
4138,1858
4139,1867
4140,1894
4141,1872
4142,1872
4143,1874
4144,1856
4145,1869
4146,1863
4147,1856
4148,1872
4149,1863
4150,1889
4151,1887
4152,1790
4153,1834
4154,1650
4155,1933
4156,1905
4157,1938
4158,1946
4159,1954
4160,1903
4161,1904
4162,1899
4163,1871
4164,1871
4165,1900
4166,1839
4167,1905
4168,1919
4169,1873
4170,1869
4171,1872
4172,1853
4173,1817
4174,1801
4175,1814
4176,1820
4177,1854
4178,1841
4179,1865
4180,1865
4181,1862
4182,1865
4183,1865
4184,1872
4185,1328
4186,1947
4187,1973
4188,1951
4189,1957
4190,1968
4191,1939
4192,1858
4193,1842
4194,1918
4195,1863
4196,1891
4197,1882
4198,1899
4199,1887
4200,1902
4201,1856
4202,1817
4203,1917
4204,1860
4205,1868
4206,1837
4207,1899
4208,1887
4209,1840
4210,1877
4211,1897
4212,1862
4213,1858
4214,1878
4215,1825
4216,877
4217,1965
4218,1945
4219,1941
4220,1943
4221,1919
4222,1923
4223,1925
4224,1929
4225,1874
4226,1895
4227,1854
4228,1878
4229,1897
4230,1875
4231,1888
4232,1866
4233,1818
4234,1878
4235,1872
4236,1895
4237,1849
4238,1879
4239,1872
4240,1850
4241,1872
4242,1877
4243,1841
4244,1920
4245,1866
4246,1881
4247,681
4248,1922
4249,1984
4250,1882
4251,1900
4252,1931
4253,1882
4254,1903
4255,1881
4256,1898
4257,1929
4258,1868
4259,1862
4260,1872
4261,1894
4262,1884
4263,1893
4264,1861
4265,1889
4266,1910
4267,1866
4268,1869
4269,1916
4270,1890
4271,1859
4272,1869
4273,1911
4274,1914
4275,1924
4276,1877
4277,1808
4278,623
4279,1905
4280,1962
4281,1920
4282,1924
4283,1958
4284,1905
4285,1897
4286,1887
4287,1894
4288,1883
4289,1882
4290,1904
4291,1911
4292,1855
4293,1862
4294,1903
4295,1881
4296,1884
4297,1865
4298,1875
4299,1855
4300,1856
4301,1872
4302,1839
4303,1904
4304,1850
4305,1872
4306,1918
4307,1878
4308,1830
4309,798
4310,1829
4311,1975
4312,1954
4313,1926
4314,1933
4315,1961
4316,1909
4317,1889
4318,1936
4319,1894
4320,1872
4321,1888
4322,1862
4323,1842
4324,1893
4325,1862
4326,1871
4327,1878
4328,1871
4329,1863
4330,1872
4331,1867
4332,1890
4333,1877
4334,1893
4335,1867
4336,1850
4337,1865
4338,1862
4339,1857
4340,1327
4341,1803
4342,1958
4343,1904
4344,1930
4345,1930
4346,1910
4347,1899
4348,1895
4349,1891
4350,1911
4351,1821
4352,1904
4353,1911
4354,1874
4355,1874
4356,1885
4357,1902
4358,1894
4359,1920
4360,1896
4361,1920
4362,1861
4363,1861
4364,1864
4365,1886
4366,1854
4367,1915
4368,1825
4369,1900
4370,1846
4371,1845
4372,1682
4373,1947
4374,1963
4375,1951
4376,1950
4377,1911
4378,1920
4379,1904
4380,1882
4381,1855
4382,1882
4383,1877
4384,1913
4385,1857
4386,1921
4387,1851
4388,1871
4389,1870
4390,1879
4391,1873
4392,1897
4393,1827
4394,1911
4395,1863
4396,1873
4397,1863
4398,1883
4399,1841
4400,1853
4401,1858
4402,1868
4403,1360
4404,1955
4405,1962
4406,1881
4407,1936
4408,1987
4409,1918
4410,1913
4411,1897
4412,1879
4413,1891
4414,1907
4415,1872
4416,1917
4417,1929
4418,1895
4419,1805
4420,1858
4421,1842
4422,1846
4423,1888
4424,1861
4425,1872
4426,1857
4427,1861
4428,1860
4429,1877
4430,1855
4431,1866
4432,1867
4433,1872
4434,1253
4435,1949
4436,1982
4437,1924
4438,1932
4439,1938
4440,1914
4441,1935
4442,1903
4443,1941
4444,1901
4445,1891
4446,1883
4447,1870
4448,1846
4449,1872
4450,1872
4451,1887
4452,1904
4453,1869
4454,1889
4455,1864
4456,1857
4457,1801
4458,1927
4459,1870
4460,1878
4461,1876
4462,1839
4463,1854
4464,1856
4465,753
4466,1930
4467,1969
4468,1974
4469,1963
4470,1936
4471,1904
4472,1927
4473,1901
4474,1911
4475,1909
4476,1930
4477,1938
4478,1870
4479,1856
4480,1866
4481,1873
4482,1842
4483,1929
4484,1860
4485,1872
4486,1912
4487,1867
4488,1881
4489,1867
4490,1840
4491,1805
4492,1873
4493,1847
4494,1791
4495,1845
4496,557
4497,1923
4498,1982
4499,1921
4500,1943
4501,1860
4502,1913
4503,1875
4504,1894
4505,1886
4506,1941
4507,1901
4508,1929
4509,1891
4510,1927
4511,1872
4512,1874
4513,1872
4514,1872
4515,1870
4516,1839
4517,1897
4518,1857
4519,1909
4520,1872
4521,1861
4522,1841
4523,1866
4524,1863
4525,1858
4526,1857
4527,673
4528,1869
4529,1963
4530,1962
4531,1987
4532,1936
4533,1936
4534,1963
4535,1909
4536,1886
4537,1873
4538,1893
4539,1883
4540,1810
4541,1803
4542,1850
4543,1864
4544,1861
4545,1870
4546,1867
4547,1857
4548,1900
4549,1841
4550,1923
4551,1898
4552,1840
4553,1841
4554,1835
4555,1859
4556,1920
4557,1894
4558,1227
4559,1819
4560,1999
4561,1978
4562,1945
4563,1945
4564,1910
4565,1916
4566,1904
4567,1958
4568,1904
4569,1919
4570,1871
4571,1887
4572,1861
4573,1871
4574,1903
4575,1918
4576,1875
4577,1900
4578,1870
4579,1860
4580,1858
4581,1872
4582,1883
4583,1806
4584,1898
4585,1916
4586,1879
4587,1865
4588,1859
4589,1898
4590,1837
4591,1857
4592,1898
4593,1883
4594,1889
4595,1867
4596,1866
4597,1871
4598,1818
4599,1813
4600,1872
4601,1882
4602,1790
4603,1884
4604,1839
4605,1841
4606,1897
4607,1855
4608,1858
4609,1847
4610,1911
4611,1861
4612,1846
4613,1853
4614,1859
4615,1865
4616,1797
4617,1875
4618,1850
4619,1854
4620,1872
4621,1859
4622,1875
4623,1888
4624,1871
4625,1867
4626,1863
4627,1835
4628,1879
4629,1858
4630,1853
4631,1883
4632,1888
4633,1855
4634,1861
4635,1891
4636,1858
4637,1855
4638,1865
4639,1821
4640,1918
4641,1899
4642,1891
4643,1872
4644,1855
4645,1856
4646,1868
4647,1856
4648,1884
4649,1893
4650,1874
4651,1879
4652,1857
4653,1862
4654,1873
4655,1841
4656,1875
4657,1892
4658,1868
4659,1891
4660,1873
4661,1873
4662,1873
4663,1856
4664,1856
4665,1887
4666,1797
4667,1867
4668,1791
4669,1903
4670,1856
4671,1877
4672,1850
4673,1906
4674,1875
4675,1818
4676,1854
4677,1907
4678,1869
4679,1857
4680,1879
4681,1840
4682,1887
4683,1913
4684,1867
4685,1886
4686,1872
4687,1856
4688,1870
4689,1808
4690,1882
4691,1831
4692,1872
4693,1855
4694,1889
4695,1866
4696,1847
4697,1871
4698,1855
4699,1859
4700,1808
4701,1851
4702,1908
4703,1841
4704,1857
4705,1865
4706,1897
4707,1822
4708,1873
4709,1918
4710,1904
4711,1840
4712,1847
4713,1872
4714,1856
4715,1821
4716,1856
4717,1885
4718,1876
4719,1862
4720,1867
4721,1894
4722,1857
4723,1914
4724,1799
4725,1874
4726,1835
4727,1879
4728,1845
4729,1843
4730,1858
4731,1868
4732,1872
4733,1856
4734,1858
4735,1910
4736,1851
4737,1843
4738,1842
4739,1856
4740,1862
4741,1872
4742,1862
4743,1875
4744,1879
4745,1839
4746,1854
4747,1847
4748,1840
4749,1846
4750,1869
4751,1835
4752,1863
4753,1862
4754,1859
4755,1865
4756,1882
4757,1838
4758,1846
4759,1874
4760,1873
4761,1851
4762,1841
4763,1856
4764,1843
4765,1889
4766,1891
4767,1877
4768,1875
4769,1859
4770,1867
4771,1875
4772,1883
4773,1850
4774,1856
4775,1863
4776,1894
4777,1903
4778,1856
4779,1863
4780,1872
4781,1883
4782,1895
4783,1859
4784,1872
4785,1807
4786,1831
4787,1851
4788,1858
4789,1903
4790,1870
4791,1868
4792,1902
4793,1862
4794,1815
4795,1843
4796,1856
4797,1863
4798,1808
4799,1872
4800,1867
4801,1861
4802,1871
4803,1870
4804,1857
4805,1839
4806,1903
4807,1837
4808,1915
4809,1891
4810,1776
4811,1840
4812,1872
4813,1874
4814,1858
4815,1925
4816,1785
4817,1903
4818,1901
4819,1854
4820,1859
4821,1881
4822,1842
4823,1893
4824,1866
4825,1904
4826,1857
4827,1862
4828,1871
4829,1868
4830,1875
4831,1851
4832,1871
4833,1855
4834,1873
4835,1906
4836,1846
4837,1840
4838,1859
4839,1904
4840,1872
4841,1914
4842,1808
4843,1819
4844,1867
4845,1861
4846,1843
4847,1872
4848,1918
4849,1899
4850,1890
4851,1858
4852,1862
4853,1835
4854,1843
4855,1838
4856,1885
4857,1815
4858,1887
4859,1860
4860,1872
4861,1861
4862,1850
4863,1850
4864,1867
4865,1840
4866,1889
4867,1799
4868,1878
4869,1874
4870,1856
4871,1863
4872,1859
4873,1907
4874,1795
4875,1863
4876,1901
4877,1911
4878,1863
4879,1861
4880,1840
4881,1872
4882,1890
4883,1796
4884,1867
4885,1874
4886,1875
4887,1872
4888,1856
4889,1875
4890,1907
4891,1891
4892,1883
4893,1856
4894,1862
4895,1846
4896,1858
4897,1861
4898,1873
4899,1809
4900,1890
4901,1899
4902,1894
4903,1843
4904,1863
4905,1881
4906,1872
4907,1842
4908,1843
4909,1882
4910,1857
4911,1864
4912,1862
4913,1856
4914,1843
4915,1851
4916,1898
4917,1926
4918,1857
4919,1862
4920,1840
4921,1879
4922,1842
4923,1794
4924,1860
4925,1885
4926,1866
4927,1851
4928,1861
4929,1859
4930,1862
4931,1883
4932,1872
4933,1791
4934,1814
4935,1862
4936,1885
4937,1872
4938,1855
4939,1887
4940,1801
4941,1907
4942,1920
4943,1846
4944,1900
4945,1841
4946,1843
4947,1839
4948,1840
4949,1857
4950,1841
4951,1847
4952,1865
4953,1873
4954,1867
4955,1858
4956,1793
4957,1898
4958,1915
4959,1813
4960,1920
4961,1888
4962,1859
4963,1847
4964,1859
4965,1857
4966,1917
4967,1853
4968,1920
4969,1847
4970,1840
4971,1852
4972,1867
4973,1915
4974,1882
4975,1859
4976,1882
4977,1783
4978,1850
4979,1872
4980,1867
4981,1842
4982,1883
4983,1872
4984,1867
4985,1830
4986,1825
4987,1856
4988,1866
4989,1802
4990,1872
4991,1901
4992,1829
4993,1863
4994,1894
4995,1875
4996,1858
4997,1870
4998,1868
4999,1887
5000,1872
5001,1867
5002,1874
5003,1839
5004,1863
5005,1842
5006,1841
5007,1866
5008,1878
5009,1866
5010,1895
5011,1872
5012,1869
5013,1860
5014,1863
5015,1887
5016,1872
5017,1840
5018,1904
5019,1872
5020,1840
5021,1885
5022,1842
5023,1850
5024,1866
5025,1886
5026,1863
5027,1917
5028,1872
5029,1846
5030,1841
5031,1868
5032,1870
5033,1871
5034,1882
5035,1786
5036,1841
5037,1831
5038,1863
5039,1855
5040,1906
5041,1911
5042,1857
5043,1810
5044,1854
5045,1873
5046,1865
5047,1857
5048,1915
5049,1880
5050,1854
5051,1890
5052,1894
5053,1867
5054,1862
5055,1866
5056,1875
5057,1878
5058,1886
5059,1893
5060,1894
5061,1887
5062,1855
5063,1856
5064,1836
5065,1792
5066,1802
5067,1854
5068,1855
5069,1868
5070,1872
5071,1872
5072,1868
5073,1901
5074,1861
5075,1854
5076,1800
5077,1855
5078,1861
5079,1843
5080,1872
5081,1851
5082,1921
5083,1856
5084,1839
5085,1868
5086,1861
5087,1861
5088,1873
5089,1863
5090,1860
5091,1891
5092,1847
5093,1913
5094,1835
5095,1835
5096,1857
5097,1860
5098,1889
5099,1841
5100,1849
5101,1776
5102,1886
5103,1837
5104,1869
5105,1878
5106,1871
5107,1852
5108,1871
5109,1859
5110,1863
5111,1861
5112,1861
5113,1855
5114,1838
5115,1886
5116,1892
5117,1859
5118,1811
5119,1872
5120,1857
5121,1872
5122,1833
5123,1851
5124,1867
5125,1920
5126,1853
5127,1853
5128,1867
5129,1863
5130,1859
5131,1873
5132,1866
5133,1886
5134,1854
5135,1889
5136,1853
5137,1872
5138,1872
5139,1827
5140,1863
5141,1895
5142,1897
5143,1821
5144,1915
5145,1870
5146,1859
5147,1851
5148,1875
5149,1846
5150,1873
5151,1906
5152,1835
5153,1832
5154,1837
5155,1856
5156,1876
5157,1866
5158,1800
5159,1901
5160,1882
5161,1865
5162,1846
5163,1860
5164,1885
5165,1906
5166,1808
5167,1851
5168,1846
5169,1817
5170,1843
5171,1859
5172,1861
5173,1853
5174,1856
5175,1906
5176,1839
5177,1871
5178,1876
5179,1874
5180,1866
5181,1875
5182,1769
5183,1823
5184,1872
5185,1911
5186,1881
5187,1863
5188,1856
5189,1875
5190,1806
5191,1863
5192,1872
5193,1860
5194,1857
5195,1863
5196,1873
5197,1865
5198,1876
5199,1865
5200,1907
5201,1872
5202,1895
5203,1864
5204,1858
5205,1842
5206,1826
5207,1919
5208,1863
5209,1872
5210,1894
5211,1858
5212,1845
5213,1863
5214,1860
5215,1850
5216,1807
5217,1862
5218,1874
5219,1865
5220,1870
5221,1856
5222,1873
5223,1910
5224,1874
5225,1904
5226,1865
5227,1911
5228,1861
5229,1854
5230,1871
5231,1882
5232,1870
5233,1818
5234,1859
5235,1808
5236,1861
5237,1866
5238,1867
5239,1847
5240,1890
5241,1847
5242,1894
5243,1856
5244,1859
5245,1863
5246,1837
5247,1855
5248,1861
5249,1785
5250,1877
5251,1871
5252,1795
5253,1859
5254,1871
5255,1857
5256,1862
5257,1850
5258,1898
5259,1875
5260,1865
5261,1871
5262,1872
5263,1860
5264,1852
5265,1866
5266,1853
5267,1848
5268,1857
5269,1860
5270,1850
5271,1838
5272,1833
5273,1879
5274,1871
5275,1915
5276,1859
5277,1877
5278,1872
5279,1863
5280,1872
5281,1844
5282,1860
5283,1877
5284,1845
5285,1901
5286,1878
5287,1856
5288,1869
5289,1825
5290,1863
5291,1893
5292,1867
5293,1857
5294,1841
5295,1865
5296,1866
5297,1847
5298,1850
5299,1868
5300,1874
5301,1879
5302,1859
5303,1853
5304,1869
5305,1856
5306,1860
5307,1931
5308,1842
5309,1904
5310,1862
5311,1862
5312,1844
5313,1866
5314,1872
5315,1872
5316,1813
5317,1869
5318,1854
5319,1872
5320,1858
5321,1842
5322,1860
5323,1863
5324,1862
5325,1836
5326,1879
5327,1870
5328,1872
5329,1869
5330,1855
5331,1889
5332,1915
5333,1863
5334,1883
5335,1914
5336,1856
5337,1856
5338,1872
5339,1861
5340,1867
5341,1806
5342,1875
5343,1840
5344,1859
5345,1870
5346,1860
5347,1857
5348,1899
5349,1835
5350,1853
5351,1881
5352,1866
5353,1859
5354,1865
5355,1872
5356,1863
5357,1882
5358,1879
5359,1899
5360,1872
5361,1838
5362,1839
5363,1872
5364,1812
5365,1881
5366,1888
5367,1873
5368,1862
5369,1787
5370,1856
5371,1863
5372,1897
5373,1871
5374,1898
5375,1872
5376,1919
5377,1917
5378,1862
5379,1869
5380,1856
5381,1910
5382,1909
5383,1855
5384,1851
5385,1801
5386,1839
5387,1873
5388,1863
5389,1863
5390,1856
5391,1840
5392,1894
5393,1874
5394,1871
5395,1854
5396,1855
5397,1873
5398,1849
5399,1802
5400,1866
5401,1846
5402,1909
5403,1855
5404,1862
5405,1859
5406,1914
5407,1895
5408,1869
5409,1862
5410,1790
5411,1844
5412,1843
5413,1858
5414,1861
5415,1842
5416,1874
5417,1883
5418,1869
5419,1791
5420,1873
5421,1839
5422,1872
5423,1902
5424,1798
5425,1854
5426,1840
5427,1861
5428,1871
5429,1872
5430,1847
5431,1847
5432,1919
5433,1869
5434,1911
5435,1869
5436,1894
5437,1840
5438,1879
5439,1886
5440,1891
5441,1838
5442,1791
5443,1860
5444,1867
5445,1863
5446,1862
5447,1878
5448,1891
5449,1846
5450,1791
5451,1872
5452,1879
5453,1868
5454,1821
5455,1843
5456,1809
5457,1866
5458,1835
5459,1855
5460,1901
5461,1840
5462,1875
5463,1859
5464,1853
5465,1791
5466,1857
5467,1862
5468,1855
5469,1864
5470,1861
5471,1857
5472,1870
5473,1823
5474,1819
5475,1846
5476,1840
5477,1856
5478,1875
5479,1872
5480,1842
5481,1879
5482,1807
5483,1859
5484,1847
5485,1842
5486,1847
5487,1845
5488,1862
5489,1914
5490,1847
5491,1861
5492,1873
5493,1885
5494,1859
5495,1861
5496,1858
5497,1861
5498,1903
5499,1867
5500,1890
5501,1859
5502,1872
5503,1851
5504,1878
5505,1842
5506,1882
5507,1878
5508,1911
5509,1856
5510,1835
5511,1841
5512,1872
5513,1863
5514,1841
5515,1908
5516,1862
5517,1859
5518,1887
5519,1846
5520,1857
5521,1841
5522,1874
5523,1901
5524,1831
5525,1855
5526,1855
5527,1845
5528,1847
5529,1867
5530,1858
5531,1872
5532,1925
5533,1870
5534,1873
5535,1858
5536,1872
5537,1886
5538,1863
5539,1921
5540,1890
5541,1872
5542,1896
5543,1904
5544,1852
5545,1856
5546,1862
5547,1857
5548,1841
5549,1851
5550,1831
5551,1861
5552,1802
5553,1840
5554,1863
5555,1858
5556,1891
5557,1859
5558,1918
5559,1879
5560,1859
5561,1841
5562,1846
5563,1861
5564,1793
5565,1856
5566,1863
5567,1794
5568,1871
5569,1855
5570,1855
5571,1845
5572,1851
5573,1845
5574,1845
5575,1844
5576,1865
5577,1856
5578,1862
5579,1854
5580,1862
5581,1890
5582,1842
5583,1872
5584,1869
5585,1808
5586,1802
5587,1936
5588,1936
5589,1952
5590,1903
5591,1882
5592,1894
5593,1895
5594,1886
5595,1866
5596,1875
5597,1877
5598,1872
5599,1798
5600,1905
5601,1823
5602,1853
5603,1841
5604,1856
5605,1840
5606,1873
5607,1872
5608,1820
5609,1857
5610,1903
5611,1866
5612,1862
5613,1861
5614,1850
5615,1879
5616,1811
5617,1719
5618,1968
5619,1995
5620,1904
5621,1919
5622,1917
5623,1860
5624,1904
5625,1875
5626,1878
5627,1897
5628,1891
5629,1887
5630,1888
5631,1872
5632,1919
5633,1801
5634,1871
5635,1854
5636,1835
5637,1856
5638,1851
5639,1874
5640,1808
5641,1842
5642,1841
5643,1857
5644,1872
5645,1840
5646,1847
5647,1849
5648,1557
5649,1932
5650,1950
5651,1872
5652,1915
5653,1899
5654,1903
5655,1901
5656,1904
5657,1904
5658,1887
5659,1886
5660,1878
5661,1870
5662,1861
5663,1879
5664,1885
5665,1898
5666,1830
5667,1907
5668,1846
5669,1859
5670,1861
5671,1867
5672,1834
5673,1894
5674,1872
5675,1881
5676,1920
5677,1867
5678,1865
5679,1397
5680,1938
5681,1866
5682,1965
5683,1931
5684,1921
5685,1919
5686,1907
5687,1901
5688,1902
5689,1878
5690,1872
5691,1814
5692,1861
5693,1911
5694,1856
5695,1863
5696,1855
5697,1856
5698,1865
5699,1850
5700,1888
5701,1884
5702,1808
5703,1890
5704,1890
5705,1869
5706,1859
5707,1870
5708,1864
5709,1867
5710,746
5711,1934
5712,1971
5713,1961
5714,1933
5715,1922
5716,1905
5717,1907
5718,1826
5719,1888
5720,1894
5721,1887
5722,1901
5723,1875
5724,1856
5725,1885
5726,1809
5727,1878
5728,1843
5729,1870
5730,1853
5731,1855
5732,1873
5733,1889
5734,1874
5735,1802
5736,1865
5737,1868
5738,1863
5739,1850
5740,1891
5741,624
5742,1874
5743,2000
5744,1948
5745,1949
5746,1936
5747,1903
5748,1870
5749,1885
5750,1918
5751,1902
5752,1867
5753,1872
5754,1901
5755,1883
5756,1847
5757,1901
5758,1874
5759,1873
5760,1867
5761,1846
5762,1883
5763,1875
5764,1825
5765,1821
5766,1859
5767,1903
5768,1878
5769,1837
5770,1872
5771,1883
5772,721
5773,1890
5774,2000
5775,1911
5776,1968
5777,1959
5778,1919
5779,1908
5780,1893
5781,1905
5782,1931
5783,1888
5784,1872
5785,1855
5786,1872
5787,1873
5788,1872
5789,1899
5790,1815
5791,1852
5792,1887
5793,1834
5794,1867
5795,1871
5796,1861
5797,1867
5798,1927
5799,1870
5800,1872
5801,1898
5802,1927
5803,1456
5804,1777
5805,1974
5806,1990
5807,1949
5808,1923
5809,1886
5810,1904
5811,1911
5812,1890
5813,1882
5814,1866
5815,1887
5816,1919
5817,1888
5818,1887
5819,1872
5820,1871
5821,1851
5822,1858
5823,1856
5824,1854
5825,1870
5826,1861
5827,1899
5828,1861
5829,1856
5830,1875
5831,1893
5832,1911
5833,1850
5834,1886
5835,1760
5836,1949
5837,1967
5838,1959
5839,1936
5840,1915
5841,1904
5842,1893
5843,1903
5844,1871
5845,1883
5846,1862
5847,1899
5848,1907
5849,1824
5850,1871
5851,1879
5852,1857
5853,1884
5854,1877
5855,1892
5856,1811
5857,1809
5858,1863
5859,1872
5860,1871
5861,1864
5862,1861
5863,1858
5864,1861
5865,1856
5866,1429
5867,1978
5868,1985
5869,1935
5870,1936
5871,1943
5872,1856
5873,1881
5874,1906
5875,1897
5876,1904
5877,1859
5878,1883
5879,1864
5880,1876
5881,1899
5882,1898
5883,1857
5884,1808
5885,1872
5886,1878
5887,1869
5888,1870
5889,1911
5890,1865
5891,1873
5892,1883
5893,1886
5894,1854
5895,1872
5896,1860
5897,1322
5898,1943
5899,1939
5900,1947
5901,1962
5902,1920
5903,1894
5904,1877
5905,1879
5906,1884
5907,1892
5908,1907
5909,1872
5910,1901
5911,1887
5912,1870
5913,1857
5914,1872
5915,1872
5916,1904
5917,1923
5918,1912
5919,1857
5920,1879
5921,1866
5922,1865
5923,1854
5924,1886
5925,1861
5926,1856
5927,1885
5928,1073
5929,1934
5930,1968
5931,1968
5932,1897
5933,1945
5934,1899
5935,1920
5936,1883
5937,1861
5938,1890
5939,1934
5940,1824
5941,1927
5942,1902
5943,1879
5944,1872
5945,1882
5946,1872
5947,1894
5948,1915
5949,1927
5950,1797
5951,1879
5952,1904
5953,1867
5954,1858
5955,1884
5956,1902
5957,1826
5958,1858
5959,539
5960,1892
5961,1961
5962,1951
5963,1936
5964,1949
5965,1943
5966,1923
5967,1906
5968,1918
5969,1924
5970,1887
5971,1883
5972,1852
5973,1868
5974,1862
5975,1868
5976,1918
5977,1887
5978,1883
5979,1862
5980,1866
5981,1847
5982,1883
5983,1872
5984,1920
5985,1893
5986,1846
5987,1829
5988,1867
5989,1804
5990,575
5991,1862
5992,1904
5993,1952
5994,1939
5995,1915
5996,1923
5997,1927
5998,1887
5999,1931
6000,1932
6001,1895
6002,1885
6003,1865
6004,1856
6005,1855
6006,1835
6007,1875
6008,1878
6009,1878
6010,1799
6011,1856
6012,1866
6013,1871
6014,1872
6015,1887
6016,1843
6017,1882
6018,1857
6019,1879
6020,1859
6021,1103
6022,1817
6023,1949
6024,1999
6025,1957
6026,1957
6027,1929
6028,1890
6029,1882
6030,1906
6031,1914
6032,1871
6033,1934
6034,1835
6035,1934
6036,1867
6037,1885
6038,1885
6039,1916
6040,1898
6041,1861
6042,1870
6043,1808
6044,1867
6045,1857
6046,1867
6047,1797
6048,1818
6049,1859
6050,1824
6051,1854
6052,1827
6053,1727
6054,1957
6055,1951
6056,1946
6057,1947
6058,1908
6059,1920
6060,1910
6061,1883
6062,1889
6063,1874
6064,1931
6065,1863
6066,1867
6067,1872
6068,1919
6069,1903
6070,1877
6071,1857
6072,1923
6073,1866
6074,1872
6075,1797
6076,1882
6077,1877
6078,1850
6079,1859
6080,1843
6081,1889
6082,1894
6083,1868
6084,1516
6085,1911
6086,1972
6087,1957
6088,1936
6089,1920
6090,1923
6091,1933
6092,1898
6093,1889
6094,1866
6095,1891
6096,1883
6097,1901
6098,1877
6099,1918
6100,1857
6101,1869
6102,1870
6103,1867
6104,1882
6105,1873
6106,1884
6107,1865
6108,1866
6109,1872
6110,1907
6111,1857
6112,1867
6113,1851
6114,1791
6115,1376
6116,1959
6117,1987
6118,1898
6119,1940
6120,1922
6121,1926
6122,1893
6123,1904
6124,1903
6125,1913
6126,1872
6127,1918
6128,1870
6129,1887
6130,1893
6131,1919
6132,1873
6133,1899
6134,1874
6135,1808
6136,1861
6137,1881
6138,1882
6139,1919
6140,1815
6141,1872
6142,1856
6143,1872
6144,1866
6145,1870
6146,1216
6147,1957
6148,1950
6149,1961
6150,1968
6151,1872
6152,1899
6153,1899
6154,1898
6155,1894
6156,1937
6157,1904
6158,1894
6159,1905
6160,1872
6161,1870
6162,1853
6163,1852
6164,1899
6165,1885
6166,1850
6167,1901
6168,1877
6169,1872
6170,1840
6171,1883
6172,1795
6173,1883
6174,1879
6175,1903
6176,1863
6177,645
6178,1923
6179,1962
6180,1958
6181,1974
6182,1980
6183,1948
6184,1909
6185,1950
6186,1895
6187,1891
6188,1862
6189,1895
6190,1904
6191,1894
6192,1843
6193,1903
6194,1872
6195,1866
6196,1872
6197,1919
6198,1854
6199,1872
6200,1885
6201,1872
6202,1865
6203,1851
6204,1853
6205,1889
6206,1801
6207,1902
6208,1853
6209,1910
6210,1821
6211,1872
6212,1853
6213,1872
6214,1891
6215,1813
6216,1888
6217,1922
6218,1830
6219,1876
6220,1863
6221,1863
6222,1922
6223,1886
6224,1862
6225,1882
6226,1883
6227,1851
6228,1863
6229,1856
6230,1875
6231,1861
6232,1856
6233,1827
6234,1840
6235,1847
6236,1878
6237,1856
6238,1863
6239,1816
6240,1883
6241,1843
6242,1861
6243,1870
6244,1863
6245,1862
6246,1846
6247,1885
6248,1854
6249,1879
6250,1907
6251,1797
6252,1856
6253,1861
6254,1857
6255,1861
6256,1874
6257,1844
6258,1854
6259,1794
6260,1861
6261,1857
6262,1873
6263,1840
6264,1855
6265,1875
6266,1858
6267,1894
6268,1841
6269,1840
6270,1875
6271,1860
6272,1898
6273,1873
6274,1883
6275,1891
6276,1894
6277,1877
6278,1862
6279,1869
6280,1861
6281,1856
6282,1885
6283,1892
6284,1895
6285,1858
6286,1856
6287,1835
6288,1851
6289,1862
6290,1865
6291,1872
6292,1850
6293,1856
6294,1854
6295,1840
6296,1856
6297,1906
6298,1824
6299,1801
6300,1865
6301,1863
6302,1862
6303,1870
6304,1876
6305,1850
6306,1905
6307,1803
6308,1877
6309,1923
6310,1861
6311,1850
6312,1854
6313,1855
6314,1840
6315,1879
6316,1793
6317,1890
6318,1887
6319,1845
6320,1856
6321,1861
6322,1907
6323,1861
6324,1905
6325,1875
6326,1884
6327,1874
6328,1855
6329,1842
6330,1847
6331,1911
6332,1859
6333,1869
6334,1898
6335,1811
6336,1858
6337,1840
6338,1842
6339,1796
6340,1872
6341,1920
6342,1859
6343,1854
6344,1862
6345,1853
6346,1872
6347,1855
6348,1898
6349,1920
6350,1895
6351,1796
6352,1861
6353,1836
6354,1840
6355,1877
6356,1862
6357,1863
6358,1903
6359,1898
6360,1886
6361,1867
6362,1865
6363,1873
6364,1856
6365,1865
6366,1890
6367,1889
6368,1833
6369,1849
6370,1872
6371,1869
6372,1845
6373,1920
6374,1895
6375,1855
6376,1870
6377,1889
6378,1872
6379,1859
6380,1840
6381,1836
6382,1882
6383,1840
6384,1895
6385,1867
6386,1856
6387,1882
6388,1867
6389,1885
6390,1915
6391,1854
6392,1923
6393,1904
6394,1873
6395,1861
6396,1877
6397,1872
6398,1885
6399,1820
6400,1904
6401,1872
6402,1810
6403,1858
6404,1851
6405,1814
6406,1819
6407,1923
6408,1878
6409,1859
6410,1863
6411,1875
6412,1872
6413,1857
6414,1840
6415,1834
6416,1844
6417,1825
6418,1793
6419,1882
6420,1855
6421,1857
6422,1900
6423,1914
6424,1893
6425,1808
6426,1914
6427,1875
6428,1856
6429,1862
6430,1886
6431,1855
6432,1873
6433,1882
6434,1872
6435,1839
6436,1871
6437,1867
6438,1847
6439,1867
6440,1843
6441,1862
6442,1855
6443,1783
6444,1839
6445,1868
6446,1861
6447,1894
6448,1875
6449,1890
6450,1865
6451,1920
6452,1865
6453,1861
6454,1859
6455,1864
6456,1867
6457,1840
6458,1869
6459,1827
6460,1856
6461,1860
6462,1859
6463,1867
6464,1873
6465,1898
6466,1815
6467,1862
6468,1856
6469,1872
6470,1867
6471,1841
6472,1882
6473,1850
6474,1791
6475,1844
6476,1872
6477,1873
6478,1840
6479,1859
6480,1886
6481,1919
6482,1902
6483,1856
6484,1851
6485,1909
6486,1840
6487,1846
6488,1843
6489,1871
6490,1855
6491,1894
6492,1818
6493,1911
6494,1853
6495,1840
6496,1869
6497,1899
6498,1894
6499,1890
6500,1881
6501,1857
6502,1857
6503,1860
6504,1862
6505,1886
6506,1856
6507,1815
6508,1915
6509,1890
6510,1916
6511,1859
6512,1867
6513,1857
6514,1861
6515,1933
6516,1831
6517,1904
6518,1879
6519,1858
6520,1863
6521,1862
6522,1875
6523,1856
6524,1856
6525,1884
6526,1824
6527,1862
6528,1863
6529,1855
6530,1860
6531,1865
6532,1901
6533,1903
6534,1891
6535,1898
6536,1863
6537,1858
6538,1862
6539,1856
6540,1809
6541,1857
6542,1860
6543,1869
6544,1841
6545,1856
6546,1867
6547,1899
6548,1877
6549,1883
6550,1887
6551,1827
6552,1887
6553,1842
6554,1850
6555,1886
6556,1856
6557,1798
6558,1803
6559,1904
6560,1857
6561,1840
6562,1859
6563,1853
6564,1874
6565,1861
6566,1855
6567,1875
6568,1869
6569,1859
6570,1858
6571,1841
6572,1827
6573,1888
6574,1854
6575,1895
6576,1874
6577,1856
6578,1840
6579,1863
6580,1898
6581,1893
6582,1840
6583,1851
6584,1793
6585,1835
6586,1863
6587,1844
6588,1867
6589,1858
6590,1904
6591,1867
6592,1881
6593,1897
6594,1872
6595,1856
6596,1857
6597,1887
6598,1895
6599,1810
6600,1860
6601,1865
6602,1862
6603,1878
6604,1872
6605,1913
6606,1876
6607,1843
6608,1904
6609,1863
6610,1856
6611,1859
6612,1859
6613,1857
6614,1873
6615,1855
6616,1859
6617,1920
6618,1883
6619,1857
6620,1854
6621,1846
6622,1879
6623,1872
6624,1872
6625,1855
6626,1874
6627,1840
6628,1857
6629,1862
6630,1886
6631,1879
6632,1881
6633,1852
6634,1857
6635,1788
6636,1859
6637,1883
6638,1861
6639,1847
6640,1919
6641,1814
6642,1876
6643,1831
6644,1863
6645,1863
6646,1851
6647,1857
6648,1863
6649,1851
6650,1853
6651,1877
6652,1862
6653,1870
6654,1870
6655,1872
6656,1879
6657,1897
6658,1866
6659,1891
6660,1813
6661,1872
6662,1862
6663,1862
6664,1907
6665,1867
6666,1813
6667,1901
6668,1904
6669,1860
6670,1833
6671,1857
6672,1907
6673,1789
6674,1877
6675,1890
6676,1856
6677,1870
6678,1873
6679,1870
6680,1893
6681,1888
6682,1862
6683,1853
6684,1863
6685,1855
6686,1846
6687,1839
6688,1858
6689,1795
6690,1801
6691,1858
6692,1882
6693,1893
6694,1867
6695,1871
6696,1859
6697,1861
6698,1911
6699,1867
6700,1832
6701,1865
6702,1851
6703,1886
6704,1863
6705,1861
6706,1890
6707,1869
6708,1856
6709,1859
6710,1872
6711,1872
6712,1859
6713,1849
6714,1884
6715,1860
6716,1866
6717,1818
6718,1906
6719,1835
6720,1838
6721,1872
6722,1906
6723,1856
6724,1854
6725,1871
6726,1837
6727,1851
6728,1841
6729,1862
6730,1843
6731,1858
6732,1887
6733,1872
6734,1898
6735,1865
6736,1859
6737,1878
6738,1840
6739,1878
6740,1877
6741,1846
6742,1870
6743,1854
6744,1858
6745,1839
6746,1849
6747,1890
6748,1847
6749,1840
6750,1863
6751,1867
6752,1834
6753,1861
6754,1871
6755,1840
6756,1856
6757,1867
6758,1863
6759,1889
6760,1875
6761,1870
6762,1872
6763,1872
6764,1841
6765,1886
6766,1893
6767,1893
6768,1834
6769,1850
6770,1842
6771,1866
6772,1811
6773,1883
6774,1868
6775,1840
6776,1856
6777,1840
6778,1862
6779,1872
6780,1896
6781,1853
6782,1841
6783,1894
6784,1926
6785,1891
6786,1840
6787,1862
6788,1835
6789,1871
6790,1917
6791,1900
6792,1869
6793,1857
6794,1857
6795,1842
6796,1843
6797,1919
6798,1864
6799,1840
6800,1782
6801,1861
6802,1891
6803,1861
6804,1840
6805,1874
6806,1877
6807,1920
6808,1849
6809,1923
6810,1840
6811,1843
6812,1844
6813,1845
6814,1859
6815,1911
6816,1888
6817,1885
6818,1920
6819,1860
6820,1834
6821,1847
6822,1905
6823,1899
6824,1856
6825,1860
6826,1841
6827,1846
6828,1845
6829,1861
6830,1878
6831,1866
6832,1831
6833,1872
6834,1903
6835,1794
6836,1871
6837,1859
6838,1845
6839,1887
6840,1830
6841,1845
6842,1866
6843,1808
6844,1878
6845,1840
6846,1869
6847,1808
6848,1904
6849,1818
6850,1814
6851,1847
6852,1863
6853,1880
6854,1841
6855,1884
6856,1859
6857,1891
6858,1798
6859,1875
6860,1824
6861,1843
6862,1869
6863,1858
6864,1881
6865,1837
6866,1899
6867,1882
6868,1882
6869,1856
6870,1823
6871,1860
6872,1910
6873,1802
6874,1872
6875,1861
6876,1831
6877,1860
6878,1862
6879,1861
6880,1861
6881,1871
6882,1808
6883,1866
6884,1896
6885,1857
6886,1853
6887,1839
6888,1847
6889,1899
6890,1872
6891,1898
6892,1898
6893,1813
6894,1856
6895,1854
6896,1857
6897,1885
6898,1891
6899,1870
6900,1858
6901,1838
6902,1840
6903,1858
6904,1863
6905,1906
6906,1808
6907,1888
6908,1797
6909,1894
6910,1840
6911,1861
6912,1848
6913,1859
6914,1866
6915,1883
6916,1902
6917,1891
6918,1823
6919,1851
6920,1850
6921,1851
6922,1856
6923,1867
6924,1792
6925,1845
6926,1854
6927,1859
6928,1834
6929,1869
6930,1849
6931,1878
6932,1818
6933,1869
6934,1881
6935,1857
6936,1863
6937,1864
6938,1847
6939,1859
6940,1907
6941,1906
6942,1912
6943,1861
6944,1849
6945,1869
6946,1882
6947,1847
6948,1893
6949,1870
6950,1872
6951,1889
6952,1840
6953,1871
6954,1853
6955,1808
6956,1819
6957,1851
6958,1887
6959,1886
6960,1840
6961,1846
6962,1858
6963,1879
6964,1872
6965,1852
6966,1875
6967,1875
6968,1897
6969,1872
6970,1858
6971,1870
6972,1855
6973,1883
6974,1840
6975,1855
6976,1911
6977,1864
6978,1856
6979,1862
6980,1856
6981,1861
6982,1866
6983,1890
6984,1841
6985,1892
6986,1833
6987,1854
6988,1920
6989,1847
6990,1877
6991,1799
6992,1853
6993,1863
6994,1859
6995,1859
6996,1872
6997,1891
6998,1866
6999,1867
7000,1875
7001,1911
7002,1845
7003,1840
7004,1861
7005,1920
7006,1815
7007,1887
7008,1890
7009,1894
7010,1870
7011,1850
7012,1863
7013,1842
7014,1867
7015,1909
7016,1883
7017,1887
7018,1889
7019,1863
7020,1867
7021,1865
7022,1857
7023,1914
7024,1857
7025,1886
7026,1865
7027,1853
7028,1859
7029,1865
7030,1871
7031,1799
7032,1870
7033,1865
7034,1842
7035,1861
7036,1862
7037,1871
7038,1856
7039,1870
7040,1887
7041,1821
7042,1873
7043,1847
7044,1856
7045,1852
7046,1840
7047,1873
7048,1854
7049,1887
7050,1905
7051,1862
7052,1841
7053,1856
7054,1851
7055,1898
7056,1916
7057,1854
7058,1861
7059,1869
7060,1869
7061,1859
7062,1869
7063,1871
7064,1884
7065,1887
7066,1872
7067,1883
7068,1887
7069,1873
7070,1858
7071,1858
7072,1875
7073,1858
7074,1871
7075,1894
7076,1879
7077,1847
7078,1847
7079,1840
7080,1790
7081,1904
7082,1876
7083,1865
7084,1861
7085,1863
7086,1841
7087,1881
7088,1855
7089,1847
7090,1894
7091,1866
7092,1886
7093,1895
7094,1867
7095,1871
7096,1851
7097,1919
7098,1825
7099,1842
7100,1867
7101,1920
7102,1854
7103,1846
7104,1853
7105,1849
7106,1848
7107,1856
7108,1849
7109,1889
7110,1870
7111,1851
7112,1846
7113,1857
7114,1904
7115,1895
7116,1903
7117,1853
7118,1858
7119,1872
7120,1838
7121,1851
7122,1899
7123,1884
7124,1793
7125,1919
7126,1885
7127,1858
7128,1869
7129,1862
7130,1862
7131,1855
7132,1872
7133,1846
7134,1854
7135,1824
7136,1830
7137,1846
7138,1855
7139,1911
7140,1894
7141,1881
7142,1799
7143,1872
7144,1869
7145,1840
7146,1841
7147,1910
7148,1885
7149,1883
7150,1915
7151,1827
7152,1861
7153,1876
7154,1871
7155,1901
7156,1850
7157,1906
7158,1838
7159,1899
7160,1872
7161,1854
7162,1838
7163,1854
7164,1918
7165,1860
7166,1836
7167,1873
7168,1856
7169,1859
7170,1871
7171,1858
7172,1903
7173,1862
7174,1862
7175,1869
7176,1857
7177,1860
7178,1860
7179,1858
7180,1923
7181,1904
7182,1829
7183,1886
7184,1859
7185,1876
7186,1870
7187,1840
7188,1872
7189,1875
7190,1904
7191,1886
7192,1855
7193,1852
7194,1854
7195,1861
7196,1872
7197,1872
7198,1906
7199,1881
7200,1863
7201,1847
7202,1884
7203,1841
7204,925
7205,1851
7206,1993
7207,1951
7208,1938
7209,1934
7210,1872
7211,1893
7212,1887
7213,1881
7214,1882
7215,1886
7216,1903
7217,1867
7218,1871
7219,1858
7220,1861
7221,1859
7222,1797
7223,1915
7224,1890
7225,1898
7226,1877
7227,1843
7228,1854
7229,1857
7230,1872
7231,1835
7232,1809
7233,1903
7234,1890
7235,833
7236,1875
7237,1920
7238,1936
7239,1919
7240,1937
7241,1918
7242,1895
7243,1906
7244,1877
7245,1867
7246,1873
7247,1886
7248,1937
7249,1853
7250,1904
7251,1887
7252,1878
7253,1871
7254,1854
7255,1878
7256,1811
7257,1879
7258,1894
7259,1858
7260,1853
7261,1865
7262,1859
7263,1873
7264,1856
7265,1890
7266,1502
7267,1800
7268,1991
7269,1954
7270,1925
7271,1927
7272,1939
7273,1923
7274,1897
7275,1907
7276,1945
7277,1897
7278,1863
7279,1872
7280,1882
7281,1871
7282,1862
7283,1891
7284,1808
7285,1887
7286,1839
7287,1859
7288,1810
7289,1875
7290,1872
7291,1867
7292,1870
7293,1889
7294,1870
7295,1841
7296,1871
7297,1872
7298,1783
7299,1948
7300,1897
7301,1979
7302,1926
7303,1905
7304,1883
7305,1921
7306,1874
7307,1879
7308,1872
7309,1871
7310,1874
7311,1876
7312,1891
7313,1864
7314,1883
7315,1874
7316,1867
7317,1891
7318,1781
7319,1861
7320,1840
7321,1862
7322,1907
7323,1845
7324,1808
7325,1826
7326,1872
7327,1867
7328,1870
7329,1598
7330,1941
7331,1971
7332,1873
7333,1940
7334,1945
7335,1891
7336,1907
7337,1904
7338,1951
7339,1899
7340,1872
7341,1895
7342,1877
7343,1814
7344,1872
7345,1872
7346,1872
7347,1834
7348,1899
7349,1871
7350,1787
7351,1907
7352,1869
7353,1863
7354,1851
7355,1865
7356,1872
7357,1856
7358,1883
7359,1840
7360,1385
7361,1945
7362,1952
7363,1979
7364,1978
7365,1885
7366,1920
7367,1902
7368,1895
7369,1898
7370,1895
7371,1890
7372,1921
7373,1820
7374,1915
7375,1868
7376,1863
7377,1871
7378,1861
7379,1866
7380,1879
7381,1806
7382,1807
7383,1920
7384,1860
7385,1872
7386,1855
7387,1871
7388,1873
7389,1859
7390,1858
7391,868
7392,1935
7393,1963
7394,1935
7395,1939
7396,1936
7397,1917
7398,1927
7399,1918
7400,1936
7401,1909
7402,1863
7403,1891
7404,1857
7405,1805
7406,1849
7407,1917
7408,1905
7409,1887
7410,1870
7411,1862
7412,1861
7413,1872
7414,1859
7415,1855
7416,1866
7417,1921
7418,1856
7419,1859
7420,1863
7421,1878
7422,687
7423,1872
7424,1953
7425,1966
7426,1971
7427,1937
7428,1916
7429,1911
7430,1958
7431,1904
7432,1948
7433,1875
7434,1909
7435,1879
7436,1872
7437,1871
7438,1858
7439,1901
7440,1872
7441,1870
7442,1886
7443,1872
7444,1873
7445,1862
7446,1856
7447,1836
7448,1893
7449,1873
7450,1856
7451,1794
7452,1874
7453,553
7454,1883
7455,1959
7456,1950
7457,1951
7458,1966
7459,1920
7460,1936
7461,1892
7462,1889
7463,1936
7464,1885
7465,1890
7466,1874
7467,1859
7468,1852
7469,1861
7470,1866
7471,1861
7472,1872
7473,1890
7474,1879
7475,1862
7476,1817
7477,1851
7478,1885
7479,1859
7480,1868
7481,1808
7482,1907
7483,1898
7484,896
7485,1821
7486,1981
7487,1968
7488,1987
7489,1955
7490,1910
7491,1905
7492,1900
7493,1898
7494,1884
7495,1866
7496,1873
7497,1873
7498,1891
7499,1840
7500,1899
7501,1866
7502,1847
7503,1846
7504,1890
7505,1808
7506,1924
7507,1865
7508,1823
7509,1847
7510,1864
7511,1861
7512,1859
7513,1885
7514,1791
7515,1776
7516,1694
7517,1993
7518,1998
7519,1953
7520,1958
7521,1893
7522,1922
7523,1917
7524,1930
7525,1826
7526,1887
7527,1863
7528,1889
7529,1863
7530,1846
7531,1874
7532,1872
7533,1873
7534,1917
7535,1847
7536,1872
7537,1873
7538,1894
7539,1883
7540,1855
7541,1893
7542,1855
7543,1863
7544,1871
7545,1863
7546,1867
7547,1568
7548,1978
7549,1963
7550,1957
7551,1936
7552,1918
7553,1927
7554,1898
7555,1872
7556,1897
7557,1925
7558,1876
7559,1908
7560,1861
7561,1887
7562,1861
7563,1871
7564,1879
7565,1872
7566,1903
7567,1867
7568,1889
7569,1890
7570,1843
7571,1845
7572,1841
7573,1903
7574,1844
7575,1912
7576,1861
7577,1859
7578,1407
7579,1955
7580,2011
7581,1965
7582,1945
7583,1904
7584,1834
7585,1909
7586,1883
7587,1870
7588,1899
7589,1886
7590,1858
7591,1887
7592,1900
7593,1901
7594,1857
7595,1872
7596,1867
7597,1861
7598,1867
7599,1855
7600,1885
7601,1860
7602,1872
7603,1855
7604,1884
7605,1869
7606,1843
7607,1819
7608,1866
7609,1054
7610,1951
7611,1966
7612,1944
7613,1938
7614,1923
7615,1914
7616,1933
7617,1893
7618,1915
7619,1894
7620,1913
7621,1904
7622,1886
7623,1923
7624,1899
7625,1904
7626,1925
7627,1865
7628,1872
7629,1877
7630,1883
7631,1927
7632,1858
7633,1884
7634,1857
7635,1872
7636,1858
7637,1842
7638,1920
7639,1875
7640,624
7641,1921
7642,1997
7643,1934
7644,1921
7645,1929
7646,1923
7647,1918
7648,1853
7649,1946
7650,1917
7651,1819
7652,1883
7653,1909
7654,1886
7655,1838
7656,1895
7657,1885
7658,1872
7659,1885
7660,1871
7661,1856
7662,1854
7663,1872
7664,1904
7665,1879
7666,1872
7667,1931
7668,1867
7669,1842
7670,1840
7671,556
7672,1936
7673,1961
7674,1995
7675,1931
7676,1904
7677,1920
7678,1919
7679,1919
7680,1898
7681,1885
7682,1882
7683,1874
7684,1872
7685,1874
7686,1898
7687,1858
7688,1909
7689,1890
7690,1873
7691,1901
7692,1807
7693,1878
7694,1869
7695,1872
7696,1843
7697,1890
7698,1826
7699,1890
7700,1899
7701,1855
7702,753
7703,1845
7704,1936
7705,1938
7706,1927
7707,1943
7708,1921
7709,1865
7710,1906
7711,1902
7712,1904
7713,1884
7714,1899
7715,1875
7716,1886
7717,1872
7718,1862
7719,1886
7720,1872
7721,1887
7722,1889
7723,1900
7724,1866
7725,1869
7726,1918
7727,1872
7728,1866
7729,1848
7730,1809
7731,1882
7732,1856
7733,1272
7734,1788
7735,1978
7736,1982
7737,1943
7738,1938
7739,1972
7740,1936
7741,1904
7742,1886
7743,1895
7744,1872
7745,1885
7746,1883
7747,1884
7748,1883
7749,1895
7750,1876
7751,1840
7752,1865
7753,1873
7754,1858
7755,1840
7756,1893
7757,1842
7758,1827
7759,1833
7760,1881
7761,1872
7762,1852
7763,1845
7764,1877
7765,1643
7766,2016
7767,1968
7768,1938
7769,1940
7770,1904
7771,1905
7772,1936
7773,1936
7774,1901
7775,1891
7776,1920
7777,1884
7778,1878
7779,1895
7780,1911
7781,1861
7782,1854
7783,1846
7784,1872
7785,1861
7786,1863
7787,1890
7788,1895
7789,1863
7790,1899
7791,1803
7792,1878
7793,1860
7794,1866
7795,1858
7796,1482
7797,1936
7798,1949
7799,1971
7800,1931
7801,1919
7802,1936
7803,1904
7804,1922
7805,1827
7806,1888
7807,1885
7808,1914
7809,1919
7810,1879
7811,1889
7812,1860
7813,1919
7814,1830
7815,1870
7816,1808
7817,1881
7818,1889
7819,1838
7820,1854
7821,1807
7822,1888
7823,1891
7824,1901
7825,1857
7826,1885
7827,1840
7828,1855
7829,1872
7830,1822
7831,1826
7832,1804
7833,1872
7834,1848
7835,1870
7836,1868
7837,1859
7838,1840
7839,1863
7840,1873
7841,1872
7842,1865
7843,1839
7844,1870
7845,1867
7846,1873
7847,1876
7848,1871
7849,1910
7850,1840
7851,1872
7852,1858
7853,1840
7854,1866
7855,1869
7856,1873
7857,1887
7858,1901
7859,1905
7860,1862
7861,1844
7862,1861
7863,1888
7864,1873
7865,1858
7866,1862
7867,1882
7868,1882
7869,1875
7870,1857
7871,1840
7872,1809
7873,1857
7874,1867
7875,1858
7876,1873
7877,1860
7878,1875
7879,1875
7880,1865
7881,1859
7882,1848
7883,1853
7884,1854
7885,1860
7886,1869
7887,1856
7888,1875
7889,1885
7890,1854
7891,1881
7892,1851
7893,1841
7894,1850
7895,1860
7896,1855
7897,1877
7898,1857
7899,1829
7900,1888
7901,1859
7902,1859
7903,1875
7904,1871
7905,1915
7906,1856
7907,1850
7908,1898
7909,1904
7910,1847
7911,1869
7912,1856
7913,1803
7914,1857
7915,1808
7916,1856
7917,1783
7918,1873
7919,1872
7920,1869
7921,1854
7922,1805
7923,1834
7924,1799
7925,1925
7926,1866
7927,1874
7928,1872
7929,1861
7930,1856
7931,1894
7932,1821
7933,1889
7934,1838
7935,1885
7936,1858
7937,1858
7938,1855
7939,1826
7940,1837
7941,1890
7942,1862
7943,1881
7944,1861
7945,1854
7946,1879
7947,1887
7948,1877
7949,1853
7950,1887
7951,1840
7952,1857
7953,1844
7954,1852
7955,1870
7956,1858
7957,1859
7958,1917
7959,1905
7960,1849
7961,1872
7962,1859
7963,1857
7964,1843
7965,1874
7966,1872
7967,1886
7968,1872
7969,1855
7970,1856
7971,1905
7972,1840
7973,1901
7974,1815
7975,1838
7976,1914
7977,1850
7978,1857
7979,1856
7980,1889
7981,1799
7982,1856
7983,1855
7984,1872
7985,1840
7986,1874
7987,1878
7988,1840
7989,1872
7990,1830
7991,1858
7992,1905
7993,1838
7994,1857
7995,1857
7996,1872
7997,1915
7998,1934
7999,1859
8000,1919
8001,1843
8002,1856
8003,1856
8004,1836
8005,1920
8006,1893
8007,1855
8008,1893
8009,1878
8010,1859
8011,1869
8012,1845
8013,1867
8014,1867
8015,1870
8016,1783
8017,1856
8018,1891
8019,1858
8020,1842
8021,1874
8022,1874
8023,1869
8024,1888
8025,1809
8026,1794
8027,1872
8028,1856
8029,1861
8030,1896
8031,1841
8032,1805
8033,1810
8034,1898
8035,1867
8036,1857
8037,1868
8038,1841
8039,1835
8040,1903
8041,1855
8042,1868
8043,1860
8044,1858
8045,1879
8046,1797
8047,1846
8048,1885
8049,1875
8050,1840
8051,1874
8052,1863
8053,1841
8054,1867
8055,1923
8056,1889
8057,1879
8058,1870
8059,1864
8060,1860
8061,1863
8062,1840
8063,1872
8064,1872
8065,1854
8066,1856
8067,1854
8068,1856
8069,1868
8070,1867
8071,1831
8072,1805
8073,1875
8074,1935
8075,1843
8076,1866
8077,1870
8078,1861
8079,1840
8080,1915
8081,1860
8082,1851
8083,1869
8084,1860
8085,1865
8086,1856
8087,1875
8088,1883
8089,1893
8090,1884
8091,1877
8092,1927
8093,1839
8094,1838
8095,1859
8096,1883
8097,1871
8098,1802
8099,1885
8100,1920
8101,1888
8102,1842
8103,1857
8104,1831
8105,1800
8106,1852
8107,1856
8108,1822
8109,1859
8110,1854
8111,1850
8112,1856
8113,1867
8114,1847
8115,1808
8116,1828
8117,1915
8118,1827
8119,1834
8120,1871
8121,1875
8122,1877
8123,1855
8124,1888
8125,1843
8126,1861
8127,1855
8128,1843
8129,1855
8130,1856
8131,1872
8132,1856
8133,1870
8134,1846
8135,1857
8136,1861
8137,1869
8138,1922
8139,1855
8140,1872
8141,1879
8142,1879
8143,1872
8144,1872
8145,1847
8146,1881
8147,1887
8148,1886
8149,1863
8150,1870
8151,1890
8152,1873
8153,1869
8154,1873
8155,1871
8156,1851
8157,1894
8158,1851
8159,1861
8160,1858
8161,1860
8162,1843
8163,1872
8164,1847
8165,1857
8166,1890
8167,1860
8168,1887
8169,1879
8170,1858
8171,1861
8172,1861
8173,1918
8174,1870
8175,1871
8176,1867
8177,1862
8178,1857
8179,1882
8180,1829
8181,1886
8182,1903
8183,1855
8184,1811
8185,1835
8186,1858
8187,1854
8188,1920
8189,1898
8190,1871
8191,1853
8192,1871
8193,1858
8194,1874
8195,1871
8196,1856
8197,1914
8198,1851
8199,1858
8200,1819
8201,1857
8202,1862
8203,1851
8204,1805
8205,1821
8206,1915
8207,1839
8208,1902
8209,1872
8210,1849
8211,1852
8212,1851
8213,1888
8214,1834
8215,1881
8216,1818
8217,1875
8218,1840
8219,1853
8220,1853
8221,1813
8222,1866
8223,1910
8224,1855
8225,1846
8226,1874
8227,1847
8228,1872
8229,1873
8230,1792
8231,1861
8232,1858
8233,1861
8234,1888
8235,1862
8236,1856
8237,1843
8238,1893
8239,1858
8240,1904
8241,1838
8242,1853
8243,1847
8244,1842
8245,1856
8246,1863
8247,1862
8248,1903
8249,1867
8250,1787
8251,1858
8252,1856
8253,1863
8254,1861
8255,1872
8256,1842
8257,1863
8258,1853
8259,1842
8260,1840
8261,1871
8262,1862
8263,1825
8264,1889
8265,1882
8266,1831
8267,1861
8268,1878
8269,1841
8270,1858
8271,1804
8272,1865
8273,1867
8274,1799
8275,1907
8276,1860
8277,1846
8278,1852
8279,1872
8280,1908
8281,1883
8282,1921
8283,1888
8284,1858
8285,1834
8286,1857
8287,1863
8288,1859
8289,1877
8290,1862
8291,1809
8292,1830
8293,1843
8294,1877
8295,1863
8296,1794
8297,1856
8298,1809
8299,1859
8300,1839
8301,1870
8302,1858
8303,1845
8304,1826
8305,1856
8306,1887
8307,1840
8308,1857
8309,1872
8310,1841
8311,1859
8312,1849
8313,1846
8314,1850
8315,1861
8316,1873
8317,1869
8318,1837
8319,1841
8320,1877
8321,1853
8322,1888
8323,1903
8324,1893
8325,1891
8326,1859
8327,1852
8328,1869
8329,1855
8330,1831
8331,1877
8332,1872
8333,1867
8334,1818
8335,1840
8336,1857
8337,1873
8338,1902
8339,1915
8340,1855
8341,1859
8342,1861
8343,1840
8344,1866
8345,1866
8346,1905
8347,1867
8348,1875
8349,1849
8350,1823
8351,1861
8352,1840
8353,1861
8354,1863
8355,1890
8356,1911
8357,1872
8358,1897
8359,1913
8360,1865
8361,1851
8362,1853
8363,1907
8364,1900
8365,1904
8366,1806
8367,1870
8368,1874
8369,1859
8370,1862
8371,1807
8372,1808
8373,1871
8374,1918
8375,1867
8376,1888
8377,1851
8378,1861
8379,1863
8380,1888
8381,1891
8382,1884
8383,1883
8384,1919
8385,1856
8386,1841
8387,1874
8388,1861
8389,1858
8390,1864
8391,1856
8392,1892
8393,1859
8394,1855
8395,1867
8396,1867
8397,1847
8398,1867
8399,1858
8400,1831
8401,1872
8402,1843
8403,1840
8404,1867
8405,1892
8406,1862
8407,1870
8408,1874
8409,1843
8410,1857
8411,1839
8412,1842
8413,1889
8414,1911
8415,1897
8416,1867
8417,1820
8418,1861
8419,1860
8420,1851
8421,1857
8422,1879
8423,1872
8424,1827
8425,1798
8426,1835
8427,1860
8428,1857
8429,1859
8430,1865
8431,1829
8432,1859
8433,1913
8434,1867
8435,1870
8436,1853
8437,1870
8438,1893
8439,1835
8440,1875
8441,1898
8442,1897
8443,1875
8444,1872
8445,1855
8446,1855
8447,1856
8448,1828
8449,1890
8450,1908
8451,1865
8452,1871
8453,1854
8454,1832
8455,1869
8456,1871
8457,1847
8458,1902
8459,1813
8460,1853
8461,1861
8462,1877
8463,1875
8464,1860
8465,1881
8466,1788
8467,1814
8468,1839
8469,1872
8470,1862
8471,1870
8472,1858
8473,1856
8474,1901
8475,1872
8476,1863
8477,1842
8478,1872
8479,1843
8480,1835
8481,1862
8482,1873
8483,1840
8484,1878
8485,1881
8486,1865
8487,1847
8488,1806
8489,1854
8490,1874
8491,1865
8492,1791
8493,1863
8494,1870
8495,1846
8496,1909
8497,1895
8498,1827
8499,1920
8500,1866
8501,1838
8502,1877
8503,1850
8504,1923
8505,1856
8506,1877
8507,1909
8508,1904
8509,1870
8510,1851
8511,1861
8512,1855
8513,1811
8514,1875
8515,1791
8516,1851
8517,1875
8518,1858
8519,1858
8520,1862
8521,1878
8522,1857
8523,1886
8524,1853
8525,1872
8526,1862
8527,1841
8528,1863
8529,1858
8530,1879
8531,1879
8532,1879
8533,1879
8534,1910
8535,1856
8536,1862
8537,1840
8538,1867
8539,1911
8540,1855
8541,1843
8542,1859
8543,1866
8544,1851
8545,1855
8546,1904
8547,1825
8548,1870
8549,1856
8550,1902
8551,1887
8552,1842
8553,1863
8554,1894
8555,1857
8556,1859
8557,1833
8558,1865
8559,1808
8560,1872
8561,1861
8562,1866
8563,1866
8564,1882
8565,1877
8566,1874
8567,1851
8568,1867
8569,1841
8570,1840
8571,1844
8572,1920
8573,1904
8574,1831
8575,1793
8576,1851
8577,1855
8578,1849
8579,1855
8580,1888
8581,1843
8582,1859
8583,1857
8584,1862
8585,1876
8586,1845
8587,1861
8588,1895
8589,1891
8590,1876
8591,1822
8592,1887
8593,1867
8594,1873
8595,1854
8596,1886
8597,1872
8598,1807
8599,1875
8600,1845
8601,1840
8602,1847
8603,1843
8604,1875
8605,1811
8606,1827
8607,1870
8608,1851
8609,1807
8610,1850
8611,1856
8612,1839
8613,1894
8614,1886
8615,1808
8616,1890
8617,1894
8618,1851
8619,1847
8620,1856
8621,1876
8622,1850
8623,1808
8624,1856
8625,1904
8626,1889
8627,1855
8628,1870
8629,1857
8630,1867
8631,1891
8632,1854
8633,1851
8634,1919
8635,1858
8636,1853
8637,1846
8638,1901
8639,1797
8640,1904
8641,1862
8642,1891
8643,1865
8644,1849
8645,1856
8646,1872
8647,1898
8648,1918
8649,1814
8650,1910
8651,1858
8652,1887
8653,1857
8654,1858
8655,1822
8656,1801
8657,1867
8658,1841
8659,1787
8660,1866
8661,1869
8662,1869
8663,1872
8664,1819
8665,1904
8666,1889
8667,1810
8668,1856
8669,1856
8670,1851
8671,1898
8672,1882
8673,1905
8674,1866
8675,1881
8676,1862
8677,1846
8678,1856
8679,1856
8680,1849
8681,1872
8682,1863
8683,1871
8684,1911
8685,1879
8686,1873
8687,1861
8688,1840
8689,1872
8690,1859
8691,1877
8692,1905
8693,1852
8694,1855
8695,1855
8696,1836
8697,1914
8698,1917
8699,1850
8700,1895
8701,1842
8702,1859
8703,1840
8704,1863
8705,1861
8706,1853
8707,1872
8708,1871
8709,1887
8710,1868
8711,1856
8712,1871
8713,1865
8714,1872
8715,1799
8716,1865
8717,1850
8718,1870
8719,1838
8720,1855
8721,1875
8722,1856
8723,1925
8724,1882
8725,1901
8726,1856
8727,1840
8728,1840
8729,1872
8730,1856
8731,1921
8732,1854
8733,1875
8734,1872
8735,1845
8736,1837
8737,1850
8738,1904
8739,1882
8740,1904
8741,1866
8742,1909
8743,1856
8744,1861
8745,1863
8746,1886
8747,1887
8748,1850
8749,1828
8750,1917
8751,1857
8752,1870
8753,1857
8754,1856
8755,1903
8756,1850
8757,1847
8758,1894
8759,1823
8760,1855
8761,1850
8762,1865
8763,1881
8764,1883
8765,1877
8766,1825
8767,1893
8768,1861
8769,1865
8770,1872
8771,1858
8772,1867
8773,1857
8774,1856
8775,1849
8776,1853
8777,1861
8778,1870
8779,1858
8780,1891
8781,1859
8782,1917
8783,1902
8784,1785
8785,1857
8786,1863
8787,1855
8788,1861
8789,1863
8790,1850
8791,1892
8792,1888
8793,1882
8794,1872
8795,1870
8796,1840
8797,1836
8798,1871
8799,1878
8800,1872
8801,1855
8802,1866
8803,1852
8804,1842
8805,1789
8806,1905
8807,1885
8808,1859
8809,1856
8810,1872
8811,1874
8812,1842
8813,1864
8814,1881
8815,1877
8816,1855
8817,1847
8818,1860
8819,1873
8820,1872
8821,1851
8822,1860
8823,945
8824,1953
8825,2007
8826,1968
8827,1962
8828,1946
8829,1921
8830,1909
8831,1911
8832,1917
8833,1923
8834,1849
8835,1886
8836,1869
8837,1895
8838,1926
8839,1904
8840,1901
8841,1862
8842,1831
8843,1862
8844,1857
8845,1871
8846,1872
8847,1872
8848,1869
8849,1904
8850,1872
8851,1889
8852,1855
8853,1867
8854,576
8855,1954
8856,2005
8857,1961
8858,1979
8859,1947
8860,1914
8861,1931
8862,1904
8863,1939
8864,1938
8865,1887
8866,1915
8867,1864
8868,1872
8869,1879
8870,1873
8871,1886
8872,1879
8873,1889
8874,1881
8875,1868
8876,1886
8877,1866
8878,1872
8879,1858
8880,1883
8881,1919
8882,1891
8883,1860
8884,1864
8885,418
8886,1893
8887,2012
8888,1978
8889,1970
8890,1881
8891,1882
8892,1873
8893,1918
8894,1907
8895,1877
8896,1886
8897,1914
8898,1901
8899,1910
8900,1935
8901,1888
8902,1862
8903,1874
8904,1895
8905,1911
8906,1925
8907,1787
8908,1873
8909,1874
8910,1862
8911,1869
8912,1868
8913,1807
8914,1871
8915,1865
8916,656
8917,1773
8918,1984
8919,2003
8920,1962
8921,1957
8922,1904
8923,1887
8924,1931
8925,1920
8926,1891
8927,1893
8928,1887
8929,1888
8930,1929
8931,1872
8932,1872
8933,1905
8934,1919
8935,1886
8936,1844
8937,1868
8938,1869
8939,1879
8940,1804
8941,1844
8942,1904
8943,1870
8944,1879
8945,1866
8946,1876
8947,804
8948,1669
8949,2006
8950,1981
8951,1995
8952,1945
8953,1931
8954,1945
8955,1916
8956,1953
8957,1958
8958,1930
8959,1937
8960,1906
8961,1885
8962,1869
8963,1869
8964,1904
8965,1872
8966,1907
8967,1907
8968,1872
8969,1835
8970,1847
8971,1827
8972,1897
8973,1895
8974,1878
8975,1872
8976,1867
8977,1867
8978,1810
8979,1525
8980,1995
8981,1963
8982,1983
8983,1936
8984,1968
8985,1931
8986,1918
8987,1968
8988,1913
8989,1926
8990,1922
8991,1904
8992,1905
8993,1881
8994,1871
8995,1869
8996,1840
8997,1810
8998,1859
8999,1899
9000,1887
9001,1865
9002,1885
9003,1878
9004,1851
9005,1792
9006,1866
9007,1841
9008,1904
9009,1862
9010,1263
9011,1987
9012,1999
9013,1981
9014,1915
9015,1921
9016,1936
9017,1935
9018,1889
9019,1916
9020,1882
9021,1877
9022,1891
9023,1892
9024,1881
9025,1904
9026,1875
9027,1861
9028,1845
9029,1872
9030,1879
9031,1843
9032,1863
9033,1859
9034,1853
9035,1844
9036,1878
9037,1920
9038,1817
9039,1907
9040,1898
9041,709
9042,1982
9043,2023
9044,2005
9045,1985
9046,1901
9047,1986
9048,1963
9049,1920
9050,1910
9051,1885
9052,1886
9053,1869
9054,1918
9055,1840
9056,1872
9057,1904
9058,1882
9059,1856
9060,1869
9061,1862
9062,1872
9063,1861
9064,1889
9065,1869
9066,1869
9067,1903
9068,1863
9069,1869
9070,1867
9071,1881
9072,630
9073,1975
9074,2039
9075,2013
9076,1998
9077,1961
9078,1935
9079,1989
9080,1936
9081,1862
9082,1958
9083,1953
9084,1879
9085,1902
9086,1857
9087,1920
9088,1808
9089,1882
9090,1854
9091,1877
9092,1805
9093,1872
9094,1868
9095,1866
9096,1828
9097,1886
9098,1894
9099,1904
9100,1888
9101,1871
9102,1856
9103,255
9104,1857
9105,2070
9106,1995
9107,1945
9108,1983
9109,1938
9110,1923
9111,1933
9112,1910
9113,1855
9114,1935
9115,1882
9116,1861
9117,1804
9118,1875
9119,1856
9120,1860
9121,1878
9122,1846
9123,1902
9124,1915
9125,1887
9126,1872
9127,1858
9128,1853
9129,1808
9130,1920
9131,1837
9132,1808
9133,1855
9134,274
9135,1864
9136,2038
9137,1984
9138,1989
9139,1947
9140,1999
9141,1876
9142,1923
9143,1910
9144,1898
9145,1882
9146,1936
9147,1919
9148,1893
9149,1872
9150,1919
9151,1869
9152,1874
9153,1886
9154,1874
9155,1899
9156,1869
9157,1857
9158,1847
9159,1839
9160,1859
9161,1861
9162,1874
9163,1804
9164,1895
9165,702
9166,1655
9167,2013
9168,2018
9169,1957
9170,1974
9171,1994
9172,1927
9173,1963
9174,1943
9175,1953
9176,1877
9177,1882
9178,1892
9179,1883
9180,1893
9181,1906
9182,1828
9183,1906
9184,1895
9185,1887
9186,1853
9187,1915
9188,1875
9189,1843
9190,1872
9191,1872
9192,1921
9193,1863
9194,1865
9195,1845
9196,1595
9197,1404
9198,2022
9199,2010
9200,2015
9201,1983
9202,1963
9203,1936
9204,1926
9205,1959
9206,1907
9207,1899
9208,1858
9209,1899
9210,1904
9211,1872
9212,1865
9213,1887
9214,1891
9215,1876
9216,1886
9217,1861
9218,1879
9219,1871
9220,1866
9221,1873
9222,1810
9223,1899
9224,1871
9225,1854
9226,1868
9227,1863
9228,1306
9229,2033
9230,1990
9231,1989
9232,1967
9233,1951
9234,1936
9235,1922
9236,1914
9237,1886
9238,1839
9239,1918
9240,1888
9241,1830
9242,1850
9243,1867
9244,1868
9245,1876
9246,1855
9247,1840
9248,1883
9249,1904
9250,1890
9251,1856
9252,1856
9253,1858
9254,1895
9255,1920
9256,1851
9257,1885
9258,1862
9259,813
9260,1995
9261,2045
9262,2000
9263,1976
9264,1997
9265,1967
9266,1883
9267,1866
9268,1909
9269,1904
9270,1895
9271,1895
9272,1932
9273,1817
9274,1939
9275,1881
9276,1889
9277,1862
9278,1882
9279,1853
9280,1891
9281,1873
9282,1855
9283,1798
9284,1878
9285,1844
9286,1871
9287,1837
9288,1863
9289,1886
9290,626
9291,1979
9292,2064
9293,1993
9294,1971
9295,1957
9296,1943
9297,1932
9298,1949
9299,1886
9300,1935
9301,1914
9302,1901
9303,1879
9304,1926
9305,1946
9306,1913
9307,1855
9308,1914
9309,1872
9310,1872
9311,1871
9312,1879
9313,1877
9314,1887
9315,1895
9316,1867
9317,1874
9318,1835
9319,1873
9320,1843
9321,310
9322,1843
9323,2064
9324,2047
9325,2000
9326,1968
9327,1952
9328,1941
9329,1954
9330,1904
9331,1936
9332,1874
9333,1913
9334,1897
9335,1885
9336,1881
9337,1873
9338,1903
9339,1873
9340,1859
9341,1857
9342,1923
9343,1872
9344,1850
9345,1869
9346,1867
9347,1886
9348,1866
9349,1808
9350,1904
9351,1879
9352,236
9353,1873
9354,2017
9355,1988
9356,1986
9357,1968
9358,1965
9359,1941
9360,1904
9361,1907
9362,1904
9363,1943
9364,1889
9365,1891
9366,1879
9367,1881
9368,1893
9369,1877
9370,1885
9371,1910
9372,1810
9373,1866
9374,1872
9375,1827
9376,1872
9377,1854
9378,1872
9379,1874
9380,1842
9381,1851
9382,1872
9383,343
9384,1723
9385,2023
9386,2002
9387,2031
9388,1985
9389,1940
9390,1949
9391,1968
9392,1936
9393,1927
9394,1904
9395,1900
9396,1894
9397,1934
9398,1879
9399,1914
9400,1848
9401,1862
9402,1844
9403,1882
9404,1807
9405,1870
9406,1883
9407,1889
9408,1856
9409,1866
9410,1842
9411,1857
9412,1886
9413,1866
9414,1303
9415,1567
9416,2032
9417,2077
9418,2000
9419,1981
9420,1968
9421,1937
9422,1888
9423,1943
9424,1873
9425,1911
9426,1899
9427,1891
9428,1875
9429,1890
9430,1915
9431,1882
9432,1873
9433,1893
9434,1868
9435,1866
9436,1863
9437,1827
9438,1869
9439,1854
9440,1859
9441,1893
9442,1855
9443,1847
9444,1841
9445,1855
9446,1856
9447,1855
9448,1859
9449,1779
9450,1872
9451,1876
9452,1858
9453,1872
9454,1877
9455,1889
9456,1909
9457,1858
9458,1907
9459,1871
9460,1871
9461,1867
9462,1830
9463,1872
9464,1873
9465,1873
9466,1899
9467,1861
9468,1855
9469,1840
9470,1874
9471,1872
9472,1802
9473,1882
9474,1793
9475,1897
9476,1839
9477,1841
9478,1874
9479,1899
9480,1855
9481,1857
9482,1891
9483,1827
9484,1840
9485,1871
9486,1882
9487,1879
9488,1910
9489,1890
9490,1867
9491,1869
9492,1870
9493,1845
9494,1861
9495,1859
9496,1856
9497,1797
9498,1850
9499,1883
9500,1897
9501,1872
9502,1840
9503,1863
9504,1856
9505,1856
9506,1851
9507,1823
9508,1847
9509,1865
9510,1869
9511,1871
9512,1888
9513,1826
9514,1902
9515,1794
9516,1858
9517,1807
9518,1845
9519,1840
9520,1857
9521,1862
9522,1856
9523,1886
9524,1862
9525,1889
9526,1858
9527,1856
9528,1861
9529,1920
9530,1870
9531,1851
9532,1889
9533,1793
9534,1856
9535,1843
9536,1873
9537,1833
9538,1881
9539,1854
9540,1842
9541,1897
9542,1861
9543,1859
9544,1851
9545,1872
9546,1882
9547,1827
9548,1861
9549,1882
9550,1919
9551,1862
9552,1847
9553,1843
9554,1789
9555,1840
9556,1883
9557,1882
9558,1818
9559,1861
9560,1849
9561,1859
9562,1822
9563,1866
9564,1854
9565,1818
9566,1855
9567,1895
9568,1866
9569,1878
9570,1836
9571,1901
9572,1847
9573,1872
9574,1823
9575,1870
9576,1872
9577,1859
9578,1858
9579,1782
9580,1858
9581,1838
9582,1887
9583,1860
9584,1863
9585,1840
9586,1878
9587,1890
9588,1871
9589,1871
9590,1803
9591,1856
9592,1874
9593,1873
9594,1866
9595,1846
9596,1850
9597,1881
9598,1909
9599,1888
9600,1861
9601,1840
9602,1835
9603,1859
9604,1860
9605,1892
9606,1841
9607,1901
9608,1862
9609,1857
9610,1858
9611,1862
9612,1873
9613,1903
9614,1855
9615,1856
9616,1863
9617,1853
9618,1840
9619,1858
9620,1838
9621,1855
9622,1854
9623,1867
9624,1871
9625,1797
9626,1834
9627,1872
9628,1858
9629,1846
9630,1842
9631,1903
9632,1899
9633,1863
9634,1859
9635,1841
9636,1862
9637,1854
9638,1872
9639,1918
9640,1867
9641,1856
9642,1849
9643,1873
9644,1849
9645,1858
9646,1872
9647,1907
9648,1851
9649,1837
9650,1859
9651,1847
9652,1868
9653,1870
9654,1866
9655,1870
9656,1874
9657,1836
9658,1785
9659,1858
9660,1878
9661,1840
9662,1923
9663,1879
9664,1872
9665,1872
9666,1898
9667,1889
9668,1856
9669,1879
9670,1780
9671,1917
9672,1863
9673,1861
9674,1871
9675,1899
9676,1859
9677,1846
9678,1858
9679,1853
9680,1815
9681,1917
9682,1867
9683,1862
9684,1870
9685,1856
9686,1846
9687,1920
9688,1873
9689,1798
9690,1877
9691,1915
9692,1810
9693,1869
9694,1872
9695,1860
9696,1868
9697,1873
9698,1873
9699,1849
9700,1789
9701,1851
9702,1872
9703,1840
9704,1871
9705,1843
9706,1875
9707,1889
9708,1877
9709,1866
9710,1871
9711,1855
9712,1850
9713,1850
9714,1872
9715,1871
9716,1862
9717,1895
9718,1871
9719,1840
9720,1814
9721,1809
9722,1805
9723,1855
9724,1877
9725,1865
9726,1855
9727,1859
9728,1845
9729,1857
9730,1860
9731,1879
9732,1846
9733,1866
9734,1866
9735,1872
9736,1868
9737,1878
9738,1861
9739,1906
9740,1880
9741,1871
9742,1863
9743,1861
9744,1868
9745,1869
9746,1872
9747,1879
9748,1860
9749,1850
9750,1803
9751,1856
9752,1845
9753,1871
9754,1871
9755,1875
9756,1874
9757,1802
9758,1878
9759,1875
9760,1844
9761,1861
9762,1836
9763,1874
9764,1803
9765,1885
9766,1899
9767,1886
9768,1872
9769,1859
9770,1802
9771,1899
9772,1923
9773,1885
9774,1866
9775,1876
9776,1862
9777,1849
9778,1841
9779,1850
9780,1865
9781,1899
9782,1799
9783,1860
9784,1877
9785,1833
9786,1851
9787,1869
9788,1862
9789,1875
9790,1865
9791,1790
9792,1911
9793,1872
9794,1862
9795,1860
9796,1803
9797,1891
9798,1911
9799,1890
9800,1791
9801,1843
9802,1872
9803,1853
9804,1817
9805,1856
9806,1857
9807,1861
9808,1858
9809,1885
9810,1868
9811,1870
9812,1931
9813,1872
9814,1874
9815,1881
9816,1913
9817,1870
9818,1861
9819,1859
9820,1840
9821,1829
9822,1905
9823,1905
9824,1890
9825,1864
9826,1861
9827,1859
9828,1859
9829,1837
9830,1840
9831,1872
9832,1901
9833,1868
9834,1829
9835,1838
9836,1844
9837,1806
9838,1840
9839,1867
9840,1889
9841,1867
9842,1843
9843,1861
9844,1870
9845,1872
9846,1862
9847,1846
9848,1921
9849,1846
9850,1855
9851,1863
9852,1839
9853,1849
9854,1867
9855,1879
9856,1883
9857,1862
9858,1907
9859,1871
9860,1854
9861,1862
9862,1873
9863,1847
9864,1806
9865,1860
9866,1873
9867,1903
9868,1845
9869,1846
9870,1819
9871,1897
9872,1859
9873,1872
9874,1886
9875,1852
9876,1859
9877,1857
9878,1863
9879,1847
9880,1905
9881,1859
9882,1859
9883,1856
9884,1861
9885,1840
9886,1862
9887,1808
9888,1858
9889,1883
9890,1835
9891,1887
9892,1861
9893,1839
9894,1853
9895,1843
9896,1849
9897,1920
9898,1909
9899,1792
9900,1850
9901,1856
9902,1867
9903,1882
9904,1857
9905,1878
9906,1853
9907,1858
9908,1857
9909,1879
9910,1857
9911,1858
9912,1856
9913,1846
9914,1819
9915,1804
9916,1835
9917,1855
9918,1854
9919,1874
9920,1785
9921,1892
9922,1840
9923,1877
9924,1861
9925,1843
9926,1847
9927,1854
9928,1838
9929,1858
9930,1861
9931,1805
9932,1877
9933,1851
9934,1873
9935,1845
9936,1853
9937,1862
9938,1843
9939,1842
9940,1912
9941,1827
9942,1847
9943,1861
9944,1851
9945,1839
9946,1808
9947,1803
9948,1874
9949,1842
9950,1849
9951,1875
9952,1865
9953,1861
9954,1815
9955,1825
9956,1840
9957,1874
9958,1894
9959,1839
9960,1865
9961,1869
9962,1875
9963,1883
9964,1856
9965,1870
9966,1865
9967,1856
9968,1842
9969,1868
9970,1837
9971,1911
9972,1825
9973,1855
9974,1890
9975,1866
9976,1859
9977,1841
9978,1874
9979,1892
9980,1869
9981,1893
9982,1904
9983,1898
9984,1867
9985,1863
9986,1866
9987,1839
9988,1871
9989,1873
9990,1860
9991,1909
9992,1868
9993,1851
9994,1859
9995,1862
9996,1920
9997,1840
9998,1912
9999,1909
10000,1889
10001,1863
10002,1841
10003,1837
10004,1864
10005,1888
10006,1877
10007,1815
10008,1913
10009,1841
10010,1863
10011,1856
10012,1921
10013,1879
10014,1872
10015,1866
10016,1851
10017,1857
10018,1847
10019,1851
10020,1890
10021,1879
10022,1873
10023,1855
10024,1887
10025,1857
10026,1856
10027,1875
10028,1874
10029,1858
10030,1868
10031,1835
10032,1881
10033,1902
10034,1842
10035,1863
10036,1879
10037,1857
10038,1904
10039,1878
10040,1894
10041,1887
10042,1861
10043,1856
10044,1863
10045,1856
10046,1870
10047,1895
10048,1856
10049,1867
10050,1883
10051,1867
10052,1859
10053,1861
10054,1870
10055,1860
10056,1854
10057,1892
10058,1893
10059,1875
10060,1860
10061,1853
10062,1865
10063,1889
10064,1879
10065,1840
10066,1918
10067,1855
10068,1872
10069,1860
10070,1868
10071,1899
10072,1895
10073,1870
10074,1884
10075,1853
10076,1870
10077,1866
10078,1850
10079,1808
10080,1901
10081,1872
10082,1930
10083,1851
10084,1866
10085,1859
10086,1861
10087,1845
10088,1861
10089,1895
10090,1905
10091,1910
10092,1866
10093,1870
10094,1855
10095,1852
10096,1842
10097,1913
10098,1884
10099,1806
10100,1877
10101,1867
10102,1857
10103,1872
10104,1853
10105,1866
10106,1867
10107,1885
10108,1855
10109,1858
10110,1863
10111,1855
10112,1843
10113,1857
10114,1855
10115,1861
10116,1863
10117,1875
10118,1835
10119,1870
10120,1901
10121,1874
10122,1849
10123,1860
10124,1861
10125,1831
10126,1851
10127,1855
10128,1870
10129,1841
10130,1866
10131,1910
10132,1877
10133,1833
10134,1872
10135,1847
10136,1856
10137,1911
10138,1843
10139,1883
10140,1854
10141,1858
10142,1877
10143,1863
10144,1859
10145,1846
10146,1855
10147,1863
10148,1878
10149,1843
10150,1857
10151,1863
10152,1863
10153,1863
10154,1854
10155,1843
10156,1890
10157,1847
10158,1871
10159,1854
10160,1872
10161,1860
10162,1863
10163,1875
10164,1798
10165,1854
10166,1903
10167,1854
10168,1849
10169,1854
10170,1887
10171,1909
10172,1859
10173,1907
10174,1904
10175,1865
10176,1840
10177,1863
10178,1857
10179,1863
10180,1851
10181,1855
10182,1892
10183,1808
10184,1846
10185,1858
10186,1867
10187,1877
10188,1888
10189,1827
10190,1862
10191,1857
10192,1870
10193,1840
10194,1867
10195,1863
10196,1859
10197,1903
10198,1877
10199,1859
10200,1827
10201,1849
10202,1833
10203,1867
10204,1910
10205,1910
10206,1808
10207,1898
10208,1845
10209,1871
10210,1849
10211,1863
10212,1866
10213,1873
10214,1865
10215,1870
10216,1872
10217,1881
10218,1854
10219,1847
10220,1903
10221,1855
10222,1840
10223,1904
10224,1858
10225,1818
10226,1857
10227,1853
10228,1872
10229,1865
10230,1850
10231,1871
10232,1840
10233,1861
10234,1857
10235,1884
10236,1856
10237,1877
10238,1904
10239,1829
10240,1854
10241,1843
10242,1866
10243,1861
10244,1856
10245,1897
10246,1861
10247,1847
10248,1857
10249,1819
10250,1877
10251,1863
10252,1842
10253,1868
10254,1861
10255,1875
10256,1853
10257,1898
10258,1859
10259,1861
10260,1861
10261,1851
10262,1885
10263,1920
10264,1802
10265,1859
10266,1851
10267,1844
10268,1854
10269,1842
10270,1874
10271,1870
10272,1894
10273,1803
10274,1866
10275,1872
10276,1871
10277,1858
10278,1850
10279,1855
10280,1856
10281,1901
10282,1809
10283,1840
10284,1837
10285,1837
10286,1872
10287,1875
10288,1823
10289,1868
10290,1879
10291,1857
10292,1849
10293,1865
10294,1866
10295,1840
10296,1897
10297,1879
10298,1866
10299,1872
10300,1867
10301,1846
10302,1860
10303,1881
10304,1861
10305,1914
10306,1851
10307,1808
10308,1886
10309,1840
10310,1854
10311,1847
10312,1904
10313,1853
10314,1871
10315,1859
10316,1882
10317,1872
10318,1860
10319,1858
10320,1893
10321,1859
10322,1917
10323,1824
10324,1904
10325,1857
10326,1854
10327,1859
10328,1845
10329,1913
10330,1854
10331,1845
10332,1840
10333,1872
10334,1886
10335,1856
10336,1850
10337,1859
10338,1861
10339,1907
10340,1872
10341,1837
10342,1872
10343,1856
10344,1861
10345,1829
10346,1878
10347,1841
10348,1853
10349,1871
10350,1858
10351,1872
10352,1858
10353,1869
10354,1899
10355,1871
10356,1845
10357,1879
10358,1829
10359,1867
10360,1861
10361,1863
10362,1886
10363,1832
10364,1888
10365,1901
10366,1922
10367,1874
10368,1863
10369,1856
10370,1867
10371,1851
10372,1862
10373,1808
10374,1910
10375,1881
10376,1866
10377,1854
10378,1862
10379,1859
10380,1876
10381,1877
10382,1855
10383,1855
10384,1858
10385,1859
10386,1873
10387,1904
10388,1905
10389,1874
10390,1907
10391,1802
10392,1845
10393,1840
10394,1865
10395,1861
10396,1872
10397,1866
10398,1813
10399,1858
10400,1808
10401,1869
10402,1862
10403,1878
10404,1866
10405,1870
10406,1847
10407,1783
10408,1786
10409,1857
10410,1854
10411,1852
10412,1872
10413,1842
10414,1895
10415,1872
10416,1890
10417,1856
10418,1854
10419,1869
10420,1919
10421,1914
10422,1810
10423,1854
10424,1872
10425,1860
10426,1872
10427,1856
10428,1858
10429,1904
10430,1875
10431,1896
10432,1872
10433,1894
10434,1858
10435,1854
10436,1856
10437,1814
10438,1868
10439,1863
10440,1869
10441,1819
10442,1648
10443,1969
10444,1970
10445,1982
10446,1998
10447,1969
10448,1904
10449,1927
10450,1900
10451,1873
10452,1894
10453,1935
10454,1917
10455,1883
10456,1923
10457,1873
10458,1872
10459,1860
10460,1882
10461,1871
10462,1856
10463,1867
10464,1805
10465,1891
10466,1846
10467,1861
10468,1868
10469,1879
10470,1885
10471,1833
10472,1808
10473,1348
10474,1958
10475,1965
10476,1969
10477,1956
10478,1941
10479,1915
10480,1911
10481,1905
10482,1917
10483,1874
10484,1868
10485,1871
10486,1882
10487,1882
10488,1887
10489,1856
10490,1886
10491,1892
10492,1847
10493,1865
10494,1845
10495,1893
10496,1872
10497,1902
10498,1871
10499,1882
10500,1903
10501,1858
10502,1867
10503,1859
10504,1004
10505,1893
10506,1973
10507,1963
10508,1949
10509,1941
10510,1931
10511,1919
10512,1948
10513,1840
10514,1917
10515,1897
10516,1882
10517,1883
10518,1872
10519,1871
10520,1883
10521,1915
10522,1875
10523,1905
10524,1919
10525,1865
10526,1854
10527,1872
10528,1882
10529,1860
10530,1876
10531,1872
10532,1891
10533,1866
10534,1871
10535,769
10536,1965
10537,1961
10538,1967
10539,1890
10540,1918
10541,1971
10542,1920
10543,1920
10544,1899
10545,1893
10546,1905
10547,1889
10548,1840
10549,1817
10550,1875
10551,1872
10552,1872
10553,1858
10554,1862
10555,1794
10556,1889
10557,1904
10558,1829
10559,1841
10560,1851
10561,1856
10562,1824
10563,1888
10564,1914
10565,1871
10566,508
10567,1934
10568,2014
10569,1984
10570,1985
10571,1951
10572,1989
10573,1907
10574,1920
10575,1917
10576,1905
10577,1897
10578,1904
10579,1843
10580,1885
10581,1904
10582,1909
10583,1869
10584,1865
10585,1887
10586,1874
10587,1855
10588,1875
10589,1911
10590,1883
10591,1798
10592,1873
10593,1843
10594,1865
10595,1853
10596,1886
10597,429
10598,1833
10599,1982
10600,1947
10601,1968
10602,1970
10603,1986
10604,1977
10605,1919
10606,1919
10607,1924
10608,1904
10609,1872
10610,1886
10611,1899
10612,1887
10613,1872
10614,1865
10615,1882
10616,1914
10617,1875
10618,1846
10619,1849
10620,1840
10621,1861
10622,1842
10623,1842
10624,1891
10625,1837
10626,1882
10627,1872
10628,709
10629,1633
10630,1984
10631,2007
10632,1967
10633,1994
10634,1952
10635,1937
10636,1905
10637,1920
10638,1922
10639,1956
10640,1926
10641,1890
10642,1899
10643,1872
10644,1863
10645,1869
10646,1870
10647,1867
10648,1919
10649,1869
10650,1859
10651,1861
10652,1851
10653,1855
10654,1865
10655,1895
10656,1865
10657,1906
10658,1894
10659,1309
10660,1687
10661,1991
10662,1986
10663,1981
10664,1983
10665,1947
10666,1933
10667,1907
10668,1920
10669,1914
10670,1887
10671,1907
10672,1893
10673,1874
10674,1881
10675,1900
10676,1870
10677,1868
10678,1849
10679,1875
10680,1856
10681,1846
10682,1875
10683,1872
10684,1842
10685,1858
10686,1861
10687,1862
10688,1876
10689,1889
10690,1855
10691,1223
10692,2005
10693,2002
10694,1973
10695,1968
10696,1953
10697,1980
10698,1935
10699,1916
10700,1891
10701,1885
10702,1918
10703,1867
10704,1850
10705,1904
10706,1904
10707,1904
10708,1872
10709,1885
10710,1853
10711,1874
10712,1907
10713,1834
10714,1897
10715,1823
10716,1874
10717,1858
10718,1878
10719,1863
10720,1889
10721,1872
10722,978
10723,1950
10724,2032
10725,1993
10726,1978
10727,1958
10728,1948
10729,1952
10730,1923
10731,1951
10732,1903
10733,1930
10734,1885
10735,1861
10736,1870
10737,1871
10738,1903
10739,1894
10740,1854
10741,1867
10742,1864
10743,1849
10744,1866
10745,1831
10746,1866
10747,1901
10748,1830
10749,1916
10750,1806
10751,1865
10752,1861
10753,757
10754,1995
10755,2023
10756,2004
10757,1991
10758,1941
10759,1952
10760,1931
10761,1918
10762,1939
10763,1872
10764,1926
10765,1915
10766,1904
10767,1902
10768,1871
10769,1879
10770,1884
10771,1872
10772,1909
10773,1871
10774,1872
10775,1850
10776,1855
10777,1869
10778,1869
10779,1875
10780,1872
10781,1876
10782,1872
10783,1860
10784,385
10785,1934
10786,2027
10787,1972
10788,1975
10789,1953
10790,1930
10791,1952
10792,1903
10793,1903
10794,1901
10795,1879
10796,1923
10797,1831
10798,1871
10799,1906
10800,1880
10801,1897
10802,1854
10803,1868
10804,1862
10805,1834
10806,1897
10807,1905
10808,1875
10809,1843
10810,1870
10811,1863
10812,1890
10813,1873
10814,1819
10815,118
10816,1903
10817,2032
10818,2003
10819,1979
10820,2015
10821,1951
10822,1979
10823,1970
10824,1893
10825,1899
10826,1890
10827,1909
10828,1840
10829,1914
10830,1904
10831,1906
10832,1861
10833,1887
10834,1872
10835,1882
10836,1870
10837,1872
10838,1907
10839,1869
10840,1881
10841,1872
10842,1870
10843,1862
10844,1857
10845,1890
10846,359
10847,1712
10848,2037
10849,2059
10850,1983
10851,1967
10852,1950
10853,1904
10854,1943
10855,1917
10856,1971
10857,1904
10858,1933
10859,1889
10860,1887
10861,1872
10862,1891
10863,1872
10864,1902
10865,1857
10866,1857
10867,1871
10868,1867
10869,1891
10870,1862
10871,1895
10872,1873
10873,1857
10874,1840
10875,1851
10876,1871
10877,950
10878,1650
10879,2031
10880,2010
10881,1978
10882,1968
10883,1950
10884,1926
10885,1932
10886,1917
10887,1938
10888,1842
10889,1931
10890,1904
10891,1875
10892,1883
10893,1867
10894,1865
10895,1870
10896,1879
10897,1884
10898,1887
10899,1877
10900,1902
10901,1874
10902,1863
10903,1904
10904,1872
10905,1867
10906,1858
10907,1818
10908,1909
10909,1441
10910,2013
10911,2013
10912,2003
10913,1874
10914,1929
10915,1904
10916,1975
10917,1926
10918,1885
10919,1888
10920,1890
10921,1841
10922,1901
10923,1915
10924,1856
10925,1873
10926,1873
10927,1858
10928,1871
10929,1872
10930,1811
10931,1901
10932,1862
10933,1849
10934,1875
10935,1851
10936,1867
10937,1827
10938,1883
10939,1847
10940,1104
10941,1990
10942,2017
10943,1989
10944,1968
10945,1969
10946,1971
10947,1933
10948,1890
10949,1901
10950,1867
10951,1872
10952,1904
10953,1936
10954,1947
10955,1892
10956,1886
10957,1817
10958,1870
10959,1871
10960,1884
10961,1858
10962,1885
10963,1831
10964,1925
10965,1904
10966,1853
10967,1869
10968,1866
10969,1875
10970,1857
10971,807
10972,2001
10973,2064
10974,1974
10975,1958
10976,1954
10977,1936
10978,1903
10979,1973
10980,1907
10981,1936
10982,1863
10983,1904
10984,1888
10985,1889
10986,1882
10987,1924
10988,1879
10989,1871
10990,1925
10991,1872
10992,1865
10993,1872
10994,1869
10995,1858
10996,1859
10997,1869
10998,1813
10999,1903
11000,1877
11001,1865
11002,480
11003,1936
11004,1934
11005,2032
11006,1990
11007,1982
11008,1930
11009,1925
11010,1901
11011,1895
11012,1846
11013,1916
11014,1902
11015,1885
11016,1883
11017,1901
11018,1861
11019,1871
11020,1803
11021,1872
11022,1913
11023,1847
11024,1871
11025,1867
11026,1872
11027,1871
11028,1857
11029,1870
11030,1904
11031,1893
11032,1883
11033,175
11034,1882
11035,1997
11036,2000
11037,1987
11038,1979
11039,1966
11040,1936
11041,1879
11042,1927
11043,1910
11044,1894
11045,1894
11046,1925
11047,1887
11048,1871
11049,1904
11050,1898
11051,1889
11052,1883
11053,1863
11054,1801
11055,1872
11056,1865
11057,1875
11058,1872
11059,1849
11060,1851
11061,1857
11062,1856
11063,1861
11064,1855
11065,1874
11066,1828
11067,1851
11068,1863
11069,1863
11070,1811
11071,1870
11072,1910
11073,1857
11074,1877
11075,1845
11076,1864
11077,1871
11078,1857
11079,1837
11080,1867
11081,1844
11082,1872
11083,1864
11084,1866
11085,1841
11086,1830
11087,1903
11088,1933
11089,1883
11090,1841
11091,1791
11092,1882
11093,1840
11094,1834
11095,1858
11096,1850
11097,1904
11098,1895
11099,1904
11100,1857
11101,1871
11102,1869
11103,1863
11104,1863
11105,1902
11106,1830
11107,1842
11108,1887
11109,1862
11110,1855
11111,1864
11112,1867
11113,1911
11114,1866
11115,1872
11116,1873
11117,1856
11118,1869
11119,1858
11120,1847
11121,1870
11122,1853
11123,1856
11124,1781
11125,1856
11126,1853
11127,1875
11128,1855
11129,1886
11130,1903
11131,1847
11132,1862
11133,1834
11134,1846
11135,1838
11136,1872
11137,1810
11138,1909
11139,1887
11140,1872
11141,1866
11142,1844
11143,1840
11144,1847
11145,1821
11146,1869
11147,1809
11148,1845
11149,1887
11150,1885
11151,1872
11152,1859
11153,1860
11154,1870
11155,1862
11156,1910
11157,1840
11158,1826
11159,1869
11160,1854
11161,1873
11162,1892
11163,1842
11164,1859
11165,1798
11166,1882
11167,1860
11168,1861
11169,1846
11170,1887
11171,1857
11172,1872
11173,1915
11174,1891
11175,1889
11176,1868
11177,1865
11178,1873
11179,1895
11180,1905
11181,1890
11182,1861
11183,1916
11184,1837
11185,1859
11186,1820
11187,1872
11188,1879
11189,1906
11190,1859
11191,1854
11192,1871
11193,1847
11194,1879
11195,1910
11196,1919
11197,1872
11198,1855
11199,1899
11200,1873
11201,1874
11202,1835
11203,1875
11204,1872
11205,1900
11206,1878
11207,1848
11208,1866
11209,1874
11210,1859
11211,1858
11212,1871
11213,1872
11214,1884
11215,1839
11216,1885
11217,1839
11218,1836
11219,1867
11220,1858
11221,1901
11222,1814
11223,1839
11224,1854
11225,1853
11226,1861
11227,1866
11228,1857
11229,1859
11230,1906
11231,1891
11232,1886
11233,1839
11234,1871
11235,1851
11236,1880
11237,1860
11238,1830
11239,1923
11240,1868
11241,1909
11242,1850
11243,1859
11244,1862
11245,1857
11246,1859
11247,1885
11248,1913
11249,1867
11250,1855
11251,1835
11252,1885
11253,1863
11254,1872
11255,1843
11256,1797
11257,1858
11258,1869
11259,1866
11260,1872
11261,1849
11262,1861
11263,1856
11264,1840
11265,1861
11266,1856
11267,1846
11268,1848
11269,1857
11270,1866
11271,1943
11272,1901
11273,1855
11274,1869
11275,1836
11276,1851
11277,1863
11278,1861
11279,1851
11280,1875
11281,1923
11282,1845
11283,1871
11284,1872
11285,1841
11286,1840
11287,1906
11288,1871
11289,1861
11290,1804
11291,1870
11292,1872
11293,1842
11294,1842
11295,1875
11296,1872
11297,1808
11298,1872
11299,1901
11300,1878
11301,1842
11302,1866
11303,1802
11304,1857
11305,1861
11306,1873
11307,1912
11308,1879
11309,1850
11310,1867
11311,1849
11312,1792
11313,1856
11314,1868
11315,1859
11316,1808
11317,1849
11318,1851
11319,1858
11320,1902
11321,1865
11322,1872
11323,1861
11324,1907
11325,1869
11326,1862
11327,1858
11328,1865
11329,1877
11330,1865
11331,1808
11332,1840
11333,1871
11334,1871
11335,1858
11336,1905
11337,1863
11338,1885
11339,1912
11340,1838
11341,1857
11342,1844
11343,1851
11344,1855
11345,1804
11346,1908
11347,1881
11348,1843
11349,1895
11350,1889
11351,1887
11352,1879
11353,1801
11354,1869
11355,1856
11356,1904
11357,1866
11358,1891
11359,1862
11360,1856
11361,1843
11362,1845
11363,1907
11364,1883
11365,1857
11366,1858
11367,1874
11368,1854
11369,1841
11370,1877
11371,1899
11372,1809
11373,1869
11374,1924
11375,1842
11376,1872
11377,1856
11378,1863
11379,1905
11380,1860
11381,1916
11382,1888
11383,1865
11384,1876
11385,1872
11386,1885
11387,1819
11388,1861
11389,1922
11390,1891
11391,1894
11392,1855
11393,1859
11394,1854
11395,1877
11396,1850
11397,1906
11398,1877
11399,1859
11400,1855
11401,1846
11402,1885
11403,1892
11404,1853
11405,1859
11406,1910
11407,1882
11408,1840
11409,1866
11410,1843
11411,1848
11412,1869
11413,1814
11414,1875
11415,1902
11416,1850
11417,1872
11418,1839
11419,1840
11420,1847
11421,1881
11422,1883
11423,1849
11424,1873
11425,1856
11426,1867
11427,1854
11428,1862
11429,1861
11430,1853
11431,1874
11432,1873
11433,1843
11434,1850
11435,1866
11436,1895
11437,1861
11438,1845
11439,1872
11440,1846
11441,1849
11442,1856
11443,1851
11444,1856
11445,1858
11446,1851
11447,1907
11448,1883
11449,1859
11450,1854
11451,1889
11452,1843
11453,1856
11454,1881
11455,1904
11456,1890
11457,1879
11458,1840
11459,1860
11460,1862
11461,1856
11462,1824
11463,1869
11464,1849
11465,1904
11466,1887
11467,1872
11468,1858
11469,1858
11470,1861
11471,1857
11472,1883
11473,1824
11474,1807
11475,1875
11476,1853
11477,1859
11478,1853
11479,1847
11480,1858
11481,1840
11482,1885
11483,1862
11484,1847
11485,1866
11486,1868
11487,1853
11488,1903
11489,1798
11490,1892
11491,1879
11492,1842
11493,1858
11494,1871
11495,1855
11496,1819
11497,1851
11498,1812
11499,1888
11500,1857
11501,1873
11502,1841
11503,1804
11504,1920
11505,1882
11506,1795
11507,1899
11508,1834
11509,1867
11510,1861
11511,1858
11512,1842
11513,1808
11514,1836
11515,1855
11516,1841
11517,1837
11518,1861
11519,1853
11520,1893
11521,1875
11522,1863
11523,1868
11524,1894
11525,1850
11526,1839
11527,1861
11528,1882
11529,1901
11530,1911
11531,1892
11532,1887
11533,1867
11534,1855
11535,1859
11536,1908
11537,1857
11538,1889
11539,1822
11540,1915
11541,1875
11542,1865
11543,1851
11544,1858
11545,1871
11546,1910
11547,1878
11548,1904
11549,1831
11550,1850
11551,1851
11552,1853
11553,1846
11554,1902
11555,1883
11556,1879
11557,1862
11558,1862
11559,1861
11560,1858
11561,1855
11562,1905
11563,1856
11564,1860
11565,1917
11566,1811
11567,1857
11568,1850
11569,1860
11570,1859
11571,1862
11572,1872
11573,1843
11574,1863
11575,1842
11576,1859
11577,1863
11578,1894
11579,1873
11580,1875
11581,1895
11582,1872
11583,1856
11584,1854
11585,1843
11586,1844
11587,1859
11588,1902
11589,1846
11590,1862
11591,1904
11592,1863
11593,1872
11594,1856
11595,1878
11596,1904
11597,1802
11598,1875
11599,1858
11600,1857
11601,1837
11602,1856
11603,1818
11604,1854
11605,1863
11606,1875
11607,1922
11608,1863
11609,1861
11610,1843
11611,1846
11612,1889
11613,1871
11614,1885
11615,1879
11616,1851
11617,1856
11618,1858
11619,1856
11620,1876
11621,1920
11622,1904
11623,1915
11624,1808
11625,1869
11626,1857
11627,1855
11628,1917
11629,1871
11630,1874
11631,1872
11632,1849
11633,1853
11634,1856
11635,1839
11636,1849
11637,1858
11638,1901
11639,1904
11640,1849
11641,1872
11642,1842
11643,1855
11644,1845
11645,1877
11646,1796
11647,1915
11648,1856
11649,1803
11650,1862
11651,1869
11652,1863
11653,1887
11654,1802
11655,1910
11656,1855
11657,1869
11658,1867
11659,1857
11660,1870
11661,1802
11662,1915
11663,1847
11664,1794
11665,1828
11666,1853
11667,1840
11668,1852
11669,1858
11670,1835
11671,1850
11672,1824
11673,1859
11674,1859
11675,1840
11676,1839
11677,1873
11678,1815
11679,1862
11680,1890
11681,1843
11682,1876
11683,1857
11684,1859
11685,1864
11686,1866
11687,1872
11688,1911
11689,1891
11690,1873
11691,1827
11692,1872
11693,1854
11694,1856
11695,1910
11696,1847
11697,1808
11698,1825
11699,1851
11700,1855
11701,1850
11702,1865
11703,1851
11704,1877
11705,1909
11706,1875
11707,1890
11708,1868
11709,1868
11710,1842
11711,1893
11712,1873
11713,1807
11714,1893
11715,1859
11716,1872
11717,1839
11718,1835
11719,1847
11720,1843
11721,1886
11722,1877
11723,1863
11724,1902
11725,1860
11726,1858
11727,1855
11728,1854
11729,1840
11730,1888
11731,1866
11732,1857
11733,1870
11734,1859
11735,1861
11736,1855
11737,1875
11738,1850
11739,1872
11740,1903
11741,1846
11742,1857
11743,1855
11744,1871
11745,1901
11746,1842
11747,1895
11748,1871
11749,1889
11750,1846
11751,1857
11752,1844
11753,1904
11754,1801
11755,1856
11756,1906
11757,1805
11758,1868
11759,1858
11760,1843
11761,1802
11762,1812
11763,1891
11764,1859
11765,1819
11766,1818
11767,1853
11768,1854
11769,1883
11770,1875
11771,1882
11772,1860
11773,1891
11774,1808
11775,1858
11776,1846
11777,1840
11778,1887
11779,1913
11780,1810
11781,1873
11782,1918
11783,1847
11784,1854
11785,1857
11786,1861
11787,1872
11788,1904
11789,1872
11790,1883
11791,1891
11792,1841
11793,1872
11794,1859
11795,1899
11796,1875
11797,1795
11798,1879
11799,1872
11800,1861
11801,1843
11802,1856
11803,1873
11804,1821
11805,1845
11806,1841
11807,1825
11808,1862
11809,1854
11810,1856
11811,1846
11812,1873
11813,1876
11814,1857
11815,1855
11816,1856
11817,1840
11818,1831
11819,1856
11820,1871
11821,1860
11822,1853
11823,1808
11824,1887
11825,1871
11826,1867
11827,1843
11828,1859
11829,1851
11830,1885
11831,1933
11832,1854
11833,1843
11834,1841
11835,1866
11836,1846
11837,1851
11838,1860
11839,1895
11840,1855
11841,1894
11842,1874
11843,1843
11844,1856
11845,1917
11846,1861
11847,1872
11848,1854
11849,1834
11850,1855
11851,1837
11852,1856
11853,1915
11854,1804
11855,1901
11856,1856
11857,1872
11858,1859
11859,1862
11860,1851
11861,1858
11862,1894
11863,1894
11864,1857
11865,1911
11866,1814
11867,1860
11868,1860
11869,1904
11870,1897
11871,1857
11872,1901
11873,1897
11874,1878
11875,1835
11876,1845
11877,1853
11878,1882
11879,1785
11880,1870
11881,1845
11882,1856
11883,1867
11884,1875
11885,1851
11886,1786
11887,1856
11888,1887
11889,1909
11890,1918
11891,1847
11892,1850
11893,1859
11894,1862
11895,1886
11896,1870
11897,1857
11898,1791
11899,1851
11900,1857
11901,1840
11902,1840
11903,1846
11904,1840
11905,1919
11906,1834
11907,1880
11908,1863
11909,1861
11910,1846
11911,1814
11912,1910
11913,1855
11914,1856
11915,1905
11916,1859
11917,1872
11918,1852
11919,1881
11920,1826
11921,1884
11922,1872
11923,1827
