Time(ms),Raw_ADC,ENV_Value,RMS,MDF,MW_Amp,MW_Area,MW_Latency,MW_Valid,Marker
0,1855.3,270.9,0.0,0.0,4057.0,14973.0,2.0,0,
100,1888.8,341.9,0.0,0.0,3308.0,8017.0,2.0,0,
200,1922.0,359.3,0.0,0.0,2466.0,6545.0,2.0,0,
300,1823.3,418.6,0.0,0.0,1927.0,5577.0,2.0,0,
400,1864.8,197.9,0.0,0.0,3274.0,7089.0,2.0,0,
500,1870.1,200.7,0.0,167.0,3406.0,7635.0,2.0,0,
600,1864.9,41.7,0.0,157.4,2828.0,6224.0,2.0,0,
700,1859.9,8.9,0.0,159.0,2828.0,6224.0,2.0,0,
800,1854.5,5.5,0.0,93.6,2828.0,6224.0,2.0,0,
900,1856.7,4.0,0.0,41.4,2828.0,6224.0,2.0,0,
1000,1858.1,3.5,0.0,36.0,2828.0,6224.0,2.0,0,
1100,1858.5,5.0,0.0,102.7,2828.0,6224.0,2.0,0,
1200,1859.5,9.2,0.0,106.1,2828.0,6224.0,2.0,0,
1300,1859.9,13.7,0.0,100.1,2828.0,6224.0,2.0,0,
1400,1859.8,13.8,0.0,116.3,2828.0,6224.0,2.0,0,
1500,1860.1,16.4,0.0,117.5,2828.0,6224.0,2.0,0,
1600,1860.6,101.0,238.3,123.2,4095.0,15148.0,2.0,0,
1700,1909.9,256.9,236.3,49.2,2979.0,8615.0,3.0,1,
1800,1854.2,186.0,225.5,35.6,2595.0,6418.0,2.0,0,
1900,1855.5,214.6,214.1,36.0,2438.0,6356.0,2.0,0,
2000,1857.9,219.2,201.2,75.1,2705.0,6552.0,2.0,0,
2100,1861.2,202.7,197.5,157.4,2609.0,6404.0,2.0,0,
2200,1874.2,74.7,190.0,169.9,2442.0,5309.0,2.0,0,
2300,1851.4,9.6,191.2,169.6,2442.0,5309.0,2.0,0,
2400,1855.7,6.1,191.2,116.8,2442.0,5309.0,2.0,0,
2600,1858.0,3.9,191.2,35.5,2442.0,5309.0,2.0,0,
2700,1858.7,3.5,191.2,36.2,2442.0,5309.0,2.0,0,
2800,1858.8,3.5,191.2,102.3,2442.0,5309.0,2.0,0,
2900,1860.2,3.8,191.2,101.9,2442.0,5309.0,2.0,0,
3000,1860.4,4.5,191.1,104.7,2442.0,5309.0,2.0,0,
3100,1860.1,3.2,191.1,98.6,2442.0,5309.0,2.0,0,
3200,1860.0,53.5,191.0,67.4,4078.0,18521.0,4.0,1,
3300,1942.0,178.6,185.3,67.1,3926.0,11911.0,2.0,0,
3400,1816.7,248.5,175.4,153.5,3354.0,9156.0,2.0,0,
3600,1868.5,228.2,194.9,158.4,3055.0,7869.0,2.0,0,
3700,1862.9,251.6,190.0,158.2,3454.0,8646.0,2.0,0,
3800,1902.6,171.0,194.5,146.8,3727.0,7488.0,2.0,0,
3900,1840.1,17.7,196.0,202.9,3727.0,7488.0,2.0,0,
4000,1852.9,6.7,196.1,157.7,3727.0,7488.0,2.0,0,
4100,1856.0,4.9,196.1,38.2,3727.0,7488.0,2.0,0,
4200,1858.6,5.1,196.1,35.0,3727.0,7488.0,2.0,0,
4300,1860.6,3.8,196.0,30.0,3727.0,7488.0,2.0,0,
4400,1860.8,4.8,196.0,66.9,3727.0,7488.0,2.0,0,
4600,1859.8,3.4,196.0,78.2,3727.0,7488.0,2.0,0,
4700,1861.0,3.3,196.0,83.4,3727.0,7488.0,2.0,0,
4800,1859.4,3.9,196.0,79.5,3727.0,7488.0,2.0,0,
4900,1867.7,218.7,195.9,79.4,3964.0,13684.0,2.0,0,
5000,1881.1,351.7,206.8,89.6,3062.0,9465.0,2.0,0,
5100,1876.6,259.7,207.5,93.0,3201.0,9357.0,2.0,0,
5200,1868.3,309.0,194.0,91.1,3544.0,9501.0,2.0,0,
5300,1932.4,353.3,197.3,94.0,3534.0,8951.0,2.0,0,
5400,1819.8,292.0,204.2,137.4,3529.0,9357.0,2.0,0,
5600,1853.6,19.1,200.9,85.2,3529.0,9357.0,2.0,0,
5700,1852.8,77.1,201.4,72.4,3529.0,9357.0,2.0,0,
5800,1855.8,85.9,202.8,67.1,3529.0,9357.0,2.0,0,
5900,1858.1,44.3,204.2,79.9,3529.0,9357.0,2.0,0,
6000,1859.5,16.2,204.6,124.6,3529.0,9357.0,2.0,0,
6100,1859.6,84.0,204.8,123.6,3529.0,9357.0,2.0,0,
6200,1860.4,86.8,206.5,69.1,3529.0,9357.0,2.0,0,
6300,1860.5,89.4,208.1,68.6,3529.0,9357.0,2.0,0,
6400,1860.9,90.0,209.7,151.2,3529.0,9357.0,2.0,0,
6600,1895.0,291.2,220.2,177.7,3484.0,11164.0,3.0,1,
6700,1879.0,282.0,210.5,71.2,2828.0,8896.0,2.0,0,
6800,1885.0,241.2,210.4,80.5,3019.0,8577.0,2.0,0,
6900,1849.2,328.4,208.9,134.3,3262.0,9232.0,2.0,0,
7000,1861.7,281.7,206.0,149.1,3187.0,8339.0,2.0,0,
7100,1871.4,97.5,207.8,103.7,3216.0,7883.0,2.0,0,
7200,1863.2,65.2,208.6,90.0,3216.0,7883.0,2.0,0,
7300,1853.2,62.5,209.3,93.1,3216.0,7883.0,2.0,0,
7400,1852.7,61.3,208.9,88.9,3216.0,7883.0,2.0,0,
7600,1859.4,61.9,208.6,239.7,3216.0,7883.0,2.0,0,
7700,1858.7,63.2,209.3,240.3,3216.0,7883.0,2.0,0,
7800,1860.1,59.7,208.7,240.3,3216.0,7883.0,2.0,0,
7900,1859.9,60.9,207.8,240.3,3216.0,7883.0,2.0,0,
8000,1859.5,46.5,207.0,240.0,3216.0,7883.0,2.0,0,
8100,1859.9,141.4,205.8,239.8,4020.0,15160.0,2.0,0,
8200,1888.7,271.8,195.1,177.6,3775.0,12352.0,2.0,0,
8300,1876.3,194.6,197.2,130.8,2995.0,8537.0,2.0,0,
8400,1900.5,165.3,198.9,146.6,3700.0,9333.0,2.0,0,
8600,1873.5,225.8,189.5,144.7,3461.0,8384.0,2.0,0,
8700,1873.4,111.8,194.6,152.0,3473.0,8271.0,2.0,0,
8800,1859.3,50.9,197.0,151.0,3473.0,8271.0,2.0,0,
8900,1851.7,53.2,196.7,93.5,3473.0,8271.0,2.0,0,
9000,1854.1,20.2,196.4,55.8,3473.0,8271.0,2.0,0,
9100,1858.7,7.5,195.6,66.6,3473.0,8271.0,2.0,0,
9200,1860.1,6.1,194.7,117.9,3473.0,8271.0,2.0,0,
9300,1860.6,7.2,193.7,116.3,3473.0,8271.0,2.0,0,
9400,1860.4,13.0,192.9,79.9,3473.0,8271.0,2.0,0,
9600,1860.4,41.7,191.4,70.9,3473.0,8271.0,2.0,0,
9700,1859.9,88.3,191.3,68.7,3473.0,8271.0,2.0,0,
9800,1875.2,299.1,199.3,71.2,3366.0,9090.0,2.0,0,
9900,1940.9,237.7,208.7,82.9,3699.0,9761.0,2.0,0,
10000,1826.4,238.2,211.3,91.4,3671.0,9316.0,2.0,0,
10100,1871.3,247.5,222.3,93.6,3837.0,9306.0,2.0,0,
10200,1877.2,288.0,220.3,112.8,3781.0,10659.0,2.0,0,
10300,1873.5,245.6,220.2,137.9,3702.0,9006.0,2.0,0,
10400,1863.1,55.7,222.0,150.8,3702.0,9006.0,2.0,0,
10600,1852.2,49.1,222.0,86.8,3702.0,9006.0,2.0,0,
10700,1857.6,47.3,222.2,86.0,3702.0,9006.0,2.0,0,
10800,1858.6,23.1,222.7,108.1,3702.0,9006.0,2.0,0,
10900,1859.8,8.1,222.8,239.1,3702.0,9006.0,2.0,0,
11000,1859.9,7.1,222.8,122.6,3702.0,9006.0,2.0,0,
11100,1859.4,7.4,222.9,114.5,3702.0,9006.0,2.0,0,
11200,1859.7,7.7,222.8,72.2,3702.0,9006.0,2.0,0,
11300,1859.4,9.7,222.5,99.9,3702.0,9006.0,2.0,0,
11400,1914.8,299.9,220.3,115.1,4095.0,14787.0,2.0,0,
11600,1854.8,283.0,234.9,38.4,3426.0,9238.0,2.0,0,
11700,1867.5,280.7,237.9,81.9,3567.0,9880.0,2.0,0,
11800,1872.3,269.3,234.1,94.4,3241.0,8661.0,2.0,0,
11900,1888.2,320.4,233.2,145.6,3443.0,9584.0,2.0,0,
12000,1849.0,32.4,236.6,149.4,3694.0,8796.0,2.0,0,
12100,1857.5,48.0,236.3,94.2,3694.0,8796.0,2.0,0,
12200,1854.3,42.8,236.2,65.7,3694.0,8796.0,2.0,0,
12300,1855.5,49.4,236.1,76.0,3694.0,8796.0,2.0,0,
12400,1860.0,17.9,236.0,82.0,3694.0,8796.0,2.0,0,
12600,1858.8,48.8,236.1,116.9,3694.0,8796.0,2.0,0,
12700,1859.6,49.3,236.5,73.9,3694.0,8796.0,2.0,0,
12800,1859.6,43.3,236.9,117.1,3694.0,8796.0,2.0,0,
12900,1860.0,20.2,237.2,176.8,3694.0,8796.0,2.0,0,
13000,1944.7,264.3,237.3,178.4,4095.0,15703.0,2.0,0,
13100,1809.2,310.5,231.2,56.1,3499.0,11409.0,2.0,0,
13200,1878.8,366.0,232.6,36.5,3438.0,9620.0,2.0,0,
13300,1872.5,319.3,234.1,91.5,3804.0,10284.0,2.0,0,
13400,1872.6,336.0,234.0,124.5,3553.0,9630.0,2.0,0,
13600,1827.9,63.4,240.2,158.5,3644.0,9773.0,2.0,0,
13700,1867.9,29.7,240.6,139.6,3644.0,9773.0,2.0,0,
13800,1853.6,11.4,240.4,68.0,3644.0,9773.0,2.0,0,
13900,1855.9,8.9,240.0,36.1,3644.0,9773.0,2.0,0,
14000,1859.2,8.5,239.6,54.5,3644.0,9773.0,2.0,0,
14100,1859.2,9.4,239.5,66.8,3644.0,9773.0,2.0,0,
14200,1860.0,9.1,239.4,107.8,3644.0,9773.0,2.0,0,
14300,1859.4,8.5,239.0,117.1,3644.0,9773.0,2.0,0,
14400,1859.5,8.9,238.6,123.3,3644.0,9773.0,2.0,0,
14600,1859.1,280.6,238.1,132.3,3920.0,16181.0,2.0,0,
14700,1873.6,275.2,239.1,36.2,3493.0,11638.0,2.0,0,
14800,1889.7,322.0,230.1,37.4,3454.0,9267.0,2.0,0,rest_end
14900,1872.9,293.3,223.7,53.6,3899.0,10638.0,2.0,0,
15000,1927.7,378.4,216.3,86.4,3560.0,9481.0,2.0,0,
15100,1816.1,346.0,216.7,93.2,3746.0,10563.0,2.0,0,
15200,1874.6,100.4,213.0,105.9,3877.0,10191.0,2.0,0,
15300,1881.1,27.2,211.9,87.2,3877.0,10191.0,2.0,0,
15400,1857.0,19.4,211.9,70.8,3877.0,10191.0,2.0,0,
15600,1858.2,22.0,211.9,73.8,3877.0,10191.0,2.0,0,
15700,1859.3,28.3,212.1,77.9,3877.0,10191.0,2.0,0,
15800,1860.1,10.3,212.2,80.6,3877.0,10191.0,2.0,0,
15900,1859.5,14.3,212.2,100.2,3877.0,10191.0,2.0,0,
16000,1859.2,16.1,212.2,72.6,3877.0,10191.0,2.0,0,
16100,1860.0,10.3,212.3,67.7,3877.0,10191.0,2.0,0,
16200,1859.5,204.0,212.3,78.8,3877.0,10191.0,2.0,0,
16300,1854.5,260.5,207.7,71.1,4095.0,15352.0,2.0,0,
16400,1899.3,353.9,207.7,78.5,3309.0,8851.0,2.0,0,
16600,1853.5,370.5,216.6,102.4,4003.0,10451.0,2.0,0,
16700,1866.8,212.8,217.3,93.8,4095.0,10505.0,2.0,0,
16800,1884.0,216.1,216.6,135.9,4070.0,10136.0,2.0,0,
16900,1879.1,18.8,217.5,90.0,3799.0,10635.0,2.0,0,
17000,1860.4,15.5,217.1,93.3,3799.0,10635.0,2.0,0,
17100,1853.8,10.6,217.3,88.6,3799.0,10635.0,2.0,0,
17200,1856.6,9.6,217.3,43.2,3799.0,10635.0,2.0,0,
17300,1858.6,8.2,217.3,52.7,3799.0,10635.0,2.0,0,
17400,1860.0,10.8,217.1,57.3,3799.0,10635.0,2.0,0,
17600,1859.5,31.4,217.4,113.8,3799.0,10635.0,2.0,0,
17700,1860.3,11.1,217.5,122.5,3799.0,10635.0,2.0,0,
17800,1859.8,34.5,217.5,117.9,3799.0,10635.0,2.0,0,
17900,1851.6,320.3,217.0,107.5,4095.0,16063.0,2.0,0,
18000,1891.2,201.4,224.1,56.9,3126.0,9857.0,3.0,1,
18100,1920.1,192.3,211.1,48.8,3835.0,10079.0,2.0,0,
18200,1832.1,228.9,208.9,80.5,4095.0,10449.0,2.0,0,
18300,1864.1,268.9,207.8,104.8,4078.0,10344.0,2.0,0,
18400,1870.9,245.2,204.8,104.0,4077.0,10873.0,2.0,0,
18600,1872.1,16.5,202.4,49.1,4077.0,10873.0,2.0,0,
18700,1864.9,9.4,202.1,41.2,4077.0,10873.0,2.0,0,
18800,1860.0,8.7,202.0,38.0,4077.0,10873.0,2.0,0,
18900,1863.4,10.6,201.8,41.6,4077.0,10873.0,2.0,0,
19000,1863.6,14.3,201.7,55.4,4077.0,10873.0,2.0,0,
19100,1862.9,8.5,201.7,99.4,4077.0,10873.0,2.0,0,
19200,1861.8,8.9,201.4,73.1,4077.0,10873.0,2.0,0,
19300,1862.4,9.5,201.0,72.3,4077.0,10873.0,2.0,0,
19400,1862.2,8.8,200.9,100.6,4077.0,10873.0,2.0,0,
19600,1953.8,281.7,192.5,72.7,3714.0,11304.0,2.0,0,
19700,1818.9,381.5,197.3,37.9,3510.0,9277.0,2.0,0,
19800,1871.8,257.0,210.9,38.7,4095.0,10350.0,2.0,0,
19900,1873.7,265.3,215.1,81.7,3758.0,9891.0,2.0,0,
20000,1876.9,254.6,205.7,131.7,4068.0,9968.0,2.0,0,
20100,1929.7,97.3,211.1,94.4,3702.0,8879.0,2.0,0,
20200,1814.4,23.8,218.6,85.0,3702.0,8879.0,2.0,0,
20300,1857.7,12.0,218.8,66.2,3702.0,8879.0,2.0,0,
20400,1855.7,11.1,219.0,36.3,3702.0,8879.0,2.0,0,
20600,1858.7,11.2,219.3,53.0,3702.0,8879.0,2.0,0,
20700,1859.0,13.4,219.4,102.9,3702.0,8879.0,2.0,0,
20800,1860.4,10.2,219.4,123.4,3702.0,8879.0,2.0,0,
20900,1859.4,9.6,219.5,117.9,3702.0,8879.0,2.0,0,
21000,1859.2,32.0,219.6,116.7,3702.0,8879.0,2.0,0,
21100,1860.1,80.9,219.8,67.7,4031.0,19089.0,4.0,1,
21200,1913.4,384.8,217.6,57.2,4095.0,13340.0,2.0,0,
21300,1844.4,280.3,226.7,35.4,3569.0,10268.0,2.0,0,
21400,1874.7,313.6,215.7,35.8,3843.0,10541.0,2.0,0,
21600,1898.3,307.7,218.1,104.9,4021.0,10866.0,2.0,0,
21700,1856.5,213.4,216.6,83.8,3920.0,9702.0,2.0,0,
21800,1864.2,22.8,217.6,55.0,3920.0,9702.0,2.0,0,
21900,1871.8,12.6,217.2,51.9,3920.0,9702.0,2.0,0,
22000,1861.0,9.6,217.0,35.5,3920.0,9702.0,2.0,0,
22100,1859.3,9.4,217.0,30.1,3920.0,9702.0,2.0,0,
22200,1861.3,10.8,216.9,34.7,3920.0,9702.0,2.0,0,
22300,1861.6,9.6,216.8,81.5,3920.0,9702.0,2.0,0,
22400,1861.2,8.8,216.8,103.5,3920.0,9702.0,2.0,0,
22600,1861.3,9.0,216.7,100.4,3920.0,9702.0,2.0,0,
22700,1861.0,72.6,216.5,116.4,3920.0,9702.0,2.0,0,
22800,1853.2,257.9,217.0,197.3,4095.0,14769.0,2.0,0,
22900,1899.2,308.5,202.5,169.4,3763.0,11291.0,2.0,0,
23000,1877.0,326.2,205.7,118.0,3662.0,9673.0,2.0,0,
23100,1879.0,326.0,212.2,94.2,4054.0,10466.0,2.0,0,
23200,1922.7,411.2,207.6,82.7,3998.0,10467.0,2.0,0,
23300,1827.3,358.3,220.5,77.2,3882.0,11208.0,2.0,0,
23400,1890.0,32.2,217.9,91.2,4095.0,10087.0,2.0,0,
23600,1858.1,10.8,218.3,41.2,4095.0,10087.0,2.0,0,
23700,1858.5,10.7,218.3,37.5,4095.0,10087.0,2.0,0,
23800,1861.6,9.9,218.3,36.2,4095.0,10087.0,2.0,0,
23900,1860.1,9.2,218.3,100.3,4095.0,10087.0,2.0,0,
24000,1860.1,10.2,218.4,88.8,4095.0,10087.0,2.0,0,
24100,1860.1,9.8,218.4,117.7,4095.0,10087.0,2.0,0,
24200,1859.8,9.1,218.4,132.4,4095.0,10087.0,2.0,0,
24300,1859.9,10.4,218.5,150.4,4095.0,10087.0,2.0,0,
24400,1845.0,255.0,218.2,155.9,4095.0,16369.0,2.0,0,
24600,1889.5,355.5,217.4,159.0,3722.0,9869.0,2.0,0,
24700,1933.8,259.3,221.1,156.2,3550.0,10349.0,2.0,0,
24800,1814.6,371.6,218.9,93.9,3859.0,10717.0,2.0,0,
24900,1876.6,424.3,214.4,83.9,3875.0,9812.0,2.0,0,
25000,1879.6,61.4,222.0,104.8,3995.0,9606.0,2.0,0,
25100,1867.2,21.3,221.9,89.9,3995.0,9606.0,2.0,0,
25200,1856.5,11.5,222.0,36.5,3995.0,9606.0,2.0,0,
25300,1856.5,10.0,222.1,35.2,3995.0,9606.0,2.0,0,
25400,1858.5,9.1,222.1,36.4,3995.0,9606.0,2.0,0,
25600,1860.5,10.0,222.2,99.9,3995.0,9606.0,2.0,0,
25700,1860.0,9.2,222.2,116.5,3995.0,9606.0,2.0,0,
25800,1859.9,10.4,222.2,114.6,3995.0,9606.0,2.0,0,
25900,1860.7,9.7,222.1,113.3,3995.0,9606.0,2.0,0,
26000,1860.6,322.9,222.1,118.0,4095.0,16160.0,2.0,0,
26100,1882.2,297.6,231.5,29.1,3862.0,13003.0,2.0,0,
26200,1900.2,375.7,232.2,29.7,3319.0,8702.0,2.0,0,
26300,1858.6,195.6,233.1,30.3,3738.0,9727.0,2.0,0,
26400,1867.0,193.3,232.9,86.6,4011.0,10374.0,2.0,0,
26600,1881.0,94.0,212.4,94.4,4002.0,9832.0,2.0,0,
26700,1861.4,32.3,214.3,103.9,4002.0,9832.0,2.0,0,
26800,1858.3,41.8,214.7,94.6,4002.0,9832.0,2.0,0,
26900,1859.3,22.6,214.9,94.2,4002.0,9832.0,2.0,0,
27000,1858.7,10.9,215.0,83.0,4002.0,9832.0,2.0,0,
27100,1860.0,9.5,215.0,80.1,4002.0,9832.0,2.0,0,
27200,1859.7,9.3,215.0,80.6,4002.0,9832.0,2.0,0,
27300,1859.7,10.3,215.0,79.2,4002.0,9832.0,2.0,0,
27400,1860.2,10.1,215.0,102.7,4002.0,9832.0,2.0,0,
27600,1859.9,258.5,215.0,133.2,4002.0,9832.0,2.0,0,
27700,1874.0,329.4,218.5,29.4,3557.0,10396.0,2.0,0,
27800,1935.2,289.8,224.3,29.7,3664.0,11065.0,3.0,1,
27900,1829.3,416.3,212.2,30.0,3905.0,9832.0,2.0,0,
28000,1876.4,211.0,224.7,42.4,4095.0,10097.0,2.0,0,
28100,1882.5,212.3,226.9,124.1,4063.0,10315.0,2.0,0,
28200,1867.3,203.3,232.7,94.7,4049.0,10275.0,2.0,0,
28300,1871.0,19.6,232.6,104.1,4049.0,10275.0,2.0,0,
28400,1856.4,13.2,232.7,52.2,4049.0,10275.0,2.0,0,
28600,1856.9,10.6,232.1,39.9,4049.0,10275.0,2.0,0,
28700,1859.5,10.0,232.1,81.3,4049.0,10275.0,2.0,0,
28800,1859.3,11.1,232.1,83.2,4049.0,10275.0,2.0,0,
28900,1859.6,10.4,232.1,103.8,4049.0,10275.0,2.0,0,
29000,1860.4,20.7,232.1,117.3,4049.0,10275.0,2.0,0,
29100,1859.1,22.8,232.3,124.3,4049.0,10275.0,2.0,0,
29200,1860.9,32.0,232.3,117.1,4049.0,10275.0,2.0,0,
29300,1938.0,274.7,226.9,65.5,4095.0,15340.0,2.0,0,
29400,1817.0,403.8,220.3,35.2,3495.0,10369.0,2.0,0,
29600,1877.3,249.8,223.2,56.1,4095.0,11045.0,2.0,0,
29700,1873.9,259.2,232.7,94.0,4095.0,10276.0,2.0,0,
29800,1929.6,271.0,227.4,116.5,4095.0,10391.0,2.0,0,
29900,1812.5,23.4,227.3,93.4,3797.0,10103.0,2.0,0,
30000,1861.4,6.6,227.2,88.2,3797.0,10103.0,2.0,0,
30100,1858.9,4.6,227.0,41.5,3797.0,10103.0,2.0,0,
30200,1858.3,4.3,226.9,36.5,3797.0,10103.0,2.0,0,
30300,1860.3,3.5,226.9,36.0,3797.0,10103.0,2.0,0,
30400,1861.7,3.0,226.8,87.3,3797.0,10103.0,2.0,0,
30600,1860.2,3.1,226.7,106.1,3797.0,10103.0,2.0,0,
30700,1860.3,2.9,226.7,104.7,3797.0,10103.0,2.0,0,
30800,1859.5,3.6,226.5,112.8,3797.0,10103.0,2.0,0,
30900,1917.0,403.1,224.6,48.6,4095.0,15805.0,2.0,0,
31000,1823.3,462.8,233.5,36.5,3593.0,11371.0,2.0,0,
31100,1882.8,415.4,236.3,38.7,3571.0,9943.0,2.0,0,
31200,1866.9,227.6,247.6,78.0,3635.0,9674.0,2.0,0,
31300,1882.6,298.7,241.9,94.3,3769.0,9243.0,2.0,0,
31400,1871.3,411.9,243.0,137.6,3771.0,9881.0,2.0,0,
31600,1868.9,19.8,250.9,151.2,3771.0,9881.0,2.0,0,
31700,1855.9,7.6,251.0,40.7,3771.0,9881.0,2.0,0,
31800,1856.4,8.2,251.1,35.4,3771.0,9881.0,2.0,0,
31900,1859.2,7.9,251.1,34.6,3771.0,9881.0,2.0,0,
32000,1860.1,10.8,251.2,44.8,3771.0,9881.0,2.0,0,
32100,1860.1,13.1,251.2,104.4,3771.0,9881.0,2.0,0,
32200,1860.7,13.1,251.3,118.1,3771.0,9881.0,2.0,0,
32300,1860.2,12.3,251.3,123.9,3771.0,9881.0,2.0,0,
32400,1860.3,13.2,251.3,176.8,3771.0,9881.0,2.0,0,
32600,1866.4,213.5,233.1,156.8,4095.0,14617.0,2.0,0,
32700,1897.2,253.5,230.5,156.9,3471.0,10120.0,2.0,0,
32800,1869.5,280.8,215.5,136.9,3713.0,9492.0,2.0,0,
32900,1916.0,319.1,220.8,93.2,3778.0,10165.0,2.0,0,
33000,1820.6,336.2,221.3,117.9,3502.0,9418.0,2.0,0,
33100,1869.4,156.6,220.7,145.3,3365.0,8016.0,2.0,0,
33200,1874.8,19.8,220.7,151.9,3365.0,8016.0,2.0,0,
33300,1853.5,12.6,220.7,73.8,3365.0,8016.0,2.0,0,
33400,1855.9,11.8,220.8,35.6,3365.0,8016.0,2.0,0,
33600,1859.9,10.9,220.8,37.8,3365.0,8016.0,2.0,0,
33700,1860.0,10.7,220.8,134.5,3365.0,8016.0,2.0,0,
33800,1859.7,11.8,220.8,149.9,3365.0,8016.0,2.0,0,
33900,1860.2,12.3,220.8,123.3,3365.0,8016.0,2.0,0,
34000,1860.5,11.1,220.8,130.0,3365.0,8016.0,2.0,0,
34100,1860.6,25.9,220.8,140.1,3365.0,8016.0,2.0,0,
34200,1856.9,273.4,220.2,122.1,4095.0,15558.0,2.0,0,
34300,1898.1,269.7,226.4,30.0,3983.0,11936.0,2.0,0,
34400,1926.1,315.9,222.2,30.2,3873.0,10287.0,2.0,0,
34600,1865.8,350.6,225.2,158.0,3823.0,9567.0,2.0,0,
34700,1873.9,340.2,221.2,157.3,3836.0,9054.0,2.0,0,
34800,1885.9,29.1,222.5,168.9,3788.0,9453.0,2.0,0,
34900,1856.8,14.1,222.4,105.0,3788.0,9453.0,2.0,0,
35000,1855.5,12.1,222.4,35.5,3788.0,9453.0,2.0,0,
35100,1857.7,13.6,222.4,34.2,3788.0,9453.0,2.0,0,
35200,1860.7,13.0,222.4,34.3,3788.0,9453.0,2.0,0,
35300,1860.2,12.3,222.4,135.5,3788.0,9453.0,2.0,0,
35400,1860.2,13.6,222.4,177.4,3788.0,9453.0,2.0,0,
35600,1860.2,12.9,222.4,178.6,3788.0,9453.0,2.0,0,
35700,1859.8,13.9,222.5,215.2,3788.0,9453.0,2.0,0,
35800,1853.3,280.6,223.5,187.7,4095.0,16246.0,2.0,0,
35900,1918.2,309.4,219.9,177.8,3914.0,11157.0,2.0,0,
36000,1873.3,390.7,229.6,158.7,3656.0,9368.0,2.0,0,
36100,1851.2,371.9,234.6,158.3,3233.0,8054.0,2.0,0,
36200,1876.5,346.3,230.2,94.0,3028.0,7848.0,2.0,0,
36300,1877.2,322.4,230.7,93.9,2778.0,7323.0,2.0,0,
36400,1875.1,43.0,234.4,213.5,3781.0,8700.0,2.0,0,
36600,1854.5,11.4,234.4,36.3,3781.0,8700.0,2.0,0,
36700,1856.8,11.2,234.4,35.3,3781.0,8700.0,2.0,0,
36800,1859.3,9.2,234.4,35.8,3781.0,8700.0,2.0,0,
36900,1860.0,10.7,234.4,80.7,3781.0,8700.0,2.0,0,
37000,1860.6,10.4,234.4,90.2,3781.0,8700.0,2.0,0,
37100,1860.6,9.7,234.4,102.9,3781.0,8700.0,2.0,0,
37200,1859.3,10.6,234.4,116.9,3781.0,8700.0,2.0,0,
37300,1859.7,11.4,234.4,117.6,3781.0,8700.0,2.0,0,
37400,1859.3,165.6,233.7,195.7,4085.0,16596.0,2.0,0,
37600,1807.4,380.5,230.4,176.6,3408.0,8564.0,2.0,0,
37700,1877.3,413.6,221.9,157.5,3094.0,7805.0,2.0,0,
37800,1878.9,340.9,228.2,157.8,3985.0,10125.0,2.0,0,
37900,1864.5,347.9,232.2,157.7,3279.0,7974.0,2.0,0,
38000,1924.6,89.1,233.0,150.5,3856.0,9717.0,2.0,0,
38100,1816.4,19.2,233.7,157.5,3856.0,9717.0,2.0,0,
38200,1855.6,13.8,233.7,40.0,3856.0,9717.0,2.0,0,
38300,1857.0,14.9,233.7,35.5,3856.0,9717.0,2.0,0,
38400,1859.8,16.4,233.7,36.0,3856.0,9717.0,2.0,0,
38600,1861.2,15.0,233.7,122.2,3856.0,9717.0,2.0,0,
38700,1859.7,17.0,233.8,219.1,3856.0,9717.0,2.0,0,
38800,1860.5,16.2,233.8,200.1,3856.0,9717.0,2.0,0,
38900,1861.0,14.3,233.8,233.8,3856.0,9717.0,2.0,0,
39000,1860.3,225.4,233.8,231.5,4002.0,15564.0,2.0,0,
39100,1886.9,436.0,243.6,35.0,3934.0,12658.0,2.0,0,
39200,1867.8,423.6,252.8,30.2,2987.0,7494.0,2.0,0,
39300,1876.1,330.6,257.3,35.5,3542.0,8773.0,2.0,0,
39400,1871.9,303.2,251.2,82.2,2694.0,6856.0,2.0,0,
39600,1831.6,153.0,242.0,212.1,3533.0,8777.0,2.0,0,
39700,1859.6,24.0,242.0,168.5,3533.0,8777.0,2.0,0,
39800,1855.3,16.8,242.0,111.4,3533.0,8777.0,2.0,0,
39900,1856.3,16.6,242.1,79.9,3533.0,8777.0,2.0,0,
40000,1858.9,16.0,242.1,88.3,3533.0,8777.0,2.0,0,
40100,1859.8,14.6,242.1,91.3,3533.0,8777.0,2.0,0,
40200,1859.7,16.8,242.2,237.8,3533.0,8777.0,2.0,0,
40300,1860.7,16.0,242.1,239.4,3533.0,8777.0,2.0,0,
40400,1860.2,15.1,242.1,239.5,3533.0,8777.0,2.0,0,
40600,1860.5,228.8,242.2,234.1,3533.0,8777.0,2.0,0,
40700,1855.5,392.6,244.7,34.4,4095.0,16080.0,2.0,0,
40800,1907.8,381.8,234.4,29.5,3815.0,11417.0,2.0,0,
40900,1883.4,339.9,230.8,29.8,3729.0,9966.0,2.0,0,
41000,1881.8,277.8,235.4,44.4,3997.0,9702.0,2.0,0,
41100,1877.8,257.2,235.5,138.5,3999.0,10354.0,2.0,0,
41200,1853.6,494.3,234.6,152.3,3887.0,10660.0,2.0,0,
41300,1873.4,41.1,244.8,157.6,3456.0,8369.0,2.0,0,
41400,1856.8,15.4,244.8,93.3,3456.0,8369.0,2.0,0,
41600,1857.9,13.2,244.9,35.9,3456.0,8369.0,2.0,0,
41700,1860.2,14.6,244.8,35.9,3456.0,8369.0,2.0,0,
41800,1861.0,12.0,244.8,229.3,3456.0,8369.0,2.0,0,
41900,1860.3,11.6,244.8,235.1,3456.0,8369.0,2.0,0,
42000,1860.1,13.0,244.8,221.2,3456.0,8369.0,2.0,0,
42100,1860.3,12.3,244.7,239.6,3456.0,8369.0,2.0,0,
42200,1860.2,12.3,244.7,202.9,3456.0,8369.0,2.0,0,
42300,1852.3,236.6,241.8,35.2,4080.0,15931.0,2.0,0,
42400,1897.2,209.1,238.3,34.6,3588.0,12048.0,2.0,0,
42600,1917.4,375.1,227.7,76.7,3929.0,9780.0,2.0,0,
42700,1819.9,477.0,232.1,158.8,3874.0,10322.0,2.0,0,
42800,1872.4,313.7,245.6,167.5,3650.0,9681.0,2.0,0,
42900,1874.2,64.0,240.0,150.1,2992.0,7789.0,2.0,0,
43000,1864.0,14.2,239.8,93.7,2992.0,7789.0,2.0,0,
43100,1854.7,10.9,239.8,49.0,2992.0,7789.0,2.0,0,
43200,1857.1,12.3,239.8,35.5,2992.0,7789.0,2.0,0,
43300,1860.0,11.6,239.8,35.0,2992.0,7789.0,2.0,0,
43400,1860.7,11.2,239.8,74.3,2992.0,7789.0,2.0,0,
43600,1860.4,7.3,239.7,176.9,2992.0,7789.0,2.0,0,
43700,1860.7,7.2,239.7,156.5,2992.0,7789.0,2.0,0,
43800,1860.1,9.3,239.7,167.7,2992.0,7789.0,2.0,0,
43900,1861.0,260.3,239.7,170.8,3743.0,15556.0,2.0,0,
44000,1879.6,234.4,237.8,34.7,3905.0,12960.0,2.0,0,
44100,1948.3,272.8,234.8,35.4,3741.0,10655.0,2.0,0,
44200,1811.2,301.6,232.7,43.2,3749.0,9872.0,2.0,0,
44300,1862.4,341.3,231.2,133.4,3661.0,9479.0,2.0,0,
44400,1869.9,317.5,219.5,158.1,3623.0,9384.0,2.0,0,
44600,1869.8,16.8,219.2,168.3,3623.0,9384.0,2.0,0,
44700,1856.0,11.6,219.1,93.8,3623.0,9384.0,2.0,0,
44800,1856.4,10.4,219.2,38.1,3623.0,9384.0,2.0,0,
44900,1858.6,10.1,219.2,35.6,3623.0,9384.0,2.0,0,
45000,1860.4,11.8,219.2,48.3,3623.0,9384.0,2.0,0,
45100,1860.9,11.6,219.2,92.7,3623.0,9384.0,2.0,0,
45200,1860.5,11.2,219.2,125.6,3623.0,9384.0,2.0,0,
45300,1860.0,12.5,219.2,131.9,3623.0,9384.0,2.0,0,
45400,1860.4,11.8,219.2,169.1,3623.0,9384.0,2.0,0,
45600,1893.2,312.1,215.8,83.3,4077.0,14647.0,2.0,0,
45700,1908.8,347.7,229.7,86.7,3913.0,10962.0,2.0,0,
45800,1825.3,367.3,240.7,89.5,3649.0,9014.0,2.0,0,
45900,1871.9,350.8,239.4,93.6,3115.0,8166.0,2.0,0,
46000,1872.9,272.9,237.1,93.1,3418.0,9589.0,2.0,0,
46100,1873.9,238.1,233.8,114.7,3465.0,8484.0,2.0,0,
46200,1863.6,23.4,232.4,159.0,3465.0,8484.0,2.0,0,
46300,1857.4,15.8,232.3,104.1,3465.0,8484.0,2.0,0,
46400,1856.7,12.3,232.4,65.4,3465.0,8484.0,2.0,0,
46600,1861.2,12.4,232.3,37.7,3465.0,8484.0,2.0,0,
46700,1860.8,12.1,232.3,117.1,3465.0,8484.0,2.0,0,
46800,1860.9,13.7,232.3,177.6,3465.0,8484.0,2.0,0,
46900,1861.1,13.0,232.3,178.4,3465.0,8484.0,2.0,0,
47000,1859.9,13.1,232.3,186.2,3465.0,8484.0,2.0,0,
47100,1860.3,15.7,232.3,178.6,3465.0,8484.0,2.0,0,
47200,1935.3,326.3,228.5,154.3,4095.0,14681.0,2.0,0,
47300,1805.7,354.1,225.1,35.3,3676.0,10917.0,2.0,0,
47400,1880.2,398.9,219.4,30.1,3181.0,8082.0,2.0,0,
47600,1861.7,199.5,221.1,114.3,3329.0,9785.0,2.0,0,
47700,1928.9,318.9,220.7,94.5,3693.0,10256.0,2.0,0,
47800,1829.4,41.5,223.3,90.0,3796.0,9446.0,2.0,0,
47900,1860.3,15.9,223.2,87.2,3796.0,9446.0,2.0,0,
48000,1855.4,14.1,223.2,36.8,3796.0,9446.0,2.0,0,
48100,1857.9,13.7,223.2,34.8,3796.0,9446.0,2.0,0,
48200,1860.2,12.9,223.3,34.5,3796.0,9446.0,2.0,0,
48300,1861.0,14.4,223.3,154.3,3796.0,9446.0,2.0,0,
48400,1860.7,13.6,223.3,178.2,3796.0,9446.0,2.0,0,
48600,1860.3,14.4,223.3,177.4,3796.0,9446.0,2.0,0,
48700,1861.0,13.8,223.3,184.1,3796.0,9446.0,2.0,0,
48800,1874.4,320.1,223.2,201.1,4095.0,16166.0,2.0,0,
48900,1857.0,420.9,222.0,37.8,3156.0,10291.0,2.0,0,
49000,1892.6,361.1,232.6,35.8,3837.0,10268.0,2.0,0,
49100,1876.8,319.1,228.9,37.1,3236.0,8304.0,2.0,0,
49200,1913.4,307.0,230.2,85.5,3792.0,9561.0,2.0,0,
49300,1828.1,421.2,235.0,158.2,4061.0,10523.0,2.0,0,
49400,1863.7,75.9,240.1,157.9,3970.0,9532.0,2.0,0,
49600,1857.1,14.7,240.3,35.8,3970.0,9532.0,2.0,0,
49700,1856.6,12.8,240.3,34.5,3970.0,9532.0,2.0,0,
49800,1858.2,15.3,240.4,30.2,3970.0,9532.0,2.0,0,
49900,1860.9,15.0,240.4,44.6,3970.0,9532.0,2.0,0,
50000,1860.5,12.5,240.4,130.0,3970.0,9532.0,2.0,0,
50100,1860.0,14.9,240.4,144.3,3970.0,9532.0,2.0,0,
50200,1860.8,13.7,240.4,143.1,3970.0,9532.0,2.0,0,
50300,1860.4,13.2,240.4,148.6,3970.0,9532.0,2.0,0,
50400,1860.4,100.6,240.4,170.5,3941.0,18786.0,4.0,1,
50600,1893.8,358.9,225.1,38.8,3923.0,11424.0,2.0,0,
50700,1884.8,287.6,230.6,67.2,3701.0,9509.0,2.0,0,
50800,1875.1,417.8,227.9,92.7,3951.0,10277.0,2.0,0,
50900,1846.7,494.1,234.7,90.9,3838.0,10133.0,2.0,0,
51000,1872.9,152.0,238.8,137.7,3628.0,8632.0,2.0,0,
51100,1873.5,21.9,238.1,94.2,3628.0,8632.0,2.0,0,
51200,1855.4,17.1,238.2,66.5,3628.0,8632.0,2.0,0,
51300,1858.1,15.5,238.2,35.6,3628.0,8632.0,2.0,0,
51400,1857.8,14.1,238.2,35.1,3628.0,8632.0,2.0,0,
51600,1860.1,14.9,238.3,90.3,3628.0,8632.0,2.0,0,
51700,1861.1,13.9,238.2,177.3,3628.0,8632.0,2.0,0,
51800,1860.3,13.2,238.3,239.0,3628.0,8632.0,2.0,0,
51900,1860.7,15.3,238.3,238.7,3628.0,8632.0,2.0,0,
52000,1860.9,30.7,238.2,201.6,3628.0,8632.0,2.0,0,
52100,1858.0,247.3,238.3,141.8,4095.0,15905.0,2.0,0,
52200,1894.9,272.7,237.8,34.8,3724.0,11511.0,2.0,0,
52300,1926.0,401.8,235.3,35.7,3651.0,10380.0,2.0,0,
52400,1813.1,313.6,240.2,89.4,3791.0,9880.0,2.0,0,
52600,1874.4,301.1,225.2,92.9,3385.0,8858.0,2.0,0,
52700,1880.6,27.7,227.6,157.6,3833.0,9271.0,2.0,0,
52800,1855.9,16.3,227.6,90.8,3833.0,9271.0,2.0,0,
52900,1855.2,15.0,227.6,35.0,3833.0,9271.0,2.0,0,
53000,1857.3,13.8,227.6,30.1,3833.0,9271.0,2.0,0,
53100,1859.8,15.0,227.5,30.0,3833.0,9271.0,2.0,0,
53200,1861.5,13.6,227.5,135.0,3833.0,9271.0,2.0,0,
53300,1860.0,13.6,227.5,143.8,3833.0,9271.0,2.0,0,
53400,1859.7,15.5,227.5,196.7,3833.0,9271.0,2.0,0,
53600,1860.5,14.0,227.6,177.8,3833.0,9271.0,2.0,0,
53700,1851.4,263.4,227.7,122.8,4014.0,15954.0,2.0,0,
53800,1961.8,311.6,228.0,83.1,3858.0,12720.0,2.0,0,
53900,1814.5,355.0,230.8,83.5,3732.0,9750.0,2.0,0,
54000,1861.9,357.8,231.7,78.0,3410.0,8506.0,2.0,0,
54100,1876.9,332.0,239.9,92.8,3206.0,7971.0,2.0,0,
54200,1876.1,328.6,234.1,93.9,3449.0,8769.0,2.0,0,
54300,1872.0,46.6,240.7,94.5,3661.0,8687.0,2.0,0,
54400,1860.1,17.7,240.6,92.9,3661.0,8687.0,2.0,0,
54600,1856.6,14.8,240.6,35.0,3661.0,8687.0,2.0,0,
54700,1860.1,14.0,240.6,34.8,3661.0,8687.0,2.0,0,
54800,1860.1,13.5,240.6,140.7,3661.0,8687.0,2.0,0,
54900,1860.1,15.3,240.6,150.3,3661.0,8687.0,2.0,0,
55000,1861.1,14.2,240.6,133.7,3661.0,8687.0,2.0,0,
55100,1860.1,13.6,240.6,176.7,3661.0,8687.0,2.0,0,
55200,1860.1,15.5,240.6,177.7,3661.0,8687.0,2.0,0,
55300,1891.4,165.2,240.5,177.2,4095.0,16372.0,2.0,0,
55400,1885.2,361.3,239.2,92.0,3889.0,12995.0,2.0,0,
55600,1877.0,415.6,238.5,85.3,3154.0,8333.0,2.0,0,
55700,1878.2,313.8,238.3,93.0,3631.0,9815.0,2.0,0,
55800,1877.0,351.9,237.2,93.3,3092.0,8054.0,2.0,0,
55900,1884.5,88.0,234.3,93.9,3752.0,9163.0,2.0,0,
56000,1844.4,18.3,235.2,150.7,3752.0,9163.0,2.0,0,
56100,1856.5,16.0,235.2,41.7,3752.0,9163.0,2.0,0,
56200,1857.0,14.4,235.2,35.2,3752.0,9163.0,2.0,0,
56300,1858.8,13.9,235.2,35.0,3752.0,9163.0,2.0,0,
56400,1859.5,15.1,235.2,50.4,3752.0,9163.0,2.0,0,
56600,1860.3,13.3,235.2,178.1,3752.0,9163.0,2.0,0,
56700,1860.3,15.2,235.2,178.1,3752.0,9163.0,2.0,0,
56800,1860.9,13.4,235.2,178.1,3752.0,9163.0,2.0,0,
56900,1860.6,112.6,235.2,228.0,3984.0,15760.0,2.0,0,
57000,1863.9,358.3,234.5,155.5,3995.0,14417.0,2.0,0,
57100,1896.8,428.4,229.5,158.4,3110.0,8725.0,2.0,0,
57200,1879.8,362.1,234.9,156.3,3659.0,10205.0,2.0,0,
57300,1867.1,361.2,232.5,94.2,2861.0,7777.0,2.0,0,
57400,1922.1,364.0,237.2,94.3,3673.0,9650.0,2.0,0,
57600,1872.0,24.2,239.0,149.0,3673.0,9650.0,2.0,0,
57700,1856.0,16.1,239.1,73.0,3673.0,9650.0,2.0,0,
57800,1855.1,14.7,239.1,35.0,3673.0,9650.0,2.0,0,
57900,1857.4,15.3,239.2,34.7,3673.0,9650.0,2.0,0,
58000,1860.4,14.4,239.1,35.3,3673.0,9650.0,2.0,0,
58100,1860.3,14.3,239.1,226.1,3673.0,9650.0,2.0,0,
58200,1859.7,15.4,239.2,239.3,3673.0,9650.0,2.0,0,
58300,1860.1,14.6,239.2,202.4,3673.0,9650.0,2.0,0,
58400,1860.0,14.0,239.2,182.7,3673.0,9650.0,2.0,0,
58600,1855.1,197.6,239.4,231.6,4078.0,16190.0,2.0,0,
58700,1897.5,223.7,237.9,219.8,3799.0,12692.0,2.0,0,
58800,1883.5,261.7,226.6,190.0,3975.0,10582.0,2.0,0,
58900,1922.9,301.7,226.0,169.0,3814.0,10439.0,2.0,0,
59000,1818.1,327.3,212.0,157.6,4092.0,11263.0,2.0,0,
59100,1867.2,335.9,202.6,92.9,4026.0,10539.0,2.0,0,
59200,1879.2,30.3,204.3,133.1,3994.0,10020.0,2.0,0,
59300,1858.6,17.5,204.2,104.2,3994.0,10020.0,2.0,0,
59400,1856.4,15.8,204.2,37.1,3994.0,10020.0,2.0,0,
59600,1860.1,14.3,204.2,37.9,3994.0,10020.0,2.0,0,
59700,1860.2,15.4,204.2,102.3,3994.0,10020.0,2.0,0,
59800,1860.4,14.5,204.2,200.9,3994.0,10020.0,2.0,0,
59900,1859.9,14.3,204.2,213.5,3994.0,10020.0,2.0,0,
60000,1860.2,15.0,204.2,215.1,3994.0,10020.0,2.0,0,
60100,1860.2,14.2,204.2,178.0,3994.0,10020.0,2.0,0,
60200,1853.6,296.5,203.6,154.1,3758.0,15762.0,2.0,0,
60300,1893.2,277.4,215.1,29.7,3660.0,12671.0,2.0,0,
60400,1907.7,312.2,213.2,30.0,3805.0,10829.0,2.0,0,
60600,1844.1,430.6,219.3,93.3,3730.0,9534.0,2.0,0,
60700,1875.8,334.6,228.5,94.3,3388.0,10399.0,2.0,0,
60800,1875.6,52.7,230.6,93.5,3906.0,10113.0,2.0,0,
60900,1863.9,17.8,230.5,93.6,3906.0,10113.0,2.0,0,
61000,1856.1,14.7,230.5,46.0,3906.0,10113.0,2.0,0,
61100,1856.3,14.2,230.5,37.9,3906.0,10113.0,2.0,0,
61200,1859.5,15.2,230.5,37.7,3906.0,10113.0,2.0,0,
61300,1860.3,14.1,230.5,123.2,3906.0,10113.0,2.0,0,
61400,1859.7,16.3,230.5,142.9,3906.0,10113.0,2.0,0,
61600,1860.9,14.1,230.5,178.4,3906.0,10113.0,2.0,0,
61700,1860.3,14.2,230.5,177.1,3906.0,10113.0,2.0,0,
61800,1860.2,280.1,230.5,237.8,3992.0,16244.0,2.0,0,
61900,1880.4,335.4,228.5,29.8,3741.0,13304.0,2.0,0,
62000,1943.9,368.7,239.7,35.3,3503.0,9389.0,2.0,0,
62100,1806.4,367.0,244.0,39.4,3394.0,8611.0,2.0,0,
62200,1873.8,363.0,236.3,73.8,3140.0,8135.0,2.0,0,
62300,1875.3,319.8,231.7,93.7,3495.0,9857.0,2.0,0,
62400,1861.9,95.2,237.3,170.7,3452.0,9772.0,2.0,0,
62600,1855.1,15.9,236.6,94.1,3452.0,9772.0,2.0,0,
62700,1855.5,15.7,236.6,53.0,3452.0,9772.0,2.0,0,
62800,1858.9,14.0,236.6,84.0,3452.0,9772.0,2.0,0,
62900,1859.6,14.3,236.6,116.8,3452.0,9772.0,2.0,0,
63000,1860.6,15.7,236.6,103.3,3452.0,9772.0,2.0,0,
63100,1860.3,14.4,236.6,157.6,3452.0,9772.0,2.0,0,
63200,1860.0,14.5,236.6,187.2,3452.0,9772.0,2.0,0,
63300,1859.7,15.3,236.6,232.4,3452.0,9772.0,2.0,0,
63400,1860.0,88.9,236.7,189.8,3944.0,16150.0,2.0,0,
63600,1822.7,424.4,229.5,66.9,3735.0,9616.0,2.0,0,
63700,1869.3,370.8,228.1,91.4,3766.0,10268.0,2.0,0,
63800,1879.6,225.1,228.1,94.2,3865.0,10474.0,2.0,0,
63900,1871.7,219.9,223.4,124.8,3939.0,11271.0,2.0,0,
64000,1927.3,205.2,227.4,189.3,3919.0,10347.0,2.0,0,
64100,1815.2,23.9,229.4,169.3,3919.0,10347.0,2.0,0,
64200,1856.4,15.7,229.4,56.1,3919.0,10347.0,2.0,0,
64300,1855.3,15.3,229.4,37.3,3919.0,10347.0,2.0,0,
64400,1856.7,17.8,229.5,54.0,3919.0,10347.0,2.0,0,
64600,1860.6,16.6,229.5,147.8,3919.0,10347.0,2.0,0,
64700,1860.7,18.7,229.5,155.5,3919.0,10347.0,2.0,0,
64800,1860.3,18.5,229.5,240.9,3919.0,10347.0,2.0,0,
64900,1861.5,17.5,229.5,240.5,3919.0,10347.0,2.0,0,
65000,1860.6,35.0,229.5,212.6,3919.0,10347.0,2.0,0,
65100,1919.4,417.2,228.9,52.1,4095.0,16143.0,2.0,0,
65200,1833.0,460.0,236.6,35.1,3918.0,13491.0,2.0,0,
65300,1891.0,253.6,234.8,36.1,3655.0,10487.0,2.0,0,
65400,1874.0,259.3,234.8,67.0,3954.0,10633.0,2.0,0,
65600,1871.3,341.1,243.5,204.3,3733.0,10549.0,2.0,0,
65700,1849.9,40.0,244.2,157.6,3567.0,9710.0,2.0,0,
65800,1859.2,20.8,244.2,93.0,3567.0,9710.0,2.0,0,
65900,1854.3,19.5,244.3,38.2,3567.0,9710.0,2.0,0,
66000,1857.4,20.0,244.2,39.6,3567.0,9710.0,2.0,0,
66100,1860.1,19.4,244.2,57.1,3567.0,9710.0,2.0,0,
66200,1860.9,19.1,244.2,178.4,3567.0,9710.0,2.0,0,
66300,1860.8,19.2,244.3,240.8,3567.0,9710.0,2.0,0,
66400,1860.6,17.7,244.3,241.2,3567.0,9710.0,2.0,0,
66600,1860.7,18.2,244.3,241.2,3567.0,9710.0,2.0,0,
66700,1856.3,305.7,251.3,39.3,4095.0,16981.0,2.0,0,
66800,1885.1,269.6,247.1,29.2,3479.0,12553.0,2.0,0,
66900,1884.1,294.1,246.9,29.7,3646.0,10186.0,2.0,0,
67000,1871.6,342.4,249.7,35.7,4052.0,11146.0,2.0,0,
67100,1918.0,382.4,251.9,91.4,4057.0,11072.0,2.0,0,
67200,1810.0,412.7,248.4,130.0,4042.0,10455.0,2.0,0,
67300,1875.1,64.2,250.8,158.9,3815.0,10929.0,2.0,0,
67400,1870.6,21.8,250.7,106.1,3815.0,10929.0,2.0,0,
67600,1860.1,18.7,250.4,36.3,3815.0,10929.0,2.0,0,
67700,1859.7,19.0,250.3,77.7,3815.0,10929.0,2.0,0,
67800,1860.6,18.9,250.3,123.7,3815.0,10929.0,2.0,0,
67900,1861.6,18.9,250.3,238.8,3815.0,10929.0,2.0,0,
68000,1860.6,19.0,250.3,239.8,3815.0,10929.0,2.0,0,
68100,1859.9,18.5,250.4,239.8,3815.0,10929.0,2.0,0,
68200,1859.5,18.5,250.4,240.0,3815.0,10929.0,2.0,0,
68300,1860.0,381.0,250.4,240.1,3068.0,13288.0,2.0,0,
68400,1869.5,335.1,250.9,29.4,3930.0,13859.0,2.0,0,
68600,1932.0,358.7,247.1,30.1,3834.0,9653.0,2.0,0,
68700,1814.4,439.8,248.7,76.2,3713.0,9570.0,2.0,0,
68800,1870.4,358.2,250.6,122.7,3692.0,10312.0,2.0,0,
68900,1872.8,171.3,245.1,148.3,3002.0,8221.0,2.0,0,
69000,1861.9,25.2,253.6,134.0,3002.0,8221.0,2.0,0,
69100,1856.7,18.6,253.8,85.2,3002.0,8221.0,2.0,0,
69200,1856.5,18.3,253.9,39.2,3002.0,8221.0,2.0,0,
69300,1857.8,14.6,254.0,36.7,3002.0,8221.0,2.0,0,
69400,1859.9,16.6,254.0,44.8,3002.0,8221.0,2.0,0,
69600,1859.5,18.0,254.0,239.5,3002.0,8221.0,2.0,0,
69700,1859.6,17.2,254.0,239.6,3002.0,8221.0,2.0,0,
69800,1859.8,17.6,254.0,239.8,3002.0,8221.0,2.0,0,
69900,1859.8,233.2,254.0,239.6,3002.0,8221.0,2.0,0,
70000,1866.1,305.0,247.1,29.3,4095.0,16565.0,2.0,0,
70100,1916.7,323.7,245.4,29.7,3712.0,10239.0,2.0,0,
70200,1867.0,328.0,242.4,30.2,3414.0,10429.0,2.0,0,
70300,1852.0,467.3,234.1,93.0,3939.0,10797.0,2.0,0,
70400,1877.6,416.9,231.6,169.4,3972.0,10828.0,2.0,0,
70600,1866.0,31.1,232.5,132.4,3940.0,11765.0,2.0,0,
70700,1859.7,20.8,232.5,38.6,3940.0,11765.0,2.0,0,
70800,1854.9,19.3,232.5,35.0,3940.0,11765.0,2.0,0,
70900,1855.9,15.0,232.6,35.2,3940.0,11765.0,2.0,0,
71000,1859.3,14.1,232.6,48.2,3940.0,11765.0,2.0,0,
71100,1859.9,12.5,232.6,131.1,3940.0,11765.0,2.0,0,
71200,1860.9,11.7,232.5,135.0,3940.0,11765.0,2.0,0,
71300,1860.2,12.2,232.4,170.8,3940.0,11765.0,2.0,0,
71400,1860.5,16.5,232.4,177.2,3940.0,11765.0,2.0,0,
71600,1863.1,251.5,233.1,38.1,4095.0,16386.0,2.0,0,
71700,1956.8,290.9,232.3,29.4,4030.0,14039.0,2.0,0,
71800,1810.7,519.0,227.3,29.7,3006.0,9464.0,2.0,0,
71900,1873.4,387.5,244.5,37.9,3743.0,10277.0,2.0,0,
72000,1875.2,384.6,240.7,87.1,3836.0,10789.0,2.0,0,
72100,1876.1,411.3,242.1,45.3,2835.0,9038.0,2.0,0,
72200,1868.2,56.4,255.8,105.2,3324.0,8882.0,2.0,0,
72300,1859.8,15.9,255.7,74.3,3324.0,8882.0,2.0,0,
72400,1854.9,12.7,255.7,34.9,3324.0,8882.0,2.0,0,
72600,1858.6,13.4,255.6,30.3,3324.0,8882.0,2.0,0,
72700,1860.6,12.7,255.6,123.3,3324.0,8882.0,2.0,0,
72800,1859.4,12.9,255.6,146.2,3324.0,8882.0,2.0,0,
72900,1860.5,11.6,255.6,133.3,3324.0,8882.0,2.0,0,
73000,1860.6,12.4,255.6,168.5,3324.0,8882.0,2.0,0,
73100,1860.2,13.7,255.6,177.1,3324.0,8882.0,2.0,0,
73200,1937.1,236.2,253.3,74.7,3855.0,15663.0,2.0,0,
73300,1807.9,249.2,250.6,29.8,4095.0,15325.0,2.0,0,
73400,1876.8,473.2,252.8,30.0,3859.0,12742.0,2.0,0,
73600,1871.9,423.6,257.5,93.8,2217.0,7181.0,2.0,0,
73700,1920.5,414.3,266.2,93.2,2517.0,8839.0,2.0,0,
73800,1824.0,100.4,261.0,82.9,2154.0,7076.0,2.0,0,
73900,1864.8,18.6,262.6,72.5,2154.0,7076.0,2.0,0,
74000,1855.2,13.9,262.6,38.7,2154.0,7076.0,2.0,0,
74100,1856.0,12.7,262.6,34.9,2154.0,7076.0,2.0,0,
74200,1858.8,13.0,262.6,34.3,2154.0,7076.0,2.0,0,
74300,1859.7,12.6,262.6,35.4,2154.0,7076.0,2.0,0,
74400,1860.4,12.4,262.6,117.1,2154.0,7076.0,2.0,0,
74600,1860.2,12.7,262.6,238.4,2154.0,7076.0,2.0,0,
74700,1860.3,12.3,262.6,199.1,2154.0,7076.0,2.0,0,
74800,1860.2,264.7,262.6,150.1,3373.0,14687.0,2.0,0,
74900,1855.5,296.8,261.5,34.4,4095.0,16243.0,2.0,0,
75000,1901.9,270.0,267.6,35.8,3876.0,12103.0,2.0,0,
75100,1879.8,303.8,263.1,84.7,3486.0,9239.0,2.0,0,
75200,1885.1,300.8,261.3,99.9,3791.0,9895.0,2.0,0,
75300,1869.5,359.3,243.2,86.4,3662.0,9413.0,2.0,0,
75400,1845.1,209.4,242.7,76.3,3443.0,9025.0,2.0,0,
75600,1857.8,12.9,244.7,56.7,3443.0,9025.0,2.0,0,
75700,1855.4,11.8,244.7,35.2,3443.0,9025.0,2.0,0,
75800,1857.2,13.7,244.7,34.7,3443.0,9025.0,2.0,0,
75900,1860.0,12.4,244.7,35.5,3443.0,9025.0,2.0,0,
76000,1860.8,12.6,244.7,104.5,3443.0,9025.0,2.0,0,
76100,1860.5,13.3,244.7,165.0,3443.0,9025.0,2.0,0,
76200,1860.8,12.7,244.7,182.7,3443.0,9025.0,2.0,0,
76300,1860.0,12.6,244.7,203.2,3443.0,9025.0,2.0,0,
76400,1860.0,169.2,244.7,237.5,3443.0,9025.0,2.0,0,
76600,1899.6,308.2,248.5,37.9,3697.0,12320.0,2.0,0,
76700,1889.1,312.9,243.8,45.8,3795.0,10048.0,2.0,0,
76800,1911.2,339.4,240.6,75.4,3623.0,9102.0,2.0,0,
76900,1823.1,380.5,241.6,83.2,3487.0,9031.0,2.0,0,
77000,1877.3,503.4,237.2,92.9,1913.0,7595.0,2.0,0,
77100,1877.6,37.9,241.2,150.1,2158.0,7444.0,2.0,0,
77200,1858.7,15.3,241.2,72.8,2158.0,7444.0,2.0,0,
77300,1853.9,14.0,241.3,34.4,2158.0,7444.0,2.0,0,
77400,1857.3,12.8,241.3,30.1,2158.0,7444.0,2.0,0,
77600,1859.8,14.0,241.3,132.8,2158.0,7444.0,2.0,0,
77700,1860.5,12.5,241.3,177.7,2158.0,7444.0,2.0,0,
77800,1860.4,12.5,241.3,158.0,2158.0,7444.0,2.0,0,
77900,1860.3,13.9,241.3,159.0,2158.0,7444.0,2.0,0,
78000,1860.0,12.0,241.3,186.6,2158.0,7444.0,2.0,0,
78100,1847.7,360.2,241.2,152.2,3983.0,16039.0,2.0,0,
78200,1883.8,323.6,241.2,149.7,3935.0,12866.0,2.0,0,
78300,1955.0,347.6,241.8,93.2,3316.0,9127.0,2.0,0,
78400,1812.1,411.2,238.7,75.6,3134.0,8424.0,2.0,0,
78600,1873.4,402.9,237.2,107.4,2829.0,9054.0,2.0,0,
78700,1869.8,56.1,234.7,149.4,3736.0,9734.0,2.0,0,
78800,1858.9,19.2,234.8,94.0,3736.0,9734.0,2.0,0,
78900,1854.4,12.5,234.8,35.3,3736.0,9734.0,2.0,0,
79000,1858.2,12.0,234.7,34.7,3736.0,9734.0,2.0,0,
79100,1859.7,13.2,234.7,34.8,3736.0,9734.0,2.0,0,
79200,1862.3,12.4,234.6,116.4,3736.0,9734.0,2.0,0,
79300,1862.0,13.0,234.5,149.9,3736.0,9734.0,2.0,0,
79400,1862.0,13.8,234.5,188.6,3736.0,9734.0,2.0,0,
79600,1860.3,13.0,234.4,178.4,3736.0,9734.0,2.0,0,
79700,1859.6,136.2,233.4,178.0,3937.0,15583.0,2.0,0,
79800,1910.5,409.8,227.7,82.6,3493.0,12646.0,2.0,0,
79900,1890.7,432.5,234.9,37.8,3391.0,10002.0,2.0,0,
80000,1830.9,416.0,241.7,36.1,3595.0,10426.0,2.0,0,
80100,1873.5,398.8,239.0,66.0,3830.0,11823.0,2.0,0,
80200,1872.0,377.2,246.0,94.3,3770.0,11002.0,2.0,0,
80300,1882.0,109.0,244.6,158.4,3762.0,9944.0,2.0,0,
80400,1853.3,20.3,245.0,93.7,3762.0,9944.0,2.0,0,
80600,1854.7,13.3,245.1,34.9,3762.0,9944.0,2.0,0,
80700,1858.0,12.4,245.1,34.4,3762.0,9944.0,2.0,0,
80800,1860.1,12.6,245.2,41.6,3762.0,9944.0,2.0,0,
80900,1860.0,13.6,245.2,176.8,3762.0,9944.0,2.0,0,
81000,1860.2,12.5,245.3,177.0,3762.0,9944.0,2.0,0,
81100,1860.4,12.9,245.3,167.6,3762.0,9944.0,2.0,0,
81200,1860.0,14.3,245.3,177.3,3762.0,9944.0,2.0,0,
81300,1860.1,87.9,245.3,176.8,3854.0,18474.0,4.0,1,
81400,1944.7,396.3,243.7,90.2,4095.0,16930.0,2.0,0,
81600,1880.9,291.6,237.2,44.3,3678.0,10835.0,2.0,0,
81700,1870.5,285.7,239.8,50.6,3709.0,9961.0,2.0,0,
81800,1874.3,326.3,232.5,113.2,3786.0,11140.0,2.0,0,
81900,1914.2,239.1,228.2,148.8,3594.0,9750.0,2.0,0,
82000,1824.2,24.4,233.1,158.4,3594.0,9750.0,2.0,0,
82100,1855.5,15.1,233.0,66.1,3594.0,9750.0,2.0,0,
82200,1853.9,12.5,233.0,34.7,3594.0,9750.0,2.0,0,
82300,1856.4,12.1,233.1,30.1,3594.0,9750.0,2.0,0,
82400,1859.4,13.0,233.1,29.5,3594.0,9750.0,2.0,0,
82600,1860.0,12.8,233.1,178.5,3594.0,9750.0,2.0,0,
82700,1859.4,13.8,233.1,177.1,3594.0,9750.0,2.0,0,
82800,1859.8,12.1,233.1,146.9,3594.0,9750.0,2.0,0,
82900,1860.5,11.9,233.1,123.1,3594.0,9750.0,2.0,0,
83000,1860.4,304.3,233.0,146.7,4047.0,16144.0,2.0,0,
83100,1873.0,304.4,222.4,43.8,3872.0,12870.0,2.0,0,
83200,1890.8,317.6,231.1,34.7,3465.0,9656.0,2.0,0,
83300,1872.2,281.9,226.5,38.5,3616.0,10064.0,2.0,0,
83400,1922.0,333.8,219.1,78.5,3469.0,9233.0,2.0,0,
83600,1877.5,39.0,214.3,211.9,3664.0,10046.0,2.0,0,
83700,1857.6,14.4,214.3,92.8,3664.0,10046.0,2.0,0,
83800,1854.8,13.4,214.3,35.3,3664.0,10046.0,2.0,0,
83900,1857.2,13.1,214.2,34.3,3664.0,10046.0,2.0,0,
84000,1859.6,11.9,214.2,29.8,3664.0,10046.0,2.0,0,
84100,1860.1,12.4,214.2,116.7,3664.0,10046.0,2.0,0,
84200,1860.5,13.1,214.2,130.0,3664.0,10046.0,2.0,0,
84300,1861.0,11.3,214.2,177.3,3664.0,10046.0,2.0,0,
84400,1861.0,11.9,214.1,186.5,3664.0,10046.0,2.0,0,
84600,1835.7,321.0,214.1,174.7,3980.0,16181.0,2.0,0,
84700,1901.0,291.9,212.1,66.9,4003.0,14713.0,2.0,0,
84800,1893.7,356.9,207.9,35.2,3288.0,9686.0,2.0,0,
84900,1886.5,345.1,216.3,43.6,3481.0,9536.0,2.0,0,
85000,1868.6,445.9,221.7,84.0,3507.0,9799.0,2.0,0,
85100,1849.5,436.7,230.6,81.7,3732.0,11110.0,2.0,0,
85200,1874.3,63.5,230.6,153.1,3844.0,10408.0,2.0,0,
85300,1866.1,16.3,230.5,94.4,3844.0,10408.0,2.0,0,
85400,1852.4,13.6,230.6,35.8,3844.0,10408.0,2.0,0,
85600,1859.0,11.8,230.7,30.0,3844.0,10408.0,2.0,0,
85700,1860.7,12.7,230.7,65.9,3844.0,10408.0,2.0,0,
85800,1860.4,11.4,230.7,123.6,3844.0,10408.0,2.0,0,
85900,1860.1,12.0,230.7,238.0,3844.0,10408.0,2.0,0,
86000,1860.0,13.4,230.7,214.4,3844.0,10408.0,2.0,0,
86100,1860.5,11.6,230.7,177.7,3844.0,10408.0,2.0,0,
86200,1860.9,121.3,230.7,171.4,3847.0,18567.0,4.0,1,
86300,1872.2,195.8,229.7,86.4,4095.0,16113.0,2.0,0,
86400,1899.0,332.6,229.8,55.6,3562.0,11102.0,2.0,0,
86600,1810.9,436.0,216.3,80.6,3558.0,10849.0,2.0,0,
86700,1872.7,271.6,213.4,104.8,3733.0,11393.0,2.0,0,
86800,1872.7,121.0,208.2,169.8,3846.0,10541.0,2.0,0,
86900,1873.3,17.7,206.7,94.6,3846.0,10541.0,2.0,0,
87000,1855.8,11.5,206.6,41.6,3846.0,10541.0,2.0,0,
87100,1855.8,11.9,206.5,34.9,3846.0,10541.0,2.0,0,
87200,1856.3,11.9,206.6,30.2,3846.0,10541.0,2.0,0,
87300,1858.1,11.1,206.6,51.8,3846.0,10541.0,2.0,0,
87400,1860.4,11.4,206.6,167.3,3846.0,10541.0,2.0,0,
87600,1860.2,8.0,206.6,214.9,3846.0,10541.0,2.0,0,
87700,1860.1,5.6,206.6,178.7,3846.0,10541.0,2.0,0,
87800,1859.8,81.4,206.6,122.4,3846.0,10541.0,2.0,0,
87900,1868.0,229.0,205.4,238.4,4037.0,15661.0,2.0,0,
88000,1964.2,347.3,210.1,241.9,3733.0,12650.0,2.0,0,
88100,1802.9,449.4,212.7,201.4,3719.0,11441.0,2.0,0,
88200,1868.2,473.6,221.2,136.9,3756.0,10875.0,2.0,0,
88300,1874.4,294.3,228.9,93.1,3874.0,10882.0,2.0,0,
88400,1872.2,265.0,235.0,86.0,3860.0,10715.0,2.0,0,
88600,1858.1,10.0,235.1,48.2,3860.0,10715.0,2.0,0,
88700,1853.2,7.5,235.1,35.4,3860.0,10715.0,2.0,0,
88800,1855.5,4.4,235.1,34.6,3860.0,10715.0,2.0,0,
88900,1858.3,4.7,235.1,29.4,3860.0,10715.0,2.0,0,
89000,1859.8,3.7,235.1,100.5,3860.0,10715.0,2.0,0,
89100,1860.0,2.7,235.1,100.8,3860.0,10715.0,2.0,0,
89200,1859.8,3.1,235.0,99.6,3860.0,10715.0,2.0,0,
89300,1860.1,3.6,235.0,100.4,3860.0,10715.0,2.0,0,
89400,1860.1,30.2,235.0,132.3,3860.0,10715.0,2.0,0,
89600,1878.2,427.2,231.6,246.9,3872.0,13491.0,2.0,0,
89700,1830.5,338.4,238.1,231.9,3786.0,10567.0,2.0,0,
89800,1877.5,313.1,236.0,136.5,3728.0,9810.0,2.0,0,
89900,1875.8,291.2,225.3,74.5,3978.0,10623.0,2.0,0,
90000,1893.3,327.0,218.8,82.1,3880.0,11064.0,2.0,0,
90100,1860.2,33.3,218.0,171.1,3824.0,10940.0,2.0,0,
90200,1860.5,11.2,218.0,93.3,3824.0,10940.0,2.0,0,
90300,1854.4,10.1,218.0,35.3,3824.0,10940.0,2.0,0,
90400,1853.9,8.6,218.0,34.6,3824.0,10940.0,2.0,0,
90600,1859.3,7.8,218.1,100.5,3824.0,10940.0,2.0,0,
90700,1859.8,9.1,218.1,109.1,3824.0,10940.0,2.0,0,
90800,1860.3,9.8,218.1,117.1,3824.0,10940.0,2.0,0,
90900,1860.8,7.6,218.1,133.4,3824.0,10940.0,2.0,0,
91000,1860.7,9.4,218.1,122.8,3824.0,10940.0,2.0,0,
91100,1931.3,320.0,217.8,178.4,3666.0,15876.0,2.0,0,
91200,1790.0,365.7,227.7,36.7,4095.0,14931.0,2.0,0,
91300,1901.3,358.5,233.8,34.8,3664.0,11381.0,2.0,0,
91400,1884.0,305.2,231.4,39.8,3488.0,9888.0,2.0,0,
91600,1921.0,358.5,233.6,80.7,3621.0,10235.0,2.0,0,
91700,1814.8,97.5,237.2,137.6,1850.0,7548.0,2.0,0,
91800,1872.2,12.9,240.4,117.6,1850.0,7548.0,2.0,0,
91900,1857.9,10.6,240.3,36.5,1850.0,7548.0,2.0,0,
92000,1860.6,10.7,240.1,30.0,1850.0,7548.0,2.0,0,
92100,1863.8,8.9,239.8,29.8,1850.0,7548.0,2.0,0,
92200,1862.2,10.3,239.7,34.8,1850.0,7548.0,2.0,0,
92300,1862.0,10.6,239.7,133.6,1850.0,7548.0,2.0,0,
92400,1861.4,9.3,239.6,122.5,1850.0,7548.0,2.0,0,
92600,1860.4,10.9,239.6,143.7,1850.0,7548.0,2.0,0,
92700,1859.1,323.0,239.7,152.1,3867.0,15737.0,2.0,0,
92800,1862.2,358.7,239.5,29.7,4095.0,17188.0,2.0,0,
92900,1905.6,360.1,235.5,29.4,3483.0,11422.0,2.0,0,
93000,1869.1,332.8,232.9,30.1,3477.0,9834.0,2.0,0,
93100,1926.9,371.1,236.1,77.7,3190.0,9235.0,2.0,0,
93200,1819.4,469.8,234.8,94.1,3215.0,9413.0,2.0,0,
93300,1863.9,141.8,244.8,146.7,3529.0,11061.0,2.0,0,
93400,1866.5,20.7,236.8,94.6,3529.0,11061.0,2.0,0,
93600,1854.5,9.5,237.1,35.7,3529.0,11061.0,2.0,0,
93700,1857.7,10.2,237.3,36.1,3529.0,11061.0,2.0,0,
93800,1859.4,10.7,237.4,43.0,3529.0,11061.0,2.0,0,
93900,1860.5,9.5,237.5,100.9,3529.0,11061.0,2.0,0,
94000,1860.5,10.4,237.5,123.8,3529.0,11061.0,2.0,0,
94100,1859.6,11.0,237.5,134.7,3529.0,11061.0,2.0,0,
94200,1860.0,9.5,237.6,123.6,3529.0,11061.0,2.0,0,
94300,1859.8,62.1,237.6,117.9,3529.0,11061.0,2.0,0,
94400,1864.4,215.5,235.5,29.0,4095.0,17161.0,2.0,0,
94600,1909.8,300.5,230.1,30.1,3167.0,11006.0,2.0,0,
94700,1860.4,393.5,226.0,74.9,3306.0,10457.0,2.0,0,
94800,1843.7,296.5,226.6,85.8,3812.0,11533.0,2.0,0,
94900,1876.3,274.9,216.8,149.6,3887.0,12016.0,2.0,0,
95000,1872.7,23.8,215.7,139.5,3427.0,11311.0,2.0,0,
95100,1857.7,12.4,215.7,93.9,3427.0,11311.0,2.0,0,
95200,1854.0,10.6,215.7,46.5,3427.0,11311.0,2.0,0,
95300,1855.0,10.7,215.7,39.6,3427.0,11311.0,2.0,0,
95400,1858.7,9.7,215.8,78.7,3427.0,11311.0,2.0,0,
95600,1859.8,10.6,215.8,116.9,3427.0,11311.0,2.0,0,
95700,1860.2,9.3,215.8,108.0,3427.0,11311.0,2.0,0,
95800,1860.0,10.9,215.8,117.3,3427.0,11311.0,2.0,0,
95900,1860.3,10.9,215.8,123.3,3427.0,11311.0,2.0,0,
96000,1859.7,237.1,215.8,142.1,3921.0,16847.0,2.0,0,
96100,1901.4,310.5,212.0,37.3,4071.0,15126.0,2.0,0,
96200,1932.4,300.6,215.7,42.0,3192.0,11079.0,2.0,0,
96300,1804.7,353.5,213.6,81.9,4010.0,11451.0,2.0,0,
96400,1874.2,329.6,207.5,75.6,3930.0,10573.0,2.0,0,
96600,1875.9,43.5,219.9,207.7,3526.0,11462.0,2.0,0,
96700,1861.1,14.7,219.9,75.8,3526.0,11462.0,2.0,0,
96800,1852.4,11.2,219.9,35.9,3526.0,11462.0,2.0,0,
96900,1856.2,10.8,219.9,36.0,3526.0,11462.0,2.0,0,
97000,1858.3,11.4,219.9,40.2,3526.0,11462.0,2.0,0,
97100,1859.5,11.7,219.9,90.7,3526.0,11462.0,2.0,0,
97200,1861.4,10.8,219.8,112.3,3526.0,11462.0,2.0,0,
97300,1860.8,11.7,219.8,118.0,3526.0,11462.0,2.0,0,
97400,1860.0,11.5,219.8,122.5,3526.0,11462.0,2.0,0,
97600,1864.3,351.7,219.9,156.6,3899.0,16742.0,2.0,0,
97700,1962.2,339.0,236.1,29.2,3957.0,14874.0,2.0,0,
97800,1804.6,353.8,239.3,29.5,3595.0,10587.0,2.0,0,
97900,1861.0,377.7,241.4,30.0,3698.0,10319.0,2.0,0,
98000,1875.3,311.4,243.6,73.1,3407.0,11335.0,3.0,1,
98100,1859.8,323.8,241.2,136.4,3629.0,10500.0,2.0,0,
98200,1924.8,81.6,235.9,169.0,3510.0,11264.0,2.0,0,
98300,1807.4,15.4,236.2,167.6,3510.0,11264.0,2.0,0,
98400,1854.2,11.7,236.1,40.0,3510.0,11264.0,2.0,0,
98600,1858.7,12.0,236.1,36.8,3510.0,11264.0,2.0,0,
98700,1862.4,11.9,236.0,134.0,3510.0,11264.0,2.0,0,
98800,1864.6,12.2,235.9,131.2,3510.0,11264.0,2.0,0,
98900,1863.3,11.9,235.8,124.0,3510.0,11264.0,2.0,0,
99000,1861.4,11.8,235.7,149.2,3510.0,11264.0,2.0,0,
99100,1862.4,12.1,235.7,152.1,3510.0,11264.0,2.0,0,
99200,1861.6,322.3,235.7,123.6,3384.0,14762.0,2.0,0,
99300,1918.9,403.2,233.6,29.4,4095.0,15742.0,2.0,0,
99400,1835.5,420.6,230.0,29.5,3533.0,11546.0,2.0,0,
99600,1876.3,352.3,226.0,73.3,2980.0,9664.0,2.0,0,
99700,1888.9,396.1,238.9,123.9,3644.0,10644.0,2.0,0,
99800,1872.7,274.4,244.3,142.2,1921.0,8092.0,2.0,0,
99900,1842.1,24.4,253.5,94.4,1921.0,8092.0,2.0,0,
100000,1856.5,12.6,253.5,49.6,1921.0,8092.0,2.0,0,
100100,1855.1,13.0,253.5,34.4,1921.0,8092.0,2.0,0,
100200,1856.8,11.8,253.5,30.1,1921.0,8092.0,2.0,0,
100300,1859.1,12.4,253.6,29.4,1921.0,8092.0,2.0,0,
100400,1860.3,12.1,253.8,100.6,1921.0,8092.0,2.0,0,
100600,1860.0,12.1,253.9,130.3,1921.0,8092.0,2.0,0,
100700,1860.3,12.2,254.0,123.4,1921.0,8092.0,2.0,0,
100800,1860.7,230.4,254.0,117.7,1921.0,8092.0,2.0,0,
100900,1853.2,473.7,253.4,30.0,4095.0,17589.0,2.0,0,
101000,1897.1,424.0,255.7,29.4,3800.0,14448.0,2.0,0,
101100,1887.4,244.3,255.7,29.9,3414.0,11702.0,2.0,0,
101200,1884.0,282.5,254.7,41.9,3573.0,11801.0,2.0,0,
101300,1910.0,426.0,244.8,89.6,3844.0,11984.0,2.0,0,
101400,1813.6,369.0,248.5,170.5,3900.0,12042.0,2.0,0,
101600,1858.7,15.5,243.2,68.7,3900.0,12042.0,2.0,0,
101700,1852.8,11.3,243.3,35.8,3900.0,12042.0,2.0,0,
101800,1854.7,11.8,243.3,36.4,3900.0,12042.0,2.0,0,
101900,1857.8,11.4,243.4,46.6,3900.0,12042.0,2.0,0,
102000,1859.7,11.5,243.4,99.7,3900.0,12042.0,2.0,0,
102100,1860.3,11.9,243.4,101.7,3900.0,12042.0,2.0,0,
102200,1860.0,12.1,243.4,116.8,3900.0,12042.0,2.0,0,
102300,1860.5,11.9,243.4,133.5,3900.0,12042.0,2.0,0,
102400,1861.1,12.4,243.4,132.0,3900.0,12042.0,2.0,0,
102600,1896.4,266.0,236.6,35.0,4091.0,16089.0,2.0,0,
102700,1894.7,287.1,235.3,35.7,3436.0,11772.0,2.0,0,
102800,1930.1,316.3,233.5,43.8,3948.0,11700.0,2.0,0,
102900,1810.4,370.6,238.3,77.2,3874.0,11328.0,2.0,0,
103000,1868.8,411.1,239.1,150.5,3727.0,10454.0,2.0,0,
103100,1875.4,54.9,239.1,138.1,3492.0,12013.0,2.0,0,
103200,1865.9,15.0,239.0,72.4,3492.0,12013.0,2.0,0,
103300,1851.4,13.0,239.1,35.8,3492.0,12013.0,2.0,0,
103400,1855.8,11.9,239.1,35.7,3492.0,12013.0,2.0,0,
103600,1862.8,13.0,238.9,88.3,3492.0,12013.0,2.0,0,
103700,1863.4,12.8,238.7,147.0,3492.0,12013.0,2.0,0,
103800,1863.8,12.7,238.6,172.4,3492.0,12013.0,2.0,0,
103900,1863.8,12.8,238.5,122.8,3492.0,12013.0,2.0,0,
104000,1862.8,11.6,238.5,145.9,3492.0,12013.0,2.0,0,
104100,1860.3,260.2,238.5,122.5,3898.0,16669.0,2.0,0,
104200,1874.7,336.5,235.2,40.1,4032.0,15399.0,2.0,0,
104300,1934.0,359.0,231.9,55.3,3754.0,11407.0,2.0,0,
104400,1851.4,446.8,244.3,83.8,3398.0,9477.0,2.0,0,
104600,1873.4,380.1,262.1,93.7,3619.0,10391.0,2.0,0,
104700,1874.8,150.4,253.1,93.7,2120.0,8046.0,2.0,0,
104800,1858.9,19.0,262.1,106.2,2120.0,8046.0,2.0,0,
104900,1853.7,13.0,262.0,66.7,2120.0,8046.0,2.0,0,
105000,1854.4,11.4,262.1,36.0,2120.0,8046.0,2.0,0,
105100,1856.8,11.5,262.1,35.5,2120.0,8046.0,2.0,0,
105200,1859.8,11.8,262.2,41.3,2120.0,8046.0,2.0,0,
105300,1860.3,12.0,262.3,131.1,2120.0,8046.0,2.0,0,
105400,1860.2,11.8,262.4,122.3,2120.0,8046.0,2.0,0,
105600,1859.9,11.6,262.6,123.4,2120.0,8046.0,2.0,0,
105700,1860.0,240.8,262.7,108.8,2120.0,8046.0,2.0,0,
105800,1882.9,372.4,267.2,29.2,4095.0,15864.0,2.0,0,
105900,1950.1,361.1,266.2,29.5,3903.0,12968.0,2.0,0,
106000,1808.6,434.3,256.7,29.9,3311.0,9994.0,2.0,0,
106100,1875.5,352.4,252.8,43.1,3164.0,10862.0,2.0,0,
106200,1878.8,412.1,244.0,84.7,1928.0,9058.0,2.0,0,
106300,1876.9,209.2,245.4,117.9,3271.0,11257.0,3.0,1,
106400,1860.3,23.2,237.6,106.2,3271.0,11257.0,3.0,1,
106600,1854.3,11.0,237.6,37.9,3271.0,11257.0,3.0,1,
106700,1855.3,11.0,237.6,74.6,3271.0,11257.0,3.0,1,
106800,1858.6,11.4,237.6,81.3,3271.0,11257.0,3.0,1,
106900,1860.5,11.8,237.6,108.2,3271.0,11257.0,3.0,1,
107000,1860.1,11.0,237.6,147.5,3271.0,11257.0,3.0,1,
107100,1859.9,11.7,237.6,123.3,3271.0,11257.0,3.0,1,
107200,1860.8,11.5,237.6,123.8,3271.0,11257.0,3.0,1,
107300,1860.3,60.2,237.6,134.7,3271.0,11257.0,3.0,1,
107400,1946.3,319.8,234.8,38.0,4095.0,18606.0,2.0,0,
107600,1868.8,421.9,237.2,29.9,3261.0,11636.0,2.0,0,
107700,1878.2,245.6,236.2,74.8,3405.0,11427.0,2.0,0,
107800,1874.5,388.0,234.5,87.0,1992.0,8742.0,27.0,0,
107900,1926.5,372.2,228.8,89.2,3591.0,12154.0,2.0,0,
108000,1806.0,45.3,237.9,153.3,2177.0,8212.0,2.0,0,
108100,1854.2,15.7,238.0,76.1,2177.0,8212.0,2.0,0,
108200,1852.3,11.4,238.0,35.3,2177.0,8212.0,2.0,0,
108300,1859.7,12.2,237.9,30.2,2177.0,8212.0,2.0,0,
108400,1860.6,12.1,237.8,30.0,2177.0,8212.0,2.0,0,
108600,1864.6,11.9,237.6,122.6,2177.0,8212.0,2.0,0,
108700,1863.1,11.7,237.5,122.9,2177.0,8212.0,2.0,0,
108800,1861.4,11.0,237.4,123.8,2177.0,8212.0,2.0,0,
108900,1860.6,11.8,237.4,122.3,2177.0,8212.0,2.0,0,
109000,1901.0,258.1,235.5,42.0,4095.0,17510.0,2.0,0,
109100,1828.9,504.9,236.6,28.9,4011.0,15638.0,2.0,0,
109200,1899.3,282.1,239.9,29.6,3716.0,12249.0,2.0,0,
109300,1871.3,277.0,240.6,46.6,3404.0,11411.0,2.0,0,
109400,1898.6,382.3,244.5,78.2,3900.0,11949.0,2.0,0,
109600,1842.2,95.1,251.0,136.3,2084.0,8024.0,2.0,0,
109700,1871.8,12.8,252.1,74.1,2084.0,8024.0,2.0,0,
109800,1854.0,7.7,252.0,30.2,2084.0,8024.0,2.0,0,
109900,1855.5,5.4,252.1,29.9,2084.0,8024.0,2.0,0,
110000,1856.7,4.0,252.2,29.9,2084.0,8024.0,2.0,0,
110100,1859.9,3.3,252.2,39.8,2084.0,8024.0,2.0,0,
110200,1859.7,8.7,252.4,70.0,2084.0,8024.0,2.0,0,
110300,1859.7,9.5,252.5,69.2,2084.0,8024.0,2.0,0,
110400,1859.1,10.8,252.6,68.7,2084.0,8024.0,2.0,0,
110600,1859.0,313.8,252.7,100.3,3335.0,14439.0,2.0,0,
110700,1858.8,323.3,253.6,29.1,4030.0,16430.0,2.0,0,
110800,1901.0,276.6,244.1,29.2,3618.0,12382.0,2.0,0,
110900,1893.0,323.2,240.3,29.8,3565.0,10197.0,2.0,0,
111000,1900.3,400.2,241.6,66.1,3769.0,10943.0,2.0,0,
111100,1821.9,424.7,236.5,74.3,3783.0,11203.0,2.0,0,
111200,1876.8,180.2,232.7,74.1,3583.0,10473.0,2.0,0,
111300,1870.6,21.1,232.6,92.8,3583.0,10473.0,2.0,0,
111400,1853.2,12.7,232.7,46.5,3583.0,10473.0,2.0,0,
111600,1855.0,11.1,232.8,34.4,3583.0,10473.0,2.0,0,
111700,1859.4,11.2,232.8,38.0,3583.0,10473.0,2.0,0,
111800,1859.5,10.4,232.9,102.0,3583.0,10473.0,2.0,0,
111900,1859.4,11.3,232.9,117.8,3583.0,10473.0,2.0,0,
112000,1860.5,10.7,232.8,118.0,3583.0,10473.0,2.0,0,
112100,1860.7,10.8,232.8,134.2,3583.0,10473.0,2.0,0,
112200,1860.3,258.8,232.8,123.9,3583.0,10473.0,2.0,0,
112300,1862.7,347.2,232.6,28.4,3945.0,17528.0,2.0,0,
112400,1895.7,308.0,232.6,29.1,3709.0,13119.0,2.0,0,
112600,1808.6,345.3,223.9,52.2,3097.0,11061.0,3.0,1,
112700,1869.3,397.4,211.6,190.0,3373.0,11433.0,2.0,0,
112800,1876.2,377.4,211.4,200.7,3614.0,12272.0,2.0,0,
112900,1868.6,29.0,210.0,170.8,3635.0,10706.0,2.0,0,
113000,1856.2,13.5,210.0,65.7,3635.0,10706.0,2.0,0,
113100,1852.8,12.6,210.0,34.9,3635.0,10706.0,2.0,0,
113200,1855.0,10.0,210.0,34.6,3635.0,10706.0,2.0,0,
113300,1858.5,11.2,210.0,35.6,3635.0,10706.0,2.0,0,
113400,1860.3,12.4,209.9,79.0,3635.0,10706.0,2.0,0,
113600,1859.2,10.9,210.0,122.7,3635.0,10706.0,2.0,0,
113700,1861.1,12.1,210.0,117.6,3635.0,10706.0,2.0,0,
113800,1861.5,11.5,209.9,123.1,3635.0,10706.0,2.0,0,
113900,1860.8,230.6,209.1,30.2,3940.0,17395.0,2.0,0,
114000,1952.8,294.5,207.9,29.4,3866.0,15365.0,2.0,0,
114100,1846.8,445.6,207.4,29.8,3245.0,10985.0,2.0,0,
114200,1837.1,502.9,220.3,66.4,2959.0,10416.0,2.0,0,
114300,1873.2,279.5,235.7,139.2,3856.0,11923.0,2.0,0,
114400,1875.5,396.8,234.3,84.7,3786.0,11125.0,2.0,0,
114600,1859.5,16.1,242.6,92.3,3786.0,11125.0,2.0,0,
114700,1852.3,12.5,242.5,30.1,3786.0,11125.0,2.0,0,
114800,1855.3,10.9,242.5,29.9,3786.0,11125.0,2.0,0,
114900,1857.1,12.2,242.5,29.8,3786.0,11125.0,2.0,0,
115000,1860.0,11.6,242.5,94.2,3786.0,11125.0,2.0,0,
115100,1860.3,11.1,242.6,116.5,3786.0,11125.0,2.0,0,
115200,1860.2,12.2,242.5,122.9,3786.0,11125.0,2.0,0,
115300,1860.8,11.6,242.5,132.5,3786.0,11125.0,2.0,0,
115400,1860.7,11.2,242.5,167.4,3786.0,11125.0,2.0,0,
115600,1914.7,278.2,241.4,29.5,3959.0,16681.0,2.0,0,
115700,1808.0,430.6,243.3,29.8,3552.0,11847.0,2.0,0,
115800,1880.0,317.5,244.7,36.9,3720.0,11123.0,2.0,0,
115900,1877.2,289.5,238.5,108.7,3754.0,11133.0,2.0,0,
116000,1887.2,352.2,245.3,74.8,3831.0,11116.0,2.0,0,
116100,1907.3,120.8,244.4,80.0,3531.0,10658.0,2.0,0,
116200,1816.8,17.6,246.7,73.5,3531.0,10658.0,2.0,0,
116300,1853.9,12.4,246.6,30.2,3531.0,10658.0,2.0,0,
116400,1854.3,11.8,246.7,29.9,3531.0,10658.0,2.0,0,
116600,1859.1,11.6,246.7,30.2,3531.0,10658.0,2.0,0,
116700,1860.1,12.5,246.7,130.7,3531.0,10658.0,2.0,0,
116800,1861.0,11.6,246.7,147.2,3531.0,10658.0,2.0,0,
116900,1860.1,11.5,246.7,123.9,3531.0,10658.0,2.0,0,
117000,1859.6,12.9,246.7,133.0,3531.0,10658.0,2.0,0,
117100,1860.6,288.7,246.8,176.9,3622.0,15895.0,2.0,0,
117200,1880.4,341.8,247.1,29.8,3880.0,16073.0,2.0,0,
117300,1872.0,391.7,257.5,29.8,3456.0,12840.0,2.0,0,
117400,1893.4,339.5,253.1,42.5,3442.0,11132.0,2.0,0,
117600,1927.1,379.6,251.8,82.0,3865.0,11592.0,2.0,0,
117700,1811.1,225.6,243.7,86.7,3617.0,10705.0,2.0,0,
117800,1867.3,22.7,241.9,94.3,3617.0,10705.0,2.0,0,
117900,1855.7,13.9,241.9,65.5,3617.0,10705.0,2.0,0,
118000,1858.0,11.8,241.7,34.6,3617.0,10705.0,2.0,0,
118100,1860.7,12.3,241.6,34.3,3617.0,10705.0,2.0,0,
118200,1864.8,13.6,241.4,34.2,3617.0,10705.0,2.0,0,
118300,1865.7,12.6,241.2,123.7,3617.0,10705.0,2.0,0,
118400,1865.2,12.0,241.0,139.1,3617.0,10705.0,2.0,0,
118600,1861.5,12.1,240.8,166.5,3617.0,10705.0,2.0,0,
118700,1861.5,222.6,240.8,165.3,3617.0,10705.0,2.0,0,
118800,1848.8,393.5,241.0,29.4,4038.0,17785.0,2.0,0,
118900,1908.0,354.3,241.1,29.1,4024.0,15536.0,2.0,0,
119000,1887.7,327.3,229.3,29.4,3434.0,10874.0,2.0,0,
119100,1911.8,401.8,228.5,42.6,3474.0,10623.0,2.0,0,
119200,1839.5,391.4,228.3,93.4,3323.0,11785.0,2.0,0,
119300,1848.5,435.7,228.8,78.0,3397.0,12378.0,2.0,0,
119400,1872.5,34.4,227.2,81.4,3648.0,10695.0,2.0,0,
119600,1851.7,12.8,227.4,35.6,3648.0,10695.0,2.0,0,
119700,1855.3,13.2,227.6,35.1,3648.0,10695.0,2.0,0,
119800,1859.2,12.1,227.8,35.7,3648.0,10695.0,2.0,0,
119900,1859.2,11.7,228.0,117.4,3648.0,10695.0,2.0,0,
120000,1860.8,13.4,228.1,111.6,3648.0,10695.0,2.0,0,
120100,1861.2,12.4,228.2,116.4,3648.0,10695.0,2.0,0,
120200,1860.4,11.4,228.3,118.1,3648.0,10695.0,2.0,0,
120300,1861.0,13.1,228.3,171.8,3648.0,10695.0,2.0,0,
120400,1850.8,232.4,225.8,35.1,3896.0,16469.0,2.0,0,
120600,1911.8,405.8,221.4,34.4,3179.0,10992.0,2.0,0,
120700,1896.3,408.7,229.0,75.6,3455.0,12171.0,2.0,0,
120800,1818.3,493.7,228.2,99.0,3855.0,12258.0,2.0,0,
120900,1875.5,314.3,236.8,74.1,3850.0,11553.0,2.0,0,
121000,1874.5,63.8,237.7,93.1,3804.0,11069.0,2.0,0,
121100,1864.9,17.2,237.5,86.4,3804.0,11069.0,2.0,0,
121200,1850.7,13.9,237.6,35.6,3804.0,11069.0,2.0,0,
121300,1854.3,12.5,237.6,30.2,3804.0,11069.0,2.0,0,
121400,1856.7,11.7,237.7,30.1,3804.0,11069.0,2.0,0,
121600,1860.8,11.5,237.7,122.3,3804.0,11069.0,2.0,0,
121700,1859.9,11.6,237.7,116.5,3804.0,11069.0,2.0,0,
121800,1860.3,12.8,237.7,123.1,3804.0,11069.0,2.0,0,
121900,1860.4,11.8,237.7,139.5,3804.0,11069.0,2.0,0,
122000,1860.0,248.3,237.4,135.3,3721.0,15717.0,2.0,0,
122100,1887.2,268.5,237.4,29.9,3830.0,16462.0,2.0,0,
122200,1953.5,276.1,236.5,30.1,3368.0,12512.0,2.0,0,
122300,1796.2,477.4,228.0,37.2,3566.0,11138.0,2.0,0,
122400,1870.7,341.9,235.3,130.0,3861.0,11861.0,2.0,0,
122600,1877.2,153.5,237.1,73.6,2304.0,8760.0,2.0,0,
122700,1863.7,20.3,240.5,85.5,2304.0,8760.0,2.0,0,
122800,1854.2,14.0,240.4,30.2,2304.0,8760.0,2.0,0,
122900,1854.5,12.0,240.4,29.7,2304.0,8760.0,2.0,0,
123000,1855.9,13.3,240.3,29.6,2304.0,8760.0,2.0,0,
123100,1859.5,12.2,240.4,37.7,2304.0,8760.0,2.0,0,
123200,1859.3,11.8,240.4,129.9,2304.0,8760.0,2.0,0,
123300,1860.4,13.2,240.4,132.5,2304.0,8760.0,2.0,0,
123400,1860.4,12.0,240.4,123.6,2304.0,8760.0,2.0,0,
123600,1860.2,194.7,240.4,143.4,3489.0,14999.0,2.0,0,
123700,1948.2,320.2,238.5,37.0,3820.0,15613.0,2.0,0,
123800,1839.9,358.9,239.7,35.4,3578.0,13570.0,2.0,0,
123900,1844.9,411.4,241.4,42.1,3388.0,11411.0,2.0,0,
124000,1885.7,392.5,235.0,74.5,3406.0,11064.0,2.0,0,
124100,1876.0,344.3,240.3,74.7,3859.0,12126.0,2.0,0,
124200,1922.0,287.8,233.6,73.5,3809.0,11116.0,2.0,0,
124300,1820.7,25.6,228.9,74.8,3809.0,11116.0,2.0,0,
124400,1858.6,14.4,228.8,56.0,3809.0,11116.0,2.0,0,
124600,1853.5,5.5,228.8,34.5,3809.0,11116.0,2.0,0,
124700,1856.7,3.8,228.9,34.5,3809.0,11116.0,2.0,0,
124800,1859.8,4.3,228.9,78.4,3809.0,11116.0,2.0,0,
124900,1861.0,3.7,228.8,100.0,3809.0,11116.0,2.0,0,
125000,1859.7,3.1,228.8,101.3,3809.0,11116.0,2.0,0,
125100,1860.1,3.3,228.8,102.4,3809.0,11116.0,2.0,0,
125200,1860.0,108.9,228.8,100.4,3809.0,11116.0,2.0,0,
125300,1924.5,326.8,231.3,37.5,3905.0,17282.0,2.0,0,
125400,1822.9,371.2,230.8,29.9,3405.0,14393.0,2.0,0,
125600,1879.4,234.1,231.7,73.5,3667.0,12852.0,2.0,0,
125700,1896.5,321.2,220.1,85.0,3512.0,12849.0,3.0,1,
125800,1893.6,426.6,221.9,71.9,3723.0,12773.0,2.0,0,
125900,1832.8,36.0,224.3,168.0,3764.0,11031.0,2.0,0,
126000,1859.6,13.0,224.3,75.1,3764.0,11031.0,2.0,0,
126100,1850.4,9.8,224.4,35.0,3764.0,11031.0,2.0,0,
126200,1855.5,8.8,224.3,34.4,3764.0,11031.0,2.0,0,
126300,1856.5,9.8,224.3,34.3,3764.0,11031.0,2.0,0,
126400,1859.4,9.1,224.3,86.6,3764.0,11031.0,2.0,0,
126600,1860.5,10.0,224.3,156.9,3764.0,11031.0,2.0,0,
126700,1860.1,8.9,224.3,133.8,3764.0,11031.0,2.0,0,
126800,1859.3,9.4,224.4,131.9,3764.0,11031.0,2.0,0,
126900,1865.7,244.7,223.6,37.4,3833.0,16377.0,2.0,0,
127000,1871.3,256.2,226.4,29.9,3644.0,15162.0,2.0,0,
127100,1893.4,261.1,228.0,34.3,3395.0,12053.0,2.0,0,
127200,1891.4,318.8,226.8,43.3,3684.0,12546.0,2.0,0,
127300,1925.5,348.1,229.6,76.6,3830.0,11555.0,2.0,0,
127400,1804.6,379.5,226.0,72.1,3868.0,12032.0,2.0,0,
127600,1874.0,15.7,230.2,94.5,3868.0,12032.0,2.0,0,
127700,1852.9,11.9,230.1,37.1,3868.0,12032.0,2.0,0,
127800,1853.7,10.7,230.2,34.4,3868.0,12032.0,2.0,0,
127900,1856.6,9.3,230.2,34.2,3868.0,12032.0,2.0,0,
128000,1858.6,10.0,230.2,43.6,3868.0,12032.0,2.0,0,
128100,1860.5,10.0,230.2,99.9,3868.0,12032.0,2.0,0,
128200,1860.7,9.0,230.2,114.0,3868.0,12032.0,2.0,0,
128300,1860.1,9.4,230.2,122.8,3868.0,12032.0,2.0,0,
128400,1860.7,10.0,230.2,132.7,3868.0,12032.0,2.0,0,
128600,1869.3,330.1,229.4,30.1,3576.0,15176.0,2.0,0,
128700,1899.7,301.4,231.2,30.2,3494.0,12083.0,2.0,0,
128800,1942.0,388.8,230.1,35.4,3941.0,12319.0,2.0,0,
128900,1826.0,422.9,234.2,72.1,3952.0,12245.0,2.0,0,
129000,1862.4,444.5,235.0,73.5,3855.0,12027.0,2.0,0,
129100,1880.1,181.2,241.5,85.5,3584.0,10891.0,2.0,0,
129200,1867.7,18.4,241.6,138.4,3584.0,10891.0,2.0,0,
129300,1858.0,16.2,241.6,42.7,3584.0,10891.0,2.0,0,
129400,1851.2,11.8,241.6,34.8,3584.0,10891.0,2.0,0,
129600,1858.2,10.7,241.7,39.6,3584.0,10891.0,2.0,0,
129700,1860.5,10.0,241.6,101.2,3584.0,10891.0,2.0,0,
129800,1860.2,9.9,241.6,116.7,3584.0,10891.0,2.0,0,
129900,1859.5,10.9,241.7,101.3,3584.0,10891.0,2.0,0,
130000,1860.0,9.6,241.7,116.9,3584.0,10891.0,2.0,0,
130100,1860.4,253.5,241.7,117.9,3584.0,10891.0,2.0,0,
130200,1868.5,371.7,243.7,28.7,3983.0,17459.0,2.0,0,
130300,1926.3,364.1,245.4,29.6,3450.0,12989.0,2.0,0,
130400,1885.0,368.3,245.8,30.1,3537.0,12499.0,3.0,1,
130600,1875.0,262.2,239.1,136.2,3822.0,13183.0,2.0,0,
130700,1876.6,241.6,232.7,149.9,3832.0,13102.0,2.0,0,
130800,1871.7,23.5,222.9,94.1,3742.0,12908.0,3.0,1,
130900,1859.1,12.4,222.9,71.4,3742.0,12908.0,3.0,1,
131000,1851.1,12.4,222.9,35.9,3742.0,12908.0,3.0,1,
131100,1853.7,11.7,223.0,36.1,3742.0,12908.0,3.0,1,
131200,1857.3,10.7,223.0,67.7,3742.0,12908.0,3.0,1,
131300,1858.3,10.4,223.0,105.1,3742.0,12908.0,3.0,1,
131400,1859.6,11.0,223.1,117.7,3742.0,12908.0,3.0,1,
131600,1859.5,10.3,223.1,130.5,3742.0,12908.0,3.0,1,
131700,1859.3,11.2,223.1,134.4,3742.0,12908.0,3.0,1,
131800,1873.3,282.8,222.6,37.6,3962.0,17662.0,2.0,0,
131900,1954.9,381.0,220.2,29.6,3499.0,14891.0,3.0,1,
132000,1800.0,299.9,222.8,30.0,3403.0,12673.0,2.0,0,
132100,1877.5,450.5,223.2,43.7,3811.0,12277.0,2.0,0,
132200,1878.5,301.6,231.8,93.9,3922.0,12399.0,2.0,0,
132300,1880.5,366.8,241.5,147.6,3804.0,13057.0,2.0,0,
132400,1867.3,53.3,251.7,90.0,3694.0,11072.0,2.0,0,
132600,1853.8,12.5,251.7,35.8,3694.0,11072.0,2.0,0,
132700,1854.6,11.1,251.6,34.7,3694.0,11072.0,2.0,0,
132800,1855.1,10.2,251.6,34.9,3694.0,11072.0,2.0,0,
132900,1858.1,11.3,251.6,56.8,3694.0,11072.0,2.0,0,
133000,1859.0,10.3,251.7,67.6,3694.0,11072.0,2.0,0,
133100,1859.7,10.1,251.6,122.2,3694.0,11072.0,2.0,0,
133200,1859.8,10.9,251.7,116.8,3694.0,11072.0,2.0,0,
133300,1860.1,10.1,251.6,117.0,3694.0,11072.0,2.0,0,
133400,1945.0,279.6,249.0,56.4,3963.0,17061.0,2.0,0,
133600,1859.4,315.0,247.3,34.5,3674.0,12226.0,2.0,0,
133700,1883.0,340.4,254.0,43.7,3670.0,11153.0,2.0,0,
133800,1878.0,293.9,245.0,78.0,3919.0,12523.0,2.0,0,
133900,1938.2,376.5,234.1,73.5,3873.0,11982.0,2.0,0,
134000,1823.1,100.8,231.8,100.5,3792.0,11148.0,2.0,0,
134100,1857.9,16.0,234.3,94.3,3792.0,11148.0,2.0,0,
134200,1855.8,13.7,234.3,35.6,3792.0,11148.0,2.0,0,
134300,1852.0,12.0,234.3,34.7,3792.0,11148.0,2.0,0,
134400,1855.2,11.3,234.3,34.5,3792.0,11148.0,2.0,0,
134600,1859.5,11.1,234.2,118.1,3792.0,11148.0,2.0,0,
134700,1859.6,11.0,234.2,117.1,3792.0,11148.0,2.0,0,
134800,1860.3,11.0,234.2,117.8,3792.0,11148.0,2.0,0,
134900,1859.8,10.8,234.2,122.9,3792.0,11148.0,2.0,0,
135000,1860.6,293.3,234.2,142.7,3635.0,15969.0,2.0,0,
135100,1856.1,335.5,234.0,29.4,3833.0,16171.0,2.0,0,
135200,1902.6,351.0,242.7,29.6,3576.0,12893.0,2.0,0,
135300,1882.0,291.2,238.9,39.6,3489.0,11950.0,3.0,1,
135400,1896.6,380.4,231.0,81.7,3877.0,11885.0,2.0,0,
135600,1834.0,219.3,240.6,138.9,3739.0,11061.0,2.0,0,
135700,1875.0,21.4,241.6,88.1,3739.0,11061.0,2.0,0,
135800,1857.1,15.9,241.5,43.3,3739.0,11061.0,2.0,0,
135900,1851.0,13.0,241.6,35.1,3739.0,11061.0,2.0,0,
136000,1855.0,10.5,241.6,35.0,3739.0,11061.0,2.0,0,
136100,1858.0,11.0,241.6,36.0,3739.0,11061.0,2.0,0,
136200,1859.4,11.0,241.6,122.2,3739.0,11061.0,2.0,0,
136300,1860.4,10.9,241.6,118.0,3739.0,11061.0,2.0,0,
136400,1859.2,10.9,241.6,117.9,3739.0,11061.0,2.0,0,
136600,1860.2,244.0,241.6,122.9,3739.0,11061.0,2.0,0,
136700,1854.0,371.0,241.7,28.8,3955.0,18119.0,2.0,0,
136800,1902.4,298.0,241.2,29.5,3619.0,14903.0,3.0,1,
136900,1891.5,374.0,229.7,30.3,3603.0,11289.0,2.0,0,
137000,1935.4,351.6,236.7,77.1,3612.0,12448.0,3.0,1,
137100,1808.5,425.0,229.7,99.9,3499.0,12913.0,2.0,0,
137200,1874.9,476.5,226.3,82.6,1953.0,9867.0,2.0,0,
137300,1873.8,36.9,233.4,169.1,3746.0,10898.0,2.0,0,
137400,1858.4,17.3,233.4,43.9,3746.0,10898.0,2.0,0,
137600,1856.0,11.1,233.3,34.4,3746.0,10898.0,2.0,0,
137700,1857.2,11.1,233.3,35.7,3746.0,10898.0,2.0,0,
137800,1859.1,10.5,233.3,101.8,3746.0,10898.0,2.0,0,
137900,1859.5,11.5,233.4,117.0,3746.0,10898.0,2.0,0,
138000,1860.2,10.6,233.3,136.3,3746.0,10898.0,2.0,0,
138100,1860.4,10.6,233.3,146.4,3746.0,10898.0,2.0,0,
138200,1860.1,11.0,233.3,132.9,3746.0,10898.0,2.0,0,
138300,1854.0,232.9,233.3,29.3,4028.0,17384.0,2.0,0,
138400,1894.9,401.3,232.4,29.5,3637.0,13376.0,2.0,0,
138600,1813.2,455.8,241.8,70.3,3465.0,12398.0,2.0,0,
138700,1863.7,522.7,250.1,81.0,3804.0,12844.0,2.0,0,
138800,1879.3,299.9,256.9,93.9,3743.0,11386.0,2.0,0,
138900,1874.2,67.0,252.0,86.7,2116.0,8593.0,2.0,0,
139000,1864.1,15.1,251.9,74.7,2116.0,8593.0,2.0,0,
139100,1854.2,12.5,251.8,35.6,2116.0,8593.0,2.0,0,
139200,1853.8,11.5,251.8,30.2,2116.0,8593.0,2.0,0,
139300,1856.8,10.5,251.8,30.2,2116.0,8593.0,2.0,0,
139400,1858.8,11.1,251.8,203.5,2116.0,8593.0,2.0,0,
139600,1860.6,10.5,251.8,131.4,2116.0,8593.0,2.0,0,
139700,1860.4,11.1,251.8,146.0,2116.0,8593.0,2.0,0,
139800,1861.3,10.4,251.7,123.9,2116.0,8593.0,2.0,0,
139900,1860.5,273.9,251.1,118.1,3966.0,16556.0,2.0,0,
140000,1931.6,302.5,251.9,28.9,4014.0,16018.0,2.0,0,
140100,1870.3,336.5,246.6,29.2,3797.0,13178.0,2.0,0,
140200,1832.3,347.2,241.8,29.8,3976.0,12230.0,2.0,0,
140300,1881.4,365.0,234.8,47.0,3855.0,12055.0,2.0,0,
140400,1882.3,331.6,228.5,101.1,3806.0,13021.0,3.0,1,
140600,1844.4,14.5,217.4,80.5,3806.0,13021.0,3.0,1,
140700,1856.5,14.3,217.4,37.1,3806.0,13021.0,3.0,1,
140800,1853.5,11.6,217.3,35.3,3806.0,13021.0,3.0,1,
140900,1857.2,10.8,217.3,36.3,3806.0,13021.0,3.0,1,
141000,1858.5,10.3,217.3,118.0,3806.0,13021.0,3.0,1,
141100,1859.2,10.9,217.3,116.7,3806.0,13021.0,3.0,1,
141200,1859.5,11.2,217.4,132.5,3806.0,13021.0,3.0,1,
141300,1859.9,10.3,217.4,168.6,3806.0,13021.0,3.0,1,
141400,1860.9,10.5,217.4,134.0,3806.0,13021.0,3.0,1,
141600,1949.9,308.4,214.2,30.0,4076.0,16664.0,2.0,0,
141700,1798.4,415.7,216.4,30.2,3766.0,12713.0,2.0,0,
141800,1882.8,373.9,217.1,67.1,3573.0,11391.0,2.0,0,
141900,1886.8,364.8,220.5,75.7,3846.0,11559.0,2.0,0,
142000,1879.9,389.2,226.1,75.1,3798.0,11594.0,2.0,0,
142100,1931.8,304.2,239.3,137.2,2262.0,8408.0,2.0,0,
142200,1811.8,26.5,252.1,90.3,2262.0,8408.0,2.0,0,
142300,1857.2,13.3,252.1,40.9,2262.0,8408.0,2.0,0,
142400,1853.5,12.2,252.0,30.2,2262.0,8408.0,2.0,0,
142600,1858.5,11.3,252.1,29.7,2262.0,8408.0,2.0,0,
142700,1859.9,11.5,252.1,117.9,2262.0,8408.0,2.0,0,
142800,1860.7,10.8,252.0,132.4,2262.0,8408.0,2.0,0,
142900,1861.0,11.1,252.0,117.6,2262.0,8408.0,2.0,0,
143000,1860.5,11.3,252.0,110.7,2262.0,8408.0,2.0,0,
143100,1861.0,119.7,252.0,123.3,2262.0,8408.0,2.0,0,
143200,1870.0,360.0,251.2,37.6,4047.0,18746.0,2.0,0,
143300,1870.8,446.8,252.0,29.9,3779.0,14061.0,2.0,0,
143400,1896.6,395.2,249.9,38.8,3595.0,11438.0,2.0,0,
143600,1937.4,433.2,254.1,74.8,2148.0,9328.0,2.0,0,
143700,1820.7,500.3,250.4,84.9,1949.0,9308.0,2.0,0,
143800,1859.8,41.4,250.7,94.3,3676.0,10620.0,2.0,0,
143900,1858.9,14.3,250.7,73.8,3676.0,10620.0,2.0,0,
144000,1855.2,11.3,250.6,35.4,3676.0,10620.0,2.0,0,
144100,1856.4,12.5,250.6,34.7,3676.0,10620.0,2.0,0,
144200,1859.0,12.2,250.6,34.6,3676.0,10620.0,2.0,0,
144300,1862.5,11.4,250.5,107.9,3676.0,10620.0,2.0,0,
144400,1862.7,12.0,250.4,108.0,3676.0,10620.0,2.0,0,
144600,1861.0,10.8,250.4,123.3,3676.0,10620.0,2.0,0,
144700,1861.2,11.9,250.4,122.2,3676.0,10620.0,2.0,0,
144800,1842.9,237.5,250.8,35.5,4088.0,17523.0,2.0,0,
144900,1896.9,415.4,250.9,29.6,4030.0,16609.0,2.0,0,
145000,1896.3,376.6,247.5,35.5,3464.0,12984.0,2.0,0,
145100,1902.8,324.7,247.9,87.6,3616.0,13149.0,3.0,1,
145200,1879.2,484.9,244.6,84.8,2057.0,9864.0,2.0,0,
145300,1832.1,469.0,248.7,74.0,3534.0,12651.0,2.0,0,
145400,1872.3,82.6,248.9,94.6,2424.0,8751.0,2.0,0,
145600,1854.3,14.0,248.8,35.5,2424.0,8751.0,2.0,0,
145700,1853.6,12.8,248.9,30.1,2424.0,8751.0,2.0,0,
145800,1857.7,10.9,249.0,30.0,2424.0,8751.0,2.0,0,
145900,1858.6,12.9,249.1,45.8,2424.0,8751.0,2.0,0,
146000,1859.5,12.9,249.2,117.8,2424.0,8751.0,2.0,0,
146100,1859.8,12.4,249.2,142.4,2424.0,8751.0,2.0,0,
146200,1859.8,12.2,249.3,117.9,2424.0,8751.0,2.0,0,
146300,1860.0,14.3,249.3,117.2,2424.0,8751.0,2.0,0,
146400,1860.8,263.7,249.3,115.2,4032.0,17426.0,2.0,0,
146600,1906.0,323.3,250.1,35.2,3664.0,13254.0,2.0,0,
146700,1923.0,343.1,244.1,80.0,3621.0,12138.0,2.0,0,
146800,1807.4,410.3,248.0,72.5,3735.0,11375.0,2.0,0,
146900,1877.0,380.9,240.1,74.7,3778.0,11871.0,2.0,0,
147000,1881.4,166.8,246.6,94.3,3696.0,10940.0,2.0,0,
147100,1869.5,22.3,245.2,136.5,3696.0,10940.0,2.0,0,
147200,1854.7,13.1,245.2,38.1,3696.0,10940.0,2.0,0,
147300,1854.0,14.2,245.1,34.8,3696.0,10940.0,2.0,0,
147400,1855.3,12.5,245.2,34.8,3696.0,10940.0,2.0,0,
147600,1859.9,11.1,245.2,116.3,3696.0,10940.0,2.0,0,
147700,1860.3,15.3,245.2,116.1,3696.0,10940.0,2.0,0,
147800,1860.3,11.9,245.2,115.4,3696.0,10940.0,2.0,0,
147900,1860.4,13.6,245.2,99.9,3696.0,10940.0,2.0,0,
148000,1860.4,194.2,245.2,100.3,3696.0,10940.0,2.0,0,
148100,1865.1,321.1,245.1,35.2,4089.0,16737.0,2.0,0,
148200,1969.5,362.0,243.2,35.6,3791.0,13395.0,2.0,0,
148300,1803.0,413.4,243.7,74.8,3720.0,11501.0,2.0,0,
148400,1868.4,428.6,243.1,74.1,3855.0,11619.0,2.0,0,
148600,1872.0,319.9,245.0,84.3,3686.0,11001.0,2.0,0,
148700,1875.9,28.7,238.3,84.6,3686.0,11001.0,2.0,0,
148800,1859.0,12.7,238.2,72.4,3686.0,11001.0,2.0,0,
148900,1853.6,13.1,238.2,35.4,3686.0,11001.0,2.0,0,
149000,1855.6,11.8,238.1,34.4,3686.0,11001.0,2.0,0,
149100,1857.7,12.3,238.2,30.0,3686.0,11001.0,2.0,0,
149200,1859.8,11.5,238.2,115.8,3686.0,11001.0,2.0,0,
149300,1860.5,15.0,238.1,118.1,3686.0,11001.0,2.0,0,
149400,1860.5,10.5,238.1,117.9,3686.0,11001.0,2.0,0,
149600,1860.3,27.6,238.1,117.6,3686.0,11001.0,2.0,0,
149700,1922.9,282.1,237.9,66.7,4095.0,19008.0,2.0,0,
149800,1867.5,427.2,236.2,30.2,3727.0,14217.0,2.0,0,
149900,1836.9,454.2,235.1,48.8,3505.0,12841.0,3.0,1,
150000,1885.3,415.4,237.2,93.4,3355.0,12942.0,3.0,1,
150100,1874.8,386.1,238.5,94.3,3376.0,12806.0,2.0,0,
150200,1898.1,438.4,239.2,136.3,2105.0,9458.0,2.0,0,
150300,1848.0,57.1,249.0,94.7,2415.0,8840.0,2.0,0,
150400,1860.7,17.2,249.0,74.4,2415.0,8840.0,2.0,0,
150600,1854.8,13.0,249.1,29.8,2415.0,8840.0,2.0,0,
150700,1858.3,15.0,249.0,29.6,2415.0,8840.0,2.0,0,
150800,1859.9,14.9,249.0,164.2,2415.0,8840.0,2.0,0,
150900,1861.2,11.9,249.0,151.0,2415.0,8840.0,2.0,0,
151000,1860.3,15.5,249.0,117.0,2415.0,8840.0,2.0,0,
151100,1860.7,12.7,249.0,114.2,2415.0,8840.0,2.0,0,
151200,1861.0,14.4,249.0,113.1,2415.0,8840.0,2.0,0,
151300,1939.6,236.2,248.4,56.0,3996.0,17705.0,2.0,0,
151400,1789.6,263.4,247.8,29.7,4001.0,16181.0,2.0,0,
151600,1883.5,263.8,239.9,82.5,3600.0,12329.0,2.0,0,
151700,1884.9,330.8,237.1,146.8,3633.0,13315.0,2.0,0,
151800,1921.6,437.9,230.4,106.0,3639.0,12943.0,2.0,0,
151900,1810.9,100.6,229.9,93.4,3676.0,10865.0,2.0,0,
152000,1872.4,20.1,231.5,93.6,3676.0,10865.0,2.0,0,
152100,1856.2,15.8,231.5,39.6,3676.0,10865.0,2.0,0,
152200,1854.1,17.1,231.5,35.2,3676.0,10865.0,2.0,0,
152300,1856.1,16.2,231.6,35.0,3676.0,10865.0,2.0,0,
152400,1859.1,15.1,231.6,39.3,3676.0,10865.0,2.0,0,
152600,1859.7,16.5,231.7,178.3,3676.0,10865.0,2.0,0,
152700,1860.9,15.9,231.7,238.5,3676.0,10865.0,2.0,0,
152800,1860.8,17.3,231.7,232.0,3676.0,10865.0,2.0,0,
152900,1860.7,282.8,231.7,238.4,3998.0,16949.0,2.0,0,
153000,1857.4,300.1,232.3,34.6,4094.0,16793.0,2.0,0,
153100,1902.3,307.3,245.2,35.3,3716.0,13555.0,2.0,0,
153200,1886.8,380.4,250.8,80.3,3603.0,12359.0,2.0,0,
153300,1934.9,344.2,251.9,87.1,3823.0,12401.0,2.0,0,
153400,1812.3,407.0,247.8,73.0,3775.0,11555.0,2.0,0,
153600,1879.6,25.3,243.1,168.7,3775.0,11555.0,2.0,0,
153700,1857.3,19.8,243.1,74.9,3775.0,11555.0,2.0,0,
153800,1854.2,16.4,243.1,35.2,3775.0,11555.0,2.0,0,
153900,1855.7,16.4,243.1,34.4,3775.0,11555.0,2.0,0,
154000,1858.1,17.1,243.2,36.5,3775.0,11555.0,2.0,0,
154100,1859.6,16.4,243.2,117.5,3775.0,11555.0,2.0,0,
154200,1860.1,16.2,243.1,237.9,3775.0,11555.0,2.0,0,
154300,1860.8,17.0,243.1,239.3,3775.0,11555.0,2.0,0,
154400,1860.7,16.2,243.1,240.0,3775.0,11555.0,2.0,0,
154600,1854.0,362.7,243.8,29.2,4095.0,18774.0,2.0,0,
154700,1902.5,369.3,243.4,29.9,3740.0,13655.0,2.0,0,
154800,1923.2,397.1,241.0,44.7,3791.0,12193.0,2.0,0,
154900,1856.9,444.5,234.6,84.5,3555.0,11382.0,2.0,0,
155000,1849.3,452.4,242.6,91.4,3527.0,12144.0,3.0,1,
155100,1880.3,409.0,244.8,91.8,3413.0,12888.0,3.0,1,
155200,1875.0,35.7,242.8,105.5,3660.0,11174.0,2.0,0,
155300,1859.4,13.8,242.8,82.6,3660.0,11174.0,2.0,0,
155400,1854.6,11.5,242.7,34.8,3660.0,11174.0,2.0,0,
155600,1858.0,11.6,242.6,35.4,3660.0,11174.0,2.0,0,
155700,1860.2,11.3,242.6,118.0,3660.0,11174.0,2.0,0,
155800,1860.1,12.2,242.6,153.5,3660.0,11174.0,2.0,0,
155900,1860.6,11.5,242.5,151.9,3660.0,11174.0,2.0,0,
156000,1861.1,12.0,242.5,146.8,3660.0,11174.0,2.0,0,
156100,1860.7,12.6,242.5,133.1,3660.0,11174.0,2.0,0,
156200,1860.4,210.2,242.6,29.3,4004.0,17238.0,2.0,0,
156300,1910.8,287.0,244.7,29.6,3983.0,16238.0,2.0,0,
156400,1937.7,453.0,234.5,30.0,3258.0,11700.0,2.0,0,
156600,1874.8,259.5,233.4,81.8,3317.0,12975.0,2.0,0,
156700,1873.2,348.9,228.0,72.7,3544.0,12674.0,2.0,0,
156800,1873.6,60.9,230.4,94.3,2383.0,8742.0,2.0,0,
156900,1862.3,13.7,230.4,94.6,2383.0,8742.0,2.0,0,
157000,1854.9,13.1,230.4,35.3,2383.0,8742.0,2.0,0,
157100,1853.5,11.4,230.5,30.1,2383.0,8742.0,2.0,0,
157200,1858.2,12.0,230.4,30.1,2383.0,8742.0,2.0,0,
157300,1860.9,12.5,230.4,125.4,2383.0,8742.0,2.0,0,
157400,1861.2,12.0,230.4,141.9,2383.0,8742.0,2.0,0,
157600,1861.6,12.2,230.3,135.4,2383.0,8742.0,2.0,0,
157700,1861.0,11.5,230.3,131.7,2383.0,8742.0,2.0,0,
157800,1867.0,279.8,229.2,132.3,4047.0,17366.0,2.0,0,
157900,1961.2,282.0,228.0,29.3,4005.0,16829.0,2.0,0,
158000,1809.9,457.2,226.6,29.7,3478.0,13449.0,2.0,0,
158100,1865.6,312.7,225.2,35.3,3216.0,11342.0,2.0,0,
158200,1873.9,310.8,227.5,116.3,3679.0,12023.0,2.0,0,
158300,1881.7,438.3,236.5,87.4,1792.0,8998.0,28.0,0,
158400,1931.8,130.8,249.6,136.3,3634.0,10756.0,2.0,0,
158600,1855.3,16.4,251.3,35.6,3634.0,10756.0,2.0,0,
158700,1855.9,16.3,251.3,34.7,3634.0,10756.0,2.0,0,
158800,1857.5,16.8,251.3,34.7,3634.0,10756.0,2.0,0,
158900,1858.9,16.0,251.4,39.5,3634.0,10756.0,2.0,0,
159000,1860.5,17.0,251.4,166.9,3634.0,10756.0,2.0,0,
159100,1861.7,17.0,251.5,239.3,3634.0,10756.0,2.0,0,
159200,1862.3,16.8,251.5,237.6,3634.0,10756.0,2.0,0,
159300,1863.7,18.1,251.4,227.0,3634.0,10756.0,2.0,0,
159400,1862.8,259.9,251.4,219.4,3640.0,16034.0,2.0,0,
159600,1848.5,351.6,251.9,29.7,3560.0,12619.0,2.0,0,
159700,1887.6,369.3,245.2,34.8,3502.0,11238.0,2.0,0,
159800,1881.3,280.5,248.9,94.3,3557.0,10839.0,2.0,0,
159900,1895.9,371.5,242.2,105.3,3560.0,10942.0,2.0,0,
160000,1862.4,233.2,224.9,94.7,3507.0,10568.0,2.0,0,
160100,1843.6,27.1,222.6,189.7,3507.0,10568.0,2.0,0,
160200,1857.6,18.3,222.6,66.2,3507.0,10568.0,2.0,0,
160300,1855.1,17.1,222.6,35.4,3507.0,10568.0,2.0,0,
160400,1855.8,16.6,222.7,35.3,3507.0,10568.0,2.0,0,
160600,1860.8,16.6,222.7,135.3,3507.0,10568.0,2.0,0,
160700,1860.1,16.2,222.7,154.7,3507.0,10568.0,2.0,0,
160800,1859.3,17.0,222.8,170.1,3507.0,10568.0,2.0,0,
160900,1859.8,16.4,222.9,178.0,3507.0,10568.0,2.0,0,
161000,1859.2,203.2,223.0,215.0,3507.0,10568.0,2.0,0,
161100,1847.6,417.5,225.1,30.3,4095.0,18236.0,2.0,0,
161200,1905.1,365.6,225.3,29.1,3807.0,15025.0,3.0,1,
161300,1890.2,360.7,225.7,29.8,3503.0,11855.0,2.0,0,
161400,1886.0,426.9,230.2,76.5,2361.0,9244.0,2.0,0,
161600,1818.3,477.5,259.1,93.0,1985.0,9418.0,2.0,0,
161700,1875.6,43.9,262.1,94.3,2256.0,8315.0,2.0,0,
161800,1859.3,19.3,262.1,54.1,2256.0,8315.0,2.0,0,
161900,1855.5,16.7,262.1,34.9,2256.0,8315.0,2.0,0,
162000,1856.3,17.7,262.0,34.9,2256.0,8315.0,2.0,0,
162100,1859.5,17.5,262.0,35.7,2256.0,8315.0,2.0,0,
162200,1859.5,16.7,262.1,178.6,2256.0,8315.0,2.0,0,
162300,1859.9,18.2,262.1,219.4,2256.0,8315.0,2.0,0,
162400,1860.3,17.3,262.1,219.0,2256.0,8315.0,2.0,0,
162600,1860.6,17.9,262.0,239.4,2256.0,8315.0,2.0,0,
162700,1848.7,290.3,262.2,34.7,4002.0,17358.0,2.0,0,
162800,1897.1,426.7,263.9,29.4,3750.0,15960.0,2.0,0,
162900,1892.9,304.8,271.1,29.9,3505.0,12748.0,3.0,1,
163000,1940.9,421.6,268.5,46.0,3755.0,13651.0,2.0,0,
163100,1808.6,482.5,265.9,88.5,3678.0,12985.0,2.0,0,
163200,1867.8,553.4,266.0,87.4,1916.0,8717.0,28.0,0,
163300,1877.6,90.6,277.8,93.5,2204.0,8689.0,2.0,0,
163400,1866.9,19.6,277.8,82.9,2204.0,8689.0,2.0,0,
163600,1855.6,17.5,277.8,30.3,2204.0,8689.0,2.0,0,
163700,1856.7,16.8,277.9,34.4,2204.0,8689.0,2.0,0,
163800,1859.4,18.3,277.8,72.7,2204.0,8689.0,2.0,0,
163900,1860.7,17.3,277.8,237.5,2204.0,8689.0,2.0,0,
164000,1860.5,17.1,277.8,231.9,2204.0,8689.0,2.0,0,
164100,1860.5,18.5,277.8,237.2,2204.0,8689.0,2.0,0,
164200,1860.4,17.3,277.8,239.8,2204.0,8689.0,2.0,0,
164300,1860.3,348.3,277.8,239.9,3944.0,16936.0,2.0,0,
164400,1878.1,317.4,279.4,28.8,3859.0,15622.0,2.0,0,
164600,1832.2,390.9,275.2,30.2,3876.0,12150.0,2.0,0,
164700,1860.3,413.9,268.3,72.8,3791.0,11760.0,2.0,0,
164800,1885.6,383.1,264.2,73.4,3737.0,11589.0,2.0,0,
164900,1879.0,156.6,248.8,168.2,2094.0,8623.0,2.0,0,
165000,1862.2,26.0,249.9,94.4,2094.0,8623.0,2.0,0,
165100,1857.9,18.5,249.9,39.9,2094.0,8623.0,2.0,0,
165200,1853.8,17.3,250.0,34.6,2094.0,8623.0,2.0,0,
165300,1855.9,18.5,250.0,34.3,2094.0,8623.0,2.0,0,
165400,1859.0,17.7,250.0,43.2,2094.0,8623.0,2.0,0,
165600,1860.6,18.5,250.0,239.4,2094.0,8623.0,2.0,0,
165700,1861.1,17.9,250.0,239.8,2094.0,8623.0,2.0,0,
165800,1860.7,17.7,250.0,239.8,2094.0,8623.0,2.0,0,
165900,1860.7,274.9,249.9,239.8,2094.0,8623.0,2.0,0,
166000,1910.3,429.8,252.0,29.3,4037.0,16097.0,2.0,0,
166100,1917.3,434.9,257.7,29.5,3776.0,13554.0,2.0,0,
166200,1816.5,499.6,254.7,30.1,3621.0,11811.0,2.0,0,
166300,1883.8,415.8,263.1,43.6,3561.0,12829.0,3.0,1,
166400,1876.9,367.2,265.9,83.0,3466.0,13685.0,2.0,0,
166600,1851.8,34.3,269.3,139.0,3466.0,13685.0,2.0,0,
166700,1858.7,19.3,269.3,55.6,3466.0,13685.0,2.0,0,
166800,1853.8,18.9,269.3,34.7,3466.0,13685.0,2.0,0,
166900,1856.0,18.1,269.3,34.3,3466.0,13685.0,2.0,0,
167000,1858.5,17.8,269.2,34.4,3466.0,13685.0,2.0,0,
167100,1859.8,19.0,269.3,125.6,3466.0,13685.0,2.0,0,
167200,1861.1,17.8,269.2,177.7,3466.0,13685.0,2.0,0,
167300,1860.8,17.9,269.2,239.2,3466.0,13685.0,2.0,0,
167400,1861.1,19.3,269.2,239.7,3466.0,13685.0,2.0,0,
167600,1954.2,438.2,269.0,37.6,4095.0,17809.0,2.0,0,
167700,1802.7,475.0,269.7,29.5,3777.0,16075.0,2.0,0,
167800,1879.8,295.7,269.3,29.8,3347.0,13223.0,2.0,0,
167900,1880.3,297.6,263.7,35.0,3558.0,12738.0,2.0,0,
168000,1879.8,308.9,256.2,89.5,3392.0,13667.0,2.0,0,
168100,1934.5,351.8,251.3,125.8,3533.0,13219.0,2.0,0,
168200,1807.6,43.3,243.5,157.3,3555.0,12619.0,3.0,1,
168300,1859.5,20.7,243.5,94.4,3555.0,12619.0,3.0,1,
168400,1854.5,18.9,243.4,35.9,3555.0,12619.0,3.0,1,
168600,1857.3,19.2,243.4,37.6,3555.0,12619.0,3.0,1,
168700,1860.1,17.6,243.5,176.4,3555.0,12619.0,3.0,1,
168800,1860.7,17.8,243.4,178.7,3555.0,12619.0,3.0,1,
168900,1860.3,19.1,243.5,238.3,3555.0,12619.0,3.0,1,
169000,1860.5,17.7,243.5,239.7,3555.0,12619.0,3.0,1,
169100,1860.2,18.2,243.5,240.3,3555.0,12619.0,3.0,1,
169200,1881.9,314.6,234.0,238.0,4052.0,17597.0,2.0,0,
169300,1845.8,274.4,221.6,35.4,4012.0,16335.0,2.0,0,
169400,1898.1,301.3,223.6,34.9,3534.0,12913.0,2.0,0,
169600,1932.5,391.9,233.3,82.4,3770.0,12082.0,2.0,0,
169700,1832.5,435.2,241.5,72.3,3757.0,12077.0,2.0,0,
169800,1855.3,104.5,251.0,94.3,2048.0,9040.0,2.0,0,
169900,1874.9,23.1,252.1,135.9,2048.0,9040.0,2.0,0,
170000,1855.0,19.6,252.0,35.4,2048.0,9040.0,2.0,0,
170100,1856.9,19.2,252.0,30.0,2048.0,9040.0,2.0,0,
170200,1858.6,17.8,252.0,29.9,2048.0,9040.0,2.0,0,
170300,1859.8,19.0,251.9,39.5,2048.0,9040.0,2.0,0,
170400,1860.7,18.8,251.9,178.7,2048.0,9040.0,2.0,0,
170600,1860.6,18.5,251.9,237.5,2048.0,9040.0,2.0,0,
170700,1860.6,19.7,251.9,239.9,2048.0,9040.0,2.0,0,
170800,1860.7,330.6,251.9,217.3,3932.0,17285.0,2.0,0,
170900,1864.0,320.9,251.4,56.4,4095.0,17639.0,2.0,0,
171000,1904.3,330.0,251.1,36.2,3704.0,13257.0,2.0,0,
171100,1897.7,353.3,248.3,69.0,3818.0,12331.0,2.0,0,
171200,1889.4,438.8,241.6,84.9,3746.0,11646.0,2.0,0,
171300,1832.4,484.6,240.7,105.0,2114.0,9350.0,2.0,0,
171400,1877.6,194.8,249.7,158.8,1927.0,8097.0,2.0,0,
171600,1857.4,20.3,244.4,42.3,1927.0,8097.0,2.0,0,
171700,1854.8,18.9,244.5,34.4,1927.0,8097.0,2.0,0,
171800,1857.3,19.1,244.5,30.2,1927.0,8097.0,2.0,0,
171900,1859.1,12.6,244.5,41.1,1927.0,8097.0,2.0,0,
172000,1861.2,3.7,244.5,177.0,1927.0,8097.0,2.0,0,
172100,1859.5,3.1,244.5,122.1,1927.0,8097.0,2.0,0,
172200,1860.1,3.2,244.4,116.1,1927.0,8097.0,2.0,0,
172300,1861.3,3.1,244.4,88.7,1927.0,8097.0,2.0,0,
172400,1861.1,77.5,244.3,101.3,1927.0,8097.0,2.0,0,
172600,1903.4,252.9,245.9,30.1,3679.0,14329.0,3.0,1,
172700,1940.6,358.8,237.2,30.1,3583.0,12872.0,3.0,1,
172800,1802.2,432.5,237.2,45.4,3366.0,13036.0,2.0,0,
172900,1874.5,516.5,234.5,157.4,1901.0,9834.0,2.0,0,
173000,1876.3,483.0,246.3,156.0,1784.0,9392.0,28.0,0,
173100,1878.0,27.5,252.7,132.6,1948.0,8689.0,2.0,0,
173200,1860.0,8.9,252.6,35.6,1948.0,8689.0,2.0,0,
173300,1854.8,5.2,252.5,30.1,1948.0,8689.0,2.0,0,
173400,1857.6,4.2,252.4,30.0,1948.0,8689.0,2.0,0,
173600,1859.4,4.0,252.4,100.4,1948.0,8689.0,2.0,0,
173700,1859.9,4.2,252.4,104.7,1948.0,8689.0,2.0,0,
173800,1861.1,4.1,252.3,101.2,1948.0,8689.0,2.0,0,
173900,1860.7,4.6,252.3,101.7,1948.0,8689.0,2.0,0,
174000,1861.2,4.6,252.3,122.3,1948.0,8689.0,2.0,0,
174100,1857.7,265.9,251.0,235.6,4095.0,18090.0,2.0,0,
174200,1969.7,309.8,245.4,251.3,3814.0,15730.0,2.0,0,
174300,1814.3,371.5,249.7,212.0,3731.0,12982.0,2.0,0,
174400,1857.9,396.8,249.2,168.3,3769.0,12138.0,2.0,0,
174600,1870.5,322.3,244.7,167.6,3727.0,12528.0,2.0,0,
174700,1885.8,37.7,221.9,149.4,3322.0,12264.0,2.0,0,
174800,1862.1,8.1,221.9,74.6,3322.0,12264.0,2.0,0,
174900,1856.0,6.0,221.9,35.5,3322.0,12264.0,2.0,0,
175000,1857.5,4.8,221.9,34.2,3322.0,12264.0,2.0,0,
175100,1858.6,5.8,221.8,34.2,3322.0,12264.0,2.0,0,
175200,1860.3,4.8,221.8,100.6,3322.0,12264.0,2.0,0,
175300,1860.4,3.9,221.8,100.7,3322.0,12264.0,2.0,0,
175400,1860.2,4.0,221.8,99.7,3322.0,12264.0,2.0,0,
175600,1860.8,3.5,221.8,110.1,3322.0,12264.0,2.0,0,
175700,1914.8,211.4,222.0,244.0,3999.0,17890.0,2.0,0,
175800,1862.2,415.4,222.6,260.9,3635.0,14722.0,2.0,0,
175900,1836.1,354.1,226.8,204.0,3568.0,13962.0,3.0,1,
176000,1889.0,219.8,220.3,94.6,3474.0,12649.0,3.0,1,
176100,1882.0,344.8,209.2,90.2,3403.0,12843.0,3.0,1,
176200,1894.8,421.9,207.3,158.5,3671.0,11774.0,2.0,0,
176300,1887.9,89.7,218.0,168.1,3499.0,12490.0,2.0,0,
176400,1833.4,8.7,219.2,93.0,3499.0,12490.0,2.0,0,
176600,1852.8,6.9,219.2,35.0,3499.0,12490.0,2.0,0,
176700,1856.7,4.8,219.3,34.9,3499.0,12490.0,2.0,0,
176800,1859.5,4.2,219.3,49.0,3499.0,12490.0,2.0,0,
176900,1860.1,4.0,219.3,69.1,3499.0,12490.0,2.0,0,
177000,1861.5,4.1,219.2,79.0,3499.0,12490.0,2.0,0,
177100,1861.6,3.7,219.2,93.0,3499.0,12490.0,2.0,0,
177200,1861.0,4.7,219.2,100.4,3499.0,12490.0,2.0,0,
177300,1860.5,136.4,219.2,101.7,3884.0,16292.0,2.0,0,
177400,1857.8,242.1,220.2,231.0,4095.0,17356.0,2.0,0,
177600,1887.3,259.1,215.0,137.5,3514.0,13717.0,2.0,0,
177700,1885.9,298.9,223.1,106.4,3223.0,13093.0,2.0,0,
177800,1923.7,307.6,214.1,148.4,3429.0,13705.0,2.0,0,
177900,1805.3,200.0,204.5,93.7,3533.0,12261.0,2.0,0,
178000,1881.0,13.1,208.5,155.5,3533.0,12261.0,2.0,0,
178100,1859.9,8.1,208.5,44.7,3533.0,12261.0,2.0,0,
178200,1855.3,5.9,208.5,34.4,3533.0,12261.0,2.0,0,
178300,1858.0,4.6,208.4,29.8,3533.0,12261.0,2.0,0,
178400,1859.8,4.3,208.4,29.9,3533.0,12261.0,2.0,0,
178600,1860.7,4.2,208.4,72.7,3533.0,12261.0,2.0,0,
178700,1860.1,4.9,208.4,98.6,3533.0,12261.0,2.0,0,
178800,1860.5,4.9,208.4,89.3,3533.0,12261.0,2.0,0,
178900,1860.9,17.5,208.4,79.4,3533.0,12261.0,2.0,0,
179000,1838.7,353.4,208.2,102.1,4047.0,16556.0,2.0,0,
179100,1899.3,303.2,216.4,42.7,3800.0,14717.0,2.0,0,
179200,1898.2,323.2,219.0,34.8,3458.0,13251.0,2.0,0,
179300,1938.2,345.1,218.7,35.1,3738.0,12139.0,2.0,0,
179400,1816.8,402.4,226.8,85.9,3695.0,12088.0,2.0,0,
179600,1887.2,26.5,241.8,94.7,3594.0,12086.0,2.0,0,
179700,1859.5,7.6,241.8,69.7,3594.0,12086.0,2.0,0,
179800,1855.2,5.5,241.8,35.6,3594.0,12086.0,2.0,0,
179900,1856.5,4.6,241.8,35.0,3594.0,12086.0,2.0,0,
180000,1859.1,3.6,241.9,35.6,3594.0,12086.0,2.0,0,
180100,1860.1,4.3,241.9,99.8,3594.0,12086.0,2.0,0,
180200,1860.3,5.8,241.9,99.5,3594.0,12086.0,2.0,0,
180300,1860.6,10.8,241.9,99.0,3594.0,12086.0,2.0,0,
180400,1860.8,13.6,241.9,116.5,3594.0,12086.0,2.0,0,
180600,1847.7,309.7,242.3,163.7,3908.0,17300.0,2.0,0,
180700,1903.1,329.0,235.8,203.8,3597.0,14149.0,2.0,0,
180800,1927.5,379.6,238.9,166.4,3713.0,12805.0,2.0,0,
180900,1862.0,524.1,245.0,146.1,2440.0,9293.0,2.0,0,
181000,1845.4,514.6,258.9,157.6,2047.0,8372.0,2.0,0,
181100,1877.3,398.1,263.1,94.5,1780.0,8862.0,2.0,0,
181200,1869.7,63.3,256.4,94.5,1532.0,7188.0,2.0,0,
181300,1865.5,14.5,256.4,124.8,1532.0,7188.0,2.0,0,
181400,1854.9,12.1,256.4,38.2,1532.0,7188.0,2.0,0,
181600,1858.2,11.5,256.4,34.4,1532.0,7188.0,2.0,0,
181700,1858.6,12.2,256.5,93.7,1532.0,7188.0,2.0,0,
181800,1859.8,10.7,256.5,117.2,1532.0,7188.0,2.0,0,
181900,1860.3,12.5,256.5,123.1,1532.0,7188.0,2.0,0,
182000,1860.4,12.3,256.5,122.9,1532.0,7188.0,2.0,0,
182100,1860.9,10.6,256.5,123.0,1532.0,7188.0,2.0,0,
182200,1860.2,165.6,255.6,123.8,4068.0,19581.0,2.0,0,
182300,1895.3,407.3,255.7,204.1,3704.0,14707.0,2.0,0,
182400,1940.2,378.9,262.4,172.0,3626.0,13577.0,3.0,1,
182600,1875.0,409.7,253.8,85.8,1891.0,8992.0,2.0,0,
182700,1873.7,341.1,249.0,149.8,1532.0,7926.0,28.0,0,
182800,1876.3,132.8,244.7,125.2,1308.0,6603.0,2.0,0,
182900,1860.6,17.5,248.6,136.1,1308.0,6603.0,2.0,0,
183000,1857.5,10.8,248.5,65.6,1308.0,6603.0,2.0,0,
183100,1856.6,11.6,248.5,34.6,1308.0,6603.0,2.0,0,
183200,1857.5,11.3,248.6,29.9,1308.0,6603.0,2.0,0,
183300,1859.1,10.9,248.5,29.1,1308.0,6603.0,2.0,0,
183400,1859.6,11.5,248.5,117.1,1308.0,6603.0,2.0,0,
183600,1860.5,10.7,248.5,141.7,1308.0,6603.0,2.0,0,
183700,1860.7,11.9,248.5,135.2,1308.0,6603.0,2.0,0,
183800,1860.6,164.5,248.5,135.5,4084.0,19460.0,2.0,0,
183900,1964.6,313.5,248.8,71.1,4042.0,17274.0,2.0,0,
184000,1806.5,343.8,243.0,93.1,3442.0,13800.0,3.0,1,
184100,1862.2,444.6,247.2,93.4,3552.0,12021.0,2.0,0,
184200,1880.2,388.7,249.8,147.5,1759.0,8320.0,28.0,0,
184300,1876.9,387.1,246.5,138.2,1624.0,7951.0,28.0,0,
184400,1925.0,251.4,248.8,94.6,2267.0,8065.0,2.0,0,
184600,1859.0,12.8,246.3,66.9,2267.0,8065.0,2.0,0,
184700,1854.6,11.1,246.3,35.4,2267.0,8065.0,2.0,0,
184800,1857.7,11.1,246.3,34.9,2267.0,8065.0,2.0,0,
184900,1857.4,12.0,246.4,30.2,2267.0,8065.0,2.0,0,
185000,1858.5,11.4,246.4,123.0,2267.0,8065.0,2.0,0,
185100,1859.7,11.4,246.4,117.6,2267.0,8065.0,2.0,0,
185200,1860.6,12.4,246.4,118.1,2267.0,8065.0,2.0,0,
185300,1860.3,11.5,246.4,123.8,2267.0,8065.0,2.0,0,
185400,1860.5,76.9,246.4,135.4,2267.0,8065.0,2.0,0,
185600,1841.1,415.2,247.1,99.9,3565.0,13660.0,2.0,0,
185700,1895.0,369.2,251.4,94.7,3720.0,12249.0,2.0,0,
185800,1882.5,340.2,247.5,94.2,2210.0,8908.0,2.0,0,
185900,1900.3,395.3,244.6,94.0,2313.0,8667.0,2.0,0,
186000,1869.5,472.4,246.4,138.1,2092.0,8308.0,2.0,0,
186100,1847.5,44.7,253.3,189.7,1322.0,6883.0,2.0,0,
186200,1860.2,15.4,253.3,93.1,1322.0,6883.0,2.0,0,
186300,1856.5,11.3,253.3,35.1,1322.0,6883.0,2.0,0,
186400,1857.2,12.7,253.3,30.2,1322.0,6883.0,2.0,0,
186600,1859.6,11.7,253.2,101.7,1322.0,6883.0,2.0,0,
186700,1860.0,12.6,253.2,123.6,1322.0,6883.0,2.0,0,
186800,1860.0,11.8,253.2,123.6,1322.0,6883.0,2.0,0,
186900,1860.2,11.7,253.2,123.0,1322.0,6883.0,2.0,0,
187000,1860.1,12.9,253.2,135.4,1322.0,6883.0,2.0,0,
187100,1850.5,231.0,253.5,42.1,4095.0,19062.0,2.0,0,
187200,1888.9,447.3,248.3,82.2,3984.0,17589.0,2.0,0,
187300,1892.6,377.7,248.9,118.0,3395.0,13925.0,3.0,1,
187400,1894.3,352.9,250.6,149.4,3417.0,12715.0,3.0,1,
187600,1821.1,496.1,256.7,93.7,1674.0,8870.0,28.0,0,
187700,1871.3,84.1,260.1,137.2,3386.0,10412.0,2.0,0,
187800,1871.1,14.7,260.0,93.7,3386.0,10412.0,2.0,0,
187900,1854.9,12.2,260.1,38.5,3386.0,10412.0,2.0,0,
188000,1856.2,11.7,260.1,35.4,3386.0,10412.0,2.0,0,
188100,1857.8,12.0,260.1,35.3,3386.0,10412.0,2.0,0,
188200,1859.5,12.3,260.1,47.1,3386.0,10412.0,2.0,0,
188300,1859.1,11.4,260.1,122.1,3386.0,10412.0,2.0,0,
188400,1859.8,11.7,260.2,132.9,3386.0,10412.0,2.0,0,
188600,1859.9,11.6,260.2,122.2,3386.0,10412.0,2.0,0,
188700,1860.7,264.8,260.1,124.0,3938.0,16882.0,2.0,0,
188800,1875.3,286.6,261.3,29.5,4078.0,16243.0,2.0,0,
188900,1898.5,346.0,254.0,30.1,3580.0,13685.0,2.0,0,
189000,1937.1,428.5,254.9,57.4,3574.0,12451.0,2.0,0,
189100,1808.4,504.9,263.2,137.0,2600.0,9256.0,2.0,0,
189200,1872.4,516.7,265.1,124.8,2280.0,8661.0,2.0,0,
189300,1880.0,174.5,265.2,117.8,2165.0,8312.0,2.0,0,
189400,1866.3,21.2,265.3,135.9,2165.0,8312.0,2.0,0,
189600,1855.5,11.3,265.2,34.9,2165.0,8312.0,2.0,0,
189700,1857.0,11.9,265.2,35.1,2165.0,8312.0,2.0,0,
189800,1858.1,11.5,265.3,42.8,2165.0,8312.0,2.0,0,
189900,1859.9,11.8,265.2,175.0,2165.0,8312.0,2.0,0,
190000,1860.0,12.3,265.2,135.6,2165.0,8312.0,2.0,0,
190100,1860.1,10.9,265.2,132.2,2165.0,8312.0,2.0,0,
190200,1860.1,11.4,265.2,178.7,2165.0,8312.0,2.0,0,
190300,1859.8,184.0,265.2,147.1,2165.0,8312.0,2.0,0,
190400,1863.4,300.4,265.8,29.9,3616.0,14754.0,2.0,0,
190600,1837.9,365.8,263.8,91.2,3703.0,12819.0,3.0,1,
190700,1857.6,466.7,252.2,149.3,3515.0,12865.0,3.0,1,
190800,1881.0,469.5,243.1,158.4,1975.0,9822.0,2.0,0,
190900,1874.3,377.1,244.6,214.8,3374.0,13158.0,2.0,0,
191000,1869.6,29.1,245.2,124.4,2124.0,8677.0,2.0,0,
191100,1859.0,12.8,245.2,65.9,2124.0,8677.0,2.0,0,
191200,1853.9,10.8,245.3,35.9,2124.0,8677.0,2.0,0,
191300,1856.4,9.9,245.3,35.5,2124.0,8677.0,2.0,0,
191400,1858.2,10.8,245.3,35.1,2124.0,8677.0,2.0,0,
191600,1859.1,10.0,245.3,118.0,2124.0,8677.0,2.0,0,
191700,1859.9,9.7,245.3,116.2,2124.0,8677.0,2.0,0,
191800,1860.5,7.3,245.3,117.5,2124.0,8677.0,2.0,0,
191900,1859.9,13.2,245.3,122.8,2124.0,8677.0,2.0,0,
192000,1914.7,345.5,251.2,39.5,4031.0,17230.0,2.0,0,
192100,1897.8,284.2,258.2,29.5,3603.0,15108.0,2.0,0,
192200,1819.0,351.4,254.5,30.0,3416.0,13298.0,2.0,0,
192300,1878.5,338.7,261.0,40.1,3703.0,12691.0,2.0,0,
192400,1878.4,319.1,254.0,168.1,3740.0,12501.0,2.0,0,
192600,1856.6,37.8,244.2,136.1,3579.0,12733.0,3.0,1,
192700,1860.2,11.0,244.2,88.0,3579.0,12733.0,3.0,1,
192800,1856.7,9.7,244.2,35.8,3579.0,12733.0,3.0,1,
192900,1858.3,10.5,244.1,35.3,3579.0,12733.0,3.0,1,
193000,1859.4,10.6,244.0,35.7,3579.0,12733.0,3.0,1,
193100,1859.9,10.1,244.0,117.6,3579.0,12733.0,3.0,1,
193200,1859.8,11.4,244.0,116.9,3579.0,12733.0,3.0,1,
193300,1859.8,10.6,244.0,122.6,3579.0,12733.0,3.0,1,
193400,1860.3,10.1,244.0,136.8,3579.0,12733.0,3.0,1,
193600,1934.8,222.6,238.7,205.8,3996.0,17680.0,2.0,0,
193700,1796.9,347.8,222.2,264.3,3537.0,14451.0,2.0,0,
193800,1883.0,374.2,225.6,230.7,3779.0,14149.0,3.0,1,
193900,1891.4,366.7,224.7,168.3,3788.0,13410.0,3.0,1,
194000,1879.4,260.6,223.8,141.7,3797.0,13311.0,3.0,1,
194100,1938.5,361.9,215.3,83.1,3726.0,13013.0,3.0,1,
194200,1811.1,83.2,211.6,73.4,3363.0,12824.0,3.0,1,
194300,1869.3,14.9,212.6,86.0,3363.0,12824.0,3.0,1,
194400,1856.6,12.3,212.7,34.4,3363.0,12824.0,3.0,1,
194600,1856.6,4.8,212.8,30.1,3363.0,12824.0,3.0,1,
194700,1858.7,4.3,212.8,44.4,3363.0,12824.0,3.0,1,
194800,1859.2,3.6,212.8,73.9,3363.0,12824.0,3.0,1,
194900,1860.4,3.7,212.8,68.6,3363.0,12824.0,3.0,1,
195000,1860.3,3.0,212.7,99.2,3363.0,12824.0,3.0,1,
195100,1860.2,3.3,212.7,101.5,3363.0,12824.0,3.0,1,
195200,1859.7,145.6,212.8,104.6,4015.0,18528.0,2.0,0,
195300,1860.7,405.8,215.7,220.3,3967.0,16777.0,2.0,0,
195400,1902.4,358.1,219.2,207.8,3511.0,14568.0,3.0,1,
195600,1942.2,380.3,219.5,135.4,3622.0,13208.0,3.0,1,
195700,1820.5,493.9,227.6,135.9,3273.0,13381.0,2.0,0,
195800,1857.0,174.1,239.4,189.5,3287.0,12038.0,2.0,0,
195900,1882.1,13.4,238.6,148.2,3287.0,12038.0,2.0,0,
196000,1856.3,7.4,238.7,43.3,3287.0,12038.0,2.0,0,
196100,1855.1,6.2,238.7,35.4,3287.0,12038.0,2.0,0,
196200,1856.4,5.0,238.6,34.8,3287.0,12038.0,2.0,0,
196300,1858.4,5.9,238.6,36.1,3287.0,12038.0,2.0,0,
196400,1859.2,7.8,238.6,84.3,3287.0,12038.0,2.0,0,
196600,1860.1,9.8,238.7,117.8,3287.0,12038.0,2.0,0,
196700,1859.7,10.2,238.7,133.0,3287.0,12038.0,2.0,0,
196800,1860.3,49.4,238.7,137.0,3287.0,12038.0,2.0,0,
196900,1850.5,278.2,239.8,108.9,4095.0,17488.0,2.0,0,
197000,1899.6,294.6,242.6,82.7,3435.0,14479.0,3.0,1,
197100,1912.6,344.8,245.6,66.7,3383.0,13564.0,2.0,0,
197200,1875.3,369.7,247.3,67.1,3717.0,12583.0,2.0,0,
197300,1837.7,525.2,249.6,87.1,2657.0,9522.0,2.0,0,
197400,1879.0,490.9,257.9,144.2,2346.0,8711.0,2.0,0,
197600,1859.0,13.2,265.1,67.2,2346.0,8711.0,2.0,0,
197700,1854.4,10.9,265.1,34.9,2346.0,8711.0,2.0,0,
197800,1857.0,10.3,265.1,30.1,2346.0,8711.0,2.0,0,
197900,1857.0,10.2,265.1,34.4,2346.0,8711.0,2.0,0,
198000,1858.9,10.8,265.1,147.7,2346.0,8711.0,2.0,0,
198100,1860.1,10.4,265.2,178.5,2346.0,8711.0,2.0,0,
198200,1859.7,10.4,265.2,200.7,2346.0,8711.0,2.0,0,
198300,1860.0,11.1,265.2,201.2,2346.0,8711.0,2.0,0,
198400,1860.7,10.4,265.2,178.4,2346.0,8711.0,2.0,0,
198600,1907.1,382.6,265.3,142.3,3629.0,14013.0,2.0,0,
198700,1937.9,332.0,266.5,93.6,3572.0,12939.0,3.0,1,
198800,1811.9,494.7,261.8,73.6,3785.0,12233.0,2.0,0,
198900,1880.4,403.9,267.4,92.1,3612.0,12548.0,3.0,1,
199000,1880.3,410.0,253.8,137.2,3436.0,13273.0,3.0,1,
199100,1872.2,58.3,247.8,93.4,3565.0,11776.0,2.0,0,
199200,1863.8,14.1,247.7,93.7,3565.0,11776.0,2.0,0,
199300,1855.7,11.6,247.7,36.0,3565.0,11776.0,2.0,0,
199400,1855.7,11.4,247.7,34.9,3565.0,11776.0,2.0,0,
199600,1859.2,10.9,247.7,117.5,3565.0,11776.0,2.0,0,
199700,1860.1,11.6,247.7,164.5,3565.0,11776.0,2.0,0,
199800,1860.7,11.8,247.7,159.0,3565.0,11776.0,2.0,0,
199900,1860.8,10.7,247.6,131.3,3565.0,11776.0,2.0,0,
200000,1860.4,11.3,247.6,164.6,3565.0,11776.0,2.0,0,
200100,1860.7,255.1,246.9,237.9,4095.0,18261.0,2.0,0,
200200,1964.3,401.8,250.6,93.0,3721.0,15524.0,2.0,0,
200300,1804.8,319.0,248.3,93.4,3564.0,14241.0,3.0,1,
200400,1867.1,470.0,252.3,84.6,3324.0,13709.0,2.0,0,
200600,1875.1,358.8,257.9,94.6,3358.0,13400.0,2.0,0,
200700,1937.9,122.0,259.2,94.2,3584.0,11302.0,2.0,0,
200800,1807.7,17.2,261.3,93.7,3584.0,11302.0,2.0,0,
200900,1859.8,12.6,261.2,41.7,3584.0,11302.0,2.0,0,
201000,1854.7,12.6,261.2,35.3,3584.0,11302.0,2.0,0,
201100,1857.8,10.6,261.2,35.0,3584.0,11302.0,2.0,0,
201200,1859.0,11.3,261.1,34.9,3584.0,11302.0,2.0,0,
201300,1859.6,11.4,261.2,123.4,3584.0,11302.0,2.0,0,
201400,1860.2,11.2,261.2,123.3,3584.0,11302.0,2.0,0,
201600,1860.2,11.8,261.2,117.7,3584.0,11302.0,2.0,0,
201700,1861.1,258.7,261.2,122.3,4060.0,17884.0,2.0,0,
201800,1904.0,331.7,256.8,34.5,3951.0,15814.0,2.0,0,
201900,1842.9,362.6,248.7,34.3,3690.0,13670.0,2.0,0,
202000,1889.7,368.4,251.2,36.1,3552.0,12123.0,2.0,0,
202100,1881.5,290.0,243.3,93.9,3727.0,12676.0,2.0,0,
202200,1902.2,369.9,236.7,106.2,3618.0,11853.0,2.0,0,
202300,1872.4,289.4,232.0,158.6,2425.0,9066.0,2.0,0,
202400,1843.2,25.1,238.7,157.3,2425.0,9066.0,2.0,0,
202600,1854.2,11.7,238.8,34.3,2425.0,9066.0,2.0,0,
202700,1856.8,11.7,238.8,30.1,2425.0,9066.0,2.0,0,
202800,1859.2,11.6,238.8,29.7,2425.0,9066.0,2.0,0,
202900,1860.0,11.2,238.8,178.2,2425.0,9066.0,2.0,0,
203000,1860.0,12.2,238.8,178.4,2425.0,9066.0,2.0,0,
203100,1860.6,11.2,238.8,177.2,2425.0,9066.0,2.0,0,
203200,1861.1,11.8,238.7,168.7,2425.0,9066.0,2.0,0,
203300,1860.4,209.3,238.7,178.1,2425.0,9066.0,2.0,0,
203400,1850.9,486.4,243.0,30.0,4095.0,17985.0,2.0,0,
203600,1900.1,224.7,255.9,29.9,3387.0,14736.0,2.0,0,
203700,1890.3,291.3,250.4,42.7,3363.0,12963.0,3.0,1,
203800,1910.3,420.6,252.6,74.4,3421.0,13293.0,3.0,1,
203900,1812.6,502.3,252.2,151.2,3392.0,13727.0,3.0,1,
204000,1876.0,39.1,246.3,159.0,2355.0,9269.0,2.0,0,
204100,1860.7,13.6,246.3,82.8,2355.0,9269.0,2.0,0,
204200,1855.7,11.5,246.2,35.8,2355.0,9269.0,2.0,0,
204300,1856.1,10.1,246.2,35.0,2355.0,9269.0,2.0,0,
204400,1858.2,10.9,246.2,35.3,2355.0,9269.0,2.0,0,
204600,1860.5,11.4,246.2,155.2,2355.0,9269.0,2.0,0,
204700,1860.9,11.2,246.2,151.9,2355.0,9269.0,2.0,0,
204800,1860.3,11.5,246.2,172.6,2355.0,9269.0,2.0,0,
204900,1861.3,11.4,246.2,188.0,2355.0,9269.0,2.0,0,
205000,1847.7,312.3,247.4,29.6,4050.0,18260.0,2.0,0,
205100,1900.8,287.4,248.7,29.4,3775.0,15743.0,2.0,0,
205200,1894.0,327.4,246.2,29.9,3460.0,13842.0,3.0,1,
205300,1939.6,347.4,249.0,39.2,3449.0,13461.0,2.0,0,
205400,1805.5,389.5,253.2,101.9,3606.0,12581.0,2.0,0,
205600,1878.6,75.0,262.1,170.5,2089.0,8291.0,2.0,0,
205700,1867.7,16.5,262.1,93.5,2089.0,8291.0,2.0,0,
205800,1855.1,11.7,262.1,37.1,2089.0,8291.0,2.0,0,
205900,1856.8,11.6,262.1,35.2,2089.0,8291.0,2.0,0,
206000,1857.9,12.0,262.1,35.7,2089.0,8291.0,2.0,0,
206100,1859.8,11.2,262.1,71.6,2089.0,8291.0,2.0,0,
206200,1860.5,11.2,262.1,177.9,2089.0,8291.0,2.0,0,
206300,1860.3,11.9,262.1,177.4,2089.0,8291.0,2.0,0,
206400,1860.9,11.3,262.1,157.2,2089.0,8291.0,2.0,0,
206600,1860.5,393.3,262.1,157.1,4075.0,17326.0,2.0,0,
206700,1876.0,292.3,264.9,29.4,3835.0,15678.0,2.0,0,
206800,1955.2,378.6,256.9,29.6,3515.0,12895.0,2.0,0,
206900,1833.4,444.9,261.1,30.1,3824.0,12553.0,2.0,0,
207000,1861.6,477.1,265.6,80.9,3714.0,11910.0,2.0,0,
207100,1883.7,443.0,269.2,94.2,2159.0,9488.0,2.0,0,
207200,1876.0,166.1,268.1,157.5,1983.0,8520.0,2.0,0,
207300,1865.6,18.6,271.8,117.0,1983.0,8520.0,2.0,0,
207400,1859.8,12.3,271.7,47.3,1983.0,8520.0,2.0,0,
207600,1857.3,11.1,271.7,34.3,1983.0,8520.0,2.0,0,
207700,1859.3,11.6,271.8,46.9,1983.0,8520.0,2.0,0,
207800,1860.0,12.4,271.8,100.8,1983.0,8520.0,2.0,0,
207900,1861.0,11.3,271.7,137.8,1983.0,8520.0,2.0,0,
208000,1860.6,11.8,271.8,143.6,1983.0,8520.0,2.0,0,
208100,1861.0,12.1,271.7,123.8,1983.0,8520.0,2.0,0,
208200,1860.8,96.2,271.7,152.3,3933.0,17882.0,2.0,0,
208300,1916.7,302.0,265.5,45.6,3989.0,16880.0,2.0,0,
208400,1909.0,387.2,268.9,34.3,3496.0,13997.0,3.0,1,
208600,1880.2,446.1,258.3,73.5,3445.0,13853.0,2.0,0,
208700,1879.9,308.0,257.9,106.1,3416.0,12696.0,2.0,0,
208800,1891.8,249.0,250.3,157.8,3240.0,11965.0,3.0,1,
208900,1859.8,23.8,242.5,117.4,3240.0,11965.0,3.0,1,
209000,1860.1,14.6,242.5,65.9,3240.0,11965.0,3.0,1,
209100,1854.9,10.9,242.5,35.2,3240.0,11965.0,3.0,1,
209200,1856.8,11.3,242.5,34.7,3240.0,11965.0,3.0,1,
209300,1858.5,12.3,242.5,30.1,3240.0,11965.0,3.0,1,
209400,1860.5,10.7,242.5,138.4,3240.0,11965.0,3.0,1,
209600,1860.3,12.5,242.5,194.5,3240.0,11965.0,3.0,1,
209700,1861.2,11.0,242.5,229.7,3240.0,11965.0,3.0,1,
209800,1860.9,14.6,242.5,228.4,3240.0,11965.0,3.0,1,
209900,1946.6,277.9,235.9,110.8,4095.0,18305.0,2.0,0,
210000,1802.8,344.8,233.3,90.7,3602.0,14956.0,2.0,0,
210100,1878.9,386.7,238.9,90.2,3493.0,12786.0,2.0,0,
210200,1881.5,318.0,242.4,89.8,3757.0,12203.0,2.0,0,
210300,1883.0,355.8,233.6,71.8,3607.0,12486.0,2.0,0,
210400,1936.3,398.8,237.7,93.6,3537.0,11619.0,2.0,0,
210600,1861.5,12.4,242.2,67.0,3537.0,11619.0,2.0,0,
210700,1855.6,12.1,242.2,35.6,3537.0,11619.0,2.0,0,
210800,1858.1,12.0,242.2,35.0,3537.0,11619.0,2.0,0,
210900,1858.4,10.9,242.2,35.8,3537.0,11619.0,2.0,0,
211000,1859.5,12.1,242.2,70.7,3537.0,11619.0,2.0,0,
211100,1860.9,12.3,242.2,80.0,3537.0,11619.0,2.0,0,
211200,1861.1,10.5,242.2,213.8,3537.0,11619.0,2.0,0,
211300,1860.5,11.9,242.2,238.9,3537.0,11619.0,2.0,0,
211400,1861.0,12.0,242.2,232.3,3537.0,11619.0,2.0,0,
211600,1851.3,456.1,245.0,82.0,3627.0,14571.0,2.0,0,
211700,1902.1,334.2,251.7,65.4,3534.0,13759.0,3.0,1,
211800,1872.1,353.5,239.8,36.9,3550.0,11649.0,2.0,0,
211900,1937.2,323.1,243.3,52.9,3667.0,13024.0,3.0,1,
212000,1833.8,447.3,236.8,157.3,3531.0,12830.0,3.0,1,
212100,1853.7,85.2,237.9,149.9,3549.0,12169.0,2.0,0,
212200,1876.2,14.6,237.8,168.7,3549.0,12169.0,2.0,0,
212300,1859.0,13.4,237.7,36.6,3549.0,12169.0,2.0,0,
212400,1855.4,11.1,237.7,34.3,3549.0,12169.0,2.0,0,
212600,1859.6,12.2,237.7,47.4,3549.0,12169.0,2.0,0,
212700,1860.5,11.3,237.7,100.4,3549.0,12169.0,2.0,0,
212800,1860.4,12.1,237.7,122.9,3549.0,12169.0,2.0,0,
212900,1860.7,12.1,237.7,123.6,3549.0,12169.0,2.0,0,
213000,1861.2,10.8,237.7,178.2,3549.0,12169.0,2.0,0,
213100,1860.8,217.7,237.7,177.4,4034.0,18452.0,2.0,0,
213200,1861.2,262.3,241.5,111.0,3986.0,16935.0,2.0,0,
213300,1897.5,259.6,231.6,93.9,3483.0,13691.0,3.0,1,
213400,1910.8,336.3,227.6,92.9,3291.0,13827.0,3.0,1,
213600,1832.8,399.1,234.5,167.1,3644.0,13027.0,2.0,0,
213700,1874.3,157.7,231.0,157.8,3507.0,11943.0,2.0,0,
213800,1881.3,18.6,230.1,149.8,3507.0,11943.0,2.0,0,
213900,1859.9,11.9,230.1,72.7,3507.0,11943.0,2.0,0,
214000,1855.2,11.1,230.0,36.1,3507.0,11943.0,2.0,0,
214100,1856.9,11.6,230.1,35.5,3507.0,11943.0,2.0,0,
214200,1859.3,10.5,230.1,37.8,3507.0,11943.0,2.0,0,
214300,1859.7,12.3,230.1,177.5,3507.0,11943.0,2.0,0,
214400,1860.7,11.3,230.1,202.8,3507.0,11943.0,2.0,0,
214600,1860.8,12.2,230.1,155.9,3507.0,11943.0,2.0,0,
214700,1861.1,179.2,230.1,171.0,3507.0,11943.0,2.0,0,
214800,1856.4,264.9,230.8,39.4,4082.0,18851.0,2.0,0,
214900,1909.0,331.9,220.6,54.0,3402.0,13133.0,2.0,0,
215000,1925.8,406.1,228.9,101.0,3605.0,12155.0,2.0,0,
215100,1811.6,489.2,232.2,105.8,3766.0,12185.0,2.0,0,
215200,1883.3,416.3,239.7,157.3,3679.0,12454.0,3.0,1,
215300,1879.9,361.8,235.0,159.1,3564.0,12636.0,3.0,1,
215400,1873.8,28.8,239.3,136.5,3611.0,11647.0,2.0,0,
215600,1857.5,11.3,239.2,45.0,3611.0,11647.0,2.0,0,
215700,1856.4,11.0,239.2,35.8,3611.0,11647.0,2.0,0,
215800,1858.8,10.1,239.2,36.7,3611.0,11647.0,2.0,0,
215900,1860.3,8.7,239.2,92.2,3611.0,11647.0,2.0,0,
216000,1860.5,7.9,239.2,116.2,3611.0,11647.0,2.0,0,
216100,1860.7,9.1,239.2,200.2,3611.0,11647.0,2.0,0,
216200,1860.6,9.1,239.2,233.7,3611.0,11647.0,2.0,0,
216300,1860.1,9.2,239.2,178.2,3611.0,11647.0,2.0,0,
216400,1852.2,251.2,240.0,56.7,3998.0,18072.0,2.0,0,
216600,1822.9,402.2,241.6,39.7,3274.0,13855.0,3.0,1,
216700,1860.6,268.5,239.1,78.3,3213.0,13274.0,3.0,1,
216800,1879.2,253.4,228.2,94.6,3073.0,13346.0,3.0,1,
216900,1871.1,282.1,222.6,103.5,3289.0,12374.0,3.0,1,
217000,1871.7,51.4,221.7,158.1,3534.0,11692.0,2.0,0,
217100,1862.0,14.2,221.7,125.8,3534.0,11692.0,2.0,0,
217200,1855.8,11.6,221.8,66.9,3534.0,11692.0,2.0,0,
217300,1856.5,12.4,221.8,37.0,3534.0,11692.0,2.0,0,
217400,1858.8,12.1,221.8,35.9,3534.0,11692.0,2.0,0,
217600,1860.8,13.1,221.8,217.3,3534.0,11692.0,2.0,0,
217700,1860.7,12.3,221.8,202.6,3534.0,11692.0,2.0,0,
217800,1861.2,12.8,221.8,177.8,3534.0,11692.0,2.0,0,
217900,1861.4,12.8,221.7,144.5,3534.0,11692.0,2.0,0,
218000,1937.0,329.7,222.2,82.2,4031.0,18088.0,2.0,0,
218100,1848.6,317.3,229.1,29.3,3731.0,16055.0,2.0,0,
218200,1833.3,357.2,232.7,29.7,3380.0,13077.0,2.0,0,
218300,1881.2,339.0,229.4,35.9,3421.0,12062.0,2.0,0,
218400,1878.3,327.9,235.4,138.3,3200.0,12133.0,2.0,0,
218600,1872.2,73.6,233.8,168.8,3414.0,12101.0,3.0,1,
218700,1837.7,11.5,232.7,157.4,3414.0,12101.0,3.0,1,
218800,1857.2,10.4,232.7,92.7,3414.0,12101.0,3.0,1,
218900,1855.5,9.5,232.7,48.9,3414.0,12101.0,3.0,1,
219000,1858.2,9.9,232.7,89.3,3414.0,12101.0,3.0,1,
219100,1860.1,10.6,232.7,138.3,3414.0,12101.0,3.0,1,
219200,1860.1,9.2,232.7,216.3,3414.0,12101.0,3.0,1,
219300,1860.1,9.6,232.7,177.4,3414.0,12101.0,3.0,1,
219400,1861.2,10.7,232.7,167.9,3414.0,12101.0,3.0,1,
219600,1860.7,387.0,232.7,146.8,4048.0,17055.0,2.0,0,
219700,1860.9,358.7,237.2,29.6,3860.0,15906.0,2.0,0,
219800,1897.3,340.2,232.4,29.6,3462.0,14253.0,3.0,1,
219900,1886.1,346.5,224.8,29.9,3464.0,13353.0,3.0,1,
220000,1879.2,384.6,228.2,77.7,3661.0,12013.0,2.0,0,
220100,1919.5,379.3,230.9,168.9,3547.0,12850.0,3.0,1,
220200,1815.6,239.0,234.3,150.1,2133.0,8674.0,2.0,0,
220300,1871.0,22.3,243.2,138.4,2133.0,8674.0,2.0,0,
220400,1859.3,11.6,243.2,85.7,2133.0,8674.0,2.0,0,
220600,1858.3,11.5,243.2,34.6,2133.0,8674.0,2.0,0,
220700,1859.5,10.9,243.2,34.7,2133.0,8674.0,2.0,0,
220800,1860.3,7.2,243.2,235.1,2133.0,8674.0,2.0,0,
220900,1860.8,4.4,243.2,238.2,2133.0,8674.0,2.0,0,
221000,1860.4,4.8,243.2,122.8,2133.0,8674.0,2.0,0,
221100,1860.5,4.9,243.2,116.6,2133.0,8674.0,2.0,0,
221200,1861.0,61.3,243.1,106.2,2133.0,8674.0,2.0,0,
221300,1854.7,253.0,226.3,217.3,4095.0,17894.0,2.0,0,
221400,1899.0,274.6,233.4,201.0,3560.0,15368.0,2.0,0,
221600,1937.8,343.4,234.8,105.9,3236.0,13493.0,2.0,0,
221700,1804.5,376.1,233.6,123.4,3527.0,13498.0,2.0,0,
221800,1863.2,379.7,240.9,170.5,3441.0,12171.0,2.0,0,
221900,1888.0,27.7,234.5,158.6,3217.0,12359.0,3.0,1,
222000,1860.4,10.7,234.5,76.8,3217.0,12359.0,3.0,1,
222100,1856.9,7.3,234.5,35.4,3217.0,12359.0,3.0,1,
222200,1858.1,7.3,234.4,34.5,3217.0,12359.0,3.0,1,
222300,1859.2,5.8,234.4,36.0,3217.0,12359.0,3.0,1,
222400,1860.3,6.8,234.4,74.6,3217.0,12359.0,3.0,1,
222600,1861.0,6.0,234.4,100.2,3217.0,12359.0,3.0,1,
222700,1860.9,5.5,234.4,172.7,3217.0,12359.0,3.0,1,
222800,1860.8,5.9,234.4,177.2,3217.0,12359.0,3.0,1,
222900,1849.1,277.3,235.7,98.9,4095.0,18637.0,2.0,0,
223000,1893.3,351.6,236.1,76.3,3647.0,14525.0,2.0,0,
223100,1946.8,362.8,235.2,70.0,3790.0,12995.0,2.0,0,
223200,1828.9,441.5,236.7,66.6,3788.0,12527.0,2.0,0,
223300,1854.4,473.7,240.8,93.1,3691.0,11808.0,2.0,0,
223400,1881.5,387.6,245.5,159.0,3629.0,13065.0,3.0,1,
223600,1865.8,7.4,244.4,94.4,3629.0,13065.0,3.0,1,
223700,1859.3,8.1,244.3,37.0,3629.0,13065.0,3.0,1,
223800,1857.5,7.1,244.3,34.4,3629.0,13065.0,3.0,1,
223900,1858.9,6.8,244.3,34.3,3629.0,13065.0,3.0,1,
224000,1859.3,6.4,244.4,116.2,3629.0,13065.0,3.0,1,
224100,1860.5,5.2,244.4,174.1,3629.0,13065.0,3.0,1,
224200,1861.1,2.5,244.4,147.9,3629.0,13065.0,3.0,1,
224300,1860.7,4.8,244.3,116.2,3629.0,13065.0,3.0,1,
224400,1861.2,6.2,244.3,100.6,3629.0,13065.0,3.0,1,
224600,1909.3,306.0,249.4,82.5,4029.0,17140.0,2.0,0,
224700,1910.2,369.2,244.4,44.1,3374.0,13867.0,3.0,1,
224800,1812.9,310.7,244.7,40.6,3542.0,13843.0,3.0,1,
224900,1879.8,287.9,237.7,74.3,3417.0,13943.0,3.0,1,
225000,1879.6,302.1,229.6,158.4,3471.0,13246.0,2.0,0,
225100,1890.2,119.5,231.3,211.5,3474.0,11810.0,2.0,0,
225200,1855.2,9.9,233.6,167.5,3474.0,11810.0,2.0,0,
225300,1858.8,8.1,233.6,40.0,3474.0,11810.0,2.0,0,
225400,1856.8,5.3,233.6,35.0,3474.0,11810.0,2.0,0,
225600,1859.0,4.4,233.6,35.6,3474.0,11810.0,2.0,0,
225700,1860.2,4.6,233.6,117.9,3474.0,11810.0,2.0,0,
225800,1860.7,5.5,233.6,102.4,3474.0,11810.0,2.0,0,
225900,1860.6,6.6,233.6,114.2,3474.0,11810.0,2.0,0,
226000,1861.0,6.8,233.7,133.0,3474.0,11810.0,2.0,0,
226100,1860.7,178.8,233.7,177.4,4015.0,18303.0,2.0,0,
226200,1953.7,325.8,231.1,88.5,4049.0,17013.0,2.0,0,
226300,1799.8,348.9,236.3,91.6,3377.0,14075.0,2.0,0,
226400,1871.7,405.6,233.8,72.0,3521.0,12465.0,2.0,0,
226600,1883.3,358.3,240.5,94.1,3664.0,12687.0,2.0,0,
226700,1938.1,268.6,236.1,92.9,3592.0,11899.0,2.0,0,
226800,1816.7,16.8,236.7,93.8,3592.0,11899.0,2.0,0,
226900,1859.3,8.1,236.8,45.3,3592.0,11899.0,2.0,0,
227000,1854.8,6.2,236.8,35.8,3592.0,11899.0,2.0,0,
227100,1857.0,5.3,236.8,35.2,3592.0,11899.0,2.0,0,
227200,1859.8,3.5,236.8,34.9,3592.0,11899.0,2.0,0,
227300,1860.5,3.7,236.8,93.3,3592.0,11899.0,2.0,0,
227400,1860.8,5.3,236.8,101.6,3592.0,11899.0,2.0,0,
227600,1860.6,5.5,236.8,102.3,3592.0,11899.0,2.0,0,
227700,1861.0,108.8,236.8,108.1,3592.0,11899.0,2.0,0,
227800,1868.8,349.7,239.3,55.5,4045.0,18561.0,2.0,0,
227900,1867.0,353.1,231.8,44.4,3730.0,15710.0,2.0,0,
228000,1897.7,378.2,224.1,86.2,3509.0,13648.0,3.0,1,
228100,1870.2,370.8,224.8,106.0,3688.0,11935.0,2.0,0,
228200,1940.2,428.5,233.2,158.3,3605.0,11189.0,2.0,0,
228300,1831.8,508.8,239.6,135.2,2052.0,9184.0,2.0,0,
228400,1860.5,36.1,247.7,136.3,3506.0,11153.0,2.0,0,
228600,1857.1,5.5,247.7,35.7,3506.0,11153.0,2.0,0,
228700,1857.8,4.3,247.7,35.0,3506.0,11153.0,2.0,0,
228800,1858.7,4.2,247.7,34.6,3506.0,11153.0,2.0,0,
228900,1860.2,3.3,247.7,86.9,3506.0,11153.0,2.0,0,
229000,1860.5,3.8,247.7,101.8,3506.0,11153.0,2.0,0,
229100,1860.4,5.7,247.7,100.2,3506.0,11153.0,2.0,0,
229200,1861.1,9.2,247.7,98.6,3506.0,11153.0,2.0,0,
229300,1861.4,8.6,247.7,98.8,3506.0,11153.0,2.0,0,
229400,1845.6,264.0,249.4,36.4,3997.0,18068.0,2.0,0,
229600,1897.5,272.3,257.1,30.1,3604.0,13989.0,3.0,1,
229700,1903.3,378.7,255.2,39.1,3136.0,12780.0,3.0,1,
229800,1884.2,476.8,255.9,105.1,1898.0,9578.0,2.0,0,
229900,1834.5,451.3,259.7,135.8,1636.0,8733.0,2.0,0,
230000,1872.0,68.9,255.5,93.6,2123.0,7890.0,2.0,0,
230100,1869.6,12.0,255.4,88.4,2123.0,7890.0,2.0,0,
230200,1857.1,8.6,255.5,41.9,2123.0,7890.0,2.0,0,
230300,1857.4,8.0,255.5,36.0,2123.0,7890.0,2.0,0,
230400,1858.6,9.2,255.5,37.2,2123.0,7890.0,2.0,0,
230600,1860.0,8.4,255.5,101.0,2123.0,7890.0,2.0,0,
230700,1860.7,9.0,255.5,101.6,2123.0,7890.0,2.0,0,
230800,1861.3,9.0,255.5,102.1,2123.0,7890.0,2.0,0,
230900,1861.0,8.2,255.5,101.4,2123.0,7890.0,2.0,0,
231000,1860.7,308.3,255.5,100.3,3971.0,17422.0,2.0,0,
231100,1872.9,324.5,256.6,29.5,4024.0,15876.0,2.0,0,
231200,1908.0,350.6,254.7,30.2,3421.0,13282.0,2.0,0,
231300,1928.2,362.1,255.6,37.4,3357.0,12241.0,2.0,0,
231400,1808.5,420.0,249.0,94.0,3520.0,11426.0,2.0,0,
231600,1880.1,158.4,242.2,218.4,2131.0,8336.0,2.0,0,
231700,1864.3,16.2,247.2,148.6,2131.0,8336.0,2.0,0,
231800,1858.0,9.2,247.2,73.5,2131.0,8336.0,2.0,0,
231900,1856.6,9.3,247.2,36.0,2131.0,8336.0,2.0,0,
232000,1858.6,8.9,247.2,35.8,2131.0,8336.0,2.0,0,
232100,1859.3,8.7,247.3,46.0,2131.0,8336.0,2.0,0,
232200,1860.0,9.5,247.3,106.8,2131.0,8336.0,2.0,0,
232300,1860.4,8.4,247.3,116.7,2131.0,8336.0,2.0,0,
232400,1860.3,8.4,247.3,109.5,2131.0,8336.0,2.0,0,
232600,1860.9,273.0,247.3,103.8,2131.0,8336.0,2.0,0,
232700,1867.3,243.5,253.0,29.1,3955.0,17691.0,2.0,0,
232800,1980.3,324.0,246.5,29.6,3648.0,15471.0,3.0,1,
232900,1810.1,443.3,241.9,30.0,3559.0,13721.0,3.0,1,
233000,1861.4,434.2,248.2,87.6,3387.0,12793.0,3.0,1,
233100,1878.4,399.6,249.9,169.1,3142.0,13055.0,3.0,1,
233200,1873.6,328.8,247.9,158.1,1936.0,7833.0,2.0,0,
233300,1870.5,23.7,248.2,157.7,1936.0,7833.0,2.0,0,
233400,1859.6,16.8,248.2,75.9,1936.0,7833.0,2.0,0,
233600,1857.5,9.0,248.3,36.0,1936.0,7833.0,2.0,0,
233700,1858.3,9.4,248.3,73.2,1936.0,7833.0,2.0,0,
233800,1859.5,8.9,248.3,152.0,1936.0,7833.0,2.0,0,
233900,1860.1,8.0,248.3,115.7,1936.0,7833.0,2.0,0,
234000,1860.9,9.3,248.3,112.1,1936.0,7833.0,2.0,0,
234100,1860.8,8.3,248.3,83.3,1936.0,7833.0,2.0,0,
234200,1860.1,31.8,248.3,70.4,1936.0,7833.0,2.0,0,
234300,1929.8,310.0,249.2,43.3,4047.0,18475.0,2.0,0,
234400,1870.7,455.9,252.2,35.1,3673.0,16647.0,3.0,1,
234600,1879.3,330.9,261.0,52.0,3377.0,12361.0,2.0,0,
234700,1876.7,406.5,263.3,94.5,1804.0,8692.0,28.0,0,
234800,1898.2,413.4,267.0,136.3,1596.0,8644.0,2.0,0,
234900,1855.2,45.6,266.5,124.4,1826.0,7750.0,2.0,0,
235000,1860.7,11.7,266.5,92.9,1826.0,7750.0,2.0,0,
235100,1856.5,9.2,266.4,35.9,1826.0,7750.0,2.0,0,
235200,1858.1,10.2,266.4,34.7,1826.0,7750.0,2.0,0,
235300,1859.2,8.8,266.4,34.3,1826.0,7750.0,2.0,0,
235400,1858.9,9.0,266.4,100.1,1826.0,7750.0,2.0,0,
235600,1860.6,8.6,266.4,116.9,1826.0,7750.0,2.0,0,
235700,1860.0,8.7,266.4,116.3,1826.0,7750.0,2.0,0,
235800,1860.7,9.8,266.4,100.4,1826.0,7750.0,2.0,0,
235900,1937.9,347.9,259.2,102.5,4079.0,17333.0,2.0,0,
236000,1794.5,398.1,263.3,70.7,3760.0,15381.0,2.0,0,
236100,1893.8,379.0,256.9,52.9,3540.0,12657.0,2.0,0,
236200,1883.0,378.8,259.8,66.0,2527.0,9577.0,2.0,0,
236300,1874.2,333.0,260.0,93.4,2520.0,8971.0,2.0,0,
236400,1920.3,380.6,246.1,137.4,2378.0,8691.0,2.0,0,
236600,1867.0,11.6,240.6,188.7,2378.0,8691.0,2.0,0,
236700,1858.9,10.6,240.5,51.8,2378.0,8691.0,2.0,0,
236800,1857.8,10.1,240.5,34.7,2378.0,8691.0,2.0,0,
236900,1857.8,9.2,240.5,30.2,2378.0,8691.0,2.0,0,
237000,1859.1,10.1,240.5,40.5,2378.0,8691.0,2.0,0,
237100,1860.0,8.5,240.5,102.8,2378.0,8691.0,2.0,0,
237200,1860.0,8.9,240.5,113.9,2378.0,8691.0,2.0,0,
237300,1860.3,9.4,240.5,116.9,2378.0,8691.0,2.0,0,
237400,1860.5,8.7,240.5,102.3,2378.0,8691.0,2.0,0,
237600,1861.9,371.1,239.0,99.7,3862.0,16799.0,2.0,0,
237700,1903.4,336.6,235.1,55.6,3339.0,14251.0,3.0,1,
237800,1870.1,357.1,234.6,53.6,3535.0,11824.0,2.0,0,
237900,1938.7,462.5,232.6,114.6,2209.0,8684.0,2.0,0,
238000,1819.8,479.0,245.4,158.8,2017.0,9192.0,2.0,0,
238100,1860.6,190.1,252.8,150.6,1789.0,7738.0,2.0,0,
238200,1875.7,19.9,255.2,124.6,1789.0,7738.0,2.0,0,
238300,1859.1,10.7,255.3,39.6,1789.0,7738.0,2.0,0,
238400,1856.4,9.7,255.3,34.7,1789.0,7738.0,2.0,0,
238600,1859.3,8.7,255.3,36.9,1789.0,7738.0,2.0,0,
238700,1859.9,9.1,255.3,116.9,1789.0,7738.0,2.0,0,
238800,1860.3,9.9,255.3,130.3,1789.0,7738.0,2.0,0,
238900,1860.3,8.2,255.3,117.1,1789.0,7738.0,2.0,0,
239000,1860.6,9.2,255.2,113.8,1789.0,7738.0,2.0,0,
239100,1860.7,55.0,255.2,103.5,1789.0,7738.0,2.0,0,
239200,1859.0,258.0,246.9,93.6,4076.0,17833.0,2.0,0,
239300,1897.8,293.6,250.4,86.8,3315.0,14246.0,3.0,1,
239400,1928.7,354.2,255.3,76.2,3345.0,13689.0,3.0,1,
239600,1845.7,493.8,249.5,88.8,3463.0,12193.0,2.0,0,
239700,1876.9,387.4,252.7,152.9,2464.0,8979.0,2.0,0,
239800,1886.1,27.3,254.9,167.3,3033.0,11107.0,2.0,0,
239900,1858.5,11.3,254.9,93.2,3033.0,11107.0,2.0,0,
240000,1856.2,10.6,254.9,36.1,3033.0,11107.0,2.0,0,
240100,1857.6,9.1,255.0,35.2,3033.0,11107.0,2.0,0,
240200,1859.1,9.3,254.9,35.9,3033.0,11107.0,2.0,0,
240300,1859.5,9.4,254.9,132.7,3033.0,11107.0,2.0,0,
240400,1860.4,9.1,255.0,138.7,3033.0,11107.0,2.0,0,
240600,1860.8,9.6,254.9,113.8,3033.0,11107.0,2.0,0,
240700,1860.5,9.1,254.9,100.6,3033.0,11107.0,2.0,0,
240800,1849.1,286.8,254.7,89.9,4080.0,18934.0,2.0,0,
240900,1917.0,372.6,255.0,83.4,3404.0,13672.0,2.0,0,
241000,1908.0,396.4,255.6,69.3,3518.0,12086.0,2.0,0,
241100,1815.4,451.8,254.9,55.4,3668.0,12262.0,2.0,0,
241200,1880.5,473.7,255.7,91.1,2369.0,9300.0,2.0,0,
241300,1880.8,392.2,257.2,158.8,2108.0,9193.0,2.0,0,
241400,1873.7,52.7,256.8,156.2,3267.0,11715.0,2.0,0,
241600,1856.8,9.8,256.7,36.5,3267.0,11715.0,2.0,0,
241700,1857.4,10.0,256.7,35.4,3267.0,11715.0,2.0,0,
241800,1858.7,9.2,256.7,35.5,3267.0,11715.0,2.0,0,
241900,1859.4,8.8,256.7,101.3,3267.0,11715.0,2.0,0,
242000,1859.7,9.5,256.7,114.2,3267.0,11715.0,2.0,0,
242100,1860.6,8.8,256.7,117.7,3267.0,11715.0,2.0,0,
242200,1860.4,8.7,256.7,123.4,3267.0,11715.0,2.0,0,
242300,1859.9,9.2,256.8,117.7,3267.0,11715.0,2.0,0,
242400,1860.1,237.0,257.1,220.8,4078.0,18627.0,2.0,0,
242600,1798.3,298.0,254.0,144.7,3527.0,13677.0,3.0,1,
242700,1873.8,300.1,250.8,134.1,3371.0,13991.0,3.0,1,
242800,1880.3,303.7,247.5,104.7,3411.0,13399.0,2.0,0,
242900,1872.8,365.6,243.0,158.7,3172.0,13354.0,3.0,1,
243000,1937.3,111.0,242.2,170.2,3471.0,11409.0,2.0,0,
243100,1807.7,13.9,244.3,105.9,3471.0,11409.0,2.0,0,
243200,1858.7,10.3,244.3,43.1,3471.0,11409.0,2.0,0,
243300,1856.8,9.5,244.3,35.5,3471.0,11409.0,2.0,0,
243400,1859.1,8.7,244.3,35.2,3471.0,11409.0,2.0,0,
243600,1860.0,8.9,244.3,115.5,3471.0,11409.0,2.0,0,
243700,1861.1,8.7,244.2,122.3,3471.0,11409.0,2.0,0,
243800,1860.6,9.0,244.2,102.3,3471.0,11409.0,2.0,0,
243900,1861.0,8.9,244.2,100.9,3471.0,11409.0,2.0,0,
244000,1861.1,207.6,244.2,107.0,4027.0,19265.0,2.0,0,
244100,1902.5,343.3,245.1,90.6,3784.0,16014.0,2.0,0,
244200,1845.2,349.4,251.3,94.2,3366.0,13195.0,2.0,0,
244300,1882.1,374.0,252.3,92.8,3729.0,12589.0,2.0,0,
244400,1876.3,331.6,257.9,92.9,3649.0,13158.0,2.0,0,
244600,1837.8,235.8,242.1,157.9,3470.0,11172.0,2.0,0,
244700,1856.3,20.0,244.7,169.5,3470.0,11172.0,2.0,0,
244800,1859.3,10.7,244.7,94.0,3470.0,11172.0,2.0,0,
244900,1856.0,9.0,244.7,37.9,3470.0,11172.0,2.0,0,
245000,1858.3,9.4,244.7,35.6,3470.0,11172.0,2.0,0,
245100,1859.8,8.5,244.7,29.8,3470.0,11172.0,2.0,0,
245200,1860.2,8.4,244.7,100.8,3470.0,11172.0,2.0,0,
245300,1860.3,9.7,244.7,117.8,3470.0,11172.0,2.0,0,
245400,1860.3,9.4,244.7,118.1,3470.0,11172.0,2.0,0,
245600,1860.5,168.3,244.7,124.6,3470.0,11172.0,2.0,0,
245700,1848.2,409.4,247.9,34.8,4045.0,18577.0,2.0,0,
245800,1907.2,364.1,242.8,30.2,3783.0,16407.0,3.0,1,
245900,1893.0,362.4,235.2,35.1,3631.0,14560.0,3.0,1,
246000,1890.4,406.0,238.3,93.6,3506.0,11365.0,2.0,0,
246100,1891.7,453.6,244.9,158.4,2158.0,9022.0,2.0,0,
246200,1829.6,519.4,253.1,124.2,1904.0,9587.0,2.0,0,
246300,1875.6,36.3,256.9,145.6,2224.0,8329.0,2.0,0,
246400,1860.0,11.2,256.9,93.1,2224.0,8329.0,2.0,0,
246600,1857.8,9.0,256.9,35.1,2224.0,8329.0,2.0,0,
246700,1859.9,8.7,256.9,35.8,2224.0,8329.0,2.0,0,
246800,1859.6,9.7,256.9,101.6,2224.0,8329.0,2.0,0,
246900,1860.2,8.7,256.9,102.3,2224.0,8329.0,2.0,0,
247000,1860.8,8.9,256.9,114.5,2224.0,8329.0,2.0,0,
247100,1860.3,9.6,256.9,101.6,2224.0,8329.0,2.0,0,
247200,1860.8,8.8,256.9,100.8,2224.0,8329.0,2.0,0,
247300,1848.1,290.6,259.3,30.0,4047.0,18432.0,2.0,0,
247400,1900.0,284.8,262.7,30.0,3604.0,15736.0,2.0,0,
247600,1926.5,323.7,256.2,74.3,3163.0,13296.0,3.0,1,
247700,1811.7,448.2,251.2,149.9,3297.0,12430.0,2.0,0,
247800,1871.4,443.4,253.7,213.3,2611.0,9714.0,2.0,0,
247900,1878.2,64.0,250.7,170.8,2136.0,8217.0,2.0,0,
248000,1866.0,12.0,250.7,93.3,2136.0,8217.0,2.0,0,
248100,1857.8,9.2,250.6,41.7,2136.0,8217.0,2.0,0,
248200,1857.5,9.3,250.7,36.9,2136.0,8217.0,2.0,0,
248300,1858.6,9.9,250.7,39.8,2136.0,8217.0,2.0,0,
248400,1859.6,8.5,250.7,81.3,2136.0,8217.0,2.0,0,
248600,1860.2,9.9,250.7,102.0,2136.0,8217.0,2.0,0,
248700,1860.4,8.6,250.7,107.5,2136.0,8217.0,2.0,0,
248800,1860.5,9.1,250.7,115.0,2136.0,8217.0,2.0,0,
248900,1860.2,375.9,250.7,116.2,3985.0,16814.0,2.0,0,
249000,1877.1,324.2,255.7,29.5,3983.0,16338.0,2.0,0,
249100,1964.0,345.4,247.2,29.7,3445.0,12948.0,2.0,0,
249200,1816.1,418.9,247.5,30.0,3367.0,11600.0,2.0,0,
249300,1861.5,393.2,252.3,93.3,3587.0,11837.0,2.0,0,
249400,1882.9,411.8,250.7,157.3,2270.0,9249.0,2.0,0,
249600,1874.0,16.2,253.2,136.8,2270.0,9249.0,2.0,0,
249700,1858.6,9.9,253.2,54.0,2270.0,9249.0,2.0,0,
249800,1857.0,9.7,253.2,35.1,2270.0,9249.0,2.0,0,
249900,1858.3,8.7,253.2,34.9,2270.0,9249.0,2.0,0,
250000,1859.3,9.1,253.2,48.4,2270.0,9249.0,2.0,0,
250100,1859.7,9.7,253.2,99.2,2270.0,9249.0,2.0,0,
250200,1860.3,8.7,253.2,116.2,2270.0,9249.0,2.0,0,
250300,1860.3,9.1,253.2,117.7,2270.0,9249.0,2.0,0,
250400,1860.4,9.8,253.2,101.4,2270.0,9249.0,2.0,0,
250600,1929.9,317.8,248.7,76.6,4003.0,17385.0,2.0,0,
250700,1875.1,417.0,252.0,57.4,3655.0,14738.0,3.0,1,
250800,1825.6,315.0,258.2,52.3,3558.0,14157.0,3.0,1,
250900,1881.5,450.5,254.6,75.2,3516.0,13905.0,2.0,0,
251000,1873.7,338.5,264.0,94.4,3253.0,13309.0,3.0,1,
251100,1897.9,267.0,262.2,159.1,3061.0,11921.0,2.0,0,
251200,1851.7,21.6,259.0,135.2,3061.0,11921.0,2.0,0,
251300,1858.7,10.4,259.0,80.1,3061.0,11921.0,2.0,0,
251400,1856.7,9.0,259.0,36.1,3061.0,11921.0,2.0,0,
251600,1859.3,9.5,259.0,29.7,3061.0,11921.0,2.0,0,
251700,1860.2,8.4,259.0,116.6,3061.0,11921.0,2.0,0,
251800,1860.2,8.8,259.0,117.6,3061.0,11921.0,2.0,0,
251900,1860.0,9.9,259.0,122.1,3061.0,11921.0,2.0,0,
252000,1860.3,8.6,259.0,116.6,3061.0,11921.0,2.0,0,
252100,1860.3,11.6,259.0,107.8,3061.0,11921.0,2.0,0,
252200,1939.0,276.3,251.8,93.8,4060.0,18183.0,2.0,0,
252300,1801.0,344.6,249.5,88.7,3493.0,14683.0,2.0,0,
252400,1883.7,370.8,251.2,88.9,3581.0,13251.0,2.0,0,
252600,1886.7,373.7,244.8,93.0,3550.0,12516.0,2.0,0,
252700,1919.4,459.8,244.8,158.5,2423.0,9291.0,2.0,0,
252800,1828.3,40.8,251.9,159.1,3166.0,11710.0,2.0,0,
252900,1859.8,11.2,251.9,83.5,3166.0,11710.0,2.0,0,
253000,1856.7,9.1,251.9,36.0,3166.0,11710.0,2.0,0,
253100,1858.2,9.4,251.9,35.2,3166.0,11710.0,2.0,0,
253200,1859.4,8.1,251.9,35.1,3166.0,11710.0,2.0,0,
253300,1859.7,9.2,251.9,100.6,3166.0,11710.0,2.0,0,
253400,1860.1,9.5,251.9,100.2,3166.0,11710.0,2.0,0,
253600,1860.5,8.9,251.9,100.5,3166.0,11710.0,2.0,0,
253700,1860.1,9.2,251.9,102.3,3166.0,11710.0,2.0,0,
253800,1865.9,341.1,249.5,112.0,4047.0,18427.0,2.0,0,
253900,1864.3,461.4,254.2,87.2,3601.0,14102.0,2.0,0,
254000,1893.8,349.6,261.0,74.4,3520.0,13523.0,3.0,1,
254100,1869.9,272.5,259.0,66.4,3705.0,13219.0,3.0,1,
254200,1943.7,370.5,257.4,74.1,3548.0,12710.0,3.0,1,
254300,1814.3,486.5,254.8,136.4,3318.0,12857.0,3.0,1,
254400,1864.4,76.9,249.8,169.4,3407.0,11734.0,2.0,0,
254600,1857.2,10.3,249.7,35.4,3407.0,11734.0,2.0,0,
254700,1858.3,8.4,249.7,34.4,3407.0,11734.0,2.0,0,
254800,1858.9,9.0,249.7,30.2,3407.0,11734.0,2.0,0,
254900,1859.9,8.9,249.7,43.8,3407.0,11734.0,2.0,0,
255000,1860.1,8.3,249.7,102.5,3407.0,11734.0,2.0,0,
255100,1859.9,8.9,249.7,107.7,3407.0,11734.0,2.0,0,
255200,1859.8,9.4,249.7,117.0,3407.0,11734.0,2.0,0,
255300,1860.9,8.3,249.7,116.3,3407.0,11734.0,2.0,0,
255400,1860.6,227.2,249.7,113.7,4015.0,19223.0,2.0,0,
255600,1893.6,300.4,246.6,100.8,3354.0,13630.0,3.0,1,
255700,1925.5,354.2,240.8,94.0,3226.0,13825.0,2.0,0,
255800,1845.5,396.2,244.2,101.6,3459.0,13003.0,2.0,0,
255900,1844.6,384.2,242.0,169.1,3544.0,12328.0,2.0,0,
256000,1878.5,161.0,236.4,159.2,3463.0,11344.0,2.0,0,
256100,1875.3,16.3,238.8,170.3,3463.0,11344.0,2.0,0,
256200,1858.5,9.5,238.8,94.2,3463.0,11344.0,2.0,0,
256300,1857.6,8.7,238.8,38.2,3463.0,11344.0,2.0,0,
256400,1858.4,9.2,238.8,35.7,3463.0,11344.0,2.0,0,
256600,1860.0,8.6,238.8,101.8,3463.0,11344.0,2.0,0,
