Time(ms),Raw_ADC
0,1859
1,1856
2,1857
3,1858
4,1865
5,1857
6,1856
7,1857
8,1859
9,1858
10,1860
11,1861
12,1860
13,1861
14,1865
15,1863
16,1861
17,1859
18,1861
19,1860
20,1862
21,1861
22,1861
23,1861
24,1862
25,1866
26,1861
27,1861
28,1858
29,1866
30,1865
31,1855
32,1854
33,1856
34,1856
35,1856
36,1858
37,1859
38,1858
39,1861
40,1858
41,1861
42,1863
43,1861
44,1859
45,1861
46,1861
47,1861
48,1861
49,1863
50,1859
51,1863
52,1859
53,1863
54,1862
55,1865
56,1859
57,1859
58,1856
59,1861
60,1856
61,1856
62,1856
63,1856
64,1859
65,1859
66,1858
67,1857
68,1861
69,1858
70,1859
71,1862
72,1859
73,1861
74,1858
75,1861
76,1862
77,1861
78,1861
79,1861
80,1861
81,1861
82,1860
83,1861
84,1863
85,1863
86,1862
87,1859
88,1859
89,1856
90,1856
91,1856
92,1857
93,1857
94,1858
95,1858
96,1858
97,1858
98,1861
99,1862
100,1863
101,1863
102,1862
103,1869
104,1857
105,1862
106,1857
107,1857
108,1861
109,1862
110,1861
111,1859
112,1862
113,1859
114,1860
115,1862
116,1861
117,1858
118,1858
119,1866
120,1866
121,1859
122,1862
123,1857
124,1849
125,1850
126,1854
127,1856
128,1855
129,1858
130,1857
131,1858
132,1858
133,1858
134,1859
135,1859
136,1859
137,1860
138,1863
139,1859
140,1862
141,1860
142,1861
143,1862
144,1862
145,1863
146,1863
147,1862
148,1859
149,1857
150,1857
151,1856
152,1856
153,1858
154,1860
155,1859
156,1859
157,1860
158,1860
159,1862
160,1861
161,1862
162,1862
163,1860
164,1862
165,1862
166,1861
167,1863
168,1863
169,1863
170,1860
171,1862
172,1861
173,1862
174,1863
175,1865
176,1862
177,1862
178,1858
179,1859
180,1856
181,1858
182,1859
183,1859
184,1859
185,1858
186,1859
187,1863
188,1859
189,1859
190,1859
191,1860
192,1861
193,1860
194,1863
195,1862
196,1862
197,1859
198,1862
199,1863
200,1862
201,1861
202,1862
203,1867
204,1859
205,1858
206,1857
207,1858
208,1857
209,1867
210,1866
211,1865
212,1855
213,1851
214,1852
215,1855
216,1856
217,1856
218,1856
219,1856
220,1861
221,1859
222,1859
223,1861
224,1861
225,1861
226,1866
227,1862
228,1863
229,1863
230,1861
231,1861
232,1860
233,1862
234,1861
235,1861
236,1862
237,1862
238,1861
239,1861
240,1857
241,1857
242,1857
243,1857
244,1858
245,1859
246,1861
247,1862
248,1859
249,1860
250,1859
251,1859
252,1862
253,1862
254,1862
255,1862
256,1863
257,1862
258,1862
259,1861
260,1865
261,1861
262,1859
263,1905
264,1883
265,1841
266,1841
267,1842
268,1842
269,1843
270,1845
271,1847
272,1847
273,1851
274,1853
275,1855
276,1855
277,1856
278,1857
279,1856
280,1856
281,1859
282,1859
283,1861
284,1860
285,1860
286,1859
287,1859
288,1863
289,1860
290,1862
291,1861
292,1862
293,1862
294,1862
295,1956
296,1843
297,1840
298,1841
299,1843
300,1845
301,1845
302,1848
303,1847
304,1854
305,1854
306,1851
307,1856
308,1856
309,1856
310,1858
311,1856
312,1858
313,1858
314,1859
315,1860
316,1861
317,1862
318,1859
319,1862
320,1861
321,1862
322,1859
323,1872
324,1861
325,1866
326,2143
327,1847
328,1840
329,1846
330,1849
331,1852
332,1840
333,1840
334,1842
335,1846
336,1847
337,1853
338,1856
339,1854
340,1856
341,1856
342,1858
343,1856
344,1857
345,1858
346,1860
347,1862
348,1861
349,1862
350,1859
351,1861
352,1858
353,1861
354,1860
355,1864
356,1859
357,2000
358,1869
359,1838
360,1835
361,1839
362,1840
363,1842
364,1847
365,1847
366,1849
367,1853
368,1854
369,1856
370,1855
371,1858
372,1858
373,1857
374,1857
375,1857
376,1860
377,1862
378,1858
379,1859
380,1859
381,1861
382,1862
383,1859
384,1863
385,1863
386,1862
387,1861
388,1857
389,1968
390,1833
391,1831
392,1837
393,1840
394,1843
395,1845
396,1850
397,1851
398,1853
399,1854
400,1856
401,1857
402,1856
403,1859
404,1856
405,1857
406,1857
407,1857
408,1857
409,1857
410,1858
411,1861
412,1858
413,1861
414,1861
415,1859
416,1859
417,1859
418,1859
419,1867
420,2291
421,1846
422,1818
423,1818
424,1825
425,1833
426,1839
427,1840
428,1842
429,1846
430,1847
431,1851
432,1853
433,1854
434,1854
435,1856
436,1860
437,1857
438,1856
439,1858
440,1861
441,1857
442,1857
443,1859
444,1862
445,1863
446,1860
447,1860
448,1860
449,1859
450,1855
451,2169
452,1878
453,1811
454,1815
455,1821
456,1829
457,1837
458,1840
459,1842
460,1846
461,1849
462,1847
463,1853
464,1851
465,1854
466,1856
467,1858
468,1857
469,1859
470,1859
471,1859
472,1857
473,1856
474,1857
475,1862
476,1861
477,1861
478,1859
479,1856
480,1857
481,1857
482,1857
483,1990
484,1823
485,1823
486,1828
487,1836
488,1838
489,1841
490,1846
491,1847
492,1849
493,1849
494,1850
495,1855
496,1855
497,1856
498,1856
499,1857
500,1862
501,1858
502,1858
503,1862
504,1859
505,1861
506,1857
507,1856
508,1857
509,1865
510,1859
511,1862
512,1852
513,1850
514,2224
515,1825
516,1814
517,1821
518,1830
519,1837
520,1840
521,1841
522,1843
523,1847
524,1849
525,1854
526,1854
527,1855
528,1856
529,1856
530,1857
531,1857
532,1857
533,1859
534,1859
535,1862
536,1862
537,1859
538,1858
539,1859
540,1855
541,1856
542,1856
543,1857
544,1856
545,2287
546,1858
547,1823
548,1826
549,1835
550,1837
551,1840
552,1843
553,1845
554,1847
555,1851
556,1854
557,1855
558,1855
559,1856
560,1856
561,1856
562,1859
563,1860
564,1858
565,1861
566,1859
567,1858
568,1858
569,1856
570,1856
571,1856
572,1858
573,1858
574,1858
575,1860
576,1927
577,1919
578,1825
579,1829
580,1834
581,1838
582,1840
583,1841
584,1845
585,1847
586,1850
587,1854
588,1854
589,1855
590,1856
591,1856
592,1856
593,1858
594,1858
595,1861
596,1859
597,1856
598,1856
599,1858
600,1858
601,1857
602,1857
603,1858
604,1858
605,1858
606,1858
607,1858
608,2047
609,1825
610,1824
611,1830
612,1835
613,1839
614,1840
615,1844
616,1847
617,1856
618,1844
619,1854
620,1850
621,1855
622,1854
623,1853
624,1855
625,1854
626,1853
627,1855
628,1856
629,1865
630,1857
631,1859
632,1851
633,1845
634,1850
635,1854
636,1855
637,1855
638,1856
639,2314
640,1840
641,1819
642,1827
643,1833
644,1836
645,1840
646,1842
647,1844
648,1850
649,1853
650,1853
651,1855
652,1853
653,1856
654,1857
655,1861
656,1857
657,1856
658,1857
659,1858
660,1856
661,1855
662,1856
663,1856
664,1859
665,1859
666,1859
667,1861
668,1857
669,1858
670,2129
671,1875
672,1823
673,1826
674,1834
675,1838
676,1839
677,1841
678,1847
679,1849
680,1852
681,1853
682,1855
683,1855
684,1857
685,1858
686,1856
687,1857
688,1856
689,1855
690,1855
691,1855
692,1856
693,1858
694,1858
695,1858
696,1858
697,1859
698,1860
699,1861
700,1864
701,1862
702,2007
703,1826
704,1824
705,1831
706,1834
707,1839
708,1840
709,1841
710,1847
711,1847
712,1849
713,1851
714,1853
715,1856
716,1855
717,1855
718,1855
719,1852
720,1851
721,1854
722,1854
723,1856
724,1857
725,1859
726,1858
727,1859
728,1861
729,1859
730,1862
731,1857
732,1858
733,2206
734,1834
735,1823
736,1829
737,1835
738,1840
739,1840
740,1843
741,1849
742,1849
743,1854
744,1854
745,1856
746,1857
747,1856
748,1855
749,1866
750,1858
751,1860
752,1855
753,1849
754,1852
755,1854
756,1854
757,1855
758,1854
759,1857
760,1858
761,1859
762,1861
763,1859
764,2251
765,1865
766,1823
767,1831
768,1835
769,1839
770,1840
771,1842
772,1847
773,1847
774,1850
775,1855
776,1853
777,1855
778,1853
779,1856
780,1853
781,1855
782,1856
783,1856
784,1856
785,1857
786,1859
787,1860
788,1859
789,1858
790,1859
791,1861
792,1860
793,1861
794,1861
795,1935
796,1915
797,1826
798,1830
799,1831
800,1840
801,1843
802,1846
803,1846
804,1849
805,1854
806,1855
807,1854
808,1853
809,1854
810,1850
811,1855
812,1856
813,1854
814,1857
815,1856
816,1856
817,1856
818,1850
819,1857
820,1855
821,1858
822,1857
823,1859
824,1859
825,1858
826,1858
827,2043
828,1831
829,1825
830,1831
831,1839
832,1840
833,1840
834,1843
835,1847
836,1851
837,1855
838,1851
839,1860
840,1855
841,1857
842,1851
843,1849
844,1849
845,1851
846,1855
847,1857
848,1855
849,1856
850,1858
851,1856
852,1858
853,1859
854,1859
855,1859
856,1859
857,1860
858,2325
859,1850
860,1825
861,1830
862,1837
863,1840
864,1842
865,1846
866,1847
867,1851
868,1849
869,1851
870,1847
871,1852
872,1852
873,1853
874,1855
875,1855
876,1857
877,1856
878,1859
879,1860
880,1859
881,1859
882,1859
883,1859
884,1861
885,1858
886,1858
887,1861
888,1861
889,1862
890,1861
891,1861
892,1862
893,1863
894,1861
895,1862
896,1862
897,1859
898,1860
899,1857
900,1859
901,1856
902,1857
903,1860
904,1859
905,1859
906,1859
907,1859
908,1859
909,1857
910,1861
911,1862
912,1859
913,1858
914,1857
915,1861
916,1860
917,1858
918,1856
919,1859
920,1856
921,1858
922,1858
923,1857
924,1857
925,1858
926,1856
927,1857
928,1855
929,1864
930,1862
931,1861
932,1855
933,1847
934,1851
935,1854
936,1854
937,1856
938,1855
939,1859
940,1856
941,1859
942,1862
943,1858
944,1859
945,1862
946,1861
947,1860
948,1859
949,1861
950,1861
951,1862
952,1863
953,1861
954,1862
955,1866
956,1863
957,1862
958,1859
959,1859
960,1856
961,1857
962,1858
963,1857
964,1857
965,1858
966,1859
967,1859
968,1862
969,1861
970,1862
971,1859
972,1863
973,1862
974,1861
975,1862
976,1862
977,1860
978,1861
979,1863
980,1860
981,1863
982,1861
983,1862
984,1862
985,1861
986,1863
987,1862
988,1859
989,1856
990,1857
991,1857
992,1856
993,1858
994,1858
995,1862
996,1859
997,1859
998,1859
999,1859
1000,1863
1001,1863
1002,1861
1003,1860
1004,1862
1005,1865
1006,1860
1007,1857
1008,1861
1009,1860
1010,1857
1011,1861
1012,1861
1013,1861
1014,1858
1015,1861
1016,1860
1017,1858
1018,1856
1019,1856
1020,1854
1021,1857
1022,1856
1023,1856
1024,1857
1025,1859
1026,1861
1027,1859
1028,1861
1029,1862
1030,1859
1031,1863
1032,1861
1033,1860
1034,1861
1035,1858
1036,1862
1037,1861
1038,1861
1039,1861
1040,1861
1041,1862
1042,1863
1043,1862
1044,1861
1045,1867
1046,1862
1047,1859
1048,1859
1049,1869
1050,1861
1051,1862
1052,1855
1053,1851
1054,1853
1055,1855
1056,1856
1057,1858
1058,1856
1059,1858
1060,1859
1061,1858
1062,1859
1063,1859
1064,1859
1065,1862
1066,1861
1067,1861
1068,1862
1069,1863
1070,1863
1071,1861
1072,1863
1073,1861
1074,1861
1075,1860
1076,1863
1077,1859
1078,1862
1079,1860
1080,1856
1081,1857
1082,1856
1083,1857
1084,1859
1085,1861
1086,1862
1087,1861
1088,1862
1089,1861
1090,1861
1091,1859
1092,1862
1093,1862
1094,1862
1095,1861
1096,1862
1097,1863
1098,1864
1099,1862
1100,1863
1101,1867
1102,1863
1103,1863
1104,1865
1105,1863
1106,1859
1107,1861
1108,1857
1109,1856
1110,1856
1111,1856
1112,1856
1113,1858
1114,1857
1115,1859
1116,1859
1117,1858
1118,1844
1119,1861
1120,1855
1121,1858
1122,1858
1123,1858
1124,1856
1125,1858
1126,1859
1127,1860
1128,1859
1129,1863
1130,1859
1131,1862
1132,1862
1133,1859
1134,1863
1135,1862
1136,1862
1137,1857
1138,1858
1139,1867
1140,1863
1141,1865
1142,1855
1143,1851
1144,1854
1145,1854
1146,1856
1147,1856
1148,1859
1149,1856
1150,1859
1151,1862
1152,1862
1153,1859
1154,1862
1155,1859
1156,1859
1157,1862
1158,1860
1159,1861
1160,1863
1161,1861
1162,1861
1163,1861
1164,1860
1165,1863
1166,1862
1167,1862
1168,1859
1169,1858
1170,1856
1171,1856
1172,1856
1173,1856
1174,1858
1175,1860
1176,1861
1177,1858
1178,1862
1179,1861
1180,1862
1181,1860
1182,1862
1183,1861
1184,1862
1185,1862
1186,1863
1187,1861
1188,1861
1189,1859
1190,1861
1191,1863
1192,1862
1193,1859
1194,1862
1195,1863
1196,1861
1197,1858
1198,1858
1199,1858
1200,1856
1201,1860
1202,1859
1203,1859
1204,1857
1205,1860
1206,1858
1207,1857
1208,1859
1209,1859
1210,1859
1211,1859
1212,1858
1213,1858
1214,1861
1215,1858
1216,1857
1217,1859
1218,1856
1219,1862
1220,1856
1221,1858
1222,1858
1223,1856
1224,1857
1225,1856
1226,1856
1227,1856
1228,1855
1229,1865
1230,1859
1231,1859
1232,1853
1233,1849
1234,1851
1235,1853
1236,1855
1237,1858
1238,1858
1239,1855
1240,1859
1241,1858
1242,1858
1243,1860
1244,1859
1245,1859
1246,1862
1247,1859
1248,1862
1249,1860
1250,1859
1251,1863
1252,1862
1253,1860
1254,1862
1255,1863
1256,1861
1257,1859
1258,1859
1259,1859
1260,1856
1261,1857
1262,1857
1263,1860
1264,1858
1265,1860
1266,1859
1267,1858
1268,1862
1269,1861
1270,1861
1271,1858
1272,1862
1273,1859
1274,1861
1275,1865
1276,1861
1277,1861
1278,1863
1279,1865
1280,1865
1281,1861
1282,1862
1283,1860
1284,1861
1285,1862
1286,1861
1287,1863
1288,1862
1289,1859
1290,1856
1291,1858
1292,1858
1293,1860
1294,1860
1295,1859
1296,1859
1297,1859
1298,1861
1299,1862
1300,1862
1301,1863
1302,1861
1303,1863
1304,1861
1305,1863
1306,1859
1307,1864
1308,1861
1309,1859
1310,1863
1311,1861
1312,1859
1313,1861
1314,1861
1315,1861
1316,1860
1317,1858
1318,1856
1319,1856
1320,1855
1321,1856
1322,1857
1323,1858
1324,1858
1325,1858
1326,1860
1327,1861
1328,1859
1329,1859
1330,1859
1331,1861
1332,1863
1333,1862
1334,1862
1335,1862
1336,1861
1337,1861
1338,1859
1339,1860
1340,1861
1341,1861
1342,1862
1343,1861
1344,1859
1345,1862
1346,1863
1347,1861
1348,1859
1349,1868
1350,1862
1351,1867
1352,1856
1353,1854
1354,1855
1355,1855
1356,1856
1357,1858
1358,1857
1359,1856
1360,1857
1361,1858
1362,1859
1363,1859
1364,1859
1365,1861
1366,1857
1367,1859
1368,1863
1369,1862
1370,1860
1371,1862
1372,1862
1373,1862
1374,1861
1375,1862
1376,1863
1377,1860
1378,1861
1379,1859
1380,1856
1381,1856
1382,1861
1383,1858
1384,1857
1385,1860
1386,1861
1387,1858
1388,1862
1389,1861
1390,1862
1391,1862
1392,1862
1393,1861
1394,1861
1395,1862
1396,1860
1397,1861
1398,1861
1399,1861
1400,1859
1401,1863
1402,1862
1403,1862
1404,1862
1405,1867
1406,1862
1407,1860
1408,1861
1409,1856
1410,1855
1411,1856
1412,1856
1413,1857
1414,1861
1415,1857
1416,1859
1417,1858
1418,1855
1419,1862
1420,1855
1421,1859
1422,1856
1423,1857
1424,1859
1425,1858
1426,1861
1427,1863
1428,1858
1429,1862
1430,1861
1431,1860
1432,1859
1433,1863
1434,1861
1435,1866
1436,1862
1437,1859
1438,1859
1439,1866
1440,1866
1441,1862
1442,1856
1443,1851
1444,1851
1445,1854
1446,1855
1447,1856
1448,1857
1449,1861
1450,1857
1451,1858
1452,1860
1453,1862
1454,1861
1455,1860
1456,1860
1457,1858
1458,1860
1459,1861
1460,1861
1461,1860
1462,1862
1463,1861
1464,1863
1465,1865
1466,1862
1467,1862
1468,1859
1469,1859
1470,1857
1471,1856
1472,1858
1473,1858
1474,1859
1475,1859
1476,1859
1477,1859
1478,1860
1479,1860
1480,1861
1481,1861
1482,1863
1483,1861
1484,1859
1485,1862
1486,1861
1487,1858
1488,1863
1489,1861
1490,1862
1491,1859
1492,1861
1493,1861
1494,1862
1495,1862
1496,1861
1497,1862
1498,1859
1499,1859
1500,1857
1501,1859
1502,1858
1503,1857
1504,1859
1505,1861
1506,1859
1507,1858
1508,1861
1509,1858
1510,1859
1511,1859
1512,1859
1513,1858
1514,1859
1515,1861
1516,1861
1517,1862
1518,1855
1519,1861
1520,1856
1521,1859
1522,1857
1523,1858
1524,1856
1525,1857
1526,1856
1527,1857
1528,1858
1529,1861
1530,1862
1531,1858
1532,1854
1533,1849
1534,1851
1535,1855
1536,1855
1537,1856
1538,1856
1539,1856
1540,1858
1541,1858
1542,1857
1543,1858
1544,1861
1545,1862
1546,1859
1547,1861
1548,1858
1549,1860
1550,1861
1551,1862
1552,1861
1553,1861
1554,1859
1555,1863
1556,1863
1557,1861
1558,1859
1559,1857
1560,1856
1561,1857
1562,1859
1563,1862
1564,1862
1565,1861
1566,1859
1567,1857
1568,1859
1569,1861
1570,1861
1571,1861
1572,1862
1573,1861
1574,1862
1575,1863
1576,1863
1577,1862
1578,1862
1579,1860
1580,1861
1581,1862
1582,1862
1583,1862
1584,1861
1585,1863
1586,1862
1587,1858
1588,1860
1589,1858
1590,1856
1591,1859
1592,1856
1593,1859
1594,1858
1595,1859
1596,1858
1597,1863
1598,1859
1599,1863
1600,1863
1601,1863
1602,1861
1603,1862
1604,1863
1605,1861
1606,1863
1607,1863
1608,1863
1609,1861
1610,1861
1611,1860
1612,1857
1613,1862
1614,1861
1615,1862
1616,1861
1617,1857
1618,1858
1619,1856
1620,1856
1621,1856
1622,1855
1623,1857
1624,1859
1625,1858
1626,1858
1627,1859
1628,1859
1629,1863
1630,1862
1631,1861
1632,1862
1633,1861
1634,1863
1635,1863
1636,1859
1637,1862
1638,1861
1639,1860
1640,1861
1641,1861
1642,1861
1643,1863
1644,1861
1645,1866
1646,1861
1647,1859
1648,1858
1649,1869
1650,1862
1651,1854
1652,1856
1653,1855
1654,1857
1655,1857
1656,1858
1657,1862
1658,1861
1659,1860
1660,1863
1661,1863
1662,1861
1663,1862
1664,1861
1665,1861
1666,1860
1667,1863
1668,1859
1669,1861
1670,1863
1671,1863
1672,1861
1673,1863
1674,1863
1675,1866
1676,1863
1677,1861
1678,1861
1679,1866
1680,1866
1681,1854
1682,1855
1683,1855
1684,1856
1685,1858
1686,1858
1687,1859
1688,1859
1689,1857
1690,1859
1691,1861
1692,1859
1693,1861
1694,1858
1695,1861
1696,1861
1697,1863
1698,1863
1699,1861
1700,1863
1701,1863
1702,1862
1703,1863
1704,1863
1705,1863
1706,1865
1707,1861
1708,1859
1709,1858
1710,1855
1711,1858
1712,1857
1713,1858
1714,1857
1715,1857
1716,1859
1717,1859
1718,1858
1719,1864
1720,1855
1721,1859
1722,1857
1723,1858
1724,1858
1725,1859
1726,1859
1727,1858
1728,1859
1729,1860
1730,1863
1731,1861
1732,1859
1733,1863
1734,1860
1735,1865
1736,1862
1737,1858
1738,1858
1739,1869
1740,1859
1741,1863
1742,1858
1743,1853
1744,1855
1745,1856
1746,1855
1747,1858
1748,1858
1749,1857
1750,1858
1751,1859
1752,1861
1753,1859
1754,1862
1755,1860
1756,1859
1757,1859
1758,1861
1759,1862
1760,1859
1761,1860
1762,1860
1763,1860
1764,1863
1765,1865
1766,1863
1767,1859
1768,1860
1769,1858
1770,1855
1771,1856
1772,1857
1773,1858
1774,1861
1775,1858
1776,1859
1777,1859
1778,1859
1779,1861
1780,1860
1781,1862
1782,1863
1783,1861
1784,1863
1785,1861
1786,1861
1787,1862
1788,1857
1789,1862
1790,1863
1791,1863
1792,1861
1793,1861
1794,1861
1795,1861
1796,1863
1797,1860
1798,1858
1799,1857
1800,1858
1801,1858
1802,1858
1803,1858
1804,1859
1805,1860
1806,1860
1807,1859
1808,1857
1809,1862
1810,1862
1811,1861
1812,1859
1813,1858
1814,1861
1815,1860
1816,1858
1817,1859
1818,1860
1819,1857
1820,1860
1821,1860
1822,1858
1823,1857
1824,1856
1825,1857
1826,1858
1827,1856
1828,1855
1829,1863
1830,1859
1831,1863
1832,1855
1833,1850
1834,1851
1835,1854
1836,1855
1837,1856
1838,1858
1839,1856
1840,1856
1841,1859
1842,1861
1843,1861
1844,1859
1845,1861
1846,1861
1847,1861
1848,1861
1849,1861
1850,1862
1851,1861
1852,1861
1853,1862
1854,1862
1855,1866
1856,1861
1857,1859
1858,1861
1859,1862
1860,1856
1861,1857
1862,1857
1863,1859
1864,1861
1865,1859
1866,1861
1867,1859
1868,1859
1869,1862
1870,1857
1871,1860
1872,1861
1873,1862
1874,1859
1875,1863
1876,1862
1877,1863
1878,1859
1879,1863
1880,1863
1881,1863
1882,1866
1883,1863
1884,1863
1885,1866
1886,1861
1887,1862
1888,1859
1889,1859
1890,1894
1891,1893
1892,1833
1893,1834
1894,1840
1895,1841
1896,1843
1897,1846
1898,1850
1899,1962
1900,1904
1901,1842
1902,1840
1903,1841
1904,1842
1905,1846
1906,1850
1907,1850
1908,1853
1909,1854
1910,1854
1911,1856
1912,1856
1913,1855
1914,1856
1915,1858
1916,1857
1917,1855
1918,1855
1919,1859
1920,1854
1921,1855
1922,1973
1923,1835
1924,1831
1925,1836
1926,1840
1927,1840
1928,1845
1929,1848
1930,1875
1931,1900
1932,1862
1933,1846
1934,1843
1935,1847
1936,1853
1937,1851
1938,1854
1939,1856
1940,1855
1941,1856
1942,1856
1943,1856
1944,1858
1945,1862
1946,1858
1947,1858
1948,1858
1949,1862
1950,1866
1951,1863
1952,1856
1953,2189
1954,1840
1955,1825
1956,1833
1957,1837
1958,1839
1959,1842
1960,1851
1961,2010
1962,1924
1963,1834
1964,1818
1965,1823
1966,1833
1967,1837
1968,1838
1969,1841
1970,1843
1971,1845
1972,1849
1973,1853
1974,1853
1975,1856
1976,1856
1977,1856
1978,1856
1979,1856
1980,1854
1981,1855
1982,1855
1983,1856
1984,2111
1985,1871
1986,1826
1987,1831
1988,1835
1989,1840
1990,1841
1991,1856
1992,1991
1993,1938
1994,1826
1995,1818
1996,1826
1997,1833
1998,1836
1999,1839
2000,1843
2001,1846
2002,1850
2003,1850
2004,1853
2005,1856
2006,1856
2007,1854
2008,1854
2009,1854
2010,1853
2011,1855
2012,1856
2013,1856
2014,1856
2015,1856
2016,2002
2017,1826
2018,1822
2019,1831
2020,1831
2021,1837
2022,1840
2023,1841
2024,1916
2025,1873
2026,1839
2027,1840
2028,1840
2029,1842
2030,1845
2031,1851
2032,1853
2033,1855
2034,1855
2035,1856
2036,1857
2037,1856
2038,1856
2039,1862
2040,1861
2041,1862
2042,1856
2043,1847
2044,1851
2045,1852
2046,1853
2047,2369
2048,1831
2049,1808
2050,1812
2051,1824
2052,1829
2053,1835
2054,1840
2055,2027
2056,1885
2057,1817
2058,1820
2059,1827
2060,1833
2061,1839
2062,1840
2063,1843
2064,1844
2065,1851
2066,1851
2067,1853
2068,1854
2069,1852
2070,1854
2071,1851
2072,1856
2073,1854
2074,1854
2075,1856
2076,1856
2077,1857
2078,2297
2079,1904
2080,1798
2081,1803
2082,1810
2083,1818
2084,1825
2085,1835
2086,2117
2087,1883
2088,1793
2089,1804
2090,1810
2091,1819
2092,1826
2093,1831
2094,1837
2095,1840
2096,1841
2097,1843
2098,1844
2099,1846
2100,1847
2101,1850
2102,1853
2103,1853
2104,1854
2105,1856
2106,1856
2107,1857
2108,1857
2109,1857
2110,2079
2111,1808
2112,1805
2113,1811
2114,1819
2115,1825
2116,1833
2117,2081
2118,1936
2119,1801
2120,1795
2121,1809
2122,1815
2123,1820
2124,1827
2125,1833
2126,1837
2127,1840
2128,1840
2129,1852
2130,1853
2131,1850
2132,1846
2133,1841
2134,1842
2135,1847
2136,1851
2137,1851
2138,1856
2139,1856
2140,1857
2141,2341
2142,1818
2143,1802
2144,1808
2145,1813
2146,1823
2147,1831
2148,1995
2149,2000
2150,1806
2151,1804
2152,1809
2153,1818
2154,1826
2155,1834
2156,1836
2157,1840
2158,1840
2159,1840
2160,1840
2161,1845
2162,1849
2163,1850
2164,1855
2165,1853
2166,1856
2167,1856
2168,1859
2169,1856
2170,1859
2171,1857
2172,2481
2173,1856
2174,1804
2175,1808
2176,1817
2177,1822
2178,1831
2179,1840
2180,1993
2181,1826
2182,1822
2183,1825
2184,1831
2185,1839
2186,1840
2187,1842
2188,1845
2189,1845
2190,1844
2191,1846
2192,1851
2193,1852
2194,1855
2195,1855
2196,1855
2197,1855
2198,1857
2199,1858
2200,1859
2201,1858
2202,1861
2203,1984
2204,1947
2205,1808
2206,1808
2207,1818
2208,1822
2209,1830
2210,1836
2211,1996
2212,1839
2213,1823
2214,1826
2215,1835
2216,1840
2217,1840
2218,1840
2219,1841
2220,1840
2221,1843
2222,1846
2223,1847
2224,1851
2225,1855
2226,1855
2227,1856
2228,1856
2229,1856
2230,1857
2231,1859
2232,1858
2233,1858
2234,1858
2235,2175
2236,1813
2237,1808
2238,1813
2239,1823
2240,1829
2241,1834
2242,1997
2243,1850
2244,1825
2245,1831
2246,1837
2247,1840
2248,1840
2249,1853
2250,1851
2251,1852
2252,1845
2253,1841
2254,1844
2255,1849
2256,1848
2257,1853
2258,1854
2259,1853
2260,1856
2261,1856
2262,1856
2263,1857
2264,1859
2265,1858
2266,2416
2267,1837
2268,1808
2269,1811
2270,1820
2271,1826
2272,1834
2273,1883
2274,1877
2275,1834
2276,1835
2277,1837
2278,1840
2279,1841
2280,1840
2281,1845
2282,1847
2283,1847
2284,1853
2285,1853
2286,1854
2287,1856
2288,1856
2289,1860
2290,1859
2291,1860
2292,1859
2293,1861
2294,1859
2295,1859
2296,1861
2297,2253
2298,1889
2299,1809
2300,1818
2301,1823
2302,1830
2303,1837
2304,1874
2305,1921
2306,1829
2307,1828
2308,1834
2309,1834
2310,1834
2311,1840
2312,1841
2313,1843
2314,1846
2315,1850
2316,1853
2317,1853
2318,1854
2319,1856
2320,1851
2321,1854
2322,1855
2323,1856
2324,1856
2325,1857
2326,1857
2327,1859
2328,1860
2329,1991
2330,1817
2331,1817
2332,1821
2333,1827
2334,1838
2335,1855
2336,2001
2337,1829
2338,1819
2339,1837
2340,1837
2341,1840
2342,1837
2343,1831
2344,1840
2345,1840
2346,1843
2347,1847
2348,1849
2349,1853
2350,1851
2351,1855
2352,1855
2353,1857
2354,1856
2355,1858
2356,1857
2357,1860
2358,1859
2359,1859
2360,2226
2361,1835
2362,1820
2363,1825
2364,1831
2365,1840
2366,1840
2367,2063
2368,1842
2369,1813
2370,1814
2371,1824
2372,1830
2373,1834
2374,1838
2375,1842
2376,1841
2377,1846
2378,1850
2379,1852
2380,1855
2381,1853
2382,1855
2383,1855
2384,1856
2385,1857
2386,1857
2387,1858
2388,1860
2389,1861
2390,1858
2391,2359
2392,1853
2393,1820
2394,1824
2395,1831
2396,1836
2397,1840
2398,2039
2399,1873
2400,1811
2401,1815
2402,1824
2403,1831
2404,1834
2405,1839
2406,1840
2407,1844
2408,1844
2409,1847
2410,1847
2411,1850
2412,1855
2413,1854
2414,1856
2415,1856
2416,1856
2417,1856
2418,1858
2419,1858
2420,1853
2421,1856
2422,1998
2423,1904
2424,1815
2425,1820
2426,1824
2427,1829
2428,1834
2429,1936
2430,1969
2431,1822
2432,1814
2433,1814
2434,1819
2435,1829
2436,1835
2437,1840
2438,1841
2439,1847
2440,1847
2441,1853
2442,1852
2443,1854
2444,1855
2445,1855
2446,1855
2447,1858
2448,1856
2449,1858
2450,1858
2451,1859
2452,1858
2453,1861
2454,2076
2455,1831
2456,1824
2457,1829
2458,1831
2459,1837
2460,1889
2461,2014
2462,1823
2463,1813
2464,1821
2465,1827
2466,1834
2467,1838
2468,1840
2469,1843
2470,1845
2471,1845
2472,1850
2473,1853
2474,1855
2475,1854
2476,1856
2477,1857
2478,1859
2479,1856
2480,1856
2481,1858
2482,1860
2483,1859
2484,1859
2485,2321
2486,1844
2487,1821
2488,1824
2489,1829
2490,1833
2491,1856
2492,2071
2493,1842
2494,1808
2495,1811
2496,1820
2497,1826
2498,1833
2499,1840
2500,1842
2501,1842
2502,1847
2503,1851
2504,1853
2505,1853
2506,1851
2507,1854
2508,1854
2509,1855
2510,1856
2511,1857
2512,1857
2513,1859
2514,1857
2515,1863
2516,1857
2517,1860
2518,1857
2519,1856
2520,1854
2521,1855
2522,1857
2523,1856
2524,1856
2525,1857
2526,1859
2527,1860
2528,1858
2529,1861
2530,1861
2531,1859
2532,1862
2533,1861
2534,1862
2535,1859
2536,1863
2537,1861
2538,1860
2539,1861
2540,1861
2541,1862
2542,1859
2543,1860
2544,1859
2545,1862
2546,1863
2547,1863
2548,1861
2549,1867
2550,1863
2551,1861
2552,1856
2553,1852
2554,1853
2555,1855
2556,1854
2557,1857
2558,1856
2559,1857
2560,1857
2561,1858
2562,1859
2563,1857
2564,1859
2565,1860
2566,1863
2567,1861
2568,1861
2569,1860
2570,1861
2571,1861
2572,1860
2573,1860
2574,1863
2575,1863
2576,1862
2577,1861
2578,1858
2579,1861
2580,1859
2581,1857
2582,1856
2583,1859
2584,1859
2585,1858
2586,1859
2587,1859
2588,1862
2589,1859
2590,1861
2591,1861
2592,1861
2593,1861
2594,1860
2595,1862
2596,1861
2597,1862
2598,1861
2599,1859
2600,1863
2601,1861
2602,1864
2603,1863
2604,1862
2605,1863
2606,1862
2607,1859
2608,1858
2609,1857
2610,1856
2611,1856
2612,1857
2613,1857
2614,1858
2615,1856
2616,1857
2617,1856
2618,1858
2619,1861
2620,1856
2621,1859
2622,1856
2623,1857
2624,1857
2625,1859
2626,1859
2627,1859
2628,1858
2629,1859
2630,1859
2631,1861
2632,1860
2633,1862
2634,1862
2635,1865
2636,1861
2637,1863
2638,1859
2639,1867
2640,1861
2641,1863
2642,1859
2643,1856
2644,1850
2645,1851
2646,1854
2647,1854
2648,1856
2649,1856
2650,1856
2651,1857
2652,1856
2653,1859
2654,1862
2655,1861
2656,1860
2657,1859
2658,1859
2659,1859
2660,1862
2661,1860
2662,1860
2663,1861
2664,1861
2665,1863
2666,1862
2667,1861
2668,1858
2669,1859
2670,1856
2671,1856
2672,1858
2673,1859
2674,1858
2675,1857
2676,1857
2677,1859
2678,1861
2679,1859
2680,1862
2681,1859
2682,1862
2683,1862
2684,1860
2685,1859
2686,1861
2687,1861
2688,1861
2689,1862
2690,1862
2691,1861
2692,1859
2693,1859
2694,1861
2695,1863
2696,1862
2697,1862
2698,1857
2699,1859
2700,1856
2701,1861
2702,1858
2703,1859
2704,1862
2705,1859
2706,1860
2707,1858
2708,1861
2709,1859
2710,1861
2711,1859
2712,1858
2713,1858
2714,1858
2715,1859
2716,1860
2717,1859
2718,1858
2719,1859
2720,1856
2721,1858
2722,1859
2723,1856
2724,1856
2725,1856
2726,1858
2727,1856
2728,1856
2729,1863
2730,1863
2731,1861
2732,1853
2733,1850
2734,1851
2735,1855
2736,1855
2737,1856
2738,1857
2739,1857
2740,1857
2741,1860
2742,1861
2743,1862
2744,1861
2745,1861
2746,1861
2747,1862
2748,1861
2749,1861
2750,1860
2751,1860
2752,1859
2753,1861
2754,1860
2755,1866
2756,1862
2757,1859
2758,1860
2759,1861
2760,1858
2761,1857
2762,1858
2763,1858
2764,1859
2765,1861
2766,1860
2767,1861
2768,1862
2769,1863
2770,1863
2771,1858
2772,1861
2773,1861
2774,1861
2775,1859
2776,1861
2777,1861
2778,1861
2779,1863
2780,1863
2781,1861
2782,1863
2783,1863
2784,1863
2785,1865
2786,1862
2787,1861
2788,1858
2789,1859
2790,1856
2791,1857
2792,1858
2793,1856
2794,1857
2795,1861
2796,1859
2797,1861
2798,1860
2799,1863
2800,1859
2801,1861
2802,1860
2803,1863
2804,1861
2805,1860
2806,1859
2807,1861
2808,1862
2809,1859
2810,1861
2811,1859
2812,1861
2813,1863
2814,1861
2815,1862
2816,1861
2817,1859
2818,1854
2819,1856
2820,1852
2821,1858
2822,1855
2823,1857
2824,1857
2825,1857
2826,1858
2827,1860
2828,1859
2829,1860
2830,1859
2831,1861
2832,1861
2833,1860
2834,1859
2835,1861
2836,1861
2837,1861
2838,1861
2839,1862
2840,1863
2841,1859
2842,1859
2843,1862
2844,1861
2845,1867
2846,1861
2847,1859
2848,1861
2849,1868
2850,1865
2851,1862
2852,1856
2853,1852
2854,1853
2855,1855
2856,1856
2857,1856
2858,1857
2859,1856
2860,1858
2861,1860
2862,1859
2863,1859
2864,1859
2865,1861
2866,1861
2867,1861
2868,1861
2869,1861
2870,1859
2871,1860
2872,1863
2873,1863
2874,1861
2875,1863
2876,1863
2877,1861
2878,1860
2879,1858
2880,1856
2881,1858
2882,1857
2883,1858
2884,1859
2885,1859
2886,1857
2887,1862
2888,1860
2889,1859
2890,1862
2891,1862
2892,1860
2893,1861
2894,1863
2895,1865
2896,1861
2897,1864
2898,1861
2899,1858
2900,1862
2901,1863
2902,1862
2903,1859
2904,1860
2905,1863
2906,1861
2907,1859
2908,1857
2909,1857
2910,1856
2911,1854
2912,1856
2913,1858
2914,1856
2915,1858
2916,1857
2917,1857
2918,1860
2919,1859
2920,1856
2921,1857
2922,1856
2923,1857
2924,1858
2925,1856
2926,1860
2927,1859
2928,1859
2929,1859
2930,1860
2931,1861
2932,1860
2933,1861
2934,1861
2935,1863
2936,1862
2937,1861
2938,1861
2939,1867
2940,1869
2941,1862
2942,1856
2943,1853
2944,1851
2945,1855
2946,1856
2947,1857
2948,1858
2949,1857
2950,1859
2951,1860
2952,1861
2953,1858
2954,1858
2955,1863
2956,1861
2957,1859
2958,1862
2959,1861
2960,1859
2961,1863
2962,1859
2963,1861
2964,1859
2965,1863
2966,1863
2967,1861
2968,1860
2969,1860
2970,1857
2971,1856
2972,1857
2973,1859
2974,1859
2975,1859
2976,1857
2977,1861
2978,1862
2979,1859
2980,1860
2981,1860
2982,1862
2983,1860
2984,1859
2985,1861
2986,1862
2987,1863
2988,1861
2989,1859
2990,1865
2991,1862
2992,1862
2993,1864
2994,1860
2995,1866
2996,1863
2997,1862
2998,1858
2999,1859
3000,1857
3001,1859
3002,1858
3003,1859
3004,1863
3005,1860
3006,1858
3007,1858
3008,1859
3009,1858
3010,1862
3011,1859
3012,1861
3013,1858
3014,1862
3015,1861
3016,1862
3017,1857
3018,1863
3019,1857
3020,1866
3021,1861
3022,1861
3023,1857
3024,1856
3025,1855
3026,1857
3027,1857
3028,1855
3029,1866
3030,1863
3031,1862
3032,1856
3033,1849
3034,1850
3035,1855
3036,1855
3037,1856
3038,1858
3039,1856
3040,1857
3041,1859
3042,1858
3043,1859
3044,1861
3045,1860
3046,1859
3047,1860
3048,1860
3049,1861
3050,1863
3051,1861
3052,1860
3053,1861
3054,1859
3055,1865
3056,1863
3057,1859
3058,1858
3059,1859
3060,1856
3061,1856
3062,1857
3063,1857
3064,1859
3065,1858
3066,1861
3067,1858
3068,1861
3069,1859
3070,1861
3071,1862
3072,1862
3073,1861
3074,1859
3075,1862
3076,1863
3077,1861
3078,1863
3079,1861
3080,1860
3081,1859
3082,1859
3083,1861
3084,1861
3085,1865
3086,1862
3087,1863
3088,1859
3089,1856
3090,1855
3091,1856
3092,1858
3093,1859
3094,1857
3095,1859
3096,1859
3097,1858
3098,1861
3099,1858
3100,1861
3101,1863
3102,1863
3103,1859
3104,1862
3105,1859
3106,1862
3107,1859
3108,1860
3109,1861
3110,1858
3111,1862
3112,1858
3113,1859
3114,1859
3115,1862
3116,1861
3117,1858
3118,1856
3119,1865
3120,1865
3121,1849
3122,1853
3123,1853
3124,1856
3125,1856
3126,1858
3127,1857
3128,1859
3129,1858
3130,1861
3131,1861
3132,1861
3133,1858
3134,1862
3135,1863
3136,1861
3137,1861
3138,1861
3139,1861
3140,1861
3141,1861
3142,1863
3143,1859
3144,1860
3145,1866
3146,1862
3147,1860
3148,1857
3149,1868
3150,1863
3151,1853
3152,1856
3153,1856
3154,1857
3155,1857
3156,1859
3157,1857
3158,1859
3159,1861
3160,1858
3161,1861
3162,1859
3163,1863
3164,1861
3165,1859
3166,1859
3167,1861
3168,1861
3169,1861
3170,1864
3171,1861
3172,1861
3173,1859
3174,1861
3175,1865
3176,1863
3177,1861
3178,1860
3179,1861
3180,1857
3181,1859
3182,1857
3183,1859
3184,1859
3185,1861
3186,1862
3187,1860
3188,1858
3189,1859
3190,1859
3191,1861
3192,1861
3193,1862
3194,1859
3195,1859
3196,1862
3197,1862
3198,1861
3199,1861
3200,1863
3201,1865
3202,1866
3203,1862
3204,1861
3205,1865
3206,1862
3207,1859
3208,1858
3209,1856
3210,1854
3211,1855
3212,1856
3213,1857
3214,1857
3215,1856
3216,1858
3217,1858
3218,1862
3219,1858
3220,1861
3221,1856
3222,1856
3223,1857
3224,1858
3225,1859
3226,1857
3227,1859
3228,1862
3229,1859
3230,1859
3231,1861
3232,1860
3233,1860
3234,1859
3235,1863
3236,1861
3237,1859
3238,1858
3239,1865
3240,1871
3241,1861
3242,1858
3243,1853
3244,1855
3245,1855
3246,1856
3247,1856
3248,1858
3249,1857
3250,1860
3251,1857
3252,1858
3253,1861
3254,1859
3255,1858
3256,1860
3257,1861
3258,1859
3259,1863
3260,1861
3261,1862
3262,1860
3263,1863
3264,1861
3265,1867
3266,1862
3267,1861
3268,1860
3269,1858
3270,1856
3271,1856
3272,1857
3273,1858
3274,1860
3275,1859
3276,1862
3277,1862
3278,1861
3279,1862
3280,1858
3281,1862
3282,1861
3283,1862
3284,1861
3285,1861
3286,1860
3287,1861
3288,1862
3289,1861
3290,1861
3291,1863
3292,1859
3293,1863
3294,1859
3295,1866
3296,1862
3297,1863
3298,1861
3299,1858
3300,1858
3301,1859
3302,1857
3303,1857
3304,1856
3305,1858
3306,1859
3307,1859
3308,1859
3309,1862
3310,1861
3311,1859
3312,1860
3313,1860
3314,1859
3315,1862
3316,1859
3317,1858
3318,1862
3319,1858
3320,1859
3321,1856
3322,1858
3323,1857
3324,1857
3325,1856
3326,1856
3327,1856
3328,1856
3329,1865
3330,1863
3331,1862
3332,1855
3333,1850
3334,1853
3335,1855
3336,1856
3337,1858
3338,1856
3339,1856
3340,1858
3341,1857
3342,1861
3343,1859
3344,1861
3345,1862
3346,1860
3347,1860
3348,1863
3349,1859
3350,1859
3351,1861
3352,1859
3353,1861
3354,1860
3355,1863
3356,1863
3357,1862
3358,1859
3359,1859
3360,1857
3361,1857
3362,1858
3363,1857
3364,1859
3365,1861
3366,1859
3367,1858
3368,1861
3369,1859
3370,1861
3371,1861
3372,1862
3373,1863
3374,1863
3375,1862
3376,1861
3377,1861
3378,1861
3379,1861
3380,1864
3381,1862
3382,1860
3383,1859
3384,1861
3385,1866
3386,1862
3387,1859
3388,1858
3389,1859
3390,1858
3391,1856
3392,1858
3393,1859
3394,1858
3395,1860
3396,1859
3397,1861
3398,1859
3399,1861
3400,1862
3401,1861
3402,1863
3403,1862
3404,1860
3405,1861
3406,1862
3407,1859
3408,1861
3409,1859
3410,1860
3411,1859
3412,1861
3413,1858
3414,1859
3415,1862
3416,1862
3417,1857
3418,1857
3419,1857
3420,1850
3421,1856
3422,1856
3423,1857
3424,1858
3425,1858
3426,1858
3427,1858
3428,1861
3429,1861
3430,1863
3431,1865
3432,1859
3433,1861
3434,1861
3435,1862
3436,1861
3437,1861
3438,1861
3439,1860
3440,1859
3441,1861
3442,1863
3443,1861
3444,1862
3445,1865
3446,1859
3447,1860
3448,1859
3449,1868
3450,1868
3451,1860
3452,1857
3453,1851
3454,1850
3455,1856
3456,1856
3457,1856
3458,1857
3459,1856
3460,1858
3461,1858
3462,1857
3463,1858
3464,1861
3465,1860
3466,1861
3467,1862
3468,1859
3469,1861
3470,1859
3471,1859
3472,1858
3473,1863
3474,1861
3475,1862
3476,1860
3477,1861
3478,1858
3479,1858
3480,1855
3481,1856
3482,1856
3483,1859
3484,1859
3485,1859
3486,1857
3487,1859
3488,1859
3489,1858
3490,1860
3491,1858
3492,1860
3493,1861
3494,1862
3495,1862
3496,1860
3497,1862
3498,1859
3499,1859
3500,1863
3501,1863
3502,1861
3503,1860
3504,1862
3505,1866
3506,1861
3507,1861
3508,1856
3509,1857
3510,1856
3511,1856
3512,1856
3513,1858
3514,1858
3515,1857
3516,1857
3517,2064
3518,1882
3519,1828
3520,1837
3521,1830
3522,1835
3523,1840
3524,1950
3525,2160
3526,2089
3527,1879
3528,1796
3529,1767
3530,1776
3531,1787
3532,1799
3533,1808
3534,1815
3535,1826
3536,1831
3537,1831
3538,1837
3539,1843
3540,1850
3541,1846
3542,1841
3543,1840
3544,1842
3545,1845
3546,1845
3547,1851
3548,1854
3549,1995
3550,1830
3551,1825
3552,1834
3553,1835
3554,1840
3555,1840
3556,2083
3557,2147
3558,1970
3559,1840
3560,1766
3561,1776
3562,1791
3563,1801
3564,1808
3565,1821
3566,1825
3567,1827
3568,1834
3569,1839
3570,1838
3571,1840
3572,1843
3573,1847
3574,1851
3575,1850
3576,1850
3577,1855
3578,1855
3579,1855
3580,2223
3581,1840
3582,1825
3583,1830
3584,1837
3585,1840
3586,1963
3587,2248
3588,2131
3589,1959
3590,1808
3591,1730
3592,1744
3593,1762
3594,1777
3595,1793
3596,1801
3597,1808
3598,1814
3599,1819
3600,1826
3601,1833
3602,1839
3603,1840
3604,1841
3605,1845
3606,1849
3607,1849
3608,1850
3609,1851
3610,1853
3611,2171
3612,1866
3613,1822
3614,1825
3615,1831
3616,1839
3617,1984
3618,2214
3619,2090
3620,2031
3621,1811
3622,1725
3623,1739
3624,1754
3625,1769
3626,1777
3627,1793
3628,1802
3629,1818
3630,1823
3631,1827
3632,1830
3633,1827
3634,1827
3635,1830
3636,1838
3637,1840
3638,1843
3639,1846
3640,1850
3641,1853
3642,1856
3643,2001
3644,1812
3645,1812
3646,1819
3647,1827
3648,1834
3649,2003
3650,2128
3651,2116
3652,1856
3653,1749
3654,1759
3655,1778
3656,1791
3657,1798
3658,1805
3659,1811
3660,1818
3661,1827
3662,1833
3663,1835
3664,1840
3665,1840
3666,1843
3667,1846
3668,1851
3669,1851
3670,1851
3671,1856
3672,1857
3673,1856
3674,2330
3675,1834
3676,1808
3677,1814
3678,1821
3679,1829
3680,1836
3681,2066
3682,2218
3683,1898
3684,1761
3685,1773
3686,1783
3687,1792
3688,1803
3689,1808
3690,1813
3691,1822
3692,1829
3693,1833
3694,1840
3695,1840
3696,1843
3697,1847
3698,1847
3699,1853
3700,1853
3701,1856
3702,1856
3703,1856
3704,1857
3705,2375
3706,1901
3707,1796
3708,1799
3709,1809
3710,1817
3711,1824
3712,1943
3713,2256
3714,1889
3715,1764
3716,1771
3717,1780
3718,1791
3719,1806
3720,1815
3721,1809
3722,1814
3723,1823
3724,1828
3725,1835
3726,1839
3727,1841
3728,1842
3729,1847
3730,1851
3731,1853
3732,1853
3733,1855
3734,1856
3735,1857
3736,1915
3737,2033
3738,1806
3739,1806
3740,1810
3741,1822
3742,1826
3743,1894
3744,2272
3745,1921
3746,1763
3747,1774
3748,1780
3749,1798
3750,1808
3751,1805
3752,1814
3753,1820
3754,1828
3755,1835
3756,1840
3757,1841
3758,1845
3759,1846
3760,1849
3761,1851
3762,1851
3763,1853
3764,1853
3765,1856
3766,1855
3767,1857
3768,2273
3769,1822
3770,1806
3771,1809
3772,1817
3773,1826
3774,1835
3775,2190
3776,1915
3777,1786
3778,1787
3779,1799
3780,1803
3781,1809
3782,1818
3783,1825
3784,1831
3785,1837
3786,1840
3787,1841
3788,1845
3789,1846
3790,1849
3791,1854
3792,1853
3793,1853
3794,1856
3795,1856
3796,1856
3797,1857
3798,1857
3799,2386
3800,1849
3801,1812
3802,1821
3803,1823
3804,1831
3805,1840
3806,2090
3807,2011
3808,1797
3809,1791
3810,1797
3811,1808
3812,1814
3813,1823
3814,1828
3815,1834
3816,1839
3817,1840
3818,1842
3819,1841
3820,1847
3821,1849
3822,1854
3823,1851
3824,1854
3825,1856
3826,1856
3827,1855
3828,1857
3829,1858
3830,2160
3831,1904
3832,1817
3833,1813
3834,1823
3835,1834
3836,1837
3837,2071
3838,2057
3839,1807
3840,1791
3841,1808
3842,1805
3843,1808
3844,1811
3845,1821
3846,1826
3847,1835
3848,1840
3849,1841
3850,1843
3851,1849
3852,1847
3853,1853
3854,1854
3855,1854
3856,1856
3857,1855
3858,1856
3859,1859
3860,1858
3861,1857
3862,2062
3863,1822
3864,1815
3865,1825
3866,1829
3867,1838
3868,2011
3869,2175
3870,1818
3871,1775
3872,1787
3873,1798
3874,1808
3875,1815
3876,1823
3877,1826
3878,1834
3879,1838
3880,1840
3881,1842
3882,1845
3883,1849
3884,1849
3885,1851
3886,1855
3887,1854
3888,1859
3889,1856
3890,1857
3891,1860
3892,1858
3893,2243
3894,1833
3895,1821
3896,1823
3897,1832
3898,1833
3899,1889
3900,2229
3901,1862
3902,1777
3903,1785
3904,1795
3905,1808
3906,1811
3907,1819
3908,1827
3909,1831
3910,1838
3911,1840
3912,1843
3913,1843
3914,1846
3915,1849
3916,1850
3917,1852
3918,1854
3919,1852
3920,1856
3921,1855
3922,1855
3923,1853
3924,2274
3925,1874
3926,1808
3927,1813
3928,1817
3929,1831
3930,1838
3931,2138
3932,2000
3933,1781
3934,1779
3935,1792
3936,1803
3937,1812
3938,1819
3939,1826
3940,1834
3941,1836
3942,1840
3943,1843
3944,1847
3945,1850
3946,1851
3947,1853
3948,1855
3949,1854
3950,1856
3951,1856
3952,1857
3953,1857
3954,1858
3955,1914
3956,1968
3957,1817
3958,1815
3959,1821
3960,1825
3961,1829
3962,2036
3963,2091
3964,1804
3965,1791
3966,1798
3967,1807
3968,1817
3969,1822
3970,1829
3971,1838
3972,1840
3973,1841
3974,1843
3975,1846
3976,1850
3977,1850
3978,1854
3979,1855
3980,1857
3981,1856
3982,1856
3983,1856
3984,1856
3985,1861
3986,1859
3987,2213
3988,1829
3989,1812
3990,1814
3991,1823
3992,1831
3993,1895
3994,2167
3995,1840
3996,1788
3997,1795
3998,1806
3999,1813
4000,1822
4001,1827
4002,1835
4003,1838
4004,1840
4005,1842
4006,1845
4007,1851
4008,1851
4009,1853
4010,1855
4011,1855
4012,1854
4013,1857
4014,1856
4015,1858
4016,1858
4017,1856
4018,2382
4019,1845
4020,1808
4021,1811
4022,1823
4023,1828
4024,1846
4025,2185
4026,1885
4027,1783
4028,1792
4029,1802
4030,1809
4031,1817
4032,1823
4033,1831
4034,1834
4035,1840
4036,1840
4037,1845
4038,1847
4039,1849
4040,1850
4041,1853
4042,1855
4043,1856
4044,1857
4045,1862
4046,1857
4047,1859
4048,1858
4049,2064
4050,1909
4051,1814
4052,1811
4053,1814
4054,1821
4055,1830
4056,2205
4057,1988
4058,1777
4059,1776
4060,1790
4061,1803
4062,1808
4063,1817
4064,1823
4065,1830
4066,1837
4067,1840
4068,1840
4069,1842
4070,1849
4071,1849
4072,1852
4073,1851
4074,1855
4075,1856
4076,1858
4077,1856
4078,1856
4079,1856
4080,1854
4081,2035
4082,1818
4083,1813
4084,1823
4085,1826
4086,1839
4087,2230
4088,2103
4089,1779
4090,1760
4091,1774
4092,1785
4093,1795
4094,1807
4095,1811
4096,1822
4097,1829
4098,1831
4099,1838
4100,1840
4101,1842
4102,1846
4103,1847
4104,1850
4105,1855
4106,1854
4107,1853
4108,1854
4109,1854
4110,1850
4111,1855
4112,2206
4113,1830
4114,1815
4115,1823
4116,1829
4117,1840
4118,2186
4119,2192
4120,1819
4121,1745
4122,1758
4123,1776
4124,1786
4125,1798
4126,1807
4127,1814
4128,1823
4129,1827
4130,1835
4131,1840
4132,1840
4133,1842
4134,1846
4135,1852
4136,1853
4137,1851
4138,1854
4139,1860
4140,1858
4141,1856
4142,1853
4143,1846
4144,1850
4145,1853
4146,1855
4147,1854
4148,1855
4149,1856
4150,1856
4151,1859
4152,1859
4153,1858
4154,1858
4155,1857
4156,1860
4157,1860
4158,1861
4159,1860
4160,1860
4161,1859
4162,1861
4163,1861
4164,1862
4165,1866
4166,1859
4167,1861
4168,1859
4169,1861
4170,1856
4171,1856
4172,1858
4173,1861
4174,1857
4175,1860
4176,1860
4177,1861
4178,1858
4179,1862
4180,1861
4181,1862
4182,1862
4183,1859
4184,1861
4185,1865
4186,1863
4187,1862
4188,1861
4189,1862
4190,1861
4191,1862
4192,1862
4193,1860
4194,1862
4195,1862
4196,1861
4197,1861
4198,1859
4199,1859
4200,1857
4201,1857
4202,1858
4203,1857
4204,1858
4205,1861
4206,1859
4207,1858
4208,1858
4209,1861
4210,1859
4211,1858
4212,1859
4213,1859
4214,1859
4215,1861
4216,1859
4217,1861
4218,1860
4219,1862
4220,1856
4221,1861
4222,1860
4223,1857
4224,1859
4225,1856
4226,1857
4227,1856
4228,1856
4229,1866
4230,1863
4231,1857
4232,1856
4233,1849
4234,1853
4235,1855
4236,1855
4237,1856
4238,1856
4239,1859
4240,1857
4241,1859
4242,1861
4243,1859
4244,1861
4245,1859
4246,1861
4247,1859
4248,1859
4249,1863
4250,1862
4251,1863
4252,1859
4253,1862
4254,1861
4255,1863
4256,1862
4257,1861
4258,1861
4259,1859
4260,1856
4261,1856
4262,1859
4263,1859
4264,1858
4265,1860
4266,1859
4267,1861
4268,1859
4269,1863
4270,1862
4271,1861
4272,1861
4273,1862
4274,1862
4275,1859
4276,1862
4277,1861
4278,1862
4279,1861
4280,1862
4281,1861
4282,1862
4283,1862
4284,1862
4285,1866
4286,1862
4287,1860
4288,1859
4289,1857
4290,1856
4291,1856
4292,1857
4293,1859
4294,1859
4295,1859
4296,1859
4297,1859
4298,1858
4299,1863
4300,1860
4301,1862
4302,1861
4303,1861
4304,1861
4305,1859
4306,1862
4307,1860
4308,1858
4309,1861
4310,1859
4311,1860
4312,1861
4313,1859
4314,1858
4315,1863
4316,1859
4317,1859
4318,1857
4319,1864
4320,1861
4321,1853
4322,1853
4323,1855
4324,1854
4325,1855
4326,1856
4327,1857
4328,1856
4329,1857
4330,1859
4331,1861
4332,1859
4333,1860
4334,1858
4335,1861
4336,1859
4337,1861
4338,1861
4339,1858
4340,1859
4341,1859
4342,1859
4343,1858
4344,1860
4345,1865
4346,1862
4347,1859
4348,1859
4349,1859
4350,1857
4351,1857
4352,1856
4353,1858
4354,1859
4355,1857
4356,1859
4357,1859
4358,1860
4359,1857
4360,1857
4361,1860
4362,1860
4363,1863
4364,1860
4365,1861
4366,1858
4367,1862
4368,1859
4369,1860
4370,1859
4371,1863
4372,1862
4373,1859
4374,1863
4375,1865
4376,1859
4377,1859
4378,1856
4379,1865
4380,1862
4381,1854
4382,1855
4383,1856
4384,1856
4385,1856
4386,1857
4387,1860
4388,1859
4389,1858
4390,1862
4391,1861
4392,1860
4393,1860
4394,1861
4395,1863
4396,1863
4397,1862
4398,1863
4399,1861
4400,1865
4401,1863
4402,1862
4403,1862
4404,1859
4405,1866
4406,1860
4407,1859
4408,1861
4409,1858
4410,1856
4411,1857
4412,1856
4413,1856
4414,1857
4415,1859
4416,1858
4417,1859
4418,1866
4419,1859
4420,1866
4421,1858
4422,1860
4423,1859
4424,1858
4425,1858
4426,1858
4427,1860
4428,1861
4429,1861
4430,1863
4431,1863
4432,1863
4433,1861
4434,1863
4435,1865
4436,1865
4437,1860
4438,1862
4439,1866
4440,1866
4441,1863
4442,1856
4443,1854
4444,1853
4445,1855
4446,1856
4447,1856
4448,1857
4449,1858
4450,1858
4451,1857
4452,1859
4453,1861
4454,1858
4455,1866
4456,1862
4457,1859
4458,1861
4459,1861
4460,1862
4461,1866
4462,1862
4463,1859
4464,1862
4465,1865
4466,1866
4467,1860
4468,1859
4469,1859
4470,1857
4471,1857
4472,1856
4473,1861
4474,1862
4475,1860
4476,1860
4477,1861
4478,1861
4479,1860
4480,1860
4481,1861
4482,1864
4483,1863
4484,1863
4485,1862
4486,1863
4487,1862
4488,1863
4489,1864
4490,1862
4491,1862
4492,1860
4493,1860
4494,1863
4495,1865
4496,1865
4497,1863
4498,1861
4499,1859
4500,1858
4501,1859
4502,1861
4503,1859
4504,1861
4505,1859
4506,1859
4507,1860
4508,1861
4509,1861
4510,1860
4511,1860
4512,1860
4513,1858
4514,1862
4515,1859
4516,1861
4517,1858
4518,1861
4519,1860
4520,1866
4521,1859
4522,1858
4523,1858
4524,1857
4525,1859
4526,1858
4527,1858
4528,1856
4529,1866
4530,1860
4531,1862
4532,1856
4533,1847
4534,1851
4535,1853
4536,1857
4537,1858
4538,1857
4539,1857
4540,1857
4541,1861
4542,1859
4543,1861
4544,1861
4545,1861
4546,1863
4547,1863
4548,1865
4549,1863
4550,1865
4551,1861
4552,1865
4553,1863
4554,1862
4555,1867
4556,1861
4557,1861
4558,1859
4559,1859
4560,1857
4561,1856
4562,1857
4563,1859
4564,1859
4565,1862
4566,1862
4567,1860
4568,1862
4569,1862
4570,1864
4571,1861
4572,1860
4573,1861
4574,1862
4575,1863
4576,1861
4577,1861
4578,1863
4579,1862
4580,1862
4581,1863
4582,1863
4583,1863
4584,1862
4585,1866
4586,1862
4587,1862
4588,1858
4589,1859
4590,1857
4591,1857
4592,1857
4593,1859
4594,1861
4595,1860
4596,1859
4597,1861
4598,1862
4599,1860
4600,1862
4601,1863
4602,1863
4603,1862
4604,1861
4605,1862
4606,1866
4607,1860
4608,1862
4609,1859
4610,1859
4611,1857
4612,1858
4613,1860
4614,1858
4615,1866
4616,1859
4617,1858
4618,1857
4619,1867
4620,1866
4621,1851
4622,1853
4623,1855
4624,1855
4625,1856
4626,1858
4627,1860
4628,1857
4629,1858
4630,1859
4631,1858
4632,1859
4633,1861
4634,1861
4635,1861
4636,1859
4637,1863
4638,1861
4639,1861
4640,1864
4641,1859
4642,1861
4643,1862
4644,1860
4645,1867
4646,1861
4647,1861
4648,1858
4649,1869
4650,1863
4651,1858
4652,1852
4653,1855
4654,1855
4655,1857
4656,1856
4657,1857
4658,1859
4659,1859
4660,1859
4661,1859
4662,1862
4663,1863
4664,1860
4665,1862
4666,1863
4667,1862
4668,1858
4669,1862
4670,1862
4671,1858
4672,1858
4673,1863
4674,1862
4675,1866
4676,1863
4677,1862
4678,1861
4679,1861
4680,1857
4681,1856
4682,1857
4683,1858
4684,1860
4685,1859
4686,1862
4687,1859
4688,1861
4689,1860
4690,1859
4691,1860
4692,1860
4693,1861
4694,1861
4695,1862
4696,1859
4697,1861
4698,1861
4699,1863
4700,1865
4701,1862
4702,1867
4703,1865
4704,1865
4705,1863
4706,1863
4707,1861
4708,1858
4709,1859
4710,1856
4711,1856
4712,1856
4713,1858
4714,1857
4715,1858
4716,1859
4717,1857
4718,1867
4719,1857
4720,1872
4721,1858
4722,1857
4723,1857
4724,1859
4725,1861
4726,1861
4727,1861
4728,1859
4729,1861
4730,1859
4731,1860
4732,1860
4733,1863
4734,1861
4735,1863
4736,1862
4737,1861
4738,1862
4739,1868
4740,1865
4741,1861
4742,1857
4743,1851
4744,1853
4745,1854
4746,1855
4747,1855
4748,1857
4749,1859
4750,1858
4751,1860
4752,1862
4753,1861
4754,1861
4755,1862
4756,1861
4757,1861
4758,1859
4759,1863
4760,1859
4761,1862
4762,1863
4763,1863
4764,1863
4765,1865
4766,1859
4767,1860
4768,1858
4769,1862
4770,1857
4771,1856
4772,1859
4773,1862
4774,1857
4775,1860
4776,1859
4777,1860
4778,1863
4779,1861
4780,1860
4781,1859
4782,1862
4783,1863
4784,1863
4785,1861
4786,1861
4787,1862
4788,1861
4789,1861
4790,1859
4791,1861
4792,1861
4793,1862
4794,1861
4795,1866
4796,1863
4797,1863
4798,1861
4799,1859
4800,1856
4801,1860
4802,1859
4803,1857
4804,1862
4805,1859
4806,1861
4807,1860
4808,1859
4809,1862
4810,1861
4811,1858
4812,1859
4813,1859
4814,1860
4815,1860
4816,1860
4817,1862
4818,1861
4819,1857
4820,1863
4821,1857
4822,1860
4823,1858
4824,1858
4825,1857
4826,1858
4827,1856
4828,1854
4829,1866
4830,1856
4831,1861
4832,1856
4833,1850
4834,1853
4835,1853
4836,1853
4837,1854
4838,1856
4839,1857
4840,1858
4841,1858
4842,1859
4843,1861
4844,1858
4845,1861
4846,1859
4847,1862
4848,1862
4849,1861
4850,1865
4851,1862
4852,1863
4853,1865
4854,1860
4855,1865
4856,1865
4857,1862
4858,1861
4859,1859
4860,1855
4861,1857
4862,1857
4863,1859
4864,1859
4865,1859
4866,1861
4867,1861
4868,1861
4869,1859
4870,1860
4871,1863
4872,1863
4873,1862
4874,1863
4875,1863
4876,1860
4877,1862
4878,1862
4879,1861
4880,1863
4881,1861
4882,1860
4883,1861
4884,1862
4885,1866
4886,1860
4887,1860
4888,1859
4889,1860
4890,1856
4891,1858
4892,1859
4893,1858
4894,1860
4895,1856
4896,1861
4897,1862
4898,1858
4899,1859
4900,1862
4901,1862
4902,1861
4903,1860
4904,1862
4905,1861
4906,1859
4907,1859
4908,1859
4909,1860
4910,1863
4911,1861
4912,1857
4913,1860
4914,1858
4915,1867
4916,1859
4917,1857
4918,1856
4919,1868
4920,1863
4921,1853
4922,1851
4923,1851
4924,1854
4925,1856
4926,1856
4927,1856
4928,1859
4929,1862
4930,1859
4931,1858
4932,1863
4933,1858
4934,1862
4935,1861
4936,1862
4937,1862
4938,1860
4939,1860
4940,1862
4941,1860
4942,1862
4943,1861
4944,1861
4945,1867
4946,1864
4947,1863
4948,1861
4949,1869
4950,1858
4951,1855
4952,1855
4953,1855
4954,1857
4955,1860
4956,1857
4957,1859
4958,1860
4959,1860
4960,1859
4961,1859
4962,1861
4963,1861
4964,1861
4965,1862
4966,1859
4967,1862
4968,1860
4969,1861
4970,1863
4971,1861
4972,1859
4973,1861
4974,1859
4975,1867
4976,1861
4977,1863
4978,1858
4979,1859
4980,1856
4981,1857
4982,1856
4983,1858
4984,1858
4985,1859
4986,1859
4987,1859
4988,1861
4989,1861
4990,1859
4991,1859
4992,1861
4993,1861
4994,1859
4995,1861
4996,1862
4997,1861
4998,1861
4999,1861
5000,1862
5001,1860
5002,1862
5003,1862
5004,1864
5005,1869
5006,1863
5007,1861
5008,1858
5009,1861
5010,1857
5011,1858
5012,1856
5013,1859
5014,1857
5015,1857
5016,1858
5017,1855
5018,1860
5019,1856
5020,1858
5021,1856
5022,1857
5023,1860
5024,1861
5025,1859
5026,1858
5027,1863
5028,1863
5029,1864
5030,1861
5031,1859
5032,1862
5033,1862
5034,1862
5035,1865
5036,1863
5037,1859
5038,1858
5039,1869
5040,1866
5041,1865
5042,1857
5043,1850
5044,1856
5045,1856
5046,1856
5047,1856
5048,1857
5049,1858
5050,1857
5051,1860
5052,1859
5053,1861
5054,1861
5055,1863
5056,1859
5057,1861
5058,1860
5059,1863
5060,1861
5061,1863
5062,1863
5063,1862
5064,1863
5065,1864
5066,1863
5067,1860
5068,1862
5069,1861
5070,1856
5071,1858
5072,1858
5073,1860
5074,1857
5075,1859
5076,1861
5077,1859
5078,1863
5079,1860
5080,1862
5081,1862
5082,1862
5083,1860
5084,1860
5085,1862
5086,1861
5087,1861
5088,1862
5089,1863
5090,1863
5091,1862
5092,1863
5093,1861
5094,1862
5095,1863
5096,1865
5097,1861
5098,1862
5099,1861
5100,1857
5101,1860
5102,1858
5103,1861
5104,1858
5105,1858
5106,1861
5107,1858
5108,1861
5109,1861
5110,1861
5111,1859
5112,1861
5113,1862
5114,1859
5115,1861
5116,1857
5117,1857
5118,1863
5119,1857
5120,1861
5121,1859
5122,1859
5123,1858
5124,1856
5125,1856
5126,1859
5127,1857
5128,1857
5129,1864
5130,1860
5131,1863
5132,1856
5133,1851
5134,1854
5135,1855
5136,1856
5137,1859
5138,1857
5139,1858
5140,1858
5141,1860
5142,1861
5143,1861
5144,2094
5145,1869
5146,1838
5147,1841
5148,1911
5149,2001
5150,2096
5151,2181
5152,2223
5153,2159
5154,1978
5155,1813
5156,1663
5157,1660
5158,1687
5159,1712
5160,1730
5161,1751
5162,1767
5163,1779
5164,1793
5165,1806
5166,1811
5167,1820
5168,1825
5169,1831
5170,1835
5171,1839
5172,1843
5173,1843
5174,1847
5175,1850
5176,1898
5177,1828
5178,1831
5179,1838
5180,1963
5181,2128
5182,2241
5183,2285
5184,2190
5185,1940
5186,1679
5187,1640
5188,1666
5189,1695
5190,1715
5191,1739
5192,1756
5193,1776
5194,1786
5195,1797
5196,1807
5197,1813
5198,1821
5199,1827
5200,1835
5201,1839
5202,1840
5203,1841
5204,1846
5205,1850
5206,1851
5207,2037
5208,1829
5209,1825
5210,1841
5211,2000
5212,2149
5213,2291
5214,2362
5215,2247
5216,1908
5217,1599
5218,1610
5219,1652
5220,1680
5221,1694
5222,1713
5223,1741
5224,1758
5225,1774
5226,1787
5227,1798
5228,1808
5229,1814
5230,1821
5231,1828
5232,1835
5233,1839
5234,1840
5235,1842
5236,1845
5237,1849
5238,2283
5239,1846
5240,1827
5241,1831
5242,1902
5243,2081
5244,2270
5245,2375
5246,2287
5247,1936
5248,1615
5249,1631
5250,1655
5251,1680
5252,1711
5253,1730
5254,1748
5255,1767
5256,1783
5257,1795
5258,1805
5259,1809
5260,1819
5261,1825
5262,1831
5263,1839
5264,1840
5265,1843
5266,1843
5267,1847
5268,1847
5269,1851
5270,1904
5271,1824
5272,1826
5273,1833
5274,1984
5275,2208
5276,2352
5277,2288
5278,1893
5279,1646
5280,1655
5281,1685
5282,1713
5283,1735
5284,1753
5285,1769
5286,1781
5287,1793
5288,1804
5289,1808
5290,1819
5291,1825
5292,1831
5293,1838
5294,1840
5295,1843
5296,1847
5297,1846
5298,1849
5299,1856
5300,1855
5301,2154
5302,1824
5303,1813
5304,1824
5305,1905
5306,2158
5307,2352
5308,2310
5309,1843
5310,1646
5311,1666
5312,1693
5313,1715
5314,1741
5315,1759
5316,1776
5317,1786
5318,1800
5319,1805
5320,1819
5321,1819
5322,1826
5323,1834
5324,1837
5325,1840
5326,1842
5327,1846
5328,1847
5329,1851
5330,1851
5331,1855
5332,2335
5333,1851
5334,1813
5335,1822
5336,1851
5337,2107
5338,2326
5339,2363
5340,1922
5341,1658
5342,1667
5343,1687
5344,1713
5345,1737
5346,1755
5347,1774
5348,1781
5349,1795
5350,1808
5351,1811
5352,1823
5353,1827
5354,1833
5355,1838
5356,1840
5357,1843
5358,1846
5359,1850
5360,1854
5361,1855
5362,1855
5363,2000
5364,1915
5365,1819
5366,1821
5367,1827
5368,1974
5369,2275
5370,2443
5371,2116
5372,1664
5373,1657
5374,1687
5375,1712
5376,1734
5377,1754
5378,1769
5379,1783
5380,1795
5381,1807
5382,1811
5383,1821
5384,1828
5385,1833
5386,1837
5387,1840
5388,1843
5389,1845
5390,1849
5391,1851
5392,1854
5393,1855
5394,1855
5395,2014
5396,1824
5397,1821
5398,1826
5399,1856
5400,2218
5401,2465
5402,2231
5403,1685
5404,1660
5405,1685
5406,1712
5407,1737
5408,1751
5409,1769
5410,1781
5411,1794
5412,1806
5413,1814
5414,1819
5415,1827
5416,1831
5417,1834
5418,1847
5419,1840
5420,1845
5421,1847
5422,1849
5423,1851
5424,1854
5425,1850
5426,2192
5427,1831
5428,1818
5429,1837
5430,1837
5431,1954
5432,2433
5433,2401
5434,1754
5435,1664
5436,1690
5437,1715
5438,1737
5439,1758
5440,1775
5441,1783
5442,1798
5443,1807
5444,1813
5445,1821
5446,1828
5447,1833
5448,1839
5449,1840
5450,1843
5451,1844
5452,1847
5453,1853
5454,1853
5455,1857
5456,1855
5457,2320
5458,1856
5459,1818
5460,1819
5461,1826
5462,1856
5463,2411
5464,2480
5465,1821
5466,1666
5467,1687
5468,1713
5469,1737
5470,1757
5471,1772
5472,1785
5473,1797
5474,1807
5475,1811
5476,1821
5477,1828
5478,1834
5479,1838
5480,1840
5481,1841
5482,1847
5483,1850
5484,1851
5485,1854
5486,1854
5487,1855
5488,1857
5489,1919
5490,1819
5491,1819
5492,1827
5493,1837
5494,2304
5495,2547
5496,2000
5497,1662
5498,1678
5499,1703
5500,1728
5501,1746
5502,1766
5503,1778
5504,1790
5505,1802
5506,1808
5507,1818
5508,1823
5509,1831
5510,1837
5511,1839
5512,1839
5513,1841
5514,1845
5515,1848
5516,1850
5517,1849
5518,1850
5519,1857
5520,2064
5521,1819
5522,1814
5523,1819
5524,1828
5525,2179
5526,2518
5527,2192
5528,1670
5529,1673
5530,1698
5531,1723
5532,1744
5533,1764
5534,1776
5535,1789
5536,1803
5537,1808
5538,1815
5539,1823
5540,1826
5541,1834
5542,1840
5543,1840
5544,1843
5545,1849
5546,1851
5547,1853
5548,1849
5549,1858
5550,1854
5551,2333
5552,1841
5553,1815
5554,1825
5555,1827
5556,2009
5557,2518
5558,2405
5559,1707
5560,1660
5561,1686
5562,1712
5563,1733
5564,1756
5565,1773
5566,1783
5567,1796
5568,1807
5569,1811
5570,1821
5571,1826
5572,1831
5573,1837
5574,1841
5575,1846
5576,1846
5577,1846
5578,1851
5579,1851
5580,1846
5581,1852
5582,1969
5583,1901
5584,1819
5585,1819
5586,1829
5587,1925
5588,2423
5589,2527
5590,1790
5591,1653
5592,1678
5593,1709
5594,1727
5595,1746
5596,1766
5597,1779
5598,1791
5599,1804
5600,1809
5601,1819
5602,1828
5603,1833
5604,1836
5605,1840
5606,1841
5607,1843
5608,1843
5609,1846
5610,1846
5611,1849
5612,1850
5613,1853
5614,2016
5615,1822
5616,1819
5617,1823
5618,1853
5619,2321
5620,2559
5621,1978
5622,1651
5623,1668
5624,1697
5625,1722
5626,1743
5627,1759
5628,1776
5629,1790
5630,1799
5631,1808
5632,1814
5633,1823
5634,1831
5635,1840
5636,1840
5637,1840
5638,1841
5639,1853
5640,1851
5641,1851
5642,1850
5643,1846
5644,1840
5645,2178
5646,1826
5647,1815
5648,1823
5649,1829
5650,2210
5651,2559
5652,2187
5653,1661
5654,1665
5655,1693
5656,1718
5657,1740
5658,1759
5659,1775
5660,1786
5661,1797
5662,1807
5663,1814
5664,1822
5665,1830
5666,1836
5667,1839
5668,1839
5669,1843
5670,1842
5671,1844
5672,1847
5673,1850
5674,1852
5675,1854
5676,2303
5677,1855
5678,1824
5679,1824
5680,1834
5681,2004
5682,2518
5683,2448
5684,1701
5685,1659
5686,1682
5687,1712
5688,1735
5689,1751
5690,1771
5691,1783
5692,1795
5693,1808
5694,1814
5695,1825
5696,1828
5697,1833
5698,1837
5699,1838
5700,1840
5701,1842
5702,1843
5703,1847
5704,1847
5705,1853
5706,1851
5707,1856
5708,1934
5709,1822
5710,1821
5711,1830
5712,1835
5713,2312
5714,2624
5715,1841
5716,1666
5717,1684
5718,1713
5719,1735
5720,1751
5721,1767
5722,1779
5723,1792
5724,1799
5725,1808
5726,1815
5727,1822
5728,1825
5729,1840
5730,1840
5731,1840
5732,1840
5733,1838
5734,1840
5735,1840
5736,1845
5737,1849
5738,1851
5739,2106
5740,1827
5741,1821
5742,1827
5743,1838
5744,2176
5745,2599
5746,2045
5747,1673
5748,1685
5749,1712
5750,1734
5751,1750
5752,1771
5753,1783
5754,1792
5755,1808
5756,1811
5757,1819
5758,1825
5759,1831
5760,1830
5761,1837
5762,1840
5763,1843
5764,1845
5765,1847
5766,1850
5767,1850
5768,1854
5769,1855
5770,1856
5771,1856
5772,1857
5773,1857
5774,1856
5775,1857
5776,1857
5777,1857
5778,1860
5779,1859
5780,1859
5781,1859
5782,1858
5783,1859
5784,1859
5785,1866
5786,1858
5787,1859
5788,1858
5789,1859
5790,1857
5791,1856
5792,1858
5793,1857
5794,1859
5795,1858
5796,1859
5797,1859
5798,1861
5799,1858
5800,1861
5801,1863
5802,1863
5803,1862
5804,1860
5805,1862
5806,1861
5807,1862
5808,1861
5809,1863
5810,1859
5811,1860
5812,1861
5813,1859
5814,1861
5815,1865
5816,1860
5817,1861
5818,1847
5819,1858
5820,1856
5821,1855
5822,1856
5823,1857
5824,1857
5825,1856
5826,1859
5827,1859
5828,1861
5829,1861
5830,1859
5831,1859
5832,1863
5833,1862
5834,1861
5835,1861
5836,1863
5837,1861
5838,1862
5839,1861
5840,1861
5841,1862
5842,1862
5843,1863
5844,1864
5845,1867
5846,1863
5847,1862
5848,1861
5849,1866
5850,1858
5851,1862
5852,1857
5853,1852
5854,1854
5855,1855
5856,1856
5857,1857
5858,1856
5859,1859
5860,1858
5861,1859
5862,1859
5863,1861
5864,1860
5865,1860
5866,1861
5867,1866
5868,1861
5869,1861
5870,1862
5871,1862
5872,1865
5873,1862
5874,1861
5875,1865
5876,1862
5877,1859
5878,1858
5879,1861
5880,1856
5881,1859
5882,1859
5883,1859
5884,1859
5885,1860
5886,1861
5887,1861
5888,1858
5889,1862
5890,1862
5891,1863
5892,1863
5893,1860
5894,1861
5895,1863
5896,1862
5897,1863
5898,1862
5899,1864
5900,1866
5901,1866
5902,1862
5903,1862
5904,1861
5905,1866
5906,1863
5907,1863
5908,1859
5909,1859
5910,1856
5911,1857
5912,1857
5913,1857
5914,1858
5915,1859
5916,1859
5917,1857
5918,1858
5919,1858
5920,1857
5921,1862
5922,1858
5923,1859
5924,1862
5925,1859
5926,1859
5927,1858
5928,1861
5929,1862
5930,1862
5931,1862
5932,1863
5933,1861
5934,1863
5935,1868
5936,1865
5937,1863
5938,1859
5939,1867
5940,1866
5941,1865
5942,1858
5943,1851
5944,1854
5945,1856
5946,1857
5947,1856
5948,1857
5949,1859
5950,1858
5951,1858
5952,1860
5953,1859
5954,1862
5955,1861
5956,1859
5957,1861
5958,1861
5959,1862
5960,1863
5961,1861
5962,1861
5963,1863
5964,1863
5965,1871
5966,1863
5967,1862
5968,1862
5969,1862
5970,1856
5971,1858
5972,1858
5973,1860
5974,1859
5975,1860
5976,1860
5977,1863
5978,1863
5979,1861
5980,1861
5981,1860
5982,1861
5983,1861
5984,1862
5985,1861
5986,1861
5987,1861
5988,1862
5989,1861
5990,1862
5991,1861
5992,1862
5993,1861
5994,1859
5995,1867
5996,1863
5997,1862
5998,1859
5999,1861
6000,1858
6001,1858
6002,1861
6003,1857
6004,1860
6005,1859
6006,1857
6007,1859
6008,1860
6009,1859
6010,1860
6011,1860
6012,1860
6013,1859
6014,1859
6015,1859
6016,1861
6017,1857
6018,1859
6019,1858
6020,1860
6021,1859
6022,1858
6023,1858
6024,1857
6025,1856
6026,1856
6027,1859
6028,1860
6029,1866
6030,1862
6031,1862
6032,1857
6033,1849
6034,1851
6035,1854
6036,1856
6037,1856
6038,1856
6039,1856
6040,1858
6041,1859
6042,1858
6043,1861
6044,1859
6045,1859
6046,1863
6047,1861
6048,1865
6049,1865
6050,1859
6051,1859
6052,1862
6053,1863
6054,1863
6055,1867
6056,1862
6057,1858
6058,1858
6059,1859
6060,1858
6061,1857
6062,1856
6063,1859
6064,1859
6065,1859
6066,1861
6067,1860
6068,1861
6069,1859
6070,1860
6071,1862
6072,1861
6073,1865
6074,1861
6075,1862
6076,1861
6077,1860
6078,1862
6079,1860
6080,1861
6081,1860
6082,1859
6083,1860
6084,1861
6085,1868
6086,1863
6087,1861
6088,1859
6089,1859
6090,1857
6091,1858
6092,1859
6093,1859
6094,1859
6095,1859
6096,1861
6097,1862
6098,1860
6099,1861
6100,1861
6101,1863
6102,1863
6103,1861
6104,1861
6105,1860
6106,1859
6107,1860
6108,1859
6109,1861
6110,1858
6111,1859
6112,1861
6113,1861
6114,1860
6115,1866
6116,1862
6117,1859
6118,1856
6119,1863
6120,1863
6121,1853
6122,1850
6123,1853
6124,1856
6125,1856
6126,1857
6127,1858
6128,1859
6129,1856
6130,1859
6131,1862
6132,1861
6133,1859
6134,1861
6135,1861
6136,1861
6137,1862
6138,1860
6139,1861
6140,1863
6141,1863
6142,1862
6143,1862
6144,1859
6145,1865
6146,1862
6147,1863
6148,1861
6149,1868
6150,1858
6151,1855
6152,1856
6153,1856
6154,1856
6155,1856
6156,1858
6157,1859
6158,1861
6159,1862
6160,1859
6161,1861
6162,1860
6163,1861
6164,1861
6165,1862
6166,1861
6167,1859
6168,1862
6169,1862
6170,1862
6171,1861
6172,1862
6173,1863
6174,1864
6175,1865
6176,1866
6177,1863
6178,1863
6179,1861
6180,1857
6181,1858
6182,1859
6183,1858
6184,1861
6185,1861
6186,1862
6187,1860
6188,1863
6189,1861
6190,1861
6191,1862
6192,1862
6193,1858
6194,1863
6195,1863
6196,1862
6197,1860
6198,1861
6199,1862
6200,1863
6201,1862
6202,1865
6203,1862
6204,1861
6205,1865
6206,1862
6207,1858
6208,1859
6209,1859
6210,1856
6211,1857
6212,1858
6213,1857
6214,1857
6215,1858
6216,1859
6217,1857
6218,1857
6219,1857
6220,1860
6221,1858
6222,1857
6223,1857
6224,1859
6225,1859
6226,1861
6227,1858
6228,1860
6229,1863
6230,1860
6231,1860
6232,1860
6233,1861
6234,1863
6235,1866
6236,1862
6237,1863
6238,1860
6239,1869
6240,1866
6241,1862
6242,1860
6243,1851
6244,1853
6245,1855
6246,1855
6247,1857
6248,1858
6249,1858
6250,1857
6251,1858
6252,1857
6253,1862
6254,1859
6255,1861
6256,1861
6257,1862
6258,1862
6259,1861
6260,1861
6261,1859
6262,1858
6263,1863
6264,1862
6265,1866
6266,1863
6267,1861
6268,1858
6269,1870
6270,1859
6271,1855
6272,1855
6273,1856
6274,1857
6275,1859
6276,1856
6277,1858
6278,1858
6279,1860
6280,1860
6281,1861
6282,1865
6283,1863
6284,1861
6285,1859
6286,1862
6287,1863
6288,1862
6289,1862
6290,1863
6291,1862
6292,1861
6293,1863
6294,1859
6295,1867
6296,1862
6297,1859
6298,1858
6299,1859
6300,1856
6301,1861
6302,1862
6303,1858
6304,1858
6305,1858
6306,1859
6307,1860
6308,1858
6309,1859
6310,1858
6311,1860
6312,1860
6313,1859
6314,1857
6315,1857
6316,1859
6317,1857
6318,1859
6319,1859
6320,1858
6321,1858
6322,1859
6323,1858
6324,1857
6325,1857
6326,1855
6327,1856
6328,1857
6329,1867
6330,1860
6331,1859
6332,1857
6333,1849
6334,1851
6335,1854
6336,1853
6337,1856
6338,1856
6339,1857
6340,1857
6341,1862
6342,1860
6343,1861
6344,1859
6345,1860
6346,1861
6347,1861
6348,1862
6349,1859
6350,1861
6351,1861
6352,1861
6353,1862
6354,1859
6355,1865
6356,1862
6357,1862
6358,1858
6359,1861
6360,1857
6361,1857
6362,1857
6363,1857
6364,1858
6365,1861
6366,1857
6367,1859
6368,1861
6369,1861
6370,1862
6371,1862
6372,1861
6373,1862
6374,1862
6375,1861
6376,1863
6377,1861
6378,1862
6379,1862
6380,1862
6381,1862
6382,1862
6383,1861
6384,1862
6385,1867
6386,1862
6387,1861
6388,1859
6389,1859
6390,1856
6391,1856
6392,1859
6393,1861
6394,1858
6395,1858
6396,1859
6397,1859
6398,1859
6399,1861
6400,1862
6401,1863
6402,1865
6403,1863
6404,1866
6405,1862
6406,1865
6407,1862
6408,1859
6409,1861
6410,1862
6411,1861
6412,1859
6413,1861
6414,1857
6415,1863
6416,1859
6417,1859
6418,1856
6419,1870
6420,1865
6421,1854
6422,1854
6423,1853
6424,1856
6425,1857
6426,1859
6427,1856
6428,1858
6429,1861
6430,1860
6431,1859
6432,1862
6433,1859
6434,1859
6435,1861
6436,1862
6437,1861
6438,1865
6439,1862
6440,1861
6441,1862
6442,1865
6443,1864
6444,1862
6445,1865
6446,1862
6447,1862
6448,1860
6449,1869
6450,1858
6451,1854
6452,1856
6453,1856
6454,1857
6455,1857
6456,1861
6457,1860
6458,1861
6459,1859
6460,1860
6461,1859
6462,1861
6463,1861
6464,1862
6465,1862
6466,1865
6467,1867
6468,1863
6469,1862
6470,1862
6471,1861
6472,1864
6473,1862
6474,1861
6475,1865
6476,1863
6477,1862
6478,1860
6479,1862
6480,1857
6481,1857
6482,1859
6483,1861
6484,1859
6485,1859
6486,1859
6487,1859
6488,1863
6489,1861
6490,1861
6491,1861
6492,1862
6493,1862
6494,1863
6495,1862
6496,1863
6497,1862
6498,1862
6499,1863
6500,1865
6501,1867
6502,1865
6503,1862
6504,1863
6505,1867
6506,1863
6507,1861
6508,1857
6509,1861
6510,1857
6511,1857
6512,1857
6513,1858
6514,1858
6515,1857
6516,1857
6517,1857
6518,1863
6519,1856
6520,1861
6521,1858
6522,1859
6523,1859
6524,1859
6525,1861
6526,1861
6527,1860
6528,1861
6529,1863
6530,1862
6531,1862
6532,1863
6533,1861
6534,1861
6535,1869
6536,1863
6537,1861
6538,1857
6539,1862
6540,1856
6541,1858
6542,1858
6543,1858
6544,1859
6545,1861
6546,1861
6547,1862
6548,1863
6549,1861
6550,1861
6551,1863
6552,1862
6553,1859
6554,1861
6555,1865
6556,1859
6557,1862
6558,1862
6559,1862
6560,1863
6561,1861
6562,1861
6563,1860
6564,1862
6565,1863
6566,1865
6567,1861
6568,1862
6569,1867
6570,1867
6571,1867
6572,1861
6573,1850
6574,1855
6575,1855
6576,1857
6577,1856
6578,1859
6579,1858
6580,1857
6581,1859
6582,1860
6583,1858
6584,1859
6585,1859
6586,1859
6587,1862
6588,1862
6589,1861
6590,1861
6591,1862
6592,1860
6593,1861
6594,1862
6595,1868
6596,1863
6597,1861
6598,1858
6599,1861
6600,1858
6601,1859
6602,1859
6603,1859
6604,1856
6605,1857
6606,1861
6607,1861
6608,1861
6609,1861
6610,1859
6611,1858
6612,1859
6613,1859
6614,1861
6615,1859
6616,1858
6617,1858
6618,1862
6619,1863
6620,1861
6621,1858
6622,1863
6623,1862
6624,1857
6625,1857
6626,1856
6627,1857
6628,1856
6629,1862
6630,1863
6631,1858
6632,1859
6633,1853
6634,1849
6635,1851
6636,1854
6637,1854
6638,1855
6639,1856
6640,1859
6641,1859
6642,1861
6643,1859
6644,1859
6645,1862
6646,1862
6647,1860
6648,1862
6649,1862
6650,1861
6651,1859
6652,1859
6653,1862
6654,1863
6655,1866
6656,1863
6657,1860
6658,1860
6659,1862
6660,1856
6661,1858
6662,1859
6663,1858
6664,1859
6665,1858
6666,1861
6667,1861
6668,1859
6669,1857
6670,1862
6671,1861
6672,1859
6673,1862
6674,1864
6675,1861
6676,1861
6677,1861
6678,1863
6679,1862
6680,1861
6681,1861
6682,1862
6683,1861
6684,1861
6685,1867
6686,1863
6687,1862
6688,1858
6689,1861
6690,1856
6691,1857
6692,1859
6693,1857
6694,1859
6695,1859
6696,1862
6697,1862
6698,1861
6699,1861
6700,1863
6701,1861
6702,1861
6703,1863
6704,1861
6705,1862
6706,1861
6707,1861
6708,1862
6709,1862
6710,1861
6711,1858
6712,1860
6713,1863
6714,1863
6715,1863
6716,1859
6717,1857
6718,1856
6719,1867
6720,1862
6721,1853
6722,1851
6723,1853
6724,1854
6725,1856
6726,1857
6727,1859
6728,1857
6729,1859
6730,1859
6731,1860
6732,1859
6733,1863
6734,1861
6735,1861
6736,1863
6737,1863
6738,1862
6739,1861
6740,1860
6741,1861
6742,1863
6743,1860
6744,1863
6745,1866
6746,1862
6747,1861
6748,1862
6749,1868
6750,1862
6751,1855
6752,1855
6753,1855
6754,1856
6755,1858
6756,1857
6757,1861
6758,1862
6759,1861
6760,1863
6761,1859
6762,1861
6763,1863
6764,1861
6765,1862
6766,1860
6767,1864
6768,1861
6769,1862
6770,1861
6771,2269
6772,1854
6773,1838
6774,1840
6775,1855
6776,1937
6777,2069
6778,2175
6779,2229
6780,2190
6781,2016
6782,1826
6783,1660
6784,1664
6785,1691
6786,1717
6787,1739
6788,1756
6789,1775
6790,1788
6791,1798
6792,1808
6793,1815
6794,1821
6795,1828
6796,1834
6797,1839
6798,1840
6799,1843
6800,1845
6801,1847
6802,1874
6803,1879
6804,1829
6805,1832
6806,1837
6807,1853
6808,2047
6809,2188
6810,2237
6811,2188
6812,1959
6813,1683
6814,1667
6815,1697
6816,1717
6817,1741
6818,1758
6819,1771
6820,1790
6821,1794
6822,1806
6823,1811
6824,1818
6825,1826
6826,1830
6827,1837
6828,1840
6829,1841
6830,1844
6831,1847
6832,1852
6833,1848
6834,2037
6835,1830
6836,1826
6837,1829
6838,1883
6839,2101
6840,2241
6841,2301
6842,2196
6843,1872
6844,1632
6845,1648
6846,1680
6847,1709
6848,1731
6849,1748
6850,1767
6851,1779
6852,1791
6853,1806
6854,1809
6855,1818
6856,1825
6857,1831
6858,1835
6859,1840
6860,1843
6861,1843
6862,1845
6863,1853
6864,1851
6865,2192
6866,1840
6867,1829
6868,1834
6869,1844
6870,2069
6871,2238
6872,2331
6873,2233
6874,1893
6875,1644
6876,1654
6877,1682
6878,1712
6879,1737
6880,1750
6881,1772
6882,1781
6883,1794
6884,1805
6885,1813
6886,1820
6887,1827
6888,1831
6889,1837
6890,1840
6891,1841
6892,1847
6893,1848
6894,1853
6895,1853
6896,1970
6897,1887
6898,1824
6899,1827
6900,1830
6901,1965
6902,2178
6903,2303
6904,2265
6905,1904
6906,1660
6907,1677
6908,1702
6909,1725
6910,1745
6911,1763
6912,1776
6913,1790
6914,1798
6915,1808
6916,1815
6917,1821
6918,1830
6919,1834
6920,1837
6921,1839
6922,1845
6923,1845
6924,1849
6925,1847
6926,1849
6927,1852
6928,2058
6929,1821
6930,1819
6931,1813
6932,1853
6933,2143
6934,2318
6935,2271
6936,1863
6937,1663
6938,1680
6939,1707
6940,1728
6941,1747
6942,1766
6943,1778
6944,1791
6945,1802
6946,1809
6947,1817
6948,1826
6949,1830
6950,1837
6951,1840
6952,1842
6953,1843
6954,1847
6955,1852
6956,1855
6957,1853
6958,1854
6959,2290
6960,1841
6961,1815
6962,1820
6963,1815
6964,1974
6965,2288
6966,2353
6967,1974
6968,1678
6969,1683
6970,1712
6971,1733
6972,1751
6973,1771
6974,1782
6975,1793
6976,1805
6977,1810
6978,1818
6979,1827
6980,1831
6981,1838
6982,1840
6983,1843
6984,1845
6985,1854
6986,1853
6987,1855
6988,1851
6989,1855
6990,2252
6991,1887
6992,1808
6993,1810
6994,1819
6995,1845
6996,2234
6997,2414
6998,2082
6999,1690
7000,1686
7001,1712
7002,1731
7003,1754
7004,1770
7005,1780
7006,1792
7007,1804
7008,1813
7009,1819
7010,1824
7011,1826
7012,1837
7013,1838
7014,1841
7015,1849
7016,1846
7017,1849
7018,1845
7019,1857
7020,1856
7021,1843
7022,2000
7023,1807
7024,1807
7025,1813
7026,1822
7027,2019
7028,2387
7029,2250
7030,1730
7031,1695
7032,1713
7033,1735
7034,1755
7035,1770
7036,1783
7037,1797
7038,1804
7039,1814
7040,1821
7041,1829
7042,1835
7043,1839
7044,1840
7045,1847
7046,1846
7047,1847
7048,1847
7049,1857
7050,1853
7051,1847
7052,1847
7053,2255
7054,1825
7055,1808
7056,1815
7057,1824
7058,1865
7059,2302
7060,2349
7061,1787
7062,1703
7063,1725
7064,1744
7065,1762
7066,1776
7067,1790
7068,1799
7069,1808
7070,1815
7071,1822
7072,1833
7073,1834
7074,1839
7075,1843
7076,1843
7077,1845
7078,1847
7079,1851
7080,1847
7081,1847
7082,1851
7083,1854
7084,2353
7085,1867
7086,1808
7087,1813
7088,1824
7089,1835
7090,2272
7091,2414
7092,1842
7093,1697
7094,1714
7095,1739
7096,1753
7097,1773
7098,1786
7099,1795
7100,1807
7101,1812
7102,1821
7103,1827
7104,1835
7105,1840
7106,1840
7107,1842
7108,1842
7109,1850
7110,1843
7111,1848
7112,1847
7113,1853
7114,1851
7115,1922
7116,1954
7117,1808
7118,1811
7119,1819
7120,1824
7121,2160
7122,2418
7123,1983
7124,1701
7125,1712
7126,1733
7127,1751
7128,1766
7129,1782
7130,1792
7131,1806
7132,1810
7133,1819
7134,1827
7135,1837
7136,1839
7137,1841
7138,1842
7139,1850
7140,1852
7141,1853
7142,1854
7143,1841
7144,1843
7145,1847
7146,1853
7147,2099
7148,1818
7149,1809
7150,1817
7151,1826
7152,2047
7153,2431
7154,2137
7155,1709
7156,1710
7157,1728
7158,1749
7159,1766
7160,1779
7161,1793
7162,1802
7163,1810
7164,1819
7165,1824
7166,1832
7167,1839
7168,1839
7169,1842
7170,1840
7171,1842
7172,1845
7173,1850
7174,1851
7175,1853
7176,1855
7177,1856
7178,2332
7179,1842
7180,1815
7181,1821
7182,1827
7183,1909
7184,2384
7185,2357
7186,1742
7187,1691
7188,1714
7189,1739
7190,1752
7191,1771
7192,1785
7193,1795
7194,1806
7195,1815
7196,1820
7197,1827
7198,1830
7199,1838
7200,1837
7201,1840
7202,1843
7203,1847
7204,1849
7205,1847
7206,1849
7207,1850
7208,1856
7209,2087
7210,1886
7211,1815
7212,1823
7213,1826
7214,1832
7215,2267
7216,2454
7217,1811
7218,1697
7219,1717
7220,1739
7221,1757
7222,1775
7223,1783
7224,1793
7225,1802
7226,1810
7227,1819
7228,1822
7229,1837
7230,1840
7231,1840
7232,1841
7233,1835
7234,1839
7235,1840
7236,1845
7237,1846
7238,1850
7239,1851
7240,1854
7241,1979
7242,1815
7243,1818
7244,1824
7245,1828
7246,2062
7247,2479
7248,1939
7249,1712
7250,1725
7251,1744
7252,1765
7253,1776
7254,1791
7255,1807
7256,1809
7257,1817
7258,1824
7259,1828
7260,1829
7261,1836
7262,1840
7263,1842
7264,1843
7265,1846
7266,1849
7267,1853
7268,1854
7269,1855
7270,1855
7271,1856
7272,2237
7273,1831
7274,1815
7275,1823
7276,1827
7277,1839
7278,2377
7279,2215
7280,1737
7281,1730
7282,1746
7283,1765
7284,1777
7285,1792
7286,1805
7287,1809
7288,1814
7289,1827
7290,1825
7291,1829
7292,1837
7293,1840
7294,1843
7295,1846
7296,1849
7297,1850
7298,1852
7299,1854
7300,1855
7301,1855
7302,1858
7303,2359
7304,1856
7305,1819
7306,1823
7307,1830
7308,1836
7309,2240
7310,2329
7311,1763
7312,1733
7313,1751
7314,1766
7315,1783
7316,1793
7317,1803
7318,1808
7319,1821
7320,1829
7321,1822
7322,1824
7323,1833
7324,1838
7325,1840
7326,1842
7327,1847
7328,1851
7329,1851
7330,1853
7331,1855
7332,1854
7333,1857
7334,1948
7335,1920
7336,1817
7337,1821
7338,1828
7339,1831
7340,2064
7341,2402
7342,1821
7343,1738
7344,1751
7345,1772
7346,1783
7347,1794
7348,1804
7349,1821
7350,1817
7351,1819
7352,1826
7353,1831
7354,1835
7355,1840
7356,1843
7357,1845
7358,1847
7359,1850
7360,1850
7361,1855
7362,1856
7363,1856
7364,1856
7365,1857
7366,2117
7367,1827
7368,1821
7369,1826
7370,1831
7371,1857
7372,2448
7373,2016
7374,1732
7375,1742
7376,1758
7377,1774
7378,1783
7379,1795
7380,1804
7381,1809
7382,1818
7383,1825
7384,1831
7385,1837
7386,1840
7387,1844
7388,1845
7389,1849
7390,1850
7391,1854
7392,1853
7393,1856
7394,1856
7395,1856
7396,1858
7397,1859
7398,1857
7399,1860
7400,1859
7401,1859
7402,1859
7403,1861
7404,1861
7405,1865
7406,1859
7407,1863
7408,1859
7409,1859
7410,1856
7411,1856
7412,1856
7413,1856
7414,1857
7415,1857
7416,1859
7417,1858
7418,1861
7419,1859
7420,1857
7421,1859
7422,1859
7423,1859
7424,1861
7425,1859
7426,1859
7427,1860
7428,1861
7429,1859
7430,1862
7431,1862
7432,1860
7433,1863
7434,1861
7435,1866
7436,1861
7437,1863
7438,1861
7439,1869
7440,1869
7441,1866
7442,1859
7443,1852
7444,1854
7445,1855
7446,1856
7447,1856
7448,1859
7449,1859
7450,1858
7451,1861
7452,1861
7453,1858
7454,1862
7455,1862
7456,1862
7457,1863
7458,1861
7459,1863
7460,1859
7461,1861
7462,1862
7463,1862
7464,1861
7465,1867
7466,1865
7467,1865
7468,1859
7469,1860
7470,1857
7471,1857
7472,1859
7473,1857
7474,1859
7475,1859
7476,1859
7477,1859
7478,1861
7479,1861
7480,1861
7481,1860
7482,1861
7483,1862
7484,1863
7485,1859
7486,1861
7487,1860
7488,1861
7489,1862
7490,1862
7491,1862
7492,1861
7493,1859
7494,1861
7495,1863
7496,1862
7497,1862
7498,1858
7499,1862
7500,1858
7501,1856
7502,1858
7503,1861
7504,1859
7505,1859
7506,1860
7507,1861
7508,1861
7509,1862
7510,1861
7511,1860
7512,1859
7513,1860
7514,1860
7515,1859
7516,1859
7517,1859
7518,1861
7519,1860
7520,1860
7521,1856
7522,1859
7523,1861
7524,1859
7525,1857
7526,1858
7527,1859
7528,1856
7529,1863
7530,1864
7531,1862
7532,1858
7533,1851
7534,1851
7535,1851
7536,1856
7537,1857
7538,1856
7539,1857
7540,1862
7541,1860
7542,1862
7543,1859
7544,1861
7545,1862
7546,1861
7547,1863
7548,1862
7549,1863
7550,1864
7551,1861
7552,1863
7553,1861
7554,1861
7555,1866
7556,1861
7557,1865
7558,1861
7559,1861
7560,1858
7561,1858
7562,1858
7563,1858
7564,1859
7565,1861
7566,1860
7567,1860
7568,1863
7569,1860
7570,1859
7571,1863
7572,1861
7573,1862
7574,1861
7575,1862
7576,1860
7577,1863
7578,1861
7579,1863
7580,1859
7581,1861
7582,1861
7583,1861
7584,1863
7585,1863
7586,1861
7587,1862
7588,1859
7589,1862
7590,1857
7591,1857
7592,1860
7593,1858
7594,1858
7595,1861
7596,1859
7597,1859
7598,1861
7599,1862
7600,1863
7601,1862
7602,1863
7603,1861
7604,1861
7605,1865
7606,1862
7607,1862
7608,1859
7609,1861
7610,1861
7611,1859
7612,1862
7613,1861
7614,1862
7615,1863
7616,1863
7617,1857
7618,1855
7619,1861
7620,1865
7621,1851
7622,1850
7623,1856
7624,1855
7625,1855
7626,1857
7627,1858
7628,1858
7629,1859
7630,1859
7631,1861
7632,1860
7633,1861
7634,1861
7635,1861
7636,1859
7637,1863
7638,1861
7639,1867
7640,1861
7641,1861
7642,1863
7643,1861
7644,1861
7645,1868
7646,1863
7647,1861
7648,1861
7649,1871
7650,1867
7651,1867
7652,1861
7653,1854
7654,1853
7655,1853
7656,1855
7657,1855
7658,1857
7659,1856
7660,1857
7661,1860
7662,1860
7663,1861
7664,1860
7665,1862
7666,1862
7667,1861
7668,1862
7669,1859
7670,1861
7671,1861
7672,1863
7673,1863
7674,1863
7675,1865
7676,1865
7677,1864
7678,1861
7679,1863
7680,1856
7681,1857
7682,1858
7683,1858
7684,1861
7685,1859
7686,1861
7687,1863
7688,1862
7689,1862
7690,1863
7691,1861
7692,1861
7693,1862
7694,1861
7695,1862
7696,1863
7697,1861
7698,1861
7699,1862
7700,1861
7701,1863
7702,1866
7703,1862
7704,1862
7705,1870
7706,1867
7707,1861
7708,1859
7709,1863
7710,1856
7711,1857
7712,1859
7713,1856
7714,1860
7715,1861
7716,1859
7717,1858
7718,1858
7719,1858
7720,1859
7721,1856
7722,1857
7723,1859
7724,1859
7725,1857
7726,1861
7727,1860
7728,1862
7729,1861
7730,1862
7731,1861
7732,1863
7733,1861
7734,1863
7735,1866
7736,1862
7737,1863
7738,1862
7739,1869
7740,1867
7741,1866
7742,1862
7743,1852
7744,1855
7745,1855
7746,1856
7747,1856
7748,1859
7749,1857
7750,1859
7751,1860
7752,1859
7753,1862
7754,1862
7755,1859
7756,1859
7757,1859
7758,1860
7759,1862
7760,1861
7761,1863
7762,1859
7763,1862
7764,1861
7765,1865
7766,1861
7767,1860
7768,1861
7769,1863
7770,1856
7771,1856
7772,1858
7773,1856
7774,1859
7775,1859
7776,1858
7777,1859
7778,1862
7779,1861
7780,1859
7781,1862
7782,1861
7783,1862
7784,1861
7785,1865
7786,1859
7787,1863
7788,1863
7789,1861
7790,1862
7791,1859
7792,1861
7793,1861
7794,1863
7795,1866
7796,1863
7797,1862
7798,1859
7799,1862
7800,1860
7801,1862
7802,1861
7803,1858
7804,1859
7805,1858
7806,1859
7807,1858
7808,1857
7809,1859
7810,1860
7811,1861
7812,1862
7813,1861
7814,1863
7815,1861
7816,1860
7817,1859
7818,1861
7819,1858
7820,1865
7821,1859
7822,1857
7823,1858
7824,1858
7825,1856
7826,1856
7827,1856
7828,1857
7829,1863
7830,1863
7831,1861
7832,1855
7833,1851
7834,1856
7835,1853
7836,1856
7837,1856
7838,1857
7839,1858
7840,1857
7841,1859
7842,1861
7843,1861
7844,1860
7845,1861
7846,1861
7847,1863
7848,1862
7849,1862
7850,1861
7851,1863
7852,1862
7853,1862
7854,1865
7855,1868
7856,1862
7857,1864
7858,1861
7859,1862
7860,1856
7861,1858
7862,1858
7863,1858
7864,1861
7865,1862
7866,1863
7867,1861
7868,1863
7869,1863
7870,1863
7871,1863
7872,1862
7873,1863
7874,1862
7875,1862
7876,1863
7877,1863
7878,1864
7879,1861
7880,1862
7881,1863
7882,1862
7883,1863
7884,1866
7885,1867
7886,1867
7887,1861
7888,1861
7889,1865
7890,1856
7891,1856
7892,1861
7893,1858
7894,1861
7895,1861
7896,1860
7897,1859
7898,1861
7899,1861
7900,1865
7901,1862
7902,1862
7903,1863
7904,1865
7905,1861
7906,1863
7907,1861
7908,1861
7909,1860
7910,1861
7911,1863
7912,1864
7913,1861
7914,1858
7915,1863
7916,1862
7917,1859
7918,1859
7919,1869
7920,1864
7921,1855
7922,1853
7923,1855
7924,1856
7925,1858
7926,1858
7927,1857
7928,1859
7929,1860
7930,1861
7931,1861
7932,1862
7933,1861
7934,1861
7935,1862
7936,1865
7937,1861
7938,1863
7939,1863
7940,1862
7941,1866
7942,1863
7943,1861
7944,1863
7945,1865
7946,1866
7947,1865
7948,1862
7949,1866
7950,1859
7951,1854
7952,1856
7953,1856
7954,1856
7955,1858
7956,1858
7957,1857
7958,1861
7959,1860
7960,1861
7961,1863
7962,1860
7963,1862
7964,1862
7965,1859
7966,1862
7967,1862
7968,1861
7969,1866
7970,1861
7971,1862
7972,1863
7973,1862
7974,1860
7975,1867
7976,1862
7977,1859
7978,1859
7979,1861
7980,1857
7981,1858
7982,1856
7983,1857
7984,1859
7985,1861
7986,1858
7987,1861
7988,1861
7989,1862
7990,1861
7991,1860
7992,1862
7993,1860
7994,1863
7995,1861
7996,1863
7997,1863
7998,1862
7999,1861
8000,1863
8001,1863
8002,1862
8003,1862
8004,1863
8005,1866
8006,1862
8007,1861
8008,1858
8009,1862
8010,1856
8011,1855
8012,1856
8013,1858
8014,1857
8015,1857
8016,1861
8017,1857
8018,1859
8019,1861
8020,1859
8021,1856
8022,1861
8023,1858
8024,1859
8025,1858
8026,1860
8027,1858
8028,1861
8029,1860
8030,1861
8031,1860
8032,1861
8033,1859
8034,1861
8035,1866
8036,1859
8037,1861
8038,1861
8039,1867
8040,1865
8041,1863
8042,1856
8043,1853
8044,1853
8045,1855
8046,1857
8047,1856
8048,1858
8049,1858
8050,1859
8051,1857
8052,1859
8053,1859
8054,1859
8055,1861
8056,1862
8057,1861
8058,1861
8059,1861
8060,1863
8061,1863
8062,1862
8063,1861
8064,1859
8065,1865
8066,1862
8067,1860
8068,1860
8069,1862
8070,1856
8071,1856
8072,1857
8073,1860
8074,1858
8075,1859
8076,1860
8077,1859
8078,1859
8079,1859
8080,1859
8081,1861
8082,1862
8083,1861
8084,1863
8085,1861
8086,1860
8087,1861
8088,1861
8089,1861
8090,1862
8091,1861
8092,1861
8093,1863
8094,1858
8095,1862
8096,1859
8097,1859
8098,1859
8099,1859
8100,1857
8101,1858
8102,1856
8103,1857
8104,1859
8105,1861
8106,1861
8107,1859
8108,1859
8109,1859
8110,1862
8111,1859
8112,1858
8113,1861
8114,1861
8115,1857
8116,1861
8117,1858
8118,1858
8119,1862
8120,1859
8121,1857
8122,1862
8123,1861
8124,1858
8125,1859
8126,1857
8127,1859
8128,1856
8129,1870
8130,1864
8131,1859
8132,1854
8133,1850
8134,1852
8135,1854
8136,1854
8137,1856
8138,1858
8139,1856
8140,1859
8141,1862
8142,1859
8143,1859
8144,1862
8145,1862
8146,1862
8147,1862
8148,1861
8149,1863
8150,1863
8151,1863
8152,1862
8153,1861
8154,1857
8155,1865
8156,1867
8157,1862
8158,1859
8159,1865
8160,1858
8161,1858
8162,1858
8163,1863
8164,1860
8165,1863
8166,1858
8167,1861
8168,1861
8169,1859
8170,1859
8171,1865
8172,1862
8173,1860
8174,1863
8175,1862
8176,1860
8177,1861
8178,1862
8179,1863
8180,1865
8181,1863
8182,1863
8183,1864
8184,1859
8185,1867
8186,1861
8187,1861
8188,1860
8189,1862
8190,1857
8191,1858
8192,1856
8193,1859
8194,1859
8195,1862
8196,1861
8197,1862
8198,1861
8199,1861
8200,1863
8201,1863
8202,1866
8203,1862
8204,1862
8205,1862
8206,1862
8207,1862
8208,1862
8209,1862
8210,1859
8211,1861
8212,1858
8213,1861
8214,1856
8215,1861
8216,1858
8217,1856
8218,1859
8219,1859
8220,1854
8221,1854
8222,1858
8223,1858
8224,1856
8225,1858
8226,1857
8227,1859
8228,1859
8229,1859
8230,1862
8231,1863
8232,1861
8233,1862
8234,1862
8235,1864
8236,1861
8237,1861
8238,1862
8239,1861
8240,1866
8241,1863
8242,1861
8243,1861
8244,1859
8245,1866
8246,1862
8247,1859
8248,1861
8249,1870
8250,1867
8251,1863
8252,1856
8253,1851
8254,1851
8255,1855
8256,1857
8257,1856
8258,1857
8259,1861
8260,1858
8261,1859
8262,1859
8263,1861
8264,1862
8265,1859
8266,1862
8267,1861
8268,1861
8269,1862
8270,1861
8271,1865
8272,1863
8273,1862
8274,1859
8275,1861
8276,1865
8277,1861
8278,1862
8279,1863
8280,1857
8281,1857
8282,1859
8283,1859
8284,1861
8285,1861
8286,1861
8287,1862
8288,1861
8289,1862
8290,1862
8291,1863
8292,1861
8293,1861
8294,1866
8295,1863
8296,1863
8297,1861
8298,1865
8299,1862
8300,1863
8301,1862
8302,1862
8303,1865
8304,1858
8305,1863
8306,1860
8307,1861
8308,1858
8309,1861
8310,1857
8311,1856
8312,1857
8313,1857
8314,1857
8315,1859
8316,1858
8317,1859
8318,1861
8319,1857
8320,1857
8321,1856
8322,1860
8323,1857
8324,1858
8325,1859
8326,1860
8327,1859
8328,1862
8329,1859
8330,1859
8331,1859
8332,1862
8333,1860
8334,1859
8335,1863
8336,1863
8337,1863
8338,1860
8339,1869
8340,1865
8341,1863
8342,1856
8343,1851
8344,1853
8345,1854
8346,1856
8347,1858
8348,1857
8349,1857
8350,1861
8351,1861
8352,1859
8353,1860
8354,1861
8355,1862
8356,1862
8357,1862
8358,1861
8359,1859
8360,1862
8361,1861
8362,1859
8363,1862
8364,1862
8365,1863
8366,1859
8367,1862
8368,1858
8369,1867
8370,1858
8371,1854
8372,1855
8373,1857
8374,1856
8375,1858
8376,1857
8377,1859
8378,1859
8379,1858
8380,1862
8381,1864
8382,1861
8383,1862
8384,1862
8385,1860
8386,1862
8387,1863
8388,1862
8389,1861
8390,1862
8391,1860
8392,1865
8393,1861
8394,1861
8395,1865
8396,1862
8397,1863
8398,2220
8399,1850
8400,1835
8401,1837
8402,1841
8403,1845
8404,1847
8405,2109
8406,2207
8407,2150
8408,1937
8409,1752
8410,1727
8411,1743
8412,1763
8413,1776
8414,1792
8415,1803
8416,1808
8417,1814
8418,1822
8419,1829
8420,1833
8421,1834
8422,1841
8423,1842
8424,1846
8425,1845
8426,1849
8427,1849
8428,1852
8429,2054
8430,1856
8431,1829
8432,1832
8433,1837
8434,1840
8435,1840
8436,1975
8437,2202
8438,2159
8439,1900
8440,1744
8441,1751
8442,1767
8443,1782
8444,1792
8445,1806
8446,1810
8447,1822
8448,1828
8449,1834
8450,1838
8451,1841
8452,1843
8453,1846
8454,1845
8455,1853
8456,1852
8457,1854
8458,1855
8459,1861
8460,1861
8461,1927
8462,1829
8463,1822
8464,1829
8465,1835
8466,1840
8467,2013
8468,2259
8469,2209
8470,1877
8471,1721
8472,1733
8473,1754
8474,1769
8475,1782
8476,1795
8477,1805
8478,1812
8479,1819
8480,1827
8481,1833
8482,1838
8483,1840
8484,1841
8485,1847
8486,1849
8487,1851
8488,1852
8489,1855
8490,1850
8491,1852
8492,2079
8493,1840
8494,1833
8495,1838
8496,1840
8497,1843
8498,1968
8499,2288
8500,2221
8501,1891
8502,1727
8503,1737
8504,1753
8505,1773
8506,1783
8507,1793
8508,1804
8509,1810
8510,1820
8511,1826
8512,1834
8513,1837
8514,1837
8515,1842
8516,1843
8517,1845
8518,1844
8519,1849
8520,1845
8521,1844
8522,1851
8523,2256
8524,1847
8525,1829
8526,1834
8527,1838
8528,1840
8529,1845
8530,2218
8531,2225
8532,1857
8533,1747
8534,1760
8535,1776
8536,1791
8537,1798
8538,1808
8539,1817
8540,1821
8541,1830
8542,1834
8543,1840
8544,1840
8545,1845
8546,1847
8547,1847
8548,1851
8549,1858
8550,1858
8551,1856
8552,1855
8553,1843
8554,1850
8555,1921
8556,1821
8557,1822
8558,1829
8559,1834
8560,1840
8561,2161
8562,2229
8563,1861
8564,1751
8565,1762
8566,1776
8567,1791
8568,1802
8569,1808
8570,1815
8571,1823
8572,1831
8573,1834
8574,1838
8575,1843
8576,1845
8577,1845
8578,1845
8579,1854
8580,1847
8581,1847
8582,1853
8583,1853
8584,1855
8585,1855
8586,2161
8587,1829
8588,1820
8589,1824
8590,1830
8591,1838
8592,2081
8593,2237
8594,1861
8595,1760
8596,1774
8597,1783
8598,1795
8599,1806
8600,1813
8601,1822
8602,1827
8603,1836
8604,1835
8605,1843
8606,1841
8607,1843
8608,1846
8609,1847
8610,1845
8611,1847
8612,1852
8613,1850
8614,1852
8615,1854
8616,1855
8617,2354
8618,1850
8619,1815
8620,1822
8621,1825
8622,1835
8623,2075
8624,2294
8625,1920
8626,1743
8627,1749
8628,1769
8629,1781
8630,1794
8631,1806
8632,1812
8633,1820
8634,1823
8635,1835
8636,1837
8637,1839
8638,1841
8639,1855
8640,1851
8641,1853
8642,1853
8643,1846
8644,1840
8645,1844
8646,1847
8647,1849
8648,1981
8649,1904
8650,1818
8651,1822
8652,1826
8653,1833
8654,1846
8655,2287
8656,2058
8657,1761
8658,1762
8659,1776
8660,1789
8661,1800
8662,1808
8663,1819
8664,1819
8665,1829
8666,1835
8667,1838
8668,1840
8669,1844
8670,1842
8671,1843
8672,1846
8673,1853
8674,1852
8675,1855
8676,1854
8677,1857
8678,1856
8679,1856
8680,2038
8681,1823
8682,1821
8683,1826
8684,1831
8685,1840
8686,2256
8687,2189
8688,1769
8689,1758
8690,1773
8691,1783
8692,1796
8693,1808
8694,1808
8695,1825
8696,1825
8697,1831
8698,1835
8699,1840
8700,1840
8701,1842
8702,1845
8703,1846
8704,1847
8705,1854
8706,1855
8707,1855
8708,1856
8709,1855
8710,1856
8711,2256
8712,1839
8713,1821
8714,1825
8715,1834
8716,1836
8717,2221
8718,2252
8719,1776
8720,1744
8721,1759
8722,1776
8723,1789
8724,1798
8725,1808
8726,1810
8727,1819
8728,1825
8729,1837
8730,1840
8731,1840
8732,1840
8733,1837
8734,1840
8735,1841
8736,1845
8737,1847
8738,1851
8739,1853
8740,1855
8741,1856
8742,2087
8743,1873
8744,1823
8745,1828
8746,1834
8747,1839
8748,1998
8749,2320
8750,1851
8751,1757
8752,1768
8753,1780
8754,1793
8755,1805
8756,1811
8757,1818
8758,1825
8759,1834
8760,1832
8761,1837
8762,1840
8763,1840
8764,1845
8765,1847
8766,1851
8767,1854
8768,1855
8769,1856
8770,1856
8771,1857
8772,1859
8773,1858
8774,1970
8775,1827
8776,1825
8777,1834
8778,1839
8779,1840
8780,2294
8781,1981
8782,1771
8783,1774
8784,1783
8785,1799
8786,1808
8787,1815
8788,1820
8789,1830
8790,1829
8791,1833
8792,1840
8793,1840
8794,1845
8795,1847
8796,1851
8797,1853
8798,1853
8799,1855
8800,1858
8801,1857
8802,1856
8803,1858
8804,1858
8805,2134
8806,1834
8807,1826
8808,1830
8809,1835
8810,1839
8811,2244
8812,2117
8813,1773
8814,1762
8815,1781
8816,1791
8817,1801
8818,1808
8819,1815
8820,1819
8821,1822
8822,1830
8823,1834
8824,1839
8825,1840
8826,1844
8827,1846
8828,1850
8829,1851
8830,1854
8831,1855
8832,1856
8833,1856
8834,1856
8835,1856
8836,2335
8837,1854
8838,1822
8839,1827
8840,1834
8841,1840
8842,2081
8843,2215
8844,1786
8845,1776
8846,1786
8847,1797
8848,1806
8849,1819
8850,1825
8851,1830
8852,1828
8853,1828
8854,1834
8855,1837
8856,1840
8857,1842
8858,1845
8859,1846
8860,1854
8861,1854
8862,1854
8863,1856
8864,1856
8865,1857
8866,1857
8867,1872
8868,1918
8869,1826
8870,1826
8871,1831
8872,1837
8873,1858
8874,2334
8875,1855
8876,1770
8877,1778
8878,1792
8879,1806
8880,1808
8881,1815
8882,1824
8883,1829
8884,1834
8885,1840
8886,1840
8887,1845
8888,1849
8889,1849
8890,1851
8891,1853
8892,1856
8893,1855
8894,1855
8895,1856
8896,1857
8897,1856
8898,1859
8899,2032
8900,1829
8901,1826
8902,1838
8903,1835
8904,1842
8905,2321
8906,1918
8907,1762
8908,1771
8909,1786
8910,1790
8911,1800
8912,1808
8913,1818
8914,1824
8915,1830
8916,1836
8917,1837
8918,1841
8919,1841
8920,1841
8921,1844
8922,1850
8923,1851
8924,1853
8925,1855
8926,1856
8927,1856
8928,1857
8929,1856
8930,2320
8931,1842
8932,1823
8933,1831
8934,1830
8935,1840
8936,2192
8937,2130
8938,1775
8939,1777
8940,1789
8941,1791
8942,1797
8943,1807
8944,1813
8945,1823
8946,1830
8947,1835
8948,1839
8949,1841
8950,1845
8951,1846
8952,1848
8953,1850
8954,1853
8955,1856
8956,1857
8957,1857
8958,1856
8959,1858
8960,1859
8961,2035
8962,1884
8963,1826
8964,1826
8965,1835
8966,1838
8967,1983
8968,2252
8969,1808
8970,1776
8971,1778
8972,1791
8973,1803
8974,1809
8975,1819
8976,1826
8977,1835
8978,1840
8979,1841
8980,1842
8981,1844
8982,1850
8983,1852
8984,1853
8985,1855
8986,1856
8987,1857
8988,1856
8989,1857
8990,1857
8991,1858
8992,1860
8993,1967
8994,1824
8995,1832
8996,1835
8997,1838
8998,1842
8999,2301
9000,1856
9001,1777
9002,1787
9003,1801
9004,1807
9005,1814
9006,1824
9007,1827
9008,1833
9009,1840
9010,1840
9011,1841
9012,1845
9013,1846
9014,1850
9015,1852
9016,1855
9017,1853
9018,1855
9019,1857
9020,1856
9021,1856
9022,1857
9023,1857
9024,1856
9025,1856
9026,1855
9027,1855
9028,1856
9029,1866
9030,1861
9031,1861
9032,1855
9033,1847
9034,1851
9035,1854
9036,1855
9037,1856
9038,1858
9039,1856
9040,1858
9041,1857
9042,1859
9043,1861
9044,1865
9045,1860
9046,1864
9047,1860
9048,1862
9049,1861
9050,1861
9051,1862
9052,1863
9053,1861
9054,1859
9055,1863
9056,1861
9057,1862
9058,1860
9059,1865
9060,1856
9061,1857
9062,1856
9063,1859
9064,1861
9065,1861
9066,1861
9067,1860
9068,1859
9069,1859
9070,1858
9071,1861
9072,1861
9073,1863
9074,1863
9075,1862
9076,1863
9077,1862
9078,1861
9079,1863
9080,1861
9081,1862
9082,1862
9083,1863
9084,1858
9085,1866
9086,1861
9087,1859
9088,1859
9089,1865
9090,1858
9091,1856
9092,1859
9093,1858
9094,1858
9095,1859
9096,1860
9097,1861
9098,1861
9099,1862
9100,1862
9101,1864
9102,1862
9103,1865
9104,1862
9105,1861
9106,1862
9107,1862
9108,1861
9109,1861
9110,1859
9111,1862
9112,1862
9113,1859
9114,1856
9115,1860
9116,1859
9117,1860
9118,1855
9119,1859
9120,1854
9121,1853
9122,1856
9123,1856
9124,1858
9125,1858
9126,1858
9127,1859
9128,1859
9129,1859
9130,1861
9131,1859
9132,1862
9133,1861
9134,1862
9135,1861
9136,1863
9137,1863
9138,1861
9139,1861
9140,1861
9141,1862
9142,1861
9143,1861
9144,1859
9145,1862
9146,1862
9147,1859
9148,1859
9149,1867
9150,1866
9151,1865
9152,1856
9153,1852
9154,1851
9155,1855
9156,1855
9157,1856
9158,1859
9159,1859
9160,1859
9161,1860
9162,1861
9163,1861
9164,1860
9165,1861
9166,1862
9167,1861
9168,1862
9169,1862
9170,1863
9171,1859
9172,1863
9173,1860
9174,1856
9175,1865
9176,1863
9177,1863
9178,1861
9179,1862
9180,1856
9181,1855
9182,1857
9183,1859
9184,1857
9185,1861
9186,1861
9187,1862
9188,1861
9189,1861
9190,1859
9191,1861
9192,1862
9193,1859
9194,1861
9195,1862
9196,1861
9197,1861
9198,1863
9199,1861
9200,1863
9201,1866
9202,1861
9203,1863
9204,1859
9205,1862
9206,1863
9207,1861
9208,1857
9209,1861
9210,1856
9211,1856
9212,1856
9213,1856
9214,1856
9215,1857
9216,1858
9217,1857
9218,1859
9219,1859
9220,1857
9221,1856
9222,1859
9223,1858
9224,1859
9225,1859
9226,1862
9227,1861
9228,1859
9229,1861
9230,1862
9231,1859
9232,1861
9233,1861
9234,1859
9235,1862
9236,1861
9237,1859
9238,1861
9239,1871
9240,1867
9241,1855
9242,1854
9243,1854
9244,1856
9245,1856
9246,1861
9247,1857
9248,1859
9249,1860
9250,1859
9251,1861
9252,1859
9253,1859
9254,1861
9255,1862
9256,1862
9257,1863
9258,1863
9259,1861
9260,1861
9261,1862
9262,1864
9263,1863
9264,1857
9265,1866
9266,1862
9267,1861
9268,1861
9269,1869
9270,1858
9271,1854
9272,1855
9273,1855
9274,1856
9275,1857
9276,1857
9277,1859
9278,1861
9279,1862
9280,1863
9281,1859
9282,1860
9283,1861
9284,1858
9285,1859
9286,1862
9287,1859
9288,1863
9289,1861
9290,1861
9291,1861
9292,1862
9293,1863
9294,1858
9295,1862
9296,1863
9297,1861
9298,1859
9299,1866
9300,1857
9301,1858
9302,1859
9303,1857
9304,1862
9305,1861
9306,1857
9307,1859
9308,1859
9309,1860
9310,1859
9311,1858
9312,1862
9313,1859
9314,1862
9315,1859
9316,1861
9317,1861
9318,1857
9319,1861
9320,1860
9321,1857
9322,1860
9323,1861
9324,1859
9325,1856
9326,1859
9327,1856
9328,1857
9329,1863
9330,1863
9331,1859
9332,1857
9333,1850
9334,1851
9335,1855
9336,1856
9337,1855
9338,1859
9339,1857
9340,1857
9341,1859
9342,1862
9343,1861
9344,1862
9345,1859
9346,1862
9347,1861
9348,1863
9349,1862
9350,1861
9351,1862
9352,1866
9353,1861
9354,1859
9355,1864
9356,1863
9357,1863
9358,1859
9359,1867
9360,1858
9361,1853
9362,1855
9363,1857
9364,1856
9365,1858
9366,1859
9367,1859
9368,1859
9369,1859
9370,1859
9371,1860
9372,1862
9373,1859
9374,1863
9375,1861
9376,1861
9377,1862
9378,1859
9379,1863
9380,1861
9381,1862
9382,1865
9383,1860
9384,1858
9385,1861
9386,1862
9387,1860
9388,1859
9389,1863
9390,1856
9391,1858
9392,1856
9393,1857
9394,1860
9395,1859
9396,1859
9397,1862
9398,1859
9399,1861
9400,1862
9401,1859
9402,1862
9403,1861
9404,1862
9405,1859
9406,1861
9407,1862
9408,1860
9409,1862
9410,1859
9411,1858
9412,1861
9413,1859
9414,1857
9415,1862
9416,1861
9417,1859
9418,1858
9419,1861
9420,1855
9421,1854
9422,1856
9423,1856
9424,1857
9425,1857
9426,1859
9427,1858
9428,1859
9429,1860
9430,1860
9431,1859
9432,1862
9433,1862
9434,1862
9435,1862
9436,1863
9437,1862
9438,1861
9439,1862
9440,1861
9441,1861
9442,1863
9443,1862
9444,1858
9445,1866
9446,1862
9447,1861
9448,1857
9449,1866
9450,1868
9451,1863
9452,1856
9453,1851
9454,1853
9455,1854
9456,1856
9457,1856
9458,1859
9459,1859
9460,1858
9461,1859
9462,1859
9463,1861
9464,1859
9465,1859
9466,1861
9467,1859
9468,1860
9469,1863
9470,1865
9471,1862
9472,1861
9473,1861
9474,1857
9475,1865
9476,1860
9477,1860
9478,1858
9479,1868
9480,1858
9481,1856
9482,1857
9483,1858
9484,1857
9485,1859
9486,1860
9487,1858
9488,1861
9489,1861
9490,1860
9491,1863
9492,1862
9493,1859
9494,1862
9495,1859
9496,1862
9497,1858
9498,1860
9499,1862
9500,1864
9501,1865
9502,1865
9503,1863
9504,1858
9505,1863
9506,1861
9507,1858
9508,1857
9509,1862
9510,1855
9511,1853
9512,1856
9513,1856
9514,1857
9515,1859
9516,1857
9517,1858
9518,1856
9519,1857
9520,1858
9521,1857
9522,1861
9523,1857
9524,1858
9525,1858
9526,1859
9527,1859
9528,1860
9529,1859
9530,1862
9531,1861
9532,1861
9533,1862
9534,1857
9535,1865
9536,1861
9537,1859
9538,1861
9539,1871
9540,1866
9541,1866
9542,1856
9543,1853
9544,1854
9545,1854
9546,1855
9547,1856
9548,1857
9549,1859
9550,1861
9551,1859
9552,1863
9553,1861
9554,1859
9555,1859
9556,1862
9557,1862
9558,1859
9559,1862
9560,1861
9561,1861
9562,1859
9563,1862
9564,1858
9565,1862
9566,1861
9567,1865
9568,1859
9569,1863
9570,1857
9571,1857
9572,1857
9573,1858
9574,1859
9575,1858
9576,1858
9577,1861
9578,1857
9579,1859
9580,1863
9581,1858
9582,1859
9583,1862
9584,1860
9585,1861
9586,1865
9587,1863
9588,1862
9589,1862
9590,1863
9591,1862
9592,1865
9593,1861
9594,1856
9595,1862
9596,1860
9597,1859
9598,1860
9599,1865
9600,1857
9601,1856
9602,1857
9603,1858
9604,1858
9605,1862
9606,1859
9607,1860
9608,1860
9609,1862
9610,1861
9611,1858
9612,1860
9613,1861
9614,1861
9615,1861
9616,1860
9617,1859
9618,1859
9619,1861
9620,1862
9621,1857
9622,1861
9623,1861
9624,1859
9625,1857
9626,1857
9627,1856
9628,1857
9629,1866
9630,1861
9631,1862
9632,1857
9633,1855
9634,1850
9635,1851
9636,1855
9637,1856
9638,1856
9639,1856
9640,1856
9641,1858
9642,1859
9643,1860
9644,1860
9645,1861
9646,1862
9647,1859
9648,1863
9649,1861
9650,1861
9651,1863
9652,1863
9653,1861
9654,1861
9655,1866
9656,1861
9657,1863
9658,1858
9659,1868
9660,1856
9661,1856
9662,1857
9663,1857
9664,1861
9665,1861
9666,1857
9667,1858
9668,1862
9669,1858
9670,1859
9671,1860
9672,1861
9673,1861
9674,1864
9675,1861
9676,1861
9677,1863
9678,1862
9679,1862
9680,1862
9681,1862
9682,1860
9683,1862
9684,1858
9685,1866
9686,1862
9687,1859
9688,1859
9689,1862
9690,1856
9691,1856
9692,1858
9693,1859
9694,1859
9695,1861
9696,1862
9697,1859
9698,1859
9699,1862
9700,1862
9701,1866
9702,1861
9703,1862
9704,1859
9705,1861
9706,1862
9707,1860
9708,1862
9709,1862
9710,1862
9711,1859
9712,1858
9713,1860
9714,1856
9715,1863
9716,1859
9717,1857
9718,1855
9719,1862
9720,1855
9721,1853
9722,1857
9723,1856
9724,1857
9725,1857
9726,1859
9727,1859
9728,1858
9729,1862
9730,1861
9731,1860
9732,1862
9733,1862
9734,1863
9735,1859
9736,1863
9737,1861
9738,1859
9739,1860
9740,1860
9741,1862
9742,1859
9743,1861
9744,1858
9745,1863
9746,1863
9747,1859
9748,1859
9749,1866
9750,1867
9751,1861
9752,1856
9753,1849
9754,1850
9755,1853
9756,1856
9757,1857
9758,1856
9759,1857
9760,1857
9761,1861
9762,1862
9763,1861
9764,1863
9765,1859
9766,1859
9767,1861
9768,1861
9769,1862
9770,1863
9771,1860
9772,1862
9773,1862
9774,1857
9775,1862
9776,1860
9777,1858
9778,1858
9779,1863
9780,1855
9781,1857
9782,1858
9783,1858
9784,1860
9785,1860
9786,1861
9787,1861
9788,1858
9789,1863
9790,1861
9791,1859
9792,1861
9793,1861
9794,1863
9795,1861
9796,1862
9797,1861
9798,1861
9799,1863
9800,1861
9801,1866
9802,1861
9803,1861
9804,1859
9805,1862
9806,1861
9807,1861
9808,1859
9809,1865
9810,1856
9811,1856
9812,1856
9813,1857
9814,1859
9815,1857
9816,1859
9817,1858
9818,1857
9819,1856
9820,1856
9821,1856
9822,1857
9823,1856
9824,1857
9825,1858
9826,1860
9827,1863
9828,1861
9829,1861
9830,1861
9831,1863
9832,1862
9833,1858
9834,1857
9835,1862
9836,1861
9837,1860
9838,1862
9839,1863
9840,1863
9841,1865
9842,1856
9843,1852
9844,1853
9845,1856
9846,1856
9847,1858
9848,1856
9849,1858
9850,1861
9851,1858
9852,1862
9853,1860
9854,1862
9855,1860
9856,1859
9857,1860
9858,1861
9859,1862
9860,1862
9861,1858
9862,1859
9863,1862
9864,1856
9865,1865
9866,1862
9867,1863
9868,1863
9869,1866
9870,1858
9871,1854
9872,1856
9873,1856
9874,1857
9875,1857
9876,1858
9877,1859
9878,1858
9879,1859
9880,1861
9881,1861
9882,1861
9883,1865
9884,1861
9885,1865
9886,1863
9887,1861
9888,1863
9889,1861
9890,1861
9891,1859
9892,1861
9893,1861
9894,1857
9895,1866
9896,1861
9897,1861
9898,1859
9899,1870
9900,1855
9901,1857
9902,1858
9903,1859
9904,1859
9905,1858
9906,1862
9907,1861
9908,1862
9909,1860
9910,1861
9911,1859
9912,1859
9913,1861
9914,1860
9915,1860
9916,1859
9917,1856
9918,1857
9919,1862
9920,1858
9921,1861
9922,1860
9923,1858
9924,1856
9925,1856
9926,1856
9927,1856
9928,1861
9929,1866
9930,1862
9931,1863
9932,1856
9933,1851
9934,1851
9935,1855
9936,1856
9937,1856
9938,1856
9939,1862
9940,1858
9941,1860
9942,1859
9943,1859
9944,1859
9945,1862
9946,1859
9947,1861
9948,1863
9949,1863
9950,1863
9951,1863
9952,1862
9953,1862
9954,1857
9955,1866
9956,1863
9957,1859
9958,1858
9959,1866
9960,1855
9961,1856
9962,1858
9963,1859
9964,1861
9965,1860
9966,1863
9967,1859
9968,1862
9969,1863
9970,1860
9971,1862
9972,1860
9973,1862
9974,1859
9975,1859
9976,1863
9977,1861
9978,1863
9979,1861
9980,1862
9981,1861
9982,1862
9983,1861
9984,1856
9985,1867
9986,1862
9987,1861
9988,1859
9989,1865
9990,1855
9991,1857
9992,1856
9993,1856
9994,1856
9995,1859
9996,1859
9997,1859
9998,1861
9999,1861
10000,1862
10001,1862
10002,1865
10003,1862
10004,1861
10005,1860
10006,1862
10007,1861
10008,1859
10009,1859
10010,1859
10011,1860
10012,1859
10013,1863
10014,1857
10015,1860
10016,1860
10017,1856
10018,1856
10019,1862
10020,1853
10021,1857
10022,1856
10023,1857
10024,1856
10025,2120
10026,1841
10027,1839
10028,1839
10029,1840
10030,1843
10031,1942
10032,2193
10033,2278
10034,2211
10035,2001
10036,1821
10037,1680
10038,1687
10039,1712
10040,1737
10041,1755
10042,1769
10043,1782
10044,1790
10045,1807
10046,1815
10047,1821
10048,1826
10049,1835
10050,1840
10051,1838
10052,1834
10053,1840
10054,1841
10055,1845
10056,2096
10057,1855
10058,1828
10059,1831
10060,1836
10061,1840
10062,1843
10063,2046
10064,2295
10065,2251
10066,2013
10067,1731
10068,1702
10069,1719
10070,1741
10071,1761
10072,1776
10073,1789
10074,1794
10075,1811
10076,1814
10077,1822
10078,1827
10079,1840
10080,1835
10081,1831
10082,1839
10083,1840
10084,1840
10085,1845
10086,1848
10087,1851
10088,1891
10089,1827
10090,1831
10091,1836
10092,1839
10093,1842
10094,2064
10095,2288
10096,2223
10097,1982
10098,1712
10099,1710
10100,1731
10101,1750
10102,1770
10103,1779
10104,1788
10105,1805
10106,1810
10107,1817
10108,1823
10109,1831
10110,1826
10111,1833
10112,1838
10113,1840
10114,1842
10115,1845
10116,1846
10117,1847
10118,1851
10119,2024
10120,1831
10121,1831
10122,1835
10123,1839
10124,1858
10125,2178
10126,2294
10127,2234
10128,1936
10129,1680
10130,1689
10131,1715
10132,1739
10133,1754
10134,1766
10135,1790
10136,1798
10137,1808
10138,1810
10139,1825
10140,1831
10141,1836
10142,1830
10143,1829
10144,1837
10145,1839
10146,1841
10147,1844
10148,1847
10149,1847
10150,2293
10151,1843
10152,1825
10153,1834
10154,1840
10155,1847
10156,2160
10157,2289
10158,2220
10159,1855
10160,1691
10161,1710
10162,1730
10163,1747
10164,1767
10165,1786
10166,1793
10167,1803
10168,1809
10169,1815
10170,1819
10171,1824
10172,1833
10173,1838
10174,1840
10175,1841
10176,1846
10177,1847
10178,1850
10179,1851
10180,1855
10181,1858
10182,1910
10183,1824
10184,1825
10185,1830
10186,1870
10187,2160
10188,2295
10189,2254
10190,1850
10191,1677
10192,1695
10193,1719
10194,1742
10195,1761
10196,1775
10197,1783
10198,1797
10199,1810
10200,1809
10201,1822
10202,1826
10203,1835
10204,1838
10205,1840
10206,1840
10207,1845
10208,1846
10209,1847
10210,1849
10211,1853
10212,1854
10213,2089
10214,1829
10215,1821
10216,1827
10217,1834
10218,2079
10219,2284
10220,2277
10221,1872
10222,1691
10223,1703
10224,1725
10225,1744
10226,1762
10227,1776
10228,1782
10229,1806
10230,1811
10231,1821
10232,1818
10233,1817
10234,1825
10235,1832
10236,1838
10237,1839
10238,1842
10239,1846
10240,1846
10241,1851
10242,1851
10243,1855
10244,2295
10245,1842
10246,1823
10247,1831
10248,1834
10249,1969
10250,2269
10251,2352
10252,1970
10253,1692
10254,1700
10255,1725
10256,1744
10257,1762
10258,1776
10259,1792
10260,1794
10261,1807
10262,1810
10263,1819
10264,1826
10265,1833
10266,1838
10267,1840
10268,1841
10269,1843
10270,1850
10271,1850
10272,1853
10273,1855
10274,1855
10275,2016
10276,1873
10277,1825
10278,1829
10279,1835
10280,1840
10281,2197
10282,2416
10283,2123
10284,1705
10285,1699
10286,1722
10287,1743
10288,1757
10289,1779
10290,1783
10291,1794
10292,1807
10293,1810
10294,1819
10295,1828
10296,1835
10297,1837
10298,1840
10299,1843
10300,1846
10301,1850
10302,1851
10303,1853
10304,1855
10305,1856
10306,1855
10307,1939
10308,1827
10309,1826
10310,1831
10311,1837
10312,2059
10313,2390
10314,2193
10315,1727
10316,1710
10317,1727
10318,1744
10319,1767
10320,1773
10321,1787
10322,1795
10323,1807
10324,1811
10325,1819
10326,1826
10327,1831
10328,1839
10329,1840
10330,1841
10331,1846
10332,1847
10333,1851
10334,1853
10335,1855
10336,1855
10337,1856
10338,2116
10339,1833
10340,1824
10341,1830
10342,1835
10343,1902
10344,2358
10345,2323
10346,1767
10347,1706
10348,1723
10349,1747
10350,1767
10351,1779
10352,1785
10353,1791
10354,1801
10355,1808
10356,1815
10357,1823
10358,1830
10359,1837
10360,1840
10361,1841
10362,1845
10363,1851
10364,1849
10365,1853
10366,1853
10367,1854
10368,1856
10369,2289
10370,1857
10371,1824
10372,1825
10373,1833
10374,1855
10375,2259
10376,2398
10377,1869
10378,1697
10379,1722
10380,1732
10381,1751
10382,1771
10383,1779
10384,1793
10385,1804
10386,1811
10387,1819
10388,1827
10389,1831
10390,1839
10391,1840
10392,1844
10393,1845
10394,1850
10395,1851
10396,1851
10397,1855
10398,1853
10399,1856
10400,1861
10401,1904
10402,1824
10403,1829
10404,1836
10405,1839
10406,2241
10407,2416
10408,1936
10409,1702
10410,1710
10411,1729
10412,1749
10413,1767
10414,1778
10415,1792
10416,1799
10417,1808
10418,1813
10419,1825
10420,1829
10421,1840
10422,1837
10423,1840
10424,1842
10425,1845
10426,1847
10427,1850
10428,1852
10429,1851
10430,1855
10431,1857
10432,2071
10433,1829
10434,1825
10435,1834
10436,1839
10437,2093
10438,2403
10439,2183
10440,1718
10441,1710
10442,1721
10443,1739
10444,1757
10445,1774
10446,1785
10447,1798
10448,1808
10449,1814
10450,1821
10451,1829
10452,1834
10453,1840
10454,1840
10455,1842
10456,1846
10457,1847
10458,1849
10459,1853
10460,1854
10461,1856
10462,1855
10463,2336
10464,1847
10465,1829
10466,1830
10467,1836
10468,1951
10469,2338
10470,2363
10471,1755
10472,1693
10473,1712
10474,1735
10475,1756
10476,1771
10477,1783
10478,1796
10479,1808
10480,1814
10481,1820
10482,1826
10483,1835
10484,1840
10485,1840
10486,1842
10487,1843
10488,1850
10489,1850
10490,1854
10491,1855
10492,1853
10493,1856
10494,2047
10495,1874
10496,1827
10497,1827
10498,1832
10499,1869
10500,2277
10501,2439
10502,1824
10503,1690
10504,1712
10505,1733
10506,1753
10507,1769
10508,1777
10509,1794
10510,1805
10511,1810
10512,1818
10513,1823
10514,1830
10515,1835
10516,1839
10517,1840
10518,1842
10519,1847
10520,1846
10521,1852
10522,1852
10523,1854
10524,1851
10525,1853
10526,1951
10527,1823
10528,1825
10529,1835
10530,1839
10531,2127
10532,2486
10533,2070
10534,1685
10535,1695
10536,1722
10537,1743
10538,1759
10539,1776
10540,1788
10541,1798
10542,1808
10543,1813
10544,1824
10545,1829
10546,1835
10547,1839
10548,1841
10549,1843
10550,1847
10551,1847
10552,1853
10553,1851
10554,1856
10555,1854
10556,1856
10557,2158
10558,1837
10559,1826
10560,1824
10561,1829
10562,1918
10563,2441
10564,2288
10565,1719
10566,1703
10567,1725
10568,1744
10569,1763
10570,1777
10571,1790
10572,1801
10573,1808
10574,1817
10575,1822
10576,1828
10577,1833
10578,1838
10579,1841
10580,1843
10581,1847
10582,1850
10583,1851
10584,1856
10585,1855
10586,1858
10587,1856
10588,2307
10589,1859
10590,1818
10591,1826
10592,1831
10593,1839
10594,2309
10595,2410
10596,1774
10597,1707
10598,1727
10599,1744
10600,1767
10601,1781
10602,1793
10603,1802
10604,1810
10605,1818
10606,1823
10607,1829
10608,1835
10609,1839
10610,1840
10611,1842
10612,1843
10613,1850
10614,1850
10615,1855
10616,1851
10617,1852
10618,1847
10619,1857
10620,1913
10621,1814
10622,1822
10623,1825
10624,1834
10625,2177
10626,2423
10627,1872
10628,1710
10629,1724
10630,1745
10631,1763
10632,1778
10633,1789
10634,1802
10635,1811
10636,1819
10637,1823
10638,1831
10639,1837
10640,1840
10641,1840
10642,1843
10643,1846
10644,1852
10645,1855
10646,1853
10647,1852
10648,1855
10649,1861
10650,1860
10651,1861
10652,1856
10653,1851
10654,1845
10655,1850
10656,1851
10657,1855
10658,1856
10659,1856
10660,1857
10661,1857
10662,1858
10663,1859
10664,1856
10665,1861
10666,1861
10667,1860
10668,1863
10669,1860
10670,1861
10671,1861
10672,1861
10673,1861
10674,1859
10675,1863
10676,1860
10677,1859
10678,1862
10679,1862
10680,1857
10681,1859
10682,1859
10683,1858
10684,1859
10685,1860
10686,1862
10687,1862
10688,1861
10689,1860
10690,1859
10691,1859
10692,1863
10693,1863
10694,1863
10695,1864
10696,1865
10697,1859
10698,1862
10699,1862
10700,1864
10701,1866
10702,1863
10703,1861
10704,1862
10705,1863
10706,1863
10707,1861
10708,1858
10709,1858
10710,1857
10711,1856
10712,1856
10713,1856
10714,1858
10715,1857
10716,1857
10717,1856
10718,1855
10719,1858
10720,1859
10721,1865
10722,1857
10723,1857
10724,1858
10725,1860
10726,1859
10727,1861
10728,1860
10729,1861
10730,1859
10731,1859
10732,1859
10733,1860
10734,1860
10735,1861
10736,1863
10737,1859
10738,1858
10739,1867
10740,1862
10741,1863
10742,1855
10743,1851
10744,1854
10745,1855
10746,1854
10747,1857
10748,1856
10749,1857
10750,1857
10751,1858
10752,1861
10753,1859
10754,1863
10755,1861
10756,1862
10757,1861
10758,1863
10759,1861
10760,1862
10761,1863
10762,1859
10763,1862
10764,1864
10765,1862
10766,1861
10767,1860
10768,1858
10769,1859
10770,1857
10771,1856
10772,1858
10773,1858
10774,1860
10775,1861
10776,1863
10777,1861
10778,1859
10779,1859
10780,1862
10781,1862
10782,1862
10783,1860
10784,1862
10785,1861
10786,1862
10787,1861
10788,1861
10789,1863
10790,1862
10791,1863
10792,1861
10793,1863
10794,1863
10795,1861
10796,1861
10797,1862
10798,1857
10799,1862
10800,1857
10801,1859
10802,1859
10803,1859
10804,1860
10805,1858
10806,1859
10807,1859
10808,1858
10809,1860
10810,1861
10811,1861
10812,1857
10813,1859
10814,1861
10815,1861
10816,1858
10817,1861
10818,1856
10819,1865
10820,1865
10821,1858
10822,1857
10823,1858
10824,1858
10825,1858
10826,1857
10827,1856
10828,1857
10829,1862
10830,1861
10831,1861
10832,1855
10833,1849
10834,1851
10835,1856
10836,1857
10837,1856
10838,1857
10839,1856
10840,1859
10841,1857
10842,1861
10843,1859
10844,1861
10845,1861
10846,1862
10847,1862
10848,1860
10849,1861
10850,1860
10851,1861
10852,1861
10853,1862
10854,1863
10855,1864
10856,1863
10857,1859
10858,1863
10859,1861
10860,1855
10861,1856
10862,1856
10863,1859
10864,1857
10865,1862
10866,1859
10867,1859
10868,1860
10869,1862
10870,1859
10871,1861
10872,1859
10873,1863
10874,1860
10875,1862
10876,1859
10877,1862
10878,1861
10879,1861
10880,1862
10881,1862
10882,1862
10883,1862
10884,1863
10885,1864
10886,1861
10887,1859
10888,1862
10889,1849
10890,1857
10891,1858
10892,1857
10893,1861
10894,1860
10895,1861
10896,1861
10897,1859
10898,1860
10899,1859
10900,1862
10901,1865
10902,1862
10903,1863
10904,1862
10905,1866
10906,1862
10907,1861
10908,1861
10909,1861
10910,1861
10911,1860
10912,1858
10913,1859
10914,1859
10915,1863
10916,1859
10917,1856
10918,1856
10919,1865
10920,1856
10921,1861
10922,1855
10923,1856
10924,1857
10925,1857
10926,1857
10927,1861
10928,1859
10929,1861
10930,1857
10931,1859
10932,1862
10933,1860
10934,1860
10935,1859
10936,1863
10937,1862
10938,1861
10939,1863
10940,1860
10941,1861
10942,1862
10943,1865
10944,1866
10945,1865
10946,1862
10947,1859
10948,1858
10949,1867
10950,1867
10951,1863
10952,1859
10953,1853
10954,1854
10955,1856
10956,1858
10957,1857
10958,1858
10959,1856
10960,1859
10961,1861
10962,1861
10963,1861
10964,1859
10965,1861
10966,1859
10967,1861
10968,1862
10969,1862
10970,1865
10971,1863
10972,1860
10973,1862
10974,1862
10975,1863
10976,1864
10977,1858
10978,1859
10979,1860
10980,1855
10981,1855
10982,1855
10983,1858
10984,1861
10985,1857
10986,1861
10987,1858
10988,1863
10989,1862
10990,1861
10991,1862
10992,1862
10993,1861
10994,1861
10995,1863
10996,1861
10997,1861
10998,1862
10999,1860
11000,1861
11001,1861
11002,1866
11003,1862
11004,1863
11005,1861
11006,1863
11007,1861
11008,1856
11009,1859
11010,1855
11011,1856
11012,1857
11013,1856
11014,1855
11015,1856
11016,1857
11017,1858
11018,1855
11019,1859
11020,1857
11021,1863
11022,1859
11023,1858
11024,1858
11025,1859
11026,1861
11027,1858
11028,1860
11029,1861
11030,1862
11031,1859
11032,1862
11033,1861
11034,1862
11035,1864
11036,1861
11037,1859
11038,1862
11039,1867
11040,1866
11041,1861
11042,1858
11043,1851
11044,1853
11045,1853
11046,1856
11047,1856
11048,1856
11049,1859
11050,1860
11051,1858
11052,1859
11053,1861
11054,1861
11055,1863
11056,1863
11057,1860
11058,1861
11059,1861
11060,1861
11061,1863
11062,1861
11063,1859
11064,1872
11065,1863
11066,1859
11067,1861
11068,1860
11069,1861
11070,1857
11071,1858
11072,1859
11073,1860
11074,1858
11075,1860
11076,1861
11077,1862
11078,1862
11079,1861
11080,1861
11081,1859
11082,1862
11083,1861
11084,1862
11085,1863
11086,1862
11087,1861
11088,1861
11089,1862
11090,1862
11091,1862
11092,1861
11093,1861
11094,1859
11095,1866
11096,1862
11097,1863
11098,1857
11099,1865
11100,1857
11101,1856
11102,1858
11103,1858
11104,1858
11105,1858
11106,1859
11107,1858
11108,1861
11109,1860
11110,1859
11111,1858
11112,1858
11113,1859
11114,1858
11115,1859
11116,1859
11117,1858
11118,1857
11119,1858
11120,1860
11121,1861
11122,1859
11123,1858
11124,1857
11125,1857
11126,1856
11127,1857
11128,1856
11129,1863
11130,1861
11131,1863
11132,1855
11133,1850
11134,1852
11135,1852
11136,1854
11137,1855
11138,1856
11139,1856
11140,1858
11141,1859
11142,1858
11143,1860
11144,1859
11145,1859
11146,1860
11147,1860
11148,1862
11149,1861
11150,1859
11151,1860
11152,1860
11153,1861
11154,1861
11155,1863
11156,1861
11157,1859
11158,1858
11159,1863
11160,1856
11161,1857
11162,1856
11163,1857
11164,1857
11165,1859
11166,1860
11167,1858
11168,1859
11169,1859
11170,1860
11171,1858
11172,1862
11173,1860
11174,1859
11175,1862
11176,1862
11177,1859
11178,1863
11179,1862
11180,1861
11181,1862
11182,1860
11183,1861
11184,1860
11185,1862
11186,1862
11187,1859
11188,1858
11189,1861
11190,1855
11191,1856
11192,1857
11193,1856
11194,1856
11195,1858
11196,1859
11197,1857
11198,1861
11199,1859
11200,1859
11201,1861
11202,1861
11203,1861
11204,1861
11205,1861
11206,1860
11207,1862
11208,1859
11209,1859
11210,1861
11211,1858
11212,1859
11213,1859
11214,1858
11215,1862
11216,1860
11217,1858
11218,1855
11219,1858
11220,1854
11221,1860
11222,1854
11223,1856
11224,1856
11225,1858
11226,1857
11227,1857
11228,1861
11229,1858
11230,1859
11231,1860
11232,1861
11233,1858
11234,1859
11235,1859
11236,1861
11237,1858
11238,1859
11239,1858
11240,1859
11241,1861
11242,1862
11243,1859
11244,1862
11245,1863
11246,1861
11247,1862
11248,1859
11249,1858
11250,1856
11251,1857
11252,1858
11253,1857
11254,1857
11255,1857
11256,1862
11257,1858
11258,1860
11259,1858
11260,1862
11261,1861
11262,1861
11263,1859
11264,1861
11265,1863
11266,1862
11267,1859
11268,1862
11269,1859
11270,1859
11271,1861
11272,1863
11273,1863
11274,1862
11275,1862
11276,1861
11277,1859
11278,1861
11279,1870
11280,1865
11281,1858
11282,1854
11283,1856
11284,1858
11285,1856
11286,1856
11287,1858
11288,1857
11289,1857
11290,1856
11291,1859
11292,1859
11293,1859
11294,1859
11295,1863
11296,1863
11297,1862
11298,1859
11299,1862
11300,1866
11301,1864
11302,1867
11303,1860
11304,1862
11305,1863
11306,1861
11307,1860
11308,1859
11309,1863
11310,1858
11311,1855
11312,1851
11313,1855
11314,1856
11315,1857
11316,1857
11317,1856
11318,1856
11319,1858
11320,1858
11321,1865
11322,1856
11323,1857
11324,1859
11325,1857
11326,1859
11327,1860
11328,1859
11329,1858
11330,1861
11331,1863
11332,1863
11333,1861
11334,1860
11335,1861
11336,1861
11337,1859
11338,1859
11339,1868
11340,1866
11341,1863
11342,1856
11343,1850
11344,1853
11345,1855
11346,1856
11347,1856
11348,1856
11349,1857
11350,1858
11351,1859
11352,1858
11353,1860
11354,1860
11355,1862
11356,1861
11357,1861
11358,1861
11359,1863
11360,1863
11361,1861
11362,1859
11363,1862
11364,1865
11365,1862
11366,1861
11367,1861
11368,1858
11369,1861
11370,1856
11371,1857
11372,1856
11373,1858
11374,1859
11375,1859
11376,1859
11377,1859
11378,1859
11379,1863
11380,1861
11381,1862
11382,1860
11383,1865
11384,1861
11385,1861
11386,1861
11387,1863
11388,1863
11389,1863
11390,1861
11391,1863
11392,1860
11393,1862
11394,1863
11395,1865
11396,1862
11397,1862
11398,1859
11399,1862
11400,1858
11401,1857
11402,1856
11403,1858
11404,1859
11405,1859
11406,1858
11407,1856
11408,1858
11409,1857
11410,1861
11411,1861
11412,1861
11413,1859
11414,1861
11415,1859
11416,1859
11417,1859
11418,1856
11419,1860
11420,1858
11421,1856
11422,1858
11423,1857
11424,1856
11425,1856
11426,1856
11427,1857
11428,1856
11429,1865
11430,1861
11431,1863
11432,1855
11433,1849
11434,1849
11435,1855
11436,1855
11437,1857
11438,1856
11439,1857
11440,1857
11441,1857
11442,1857
11443,1858
11444,1860
11445,1862
11446,1858
11447,1863
11448,1861
11449,1861
11450,1860
11451,1861
11452,1863
11453,1863
11454,1862
11455,1867
11456,1862
11457,1861
11458,1859
11459,1860
11460,1857
11461,1857
11462,1857
11463,1856
11464,1857
11465,1857
11466,1858
11467,1861
11468,1859
11469,1861
11470,1859
11471,1864
11472,1861
11473,1863
11474,1861
11475,1861
11476,1861
11477,1861
11478,1861
11479,1861
11480,1861
11481,1862
11482,1861
11483,1861
11484,1861
11485,1863
11486,1863
11487,1859
11488,1860
11489,1861
11490,1857
11491,1857
11492,1856
11493,1858
11494,1859
11495,1858
11496,1857
11497,1859
11498,1861
11499,1859
11500,1861
11501,1861
11502,1862
11503,1861
11504,1862
11505,1863
11506,1860
11507,1860
11508,1857
11509,1860
11510,1862
11511,1857
11512,1858
11513,1862
11514,1858
11515,1862
11516,1860
11517,1858
11518,1858
11519,1859
11520,1855
11521,1862
11522,1856
11523,1855
11524,1856
11525,1856
11526,1857
11527,1858
11528,1861
11529,1859
11530,1860
11531,1861
11532,1861
11533,1862
11534,1861
11535,1862
11536,1859
11537,1862
11538,1861
11539,1863
11540,1865
11541,1862
11542,1861
11543,1861
11544,1860
11545,1861
11546,1861
11547,1863
11548,1862
11549,1867
11550,1865
11551,1857
11552,1854
11553,1855
11554,1856
11555,1857
11556,1857
11557,1858
11558,1859
11559,1861
11560,1858
11561,1859
11562,1859
11563,1862
11564,1861
11565,1858
11566,1863
11567,1861
11568,1860
11569,1861
11570,1863
11571,1865
11572,1861
11573,1863
11574,1861
11575,1866
11576,1861
11577,1861
11578,1857
11579,1870
11580,1859
11581,1854
11582,1855
11583,1856
11584,1857
11585,1856
11586,1858
11587,1859
11588,1861
11589,1861
11590,1861
11591,1859
11592,1859
11593,1862
11594,1862
11595,1861
11596,1861
11597,1862
11598,1862
11599,1857
11600,1862
11601,1861
11602,1865
11603,1861
11604,1863
11605,1863
11606,1861
11607,1857
11608,1859
11609,1862
11610,1857
11611,1855
11612,1857
11613,1856
11614,1855
11615,1858
11616,1858
11617,1862
11618,1857
11619,1858
11620,1859
11621,1855
11622,1859
11623,1856
11624,1857
11625,1860
11626,1860
11627,1858
11628,1858
11629,1860
11630,1862
11631,1858
11632,1859
11633,1859
11634,1862
11635,1865
11636,1865
11637,1861
11638,1857
11639,1867
11640,1863
11641,1861
11642,1863
11643,1854
11644,1851
11645,1855
11646,1853
11647,1855
11648,1856
11649,1858
11650,1859
11651,1862
11652,2220
11653,1851
11654,1883
11655,2000
11656,1963
11657,1988
11658,2075
11659,2203
11660,2311
11661,2249
11662,2053
11663,1839
11664,1679
11665,1616
11666,1626
11667,1648
11668,1673
11669,1705
11670,1717
11671,1741
11672,1758
11673,1776
11674,1786
11675,1798
11676,1807
11677,1815
11678,1822
11679,1827
11680,1832
11681,1837
11682,1840
11683,2133
11684,1864
11685,1819
11686,1936
11687,1959
11688,2022
11689,2128
11690,2261
11691,2338
11692,2197
11693,1971
11694,1666
11695,1579
11696,1609
11697,1648
11698,1677
11699,1706
11700,1719
11701,1744
11702,1762
11703,1776
11704,1790
11705,1799
11706,1808
11707,1813
11708,1823
11709,1829
11710,1835
11711,1837
11712,1840
11713,1843
11714,1846
11715,1912
11716,1820
11717,1934
11718,1951
11719,2014
11720,2112
11721,2247
11722,2327
11723,2190
11724,1943
11725,1615
11726,1590
11727,1622
11728,1661
11729,1689
11730,1718
11731,1729
11732,1751
11733,1762
11734,1775
11735,1787
11736,1799
11737,1807
11738,1813
11739,1823
11740,1828
11741,1835
11742,1839
11743,1841
11744,1841
11745,1847
11746,2100
11747,1837
11748,1920
11749,1999
11750,2037
11751,2125
11752,2255
11753,2330
11754,2215
11755,1933
11756,1600
11757,1575
11758,1616
11759,1650
11760,1678
11761,1703
11762,1728
11763,1746
11764,1762
11765,1779
11766,1790
11767,1802
11768,1808
11769,1815
11770,1824
11771,1830
11772,1837
11773,1840
11774,1840
11775,1843
11776,1845
11777,2301
11778,1902
11779,1840
11780,1971
11781,1999
11782,2095
11783,2223
11784,2304
11785,2234
11786,1966
11787,1623
11788,1588
11789,1622
11790,1653
11791,1683
11792,1711
11793,1732
11794,1750
11795,1770
11796,1781
11797,1792
11798,1805
11799,1808
11800,1821
11801,1827
11802,1833
11803,1837
11804,1840
11805,1841
11806,1843
11807,1844
11808,1927
11809,1995
11810,1818
11811,1936
11812,1959
11813,2061
11814,2192
11815,2313
11816,2321
11817,1987
11818,1603
11819,1588
11820,1616
11821,1656
11822,1680
11823,1711
11824,1731
11825,1751
11826,1770
11827,1781
11828,1792
11829,1807
11830,1811
11831,1818
11832,1826
11833,1829
11834,1838
11835,1840
11836,1841
11837,1846
11838,1847
11839,1850
11840,2247
11841,1826
11842,1872
11843,1927
11844,2003
11845,2155
11846,2319
11847,2370
11848,2026
11849,1613
11850,1594
11851,1627
11852,1658
11853,1680
11854,1710
11855,1729
11856,1750
11857,1767
11858,1781
11859,1793
11860,1805
11861,1810
11862,1818
11863,1826
11864,1831
11865,1837
11866,1840
11867,1841
11868,1843
11869,1846
11870,1849
11871,2431
11872,1893
11873,1872
11874,1921
11875,1930
11876,2094
11877,2277
11878,2386
11879,2096
11880,1617
11881,1590
11882,1629
11883,1664
11884,1691
11885,1714
11886,1739
11887,1759
11888,1773
11889,1787
11890,1795
11891,1807
11892,1814
11893,1821
11894,1827
11895,1833
11896,1838
11897,1840
11898,1843
11899,1845
11900,1849
11901,1852
11902,2131
11903,1990
11904,1837
11905,1951
11906,1926
11907,2023
11908,2198
11909,2362
11910,2145
11911,1639
11912,1607
11913,1645
11914,1677
11915,1701
11916,1726
