Time(ms),Raw_ADC,ENV_Value,RMS,MDF,MW_Amp,MW_Area,MW_Latency,MW_Valid,Marker
0,1857.2,23.4,0.0,0.0,0.0,0.0,0.0,0,
100,1865.7,19.4,0.0,0.0,0.0,0.0,0.0,0,
200,1865.2,22.9,0.0,0.0,0.0,0.0,0.0,0,
300,1865.0,22.0,0.0,0.0,0.0,0.0,0.0,0,
400,1865.7,21.5,0.0,0.0,0.0,0.0,0.0,0,
500,1864.0,20.6,0.0,240.7,0.0,0.0,0.0,0,
600,1865.8,22.1,0.0,240.5,0.0,0.0,0.0,0,
700,1864.6,22.2,0.0,240.5,0.0,0.0,0.0,0,
800,1864.7,19.4,0.0,240.5,0.0,0.0,0.0,0,
900,1865.9,21.9,0.0,240.3,0.0,0.0,0.0,0,
1000,1853.6,146.9,0.0,176.8,0.0,0.0,0.0,0,
1100,1866.7,181.4,0.0,101.1,0.0,0.0,0.0,0,
1200,1869.1,151.3,0.0,106.2,1161.0,4315.0,5.0,1,
1300,1855.0,141.6,0.0,131.4,1161.0,4315.0,5.0,1,
1400,1874.0,106.1,0.0,131.4,994.0,3486.0,5.0,1,
1500,1857.8,50.7,0.0,133.8,989.0,3339.0,5.0,1,
1600,1861.2,20.2,141.1,139.2,919.0,3078.0,4.0,1,
1700,1864.9,18.4,141.0,135.0,919.0,3078.0,4.0,1,
1800,1862.9,23.1,141.0,133.6,919.0,3078.0,4.0,1,
1900,1864.3,21.7,141.0,187.0,919.0,3078.0,4.0,1,
2000,1864.6,18.7,141.0,240.5,919.0,3078.0,4.0,1,
2100,1863.0,19.8,141.0,240.5,919.0,3078.0,4.0,1,
2200,1864.9,20.4,141.0,240.3,919.0,3078.0,4.0,1,
2300,1863.1,20.8,141.0,240.3,919.0,3078.0,4.0,1,
2400,1860.0,22.2,141.0,240.5,919.0,3078.0,4.0,1,
2600,1861.3,78.9,138.7,239.3,919.0,3078.0,4.0,1,
2700,1864.3,192.1,123.5,94.1,995.0,4371.0,5.0,1,
2800,1872.1,274.4,137.8,90.6,878.0,2694.0,25.0,0,
2900,1863.8,151.4,137.9,81.2,968.0,2789.0,2.0,0,
3000,1853.1,177.3,141.2,100.9,927.0,2388.0,2.0,0,
3100,1872.9,257.8,146.7,196.3,1041.0,2751.0,2.0,0,
3200,1856.6,56.4,154.1,229.7,889.0,2112.0,2.0,0,
3300,1864.3,21.1,154.1,165.7,889.0,2112.0,2.0,0,
3400,1863.7,18.9,154.1,94.7,889.0,2112.0,2.0,0,
3600,1860.5,20.1,154.2,238.2,889.0,2112.0,2.0,0,
3700,1865.2,20.1,154.2,240.6,889.0,2112.0,2.0,0,
3800,1864.7,20.2,154.2,240.7,889.0,2112.0,2.0,0,
3900,1862.3,18.9,154.2,240.7,889.0,2112.0,2.0,0,
4000,1864.3,18.1,154.1,240.3,889.0,2112.0,2.0,0,
4100,1861.5,18.4,154.2,240.2,889.0,2112.0,2.0,0,
4200,1869.8,15.3,151.5,240.5,816.0,3882.0,6.0,1,
4300,1877.5,56.1,149.1,240.3,968.0,4073.0,3.0,1,
4400,1853.1,55.1,129.8,237.5,883.0,3357.0,4.0,1,
4600,1851.5,189.1,131.9,90.2,1013.0,2767.0,2.0,0,
4700,1870.9,246.5,127.9,98.7,870.0,2601.0,2.0,0,
4800,1860.6,69.1,122.3,149.2,1010.0,2421.0,2.0,0,
4900,1862.3,18.1,122.2,164.8,1010.0,2421.0,2.0,0,
5000,1864.1,19.8,122.2,104.2,1010.0,2421.0,2.0,0,
5100,1864.1,18.5,122.2,125.7,1010.0,2421.0,2.0,0,
5200,1862.2,16.2,122.1,240.2,1010.0,2421.0,2.0,0,
5300,1864.4,15.8,122.1,240.5,1010.0,2421.0,2.0,0,
5400,1864.4,18.3,122.0,240.5,1010.0,2421.0,2.0,0,
5600,1863.4,17.8,122.0,240.5,1010.0,2421.0,2.0,0,
5700,1866.7,19.9,121.9,240.6,1010.0,2421.0,2.0,0,
5800,1877.8,19.0,121.9,240.5,1010.0,2421.0,2.0,0,
5900,1845.4,213.2,128.8,240.2,1715.0,3552.0,26.0,0,
6000,1864.1,188.8,144.2,202.6,890.0,2603.0,2.0,0,
6100,1868.8,241.3,143.2,186.8,876.0,2849.0,2.0,0,
6200,1863.6,271.1,145.0,195.3,1461.0,3348.0,27.0,0,
6300,1863.2,184.7,150.3,199.6,912.0,2561.0,2.0,0,
6400,1864.2,152.5,150.3,185.4,736.0,2013.0,2.0,0,
6600,1861.7,15.0,151.0,157.6,736.0,2013.0,2.0,0,
6700,1866.2,19.4,151.0,137.2,736.0,2013.0,2.0,0,
6800,1863.6,20.9,151.0,112.2,736.0,2013.0,2.0,0,
6900,1864.5,17.7,151.1,240.3,736.0,2013.0,2.0,0,
7000,1863.3,19.3,151.1,240.5,736.0,2013.0,2.0,0,
7100,1863.4,18.9,151.1,240.5,736.0,2013.0,2.0,0,
7200,1864.7,18.5,151.1,240.5,736.0,2013.0,2.0,0,
7300,1865.7,17.1,151.1,240.5,736.0,2013.0,2.0,0,
7400,1862.1,57.5,151.1,240.6,736.0,2013.0,2.0,0,
7600,1856.5,178.9,145.3,71.4,896.0,3127.0,2.0,0,
7700,1876.6,174.7,145.9,71.1,789.0,2495.0,2.0,0,
7800,1860.2,171.6,142.8,88.2,1148.0,3658.0,28.0,0,
7900,1851.8,173.8,136.2,154.9,1212.0,3220.0,28.0,0,
8000,1867.3,206.9,139.2,158.8,930.0,2797.0,2.0,0,
8100,1860.5,26.5,136.0,153.5,921.0,2312.0,2.0,0,
8200,1862.5,19.0,136.0,102.6,921.0,2312.0,2.0,0,
8300,1866.8,20.2,136.0,39.6,921.0,2312.0,2.0,0,
8400,1864.7,20.2,136.0,57.1,921.0,2312.0,2.0,0,
8600,1864.8,19.2,135.9,240.2,921.0,2312.0,2.0,0,
8700,1864.7,20.4,135.9,240.3,921.0,2312.0,2.0,0,
8800,1863.7,18.0,135.9,240.3,921.0,2312.0,2.0,0,
8900,1863.0,16.7,136.0,240.4,921.0,2312.0,2.0,0,
9000,1863.7,17.7,136.0,240.4,921.0,2312.0,2.0,0,
9100,1867.6,191.2,129.0,240.5,859.0,3602.0,6.0,1,
9200,1879.3,145.3,140.0,92.5,1483.0,3578.0,27.0,0,
9300,1845.7,201.7,142.1,39.4,723.0,2768.0,27.0,0,
9400,1865.3,217.1,148.7,88.9,731.0,2443.0,2.0,0,
9600,1862.1,185.0,143.6,199.5,815.0,2312.0,2.0,0,
9700,1869.1,45.4,145.1,199.5,459.0,1885.0,24.0,1,
9800,1862.0,21.6,145.1,157.9,459.0,1885.0,24.0,1,
9900,1861.4,18.0,145.3,91.1,459.0,1885.0,24.0,1,
10000,1865.4,17.7,145.2,82.3,459.0,1885.0,24.0,1,
10100,1870.1,15.9,145.0,239.9,459.0,1885.0,24.0,1,
10200,1867.5,16.4,145.0,240.6,459.0,1885.0,24.0,1,
10300,1868.0,17.4,144.8,240.5,459.0,1885.0,24.0,1,
10400,1863.3,14.0,144.8,240.5,459.0,1885.0,24.0,1,
10600,1863.9,14.7,144.8,240.8,459.0,1885.0,24.0,1,
10700,1849.9,68.1,145.7,241.0,771.0,3031.0,6.0,1,
10800,1868.2,226.6,149.5,108.9,498.0,2294.0,23.0,1,
10900,1857.8,189.7,148.7,49.4,1053.0,3131.0,28.0,0,
11000,1870.9,236.9,148.7,83.5,781.0,2684.0,2.0,0,
11100,1874.9,98.2,146.2,166.8,1125.0,3513.0,28.0,0,
11200,1852.5,151.0,145.6,196.9,908.0,2442.0,2.0,0,
11300,1868.0,72.6,145.8,140.4,676.0,2167.0,2.0,0,
11400,1865.3,27.2,145.8,132.0,676.0,2167.0,2.0,0,
11600,1864.6,17.7,145.8,94.0,676.0,2167.0,2.0,0,
11700,1863.7,18.3,145.9,237.8,676.0,2167.0,2.0,0,
11800,1863.7,17.9,146.1,240.6,676.0,2167.0,2.0,0,
11900,1864.0,21.9,146.2,240.7,676.0,2167.0,2.0,0,
12000,1866.9,20.3,146.1,240.3,676.0,2167.0,2.0,0,
12100,1866.7,21.1,146.1,240.1,676.0,2167.0,2.0,0,
12200,1867.7,22.4,146.1,240.3,676.0,2167.0,2.0,0,
12300,1860.6,109.4,148.5,240.5,676.0,2167.0,2.0,0,
12400,1867.7,221.9,160.5,99.0,1031.0,3329.0,27.0,0,
12600,1874.4,171.1,168.6,65.9,997.0,3104.0,28.0,0,
12700,1853.1,218.6,170.6,86.4,1107.0,3462.0,28.0,0,
12800,1858.8,170.2,172.1,99.1,1523.0,3787.0,24.0,1,
12900,1866.4,127.7,173.9,102.9,323.0,1138.0,25.0,0,
13000,1865.8,24.1,173.9,99.8,323.0,1138.0,25.0,0,
13100,1865.4,22.2,173.9,134.0,323.0,1138.0,25.0,0,
13200,1864.7,18.7,173.9,131.2,323.0,1138.0,25.0,0,
13300,1863.4,19.2,173.9,133.1,323.0,1138.0,25.0,0,
13400,1864.4,22.4,173.9,240.4,323.0,1138.0,25.0,0,
13600,1862.8,18.1,174.0,240.4,323.0,1138.0,25.0,0,
13700,1859.7,20.9,173.9,240.5,323.0,1138.0,25.0,0,
13800,1865.8,21.9,173.9,240.7,323.0,1138.0,25.0,0,
13900,1865.4,147.6,173.9,240.9,323.0,1138.0,25.0,0,
14000,1872.2,262.4,175.1,163.6,826.0,3092.0,27.0,0,
14100,1864.8,210.4,171.7,40.0,1188.0,3893.0,24.0,1,
14200,1854.1,179.5,168.7,38.9,858.0,2914.0,28.0,0,
14300,1869.8,182.2,166.8,39.2,882.0,2382.0,28.0,0,
14400,1860.3,153.9,159.9,47.7,1407.0,3353.0,28.0,0,
14600,1856.0,27.7,155.1,101.2,741.0,2277.0,2.0,0,
14700,1860.6,22.5,155.1,89.2,741.0,2277.0,2.0,0,
14800,1865.3,21.9,155.1,42.7,741.0,2277.0,2.0,0,
14900,1863.6,18.5,155.1,89.8,741.0,2277.0,2.0,0,rest_end
15000,1866.3,22.4,155.1,240.5,741.0,2277.0,2.0,0,
15100,1864.7,21.6,155.1,240.5,741.0,2277.0,2.0,0,
15200,1861.9,21.8,155.1,240.6,741.0,2277.0,2.0,0,
15300,1865.6,23.9,155.1,240.6,741.0,2277.0,2.0,0,
15400,1863.1,22.0,155.1,240.7,741.0,2277.0,2.0,0,
15600,1871.9,69.8,141.9,240.5,827.0,3668.0,4.0,1,
15700,1865.1,43.9,131.7,117.2,821.0,3441.0,5.0,1,
15800,1858.3,167.2,116.2,98.9,636.0,2414.0,27.0,0,
15900,1871.4,276.9,121.0,94.1,769.0,2631.0,2.0,0,
16000,1879.0,169.9,128.6,85.7,1392.0,3225.0,27.0,0,
16100,1842.2,149.0,127.8,90.9,787.0,2634.0,2.0,0,
16200,1864.3,38.2,129.6,94.2,476.0,1875.0,22.0,1,
16300,1865.0,21.2,129.6,99.8,476.0,1875.0,22.0,1,
16400,1863.9,21.9,129.6,39.9,476.0,1875.0,22.0,1,
16600,1864.7,18.5,129.6,239.9,476.0,1875.0,22.0,1,
16700,1864.1,20.9,129.6,240.4,476.0,1875.0,22.0,1,
16800,1864.8,19.8,129.5,240.8,476.0,1875.0,22.0,1,
16900,1863.5,21.4,129.6,240.7,476.0,1875.0,22.0,1,
17000,1862.7,20.3,129.5,240.5,476.0,1875.0,22.0,1,
17100,1862.8,21.8,129.5,240.4,476.0,1875.0,22.0,1,
17200,1863.0,79.7,129.6,240.4,756.0,3266.0,5.0,1,
17300,1866.1,180.4,127.3,217.1,809.0,3582.0,5.0,1,
17400,1856.6,263.2,140.5,93.1,642.0,2522.0,27.0,0,
17600,1860.9,122.5,137.1,71.1,1035.0,3068.0,2.0,0,
17700,1856.7,175.7,135.7,115.3,942.0,2902.0,2.0,0,
17800,1871.7,44.5,133.6,155.0,992.0,2574.0,2.0,0,
17900,1865.5,20.5,133.6,153.4,992.0,2574.0,2.0,0,
18000,1862.6,19.2,133.6,188.2,992.0,2574.0,2.0,0,
18100,1862.5,18.9,133.5,250.1,992.0,2574.0,2.0,0,
18200,1861.0,20.6,133.6,240.9,992.0,2574.0,2.0,0,
18300,1866.7,21.5,133.6,240.5,992.0,2574.0,2.0,0,
18400,1866.2,17.8,133.6,240.6,992.0,2574.0,2.0,0,
18600,1865.6,22.6,133.6,240.5,992.0,2574.0,2.0,0,
18700,1864.3,16.6,133.6,240.7,992.0,2574.0,2.0,0,
18800,1860.2,147.1,137.4,240.6,659.0,2877.0,2.0,0,
18900,1880.9,47.8,136.1,92.7,599.0,2591.0,6.0,1,
19000,1852.5,179.7,134.1,71.4,652.0,2599.0,28.0,0,
19100,1860.4,185.8,127.7,73.0,485.0,2200.0,24.0,1,
19200,1869.0,252.9,133.8,101.7,592.0,2322.0,26.0,0,
19300,1855.3,259.9,138.8,136.6,905.0,2844.0,27.0,0,
19400,1865.6,96.5,144.4,245.7,484.0,1909.0,26.0,0,
19600,1862.9,22.0,144.4,178.7,484.0,1909.0,26.0,0,
19700,1862.3,19.8,144.5,144.0,484.0,1909.0,26.0,0,
19800,1866.9,20.6,144.3,235.6,484.0,1909.0,26.0,0,
19900,1863.1,21.0,144.4,240.3,484.0,1909.0,26.0,0,
20000,1865.9,18.7,144.4,240.4,484.0,1909.0,26.0,0,
20100,1865.0,21.7,144.3,240.5,484.0,1909.0,26.0,0,
20200,1865.1,18.4,144.3,240.5,484.0,1909.0,26.0,0,
20300,1865.1,21.1,144.3,240.4,484.0,1909.0,26.0,0,
20400,1878.9,148.4,144.0,240.5,484.0,1909.0,26.0,0,
20600,1862.0,240.7,149.6,69.7,1565.0,3504.0,26.0,0,
20700,1865.1,251.1,152.8,66.6,497.0,2103.0,19.0,1,
20800,1861.5,249.4,151.6,73.2,833.0,2942.0,2.0,0,
20900,1870.9,205.6,151.2,167.9,1165.0,3218.0,28.0,0,
21000,1852.7,154.1,151.3,199.6,906.0,2358.0,2.0,0,
21100,1864.4,26.7,151.0,198.5,906.0,2358.0,2.0,0,
21200,1859.8,18.7,151.1,93.6,906.0,2358.0,2.0,0,
21300,1865.8,20.3,151.0,36.1,906.0,2358.0,2.0,0,
21400,1865.4,20.0,151.0,73.0,906.0,2358.0,2.0,0,
21600,1865.0,22.5,151.0,240.5,906.0,2358.0,2.0,0,
21700,1863.4,20.3,151.1,240.5,906.0,2358.0,2.0,0,
21800,1865.7,22.9,151.1,240.7,906.0,2358.0,2.0,0,
21900,1865.6,22.7,151.0,240.9,906.0,2358.0,2.0,0,
22000,1863.1,17.6,151.1,241.1,906.0,2358.0,2.0,0,
22100,1867.3,107.5,145.2,240.8,674.0,3080.0,5.0,1,
22200,1865.5,33.8,139.7,149.8,739.0,3244.0,5.0,1,
22300,1868.1,218.8,132.3,93.8,459.0,2230.0,28.0,0,
22400,1861.3,206.1,136.9,88.3,860.0,2850.0,2.0,0,
22600,1855.1,211.4,140.4,94.4,718.0,2706.0,27.0,0,
22700,1867.4,29.3,139.0,206.1,1082.0,2828.0,2.0,0,
22800,1862.2,21.4,139.0,122.5,1082.0,2828.0,2.0,0,
22900,1861.2,20.8,139.0,38.5,1082.0,2828.0,2.0,0,
23000,1863.0,20.4,139.1,94.7,1082.0,2828.0,2.0,0,
23100,1862.0,18.8,139.1,240.3,1082.0,2828.0,2.0,0,
23200,1864.7,20.9,139.1,240.6,1082.0,2828.0,2.0,0,
23300,1866.6,24.0,139.1,240.7,1082.0,2828.0,2.0,0,
23400,1864.2,20.3,139.1,240.7,1082.0,2828.0,2.0,0,
23600,1864.4,16.6,139.1,240.5,1082.0,2828.0,2.0,0,
23700,1862.6,102.4,141.4,240.1,742.0,3587.0,7.0,1,
23800,1883.6,145.9,142.7,99.3,864.0,3694.0,5.0,1,
23900,1842.0,212.2,148.1,88.8,1389.0,3500.0,27.0,0,
24000,1864.1,209.0,147.8,73.8,506.0,2421.0,25.0,0,
24100,1870.3,204.1,140.7,89.9,1080.0,3090.0,2.0,0,
24200,1855.8,151.0,136.0,145.8,923.0,2912.0,2.0,0,
24300,1874.0,31.8,134.0,137.0,1012.0,2808.0,2.0,0,
24400,1864.8,25.0,134.0,131.9,1012.0,2808.0,2.0,0,
24600,1863.8,23.5,134.0,285.0,1012.0,2808.0,2.0,0,
24700,1864.3,19.1,134.0,240.7,1012.0,2808.0,2.0,0,
24800,1863.8,19.6,134.0,240.6,1012.0,2808.0,2.0,0,
24900,1864.2,21.2,134.0,240.5,1012.0,2808.0,2.0,0,
25000,1863.8,20.3,134.1,240.5,1012.0,2808.0,2.0,0,
25100,1866.2,20.4,134.1,240.5,1012.0,2808.0,2.0,0,
25200,1866.6,20.1,134.0,240.4,1012.0,2808.0,2.0,0,
25300,1868.5,113.2,138.0,239.9,703.0,2966.0,28.0,0,
25400,1860.0,131.9,139.0,75.1,627.0,3020.0,4.0,1,
25600,1862.3,215.2,129.8,75.1,1051.0,2970.0,2.0,0,
25700,1871.6,229.1,131.2,94.3,890.0,3095.0,2.0,0,
25800,1857.8,148.7,133.8,136.8,1202.0,3490.0,28.0,0,
25900,1865.0,37.5,132.4,103.0,992.0,3030.0,2.0,0,
26000,1862.9,23.0,132.4,100.5,992.0,3030.0,2.0,0,
26100,1863.9,21.8,132.3,168.0,992.0,3030.0,2.0,0,
26200,1867.2,21.4,132.3,241.1,992.0,3030.0,2.0,0,
26300,1864.7,20.2,132.2,240.7,992.0,3030.0,2.0,0,
26400,1863.4,20.5,132.2,240.4,992.0,3030.0,2.0,0,
26600,1862.5,18.9,132.3,240.1,992.0,3030.0,2.0,0,
26700,1863.7,19.6,132.3,240.4,992.0,3030.0,2.0,0,
26800,1863.3,18.1,132.4,240.6,992.0,3030.0,2.0,0,
26900,1863.8,170.4,132.4,240.4,957.0,3053.0,25.0,0,
27000,1863.7,162.9,132.0,106.3,792.0,3441.0,6.0,1,
27100,1870.2,98.8,132.6,74.6,1069.0,4064.0,2.0,0,
27200,1870.4,162.5,135.8,75.1,939.0,3067.0,2.0,0,
27300,1850.8,150.6,130.5,78.0,863.0,2822.0,2.0,0,
27400,1865.0,162.4,125.3,125.4,947.0,2938.0,2.0,0,
27600,1862.3,24.7,130.3,137.3,947.0,2938.0,2.0,0,
27700,1864.1,19.5,130.3,131.9,947.0,2938.0,2.0,0,
27800,1865.8,23.1,130.3,81.0,947.0,2938.0,2.0,0,
27900,1865.0,21.5,130.4,136.9,947.0,2938.0,2.0,0,
28000,1862.5,19.4,130.4,240.2,947.0,2938.0,2.0,0,
28100,1860.6,19.6,130.4,240.4,947.0,2938.0,2.0,0,
28200,1862.0,19.9,130.4,240.5,947.0,2938.0,2.0,0,
28300,1864.4,17.6,130.4,240.6,947.0,2938.0,2.0,0,
28400,1864.2,18.6,130.3,241.0,947.0,2938.0,2.0,0,
28600,1862.3,194.4,129.0,239.3,789.0,2740.0,2.0,0,
28700,1877.8,84.5,124.6,35.8,867.0,3745.0,4.0,1,
28800,1846.3,167.4,123.9,43.8,1458.0,4024.0,28.0,0,
28900,1865.2,184.8,126.9,53.2,966.0,2740.0,2.0,0,
29000,1870.8,82.1,126.8,72.6,1139.0,3206.0,2.0,0,
29100,1862.2,149.9,125.3,102.6,1020.0,3375.0,28.0,0,
29200,1861.6,26.0,122.2,133.0,1040.0,2813.0,2.0,0,
29300,1864.6,20.4,122.2,135.1,1040.0,2813.0,2.0,0,
29400,1862.5,21.3,122.2,130.0,1040.0,2813.0,2.0,0,
29600,1867.8,22.9,122.1,240.3,1040.0,2813.0,2.0,0,
29700,1861.9,18.5,122.1,240.5,1040.0,2813.0,2.0,0,
29800,1862.3,20.6,122.1,240.7,1040.0,2813.0,2.0,0,
29900,1862.4,20.0,122.1,240.5,1040.0,2813.0,2.0,0,
30000,1860.9,20.5,122.2,240.5,1040.0,2813.0,2.0,0,
30100,1863.4,19.8,122.2,240.4,1040.0,2813.0,2.0,0,
30200,1864.6,169.5,122.4,239.7,739.0,3677.0,4.0,1,
30300,1862.6,90.7,120.7,91.2,887.0,3921.0,5.0,1,
30400,1861.3,146.6,121.2,78.2,1332.0,4066.0,28.0,0,
30600,1883.2,113.2,126.1,87.6,841.0,2972.0,2.0,0,
30700,1850.3,173.0,129.6,113.4,1140.0,3684.0,2.0,0,
30800,1864.9,30.9,128.9,144.0,1031.0,3225.0,2.0,0,
30900,1863.8,20.5,128.9,157.4,1031.0,3225.0,2.0,0,
31000,1864.1,18.2,128.9,198.8,1031.0,3225.0,2.0,0,
31100,1865.1,19.6,128.9,240.4,1031.0,3225.0,2.0,0,
31200,1860.2,19.8,129.0,240.4,1031.0,3225.0,2.0,0,
31300,1862.8,20.4,129.0,240.5,1031.0,3225.0,2.0,0,
31400,1863.4,20.3,129.0,240.6,1031.0,3225.0,2.0,0,
31600,1864.7,18.9,128.9,240.5,1031.0,3225.0,2.0,0,
31700,1865.3,22.2,128.8,240.4,1031.0,3225.0,2.0,0,
31800,1861.2,101.8,134.0,239.7,650.0,2568.0,28.0,0,
31900,1867.3,131.9,125.5,71.3,921.0,3777.0,3.0,1,
32000,1865.2,101.7,127.2,69.0,1028.0,3660.0,28.0,0,
32100,1866.8,180.2,128.2,70.9,939.0,2720.0,2.0,0,
32200,1859.7,168.9,126.3,123.7,834.0,2784.0,2.0,0,
32300,1863.1,142.9,125.6,104.1,1095.0,3219.0,2.0,0,
32400,1863.2,33.0,122.7,132.6,1123.0,3365.0,2.0,0,
32600,1866.5,19.4,122.6,158.8,1123.0,3365.0,2.0,0,
32700,1860.6,19.5,122.7,239.2,1123.0,3365.0,2.0,0,
32800,1864.2,18.6,122.6,240.6,1123.0,3365.0,2.0,0,
32900,1860.4,17.2,122.6,240.4,1123.0,3365.0,2.0,0,
33000,1865.5,23.1,122.6,240.1,1123.0,3365.0,2.0,0,
33100,1861.9,22.0,122.6,240.5,1123.0,3365.0,2.0,0,
33200,1866.4,22.3,122.7,240.8,1123.0,3365.0,2.0,0,
33300,1862.7,19.1,122.7,240.6,1123.0,3365.0,2.0,0,
33400,1863.7,175.3,122.2,240.2,1040.0,3436.0,26.0,0,
33600,1862.6,115.7,135.0,53.2,1124.0,4041.0,2.0,0,
33700,1853.1,179.5,131.4,48.3,1520.0,4278.0,28.0,0,
33800,1869.3,236.7,138.0,47.4,954.0,2917.0,2.0,0,
33900,1869.7,106.5,138.4,135.2,1094.0,3501.0,2.0,0,
34000,1856.7,87.3,143.1,135.5,1055.0,3071.0,2.0,0,
34100,1862.5,23.6,143.2,135.4,1055.0,3071.0,2.0,0,
34200,1862.4,18.0,143.2,92.0,1055.0,3071.0,2.0,0,
34300,1861.4,17.9,143.2,40.5,1055.0,3071.0,2.0,0,
34400,1864.3,17.9,143.2,94.6,1055.0,3071.0,2.0,0,
34600,1863.9,18.8,143.1,240.5,1055.0,3071.0,2.0,0,
34700,1861.2,18.0,143.1,240.7,1055.0,3071.0,2.0,0,
34800,1863.7,18.2,143.1,241.3,1055.0,3071.0,2.0,0,
34900,1861.5,19.0,143.1,241.2,1055.0,3071.0,2.0,0,
35000,1891.1,19.7,141.6,240.4,1055.0,3071.0,2.0,0,
35100,1843.9,150.3,138.1,240.0,805.0,3799.0,5.0,1,
35200,1867.0,105.9,133.3,76.8,930.0,3220.0,2.0,0,
35300,1858.5,187.7,134.8,66.9,1491.0,4409.0,28.0,0,
35400,1859.3,201.0,132.3,85.3,996.0,3115.0,2.0,0,
35600,1851.2,127.6,125.1,136.5,1057.0,2933.0,2.0,0,
35700,1864.8,24.6,124.7,170.7,1057.0,2933.0,2.0,0,
35800,1861.0,18.6,124.7,155.0,1057.0,2933.0,2.0,0,
35900,1861.3,20.3,124.7,82.2,1057.0,2933.0,2.0,0,
36000,1865.7,21.4,124.7,163.5,1057.0,2933.0,2.0,0,
36100,1864.2,16.8,124.7,240.3,1057.0,2933.0,2.0,0,
36200,1864.7,19.2,124.7,240.6,1057.0,2933.0,2.0,0,
36300,1864.6,20.5,124.7,240.6,1057.0,2933.0,2.0,0,
36400,1861.0,19.5,124.7,240.5,1057.0,2933.0,2.0,0,
36600,1863.2,39.4,124.7,240.6,1057.0,2933.0,2.0,0,
36700,1851.9,161.9,128.0,240.3,810.0,3415.0,2.0,0,
36800,1869.3,64.5,121.2,133.6,1079.0,3848.0,2.0,0,
36900,1877.7,131.9,124.8,154.0,1277.0,3776.0,28.0,0,
37000,1852.0,132.4,119.6,216.7,1066.0,3218.0,2.0,0,
37100,1858.6,120.7,114.9,226.6,1022.0,3119.0,2.0,0,
37200,1864.6,164.9,121.1,205.2,1019.0,3315.0,2.0,0,
37300,1865.9,25.5,120.0,134.1,1072.0,3085.0,2.0,0,
37400,1864.9,19.2,120.0,133.9,1072.0,3085.0,2.0,0,
37600,1865.6,18.6,120.0,241.1,1072.0,3085.0,2.0,0,
37700,1863.2,21.9,120.0,240.4,1072.0,3085.0,2.0,0,
37800,1864.0,19.6,120.0,240.2,1072.0,3085.0,2.0,0,
37900,1863.4,17.5,120.0,240.1,1072.0,3085.0,2.0,0,
38000,1863.6,20.3,119.9,240.3,1072.0,3085.0,2.0,0,
38100,1865.9,22.2,119.9,240.5,1072.0,3085.0,2.0,0,
38200,1864.6,18.4,119.9,240.6,1072.0,3085.0,2.0,0,
38300,1863.6,229.4,126.0,240.1,1219.0,3692.0,27.0,0,
38400,1877.2,210.9,130.8,86.7,1068.0,3878.0,2.0,0,
38600,1854.9,188.7,138.2,93.9,1180.0,3739.0,28.0,0,
38700,1862.5,170.0,136.8,135.2,1124.0,3501.0,2.0,0,
38800,1866.1,98.8,138.4,177.8,1182.0,3345.0,2.0,0,
38900,1864.6,42.5,139.8,152.0,962.0,2917.0,2.0,0,
39000,1865.7,21.1,139.7,150.2,962.0,2917.0,2.0,0,
39100,1866.0,20.1,139.7,137.2,962.0,2917.0,2.0,0,
39200,1863.2,22.0,139.7,103.2,962.0,2917.0,2.0,0,
39300,1862.3,19.0,139.7,239.4,962.0,2917.0,2.0,0,
39400,1865.2,18.5,139.7,240.3,962.0,2917.0,2.0,0,
39600,1864.6,20.3,139.7,240.3,962.0,2917.0,2.0,0,
39700,1861.5,19.1,139.8,240.5,962.0,2917.0,2.0,0,
39800,1863.9,21.7,139.7,240.4,962.0,2917.0,2.0,0,
39900,1878.2,36.8,137.7,240.2,807.0,4096.0,4.0,1,
40000,1841.7,50.4,123.8,237.3,1107.0,4943.0,5.0,1,
40100,1873.4,31.3,109.1,29.3,1045.0,4333.0,5.0,1,
40200,1857.2,196.0,108.8,27.6,1598.0,4682.0,28.0,0,
40300,1871.0,164.8,108.8,44.1,1198.0,3680.0,2.0,0,
40400,1871.1,75.7,107.6,102.3,1261.0,3619.0,2.0,0,
40600,1862.9,23.4,105.8,206.4,1261.0,3619.0,2.0,0,
40700,1863.3,19.0,105.9,163.6,1261.0,3619.0,2.0,0,
40800,1863.2,19.5,105.8,86.4,1261.0,3619.0,2.0,0,
40900,1866.5,19.4,105.8,237.5,1261.0,3619.0,2.0,0,
41000,1866.3,19.8,105.8,240.8,1261.0,3619.0,2.0,0,
41100,1864.1,21.3,105.7,240.6,1261.0,3619.0,2.0,0,
41200,1866.7,23.3,105.7,240.4,1261.0,3619.0,2.0,0,
41300,1866.5,19.1,105.7,240.4,1261.0,3619.0,2.0,0,
41400,1863.5,23.5,105.7,240.3,1261.0,3619.0,2.0,0,
41600,1852.4,175.2,112.1,237.2,1002.0,3550.0,2.0,0,
41700,1871.1,212.9,119.9,49.9,980.0,3639.0,2.0,0,
41800,1888.5,162.0,130.4,106.2,1533.0,3970.0,28.0,0,
41900,1836.3,161.0,128.6,154.3,1069.0,3272.0,2.0,0,
42000,1861.4,92.0,126.7,134.4,1093.0,3394.0,2.0,0,
42100,1863.4,98.4,129.0,115.1,1118.0,2998.0,2.0,0,
42200,1864.7,24.5,129.0,122.2,1118.0,2998.0,2.0,0,
42300,1864.0,23.2,129.0,133.2,1118.0,2998.0,2.0,0,
42400,1864.4,18.1,129.1,100.1,1118.0,2998.0,2.0,0,
42600,1864.6,19.5,129.1,240.3,1118.0,2998.0,2.0,0,
42700,1864.2,20.8,129.1,240.7,1118.0,2998.0,2.0,0,
42800,1864.6,19.6,129.1,240.8,1118.0,2998.0,2.0,0,
42900,1864.2,20.6,129.1,240.6,1118.0,2998.0,2.0,0,
43000,1862.5,20.6,129.2,240.6,1118.0,2998.0,2.0,0,
43100,1863.9,55.9,129.2,240.8,1118.0,2998.0,2.0,0,
43200,1858.9,216.7,128.5,240.3,753.0,3047.0,3.0,1,
43300,1878.5,213.5,139.9,152.5,1144.0,3317.0,2.0,0,
43400,1857.5,123.6,138.2,154.8,1089.0,3426.0,2.0,0,
43600,1867.3,178.5,136.4,185.3,1182.0,3502.0,2.0,0,
43700,1866.3,143.1,140.1,201.3,1074.0,3849.0,28.0,0,
43800,1863.5,24.6,138.9,199.1,1120.0,3364.0,2.0,0,
43900,1864.3,20.1,138.8,197.0,1120.0,3364.0,2.0,0,
44000,1862.8,17.4,138.8,233.2,1120.0,3364.0,2.0,0,
44100,1864.0,19.9,138.8,254.6,1120.0,3364.0,2.0,0,
44200,1863.9,15.2,138.8,240.6,1120.0,3364.0,2.0,0,
44300,1861.3,18.8,138.8,240.4,1120.0,3364.0,2.0,0,
44400,1867.1,21.1,138.8,240.2,1120.0,3364.0,2.0,0,
44600,1864.4,19.8,138.7,240.5,1120.0,3364.0,2.0,0,
44700,1864.6,20.5,138.7,240.5,1120.0,3364.0,2.0,0,
44800,1867.3,136.9,140.5,240.1,761.0,3322.0,2.0,0,
44900,1856.5,180.3,132.6,155.2,1019.0,3331.0,2.0,0,
45000,1871.1,119.2,131.8,201.9,1097.0,3353.0,2.0,0,
45100,1851.3,180.4,129.1,189.2,1071.0,3898.0,2.0,0,
45200,1886.0,65.5,128.6,157.4,1138.0,3487.0,2.0,0,
45300,1852.4,138.9,128.9,202.5,1114.0,3156.0,2.0,0,
45400,1858.1,26.8,127.4,226.2,1140.0,3300.0,2.0,0,
45600,1865.3,20.1,127.5,164.6,1140.0,3300.0,2.0,0,
45700,1865.2,18.2,127.5,237.7,1140.0,3300.0,2.0,0,
45800,1863.1,16.4,127.5,240.3,1140.0,3300.0,2.0,0,
45900,1864.8,20.0,127.5,240.1,1140.0,3300.0,2.0,0,
46000,1862.9,18.3,127.5,240.1,1140.0,3300.0,2.0,0,
46100,1863.0,20.9,127.5,240.2,1140.0,3300.0,2.0,0,
46200,1861.9,19.5,127.5,240.3,1140.0,3300.0,2.0,0,
46300,1864.3,16.4,127.5,240.2,1140.0,3300.0,2.0,0,
46400,1866.8,98.4,134.8,238.1,1188.0,3417.0,26.0,0,
46600,1864.5,78.8,123.0,73.2,1109.0,3611.0,2.0,0,
46700,1880.7,153.8,129.2,79.3,1453.0,4119.0,28.0,0,
46800,1843.6,161.8,126.3,136.2,1065.0,3085.0,2.0,0,
46900,1871.3,109.0,125.8,149.4,1088.0,3264.0,2.0,0,
47000,1860.2,50.6,128.9,154.5,952.0,2761.0,2.0,0,
47100,1863.8,20.9,128.9,158.3,952.0,2761.0,2.0,0,
47200,1861.9,19.6,128.9,135.1,952.0,2761.0,2.0,0,
47300,1864.1,20.1,128.9,87.2,952.0,2761.0,2.0,0,
47400,1864.8,21.0,128.9,237.5,952.0,2761.0,2.0,0,
47600,1864.6,20.4,129.0,240.9,952.0,2761.0,2.0,0,
47700,1864.0,18.2,128.9,240.6,952.0,2761.0,2.0,0,
47800,1863.0,18.7,128.9,240.7,952.0,2761.0,2.0,0,
47900,1862.4,18.9,128.9,240.7,952.0,2761.0,2.0,0,
48000,1867.6,22.8,123.2,240.1,774.0,4078.0,6.0,1,
48100,1867.4,75.8,120.1,240.1,664.0,3467.0,4.0,1,
48200,1864.3,22.7,110.0,117.9,860.0,3987.0,4.0,1,
48300,1855.5,86.1,96.5,94.4,842.0,3660.0,5.0,1,
48400,1855.1,106.5,90.9,88.2,1029.0,4075.0,4.0,1,
48600,1860.6,74.7,88.0,45.0,1062.0,3059.0,2.0,0,
48700,1865.4,22.9,88.0,100.1,1062.0,3059.0,2.0,0,
48800,1865.7,19.7,87.9,93.4,1062.0,3059.0,2.0,0,
48900,1865.3,21.8,87.9,94.1,1062.0,3059.0,2.0,0,
49000,1863.2,17.6,87.9,238.4,1062.0,3059.0,2.0,0,
49100,1865.5,21.6,87.8,240.3,1062.0,3059.0,2.0,0,
49200,1866.3,20.8,87.8,240.7,1062.0,3059.0,2.0,0,
49300,1866.5,22.1,87.8,240.8,1062.0,3059.0,2.0,0,
49400,1866.2,21.0,87.9,240.5,1062.0,3059.0,2.0,0,
49600,1882.1,19.3,87.9,240.8,1062.0,3059.0,2.0,0,
49700,1838.0,134.0,90.7,240.6,1155.0,3906.0,28.0,0,
49800,1873.7,143.5,100.8,237.1,1059.0,3337.0,2.0,0,
49900,1868.8,144.5,117.9,230.1,1159.0,3695.0,2.0,0,
50000,1857.0,173.9,121.3,204.9,1144.0,3651.0,2.0,0,
50100,1881.6,65.1,124.1,134.9,1179.0,3311.0,2.0,0,
50200,1857.3,134.7,124.5,134.1,1038.0,2582.0,2.0,0,
50300,1863.9,25.8,124.6,163.3,1038.0,2582.0,2.0,0,
50400,1861.8,21.7,124.6,158.0,1038.0,2582.0,2.0,0,
50600,1867.7,23.3,124.6,237.5,1038.0,2582.0,2.0,0,
50700,1866.2,20.5,124.6,240.4,1038.0,2582.0,2.0,0,
50800,1867.5,21.6,124.6,240.3,1038.0,2582.0,2.0,0,
50900,1866.2,20.9,124.7,240.5,1038.0,2582.0,2.0,0,
51000,1865.4,21.1,124.6,240.5,1038.0,2582.0,2.0,0,
51100,1866.2,16.2,124.6,240.4,1038.0,2582.0,2.0,0,
51200,1863.8,21.8,124.6,240.5,1038.0,2582.0,2.0,0,
51300,1852.1,162.8,127.7,240.3,1208.0,3746.0,28.0,0,
51400,1870.5,106.2,125.8,154.5,1067.0,3436.0,2.0,0,
51600,1847.8,136.6,121.6,195.3,956.0,2871.0,2.0,0,
51700,1857.5,111.5,120.6,173.9,914.0,2404.0,2.0,0,
51800,1867.7,149.9,126.1,157.6,859.0,2273.0,2.0,0,
51900,1865.0,28.7,123.5,135.0,913.0,2434.0,2.0,0,
52000,1863.9,21.0,123.5,158.7,913.0,2434.0,2.0,0,
52100,1864.7,19.2,123.5,231.4,913.0,2434.0,2.0,0,
52200,1865.4,21.0,123.5,240.0,913.0,2434.0,2.0,0,
52300,1865.9,18.7,123.5,240.4,913.0,2434.0,2.0,0,
52400,1863.2,16.1,123.5,240.5,913.0,2434.0,2.0,0,
52600,1865.6,21.6,123.5,240.4,913.0,2434.0,2.0,0,
52700,1861.8,18.3,123.5,240.7,913.0,2434.0,2.0,0,
52800,1866.8,23.9,123.5,240.9,913.0,2434.0,2.0,0,
52900,1866.9,68.4,126.3,240.6,702.0,3755.0,4.0,1,
53000,1871.7,32.4,114.6,78.8,902.0,4063.0,3.0,1,
53100,1855.7,127.9,115.1,30.2,944.0,3101.0,2.0,0,
53200,1855.9,195.1,120.7,41.1,1195.0,3377.0,28.0,0,
53300,1865.4,187.2,118.6,150.7,957.0,2890.0,2.0,0,
53400,1860.4,126.3,120.9,195.8,935.0,3271.0,2.0,0,
53600,1861.2,20.5,125.1,158.6,935.0,3271.0,2.0,0,
53700,1863.5,19.4,125.1,139.0,935.0,3271.0,2.0,0,
53800,1865.5,17.3,125.1,104.2,935.0,3271.0,2.0,0,
53900,1864.3,22.2,125.1,238.6,935.0,3271.0,2.0,0,
54000,1864.9,19.5,125.1,240.4,935.0,3271.0,2.0,0,
54100,1865.8,21.5,125.1,240.2,935.0,3271.0,2.0,0,
54200,1863.8,19.7,125.1,240.3,935.0,3271.0,2.0,0,
54300,1862.5,21.6,125.1,240.4,935.0,3271.0,2.0,0,
54400,1867.3,20.4,125.1,240.6,935.0,3271.0,2.0,0,
54600,1847.7,64.9,128.8,77.4,756.0,3518.0,3.0,1,
54700,1876.2,119.3,133.6,71.6,900.0,2909.0,2.0,0,
54800,1854.1,215.6,134.9,76.6,1227.0,3649.0,28.0,0,
54900,1865.5,184.6,134.0,197.2,881.0,2775.0,2.0,0,
55000,1874.2,126.7,137.0,176.8,971.0,3091.0,28.0,0,
55100,1851.5,61.4,135.8,165.7,791.0,2316.0,2.0,0,
55200,1861.4,20.5,135.9,198.9,791.0,2316.0,2.0,0,
55300,1865.9,20.3,135.8,166.0,791.0,2316.0,2.0,0,
55400,1864.2,23.0,135.8,100.5,791.0,2316.0,2.0,0,
55600,1862.1,18.8,135.9,240.0,791.0,2316.0,2.0,0,
55700,1866.6,19.8,136.0,240.4,791.0,2316.0,2.0,0,
55800,1865.8,20.5,135.9,240.7,791.0,2316.0,2.0,0,
55900,1865.6,21.6,135.9,240.7,791.0,2316.0,2.0,0,
56000,1863.2,20.2,135.9,240.7,791.0,2316.0,2.0,0,
56100,1865.9,22.0,133.5,240.3,734.0,3950.0,6.0,1,
56200,1857.0,103.7,129.3,239.9,694.0,3357.0,5.0,1,
56300,1875.2,99.7,130.6,216.9,944.0,3719.0,2.0,0,
56400,1881.6,174.8,133.1,221.3,1373.0,3581.0,28.0,0,
56600,1865.5,109.3,127.4,198.9,956.0,2750.0,2.0,0,
56700,1859.6,96.5,125.3,198.9,843.0,2298.0,2.0,0,
56800,1863.1,23.0,125.3,196.5,843.0,2298.0,2.0,0,
56900,1862.9,18.7,125.3,134.2,843.0,2298.0,2.0,0,
57000,1865.8,19.0,125.3,67.7,843.0,2298.0,2.0,0,
57100,1864.0,21.8,125.3,106.6,843.0,2298.0,2.0,0,
57200,1863.2,22.8,125.3,240.2,843.0,2298.0,2.0,0,
57300,1865.2,21.3,125.3,240.2,843.0,2298.0,2.0,0,
57400,1865.0,22.7,125.3,240.5,843.0,2298.0,2.0,0,
57600,1865.4,20.9,125.4,240.6,843.0,2298.0,2.0,0,
57700,1865.4,17.2,125.3,240.5,843.0,2298.0,2.0,0,
57800,1853.3,160.9,126.1,240.4,789.0,3850.0,5.0,1,
57900,1887.3,36.9,124.9,144.3,840.0,3949.0,4.0,1,
58000,1856.4,173.6,121.1,100.3,1156.0,3766.0,28.0,0,
58100,1856.4,137.0,118.3,103.4,944.0,2949.0,2.0,0,
58200,1871.6,104.2,115.6,165.5,984.0,3026.0,2.0,0,
58300,1863.9,171.5,121.1,226.3,1352.0,3434.0,28.0,0,
58400,1861.3,26.8,120.1,168.8,920.0,2493.0,2.0,0,
58600,1866.6,20.6,120.2,215.9,920.0,2493.0,2.0,0,
58700,1861.9,19.5,120.2,252.4,920.0,2493.0,2.0,0,
58800,1864.4,19.3,120.1,241.1,920.0,2493.0,2.0,0,
58900,1861.0,18.5,120.2,240.7,920.0,2493.0,2.0,0,
59000,1861.5,17.6,120.2,240.7,920.0,2493.0,2.0,0,
59100,1863.9,20.6,120.1,240.9,920.0,2493.0,2.0,0,
59200,1860.9,17.0,120.2,240.8,920.0,2493.0,2.0,0,
59300,1863.3,19.5,120.2,240.5,920.0,2493.0,2.0,0,
59400,1858.0,81.2,122.8,240.0,720.0,3687.0,5.0,1,
59600,1865.6,159.3,121.6,75.0,930.0,3523.0,2.0,0,
59700,1856.6,225.0,127.8,72.8,917.0,2900.0,2.0,0,
59800,1880.6,193.6,127.0,99.3,988.0,3074.0,2.0,0,
59900,1854.3,175.9,132.6,135.0,1008.0,3122.0,2.0,0,
60000,1861.8,29.8,130.2,154.3,934.0,2948.0,2.0,0,
60100,1864.6,18.7,130.2,134.8,934.0,2948.0,2.0,0,
60200,1864.3,22.2,130.2,158.4,934.0,2948.0,2.0,0,
60300,1864.0,22.2,130.2,240.0,934.0,2948.0,2.0,0,
60400,1865.3,21.8,130.3,240.6,934.0,2948.0,2.0,0,
60600,1860.7,21.0,130.2,240.2,934.0,2948.0,2.0,0,
60700,1863.9,18.5,130.3,240.4,934.0,2948.0,2.0,0,
60800,1858.4,18.5,130.3,240.3,934.0,2948.0,2.0,0,
60900,1861.8,17.4,130.3,240.3,934.0,2948.0,2.0,0,
61000,1857.0,221.4,136.0,240.2,1262.0,3657.0,25.0,0,
61100,1868.4,245.2,149.9,91.0,1039.0,3098.0,2.0,0,
61200,1864.9,125.5,154.3,85.8,874.0,3376.0,2.0,0,
61300,1868.4,147.1,151.2,110.0,910.0,3032.0,2.0,0,
61400,1855.8,103.7,150.5,168.9,974.0,3326.0,2.0,0,
61600,1860.5,29.1,144.8,150.0,1097.0,3014.0,2.0,0,
61700,1860.6,17.9,144.8,152.6,1097.0,3014.0,2.0,0,
61800,1861.3,19.9,144.8,199.9,1097.0,3014.0,2.0,0,
61900,1862.9,15.7,144.8,233.0,1097.0,3014.0,2.0,0,
62000,1862.4,19.4,144.8,240.8,1097.0,3014.0,2.0,0,
62100,1864.2,19.0,144.8,240.9,1097.0,3014.0,2.0,0,
62200,1863.1,21.6,144.8,240.6,1097.0,3014.0,2.0,0,
62300,1863.6,19.9,144.8,240.4,1097.0,3014.0,2.0,0,
62400,1862.7,17.5,144.7,240.5,1097.0,3014.0,2.0,0,
62600,1863.1,260.5,149.1,240.5,1254.0,3642.0,25.0,0,
62700,1876.5,168.0,148.1,87.0,1019.0,3502.0,2.0,0,
62800,1864.9,103.6,146.7,93.1,913.0,3273.0,2.0,0,
62900,1850.0,49.8,141.2,100.7,997.0,4228.0,3.0,1,
63000,1865.9,48.0,134.6,103.2,1074.0,4346.0,4.0,1,
63100,1869.8,133.1,133.1,94.5,1115.0,3317.0,2.0,0,
63200,1853.2,73.5,134.9,44.6,865.0,2688.0,2.0,0,
63300,1861.1,22.2,134.9,105.5,865.0,2688.0,2.0,0,
63400,1864.6,20.1,134.8,132.4,865.0,2688.0,2.0,0,
63600,1864.7,17.0,134.9,155.5,865.0,2688.0,2.0,0,
63700,1865.6,17.2,134.8,240.7,865.0,2688.0,2.0,0,
63800,1864.5,19.7,134.8,240.8,865.0,2688.0,2.0,0,
63900,1865.2,19.6,134.7,240.7,865.0,2688.0,2.0,0,
64000,1862.9,20.7,134.7,240.6,865.0,2688.0,2.0,0,
64100,1864.9,19.0,134.8,240.3,865.0,2688.0,2.0,0,
64200,1883.4,19.0,133.2,240.0,865.0,2688.0,2.0,0,
64300,1844.9,42.2,104.6,240.2,874.0,4310.0,5.0,1,
64400,1868.1,92.2,99.6,237.9,924.0,2987.0,2.0,0,
64600,1858.3,188.8,108.9,230.0,1002.0,2881.0,2.0,0,
64700,1885.2,130.5,118.1,206.4,1008.0,3090.0,2.0,0,
64800,1849.8,74.6,114.4,154.7,961.0,3443.0,3.0,1,
64900,1865.7,19.4,113.3,134.8,961.0,3443.0,3.0,1,
65000,1864.5,16.7,113.3,92.6,961.0,3443.0,3.0,1,
65100,1861.3,18.8,113.3,75.7,961.0,3443.0,3.0,1,
65200,1864.4,18.6,113.2,221.3,961.0,3443.0,3.0,1,
65300,1863.7,18.3,113.3,240.6,961.0,3443.0,3.0,1,
65400,1865.8,18.3,113.3,240.8,961.0,3443.0,3.0,1,
65600,1860.3,21.5,113.3,240.9,961.0,3443.0,3.0,1,
65700,1866.7,16.9,113.2,240.5,961.0,3443.0,3.0,1,
65800,1866.4,71.4,113.2,240.4,961.0,3443.0,3.0,1,
65900,1855.3,92.0,117.1,207.8,742.0,3829.0,4.0,1,
66000,1874.7,222.1,119.7,43.9,844.0,3074.0,2.0,0,
66100,1873.6,168.0,130.7,108.3,1270.0,3832.0,28.0,0,
66200,1851.6,140.2,126.7,165.7,990.0,3130.0,2.0,0,
66300,1862.9,120.7,124.2,157.5,1012.0,2972.0,2.0,0,
66400,1857.5,179.8,126.4,199.1,1386.0,3489.0,28.0,0,
66600,1864.0,20.3,130.1,203.6,1386.0,3489.0,28.0,0,
66700,1864.5,17.9,130.1,237.8,1386.0,3489.0,28.0,0,
66800,1865.1,21.3,130.1,270.1,1386.0,3489.0,28.0,0,
66900,1861.3,20.6,130.1,241.1,1386.0,3489.0,28.0,0,
67000,1863.8,18.1,130.1,241.0,1386.0,3489.0,28.0,0,
67100,1865.6,18.1,130.1,240.9,1386.0,3489.0,28.0,0,
67200,1862.2,19.1,130.1,240.6,1386.0,3489.0,28.0,0,
67300,1863.3,16.3,130.1,240.4,1386.0,3489.0,28.0,0,
67400,1864.0,18.2,130.1,240.6,1386.0,3489.0,28.0,0,
67600,1876.7,195.1,138.3,93.8,1107.0,3260.0,2.0,0,
67700,1855.8,168.8,140.1,93.9,935.0,3127.0,2.0,0,
67800,1851.9,187.7,141.3,103.5,964.0,3333.0,2.0,0,
67900,1868.8,89.0,137.2,136.7,1090.0,3253.0,2.0,0,
68000,1867.5,161.0,138.9,187.6,1381.0,3503.0,28.0,0,
68100,1866.6,29.1,136.1,185.8,927.0,2610.0,2.0,0,
68200,1861.8,22.5,136.1,196.2,927.0,2610.0,2.0,0,
68300,1862.0,21.1,136.2,228.3,927.0,2610.0,2.0,0,
68400,1863.0,18.0,136.2,240.3,927.0,2610.0,2.0,0,
68600,1864.2,24.2,136.2,240.7,927.0,2610.0,2.0,0,
68700,1867.2,21.7,136.2,240.5,927.0,2610.0,2.0,0,
68800,1863.7,17.7,136.2,240.7,927.0,2610.0,2.0,0,
68900,1864.2,21.9,136.2,240.8,927.0,2610.0,2.0,0,
69000,1863.4,20.8,136.2,240.7,927.0,2610.0,2.0,0,
69100,1878.8,150.7,138.5,240.2,927.0,2610.0,2.0,0,
69200,1851.6,164.2,135.7,88.8,872.0,3303.0,2.0,0,
69300,1871.7,135.5,133.6,87.0,944.0,3014.0,2.0,0,
69400,1854.7,223.2,134.5,90.6,960.0,2786.0,2.0,0,
69600,1865.1,144.9,135.5,158.3,1300.0,3433.0,28.0,0,
69700,1852.8,27.8,132.7,102.5,1091.0,3240.0,2.0,0,
69800,1861.2,21.8,132.8,133.7,1091.0,3240.0,2.0,0,
69900,1863.0,19.4,132.7,190.2,1091.0,3240.0,2.0,0,
70000,1866.2,18.5,132.7,231.8,1091.0,3240.0,2.0,0,
70100,1866.4,19.8,132.6,241.3,1091.0,3240.0,2.0,0,
70200,1867.5,20.3,132.6,240.9,1091.0,3240.0,2.0,0,
70300,1864.2,21.0,132.6,240.6,1091.0,3240.0,2.0,0,
70400,1864.8,20.7,132.6,240.5,1091.0,3240.0,2.0,0,
70600,1862.6,19.0,132.6,240.6,1091.0,3240.0,2.0,0,
70700,1866.4,192.0,134.1,240.4,1539.0,4652.0,27.0,0,
70800,1867.7,231.3,143.9,165.0,855.0,3198.0,2.0,0,
70900,1874.3,124.6,141.4,152.4,958.0,3402.0,2.0,0,
71000,1870.3,155.6,142.0,158.9,969.0,3170.0,2.0,0,
71100,1849.9,73.5,137.8,197.3,1074.0,3253.0,2.0,0,
71200,1864.2,132.9,139.9,225.6,1040.0,2953.0,2.0,0,
71300,1850.5,90.8,140.3,199.6,922.0,2752.0,2.0,0,
71400,1866.9,23.2,140.2,152.3,922.0,2752.0,2.0,0,
71600,1864.0,19.4,140.2,93.1,922.0,2752.0,2.0,0,
71700,1864.1,20.8,140.2,151.1,922.0,2752.0,2.0,0,
71800,1864.7,22.0,140.3,240.2,922.0,2752.0,2.0,0,
71900,1863.3,21.7,140.2,240.6,922.0,2752.0,2.0,0,
72000,1863.1,16.2,140.3,240.7,922.0,2752.0,2.0,0,
72100,1864.0,18.3,140.3,240.5,922.0,2752.0,2.0,0,
72200,1865.1,18.6,140.2,240.6,922.0,2752.0,2.0,0,
72300,1861.9,16.3,140.2,240.8,922.0,2752.0,2.0,0,
72400,1866.6,19.6,119.4,240.5,884.0,4463.0,5.0,1,
72600,1847.2,193.7,117.8,239.4,1231.0,3950.0,28.0,0,
72700,1865.2,141.5,116.5,231.2,1001.0,3112.0,2.0,0,
72800,1866.3,148.8,118.2,175.5,1073.0,3275.0,2.0,0,
72900,1859.6,178.2,121.0,147.7,925.0,2704.0,2.0,0,
73000,1860.8,28.7,119.7,159.1,1001.0,2642.0,2.0,0,
73100,1863.6,18.2,119.7,132.2,1001.0,2642.0,2.0,0,
73200,1864.3,22.3,119.7,40.2,1001.0,2642.0,2.0,0,
73300,1866.6,19.2,119.6,69.5,1001.0,2642.0,2.0,0,
73400,1865.4,23.0,119.6,240.3,1001.0,2642.0,2.0,0,
73600,1864.2,16.5,119.6,240.5,1001.0,2642.0,2.0,0,
73700,1863.5,20.6,119.6,240.4,1001.0,2642.0,2.0,0,
73800,1866.8,17.9,119.6,240.5,1001.0,2642.0,2.0,0,
73900,1866.2,18.5,119.6,240.4,1001.0,2642.0,2.0,0,
74000,1873.6,35.3,119.8,240.5,825.0,4068.0,4.0,1,
74100,1861.5,129.5,124.7,206.8,859.0,3058.0,2.0,0,
74200,1854.2,196.2,124.9,93.4,996.0,3558.0,2.0,0,
74300,1873.1,91.7,123.6,158.5,1021.0,3129.0,2.0,0,
74400,1886.8,143.4,123.3,185.2,1297.0,3869.0,28.0,0,
74600,1865.9,33.9,124.2,158.0,958.0,2732.0,2.0,0,
74700,1862.1,21.4,124.2,94.1,958.0,2732.0,2.0,0,
74800,1866.2,18.8,124.2,42.1,958.0,2732.0,2.0,0,
74900,1863.4,18.6,124.2,40.8,958.0,2732.0,2.0,0,
75000,1864.3,17.5,124.2,239.9,958.0,2732.0,2.0,0,
75100,1863.3,19.1,124.2,240.4,958.0,2732.0,2.0,0,
75200,1865.0,20.4,124.2,240.5,958.0,2732.0,2.0,0,
75300,1868.7,18.2,124.1,240.6,958.0,2732.0,2.0,0,
75400,1865.5,22.8,124.2,240.8,958.0,2732.0,2.0,0,
75600,1858.5,37.1,126.5,240.2,696.0,3710.0,5.0,1,
75700,1869.6,99.0,125.8,70.5,790.0,3012.0,2.0,0,
75800,1853.3,175.1,122.4,81.1,948.0,3207.0,2.0,0,
75900,1874.0,61.9,120.1,166.5,1088.0,3193.0,2.0,0,
76000,1860.7,153.5,125.1,184.6,1050.0,3254.0,2.0,0,
76100,1850.3,184.3,126.4,177.8,997.0,3026.0,2.0,0,
76200,1875.6,45.8,123.5,170.8,1027.0,2944.0,2.0,0,
76300,1862.0,19.2,123.5,185.7,1027.0,2944.0,2.0,0,
76400,1863.8,17.8,123.5,195.1,1027.0,2944.0,2.0,0,
76600,1864.5,20.8,123.5,240.6,1027.0,2944.0,2.0,0,
76700,1863.8,17.5,123.5,240.3,1027.0,2944.0,2.0,0,
76800,1863.5,20.3,123.6,240.3,1027.0,2944.0,2.0,0,
76900,1864.8,18.7,123.6,240.3,1027.0,2944.0,2.0,0,
77000,1864.4,19.0,123.6,240.3,1027.0,2944.0,2.0,0,
77100,1864.1,19.9,123.6,240.5,1027.0,2944.0,2.0,0,
77200,1861.0,27.2,121.0,240.5,721.0,4032.0,6.0,1,
77300,1877.1,98.7,122.6,239.6,820.0,3337.0,2.0,0,
77400,1849.0,183.7,125.9,201.1,1044.0,3252.0,2.0,0,
77600,1868.3,163.9,127.8,158.0,1027.0,3427.0,2.0,0,
77700,1859.7,194.3,125.8,151.6,1052.0,3325.0,2.0,0,
77800,1874.1,59.1,124.5,101.8,1122.0,3263.0,2.0,0,
77900,1863.8,19.0,124.5,153.7,1122.0,3263.0,2.0,0,
78000,1862.5,18.7,124.5,198.6,1122.0,3263.0,2.0,0,
78100,1866.1,17.9,124.5,230.1,1122.0,3263.0,2.0,0,
78200,1866.7,19.8,124.4,240.2,1122.0,3263.0,2.0,0,
78300,1866.3,18.0,124.4,240.2,1122.0,3263.0,2.0,0,
78400,1866.1,16.1,124.3,240.6,1122.0,3263.0,2.0,0,
78600,1866.5,19.3,124.3,240.2,1122.0,3263.0,2.0,0,
78700,1866.5,19.3,124.3,240.2,1122.0,3263.0,2.0,0,
78800,1879.1,31.4,124.2,240.4,1122.0,3263.0,2.0,0,
78900,1850.8,34.2,119.7,240.3,854.0,4219.0,6.0,1,
79000,1851.4,164.3,114.3,237.9,891.0,3461.0,2.0,0,
79100,1869.5,67.5,113.3,107.4,1106.0,3494.0,2.0,0,
79200,1866.8,179.5,113.1,154.8,1312.0,3999.0,28.0,0,
79300,1864.8,139.2,113.8,216.5,1092.0,3404.0,2.0,0,
79400,1856.7,62.3,111.6,205.2,1024.0,3133.0,2.0,0,
79600,1864.1,19.2,111.5,190.0,1024.0,3133.0,2.0,0,
79700,1864.3,22.7,111.6,229.3,1024.0,3133.0,2.0,0,
79800,1864.9,18.3,111.6,239.7,1024.0,3133.0,2.0,0,
79900,1862.5,20.6,111.7,240.4,1024.0,3133.0,2.0,0,
80000,1861.8,16.9,111.8,240.5,1024.0,3133.0,2.0,0,
80100,1866.4,19.4,111.7,240.5,1024.0,3133.0,2.0,0,
80200,1864.6,21.0,111.8,240.8,1024.0,3133.0,2.0,0,
80300,1862.3,18.6,111.8,240.7,1024.0,3133.0,2.0,0,
80400,1864.9,71.4,111.9,240.3,1024.0,3133.0,2.0,0,
80600,1854.5,191.0,125.5,51.6,904.0,3330.0,2.0,0,
80700,1878.8,181.8,123.0,52.4,1033.0,3371.0,2.0,0,
80800,1861.0,131.9,128.4,75.4,1471.0,4070.0,28.0,0,
80900,1848.7,155.2,126.1,136.2,991.0,3256.0,2.0,0,
81000,1870.7,154.3,124.1,142.1,944.0,3043.0,2.0,0,
81100,1861.4,29.3,127.2,205.4,823.0,2677.0,2.0,0,
81200,1863.9,20.1,127.2,208.5,823.0,2677.0,2.0,0,
81300,1864.5,19.1,127.2,156.4,823.0,2677.0,2.0,0,
81400,1865.0,15.0,127.1,137.2,823.0,2677.0,2.0,0,
81600,1863.8,15.6,127.0,240.4,823.0,2677.0,2.0,0,
81700,1864.8,18.0,127.0,240.5,823.0,2677.0,2.0,0,
81800,1864.0,17.5,127.0,240.7,823.0,2677.0,2.0,0,
81900,1863.9,18.9,127.0,240.6,823.0,2677.0,2.0,0,
82000,1865.0,18.5,127.0,240.5,823.0,2677.0,2.0,0,
82100,1864.8,253.7,130.7,237.9,987.0,3611.0,27.0,0,
82200,1874.8,171.5,142.9,49.6,927.0,3299.0,2.0,0,
82300,1846.9,86.3,140.9,41.9,1045.0,3319.0,2.0,0,
82400,1863.4,143.8,141.1,93.4,992.0,3558.0,2.0,0,
82600,1862.0,90.3,143.2,146.5,1066.0,3243.0,2.0,0,
82700,1867.6,37.4,143.8,147.0,891.0,2755.0,2.0,0,
82800,1863.6,17.4,143.8,137.3,891.0,2755.0,2.0,0,
82900,1864.8,20.9,143.9,106.5,891.0,2755.0,2.0,0,
83000,1863.8,15.3,143.9,78.5,891.0,2755.0,2.0,0,
83100,1860.9,18.0,144.0,239.6,891.0,2755.0,2.0,0,
83200,1862.0,17.4,144.0,240.4,891.0,2755.0,2.0,0,
83300,1866.8,19.8,144.0,240.4,891.0,2755.0,2.0,0,
83400,1865.7,17.2,144.0,240.4,891.0,2755.0,2.0,0,
83600,1864.0,18.2,144.1,240.3,891.0,2755.0,2.0,0,
83700,1879.7,55.3,139.7,240.3,647.0,3640.0,5.0,1,
83800,1841.1,143.6,125.6,50.5,1063.0,3831.0,28.0,0,
83900,1866.7,159.7,123.5,41.7,1011.0,3508.0,2.0,0,
84000,1866.6,177.0,126.8,130.6,1036.0,3620.0,2.0,0,
84100,1867.8,191.8,129.1,158.8,1043.0,3191.0,2.0,0,
84200,1856.2,68.1,124.0,157.4,1128.0,3561.0,2.0,0,
84300,1855.2,58.7,125.8,154.8,992.0,2768.0,2.0,0,
84400,1865.1,20.2,125.7,135.0,992.0,2768.0,2.0,0,
84600,1863.6,16.5,125.7,39.4,992.0,2768.0,2.0,0,
84700,1864.4,16.5,125.7,216.1,992.0,2768.0,2.0,0,
84800,1862.4,16.1,125.7,240.2,992.0,2768.0,2.0,0,
84900,1864.3,19.9,125.7,240.4,992.0,2768.0,2.0,0,
85000,1863.8,18.4,125.7,240.8,992.0,2768.0,2.0,0,
85100,1860.2,15.9,125.8,240.9,992.0,2768.0,2.0,0,
85200,1864.4,17.8,125.7,240.4,992.0,2768.0,2.0,0,
85300,1872.0,14.8,122.2,240.3,715.0,3886.0,7.0,1,
85400,1855.5,161.4,124.3,240.2,1083.0,3683.0,28.0,0,
85600,1889.4,110.1,121.5,226.0,1071.0,3905.0,2.0,0,
85700,1835.7,190.2,121.1,229.7,1329.0,3924.0,28.0,0,
85800,1864.8,137.5,117.3,199.3,1013.0,3329.0,2.0,0,
85900,1871.8,93.7,119.0,153.7,1019.0,3186.0,2.0,0,
86000,1865.5,21.1,119.0,158.5,1019.0,3186.0,2.0,0,
86100,1863.7,17.9,119.0,157.3,1019.0,3186.0,2.0,0,
86200,1862.5,16.0,119.0,178.2,1019.0,3186.0,2.0,0,
86300,1865.5,17.2,118.9,239.8,1019.0,3186.0,2.0,0,
86400,1866.4,19.2,118.9,240.3,1019.0,3186.0,2.0,0,
86600,1864.7,18.1,118.9,240.3,1019.0,3186.0,2.0,0,
86700,1864.2,16.4,118.8,240.0,1019.0,3186.0,2.0,0,
86800,1865.5,20.5,118.8,240.2,1019.0,3186.0,2.0,0,
86900,1862.0,20.0,118.9,240.7,1019.0,3186.0,2.0,0,
87000,1861.7,137.4,122.8,241.0,1169.0,4161.0,28.0,0,
87100,1867.2,189.3,125.1,216.8,1011.0,3514.0,2.0,0,
87200,1856.7,116.5,128.2,195.1,1061.0,3383.0,2.0,0,
87300,1855.6,184.7,129.4,137.7,1088.0,3961.0,28.0,0,
87400,1870.5,127.3,127.7,153.5,1120.0,3499.0,2.0,0,
87600,1854.3,22.6,126.8,84.3,1066.0,3160.0,2.0,0,
87700,1863.3,18.7,126.8,106.6,1066.0,3160.0,2.0,0,
87800,1862.3,16.3,126.8,175.8,1066.0,3160.0,2.0,0,
87900,1862.4,16.9,126.9,239.4,1066.0,3160.0,2.0,0,
88000,1866.2,17.8,126.9,241.0,1066.0,3160.0,2.0,0,
88100,1864.7,17.5,126.9,240.7,1066.0,3160.0,2.0,0,
88200,1864.4,17.8,126.8,240.7,1066.0,3160.0,2.0,0,
88300,1866.5,18.5,126.8,240.7,1066.0,3160.0,2.0,0,
88400,1864.7,19.9,126.8,240.8,1066.0,3160.0,2.0,0,
88600,1869.7,129.4,135.7,239.8,1343.0,3768.0,25.0,0,
88700,1855.2,70.6,123.8,100.5,951.0,4439.0,5.0,1,
88800,1870.2,77.9,118.8,89.2,1029.0,3454.0,2.0,0,
88900,1865.1,196.1,123.3,106.2,1420.0,4456.0,28.0,0,
89000,1874.1,133.5,119.3,204.5,1068.0,3542.0,2.0,0,
89100,1850.3,102.3,118.0,154.9,1180.0,3498.0,2.0,0,
89200,1860.2,23.2,117.5,158.0,1107.0,3384.0,2.0,0,
89300,1862.4,19.8,117.5,215.7,1107.0,3384.0,2.0,0,
89400,1862.8,16.0,117.5,231.7,1107.0,3384.0,2.0,0,
89600,1865.4,17.4,117.5,240.3,1107.0,3384.0,2.0,0,
89700,1863.4,21.9,117.5,240.4,1107.0,3384.0,2.0,0,
89800,1865.0,20.9,117.5,240.3,1107.0,3384.0,2.0,0,
89900,1864.7,20.1,117.5,240.4,1107.0,3384.0,2.0,0,
90000,1864.4,16.8,117.6,240.4,1107.0,3384.0,2.0,0,
90100,1864.7,18.2,117.5,240.5,1107.0,3384.0,2.0,0,
90200,1869.9,23.8,110.4,240.6,684.0,3868.0,5.0,1,
90300,1858.7,184.5,109.3,240.3,925.0,3178.0,2.0,0,
90400,1865.5,67.6,110.5,73.8,1072.0,3610.0,2.0,0,
90600,1845.6,151.1,111.5,94.4,981.0,3074.0,2.0,0,
90700,1869.3,89.8,110.0,136.3,1167.0,3372.0,2.0,0,
90800,1864.6,45.8,113.7,154.1,1018.0,3012.0,2.0,0,
90900,1862.3,17.8,113.7,153.0,1018.0,3012.0,2.0,0,
91000,1862.1,22.7,113.7,133.9,1018.0,3012.0,2.0,0,
91100,1862.9,16.3,113.8,88.3,1018.0,3012.0,2.0,0,
91200,1865.1,20.1,113.8,239.4,1018.0,3012.0,2.0,0,
91300,1865.7,21.0,113.7,240.5,1018.0,3012.0,2.0,0,
91400,1865.1,19.2,113.8,240.7,1018.0,3012.0,2.0,0,
91600,1864.7,22.5,113.7,240.5,1018.0,3012.0,2.0,0,
91700,1863.5,18.3,113.8,240.5,1018.0,3012.0,2.0,0,
91800,1872.3,37.8,113.9,240.3,588.0,3182.0,5.0,1,
91900,1871.1,36.7,112.3,240.4,902.0,4571.0,5.0,1,
92000,1853.2,74.9,104.1,212.9,991.0,4342.0,4.0,1,
92100,1863.6,144.3,107.8,81.8,1079.0,3666.0,2.0,0,
92200,1854.1,165.7,108.0,81.9,939.0,2910.0,2.0,0,
92300,1867.7,58.5,103.3,99.9,1139.0,3435.0,2.0,0,
92400,1855.1,71.2,106.0,163.4,926.0,2743.0,2.0,0,
92600,1864.2,20.4,105.9,89.9,926.0,2743.0,2.0,0,
92700,1864.3,18.0,105.9,39.0,926.0,2743.0,2.0,0,
92800,1864.7,19.6,105.9,201.3,926.0,2743.0,2.0,0,
92900,1862.6,19.7,105.9,240.5,926.0,2743.0,2.0,0,
93000,1861.2,17.0,105.9,240.5,926.0,2743.0,2.0,0,
93100,1862.6,20.8,106.0,240.4,926.0,2743.0,2.0,0,
93200,1864.0,17.1,106.0,240.4,926.0,2743.0,2.0,0,
93300,1863.9,19.1,106.0,240.6,926.0,2743.0,2.0,0,
93400,1882.9,21.6,105.9,240.2,926.0,2743.0,2.0,0,
93600,1865.9,98.6,105.1,92.0,959.0,4701.0,4.0,1,
93700,1870.8,111.1,106.7,81.7,973.0,3867.0,2.0,0,
93800,1858.4,167.1,107.3,83.7,1036.0,3289.0,2.0,0,
93900,1875.7,64.9,103.6,152.3,1136.0,3712.0,2.0,0,
94000,1858.6,98.0,104.7,164.3,1204.0,3702.0,2.0,0,
94100,1865.2,22.9,104.2,159.1,1204.0,3702.0,2.0,0,
94200,1863.6,19.8,104.2,204.4,1204.0,3702.0,2.0,0,
94300,1864.8,20.8,104.2,249.4,1204.0,3702.0,2.0,0,
94400,1862.8,20.1,104.2,274.4,1204.0,3702.0,2.0,0,
94600,1865.7,20.5,104.2,240.8,1204.0,3702.0,2.0,0,
94700,1866.7,19.1,104.2,240.7,1204.0,3702.0,2.0,0,
94800,1863.7,19.0,104.2,240.7,1204.0,3702.0,2.0,0,
94900,1862.4,21.0,104.2,240.7,1204.0,3702.0,2.0,0,
95000,1866.1,16.9,104.2,240.5,1204.0,3702.0,2.0,0,
95100,1857.6,52.8,101.2,240.4,755.0,3657.0,4.0,1,
95200,1866.6,177.9,104.5,239.7,900.0,4068.0,3.0,1,
95300,1881.3,116.3,108.3,74.7,1076.0,3694.0,2.0,0,
95400,1842.3,159.4,109.6,90.9,995.0,3342.0,2.0,0,
95600,1870.5,104.9,113.7,173.4,1129.0,3531.0,2.0,0,
95700,1864.6,25.4,111.1,167.5,1045.0,3469.0,2.0,0,
95800,1863.5,19.7,111.2,158.7,1045.0,3469.0,2.0,0,
95900,1863.2,18.7,111.1,225.8,1045.0,3469.0,2.0,0,
96000,1864.8,21.3,111.1,240.9,1045.0,3469.0,2.0,0,
96100,1862.1,19.7,111.1,240.4,1045.0,3469.0,2.0,0,
96200,1863.4,20.1,111.2,240.5,1045.0,3469.0,2.0,0,
96300,1862.6,21.4,111.2,240.5,1045.0,3469.0,2.0,0,
96400,1863.0,21.2,111.3,240.5,1045.0,3469.0,2.0,0,
96600,1864.0,17.1,111.2,240.6,1045.0,3469.0,2.0,0,
96700,1855.8,45.1,114.1,240.3,612.0,3554.0,3.0,1,
96800,1877.1,121.2,112.1,94.3,913.0,4376.0,5.0,1,
96900,1851.2,106.5,110.6,80.6,1044.0,3295.0,2.0,0,
97000,1852.3,172.5,113.2,83.3,1338.0,4282.0,28.0,0,
97100,1863.2,249.5,117.2,153.9,903.0,3228.0,2.0,0,
97200,1862.1,128.2,119.9,168.9,1090.0,3434.0,2.0,0,
97300,1862.8,25.0,118.9,133.0,1036.0,3401.0,2.0,0,
97400,1860.9,20.0,119.0,94.2,1036.0,3401.0,2.0,0,
97600,1866.0,19.1,119.0,239.5,1036.0,3401.0,2.0,0,
97700,1863.8,20.4,119.0,240.7,1036.0,3401.0,2.0,0,
97800,1863.2,21.9,119.1,240.7,1036.0,3401.0,2.0,0,
97900,1862.0,20.7,119.0,240.7,1036.0,3401.0,2.0,0,
98000,1863.6,17.0,119.0,240.6,1036.0,3401.0,2.0,0,
98100,1862.3,20.6,119.0,240.4,1036.0,3401.0,2.0,0,
98200,1863.0,20.5,119.0,240.3,1036.0,3401.0,2.0,0,
98300,1874.5,124.4,125.4,240.1,1202.0,3419.0,25.0,0,
98400,1848.5,61.3,125.2,104.9,930.0,4663.0,3.0,1,
98600,1858.8,193.9,122.3,101.4,1317.0,4010.0,28.0,0,
98700,1876.9,170.6,121.1,158.0,1124.0,3725.0,2.0,0,
98800,1861.8,100.3,114.8,159.1,1119.0,3760.0,2.0,0,
98900,1849.9,61.0,119.0,157.8,1090.0,3149.0,2.0,0,
99000,1861.4,20.8,119.0,157.1,1090.0,3149.0,2.0,0,
99100,1862.3,20.2,119.0,134.6,1090.0,3149.0,2.0,0,
99200,1865.0,19.3,119.0,83.8,1090.0,3149.0,2.0,0,
99300,1866.3,19.5,118.9,208.1,1090.0,3149.0,2.0,0,
99400,1865.2,20.7,118.9,240.4,1090.0,3149.0,2.0,0,
99600,1860.8,16.7,119.0,240.5,1090.0,3149.0,2.0,0,
99700,1861.9,17.3,118.9,240.7,1090.0,3149.0,2.0,0,
99800,1863.4,18.1,118.9,240.8,1090.0,3149.0,2.0,0,
99900,1865.2,14.6,114.0,240.8,622.0,3548.0,6.0,1,
100000,1859.6,150.2,113.3,240.1,866.0,3126.0,2.0,0,
100100,1861.1,56.7,113.3,103.1,965.0,3239.0,2.0,0,
100200,1879.0,140.9,118.1,99.3,1253.0,4027.0,28.0,0,
100300,1838.3,150.2,116.5,152.7,992.0,3003.0,2.0,0,
100400,1866.2,83.0,114.6,154.2,1118.0,3331.0,2.0,0,
100600,1864.4,25.1,114.6,135.0,1118.0,3331.0,2.0,0,
100700,1865.0,22.3,114.6,99.8,1118.0,3331.0,2.0,0,
100800,1862.8,21.2,114.7,71.1,1118.0,3331.0,2.0,0,
100900,1866.3,21.8,114.7,226.8,1118.0,3331.0,2.0,0,
101000,1863.8,20.9,114.7,240.4,1118.0,3331.0,2.0,0,
101100,1861.2,20.7,114.7,240.4,1118.0,3331.0,2.0,0,
101200,1860.3,20.8,114.7,240.3,1118.0,3331.0,2.0,0,
101300,1862.2,20.1,114.8,240.3,1118.0,3331.0,2.0,0,
101400,1864.0,22.4,114.8,240.7,1118.0,3331.0,2.0,0,
101600,1863.1,112.6,114.4,240.5,744.0,3872.0,3.0,1,
101700,1873.6,168.4,116.9,189.1,912.0,3402.0,2.0,0,
101800,1849.1,179.2,123.2,175.9,1212.0,4301.0,2.0,0,
101900,1857.0,171.5,125.3,141.6,956.0,2975.0,2.0,0,
102000,1867.8,82.1,119.0,123.9,1119.0,3566.0,2.0,0,
102100,1870.3,164.0,120.5,137.0,1229.0,3962.0,28.0,0,
102200,1850.5,24.2,120.5,94.4,1107.0,3488.0,2.0,0,
102300,1864.2,22.4,120.4,134.6,1107.0,3488.0,2.0,0,
102400,1864.1,18.4,120.4,149.0,1107.0,3488.0,2.0,0,
102600,1862.4,18.1,120.4,240.5,1107.0,3488.0,2.0,0,
102700,1861.6,23.7,120.4,240.4,1107.0,3488.0,2.0,0,
102800,1865.8,18.6,120.3,240.4,1107.0,3488.0,2.0,0,
102900,1862.8,20.3,120.2,240.4,1107.0,3488.0,2.0,0,
103000,1864.0,16.9,120.2,240.5,1107.0,3488.0,2.0,0,
103100,1862.7,18.9,120.1,240.5,1107.0,3488.0,2.0,0,
103200,1856.5,96.8,123.5,239.8,636.0,3467.0,4.0,1,
103300,1864.9,143.5,122.7,92.9,1050.0,3807.0,2.0,0,
103400,1859.4,145.0,119.1,93.3,1393.0,4360.0,28.0,0,
103600,1879.8,69.9,127.1,134.1,1089.0,3477.0,2.0,0,
103700,1842.5,164.1,131.3,102.3,1075.0,3791.0,28.0,0,
103800,1865.4,29.2,129.1,101.1,1204.0,3508.0,2.0,0,
103900,1860.1,18.0,129.2,166.0,1204.0,3508.0,2.0,0,
104000,1859.5,18.9,129.1,227.8,1204.0,3508.0,2.0,0,
104100,1859.9,18.1,129.2,281.3,1204.0,3508.0,2.0,0,
104200,1863.3,23.7,129.2,241.0,1204.0,3508.0,2.0,0,
104300,1863.5,21.0,129.3,240.5,1204.0,3508.0,2.0,0,
104400,1862.4,19.9,129.3,240.6,1204.0,3508.0,2.0,0,
104600,1862.7,19.7,129.4,240.5,1204.0,3508.0,2.0,0,
104700,1862.8,18.1,129.4,240.6,1204.0,3508.0,2.0,0,
104800,1852.3,145.2,133.4,240.4,876.0,3189.0,2.0,0,
104900,1867.6,266.0,138.9,123.6,1129.0,3855.0,2.0,0,
105000,1871.8,162.7,141.8,138.8,1429.0,4420.0,28.0,0,
105100,1856.9,155.9,138.1,141.5,1053.0,3110.0,2.0,0,
105200,1858.7,85.3,134.3,134.9,1172.0,3571.0,2.0,0,
105300,1858.4,146.6,132.1,154.3,1401.0,4140.0,28.0,0,
105400,1867.9,51.2,136.1,167.2,840.0,2734.0,2.0,0,
105600,1860.5,17.0,136.0,147.6,840.0,2734.0,2.0,0,
105700,1866.2,19.1,135.9,106.2,840.0,2734.0,2.0,0,
105800,1863.5,15.2,135.8,229.9,840.0,2734.0,2.0,0,
105900,1863.0,15.9,135.8,240.5,840.0,2734.0,2.0,0,
106000,1864.2,20.0,135.7,240.2,840.0,2734.0,2.0,0,
106100,1864.2,19.4,135.6,240.3,840.0,2734.0,2.0,0,
106200,1864.3,15.6,135.6,240.4,840.0,2734.0,2.0,0,
106300,1862.4,16.4,135.5,240.5,840.0,2734.0,2.0,0,
106400,1860.5,122.4,137.1,240.2,840.0,2734.0,2.0,0,
106600,1860.2,220.4,125.8,76.4,1647.0,3484.0,26.0,0,
106700,1850.0,228.3,132.8,78.1,792.0,2766.0,27.0,0,
106800,1864.1,154.2,131.6,130.7,868.0,2975.0,2.0,0,
106900,1869.0,135.1,135.2,135.9,1286.0,3568.0,28.0,0,
107000,1850.5,78.1,134.9,155.0,816.0,2358.0,2.0,0,
107100,1860.8,21.1,134.9,158.4,816.0,2358.0,2.0,0,
107200,1862.2,19.8,134.9,99.8,816.0,2358.0,2.0,0,
107300,1863.0,17.9,135.0,73.7,816.0,2358.0,2.0,0,
107400,1860.4,16.8,135.1,168.8,816.0,2358.0,2.0,0,
107600,1866.0,20.2,135.1,240.4,816.0,2358.0,2.0,0,
107700,1863.0,17.1,135.1,240.4,816.0,2358.0,2.0,0,
107800,1863.9,16.9,135.1,240.5,816.0,2358.0,2.0,0,
107900,1865.0,20.2,135.1,240.5,816.0,2358.0,2.0,0,
108000,1877.3,66.3,135.4,240.4,816.0,2358.0,2.0,0,
108100,1851.0,60.4,134.5,238.3,713.0,3641.0,5.0,1,
108200,1869.8,239.3,138.8,90.3,1029.0,3029.0,2.0,0,
108300,1854.3,210.8,135.8,86.7,1000.0,3386.0,2.0,0,
108400,1864.1,173.8,131.2,107.9,1120.0,3576.0,2.0,0,
108600,1845.5,129.6,135.4,198.1,1088.0,2899.0,2.0,0,
108700,1864.7,23.5,135.2,158.6,1088.0,2899.0,2.0,0,
108800,1863.2,17.8,135.1,100.1,1088.0,2899.0,2.0,0,
108900,1859.9,16.6,135.2,49.5,1088.0,2899.0,2.0,0,
109000,1865.8,16.5,135.1,98.9,1088.0,2899.0,2.0,0,
109100,1862.4,16.9,135.1,240.1,1088.0,2899.0,2.0,0,
109200,1862.3,18.1,135.2,240.5,1088.0,2899.0,2.0,0,
109300,1863.1,19.6,135.1,240.7,1088.0,2899.0,2.0,0,
109400,1863.2,15.0,135.2,240.7,1088.0,2899.0,2.0,0,
109600,1863.6,18.6,135.2,241.0,1088.0,2899.0,2.0,0,
109700,1869.2,111.1,133.0,240.7,751.0,4110.0,5.0,1,
109800,1866.9,148.5,134.7,177.6,1111.0,4194.0,2.0,0,
109900,1879.1,181.1,124.6,91.9,1183.0,3638.0,2.0,0,
110000,1847.0,83.1,123.7,148.5,1228.0,3653.0,2.0,0,
110100,1860.4,166.3,127.4,158.1,1153.0,4081.0,2.0,0,
110200,1856.0,178.6,121.3,135.6,976.0,3211.0,2.0,0,
110300,1866.9,27.2,121.2,136.5,1027.0,2961.0,2.0,0,
110400,1863.8,18.1,121.3,154.0,1027.0,2961.0,2.0,0,
110600,1863.5,15.8,121.2,103.4,1027.0,2961.0,2.0,0,
110700,1860.2,19.6,121.3,240.2,1027.0,2961.0,2.0,0,
110800,1862.8,15.8,121.3,240.4,1027.0,2961.0,2.0,0,
110900,1861.3,16.6,121.3,240.7,1027.0,2961.0,2.0,0,
111000,1862.8,18.0,121.3,241.1,1027.0,2961.0,2.0,0,
111100,1863.9,18.2,121.3,241.0,1027.0,2961.0,2.0,0,
111200,1863.1,15.8,121.3,240.9,1027.0,2961.0,2.0,0,
111300,1856.5,13.4,121.3,240.6,789.0,3900.0,5.0,1,
111400,1890.0,114.7,121.3,238.5,1344.0,4396.0,28.0,0,
111600,1859.3,89.7,119.7,154.5,1165.0,3753.0,2.0,0,
111700,1861.8,136.7,114.8,134.1,1163.0,3963.0,2.0,0,
111800,1855.2,154.5,111.3,81.3,1098.0,3515.0,2.0,0,
111900,1871.6,37.6,112.3,108.8,1148.0,3424.0,2.0,0,
112000,1860.6,18.0,112.2,135.4,1148.0,3424.0,2.0,0,
112100,1861.2,16.7,112.3,137.6,1148.0,3424.0,2.0,0,
112200,1862.4,19.6,112.3,177.4,1148.0,3424.0,2.0,0,
112300,1863.3,18.2,112.3,240.4,1148.0,3424.0,2.0,0,
112400,1864.8,19.0,112.2,240.7,1148.0,3424.0,2.0,0,
112600,1863.0,19.9,112.2,240.4,1148.0,3424.0,2.0,0,
112700,1861.8,18.6,112.2,240.4,1148.0,3424.0,2.0,0,
112800,1863.3,18.5,112.2,240.4,1148.0,3424.0,2.0,0,
112900,1863.1,18.5,112.1,240.7,650.0,3583.0,5.0,1,
113000,1858.4,115.7,114.9,239.4,985.0,3677.0,2.0,0,
113100,1852.6,173.7,110.9,137.2,1100.0,4000.0,2.0,0,
113200,1872.8,95.2,108.5,174.6,1209.0,3859.0,2.0,0,
113300,1882.1,135.7,114.4,198.8,1177.0,4276.0,2.0,0,
113400,1840.6,176.4,120.0,146.0,981.0,3240.0,2.0,0,
113600,1863.0,21.1,119.5,93.8,981.0,3240.0,2.0,0,
113700,1863.2,18.1,119.5,145.6,981.0,3240.0,2.0,0,
113800,1863.5,17.9,119.5,233.3,981.0,3240.0,2.0,0,
113900,1864.2,15.6,119.4,241.1,981.0,3240.0,2.0,0,
114000,1862.4,22.1,119.5,240.8,981.0,3240.0,2.0,0,
114100,1863.8,16.7,119.5,240.7,981.0,3240.0,2.0,0,
114200,1863.9,19.0,119.5,240.6,981.0,3240.0,2.0,0,
114300,1864.5,20.6,119.5,240.6,981.0,3240.0,2.0,0,
114400,1864.1,19.9,119.5,240.6,981.0,3240.0,2.0,0,
114600,1866.7,249.1,126.8,239.8,1176.0,3664.0,2.0,0,
114700,1854.9,212.7,136.7,203.1,1140.0,3618.0,2.0,0,
114800,1885.5,85.6,135.1,163.4,1195.0,4023.0,2.0,0,
114900,1851.8,130.1,135.4,131.9,1134.0,3567.0,2.0,0,
115000,1853.1,165.7,132.2,159.1,1073.0,3138.0,2.0,0,
115100,1867.1,53.7,130.5,185.3,1108.0,3362.0,2.0,0,
115200,1861.5,18.7,130.6,155.0,1108.0,3362.0,2.0,0,
115300,1860.6,17.7,130.6,177.6,1108.0,3362.0,2.0,0,
115400,1863.5,15.5,130.5,235.4,1108.0,3362.0,2.0,0,
115600,1862.6,19.8,130.6,240.5,1108.0,3362.0,2.0,0,
115700,1863.4,16.1,130.5,240.5,1108.0,3362.0,2.0,0,
115800,1864.2,22.0,130.6,240.6,1108.0,3362.0,2.0,0,
115900,1860.0,16.0,130.6,240.8,1108.0,3362.0,2.0,0,
116000,1863.0,19.4,130.6,240.6,1108.0,3362.0,2.0,0,
116100,1862.0,24.7,130.6,240.5,1108.0,3362.0,2.0,0,
116200,1868.2,260.8,141.1,239.2,1009.0,3364.0,26.0,0,
116300,1854.1,141.7,135.8,67.0,915.0,3174.0,2.0,0,
116400,1856.4,213.1,140.6,70.3,909.0,2884.0,2.0,0,
116600,1856.4,201.3,149.6,158.2,802.0,2437.0,2.0,0,
116700,1877.6,218.7,151.3,157.7,898.0,2737.0,2.0,0,
116800,1851.9,27.9,153.9,196.5,640.0,2121.0,2.0,0,
116900,1862.1,19.0,153.9,106.1,640.0,2121.0,2.0,0,
117000,1864.2,19.3,153.9,45.6,640.0,2121.0,2.0,0,
117100,1863.0,19.8,153.9,55.7,640.0,2121.0,2.0,0,
117200,1862.1,17.3,153.9,240.1,640.0,2121.0,2.0,0,
117300,1861.0,18.2,153.9,240.2,640.0,2121.0,2.0,0,
117400,1862.5,20.7,154.0,240.2,640.0,2121.0,2.0,0,
117600,1860.9,15.9,154.0,240.7,640.0,2121.0,2.0,0,
117700,1860.3,20.2,154.0,240.7,640.0,2121.0,2.0,0,
117800,1870.7,37.2,146.2,238.4,607.0,3094.0,6.0,1,
117900,1847.4,189.2,135.6,83.9,859.0,3123.0,26.0,0,
118000,1865.6,249.6,142.1,77.4,722.0,2436.0,28.0,0,
118100,1862.1,287.9,143.7,70.7,1144.0,2941.0,26.0,0,
118200,1865.9,214.6,146.1,131.6,824.0,2332.0,2.0,0,
118300,1856.6,196.9,149.4,231.4,758.0,2536.0,2.0,0,
118400,1858.0,35.6,148.2,216.4,954.0,2409.0,2.0,0,
118600,1863.4,19.4,148.1,49.3,954.0,2409.0,2.0,0,
118700,1863.4,20.2,148.1,39.7,954.0,2409.0,2.0,0,
118800,1866.0,18.8,148.0,239.5,954.0,2409.0,2.0,0,
118900,1869.0,20.8,147.9,240.5,954.0,2409.0,2.0,0,
119000,1865.0,18.0,147.8,240.8,954.0,2409.0,2.0,0,
119100,1861.5,21.5,147.9,240.7,954.0,2409.0,2.0,0,
119200,1864.9,21.8,147.8,240.5,954.0,2409.0,2.0,0,
119300,1864.3,19.5,147.7,240.5,954.0,2409.0,2.0,0,
119400,1872.7,98.5,153.9,240.4,1626.0,3784.0,25.0,0,
119600,1871.5,207.7,153.8,141.5,1003.0,2876.0,2.0,0,
119700,1869.4,93.0,147.2,141.3,1242.0,3762.0,28.0,0,
119800,1848.7,181.1,140.1,117.0,1099.0,3446.0,2.0,0,
119900,1865.7,154.3,133.3,158.4,1268.0,3406.0,2.0,0,
120000,1861.1,46.3,131.3,158.2,1223.0,2966.0,2.0,0,
120100,1860.5,20.1,131.4,133.9,1223.0,2966.0,2.0,0,
120200,1863.9,19.7,131.4,88.2,1223.0,2966.0,2.0,0,
120300,1865.1,19.4,131.4,41.4,1223.0,2966.0,2.0,0,
120400,1865.2,17.5,131.4,239.8,1223.0,2966.0,2.0,0,
120600,1864.9,18.4,131.4,240.3,1223.0,2966.0,2.0,0,
120700,1864.7,17.8,131.4,240.7,1223.0,2966.0,2.0,0,
120800,1862.9,16.7,131.4,240.7,1223.0,2966.0,2.0,0,
120900,1863.8,16.9,131.4,240.5,1223.0,2966.0,2.0,0,
121000,1875.9,46.1,124.0,240.6,663.0,3630.0,6.0,1,
121100,1872.7,111.0,122.9,240.3,791.0,3191.0,2.0,0,
121200,1846.4,172.3,121.8,157.8,858.0,2596.0,2.0,0,
121300,1868.3,115.9,121.9,170.6,1105.0,3144.0,2.0,0,
121400,1853.3,183.5,120.9,147.8,924.0,3017.0,2.0,0,
121600,1869.5,68.4,117.5,166.7,1116.0,3021.0,2.0,0,
121700,1865.4,22.2,117.5,159.0,1116.0,3021.0,2.0,0,
121800,1862.8,19.3,117.5,133.9,1116.0,3021.0,2.0,0,
121900,1862.3,19.5,117.5,76.5,1116.0,3021.0,2.0,0,
122000,1867.0,20.8,117.5,239.6,1116.0,3021.0,2.0,0,
122100,1867.2,21.0,117.5,240.7,1116.0,3021.0,2.0,0,
122200,1861.4,20.5,117.6,240.8,1116.0,3021.0,2.0,0,
122300,1864.1,19.2,117.6,240.6,1116.0,3021.0,2.0,0,
122400,1862.5,19.2,117.6,240.3,1116.0,3021.0,2.0,0,
122600,1879.8,25.8,117.6,240.5,670.0,3613.0,7.0,1,
122700,1842.7,208.0,123.3,240.0,1559.0,3588.0,26.0,0,
122800,1869.4,210.8,132.2,90.3,819.0,2843.0,2.0,0,
122900,1872.9,268.3,135.2,77.1,1062.0,3353.0,2.0,0,
123000,1860.3,185.5,141.1,88.6,997.0,2827.0,2.0,0,
123100,1866.5,156.5,142.1,174.2,1208.0,3451.0,2.0,0,
123200,1864.1,108.1,145.3,156.5,1230.0,3420.0,2.0,0,
123300,1864.6,21.9,145.2,166.6,1230.0,3420.0,2.0,0,
123400,1862.5,19.8,145.3,158.6,1230.0,3420.0,2.0,0,
123600,1862.7,18.2,145.2,252.1,1230.0,3420.0,2.0,0,
123700,1863.8,20.7,145.3,240.8,1230.0,3420.0,2.0,0,
123800,1861.7,18.3,145.3,240.7,1230.0,3420.0,2.0,0,
123900,1864.6,22.3,145.3,240.7,1230.0,3420.0,2.0,0,
124000,1864.8,17.7,145.3,240.5,1230.0,3420.0,2.0,0,
124100,1866.8,18.7,145.2,240.5,1230.0,3420.0,2.0,0,
124200,1861.1,13.6,145.3,240.7,1230.0,3420.0,2.0,0,
124300,1855.9,229.5,147.3,240.4,1479.0,3786.0,26.0,0,
124400,1867.0,251.9,146.2,117.2,923.0,3236.0,2.0,0,
124600,1840.9,184.5,142.1,146.8,1369.0,3941.0,28.0,0,
124700,1862.3,201.9,144.9,185.7,957.0,3081.0,2.0,0,
124800,1865.6,131.9,144.1,167.9,1122.0,3214.0,2.0,0,
124900,1865.7,25.1,141.9,154.5,1098.0,3289.0,2.0,0,
125000,1863.8,19.9,141.9,103.3,1098.0,3289.0,2.0,0,
125100,1863.0,16.5,141.9,168.2,1098.0,3289.0,2.0,0,
125200,1865.1,16.4,141.9,240.4,1098.0,3289.0,2.0,0,
125300,1864.3,18.3,141.8,240.4,1098.0,3289.0,2.0,0,
125400,1864.4,17.0,141.7,240.4,1098.0,3289.0,2.0,0,
125600,1861.2,17.6,141.7,240.3,1098.0,3289.0,2.0,0,
125700,1861.8,19.4,141.8,240.4,1098.0,3289.0,2.0,0,
125800,1866.2,16.4,141.7,240.4,1098.0,3289.0,2.0,0,
125900,1860.2,41.0,143.7,240.2,649.0,3515.0,6.0,1,
126000,1876.7,29.0,124.9,100.4,798.0,4043.0,4.0,1,
126100,1857.2,103.8,119.5,85.7,1055.0,3245.0,2.0,0,
126200,1852.7,187.4,112.9,90.3,991.0,3359.0,2.0,0,
126300,1868.4,188.2,112.8,183.6,1136.0,3094.0,2.0,0,
126400,1868.2,138.5,109.9,165.0,1043.0,3342.0,2.0,0,
126600,1863.5,18.3,109.7,124.5,1043.0,3342.0,2.0,0,
126700,1865.2,17.5,109.6,167.7,1043.0,3342.0,2.0,0,
126800,1865.6,15.8,109.6,238.9,1043.0,3342.0,2.0,0,
126900,1866.1,18.7,109.7,240.3,1043.0,3342.0,2.0,0,
127000,1866.7,18.3,109.6,240.2,1043.0,3342.0,2.0,0,
127100,1864.0,18.1,109.7,240.3,1043.0,3342.0,2.0,0,
127200,1863.6,15.7,109.6,240.8,1043.0,3342.0,2.0,0,
127300,1864.2,20.9,109.6,240.8,1043.0,3342.0,2.0,0,
127400,1867.5,17.7,109.5,240.5,1043.0,3342.0,2.0,0,
127600,1856.5,77.6,113.8,90.6,815.0,4083.0,4.0,1,
127700,1873.8,194.0,118.0,72.1,931.0,3415.0,2.0,0,
127800,1855.5,178.5,122.4,88.2,1107.0,3189.0,2.0,0,
127900,1885.7,175.7,125.2,142.1,1161.0,3663.0,2.0,0,
128000,1853.7,208.6,128.0,157.9,1443.0,4293.0,28.0,0,
128100,1854.5,60.2,132.9,216.9,926.0,2646.0,2.0,0,
128200,1861.4,20.6,132.9,229.9,926.0,2646.0,2.0,0,
128300,1864.4,18.0,132.9,170.5,926.0,2646.0,2.0,0,
128400,1864.1,18.4,133.0,130.7,926.0,2646.0,2.0,0,
128600,1864.4,19.4,133.0,240.4,926.0,2646.0,2.0,0,
128700,1862.2,16.6,133.1,240.5,926.0,2646.0,2.0,0,
128800,1864.4,18.8,133.1,240.5,926.0,2646.0,2.0,0,
128900,1863.5,17.9,133.1,240.4,926.0,2646.0,2.0,0,
129000,1861.9,15.6,133.1,240.4,926.0,2646.0,2.0,0,
129100,1865.0,48.7,130.4,240.4,675.0,3807.0,5.0,1,
129200,1862.8,126.8,128.9,237.8,725.0,3751.0,3.0,1,
129300,1866.4,94.6,131.0,91.7,905.0,3173.0,2.0,0,
129400,1872.4,151.9,130.1,150.8,984.0,3270.0,2.0,0,
129600,1869.7,121.0,125.2,159.0,1167.0,3324.0,2.0,0,
129700,1856.3,82.3,116.3,196.5,1007.0,2671.0,2.0,0,
129800,1865.5,20.5,116.2,216.3,1007.0,2671.0,2.0,0,
129900,1864.3,18.0,116.2,170.2,1007.0,2671.0,2.0,0,
130000,1862.5,17.2,116.2,131.9,1007.0,2671.0,2.0,0,
130100,1865.6,16.4,116.2,176.0,1007.0,2671.0,2.0,0,
130200,1863.9,16.6,116.2,240.6,1007.0,2671.0,2.0,0,
130300,1866.3,17.3,116.1,240.7,1007.0,2671.0,2.0,0,
130400,1865.5,19.9,116.2,240.5,1007.0,2671.0,2.0,0,
130600,1862.5,16.6,116.1,240.5,1007.0,2671.0,2.0,0,
130700,1864.0,27.6,116.1,240.7,1007.0,2671.0,2.0,0,
130800,1868.6,34.5,117.9,239.5,716.0,3989.0,5.0,1,
130900,1869.4,92.6,120.1,36.8,1204.0,3592.0,2.0,0,
131000,1851.9,171.4,120.1,41.8,1459.0,4079.0,28.0,0,
131100,1863.7,208.5,125.0,112.5,1016.0,3243.0,2.0,0,
131200,1867.7,133.7,128.3,157.2,1088.0,3113.0,2.0,0,
131300,1873.1,164.3,128.7,173.3,989.0,2915.0,2.0,0,
131400,1846.3,23.0,128.2,167.1,1112.0,3036.0,2.0,0,
131600,1861.8,17.7,128.2,70.0,1112.0,3036.0,2.0,0,
131700,1863.0,15.4,128.2,92.4,1112.0,3036.0,2.0,0,
131800,1866.7,15.9,128.2,240.2,1112.0,3036.0,2.0,0,
131900,1866.1,17.7,128.2,240.6,1112.0,3036.0,2.0,0,
132000,1863.9,17.1,128.2,240.4,1112.0,3036.0,2.0,0,
132100,1861.2,18.1,128.2,240.1,1112.0,3036.0,2.0,0,
132200,1860.8,16.7,128.2,239.9,1112.0,3036.0,2.0,0,
132300,1861.7,16.2,128.2,240.2,1112.0,3036.0,2.0,0,
132400,1857.2,38.5,124.9,240.5,753.0,3905.0,6.0,1,
132600,1854.1,166.5,128.5,205.1,1385.0,4054.0,28.0,0,
132700,1857.0,211.0,132.3,149.6,1121.0,3114.0,2.0,0,
132800,1884.0,98.5,127.8,151.5,1180.0,3809.0,2.0,0,
132900,1841.1,182.7,133.2,158.6,1411.0,3752.0,28.0,0,
133000,1866.8,29.8,133.3,157.3,1169.0,3255.0,2.0,0,
133100,1861.8,19.2,133.4,134.7,1169.0,3255.0,2.0,0,
133200,1859.5,18.3,133.4,131.6,1169.0,3255.0,2.0,0,
133300,1861.8,16.0,133.4,230.3,1169.0,3255.0,2.0,0,
133400,1860.1,16.9,133.5,240.2,1169.0,3255.0,2.0,0,
133600,1862.3,16.7,133.6,240.3,1169.0,3255.0,2.0,0,
133700,1863.2,18.6,133.6,240.6,1169.0,3255.0,2.0,0,
133800,1863.4,16.3,133.5,240.3,1169.0,3255.0,2.0,0,
133900,1864.7,19.3,133.5,240.0,1169.0,3255.0,2.0,0,
134000,1855.5,121.5,133.6,240.0,645.0,3834.0,4.0,1,
134100,1872.2,90.1,138.5,150.9,868.0,3315.0,3.0,1,
134200,1871.3,174.5,134.5,136.6,1166.0,4021.0,28.0,0,
134300,1854.0,186.5,138.0,168.5,1039.0,3117.0,2.0,0,
134400,1864.6,99.4,137.1,188.3,1088.0,3144.0,2.0,0,
134600,1867.7,37.6,133.7,134.2,1087.0,2970.0,2.0,0,
134700,1860.0,18.1,133.7,166.9,1087.0,2970.0,2.0,0,
134800,1860.5,16.1,133.7,206.6,1087.0,2970.0,2.0,0,
134900,1865.1,18.1,133.6,243.9,1087.0,2970.0,2.0,0,
135000,1863.4,16.7,133.5,240.4,1087.0,2970.0,2.0,0,
135100,1864.4,18.8,133.6,240.3,1087.0,2970.0,2.0,0,
135200,1862.9,19.4,133.6,240.4,1087.0,2970.0,2.0,0,
135300,1863.8,19.3,133.6,240.5,1087.0,2970.0,2.0,0,
135400,1863.5,18.2,133.6,240.5,1087.0,2970.0,2.0,0,
135600,1855.1,182.9,134.0,240.1,713.0,3929.0,4.0,1,
135700,1884.0,215.8,146.0,134.3,1281.0,3440.0,2.0,0,
135800,1846.4,172.0,147.9,74.8,1395.0,4041.0,28.0,0,
135900,1858.4,164.9,144.9,100.2,988.0,2921.0,2.0,0,
136000,1871.5,91.4,139.8,172.8,1050.0,3066.0,2.0,0,
136100,1852.3,193.5,143.3,226.1,1146.0,3493.0,28.0,0,
136200,1866.9,83.2,146.9,196.9,871.0,2540.0,2.0,0,
136300,1861.5,19.5,146.9,157.8,871.0,2540.0,2.0,0,
136400,1862.3,17.0,146.9,144.5,871.0,2540.0,2.0,0,
136600,1863.5,15.8,146.9,158.3,871.0,2540.0,2.0,0,
136700,1865.7,18.5,146.9,240.6,871.0,2540.0,2.0,0,
136800,1862.7,20.3,146.8,240.4,871.0,2540.0,2.0,0,
136900,1862.7,18.2,146.9,240.5,871.0,2540.0,2.0,0,
137000,1863.6,21.1,146.8,240.7,871.0,2540.0,2.0,0,
137100,1865.8,17.8,146.8,240.6,871.0,2540.0,2.0,0,
137200,1872.2,21.1,146.8,240.5,692.0,3796.0,6.0,1,
137300,1854.5,34.3,132.7,229.1,793.0,4132.0,5.0,1,
137400,1858.8,153.2,124.7,36.1,1287.0,4024.0,28.0,0,
137600,1870.1,238.2,135.5,140.6,1159.0,3415.0,2.0,0,
137700,1855.2,140.9,138.4,159.1,1011.0,3306.0,2.0,0,
137800,1855.3,130.2,136.8,165.1,998.0,2759.0,2.0,0,
137900,1863.9,25.7,136.9,168.6,998.0,2759.0,2.0,0,
138000,1861.5,18.9,136.9,197.8,998.0,2759.0,2.0,0,
138100,1864.8,17.6,136.9,136.6,998.0,2759.0,2.0,0,
138200,1861.6,17.7,136.9,133.2,998.0,2759.0,2.0,0,
138300,1864.6,20.3,137.0,240.4,998.0,2759.0,2.0,0,
138400,1861.6,17.8,137.0,240.3,998.0,2759.0,2.0,0,
138600,1863.9,19.1,137.0,240.4,998.0,2759.0,2.0,0,
138700,1864.3,18.0,137.0,240.2,998.0,2759.0,2.0,0,
138800,1863.0,78.0,136.9,240.1,998.0,2759.0,2.0,0,
138900,1868.5,235.7,147.1,201.7,1229.0,3459.0,2.0,0,
139000,1867.0,155.3,154.7,107.1,1377.0,4332.0,28.0,0,
139100,1866.2,163.2,151.0,132.3,918.0,2966.0,2.0,0,
139200,1852.4,99.6,147.2,173.8,974.0,3087.0,2.0,0,
139300,1856.4,181.2,144.5,200.2,1474.0,4017.0,28.0,0,
139400,1860.8,160.2,143.6,199.5,1106.0,3157.0,2.0,0,
139600,1861.2,20.8,141.6,173.6,1106.0,3157.0,2.0,0,
139700,1861.3,17.2,141.6,133.2,1106.0,3157.0,2.0,0,
139800,1862.3,15.9,141.6,99.0,1106.0,3157.0,2.0,0,
139900,1866.4,19.0,141.5,240.2,1106.0,3157.0,2.0,0,
140000,1863.5,19.1,141.5,240.4,1106.0,3157.0,2.0,0,
140100,1863.2,18.8,141.5,240.5,1106.0,3157.0,2.0,0,
140200,1864.5,18.7,141.5,240.7,1106.0,3157.0,2.0,0,
140300,1861.5,17.3,141.5,240.8,1106.0,3157.0,2.0,0,
140400,1862.9,19.4,141.5,240.5,1106.0,3157.0,2.0,0,
140600,1874.1,26.1,120.7,41.7,847.0,3740.0,3.0,1,
140700,1846.0,57.5,113.3,37.0,966.0,4264.0,5.0,1,
140800,1867.9,151.1,110.2,37.9,960.0,2980.0,2.0,0,
140900,1855.0,195.2,111.1,72.5,1321.0,3891.0,28.0,0,
141000,1869.6,161.5,110.4,157.4,1115.0,3210.0,2.0,0,
141100,1858.2,35.3,111.8,135.3,1066.0,2774.0,2.0,0,
141200,1859.4,16.8,111.9,133.3,1066.0,2774.0,2.0,0,
141300,1861.1,18.6,111.9,73.6,1066.0,2774.0,2.0,0,
141400,1861.6,18.1,111.9,42.6,1066.0,2774.0,2.0,0,
141600,1865.9,17.4,111.9,240.3,1066.0,2774.0,2.0,0,
141700,1863.2,16.3,111.9,240.6,1066.0,2774.0,2.0,0,
141800,1862.7,18.7,111.9,240.5,1066.0,2774.0,2.0,0,
141900,1861.4,19.6,111.9,240.3,1066.0,2774.0,2.0,0,
142000,1864.9,19.4,111.9,240.3,1066.0,2774.0,2.0,0,
142100,1875.4,76.9,108.9,240.2,651.0,3648.0,3.0,1,
142200,1850.3,137.3,111.8,176.1,1392.0,3802.0,28.0,0,
142300,1862.0,219.0,124.9,93.8,898.0,3031.0,2.0,0,
142400,1866.0,88.9,128.1,163.4,1066.0,3251.0,2.0,0,
142600,1846.0,164.9,130.8,148.5,1035.0,2998.0,2.0,0,
142700,1866.3,55.8,132.2,183.1,1088.0,2882.0,2.0,0,
142800,1861.2,18.2,132.2,158.5,1088.0,2882.0,2.0,0,
142900,1864.6,17.2,132.2,99.9,1088.0,2882.0,2.0,0,
143000,1860.5,18.1,132.2,89.1,1088.0,2882.0,2.0,0,
143100,1862.0,16.7,132.1,239.4,1088.0,2882.0,2.0,0,
143200,1862.8,20.6,132.2,240.3,1088.0,2882.0,2.0,0,
143300,1862.9,17.0,132.2,240.3,1088.0,2882.0,2.0,0,
143400,1862.5,19.2,132.2,240.5,1088.0,2882.0,2.0,0,
143600,1861.9,16.1,132.2,240.4,1088.0,2882.0,2.0,0,
143700,1864.8,18.2,132.2,240.4,636.0,3578.0,5.0,1,
143800,1855.4,136.7,131.1,240.3,1321.0,3780.0,28.0,0,
143900,1857.9,183.9,130.2,196.8,1014.0,3341.0,2.0,0,
144000,1876.1,72.3,127.6,195.4,941.0,2992.0,2.0,0,
144100,1847.0,177.3,126.1,157.6,1313.0,3855.0,28.0,0,
144200,1859.2,212.9,129.0,166.2,1033.0,3299.0,2.0,0,
144300,1870.1,89.7,128.4,186.5,1117.0,3055.0,2.0,0,
144400,1865.1,19.5,128.4,157.2,1117.0,3055.0,2.0,0,
144600,1862.9,18.2,128.4,238.5,1117.0,3055.0,2.0,0,
144700,1864.7,17.2,128.4,241.2,1117.0,3055.0,2.0,0,
144800,1860.2,15.2,128.4,240.4,1117.0,3055.0,2.0,0,
144900,1860.0,20.9,128.4,240.5,1117.0,3055.0,2.0,0,
145000,1862.9,18.1,128.4,240.4,1117.0,3055.0,2.0,0,
145100,1857.2,18.1,128.5,240.4,1117.0,3055.0,2.0,0,
145200,1863.8,21.8,128.5,240.4,1117.0,3055.0,2.0,0,
145300,1864.4,24.5,128.6,240.5,1117.0,3055.0,2.0,0,
145400,1870.6,242.0,135.7,240.2,1301.0,3913.0,27.0,0,
145600,1867.8,146.2,145.6,84.3,1011.0,3264.0,2.0,0,
145700,1855.4,176.7,148.0,101.2,1317.0,3712.0,28.0,0,
145800,1865.2,232.6,150.8,156.9,1225.0,3421.0,2.0,0,
145900,1879.2,201.1,146.0,176.4,992.0,3010.0,2.0,0,
146000,1849.8,27.7,148.7,159.0,802.0,2457.0,2.0,0,
146100,1859.3,18.4,148.7,133.9,802.0,2457.0,2.0,0,
146200,1862.4,19.4,148.7,105.1,802.0,2457.0,2.0,0,
146300,1863.9,16.9,148.8,138.5,802.0,2457.0,2.0,0,
146400,1861.1,14.3,148.7,240.3,802.0,2457.0,2.0,0,
146600,1863.6,18.8,148.5,240.4,802.0,2457.0,2.0,0,
146700,1865.4,15.4,148.4,240.3,802.0,2457.0,2.0,0,
146800,1864.7,18.6,148.4,240.2,802.0,2457.0,2.0,0,
146900,1865.7,19.0,148.3,240.1,802.0,2457.0,2.0,0,
147000,1861.7,72.7,146.2,240.0,746.0,3701.0,5.0,1,
147100,1858.8,39.6,121.8,183.8,869.0,4274.0,5.0,1,
147200,1872.6,40.3,115.3,44.3,966.0,4113.0,5.0,1,
147300,1851.3,129.0,101.3,38.8,1077.0,4489.0,5.0,1,
147400,1876.0,50.1,94.3,37.1,1178.0,4421.0,4.0,1,
147600,1859.0,20.5,61.9,50.1,1164.0,4332.0,4.0,1,
147700,1864.0,20.5,61.9,50.0,1164.0,4332.0,4.0,1,
147800,1862.8,15.8,61.8,131.2,1164.0,4332.0,4.0,1,
147900,1862.7,19.8,61.8,240.1,1164.0,4332.0,4.0,1,
148000,1867.2,18.8,61.8,240.4,1164.0,4332.0,4.0,1,
148100,1863.3,16.3,61.8,240.4,1164.0,4332.0,4.0,1,
148200,1862.5,19.4,61.9,240.5,1164.0,4332.0,4.0,1,
148300,1867.2,15.8,61.9,240.4,1164.0,4332.0,4.0,1,
148400,1862.1,18.8,61.9,240.4,1164.0,4332.0,4.0,1,
148600,1853.7,89.7,61.9,240.4,614.0,3412.0,4.0,1,
148700,1871.4,230.3,80.8,240.7,1447.0,3551.0,2.0,0,
148800,1881.1,124.4,96.0,228.4,1040.0,3840.0,28.0,0,
148900,1836.3,190.1,116.0,174.5,1008.0,3300.0,2.0,0,
149000,1864.1,133.2,119.7,165.4,1047.0,3394.0,2.0,0,
149100,1862.9,192.6,133.0,154.0,1401.0,3889.0,28.0,0,
149200,1866.4,30.1,138.4,167.7,1152.0,3320.0,2.0,0,
149300,1859.5,18.8,138.4,185.4,1152.0,3320.0,2.0,0,
149400,1862.8,15.6,138.4,216.9,1152.0,3320.0,2.0,0,
149600,1864.6,17.3,138.4,240.3,1152.0,3320.0,2.0,0,
149700,1864.0,18.4,138.4,240.1,1152.0,3320.0,2.0,0,
149800,1867.2,18.8,138.4,240.1,1152.0,3320.0,2.0,0,
149900,1864.4,19.0,138.4,240.5,1152.0,3320.0,2.0,0,
150000,1865.3,20.2,138.4,240.9,1152.0,3320.0,2.0,0,
150100,1864.7,17.5,138.4,240.7,1152.0,3320.0,2.0,0,
150200,1855.7,88.8,138.7,240.5,653.0,3781.0,5.0,1,
150300,1883.8,44.7,133.2,105.4,733.0,3716.0,3.0,1,
150400,1857.3,132.5,126.1,73.8,813.0,2997.0,2.0,0,
150600,1870.9,214.2,120.7,166.0,1057.0,3170.0,2.0,0,
150700,1859.3,166.9,126.0,188.7,1400.0,4093.0,28.0,0,
150800,1862.0,75.7,127.0,174.5,952.0,2546.0,2.0,0,
150900,1861.3,20.0,127.0,185.6,952.0,2546.0,2.0,0,
151000,1865.5,17.6,126.9,166.8,952.0,2546.0,2.0,0,
151100,1861.9,15.0,126.9,132.2,952.0,2546.0,2.0,0,
151200,1867.5,18.4,126.9,163.4,952.0,2546.0,2.0,0,
151300,1863.7,18.6,126.9,240.9,952.0,2546.0,2.0,0,
151400,1864.4,16.8,126.9,240.8,952.0,2546.0,2.0,0,
151600,1864.6,18.1,126.9,240.2,952.0,2546.0,2.0,0,
151700,1860.7,15.7,126.9,240.2,952.0,2546.0,2.0,0,
151800,1872.7,21.0,127.0,240.7,696.0,3916.0,6.0,1,
151900,1857.3,20.6,126.3,238.2,747.0,3737.0,5.0,1,
152000,1861.2,161.9,131.1,80.7,1151.0,3724.0,28.0,0,
152100,1857.0,206.6,131.6,78.4,997.0,3478.0,2.0,0,
152200,1882.6,204.6,130.6,154.8,1104.0,3283.0,2.0,0,
152300,1850.0,165.4,134.4,199.8,1276.0,3837.0,28.0,0,
152400,1854.5,135.0,133.4,184.6,963.0,2461.0,2.0,0,
152600,1861.0,19.5,133.5,166.7,963.0,2461.0,2.0,0,
152700,1863.6,18.1,133.5,140.5,963.0,2461.0,2.0,0,
152800,1865.6,16.9,133.5,137.2,963.0,2461.0,2.0,0,
152900,1864.5,18.3,133.5,240.0,963.0,2461.0,2.0,0,
153000,1861.4,21.2,133.5,240.0,963.0,2461.0,2.0,0,
153100,1863.4,18.4,133.5,239.8,963.0,2461.0,2.0,0,
153200,1864.5,17.9,133.5,239.9,963.0,2461.0,2.0,0,
153300,1863.9,17.3,133.5,239.9,963.0,2461.0,2.0,0,
153400,1864.7,16.1,133.4,240.0,963.0,2461.0,2.0,0,
153600,1859.3,28.7,125.8,167.0,807.0,3851.0,5.0,1,
153700,1870.3,26.5,115.1,41.8,977.0,4146.0,5.0,1,
153800,1852.3,109.5,110.3,42.6,1110.0,3490.0,2.0,0,
153900,1859.2,173.1,104.5,141.3,1079.0,3572.0,2.0,0,
154000,1859.9,153.2,102.0,157.3,1134.0,3234.0,2.0,0,
154100,1863.3,25.5,97.7,163.3,1010.0,2490.0,2.0,0,
154200,1861.0,16.3,97.7,196.3,1010.0,2490.0,2.0,0,
154300,1866.9,19.5,97.7,138.2,1010.0,2490.0,2.0,0,
154400,1864.5,17.6,97.7,100.2,1010.0,2490.0,2.0,0,
154600,1861.5,17.5,97.7,240.3,1010.0,2490.0,2.0,0,
154700,1864.1,15.3,97.7,240.4,1010.0,2490.0,2.0,0,
154800,1863.0,17.0,97.7,240.4,1010.0,2490.0,2.0,0,
154900,1867.0,17.8,97.7,240.3,1010.0,2490.0,2.0,0,
155000,1863.5,17.6,97.8,240.5,1010.0,2490.0,2.0,0,
155100,1868.9,40.7,97.5,240.5,624.0,3492.0,5.0,1,
155200,1872.8,99.2,102.9,239.3,1307.0,4127.0,28.0,0,
155300,1844.8,178.5,122.1,217.6,1020.0,3220.0,2.0,0,
155400,1873.1,185.0,124.8,167.6,1080.0,3181.0,2.0,0,
155600,1868.0,192.3,133.4,198.4,1223.0,3293.0,2.0,0,
155700,1859.3,37.5,133.5,186.0,1007.0,2653.0,2.0,0,
155800,1862.6,17.2,133.4,154.0,1007.0,2653.0,2.0,0,
155900,1863.6,15.3,133.4,102.1,1007.0,2653.0,2.0,0,
156000,1865.8,19.5,133.4,99.6,1007.0,2653.0,2.0,0,
156100,1865.5,18.2,133.4,239.3,1007.0,2653.0,2.0,0,
156200,1864.6,18.3,133.3,240.1,1007.0,2653.0,2.0,0,
156300,1861.3,15.9,133.4,240.4,1007.0,2653.0,2.0,0,
156400,1865.9,15.0,133.3,240.4,1007.0,2653.0,2.0,0,
156600,1862.6,16.0,133.4,240.5,1007.0,2653.0,2.0,0,
156700,1865.2,37.4,134.1,240.1,623.0,3631.0,5.0,1,
156800,1863.2,140.1,140.8,92.9,799.0,3323.0,3.0,1,
156900,1852.8,227.2,140.3,84.3,975.0,3200.0,2.0,0,
157000,1865.0,224.4,139.9,145.2,994.0,3342.0,2.0,0,
157100,1887.0,162.4,142.3,165.2,1429.0,3653.0,28.0,0,
157200,1836.3,142.7,137.7,199.4,945.0,2716.0,2.0,0,
157300,1876.5,49.8,137.4,200.1,1046.0,2806.0,2.0,0,
157400,1862.7,19.0,137.4,219.3,1046.0,2806.0,2.0,0,
157600,1860.7,17.2,137.4,262.4,1046.0,2806.0,2.0,0,
157700,1863.0,14.2,137.5,247.7,1046.0,2806.0,2.0,0,
157800,1860.9,17.0,137.5,240.6,1046.0,2806.0,2.0,0,
157900,1862.7,19.0,137.5,240.6,1046.0,2806.0,2.0,0,
158000,1859.7,18.1,137.6,240.4,1046.0,2806.0,2.0,0,
158100,1863.8,18.4,137.6,240.5,1046.0,2806.0,2.0,0,
158200,1865.4,17.6,137.6,240.6,1046.0,2806.0,2.0,0,
158300,1857.4,15.7,136.8,240.5,633.0,3575.0,6.0,1,
158400,1863.8,268.3,143.8,237.4,1186.0,3488.0,2.0,0,
158600,1870.0,172.9,144.0,99.9,966.0,3171.0,2.0,0,
158700,1859.3,149.3,143.1,165.6,1031.0,3119.0,2.0,0,
158800,1849.7,184.5,142.9,197.7,1190.0,3385.0,2.0,0,
158900,1869.6,70.2,141.3,185.4,1182.0,3070.0,2.0,0,
159000,1863.8,21.6,141.3,203.9,1182.0,3070.0,2.0,0,
159100,1860.7,15.1,141.4,203.0,1182.0,3070.0,2.0,0,
159200,1862.1,15.8,141.4,230.1,1182.0,3070.0,2.0,0,
159300,1862.2,17.3,141.4,239.1,1182.0,3070.0,2.0,0,
159400,1863.1,17.9,141.3,240.3,1182.0,3070.0,2.0,0,
159600,1860.2,16.6,141.4,240.1,1182.0,3070.0,2.0,0,
159700,1863.9,18.7,141.3,240.2,1182.0,3070.0,2.0,0,
159800,1863.5,17.6,141.3,240.3,1182.0,3070.0,2.0,0,
159900,1862.1,19.6,141.3,240.7,1182.0,3070.0,2.0,0,
160000,1885.0,24.0,132.9,240.6,725.0,3947.0,3.0,1,
160100,1834.3,19.6,113.2,239.4,908.0,4392.0,5.0,1,
160200,1863.2,21.9,102.4,165.0,1010.0,4044.0,4.0,1,
160300,1863.9,129.9,80.9,92.9,1019.0,3924.0,5.0,1,
160400,1849.4,127.5,72.6,38.8,1012.0,4129.0,4.0,1,
160600,1847.0,20.6,64.8,80.0,1007.0,3000.0,2.0,0,
160700,1860.9,19.1,64.9,157.4,1007.0,3000.0,2.0,0,
160800,1862.2,17.7,64.9,220.2,1007.0,3000.0,2.0,0,
160900,1860.8,17.9,64.9,239.4,1007.0,3000.0,2.0,0,
161000,1863.1,17.7,64.9,240.5,1007.0,3000.0,2.0,0,
161100,1862.7,18.0,65.0,240.6,1007.0,3000.0,2.0,0,
161200,1860.7,15.3,65.0,240.8,1007.0,3000.0,2.0,0,
161300,1861.8,17.2,65.0,240.4,1007.0,3000.0,2.0,0,
161400,1859.4,16.8,65.0,240.2,1007.0,3000.0,2.0,0,
161600,1873.6,25.5,65.2,240.0,694.0,3758.0,6.0,1,
161700,1851.8,95.5,65.3,239.3,887.0,4106.0,5.0,1,
161800,1867.7,186.3,78.6,170.4,938.0,3256.0,2.0,0,
161900,1862.4,137.1,100.2,175.2,1031.0,3590.0,2.0,0,
162000,1853.9,179.4,116.6,167.6,1228.0,3371.0,2.0,0,
162100,1863.6,200.7,122.1,185.2,1277.0,3527.0,2.0,0,
162200,1858.3,34.5,126.7,167.7,1001.0,2630.0,2.0,0,
162300,1863.0,21.4,126.6,155.2,1001.0,2630.0,2.0,0,
162400,1861.8,18.1,126.6,101.5,1001.0,2630.0,2.0,0,
162600,1862.9,17.8,126.6,240.0,1001.0,2630.0,2.0,0,
162700,1860.6,15.0,126.6,240.8,1001.0,2630.0,2.0,0,
162800,1861.4,16.7,126.6,240.7,1001.0,2630.0,2.0,0,
162900,1861.8,16.7,126.6,240.5,1001.0,2630.0,2.0,0,
163000,1862.2,15.7,126.6,240.4,1001.0,2630.0,2.0,0,
163100,1864.3,14.8,126.6,240.6,1001.0,2630.0,2.0,0,
163200,1873.8,45.3,128.5,239.7,615.0,3478.0,4.0,1,
163300,1854.0,110.0,128.4,72.4,781.0,3839.0,5.0,1,
163400,1882.2,166.8,131.2,68.9,902.0,2849.0,2.0,0,
163600,1848.3,183.6,131.3,165.2,1056.0,2803.0,2.0,0,
163700,1865.5,191.2,128.4,165.2,1213.0,3389.0,2.0,0,
163800,1858.3,47.3,127.7,158.4,1079.0,2765.0,2.0,0,
163900,1861.5,17.9,127.7,154.3,1079.0,2765.0,2.0,0,
164000,1859.8,15.9,127.8,101.8,1079.0,2765.0,2.0,0,
164100,1865.1,17.3,127.7,89.3,1079.0,2765.0,2.0,0,
164200,1861.8,12.5,127.7,219.1,1079.0,2765.0,2.0,0,
164300,1862.6,14.1,127.6,240.6,1079.0,2765.0,2.0,0,
164400,1862.6,14.9,127.6,240.3,1079.0,2765.0,2.0,0,
164600,1861.0,16.0,127.5,240.5,1079.0,2765.0,2.0,0,
164700,1863.2,17.0,127.5,240.4,1079.0,2765.0,2.0,0,
164800,1868.4,23.7,125.4,240.7,629.0,3426.0,6.0,1,
164900,1870.6,79.8,126.2,240.3,762.0,3891.0,4.0,1,
165000,1847.6,200.3,135.4,237.8,1245.0,3473.0,2.0,0,
165100,1869.9,138.2,132.8,167.8,1143.0,3424.0,2.0,0,
165200,1849.3,198.8,131.5,135.1,1108.0,3148.0,2.0,0,
165300,1861.6,178.6,129.5,165.8,1194.0,3320.0,2.0,0,
165400,1868.7,67.3,128.8,196.3,1143.0,3143.0,2.0,0,
165600,1860.8,15.7,128.7,157.9,1143.0,3143.0,2.0,0,
165700,1860.7,12.4,128.7,135.3,1143.0,3143.0,2.0,0,
165800,1861.4,14.1,128.8,239.3,1143.0,3143.0,2.0,0,
165900,1863.6,16.7,128.7,240.6,1143.0,3143.0,2.0,0,
166000,1862.8,15.3,128.8,240.6,1143.0,3143.0,2.0,0,
166100,1863.4,17.5,128.8,240.5,1143.0,3143.0,2.0,0,
166200,1861.8,15.2,128.8,240.6,1143.0,3143.0,2.0,0,
166300,1862.3,15.1,128.8,240.4,1143.0,3143.0,2.0,0,
166400,1875.5,21.5,128.8,240.1,602.0,3540.0,7.0,1,
166600,1870.1,239.7,138.5,81.5,1436.0,3735.0,2.0,0,
166700,1868.0,117.7,138.0,89.1,1039.0,3654.0,2.0,0,
166800,1868.0,178.9,137.1,134.7,1148.0,3218.0,2.0,0,
166900,1849.1,88.3,137.8,166.1,1246.0,3455.0,2.0,0,
167000,1865.6,113.2,137.5,184.7,1113.0,2976.0,2.0,0,
167100,1864.2,20.4,137.5,203.7,1113.0,2976.0,2.0,0,
167200,1861.9,17.1,137.5,218.2,1113.0,2976.0,2.0,0,
167300,1859.5,17.6,137.5,219.8,1113.0,2976.0,2.0,0,
167400,1863.8,20.5,137.6,240.7,1113.0,2976.0,2.0,0,
167600,1863.8,17.1,137.6,240.8,1113.0,2976.0,2.0,0,
167700,1863.3,18.7,137.6,240.6,1113.0,2976.0,2.0,0,
167800,1862.7,19.7,137.6,240.3,1113.0,2976.0,2.0,0,
167900,1864.6,15.3,137.6,240.6,1113.0,2976.0,2.0,0,
168000,1858.9,16.5,137.7,241.0,1113.0,2976.0,2.0,0,
168100,1853.1,213.3,139.3,240.4,1224.0,4084.0,28.0,0,
168200,1856.0,251.6,144.4,157.7,1482.0,3637.0,2.0,0,
168300,1885.9,122.6,142.4,151.0,898.0,3081.0,2.0,0,
168400,1840.6,187.9,143.7,157.5,1410.0,3796.0,28.0,0,
168600,1869.8,148.4,145.3,198.7,994.0,2800.0,2.0,0,
168700,1861.1,23.7,143.4,218.2,1050.0,3167.0,2.0,0,
168800,1858.7,15.8,143.5,211.6,1050.0,3167.0,2.0,0,
168900,1860.2,16.2,143.5,220.4,1050.0,3167.0,2.0,0,
169000,1863.0,17.4,143.4,237.4,1050.0,3167.0,2.0,0,
169100,1863.4,19.7,143.5,240.7,1050.0,3167.0,2.0,0,
169200,1859.1,17.7,143.6,240.8,1050.0,3167.0,2.0,0,
169300,1864.4,14.6,143.5,240.4,1050.0,3167.0,2.0,0,
169400,1865.5,20.1,143.5,240.3,1050.0,3167.0,2.0,0,
169600,1862.6,17.6,143.4,240.1,1050.0,3167.0,2.0,0,
169700,1871.6,41.7,144.8,239.3,632.0,3637.0,6.0,1,
169800,1850.9,30.5,129.3,84.1,911.0,4365.0,4.0,1,
169900,1867.3,218.4,124.5,72.7,1352.0,3333.0,2.0,0,
170000,1852.5,216.2,128.1,83.1,1411.0,3943.0,28.0,0,
170100,1883.4,223.7,130.1,131.8,976.0,3058.0,2.0,0,
170200,1889.3,135.9,132.2,153.6,1108.0,2840.0,2.0,0,
170300,1852.4,23.0,133.3,204.6,1140.0,3164.0,2.0,0,
170400,1863.3,16.2,133.2,199.4,1140.0,3164.0,2.0,0,
170600,1866.7,16.0,133.0,218.0,1140.0,3164.0,2.0,0,
170700,1865.5,15.7,132.9,239.7,1140.0,3164.0,2.0,0,
170800,1865.9,18.8,132.8,240.2,1140.0,3164.0,2.0,0,
170900,1865.1,15.9,132.8,240.6,1140.0,3164.0,2.0,0,
171000,1864.1,17.4,132.8,240.2,1140.0,3164.0,2.0,0,
171100,1859.7,17.0,132.8,239.8,1140.0,3164.0,2.0,0,
171200,1864.5,17.3,132.8,240.0,1140.0,3164.0,2.0,0,
171300,1875.5,38.5,130.9,240.4,602.0,3414.0,4.0,1,
171400,1848.7,34.0,130.7,152.1,774.0,4071.0,3.0,1,
171600,1859.7,60.2,105.6,30.1,932.0,3543.0,4.0,1,
171700,1868.8,33.5,92.5,38.2,926.0,3713.0,4.0,1,
171800,1865.4,201.1,88.1,29.9,1507.0,2960.0,2.0,0,
171900,1854.5,63.8,100.5,41.7,799.0,1932.0,2.0,0,
172000,1862.9,17.0,100.5,131.1,799.0,1932.0,2.0,0,
172100,1859.8,18.7,100.5,114.2,799.0,1932.0,2.0,0,
172200,1860.1,19.4,100.6,100.1,799.0,1932.0,2.0,0,
172300,1860.9,14.4,100.7,130.3,799.0,1932.0,2.0,0,
172400,1860.2,15.5,100.7,240.0,799.0,1932.0,2.0,0,
172600,1858.4,16.0,100.8,240.7,799.0,1932.0,2.0,0,
172700,1859.4,14.4,100.9,240.5,799.0,1932.0,2.0,0,
172800,1857.7,17.8,100.9,240.5,799.0,1932.0,2.0,0,
172900,1867.5,23.3,100.9,240.0,633.0,3735.0,7.0,1,
173000,1853.2,16.9,98.4,239.4,752.0,3966.0,3.0,1,
173100,1864.2,43.5,100.6,197.4,905.0,3915.0,3.0,1,
173200,1862.0,127.1,107.3,42.6,1396.0,3750.0,28.0,0,
173300,1847.2,198.4,121.4,72.9,877.0,2572.0,2.0,0,
173400,1866.5,203.9,125.9,158.0,998.0,2937.0,2.0,0,
173600,1859.8,18.5,124.8,167.5,998.0,2937.0,2.0,0,
173700,1859.9,16.7,124.8,134.2,998.0,2937.0,2.0,0,
173800,1859.5,16.7,124.8,94.3,998.0,2937.0,2.0,0,
173900,1859.3,15.1,124.9,101.7,998.0,2937.0,2.0,0,
174000,1861.8,18.9,124.9,240.5,998.0,2937.0,2.0,0,
174100,1861.8,15.4,124.9,240.6,998.0,2937.0,2.0,0,
174200,1859.5,13.3,124.9,240.7,998.0,2937.0,2.0,0,
174300,1858.3,14.5,124.9,240.5,998.0,2937.0,2.0,0,
174400,1860.6,18.0,124.9,240.4,998.0,2937.0,2.0,0,
174600,1861.6,96.4,126.5,152.0,801.0,4057.0,6.0,1,
174700,1850.7,176.0,137.0,78.1,1265.0,3568.0,2.0,0,
174800,1866.2,153.8,145.2,176.5,920.0,2783.0,2.0,0,
174900,1848.2,198.3,145.3,195.6,895.0,2847.0,2.0,0,
175000,1865.1,251.9,145.4,197.6,1440.0,3246.0,2.0,0,
175100,1879.3,135.3,143.3,198.8,1143.0,3348.0,28.0,0,
175200,1850.6,22.1,142.0,167.6,976.0,2711.0,2.0,0,
175300,1860.1,14.8,142.0,156.5,976.0,2711.0,2.0,0,
175400,1860.8,18.6,142.0,189.7,976.0,2711.0,2.0,0,
175600,1863.5,17.6,142.0,240.5,976.0,2711.0,2.0,0,
175700,1863.7,18.8,142.0,240.6,976.0,2711.0,2.0,0,
175800,1862.0,16.8,142.0,240.6,976.0,2711.0,2.0,0,
175900,1861.6,17.3,141.9,240.3,976.0,2711.0,2.0,0,
176000,1861.3,15.7,142.0,240.4,976.0,2711.0,2.0,0,
176100,1862.7,18.0,142.0,240.7,976.0,2711.0,2.0,0,
176200,1858.8,63.8,143.4,240.8,576.0,3280.0,4.0,1,
176300,1862.0,27.4,136.8,108.4,901.0,4293.0,3.0,1,
176400,1874.2,106.5,129.2,84.6,1074.0,3400.0,2.0,0,
176600,1864.5,166.8,127.9,206.5,1046.0,2950.0,2.0,0,
176700,1861.9,130.4,122.1,197.3,1026.0,2789.0,2.0,0,
176800,1861.0,24.3,120.5,185.7,1060.0,3009.0,2.0,0,
176900,1862.8,18.6,120.5,157.4,1060.0,3009.0,2.0,0,
177000,1865.3,15.6,120.5,190.4,1060.0,3009.0,2.0,0,
177100,1862.0,16.3,120.4,237.2,1060.0,3009.0,2.0,0,
177200,1859.9,17.9,120.5,240.2,1060.0,3009.0,2.0,0,
177300,1860.2,18.8,120.5,240.3,1060.0,3009.0,2.0,0,
177400,1861.8,17.3,120.5,240.3,1060.0,3009.0,2.0,0,
177600,1860.5,16.2,120.5,240.3,1060.0,3009.0,2.0,0,
177700,1860.5,17.5,120.5,240.4,1060.0,3009.0,2.0,0,
177800,1856.2,41.2,121.3,240.4,674.0,3678.0,5.0,1,
177900,1863.4,33.0,118.9,187.1,731.0,3959.0,4.0,1,
178000,1882.4,87.1,122.3,41.3,927.0,3037.0,2.0,0,
178100,1842.7,175.4,121.2,166.0,1413.0,4066.0,28.0,0,
178200,1848.4,219.6,130.3,196.7,995.0,2914.0,2.0,0,
178300,1868.0,108.2,124.2,165.4,1015.0,3087.0,2.0,0,
178400,1852.4,43.2,128.1,135.6,870.0,2400.0,2.0,0,
178600,1861.4,19.1,128.2,153.5,870.0,2400.0,2.0,0,
178700,1862.4,19.4,128.3,137.4,870.0,2400.0,2.0,0,
178800,1861.4,19.5,128.3,239.7,870.0,2400.0,2.0,0,
178900,1861.3,17.5,128.3,240.7,870.0,2400.0,2.0,0,
179000,1860.1,14.6,128.3,240.4,870.0,2400.0,2.0,0,
179100,1858.8,20.1,128.3,240.6,870.0,2400.0,2.0,0,
179200,1863.5,19.0,128.3,240.7,870.0,2400.0,2.0,0,
179300,1862.5,20.6,128.3,240.5,870.0,2400.0,2.0,0,
179400,1866.0,46.3,129.8,240.3,545.0,3427.0,2.0,0,
179600,1856.5,48.5,122.5,41.3,908.0,4071.0,4.0,1,
179700,1860.9,161.5,116.5,37.2,1298.0,3572.0,28.0,0,
179800,1860.7,192.8,113.3,82.8,910.0,2714.0,2.0,0,
179900,1867.0,213.3,107.2,158.0,937.0,2585.0,2.0,0,
180000,1857.8,77.2,114.6,196.2,944.0,2660.0,2.0,0,
180100,1865.0,24.6,114.6,136.1,944.0,2660.0,2.0,0,
180200,1863.4,17.9,114.5,89.2,944.0,2660.0,2.0,0,
180300,1862.5,19.4,114.5,38.0,944.0,2660.0,2.0,0,
180400,1860.9,20.8,114.5,175.7,944.0,2660.0,2.0,0,
180600,1862.8,19.4,114.5,240.1,944.0,2660.0,2.0,0,
180700,1865.4,20.0,114.5,240.4,944.0,2660.0,2.0,0,
180800,1866.0,18.5,114.4,240.6,944.0,2660.0,2.0,0,
180900,1861.8,20.8,114.4,240.6,944.0,2660.0,2.0,0,
181000,1880.4,27.4,113.1,240.4,637.0,3695.0,6.0,1,
181100,1844.0,129.3,115.4,240.2,693.0,2756.0,2.0,0,
181200,1861.3,82.7,123.7,132.4,979.0,3590.0,2.0,0,
181300,1861.1,153.3,128.4,141.0,1312.0,3925.0,28.0,0,
181400,1872.4,172.2,129.0,199.3,896.0,2879.0,2.0,0,
181600,1858.3,120.2,127.6,198.8,990.0,2800.0,2.0,0,
181700,1867.2,23.0,127.6,158.5,990.0,2800.0,2.0,0,
181800,1859.5,16.0,127.6,133.5,990.0,2800.0,2.0,0,
181900,1862.6,18.9,127.6,125.7,990.0,2800.0,2.0,0,
182000,1864.0,18.3,127.6,238.1,990.0,2800.0,2.0,0,
182100,1867.5,20.6,127.5,240.6,990.0,2800.0,2.0,0,
182200,1863.9,20.8,127.5,240.5,990.0,2800.0,2.0,0,
182300,1863.1,19.4,127.5,240.4,990.0,2800.0,2.0,0,
182400,1862.2,21.7,127.5,240.4,990.0,2800.0,2.0,0,
182600,1863.7,109.2,127.5,240.9,990.0,2800.0,2.0,0,
182700,1857.6,119.7,131.4,195.2,747.0,4039.0,5.0,1,
182800,1863.5,42.3,123.0,38.6,887.0,4108.0,3.0,1,
182900,1881.5,133.0,126.5,39.7,1438.0,3974.0,28.0,0,
183000,1843.2,178.8,126.4,76.9,910.0,2589.0,2.0,0,
183100,1868.2,100.6,124.5,153.6,982.0,2796.0,2.0,0,
183200,1861.5,156.9,118.2,159.0,1262.0,3505.0,28.0,0,
183300,1870.0,26.5,118.8,173.6,970.0,2696.0,2.0,0,
183400,1866.3,19.5,118.7,220.1,970.0,2696.0,2.0,0,
183600,1867.3,20.4,118.7,269.2,970.0,2696.0,2.0,0,
183700,1862.4,17.7,118.7,240.3,970.0,2696.0,2.0,0,
183800,1864.3,17.5,118.7,240.2,970.0,2696.0,2.0,0,
183900,1863.6,16.3,118.6,240.2,970.0,2696.0,2.0,0,
184000,1863.9,19.9,118.6,240.3,970.0,2696.0,2.0,0,
184100,1866.1,19.3,118.6,240.3,970.0,2696.0,2.0,0,
184200,1862.1,17.0,118.6,240.4,970.0,2696.0,2.0,0,
184300,1862.0,92.2,114.5,240.2,664.0,3603.0,3.0,1,
184400,1869.9,167.2,125.0,239.8,815.0,3403.0,2.0,0,
184600,1852.1,173.2,129.6,168.2,902.0,2613.0,2.0,0,
184700,1869.6,78.7,128.1,156.6,889.0,2710.0,2.0,0,
184800,1881.5,166.0,132.8,200.1,1404.0,3515.0,28.0,0,
184900,1846.0,27.8,131.0,199.0,1009.0,2997.0,2.0,0,
185000,1858.1,18.2,131.1,167.5,1009.0,2997.0,2.0,0,
185100,1867.1,18.4,131.1,200.5,1009.0,2997.0,2.0,0,
185200,1864.8,18.7,131.1,238.9,1009.0,2997.0,2.0,0,
185300,1862.7,19.1,131.0,240.4,1009.0,2997.0,2.0,0,
185400,1862.4,18.2,131.1,240.3,1009.0,2997.0,2.0,0,
185600,1865.9,20.7,131.1,240.7,1009.0,2997.0,2.0,0,
185700,1864.0,17.6,131.1,240.6,1009.0,2997.0,2.0,0,
185800,1860.8,20.0,131.1,240.3,1009.0,2997.0,2.0,0,
185900,1861.8,43.2,131.7,240.4,617.0,3228.0,3.0,1,
186000,1866.3,22.8,123.7,240.1,859.0,4248.0,3.0,1,
186100,1874.1,121.9,115.5,84.3,807.0,3282.0,2.0,0,
186200,1847.5,199.1,120.8,117.7,918.0,2763.0,2.0,0,
186300,1879.6,60.5,117.0,154.9,1071.0,3410.0,2.0,0,
186400,1853.7,149.8,118.4,125.0,1083.0,3258.0,2.0,0,
186600,1861.5,18.6,115.0,157.2,1083.0,3258.0,2.0,0,
186700,1865.8,21.9,115.0,184.9,1083.0,3258.0,2.0,0,
186800,1865.8,19.3,115.0,232.3,1083.0,3258.0,2.0,0,
186900,1862.7,19.0,115.0,240.6,1083.0,3258.0,2.0,0,
187000,1863.5,17.0,115.0,240.6,1083.0,3258.0,2.0,0,
187100,1867.5,21.5,114.9,240.7,1083.0,3258.0,2.0,0,
187200,1863.6,19.2,115.0,241.1,1083.0,3258.0,2.0,0,
187300,1866.2,19.8,115.0,240.7,1083.0,3258.0,2.0,0,
187400,1866.8,21.1,115.0,240.3,1083.0,3258.0,2.0,0,
187600,1866.2,48.8,127.7,107.4,743.0,4050.0,3.0,1,
187700,1873.0,106.5,128.6,71.5,971.0,3653.0,2.0,0,
187800,1852.9,144.6,124.3,73.3,872.0,2955.0,2.0,0,
187900,1855.4,195.5,126.3,184.7,1110.0,3300.0,2.0,0,
188000,1869.6,120.2,128.0,185.7,985.0,2938.0,2.0,0,
188100,1853.1,99.6,132.7,123.0,963.0,2811.0,2.0,0,
188200,1865.4,21.7,132.7,134.0,963.0,2811.0,2.0,0,
188300,1859.8,19.1,132.8,100.1,963.0,2811.0,2.0,0,
188400,1864.2,20.1,132.8,76.9,963.0,2811.0,2.0,0,
188600,1864.1,17.1,132.8,240.4,963.0,2811.0,2.0,0,
188700,1864.8,22.1,132.9,240.6,963.0,2811.0,2.0,0,
188800,1863.5,19.6,132.9,240.9,963.0,2811.0,2.0,0,
188900,1863.0,19.8,132.9,240.9,963.0,2811.0,2.0,0,
189000,1863.8,19.6,133.0,240.5,963.0,2811.0,2.0,0,
189100,1874.4,26.5,132.6,240.4,963.0,2811.0,2.0,0,
189200,1869.2,41.0,124.3,239.2,762.0,3641.0,3.0,1,
189300,1854.8,109.2,127.2,36.4,897.0,3193.0,2.0,0,
189400,1850.9,189.4,128.6,74.7,1183.0,3755.0,28.0,0,
189600,1864.4,126.6,125.5,175.8,987.0,2955.0,2.0,0,
189700,1872.8,147.2,124.5,197.9,945.0,2647.0,2.0,0,
189800,1852.6,22.8,123.5,226.7,937.0,2430.0,2.0,0,
189900,1863.0,19.8,123.4,157.6,937.0,2430.0,2.0,0,
190000,1864.5,18.5,123.4,86.8,937.0,2430.0,2.0,0,
190100,1863.7,19.7,123.4,93.1,937.0,2430.0,2.0,0,
190200,1864.7,18.2,123.3,240.2,937.0,2430.0,2.0,0,
190300,1866.2,15.4,123.3,240.5,937.0,2430.0,2.0,0,
190400,1862.5,18.5,123.2,240.6,937.0,2430.0,2.0,0,
190600,1864.9,19.4,123.2,240.4,937.0,2430.0,2.0,0,
190700,1861.5,18.5,123.3,240.8,937.0,2430.0,2.0,0,
190800,1853.5,62.1,122.6,238.2,677.0,3536.0,4.0,1,
190900,1870.2,92.1,124.1,43.2,844.0,3071.0,2.0,0,
191000,1854.6,171.2,125.1,90.8,1370.0,3943.0,28.0,0,
191100,1866.1,205.2,128.9,207.3,1079.0,3151.0,2.0,0,
191200,1874.5,85.4,129.9,218.3,1020.0,3268.0,2.0,0,
191300,1851.7,185.4,129.2,158.7,1455.0,3885.0,28.0,0,
191400,1871.7,28.3,131.2,158.1,1133.0,2990.0,2.0,0,
191600,1864.6,20.3,131.3,249.4,1133.0,2990.0,2.0,0,
191700,1865.6,18.0,131.3,282.0,1133.0,2990.0,2.0,0,
191800,1864.7,21.3,131.3,240.8,1133.0,2990.0,2.0,0,
191900,1865.2,18.9,131.3,240.5,1133.0,2990.0,2.0,0,
192000,1864.6,21.4,131.3,240.6,1133.0,2990.0,2.0,0,
192100,1867.4,20.4,131.3,240.6,1133.0,2990.0,2.0,0,
192200,1862.2,19.2,131.3,240.3,1133.0,2990.0,2.0,0,
192300,1865.8,19.5,131.2,240.2,1133.0,2990.0,2.0,0,
192400,1856.0,91.6,128.2,240.1,616.0,3561.0,4.0,1,
192600,1875.4,187.4,139.1,205.6,910.0,3080.0,2.0,0,
192700,1842.9,102.2,136.4,197.3,953.0,3168.0,2.0,0,
192800,1871.0,141.6,135.8,135.8,1066.0,3042.0,2.0,0,
192900,1853.9,202.8,138.0,144.2,993.0,3197.0,28.0,0,
193000,1875.6,41.9,137.0,174.7,1006.0,2948.0,2.0,0,
193100,1860.9,21.9,137.0,168.9,1006.0,2948.0,2.0,0,
193200,1864.2,17.0,137.0,216.1,1006.0,2948.0,2.0,0,
193300,1864.9,21.3,137.0,253.8,1006.0,2948.0,2.0,0,
193400,1864.0,18.9,137.0,240.8,1006.0,2948.0,2.0,0,
193600,1864.8,17.3,137.0,240.5,1006.0,2948.0,2.0,0,
193700,1863.6,16.2,137.1,240.5,1006.0,2948.0,2.0,0,
193800,1863.8,18.2,137.1,240.6,1006.0,2948.0,2.0,0,
193900,1866.0,19.6,137.0,240.4,1006.0,2948.0,2.0,0,
194000,1855.0,25.0,137.0,240.6,573.0,3464.0,6.0,1,
194100,1883.4,43.4,131.0,239.5,730.0,4069.0,4.0,1,
194200,1847.7,86.1,116.0,45.6,924.0,3976.0,4.0,1,
194300,1859.8,30.9,104.3,39.2,1128.0,4472.0,4.0,1,
194400,1874.6,41.0,94.4,38.7,1093.0,4577.0,5.0,1,
194600,1864.1,17.1,55.1,44.1,1100.0,4238.0,4.0,1,
194700,1864.9,18.5,55.0,44.6,1100.0,4238.0,4.0,1,
194800,1863.9,19.9,55.1,208.3,1100.0,4238.0,4.0,1,
194900,1865.1,17.7,55.1,240.2,1100.0,4238.0,4.0,1,
195000,1863.7,20.5,54.9,240.3,1100.0,4238.0,4.0,1,
195100,1867.5,20.7,54.9,240.4,1100.0,4238.0,4.0,1,
195200,1865.7,18.6,55.0,240.5,1100.0,4238.0,4.0,1,
195300,1861.8,18.2,54.9,240.4,1100.0,4238.0,4.0,1,
195400,1862.4,18.5,55.0,240.4,1100.0,4238.0,4.0,1,
195600,1866.3,26.5,55.1,240.8,652.0,3548.0,6.0,1,
195700,1864.8,47.0,54.9,164.6,813.0,3859.0,3.0,1,
195800,1858.3,20.4,54.8,84.7,903.0,3986.0,3.0,1,
195900,1859.8,36.6,46.6,82.1,892.0,3879.0,4.0,1,
196000,1889.9,67.9,51.6,74.7,1009.0,4198.0,5.0,1,
196100,1843.3,29.7,52.2,29.6,1118.0,4435.0,5.0,1,
196200,1855.4,24.9,52.4,29.8,1181.0,4212.0,4.0,1,
196300,1867.3,18.2,52.4,35.5,1181.0,4212.0,4.0,1,
196400,1865.5,20.2,52.5,130.3,1181.0,4212.0,4.0,1,
196600,1863.5,17.8,52.6,240.9,1181.0,4212.0,4.0,1,
196700,1863.6,18.8,52.5,240.8,1181.0,4212.0,4.0,1,
196800,1865.5,17.9,52.6,240.6,1181.0,4212.0,4.0,1,
196900,1863.4,19.7,52.6,240.5,1181.0,4212.0,4.0,1,
197000,1864.9,17.7,52.5,240.4,1181.0,4212.0,4.0,1,
197100,1862.2,18.5,52.5,240.7,1181.0,4212.0,4.0,1,
197200,1864.1,79.3,52.5,240.7,1181.0,4212.0,4.0,1,
197300,1870.2,18.8,53.0,183.8,654.0,3446.0,4.0,1,
197400,1867.7,29.8,52.1,79.1,743.0,3873.0,5.0,1,
197600,1858.6,37.9,48.2,75.0,1032.0,4268.0,4.0,1,
197700,1860.5,24.3,47.0,41.3,1055.0,4472.0,5.0,1,
197800,1863.8,16.1,46.8,39.0,1069.0,4090.0,4.0,1,
197900,1864.4,22.1,47.0,41.1,928.0,3791.0,4.0,1,
198000,1863.8,20.8,47.0,141.0,928.0,3791.0,4.0,1,
198100,1866.1,22.6,47.0,239.3,928.0,3791.0,4.0,1,
198200,1861.5,17.5,47.0,240.0,928.0,3791.0,4.0,1,
198300,1863.7,18.4,46.9,240.2,928.0,3791.0,4.0,1,
198400,1863.3,17.9,46.8,240.5,928.0,3791.0,4.0,1,
198600,1863.9,20.8,46.8,240.6,928.0,3791.0,4.0,1,
198700,1865.9,17.3,46.9,240.5,928.0,3791.0,4.0,1,
198800,1864.7,16.5,46.9,240.6,928.0,3791.0,4.0,1,
198900,1873.7,54.5,44.9,240.6,620.0,3290.0,4.0,1,
199000,1869.4,118.4,61.8,108.8,1239.0,3735.0,28.0,0,
199100,1845.2,207.9,88.6,99.6,777.0,2904.0,2.0,0,
199200,1867.6,187.9,99.2,166.7,974.0,3212.0,2.0,0,
199300,1860.9,198.7,118.9,169.9,1440.0,3872.0,28.0,0,
199400,1872.0,197.4,135.2,196.7,954.0,2872.0,2.0,0,
199600,1864.3,18.6,141.4,185.4,954.0,2872.0,2.0,0,
199700,1863.1,17.5,141.5,134.1,954.0,2872.0,2.0,0,
199800,1863.5,18.0,141.5,112.0,954.0,2872.0,2.0,0,
199900,1863.1,17.5,141.5,239.9,954.0,2872.0,2.0,0,
200000,1866.3,18.3,141.4,240.6,954.0,2872.0,2.0,0,
200100,1862.0,18.7,141.5,240.6,954.0,2872.0,2.0,0,
200200,1864.2,19.7,141.5,240.4,954.0,2872.0,2.0,0,
200300,1863.5,17.1,141.5,240.5,954.0,2872.0,2.0,0,
200400,1865.1,19.1,141.5,240.8,954.0,2872.0,2.0,0,
200600,1867.6,123.5,144.2,238.7,796.0,3053.0,3.0,1,
200700,1851.8,201.7,143.6,199.6,896.0,3462.0,2.0,0,
200800,1861.0,203.4,138.2,200.1,912.0,3094.0,2.0,0,
200900,1886.2,132.1,137.3,188.6,1025.0,3754.0,28.0,0,
201000,1840.8,186.2,136.1,187.5,1056.0,3458.0,2.0,0,
201100,1876.8,49.1,132.6,168.2,1163.0,3143.0,2.0,0,
201200,1861.6,17.9,132.6,198.0,1163.0,3143.0,2.0,0,
201300,1862.5,16.2,132.6,218.2,1163.0,3143.0,2.0,0,
201400,1863.8,19.8,132.5,253.8,1163.0,3143.0,2.0,0,
201600,1862.1,18.3,132.6,240.5,1163.0,3143.0,2.0,0,
201700,1864.4,18.2,132.6,240.2,1163.0,3143.0,2.0,0,
201800,1861.6,17.9,132.6,240.1,1163.0,3143.0,2.0,0,
201900,1862.6,17.9,132.6,240.4,1163.0,3143.0,2.0,0,
202000,1862.1,18.3,132.7,240.5,1163.0,3143.0,2.0,0,
202100,1858.3,11.4,132.5,240.9,674.0,3767.0,5.0,1,
202200,1871.9,241.8,140.2,237.9,715.0,2955.0,2.0,0,
202300,1865.5,181.0,142.6,142.7,944.0,3603.0,2.0,0,
202400,1856.9,86.3,145.6,134.0,992.0,3164.0,2.0,0,
202600,1851.0,197.1,144.1,167.7,973.0,2723.0,2.0,0,
202700,1874.6,67.4,144.2,212.2,1047.0,3182.0,2.0,0,
202800,1865.0,19.5,144.2,211.7,1047.0,3182.0,2.0,0,
202900,1862.7,20.3,144.2,205.6,1047.0,3182.0,2.0,0,
203000,1865.9,18.9,144.2,236.6,1047.0,3182.0,2.0,0,
203100,1866.9,21.7,144.1,240.2,1047.0,3182.0,2.0,0,
203200,1867.7,17.3,144.1,240.4,1047.0,3182.0,2.0,0,
203300,1865.4,19.5,144.1,240.2,1047.0,3182.0,2.0,0,
203400,1865.6,16.6,144.0,240.1,1047.0,3182.0,2.0,0,
203600,1865.2,20.5,144.0,240.6,1047.0,3182.0,2.0,0,
203700,1855.0,17.3,144.0,240.1,1047.0,3182.0,2.0,0,
203800,1896.7,30.6,136.7,220.0,742.0,3946.0,5.0,1,
203900,1836.7,139.5,122.1,84.9,1329.0,4317.0,28.0,0,
204000,1865.3,159.6,122.0,83.3,1026.0,3343.0,2.0,0,
204100,1864.3,145.9,125.3,133.6,1060.0,3349.0,2.0,0,
204200,1847.5,191.4,126.3,187.1,897.0,2591.0,2.0,0,
204300,1883.8,176.6,124.5,186.4,1126.0,3219.0,2.0,0,
204400,1853.3,23.3,127.3,187.6,867.0,2487.0,2.0,0,
204600,1864.2,18.7,127.3,151.9,867.0,2487.0,2.0,0,
204700,1866.4,19.5,127.3,124.6,867.0,2487.0,2.0,0,
204800,1862.4,16.2,127.3,240.3,867.0,2487.0,2.0,0,
204900,1863.0,15.3,127.4,240.6,867.0,2487.0,2.0,0,
205000,1863.2,16.8,127.4,240.5,867.0,2487.0,2.0,0,
205100,1865.1,18.5,127.4,240.8,867.0,2487.0,2.0,0,
205200,1862.0,20.0,127.4,240.6,867.0,2487.0,2.0,0,
205300,1861.4,16.9,127.5,240.6,867.0,2487.0,2.0,0,
205400,1872.3,115.8,136.7,195.3,791.0,3973.0,3.0,1,
205600,1872.3,246.6,141.6,72.5,1393.0,3566.0,2.0,0,
205700,1875.6,120.9,141.4,135.2,958.0,3112.0,2.0,0,
205800,1850.2,139.0,139.5,166.4,923.0,2634.0,2.0,0,
205900,1858.4,116.9,138.8,188.0,1158.0,3314.0,2.0,0,
206000,1860.3,30.8,138.8,216.1,990.0,2692.0,2.0,0,
206100,1864.0,19.8,138.7,198.9,990.0,2692.0,2.0,0,
206200,1865.7,17.0,138.7,148.0,990.0,2692.0,2.0,0,
206300,1867.0,15.3,138.6,102.6,990.0,2692.0,2.0,0,
206400,1863.1,14.2,138.6,240.1,990.0,2692.0,2.0,0,
206600,1862.6,17.7,138.7,240.9,990.0,2692.0,2.0,0,
206700,1865.7,17.0,138.7,241.0,990.0,2692.0,2.0,0,
206800,1865.5,18.8,138.6,240.8,990.0,2692.0,2.0,0,
206900,1860.0,18.3,138.6,240.4,990.0,2692.0,2.0,0,
207000,1872.7,46.5,130.8,240.0,639.0,3376.0,4.0,1,
207100,1866.2,143.6,132.1,156.3,1352.0,3901.0,28.0,0,
207200,1868.3,169.1,128.1,94.0,952.0,3434.0,2.0,0,
207300,1858.0,113.9,123.4,200.7,1012.0,3506.0,2.0,0,
207400,1857.6,183.9,121.0,199.6,1385.0,3827.0,28.0,0,
207600,1866.7,46.2,125.5,218.5,1014.0,3009.0,2.0,0,
207700,1862.2,20.5,125.5,166.2,1014.0,3009.0,2.0,0,
207800,1863.2,15.1,125.5,130.5,1014.0,3009.0,2.0,0,
207900,1863.7,17.1,125.5,94.3,1014.0,3009.0,2.0,0,
208000,1864.8,20.4,125.5,238.9,1014.0,3009.0,2.0,0,
208100,1866.1,17.3,125.5,240.4,1014.0,3009.0,2.0,0,
208200,1862.8,18.7,125.5,240.8,1014.0,3009.0,2.0,0,
208300,1866.1,19.4,125.5,240.7,1014.0,3009.0,2.0,0,
208400,1861.1,16.8,125.6,240.7,1014.0,3009.0,2.0,0,
208600,1854.0,35.3,125.8,241.0,593.0,3558.0,4.0,1,
208700,1884.3,107.6,129.2,230.0,1299.0,4085.0,28.0,0,
208800,1836.0,161.9,130.6,155.0,952.0,3008.0,2.0,0,
208900,1876.0,95.6,129.2,228.9,1023.0,3131.0,2.0,0,
209000,1859.1,176.2,129.3,221.1,1409.0,4065.0,28.0,0,
209100,1862.3,166.6,127.0,218.1,1068.0,3061.0,2.0,0,
209200,1871.5,60.5,127.0,230.2,1050.0,2978.0,2.0,0,
209300,1861.7,19.6,127.0,218.2,1050.0,2978.0,2.0,0,
209400,1860.6,18.7,127.1,201.3,1050.0,2978.0,2.0,0,
209600,1864.6,16.3,127.0,241.2,1050.0,2978.0,2.0,0,
209700,1861.1,18.0,127.0,240.3,1050.0,2978.0,2.0,0,
209800,1865.2,15.1,127.0,240.2,1050.0,2978.0,2.0,0,
209900,1861.6,17.3,127.0,239.8,1050.0,2978.0,2.0,0,
210000,1865.3,17.3,126.9,239.9,1050.0,2978.0,2.0,0,
210100,1865.4,17.1,126.9,240.4,1050.0,2978.0,2.0,0,
210200,1866.2,25.6,126.7,240.6,536.0,3101.0,6.0,1,
210300,1858.3,135.0,133.1,239.4,738.0,3159.0,2.0,0,
210400,1849.4,202.8,138.8,104.3,836.0,3281.0,2.0,0,
210600,1884.4,160.6,141.4,166.4,1417.0,4011.0,28.0,0,
210700,1837.0,146.2,141.1,187.0,1047.0,3325.0,2.0,0,
210800,1869.5,83.5,137.9,185.3,1003.0,3080.0,2.0,0,
210900,1864.4,20.4,137.9,207.1,1003.0,3080.0,2.0,0,
211000,1863.5,13.9,137.8,205.5,1003.0,3080.0,2.0,0,
211100,1862.9,16.5,137.8,225.7,1003.0,3080.0,2.0,0,
211200,1866.4,17.3,137.7,238.2,1003.0,3080.0,2.0,0,
211300,1864.1,16.4,137.7,240.4,1003.0,3080.0,2.0,0,
211400,1861.5,18.4,137.8,240.3,1003.0,3080.0,2.0,0,
211600,1861.6,16.1,137.8,240.4,1003.0,3080.0,2.0,0,
211700,1865.1,17.0,137.8,240.4,1003.0,3080.0,2.0,0,
211800,1865.0,14.8,137.8,240.0,1003.0,3080.0,2.0,0,
211900,1873.5,117.0,135.1,236.3,691.0,3736.0,4.0,1,
212000,1853.3,141.5,122.5,85.4,896.0,4382.0,5.0,1,
212100,1873.2,64.4,123.4,77.9,931.0,3188.0,2.0,0,
212200,1860.9,143.5,117.5,100.1,976.0,2981.0,2.0,0,
212300,1845.8,187.2,118.6,198.5,995.0,3217.0,2.0,0,
212400,1873.7,202.3,114.9,226.3,1020.0,3229.0,2.0,0,
212600,1860.8,15.1,120.0,185.3,1020.0,3229.0,2.0,0,
212700,1860.3,14.7,120.0,154.0,1020.0,3229.0,2.0,0,
212800,1863.0,20.3,120.1,136.0,1020.0,3229.0,2.0,0,
212900,1861.3,17.5,120.1,240.1,1020.0,3229.0,2.0,0,
213000,1862.8,16.3,120.1,240.7,1020.0,3229.0,2.0,0,
213100,1862.8,17.6,120.1,240.4,1020.0,3229.0,2.0,0,
213200,1863.3,14.5,120.1,240.5,1020.0,3229.0,2.0,0,
213300,1861.9,16.0,120.2,240.4,1020.0,3229.0,2.0,0,
213400,1862.2,16.0,120.2,240.3,1020.0,3229.0,2.0,0,
213600,1856.5,122.1,120.4,79.6,822.0,4188.0,4.0,1,
213700,1854.2,120.2,120.0,75.6,1008.0,3336.0,2.0,0,
213800,1874.1,119.7,122.1,136.2,1057.0,3165.0,2.0,0,
213900,1848.1,202.8,129.0,206.3,869.0,2630.0,2.0,0,
214000,1875.9,172.5,127.0,219.0,1058.0,3012.0,2.0,0,
214100,1846.4,39.2,128.4,185.8,992.0,2869.0,2.0,0,
214200,1863.4,17.6,128.4,154.4,992.0,2869.0,2.0,0,
214300,1863.4,19.5,128.4,98.7,992.0,2869.0,2.0,0,
214400,1864.6,18.1,128.3,69.3,992.0,2869.0,2.0,0,
214600,1863.8,18.8,128.2,240.7,992.0,2869.0,2.0,0,
214700,1866.8,18.1,128.3,240.4,992.0,2869.0,2.0,0,
214800,1864.5,18.1,128.3,240.0,992.0,2869.0,2.0,0,
214900,1864.7,16.4,128.2,240.0,992.0,2869.0,2.0,0,
215000,1861.4,18.7,128.2,240.6,992.0,2869.0,2.0,0,
215100,1867.9,28.7,126.0,240.9,579.0,3035.0,3.0,1,
215200,1859.1,141.9,128.2,239.5,1254.0,3923.0,28.0,0,
215300,1864.8,241.7,138.0,221.7,1157.0,3755.0,2.0,0,
215400,1865.9,115.5,136.2,185.2,1007.0,3288.0,2.0,0,
215600,1847.4,174.8,138.5,185.6,1032.0,3051.0,2.0,0,
215700,1870.8,57.7,135.7,185.1,1164.0,3177.0,2.0,0,
215800,1861.0,20.6,135.8,167.8,1164.0,3177.0,2.0,0,
215900,1863.5,17.6,135.8,154.0,1164.0,3177.0,2.0,0,
216000,1863.7,14.8,135.8,149.8,1164.0,3177.0,2.0,0,
216100,1863.1,18.3,135.7,239.3,1164.0,3177.0,2.0,0,
216200,1865.1,17.9,135.8,240.6,1164.0,3177.0,2.0,0,
216300,1864.1,16.3,135.8,240.7,1164.0,3177.0,2.0,0,
216400,1864.0,16.1,135.7,240.5,1164.0,3177.0,2.0,0,
216600,1863.9,19.4,135.7,240.3,1164.0,3177.0,2.0,0,
216700,1864.7,27.2,135.6,240.5,578.0,3478.0,6.0,1,
216800,1858.3,28.1,135.8,240.2,740.0,3822.0,4.0,1,
216900,1871.4,45.3,119.3,154.2,897.0,4605.0,5.0,1,
217000,1870.0,28.7,104.2,89.0,939.0,4079.0,4.0,1,
217100,1855.1,18.5,82.4,84.0,993.0,4394.0,5.0,1,
217200,1857.4,26.8,70.9,92.8,1018.0,4236.0,4.0,1,
217300,1872.3,25.9,29.1,90.9,1056.0,4096.0,5.0,1,
217400,1865.5,17.2,29.0,122.8,1056.0,4096.0,5.0,1,
217600,1862.7,17.8,28.8,237.8,1056.0,4096.0,5.0,1,
217700,1866.6,17.6,29.1,240.2,1056.0,4096.0,5.0,1,
217800,1860.3,15.9,29.0,240.6,1056.0,4096.0,5.0,1,
217900,1865.8,17.9,29.0,240.3,1056.0,4096.0,5.0,1,
218000,1861.2,17.3,29.0,240.0,1056.0,4096.0,5.0,1,
218100,1864.5,18.8,29.3,240.0,1056.0,4096.0,5.0,1,
218200,1864.2,17.1,29.3,240.1,1056.0,4096.0,5.0,1,
218300,1856.1,14.0,29.1,240.9,1056.0,4096.0,5.0,1,
218400,1889.3,39.8,37.4,240.7,628.0,3646.0,5.0,1,
218600,1867.5,19.7,36.2,81.7,927.0,4330.0,4.0,1,
218700,1859.2,142.2,43.9,79.9,1091.0,3943.0,2.0,0,
218800,1848.0,218.5,74.4,157.7,1224.0,3468.0,2.0,0,
218900,1883.8,83.6,92.3,166.5,1087.0,3198.0,2.0,0,
219000,1852.3,20.5,92.3,138.9,974.0,3121.0,2.0,0,
219100,1862.1,17.6,92.3,155.8,974.0,3121.0,2.0,0,
219200,1863.3,19.1,92.3,227.5,974.0,3121.0,2.0,0,
219300,1864.5,16.3,92.4,240.3,974.0,3121.0,2.0,0,
219400,1864.8,18.2,92.4,240.3,974.0,3121.0,2.0,0,
219600,1863.3,18.0,92.5,240.6,974.0,3121.0,2.0,0,
219700,1864.6,18.5,92.5,240.4,974.0,3121.0,2.0,0,
219800,1864.3,15.4,92.4,240.4,974.0,3121.0,2.0,0,
219900,1864.8,16.5,92.4,239.9,974.0,3121.0,2.0,0,
220000,1872.1,42.3,92.3,239.0,706.0,3900.0,5.0,1,
220100,1849.6,20.5,92.4,92.5,979.0,4690.0,5.0,1,
220200,1871.9,32.5,92.5,80.8,909.0,4069.0,4.0,1,
220300,1882.2,20.1,91.3,79.2,1129.0,4739.0,5.0,1,
220400,1850.5,33.7,73.2,78.3,1021.0,4474.0,4.0,1,
220600,1861.0,16.6,37.5,137.5,1054.0,4179.0,4.0,1,
220700,1863.8,16.3,37.6,158.0,1054.0,4179.0,4.0,1,
220800,1865.0,18.7,37.5,238.0,1054.0,4179.0,4.0,1,
220900,1864.0,18.0,37.5,240.1,1054.0,4179.0,4.0,1,
221000,1865.9,17.8,37.5,240.8,1054.0,4179.0,4.0,1,
221100,1861.1,14.8,37.3,241.0,1054.0,4179.0,4.0,1,
221200,1864.9,17.8,37.3,241.0,1054.0,4179.0,4.0,1,
221300,1860.9,15.7,37.3,240.7,1054.0,4179.0,4.0,1,
221400,1867.8,18.7,37.3,240.4,1054.0,4179.0,4.0,1,
221600,1867.9,46.3,35.6,238.7,547.0,3171.0,5.0,1,
221700,1852.3,115.5,35.3,80.2,705.0,3361.0,3.0,1,
221800,1884.0,169.5,66.9,77.2,811.0,3327.0,2.0,0,
221900,1852.3,154.3,91.0,145.5,968.0,3171.0,2.0,0,
222000,1846.8,191.4,109.4,174.3,929.0,3223.0,2.0,0,
222100,1876.0,195.7,118.2,167.9,984.0,3112.0,2.0,0,
222200,1855.9,46.2,130.0,187.2,1010.0,2702.0,2.0,0,
222300,1864.7,17.5,130.0,166.8,1010.0,2702.0,2.0,0,
222400,1863.2,15.2,130.0,108.9,1010.0,2702.0,2.0,0,
222600,1862.8,16.5,130.0,202.6,1010.0,2702.0,2.0,0,
222700,1865.4,18.4,129.9,240.5,1010.0,2702.0,2.0,0,
222800,1861.7,15.9,130.0,240.5,1010.0,2702.0,2.0,0,
222900,1862.5,15.1,129.9,240.3,1010.0,2702.0,2.0,0,
223000,1866.1,19.2,130.0,240.3,1010.0,2702.0,2.0,0,
223100,1866.2,18.4,130.0,240.4,1010.0,2702.0,2.0,0,
223200,1875.4,83.6,128.5,240.3,660.0,3637.0,6.0,1,
223300,1862.7,103.4,130.8,238.2,746.0,4010.0,4.0,1,
223400,1856.7,100.1,132.5,91.8,942.0,3349.0,2.0,0,
223600,1853.1,217.2,124.2,226.1,1002.0,3228.0,2.0,0,
223700,1871.5,202.6,125.3,238.3,1052.0,3254.0,2.0,0,
223800,1854.5,67.7,126.1,218.9,1051.0,2959.0,2.0,0,
223900,1864.8,19.6,126.0,166.4,1051.0,2959.0,2.0,0,
224000,1864.8,16.1,126.1,122.3,1051.0,2959.0,2.0,0,
224100,1865.1,16.8,126.0,93.3,1051.0,2959.0,2.0,0,
224200,1866.5,17.7,126.0,228.4,1051.0,2959.0,2.0,0,
224300,1864.3,16.8,126.0,240.8,1051.0,2959.0,2.0,0,
224400,1861.9,13.8,125.9,240.5,1051.0,2959.0,2.0,0,
224600,1862.8,19.6,125.9,240.2,1051.0,2959.0,2.0,0,
224700,1865.4,19.1,125.9,239.5,1051.0,2959.0,2.0,0,
224800,1882.0,18.4,125.9,239.7,560.0,3250.0,6.0,1,
224900,1844.1,25.5,124.4,240.0,744.0,4252.0,3.0,1,
225000,1869.5,46.7,114.3,238.9,875.0,4299.0,5.0,1,
225100,1870.3,144.3,112.9,143.3,966.0,3274.0,2.0,0,
225200,1867.5,167.0,117.2,105.9,982.0,3028.0,2.0,0,
225300,1851.4,115.0,112.1,158.4,1119.0,3280.0,2.0,0,
225400,1864.8,121.3,112.3,189.4,1020.0,2971.0,2.0,0,
225600,1862.0,17.2,112.4,186.3,1020.0,2971.0,2.0,0,
225700,1862.4,18.7,112.4,187.9,1020.0,2971.0,2.0,0,
225800,1865.5,18.6,112.4,239.7,1020.0,2971.0,2.0,0,
225900,1863.1,18.2,112.4,240.4,1020.0,2971.0,2.0,0,
226000,1862.3,15.5,112.5,240.4,1020.0,2971.0,2.0,0,
226100,1864.0,20.2,112.5,240.2,1020.0,2971.0,2.0,0,
226200,1862.9,16.2,112.5,240.1,1020.0,2971.0,2.0,0,
226300,1865.2,16.4,112.5,240.0,1020.0,2971.0,2.0,0,
226400,1865.6,23.4,112.4,239.8,1020.0,2971.0,2.0,0,
226600,1865.1,20.1,112.5,238.1,778.0,4162.0,3.0,1,
226700,1882.7,38.3,104.3,217.4,929.0,4174.0,5.0,1,
226800,1837.0,24.7,89.1,219.3,996.0,4522.0,5.0,1,
226900,1864.8,19.8,75.1,110.2,1001.0,4284.0,4.0,1,
227000,1859.1,141.6,52.4,88.1,1042.0,3334.0,2.0,0,
227100,1867.7,24.8,46.3,105.8,1002.0,3139.0,2.0,0,
227200,1865.3,19.3,46.4,165.4,1002.0,3139.0,2.0,0,
227300,1863.3,21.4,46.5,216.1,1002.0,3139.0,2.0,0,
227400,1864.8,19.2,46.5,239.9,1002.0,3139.0,2.0,0,
227600,1865.3,18.5,46.6,240.7,1002.0,3139.0,2.0,0,
227700,1863.7,15.4,46.5,240.5,1002.0,3139.0,2.0,0,
227800,1866.5,16.9,46.5,239.8,1002.0,3139.0,2.0,0,
227900,1863.3,16.6,46.6,239.9,1002.0,3139.0,2.0,0,
228000,1865.7,19.8,46.6,240.2,1002.0,3139.0,2.0,0,
228100,1863.6,138.4,49.3,240.3,600.0,3734.0,5.0,1,
228200,1866.9,245.0,99.7,163.1,1113.0,3329.0,2.0,0,
228300,1868.2,160.5,118.8,125.7,1010.0,3434.0,2.0,0,
228400,1852.6,194.9,133.2,125.5,1029.0,3014.0,2.0,0,
228600,1886.5,161.1,156.0,200.0,1619.0,4069.0,28.0,0,
228700,1845.2,29.8,155.2,197.6,1136.0,3114.0,2.0,0,
228800,1865.2,14.9,155.2,165.6,1136.0,3114.0,2.0,0,
228900,1862.1,14.7,155.1,200.7,1136.0,3114.0,2.0,0,
229000,1864.2,15.6,155.1,239.5,1136.0,3114.0,2.0,0,
229100,1862.8,13.9,155.1,240.4,1136.0,3114.0,2.0,0,
229200,1863.2,15.0,155.1,240.2,1136.0,3114.0,2.0,0,
229300,1864.0,16.7,155.1,240.3,1136.0,3114.0,2.0,0,
229400,1862.8,18.9,155.2,240.4,1136.0,3114.0,2.0,0,
229600,1863.4,13.4,155.2,240.1,1136.0,3114.0,2.0,0,
229700,1858.2,62.4,157.2,239.6,627.0,3530.0,6.0,1,
229800,1864.6,36.2,140.4,102.2,897.0,4593.0,5.0,1,
229900,1869.9,152.7,130.8,83.7,1029.0,3361.0,2.0,0,
230000,1850.7,194.5,126.9,83.6,936.0,3024.0,2.0,0,
230100,1874.0,84.7,127.0,158.6,1071.0,3363.0,2.0,0,
230200,1860.4,154.4,120.2,183.5,1128.0,3051.0,2.0,0,
230300,1858.2,33.0,118.1,197.7,1166.0,3314.0,2.0,0,
230400,1859.8,15.8,118.2,217.4,1166.0,3314.0,2.0,0,
230600,1862.9,16.7,118.2,227.8,1166.0,3314.0,2.0,0,
230700,1864.4,13.8,118.2,240.3,1166.0,3314.0,2.0,0,
230800,1860.9,15.1,118.2,240.7,1166.0,3314.0,2.0,0,
230900,1862.0,14.0,118.2,240.2,1166.0,3314.0,2.0,0,
231000,1863.3,12.9,118.2,239.6,1166.0,3314.0,2.0,0,
231100,1863.2,13.1,118.1,240.1,1166.0,3314.0,2.0,0,
231200,1865.4,14.7,118.1,240.5,1166.0,3314.0,2.0,0,
231300,1858.7,22.0,118.1,240.3,572.0,3310.0,5.0,1,
231400,1867.4,37.8,118.8,212.5,835.0,4033.0,3.0,1,
231600,1841.7,182.4,124.2,43.9,914.0,2985.0,2.0,0,
231700,1863.9,136.8,121.8,154.1,1094.0,3244.0,2.0,0,
231800,1866.3,157.0,127.1,189.1,1104.0,3246.0,2.0,0,
231900,1852.3,92.0,129.1,199.0,1064.0,2733.0,2.0,0,
232000,1863.3,16.6,129.1,196.4,1064.0,2733.0,2.0,0,
232100,1863.0,17.9,129.1,156.1,1064.0,2733.0,2.0,0,
232200,1862.7,15.9,129.1,122.7,1064.0,2733.0,2.0,0,
232300,1864.2,14.4,129.1,106.3,1064.0,2733.0,2.0,0,
232400,1862.8,16.3,129.1,239.5,1064.0,2733.0,2.0,0,
232600,1861.7,17.2,129.1,240.0,1064.0,2733.0,2.0,0,
232700,1863.0,14.7,129.2,240.1,1064.0,2733.0,2.0,0,
232800,1863.4,14.3,129.2,240.1,1064.0,2733.0,2.0,0,
232900,1863.8,186.3,129.3,239.9,1064.0,2733.0,2.0,0,
233000,1881.6,199.9,146.4,93.9,1349.0,3308.0,2.0,0,
233100,1851.4,144.1,150.7,75.5,1005.0,3366.0,2.0,0,
233200,1845.7,196.1,151.6,123.2,1037.0,3510.0,2.0,0,
233300,1875.5,94.8,150.4,176.5,1153.0,3460.0,2.0,0,
233400,1863.5,130.6,150.4,168.6,1224.0,3666.0,2.0,0,
233600,1852.5,23.4,152.1,199.9,1115.0,2809.0,2.0,0,
233700,1862.5,15.9,152.1,134.3,1115.0,2809.0,2.0,0,
233800,1863.1,13.9,152.1,88.0,1115.0,2809.0,2.0,0,
233900,1862.7,16.1,152.1,70.5,1115.0,2809.0,2.0,0,
234000,1864.5,14.6,152.2,239.8,1115.0,2809.0,2.0,0,
234100,1862.3,12.8,152.2,240.6,1115.0,2809.0,2.0,0,
234200,1864.4,14.7,152.1,240.2,1115.0,2809.0,2.0,0,
234300,1863.2,14.8,152.1,240.3,1115.0,2809.0,2.0,0,
234400,1862.2,14.8,152.1,240.3,1115.0,2809.0,2.0,0,
234600,1862.6,16.2,135.1,240.4,613.0,3470.0,4.0,1,
234700,1873.2,57.2,120.8,240.4,828.0,3828.0,6.0,1,
234800,1852.5,137.5,107.5,228.2,1130.0,4468.0,5.0,1,
234900,1871.3,175.8,104.6,89.4,1178.0,3821.0,2.0,0,
235000,1862.2,119.3,104.8,132.7,1346.0,4205.0,2.0,0,
235100,1845.7,183.5,106.0,157.7,1291.0,4106.0,2.0,0,
235200,1873.9,31.2,105.0,184.8,1197.0,3626.0,2.0,0,
235300,1862.7,20.3,105.1,166.4,1197.0,3626.0,2.0,0,
235400,1862.4,18.9,105.1,156.1,1197.0,3626.0,2.0,0,
235600,1861.1,18.3,105.1,240.2,1197.0,3626.0,2.0,0,
235700,1862.2,17.4,105.1,240.8,1197.0,3626.0,2.0,0,
235800,1861.0,17.3,105.2,241.0,1197.0,3626.0,2.0,0,
235900,1863.0,16.2,105.3,240.6,1197.0,3626.0,2.0,0,
236000,1862.4,17.1,105.3,240.5,1197.0,3626.0,2.0,0,
236100,1862.5,17.1,105.3,240.6,1197.0,3626.0,2.0,0,
236200,1859.7,51.5,110.7,238.4,629.0,3402.0,5.0,1,
236300,1870.6,111.4,118.2,39.8,784.0,3529.0,2.0,0,
236400,1871.3,165.3,130.3,72.1,865.0,3007.0,2.0,0,
236600,1869.0,179.2,129.8,168.6,987.0,3151.0,2.0,0,
236700,1850.9,203.2,134.3,201.6,947.0,2820.0,2.0,0,
236800,1879.1,41.0,133.4,198.7,1049.0,3132.0,2.0,0,
236900,1862.1,19.6,133.4,142.6,1049.0,3132.0,2.0,0,
237000,1863.3,20.1,133.5,157.5,1049.0,3132.0,2.0,0,
237100,1861.8,18.5,133.5,239.8,1049.0,3132.0,2.0,0,
237200,1863.1,17.8,133.5,240.8,1049.0,3132.0,2.0,0,
237300,1863.5,18.1,133.5,240.8,1049.0,3132.0,2.0,0,
237400,1861.6,16.5,133.5,241.0,1049.0,3132.0,2.0,0,
237600,1862.2,17.4,133.5,239.9,1049.0,3132.0,2.0,0,
237700,1863.3,16.8,133.5,240.1,1049.0,3132.0,2.0,0,
237800,1861.9,23.7,129.5,240.3,627.0,3489.0,6.0,1,
237900,1875.3,46.8,124.6,240.4,823.0,4166.0,4.0,1,
238000,1844.5,141.5,115.0,157.6,956.0,3733.0,2.0,0,
238100,1868.9,230.4,117.2,91.8,1344.0,3606.0,2.0,0,
238200,1867.5,163.0,122.1,100.4,1112.0,3528.0,2.0,0,
238300,1861.4,170.7,118.6,105.7,967.0,3195.0,2.0,0,
238400,1860.8,51.3,116.1,135.8,1090.0,3312.0,2.0,0,
238600,1860.5,15.9,116.1,157.3,1090.0,3312.0,2.0,0,
238700,1862.7,18.1,116.1,203.7,1090.0,3312.0,2.0,0,
238800,1867.8,17.5,116.0,239.9,1090.0,3312.0,2.0,0,
238900,1862.2,16.5,116.0,240.4,1090.0,3312.0,2.0,0,
239000,1863.4,19.1,116.0,240.4,1090.0,3312.0,2.0,0,
239100,1864.3,15.4,115.9,240.1,1090.0,3312.0,2.0,0,
239200,1863.4,18.8,115.9,240.0,1090.0,3312.0,2.0,0,
239300,1863.9,19.3,115.9,240.2,1090.0,3312.0,2.0,0,
239400,1865.7,18.4,115.9,240.5,636.0,3686.0,6.0,1,
239600,1849.2,204.2,140.9,141.4,867.0,3644.0,2.0,0,
239700,1862.0,182.1,142.5,132.5,1087.0,3465.0,2.0,0,
239800,1898.0,139.0,138.2,158.9,1277.0,4181.0,28.0,0,
239900,1834.8,181.1,136.1,207.6,1155.0,3927.0,28.0,0,
240000,1868.9,133.8,140.1,227.9,1061.0,3140.0,2.0,0,
240100,1866.9,21.4,140.1,198.0,1061.0,3140.0,2.0,0,
240200,1863.2,18.0,140.0,139.9,1061.0,3140.0,2.0,0,
240300,1861.5,22.2,140.1,99.2,1061.0,3140.0,2.0,0,
240400,1863.0,18.1,140.2,94.3,1061.0,3140.0,2.0,0,
240600,1864.5,20.0,140.1,240.3,1061.0,3140.0,2.0,0,
240700,1863.3,18.5,140.2,240.2,1061.0,3140.0,2.0,0,
240800,1861.4,17.2,140.2,240.1,1061.0,3140.0,2.0,0,
240900,1864.2,16.1,140.2,240.4,1061.0,3140.0,2.0,0,
241000,1863.3,13.2,140.2,240.4,1061.0,3140.0,2.0,0,
241100,1868.0,226.9,143.8,240.0,1003.0,3153.0,2.0,0,
241200,1856.8,160.0,140.1,199.7,802.0,3205.0,2.0,0,
241300,1871.5,165.4,141.1,166.4,963.0,3269.0,2.0,0,
241400,1862.2,163.5,141.6,194.4,1040.0,3501.0,2.0,0,
241600,1873.0,210.7,145.5,196.5,1101.0,3339.0,2.0,0,
241700,1856.6,26.9,146.3,185.3,968.0,2770.0,2.0,0,
241800,1863.0,17.8,146.3,183.7,968.0,2770.0,2.0,0,
241900,1863.9,16.6,146.2,151.2,968.0,2770.0,2.0,0,
242000,1865.8,20.2,146.2,114.9,968.0,2770.0,2.0,0,
242100,1865.1,21.4,146.2,239.4,968.0,2770.0,2.0,0,
242200,1867.5,17.3,146.1,240.4,968.0,2770.0,2.0,0,
242300,1868.0,20.0,146.0,240.6,968.0,2770.0,2.0,0,
242400,1864.9,21.1,146.0,240.5,968.0,2770.0,2.0,0,
242600,1866.0,18.5,145.9,240.4,968.0,2770.0,2.0,0,
242700,1886.5,102.7,143.3,238.3,535.0,3194.0,6.0,1,
242800,1848.4,136.5,130.2,78.5,1248.0,3911.0,28.0,0,
242900,1868.6,202.2,137.6,72.7,1295.0,3150.0,2.0,0,
243000,1869.1,132.8,134.4,142.2,1113.0,3650.0,2.0,0,
243100,1850.1,180.0,128.9,194.5,1152.0,3625.0,2.0,0,
243200,1885.0,110.3,130.8,189.1,1291.0,3594.0,2.0,0,
243300,1841.4,40.2,129.6,199.5,1136.0,3068.0,2.0,0,
243400,1862.9,18.3,129.6,167.1,1136.0,3068.0,2.0,0,
243600,1865.0,24.3,129.7,112.2,1136.0,3068.0,2.0,0,
243700,1866.7,17.5,129.6,239.3,1136.0,3068.0,2.0,0,
243800,1863.3,18.4,129.6,240.3,1136.0,3068.0,2.0,0,
243900,1861.8,19.0,129.7,240.2,1136.0,3068.0,2.0,0,
244000,1867.2,20.1,129.8,240.3,1136.0,3068.0,2.0,0,
244100,1863.3,19.1,129.8,240.8,1136.0,3068.0,2.0,0,
244200,1859.7,19.0,129.9,240.8,1136.0,3068.0,2.0,0,
244300,1875.1,51.3,130.7,240.0,622.0,3480.0,5.0,1,
244400,1847.0,153.6,131.5,93.2,1146.0,3780.0,28.0,0,
244600,1864.3,135.8,132.2,144.0,1115.0,4035.0,2.0,0,
244700,1860.5,176.7,137.6,186.3,1159.0,3587.0,2.0,0,
244800,1861.8,202.1,138.7,186.4,1418.0,3876.0,2.0,0,
244900,1858.2,60.4,139.1,165.9,1203.0,3217.0,2.0,0,
245000,1863.2,21.5,139.2,154.6,1203.0,3217.0,2.0,0,
245100,1863.0,19.1,139.2,100.2,1203.0,3217.0,2.0,0,
245200,1862.5,20.5,139.2,90.8,1203.0,3217.0,2.0,0,
245300,1867.3,21.8,139.2,237.9,1203.0,3217.0,2.0,0,
245400,1862.4,18.6,139.3,240.7,1203.0,3217.0,2.0,0,
245600,1866.1,17.7,139.2,240.5,1203.0,3217.0,2.0,0,
245700,1865.6,19.4,139.2,240.2,1203.0,3217.0,2.0,0,
245800,1863.4,18.7,139.1,240.1,1203.0,3217.0,2.0,0,
245900,1872.7,17.6,136.6,240.0,587.0,3658.0,7.0,1,
246000,1849.5,105.0,136.6,239.9,707.0,3882.0,4.0,1,
246100,1882.1,207.5,141.9,225.6,1405.0,3371.0,2.0,0,
246200,1858.4,145.6,138.8,163.2,1164.0,3674.0,2.0,0,
246300,1849.5,181.8,139.8,137.4,1184.0,3652.0,2.0,0,
246400,1870.1,188.1,138.6,167.6,1134.0,3251.0,2.0,0,
246600,1863.5,23.4,137.2,186.5,1134.0,3251.0,2.0,0,
246700,1864.8,17.8,137.2,185.7,1134.0,3251.0,2.0,0,
246800,1865.2,18.8,137.1,187.4,1134.0,3251.0,2.0,0,
246900,1861.4,17.0,137.1,239.6,1134.0,3251.0,2.0,0,
247000,1864.5,18.1,137.1,240.1,1134.0,3251.0,2.0,0,
247100,1864.1,18.5,137.1,240.3,1134.0,3251.0,2.0,0,
247200,1864.1,18.3,137.1,240.4,1134.0,3251.0,2.0,0,
247300,1865.5,20.9,137.1,240.2,1134.0,3251.0,2.0,0,
247400,1865.8,16.6,137.1,240.3,1134.0,3251.0,2.0,0,
247600,1871.6,143.9,139.1,239.7,717.0,3988.0,6.0,1,
247700,1856.0,200.7,143.5,117.8,1421.0,3878.0,2.0,0,
247800,1871.0,138.4,141.3,140.8,1030.0,3370.0,2.0,0,
247900,1854.8,196.3,138.9,157.2,1188.0,3380.0,2.0,0,
248000,1869.6,237.2,143.1,197.9,1507.0,3784.0,2.0,0,
248100,1875.7,129.7,143.2,199.4,1410.0,4112.0,28.0,0,
248200,1855.8,25.7,143.1,173.3,1234.0,3440.0,2.0,0,
248300,1864.5,20.6,143.2,166.2,1234.0,3440.0,2.0,0,
248400,1867.9,19.5,143.2,220.7,1234.0,3440.0,2.0,0,
248600,1863.8,21.1,143.1,240.4,1234.0,3440.0,2.0,0,
248700,1863.3,18.6,143.1,240.2,1234.0,3440.0,2.0,0,
248800,1865.8,17.6,143.1,240.7,1234.0,3440.0,2.0,0,
248900,1863.0,17.5,143.1,240.9,1234.0,3440.0,2.0,0,
249000,1865.7,20.4,143.1,240.4,1234.0,3440.0,2.0,0,
249100,1862.2,16.8,143.1,240.4,1234.0,3440.0,2.0,0,
249200,1852.1,171.1,146.1,239.8,1110.0,3094.0,26.0,0,
249300,1875.1,31.0,134.9,105.1,580.0,2927.0,3.0,1,
249400,1868.0,125.7,125.7,78.8,624.0,3434.0,5.0,1,
249600,1865.9,211.1,124.2,83.1,1120.0,2754.0,2.0,0,
249700,1865.7,246.3,130.4,92.8,1019.0,2993.0,2.0,0,
249800,1864.8,34.3,133.6,155.2,759.0,2197.0,2.0,0,
249900,1859.2,19.7,133.6,165.2,759.0,2197.0,2.0,0,
250000,1863.3,20.4,133.7,133.6,759.0,2197.0,2.0,0,
250100,1864.1,18.0,133.7,91.7,759.0,2197.0,2.0,0,
250200,1864.8,21.1,133.7,239.4,759.0,2197.0,2.0,0,
250300,1863.9,16.5,133.7,240.4,759.0,2197.0,2.0,0,
250400,1864.4,15.2,133.7,240.6,759.0,2197.0,2.0,0,
250600,1864.9,16.6,133.8,240.0,759.0,2197.0,2.0,0,
250700,1865.4,16.8,133.8,240.2,759.0,2197.0,2.0,0,
250800,1853.5,81.9,133.4,240.9,574.0,3313.0,6.0,1,
250900,1857.4,24.7,128.3,147.7,480.0,2620.0,5.0,1,
251000,1885.1,33.0,128.3,85.8,463.0,2339.0,3.0,1,
251100,1843.2,38.3,126.1,84.3,658.0,3002.0,5.0,1,
251200,1867.6,242.0,121.0,88.5,1000.0,2470.0,25.0,0,
251300,1860.7,275.5,119.4,94.0,1456.0,2925.0,26.0,0,
251400,1868.0,40.8,115.6,102.6,968.0,2253.0,21.0,1,
251600,1862.0,20.3,115.6,130.4,968.0,2253.0,21.0,1,
251700,1863.5,20.5,115.6,135.4,968.0,2253.0,21.0,1,
251800,1863.4,16.3,115.6,238.8,968.0,2253.0,21.0,1,
251900,1863.3,18.4,115.6,240.2,968.0,2253.0,21.0,1,
252000,1863.2,19.5,115.6,240.4,968.0,2253.0,21.0,1,
252100,1867.8,20.5,115.6,240.5,968.0,2253.0,21.0,1,
252200,1864.0,15.5,115.6,240.4,968.0,2253.0,21.0,1,
252300,1865.5,21.2,115.6,240.3,968.0,2253.0,21.0,1,
252400,1862.3,21.1,115.6,240.4,536.0,3268.0,3.0,1,
252600,1855.2,17.3,112.0,221.1,503.0,2620.0,6.0,1,
252700,1854.3,15.7,111.9,143.7,741.0,3338.0,5.0,1,
252800,1872.9,18.7,100.3,141.5,861.0,3702.0,5.0,1,
252900,1873.3,17.9,68.4,135.5,914.0,3565.0,5.0,1,
253000,1858.7,17.4,25.1,136.5,872.0,3516.0,4.0,1,
253100,1862.9,17.4,25.1,150.2,872.0,3516.0,4.0,1,
253200,1866.7,16.3,24.7,237.5,872.0,3516.0,4.0,1,
253300,1863.2,17.0,24.5,240.6,872.0,3516.0,4.0,1,
253400,1863.6,20.6,24.4,240.5,872.0,3516.0,4.0,1,
253600,1864.0,17.1,24.4,240.3,872.0,3516.0,4.0,1,
253700,1865.4,16.5,24.3,240.1,872.0,3516.0,4.0,1,
253800,1865.4,19.2,24.2,240.2,872.0,3516.0,4.0,1,
253900,1865.1,16.5,24.3,240.7,872.0,3516.0,4.0,1,
254000,1859.8,45.5,24.0,240.7,564.0,3161.0,6.0,1,
254100,1866.3,90.0,48.5,138.2,681.0,3349.0,3.0,1,
254200,1850.0,24.9,48.4,81.7,645.0,3738.0,5.0,1,
254300,1858.8,46.2,56.1,70.5,636.0,3124.0,5.0,1,
254400,1889.7,203.9,82.7,49.7,1062.0,3104.0,27.0,0,
254600,1867.8,138.5,130.4,94.2,411.0,1833.0,26.0,0,
254700,1865.0,22.6,130.4,155.2,411.0,1833.0,26.0,0,
254800,1862.9,16.0,130.5,168.5,411.0,1833.0,26.0,0,
254900,1865.5,21.3,130.5,135.9,411.0,1833.0,26.0,0,
255000,1862.6,19.0,130.5,103.9,411.0,1833.0,26.0,0,
255100,1864.2,16.0,130.5,239.9,411.0,1833.0,26.0,0,
255200,1864.8,18.0,130.5,240.2,411.0,1833.0,26.0,0,
255300,1865.7,19.4,130.5,240.4,411.0,1833.0,26.0,0,
255400,1867.0,19.2,130.5,240.2,411.0,1833.0,26.0,0,
255600,1862.4,11.3,130.5,240.0,411.0,1833.0,26.0,0,
255700,1871.6,117.3,130.7,239.0,624.0,3908.0,4.0,1,
255800,1864.5,113.8,129.3,74.5,803.0,3966.0,3.0,1,
255900,1864.5,192.4,144.0,70.5,1744.0,3921.0,2.0,0,
256000,1869.4,134.6,146.0,113.3,1053.0,3234.0,2.0,0,
256100,1852.0,162.9,135.5,154.7,1104.0,3042.0,2.0,0,
256200,1870.0,193.4,129.2,163.2,1176.0,3372.0,2.0,0,
256300,1858.6,24.3,127.9,216.8,1010.0,2489.0,2.0,0,
256400,1860.0,15.5,127.9,186.3,1010.0,2489.0,2.0,0,
256600,1865.9,17.3,127.8,138.5,1010.0,2489.0,2.0,0,
256700,1864.5,18.4,127.9,239.6,1010.0,2489.0,2.0,0,
256800,1863.5,20.3,127.9,240.0,1010.0,2489.0,2.0,0,
256900,1864.2,15.4,128.0,240.1,1010.0,2489.0,2.0,0,
257000,1863.7,16.1,128.0,240.5,1010.0,2489.0,2.0,0,
257100,1861.0,15.8,128.0,240.6,1010.0,2489.0,2.0,0,
257200,1865.3,17.4,128.0,240.4,1010.0,2489.0,2.0,0,
257300,1885.3,19.5,125.4,240.0,700.0,3842.0,6.0,1,
257400,1838.5,22.2,123.8,239.0,841.0,4030.0,5.0,1,
257600,1861.9,13.3,87.6,92.4,1176.0,4673.0,5.0,1,
257700,1850.8,26.4,72.5,66.2,1204.0,4469.0,4.0,1,
257800,1886.3,19.2,47.8,77.8,1273.0,4560.0,5.0,1,
257900,1848.7,17.3,26.0,66.5,1306.0,4613.0,4.0,1,
258000,1861.2,17.1,26.1,99.2,1306.0,4613.0,4.0,1,
258100,1864.4,19.9,26.3,240.2,1306.0,4613.0,4.0,1,
258200,1864.0,15.7,26.3,241.0,1306.0,4613.0,4.0,1,
258300,1864.6,20.7,26.2,240.6,1306.0,4613.0,4.0,1,
258400,1867.8,19.7,26.1,240.3,1306.0,4613.0,4.0,1,
258600,1861.5,14.9,26.1,240.3,1306.0,4613.0,4.0,1,
258700,1862.5,15.8,26.0,240.2,1306.0,4613.0,4.0,1,
258800,1860.2,16.3,26.1,240.2,1306.0,4613.0,4.0,1,
258900,1873.3,27.7,26.3,240.2,550.0,3217.0,6.0,1,
259000,1856.0,27.8,27.0,239.8,782.0,4207.0,5.0,1,
259100,1873.4,52.9,31.9,167.8,882.0,4124.0,4.0,1,
259200,1872.8,134.8,49.5,83.9,1421.0,3712.0,28.0,0,
259300,1845.1,130.6,70.8,116.9,1075.0,3572.0,2.0,0,
259400,1871.7,116.5,86.4,207.6,1327.0,3490.0,2.0,0,
259600,1864.5,19.6,98.9,219.5,1327.0,3490.0,2.0,0,
259700,1864.2,16.3,98.8,198.6,1327.0,3490.0,2.0,0,
259800,1862.5,21.1,98.8,152.3,1327.0,3490.0,2.0,0,
