Time(ms),Raw_ADC,ENV_Value,RMS,MDF,MW_Amp,MW_Area,MW_Latency,MW_Valid,Marker
0,1861.6,189.9,0.0,0.0,0.0,0.0,0.0,0,
100,1874.5,247.0,0.0,0.0,0.0,0.0,0.0,0,
200,1871.0,144.2,0.0,0.0,0.0,0.0,0.0,0,
300,1862.8,78.4,0.0,0.0,0.0,0.0,0.0,0,
400,1853.4,74.2,0.0,0.0,569.0,2541.0,3.0,1,
500,1857.8,89.7,0.0,137.2,569.0,2541.0,3.0,1,
600,1871.1,54.7,0.0,184.7,569.0,2541.0,3.0,1,
700,1861.7,25.1,0.0,187.6,569.0,2541.0,3.0,1,
800,1861.1,23.2,0.0,153.8,569.0,2541.0,3.0,1,
900,1859.2,21.6,0.0,196.6,569.0,2541.0,3.0,1,
1000,1865.8,17.3,0.0,239.7,569.0,2541.0,3.0,1,
1100,1864.9,17.0,0.0,240.2,569.0,2541.0,3.0,1,
1200,1858.9,16.7,0.0,240.4,569.0,2541.0,3.0,1,
1300,1863.0,21.4,0.0,240.4,569.0,2541.0,3.0,1,
1400,1866.3,19.0,0.0,240.4,569.0,2541.0,3.0,1,
1500,1864.3,18.0,0.0,240.6,569.0,2541.0,3.0,1,
1600,1861.0,165.0,132.8,240.5,569.0,2541.0,3.0,1,
1700,1862.1,54.8,129.8,75.0,1203.0,5405.0,3.0,1,
1800,1852.6,212.3,110.4,66.6,626.0,2984.0,28.0,0,
1900,1885.7,40.5,115.2,66.5,609.0,2454.0,3.0,1,
2000,1844.0,77.7,110.1,42.0,526.0,2345.0,3.0,1,
2100,1885.9,82.4,110.4,37.4,526.0,2345.0,3.0,1,
2200,1847.8,22.0,107.5,40.5,525.0,2167.0,3.0,1,
2300,1854.0,20.4,104.6,66.9,525.0,2167.0,3.0,1,
2400,1862.5,21.3,104.6,66.6,525.0,2167.0,3.0,1,
2600,1857.2,18.8,104.6,240.1,525.0,2167.0,3.0,1,
2700,1862.1,20.1,104.7,240.0,525.0,2167.0,3.0,1,
2800,1860.5,18.1,104.7,240.0,525.0,2167.0,3.0,1,
2900,1861.4,17.0,104.7,240.4,525.0,2167.0,3.0,1,
3000,1863.6,17.3,104.7,240.5,525.0,2167.0,3.0,1,
3100,1863.2,17.3,104.7,240.5,525.0,2167.0,3.0,1,
3200,1864.3,16.1,104.7,240.4,525.0,2167.0,3.0,1,
3300,1847.9,28.1,83.7,240.3,1023.0,5119.0,4.0,1,
3400,1869.2,98.9,84.1,239.6,909.0,4148.0,3.0,1,
3600,1844.2,38.7,57.5,83.1,415.0,1809.0,3.0,1,
3700,1869.0,57.8,54.4,74.4,451.0,1921.0,3.0,1,
3800,1848.1,30.0,52.1,76.3,410.0,2165.0,6.0,1,
3900,1865.5,17.8,52.2,68.7,432.0,1717.0,5.0,1,
4000,1864.9,17.5,52.1,84.4,432.0,1717.0,5.0,1,
4100,1857.8,17.1,52.0,171.0,432.0,1717.0,5.0,1,
4200,1863.6,17.3,51.9,240.0,432.0,1717.0,5.0,1,
4300,1861.7,19.5,51.8,240.3,432.0,1717.0,5.0,1,
4400,1864.5,18.2,51.8,240.5,432.0,1717.0,5.0,1,
4600,1861.2,20.3,51.9,240.0,432.0,1717.0,5.0,1,
4700,1864.2,15.9,51.9,240.1,432.0,1717.0,5.0,1,
4800,1860.0,15.6,51.9,240.4,432.0,1717.0,5.0,1,
4900,1878.5,67.3,57.2,240.2,897.0,4560.0,4.0,1,
5000,1855.3,151.3,75.0,67.6,757.0,3475.0,2.0,0,
5100,1843.8,62.1,94.5,29.9,475.0,2348.0,4.0,1,
5200,1861.5,67.6,94.4,35.1,443.0,1946.0,3.0,1,
5300,1867.3,47.3,96.5,99.7,445.0,1770.0,3.0,1,
5400,1859.8,34.4,94.7,125.3,454.0,1819.0,3.0,1,
5600,1863.8,15.6,96.4,69.5,454.0,1819.0,3.0,1,
5700,1864.3,18.3,96.4,48.5,454.0,1819.0,3.0,1,
5800,1862.0,15.0,96.3,54.0,454.0,1819.0,3.0,1,
5900,1862.6,16.1,96.3,239.6,454.0,1819.0,3.0,1,
6000,1863.1,18.5,96.3,240.2,454.0,1819.0,3.0,1,
6100,1861.0,17.2,96.3,240.2,454.0,1819.0,3.0,1,
6200,1862.6,21.5,96.3,240.2,454.0,1819.0,3.0,1,
6300,1862.9,16.9,96.3,240.2,454.0,1819.0,3.0,1,
6400,1861.7,18.4,96.3,240.2,454.0,1819.0,3.0,1,
6600,1876.5,235.4,101.8,72.6,1681.0,4668.0,2.0,0,
6700,1848.5,128.7,111.3,29.2,1127.0,3110.0,2.0,0,
6800,1883.4,141.2,109.9,35.9,626.0,2697.0,3.0,1,
6900,1838.6,33.6,111.8,99.5,498.0,2120.0,3.0,1,
7000,1861.2,81.8,111.4,78.3,516.0,2383.0,3.0,1,
7100,1871.8,32.3,113.8,42.7,516.0,2383.0,3.0,1,
7200,1864.7,22.2,113.8,52.4,516.0,2383.0,3.0,1,
7300,1860.5,18.4,113.9,67.1,516.0,2383.0,3.0,1,
7400,1865.1,16.2,113.9,70.3,516.0,2383.0,3.0,1,
7600,1863.0,17.3,113.9,240.1,516.0,2383.0,3.0,1,
7700,1865.1,18.4,113.9,239.9,516.0,2383.0,3.0,1,
7800,1861.6,16.0,113.9,239.9,516.0,2383.0,3.0,1,
7900,1863.0,14.3,113.8,240.0,516.0,2383.0,3.0,1,
8000,1861.4,16.4,113.8,239.9,516.0,2383.0,3.0,1,
8100,1867.8,221.5,114.4,239.8,1488.0,5813.0,2.0,0,
8200,1872.4,64.7,126.7,37.5,1375.0,5858.0,3.0,1,
8300,1845.6,138.5,102.9,27.5,892.0,3982.0,3.0,1,
8400,1874.7,40.2,103.6,27.2,598.0,2501.0,3.0,1,
8600,1881.9,97.8,100.5,41.9,508.0,2033.0,2.0,0,
8700,1855.4,22.0,98.2,52.4,544.0,2276.0,3.0,1,
8800,1854.8,19.4,97.6,57.2,544.0,2276.0,3.0,1,
8900,1862.9,18.3,97.7,65.9,544.0,2276.0,3.0,1,
9000,1864.9,17.2,97.7,70.8,544.0,2276.0,3.0,1,
9100,1861.5,17.4,97.7,239.8,544.0,2276.0,3.0,1,
9200,1862.0,16.1,97.7,240.2,544.0,2276.0,3.0,1,
9300,1865.1,17.2,97.7,240.4,544.0,2276.0,3.0,1,
9400,1862.6,16.8,97.6,240.6,544.0,2276.0,3.0,1,
9600,1865.1,16.3,97.7,240.5,544.0,2276.0,3.0,1,
9700,1862.4,116.2,97.7,240.1,544.0,2276.0,3.0,1,
9800,1849.6,73.0,96.7,90.2,1441.0,6480.0,4.0,1,
9900,1868.2,119.1,97.2,39.3,757.0,3014.0,2.0,0,
10000,1864.8,39.4,93.2,30.2,589.0,2521.0,3.0,1,
10100,1854.6,69.0,91.2,40.6,585.0,2719.0,3.0,1,
10200,1864.1,38.7,94.3,48.3,619.0,2421.0,3.0,1,
10300,1838.9,22.7,90.4,55.2,648.0,2726.0,3.0,1,
10400,1860.4,16.6,90.5,66.4,648.0,2726.0,3.0,1,
10600,1862.0,17.2,90.5,165.3,648.0,2726.0,3.0,1,
10700,1863.3,17.4,90.5,240.0,648.0,2726.0,3.0,1,
10800,1862.0,16.6,90.5,240.2,648.0,2726.0,3.0,1,
10900,1859.0,15.4,90.5,240.1,648.0,2726.0,3.0,1,
11000,1862.2,17.6,90.5,240.0,648.0,2726.0,3.0,1,
11100,1862.8,17.4,90.6,240.2,648.0,2726.0,3.0,1,
11200,1863.9,18.4,90.6,240.2,648.0,2726.0,3.0,1,
11300,1860.2,23.5,90.6,240.1,648.0,2726.0,3.0,1,
11400,1849.9,179.4,56.0,240.0,1397.0,6126.0,4.0,1,
11600,1840.9,77.6,99.0,30.0,634.0,2750.0,3.0,1,
11700,1859.6,96.2,101.0,35.6,581.0,2581.0,3.0,1,
11800,1875.3,35.0,103.4,100.0,585.0,2427.0,3.0,1,
11900,1839.9,74.4,101.8,123.0,597.0,2496.0,3.0,1,
12000,1863.6,22.1,103.7,73.7,597.0,2496.0,3.0,1,
12100,1860.4,17.9,103.7,71.7,597.0,2496.0,3.0,1,
12200,1861.3,18.1,103.6,52.7,597.0,2496.0,3.0,1,
12300,1866.5,14.4,103.6,57.4,597.0,2496.0,3.0,1,
12400,1862.2,19.4,103.6,240.2,597.0,2496.0,3.0,1,
12600,1860.8,17.0,103.6,240.2,597.0,2496.0,3.0,1,
12700,1860.2,16.3,103.6,240.4,597.0,2496.0,3.0,1,
12800,1861.4,14.5,103.6,240.6,597.0,2496.0,3.0,1,
12900,1862.2,17.9,103.6,240.6,597.0,2496.0,3.0,1,
13000,1854.1,167.7,110.3,240.2,1350.0,5208.0,2.0,0,
13100,1875.1,238.5,115.1,85.6,1130.0,4091.0,2.0,0,
13200,1853.2,164.7,128.4,37.0,1769.0,3915.0,28.0,0,
13300,1876.0,104.8,132.6,81.4,1769.0,3915.0,28.0,0,
13400,1860.0,26.9,129.7,101.0,705.0,2767.0,3.0,1,
13600,1876.4,27.5,131.6,68.3,705.0,2767.0,3.0,1,
13700,1857.9,19.3,131.7,70.5,705.0,2767.0,3.0,1,
13800,1859.0,16.1,131.8,66.3,705.0,2767.0,3.0,1,
13900,1861.2,17.5,131.8,57.2,705.0,2767.0,3.0,1,
14000,1860.2,16.9,131.8,239.2,705.0,2767.0,3.0,1,
14100,1856.3,15.9,131.9,240.1,705.0,2767.0,3.0,1,
14200,1860.3,18.7,131.9,240.3,705.0,2767.0,3.0,1,
14300,1860.3,15.5,131.9,240.1,705.0,2767.0,3.0,1,
14400,1861.0,15.8,131.9,240.0,705.0,2767.0,3.0,1,
14600,1865.6,199.7,134.5,240.2,1282.0,4830.0,2.0,0,
14700,1886.3,220.8,143.3,40.8,1246.0,5357.0,3.0,1,
14800,1838.1,82.0,148.4,30.1,690.0,3005.0,4.0,1,
14900,1864.3,53.5,139.3,29.2,607.0,2406.0,3.0,1,rest_end
15000,1845.4,73.8,136.9,29.3,632.0,2765.0,3.0,1,
15100,1866.1,104.0,140.0,37.0,632.0,2765.0,3.0,1,
15200,1871.8,26.2,138.6,69.0,555.0,2328.0,3.0,1,
15300,1857.5,19.5,138.5,68.4,555.0,2328.0,3.0,1,
15400,1857.3,19.9,138.5,66.0,555.0,2328.0,3.0,1,
15600,1861.9,17.2,138.5,240.0,555.0,2328.0,3.0,1,
15700,1861.0,19.4,138.5,240.5,555.0,2328.0,3.0,1,
15800,1863.8,16.0,138.6,240.3,555.0,2328.0,3.0,1,
15900,1861.0,16.9,138.6,240.2,555.0,2328.0,3.0,1,
16000,1862.8,16.3,138.6,240.2,555.0,2328.0,3.0,1,
16100,1862.5,16.3,138.6,240.1,555.0,2328.0,3.0,1,
16200,1883.4,184.3,140.3,239.9,1489.0,6090.0,2.0,0,
16300,1824.8,252.6,150.2,65.4,1433.0,5075.0,2.0,0,
16400,1866.5,195.7,140.8,38.4,478.0,2302.0,2.0,0,
16600,1847.3,80.5,149.3,41.2,584.0,2565.0,3.0,1,
16700,1871.4,51.3,150.3,41.3,584.0,2565.0,3.0,1,
16800,1840.7,21.4,148.3,85.6,606.0,2528.0,3.0,1,
16900,1862.8,18.8,148.3,66.2,606.0,2528.0,3.0,1,
17000,1859.1,19.9,148.3,56.6,606.0,2528.0,3.0,1,
17100,1859.6,16.8,148.3,116.7,606.0,2528.0,3.0,1,
17200,1863.1,18.1,148.3,240.0,606.0,2528.0,3.0,1,
17300,1862.0,19.9,148.3,240.3,606.0,2528.0,3.0,1,
17400,1861.0,19.4,148.3,240.5,606.0,2528.0,3.0,1,
17600,1863.0,15.6,148.3,240.2,606.0,2528.0,3.0,1,
17700,1860.6,18.2,148.4,240.0,606.0,2528.0,3.0,1,
17800,1861.4,20.4,148.4,239.8,1513.0,7150.0,4.0,1,
17900,1839.6,152.8,132.8,239.6,1643.0,7401.0,4.0,1,
18000,1895.7,217.4,96.8,124.4,482.0,2407.0,2.0,0,
18100,1847.6,150.8,105.5,37.4,1814.0,3689.0,3.0,1,
18200,1845.1,95.1,111.2,36.0,648.0,2908.0,3.0,1,
18300,1875.2,86.1,115.2,140.2,1088.0,2853.0,3.0,1,
18400,1838.8,28.7,117.6,145.8,613.0,2687.0,3.0,1,
18600,1861.5,17.2,117.6,92.0,613.0,2687.0,3.0,1,
18700,1857.5,17.8,117.6,149.3,613.0,2687.0,3.0,1,
18800,1863.0,17.1,117.5,239.8,613.0,2687.0,3.0,1,
18900,1859.5,17.9,117.5,240.1,613.0,2687.0,3.0,1,
19000,1858.7,14.5,117.5,240.2,613.0,2687.0,3.0,1,
19100,1861.1,16.4,117.5,240.3,613.0,2687.0,3.0,1,
19200,1861.2,19.2,117.5,240.7,613.0,2687.0,3.0,1,
19300,1863.4,17.8,117.5,240.7,613.0,2687.0,3.0,1,
19400,1862.1,25.1,117.5,240.5,613.0,2687.0,3.0,1,
19600,1872.9,227.6,124.4,74.4,1350.0,3391.0,2.0,0,
19700,1848.8,66.1,135.4,34.5,656.0,2811.0,3.0,1,
19800,1862.6,111.5,121.5,56.6,678.0,3172.0,3.0,1,
19900,1874.5,41.2,119.2,100.5,668.0,2696.0,3.0,1,
20000,1843.8,68.9,111.8,101.3,698.0,3260.0,3.0,1,
20100,1866.2,21.7,113.6,67.0,698.0,3260.0,3.0,1,
20200,1859.0,21.9,113.7,53.9,698.0,3260.0,3.0,1,
20300,1859.1,16.8,113.7,49.6,698.0,3260.0,3.0,1,
20400,1864.0,16.7,113.6,56.7,698.0,3260.0,3.0,1,
20600,1863.1,18.8,113.7,240.2,698.0,3260.0,3.0,1,
20700,1860.4,14.0,113.7,240.2,698.0,3260.0,3.0,1,
20800,1859.6,16.2,113.7,239.9,698.0,3260.0,3.0,1,
20900,1860.6,17.1,113.7,239.6,698.0,3260.0,3.0,1,
21000,1862.7,16.6,113.7,240.1,698.0,3260.0,3.0,1,
21100,1857.3,103.2,118.8,239.8,1776.0,6536.0,2.0,0,
21200,1873.5,246.6,114.9,41.4,1093.0,3967.0,2.0,0,
21300,1860.5,103.0,108.4,39.0,740.0,2854.0,4.0,1,
21400,1872.1,95.9,111.7,101.8,740.0,2854.0,4.0,1,
21600,1853.5,103.6,112.4,101.6,650.0,2798.0,3.0,1,
21700,1875.9,25.0,114.4,69.7,650.0,2798.0,3.0,1,
21800,1857.2,18.2,114.4,67.8,650.0,2798.0,3.0,1,
21900,1858.8,18.5,114.3,47.5,650.0,2798.0,3.0,1,
22000,1861.2,18.4,114.4,50.8,650.0,2798.0,3.0,1,
22100,1862.2,16.1,114.4,239.6,650.0,2798.0,3.0,1,
22200,1861.3,19.7,114.4,240.2,650.0,2798.0,3.0,1,
22300,1861.6,18.5,114.4,240.4,650.0,2798.0,3.0,1,
22400,1861.6,15.6,114.4,240.6,650.0,2798.0,3.0,1,
22600,1862.4,15.7,114.4,240.5,650.0,2798.0,3.0,1,
22700,1901.8,251.0,120.6,239.7,1443.0,5486.0,2.0,0,
22800,1842.2,252.8,135.9,35.5,1316.0,4882.0,2.0,0,
22900,1837.2,135.8,138.8,34.7,1213.0,3346.0,2.0,0,
23000,1879.5,48.8,140.1,93.5,721.0,3097.0,3.0,1,
23100,1840.8,35.3,137.0,94.2,720.0,3128.0,3.0,1,
23200,1887.4,161.6,138.3,65.8,579.0,3032.0,3.0,1,
23300,1855.5,39.3,143.1,52.1,476.0,2453.0,2.0,0,
23400,1857.9,18.1,143.0,39.1,476.0,2453.0,2.0,0,
23600,1860.0,16.3,143.0,39.0,476.0,2453.0,2.0,0,
23700,1861.3,17.3,143.0,167.0,476.0,2453.0,2.0,0,
23800,1859.2,17.3,143.0,240.6,476.0,2453.0,2.0,0,
23900,1860.5,15.7,143.0,240.4,476.0,2453.0,2.0,0,
24000,1860.1,17.5,143.0,240.4,476.0,2453.0,2.0,0,
24100,1860.9,15.8,143.1,240.5,476.0,2453.0,2.0,0,
24200,1860.2,17.7,143.1,240.2,476.0,2453.0,2.0,0,
24300,1862.1,139.9,142.6,239.9,1595.0,7023.0,2.0,0,
24400,1856.7,48.7,129.5,72.0,1108.0,5188.0,4.0,1,
24600,1883.8,222.3,103.3,40.9,1690.0,3565.0,3.0,1,
24700,1834.2,94.4,124.3,41.6,693.0,3103.0,3.0,1,
24800,1873.5,58.7,127.3,100.6,662.0,2789.0,3.0,1,
24900,1854.3,26.2,116.1,151.8,768.0,2992.0,3.0,1,
25000,1864.8,18.6,116.2,93.6,768.0,2992.0,3.0,1,
25100,1856.4,16.7,116.2,56.4,768.0,2992.0,3.0,1,
25200,1858.9,16.3,116.2,123.1,768.0,2992.0,3.0,1,
25300,1859.4,17.1,116.2,239.7,768.0,2992.0,3.0,1,
25400,1858.9,17.8,116.2,240.1,768.0,2992.0,3.0,1,
25600,1861.2,15.5,116.2,240.5,768.0,2992.0,3.0,1,
25700,1861.8,18.3,116.2,240.3,768.0,2992.0,3.0,1,
25800,1863.0,18.2,116.3,240.1,768.0,2992.0,3.0,1,
25900,1858.9,34.8,116.3,240.0,1402.0,7305.0,4.0,1,
26000,1863.5,200.1,107.8,239.9,1477.0,6827.0,4.0,1,
26100,1865.0,168.6,125.8,75.5,470.0,2329.0,2.0,0,
26200,1847.5,72.9,129.7,30.2,664.0,3106.0,3.0,1,
26300,1854.5,113.8,107.9,35.8,665.0,2901.0,4.0,1,
26400,1877.5,54.6,111.0,107.6,757.0,3369.0,3.0,1,
26600,1850.2,19.7,109.7,68.3,757.0,3369.0,3.0,1,
26700,1861.1,17.5,109.7,72.6,757.0,3369.0,3.0,1,
26800,1855.2,13.9,109.7,135.4,757.0,3369.0,3.0,1,
26900,1857.8,16.3,109.7,239.6,757.0,3369.0,3.0,1,
27000,1860.5,15.4,109.6,240.1,757.0,3369.0,3.0,1,
27100,1858.2,16.7,109.6,240.3,757.0,3369.0,3.0,1,
27200,1861.5,16.9,109.6,240.4,757.0,3369.0,3.0,1,
27300,1860.2,15.4,109.6,240.4,757.0,3369.0,3.0,1,
27400,1861.2,17.1,109.6,240.4,757.0,3369.0,3.0,1,
27600,1838.4,181.7,110.0,240.3,1446.0,5141.0,2.0,0,
27700,1885.2,206.6,117.5,69.7,1700.0,3628.0,2.0,0,
27800,1841.5,104.8,116.7,30.2,625.0,3317.0,3.0,1,
27900,1888.4,55.4,112.0,71.3,625.0,3317.0,3.0,1,
28000,1845.5,33.7,105.5,99.4,619.0,3260.0,3.0,1,
28100,1854.6,71.8,106.4,73.6,609.0,3190.0,3.0,1,
28200,1868.0,21.6,108.1,57.6,609.0,3190.0,3.0,1,
28300,1860.4,20.0,108.1,51.4,609.0,3190.0,3.0,1,
28400,1855.1,18.1,108.1,40.0,609.0,3190.0,3.0,1,
28600,1863.3,20.6,108.1,239.9,609.0,3190.0,3.0,1,
28700,1863.0,16.9,108.1,240.2,609.0,3190.0,3.0,1,
28800,1863.2,16.2,108.1,240.0,609.0,3190.0,3.0,1,
28900,1860.8,15.7,108.1,239.7,609.0,3190.0,3.0,1,
29000,1861.7,17.1,108.1,239.7,609.0,3190.0,3.0,1,
29100,1861.6,14.6,108.1,240.0,609.0,3190.0,3.0,1,
29200,1877.9,244.5,116.5,239.4,1443.0,5473.0,2.0,0,
29300,1863.8,297.0,127.9,34.3,1962.0,3873.0,2.0,0,
29400,1848.6,196.1,141.0,39.0,463.0,2244.0,3.0,1,
29600,1842.1,168.2,167.4,226.6,386.0,1924.0,3.0,1,
29700,1881.5,157.6,173.4,260.8,748.0,2814.0,2.0,0,
29800,1857.9,25.0,174.9,226.6,748.0,2814.0,2.0,0,
29900,1858.6,19.2,174.9,94.6,748.0,2814.0,2.0,0,
30000,1856.7,16.3,174.9,50.9,748.0,2814.0,2.0,0,
30100,1858.7,16.3,175.0,86.5,748.0,2814.0,2.0,0,
30200,1862.4,18.0,174.9,239.9,748.0,2814.0,2.0,0,
30300,1861.3,16.5,175.0,240.5,748.0,2814.0,2.0,0,
30400,1860.4,17.0,175.0,240.4,748.0,2814.0,2.0,0,
30600,1859.2,16.8,175.1,240.3,748.0,2814.0,2.0,0,
30700,1863.6,17.5,175.1,240.1,748.0,2814.0,2.0,0,
30800,1867.6,183.0,176.9,239.5,1561.0,6007.0,2.0,0,
30900,1845.3,233.3,182.4,37.7,641.0,2755.0,2.0,0,
31000,1874.2,240.3,170.1,93.9,627.0,2655.0,3.0,1,
31100,1864.7,194.6,174.6,195.5,1706.0,3834.0,3.0,1,
31200,1864.0,187.5,163.3,229.6,654.0,3068.0,3.0,1,
31300,1864.1,230.3,167.4,197.3,1784.0,3976.0,2.0,0,
31400,1849.5,38.9,173.9,149.6,409.0,2182.0,3.0,1,
31600,1859.5,18.2,173.8,135.3,409.0,2182.0,3.0,1,
31700,1859.7,17.9,173.8,175.9,409.0,2182.0,3.0,1,
31800,1860.5,17.5,173.9,237.8,409.0,2182.0,3.0,1,
31900,1861.3,17.4,173.8,240.1,409.0,2182.0,3.0,1,
32000,1861.1,19.4,173.8,240.1,409.0,2182.0,3.0,1,
32100,1861.2,18.8,173.8,240.1,409.0,2182.0,3.0,1,
32200,1861.9,18.9,173.8,240.1,409.0,2182.0,3.0,1,
32300,1861.0,17.2,173.8,240.2,409.0,2182.0,3.0,1,
32400,1856.7,46.6,172.2,240.3,1565.0,7170.0,4.0,1,
32600,1881.0,79.3,148.4,71.0,679.0,2595.0,2.0,0,
32700,1833.0,47.1,135.0,53.7,626.0,3298.0,3.0,1,
32800,1867.6,77.3,121.0,47.5,626.0,3298.0,3.0,1,
32900,1866.4,27.3,108.4,67.2,655.0,3190.0,3.0,1,
33000,1842.9,23.4,80.8,66.7,640.0,3366.0,3.0,1,
33100,1862.0,19.5,80.8,65.8,640.0,3366.0,3.0,1,
33200,1859.8,20.2,80.8,101.8,640.0,3366.0,3.0,1,
33300,1863.4,19.4,80.8,219.6,640.0,3366.0,3.0,1,
33400,1862.0,16.4,80.8,240.2,640.0,3366.0,3.0,1,
33600,1859.2,15.9,80.8,240.2,640.0,3366.0,3.0,1,
33700,1861.6,18.3,80.8,240.2,640.0,3366.0,3.0,1,
33800,1861.2,17.5,80.8,240.4,640.0,3366.0,3.0,1,
33900,1864.0,21.7,80.7,240.4,640.0,3366.0,3.0,1,
34000,1871.7,53.4,80.8,240.1,1211.0,6983.0,5.0,1,
34100,1844.6,192.6,95.3,205.5,883.0,3345.0,2.0,0,
34200,1866.5,120.7,98.8,45.5,1705.0,3694.0,2.0,0,
34300,1844.5,88.6,105.3,35.8,610.0,3115.0,3.0,1,
34400,1887.1,48.4,106.8,94.6,688.0,3351.0,3.0,1,
34600,1863.3,43.3,107.8,87.4,687.0,3070.0,3.0,1,
34700,1861.6,20.4,107.5,67.8,687.0,3070.0,3.0,1,
34800,1860.0,21.9,107.5,54.4,687.0,3070.0,3.0,1,
34900,1862.2,17.7,107.5,41.5,687.0,3070.0,3.0,1,
35000,1863.5,19.6,107.5,71.9,687.0,3070.0,3.0,1,
35100,1856.8,19.5,107.6,240.1,687.0,3070.0,3.0,1,
35200,1864.7,23.2,107.6,240.0,687.0,3070.0,3.0,1,
35300,1860.8,19.9,107.6,240.2,687.0,3070.0,3.0,1,
35400,1858.0,19.0,107.6,240.2,687.0,3070.0,3.0,1,
35600,1864.7,98.0,107.7,240.1,1199.0,6963.0,5.0,1,
35700,1868.2,235.7,113.4,237.9,1076.0,3796.0,2.0,0,
35800,1864.3,115.7,122.4,29.8,1989.0,3797.0,2.0,0,
35900,1861.9,97.2,114.3,35.6,574.0,3184.0,3.0,1,
36000,1861.7,39.9,115.0,124.2,696.0,3191.0,3.0,1,
36100,1842.6,94.3,114.8,143.4,648.0,3065.0,3.0,1,
36200,1870.2,67.1,116.9,99.5,648.0,3065.0,3.0,1,
36300,1870.8,20.8,116.8,75.9,648.0,3065.0,3.0,1,
36400,1859.4,16.8,116.8,66.2,648.0,3065.0,3.0,1,
36600,1861.8,21.0,116.8,66.5,648.0,3065.0,3.0,1,
36700,1862.7,17.6,116.8,240.1,648.0,3065.0,3.0,1,
36800,1861.0,19.5,116.8,240.3,648.0,3065.0,3.0,1,
36900,1861.0,18.0,116.8,240.3,648.0,3065.0,3.0,1,
37000,1860.3,16.9,116.8,240.3,648.0,3065.0,3.0,1,
37100,1858.5,19.3,116.7,240.1,648.0,3065.0,3.0,1,
37200,1861.6,130.7,116.8,239.9,648.0,3065.0,3.0,1,
37300,1889.7,222.5,120.8,214.3,1301.0,4904.0,2.0,0,
37400,1840.0,142.0,133.3,35.6,1756.0,3444.0,2.0,0,
37600,1855.0,38.3,130.4,124.9,666.0,3151.0,3.0,1,
37700,1865.1,106.0,131.7,123.7,671.0,3424.0,3.0,1,
37800,1875.7,65.4,133.6,100.0,671.0,3424.0,3.0,1,
37900,1850.6,20.4,131.8,124.3,665.0,2995.0,3.0,1,
38000,1858.0,19.4,131.8,79.0,665.0,2995.0,3.0,1,
38100,1856.7,18.3,131.8,102.8,665.0,2995.0,3.0,1,
38200,1860.5,19.0,131.8,163.8,665.0,2995.0,3.0,1,
38300,1859.5,18.9,131.8,240.3,665.0,2995.0,3.0,1,
38400,1856.7,18.3,131.8,240.5,665.0,2995.0,3.0,1,
38600,1859.7,16.1,131.9,240.3,665.0,2995.0,3.0,1,
38700,1858.3,19.2,131.8,240.3,665.0,2995.0,3.0,1,
38800,1862.4,34.9,131.8,240.2,665.0,2995.0,3.0,1,
38900,1860.1,279.3,137.3,238.5,1390.0,5371.0,2.0,0,
39000,1846.6,259.2,147.4,77.2,745.0,2757.0,2.0,0,
39100,1896.6,168.8,142.9,102.0,994.0,3255.0,2.0,0,
39200,1843.7,64.2,143.8,165.5,640.0,3057.0,3.0,1,
39300,1852.2,82.4,145.4,158.3,636.0,3177.0,3.0,1,
39400,1868.0,39.4,142.9,104.4,605.0,2961.0,3.0,1,
39600,1859.9,19.6,141.2,57.0,605.0,2961.0,3.0,1,
39700,1859.0,20.0,141.2,70.7,605.0,2961.0,3.0,1,
39800,1860.0,18.4,141.2,169.0,605.0,2961.0,3.0,1,
39900,1861.5,20.3,141.3,240.0,605.0,2961.0,3.0,1,
40000,1860.1,18.9,141.2,240.4,605.0,2961.0,3.0,1,
40100,1861.8,18.6,141.2,240.4,605.0,2961.0,3.0,1,
40200,1860.1,18.8,141.2,240.4,605.0,2961.0,3.0,1,
40300,1862.0,21.8,141.2,240.4,605.0,2961.0,3.0,1,
40400,1859.0,19.4,141.2,240.2,605.0,2961.0,3.0,1,
40600,1845.4,163.9,99.3,196.9,868.0,3341.0,2.0,0,
40700,1863.2,135.0,98.6,66.5,1572.0,3551.0,3.0,1,
40800,1837.7,103.3,97.0,35.6,618.0,3321.0,3.0,1,
40900,1876.5,103.2,101.3,92.5,618.0,3321.0,3.0,1,
41000,1860.1,54.3,99.7,122.2,618.0,3284.0,3.0,1,
41100,1851.3,27.8,102.4,86.5,614.0,3199.0,3.0,1,
41200,1860.6,20.5,102.4,76.9,614.0,3199.0,3.0,1,
41300,1860.8,22.6,102.4,86.5,614.0,3199.0,3.0,1,
41400,1858.8,17.6,102.5,74.6,614.0,3199.0,3.0,1,
41600,1858.4,17.4,102.4,240.2,614.0,3199.0,3.0,1,
41700,1858.0,19.7,102.4,240.0,614.0,3199.0,3.0,1,
41800,1859.0,19.7,102.4,240.2,614.0,3199.0,3.0,1,
41900,1862.5,16.2,102.4,240.1,614.0,3199.0,3.0,1,
42000,1861.8,17.7,102.4,240.1,614.0,3199.0,3.0,1,
42100,1847.3,74.2,102.9,240.1,1508.0,7435.0,4.0,1,
42200,1864.2,214.0,115.6,134.8,1169.0,4205.0,2.0,0,
42300,1864.4,113.3,125.2,35.7,1875.0,3520.0,2.0,0,
42400,1865.3,113.3,115.5,37.1,632.0,3496.0,4.0,1,
42600,1834.5,81.4,113.9,123.8,629.0,3542.0,3.0,1,
42700,1872.6,38.7,114.9,91.2,629.0,3542.0,3.0,1,
42800,1863.3,17.0,114.9,77.1,629.0,3542.0,3.0,1,
42900,1858.3,19.2,114.9,54.1,629.0,3542.0,3.0,1,
43000,1857.5,18.9,114.8,39.8,629.0,3542.0,3.0,1,
43100,1865.4,19.1,114.8,122.6,629.0,3542.0,3.0,1,
43200,1862.5,16.8,114.8,240.2,629.0,3542.0,3.0,1,
43300,1860.3,16.8,114.8,240.1,629.0,3542.0,3.0,1,
43400,1859.0,17.6,114.8,240.0,629.0,3542.0,3.0,1,
43600,1863.4,17.7,114.7,239.9,629.0,3542.0,3.0,1,
43700,1850.4,173.0,114.8,240.3,1522.0,8094.0,5.0,1,
43800,1904.3,217.4,119.2,157.0,1355.0,5253.0,2.0,0,
43900,1836.5,195.9,136.6,30.0,1781.0,3816.0,28.0,0,
44000,1854.5,88.5,138.2,85.8,660.0,3605.0,4.0,1,
44100,1869.9,53.2,135.8,124.7,637.0,3330.0,3.0,1,
44200,1843.8,95.3,135.8,103.6,602.0,3542.0,3.0,1,
44300,1888.8,40.9,136.0,91.8,619.0,3213.0,3.0,1,
44400,1846.3,20.4,135.7,68.7,619.0,3213.0,3.0,1,
44600,1856.2,19.3,135.8,39.2,619.0,3213.0,3.0,1,
44700,1862.7,20.5,135.8,140.2,619.0,3213.0,3.0,1,
44800,1862.6,19.0,135.8,240.0,619.0,3213.0,3.0,1,
44900,1858.9,15.3,135.8,240.1,619.0,3213.0,3.0,1,
45000,1860.9,17.3,135.8,240.2,619.0,3213.0,3.0,1,
45100,1863.9,18.5,135.8,240.2,619.0,3213.0,3.0,1,
45200,1857.6,19.4,135.8,240.4,619.0,3213.0,3.0,1,
45300,1863.1,115.0,135.8,240.3,619.0,3213.0,3.0,1,
45400,1867.4,249.0,139.3,130.7,1385.0,5179.0,2.0,0,
45600,1881.9,223.9,137.3,157.3,1160.0,3441.0,2.0,0,
45700,1861.2,109.0,155.7,227.4,1986.0,4461.0,2.0,0,
45800,1861.3,156.2,157.3,229.4,640.0,3428.0,4.0,1,
45900,1861.8,125.7,165.7,188.5,1722.0,4072.0,5.0,1,
46000,1858.5,24.3,171.1,129.9,1722.0,4072.0,5.0,1,
46100,1863.0,19.6,171.1,92.2,1722.0,4072.0,5.0,1,
46200,1857.8,19.9,171.1,132.6,1722.0,4072.0,5.0,1,
46300,1858.5,17.9,171.1,172.1,1722.0,4072.0,5.0,1,
46400,1860.8,16.6,171.1,239.6,1722.0,4072.0,5.0,1,
46600,1857.3,19.6,171.1,240.5,1722.0,4072.0,5.0,1,
46700,1861.7,14.7,171.1,240.9,1722.0,4072.0,5.0,1,
46800,1863.4,16.3,171.0,240.4,1722.0,4072.0,5.0,1,
46900,1861.0,26.4,171.0,239.9,1722.0,4072.0,5.0,1,
47000,1853.7,61.7,165.9,239.7,1557.0,7332.0,4.0,1,
47100,1867.5,148.3,140.1,92.1,1047.0,5199.0,4.0,1,
47200,1870.4,186.7,137.9,66.3,1182.0,3325.0,2.0,0,
47300,1835.9,130.7,144.4,35.9,684.0,3910.0,3.0,1,
47400,1866.1,80.2,138.8,92.8,684.0,3910.0,3.0,1,
47600,1845.1,21.1,117.2,136.2,678.0,3687.0,3.0,1,
47700,1860.8,19.5,117.2,89.0,678.0,3687.0,3.0,1,
47800,1856.9,18.9,117.2,92.6,678.0,3687.0,3.0,1,
47900,1856.6,15.2,117.2,133.0,678.0,3687.0,3.0,1,
48000,1861.4,17.2,117.2,240.3,678.0,3687.0,3.0,1,
48100,1860.7,18.4,117.2,240.3,678.0,3687.0,3.0,1,
48200,1863.0,13.9,117.2,240.5,678.0,3687.0,3.0,1,
48300,1861.0,16.5,117.2,240.7,678.0,3687.0,3.0,1,
48400,1860.1,17.1,117.2,240.7,678.0,3687.0,3.0,1,
48600,1852.8,58.4,117.3,239.9,1610.0,7420.0,3.0,1,
48700,1847.8,208.9,124.3,102.4,909.0,3326.0,2.0,0,
48800,1879.8,109.5,131.3,46.5,1281.0,3333.0,2.0,0,
48900,1841.6,113.0,107.8,37.6,644.0,3425.0,3.0,1,
49000,1887.0,85.3,106.8,80.2,644.0,3425.0,3.0,1,
49100,1844.0,53.6,105.2,102.0,629.0,3237.0,3.0,1,
49200,1846.7,24.5,105.1,93.6,630.0,3481.0,3.0,1,
49300,1860.2,17.8,105.1,71.3,630.0,3481.0,3.0,1,
49400,1860.2,18.4,105.0,68.8,630.0,3481.0,3.0,1,
49600,1858.7,17.1,105.1,239.7,630.0,3481.0,3.0,1,
49700,1857.2,16.6,105.1,240.0,630.0,3481.0,3.0,1,
49800,1858.8,16.1,105.0,239.7,630.0,3481.0,3.0,1,
49900,1861.5,17.6,105.1,239.8,630.0,3481.0,3.0,1,
50000,1861.0,17.9,105.0,240.4,630.0,3481.0,3.0,1,
50100,1860.4,15.4,105.0,240.2,630.0,3481.0,3.0,1,
50200,1847.9,55.9,104.9,239.9,1425.0,7292.0,4.0,1,
50300,1872.6,229.2,114.2,150.9,1139.0,4078.0,2.0,0,
50400,1871.6,189.7,113.4,35.3,1907.0,4118.0,2.0,0,
50600,1866.2,54.8,117.3,98.7,688.0,3594.0,3.0,1,
50700,1857.2,54.8,115.9,149.0,634.0,3476.0,3.0,1,
50800,1850.7,26.8,116.1,114.6,636.0,3690.0,3.0,1,
50900,1858.5,18.6,116.1,68.3,636.0,3690.0,3.0,1,
51000,1858.2,16.3,116.1,67.0,636.0,3690.0,3.0,1,
51100,1857.0,16.3,116.1,67.3,636.0,3690.0,3.0,1,
51200,1861.3,15.6,116.1,239.7,636.0,3690.0,3.0,1,
51300,1860.3,15.2,116.0,240.4,636.0,3690.0,3.0,1,
51400,1857.8,17.4,116.0,240.3,636.0,3690.0,3.0,1,
51600,1859.6,16.4,116.0,240.5,636.0,3690.0,3.0,1,
51700,1861.7,16.6,116.0,240.7,636.0,3690.0,3.0,1,
51800,1872.0,48.5,116.0,240.7,1413.0,7595.0,4.0,1,
51900,1836.5,179.6,117.2,229.7,1247.0,4248.0,2.0,0,
52000,1877.2,251.0,112.9,30.0,2144.0,4234.0,2.0,0,
52100,1843.4,102.7,116.5,30.1,582.0,3393.0,4.0,1,
52200,1883.3,87.1,119.5,94.4,582.0,3393.0,4.0,1,
52300,1856.0,65.3,118.6,157.2,588.0,3668.0,3.0,1,
52400,1844.9,43.1,120.7,123.3,621.0,3653.0,3.0,1,
52600,1858.2,20.2,120.2,54.6,621.0,3653.0,3.0,1,
52700,1855.5,15.6,120.3,42.8,621.0,3653.0,3.0,1,
52800,1860.1,15.8,120.3,70.7,621.0,3653.0,3.0,1,
52900,1860.4,15.5,120.3,240.3,621.0,3653.0,3.0,1,
53000,1857.5,15.1,120.3,240.4,621.0,3653.0,3.0,1,
53100,1860.4,19.3,120.3,240.4,621.0,3653.0,3.0,1,
53200,1862.8,18.3,120.3,240.5,621.0,3653.0,3.0,1,
53300,1859.2,19.0,120.4,240.4,621.0,3653.0,3.0,1,
53400,1860.4,42.4,120.4,240.1,1417.0,7430.0,5.0,1,
53600,1886.2,350.3,134.3,29.8,2285.0,4407.0,2.0,0,
53700,1844.3,111.3,143.1,30.2,665.0,3824.0,4.0,1,
53800,1867.5,54.7,143.1,94.3,656.0,3376.0,3.0,1,
53900,1839.8,43.7,140.6,117.7,637.0,3712.0,3.0,1,
54000,1861.3,68.8,141.6,99.6,583.0,3668.0,3.0,1,
54100,1872.6,21.0,141.5,82.7,583.0,3668.0,3.0,1,
54200,1858.4,18.9,141.4,45.8,583.0,3668.0,3.0,1,
54300,1855.9,19.5,141.4,37.6,583.0,3668.0,3.0,1,
54400,1858.1,18.9,141.5,52.5,583.0,3668.0,3.0,1,
54600,1860.1,17.7,141.5,240.2,583.0,3668.0,3.0,1,
54700,1861.4,15.7,141.5,240.0,583.0,3668.0,3.0,1,
54800,1860.2,15.5,141.5,240.2,583.0,3668.0,3.0,1,
54900,1860.6,19.6,141.4,240.2,583.0,3668.0,3.0,1,
55000,1863.6,48.2,141.4,240.3,583.0,3668.0,3.0,1,
55100,1882.1,209.4,146.6,239.1,1529.0,5685.0,2.0,0,
55200,1854.5,273.1,147.0,35.5,2184.0,4219.0,2.0,0,
55300,1843.7,145.5,138.6,37.3,1368.0,3310.0,2.0,0,
55400,1872.4,258.6,144.3,157.7,1340.0,3430.0,2.0,0,
55600,1878.9,167.8,163.2,100.0,711.0,3798.0,4.0,1,
55700,1856.8,28.0,165.5,123.0,416.0,2485.0,5.0,1,
55800,1863.2,22.4,165.4,98.7,416.0,2485.0,5.0,1,
55900,1859.0,17.3,165.4,34.8,416.0,2485.0,5.0,1,
56000,1857.2,17.0,165.4,41.6,416.0,2485.0,5.0,1,
56100,1861.8,15.7,165.4,239.3,416.0,2485.0,5.0,1,
56200,1861.0,18.6,165.4,240.2,416.0,2485.0,5.0,1,
56300,1859.6,18.4,165.4,240.3,416.0,2485.0,5.0,1,
56400,1862.7,16.3,165.4,240.1,416.0,2485.0,5.0,1,
56600,1857.8,27.5,165.4,240.1,416.0,2485.0,5.0,1,
56700,1867.5,228.2,167.4,226.4,1618.0,6083.0,2.0,0,
56800,1845.0,331.4,175.0,35.7,2193.0,5535.0,2.0,0,
56900,1885.9,243.3,168.5,56.6,389.0,2557.0,3.0,1,
57000,1870.7,198.2,174.8,195.9,1764.0,4089.0,6.0,1,
57100,1825.2,97.4,171.9,225.9,636.0,3645.0,4.0,1,
57200,1866.1,64.3,172.4,202.9,635.0,3562.0,3.0,1,
57300,1868.4,23.4,168.7,189.2,632.0,3696.0,3.0,1,
57400,1860.2,15.9,168.7,151.9,632.0,3696.0,3.0,1,
57600,1855.4,17.3,168.7,72.4,632.0,3696.0,3.0,1,
57700,1859.6,16.7,168.8,239.7,632.0,3696.0,3.0,1,
57800,1859.7,15.5,168.8,240.2,632.0,3696.0,3.0,1,
57900,1861.0,19.4,168.7,240.1,632.0,3696.0,3.0,1,
58000,1861.6,19.2,168.7,240.1,632.0,3696.0,3.0,1,
58100,1857.5,15.9,168.8,240.4,632.0,3696.0,3.0,1,
58200,1859.1,13.8,168.8,240.6,632.0,3696.0,3.0,1,
58300,1896.2,223.6,168.9,240.0,1528.0,5905.0,2.0,0,
58400,1823.7,255.6,178.3,50.0,2220.0,5196.0,2.0,0,
58600,1861.9,232.5,171.4,196.2,2031.0,4404.0,2.0,0,
58700,1833.3,198.9,168.0,226.9,704.0,3582.0,4.0,1,
58800,1892.3,243.4,175.8,198.1,1440.0,3689.0,5.0,1,
58900,1840.9,41.9,187.6,183.5,1887.0,4245.0,5.0,1,
59000,1859.9,17.3,187.6,124.9,1887.0,4245.0,5.0,1,
59100,1859.3,20.1,187.6,136.8,1887.0,4245.0,5.0,1,
59200,1857.2,18.7,187.6,165.7,1887.0,4245.0,5.0,1,
59300,1859.6,17.4,187.6,195.8,1887.0,4245.0,5.0,1,
59400,1859.1,17.5,187.6,240.1,1887.0,4245.0,5.0,1,
59600,1860.9,17.5,187.5,240.3,1887.0,4245.0,5.0,1,
59700,1860.9,19.3,187.5,240.3,1887.0,4245.0,5.0,1,
59800,1860.2,16.8,187.5,240.3,1887.0,4245.0,5.0,1,
59900,1861.4,55.2,186.0,240.2,1398.0,6840.0,3.0,1,
60000,1837.7,59.9,172.5,238.4,1431.0,6878.0,4.0,1,
60100,1872.2,264.7,150.6,66.6,858.0,2942.0,2.0,0,
60200,1868.9,109.9,156.5,65.6,1933.0,4132.0,2.0,0,
60300,1855.6,104.2,139.9,66.8,632.0,3409.0,4.0,1,
60400,1865.7,44.8,132.2,106.8,662.0,3550.0,3.0,1,
60600,1861.6,20.5,109.3,106.4,662.0,3550.0,3.0,1,
60700,1858.2,19.4,109.3,81.6,662.0,3550.0,3.0,1,
60800,1857.2,17.6,109.3,83.2,662.0,3550.0,3.0,1,
60900,1859.1,15.0,109.3,239.3,662.0,3550.0,3.0,1,
61000,1859.4,17.8,109.3,240.3,662.0,3550.0,3.0,1,
61100,1858.2,16.4,109.3,240.2,662.0,3550.0,3.0,1,
61200,1858.3,14.8,109.3,240.1,662.0,3550.0,3.0,1,
61300,1858.9,16.7,109.3,239.9,662.0,3550.0,3.0,1,
61400,1859.1,15.2,109.3,240.4,662.0,3550.0,3.0,1,
61600,1870.0,199.0,109.0,239.6,1653.0,7430.0,4.0,1,
61700,1865.4,179.9,122.6,69.0,872.0,3648.0,2.0,0,
61800,1846.5,139.8,126.0,51.7,2103.0,4348.0,2.0,0,
61900,1847.3,123.8,127.0,92.9,652.0,3686.0,4.0,1,
62000,1876.7,51.3,125.3,159.2,658.0,3473.0,3.0,1,
62100,1847.3,32.8,125.1,169.0,595.0,3617.0,4.0,1,
62200,1851.3,17.0,125.0,131.0,595.0,3617.0,4.0,1,
62300,1861.9,18.2,125.0,67.9,595.0,3617.0,4.0,1,
62400,1857.8,18.4,125.0,86.5,595.0,3617.0,4.0,1,
62600,1860.0,16.7,125.0,240.5,595.0,3617.0,4.0,1,
62700,1860.0,15.1,124.9,240.5,595.0,3617.0,4.0,1,
62800,1859.3,17.6,125.0,240.1,595.0,3617.0,4.0,1,
62900,1862.0,14.4,125.0,240.0,595.0,3617.0,4.0,1,
63000,1858.0,16.3,125.0,240.4,595.0,3617.0,4.0,1,
63100,1855.1,53.7,125.0,240.3,1520.0,8295.0,4.0,1,
63200,1831.7,102.6,125.9,232.8,1407.0,7050.0,4.0,1,
63300,1873.8,221.5,126.5,66.4,1062.0,4169.0,2.0,0,
63400,1859.2,131.3,135.8,38.2,2089.0,3883.0,2.0,0,
63600,1871.3,66.7,118.8,135.7,653.0,3456.0,3.0,1,
63700,1831.0,44.9,119.1,158.3,622.0,3722.0,3.0,1,
63800,1860.5,17.4,119.0,122.1,622.0,3722.0,3.0,1,
63900,1859.3,18.2,119.0,81.5,622.0,3722.0,3.0,1,
64000,1857.0,16.5,119.0,67.0,622.0,3722.0,3.0,1,
64100,1859.4,15.4,119.0,134.6,622.0,3722.0,3.0,1,
64200,1857.3,13.7,119.0,239.9,622.0,3722.0,3.0,1,
64300,1858.7,15.6,119.0,239.9,622.0,3722.0,3.0,1,
64400,1861.3,15.6,119.0,240.0,622.0,3722.0,3.0,1,
64600,1860.8,18.1,119.0,240.4,622.0,3722.0,3.0,1,
64700,1858.7,11.2,119.0,240.3,622.0,3722.0,3.0,1,
64800,1840.1,75.9,119.3,239.6,1436.0,7050.0,4.0,1,
64900,1884.1,206.3,120.6,49.2,1293.0,4706.0,2.0,0,
65000,1853.2,321.0,128.7,30.1,2206.0,4371.0,2.0,0,
65100,1834.4,132.7,142.7,67.2,648.0,3621.0,4.0,1,
65200,1875.4,73.2,143.0,123.0,645.0,3681.0,3.0,1,
65300,1843.5,58.4,143.3,130.4,629.0,3466.0,4.0,1,
65400,1857.3,19.3,143.3,105.5,600.0,3513.0,4.0,1,
65600,1857.4,18.0,143.3,66.8,600.0,3513.0,4.0,1,
65700,1856.6,16.9,143.3,70.7,600.0,3513.0,4.0,1,
65800,1859.5,19.8,143.3,239.7,600.0,3513.0,4.0,1,
65900,1860.0,17.3,143.3,240.3,600.0,3513.0,4.0,1,
66000,1859.6,16.7,143.3,240.5,600.0,3513.0,4.0,1,
66100,1859.6,16.0,143.3,239.9,600.0,3513.0,4.0,1,
66200,1857.6,15.9,143.3,239.8,600.0,3513.0,4.0,1,
66300,1860.6,14.5,143.3,240.2,600.0,3513.0,4.0,1,
66400,1839.0,60.4,143.2,240.6,1392.0,6788.0,4.0,1,
66600,1869.4,232.2,145.5,29.9,2217.0,4291.0,2.0,0,
66700,1857.5,132.3,133.1,35.9,758.0,3806.0,4.0,1,
66800,1879.8,65.4,132.3,157.7,676.0,3601.0,3.0,1,
66900,1828.5,67.4,132.2,167.3,590.0,3040.0,4.0,1,
67000,1861.1,24.6,133.1,136.2,590.0,3040.0,4.0,1,
67100,1859.2,18.0,133.0,82.3,590.0,3040.0,4.0,1,
67200,1858.1,18.9,133.0,43.7,590.0,3040.0,4.0,1,
67300,1857.3,16.5,133.0,40.3,590.0,3040.0,4.0,1,
67400,1860.3,15.2,133.0,205.3,590.0,3040.0,4.0,1,
67600,1859.2,15.8,133.0,240.3,590.0,3040.0,4.0,1,
67700,1857.4,13.2,133.0,240.2,590.0,3040.0,4.0,1,
67800,1859.7,13.7,132.9,240.0,590.0,3040.0,4.0,1,
67900,1859.4,17.5,132.9,240.1,590.0,3040.0,4.0,1,
68000,1843.0,55.1,133.1,239.9,1400.0,7204.0,4.0,1,
68100,1899.4,239.4,132.9,133.4,1523.0,5469.0,2.0,0,
68200,1846.8,253.9,138.7,30.0,2384.0,4593.0,2.0,0,
68300,1843.2,130.0,139.4,39.7,1822.0,3954.0,2.0,0,
68400,1868.3,70.4,139.6,132.7,703.0,3541.0,3.0,1,
68600,1881.4,34.1,141.5,126.0,703.0,3541.0,3.0,1,
68700,1863.3,16.9,141.5,133.7,703.0,3541.0,3.0,1,
68800,1857.8,16.7,141.5,69.7,703.0,3541.0,3.0,1,
68900,1856.3,17.0,141.5,39.0,703.0,3541.0,3.0,1,
69000,1861.9,15.5,141.5,102.5,703.0,3541.0,3.0,1,
69100,1857.3,17.2,141.5,240.0,703.0,3541.0,3.0,1,
69200,1856.2,16.0,141.6,239.8,703.0,3541.0,3.0,1,
69300,1859.6,16.6,141.6,239.6,703.0,3541.0,3.0,1,
69400,1859.1,17.9,141.6,239.7,703.0,3541.0,3.0,1,
69600,1869.4,48.8,141.6,240.1,1622.0,8340.0,4.0,1,
69700,1847.1,196.5,145.6,156.9,1330.0,4381.0,2.0,0,
69800,1860.3,322.0,144.2,29.9,2403.0,5132.0,2.0,0,
69900,1846.0,209.9,149.1,36.1,714.0,2678.0,2.0,0,
70000,1893.3,247.1,154.6,165.0,1517.0,3547.0,2.0,0,
70100,1845.1,103.4,175.6,200.1,2141.0,4245.0,2.0,0,
70200,1860.4,67.8,177.8,227.2,295.0,2103.0,2.0,0,
70300,1857.6,18.1,177.6,195.9,295.0,2103.0,2.0,0,
70400,1858.4,16.3,177.6,136.8,295.0,2103.0,2.0,0,
70600,1860.9,15.1,177.6,35.8,295.0,2103.0,2.0,0,
70700,1855.5,17.2,177.6,240.0,295.0,2103.0,2.0,0,
70800,1862.1,14.4,177.5,240.5,295.0,2103.0,2.0,0,
70900,1859.7,15.7,177.5,240.4,295.0,2103.0,2.0,0,
71000,1860.3,14.7,177.5,240.4,295.0,2103.0,2.0,0,
71100,1862.2,17.7,177.5,240.2,295.0,2103.0,2.0,0,
71200,1864.0,36.1,177.5,240.1,1630.0,8638.0,4.0,1,
71300,1857.3,227.1,176.9,239.3,1300.0,4728.0,2.0,0,
71400,1898.4,317.2,179.4,38.6,1474.0,4972.0,2.0,0,
71600,1872.7,251.2,180.2,163.1,1640.0,3694.0,2.0,0,
71700,1841.6,119.8,181.6,206.6,2006.0,4227.0,2.0,0,
71800,1859.9,102.1,180.5,221.1,321.0,2250.0,7.0,1,
71900,1866.9,21.0,180.1,197.6,321.0,2250.0,7.0,1,
72000,1860.1,17.1,180.1,157.8,321.0,2250.0,7.0,1,
72100,1853.4,16.8,180.1,52.7,321.0,2250.0,7.0,1,
72200,1861.5,16.2,180.1,42.0,321.0,2250.0,7.0,1,
72300,1856.8,15.2,180.1,239.5,321.0,2250.0,7.0,1,
72400,1860.3,18.6,180.1,240.2,321.0,2250.0,7.0,1,
72600,1857.5,16.0,180.2,239.9,321.0,2250.0,7.0,1,
72700,1861.0,16.4,180.2,240.0,321.0,2250.0,7.0,1,
72800,1860.0,39.3,180.2,240.3,321.0,2250.0,7.0,1,
72900,1882.0,181.8,184.2,226.3,1332.0,5175.0,2.0,0,
73000,1849.6,225.8,185.2,30.0,1360.0,4966.0,2.0,0,
73100,1849.8,211.9,179.3,51.4,843.0,3101.0,2.0,0,
73200,1868.8,282.9,177.1,218.3,1984.0,3852.0,2.0,0,
73300,1856.3,317.1,183.5,228.8,656.0,2511.0,2.0,0,
73400,1878.2,211.0,189.9,229.7,814.0,2900.0,2.0,0,
73600,1858.5,17.6,190.5,143.7,814.0,2900.0,2.0,0,
73700,1854.3,14.7,190.5,42.5,814.0,2900.0,2.0,0,
73800,1860.5,16.0,190.5,43.5,814.0,2900.0,2.0,0,
73900,1859.9,16.0,190.5,231.5,814.0,2900.0,2.0,0,
74000,1860.0,14.5,190.5,239.9,814.0,2900.0,2.0,0,
74100,1861.5,15.2,190.5,240.2,814.0,2900.0,2.0,0,
74200,1860.3,15.4,190.4,240.8,814.0,2900.0,2.0,0,
74300,1861.1,16.7,190.4,240.7,814.0,2900.0,2.0,0,
74400,1862.6,37.3,190.3,240.2,814.0,2900.0,2.0,0,
74600,1833.6,313.5,202.2,43.7,1739.0,5306.0,2.0,0,
74700,1907.2,205.7,195.0,157.5,1111.0,3862.0,2.0,0,
74800,1848.2,231.9,199.4,226.0,2317.0,4460.0,2.0,0,
74900,1833.7,181.2,198.0,225.7,656.0,2460.0,2.0,0,
75000,1875.5,253.9,186.4,228.5,1801.0,3719.0,2.0,0,
75100,1861.9,34.0,190.4,229.3,491.0,2318.0,2.0,0,
75200,1859.8,19.7,190.4,195.8,491.0,2318.0,2.0,0,
75300,1857.0,16.8,190.4,132.0,491.0,2318.0,2.0,0,
75400,1860.3,16.3,190.4,136.2,491.0,2318.0,2.0,0,
75600,1857.8,14.7,190.4,240.4,491.0,2318.0,2.0,0,
75700,1858.0,13.8,190.4,240.7,491.0,2318.0,2.0,0,
75800,1859.4,17.6,190.4,240.7,491.0,2318.0,2.0,0,
75900,1864.3,18.8,190.4,240.2,491.0,2318.0,2.0,0,
76000,1863.7,16.7,190.4,240.2,491.0,2318.0,2.0,0,
76100,1886.9,58.5,188.1,239.9,1474.0,7018.0,4.0,1,
76200,1818.8,56.9,172.0,139.9,1454.0,6902.0,4.0,1,
76300,1876.4,201.4,155.6,66.1,1083.0,3808.0,2.0,0,
76400,1858.1,265.3,160.0,52.1,1985.0,4253.0,2.0,0,
76600,1882.1,238.5,154.1,198.5,1997.0,3804.0,2.0,0,
76700,1832.5,45.1,158.4,228.4,570.0,2515.0,2.0,0,
76800,1859.2,17.6,158.4,216.3,570.0,2515.0,2.0,0,
76900,1857.5,16.8,158.4,187.1,570.0,2515.0,2.0,0,
77000,1859.0,13.1,158.4,163.8,570.0,2515.0,2.0,0,
77100,1859.9,13.8,158.4,174.2,570.0,2515.0,2.0,0,
77200,1858.8,15.9,158.4,240.0,570.0,2515.0,2.0,0,
77300,1860.5,14.5,158.4,239.8,570.0,2515.0,2.0,0,
77400,1860.3,14.6,158.3,240.0,570.0,2515.0,2.0,0,
77600,1862.6,16.8,158.4,239.9,570.0,2515.0,2.0,0,
77700,1856.7,52.4,158.6,240.2,1458.0,6892.0,4.0,1,
77800,1839.2,208.5,158.4,201.7,1397.0,5053.0,2.0,0,
77900,1888.5,241.2,166.4,49.1,1152.0,4110.0,2.0,0,
78000,1859.2,269.0,179.6,38.8,1874.0,4374.0,2.0,0,
78100,1865.8,174.9,174.4,100.2,812.0,2951.0,2.0,0,
78200,1853.7,267.1,176.8,197.7,2272.0,4072.0,2.0,0,
78300,1839.0,81.8,183.5,199.5,361.0,1915.0,2.0,0,
78400,1863.6,22.5,183.5,227.8,361.0,1915.0,2.0,0,
78600,1857.8,15.7,183.5,99.9,361.0,1915.0,2.0,0,
78700,1858.4,16.6,183.6,90.8,361.0,1915.0,2.0,0,
78800,1860.5,19.7,183.6,239.7,361.0,1915.0,2.0,0,
78900,1861.1,17.8,183.6,240.2,361.0,1915.0,2.0,0,
79000,1862.5,16.2,183.6,240.4,361.0,1915.0,2.0,0,
79100,1864.2,15.6,183.5,240.6,361.0,1915.0,2.0,0,
79200,1861.7,17.3,183.5,240.5,361.0,1915.0,2.0,0,
79300,1852.1,54.0,183.5,240.0,1570.0,8234.0,4.0,1,
79400,1870.0,154.6,183.7,239.0,1440.0,6811.0,4.0,1,
79600,1835.5,249.2,188.6,43.6,893.0,3392.0,2.0,0,
79700,1868.2,246.4,181.4,131.5,850.0,3045.0,2.0,0,
79800,1863.1,287.0,191.7,195.8,2274.0,4120.0,2.0,0,
79900,1861.1,107.1,189.6,226.8,651.0,2283.0,2.0,0,
80000,1849.9,20.6,186.0,228.3,651.0,2283.0,2.0,0,
80100,1858.1,17.3,186.0,164.4,651.0,2283.0,2.0,0,
80200,1858.3,14.5,185.9,94.4,651.0,2283.0,2.0,0,
80300,1860.4,15.9,185.9,68.2,651.0,2283.0,2.0,0,
80400,1859.3,14.3,185.9,240.3,651.0,2283.0,2.0,0,
80600,1857.7,16.7,185.9,240.3,651.0,2283.0,2.0,0,
80700,1861.6,15.4,185.9,240.0,651.0,2283.0,2.0,0,
80800,1859.8,15.1,186.0,240.3,651.0,2283.0,2.0,0,
80900,1860.1,36.3,186.0,240.6,1591.0,8052.0,4.0,1,
81000,1843.6,205.5,190.3,237.3,1430.0,4844.0,2.0,0,
81100,1880.3,225.2,193.3,30.1,1402.0,5015.0,2.0,0,
81200,1851.7,291.1,194.8,30.1,1041.0,4012.0,2.0,0,
81300,1881.5,189.6,189.9,149.6,855.0,3236.0,2.0,0,
81400,1846.2,246.5,190.3,228.4,1767.0,3723.0,2.0,0,
81600,1870.3,22.8,182.4,229.3,1767.0,3723.0,2.0,0,
81700,1859.6,19.1,182.3,190.2,1767.0,3723.0,2.0,0,
81800,1858.6,17.5,182.3,100.0,1767.0,3723.0,2.0,0,
81900,1859.8,17.8,182.4,69.9,1767.0,3723.0,2.0,0,
82000,1857.7,16.8,182.4,240.1,1767.0,3723.0,2.0,0,
82100,1856.6,16.0,182.5,240.7,1767.0,3723.0,2.0,0,
82200,1856.0,15.7,182.5,240.9,1767.0,3723.0,2.0,0,
82300,1857.0,13.2,182.6,240.4,1767.0,3723.0,2.0,0,
82400,1858.6,16.9,182.6,240.1,1767.0,3723.0,2.0,0,
82600,1876.7,265.6,187.0,199.1,1375.0,5122.0,2.0,0,
82700,1870.1,207.9,188.3,34.4,1457.0,5287.0,2.0,0,
82800,1828.9,202.3,192.3,34.6,980.0,3640.0,2.0,0,
82900,1877.0,210.7,187.2,163.5,919.0,3449.0,2.0,0,
83000,1847.9,334.3,194.4,227.6,1752.0,3885.0,2.0,0,
83100,1870.8,218.7,191.9,228.6,638.0,2586.0,2.0,0,
83200,1856.5,27.3,192.1,227.9,737.0,2609.0,2.0,0,
83300,1856.4,16.7,192.1,163.4,737.0,2609.0,2.0,0,
83400,1855.7,15.8,192.1,88.2,737.0,2609.0,2.0,0,
83600,1859.7,16.0,192.1,232.7,737.0,2609.0,2.0,0,
83700,1860.4,15.2,192.0,240.1,737.0,2609.0,2.0,0,
83800,1861.6,16.4,191.9,240.2,737.0,2609.0,2.0,0,
83900,1860.8,19.8,191.9,240.6,737.0,2609.0,2.0,0,
84000,1862.0,15.5,191.9,240.6,737.0,2609.0,2.0,0,
84100,1859.9,17.2,191.9,240.5,737.0,2609.0,2.0,0,
84200,1872.6,186.4,191.4,240.2,1312.0,5463.0,2.0,0,
84300,1858.9,268.0,191.4,71.9,1575.0,5633.0,2.0,0,
84400,1845.7,233.1,192.0,92.9,1068.0,3955.0,2.0,0,
84600,1831.9,291.1,197.1,226.5,1511.0,3257.0,2.0,0,
84700,1862.6,187.5,186.3,228.5,666.0,2607.0,2.0,0,
84800,1863.4,37.0,188.2,226.9,480.0,2186.0,2.0,0,
84900,1857.0,18.0,188.2,175.0,480.0,2186.0,2.0,0,
85000,1856.7,18.8,188.2,87.9,480.0,2186.0,2.0,0,
85100,1861.7,17.5,188.2,54.4,480.0,2186.0,2.0,0,
85200,1859.1,17.9,188.2,138.2,480.0,2186.0,2.0,0,
85300,1864.0,14.6,188.2,240.4,480.0,2186.0,2.0,0,
85400,1858.7,16.1,188.2,240.2,480.0,2186.0,2.0,0,
85600,1861.3,16.1,188.2,240.2,480.0,2186.0,2.0,0,
85700,1861.8,14.8,188.1,240.0,480.0,2186.0,2.0,0,
85800,1862.4,208.6,189.4,240.0,1365.0,5796.0,2.0,0,
85900,1877.7,306.3,193.7,89.7,1456.0,5396.0,2.0,0,
86000,1850.6,205.4,188.3,99.9,1468.0,4776.0,2.0,0,
86100,1862.1,236.6,188.5,201.6,1400.0,4893.0,2.0,0,
86200,1833.2,246.6,195.3,225.9,1035.0,3819.0,2.0,0,
86300,1867.2,231.9,188.5,229.1,968.0,3461.0,2.0,0,
86400,1868.4,49.3,191.1,227.1,935.0,3453.0,2.0,0,
86600,1854.8,19.2,191.1,163.7,935.0,3453.0,2.0,0,
86700,1859.6,16.7,191.2,157.0,935.0,3453.0,2.0,0,
86800,1862.7,15.4,191.1,176.2,935.0,3453.0,2.0,0,
86900,1857.2,13.5,191.2,240.3,935.0,3453.0,2.0,0,
87000,1858.0,16.8,191.2,240.3,935.0,3453.0,2.0,0,
87100,1861.0,12.7,191.2,240.2,935.0,3453.0,2.0,0,
87200,1857.9,13.9,191.3,240.0,935.0,3453.0,2.0,0,
87300,1860.7,16.0,191.3,239.7,935.0,3453.0,2.0,0,
87400,1878.8,47.2,190.6,240.1,1657.0,8361.0,4.0,1,
87600,1869.5,228.6,165.3,68.2,1479.0,4877.0,2.0,0,
87700,1855.8,309.5,174.0,37.7,1450.0,5064.0,2.0,0,
87800,1887.8,252.1,168.5,38.1,1302.0,4511.0,2.0,0,
87900,1861.1,176.9,164.8,197.5,1326.0,4340.0,2.0,0,
88000,1833.8,100.6,180.6,227.3,1077.0,3710.0,2.0,0,
88100,1864.1,19.9,180.3,220.1,1077.0,3710.0,2.0,0,
88200,1859.7,17.1,180.3,163.8,1077.0,3710.0,2.0,0,
88300,1861.1,16.2,180.2,140.8,1077.0,3710.0,2.0,0,
88400,1861.7,15.4,180.2,137.2,1077.0,3710.0,2.0,0,
88600,1859.1,16.6,180.2,240.2,1077.0,3710.0,2.0,0,
88700,1859.5,15.4,180.2,240.0,1077.0,3710.0,2.0,0,
88800,1859.0,15.7,180.2,240.0,1077.0,3710.0,2.0,0,
88900,1862.8,16.2,180.2,240.4,1077.0,3710.0,2.0,0,
89000,1859.1,40.7,180.2,240.7,1642.0,8350.0,4.0,1,
89100,1825.9,165.9,180.0,239.8,1482.0,7259.0,4.0,1,
89200,1918.2,219.2,182.2,67.0,1329.0,4474.0,2.0,0,
89300,1832.0,278.7,190.7,38.7,2474.0,5561.0,2.0,0,
89400,1852.0,215.3,187.5,94.2,1169.0,4107.0,2.0,0,
89600,1837.5,150.1,195.8,197.0,1296.0,4510.0,2.0,0,
89700,1866.3,22.0,189.0,227.8,1296.0,4510.0,2.0,0,
89800,1860.1,17.6,188.9,186.6,1296.0,4510.0,2.0,0,
89900,1859.2,16.6,189.0,131.6,1296.0,4510.0,2.0,0,
90000,1861.0,14.8,189.0,99.9,1296.0,4510.0,2.0,0,
90100,1860.9,15.1,188.9,239.9,1296.0,4510.0,2.0,0,
90200,1862.7,16.2,188.9,240.7,1296.0,4510.0,2.0,0,
90300,1863.5,17.0,188.8,240.6,1296.0,4510.0,2.0,0,
90400,1860.2,14.6,188.8,240.2,1296.0,4510.0,2.0,0,
90600,1861.3,34.0,188.8,240.2,1296.0,4510.0,2.0,0,
90700,1855.3,153.7,188.9,239.6,1436.0,7214.0,4.0,1,
90800,1869.4,231.5,192.2,68.1,1623.0,5722.0,2.0,0,
90900,1847.4,282.9,197.5,36.6,1620.0,5427.0,2.0,0,
91000,1866.8,229.8,187.3,100.6,1616.0,5154.0,2.0,0,
91100,1881.3,315.9,190.2,227.0,1605.0,5269.0,2.0,0,
91200,1836.6,196.2,192.1,227.8,1290.0,4265.0,2.0,0,
91300,1867.9,24.7,188.1,227.5,1353.0,4494.0,2.0,0,
91400,1858.9,14.9,188.1,163.2,1353.0,4494.0,2.0,0,
91600,1858.4,16.9,188.1,43.5,1353.0,4494.0,2.0,0,
91700,1862.0,15.2,188.1,229.1,1353.0,4494.0,2.0,0,
91800,1860.2,15.2,188.1,240.3,1353.0,4494.0,2.0,0,
91900,1858.8,14.0,188.2,239.7,1353.0,4494.0,2.0,0,
92000,1860.0,12.7,188.2,240.0,1353.0,4494.0,2.0,0,
92100,1860.2,14.2,188.2,240.3,1353.0,4494.0,2.0,0,
92200,1859.6,22.3,188.2,240.0,1353.0,4494.0,2.0,0,
92300,1856.3,238.2,192.9,174.9,1441.0,5529.0,2.0,0,
92400,1871.1,235.3,198.0,30.2,1439.0,5371.0,2.0,0,
92600,1865.4,187.9,198.1,157.5,1408.0,4677.0,2.0,0,
92700,1847.6,295.0,203.3,225.9,2063.0,5692.0,2.0,0,
92800,1857.2,227.4,197.6,219.9,1384.0,4755.0,2.0,0,
92900,1883.7,30.5,196.0,229.2,1376.0,4712.0,2.0,0,
93000,1859.1,16.9,196.0,194.4,1376.0,4712.0,2.0,0,
93100,1859.8,14.2,195.9,93.3,1376.0,4712.0,2.0,0,
93200,1860.9,14.7,195.9,40.6,1376.0,4712.0,2.0,0,
93300,1860.7,17.2,195.9,238.8,1376.0,4712.0,2.0,0,
93400,1860.0,14.9,195.9,240.6,1376.0,4712.0,2.0,0,
93600,1861.7,15.9,195.9,239.9,1376.0,4712.0,2.0,0,
93700,1860.2,17.7,196.0,240.0,1376.0,4712.0,2.0,0,
93800,1861.4,18.2,195.9,240.3,1376.0,4712.0,2.0,0,
93900,1905.1,226.9,197.7,239.5,1428.0,5630.0,2.0,0,
94000,1838.8,181.2,198.6,36.6,1524.0,5450.0,2.0,0,
94100,1836.2,233.4,200.5,37.6,1223.0,4302.0,2.0,0,
94200,1880.7,230.4,195.0,195.2,1297.0,4581.0,2.0,0,
94300,1849.8,336.6,210.4,225.9,1819.0,5255.0,2.0,0,
94400,1878.8,216.0,199.7,226.8,1473.0,4856.0,2.0,0,
94600,1859.3,17.0,200.7,190.2,1473.0,4856.0,2.0,0,
94700,1861.3,16.0,200.7,98.9,1473.0,4856.0,2.0,0,
94800,1858.7,16.3,200.7,91.6,1473.0,4856.0,2.0,0,
94900,1861.5,14.7,200.7,157.2,1473.0,4856.0,2.0,0,
95000,1863.2,15.8,200.7,240.0,1473.0,4856.0,2.0,0,
95100,1863.0,15.7,200.6,240.1,1473.0,4856.0,2.0,0,
95200,1863.2,15.8,200.5,240.4,1473.0,4856.0,2.0,0,
95300,1863.8,16.9,200.5,240.4,1473.0,4856.0,2.0,0,
95400,1865.1,13.3,200.4,240.2,1473.0,4856.0,2.0,0,
95600,1859.6,296.3,201.8,94.0,1502.0,5440.0,2.0,0,
95700,1865.7,255.6,200.5,100.5,1300.0,4680.0,2.0,0,
95800,1881.0,204.8,197.9,197.2,1361.0,4835.0,2.0,0,
95900,1827.6,238.0,205.5,219.4,1376.0,4538.0,2.0,0,
96000,1874.2,229.2,194.1,228.5,1327.0,4664.0,2.0,0,
96100,1859.5,59.4,197.8,225.9,1566.0,5229.0,2.0,0,
96200,1865.7,16.0,197.9,195.1,1566.0,5229.0,2.0,0,
96300,1863.5,17.3,197.8,174.0,1566.0,5229.0,2.0,0,
96400,1862.6,15.5,197.7,166.5,1566.0,5229.0,2.0,0,
96600,1862.2,15.6,197.6,240.4,1566.0,5229.0,2.0,0,
96700,1866.2,16.6,197.5,240.2,1566.0,5229.0,2.0,0,
96800,1862.1,14.4,197.6,240.2,1566.0,5229.0,2.0,0,
96900,1866.1,17.1,197.5,240.6,1566.0,5229.0,2.0,0,
97000,1863.0,15.8,197.5,240.7,1566.0,5229.0,2.0,0,
97100,1864.4,41.5,197.5,240.7,1548.0,8024.0,4.0,1,
97200,1864.5,58.3,186.5,239.3,1454.0,6930.0,4.0,1,
97300,1855.1,173.0,169.8,51.9,1391.0,4702.0,2.0,0,
97400,1862.1,331.7,170.5,30.2,2554.0,5734.0,2.0,0,
97600,1911.1,235.6,175.1,186.8,1495.0,5184.0,2.0,0,
97700,1836.5,131.9,184.7,194.5,1431.0,4782.0,2.0,0,
97800,1858.2,19.1,187.0,219.8,1431.0,4782.0,2.0,0,
97900,1860.9,15.6,187.0,197.8,1431.0,4782.0,2.0,0,
98000,1861.3,18.0,187.0,157.4,1431.0,4782.0,2.0,0,
98100,1861.6,16.3,187.1,134.5,1431.0,4782.0,2.0,0,
98200,1862.7,18.4,187.1,239.5,1431.0,4782.0,2.0,0,
98300,1861.5,14.7,187.1,240.4,1431.0,4782.0,2.0,0,
98400,1862.3,14.5,187.2,240.4,1431.0,4782.0,2.0,0,
98600,1862.5,17.4,187.2,240.0,1431.0,4782.0,2.0,0,
98700,1862.3,33.2,187.2,240.1,1641.0,8478.0,4.0,1,
98800,1842.1,61.7,187.4,239.7,1505.0,7271.0,4.0,1,
98900,1868.7,219.0,187.4,75.3,1520.0,5062.0,2.0,0,
99000,1885.6,338.3,190.8,37.7,1608.0,5549.0,2.0,0,
99100,1838.8,241.5,186.8,66.1,1598.0,5180.0,2.0,0,
99200,1869.0,223.7,186.0,184.9,1701.0,5731.0,2.0,0,
99300,1842.6,218.9,194.7,196.2,1616.0,5134.0,2.0,0,
99400,1865.8,24.1,190.5,220.7,1616.0,5134.0,2.0,0,
99600,1861.2,16.5,190.5,131.7,1616.0,5134.0,2.0,0,
99700,1863.4,14.8,190.5,94.6,1616.0,5134.0,2.0,0,
99800,1863.1,16.2,190.5,195.0,1616.0,5134.0,2.0,0,
99900,1862.0,15.4,190.5,240.2,1616.0,5134.0,2.0,0,
100000,1865.5,15.3,190.4,239.9,1616.0,5134.0,2.0,0,
100100,1861.5,16.0,190.4,240.0,1616.0,5134.0,2.0,0,
100200,1863.3,13.2,190.4,240.1,1616.0,5134.0,2.0,0,
100300,1859.1,14.2,190.5,240.2,1616.0,5134.0,2.0,0,
100400,1849.1,199.4,190.5,239.7,1477.0,7372.0,4.0,1,
100600,1840.0,272.4,201.8,30.2,2065.0,6003.0,2.0,0,
100700,1857.3,244.4,197.1,70.9,1747.0,5887.0,2.0,0,
100800,1882.4,236.7,194.1,225.6,1845.0,5802.0,2.0,0,
100900,1878.4,278.4,200.8,201.4,1682.0,5424.0,2.0,0,
101000,1843.9,30.7,191.9,228.6,1637.0,5213.0,2.0,0,
101100,1862.0,16.4,191.8,197.9,1637.0,5213.0,2.0,0,
101200,1860.2,16.0,191.8,132.3,1637.0,5213.0,2.0,0,
101300,1862.6,15.1,191.8,78.4,1637.0,5213.0,2.0,0,
101400,1862.0,16.1,191.9,175.4,1637.0,5213.0,2.0,0,
101600,1862.1,13.9,191.8,240.4,1637.0,5213.0,2.0,0,
101700,1861.9,12.6,191.8,240.2,1637.0,5213.0,2.0,0,
101800,1863.6,14.2,191.8,240.0,1637.0,5213.0,2.0,0,
101900,1860.9,14.4,191.8,240.2,1637.0,5213.0,2.0,0,
102000,1857.8,190.1,196.0,238.6,1417.0,5316.0,2.0,0,
102100,1879.5,224.1,197.8,35.6,1508.0,5245.0,2.0,0,
102200,1849.8,287.5,204.0,35.0,1375.0,5074.0,2.0,0,
102300,1913.2,232.1,193.8,134.8,1519.0,5245.0,2.0,0,
102400,1837.1,272.3,196.5,229.9,1724.0,5635.0,2.0,0,
102600,1882.9,32.9,191.5,228.8,1720.0,5480.0,2.0,0,
102700,1860.3,15.5,191.5,189.1,1720.0,5480.0,2.0,0,
102800,1862.3,18.6,191.5,93.8,1720.0,5480.0,2.0,0,
102900,1863.3,15.8,191.5,42.4,1720.0,5480.0,2.0,0,
103000,1862.1,13.2,191.4,198.1,1720.0,5480.0,2.0,0,
103100,1862.3,13.9,191.5,240.0,1720.0,5480.0,2.0,0,
103200,1862.1,14.1,191.5,239.8,1720.0,5480.0,2.0,0,
103300,1861.7,12.1,191.4,240.3,1720.0,5480.0,2.0,0,
103400,1861.6,13.5,191.5,240.7,1720.0,5480.0,2.0,0,
103600,1864.5,209.5,192.8,239.6,1439.0,5556.0,2.0,0,
103700,1893.7,314.0,196.5,37.4,1889.0,7079.0,2.0,0,
103800,1843.8,212.2,197.5,93.1,1389.0,4749.0,2.0,0,
103900,1868.4,227.3,190.8,195.9,1266.0,4185.0,2.0,0,
104000,1838.6,236.7,203.7,219.8,938.0,3119.0,2.0,0,
104100,1873.7,216.6,187.3,228.0,914.0,3029.0,2.0,0,
104200,1869.2,55.8,191.9,226.9,582.0,2167.0,2.0,0,
104300,1861.3,17.6,191.9,197.1,582.0,2167.0,2.0,0,
104400,1861.4,15.9,191.9,149.2,582.0,2167.0,2.0,0,
104600,1862.4,15.8,192.0,131.1,582.0,2167.0,2.0,0,
104700,1864.1,17.1,191.9,240.2,582.0,2167.0,2.0,0,
104800,1864.1,15.9,191.9,240.2,582.0,2167.0,2.0,0,
104900,1863.2,14.6,191.9,240.2,582.0,2167.0,2.0,0,
105000,1864.8,14.0,191.9,240.3,582.0,2167.0,2.0,0,
105100,1863.0,15.1,191.8,240.2,582.0,2167.0,2.0,0,
105200,1883.8,55.4,191.1,240.1,1469.0,8188.0,4.0,1,
105300,1818.6,66.9,182.2,158.2,1713.0,7750.0,4.0,1,
105400,1875.6,201.8,161.3,57.0,1107.0,4037.0,2.0,0,
105600,1898.0,237.9,163.1,93.9,938.0,3397.0,2.0,0,
105700,1864.9,188.7,162.2,194.4,994.0,3400.0,2.0,0,
105800,1835.1,91.2,170.5,196.6,752.0,2880.0,2.0,0,
105900,1864.5,17.6,169.8,227.4,752.0,2880.0,2.0,0,
106000,1859.7,15.1,169.9,188.1,752.0,2880.0,2.0,0,
106100,1861.4,15.8,169.8,134.8,752.0,2880.0,2.0,0,
106200,1863.3,15.6,169.8,102.3,752.0,2880.0,2.0,0,
106300,1860.8,14.6,169.9,240.1,752.0,2880.0,2.0,0,
106400,1859.3,15.1,169.9,240.8,752.0,2880.0,2.0,0,
106600,1864.4,16.9,170.0,240.1,752.0,2880.0,2.0,0,
106700,1861.7,18.2,170.0,240.7,752.0,2880.0,2.0,0,
106800,1862.1,46.4,170.0,240.7,1425.0,8171.0,4.0,1,
106900,1841.7,242.0,174.3,237.3,1648.0,6218.0,2.0,0,
107000,1908.9,301.6,181.7,34.4,1422.0,5150.0,2.0,0,
107100,1828.3,220.0,195.3,34.3,1066.0,4044.0,2.0,0,
107200,1874.3,196.9,179.9,135.1,966.0,3568.0,2.0,0,
107300,1848.8,284.2,185.7,210.5,1530.0,3893.0,2.0,0,
107400,1863.8,120.8,182.5,227.9,802.0,2921.0,2.0,0,
107600,1858.8,15.0,177.8,185.0,802.0,2921.0,2.0,0,
107700,1861.5,16.3,177.8,81.8,802.0,2921.0,2.0,0,
107800,1864.5,15.3,177.8,38.9,802.0,2921.0,2.0,0,
107900,1861.3,17.0,177.8,239.9,802.0,2921.0,2.0,0,
108000,1863.5,15.7,177.7,240.3,802.0,2921.0,2.0,0,
108100,1863.9,16.4,177.7,240.2,802.0,2921.0,2.0,0,
108200,1861.5,17.9,177.7,240.4,802.0,2921.0,2.0,0,
108300,1862.2,16.0,177.8,240.5,802.0,2921.0,2.0,0,
108400,1861.7,137.6,177.8,240.7,802.0,2921.0,2.0,0,
108600,1843.2,233.9,185.9,36.0,1596.0,5905.0,2.0,0,
108700,1859.5,228.0,180.9,57.5,1428.0,4987.0,2.0,0,
108800,1871.2,322.9,179.2,226.2,1483.0,4910.0,2.0,0,
108900,1871.9,243.6,191.1,230.9,1208.0,4147.0,2.0,0,
109000,1871.7,178.5,182.1,228.5,1259.0,4216.0,2.0,0,
109100,1861.6,27.4,182.2,197.9,1238.0,4198.0,2.0,0,
109200,1861.6,16.3,182.1,157.7,1238.0,4198.0,2.0,0,
109300,1864.9,15.9,182.1,42.7,1238.0,4198.0,2.0,0,
109400,1862.8,16.1,182.1,44.7,1238.0,4198.0,2.0,0,
109600,1865.0,15.5,181.9,240.4,1238.0,4198.0,2.0,0,
109700,1862.8,14.8,182.0,240.5,1238.0,4198.0,2.0,0,
109800,1865.1,14.8,181.9,240.3,1238.0,4198.0,2.0,0,
109900,1863.9,14.7,181.9,240.1,1238.0,4198.0,2.0,0,
110000,1863.8,28.3,181.8,239.8,1238.0,4198.0,2.0,0,
110100,1863.8,247.3,181.6,212.5,1581.0,6481.0,2.0,0,
110200,1841.5,306.9,191.3,38.5,1665.0,6241.0,2.0,0,
110300,1911.1,213.2,185.2,100.3,1523.0,5275.0,2.0,0,
110400,1841.4,242.5,186.7,197.5,1540.0,5279.0,2.0,0,
110600,1882.3,239.4,181.3,228.8,1354.0,4998.0,2.0,0,
110700,1865.2,30.3,185.2,226.7,1398.0,4977.0,2.0,0,
110800,1861.2,16.9,185.2,197.7,1398.0,4977.0,2.0,0,
110900,1859.5,15.4,185.3,158.8,1398.0,4977.0,2.0,0,
111000,1861.8,16.0,185.3,157.0,1398.0,4977.0,2.0,0,
111100,1861.2,16.6,185.4,229.5,1398.0,4977.0,2.0,0,
111200,1864.5,17.1,185.4,240.4,1398.0,4977.0,2.0,0,
111300,1865.4,15.2,185.3,240.2,1398.0,4977.0,2.0,0,
111400,1862.2,13.8,185.4,240.1,1398.0,4977.0,2.0,0,
111600,1859.7,12.4,185.5,239.8,1398.0,4977.0,2.0,0,
111700,1887.7,75.9,184.1,239.3,1392.0,7517.0,4.0,1,
111800,1824.8,158.1,167.9,93.0,1786.0,8231.0,4.0,1,
111900,1873.8,216.0,155.1,37.9,1469.0,5537.0,2.0,0,
112000,1848.1,313.8,167.0,30.2,1673.0,5431.0,2.0,0,
112100,1873.4,242.3,161.7,99.7,1242.0,4299.0,2.0,0,
112200,1880.6,280.9,161.8,197.7,1276.0,4745.0,2.0,0,
112300,1835.7,52.0,172.0,198.1,1064.0,3904.0,2.0,0,
112400,1862.0,19.6,172.0,198.2,1064.0,3904.0,2.0,0,
112600,1860.6,14.0,172.0,130.1,1064.0,3904.0,2.0,0,
112700,1865.6,17.8,171.9,139.9,1064.0,3904.0,2.0,0,
112800,1865.4,18.1,171.9,240.5,1064.0,3904.0,2.0,0,
112900,1864.3,16.2,171.9,240.5,1064.0,3904.0,2.0,0,
113000,1861.5,16.3,172.0,240.4,1064.0,3904.0,2.0,0,
113100,1864.5,14.7,171.9,240.3,1064.0,3904.0,2.0,0,
113200,1864.0,15.6,171.8,240.5,1064.0,3904.0,2.0,0,
113300,1852.1,56.2,172.1,240.5,1354.0,7683.0,4.0,1,
113400,1850.0,240.7,175.5,153.3,1609.0,6091.0,2.0,0,
113600,1864.8,260.4,187.0,30.2,1400.0,5104.0,2.0,0,
113700,1866.9,175.1,176.6,135.4,1449.0,4835.0,2.0,0,
113800,1849.7,283.6,180.6,227.0,1817.0,5343.0,2.0,0,
113900,1860.8,72.0,175.9,228.1,1238.0,4684.0,2.0,0,
114000,1869.5,17.6,175.9,226.9,1238.0,4684.0,2.0,0,
114100,1859.3,16.9,175.9,158.5,1238.0,4684.0,2.0,0,
114200,1860.8,16.9,176.0,94.4,1238.0,4684.0,2.0,0,
114300,1863.4,14.8,176.0,89.6,1238.0,4684.0,2.0,0,
114400,1861.8,14.9,176.0,240.3,1238.0,4684.0,2.0,0,
114600,1863.5,16.2,176.1,240.2,1238.0,4684.0,2.0,0,
114700,1863.9,15.5,176.1,240.3,1238.0,4684.0,2.0,0,
114800,1866.1,17.9,176.0,240.4,1238.0,4684.0,2.0,0,
114900,1854.5,182.8,176.0,240.2,1451.0,8188.0,5.0,1,
115000,1908.8,213.5,181.7,90.1,1521.0,5878.0,2.0,0,
115100,1838.2,253.9,183.9,30.2,1637.0,6280.0,2.0,0,
115200,1845.2,207.0,183.8,37.6,1443.0,5043.0,2.0,0,
115300,1879.9,311.1,178.9,195.8,1472.0,5290.0,2.0,0,
115400,1858.0,255.5,193.1,220.8,1158.0,4175.0,2.0,0,
115600,1852.0,22.2,181.7,196.9,1158.0,4175.0,2.0,0,
115700,1861.2,18.0,181.7,153.2,1158.0,4175.0,2.0,0,
115800,1862.6,14.5,181.6,42.3,1158.0,4175.0,2.0,0,
115900,1861.7,15.1,181.7,68.7,1158.0,4175.0,2.0,0,
116000,1862.6,14.6,181.7,240.2,1158.0,4175.0,2.0,0,
116100,1862.8,15.5,181.6,240.1,1158.0,4175.0,2.0,0,
116200,1864.0,16.2,181.6,240.2,1158.0,4175.0,2.0,0,
116300,1864.8,15.0,181.6,240.8,1158.0,4175.0,2.0,0,
116400,1863.0,12.9,181.6,240.8,1158.0,4175.0,2.0,0,
116600,1873.6,229.7,180.7,90.2,1636.0,6364.0,2.0,0,
116700,1847.7,276.3,191.7,36.6,1431.0,5290.0,2.0,0,
116800,1895.4,247.8,180.3,125.2,1529.0,5224.0,2.0,0,
116900,1855.4,306.2,188.6,199.3,2374.0,6244.0,2.0,0,
117000,1850.7,197.5,185.1,226.9,1284.0,4952.0,2.0,0,
117100,1868.5,152.3,183.9,226.9,1386.0,4962.0,2.0,0,
117200,1863.6,22.4,186.2,197.5,1386.0,4962.0,2.0,0,
117300,1861.6,13.5,186.1,156.6,1386.0,4962.0,2.0,0,
117400,1862.2,16.0,186.1,105.5,1386.0,4962.0,2.0,0,
117600,1863.1,17.3,186.2,238.5,1386.0,4962.0,2.0,0,
117700,1864.8,14.4,186.1,240.2,1386.0,4962.0,2.0,0,
117800,1861.7,15.6,186.2,240.1,1386.0,4962.0,2.0,0,
117900,1863.8,12.7,186.2,240.2,1386.0,4962.0,2.0,0,
118000,1862.7,16.4,186.2,240.1,1386.0,4962.0,2.0,0,
118100,1861.8,10.2,186.2,240.2,1386.0,4962.0,2.0,0,
118200,1857.1,55.1,183.6,239.8,1413.0,7418.0,4.0,1,
118300,1874.4,183.3,167.2,57.0,1581.0,5847.0,2.0,0,
118400,1857.6,231.9,160.6,39.6,1599.0,5792.0,2.0,0,
118600,1884.0,237.1,151.2,157.7,1410.0,4905.0,2.0,0,
118700,1878.6,313.4,161.1,227.7,1992.0,5471.0,2.0,0,
118800,1837.9,31.8,164.8,229.4,1203.0,4584.0,2.0,0,
118900,1862.7,14.6,164.8,190.1,1203.0,4584.0,2.0,0,
119000,1859.2,13.9,164.8,135.4,1203.0,4584.0,2.0,0,
119100,1863.4,15.6,164.8,99.6,1203.0,4584.0,2.0,0,
119200,1865.7,16.7,164.8,158.3,1203.0,4584.0,2.0,0,
119300,1864.6,15.0,164.7,240.1,1203.0,4584.0,2.0,0,
119400,1863.7,17.7,164.7,240.1,1203.0,4584.0,2.0,0,
119600,1865.7,19.8,164.7,240.0,1203.0,4584.0,2.0,0,
119700,1865.0,15.8,164.7,240.2,1203.0,4584.0,2.0,0,
119800,1853.9,156.5,164.7,240.2,1404.0,7715.0,4.0,1,
119900,1876.1,217.2,173.8,72.9,1524.0,5847.0,2.0,0,
120000,1861.0,341.7,179.7,30.2,1900.0,6086.0,2.0,0,
120100,1892.5,238.6,181.4,77.1,1409.0,4921.0,2.0,0,
120200,1857.5,216.9,180.6,200.1,1498.0,5514.0,2.0,0,
120300,1833.5,210.7,189.6,199.3,1258.0,4546.0,2.0,0,
120400,1880.3,35.9,178.6,228.7,1299.0,4598.0,2.0,0,
120600,1861.3,17.1,178.6,99.1,1299.0,4598.0,2.0,0,
120700,1862.5,17.0,178.7,36.8,1299.0,4598.0,2.0,0,
120800,1862.3,15.4,178.7,99.6,1299.0,4598.0,2.0,0,
120900,1863.3,15.8,178.8,240.3,1299.0,4598.0,2.0,0,
121000,1860.9,14.3,178.8,240.6,1299.0,4598.0,2.0,0,
121100,1862.4,15.0,178.8,240.4,1299.0,4598.0,2.0,0,
121200,1864.3,15.2,178.9,240.0,1299.0,4598.0,2.0,0,
121300,1863.5,16.5,178.9,240.0,1299.0,4598.0,2.0,0,
121400,1858.8,119.8,179.2,239.7,1396.0,5756.0,2.0,0,
121600,1839.3,229.9,187.3,39.5,1398.0,5362.0,2.0,0,
121700,1868.8,206.9,175.2,100.7,1551.0,5534.0,2.0,0,
121800,1851.1,287.0,179.8,187.8,1917.0,5994.0,2.0,0,
121900,1862.0,242.4,178.2,227.4,1438.0,5324.0,2.0,0,
122000,1878.1,48.9,175.5,229.0,1509.0,5174.0,2.0,0,
122100,1866.5,15.2,175.5,198.1,1509.0,5174.0,2.0,0,
122200,1861.2,16.9,175.5,93.1,1509.0,5174.0,2.0,0,
122300,1862.2,15.0,175.5,38.2,1509.0,5174.0,2.0,0,
122400,1861.8,15.5,175.5,88.6,1509.0,5174.0,2.0,0,
122600,1864.5,16.7,175.5,240.3,1509.0,5174.0,2.0,0,
122700,1863.1,15.5,175.5,240.2,1509.0,5174.0,2.0,0,
122800,1863.2,16.0,175.5,239.8,1509.0,5174.0,2.0,0,
122900,1864.2,15.6,175.5,239.7,1509.0,5174.0,2.0,0,
123000,1893.7,182.4,176.1,240.1,1456.0,6979.0,2.0,0,
123100,1836.2,238.1,182.3,43.9,1902.0,7096.0,2.0,0,
123200,1854.7,217.5,182.5,53.2,1647.0,5934.0,2.0,0,
123300,1882.5,262.8,177.9,158.6,1792.0,6190.0,2.0,0,
123400,1879.2,267.9,186.8,220.5,1426.0,5182.0,2.0,0,
123600,1840.1,83.8,184.4,228.4,1544.0,5517.0,2.0,0,
123700,1865.9,20.9,184.1,220.5,1544.0,5517.0,2.0,0,
123800,1862.5,15.5,184.1,158.9,1544.0,5517.0,2.0,0,
123900,1862.3,15.6,184.1,154.7,1544.0,5517.0,2.0,0,
124000,1862.0,15.3,184.1,157.8,1544.0,5517.0,2.0,0,
124100,1864.5,15.5,184.1,240.3,1544.0,5517.0,2.0,0,
124200,1864.3,14.1,184.0,240.1,1544.0,5517.0,2.0,0,
124300,1862.8,13.8,184.0,240.0,1544.0,5517.0,2.0,0,
124400,1862.1,14.4,184.1,240.2,1544.0,5517.0,2.0,0,
124600,1865.0,38.6,184.0,240.0,1480.0,8444.0,4.0,1,
124700,1841.0,210.6,178.2,239.6,1366.0,7121.0,4.0,1,
124800,1905.5,246.1,165.6,66.4,1602.0,5794.0,2.0,0,
124900,1833.1,293.7,174.5,34.9,2325.0,6479.0,2.0,0,
125000,1851.7,194.3,175.8,56.5,1661.0,5623.0,2.0,0,
125100,1873.8,251.2,171.7,165.7,1754.0,6201.0,2.0,0,
125200,1841.0,155.1,183.4,196.8,1458.0,5210.0,2.0,0,
125300,1875.1,23.5,180.1,228.6,1458.0,5210.0,2.0,0,
125400,1862.3,15.1,180.1,186.7,1458.0,5210.0,2.0,0,
125600,1865.2,15.6,180.0,89.1,1458.0,5210.0,2.0,0,
125700,1864.2,15.0,180.0,238.9,1458.0,5210.0,2.0,0,
125800,1866.0,14.0,180.0,240.3,1458.0,5210.0,2.0,0,
125900,1861.4,15.4,180.0,240.4,1458.0,5210.0,2.0,0,
126000,1863.2,16.7,180.0,240.4,1458.0,5210.0,2.0,0,
126100,1865.4,18.1,180.0,240.2,1458.0,5210.0,2.0,0,
126200,1865.0,51.3,180.0,240.2,1458.0,5210.0,2.0,0,
126300,1861.8,202.2,182.3,239.4,1331.0,5542.0,2.0,0,
126400,1867.0,229.7,183.6,30.2,1386.0,5164.0,2.0,0,
126600,1878.3,245.6,178.3,90.4,1517.0,5439.0,2.0,0,
126700,1891.3,292.8,184.2,221.0,1543.0,5727.0,2.0,0,
126800,1838.5,205.0,182.0,226.7,1416.0,5171.0,2.0,0,
126900,1869.3,25.8,178.5,228.5,1470.0,5311.0,2.0,0,
127000,1859.6,16.6,178.6,194.8,1470.0,5311.0,2.0,0,
127100,1859.7,16.3,178.6,94.4,1470.0,5311.0,2.0,0,
127200,1864.3,14.6,178.7,37.3,1470.0,5311.0,2.0,0,
127300,1865.4,15.5,178.7,236.4,1470.0,5311.0,2.0,0,
127400,1861.9,15.4,178.7,240.3,1470.0,5311.0,2.0,0,
127600,1864.9,13.8,178.7,240.0,1470.0,5311.0,2.0,0,
127700,1862.3,16.1,178.7,240.3,1470.0,5311.0,2.0,0,
127800,1864.6,41.9,178.7,241.0,1470.0,5311.0,2.0,0,
127900,1868.1,213.2,183.2,170.6,1343.0,5686.0,2.0,0,
128000,1859.7,273.4,185.5,37.0,1861.0,6850.0,2.0,0,
128100,1904.9,230.3,185.5,38.4,1723.0,5868.0,2.0,0,
128200,1852.3,204.6,179.2,196.2,1830.0,6270.0,2.0,0,
128300,1835.8,275.2,189.9,228.6,1459.0,5113.0,2.0,0,
128400,1873.6,224.8,182.9,229.4,1588.0,5584.0,2.0,0,
128600,1859.3,15.8,182.5,163.1,1588.0,5584.0,2.0,0,
128700,1862.8,17.7,182.5,83.8,1588.0,5584.0,2.0,0,
128800,1865.9,15.2,182.4,47.4,1588.0,5584.0,2.0,0,
128900,1860.9,15.1,182.5,212.5,1588.0,5584.0,2.0,0,
129000,1865.8,16.4,182.5,240.3,1588.0,5584.0,2.0,0,
129100,1863.8,13.9,182.4,240.4,1588.0,5584.0,2.0,0,
129200,1863.1,14.8,182.4,240.5,1588.0,5584.0,2.0,0,
129300,1862.3,18.0,182.5,240.4,1588.0,5584.0,2.0,0,
129400,1865.1,17.4,182.4,240.4,1588.0,5584.0,2.0,0,
129600,1823.9,251.8,191.0,43.8,1693.0,5682.0,2.0,0,
129700,1866.5,211.7,183.6,99.1,1777.0,6213.0,2.0,0,
129800,1863.1,332.7,185.9,166.6,2517.0,6833.0,2.0,0,
129900,1855.9,269.7,197.1,219.6,1732.0,5741.0,2.0,0,
130000,1900.2,228.8,186.0,228.1,1771.0,6230.0,2.0,0,
130100,1832.2,56.7,196.1,212.9,1440.0,5198.0,2.0,0,
130200,1864.7,18.7,196.0,198.5,1440.0,5198.0,2.0,0,
130300,1862.4,15.6,196.0,158.1,1440.0,5198.0,2.0,0,
130400,1862.1,16.1,196.1,143.4,1440.0,5198.0,2.0,0,
130600,1861.3,17.9,196.0,240.1,1440.0,5198.0,2.0,0,
130700,1863.0,14.2,196.1,240.4,1440.0,5198.0,2.0,0,
130800,1863.7,13.4,196.1,240.7,1440.0,5198.0,2.0,0,
130900,1862.5,17.7,196.1,240.7,1440.0,5198.0,2.0,0,
131000,1864.9,16.4,196.1,240.3,1440.0,5198.0,2.0,0,
131100,1859.7,50.8,195.3,240.4,1421.0,7571.0,4.0,1,
131200,1844.8,180.7,184.5,196.9,1708.0,6276.0,2.0,0,
131300,1882.2,258.9,174.3,53.5,1849.0,6612.0,2.0,0,
131400,1880.0,295.5,186.7,37.4,1992.0,6479.0,2.0,0,
131600,1853.7,297.7,176.9,196.3,2183.0,6346.0,2.0,0,
131700,1853.9,74.1,178.2,220.4,1420.0,5310.0,2.0,0,
131800,1870.7,19.5,178.3,225.9,1420.0,5310.0,2.0,0,
131900,1860.4,16.1,178.3,157.2,1420.0,5310.0,2.0,0,
132000,1862.5,16.5,178.3,99.2,1420.0,5310.0,2.0,0,
132100,1863.0,14.1,178.3,92.6,1420.0,5310.0,2.0,0,
132200,1864.9,13.7,178.3,240.4,1420.0,5310.0,2.0,0,
132300,1862.2,14.3,178.3,240.3,1420.0,5310.0,2.0,0,
132400,1863.0,16.1,178.3,240.0,1420.0,5310.0,2.0,0,
132600,1863.9,13.8,178.3,240.1,1420.0,5310.0,2.0,0,
132700,1848.0,59.8,178.3,240.0,1495.0,8308.0,4.0,1,
132800,1906.6,212.3,182.5,136.4,1388.0,5528.0,2.0,0,
132900,1840.0,214.4,187.2,29.8,1844.0,6744.0,2.0,0,
133000,1846.0,209.4,188.7,34.2,1688.0,5718.0,2.0,0,
133100,1880.6,250.2,178.4,164.7,1780.0,6088.0,2.0,0,
133200,1854.7,317.4,193.6,226.0,1464.0,5539.0,2.0,0,
133300,1890.2,102.4,180.6,227.9,1613.0,5595.0,2.0,0,
133400,1849.6,18.5,179.7,198.1,1613.0,5595.0,2.0,0,
133600,1863.4,19.4,179.6,37.8,1613.0,5595.0,2.0,0,
133700,1864.4,15.3,179.6,42.7,1613.0,5595.0,2.0,0,
133800,1866.1,13.6,179.6,239.9,1613.0,5595.0,2.0,0,
133900,1864.4,18.5,179.6,240.2,1613.0,5595.0,2.0,0,
134000,1864.3,17.0,179.6,240.2,1613.0,5595.0,2.0,0,
134100,1866.6,15.0,179.5,239.8,1613.0,5595.0,2.0,0,
134200,1863.9,16.5,179.5,239.5,1613.0,5595.0,2.0,0,
134300,1864.9,129.2,179.5,239.8,1613.0,5595.0,2.0,0,
134400,1874.9,227.7,183.2,89.2,1779.0,6796.0,2.0,0,
134600,1872.2,246.9,186.3,65.7,1547.0,5467.0,2.0,0,
134700,1882.5,276.4,186.4,225.8,1496.0,5726.0,2.0,0,
134800,1828.0,209.6,189.6,228.0,1332.0,5014.0,2.0,0,
134900,1874.2,159.9,181.8,228.9,1416.0,5478.0,2.0,0,
135000,1873.5,22.6,182.6,226.3,1416.0,5478.0,2.0,0,
135100,1861.6,16.8,182.6,157.5,1416.0,5478.0,2.0,0,
135200,1865.0,19.2,182.6,51.0,1416.0,5478.0,2.0,0,
135300,1865.1,18.4,182.6,68.4,1416.0,5478.0,2.0,0,
135400,1861.4,14.9,182.7,239.4,1416.0,5478.0,2.0,0,
135600,1861.2,13.9,182.7,240.2,1416.0,5478.0,2.0,0,
135700,1861.5,15.4,182.8,240.5,1416.0,5478.0,2.0,0,
135800,1862.3,15.4,182.8,240.4,1416.0,5478.0,2.0,0,
135900,1862.5,83.9,182.9,240.0,1416.0,5478.0,2.0,0,
136000,1864.7,254.9,184.0,155.4,1338.0,6000.0,2.0,0,
136100,1869.2,256.0,187.7,37.9,1610.0,6062.0,2.0,0,
136200,1862.0,183.1,180.0,100.2,1535.0,5696.0,2.0,0,
136300,1850.2,282.6,183.6,197.6,2024.0,6150.0,2.0,0,
136400,1856.1,225.0,178.7,228.7,1447.0,5149.0,2.0,0,
136600,1839.3,33.5,184.7,226.8,1207.0,4616.0,2.0,0,
136700,1859.6,19.1,184.8,164.4,1207.0,4616.0,2.0,0,
136800,1865.6,18.4,184.7,122.4,1207.0,4616.0,2.0,0,
136900,1862.8,17.5,184.8,99.9,1207.0,4616.0,2.0,0,
137000,1866.8,17.5,184.7,157.8,1207.0,4616.0,2.0,0,
137100,1865.3,15.3,184.7,239.6,1207.0,4616.0,2.0,0,
137200,1863.8,16.5,184.7,240.1,1207.0,4616.0,2.0,0,
137300,1862.9,15.4,184.7,240.0,1207.0,4616.0,2.0,0,
137400,1864.3,14.5,184.6,239.6,1207.0,4616.0,2.0,0,
137600,1855.6,65.2,181.7,239.5,1378.0,7450.0,4.0,1,
137700,1844.6,198.1,170.3,70.9,1705.0,6386.0,2.0,0,
137800,1883.8,264.4,163.3,38.2,1561.0,5907.0,2.0,0,
137900,1862.1,291.5,176.6,38.2,1419.0,5389.0,2.0,0,
138000,1878.0,208.2,168.1,135.3,1398.0,5398.0,2.0,0,
138100,1844.7,266.3,174.4,226.4,1929.0,5538.0,2.0,0,
138200,1854.0,42.5,175.0,227.8,1226.0,4557.0,2.0,0,
138300,1860.3,16.0,175.0,219.9,1226.0,4557.0,2.0,0,
138400,1864.4,17.8,175.0,157.6,1226.0,4557.0,2.0,0,
138600,1863.3,15.3,175.0,157.0,1226.0,4557.0,2.0,0,
138700,1863.6,16.2,175.0,239.9,1226.0,4557.0,2.0,0,
138800,1863.2,15.5,175.0,240.2,1226.0,4557.0,2.0,0,
138900,1861.9,15.2,175.0,240.4,1226.0,4557.0,2.0,0,
139000,1865.2,15.6,175.0,239.8,1226.0,4557.0,2.0,0,
139100,1865.1,13.7,175.0,239.7,1226.0,4557.0,2.0,0,
139200,1845.7,187.7,175.2,239.9,1256.0,7426.0,4.0,1,
139300,1893.8,257.1,183.4,52.1,1751.0,6731.0,2.0,0,
139400,1866.3,269.2,185.9,29.9,1533.0,5936.0,2.0,0,
139600,1876.4,258.9,181.0,188.9,1409.0,5533.0,2.0,0,
139700,1850.0,284.5,193.5,227.6,1216.0,4956.0,2.0,0,
139800,1871.6,55.0,184.1,228.6,1261.0,4773.0,2.0,0,
139900,1864.1,17.8,184.1,197.4,1261.0,4773.0,2.0,0,
140000,1861.2,15.7,184.2,133.8,1261.0,4773.0,2.0,0,
140100,1860.8,16.7,184.2,56.3,1261.0,4773.0,2.0,0,
140200,1864.0,15.5,184.2,68.0,1261.0,4773.0,2.0,0,
140300,1862.9,16.3,184.2,239.9,1261.0,4773.0,2.0,0,
140400,1862.9,15.1,184.2,240.2,1261.0,4773.0,2.0,0,
140600,1859.2,14.3,184.3,240.0,1261.0,4773.0,2.0,0,
140700,1863.0,16.7,184.3,239.7,1261.0,4773.0,2.0,0,
140800,1888.2,185.7,184.3,239.7,1408.0,8337.0,5.0,1,
140900,1846.9,220.7,186.5,41.8,1807.0,6872.0,2.0,0,
141000,1849.2,283.7,190.9,30.1,1872.0,6347.0,2.0,0,
141100,1860.5,234.5,186.4,39.8,1456.0,5501.0,2.0,0,
141200,1905.3,313.7,186.4,218.0,1499.0,5580.0,2.0,0,
141300,1829.0,222.3,189.3,228.5,1260.0,4889.0,2.0,0,
141400,1871.3,83.4,184.3,228.5,1358.0,5079.0,2.0,0,
141600,1861.8,15.7,183.9,141.9,1358.0,5079.0,2.0,0,
141700,1863.6,15.7,183.8,36.5,1358.0,5079.0,2.0,0,
141800,1864.9,17.5,183.8,43.3,1358.0,5079.0,2.0,0,
141900,1865.7,15.4,183.8,239.5,1358.0,5079.0,2.0,0,
142000,1865.8,16.9,183.7,240.1,1358.0,5079.0,2.0,0,
142100,1865.0,15.1,183.7,240.4,1358.0,5079.0,2.0,0,
142200,1863.8,16.2,183.6,239.7,1358.0,5079.0,2.0,0,
142300,1862.2,13.7,183.6,238.9,1358.0,5079.0,2.0,0,
142400,1861.1,147.9,183.7,239.4,1382.0,6691.0,2.0,0,
142600,1875.5,284.5,186.1,35.5,1563.0,5980.0,2.0,0,
142700,1868.4,206.8,179.7,94.6,1514.0,5869.0,2.0,0,
142800,1843.8,267.6,185.2,226.6,1949.0,5874.0,2.0,0,
142900,1852.8,220.4,181.7,229.6,1245.0,5005.0,2.0,0,
143000,1870.7,132.0,179.3,229.5,1348.0,5183.0,2.0,0,
143100,1877.9,22.2,179.2,227.6,1348.0,5183.0,2.0,0,
143200,1861.0,16.4,179.2,134.8,1348.0,5183.0,2.0,0,
143300,1862.1,16.8,179.2,93.0,1348.0,5183.0,2.0,0,
143400,1860.6,16.9,179.3,94.4,1348.0,5183.0,2.0,0,
143600,1861.6,15.9,179.5,240.3,1348.0,5183.0,2.0,0,
143700,1863.3,15.1,179.5,241.0,1348.0,5183.0,2.0,0,
143800,1862.4,15.7,179.5,240.1,1348.0,5183.0,2.0,0,
143900,1866.8,14.9,179.4,239.5,1348.0,5183.0,2.0,0,
144000,1860.7,132.7,179.5,240.0,1348.0,5183.0,2.0,0,
144100,1878.4,224.2,183.1,163.7,1552.0,6946.0,2.0,0,
144200,1833.1,213.9,185.6,93.8,1491.0,5544.0,2.0,0,
144300,1880.7,244.0,181.4,164.1,1705.0,6185.0,2.0,0,
144400,1838.7,320.0,195.4,226.5,1409.0,5501.0,2.0,0,
144600,1836.1,275.5,190.9,226.8,1524.0,5977.0,2.0,0,
144700,1849.8,28.4,197.5,197.8,1240.0,4811.0,2.0,0,
144800,1862.7,16.5,197.5,167.0,1240.0,4811.0,2.0,0,
144900,1863.3,17.1,197.4,149.3,1240.0,4811.0,2.0,0,
145000,1866.6,14.7,197.3,104.9,1240.0,4811.0,2.0,0,
145100,1864.4,14.5,197.2,188.3,1240.0,4811.0,2.0,0,
145200,1865.5,17.8,197.2,239.9,1240.0,4811.0,2.0,0,
145300,1866.0,16.7,197.1,240.1,1240.0,4811.0,2.0,0,
145400,1864.2,14.9,197.1,240.3,1240.0,4811.0,2.0,0,
145600,1864.6,15.6,197.1,240.1,1240.0,4811.0,2.0,0,
145700,1842.9,70.6,194.2,240.3,1303.0,7170.0,4.0,1,
145800,1867.2,240.2,180.7,77.8,1702.0,6231.0,2.0,0,
145900,1907.7,323.6,180.4,30.1,1689.0,6507.0,2.0,0,
146000,1824.3,247.1,187.3,30.1,1530.0,5644.0,2.0,0,
146100,1871.9,224.2,179.5,157.7,1622.0,6170.0,2.0,0,
146200,1848.0,309.5,187.8,197.3,1626.0,6077.0,2.0,0,
146300,1863.3,38.7,184.2,226.5,1520.0,5349.0,2.0,0,
146400,1861.0,15.4,184.2,196.7,1520.0,5349.0,2.0,0,
146600,1859.2,16.5,184.4,94.0,1520.0,5349.0,2.0,0,
146700,1864.4,13.2,184.4,113.2,1520.0,5349.0,2.0,0,
146800,1862.5,15.6,184.5,240.0,1520.0,5349.0,2.0,0,
146900,1864.5,17.8,184.5,239.7,1520.0,5349.0,2.0,0,
147000,1864.7,14.1,184.5,239.8,1520.0,5349.0,2.0,0,
147100,1863.2,14.7,184.4,240.0,1520.0,5349.0,2.0,0,
147200,1861.8,14.8,184.5,240.0,1520.0,5349.0,2.0,0,
147300,1876.0,180.1,184.5,240.0,1412.0,7904.0,4.0,1,
147400,1862.7,207.6,190.4,51.9,1665.0,6487.0,2.0,0,
147600,1863.5,232.7,187.9,43.1,1550.0,5746.0,2.0,0,
147700,1873.3,344.7,187.0,208.6,1653.0,6277.0,2.0,0,
147800,1879.3,286.1,197.3,228.5,1393.0,5418.0,2.0,0,
147900,1853.6,48.9,188.8,227.9,1439.0,5519.0,2.0,0,
148000,1863.3,14.1,188.7,189.1,1439.0,5519.0,2.0,0,
148100,1861.2,17.8,188.7,99.1,1439.0,5519.0,2.0,0,
148200,1865.3,16.0,188.6,36.4,1439.0,5519.0,2.0,0,
148300,1864.2,16.0,188.5,68.5,1439.0,5519.0,2.0,0,
148400,1863.8,17.7,188.5,239.9,1439.0,5519.0,2.0,0,
148600,1864.2,16.2,188.6,240.4,1439.0,5519.0,2.0,0,
148700,1862.5,15.7,188.6,240.6,1439.0,5519.0,2.0,0,
148800,1863.0,16.5,188.6,240.4,1439.0,5519.0,2.0,0,
148900,1867.0,148.1,189.0,240.1,1389.0,6015.0,2.0,0,
149000,1871.2,265.6,189.3,36.1,1426.0,5803.0,2.0,0,
149100,1843.6,291.9,198.9,30.2,1475.0,5477.0,2.0,0,
149200,1921.5,229.8,189.1,130.4,1456.0,5649.0,2.0,0,
149300,1834.0,262.3,195.0,227.5,1680.0,6103.0,2.0,0,
149400,1854.1,223.4,189.1,230.6,1520.0,5646.0,2.0,0,
149600,1871.0,18.3,186.2,197.2,1520.0,5646.0,2.0,0,
149700,1861.3,18.0,186.2,103.2,1520.0,5646.0,2.0,0,
149800,1862.3,15.3,186.3,92.2,1520.0,5646.0,2.0,0,
149900,1863.3,17.1,186.3,103.8,1520.0,5646.0,2.0,0,
150000,1860.7,14.3,186.4,239.7,1520.0,5646.0,2.0,0,
150100,1863.8,13.9,186.4,240.1,1520.0,5646.0,2.0,0,
150200,1860.8,17.1,186.4,240.2,1520.0,5646.0,2.0,0,
150300,1862.5,16.1,186.4,240.1,1520.0,5646.0,2.0,0,
150400,1862.2,12.5,186.5,239.9,1520.0,5646.0,2.0,0,
150600,1896.3,241.8,189.9,56.1,1437.0,6052.0,2.0,0,
150700,1825.1,234.1,193.5,45.7,1673.0,5908.0,2.0,0,
150800,1867.7,236.3,190.1,159.1,1794.0,6785.0,2.0,0,
150900,1846.4,326.5,200.0,197.8,1742.0,6335.0,2.0,0,
151000,1881.3,256.1,192.7,226.1,1661.0,5794.0,2.0,0,
151100,1874.5,105.7,196.0,226.4,1735.0,6245.0,2.0,0,
151200,1846.7,18.3,195.7,195.1,1735.0,6245.0,2.0,0,
151300,1861.9,19.0,195.6,170.0,1735.0,6245.0,2.0,0,
151400,1860.9,18.1,195.7,166.2,1735.0,6245.0,2.0,0,
151600,1862.6,13.8,195.6,240.1,1735.0,6245.0,2.0,0,
151700,1865.8,16.7,195.6,240.2,1735.0,6245.0,2.0,0,
151800,1862.4,17.0,195.5,240.2,1735.0,6245.0,2.0,0,
151900,1865.9,15.3,195.5,240.3,1735.0,6245.0,2.0,0,
152000,1864.0,19.3,195.4,240.3,1735.0,6245.0,2.0,0,
152100,1866.0,110.9,195.4,240.3,1735.0,6245.0,2.0,0,
152200,1848.3,281.6,204.5,187.1,1575.0,6045.0,2.0,0,
152300,1865.4,242.6,198.7,155.3,1603.0,6180.0,2.0,0,
152400,1874.0,265.8,199.0,158.0,1623.0,6205.0,2.0,0,
152600,1856.7,186.9,189.7,229.2,1837.0,6305.0,2.0,0,
152700,1842.8,215.3,199.2,229.2,1479.0,5705.0,2.0,0,
152800,1869.6,26.1,199.5,228.1,1479.0,5705.0,2.0,0,
152900,1861.8,17.9,199.5,164.7,1479.0,5705.0,2.0,0,
153000,1862.8,16.9,199.5,133.4,1479.0,5705.0,2.0,0,
153100,1863.0,16.8,199.5,100.1,1479.0,5705.0,2.0,0,
153200,1864.0,19.5,199.5,238.3,1479.0,5705.0,2.0,0,
153300,1866.5,17.0,199.5,240.6,1479.0,5705.0,2.0,0,
153400,1862.8,16.6,199.5,240.0,1479.0,5705.0,2.0,0,
153600,1862.5,14.9,199.6,240.0,1479.0,5705.0,2.0,0,
153700,1862.7,13.0,199.6,240.0,1479.0,5705.0,2.0,0,
153800,1843.4,185.8,194.7,239.4,1421.0,7477.0,4.0,1,
153900,1906.2,214.9,177.6,69.3,1466.0,5603.0,2.0,0,
154000,1824.7,250.4,183.9,34.5,1696.0,6564.0,2.0,0,
154100,1855.5,218.0,182.9,93.3,1790.0,6189.0,2.0,0,
154200,1873.4,291.8,181.0,226.0,1870.0,6530.0,2.0,0,
154300,1874.7,270.3,187.7,228.1,1697.0,5922.0,2.0,0,
154400,1857.8,29.0,180.2,229.9,1725.0,6053.0,2.0,0,
154600,1864.1,17.1,180.1,100.2,1725.0,6053.0,2.0,0,
154700,1865.6,15.6,180.1,38.7,1725.0,6053.0,2.0,0,
154800,1864.3,16.3,180.1,227.1,1725.0,6053.0,2.0,0,
154900,1865.6,17.5,180.1,240.6,1725.0,6053.0,2.0,0,
155000,1863.8,15.3,180.0,240.5,1725.0,6053.0,2.0,0,
155100,1862.7,18.1,180.1,240.2,1725.0,6053.0,2.0,0,
155200,1863.1,14.2,180.1,240.0,1725.0,6053.0,2.0,0,
155300,1861.8,14.7,180.1,239.8,1725.0,6053.0,2.0,0,
155400,1873.3,181.0,183.2,238.6,1409.0,5927.0,2.0,0,
155600,1846.7,280.5,194.6,29.9,1407.0,5000.0,2.0,0,
155700,1897.0,248.5,183.7,105.2,1491.0,5612.0,2.0,0,
155800,1849.0,293.5,193.1,227.2,2099.0,6053.0,2.0,0,
155900,1851.5,198.9,188.1,228.1,1552.0,5684.0,2.0,0,
156000,1873.7,38.5,186.0,227.3,1575.0,5955.0,2.0,0,
156100,1861.5,14.6,186.1,187.7,1575.0,5955.0,2.0,0,
156200,1862.7,16.0,186.1,68.4,1575.0,5955.0,2.0,0,
156300,1864.0,15.8,186.1,37.9,1575.0,5955.0,2.0,0,
156400,1864.1,15.4,186.2,164.5,1575.0,5955.0,2.0,0,
156600,1862.5,13.6,186.3,239.8,1575.0,5955.0,2.0,0,
156700,1862.8,16.9,186.2,239.9,1575.0,5955.0,2.0,0,
156800,1864.3,15.9,186.2,240.2,1575.0,5955.0,2.0,0,
156900,1862.7,16.0,186.2,240.4,1575.0,5955.0,2.0,0,
157000,1862.8,229.0,187.7,239.7,1541.0,6347.0,2.0,0,
157100,1860.8,332.3,195.2,36.3,2048.0,6140.0,2.0,0,
157200,1884.9,225.1,191.6,67.4,1736.0,6049.0,2.0,0,
157300,1851.5,250.0,188.7,158.7,2070.0,7230.0,2.0,0,
157400,1839.4,259.3,199.0,200.7,1756.0,5966.0,2.0,0,
157600,1860.8,54.1,192.4,226.7,1870.0,6834.0,2.0,0,
157700,1867.5,19.2,192.4,196.3,1870.0,6834.0,2.0,0,
157800,1861.7,17.1,192.3,158.1,1870.0,6834.0,2.0,0,
157900,1862.0,15.9,192.4,157.3,1870.0,6834.0,2.0,0,
158000,1863.4,16.1,192.4,164.9,1870.0,6834.0,2.0,0,
158100,1864.2,15.3,192.4,240.0,1870.0,6834.0,2.0,0,
158200,1865.3,15.7,192.3,239.9,1870.0,6834.0,2.0,0,
158300,1864.6,17.3,192.3,239.8,1870.0,6834.0,2.0,0,
158400,1867.4,16.0,192.2,239.8,1870.0,6834.0,2.0,0,
158600,1894.4,48.6,191.7,239.7,1595.0,8387.0,4.0,1,
158700,1813.5,49.6,180.7,237.7,1578.0,7516.0,4.0,1,
158800,1871.8,224.0,164.6,67.8,1587.0,6033.0,2.0,0,
158900,1860.1,306.1,168.7,66.1,1622.0,6313.0,2.0,0,
159000,1892.4,251.3,166.4,93.6,1457.0,5389.0,2.0,0,
159100,1854.9,216.4,163.1,195.6,1552.0,5768.0,2.0,0,
159200,1832.0,94.6,168.3,226.7,1326.0,5299.0,2.0,0,
159300,1866.8,21.2,167.9,227.6,1326.0,5299.0,2.0,0,
159400,1861.3,14.9,167.9,188.6,1326.0,5299.0,2.0,0,
159600,1863.6,15.9,167.9,101.8,1326.0,5299.0,2.0,0,
159700,1863.3,16.8,167.9,240.1,1326.0,5299.0,2.0,0,
159800,1864.4,16.5,167.9,240.2,1326.0,5299.0,2.0,0,
159900,1865.3,15.4,167.9,239.8,1326.0,5299.0,2.0,0,
160000,1862.4,15.4,168.0,240.2,1326.0,5299.0,2.0,0,
160100,1860.9,19.1,168.0,240.3,1326.0,5299.0,2.0,0,
160200,1863.5,47.1,168.1,240.0,1514.0,8682.0,4.0,1,
160300,1849.1,230.3,172.5,178.4,1442.0,5820.0,2.0,0,
160400,1904.8,249.1,180.0,29.9,1822.0,6683.0,2.0,0,
160600,1870.4,204.9,175.4,155.0,1920.0,6665.0,2.0,0,
160700,1850.7,322.1,184.2,228.5,1853.0,6795.0,2.0,0,
160800,1868.9,142.1,186.6,228.2,1820.0,6234.0,2.0,0,
160900,1877.3,20.0,183.0,197.8,1820.0,6234.0,2.0,0,
161000,1860.4,17.3,183.0,134.6,1820.0,6234.0,2.0,0,
161100,1860.8,17.0,183.1,67.7,1820.0,6234.0,2.0,0,
161200,1862.6,14.3,183.0,38.1,1820.0,6234.0,2.0,0,
161300,1862.7,14.7,183.1,239.8,1820.0,6234.0,2.0,0,
161400,1862.7,17.0,183.1,240.4,1820.0,6234.0,2.0,0,
161600,1863.6,14.4,183.1,239.9,1820.0,6234.0,2.0,0,
161700,1863.2,16.2,183.1,239.9,1820.0,6234.0,2.0,0,
161800,1865.6,149.5,183.0,240.1,1820.0,6234.0,2.0,0,
161900,1898.1,210.7,187.0,92.4,1437.0,6057.0,2.0,0,
162000,1833.6,256.4,192.4,35.0,1506.0,5902.0,2.0,0,
162100,1858.9,228.4,191.9,43.3,1432.0,5343.0,2.0,0,
162200,1875.3,258.4,187.4,196.8,1379.0,5372.0,2.0,0,
162300,1875.1,266.9,193.7,227.6,1296.0,4992.0,2.0,0,
162400,1861.8,208.3,182.0,229.7,1394.0,5279.0,2.0,0,
162600,1862.0,14.0,182.3,155.7,1394.0,5279.0,2.0,0,
162700,1861.0,13.7,182.3,41.2,1394.0,5279.0,2.0,0,
162800,1862.2,16.3,182.3,46.9,1394.0,5279.0,2.0,0,
162900,1863.6,15.2,182.3,188.7,1394.0,5279.0,2.0,0,
163000,1864.5,14.4,182.2,240.5,1394.0,5279.0,2.0,0,
163100,1864.5,15.7,182.2,240.8,1394.0,5279.0,2.0,0,
163200,1863.0,16.6,182.2,241.0,1394.0,5279.0,2.0,0,
163300,1862.5,15.0,182.3,240.8,1394.0,5279.0,2.0,0,
163400,1862.8,21.8,182.3,240.6,1394.0,5279.0,2.0,0,
163600,1846.7,283.7,190.6,83.6,1457.0,5552.0,2.0,0,
163700,1919.8,236.9,180.9,114.4,1769.0,6771.0,2.0,0,
163800,1823.7,264.1,187.0,166.0,2094.0,7417.0,2.0,0,
163900,1860.1,202.8,184.3,227.9,1868.0,6389.0,2.0,0,
164000,1875.4,309.4,181.8,230.1,1983.0,6942.0,2.0,0,
164100,1855.9,39.2,192.5,227.6,1656.0,5703.0,2.0,0,
164200,1859.9,15.2,192.6,189.8,1656.0,5703.0,2.0,0,
164300,1858.8,14.9,192.6,154.5,1656.0,5703.0,2.0,0,
164400,1863.5,16.8,192.6,130.6,1656.0,5703.0,2.0,0,
164600,1864.6,16.3,192.6,239.9,1656.0,5703.0,2.0,0,
164700,1862.5,16.9,192.6,239.8,1656.0,5703.0,2.0,0,
164800,1865.7,14.6,192.6,239.7,1656.0,5703.0,2.0,0,
164900,1866.3,15.2,192.5,239.8,1656.0,5703.0,2.0,0,
165000,1863.1,14.9,192.5,239.8,1656.0,5703.0,2.0,0,
165100,1871.0,67.2,191.3,239.8,1452.0,7822.0,4.0,1,
165200,1854.8,204.7,180.3,124.6,1402.0,5264.0,2.0,0,
165300,1861.7,245.6,177.0,38.9,1455.0,5792.0,2.0,0,
165400,1840.6,261.4,188.6,35.5,1418.0,5156.0,2.0,0,
165600,1882.7,320.5,188.0,219.0,1957.0,5851.0,2.0,0,
165700,1836.8,52.2,183.3,220.4,1356.0,4982.0,2.0,0,
165800,1864.1,16.9,183.3,197.3,1356.0,4982.0,2.0,0,
165900,1863.4,16.4,183.2,132.2,1356.0,4982.0,2.0,0,
166000,1861.2,14.8,183.2,79.7,1356.0,4982.0,2.0,0,
166100,1863.8,16.3,183.2,93.0,1356.0,4982.0,2.0,0,
166200,1864.1,15.3,183.2,239.9,1356.0,4982.0,2.0,0,
166300,1861.9,14.3,183.3,240.1,1356.0,4982.0,2.0,0,
166400,1863.4,16.3,183.3,239.9,1356.0,4982.0,2.0,0,
166600,1865.2,16.4,183.4,240.4,1356.0,4982.0,2.0,0,
166700,1856.4,82.8,184.0,240.9,1516.0,8170.0,4.0,1,
166800,1871.0,228.8,185.1,92.7,1458.0,5775.0,2.0,0,
166900,1850.9,338.2,191.7,29.7,1604.0,6271.0,2.0,0,
167000,1905.5,254.6,189.1,34.4,1539.0,5590.0,2.0,0,
167100,1849.6,202.5,186.9,188.7,1893.0,6553.0,2.0,0,
167200,1837.0,238.4,194.6,226.7,1611.0,5698.0,2.0,0,
167300,1878.7,70.1,183.4,228.9,1767.0,6113.0,2.0,0,
167400,1874.8,19.2,183.4,227.0,1767.0,6113.0,2.0,0,
167600,1860.9,17.9,183.5,36.8,1767.0,6113.0,2.0,0,
167700,1864.7,14.0,183.5,45.6,1767.0,6113.0,2.0,0,
167800,1863.1,16.9,183.5,239.9,1767.0,6113.0,2.0,0,
167900,1865.5,18.0,183.4,239.9,1767.0,6113.0,2.0,0,
168000,1863.6,17.2,183.4,239.8,1767.0,6113.0,2.0,0,
168100,1866.6,14.8,183.4,240.0,1767.0,6113.0,2.0,0,
168200,1863.5,15.9,183.4,240.1,1767.0,6113.0,2.0,0,
168300,1861.3,208.8,183.4,240.0,1474.0,6841.0,2.0,0,
168400,1919.7,252.3,186.0,45.6,1554.0,6450.0,2.0,0,
168600,1867.4,212.3,182.5,94.2,1999.0,6562.0,2.0,0,
168700,1864.8,296.1,183.9,227.5,2082.0,7253.0,2.0,0,
168800,1857.3,253.4,189.0,229.2,1829.0,6090.0,2.0,0,
168900,1909.5,110.0,181.8,229.1,1966.0,6618.0,2.0,0,
169000,1840.5,20.1,181.5,226.4,1966.0,6618.0,2.0,0,
169100,1863.7,15.4,181.4,131.2,1966.0,6618.0,2.0,0,
169200,1863.4,16.4,181.3,45.2,1966.0,6618.0,2.0,0,
169300,1862.5,12.7,181.3,77.1,1966.0,6618.0,2.0,0,
169400,1861.0,17.3,181.4,239.5,1966.0,6618.0,2.0,0,
169600,1865.4,14.6,181.3,240.1,1966.0,6618.0,2.0,0,
169700,1865.1,15.8,181.3,240.1,1966.0,6618.0,2.0,0,
169800,1862.7,15.1,181.3,240.1,1966.0,6618.0,2.0,0,
169900,1863.0,113.4,181.3,240.2,1966.0,6618.0,2.0,0,
170000,1861.2,267.4,183.2,99.7,1473.0,6377.0,2.0,0,
170100,1844.6,269.5,191.1,65.5,1773.0,6299.0,2.0,0,
170200,1881.1,253.4,186.7,133.4,2017.0,6983.0,2.0,0,
170300,1879.7,322.1,195.2,194.9,2018.0,7091.0,2.0,0,
170400,1849.1,204.8,191.4,228.0,1840.0,6150.0,2.0,0,
170600,1864.7,24.4,196.1,196.8,1840.0,6150.0,2.0,0,
170700,1862.5,15.2,196.0,166.2,1840.0,6150.0,2.0,0,
170800,1861.0,14.8,196.1,158.3,1840.0,6150.0,2.0,0,
170900,1862.3,14.5,196.1,156.4,1840.0,6150.0,2.0,0,
171000,1863.4,14.4,196.1,234.6,1840.0,6150.0,2.0,0,
171100,1862.5,12.5,196.2,240.1,1840.0,6150.0,2.0,0,
171200,1859.5,15.7,196.3,240.2,1840.0,6150.0,2.0,0,
171300,1859.8,13.9,196.3,240.0,1840.0,6150.0,2.0,0,
171400,1864.3,15.3,196.3,240.1,1840.0,6150.0,2.0,0,
171600,1840.5,58.3,192.3,239.6,1506.0,8017.0,4.0,1,
171700,1918.5,241.9,176.2,68.6,1896.0,6889.0,2.0,0,
171800,1840.6,218.2,174.9,36.4,2114.0,7419.0,2.0,0,
171900,1839.7,260.5,186.5,30.2,1871.0,6449.0,2.0,0,
172000,1884.0,235.9,174.3,142.2,2038.0,6734.0,2.0,0,
172100,1862.6,344.1,183.6,199.2,1993.0,6729.0,2.0,0,
172200,1857.4,34.7,184.1,221.7,1663.0,5834.0,2.0,0,
172300,1862.3,15.8,184.1,198.0,1663.0,5834.0,2.0,0,
172400,1862.5,15.1,184.0,136.2,1663.0,5834.0,2.0,0,
172600,1863.6,16.1,184.0,156.2,1663.0,5834.0,2.0,0,
172700,1864.1,18.0,184.1,240.5,1663.0,5834.0,2.0,0,
172800,1864.7,15.3,184.0,241.0,1663.0,5834.0,2.0,0,
172900,1863.3,13.7,184.0,240.5,1663.0,5834.0,2.0,0,
173000,1865.4,17.0,183.9,240.1,1663.0,5834.0,2.0,0,
173100,1863.6,15.2,183.9,240.2,1663.0,5834.0,2.0,0,
173200,1851.1,56.8,183.8,240.4,1447.0,7810.0,4.0,1,
173300,1867.0,218.0,184.2,94.4,1460.0,5909.0,2.0,0,
173400,1859.8,295.9,186.7,36.6,2032.0,7520.0,2.0,0,
173600,1889.2,225.6,178.7,195.0,2039.0,7017.0,2.0,0,
173700,1825.1,216.3,186.2,228.2,1656.0,6347.0,2.0,0,
173800,1883.5,40.9,175.7,229.7,1774.0,6360.0,2.0,0,
173900,1860.6,16.7,175.8,226.8,1774.0,6360.0,2.0,0,
174000,1865.7,14.4,175.7,156.0,1774.0,6360.0,2.0,0,
174100,1861.7,16.4,175.7,70.3,1774.0,6360.0,2.0,0,
174200,1865.2,15.7,175.7,150.7,1774.0,6360.0,2.0,0,
174300,1863.5,14.4,175.6,240.8,1774.0,6360.0,2.0,0,
174400,1863.1,14.7,175.7,240.9,1774.0,6360.0,2.0,0,
174600,1863.0,16.9,175.7,240.6,1774.0,6360.0,2.0,0,
174700,1864.1,18.9,175.7,240.5,1774.0,6360.0,2.0,0,
174800,1861.9,201.8,175.6,240.2,1535.0,6363.0,2.0,0,
174900,1883.0,285.1,183.2,36.6,1585.0,6331.0,2.0,0,
175000,1870.6,244.3,188.1,30.2,2055.0,7453.0,2.0,0,
175100,1861.5,178.2,179.3,112.4,1872.0,6721.0,2.0,0,
175200,1851.3,304.9,182.7,228.2,1822.0,6633.0,2.0,0,
175300,1868.0,238.8,187.5,233.7,1810.0,6087.0,2.0,0,
175400,1880.8,52.5,180.7,229.2,1887.0,6846.0,2.0,0,
175600,1863.7,17.0,180.8,93.5,1887.0,6846.0,2.0,0,
175700,1861.1,17.6,180.9,68.5,1887.0,6846.0,2.0,0,
175800,1865.7,14.9,180.8,139.0,1887.0,6846.0,2.0,0,
175900,1862.1,17.0,180.9,240.3,1887.0,6846.0,2.0,0,
176000,1864.3,13.3,180.9,240.4,1887.0,6846.0,2.0,0,
176100,1863.9,15.7,180.8,240.3,1887.0,6846.0,2.0,0,
176200,1863.1,17.2,180.9,240.3,1887.0,6846.0,2.0,0,
176300,1864.0,17.1,180.8,239.9,1887.0,6846.0,2.0,0,
176400,1903.7,196.6,182.2,239.4,1540.0,7268.0,2.0,0,
176600,1851.4,229.9,190.0,52.8,1493.0,5622.0,2.0,0,
176700,1879.8,267.2,187.7,157.7,1899.0,7007.0,2.0,0,
176800,1871.2,303.1,198.1,196.5,1748.0,6151.0,2.0,0,
176900,1876.1,223.0,190.9,229.0,1854.0,6376.0,2.0,0,
177000,1837.9,86.5,196.3,227.8,1950.0,7209.0,2.0,0,
177100,1870.5,18.5,196.0,199.9,1950.0,7209.0,2.0,0,
177200,1861.1,15.3,196.0,167.9,1950.0,7209.0,2.0,0,
177300,1862.1,16.6,196.0,165.9,1950.0,7209.0,2.0,0,
177400,1863.3,13.1,196.0,170.4,1950.0,7209.0,2.0,0,
177600,1863.0,16.7,196.1,240.1,1950.0,7209.0,2.0,0,
177700,1864.6,14.4,196.1,240.3,1950.0,7209.0,2.0,0,
177800,1865.0,16.5,196.1,240.7,1950.0,7209.0,2.0,0,
177900,1863.7,15.9,196.1,240.9,1950.0,7209.0,2.0,0,
178000,1864.7,44.7,196.0,240.9,1574.0,8657.0,4.0,1,
178100,1841.3,173.0,188.1,239.7,1590.0,7996.0,4.0,1,
178200,1892.8,236.5,171.7,66.2,1369.0,5606.0,2.0,0,
178300,1863.3,212.3,174.5,44.7,1746.0,6322.0,2.0,0,
178400,1836.9,213.1,174.4,74.1,1651.0,6136.0,2.0,0,
178600,1852.0,166.3,174.6,227.6,1489.0,5708.0,2.0,0,
178700,1865.2,23.7,175.8,227.7,1489.0,5708.0,2.0,0,
178800,1860.6,16.6,175.8,213.2,1489.0,5708.0,2.0,0,
178900,1861.3,16.4,175.8,158.2,1489.0,5708.0,2.0,0,
179000,1865.8,16.8,175.8,101.4,1489.0,5708.0,2.0,0,
179100,1864.3,16.5,175.7,238.8,1489.0,5708.0,2.0,0,
179200,1863.2,16.1,175.7,240.1,1489.0,5708.0,2.0,0,
179300,1860.6,14.1,175.7,239.9,1489.0,5708.0,2.0,0,
179400,1861.7,16.7,175.8,239.5,1489.0,5708.0,2.0,0,
179600,1861.1,34.5,175.9,240.2,1489.0,5708.0,2.0,0,
179700,1867.1,175.5,176.0,239.8,1511.0,7772.0,4.0,1,
179800,1861.3,210.7,179.2,50.3,1583.0,6185.0,2.0,0,
179900,1847.2,316.9,184.5,30.0,1898.0,6907.0,2.0,0,
180000,1869.2,244.0,184.6,85.0,1813.0,6443.0,2.0,0,
180100,1908.5,259.5,184.0,199.7,1932.0,6978.0,2.0,0,
180200,1824.5,248.5,188.8,218.2,1706.0,6068.0,2.0,0,
180300,1864.2,25.9,185.8,228.9,1776.0,6071.0,2.0,0,
180400,1859.1,16.9,185.8,168.6,1776.0,6071.0,2.0,0,
180600,1864.2,13.9,185.8,37.8,1776.0,6071.0,2.0,0,
180700,1866.2,14.5,185.8,201.4,1776.0,6071.0,2.0,0,
180800,1865.2,16.7,185.8,240.6,1776.0,6071.0,2.0,0,
180900,1863.3,14.6,185.7,240.0,1776.0,6071.0,2.0,0,
181000,1863.3,16.2,185.7,240.0,1776.0,6071.0,2.0,0,
181100,1864.7,16.7,185.6,240.7,1776.0,6071.0,2.0,0,
181200,1863.0,14.5,185.6,241.0,1776.0,6071.0,2.0,0,
181300,1845.7,181.8,185.6,240.1,1447.0,5946.0,2.0,0,
181400,1884.6,245.7,187.8,30.1,1466.0,5934.0,2.0,0,
181600,1865.2,216.3,184.8,90.3,1658.0,6093.0,2.0,0,
181700,1848.4,239.8,187.7,226.5,1782.0,6877.0,2.0,0,
181800,1850.8,256.0,183.5,227.6,1682.0,5877.0,2.0,0,
181900,1885.3,36.7,181.2,237.5,1725.0,6121.0,2.0,0,
182000,1864.0,15.9,181.2,226.0,1725.0,6121.0,2.0,0,
182100,1861.3,15.8,181.2,84.9,1725.0,6121.0,2.0,0,
182200,1865.8,16.6,181.1,36.0,1725.0,6121.0,2.0,0,
182300,1863.6,15.2,181.2,94.5,1725.0,6121.0,2.0,0,
182400,1864.0,15.2,181.2,240.2,1725.0,6121.0,2.0,0,
182600,1862.7,13.8,181.2,240.7,1725.0,6121.0,2.0,0,
182700,1862.7,18.4,181.2,240.6,1725.0,6121.0,2.0,0,
182800,1863.9,16.5,181.2,240.4,1725.0,6121.0,2.0,0,
182900,1884.8,245.4,182.6,240.2,1443.0,6264.0,2.0,0,
183000,1868.2,198.8,186.9,35.9,1663.0,6371.0,2.0,0,
183100,1828.7,265.1,189.9,30.1,1975.0,7279.0,2.0,0,
183200,1868.1,257.6,191.0,90.5,2082.0,6918.0,2.0,0,
183300,1858.3,356.5,196.9,228.1,2125.0,7565.0,2.0,0,
183400,1909.0,274.0,201.5,227.0,1767.0,6098.0,2.0,0,
183600,1863.6,18.7,198.8,190.2,1767.0,6098.0,2.0,0,
183700,1861.8,14.5,198.8,87.0,1767.0,6098.0,2.0,0,
183800,1861.0,15.5,198.9,35.9,1767.0,6098.0,2.0,0,
183900,1863.7,17.1,198.9,92.1,1767.0,6098.0,2.0,0,
184000,1864.0,16.6,198.9,239.9,1767.0,6098.0,2.0,0,
184100,1862.4,16.0,198.9,240.4,1767.0,6098.0,2.0,0,
184200,1865.7,16.5,198.9,240.2,1767.0,6098.0,2.0,0,
184300,1862.5,14.8,198.9,240.3,1767.0,6098.0,2.0,0,
184400,1861.5,15.6,198.9,240.4,1767.0,6098.0,2.0,0,
184600,1867.2,296.4,197.0,37.5,1483.0,6233.0,2.0,0,
184700,1840.5,303.1,208.1,37.6,1512.0,5760.0,2.0,0,
184800,1929.1,220.9,199.1,158.0,1766.0,6292.0,2.0,0,
184900,1820.0,260.3,202.2,195.7,1855.0,6857.0,2.0,0,
185000,1859.3,216.2,192.3,199.9,1713.0,6242.0,2.0,0,
185100,1869.4,71.6,191.1,231.4,1892.0,6752.0,2.0,0,
185200,1873.1,17.2,191.1,198.1,1892.0,6752.0,2.0,0,
185300,1860.9,14.3,191.1,99.5,1892.0,6752.0,2.0,0,
185400,1861.6,16.3,191.1,93.1,1892.0,6752.0,2.0,0,
185600,1863.8,16.3,191.0,240.0,1892.0,6752.0,2.0,0,
185700,1864.5,14.0,191.0,239.7,1892.0,6752.0,2.0,0,
185800,1865.6,13.7,190.9,239.7,1892.0,6752.0,2.0,0,
185900,1861.3,18.1,191.0,239.6,1892.0,6752.0,2.0,0,
186000,1866.3,16.5,190.9,239.5,1892.0,6752.0,2.0,0,
186100,1863.0,192.4,190.9,239.7,1654.0,7348.0,2.0,0,
186200,1882.5,330.4,198.1,100.4,1565.0,6474.0,2.0,0,
186300,1841.5,209.7,193.3,99.3,1850.0,6752.0,2.0,0,
186400,1868.9,237.1,188.2,163.5,2148.0,7304.0,2.0,0,
186600,1885.9,263.8,191.7,228.3,1921.0,6564.0,2.0,0,
186700,1884.7,147.2,200.3,226.7,1632.0,5731.0,2.0,0,
186800,1840.6,20.2,202.8,197.4,1632.0,5731.0,2.0,0,
186900,1860.8,17.3,202.8,158.1,1632.0,5731.0,2.0,0,
187000,1865.3,16.3,202.7,132.5,1632.0,5731.0,2.0,0,
187100,1865.9,16.1,202.7,100.3,1632.0,5731.0,2.0,0,
187200,1862.8,14.7,202.7,238.1,1632.0,5731.0,2.0,0,
187300,1865.0,14.2,202.6,240.0,1632.0,5731.0,2.0,0,
187400,1864.7,14.5,202.7,240.2,1632.0,5731.0,2.0,0,
187600,1865.3,13.3,202.6,240.3,1632.0,5731.0,2.0,0,
187700,1861.1,46.9,202.6,239.9,1632.0,5731.0,2.0,0,
187800,1837.1,95.5,195.6,237.8,2052.0,9613.0,4.0,1,
187900,1874.1,223.9,179.4,53.0,1750.0,6322.0,2.0,0,
188000,1857.0,318.3,184.9,34.8,1803.0,6462.0,2.0,0,
188100,1892.1,242.1,183.6,39.0,1648.0,5614.0,2.0,0,
188200,1854.3,177.9,176.2,195.8,1652.0,5871.0,2.0,0,
188300,1836.6,220.2,189.5,227.5,1521.0,5534.0,2.0,0,
188400,1869.7,22.9,181.8,227.7,1521.0,5534.0,2.0,0,
188600,1860.5,14.1,181.9,130.6,1521.0,5534.0,2.0,0,
188700,1864.2,14.2,181.9,94.4,1521.0,5534.0,2.0,0,
188800,1862.8,15.7,181.9,200.0,1521.0,5534.0,2.0,0,
188900,1861.8,14.7,181.9,240.5,1521.0,5534.0,2.0,0,
189000,1861.9,14.9,182.0,240.4,1521.0,5534.0,2.0,0,
189100,1863.8,13.1,182.0,240.5,1521.0,5534.0,2.0,0,
189200,1863.4,14.2,182.0,240.6,1521.0,5534.0,2.0,0,
189300,1860.8,12.0,182.1,240.6,1521.0,5534.0,2.0,0,
189400,1844.8,258.2,182.2,240.1,1877.0,7449.0,2.0,0,
189600,1817.4,276.4,199.1,34.3,2252.0,7071.0,2.0,0,
189700,1865.8,226.1,192.6,93.1,1797.0,6273.0,2.0,0,
189800,1867.8,322.3,194.4,198.1,1903.0,6846.0,2.0,0,
189900,1859.4,271.2,201.5,198.1,1597.0,5917.0,2.0,0,
190000,1871.7,29.0,191.8,228.4,1716.0,5960.0,2.0,0,
190100,1862.6,14.5,191.7,194.4,1716.0,5960.0,2.0,0,
190200,1861.4,14.7,191.7,99.0,1716.0,5960.0,2.0,0,
190300,1862.7,14.8,191.7,37.7,1716.0,5960.0,2.0,0,
190400,1860.4,15.2,191.7,195.2,1716.0,5960.0,2.0,0,
190600,1864.4,13.8,191.7,242.8,1716.0,5960.0,2.0,0,
190700,1866.1,14.3,191.6,240.4,1716.0,5960.0,2.0,0,
190800,1866.6,14.6,191.6,240.4,1716.0,5960.0,2.0,0,
190900,1862.5,14.5,191.6,240.6,1716.0,5960.0,2.0,0,
191000,1867.6,193.1,194.5,239.9,1533.0,6434.0,2.0,0,
191100,1868.6,248.9,193.2,34.4,2028.0,7530.0,2.0,0,
191200,1844.5,290.2,197.4,30.1,1917.0,6680.0,2.0,0,
191300,1888.0,230.5,190.1,98.8,2019.0,6787.0,2.0,0,
191400,1880.8,314.0,191.9,228.0,2028.0,7145.0,2.0,0,
191600,1881.8,40.2,191.1,227.4,1822.0,6335.0,2.0,0,
191700,1863.8,17.2,191.1,159.1,1822.0,6335.0,2.0,0,
191800,1864.7,15.3,191.0,92.9,1822.0,6335.0,2.0,0,
191900,1864.4,16.8,191.0,36.1,1822.0,6335.0,2.0,0,
192000,1866.4,16.7,190.9,137.4,1822.0,6335.0,2.0,0,
192100,1863.8,14.7,190.9,240.3,1822.0,6335.0,2.0,0,
192200,1863.7,15.2,190.9,240.2,1822.0,6335.0,2.0,0,
192300,1864.5,16.0,190.9,239.9,1822.0,6335.0,2.0,0,
192400,1864.2,14.0,190.9,240.0,1822.0,6335.0,2.0,0,
192600,1860.1,204.1,190.6,240.2,1538.0,6516.0,2.0,0,
192700,1883.6,253.6,191.6,34.7,1474.0,6261.0,2.0,0,
192800,1870.9,267.9,190.4,30.0,1506.0,5711.0,2.0,0,
192900,1860.1,181.3,187.3,94.7,1760.0,6630.0,2.0,0,
193000,1850.9,320.2,190.6,227.3,2160.0,6973.0,2.0,0,
193100,1863.7,241.8,186.8,228.8,1633.0,5963.0,2.0,0,
193200,1883.7,54.0,185.3,227.6,1745.0,6643.0,2.0,0,
193300,1866.5,16.2,185.4,169.0,1745.0,6643.0,2.0,0,
193400,1863.1,13.5,185.4,93.0,1745.0,6643.0,2.0,0,
193600,1864.3,13.8,185.4,99.1,1745.0,6643.0,2.0,0,
193700,1861.6,13.4,185.4,239.8,1745.0,6643.0,2.0,0,
193800,1862.3,15.4,185.4,239.7,1745.0,6643.0,2.0,0,
193900,1863.4,17.0,185.5,240.3,1745.0,6643.0,2.0,0,
194000,1864.4,15.9,185.5,240.3,1745.0,6643.0,2.0,0,
194100,1866.0,17.4,185.5,240.0,1745.0,6643.0,2.0,0,
194200,1908.5,192.8,186.3,239.7,1618.0,7380.0,2.0,0,
194300,1836.0,195.0,188.4,39.2,1496.0,6399.0,2.0,0,
194400,1839.3,248.2,195.0,36.6,1927.0,6860.0,2.0,0,
194600,1870.4,352.8,202.5,197.0,1978.0,6901.0,2.0,0,
194700,1871.1,213.3,195.4,225.9,1972.0,6438.0,2.0,0,
194800,1852.9,83.9,197.3,221.0,1914.0,6857.0,2.0,0,
194900,1869.7,18.2,196.9,195.0,1914.0,6857.0,2.0,0,
195000,1863.1,17.6,196.9,152.0,1914.0,6857.0,2.0,0,
195100,1860.9,16.3,197.0,140.8,1914.0,6857.0,2.0,0,
195200,1863.7,15.5,197.1,157.7,1914.0,6857.0,2.0,0,
195300,1862.0,18.1,197.1,239.3,1914.0,6857.0,2.0,0,
195400,1865.0,14.6,197.0,240.1,1914.0,6857.0,2.0,0,
195600,1863.6,16.4,197.0,240.1,1914.0,6857.0,2.0,0,
195700,1864.1,14.6,197.0,239.9,1914.0,6857.0,2.0,0,
195800,1863.0,159.7,197.0,240.2,1555.0,7194.0,2.0,0,
195900,1860.5,318.3,199.3,93.1,1503.0,6476.0,2.0,0,
196000,1875.2,280.8,199.3,92.7,1340.0,5455.0,2.0,0,
196100,1881.0,210.8,198.0,158.5,1513.0,5951.0,2.0,0,
196200,1826.4,244.2,203.1,195.4,1424.0,5423.0,2.0,0,
196300,1874.4,239.7,194.3,228.9,1808.0,6309.0,2.0,0,
196400,1865.8,137.7,196.9,228.4,1823.0,6803.0,2.0,0,
196600,1862.7,16.4,199.4,196.7,1823.0,6803.0,2.0,0,
196700,1860.9,13.9,199.4,183.2,1823.0,6803.0,2.0,0,
196800,1864.9,15.8,199.3,188.6,1823.0,6803.0,2.0,0,
196900,1864.2,17.6,199.3,240.0,1823.0,6803.0,2.0,0,
197000,1865.8,14.3,199.3,240.3,1823.0,6803.0,2.0,0,
197100,1864.1,19.4,199.3,240.3,1823.0,6803.0,2.0,0,
197200,1867.5,14.7,199.2,240.3,1823.0,6803.0,2.0,0,
197300,1863.3,15.3,199.3,240.1,1823.0,6803.0,2.0,0,
197400,1863.5,29.7,199.2,239.9,1823.0,6803.0,2.0,0,
197600,1847.1,192.4,177.2,68.0,1433.0,5731.0,2.0,0,
197700,1867.2,249.9,176.1,55.1,1612.0,6055.0,2.0,0,
197800,1843.3,276.5,182.9,69.9,1286.0,5034.0,2.0,0,
197900,1918.8,224.9,173.0,197.0,1714.0,6295.0,2.0,0,
198000,1829.4,289.3,179.3,228.9,2306.0,6492.0,2.0,0,
198100,1853.8,29.1,182.4,228.0,1548.0,5567.0,2.0,0,
198200,1859.8,16.4,182.4,165.8,1548.0,5567.0,2.0,0,
198300,1865.3,14.8,182.4,132.0,1548.0,5567.0,2.0,0,
198400,1863.8,15.8,182.3,98.9,1548.0,5567.0,2.0,0,
198600,1866.2,13.2,182.3,240.4,1548.0,5567.0,2.0,0,
198700,1862.4,15.4,182.3,240.7,1548.0,5567.0,2.0,0,
198800,1864.4,15.8,182.4,240.2,1548.0,5567.0,2.0,0,
198900,1861.5,16.8,182.4,239.8,1548.0,5567.0,2.0,0,
199000,1863.7,18.0,182.4,239.5,1548.0,5567.0,2.0,0,
199100,1839.2,121.8,182.6,238.1,1571.0,7992.0,4.0,1,
199200,1880.2,236.4,183.8,49.2,1485.0,6177.0,2.0,0,
199300,1892.7,324.2,190.1,30.3,1641.0,6314.0,2.0,0,
199400,1837.4,226.8,190.6,69.3,1454.0,5375.0,2.0,0,
199600,1844.0,291.7,199.1,226.0,1765.0,6220.0,2.0,0,
199700,1881.7,38.9,189.9,228.7,1778.0,6323.0,2.0,0,
199800,1858.3,16.4,190.0,196.2,1778.0,6323.0,2.0,0,
199900,1861.5,13.4,190.0,101.7,1778.0,6323.0,2.0,0,
200000,1861.1,17.3,190.1,43.0,1778.0,6323.0,2.0,0,
200100,1864.4,16.9,190.1,100.1,1778.0,6323.0,2.0,0,
200200,1861.8,15.9,190.2,240.3,1778.0,6323.0,2.0,0,
200300,1864.1,15.7,190.1,240.9,1778.0,6323.0,2.0,0,
200400,1865.1,16.0,190.2,240.5,1778.0,6323.0,2.0,0,
200600,1862.0,13.2,190.2,240.3,1778.0,6323.0,2.0,0,
200700,1868.9,209.9,190.3,240.2,1614.0,8309.0,4.0,1,
200800,1872.2,210.4,194.1,57.0,1540.0,6132.0,2.0,0,
200900,1845.0,302.6,194.9,29.9,2201.0,6426.0,2.0,0,
201000,1848.2,245.7,195.5,36.3,1798.0,6573.0,2.0,0,
201100,1877.3,251.4,195.9,195.2,2040.0,7140.0,2.0,0,
201200,1890.4,326.7,201.0,195.6,1735.0,6729.0,2.0,0,
201300,1842.3,53.4,197.4,226.6,1807.0,6271.0,2.0,0,
201400,1862.1,19.2,197.4,195.1,1807.0,6271.0,2.0,0,
201600,1860.1,16.4,197.4,39.6,1807.0,6271.0,2.0,0,
201700,1862.7,16.3,197.4,94.2,1807.0,6271.0,2.0,0,
201800,1862.3,14.4,197.4,240.0,1807.0,6271.0,2.0,0,
201900,1860.8,16.5,197.5,240.1,1807.0,6271.0,2.0,0,
202000,1862.1,14.8,197.5,240.4,1807.0,6271.0,2.0,0,
202100,1863.6,17.6,197.5,240.9,1807.0,6271.0,2.0,0,
202200,1863.4,16.7,197.5,240.4,1807.0,6271.0,2.0,0,
202300,1856.2,69.7,197.8,239.9,1531.0,8131.0,4.0,1,
202400,1868.9,238.7,198.5,75.2,1538.0,6127.0,2.0,0,
202600,1902.3,270.6,202.2,30.1,1646.0,5889.0,2.0,0,
202700,1850.2,183.6,201.4,189.8,1825.0,6659.0,2.0,0,
202800,1832.7,282.1,204.1,198.2,1596.0,5733.0,2.0,0,
202900,1876.3,74.5,199.9,226.1,1778.0,6148.0,2.0,0,
203000,1871.0,19.0,199.9,198.0,1778.0,6148.0,2.0,0,
203100,1861.3,14.2,199.9,130.5,1778.0,6148.0,2.0,0,
203200,1859.7,12.8,200.0,37.6,1778.0,6148.0,2.0,0,
203300,1861.0,16.3,200.0,42.0,1778.0,6148.0,2.0,0,
203400,1862.7,16.1,200.0,239.7,1778.0,6148.0,2.0,0,
203600,1863.4,17.0,199.8,240.0,1778.0,6148.0,2.0,0,
203700,1863.1,15.7,199.8,239.9,1778.0,6148.0,2.0,0,
203800,1864.0,16.3,199.8,240.0,1778.0,6148.0,2.0,0,
203900,1847.7,49.2,199.9,239.5,1536.0,8539.0,4.0,1,
204000,1912.7,227.1,198.3,154.0,1468.0,5917.0,2.0,0,
204100,1838.7,199.9,198.7,29.7,1737.0,6981.0,2.0,0,
204200,1842.8,224.2,193.1,30.2,1775.0,6082.0,2.0,0,
204300,1882.2,242.6,191.7,190.4,1828.0,6680.0,2.0,0,
204400,1845.0,345.6,202.2,227.6,1661.0,6483.0,2.0,0,
204600,1840.5,18.7,191.9,200.0,1661.0,6483.0,2.0,0,
204700,1861.7,14.7,191.8,131.7,1661.0,6483.0,2.0,0,
204800,1861.1,16.6,191.8,36.2,1661.0,6483.0,2.0,0,
204900,1862.2,15.9,191.8,37.2,1661.0,6483.0,2.0,0,
205000,1862.7,17.3,191.8,239.2,1661.0,6483.0,2.0,0,
205100,1863.9,15.7,191.8,240.2,1661.0,6483.0,2.0,0,
205200,1862.5,16.7,191.8,240.4,1661.0,6483.0,2.0,0,
205300,1865.2,16.9,191.8,240.1,1661.0,6483.0,2.0,0,
205400,1863.7,14.5,191.9,239.9,1661.0,6483.0,2.0,0,
205600,1870.1,208.6,193.8,170.5,1523.0,6229.0,2.0,0,
205700,1858.1,284.4,195.9,29.7,2008.0,7334.0,2.0,0,
205800,1863.0,272.6,194.1,37.8,2013.0,7128.0,2.0,0,
205900,1905.8,227.9,193.3,196.1,2099.0,7308.0,2.0,0,
206000,1820.4,258.3,201.4,226.8,1806.0,6764.0,2.0,0,
206100,1879.5,175.9,194.5,228.0,2057.0,6733.0,2.0,0,
206200,1878.1,24.2,194.4,196.5,2057.0,6733.0,2.0,0,
206300,1862.8,16.3,194.3,130.6,2057.0,6733.0,2.0,0,
206400,1862.9,15.6,194.3,36.7,2057.0,6733.0,2.0,0,
206600,1863.3,14.4,194.3,238.3,2057.0,6733.0,2.0,0,
206700,1864.5,16.7,194.2,240.0,2057.0,6733.0,2.0,0,
206800,1865.2,14.4,194.2,240.0,2057.0,6733.0,2.0,0,
206900,1862.8,15.0,194.2,240.1,2057.0,6733.0,2.0,0,
207000,1861.9,18.5,194.2,240.2,2057.0,6733.0,2.0,0,
207100,1862.4,78.8,194.3,240.3,2057.0,6733.0,2.0,0,
207200,1867.7,234.1,194.9,165.8,1473.0,6424.0,2.0,0,
207300,1883.7,319.6,201.0,37.4,2164.0,6440.0,2.0,0,
207400,1850.8,199.9,199.5,98.8,1446.0,5786.0,2.0,0,
207600,1845.1,269.6,197.5,196.4,1699.0,6218.0,2.0,0,
207700,1904.8,261.5,192.0,246.5,1767.0,6333.0,2.0,0,
207800,1855.2,28.9,191.5,229.4,1852.0,6594.0,2.0,0,
207900,1862.7,16.4,191.5,157.9,1852.0,6594.0,2.0,0,
208000,1861.5,17.7,191.5,93.0,1852.0,6594.0,2.0,0,
208100,1866.0,14.5,191.5,93.8,1852.0,6594.0,2.0,0,
208200,1865.0,14.9,191.5,227.7,1852.0,6594.0,2.0,0,
208300,1862.1,14.7,191.5,240.7,1852.0,6594.0,2.0,0,
208400,1862.5,14.6,191.6,240.5,1852.0,6594.0,2.0,0,
208600,1863.5,16.3,191.5,239.5,1852.0,6594.0,2.0,0,
208700,1862.7,14.9,191.5,239.8,1852.0,6594.0,2.0,0,
208800,1871.0,175.7,192.3,238.5,1517.0,6733.0,2.0,0,
208900,1834.7,274.4,201.3,94.6,1702.0,6195.0,2.0,0,
209000,1877.4,245.0,192.7,158.6,2034.0,7310.0,2.0,0,
209100,1875.3,257.9,201.1,194.6,2148.0,7723.0,2.0,0,
209200,1876.8,238.0,196.3,196.2,1988.0,6705.0,2.0,0,
209300,1858.8,239.7,193.2,252.8,2031.0,7214.0,2.0,0,
209400,1858.8,39.4,198.5,229.6,2033.0,7284.0,2.0,0,
209600,1862.6,16.5,198.5,190.2,2033.0,7284.0,2.0,0,
209700,1863.3,14.5,198.5,166.8,2033.0,7284.0,2.0,0,
209800,1861.0,14.6,198.5,186.2,2033.0,7284.0,2.0,0,
209900,1862.3,14.1,198.6,239.6,2033.0,7284.0,2.0,0,
210000,1861.6,15.4,198.6,239.7,2033.0,7284.0,2.0,0,
210100,1867.2,17.2,198.5,239.4,2033.0,7284.0,2.0,0,
210200,1864.9,13.9,198.5,239.6,2033.0,7284.0,2.0,0,
210300,1862.1,15.0,198.5,240.1,2033.0,7284.0,2.0,0,
210400,1855.7,53.5,197.4,240.0,1459.0,7980.0,4.0,1,
210600,1892.0,213.3,173.8,51.0,1515.0,5949.0,2.0,0,
210700,1821.8,247.2,182.2,30.1,1712.0,6016.0,2.0,0,
210800,1875.5,225.6,174.0,94.5,1673.0,6163.0,2.0,0,
210900,1865.5,311.4,174.8,226.4,1834.0,6985.0,2.0,0,
211000,1852.4,68.1,181.2,220.6,1557.0,5803.0,2.0,0,
211100,1868.2,16.8,181.2,226.5,1557.0,5803.0,2.0,0,
211200,1859.7,17.7,181.2,157.6,1557.0,5803.0,2.0,0,
211300,1863.1,17.4,181.3,93.7,1557.0,5803.0,2.0,0,
211400,1863.9,15.6,181.3,89.7,1557.0,5803.0,2.0,0,
211600,1865.1,16.2,181.2,240.4,1557.0,5803.0,2.0,0,
211700,1862.1,14.8,181.2,240.3,1557.0,5803.0,2.0,0,
211800,1864.6,16.5,181.2,240.3,1557.0,5803.0,2.0,0,
211900,1865.8,17.9,181.2,240.5,1557.0,5803.0,2.0,0,
212000,1892.7,46.8,181.2,240.1,1601.0,8870.0,4.0,1,
212100,1841.9,175.7,185.7,156.3,1583.0,6274.0,2.0,0,
212200,1857.8,264.3,186.5,30.3,1839.0,6965.0,2.0,0,
212300,1854.4,263.0,194.1,66.8,1787.0,6202.0,2.0,0,
212400,1912.4,248.4,185.9,196.2,1886.0,6687.0,2.0,0,
212600,1869.4,88.3,187.4,229.3,1884.0,6623.0,2.0,0,
212700,1870.1,20.4,186.4,228.3,1884.0,6623.0,2.0,0,
212800,1861.9,14.0,186.4,142.5,1884.0,6623.0,2.0,0,
212900,1860.6,13.9,186.4,37.5,1884.0,6623.0,2.0,0,
213000,1863.6,15.4,186.4,43.5,1884.0,6623.0,2.0,0,
213100,1862.4,15.7,186.4,239.8,1884.0,6623.0,2.0,0,
213200,1864.2,16.9,186.4,240.0,1884.0,6623.0,2.0,0,
213300,1865.3,18.5,186.4,239.9,1884.0,6623.0,2.0,0,
213400,1868.3,16.4,186.3,240.6,1884.0,6623.0,2.0,0,
213600,1863.8,150.5,186.3,241.2,1578.0,6922.0,2.0,0,
213700,1875.4,237.4,189.7,73.6,1563.0,6813.0,2.0,0,
213800,1864.7,328.4,198.0,35.7,1780.0,6644.0,2.0,0,
213900,1878.9,205.5,192.8,132.2,2009.0,7141.0,2.0,0,
214000,1844.5,299.1,194.6,226.6,2211.0,7187.0,2.0,0,
214100,1859.4,236.1,204.0,219.0,1912.0,6617.0,2.0,0,
214200,1887.0,130.9,194.6,226.2,1911.0,7109.0,2.0,0,
214300,1865.7,20.8,195.5,159.2,1911.0,7109.0,2.0,0,
214400,1858.2,14.9,195.6,130.3,1911.0,7109.0,2.0,0,
214600,1862.7,14.5,195.5,123.2,1911.0,7109.0,2.0,0,
214700,1861.1,16.6,195.6,232.9,1911.0,7109.0,2.0,0,
214800,1866.5,16.8,195.5,239.9,1911.0,7109.0,2.0,0,
214900,1865.4,13.8,195.5,240.5,1911.0,7109.0,2.0,0,
215000,1862.9,15.5,195.6,240.5,1911.0,7109.0,2.0,0,
215100,1864.0,16.9,195.6,240.2,1911.0,7109.0,2.0,0,
215200,1863.0,134.2,195.7,240.1,1911.0,7109.0,2.0,0,
215300,1885.0,303.7,199.5,166.0,1645.0,7258.0,2.0,0,
215400,1828.1,228.0,210.8,100.5,1460.0,5776.0,2.0,0,
215600,1855.8,312.2,209.2,163.3,1916.0,7108.0,2.0,0,
215700,1923.1,252.0,199.4,221.6,2057.0,6948.0,2.0,0,
215800,1831.1,297.8,203.0,229.8,2085.0,7385.0,2.0,0,
215900,1850.5,26.8,211.0,220.8,1653.0,6239.0,2.0,0,
216000,1862.1,15.3,210.9,190.3,1653.0,6239.0,2.0,0,
216100,1862.0,15.7,210.9,156.3,1653.0,6239.0,2.0,0,
216200,1864.3,14.7,210.9,131.4,1653.0,6239.0,2.0,0,
216300,1863.1,15.1,210.9,154.8,1653.0,6239.0,2.0,0,
216400,1863.8,15.3,210.9,240.8,1653.0,6239.0,2.0,0,
216600,1863.8,15.4,210.9,240.2,1653.0,6239.0,2.0,0,
216700,1861.4,15.9,211.0,240.6,1653.0,6239.0,2.0,0,
216800,1863.5,15.8,211.0,240.3,1653.0,6239.0,2.0,0,
216900,1841.8,47.4,207.5,239.7,1578.0,8290.0,4.0,1,
217000,1867.0,211.9,185.4,68.2,1504.0,6145.0,2.0,0,
217100,1897.3,233.8,184.0,40.0,1682.0,6296.0,2.0,0,
217200,1828.8,235.6,190.9,65.9,1514.0,5654.0,2.0,0,
217300,1868.9,245.6,183.2,164.6,1897.0,6862.0,2.0,0,
217400,1846.4,307.2,189.7,207.3,1623.0,6477.0,2.0,0,
217600,1859.5,17.4,185.5,221.4,1623.0,6477.0,2.0,0,
217700,1864.1,16.1,185.4,132.9,1623.0,6477.0,2.0,0,
217800,1864.9,17.3,185.4,89.1,1623.0,6477.0,2.0,0,
217900,1861.7,17.1,185.5,100.5,1623.0,6477.0,2.0,0,
218000,1863.0,13.4,185.5,240.4,1623.0,6477.0,2.0,0,
218100,1863.4,16.4,185.5,240.1,1623.0,6477.0,2.0,0,
218200,1864.3,15.0,185.5,240.2,1623.0,6477.0,2.0,0,
218300,1863.1,14.7,185.4,240.1,1623.0,6477.0,2.0,0,
218400,1862.8,15.0,185.5,239.9,1623.0,6477.0,2.0,0,
218600,1872.7,194.8,192.3,66.3,1500.0,6094.0,2.0,0,
218700,1840.8,239.2,196.2,30.2,2111.0,7815.0,2.0,0,
218800,1857.0,252.2,195.6,68.3,2022.0,6570.0,2.0,0,
218900,1869.9,245.5,194.9,226.8,2093.0,6933.0,2.0,0,
219000,1896.6,317.9,200.6,226.5,1774.0,6228.0,2.0,0,
219100,1849.3,52.6,196.0,227.5,1848.0,6511.0,2.0,0,
219200,1865.9,18.3,196.0,195.1,1848.0,6511.0,2.0,0,
219300,1860.2,16.8,196.0,94.6,1848.0,6511.0,2.0,0,
219400,1864.9,17.2,196.0,37.1,1848.0,6511.0,2.0,0,
219600,1864.8,16.0,196.0,240.3,1848.0,6511.0,2.0,0,
219700,1860.3,17.7,196.0,239.9,1848.0,6511.0,2.0,0,
219800,1866.8,14.5,196.0,239.3,1848.0,6511.0,2.0,0,
219900,1864.6,15.1,195.9,239.7,1848.0,6511.0,2.0,0,
220000,1863.5,16.7,196.0,240.0,1848.0,6511.0,2.0,0,
220100,1856.0,163.6,196.5,239.9,1518.0,6322.0,2.0,0,
220200,1877.7,233.9,198.2,37.1,1572.0,6587.0,2.0,0,
220300,1845.8,321.7,206.6,29.8,1973.0,7725.0,2.0,0,
220400,1924.3,267.8,197.9,37.6,1981.0,6633.0,2.0,0,
220600,1834.8,265.6,204.4,226.7,1772.0,6171.0,2.0,0,
220700,1881.5,70.3,198.5,227.7,1870.0,6628.0,2.0,0,
220800,1871.3,18.6,198.6,195.8,1870.0,6628.0,2.0,0,
220900,1864.3,17.8,198.5,100.5,1870.0,6628.0,2.0,0,
221000,1863.2,14.8,198.5,36.6,1870.0,6628.0,2.0,0,
221100,1866.2,17.2,198.5,68.9,1870.0,6628.0,2.0,0,
221200,1865.6,15.1,198.5,239.7,1870.0,6628.0,2.0,0,
221300,1865.8,16.8,198.3,239.7,1870.0,6628.0,2.0,0,
221400,1865.3,16.4,198.4,239.8,1870.0,6628.0,2.0,0,
221600,1862.3,16.3,198.4,240.5,1870.0,6628.0,2.0,0,
221700,1860.3,212.3,198.8,240.4,1569.0,7335.0,2.0,0,
221800,1911.5,232.9,199.7,74.5,1543.0,6291.0,2.0,0,
221900,1825.3,241.3,204.3,37.6,1582.0,6701.0,2.0,0,
222000,1864.3,225.4,198.4,99.8,1850.0,6664.0,2.0,0,
222100,1873.8,305.8,198.6,228.2,1917.0,7143.0,2.0,0,
222200,1855.4,288.3,201.2,228.7,1783.0,6195.0,2.0,0,
222300,1912.3,105.1,192.7,229.3,1940.0,6859.0,2.0,0,
222400,1837.8,21.1,192.2,206.0,1940.0,6859.0,2.0,0,
222600,1864.9,17.1,192.3,52.6,1940.0,6859.0,2.0,0,
222700,1863.5,15.4,192.3,94.3,1940.0,6859.0,2.0,0,
222800,1863.7,14.1,192.4,240.0,1940.0,6859.0,2.0,0,
222900,1861.7,13.8,192.4,239.7,1940.0,6859.0,2.0,0,
223000,1861.8,16.7,192.5,239.8,1940.0,6859.0,2.0,0,
223100,1863.0,15.5,192.6,240.0,1940.0,6859.0,2.0,0,
223200,1861.8,12.9,192.6,240.3,1940.0,6859.0,2.0,0,
223300,1864.3,115.6,192.6,240.2,1940.0,6859.0,2.0,0,
223400,1868.3,231.5,191.7,100.3,1564.0,6645.0,2.0,0,
223600,1882.5,268.0,193.4,151.7,1517.0,5942.0,2.0,0,
223700,1885.1,321.8,198.2,196.7,1761.0,6694.0,2.0,0,
223800,1842.4,203.4,196.1,225.9,1696.0,5919.0,2.0,0,
223900,1870.7,162.2,193.6,229.4,1825.0,6550.0,2.0,0,
224000,1871.0,24.2,195.1,199.3,1825.0,6550.0,2.0,0,
224100,1861.0,16.4,195.1,158.9,1825.0,6550.0,2.0,0,
224200,1862.0,15.4,195.1,157.9,1825.0,6550.0,2.0,0,
224300,1861.3,14.2,195.2,158.7,1825.0,6550.0,2.0,0,
224400,1863.9,14.7,195.2,239.5,1825.0,6550.0,2.0,0,
224600,1863.7,14.4,195.1,240.1,1825.0,6550.0,2.0,0,
224700,1862.9,14.9,195.0,240.3,1825.0,6550.0,2.0,0,
224800,1861.2,14.7,195.1,239.9,1825.0,6550.0,2.0,0,
224900,1862.4,80.9,195.1,240.0,1825.0,6550.0,2.0,0,
225000,1845.2,336.1,200.7,226.6,1517.0,6711.0,2.0,0,
225100,1899.5,262.2,203.1,158.7,1549.0,6047.0,2.0,0,
225200,1849.0,196.1,199.0,164.7,1682.0,6705.0,2.0,0,
225300,1837.2,262.7,204.4,165.3,1749.0,5994.0,2.0,0,
225400,1879.0,228.3,195.7,226.8,1845.0,6723.0,2.0,0,
225600,1851.6,33.7,205.1,227.3,1615.0,5864.0,2.0,0,
225700,1861.3,16.0,205.1,218.3,1615.0,5864.0,2.0,0,
225800,1862.0,15.0,205.1,158.8,1615.0,5864.0,2.0,0,
225900,1865.9,17.1,205.0,132.1,1615.0,5864.0,2.0,0,
226000,1865.6,15.4,205.0,155.0,1615.0,5864.0,2.0,0,
226100,1864.2,13.8,205.0,240.1,1615.0,5864.0,2.0,0,
226200,1863.2,17.7,205.0,240.2,1615.0,5864.0,2.0,0,
226300,1864.2,15.6,205.0,240.5,1615.0,5864.0,2.0,0,
226400,1863.4,16.2,205.0,240.7,1615.0,5864.0,2.0,0,
226600,1852.2,65.3,201.4,240.7,1517.0,8219.0,5.0,1,
226700,1870.3,213.4,183.1,94.3,1542.0,6083.0,2.0,0,
226800,1865.6,341.7,183.6,30.1,2234.0,6871.0,2.0,0,
226900,1869.9,277.6,194.6,66.0,1457.0,5736.0,2.0,0,
227000,1889.3,217.7,185.4,165.7,1661.0,6360.0,2.0,0,
227100,1824.5,240.7,199.7,196.7,1427.0,5494.0,2.0,0,
227200,1880.4,41.5,189.7,229.0,1472.0,5623.0,2.0,0,
227300,1865.9,18.4,189.7,197.6,1472.0,5623.0,2.0,0,
227400,1863.2,17.2,189.6,100.6,1472.0,5623.0,2.0,0,
227600,1863.8,16.6,189.7,117.8,1472.0,5623.0,2.0,0,
227700,1864.9,15.8,189.7,240.0,1472.0,5623.0,2.0,0,
227800,1863.5,15.7,189.7,240.0,1472.0,5623.0,2.0,0,
227900,1863.5,14.9,189.7,240.4,1472.0,5623.0,2.0,0,
228000,1863.5,16.3,189.7,240.2,1472.0,5623.0,2.0,0,
228100,1865.8,15.4,189.7,239.8,1472.0,5623.0,2.0,0,
228200,1854.8,195.2,189.9,239.9,1491.0,6735.0,2.0,0,
228300,1879.7,256.8,195.0,56.1,1492.0,6426.0,2.0,0,
228400,1875.7,246.5,199.1,34.6,2039.0,7678.0,2.0,0,
228600,1855.9,263.1,189.0,229.0,2051.0,7325.0,2.0,0,
228700,1866.2,253.6,188.7,230.5,1794.0,6458.0,2.0,0,
228800,1880.5,53.5,182.8,230.8,1876.0,6843.0,2.0,0,
228900,1865.7,19.3,182.9,195.7,1876.0,6843.0,2.0,0,
229000,1863.2,14.0,182.8,93.2,1876.0,6843.0,2.0,0,
229100,1860.6,16.4,182.9,77.5,1876.0,6843.0,2.0,0,
229200,1861.7,16.1,183.0,108.0,1876.0,6843.0,2.0,0,
229300,1866.1,16.4,182.9,240.6,1876.0,6843.0,2.0,0,
229400,1862.8,16.5,183.0,241.0,1876.0,6843.0,2.0,0,
229600,1864.9,17.4,183.0,240.6,1876.0,6843.0,2.0,0,
229700,1864.5,17.2,183.0,240.6,1876.0,6843.0,2.0,0,
229800,1905.1,181.7,183.7,240.6,1555.0,7134.0,2.0,0,
229900,1823.3,247.5,188.6,99.6,1497.0,6690.0,2.0,0,
230000,1852.3,241.6,194.8,100.3,1815.0,6674.0,2.0,0,
230100,1878.9,240.6,191.7,166.2,1985.0,7306.0,2.0,0,
230200,1873.0,315.6,205.6,195.4,1700.0,6239.0,2.0,0,
230300,1879.3,211.0,198.2,228.2,1871.0,6639.0,2.0,0,
230400,1833.4,118.8,209.7,226.2,1456.0,5785.0,2.0,0,
230600,1862.9,17.6,209.8,157.7,1456.0,5785.0,2.0,0,
230700,1862.3,14.8,209.8,137.7,1456.0,5785.0,2.0,0,
230800,1862.3,16.3,209.7,103.8,1456.0,5785.0,2.0,0,
230900,1865.6,12.6,209.7,239.1,1456.0,5785.0,2.0,0,
231000,1864.0,16.0,209.7,240.2,1456.0,5785.0,2.0,0,
231100,1863.8,16.3,209.7,240.1,1456.0,5785.0,2.0,0,
231200,1865.7,15.9,209.7,240.2,1456.0,5785.0,2.0,0,
231300,1862.2,17.5,209.7,240.0,1456.0,5785.0,2.0,0,
231400,1863.5,38.7,209.7,239.9,1595.0,8777.0,4.0,1,
231600,1896.3,251.1,186.1,68.2,1463.0,5914.0,2.0,0,
231700,1855.1,283.1,192.3,39.0,1801.0,7039.0,2.0,0,
231800,1857.4,207.9,185.3,94.6,1939.0,7013.0,2.0,0,
231900,1869.0,296.2,179.9,225.9,2068.0,7218.0,2.0,0,
232000,1844.7,171.4,198.7,227.3,1728.0,6289.0,2.0,0,
232100,1879.0,22.7,188.8,227.3,1728.0,6289.0,2.0,0,
232200,1861.5,17.0,188.8,158.5,1728.0,6289.0,2.0,0,
232300,1862.2,16.1,188.8,99.4,1728.0,6289.0,2.0,0,
232400,1863.9,16.3,188.8,68.2,1728.0,6289.0,2.0,0,
232600,1864.4,16.4,188.8,240.2,1728.0,6289.0,2.0,0,
232700,1865.4,15.8,188.8,240.4,1728.0,6289.0,2.0,0,
232800,1866.4,16.7,188.8,240.5,1728.0,6289.0,2.0,0,
232900,1863.9,18.5,188.8,240.6,1728.0,6289.0,2.0,0,
233000,1863.5,32.2,188.8,240.4,1728.0,6289.0,2.0,0,
233100,1897.0,216.9,194.4,210.6,1514.0,6081.0,2.0,0,
233200,1842.0,224.8,200.1,29.8,1659.0,6933.0,2.0,0,
233300,1841.0,254.3,210.1,30.1,1792.0,6440.0,2.0,0,
233400,1886.6,248.7,199.7,163.9,2054.0,7382.0,2.0,0,
233600,1862.3,205.2,199.1,226.5,1971.0,6556.0,2.0,0,
233700,1863.4,28.8,195.4,227.3,1906.0,6939.0,2.0,0,
233800,1863.3,17.2,195.3,134.0,1906.0,6939.0,2.0,0,
233900,1861.3,15.1,195.3,40.2,1906.0,6939.0,2.0,0,
234000,1863.0,16.5,195.4,43.4,1906.0,6939.0,2.0,0,
234100,1864.7,17.1,195.3,217.8,1906.0,6939.0,2.0,0,
234200,1865.9,17.6,195.3,239.7,1906.0,6939.0,2.0,0,
234300,1863.4,14.7,195.3,239.7,1906.0,6939.0,2.0,0,
234400,1865.0,15.0,195.3,239.5,1906.0,6939.0,2.0,0,
234600,1861.6,14.9,195.3,240.4,1906.0,6939.0,2.0,0,
234700,1867.6,215.8,193.6,218.0,1473.0,6436.0,2.0,0,
234800,1855.3,342.9,203.6,41.4,1935.0,6759.0,2.0,0,
234900,1894.8,275.6,202.4,99.9,1639.0,6372.0,2.0,0,
235000,1858.5,206.2,201.7,163.5,2056.0,7555.0,2.0,0,
235100,1835.6,228.4,204.4,189.9,1766.0,6299.0,2.0,0,
235200,1878.5,238.3,193.8,258.9,1929.0,6777.0,2.0,0,
235300,1869.9,32.2,196.6,253.4,1956.0,7064.0,2.0,0,
235400,1860.3,17.5,196.7,164.2,1956.0,7064.0,2.0,0,
235600,1863.9,15.4,196.7,145.9,1956.0,7064.0,2.0,0,
235700,1865.5,15.3,196.7,188.5,1956.0,7064.0,2.0,0,
235800,1864.2,17.3,196.7,240.0,1956.0,7064.0,2.0,0,
235900,1864.2,16.3,196.7,240.1,1956.0,7064.0,2.0,0,
236000,1863.6,16.1,196.7,240.5,1956.0,7064.0,2.0,0,
236100,1864.9,14.3,196.7,240.5,1956.0,7064.0,2.0,0,
236200,1863.8,16.7,196.7,240.5,1956.0,7064.0,2.0,0,
236300,1883.5,228.4,198.7,239.8,1498.0,6845.0,2.0,0,
236400,1843.8,285.0,201.3,111.7,2115.0,6704.0,2.0,0,
236600,1865.8,234.2,193.0,194.9,2016.0,7431.0,2.0,0,
236700,1851.9,272.9,195.2,196.2,1796.0,6279.0,2.0,0,
236800,1922.7,235.5,192.9,259.9,1926.0,6720.0,2.0,0,
236900,1819.1,45.7,196.3,230.6,1939.0,7214.0,2.0,0,
237000,1865.4,19.5,196.2,218.0,1939.0,7214.0,2.0,0,
237100,1861.5,14.1,196.3,200.0,1939.0,7214.0,2.0,0,
237200,1862.2,15.6,196.2,190.3,1939.0,7214.0,2.0,0,
237300,1865.8,12.4,196.2,194.7,1939.0,7214.0,2.0,0,
237400,1863.6,14.0,196.2,240.3,1939.0,7214.0,2.0,0,
237600,1863.0,14.0,196.2,240.3,1939.0,7214.0,2.0,0,
237700,1863.6,14.5,196.2,240.5,1939.0,7214.0,2.0,0,
237800,1862.1,14.8,196.3,240.4,1939.0,7214.0,2.0,0,
237900,1861.7,56.8,195.6,240.3,1536.0,8363.0,4.0,1,
238000,1831.4,217.7,182.6,158.7,1905.0,6990.0,2.0,0,
238100,1890.4,236.6,172.4,41.0,1981.0,6911.0,2.0,0,
238200,1887.0,333.4,182.8,30.2,2254.0,7279.0,2.0,0,
238300,1846.4,205.9,183.3,93.0,1794.0,6241.0,2.0,0,
238400,1856.7,250.2,180.4,204.0,1834.0,6797.0,2.0,0,
238600,1872.4,16.3,189.7,226.0,1834.0,6797.0,2.0,0,
238700,1862.3,15.2,189.7,157.7,1834.0,6797.0,2.0,0,
238800,1862.9,15.7,189.7,99.5,1834.0,6797.0,2.0,0,
238900,1862.4,14.2,189.7,92.5,1834.0,6797.0,2.0,0,
239000,1864.4,16.7,189.7,239.8,1834.0,6797.0,2.0,0,
239100,1864.8,17.9,189.7,240.1,1834.0,6797.0,2.0,0,
239200,1862.5,15.0,189.8,239.8,1834.0,6797.0,2.0,0,
239300,1865.2,15.6,189.7,239.4,1834.0,6797.0,2.0,0,
239400,1863.1,15.3,189.7,239.8,1834.0,6797.0,2.0,0,
239600,1889.0,244.2,191.0,215.6,1844.0,6945.0,2.0,0,
239700,1853.8,195.8,192.7,36.1,1964.0,7104.0,2.0,0,
239800,1831.9,234.8,200.0,30.0,1669.0,5980.0,2.0,0,
239900,1877.3,228.4,186.7,131.6,1866.0,6423.0,2.0,0,
240000,1849.1,365.8,196.6,227.2,2425.0,6968.0,2.0,0,
240100,1911.3,129.5,192.6,227.8,1655.0,6023.0,2.0,0,
240200,1840.0,20.2,190.7,226.4,1655.0,6023.0,2.0,0,
240300,1863.5,16.3,190.7,156.7,1655.0,6023.0,2.0,0,
240400,1861.7,12.3,190.7,88.0,1655.0,6023.0,2.0,0,
240600,1862.5,15.7,190.8,237.8,1655.0,6023.0,2.0,0,
240700,1862.2,13.6,190.8,239.2,1655.0,6023.0,2.0,0,
240800,1864.0,15.8,190.8,238.3,1655.0,6023.0,2.0,0,
240900,1865.1,15.8,190.7,239.6,1655.0,6023.0,2.0,0,
241000,1863.3,14.2,190.8,240.3,1655.0,6023.0,2.0,0,
241100,1864.5,43.6,190.8,240.0,1655.0,6023.0,2.0,0,
241200,1872.5,223.2,195.8,154.2,1847.0,7401.0,2.0,0,
241300,1864.8,235.3,196.3,30.2,1998.0,7577.0,2.0,0,
241400,1852.7,267.6,200.1,35.9,1828.0,6615.0,2.0,0,
241600,1816.8,268.0,203.1,230.1,2350.0,6900.0,2.0,0,
241700,1866.3,173.5,192.2,229.1,1796.0,6300.0,2.0,0,
241800,1878.8,24.0,190.9,227.0,1796.0,6300.0,2.0,0,
241900,1862.0,16.2,190.9,158.3,1796.0,6300.0,2.0,0,
242000,1861.8,13.7,190.9,68.0,1796.0,6300.0,2.0,0,
242100,1864.3,15.4,190.8,43.1,1796.0,6300.0,2.0,0,
242200,1864.3,15.0,190.8,238.5,1796.0,6300.0,2.0,0,
242300,1863.6,15.2,190.7,240.4,1796.0,6300.0,2.0,0,
242400,1863.4,14.1,190.8,240.2,1796.0,6300.0,2.0,0,
242600,1863.0,18.2,190.8,240.3,1796.0,6300.0,2.0,0,
242700,1867.4,88.8,190.7,240.3,1796.0,6300.0,2.0,0,
242800,1863.5,232.5,192.9,166.2,1447.0,6576.0,2.0,0,
242900,1893.5,317.0,197.8,36.4,1705.0,6938.0,2.0,0,
243000,1847.9,226.0,196.0,93.6,1803.0,6412.0,2.0,0,
243100,1863.1,265.2,196.6,226.0,1875.0,6841.0,2.0,0,
243200,1845.2,277.9,207.3,225.7,1700.0,6014.0,2.0,0,
243300,1893.9,248.8,196.9,228.1,1715.0,6550.0,2.0,0,
243400,1867.7,28.2,198.3,197.5,1803.0,6629.0,2.0,0,
243600,1861.2,17.2,198.4,154.1,1803.0,6629.0,2.0,0,
243700,1865.5,13.1,198.3,156.5,1803.0,6629.0,2.0,0,
243800,1862.0,15.7,198.3,215.5,1803.0,6629.0,2.0,0,
243900,1863.5,14.7,198.3,240.2,1803.0,6629.0,2.0,0,
244000,1864.6,12.5,198.3,240.1,1803.0,6629.0,2.0,0,
244100,1864.8,18.8,198.3,240.2,1803.0,6629.0,2.0,0,
244200,1864.1,17.1,198.3,240.6,1803.0,6629.0,2.0,0,
244300,1866.2,15.7,198.3,240.4,1803.0,6629.0,2.0,0,
244400,1873.6,170.5,198.9,239.3,1518.0,6779.0,2.0,0,
244600,1880.0,240.2,204.3,158.3,1874.0,7012.0,2.0,0,
244700,1855.6,387.3,211.4,159.1,2447.0,7260.0,2.0,0,
244800,1897.3,243.7,206.5,189.8,1739.0,6122.0,2.0,0,
244900,1853.7,184.2,204.1,225.8,1742.0,6714.0,2.0,0,
245000,1851.0,47.9,213.5,168.8,1520.0,5705.0,2.0,0,
245100,1862.7,17.8,213.6,197.4,1520.0,5705.0,2.0,0,
245200,1864.1,14.7,213.5,159.0,1520.0,5705.0,2.0,0,
245300,1864.0,13.8,213.5,139.2,1520.0,5705.0,2.0,0,
245400,1862.0,15.3,213.5,141.6,1520.0,5705.0,2.0,0,
245600,1864.3,17.6,213.5,240.1,1520.0,5705.0,2.0,0,
245700,1863.0,13.7,213.5,240.0,1520.0,5705.0,2.0,0,
245800,1863.4,15.6,213.5,240.0,1520.0,5705.0,2.0,0,
245900,1863.7,12.9,213.5,239.8,1520.0,5705.0,2.0,0,
246000,1852.2,44.2,212.5,239.7,1508.0,8292.0,4.0,1,
246100,1851.6,229.4,195.5,139.8,1645.0,6545.0,2.0,0,
246200,1913.6,217.1,184.9,50.1,2017.0,7428.0,2.0,0,
246300,1821.0,282.8,195.3,37.5,2224.0,7445.0,2.0,0,
246400,1865.4,227.2,182.4,99.5,1916.0,6768.0,2.0,0,
246600,1852.4,71.1,187.2,195.4,1630.0,6038.0,2.0,0,
246700,1867.8,16.0,187.2,226.6,1630.0,6038.0,2.0,0,
246800,1861.5,17.1,187.2,158.3,1630.0,6038.0,2.0,0,
246900,1864.0,14.4,187.2,100.0,1630.0,6038.0,2.0,0,
247000,1863.1,15.0,187.3,93.9,1630.0,6038.0,2.0,0,
247100,1860.9,16.4,187.3,239.5,1630.0,6038.0,2.0,0,
247200,1865.5,16.6,187.3,239.7,1630.0,6038.0,2.0,0,
247300,1865.9,16.2,187.3,239.8,1630.0,6038.0,2.0,0,
247400,1864.2,15.7,187.3,240.3,1630.0,6038.0,2.0,0,
247600,1891.6,53.9,187.2,240.7,1535.0,8878.0,4.0,1,
247700,1832.4,183.6,193.3,131.2,1466.0,6191.0,2.0,0,
247800,1860.0,279.8,192.8,38.1,1704.0,6746.0,2.0,0,
247900,1848.3,278.2,205.9,42.3,1543.0,5903.0,2.0,0,
248000,1904.8,246.5,193.1,163.9,1706.0,6599.0,2.0,0,
248100,1853.5,318.9,202.8,196.0,2136.0,6573.0,2.0,0,
248200,1857.0,96.7,196.8,205.9,1571.0,5965.0,2.0,0,
248300,1868.7,18.7,195.8,220.6,1571.0,5965.0,2.0,0,
248400,1861.8,15.9,195.8,131.1,1571.0,5965.0,2.0,0,
248600,1862.4,18.2,195.8,43.9,1571.0,5965.0,2.0,0,
248700,1864.6,17.0,195.8,239.5,1571.0,5965.0,2.0,0,
248800,1865.2,14.0,195.7,240.4,1571.0,5965.0,2.0,0,
248900,1862.9,17.2,195.8,240.6,1571.0,5965.0,2.0,0,
249000,1863.8,15.7,195.7,240.7,1571.0,5965.0,2.0,0,
249100,1865.5,14.5,195.7,240.3,1571.0,5965.0,2.0,0,
249200,1866.9,94.8,195.7,240.2,1525.0,8947.0,5.0,1,
249300,1871.5,242.6,197.4,123.6,1594.0,6626.0,2.0,0,
249400,1864.6,328.8,207.9,29.7,2009.0,7747.0,2.0,0,
249600,1850.0,230.7,195.2,215.1,1910.0,7279.0,2.0,0,
249700,1842.7,254.0,205.7,227.7,1749.0,6106.0,2.0,0,
249800,1888.2,136.1,190.9,229.1,1872.0,6654.0,2.0,0,
249900,1873.7,19.7,191.1,225.8,1872.0,6654.0,2.0,0,
250000,1860.8,13.6,191.1,131.7,1872.0,6654.0,2.0,0,
250100,1864.7,13.5,191.1,68.4,1872.0,6654.0,2.0,0,
250200,1862.5,17.9,191.1,92.7,1872.0,6654.0,2.0,0,
250300,1864.0,15.8,191.1,239.2,1872.0,6654.0,2.0,0,
250400,1865.7,16.0,191.1,240.3,1872.0,6654.0,2.0,0,
250600,1863.3,14.7,191.1,239.6,1872.0,6654.0,2.0,0,
250700,1863.8,13.8,191.1,239.8,1872.0,6654.0,2.0,0,
250800,1862.8,124.6,191.2,240.5,1872.0,6654.0,2.0,0,
250900,1897.1,216.2,192.5,158.1,1495.0,6520.0,2.0,0,
251000,1819.5,260.9,205.2,73.6,1854.0,7513.0,2.0,0,
251100,1875.1,238.4,198.4,157.2,1895.0,7108.0,2.0,0,
251200,1860.4,338.6,202.5,164.7,2157.0,6915.0,2.0,0,
251300,1897.8,262.7,201.4,197.1,1645.0,5846.0,2.0,0,
251400,1856.7,199.6,200.1,227.9,1958.0,7011.0,2.0,0,
251600,1862.3,17.6,202.9,190.2,1958.0,7011.0,2.0,0,
251700,1862.8,15.1,202.9,183.5,1958.0,7011.0,2.0,0,
251800,1864.3,15.0,202.9,168.4,1958.0,7011.0,2.0,0,
251900,1865.1,15.0,202.9,228.2,1958.0,7011.0,2.0,0,
252000,1861.6,16.2,202.9,240.2,1958.0,7011.0,2.0,0,
252100,1862.7,16.1,202.9,240.5,1958.0,7011.0,2.0,0,
252200,1863.5,16.3,203.0,240.6,1958.0,7011.0,2.0,0,
252300,1862.7,15.0,203.0,240.3,1958.0,7011.0,2.0,0,
252400,1864.5,15.6,203.0,240.1,1958.0,7011.0,2.0,0,
252600,1855.8,236.3,183.9,43.8,1749.0,6895.0,2.0,0,
252700,1908.8,240.8,176.5,38.3,2017.0,7456.0,2.0,0,
252800,1837.5,279.5,189.0,39.7,1795.0,6701.0,2.0,0,
252900,1872.7,226.3,178.4,157.3,1911.0,6770.0,2.0,0,
253000,1862.4,273.9,180.5,196.1,1950.0,7030.0,2.0,0,
253100,1862.3,39.1,185.6,195.4,1668.0,5913.0,2.0,0,
253200,1862.7,19.0,185.6,227.3,1668.0,5913.0,2.0,0,
253300,1863.2,14.6,185.6,168.4,1668.0,5913.0,2.0,0,
253400,1865.5,14.1,185.5,146.5,1668.0,5913.0,2.0,0,
253600,1862.5,15.5,185.6,240.2,1668.0,5913.0,2.0,0,
253700,1864.7,14.7,185.5,240.3,1668.0,5913.0,2.0,0,
253800,1862.2,17.7,185.5,240.6,1668.0,5913.0,2.0,0,
253900,1864.5,12.3,185.5,240.1,1668.0,5913.0,2.0,0,
254000,1861.6,14.9,185.6,240.1,1668.0,5913.0,2.0,0,
254100,1859.6,71.1,185.4,240.4,1422.0,7923.0,4.0,1,
254200,1883.7,213.7,189.0,70.6,1589.0,6208.0,2.0,0,
254300,1844.5,230.7,189.5,30.1,1902.0,7534.0,2.0,0,
254400,1845.3,247.6,185.7,30.2,1811.0,6250.0,2.0,0,
254600,1886.1,353.6,188.6,229.0,2302.0,6969.0,2.0,0,
254700,1836.2,53.1,188.4,228.4,1728.0,5907.0,2.0,0,
254800,1862.2,17.2,188.4,220.3,1728.0,5907.0,2.0,0,
254900,1861.2,15.5,188.4,133.8,1728.0,5907.0,2.0,0,
255000,1863.7,16.0,188.5,91.3,1728.0,5907.0,2.0,0,
255100,1862.2,14.4,188.5,92.8,1728.0,5907.0,2.0,0,
255200,1862.5,14.8,188.5,240.4,1728.0,5907.0,2.0,0,
255300,1862.0,13.5,188.6,240.7,1728.0,5907.0,2.0,0,
255400,1864.0,14.8,188.5,241.1,1728.0,5907.0,2.0,0,
255600,1863.5,14.5,188.5,240.1,1728.0,5907.0,2.0,0,
255700,1860.6,61.0,189.0,239.9,1515.0,8424.0,4.0,1,
255800,1868.5,223.9,190.7,75.0,1471.0,5941.0,2.0,0,
255900,1866.2,309.9,192.8,29.7,1668.0,6812.0,2.0,0,
256000,1896.1,270.5,198.9,35.9,1744.0,6575.0,2.0,0,
256100,1853.3,190.2,195.8,198.9,1842.0,6835.0,2.0,0,
256200,1833.2,242.6,200.9,226.3,1535.0,5911.0,2.0,0,
256300,1876.7,75.4,188.2,228.3,1694.0,6317.0,2.0,0,
256400,1877.5,15.3,188.1,227.5,1694.0,6317.0,2.0,0,
256600,1865.4,13.6,188.1,46.8,1694.0,6317.0,2.0,0,
256700,1862.1,14.4,188.1,55.4,1694.0,6317.0,2.0,0,
256800,1863.2,16.3,188.1,239.7,1694.0,6317.0,2.0,0,
256900,1863.3,14.3,188.1,240.2,1694.0,6317.0,2.0,0,
257000,1864.0,13.5,188.0,240.3,1694.0,6317.0,2.0,0,
257100,1862.0,15.5,188.1,240.4,1694.0,6317.0,2.0,0,
257200,1862.9,13.2,188.1,240.4,1694.0,6317.0,2.0,0,
257300,1861.7,155.4,188.1,239.8,1544.0,8826.0,5.0,1,
257400,1899.6,239.0,190.1,87.8,1398.0,6079.0,2.0,0,
257600,1857.2,223.4,189.0,93.6,1914.0,6941.0,2.0,0,
257700,1874.8,239.4,188.1,226.4,1949.0,7330.0,2.0,0,
257800,1843.8,278.8,195.3,226.8,1713.0,6263.0,2.0,0,
257900,1926.0,111.7,187.2,231.1,1748.0,6625.0,2.0,0,
258000,1836.1,17.5,186.7,228.1,1748.0,6625.0,2.0,0,
258100,1859.0,13.4,186.7,132.2,1748.0,6625.0,2.0,0,
258200,1862.3,12.7,186.7,40.9,1748.0,6625.0,2.0,0,
258300,1864.4,16.3,186.7,45.7,1748.0,6625.0,2.0,0,
258400,1863.0,13.1,186.7,218.1,1748.0,6625.0,2.0,0,
258600,1866.8,13.7,186.7,240.0,1748.0,6625.0,2.0,0,
258700,1862.0,13.5,186.7,241.2,1748.0,6625.0,2.0,0,
258800,1863.5,15.1,186.7,241.7,1748.0,6625.0,2.0,0,
258900,1863.5,118.7,186.7,241.1,1748.0,6625.0,2.0,0,
259000,1874.8,216.1,187.8,99.7,1450.0,6395.0,2.0,0,
259100,1842.3,297.0,197.6,40.6,1536.0,5985.0,2.0,0,
259200,1873.6,242.0,191.2,157.3,1758.0,6564.0,2.0,0,
259300,1903.0,328.9,194.6,195.9,1792.0,6867.0,2.0,0,
