Time(ms),Raw_ADC
0,2339
1,1728
2,1390
3,1462
4,1728
5,1745
6,1805
7,1834
8,1856
9,1831
10,1851
11,1870
12,1854
13,1873
14,1836
15,1808
16,1894
17,1840
18,1829
19,1849
20,1850
21,1891
22,1870
23,1859
24,1936
25,1881
26,1872
27,1872
28,1857
29,1911
30,1870
31,1856
32,1847
33,1872
34,1841
35,1840
36,1853
37,1873
38,1873
39,1863
40,1847
41,1917
42,1874
43,1869
44,1872
45,1916
46,1907
47,1862
48,1861
49,1863
50,1856
51,1824
52,1834
53,1824
54,1885
55,1858
56,1850
57,1904
58,1882
59,1859
60,1866
61,1878
62,1887
63,1883
64,1855
65,1872
66,1883
67,1840
68,1824
69,1828
70,1850
71,1873
72,1867
73,1845
74,1898
75,1882
76,1866
77,1866
78,1893
79,1926
80,1875
81,1853
82,1920
83,1888
84,1829
85,1827
86,1836
87,1842
88,1856
89,1859
90,1856
91,1925
92,1873
93,1870
94,1882
95,1906
96,1911
97,1859
98,1854
99,1842
100,1863
101,1824
102,1837
103,1839
104,1899
105,1872
106,1862
107,1917
108,1884
109,1871
110,1868
111,1877
112,1945
113,1882
114,1856
115,1838
116,1878
117,1837
118,1830
119,1835
120,1869
121,1881
122,1857
123,1868
124,1891
125,1876
126,1870
127,1875
128,1887
129,1945
130,1875
131,1846
132,1850
133,1879
134,1838
135,1829
136,1838
137,1909
138,1871
139,1859
140,1837
141,1909
142,1872
143,1865
144,1883
145,1847
146,1904
147,1844
148,1843
149,1905
150,1856
151,1840
152,1826
153,1827
154,1855
155,1861
156,1867
157,1891
158,1875
159,1871
160,1868
161,1866
162,1878
163,1889
164,1856
165,1865
166,1899
167,1842
168,1825
169,1825
170,1835
171,1882
172,1856
173,1868
174,1883
175,1872
176,1860
177,1861
178,1874
179,1903
180,1872
181,1847
182,1892
183,1854
184,1840
185,1830
186,1829
187,1831
188,1871
189,1855
190,1843
191,1904
192,1873
193,1866
194,1875
195,1873
196,1913
197,1862
198,1838
199,1885
200,1856
201,1826
202,1826
203,1823
204,1870
205,1855
206,1854
207,1904
208,1870
209,1862
210,1860
211,1898
212,1881
213,1889
214,1852
215,1872
216,1883
217,1845
218,1833
219,1837
220,1856
221,1872
222,1854
223,1851
224,1915
225,1879
226,1869
227,1870
228,1872
229,1919
230,1868
231,1851
232,1907
233,1884
234,1835
235,1819
236,1808
237,1848
238,1862
239,1851
240,1847
241,1899
242,1872
243,1869
244,1870
245,1904
246,1910
247,1863
248,1835
249,1904
250,1854
251,1831
252,1835
253,1819
254,1901
255,1857
256,1866
257,1890
258,1871
259,1869
260,1863
261,1882
262,1918
263,1885
264,1859
265,1834
266,1875
267,1837
268,1825
269,1840
270,1793
271,1872
272,1860
273,1847
274,1919
275,1879
276,1871
277,1873
278,1893
279,1909
280,1872
281,1840
282,1914
283,1865
284,1840
285,1823
286,1808
287,1888
288,1861
289,1840
290,1865
291,1902
292,1873
293,1866
294,1863
295,1899
296,1904
297,1851
298,1833
299,1923
300,1856
301,1828
302,1835
303,1815
304,1856
305,1854
306,1851
307,1911
308,1910
309,1870
310,1868
311,1898
312,1883
313,1888
314,1854
315,1866
316,1882
317,1845
318,1827
319,1837
320,1871
321,1870
322,1851
323,1838
324,1891
325,1872
326,1859
327,1862
328,1872
329,1923
330,1856
331,1845
332,1873
333,1859
334,1837
335,1825
336,1824
337,1885
338,1872
339,1860
340,1858
341,1894
342,1872
343,1863
344,1868
345,1909
346,1907
347,1863
348,1856
349,1857
350,1855
351,1834
352,1828
353,1855
354,1840
355,1851
356,1862
357,1876
358,1879
359,1858
360,1859
361,1858
362,1907
363,1888
364,1845
365,1891
366,1878
367,1840
368,1829
369,1821
370,1867
371,1873
372,1855
373,1849
374,1936
375,1876
376,1869
377,1873
378,1887
379,1920
380,1872
381,1843
382,1910
383,1862
384,1831
385,1825
386,1840
387,1875
388,1859
389,1850
390,1833
391,1891
392,1871
393,1862
394,1866
395,1876
396,1904
397,1864
398,1840
399,1938
400,1854
401,1815
402,1837
403,1824
404,1873
405,1865
406,1858
407,1883
408,1907
409,1863
410,1869
411,1873
412,1894
413,1891
414,1855
415,1805
416,1884
417,1832
418,1823
419,1844
420,1808
421,1879
422,1863
423,1856
424,1908
425,1872
426,1865
427,1873
428,1905
429,1883
430,1874
431,1858
432,1895
433,1902
434,1835
435,1831
436,1851
437,1868
438,1871
439,1856
440,1851
441,1930
442,1872
443,1865
444,1857
445,1903
446,1903
447,1850
448,1856
449,1840
450,1853
451,1829
452,1834
453,1839
454,1840
455,1855
456,1840
457,1857
458,1898
459,1869
460,1869
461,1886
462,1882
463,1883
464,1863
465,1904
466,1886
467,1840
468,1831
469,1833
470,1841
471,1877
472,1853
473,1866
474,1879
475,1875
476,1857
477,1857
478,1868
479,1943
480,1873
481,1847
482,1949
483,1888
484,1826
485,1831
486,1829
487,1861
488,1857
489,1858
490,1893
491,1905
492,1872
493,1868
494,1856
495,1894
496,1904
497,1859
498,1840
499,1921
500,1853
501,1824
502,1828
503,1871
504,1883
505,1855
506,1850
507,1886
508,1901
509,1861
510,1859
511,1879
512,1890
513,1895
514,1862
515,1872
516,1875
517,1842
518,1830
519,1814
520,1845
521,1871
522,1851
523,1846
524,1882
525,1873
526,1863
527,1873
528,1843
529,1936
530,1872
531,1859
532,1867
533,1843
534,1840
535,1825
536,1809
537,1860
538,1864
539,1851
540,1847
541,1903
542,1870
543,1868
544,1859
545,1914
546,1907
547,1863
548,1840
549,1868
550,1854
551,1833
552,1828
553,1879
554,1853
555,1856
556,1858
557,1859
558,1902
559,1870
560,1860
561,1855
562,1876
563,1882
564,1855
565,1810
566,1877
567,1840
568,1829
569,1851
570,1843
571,1882
572,1856
573,1851
574,1946
575,1870
576,1868
577,1867
578,1863
579,1917
580,1868
581,1841
582,1893
583,1884
584,1840
585,1825
586,1833
587,1893
588,1870
589,1857
590,1841
591,1887
592,1872
593,1863
594,1887
595,1926
596,1897
597,1855
598,1832
599,1904
600,1856
601,1835
602,1830
603,1808
604,1885
605,1858
606,1869
607,1873
608,1893
609,1869
610,1872
611,1857
612,1894
613,1878
614,1856
615,1809
616,1860
617,1841
618,1826
619,1854
620,1825
621,1872
622,1839
623,1859
624,1920
625,1874
626,1867
627,1863
628,1904
629,1886
630,1858
631,1845
632,1873
633,1856
634,1841
635,1835
636,1877
637,1934
638,1861
639,1844
640,1920
641,1889
642,1869
643,1855
644,1873
645,1939
646,1904
647,1856
648,1850
649,1909
650,1858
651,1836
652,1831
653,1840
654,1867
655,1857
656,1851
657,1882
658,1913
659,1862
660,1870
661,1854
662,1908
663,1889
664,1853
665,1907
666,1867
667,1850
668,1825
669,1824
670,1827
671,1868
672,1861
673,1842
674,1893
675,1873
676,1866
677,1867
678,1910
679,1913
680,1863
681,1853
682,1833
683,1870
684,1831
685,1826
686,1838
687,1874
688,1858
689,1862
690,1853
691,1936
692,1870
693,1865
694,1849
695,1915
696,1904
697,1857
698,1851
699,1889
700,1853
701,1837
702,1828
703,1827
704,1915
705,1867
706,1849
707,1915
708,1883
709,1870
710,1870
711,1859
712,1874
713,1878
714,1845
715,1906
716,1886
717,1836
718,1826
719,1841
720,1856
721,1872
722,1857
723,1862
724,1879
725,1872
726,1865
727,1866
728,1857
729,1892
730,1872
731,1852
732,1858
733,1872
734,1838
735,1831
736,1819
737,1833
738,1872
739,1875
740,1915
741,1905
742,1869
743,1869
744,1851
745,1859
746,1894
747,1856
748,1842
749,1897
750,1852
751,1840
752,1839
753,1837
754,1868
755,1862
756,1860
757,1902
758,1871
759,1872
760,1870
761,1881
762,1904
763,1876
764,1839
765,1856
766,1919
767,1840
768,1829
769,1846
770,1829
771,1876
772,1855
773,1835
774,1856
775,1872
776,1856
777,1856
778,1874
779,1903
780,1875
781,1840
782,1887
783,1871
784,1839
785,1833
786,1807
787,1891
788,1872
789,1862
790,1855
791,1936
792,1869
793,1871
794,1856
795,1917
796,1900
797,1861
798,1841
799,1878
800,1845
801,1830
802,1834
803,1828
804,1904
805,1853
806,1840
807,1851
808,1866
809,1869
810,1869
811,1878
812,1956
813,1877
814,1863
815,1876
816,1898
817,1840
818,1831
819,1823
820,1838
821,1867
822,1856
823,1847
824,1921
825,1873
826,1867
827,1874
828,1870
829,1905
830,1865
831,1861
832,1920
833,1879
834,1825
835,1829
836,1836
837,1895
838,1861
839,1850
840,1899
841,1859
842,1865
843,1863
844,1872
845,1909
846,1905
847,1861
848,1838
849,1872
850,1851
851,1835
852,1839
853,1838
854,1872
855,1858
856,1866
857,1894
858,1872
859,1870
860,1873
861,1858
862,1918
863,1881
864,1853
865,1902
866,1882
867,1837
868,1831
869,1823
870,1824
871,1874
872,1850
873,1874
874,1876
875,1872
876,1865
877,1860
878,1905
879,1952
880,1869
881,1850
882,1830
883,1869
884,1840
885,1827
886,1823
887,1865
888,1860
889,1847
890,1826
891,1904
892,1871
893,1869
894,1847
895,1871
896,1893
897,1866
898,1834
899,1894
900,1853
901,1834
902,1835
903,1851
904,1863
905,1854
906,1867
907,1891
908,1876
909,1861
910,1869
911,1869
912,1889
913,1875
914,1856
915,1899
916,1874
917,1840
918,1830
919,1821
920,1875
921,1868
922,1858
923,1848
924,1911
925,1869
926,1859
927,1856
928,1861
929,1904
930,1865
931,1838
932,1835
933,1870
934,1837
935,1831
936,1871
937,1889
938,1856
939,1856
940,1888
941,1910
942,1870
943,1863
944,1862
945,1872
946,1897
947,1870
948,1862
949,1911
950,1854
951,1834
952,1823
953,1840
954,1867
955,1849
956,1846
957,1861
958,1920
959,1872
960,1863
961,1850
962,1906
963,1879
964,1848
965,1847
966,1920
967,1840
968,1831
969,1840
970,1888
971,1872
972,1850
973,1881
974,1973
975,1875
976,1866
977,1862
978,1871
979,1922
980,1862
981,1842
982,1842
983,1882
984,1837
985,1823
986,1847
987,1897
988,1856
989,1847
990,1834
991,1903
992,1868
993,1871
994,1850
995,1885
996,1899
997,1862
998,1854
999,1911
1000,1853
1001,1835
1002,1834
1003,1806
1004,1892
1005,1850
1006,1846
1007,1872
1008,1905
1009,1865
1010,1861
1011,1857
1012,1904
1013,1882
1014,1847
1015,1858
1016,1872
1017,1835
1018,1822
1019,1809
1020,1839
1021,1867
1022,1859
1023,1872
1024,1885
1025,1123
1026,1843
1027,2141
1028,2213
1029,2266
1030,2301
1031,2304
1032,2094
1033,1615
1034,1393
1035,1408
1036,1554
1037,1712
1038,1783
1039,1819
1040,1829
1041,1872
1042,1857
1043,1861
1044,1860
1045,1872
1046,1869
1047,1829
1048,1813
1049,1884
1050,1838
1051,1822
1052,1821
1053,1856
1054,1876
1055,1860
1056,1424
1057,1617
1058,2125
1059,2264
1060,2285
1061,2274
1062,2298
1063,1956
1064,1483
1065,1353
1066,1487
1067,1616
1068,1728
1069,1803
1070,1823
1071,1867
1072,1852
1073,1874
1074,1915
1075,1873
1076,1862
1077,1859
1078,1847
1079,1860
1080,1858
1081,1840
1082,1865
1083,1870
1084,1842
1085,1847
1086,1840
1087,1779
1088,1631
1089,2119
1090,2263
1091,2319
1092,2312
1093,2309
1094,1955
1095,1566
1096,1390
1097,1411
1098,1590
1099,1790
1100,1819
1101,1811
1102,1829
1103,1858
1104,1859
1105,1851
1106,1841
1107,1842
1108,1886
1109,1861
1110,1870
1111,1894
1112,1911
1113,1889
1114,1845
1115,1858
1116,1852
1117,1847
1118,2835
1119,1233
1120,2035
1121,2275
1122,2318
1123,2325
1124,2339
1125,1951
1126,1471
1127,1335
1128,1463
1129,1697
1130,1774
1131,1808
1132,1943
1133,1840
1134,1829
1135,1808
1136,1792
1137,1865
1138,1850
1139,1851
1140,1871
1141,1862
1142,1871
1143,1872
1144,1873
1145,1879
1146,1906
1147,1872
1148,1855
1149,2387
1150,1214
1151,1974
1152,2268
1153,2313
1154,2363
1155,2325
1156,1870
1157,1488
1158,1351
1159,1447
1160,1645
1161,1790
1162,1855
1163,1856
1164,1834
1165,1887
1166,1842
1167,1818
1168,1818
1169,1838
1170,1918
1171,1871
1172,1857
1173,1865
1174,1919
1175,1889
1176,1878
1177,1873
1178,1887
1179,1929
1180,1873
1181,1179
1182,1773
1183,2270
1184,2398
1185,2422
1186,2416
1187,1920
1188,1418
1189,1297
1190,1407
1191,1648
1192,1754
1193,1824
1194,1845
1195,1874
1196,1870
1197,1826
1198,1791
1199,1873
1200,1843
1201,1838
1202,1840
1203,1862
1204,1846
1205,1843
1206,1858
1207,1904
1208,1890
1209,1884
1210,1883
1211,1877
1212,1425
1213,1724
1214,2242
1215,2421
1216,2414
1217,2393
1218,1853
1219,1332
1220,1303
1221,1471
1222,1662
1223,1742
1224,1883
1225,1840
1226,1841
1227,1843
1228,1843
1229,1908
1230,1854
1231,1843
1232,1919
1233,1872
1234,1838
1235,1840
1236,1802
1237,1887
1238,1873
1239,1867
1240,1877
1241,1909
1242,1876
1243,2064
1244,1418
1245,2144
1246,2407
1247,2423
1248,2510
1249,2097
1250,1445
1251,1274
1252,1409
1253,1643
1254,1797
1255,1809
1256,1833
1257,1844
1258,1900
1259,1850
1260,1856
1261,1859
1262,1890
1263,1872
1264,1858
1265,1891
1266,1877
1267,1846
1268,1840
1269,1846
1270,1854
1271,1886
1272,1865
1273,1887
1274,2911
1275,1205
1276,2074
1277,2377
1278,2419
1279,2496
1280,2073
1281,1477
1282,1335
1283,1454
1284,1616
1285,1727
1286,1791
1287,1811
1288,1833
1289,1840
1290,1863
1291,1935
1292,1872
1293,1874
1294,1883
1295,1904
1296,1888
1297,1846
1298,1819
1299,1829
1300,1856
1301,1841
1302,1854
1303,1831
1304,1851
1305,1985
1306,1080
1307,1926
1308,2345
1309,2414
1310,2478
1311,2176
1312,1566
1313,1363
1314,1427
1315,1567
1316,1731
1317,1770
1318,1785
1319,1809
1320,1811
1321,1861
1322,1853
1323,1830
1324,1878
1325,1862
1326,1860
1327,1857
1328,1859
1329,1877
1330,1854
1331,1861
1332,1877
1333,1890
1334,1860
1335,1852
1336,1856
1337,1165
1338,1802
1339,2310
1340,2475
1341,2437
1342,2273
1343,1612
1344,1329
1345,1462
1346,1647
1347,1744
1348,1803
1349,1792
1350,1814
1351,1811
1352,1831
1353,1835
1354,1882
1355,1852
1356,1840
1357,1845
1358,1874
1359,1864
1360,1869
1361,1871
1362,1907
1363,1895
1364,1871
1365,1961
1366,1872
1367,1854
1368,1507
1369,1579
1370,2238
1371,2381
1372,2432
1373,2293
1374,1783
1375,1387
1376,1411
1377,1619
1378,1751
1379,1863
1380,1822
1381,1811
1382,1815
1383,1826
1384,1831
1385,1838
1386,1840
1387,1882
1388,1845
1389,1853
1390,1897
1391,1895
1392,1879
1393,1878
1394,1884
1395,1922
1396,1909
1397,1869
1398,1883
1399,2224
1400,1431
1401,2131
1402,2350
1403,2358
1404,2395
1405,1777
1406,1383
1407,1378
1408,1593
1409,1733
1410,1798
1411,1797
1412,1881
1413,1841
1414,1841
1415,1840
1416,1874
1417,1841
1418,1829
1419,1821
1420,1920
1421,1866
1422,1857
1423,1871
1424,1943
1425,1887
1426,1879
1427,1887
1428,1872
1429,1918
1430,2944
1431,1178
1432,2022
1433,2342
1434,2369
1435,2401
1436,1904
1437,1410
1438,1407
1439,1569
1440,1808
1441,1839
1442,1811
1443,1825
1444,1835
1445,1913
1446,1890
1447,1867
1448,1814
1449,1847
1450,1840
1451,1822
1452,1835
1453,1824
1454,1874
1455,1870
1456,1872
1457,1887
1458,1899
1459,1878
1460,1881
1461,2063
1462,1195
1463,1968
1464,2292
1465,2363
1466,2417
1467,1959
1468,1425
1469,1389
1470,1570
1471,1730
1472,1794
1473,1840
1474,1844
1475,1835
1476,1850
1477,1856
1478,1872
1479,1885
1480,1858
1481,1851
1482,1856
1483,1840
1484,1834
1485,1831
1486,1829
1487,1874
1488,1883
1489,1865
1490,1863
1491,1895
1492,1879
1493,1172
1494,1840
1495,2254
1496,2378
1497,2420
1498,2170
1499,1591
1500,1401
1501,1497
1502,1675
1503,1758
1504,1827
1505,1819
1506,1808
1507,1841
1508,1856
1509,1857
1510,1854
1511,1859
1512,1899
1513,1857
1514,1845
1515,1919
1516,1855
1517,1850
1518,1845
1519,1849
1520,1840
1521,1877
1522,1862
1523,1917
1524,1519
1525,1703
1526,2238
1527,2372
1528,2398
1529,2302
1530,1598
1531,1377
1532,1533
1533,1674
1534,1744
1535,1779
1536,1809
1537,1811
1538,1833
1539,1835
1540,1842
1541,1901
1542,1867
1543,1858
1544,1845
1545,1871
1546,1877
1547,1845
1548,1880
1549,1875
1550,1872
1551,1845
1552,1853
1553,1851
1554,1917
1555,2263
1556,1351
1557,2142
1558,2375
1559,2401
1560,2367
1561,1723
1562,1467
1563,1486
1564,1631
1565,1781
1566,1793
1567,1794
1568,1790
1569,1813
1570,1838
1571,1867
1572,1849
1573,1820
1574,1906
1575,1873
1576,1861
1577,1857
1578,1885
1579,1904
1580,1865
1581,1860
1582,1882
1583,1877
1584,1842
1585,1840
1586,2743
1587,1216
1588,2017
1589,2349
1590,2385
1591,2415
1592,1842
1593,1426
1594,1494
1595,1626
1596,1776
1597,1798
1598,1833
1599,1867
1600,1818
1601,1818
1602,1827
1603,1808
1604,1842
1605,1857
1606,1851
1607,1910
1608,1874
1609,1866
1610,1870
1611,1907
1612,1881
1613,1884
1614,1856
1615,1879
1616,1873
1617,1843
1618,1073
1619,1855
1620,2257
1621,2361
1622,2396
1623,1971
1624,1606
1625,1477
1626,1607
1627,1726
1628,1808
1629,1873
1630,1822
1631,1808
1632,1863
1633,1855
1634,1821
1635,1819
1636,1815
1637,1863
1638,1855
1639,1847
1640,1919
1641,1887
1642,1881
1643,1879
1644,1887
1645,1858
1646,1903
1647,1871
1648,1842
1649,1920
1650,1855
1651,1844
1652,1840
1653,1847
1654,1904
1655,1872
1656,1861
1657,1958
1658,1888
1659,1873
1660,1870
1661,1910
1662,1920
1663,1871
1664,1854
1665,1894
1666,1877
1667,1847
1668,1831
1669,1873
1670,1885
1671,1870
1672,1847
1673,1814
1674,1920
1675,1861
1676,1859
1677,1861
1678,1863
1679,1917
1680,1856
1681,1840
1682,1872
1683,1866
1684,1832
1685,1834
1686,1847
1687,1883
1688,1857
1689,1840
1690,1846
1691,1867
1692,1866
1693,1865
1694,1872
1695,1901
1696,1890
1697,1847
1698,1893
1699,1873
1700,1847
1701,1830
1702,1837
1703,1839
1704,1885
1705,1862
1706,1857
1707,1907
1708,1874
1709,1863
1710,1872
1711,1889
1712,1877
1713,1872
1714,1849
1715,1859
1716,1843
1717,1840
1718,1835
1719,1840
1720,1856
1721,1854
1722,1863
1723,1862
1724,1920
1725,1873
1726,1869
1727,1870
1728,1877
1729,1937
1730,1855
1731,1857
1732,1908
1733,1855
1734,1837
1735,1833
1736,1827
1737,1852
1738,1856
1739,1859
1740,1861
1741,1882
1742,1862
1743,1869
1744,1858
1745,1874
1746,1890
1747,1857
1748,1843
1749,1901
1750,1849
1751,1834
1752,1837
1753,1849
1754,1905
1755,1861
1756,1856
1757,1875
1758,1886
1759,1867
1760,1866
1761,1878
1762,1904
1763,1877
1764,1833
1765,1859
1766,1855
1767,1832
1768,1835
1769,1853
1770,1834
1771,1876
1772,1869
1773,1869
1774,1911
1775,1865
1776,1863
1777,1872
1778,1869
1779,1913
1780,1863
1781,1856
1782,1845
1783,1858
1784,1838
1785,1834
1786,1879
1787,1920
1788,1871
1789,1870
1790,1840
1791,1874
1792,1870
1793,1867
1794,1868
1795,1908
1796,1886
1797,1846
1798,1872
1799,1876
1800,1846
1801,1831
1802,1828
1803,1831
1804,1886
1805,1856
1806,1847
1807,1883
1808,1877
1809,1869
1810,1866
1811,1879
1812,1889
1813,1866
1814,1850
1815,1823
1816,1877
1817,1839
1818,1833
1819,1840
1820,1875
1821,1867
1822,1847
1823,1840
1824,1904
1825,1867
1826,1861
1827,1856
1828,1885
1829,1882
1830,1851
1831,1837
1832,1869
1833,1869
1834,1839
1835,1831
1836,1845
1837,1888
1838,1865
1839,1859
1840,1828
1841,1920
1842,1867
1843,1869
1844,1863
1845,1874
1846,1892
1847,1858
1848,1875
1849,1867
1850,1854
1851,1833
1852,1837
1853,1860
1854,1837
1855,1851
1856,1845
1857,1825
1858,1877
1859,1868
1860,1867
1861,1879
1862,1949
1863,1881
1864,1850
1865,1858
1866,1872
1867,1839
1868,1834
1869,1830
1870,1856
1871,1870
1872,1853
1873,1844
1874,1957
1875,1876
1876,1862
1877,1872
1878,1867
1879,1888
1880,1872
1881,1853
1882,1845
1883,1867
1884,1829
1885,1827
1886,1813
1887,1872
1888,1858
1889,1858
1890,1920
1891,1930
1892,1866
1893,1865
1894,1847
1895,1919
1896,1891
1897,1859
1898,1840
1899,1906
1900,1847
1901,1834
1902,1826
1903,1821
1904,1901
1905,1850
1906,1859
1907,1918
1908,1883
1909,1863
1910,1868
1911,1872
1912,1915
1913,1877
1914,1851
1915,1905
1916,1855
1917,1831
1918,1826
1919,1826
1920,1834
1921,1865
1922,1862
1923,1854
1924,1858
1925,1872
1926,1865
1927,1868
1928,1926
1929,1947
1930,1867
1931,1830
1932,1919
1933,1859
1934,1837
1935,1831
1936,1822
1937,1819
1938,1861
1939,1849
1940,1882
1941,1898
1942,1867
1943,1869
1944,1873
1945,1881
1946,1889
1947,1854
1948,1821
1949,1870
1950,1839
1951,1824
1952,1817
1953,1853
1954,1869
1955,1856
1956,1851
1957,1874
1958,1879
1959,1862
1960,1867
1961,1902
1962,1886
1963,1885
1964,1851
1965,1862
1966,1899
1967,1837
1968,1824
1969,1842
1970,1853
1971,1861
1972,1859
1973,1869
1974,1898
1975,1866
1976,1859
1977,1871
1978,1859
1979,1897
1980,1876
1981,1841
1982,1930
1983,1863
1984,1831
1985,1834
1986,1838
1987,1870
1988,1858
1989,1851
1990,1879
1991,1893
1992,1869
1993,1866
1994,1887
1995,1953
1996,1886
1997,1863
1998,1855
1999,1834
2000,1853
2001,1825
2002,1837
2003,1864
2004,1873
2005,1857
2006,1840
2007,1933
2008,1882
2009,1863
2010,1869
2011,1851
2012,1898
2013,1870
2014,1840
2015,1927
2016,1904
2017,1838
2018,1833
2019,1851
2020,1863
2021,1866
2022,1846
2023,1879
2024,1893
2025,1872
2026,1866
2027,1873
2028,1894
2029,1923
2030,1866
2031,1846
2032,1968
2033,1862
2034,1830
2035,1825
2036,1853
2037,1911
2038,1859
2039,1847
2040,1852
2041,1861
2042,1857
2043,1869
2044,1872
2045,1882
2046,1893
2047,1855
2048,1829
2049,1872
2050,1842
2051,1835
2052,1826
2053,1857
2054,1865
2055,1851
2056,1843
2057,1859
2058,1885
2059,1866
2060,1865
2061,1869
2062,1947
2063,1876
2064,1850
2065,1904
2066,1876
2067,1828
2068,1826
2069,1814
2070,1863
2071,1867
2072,1858
2073,1865
2074,1889
2075,1872
2076,1863
2077,1873
2078,1850
2079,1919
2080,1866
2081,1845
2082,1859
2083,1858
2084,1834
2085,1827
2086,1828
2087,1857
2088,1855
2089,1855
2090,1872
2091,1870
2092,1870
2093,1871
2094,1887
2095,1883
2096,1882
2097,1854
2098,1830
2099,1859
2100,1845
2101,1835
2102,1840
2103,1851
2104,1881
2105,1845
2106,1851
2107,1915
2108,1879
2109,1870
2110,1861
2111,1892
2112,1913
2113,1869
2114,1850
2115,1846
2116,1873
2117,1839
2118,1825
2119,1847
2120,1874
2121,1857
2122,1840
2123,1840
2124,1840
2125,1867
2126,1857
2127,1872
2128,1888
2129,1924
2130,1847
2131,1843
2132,1886
2133,1862
2134,1831
2135,1833
2136,1855
2137,1895
2138,1857
2139,1855
2140,1870
2141,1903
2142,1861
2143,1872
2144,1845
2145,1872
2146,1888
2147,1849
2148,1840
2149,1882
2150,1845
2151,1833
2152,1824
2153,1883
2154,1890
2155,1840
2156,1857
2157,1968
2158,1869
2159,1864
2160,1866
2161,1894
2162,1943
2163,1882
2164,1850
2165,1859
2166,1904
2167,1839
2168,1830
2169,1810
2170,1840
2171,1875
2172,1865
2173,1844
2174,1875
2175,1863
2176,1862
2177,1878
2178,1856
2179,1903
2180,1858
2181,1843
2182,1866
2183,1863
2184,1825
2185,1820
2186,1870
2187,1840
2188,1845
2189,1853
2190,1846
2191,1890
2192,1870
2193,1866
2194,1886
2195,1876
2196,1894
2197,1847
2198,1822
2199,1872
2200,1845
2201,1833
2202,1840
2203,1840
2204,1882
2205,1854
2206,1856
2207,1922
2208,1881
2209,1866
2210,1861
2211,1892
2212,1889
2213,1871
2214,1846
2215,1850
2216,1872
2217,1839
2218,1823
2219,1834
2220,1824
2221,1866
2222,1855
2223,1866
2224,1923
2225,1871
2226,1870
2227,1866
2228,1933
2229,1883
2230,1867
2231,1857
2232,1859
2233,1855
2234,1839
2235,1835
2236,1822
2237,1915
2238,1859
2239,1847
2240,1872
2241,1885
2242,1869
2243,1868
2244,1844
2245,1914
2246,1883
2247,1849
2248,1811
2249,1908
2250,1850
2251,1831
2252,1837
2253,1851
2254,1877
2255,1856
2256,1841
2257,1907
2258,1877
2259,1863
2260,1871
2261,1879
2262,1907
2263,1874
2264,1856
2265,1859
2266,1889
2267,1837
2268,1826
2269,1876
2270,1840
2271,1867
2272,1858
2273,1888
2274,1904
2275,1866
2276,1859
2277,1856
2278,1861
2279,1898
2280,1862
2281,1858
2282,1908
2283,1865
2284,1838
2285,1831
2286,1863
2287,1869
2288,1851
2289,1857
2290,1840
2291,1883
2292,1866
2293,1870
2294,1867
2295,1933
2296,1889
2297,1842
2298,1848
2299,1881
2300,1843
2301,1836
2302,1833
2303,1844
2304,1895
2305,1849
2306,1841
2307,1866
2308,1872
2309,1865
2310,1869
2311,1887
2312,1936
2313,1883
2314,1852
2315,1877
2316,1839
2317,1834
2318,1833
2319,1825
2320,1904
2321,1865
2322,1869
2323,1891
2324,1882
2325,1872
2326,1862
2327,1872
2328,1905
2329,1905
2330,1861
2331,1856
2332,1833
2333,1866
2334,1831
2335,1829
2336,1825
2337,1840
2338,1853
2339,1855
2340,1884
2341,1894
2342,1856
2343,1872
2344,1868
2345,1872
2346,1889
2347,1867
2348,1850
2349,1852
2350,1842
2351,1826
2352,1833
2353,1807
2354,1899
2355,1868
2356,1845
2357,1884
2358,1873
2359,1861
2360,1863
2361,1851
2362,1942
2363,1873
2364,1840
2365,1825
2366,1851
2367,1833
2368,1823
2369,1837
2370,1840
2371,1863
2372,1865
2373,1861
2374,1880
2375,1871
2376,1864
2377,1869
2378,1876
2379,1910
2380,1861
2381,1869
2382,1917
2383,1857
2384,1835
2385,1829
2386,1838
2387,1875
2388,1852
2389,1860
2390,1855
2391,1929
2392,1866
2393,1869
2394,1872
2395,1930
2396,1879
2397,1855
2398,1814
2399,1911
2400,1846
2401,1830
2402,1823
2403,1842
2404,1878
2405,1854
2406,1850
2407,1871
2408,1873
2409,1867
2410,1867
2411,1865
2412,1889
2413,1874
2414,1830
2415,1899
2416,1867
2417,1840
2418,1831
2419,1815
2420,1840
2421,1858
2422,1842
2423,1852
2424,1882
2425,1870
2426,1860
2427,1859
2428,1878
2429,1899
2430,1854
2431,1851
2432,1859
2433,1870
2434,1829
2435,1831
2436,1888
2437,1872
2438,1862
2439,1857
2440,1900
2441,1878
2442,1864
2443,1867
2444,1856
2445,1862
2446,1888
2447,1856
2448,1828
2449,1889
2450,1843
2451,1824
2452,1830
2453,1858
2454,1874
2455,1862
2456,1867
2457,1888
2458,1872
2459,1861
2460,1872
2461,1862
2462,1907
2463,1875
2464,1859
2465,1876
2466,1871
2467,1833
2468,1825
2469,1824
2470,1824
2471,1872
2472,1869
2473,1877
2474,1849
2475,1872
2476,1861
2477,1866
2478,1861
2479,1920
2480,1861
2481,1851
2482,1836
2483,1862
2484,1827
2485,1819
2486,1814
2487,1840
2488,1849
2489,1861
2490,1895
2491,1892
2492,1872
2493,1866
2494,1872
2495,1905
2496,1886
2497,1856
2498,1839
2499,1833
2500,1843
2501,1830
2502,1827
2503,1838
2504,1883
2505,1855
2506,1850
2507,1947
2508,1872
2509,1865
2510,1866
2511,1887
2512,1918
2513,1868
2514,1846
2515,1835
2516,1877
2517,1827
2518,1824
2519,1815
2520,1844
2521,1859
2522,1853
2523,1904
2524,1872
2525,1871
2526,1867
2527,1870
2528,1886
2529,1905
2530,1858
2531,1845
2532,1919
2533,1858
2534,1837
2535,1828
2536,1834
2537,1885
2538,1867
2539,1846
2540,1903
2541,1909
2542,1869
2543,1866
2544,1867
2545,1943
2546,1878
2547,1844
2548,1859
2549,1911
2550,1845
2551,1829
2552,1831
2553,1867
2554,1873
2555,1857
2556,1856
2557,1901
2558,1879
2559,1866
2560,1857
2561,1882
2562,1909
2563,1867
2564,1855
2565,1926
2566,1905
2567,1853
2568,1829
2569,1855
2570,1844
2571,1869
2572,1845
2573,1870
2574,1904
2575,1865
2576,1858
2577,1867
2578,1863
2579,1906
2580,1862
2581,1851
2582,1911
2583,1862
2584,1839
2585,1823
2586,1845
2587,1878
2588,1852
2589,1851
2590,1913
2591,1900
2592,1869
2593,1869
2594,1866
2595,1887
2596,1883
2597,1844
2598,1818
2599,1907
2600,1851
2601,1823
2602,1833
2603,1840
2604,1872
2605,1854
2606,1845
2607,1862
2608,1872
2609,1866
2610,1861
2611,1853
2612,1932
2613,1874
2614,1840
2615,1853
2616,1847
2617,1839
2618,1826
2619,1830
2620,1830
2621,1867
2622,1840
2623,1874
2624,1920
2625,1871
2626,1867
2627,1872
2628,1869
2629,1910
2630,1870
2631,1839
2632,1931
2633,1857
2634,1827
2635,1827
2636,1824
2637,1862
2638,1854
2639,1862
2640,1882
2641,1887
2642,1871
2643,1861
2644,1871
2645,1856
2646,1883
2647,1574
2648,1613
2649,2039
2650,2146
2651,2185
2652,2235
2653,2365
2654,2279
2655,1888
2656,1517
2657,1502
2658,1503
2659,1632
2660,1747
2661,1792
2662,1866
2663,1848
2664,1821
2665,1808
2666,1874
2667,1825
2668,1815
2669,1814
2670,1830
2671,1849
2672,1823
2673,1842
2674,1915
2675,1862
2676,1860
2677,1861
2678,2062
2679,1473
2680,2026
2681,2158
2682,2257
2683,2200
2684,2206
2685,2072
2686,1624
2687,1446
2688,1465
2689,1591
2690,1802
2691,1827
2692,1840
2693,1856
2694,1850
2695,1921
2696,1872
2697,1840
2698,1869
2699,1883
2700,1844
2701,1830
2702,1835
2703,1866
2704,1882
2705,1870
2706,1874
2707,1994
2708,1898
2709,2880
2710,1174
2711,1935
2712,2178
2713,2206
2714,2176
2715,2246
2716,2121
2717,1687
2718,1467
2719,1455
2720,1616
2721,1731
2722,1788
2723,1809
2724,1893
2725,1855
2726,1858
2727,1855
2728,1903
2729,1889
2730,1857
2731,1827
2732,1887
2733,1859
2734,1840
2735,1844
2736,1863
2737,1891
2738,1871
2739,1863
2740,1882
2741,1084
2742,1831
2743,2178
2744,2224
2745,2251
2746,2262
2747,2124
2748,1713
2749,1584
2750,1511
2751,1606
2752,1714
2753,1797
2754,1840
2755,1836
2756,1826
2757,1856
2758,1866
2759,1861
2760,1856
2761,1863
2762,1978
2763,1872
2764,1857
2765,1938
2766,1872
2767,1841
2768,1840
2769,1839
2770,1878
2771,1878
2772,1254
2773,1689
2774,2229
2775,2331
2776,2335
2777,2386
2778,2214
2779,1726
2780,1391
2781,1392
2782,1579
2783,1665
2784,1727
2785,1765
2786,1789
2787,1855
2788,1835
2789,1827
2790,1877
2791,1869
2792,1859
2793,1872
2794,1906
2795,1956
2796,1901
2797,1872
2798,1881
2799,1872
2800,1858
2801,1847
2802,1849
2803,1535
2804,1600
2805,2181
2806,2304
2807,2324
2808,2382
2809,2154
2810,1587
2811,1457
2812,1513
2813,1604
2814,1702
2815,1801
2816,1845
2817,1808
2818,1808
2819,1807
2820,1851
2821,1861
2822,1851
2823,1861
2824,1923
2825,1874
2826,1879
2827,1878
2828,1886
2829,1929
2830,1879
2831,1864
2832,1921
2833,1872
2834,2408
2835,1289
2836,2089
2837,2303
2838,2298
2839,2366
2840,2275
2841,1745
2842,1495
2843,1456
2844,1593
2845,1735
2846,1789
2847,1807
2848,1798
2849,1846
2850,1799
2851,1797
2852,1806
2853,1867
2854,1872
2855,1855
2856,1875
2857,1897
2858,1883
2859,1876
2860,1878
2861,1921
2862,1920
2863,1887
2864,1872
2865,2943
2866,1171
2867,1965
2868,2208
2869,2245
2870,2366
2871,2266
2872,1781
2873,1445
2874,1519
2875,1616
2876,1720
2877,1785
2878,1872
2879,1867
2880,1813
2881,1827
2882,1843
2883,1840
2884,1823
2885,1835
2886,1825
2887,1872
2888,1869
2889,1858
2890,1913
2891,1903
2892,1882
2893,1885
2894,1883
2895,1971
2896,1904
2897,1093
2898,1814
2899,2192
2900,2241
2901,2326
2902,2283
2903,1818
2904,1535
2905,1443
2906,1591
2907,1751
2908,1793
2909,1810
2910,1834
2911,1820
2912,1901
2913,1863
2914,1843
2915,1858
2916,1872
2917,1837
2918,1831
2919,1825
2920,1842
2921,1867
2922,1872
2923,1870
2924,1910
2925,1879
2926,1885
2927,1911
2928,1290
2929,1699
2930,2172
2931,2265
2932,2342
2933,2353
2934,1890
2935,1475
2936,1424
2937,1600
2938,1714
2939,1773
2940,1773
2941,1822
2942,1826
2943,1851
2944,1873
2945,1885
2946,1882
2947,1861
2948,1808
2949,1871
2950,1841
2951,1840
2952,1845
2953,1855
2954,1893
2955,1865
2956,1879
2957,1911
2958,1891
2959,1719
2960,1519
2961,2160
2962,2354
2963,2340
2964,2383
2965,1950
2966,1535
2967,1415
2968,1535
2969,1699
2970,1787
2971,1809
2972,1789
2973,1872
2974,1899
2975,1855
2976,1856
2977,1856
2978,1869
2979,1900
2980,1856
2981,1840
2982,1845
2983,1858
2984,1841
2985,1846
2986,1824
2987,1899
2988,1872
2989,1869
2990,2288
2991,1436
2992,2096
2993,2269
2994,2304
2995,2416
2996,2032
2997,1533
2998,1375
2999,1600
3000,1694
3001,1747
3002,1757
3003,1803
3004,1823
3005,1831
3006,1841
3007,1892
3008,1872
3009,1861
3010,1862
3011,1886
3012,1939
3013,1869
3014,1856
3015,1875
3016,1887
3017,1850
3018,1845
3019,1836
3020,1887
3021,2427
3022,1104
3023,1985
3024,2263
3025,2339
3026,2448
3027,2211
3028,1694
3029,1477
3030,1472
3031,1597
3032,1750
3033,1783
3034,1766
3035,1765
3036,1789
3037,1822
3038,1853
3039,1851
3040,1868
3041,1895
3042,1862
3043,1867
3044,1899
3045,1894
3046,1895
3047,1871
3048,1877
3049,1904
3050,1860
3051,1849
3052,1847
3053,1070
3054,1777
3055,2206
3056,2306
3057,2427
3058,2313
3059,1735
3060,1424
3061,1491
3062,1665
3063,1766
3064,1801
3065,1776
3066,1827
3067,1808
3068,1813
3069,1824
3070,1840
3071,1859
3072,1854
3073,1840
3074,1919
3075,1872
3076,1874
3077,1870
3078,1930
3079,1919
3080,1874
3081,1872
3082,1937
3083,1872
3084,1312
3085,1658
3086,2157
3087,2322
3088,2379
3089,2365
3090,1835
3091,1478
3092,1438
3093,1629
3094,1762
3095,1838
3096,1833
3097,1804
3098,1798
3099,1845
3100,1827
3101,1814
3102,1828
3103,1834
3104,1871
3105,1857
3106,1863
3107,1985
3108,1887
3109,1881
3110,1885
3111,1895
3112,1941
3113,1879
3114,1851
3115,1827
3116,1591
3117,2087
3118,2239
3119,2303
3120,2416
3121,1947
3122,1421
3123,1425
3124,1663
3125,1737
3126,1808
3127,1808
3128,1827
3129,1872
3130,1840
3131,1824
3132,1918
3133,1844
3134,1827
3135,1837
3136,1822
3137,1872
3138,1855
3139,1866
3140,1901
3141,1905
3142,1882
3143,1886
3144,1873
3145,1958
3146,2484
3147,1296
3148,2054
3149,2228
3150,2313
3151,2401
3152,2007
3153,1509
3154,1450
3155,1555
3156,1698
3157,1798
3158,1837
3159,1824
3160,1826
3161,1832
3162,1933
3163,1859
3164,1839
3165,1859
3166,1857
3167,1831
3168,1825
3169,1822
3170,1885
3171,1887
3172,1883
3173,1921
3174,1902
3175,1875
3176,1875
3177,2489
3178,1106
3179,1950
3180,2243
3181,2303
3182,2410
3183,2128
3184,1563
3185,1398
3186,1554
3187,1712
3188,1794
3189,1830
3190,1842
3191,1861
3192,1854
3193,1858
3194,1907
3195,1897
3196,1881
3197,1840
3198,1842
3199,1886
3200,1841
3201,1840
3202,1855
3203,1839
3204,1888
3205,1865
3206,1857
3207,1920
3208,1888
3209,1087
3210,1870
3211,2245
3212,2311
3213,2419
3214,2210
3215,1776
3216,1426
3217,1471
3218,1613
3219,1731
3220,1825
3221,1820
3222,1817
3223,1855
3224,1930
3225,1860
3226,1871
3227,1872
3228,1839
3229,1894
3230,1853
3231,1839
3232,1872
3233,1869
3234,1840
3235,1843
3236,1851
3237,1886
3238,1872
3239,1859
3240,1383
3241,1714
3242,2141
3243,2269
3244,2373
3245,2352
3246,1829
3247,1468
3248,1463
3249,1623
3250,1725
3251,1780
3252,1795
3253,1840
3254,1860
3255,1845
3256,1854
3257,1872
3258,1869
3259,1858
3260,1858
3261,1866
3262,1957
3263,1870
3264,1862
3265,1881
3266,1855
3267,1850
3268,1837
3269,1872
3270,1872
3271,1869
3272,1865
3273,1835
3274,1906
3275,1876
3276,1875
3277,1856
3278,1890
3279,1902
3280,1856
3281,1856
3282,1856
3283,1859
3284,1838
3285,1840
3286,1850
3287,1842
3288,1871
3289,1863
3290,1909
3291,1887
3292,1866
3293,1865
3294,1859
3295,1889
3296,1872
3297,1843
3298,1803
3299,1852
3300,1840
3301,1829
3302,1846
3303,1826
3304,1873
3305,1858
3306,1853
3307,1925
3308,1872
3309,1861
3310,1862
3311,1861
3312,1932
3313,1863
3314,1843
3315,1959
3316,1883
3317,1829
3318,1823
3319,1819
3320,1866
3321,1859
3322,1847
3323,1815
3324,1904
3325,1863
3326,1857
3327,1856
3328,1870
3329,1894
3330,1853
3331,1839
3332,1879
3333,1855
3334,1831
3335,1837
3336,1808
3337,1861
3338,1863
3339,1858
3340,1888
3341,1910
3342,1866
3343,1874
3344,1873
3345,1933
3346,1885
3347,1857
3348,1856
3349,1843
3350,1840
3351,1828
3352,1814
3353,1919
3354,1873
3355,1842
3356,1851
3357,1886
3358,1869
3359,1861
3360,1865
3361,1869
3362,1885
3363,1871
3364,1842
3365,1899
3366,1856
3367,1835
3368,1830
3369,1873
3370,1863
3371,1869
3372,1842
3373,1831
3374,1918
3375,1872
3376,1862
3377,1855
3378,1874
3379,1904
3380,1854
3381,1830
3382,1929
3383,1857
3384,1837
3385,1825
3386,1822
3387,1877
3388,1863
3389,1863
3390,1894
3391,1883
3392,1868
3393,1869
3394,1866
3395,1938
3396,1887
3397,1857
3398,1904
3399,1851
3400,1840
3401,1835
3402,1825
3403,1846
3404,1876
3405,1855
3406,1857
3407,1883
3408,1872
3409,1865
3410,1865
3411,1872
3412,1890
3413,1863
3414,1844
3415,1835
3416,1845
3417,1827
3418,1836
3419,1845
3420,1851
3421,1871
3422,1862
3423,1863
3424,1898
3425,1872
3426,1867
3427,1856
3428,1876
3429,1898
3430,1858
3431,1828
3432,1867
3433,1856
3434,1837
3435,1831
3436,1819
3437,1904
3438,1860
3439,1863
3440,1904
3441,1914
3442,1866
3443,1862
3444,1882
3445,1900
3446,1875
3447,1846
3448,1867
3449,1888
3450,1840
3451,1835
3452,1838
3453,1831
3454,1876
3455,1847
3456,1872
3457,1869
3458,1874
3459,1865
3460,1870
3461,1852
3462,1905
3463,1872
3464,1861
3465,1862
3466,1872
3467,1828
3468,1835
3469,1827
3470,1922
3471,1861
3472,1855
3473,1865
3474,1908
3475,1866
3476,1860
3477,1854
3478,1899
3479,1904
3480,1855
3481,1849
3482,1891
3483,1856
3484,1826
3485,1827
3486,1831
3487,1904
3488,1855
3489,1871
3490,1888
3491,1915
3492,1863
3493,1866
3494,1883
3495,1863
3496,1882
3497,1858
3498,1852
3499,1890
3500,1846
3501,1827
3502,1839
3503,1835
3504,1873
3505,1856
3506,1845
3507,1888
3508,1863
3509,1861
3510,1865
3511,1856
3512,1902
3513,1869
3514,1840
3515,1847
3516,1893
3517,1831
3518,1835
3519,1839
3520,1857
3521,1862
3522,1853
3523,1904
3524,1899
3525,1867
3526,1867
3527,1858
3528,1859
3529,1898
3530,1856
3531,1846
3532,1845
3533,1854
3534,1833
3535,1830
3536,1822
3537,1874
3538,1853
3539,1841
3540,1915
3541,1870
3542,1867
3543,1866
3544,1879
3545,1887
3546,1882
3547,1850
3548,1819
3549,1887
3550,1844
3551,1831
3552,1829
3553,1867
3554,1874
3555,1862
3556,1841
3557,1872
3558,1873
3559,1869
3560,1865
3561,1856
3562,1910
3563,1872
3564,1853
3565,1904
3566,1835
3567,1827
3568,1828
3569,1819
3570,1851
3571,1859
3572,1869
3573,1901
3574,1925
3575,1870
3576,1863
3577,1859
3578,1872
3579,1899
3580,1849
3581,1821
3582,1839
3583,1856
3584,1831
3585,1827
3586,1872
3587,1901
3588,1861
3589,1855
3590,1865
3591,1886
3592,1866
3593,1861
3594,1886
3595,1869
3596,1872
3597,1834
3598,1847
3599,1840
3600,1846
3601,1827
3602,1844
3603,1846
3604,1872
3605,1845
3606,1840
3607,1913
3608,1875
3609,1866
3610,1868
3611,1854
3612,1905
3613,1860
3614,1840
3615,1862
3616,1851
3617,1835
3618,1833
3619,1835
3620,1840
3621,1863
3622,1841
3623,1862
3624,1904
3625,1866
3626,1846
3627,1872
3628,1863
3629,1889
3630,1849
3631,1826
3632,1856
3633,1850
3634,1830
3635,1830
3636,1815
3637,1888
3638,1861
3639,1849
3640,1847
3641,1878
3642,1863
3643,1866
3644,1869
3645,1955
3646,1873
3647,1845
3648,1913
3649,1861
3650,1842
3651,1829
3652,1866
3653,1872
3654,1872
3655,1845
3656,1840
3657,1882
3658,1872
3659,1866
3660,1865
3661,1887
3662,1885
3663,1866
3664,1847
3665,1891
3666,1865
3667,1835
3668,1827
3669,1846
3670,1862
3671,1862
3672,1845
3673,1825
3674,1923
3675,1867
3676,1861
3677,1863
3678,1883
3679,1897
3680,1856
3681,1828
3682,1904
3683,1854
3684,1831
3685,1823
3686,1820
3687,1891
3688,1843
3689,1857
3690,1872
3691,1885
3692,1869
3693,1863
3694,1858
3695,1901
3696,1882
3697,1842
3698,1867
3699,1834
3700,1840
3701,1831
3702,1817
3703,1858
3704,1877
3705,1857
3706,1855
3707,1916
3708,1871
3709,1863
3710,1867
3711,1915
3712,1910
3713,1862
3714,1838
3715,1875
3716,1872
3717,1824
3718,1828
3719,1851
3720,1857
3721,1867
3722,1856
3723,1847
3724,1911
3725,1871
3726,1866
3727,1874
3728,1915
3729,1891
3730,1852
3731,1851
3732,1881
3733,1857
3734,1835
3735,1828
3736,1814
3737,1909
3738,1856
3739,1851
3740,1875
3741,1905
3742,1863
3743,1867
3744,1878
3745,1943
3746,1872
3747,1843
3748,1840
3749,1887
3750,1835
3751,1826
3752,1857
3753,1824
3754,1876
3755,1854
3756,1857
3757,1906
3758,1871
3759,1863
3760,1872
3761,1891
3762,1874
3763,1866
3764,1856
3765,1883
3766,1865
3767,1834
3768,1828
3769,1840
3770,1828
3771,1867
3772,1853
3773,1859
3774,1906
3775,1863
3776,1858
3777,1869
3778,1933
3779,1895
3780,1857
3781,1846
3782,1863
3783,1852
3784,1836
3785,1841
3786,1847
3787,1848
3788,1870
3789,1853
3790,1888
3791,1914
3792,1863
3793,1866
3794,1904
3795,1901
3796,1874
3797,1854
3798,1861
3799,1879
3800,1849
3801,1824
3802,1852
3803,1811
3804,1877
3805,1853
3806,1854
3807,1899
3808,1871
3809,1867
3810,1863
3811,1904
3812,1931
3813,1862
3814,1856
3815,1867
3816,1844
3817,1832
3818,1838
3819,1820
3820,1877
3821,1863
3822,1867
3823,1856
3824,1866
3825,1863
3826,1865
3827,1887
3828,1905
3829,1904
3830,1845
3831,1849
3832,1920
3833,1845
3834,1830
3835,1822
3836,1819
3837,1872
3838,1855
3839,1847
3840,1921
3841,1872
3842,1861
3843,1859
3844,1872
3845,1883
3846,1879
3847,1854
3848,1872
3849,1841
3850,1839
3851,1829
3852,1859
3853,1869
3854,1872
3855,1854
3856,1840
3857,1871
3858,1872
3859,1867
3860,1866
3861,1885
3862,1920
3863,1853
3864,1852
3865,1904
3866,1901
3867,1828
3868,1821
3869,1837
3870,1887
3871,1863
3872,1849
3873,1867
3874,1904
3875,1872
3876,1858
3877,1893
3878,1953
3879,1904
3880,1856
3881,1845
3882,1904
3883,1851
3884,1837
3885,1835
3886,1819
3887,1904
3888,1859
3889,1842
3890,1872
3891,1875
3892,1865
3893,1859
3894,1872
3895,1885
3896,1872
3897,1840
3898,1851
3899,1891
3900,1843
3901,1831
3902,1813
3903,1851
3904,1872
3905,1849
3906,1812
3907,1879
3908,1866
3909,1861
3910,1867
3911,1872
3912,1894
3913,1857
3914,1847
3915,1838
3916,1872
3917,1825
3918,1833
3919,1836
3920,1845
3921,1857
3922,1846
3923,1872
3924,1872
3925,1866
3926,1855
3927,1847
3928,1862
3929,1888
3930,1850
3931,1834
3932,1854
3933,1855
3934,1834
3935,1830
3936,1855
3937,1870
3938,1846
3939,1847
3940,1904
3941,1882
3942,1861
3943,1863
3944,1890
3945,1955
3946,1883
3947,1847
3948,1861
3949,1875
3950,1843
3951,1827
3952,1825
3953,1865
3954,1877
3955,1858
3956,1856
3957,1889
3958,1871
3959,1863
3960,1869
3961,1875
3962,1897
3963,1870
3964,1859
3965,1904
3966,1867
3967,1829
3968,1825
3969,1879
3970,1931
3971,1861
3972,1859
3973,1872
3974,1903
3975,1867
3976,1862
3977,1862
3978,1849
3979,1896
3980,1870
3981,1843
3982,1904
3983,1853
3984,1835
3985,1823
3986,1802
3987,1882
3988,1853
3989,1860
3990,1876
3991,1886
3992,1867
3993,1869
3994,1870
3995,1890
3996,1877
3997,1850
3998,1891
3999,1898
4000,1841
4001,1837
4002,1855
4003,1851
4004,1872
4005,1846
4006,1857
4007,1907
4008,1872
4009,1865
4010,1857
4011,1878
4012,1915
4013,1865
4014,1841
4015,1835
4016,1858
4017,1824
4018,1825
4019,1858
4020,1882
4021,1858
4022,1845
4023,1818
4024,1925
4025,1867
4026,1865
4027,1843
4028,1895
4029,1901
4030,1862
4031,1822
4032,1906
4033,1854
4034,1831
4035,1829
4036,1882
4037,1856
4038,1857
4039,1840
4040,1856
4041,1878
4042,1868
4043,1861
4044,1879
4045,1882
4046,1872
4047,1837
4048,1892
4049,1869
4050,1842
4051,1828
4052,1821
4053,1856
4054,1871
4055,1849
4056,1861
4057,1931
4058,1874
4059,1862
4060,1859
4061,1857
4062,1910
4063,1865
4064,1861
4065,1904
4066,1875
4067,1835
4068,1840
4069,1849
4070,1849
4071,1862
4072,1850
4073,1907
4074,1853
4075,1860
4076,1857
4077,1876
4078,1859
4079,1892
4080,1856
4081,1885
4082,1902
4083,1853
4084,1834
4085,1830
4086,1849
4087,1878
4088,1865
4089,1863
4090,1935
4091,1885
4092,1862
4093,1868
4094,1873
4095,1877
4096,1875
4097,1855
4098,1904
4099,1874
4100,1839
4101,1834
4102,1809
4103,1843
4104,1875
4105,1857
4106,1855
4107,1872
4108,1872
4109,1866
4110,1862
4111,1895
4112,1890
4113,1863
4114,1854
4115,1861
4116,1841
4117,1839
4118,1840
4119,1808
4120,1840
4121,1858
4122,1862
4123,1872
4124,1902
4125,1865
4126,1862
4127,1879
4128,1877
4129,1888
4130,1856
4131,1839
4132,1875
4133,1853
4134,1835
4135,1830
4136,1834
4137,1871
4138,1853
4139,1845
4140,1884
4141,1859
4142,1866
4143,1862
4144,1879
4145,1905
4146,1861
4147,1857
4148,1874
4149,1893
4150,1836
4151,1839
4152,1843
4153,1874
4154,1878
4155,1866
4156,1860
4157,1927
4158,1869
4159,1863
4160,1865
4161,1850
4162,1891
4163,1866
4164,1841
4165,1877
4166,1841
4167,1833
4168,1830
4169,1824
4170,1887
4171,1867
4172,1863
4173,1856
4174,1920
4175,1862
4176,1866
4177,1857
4178,1883
4179,1904
4180,1858
4181,1840
4182,1847
4183,1843
4184,1839
4185,1840
4186,1819
4187,1886
4188,1858
4189,1856
4190,1877
4191,1891
4192,1861
4193,1859
4194,1858
4195,1882
4196,1867
4197,1827
4198,1887
4199,1907
4200,1843
4201,1835
4202,1840
4203,1874
4204,1869
4205,1863
4206,1876
4207,1930
4208,1871
4209,1861
4210,1862
4211,1887
4212,1891
4213,1858
4214,1838
4215,1850
4216,1888
4217,1839
4218,1834
4219,1840
4220,1874
4221,1857
4222,1851
4223,1856
4224,1889
4225,1855
4226,1856
4227,1858
4228,1923
4229,1877
4230,1843
4231,1830
4232,1945
4233,1859
4234,1840
4235,1840
4236,1826
4237,1902
4238,1857
4239,1851
4240,1860
4241,1879
4242,1856
4243,1858
4244,1857
4245,1855
4246,1857
4247,1837
4248,1826
4249,1882
4250,1851
4251,1840
4252,1868
4253,1904
4254,1872
4255,1856
4256,1872
4257,1894
4258,1858
4259,1853
4260,1854
4261,1868
4262,1949
4263,1856
4264,1840
4265,1838
4266,1855
4267,1847
4268,1843
4269,2753
4270,1331
4271,1936
4272,2143
4273,2210
4274,2261
4275,2299
4276,2298
4277,1959
4278,1648
4279,1488
4280,1483
4281,1599
4282,1732
4283,1788
4284,1791
4285,1808
4286,1805
4287,1872
4288,1856
4289,1856
4290,1881
4291,1887
4292,1847
4293,1841
4294,1843
4295,1820
4296,1850
4297,1843
4298,1853
4299,1872
4300,2549
4301,1154
4302,1871
4303,2146
4304,2207
4305,2198
4306,2189
4307,2191
4308,1775
4309,1493
4310,1463
4311,1591
4312,1775
4313,1777
4314,1808
4315,1857
4316,1868
4317,1847
4318,1846
4319,1871
4320,1855
4321,1855
4322,1843
4323,1810
4324,1861
4325,1856
4326,1856
4327,1855
4328,1878
4329,1889
4330,1872
4331,1856
4332,1313
4333,1860
4334,2119
4335,2206
4336,2222
4337,2273
4338,2163
4339,1766
4340,1535
4341,1456
4342,1565
4343,1682
4344,1812
4345,1834
4346,1842
4347,1840
4348,1920
4349,1886
4350,1840
4351,1826
4352,1825
4353,1872
4354,1872
4355,1844
4356,1852
4357,1966
4358,1872
4359,1866
4360,1871
4361,1863
4362,1903
4363,1399
4364,1665
4365,2205
4366,2337
4367,2286
4368,2304
4369,2239
4370,1707
4371,1369
4372,1392
4373,1630
4374,1769
4375,1767
4376,1801
4377,1843
4378,1855
4379,1879
4380,1840
4381,1846
4382,1889
4383,1851
4384,1840
4385,1843
4386,1853
4387,1934
4388,1872
4389,1871
4390,1978
4391,1899
4392,1874
4393,1871
4394,1991
4395,1451
4396,2135
4397,2329
4398,2395
4399,2410
4400,2231
4401,1625
4402,1370
4403,1421
4404,1535
4405,1679
4406,1745
4407,1811
4408,1837
4409,1842
4410,1858
4411,1857
4412,1877
4413,1854
4414,1837
4415,1892
4416,1872
4417,1840
4418,1846
4419,1893
4420,1898
4421,1869
4422,1882
4423,1877
4424,1936
4425,2878
4426,1252
4427,2034
4428,2331
4429,2343
4430,2366
4431,2217
4432,1696
4433,1417
4434,1412
4435,1535
4436,1634
4437,1791
4438,1808
4439,1813
4440,1836
4441,1854
4442,1839
4443,1842
4444,1840
4445,1872
4446,1867
4447,1851
4448,1920
4449,1891
4450,1856
4451,1849
4452,1872
4453,1911
4454,1891
4455,1872
4456,2077
4457,1285
4458,1941
4459,2230
4460,2285
4461,2362
4462,2320
4463,1780
4464,1452
4465,1448
4466,1585
4467,1674
4468,1750
4469,1787
4470,1875
4471,1843
4472,1849
4473,1835
4474,1915
4475,1847
4476,1851
4477,1856
4478,1887
4479,1879
4480,1861
4481,1875
4482,1914
4483,1866
4484,1859
4485,1856
4486,1845
4487,1903
4488,1285
4489,1775
4490,2163
4491,2288
4492,2352
4493,2340
4494,1895
4495,1523
4496,1469
4497,1535
4498,1764
4499,1751
4500,1801
4501,1811
4502,1824
4503,1850
4504,1872
4505,1846
4506,1846
4507,1877
4508,1867
4509,1854
4510,1861
4511,1875
4512,1901
4513,1862
4514,1863
4515,1909
4516,1890
4517,1859
4518,1853
4519,1519
4520,1509
4521,2090
4522,2253
4523,2336
4524,2416
4525,2019
4526,1584
4527,1424
4528,1535
4529,1665
4530,1733
4531,1802
4532,1897
4533,1838
4534,1829
4535,1834
4536,1814
4537,1872
4538,1856
4539,1856
4540,1873
4541,1872
4542,1856
4543,1865
4544,1873
4545,1890
4546,1890
4547,1865
4548,1858
4549,1895
4550,2113
4551,1392
4552,2113
4553,2250
4554,2381
4555,2442
4556,2067
4557,1589
4558,1346
4559,1483
4560,1645
4561,1754
4562,1829
4563,1807
4564,1806
4565,1850
4566,1855
4567,1824
4568,1825
4569,1845
4570,1871
4571,1870
4572,1855
4573,1875
4574,1882
4575,1867
4576,1873
4577,1873
4578,1867
4579,1901
4580,1872
4581,2830
4582,1411
4583,2027
4584,2263
4585,2348
4586,2426
4587,2158
4588,1535
4589,1328
4590,1531
4591,1655
4592,1743
4593,1782
4594,1792
4595,1824
4596,1835
4597,1821
4598,1874
4599,1870
4600,1840
4601,1840
4602,1872
4603,1850
4604,1875
4605,1862
4606,1815
4607,1904
4608,1886
4609,1872
4610,1872
4611,1872
4612,2015
4613,1171
4614,1870
4615,2231
4616,2352
4617,2439
4618,2206
4619,1597
4620,1408
4621,1472
4622,1616
4623,1713
4624,1791
4625,1808
4626,1809
4627,1831
4628,1814
4629,1869
4630,1840
4631,1840
4632,1882
4633,1857
4634,1846
4635,1843
4636,1831
4637,1898
4638,1872
4639,1859
4640,1879
4641,1888
4642,1872
4643,1868
4644,1296
4645,1761
4646,2211
4647,2339
4648,2502
4649,2308
4650,1696
4651,1344
4652,1412
4653,1615
4654,1760
4655,1791
4656,1810
4657,1909
4658,1827
4659,1827
4660,1840
4661,1838
4662,1863
4663,1852
4664,1853
4665,1905
4666,1875
4667,1855
4668,1856
4669,1850
4670,1916
4671,1885
4672,1866
4673,1904
4674,1915
4675,1630
4676,1572
4677,2154
4678,2391
4679,2439
4680,2384
4681,1861
4682,1414
4683,1371
4684,1535
4685,1695
4686,1783
4687,1825
4688,1805
4689,1803
4690,1860
4691,1856
4692,1841
4693,1855
4694,1840
4695,1888
4696,1855
4697,1847
4698,1859
4699,1857
4700,1858
4701,1856
4702,1840
4703,1926
4704,1879
4705,1853
4706,2205
4707,1473
4708,2082
4709,2317
4710,2406
4711,2432
4712,2055
4713,1453
4714,1330
4715,1591
4716,1722
4717,1772
4718,1793
4719,1845
4720,1809
4721,1817
4722,1817
4723,1834
4724,1878
4725,1845
4726,1851
4727,1856
4728,1863
4729,1885
4730,1870
4731,1874
4732,1893
4733,1872
4734,1856
4735,1851
4736,1853
4737,2905
4738,1203
4739,1986
4740,2371
4741,2417
4742,2487
4743,2054
4744,1474
4745,1360
4746,1514
4747,1670
4748,1828
4749,1811
4750,1801
4751,1795
4752,1839
4753,1839
4754,1862
4755,1851
4756,1878
4757,1905
4758,1853
4759,1851
4760,1854
4761,1883
4762,1914
4763,1876
4764,1865
4765,1920
4766,1880
4767,1857
4768,1879
4769,1183
4770,1791
4771,2224
4772,2350
4773,2471
4774,2240
4775,1651
4776,1374
4777,1497
4778,1722
4779,1783
4780,1806
4781,1821
4782,1857
4783,1825
4784,1815
4785,1821
4786,1849
4787,1876
4788,1851
4789,1838
4790,1846
4791,1883
4792,1870
4793,1869
4794,1872
4795,1903
4796,1875
4797,1863
4798,1877
4799,1889
4800,1370
4801,1707
4802,2238
4803,2314
4804,2459
4805,2319
4806,1669
4807,1403
4808,1445
4809,1617
4810,1739
4811,1770
4812,1820
4813,1794
4814,1787
4815,1907
4816,1856
4817,1837
4818,1839
4819,1813
4820,1854
4821,1857
4822,1838
4823,1856
4824,1911
4825,1863
4826,1866
4827,1872
4828,1903
4829,1887
4830,1858
4831,1703
4832,1648
4833,2135
4834,2304
4835,2413
4836,2343
4837,1851
4838,1373
4839,1403
4840,1639
4841,1730
4842,1776
4843,1808
4844,1822
4845,1821
4846,1843
4847,1827
4848,1870
4849,1907
4850,1840
4851,1838
4852,1830
4853,1909
4854,1877
4855,1857
4856,1899
4857,1940
4858,1867
4859,1862
4860,1870
4861,1878
4862,2399
4863,1343
4864,2065
4865,2303
4866,2405
4867,2416
4868,1895
4869,1423
4870,1406
4871,1583
4872,1712
4873,1786
4874,1835
4875,1807
4876,1818
4877,1846
4878,1873
4879,1879
4880,1839
4881,1826
4882,1871
4883,1850
4884,1840
4885,1834
4886,1853
4887,1920
4888,1870
4889,1870
4890,1871
4891,1887
4892,1872
4893,1869
4894,1887
4895,1862
4896,1879
4897,1859
4898,1855
4899,1898
4900,1856
4901,1847
4902,1850
4903,1858
4904,1881
4905,1862
4906,1851
4907,1904
4908,1860
4909,1858
4910,1853
4911,1879
4912,1898
4913,1859
4914,1835
4915,1879
4916,1870
4917,1835
4918,1835
4919,1842
4920,1870
4921,1860
4922,1841
4923,1848
4924,1893
4925,1855
4926,1855
4927,1854
4928,1853
4929,1875
4930,1840
4931,1839
4932,1857
4933,1851
4934,1840
4935,1843
4936,1821
4937,1908
4938,1856
4939,1843
4940,1881
4941,1872
4942,1855
4943,1855
4944,1863
4945,1951
4946,1857
4947,1833
4948,1875
4949,1856
4950,1835
4951,1833
4952,1872
4953,1841
4954,1882
4955,1845
4956,1886
4957,1895
4958,1861
4959,1856
4960,1857
4961,1909
4962,1894
4963,1856
4964,1841
4965,1923
4966,1872
4967,1842
4968,1838
4969,1818
4970,1870
4971,1867
4972,1843
4973,1825
4974,1887
4975,1854
4976,1847
4977,1858
4978,1906
4979,1875
4980,1845
4981,1842
4982,1885
4983,1858
4984,1842
4985,1850
4986,1873
4987,1879
4988,1855
4989,1845
4990,1917
4991,1876
4992,1853
4993,1858
4994,1885
4995,1903
4996,1860
4997,1844
4998,1888
4999,1875
5000,1851
5001,1840
5002,1856
5003,1872
5004,1871
5005,1847
5006,1843
5007,1854
5008,1858
5009,1856
5010,1867
5011,1862
5012,1877
5013,1855
5014,1845
5015,1887
5016,1870
5017,1841
5018,1841
5019,1857
5020,1843
5021,1851
5022,1853
5023,1903
5024,1874
5025,1853
5026,1858
5027,1847
5028,1873
5029,1872
5030,1853
5031,1859
5032,1905
5033,1858
5034,1841
5035,1844
5036,1856
5037,1883
5038,1856
5039,1855
5040,1852
5041,1877
5042,1871
5043,1871
5044,1859
5045,1939
5046,1847
5047,1839
5048,1840
5049,1861
5050,1851
5051,1840
5052,1879
5053,1868
5054,1879
5055,1858
5056,1820
5057,1920
5058,1866
5059,1862
5060,1857
5061,1842
5062,1904
5063,1854
5064,1846
5065,1875
5066,1866
5067,1840
5068,1838
5069,1814
5070,1882
5071,1866
5072,1853
5073,1925
5074,1920
5075,1858
5076,1856
5077,1847
5078,1850
5079,1875
5080,1857
5081,1918
5082,1885
5083,1859
5084,1840
5085,1851
5086,1887
5087,1903
5088,1857
5089,1829
5090,1891
5091,1879
5092,1857
5093,1861
5094,1873
5095,1950
5096,1851
5097,1831
5098,1906
5099,1874
5100,1853
5101,1840
5102,1839
5103,1890
5104,1870
5105,1866
5106,1807
5107,1934
5108,1862
5109,1853
5110,1863
5111,1877
5112,1891
5113,1855
5114,1857
5115,1887
5116,1873
5117,1840
5118,1840
5119,1870
5120,1881
5121,1854
5122,1844
5123,1901
5124,1859
5125,1857
5126,1855
5127,1841
5128,1869
5129,1872
5130,1843
5131,1854
5132,1859
5133,1851
5134,1843
5135,1840
5136,1903
5137,1915
5138,1869
5139,1843
5140,1934
5141,1875
5142,1855
5143,1855
5144,1861
5145,1941
5146,1858
5147,1846
5148,1875
5149,1866
5150,1847
5151,1840
5152,1858
5153,1846
5154,1875
5155,1845
5156,1856
5157,1904
5158,1861
5159,1858
5160,1863
5161,1901
5162,1899
5163,1846
5164,1835
5165,1842
5166,1872
5167,1846
5168,1840
5169,1826
5170,1893
5171,1872
5172,1863
5173,1898
5174,1883
5175,1860
5176,1856
5177,1884
5178,1872
5179,1883
5180,1851
5181,1831
5182,1866
5183,1851
5184,1840
5185,1849
5186,1840
5187,1893
5188,1853
5189,1851
5190,1879
5191,1871
5192,1856
5193,1860
5194,1851
5195,1878
5196,1872
5197,1856
5198,1895
5199,1856
5200,1847
5201,1840
5202,1830
5203,1875
5204,1881
5205,1859
5206,1844
5207,1915
5208,1855
5209,1859
5210,1853
5211,1905
5212,1892
5213,1864
5214,1848
5215,1906
5216,1868
5217,1836
5218,1835
5219,1831
5220,1900
5221,1854
5222,1857
5223,1840
5224,1876
5225,1847
5226,1856
5227,1847
5228,1871
5229,1883
5230,1850
5231,1899
5232,1863
5233,1856
5234,1840
5235,1840
5236,1843
5237,1885
5238,1859
5239,1852
5240,1881
5241,1872
5242,1859
5243,1856
5244,1887
5245,1843
5246,1855
5247,1840
5248,1920
5249,1872
5250,1845
5251,1843
5252,1855
5253,1835
5254,1878
5255,1855
5256,1868
5257,1910
5258,1867
5259,1857
5260,1857
5261,1840
5262,1901
5263,1862
5264,1857
5265,1867
5266,1866
5267,1843
5268,1840
5269,1840
5270,1872
5271,1857
5272,1854
5273,1877
5274,1882
5275,1851
5276,1851
5277,1839
5278,1863
5279,1872
5280,1849
5281,1862
5282,1871
5283,1849
5284,1845
5285,1840
5286,1840
5287,1889
5288,1846
5289,1856
5290,1922
5291,1872
5292,1858
5293,1855
5294,1868
5295,1918
5296,1865
5297,1836
5298,1843
5299,1884
5300,1847
5301,1840
5302,1861
5303,1873
5304,1876
5305,1849
5306,1872
5307,1915
5308,1856
5309,1855
5310,1856
5311,1857
5312,1907
5313,1859
5314,1856
5315,1871
5316,1871
5317,1842
5318,1843
5319,1827
5320,1923
5321,1868
5322,1855
5323,1841
5324,1908
5325,1854
5326,1854
5327,1873
5328,1905
5329,1878
5330,1860
5331,1856
5332,1885
5333,1851
5334,1843
5335,1817
5336,1866
5337,1893
5338,1849
5339,1840
5340,1950
5341,1871
5342,1859
5343,1859
5344,1881
5345,1859
5346,1868
5347,1843
5348,1910
5349,1872
5350,1850
5351,1842
5352,1872
5353,1878
5354,1872
5355,1872
5356,1813
5357,1867
5358,1853
5359,1859
5360,1850
5361,1877
5362,1891
5363,1851
5364,1840
5365,1885
5366,1865
5367,1840
5368,1834
5369,1857
5370,1887
5371,1866
5372,1846
5373,1894
5374,1891
5375,1860
5376,1857
5377,1856
5378,1900
5379,1886
5380,1856
5381,1823
5382,1890
5383,1854
5384,1840
5385,1851
5386,1841
5387,1887
5388,1863
5389,1854
5390,1903
5391,1871
5392,1855
5393,1856
5394,1856
5395,1873
5396,1858
5397,1853
5398,1840
5399,1878
5400,1850
5401,1841
5402,1861
5403,1888
5404,1872
5405,1861
5406,1878
5407,1904
5408,1863
5409,1852
5410,1845
5411,1871
5412,1899
5413,1853
5414,1840
5415,1869
5416,1871
5417,1842
5418,1840
5419,1850
5420,1893
5421,1865
5422,1855
5423,1849
5424,1882
5425,1857
5426,1851
5427,1840
5428,1831
5429,1873
5430,1840
5431,1838
5432,1923
5433,1858
5434,1839
5435,1825
5436,1830
5437,1885
5438,1851
5439,1851
5440,1895
5441,1874
5442,1861
5443,1860
5444,1853
5445,1918
5446,1870
5447,1841
5448,1903
5449,1901
5450,1840
5451,1843
5452,1860
5453,1861
5454,1871
5455,1866
5456,1871
5457,1855
5458,1856
5459,1856
5460,1869
5461,1893
5462,1904
5463,1853
5464,1856
5465,1883
5466,1867
5467,1843
5468,1847
5469,1826
5470,1898
5471,1867
5472,1869
5473,1904
5474,1904
5475,1856
5476,1857
5477,1838
5478,1872
5479,1886
5480,1850
5481,1889
5482,1901
5483,1859
5484,1841
5485,1831
5486,1857
5487,1878
5488,1845
5489,1867
5490,1905
5491,1874
5492,1856
5493,1855
5494,1872
5495,1881
5496,1858
5497,1845
5498,1842
5499,1904
5500,1852
5501,1843
5502,1837
5503,1849
5504,1872
5505,1845
5506,1878
5507,1883
5508,1867
5509,1855
5510,1843
5511,1883
5512,1899
5513,1853
5514,1840
5515,1904
5516,1859
5517,1840
5518,1837
5519,1837
5520,1855
5521,1869
5522,1836
5523,1901
5524,1891
5525,1861
5526,1857
5527,1850
5528,1847
5529,1872
5530,1850
5531,1811
5532,1859
5533,1852
5534,1841
5535,1836
5536,1872
5537,1885
5538,1858
5539,1847
5540,1902
5541,1871
5542,1857
5543,1855
5544,1847
5545,1888
5546,1856
5547,1843
5548,1870
5549,1877
5550,1851
5551,1841
5552,1857
5553,1888
5554,1872
5555,1857
5556,1867
5557,1957
5558,1861
5559,1855
5560,1856
5561,1820
5562,1895
5563,1853
5564,1838
5565,1921
5566,1873
5567,1841
5568,1834
5569,1864
5570,1901
5571,1869
5572,1850
5573,1868
5574,1875
5575,1853
5576,1850
5577,1878
5578,1922
5579,1875
5580,1847
5581,1891
5582,1866
5583,1855
5584,1840
5585,1845
5586,1851
5587,1870
5588,1853
5589,1858
5590,1858
5591,1873
5592,1856
5593,1855
5594,1890
5595,1903
5596,1870
5597,1842
5598,1861
5599,1850
5600,1845
5601,1838
5602,1831
5603,1838
5604,1873
5605,1856
5606,1844
5607,1878
5608,1857
5609,1855
5610,1847
5611,1863
5612,1895
5613,1855
5614,1861
5615,1890
5616,1865
5617,1840
5618,1839
5619,1863
5620,1850
5621,1862
5622,1836
5623,1919
5624,1841
5625,1856
5626,1856
5627,1857
5628,1911
5629,1879
5630,1858
5631,1918
5632,1875
5633,1853
5634,1841
5635,1840
5636,1872
5637,1878
5638,1857
5639,1840
5640,1893
5641,1871
5642,1854
5643,1858
5644,1856
5645,1877
5646,1867
5647,1845
5648,1887
5649,1858
5650,1853
5651,1840
5652,1866
5653,1916
5654,1874
5655,1851
5656,1860
5657,1904
5658,1866
5659,1858
5660,1849
5661,1851
5662,1889
5663,1853
5664,1838
5665,1840
5666,1861
5667,1840
5668,1842
5669,1891
5670,1919
5671,1857
5672,1851
5673,1904
5674,1879
5675,1862
5676,1857
5677,1835
5678,1936
5679,1879
5680,1853
5681,1842
5682,1902
5683,1859
5684,1840
5685,1843
5686,1821
5687,1886
5688,1851
5689,1840
5690,1895
5691,1872
5692,1851
5693,1855
5694,1876
5695,1846
5696,1858
5697,1855
5698,1886
5699,1887
5700,1843
5701,1840
5702,1858
5703,1859
5704,1872
5705,1846
5706,1850
5707,1919
5708,1863
5709,1858
5710,1869
5711,1879
5712,1893
5713,1856
5714,1859
5715,1903
5716,1872
5717,1840
5718,1838
5719,1887
5720,1897
5721,1856
5722,1843
5723,1943
5724,1877
5725,1852
5726,1852
5727,1838
5728,1902
5729,1877
5730,1843
5731,1856
5732,1881
5733,1856
5734,1840
5735,1847
5736,1808
5737,1883
5738,1856
5739,1856
5740,1914
5741,1872
5742,1854
5743,1853
5744,1909
5745,1920
5746,1870
5747,1853
5748,1818
5749,1909
5750,1846
5751,1840
5752,1842
5753,1850
5754,1871
5755,1847
5756,1856
5757,1882
5758,1856
5759,1857
5760,1872
5761,1878
5762,1894
5763,1853
5764,1840
5765,1919
5766,1865
5767,1839
5768,1842
5769,1840
5770,1897
5771,1866
5772,1861
5773,1901
5774,1927
5775,1855
5776,1859
5777,1859
5778,1903
5779,1882
5780,1842
5781,1869
5782,1913
5783,1851
5784,1842
5785,1837
5786,1840
5787,1885
5788,1849
5789,1856
5790,1891
5791,1874
5792,1854
5793,1857
5794,1891
5795,1900
5796,1870
5797,1847
5798,1859
5799,1901
5800,1844
5801,1841
5802,1812
5803,1866
5804,1874
5805,1862
5806,1850
5807,1901
5808,1862
5809,1857
5810,1840
5811,1911
5812,1904
5813,1861
5814,1850
5815,1845
5816,1858
5817,1839
5818,1840
5819,1902
5820,1865
5821,1863
5822,1855
5823,1886
5824,1888
5825,1854
5826,1856
5827,1867
5828,1904
5829,1874
5830,1851
5831,1826
5832,1885
5833,1856
5834,1842
5835,1831
5836,1876
5837,1876
5838,1858
5839,1847
5840,1945
5841,1874
5842,1858
5843,1851
5844,1871
5845,1862
5846,1865
5847,1845
5848,1921
5849,1879
5850,1852
5851,1840
5852,1821
5853,1837
5854,1873
5855,1853
5856,1878
5857,1873
5858,1859
5859,1855
5860,1840
5861,1918
5862,1893
5863,1856
5864,1842
5865,1903
5866,1863
5867,1840
5868,1840
5869,1835
5870,1856
5871,1859
5872,1861
5873,1904
5874,1917
5875,1851
5876,1851
5877,1851
5878,1868
5879,1877
5880,1854
5881,1851
5882,1899
5883,1854
5884,1840
5885,1821
5886,1843
5887,1884
5888,1855
5889,1854
5890,1901
5891,1872
5892,1283
5893,1793
5894,2117
5895,2210
5896,2242
5897,2291
5898,2314
5899,2085
5900,1641
5901,1429
5902,1424
5903,1563
5904,1690
5905,1747
5906,1804
5907,1862
5908,1838
5909,1852
5910,1872
5911,1860
5912,1890
5913,1835
5914,1829
5915,1876
5916,1840
5917,1822
5918,1826
5919,1799
5920,1867
5921,1872
5922,1861
5923,1461
5924,1765
5925,2103
5926,2196
5927,2224
5928,2274
5929,2215
5930,1869
5931,1568
5932,1521
5933,1534
5934,1626
5935,1738
5936,1774
5937,1842
5938,1826
5939,1848
5940,1936
5941,1862
5942,1849
5943,1842
5944,1840
5945,1896
5946,1862
5947,1839
5948,1846
5949,1879
5950,1854
5951,1856
5952,1855
5953,1915
5954,1855
5955,1491
5956,2112
5957,2275
5958,2224
5959,2224
5960,2205
5961,1915
5962,1627
5963,1466
5964,1511
5965,1669
5966,1755
5967,1778
5968,1802
5969,1857
5970,1873
5971,1861
5972,1838
5973,1877
5974,1886
5975,1856
5976,1846
5977,1883
5978,1874
5979,1886
5980,1854
5981,1846
5982,1912
5983,1867
5984,1855
5985,2458
5986,1266
5987,1986
5988,2220
5989,2233
5990,2271
5991,2265
5992,1915
5993,1535
5994,1478
5995,1616
5996,1671
5997,1738
5998,1809
5999,1887
6000,1829
6001,1825
6002,1831
6003,1860
6004,1859
6005,1847
6006,1849
6007,1883
6008,1872
6009,1861
6010,1842
6011,1917
6012,1899
6013,1861
6014,1856
6015,1902
6016,2957
6017,1242
6018,1971
6019,2256
6020,2330
6021,2359
6022,2326
6023,1935
6024,1423
6025,1367
6026,1456
6027,1618
6028,1718
6029,1785
6030,1791
6031,1809
6032,1847
6033,1835
6034,1827
6035,1853
6036,1863
6037,1886
6038,1843
6039,1853
6040,1893
6041,1877
6042,1872
6043,1874
6044,1922
6045,1884
6046,1871
6047,1869
6048,1370
6049,1910
6050,2239
6051,2311
6052,2361
6053,2359
6054,1871
6055,1395
6056,1417
6057,1567
6058,1639
6059,1730
6060,1780
6061,1844
6062,1872
6063,1845
6064,1839
6065,1867
6066,1860
6067,1842
6068,1850
6069,1861
6070,1887
6071,1857
6072,1885
6073,1936
6074,1885
6075,1872
6076,1872
6077,1904
6078,1877
6079,1520
6080,1647
6081,2152
6082,2339
6083,2349
6084,2337
6085,1914
6086,1472
6087,1447
6088,1507
6089,1631
6090,1750
6091,1806
6092,1823
6093,1841
6094,1834
6095,1926
6096,1849
6097,1840
6098,1929
6099,1892
6100,1850
6101,1845
6102,1842
6103,1871
6104,1886
6105,1865
6106,1879
6107,1921
6108,1873
6109,1872
6110,1913
6111,1488
6112,2103
6113,2293
6114,2352
6115,2391
6116,2032
6117,1527
6118,1385
6119,1447
6120,1681
6121,1735
6122,1775
6123,1853
6124,1870
6125,1851
6126,1851
6127,1835
6128,1925
6129,1860
6130,1850
6131,1853
6132,1906
6133,1856
6134,1838
6135,1853
6136,1808
6137,1896
6138,1860
6139,1883
6140,1936
6141,2725
6142,1311
6143,2014
6144,2269
6145,2325
6146,2365
6147,2085
6148,1574
6149,1478
6150,1491
6151,1639
6152,1710
6153,1799
6154,1825
6155,1826
6156,1826
6157,1885
6158,1857
6159,1853
6160,1849
6161,1840
6162,1894
6163,1858
6164,1854
6165,1947
6166,1872
6167,1855
6168,1859
6169,1842
6170,1905
6171,1866
6172,2303
6173,1269
6174,1956
6175,2217
6176,2315
6177,2433
6178,2219
6179,1712
6180,1433
6181,1461
6182,1603
6183,1687
6184,1747
6185,1789
6186,1792
6187,1858
6188,1830
6189,1826
6190,1884
6191,1862
6192,1852
6193,1859
6194,1865
6195,1951
6196,1870
6197,1860
6198,1834
6199,1882
6200,1858
6201,1856
6202,1835
6203,1869
6204,1343
6205,1758
6206,2231
6207,2381
6208,2423
6209,2277
6210,1697
6211,1397
6212,1481
6213,1609
6214,1713
6215,1829
6216,1817
6217,1808
6218,1815
6219,1859
6220,1920
6221,1836
6222,1847
6223,1891
6224,1883
6225,1863
6226,1853
6227,1853
6228,1883
6229,1883
6230,1857
6231,1835
6232,1872
6233,1859
6234,1854
6235,1535
6236,1634
6237,2139
6238,2292
6239,2390
6240,2357
6241,1826
6242,1461
6243,1422
6244,1602
6245,1726
6246,1776
6247,1793
6248,1866
6249,1898
6250,1827
6251,1836
6252,1834
6253,1851
6254,1872
6255,1862
6256,1827
6257,1910
6258,1855
6259,1856
6260,1840
6261,1876
6262,1905
6263,1872
6264,1848
6265,1951
6266,2009
6267,1435
6268,2068
6269,2257
6270,2383
6271,2387
6272,1901
6273,1521
6274,1441
6275,1553
6276,1705
6277,1774
6278,1857
6279,1829
6280,1817
6281,1814
6282,1913
6283,1852
6284,1840
6285,1834
6286,1802
6287,1885
6288,1854
6289,1841
6290,1877
6291,1870
6292,1871
6293,1870
6294,1893
6295,1959
6296,1872
6297,2816
6298,1355
6299,2019
6300,2262
6301,2347
6302,2401
6303,2005
6304,1533
6305,1345
6306,1571
6307,1714
6308,1773
6309,1792
6310,1781
6311,1801
6312,1872
6313,1846
6314,1839
6315,1919
6316,1859
6317,1840
6318,1845
6319,1840
6320,1889
6321,1860
6322,1840
6323,1844
6324,1879
6325,1867
6326,1866
6327,1886
6328,2180
6329,1262
6330,1875
6331,2243
6332,2410
6333,2459
6334,2138
6335,1589
6336,1390
6337,1504
6338,1640
6339,1740
6340,1826
6341,1821
6342,1806
6343,1815
6344,1843
6345,1872
6346,1848
6347,1840
6348,1890
6349,1882
6350,1837
6351,1839
6352,1839
6353,1909
6354,1881
6355,1853
6356,1887
6357,1948
6358,1862
6359,1867
6360,1323
6361,1790
6362,2234
6363,2355
6364,2470
6365,2254
6366,1665
6367,1342
6368,1437
6369,1631
6370,1777
6371,1807
6372,1827
6373,1872
6374,1835
6375,1823
6376,1837
6377,1827
6378,1870
6379,1872
6380,1849
6381,1869
6382,1889
6383,1855
6384,1840
6385,1871
6386,1873
6387,1894
6388,1868
6389,1851
6390,1957
6391,1635
6392,1605
6393,2173
6394,2333
6395,2412
6396,2330
6397,1745
6398,1424
6399,1489
6400,1584
6401,1712
6402,1775
6403,1846
6404,1825
6405,1811
6406,1883
6407,1898
6408,1844
6409,1847
6410,1853
6411,1824
6412,1890
6413,1854
6414,1842
6415,1869
6416,1865
6417,1850
6418,1858
6419,1855
6420,1857
6421,1870
6422,1973
6423,1519
6424,2112
6425,2320
6426,2419
6427,2391
6428,1868
6429,1458
6430,1424
6431,1565
6432,1726
6433,1779
6434,1793
6435,1797
6436,1785
6437,1847
6438,1839
6439,1840
6440,1915
6441,1865
6442,1847
6443,1856
6444,1873
6445,1879
6446,1842
6447,1840
6448,1870
6449,1885
6450,1853
6451,1857
6452,1882
6453,2848
6454,1289
6455,2011
6456,2321
6457,2446
6458,2448
6459,1975
6460,1493
6461,1424
6462,1585
6463,1680
6464,1769
6465,1886
6466,1824
6467,1799
6468,1814
6469,1835
6470,1875
6471,1853
6472,1852
6473,1918
6474,1886
6475,1853
6476,1841
6477,1858
6478,1898
6479,1889
6480,1863
6481,1881
6482,1926
6483,1869
6484,1990
6485,1274
6486,1863
6487,2259
6488,2359
6489,2455
6490,2135
6491,1553
6492,1399
6493,1522
6494,1716
6495,1843
6496,1795
6497,1796
6498,1857
6499,1861
6500,1826
6501,1831
6502,1809
6503,1897
6504,1862
6505,1840
6506,1849
6507,1904
6508,1859
6509,1862
6510,1887
6511,1861
6512,1904
6513,1866
6514,1857
6515,1865
6516,1871
6517,1855
6518,1857
6519,1873
6520,1895
6521,1872
6522,1858
6523,1916
6524,1873
6525,1862
6526,1863
6527,1869
6528,1887
6529,1869
6530,1849
6531,1847
6532,1915
6533,1857
6534,1843
6535,1819
6536,1814
6537,1879
6538,1845
6539,1843
6540,1904
6541,1860
6542,1854
6543,1855
6544,1899
6545,1873
6546,1856
6547,1845
6548,1853
6549,1863
6550,1845
6551,1840
6552,1856
6553,1947
6554,1872
6555,1867
6556,1920
6557,1911
6558,1860
6559,1856
6560,1830
6561,1850
6562,1883
6563,1847
6564,1838
6565,1929
6566,1855
6567,1839
6568,1830
6569,1858
6570,1874
6571,1867
6572,1851
6573,1894
6574,1905
6575,1853
6576,1854
6577,1845
6578,1866
6579,1866
6580,1855
6581,1859
6582,1905
6583,1847
6584,1843
6585,1850
6586,1885
6587,1886
6588,1859
6589,1861
6590,1934
6591,1868
6592,1858
6593,1856
6594,1898
6595,1888
6596,1854
6597,1834
6598,1936
6599,1872
6600,1843
6601,1845
6602,1855
6603,1852
6604,1866
6605,1850
6606,1862
6607,1871
6608,1858
6609,1855
6610,1853
6611,1919
6612,1893
6613,1840
6614,1837
6615,1895
6616,1871
6617,1841
6618,1840
6619,1850
6620,1889
6621,1867
6622,1850
6623,1863
6624,1872
6625,1855
6626,1854
6627,1843
6628,1906
6629,1866
6630,1845
6631,1901
6632,1904
6633,1845
6634,1844
6635,1881
6636,1814
6637,1885
6638,1854
6639,1865
6640,1898
6641,1870
6642,1856
6643,1861
6644,1827
6645,1890
6646,1861
6647,1842
6648,1869
6649,1867
6650,1842
6651,1841
6652,1865
6653,1871
6654,1872
6655,1839
6656,1818
6657,1885
6658,1859
6659,1861
6660,1867
6661,1886
6662,1902
6663,1854
6664,1851
6665,1874
6666,1866
6667,1840
6668,1842
6669,1872
6670,1872
6671,1863
6672,1859
6673,1856
6674,1857
6675,1855
6676,1857
6677,1869
6678,1891
6679,1872
6680,1845
6681,1839
6682,1869
6683,1849
6684,1841
6685,1827
6686,1849
6687,1875
6688,1851
6689,1852
6690,1877
6691,1867
6692,1860
6693,1866
6694,1867
6695,1884
6696,1857
6697,1853
6698,1875
6699,1867
6700,1846
6701,1840
6702,1815
6703,1863
6704,1869
6705,1855
6706,1869
6707,1887
6708,1867
6709,1859
6710,1867
6711,1875
6712,1893
6713,1845
6714,1836
6715,1881
6716,1856
6717,1840
6718,1840
6719,1840
6720,1936
6721,1857
6722,1851
6723,1905
6724,1872
6725,1857
6726,1859
6727,1875
6728,1939
6729,1863
6730,1843
6731,1845
6732,1917
6733,1849
6734,1840
6735,1849
6736,1881
6737,1886
6738,1856
6739,1847
6740,1872
6741,1871
6742,1856
6743,1856
6744,1892
6745,1861
6746,1863
6747,1835
6748,1872
6749,1872
6750,1842
6751,1840
6752,1843
6753,1875
6754,1866
6755,1844
6756,1822
6757,1914
6758,1871
6759,1862
6760,1874
6761,1889
6762,1891
6763,1861
6764,1839
6765,1895
6766,1867
6767,1842
6768,1842
6769,1850
6770,1931
6771,1858
6772,1860
6773,1884
6774,1870
6775,1853
6776,1849
6777,1878
6778,1919
6779,1872
6780,1861
6781,1885
6782,1911
6783,1853
6784,1836
6785,1845
6786,1841
6787,1887
6788,1852
6789,1863
6790,1943
6791,1872
6792,1855
6793,1853
6794,1861
6795,1918
6796,1867
6797,1855
6798,1856
6799,1885
6800,1844
6801,1840
6802,1831
6803,1901
6804,1872
6805,1842
6806,1846
6807,1856
6808,1853
6809,1858
6810,1844
6811,1867
6812,1895
6813,1856
6814,1836
6815,1913
6816,1865
6817,1839
6818,1840
6819,1825
6820,1861
6821,1862
6822,1857
6823,1903
6824,1875
6825,1850
6826,1856
6827,1839
6828,1934
6829,1875
6830,1855
6831,1852
6832,1907
6833,1853
6834,1843
6835,1821
6836,1840
6837,1878
6838,1857
6839,1827
6840,1919
6841,1866
6842,1855
6843,1858
6844,1875
6845,1888
6846,1861
6847,1847
6848,1898
6849,1872
6850,1843
6851,1838
6852,1872
6853,1908
6854,1868
6855,1856
6856,1873
6857,1885
6858,1861
6859,1855
6860,1856
6861,1859
6862,1890
6863,1861
6864,1847
6865,1859
6866,1859
6867,1840
6868,1839
6869,1839
6870,1895
6871,1858
6872,1856
6873,1873
6874,1906
6875,1859
6876,1854
6877,1877
6878,1872
6879,1872
6880,1840
6881,1863
6882,1918
6883,1856
6884,1838
6885,1833
6886,1854
6887,1883
6888,1859
6889,1856
6890,1930
6891,1872
6892,1853
6893,1854
6894,1856
6895,1949
6896,1853
6897,1840
6898,1845
6899,1870
6900,1840
6901,1837
6902,1843
6903,1872
6904,1872
6905,1851
6906,1874
6907,1881
6908,1857
6909,1860
6910,1874
6911,1936
6912,1885
6913,1842
6914,1854
6915,1955
6916,1869
6917,1841
6918,1840
6919,1821
6920,1939
6921,1856
6922,1849
6923,1849
6924,1876
6925,1846
6926,1850
6927,1842
6928,1918
6929,1872
6930,1846
6931,1818
6932,1929
6933,1847
6934,1837
6935,1840
6936,1890
6937,1883
6938,1862
6939,1857
6940,1902
6941,1865
6942,1855
6943,1857
6944,1871
6945,1902
6946,1867
6947,1855
6948,1895
6949,1869
6950,1840
6951,1840
6952,1847
6953,1882
6954,1867
6955,1856
6956,1869
6957,1859
6958,1852
6959,1856
6960,1866
6961,1868
6962,1896
6963,1842
6964,1851
6965,1891
6966,1866
6967,1840
6968,1827
6969,1820
6970,1946
6971,1858
6972,1855
6973,1904
6974,1872
6975,1850
6976,1858
6977,1843
6978,1925
6979,1876
6980,1856
6981,1857
6982,1904
6983,1850
6984,1840
6985,1814
6986,1821
6987,1875
6988,1856
6989,1844
6990,1899
6991,1872
6992,1856
6993,1856
6994,1853
6995,1917
6996,1861
6997,1840
6998,1845
6999,1868
7000,1843
7001,1840
7002,1867
7003,1893
7004,1869
7005,1859
7006,1881
7007,1874
7008,1859
7009,1856
7010,1856
7011,1857
7012,1885
7013,1853
7014,1840
7015,1877
7016,1858
7017,1838
7018,1840
7019,1823
7020,1920
7021,1865
7022,1849
7023,1873
7024,1907
7025,1860
7026,1857
7027,1855
7028,1871
7029,1867
7030,1842
7031,1858
7032,1872
7033,1854
7034,1841
7035,1846
7036,1915
7037,1882
7038,1845
7039,1840
7040,1943
7041,1872
7042,1859
7043,1859
7044,1879
7045,1886
7046,1855
7047,1838
7048,1873
7049,1878
7050,1840
7051,1841
7052,1843
7053,1856
7054,1859
7055,1846
7056,1840
7057,1946
7058,1863
7059,1853
7060,1843
7061,1858
7062,1898
7063,1859
7064,1835
7065,1852
7066,1863
7067,1842
7068,1840
7069,1825
7070,1857
7071,1856
7072,1856
7073,1865
7074,1878
7075,1853
7076,1843
7077,1847
7078,1923
7079,1873
7080,1846
7081,1904
7082,1875
7083,1851
7084,1840
7085,1840
7086,1904
7087,1881
7088,1855
7089,1858
7090,1909
7091,1870
7092,1856
7093,1858
7094,1819
7095,1917
7096,1867
7097,1851
7098,1867
7099,1879
7100,1843
7101,1842
7102,1827
7103,1887
7104,1872
7105,1850
7106,1888
7107,1887
7108,1854
7109,1856
7110,1870
7111,1879
7112,1894
7113,1854
7114,1845
7115,1936
7116,1857
7117,1840
7118,1837
7119,1856
7120,1889
7121,1849
7122,1847
7123,1884
7124,1860
7125,1856
7126,1856
7127,1895
7128,1889
7129,1875
7130,1855
7131,1903
7132,1911
7133,1852
7134,1840
7135,1850
7136,1839
7137,1881
7138,1853
7139,1819
7140,1866
7141,1862
7142,1856
7143,1855
7144,1851
7145,1953
7146,1872
7147,1847
7148,1854
7149,1872
7150,1842
7151,1842
7152,1874
7153,1873
7154,1871
7155,1858
7156,1904
7157,1906
7158,1855
7159,1859
7160,1867
7161,1885
7162,1894
7163,1863
7164,1825
7165,1846
7166,1855
7167,1840
7168,1837
7169,1867
7170,1859
7171,1850
7172,1856
7173,1878
7174,1873
7175,1861
7176,1855
7177,1835
7178,1885
7179,1874
7180,1856
7181,1808
7182,1845
7183,1856
7184,1841
7185,1866
7186,1821
7187,1887
7188,1855
7189,1842
7190,1890
7191,1866
7192,1856
7193,1857
7194,1879
7195,1920
7196,1855
7197,1838
7198,1861
7199,1890
7200,1846
7201,1847
7202,1839
7203,1889
7204,1869
7205,1856
7206,1846
7207,1904
7208,1855
7209,1855
7210,1849
7211,1904
7212,1886
7213,1841
7214,1856
7215,1911
7216,1869
7217,1841
7218,1840
7219,1834
7220,1875
7221,1849
7222,1845
7223,1877
7224,1914
7225,1843
7226,1854
7227,1851
7228,1878
7229,1872
7230,1840
7231,1837
7232,1903
7233,1850
7234,1840
7235,1849
7236,1855
7237,1889
7238,1859
7239,1851
7240,1922
7241,1871
7242,1854
7243,1861
7244,1870
7245,1927
7246,1861
7247,1844
7248,1904
7249,1879
7250,1841
7251,1841
7252,1830
7253,1861
7254,1870
7255,1849
7256,1835
7257,1893
7258,1856
7259,1853
7260,1846
7261,1899
7262,1883
7263,1856
7264,1858
7265,1895
7266,1862
7267,1840
7268,1847
7269,1841
7270,1917
7271,1866
7272,1853
7273,1872
7274,1872
7275,1856
7276,1857
7277,1869
7278,1887
7279,1872
7280,1857
7281,1890
7282,1904
7283,1846
7284,1840
7285,1840
7286,1868
7287,1881
7288,1853
7289,1864
7290,1939
7291,1866
7292,1856
7293,1856
7294,1852
7295,1929
7296,1868
7297,1851
7298,1829
7299,1847
7300,1845
7301,1840
7302,1869
7303,1875
7304,1875
7305,1849
7306,1867
7307,1898
7308,1857
7309,1856
7310,1861
7311,1894
7312,1891
7313,1845
7314,1826
7315,1892
7316,1851
7317,1833
7318,1840
7319,1851
7320,1866
7321,1863
7322,1845
7323,1881
7324,1889
7325,1854
7326,1854
7327,1888
7328,1847
7329,1872
7330,1842
7331,1907
7332,1889
7333,1854
7334,1840
7335,1821
7336,1874
7337,1883
7338,1862
7339,1861
7340,1895
7341,1871
7342,1856
7343,1856
7344,1853
7345,1888
7346,1856
7347,1847
7348,1877
7349,1878
7350,1840
7351,1840
7352,1853
7353,1865
7354,1870
7355,1842
7356,1894
7357,1883
7358,1858
7359,1856
7360,1888
7361,1902
7362,1887
7363,1844
7364,1850
7365,1904
7366,1864
7367,1840
7368,1842
7369,1847
7370,1882
7371,1866
7372,1847
7373,1884
7374,1889
7375,1856
7376,1849
7377,1887
7378,1886
7379,1871
7380,1856
7381,1936
7382,1899
7383,1854
7384,1840
7385,1833
7386,1856
7387,1878
7388,1857
7389,1814
7390,1938
7391,1867
7392,1856
7393,1856
7394,1879
7395,1904
7396,1861
7397,1860
7398,1889
7399,1867
7400,1845
7401,1845
7402,1829
7403,1865
7404,1875
7405,1837
7406,1811
7407,1883
7408,1850
7409,1861
7410,1867
7411,1871
7412,1891
7413,1856
7414,1859
7415,1873
7416,1851
7417,1840
7418,1843
7419,1863
7420,1894
7421,1858
7422,1847
7423,1874
7424,1882
7425,1855
7426,1856
7427,1851
7428,1888
7429,1874
7430,1856
7431,1880
7432,1855
7433,1855
7434,1842
7435,1829
7436,1897
7437,1871
7438,1857
7439,1817
7440,1921
7441,1861
7442,1855
7443,1858
7444,1881
7445,1899
7446,1867
7447,1847
7448,1873
7449,1882
7450,1850
7451,1850
7452,1853
7453,1872
7454,1871
7455,1846
7456,1824
7457,1904
7458,1863
7459,1853
7460,1842
7461,1867
7462,1889
7463,1855
7464,1838
7465,1863
7466,1858
7467,1835
7468,1838
7469,1857
7470,1875
7471,1863
7472,1840
7473,1901
7474,1872
7475,1851
7476,1863
7477,1843
7478,1914
7479,1874
7480,1841
7481,1863
7482,1927
7483,1857
7484,1840
7485,1839
7486,1863
7487,1875
7488,1856
7489,1855
7490,1902
7491,1872
7492,1854
7493,1855
7494,1853
7495,1863
7496,1861
7497,1838
7498,1882
7499,1892
7500,1849
7501,1840
7502,1868
7503,1872
7504,1861
7505,1859
7506,1910
7507,1865
7508,1861
7509,1856
7510,1850
7511,1894
7512,1903
7513,1851
7514,1574
7515,1739
7516,2034
7517,2139
7518,2192
7519,2243
7520,2323
7521,2164
7522,1697
7523,1514
7524,1449
7525,1514
7526,1648
7527,1746
7528,1847
7529,1833
7530,1819
7531,1819
7532,1886
7533,1855
7534,1825
7535,1821
7536,1871
7537,1856
7538,1828
7539,1837
7540,1887
7541,1850
7542,1846
7543,1862
7544,1857
7545,2241
7546,1376
7547,1973
7548,2124
7549,2191
7550,2203
7551,2220
7552,1995
7553,1664
7554,1527
7555,1520
7556,1680
7557,1732
7558,1779
7559,1808
7560,1840
7561,1841
7562,1886
7563,1851
7564,1841
7565,1862
7566,1850
7567,1830
7568,1823
7569,1870
7570,1873
7571,1848
7572,1857
7573,1872
7574,1897
7575,1871
7576,2940
7577,1321
7578,1906
7579,2175
7580,2224
7581,2213
7582,2290
7583,2009
7584,1630
7585,1493
7586,1560
7587,1648
7588,1722
7589,1776
7590,1871
7591,1837
7592,1837
7593,1845
7594,1850
7595,1872
7596,1848
7597,1837
7598,1904
7599,1875
7600,1849
7601,1844
7602,1827
7603,1968
7604,1883
7605,1870
7606,1858
7607,2017
7608,1356
7609,1831
7610,2147
7611,2177
7612,2224
7613,2225
7614,1984
7615,1685
7616,1508
7617,1525
7618,1625
7619,1747
7620,1793
7621,1822
7622,1823
7623,1890
7624,1871
7625,1841
7626,1840
7627,1842
7628,1874
7629,1877
7630,1851
7631,1901
7632,1886
7633,1854
7634,1847
7635,1857
7636,1904
7637,1893
7638,1869
7639,1488
7640,1730
7641,2174
7642,2277
7643,2310
7644,2368
7645,2109
7646,1579
7647,1419
7648,1511
7649,1604
7650,1666
7651,1744
7652,1773
7653,1805
7654,1830
7655,1821
7656,1840
7657,1905
7658,1854
7659,1850
7660,1851
7661,1904
7662,1890
7663,1857
7664,1841
7665,1904
7666,1873
7667,1856
7668,1853
7669,1840
7670,1745
7671,1535
7672,2174
7673,2344
7674,2369
7675,2371
7676,2061
7677,1475
7678,1477
7679,1488
7680,1584
7681,1777
7682,1818
7683,1796
7684,1805
7685,1803
7686,1853
7687,1867
7688,1855
7689,1843
7690,1911
7691,1868
7692,1863
7693,1859
7694,1856
7695,1908
7696,1865
7697,1865
7698,1929
7699,1879
7700,1857
7701,2300
7702,1340
7703,2058
7704,2295
7705,2339
7706,2375
7707,2119
7708,1531
7709,1407
7710,1508
7711,1655
7712,1745
7713,1773
7714,1819
7715,1837
7716,1829
7717,1822
7718,1830
7719,1835
7720,1899
7721,1862
7722,1858
7723,1872
7724,1874
7725,1867
7726,1869
7727,1855
7728,1877
7729,1890
7730,1860
7731,1904
7732,2931
7733,1295
7734,1933
7735,2288
7736,2398
7737,2387
7738,2176
7739,1584
7740,1411
7741,1453
7742,1600
7743,1711
7744,1777
7745,1904
7746,1819
7747,1813
7748,1841
7749,1855
7750,1840
7751,1837
7752,1825
7753,1873
7754,1872
7755,1870
7756,1861
7757,1937
7758,1877
7759,1871
7760,1891
7761,1915
7762,1904
7763,1895
7764,1339
7765,1810
7766,2191
7767,2283
7768,2351
7769,2240
7770,1726
7771,1451
7772,1505
7773,1650
7774,1770
7775,1770
7776,1801
7777,1838
7778,1833
7779,1856
7780,1834
7781,1878
7782,1920
7783,1845
7784,1840
7785,1847
7786,1829
7787,1878
7788,1869
7789,1874
7790,1921
7791,1879
7792,1871
7793,1872
7794,1866
7795,1488
7796,1679
7797,2149
7798,2315
7799,2389
7800,2341
7801,1805
7802,1474
7803,1439
7804,1578
7805,1677
7806,1794
7807,1814
7808,1808
7809,1815
7810,1838
7811,1854
7812,1872
7813,1840
7814,1839
7815,1887
7816,1860
7817,1840
7818,1842
7819,1825
7820,1883
7821,1873
7822,1853
7823,1920
7824,1875
7825,1863
7826,1835
7827,1504
7828,2107
7829,2313
7830,2395
7831,2439
7832,1936
7833,1458
7834,1363
7835,1502
7836,1702
7837,1769
7838,1777
7839,1763
7840,1909
7841,1825
7842,1813
7843,1831
7844,1810
7845,1891
7846,1856
7847,1842
7848,1876
7849,1891
7850,1857
7851,1856
7852,1851
7853,1882
7854,1887
7855,1875
7856,1904
7857,2494
7858,1329
7859,2005
7860,2297
7861,2415
7862,2471
7863,2083
7864,1535
7865,1495
7866,1491
7867,1621
7868,1723
7869,1778
7870,1778
7871,1792
7872,1797
7873,1926
7874,1849
7875,1845
7876,1854
7877,1841
7878,1847
7879,1887
7880,1863
7881,1837
7882,1920
7883,1869
7884,1859
7885,1856
7886,1851
7887,1891
7888,2639
7889,1360
7890,1978
7891,2249
7892,2357
7893,2453
7894,2149
7895,1680
7896,1368
7897,1449
7898,1638
7899,1772
7900,1767
7901,1775
7902,1781
7903,1847
7904,1827
7905,1823
7906,1845
7907,1874
7908,1859
7909,1865
7910,1860
7911,1889
7912,1899
7913,1857
7914,1875
7915,1889
7916,1872
7917,1854
7918,1851
7919,1854
7920,1376
7921,1892
7922,2239
7923,2417
7924,2471
7925,2263
7926,1664
7927,1370
7928,1382
7929,1629
7930,1722
7931,1788
7932,1826
7933,1773
7934,1777
7935,1808
7936,1835
7937,1857
7938,1841
7939,1839
7940,1904
7941,1866
7942,1867
7943,1866
7944,1861
7945,1872
7946,1866
7947,1847
7948,1957
7949,1887
7950,1858
7951,1565
7952,1668
7953,2209
7954,2342
7955,2450
7956,2311
7957,1857
7958,1371
7959,1392
7960,1584
7961,1734
7962,1805
7963,1764
7964,1730
7965,1865
7966,1819
7967,1811
7968,1841
7969,1834
7970,1885
7971,1872
7972,1862
7973,1878
7974,1894
7975,1854
7976,1856
7977,1882
7978,1878
7979,1891
7980,1863
7981,1854
7982,1921
7983,1437
7984,2116
7985,2349
7986,2416
7987,2419
7988,1825
7989,1390
7990,1459
7991,1584
7992,1710
7993,1782
7994,1773
7995,1844
7996,1808
7997,1813
7998,1855
7999,1873
8000,1837
8001,1840
8002,1837
8003,1919
8004,1868
8005,1859
8006,1865
8007,1883
8008,1872
8009,1874
8010,1891
8011,1851
8012,1911
8013,2602
8014,1325
8015,1986
8016,2295
8017,2385
8018,2432
8019,1945
8020,1499
8021,1379
8022,1514
8023,1690
8024,1808
8025,1803
8026,1813
8027,1863
8028,1920
8029,1850
8030,1828
8031,1885
8032,1857
8033,1845
8034,1836
8035,1839
8036,1843
8037,1877
8038,1856
8039,1859
8040,1875
8041,1872
8042,1866
8043,1873
8044,2480
8045,1447
8046,1984
8047,2236
8048,2372
8049,2437
8050,2063
8051,1498
8052,1342
8053,1514
8054,1673
8055,1752
8056,1806
8057,1808
8058,1813
8059,1825
8060,1841
8061,1872
8062,1882
8063,1843
8064,1872
8065,1893
8066,1867
8067,1841
8068,1840
8069,1859
8070,1905
8071,1875
8072,1855
8073,1883
8074,1915
8075,1872
8076,1380
8077,1838
8078,2207
8079,2342
8080,2435
8081,2263
8082,1666
8083,1333
8084,1445
8085,1602
8086,1744
8087,1808
8088,1808
8089,1808
8090,1873
8091,1849
8092,1841
8093,1847
8094,1863
8095,1921
8096,1855
8097,1837
8098,1899
8099,1878
8100,1846
8101,1857
8102,1814
8103,1936
8104,1883
8105,1873
8106,1934
8107,1600
8108,1581
8109,2127
8110,2272
8111,2410
8112,2346
8113,1819
8114,1425
8115,1471
8116,1616
8117,1712
8118,1760
8119,1807
8120,1839
8121,1831
8122,1830
8123,1847
8124,1843
8125,1843
8126,1843
8127,1839
8128,1920
8129,1869
8130,1847
8131,1840
8132,1898
8133,1867
8134,1856
8135,1862
8136,1825
8137,1895
8138,1866
8139,1873
8140,1872
8141,1875
8142,1870
8143,1863
8144,1876
8145,1934
8146,1870
8147,1854
8148,1902
8149,1866
8150,1851
8151,1851
8152,1889
8153,1879
8154,1868
8155,1867
8156,1819
8157,1874
8158,1858
8159,1858
8160,1857
8161,1894
8162,1889
8163,1854
8164,1827
8165,1879
8166,1856
8167,1840
8168,1840
8169,1877
8170,1884
8171,1854
8172,1858
8173,1858
8174,1872
8175,1856
8176,1855
8177,1856
8178,1872
8179,1882
8180,1856
8181,1890
8182,1902
8183,1846
8184,1841
8185,1841
8186,1841
8187,1877
8188,1846
8189,1814
8190,1869
8191,1868
8192,1855
8193,1856
8194,1856
8195,1859
8196,1865
8197,1845
8198,1877
8199,1872
8200,1840
8201,1846
8202,1861
8203,1866
8204,1865
8205,1859
8206,1919
8207,1885
8208,1854
8209,1854
8210,1847
8211,1879
8212,1884
8213,1850
8214,1862
8215,1855
8216,1855
8217,1835
8218,1833
8219,1845
8220,1874
8221,1865
8222,1851
8223,1907
8224,1877
8225,1857
8226,1860
8227,1841
8228,1891
8229,1871
8230,1853
8231,1855
8232,1872
8233,1846
8234,1842
8235,1843
8236,1877
8237,1877
8238,1853
8239,1818
8240,1857
8241,1867
8242,1856
8243,1850
8244,1839
8245,1884
8246,1851
8247,1840
8248,1856
8249,1878
8250,1830
8251,1840
8252,1842
8253,1939
8254,1859
8255,1854
8256,1874
8257,1874
8258,1858
8259,1855
8260,1854
8261,1870
8262,1883
8263,1851
8264,1857
8265,1905
8266,1861
8267,1840
8268,1856
8269,1849
8270,1883
8271,1870
8272,1863
8273,1840
8274,1878
8275,1846
8276,1840
8277,1867
8278,1904
8279,1872
8280,1844
8281,1898
8282,1887
8283,1842
8284,1840
8285,1847
8286,1873
8287,1875
8288,1856
8289,1850
8290,1879
8291,1861
8292,1855
8293,1859
8294,1872
8295,1922
8296,1859
8297,1855
8298,1903
8299,1861
8300,1839
8301,1842
8302,1840
8303,1915
8304,1857
8305,1851
8306,1876
8307,1899
8308,1850
8309,1858
8310,1854
8311,1891
8312,1886
8313,1856
8314,1839
8315,1936
8316,1856
8317,1843
8318,1845
8319,1840
8320,1881
8321,1854
8322,1856
8323,1861
8324,1876
8325,1856
8326,1854
8327,1904
8328,1882
8329,1865
8330,1849
8331,1890
8332,1902
8333,1843
8334,1840
8335,1849
8336,1856
8337,1875
8338,1843
8339,1833
8340,1935
8341,1857
8342,1851
8343,1857
8344,1888
8345,1891
8346,1854
8347,1837
8348,1870
8349,1874
8350,1846
8351,1840
8352,1872
8353,1939
8354,1862
8355,1856
8356,1896
8357,1931
8358,1858
8359,1861
8360,1875
8361,1943
8362,1879
8363,1842
8364,1813
8365,1922
8366,1855
8367,1835
8368,1830
8369,1844
8370,1889
8371,1866
8372,1845
8373,1877
8374,1878
8375,1857
8376,1856
8377,1883
8378,1902
8379,1867
8380,1857
8381,1894
8382,1872
8383,1851
8384,1835
8385,1847
8386,1863
8387,1874
8388,1844
8389,1887
8390,1894
8391,1866
8392,1857
8393,1851
8394,1885
8395,1897
8396,1846
8397,1831
8398,1873
8399,1881
8400,1847
8401,1841
8402,1825
8403,1883
8404,1862
8405,1854
8406,1911
8407,1903
8408,1859
8409,1858
8410,1853
8411,1901
8412,1887
8413,1842
8414,1846
8415,1911
8416,1856
8417,1840
8418,1843
8419,1843
8420,1902
8421,1855
8422,1853
8423,1879
8424,1877
8425,1855
8426,1852
8427,1859
8428,1872
8429,1859
8430,1838
8431,1883
8432,1853
8433,1853
8434,1840
8435,1823
8436,1849
8437,1878
8438,1856
8439,1822
8440,1874
8441,1863
8442,1856
8443,1856
8444,1904
8445,1936
8446,1857
8447,1841
8448,1899
8449,1875
8450,1841
8451,1840
8452,1871
8453,1933
8454,1862
8455,1842
8456,1838
8457,1859
8458,1853
8459,1845
8460,1873
8461,1871
8462,1887
8463,1847
8464,1855
8465,1870
8466,1855
8467,1844
8468,1854
8469,1819
8470,1894
8471,1860
8472,1845
8473,1935
8474,1874
8475,1856
8476,1860
8477,1882
8478,1871
8479,1867
8480,1847
8481,1894
8482,1867
8483,1843
8484,1840
8485,1828
8486,1881
8487,1872
8488,1851
8489,1865
8490,1926
8491,1865
8492,1857
8493,1856
8494,1894
8495,1914
8496,1857
8497,1833
8498,1918
8499,1874
8500,1843
8501,1840
8502,1831
8503,1920
8504,1872
8505,1859
8506,1854
8507,1862
8508,1858
8509,1856
8510,1849
8511,1866
8512,1889
8513,1843
8514,1878
8515,1882
8516,1845
8517,1839
8518,1822
8519,1809
8520,1853
8521,1856
8522,1855
8523,1907
8524,1872
8525,1859
8526,1854
8527,1845
8528,1927
8529,1858
8530,1829
8531,1891
8532,1871
8533,1846
8534,1841
8535,1839
8536,1840
8537,1871
8538,1858
8539,1899
8540,1921
8541,1867
8542,1856
8543,1857
8544,1842
8545,1891
8546,1854
8547,1851
8548,1835
8549,1869
8550,1840
8551,1837
8552,1867
8553,1897
8554,1857
8555,1859
8556,1874
8557,1863
8558,1858
8559,1857
8560,1856
8561,1872
8562,1885
8563,1843
8564,1854
8565,1863
8566,1857
8567,1841
8568,1845
8569,1853
8570,1854
8571,1858
8572,1851
8573,1854
8574,1878
8575,1851
8576,1853
8577,1859
8578,1922
8579,1869
8580,1847
8581,1883
8582,1867
8583,1847
8584,1840
8585,1859
8586,1836
8587,1874
8588,1849
8589,1870
8590,1889
8591,1869
8592,1857
8593,1858
8594,1885
8595,1885
8596,1859
8597,1851
8598,1923
8599,1872
8600,1841
8601,1846
8602,1853
8603,1936
8604,1863
8605,1855
8606,1872
8607,1874
8608,1853
8609,1856
8610,1861
8611,1856
8612,1885
8613,1851
8614,1905
8615,1924
8616,1853
8617,1836
8618,1840
8619,1858
8620,1898
8621,1855
8622,1853
8623,1869
8624,1873
8625,1854
8626,1843
8627,1863
8628,1889
8629,1870
8630,1839
8631,1849
8632,1895
8633,1851
8634,1837
8635,1834
8636,1864
8637,1876
8638,1854
8639,1878
8640,1921
8641,1849
8642,1850
8643,1862
8644,1906
8645,1893
8646,1863
8647,1847
8648,1863
8649,1872
8650,1849
8651,1840
8652,1852
8653,1861
8654,1871
8655,1859
8656,1913
8657,1902
8658,1859
8659,1856
8660,1857
8661,1885
8662,1886
8663,1862
8664,1842
8665,1909
8666,1855
8667,1836
8668,1840
8669,1829
8670,1906
8671,1847
8672,1861
8673,1843
8674,1877
8675,1853
8676,1856
8677,1841
8678,1939
8679,1872
8680,1850
8681,1862
8682,1882
8683,1851
8684,1843
8685,1842
8686,1818
8687,1873
8688,1858
8689,1839
8690,1893
8691,1862
8692,1853
8693,1855
8694,1878
8695,1911
8696,1851
8697,1840
8698,1905
8699,1871
8700,1843
8701,1844
8702,1856
8703,1910
8704,1865
8705,1859
8706,1903
8707,1889
8708,1859
8709,1858
8710,1873
8711,1904
8712,1887
8713,1840
8714,1833
8715,1891
8716,1858
8717,1843
8718,1840
8719,1845
8720,1891
8721,1859
8722,1854
8723,1904
8724,1869
8725,1853
8726,1845
8727,1839
8728,1923
8729,1867
8730,1838
8731,1808
8732,1862
8733,1845
8734,1843
8735,1876
8736,1851
8737,1876
8738,1859
8739,1846
8740,1899
8741,1870
8742,1854
8743,1862
8744,1867
8745,1904
8746,1856
8747,1839
8748,1874
8749,1872
8750,1842
8751,1840
8752,1845
8753,1902
8754,1856
8755,1862
8756,1874
8757,1883
8758,1851
8759,1863
8760,1877
8761,1919
8762,1886
8763,1859
8764,1877
8765,1858
8766,1854
8767,1840
8768,1833
8769,1851
8770,1872
8771,1859
8772,1847
8773,1891
8774,1871
8775,1859
8776,1859
8777,1838
8778,1937
8779,1869
8780,1844
8781,1826
8782,1891
8783,1843
8784,1830
8785,1840
8786,1873
8787,1871
8788,1840
8789,1872
8790,1907
8791,1862
8792,1854
8793,1868
8794,1852
8795,1909
8796,1856
8797,1845
8798,1936
8799,1872
8800,1840
8801,1840
8802,1842
8803,1910
8804,1870
8805,1856
8806,1866
8807,1899
8808,1858
8809,1860
8810,1843
8811,1881
8812,1887
8813,1845
8814,1795
8815,1877
8816,1851
8817,1837
8818,1841
8819,1833
8820,1904
8821,1853
8822,1847
8823,1890
8824,1872
8825,1851
8826,1857
8827,1853
8828,1883
8829,1867
8830,1852
8831,1924
8832,1929
8833,1845
8834,1841
8835,1829
8836,1872
8837,1875
8838,1853
8839,1895
8840,1870
8841,1866
8842,1855
8843,1859
8844,1840
8845,1898
8846,1852
8847,1818
8848,1883
8849,1873
8850,1840
8851,1842
8852,1851
8853,1889
8854,1861
8855,1857
8856,1891
8857,1911
8858,1859
8859,1862
8860,1854
8861,1837
8862,1891
8863,1856
8864,1854
8865,1899
8866,1851
8867,1840
8868,1839
8869,1871
8870,1873
8871,1862
8872,1869
8873,1863
8874,1872
8875,1853
8876,1847
8877,1846
8878,1968
8879,1861
8880,1851
8881,1854
8882,1937
8883,1846
8884,1840
8885,1834
8886,1863
8887,1873
8888,1861
8889,1830
8890,1872
8891,1863
8892,1859
8893,1854
8894,1888
8895,1903
8896,1850
8897,1849
8898,1869
8899,1872
8900,1843
8901,1843
8902,1827
8903,1919
8904,1859
8905,1840
8906,1892
8907,1872
8908,1856
8909,1858
8910,1850
8911,1904
8912,1876
8913,1849
8914,1839
8915,1875
8916,1855
8917,1847
8918,1852
8919,1889
8920,1883
8921,1856
8922,1854
8923,1867
8924,1871
8925,1855
8926,1853
8927,1856
8928,1883
8929,1867
8930,1860
8931,1925
8932,1879
8933,1841
8934,1835
8935,1821
8936,1854
8937,1872
8938,1851
8939,1830
8940,1885
8941,1859
8942,1854
8943,1847
8944,1865
8945,1947
8946,1853
8947,1854
8948,1837
8949,1871
8950,1840
8951,1840
8952,1872
8953,1919
8954,1857
8955,1854
8956,1911
8957,1886
8958,1863
8959,1858
8960,1829
8961,1909
8962,1878
8963,1855
8964,1834
8965,1920
8966,1845
8967,1837
8968,1840
8969,1831
8970,1888
8971,1862
8972,1855
8973,1882
8974,1879
8975,1856
8976,1856
8977,1875
8978,1878
8979,1871
8980,1847
8981,1839
8982,1872
8983,1845
8984,1840
8985,1827
8986,1874
8987,1883
8988,1860
8989,1840
8990,1897
8991,1866
8992,1857
8993,1854
8994,1872
8995,1891
8996,1854
8997,1837
8998,1862
8999,1869
9000,1846
9001,1837
9002,1833
9003,1908
9004,1857
9005,1841
9006,1887
9007,1873
9008,1860
9009,1847
9010,1870
9011,1872
9012,1878
9013,1855
9014,1856
9015,1907
9016,1854
9017,1842
9018,1843
9019,1865
9020,1895
9021,1842
9022,1855
9023,1856
9024,1870
9025,1852
9026,1857
9027,1861
9028,1947
9029,1867
9030,1831
9031,1872
9032,1856
9033,1843
9034,1840
9035,1840
9036,1877
9037,1877
9038,1854
9039,1862
9040,1920
9041,1865
9042,1866
9043,1867
9044,1859
9045,1895
9046,1861
9047,1837
9048,1907
9049,1867
9050,1840
9051,1843
9052,1838
9053,1882
9054,1856
9055,1842
9056,1853
9057,1901
9058,1853
9059,1857
9060,1860
9061,1911
9062,1889
9063,1843
9064,1859
9065,1914
9066,1855
9067,1842
9068,1840
9069,1866
9070,1894
9071,1853
9072,1836
9073,1904
9074,1875
9075,1859
9076,1857
9077,1872
9078,1878
9079,1870
9080,1839
9081,1879
9082,1891
9083,1846
9084,1835
9085,1826
9086,1840
9087,1867
9088,1857
9089,1872
9090,1873
9091,1862
9092,1857
9093,1861
9094,1853
9095,1899
9096,1862
9097,1827
9098,1888
9099,1867
9100,1845
9101,1839
9102,1866
9103,1878
9104,1856
9105,1840
9106,1866
9107,1872
9108,1869
9109,1858
9110,1854
9111,1916
9112,1877
9113,1839
9114,1917
9115,1870
9116,1850
9117,1831
9118,1829
9119,1877
9120,1893
9121,1856
9122,1858
9123,1925
9124,1879
9125,1858
9126,1856
9127,1894
9128,1950
9129,1872
9130,1853
9131,1854
9132,1853
9133,1845
9134,1840
9135,1863
9136,2637
9137,1558
9138,1968
9139,2195
9140,2229
9141,2237
9142,2304
9143,2273
9144,1887
9145,1583
9146,1407
9147,1449
9148,1636
9149,1725
9150,1755
9151,1791
9152,1842
9153,1840
9154,1853
9155,1857
9156,1867
9157,1872
9158,1840
9159,1830
9160,1840
9161,1847
9162,1861
9163,1841
9164,1860
9165,1904
9166,1845
9167,2345
9168,1382
9169,1777
9170,2155
9171,2197
9172,2206
9173,2315
9174,2137
9175,1693
9176,1469
9177,1456
9178,1589
9179,1691
9180,1755
9181,1867
9182,1853
9183,1837
9184,1837
9185,1865
9186,1829
9187,1855
9188,1842
9189,1808
9190,1894
9191,1857
9192,1850
9193,1872
9194,1862
9195,1920
9196,1874
9197,1861
9198,1909
9199,1472
9200,1666
9201,2115
9202,2211
9203,2262
9204,2263
9205,2119
9206,1731
9207,1535
9208,1483
9209,1589
9210,1712
9211,1747
9212,1835
9213,1831
9214,1835
9215,1878
9216,1840
9217,1828
9218,1829
9219,1841
9220,1875
9221,1866
9222,1865
9223,1924
9224,1886
9225,1866
9226,1862
9227,1867
9228,1930
9229,1887
9230,1650
9231,1571
9232,2100
9233,2206
9234,2233
9235,2282
9236,2128
9237,1703
9238,1472
9239,1433
9240,1617
9241,1695
9242,1760
9243,1809
9244,1846
9245,1879
9246,1840
9247,1821
9248,1894
9249,1867
9250,1840
9251,1835
9252,1830
9253,1871
9254,1871
9255,1868
9256,1931
9257,1882
9258,1872
9259,1873
9260,1876
9261,1955
9262,1666
9263,2108
9264,2202
9265,2302
9266,2287
9267,2085
9268,1572
9269,1458
9270,1529
9271,1609
9272,1695
9273,1797
9274,1819
9275,1825
9276,1834
9277,1849
9278,1882
9279,1856
9280,1839
9281,1883
9282,1863
9283,1843
9284,1842
9285,1875
9286,1876
9287,1889
9288,1869
9289,1875
9290,1905
9291,1874
9292,2811
9293,1328
9294,1997
9295,2271
9296,2288
9297,2320
9298,2155
9299,1666
9300,1415
9301,1469
9302,1576
9303,1671
9304,1761
9305,1781
9306,1833
9307,1872
9308,1837
9309,1840
9310,1856
9311,1847
9312,1871
9313,1847
9314,1829
9315,1904
9316,1849
9317,1847
9318,1838
9319,1923
9320,1900
9321,1875
9322,1857
9323,2521
9324,1370
9325,1857
9326,2231
9327,2357
9328,2437
9329,2269
9330,1711
9331,1487
9332,1478
9333,1534
9334,1642
9335,1712
9336,1823
9337,1850
9338,1828
9339,1862
9340,1890
9341,1849
9342,1846
9343,1872
9344,1851
9345,1904
9346,1866
9347,1858
9348,1887
9349,1879
9350,1855
9351,1856
9352,1856
9353,1891
9354,1862
9355,1490
9356,1718
9357,2177
9358,2302
9359,2386
9360,2352
9361,1870
9362,1519
9363,1362
9364,1535
9365,1707
9366,1727
9367,1767
9368,1815
9369,1803
9370,1845
9371,1838
9372,1829
9373,1872
9374,1871
9375,1854
9376,1863
9377,1879
9378,1947
9379,1872
9380,1861
9381,1872
9382,1914
9383,1862
9384,1844
9385,1843
9386,1725
9387,1691
9388,2128
9389,2258
9390,2349
9391,2375
9392,1921
9393,1513
9394,1410
9395,1558
9396,1634
9397,1691
9398,1821
9399,1810
9400,1801
9401,1806
9402,1825
9403,1845
9404,1841
9405,1855
9406,1853
9407,1872
9408,1859
9409,1870
9410,1861
9411,1917
9412,1899
9413,1873
9414,1852
9415,1902
9416,1856
9417,2118
9418,1395
9419,2058
9420,2287
9421,2370
9422,2426
9423,2068
9424,1535
9425,1360
9426,1472
9427,1627
9428,1795
9429,1763
9430,1763
9431,1827
9432,1825
9433,1810
9434,1817
9435,1847
9436,1879
9437,1872
9438,1854
9439,1887
9440,1913
9441,1877
9442,1872
9443,1891
9444,1871
9445,1906
9446,1868
9447,1867
9448,2731
9449,1360
9450,1987
9451,2262
9452,2347
9453,2421
9454,2075
9455,1527
9456,1392
9457,1493
9458,1645
9459,1718
9460,1795
9461,1815
9462,1824
9463,1820
9464,1827
9465,1855
9466,1845
9467,1842
9468,1878
9469,1847
9470,1885
9471,1871
9472,1857
9473,1877
9474,1872
9475,1863
9476,1859
9477,1867
9478,1873
9479,2338
9480,1383
9481,1873
9482,2215
9483,2327
9484,2401
9485,2143
9486,1613
9487,1412
9488,1473
9489,1638
9490,1808
9491,1776
9492,1798
9493,1796
9494,1840
9495,1881
9496,1840
9497,1835
9498,1841
9499,1859
9500,1840
9501,1837
9502,1828
9503,1872
9504,1863
9505,1867
9506,1857
9507,1890
9508,1868
9509,1871
9510,1878
9511,1557
9512,1819
9513,2208
9514,2370
9515,2405
9516,2275
9517,1678
9518,1327
9519,1389
9520,1639
9521,1710
9522,1766
9523,1836
9524,1814
9525,1820
9526,1839
9527,1840
9528,1878
9529,1853
9530,1831
9531,1870
9532,1883
9533,1853
9534,1840
9535,1863
9536,1846
9537,1873
9538,1871
9539,1871
9540,1913
9541,1868
9542,1742
9543,1570
9544,2145
9545,2342
9546,2414
9547,2365
9548,1823
9549,1405
9550,1387
9551,1579
9552,1709
9553,1815
9554,1792
9555,1798
9556,1849
9557,1833
9558,1840
9559,1845
9560,1869
9561,1927
9562,1872
9563,1840
9564,1838
9565,1888
9566,1855
9567,1845
9568,1840
9569,1846
9570,1904
9571,1870
9572,1847
9573,2289
9574,1347
9575,2054
9576,2313
9577,2433
9578,2438
9579,1904
9580,1424
9581,1367
9582,1597
9583,1695
9584,1744
9585,1811
9586,1842
9587,1840
9588,1824
9589,1850
9590,1932
9591,1854
9592,1855
9593,1871
9594,1904
9595,1897
9596,1856
9597,1859
9598,1905
9599,1877
9600,1855
9601,1853
9602,1869
9603,1875
9604,2928
9605,1358
9606,2004
9607,2283
9608,2362
9609,2427
9610,2027
9611,1535
9612,1411
9613,1522
9614,1698
9615,1792
9616,1782
9617,1783
9618,1812
9619,1851
9620,1860
9621,1844
9622,1835
9623,1918
9624,1862
9625,1851
9626,1851
9627,1862
9628,1863
9629,1872
9630,1843
9631,1927
9632,1879
9633,1856
9634,1856
9635,2129
9636,1379
9637,1915
9638,2227
9639,2320
9640,2422
9641,2119
9642,1535
9643,1329
9644,1535
9645,1712
9646,1749
9647,1797
9648,1856
9649,1827
9650,1810
9651,1823
9652,1820
9653,1856
9654,1851
9655,1840
9656,1875
9657,1851
9658,1843
9659,1860
9660,1887
9661,1913
9662,1900
9663,1871
9664,1855
9665,1872
9666,1865
9667,1490
9668,1713
9669,2165
9670,2323
9671,2402
9672,2224
9673,1726
9674,1409
9675,1490
9676,1649
9677,1744
9678,1791
9679,1809
9680,1808
9681,1865
9682,1839
9683,1823
9684,1820
9685,1807
9686,1852
9687,1862
9688,1845
9689,1902
9690,1892
9691,1866
9692,1872
9693,1887
9694,1934
9695,1914
9696,1872
9697,1839
9698,1837
9699,1493
9700,2114
9701,2292
9702,2352
9703,2347
9704,1751
9705,1382
9706,1474
9707,1633
9708,1731
9709,1783
9710,1777
9711,1879
9712,1853
9713,1845
9714,1836
9715,1855
9716,1840
9717,1827
9718,1821
9719,1835
9720,1878
9721,1859
9722,1858
9723,1911
9724,1879
9725,1866
9726,1872
9727,1882
9728,1917
9729,2352
9730,1360
9731,2071
9732,2257
9733,2362
9734,2371
9735,1827
9736,1515
9737,1469
9738,1602
9739,1706
9740,1797
9741,1802
9742,1811
9743,1819
9744,1828
9745,1872
9746,1827
9747,1827
9748,1886
9749,1850
9750,1827
9751,1834
9752,1819
9753,1909
9754,1872
9755,1861
9756,1850
9757,1928
9758,1873
9759,1872
9760,1867
9761,1919
9762,1882
9763,1862
9764,1939
9765,1907
9766,1859
9767,1841
9768,1856
9769,1842
9770,1891
9771,1861
9772,1853
9773,1898
9774,1871
9775,1856
9776,1857
9777,1898
9778,1885
9779,1863
9780,1842
9781,1888
9782,1886
9783,1849
9784,1829
9785,1861
9786,1899
9787,1858
9788,1843
9789,1895
9790,1892
9791,1862
9792,1854
9793,1878
9794,1920
9795,1891
9796,1845
9797,1850
9798,1899
9799,1859
9800,1840
9801,1842
9802,1873
9803,1875
9804,1858
9805,1841
9806,1843
9807,1881
9808,1850
9809,1862
9810,1839
9811,1869
9812,1872
9813,1846
9814,1873
9815,1863
9816,1846
9817,1840
9818,1821
9819,1862
9820,1878
9821,1855
9822,1846
9823,1855
9824,1870
9825,1854
9826,1854
9827,1870
9828,1894
9829,1861
9830,1857
9831,1923
9832,1916
9833,1843
9834,1825
9835,1829
9836,1872
9837,1862
9838,1849
9839,1840
9840,1911
9841,1866
9842,1856
9843,1850
9844,1854
9845,1897
9846,1853
9847,1840
9848,1893
9849,1866
9850,1839
9851,1837
9852,1839
9853,1920
9854,1869
9855,1859
9856,1878
9857,1857
9858,1859
9859,1859
9860,1863
9861,1913
9862,1883
9863,1856
9864,1851
9865,1872
9866,1844
9867,1835
9868,1829
9869,1856
9870,1878
9871,1850
9872,1839
9873,1889
9874,1872
9875,1858
9876,1865
9877,1883
9878,1890
9879,1865
9880,1843
9881,1932
9882,1870
9883,1844
9884,1841
9885,1829
9886,1867
9887,1868
9888,1842
9889,1831
9890,1902
9891,1866
9892,1852
9893,1851
9894,1854
9895,1887
9896,1841
9897,1852
9898,1917
9899,1864
9900,1840
9901,1843
9902,1854
9903,1863
9904,1872
9905,1856
9906,1888
9907,1882
9908,1855
9909,1859
9910,1840
9911,1921
9912,1874
9913,1849
9914,1899
9915,1897
9916,1844
9917,1841
9918,1819
9919,1822
9920,1872
9921,1856
9922,1850
9923,1927
9924,1863
9925,1845
9926,1850
9927,1872
9928,1860
9929,1855
9930,1846
9931,1887
9932,1869
9933,1845
9934,1838
9935,1811
9936,1872
9937,1862
9938,1851
9939,1827
9940,1861
9941,1865
9942,1858
9943,1873
9944,1882
9945,1902
9946,1856
9947,1808
9948,1904
9949,1863
9950,1840
9951,1840
9952,1839
9953,1857
9954,1856
9955,1845
9956,1883
9957,1869
9958,1853
9959,1846
9960,1859
9961,1872
9962,1869
9963,1830
9964,1823
9965,1865
9966,1851
9967,1840
9968,1840
9969,1839
9970,1887
9971,1859
9972,1868
9973,1872
9974,1870
9975,1861
9976,1852
9977,1843
9978,1909
9979,1859
9980,1829
9981,1879
9982,1893
9983,1840
9984,1830
9985,1866
9986,1886
9987,1861
9988,1849
9989,1847
9990,1943
9991,1861
9992,1856
9993,1875
9994,1915
9995,1894
9996,1851
9997,1850
9998,1914
9999,1858
10000,1840
10001,1851
10002,1840
10003,1881
10004,1851
10005,1853
10006,1871
10007,1888
10008,1856
10009,1858
10010,1878
10011,1865
10012,1859
10013,1842
10014,1881
10015,1878
10016,1841
10017,1827
10018,1825
10019,1867
10020,1867
10021,1849
10022,1831
10023,1886
10024,1867
10025,1856
10026,1855
10027,1870
10028,1919
10029,1865
10030,1842
10031,1875
10032,1874
10033,1840
10034,1838
10035,1863
10036,1873
10037,1870
10038,1842
10039,1882
10040,1879
10041,1864
10042,1855
10043,1874
10044,1904
10045,1884
10046,1851
10047,1826
10048,1904
10049,1858
10050,1840
10051,1845
10052,1829
10053,1891
10054,1861
10055,1856
10056,1940
10057,1861
10058,1859
10059,1863
10060,1856
10061,1936
10062,1872
10063,1861
10064,1851
10065,1939
10066,1849
10067,1849
10068,1853
10069,1901
10070,1887
10071,1858
10072,1831
10073,1873
10074,1872
10075,1853
10076,1853
10077,1847
10078,1938
10079,1861
10080,1854
10081,1853
10082,1871
10083,1846
10084,1845
10085,1843
10086,1901
10087,1874
10088,1858
10089,1871
10090,1921
10091,1870
10092,1859
10093,1847
10094,1872
10095,1893
10096,1856
10097,1856
10098,1879
10099,1868
10100,1843
10101,1846
10102,1872
10103,1898
10104,1856
10105,1858
10106,1869
10107,1877
10108,1858
10109,1867
10110,1856
10111,1905
10112,1879
10113,1857
10114,1881
10115,1910
10116,1849
10117,1846
10118,1830
10119,1839
10120,1883
10121,1872
10122,1846
10123,1911
10124,1872
10125,1859
10126,1869
10127,1872
10128,1904
10129,1866
10130,1857
10131,1856
10132,1879
10133,1844
10134,1842
10135,1886
10136,1840
10137,1859
10138,1847
10139,1899
10140,1912
10141,1868
10142,1861
10143,1867
10144,1878
10145,1901
10146,1852
10147,1851
10148,1894
10149,1867
10150,1845
10151,1842
10152,1867
10153,1869
10154,1871
10155,1877
10156,1874
10157,1891
10158,1867
10159,1862
10160,1866
10161,1916
10162,1872
10163,1842
10164,1910
10165,1853
10166,1854
10167,1843
10168,1846
10169,1851
10170,1887
10171,1871
10172,1861
10173,1963
10174,1873
10175,1865
10176,1867
10177,1892
10178,1923
10179,1877
10180,1855
10181,1883
10182,1891
10183,1853
10184,1851
10185,1860
10186,1904
10187,1881
10188,1857
10189,1869
10190,1898
10191,1870
10192,1863
10193,1872
10194,1863
10195,1886
10196,1853
10197,1856
10198,1878
10199,1861
10200,1846
10201,1850
10202,1872
10203,1895
10204,1865
10205,1862
10206,1872
10207,1865
10208,1870
10209,1859
10210,1901
10211,1904
10212,1878
10213,1853
10214,1882
10215,1873
10216,1856
10217,1845
10218,1854
10219,1828
10220,1877
10221,1859
10222,1876
10223,1922
10224,1867
10225,1852
10226,1858
10227,1867
10228,1895
10229,1859
10230,1859
10231,1891
10232,1890
10233,1843
10234,1843
10235,1837
10236,1847
10237,1876
10238,1865
10239,1910
10240,1878
10241,1863
10242,1862
10243,1883
10244,1835
10245,1891
10246,1861
10247,1891
10248,1891
10249,1861
10250,1841
10251,1845
10252,1853
10253,1889
10254,1867
10255,1855
10256,1863
10257,1882
10258,1855
10259,1857
10260,1846
10261,1856
10262,1873
10263,1872
10264,1851
10265,1898
10266,1851
10267,1845
10268,1856
10269,1840
10270,1877
10271,1861
10272,1878
10273,1951
10274,1871
10275,1861
10276,1859
10277,1888
10278,1928
10279,1876
10280,1851
10281,1839
10282,1881
10283,1849
10284,1840
10285,1835
10286,1882
10287,1871
10288,1856
10289,1889
10290,1943
10291,1867
10292,1866
10293,1866
10294,1843
10295,1887
10296,1856
10297,1838
10298,1855
10299,1855
10300,1840
10301,1846
10302,1861
10303,1887
10304,1867
10305,1856
10306,1861
10307,1875
10308,1863
10309,1860
10310,1861
10311,1903
10312,1874
10313,1856
10314,1885
10315,1894
10316,1835
10317,1841
10318,1840
10319,1850
10320,1884
10321,1865
10322,1872
10323,1935
10324,1871
10325,1861
10326,1867
10327,1862
10328,1892
10329,1861
10330,1853
10331,1878
10332,1891
10333,1851
10334,1846
10335,1845
10336,1871
10337,1872
10338,1865
10339,1885
10340,1905
10341,1869
10342,1861
10343,1884
10344,1875
10345,1881
10346,1851
10347,1842
10348,1887
10349,1853
10350,1841
10351,1852
10352,1883
10353,1879
10354,1862
10355,1857
10356,1893
10357,1895
10358,1869
10359,1866
10360,1859
10361,1869
10362,1871
10363,1846
10364,1931
10365,1881
10366,1854
10367,1853
10368,1864
10369,1858
10370,1879
10371,1862
10372,1857
10373,1915
10374,1865
10375,1855
10376,1861
10377,1888
10378,1913
10379,1850
10380,1842
10381,1869
10382,1872
10383,1849
10384,1846
10385,1841
10386,1855
10387,1872
10388,1849
10389,1846
10390,1891
10391,1862
10392,1862
10393,1851
10394,1905
10395,1885
10396,1858
10397,1840
10398,1933
10399,1858
10400,1842
10401,1847
10402,1824
10403,1886
10404,1861
10405,1840
10406,1911
10407,1867
10408,1856
10409,1857
10410,1888
10411,1874
10412,1872
10413,1854
10414,1873
10415,1898
10416,1841
10417,1846
10418,1830
10419,1855
10420,1878
10421,1859
10422,1849
10423,1869
10424,1865
10425,1861
10426,1866
10427,1862
10428,1915
10429,1859
10430,1857
10431,1874
10432,1856
10433,1845
10434,1840
10435,1840
10436,1858
10437,1858
10438,1853
10439,1856
10440,1873
10441,1863
10442,1859
10443,1860
10444,1876
10445,1885
10446,1866
10447,1818
10448,1887
10449,1856
10450,1847
10451,1845
10452,1847
10453,1918
10454,1866
10455,1867
10456,1914
10457,1874
10458,1868
10459,1859
10460,1843
10461,1922
10462,1865
10463,1845
10464,1817
10465,1847
10466,1846
10467,1840
10468,1843
10469,1857
10470,1871
10471,1851
10472,1872
10473,1916
10474,1872
10475,1867
10476,1863
10477,1859
10478,1885
10479,1854
10480,1845
10481,1885
10482,1889
10483,1847
10484,1847
10485,1843
10486,1861
10487,1861
10488,1861
10489,1871
10490,1903
10491,1872
10492,1858
10493,1866
10494,1886
10495,1879
10496,1845
10497,1840
10498,1902
10499,1845
10500,1837
10501,1847
10502,1857
10503,1846
10504,1874
10505,1856
10506,1872
10507,1856
10508,1861
10509,1861
10510,1856
10511,1872
10512,1872
10513,1857
10514,1868
10515,1872
10516,1841
10517,1843
10518,1843
10519,1843
10520,1875
10521,1863
10522,1824
10523,1895
10524,1860
10525,1855
10526,1850
10527,1895
10528,1869
10529,1861
10530,1840
10531,1885
10532,1866
10533,1840
10534,1838
10535,1856
10536,1845
10537,1872
10538,1860
10539,1857
10540,1899
10541,1861
10542,1862
10543,1858
10544,1890
10545,1886
10546,1857
10547,1851
10548,1885
10549,1856
10550,1845
10551,1851
10552,1840
10553,1887
10554,1856
10555,1851
10556,1882
10557,1871
10558,1857
10559,1855
10560,1862
10561,1913
10562,1870
10563,1855
10564,1844
10565,1854
10566,1846
10567,1845
10568,1850
10569,1830
10570,1881
10571,1862
10572,1869
10573,1867
10574,1867
10575,1863
10576,1863
10577,1874
10578,1903
10579,1867
10580,1851
10581,1855
10582,1865
10583,1842
10584,1843
10585,1870
10586,1851
10587,1865
10588,1859
10589,1872
10590,1880
10591,1864
10592,1866
10593,1862
10594,1890
10595,1885
10596,1859
10597,1839
10598,1904
10599,1850
10600,1847
10601,1851
10602,1855
10603,1888
10604,1861
10605,1863
10606,1915
10607,1866
10608,1861
10609,1859
10610,1869
10611,1899
10612,1867
10613,1849
10614,1904
10615,1858
10616,1843
10617,1840
10618,1841
10619,1876
10620,1872
10621,1867
10622,1845
10623,1878
10624,1871
10625,1861
10626,1871
10627,1840
10628,1872
10629,1871
10630,1856
10631,1871
10632,1861
10633,1847
10634,1842
10635,1837
10636,1856
10637,1870
10638,1869
10639,1831
10640,1903
10641,1864
10642,1859
10643,1865
10644,1835
10645,1875
10646,1842
10647,1858
10648,1875
10649,1846
10650,1841
10651,1846
10652,1840
10653,1873
10654,1870
10655,1856
10656,1885
10657,1883
10658,1863
10659,1861
10660,1856
10661,1922
10662,1871
10663,1858
10664,1883
10665,1872
10666,1846
10667,1846
10668,1839
10669,1886
10670,1879
10671,1863
10672,1897
10673,1936
10674,1866
10675,1856
10676,1863
10677,1831
10678,1887
10679,1866
10680,1857
10681,1895
10682,1857
10683,1850
10684,1845
10685,1812
10686,1854
10687,1872
10688,1858
10689,1873
10690,1886
10691,1863
10692,1864
10693,1857
10694,1890
10695,1886
10696,1856
10697,1856
10698,1846
10699,1851
10700,1845
10701,1854
10702,1840
10703,1883
10704,1858
10705,1855
10706,1856
10707,1863
10708,1856
10709,1869
10710,1850
10711,1926
10712,1872
10713,1851
10714,1855
10715,1853
10716,1849
10717,1843
10718,1840
10719,1878
10720,1873
10721,1857
10722,1872
10723,1891
10724,1869
10725,1859
10726,1858
10727,1872
10728,1877
10729,1856
10730,1849
10731,1850
10732,1865
10733,1849
10734,1839
10735,1810
10736,1843
10737,1859
10738,1856
10739,1861
10740,1878
10741,1851
10742,1861
10743,1868
10744,1860
10745,1879
10746,1862
10747,1873
10748,1929
10749,1856
10750,1846
10751,1845
10752,1872
10753,1882
10754,1863
10755,1856
10756,1871
10757,1882
10758,1941
10759,1342
10760,1374
10761,1936
10762,2047
10763,2081
10764,2134
10765,2163
10766,1889
10767,1484
10768,1392
10769,1499
10770,1639
10771,1714
10772,1768
10773,1841
10774,1851
10775,1862
10776,1874
10777,1861
10778,1935
10779,1861
10780,1840
10781,1867
10782,1866
10783,1834
10784,1840
10785,1840
10786,1902
10787,1877
10788,1869
10789,1900
10790,1678
10791,1452
10792,2032
10793,2209
10794,2226
10795,2268
10796,2227
10797,1779
10798,1559
10799,1446
10800,1517
10801,1648
10802,1715
10803,1843
10804,1829
10805,1854
10806,1910
10807,1903
10808,1871
10809,1863
10810,1890
10811,1904
10812,1860
10813,1846
10814,1870
10815,1895
10816,1860
10817,1861
10818,1850
10819,1872
10820,1906
10821,1934
10822,1535
10823,2088
10824,2250
10825,2270
10826,2315
10827,2256
10828,1870
10829,1467
10830,1393
10831,1516
10832,1648
10833,1730
10834,1782
10835,1817
10836,1851
10837,1867
10838,1854
10839,1899
10840,1911
10841,1849
10842,1851
10843,1862
10844,1907
10845,1881
10846,1846
10847,1858
10848,1901
10849,1872
10850,1858
10851,1857
10852,2448
10853,1477
10854,2007
10855,2195
10856,2251
10857,2304
10858,2230
10859,1765
10860,1477
10861,1472
10862,1585
10863,1655
10864,1776
10865,1840
10866,1819
10867,1821
10868,1828
10869,1882
10870,1872
10871,1853
10872,1821
10873,1868
10874,1863
10875,1857
10876,1865
10877,1870
10878,1925
10879,1858
10880,1870
10881,1881
10882,1893
10883,2875
10884,1365
10885,1872
10886,2189
10887,2234
10888,2287
10889,2299
10890,1844
10891,1519
10892,1488
10893,1584
10894,1698
10895,1790
10896,1792
10897,1806
10898,1841
10899,1842
10900,1827
10901,1839
10902,1866
10903,1894
10904,1857
10905,1855
10906,1922
10907,1875
10908,1867
10909,1870
10910,1887
10911,1923
10912,1879
10913,1866
10914,1917
10915,1425
10916,1775
10917,2225
10918,2286
10919,2364
10920,2307
10921,1792
10922,1463
10923,1497
10924,1579
10925,1669
10926,1741
10927,1808
10928,1862
10929,1825
10930,1823
10931,1859
10932,1861
10933,1837
10934,1840
10935,1861
10936,1907
10937,1874
10938,1872
10939,1885
10940,1919
10941,1878
10942,1878
10943,1886
10944,1893
10945,1897
10946,1510
10947,1703
10948,2194
10949,2299
10950,2329
10951,2288
10952,1783
10953,1475
10954,1455
10955,1564
10956,1681
10957,1750
10958,1786
10959,1820
10960,1823
10961,1919
10962,1853
10963,1840
10964,1880
10965,1918
10966,1862
10967,1863
10968,1849
10969,1821
10970,1873
10971,1867
10972,1856
10973,1925
10974,1876
10975,1869
10976,1872
10977,1758
10978,1663
10979,2157
10980,2295
10981,2441
10982,2383
10983,1907
10984,1471
10985,1424
10986,1535
10987,1618
10988,1700
10989,1819
10990,1835
10991,1822
10992,1828
10993,1835
10994,1866
10995,1867
10996,1853
10997,1849
10998,1858
10999,1856
11000,1852
11001,1863
11002,1870
11003,1904
11004,1873
11005,1865
11006,1938
11007,1887
11008,2477
11009,1387
11010,2064
11011,2298
11012,2374
11013,2382
11014,2112
11015,1616
11016,1422
11017,1467
11018,1600
11019,1699
11020,1783
11021,1808
11022,1789
11023,1877
11024,1840
11025,1849
11026,1854
11027,1871
11028,1881
11029,1862
11030,1839
11031,1939
11032,1885
11033,1859
11034,1854
11035,1852
11036,1875
11037,1872
11038,1859
11039,2672
11040,1317
11041,1951
11042,2261
11043,2350
11044,2446
11045,2160
11046,1598
11047,1443
11048,1526
11049,1601
11050,1680
11051,1734
11052,1775
11053,1843
11054,1823
11055,1838
11056,1929
11057,1865
11058,1862
11059,1871
11060,1863
11061,1868
11062,1874
11063,1851
11064,1857
11065,1918
11066,1863
11067,1853
11068,1846
11069,1888
11070,1951
11071,1361
11072,1830
11073,2214
11074,2365
11075,2434
11076,2238
11077,1651
11078,1505
11079,1457
11080,1575
11081,1759
11082,1760
11083,1765
11084,1787
11085,1810
11086,1838
11087,1854
11088,1845
11089,1843
11090,1904
11091,1860
11092,1868
11093,1879
11094,1942
11095,1884
11096,1863
11097,1850
11098,1904
11099,1874
11100,1861
11101,1872
11102,1558
11103,1677
11104,2177
11105,2343
11106,2406
11107,2321
11108,1751
11109,1461
11110,1456
11111,1633
11112,1711
11113,1738
11114,1742
11115,1819
11116,1807
11117,1810
11118,1829
11119,1849
11120,1857
11121,1859
11122,1861
11123,1902
11124,1866
11125,1862
11126,1860
11127,1899
11128,1910
11129,1871
11130,1847
11131,1873
11132,1883
11133,1878
11134,1511
11135,2128
11136,2320
11137,2379
11138,2353
11139,1840
11140,1596
11141,1434
11142,1584
11143,1675
11144,1733
11145,1808
11146,1776
11147,1839
11148,1898
11149,1837
11150,1817
11151,1839
11152,1810
11153,1903
11154,1859
11155,1853
11156,1902
11157,1881
11158,1866
11159,1874
11160,1905
11161,1898
11162,1893
11163,1872
11164,2511
11165,1386
11166,2047
11167,2310
11168,2439
11169,2447
11170,2032
11171,1535
11172,1413
11173,1523
11174,1627
11175,1712
11176,1754
11177,1789
11178,1849
11179,1809
11180,1794
11181,1865
11182,1857
11183,1839
11184,1831
11185,1835
11186,1901
11187,1883
11188,1872
11189,1872
11190,1917
11191,1876
11192,1872
11193,1871
11194,1872
11195,2538
11196,1299
11197,1905
11198,2279
11199,2397
11200,2453
11201,2111
11202,1578
11203,1421
11204,1453
11205,1617
11206,1792
11207,1776
11208,1783
11209,1805
11210,1856
11211,1851
11212,1835
11213,1829
11214,1831
11215,1901
11216,1855
11217,1842
11218,1831
11219,1884
11220,1886
11221,1874
11222,1876
11223,1937
11224,1883
11225,1874
11226,1869
11227,1380
11228,1812
11229,2242
11230,2386
11231,2420
11232,2250
11233,1633
11234,1383
11235,1434
11236,1669
11237,1704
11238,1757
11239,1841
11240,1823
11241,1814
11242,1825
11243,1849
11244,1884
11245,1872
11246,1858
11247,1882
11248,1867
11249,1863
11250,1845
11251,1847
11252,1903
11253,1919
11254,1895
11255,1869
11256,1943
11257,1899
11258,1568
11259,1684
11260,2205
11261,2423
11262,2437
11263,2319
11264,1750
11265,1451
11266,1411
11267,1535
11268,1693
11269,1770
11270,1798
11271,1792
11272,1854
11273,1879
11274,1827
11275,1825
11276,1840
11277,1840
11278,1871
11279,1856
11280,1842
11281,1879
11282,1875
11283,1853
11284,1865
11285,1872
11286,1856
11287,1890
11288,1865
11289,1886
11290,1717
11291,2143
11292,2315
11293,2399
11294,2390
11295,1858
11296,1451
11297,1367
11298,1555
11299,1671
11300,1727
11301,1766
11302,1778
11303,1843
11304,1819
11305,1805
11306,1859
11307,1847
11308,1843
11309,1862
11310,1872
11311,1882
11312,1882
11313,1863
11314,1900
11315,1920
11316,1862
11317,1856
11318,1831
11319,1846
11320,2473
11321,1345
11322,2054
11323,2279
11324,2400
11325,2421
11326,1947
11327,1535
11328,1483
11329,1535
11330,1663
11331,1813
11332,1786
11333,1778
11334,1791
11335,1838
11336,1821
11337,1837
11338,1849
11339,1870
11340,1867
11341,1854
11342,1856
11343,1881
11344,1840
11345,1889
11346,1861
11347,1905
11348,1945
11349,1860
11350,1856
11351,2335
11352,1315
11353,1917
11354,2262
11355,2375
11356,2462
11357,2101
11358,1567
11359,1425
11360,1520
11361,1714
11362,1754
11363,1777
11364,1846
11365,1837
11366,1808
11367,1813
11368,1809
11369,1914
11370,1856
11371,1847
11372,1842
11373,1900
11374,1872
11375,1871
11376,1883
11377,1904
11378,1920
11379,1878
11380,1863
11381,1856
11382,1875
11383,1853
11384,1845
11385,1851
11386,1879
11387,1868
11388,1869
11389,1898
11390,1947
11391,1875
11392,1872
11393,1883
11394,1899
11395,1887
11396,1854
11397,1867
11398,1879
11399,1856
11400,1837
11401,1840
11402,1841
11403,1890
11404,1852
11405,1851
11406,1967
11407,1881
11408,1861
11409,1859
11410,1858
11411,1876
11412,1860
11413,1846
11414,1857
11415,1895
11416,1833
11417,1831
11418,1818
11419,1858
11420,1867
11421,1850
11422,1877
11423,1874
11424,1861
11425,1855
11426,1867
11427,1870
11428,1891
11429,1851
11430,1833
11431,1860
11432,1851
11433,1834
11434,1825
11435,1840
11436,1899
11437,1859
11438,1868
11439,1862
11440,1892
11441,1859
11442,1859
11443,1854
11444,1918
11445,1889
11446,1839
11447,1869
11448,1917
11449,1851
11450,1834
11451,1830
11452,1865
11453,1885
11454,1851
11455,1840
11456,1933
11457,1872
11458,1857
11459,1871
11460,1902
11461,1879
11462,1868
11463,1861
11464,1872
11465,1856
11466,1838
11467,1834
11468,1871
11469,1893
11470,1870
11471,1850
11472,1874
11473,1908
11474,1871
11475,1867
11476,1856
11477,1890
11478,1911
11479,1842
11480,1845
11481,1930
11482,1860
11483,1839
11484,1825
11485,1840
11486,1850
11487,1856
11488,1847
11489,1882
11490,1893
11491,1872
11492,1868
11493,1877
11494,1904
11495,1885
11496,1859
11497,1867
11498,1889
11499,1844
11500,1834
11501,1808
11502,1827
11503,1886
11504,1845
11505,1854
11506,1914
11507,1878
11508,1867
11509,1862
11510,1905
11511,1953
11512,1867
11513,1839
11514,1820
11515,1899
11516,1824
11517,1827
11518,1821
11519,1840
11520,1857
11521,1842
11522,1872
11523,1890
11524,1869
11525,1863
11526,1865
11527,1846
11528,1908
11529,1856
11530,1841
11531,1874
11532,1861
11533,1835
11534,1840
11535,1847
11536,1918
11537,1871
11538,1862
11539,1838
11540,1929
11541,1866
11542,1866
11543,1874
11544,1878
11545,1874
11546,1859
11547,1808
11548,1902
11549,1840
11550,1833
11551,1828
11552,1829
11553,1876
11554,1869
11555,1867
11556,1885
11557,1872
11558,1867
11559,1868
11560,1863
11561,1981
11562,1872
11563,1840
11564,1886
11565,1899
11566,1839
11567,1823
11568,1815
11569,1870
11570,1867
11571,1859
11572,1845
11573,1919
11574,1861
11575,1858
11576,1840
11577,1844
11578,1895
11579,1854
11580,1846
11581,1847
11582,1859
11583,1831
11584,1831
11585,1847
11586,1888
11587,1862
11588,1859
11589,1897
11590,1884
11591,1866
11592,1865
11593,1886
11594,1857
11595,1894
11596,1859
11597,1898
11598,1888
11599,1845
11600,1839
11601,1829
11602,1823
11603,1879
11604,1857
11605,1846
11606,1867
11607,1866
11608,1855
11609,1863
11610,1860
11611,1909
11612,1869
11613,1861
11614,1898
11615,1853
11616,1831
11617,1825
11618,1854
11619,1859
11620,1867
11621,1857
11622,1843
11623,1933
11624,1861
11625,1867
11626,1873
11627,1922
11628,1905
11629,1854
11630,1847
11631,1870
11632,1855
11633,1833
11634,1834
11635,1843
11636,1894
11637,1860
11638,1867
11639,1870
11640,1872
11641,1858
11642,1857
11643,1859
11644,1921
11645,1881
11646,1867
11647,1840
11648,1871
11649,1842
11650,1840
11651,1823
11652,1859
11653,1883
11654,1857
11655,1861
11656,1898
11657,1878
11658,1861
11659,1865
11660,1903
11661,1936
11662,1872
11663,1869
11664,1873
11665,1886
11666,1838
11667,1829
11668,1825
11669,1875
11670,1865
11671,1856
11672,1856
11673,1938
11674,1871
11675,1865
11676,1839
11677,1918
11678,1914
11679,1854
11680,1839
11681,1872
11682,1856
11683,1838
11684,1834
11685,1846
11686,1861
11687,1859
11688,1845
11689,1891
11690,1889
11691,1866
11692,1870
11693,1887
11694,1857
11695,1875
11696,1851
11697,1791
11698,1902
11699,1854
11700,1837
11701,1859
11702,1810
11703,1878
11704,1860
11705,1861
11706,1879
11707,1873
11708,1867
11709,1866
11710,1854
11711,1907
11712,1867
11713,1849
11714,1869
11715,1874
11716,1839
11717,1835
11718,1846
11719,1854
11720,1858
11721,1855
11722,1885
11723,1867
11724,1862
11725,1857
11726,1843
11727,1855
11728,1901
11729,1855
11730,1854
11731,1915
11732,1856
11733,1834
11734,1834
11735,1838
11736,1881
11737,1863
11738,1858
11739,1893
11740,1859
11741,1864
11742,1872
11743,1859
11744,1893
11745,1887
11746,1866
11747,1847
11748,1899
11749,1840
11750,1838
11751,1834
11752,1833
11753,1884
11754,1853
11755,1869
11756,1948
11757,1872
11758,1856
11759,1865
11760,1868
11761,1894
11762,1869
11763,1851
11764,1904
11765,1843
11766,1839
11767,1829
11768,1840
11769,1891
11770,1864
11771,1853
11772,1886
11773,1903
11774,1870
11775,1862
11776,1875
11777,1901
11778,1913
11779,1860
11780,1833
11781,1846
11782,1859
11783,1837
11784,1829
11785,1877
11786,1884
11787,1862
11788,1855
11789,1857
11790,1871
11791,1871
11792,1867
11793,1872
11794,1872
11795,1886
11796,1850
11797,1816
11798,1883
11799,1843
11800,1834
11801,1859
11802,1836
11803,1878
11804,1858
11805,1862
11806,1853
11807,1872
11808,1867
11809,1871
11810,1894
11811,1892
11812,1871
11813,1842
11814,1858
11815,1903
11816,1834
11817,1826
11818,1827
11819,1849
11820,1867
11821,1851
11822,1905
11823,1887
11824,1869
11825,1866
11826,1846
11827,1866
11828,1909
11829,1858
11830,1835
11831,1915
11832,1859
11833,1839
11834,1833
11835,1855
11836,1904
11837,1856
11838,1853
11839,1877
11840,1920
11841,1866
11842,1869
11843,1859
11844,1902
11845,1873
11846,1852
11847,1878
11848,1891
11849,1840
11850,1821
11851,1807
11852,1851
11853,1873
11854,1857
11855,1855
11856,1868
11857,1879
11858,1868
11859,1872
11860,1878
11861,1892
11862,1873
11863,1847
11864,1857
11865,1904
11866,1840
11867,1828
11868,1811
11869,1840
11870,1873
11871,1856
11872,1859
11873,1866
11874,1864
11875,1859
11876,1877
11877,1873
11878,1901
11879,1856
11880,1850
11881,1886
11882,1858
11883,1838
11884,1838
11885,1867
11886,1879
11887,1857
11888,1854
11889,1871
11890,1869
11891,1863
11892,1864
11893,1873
11894,1914
11895,1883
11896,1855
11897,1844
11898,1866
11899,1851
11900,1836
11901,1847
11902,1865
11903,1875
11904,1853
11905,1856
11906,1876
11907,1869
11908,1861
11909,1870
11910,1911
11911,1909
11912,1861
11913,1837
11914,1850
11915,1872
11916,1840
