Time(ms),Raw_ADC
0,1890
1,1886
2,1856
3,1850
4,1869
5,1845
6,1824
7,1826
8,1821
9,1873
10,1847
11,1849
12,1872
13,1887
14,1863
15,1866
16,1857
17,1894
18,1875
19,1853
20,1849
21,1908
22,1843
23,1830
24,1840
25,1881
26,1869
27,1854
28,1850
29,1872
30,1872
31,1863
32,1870
33,1877
34,1886
35,1862
36,1844
37,1863
38,1871
39,1838
40,1825
41,1853
42,1888
43,1867
44,1860
45,1897
46,1863
47,1872
48,1872
49,1863
50,1890
51,1889
52,1856
53,1854
54,1872
55,1851
56,1826
57,1826
58,1862
59,1868
60,1850
61,1863
62,1878
63,1904
64,1866
65,1859
66,1873
67,1873
68,1871
69,1859
70,1865
71,1872
72,1844
73,1829
74,1827
75,1837
76,1871
77,1861
78,1855
79,1927
80,1876
81,1862
82,1865
83,1893
84,1875
85,1856
86,1846
87,1856
88,1856
89,1839
90,1827
91,1846
92,1866
93,1858
94,1855
95,1845
96,1869
97,1867
98,1861
99,1855
100,1907
101,1877
102,1851
103,1824
104,1895
105,1857
106,1834
107,2405
108,2135
109,2313
110,2511
111,2537
112,2522
113,2272
114,1856
115,1601
116,1318
117,1193
118,1393
119,1535
120,1597
121,1618
122,1628
123,1647
124,1706
125,1757
126,1761
127,1776
128,1825
129,1909
130,1901
131,1903
132,1908
133,1909
134,1987
135,1903
136,1895
137,1897
138,2442
139,2201
140,2350
141,2457
142,2394
143,2307
144,1936
145,1651
146,1397
147,1235
148,1417
149,1591
150,1693
151,1677
152,1693
153,1744
154,1799
155,1793
156,1788
157,1808
158,1882
159,1899
160,1883
161,1887
162,1915
163,1922
164,1904
165,1900
166,1909
167,1927
168,1904
169,2159
170,2239
171,2363
172,2491
173,2418
174,2245
175,1808
176,1535
177,1269
178,1342
179,1535
180,1664
181,1664
182,1680
183,1707
184,1805
185,1783
186,1783
187,1850
188,1840
189,1840
190,1847
191,1879
192,1967
193,1902
194,1886
195,1889
196,1909
197,1899
198,1893
199,1894
200,1878
201,2332
202,2335
203,2551
204,2544
205,2294
206,1783
207,1392
208,1204
209,1433
210,1555
211,1616
212,1642
213,1712
214,1701
215,1736
216,1805
217,1895
218,1840
219,1840
220,1882
221,1890
222,1874
223,1866
224,1915
225,1958
226,1907
227,1894
228,1905
229,1965
230,1909
231,918
232,2356
233,2267
234,2557
235,2619
236,2383
237,1917
238,1473
239,1279
240,1406
241,1591
242,1659
243,1634
244,1641
245,1714
246,1738
247,1747
248,1791
249,1810
250,1904
251,1893
252,1866
253,1861
254,1914
255,1891
256,1867
257,1872
258,1894
259,1909
260,1902
261,1893
262,869
263,2497
264,2173
265,2424
266,2556
267,2413
268,2000
269,1625
270,1446
271,1521
272,1601
273,1627
274,1616
275,1612
276,1649
277,1670
278,1686
279,1867
280,1830
281,1835
282,1856
283,1867
284,1906
285,1894
286,1874
287,1887
288,1905
289,1866
290,1859
291,1845
292,1865
293,1205
294,2434
295,2122
296,2354
297,2402
298,2219
299,2003
300,1879
301,1584
302,1627
303,1673
304,1691
305,1680
306,1607
307,1587
308,1680
309,1767
310,1786
311,1808
312,1846
313,1875
314,1871
315,1877
316,1909
317,1927
318,1894
319,1867
320,1883
321,1887
322,1856
323,1846
324,1808
325,2528
326,2086
327,2090
328,2244
329,2096
330,2044
331,1914
332,1706
333,1743
334,1808
335,1731
336,1672
337,1697
338,1634
339,1677
340,1729
341,1830
342,1819
343,1835
344,1856
345,1878
346,1909
347,1872
348,1879
349,1902
350,1935
351,1907
352,1873
353,1842
354,1885
355,1859
356,2357
357,2064
358,2035
359,2218
360,2037
361,2027
362,1985
363,1780
364,1775
365,1775
366,1728
367,1711
368,1606
369,1637
370,1691
371,1783
372,1786
373,1790
374,1815
375,1840
376,1872
377,1866
378,1867
379,1904
380,1890
381,1881
382,1881
383,1947
384,1917
385,1863
386,1866
387,2305
388,2177
389,2035
390,2157
391,1986
392,1997
393,1967
394,1747
395,1786
396,1790
397,1702
398,1644
399,1603
400,1730
401,1759
402,1794
403,1835
404,1868
405,1840
406,1832
407,1840
408,1841
409,1904
410,1869
411,1860
412,1856
413,1901
414,1868
415,1867
416,1926
417,1984
418,1872
419,2179
420,2075
421,2198
422,1963
423,1904
424,2000
425,1799
426,1777
427,1751
428,1731
429,1745
430,1653
431,1715
432,1778
433,1807
434,1856
435,1833
436,1849
437,1903
438,1874
439,1845
440,1838
441,1866
442,1890
443,1871
444,1862
445,1854
446,1904
447,1875
448,1869
449,1376
450,2321
451,2097
452,2165
453,1977
454,1943
455,2045
456,1799
457,1751
458,1764
459,1753
460,1648
461,1633
462,1738
463,1790
464,1808
465,1808
466,1867
467,1917
468,1866
469,1850
470,1842
471,1875
472,1854
473,1840
474,1860
475,1865
476,1875
477,1850
478,1861
479,1918
480,807
481,2304
482,2075
483,2191
484,2032
485,1879
486,2110
487,1890
488,1789
489,1743
490,1704
491,1685
492,1665
493,1676
494,1733
495,1831
496,1818
497,1831
498,1851
499,1857
500,1872
501,1888
502,1856
503,1869
504,1899
505,1856
506,1840
507,1840
508,1842
509,1887
510,1863
511,730
512,2390
513,2105
514,2171
515,2037
516,1876
517,2118
518,1841
519,1771
520,1791
521,1766
522,1659
523,1602
524,1653
525,1739
526,1792
527,1793
528,1802
529,1851
530,1867
531,1865
532,1869
533,1946
534,1904
535,1866
536,1851
537,1934
538,1874
539,1842
540,1840
541,1823
542,1209
543,2401
544,2059
545,2128
546,2054
547,1859
548,2093
549,1871
550,1834
551,1819
552,1743
553,1667
554,1735
555,1652
556,1708
557,1746
558,1807
559,1847
560,1827
561,1865
562,1886
563,1890
564,1867
565,1867
566,1905
567,1897
568,1874
569,1854
570,1901
571,1890
572,1845
573,1808
574,2393
575,2149
576,2111
577,2058
578,1837
579,2074
580,1898
581,1794
582,1791
583,1808
584,1735
585,1619
586,1658
587,1783
588,1785
589,1766
590,1786
591,1867
592,1886
593,1865
594,1856
595,1877
596,1865
597,1869
598,1871
599,1893
600,1873
601,1895
602,1872
603,1820
604,1873
605,2352
606,2077
607,2096
608,2075
609,1881
610,2032
611,1918
612,1792
613,1826
614,1763
615,1682
616,1653
617,1644
618,1728
619,1744
620,1873
621,1851
622,1808
623,1817
624,1861
625,1876
626,1869
627,1851
628,1847
629,1936
630,1883
631,1872
632,1837
633,1899
634,1908
635,1870
636,2181
637,2214
638,2102
639,2067
640,1821
641,1947
642,1983
643,1817
644,1798
645,1851
646,1731
647,1646
648,1654
649,1739
650,1841
651,1819
652,1808
653,1789
654,1867
655,1844
656,1829
657,1831
658,1827
659,1892
660,1869
661,1858
662,1957
663,1899
664,1872
665,1872
666,1886
667,2011
668,2215
669,2079
670,2161
671,1910
672,1933
673,1953
674,1780
675,1835
676,1777
677,1710
678,1648
679,1682
680,1734
681,1777
682,1790
683,1818
684,1867
685,1829
686,1843
687,1871
688,1863
689,1843
690,1846
691,1826
692,1912
693,1873
694,1870
695,1891
696,1934
697,1871
698,1319
699,2278
700,2166
701,2146
702,1904
703,1969
704,2064
705,1815
706,1778
707,1776
708,1735
709,1683
710,1642
711,1702
712,1775
713,1804
714,1806
715,1827
716,1856
717,1920
718,1869
719,1839
720,1856
721,1885
722,1851
723,1840
724,1863
725,1900
726,1871
727,1862
728,1883
729,1906
730,1875
731,1867
732,1872
733,1950
734,1900
735,1853
736,1838
737,1895
738,1858
739,1824
740,1823
741,1844
742,1869
743,1853
744,1851
745,1855
746,1863
747,1855
748,1847
749,1872
750,1904
751,1872
752,1843
753,1894
754,1874
755,1841
756,1823
757,1851
758,1830
759,1874
760,1843
761,1855
762,1929
763,1875
764,1855
765,1855
766,1879
767,1908
768,1863
769,1847
770,1902
771,1875
772,1830
773,1817
774,1835
775,1899
776,1856
777,1843
778,1833
779,1851
780,1867
781,1857
782,1854
783,1885
784,1903
785,1857
786,1847
787,1872
788,1859
789,1829
790,1825
791,1839
792,1893
793,1853
794,1850
795,1894
796,1887
797,1863
798,1862
799,1861
800,1905
801,1872
802,1845
803,1841
804,1867
805,1837
806,1813
807,1827
808,1791
809,1872
810,1847
811,1851
812,1914
813,1882
814,1858
815,1859
816,1879
817,1907
818,1856
819,1840
820,1890
821,1885
822,1835
823,1825
824,1834
825,1949
826,1858
827,1841
828,1901
829,1872
830,1867
831,1855
832,1830
833,1854
834,1891
835,1850
836,1840
837,1883
838,1853
839,1813
840,1814
841,1821
842,1882
843,1847
844,1840
845,1889
846,1898
847,1854
848,1856
849,1901
850,1905
851,1871
852,1841
853,1904
854,1909
855,1839
856,1822
857,1830
858,1857
859,1874
860,1841
861,1853
862,1938
863,1873
864,1852
865,1850
866,1836
867,1901
868,1852
869,1829
870,1883
871,1858
872,1824
873,1821
874,1840
875,1834
876,1856
877,1847
878,1872
879,1927
880,1872
881,1851
882,1845
883,1873
884,1894
885,1847
886,1851
887,1936
888,1853
889,1826
890,1818
891,1866
892,1883
893,1846
894,1847
895,1885
896,1904
897,1851
898,1851
899,1877
900,1904
901,1872
902,1831
903,1822
904,1856
905,1839
906,1819
907,1849
908,1904
909,1873
910,1848
911,1850
912,1904
913,1873
914,1854
915,1851
916,1885
917,1894
918,1866
919,1840
920,1873
921,1902
922,1834
923,1818
924,1822
925,1866
926,1850
927,1836
928,1853
929,1845
930,1852
931,1855
932,1863
933,1937
934,1888
935,1847
936,1834
937,1856
938,1858
939,1826
940,1822
941,1810
942,1879
943,1847
944,1845
945,1895
946,1881
947,1854
948,1856
949,1875
950,1909
951,1875
952,1848
953,1873
954,1831
955,1837
956,1823
957,1805
958,1819
959,1872
960,1842
961,1861
962,1898
963,1875
964,1859
965,1856
966,1853
967,1911
968,1861
969,1830
970,1926
971,1867
972,1837
973,1829
974,1833
975,1919
976,1865
977,1862
978,1844
979,1867
980,1869
981,1853
982,1861
983,1885
984,1887
985,1846
986,1846
987,1875
988,1853
989,1832
990,1829
991,1810
992,1875
993,1858
994,1850
995,1871
996,1903
997,1870
998,1866
999,1879
1000,1953
1001,1879
1002,1863
1003,1859
1004,1908
1005,1852
1006,1838
1007,1856
1008,1813
1009,1883
1010,1861
1011,1843
1012,1909
1013,1887
1014,1866
1015,1865
1016,1872
1017,1909
1018,1862
1019,1859
1020,1905
1021,1874
1022,1840
1023,1835
1024,1833
1025,1916
1026,1870
1027,1858
1028,1891
1029,1943
1030,1870
1031,1862
1032,1906
1033,1911
1034,1894
1035,1858
1036,1845
1037,1858
1038,1856
1039,1839
1040,1830
1041,1844
1042,1870
1043,1854
1044,1821
1045,1876
1046,1854
1047,1853
1048,1851
1049,1871
1050,1895
1051,1867
1052,1846
1053,1840
1054,1884
1055,1840
1056,1819
1057,1808
1058,1824
1059,1868
1060,1845
1061,1850
1062,1895
1063,1874
1064,1863
1065,1860
1066,1859
1067,1904
1068,1858
1069,1845
1070,1871
1071,1885
1072,1835
1073,1831
1074,1821
1075,1885
1076,1859
1077,1849
1078,1905
1079,1860
1080,1872
1081,1866
1082,1896
1083,1921
1084,1891
1085,1859
1086,1854
1087,1886
1088,1857
1089,1833
1090,1837
1091,1859
1092,1899
1093,1856
1094,1847
1095,1878
1096,1894
1097,1868
1098,1869
1099,1872
1100,1918
1101,1872
1102,1854
1103,1926
1104,1878
1105,1842
1106,1825
1107,1856
1108,1879
1109,1872
1110,1856
1111,1845
1112,1856
1113,1877
1114,1868
1115,1863
1116,1915
1117,1914
1118,1857
1119,1842
1120,1906
1121,1849
1122,1838
1123,1831
1124,1837
1125,1864
1126,1865
1127,1845
1128,1866
1129,1910
1130,1872
1131,1862
1132,1865
1133,1861
1134,1882
1135,1853
1136,1847
1137,1872
1138,1847
1139,1830
1140,1826
1141,1875
1142,1859
1143,1859
1144,1856
1145,1840
1146,1889
1147,1858
1148,1866
1149,1877
1150,1879
1151,1872
1152,1856
1153,1849
1154,1920
1155,1841
1156,1837
1157,1824
1158,1866
1159,1872
1160,1856
1161,1872
1162,1897
1163,1873
1164,1859
1165,1857
1166,1919
1167,1911
1168,1856
1169,1856
1170,1871
1171,1872
1172,1833
1173,1834
1174,1865
1175,1935
1176,1861
1177,1856
1178,1863
1179,1875
1180,1868
1181,1863
1182,1887
1183,1856
1184,1888
1185,1851
1186,1835
1187,1886
1188,1851
1189,1834
1190,1831
1191,1863
1192,1887
1193,1853
1194,1840
1195,1874
1196,1869
1197,1856
1198,1854
1199,1882
1200,1917
1201,1868
1202,1851
1203,1811
1204,1872
1205,1840
1206,1830
1207,1856
1208,1821
1209,1863
1210,1847
1211,1872
1212,1872
1213,1872
1214,1859
1215,1859
1216,1861
1217,1890
1218,1851
1219,1840
1220,1865
1221,1860
1222,1831
1223,1827
1224,1827
1225,1882
1226,1847
1227,1847
1228,1863
1229,1899
1230,1858
1231,1859
1232,1882
1233,1895
1234,1882
1235,1857
1236,1853
1237,1849
1238,1847
1239,1826
1240,1825
1241,1846
1242,1871
1243,1855
1244,1852
1245,1887
1246,1882
1247,1855
1248,1859
1249,1853
1250,1901
1251,1869
1252,1847
1253,1895
1254,1858
1255,1830
1256,1821
1257,1827
1258,1847
1259,1857
1260,1838
1261,1859
1262,1904
1263,1871
1264,1858
1265,1861
1266,1862
1267,1895
1268,1869
1269,1850
1270,1893
1271,1856
1272,1837
1273,1835
1274,1826
1275,1899
1276,1861
1277,1855
1278,1872
1279,1879
1280,1861
1281,1864
1282,1863
1283,1866
1284,1873
1285,1850
1286,1856
1287,1871
1288,1846
1289,1833
1290,1831
1291,1831
1292,1873
1293,1854
1294,1852
1295,1889
1296,1882
1297,1867
1298,1860
1299,1843
1300,1943
1301,1871
1302,1840
1303,1857
1304,1905
1305,1840
1306,1830
1307,1829
1308,1870
1309,1865
1310,1846
1311,1871
1312,1889
1313,1875
1314,1855
1315,1856
1316,1886
1317,1888
1318,1856
1319,1844
1320,1857
1321,1865
1322,1836
1323,1826
1324,1851
1325,1893
1326,1858
1327,1849
1328,1839
1329,1881
1330,1869
1331,1859
1332,1883
1333,1907
1334,1877
1335,1849
1336,1853
1337,1863
1338,1842
1339,1831
1340,1837
1341,1861
1342,1879
1343,1856
1344,1845
1345,1882
1346,1883
1347,1858
1348,1866
1349,1872
1350,1939
1351,1861
1352,1842
1353,1875
1354,1889
1355,1840
1356,1829
1357,1827
1358,1899
1359,1866
1360,1850
1361,1882
1362,1862
1363,1872
1364,1859
1365,1862
1366,1872
1367,1892
1368,1859
1369,1842
1370,1861
1371,1871
1372,1834
1373,1831
1374,1838
1375,1859
1376,1845
1377,1845
1378,1843
1379,1897
1380,1872
1381,1861
1382,1872
1383,1902
1384,1876
1385,1846
1386,1859
1387,1854
1388,1855
1389,1836
1390,1839
1391,1840
1392,1869
1393,1856
1394,1855
1395,1920
1396,1890
1397,1862
1398,1861
1399,1890
1400,1904
1401,1869
1402,1840
1403,1911
1404,1856
1405,1833
1406,1826
1407,1857
1408,1840
1409,1863
1410,1851
1411,1890
1412,1879
1413,1874
1414,1862
1415,1862
1416,1882
1417,1903
1418,1855
1419,1847
1420,1867
1421,1861
1422,1837
1423,1835
1424,1825
1425,1903
1426,1856
1427,1855
1428,1904
1429,1921
1430,1870
1431,1866
1432,1899
1433,1888
1434,1875
1435,1851
1436,1905
1437,1921
1438,1842
1439,1826
1440,1833
1441,1898
1442,1877
1443,1854
1444,1837
1445,1842
1446,1879
1447,1857
1448,1866
1449,1866
1450,1903
1451,1865
1452,1856
1453,1935
1454,1840
1455,1840
1456,1827
1457,1840
1458,1872
1459,1862
1460,1861
1461,1859
1462,1870
1463,1871
1464,1857
1465,1857
1466,1859
1467,1894
1468,1851
1469,1835
1470,1870
1471,1863
1472,1837
1473,1833
1474,1864
1475,1872
1476,1856
1477,1854
1478,1906
1479,1878
1480,1866
1481,1865
1482,1874
1483,1936
1484,1886
1485,1859
1486,1888
1487,1901
1488,1847
1489,1836
1490,1839
1491,1856
1492,1882
1493,1855
1494,1847
1495,1902
1496,1875
1497,1864
1498,1856
1499,1889
1500,1898
1501,1866
1502,1840
1503,1843
1504,1899
1505,1840
1506,1833
1507,1854
1508,1837
1509,1859
1510,1851
1511,1899
1512,1891
1513,1871
1514,1866
1515,1859
1516,1915
1517,1902
1518,1851
1519,1859
1520,1861
1521,1861
1522,1833
1523,1829
1524,1843
1525,1915
1526,1847
1527,1854
1528,1867
1529,1854
1530,1857
1531,1865
1532,1845
1533,1889
1534,1882
1535,1853
1536,1904
1537,1904
1538,1846
1539,1835
1540,1847
1541,1838
1542,1871
1543,1856
1544,1859
1545,1911
1546,1879
1547,1863
1548,1871
1549,1885
1550,1936
1551,1871
1552,1843
1553,1920
1554,1867
1555,1834
1556,1826
1557,1821
1558,1879
1559,1856
1560,1850
1561,1823
1562,1856
1563,1872
1564,1861
1565,1895
1566,1910
1567,1902
1568,1855
1569,1847
1570,1874
1571,1865
1572,1837
1573,1827
1574,1866
1575,1869
1576,1856
1577,1854
1578,1904
1579,1907
1580,1870
1581,1871
1582,1878
1583,1859
1584,1872
1585,1853
1586,1861
1587,1850
1588,1839
1589,1837
1590,1839
1591,1806
1592,1876
1593,1856
1594,1861
1595,1843
1596,1878
1597,1869
1598,1865
1599,1907
1600,1893
1601,1868
1602,1850
1603,1882
1604,1903
1605,1845
1606,1833
1607,1812
1608,1849
1609,1868
1610,1849
1611,1859
1612,1893
1613,1872
1614,1858
1615,1876
1616,1867
1617,1889
1618,1853
1619,1840
1620,1883
1621,1860
1622,1838
1623,1831
1624,1809
1625,1885
1626,1853
1627,1854
1628,1858
1629,1906
1630,1872
1631,1867
1632,1873
1633,1867
1634,1873
1635,1855
1636,1853
1637,1855
1638,1846
1639,1836
1640,1810
1641,1894
1642,1878
1643,1856
1644,1837
1645,1851
1646,1875
1647,1862
1648,1860
1649,1869
1650,1935
1651,1862
1652,1842
1653,1841
1654,1861
1655,1839
1656,1831
1657,1823
1658,1872
1659,1866
1660,1840
1661,1861
1662,1867
1663,1872
1664,1867
1665,1895
1666,1894
1667,1895
1668,1857
1669,1865
1670,1845
1671,1857
1672,1833
1673,1837
1674,1831
1675,1874
1676,1851
1677,1850
1678,1855
1679,1872
1680,1867
1681,1863
1682,1869
1683,1911
1684,1876
1685,1856
1686,1874
1687,1879
1688,1843
1689,1833
1690,1825
1691,1839
1692,1875
1693,1856
1694,1851
1695,1878
1696,1882
1697,1866
1698,1866
1699,1880
1700,1927
1701,1869
1702,1856
1703,1913
1704,1865
1705,1829
1706,1827
1707,1819
1708,1895
1709,1865
1710,1855
1711,1845
1712,1934
1713,1875
1714,1862
1715,1872
1716,1845
1717,1890
1718,1856
1719,1841
1720,1905
1721,1857
1722,1834
1723,1837
1724,1842
1725,2199
1726,2209
1727,2355
1728,2624
1729,2554
1730,2486
1731,2275
1732,1856
1733,1589
1734,1283
1735,1104
1736,1370
1737,1535
1738,1595
1739,1607
1740,1642
1741,1659
1742,1731
1743,1735
1744,1761
1745,1877
1746,1846
1747,1875
1748,1907
1749,1916
1750,1936
1751,1911
1752,1899
1753,1895
1754,1900
1755,1877
1756,1579
1757,2247
1758,2416
1759,2559
1760,2502
1761,2366
1762,2059
1763,1664
1764,1397
1765,1207
1766,1435
1767,1593
1768,1634
1769,1647
1770,1669
1771,1743
1772,1750
1773,1774
1774,1811
1775,1860
1776,1871
1777,1873
1778,1893
1779,1920
1780,1906
1781,1907
1782,1898
1783,1923
1784,1905
1785,1885
1786,1872
1787,918
1788,2293
1789,2310
1790,2522
1791,2471
1792,2343
1793,1902
1794,1567
1795,1341
1796,1319
1797,1520
1798,1627
1799,1685
1800,1709
1801,1712
1802,1731
1803,1777
1804,1823
1805,1795
1806,1815
1807,1872
1808,1937
1809,1893
1810,1877
1811,1936
1812,1924
1813,1905
1814,1895
1815,1901
1816,1941
1817,1904
1818,634
1819,2323
1820,2272
1821,2558
1822,2544
1823,2337
1824,1824
1825,1516
1826,1240
1827,1426
1828,1616
1829,1653
1830,1644
1831,1667
1832,1696
1833,1757
1834,1795
1835,1794
1836,1883
1837,1869
1838,1844
1839,1853
1840,1871
1841,1875
1842,1920
1843,1902
1844,1890
1845,1891
1846,1915
1847,1892
1848,1895
1849,989
1850,2477
1851,2256
1852,2559
1853,2671
1854,2453
1855,1896
1856,1392
1857,1232
1858,1518
1859,1590
1860,1633
1861,1673
1862,1659
1863,1703
1864,1729
1865,1744
1866,1853
1867,1856
1868,1845
1869,1854
1870,1968
1871,1893
1872,1873
1873,1873
1874,1874
1875,1921
1876,1898
1877,1891
1878,1970
1879,1918
1880,1643
1881,2381
1882,2225
1883,2500
1884,2624
1885,2449
1886,1927
1887,1637
1888,1395
1889,1491
1890,1595
1891,1673
1892,1673
1893,1655
1894,1671
1895,1694
1896,1755
1897,1793
1898,1825
1899,1847
1900,1901
1901,1884
1902,1874
1903,1956
1904,1919
1905,1871
1906,1869
1907,1913
1908,1959
1909,1895
1910,1883
1911,1895
1912,2395
1913,2180
1914,2333
1915,2471
1916,2365
1917,2065
1918,1730
1919,1514
1920,1587
1921,1680
1922,1677
1923,1666
1924,1637
1925,1675
1926,1665
1927,1729
1928,1805
1929,1839
1930,1840
1931,1857
1932,1899
1933,1933
1934,1899
1935,1887
1936,1905
1937,1883
1938,1872
1939,1859
1940,1840
1941,1893
1942,1898
1943,2140
1944,2141
1945,2193
1946,2327
1947,2214
1948,2055
1949,1979
1950,1739
1951,1719
1952,1743
1953,1708
1954,1725
1955,1614
1956,1593
1957,1679
1958,1777
1959,1789
1960,1808
1961,1872
1962,1872
1963,1872
1964,1872
1965,1895
1966,1929
1967,1904
1968,1863
1969,1872
1970,1904
1971,1875
1972,1849
1973,1851
1974,1854
1975,2215
1976,2038
1977,2214
1978,2142
1979,2043
1980,2016
1981,1776
1982,1823
1983,1835
1984,1759
1985,1678
1986,1697
1987,1678
1988,1698
1989,1743
1990,1808
1991,1841
1992,1851
1993,1851
1994,1867
1995,1953
1996,1897
1997,1879
1998,1887
1999,1857
2000,1917
2001,1874
2002,1865
2003,1914
2004,1874
2005,1312
2006,2171
2007,2011
2008,2258
2009,2097
2010,1947
2011,2000
2012,1880
2013,1781
2014,1772
2015,1743
2016,1739
2017,1649
2018,1658
2019,1738
2020,1777
2021,1814
2022,1802
2023,1813
2024,1859
2025,1873
2026,1858
2027,1865
2028,1918
2029,1904
2030,1879
2031,1878
2032,1903
2033,1906
2034,1875
2035,1856
2036,778
2037,2322
2038,2047
2039,2160
2040,2014
2041,1963
2042,2065
2043,1829
2044,1739
2045,1763
2046,1735
2047,1671
2048,1629
2049,1675
2050,1795
2051,1797
2052,1811
2053,1856
2054,1851
2055,1830
2056,1825
2057,1841
2058,1921
2059,1863
2060,1863
2061,1889
2062,1909
2063,1887
2064,1863
2065,1901
2066,1917
2067,547
2068,2265
2069,2032
2070,2219
2071,2070
2072,1851
2073,2075
2074,1942
2075,1846
2076,1757
2077,1735
2078,1749
2079,1670
2080,1683
2081,1754
2082,1792
2083,1893
2084,1840
2085,1840
2086,1868
2087,1911
2088,1860
2089,1856
2090,1889
2091,1862
2092,1889
2093,1869
2094,1904
2095,1896
2096,1884
2097,1864
2098,941
2099,2363
2100,2128
2101,2180
2102,2098
2103,1893
2104,2063
2105,1851
2106,1747
2107,1747
2108,1798
2109,1692
2110,1654
2111,1668
2112,1761
2113,1798
2114,1808
2115,1836
2116,1910
2117,1877
2118,1867
2119,1875
2120,1870
2121,1867
2122,1844
2123,1845
2124,1854
2125,1891
2126,1857
2127,1857
2128,1871
2129,1729
2130,2279
2131,2086
2132,2191
2133,2190
2134,1908
2135,2068
2136,1878
2137,1802
2138,1771
2139,1729
2140,1686
2141,1647
2142,1680
2143,1729
2144,1744
2145,1777
2146,1840
2147,1840
2148,1857
2149,1887
2150,1925
2151,1867
2152,1875
2153,1901
2154,1886
2155,1843
2156,1842
2157,1819
2158,1915
2159,1866
2160,1856
2161,2287
2162,2143
2163,2165
2164,2160
2165,1936
2166,2106
2167,1911
2168,1776
2169,1776
2170,1807
2171,1705
2172,1628
2173,1631
2174,1702
2175,1803
2176,1797
2177,1813
2178,1833
2179,1883
2180,1869
2181,1874
2182,1914
2183,1959
2184,1873
2185,1858
2186,1861
2187,1903
2188,1851
2189,1837
2190,1870
2191,1904
2192,2071
2193,2124
2194,2115
2195,2189
2196,1943
2197,2023
2198,1935
2199,1834
2200,1854
2201,1776
2202,1705
2203,1739
2204,1669
2205,1692
2206,1743
2207,1783
2208,1862
2209,1829
2210,1840
2211,1858
2212,1885
2213,1872
2214,1871
2215,1881
2216,1904
2217,1899
2218,1856
2219,1862
2220,1915
2221,1863
2222,1839
2223,1856
2224,2113
2225,2127
2226,2162
2227,1909
2228,2081
2229,1974
2230,1808
2231,1813
2232,1783
2233,1775
2234,1675
2235,1642
2236,1731
2237,1818
2238,1777
2239,1778
2240,1783
2241,1890
2242,1872
2243,1856
2244,1860
2245,1921
2246,1887
2247,1873
2248,1873
2249,1883
2250,1915
2251,1870
2252,1855
2253,1890
2254,1233
2255,2181
2256,2064
2257,2224
2258,2074
2259,1984
2260,1981
2261,1807
2262,1835
2263,1788
2264,1740
2265,1673
2266,1687
2267,1728
2268,1755
2269,1769
2270,1798
2271,1829
2272,1813
2273,1840
2274,1848
2275,1866
2276,1856
2277,1852
2278,1903
2279,1903
2280,1878
2281,1873
2282,1895
2283,1950
2284,1879
2285,657
2286,2352
2287,2127
2288,2154
2289,1962
2290,1940
2291,2065
2292,1829
2293,1807
2294,1797
2295,1731
2296,1680
2297,1637
2298,1701
2299,1792
2300,1840
2301,1810
2302,1799
2303,1862
2304,1869
2305,1840
2306,1835
2307,1855
2308,1925
2309,1872
2310,1850
2311,1901
2312,1911
2313,1880
2314,1869
2315,1872
2316,538
2317,2339
2318,2068
2319,2160
2320,2037
2321,1907
2322,2016
2323,1789
2324,1783
2325,1829
2326,1745
2327,1675
2328,1635
2329,1714
2330,1758
2331,1786
2332,1842
2333,1856
2334,1850
2335,1849
2336,1918
2337,1872
2338,1846
2339,1838
2340,1835
2341,1892
2342,1885
2343,1866
2344,1866
2345,1904
2346,1882
2347,1869
2348,1870
2349,1902
2350,1921
2351,1867
2352,1840
2353,1938
2354,1867
2355,1835
2356,1825
2357,1818
2358,1949
2359,1849
2360,1850
2361,1876
2362,1861
2363,1861
2364,1850
2365,1865
2366,1907
2367,1872
2368,1842
2369,1890
2370,1919
2371,1842
2372,1824
2373,1825
2374,1855
2375,1889
2376,1847
2377,1841
2378,1871
2379,1877
2380,1861
2381,1857
2382,1904
2383,1905
2384,1862
2385,1840
2386,1887
2387,1889
2388,1835
2389,1825
2390,1829
2391,1840
2392,1865
2393,1853
2394,1855
2395,1847
2396,1867
2397,1859
2398,1852
2399,1886
2400,1901
2401,1854
2402,1844
2403,1872
2404,1861
2405,1831
2406,1825
2407,1838
2408,1898
2409,1854
2410,1855
2411,1865
2412,1875
2413,1867
2414,1859
2415,1870
2416,1919
2417,1871
2418,1856
2419,1838
2420,1906
2421,1840
2422,1815
2423,1814
2424,1890
2425,1876
2426,1842
2427,1854
2428,1919
2429,1875
2430,1853
2431,1861
2432,1901
2433,1919
2434,1865
2435,1849
2436,1883
2437,1872
2438,1840
2439,1821
2440,1861
2441,1897
2442,1863
2443,1847
2444,1834
2445,1863
2446,1869
2447,1855
2448,1851
2449,1908
2450,1903
2451,1851
2452,1841
2453,1866
2454,1856
2455,1818
2456,1819
2457,1819
2458,1893
2459,1849
2460,1842
2461,1903
2462,1861
2463,1863
2464,1858
2465,1873
2466,1901
2467,1874
2468,1850
2469,1827
2470,1905
2471,1843
2472,1828
2473,1839
2474,1870
2475,1879
2476,1847
2477,1853
2478,1856
2479,1880
2480,1856
2481,1856
2482,1867
2483,1939
2484,1854
2485,1829
2486,1940
2487,1872
2488,1823
2489,1821
2490,1812
2491,1857
2492,1863
2493,1840
2494,1858
2495,1866
2496,1866
2497,1857
2498,1869
2499,1939
2500,1890
2501,1853
2502,1845
2503,1906
2504,1857
2505,1823
2506,1821
2507,1856
2508,1866
2509,1841
2510,1843
2511,1837
2512,1872
2513,1861
2514,1853
2515,1882
2516,1872
2517,1872
2518,1840
2519,1825
2520,1842
2521,1843
2522,1821
2523,1824
2524,1808
2525,1871
2526,1840
2527,1857
2528,1903
2529,1882
2530,1856
2531,1856
2532,1858
2533,1914
2534,1856
2535,1841
2536,1866
2537,1871
2538,1826
2539,1823
2540,1860
2541,1934
2542,1865
2543,1847
2544,1846
2545,1837
2546,1858
2547,1845
2548,1841
2549,1878
2550,1891
2551,1845
2552,1839
2553,1868
2554,1855
2555,1821
2556,1823
2557,1867
2558,1843
2559,1847
2560,1834
2561,1887
2562,1915
2563,1859
2564,1856
2565,1847
2566,1895
2567,1872
2568,1849
2569,1840
2570,1835
2571,1842
2572,1818
2573,1822
2574,1861
2575,1865
2576,1834
2577,1845
2578,1899
2579,1878
2580,1856
2581,1852
2582,1906
2583,1859
2584,1861
2585,1841
2586,1820
2587,1859
2588,1830
2589,1819
2590,1814
2591,1850
2592,1856
2593,1842
2594,1888
2595,1899
2596,1872
2597,1858
2598,1870
2599,1915
2600,1895
2601,1841
2602,1840
2603,1868
2604,1846
2605,1825
2606,1820
2607,1808
2608,1850
2609,1846
2610,1851
2611,1888
2612,1884
2613,1873
2614,1867
2615,1870
2616,1891
2617,1883
2618,1870
2619,1856
2620,1882
2621,1866
2622,1847
2623,1863
2624,1881
2625,1894
2626,1866
2627,1866
2628,1891
2629,1893
2630,1872
2631,1871
2632,1856
2633,1911
2634,1859
2635,1841
2636,1883
2637,1907
2638,1829
2639,1824
2640,1840
2641,1910
2642,1859
2643,1844
2644,1821
2645,1888
2646,1863
2647,1854
2648,1840
2649,1866
2650,1874
2651,1839
2652,1823
2653,1869
2654,1846
2655,1813
2656,1809
2657,1827
2658,1885
2659,1839
2660,1840
2661,1871
2662,1857
2663,1855
2664,1840
2665,1851
2666,1868
2667,1856
2668,1841
2669,1851
2670,1870
2671,1834
2672,1824
2673,1843
2674,1895
2675,1865
2676,1842
2677,1844
2678,1858
2679,1862
2680,1849
2681,1842
2682,1869
2683,1890
2684,1851
2685,1834
2686,1877
2687,1842
2688,1820
2689,1820
2690,1850
2691,1823
2692,1853
2693,1841
2694,1882
2695,1859
2696,1865
2697,1857
2698,1843
2699,1898
2700,1879
2701,1850
2702,1829
2703,1857
2704,1840
2705,1827
2706,1822
2707,1831
2708,1909
2709,1847
2710,1847
2711,1863
2712,1899
2713,1869
2714,1862
2715,1872
2716,1955
2717,1872
2718,1853
2719,1847
2720,1845
2721,1847
2722,1840
2723,1828
2724,1867
2725,1870
2726,1856
2727,1845
2728,1867
2729,1871
2730,1859
2731,1872
2732,1851
2733,1933
2734,1869
2735,1858
2736,1871
2737,1854
2738,1840
2739,1835
2740,1828
2741,1893
2742,1856
2743,1854
2744,1867
2745,1904
2746,1874
2747,1865
2748,1850
2749,1906
2750,1888
2751,1855
2752,1856
2753,1888
2754,1845
2755,1831
2756,1834
2757,1808
2758,1874
2759,1854
2760,1851
2761,1882
2762,1863
2763,1862
2764,1863
2765,1881
2766,1922
2767,1872
2768,1855
2769,1925
2770,1882
2771,1847
2772,1837
2773,1824
2774,1878
2775,1872
2776,1855
2777,1847
2778,1840
2779,1872
2780,1863
2781,1869
2782,1847
2783,1904
2784,1854
2785,1852
2786,1860
2787,1877
2788,1831
2789,1834
2790,1841
2791,1877
2792,1857
2793,1856
2794,1903
2795,1872
2796,1865
2797,1865
2798,1840
2799,1873
2800,1883
2801,1855
2802,1823
2803,1909
2804,1853
2805,1835
2806,1833
2807,1871
2808,1886
2809,1854
2810,1847
2811,1920
2812,1874
2813,1858
2814,1856
2815,1861
2816,1873
2817,1861
2818,1842
2819,1904
2820,1885
2821,1840
2822,1833
2823,1810
2824,1904
2825,1872
2826,1856
2827,1845
2828,1913
2829,1872
2830,1859
2831,1862
2832,1873
2833,1888
2834,1857
2835,1847
2836,1914
2837,1854
2838,1835
2839,1834
2840,1831
2841,1931
2842,1858
2843,1854
2844,1842
2845,1854
2846,1856
2847,1856
2848,1857
2849,1882
2850,1873
2851,1854
2852,1840
2853,1863
2854,1851
2855,1831
2856,1830
2857,1845
2858,1889
2859,1856
2860,1841
2861,1857
2862,1872
2863,1858
2864,1857
2865,1862
2866,1904
2867,1867
2868,1842
2869,1843
2870,1843
2871,1840
2872,1837
2873,1834
2874,1844
2875,1863
2876,1850
2877,1850
2878,1853
2879,1872
2880,1866
2881,1859
2882,1871
2883,1902
2884,1855
2885,1833
2886,1866
2887,1855
2888,1840
2889,1839
2890,1867
2891,1853
2892,1857
2893,1847
2894,1866
2895,1930
2896,1863
2897,1855
2898,1862
2899,1869
2900,1879
2901,1856
2902,1850
2903,1840
2904,1849
2905,1828
2906,1827
2907,1899
2908,1877
2909,1855
2910,1857
2911,1901
2912,1870
2913,1870
2914,1865
2915,1869
2916,1904
2917,1870
2918,1843
2919,1843
2920,1895
2921,1841
2922,1831
2923,1817
2924,1879
2925,1872
2926,1861
2927,1868
2928,1863
2929,1872
2930,1862
2931,1863
2932,1868
2933,1895
2934,1851
2935,1842
2936,1892
2937,1845
2938,1834
2939,1830
2940,1821
2941,1840
2942,1853
2943,1851
2944,1914
2945,1872
2946,1866
2947,1853
2948,1863
2949,1870
2950,1877
2951,1856
2952,1831
2953,1909
2954,1854
2955,1836
2956,1837
2957,1812
2958,1889
2959,1856
2960,1859
2961,1872
2962,1862
2963,1863
2964,1856
2965,1876
2966,1948
2967,1862
2968,1844
2969,1873
2970,1874
2971,1844
2972,1833
2973,1826
2974,1866
2975,1872
2976,1859
2977,1819
2978,1919
2979,1867
2980,1853
2981,1856
2982,1887
2983,1884
2984,1862
2985,1851
2986,1899
2987,1847
2988,1839
2989,1838
2990,1830
2991,1895
2992,1861
2993,1855
2994,1887
2995,1859
2996,1856
2997,1855
2998,1851
2999,1891
3000,1883
3001,1857
3002,1847
3003,1843
3004,1847
3005,1836
3006,1840
3007,1854
3008,1871
3009,1855
3010,1850
3011,1891
3012,1913
3013,1859
3014,1858
3015,1853
3016,1959
3017,1863
3018,1841
3019,1885
3020,1878
3021,1841
3022,1829
3023,1839
3024,1840
3025,1862
3026,1847
3027,1857
3028,1872
3029,1867
3030,1855
3031,1858
3032,1899
3033,1891
3034,1857
3035,1842
3036,1872
3037,1877
3038,1838
3039,1836
3040,1826
3041,1866
3042,1857
3043,1855
3044,1866
3045,1883
3046,1866
3047,1850
3048,1856
3049,1946
3050,1876
3051,1859
3052,1825
3053,1872
3054,1846
3055,1831
3056,1825
3057,1874
3058,1882
3059,1851
3060,1853
3061,1903
3062,1876
3063,1857
3064,1857
3065,1851
3066,1897
3067,1871
3068,1856
3069,1838
3070,1842
3071,1840
3072,1834
3073,1857
3074,1890
3075,1871
3076,1856
3077,1873
3078,1904
3079,1871
3080,1862
3081,1861
3082,1915
3083,1886
3084,1853
3085,1840
3086,1921
3087,1861
3088,1835
3089,1839
3090,1856
3091,1907
3092,1851
3093,1853
3094,1854
3095,1918
3096,1864
3097,1858
3098,1865
3099,1892
3100,1874
3101,1851
3102,1845
3103,1907
3104,1847
3105,1835
3106,1834
3107,1883
3108,1883
3109,1863
3110,1859
3111,1857
3112,1875
3113,1863
3114,1851
3115,1865
3116,1884
3117,1856
3118,1842
3119,1851
3120,1851
3121,1843
3122,1837
3123,1840
3124,1886
3125,1866
3126,1854
3127,1874
3128,1878
3129,1867
3130,1859
3131,1856
3132,1877
3133,1907
3134,1857
3135,1833
3136,1890
3137,1866
3138,1837
3139,1837
3140,1835
3141,1934
3142,1861
3143,1855
3144,1844
3145,1864
3146,1856
3147,1851
3148,1863
3149,1893
3150,1865
3151,1849
3152,1847
3153,1888
3154,1851
3155,1831
3156,1840
3157,1872
3158,1862
3159,1856
3160,1847
3161,1859
3162,1878
3163,1856
3164,1859
3165,1874
3166,1930
3167,1866
3168,1847
3169,1920
3170,1890
3171,1846
3172,1840
3173,1840
3174,1883
3175,1862
3176,1853
3177,1845
3178,1875
3179,1868
3180,1856
3181,1858
3182,1833
3183,1887
3184,1856
3185,1863
3186,1869
3187,1868
3188,1841
3189,1838
3190,1887
3191,1894
3192,1860
3193,1847
3194,1860
3195,1902
3196,1858
3197,1856
3198,1871
3199,1920
3200,1867
3201,1840
3202,1855
3203,1892
3204,1845
3205,1837
3206,1835
3207,1831
3208,1877
3209,1855
3210,1853
3211,1895
3212,1877
3213,1859
3214,1855
3215,1892
3216,1919
3217,1856
3218,1834
3219,1859
3220,1903
3221,1854
3222,1840
3223,1837
3224,1872
3225,1870
3226,1856
3227,1842
3228,1869
3229,1863
3230,1855
3231,1857
3232,1853
3233,1888
3234,1838
3235,1840
3236,1887
3237,1862
3238,1835
3239,1834
3240,1872
3241,1921
3242,1855
3243,1854
3244,1874
3245,1879
3246,1857
3247,1856
3248,1857
3249,1922
3250,1871
3251,1846
3252,1856
3253,1902
3254,1857
3255,1840
3256,1842
3257,1868
3258,1876
3259,1857
3260,1851
3261,1886
3262,1874
3263,1856
3264,1845
3265,1872
3266,1877
3267,1856
3268,1841
3269,1867
3270,1850
3271,1845
3272,1840
3273,1861
3274,1879
3275,1866
3276,1845
3277,1861
3278,1900
3279,1869
3280,1852
3281,1845
3282,1934
3283,1879
3284,1856
3285,1845
3286,1915
3287,1871
3288,1844
3289,1842
3290,1861
3291,1926
3292,1857
3293,1861
3294,1895
3295,1886
3296,1856
3297,1850
3298,1857
3299,1910
3300,1871
3301,1851
3302,1889
3303,1906
3304,1854
3305,1841
3306,1863
3307,1920
3308,1890
3309,1856
3310,1841
3311,1878
3312,1872
3313,1856
3314,1856
3315,1893
3316,1878
3317,1858
3318,1846
3319,1846
3320,1883
3321,1843
3322,1840
3323,1837
3324,1871
3325,1864
3326,1858
3327,1862
3328,1901
3329,1856
3330,1852
3331,1846
3332,1905
3333,1887
3334,1850
3335,1862
3336,1875
3337,1861
3338,1844
3339,1842
3340,1866
3341,1935
3342,1859
3343,901
3344,2255
3345,2128
3346,2275
3347,2367
3348,2384
3349,2380
3350,2081
3351,1792
3352,1623
3353,1474
3354,1383
3355,1535
3356,1627
3357,1624
3358,1668
3359,1657
3360,1680
3361,1778
3362,1761
3363,1749
3364,1761
3365,1810
3366,1850
3367,1869
3368,1872
3369,1899
3370,1889
3371,1887
3372,1877
3373,1889
3374,653
3375,2380
3376,2201
3377,2342
3378,2393
3379,2375
3380,2198
3381,1830
3382,1638
3383,1482
3384,1418
3385,1584
3386,1709
3387,1686
3388,1674
3389,1693
3390,1757
3391,1861
3392,1792
3393,1808
3394,1870
3395,1903
3396,1865
3397,1872
3398,1885
3399,1935
3400,1908
3401,1890
3402,1891
3403,1956
3404,1884
3405,970
3406,2358
3407,2213
3408,2361
3409,2406
3410,2391
3411,2217
3412,1803
3413,1531
3414,1383
3415,1518
3416,1664
3417,1680
3418,1662
3419,1677
3420,1699
3421,1725
3422,1731
3423,1744
3424,1809
3425,1861
3426,1871
3427,1873
3428,1918
3429,1884
3430,1859
3431,1825
3432,1942
3433,1904
3434,1874
3435,1872
3436,1409
3437,2416
3438,2147
3439,2384
3440,2543
3441,2559
3442,2243
3443,1823
3444,1491
3445,1375
3446,1423
3447,1579
3448,1626
3449,1687
3450,1664
3451,1650
3452,1739
3453,1724
3454,1773
3455,1791
3456,1807
3457,1869
3458,1892
3459,1876
3460,1874
3461,1897
3462,1913
3463,1891
3464,1893
3465,1907
3466,1937
3467,1894
3468,2323
3469,2162
3470,2319
3471,2483
3472,2480
3473,2283
3474,1879
3475,1535
3476,1392
3477,1481
3478,1685
3479,1671
3480,1647
3481,1619
3482,1658
3483,1696
3484,1719
3485,1766
3486,1801
3487,1841
3488,1840
3489,1855
3490,1872
3491,1910
3492,1893
3493,1890
3494,1892
3495,1909
3496,1895
3497,1887
3498,1886
3499,2301
3500,2162
3501,2205
3502,2425
3503,2416
3504,2144
3505,1828
3506,1642
3507,1516
3508,1654
3509,1713
3510,1679
3511,1707
3512,1667
3513,1641
3514,1677
3515,1739
3516,1840
3517,1811
3518,1811
3519,1921
3520,1887
3521,1869
3522,1867
3523,1857
3524,1949
3525,1897
3526,1875
3527,1889
3528,1936
3529,1894
3530,1902
3531,2157
3532,2067
3533,2287
3534,2256
3535,2087
3536,1968
3537,1798
3538,1646
3539,1701
3540,1758
3541,1839
3542,1726
3543,1665
3544,1728
3545,1691
3546,1751
3547,1789
3548,1793
3549,1875
3550,1859
3551,1852
3552,1881
3553,1879
3554,1872
3555,1862
3556,1842
3557,1829
3558,1904
3559,1870
3560,1871
3561,1489
3562,2252
3563,2017
3564,2208
3565,2225
3566,2063
3567,1929
3568,1811
3569,1729
3570,1793
3571,1765
3572,1732
3573,1731
3574,1648
3575,1643
3576,1689
3577,1709
3578,1806
3579,1819
3580,1838
3581,1860
3582,1881
3583,1882
3584,1865
3585,1863
3586,1891
3587,1887
3588,1862
3589,1865
3590,1887
3591,1885
3592,1043
3593,2224
3594,1978
3595,2160
3596,2115
3597,1968
3598,1966
3599,1885
3600,1797
3601,1795
3602,1779
3603,1782
3604,1714
3605,1616
3606,1632
3607,1723
3608,1792
3609,1801
3610,1808
3611,1851
3612,1871
3613,1862
3614,1872
3615,1883
3616,1951
3617,1872
3618,1871
3619,1886
3620,1883
3621,1851
3622,1839
3623,605
3624,2347
3625,1990
3626,2071
3627,2129
3628,1949
3629,1973
3630,1906
3631,1813
3632,1821
3633,1838
3634,1778
3635,1706
3636,1723
3637,1655
3638,1697
3639,1750
3640,1823
3641,1841
3642,1835
3643,1849
3644,1923
3645,1893
3646,1871
3647,1866
3648,1891
3649,1907
3650,1873
3651,1857
3652,1872
3653,1915
3654,1011
3655,2333
3656,1965
3657,2086
3658,2094
3659,1872
3660,2006
3661,1931
3662,1871
3663,1837
3664,1818
3665,1809
3666,1767
3667,1641
3668,1634
3669,1731
3670,1783
3671,1777
3672,1797
3673,1822
3674,1853
3675,1871
3676,1866
3677,1854
3678,1919
3679,1872
3680,1866
3681,1873
3682,1914
3683,1901
3684,1856
3685,1756
3686,2482
3687,2044
3688,2017
3689,2022
3690,1825
3691,2019
3692,1968
3693,1855
3694,1859
3695,1849
3696,1776
3697,1712
3698,1607
3699,1699
3700,1723
3701,1762
3702,1827
3703,1835
3704,1827
3705,1840
3706,1872
3707,1885
3708,1890
3709,1866
3710,1849
3711,1904
3712,1887
3713,1870
3714,1856
3715,1859
3716,1904
3717,2303
3718,2043
3719,2000
3720,2083
3721,1836
3722,1985
3723,2007
3724,1923
3725,1871
3726,1824
3727,1800
3728,1750
3729,1647
3730,1632
3731,1713
3732,1776
3733,1826
3734,1809
3735,1818
3736,1854
3737,1871
3738,1856
3739,1863
3740,1920
3741,1909
3742,1874
3743,1872
3744,1872
3745,1874
3746,1854
3747,1841
3748,2216
3749,2138
3750,2006
3751,2034
3752,1863
3753,1977
3754,1991
3755,1882
3756,1857
3757,1862
3758,1817
3759,1714
3760,1639
3761,1676
3762,1727
3763,1761
3764,1790
3765,1850
3766,1843
3767,1847
3768,1855
3769,1897
3770,1885
3771,1863
3772,1853
3773,1857
3774,1918
3775,1868
3776,1871
3777,1904
3778,1918
3779,1890
3780,2149
3781,2011
3782,2095
3783,1882
3784,1936
3785,2022
3786,1957
3787,1871
3788,1829
3789,1786
3790,1732
3791,1686
3792,1630
3793,1685
3794,1795
3795,1821
3796,1811
3797,1827
3798,1865
3799,1877
3800,1874
3801,1863
3802,1898
3803,1894
3804,1856
3805,1841
3806,1873
3807,1869
3808,1884
3809,1854
3810,1648
3811,2256
3812,2037
3813,2065
3814,1863
3815,1983
3816,2045
3817,1878
3818,1840
3819,1935
3820,1840
3821,1719
3822,1635
3823,1666
3824,1738
3825,1776
3826,1789
3827,1817
3828,1866
3829,1850
3830,1854
3831,1866
3832,1904
3833,1897
3834,1859
3835,1862
3836,1859
3837,1873
3838,1851
3839,1847
3840,1830
3841,775
3842,2273
3843,1991
3844,2029
3845,1920
3846,1895
3847,2091
3848,1936
3849,1901
3850,1867
3851,1807
3852,1746
3853,1712
3854,1633
3855,1674
3856,1742
3857,1785
3858,1833
3859,1833
3860,1846
3861,1945
3862,1901
3863,1871
3864,1836
3865,1866
3866,1871
3867,1861
3868,1859
3869,1866
3870,1872
3871,1856
3872,656
3873,2349
3874,2072
3875,2063
3876,1930
3877,1856
3878,2130
3879,1932
3880,1872
3881,1868
3882,1847
3883,1783
3884,1661
3885,1638
3886,1689
3887,1744
3888,1770
3889,1793
3890,1856
3891,1919
3892,1869
3893,1865
3894,1895
3895,1892
3896,1865
3897,1866
3898,1872
3899,1907
3900,1878
3901,1855
3902,1906
3903,1140
3904,2375
3905,2000
3906,2042
3907,1969
3908,1859
3909,2055
3910,1929
3911,1975
3912,1885
3913,1829
3914,1760
3915,1645
3916,1670
3917,1648
3918,1727
3919,1763
3920,1824
3921,1808
3922,1822
3923,1853
3924,1919
3925,1877
3926,1841
3927,1906
3928,1919
3929,1869
3930,1861
3931,1856
3932,1897
3933,1891
3934,1839
3935,2342
3936,2084
3937,2058
3938,1975
3939,1811
3940,2060
3941,1955
3942,1873
3943,1855
3944,1873
3945,1805
3946,1681
3947,1628
3948,1658
3949,1857
3950,1785
3951,1795
3952,1813
3953,1863
3954,1843
3955,1847
3956,1854
3957,1878
3958,1883
3959,1859
3960,1875
3961,1899
3962,1883
3963,1871
3964,1869
3965,1904
3966,1904
3967,1862
3968,1850
3969,1867
3970,1876
3971,1847
3972,1840
3973,1835
3974,1853
3975,1866
3976,1853
3977,1901
3978,1897
3979,1856
3980,1851
3981,1857
3982,1893
3983,1875
3984,1840
3985,1840
3986,1905
3987,1853
3988,1828
3989,1842
3990,1907
3991,1886
3992,1857
3993,1844
3994,1872
3995,1879
3996,1858
3997,1849
3998,1877
3999,1904
4000,1858
4001,1841
4002,1873
4003,1851
4004,1842
4005,1838
4006,1840
4007,1861
4008,1873
4009,1847
4010,1858
4011,1903
4012,1865
4013,1854
4014,1846
4015,1855
4016,1893
4017,1846
4018,1840
4019,1897
4020,1867
4021,1839
4022,1840
4023,1871
4024,1927
4025,1859
4026,1854
4027,1903
4028,1905
4029,1860
4030,1855
4031,1859
4032,1911
4033,1872
4034,1843
4035,1858
4036,1872
4037,1856
4038,1847
4039,1839
4040,1872
4041,1889
4042,1851
4043,1854
4044,1851
4045,1876
4046,1845
4047,1852
4048,1856
4049,1864
4050,1856
4051,1847
4052,1851
4053,1896
4054,1853
4055,1841
4056,1847
4057,1867
4058,1881
4059,1857
4060,1897
4061,1904
4062,1872
4063,1855
4064,1855
4065,1904
4066,1904
4067,1853
4068,1838
4069,1901
4070,1877
4071,1842
4072,1842
4073,1863
4074,1911
4075,1858
4076,1849
4077,1858
4078,1872
4079,1863
4080,1857
4081,1901
4082,1884
4083,1881
4084,1853
4085,1879
4086,1902
4087,1862
4088,1841
4089,1840
4090,1860
4091,1904
4092,1861
4093,1853
4094,1857
4095,1881
4096,1856
4097,1850
4098,1838
4099,1889
4100,1857
4101,1845
4102,1904
4103,1873
4104,1831
4105,1829
4106,1826
4107,1851
4108,1865
4109,1847
4110,1856
4111,1869
4112,1862
4113,1843
4114,1849
4115,1882
4116,1880
4117,1845
4118,1840
4119,1882
4120,1873
4121,1835
4122,1834
4123,1845
4124,1872
4125,1854
4126,1844
4127,1835
4128,1872
4129,1855
4130,1851
4131,1861
4132,1853
4133,1867
4134,1839
4135,1802
4136,1857
4137,1840
4138,1827
4139,1832
4140,1896
4141,1877
4142,1852
4143,1840
4144,1866
4145,1872
4146,1847
4147,1850
4148,1865
4149,1872
4150,1858
4151,1839
4152,1922
4153,1871
4154,1845
4155,1831
4156,1855
4157,1909
4158,1862
4159,1851
4160,1863
4161,1891
4162,1866
4163,1851
4164,1842
4165,1851
4166,1883
4167,1842
4168,1845
4169,1904
4170,1870
4171,1842
4172,1840
4173,1840
4174,1950
4175,1858
4176,1852
4177,1846
4178,1895
4179,1863
4180,1855
4181,1842
4182,1892
4183,1871
4184,1844
4185,1844
4186,1861
4187,1852
4188,1839
4189,1870
4190,1808
4191,1891
4192,1854
4193,1841
4194,1843
4195,1867
4196,1847
4197,1843
4198,1863
4199,1897
4200,1857
4201,1851
4202,1874
4203,1872
4204,1843
4205,1840
4206,1887
4207,1851
4208,1867
4209,1851
4210,1875
4211,1866
4212,1862
4213,1853
4214,1830
4215,1905
4216,1882
4217,1851
4218,1831
4219,1874
4220,1869
4221,1837
4222,1840
4223,1840
4224,1919
4225,1855
4226,1847
4227,1855
4228,1850
4229,1843
4230,1847
4231,1862
4232,1934
4233,1867
4234,1843
4235,1904
4236,1885
4237,1855
4238,1834
4239,1850
4240,1864
4241,1879
4242,1857
4243,1854
4244,1868
4245,1874
4246,1855
4247,1852
4248,1872
4249,1924
4250,1863
4251,1850
4252,1903
4253,1852
4254,1844
4255,1839
4256,1837
4257,1943
4258,1867
4259,1849
4260,1869
4261,1883
4262,1867
4263,1856
4264,1854
4265,1872
4266,1881
4267,1853
4268,1835
4269,1906
4270,1866
4271,1841
4272,1840
4273,1882
4274,1881
4275,1857
4276,1855
4277,1900
4278,1872
4279,1858
4280,1855
4281,1849
4282,1867
4283,1871
4284,1840
4285,1823
4286,1861
4287,1849
4288,1833
4289,1827
4290,1894
4291,1886
4292,1855
4293,1855
4294,1904
4295,1872
4296,1855
4297,1853
4298,1871
4299,1904
4300,1856
4301,1846
4302,1930
4303,1869
4304,1842
4305,1838
4306,1840
4307,1927
4308,1867
4309,1849
4310,1840
4311,1897
4312,1862
4313,1853
4314,1872
4315,1881
4316,1878
4317,1851
4318,1839
4319,1872
4320,1861
4321,1840
4322,1839
4323,1827
4324,1885
4325,1859
4326,1850
4327,1925
4328,1887
4329,1858
4330,1851
4331,1872
4332,1874
4333,1867
4334,1844
4335,1862
4336,1837
4337,1850
4338,1840
4339,1826
4340,1882
4341,1876
4342,1843
4343,1853
4344,1869
4345,1869
4346,1850
4347,1845
4348,1907
4349,1897
4350,1855
4351,1841
4352,1870
4353,1898
4354,1843
4355,1840
4356,1840
4357,1887
4358,1862
4359,1845
4360,1857
4361,1901
4362,1863
4363,1855
4364,1863
4365,1826
4366,1874
4367,1840
4368,1834
4369,1863
4370,1862
4371,1837
4372,1839
4373,1902
4374,1887
4375,1847
4376,1839
4377,1861
4378,1886
4379,1855
4380,1853
4381,1862
4382,1901
4383,1867
4384,1841
4385,1845
4386,1910
4387,1849
4388,1831
4389,1840
4390,1861
4391,1876
4392,1856
4393,1846
4394,1895
4395,1870
4396,1854
4397,1846
4398,1850
4399,1887
4400,1853
4401,1836
4402,1903
4403,1891
4404,1840
4405,1839
4406,1856
4407,1883
4408,1861
4409,1856
4410,1883
4411,1920
4412,1860
4413,1856
4414,1846
4415,1934
4416,1877
4417,1850
4418,1837
4419,1920
4420,1866
4421,1840
4422,1837
4423,1904
4424,1919
4425,1857
4426,1855
4427,1919
4428,1895
4429,1858
4430,1855
4431,1847
4432,1909
4433,1863
4434,1840
4435,1865
4436,1897
4437,1846
4438,1834
4439,1840
4440,1879
4441,1881
4442,1859
4443,1855
4444,1847
4445,1865
4446,1855
4447,1852
4448,1891
4449,1883
4450,1857
4451,1848
4452,1847
4453,1879
4454,1844
4455,1840
4456,1845
4457,1869
4458,1862
4459,1847
4460,1867
4461,1901
4462,1869
4463,1855
4464,1827
4465,1851
4466,1872
4467,1840
4468,1843
4469,1866
4470,1867
4471,1839
4472,1840
4473,1858
4474,1859
4475,1853
4476,1847
4477,1898
4478,1892
4479,1859
4480,1857
4481,1874
4482,1905
4483,1862
4484,1847
4485,1872
4486,1907
4487,1849
4488,1840
4489,1827
4490,1840
4491,1874
4492,1857
4493,1845
4494,1896
4495,1862
4496,1847
4497,1850
4498,1869
4499,1920
4500,1855
4501,1855
4502,1841
4503,1872
4504,1839
4505,1839
4506,1824
4507,1853
4508,1865
4509,1849
4510,1867
4511,1872
4512,1869
4513,1861
4514,1854
4515,1904
4516,1875
4517,1843
4518,1827
4519,1886
4520,1856
4521,1839
4522,1836
4523,1831
4524,1881
4525,1850
4526,1840
4527,1888
4528,1904
4529,1863
4530,1857
4531,1869
4532,1904
4533,1865
4534,1846
4535,1810
4536,1890
4537,1846
4538,1835
4539,1850
4540,1829
4541,1869
4542,1854
4543,1841
4544,1853
4545,1874
4546,1863
4547,1855
4548,1854
4549,1893
4550,1856
4551,1856
4552,1906
4553,1867
4554,1833
4555,1829
4556,1840
4557,1840
4558,1852
4559,1841
4560,1871
4561,1874
4562,1870
4563,1861
4564,1840
4565,1903
4566,1882
4567,1856
4568,1852
4569,1859
4570,1856
4571,1834
4572,1837
4573,1872
4574,1917
4575,1865
4576,1853
4577,1920
4578,1899
4579,1859
4580,1856
4581,1872
4582,1936
4583,1870
4584,1837
4585,1835
4586,1855
4587,1834
4588,1829
4589,1826
4590,1909
4591,1872
4592,1855
4593,1869
4594,1893
4595,1872
4596,1863
4597,1865
4598,1837
4599,1865
4600,1862
4601,1850
4602,1831
4603,1911
4604,1840
4605,1833
4606,1834
4607,1923
4608,1856
4609,1837
4610,1841
4611,1917
4612,1867
4613,1860
4614,1857
4615,1872
4616,1862
4617,1840
4618,1826
4619,1874
4620,1851
4621,1833
4622,1833
4623,1808
4624,1874
4625,1850
4626,1840
4627,1910
4628,1872
4629,1860
4630,1862
4631,1882
4632,1890
4633,1867
4634,1843
4635,1840
4636,1893
4637,1840
4638,1837
4639,1838
4640,1877
4641,1868
4642,1856
4643,1870
4644,1890
4645,1867
4646,1851
4647,1852
4648,1859
4649,1890
4650,1853
4651,1840
4652,1908
4653,1856
4654,1833
4655,1831
4656,1820
4657,1886
4658,1863
4659,1846
4660,1880
4661,1899
4662,1866
4663,1858
4664,1883
4665,1872
4666,1881
4667,1850
4668,1837
4669,1859
4670,1857
4671,1835
4672,1840
4673,1854
4674,1879
4675,1856
4676,1845
4677,1904
4678,1876
4679,1851
4680,1856
4681,1867
4682,1910
4683,1867
4684,1841
4685,1805
4686,1861
4687,1840
4688,1835
4689,1821
4690,1933
4691,1871
4692,1853
4693,1872
4694,1911
4695,1872
4696,1858
4697,1858
4698,1872
4699,1901
4700,1857
4701,1861
4702,1870
4703,1853
4704,1823
4705,1823
4706,1819
4707,1872
4708,1856
4709,1847
4710,1867
4711,1895
4712,1865
4713,1855
4714,1851
4715,1873
4716,1873
4717,1851
4718,1838
4719,1888
4720,1854
4721,1837
4722,1835
4723,1873
4724,1911
4725,1853
4726,1856
4727,1924
4728,1890
4729,1861
4730,1859
4731,1859
4732,1946
4733,1867
4734,1840
4735,1855
4736,1872
4737,1837
4738,1824
4739,1811
4740,1883
4741,1870
4742,1851
4743,1873
4744,1903
4745,1872
4746,1858
4747,1858
4748,1875
4749,1914
4750,1863
4751,1845
4752,1930
4753,1872
4754,1840
4755,1835
4756,1839
4757,1875
4758,1862
4759,1857
4760,1879
4761,1879
4762,1866
4763,1866
4764,1872
4765,1925
4766,1872
4767,1851
4768,1834
4769,1908
4770,1854
4771,1838
4772,1839
4773,1851
4774,1882
4775,1855
4776,1865
4777,1873
4778,1881
4779,1861
4780,1859
4781,1859
4782,1893
4783,1863
4784,1856
4785,1849
4786,1890
4787,1840
4788,1835
4789,1827
4790,1883
4791,1874
4792,1858
4793,1838
4794,1879
4795,1869
4796,1854
4797,1858
4798,1904
4799,1904
4800,1853
4801,1859
4802,1856
4803,1873
4804,1835
4805,1836
4806,1840
4807,1902
4808,1861
4809,1848
4810,1894
4811,1888
4812,1861
4813,1861
4814,1870
4815,1846
4816,1877
4817,1854
4818,1858
4819,1878
4820,1852
4821,1833
4822,1834
4823,1842
4824,1855
4825,1850
4826,1851
4827,1853
4828,1899
4829,1851
4830,1849
4831,1877
4832,1878
4833,1867
4834,1854
4835,1847
4836,1866
4837,1842
4838,1836
4839,1829
4840,1869
4841,1868
4842,1851
4843,1840
4844,1886
4845,1872
4846,1857
4847,1860
4848,1843
4849,1927
4850,1855
4851,1845
4852,1844
4853,1872
4854,1831
4855,1835
4856,1830
4857,1923
4858,1851
4859,1847
4860,1898
4861,1893
4862,1866
4863,1861
4864,1838
4865,1883
4866,1883
4867,1855
4868,1870
4869,1851
4870,1850
4871,1837
4872,1835
4873,1862
4874,1875
4875,1855
4876,1853
4877,1856
4878,1881
4879,1862
4880,1859
4881,1856
4882,1891
4883,1870
4884,1829
4885,1889
4886,1866
4887,1840
4888,1828
4889,1830
4890,1826
4891,1872
4892,1859
4893,1878
4894,1849
4895,1871
4896,1857
4897,1856
4898,1885
4899,1900
4900,1855
4901,1851
4902,1904
4903,1862
4904,1840
4905,1838
4906,1840
4907,1875
4908,1858
4909,1860
4910,1885
4911,1872
4912,1867
4913,1854
4914,1872
4915,1889
4916,1871
4917,1843
4918,1887
4919,1885
4920,1841
4921,1840
4922,1840
4923,1837
4924,1877
4925,1855
4926,1840
4927,1877
4928,1883
4929,1860
4930,1855
4931,1869
4932,1923
4933,1859
4934,1847
4935,1866
4936,1872
4937,1847
4938,1840
4939,1872
4940,1894
4941,1867
4942,1857
4943,1853
4944,1885
4945,1866
4946,1857
4947,1853
4948,1871
4949,1890
4950,1854
4951,1833
4952,1866
4953,1869
4954,1839
4955,1838
4956,1819
4957,1905
4958,1857
4959,1856
4960,1866
4961,822
4962,2343
4963,2074
4964,2194
4965,2346
4966,2358
4967,2326
4968,2080
4969,1850
4970,1686
4971,1463
4972,1444
4973,1614
4974,1685
4975,1680
4976,1687
4977,1655
4978,1743
4979,1743
4980,1779
4981,1840
4982,1814
4983,1820
4984,1831
4985,1831
4986,1893
4987,1849
4988,1854
4989,1869
4990,1911
4991,1896
4992,1515
4993,2374
4994,2147
4995,2239
4996,2335
4997,2369
4998,2336
4999,1957
5000,1680
5001,1488
5002,1472
5003,1635
5004,1681
5005,1677
5006,1675
5007,1693
5008,1714
5009,1741
5010,1764
5011,1794
5012,1798
5013,1808
5014,1825
5015,1920
5016,1873
5017,1869
5018,1867
5019,1901
5020,1887
5021,1866
5022,1871
5023,1863
5024,2426
5025,2143
5026,2234
5027,2359
5028,2401
5029,2221
5030,1851
5031,1627
5032,1474
5033,1535
5034,1647
5035,1675
5036,1703
5037,1678
5038,1667
5039,1675
5040,1739
5041,1771
5042,1778
5043,1813
5044,1877
5045,1861
5046,1867
5047,1875
5048,1877
5049,1907
5050,1875
5051,1874
5052,1893
5053,1897
5054,1867
5055,2241
5056,2133
5057,2275
5058,2505
5059,2558
5060,2346
5061,2031
5062,1609
5063,1396
5064,1371
5065,1561
5066,1652
5067,1621
5068,1623
5069,1674
5070,1660
5071,1680
5072,1755
5073,1767
5074,1845
5075,1840
5076,1862
5077,1874
5078,1905
5079,1893
5080,1899
5081,1867
5082,1911
5083,1899
5084,1884
5085,1894
5086,2153
5087,2187
5088,2188
5089,2394
5090,2506
5091,2256
5092,1933
5093,1646
5094,1499
5095,1559
5096,1680
5097,1703
5098,1658
5099,1691
5100,1649
5101,1651
5102,1731
5103,1777
5104,1786
5105,1808
5106,1850
5107,1913
5108,1877
5109,1887
5110,1895
5111,1902
5112,1892
5113,1891
5114,1894
5115,1942
5116,1908
5117,1613
5118,2205
5119,2102
5120,2290
5121,2333
5122,2166
5123,1972
5124,1793
5125,1616
5126,1648
5127,1755
5128,1757
5129,1689
5130,1664
5131,1693
5132,1690
5133,1729
5134,1764
5135,1791
5136,1823
5137,1836
5138,1846
5139,1874
5140,1904
5141,1903
5142,1891
5143,1845
5144,1934
5145,1895
5146,1889
5147,1861
5148,1004
5149,2339
5150,2038
5151,2224
5152,2270
5153,2087
5154,1933
5155,1797
5156,1680
5157,1760
5158,1773
5159,1776
5160,1755
5161,1737
5162,1646
5163,1663
5164,1733
5165,1827
5166,1825
5167,1813
5168,1861
5169,1882
5170,1865
5171,1853
5172,1840
5173,1877
5174,1906
5175,1871
5176,1879
5177,1875
5178,1900
5179,604
5180,2301
5181,2018
5182,2210
5183,2194
5184,1997
5185,1969
5186,1893
5187,1739
5188,1756
5189,1783
5190,1839
5191,1776
5192,1687
5193,1626
5194,1683
5195,1742
5196,1775
5197,1792
5198,1810
5199,1870
5200,1847
5201,1850
5202,1904
5203,1888
5204,1858
5205,1854
5206,1872
5207,1897
5208,1882
5209,1869
5210,932
5211,2425
5212,2000
5213,2096
5214,2146
5215,1995
5216,1967
5217,1873
5218,1744
5219,1781
5220,1795
5221,1763
5222,1776
5223,1680
5224,1671
5225,1674
5226,1759
5227,1840
5228,1829
5229,1827
5230,1842
5231,1918
5232,1935
5233,1872
5234,1862
5235,1888
5236,1906
5237,1863
5238,1854
5239,1876
5240,1901
5241,1306
5242,2352
5243,2032
5244,2083
5245,2141
5246,1915
5247,1943
5248,1985
5249,1870
5250,1827
5251,1809
5252,1836
5253,1760
5254,1654
5255,1619
5256,1712
5257,1766
5258,1785
5259,1808
5260,1855
5261,1856
5262,1863
5263,1865
5264,1874
5265,1907
5266,1885
5267,1870
5268,1826
5269,1851
5270,1863
5271,1855
5272,1842
5273,2368
5274,2098
5275,2030
5276,2098
5277,1923
5278,1978
5279,1963
5280,1842
5281,1854
5282,1862
5283,1797
5284,1742
5285,1697
5286,1655
5287,1665
5288,1718
5289,1746
5290,1865
5291,1836
5292,1840
5293,1879
5294,1886
5295,1872
5296,1869
5297,1841
5298,1904
5299,1901
5300,1863
5301,1872
5302,1913
5303,1879
5304,2206
5305,2074
5306,2020
5307,2151
5308,1885
5309,1939
5310,2021
5311,1915
5312,1869
5313,1847
5314,1808
5315,1762
5316,1679
5317,1615
5318,1631
5319,1769
5320,1786
5321,1786
5322,1826
5323,1866
5324,1883
5325,1856
5326,1868
5327,1939
5328,1890
5329,1872
5330,1866
5331,1860
5332,1895
5333,1869
5334,1846
5335,2047
5336,2192
5337,1985
5338,2070
5339,1844
5340,1903
5341,1983
5342,1889
5343,1889
5344,1903
5345,1818
5346,1776
5347,1699
5348,1691
5349,1709
5350,1732
5351,1773
5352,1872
5353,1840
5354,1830
5355,1841
5356,1882
5357,1890
5358,1878
5359,1878
5360,1911
5361,1911
5362,1877
5363,1872
5364,1889
5365,1923
5366,1519
5367,2193
5368,2006
5369,2182
5370,1915
5371,1891
5372,1991
5373,1920
5374,1893
5375,1856
5376,1803
5377,1775
5378,1719
5379,1639
5380,1670
5381,1775
5382,1806
5383,1806
5384,1808
5385,1877
5386,1884
5387,1855
5388,1859
5389,1891
5390,1873
5391,1883
5392,1872
5393,1853
5394,1926
5395,1871
5396,1863
5397,899
5398,2306
5399,2024
5400,2109
5401,1940
5402,1874
5403,1984
5404,1885
5405,1850
5406,1808
5407,1858
5408,1773
5409,1706
5410,1664
5411,1722
5412,1733
5413,1777
5414,1793
5415,1904
5416,1853
5417,1842
5418,1861
5419,1862
5420,1863
5421,1857
5422,1868
5423,1936
5424,1890
5425,1858
5426,1861
5427,1928
5428,629
5429,2299
5430,1990
5431,2081
5432,2041
5433,1852
5434,2010
5435,2003
5436,1886
5437,1847
5438,1808
5439,1780
5440,1770
5441,1659
5442,1652
5443,1733
5444,1815
5445,1808
5446,1818
5447,1851
5448,1897
5449,1886
5450,1862
5451,1847
5452,1916
5453,1883
5454,1847
5455,1850
5456,1826
5457,1887
5458,1869
5459,994
5460,2426
5461,2029
5462,2071
5463,1989
5464,1815
5465,2030
5466,1955
5467,1869
5468,1875
5469,1873
5470,1775
5471,1707
5472,1650
5473,1646
5474,1743
5475,1776
5476,1792
5477,1805
5478,1854
5479,1854
5480,1862
5481,1920
5482,1923
5483,1871
5484,1863
5485,1873
5486,1874
5487,1856
5488,1845
5489,1897
5490,1734
5491,2405
5492,2024
5493,2023
5494,2085
5495,1856
5496,1997
5497,1947
5498,1963
5499,1877
5500,1820
5501,1761
5502,1840
5503,1674
5504,1631
5505,1690
5506,1777
5507,1825
5508,1814
5509,1842
5510,1878
5511,1867
5512,1856
5513,1868
5514,1872
5515,1887
5516,1876
5517,1854
5518,1866
5519,1915
5520,1857
5521,1851
5522,2335
5523,2071
5524,2074
5525,2035
5526,1822
5527,2083
5528,1956
5529,1867
5530,1857
5531,1870
5532,1798
5533,1737
5534,1649
5535,1655
5536,1741
5537,1749
5538,1778
5539,1786
5540,1876
5541,1861
5542,1856
5543,1837
5544,1926
5545,1870
5546,1859
5547,1883
5548,1855
5549,1891
5550,1856
5551,1860
5552,1929
5553,2238
5554,2097
5555,2021
5556,2089
5557,1871
5558,1970
5559,1985
5560,1915
5561,1918
5562,1845
5563,1794
5564,1726
5565,1711
5566,1646
5567,1682
5568,1766
5569,1845
5570,1806
5571,1811
5572,1817
5573,1877
5574,1883
5575,1857
5576,1865
5577,1910
5578,1883
5579,1872
5580,1872
5581,1907
5582,1904
5583,1871
5584,1850
5585,1887
5586,1872
5587,1853
5588,1843
5589,1876
5590,1922
5591,1863
5592,1853
5593,1873
5594,1873
5595,1859
5596,1854
5597,1850
5598,1907
5599,1872
5600,1837
5601,1823
5602,1905
5603,1862
5604,1834
5605,1836
5606,1858
5607,1867
5608,1841
5609,1842
5610,1861
5611,1904
5612,1856
5613,1851
5614,1837
5615,1919
5616,1862
5617,1843
5618,1902
5619,1885
5620,1851
5621,1839
5622,1820
5623,1898
5624,1872
5625,1851
5626,1857
5627,1858
5628,1872
5629,1856
5630,1856
5631,1869
5632,1862
5633,1855
5634,1853
5635,1920
5636,1875
5637,1840
5638,1834
5639,1827
5640,1875
5641,1866
5642,1846
5643,1876
5644,1904
5645,1862
5646,1855
5647,1853
5648,1874
5649,1877
5650,1849
5651,1833
5652,1917
5653,1861
5654,1841
5655,1842
5656,1863
5657,1900
5658,1857
5659,1857
5660,1904
5661,1883
5662,1857
5663,1855
5664,1872
5665,1889
5666,1857
5667,1840
5668,1891
5669,1856
5670,1842
5671,1840
5672,1850
5673,1877
5674,1872
5675,1850
5676,1872
5677,1892
5678,1870
5679,1855
5680,1856
5681,1888
5682,1891
5683,1853
5684,1859
5685,1872
5686,1883
5687,1840
5688,1839
5689,1858
5690,1909
5691,1867
5692,1851
5693,1868
5694,1853
5695,1857
5696,1850
5697,1859
5698,1919
5699,1883
5700,1856
5701,1865
5702,1863
5703,1861
5704,1843
5705,1843
5706,1870
5707,1886
5708,1862
5709,1867
5710,1887
5711,1886
5712,1866
5713,1867
5714,1856
5715,1914
5716,1872
5717,1859
5718,1859
5719,1888
5720,1855
5721,1845
5722,1856
5723,1863
5724,1889
5725,1869
5726,1888
5727,1904
5728,1887
5729,1867
5730,1863
5731,1875
5732,1904
5733,1865
5734,1846
5735,1861
5736,1874
5737,1843
5738,1839
5739,1862
5740,1868
5741,1856
5742,1842
5743,1919
5744,1880
5745,1859
5746,1855
5747,1875
5748,1889
5749,1875
5750,1853
5751,1839
5752,1881
5753,1856
5754,1833
5755,1835
5756,1901
5757,1892
5758,1849
5759,1843
5760,1929
5761,1868
5762,1855
5763,1846
5764,1848
5765,1905
5766,1855
5767,1840
5768,1854
5769,1893
5770,1845
5771,1840
5772,1887
5773,1863
5774,1869
5775,1853
5776,1808
5777,1890
5778,1865
5779,1854
5780,1847
5781,1907
5782,1872
5783,1844
5784,1840
5785,1854
5786,1856
5787,1830
5788,1828
5789,1840
5790,1889
5791,1855
5792,1841
5793,1853
5794,1861
5795,1858
5796,1847
5797,1830
5798,1918
5799,1866
5800,1849
5801,1835
5802,1879
5803,1855
5804,1840
5805,1838
5806,1892
5807,1898
5808,1854
5809,1841
5810,1898
5811,1875
5812,1853
5813,1849
5814,1843
5815,1875
5816,1850
5817,1845
5818,1905
5819,1906
5820,1840
5821,1837
5822,1850
5823,1824
5824,1874
5825,1860
5826,1856
5827,1907
5828,1866
5829,1857
5830,1859
5831,1852
5832,1893
5833,1858
5834,1850
5835,1904
5836,1868
5837,1843
5838,1841
5839,1855
5840,1947
5841,1861
5842,1856
5843,1868
5844,1876
5845,1856
5846,1846
5847,1837
5848,1879
5849,1867
5850,1855
5851,1843
5852,1847
5853,1857
5854,1840
5855,1841
5856,1872
5857,1887
5858,1855
5859,1847
5860,1851
5861,1877
5862,1856
5863,1857
5864,1865
5865,1856
5866,1859
5867,1842
5868,1863
5869,1889
5870,1846
5871,1838
5872,1855
5873,1872
5874,1872
5875,1840
5876,1812
5877,1892
5878,1855
5879,1848
5880,1856
5881,1880
5882,1893
5883,1852
5884,1857
5885,1887
5886,1872
5887,1841
5888,1841
5889,1856
5890,1891
5891,1857
5892,1851
5893,1889
5894,1890
5895,1861
5896,1855
5897,1867
5898,1879
5899,1871
5900,1861
5901,1868
5902,1865
5903,1857
5904,1840
5905,1835
5906,1873
5907,1877
5908,1849
5909,1872
5910,1925
5911,1875
5912,1858
5913,1854
5914,1858
5915,1921
5916,1856
5917,1849
5918,1854
5919,1917
5920,1855
5921,1840
5922,1840
5923,1850
5924,1871
5925,1853
5926,1862
5927,1877
5928,1870
5929,1851
5930,1854
5931,1875
5932,1883
5933,1854
5934,1840
5935,1872
5936,1863
5937,1839
5938,1833
5939,1863
5940,1897
5941,1858
5942,1852
5943,1890
5944,1878
5945,1858
5946,1855
5947,1862
5948,1864
5949,1872
5950,1846
5951,1893
5952,1883
5953,1853
5954,1835
5955,1840
5956,1868
5957,1886
5958,1854
5959,1849
5960,1855
5961,1877
5962,1853
5963,1857
5964,1861
5965,1918
5966,1863
5967,1842
5968,1847
5969,1878
5970,1843
5971,1831
5972,1843
5973,1870
5974,1869
5975,1853
5976,1865
5977,1843
5978,1867
5979,1862
5980,1861
5981,1856
5982,1894
5983,1857
5984,1853
5985,1873
5986,1859
5987,1830
5988,1827
5989,1821
5990,1879
5991,1854
5992,1853
5993,1875
5994,1878
5995,1858
5996,1847
5997,1870
5998,1938
5999,1876
6000,1851
6001,1879
6002,1924
6003,1843
6004,1830
6005,1834
6006,1814
6007,1876
6008,1846
6009,1861
6010,1873
6011,1877
6012,1859
6013,1866
6014,1866
6015,1887
6016,1869
6017,1846
6018,1845
6019,1861
6020,1839
6021,1830
6022,1840
6023,1854
6024,1866
6025,1847
6026,1883
6027,1872
6028,1864
6029,1858
6030,1856
6031,1894
6032,1888
6033,1855
6034,1851
6035,1860
6036,1861
6037,1835
6038,1835
6039,1838
6040,1905
6041,1858
6042,1847
6043,1899
6044,1855
6045,1866
6046,1860
6047,1862
6048,1915
6049,1873
6050,1853
6051,1903
6052,1904
6053,1852
6054,1831
6055,1826
6056,1832
6057,1872
6058,1851
6059,1861
6060,1911
6061,1887
6062,1861
6063,1865
6064,1911
6065,1902
6066,1867
6067,1858
6068,1871
6069,1901
6070,1840
6071,1838
6072,1832
6073,1840
6074,1870
6075,1862
6076,1819
6077,1844
6078,1869
6079,1861
6080,1865
6081,1935
6082,1903
6083,1862
6084,1851
6085,1917
6086,1855
6087,1830
6088,1823
6089,1826
6090,1899
6091,1858
6092,1855
6093,1858
6094,1841
6095,1871
6096,1863
6097,1863
6098,1893
6099,1874
6100,1851
6101,1871
6102,1921
6103,1846
6104,1828
6105,1839
6106,1842
6107,1875
6108,1855
6109,1844
6110,1889
6111,1873
6112,1860
6113,1859
6114,1863
6115,1898
6116,1855
6117,1841
6118,1904
6119,1872
6120,1834
6121,1831
6122,1835
6123,1838
6124,1863
6125,1852
6126,1810
6127,1873
6128,1872
6129,1859
6130,1854
6131,1858
6132,1899
6133,1856
6134,1846
6135,1859
6136,1861
6137,1838
6138,1835
6139,1840
6140,1897
6141,1850
6142,1850
6143,1878
6144,1915
6145,1857
6146,1858
6147,1872
6148,1872
6149,1873
6150,1855
6151,1830
6152,1858
6153,1842
6154,1835
6155,1837
6156,1853
6157,1874
6158,1849
6159,1850
6160,1905
6161,1877
6162,1868
6163,1861
6164,1907
6165,1885
6166,1862
6167,1847
6168,1834
6169,1896
6170,1840
6171,1831
6172,1839
6173,1894
6174,1862
6175,1846
6176,1807
6177,1877
6178,1869
6179,1864
6180,1870
6181,1889
6182,1890
6183,1855
6184,1850
6185,1849
6186,1859
6187,1832
6188,1834
6189,1900
6190,1889
6191,1849
6192,1846
6193,1883
6194,1887
6195,1862
6196,1859
6197,1872
6198,1873
6199,1872
6200,1847
6201,1834
6202,1859
6203,1842
6204,1829
6205,1813
6206,1799
6207,1863
6208,1842
6209,1843
6210,1883
6211,1879
6212,1859
6213,1863
6214,1883
6215,1891
6216,1863
6217,1854
6218,1879
6219,1885
6220,1840
6221,1831
6222,1835
6223,1887
6224,1862
6225,1851
6226,1869
6227,1876
6228,1867
6229,1861
6230,1874
6231,1885
6232,1894
6233,1858
6234,1852
6235,1907
6236,1857
6237,1829
6238,1826
6239,1822
6240,1879
6241,1856
6242,1854
6243,1863
6244,1883
6245,1863
6246,1858
6247,1878
6248,1885
6249,1875
6250,1851
6251,1846
6252,1909
6253,1842
6254,1830
6255,1863
6256,1840
6257,1872
6258,1847
6259,1855
6260,1878
6261,1877
6262,1862
6263,1865
6264,1891
6265,1897
6266,1862
6267,1852
6268,1846
6269,1890
6270,1839
6271,1831
6272,1861
6273,1866
6274,1865
6275,1855
6276,1900
6277,1891
6278,1862
6279,1858
6280,1850
6281,1917
6282,1890
6283,1863
6284,1841
6285,1890
6286,1854
6287,1837
6288,1833
6289,1837
6290,1905
6291,1858
6292,1845
6293,1905
6294,1907
6295,1861
6296,1857
6297,1856
6298,1891
6299,1872
6300,1858
6301,1826
6302,1859
6303,1845
6304,1835
6305,1824
6306,1839
6307,1872
6308,1850
6309,1850
6310,1906
6311,1882
6312,1862
6313,1859
6314,1900
6315,1906
6316,1856
6317,1847
6318,1855
6319,1856
6320,1837
6321,1831
6322,1818
6323,1849
6324,1856
6325,1849
6326,1810
6327,1871
6328,1866
6329,1855
6330,1872
6331,1950
6332,1892
6333,1855
6334,1839
6335,1850
6336,1857
6337,1835
6338,1833
6339,1829
6340,1922
6341,1855
6342,1853
6343,1920
6344,1889
6345,1861
6346,1861
6347,1878
6348,1883
6349,1872
6350,1841
6351,1885
6352,1875
6353,1846
6354,1835
6355,1809
6356,1850
6357,1872
6358,1855
6359,1840
6360,1904
6361,1872
6362,1860
6363,1860
6364,1903
6365,1907
6366,1866
6367,1855
6368,1916
6369,1861
6370,1839
6371,1833
6372,1861
6373,1851
6374,1862
6375,1851
6376,1875
6377,1920
6378,1869
6379,1866
6380,1877
6381,1857
6382,1887
6383,1857
6384,1849
6385,1892
6386,1850
6387,1830
6388,1826
6389,1854
6390,1873
6391,1867
6392,1857
6393,1882
6394,1875
6395,1861
6396,1861
6397,1886
6398,1898
6399,1874
6400,1854
6401,1808
6402,1856
6403,1842
6404,1837
6405,1854
6406,1904
6407,1870
6408,1856
6409,1856
6410,1918
6411,1873
6412,1861
6413,1863
6414,1866
6415,1924
6416,1857
6417,1850
6418,1856
6419,1846
6420,1840
6421,1833
6422,1840
6423,1824
6424,1862
6425,1855
6426,1846
6427,1845
6428,1863
6429,1859
6430,1873
6431,1881
6432,1887
6433,1859
6434,1851
6435,1898
6436,1854
6437,1835
6438,1835
6439,1840
6440,1904
6441,1855
6442,1856
6443,1865
6444,1888
6445,1858
6446,1855
6447,1871
6448,1840
6449,1870
6450,1841
6451,1886
6452,1889
6453,1842
6454,1830
6455,1863
6456,1822
6457,1867
6458,1855
6459,1856
6460,1861
6461,1875
6462,1865
6463,1858
6464,1867
6465,1898
6466,1867
6467,1851
6468,1872
6469,1871
6470,1840
6471,1831
6472,1842
6473,1849
6474,1863
6475,1851
6476,1871
6477,1911
6478,1860
6479,1865
6480,1857
6481,1904
6482,1888
6483,1856
6484,1840
6485,1859
6486,1856
6487,1839
6488,1836
6489,1877
6490,1917
6491,1862
6492,1855
6493,1872
6494,1889
6495,1863
6496,1865
6497,1856
6498,1891
6499,1872
6500,1853
6501,1920
6502,1903
6503,1841
6504,1835
6505,1872
6506,1837
6507,1869
6508,1840
6509,1856
6510,1887
6511,1873
6512,1861
6513,1866
6514,1866
6515,1936
6516,1871
6517,1840
6518,1867
6519,1897
6520,1839
6521,1826
6522,1856
6523,1904
6524,1852
6525,1849
6526,1840
6527,1920
6528,1871
6529,1866
6530,1853
6531,1913
6532,1889
6533,1851
6534,1865
6535,1915
6536,1853
6537,1827
6538,1829
6539,1871
6540,1887
6541,1855
6542,1859
6543,1853
6544,1878
6545,1862
6546,1866
6547,1878
6548,1889
6549,1872
6550,1856
6551,1840
6552,1859
6553,1845
6554,1836
6555,1841
6556,1814
6557,1868
6558,1852
6559,1861
6560,1869
6561,1877
6562,1862
6563,1866
6564,1872
6565,1930
6566,1856
6567,1847
6568,1855
6569,1855
6570,1839
6571,1837
6572,1845
6573,1936
6574,1860
6575,1853
6576,1863
6577,1903
6578,1867
6579,1663
6580,2320
6581,2230
6582,2349
6583,2493
6584,2466
6585,2521
6586,2178
6587,1789
6588,1648
6589,1359
6590,1283
6591,1455
6592,1591
6593,1619
6594,1668
6595,1654
6596,1682
6597,1739
6598,1766
6599,1785
6600,1792
6601,1819
6602,1845
6603,1872
6604,1854
6605,1845
6606,1834
6607,1883
6608,1893
6609,1879
6610,1968
6611,2352
6612,2191
6613,2343
6614,2499
6615,2474
6616,2322
6617,1911
6618,1698
6619,1535
6620,1317
6621,1465
6622,1626
6623,1680
6624,1664
6625,1681
6626,1757
6627,1760
6628,1792
6629,1783
6630,1781
6631,1896
6632,1891
6633,1882
6634,1895
6635,1918
6636,1898
6637,1871
6638,1871
6639,1931
6640,1904
6641,1880
6642,2071
6643,2231
6644,2331
6645,2470
6646,2482
6647,2304
6648,1943
6649,1658
6650,1367
6651,1383
6652,1599
6653,1653
6654,1643
6655,1622
6656,1669
6657,1744
6658,1762
6659,1773
6660,1835
6661,1842
6662,1857
6663,1871
6664,1910
6665,1921
6666,1898
6667,1875
6668,1878
6669,1872
6670,1871
6671,1862
6672,1888
6673,1766
6674,2235
6675,2267
6676,2544
6677,2559
6678,2357
6679,1944
6680,1635
6681,1427
6682,1460
6683,1565
6684,1644
6685,1717
6686,1659
6687,1651
6688,1680
6689,1735
6690,1782
6691,1806
6692,1835
6693,1893
6694,1903
6695,1893
6696,1899
6697,1905
6698,1936
6699,1915
6700,1897
6701,1891
6702,1927
6703,1874
6704,1135
6705,2244
6706,2219
6707,2489
6708,2533
6709,2303
6710,1984
6711,1643
6712,1440
6713,1498
6714,1648
6715,1740
6716,1680
6717,1658
6718,1689
6719,1711
6720,1700
6721,1754
6722,1811
6723,1836
6724,1857
6725,1869
6726,1915
6727,1936
6728,1906
6729,1895
6730,1932
6731,1947
6732,1918
6733,1885
6734,1879
6735,622
6736,2321
6737,2112
6738,2334
6739,2453
6740,2258
6741,1991
6742,1783
6743,1616
6744,1594
6745,1676
6746,1705
6747,1715
6748,1685
6749,1664
6750,1657
6751,1698
6752,1802
6753,1795
6754,1796
6755,1808
6756,1853
6757,1887
6758,1872
6759,1872
6760,1931
6761,1905
6762,1892
6763,1890
6764,1905
6765,1913
6766,662
6767,2320
6768,2115
6769,2294
6770,2338
6771,2119
6772,1987
6773,1854
6774,1662
6775,1689
6776,1751
6777,1771
6778,1727
6779,1668
6780,1629
6781,1687
6782,1763
6783,1779
6784,1798
6785,1857
6786,1840
6787,1835
6788,1844
6789,1885
6790,1891
6791,1873
6792,1874
6793,1914
6794,1914
6795,1883
6796,1882
6797,992
6798,2444
6799,2064
6800,2128
6801,2227
6802,2047
6803,2023
6804,1920
6805,1725
6806,1777
6807,1787
6808,1746
6809,1703
6810,1678
6811,1630
6812,1683
6813,1761
6814,1808
6815,1850
6816,1837
6817,1841
6818,1875
6819,1870
6820,1853
6821,1843
6822,1872
6823,1883
6824,1873
6825,1862
6826,1848
6827,1931
6828,1729
6829,2318
6830,2064
6831,2183
6832,2227
6833,2000
6834,2022
6835,1973
6836,1808
6837,1770
6838,1765
6839,1773
6840,1696
6841,1616
6842,1601
6843,1698
6844,1791
6845,1798
6846,1817
6847,1876
6848,1887
6849,1877
6850,1867
6851,1872
6852,1899
6853,1858
6854,1847
6855,1840
6856,1935
6857,1895
6858,1872
6859,1882
6860,2257
6861,2141
6862,2111
6863,2180
6864,1977
6865,2039
6866,2016
6867,1807
6868,1844
6869,1806
6870,1728
6871,1669
6872,1553
6873,1646
6874,1699
6875,1751
6876,1802
6877,1841
6878,1850
6879,1856
6880,1891
6881,1931
6882,1902
6883,1870
6884,1899
6885,1874
6886,1872
6887,1851
6888,1846
6889,1871
6890,1927
6891,1952
6892,2142
6893,2070
6894,2175
6895,1933
6896,1973
6897,2066
6898,1921
6899,1861
6900,1821
6901,1743
6902,1696
6903,1591
6904,1595
6905,1678
6906,1801
6907,1808
6908,1805
6909,1833
6910,1866
6911,1885
6912,1873
6913,1874
6914,1887
6915,1937
6916,1875
6917,1863
6918,1904
6919,1895
6920,1847
6921,1838
6922,1565
6923,2268
6924,2078
6925,2143
6926,1932
6927,1971
6928,2091
6929,1878
6930,1814
6931,1817
6932,1799
6933,1699
6934,1605
6935,1641
6936,1696
6937,1735
6938,1768
6939,1806
6940,1883
6941,1855
6942,1871
6943,1904
6944,1892
6945,1873
6946,1884
6947,1903
6948,1933
6949,1888
6950,1870
6951,1859
6952,1872
6953,976
6954,2206
6955,2038
6956,2139
6957,2004
6958,1904
6959,2064
6960,1932
6961,1842
6962,1821
6963,1776
6964,1771
6965,1670
6966,1617
6967,1683
6968,1767
6969,1798
6970,1787
6971,1801
6972,1870
6973,1919
6974,1872
6975,1875
6976,1843
6977,1907
6978,1883
6979,1885
6980,1903
6981,1921
6982,1904
6983,1881
6984,560
6985,2357
6986,2075
6987,2169
6988,2021
6989,1895
6990,2075
6991,1853
6992,1792
6993,1818
6994,1807
6995,1712
6996,1637
6997,1607
6998,1744
6999,1773
7000,1785
7001,1789
7002,1872
7003,1840
7004,1838
7005,1853
7006,1870
7007,1885
7008,1878
7009,1872
7010,1938
7011,1893
7012,1877
7013,1877
7014,1903
7015,711
7016,2306
7017,2034
7018,2137
7019,2067
7020,1872
7021,2043
7022,1923
7023,1818
7024,1829
7025,1778
7026,1731
7027,1727
7028,1639
7029,1678
7030,1753
7031,1826
7032,1839
7033,1838
7034,1854
7035,1872
7036,1878
7037,1838
7038,1842
7039,1882
7040,1898
7041,1873
7042,1861
7043,1906
7044,1911
7045,1872
7046,1057
7047,2326
7048,2157
7049,2142
7050,2093
7051,1941
7052,2095
7053,1902
7054,1817
7055,1790
7056,1820
7057,1744
7058,1665
7059,1648
7060,1691
7061,1761
7062,1792
7063,1819
7064,1901
7065,1899
7066,1866
7067,1863
7068,1861
7069,1894
7070,1854
7071,1850
7072,1834
7073,1879
7074,1882
7075,1858
7076,1897
7077,1898
7078,2292
7079,2096
7080,2133
7081,2164
7082,1933
7083,2071
7084,1933
7085,1920
7086,1835
7087,1771
7088,1709
7089,1648
7090,1649
7091,1651
7092,1719
7093,1839
7094,1840
7095,1830
7096,1856
7097,1867
7098,1977
7099,1885
7100,1873
7101,1870
7102,1911
7103,1855
7104,1849
7105,1881
7106,1846
7107,1874
7108,1856
7109,2180
7110,2169
7111,2123
7112,2130
7113,1903
7114,2058
7115,2014
7116,1857
7117,1837
7118,1840
7119,1753
7120,1637
7121,1581
7122,1639
7123,1731
7124,1776
7125,1797
7126,1834
7127,1893
7128,1872
7129,1873
7130,1872
7131,1872
7132,1903
7133,1873
7134,1867
7135,1888
7136,1863
7137,1840
7138,1841
7139,1826
7140,2043
7141,2154
7142,2105
7143,2170
7144,1921
7145,2015
7146,2010
7147,1868
7148,1890
7149,1815
7150,1744
7151,1738
7152,1678
7153,1623
7154,1689
7155,1735
7156,1847
7157,1829
7158,1834
7159,1835
7160,1915
7161,1892
7162,1883
7163,1882
7164,1868
7165,1916
7166,1872
7167,1873
7168,1873
7169,1879
7170,1840
7171,1530
7172,2191
7173,2090
7174,2145
7175,1936
7176,1969
7177,2092
7178,1858
7179,1845
7180,1817
7181,1798
7182,1717
7183,1610
7184,1634
7185,1731
7186,1771
7187,1774
7188,1796
7189,1822
7190,1888
7191,1860
7192,1863
7193,1891
7194,1905
7195,1878
7196,1875
7197,1920
7198,1894
7199,1883
7200,1868
7201,1872
7202,1914
7203,1842
7204,1842
7205,1831
7206,1898
7207,1870
7208,1858
7209,1907
7210,1941
7211,1881
7212,1863
7213,1867
7214,1852
7215,1906
7216,1854
7217,1861
7218,1912
7219,1865
7220,1826
7221,1824
7222,1850
7223,1882
7224,1855
7225,1847
7226,1841
7227,1889
7228,1856
7229,1850
7230,1848
7231,1868
7232,1876
7233,1845
7234,1861
7235,1872
7236,1849
7237,1830
7238,1834
7239,1851
7240,1872
7241,1851
7242,1846
7243,1874
7244,1884
7245,1859
7246,1858
7247,1917
7248,1927
7249,1865
7250,1851
7251,1859
7252,1885
7253,1840
7254,1826
7255,1845
7256,1911
7257,1857
7258,1840
7259,1886
7260,1851
7261,1871
7262,1858
7263,1858
7264,1872
7265,1900
7266,1857
7267,1857
7268,1894
7269,1867
7270,1835
7271,1829
7272,1835
7273,1863
7274,1856
7275,1856
7276,1854
7277,1898
7278,1867
7279,1862
7280,1871
7281,1899
7282,1884
7283,1854
7284,1859
7285,1885
7286,1840
7287,1825
7288,1825
7289,1895
7290,1879
7291,1857
7292,1848
7293,1873
7294,1882
7295,1859
7296,1862
7297,1872
7298,1878
7299,1870
7300,1842
7301,1897
7302,1871
7303,1840
7304,1826
7305,1812
7306,1815
7307,1865
7308,1843
7309,1809
7310,1905
7311,1876
7312,1859
7313,1860
7314,1904
7315,1887
7316,1852
7317,1841
7318,1848
7319,1857
7320,1822
7321,1826
7322,1826
7323,1907
7324,1856
7325,1850
7326,1878
7327,1898
7328,1867
7329,1856
7330,1872
7331,1904
7332,1878
7333,1846
7334,1879
7335,1918
7336,1849
7337,1825
7338,1826
7339,1909
7340,1872
7341,1847
7342,1853
7343,1891
7344,1883
7345,1855
7346,1850
7347,1884
7348,1904
7349,1860
7350,1840
7351,1866
7352,1856
7353,1835
7354,1825
7355,1826
7356,1881
7357,1862
7358,1850
7359,1872
7360,1857
7361,1872
7362,1855
7363,1862
7364,1897
7365,1898
7366,1854
7367,1842
7368,1870
7369,1860
7370,1827
7371,1824
7372,1857
7373,1872
7374,1856
7375,1854
7376,1840
7377,1840
7378,1857
7379,1856
7380,1868
7381,1919
7382,1874
7383,1849
7384,1879
7385,1866
7386,1849
7387,1833
7388,1831
7389,1835
7390,1874
7391,1852
7392,1847
7393,1879
7394,1878
7395,1859
7396,1863
7397,1851
7398,1920
7399,1865
7400,1850
7401,1847
7402,1904
7403,1835
7404,1827
7405,1823
7406,1855
7407,1861
7408,1845
7409,1887
7410,1839
7411,1870
7412,1859
7413,1869
7414,1927
7415,1901
7416,1854
7417,1856
7418,1895
7419,1856
7420,1831
7421,1832
7422,1840
7423,1891
7424,1851
7425,1850
7426,1921
7427,1926
7428,1866
7429,1859
7430,1873
7431,1888
7432,1874
7433,1859
7434,1849
7435,1845
7436,1841
7437,1835
7438,1840
7439,1853
7440,1872
7441,1851
7442,1861
7443,1877
7444,1889
7445,1868
7446,1868
7447,1880
7448,1901
7449,1867
7450,1851
7451,1897
7452,1933
7453,1840
7454,1837
7455,1872
7456,1872
7457,1870
7458,1850
7459,1857
7460,1872
7461,1872
7462,1865
7463,1872
7464,1914
7465,1901
7466,1854
7467,1830
7468,1880
7469,1857
7470,1840
7471,1839
7472,1850
7473,1855
7474,1859
7475,1855
7476,1867
7477,1903
7478,1872
7479,1869
7480,1889
7481,1858
7482,1879
7483,1856
7484,1904
7485,1830
7486,1847
7487,1832
7488,1836
7489,1856
7490,1875
7491,1854
7492,1862
7493,1899
7494,1876
7495,1858
7496,1865
7497,1874
7498,1865
7499,1870
7500,1854
7501,1915
7502,1872
7503,1839
7504,1837
7505,1814
7506,1855
7507,1862
7508,1856
7509,1847
7510,1911
7511,1872
7512,1869
7513,1871
7514,1840
7515,1890
7516,1861
7517,1840
7518,1878
7519,1856
7520,1838
7521,1835
7522,1872
7523,1920
7524,1856
7525,1856
7526,1872
7527,1881
7528,1867
7529,1860
7530,1873
7531,1916
7532,1875
7533,1854
7534,1871
7535,1847
7536,1842
7537,1826
7538,1824
7539,1879
7540,1877
7541,1858
7542,1855
7543,1866
7544,1872
7545,1863
7546,1862
7547,1859
7548,1898
7549,1872
7550,1856
7551,1866
7552,1852
7553,1834
7554,1833
7555,1809
7556,1845
7557,1860
7558,1851
7559,1853
7560,1894
7561,1868
7562,1863
7563,1867
7564,1921
7565,1889
7566,1862
7567,1853
7568,1856
7569,1858
7570,1833
7571,1834
7572,1829
7573,1862
7574,1858
7575,1857
7576,1893
7577,1898
7578,1863
7579,1863
7580,1881
7581,1886
7582,1872
7583,1854
7584,1883
7585,1898
7586,1840
7587,1830
7588,1839
7589,1863
7590,1874
7591,1855
7592,1861
7593,1891
7594,1878
7595,1865
7596,1860
7597,1898
7598,1891
7599,1867
7600,1847
7601,1916
7602,1883
7603,1840
7604,1833
7605,1826
7606,1821
7607,1859
7608,1851
7609,1887
7610,1907
7611,1872
7612,1859
7613,1879
7614,1922
7615,1886
7616,1858
7617,1846
7618,1830
7619,1850
7620,1825
7621,1833
7622,1842
7623,1861
7624,1851
7625,1863
7626,1909
7627,1889
7628,1865
7629,1868
7630,1853
7631,1892
7632,1870
7633,1856
7634,1846
7635,1879
7636,1841
7637,1831
7638,1830
7639,1920
7640,1872
7641,1845
7642,1851
7643,1888
7644,1879
7645,1857
7646,1857
7647,1866
7648,1902
7649,1855
7650,1841
7651,1855
7652,1874
7653,1840
7654,1829
7655,1885
7656,1887
7657,1860
7658,1866
7659,1839
7660,1909
7661,1863
7662,1858
7663,1872
7664,1878
7665,1890
7666,1867
7667,1847
7668,1887
7669,1856
7670,1833
7671,1830
7672,1816
7673,1858
7674,1854
7675,1850
7676,1847
7677,1895
7678,1856
7679,1860
7680,1875
7681,1892
7682,1872
7683,1850
7684,1850
7685,1855
7686,1843
7687,1831
7688,1813
7689,1863
7690,1872
7691,1845
7692,1854
7693,1889
7694,1875
7695,1867
7696,1863
7697,1904
7698,1950
7699,1867
7700,1843
7701,1828
7702,1877
7703,1835
7704,1831
7705,1851
7706,1879
7707,1850
7708,1840
7709,1877
7710,1840
7711,1869
7712,1859
7713,1860
7714,1888
7715,1882
7716,1854
7717,1840
7718,1887
7719,1856
7720,1837
7721,1836
7722,1856
7723,1919
7724,1851
7725,1849
7726,1872
7727,1892
7728,1866
7729,1867
7730,1884
7731,1923
7732,1872
7733,1854
7734,1819
7735,1887
7736,1840
7737,1826
7738,1872
7739,1858
7740,1862
7741,1852
7742,1850
7743,1861
7744,1875
7745,1865
7746,1862
7747,1876
7748,1907
7749,1867
7750,1855
7751,1931
7752,1869
7753,1837
7754,1834
7755,1833
7756,1895
7757,1858
7758,1859
7759,1888
7760,1913
7761,1871
7762,1867
7763,1874
7764,1937
7765,1883
7766,1853
7767,1851
7768,1870
7769,1853
7770,1837
7771,1835
7772,1822
7773,1871
7774,1851
7775,1856
7776,1899
7777,1888
7778,1869
7779,1865
7780,1872
7781,1895
7782,1868
7783,1856
7784,1872
7785,1916
7786,1844
7787,1835
7788,1840
7789,1871
7790,1873
7791,1856
7792,1855
7793,1878
7794,1879
7795,1857
7796,1856
7797,1869
7798,1922
7799,1865
7800,1851
7801,1876
7802,1856
7803,1839
7804,1833
7805,1818
7806,1889
7807,1857
7808,1854
7809,1869
7810,1866
7811,1871
7812,1859
7813,1878
7814,1932
7815,1889
7816,1856
7817,1838
7818,1869
7819,1855
7820,1836
7821,1826
7822,1856
7823,1872
7824,1861
7825,1849
7826,1907
7827,1878
7828,1857
7829,1856
7830,1850
7831,1919
7832,1873
7833,1856
7834,1906
7835,1906
7836,1844
7837,1835
7838,1819
7839,1845
7840,1872
7841,1855
7842,1840
7843,1869
7844,1873
7845,1866
7846,1866
7847,1872
7848,1888
7849,1867
7850,1855
7851,1859
7852,1866
7853,1838
7854,1838
7855,1808
7856,1815
7857,1856
7858,1844
7859,1852
7860,1895
7861,1869
7862,1858
7863,1877
7864,1899
7865,1887
7866,1856
7867,1843
7868,1840
7869,1853
7870,1833
7871,1829
7872,1840
7873,1883
7874,1853
7875,1853
7876,1840
7877,1882
7878,1867
7879,1866
7880,1868
7881,1933
7882,1872
7883,1856
7884,1838
7885,1856
7886,1839
7887,1823
7888,1826
7889,1903
7890,1863
7891,1857
7892,1859
7893,1899
7894,1879
7895,1866
7896,1865
7897,1890
7898,1885
7899,1858
7900,1846
7901,1872
7902,1853
7903,1840
7904,1830
7905,1865
7906,1852
7907,1856
7908,1851
7909,1886
7910,1895
7911,1867
7912,1865
7913,1882
7914,1904
7915,1878
7916,1854
7917,1847
7918,1847
7919,1850
7920,1829
7921,1835
7922,1885
7923,1883
7924,1859
7925,1866
7926,1899
7927,1866
7928,1870
7929,1861
7930,1900
7931,1872
7932,1871
7933,1855
7934,1840
7935,1840
7936,1841
7937,1834
7938,1863
7939,1872
7940,1869
7941,1857
7942,1863
7943,1911
7944,1874
7945,1858
7946,1858
7947,1857
7948,1869
7949,1859
7950,1855
7951,1895
7952,1873
7953,1836
7954,1825
7955,1842
7956,1874
7957,1857
7958,1847
7959,1835
7960,1872
7961,1871
7962,1866
7963,1891
7964,1904
7965,1885
7966,1857
7967,1850
7968,1903
7969,1854
7970,1838
7971,1837
7972,1840
7973,1875
7974,1856
7975,1841
7976,1874
7977,1893
7978,1863
7979,1867
7980,1868
7981,1877
7982,1872
7983,1855
7984,1872
7985,1882
7986,1849
7987,1837
7988,1856
7989,1858
7990,1866
7991,1854
7992,1852
7993,1847
7994,1878
7995,1867
7996,1862
7997,1883
7998,1879
7999,1858
8000,1853
8001,1859
8002,1862
8003,1840
8004,1835
8005,1809
8006,1859
8007,1846
8008,1850
8009,1851
8010,1890
8011,1872
8012,1861
8013,1873
8014,1906
8015,1882
8016,1854
8017,1840
8018,1888
8019,1858
8020,1837
8021,1831
8022,1865
8023,1861
8024,1849
8025,1856
8026,1899
8027,1877
8028,1870
8029,1862
8030,1890
8031,1893
8032,1872
8033,1859
8034,1834
8035,1877
8036,1838
8037,1827
8038,1855
8039,1858
8040,1860
8041,1857
8042,1850
8043,1870
8044,1877
8045,1867
8046,1865
8047,1897
8048,1894
8049,1865
8050,1846
8051,1872
8052,1891
8053,1839
8054,1834
8055,1872
8056,1872
8057,1858
8058,1856
8059,1881
8060,1844
8061,1871
8062,1868
8063,1842
8064,1866
8065,1882
8066,1856
8067,1850
8068,1849
8069,1850
8070,1835
8071,1840
8072,1827
8073,1874
8074,1854
8075,1851
8076,1894
8077,1874
8078,1869
8079,1862
8080,1897
8081,1911
8082,1872
8083,1850
8084,1809
8085,1872
8086,1842
8087,1837
8088,1857
8089,1896
8090,1867
8091,1856
8092,1870
8093,1853
8094,1875
8095,1857
8096,1861
8097,1849
8098,1872
8099,1861
8100,1855
8101,1835
8102,1849
8103,1840
8104,1833
8105,1835
8106,1820
8107,1857
8108,1869
8109,1901
8110,1895
8111,1871
8112,1863
8113,1842
8114,1893
8115,1890
8116,1858
8117,1840
8118,1903
8119,1844
8120,1834
8121,1837
8122,1837
8123,1899
8124,1858
8125,1843
8126,1875
8127,1869
8128,1861
8129,1857
8130,1883
8131,1874
8132,1872
8133,1861
8134,1878
8135,1841
8136,1840
8137,1835
8138,1827
8139,1841
8140,1866
8141,1872
8142,1847
8143,1879
8144,1877
8145,1863
8146,1867
8147,1890
8148,1872
8149,1855
8150,1851
8151,1849
8152,1862
8153,1840
8154,1837
8155,1855
8156,1923
8157,1853
8158,1851
8159,1887
8160,1889
8161,1869
8162,1859
8163,1853
8164,1866
8165,1885
8166,1858
8167,1840
8168,1844
8169,1850
8170,1838
8171,1831
8172,1856
8173,1865
8174,1856
8175,1855
8176,1868
8177,1876
8178,1863
8179,1865
8180,1891
8181,1935
8182,1866
8183,1858
8184,1861
8185,1904
8186,1833
8187,1830
8188,1825
8189,1842
8190,1871
8191,1854
8192,1855
8193,1862
8194,1872
8195,1865
8196,1867
8197,1905
8198,2207
8199,2183
8200,2401
8201,2559
8202,2559
8203,2477
8204,2255
8205,1915
8206,1606
8207,1321
8208,1071
8209,1335
8210,1522
8211,1610
8212,1636
8213,1654
8214,1693
8215,1742
8216,1744
8217,1771
8218,1823
8219,1819
8220,1835
8221,1865
8222,1899
8223,1905
8224,1902
8225,1904
8226,1912
8227,1912
8228,1904
8229,1915
8230,2259
8231,2486
8232,2625
8233,2531
8234,2461
8235,2096
8236,1659
8237,1414
8238,1142
8239,1371
8240,1558
8241,1630
8242,1643
8243,1703
8244,1730
8245,1770
8246,1792
8247,1808
8248,1872
8249,1856
8250,1857
8251,1908
8252,1924
8253,1888
8254,1884
8255,1890
8256,1939
8257,1890
8258,1891
8259,1904
8260,1360
8261,2263
8262,2391
8263,2597
8264,2557
8265,2395
8266,1923
8267,1595
8268,1371
8269,1243
8270,1441
8271,1589
8272,1625
8273,1669
8274,1689
8275,1737
8276,1765
8277,1823
8278,1808
8279,1840
8280,1869
8281,1913
8282,1903
8283,1887
8284,1864
8285,1936
8286,1879
8287,1871
8288,1888
8289,1861
8290,1904
8291,920
8292,2252
8293,2408
8294,2621
8295,2608
8296,2385
8297,1920
8298,1574
8299,1246
8300,1363
8301,1587
8302,1659
8303,1642
8304,1639
8305,1628
8306,1740
8307,1751
8308,1776
8309,1813
8310,1857
8311,1868
8312,1878
8313,1883
8314,1941
8315,1919
8316,1897
8317,1870
8318,1911
8319,1886
8320,1865
8321,1868
8322,526
8323,2368
8324,2261
8325,2615
8326,2741
8327,2538
8328,2010
8329,1523
8330,1216
8331,1360
8332,1525
8333,1627
8334,1689
8335,1630
8336,1650
8337,1664
8338,1727
8339,1765
8340,1809
8341,1827
8342,1855
8343,1936
8344,1918
8345,1905
8346,1904
8347,1936
8348,1932
8349,1893
8350,1882
8351,1937
8352,1885
8353,930
8354,2299
8355,2219
8356,2460
8357,2613
8358,2448
8359,2096
8360,1686
8361,1450
8362,1492
8363,1662
8364,1717
8365,1702
8366,1648
8367,1639
8368,1695
8369,1699
8370,1734
8371,1781
8372,1871
8373,1906
8374,1867
8375,1875
8376,1870
8377,1917
8378,1901
8379,1899
8380,1913
8381,1907
8382,1904
8383,1873
8384,1687
8385,2352
8386,2131
8387,2293
8388,2489
8389,2407
8390,2083
8391,1833
8392,1602
8393,1597
8394,1687
8395,1704
8396,1693
8397,1711
8398,1678
8399,1646
8400,1726
8401,1808
8402,1846
8403,1799
8404,1813
8405,1854
8406,1929
8407,1878
8408,1872
8409,1890
8410,1888
8411,1894
8412,1885
8413,1885
8414,1936
8415,1904
8416,2200
8417,2055
8418,2192
8419,2313
8420,2157
8421,2018
8422,1963
8423,1775
8424,1732
8425,1767
8426,1818
8427,1776
8428,1659
8429,1616
8430,1682
8431,1786
8432,1793
8433,1794
8434,1875
8435,1873
8436,1856
8437,1851
8438,1875
8439,1856
8440,1874
8441,1872
8442,1856
8443,1955
8444,1899
8445,1885
8446,1883
8447,2043
8448,2166
8449,2082
8450,2212
8451,2081
8452,2039
8453,2007
8454,1812
8455,1786
8456,1795
8457,1761
8458,1702
8459,1616
8460,1615
8461,1680
8462,1750
8463,1765
8464,1798
8465,1845
8466,1841
8467,1850
8468,1961
8469,1866
8470,1845
8471,1850
8472,1877
8473,1913
8474,1873
8475,1872
8476,1935
8477,1883
8478,1649
8479,2167
8480,2134
8481,2249
8482,2061
8483,1962
8484,2075
8485,1890
8486,1795
8487,1779
8488,1724
8489,1745
8490,1631
8491,1595
8492,1665
8493,1790
8494,1809
8495,1815
8496,1838
8497,1883
8498,1911
8499,1873
8500,1866
8501,1926
8502,1917
8503,1851
8504,1845
8505,1895
8506,1869
8507,1872
8508,1857
8509,1202
8510,2240
8511,2099
8512,2193
8513,2041
8514,1978
8515,2076
8516,1875
8517,1803
8518,1866
8519,1754
8520,1670
8521,1595
8522,1627
8523,1728
8524,1758
8525,1801
8526,1870
8527,1872
8528,1864
8529,1871
8530,1889
8531,1938
8532,1887
8533,1869
8534,1846
8535,1904
8536,1857
8537,1842
8538,1847
8539,1874
8540,590
8541,2242
8542,2091
8543,2199
8544,2064
8545,1897
8546,2094
8547,2000
8548,1872
8549,1810
8550,1762
8551,1769
8552,1648
8553,1605
8554,1665
8555,1727
8556,1855
8557,1818
8558,1839
8559,1882
8560,1892
8561,1876
8562,1869
8563,1862
8564,1937
8565,1904
8566,1875
8567,1853
8568,1901
8569,1872
8570,1852
8571,462
8572,2314
8573,2102
8574,2192
8575,2066
8576,1934
8577,2100
8578,1885
8579,1812
8580,1851
8581,1822
8582,1730
8583,1631
8584,1645
8585,1679
8586,1744
8587,1769
8588,1783
8589,1845
8590,1854
8591,1854
8592,1884
8593,1909
8594,1895
8595,1879
8596,1885
8597,1907
8598,1904
8599,1875
8600,1862
8601,1869
8602,994
8603,2268
8604,2063
8605,2197
8606,2119
8607,1879
8608,2062
8609,1971
8610,1856
8611,1835
8612,1785
8613,1722
8614,1766
8615,1662
8616,1678
8617,1745
8618,1790
8619,1792
8620,1806
8621,1818
8622,1792
8623,1889
8624,1870
8625,1856
8626,1903
8627,1904
8628,1881
8629,1878
8630,1906
8631,1890
8632,1885
8633,1777
8634,2285
8635,2124
8636,2140
8637,2106
8638,1878
8639,2065
8640,1915
8641,1824
8642,1851
8643,1854
8644,1753
8645,1677
8646,1632
8647,1721
8648,1790
8649,1778
8650,1797
8651,1859
8652,1853
8653,1835
8654,1840
8655,1871
8656,1899
8657,1872
8658,1873
8659,1936
8660,1921
8661,1882
8662,1877
8663,1887
8664,1891
8665,2202
8666,2110
8667,2171
8668,2222
8669,1905
8670,2005
8671,1903
8672,1824
8673,1853
8674,1792
8675,1748
8676,1657
8677,1651
8678,1662
8679,1737
8680,1776
8681,1855
8682,1835
8683,1840
8684,1829
8685,1894
8686,1851
8687,1843
8688,1841
8689,1918
8690,1893
8691,1872
8692,1871
8693,1894
8694,1886
8695,1870
8696,1954
8697,2205
8698,2174
8699,2192
8700,1929
8701,2065
8702,1963
8703,1805
8704,1802
8705,1778
8706,1758
8707,1674
8708,1615
8709,1686
8710,1779
8711,1786
8712,1807
8713,1851
8714,1947
8715,1894
8716,1872
8717,1854
8718,1904
8719,1863
8720,1846
8721,1853
8722,1882
8723,1892
8724,1869
8725,1871
8726,1879
8727,1667
8728,2171
8729,2118
8730,2209
8731,2031
8732,2009
8733,1968
8734,1889
8735,1809
8736,1790
8737,1726
8738,1670
8739,1619
8740,1654
8741,1712
8742,1803
8743,1835
8744,1838
8745,1845
8746,1869
8747,1865
8748,1911
8749,1867
8750,1869
8751,1894
8752,1888
8753,1851
8754,1845
8755,1846
8756,1857
8757,1862
8758,1339
8759,2178
8760,2141
8761,2215
8762,1975
8763,2003
8764,2018
8765,1867
8766,1829
8767,1798
8768,1795
8769,1678
8770,1598
8771,1607
8772,1737
8773,1787
8774,1791
8775,1813
8776,1835
8777,1884
8778,1873
8779,1877
8780,1896
8781,1936
8782,1886
8783,1872
8784,1875
8785,1865
8786,1851
8787,1839
8788,1867
8789,576
8790,2288
8791,2103
8792,2190
8793,2023
8794,1946
8795,2022
8796,1854
8797,1860
8798,1870
8799,1774
8800,1697
8801,1665
8802,1646
8803,1680
8804,1739
8805,1806
8806,1886
8807,1840
8808,1853
8809,1875
8810,1890
8811,1877
8812,1875
8813,1871
8814,1938
8815,1899
8816,1872
8817,1863
8818,1872
8819,1851
8820,1832
8821,1840
8822,1843
8823,1891
8824,1856
8825,1844
8826,1925
8827,1888
8828,1862
8829,1861
8830,1894
8831,1911
8832,1867
8833,1846
8834,1875
8835,1841
8836,1831
8837,1826
8838,1824
8839,1870
8840,1863
8841,1843
8842,1835
8843,1893
8844,1862
8845,1850
8846,1872
8847,1862
8848,1890
8849,1851
8850,1843
8851,1898
8852,1859
8853,1829
8854,1829
8855,1849
8856,1866
8857,1846
8858,1846
8859,1927
8860,1891
8861,1863
8862,1858
8863,1875
8864,1879
8865,1874
8866,1852
8867,1866
8868,1859
8869,1844
8870,1828
8871,1829
8872,1877
8873,1875
8874,1851
8875,1838
8876,1866
8877,1872
8878,1857
8879,1860
8880,1874
8881,1879
8882,1859
8883,1851
8884,1905
8885,1878
8886,1837
8887,1827
8888,1817
8889,1872
8890,1869
8891,1853
8892,1872
8893,1865
8894,1872
8895,1861
8896,1863
8897,1925
8898,1904
8899,1853
8900,1862
8901,1907
8902,1859
8903,1835
8904,1831
8905,1872
8906,1897
8907,1850
8908,1851
8909,1885
8910,1908
8911,1866
8912,1861
8913,1890
8914,1927
8915,1873
8916,1854
8917,1850
8918,1874
8919,1849
8920,1827
8921,1821
8922,1863
8923,1887
8924,1850
8925,1855
8926,1894
8927,1891
8928,1867
8929,1866
8930,1863
8931,1953
8932,1869
8933,1853
8934,1856
8935,1872
8936,1834
8937,1822
8938,1840
8939,1936
8940,1856
8941,1855
8942,1840
8943,1867
8944,1872
8945,1861
8946,1852
8947,1889
8948,1895
8949,1855
8950,1841
8951,1855
8952,1869
8953,1833
8954,1831
8955,1847
8956,1920
8957,1856
8958,1850
8959,1899
8960,1882
8961,1866
8962,1857
8963,1878
8964,1895
8965,1871
8966,1842
8967,1829
8968,1893
8969,1835
8970,1824
8971,1813
8972,1920
8973,1871
8974,1847
8975,1854
8976,1859
8977,1873
8978,1854
8979,1851
8980,1856
8981,1901
8982,1855
8983,1842
8984,1866
8985,1867
8986,1831
8987,1821
8988,1834
8989,1860
8990,1859
8991,1849
8992,1858
8993,1890
8994,1865
8995,1846
8996,1841
8997,1837
8998,1887
8999,1847
9000,1840
9001,1845
9002,1854
9003,1826
9004,1826
9005,1831
9006,1882
9007,1850
9008,1847
9009,1876
9010,1887
9011,1861
9012,1855
9013,1844
9014,1917
9015,1872
9016,1846
9017,1859
9018,1863
9019,1845
9020,1822
9021,1811
9022,1885
9023,1872
9024,1845
9025,1840
9026,1872
9027,1872
9028,1856
9029,1854
9030,1876
9031,1943
9032,1857
9033,1851
9034,1865
9035,1870
9036,1837
9037,1834
9038,1828
9039,1903
9040,1862
9041,1852
9042,1874
9043,1889
9044,1866
9045,1859
9046,1863
9047,1915
9048,1891
9049,1871
9050,1849
9051,1893
9052,1857
9053,1838
9054,1834
9055,1875
9056,1911
9057,1847
9058,1854
9059,1894
9060,1862
9061,1872
9062,1863
9063,1874
9064,1938
9065,1878
9066,1855
9067,1904
9068,1914
9069,1848
9070,1837
9071,1810
9072,1846
9073,1876
9074,1855
9075,1853
9076,1877
9077,1879
9078,1865
9079,1867
9080,1908
9081,1947
9082,1871
9083,1856
9084,1861
9085,1872
9086,1835
9087,1828
9088,1829
9089,1882
9090,1867
9091,1847
9092,1871
9093,1901
9094,1872
9095,1867
9096,1872
9097,1866
9098,1894
9099,1862
9100,1847
9101,1906
9102,1861
9103,1840
9104,1839
9105,1865
9106,1864
9107,1859
9108,1856
9109,1872
9110,1887
9111,1870
9112,1871
9113,1882
9114,1943
9115,1872
9116,1853
9117,1847
9118,1840
9119,1845
9120,1833
9121,1831
9122,1840
9123,1876
9124,1867
9125,1863
9126,1857
9127,1879
9128,1867
9129,1869
9130,1882
9131,1888
9132,1869
9133,1849
9134,1851
9135,1863
9136,1840
9137,1835
9138,1823
9139,1904
9140,1863
9141,1853
9142,1835
9143,1888
9144,1872
9145,1859
9146,1856
9147,1894
9148,1888
9149,1854
9150,1857
9151,1903
9152,1853
9153,1837
9154,1834
9155,1851
9156,1856
9157,1851
9158,1849
9159,1936
9160,1873
9161,1871
9162,1866
9163,1869
9164,1904
9165,1872
9166,1851
9167,1887
9168,1867
9169,1845
9170,1831
9171,1813
9172,1838
9173,1871
9174,1842
9175,1851
9176,1865
9177,1871
9178,1859
9179,1867
9180,1850
9181,1872
9182,1859
9183,1845
9184,1872
9185,1851
9186,1840
9187,1830
9188,1835
9189,1873
9190,1855
9191,1853
9192,1858
9193,1836
9194,1872
9195,1865
9196,1851
9197,1879
9198,1889
9199,1857
9200,1863
9201,1881
9202,1855
9203,1833
9204,1828
9205,1855
9206,1851
9207,1845
9208,1847
9209,1890
9210,1855
9211,1869
9212,1861
9213,1866
9214,1872
9215,1874
9216,1851
9217,1849
9218,1910
9219,1846
9220,1829
9221,1828
9222,1823
9223,1869
9224,1850
9225,1865
9226,1895
9227,1878
9228,1862
9229,1865
9230,1867
9231,1899
9232,1861
9233,1849
9234,1866
9235,1889
9236,1827
9237,1828
9238,1835
9239,1917
9240,1853
9241,1853
9242,1903
9243,1874
9244,1871
9245,1859
9246,1843
9247,1886
9248,1891
9249,1854
9250,1854
9251,1887
9252,1854
9253,1831
9254,1831
9255,1840
9256,1901
9257,1859
9258,1857
9259,1900
9260,1872
9261,1860
9262,1860
9263,1883
9264,1886
9265,1871
9266,1842
9267,1905
9268,1881
9269,1834
9270,1833
9271,1840
9272,1855
9273,1865
9274,1846
9275,1856
9276,1887
9277,1872
9278,1859
9279,1862
9280,1860
9281,1893
9282,1861
9283,1843
9284,1863
9285,1887
9286,1835
9287,1827
9288,1837
9289,1860
9290,1858
9291,1850
9292,1855
9293,1921
9294,1869
9295,1856
9296,1845
9297,1867
9298,1879
9299,1856
9300,1863
9301,1855
9302,1856
9303,1833
9304,1831
9305,1837
9306,1872
9307,1850
9308,1849
9309,1862
9310,1856
9311,1870
9312,1862
9313,1872
9314,1939
9315,1872
9316,1853
9317,1840
9318,1871
9319,1840
9320,1830
9321,1857
9322,1856
9323,1872
9324,1855
9325,1843
9326,1931
9327,1869
9328,1857
9329,1855
9330,1871
9331,1901
9332,1868
9333,1853
9334,1933
9335,1872
9336,1838
9337,1833
9338,1854
9339,1885
9340,1858
9341,1853
9342,1857
9343,1877
9344,1872
9345,1861
9346,1872
9347,1887
9348,1891
9349,1856
9350,1856
9351,1882
9352,1853
9353,1835
9354,1835
9355,1835
9356,1888
9357,1848
9358,1857
9359,1843
9360,1897
9361,1863
9362,1862
9363,1895
9364,1898
9365,1873
9366,1856
9367,1879
9368,1904
9369,1842
9370,1835
9371,1835
9372,1817
9373,1872
9374,1854
9375,1859
9376,1851
9377,1875
9378,1870
9379,1870
9380,1867
9381,1933
9382,1872
9383,1856
9384,1914
9385,1879
9386,1831
9387,1829
9388,1851
9389,1914
9390,1863
9391,1849
9392,1898
9393,1906
9394,1869
9395,1867
9396,1850
9397,1883
9398,1888
9399,1853
9400,1858
9401,1911
9402,1847
9403,1837
9404,1836
9405,1844
9406,1885
9407,1858
9408,1856
9409,1911
9410,1856
9411,1869
9412,1863
9413,1859
9414,1886
9415,1866
9416,1845
9417,1895
9418,1834
9419,1843
9420,1833
9421,1842
9422,1850
9423,1870
9424,1853
9425,1856
9426,1920
9427,1875
9428,1863
9429,1869
9430,1867
9431,1898
9432,1867
9433,1840
9434,1883
9435,1867
9436,1838
9437,1838
9438,1823
9439,1845
9440,1857
9441,1856
9442,1855
9443,1892
9444,1870
9445,1855
9446,1891
9447,1933
9448,1883
9449,1852
9450,1840
9451,1903
9452,1850
9453,1837
9454,1835
9455,1863
9456,1874
9457,1856
9458,1856
9459,1861
9460,1854
9461,1861
9462,1865
9463,1866
9464,1906
9465,1872
9466,1855
9467,1843
9468,1830
9469,1840
9470,1823
9471,1837
9472,1837
9473,1863
9474,1852
9475,1843
9476,1857
9477,1874
9478,1857
9479,1861
9480,1872
9481,1936
9482,1865
9483,1847
9484,1902
9485,1874
9486,1839
9487,1831
9488,1841
9489,1857
9490,1858
9491,1853
9492,1888
9493,1893
9494,1872
9495,1869
9496,1872
9497,1872
9498,1887
9499,1857
9500,1843
9501,1905
9502,1847
9503,1831
9504,1835
9505,1874
9506,1872
9507,1851
9508,1852
9509,1867
9510,1896
9511,1871
9512,1872
9513,1875
9514,1881
9515,1874
9516,1851
9517,1898
9518,1911
9519,1842
9520,1837
9521,1878
9522,1889
9523,1868
9524,1858
9525,1853
9526,1873
9527,1872
9528,1868
9529,1867
9530,1899
9531,1895
9532,1861
9533,1855
9534,1850
9535,1865
9536,1837
9537,1827
9538,1840
9539,1904
9540,1851
9541,1853
9542,1872
9543,1889
9544,1871
9545,1860
9546,1872
9547,1878
9548,1886
9549,1857
9550,1837
9551,1892
9552,1850
9553,1836
9554,1829
9555,1868
9556,1866
9557,1855
9558,1857
9559,1857
9560,1873
9561,1865
9562,1862
9563,1857
9564,1877
9565,1866
9566,1844
9567,1892
9568,1868
9569,1838
9570,1836
9571,1842
9572,1862
9573,1871
9574,1868
9575,1858
9576,1910
9577,1878
9578,1865
9579,1868
9580,1886
9581,1927
9582,1864
9583,1850
9584,1872
9585,1872
9586,1840
9587,1839
9588,1868
9589,1911
9590,1857
9591,1856
9592,1846
9593,1904
9594,1872
9595,1857
9596,1841
9597,1902
9598,1878
9599,1851
9600,1840
9601,1839
9602,1853
9603,1834
9604,1836
9605,1834
9606,1870
9607,1856
9608,1863
9609,1861
9610,1904
9611,1867
9612,1861
9613,1840
9614,1897
9615,1875
9616,1856
9617,1883
9618,1897
9619,1840
9620,1828
9621,1851
9622,1906
9623,1871
9624,1856
9625,1840
9626,1919
9627,1872
9628,1859
9629,1857
9630,1846
9631,1935
9632,1859
9633,1847
9634,1895
9635,1903
9636,1837
9637,1834
9638,1827
9639,1823
9640,1857
9641,1870
9642,1870
9643,1893
9644,1866
9645,1863
9646,1905
9647,1920
9648,1879
9649,1856
9650,1852
9651,1865
9652,1855
9653,1834
9654,1839
9655,1831
9656,1866
9657,1851
9658,1842
9659,1904
9660,1896
9661,1859
9662,1872
9663,1881
9664,1902
9665,1872
9666,1856
9667,1923
9668,1853
9669,1843
9670,1835
9671,1848
9672,1909
9673,1871
9674,1854
9675,1840
9676,1855
9677,1872
9678,1866
9679,1866
9680,1875
9681,1884
9682,1857
9683,1846
9684,1878
9685,1894
9686,1828
9687,1825
9688,1846
9689,1840
9690,1866
9691,1855
9692,1856
9693,1897
9694,1871
9695,1870
9696,1887
9697,1920
9698,1885
9699,1865
9700,1834
9701,1878
9702,1853
9703,1837
9704,1838
9705,1811
9706,1851
9707,1854
9708,1851
9709,1878
9710,1874
9711,1870
9712,1866
9713,1890
9714,1861
9715,1866
9716,1840
9717,1870
9718,1858
9719,1840
9720,1824
9721,1855
9722,1834
9723,1872
9724,1859
9725,1840
9726,1863
9727,1873
9728,1865
9729,1868
9730,1876
9731,1909
9732,1860
9733,1849
9734,1873
9735,1850
9736,1835
9737,1835
9738,1846
9739,1887
9740,1858
9741,1857
9742,1878
9743,1904
9744,1869
9745,1857
9746,1858
9747,1891
9748,1878
9749,1852
9750,1856
9751,1873
9752,1853
9753,1838
9754,1837
9755,1869
9756,1838
9757,1850
9758,1857
9759,1902
9760,1890
9761,1868
9762,1861
9763,1875
9764,1918
9765,1873
9766,1857
9767,1876
9768,1885
9769,1843
9770,1833
9771,1819
9772,1847
9773,1856
9774,1846
9775,1840
9776,1915
9777,1865
9778,1856
9779,1868
9780,1904
9781,1898
9782,1856
9783,1843
9784,1856
9785,1853
9786,1837
9787,1828
9788,1827
9789,1906
9790,1857
9791,1852
9792,1843
9793,1922
9794,1871
9795,1866
9796,1883
9797,1943
9798,1878
9799,1859
9800,1840
9801,1936
9802,1853
9803,1837
9804,1829
9805,1854
9806,1895
9807,1853
9808,1848
9809,1836
9810,1873
9811,1870
9812,1869
9813,1915
9814,1939
9815,1874
9816,1646
9817,2179
9818,2369
9819,2592
9820,2594
9821,2501
9822,2348
9823,1950
9824,1616
9825,1399
9826,1103
9827,1275
9828,1488
9829,1591
9830,1670
9831,1718
9832,1682
9833,1713
9834,1808
9835,1785
9836,1777
9837,1792
9838,1797
9839,1846
9840,1885
9841,1899
9842,1899
9843,1919
9844,1916
9845,1904
9846,1936
9847,1239
9848,2291
9849,2389
9850,2614
9851,2535
9852,2441
9853,2122
9854,1693
9855,1489
9856,1269
9857,1257
9858,1479
9859,1638
9860,1667
9861,1664
9862,1703
9863,1792
9864,1817
9865,1806
9866,1805
9867,1805
9868,1907
9869,1870
9870,1873
9871,1905
9872,1918
9873,1914
9874,1903
9875,1872
9876,1961
9877,1907
9878,563
9879,2261
9880,2349
9881,2667
9882,2559
9883,2433
9884,2064
9885,1664
9886,1371
9887,1216
9888,1447
9889,1687
9890,1657
9891,1647
9892,1649
9893,1694
9894,1763
9895,1777
9896,1802
9897,1890
9898,1872
9899,1867
9900,1882
9901,1927
9902,1897
9903,1876
9904,1877
9905,1856
9906,1920
9907,1890
9908,1893
9909,494
9910,2337
9911,2309
9912,2658
9913,2703
9914,2559
9915,2039
9916,1605
9917,1262
9918,1354
9919,1461
9920,1586
9921,1602
9922,1707
9923,1674
9924,1690
9925,1695
9926,1795
9927,1801
9928,1825
9929,1855
9930,1936
9931,1938
9932,1904
9933,1900
9934,1926
9935,1904
9936,1877
9937,1877
9938,1872
9939,1951
9940,1153
9941,2290
9942,2229
9943,2548
9944,2676
9945,2535
9946,2096
9947,1638
9948,1374
9949,1424
9950,1535
9951,1712
9952,1658
9953,1623
9954,1636
9955,1687
9956,1712
9957,1744
9958,1782
9959,1802
9960,1843
9961,1874
9962,1895
9963,1917
9964,1962
9965,1911
9966,1905
9967,1935
9968,1922
9969,1884
9970,1869
9971,1863
9972,2301
9973,2208
9974,2417
9975,2621
9976,2559
9977,2181
9978,1805
9979,1514
9980,1559
9981,1629
9982,1677
9983,1674
9984,1667
9985,1645
9986,1599
9987,1633
9988,1673
9989,1834
9990,1812
9991,1831
9992,1857
9993,1949
9994,1891
9995,1893
9996,1899
9997,1943
9998,1914
9999,1885
10000,1869
10001,1869
10002,1873
10003,2014
10004,2126
10005,2267
10006,2416
10007,2368
10008,2119
10009,1901
10010,1701
10011,1629
10012,1722
10013,1775
10014,1732
10015,1695
10016,1611
10017,1639
10018,1656
10019,1722
10020,1753
10021,1770
10022,1792
10023,1861
10024,1861
10025,1870
10026,1851
10027,1893
10028,1887
10029,1889
10030,1862
10031,1921
10032,1883
10033,1881
10034,1790
10035,2178
10036,2085
10037,2261
10038,2180
10039,2066
10040,2007
10041,1796
10042,1776
10043,1807
10044,1794
10045,1749
10046,1681
10047,1635
10048,1633
10049,1684
10050,1737
10051,1760
10052,1808
10053,1807
10054,1831
10055,1898
10056,1894
10057,1873
10058,1885
10059,1879
10060,1907
10061,1884
10062,1882
10063,1910
10064,1904
10065,1257
10066,2182
10067,2079
10068,2253
10069,2115
10070,1955
10071,2090
10072,1920
10073,1847
10074,1831
10075,1744
10076,1722
10077,1653
10078,1585
10079,1650
10080,1753
10081,1808
10082,1793
10083,1807
10084,1851
10085,1867
10086,1842
10087,1843
10088,1859
10089,1891
10090,1878
10091,1870
10092,1925
10093,1937
10094,1885
10095,1874
10096,660
10097,2273
10098,2112
10099,2205
10100,2104
10101,1923
10102,2065
10103,1889
10104,1807
10105,1826
10106,1792
10107,1707
10108,1616
10109,1616
10110,1675
10111,1741
10112,1790
10113,1840
10114,1882
10115,1858
10116,1870
10117,1889
10118,1874
10119,1853
10120,1847
10121,1860
10122,1882
10123,1904
10124,1888
10125,1887
10126,1911
10127,394
10128,2250
10129,2100
10130,2229
10131,2150
10132,1917
10133,2080
10134,1983
10135,1856
10136,1805
10137,1755
10138,1694
10139,1629
10140,1597
10141,1648
10142,1815
10143,1837
10144,1819
10145,1836
10146,1870
10147,1863
10148,1894
10149,1869
10150,1869
10151,1893
10152,1873
10153,1851
10154,1850
10155,1847
10156,1898
10157,1870
10158,774
10159,2275
10160,2133
10161,2227
10162,2151
10163,1927
10164,2160
10165,1946
10166,1808
10167,1885
10168,1763
10169,1712
10170,1621
10171,1598
10172,1698
10173,1749
10174,1783
10175,1765
10176,1849
10177,1872
10178,1870
10179,1878
10180,1922
10181,1907
10182,1869
10183,1871
10184,1887
10185,1890
10186,1854
10187,1849
10188,1914
10189,1158
10190,2257
10191,2093
10192,2200
10193,2192
10194,1895
10195,2090
10196,1984
10197,1901
10198,1855
10199,1789
10200,1726
10201,1710
10202,1615
10203,1626
10204,1713
10205,1792
10206,1826
10207,1824
10208,1847
10209,1869
10210,1897
10211,1876
10212,1875
10213,1933
10214,1888
10215,1885
10216,1868
10217,1906
10218,1900
10219,1856
10220,1840
10221,2107
10222,2162
10223,2183
10224,2186
10225,1906
10226,2099
10227,1968
10228,1817
10229,1837
10230,1808
10231,1799
10232,1678
10233,1619
10234,1670
10235,1729
10236,1744
10237,1774
10238,1808
10239,1859
10240,1866
10241,1862
10242,1856
10243,1939
10244,1881
10245,1881
10246,1872
10247,1889
10248,1903
10249,1872
10250,1895
10251,1861
10252,1955
10253,2096
10254,2150
10255,2224
10256,1974
10257,2021
10258,1967
10259,1829
10260,1847
10261,1809
10262,1759
10263,1731
10264,1685
10265,1648
10266,1707
10267,1796
10268,1817
10269,1795
10270,1815
10271,1838
10272,1905
10273,1879
10274,1887
10275,1861
10276,1863
10277,1890
10278,1882
10279,1883
10280,1895
10281,1920
10282,1872
10283,1615
10284,2172
10285,2138
10286,2192
10287,1945
10288,2012
10289,2004
10290,1833
10291,1829
10292,1815
10293,1757
10294,1710
10295,1629
10296,1654
10297,1733
10298,1791
10299,1781
10300,1791
10301,1840
10302,1856
10303,1840
10304,1846
10305,1858
10306,1887
10307,1867
10308,1872
10309,1901
10310,1899
10311,1873
10312,1870
10313,1874
10314,1251
10315,2191
10316,2112
10317,2265
10318,2068
10319,1954
10320,1973
10321,1808
10322,1821
10323,1830
10324,1770
10325,1681
10326,1657
10327,1646
10328,1712
10329,1771
10330,1794
10331,1853
10332,1843
10333,1850
10334,1889
10335,1877
10336,1846
10337,1845
10338,1840
10339,1925
10340,1871
10341,1865
10342,1879
10343,1892
10344,1879
10345,561
10346,2226
10347,2144
10348,2227
10349,2018
10350,1979
10351,2070
10352,1840
10353,1813
10354,1804
10355,1762
10356,1737
10357,1628
10358,1611
10359,1731
10360,1783
10361,1797
10362,1819
10363,1860
10364,1898
10365,1879
10366,1875
10367,1893
10368,1862
10369,1831
10370,1849
10371,1851
10372,1879
10373,1879
10374,1859
10375,1865
10376,402
10377,2273
10378,2101
10379,2224
10380,2128
10381,1958
10382,2047
10383,1853
10384,1894
10385,1837
10386,1763
10387,1690
10388,1620
10389,1587
10390,1669
10391,1719
10392,1750
10393,1805
10394,1833
10395,1853
10396,1873
10397,1903
10398,1887
10399,1861
10400,1924
10401,1875
10402,1871
10403,1850
10404,1851
10405,1870
10406,1875
10407,907
10408,2251
10409,2141
10410,2234
10411,2107
10412,1911
10413,2038
10414,1934
10415,1849
10416,1819
10417,1866
10418,1729
10419,1626
10420,1586
10421,1650
10422,1767
10423,1791
10424,1807
10425,1871
10426,1904
10427,1878
10428,1875
10429,1899
10430,1954
10431,1943
10432,1901
10433,1878
10434,1889
10435,1885
10436,1854
10437,1851
10438,1856
10439,1885
10440,1863
10441,1860
10442,1895
10443,1922
10444,1873
10445,1871
10446,1889
10447,1886
10448,1890
10449,1858
10450,1877
10451,1855
10452,1843
10453,1826
10454,1818
10455,1856
10456,1870
10457,1857
10458,1855
10459,1871
10460,1873
10461,1855
10462,1852
10463,1851
10464,1904
10465,1851
10466,1839
10467,1870
10468,1856
10469,1827
10470,1818
10471,1845
10472,1925
10473,1858
10474,1846
10475,1809
10476,1890
10477,1863
10478,1856
10479,1830
10480,1827
10481,1894
10482,1856
10483,1833
10484,1925
10485,1855
10486,1830
10487,1822
10488,1802
10489,1856
10490,1847
10491,1852
10492,1863
10493,1872
10494,1859
10495,1853
10496,1867
10497,1907
10498,1870
10499,1847
10500,1878
10501,1866
10502,1843
10503,1827
10504,1822
10505,1833
10506,1879
10507,1851
10508,1856
10509,1919
10510,1878
10511,1858
10512,1861
10513,1849
10514,1906
10515,1869
10516,1849
10517,1855
10518,1894
10519,1833
10520,1827
10521,1834
10522,1850
10523,1867
10524,1853
10525,1851
10526,1934
10527,1863
10528,1857
10529,1854
10530,1881
10531,1895
10532,1856
10533,1851
10534,1883
10535,1861
10536,1834
10537,1831
10538,1859
10539,1854
10540,1859
10541,1861
10542,1866
10543,1883
10544,1865
10545,1863
10546,1857
10547,1906
10548,1872
10549,1852
10550,1840
10551,1914
10552,1845
10553,1829
10554,1826
10555,1825
10556,1872
10557,1840
10558,1839
10559,1872
10560,1881
10561,1859
10562,1859
10563,1911
10564,1921
10565,1859
10566,1847
10567,1872
10568,1863
10569,1837
10570,1826
10571,1840
10572,1872
10573,1860
10574,1839
10575,1870
10576,1901
10577,1871
10578,1857
10579,1868
10580,1923
10581,1891
10582,1853
10583,1851
10584,1855
10585,1846
10586,1820
10587,1814
10588,1823
10589,1882
10590,1849
10591,1841
10592,1856
10593,1909
10594,1858
10595,1856
10596,1850
10597,1889
10598,1867
10599,1842
10600,1885
10601,1859
10602,1835
10603,1821
10604,1840
10605,1863
10606,1865
10607,1844
10608,1840
10609,1894
10610,1872
10611,1856
10612,1853
10613,1865
10614,1885
10615,1847
10616,1830
10617,1920
10618,1855
10619,1820
10620,1808
10621,1808
10622,1911
10623,1857
10624,1845
10625,1853
10626,1883
10627,1863
10628,1856
10629,1875
10630,1934
10631,1889
10632,1856
10633,1849
10634,1836
10635,1849
10636,1825
10637,1831
10638,1808
10639,1936
10640,1853
10641,1856
10642,1897
10643,1886
10644,1860
10645,1851
10646,1851
10647,1910
10648,1871
10649,1845
10650,1862
10651,1872
10652,1843
10653,1829
10654,1854
10655,1838
10656,1873
10657,1851
10658,1859
10659,1876
10660,1876
10661,1856
10662,1863
10663,1866
10664,1920
10665,1863
10666,1850
10667,1840
10668,1849
10669,1841
10670,1840
10671,1848
10672,1863
10673,1861
10674,1853
10675,1904
10676,1874
10677,1859
10678,1858
10679,1879
10680,1914
10681,1891
10682,1856
10683,1859
10684,1840
10685,1861
10686,1837
10687,1837
10688,1872
10689,1895
10690,1855
10691,1847
10692,1858
10693,1904
10694,1869
10695,1863
10696,1867
10697,1923
10698,1877
10699,1850
10700,1885
10701,1875
10702,1843
10703,1831
10704,1811
10705,1866
10706,1862
10707,1843
10708,1850
10709,1884
10710,1875
10711,1858
10712,1863
10713,1918
10714,1941
10715,1860
10716,1851
10717,1873
10718,1877
10719,1839
10720,1831
10721,1857
10722,1904
10723,1856
10724,1852
10725,1867
10726,1921
10727,1872
10728,1863
10729,1851
10730,1872
10731,1887
10732,1856
10733,1838
10734,1873
10735,1856
10736,1831
10737,1831
10738,1843
10739,1894
10740,1850
10741,1847
10742,1856
10743,1871
10744,1867
10745,1865
10746,1898
10747,1874
10748,1868
10749,1854
10750,1866
10751,1892
10752,1840
10753,1831
10754,1810
10755,1868
10756,1863
10757,1849
10758,1870
10759,1904
10760,1869
10761,1859
10762,1860
10763,1873
10764,1903
10765,1851
10766,1837
10767,1907
10768,1853
10769,1829
10770,1834
10771,1835
10772,1867
10773,1858
10774,1855
10775,1884
10776,1904
10777,1865
10778,1863
10779,1872
10780,1920
10781,1887
10782,1849
10783,1850
10784,1870
10785,1851
10786,1831
10787,1837
10788,1826
10789,1866
10790,1851
10791,1840
10792,1904
10793,1875
10794,1867
10795,1856
10796,1857
10797,1887
10798,1866
10799,1856
10800,1887
10801,1870
10802,1840
10803,1833
10804,1816
10805,1904
10806,1862
10807,1848
10808,1848
10809,1887
10810,1871
10811,1863
10812,1866
10813,1872
10814,1936
10815,1859
10816,1849
10817,1829
10818,1871
10819,1835
10820,1833
10821,1831
10822,1896
10823,1857
10824,1854
10825,1847
10826,1873
10827,1862
10828,1857
10829,1873
10830,1889
10831,1885
10832,1843
10833,1859
10834,1879
10835,1850
10836,1830
10837,1829
10838,1819
10839,1878
10840,1859
10841,1855
10842,1840
10843,1885
10844,1866
10845,1865
10846,1892
10847,1922
10848,1872
10849,1856
10850,1853
10851,1897
10852,1841
10853,1829
10854,1838
10855,1914
10856,1861
10857,1845
10858,1840
10859,1899
10860,1875
10861,1865
10862,1862
10863,1922
10864,1904
10865,1858
10866,1856
10867,1859
10868,1872
10869,1835
10870,1834
10871,1819
10872,1853
10873,1860
10874,1856
10875,1870
10876,1898
10877,1867
10878,1861
10879,1857
10880,1895
10881,1881
10882,1856
10883,1838
10884,1870
10885,1840
10886,1827
10887,1825
10888,1828
10889,1878
10890,1853
10891,1859
10892,1842
10893,1882
10894,1863
10895,1862
10896,1859
10897,1910
10898,1870
10899,1857
10900,1807
10901,1867
10902,1841
10903,1827
10904,1817
10905,1840
10906,1860
10907,1844
10908,1853
10909,1916
10910,1869
10911,1862
10912,1862
10913,1840
10914,1913
10915,1851
10916,1847
10917,1853
10918,1841
10919,1825
10920,1819
10921,1844
10922,1827
10923,1856
10924,1854
10925,1859
10926,1862
10927,1869
10928,1859
10929,1863
10930,1887
10931,1877
10932,1856
10933,1856
10934,1888
10935,1851
10936,1829
10937,1830
10938,1849
10939,1883
10940,1850
10941,1852
10942,1874
10943,1886
10944,1867
10945,1856
10946,1845
10947,1877
10948,1865
10949,1842
10950,1856
10951,1870
10952,1837
10953,1830
10954,1851
10955,1850
10956,1865
10957,1847
10958,1850
10959,1871
10960,1873
10961,1865
10962,1870
10963,1910
10964,1895
10965,1862
10966,1844
10967,1888
10968,1858
10969,1839
10970,1831
10971,1844
10972,1931
10973,1863
10974,1851
10975,1822
10976,1904
10977,1862
10978,1859
10979,1882
10980,1911
10981,1879
10982,1855
10983,1851
10984,1854
10985,1847
10986,1835
10987,1838
10988,1840
10989,1858
10990,1850
10991,1850
10992,1893
10993,1884
10994,1860
10995,1863
10996,1867
10997,1899
10998,1869
10999,1855
11000,1932
11001,1853
11002,1840
11003,1827
11004,1855
11005,1856
11006,1860
11007,1847
11008,1851
11009,1874
11010,1872
11011,1862
11012,1863
11013,1904
11014,1904
11015,1872
11016,1843
11017,1881
11018,1861
11019,1833
11020,1833
11021,1858
11022,1858
11023,1861
11024,1842
11025,1853
11026,1890
11027,1872
11028,1859
11029,1856
11030,1876
11031,1878
11032,1855
11033,1872
11034,1872
11035,1842
11036,1831
11037,1828
11038,1856
11039,1856
11040,1847
11041,1851
11042,1826
11043,1885
11044,1866
11045,1862
11046,1861
11047,1887
11048,1855
11049,1846
11050,1867
11051,1861
11052,1840
11053,1831
11054,1816
11055,1859
11056,1861
11057,1855
11058,1827
11059,1898
11060,1871
11061,1863
11062,1862
11063,1895
11064,1931
11065,1855
11066,1837
11067,1879
11068,1872
11069,1831
11070,1833
11071,1841
11072,1899
11073,1856
11074,1853
11075,1901
11076,1926
11077,1870
11078,1869
11079,1847
11080,1869
11081,1879
11082,1856
11083,1828
11084,1859
11085,1849
11086,1838
11087,1841
11088,1838
11089,1884
11090,1861
11091,1881
11092,1927
11093,1868
11094,1865
11095,1861
11096,1866
11097,1893
11098,1871
11099,1854
11100,1861
11101,1875
11102,1840
11103,1833
11104,1825
11105,1887
11106,1863
11107,1850
11108,1840
11109,1857
11110,1871
11111,1862
11112,1863
11113,1911
11114,1881
11115,1856
11116,1854
11117,1903
11118,1840
11119,1840
11120,1834
11121,1852
11122,1936
11123,1851
11124,1856
11125,1853
11126,1858
11127,1858
11128,1859
11129,1861
11130,1856
11131,1883
11132,1855
11133,1830
11134,1837
11135,1845
11136,1834
11137,1834
11138,1831
11139,1906
11140,1854
11141,1868
11142,1903
11143,1874
11144,1866
11145,1858
11146,1897
11147,1868
11148,1868
11149,1852
11150,1875
11151,1889
11152,1840
11153,1835
11154,1853
11155,1880
11156,1855
11157,1851
11158,1808
11159,1923
11160,1872
11161,1866
11162,1870
11163,1910
11164,1901
11165,1858
11166,1840
11167,1858
11168,1866
11169,1838
11170,1837
11171,1871
11172,1875
11173,1851
11174,1852
11175,1878
11176,1851
11177,1865
11178,1868
11179,1881
11180,1907
11181,1876
11182,1858
11183,1859
11184,1883
11185,1842
11186,1827
11187,1831
11188,1846
11189,1879
11190,1857
11191,1858
11192,1890
11193,1878
11194,1861
11195,1866
11196,1866
11197,1904
11198,1875
11199,1856
11200,1878
11201,1895
11202,1840
11203,1831
11204,1839
11205,1890
11206,1867
11207,1854
11208,1858
11209,1872
11210,1865
11211,1865
11212,1863
11213,1874
11214,1918
11215,1850
11216,1837
11217,1829
11218,1853
11219,1830
11220,1826
11221,1842
11222,1919
11223,1856
11224,1853
11225,1883
11226,1875
11227,1867
11228,1863
11229,1866
11230,1934
11231,1881
11232,1856
11233,1859
11234,1863
11235,1851
11236,1837
11237,1834
11238,1792
11239,1885
11240,1856
11241,1853
11242,1872
11243,1877
11244,1863
11245,1858
11246,1863
11247,1890
11248,1867
11249,1851
11250,1863
11251,1875
11252,1837
11253,1833
11254,1856
11255,1873
11256,1865
11257,1852
11258,1861
11259,1892
11260,1870
11261,1869
11262,1867
11263,1907
11264,1895
11265,1860
11266,1850
11267,1839
11268,1856
11269,1838
11270,1834
11271,1840
11272,1934
11273,1857
11274,1856
11275,1851
11276,1877
11277,1867
11278,1862
11279,1871
11280,1901
11281,1879
11282,1854
11283,1867
11284,1883
11285,1849
11286,1836
11287,1831
11288,1872
11289,1889
11290,1855
11291,1840
11292,1852
11293,1879
11294,1866
11295,1866
11296,1904
11297,1949
11298,1871
11299,1840
11300,1857
11301,1879
11302,1843
11303,1837
11304,1829
11305,1863
11306,1860
11307,1840
11308,1835
11309,1935
11310,1872
11311,1858
11312,1863
11313,1841
11314,1882
11315,1861
11316,1835
11317,1894
11318,1853
11319,1834
11320,1834
11321,1846
11322,1893
11323,1853
11324,1847
11325,1859
11326,1879
11327,1869
11328,1863
11329,1883
11330,1910
11331,1878
11332,1856
11333,1804
11334,1909
11335,1840
11336,1831
11337,1835
11338,1856
11339,1869
11340,1843
11341,1853
11342,1880
11343,1881
11344,1861
11345,1865
11346,1859
11347,1894
11348,1863
11349,1841
11350,1816
11351,1841
11352,1830
11353,1826
11354,1841
11355,1891
11356,1856
11357,1855
11358,1847
11359,1885
11360,1870
11361,1863
11362,1866
11363,1881
11364,1890
11365,1845
11366,1843
11367,1847
11368,1855
11369,1826
11370,1835
11371,1852
11372,1855
11373,1861
11374,1855
11375,1891
11376,1892
11377,1866
11378,1867
11379,1859
11380,1933
11381,1872
11382,1853
11383,1831
11384,1869
11385,1845
11386,1835
11387,1838
11388,1840
11389,1867
11390,1860
11391,1854
11392,1898
11393,1887
11394,1871
11395,1863
11396,1855
11397,1894
11398,1863
11399,1857
11400,1897
11401,1905
11402,1839
11403,1835
11404,1849
11405,1838
11406,1861
11407,1855
11408,1872
11409,1846
11410,1872
11411,1861
11412,1872
11413,1926
11414,1889
11415,1857
11416,1847
11417,1879
11418,1859
11419,1827
11420,1825
11421,1831
11422,1849
11423,1844
11424,1846
11425,1871
11426,1883
11427,1861
11428,1860
11429,1863
11430,1941
11431,1872
11432,1856
11433,1827
11434,559
11435,2222
11436,2263
11437,2545
11438,2641
11439,2559
11440,2433
11441,2047
11442,1666
11443,1477
11444,1138
11445,1178
11446,1430
11447,1603
11448,1600
11449,1633
11450,1635
11451,1701
11452,1737
11453,1754
11454,1761
11455,1808
11456,1840
11457,1857
11458,1914
11459,1942
11460,1917
11461,1910
11462,1909
11463,1916
11464,1930
11465,528
11466,2263
11467,2279
11468,2559
11469,2587
11470,2480
11471,2240
11472,1853
11473,1555
11474,1305
11475,1214
11476,1456
11477,1616
11478,1648
11479,1665
11480,1776
11481,1755
11482,1758
11483,1814
11484,1809
11485,1813
11486,1823
11487,1840
11488,1875
11489,1915
11490,1904
11491,1914
11492,1923
11493,1923
11494,1904
11495,1903
11496,1095
11497,2317
11498,2287
11499,2550
11500,2640
11501,2516
11502,2153
11503,1702
11504,1457
11505,1243
11506,1376
11507,1578
11508,1597
11509,1721
11510,1686
11511,1711
11512,1757
11513,1780
11514,1815
11515,1808
11516,1829
11517,1907
11518,1872
11519,1869
11520,1873
11521,1883
11522,1968
11523,1902
11524,1904
11525,1926
11526,1894
11527,1867
11528,2231
11529,2224
11530,2522
11531,2655
11532,2541
11533,2148
11534,1796
11535,1381
11536,1289
11537,1457
11538,1598
11539,1680
11540,1648
11541,1660
11542,1728
11543,1744
11544,1754
11545,1785
11546,1799
11547,1895
11548,1868
11549,1872
11550,1919
11551,1915
11552,1872
11553,1872
11554,1870
11555,1879
11556,1899
11557,1887
11558,1917
11559,2189
11560,2224
11561,2495
11562,2733
11563,2691
11564,2287
11565,1777
11566,1371
11567,1297
11568,1453
11569,1590
11570,1625
11571,1667
11572,1661
11573,1671
11574,1680
11575,1739
11576,1786
11577,1819
11578,1845
11579,1871
11580,1946
11581,1909
11582,1892
11583,1878
11584,1909
11585,1889
11586,1872
11587,1871
11588,1921
11589,1904
11590,1889
11591,2190
11592,2341
11593,2625
11594,2589
11595,2246
11596,1847
11597,1584
11598,1472
11599,1535
11600,1747
11601,1702
11602,1648
11603,1618
11604,1618
11605,1662
11606,1721
11607,1760
11608,1808
11609,1885
11610,1873
11611,1881
11612,1901
11613,1954
11614,1923
11615,1895
11616,1889
11617,1874
11618,1891
11619,1868
11620,1860
11621,1535
11622,2219
11623,2226
11624,2448
11625,2506
11626,2165
11627,1967
11628,1718
11629,1585
11630,1753
11631,1749
11632,1712
11633,1712
11634,1633
11635,1599
11636,1632
11637,1714
11638,1743
11639,1815
11640,1821
11641,1856
11642,1864
11643,1903
11644,1886
11645,1887
11646,1894
11647,1936
11648,1886
11649,1883
11650,1903
11651,1893
11652,947
11653,2170
11654,2118
11655,2320
11656,2288
11657,2064
11658,2023
11659,1867
11660,1745
11661,1785
11662,1791
11663,1766
11664,1744
11665,1617
11666,1577
11667,1674
11668,1739
11669,1763
11670,1785
11671,1821
11672,1857
11673,1861
11674,1859
11675,1904
11676,1895
11677,1888
11678,1885
11679,1895
11680,1920
11681,1892
11682,1872
11683,466
11684,2250
11685,2033
11686,2171
11687,2159
11688,2027
11689,2074
11690,1902
11691,1812
11692,1861
11693,1822
11694,1751
11695,1677
11696,1607
11697,1652
11698,1699
11699,1776
11700,1858
11701,1841
11702,1822
11703,1835
11704,1902
11705,1889
11706,1878
11707,1872
11708,1903
11709,1927
11710,1889
11711,1887
11712,1917
11713,1923
11714,457
11715,2226
11716,2067
11717,2241
11718,2174
11719,1924
11720,2028
11721,1941
11722,1891
11723,1820
11724,1790
11725,1744
11726,1706
11727,1607
11728,1629
11729,1699
11730,1805
11731,1809
11732,1809
11733,1809
11734,1907
11735,1851
11736,1840
11737,1877
11738,1909
11739,1891
11740,1872
11741,1872
11742,1936
11743,1897
11744,1877
11745,1051
11746,2265
11747,2127
11748,2179
11749,2158
11750,1978
11751,2043
11752,1953
11753,1839
11754,1807
11755,1801
11756,1738
11757,1663
11758,1598
11759,1679
11760,1725
11761,1777
11762,1808
11763,1855
11764,1875
11765,1859
11766,1866
11767,1865
11768,1872
11769,1847
11770,1850
11771,1859
11772,1911
11773,1873
11774,1875
11775,1911
11776,1872
11777,2190
11778,2103
11779,2170
11780,2224
11781,1942
11782,2035
11783,2001
11784,1887
11785,1824
11786,1778
11787,1712
11788,1680
11789,1633
11790,1630
11791,1712
11792,1778
11793,1819
11794,1828
11795,1850
11796,1886
11797,1904
11798,1878
11799,1870
11800,1899
11801,1875
11802,1859
11803,1854
11804,1865
11805,1884
11806,1876
11807,1867
11808,2047
11809,2194
11810,2173
11811,2206
11812,1968
11813,2059
11814,2015
11815,1863
11816,1830
11817,1850
11818,1744
11819,1666
11820,1598
11821,1627
11822,1775
11823,1770
11824,1791
11825,1812
11826,1867
11827,1871
11828,1875
11829,1873
11830,1914
11831,1887
11832,1872
11833,1859
11834,1883
11835,1863
11836,1853
11837,1857
11838,1927
11839,1889
11840,2129
11841,2149
11842,2256
11843,1987
11844,1998
11845,1998
11846,1886
11847,1892
11848,1808
11849,1734
11850,1776
11851,1658
11852,1600
11853,1664
11854,1720
11855,1822
11856,1819
11857,1837
11858,1881
11859,1893
11860,1877
11861,1876
11862,1889
11863,1917
11864,1904
11865,1863
11866,1859
11867,1902
11868,1872
11869,1846
11870,1453
11871,2139
11872,2159
11873,2205
11874,1978
11875,2000
11876,2044
11877,1889
11878,1857
11879,1869
11880,1870
11881,1719
11882,1617
11883,1620
11884,1669
11885,1739
11886,1761
11887,1811
11888,1873
11889,1865
11890,1853
11891,1856
11892,1915
11893,1904
11894,1882
11895,1885
11896,1882
11897,1904
11898,1875
11899,1872
11900,1873
11901,950
11902,2174
11903,2075
11904,2238
11905,2105
11906,1961
11907,2004
11908,1903
11909,1869
11910,1830
11911,1776
11912,1730
11913,1702
11914,1653
11915,1675
11916,1747
11917,1789
11918,1808
11919,1807
11920,1828
11921,1860
