Time(ms),Raw_ADC,ENV_Value,RMS,MDF,MW_Amp,MW_Area,MW_Latency,MW_Valid,Marker
0,1865.9,21.2,0.0,169.1,1727.0,6859.0,11.0,1,
100,1862.6,13.5,0.0,169.1,1727.0,6859.0,11.0,1,
200,1861.9,13.9,0.0,169.1,1727.0,6859.0,11.0,1,
300,1860.9,13.0,0.0,169.1,1727.0,6859.0,11.0,1,
400,1859.7,13.6,0.0,169.1,1727.0,6859.0,11.0,1,
500,1859.6,14.2,0.0,237.8,1727.0,6859.0,11.0,1,
600,1860.3,13.7,0.0,236.2,1727.0,6859.0,11.0,1,
700,1859.9,13.7,0.0,238.9,1727.0,6859.0,11.0,1,
800,1859.6,14.3,0.0,239.8,1727.0,6859.0,11.0,1,
900,1859.5,14.1,0.0,239.7,1727.0,6859.0,11.0,1,
1000,1833.5,231.1,0.0,49.5,1727.0,6859.0,11.0,1,
1100,1896.7,420.6,0.0,43.4,1294.0,4964.0,2.0,0,
1200,1855.4,367.1,0.0,43.5,1873.0,5586.0,2.0,0,
1300,1849.8,222.6,0.0,41.4,1712.0,5536.0,2.0,0,
1400,1848.9,254.7,0.0,38.6,1475.0,5144.0,2.0,0,
1500,1839.0,241.8,0.0,189.2,1477.0,5177.0,2.0,0,
1600,1881.9,83.9,231.4,254.2,814.0,2495.0,2.0,0,
1700,1861.1,14.8,231.4,189.3,814.0,2495.0,2.0,0,
1800,1860.9,13.3,231.4,93.2,814.0,2495.0,2.0,0,
1900,1861.3,13.3,231.4,75.1,814.0,2495.0,2.0,0,
2000,1858.8,13.2,231.4,50.5,814.0,2495.0,2.0,0,
2100,1858.2,13.3,231.4,239.0,814.0,2495.0,2.0,0,
2200,1859.9,12.8,231.4,239.4,814.0,2495.0,2.0,0,
2300,1859.0,13.8,231.4,226.8,814.0,2495.0,2.0,0,
2500,1859.1,13.6,231.4,238.7,814.0,2495.0,2.0,0,
2600,1827.4,120.3,227.9,105.4,814.0,2495.0,2.0,0,
2700,1907.8,177.6,220.7,150.4,2245.0,7884.0,9.0,1,
2800,1850.6,130.8,188.5,149.4,2050.0,6184.0,8.0,1,
2900,1855.0,139.2,170.1,166.1,1815.0,5967.0,8.0,1,
3000,1842.3,131.6,162.7,202.5,1655.0,5281.0,7.0,1,
3100,1851.7,102.6,149.1,201.3,1446.0,5239.0,8.0,1,
3200,1882.6,91.0,133.2,169.5,1026.0,4396.0,8.0,1,
3300,1852.3,16.3,132.2,170.3,1026.0,4396.0,8.0,1,
3500,1861.6,8.2,132.2,167.6,1026.0,4396.0,8.0,1,
3600,1858.5,8.7,132.1,147.6,1026.0,4396.0,8.0,1,
3700,1858.5,7.7,132.1,133.5,1026.0,4396.0,8.0,1,
3800,1859.5,7.2,132.0,123.3,1026.0,4396.0,8.0,1,
3900,1859.2,7.1,132.0,122.1,1026.0,4396.0,8.0,1,
4000,1859.7,6.6,132.0,130.5,1026.0,4396.0,8.0,1,
4100,1859.4,7.7,131.9,115.6,1026.0,4396.0,8.0,1,
4200,1858.8,8.2,131.9,100.4,1026.0,4396.0,8.0,1,
4300,1870.5,160.4,123.7,71.6,2194.0,8682.0,9.0,1,
4500,1848.0,109.3,119.8,106.1,1890.0,5717.0,7.0,1,
4600,1840.4,110.6,114.1,154.8,1647.0,5398.0,7.0,1,
4700,1882.6,122.6,112.6,200.3,1974.0,5963.0,8.0,1,
4800,1862.2,104.1,109.4,169.6,2085.0,5998.0,8.0,1,
4900,1844.8,11.6,113.5,201.3,1080.0,5031.0,8.0,1,
5000,1861.8,6.1,113.5,216.3,1080.0,5031.0,8.0,1,
5100,1861.5,6.1,113.5,233.2,1080.0,5031.0,8.0,1,
5200,1859.5,5.2,113.5,244.3,1080.0,5031.0,8.0,1,
5300,1857.9,7.8,113.5,217.6,1080.0,5031.0,8.0,1,
5500,1859.3,12.8,113.5,116.4,1080.0,5031.0,8.0,1,
5600,1859.8,16.1,113.6,118.1,1080.0,5031.0,8.0,1,
5700,1858.7,21.0,113.6,148.4,1080.0,5031.0,8.0,1,
5800,1860.8,16.7,113.8,83.8,1080.0,5031.0,8.0,1,
5900,1876.6,148.3,112.9,43.9,2250.0,9199.0,10.0,1,
6000,1855.6,126.0,113.0,83.5,2262.0,7389.0,8.0,1,
6100,1837.8,125.7,121.1,157.2,1865.0,5989.0,7.0,1,
6200,1849.9,93.1,123.0,195.2,1823.0,5904.0,8.0,1,
6300,1885.9,111.4,123.9,158.3,1751.0,5851.0,8.0,1,
6500,1851.5,37.3,123.4,157.9,1055.0,4714.0,7.0,1,
6600,1861.0,17.4,123.5,172.3,1055.0,4714.0,7.0,1,
6700,1860.8,15.3,123.6,195.1,1055.0,4714.0,7.0,1,
6800,1859.1,13.0,123.6,167.7,1055.0,4714.0,7.0,1,
6900,1859.5,11.4,123.7,110.5,1055.0,4714.0,7.0,1,
7000,1859.5,13.1,123.7,105.7,1055.0,4714.0,7.0,1,
7100,1860.0,15.0,123.8,105.2,1055.0,4714.0,7.0,1,
7200,1860.4,14.4,123.8,90.4,1055.0,4714.0,7.0,1,
7300,1859.8,13.2,123.8,99.7,1055.0,4714.0,7.0,1,
7500,1870.9,142.8,126.2,77.7,2181.0,8721.0,11.0,1,
7600,1839.5,136.6,132.5,155.3,2110.0,8164.0,10.0,1,
7700,1834.3,131.9,128.4,170.0,1926.0,6982.0,9.0,1,
7800,1887.3,133.4,125.2,190.3,1606.0,6069.0,8.0,1,
7900,1865.1,119.5,122.6,201.1,1864.0,5885.0,8.0,1,
8000,1852.9,195.5,124.1,172.0,2064.0,5838.0,8.0,1,
8100,1857.5,67.2,127.5,170.3,941.0,4000.0,8.0,1,
8200,1857.5,17.2,127.4,205.3,941.0,4000.0,8.0,1,
8300,1862.7,15.4,127.4,219.9,941.0,4000.0,8.0,1,
8500,1859.9,14.3,127.5,153.9,941.0,4000.0,8.0,1,
8600,1858.9,14.9,127.5,123.1,941.0,4000.0,8.0,1,
8700,1859.6,14.3,127.5,171.6,941.0,4000.0,8.0,1,
8800,1859.9,14.6,127.5,123.3,941.0,4000.0,8.0,1,
8900,1859.6,11.4,127.5,116.7,941.0,4000.0,8.0,1,
9000,1859.6,5.8,127.5,117.0,941.0,4000.0,8.0,1,
9100,1860.2,45.1,127.0,117.2,941.0,4000.0,8.0,1,
9200,1846.4,150.7,126.6,77.7,2250.0,8850.0,10.0,1,
9300,1847.3,126.4,125.2,79.4,1795.0,7111.0,8.0,1,
9500,1853.4,115.2,123.5,137.6,1886.0,6349.0,8.0,1,
9600,1855.7,206.5,120.0,151.1,1977.0,5973.0,8.0,1,
9700,1843.2,200.6,124.2,189.3,1977.0,5326.0,8.0,1,
9800,1862.7,20.8,127.4,245.5,870.0,3998.0,8.0,1,
9900,1857.4,15.0,127.2,263.6,870.0,3998.0,8.0,1,
10000,1863.5,13.7,127.3,260.7,870.0,3998.0,8.0,1,
10100,1858.7,14.8,127.3,254.1,870.0,3998.0,8.0,1,
10200,1859.2,15.4,127.3,212.8,870.0,3998.0,8.0,1,
10300,1860.3,15.6,127.3,117.1,870.0,3998.0,8.0,1,
10500,1858.2,16.1,127.3,177.9,870.0,3998.0,8.0,1,
10600,1857.3,16.2,127.3,157.1,870.0,3998.0,8.0,1,
10700,1858.0,16.0,127.4,177.7,870.0,3998.0,8.0,1,
10800,1828.4,138.9,126.3,82.1,2204.0,9462.0,11.0,1,
10900,1892.4,116.2,126.7,117.0,1444.0,6093.0,9.0,1,
11000,1874.7,92.6,126.1,158.4,1567.0,6541.0,9.0,1,
11100,1853.1,85.7,124.2,201.3,1424.0,5904.0,8.0,1,
11200,1856.5,230.7,121.5,231.8,1854.0,5800.0,8.0,1,
11300,1830.7,203.2,127.5,232.4,1950.0,5754.0,8.0,1,
11500,1862.2,8.7,123.9,233.4,1950.0,5754.0,8.0,1,
11600,1861.5,8.0,123.8,214.2,1950.0,5754.0,8.0,1,
11700,1860.6,7.4,123.8,169.7,1950.0,5754.0,8.0,1,
11800,1859.4,10.8,123.7,104.6,1950.0,5754.0,8.0,1,
11900,1858.7,11.7,123.7,87.9,1950.0,5754.0,8.0,1,
12000,1859.5,12.1,123.6,100.4,1950.0,5754.0,8.0,1,
12100,1859.7,10.8,123.5,118.1,1950.0,5754.0,8.0,1,
12200,1859.6,12.3,123.6,150.2,1950.0,5754.0,8.0,1,
12300,1859.1,12.1,123.6,184.1,1950.0,5754.0,8.0,1,
12500,1906.7,86.7,122.4,89.2,1655.0,7263.0,9.0,1,
12600,1856.2,163.6,122.2,93.6,1472.0,6126.0,9.0,1,
12700,1855.6,182.1,121.5,136.3,1355.0,5213.0,9.0,1,
12800,1850.3,191.7,126.5,194.4,1573.0,5020.0,9.0,1,
12900,1840.0,194.5,130.1,190.0,1752.0,5015.0,8.0,1,
13000,1885.3,68.0,127.2,231.7,747.0,3409.0,8.0,1,
13100,1859.8,16.0,127.2,263.8,747.0,3409.0,8.0,1,
13200,1862.0,14.0,127.3,243.4,747.0,3409.0,8.0,1,
13300,1861.5,13.1,127.3,158.5,747.0,3409.0,8.0,1,
13500,1859.6,13.4,127.4,171.4,747.0,3409.0,8.0,1,
13600,1860.0,12.2,127.4,210.7,747.0,3409.0,8.0,1,
13700,1859.7,12.7,127.4,182.7,747.0,3409.0,8.0,1,
13800,1859.3,12.0,127.4,210.7,747.0,3409.0,8.0,1,
13900,1860.0,12.4,127.5,167.5,747.0,3409.0,8.0,1,
14000,1821.7,62.9,124.7,81.0,1285.0,8378.0,15.0,1,
14100,1903.4,155.9,134.2,75.6,1362.0,7042.0,10.0,1,
14200,1854.2,193.9,136.4,82.2,1509.0,6595.0,10.0,1,
14300,1854.3,228.3,132.8,108.3,1699.0,5884.0,9.0,1,
14500,1864.8,203.8,142.0,220.3,1844.0,5061.0,8.0,1,
14600,1876.5,172.0,146.0,267.1,755.0,3466.0,9.0,1,
14700,1852.1,23.3,146.2,277.0,755.0,3466.0,9.0,1,
14800,1861.6,12.9,146.3,247.0,755.0,3466.0,9.0,1,
14900,1861.1,13.0,146.2,221.0,755.0,3466.0,9.0,1,rest_end
15000,1860.4,13.7,146.2,212.1,755.0,3466.0,9.0,1,
15100,1859.3,12.6,146.2,80.2,755.0,3466.0,9.0,1,
15200,1859.3,12.6,146.2,117.1,755.0,3466.0,9.0,1,
15300,1859.3,12.5,146.2,137.7,755.0,3466.0,9.0,1,
15500,1859.3,11.5,146.3,122.9,755.0,3466.0,9.0,1,
15600,1860.1,31.6,146.2,77.4,755.0,3466.0,9.0,1,
15700,1870.7,178.3,146.8,38.1,1378.0,7423.0,11.0,1,
15800,1852.6,203.7,141.9,66.3,1307.0,5731.0,10.0,1,
15900,1846.3,220.1,143.8,139.2,1540.0,5258.0,9.0,1,
16000,1840.9,180.4,145.7,201.0,1942.0,5238.0,9.0,1,
16100,1879.8,169.5,146.6,201.9,729.0,3106.0,9.0,1,
16200,1859.3,186.1,147.2,254.4,752.0,3297.0,9.0,1,
16300,1859.3,23.9,140.8,268.4,815.0,3215.0,9.0,1,
16500,1861.0,11.1,140.8,212.7,815.0,3215.0,9.0,1,
16600,1861.7,10.2,140.8,163.1,815.0,3215.0,9.0,1,
16700,1859.7,11.2,140.8,51.0,815.0,3215.0,9.0,1,
16800,1860.5,13.0,140.8,116.9,815.0,3215.0,9.0,1,
16900,1860.5,10.9,140.8,117.8,815.0,3215.0,9.0,1,
17000,1859.7,11.7,140.8,94.7,815.0,3215.0,9.0,1,
17100,1859.9,13.0,140.8,106.7,815.0,3215.0,9.0,1,
17200,1860.2,11.8,140.8,110.0,815.0,3215.0,9.0,1,
17300,1866.4,201.4,140.8,197.3,1694.0,8712.0,11.0,1,
17500,1826.2,224.5,144.1,220.2,1877.0,6244.0,9.0,1,
17600,1863.4,163.3,146.7,220.9,1735.0,5142.0,10.0,1,
17700,1874.1,188.8,146.9,253.2,743.0,3510.0,9.0,1,
17800,1857.0,164.1,144.4,265.9,717.0,3260.0,9.0,1,
17900,1863.5,33.7,138.2,264.7,817.0,3440.0,10.0,1,
18000,1861.9,16.0,138.2,254.9,817.0,3440.0,10.0,1,
18100,1862.9,12.4,138.3,253.9,817.0,3440.0,10.0,1,
18200,1862.4,13.0,138.3,208.6,817.0,3440.0,10.0,1,
18300,1860.2,13.9,138.4,71.7,817.0,3440.0,10.0,1,
18500,1859.8,13.1,138.4,101.0,817.0,3440.0,10.0,1,
18600,1860.6,15.1,138.4,108.4,817.0,3440.0,10.0,1,
18700,1860.6,13.2,138.4,117.1,817.0,3440.0,10.0,1,
18800,1860.0,13.5,138.4,117.1,817.0,3440.0,10.0,1,
18900,1860.6,55.0,136.1,82.3,1109.0,7549.0,15.0,1,
19000,1851.3,213.7,132.7,73.2,1315.0,6537.0,10.0,1,
19100,1839.7,180.4,134.3,88.6,1825.0,6116.0,10.0,1,
19200,1880.2,163.7,133.6,123.9,746.0,3604.0,9.0,1,
19300,1861.3,169.6,132.4,203.8,701.0,3570.0,9.0,1,
19500,1859.3,102.0,136.0,265.4,608.0,3316.0,9.0,1,
19600,1858.7,16.7,136.0,266.5,608.0,3316.0,9.0,1,
19700,1862.2,14.7,135.9,254.9,608.0,3316.0,9.0,1,
19800,1861.4,14.5,135.9,242.4,608.0,3316.0,9.0,1,
19900,1860.0,12.9,135.9,217.4,608.0,3316.0,9.0,1,
20000,1859.7,14.1,135.9,91.2,608.0,3316.0,9.0,1,
20100,1860.2,15.3,135.9,122.8,608.0,3316.0,9.0,1,
20200,1860.7,13.0,135.9,117.5,608.0,3316.0,9.0,1,
20300,1859.5,14.9,135.9,116.6,608.0,3316.0,9.0,1,
20500,1859.8,63.1,135.9,99.2,608.0,3316.0,9.0,1,
20600,1841.9,212.7,140.0,80.3,1550.0,8062.0,11.0,1,
20700,1861.4,184.8,143.5,89.8,1828.0,6397.0,10.0,1,
20800,1876.0,187.6,146.8,138.7,790.0,4013.0,9.0,1,
20900,1854.0,182.9,147.3,231.7,700.0,3519.0,9.0,1,
21000,1855.9,207.2,144.7,264.9,597.0,3320.0,9.0,1,
21100,1851.6,153.0,140.7,265.1,884.0,3903.0,10.0,1,
21200,1870.3,20.3,140.1,253.0,698.0,3478.0,10.0,1,
21300,1862.5,16.0,140.1,203.2,698.0,3478.0,10.0,1,
21500,1860.9,11.8,140.1,116.8,698.0,3478.0,10.0,1,
21600,1860.7,14.6,140.2,103.9,698.0,3478.0,10.0,1,
21700,1860.5,14.4,140.2,109.6,698.0,3478.0,10.0,1,
21800,1860.0,15.4,140.2,100.1,698.0,3478.0,10.0,1,
21900,1859.7,14.3,140.2,118.0,698.0,3478.0,10.0,1,
22000,1860.5,14.0,140.2,136.8,698.0,3478.0,10.0,1,
22100,1860.0,13.5,140.2,130.0,698.0,3478.0,10.0,1,
22200,1826.1,96.4,137.5,139.3,1803.0,8683.0,11.0,1,
22300,1888.4,181.6,140.4,190.2,937.0,4549.0,10.0,1,
22500,1854.7,164.0,136.6,235.3,997.0,4391.0,10.0,1,
22600,1854.3,187.6,133.3,234.7,931.0,4290.0,10.0,1,
22700,1838.9,195.2,137.7,204.1,1160.0,4223.0,9.0,1,
22800,1880.3,29.6,137.8,231.7,752.0,3422.0,10.0,1,
22900,1862.6,11.5,137.8,244.6,752.0,3422.0,10.0,1,
23000,1861.7,13.2,137.7,226.3,752.0,3422.0,10.0,1,
23100,1862.3,13.9,137.8,166.7,752.0,3422.0,10.0,1,
23200,1860.9,13.0,137.8,110.6,752.0,3422.0,10.0,1,
23300,1859.8,14.5,137.8,122.9,752.0,3422.0,10.0,1,
23500,1859.9,13.1,137.8,123.0,752.0,3422.0,10.0,1,
23600,1859.5,16.5,137.7,123.9,752.0,3422.0,10.0,1,
23700,1859.9,15.0,137.7,123.1,752.0,3422.0,10.0,1,
23800,1822.5,93.7,136.3,79.5,1320.0,8509.0,15.0,1,
23900,1894.4,201.3,144.7,74.9,1071.0,5099.0,10.0,1,
24000,1853.0,216.0,144.7,92.9,880.0,4479.0,10.0,1,
24100,1855.4,190.6,136.9,137.2,1040.0,4763.0,10.0,1,
24200,1847.0,187.2,139.1,211.4,1023.0,5094.0,10.0,1,
24300,1854.0,182.2,139.1,203.3,1229.0,4306.0,9.0,1,
24500,1860.2,18.3,143.6,266.4,1229.0,4306.0,9.0,1,
24600,1863.0,15.5,143.6,254.3,1229.0,4306.0,9.0,1,
24700,1862.7,12.8,143.6,220.8,1229.0,4306.0,9.0,1,
24800,1860.4,14.2,143.6,200.7,1229.0,4306.0,9.0,1,
24900,1859.8,15.8,143.6,143.5,1229.0,4306.0,9.0,1,
25000,1860.2,15.0,143.6,175.9,1229.0,4306.0,9.0,1,
25100,1859.6,15.0,143.6,176.8,1229.0,4306.0,9.0,1,
25200,1859.8,15.8,143.6,144.6,1229.0,4306.0,9.0,1,
25300,1860.8,14.4,143.7,177.2,1229.0,4306.0,9.0,1,
25500,1885.5,205.1,152.0,72.0,1132.0,5657.0,10.0,1,
25600,1851.4,218.1,146.5,84.7,786.0,4103.0,9.0,1,
25700,1853.5,204.4,143.1,168.6,982.0,4414.0,10.0,1,
25800,1843.4,188.0,148.1,234.9,650.0,3532.0,9.0,1,
25900,1871.0,176.1,150.5,234.4,612.0,3355.0,9.0,1,
26000,1869.8,125.8,147.6,254.1,639.0,3469.0,9.0,1,
26100,1852.7,19.6,147.5,264.5,639.0,3469.0,9.0,1,
26200,1862.2,14.1,147.5,253.2,639.0,3469.0,9.0,1,
26300,1862.1,12.9,147.5,229.5,639.0,3469.0,9.0,1,
26500,1860.9,14.4,147.5,69.1,639.0,3469.0,9.0,1,
26600,1860.0,14.4,147.5,113.7,639.0,3469.0,9.0,1,
26700,1860.2,15.7,147.5,122.5,639.0,3469.0,9.0,1,
26800,1859.8,14.6,147.5,138.3,639.0,3469.0,9.0,1,
26900,1859.9,13.8,147.5,116.5,639.0,3469.0,9.0,1,
27000,1860.3,47.0,147.5,66.4,639.0,3469.0,9.0,1,
27100,1866.8,151.7,148.1,89.6,1298.0,7077.0,11.0,1,
27200,1851.4,181.8,139.9,157.8,1066.0,5096.0,10.0,1,
27300,1844.0,188.6,137.1,202.7,1091.0,5342.0,10.0,1,
27500,1878.4,170.5,136.3,201.0,763.0,3816.0,9.0,1,
27600,1855.7,208.4,140.4,253.2,723.0,3707.0,9.0,1,
27700,1858.0,30.1,139.8,268.6,520.0,2995.0,9.0,1,
27800,1861.9,16.3,139.8,254.7,520.0,2995.0,9.0,1,
27900,1863.2,15.4,139.9,201.2,520.0,2995.0,9.0,1,
28000,1860.4,13.3,139.8,93.2,520.0,2995.0,9.0,1,
28100,1858.0,13.0,139.8,43.6,520.0,2995.0,9.0,1,
28200,1860.3,13.7,139.7,187.0,520.0,2995.0,9.0,1,
28300,1860.3,13.4,139.7,183.6,520.0,2995.0,9.0,1,
28500,1859.5,14.4,139.7,124.9,520.0,2995.0,9.0,1,
28600,1860.1,14.1,139.7,143.9,520.0,2995.0,9.0,1,
28700,1863.1,175.3,138.2,74.8,1373.0,9177.0,15.0,1,
28800,1851.3,202.6,141.7,70.6,1079.0,5281.0,9.0,1,
28900,1835.8,158.5,144.0,78.0,1469.0,5205.0,9.0,1,
29000,1874.1,152.0,147.3,136.2,770.0,3669.0,8.0,1,
29100,1866.0,193.6,148.3,264.6,753.0,3845.0,9.0,1,
29200,1854.8,169.6,149.0,296.8,630.0,3351.0,9.0,1,
29300,1860.8,49.4,149.0,276.4,554.0,3003.0,8.0,1,
29500,1862.6,15.2,149.0,242.0,554.0,3003.0,8.0,1,
29600,1860.7,15.6,149.0,159.2,554.0,3003.0,8.0,1,
29700,1860.0,15.2,149.0,56.9,554.0,3003.0,8.0,1,
29800,1860.7,14.4,149.1,143.8,554.0,3003.0,8.0,1,
29900,1860.2,15.3,149.1,155.7,554.0,3003.0,8.0,1,
30000,1859.7,16.1,149.1,177.7,554.0,3003.0,8.0,1,
30100,1860.3,14.4,149.1,219.1,554.0,3003.0,8.0,1,
30200,1859.8,16.3,149.1,217.6,554.0,3003.0,8.0,1,
30300,1860.9,123.5,149.0,77.9,1288.0,9092.0,15.0,1,
30500,1848.1,184.4,143.6,67.6,1452.0,6341.0,9.0,1,
30600,1887.0,171.3,142.7,73.6,1073.0,4820.0,9.0,1,
30700,1857.1,175.5,140.4,125.7,958.0,4757.0,9.0,1,
30800,1855.7,182.9,132.7,233.4,834.0,4291.0,9.0,1,
30900,1857.5,99.2,136.6,266.3,809.0,3995.0,9.0,1,
31000,1858.0,18.6,136.6,268.0,809.0,3995.0,9.0,1,
31100,1862.0,16.6,136.6,263.6,809.0,3995.0,9.0,1,
31200,1861.1,14.4,136.6,240.9,809.0,3995.0,9.0,1,
31300,1859.8,15.7,136.7,220.9,809.0,3995.0,9.0,1,
31500,1860.3,18.6,136.7,70.9,809.0,3995.0,9.0,1,
31600,1860.4,13.7,136.7,73.3,809.0,3995.0,9.0,1,
31700,1860.2,14.9,136.7,77.9,809.0,3995.0,9.0,1,
31800,1860.2,15.9,136.7,81.3,809.0,3995.0,9.0,1,
31900,1856.0,139.6,137.0,134.3,809.0,3995.0,9.0,1,
32000,1839.8,195.8,140.3,71.4,1431.0,8493.0,11.0,1,
32100,1875.8,160.2,140.0,124.0,896.0,4592.0,10.0,1,
32200,1870.8,195.4,146.2,169.3,788.0,4129.0,10.0,1,
32300,1854.1,200.2,144.8,204.8,665.0,3659.0,10.0,1,
32500,1847.0,145.2,145.5,262.7,577.0,3285.0,10.0,1,
32600,1876.3,21.2,144.4,264.0,586.0,3193.0,10.0,1,
32700,1862.8,17.0,144.4,245.4,586.0,3193.0,10.0,1,
32800,1863.6,15.0,144.5,220.1,586.0,3193.0,10.0,1,
32900,1860.5,15.3,144.4,169.6,586.0,3193.0,10.0,1,
33000,1858.2,16.7,144.4,142.9,586.0,3193.0,10.0,1,
33100,1860.0,15.1,144.4,174.1,586.0,3193.0,10.0,1,
33200,1860.1,14.9,144.4,145.3,586.0,3193.0,10.0,1,
33300,1861.2,15.0,144.4,155.0,586.0,3193.0,10.0,1,
33500,1860.9,14.7,144.4,178.6,586.0,3193.0,10.0,1,
33600,1823.9,213.3,148.5,125.6,1638.0,9252.0,11.0,1,
33700,1900.7,186.6,151.4,154.7,1229.0,6217.0,9.0,1,
33800,1855.9,240.3,156.9,184.4,840.0,4501.0,9.0,1,
33900,1851.5,252.8,156.1,260.6,573.0,3245.0,9.0,1,
34000,1855.0,193.7,158.5,278.1,736.0,3526.0,10.0,1,
34100,1844.1,158.4,159.4,275.0,1050.0,3790.0,9.0,1,
34200,1881.4,37.0,161.4,277.1,463.0,2957.0,10.0,1,
34300,1862.1,16.6,161.3,265.1,463.0,2957.0,10.0,1,
34500,1859.8,16.1,161.2,84.9,463.0,2957.0,10.0,1,
34600,1859.2,14.9,161.3,54.7,463.0,2957.0,10.0,1,
34700,1858.0,15.3,161.2,117.5,463.0,2957.0,10.0,1,
34800,1859.6,15.9,161.2,146.9,463.0,2957.0,10.0,1,
34900,1860.1,15.5,161.2,165.3,463.0,2957.0,10.0,1,
35000,1860.3,15.8,161.1,178.4,463.0,2957.0,10.0,1,
35100,1861.2,17.0,161.2,195.7,463.0,2957.0,10.0,1,
35200,1832.4,111.8,156.1,70.0,1401.0,9275.0,14.0,1,
35300,1894.2,170.0,162.2,67.7,1112.0,5723.0,10.0,1,
35500,1857.7,307.9,173.3,124.4,683.0,3149.0,2.0,0,
35600,1848.8,127.4,177.6,158.4,1662.0,4148.0,2.0,0,
35700,1859.2,78.7,167.8,106.5,700.0,4041.0,15.0,1,
35800,1873.7,37.6,164.1,86.4,754.0,4084.0,14.0,1,
35900,1860.4,16.9,164.1,74.7,754.0,4084.0,14.0,1,
36000,1862.4,16.2,164.1,53.6,754.0,4084.0,14.0,1,
36100,1862.3,15.1,164.1,52.1,754.0,4084.0,14.0,1,
36200,1860.8,15.8,164.1,55.2,754.0,4084.0,14.0,1,
36300,1859.3,16.3,164.1,177.8,754.0,4084.0,14.0,1,
36500,1859.4,16.9,164.1,177.9,754.0,4084.0,14.0,1,
36600,1859.7,16.3,164.1,177.3,754.0,4084.0,14.0,1,
36700,1860.3,15.5,164.1,136.0,754.0,4084.0,14.0,1,
36800,1843.5,108.2,162.5,141.4,1341.0,9205.0,15.0,1,
36900,1879.3,212.7,168.8,68.3,1241.0,6692.0,10.0,1,
37000,1854.7,206.3,165.8,80.2,846.0,4732.0,9.0,1,
37100,1847.0,214.0,154.4,135.3,1526.0,4537.0,9.0,1,
37200,1848.7,164.9,138.3,233.5,1478.0,4693.0,9.0,1,
37300,1876.1,103.1,143.1,264.7,761.0,4039.0,14.0,1,
37500,1852.2,19.6,152.1,53.3,761.0,4039.0,14.0,1,
37600,1861.8,14.1,152.1,72.3,761.0,4039.0,14.0,1,
37700,1861.9,14.7,152.1,149.4,761.0,4039.0,14.0,1,
37800,1860.6,15.2,152.0,149.4,761.0,4039.0,14.0,1,
37900,1858.4,13.7,152.0,72.0,761.0,4039.0,14.0,1,
38000,1860.0,13.6,152.0,203.6,761.0,4039.0,14.0,1,
38100,1860.3,15.1,152.0,197.8,761.0,4039.0,14.0,1,
38200,1859.8,13.3,152.0,177.2,761.0,4039.0,14.0,1,
38300,1860.0,13.2,152.0,148.6,761.0,4039.0,14.0,1,
38500,1873.5,253.9,149.0,135.4,1808.0,8430.0,10.0,1,
38600,1837.0,252.0,152.0,205.0,1497.0,5122.0,10.0,1,
38700,1840.5,190.7,151.8,253.7,1771.0,6202.0,10.0,1,
38800,1867.0,186.9,155.0,267.3,1908.0,5278.0,10.0,1,
38900,1875.6,194.7,156.3,266.4,640.0,3478.0,10.0,1,
39000,1863.0,189.4,160.9,266.2,628.0,3766.0,10.0,1,
39100,1859.2,24.5,155.0,274.4,634.0,3608.0,10.0,1,
39200,1861.8,14.2,155.0,254.6,634.0,3608.0,10.0,1,
39300,1862.2,14.9,155.0,225.7,634.0,3608.0,10.0,1,
39500,1859.0,14.9,155.0,88.5,634.0,3608.0,10.0,1,
39600,1859.9,15.3,155.0,138.0,634.0,3608.0,10.0,1,
39700,1860.5,13.9,155.0,149.3,634.0,3608.0,10.0,1,
39800,1860.1,15.2,155.0,176.9,634.0,3608.0,10.0,1,
39900,1860.2,18.4,155.0,229.7,634.0,3608.0,10.0,1,
40000,1861.0,16.0,155.1,122.8,634.0,3608.0,10.0,1,
40100,1872.9,223.9,153.3,77.0,1928.0,9868.0,11.0,1,
40200,1839.1,263.5,155.6,137.3,2045.0,7533.0,9.0,1,
40300,1844.7,212.2,160.8,204.1,2140.0,6600.0,9.0,1,
40500,1866.8,174.2,161.8,285.3,627.0,3859.0,9.0,1,
40600,1862.2,226.1,156.6,273.5,959.0,4306.0,10.0,1,
40700,1857.7,41.8,156.7,285.4,696.0,3677.0,10.0,1,
40800,1860.6,17.0,156.7,265.9,696.0,3677.0,10.0,1,
40900,1862.8,15.2,156.7,220.0,696.0,3677.0,10.0,1,
41000,1861.2,14.9,156.7,158.6,696.0,3677.0,10.0,1,
41100,1859.0,16.4,156.7,100.9,696.0,3677.0,10.0,1,
41200,1858.2,15.6,156.7,166.9,696.0,3677.0,10.0,1,
41300,1859.8,16.2,156.7,216.5,696.0,3677.0,10.0,1,
41500,1860.3,15.7,156.7,238.5,696.0,3677.0,10.0,1,
41600,1859.5,17.9,156.7,240.2,696.0,3677.0,10.0,1,
41700,1853.9,135.1,156.4,74.5,1297.0,8988.0,15.0,1,
41800,1840.0,198.6,158.2,66.1,2208.0,9520.0,12.0,1,
41900,1867.4,231.8,157.8,71.4,2109.0,6872.0,10.0,1,
42000,1882.2,167.4,152.2,109.2,1187.0,5308.0,10.0,1,
42100,1862.0,232.7,152.8,220.3,1413.0,5271.0,10.0,1,
42200,1858.7,254.6,148.4,263.6,1662.0,4901.0,10.0,1,
42300,1857.2,68.8,151.3,285.1,832.0,4008.0,11.0,1,
42500,1862.9,15.8,151.2,231.1,832.0,4008.0,11.0,1,
42600,1861.4,16.4,151.2,190.2,832.0,4008.0,11.0,1,
42700,1859.5,14.9,151.2,158.3,832.0,4008.0,11.0,1,
42800,1858.6,15.9,151.3,76.4,832.0,4008.0,11.0,1,
42900,1860.1,16.5,151.3,83.7,832.0,4008.0,11.0,1,
43000,1860.3,15.1,151.3,178.3,832.0,4008.0,11.0,1,
43100,1860.1,16.5,151.3,178.3,832.0,4008.0,11.0,1,
43200,1860.7,17.7,151.3,238.6,832.0,4008.0,11.0,1,
43300,1842.0,83.9,151.4,240.2,832.0,4008.0,11.0,1,
43500,1894.1,107.6,143.0,67.1,987.0,6533.0,14.0,1,
43600,1867.3,188.1,135.9,68.3,1811.0,6401.0,11.0,1,
43700,1856.0,242.9,137.3,93.8,1958.0,5673.0,10.0,1,
43800,1841.7,234.0,149.1,184.1,2028.0,5358.0,10.0,1,
43900,1843.5,207.9,157.6,168.1,1994.0,5499.0,10.0,1,
44000,1879.8,24.3,159.3,54.7,1994.0,5499.0,10.0,1,
44100,1861.8,20.6,159.3,52.7,1994.0,5499.0,10.0,1,
44200,1861.5,21.1,159.4,53.0,1994.0,5499.0,10.0,1,
44300,1858.9,24.1,159.5,53.5,1994.0,5499.0,10.0,1,
44500,1859.5,25.3,159.7,239.8,1994.0,5499.0,10.0,1,
44600,1859.0,25.6,159.7,240.6,1994.0,5499.0,10.0,1,
44700,1859.5,25.7,159.8,240.8,1994.0,5499.0,10.0,1,
44800,1859.8,25.0,159.9,241.2,1994.0,5499.0,10.0,1,
44900,1860.0,25.3,160.0,240.9,1994.0,5499.0,10.0,1,
45000,1831.5,269.9,166.5,77.9,1938.0,9723.0,10.0,1,
45100,1896.0,226.7,175.8,74.0,2247.0,7340.0,10.0,1,
45200,1857.5,198.8,183.9,86.0,2118.0,6812.0,11.0,1,
45300,1855.0,126.2,185.2,157.3,818.0,4911.0,14.0,1,
45500,1864.3,83.4,154.4,70.1,779.0,5006.0,15.0,1,
45600,1874.5,33.3,147.4,68.7,798.0,4809.0,15.0,1,
45700,1861.8,23.5,147.5,88.7,798.0,4809.0,15.0,1,
45800,1861.8,24.8,147.5,44.2,798.0,4809.0,15.0,1,
45900,1859.1,24.7,147.5,41.2,798.0,4809.0,15.0,1,
46000,1858.9,23.9,147.5,70.7,798.0,4809.0,15.0,1,
46100,1859.1,24.6,147.5,239.7,798.0,4809.0,15.0,1,
46200,1859.9,24.9,147.5,242.1,798.0,4809.0,15.0,1,
46300,1860.0,24.5,147.5,240.9,798.0,4809.0,15.0,1,
46500,1859.4,26.1,147.5,240.0,798.0,4809.0,15.0,1,
46600,1860.9,183.2,139.4,117.3,2473.0,10402.0,12.0,1,
46700,1882.0,245.6,132.2,133.6,2397.0,9319.0,11.0,1,
46800,1852.1,272.4,129.7,175.2,2035.0,7932.0,11.0,1,
46900,1843.3,165.1,135.9,231.5,1990.0,6602.0,10.0,1,
47000,1840.9,205.0,142.0,267.0,1754.0,6828.0,10.0,1,
47100,1880.5,234.4,152.4,265.9,1721.0,5251.0,10.0,1,
47200,1864.3,71.5,158.6,266.0,805.0,4360.0,10.0,1,
47300,1860.0,25.5,158.6,260.5,805.0,4360.0,10.0,1,
47500,1860.1,23.1,158.5,123.3,805.0,4360.0,10.0,1,
47600,1858.0,24.7,158.5,67.4,805.0,4360.0,10.0,1,
47700,1858.8,24.1,158.5,240.6,805.0,4360.0,10.0,1,
47800,1859.8,23.3,158.5,240.1,805.0,4360.0,10.0,1,
47900,1859.0,24.5,158.5,240.1,805.0,4360.0,10.0,1,
48000,1859.9,24.5,158.5,240.7,805.0,4360.0,10.0,1,
48100,1859.7,23.3,158.4,240.0,805.0,4360.0,10.0,1,
48200,1867.6,75.6,159.7,130.2,1308.0,9252.0,14.0,1,
48300,1864.6,98.1,158.0,67.2,1401.0,9749.0,14.0,1,
48500,1832.6,81.9,136.2,70.7,889.0,5407.0,14.0,1,
48600,1858.7,251.2,138.6,93.5,1412.0,5318.0,10.0,1,
48700,1878.0,119.9,136.2,84.4,756.0,5025.0,15.0,1,
48800,1865.9,76.9,122.3,75.0,820.0,4935.0,16.0,1,
48900,1851.0,25.3,122.3,67.9,820.0,4935.0,16.0,1,
49000,1861.8,23.2,122.3,54.0,820.0,4935.0,16.0,1,
49100,1860.3,23.6,122.3,48.5,820.0,4935.0,16.0,1,
49200,1856.5,27.6,122.3,46.6,820.0,4935.0,16.0,1,
49300,1860.3,27.8,122.4,177.9,820.0,4935.0,16.0,1,
49500,1859.5,29.2,122.5,237.5,820.0,4935.0,16.0,1,
49600,1859.6,28.4,122.6,239.5,820.0,4935.0,16.0,1,
49700,1858.7,31.4,122.7,239.4,820.0,4935.0,16.0,1,
49800,1858.2,32.2,122.8,237.4,820.0,4935.0,16.0,1,
49900,1867.8,152.4,126.4,67.1,1446.0,10203.0,15.0,1,
50000,1842.8,107.9,126.3,66.3,1139.0,7513.0,13.0,1,
50100,1836.2,191.8,131.6,66.3,1704.0,6921.0,10.0,1,
50200,1881.4,244.9,142.5,70.1,2069.0,5912.0,10.0,1,
50300,1869.8,241.5,143.6,159.0,2065.0,5167.0,10.0,1,
50500,1842.3,40.1,158.2,265.2,2065.0,5167.0,10.0,1,
50600,1860.2,31.2,158.3,227.2,2065.0,5167.0,10.0,1,
50700,1861.2,32.7,158.4,157.7,2065.0,5167.0,10.0,1,
50800,1860.2,31.6,158.6,88.7,2065.0,5167.0,10.0,1,
50900,1858.1,32.4,158.6,145.8,2065.0,5167.0,10.0,1,
51000,1857.9,31.7,158.6,239.5,2065.0,5167.0,10.0,1,
51100,1858.5,30.7,158.7,239.4,2065.0,5167.0,10.0,1,
51200,1859.2,31.9,158.7,238.8,2065.0,5167.0,10.0,1,
51300,1859.6,31.7,158.7,239.6,2065.0,5167.0,10.0,1,
51500,1875.1,180.4,157.1,66.7,1350.0,9735.0,15.0,1,
51600,1828.6,154.6,159.4,47.3,1836.0,8293.0,10.0,1,
51700,1859.1,253.0,165.9,66.4,1518.0,7279.0,11.0,1,
51800,1883.4,217.6,166.1,115.6,2157.0,6686.0,10.0,1,
51900,1864.0,193.6,164.8,234.2,1982.0,6503.0,12.0,1,
52000,1860.5,244.4,162.4,265.9,1933.0,5923.0,12.0,1,
52100,1847.5,62.5,163.2,262.7,757.0,4605.0,11.0,1,
52200,1859.5,30.8,163.2,225.6,757.0,4605.0,11.0,1,
52300,1861.0,29.9,163.2,165.0,757.0,4605.0,11.0,1,
52500,1858.0,31.6,163.0,100.2,757.0,4605.0,11.0,1,
52600,1856.6,32.1,163.0,239.0,757.0,4605.0,11.0,1,
52700,1858.8,32.7,163.0,239.3,757.0,4605.0,11.0,1,
52800,1859.6,33.3,163.1,238.2,757.0,4605.0,11.0,1,
52900,1859.8,32.5,163.1,238.1,757.0,4605.0,11.0,1,
53000,1859.6,33.8,163.1,238.7,757.0,4605.0,11.0,1,
53100,1862.8,166.5,163.6,123.9,1837.0,8963.0,11.0,1,
53200,1828.0,208.8,162.7,84.8,1668.0,9433.0,11.0,1,
53300,1889.9,253.6,167.6,140.9,2124.0,6492.0,10.0,1,
53500,1860.7,253.5,164.0,253.6,2033.0,5954.0,10.0,1,
53600,1843.6,263.7,168.6,266.1,1646.0,5268.0,10.0,1,
53700,1869.4,79.8,163.9,291.2,865.0,4205.0,11.0,1,
53800,1856.6,31.3,163.9,264.7,865.0,4205.0,11.0,1,
53900,1861.6,31.3,163.9,183.5,865.0,4205.0,11.0,1,
54000,1860.2,31.7,164.0,113.8,865.0,4205.0,11.0,1,
54100,1859.3,31.6,164.0,90.1,865.0,4205.0,11.0,1,
54200,1858.3,32.7,164.1,239.0,865.0,4205.0,11.0,1,
54300,1858.3,33.4,164.1,239.4,865.0,4205.0,11.0,1,
54500,1859.8,33.1,164.0,239.3,865.0,4205.0,11.0,1,
54600,1859.9,32.5,164.0,239.5,865.0,4205.0,11.0,1,
54700,1838.6,104.5,162.9,239.4,865.0,4205.0,11.0,1,
54800,1851.9,200.5,164.2,68.9,1552.0,10197.0,11.0,1,
54900,1896.2,216.9,161.0,72.8,2149.0,6771.0,11.0,1,
55000,1861.9,204.6,159.5,102.3,2015.0,6772.0,12.0,1,
55100,1854.6,282.6,161.8,200.7,1888.0,5820.0,10.0,1,
55200,1836.0,233.2,163.3,265.2,1650.0,5118.0,11.0,1,
55300,1854.8,179.8,164.3,276.9,1246.0,4619.0,11.0,1,
55500,1861.7,30.8,166.0,163.4,1246.0,4619.0,11.0,1,
55600,1862.0,29.0,166.0,51.7,1246.0,4619.0,11.0,1,
55700,1861.8,31.2,166.1,45.3,1246.0,4619.0,11.0,1,
55800,1858.8,33.4,166.1,116.3,1246.0,4619.0,11.0,1,
55900,1856.9,33.2,166.1,239.6,1246.0,4619.0,11.0,1,
56000,1859.7,34.2,166.1,239.4,1246.0,4619.0,11.0,1,
56100,1859.6,34.0,166.1,239.3,1246.0,4619.0,11.0,1,
56200,1859.5,32.8,166.1,239.3,1246.0,4619.0,11.0,1,
56300,1859.2,35.0,166.1,239.2,1246.0,4619.0,11.0,1,
56500,1882.6,210.8,167.5,79.6,2142.0,7809.0,11.0,1,
56600,1853.7,160.8,162.4,90.9,1862.0,7575.0,11.0,1,
56700,1844.6,176.2,164.8,157.1,1540.0,5909.0,11.0,1,
56800,1838.5,129.9,162.3,232.6,1337.0,5088.0,11.0,1,
56900,1868.7,249.0,160.9,231.9,2014.0,5739.0,11.0,1,
57000,1862.6,56.9,166.6,246.7,664.0,4379.0,11.0,1,
57100,1860.2,31.1,166.6,242.5,664.0,4379.0,11.0,1,
57200,1860.9,31.7,166.6,211.3,664.0,4379.0,11.0,1,
57300,1861.8,33.3,166.6,173.3,664.0,4379.0,11.0,1,
57500,1856.9,33.7,166.6,239.3,664.0,4379.0,11.0,1,
57600,1859.4,33.4,166.6,239.2,664.0,4379.0,11.0,1,
57700,1859.7,32.5,166.6,238.9,664.0,4379.0,11.0,1,
57800,1859.3,33.4,166.6,238.8,664.0,4379.0,11.0,1,
57900,1859.3,33.6,166.6,239.5,664.0,4379.0,11.0,1,
58000,1869.3,141.5,166.0,67.9,1379.0,9932.0,14.0,1,
58100,1870.2,214.3,161.6,49.4,1840.0,9194.0,11.0,1,
58200,1853.1,191.8,165.9,66.1,1368.0,6720.0,11.0,1,
58300,1836.3,186.7,170.5,93.1,1366.0,6095.0,10.0,1,
58500,1884.7,206.8,174.6,253.8,2049.0,6805.0,11.0,1,
58600,1857.2,74.6,171.3,268.1,954.0,4772.0,11.0,1,
58700,1859.4,32.4,171.3,236.9,954.0,4772.0,11.0,1,
58800,1861.4,33.2,171.4,156.1,954.0,4772.0,11.0,1,
58900,1859.5,33.8,171.3,83.4,954.0,4772.0,11.0,1,
59000,1856.8,35.0,171.3,57.4,954.0,4772.0,11.0,1,
59100,1859.0,34.2,171.4,238.2,954.0,4772.0,11.0,1,
59200,1860.1,32.4,171.4,237.4,954.0,4772.0,11.0,1,
59300,1859.3,33.6,171.4,238.3,954.0,4772.0,11.0,1,
59500,1859.6,33.0,171.4,239.5,954.0,4772.0,11.0,1,
59600,1877.4,128.8,168.3,183.9,1952.0,9810.0,11.0,1,
59700,1859.2,188.8,170.0,133.0,1570.0,10079.0,11.0,1,
59800,1847.8,213.7,169.6,197.4,1340.0,7930.0,10.0,1,
59900,1835.9,158.5,166.2,220.9,1169.0,6791.0,10.0,1,
60000,1879.8,204.1,165.3,235.1,1966.0,6803.0,10.0,1,
60100,1872.8,196.4,163.7,244.3,1869.0,6543.0,10.0,1,
60200,1862.4,111.1,162.0,233.9,947.0,5747.0,11.0,1,
60300,1847.3,34.3,161.8,201.8,947.0,5747.0,11.0,1,
60500,1860.4,30.5,161.8,164.5,947.0,5747.0,11.0,1,
60600,1856.8,32.3,161.7,122.3,947.0,5747.0,11.0,1,
60700,1857.0,31.8,161.6,237.6,947.0,5747.0,11.0,1,
60800,1859.5,32.6,161.6,239.0,947.0,5747.0,11.0,1,
60900,1859.7,32.7,161.6,239.6,947.0,5747.0,11.0,1,
61000,1860.1,31.9,161.6,239.7,947.0,5747.0,11.0,1,
61100,1859.5,33.0,161.6,239.4,947.0,5747.0,11.0,1,
61200,1859.6,25.4,161.6,239.4,947.0,5747.0,11.0,1,
61300,1869.1,191.0,162.0,66.0,1527.0,9691.0,11.0,1,
61500,1849.2,206.9,163.1,87.6,1077.0,6658.0,11.0,1,
61600,1881.1,180.4,164.2,158.7,1588.0,5988.0,11.0,1,
61700,1866.5,201.8,162.3,284.6,1633.0,6540.0,12.0,1,
61800,1853.8,269.4,168.9,297.2,1391.0,5522.0,11.0,1,
61900,1848.8,44.5,172.3,254.0,687.0,4503.0,11.0,1,
62000,1860.0,32.4,172.3,143.9,687.0,4503.0,11.0,1,
62100,1859.4,27.0,172.3,68.1,687.0,4503.0,11.0,1,
62200,1858.0,24.8,172.2,69.3,687.0,4503.0,11.0,1,
62300,1857.1,26.0,172.1,165.0,687.0,4503.0,11.0,1,
62500,1859.3,24.9,171.9,241.3,687.0,4503.0,11.0,1,
62600,1859.4,26.2,171.8,240.7,687.0,4503.0,11.0,1,
62700,1859.6,26.8,171.8,240.8,687.0,4503.0,11.0,1,
62800,1859.6,26.7,171.7,240.8,687.0,4503.0,11.0,1,
62900,1862.1,212.0,170.6,55.7,1441.0,9861.0,12.0,1,
63000,1832.9,169.5,170.4,51.6,1330.0,8214.0,11.0,1,
63100,1880.0,196.3,171.0,84.6,1685.0,6985.0,11.0,1,
63200,1880.2,160.2,165.4,164.8,1674.0,5957.0,11.0,1,
63300,1859.6,261.1,165.9,259.7,1316.0,5534.0,11.0,1,
63500,1852.1,60.5,171.1,254.6,764.0,4196.0,10.0,1,
63600,1860.0,27.3,171.0,231.6,764.0,4196.0,10.0,1,
63700,1861.9,25.3,171.0,172.8,764.0,4196.0,10.0,1,
63800,1858.3,27.1,171.0,168.3,764.0,4196.0,10.0,1,
63900,1856.7,27.5,171.0,173.9,764.0,4196.0,10.0,1,
64000,1857.6,26.5,171.0,240.8,764.0,4196.0,10.0,1,
64100,1858.8,28.4,171.1,240.4,764.0,4196.0,10.0,1,
64200,1859.3,28.4,171.1,240.4,764.0,4196.0,10.0,1,
64300,1859.6,27.2,171.1,240.1,764.0,4196.0,10.0,1,
64500,1853.5,121.4,170.3,90.6,1422.0,10029.0,15.0,1,
64600,1837.5,143.8,165.1,66.0,1145.0,8227.0,14.0,1,
64700,1890.0,210.6,162.3,66.3,1444.0,5626.0,9.0,1,
64800,1866.0,261.5,170.6,66.8,1301.0,5364.0,10.0,1,
64900,1856.2,293.6,178.4,92.5,1099.0,5226.0,11.0,1,
65000,1846.9,184.1,178.2,132.4,1120.0,5234.0,11.0,1,
65100,1867.7,108.2,175.1,131.9,708.0,4336.0,11.0,1,
65200,1857.3,28.4,175.1,158.2,708.0,4336.0,11.0,1,
65300,1860.8,25.4,175.0,158.5,708.0,4336.0,11.0,1,
65500,1857.3,25.5,175.0,66.0,708.0,4336.0,11.0,1,
65600,1857.5,26.9,175.0,239.7,708.0,4336.0,11.0,1,
65700,1858.8,27.2,175.0,240.4,708.0,4336.0,11.0,1,
65800,1859.5,26.4,175.0,240.3,708.0,4336.0,11.0,1,
65900,1859.0,27.0,175.0,240.1,708.0,4336.0,11.0,1,
66000,1859.8,27.0,174.9,240.2,708.0,4336.0,11.0,1,
66100,1831.0,138.2,175.5,239.1,708.0,4336.0,11.0,1,
66200,1874.8,218.4,174.4,99.0,1821.0,9426.0,11.0,1,
66300,1891.6,185.0,180.5,136.0,1600.0,7311.0,11.0,1,
66500,1847.2,178.0,171.2,236.6,1119.0,5764.0,11.0,1,
66600,1842.8,221.9,166.5,266.3,1020.0,4893.0,12.0,1,
66700,1863.4,211.0,165.6,274.6,931.0,5026.0,12.0,1,
66800,1876.4,34.9,166.8,268.1,674.0,4394.0,12.0,1,
66900,1861.3,26.8,166.8,221.5,674.0,4394.0,12.0,1,
67000,1860.4,25.2,166.8,94.7,674.0,4394.0,12.0,1,
67100,1857.3,26.5,166.8,65.7,674.0,4394.0,12.0,1,
67200,1857.0,26.5,166.8,89.7,674.0,4394.0,12.0,1,
67300,1858.0,25.8,166.8,239.8,674.0,4394.0,12.0,1,
67500,1859.6,27.4,166.7,240.5,674.0,4394.0,12.0,1,
67600,1859.8,25.6,166.8,240.3,674.0,4394.0,12.0,1,
67700,1859.1,26.8,166.7,240.1,674.0,4394.0,12.0,1,
67800,1858.3,198.2,164.3,43.4,1600.0,9010.0,11.0,1,
67900,1876.5,223.2,163.5,42.1,1318.0,7253.0,11.0,1,
68000,1852.1,243.2,166.3,72.6,1044.0,5698.0,11.0,1,
68100,1847.6,176.4,168.3,166.7,867.0,4899.0,11.0,1,
68200,1844.9,163.1,166.4,266.4,807.0,4578.0,11.0,1,
68300,1873.0,194.1,165.3,266.2,1425.0,5510.0,12.0,1,
68500,1858.8,22.4,164.8,226.5,1425.0,5510.0,12.0,1,
68600,1858.3,22.6,164.7,157.4,1425.0,5510.0,12.0,1,
68700,1858.9,22.3,164.7,112.3,1425.0,5510.0,12.0,1,
68800,1862.4,21.8,164.8,94.7,1425.0,5510.0,12.0,1,
68900,1861.3,22.5,164.8,239.4,1425.0,5510.0,12.0,1,
69000,1859.9,23.2,164.8,239.7,1425.0,5510.0,12.0,1,
69100,1859.6,21.6,164.7,239.5,1425.0,5510.0,12.0,1,
69200,1859.8,23.5,164.7,239.7,1425.0,5510.0,12.0,1,
69300,1859.7,23.8,164.6,239.4,1425.0,5510.0,12.0,1,
69500,1858.3,225.9,166.4,71.8,1152.0,6495.0,12.0,1,
69600,1844.8,214.6,162.3,91.8,767.0,4427.0,12.0,1,
69700,1835.8,161.8,159.0,149.0,743.0,4161.0,13.0,1,
69800,1862.7,187.3,156.2,200.7,1307.0,4885.0,13.0,1,
69900,1873.1,183.3,157.2,232.0,1177.0,4888.0,12.0,1,
70000,1851.7,65.3,161.2,253.8,665.0,3575.0,14.0,1,
70100,1861.2,24.0,161.3,212.0,665.0,3575.0,14.0,1,
70200,1861.5,18.0,161.4,201.8,665.0,3575.0,14.0,1,
70300,1863.7,14.0,161.4,197.7,665.0,3575.0,14.0,1,
70500,1860.3,14.2,161.2,116.8,665.0,3575.0,14.0,1,
70600,1861.0,13.5,161.2,134.6,665.0,3575.0,14.0,1,
70700,1860.4,14.0,161.1,124.6,665.0,3575.0,14.0,1,
70800,1860.0,15.2,161.0,123.4,665.0,3575.0,14.0,1,
70900,1860.7,14.9,161.0,133.2,665.0,3575.0,14.0,1,
71000,1873.4,73.3,160.9,77.9,1172.0,8557.0,16.0,1,
71100,1857.1,140.1,149.8,54.3,1076.0,6875.0,16.0,1,
71200,1840.4,129.4,141.1,53.2,973.0,5480.0,16.0,1,
71300,1844.7,169.6,141.9,66.0,688.0,4135.0,12.0,1,
71500,1871.7,208.9,145.3,212.5,936.0,4336.0,13.0,1,
71600,1864.5,124.6,149.0,265.2,649.0,3921.0,13.0,1,
71700,1849.0,19.2,148.9,266.0,649.0,3921.0,13.0,1,
71800,1861.9,13.7,148.8,213.1,649.0,3921.0,13.0,1,
71900,1862.0,14.6,148.8,145.1,649.0,3921.0,13.0,1,
72000,1860.6,14.2,148.8,68.6,649.0,3921.0,13.0,1,
72100,1860.8,12.3,148.8,111.4,649.0,3921.0,13.0,1,
72200,1859.7,12.7,148.8,142.1,649.0,3921.0,13.0,1,
72300,1859.8,13.3,148.7,177.2,649.0,3921.0,13.0,1,
72500,1859.4,11.8,148.7,175.5,649.0,3921.0,13.0,1,
72600,1860.0,138.2,148.7,141.9,649.0,3921.0,13.0,1,
72700,1863.0,217.8,153.0,75.5,1120.0,7149.0,13.0,1,
72800,1835.1,191.9,161.5,130.6,802.0,4839.0,12.0,1,
72900,1861.8,188.5,161.3,156.5,849.0,4467.0,12.0,1,
73000,1872.4,213.1,161.6,233.4,896.0,4485.0,13.0,1,
73100,1865.5,113.8,163.1,265.8,655.0,4306.0,18.0,1,
73200,1852.8,102.8,152.8,235.3,650.0,4530.0,19.0,1,
73300,1853.4,21.4,152.4,174.6,696.0,4659.0,16.0,1,
73500,1861.7,14.2,152.4,35.2,696.0,4659.0,16.0,1,
73600,1863.5,14.4,152.4,34.8,696.0,4659.0,16.0,1,
73700,1860.8,13.3,152.4,39.7,696.0,4659.0,16.0,1,
73800,1860.5,14.3,152.4,177.2,696.0,4659.0,16.0,1,
73900,1860.1,13.1,152.4,188.7,696.0,4659.0,16.0,1,
74000,1860.2,11.8,152.4,200.4,696.0,4659.0,16.0,1,
74100,1859.9,13.2,152.4,146.7,696.0,4659.0,16.0,1,
74200,1860.3,13.4,152.5,172.8,696.0,4659.0,16.0,1,
74300,1851.5,196.6,146.6,65.8,1168.0,8516.0,16.0,1,
74500,1874.4,206.9,151.1,86.7,843.0,5009.0,12.0,1,
74600,1873.5,214.1,152.9,156.2,792.0,4228.0,12.0,1,
74700,1858.3,254.7,151.7,233.8,660.0,3876.0,13.0,1,
74800,1852.5,259.9,164.0,254.5,644.0,3775.0,13.0,1,
74900,1860.0,40.6,169.2,265.2,1341.0,4215.0,13.0,1,
75000,1861.6,14.3,169.3,212.4,1341.0,4215.0,13.0,1,
75100,1861.5,12.2,169.3,130.6,1341.0,4215.0,13.0,1,
75200,1861.7,13.6,169.2,53.5,1341.0,4215.0,13.0,1,
75300,1860.3,12.2,169.2,45.0,1341.0,4215.0,13.0,1,
75500,1860.0,12.3,169.2,198.1,1341.0,4215.0,13.0,1,
75600,1861.2,12.3,169.2,200.4,1341.0,4215.0,13.0,1,
75700,1861.1,12.4,169.2,166.4,1341.0,4215.0,13.0,1,
75800,1860.7,12.1,169.2,158.5,1341.0,4215.0,13.0,1,
75900,1833.4,182.7,170.6,49.2,1110.0,8439.0,16.0,1,
76000,1866.5,207.0,167.0,47.9,960.0,6012.0,12.0,1,
76100,1874.7,205.8,164.7,72.4,739.0,4671.0,13.0,1,
76200,1864.1,210.1,168.7,109.5,671.0,4368.0,13.0,1,
76300,1855.3,229.1,170.3,201.6,601.0,3985.0,12.0,1,
76500,1870.8,61.1,161.9,263.2,674.0,4837.0,19.0,1,
76600,1857.7,16.3,161.9,220.1,674.0,4837.0,19.0,1,
76700,1860.3,12.8,161.9,131.7,674.0,4837.0,19.0,1,
76800,1861.7,12.3,161.9,45.1,674.0,4837.0,19.0,1,
76900,1862.9,14.1,161.9,34.5,674.0,4837.0,19.0,1,
77000,1860.6,13.4,161.9,141.8,674.0,4837.0,19.0,1,
77100,1861.0,13.6,162.0,139.7,674.0,4837.0,19.0,1,
77200,1860.1,13.2,162.0,133.2,674.0,4837.0,19.0,1,
77300,1859.7,12.8,162.0,131.3,674.0,4837.0,19.0,1,
77500,1820.3,86.3,161.0,136.7,1074.0,8051.0,16.0,1,
77600,1886.4,154.2,155.0,41.6,1041.0,7208.0,16.0,1,
77700,1870.7,217.8,164.5,39.8,1991.0,6490.0,12.0,1,
77800,1856.2,166.9,151.3,57.0,709.0,5014.0,17.0,1,
77900,1847.6,158.3,138.4,70.2,795.0,5325.0,17.0,1,
78000,1843.7,145.9,131.2,57.0,710.0,4864.0,17.0,1,
78100,1865.5,89.5,131.0,55.2,677.0,4683.0,16.0,1,
78200,1868.8,18.1,131.5,54.2,677.0,4683.0,16.0,1,
78300,1860.8,14.3,131.5,41.2,677.0,4683.0,16.0,1,
78500,1860.9,13.0,131.5,34.9,677.0,4683.0,16.0,1,
78600,1860.7,13.1,131.5,67.4,677.0,4683.0,16.0,1,
78700,1860.5,13.6,131.5,134.5,677.0,4683.0,16.0,1,
78800,1860.0,12.1,131.5,134.1,677.0,4683.0,16.0,1,
78900,1860.1,13.5,131.5,133.1,677.0,4683.0,16.0,1,
79000,1860.9,13.2,131.5,141.9,677.0,4683.0,16.0,1,
79100,1860.1,20.0,131.5,117.9,677.0,4683.0,16.0,1,
79200,1866.4,379.2,155.4,36.6,2353.0,8547.0,3.0,1,
79300,1860.2,198.9,155.7,35.6,815.0,5527.0,16.0,1,
79500,1839.8,157.0,163.5,44.2,1632.0,5346.0,11.0,1,
79600,1859.3,124.9,161.4,56.3,683.0,4912.0,16.0,1,
79700,1869.0,206.0,175.7,74.1,1839.0,5129.0,12.0,1,
79800,1867.8,30.3,177.5,51.2,1839.0,5129.0,12.0,1,
79900,1860.7,14.4,177.4,50.6,1839.0,5129.0,12.0,1,
80000,1862.7,14.4,177.4,51.7,1839.0,5129.0,12.0,1,
80100,1863.9,13.3,177.5,38.2,1839.0,5129.0,12.0,1,
80200,1861.5,13.4,177.5,34.9,1839.0,5129.0,12.0,1,
80300,1860.6,12.1,177.5,177.4,1839.0,5129.0,12.0,1,
80500,1860.6,13.6,177.5,178.2,1839.0,5129.0,12.0,1,
80600,1859.8,12.1,177.5,152.4,1839.0,5129.0,12.0,1,
80700,1860.1,12.3,177.5,122.1,1839.0,5129.0,12.0,1,
80800,1871.9,292.8,180.1,72.5,1408.0,8029.0,12.0,1,
80900,1857.3,299.1,163.3,79.7,1846.0,6160.0,11.0,1,
81000,1827.0,263.0,175.7,142.8,1700.0,5224.0,12.0,1,
81100,1840.5,270.7,178.7,220.3,1965.0,5452.0,12.0,1,
81200,1866.3,201.7,185.3,284.7,662.0,4132.0,13.0,1,
81300,1872.6,228.6,186.6,265.2,606.0,4102.0,14.0,1,
81500,1859.8,16.4,184.1,253.0,606.0,4102.0,14.0,1,
81600,1863.0,13.8,184.1,136.1,606.0,4102.0,14.0,1,
81700,1863.6,14.1,184.1,38.3,606.0,4102.0,14.0,1,
81800,1861.5,12.1,184.1,36.4,606.0,4102.0,14.0,1,
81900,1860.4,12.5,184.1,236.0,606.0,4102.0,14.0,1,
82000,1860.8,13.1,184.1,177.6,606.0,4102.0,14.0,1,
82100,1860.5,13.2,184.1,205.4,606.0,4102.0,14.0,1,
82200,1860.1,13.0,184.1,237.4,606.0,4102.0,14.0,1,
82300,1861.1,11.8,184.1,178.3,606.0,4102.0,14.0,1,
82500,1836.4,264.9,175.4,43.9,2182.0,7538.0,13.0,1,
82600,1833.9,223.7,172.6,56.7,2005.0,6123.0,13.0,1,
82700,1858.8,212.4,171.8,122.9,1858.0,5678.0,13.0,1,
82800,1875.6,229.4,170.7,229.7,1019.0,4345.0,12.0,1,
82900,1871.8,265.1,168.2,268.4,1442.0,4832.0,14.0,1,
83000,1860.5,142.5,166.6,268.8,550.0,3654.0,12.0,1,
83100,1848.1,18.7,166.6,265.0,550.0,3654.0,12.0,1,
83200,1861.5,14.5,166.6,159.1,550.0,3654.0,12.0,1,
83300,1861.8,13.9,166.6,65.8,550.0,3654.0,12.0,1,
83500,1861.0,13.9,166.6,122.6,550.0,3654.0,12.0,1,
83600,1860.9,12.7,166.6,132.0,550.0,3654.0,12.0,1,
83700,1860.3,13.2,166.6,156.8,550.0,3654.0,12.0,1,
83800,1860.1,13.3,166.6,145.9,550.0,3654.0,12.0,1,
83900,1860.0,13.5,166.6,175.1,550.0,3654.0,12.0,1,
84000,1860.5,49.1,166.6,174.4,550.0,3654.0,12.0,1,
84100,1849.3,279.8,170.7,48.5,2161.0,8797.0,12.0,1,
84200,1837.2,158.8,171.8,69.0,1531.0,6267.0,13.0,1,
84300,1869.6,179.6,169.4,123.0,1585.0,6105.0,14.0,1,
84500,1864.4,251.7,166.1,263.7,1907.0,5941.0,12.0,1,
84600,1841.3,271.0,171.6,264.2,1918.0,5393.0,15.0,1,
84700,1857.1,30.5,171.8,265.4,586.0,3692.0,13.0,1,
84800,1860.9,14.3,171.8,233.1,586.0,3692.0,13.0,1,
84900,1862.5,14.0,171.8,167.3,586.0,3692.0,13.0,1,
85000,1863.7,15.4,171.8,150.1,586.0,3692.0,13.0,1,
85100,1861.2,12.2,171.8,125.8,586.0,3692.0,13.0,1,
85200,1859.7,11.8,171.8,176.9,586.0,3692.0,13.0,1,
85300,1860.3,13.3,171.8,123.7,586.0,3692.0,13.0,1,
85500,1859.8,13.0,171.8,177.3,586.0,3692.0,13.0,1,
85600,1860.4,13.0,171.8,147.9,586.0,3692.0,13.0,1,
85700,1841.9,138.2,169.9,41.8,1095.0,8225.0,16.0,1,
85800,1858.4,114.5,158.3,37.3,909.0,5973.0,16.0,1,
85900,1869.9,195.8,152.7,36.0,1816.0,6100.0,13.0,1,
86000,1867.5,251.9,155.3,68.1,1911.0,6194.0,12.0,1,
86100,1858.8,241.0,150.9,188.5,1895.0,5803.0,14.0,1,
86200,1832.3,274.9,158.0,226.6,1829.0,5162.0,16.0,1,
86300,1873.4,46.4,153.6,265.1,617.0,3824.0,16.0,1,
86500,1859.5,13.5,153.5,106.6,617.0,3824.0,16.0,1,
86600,1860.9,12.1,153.5,66.2,617.0,3824.0,16.0,1,
86700,1861.1,12.5,153.5,48.0,617.0,3824.0,16.0,1,
86800,1861.4,13.6,153.5,178.2,617.0,3824.0,16.0,1,
86900,1861.4,12.5,153.5,177.2,617.0,3824.0,16.0,1,
87000,1861.8,12.0,153.5,177.3,617.0,3824.0,16.0,1,
87100,1861.8,13.3,153.6,177.1,617.0,3824.0,16.0,1,
87200,1860.8,13.2,153.6,178.0,617.0,3824.0,16.0,1,
87300,1834.5,160.3,154.4,67.2,1527.0,8033.0,12.0,1,
87500,1872.2,183.4,167.2,143.3,1810.0,6277.0,14.0,1,
87600,1861.2,159.6,165.0,203.6,1852.0,6335.0,12.0,1,
87700,1842.5,257.7,164.9,232.7,1639.0,5804.0,13.0,1,
87800,1838.1,251.0,166.8,233.5,1365.0,5269.0,12.0,1,
87900,1879.1,84.1,166.7,265.2,694.0,4203.0,12.0,1,
88000,1857.2,16.7,166.7,235.0,694.0,4203.0,12.0,1,
88100,1860.2,12.6,166.8,158.2,694.0,4203.0,12.0,1,
88200,1863.6,12.7,166.8,67.5,694.0,4203.0,12.0,1,
88300,1864.0,13.1,166.9,44.9,694.0,4203.0,12.0,1,
88500,1861.7,11.7,166.9,202.4,694.0,4203.0,12.0,1,
88600,1861.4,12.9,166.9,189.5,694.0,4203.0,12.0,1,
88700,1861.0,11.7,166.8,189.9,694.0,4203.0,12.0,1,
88800,1860.7,11.8,166.8,177.0,694.0,4203.0,12.0,1,
88900,1830.2,82.6,166.1,149.9,1055.0,8118.0,16.0,1,
89000,1896.3,240.6,164.7,37.6,2138.0,7776.0,13.0,1,
89100,1856.8,191.1,166.5,43.0,1563.0,5553.0,12.0,1,
89200,1855.0,161.3,166.1,88.7,1607.0,6072.0,12.0,1,
89300,1832.3,171.2,169.6,157.9,1183.0,5438.0,14.0,1,
89500,1869.3,132.5,159.2,254.0,692.0,4317.0,16.0,1,
89600,1863.5,20.2,159.8,234.1,692.0,4317.0,16.0,1,
89700,1861.8,13.7,159.9,201.5,692.0,4317.0,16.0,1,
89800,1864.7,13.9,159.9,124.2,692.0,4317.0,16.0,1,
89900,1864.7,12.3,159.9,67.9,692.0,4317.0,16.0,1,
90000,1861.8,11.5,159.9,70.0,692.0,4317.0,16.0,1,
90100,1861.4,12.0,159.9,177.2,692.0,4317.0,16.0,1,
90200,1861.2,11.9,159.9,178.2,692.0,4317.0,16.0,1,
90300,1861.0,12.1,159.9,214.6,692.0,4317.0,16.0,1,
90500,1860.0,12.5,159.9,178.2,692.0,4317.0,16.0,1,
90600,1870.9,137.6,158.8,38.0,1146.0,8294.0,14.0,1,
90700,1852.8,108.5,146.6,35.8,917.0,6228.0,15.0,1,
90800,1841.9,163.5,139.0,35.5,1083.0,5406.0,12.0,1,
90900,1838.2,193.4,141.9,66.4,1002.0,5682.0,11.0,1,
91000,1871.0,249.3,146.8,153.9,1907.0,5610.0,11.0,1,
91100,1876.7,238.5,148.4,212.9,1795.0,5992.0,16.0,1,
91200,1848.1,35.2,156.4,260.0,634.0,4240.0,16.0,1,
91300,1862.7,15.7,156.4,227.3,634.0,4240.0,16.0,1,
91500,1862.7,12.0,156.4,106.1,634.0,4240.0,16.0,1,
91600,1860.9,12.6,156.4,74.2,634.0,4240.0,16.0,1,
91700,1861.3,11.4,156.4,187.1,634.0,4240.0,16.0,1,
91800,1861.7,11.3,156.4,198.9,634.0,4240.0,16.0,1,
91900,1861.0,12.0,156.4,175.4,634.0,4240.0,16.0,1,
92000,1860.0,11.3,156.4,178.1,634.0,4240.0,16.0,1,
92100,1860.1,10.9,156.4,178.1,634.0,4240.0,16.0,1,
92200,1873.5,209.5,158.2,44.3,1447.0,8484.0,12.0,1,
92300,1853.1,199.0,168.3,52.1,1033.0,6445.0,12.0,1,
92500,1854.6,184.6,174.5,169.6,698.0,4049.0,11.0,1,
92600,1868.9,188.3,174.3,254.7,1169.0,4953.0,14.0,1,
92700,1868.2,188.1,172.7,267.9,1144.0,4867.0,11.0,1,
92800,1843.4,56.7,171.9,265.1,656.0,3552.0,13.0,1,
92900,1861.4,15.2,171.9,232.5,656.0,3552.0,13.0,1,
93000,1863.3,12.8,171.9,201.3,656.0,3552.0,13.0,1,
93100,1864.1,13.8,171.9,164.1,656.0,3552.0,13.0,1,
93200,1861.5,12.7,171.9,123.6,656.0,3552.0,13.0,1,
93300,1860.7,11.6,171.9,204.5,656.0,3552.0,13.0,1,
93500,1861.1,12.8,171.9,178.4,656.0,3552.0,13.0,1,
93600,1860.6,11.9,171.9,202.0,656.0,3552.0,13.0,1,
93700,1860.7,13.3,171.9,178.2,656.0,3552.0,13.0,1,
93800,1872.0,108.3,172.0,66.2,1173.0,9124.0,16.0,1,
93900,1845.8,160.4,161.6,39.5,1091.0,7858.0,15.0,1,
94000,1836.8,159.3,151.0,37.0,940.0,6450.0,15.0,1,
94100,1865.1,193.9,152.9,38.3,1056.0,5176.0,12.0,1,
94200,1870.4,204.9,152.5,130.6,889.0,5006.0,11.0,1,
94300,1867.6,188.2,154.3,226.2,751.0,4767.0,12.0,1,
94500,1851.8,17.7,154.5,234.2,751.0,4767.0,12.0,1,
94600,1861.2,14.0,154.5,169.3,751.0,4767.0,12.0,1,
94700,1862.0,13.5,154.5,92.4,751.0,4767.0,12.0,1,
94800,1861.8,12.6,154.4,45.6,751.0,4767.0,12.0,1,
94900,1861.3,12.8,154.5,117.0,751.0,4767.0,12.0,1,
95000,1861.5,13.3,154.5,178.2,751.0,4767.0,12.0,1,
95100,1861.2,12.5,154.5,199.0,751.0,4767.0,12.0,1,
95200,1861.0,13.0,154.5,203.5,751.0,4767.0,12.0,1,
95300,1860.7,11.1,154.5,177.7,751.0,4767.0,12.0,1,
95500,1847.3,217.6,158.1,69.8,1084.0,7274.0,12.0,1,
95600,1854.8,183.7,164.4,111.5,902.0,5372.0,13.0,1,
95700,1874.9,188.3,161.1,141.3,772.0,5054.0,12.0,1,
95800,1870.2,204.8,158.9,200.5,786.0,4852.0,11.0,1,
95900,1857.2,198.3,157.7,204.0,674.0,4382.0,12.0,1,
96000,1844.1,222.4,160.4,254.0,585.0,4209.0,12.0,1,
96100,1868.1,24.3,160.6,266.0,621.0,3998.0,17.0,1,
96200,1859.0,13.7,160.6,200.4,621.0,3998.0,17.0,1,
96300,1862.2,12.3,160.6,79.0,621.0,3998.0,17.0,1,
96500,1861.9,13.0,160.6,44.2,621.0,3998.0,17.0,1,
96600,1860.9,11.8,160.6,238.0,621.0,3998.0,17.0,1,
96700,1860.7,12.6,160.6,216.1,621.0,3998.0,17.0,1,
96800,1860.5,12.7,160.6,178.0,621.0,3998.0,17.0,1,
96900,1860.2,12.2,160.6,178.2,621.0,3998.0,17.0,1,
97000,1860.8,12.6,160.6,218.1,621.0,3998.0,17.0,1,
97100,1826.9,141.1,155.5,43.4,1178.0,8362.0,16.0,1,
97200,1880.8,121.9,148.2,38.1,897.0,6267.0,16.0,1,
97300,1861.0,158.2,142.6,37.8,800.0,5478.0,15.0,1,
97500,1855.0,215.1,142.0,136.3,536.0,3689.0,11.0,1,
97600,1839.4,206.6,140.1,214.9,588.0,3601.0,10.0,1,
97700,1878.5,35.7,139.5,254.2,644.0,3890.0,14.0,1,
97800,1860.0,14.5,139.5,213.1,644.0,3890.0,14.0,1,
97900,1862.2,13.2,139.5,125.1,644.0,3890.0,14.0,1,
98000,1864.2,12.9,139.5,56.6,644.0,3890.0,14.0,1,
98100,1862.5,12.3,139.5,53.4,644.0,3890.0,14.0,1,
98200,1861.0,12.7,139.5,238.0,644.0,3890.0,14.0,1,
98300,1859.8,13.1,139.5,238.0,644.0,3890.0,14.0,1,
98500,1860.2,12.8,139.5,214.7,644.0,3890.0,14.0,1,
98600,1860.3,13.8,139.5,226.2,644.0,3890.0,14.0,1,
98700,1825.6,139.3,138.1,55.0,1064.0,8338.0,15.0,1,
98800,1889.3,248.4,153.4,36.9,926.0,5877.0,11.0,1,
98900,1861.3,194.3,161.4,54.8,852.0,4841.0,13.0,1,
99000,1856.2,263.2,164.3,110.6,996.0,4487.0,11.0,1,
99100,1840.4,221.1,162.1,203.2,990.0,5178.0,12.0,1,
99200,1851.0,174.8,158.7,246.8,1299.0,5354.0,14.0,1,
99300,1881.9,87.3,163.6,245.1,558.0,3685.0,15.0,1,
99500,1862.8,13.7,163.6,137.0,558.0,3685.0,15.0,1,
99600,1865.1,13.5,163.7,65.5,558.0,3685.0,15.0,1,
99700,1861.5,11.4,163.6,43.8,558.0,3685.0,15.0,1,
99800,1859.2,12.3,163.6,154.2,558.0,3685.0,15.0,1,
99900,1860.8,11.9,163.6,176.9,558.0,3685.0,15.0,1,
100000,1861.3,11.7,163.6,177.3,558.0,3685.0,15.0,1,
100100,1860.4,12.2,163.6,152.5,558.0,3685.0,15.0,1,
100200,1860.8,14.0,163.6,177.0,558.0,3685.0,15.0,1,
100300,1835.0,107.7,160.3,117.5,1053.0,8292.0,16.0,1,
100500,1859.9,224.5,155.7,47.0,1135.0,6315.0,12.0,1,
100600,1841.4,251.9,157.5,85.3,1411.0,5798.0,12.0,1,
100700,1834.9,218.6,159.4,158.2,1681.0,5906.0,12.0,1,
100800,1866.4,198.8,162.4,202.0,614.0,4093.0,15.0,1,
100900,1872.2,182.2,163.3,234.1,559.0,3775.0,16.0,1,
101000,1858.8,22.4,163.8,254.6,559.0,3775.0,16.0,1,
101100,1859.8,13.5,163.7,203.9,559.0,3775.0,16.0,1,
101200,1863.1,12.2,163.7,157.5,559.0,3775.0,16.0,1,
101300,1863.6,12.8,163.7,111.0,559.0,3775.0,16.0,1,
101500,1861.2,12.0,163.8,172.4,559.0,3775.0,16.0,1,
101600,1860.4,13.1,163.8,178.1,559.0,3775.0,16.0,1,
101700,1860.2,12.3,163.8,177.3,559.0,3775.0,16.0,1,
101800,1860.5,12.2,163.8,145.9,559.0,3775.0,16.0,1,
101900,1859.9,12.1,163.7,144.9,559.0,3775.0,16.0,1,
102000,1875.6,251.9,164.1,42.5,1884.0,8725.0,12.0,1,
102100,1855.3,290.0,160.9,56.4,1950.0,6985.0,12.0,1,
102200,1823.4,164.3,170.0,114.9,1967.0,6135.0,11.0,1,
102300,1856.7,212.7,169.9,201.6,1893.0,6084.0,11.0,1,
102500,1871.5,240.5,173.7,254.8,1107.0,4586.0,12.0,1,
102600,1852.1,30.7,169.0,253.9,654.0,3804.0,15.0,1,
102700,1862.0,13.3,169.1,201.4,654.0,3804.0,15.0,1,
102800,1863.0,13.9,169.1,125.4,654.0,3804.0,15.0,1,
102900,1863.1,12.7,169.1,68.8,654.0,3804.0,15.0,1,
103000,1861.5,12.5,169.1,66.0,654.0,3804.0,15.0,1,
103100,1860.2,13.5,169.0,165.8,654.0,3804.0,15.0,1,
103200,1860.7,13.2,169.0,201.0,654.0,3804.0,15.0,1,
103300,1860.5,13.2,169.1,177.7,654.0,3804.0,15.0,1,
103500,1860.2,13.2,169.1,178.4,654.0,3804.0,15.0,1,
103600,1882.7,158.5,164.3,73.5,2255.0,9179.0,12.0,1,
103700,1838.3,183.5,169.0,122.7,2064.0,7536.0,11.0,1,
103800,1830.3,138.8,166.0,137.8,1833.0,6238.0,12.0,1,
103900,1868.8,164.6,165.9,158.9,1201.0,5437.0,15.0,1,
104000,1874.9,199.9,162.8,202.0,1497.0,5446.0,12.0,1,
104100,1865.1,265.3,158.6,203.0,1815.0,5006.0,16.0,1,
104200,1848.5,51.9,160.0,246.4,591.0,3538.0,17.0,1,
104300,1860.9,15.9,160.0,240.3,591.0,3538.0,17.0,1,
104500,1862.7,12.7,160.0,100.4,591.0,3538.0,17.0,1,
104600,1859.1,13.2,160.0,66.6,591.0,3538.0,17.0,1,
104700,1860.4,13.5,160.0,232.2,591.0,3538.0,17.0,1,
104800,1860.7,13.4,160.0,185.7,591.0,3538.0,17.0,1,
104900,1860.4,19.4,160.0,177.8,591.0,3538.0,17.0,1,
105000,1859.9,21.6,160.1,203.1,591.0,3538.0,17.0,1,
105100,1860.3,19.5,160.1,133.6,591.0,3538.0,17.0,1,
105200,1873.8,198.8,162.0,85.4,1651.0,8071.0,12.0,1,
105300,1829.1,154.0,161.2,71.4,1570.0,7186.0,11.0,1,
105500,1873.0,214.9,160.8,165.4,1892.0,5636.0,11.0,1,
105600,1870.5,217.8,163.3,264.7,1918.0,5789.0,15.0,1,
105700,1863.2,267.2,163.0,264.6,1753.0,5306.0,14.0,1,
105800,1855.2,104.0,164.3,264.2,696.0,3575.0,11.0,1,
105900,1853.6,27.7,164.3,236.5,696.0,3575.0,11.0,1,
106000,1862.0,22.9,164.4,153.0,696.0,3575.0,11.0,1,
106100,1861.5,23.8,164.5,39.0,696.0,3575.0,11.0,1,
106200,1860.4,24.8,164.6,37.4,696.0,3575.0,11.0,1,
106300,1859.9,23.7,164.7,239.3,696.0,3575.0,11.0,1,
106500,1859.6,25.5,164.9,239.4,696.0,3575.0,11.0,1,
106600,1860.0,23.5,164.9,239.1,696.0,3575.0,11.0,1,
106700,1859.4,25.4,164.9,237.7,696.0,3575.0,11.0,1,
106800,1853.0,88.2,163.6,239.8,696.0,3575.0,11.0,1,
106900,1839.0,187.2,161.4,46.8,1150.0,7555.0,12.0,1,
107000,1879.5,209.9,161.4,44.4,1584.0,6355.0,12.0,1,
107100,1868.5,184.8,160.0,85.6,1582.0,5835.0,12.0,1,
107200,1859.8,165.8,157.6,137.2,1283.0,5104.0,12.0,1,
107300,1847.5,191.6,160.5,200.6,1063.0,4844.0,18.0,1,
107500,1879.1,33.7,160.8,254.8,598.0,3484.0,16.0,1,
107600,1862.1,23.1,160.8,203.8,598.0,3484.0,16.0,1,
107700,1862.2,22.4,160.8,91.6,598.0,3484.0,16.0,1,
107800,1862.2,21.9,160.8,42.5,598.0,3484.0,16.0,1,
107900,1858.9,23.3,160.8,81.4,598.0,3484.0,16.0,1,
108000,1860.4,24.3,160.8,240.6,598.0,3484.0,16.0,1,
108100,1859.9,23.1,160.8,239.3,598.0,3484.0,16.0,1,
108200,1860.0,23.8,160.8,239.5,598.0,3484.0,16.0,1,
108300,1859.4,24.0,160.8,240.0,598.0,3484.0,16.0,1,
108500,1832.3,200.3,160.5,40.5,1090.0,8369.0,16.0,1,
108600,1884.6,215.6,165.3,36.0,1322.0,6184.0,11.0,1,
108700,1865.5,189.6,166.8,69.9,945.0,5472.0,12.0,1,
108800,1858.3,203.2,168.0,150.0,738.0,4800.0,15.0,1,
108900,1844.5,161.8,165.8,254.8,760.0,4443.0,12.0,1,
109000,1853.0,152.5,163.0,253.2,642.0,3878.0,18.0,1,
109100,1871.1,49.5,165.4,241.7,504.0,3456.0,15.0,1,
109200,1860.4,25.2,165.4,233.5,504.0,3456.0,15.0,1,
109300,1861.7,22.4,165.4,158.3,504.0,3456.0,15.0,1,
109500,1859.4,22.8,165.4,66.7,504.0,3456.0,15.0,1,
109600,1860.3,22.9,165.4,239.9,504.0,3456.0,15.0,1,
109700,1860.3,23.3,165.4,239.8,504.0,3456.0,15.0,1,
109800,1860.3,24.2,165.4,239.5,504.0,3456.0,15.0,1,
109900,1860.0,22.6,165.4,239.8,504.0,3456.0,15.0,1,
110000,1860.0,23.6,165.4,239.4,504.0,3456.0,15.0,1,
110100,1842.1,209.9,165.5,40.1,1400.0,7888.0,12.0,1,
110200,1884.2,191.6,164.2,35.8,1035.0,6690.0,11.0,1,
110300,1862.9,211.8,164.4,56.7,805.0,5360.0,11.0,1,
110500,1841.0,157.1,160.1,220.3,693.0,4182.0,11.0,1,
110600,1867.5,194.7,162.3,212.3,1095.0,4671.0,18.0,1,
110700,1866.8,80.4,163.0,234.5,675.0,3646.0,11.0,1,
110800,1858.5,24.9,162.9,217.4,675.0,3646.0,11.0,1,
110900,1859.9,21.9,162.9,158.2,675.0,3646.0,11.0,1,
111000,1860.9,23.0,162.9,108.8,675.0,3646.0,11.0,1,
111100,1860.7,22.4,162.9,71.8,675.0,3646.0,11.0,1,
111200,1859.3,22.9,162.9,240.0,675.0,3646.0,11.0,1,
111300,1860.3,23.7,162.9,238.7,675.0,3646.0,11.0,1,
111500,1859.6,23.6,162.9,239.9,675.0,3646.0,11.0,1,
111600,1860.2,24.5,162.9,239.5,675.0,3646.0,11.0,1,
111700,1856.5,90.4,161.7,137.4,1085.0,8230.0,16.0,1,
111800,1874.0,125.2,155.5,41.0,1018.0,7661.0,15.0,1,
111900,1848.3,201.4,142.8,36.2,891.0,6265.0,14.0,1,
112000,1839.8,205.6,145.4,36.2,750.0,4392.0,11.0,1,
112100,1853.8,200.4,149.5,92.8,639.0,4222.0,11.0,1,
112200,1872.2,208.6,152.4,202.0,830.0,4324.0,11.0,1,
112300,1870.9,143.6,153.6,245.3,613.0,3443.0,17.0,1,
112500,1860.4,19.5,153.6,170.1,613.0,3443.0,17.0,1,
112600,1861.6,18.0,153.6,89.4,613.0,3443.0,17.0,1,
112700,1860.9,18.8,153.6,42.9,613.0,3443.0,17.0,1,
112800,1860.3,20.3,153.5,87.8,613.0,3443.0,17.0,1,
112900,1859.9,20.5,153.5,240.3,613.0,3443.0,17.0,1,
113000,1859.7,20.7,153.5,251.9,613.0,3443.0,17.0,1,
113100,1859.8,21.3,153.5,240.1,613.0,3443.0,17.0,1,
113200,1859.7,21.0,153.4,240.5,613.0,3443.0,17.0,1,
113300,1859.6,102.1,153.4,240.3,613.0,3443.0,17.0,1,
113500,1850.8,218.7,164.7,76.8,1063.0,6282.0,12.0,1,
113600,1835.3,192.1,162.9,135.9,829.0,5249.0,12.0,1,
113700,1867.8,211.7,163.3,204.0,717.0,4475.0,9.0,1,
113800,1868.3,173.8,159.7,215.0,696.0,4132.0,10.0,1,
113900,1861.0,203.8,159.6,201.2,599.0,3851.0,5.0,1,
114000,1855.6,34.9,159.5,233.9,637.0,3649.0,6.0,1,
114100,1860.7,21.8,159.6,220.0,637.0,3649.0,6.0,1,
114200,1859.6,21.4,159.6,152.6,637.0,3649.0,6.0,1,
114300,1860.0,21.1,159.6,43.7,637.0,3649.0,6.0,1,
114500,1859.3,22.0,159.6,240.0,637.0,3649.0,6.0,1,
114600,1859.2,22.6,159.6,239.4,637.0,3649.0,6.0,1,
114700,1859.8,22.0,159.7,239.0,637.0,3649.0,6.0,1,
114800,1859.1,21.9,159.7,239.9,637.0,3649.0,6.0,1,
114900,1860.0,22.7,159.7,239.7,637.0,3649.0,6.0,1,
115000,1866.8,137.4,150.9,52.0,1054.0,8086.0,15.0,1,
115100,1837.5,133.8,145.6,38.3,1030.0,7249.0,15.0,1,
115200,1850.3,138.8,147.4,39.2,1796.0,6547.0,12.0,1,
115300,1868.7,205.9,150.6,87.0,725.0,3850.0,12.0,1,
115500,1863.4,220.5,146.9,227.8,701.0,4333.0,9.0,1,
115600,1855.4,47.9,146.8,246.4,676.0,3373.0,12.0,1,
115700,1859.3,21.2,146.8,200.4,676.0,3373.0,12.0,1,
115800,1860.2,19.7,146.8,103.3,676.0,3373.0,12.0,1,
115900,1861.0,18.1,146.8,43.7,676.0,3373.0,12.0,1,
116000,1861.2,18.9,146.8,47.1,676.0,3373.0,12.0,1,
116100,1861.5,18.1,146.8,239.3,676.0,3373.0,12.0,1,
116200,1860.0,18.6,146.7,239.7,676.0,3373.0,12.0,1,
116300,1860.5,18.4,146.7,240.2,676.0,3373.0,12.0,1,
116500,1860.5,18.9,146.7,176.5,676.0,3373.0,12.0,1,
116600,1854.2,141.8,147.2,68.5,1156.0,8675.0,16.0,1,
116700,1831.6,162.5,157.3,36.0,2090.0,8130.0,12.0,1,
116800,1876.1,144.9,159.7,42.1,929.0,4849.0,11.0,1,
116900,1875.1,230.2,162.3,88.8,789.0,4464.0,11.0,1,
117000,1866.7,267.5,158.7,171.4,1186.0,4443.0,15.0,1,
117100,1847.2,216.8,158.6,244.6,1474.0,5070.0,12.0,1,
117200,1869.3,104.7,162.3,254.9,513.0,3122.0,17.0,1,
117300,1854.2,24.5,162.2,254.1,513.0,3122.0,17.0,1,
117500,1860.3,18.9,162.2,79.6,513.0,3122.0,17.0,1,
117600,1860.4,18.6,162.2,50.7,513.0,3122.0,17.0,1,
117700,1860.3,18.1,162.2,239.8,513.0,3122.0,17.0,1,
117800,1860.3,17.8,162.2,237.9,513.0,3122.0,17.0,1,
117900,1860.0,18.2,162.2,239.4,513.0,3122.0,17.0,1,
118000,1860.2,18.4,162.2,239.5,513.0,3122.0,17.0,1,
118100,1860.3,18.6,162.2,238.4,513.0,3122.0,17.0,1,
118200,1835.3,92.7,162.0,200.4,513.0,3122.0,17.0,1,
118300,1854.3,217.7,161.6,35.8,1574.0,7370.0,12.0,1,
118500,1870.2,247.6,161.2,74.8,1836.0,5939.0,13.0,1,
118600,1860.8,168.3,159.3,199.3,1756.0,5380.0,10.0,1,
118700,1834.8,252.2,158.7,243.4,1419.0,5021.0,16.0,1,
118800,1855.0,223.9,160.8,225.7,1374.0,4609.0,17.0,1,
118900,1873.7,30.9,162.1,245.6,460.0,3061.0,17.0,1,
119000,1859.2,21.1,162.1,159.0,460.0,3061.0,17.0,1,
119100,1859.8,19.9,162.1,67.2,460.0,3061.0,17.0,1,
119200,1860.3,20.6,162.1,44.3,460.0,3061.0,17.0,1,
119300,1860.0,19.2,162.1,117.6,460.0,3061.0,17.0,1,
119500,1861.0,19.7,162.1,238.8,460.0,3061.0,17.0,1,
119600,1861.1,19.1,162.2,240.3,460.0,3061.0,17.0,1,
119700,1860.5,20.4,162.2,240.6,460.0,3061.0,17.0,1,
119800,1860.7,19.9,162.2,240.1,460.0,3061.0,17.0,1,
119900,1843.3,115.2,158.8,44.2,1157.0,7985.0,15.0,1,
120000,1880.0,171.5,154.4,39.7,1332.0,5923.0,12.0,1,
120100,1865.3,209.3,153.9,43.2,1215.0,5416.0,11.0,1,
120200,1847.9,155.2,148.6,91.4,875.0,4668.0,13.0,1,
120300,1842.0,166.9,150.5,155.5,837.0,4136.0,12.0,1,
120500,1862.2,42.3,153.9,254.4,593.0,3304.0,13.0,1,
120600,1861.4,20.1,153.9,207.5,593.0,3304.0,13.0,1,
120700,1861.4,20.3,153.9,165.0,593.0,3304.0,13.0,1,
120800,1860.4,19.3,153.9,130.6,593.0,3304.0,13.0,1,
120900,1859.2,19.7,153.9,113.0,593.0,3304.0,13.0,1,
121000,1860.6,19.8,153.9,240.2,593.0,3304.0,13.0,1,
121100,1859.6,19.2,153.9,239.8,593.0,3304.0,13.0,1,
121200,1860.4,18.7,153.9,240.8,593.0,3304.0,13.0,1,
121300,1860.2,20.2,153.8,240.9,593.0,3304.0,13.0,1,
121500,1857.6,195.2,154.8,52.8,1157.0,8002.0,12.0,1,
121600,1871.7,224.5,163.3,46.1,955.0,5991.0,11.0,1,
121700,1856.9,214.9,165.4,82.6,869.0,5325.0,11.0,1,
121800,1838.2,194.4,166.8,130.7,699.0,4441.0,11.0,1,
121900,1852.3,177.9,166.7,158.8,582.0,4095.0,7.0,1,
122000,1867.8,187.2,163.9,202.0,1177.0,4538.0,15.0,1,
122100,1857.0,72.8,166.3,253.3,518.0,3142.0,18.0,1,
122200,1860.4,23.3,166.2,254.7,518.0,3142.0,18.0,1,
122300,1861.2,19.2,166.3,210.6,518.0,3142.0,18.0,1,
122500,1860.5,19.7,166.3,123.2,518.0,3142.0,18.0,1,
122600,1859.4,20.1,166.3,240.5,518.0,3142.0,18.0,1,
122700,1860.3,19.6,166.3,249.6,518.0,3142.0,18.0,1,
122800,1860.6,20.5,166.3,240.1,518.0,3142.0,18.0,1,
122900,1860.5,19.5,166.3,240.4,518.0,3142.0,18.0,1,
123000,1859.7,21.1,166.3,240.9,518.0,3142.0,18.0,1,
123100,1867.8,107.0,166.2,106.3,1015.0,8170.0,17.0,1,
123200,1863.2,102.4,160.5,35.4,1030.0,7195.0,15.0,1,
123300,1852.5,183.8,148.4,34.6,894.0,6205.0,15.0,1,
123500,1868.8,203.1,154.0,125.9,941.0,4494.0,12.0,1,
123600,1867.5,195.6,155.0,200.9,806.0,4233.0,18.0,1,
123700,1866.8,153.4,156.7,232.6,601.0,3637.0,18.0,1,
123800,1852.7,26.0,156.8,246.6,601.0,3637.0,18.0,1,
123900,1860.3,19.8,156.8,167.8,601.0,3637.0,18.0,1,
124000,1860.8,19.5,156.8,57.1,601.0,3637.0,18.0,1,
124100,1860.2,18.4,156.8,35.9,601.0,3637.0,18.0,1,
124200,1859.8,19.0,156.8,116.6,601.0,3637.0,18.0,1,
124300,1859.9,20.8,156.7,239.8,601.0,3637.0,18.0,1,
124500,1859.9,19.8,156.7,240.1,601.0,3637.0,18.0,1,
124600,1860.2,20.8,156.7,240.0,601.0,3637.0,18.0,1,
124700,1860.4,93.5,156.7,239.8,601.0,3637.0,18.0,1,
124800,1867.0,224.3,161.0,56.0,1089.0,6762.0,13.0,1,
124900,1845.3,254.1,172.3,92.8,717.0,5006.0,14.0,1,
125000,1852.7,202.4,171.3,157.5,758.0,5079.0,10.0,1,
125100,1868.9,205.8,171.3,213.2,660.0,4298.0,12.0,1,
125200,1867.6,206.6,171.6,234.6,561.0,3807.0,18.0,1,
125300,1859.9,184.4,169.7,265.8,544.0,3433.0,12.0,1,
125500,1861.7,20.1,168.0,232.1,544.0,3433.0,12.0,1,
125600,1860.6,18.4,168.0,167.6,544.0,3433.0,12.0,1,
125700,1861.0,18.3,168.0,70.5,544.0,3433.0,12.0,1,
125800,1860.5,19.2,168.0,98.8,544.0,3433.0,12.0,1,
125900,1859.6,18.6,168.0,240.2,544.0,3433.0,12.0,1,
126000,1860.3,18.3,168.0,240.3,544.0,3433.0,12.0,1,
126100,1860.2,19.5,168.0,240.0,544.0,3433.0,12.0,1,
126200,1860.2,20.3,168.1,240.5,544.0,3433.0,12.0,1,
126300,1859.9,15.1,168.0,238.0,544.0,3433.0,12.0,1,
126500,1831.3,131.9,152.9,37.5,959.0,6979.0,15.0,1,
126600,1874.4,110.5,141.9,35.8,910.0,6346.0,15.0,1,
126700,1873.1,215.9,140.8,35.9,688.0,4550.0,11.0,1,
126800,1863.7,236.4,141.4,138.9,702.0,4140.0,10.0,1,
126900,1856.2,215.9,142.9,215.3,649.0,3780.0,11.0,1,
127000,1861.9,36.8,143.0,244.0,643.0,3596.0,6.0,1,
127100,1860.0,13.3,142.9,234.6,643.0,3596.0,6.0,1,
127200,1861.3,11.6,142.9,199.9,643.0,3596.0,6.0,1,
127300,1860.9,9.6,142.8,99.3,643.0,3596.0,6.0,1,
127500,1860.0,4.8,142.6,117.2,643.0,3596.0,6.0,1,
127600,1860.8,4.8,142.5,99.2,643.0,3596.0,6.0,1,
127700,1859.5,5.0,142.4,99.8,643.0,3596.0,6.0,1,
127800,1859.6,8.6,142.2,113.6,643.0,3596.0,6.0,1,
127900,1859.9,11.7,142.1,137.0,643.0,3596.0,6.0,1,
128000,1834.5,138.3,142.2,49.3,977.0,7901.0,16.0,1,
128100,1852.6,238.3,154.5,35.3,2059.0,7320.0,11.0,1,
128200,1879.4,229.8,168.4,36.5,761.0,4704.0,10.0,1,
128300,1869.0,249.1,177.1,116.4,615.0,4229.0,6.0,1,
128500,1837.5,224.2,170.6,265.0,1438.0,5054.0,6.0,1,
128600,1871.6,64.2,173.0,261.0,640.0,3412.0,6.0,1,
128700,1856.8,9.6,173.0,253.1,640.0,3412.0,6.0,1,
128800,1860.6,5.9,172.9,208.5,640.0,3412.0,6.0,1,
128900,1860.0,5.5,172.9,188.0,640.0,3412.0,6.0,1,
129000,1860.8,5.2,172.9,176.5,640.0,3412.0,6.0,1,
129100,1859.9,5.6,172.9,122.8,640.0,3412.0,6.0,1,
129200,1858.5,5.9,172.9,112.1,640.0,3412.0,6.0,1,
129300,1859.9,5.3,172.9,123.1,640.0,3412.0,6.0,1,
129500,1860.4,6.3,172.9,117.6,640.0,3412.0,6.0,1,
129600,1817.8,80.2,172.9,90.9,640.0,3412.0,6.0,1,
129700,1875.7,130.9,168.4,38.7,907.0,6450.0,16.0,1,
129800,1871.2,109.3,156.6,36.3,828.0,5594.0,18.0,1,
129900,1869.0,247.3,141.9,36.0,1431.0,5523.0,12.0,1,
130000,1847.2,239.0,140.2,66.6,1649.0,5200.0,13.0,1,
130100,1844.5,254.3,146.7,138.8,1788.0,4695.0,11.0,1,
130200,1868.1,164.4,151.4,253.0,1845.0,4608.0,18.0,1,
130300,1872.3,16.0,151.7,254.6,1845.0,4608.0,18.0,1,
130500,1861.9,5.1,151.8,170.1,1845.0,4608.0,18.0,1,
130600,1861.6,5.4,151.8,167.3,1845.0,4608.0,18.0,1,
130700,1860.3,5.0,151.8,69.9,1845.0,4608.0,18.0,1,
130800,1859.8,5.9,151.8,99.6,1845.0,4608.0,18.0,1,
130900,1860.4,5.2,151.8,108.6,1845.0,4608.0,18.0,1,
131000,1860.3,4.7,151.8,124.4,1845.0,4608.0,18.0,1,
131100,1859.7,9.8,151.8,138.1,1845.0,4608.0,18.0,1,
131200,1859.1,12.3,151.8,117.4,1845.0,4608.0,18.0,1,
131300,1853.6,127.8,151.5,39.2,1108.0,7936.0,15.0,1,
131500,1859.3,261.8,165.0,46.1,2003.0,5998.0,11.0,1,
131600,1833.9,245.8,171.5,137.5,1795.0,5289.0,15.0,1,
131700,1854.9,225.5,173.3,236.6,1778.0,4449.0,10.0,1,
131800,1868.2,244.5,173.0,268.2,1236.0,4112.0,18.0,1,
131900,1863.9,33.3,170.8,266.2,506.0,3074.0,17.0,1,
132000,1860.4,12.1,170.8,232.8,506.0,3074.0,17.0,1,
132100,1860.8,12.5,170.8,158.3,506.0,3074.0,17.0,1,
132200,1862.0,11.5,170.9,100.7,506.0,3074.0,17.0,1,
132300,1859.6,11.5,170.9,57.0,506.0,3074.0,17.0,1,
132500,1860.6,11.2,171.0,231.2,506.0,3074.0,17.0,1,
132600,1860.0,5.2,171.0,177.8,506.0,3074.0,17.0,1,
132700,1859.0,8.4,170.9,117.8,506.0,3074.0,17.0,1,
132800,1861.4,9.4,171.0,99.3,506.0,3074.0,17.0,1,
132900,1878.2,213.4,171.0,43.0,2257.0,8710.0,12.0,1,
133000,1855.1,166.8,173.2,67.2,1904.0,6698.0,12.0,1,
133100,1838.7,185.7,173.0,111.4,1644.0,5789.0,12.0,1,
133200,1840.8,175.9,171.2,168.7,1183.0,4997.0,17.0,1,
133300,1872.4,183.1,167.1,213.1,1780.0,5281.0,16.0,1,
133500,1862.8,53.9,166.2,265.2,570.0,3399.0,9.0,1,
133600,1862.9,7.8,166.2,243.4,570.0,3399.0,9.0,1,
133700,1864.7,11.8,166.3,165.0,570.0,3399.0,9.0,1,
133800,1863.3,12.0,166.3,92.8,570.0,3399.0,9.0,1,
133900,1861.9,12.4,166.3,51.9,570.0,3399.0,9.0,1,
134000,1861.3,11.9,166.3,122.1,570.0,3399.0,9.0,1,
134100,1861.6,6.2,166.3,176.8,570.0,3399.0,9.0,1,
134200,1861.6,6.0,166.3,117.9,570.0,3399.0,9.0,1,
134300,1860.8,9.9,166.4,101.3,570.0,3399.0,9.0,1,
134500,1878.9,73.2,166.4,66.2,1062.0,8413.0,14.0,1,
134600,1860.3,143.5,159.2,40.2,1020.0,7556.0,14.0,1,
134700,1828.3,168.6,154.9,37.1,1531.0,6122.0,6.0,1,
134800,1856.5,147.9,155.6,48.6,1132.0,4837.0,12.0,1,
134900,1870.5,87.2,154.3,148.9,705.0,4697.0,14.0,1,
135000,1867.5,73.9,144.8,172.8,677.0,4567.0,13.0,1,
135100,1865.9,58.6,128.1,151.5,594.0,3961.0,12.0,1,
135200,1855.7,15.9,128.2,74.2,594.0,3961.0,12.0,1,
135300,1861.5,13.2,128.2,52.4,594.0,3961.0,12.0,1,
135500,1859.8,13.8,128.2,38.5,594.0,3961.0,12.0,1,
135600,1860.6,12.5,128.2,177.8,594.0,3961.0,12.0,1,
135700,1860.0,13.6,128.2,178.7,594.0,3961.0,12.0,1,
135800,1860.3,13.9,128.3,215.2,594.0,3961.0,12.0,1,
135900,1861.2,13.2,128.3,238.5,594.0,3961.0,12.0,1,
136000,1860.5,14.8,128.4,238.6,594.0,3961.0,12.0,1,
136100,1860.4,18.7,128.4,177.7,594.0,3961.0,12.0,1,
136200,1856.5,199.3,134.8,37.5,1597.0,7726.0,11.0,1,
136300,1838.0,185.5,149.8,36.0,1253.0,6035.0,10.0,1,
136500,1867.8,250.3,154.1,201.8,1969.0,5512.0,7.0,1,
136600,1867.2,258.9,168.6,266.4,1753.0,4979.0,7.0,1,
136700,1846.9,259.1,180.8,268.2,1579.0,4510.0,6.0,1,
136800,1863.9,25.0,183.3,267.8,486.0,2817.0,6.0,1,
136900,1862.1,13.5,183.3,254.7,486.0,2817.0,6.0,1,
137000,1861.5,12.2,183.3,205.0,486.0,2817.0,6.0,1,
137100,1860.0,10.8,183.3,124.1,486.0,2817.0,6.0,1,
137200,1860.0,11.7,183.3,117.0,486.0,2817.0,6.0,1,
137300,1859.8,11.9,183.3,237.4,486.0,2817.0,6.0,1,
137500,1860.6,12.0,183.3,238.9,486.0,2817.0,6.0,1,
137600,1859.6,12.2,183.2,219.5,486.0,2817.0,6.0,1,
137700,1860.2,11.4,183.2,188.0,486.0,2817.0,6.0,1,
137800,1846.9,228.0,184.6,36.2,1227.0,7632.0,10.0,1,
137900,1851.3,173.3,180.7,34.7,1136.0,6235.0,10.0,1,
138000,1880.2,246.4,182.6,67.2,1805.0,6352.0,9.0,1,
138100,1866.9,184.0,184.3,169.5,1536.0,5215.0,11.0,1,
138200,1860.8,268.3,180.7,266.5,1334.0,4758.0,10.0,1,
138300,1841.9,300.9,189.1,278.3,1142.0,3960.0,5.0,1,
138500,1860.7,5.6,194.0,169.3,1142.0,3960.0,5.0,1,
138600,1860.1,4.1,194.0,141.0,1142.0,3960.0,5.0,1,
138700,1861.5,8.5,194.0,155.7,1142.0,3960.0,5.0,1,
138800,1860.8,11.4,194.0,168.0,1142.0,3960.0,5.0,1,
138900,1859.3,10.9,194.0,122.5,1142.0,3960.0,5.0,1,
139000,1860.5,14.4,194.0,123.8,1142.0,3960.0,5.0,1,
139100,1858.7,11.9,193.9,178.5,1142.0,3960.0,5.0,1,
139200,1859.6,11.2,193.9,118.1,1142.0,3960.0,5.0,1,
139300,1858.8,12.0,193.9,110.3,1142.0,3960.0,5.0,1,
139500,1873.7,249.3,203.4,34.4,1234.0,6130.0,11.0,1,
139600,1879.7,222.7,202.4,53.8,1216.0,5516.0,9.0,1,
139700,1864.3,187.2,200.1,148.0,877.0,4517.0,11.0,1,
139800,1852.8,183.8,200.9,244.7,738.0,4177.0,12.0,1,
139900,1838.9,179.5,196.5,266.5,726.0,3900.0,9.0,1,
140000,1872.8,103.5,194.6,273.0,367.0,2800.0,8.0,1,
140100,1857.9,16.4,194.6,254.4,367.0,2800.0,8.0,1,
140200,1861.1,11.2,194.6,170.3,367.0,2800.0,8.0,1,
140300,1861.5,5.2,194.6,125.1,367.0,2800.0,8.0,1,
140500,1860.3,10.4,194.6,125.0,367.0,2800.0,8.0,1,
140600,1860.6,11.1,194.6,132.2,367.0,2800.0,8.0,1,
140700,1859.7,11.9,194.6,177.8,367.0,2800.0,8.0,1,
140800,1860.1,11.6,194.7,237.8,367.0,2800.0,8.0,1,
140900,1860.1,12.4,194.7,238.0,367.0,2800.0,8.0,1,
141000,1827.2,117.3,194.0,123.8,367.0,2800.0,8.0,1,
141100,1895.5,225.9,180.2,66.6,947.0,6461.0,11.0,1,
141200,1865.9,217.9,179.7,82.3,788.0,4668.0,11.0,1,
141300,1856.8,208.5,176.3,139.3,655.0,4068.0,11.0,1,
141500,1850.5,113.2,168.7,254.2,623.0,4245.0,15.0,1,
141600,1869.9,91.2,153.9,205.4,525.0,3636.0,23.0,1,
141700,1868.9,10.2,154.3,141.0,525.0,3636.0,23.0,1,
141800,1862.6,5.1,154.3,54.6,525.0,3636.0,23.0,1,
141900,1862.3,5.2,154.3,43.1,525.0,3636.0,23.0,1,
142000,1860.0,8.9,154.2,38.0,525.0,3636.0,23.0,1,
142100,1860.0,10.3,154.2,74.0,525.0,3636.0,23.0,1,
142200,1860.3,9.5,154.2,100.7,525.0,3636.0,23.0,1,
142300,1860.8,10.9,154.2,116.6,525.0,3636.0,23.0,1,
142500,1860.1,10.7,154.2,133.8,525.0,3636.0,23.0,1,
142600,1860.7,28.4,154.2,157.1,525.0,3636.0,23.0,1,
142700,1865.0,283.9,166.5,48.6,1082.0,6779.0,10.0,1,
142800,1864.5,259.6,168.7,71.5,848.0,5278.0,8.0,1,
142900,1844.0,252.9,170.9,136.6,921.0,4419.0,5.0,1,
143000,1834.5,237.4,168.4,227.5,1280.0,4510.0,11.0,1,
143100,1865.7,183.2,175.0,284.7,543.0,3398.0,6.0,1,
143200,1862.3,189.7,182.8,266.4,1996.0,5234.0,6.0,1,
143300,1867.9,33.1,186.4,254.8,384.0,2604.0,5.0,1,
143500,1861.0,12.4,186.4,52.4,384.0,2604.0,5.0,1,
143600,1861.8,12.7,186.4,41.6,384.0,2604.0,5.0,1,
143700,1861.5,12.2,186.5,35.2,384.0,2604.0,5.0,1,
143800,1861.8,12.2,186.5,133.2,384.0,2604.0,5.0,1,
143900,1860.8,12.2,186.5,145.3,384.0,2604.0,5.0,1,
144000,1860.1,12.1,186.5,145.4,384.0,2604.0,5.0,1,
144100,1860.3,12.1,186.5,123.6,384.0,2604.0,5.0,1,
144200,1860.5,12.2,186.5,122.2,384.0,2604.0,5.0,1,
144300,1874.7,107.0,182.1,42.2,1115.0,8366.0,14.0,1,
144500,1826.8,255.9,157.4,36.0,1953.0,5997.0,9.0,1,
144600,1851.8,192.8,161.6,66.5,2005.0,5261.0,10.0,1,
144700,1872.5,113.0,155.4,171.7,665.0,4500.0,12.0,1,
144800,1868.0,53.3,146.4,169.9,663.0,4405.0,13.0,1,
144900,1865.6,30.4,130.4,130.8,556.0,3800.0,13.0,1,
145000,1859.5,13.4,130.4,57.2,556.0,3800.0,13.0,1,
145100,1859.5,12.5,130.4,52.2,556.0,3800.0,13.0,1,
145200,1860.5,12.4,130.4,30.0,556.0,3800.0,13.0,1,
145300,1861.0,12.1,130.4,35.0,556.0,3800.0,13.0,1,
145500,1860.8,12.6,130.4,177.0,556.0,3800.0,13.0,1,
145600,1860.8,11.6,130.4,177.1,556.0,3800.0,13.0,1,
145700,1860.6,12.4,130.4,177.6,556.0,3800.0,13.0,1,
145800,1860.4,12.7,130.4,200.5,556.0,3800.0,13.0,1,
145900,1874.0,80.4,130.7,71.0,1021.0,8443.0,15.0,1,
146000,1839.6,311.2,145.1,34.9,2117.0,7742.0,12.0,1,
146100,1836.7,248.9,157.4,30.3,1972.0,6016.0,12.0,1,
146200,1867.5,240.7,154.1,92.1,1253.0,4520.0,11.0,1,
146300,1870.3,213.3,154.6,216.8,1799.0,5115.0,11.0,1,
146500,1860.0,71.5,173.0,266.3,617.0,4210.0,23.0,1,
146600,1850.5,17.8,173.0,253.7,617.0,4210.0,23.0,1,
146700,1860.3,14.5,173.0,187.6,617.0,4210.0,23.0,1,
146800,1861.4,13.9,173.0,89.4,617.0,4210.0,23.0,1,
146900,1862.3,15.1,173.1,43.9,617.0,4210.0,23.0,1,
147000,1860.8,14.2,173.1,117.6,617.0,4210.0,23.0,1,
147100,1861.2,13.0,173.1,205.1,617.0,4210.0,23.0,1,
147200,1860.4,14.4,173.1,147.2,617.0,4210.0,23.0,1,
147300,1860.5,14.5,173.1,197.0,617.0,4210.0,23.0,1,
147500,1859.8,63.1,173.1,163.7,617.0,4210.0,23.0,1,
147600,1842.2,141.3,168.6,37.2,1110.0,8096.0,14.0,1,
147700,1847.1,117.4,154.4,35.5,781.0,5578.0,15.0,1,
147800,1865.3,274.5,148.6,35.3,1777.0,5183.0,10.0,1,
147900,1868.1,254.6,147.9,66.7,1932.0,5726.0,11.0,1,
148000,1864.6,289.3,153.7,152.1,1941.0,4797.0,11.0,1,
148100,1840.3,249.5,161.2,219.6,1861.0,5012.0,10.0,1,
148200,1862.9,29.1,164.4,254.4,512.0,3012.0,6.0,1,
148300,1860.6,14.3,164.4,232.0,512.0,3012.0,6.0,1,
148500,1862.3,14.0,164.4,147.4,512.0,3012.0,6.0,1,
148600,1862.4,13.3,164.4,143.4,512.0,3012.0,6.0,1,
148700,1861.6,13.8,164.4,177.2,512.0,3012.0,6.0,1,
148800,1860.2,13.9,164.4,226.2,512.0,3012.0,6.0,1,
148900,1861.1,13.7,164.4,237.5,512.0,3012.0,6.0,1,
149000,1860.1,14.2,164.4,220.6,512.0,3012.0,6.0,1,
149100,1859.9,14.9,164.4,149.5,512.0,3012.0,6.0,1,
149200,1830.2,181.9,168.0,38.7,1481.0,7688.0,11.0,1,
149300,1877.0,223.7,179.6,49.6,1940.0,6665.0,9.0,1,
149500,1866.4,158.0,182.5,199.4,1653.0,5407.0,11.0,1,
149600,1846.3,153.2,179.9,232.6,1216.0,4510.0,9.0,1,
149700,1843.7,215.1,176.3,253.6,1165.0,4284.0,6.0,1,
149800,1867.5,38.3,175.9,264.9,1819.0,4412.0,6.0,1,
149900,1860.1,16.2,175.9,243.9,1819.0,4412.0,6.0,1,
150000,1860.8,15.3,175.9,211.7,1819.0,4412.0,6.0,1,
150100,1862.4,14.2,176.0,189.4,1819.0,4412.0,6.0,1,
150200,1861.5,15.2,176.0,185.4,1819.0,4412.0,6.0,1,
150300,1860.8,14.6,175.9,239.4,1819.0,4412.0,6.0,1,
150501,1860.5,14.5,176.0,212.3,1819.0,4412.0,6.0,1,
150601,1860.2,15.8,176.0,239.2,1819.0,4412.0,6.0,1,
150701,1860.4,14.4,176.0,238.0,1819.0,4412.0,6.0,1,
150801,1830.0,126.6,173.1,49.4,1060.0,8315.0,14.0,1,
150901,1885.9,116.2,159.9,35.5,880.0,6381.0,12.0,1,
151001,1863.4,238.6,144.9,34.6,1384.0,5456.0,11.0,1,
151101,1858.1,196.5,154.8,35.4,1141.0,4731.0,11.0,1,
151201,1844.3,173.7,160.0,133.0,963.0,4128.0,10.0,1,
151301,1849.5,232.8,165.8,214.3,787.0,3309.0,8.0,1,
151501,1858.1,18.8,166.2,234.4,787.0,3309.0,8.0,1,
151601,1860.9,14.7,166.2,167.1,787.0,3309.0,8.0,1,
151701,1862.1,15.2,166.2,99.8,787.0,3309.0,8.0,1,
151801,1862.9,15.3,166.2,46.7,787.0,3309.0,8.0,1,
151901,1861.7,13.9,166.2,238.9,787.0,3309.0,8.0,1,
152001,1860.8,15.0,166.2,238.8,787.0,3309.0,8.0,1,
152101,1860.4,15.2,166.2,239.4,787.0,3309.0,8.0,1,
152201,1861.0,14.1,166.3,237.6,787.0,3309.0,8.0,1,
152301,1860.0,15.2,166.2,220.1,787.0,3309.0,8.0,1,
152501,1891.1,214.7,175.1,66.8,1106.0,6189.0,11.0,1,
152601,1858.5,222.7,187.4,110.2,899.0,4713.0,11.0,1,
152701,1849.3,225.2,185.6,163.2,765.0,4289.0,9.0,1,
152801,1840.6,164.3,182.2,254.3,642.0,3989.0,9.0,1,
152901,1863.0,191.8,181.3,265.6,1241.0,4221.0,6.0,1,
153001,1864.5,147.0,180.0,285.1,571.0,3229.0,6.0,1,
153101,1863.8,21.0,180.3,266.9,571.0,3229.0,6.0,1,
153201,1861.1,15.4,180.3,220.6,571.0,3229.0,6.0,1,
153301,1862.6,15.7,180.3,142.1,571.0,3229.0,6.0,1,
153501,1860.7,15.5,180.3,53.0,571.0,3229.0,6.0,1,
153601,1860.6,16.0,180.3,239.9,571.0,3229.0,6.0,1,
153701,1860.7,14.6,180.3,239.2,571.0,3229.0,6.0,1,
153801,1860.1,15.8,180.3,207.5,571.0,3229.0,6.0,1,
153901,1859.9,16.5,180.3,238.8,571.0,3229.0,6.0,1,
154001,1859.8,13.3,180.3,239.3,571.0,3229.0,6.0,1,
154101,1869.1,109.0,173.4,45.5,1069.0,7838.0,14.0,1,
154201,1855.8,198.4,158.5,37.1,765.0,5673.0,10.0,1,
154301,1844.4,229.5,156.4,36.6,591.0,3893.0,11.0,1,
154501,1869.0,203.8,154.4,190.0,722.0,3705.0,9.0,1,
154601,1864.7,239.5,155.2,201.4,537.0,3492.0,6.0,1,
154701,1865.6,33.4,157.7,210.2,382.0,2647.0,5.0,1,
154801,1862.0,16.9,157.8,213.9,382.0,2647.0,5.0,1,
154901,1862.7,14.3,157.8,86.3,382.0,2647.0,5.0,1,
155001,1862.9,15.0,157.8,35.5,382.0,2647.0,5.0,1,
155101,1861.7,15.7,157.8,37.4,382.0,2647.0,5.0,1,
155201,1860.3,14.4,157.8,237.9,382.0,2647.0,5.0,1,
155301,1860.0,15.5,157.8,215.9,382.0,2647.0,5.0,1,
155501,1860.8,15.9,157.8,239.8,382.0,2647.0,5.0,1,
155601,1860.5,15.6,157.8,239.6,382.0,2647.0,5.0,1,
155701,1871.2,122.4,158.4,41.6,1132.0,8548.0,14.0,1,
155801,1843.1,114.3,158.3,35.9,973.0,6667.0,12.0,1,
155901,1835.5,87.4,143.7,34.8,829.0,5785.0,12.0,1,
156001,1868.9,88.5,129.1,30.2,640.0,4471.0,10.0,1,
156101,1866.9,107.5,113.6,66.2,662.0,4377.0,10.0,1,
156201,1866.9,108.7,92.3,66.4,528.0,3683.0,14.0,1,
156301,1864.7,31.2,80.9,54.1,611.0,3972.0,9.0,1,
156501,1861.5,15.0,80.9,50.8,611.0,3972.0,9.0,1,
156601,1862.2,15.1,80.9,35.9,611.0,3972.0,9.0,1,
156701,1860.5,14.5,80.9,34.7,611.0,3972.0,9.0,1,
156801,1859.9,15.5,80.9,239.1,611.0,3972.0,9.0,1,
156901,1860.5,15.7,80.9,238.6,611.0,3972.0,9.0,1,
157001,1860.2,14.9,80.9,233.9,611.0,3972.0,9.0,1,
157101,1860.1,15.4,80.9,238.3,611.0,3972.0,9.0,1,
157201,1860.1,14.9,80.9,235.3,611.0,3972.0,9.0,1,
157301,1871.5,128.1,80.3,66.1,1013.0,8369.0,14.0,1,
157501,1849.0,222.3,137.2,35.8,2112.0,6180.0,8.0,1,
157601,1873.1,139.5,140.1,129.9,742.0,4901.0,12.0,1,
157701,1871.2,64.7,140.6,165.1,682.0,4498.0,10.0,1,
157801,1866.4,40.7,139.1,108.4,651.0,4258.0,10.0,1,
157901,1858.5,42.8,137.4,55.3,669.0,4006.0,10.0,1,
158001,1852.3,16.0,137.4,51.9,669.0,4006.0,10.0,1,
158101,1860.0,15.9,137.4,29.7,669.0,4006.0,10.0,1,
158201,1861.4,13.7,137.4,29.5,669.0,4006.0,10.0,1,
158301,1861.3,14.5,137.4,30.1,669.0,4006.0,10.0,1,
158501,1861.1,13.4,137.4,178.6,669.0,4006.0,10.0,1,
158601,1859.9,14.6,137.3,237.5,669.0,4006.0,10.0,1,
158701,1860.4,15.6,137.3,232.9,669.0,4006.0,10.0,1,
158801,1860.2,14.2,137.3,228.3,669.0,4006.0,10.0,1,
158901,1844.4,82.1,137.3,238.6,669.0,4006.0,10.0,1,
159001,1841.7,119.9,128.6,39.6,1065.0,7738.0,13.0,1,
159101,1878.8,97.5,95.0,36.0,809.0,5819.0,12.0,1,
159201,1867.6,52.1,73.3,35.2,765.0,5083.0,12.0,1,
159301,1863.9,55.6,73.2,30.2,648.0,4503.0,13.0,1,
159501,1843.9,72.3,81.1,55.4,603.0,4117.0,13.0,1,
159601,1876.1,19.4,81.2,54.4,606.0,3953.0,13.0,1,
159701,1861.0,13.6,81.1,55.1,606.0,3953.0,13.0,1,
159801,1861.3,14.4,81.1,54.9,606.0,3953.0,13.0,1,
159901,1861.0,13.7,81.1,47.5,606.0,3953.0,13.0,1,
160001,1861.2,10.5,81.1,137.5,606.0,3953.0,13.0,1,
160101,1859.8,8.6,81.1,237.5,606.0,3953.0,13.0,1,
160201,1859.4,9.2,81.0,195.7,606.0,3953.0,13.0,1,
160301,1860.6,8.6,81.0,136.8,606.0,3953.0,13.0,1,
160501,1859.5,9.2,80.8,141.1,606.0,3953.0,13.0,1,
160601,1829.6,332.1,100.9,35.9,1571.0,8360.0,10.0,1,
160701,1889.8,266.3,133.5,30.2,2179.0,6696.0,9.0,1,
160801,1862.0,276.2,156.1,56.8,1746.0,5750.0,11.0,1,
160901,1857.4,273.8,168.6,158.9,1659.0,4693.0,6.0,1,
161001,1842.7,252.6,183.3,267.9,1411.0,4439.0,6.0,1,
161101,1851.7,101.3,191.0,296.9,551.0,3786.0,24.0,1,
161201,1867.8,18.5,191.1,253.2,587.0,3845.0,10.0,1,
161301,1862.3,8.9,191.1,171.7,587.0,3845.0,10.0,1,
161501,1861.4,14.3,191.1,53.8,587.0,3845.0,10.0,1,
161601,1860.0,15.5,191.1,38.4,587.0,3845.0,10.0,1,
161701,1859.3,15.9,191.1,123.9,587.0,3845.0,10.0,1,
161801,1859.6,14.7,191.1,221.0,587.0,3845.0,10.0,1,
161901,1858.7,15.5,191.1,239.8,587.0,3845.0,10.0,1,
162001,1858.7,15.8,191.1,240.0,587.0,3845.0,10.0,1,
162101,1858.7,14.7,191.1,239.9,587.0,3845.0,10.0,1,
162201,1839.5,133.8,187.8,44.2,1147.0,8659.0,13.0,1,
162301,1882.9,238.6,169.0,35.1,1343.0,6300.0,9.0,1,
162501,1852.1,205.8,172.2,71.1,969.0,4453.0,9.0,1,
162601,1845.2,225.6,170.5,203.6,820.0,4046.0,8.0,1,
162701,1863.1,70.4,163.3,265.4,550.0,3797.0,9.0,1,
162801,1861.8,34.6,163.6,252.3,521.0,3605.0,10.0,1,
162901,1859.5,16.3,163.6,204.1,521.0,3605.0,10.0,1,
163001,1860.3,13.5,163.6,158.9,521.0,3605.0,10.0,1,
163101,1859.2,13.6,163.6,36.4,521.0,3605.0,10.0,1,
163201,1856.9,14.4,163.5,30.3,521.0,3605.0,10.0,1,
163301,1860.0,13.5,163.5,177.8,521.0,3605.0,10.0,1,
163501,1858.4,13.4,163.4,176.8,521.0,3605.0,10.0,1,
163601,1858.8,12.7,163.4,124.0,521.0,3605.0,10.0,1,
163701,1858.2,13.4,163.4,176.0,521.0,3605.0,10.0,1,
163801,1848.5,79.0,161.3,150.5,1136.0,8711.0,15.0,1,
163901,1875.4,111.1,162.7,40.2,1018.0,7146.0,14.0,1,
164001,1852.5,203.0,140.1,35.9,857.0,5637.0,10.0,1,
164101,1843.3,206.9,139.5,36.1,672.0,4133.0,6.0,1,
164201,1853.9,150.8,140.9,142.1,2065.0,4978.0,10.0,1,
164301,1868.9,228.7,136.3,220.0,884.0,3552.0,4.0,1,
164501,1859.6,18.3,152.3,124.5,884.0,3552.0,4.0,1,
164601,1860.2,14.0,152.3,70.3,884.0,3552.0,4.0,1,
164701,1858.3,13.5,152.3,141.6,884.0,3552.0,4.0,1,
164801,1857.6,13.9,152.3,141.9,884.0,3552.0,4.0,1,
164901,1858.0,15.4,152.3,117.7,884.0,3552.0,4.0,1,
165001,1857.9,17.0,152.3,133.1,884.0,3552.0,4.0,1,
165101,1858.3,15.6,152.4,124.0,884.0,3552.0,4.0,1,
165201,1858.5,15.6,152.4,147.9,884.0,3552.0,4.0,1,
165301,1858.5,16.6,152.4,178.0,884.0,3552.0,4.0,1,
165501,1873.4,289.3,163.1,66.0,1320.0,7482.0,11.0,1,
165601,1841.5,296.0,176.8,70.6,1689.0,6397.0,10.0,1,
165701,1837.0,263.3,183.6,131.3,1602.0,4987.0,6.0,1,
165801,1868.3,238.5,186.0,230.8,654.0,3589.0,6.0,1,
165901,1865.7,261.6,198.8,296.4,611.0,3248.0,6.0,1,
166001,1864.1,176.7,197.9,299.4,2046.0,4224.0,6.0,1,
166101,1859.9,25.7,198.8,264.8,2046.0,4224.0,6.0,1,
166201,1858.9,15.0,198.8,169.9,2046.0,4224.0,6.0,1,
166301,1859.2,12.9,198.8,143.3,2046.0,4224.0,6.0,1,
166501,1858.3,14.5,198.8,66.6,2046.0,4224.0,6.0,1,
166601,1858.7,16.4,198.9,133.4,2046.0,4224.0,6.0,1,
166701,1858.3,23.3,198.9,89.2,2046.0,4224.0,6.0,1,
166801,1859.0,16.0,199.0,52.7,2046.0,4224.0,6.0,1,
166901,1859.6,13.4,199.0,53.2,2046.0,4224.0,6.0,1,
167001,1859.2,15.2,199.0,66.3,2046.0,4224.0,6.0,1,
167101,1879.5,211.4,194.7,55.9,2311.0,9172.0,10.0,1,
167201,1826.0,282.3,200.7,71.0,2202.0,7475.0,8.0,1,
167301,1853.7,260.5,198.9,133.2,2029.0,6479.0,15.0,1,
167501,1867.1,247.0,194.2,264.8,1496.0,4430.0,6.0,1,
167601,1864.5,266.1,184.0,264.7,1912.0,4863.0,5.0,1,
167701,1850.0,48.7,188.3,296.4,588.0,3208.0,6.0,1,
167801,1858.4,15.6,188.3,264.9,588.0,3208.0,6.0,1,
167901,1858.8,13.7,188.3,215.6,588.0,3208.0,6.0,1,
168001,1859.1,14.2,188.3,151.3,588.0,3208.0,6.0,1,
168101,1858.9,12.8,188.3,68.7,588.0,3208.0,6.0,1,
168201,1858.1,13.9,188.2,178.3,588.0,3208.0,6.0,1,
168301,1857.7,14.5,188.2,146.1,588.0,3208.0,6.0,1,
168501,1858.9,14.3,188.1,86.4,588.0,3208.0,6.0,1,
168601,1858.5,16.8,188.1,69.5,588.0,3208.0,6.0,1,
168701,1855.3,112.5,185.0,56.1,1004.0,7805.0,14.0,1,
168801,1836.6,120.3,174.2,38.1,944.0,6945.0,14.0,1,
168901,1875.4,106.3,159.4,36.0,905.0,6133.0,11.0,1,
169001,1871.0,271.5,152.2,35.6,2083.0,5579.0,10.0,1,
169101,1868.4,61.8,146.3,83.5,604.0,4032.0,23.0,1,
169201,1846.5,68.0,131.3,153.7,607.0,3886.0,10.0,1,
169301,1874.3,45.8,113.5,141.1,512.0,3429.0,10.0,1,
169501,1858.9,14.8,113.5,50.5,512.0,3429.0,10.0,1,
169601,1859.6,13.8,113.5,30.1,512.0,3429.0,10.0,1,
169701,1858.9,15.4,113.5,30.2,512.0,3429.0,10.0,1,
169801,1858.5,15.9,113.5,177.1,512.0,3429.0,10.0,1,
169901,1859.3,13.6,113.5,138.9,512.0,3429.0,10.0,1,
170001,1859.5,14.6,113.6,83.8,512.0,3429.0,10.0,1,
170101,1858.7,16.3,113.5,85.0,512.0,3429.0,10.0,1,
170201,1858.8,15.0,113.5,122.2,512.0,3429.0,10.0,1,
170301,1841.5,83.5,113.5,148.8,512.0,3429.0,10.0,1,
170501,1875.7,266.5,148.2,30.2,2071.0,6337.0,11.0,1,
170601,1863.9,116.0,163.2,87.0,755.0,5280.0,14.0,1,
170701,1859.3,67.8,143.8,169.5,591.0,4157.0,22.0,1,
170801,1842.4,82.6,143.9,199.0,590.0,3932.0,15.0,1,
170901,1850.8,72.0,145.0,158.1,500.0,3246.0,23.0,1,
171001,1872.3,18.3,145.1,73.6,500.0,3246.0,23.0,1,
171101,1859.2,12.8,145.1,55.2,500.0,3246.0,23.0,1,
171201,1859.2,13.1,145.1,46.3,500.0,3246.0,23.0,1,
171301,1858.4,15.2,145.1,34.4,500.0,3246.0,23.0,1,
171501,1858.8,13.8,145.1,104.4,500.0,3246.0,23.0,1,
171601,1858.8,15.2,145.0,102.7,500.0,3246.0,23.0,1,
171701,1859.3,14.0,145.1,123.6,500.0,3246.0,23.0,1,
171801,1859.0,14.0,145.0,152.8,500.0,3246.0,23.0,1,
171901,1858.8,14.8,145.0,135.7,500.0,3246.0,23.0,1,
172001,1842.3,127.9,139.7,36.6,992.0,7558.0,14.0,1,
172101,1875.5,274.7,123.5,34.6,1461.0,5259.0,10.0,1,
172201,1862.5,121.3,122.3,36.1,2117.0,5953.0,11.0,1,
172301,1850.3,67.8,121.9,66.8,597.0,4125.0,15.0,1,
172501,1857.7,88.1,120.1,82.1,517.0,3421.0,23.0,1,
172601,1865.6,23.6,120.2,67.3,533.0,3467.0,23.0,1,
172701,1859.3,14.3,120.2,55.5,533.0,3467.0,23.0,1,
172801,1858.9,14.3,120.2,47.4,533.0,3467.0,23.0,1,
172901,1860.5,14.3,120.2,37.6,533.0,3467.0,23.0,1,
173001,1858.8,13.0,120.2,48.1,533.0,3467.0,23.0,1,
173101,1857.0,12.8,120.2,72.5,533.0,3467.0,23.0,1,
173201,1858.1,14.6,120.2,55.2,533.0,3467.0,23.0,1,
173301,1858.4,15.2,120.2,72.6,533.0,3467.0,23.0,1,
173501,1859.6,19.7,120.2,117.2,533.0,3467.0,23.0,1,
173601,1847.4,103.0,118.2,54.6,1116.0,8370.0,15.0,1,
173701,1868.7,90.7,120.2,39.1,865.0,6173.0,15.0,1,
173801,1854.5,108.3,77.5,37.0,771.0,5518.0,14.0,1,
173901,1844.0,132.0,76.9,36.7,732.0,4842.0,15.0,1,
174001,1849.0,104.1,82.1,44.3,533.0,3486.0,22.0,1,
174101,1866.3,98.3,85.0,65.7,527.0,3623.0,22.0,1,
174201,1858.9,39.3,82.6,65.6,521.0,3442.0,17.0,1,
174301,1857.7,22.2,82.7,54.5,521.0,3442.0,17.0,1,
174501,1859.5,20.3,82.9,50.7,521.0,3442.0,17.0,1,
174601,1857.9,22.3,83.1,66.5,521.0,3442.0,17.0,1,
174701,1858.9,20.0,83.2,240.5,521.0,3442.0,17.0,1,
174801,1858.8,21.2,83.2,239.9,521.0,3442.0,17.0,1,
174901,1858.1,20.6,83.3,240.0,521.0,3442.0,17.0,1,
175001,1859.3,21.1,83.4,239.7,521.0,3442.0,17.0,1,
175101,1858.3,21.9,83.6,210.6,521.0,3442.0,17.0,1,
175201,1856.4,88.3,83.8,108.9,1077.0,8677.0,17.0,1,
175301,1866.3,190.3,85.4,37.0,935.0,6571.0,15.0,1,
175501,1836.8,187.2,134.0,42.5,2082.0,5654.0,6.0,1,
175601,1868.3,112.0,134.5,44.3,700.0,4357.0,9.0,1,
175701,1862.7,55.6,132.4,56.6,657.0,3910.0,9.0,1,
175801,1860.7,55.2,130.7,65.5,567.0,3506.0,9.0,1,
175901,1856.3,21.7,130.7,55.8,567.0,3506.0,9.0,1,
176001,1858.7,20.7,130.7,52.8,567.0,3506.0,9.0,1,
176101,1858.5,21.2,130.7,29.3,567.0,3506.0,9.0,1,
176201,1859.0,19.8,130.7,34.2,567.0,3506.0,9.0,1,
176301,1858.0,20.9,130.7,239.6,567.0,3506.0,9.0,1,
176501,1858.9,20.5,130.7,240.8,567.0,3506.0,9.0,1,
176601,1858.5,21.1,130.7,240.7,567.0,3506.0,9.0,1,
176701,1859.0,22.2,130.7,240.3,567.0,3506.0,9.0,1,
176801,1859.2,117.6,130.7,240.8,567.0,3506.0,9.0,1,
176901,1872.3,183.7,148.2,36.2,976.0,7668.0,15.0,1,
177001,1833.3,110.9,144.6,36.3,882.0,6189.0,15.0,1,
177101,1847.8,94.7,108.3,37.5,701.0,4871.0,15.0,1,
177201,1865.5,122.7,105.2,43.8,647.0,4456.0,14.0,1,
177301,1863.7,108.2,105.3,70.9,559.0,3730.0,15.0,1,
177501,1859.3,27.9,109.4,72.2,559.0,3730.0,15.0,1,
177601,1859.0,21.8,109.4,55.6,559.0,3730.0,15.0,1,
177701,1859.6,20.5,109.4,52.8,559.0,3730.0,15.0,1,
177801,1858.7,21.0,109.4,47.1,559.0,3730.0,15.0,1,
177901,1857.8,23.5,109.4,85.7,559.0,3730.0,15.0,1,
178001,1859.2,21.5,109.5,240.3,559.0,3730.0,15.0,1,
178101,1858.3,23.1,109.5,240.1,559.0,3730.0,15.0,1,
178201,1858.6,23.0,109.5,240.4,559.0,3730.0,15.0,1,
178301,1858.7,21.6,109.6,240.5,559.0,3730.0,15.0,1,
178501,1858.4,149.5,91.8,39.7,1057.0,8061.0,13.0,1,
178601,1840.7,151.4,113.6,39.4,1263.0,5958.0,11.0,1,
178701,1871.0,104.2,117.6,42.2,712.0,5276.0,11.0,1,
178801,1867.3,59.5,116.9,48.8,740.0,4965.0,15.0,1,
178901,1862.8,51.9,116.7,49.1,606.0,3890.0,22.0,1,
179001,1843.9,65.1,117.1,50.4,590.0,3981.0,11.0,1,
179101,1869.1,38.3,117.6,65.7,547.0,3606.0,10.0,1,
179201,1858.9,21.0,117.6,54.8,547.0,3606.0,10.0,1,
179301,1858.8,20.8,117.6,54.4,547.0,3606.0,10.0,1,
179501,1858.0,21.3,117.6,55.6,547.0,3606.0,10.0,1,
179601,1859.6,21.8,117.6,240.8,547.0,3606.0,10.0,1,
179701,1858.8,22.2,117.5,240.4,547.0,3606.0,10.0,1,
179801,1859.1,21.7,117.5,240.8,547.0,3606.0,10.0,1,
179901,1858.4,21.8,117.5,240.9,547.0,3606.0,10.0,1,
180001,1858.7,22.5,117.5,240.3,547.0,3606.0,10.0,1,
180101,1849.1,168.6,118.2,43.0,547.0,3606.0,10.0,1,
180201,1849.7,163.7,104.0,40.9,854.0,6540.0,19.0,1,
180301,1878.6,101.5,104.5,43.2,831.0,5730.0,13.0,1,
180501,1861.9,59.3,106.3,52.7,589.0,4047.0,24.0,1,
180601,1838.1,71.0,103.7,52.9,520.0,3539.0,14.0,1,
180701,1868.0,55.4,103.1,50.5,525.0,3613.0,12.0,1,
180801,1854.4,23.2,103.2,47.9,525.0,3613.0,12.0,1,
180901,1859.7,21.4,103.1,54.0,525.0,3613.0,12.0,1,
181001,1860.6,20.9,103.1,50.0,525.0,3613.0,12.0,1,
181101,1859.3,22.5,103.1,48.8,525.0,3613.0,12.0,1,
181201,1859.2,21.6,103.1,240.7,525.0,3613.0,12.0,1,
181301,1859.6,15.5,103.1,240.5,525.0,3613.0,12.0,1,
181501,1859.5,21.9,103.0,178.2,525.0,3613.0,12.0,1,
181601,1859.4,21.4,103.0,186.5,525.0,3613.0,12.0,1,
181701,1829.7,96.0,96.4,238.2,525.0,3613.0,12.0,1,
181801,1872.4,148.5,88.9,36.2,877.0,6933.0,15.0,1,
181901,1877.7,72.1,82.4,34.2,820.0,5613.0,15.0,1,
182001,1864.7,91.4,82.3,30.0,715.0,5032.0,14.0,1,
182101,1850.4,79.7,85.8,37.8,610.0,4558.0,22.0,1,
182201,1843.1,70.6,85.5,56.2,576.0,3954.0,15.0,1,
182301,1859.7,58.9,83.4,52.4,548.0,3549.0,9.0,1,
182501,1859.4,18.6,83.5,39.5,548.0,3549.0,9.0,1,
182601,1860.3,19.6,83.4,28.7,548.0,3549.0,9.0,1,
182701,1860.1,21.0,83.4,28.5,548.0,3549.0,9.0,1,
182801,1858.7,18.8,83.4,239.1,548.0,3549.0,9.0,1,
182901,1860.2,19.9,83.4,240.3,548.0,3549.0,9.0,1,
183001,1858.8,20.2,83.4,239.9,548.0,3549.0,9.0,1,
183101,1859.3,19.6,83.4,240.6,548.0,3549.0,9.0,1,
183201,1859.2,19.6,83.4,240.8,548.0,3549.0,9.0,1,
183301,1859.4,21.2,83.3,241.1,548.0,3549.0,9.0,1,
183501,1868.7,77.7,79.8,35.3,804.0,5965.0,15.0,1,
183601,1857.5,85.4,78.5,34.9,685.0,4994.0,21.0,1,
183701,1842.8,117.6,73.5,35.5,653.0,4365.0,15.0,1,
183801,1851.9,99.8,77.3,65.8,511.0,3512.0,21.0,1,
183901,1866.7,86.4,80.0,54.8,558.0,3608.0,10.0,1,
184001,1868.4,27.6,79.9,55.5,562.0,3561.0,14.0,1,
184101,1859.7,20.9,79.9,54.1,562.0,3561.0,14.0,1,
184201,1860.8,20.0,79.9,51.1,562.0,3561.0,14.0,1,
184301,1859.8,19.4,79.9,47.1,562.0,3561.0,14.0,1,
184501,1860.0,20.6,79.9,241.2,562.0,3561.0,14.0,1,
184601,1858.8,18.8,80.0,240.7,562.0,3561.0,14.0,1,
184701,1858.9,20.6,80.0,241.0,562.0,3561.0,14.0,1,
184801,1859.1,20.6,80.0,241.2,562.0,3561.0,14.0,1,
184901,1859.5,19.0,80.0,241.0,562.0,3561.0,14.0,1,
185001,1856.7,180.6,78.3,67.4,1131.0,8486.0,15.0,1,
185101,1869.1,258.7,118.6,36.1,2240.0,7484.0,11.0,1,
185201,1848.4,94.8,123.1,41.5,787.0,5230.0,11.0,1,
185301,1835.3,72.4,122.5,55.9,721.0,4879.0,11.0,1,
185501,1862.7,108.4,121.1,55.2,594.0,3811.0,10.0,1,
185601,1870.0,34.1,121.5,70.4,497.0,3406.0,11.0,1,
185701,1859.0,14.9,121.4,55.6,497.0,3406.0,11.0,1,
185801,1860.5,11.9,121.3,53.4,497.0,3406.0,11.0,1,
185901,1861.2,13.0,121.2,48.0,497.0,3406.0,11.0,1,
186001,1858.5,13.5,121.2,42.8,497.0,3406.0,11.0,1,
186101,1860.7,12.3,121.1,238.0,497.0,3406.0,11.0,1,
186201,1858.6,14.8,121.0,214.9,497.0,3406.0,11.0,1,
186301,1859.0,14.9,121.0,238.8,497.0,3406.0,11.0,1,
186501,1858.8,15.1,120.8,178.1,497.0,3406.0,11.0,1,
186601,1868.3,80.7,120.8,68.4,987.0,7992.0,15.0,1,
186701,1860.5,162.0,94.9,37.5,881.0,6769.0,15.0,1,
186801,1834.3,100.4,91.3,38.1,835.0,5727.0,14.0,1,
186901,1850.9,68.8,91.5,42.0,712.0,4774.0,15.0,1,
187001,1870.2,58.5,91.7,50.2,724.0,4531.0,9.0,1,
187101,1861.6,59.7,88.2,53.4,694.0,3941.0,9.0,1,
187201,1862.4,58.2,88.3,40.3,549.0,3215.0,9.0,1,
187301,1854.6,14.4,88.3,72.9,549.0,3215.0,9.0,1,
187501,1859.4,13.0,88.3,67.9,549.0,3215.0,9.0,1,
187601,1858.9,13.1,88.3,54.1,549.0,3215.0,9.0,1,
187701,1858.3,14.0,88.3,134.8,549.0,3215.0,9.0,1,
187801,1858.8,13.9,88.3,178.4,549.0,3215.0,9.0,1,
187901,1859.2,12.9,88.3,135.1,549.0,3215.0,9.0,1,
188001,1858.7,13.6,88.3,155.7,549.0,3215.0,9.0,1,
188101,1858.8,13.7,88.3,198.9,549.0,3215.0,9.0,1,
188201,1859.3,23.6,88.3,178.0,549.0,3215.0,9.0,1,
188301,1859.6,154.6,81.1,35.6,921.0,7503.0,15.0,1,
188501,1869.8,113.8,121.0,30.1,703.0,4938.0,10.0,1,
188601,1864.8,62.4,120.9,45.0,677.0,4576.0,14.0,1,
188701,1858.4,50.6,121.1,67.2,610.0,3917.0,10.0,1,
188801,1846.8,68.6,121.3,65.7,568.0,3794.0,10.0,1,
188901,1863.0,19.0,121.4,70.2,589.0,3707.0,11.0,1,
189001,1859.9,12.7,121.4,68.0,589.0,3707.0,11.0,1,
189101,1860.4,12.9,121.4,52.5,589.0,3707.0,11.0,1,
189201,1858.6,14.4,121.4,45.9,589.0,3707.0,11.0,1,
189301,1858.3,13.1,121.4,76.5,589.0,3707.0,11.0,1,
189501,1858.8,13.8,121.4,139.1,589.0,3707.0,11.0,1,
189601,1858.7,13.2,121.4,177.3,589.0,3707.0,11.0,1,
189701,1859.3,12.9,121.4,164.9,589.0,3707.0,11.0,1,
189801,1858.7,13.4,121.4,123.7,589.0,3707.0,11.0,1,
189901,1841.1,135.5,120.6,40.4,1048.0,8100.0,15.0,1,
190001,1856.0,154.2,112.2,37.1,822.0,6109.0,16.0,1,
190101,1874.5,119.9,82.7,39.2,707.0,5279.0,11.0,1,
190201,1865.3,52.7,82.5,52.3,653.0,4566.0,16.0,1,
190301,1859.5,47.7,83.1,52.5,596.0,3906.0,23.0,1,
190501,1866.6,25.5,82.8,56.7,544.0,3530.0,10.0,1,
190601,1860.7,12.5,82.7,67.3,544.0,3530.0,10.0,1,
190701,1860.6,13.7,82.7,54.4,544.0,3530.0,10.0,1,
190801,1860.6,13.6,82.7,49.5,544.0,3530.0,10.0,1,
190901,1857.9,14.1,82.7,65.8,544.0,3530.0,10.0,1,
191001,1859.1,14.7,82.8,157.0,544.0,3530.0,10.0,1,
191101,1858.6,13.7,82.8,177.8,544.0,3530.0,10.0,1,
191201,1859.0,14.0,82.8,177.2,544.0,3530.0,10.0,1,
191301,1858.3,14.4,82.8,168.0,544.0,3530.0,10.0,1,
191501,1819.6,126.1,82.5,51.2,1039.0,8210.0,15.0,1,
191601,1874.6,150.0,82.6,35.6,783.0,6013.0,19.0,1,
191701,1872.2,143.6,83.4,35.3,735.0,5147.0,15.0,1,
191801,1869.2,114.0,84.6,46.3,622.0,4311.0,15.0,1,
191901,1852.0,61.3,87.4,53.6,513.0,3651.0,23.0,1,
192001,1840.5,73.9,87.4,53.8,488.0,3371.0,25.0,0,
192101,1881.5,40.8,87.2,53.2,447.0,3180.0,15.0,1,
192201,1856.0,13.9,87.2,69.2,447.0,3180.0,15.0,1,
192301,1859.3,11.4,87.2,68.1,447.0,3180.0,15.0,1,
192501,1857.3,12.6,87.2,35.9,447.0,3180.0,15.0,1,
192601,1859.1,11.9,87.2,123.0,447.0,3180.0,15.0,1,
192701,1859.4,12.5,87.2,125.0,447.0,3180.0,15.0,1,
192801,1859.1,13.3,87.1,124.0,447.0,3180.0,15.0,1,
192901,1859.3,12.8,87.1,155.4,447.0,3180.0,15.0,1,
193001,1859.7,13.0,87.1,145.7,447.0,3180.0,15.0,1,
193101,1815.0,88.1,85.2,123.6,975.0,8107.0,16.0,1,
193201,1896.0,145.7,87.4,35.4,885.0,7164.0,14.0,1,
193301,1866.2,65.8,83.0,30.1,793.0,5573.0,15.0,1,
193501,1832.3,84.2,84.4,46.8,711.0,4613.0,12.0,1,
193601,1857.5,77.5,87.6,54.6,498.0,3397.0,15.0,1,
193701,1867.7,56.9,84.9,53.5,606.0,3748.0,10.0,1,
193801,1865.0,13.4,85.2,53.6,606.0,3748.0,10.0,1,
193901,1859.9,11.0,85.2,52.8,606.0,3748.0,10.0,1,
194001,1859.2,12.4,85.2,29.5,606.0,3748.0,10.0,1,
194101,1857.3,12.9,85.2,28.8,606.0,3748.0,10.0,1,
194201,1859.0,12.3,85.2,91.1,606.0,3748.0,10.0,1,
194301,1858.8,13.1,85.2,145.5,606.0,3748.0,10.0,1,
194501,1858.6,14.5,85.2,237.6,606.0,3748.0,10.0,1,
194601,1859.3,14.1,85.2,238.6,606.0,3748.0,10.0,1,
194701,1858.2,15.5,85.3,235.1,606.0,3748.0,10.0,1,
194801,1867.4,133.2,90.9,37.2,952.0,7379.0,15.0,1,
194901,1869.3,101.8,95.9,36.1,745.0,5749.0,15.0,1,
195001,1839.5,77.4,91.9,37.9,688.0,5050.0,10.0,1,
195101,1843.1,99.4,92.2,42.9,668.0,4691.0,10.0,1,
195201,1869.0,78.9,91.9,51.0,581.0,3862.0,9.0,1,
195301,1868.5,73.2,94.9,55.5,593.0,3838.0,11.0,1,
195501,1860.9,13.9,95.1,54.4,593.0,3838.0,11.0,1,
195601,1859.7,12.8,95.1,53.2,593.0,3838.0,11.0,1,
195701,1859.5,13.0,95.1,50.4,593.0,3838.0,11.0,1,
195801,1860.3,13.2,95.1,104.2,593.0,3838.0,11.0,1,
195901,1859.0,12.6,95.1,176.5,593.0,3838.0,11.0,1,
196001,1859.9,13.2,95.1,178.2,593.0,3838.0,11.0,1,
196101,1859.1,13.3,95.1,175.4,593.0,3838.0,11.0,1,
196201,1859.0,13.0,95.1,177.5,593.0,3838.0,11.0,1,
196301,1859.2,12.9,95.1,238.3,593.0,3838.0,11.0,1,
196501,1855.7,138.5,95.8,37.8,912.0,6773.0,15.0,1,
196601,1839.0,116.3,99.3,39.4,683.0,5060.0,21.0,1,
196701,1857.8,91.7,98.9,42.9,644.0,4335.0,15.0,1,
196801,1867.9,57.6,96.1,52.6,538.0,3721.0,25.0,0,
196901,1861.8,87.6,95.7,53.1,535.0,3698.0,10.0,1,
197001,1850.5,29.1,96.0,54.2,532.0,3436.0,10.0,1,
197101,1859.8,12.1,96.0,70.5,532.0,3436.0,10.0,1,
197201,1860.8,11.3,95.9,67.6,532.0,3436.0,10.0,1,
197301,1860.1,12.1,95.9,53.3,532.0,3436.0,10.0,1,
197501,1859.5,12.3,95.9,148.4,532.0,3436.0,10.0,1,
197601,1859.4,13.1,95.9,177.2,532.0,3436.0,10.0,1,
197701,1859.4,12.5,95.9,196.5,532.0,3436.0,10.0,1,
197801,1859.8,13.7,95.9,206.1,532.0,3436.0,10.0,1,
197901,1859.0,13.7,95.9,197.4,532.0,3436.0,10.0,1,
198001,1870.4,95.6,94.7,68.4,1013.0,8388.0,16.0,1,
198101,1849.3,145.8,83.4,35.6,890.0,6690.0,15.0,1,
198201,1838.6,145.5,83.2,34.7,800.0,5453.0,14.0,1,
198301,1870.1,104.7,82.2,35.0,618.0,4530.0,14.0,1,
198501,1865.8,63.2,84.6,54.4,527.0,3723.0,10.0,1,
198601,1857.6,53.4,82.8,53.0,463.0,3177.0,23.0,1,
198701,1853.2,15.8,82.9,52.2,463.0,3177.0,23.0,1,
198801,1859.5,12.2,82.9,47.3,463.0,3177.0,23.0,1,
198901,1860.1,11.1,82.9,28.6,463.0,3177.0,23.0,1,
199001,1856.7,12.6,82.9,29.5,463.0,3177.0,23.0,1,
199101,1859.0,12.0,82.9,99.7,463.0,3177.0,23.0,1,
199201,1858.7,11.3,83.0,124.8,463.0,3177.0,23.0,1,
199301,1859.7,12.2,82.9,164.7,463.0,3177.0,23.0,1,
199501,1858.8,11.4,82.9,165.1,463.0,3177.0,23.0,1,
199601,1859.4,72.9,82.9,177.0,463.0,3177.0,23.0,1,
199701,1843.2,150.0,83.6,35.2,929.0,7371.0,15.0,1,
199801,1853.3,99.9,82.6,30.1,738.0,5178.0,19.0,1,
199901,1865.7,76.5,78.1,29.9,624.0,4157.0,22.0,1,
200001,1863.2,106.2,74.9,29.9,544.0,3627.0,23.0,1,
200101,1863.6,100.1,75.0,55.3,477.0,3270.0,21.0,1,
200201,1853.1,96.4,78.3,66.2,520.0,3294.0,9.0,1,
200301,1867.6,18.1,79.1,72.9,520.0,3294.0,9.0,1,
200501,1860.3,12.3,79.1,54.0,520.0,3294.0,9.0,1,
200601,1859.4,10.6,79.1,50.5,520.0,3294.0,9.0,1,
200701,1858.3,10.6,79.1,77.1,520.0,3294.0,9.0,1,
200801,1858.5,10.0,79.0,135.5,520.0,3294.0,9.0,1,
200901,1857.9,10.4,79.0,157.9,520.0,3294.0,9.0,1,
201001,1858.8,9.9,79.0,133.6,520.0,3294.0,9.0,1,
201101,1859.0,10.9,79.0,133.9,520.0,3294.0,9.0,1,
201201,1858.5,10.6,79.0,125.4,520.0,3294.0,9.0,1,
201301,1825.3,149.7,86.8,39.9,1134.0,7897.0,14.0,1,
201501,1875.9,260.3,141.6,42.2,1771.0,6360.0,7.0,1,
201601,1862.5,306.7,167.6,106.6,1731.0,5043.0,6.0,1,
201701,1843.6,212.1,186.3,226.5,2144.0,4581.0,6.0,1,
201801,1846.7,55.3,188.0,265.0,815.0,4118.0,10.0,1,
201901,1889.6,24.3,188.9,232.4,879.0,4209.0,10.0,1,
202001,1860.6,12.8,188.9,159.1,879.0,4209.0,10.0,1,
202101,1859.8,11.0,188.9,76.0,879.0,4209.0,10.0,1,
202201,1860.0,10.8,188.9,57.1,879.0,4209.0,10.0,1,
202301,1858.9,11.8,188.9,66.1,879.0,4209.0,10.0,1,
202501,1860.3,12.1,188.9,206.8,879.0,4209.0,10.0,1,
202601,1859.4,13.1,189.0,210.2,879.0,4209.0,10.0,1,
202701,1859.9,12.6,189.0,209.7,879.0,4209.0,10.0,1,
202801,1860.1,12.6,189.0,210.3,879.0,4209.0,10.0,1,
202901,1836.4,115.0,184.4,53.5,1074.0,8275.0,15.0,1,
203001,1885.6,103.5,178.6,36.5,845.0,5992.0,14.0,1,
203101,1870.9,76.7,161.2,35.7,668.0,4541.0,10.0,1,
203201,1866.0,67.6,134.7,44.5,559.0,3641.0,10.0,1,
203301,1837.5,61.1,103.3,53.5,522.0,3331.0,14.0,1,
203501,1873.0,32.0,75.7,52.4,482.0,2779.0,15.0,1,
203601,1859.5,14.0,75.8,29.9,482.0,2779.0,15.0,1,
203701,1860.7,12.1,75.8,29.4,482.0,2779.0,15.0,1,
203801,1862.1,13.6,75.8,29.6,482.0,2779.0,15.0,1,
203901,1860.5,12.1,75.8,37.5,482.0,2779.0,15.0,1,
204001,1860.9,12.1,75.7,177.6,482.0,2779.0,15.0,1,
204101,1860.3,13.1,75.7,197.1,482.0,2779.0,15.0,1,
204201,1860.8,12.3,75.7,220.3,482.0,2779.0,15.0,1,
204301,1860.0,12.4,75.7,177.5,482.0,2779.0,15.0,1,
204501,1840.9,81.8,72.3,195.3,952.0,7988.0,16.0,1,
204601,1889.6,128.3,75.9,36.1,816.0,6403.0,15.0,1,
204701,1860.9,56.9,69.8,34.8,767.0,5270.0,14.0,1,
204801,1844.1,62.5,65.6,30.1,668.0,4667.0,14.0,1,
204901,1844.1,78.4,70.8,29.9,649.0,4490.0,10.0,1,
205001,1873.8,74.9,73.6,67.5,520.0,3271.0,11.0,1,
205101,1869.1,58.0,75.7,56.7,471.0,2943.0,15.0,1,
205201,1863.9,16.8,75.8,66.0,471.0,2943.0,15.0,1,
205301,1862.1,14.8,75.7,65.7,471.0,2943.0,15.0,1,
205501,1860.6,11.9,75.7,47.7,471.0,2943.0,15.0,1,
205601,1859.7,13.1,75.8,167.6,471.0,2943.0,15.0,1,
205701,1860.9,12.4,75.8,231.8,471.0,2943.0,15.0,1,
205801,1860.0,11.6,75.8,233.6,471.0,2943.0,15.0,1,
205901,1860.7,12.7,75.7,178.3,471.0,2943.0,15.0,1,
206001,1860.1,12.3,75.7,178.6,471.0,2943.0,15.0,1,
206101,1860.3,11.2,75.7,234.9,471.0,2943.0,15.0,1,
206201,1876.1,121.8,76.2,35.8,949.0,7395.0,13.0,1,
206301,1858.0,81.4,75.4,34.4,807.0,5794.0,11.0,1,
206501,1858.9,63.6,70.8,30.1,570.0,3814.0,14.0,1,
206601,1868.6,86.9,70.2,36.5,503.0,3599.0,12.0,1,
206701,1864.2,68.5,70.7,51.0,450.0,3127.0,10.0,1,
206801,1861.3,18.2,70.7,76.3,492.0,3192.0,11.0,1,
206901,1860.8,11.7,70.7,71.6,492.0,3192.0,11.0,1,
207001,1861.3,11.8,70.7,54.7,492.0,3192.0,11.0,1,
207101,1862.6,11.7,70.6,49.5,492.0,3192.0,11.0,1,
207201,1858.9,11.2,70.6,85.7,492.0,3192.0,11.0,1,
207301,1861.5,11.8,70.6,178.2,492.0,3192.0,11.0,1,
207501,1860.6,12.0,70.6,178.3,492.0,3192.0,11.0,1,
207601,1859.9,13.0,70.6,238.8,492.0,3192.0,11.0,1,
207701,1860.5,16.8,70.6,239.6,492.0,3192.0,11.0,1,
207801,1867.3,293.9,69.2,39.4,1060.0,8163.0,14.0,1,
207901,1851.2,198.9,103.7,35.8,775.0,5808.0,14.0,1,
208001,1843.2,144.2,110.8,45.9,687.0,5060.0,11.0,1,
208101,1868.5,75.5,111.6,49.8,616.0,4287.0,12.0,1,
208201,1864.9,67.7,111.8,51.2,482.0,3474.0,23.0,1,
208301,1860.1,111.4,109.7,50.3,529.0,3484.0,10.0,1,
208501,1861.4,13.5,111.2,69.4,529.0,3484.0,10.0,1,
208601,1861.1,12.4,111.2,57.3,529.0,3484.0,10.0,1,
208701,1862.0,11.3,111.2,55.9,529.0,3484.0,10.0,1,
208801,1860.2,11.8,111.2,66.1,529.0,3484.0,10.0,1,
208901,1860.0,12.1,111.2,207.0,529.0,3484.0,10.0,1,
209001,1860.8,11.4,111.2,177.9,529.0,3484.0,10.0,1,
209101,1859.8,11.8,111.2,174.9,529.0,3484.0,10.0,1,
209201,1860.6,12.4,111.2,168.0,529.0,3484.0,10.0,1,
209301,1860.0,11.9,111.2,178.5,529.0,3484.0,10.0,1,
209501,1826.5,126.3,81.1,35.6,889.0,6727.0,14.0,1,
209601,1860.1,82.5,75.4,34.6,704.0,4972.0,10.0,1,
209701,1866.9,107.3,69.2,30.1,604.0,4094.0,11.0,1,
209801,1867.9,113.5,72.8,30.1,556.0,3861.0,10.0,1,
209901,1869.3,111.3,75.6,71.6,544.0,3551.0,9.0,1,
210001,1863.6,42.2,74.7,72.6,522.0,3389.0,9.0,1,
210101,1856.3,14.0,74.8,71.8,522.0,3389.0,9.0,1,
210201,1861.6,10.8,74.8,67.6,522.0,3389.0,9.0,1,
210301,1860.0,9.3,74.8,66.0,522.0,3389.0,9.0,1,
210501,1860.4,10.2,74.7,117.8,522.0,3389.0,9.0,1,
210601,1860.5,10.7,74.7,146.7,522.0,3389.0,9.0,1,
210701,1860.7,11.0,74.7,150.0,522.0,3389.0,9.0,1,
210801,1860.1,11.5,74.7,158.3,522.0,3389.0,9.0,1,
210901,1859.4,11.2,74.7,155.4,522.0,3389.0,9.0,1,
211001,1840.2,89.0,74.7,178.4,522.0,3389.0,9.0,1,
211101,1845.5,144.3,83.7,37.1,904.0,6946.0,11.0,1,
211201,1879.6,71.0,83.7,36.2,864.0,5662.0,10.0,1,
211301,1864.4,44.3,83.4,35.6,709.0,4557.0,9.0,1,
211501,1841.5,64.8,77.4,41.9,611.0,3566.0,9.0,1,
211601,1847.9,62.8,77.4,30.2,507.0,3015.0,8.0,1,
211701,1877.1,15.7,77.3,75.2,565.0,3237.0,9.0,1,
211801,1861.3,12.3,77.3,77.3,565.0,3237.0,9.0,1,
211901,1860.8,10.8,77.4,71.8,565.0,3237.0,9.0,1,
212001,1858.9,10.3,77.4,49.1,565.0,3237.0,9.0,1,
212101,1857.8,10.6,77.4,146.8,565.0,3237.0,9.0,1,
212201,1858.6,10.6,77.4,143.3,565.0,3237.0,9.0,1,
212301,1858.9,10.5,77.4,141.3,565.0,3237.0,9.0,1,
212501,1858.6,11.5,77.5,173.7,565.0,3237.0,9.0,1,
212601,1858.8,11.0,77.5,166.2,565.0,3237.0,9.0,1,
212701,1833.0,137.8,68.2,36.2,986.0,7693.0,14.0,1,
212801,1884.2,84.6,68.0,34.3,821.0,6153.0,10.0,1,
212901,1871.5,65.9,75.3,30.3,726.0,4984.0,9.0,1,
213001,1862.7,65.1,79.2,46.4,705.0,4378.0,9.0,1,
213101,1830.2,71.4,79.2,57.3,497.0,3186.0,9.0,1,
213201,1857.0,54.5,76.2,54.2,445.0,2686.0,9.0,1,
213301,1864.3,21.0,76.2,53.8,436.0,2736.0,9.0,1,
213501,1858.7,11.0,76.3,29.6,436.0,2736.0,9.0,1,
213601,1861.0,11.2,76.2,34.2,436.0,2736.0,9.0,1,
213701,1859.4,10.1,76.2,86.5,436.0,2736.0,9.0,1,
213801,1858.2,11.0,76.2,156.3,436.0,2736.0,9.0,1,
213901,1859.0,10.8,76.2,178.4,436.0,2736.0,9.0,1,
214001,1859.5,10.9,76.2,170.8,436.0,2736.0,9.0,1,
214101,1858.9,10.8,76.2,164.1,436.0,2736.0,9.0,1,
214201,1858.8,11.7,76.2,172.1,436.0,2736.0,9.0,1,
214301,1843.0,119.6,72.9,44.5,1073.0,8277.0,14.0,1,
214501,1865.5,87.4,69.6,35.0,707.0,5124.0,9.0,1,
214601,1843.9,85.5,71.8,34.6,744.0,4848.0,11.0,1,
214701,1846.8,82.0,74.9,54.5,620.0,4099.0,11.0,1,
214801,1863.6,63.4,74.8,66.7,478.0,3121.0,12.0,1,
214901,1865.0,33.7,75.2,66.0,465.0,3080.0,12.0,1,
215001,1858.2,12.2,75.1,55.7,465.0,3080.0,12.0,1,
215101,1859.3,10.9,75.1,49.3,465.0,3080.0,12.0,1,
215201,1860.7,9.6,75.1,34.9,465.0,3080.0,12.0,1,
215301,1859.1,10.8,75.1,37.5,465.0,3080.0,12.0,1,
215501,1859.1,10.6,75.1,167.0,465.0,3080.0,12.0,1,
215601,1859.8,11.2,75.1,136.5,465.0,3080.0,12.0,1,
215701,1859.6,12.5,75.1,123.8,465.0,3080.0,12.0,1,
215801,1859.5,11.7,75.1,134.8,465.0,3080.0,12.0,1,
215901,1856.9,319.8,80.8,48.1,465.0,3080.0,12.0,1,
216001,1878.5,133.8,102.2,36.0,886.0,6820.0,15.0,1,
216101,1855.8,81.9,103.0,36.9,751.0,5410.0,12.0,1,
216201,1838.2,66.8,98.5,38.5,626.0,4438.0,13.0,1,
216301,1856.6,103.5,98.8,41.5,593.0,4157.0,15.0,1,
216501,1863.4,69.2,102.9,65.7,470.0,3139.0,12.0,1,
216601,1858.6,16.9,102.9,55.5,470.0,3139.0,12.0,1,
216701,1858.5,12.5,102.9,54.9,470.0,3139.0,12.0,1,
216801,1860.6,11.8,102.9,53.4,470.0,3139.0,12.0,1,
216901,1860.7,11.7,102.9,52.4,470.0,3139.0,12.0,1,
217001,1858.3,11.6,102.9,122.2,470.0,3139.0,12.0,1,
217101,1859.7,11.8,102.9,170.1,470.0,3139.0,12.0,1,
217201,1859.4,12.9,102.9,174.9,470.0,3139.0,12.0,1,
217301,1859.6,12.3,102.9,182.9,470.0,3139.0,12.0,1,
217501,1858.8,89.6,102.9,167.2,470.0,3139.0,12.0,1,
217601,1877.6,295.8,82.6,38.1,961.0,7636.0,15.0,1,
217701,1852.2,236.3,128.0,36.3,2169.0,6491.0,8.0,1,
217801,1831.6,75.8,131.2,38.3,657.0,4594.0,13.0,1,
217901,1866.9,86.1,131.0,44.1,630.0,4105.0,12.0,1,
218001,1862.4,106.1,131.0,56.8,495.0,3303.0,13.0,1,
218101,1864.3,94.9,130.4,66.8,460.0,3044.0,9.0,1,
218201,1864.3,19.1,130.9,71.9,460.0,3044.0,9.0,1,
218301,1859.8,13.5,130.9,72.0,460.0,3044.0,9.0,1,
218501,1860.4,10.5,130.9,53.3,460.0,3044.0,9.0,1,
218601,1858.7,9.3,130.9,57.4,460.0,3044.0,9.0,1,
218701,1857.8,10.5,130.9,122.3,460.0,3044.0,9.0,1,
218801,1859.7,9.7,130.9,122.1,460.0,3044.0,9.0,1,
218901,1858.8,10.7,130.8,135.1,460.0,3044.0,9.0,1,
219001,1858.8,11.4,130.8,135.0,460.0,3044.0,9.0,1,
219101,1859.0,11.4,130.8,133.8,460.0,3044.0,9.0,1,
219201,1876.5,164.0,131.6,38.4,1022.0,8143.0,14.0,1,
219301,1823.3,112.3,94.3,36.5,806.0,5784.0,10.0,1,
219501,1873.5,134.4,96.7,45.8,701.0,4531.0,11.0,1,
219601,1866.9,76.8,98.2,53.2,543.0,3518.0,15.0,1,
219701,1865.9,61.5,96.4,53.5,424.0,2942.0,10.0,1,
219801,1855.0,23.8,94.6,53.9,518.0,3232.0,13.0,1,
219901,1859.4,12.6,94.6,53.8,518.0,3232.0,13.0,1,
220001,1860.0,10.4,94.6,35.6,518.0,3232.0,13.0,1,
220101,1861.6,10.7,94.5,29.8,518.0,3232.0,13.0,1,
220201,1858.2,11.4,94.5,67.0,518.0,3232.0,13.0,1,
220301,1858.9,10.7,94.5,122.7,518.0,3232.0,13.0,1,
220501,1859.1,11.8,94.6,122.6,518.0,3232.0,13.0,1,
220601,1859.7,11.3,94.6,123.1,518.0,3232.0,13.0,1,
220701,1859.4,11.8,94.6,169.1,518.0,3232.0,13.0,1,
220801,1854.8,122.9,86.7,52.1,911.0,7758.0,15.0,1,
220901,1838.6,108.7,78.8,36.8,749.0,5657.0,11.0,1,
221001,1871.6,85.5,74.6,35.5,759.0,5218.0,11.0,1,
221101,1867.9,79.7,75.4,35.0,705.0,4726.0,10.0,1,
221201,1865.6,64.1,73.0,54.6,505.0,3379.0,10.0,1,
221301,1844.6,67.7,76.0,56.4,550.0,3530.0,12.0,1,
221501,1855.5,13.9,79.7,54.6,550.0,3530.0,12.0,1,
221601,1859.9,11.3,79.7,55.5,550.0,3530.0,12.0,1,
221701,1860.7,11.7,79.7,55.5,550.0,3530.0,12.0,1,
221801,1857.0,10.6,79.8,52.2,550.0,3530.0,12.0,1,
221901,1859.4,11.5,79.8,155.5,550.0,3530.0,12.0,1,
222001,1858.7,11.5,79.8,145.6,550.0,3530.0,12.0,1,
222101,1859.2,11.0,79.8,149.2,550.0,3530.0,12.0,1,
222201,1858.6,11.8,79.8,176.9,550.0,3530.0,12.0,1,
222301,1858.6,12.9,79.8,198.8,550.0,3530.0,12.0,1,
222501,1867.0,313.9,100.0,35.4,1395.0,7070.0,12.0,1,
222601,1879.4,108.3,122.5,34.9,731.0,5273.0,14.0,1,
222701,1869.3,50.8,119.5,43.3,657.0,4460.0,14.0,1,
222801,1864.4,48.0,117.7,65.6,557.0,3641.0,9.0,1,
222901,1837.5,73.1,115.8,57.6,480.0,3137.0,14.0,1,
223001,1853.8,71.1,114.7,43.2,467.0,2876.0,9.0,1,
223101,1871.6,16.6,114.8,65.5,467.0,2876.0,9.0,1,
223201,1859.5,13.5,114.8,73.5,467.0,2876.0,9.0,1,
223301,1860.6,11.1,114.8,65.5,467.0,2876.0,9.0,1,
223501,1858.2,12.0,114.8,111.8,467.0,2876.0,9.0,1,
223601,1860.7,11.8,114.8,125.1,467.0,2876.0,9.0,1,
223701,1858.3,12.1,114.8,123.8,467.0,2876.0,9.0,1,
223801,1859.1,12.3,114.8,178.7,467.0,2876.0,9.0,1,
223901,1859.7,11.7,114.8,177.1,467.0,2876.0,9.0,1,
224001,1858.3,12.3,114.8,153.3,467.0,2876.0,9.0,1,
224101,1841.3,131.4,107.9,35.7,958.0,7474.0,14.0,1,
224201,1874.2,86.9,68.1,34.2,820.0,6169.0,14.0,1,
224301,1866.2,76.3,72.9,30.0,654.0,4808.0,14.0,1,
224501,1845.6,81.5,78.6,66.2,565.0,3809.0,15.0,1,
224601,1864.9,49.2,76.3,55.2,522.0,3184.0,9.0,1,
224701,1862.3,18.7,76.2,55.6,498.0,3169.0,11.0,1,
224801,1859.0,11.8,76.2,65.7,498.0,3169.0,11.0,1,
224901,1858.5,11.5,76.2,39.6,498.0,3169.0,11.0,1,
225001,1858.1,11.7,76.2,28.7,498.0,3169.0,11.0,1,
225101,1857.7,12.1,76.2,73.3,498.0,3169.0,11.0,1,
225201,1858.3,13.0,76.3,177.5,498.0,3169.0,11.0,1,
225301,1858.0,12.6,76.3,199.6,498.0,3169.0,11.0,1,
225501,1858.4,12.4,76.3,142.1,498.0,3169.0,11.0,1,
225601,1858.6,12.5,76.3,141.1,498.0,3169.0,11.0,1,
225701,1847.8,118.2,73.5,43.8,1040.0,8205.0,14.0,1,
225801,1869.8,90.3,74.5,35.7,866.0,6407.0,15.0,1,
225901,1858.2,75.9,72.2,34.9,725.0,5219.0,11.0,1,
226001,1841.8,116.7,70.8,34.5,674.0,4434.0,11.0,1,
226101,1858.5,95.6,71.0,44.8,522.0,3682.0,11.0,1,
226201,1865.5,87.8,74.0,56.7,423.0,3061.0,10.0,1,
226301,1860.3,32.1,74.5,55.6,470.0,3037.0,9.0,1,
226501,1857.1,11.3,74.5,53.3,470.0,3037.0,9.0,1,
226601,1859.0,10.8,74.5,52.5,470.0,3037.0,9.0,1,
226701,1857.2,11.5,74.5,67.2,470.0,3037.0,9.0,1,
226801,1857.0,11.7,74.5,117.7,470.0,3037.0,9.0,1,
226901,1860.0,11.3,74.5,122.1,470.0,3037.0,9.0,1,
227001,1857.9,12.0,74.5,123.3,470.0,3037.0,9.0,1,
227101,1858.9,11.9,74.4,163.6,470.0,3037.0,9.0,1,
227201,1859.0,11.5,74.5,139.8,470.0,3037.0,9.0,1,
227301,1853.7,157.3,74.0,74.1,976.0,7872.0,16.0,1,
227501,1849.8,82.4,84.0,35.7,764.0,5522.0,11.0,1,
227601,1835.0,71.6,83.4,35.2,671.0,4419.0,12.0,1,
227701,1866.8,89.5,83.9,34.6,560.0,3738.0,10.0,1,
227801,1864.4,107.9,84.4,67.2,560.0,3523.0,10.0,1,
227901,1864.4,53.0,84.6,66.9,478.0,3081.0,10.0,1,
228001,1856.2,14.1,84.6,55.3,478.0,3081.0,10.0,1,
228101,1858.5,10.3,84.6,55.4,478.0,3081.0,10.0,1,
228201,1858.8,11.1,84.6,55.1,478.0,3081.0,10.0,1,
228301,1857.3,10.0,84.6,54.2,478.0,3081.0,10.0,1,
228501,1858.8,11.8,84.6,133.2,478.0,3081.0,10.0,1,
228601,1858.3,11.7,84.6,150.7,478.0,3081.0,10.0,1,
228701,1859.4,10.8,84.6,165.1,478.0,3081.0,10.0,1,
228801,1858.9,11.3,84.5,139.8,478.0,3081.0,10.0,1,
228901,1858.3,10.2,84.5,135.4,478.0,3081.0,10.0,1,
229001,1872.1,158.9,84.9,36.1,925.0,7301.0,15.0,1,
229101,1827.8,107.8,90.9,35.7,841.0,6178.0,14.0,1,
229201,1861.8,72.5,96.5,38.0,744.0,4987.0,14.0,1,
229301,1867.9,70.0,96.1,44.2,572.0,3869.0,11.0,1,
229501,1862.8,57.2,95.7,55.2,450.0,3039.0,9.0,1,
229601,1845.8,15.2,95.6,56.4,467.0,2997.0,10.0,1,
229701,1859.3,11.1,95.6,72.9,467.0,2997.0,10.0,1,
229801,1858.3,12.6,95.6,65.7,467.0,2997.0,10.0,1,
229901,1858.8,10.9,95.6,41.7,467.0,2997.0,10.0,1,
230001,1859.8,11.2,95.6,122.3,467.0,2997.0,10.0,1,
230101,1858.5,10.4,95.6,177.0,467.0,2997.0,10.0,1,
230201,1859.2,10.7,95.6,178.0,467.0,2997.0,10.0,1,
230301,1859.1,11.2,95.6,164.1,467.0,2997.0,10.0,1,
230501,1859.0,10.6,95.6,177.0,467.0,2997.0,10.0,1,
230601,1857.5,378.0,111.9,35.7,1710.0,7748.0,9.0,1,
230701,1838.2,147.1,137.3,34.7,836.0,5994.0,12.0,1,
230801,1876.0,92.2,136.9,37.9,768.0,5396.0,10.0,1,
230901,1867.9,84.5,137.8,47.8,704.0,4507.0,10.0,1,
231001,1862.8,71.3,136.4,54.6,435.0,2903.0,11.0,1,
231101,1848.9,65.4,136.9,53.3,487.0,3165.0,10.0,1,
231201,1854.3,23.8,136.9,53.1,491.0,3126.0,12.0,1,
231301,1858.8,11.8,137.0,67.8,491.0,3126.0,12.0,1,
231501,1857.3,12.1,136.9,55.6,491.0,3126.0,12.0,1,
231601,1857.5,11.8,137.0,89.9,491.0,3126.0,12.0,1,
231701,1860.2,11.4,137.0,157.1,491.0,3126.0,12.0,1,
231801,1858.5,12.1,137.0,133.2,491.0,3126.0,12.0,1,
231901,1859.4,11.4,137.0,177.9,491.0,3126.0,12.0,1,
232001,1860.0,11.7,137.0,177.7,491.0,3126.0,12.0,1,
232101,1859.0,12.0,137.0,177.7,491.0,3126.0,12.0,1,
232201,1839.8,118.8,128.2,50.6,988.0,8047.0,15.0,1,
232301,1859.9,253.9,88.4,36.6,851.0,6300.0,15.0,1,
232501,1863.6,83.1,99.8,50.7,589.0,4162.0,25.0,0,
232601,1861.6,63.9,100.4,54.2,492.0,3173.0,24.0,1,
232701,1842.3,96.9,100.2,52.1,464.0,3045.0,12.0,1,
232801,1864.2,39.5,100.8,51.6,488.0,3037.0,12.0,1,
232901,1855.8,11.9,100.8,73.2,488.0,3037.0,12.0,1,
233001,1857.5,11.3,100.9,73.1,488.0,3037.0,12.0,1,
233101,1858.4,11.2,100.9,68.8,488.0,3037.0,12.0,1,
233201,1858.0,10.5,100.8,56.4,488.0,3037.0,12.0,1,
233301,1858.4,11.3,100.8,123.8,488.0,3037.0,12.0,1,
233501,1859.0,11.3,100.8,163.2,488.0,3037.0,12.0,1,
233601,1858.8,11.8,100.8,152.9,488.0,3037.0,12.0,1,
233701,1859.0,11.9,100.8,177.4,488.0,3037.0,12.0,1,
233801,1822.9,88.9,100.8,178.6,916.0,7948.0,16.0,1,
233901,1881.5,128.2,101.0,35.3,829.0,6513.0,12.0,1,
234001,1870.4,186.7,77.7,34.4,799.0,5767.0,14.0,1,
234101,1862.7,197.1,116.6,30.2,2096.0,5594.0,7.0,1,
234201,1849.9,66.2,116.9,52.3,540.0,3772.0,11.0,1,
234301,1841.1,66.7,116.7,83.2,615.0,3696.0,12.0,1,
234501,1865.9,13.8,114.8,75.7,615.0,3696.0,12.0,1,
234601,1857.1,11.5,114.8,43.4,615.0,3696.0,12.0,1,
234701,1858.3,11.4,114.8,28.5,615.0,3696.0,12.0,1,
234801,1858.0,13.1,114.8,29.5,615.0,3696.0,12.0,1,
234901,1857.5,11.2,114.8,141.5,615.0,3696.0,12.0,1,
235001,1859.8,11.3,114.8,156.5,615.0,3696.0,12.0,1,
235101,1857.8,11.7,114.8,125.8,615.0,3696.0,12.0,1,
235201,1858.1,12.0,114.8,153.1,615.0,3696.0,12.0,1,
235301,1858.7,11.8,114.8,177.5,615.0,3696.0,12.0,1,
235501,1860.4,119.4,113.8,35.7,874.0,6820.0,12.0,1,
235601,1866.9,63.9,113.4,34.2,773.0,5586.0,11.0,1,
235701,1860.6,59.9,69.9,30.1,701.0,4755.0,10.0,1,
235801,1826.0,205.2,106.7,34.5,2012.0,4917.0,7.0,1,
235901,1862.4,80.9,109.6,53.2,558.0,3505.0,10.0,1,
236001,1865.3,49.1,109.4,71.7,637.0,3581.0,11.0,1,
236101,1862.1,18.1,109.5,132.2,613.0,3536.0,10.0,1,
236201,1860.4,12.1,109.5,134.3,613.0,3536.0,10.0,1,
236301,1858.6,12.3,109.5,54.5,613.0,3536.0,10.0,1,
236501,1857.0,12.8,109.5,117.4,613.0,3536.0,10.0,1,
236601,1859.2,13.1,109.5,152.7,613.0,3536.0,10.0,1,
236701,1858.4,12.4,109.5,142.6,613.0,3536.0,10.0,1,
236801,1859.5,12.8,109.6,135.7,613.0,3536.0,10.0,1,
236901,1858.6,13.5,109.6,155.0,613.0,3536.0,10.0,1,
237001,1858.4,13.2,109.6,177.7,613.0,3536.0,10.0,1,
237101,1876.5,213.1,116.1,40.4,2317.0,8697.0,12.0,1,
237201,1862.6,297.8,133.2,65.8,1996.0,6622.0,11.0,1,
237301,1840.0,288.6,156.4,101.0,1733.0,5431.0,7.0,1,
237501,1869.2,86.2,163.1,265.2,644.0,3931.0,9.0,1,
237601,1862.9,76.8,164.7,245.8,681.0,3798.0,9.0,1,
237701,1858.2,37.1,166.5,171.6,673.0,3833.0,10.0,1,
237801,1859.5,14.1,166.5,83.8,673.0,3833.0,10.0,1,
237901,1857.5,12.9,166.5,54.9,673.0,3833.0,10.0,1,
238001,1860.1,11.7,166.5,54.2,673.0,3833.0,10.0,1,
238101,1857.2,13.5,166.5,54.4,673.0,3833.0,10.0,1,
238201,1859.2,13.2,166.5,137.7,673.0,3833.0,10.0,1,
238301,1859.6,13.2,166.5,132.0,673.0,3833.0,10.0,1,
238501,1858.4,13.5,166.5,195.4,673.0,3833.0,10.0,1,
238601,1858.5,13.0,166.5,178.5,673.0,3833.0,10.0,1,
238701,1876.9,122.9,168.5,41.6,673.0,3833.0,10.0,1,
238801,1858.9,232.1,158.6,37.1,942.0,6194.0,11.0,1,
238901,1837.1,229.5,161.6,36.3,800.0,5006.0,8.0,1,
239001,1855.8,222.1,163.0,40.8,1493.0,4971.0,7.0,1,
239101,1865.4,235.5,163.1,158.7,1276.0,4529.0,7.0,1,
239201,1860.7,231.0,177.1,284.7,1067.0,3961.0,6.0,1,
239301,1861.2,82.9,186.3,297.9,1952.0,4358.0,6.0,1,
239501,1859.6,12.9,186.3,198.4,1952.0,4358.0,6.0,1,
239601,1858.8,13.1,186.3,147.8,1952.0,4358.0,6.0,1,
239701,1857.1,13.2,186.3,80.2,1952.0,4358.0,6.0,1,
239801,1860.4,12.9,186.4,114.6,1952.0,4358.0,6.0,1,
239901,1859.2,13.9,186.4,124.0,1952.0,4358.0,6.0,1,
240001,1858.9,13.4,186.4,178.4,1952.0,4358.0,6.0,1,
240101,1859.6,13.8,186.4,206.8,1952.0,4358.0,6.0,1,
240201,1859.4,13.6,186.4,166.8,1952.0,4358.0,6.0,1,
240301,1858.7,184.6,186.3,178.1,1952.0,4358.0,6.0,1,
240501,1836.9,214.0,195.1,71.6,858.0,4826.0,10.0,1,
240601,1869.7,222.5,190.9,138.8,806.0,4065.0,6.0,1,
240701,1861.5,212.9,190.5,235.3,568.0,3496.0,6.0,1,
240801,1857.7,167.0,188.2,285.7,1894.0,4596.0,8.0,1,
240901,1855.8,96.2,179.1,263.6,605.0,3549.0,10.0,1,
241001,1863.3,18.3,179.5,219.6,605.0,3549.0,10.0,1,
241101,1859.6,13.4,179.5,158.8,605.0,3549.0,10.0,1,
241201,1858.5,12.1,179.5,74.3,605.0,3549.0,10.0,1,
241301,1857.6,12.2,179.5,55.0,605.0,3549.0,10.0,1,
241501,1859.5,12.6,179.5,175.1,605.0,3549.0,10.0,1,
241601,1860.0,12.2,179.5,159.0,605.0,3549.0,10.0,1,
241701,1858.8,13.0,179.4,176.8,605.0,3549.0,10.0,1,
241801,1859.5,12.1,179.4,178.7,605.0,3549.0,10.0,1,
241901,1859.7,12.7,179.4,232.5,605.0,3549.0,10.0,1,
242001,1833.5,307.7,179.2,43.8,2290.0,8935.0,11.0,1,
242101,1865.6,251.8,179.5,67.9,723.0,5016.0,10.0,1,
242201,1873.8,258.4,183.5,124.5,570.0,4073.0,7.0,1,
242301,1867.1,217.5,183.3,211.0,1240.0,4355.0,7.0,1,
242501,1833.2,71.4,170.2,220.1,476.0,2965.0,12.0,1,
242601,1876.5,26.2,170.2,199.1,511.0,3165.0,10.0,1,
242701,1859.1,12.9,170.2,105.8,511.0,3165.0,10.0,1,
242801,1858.3,12.0,170.2,54.7,511.0,3165.0,10.0,1,
242901,1857.9,12.8,170.1,53.2,511.0,3165.0,10.0,1,
243001,1856.6,12.8,170.1,54.6,511.0,3165.0,10.0,1,
243101,1861.1,13.2,170.2,178.2,511.0,3165.0,10.0,1,
243201,1858.5,13.8,170.1,177.0,511.0,3165.0,10.0,1,
243301,1858.9,12.9,170.2,204.5,511.0,3165.0,10.0,1,
243501,1858.9,13.3,170.2,176.8,511.0,3165.0,10.0,1,
243601,1827.3,195.5,169.9,65.9,1779.0,8152.0,12.0,1,
243701,1884.9,250.4,166.3,68.2,1895.0,6833.0,8.0,1,
243801,1869.7,255.8,164.6,77.1,2043.0,5966.0,8.0,1,
243901,1864.4,223.5,161.1,158.3,2020.0,4989.0,7.0,1,
244001,1839.6,71.5,163.7,253.2,588.0,3832.0,10.0,1,
244101,1844.7,64.9,163.2,232.2,548.0,3258.0,12.0,1,
244201,1878.3,42.8,163.5,170.7,599.0,3471.0,12.0,1,
244301,1857.5,15.7,163.5,109.6,599.0,3471.0,12.0,1,
244501,1858.4,12.2,163.5,56.0,599.0,3471.0,12.0,1,
244601,1856.9,13.9,163.5,56.6,599.0,3471.0,12.0,1,
244701,1858.9,13.4,163.5,184.2,599.0,3471.0,12.0,1,
244801,1858.6,13.2,163.5,176.8,599.0,3471.0,12.0,1,
244901,1859.4,12.9,163.5,177.0,599.0,3471.0,12.0,1,
245001,1858.8,13.3,163.5,170.8,599.0,3471.0,12.0,1,
245101,1859.2,13.0,163.5,178.5,599.0,3471.0,12.0,1,
245201,1832.2,221.0,160.7,50.0,2052.0,8195.0,12.0,1,
245301,1887.8,246.0,161.3,71.8,1641.0,6461.0,8.0,1,
245501,1861.3,266.7,164.6,139.5,1166.0,4554.0,11.0,1,
245601,1840.1,106.3,165.5,245.7,2012.0,4984.0,21.0,1,
245701,1859.5,73.7,166.3,251.5,455.0,2854.0,11.0,1,
245801,1863.4,44.4,164.9,199.5,544.0,3189.0,10.0,1,
245901,1863.0,15.6,165.0,117.0,544.0,3189.0,10.0,1,
246001,1858.3,12.8,165.0,54.9,544.0,3189.0,10.0,1,
246101,1858.8,12.0,165.1,29.8,544.0,3189.0,10.0,1,
246201,1857.0,13.2,165.0,29.3,544.0,3189.0,10.0,1,
246301,1858.9,12.0,165.0,123.1,544.0,3189.0,10.0,1,
246501,1859.0,12.9,165.1,163.2,544.0,3189.0,10.0,1,
246601,1859.2,12.2,165.1,172.0,544.0,3189.0,10.0,1,
246701,1859.3,12.6,165.1,168.7,544.0,3189.0,10.0,1,
246801,1858.8,15.0,165.0,176.8,544.0,3189.0,10.0,1,
246901,1866.0,180.4,149.0,36.3,1045.0,6817.0,12.0,1,
247001,1864.2,224.3,144.3,35.5,815.0,4973.0,17.0,1,
247101,1846.5,211.5,135.3,50.9,679.0,4143.0,6.0,1,
247201,1841.8,230.5,134.8,158.2,559.0,3554.0,7.0,1,
247301,1868.5,112.8,148.4,232.7,1887.0,4370.0,7.0,1,
247501,1862.1,19.0,149.9,163.8,643.0,3489.0,9.0,1,
247601,1861.8,12.3,149.9,135.9,643.0,3489.0,9.0,1,
247701,1856.0,11.9,149.9,70.1,643.0,3489.0,9.0,1,
247801,1854.6,11.2,149.9,52.5,643.0,3489.0,9.0,1,
247901,1856.7,11.2,149.8,89.2,643.0,3489.0,9.0,1,
248001,1860.0,11.8,149.8,146.3,643.0,3489.0,9.0,1,
248101,1860.5,11.0,149.8,123.4,643.0,3489.0,9.0,1,
248201,1859.6,11.8,149.8,116.9,643.0,3489.0,9.0,1,
248301,1859.6,11.3,149.8,122.4,643.0,3489.0,9.0,1,
248501,1867.3,242.8,150.5,40.1,1159.0,8810.0,16.0,1,
248601,1853.9,274.0,158.3,29.9,988.0,5949.0,11.0,1,
248701,1834.9,277.4,166.2,34.7,1362.0,4809.0,7.0,1,
248801,1864.8,248.9,169.4,106.8,1301.0,4139.0,6.0,1,
248901,1866.4,183.3,171.9,226.2,1734.0,4268.0,5.0,1,
249001,1860.0,115.2,172.5,251.4,591.0,3408.0,16.0,1,
249101,1865.5,26.1,172.7,158.7,529.0,3040.0,10.0,1,
249201,1856.5,13.2,172.6,130.6,529.0,3040.0,10.0,1,
249301,1855.2,10.3,172.6,76.9,529.0,3040.0,10.0,1,
249501,1857.8,10.3,172.6,73.3,529.0,3040.0,10.0,1,
249601,1858.6,9.7,172.6,132.6,529.0,3040.0,10.0,1,
249701,1858.8,10.9,172.6,134.1,529.0,3040.0,10.0,1,
249801,1858.5,10.6,172.5,133.0,529.0,3040.0,10.0,1,
249901,1858.2,10.3,172.5,138.7,529.0,3040.0,10.0,1,
250001,1858.4,10.1,172.5,152.4,529.0,3040.0,10.0,1,
250101,1875.0,115.4,172.6,55.4,1088.0,8886.0,16.0,1,
250201,1831.1,323.4,171.0,30.3,2162.0,7344.0,7.0,1,
250301,1850.9,257.9,174.0,30.1,1940.0,5941.0,6.0,1,
250501,1865.8,281.0,172.3,201.7,1347.0,3942.0,6.0,1,
250601,1863.4,201.7,178.7,266.3,1905.0,4066.0,6.0,1,
250701,1858.0,49.2,184.0,253.5,632.0,3413.0,8.0,1,
250801,1853.8,12.6,184.0,196.0,632.0,3413.0,8.0,1,
250901,1857.9,12.1,184.1,186.9,632.0,3413.0,8.0,1,
251001,1855.1,12.6,184.0,167.8,632.0,3413.0,8.0,1,
251101,1853.5,11.9,184.0,135.2,632.0,3413.0,8.0,1,
251201,1857.2,10.8,184.0,125.6,632.0,3413.0,8.0,1,
251301,1858.6,11.3,184.0,177.2,632.0,3413.0,8.0,1,
251501,1858.8,11.6,184.0,123.1,632.0,3413.0,8.0,1,
251601,1858.9,11.0,184.0,117.1,632.0,3413.0,8.0,1,
251701,1849.8,81.9,184.0,122.4,632.0,3413.0,8.0,1,
251801,1839.9,250.9,184.9,30.2,1472.0,7444.0,10.0,1,
251901,1877.8,225.0,179.7,29.7,2109.0,6169.0,8.0,1,
252001,1868.0,199.6,178.0,42.2,2064.0,5468.0,7.0,1,
252101,1863.3,255.7,171.3,136.9,1762.0,4686.0,7.0,1,
252201,1858.4,142.4,164.6,232.0,1320.0,3803.0,7.0,1,
252301,1831.5,139.9,166.5,264.7,1341.0,3802.0,7.0,1,
252501,1856.3,6.9,166.4,253.7,1341.0,3802.0,7.0,1,
252601,1856.0,7.2,166.3,206.0,1341.0,3802.0,7.0,1,
252701,1855.3,6.7,166.3,164.2,1341.0,3802.0,7.0,1,
252801,1857.4,5.8,166.3,175.1,1341.0,3802.0,7.0,1,
252901,1857.3,5.4,166.3,124.8,1341.0,3802.0,7.0,1,
253001,1857.9,5.6,166.2,145.8,1341.0,3802.0,7.0,1,
253101,1857.5,5.2,166.2,148.9,1341.0,3802.0,7.0,1,
253201,1858.1,6.2,166.1,135.5,1341.0,3802.0,7.0,1,
253301,1852.3,9.9,166.0,132.0,1341.0,3802.0,7.0,1,
253501,1887.4,157.3,154.0,35.6,1033.0,5264.0,8.0,1,
253601,1869.3,176.2,151.6,57.0,936.0,4331.0,7.0,1,
253701,1855.0,181.4,148.2,176.0,922.0,3541.0,7.0,1,
253801,1843.2,181.8,142.4,243.7,889.0,3503.0,7.0,1,
253901,1844.5,52.5,140.8,254.6,907.0,3650.0,7.0,1,
254001,1874.0,20.0,140.3,234.8,791.0,3381.0,6.0,1,
254101,1860.6,4.5,140.3,215.3,791.0,3381.0,6.0,1,
254201,1862.3,4.8,140.4,221.2,791.0,3381.0,6.0,1,
254301,1860.7,4.6,140.5,187.5,791.0,3381.0,6.0,1,
254501,1860.1,4.7,140.6,99.5,791.0,3381.0,6.0,1,
254601,1858.6,7.7,140.6,133.3,791.0,3381.0,6.0,1,
254701,1853.5,10.8,140.5,124.5,791.0,3381.0,6.0,1,
254801,1850.4,10.4,140.4,103.7,791.0,3381.0,6.0,1,
254901,1855.7,5.7,140.5,98.6,791.0,3381.0,6.0,1,
255001,1829.5,119.7,139.6,43.2,1114.0,8347.0,15.0,1,
255101,1878.5,144.4,139.2,35.5,1052.0,5325.0,8.0,1,
255201,1868.4,98.7,136.6,41.2,974.0,4662.0,7.0,1,
255301,1861.8,78.9,135.2,131.5,863.0,3747.0,7.0,1,
255501,1865.2,88.9,132.8,266.3,883.0,3493.0,7.0,1,
255601,1863.0,49.3,138.3,266.4,807.0,3434.0,6.0,1,
255701,1858.3,8.0,138.3,244.4,807.0,3434.0,6.0,1,
255801,1857.0,6.0,138.2,215.1,807.0,3434.0,6.0,1,
255901,1860.4,5.0,138.2,190.0,807.0,3434.0,6.0,1,
256001,1866.9,7.3,138.3,177.1,807.0,3434.0,6.0,1,
256101,1861.2,11.2,138.4,81.0,807.0,3434.0,6.0,1,
256201,1857.9,5.7,138.4,67.4,807.0,3434.0,6.0,1,
256301,1870.3,13.3,138.6,55.3,807.0,3434.0,6.0,1,
256501,1868.9,8.2,139.0,91.6,807.0,3434.0,6.0,1,
256601,1825.1,90.7,136.7,173.1,909.0,7875.0,16.0,1,
256701,1882.0,98.1,133.0,34.9,1122.0,7475.0,12.0,1,
256801,1864.3,46.9,119.4,30.1,1072.0,6210.0,10.0,1,
256901,1832.3,159.0,128.8,30.0,2181.0,5666.0,7.0,1,
257001,1851.2,126.3,135.5,66.7,2110.0,5119.0,7.0,1,
257101,1874.3,166.7,140.4,148.5,1305.0,4270.0,7.0,1,
257201,1861.5,99.1,146.7,201.5,812.0,3271.0,7.0,1,
257301,1855.6,10.4,146.7,214.9,812.0,3271.0,7.0,1,
257501,1858.6,5.3,146.7,203.9,812.0,3271.0,7.0,1,
257601,1856.2,9.8,146.6,217.2,812.0,3271.0,7.0,1,
257701,1854.6,12.3,146.5,66.3,812.0,3271.0,7.0,1,
257801,1856.8,14.8,146.5,101.9,812.0,3271.0,7.0,1,
257901,1858.3,14.1,146.5,116.8,812.0,3271.0,7.0,1,
258001,1858.8,12.1,146.4,122.9,812.0,3271.0,7.0,1,
258101,1859.1,13.4,146.3,136.1,812.0,3271.0,7.0,1,
258201,1859.8,15.7,146.4,238.6,812.0,3271.0,7.0,1,
258301,1873.5,117.2,147.1,36.4,1127.0,8076.0,14.0,1,
258501,1833.8,147.6,141.8,34.8,925.0,4304.0,8.0,1,
258601,1875.3,211.1,143.9,47.7,1945.0,4858.0,6.0,1,
258701,1865.6,181.7,141.4,214.6,1809.0,4486.0,6.0,1,
258801,1861.8,185.2,136.0,200.6,1704.0,4344.0,6.0,1,
258901,1851.2,21.6,135.1,231.5,802.0,3251.0,6.0,1,
259001,1859.9,13.0,135.2,212.7,802.0,3251.0,6.0,1,
259101,1861.7,12.3,135.3,159.1,802.0,3251.0,6.0,1,
259201,1859.7,13.7,135.3,163.1,802.0,3251.0,6.0,1,
259301,1859.9,14.3,135.4,189.3,802.0,3251.0,6.0,1,
259501,1859.1,13.1,135.5,237.9,802.0,3251.0,6.0,1,
259601,1859.4,14.8,135.5,239.0,802.0,3251.0,6.0,1,
