Time(ms),Raw_ADC,ENV_Value,RMS,MDF,MW_Amp,MW_Area,MW_Latency,MW_Valid,Marker
0,1854.6,0.0,0.0,0.0,0.0,0.0,0.0,0,
200,1867.2,17.1,0.0,0.0,0.0,0.0,0.0,0,
300,1862.8,13.0,0.0,0.0,0.0,0.0,0.0,0,
400,1863.9,16.6,0.0,0.0,0.0,0.0,0.0,0,
500,1859.6,15.3,0.0,0.0,0.0,0.0,0.0,0,
617,1857.3,13.8,0.0,239.9,0.0,0.0,0.0,0,
717,1859.5,13.2,0.0,240.0,0.0,0.0,0.0,0,
817,1871.8,246.6,0.0,214.4,848.0,2986.0,9.0,1,
917,1871.4,81.2,0.0,89.7,1228.0,5374.0,5.0,1,
1017,1881.3,50.4,0.0,68.7,3126.0,12124.0,3.0,1,
1117,1810.7,201.7,0.0,35.9,3018.0,10173.0,2.0,0,
1217,1897.7,170.7,0.0,35.9,3109.0,10216.0,2.0,0,
1317,1857.5,215.2,0.0,164.9,3126.0,10134.0,2.0,0,
1417,1861.3,29.3,0.0,259.0,3173.0,10660.0,2.0,0,
1517,1860.7,17.2,0.0,227.5,3173.0,10660.0,2.0,0,
1617,1858.5,15.4,0.0,195.8,3173.0,10660.0,2.0,0,
1717,1858.3,15.6,159.9,171.4,3173.0,10660.0,2.0,0,
1817,1857.5,14.2,160.0,238.8,3173.0,10660.0,2.0,0,
1917,1858.6,12.9,160.0,239.8,3173.0,10660.0,2.0,0,
2017,1858.5,14.0,160.1,239.9,3173.0,10660.0,2.0,0,
2118,1859.8,16.8,160.1,240.1,3173.0,10660.0,2.0,0,
2218,1859.6,14.1,160.1,240.1,3173.0,10660.0,2.0,0,
2318,1859.2,16.3,160.1,239.9,3173.0,10660.0,2.0,0,
2418,1847.4,31.8,156.8,239.7,513.0,2147.0,9.0,1,
2518,1885.0,164.2,151.5,43.3,1105.0,4461.0,5.0,1,
2718,1847.9,81.0,146.6,35.9,3523.0,13893.0,3.0,1,
2818,1901.7,263.5,142.5,35.6,3551.0,13719.0,3.0,1,
2918,1852.9,110.2,123.2,35.4,3445.0,13755.0,3.0,1,
3018,1864.3,25.6,108.8,35.1,3515.0,12962.0,3.0,1,
3118,1859.9,14.2,108.8,30.2,3515.0,12962.0,3.0,1,
3218,1858.4,16.9,108.8,29.8,3515.0,12962.0,3.0,1,
3318,1858.4,15.5,108.8,146.3,3515.0,12962.0,3.0,1,
3418,1859.2,15.3,108.8,239.9,3515.0,12962.0,3.0,1,
3518,1859.2,16.1,108.8,239.9,3515.0,12962.0,3.0,1,
3718,1860.4,14.5,108.8,240.0,3515.0,12962.0,3.0,1,
3818,1859.7,14.4,108.7,240.0,3515.0,12962.0,3.0,1,
3918,1859.3,13.6,108.7,240.2,3515.0,12962.0,3.0,1,
4018,1845.9,33.1,108.5,240.3,480.0,2092.0,9.0,1,
4118,1851.7,438.8,112.6,171.1,1472.0,4218.0,25.0,0,
4218,1900.8,135.3,159.3,36.0,2699.0,8884.0,2.0,0,
4318,1835.6,148.2,180.0,36.6,3280.0,10915.0,2.0,0,
4418,1854.9,271.5,202.9,43.6,3050.0,9781.0,2.0,0,
4518,1899.5,160.8,205.3,130.3,3046.0,10005.0,2.0,0,
4718,1857.9,15.8,212.4,103.2,3046.0,10005.0,2.0,0,
4818,1859.1,13.7,212.4,232.5,3046.0,10005.0,2.0,0,
4918,1858.1,12.6,212.4,230.7,3046.0,10005.0,2.0,0,
5018,1862.4,13.9,212.3,238.8,3046.0,10005.0,2.0,0,
5118,1860.7,13.8,212.3,239.8,3046.0,10005.0,2.0,0,
5218,1858.7,13.5,212.3,240.0,3046.0,10005.0,2.0,0,
5318,1860.6,14.2,212.3,240.0,3046.0,10005.0,2.0,0,
5418,1858.5,13.3,212.3,239.9,3046.0,10005.0,2.0,0,
5518,1858.5,15.2,212.3,240.0,3046.0,10005.0,2.0,0,
5718,1853.6,20.1,210.0,239.5,1247.0,5385.0,6.0,1,
5818,1872.1,90.7,165.5,139.1,2833.0,11552.0,4.0,1,
5918,1870.9,74.4,150.8,66.0,3446.0,13537.0,3.0,1,
6018,1837.5,86.9,104.9,30.2,3381.0,12587.0,3.0,1,
6118,1936.6,281.2,91.4,29.6,3449.0,12819.0,2.0,0,
6218,1842.8,85.7,100.7,34.5,3117.0,12361.0,3.0,1,
6318,1858.1,36.1,100.8,34.4,3117.0,12361.0,3.0,1,
6418,1858.4,16.1,101.0,30.3,3117.0,12361.0,3.0,1,
6518,1858.5,14.3,101.0,34.5,3117.0,12361.0,3.0,1,
6718,1859.1,16.9,101.2,238.5,3117.0,12361.0,3.0,1,
6818,1860.7,14.4,101.1,239.9,3117.0,12361.0,3.0,1,
6918,1858.8,13.9,101.1,240.2,3117.0,12361.0,3.0,1,
7018,1860.1,16.0,101.1,240.2,3117.0,12361.0,3.0,1,
7118,1859.4,14.3,101.1,240.1,3117.0,12361.0,3.0,1,
7218,1861.6,36.2,101.0,240.0,584.0,2720.0,9.0,1,
7318,1836.9,27.1,101.0,239.6,1341.0,5108.0,4.0,1,
7418,1839.6,177.1,102.4,80.4,2675.0,10731.0,4.0,1,
7518,1939.2,153.6,118.9,132.9,3158.0,10921.0,2.0,0,
7718,1856.1,366.2,179.5,260.2,3037.0,10125.0,2.0,0,
7818,1894.4,123.3,174.2,226.0,3119.0,9941.0,2.0,0,
7918,1864.1,35.4,174.1,88.6,3119.0,9941.0,2.0,0,
8018,1860.4,14.1,174.1,92.9,3119.0,9941.0,2.0,0,
8118,1859.3,15.8,174.1,194.7,3119.0,9941.0,2.0,0,
8218,1860.4,13.4,174.1,238.9,3119.0,9941.0,2.0,0,
8318,1859.2,15.1,174.1,238.8,3119.0,9941.0,2.0,0,
8418,1860.0,14.1,174.1,240.1,3119.0,9941.0,2.0,0,
8518,1860.1,12.7,174.1,240.1,3119.0,9941.0,2.0,0,
8718,1858.9,13.9,174.1,240.2,3119.0,9941.0,2.0,0,
8818,1856.8,245.7,176.1,239.7,3119.0,9941.0,2.0,0,
8918,1882.8,34.4,185.4,30.0,688.0,2711.0,4.0,1,
9018,1816.8,39.9,185.6,29.2,2823.0,11482.0,4.0,1,
9118,1870.4,198.9,179.0,29.2,3092.0,10721.0,2.0,0,
9218,1888.1,111.5,176.5,39.1,3165.0,10046.0,2.0,0,
9318,1864.0,343.3,172.1,261.0,3177.0,10281.0,2.0,0,
9418,1831.6,248.5,176.0,259.8,3071.0,10153.0,2.0,0,
9518,1881.6,26.3,176.6,131.6,3120.0,10300.0,2.0,0,
9718,1860.2,17.9,176.5,92.0,3120.0,10300.0,2.0,0,
9818,1859.6,13.7,176.5,131.2,3120.0,10300.0,2.0,0,
9918,1859.4,14.4,176.5,239.7,3120.0,10300.0,2.0,0,
10018,1860.0,14.1,176.5,239.8,3120.0,10300.0,2.0,0,
10118,1864.1,19.1,176.5,239.9,3120.0,10300.0,2.0,0,
10218,1861.4,17.7,176.5,239.8,3120.0,10300.0,2.0,0,
10318,1861.7,16.9,176.4,239.2,3120.0,10300.0,2.0,0,
10418,1859.7,69.0,176.5,237.7,3120.0,10300.0,2.0,0,
10518,1887.8,151.4,183.5,36.4,649.0,1992.0,8.0,1,
10718,1871.7,31.0,183.6,30.1,2345.0,9616.0,4.0,1,
10818,1842.3,226.7,178.6,30.2,3254.0,13156.0,2.0,0,
10918,1869.6,100.5,170.3,34.6,3423.0,13862.0,3.0,1,
11018,1853.9,85.0,130.2,29.8,3427.0,12945.0,3.0,1,
11118,1868.6,22.0,125.5,29.4,3598.0,13632.0,3.0,1,
11218,1857.0,16.3,125.5,29.5,3598.0,13632.0,3.0,1,
11318,1858.9,13.7,125.5,39.9,3598.0,13632.0,3.0,1,
11418,1860.3,14.8,125.5,237.3,3598.0,13632.0,3.0,1,
11518,1866.1,15.1,125.4,239.3,3598.0,13632.0,3.0,1,
11718,1860.9,15.3,125.4,239.7,3598.0,13632.0,3.0,1,
11818,1856.2,13.8,125.5,239.8,3598.0,13632.0,3.0,1,
11919,1859.2,17.3,125.6,239.8,3598.0,13632.0,3.0,1,
12019,1858.8,15.8,125.6,239.9,3598.0,13632.0,3.0,1,
12119,1872.1,250.8,117.8,166.8,3598.0,13632.0,3.0,1,
12219,1860.4,52.4,126.5,135.2,991.0,4743.0,4.0,1,
12319,1838.6,31.7,126.3,71.1,2526.0,9418.0,4.0,1,
12419,1871.4,144.7,127.7,37.4,2657.0,8618.0,2.0,0,
12519,1876.2,95.8,121.9,72.0,3024.0,9580.0,2.0,0,
12719,1836.1,49.2,181.6,226.4,2910.0,8938.0,2.0,0,
12819,1862.2,20.9,181.6,131.5,2910.0,8938.0,2.0,0,
12919,1859.2,14.9,181.5,101.9,2910.0,8938.0,2.0,0,
13019,1860.0,13.0,181.5,102.3,2910.0,8938.0,2.0,0,
13119,1859.0,15.9,181.6,117.3,2910.0,8938.0,2.0,0,
13219,1861.5,14.3,181.6,239.5,2910.0,8938.0,2.0,0,
13319,1860.3,14.6,181.6,240.0,2910.0,8938.0,2.0,0,
13419,1859.9,13.6,181.6,240.0,2910.0,8938.0,2.0,0,
13519,1859.6,15.9,181.6,240.1,2910.0,8938.0,2.0,0,
13719,1859.3,110.3,177.9,239.8,631.0,2198.0,10.0,1,
13819,1883.4,141.9,170.8,76.2,865.0,3902.0,3.0,1,
13919,1834.3,35.1,170.9,44.4,2130.0,8001.0,4.0,1,
14019,1871.6,39.7,167.7,36.4,2629.0,9371.0,4.0,1,
14119,1874.7,148.9,165.2,35.4,2739.0,8473.0,2.0,0,
14219,1866.2,356.3,158.5,225.9,3088.0,8681.0,2.0,0,
14319,1860.1,71.8,159.4,229.1,2727.0,8407.0,2.0,0,
14419,1859.9,20.4,159.4,163.8,2727.0,8407.0,2.0,0,
14519,1861.2,15.7,159.3,130.4,2727.0,8407.0,2.0,0,
14719,1859.7,14.9,159.4,125.5,2727.0,8407.0,2.0,0,
14819,1858.8,14.3,159.4,239.8,2727.0,8407.0,2.0,0,
14919,1860.5,16.0,159.4,239.6,2727.0,8407.0,2.0,0,
15019,1859.5,15.5,159.4,239.7,2727.0,8407.0,2.0,0,rest_end
15119,1859.0,13.3,159.4,239.9,2727.0,8407.0,2.0,0,
15219,1860.4,16.0,159.4,240.1,2727.0,8407.0,2.0,0,
15319,1834.3,45.1,159.5,239.9,753.0,2835.0,10.0,1,
15419,1885.1,44.2,156.3,239.2,504.0,2414.0,4.0,1,
15519,1872.2,26.4,151.5,40.5,2002.0,8154.0,4.0,1,
15719,1853.8,149.5,145.9,36.2,2898.0,10708.0,4.0,1,
15819,1938.5,96.5,117.6,37.9,2872.0,10402.0,4.0,1,
15919,1823.2,38.0,52.5,29.4,3376.0,12244.0,3.0,1,
16019,1861.3,43.1,52.7,28.7,3376.0,12244.0,3.0,1,
16119,1858.3,13.5,53.6,34.6,3376.0,12244.0,3.0,1,
16219,1860.1,13.5,53.5,45.1,3376.0,12244.0,3.0,1,
16319,1862.0,12.6,53.5,47.3,3376.0,12244.0,3.0,1,
16419,1859.6,14.1,53.4,98.7,3376.0,12244.0,3.0,1,
16519,1859.3,13.4,53.4,239.8,3376.0,12244.0,3.0,1,
16719,1859.3,15.1,53.4,239.9,3376.0,12244.0,3.0,1,
16819,1858.5,14.9,53.4,239.8,3376.0,12244.0,3.0,1,
16919,1855.7,29.9,53.4,239.8,603.0,2524.0,9.0,1,
17019,1839.3,14.5,47.3,238.9,449.0,2117.0,7.0,1,
17119,1876.7,101.4,71.3,88.6,2291.0,9141.0,3.0,1,
17219,1919.7,96.6,77.4,88.9,3546.0,14172.0,3.0,1,
17319,1788.9,99.5,79.5,80.0,3696.0,14442.0,3.0,1,
17419,1893.0,255.2,98.5,75.1,3178.0,10978.0,2.0,0,
17519,1896.4,88.0,115.4,79.9,3225.0,10228.0,2.0,0,
17719,1858.8,17.2,115.1,227.3,3225.0,10228.0,2.0,0,
17819,1859.9,15.6,115.1,259.8,3225.0,10228.0,2.0,0,
17919,1861.1,13.6,115.1,239.3,3225.0,10228.0,2.0,0,
18019,1860.7,11.5,115.1,239.3,3225.0,10228.0,2.0,0,
18119,1859.3,16.0,115.2,239.4,3225.0,10228.0,2.0,0,
18219,1859.5,15.6,115.2,239.7,3225.0,10228.0,2.0,0,
18319,1860.2,12.9,115.2,240.0,3225.0,10228.0,2.0,0,
18419,1860.5,13.6,115.1,240.0,3225.0,10228.0,2.0,0,
18519,1844.1,25.5,115.1,239.8,3225.0,10228.0,2.0,0,
18719,1815.7,86.7,104.4,142.3,3332.0,13096.0,3.0,1,
18819,1891.9,177.4,120.2,99.6,3194.0,9828.0,2.0,0,
18919,1864.5,143.1,139.0,152.6,3281.0,11031.0,2.0,0,
19019,1858.4,379.1,184.9,226.8,3069.0,10843.0,2.0,0,
19119,1888.7,185.0,184.0,189.6,3173.0,10861.0,2.0,0,
19219,1872.1,23.7,184.2,72.0,3243.0,10295.0,2.0,0,
19319,1860.2,18.8,184.4,93.3,3243.0,10295.0,2.0,0,
19419,1861.6,13.9,184.3,232.6,3243.0,10295.0,2.0,0,
19519,1860.8,13.9,184.3,238.5,3243.0,10295.0,2.0,0,
19719,1859.6,17.4,184.4,239.7,3243.0,10295.0,2.0,0,
19819,1860.5,18.7,184.3,239.9,3243.0,10295.0,2.0,0,
19919,1861.5,19.2,184.4,239.3,3243.0,10295.0,2.0,0,
20019,1860.1,17.8,184.4,239.5,3243.0,10295.0,2.0,0,
20119,1859.9,31.4,184.4,240.0,3243.0,10295.0,2.0,0,
20219,1849.1,24.7,184.7,239.6,1345.0,5292.0,5.0,1,
20319,1838.1,54.2,184.8,65.9,2555.0,10519.0,4.0,1,
20419,1918.3,202.0,186.8,45.8,3072.0,10907.0,2.0,0,
20519,1835.6,111.3,182.4,157.9,3138.0,10601.0,2.0,0,
20719,1887.9,224.6,172.4,227.7,3087.0,10409.0,2.0,0,
20819,1882.3,28.3,172.0,102.2,3137.0,10196.0,2.0,0,
20919,1859.0,15.7,171.8,87.2,3137.0,10196.0,2.0,0,
21019,1857.9,15.6,171.9,156.7,3137.0,10196.0,2.0,0,
21119,1860.4,15.8,171.9,283.2,3137.0,10196.0,2.0,0,
21219,1860.1,15.0,171.9,240.1,3137.0,10196.0,2.0,0,
21319,1861.9,15.7,171.9,239.9,3137.0,10196.0,2.0,0,
21419,1861.3,15.4,171.9,239.9,3137.0,10196.0,2.0,0,
21519,1859.6,15.8,171.9,239.9,3137.0,10196.0,2.0,0,
21719,1859.5,17.4,171.8,239.7,3137.0,10196.0,2.0,0,
21819,1850.8,43.3,176.5,76.3,909.0,2567.0,9.0,1,
21919,1853.3,36.6,176.9,28.7,384.0,2249.0,7.0,1,
22019,1857.7,68.7,168.6,28.2,2187.0,8669.0,3.0,1,
22119,1886.5,109.7,157.2,28.9,3460.0,13971.0,3.0,1,
22219,1848.0,90.2,134.2,41.5,3604.0,13921.0,3.0,1,
22319,1922.0,186.2,81.8,35.7,3610.0,13324.0,3.0,1,
22419,1840.7,39.7,83.7,53.7,3125.0,9619.0,2.0,0,
22519,1855.6,21.7,84.0,151.8,3125.0,9619.0,2.0,0,
22719,1859.8,16.1,83.9,196.0,3125.0,9619.0,2.0,0,
22819,1862.6,17.3,83.9,106.1,3125.0,9619.0,2.0,0,
22919,1862.2,15.5,83.8,239.1,3125.0,9619.0,2.0,0,
23019,1859.6,13.3,83.9,239.8,3125.0,9619.0,2.0,0,
23119,1859.6,16.2,83.9,239.8,3125.0,9619.0,2.0,0,
23219,1860.8,14.3,83.9,239.7,3125.0,9619.0,2.0,0,
23319,1860.5,13.4,83.9,239.7,3125.0,9619.0,2.0,0,
23419,1879.5,179.2,110.2,43.1,604.0,2521.0,4.0,1,
23519,1849.7,36.8,109.6,29.6,748.0,3203.0,4.0,1,
23719,1956.5,85.1,109.9,29.4,3345.0,12951.0,4.0,1,
23819,1810.1,84.3,110.4,36.2,3340.0,12439.0,3.0,1,
23919,1848.9,77.5,110.1,44.7,3605.0,13385.0,3.0,1,
24019,1879.3,51.6,105.1,35.7,3139.0,9955.0,2.0,0,
24119,1860.3,17.4,104.9,85.8,3139.0,9955.0,2.0,0,
24219,1855.2,14.5,105.0,101.4,3139.0,9955.0,2.0,0,
24319,1859.5,16.0,105.0,102.3,3139.0,9955.0,2.0,0,
24419,1860.5,15.0,105.0,164.6,3139.0,9955.0,2.0,0,
24519,1863.9,14.7,105.0,240.0,3139.0,9955.0,2.0,0,
24719,1859.8,14.2,105.0,240.2,3139.0,9955.0,2.0,0,
24819,1858.0,14.7,105.1,240.0,3139.0,9955.0,2.0,0,
24919,1860.7,15.3,105.0,240.0,3139.0,9955.0,2.0,0,
25019,1866.5,61.7,81.8,240.0,913.0,3531.0,10.0,1,
25119,1870.1,48.1,67.7,216.4,985.0,3603.0,9.0,1,
25219,1849.5,17.4,68.1,26.4,833.0,3733.0,6.0,1,
25319,1844.2,47.0,62.7,29.4,2395.0,9336.0,4.0,1,
25419,1896.6,144.6,70.2,35.5,3503.0,14257.0,3.0,1,
25519,1885.5,90.1,71.3,30.1,3645.0,14125.0,3.0,1,
25719,1856.9,16.1,59.8,29.6,3645.0,14125.0,3.0,1,
25819,1859.9,16.1,60.5,35.3,3645.0,14125.0,3.0,1,
25919,1858.5,14.8,60.5,78.9,3645.0,14125.0,3.0,1,
26019,1857.9,15.4,60.5,78.8,3645.0,14125.0,3.0,1,
26119,1860.8,16.7,60.6,90.7,3645.0,14125.0,3.0,1,
26219,1860.1,16.3,60.6,239.7,3645.0,14125.0,3.0,1,
26319,1860.9,16.9,60.6,240.4,3645.0,14125.0,3.0,1,
26419,1860.9,16.1,60.6,240.4,3645.0,14125.0,3.0,1,
26519,1860.3,13.5,60.6,240.1,3645.0,14125.0,3.0,1,
26719,1874.5,130.6,58.9,239.5,419.0,1979.0,10.0,1,
26819,1855.9,31.3,67.5,49.2,1289.0,4941.0,4.0,1,
26919,1879.2,47.7,67.4,36.0,2945.0,11872.0,3.0,1,
27019,1831.9,254.4,91.8,35.5,3194.0,11834.0,2.0,0,
27119,1879.7,167.8,109.1,53.5,3373.0,11146.0,2.0,0,
27219,1862.4,124.6,138.7,131.4,3412.0,10904.0,2.0,0,
27319,1866.7,19.3,138.6,226.3,3412.0,10904.0,2.0,0,
27419,1859.9,14.9,138.3,226.3,3412.0,10904.0,2.0,0,
27519,1858.4,13.7,138.3,194.7,3412.0,10904.0,2.0,0,
27719,1862.4,14.8,138.2,239.5,3412.0,10904.0,2.0,0,
27819,1862.2,12.0,138.2,239.9,3412.0,10904.0,2.0,0,
27919,1861.2,13.2,138.1,240.1,3412.0,10904.0,2.0,0,
28019,1860.5,13.6,138.1,240.0,3412.0,10904.0,2.0,0,
28119,1859.5,12.8,138.1,239.6,3412.0,10904.0,2.0,0,
28219,1859.2,14.2,138.1,239.8,3412.0,10904.0,2.0,0,
28319,1860.5,34.1,137.7,239.8,1318.0,5567.0,5.0,1,
28419,1866.3,110.7,142.8,38.3,2311.0,8083.0,4.0,1,
28519,1849.1,67.8,143.4,35.0,3552.0,13460.0,3.0,1,
28719,1895.8,304.1,128.3,35.7,3336.0,12911.0,4.0,1,
28819,1897.6,84.5,108.4,35.9,3428.0,12063.0,3.0,1,
28919,1842.2,16.1,104.3,36.3,3442.0,12069.0,3.0,1,
29019,1858.5,12.8,104.3,35.9,3442.0,12069.0,3.0,1,
29119,1858.0,12.6,104.3,36.2,3442.0,12069.0,3.0,1,
29219,1859.6,10.7,104.3,168.8,3442.0,12069.0,3.0,1,
29319,1860.3,12.4,104.3,239.9,3442.0,12069.0,3.0,1,
29419,1859.0,13.9,104.3,239.7,3442.0,12069.0,3.0,1,
29519,1861.9,11.2,104.3,239.8,3442.0,12069.0,3.0,1,
29719,1859.8,12.6,104.3,240.0,3442.0,12069.0,3.0,1,
29819,1857.4,13.9,104.4,240.1,3442.0,12069.0,3.0,1,
29919,1833.9,30.7,103.9,240.1,1963.0,8286.0,4.0,1,
30019,1874.9,151.8,113.3,158.9,2772.0,10599.0,3.0,1,
30119,1874.8,75.4,115.5,35.3,3397.0,12427.0,3.0,1,
30219,1867.1,72.9,115.4,34.9,3499.0,12296.0,3.0,1,
30319,1852.3,201.9,113.6,35.2,2996.0,9451.0,2.0,0,
30419,1894.7,133.9,110.9,76.8,3069.0,9285.0,2.0,0,
30519,1867.5,20.2,119.0,215.7,2951.0,8899.0,2.0,0,
30719,1859.0,12.4,119.0,260.2,2951.0,8899.0,2.0,0,
30819,1860.4,11.3,118.9,238.9,2951.0,8899.0,2.0,0,
30919,1861.5,12.3,118.9,239.3,2951.0,8899.0,2.0,0,
31019,1858.3,13.1,119.0,239.6,2951.0,8899.0,2.0,0,
31119,1861.2,13.1,119.0,239.8,2951.0,8899.0,2.0,0,
31219,1860.0,11.9,119.0,239.9,2951.0,8899.0,2.0,0,
31319,1860.9,13.5,118.9,239.9,2951.0,8899.0,2.0,0,
31419,1860.4,14.1,118.9,239.9,2951.0,8899.0,2.0,0,
31519,1833.8,17.1,118.9,240.0,798.0,3235.0,4.0,1,
31719,1862.9,172.3,125.4,70.4,2681.0,8813.0,2.0,0,
31819,1863.4,149.3,144.2,79.3,3149.0,10719.0,2.0,0,
31919,1856.3,373.6,181.5,168.9,2968.0,10210.0,2.0,0,
32019,1940.4,186.6,186.6,225.7,2942.0,9985.0,2.0,0,
32119,1832.2,32.7,185.1,99.4,2941.0,9179.0,2.0,0,
32219,1860.8,31.9,185.1,99.7,2941.0,9179.0,2.0,0,
32319,1853.4,13.5,185.3,254.8,2941.0,9179.0,2.0,0,
32419,1861.0,13.1,185.3,262.5,2941.0,9179.0,2.0,0,
32519,1859.2,13.4,185.3,99.9,2941.0,9179.0,2.0,0,
32719,1860.4,13.7,185.3,239.8,2941.0,9179.0,2.0,0,
32819,1859.7,12.3,185.3,239.8,2941.0,9179.0,2.0,0,
32919,1860.1,13.0,185.3,239.9,2941.0,9179.0,2.0,0,
33019,1859.2,13.3,185.3,240.0,2941.0,9179.0,2.0,0,
33119,1859.5,38.9,186.2,239.5,530.0,2516.0,4.0,1,
33219,1845.0,21.6,186.3,37.2,361.0,2123.0,3.0,1,
33319,1845.5,204.4,171.7,28.9,1897.0,7264.0,4.0,1,
33419,1948.1,191.5,166.2,35.5,3574.0,14450.0,3.0,1,
33519,1793.3,86.7,126.6,35.8,3579.0,12848.0,3.0,1,
33719,1898.3,28.5,84.8,35.1,3407.0,12694.0,4.0,1,
33819,1859.6,17.8,84.8,35.4,3407.0,12694.0,4.0,1,
33919,1857.0,12.8,84.4,48.6,3407.0,12694.0,4.0,1,
34019,1859.2,12.5,84.4,158.0,3407.0,12694.0,4.0,1,
34119,1860.0,11.8,84.4,237.5,3407.0,12694.0,4.0,1,
34219,1859.9,13.1,84.3,239.6,3407.0,12694.0,4.0,1,
34319,1859.5,12.5,84.4,240.0,3407.0,12694.0,4.0,1,
34419,1860.6,12.4,84.3,240.0,3407.0,12694.0,4.0,1,
34519,1860.0,12.4,84.3,240.1,3407.0,12694.0,4.0,1,
34719,1862.7,320.4,103.3,188.8,832.0,3634.0,4.0,1,
34819,1884.8,37.7,117.6,29.8,1247.0,4928.0,4.0,1,
34919,1813.3,52.3,116.8,29.5,3404.0,13078.0,3.0,1,
35019,1882.1,275.3,124.3,29.6,3024.0,10453.0,2.0,0,
35119,1888.6,133.8,137.4,39.0,3311.0,10323.0,2.0,0,
35219,1854.5,371.7,179.5,101.8,3062.0,10539.0,2.0,0,
35319,1860.8,107.4,197.4,225.7,3000.0,9132.0,2.0,0,
35419,1859.1,22.6,197.4,131.3,3000.0,9132.0,2.0,0,
35519,1859.4,13.8,197.4,98.9,3000.0,9132.0,2.0,0,
35719,1860.7,13.2,197.4,94.4,3000.0,9132.0,2.0,0,
35819,1860.3,13.7,197.4,238.2,3000.0,9132.0,2.0,0,
35919,1861.1,13.2,197.4,239.7,3000.0,9132.0,2.0,0,
36019,1858.5,12.1,197.4,240.1,3000.0,9132.0,2.0,0,
36119,1860.4,15.5,197.4,240.2,3000.0,9132.0,2.0,0,
36219,1860.8,13.3,197.4,240.1,3000.0,9132.0,2.0,0,
36319,1867.7,89.7,193.9,239.7,1450.0,6490.0,4.0,1,
36419,1878.5,59.1,184.7,47.0,1125.0,4353.0,4.0,1,
36519,1844.8,52.0,184.8,36.2,2828.0,11417.0,3.0,1,
36719,1866.7,156.7,170.6,51.1,3101.0,9823.0,2.0,0,
36819,1855.2,363.5,173.7,189.1,3139.0,9861.0,2.0,0,
36919,1859.8,190.5,178.4,227.4,2996.0,8892.0,2.0,0,
37019,1867.1,21.6,178.5,140.7,2996.0,8892.0,2.0,0,
37119,1859.7,11.4,178.4,99.1,2996.0,8892.0,2.0,0,
37219,1859.4,12.5,178.4,98.7,2996.0,8892.0,2.0,0,
37319,1860.0,12.0,178.4,101.7,2996.0,8892.0,2.0,0,
37419,1859.8,12.9,178.4,239.8,2996.0,8892.0,2.0,0,
37519,1858.8,11.0,178.5,240.1,2996.0,8892.0,2.0,0,
37719,1860.9,14.7,178.5,240.4,2996.0,8892.0,2.0,0,
37819,1859.8,11.8,178.5,240.2,2996.0,8892.0,2.0,0,
37919,1859.5,9.7,178.5,240.3,2996.0,8892.0,2.0,0,
38019,1887.5,23.1,173.2,239.5,587.0,2588.0,5.0,1,
38119,1856.9,25.9,173.6,45.1,998.0,3987.0,4.0,1,
38219,1831.8,64.8,173.5,30.2,3655.0,14140.0,3.0,1,
38319,1892.2,232.5,170.1,40.0,3172.0,10531.0,2.0,0,
38419,1876.1,101.9,171.8,158.3,3260.0,10082.0,2.0,0,
38519,1903.9,293.9,143.7,252.9,3290.0,10061.0,2.0,0,
38719,1858.8,13.4,145.5,194.9,3290.0,10061.0,2.0,0,
38819,1858.9,12.9,145.5,135.0,3290.0,10061.0,2.0,0,
38919,1862.8,13.5,145.4,131.0,3290.0,10061.0,2.0,0,
39019,1860.4,13.9,145.5,237.9,3290.0,10061.0,2.0,0,
39119,1860.1,12.7,145.5,240.2,3290.0,10061.0,2.0,0,
39219,1861.0,15.2,145.5,240.2,3290.0,10061.0,2.0,0,
39319,1860.0,12.6,145.5,240.3,3290.0,10061.0,2.0,0,
39419,1860.0,15.1,145.5,240.2,3290.0,10061.0,2.0,0,
39519,1861.0,15.7,145.5,240.0,3290.0,10061.0,2.0,0,
39719,1883.9,90.4,157.7,40.1,796.0,3398.0,3.0,1,
39819,1824.6,63.6,157.6,35.5,3465.0,13602.0,3.0,1,
39919,1920.6,82.0,150.7,35.7,3722.0,13794.0,3.0,1,
40019,1855.5,241.9,160.5,36.0,3623.0,13523.0,3.0,1,
40119,1866.0,72.3,135.7,35.7,3595.0,13182.0,3.0,1,
40219,1869.1,20.9,115.6,35.8,3656.0,13289.0,3.0,1,
40319,1861.0,14.2,115.6,36.0,3656.0,13289.0,3.0,1,
40419,1860.0,14.4,115.5,44.6,3656.0,13289.0,3.0,1,
40519,1858.5,14.5,115.6,98.8,3656.0,13289.0,3.0,1,
40719,1861.3,12.6,115.6,239.7,3656.0,13289.0,3.0,1,
40819,1859.9,13.2,115.6,239.9,3656.0,13289.0,3.0,1,
40919,1860.2,12.5,115.6,240.0,3656.0,13289.0,3.0,1,
41019,1860.2,14.2,115.6,240.1,3656.0,13289.0,3.0,1,
41119,1861.3,14.5,115.6,240.0,3656.0,13289.0,3.0,1,
41219,1835.8,314.8,118.2,239.8,796.0,3348.0,5.0,1,
41319,1920.6,273.9,151.6,41.5,2014.0,5263.0,2.0,0,
41419,1829.7,141.4,169.4,37.9,3252.0,10397.0,2.0,0,
41519,1858.2,326.8,200.4,70.8,2784.0,9524.0,2.0,0,
41719,1909.0,95.4,206.4,131.2,3100.0,9656.0,2.0,0,
41819,1835.7,51.9,220.0,124.1,2944.0,8809.0,2.0,0,
41919,1858.1,15.3,220.0,225.7,2944.0,8809.0,2.0,0,
42019,1859.2,12.2,220.0,157.7,2944.0,8809.0,2.0,0,
42119,1859.7,10.9,219.9,132.1,2944.0,8809.0,2.0,0,
42219,1859.1,12.9,219.9,149.6,2944.0,8809.0,2.0,0,
42319,1861.4,12.6,219.9,239.8,2944.0,8809.0,2.0,0,
42419,1861.3,13.6,219.9,239.8,2944.0,8809.0,2.0,0,
42519,1858.9,12.9,219.9,239.9,2944.0,8809.0,2.0,0,
42719,1859.2,11.3,220.0,240.4,2944.0,8809.0,2.0,0,
42819,1844.2,25.2,220.0,240.2,778.0,3361.0,5.0,1,
42919,1870.2,320.3,210.1,70.9,1754.0,4618.0,27.0,0,
43019,1879.7,114.7,209.2,39.9,2982.0,9807.0,2.0,0,
43119,1892.3,291.3,202.4,77.7,3250.0,10756.0,2.0,0,
43219,1830.0,214.1,205.5,226.6,3020.0,9118.0,2.0,0,
43319,1895.7,134.6,204.9,195.3,3152.0,9169.0,2.0,0,
43419,1871.3,78.2,204.9,101.6,2816.0,7934.0,2.0,0,
43519,1858.8,16.1,204.9,197.4,2816.0,7934.0,2.0,0,
43719,1859.3,12.1,204.9,104.7,2816.0,7934.0,2.0,0,
43819,1857.4,12.7,204.9,100.4,2816.0,7934.0,2.0,0,
43919,1859.1,12.9,204.9,240.2,2816.0,7934.0,2.0,0,
44019,1860.2,12.7,205.0,240.3,2816.0,7934.0,2.0,0,
44119,1860.0,13.1,204.9,240.3,2816.0,7934.0,2.0,0,
44219,1857.8,14.4,204.9,240.4,2816.0,7934.0,2.0,0,
44319,1858.4,13.3,205.0,240.3,2816.0,7934.0,2.0,0,
44419,1853.6,11.8,205.0,240.0,622.0,3154.0,5.0,1,
44519,1853.0,205.2,196.9,238.6,1079.0,4125.0,5.0,1,
44719,1860.8,81.5,177.5,35.1,3522.0,13793.0,3.0,1,
44819,1856.5,65.7,148.2,35.6,3548.0,12959.0,3.0,1,
44919,1884.6,88.5,139.9,34.7,3387.0,12683.0,3.0,1,
45019,1888.8,54.1,107.2,34.4,3306.0,11377.0,3.0,1,
45119,1858.0,16.0,107.2,38.3,3306.0,11377.0,3.0,1,
45219,1858.0,15.1,107.3,38.0,3306.0,11377.0,3.0,1,
45319,1858.7,13.1,107.3,38.0,3306.0,11377.0,3.0,1,
45419,1858.2,14.4,107.3,197.2,3306.0,11377.0,3.0,1,
45519,1859.9,13.4,107.3,239.8,3306.0,11377.0,3.0,1,
45719,1860.6,12.9,107.2,240.2,3306.0,11377.0,3.0,1,
45819,1860.5,14.0,107.2,240.2,3306.0,11377.0,3.0,1,
45919,1859.1,14.3,107.2,240.3,3306.0,11377.0,3.0,1,
46019,1860.6,20.9,107.1,240.1,438.0,2356.0,10.0,1,
46119,1842.7,30.3,107.5,239.3,712.0,2724.0,4.0,1,
46219,1856.8,173.7,79.6,88.4,1167.0,4539.0,4.0,1,
46319,1891.4,118.6,87.4,35.8,3466.0,12932.0,3.0,1,
46419,1873.8,80.6,87.4,35.7,3797.0,14460.0,3.0,1,
46519,1844.5,176.5,89.4,35.9,3127.0,9510.0,2.0,0,
46719,1866.4,15.2,101.8,156.8,3127.0,9510.0,2.0,0,
46819,1858.3,10.5,101.8,229.4,3127.0,9510.0,2.0,0,
46919,1860.3,12.3,101.8,268.2,3127.0,9510.0,2.0,0,
47019,1859.9,13.7,101.7,262.0,3127.0,9510.0,2.0,0,
47119,1860.3,11.7,101.7,239.6,3127.0,9510.0,2.0,0,
47219,1861.5,13.5,101.7,240.1,3127.0,9510.0,2.0,0,
47319,1861.4,13.0,101.7,240.1,3127.0,9510.0,2.0,0,
47419,1863.0,14.8,101.7,239.9,3127.0,9510.0,2.0,0,
47519,1861.5,12.3,101.7,239.8,3127.0,9510.0,2.0,0,
47719,1833.0,39.8,102.3,238.2,499.0,2309.0,5.0,1,
47819,1857.1,23.5,102.3,29.8,667.0,2855.0,4.0,1,
47919,1882.7,200.0,109.4,51.7,2783.0,10175.0,3.0,1,
48019,1862.7,91.3,109.5,83.4,3873.0,14853.0,3.0,1,
48119,1864.9,79.4,110.0,69.5,4030.0,14389.0,3.0,1,
48219,1960.9,190.1,109.4,40.6,3442.0,11375.0,2.0,0,
48319,1817.6,21.8,110.0,100.2,3467.0,10661.0,2.0,0,
48419,1859.0,13.7,110.0,216.8,3467.0,10661.0,2.0,0,
48519,1857.8,10.5,110.0,254.1,3467.0,10661.0,2.0,0,
48719,1858.4,11.6,110.0,241.2,3467.0,10661.0,2.0,0,
48819,1859.0,13.1,110.1,239.9,3467.0,10661.0,2.0,0,
48919,1861.8,11.1,110.0,239.7,3467.0,10661.0,2.0,0,
49019,1858.7,11.2,110.1,239.7,3467.0,10661.0,2.0,0,
49119,1859.4,11.7,110.1,239.8,3467.0,10661.0,2.0,0,
49219,1858.9,14.5,110.1,239.8,3467.0,10661.0,2.0,0,
49319,1866.3,29.5,109.4,239.7,528.0,2464.0,5.0,1,
49419,1841.6,21.6,109.3,87.6,706.0,2914.0,4.0,1,
49519,1860.0,167.7,103.5,36.4,2432.0,9155.0,3.0,1,
49719,1795.9,80.4,94.8,39.5,4095.0,14959.0,3.0,1,
49819,1880.9,125.4,74.8,43.5,4095.0,15200.0,3.0,1,
49919,1888.9,24.2,70.9,76.3,3524.0,10536.0,2.0,0,
50019,1860.4,19.1,71.1,233.1,3524.0,10536.0,2.0,0,
50119,1862.2,11.7,71.0,245.6,3524.0,10536.0,2.0,0,
50219,1859.8,11.5,71.0,203.3,3524.0,10536.0,2.0,0,
50319,1859.9,11.4,71.0,107.1,3524.0,10536.0,2.0,0,
50419,1859.9,11.9,70.9,203.1,3524.0,10536.0,2.0,0,
50519,1858.3,10.1,71.0,239.8,3524.0,10536.0,2.0,0,
50719,1859.3,11.7,70.9,240.1,3524.0,10536.0,2.0,0,
50819,1860.1,14.5,71.0,239.9,3524.0,10536.0,2.0,0,
50919,1870.4,225.2,120.5,35.2,401.0,2154.0,9.0,1,
51019,1861.9,38.0,122.0,29.7,488.0,2120.0,4.0,1,
51119,1839.7,16.4,121.9,29.6,1535.0,6386.0,4.0,1,
51219,1901.8,212.1,125.1,29.7,4095.0,15868.0,4.0,1,
51319,1889.5,105.3,133.1,34.5,4095.0,15075.0,3.0,1,
51419,1878.4,70.7,132.9,42.2,4095.0,15278.0,3.0,1,
51519,1867.2,38.4,136.9,45.2,3520.0,9896.0,2.0,0,
51719,1860.3,11.6,136.8,93.7,3520.0,9896.0,2.0,0,
51819,1859.4,11.5,136.8,91.9,3520.0,9896.0,2.0,0,
51919,1856.7,14.6,137.0,137.6,3520.0,9896.0,2.0,0,
52019,1858.4,11.6,137.0,240.1,3520.0,9896.0,2.0,0,
52119,1859.5,13.2,137.0,239.9,3520.0,9896.0,2.0,0,
52219,1860.8,14.0,137.0,239.9,3520.0,9896.0,2.0,0,
52319,1860.8,11.5,137.0,239.9,3520.0,9896.0,2.0,0,
52419,1861.8,12.4,136.9,240.0,3520.0,9896.0,2.0,0,
52519,1874.7,204.5,114.6,187.9,495.0,2505.0,4.0,1,
52719,1836.0,26.2,124.0,36.0,1579.0,6167.0,4.0,1,
52819,1916.8,261.2,117.9,34.2,4008.0,15609.0,3.0,1,
52919,1881.0,174.6,129.0,29.9,4095.0,14363.0,3.0,1,
53019,1864.9,61.5,129.7,35.8,4037.0,14749.0,3.0,1,
53119,1882.9,27.9,121.4,36.1,4018.0,14115.0,4.0,1,
53219,1859.2,15.4,121.4,35.0,4018.0,14115.0,4.0,1,
53319,1856.8,12.8,121.5,35.6,4018.0,14115.0,4.0,1,
53419,1860.6,12.5,121.5,148.5,4018.0,14115.0,4.0,1,
53519,1862.1,15.9,121.4,237.4,4018.0,14115.0,4.0,1,
53719,1861.7,10.7,121.3,239.9,4018.0,14115.0,4.0,1,
53819,1859.0,11.7,121.3,240.0,4018.0,14115.0,4.0,1,
53919,1859.3,12.5,121.4,239.9,4018.0,14115.0,4.0,1,
54019,1859.1,11.8,121.4,239.7,4018.0,14115.0,4.0,1,
54119,1859.2,140.5,118.6,239.4,636.0,2768.0,5.0,1,
54219,1881.0,97.9,105.2,47.8,814.0,3496.0,5.0,1,
54319,1850.4,30.1,105.5,43.7,3382.0,11814.0,4.0,1,
54419,1851.7,156.0,103.1,45.5,4095.0,16552.0,3.0,1,
54519,1925.3,185.8,102.6,48.3,3822.0,11843.0,2.0,0,
54719,1883.7,125.7,183.7,219.1,3278.0,8063.0,2.0,0,
54819,1861.5,17.0,183.7,133.7,3278.0,8063.0,2.0,0,
54919,1860.7,12.3,183.7,100.4,3278.0,8063.0,2.0,0,
55019,1859.3,11.1,183.7,101.4,3278.0,8063.0,2.0,0,
55119,1862.7,13.4,183.7,116.1,3278.0,8063.0,2.0,0,
55219,1857.9,11.9,183.7,239.7,3278.0,8063.0,2.0,0,
55319,1860.2,12.2,183.7,240.2,3278.0,8063.0,2.0,0,
55419,1859.5,12.6,183.7,240.2,3278.0,8063.0,2.0,0,
55519,1860.5,11.8,183.7,240.2,3278.0,8063.0,2.0,0,
55719,1859.6,15.3,183.7,239.7,768.0,3556.0,5.0,1,
55819,1861.8,149.0,186.9,84.2,1189.0,4771.0,4.0,1,
55919,1874.8,73.2,190.4,38.5,2820.0,10369.0,4.0,1,
56019,1838.5,68.0,190.4,39.8,4033.0,16224.0,3.0,1,
56119,1954.1,166.5,178.6,39.2,4083.0,15792.0,3.0,1,
56219,1855.8,161.2,170.0,44.6,3768.0,10913.0,2.0,0,
56319,1876.5,241.7,164.4,228.8,3250.0,8286.0,2.0,0,
56419,1867.9,22.7,164.0,198.9,3250.0,8286.0,2.0,0,
56519,1859.9,12.0,164.0,101.5,3250.0,8286.0,2.0,0,
56719,1859.1,13.1,164.1,84.7,3250.0,8286.0,2.0,0,
56819,1860.3,12.3,164.1,239.3,3250.0,8286.0,2.0,0,
56919,1859.0,12.7,164.1,240.1,3250.0,8286.0,2.0,0,
57019,1860.3,13.1,164.1,239.8,3250.0,8286.0,2.0,0,
57119,1862.4,10.8,164.0,240.3,3250.0,8286.0,2.0,0,
57219,1858.3,12.5,164.1,240.5,3250.0,8286.0,2.0,0,
57319,1860.7,18.8,164.1,240.1,3250.0,8286.0,2.0,0,
57419,1829.2,44.1,158.8,239.4,508.0,2650.0,4.0,1,
57519,1910.5,40.0,147.0,101.7,820.0,3211.0,5.0,1,
57719,1871.1,60.9,153.9,35.7,3971.0,15165.0,3.0,1,
57819,1906.7,183.9,147.7,35.9,3530.0,11494.0,2.0,0,
57919,1932.8,418.7,154.9,81.5,3271.0,9287.0,2.0,0,
58019,1837.6,32.1,149.6,185.2,3072.0,7467.0,2.0,0,
58119,1859.2,12.1,149.6,94.7,3072.0,7467.0,2.0,0,
58219,1858.9,14.0,149.6,69.1,3072.0,7467.0,2.0,0,
58319,1857.5,12.6,149.7,41.9,3072.0,7467.0,2.0,0,
58419,1858.5,12.3,149.7,124.6,3072.0,7467.0,2.0,0,
58519,1861.2,9.7,149.7,239.7,3072.0,7467.0,2.0,0,
58719,1859.8,13.2,149.8,238.5,3072.0,7467.0,2.0,0,
58819,1859.0,13.1,149.8,235.3,3072.0,7467.0,2.0,0,
58919,1858.3,12.3,149.8,238.9,3072.0,7467.0,2.0,0,
59019,1839.6,38.3,150.2,238.8,573.0,2716.0,4.0,1,
59119,1859.2,100.4,159.8,89.5,1310.0,4963.0,4.0,1,
59219,1881.8,81.4,164.1,86.3,3045.0,10939.0,4.0,1,
59319,1912.5,69.2,164.2,70.8,4095.0,15907.0,3.0,1,
59419,1838.7,161.4,161.4,39.4,3864.0,14943.0,4.0,1,
59519,1911.7,161.8,146.8,35.5,3567.0,10611.0,2.0,0,
59719,1858.0,14.1,124.3,259.9,3567.0,10611.0,2.0,0,
59819,1860.9,12.2,124.3,254.0,3567.0,10611.0,2.0,0,
59919,1859.0,11.7,124.2,233.8,3567.0,10611.0,2.0,0,
60019,1862.1,11.3,124.2,239.3,3567.0,10611.0,2.0,0,
60119,1862.1,11.2,124.2,240.0,3567.0,10611.0,2.0,0,
60219,1860.5,10.8,124.1,240.1,3567.0,10611.0,2.0,0,
60319,1860.3,11.7,124.1,240.0,3567.0,10611.0,2.0,0,
60419,1861.9,13.1,124.0,240.1,3567.0,10611.0,2.0,0,
60519,1861.5,10.7,124.0,240.2,3567.0,10611.0,2.0,0,
60719,1891.1,127.1,117.5,231.6,2158.0,8272.0,5.0,1,
60819,1853.6,224.8,117.4,38.3,3995.0,15521.0,3.0,1,
60919,1874.3,69.5,120.8,35.5,3956.0,13953.0,3.0,1,
61019,1867.6,54.9,120.6,34.9,3570.0,12988.0,4.0,1,
61120,1892.3,141.0,117.7,34.4,3058.0,9471.0,2.0,0,
61220,1891.6,56.3,130.8,158.6,2790.0,6885.0,2.0,0,
61320,1862.1,18.0,130.7,197.3,2790.0,6885.0,2.0,0,
61420,1857.5,11.3,130.8,137.8,2790.0,6885.0,2.0,0,
61520,1858.6,12.0,130.8,92.1,2790.0,6885.0,2.0,0,
61720,1855.9,12.0,130.9,239.4,2790.0,6885.0,2.0,0,
61820,1858.3,12.6,130.9,239.3,2790.0,6885.0,2.0,0,
61920,1860.9,12.6,130.9,239.3,2790.0,6885.0,2.0,0,
62020,1860.9,9.7,130.9,239.5,2790.0,6885.0,2.0,0,
62120,1861.6,12.2,130.9,239.6,2790.0,6885.0,2.0,0,
62220,1851.9,34.2,131.2,239.6,980.0,4299.0,5.0,1,
62320,1837.5,25.1,131.3,103.7,1866.0,7257.0,5.0,1,
62420,1870.9,269.2,126.6,39.2,3440.0,12819.0,3.0,1,
62520,1897.8,148.8,138.2,34.7,4066.0,14807.0,3.0,1,
62720,1848.0,153.4,135.3,30.3,3057.0,8857.0,2.0,0,
62820,1897.6,88.8,134.4,35.4,2141.0,6100.0,2.0,0,
62920,1857.8,18.4,134.5,142.7,2141.0,6100.0,2.0,0,
63020,1859.2,11.4,134.5,130.7,2141.0,6100.0,2.0,0,
63120,1859.2,11.6,134.5,86.1,2141.0,6100.0,2.0,0,
63220,1857.8,12.5,134.5,75.7,2141.0,6100.0,2.0,0,
63320,1860.0,11.6,134.4,239.3,2141.0,6100.0,2.0,0,
63420,1860.1,11.8,134.4,239.6,2141.0,6100.0,2.0,0,
63520,1860.3,11.9,134.4,239.7,2141.0,6100.0,2.0,0,
63720,1860.7,13.2,134.5,239.7,2141.0,6100.0,2.0,0,
63820,1870.9,163.6,134.4,239.9,703.0,3597.0,6.0,1,
63920,1842.0,38.0,139.0,36.3,427.0,2240.0,5.0,1,
64020,1866.8,24.9,139.1,29.1,2500.0,9632.0,4.0,1,
64120,1874.2,152.4,107.9,28.8,4095.0,15958.0,4.0,1,
64220,1888.7,74.4,121.5,29.9,4072.0,14163.0,3.0,1,
64320,1861.3,54.2,121.4,30.1,4095.0,13981.0,3.0,1,
64420,1895.8,74.0,84.1,29.9,4048.0,14293.0,3.0,1,
64520,1861.8,13.9,84.1,34.7,4048.0,14293.0,3.0,1,
64720,1859.5,12.4,84.1,36.3,4048.0,14293.0,3.0,1,
64820,1858.3,11.4,84.1,76.1,4048.0,14293.0,3.0,1,
64920,1861.9,13.1,84.1,238.6,4048.0,14293.0,3.0,1,
65020,1859.8,12.8,84.1,239.9,4048.0,14293.0,3.0,1,
65120,1861.2,13.8,84.0,240.3,4048.0,14293.0,3.0,1,
65220,1860.7,12.9,84.0,240.1,4048.0,14293.0,3.0,1,
65320,1859.6,13.4,84.1,239.9,4048.0,14293.0,3.0,1,
65420,1881.5,251.9,110.8,116.9,772.0,4087.0,4.0,1,
65520,1850.0,70.8,123.0,29.9,1611.0,6976.0,5.0,1,
65720,1893.4,245.6,135.1,29.7,3458.0,11590.0,2.0,0,
65820,1954.7,101.9,143.6,35.3,3729.0,10551.0,2.0,0,
65920,1805.2,376.4,190.5,163.7,3454.0,10562.0,2.0,0,
66020,1883.8,161.6,209.4,206.8,3661.0,10088.0,2.0,0,
66120,1869.1,21.0,209.3,100.0,3661.0,10088.0,2.0,0,
66220,1857.3,12.6,209.3,93.0,3661.0,10088.0,2.0,0,
66320,1858.8,11.9,209.3,93.9,3661.0,10088.0,2.0,0,
66420,1859.5,12.2,209.3,99.9,3661.0,10088.0,2.0,0,
66520,1861.5,13.5,209.3,239.8,3661.0,10088.0,2.0,0,
66720,1860.9,13.5,209.3,240.5,3661.0,10088.0,2.0,0,
66820,1860.7,11.2,209.3,240.4,3661.0,10088.0,2.0,0,
66920,1862.2,12.3,209.3,240.1,3661.0,10088.0,2.0,0,
67020,1859.5,166.1,209.3,240.1,3661.0,10088.0,2.0,0,
67120,1877.5,184.5,198.6,77.3,1799.0,7896.0,5.0,1,
67220,1901.1,38.2,200.9,73.5,2382.0,9921.0,4.0,1,
67320,1812.0,117.4,197.0,71.2,4095.0,16187.0,3.0,1,
67420,1924.6,195.4,194.6,67.5,3691.0,11198.0,2.0,0,
67520,1891.7,385.2,173.4,124.4,3683.0,10491.0,2.0,0,
67720,1865.2,26.9,193.3,187.2,3466.0,8687.0,2.0,0,
67820,1856.8,12.3,193.3,100.0,3466.0,8687.0,2.0,0,
67920,1858.0,12.4,193.3,98.9,3466.0,8687.0,2.0,0,
68020,1860.7,12.1,193.3,100.3,3466.0,8687.0,2.0,0,
68120,1859.7,12.9,193.3,213.5,3466.0,8687.0,2.0,0,
68220,1861.7,13.4,193.3,239.6,3466.0,8687.0,2.0,0,
68320,1861.4,11.9,193.3,239.8,3466.0,8687.0,2.0,0,
68420,1860.2,10.8,193.3,239.3,3466.0,8687.0,2.0,0,
68520,1859.4,12.8,193.3,215.8,3466.0,8687.0,2.0,0,
68720,1847.3,193.2,185.3,150.4,1666.0,5883.0,2.0,0,
68820,1886.5,166.9,206.1,70.3,2478.0,8022.0,2.0,0,
68920,1865.4,186.2,220.2,56.3,3802.0,12633.0,2.0,0,
69020,1906.4,291.7,235.6,131.2,3461.0,11156.0,2.0,0,
69120,1887.4,135.0,232.8,200.1,3633.0,11256.0,2.0,0,
69220,1869.5,337.5,214.4,69.1,3508.0,10702.0,2.0,0,
69320,1871.7,40.4,218.5,133.4,3420.0,9379.0,2.0,0,
69420,1856.8,13.9,218.5,154.6,3420.0,9379.0,2.0,0,
69520,1859.6,12.7,218.5,99.8,3420.0,9379.0,2.0,0,
69720,1858.0,13.7,218.5,112.7,3420.0,9379.0,2.0,0,
69820,1860.0,11.4,218.5,240.5,3420.0,9379.0,2.0,0,
69920,1858.7,13.4,218.5,240.5,3420.0,9379.0,2.0,0,
70020,1858.9,11.8,218.5,239.9,3420.0,9379.0,2.0,0,
70120,1859.2,12.7,218.6,239.6,3420.0,9379.0,2.0,0,
70220,1858.5,12.5,218.6,239.7,3420.0,9379.0,2.0,0,
70320,1848.0,26.0,218.6,239.9,1024.0,4640.0,5.0,1,
70420,1884.7,203.5,199.8,103.8,1223.0,4769.0,5.0,1,
70520,1853.8,56.2,188.0,87.7,3786.0,14424.0,3.0,1,
70720,1904.1,171.5,153.4,43.3,3651.0,11445.0,2.0,0,
70820,1880.8,367.2,158.3,87.2,3657.0,10443.0,2.0,0,
70920,1885.3,56.9,154.4,246.3,3294.0,8414.0,2.0,0,
71020,1858.5,14.2,154.4,155.7,3294.0,8414.0,2.0,0,
71120,1858.5,11.3,154.3,99.0,3294.0,8414.0,2.0,0,
71220,1857.0,12.2,154.4,91.3,3294.0,8414.0,2.0,0,
71320,1857.4,12.3,154.4,100.1,3294.0,8414.0,2.0,0,
71420,1861.5,12.3,154.3,239.5,3294.0,8414.0,2.0,0,
71520,1859.6,13.3,154.3,239.4,3294.0,8414.0,2.0,0,
71720,1858.4,12.2,154.3,239.9,3294.0,8414.0,2.0,0,
71820,1858.9,13.3,154.3,239.9,3294.0,8414.0,2.0,0,
71920,1847.8,17.1,154.3,239.9,1382.0,6053.0,5.0,1,
72020,1847.4,193.0,162.7,156.8,1411.0,5412.0,4.0,1,
72120,1881.1,147.7,157.5,34.7,3060.0,11121.0,4.0,1,
72220,1846.7,70.8,158.2,35.3,4084.0,16464.0,3.0,1,
72320,1938.7,190.9,156.6,36.1,4085.0,15494.0,3.0,1,
72420,1861.2,199.5,156.5,36.8,3576.0,10425.0,2.0,0,
72520,1883.2,94.3,157.9,104.7,2978.0,7275.0,2.0,0,
72720,1859.0,11.5,157.9,89.0,2978.0,7275.0,2.0,0,
72820,1859.0,10.7,157.9,69.7,2978.0,7275.0,2.0,0,
72920,1856.2,12.9,157.9,85.8,2978.0,7275.0,2.0,0,
73020,1859.0,12.4,157.9,238.7,2978.0,7275.0,2.0,0,
73120,1859.7,12.0,157.9,226.5,2978.0,7275.0,2.0,0,
73220,1859.1,13.3,157.9,239.4,2978.0,7275.0,2.0,0,
73320,1857.6,12.4,157.9,240.1,2978.0,7275.0,2.0,0,
73420,1858.2,11.7,157.9,240.2,2978.0,7275.0,2.0,0,
73520,1855.9,23.8,157.9,240.2,753.0,3480.0,5.0,1,
73720,1908.6,156.6,146.1,46.7,1431.0,5267.0,4.0,1,
73820,1851.6,120.5,155.1,35.1,4045.0,15787.0,3.0,1,
73920,1867.9,57.2,154.8,35.3,4004.0,14876.0,3.0,1,
74020,1880.3,142.2,140.6,35.5,4058.0,15297.0,4.0,1,
74120,1909.8,61.0,97.4,36.9,3726.0,10519.0,2.0,0,
74220,1858.7,17.0,97.4,260.1,3726.0,10519.0,2.0,0,
74320,1855.9,11.1,97.5,293.1,3726.0,10519.0,2.0,0,
74420,1858.9,12.6,97.5,301.2,3726.0,10519.0,2.0,0,
74520,1855.4,13.9,97.6,290.9,3726.0,10519.0,2.0,0,
74720,1858.9,13.2,97.6,239.7,3726.0,10519.0,2.0,0,
74820,1858.9,10.5,97.6,239.9,3726.0,10519.0,2.0,0,
74920,1861.5,10.8,97.5,239.5,3726.0,10519.0,2.0,0,
75020,1860.7,11.3,97.5,239.7,3726.0,10519.0,2.0,0,
75120,1869.8,133.4,103.7,238.6,564.0,2626.0,5.0,1,
75220,1848.2,48.6,114.2,29.7,444.0,2103.0,4.0,1,
75320,1842.0,23.0,114.4,29.0,754.0,3149.0,4.0,1,
75420,1874.8,26.9,91.5,29.0,3022.0,11513.0,4.0,1,
75520,1945.4,85.7,102.2,29.6,3903.0,15021.0,3.0,1,
75720,1888.4,101.0,93.4,35.0,3376.0,9850.0,2.0,0,
75820,1869.8,16.2,93.4,76.1,3376.0,9850.0,2.0,0,
75920,1856.8,12.3,93.3,189.1,3376.0,9850.0,2.0,0,
76020,1857.1,11.6,93.3,217.4,3376.0,9850.0,2.0,0,
76120,1857.1,13.2,93.3,239.8,3376.0,9850.0,2.0,0,
76220,1858.8,11.8,93.2,231.0,3376.0,9850.0,2.0,0,
76320,1861.7,10.8,93.2,239.1,3376.0,9850.0,2.0,0,
76420,1860.2,12.1,93.2,239.5,3376.0,9850.0,2.0,0,
76520,1858.8,12.5,93.2,239.8,3376.0,9850.0,2.0,0,
76720,1857.3,150.9,93.3,240.3,3376.0,9850.0,2.0,0,
76820,1882.6,66.3,83.4,37.6,788.0,3059.0,4.0,1,
76920,1850.2,22.0,83.1,34.5,757.0,3318.0,5.0,1,
77020,1832.6,60.4,82.8,34.6,3388.0,12915.0,4.0,1,
77120,1911.6,188.0,99.2,36.1,3678.0,11805.0,2.0,0,
77220,1879.8,373.4,121.1,225.8,3856.0,11787.0,2.0,0,
77320,1854.2,274.0,182.1,252.1,3514.0,10938.0,2.0,0,
77420,1883.0,26.3,180.9,140.7,3485.0,9976.0,2.0,0,
77520,1857.8,11.4,180.9,90.4,3485.0,9976.0,2.0,0,
77720,1855.4,12.7,180.9,94.1,3485.0,9976.0,2.0,0,
77820,1857.3,15.3,180.9,239.2,3485.0,9976.0,2.0,0,
77920,1858.6,12.6,181.0,240.0,3485.0,9976.0,2.0,0,
78020,1858.3,11.2,181.0,239.6,3485.0,9976.0,2.0,0,
78120,1860.4,13.1,181.0,239.6,3485.0,9976.0,2.0,0,
78220,1859.1,12.6,181.0,239.6,3485.0,9976.0,2.0,0,
78320,1859.1,13.8,181.0,239.5,3485.0,9976.0,2.0,0,
78420,1867.1,195.2,188.7,141.1,699.0,2947.0,4.0,1,
78520,1873.5,51.0,190.7,76.2,864.0,3679.0,4.0,1,
78720,1896.4,204.3,188.5,43.9,3682.0,11594.0,2.0,0,
78820,1914.3,103.6,183.0,48.1,3815.0,11140.0,2.0,0,
78920,1849.1,339.4,169.0,103.5,3627.0,10008.0,2.0,0,
79020,1868.7,38.5,174.7,200.7,3235.0,8159.0,2.0,0,
79120,1857.0,12.3,174.7,133.3,3235.0,8159.0,2.0,0,
79220,1857.8,12.3,174.7,101.8,3235.0,8159.0,2.0,0,
79320,1859.0,12.0,174.6,100.7,3235.0,8159.0,2.0,0,
79420,1858.9,13.7,174.6,136.0,3235.0,8159.0,2.0,0,
79520,1858.9,12.8,174.6,239.3,3235.0,8159.0,2.0,0,
79720,1857.9,13.4,174.6,240.6,3235.0,8159.0,2.0,0,
79820,1860.2,10.2,174.6,240.4,3235.0,8159.0,2.0,0,
79920,1860.4,10.9,174.6,240.0,3235.0,8159.0,2.0,0,
80020,1848.3,30.3,172.8,239.9,424.0,2225.0,5.0,1,
80120,1876.9,94.9,169.5,66.0,440.0,1780.0,3.0,1,
80220,1869.6,54.0,173.5,39.8,1425.0,5867.0,4.0,1,
80320,1837.3,36.9,169.0,38.0,3838.0,15700.0,3.0,1,
80420,1894.5,196.4,164.7,36.1,3792.0,11405.0,2.0,0,
80520,1906.8,397.8,143.5,65.5,3729.0,10765.0,2.0,0,
80720,1859.3,13.5,160.6,130.6,3729.0,10765.0,2.0,0,
80820,1858.3,11.4,160.6,90.5,3729.0,10765.0,2.0,0,
80920,1858.6,11.7,160.6,68.8,3729.0,10765.0,2.0,0,
81020,1858.9,13.5,160.6,84.2,3729.0,10765.0,2.0,0,
81120,1858.4,14.5,160.6,239.3,3729.0,10765.0,2.0,0,
81220,1862.3,11.9,160.6,226.3,3729.0,10765.0,2.0,0,
81320,1858.6,13.1,160.6,174.6,3729.0,10765.0,2.0,0,
81420,1860.1,10.3,160.6,239.7,3729.0,10765.0,2.0,0,
81520,1861.7,12.0,160.5,240.1,3729.0,10765.0,2.0,0,
81720,1843.0,64.6,150.3,238.6,559.0,2556.0,4.0,1,
81820,1881.5,19.0,145.7,66.0,1851.0,7410.0,5.0,1,
81920,1856.5,57.5,147.0,34.4,4078.0,16324.0,3.0,1,
82020,1943.9,69.0,140.4,35.1,4095.0,15961.0,3.0,1,
82120,1847.3,213.4,140.2,37.5,3613.0,11663.0,2.0,0,
82220,1905.1,105.2,126.3,93.6,2861.0,7510.0,2.0,0,
82320,1859.1,15.7,126.4,113.1,2861.0,7510.0,2.0,0,
82420,1861.3,12.0,126.3,93.0,2861.0,7510.0,2.0,0,
82520,1858.5,11.7,126.3,77.8,2861.0,7510.0,2.0,0,
82720,1856.8,12.1,126.3,239.7,2861.0,7510.0,2.0,0,
82820,1860.4,15.5,126.4,239.7,2861.0,7510.0,2.0,0,
82920,1858.0,13.6,126.4,239.8,2861.0,7510.0,2.0,0,
83020,1859.4,13.5,126.4,239.7,2861.0,7510.0,2.0,0,
83120,1860.1,11.7,126.5,239.8,2861.0,7510.0,2.0,0,
83220,1867.0,97.0,133.2,238.6,401.0,2356.0,3.0,1,
83320,1822.2,33.4,133.1,29.4,636.0,2582.0,5.0,1,
83420,1879.5,183.1,135.7,28.6,667.0,3064.0,4.0,1,
83520,1872.0,170.7,153.3,34.5,3849.0,12303.0,2.0,0,
83720,1872.7,363.2,214.1,227.2,3675.0,11284.0,2.0,0,
83820,1908.5,95.0,199.2,131.5,3751.0,10861.0,2.0,0,
83920,1860.8,17.7,199.2,66.1,3751.0,10861.0,2.0,0,
84020,1857.5,11.2,199.3,92.8,3751.0,10861.0,2.0,0,
84120,1858.6,9.5,199.3,195.6,3751.0,10861.0,2.0,0,
84220,1858.3,19.7,199.3,252.1,3751.0,10861.0,2.0,0,
84320,1856.4,12.7,199.3,239.5,3751.0,10861.0,2.0,0,
84420,1861.5,12.8,199.3,144.1,3751.0,10861.0,2.0,0,
84520,1858.8,11.0,199.3,151.7,3751.0,10861.0,2.0,0,
84720,1860.3,12.1,199.2,239.5,3751.0,10861.0,2.0,0,
84820,1874.0,215.2,205.5,150.2,3751.0,10861.0,2.0,0,
84920,1867.1,78.8,211.9,34.9,517.0,2615.0,4.0,1,
85020,1838.8,23.2,211.9,35.0,1069.0,4365.0,4.0,1,
85120,1853.2,112.2,199.3,35.4,3717.0,14110.0,4.0,1,
85220,1964.4,157.2,190.5,34.8,4095.0,15963.0,4.0,1,
85320,1823.0,59.6,127.6,29.6,4095.0,15058.0,3.0,1,
85420,1870.4,36.7,101.9,30.2,3957.0,14356.0,4.0,1,
85520,1867.7,14.5,101.4,30.1,3957.0,14356.0,4.0,1,
85720,1857.9,11.4,101.4,41.2,3957.0,14356.0,4.0,1,
85820,1857.0,14.2,101.4,219.9,3957.0,14356.0,4.0,1,
85920,1858.7,12.4,101.3,239.8,3957.0,14356.0,4.0,1,
86020,1858.5,11.5,101.4,239.6,3957.0,14356.0,4.0,1,
86120,1860.4,13.2,101.3,239.7,3957.0,14356.0,4.0,1,
86220,1861.0,11.8,101.3,240.1,3957.0,14356.0,4.0,1,
86320,1858.2,11.3,101.4,240.2,3957.0,14356.0,4.0,1,
86420,1857.5,22.2,101.4,240.1,3957.0,14356.0,4.0,1,
86520,1867.7,74.4,62.7,173.4,465.0,2201.0,4.0,1,
86720,1834.8,27.4,68.2,108.1,3604.0,13739.0,4.0,1,
86820,1885.4,248.8,92.2,79.1,3783.0,12065.0,2.0,0,
86920,1911.3,114.1,107.5,54.9,3984.0,11632.0,2.0,0,
87020,1848.0,441.8,161.0,93.1,3642.0,11543.0,2.0,0,
87120,1883.8,36.2,173.8,194.8,3664.0,9755.0,2.0,0,
87220,1857.2,11.1,173.8,101.3,3664.0,9755.0,2.0,0,
87320,1859.5,11.2,173.8,80.9,3664.0,9755.0,2.0,0,
87420,1857.9,12.4,173.8,66.7,3664.0,9755.0,2.0,0,
87520,1856.8,13.4,173.8,143.4,3664.0,9755.0,2.0,0,
87720,1856.2,12.7,173.9,239.8,3664.0,9755.0,2.0,0,
87820,1859.6,12.2,173.9,239.9,3664.0,9755.0,2.0,0,
87920,1858.9,12.4,173.9,240.0,3664.0,9755.0,2.0,0,
88020,1859.0,13.2,173.9,239.8,3664.0,9755.0,2.0,0,
88120,1842.0,52.2,171.3,239.5,802.0,3679.0,5.0,1,
88220,1880.0,171.3,176.7,104.2,1250.0,5207.0,5.0,1,
88320,1860.7,60.4,183.3,80.8,3064.0,11743.0,4.0,1,
88420,1854.0,62.6,175.0,74.2,4095.0,16966.0,3.0,1,
88520,1952.3,175.8,171.1,36.1,3835.0,11974.0,2.0,0,
88720,1875.4,40.0,147.6,152.7,3247.0,8269.0,2.0,0,
88820,1858.4,13.9,147.6,194.5,3247.0,8269.0,2.0,0,
88920,1857.1,10.9,147.6,135.0,3247.0,8269.0,2.0,0,
89020,1857.4,11.9,147.6,94.2,3247.0,8269.0,2.0,0,
89120,1855.1,14.4,147.7,113.1,3247.0,8269.0,2.0,0,
89220,1857.5,11.4,147.6,239.7,3247.0,8269.0,2.0,0,
89320,1858.7,11.2,147.6,239.3,3247.0,8269.0,2.0,0,
89420,1857.6,11.0,147.6,238.6,3247.0,8269.0,2.0,0,
89520,1859.0,11.1,147.6,239.1,3247.0,8269.0,2.0,0,
89720,1843.5,16.6,147.7,239.9,939.0,4492.0,5.0,1,
89820,1839.8,145.1,139.7,144.0,1172.0,5033.0,5.0,1,
89920,1941.0,79.6,142.3,41.4,4075.0,16338.0,4.0,1,
90020,1831.3,81.7,152.4,34.3,4076.0,15615.0,3.0,1,
90120,1871.0,134.0,140.7,30.1,3673.0,12382.0,4.0,1,
90220,1896.3,166.1,137.5,34.9,3527.0,10772.0,2.0,0,
90320,1892.8,65.8,139.3,99.0,2471.0,7040.0,2.0,0,
90420,1854.1,23.5,139.5,150.2,2471.0,7040.0,2.0,0,
90520,1859.0,11.4,139.5,99.0,2471.0,7040.0,2.0,0,
90720,1859.3,12.7,139.5,71.2,2471.0,7040.0,2.0,0,
90820,1857.7,12.4,139.4,239.1,2471.0,7040.0,2.0,0,
90920,1857.7,13.4,139.5,239.4,2471.0,7040.0,2.0,0,
91020,1857.3,13.3,139.5,239.4,2471.0,7040.0,2.0,0,
91120,1858.5,14.3,139.5,240.0,2471.0,7040.0,2.0,0,
91220,1860.7,12.7,139.5,239.9,2471.0,7040.0,2.0,0,
91320,1870.4,88.0,146.4,165.7,962.0,4923.0,5.0,1,
91420,1825.3,54.1,146.6,29.7,1246.0,5905.0,5.0,1,
91520,1856.9,266.3,139.0,29.2,2963.0,10884.0,3.0,1,
91720,1914.3,57.3,146.3,38.9,3711.0,12912.0,4.0,1,
91820,1809.3,81.2,136.3,39.5,2985.0,10822.0,5.0,1,
91920,1896.4,45.4,108.6,44.5,3443.0,8660.0,2.0,0,
92020,1859.3,14.1,108.5,194.6,3443.0,8660.0,2.0,0,
92120,1861.4,12.0,108.3,247.5,3443.0,8660.0,2.0,0,
92220,1859.2,13.1,108.3,274.0,3443.0,8660.0,2.0,0,
92320,1858.4,12.4,108.3,254.3,3443.0,8660.0,2.0,0,
92420,1855.1,14.6,108.4,240.0,3443.0,8660.0,2.0,0,
92520,1861.8,13.4,108.3,238.1,3443.0,8660.0,2.0,0,
92720,1859.4,12.1,108.3,238.9,3443.0,8660.0,2.0,0,
92820,1860.3,13.0,108.2,239.9,3443.0,8660.0,2.0,0,
92920,1870.4,307.5,110.1,144.5,445.0,2233.0,4.0,1,
93020,1845.5,49.9,124.0,29.6,767.0,3380.0,4.0,1,
93120,1893.6,30.6,122.7,29.4,2247.0,9210.0,4.0,1,
93220,1838.0,269.3,119.5,29.5,3675.0,12684.0,2.0,0,
93320,1904.1,121.0,135.5,35.4,3891.0,11694.0,2.0,0,
93420,1872.6,343.6,178.4,122.7,3662.0,11251.0,2.0,0,
93520,1867.5,92.8,190.4,212.5,3144.0,8185.0,2.0,0,
93720,1858.5,14.0,190.6,102.5,3144.0,8185.0,2.0,0,
93820,1861.2,11.4,190.6,125.3,3144.0,8185.0,2.0,0,
93920,1857.1,12.3,190.6,102.3,3144.0,8185.0,2.0,0,
94020,1856.1,13.6,190.6,233.8,3144.0,8185.0,2.0,0,
94120,1859.3,13.2,190.6,240.4,3144.0,8185.0,2.0,0,
94220,1860.2,14.4,190.6,240.1,3144.0,8185.0,2.0,0,
94320,1858.5,12.2,190.6,240.0,3144.0,8185.0,2.0,0,
94420,1860.2,12.6,190.6,240.2,3144.0,8185.0,2.0,0,
94520,1868.2,68.2,191.0,239.5,3144.0,8185.0,2.0,0,
94720,1850.0,31.7,199.1,47.7,2087.0,9017.0,4.0,1,
94820,1857.9,64.7,192.6,35.0,4077.0,17193.0,3.0,1,
94920,1946.5,218.0,193.0,30.2,3741.0,12601.0,2.0,0,
95020,1860.5,97.1,171.3,53.7,3757.0,10573.0,2.0,0,
95120,1856.0,209.0,192.8,225.9,3204.0,8203.0,2.0,0,
95220,1867.2,21.3,192.7,188.6,3204.0,8203.0,2.0,0,
95320,1856.5,12.6,192.6,100.4,3204.0,8203.0,2.0,0,
95420,1858.6,10.8,192.7,93.9,3204.0,8203.0,2.0,0,
95520,1860.2,13.0,192.6,99.0,3204.0,8203.0,2.0,0,
95720,1855.6,13.4,192.6,239.9,3204.0,8203.0,2.0,0,
95820,1859.0,12.9,192.6,239.7,3204.0,8203.0,2.0,0,
95920,1858.3,11.7,192.7,239.8,3204.0,8203.0,2.0,0,
96020,1860.3,10.9,192.6,239.9,3204.0,8203.0,2.0,0,
96120,1858.3,10.0,192.7,239.7,3204.0,8203.0,2.0,0,
96220,1854.7,88.4,174.8,230.0,403.0,2043.0,5.0,1,
96320,1890.7,85.2,170.8,134.3,1221.0,4937.0,5.0,1,
96420,1840.7,37.8,171.3,125.2,3615.0,13725.0,4.0,1,
96520,1860.9,280.6,169.5,109.2,3681.0,12442.0,2.0,0,
96720,1861.9,441.7,163.3,91.7,3596.0,10373.0,2.0,0,
96820,1883.7,33.9,168.5,155.7,3334.0,9043.0,2.0,0,
96920,1859.6,13.6,168.4,130.6,3334.0,9043.0,2.0,0,
97020,1858.0,12.7,168.4,90.5,3334.0,9043.0,2.0,0,
97120,1859.7,12.7,168.4,69.5,3334.0,9043.0,2.0,0,
97220,1856.8,14.2,168.5,144.8,3334.0,9043.0,2.0,0,
97320,1857.9,13.2,168.5,240.4,3334.0,9043.0,2.0,0,
97420,1857.6,11.3,168.5,240.2,3334.0,9043.0,2.0,0,
97520,1860.6,10.7,168.4,239.9,3334.0,9043.0,2.0,0,
97720,1859.5,13.0,168.4,240.0,3334.0,9043.0,2.0,0,
97820,1837.2,33.6,166.0,240.1,738.0,3468.0,5.0,1,
97920,1869.7,43.9,170.8,99.0,1223.0,5128.0,5.0,1,
98020,1866.1,50.2,171.6,89.3,3504.0,13886.0,4.0,1,
98120,1845.4,76.2,171.6,87.9,4095.0,17189.0,3.0,1,
98220,1959.4,194.7,152.0,82.3,3564.0,10805.0,2.0,0,
98320,1850.5,185.1,141.8,86.7,3665.0,10313.0,2.0,0,
98420,1876.0,46.2,139.5,190.1,3254.0,8359.0,2.0,0,
98520,1855.9,13.5,139.5,164.5,3254.0,8359.0,2.0,0,
98720,1858.9,12.9,139.5,75.1,3254.0,8359.0,2.0,0,
98820,1858.4,11.5,139.5,80.9,3254.0,8359.0,2.0,0,
98920,1856.1,12.0,139.5,240.0,3254.0,8359.0,2.0,0,
99020,1859.3,11.6,139.5,239.9,3254.0,8359.0,2.0,0,
99120,1858.6,12.6,139.5,239.7,3254.0,8359.0,2.0,0,
99220,1858.7,12.5,139.5,240.1,3254.0,8359.0,2.0,0,
99320,1858.0,13.9,139.6,240.4,3254.0,8359.0,2.0,0,
99420,1850.7,29.0,139.6,240.1,352.0,2101.0,4.0,1,
99520,1826.3,43.2,133.6,237.5,636.0,2316.0,5.0,1,
99720,1821.7,78.6,135.7,36.9,4095.0,16767.0,3.0,1,
99820,1880.3,66.7,129.8,36.1,4047.0,15853.0,3.0,1,
99920,1894.7,167.9,122.7,37.2,3450.0,11171.0,2.0,0,
100020,1892.9,29.4,86.6,145.4,3318.0,9070.0,2.0,0,
100120,1859.1,12.9,86.5,233.9,3318.0,9070.0,2.0,0,
100220,1858.4,13.2,86.6,285.8,3318.0,9070.0,2.0,0,
100320,1858.2,13.2,86.6,294.6,3318.0,9070.0,2.0,0,
100420,1858.9,11.6,86.6,253.9,3318.0,9070.0,2.0,0,
100520,1856.9,13.0,86.6,239.8,3318.0,9070.0,2.0,0,
100720,1860.8,12.1,86.6,239.3,3318.0,9070.0,2.0,0,
100820,1858.1,12.2,86.6,239.2,3318.0,9070.0,2.0,0,
100920,1859.8,14.2,86.6,239.7,3318.0,9070.0,2.0,0,
101020,1860.3,75.7,102.7,125.1,311.0,1985.0,4.0,1,
101120,1840.1,47.3,102.6,29.5,581.0,2664.0,4.0,1,
101220,1846.0,175.5,100.9,29.2,1965.0,7993.0,5.0,1,
101320,1897.6,208.2,117.9,29.8,3948.0,16233.0,3.0,1,
101420,1924.4,77.5,120.2,35.8,4095.0,15953.0,3.0,1,
101520,1815.5,179.9,116.4,35.8,3472.0,10402.0,2.0,0,
101720,1859.8,14.0,114.7,125.0,3472.0,10402.0,2.0,0,
101820,1859.0,11.4,114.7,158.9,3472.0,10402.0,2.0,0,
101920,1858.1,11.8,114.7,229.2,3472.0,10402.0,2.0,0,
102020,1858.7,12.7,114.6,241.0,3472.0,10402.0,2.0,0,
102120,1857.6,12.0,114.6,239.7,3472.0,10402.0,2.0,0,
102220,1858.7,12.2,114.6,239.7,3472.0,10402.0,2.0,0,
102320,1860.0,12.4,114.6,239.3,3472.0,10402.0,2.0,0,
102420,1860.5,13.5,114.6,239.5,3472.0,10402.0,2.0,0,
102520,1858.5,11.9,114.6,240.0,3472.0,10402.0,2.0,0,
102720,1867.2,91.7,140.8,29.7,1134.0,5309.0,5.0,1,
102820,1898.7,38.0,140.5,29.7,2980.0,12539.0,4.0,1,
102920,1826.9,133.5,132.3,29.7,3971.0,15969.0,2.0,0,
103020,1912.3,154.2,141.1,30.0,3488.0,12295.0,4.0,1,
103120,1873.0,56.2,141.2,35.5,3871.0,14102.0,3.0,1,
103220,1878.8,34.1,127.8,35.0,3972.0,15154.0,4.0,1,
103320,1858.6,13.7,127.9,34.3,3972.0,15154.0,4.0,1,
103420,1856.8,12.6,128.0,35.3,3972.0,15154.0,4.0,1,
103520,1858.4,11.0,128.0,132.2,3972.0,15154.0,4.0,1,
103720,1858.7,12.1,128.0,240.0,3972.0,15154.0,4.0,1,
103820,1856.8,12.0,128.0,239.7,3972.0,15154.0,4.0,1,
103920,1858.7,12.2,128.0,239.4,3972.0,15154.0,4.0,1,
104020,1857.6,13.6,128.1,239.7,3972.0,15154.0,4.0,1,
104120,1857.8,13.3,128.1,239.9,3972.0,15154.0,4.0,1,
104220,1851.0,73.9,128.2,239.6,3972.0,15154.0,4.0,1,
104320,1892.7,273.5,127.4,140.1,634.0,2716.0,9.0,1,
104420,1853.2,47.3,131.5,86.0,338.0,1860.0,3.0,1,
104520,1834.9,25.6,132.0,36.7,956.0,4832.0,4.0,1,
104720,1912.6,117.7,142.6,34.7,4095.0,15875.0,3.0,1,
104820,1839.6,52.6,142.7,36.9,3987.0,15352.0,3.0,1,
104920,1871.8,15.7,142.7,35.5,3987.0,15352.0,3.0,1,
105020,1857.9,12.8,142.6,30.1,3987.0,15352.0,3.0,1,
105120,1858.2,12.1,142.7,34.3,3987.0,15352.0,3.0,1,
105220,1859.3,16.2,142.7,228.8,3987.0,15352.0,3.0,1,
105320,1857.8,12.7,142.7,239.6,3987.0,15352.0,3.0,1,
105420,1859.8,10.7,142.6,239.4,3987.0,15352.0,3.0,1,
105520,1858.9,12.5,142.6,239.4,3987.0,15352.0,3.0,1,
105720,1858.5,12.6,142.6,239.9,3987.0,15352.0,3.0,1,
105820,1858.3,21.9,142.6,240.1,3987.0,15352.0,3.0,1,
105920,1849.0,103.0,123.7,237.3,279.0,2072.0,5.0,1,
106020,1875.7,275.4,131.7,125.6,536.0,2400.0,4.0,1,
106120,1853.3,41.6,137.3,100.3,1666.0,6874.0,4.0,1,
106220,1836.6,123.9,122.9,37.3,3701.0,15174.0,4.0,1,
106320,1902.2,175.5,121.1,35.0,3711.0,10912.0,2.0,0,
106420,1890.6,445.0,159.8,85.7,3560.0,10767.0,2.0,0,
106520,1867.3,32.9,176.8,157.5,3375.0,8931.0,2.0,0,
106720,1859.5,11.8,176.8,90.3,3375.0,8931.0,2.0,0,
106820,1859.3,12.1,176.8,73.1,3375.0,8931.0,2.0,0,
106920,1858.1,13.2,176.7,150.9,3375.0,8931.0,2.0,0,
107020,1858.6,14.4,176.8,239.6,3375.0,8931.0,2.0,0,
107120,1858.4,12.2,176.8,240.0,3375.0,8931.0,2.0,0,
107220,1861.2,15.0,176.7,240.0,3375.0,8931.0,2.0,0,
107320,1860.5,14.6,176.7,239.8,3375.0,8931.0,2.0,0,
107420,1859.3,11.8,176.7,240.0,3375.0,8931.0,2.0,0,
107520,1836.4,34.1,174.1,240.2,364.0,2192.0,4.0,1,
107720,1873.1,74.2,160.9,35.6,2217.0,9133.0,3.0,1,
107820,1838.2,64.7,160.5,35.6,4087.0,17156.0,3.0,1,
107920,1960.6,257.1,163.4,35.2,3648.0,11737.0,2.0,0,
108020,1843.4,190.8,156.5,37.0,3763.0,11437.0,2.0,0,
108120,1879.8,26.6,130.3,84.0,3819.0,11471.0,2.0,0,
108220,1857.8,13.8,130.3,168.3,3819.0,11471.0,2.0,0,
108320,1859.0,12.6,130.3,237.4,3819.0,11471.0,2.0,0,
108420,1859.4,12.7,130.3,234.3,3819.0,11471.0,2.0,0,
108520,1857.5,10.7,130.3,239.6,3819.0,11471.0,2.0,0,
108720,1859.0,15.3,130.3,239.4,3819.0,11471.0,2.0,0,
108820,1861.0,12.5,130.3,238.9,3819.0,11471.0,2.0,0,
108920,1859.1,12.3,130.3,239.5,3819.0,11471.0,2.0,0,
109020,1860.1,13.9,130.3,240.0,3819.0,11471.0,2.0,0,
109120,1851.3,27.3,130.2,239.9,440.0,2220.0,5.0,1,
109220,1827.7,32.0,130.1,238.9,494.0,2249.0,4.0,1,
109320,1900.9,51.4,130.2,43.6,753.0,3640.0,4.0,1,
109420,1843.9,31.6,133.3,30.3,1878.0,7428.0,3.0,1,
109520,1852.2,56.0,118.9,35.1,3826.0,15762.0,3.0,1,
109720,1901.4,41.5,118.0,49.3,3624.0,11238.0,2.0,0,
109820,1858.4,15.1,118.0,94.2,3624.0,11238.0,2.0,0,
109920,1858.9,13.7,118.0,188.8,3624.0,11238.0,2.0,0,
110020,1858.9,12.7,118.0,275.0,3624.0,11238.0,2.0,0,
110120,1857.2,13.5,118.1,241.1,3624.0,11238.0,2.0,0,
110220,1859.8,13.9,118.1,239.9,3624.0,11238.0,2.0,0,
110320,1858.4,14.1,118.1,239.6,3624.0,11238.0,2.0,0,
110420,1859.0,13.2,118.1,239.4,3624.0,11238.0,2.0,0,
110520,1856.2,15.5,118.1,240.0,3624.0,11238.0,2.0,0,
110720,1867.6,116.6,139.7,74.6,496.0,2780.0,10.0,1,
110820,1841.7,34.2,139.7,29.8,639.0,2465.0,5.0,1,
110920,1844.2,69.3,125.3,29.5,738.0,3781.0,5.0,1,
111020,1877.8,155.5,126.6,29.5,2009.0,8409.0,5.0,1,
111120,1908.0,74.5,130.3,35.2,3967.0,15653.0,3.0,1,
111220,1831.8,55.1,113.9,47.0,4015.0,15253.0,3.0,1,
111320,1895.4,38.8,96.1,45.4,3983.0,14502.0,3.0,1,
111420,1856.9,21.2,96.5,38.0,3983.0,14502.0,3.0,1,
111520,1859.2,13.1,96.5,49.6,3983.0,14502.0,3.0,1,
111720,1859.3,12.8,96.5,82.3,3983.0,14502.0,3.0,1,
111820,1859.2,15.7,96.5,238.3,3983.0,14502.0,3.0,1,
111920,1858.9,12.7,96.5,238.0,3983.0,14502.0,3.0,1,
112020,1857.4,13.8,96.5,166.4,3983.0,14502.0,3.0,1,
112120,1860.5,11.6,96.4,217.6,3983.0,14502.0,3.0,1,
112220,1860.5,10.4,96.4,239.3,3983.0,14502.0,3.0,1,
112320,1872.7,101.9,76.5,200.8,473.0,2374.0,5.0,1,
112420,1869.8,97.7,87.1,35.9,706.0,4454.0,4.0,1,
112520,1864.3,42.8,87.9,35.6,1707.0,7929.0,4.0,1,
112720,1904.3,148.4,128.9,45.0,3801.0,11454.0,2.0,0,
112820,1871.3,336.2,150.6,57.6,3995.0,11464.0,2.0,0,
112920,1877.3,149.4,192.3,171.4,3733.0,10793.0,2.0,0,
113020,1861.4,18.9,192.1,131.7,3733.0,10793.0,2.0,0,
113120,1857.4,12.2,192.2,69.5,3733.0,10793.0,2.0,0,
113220,1859.9,12.8,192.1,44.0,3733.0,10793.0,2.0,0,
113320,1859.1,12.9,192.1,78.5,3733.0,10793.0,2.0,0,
113420,1857.7,11.4,192.2,239.6,3733.0,10793.0,2.0,0,
113520,1862.5,13.0,192.1,239.3,3733.0,10793.0,2.0,0,
113720,1859.5,11.1,192.1,239.5,3733.0,10793.0,2.0,0,
113820,1860.4,14.8,192.1,239.5,3733.0,10793.0,2.0,0,
113920,1865.0,73.3,193.6,235.7,3733.0,10793.0,2.0,0,
114020,1884.0,203.7,198.6,102.0,804.0,3358.0,4.0,1,
114120,1847.3,30.4,199.5,80.3,1257.0,5428.0,5.0,1,
114220,1847.3,25.3,191.3,68.5,3270.0,12603.0,4.0,1,
114320,1902.5,68.5,175.7,36.0,3941.0,14744.0,4.0,1,
114420,1927.1,81.7,157.5,29.9,4095.0,15431.0,3.0,1,
114520,1828.4,55.8,103.2,30.2,4095.0,15168.0,3.0,1,
114720,1858.9,11.9,100.5,29.7,4095.0,15168.0,3.0,1,
114820,1860.0,10.6,100.5,49.8,4095.0,15168.0,3.0,1,
114920,1860.2,11.5,100.5,117.9,4095.0,15168.0,3.0,1,
115020,1858.9,11.9,100.4,238.6,4095.0,15168.0,3.0,1,
115120,1858.3,12.1,100.5,239.3,4095.0,15168.0,3.0,1,
115220,1858.4,12.8,100.5,239.3,4095.0,15168.0,3.0,1,
115320,1858.5,12.4,100.5,239.4,4095.0,15168.0,3.0,1,
115420,1861.3,11.7,100.5,239.7,4095.0,15168.0,3.0,1,
115520,1861.0,70.2,100.4,240.0,4095.0,15168.0,3.0,1,
115720,1850.8,54.4,117.4,87.7,321.0,2000.0,3.0,1,
115820,1856.3,36.7,117.9,37.1,1208.0,5164.0,3.0,1,
115920,1859.9,182.3,133.7,34.9,3629.0,13318.0,3.0,1,
116020,1903.3,110.4,143.4,30.2,3981.0,15826.0,3.0,1,
116120,1867.0,67.3,143.6,35.6,4095.0,15659.0,3.0,1,
116220,1866.8,17.0,143.5,36.4,4095.0,15513.0,3.0,1,
116320,1858.2,11.8,143.6,35.8,4095.0,15513.0,3.0,1,
116420,1856.9,11.3,143.6,40.8,4095.0,15513.0,3.0,1,
116520,1859.5,11.7,143.6,238.6,4095.0,15513.0,3.0,1,
116720,1858.8,12.1,143.7,239.3,4095.0,15513.0,3.0,1,
116820,1859.3,13.5,143.6,239.6,4095.0,15513.0,3.0,1,
116920,1861.4,12.3,143.6,239.8,4095.0,15513.0,3.0,1,
117020,1858.6,10.5,143.6,240.0,4095.0,15513.0,3.0,1,
117120,1861.6,11.4,143.6,239.8,4095.0,15513.0,3.0,1,
117220,1861.6,65.1,135.3,202.6,620.0,2560.0,4.0,1,
117320,1877.8,169.0,133.3,105.1,887.0,4259.0,4.0,1,
117420,1842.4,45.1,132.9,70.4,2310.0,9622.0,4.0,1,
117520,1871.8,196.1,129.8,35.6,3878.0,14708.0,4.0,1,
117720,1807.6,171.6,142.9,184.8,4095.0,11910.0,2.0,0,
117820,1875.8,44.1,164.1,259.4,3707.0,10064.0,2.0,0,
117920,1859.5,13.8,164.0,217.8,3707.0,10064.0,2.0,0,
118020,1859.7,10.8,164.0,136.3,3707.0,10064.0,2.0,0,
118120,1858.2,14.0,164.0,104.6,3707.0,10064.0,2.0,0,
118220,1861.0,11.7,164.0,131.5,3707.0,10064.0,2.0,0,
118320,1858.9,13.0,164.0,239.9,3707.0,10064.0,2.0,0,
118420,1858.7,13.0,164.0,240.0,3707.0,10064.0,2.0,0,
118520,1860.9,14.4,164.0,240.2,3707.0,10064.0,2.0,0,
118720,1859.5,13.0,164.0,240.3,3707.0,10064.0,2.0,0,
118820,1849.0,33.5,161.5,240.3,482.0,2253.0,5.0,1,
118920,1878.9,131.6,160.1,106.2,435.0,2266.0,4.0,1,
119020,1868.4,56.2,159.4,79.2,1077.0,4789.0,3.0,1,
119120,1824.1,46.3,159.5,67.3,3762.0,15180.0,3.0,1,
119220,1894.7,252.4,159.4,41.6,3776.0,12032.0,2.0,0,
119320,1910.2,111.4,157.2,44.4,3949.0,11989.0,2.0,0,
119420,1875.7,31.1,141.5,138.2,4055.0,11993.0,2.0,0,
119520,1858.6,12.4,141.5,227.2,4055.0,11993.0,2.0,0,
119720,1858.2,11.3,141.6,226.9,4055.0,11993.0,2.0,0,
119820,1859.2,12.3,141.6,237.3,4055.0,11993.0,2.0,0,
119920,1858.6,12.1,141.6,239.9,4055.0,11993.0,2.0,0,
120020,1858.8,12.1,141.6,239.8,4055.0,11993.0,2.0,0,
120120,1861.0,12.0,141.6,239.6,4055.0,11993.0,2.0,0,
120220,1858.9,13.0,141.5,239.8,4055.0,11993.0,2.0,0,
120320,1859.6,12.1,141.5,240.1,4055.0,11993.0,2.0,0,
120420,1848.0,26.1,141.6,240.2,400.0,2495.0,5.0,1,
120520,1845.2,147.5,134.0,215.4,515.0,2235.0,5.0,1,
120720,1858.0,45.9,140.8,79.8,3971.0,16598.0,3.0,1,
120820,1887.8,252.3,135.7,76.0,4089.0,16074.0,3.0,1,
120920,1917.5,155.2,136.8,66.9,3792.0,11872.0,2.0,0,
121020,1868.4,40.5,134.7,107.2,3948.0,11466.0,2.0,0,
121120,1859.6,14.2,134.7,206.9,3948.0,11466.0,2.0,0,
121220,1859.3,12.6,134.7,258.9,3948.0,11466.0,2.0,0,
121320,1860.3,11.9,134.7,250.0,3948.0,11466.0,2.0,0,
121420,1861.2,11.2,134.7,239.3,3948.0,11466.0,2.0,0,
121520,1858.6,10.2,134.7,239.7,3948.0,11466.0,2.0,0,
121720,1858.7,12.8,134.7,238.7,3948.0,11466.0,2.0,0,
121820,1858.1,14.4,134.7,240.0,3948.0,11466.0,2.0,0,
121920,1860.3,13.1,134.7,240.3,3948.0,11466.0,2.0,0,
122020,1856.8,26.2,134.7,240.0,463.0,2462.0,5.0,1,
122120,1844.1,197.7,134.9,238.2,769.0,3790.0,5.0,1,
122220,1899.7,86.4,134.7,38.5,1734.0,8364.0,5.0,1,
122320,1860.4,59.6,131.0,37.4,4009.0,16932.0,3.0,1,
122420,1850.5,142.2,131.1,37.1,3973.0,15560.0,3.0,1,
122520,1914.3,186.5,127.2,38.5,3927.0,12334.0,2.0,0,
122720,1861.7,16.2,125.4,195.3,3927.0,12334.0,2.0,0,
122820,1859.9,13.8,125.4,259.6,3927.0,12334.0,2.0,0,
122920,1857.5,11.3,125.4,259.9,3927.0,12334.0,2.0,0,
123020,1860.0,11.6,125.4,241.1,3927.0,12334.0,2.0,0,
123120,1860.8,11.5,125.4,239.9,3927.0,12334.0,2.0,0,
123220,1858.1,14.0,125.4,239.5,3927.0,12334.0,2.0,0,
123320,1858.5,12.3,125.4,239.6,3927.0,12334.0,2.0,0,
123420,1859.2,12.9,125.4,239.7,3927.0,12334.0,2.0,0,
123520,1861.0,11.6,125.4,239.7,3927.0,12334.0,2.0,0,
123720,1843.4,39.9,125.4,239.8,713.0,3366.0,5.0,1,
123820,1869.3,188.0,124.4,66.8,1496.0,6740.0,4.0,1,
123920,1881.0,90.3,131.0,36.9,3782.0,15364.0,3.0,1,
124020,1850.7,84.2,131.2,39.8,4089.0,16779.0,3.0,1,
124120,1956.4,234.7,126.0,42.6,3824.0,11465.0,2.0,0,
124220,1846.7,100.2,127.3,46.5,4034.0,11213.0,2.0,0,
124320,1875.2,31.8,127.3,106.4,4034.0,11213.0,2.0,0,
124420,1858.7,11.7,127.4,202.9,4034.0,11213.0,2.0,0,
124520,1858.8,11.3,127.4,259.9,4034.0,11213.0,2.0,0,
124720,1860.1,13.2,127.4,208.1,4034.0,11213.0,2.0,0,
124820,1858.2,10.9,127.4,240.2,4034.0,11213.0,2.0,0,
124920,1856.1,13.4,127.5,240.0,4034.0,11213.0,2.0,0,
125020,1858.9,12.4,127.5,239.7,4034.0,11213.0,2.0,0,
125120,1859.9,11.0,127.5,239.0,4034.0,11213.0,2.0,0,
125220,1861.1,17.1,127.5,238.1,4034.0,11213.0,2.0,0,
125320,1844.9,26.6,127.4,239.2,748.0,3702.0,5.0,1,
125420,1828.8,157.0,123.0,125.4,1424.0,6086.0,5.0,1,
125520,1971.5,180.8,127.6,106.1,3553.0,10707.0,2.0,0,
125720,1877.2,350.6,172.4,229.2,3769.0,10901.0,2.0,0,
125820,1910.6,207.8,175.6,225.9,3853.0,11655.0,2.0,0,
125920,1877.4,23.5,175.7,45.6,3670.0,9858.0,2.0,0,
126020,1858.3,12.1,175.6,40.9,3670.0,9858.0,2.0,0,
126120,1859.3,11.0,175.6,194.4,3670.0,9858.0,2.0,0,
126220,1858.4,10.8,175.6,291.3,3670.0,9858.0,2.0,0,
126320,1859.3,11.7,175.6,241.3,3670.0,9858.0,2.0,0,
126420,1857.8,13.9,175.6,240.3,3670.0,9858.0,2.0,0,
126520,1860.5,11.3,175.6,239.7,3670.0,9858.0,2.0,0,
126720,1857.3,10.2,175.5,239.5,3670.0,9858.0,2.0,0,
126820,1860.9,13.4,175.5,240.1,3670.0,9858.0,2.0,0,
126920,1861.3,64.1,185.8,36.7,486.0,2154.0,5.0,1,
127020,1837.6,23.3,185.8,29.3,1032.0,4260.0,5.0,1,
127120,1863.0,69.4,179.2,29.3,1894.0,7840.0,3.0,1,
127220,1889.2,128.7,175.7,29.8,4047.0,17459.0,2.0,0,
127320,1912.2,89.2,152.9,34.5,4095.0,16960.0,3.0,1,
127420,1839.5,273.4,134.6,35.2,3785.0,11493.0,2.0,0,
127520,1893.1,35.7,135.8,39.7,3858.0,11302.0,2.0,0,
127720,1860.1,11.8,135.8,91.7,3858.0,11302.0,2.0,0,
127820,1860.1,11.8,135.8,101.2,3858.0,11302.0,2.0,0,
127920,1858.8,11.4,135.8,232.7,3858.0,11302.0,2.0,0,
128020,1858.9,11.8,135.8,240.0,3858.0,11302.0,2.0,0,
128120,1859.3,10.0,135.8,240.0,3858.0,11302.0,2.0,0,
128220,1860.6,11.2,135.8,240.1,3858.0,11302.0,2.0,0,
128320,1860.2,13.5,135.7,239.6,3858.0,11302.0,2.0,0,
128420,1861.3,12.4,135.7,239.6,3858.0,11302.0,2.0,0,
128520,1885.5,206.5,146.4,36.5,399.0,2122.0,6.0,1,
128720,1868.5,30.8,140.1,34.5,2008.0,9171.0,4.0,1,
128820,1863.2,274.4,150.9,35.2,3839.0,12810.0,2.0,0,
128920,1889.7,144.5,165.7,41.5,4015.0,11427.0,2.0,0,
129020,1867.0,454.8,204.5,131.5,3750.0,11425.0,2.0,0,
129120,1882.3,64.5,210.1,164.1,3814.0,10891.0,2.0,0,
129220,1857.4,14.1,210.1,90.8,3814.0,10891.0,2.0,0,
129320,1861.2,13.0,210.1,51.4,3814.0,10891.0,2.0,0,
129420,1860.5,10.3,210.1,43.6,3814.0,10891.0,2.0,0,
129520,1861.7,10.4,210.0,91.2,3814.0,10891.0,2.0,0,
129720,1858.8,10.4,210.1,239.5,3814.0,10891.0,2.0,0,
129820,1861.3,12.3,210.0,240.0,3814.0,10891.0,2.0,0,
129920,1860.9,10.8,210.0,239.9,3814.0,10891.0,2.0,0,
130020,1861.5,11.4,210.0,239.9,3814.0,10891.0,2.0,0,
130120,1872.4,96.2,198.0,238.4,3814.0,10891.0,2.0,0,
130220,1872.0,126.7,216.8,99.6,594.0,2563.0,4.0,1,
130320,1839.6,39.0,216.9,67.5,1582.0,7764.0,4.0,1,
130420,1852.3,252.7,206.3,35.6,4041.0,17160.0,3.0,1,
130520,1912.9,216.4,216.7,34.3,3856.0,12678.0,2.0,0,
130720,1835.8,124.4,200.0,157.1,3656.0,10224.0,2.0,0,
130820,1859.8,15.1,199.9,134.9,3656.0,10224.0,2.0,0,
130920,1859.8,11.7,200.0,87.0,3656.0,10224.0,2.0,0,
131020,1862.9,11.8,199.9,66.3,3656.0,10224.0,2.0,0,
131120,1860.6,12.0,200.0,67.0,3656.0,10224.0,2.0,0,
131220,1858.9,12.2,200.0,233.7,3656.0,10224.0,2.0,0,
131320,1858.9,11.9,200.0,237.6,3656.0,10224.0,2.0,0,
131420,1861.1,15.1,200.0,239.4,3656.0,10224.0,2.0,0,
131520,1861.5,11.0,200.0,239.4,3656.0,10224.0,2.0,0,
131720,1857.9,27.6,198.4,239.9,454.0,2414.0,5.0,1,
131820,1870.1,67.8,173.6,157.4,808.0,3466.0,4.0,1,
131920,1852.9,48.7,176.1,37.6,1296.0,5554.0,4.0,1,
132020,1891.9,48.7,176.1,37.7,3896.0,16091.0,3.0,1,
132120,1841.2,292.0,163.1,37.6,3765.0,13465.0,2.0,0,
132220,1930.1,152.3,165.0,48.4,3921.0,11661.0,2.0,0,
132320,1870.0,100.2,139.5,150.4,4095.0,12335.0,2.0,0,
132420,1862.8,16.0,139.3,226.8,4095.0,12335.0,2.0,0,
132520,1859.7,9.7,139.3,226.7,4095.0,12335.0,2.0,0,
132720,1860.8,10.0,139.3,158.7,4095.0,12335.0,2.0,0,
132820,1860.8,11.7,139.3,240.0,4095.0,12335.0,2.0,0,
132920,1859.1,11.5,139.3,239.9,4095.0,12335.0,2.0,0,
133020,1859.8,11.6,139.3,240.0,4095.0,12335.0,2.0,0,
133120,1861.2,12.8,139.3,240.2,4095.0,12335.0,2.0,0,
133220,1862.8,11.2,139.2,240.2,4095.0,12335.0,2.0,0,
133320,1845.7,12.6,139.2,240.0,4095.0,12335.0,2.0,0,
133420,1855.2,32.7,136.8,240.2,840.0,3588.0,5.0,1,
133520,1871.5,68.1,132.6,146.6,2778.0,11637.0,4.0,1,
133720,1870.0,83.2,135.2,34.7,4095.0,16941.0,3.0,1,
133820,1975.3,240.3,123.6,37.4,3862.0,12623.0,2.0,0,
133920,1822.1,112.9,118.1,91.6,4095.0,11730.0,2.0,0,
134020,1872.7,17.9,115.6,184.9,4095.0,11730.0,2.0,0,
134120,1858.2,12.8,115.7,232.8,4095.0,11730.0,2.0,0,
134220,1860.8,11.2,115.7,236.0,4095.0,11730.0,2.0,0,
134320,1861.1,12.2,115.7,228.3,4095.0,11730.0,2.0,0,
134420,1858.4,14.7,115.7,238.6,4095.0,11730.0,2.0,0,
134520,1861.6,14.3,115.7,239.6,4095.0,11730.0,2.0,0,
134720,1859.6,13.2,115.7,207.6,4095.0,11730.0,2.0,0,
134820,1859.4,12.2,115.8,239.3,4095.0,11730.0,2.0,0,
134920,1861.6,12.2,115.8,239.8,4095.0,11730.0,2.0,0,
135020,1843.4,31.9,115.9,239.7,661.0,3059.0,5.0,1,
135120,1848.2,98.7,125.0,88.5,847.0,3630.0,4.0,1,
135220,1925.1,78.1,123.6,29.7,2290.0,9689.0,4.0,1,
135320,1807.8,59.4,122.7,29.6,4095.0,16830.0,3.0,1,
135420,1876.8,145.4,101.4,30.0,4095.0,16186.0,3.0,1,
135520,1918.5,172.5,100.4,45.7,4002.0,12059.0,2.0,0,
135720,1858.8,12.0,97.1,227.6,4002.0,12059.0,2.0,0,
135820,1859.9,12.1,97.1,261.3,4002.0,12059.0,2.0,0,
135920,1860.7,11.5,97.1,284.4,4002.0,12059.0,2.0,0,
136020,1860.9,12.0,97.1,240.4,4002.0,12059.0,2.0,0,
136120,1859.5,13.0,97.1,239.7,4002.0,12059.0,2.0,0,
136220,1860.8,10.6,97.1,240.3,4002.0,12059.0,2.0,0,
136320,1861.2,12.4,97.1,240.3,4002.0,12059.0,2.0,0,
136420,1861.8,12.3,97.1,239.9,4002.0,12059.0,2.0,0,
136520,1860.2,11.1,97.1,239.7,4002.0,12059.0,2.0,0,
136720,1841.2,80.1,90.4,148.9,666.0,2579.0,4.0,1,
136820,1879.4,203.4,109.8,39.1,1666.0,6664.0,4.0,1,
136920,1869.3,83.3,122.2,36.3,3986.0,16679.0,3.0,1,
137020,1875.3,75.3,122.0,36.1,4012.0,15963.0,3.0,1,
137120,1894.8,145.9,111.8,35.5,3741.0,10454.0,2.0,0,
137220,1874.4,29.7,113.1,65.8,3912.0,11210.0,2.0,0,
137320,1858.3,12.4,113.1,219.9,3912.0,11210.0,2.0,0,
137420,1859.8,10.3,113.1,271.8,3912.0,11210.0,2.0,0,
137520,1860.4,11.0,113.1,295.4,3912.0,11210.0,2.0,0,
137720,1857.2,13.2,113.1,238.6,3912.0,11210.0,2.0,0,
137820,1861.8,12.1,113.1,239.4,3912.0,11210.0,2.0,0,
137920,1859.0,11.0,113.1,239.5,3912.0,11210.0,2.0,0,
138020,1861.8,11.8,113.1,239.7,3912.0,11210.0,2.0,0,
138120,1859.2,12.9,113.1,239.7,3912.0,11210.0,2.0,0,
138220,1871.5,113.6,136.3,36.7,617.0,3192.0,5.0,1,
138320,1839.6,52.4,136.2,29.2,1508.0,7069.0,5.0,1,
138420,1875.8,47.4,117.1,29.0,2577.0,10375.0,4.0,1,
138520,1885.3,166.0,116.9,29.3,4095.0,17612.0,2.0,0,
138720,1875.3,189.5,113.2,36.9,3967.0,14057.0,4.0,1,
138820,1889.9,48.4,116.8,50.2,3956.0,10857.0,2.0,0,
138920,1858.8,14.7,116.8,102.9,3956.0,10857.0,2.0,0,
139020,1860.1,12.8,116.8,109.9,3956.0,10857.0,2.0,0,
139120,1862.4,13.0,116.8,113.4,3956.0,10857.0,2.0,0,
139220,1861.1,11.9,116.8,158.7,3956.0,10857.0,2.0,0,
139320,1859.7,12.0,116.8,239.6,3956.0,10857.0,2.0,0,
139420,1857.3,11.2,116.8,239.4,3956.0,10857.0,2.0,0,
139520,1861.5,10.6,116.8,218.5,3956.0,10857.0,2.0,0,
139720,1861.0,11.7,116.8,240.0,3956.0,10857.0,2.0,0,
139820,1873.2,238.9,103.1,196.2,3956.0,10857.0,2.0,0,
139920,1857.1,42.8,113.7,77.9,711.0,3129.0,4.0,1,
140020,1834.8,23.6,113.2,37.4,2186.0,9183.0,4.0,1,
140120,1881.9,268.5,125.2,34.3,3929.0,13720.0,2.0,0,
140220,1893.3,109.0,144.6,39.6,4095.0,12360.0,2.0,0,
140320,1936.6,381.3,187.0,133.5,3713.0,11615.0,2.0,0,
140420,1833.0,102.3,198.3,195.1,3870.0,10955.0,2.0,0,
140520,1859.1,17.9,198.3,71.0,3870.0,10955.0,2.0,0,
140720,1861.7,12.5,198.3,37.2,3870.0,10955.0,2.0,0,
140820,1863.9,11.3,198.2,67.3,3870.0,10955.0,2.0,0,
140920,1859.6,12.2,198.2,238.6,3870.0,10955.0,2.0,0,
141020,1859.0,12.0,198.2,239.3,3870.0,10955.0,2.0,0,
141120,1858.6,11.2,198.2,240.0,3870.0,10955.0,2.0,0,
141220,1859.3,11.8,198.3,240.0,3870.0,10955.0,2.0,0,
141320,1861.2,10.9,198.2,239.7,3870.0,10955.0,2.0,0,
141420,1871.3,244.2,198.0,239.9,3870.0,10955.0,2.0,0,
141520,1876.8,93.5,209.7,67.9,626.0,3414.0,5.0,1,
141720,1927.8,205.4,206.9,30.0,3021.0,11896.0,4.0,1,
141820,1847.9,186.4,209.8,30.3,3980.0,12186.0,2.0,0,
141920,1877.2,319.7,194.8,94.0,4095.0,12868.0,2.0,0,
142020,1878.0,199.9,209.8,195.7,3879.0,11427.0,2.0,0,
142120,1863.1,26.2,209.7,130.5,3879.0,11427.0,2.0,0,
142220,1859.8,10.9,209.8,65.6,3879.0,11427.0,2.0,0,
142320,1860.3,10.2,209.8,38.2,3879.0,11427.0,2.0,0,
142420,1863.9,10.4,209.8,40.0,3879.0,11427.0,2.0,0,
142520,1861.4,12.2,209.8,239.6,3879.0,11427.0,2.0,0,
142720,1860.1,11.4,209.8,240.0,3879.0,11427.0,2.0,0,
142820,1858.5,13.0,209.8,240.0,3879.0,11427.0,2.0,0,
142920,1860.2,13.1,209.8,240.2,3879.0,11427.0,2.0,0,
143020,1848.7,65.7,211.6,239.7,3879.0,11427.0,2.0,0,
143120,1897.1,267.2,201.1,112.5,3879.0,11427.0,2.0,0,
143220,1842.9,69.8,208.0,99.9,2085.0,9200.0,4.0,1,
143320,1858.7,64.3,207.7,70.5,4095.0,18279.0,3.0,1,
143420,1899.7,294.5,198.7,37.9,3826.0,13571.0,2.0,0,
143520,1957.5,132.0,202.1,38.1,4055.0,11971.0,2.0,0,
143720,1872.0,28.0,185.5,226.8,3789.0,10351.0,2.0,0,
143820,1857.0,12.2,185.5,153.6,3789.0,10351.0,2.0,0,
143920,1861.0,12.0,185.5,100.0,3789.0,10351.0,2.0,0,
144020,1860.4,12.4,185.5,76.6,3789.0,10351.0,2.0,0,
144120,1859.0,13.8,185.5,113.9,3789.0,10351.0,2.0,0,
144220,1857.3,13.8,185.6,239.7,3789.0,10351.0,2.0,0,
144320,1857.5,11.8,185.6,239.6,3789.0,10351.0,2.0,0,
144420,1860.2,11.9,185.5,239.5,3789.0,10351.0,2.0,0,
144520,1858.8,12.1,185.6,239.8,3789.0,10351.0,2.0,0,
144720,1849.6,58.9,178.6,239.3,605.0,2946.0,5.0,1,
144820,1881.7,72.5,162.5,89.4,907.0,4059.0,5.0,1,
144920,1890.0,41.8,162.8,43.5,2394.0,9940.0,3.0,1,
145020,1816.2,100.8,157.4,38.1,4095.0,18024.0,3.0,1,
145120,1912.6,271.4,165.6,37.6,3824.0,11953.0,2.0,0,
145220,1901.5,152.5,161.2,40.8,4047.0,11536.0,2.0,0,
145320,1866.0,58.0,142.7,89.1,3908.0,11679.0,2.0,0,
145420,1858.1,16.0,142.9,199.5,3908.0,11679.0,2.0,0,
145520,1860.0,11.5,142.9,198.1,3908.0,11679.0,2.0,0,
145720,1860.9,11.1,142.9,114.9,3908.0,11679.0,2.0,0,
145820,1858.7,12.7,142.9,238.3,3908.0,11679.0,2.0,0,
145920,1861.5,10.5,142.8,238.9,3908.0,11679.0,2.0,0,
146020,1860.6,11.0,142.8,238.3,3908.0,11679.0,2.0,0,
146120,1858.9,11.0,142.8,239.2,3908.0,11679.0,2.0,0,
146220,1860.6,13.6,142.8,239.7,3908.0,11679.0,2.0,0,
146320,1843.5,25.5,142.8,239.7,552.0,2627.0,5.0,1,
146420,1856.0,127.0,155.3,44.9,860.0,4042.0,4.0,1,
146520,1877.5,118.3,160.3,35.7,2282.0,9367.0,3.0,1,
146720,1872.2,252.7,135.1,37.0,4095.0,16671.0,3.0,1,
146820,1953.8,177.4,138.3,44.0,3834.0,11411.0,2.0,0,
146920,1853.6,28.8,134.2,92.1,3984.0,11645.0,2.0,0,
147020,1859.2,13.0,133.7,167.2,3984.0,11645.0,2.0,0,
147120,1859.7,12.6,133.7,260.6,3984.0,11645.0,2.0,0,
147220,1862.3,12.7,133.7,284.3,3984.0,11645.0,2.0,0,
147320,1860.7,10.1,133.7,240.5,3984.0,11645.0,2.0,0,
147420,1860.3,12.4,133.6,239.6,3984.0,11645.0,2.0,0,
147520,1861.0,13.2,133.6,239.8,3984.0,11645.0,2.0,0,
147720,1860.7,12.5,133.6,239.8,3984.0,11645.0,2.0,0,
147820,1861.7,13.6,133.7,239.9,3984.0,11645.0,2.0,0,
147920,1854.7,22.1,134.1,239.7,492.0,2497.0,5.0,1,
148020,1839.3,26.0,114.8,45.0,976.0,4118.0,5.0,1,
148120,1877.5,112.0,126.4,34.7,2581.0,10607.0,3.0,1,
148220,1909.8,121.5,127.9,35.3,4095.0,18281.0,3.0,1,
148320,1836.7,84.4,128.2,35.3,4095.0,16733.0,3.0,1,
148420,1900.1,224.5,109.6,35.0,3839.0,11867.0,2.0,0,
148520,1902.6,43.6,109.6,42.2,3919.0,10997.0,2.0,0,
148720,1859.5,11.7,109.6,285.8,3919.0,10997.0,2.0,0,
148820,1862.0,10.7,109.6,295.4,3919.0,10997.0,2.0,0,
148920,1860.4,12.4,109.6,272.2,3919.0,10997.0,2.0,0,
149020,1859.7,11.8,109.6,239.7,3919.0,10997.0,2.0,0,
149120,1859.8,13.2,109.7,240.1,3919.0,10997.0,2.0,0,
149220,1858.7,12.5,109.7,240.2,3919.0,10997.0,2.0,0,
149320,1861.0,11.4,109.7,239.8,3919.0,10997.0,2.0,0,
149420,1859.6,13.6,109.8,239.6,3919.0,10997.0,2.0,0,
149520,1858.6,126.4,123.2,102.8,298.0,2218.0,10.0,1,
149720,1841.3,87.7,115.7,29.2,1888.0,9398.0,4.0,1,
149820,1894.1,64.5,105.2,29.6,3614.0,14577.0,4.0,1,
149920,1886.3,77.0,107.7,35.2,4095.0,16627.0,3.0,1,
150020,1921.9,71.2,105.8,37.6,3925.0,14922.0,4.0,1,
150120,1827.8,69.9,92.1,45.1,3873.0,10570.0,2.0,0,
150220,1860.4,15.4,92.1,86.6,3873.0,10570.0,2.0,0,
150320,1858.9,13.2,92.1,106.7,3873.0,10570.0,2.0,0,
150420,1860.3,12.9,92.2,103.7,3873.0,10570.0,2.0,0,
150520,1860.6,12.2,92.2,111.3,3873.0,10570.0,2.0,0,
150720,1860.6,18.0,92.1,239.8,3873.0,10570.0,2.0,0,
150820,1859.4,13.3,92.2,239.6,3873.0,10570.0,2.0,0,
150920,1860.0,14.0,92.2,185.5,3873.0,10570.0,2.0,0,
151020,1859.7,14.1,92.2,203.4,3873.0,10570.0,2.0,0,
151120,1875.5,48.5,80.0,239.8,3873.0,10570.0,2.0,0,
151220,1877.0,74.6,97.8,277.7,606.0,2919.0,4.0,1,
151320,1820.4,66.9,99.1,110.9,851.0,4698.0,4.0,1,
151420,1932.7,225.9,110.3,38.1,2466.0,8237.0,2.0,0,
151520,1841.9,203.5,132.6,37.2,4095.0,13167.0,2.0,0,
151720,1875.5,195.5,194.8,226.6,3859.0,10398.0,2.0,0,
151820,1864.0,19.6,194.8,130.3,3859.0,10398.0,2.0,0,
151920,1859.7,12.9,194.8,50.9,3859.0,10398.0,2.0,0,
152020,1861.5,11.0,194.8,37.9,3859.0,10398.0,2.0,0,
152120,1861.7,15.5,194.8,38.7,3859.0,10398.0,2.0,0,
152220,1858.7,12.4,194.9,238.4,3859.0,10398.0,2.0,0,
152320,1860.6,10.8,194.9,100.1,3859.0,10398.0,2.0,0,
152420,1858.7,11.2,194.9,85.7,3859.0,10398.0,2.0,0,
152520,1861.0,12.4,194.8,107.0,3859.0,10398.0,2.0,0,
152720,1844.8,10.9,194.8,239.9,3859.0,10398.0,2.0,0,
152820,1901.5,100.4,195.9,102.8,676.0,3319.0,4.0,1,
152920,1843.4,91.5,198.6,76.8,1937.0,9465.0,4.0,1,
153020,1854.8,55.2,194.1,71.4,3886.0,16239.0,3.0,1,
153120,1887.6,243.9,184.2,42.5,3967.0,13031.0,2.0,0,
153220,1935.6,142.4,187.0,48.5,4020.0,11817.0,2.0,0,
153320,1842.9,280.6,173.2,225.7,3184.0,9822.0,2.0,0,
153420,1858.9,27.1,171.2,226.7,2732.0,7794.0,2.0,0,
153520,1858.5,11.6,171.2,132.8,2732.0,7794.0,2.0,0,
153720,1860.8,12.7,171.2,89.4,2732.0,7794.0,2.0,0,
153820,1860.1,11.0,171.2,169.2,2732.0,7794.0,2.0,0,
153920,1857.7,11.6,171.2,240.1,2732.0,7794.0,2.0,0,
154020,1861.8,11.8,171.2,239.6,2732.0,7794.0,2.0,0,
154120,1861.0,10.9,171.2,239.6,2732.0,7794.0,2.0,0,
154220,1860.7,12.4,171.2,239.8,2732.0,7794.0,2.0,0,
154320,1861.7,11.6,171.2,239.9,2732.0,7794.0,2.0,0,
154420,1847.9,94.5,156.3,240.0,864.0,3560.0,5.0,1,
154520,1877.5,230.4,154.8,125.1,1275.0,6723.0,5.0,1,
154720,1830.3,77.5,157.8,85.9,4095.0,18185.0,3.0,1,
154820,1900.5,254.8,151.3,42.7,3942.0,12850.0,2.0,0,
154920,1900.4,131.1,128.5,71.8,3870.0,10990.0,2.0,0,
155020,1864.3,18.2,121.3,206.7,3823.0,10908.0,2.0,0,
155120,1858.9,12.0,121.3,229.3,3823.0,10908.0,2.0,0,
155220,1861.1,10.9,121.3,230.0,3823.0,10908.0,2.0,0,
155320,1861.8,9.5,121.3,227.7,3823.0,10908.0,2.0,0,
155420,1861.2,12.1,121.2,238.9,3823.0,10908.0,2.0,0,
155520,1859.2,12.4,121.2,239.9,3823.0,10908.0,2.0,0,
155720,1861.5,13.2,121.2,239.7,3823.0,10908.0,2.0,0,
155820,1860.0,11.5,121.2,240.0,3823.0,10908.0,2.0,0,
155920,1860.5,12.2,121.3,240.1,3823.0,10908.0,2.0,0,
156020,1842.3,28.9,121.6,240.0,511.0,2241.0,5.0,1,
156120,1853.4,89.8,121.3,147.6,515.0,2965.0,4.0,1,
156220,1879.9,69.2,113.3,103.5,2078.0,9088.0,5.0,1,
156320,1864.9,85.1,114.4,101.9,4095.0,18460.0,3.0,1,
156420,1866.6,281.6,106.5,92.0,4095.0,17184.0,3.0,1,
156520,1972.1,202.3,115.5,89.0,3933.0,11746.0,2.0,0,
156720,1858.0,14.4,114.3,155.5,3933.0,11746.0,2.0,0,
156820,1860.6,11.8,114.3,253.2,3933.0,11746.0,2.0,0,
156920,1860.7,13.4,114.3,271.7,3933.0,11746.0,2.0,0,
157020,1859.5,12.4,114.4,240.7,3933.0,11746.0,2.0,0,
157120,1859.4,17.6,114.4,240.1,3933.0,11746.0,2.0,0,
157220,1859.6,12.6,114.5,238.7,3933.0,11746.0,2.0,0,
157320,1860.4,12.4,114.5,172.4,3933.0,11746.0,2.0,0,
157420,1858.0,14.6,114.5,220.3,3933.0,11746.0,2.0,0,
157520,1860.7,13.6,114.5,240.3,3933.0,11746.0,2.0,0,
157720,1841.9,68.8,116.3,36.8,1443.0,6933.0,5.0,1,
157820,1843.5,55.7,111.3,29.7,3496.0,14108.0,5.0,1,
157920,1957.9,155.5,123.4,30.0,4095.0,17891.0,2.0,0,
158020,1820.5,71.3,123.5,29.6,4095.0,15823.0,3.0,1,
158120,1878.8,175.1,91.4,29.0,4095.0,15493.0,3.0,1,
158220,1896.5,49.4,92.7,35.0,3914.0,10454.0,2.0,0,
158320,1857.7,13.5,92.7,114.3,3914.0,10454.0,2.0,0,
158420,1859.3,13.0,92.7,154.3,3914.0,10454.0,2.0,0,
158520,1861.0,12.7,92.7,187.1,3914.0,10454.0,2.0,0,
158720,1858.5,14.1,92.7,240.1,3914.0,10454.0,2.0,0,
158820,1860.0,12.9,92.6,240.1,3914.0,10454.0,2.0,0,
158920,1860.5,11.7,92.6,239.6,3914.0,10454.0,2.0,0,
159020,1859.6,12.5,92.7,239.5,3914.0,10454.0,2.0,0,
159120,1857.8,10.6,92.6,240.4,3914.0,10454.0,2.0,0,
159220,1869.5,305.0,102.6,238.3,3914.0,10454.0,2.0,0,
159320,1858.9,65.5,126.8,54.2,624.0,3195.0,4.0,1,
159420,1835.5,44.8,126.3,35.2,1306.0,5987.0,5.0,1,
159520,1868.5,49.9,114.7,30.0,3520.0,13356.0,3.0,1,
159720,1914.4,49.5,116.1,35.1,4061.0,15116.0,3.0,1,
159820,1824.3,68.6,109.4,39.3,3711.0,9971.0,2.0,0,
159920,1859.5,16.5,109.4,73.0,3711.0,9971.0,2.0,0,
160020,1860.1,12.1,109.4,85.6,3711.0,9971.0,2.0,0,
160120,1861.8,11.3,109.4,83.8,3711.0,9971.0,2.0,0,
160220,1863.3,11.4,109.4,88.2,3711.0,9971.0,2.0,0,
160320,1859.7,13.1,109.4,239.4,3711.0,9971.0,2.0,0,
160420,1860.7,13.6,109.3,240.1,3711.0,9971.0,2.0,0,
160520,1857.4,12.7,109.4,240.3,3711.0,9971.0,2.0,0,
160720,1861.4,10.3,109.4,240.0,3711.0,9971.0,2.0,0,
160820,1863.2,117.0,109.2,238.9,3711.0,9971.0,2.0,0,
160920,1886.2,127.5,89.8,105.3,747.0,3369.0,4.0,1,
161020,1843.8,25.0,89.0,88.0,1295.0,5844.0,5.0,1,
161120,1870.0,153.2,93.0,75.8,1657.0,6690.0,4.0,1,
161220,1862.1,264.0,124.0,41.5,3999.0,13847.0,2.0,0,
161320,1891.2,148.0,141.2,89.5,4095.0,12442.0,2.0,0,
161420,1870.6,214.8,175.5,170.5,3765.0,10736.0,2.0,0,
161520,1865.5,22.2,175.6,226.4,3765.0,10736.0,2.0,0,
161720,1861.3,12.1,175.5,79.7,3765.0,10736.0,2.0,0,
161820,1861.0,13.6,175.6,73.0,3765.0,10736.0,2.0,0,
161920,1859.4,12.0,175.6,183.2,3765.0,10736.0,2.0,0,
162020,1859.3,12.6,175.6,237.4,3765.0,10736.0,2.0,0,
162120,1858.9,12.1,175.6,202.5,3765.0,10736.0,2.0,0,
162220,1859.7,13.5,175.6,239.5,3765.0,10736.0,2.0,0,
162320,1860.0,11.5,175.6,240.1,3765.0,10736.0,2.0,0,
162420,1846.3,17.9,175.6,240.3,3765.0,10736.0,2.0,0,
162520,1894.6,52.0,174.3,133.9,534.0,2835.0,5.0,1,
162720,1849.8,59.8,170.3,103.7,4015.0,17763.0,3.0,1,
162820,1886.0,350.9,166.5,99.6,3776.0,13300.0,2.0,0,
162920,1927.1,145.6,172.7,48.4,3996.0,12265.0,2.0,0,
163020,1875.2,124.3,163.5,75.4,3973.0,11309.0,2.0,0,
163120,1855.7,18.3,147.5,207.5,3996.0,11215.0,2.0,0,
163220,1859.4,10.8,147.5,228.8,3996.0,11215.0,2.0,0,
163320,1861.6,11.8,147.5,226.6,3996.0,11215.0,2.0,0,
163420,1862.3,11.1,147.5,207.2,3996.0,11215.0,2.0,0,
163520,1861.4,11.6,147.4,240.0,3996.0,11215.0,2.0,0,
163720,1859.8,10.9,147.4,239.7,3996.0,11215.0,2.0,0,
163820,1860.2,11.3,147.4,239.7,3996.0,11215.0,2.0,0,
163920,1859.3,11.7,147.4,239.9,3996.0,11215.0,2.0,0,
164020,1861.2,10.6,147.4,240.1,3996.0,11215.0,2.0,0,
164120,1845.8,84.7,140.9,239.9,521.0,2390.0,4.0,1,
164220,1879.0,362.0,157.7,116.3,797.0,3812.0,4.0,1,
164320,1860.5,68.1,168.0,74.2,1753.0,7540.0,4.0,1,
164420,1866.6,61.6,163.6,35.8,4095.0,17415.0,3.0,1,
164520,1878.2,263.8,147.1,34.2,3958.0,13255.0,2.0,0,
164720,1870.1,34.3,143.8,195.8,4095.0,12867.0,2.0,0,
164820,1862.1,21.0,144.0,229.2,4095.0,12867.0,2.0,0,
164920,1861.8,12.5,144.0,228.7,4095.0,12867.0,2.0,0,
165020,1861.3,12.9,144.0,190.4,4095.0,12867.0,2.0,0,
165120,1860.8,12.9,144.0,104.6,4095.0,12867.0,2.0,0,
165220,1859.6,12.0,144.0,238.1,4095.0,12867.0,2.0,0,
165320,1858.0,12.7,144.0,239.5,4095.0,12867.0,2.0,0,
165420,1859.9,10.8,144.1,239.8,4095.0,12867.0,2.0,0,
165520,1859.5,12.2,144.1,240.1,4095.0,12867.0,2.0,0,
165720,1834.8,37.1,144.6,239.6,548.0,2285.0,5.0,1,
165820,1861.5,95.3,138.5,109.6,947.0,5128.0,5.0,1,
165920,1881.0,119.4,118.4,99.3,2228.0,10118.0,4.0,1,
166020,1866.0,75.2,118.9,100.8,4026.0,17860.0,3.0,1,
166120,1875.0,326.3,108.7,90.4,4095.0,17358.0,3.0,1,
166220,1986.5,191.1,122.8,76.3,3835.0,12373.0,2.0,0,
166320,1818.9,27.9,122.6,85.0,4085.0,11965.0,2.0,0,
166420,1858.4,12.3,122.5,157.6,4085.0,11965.0,2.0,0,
166520,1862.4,12.5,122.4,232.6,4085.0,11965.0,2.0,0,
166720,1861.5,10.8,122.4,239.5,4085.0,11965.0,2.0,0,
166820,1860.0,12.3,122.3,239.7,4085.0,11965.0,2.0,0,
166920,1859.7,13.0,122.3,239.9,4085.0,11965.0,2.0,0,
167020,1859.1,13.5,122.3,240.4,4085.0,11965.0,2.0,0,
167120,1862.8,11.4,122.3,240.5,4085.0,11965.0,2.0,0,
167220,1860.7,11.4,122.3,240.2,4085.0,11965.0,2.0,0,
167320,1852.9,34.4,122.1,240.1,519.0,2256.0,5.0,1,
167420,1840.1,34.7,122.3,239.3,741.0,3365.0,5.0,1,
167520,1858.1,32.6,117.9,67.3,765.0,3383.0,4.0,1,
167720,1825.6,48.4,121.4,34.8,3942.0,16612.0,3.0,1,
167820,1888.9,232.7,98.6,34.7,3621.0,10840.0,2.0,0,
167920,1906.3,44.4,96.4,69.8,3827.0,10364.0,2.0,0,
168020,1858.9,15.2,96.5,154.0,3827.0,10364.0,2.0,0,
168120,1861.5,10.8,96.5,239.5,3827.0,10364.0,2.0,0,
168220,1860.2,11.7,96.5,293.0,3827.0,10364.0,2.0,0,
168320,1861.7,11.6,96.5,240.9,3827.0,10364.0,2.0,0,
168420,1857.8,14.9,96.6,239.9,3827.0,10364.0,2.0,0,
168520,1859.7,12.5,96.5,239.8,3827.0,10364.0,2.0,0,
168720,1860.9,12.5,96.6,240.0,3827.0,10364.0,2.0,0,
168820,1860.8,12.4,96.6,240.6,3827.0,10364.0,2.0,0,
168920,1854.5,123.3,110.2,184.9,437.0,2236.0,5.0,1,
169020,1856.5,33.6,110.4,29.3,772.0,3703.0,4.0,1,
169120,1840.2,45.3,110.1,28.6,1267.0,5365.0,5.0,1,
169220,1884.0,131.4,102.9,28.6,3206.0,12545.0,4.0,1,
169320,1873.4,69.4,108.3,29.8,4095.0,16526.0,3.0,1,
169420,1901.5,52.6,98.1,36.3,3949.0,15091.0,3.0,1,
169520,1861.7,73.4,92.9,39.9,3777.0,10647.0,2.0,0,
169720,1862.4,9.7,92.9,155.5,3777.0,10647.0,2.0,0,
169820,1862.7,11.3,92.8,190.0,3777.0,10647.0,2.0,0,
169920,1862.7,10.7,92.8,238.8,3777.0,10647.0,2.0,0,
170020,1861.2,10.6,92.7,239.7,3777.0,10647.0,2.0,0,
170120,1855.9,10.9,92.8,239.6,3777.0,10647.0,2.0,0,
170220,1859.7,11.8,92.8,239.9,3777.0,10647.0,2.0,0,
170320,1859.5,10.0,92.8,239.8,3777.0,10647.0,2.0,0,
170420,1859.1,12.7,92.8,239.8,3777.0,10647.0,2.0,0,
170520,1871.0,282.0,104.3,157.3,335.0,1920.0,4.0,1,
170720,1832.7,35.4,126.6,29.6,861.0,3965.0,4.0,1,
170820,1887.4,44.4,125.7,29.6,1472.0,5824.0,3.0,1,
170920,1860.5,113.3,126.2,29.8,4095.0,16856.0,3.0,1,
171020,1860.5,63.1,125.8,35.9,3854.0,15041.0,3.0,1,
171120,1882.4,89.6,118.4,35.8,3585.0,9303.0,2.0,0,
171220,1862.4,15.1,118.4,39.1,3585.0,9303.0,2.0,0,
171320,1860.6,10.2,118.4,101.3,3585.0,9303.0,2.0,0,
171420,1859.6,11.4,118.5,104.5,3585.0,9303.0,2.0,0,
171520,1860.5,12.0,118.5,110.8,3585.0,9303.0,2.0,0,
171720,1856.3,13.3,118.5,239.6,3585.0,9303.0,2.0,0,
171820,1858.5,12.0,118.6,239.7,3585.0,9303.0,2.0,0,
171920,1859.2,12.3,118.6,239.3,3585.0,9303.0,2.0,0,
172020,1860.1,11.8,118.6,239.4,3585.0,9303.0,2.0,0,
172120,1859.5,75.5,118.5,240.3,3585.0,9303.0,2.0,0,
172220,1886.7,145.2,91.9,103.0,584.0,2844.0,5.0,1,
172320,1841.0,33.4,93.4,76.0,773.0,3437.0,4.0,1,
172420,1847.2,141.6,93.0,66.1,1002.0,4149.0,4.0,1,
172520,1873.0,46.0,103.2,45.5,2069.0,8111.0,5.0,1,
172720,1920.3,57.5,101.1,29.8,3990.0,15897.0,3.0,1,
172820,1823.7,15.6,97.7,34.2,4072.0,16069.0,3.0,1,
172920,1860.5,12.3,97.7,37.4,4072.0,16069.0,3.0,1,
173020,1860.0,12.7,97.7,91.2,4072.0,16069.0,3.0,1,
173120,1860.6,14.5,97.7,239.3,4072.0,16069.0,3.0,1,
173220,1856.9,12.0,97.7,240.1,4072.0,16069.0,3.0,1,
173320,1857.2,14.7,97.8,240.2,4072.0,16069.0,3.0,1,
173420,1857.6,12.1,97.8,239.8,4072.0,16069.0,3.0,1,
173520,1856.5,13.3,97.8,240.0,4072.0,16069.0,3.0,1,
173720,1857.9,13.3,97.8,239.9,4072.0,16069.0,3.0,1,
173820,1867.1,187.2,77.4,152.9,581.0,2893.0,4.0,1,
173920,1874.0,87.1,107.6,109.1,563.0,2804.0,4.0,1,
174020,1823.5,36.9,107.4,43.3,953.0,4316.0,4.0,1,
174120,1889.7,36.5,92.1,35.3,3085.0,11201.0,4.0,1,
174220,1872.9,207.1,114.2,30.2,3711.0,13612.0,3.0,1,
174320,1870.5,63.8,117.4,34.5,4063.0,15490.0,3.0,1,
174420,1866.4,16.9,117.4,35.0,4073.0,15582.0,3.0,1,
174520,1856.9,10.9,117.4,34.4,4073.0,15582.0,3.0,1,
174720,1861.2,11.5,117.5,116.2,4073.0,15582.0,3.0,1,
174820,1859.5,13.1,117.4,239.6,4073.0,15582.0,3.0,1,
174920,1854.3,12.4,117.4,239.5,4073.0,15582.0,3.0,1,
175020,1859.5,11.6,117.4,240.0,4073.0,15582.0,3.0,1,
175120,1859.9,11.8,117.3,240.0,4073.0,15582.0,3.0,1,
175220,1858.2,11.9,117.4,239.7,4073.0,15582.0,3.0,1,
175320,1858.3,9.8,117.3,240.2,4073.0,15582.0,3.0,1,
175420,1830.2,37.0,114.0,240.4,368.0,2011.0,6.0,1,
175520,1883.4,67.3,93.7,116.4,645.0,2959.0,5.0,1,
175720,1851.3,42.7,93.8,101.6,3847.0,16479.0,3.0,1,
175820,1887.1,333.0,103.5,76.5,3671.0,13320.0,2.0,0,
175920,1974.3,144.2,121.6,53.9,3894.0,11757.0,2.0,0,
176020,1806.7,33.7,130.8,100.4,4047.0,11688.0,2.0,0,
176120,1854.0,19.7,131.1,225.7,4047.0,11688.0,2.0,0,
176220,1859.2,11.8,131.1,228.7,4047.0,11688.0,2.0,0,
176320,1860.2,11.2,131.1,217.3,4047.0,11688.0,2.0,0,
176420,1859.6,10.9,131.1,104.2,4047.0,11688.0,2.0,0,
176520,1859.0,12.6,131.0,211.3,4047.0,11688.0,2.0,0,
176720,1859.3,13.0,131.1,239.8,4047.0,11688.0,2.0,0,
176820,1857.9,12.2,131.1,239.1,4047.0,11688.0,2.0,0,
176920,1859.6,11.8,131.1,239.4,4047.0,11688.0,2.0,0,
177020,1847.7,26.7,131.0,239.7,623.0,3200.0,5.0,1,
177120,1847.8,222.7,124.5,204.2,1071.0,4765.0,5.0,1,
177220,1876.2,202.7,156.2,37.9,2079.0,7408.0,2.0,0,
177320,1934.5,116.2,176.8,37.9,3688.0,12407.0,2.0,0,
177420,1783.5,249.0,191.8,70.0,4037.0,13931.0,2.0,0,
177520,1909.9,279.8,195.3,227.0,3809.0,12329.0,2.0,0,
177720,1856.6,22.4,193.7,40.8,3809.0,12329.0,2.0,0,
177820,1859.4,12.9,193.6,130.1,3809.0,12329.0,2.0,0,
177920,1859.7,12.3,193.6,240.9,3809.0,12329.0,2.0,0,
178020,1860.1,10.6,193.6,197.2,3809.0,12329.0,2.0,0,
178120,1860.7,12.3,193.6,230.7,3809.0,12329.0,2.0,0,
178220,1855.2,11.3,193.6,240.0,3809.0,12329.0,2.0,0,
178320,1858.3,10.7,193.6,240.2,3809.0,12329.0,2.0,0,
178420,1860.0,11.9,193.6,240.0,3809.0,12329.0,2.0,0,
178520,1859.9,12.3,193.6,240.3,3809.0,12329.0,2.0,0,
178720,1855.8,69.3,194.8,35.9,732.0,4155.0,5.0,1,
178820,1848.6,272.8,181.6,29.9,1789.0,5814.0,27.0,0,
178920,1886.9,136.6,181.1,87.9,2439.0,7318.0,2.0,0,
179020,1863.0,188.7,177.6,99.7,3995.0,13809.0,2.0,0,
179120,1885.4,349.0,179.8,226.0,3703.0,11445.0,2.0,0,
179220,1890.1,88.2,179.6,199.1,3643.0,10424.0,2.0,0,
179320,1858.1,25.9,179.7,51.3,3643.0,10424.0,2.0,0,
179420,1858.0,12.2,179.7,66.2,3643.0,10424.0,2.0,0,
179520,1861.5,9.4,179.7,183.7,3643.0,10424.0,2.0,0,
179720,1859.6,29.3,179.8,132.6,3643.0,10424.0,2.0,0,
179820,1858.9,15.3,179.8,232.8,3643.0,10424.0,2.0,0,
179920,1858.9,13.4,179.8,77.4,3643.0,10424.0,2.0,0,
180020,1862.5,12.8,179.9,74.5,3643.0,10424.0,2.0,0,
180120,1858.5,12.3,179.9,114.9,3643.0,10424.0,2.0,0,
180220,1867.2,280.9,197.2,80.2,1561.0,6943.0,4.0,1,
180320,1862.2,61.7,205.3,29.5,1961.0,8335.0,4.0,1,
180420,1847.8,55.1,201.3,29.3,3632.0,14424.0,4.0,1,
180520,1934.9,323.5,211.7,29.4,3648.0,13392.0,2.0,0,
180720,1856.7,398.4,218.3,57.6,3474.0,11107.0,2.0,0,
180820,1886.2,179.5,224.8,187.1,3502.0,9611.0,2.0,0,
180920,1864.4,19.8,224.8,99.6,3502.0,9611.0,2.0,0,
181020,1857.3,12.9,224.7,65.5,3502.0,9611.0,2.0,0,
181120,1860.4,11.2,224.7,39.8,3502.0,9611.0,2.0,0,
181220,1859.8,12.7,224.8,77.8,3502.0,9611.0,2.0,0,
181320,1860.4,11.0,224.8,239.6,3502.0,9611.0,2.0,0,
181420,1858.0,13.3,224.6,239.3,3502.0,9611.0,2.0,0,
181520,1860.0,11.2,224.6,184.9,3502.0,9611.0,2.0,0,
181720,1859.7,11.1,224.6,238.3,3502.0,9611.0,2.0,0,
181820,1859.6,97.6,224.6,240.4,3502.0,9611.0,2.0,0,
181920,1887.3,341.0,226.4,100.0,929.0,4426.0,4.0,1,
182020,1843.2,37.8,231.5,72.8,1395.0,5862.0,4.0,1,
182120,1845.6,168.3,214.8,39.7,3833.0,15874.0,4.0,1,
182220,1909.1,297.0,223.8,34.7,3627.0,13206.0,2.0,0,
182320,1878.6,131.2,223.8,36.8,3835.0,11914.0,2.0,0,
182420,1931.8,407.4,230.8,80.2,3179.0,10306.0,2.0,0,
182520,1819.7,31.5,232.9,130.4,3498.0,9630.0,2.0,0,
182720,1859.5,10.9,232.9,38.6,3498.0,9630.0,2.0,0,
182820,1862.4,10.1,232.9,39.0,3498.0,9630.0,2.0,0,
182920,1860.7,11.4,232.8,154.4,3498.0,9630.0,2.0,0,
183020,1859.7,10.5,232.8,239.7,3498.0,9630.0,2.0,0,
183120,1859.8,11.6,232.8,239.5,3498.0,9630.0,2.0,0,
183220,1860.6,10.7,232.8,239.9,3498.0,9630.0,2.0,0,
183320,1857.4,12.4,232.8,240.3,3498.0,9630.0,2.0,0,
183420,1859.0,11.3,232.8,240.5,3498.0,9630.0,2.0,0,
183520,1864.8,83.8,216.7,239.7,881.0,4157.0,4.0,1,
183720,1824.3,43.6,210.9,45.4,3302.0,13048.0,4.0,1,
183820,1944.7,262.9,194.6,36.6,4095.0,17599.0,3.0,1,
183920,1862.3,208.8,197.3,38.6,3696.0,11388.0,2.0,0,
184020,1878.9,157.2,159.9,93.1,3838.0,11413.0,2.0,0,
184120,1866.1,21.7,149.6,226.1,3936.0,11812.0,2.0,0,
184220,1858.0,14.1,149.6,250.1,3936.0,11812.0,2.0,0,
184320,1860.8,10.1,149.6,227.5,3936.0,11812.0,2.0,0,
184420,1862.9,13.0,149.6,203.5,3936.0,11812.0,2.0,0,
184520,1860.3,11.4,149.6,131.9,3936.0,11812.0,2.0,0,
184720,1860.3,12.4,149.7,231.7,3936.0,11812.0,2.0,0,
184820,1858.4,10.4,149.7,148.5,3936.0,11812.0,2.0,0,
184920,1860.7,11.3,149.7,239.4,3936.0,11812.0,2.0,0,
185020,1859.1,11.1,149.7,240.3,3936.0,11812.0,2.0,0,
185120,1829.6,32.6,149.8,240.0,775.0,3635.0,5.0,1,
185220,1886.5,182.2,151.3,71.5,1038.0,5218.0,4.0,1,
185320,1863.9,98.1,161.0,40.4,1834.0,7831.0,3.0,1,
185420,1860.3,55.9,161.6,40.8,3941.0,16679.0,3.0,1,
185520,1880.8,172.9,131.0,38.9,4095.0,16241.0,3.0,1,
185720,1829.9,21.3,97.0,35.4,4095.0,15643.0,3.0,1,
185820,1858.8,10.5,96.8,29.4,4095.0,15643.0,3.0,1,
185920,1860.0,11.7,96.8,28.6,4095.0,15643.0,3.0,1,
186020,1860.9,11.1,96.9,45.7,4095.0,15643.0,3.0,1,
186120,1862.1,13.0,96.9,239.7,4095.0,15643.0,3.0,1,
186220,1859.6,12.4,96.9,239.7,4095.0,15643.0,3.0,1,
186320,1859.6,10.3,96.9,91.1,4095.0,15643.0,3.0,1,
186420,1858.7,13.5,96.9,77.7,4095.0,15643.0,3.0,1,
186520,1860.3,11.7,96.9,200.0,4095.0,15643.0,3.0,1,
186720,1848.9,23.1,96.7,239.5,800.0,4035.0,5.0,1,
186820,1848.6,58.0,79.9,237.6,1116.0,5811.0,5.0,1,
186920,1864.1,48.8,68.5,50.6,2010.0,8472.0,5.0,1,
187020,1941.4,91.2,73.7,30.0,4047.0,16768.0,3.0,1,
187120,1799.9,70.6,73.2,34.4,4095.0,15865.0,3.0,1,
187220,1901.9,281.7,98.8,35.8,3650.0,11882.0,2.0,0,
187320,1912.7,63.8,113.0,71.0,3791.0,11321.0,2.0,0,
187420,1858.8,15.4,113.2,99.6,3791.0,11321.0,2.0,0,
187520,1861.9,12.9,113.1,164.7,3791.0,11321.0,2.0,0,
187720,1864.2,10.4,113.1,238.5,3791.0,11321.0,2.0,0,
187820,1860.0,17.2,113.1,239.7,3791.0,11321.0,2.0,0,
187920,1861.2,11.9,113.1,238.0,3791.0,11321.0,2.0,0,
188020,1860.4,10.8,113.0,83.0,3791.0,11321.0,2.0,0,
188120,1861.6,13.5,113.0,139.6,3791.0,11321.0,2.0,0,
188220,1860.9,12.3,113.0,239.9,3791.0,11321.0,2.0,0,
188320,1869.6,124.8,123.9,197.9,575.0,2660.0,5.0,1,
188420,1848.7,42.2,124.0,29.2,1009.0,4839.0,4.0,1,
188520,1828.1,59.5,116.5,28.8,1705.0,7559.0,5.0,1,
188720,1902.4,87.9,143.7,34.9,3972.0,14831.0,3.0,1,
188820,1856.2,82.1,131.9,37.6,4095.0,15709.0,3.0,1,
188920,1900.6,91.4,120.5,35.7,3668.0,11875.0,2.0,0,
189020,1860.0,16.8,120.5,50.6,3668.0,11875.0,2.0,0,
189120,1860.1,10.3,120.5,84.7,3668.0,11875.0,2.0,0,
189220,1861.4,12.7,120.5,81.1,3668.0,11875.0,2.0,0,
189320,1861.8,13.0,120.6,80.6,3668.0,11875.0,2.0,0,
189420,1860.1,14.5,120.7,239.5,3668.0,11875.0,2.0,0,
189520,1860.4,12.3,120.6,175.3,3668.0,11875.0,2.0,0,
189720,1860.3,12.7,120.7,237.3,3668.0,11875.0,2.0,0,
189820,1861.6,12.0,120.6,239.9,3668.0,11875.0,2.0,0,
189920,1858.3,50.9,114.4,240.0,608.0,3136.0,5.0,1,
190020,1891.6,124.3,113.0,67.2,939.0,4485.0,5.0,1,
190120,1850.8,39.6,116.2,29.3,1302.0,5797.0,4.0,1,
190220,1852.5,50.3,94.6,28.5,3136.0,12114.0,4.0,1,
190320,1906.7,349.1,127.5,28.5,4095.0,16886.0,2.0,0,
190420,1877.0,127.5,152.8,28.9,4095.0,15746.0,3.0,1,
190520,1871.7,55.2,145.9,29.3,4095.0,15371.0,3.0,1,
190720,1859.8,12.2,145.1,30.1,4095.0,15371.0,3.0,1,
190820,1860.7,10.0,145.2,36.4,4095.0,15371.0,3.0,1,
190920,1860.7,11.2,145.2,92.1,4095.0,15371.0,3.0,1,
191020,1861.5,11.0,145.1,136.5,4095.0,15371.0,3.0,1,
191120,1861.3,9.6,145.0,239.1,4095.0,15371.0,3.0,1,
191220,1859.6,12.0,145.0,239.5,4095.0,15371.0,3.0,1,
191320,1859.9,11.2,145.0,239.3,4095.0,15371.0,3.0,1,
191420,1858.5,11.8,145.1,238.4,4095.0,15371.0,3.0,1,
191520,1861.9,14.9,145.1,239.4,4095.0,15371.0,3.0,1,
191720,1896.4,60.1,147.6,90.3,2005.0,8897.0,5.0,1,
191820,1846.6,73.6,148.0,84.9,4055.0,17224.0,3.0,1,
191920,1878.6,78.0,123.2,78.7,4095.0,17230.0,3.0,1,
192020,1911.3,245.5,91.2,72.5,3557.0,11876.0,2.0,0,
192120,1955.5,109.2,119.1,56.4,3731.0,11375.0,2.0,0,
192220,1807.3,16.5,119.1,164.7,3781.0,11733.0,2.0,0,
192320,1857.9,13.0,119.0,228.9,3781.0,11733.0,2.0,0,
192420,1861.9,10.6,119.0,233.2,3781.0,11733.0,2.0,0,
192520,1861.2,10.9,119.0,226.9,3781.0,11733.0,2.0,0,
192720,1860.1,13.0,119.0,239.7,3781.0,11733.0,2.0,0,
192820,1859.3,11.5,119.0,239.7,3781.0,11733.0,2.0,0,
192920,1858.2,11.0,119.0,239.6,3781.0,11733.0,2.0,0,
193020,1859.4,12.9,119.0,239.8,3781.0,11733.0,2.0,0,
193120,1859.1,12.2,119.0,240.2,3781.0,11733.0,2.0,0,
193220,1844.7,25.7,118.9,240.2,853.0,4048.0,5.0,1,
193320,1844.8,48.1,108.8,204.6,968.0,4690.0,5.0,1,
193420,1869.7,197.8,119.5,38.3,1655.0,7032.0,5.0,1,
193520,1942.2,93.8,127.2,35.8,3953.0,16709.0,3.0,1,
193720,1914.8,256.0,114.3,35.2,3569.0,11829.0,2.0,0,
193820,1888.7,28.4,112.4,51.5,3675.0,11022.0,2.0,0,
193920,1858.5,13.4,112.3,158.8,3675.0,11022.0,2.0,0,
194020,1860.8,9.2,112.3,228.8,3675.0,11022.0,2.0,0,
194120,1861.9,9.2,112.3,276.4,3675.0,11022.0,2.0,0,
194220,1859.7,10.8,112.3,240.1,3675.0,11022.0,2.0,0,
194320,1860.2,11.0,112.3,239.9,3675.0,11022.0,2.0,0,
194420,1860.4,10.1,112.3,239.5,3675.0,11022.0,2.0,0,
194520,1859.4,13.2,112.3,238.7,3675.0,11022.0,2.0,0,
194720,1861.5,10.7,112.2,240.2,3675.0,11022.0,2.0,0,
194820,1857.1,93.2,138.7,35.0,802.0,3738.0,5.0,1,
194920,1870.3,31.9,138.1,29.2,1459.0,6283.0,5.0,1,
195020,1834.1,242.2,138.6,29.2,3232.0,11013.0,2.0,0,
195120,1913.5,246.9,157.1,34.4,3634.0,12790.0,2.0,0,
195220,1894.3,186.3,173.0,82.4,3687.0,12355.0,2.0,0,
195320,1902.0,437.7,207.0,188.4,3479.0,11889.0,2.0,0,
195420,1847.9,56.9,212.8,167.3,3560.0,10796.0,2.0,0,
195520,1856.7,16.3,212.8,47.4,3560.0,10796.0,2.0,0,
195720,1860.8,10.5,212.8,37.3,3560.0,10796.0,2.0,0,
195820,1862.0,9.8,212.8,94.1,3560.0,10796.0,2.0,0,
195920,1860.9,12.0,212.8,240.0,3560.0,10796.0,2.0,0,
196020,1858.1,11.1,212.8,239.7,3560.0,10796.0,2.0,0,
196120,1860.6,12.0,212.8,239.4,3560.0,10796.0,2.0,0,
196220,1860.6,10.4,212.8,239.5,3560.0,10796.0,2.0,0,
196320,1860.7,13.5,212.8,239.9,3560.0,10796.0,2.0,0,
196420,1877.2,294.4,210.8,149.2,687.0,3323.0,4.0,1,
196520,1869.3,71.5,219.1,40.7,996.0,4844.0,5.0,1,
196720,1928.4,359.8,212.4,30.2,3481.0,12359.0,2.0,0,
196820,1851.7,236.2,215.7,34.7,3613.0,12217.0,2.0,0,
196920,1877.3,202.2,203.7,38.4,3844.0,12117.0,2.0,0,
197020,1880.5,84.6,201.4,139.0,3491.0,10470.0,2.0,0,
197120,1858.6,13.8,201.3,195.6,3491.0,10470.0,2.0,0,
197220,1859.3,12.2,201.3,125.0,3491.0,10470.0,2.0,0,
197320,1859.0,10.6,201.3,83.4,3491.0,10470.0,2.0,0,
197420,1859.5,12.0,201.4,88.8,3491.0,10470.0,2.0,0,
197520,1860.7,13.8,201.4,239.7,3491.0,10470.0,2.0,0,
197720,1859.0,11.0,201.4,239.8,3491.0,10470.0,2.0,0,
197820,1859.5,11.0,201.4,240.0,3491.0,10470.0,2.0,0,
197920,1859.9,12.4,201.4,240.0,3491.0,10470.0,2.0,0,
198020,1857.1,37.9,200.0,240.1,775.0,4123.0,5.0,1,
198120,1907.7,209.4,180.1,102.1,1844.0,8107.0,5.0,1,
198220,1831.0,53.5,186.0,37.0,3779.0,14976.0,3.0,1,
198320,1858.9,84.3,177.3,35.0,4095.0,16059.0,3.0,1,
198420,1902.6,230.9,158.7,30.2,3214.0,9617.0,2.0,0,
198520,1875.3,427.0,176.4,39.2,3058.0,8705.0,2.0,0,
198720,1857.6,16.1,181.7,138.7,3058.0,8705.0,2.0,0,
198820,1857.8,9.8,181.7,100.8,3058.0,8705.0,2.0,0,
198920,1859.5,9.8,181.7,99.4,3058.0,8705.0,2.0,0,
199020,1860.6,10.9,181.7,94.5,3058.0,8705.0,2.0,0,
199120,1860.9,10.8,181.7,240.2,3058.0,8705.0,2.0,0,
199220,1860.3,11.8,181.6,240.0,3058.0,8705.0,2.0,0,
199320,1862.7,11.6,181.6,240.0,3058.0,8705.0,2.0,0,
199420,1861.1,14.3,181.5,240.1,3058.0,8705.0,2.0,0,
199520,1859.6,11.6,181.6,240.2,3058.0,8705.0,2.0,0,
199720,1848.9,159.1,181.4,239.6,3317.0,14192.0,4.0,1,
199820,1904.2,207.1,187.8,99.5,3154.0,11035.0,2.0,0,
199920,1868.7,157.8,205.4,154.1,3252.0,10579.0,2.0,0,
200020,1889.2,310.2,234.9,228.4,3019.0,9729.0,2.0,0,
200120,1866.1,224.5,231.1,196.1,3083.0,9373.0,2.0,0,
200220,1884.7,72.1,203.2,83.7,3373.0,9807.0,2.0,0,
200320,1866.3,13.6,202.9,94.0,3373.0,9807.0,2.0,0,
200420,1859.0,11.1,202.9,252.4,3373.0,9807.0,2.0,0,
200520,1861.0,11.5,202.9,242.6,3373.0,9807.0,2.0,0,
200720,1860.0,12.4,202.9,239.6,3373.0,9807.0,2.0,0,
200820,1860.6,12.6,202.9,240.1,3373.0,9807.0,2.0,0,
200920,1859.4,12.9,202.9,240.0,3373.0,9807.0,2.0,0,
201020,1859.6,11.8,203.0,240.0,3373.0,9807.0,2.0,0,
201120,1857.8,12.3,203.0,240.0,3373.0,9807.0,2.0,0,
201220,1861.8,16.4,203.0,239.9,3373.0,9807.0,2.0,0,
201320,1838.0,38.9,202.9,239.2,2435.0,9879.0,4.0,1,
201420,1893.5,229.0,199.1,99.2,3059.0,10177.0,2.0,0,
201520,1875.1,181.4,202.4,72.1,3433.0,10715.0,2.0,0,
201720,1855.1,323.8,214.9,194.9,2960.0,9274.0,2.0,0,
201820,1946.6,193.6,214.4,132.8,3170.0,9542.0,2.0,0,
201920,1820.0,21.9,214.8,100.5,3243.0,9866.0,2.0,0,
202020,1856.5,13.9,214.9,189.3,3243.0,9866.0,2.0,0,
202120,1859.6,11.5,214.9,269.9,3243.0,9866.0,2.0,0,
202220,1858.0,11.3,214.9,270.3,3243.0,9866.0,2.0,0,
202320,1857.2,12.4,214.9,240.4,3243.0,9866.0,2.0,0,
202420,1860.5,12.8,214.9,240.2,3243.0,9866.0,2.0,0,
202520,1859.1,11.9,215.0,240.1,3243.0,9866.0,2.0,0,
202720,1861.1,11.9,214.9,240.1,3243.0,9866.0,2.0,0,
202820,1861.0,30.0,214.9,240.0,3243.0,9866.0,2.0,0,
202920,1865.7,61.6,222.6,35.4,1218.0,5756.0,4.0,1,
203020,1840.8,30.3,217.4,29.2,1888.0,8982.0,5.0,1,
203120,1867.8,183.6,203.9,29.3,3372.0,13260.0,3.0,1,
203220,1950.8,144.7,190.2,29.9,3797.0,15785.0,3.0,1,
203320,1797.2,74.8,142.1,30.1,4002.0,15021.0,3.0,1,
203420,1873.8,125.7,120.3,29.8,4020.0,14785.0,3.0,1,
203520,1884.8,24.5,114.8,29.9,3761.0,13525.0,3.0,1,
203720,1858.7,10.8,114.8,36.0,3761.0,13525.0,3.0,1,
203820,1858.9,11.6,114.8,93.1,3761.0,13525.0,3.0,1,
203920,1861.1,14.8,114.7,240.1,3761.0,13525.0,3.0,1,
204020,1860.7,13.7,114.7,240.1,3761.0,13525.0,3.0,1,
204120,1860.3,15.6,114.7,240.3,3761.0,13525.0,3.0,1,
204220,1861.2,11.9,114.6,239.9,3761.0,13525.0,3.0,1,
204320,1859.9,11.7,114.6,239.4,3761.0,13525.0,3.0,1,
204420,1859.2,12.9,114.7,240.0,3761.0,13525.0,3.0,1,
204520,1871.9,207.8,122.4,156.8,2889.0,11150.0,2.0,0,
204720,1802.7,323.5,182.6,220.1,3344.0,10571.0,2.0,0,
204820,1896.1,397.7,187.8,225.9,2587.0,8384.0,2.0,0,
204920,1877.8,424.4,222.0,94.5,3392.0,10603.0,2.0,0,
205020,1849.5,297.7,252.4,101.7,3485.0,9837.0,2.0,0,
205120,1868.9,45.5,257.8,227.5,3020.0,8392.0,2.0,0,
205220,1858.0,13.8,257.8,218.5,3020.0,8392.0,2.0,0,
205320,1863.0,13.0,257.7,158.0,3020.0,8392.0,2.0,0,
205420,1861.4,10.5,257.7,130.0,3020.0,8392.0,2.0,0,
205520,1858.9,11.4,257.7,151.9,3020.0,8392.0,2.0,0,
205720,1860.0,13.0,257.7,240.2,3020.0,8392.0,2.0,0,
205820,1859.6,12.9,257.7,240.3,3020.0,8392.0,2.0,0,
205920,1859.2,14.2,257.8,240.2,3020.0,8392.0,2.0,0,
206020,1859.0,13.2,257.8,240.3,3020.0,8392.0,2.0,0,
206120,1844.9,183.4,253.6,237.9,2432.0,9697.0,2.0,0,
206220,1900.7,159.2,251.5,125.3,2943.0,10504.0,2.0,0,
206320,1868.9,195.7,239.8,164.3,3379.0,11828.0,2.0,0,
206420,1892.2,352.7,256.5,234.2,3120.0,11308.0,2.0,0,
206520,1869.2,183.4,232.8,195.6,3123.0,10419.0,2.0,0,
206720,1869.5,96.4,230.5,132.1,3237.0,10007.0,2.0,0,
206820,1857.7,14.7,230.5,164.1,3237.0,10007.0,2.0,0,
206920,1858.0,12.3,230.6,94.1,3237.0,10007.0,2.0,0,
207020,1859.7,11.9,230.6,85.9,3237.0,10007.0,2.0,0,
207120,1860.9,10.9,230.6,89.5,3237.0,10007.0,2.0,0,
207220,1861.5,10.2,230.6,240.2,3237.0,10007.0,2.0,0,
207320,1859.6,12.5,230.5,240.0,3237.0,10007.0,2.0,0,
207420,1860.0,12.9,230.5,240.1,3237.0,10007.0,2.0,0,
207520,1859.6,11.4,230.5,240.1,3237.0,10007.0,2.0,0,
207720,1858.2,29.2,230.4,240.1,390.0,2249.0,6.0,1,
207820,1870.9,46.6,220.6,238.9,746.0,3328.0,4.0,1,
207920,1864.8,57.4,208.6,44.4,1080.0,3953.0,4.0,1,
208020,1840.5,33.4,175.8,35.9,3020.0,11731.0,3.0,1,
208120,1861.4,339.6,169.4,34.9,3216.0,12002.0,2.0,0,
208220,1894.4,230.4,178.1,36.0,3238.0,11400.0,2.0,0,
208320,1884.7,62.4,142.7,88.5,3396.0,11817.0,2.0,0,
208420,1860.0,14.0,142.7,216.8,3396.0,11817.0,2.0,0,
208520,1860.3,11.8,142.7,229.6,3396.0,11817.0,2.0,0,
208720,1859.2,12.1,142.7,227.4,3396.0,11817.0,2.0,0,
208820,1859.0,12.7,142.8,240.0,3396.0,11817.0,2.0,0,
208920,1859.5,13.5,142.8,240.1,3396.0,11817.0,2.0,0,
209020,1860.9,12.1,142.8,239.9,3396.0,11817.0,2.0,0,
209120,1857.9,12.6,142.8,240.0,3396.0,11817.0,2.0,0,
209220,1861.1,10.4,142.8,240.0,3396.0,11817.0,2.0,0,
209320,1857.1,19.0,142.9,239.8,1550.0,7089.0,5.0,1,
209420,1829.3,34.5,142.0,239.3,1976.0,8270.0,5.0,1,
209520,1873.8,225.3,149.9,41.4,1880.0,6887.0,2.0,0,
209720,1908.7,181.6,185.2,136.2,3465.0,13330.0,2.0,0,
209820,1830.3,382.3,194.6,259.1,3300.0,12306.0,2.0,0,
209920,1922.2,171.4,198.1,130.9,3354.0,11701.0,2.0,0,
210020,1874.9,18.5,198.1,37.6,3354.0,11701.0,2.0,0,
210120,1861.9,11.9,198.0,39.7,3354.0,11701.0,2.0,0,
210220,1859.5,11.8,198.0,225.8,3354.0,11701.0,2.0,0,
210320,1858.7,12.3,198.0,251.0,3354.0,11701.0,2.0,0,
210420,1859.2,11.5,198.0,239.7,3354.0,11701.0,2.0,0,
210520,1859.1,12.2,198.0,239.8,3354.0,11701.0,2.0,0,
210720,1859.4,12.4,198.0,240.0,3354.0,11701.0,2.0,0,
210820,1861.7,11.6,198.0,239.9,3354.0,11701.0,2.0,0,
210920,1859.8,229.8,198.0,239.8,3354.0,11701.0,2.0,0,
211020,1849.4,62.5,205.0,29.4,721.0,3540.0,4.0,1,
211120,1851.8,32.5,195.0,28.5,1199.0,4870.0,5.0,1,
211220,1854.7,31.4,182.5,28.7,2171.0,9169.0,3.0,1,
211320,1890.4,138.9,172.4,29.5,3941.0,17166.0,2.0,0,
211420,1882.2,103.5,130.3,34.3,3921.0,16660.0,3.0,1,
211520,1924.5,280.7,100.6,30.2,4023.0,16047.0,3.0,1,
211720,1860.5,10.9,106.5,53.1,4023.0,16047.0,3.0,1,
211820,1861.6,11.5,106.5,53.1,4023.0,16047.0,3.0,1,
211920,1859.3,10.5,106.5,53.0,4023.0,16047.0,3.0,1,
212020,1859.9,10.7,106.5,236.1,4023.0,16047.0,3.0,1,
212120,1858.6,11.9,106.5,240.6,4023.0,16047.0,3.0,1,
212220,1859.1,11.7,106.5,240.5,4023.0,16047.0,3.0,1,
212320,1858.3,11.7,106.5,240.3,4023.0,16047.0,3.0,1,
212420,1860.1,12.9,106.5,240.0,4023.0,16047.0,3.0,1,
212520,1856.9,12.4,106.6,239.9,4023.0,16047.0,3.0,1,
212720,1858.1,39.3,127.7,41.4,462.0,2536.0,13.0,1,
212820,1837.1,22.3,127.8,42.9,1053.0,4378.0,4.0,1,
212920,1933.8,64.4,120.1,44.7,2953.0,11453.0,3.0,1,
213020,1819.5,168.2,137.9,38.4,3969.0,17339.0,2.0,0,
213120,1881.8,106.1,138.2,35.0,3989.0,17132.0,3.0,1,
213220,1880.7,19.4,123.8,30.2,3985.0,16489.0,3.0,1,
213320,1861.3,12.2,123.8,29.9,3985.0,16489.0,3.0,1,
213420,1860.8,12.5,123.8,29.9,3985.0,16489.0,3.0,1,
213520,1859.0,12.0,123.8,112.6,3985.0,16489.0,3.0,1,
213720,1860.4,10.6,123.8,240.1,3985.0,16489.0,3.0,1,
213820,1860.2,11.4,123.8,240.3,3985.0,16489.0,3.0,1,
213920,1860.2,11.6,123.7,240.3,3985.0,16489.0,3.0,1,
214020,1858.3,10.1,123.8,240.2,3985.0,16489.0,3.0,1,
214120,1859.7,10.9,123.7,240.4,3985.0,16489.0,3.0,1,
214220,1837.8,52.4,89.4,240.4,493.0,2955.0,5.0,1,
214320,1889.7,238.4,106.6,39.7,663.0,3688.0,12.0,1,
214420,1855.0,35.2,112.2,35.2,751.0,3331.0,4.0,1,
214520,1838.4,21.9,111.2,34.5,1701.0,7541.0,4.0,1,
214720,1903.1,113.9,99.6,30.0,3768.0,15292.0,3.0,1,
214820,1869.0,27.6,98.9,30.0,4022.0,16838.0,3.0,1,
214920,1859.5,11.3,98.9,30.1,4022.0,16838.0,3.0,1,
215020,1861.7,12.4,98.9,29.3,4022.0,16838.0,3.0,1,
215120,1860.6,10.6,98.8,39.0,4022.0,16838.0,3.0,1,
215220,1859.1,10.2,98.8,239.7,4022.0,16838.0,3.0,1,
215320,1859.1,12.7,98.9,239.9,4022.0,16838.0,3.0,1,
215420,1860.6,11.4,98.9,240.0,4022.0,16838.0,3.0,1,
215520,1860.0,10.5,98.9,239.9,4022.0,16838.0,3.0,1,
215720,1861.3,9.8,98.8,240.1,4022.0,16838.0,3.0,1,
215820,1849.2,36.3,98.8,240.0,448.0,2609.0,13.0,1,
215920,1847.3,98.6,83.6,221.3,702.0,3326.0,14.0,1,
216020,1880.3,156.7,73.1,65.7,678.0,3466.0,5.0,1,
216120,1843.8,28.8,79.0,35.9,979.0,3989.0,4.0,1,
216220,1856.8,39.8,67.2,37.5,2986.0,11917.0,4.0,1,
216320,1864.8,282.9,96.6,38.3,3280.0,11978.0,2.0,0,
216420,1902.7,63.1,110.8,87.8,3457.0,13341.0,2.0,0,
216520,1860.7,14.1,110.8,157.6,3457.0,13341.0,2.0,0,
216720,1859.6,12.2,110.8,251.6,3457.0,13341.0,2.0,0,
216820,1859.0,12.0,110.8,240.1,3457.0,13341.0,2.0,0,
216920,1859.7,11.1,110.8,240.2,3457.0,13341.0,2.0,0,
217020,1859.1,13.2,110.8,240.1,3457.0,13341.0,2.0,0,
217120,1861.3,13.5,110.8,239.9,3457.0,13341.0,2.0,0,
217220,1859.2,12.3,110.8,240.1,3457.0,13341.0,2.0,0,
217320,1859.0,11.4,110.9,240.4,3457.0,13341.0,2.0,0,
217420,1869.8,82.9,117.4,239.5,519.0,3198.0,13.0,1,
217520,1828.6,55.2,116.9,29.1,608.0,3185.0,13.0,1,
217720,1890.3,140.2,115.0,29.3,1294.0,4945.0,4.0,1,
217820,1851.8,42.3,116.3,34.9,2600.0,10521.0,4.0,1,
217920,1849.6,92.5,102.0,35.0,3897.0,16301.0,3.0,1,
218020,1908.3,149.9,117.4,35.1,3325.0,12325.0,2.0,0,
218120,1860.0,17.5,117.4,41.9,3325.0,12325.0,2.0,0,
218220,1861.3,10.8,117.4,43.9,3325.0,12325.0,2.0,0,
218320,1861.2,11.5,117.4,42.7,3325.0,12325.0,2.0,0,
218420,1858.3,11.4,117.4,71.1,3325.0,12325.0,2.0,0,
218520,1860.6,11.3,117.4,239.8,3325.0,12325.0,2.0,0,
218720,1860.9,12.0,117.4,240.0,3325.0,12325.0,2.0,0,
218820,1859.1,11.4,117.4,240.0,3325.0,12325.0,2.0,0,
218920,1858.6,10.6,117.4,240.1,3325.0,12325.0,2.0,0,
219020,1866.2,138.2,117.9,239.6,414.0,2842.0,12.0,1,
219120,1885.2,109.8,134.2,30.0,613.0,3282.0,12.0,1,
219220,1843.4,37.8,134.2,29.6,546.0,3159.0,13.0,1,
219320,1835.0,110.1,134.7,29.5,844.0,3644.0,4.0,1,
219420,1927.5,64.9,132.2,29.6,1902.0,8061.0,5.0,1,
219520,1811.4,59.4,132.2,30.0,3678.0,15409.0,3.0,1,
219720,1874.4,14.0,92.0,36.8,3678.0,15409.0,3.0,1,
219820,1862.3,10.3,92.0,35.5,3678.0,15409.0,3.0,1,
219920,1859.7,10.2,92.0,35.7,3678.0,15409.0,3.0,1,
220020,1861.1,10.9,92.0,239.3,3678.0,15409.0,3.0,1,
220120,1859.4,12.5,92.0,240.3,3678.0,15409.0,3.0,1,
220220,1859.3,10.8,92.0,240.1,3678.0,15409.0,3.0,1,
220320,1859.4,11.4,92.1,240.1,3678.0,15409.0,3.0,1,
220420,1862.4,10.1,92.0,240.1,3678.0,15409.0,3.0,1,
220520,1860.3,12.1,92.0,240.2,3678.0,15409.0,3.0,1,
220720,1879.4,252.2,66.8,81.2,590.0,3317.0,14.0,1,
220820,1856.9,57.8,85.6,38.0,594.0,3233.0,13.0,1,
220920,1844.3,23.6,85.4,35.6,817.0,3654.0,4.0,1,
221020,1870.1,137.7,102.9,30.1,2207.0,9304.0,4.0,1,
221120,1888.3,130.7,112.1,29.8,3866.0,16922.0,3.0,1,
221220,1895.9,106.5,113.1,38.3,3935.0,17249.0,3.0,1,
221320,1836.6,17.2,113.3,37.7,4000.0,16979.0,3.0,1,
221420,1861.5,12.9,113.3,35.1,4000.0,16979.0,3.0,1,
221520,1861.9,12.0,113.3,30.0,4000.0,16979.0,3.0,1,
221720,1858.7,11.3,113.4,240.0,4000.0,16979.0,3.0,1,
221820,1859.0,10.6,113.4,240.2,4000.0,16979.0,3.0,1,
221920,1862.3,11.8,113.3,240.2,4000.0,16979.0,3.0,1,
222020,1860.7,11.7,113.3,240.0,4000.0,16979.0,3.0,1,
222120,1859.3,12.5,113.3,239.9,4000.0,16979.0,3.0,1,
222220,1859.5,12.4,113.4,240.2,4000.0,16979.0,3.0,1,
222320,1863.7,166.6,108.5,239.8,589.0,3304.0,11.0,1,
222420,1886.4,89.2,111.9,37.3,484.0,2594.0,13.0,1,
222520,1843.4,28.0,111.7,36.0,537.0,2605.0,4.0,1,
222720,1871.0,113.6,93.5,36.8,2969.0,12038.0,4.0,1,
222820,1866.1,98.7,104.5,35.1,3888.0,16338.0,3.0,1,
222920,1877.7,19.2,103.9,35.4,3922.0,16283.0,3.0,1,
223020,1860.6,11.6,103.9,35.0,3922.0,16283.0,3.0,1,
223120,1861.5,10.3,103.9,30.0,3922.0,16283.0,3.0,1,
223220,1859.7,11.2,103.9,38.1,3922.0,16283.0,3.0,1,
223320,1860.0,10.9,103.9,239.7,3922.0,16283.0,3.0,1,
223420,1859.8,12.9,103.9,239.9,3922.0,16283.0,3.0,1,
223520,1858.7,11.5,104.0,240.2,3922.0,16283.0,3.0,1,
223720,1859.9,11.3,104.0,240.0,3922.0,16283.0,3.0,1,
223820,1859.1,11.9,104.0,240.0,3922.0,16283.0,3.0,1,
223920,1852.7,51.3,103.9,240.0,444.0,2589.0,14.0,1,
224020,1849.1,49.1,81.9,117.9,660.0,3350.0,13.0,1,
224120,1885.4,70.1,81.4,65.7,695.0,3073.0,4.0,1,
224220,1847.6,27.1,81.5,44.0,1285.0,5758.0,4.0,1,
224320,1843.3,235.4,65.3,35.7,2978.0,11826.0,4.0,1,
224420,1894.3,297.5,107.4,35.6,3289.0,12138.0,2.0,0,
224520,1892.3,42.4,118.7,39.9,3441.0,12618.0,2.0,0,
224720,1862.4,12.0,118.7,158.8,3441.0,12618.0,2.0,0,
224820,1860.5,11.3,118.7,232.4,3441.0,12618.0,2.0,0,
224920,1862.3,12.1,118.6,239.9,3441.0,12618.0,2.0,0,
225020,1860.0,10.6,118.6,239.9,3441.0,12618.0,2.0,0,
225120,1859.5,11.4,118.6,240.4,3441.0,12618.0,2.0,0,
225220,1860.2,12.0,118.6,240.5,3441.0,12618.0,2.0,0,
225320,1859.4,11.6,118.6,240.1,3441.0,12618.0,2.0,0,
225420,1859.7,12.4,118.6,240.1,3441.0,12618.0,2.0,0,
225520,1860.5,63.3,121.0,239.8,594.0,3236.0,10.0,1,
225720,1848.2,178.0,124.6,29.2,582.0,3083.0,13.0,1,
225820,1877.7,218.3,148.8,67.2,887.0,3804.0,4.0,1,
225920,1882.2,40.5,150.8,39.8,2970.0,12892.0,4.0,1,
226020,1813.7,82.1,121.1,35.5,3897.0,16204.0,3.0,1,
226120,1905.3,55.1,108.7,34.4,3735.0,14674.0,2.0,0,
226220,1860.3,12.8,108.7,34.3,3735.0,14674.0,2.0,0,
226320,1863.3,10.5,108.7,37.2,3735.0,14674.0,2.0,0,
226420,1860.5,13.0,108.7,38.9,3735.0,14674.0,2.0,0,
226520,1857.8,13.5,108.8,201.1,3735.0,14674.0,2.0,0,
226720,1860.3,13.1,108.9,240.0,3735.0,14674.0,2.0,0,
226820,1858.8,11.0,108.9,239.9,3735.0,14674.0,2.0,0,
226920,1862.0,11.4,108.9,239.9,3735.0,14674.0,2.0,0,
227020,1859.5,12.5,108.9,239.8,3735.0,14674.0,2.0,0,
227120,1872.7,314.2,110.7,239.5,3735.0,14674.0,2.0,0,
227220,1859.8,98.6,138.0,43.0,664.0,3442.0,12.0,1,
227320,1844.7,53.4,136.3,37.2,494.0,2978.0,13.0,1,
227420,1857.1,88.5,112.6,35.4,1071.0,4180.0,4.0,1,
227520,1890.8,126.7,111.6,30.2,1318.0,5911.0,5.0,1,
227720,1854.2,37.9,107.8,26.1,3603.0,14998.0,3.0,1,
227820,1861.1,13.0,107.8,26.5,3603.0,14998.0,3.0,1,
227920,1861.4,11.5,107.8,30.1,3603.0,14998.0,3.0,1,
228020,1859.8,12.4,107.8,131.1,3603.0,14998.0,3.0,1,
228120,1859.2,11.6,107.8,240.2,3603.0,14998.0,3.0,1,
228220,1858.0,12.4,107.8,240.3,3603.0,14998.0,3.0,1,
228320,1859.1,13.5,107.8,240.2,3603.0,14998.0,3.0,1,
228420,1860.2,13.9,107.8,240.1,3603.0,14998.0,3.0,1,
228520,1860.1,12.0,107.8,240.1,3603.0,14998.0,3.0,1,
228720,1846.0,26.5,106.0,240.0,577.0,3361.0,14.0,1,
228820,1886.5,161.9,81.2,190.2,710.0,3569.0,12.0,1,
228920,1871.3,74.8,92.3,37.7,481.0,2993.0,4.0,1,
229020,1822.7,28.3,91.7,36.8,1076.0,4283.0,4.0,1,
229120,1915.9,98.3,86.7,36.5,2343.0,9223.0,5.0,1,
229220,1840.7,236.7,125.5,34.6,3634.0,14833.0,3.0,1,
229320,1868.4,88.7,127.5,34.2,3904.0,16360.0,3.0,1,
229420,1875.6,15.2,127.5,30.2,3904.0,16360.0,3.0,1,
229520,1859.8,11.6,127.5,30.1,3904.0,16360.0,3.0,1,
229720,1860.9,11.7,127.5,212.2,3904.0,16360.0,3.0,1,
229820,1858.8,11.5,127.5,240.1,3904.0,16360.0,3.0,1,
229920,1860.2,12.6,127.5,240.3,3904.0,16360.0,3.0,1,
230020,1861.1,13.4,127.5,240.1,3904.0,16360.0,3.0,1,
230120,1859.1,12.2,127.5,239.9,3904.0,16360.0,3.0,1,
230220,1859.0,11.5,127.5,239.9,3904.0,16360.0,3.0,1,
230320,1860.4,15.5,127.6,240.0,3904.0,16360.0,3.0,1,
230420,1826.3,57.6,127.5,239.8,648.0,3202.0,13.0,1,
230520,1885.6,47.5,106.6,132.4,607.0,3451.0,4.0,1,
230720,1841.0,32.7,114.5,40.7,3311.0,14111.0,4.0,1,
230820,1880.3,322.3,96.1,40.7,3254.0,12239.0,2.0,0,
230920,1932.2,177.3,121.9,55.7,3419.0,11500.0,2.0,0,
231020,1843.9,20.6,122.0,108.4,3429.0,11333.0,2.0,0,
231120,1859.6,11.5,122.0,225.7,3429.0,11333.0,2.0,0,
231220,1860.8,12.1,122.0,233.3,3429.0,11333.0,2.0,0,
231320,1858.9,12.2,122.0,240.0,3429.0,11333.0,2.0,0,
231420,1861.0,12.2,122.0,239.9,3429.0,11333.0,2.0,0,
231520,1859.4,13.1,122.0,240.1,3429.0,11333.0,2.0,0,
231720,1860.4,12.0,122.0,240.1,3429.0,11333.0,2.0,0,
231820,1860.2,11.6,121.9,240.2,3429.0,11333.0,2.0,0,
231920,1859.6,13.3,122.0,239.9,3429.0,11333.0,2.0,0,
232020,1856.4,53.9,123.4,148.4,579.0,3068.0,13.0,1,
232120,1847.8,70.0,123.6,29.2,634.0,3346.0,13.0,1,
232220,1867.5,113.2,138.2,29.6,425.0,2454.0,3.0,1,
232320,1871.2,46.0,142.8,30.1,1006.0,4243.0,4.0,1,
232420,1835.1,25.7,137.7,35.7,2336.0,9134.0,4.0,1,
232520,1861.1,108.0,106.0,36.4,3605.0,14078.0,2.0,0,
232720,1858.9,13.0,97.9,35.0,3605.0,14078.0,2.0,0,
232820,1861.0,12.6,97.9,35.6,3605.0,14078.0,2.0,0,
232920,1861.0,11.1,97.9,38.4,3605.0,14078.0,2.0,0,
233020,1861.2,12.4,97.9,239.4,3605.0,14078.0,2.0,0,
233120,1858.5,11.3,97.9,239.9,3605.0,14078.0,2.0,0,
233220,1859.6,11.5,97.9,240.0,3605.0,14078.0,2.0,0,
233320,1862.2,14.0,97.9,240.1,3605.0,14078.0,2.0,0,
233420,1861.5,12.0,97.9,240.0,3605.0,14078.0,2.0,0,
233520,1858.1,12.5,97.9,239.9,3605.0,14078.0,2.0,0,
233720,1844.0,47.5,102.1,37.5,606.0,2923.0,13.0,1,
233820,1845.8,40.5,79.1,29.4,540.0,2678.0,5.0,1,
233920,1865.9,28.4,60.2,29.3,1343.0,4949.0,5.0,1,
234020,1873.6,34.0,60.8,29.8,2733.0,10335.0,4.0,1,
234120,1837.6,83.4,61.9,57.1,3800.0,15475.0,3.0,1,
234220,1890.8,27.6,53.1,74.0,3898.0,15606.0,3.0,1,
234320,1860.6,14.9,53.1,108.4,3898.0,15606.0,3.0,1,
234420,1859.2,12.6,53.1,106.1,3898.0,15606.0,3.0,1,
234520,1859.7,12.4,53.2,215.0,3898.0,15606.0,3.0,1,
234720,1860.6,14.7,53.1,240.1,3898.0,15606.0,3.0,1,
234820,1858.1,11.3,53.2,240.1,3898.0,15606.0,3.0,1,
234920,1860.6,12.3,53.2,240.1,3898.0,15606.0,3.0,1,
235020,1858.5,11.0,53.2,240.1,3898.0,15606.0,3.0,1,
235120,1859.9,12.7,53.1,240.1,3898.0,15606.0,3.0,1,
235220,1850.1,29.7,53.2,240.1,550.0,2636.0,6.0,1,
235320,1886.7,180.1,49.0,130.7,947.0,5098.0,5.0,1,
235420,1857.2,42.1,66.2,47.0,1237.0,5485.0,4.0,1,
235520,1827.4,44.7,64.8,41.6,2982.0,12391.0,4.0,1,
235720,1844.8,142.8,106.3,34.7,3831.0,15532.0,2.0,0,
235820,1887.4,40.6,106.9,35.2,3809.0,15356.0,3.0,1,
235920,1860.1,13.5,106.9,34.2,3809.0,15356.0,3.0,1,
236020,1861.7,10.8,106.9,29.9,3809.0,15356.0,3.0,1,
236120,1859.9,11.9,106.8,36.0,3809.0,15356.0,3.0,1,
236220,1860.0,14.3,106.8,239.5,3809.0,15356.0,3.0,1,
236320,1859.4,14.0,106.9,240.1,3809.0,15356.0,3.0,1,
236420,1859.5,13.4,106.8,240.0,3809.0,15356.0,3.0,1,
236520,1860.2,13.7,106.9,239.9,3809.0,15356.0,3.0,1,
236720,1860.2,12.0,106.8,240.1,3809.0,15356.0,3.0,1,
236820,1859.0,33.9,106.9,240.1,346.0,2525.0,5.0,1,
236920,1821.8,62.1,104.1,239.6,649.0,3552.0,14.0,1,
237020,1892.1,171.5,103.0,67.7,1123.0,4917.0,4.0,1,
237120,1854.8,41.6,112.2,37.0,1266.0,4998.0,4.0,1,
237220,1847.1,28.2,109.6,35.3,3098.0,13186.0,3.0,1,
237320,1878.3,326.8,104.2,34.4,3309.0,12853.0,2.0,0,
237420,1903.4,104.9,129.7,38.3,3339.0,11660.0,2.0,0,
237520,1861.7,16.5,129.6,91.7,3339.0,11660.0,2.0,0,
237720,1860.2,11.7,129.7,228.5,3339.0,11660.0,2.0,0,
237820,1860.2,12.4,129.6,237.1,3339.0,11660.0,2.0,0,
237920,1858.2,12.9,129.7,240.5,3339.0,11660.0,2.0,0,
238020,1858.7,12.7,129.7,240.4,3339.0,11660.0,2.0,0,
238120,1860.0,12.9,129.7,240.1,3339.0,11660.0,2.0,0,
238220,1860.9,12.8,129.7,240.0,3339.0,11660.0,2.0,0,
238320,1860.1,11.1,129.7,240.0,3339.0,11660.0,2.0,0,
238420,1861.5,117.0,133.3,239.8,376.0,2570.0,5.0,1,
238520,1857.9,52.5,134.8,30.2,668.0,3608.0,5.0,1,
238720,1871.4,93.0,124.4,29.5,1015.0,5270.0,4.0,1,
238820,1919.7,76.7,133.5,34.8,3030.0,12615.0,3.0,1,
238920,1785.9,96.3,124.8,36.3,3833.0,16284.0,3.0,1,
239020,1885.6,197.4,103.8,36.0,3232.0,11640.0,2.0,0,
239120,1875.5,18.8,103.5,38.9,3232.0,11640.0,2.0,0,
239220,1861.8,11.7,103.5,47.8,3232.0,11640.0,2.0,0,
239320,1861.2,13.6,103.5,46.7,3232.0,11640.0,2.0,0,
239420,1859.6,12.5,103.5,48.9,3232.0,11640.0,2.0,0,
239520,1859.8,12.2,103.5,239.4,3232.0,11640.0,2.0,0,
239720,1858.7,12.2,103.5,240.2,3232.0,11640.0,2.0,0,
239820,1860.0,11.5,103.5,240.2,3232.0,11640.0,2.0,0,
239920,1859.9,11.7,103.5,240.0,3232.0,11640.0,2.0,0,
240020,1860.3,82.1,103.5,240.0,3232.0,11640.0,2.0,0,
240120,1882.3,334.4,120.1,133.9,466.0,2732.0,14.0,1,
240220,1872.7,65.4,132.8,79.7,707.0,3931.0,5.0,1,
240320,1831.4,22.3,130.6,35.6,1479.0,5672.0,5.0,1,
240420,1872.6,155.1,133.6,30.1,3293.0,13619.0,3.0,1,
240520,1893.8,129.4,140.6,29.9,3838.0,15647.0,2.0,0,
240720,1851.3,17.3,126.7,36.0,3808.0,15484.0,3.0,1,
240820,1861.0,10.6,126.7,35.3,3808.0,15484.0,3.0,1,
240920,1860.7,9.0,126.7,35.9,3808.0,15484.0,3.0,1,
241020,1862.1,11.9,126.6,235.2,3808.0,15484.0,3.0,1,
241120,1859.0,12.5,126.6,239.9,3808.0,15484.0,3.0,1,
241220,1861.1,12.6,126.6,240.2,3808.0,15484.0,3.0,1,
241320,1859.2,12.2,126.6,240.1,3808.0,15484.0,3.0,1,
241420,1862.9,12.7,126.6,239.9,3808.0,15484.0,3.0,1,
241520,1861.3,13.7,126.5,239.9,3808.0,15484.0,3.0,1,
241720,1847.2,63.5,113.1,240.0,495.0,2631.0,14.0,1,
241820,1894.6,124.8,91.9,100.0,655.0,4168.0,5.0,1,
241920,1850.6,54.1,94.8,54.2,1071.0,4724.0,4.0,1,
242020,1842.1,47.0,95.5,46.0,1603.0,6101.0,5.0,1,
242120,1875.7,73.6,62.7,40.9,3652.0,14714.0,3.0,1,
242220,1874.1,123.8,74.9,43.3,3776.0,15502.0,3.0,1,
242320,1882.5,21.6,74.8,40.5,3782.0,15231.0,3.0,1,
242420,1860.8,14.2,74.8,28.1,3782.0,15231.0,3.0,1,
242520,1862.2,12.6,74.8,29.0,3782.0,15231.0,3.0,1,
242720,1859.8,11.0,74.8,239.5,3782.0,15231.0,3.0,1,
242820,1860.7,12.4,74.8,239.9,3782.0,15231.0,3.0,1,
242920,1860.2,13.3,74.8,239.9,3782.0,15231.0,3.0,1,
243020,1860.3,13.1,74.8,240.0,3782.0,15231.0,3.0,1,
243120,1859.3,11.0,74.9,240.2,3782.0,15231.0,3.0,1,
243220,1859.9,13.1,74.9,240.3,3782.0,15231.0,3.0,1,
243320,1854.0,46.5,74.6,240.0,381.0,2358.0,5.0,1,
243420,1851.5,100.3,71.9,136.5,556.0,3432.0,5.0,1,
243520,1878.7,101.1,84.4,65.7,1214.0,4695.0,4.0,1,
243720,1844.3,111.7,79.5,36.9,1715.0,6913.0,4.0,1,
243820,1888.2,249.9,73.1,35.7,2812.0,10894.0,4.0,1,
243920,1885.5,32.0,92.0,30.1,3313.0,13317.0,3.0,1,
244020,1861.1,13.5,92.0,29.8,3313.0,13317.0,3.0,1,
244120,1860.2,11.5,92.0,29.7,3313.0,13317.0,3.0,1,
244220,1861.9,13.3,92.0,30.0,3313.0,13317.0,3.0,1,
244320,1857.1,11.6,92.0,206.6,3313.0,13317.0,3.0,1,
244420,1860.1,11.7,92.0,240.2,3313.0,13317.0,3.0,1,
244520,1860.0,12.6,92.0,240.0,3313.0,13317.0,3.0,1,
244720,1859.1,13.1,92.0,240.1,3313.0,13317.0,3.0,1,
244820,1859.1,13.5,92.1,240.1,3313.0,13317.0,3.0,1,
244920,1856.7,50.2,93.9,239.8,380.0,2209.0,10.0,1,
245020,1850.7,64.8,94.6,37.5,598.0,3375.0,14.0,1,
245120,1853.8,262.1,101.0,29.4,690.0,4380.0,4.0,1,
245220,1862.8,69.4,109.0,35.1,719.0,3004.0,4.0,1,
245320,1898.3,43.0,108.7,39.9,2751.0,10961.0,4.0,1,
245420,1801.5,107.8,106.7,42.6,3799.0,15981.0,3.0,1,
245520,1912.2,41.5,89.7,41.8,3881.0,15630.0,3.0,1,
245720,1861.0,11.1,89.7,66.5,3881.0,15630.0,3.0,1,
245820,1858.9,11.9,89.7,83.6,3881.0,15630.0,3.0,1,
245920,1858.3,12.2,89.7,240.0,3881.0,15630.0,3.0,1,
246020,1859.4,10.1,89.7,240.3,3881.0,15630.0,3.0,1,
246120,1859.9,12.5,89.7,240.1,3881.0,15630.0,3.0,1,
246220,1859.8,14.4,89.8,239.9,3881.0,15630.0,3.0,1,
246320,1859.1,13.6,89.8,240.0,3881.0,15630.0,3.0,1,
246420,1860.1,12.4,89.7,240.0,3881.0,15630.0,3.0,1,
246520,1876.2,295.5,90.3,239.9,3881.0,15630.0,3.0,1,
246720,1852.0,44.0,109.1,37.1,1172.0,5045.0,5.0,1,
246820,1844.6,224.0,99.2,34.9,2284.0,7810.0,2.0,0,
246920,1895.0,223.0,126.1,35.2,3252.0,11788.0,2.0,0,
247020,1871.9,149.0,145.3,106.7,3397.0,11573.0,2.0,0,
247120,1859.1,113.5,170.8,226.7,3471.0,12249.0,2.0,0,
247220,1861.4,16.0,170.8,227.0,3471.0,12249.0,2.0,0,
247320,1862.4,11.6,170.7,157.9,3471.0,12249.0,2.0,0,
247420,1861.7,12.9,170.7,92.6,3471.0,12249.0,2.0,0,
247520,1862.3,10.5,170.7,79.6,3471.0,12249.0,2.0,0,
247720,1860.8,13.2,170.7,240.1,3471.0,12249.0,2.0,0,
247820,1859.9,13.2,170.7,240.1,3471.0,12249.0,2.0,0,
247920,1860.9,12.2,170.6,239.9,3471.0,12249.0,2.0,0,
248020,1857.7,11.7,170.7,239.8,3471.0,12249.0,2.0,0,
248120,1846.1,25.6,169.6,239.9,332.0,2835.0,5.0,1,
248220,1871.8,274.3,167.4,125.8,536.0,3092.0,14.0,1,
248320,1876.7,107.5,182.0,78.4,894.0,4377.0,4.0,1,
248420,1836.9,31.9,182.0,37.1,1024.0,4137.0,4.0,1,
248520,1903.3,101.7,160.1,35.0,2322.0,9355.0,4.0,1,
248720,1870.6,87.7,131.1,34.6,3765.0,14883.0,3.0,1,
248820,1875.6,16.7,130.0,30.2,3765.0,14883.0,3.0,1,
248920,1861.2,12.4,130.0,29.8,3765.0,14883.0,3.0,1,
249020,1859.7,11.7,130.0,34.8,3765.0,14883.0,3.0,1,
249120,1860.4,14.7,130.1,188.4,3765.0,14883.0,3.0,1,
249220,1860.0,14.1,130.1,240.1,3765.0,14883.0,3.0,1,
249320,1861.5,13.1,130.1,239.8,3765.0,14883.0,3.0,1,
249420,1860.3,12.3,130.1,239.7,3765.0,14883.0,3.0,1,
249520,1860.4,11.5,130.1,240.0,3765.0,14883.0,3.0,1,
249720,1859.1,10.7,130.1,240.1,3765.0,14883.0,3.0,1,
249820,1829.2,53.1,127.2,239.7,557.0,2858.0,5.0,1,
249920,1884.5,144.9,92.1,75.1,726.0,4319.0,4.0,1,
250020,1864.3,68.9,96.6,41.7,1473.0,6214.0,3.0,1,
250120,1843.8,38.1,96.8,37.9,3244.0,13202.0,3.0,1,
250220,1865.2,391.5,93.6,42.1,3420.0,12962.0,2.0,0,
250320,1916.3,242.3,130.2,41.1,3229.0,11790.0,2.0,0,
250420,1861.3,23.9,131.5,40.9,3262.0,11413.0,2.0,0,
250520,1861.0,11.6,131.4,73.1,3262.0,11413.0,2.0,0,
250720,1859.5,12.4,131.4,231.3,3262.0,11413.0,2.0,0,
250820,1860.0,11.9,131.4,240.3,3262.0,11413.0,2.0,0,
250920,1860.7,13.2,131.4,239.9,3262.0,11413.0,2.0,0,
251020,1859.3,11.5,131.5,239.9,3262.0,11413.0,2.0,0,
251120,1859.0,12.2,131.5,240.0,3262.0,11413.0,2.0,0,
251220,1858.3,11.8,131.5,240.0,3262.0,11413.0,2.0,0,
251320,1859.0,10.4,131.5,240.1,3262.0,11413.0,2.0,0,
251420,1857.7,64.3,139.1,41.7,497.0,2798.0,5.0,1,
251520,1846.4,42.8,139.2,28.3,769.0,4300.0,5.0,1,
251720,1901.1,77.9,136.0,30.1,2506.0,9815.0,3.0,1,
251820,1837.2,88.4,131.7,35.9,3786.0,16023.0,3.0,1,
251920,1856.0,300.3,101.7,35.1,3564.0,13120.0,2.0,0,
252020,1891.5,41.9,113.5,39.5,3220.0,11439.0,2.0,0,
252120,1860.2,11.3,113.5,43.2,3220.0,11439.0,2.0,0,
252220,1859.9,12.6,113.5,44.6,3220.0,11439.0,2.0,0,
252320,1859.2,12.2,113.5,46.3,3220.0,11439.0,2.0,0,
252420,1857.4,12.4,113.5,112.0,3220.0,11439.0,2.0,0,
252520,1859.5,12.0,113.5,240.1,3220.0,11439.0,2.0,0,
252720,1860.0,12.6,113.5,240.0,3220.0,11439.0,2.0,0,
252820,1859.8,10.9,113.5,240.1,3220.0,11439.0,2.0,0,
252920,1859.2,10.8,113.5,240.1,3220.0,11439.0,2.0,0,
253020,1880.3,267.2,108.7,239.4,689.0,3433.0,5.0,1,
253120,1856.7,72.5,119.9,36.2,456.0,3154.0,4.0,1,
253220,1839.5,65.4,121.9,30.1,1101.0,5229.0,4.0,1,
253320,1865.0,102.2,124.1,30.0,2727.0,9894.0,3.0,1,
253420,1897.7,140.2,129.1,36.1,3595.0,14881.0,3.0,1,
253520,1851.9,83.3,129.1,40.5,3795.0,14862.0,3.0,1,
253720,1860.7,17.9,92.8,36.1,3795.0,14862.0,3.0,1,
253820,1861.8,11.6,92.8,43.4,3795.0,14862.0,3.0,1,
253920,1859.2,14.1,92.8,104.0,3795.0,14862.0,3.0,1,
254020,1857.6,13.3,92.8,203.6,3795.0,14862.0,3.0,1,
254120,1860.9,13.0,92.8,239.8,3795.0,14862.0,3.0,1,
254220,1860.3,13.1,92.8,239.8,3795.0,14862.0,3.0,1,
254320,1859.7,12.9,92.8,239.9,3795.0,14862.0,3.0,1,
254420,1859.0,13.4,92.8,240.1,3795.0,14862.0,3.0,1,
254520,1859.7,11.5,92.8,240.0,3795.0,14862.0,3.0,1,
254720,1890.2,160.8,73.6,89.8,459.0,2787.0,14.0,1,
254820,1863.4,42.8,83.9,37.0,833.0,3931.0,4.0,1,
254920,1813.8,43.6,83.4,35.9,2718.0,10899.0,4.0,1,
255020,1936.0,237.9,96.6,35.1,3167.0,9836.0,2.0,0,
255120,1843.4,192.1,118.2,38.3,3319.0,10100.0,2.0,0,
255220,1877.7,46.3,134.4,93.4,3392.0,10624.0,2.0,0,
255320,1859.7,16.3,134.3,220.5,3392.0,10624.0,2.0,0,
255420,1860.7,12.4,134.3,228.6,3392.0,10624.0,2.0,0,
255520,1861.3,10.4,134.3,226.4,3392.0,10624.0,2.0,0,
255720,1861.9,13.1,134.2,239.9,3392.0,10624.0,2.0,0,
255820,1861.8,10.6,134.2,240.0,3392.0,10624.0,2.0,0,
255920,1861.0,12.0,134.2,239.9,3392.0,10624.0,2.0,0,
256020,1860.7,11.8,134.1,240.1,3392.0,10624.0,2.0,0,
256120,1859.5,12.1,134.2,240.1,3392.0,10624.0,2.0,0,
256220,1857.8,21.9,134.1,239.9,827.0,3924.0,5.0,1,
256320,1821.6,43.6,132.3,239.3,1309.0,5983.0,5.0,1,
256420,1918.6,220.6,145.5,79.8,2109.0,7775.0,2.0,0,
256520,1835.9,163.3,164.3,54.6,3386.0,11987.0,2.0,0,
256720,1880.8,414.7,190.6,227.2,3280.0,10732.0,2.0,0,
256820,1907.0,104.5,194.4,132.6,3306.0,10645.0,2.0,0,
256920,1860.2,14.2,194.4,37.4,3306.0,10645.0,2.0,0,
257020,1861.3,10.5,194.4,39.1,3306.0,10645.0,2.0,0,
257120,1859.6,17.3,194.4,194.6,3306.0,10645.0,2.0,0,
257220,1860.8,13.0,194.4,241.1,3306.0,10645.0,2.0,0,
257320,1858.6,13.8,194.4,239.5,3306.0,10645.0,2.0,0,
