Time(ms),Raw_ADC
0,1844
1,1821
2,1811
3,1816
4,1823
5,1840
6,1859
7,1852
8,1873
9,1894
10,1892
11,1886
12,1891
13,1904
14,1899
15,1874
16,1837
17,1847
18,1829
19,1817
20,1819
21,1831
22,1846
23,1863
24,1877
25,1863
26,1890
27,1888
28,1886
29,1906
30,1899
31,1878
32,1873
33,1862
34,1814
35,1806
36,1819
37,1831
38,1837
39,1840
40,1870
41,1869
42,1891
43,1902
44,1893
45,1888
46,1865
47,1894
48,1877
49,1863
50,1847
51,1840
52,1812
53,1808
54,1809
55,1837
56,1863
57,1872
58,1889
59,1890
60,1903
61,1892
62,1899
63,1909
64,1878
65,1851
66,1839
67,1859
68,1826
69,1837
70,1826
71,1866
72,1889
73,1871
74,1878
75,1871
76,1840
77,1860
78,1872
79,1877
80,1888
81,1879
82,1863
83,1853
84,1830
85,1829
86,1798
87,1824
88,1835
89,1854
90,1874
91,1887
92,1877
93,1904
94,1902
95,1891
96,1874
97,1899
98,1874
99,1866
100,1870
101,1814
102,1815
103,1814
104,1808
105,1872
106,1869
107,1881
108,1882
109,1902
110,1891
111,1877
112,1874
113,1904
114,1889
115,1865
116,1834
117,1837
118,1815
119,1808
120,1811
121,1808
122,1845
123,1868
124,1863
125,1873
126,1871
127,1897
128,1888
129,1909
130,1915
131,1894
132,1871
133,1859
134,1821
135,1819
136,1814
137,1820
138,1830
139,1857
140,1855
141,1872
142,1889
143,1875
144,1891
145,1885
146,1911
147,1898
148,1858
149,1866
150,1856
151,1829
152,1819
153,1821
154,1840
155,1833
156,1861
157,1868
158,1870
159,1879
160,1887
161,1893
162,1874
163,1889
164,1871
165,1856
166,1851
167,1839
168,1822
169,1826
170,1825
171,1861
172,1873
173,1877
174,1874
175,1910
176,1920
177,1918
178,1914
179,1943
180,1983
181,1872
182,1754
183,1744
184,1808
185,1829
186,1887
187,1885
188,1872
189,1909
190,1926
191,1947
192,1950
193,1936
194,1920
195,1854
196,1756
197,1712
198,1744
199,1776
200,1821
201,1798
202,1797
203,1789
204,1804
205,1802
206,1851
207,1877
208,1877
209,1906
210,1887
211,1872
212,1867
213,1879
214,1895
215,1857
216,1850
217,1820
218,1818
219,1805
220,1818
221,1835
222,1826
223,1859
224,1872
225,1887
226,1921
227,1893
228,1898
229,1887
230,1906
231,1878
232,1863
233,1843
234,1831
235,1817
236,1822
237,1813
238,1838
239,1857
240,1872
241,1887
242,1863
243,1923
244,1899
245,1883
246,1934
247,1889
248,1875
249,1864
250,1857
251,1843
252,1815
253,1823
254,1826
255,1843
256,1863
257,1856
258,1883
259,1881
260,1895
261,1894
262,1874
263,1911
264,1904
265,1865
266,1856
267,1837
268,1808
269,1804
270,1814
271,1854
272,1860
273,1870
274,1871
275,1880
276,1904
277,1887
278,1888
279,1888
280,1895
281,1872
282,1871
283,1835
284,1834
285,1830
286,1817
287,1835
288,1845
289,1863
290,1870
291,1877
292,1850
293,1894
294,1890
295,1886
296,1874
297,1931
298,1873
299,1850
300,1843
301,1845
302,1829
303,1831
304,1824
305,1839
306,1867
307,1867
308,1871
309,1883
310,1893
311,1893
312,1890
313,1919
314,1902
315,1887
316,1879
317,1867
318,1818
319,1808
320,1806
321,1846
322,1867
323,1873
324,1863
325,1872
326,1862
327,1874
328,1879
329,1878
330,1894
331,1872
332,1859
333,1840
334,1822
335,1825
336,1822
337,1843
338,1861
339,1851
340,1874
341,1886
342,1890
343,1887
344,1882
345,1890
346,1920
347,1904
348,1882
349,1855
350,1840
351,1825
352,1814
353,1808
354,1823
355,1841
356,1850
357,1867
358,1885
359,1891
360,1903
361,1904
362,1904
363,1922
364,1885
365,1857
366,1854
367,1828
368,1824
369,1814
370,1811
371,1855
372,1819
373,1867
374,1872
375,1875
376,1895
377,1895
378,1890
379,1881
380,1879
381,1870
382,1866
383,1851
384,1817
385,1808
386,1798
387,1826
388,1830
389,1827
390,1872
391,1882
392,1887
393,1902
394,1901
395,1904
396,1902
397,1911
398,1890
399,1889
400,1855
401,1771
402,1783
403,1791
404,1806
405,1840
406,1870
407,1884
408,1886
409,1874
410,1917
411,1911
412,1895
413,1906
414,1904
415,1854
416,1820
417,1803
418,1807
419,1790
420,1795
421,1827
422,1839
423,1861
424,1877
425,1874
426,1890
427,1889
428,1895
429,1907
430,1904
431,1878
432,1846
433,1823
434,1842
435,1821
436,1826
437,1808
438,1841
439,1850
440,1872
441,1875
442,1907
443,1893
444,1884
445,1882
446,1862
447,1892
448,1859
449,1839
450,1827
451,1841
452,1812
453,1815
454,1811
455,1872
456,1872
457,1889
458,1890
459,1904
460,1912
461,1872
462,1892
463,1897
464,1862
465,1847
466,1838
467,1826
468,1820
469,1809
470,1811
471,1830
472,1839
473,1863
474,1853
475,1872
476,1879
477,1883
478,1884
479,1872
480,1904
481,1901
482,1863
483,1842
484,1859
485,1840
486,1815
487,1839
488,1856
489,1856
490,1883
491,1871
492,1853
493,1875
494,1885
495,1899
496,1923
497,1904
498,1863
499,1861
500,1863
501,1814
502,1811
503,1805
504,1806
505,1840
506,1852
507,1857
508,1862
509,1886
510,1901
511,1887
512,1873
513,1901
514,1905
515,1870
516,1853
517,1852
518,1839
519,1811
520,1815
521,1823
522,1842
523,1862
524,1872
525,1882
526,1887
527,1891
528,1887
529,1889
530,1903
531,1877
532,1843
533,1835
534,1834
535,1822
536,1825
537,1827
538,1833
539,1873
540,1883
541,1886
542,1865
543,1907
544,1897
545,1878
546,1877
547,1899
548,1855
549,1845
550,1829
551,1836
552,1840
553,1833
554,1829
555,1823
556,1896
557,1881
558,1873
559,1872
560,1888
561,1886
562,1891
563,1914
564,1856
565,1819
566,1822
567,1814
568,1808
569,1808
570,1812
571,1806
572,1840
573,1865
574,1856
575,1889
576,1893
577,1890
578,1886
579,1904
580,1919
581,1888
582,1847
583,1843
584,1845
585,1837
586,1808
587,1824
588,1845
589,1870
590,1855
591,1871
592,1872
593,1909
594,1884
595,1877
596,1895
597,1875
598,1875
599,1844
600,1839
601,1821
602,1823
603,1818
604,1811
605,1815
606,1856
607,1852
608,1878
609,1872
610,1891
611,1878
612,1902
613,1915
614,1895
615,1872
616,1847
617,1858
618,1833
619,1819
620,1812
621,1808
622,1823
623,1849
624,1856
625,1874
626,1919
627,1901
628,1911
629,1918
630,1910
631,1891
632,1826
633,1793
634,1840
635,1815
636,1785
637,1797
638,1842
639,1845
640,1893
641,1905
642,1902
643,1912
644,1895
645,1890
646,1873
647,1893
648,1867
649,1815
650,1851
651,1843
652,1816
653,1811
654,1815
655,1779
656,1824
657,1837
658,1853
659,1888
660,1881
661,1897
662,1910
663,1903
664,1882
665,1877
666,1841
667,1836
668,1845
669,1817
670,1817
671,1810
672,1838
673,1861
674,1875
675,1867
676,1913
677,1893
678,1879
679,1903
680,1910
681,1882
682,1856
683,1840
684,1837
685,1809
686,1801
687,1808
688,1824
689,1827
690,1855
691,1869
692,1877
693,1890
694,1898
695,1895
696,1936
697,1922
698,1881
699,1864
700,1854
701,1854
702,1825
703,1808
704,1820
705,1838
706,1862
707,1891
708,1888
709,1865
710,1867
711,1856
712,1873
713,1898
714,1863
715,1851
716,1830
717,1833
718,1843
719,1811
720,1815
721,1826
722,1849
723,1877
724,1885
725,1856
726,1901
727,1893
728,1898
729,1922
730,1911
731,1904
732,1856
733,1842
734,1840
735,1819
736,1792
737,1797
738,1853
739,1879
740,1881
741,1891
742,1895
743,1878
744,1867
745,1865
746,1889
747,1904
748,1855
749,1840
750,1847
751,1820
752,1813
753,1815
754,1809
755,1838
756,1856
757,1866
758,1869
759,1906
760,1904
761,1895
762,1889
763,1914
764,1904
765,1852
766,1856
767,1858
768,1837
769,1820
770,1819
771,1856
772,1843
773,1862
774,1865
775,1872
776,1907
777,1902
778,1899
779,1904
780,1920
781,1895
782,1840
783,1828
784,1840
785,1829
786,1827
787,1805
788,1823
789,1870
790,1870
791,1899
792,1874
793,1902
794,1898
795,1895
796,1873
797,1883
798,1868
799,1854
800,1841
801,1869
802,1823
803,1824
804,1840
805,1839
806,1856
807,1841
808,1646
809,2177
810,1819
811,1604
812,1603
813,1682
814,1722
815,1794
816,1841
817,1850
818,1974
819,2027
820,1967
821,2040
822,2144
823,2275
824,2298
825,2241
826,2206
827,2145
828,2029
829,1876
830,1795
831,1704
832,1569
833,1469
834,1522
835,1618
836,1689
837,1713
838,1748
839,1807
840,2134
841,1808
842,1593
843,1626
844,1686
845,1744
846,1795
847,1857
848,1866
849,2041
850,2071
851,2015
852,2033
853,2125
854,2150
855,2138
856,2107
857,2037
858,1943
859,1827
860,1767
861,1683
862,1683
863,1691
864,1705
865,1695
866,1703
867,1752
868,1794
869,1770
870,1774
871,2192
872,1867
873,1706
874,1706
875,1737
876,1749
877,1754
878,1798
879,1793
880,1975
881,2109
882,2095
883,2107
884,2154
885,2192
886,2128
887,2059
888,1941
889,1808
890,1687
891,1626
892,1645
893,1644
894,1732
895,1786
896,1841
897,1830
898,1834
899,1814
900,1805
901,1840
902,2142
903,1872
904,1658
905,1653
906,1657
907,1626
908,1587
909,1651
910,1879
911,2293
912,2209
913,2121
914,2190
915,2291
916,2306
917,2162
918,2043
919,1879
920,1726
921,1616
922,1535
923,1616
924,1680
925,1758
926,1798
927,1815
928,1837
929,1875
930,1893
931,1872
932,1847
933,2135
934,1909
935,1666
936,1634
937,1644
938,1553
939,1526
940,1599
941,2138
942,2362
943,2094
944,2027
945,2203
946,2384
947,2317
948,2161
949,2022
950,1845
951,1694
952,1579
953,1533
954,1616
955,1691
956,1760
957,1771
958,1803
959,1837
960,1861
961,1872
962,1867
963,1889
964,2119
965,1994
966,1723
967,1762
968,1684
969,1523
970,1481
971,1664
972,2233
973,2123
974,1866
975,1993
976,2235
977,2326
978,2286
979,2192
980,2066
981,1895
982,1854
983,1775
984,1763
985,1787
986,1597
987,1385
988,1557
989,1742
990,1818
991,1837
992,1850
993,1872
994,1893
995,1834
996,2096
997,1797
998,1826
999,1759
1000,1535
1001,1482
1002,1692
1003,2215
1004,1931
1005,1775
1006,1984
1007,2224
1008,2298
1009,2229
1010,2159
1011,2011
1012,1856
1013,1735
1014,1642
1015,1630
1016,1671
1017,1733
1018,1744
1019,1744
1020,1773
1021,1790
1022,1834
1023,1847
1024,1863
1025,1874
1026,1525
1027,2102
1028,1813
1029,1915
1030,1877
1031,1663
1032,1598
1033,1854
1034,2083
1035,1717
1036,1626
1037,1855
1038,2121
1039,2290
1040,2245
1041,2131
1042,2028
1043,1885
1044,1744
1045,1666
1046,1722
1047,1744
1048,1760
1049,1786
1050,1808
1051,1817
1052,1792
1053,1802
1054,1794
1055,1863
1056,1878
1057,1231
1058,2125
1059,1813
1060,1915
1061,1869
1062,1648
1063,1633
1064,1936
1065,2061
1066,1680
1067,1697
1068,1963
1069,2175
1070,2245
1071,2182
1072,2107
1073,1968
1074,1824
1075,1681
1076,1635
1077,1680
1078,1744
1079,1815
1080,1847
1081,1838
1082,1814
1083,1825
1084,1826
1085,1808
1086,1818
1087,1844
1088,1298
1089,2140
1090,1840
1091,1934
1092,1914
1093,1696
1094,1626
1095,1968
1096,1939
1097,1617
1098,1723
1099,1981
1100,2186
1101,2280
1102,2192
1103,2064
1104,1936
1105,1776
1106,1670
1107,1617
1108,1675
1109,1749
1110,1817
1111,1855
1112,1872
1113,1872
1114,1851
1115,1836
1116,1825
1117,1823
1118,1816
1119,1472
1120,2106
1121,1824
1122,1875
1123,1905
1124,1713
1125,1718
1126,2106
1127,1978
1128,1535
1129,1673
1130,1997
1131,2187
1132,2226
1133,2150
1134,2026
1135,1891
1136,1759
1137,1668
1138,1622
1139,1657
1140,1734
1141,1821
1142,1819
1143,1841
1144,1857
1145,1860
1146,1910
1147,1898
1148,1869
1149,1851
1150,1889
1151,2123
1152,1840
1153,1837
1154,1870
1155,1680
1156,1639
1157,2040
1158,1936
1159,1584
1160,1728
1161,2021
1162,2190
1163,2293
1164,2231
1165,2079
1166,1914
1167,1776
1168,1694
1169,1607
1170,1628
1171,1680
1172,1771
1173,1809
1174,1837
1175,1859
1176,1863
1177,1890
1178,1887
1179,1911
1180,1919
1181,1898
1182,2209
1183,1872
1184,1831
1185,1903
1186,1671
1187,1627
1188,2000
1189,1803
1190,1527
1191,1728
1192,2015
1193,2246
1194,2262
1195,2206
1196,2112
1197,1997
1198,1831
1199,1686
1200,1615
1201,1664
1202,1681
1203,1743
1204,1775
1205,1840
1206,1837
1207,1857
1208,1882
1209,1872
1210,1894
1211,1904
1212,1895
1213,2239
1214,1968
1215,1885
1216,1959
1217,1744
1218,1630
1219,1915
1220,1744
1221,1473
1222,1689
1223,1968
1224,2159
1225,2224
1226,2197
1227,2118
1228,1993
1229,1856
1230,1750
1231,1647
1232,1648
1233,1691
1234,1741
1235,1767
1236,1776
1237,1799
1238,1831
1239,1849
1240,1879
1241,1894
1242,1907
1243,1911
1244,2196
1245,2004
1246,1916
1247,2113
1248,1936
1249,1801
1250,2112
1251,1684
1252,1234
1253,1463
1254,1823
1255,2086
1256,2166
1257,2177
1258,2109
1259,1997
1260,1870
1261,1761
1262,1692
1263,1723
1264,1760
1265,1808
1266,1759
1267,1774
1268,1778
1269,1778
1270,1802
1271,1815
1272,1867
1273,1869
1274,1871
1275,2058
1276,2063
1277,1875
1278,2055
1279,1909
1280,1774
1281,2044
1282,1821
1283,1442
1284,1575
1285,1853
1286,2064
1287,2174
1288,2177
1289,2112
1290,1953
1291,1822
1292,1754
1293,1710
1294,1712
1295,1750
1296,1830
1297,1825
1298,1841
1299,1809
1300,1818
1301,1809
1302,1808
1303,1825
1304,1829
1305,1856
1306,1805
1307,2039
1308,1853
1309,2022
1310,1881
1311,1721
1312,2087
1313,1936
1314,1485
1315,1580
1316,1885
1317,2055
1318,2153
1319,2135
1320,2086
1321,1975
1322,1831
1323,1759
1324,1685
1325,1654
1326,1725
1327,1780
1328,1819
1329,1872
1330,1873
1331,1862
1332,1867
1333,1837
1334,1838
1335,1823
1336,1811
1337,1611
1338,2032
1339,1809
1340,2000
1341,1898
1342,1755
1343,2054
1344,1925
1345,1477
1346,1578
1347,1867
1348,2102
1349,2194
1350,2171
1351,2065
1352,1943
1353,1804
1354,1694
1355,1669
1356,1664
1357,1714
1358,1782
1359,1839
1360,1868
1361,1862
1362,1872
1363,1907
1364,1904
1365,1862
1366,1855
1367,1838
1368,1163
1369,2070
1370,1792
1371,2029
1372,2061
1373,1882
1374,2098
1375,1827
1376,1370
1377,1487
1378,1831
1379,2110
1380,2217
1381,2219
1382,2128
1383,1962
1384,1813
1385,1719
1386,1617
1387,1632
1388,1687
1389,1759
1390,1791
1391,1855
1392,1862
1393,1867
1394,1872
1395,1872
1396,1875
1397,1886
1398,1869
1399,1282
1400,2128
1401,1851
1402,1952
1403,1913
1404,1786
1405,1949
1406,1990
1407,1446
1408,1439
1409,1817
1410,2096
1411,2192
1412,2211
1413,2160
1414,2033
1415,1872
1416,1759
1417,1648
1418,1623
1419,1661
1420,1730
1421,1785
1422,1808
1423,1840
1424,1847
1425,1882
1426,1873
1427,1902
1428,1898
1429,1907
1430,1935
1431,1898
1432,1860
1433,1855
1434,1843
1435,1821
1436,1804
1437,1807
1438,1807
1439,1857
1440,1861
1441,1882
1442,1904
1443,1917
1444,1902
1445,1897
1446,1907
1447,1917
1448,1872
1449,1852
1450,1859
1451,1838
1452,1809
1453,1809
1454,1823
1455,1840
1456,1872
1457,1845
1458,1870
1459,1869
1460,1885
1461,1885
1462,1899
1463,1904
1464,1857
1465,1863
1466,1846
1467,1825
1468,1808
1469,1791
1470,1802
1471,1820
1472,1821
1473,1856
1474,1877
1475,1856
1476,1867
1477,1894
1478,1890
1479,1911
1480,1938
1481,1887
1482,1876
1483,1862
1484,1823
1485,1806
1486,1796
1487,1823
1488,1847
1489,1871
1490,1858
1491,1858
1492,1888
1493,1905
1494,1885
1495,1879
1496,1893
1497,1878
1498,1863
1499,1844
1500,1845
1501,1851
1502,1808
1503,1808
1504,1805
1505,1841
1506,1872
1507,1872
1508,1882
1509,1863
1510,1902
1511,1891
1512,1871
1513,1895
1514,1899
1515,1893
1516,1883
1517,1852
1518,1858
1519,1824
1520,1807
1521,1818
1522,1831
1523,1865
1524,1837
1525,1843
1526,1872
1527,1907
1528,1899
1529,1856
1530,1881
1531,1821
1532,1742
1533,1775
1534,1829
1535,1842
1536,1872
1537,1877
1538,1856
1539,1905
1540,1872
1541,1851
1542,1862
1543,1887
1544,1894
1545,1894
1546,1899
1547,1904
1548,1872
1549,1871
1550,1840
1551,1840
1552,1813
1553,1810
1554,1811
1555,1824
1556,1865
1557,1851
1558,1872
1559,1885
1560,1887
1561,1904
1562,1898
1563,1905
1564,1858
1565,1872
1566,1839
1567,1841
1568,1821
1569,1809
1570,1811
1571,1834
1572,1865
1573,1860
1574,1872
1575,1867
1576,1893
1577,1889
1578,1888
1579,1904
1580,1903
1581,1887
1582,1841
1583,1821
1584,1825
1585,1819
1586,1814
1587,1822
1588,1837
1589,1847
1590,1869
1591,1865
1592,1865
1593,1902
1594,1886
1595,1897
1596,1915
1597,1907
1598,1863
1599,1855
1600,1827
1601,1792
1602,1795
1603,1801
1604,1813
1605,1845
1606,1867
1607,1877
1608,1867
1609,1894
1610,1903
1611,1902
1612,1904
1613,1906
1614,1877
1615,1863
1616,1854
1617,1846
1618,1819
1619,1794
1620,1807
1621,1825
1622,1845
1623,1872
1624,1873
1625,1871
1626,1921
1627,1901
1628,1887
1629,1875
1630,1901
1631,1881
1632,1851
1633,1835
1634,1823
1635,1829
1636,1830
1637,1824
1638,1831
1639,1871
1640,1850
1641,1872
1642,1903
1643,1895
1644,1910
1645,1905
1646,1919
1647,1920
1648,1885
1649,1831
1650,1801
1651,1821
1652,1828
1653,1849
1654,1858
1655,1867
1656,1903
1657,1847
1658,1858
1659,1840
1660,1845
1661,1830
1662,1866
1663,1895
1664,1883
1665,1856
1666,1845
1667,1845
1668,1850
1669,1813
1670,1826
1671,1829
1672,1872
1673,1863
1674,1861
1675,1863
1676,1907
1677,1881
1678,1884
1679,1875
1680,1936
1681,1893
1682,1859
1683,1840
1684,1845
1685,1822
1686,1808
1687,1835
1688,1857
1689,1891
1690,1872
1691,1889
1692,1893
1693,1907
1694,1891
1695,1895
1696,1904
1697,1897
1698,1871
1699,1837
1700,1831
1701,1821
1702,1819
1703,1818
1704,1834
1705,1840
1706,1856
1707,1857
1708,1873
1709,1853
1710,1907
1711,1884
1712,1891
1713,1902
1714,1881
1715,1859
1716,1846
1717,1835
1718,1824
1719,1807
1720,1819
1721,1847
1722,1868
1723,1890
1724,1907
1725,1888
1726,1874
1727,1867
1728,1863
1729,1889
1730,1895
1731,1914
1732,1862
1733,1836
1734,1828
1735,1807
1736,1821
1737,1808
1738,1841
1739,1827
1740,1856
1741,1882
1742,1882
1743,1856
1744,1859
1745,1873
1746,1897
1747,1872
1748,1899
1749,1875
1750,1857
1751,1839
1752,1813
1753,1809
1754,1831
1755,1875
1756,1840
1757,1861
1758,1894
1759,1893
1760,1903
1761,1902
1762,1904
1763,1907
1764,1894
1765,1854
1766,1838
1767,1845
1768,1840
1769,1807
1770,1811
1771,1840
1772,1871
1773,1850
1774,1889
1775,1872
1776,1908
1777,1891
1778,1893
1779,1888
1780,1916
1781,1885
1782,1845
1783,1838
1784,1841
1785,1822
1786,1809
1787,1830
1788,1842
1789,1856
1790,1876
1791,1881
1792,1881
1793,1904
1794,1901
1795,1873
1796,1890
1797,1892
1798,1850
1799,1840
1800,1821
1801,1837
1802,1819
1803,1816
1804,1825
1805,1856
1806,1873
1807,1871
1808,1887
1809,1887
1810,1911
1811,1910
1812,1915
1813,1904
1814,1863
1815,1854
1816,1819
1817,1819
1818,1833
1819,1811
1820,1799
1821,1833
1822,1857
1823,1860
1824,1872
1825,1870
1826,1874
1827,1877
1828,1876
1829,1885
1830,1904
1831,1877
1832,1851
1833,1855
1834,1863
1835,1826
1836,1826
1837,1833
1838,1827
1839,1838
1840,1872
1841,1879
1842,1920
1843,1914
1844,1903
1845,1886
1846,1903
1847,1920
1848,1873
1849,1856
1850,1859
1851,1847
1852,1850
1853,1835
1854,1830
1855,1816
1856,1828
1857,1840
1858,1858
1859,1883
1860,1899
1861,1915
1862,1922
1863,1923
1864,1921
1865,1846
1866,1829
1867,1836
1868,1814
1869,1825
1870,1822
1871,1830
1872,1808
1873,1840
1874,1843
1875,1872
1876,1894
1877,1903
1878,1890
1879,1898
1880,1904
1881,1894
1882,1840
1883,1835
1884,1834
1885,1818
1886,1798
1887,1808
1888,1827
1889,1854
1890,1888
1891,1883
1892,1890
1893,1911
1894,1899
1895,1888
1896,1910
1897,1906
1898,1883
1899,1854
1900,1850
1901,1822
1902,1802
1903,1808
1904,1824
1905,1847
1906,1863
1907,1863
1908,1889
1909,1882
1910,1894
1911,1895
1912,1897
1913,1903
1914,1872
1915,1856
1916,1833
1917,1829
1918,1808
1919,1808
1920,1815
1921,1838
1922,1841
1923,1866
1924,1866
1925,1874
1926,1887
1927,1891
1928,1884
1929,1873
1930,1915
1931,1902
1932,1856
1933,1841
1934,1834
1935,1815
1936,1829
1937,1817
1938,1844
1939,1873
1940,1869
1941,1875
1942,1889
1943,1872
1944,1890
1945,1874
1946,1904
1947,1879
1948,1875
1949,1862
1950,1842
1951,1845
1952,1840
1953,1815
1954,1811
1955,1815
1956,1845
1957,1885
1958,1872
1959,1863
1960,1872
1961,1885
1962,1877
1963,1890
1964,1903
1965,1869
1966,1840
1967,1841
1968,1818
1969,1826
1970,1819
1971,1840
1972,1843
1973,1873
1974,1873
1975,1875
1976,1879
1977,1890
1978,1883
1979,1870
1980,1904
1981,1872
1982,1857
1983,1838
1984,1825
1985,1825
1986,1840
1987,1826
1988,1843
1989,1843
1990,1875
1991,1873
1992,1873
1993,1911
1994,1901
1995,1902
1996,1907
1997,1926
1998,1886
1999,1850
2000,1856
2001,1841
2002,1813
2003,1811
2004,1831
2005,1817
2006,1847
2007,1863
2008,1868
2009,1872
2010,1903
2011,1887
2012,1872
2013,1908
2014,1872
2015,1856
2016,1849
2017,1846
2018,1815
2019,1817
2020,1824
2021,1834
2022,1855
2023,1893
2024,1881
2025,1897
2026,1877
2027,1882
2028,1883
2029,1910
2030,1897
2031,1898
2032,1842
2033,1840
2034,1823
2035,1824
2036,1804
2037,1809
2038,1835
2039,1841
2040,1856
2041,1863
2042,1875
2043,1895
2044,1891
2045,1889
2046,1899
2047,1873
2048,1872
2049,1850
2050,1824
2051,1807
2052,1808
2053,1810
2054,1822
2055,1840
2056,1856
2057,1890
2058,1888
2059,1890
2060,1894
2061,1901
2062,1911
2063,1907
2064,1904
2065,1855
2066,1840
2067,1844
2068,1846
2069,1803
2070,1802
2071,1808
2072,1834
2073,1840
2074,1869
2075,1889
2076,1898
2077,1894
2078,1893
2079,1891
2080,1922
2081,1878
2082,1889
2083,1872
2084,1850
2085,1831
2086,1841
2087,1822
2088,1851
2089,1861
2090,1899
2091,1904
2092,1887
2093,1845
2094,1872
2095,1879
2096,1894
2097,1909
2098,1870
2099,1852
2100,1865
2101,1842
2102,1824
2103,1826
2104,1840
2105,1835
2106,1840
2107,1839
2108,1871
2109,1889
2110,1891
2111,1872
2112,1877
2113,1885
2114,1878
2115,1873
2116,1858
2117,1866
2118,1845
2119,1813
2120,1818
2121,1831
2122,1808
2123,1833
2124,1857
2125,1873
2126,1883
2127,1890
2128,1900
2129,1905
2130,1913
2131,1904
2132,1866
2133,1846
2134,1846
2135,1809
2136,1826
2137,1834
2138,1847
2139,1864
2140,1861
2141,1861
2142,1867
2143,1894
2144,1879
2145,1901
2146,1907
2147,1904
2148,1872
2149,1846
2150,1840
2151,1846
2152,1839
2153,1846
2154,1874
2155,1872
2156,1872
2157,1893
2158,1921
2159,1898
2160,1869
2161,1819
2162,1780
2163,1840
2164,1855
2165,1833
2166,1829
2167,1856
2168,1825
2169,1826
2170,1808
2171,1824
2172,1851
2173,1857
2174,1863
2175,1883
2176,1904
2177,1911
2178,1904
2179,1914
2180,1904
2181,1856
2182,1847
2183,1850
2184,1817
2185,1831
2186,1808
2187,1815
2188,1811
2189,1845
2190,1887
2191,1887
2192,1897
2193,1889
2194,1895
2195,1888
2196,1886
2197,1853
2198,1867
2199,1870
2200,1859
2201,1823
2202,1810
2203,1825
2204,1834
2205,1835
2206,1863
2207,1862
2208,1882
2209,1894
2210,1903
2211,1904
2212,1905
2213,1902
2214,1905
2215,1854
2216,1840
2217,1811
2218,1825
2219,1795
2220,1806
2221,1842
2222,1875
2223,1899
2224,1887
2225,1893
2226,1894
2227,1895
2228,1872
2229,1857
2230,1871
2231,1872
2232,1842
2233,1814
2234,1818
2235,1815
2236,1827
2237,1823
2238,1838
2239,1854
2240,1872
2241,1887
2242,1893
2243,1921
2244,1922
2245,1920
2246,1905
2247,1885
2248,1823
2249,1777
2250,1822
2251,1836
2252,1829
2253,1826
2254,1835
2255,1839
2256,1859
2257,1863
2258,1886
2259,1902
2260,1893
2261,1887
2262,1888
2263,1925
2264,1908
2265,1866
2266,1855
2267,1853
2268,1806
2269,1785
2270,1793
2271,1822
2272,1843
2273,1867
2274,1879
2275,1856
2276,1897
2277,1887
2278,1885
2279,1898
2280,1921
2281,1880
2282,1862
2283,1840
2284,1845
2285,1815
2286,1824
2287,1811
2288,1847
2289,1855
2290,1859
2291,1889
2292,1875
2293,1893
2294,1899
2295,1883
2296,1899
2297,1900
2298,1870
2299,1869
2300,1858
2301,1830
2302,1814
2303,1815
2304,1819
2305,1840
2306,1874
2307,1846
2308,1872
2309,1878
2310,1894
2311,1871
2312,1893
2313,1904
2314,1884
2315,1863
2316,1840
2317,1845
2318,1829
2319,1802
2320,1823
2321,1837
2322,1854
2323,1869
2324,1877
2325,1876
2326,1908
2327,1893
2328,1887
2329,1904
2330,1889
2331,1881
2332,1847
2333,1857
2334,1830
2335,1810
2336,1817
2337,1808
2338,1831
2339,1853
2340,1873
2341,1881
2342,1879
2343,1886
2344,1896
2345,1895
2346,1903
2347,1861
2348,1872
2349,1854
2350,1843
2351,1853
2352,1813
2353,1815
2354,1839
2355,1859
2356,1872
2357,1867
2358,1885
2359,1887
2360,1902
2361,1874
2362,1883
2363,1909
2364,1872
2365,1866
2366,1835
2367,1841
2368,1819
2369,1798
2370,1791
2371,1835
2372,1843
2373,1861
2374,1870
2375,1877
2376,1898
2377,1887
2378,1889
2379,1878
2380,1936
2381,1893
2382,1856
2383,1833
2384,1840
2385,1820
2386,1821
2387,1824
2388,1831
2389,1859
2390,1882
2391,1872
2392,1894
2393,1902
2394,1893
2395,1872
2396,1893
2397,1914
2398,1868
2399,1839
2400,1835
2401,1829
2402,1821
2403,1830
2404,1839
2405,1873
2406,1881
2407,1872
2408,1892
2409,1894
2410,1885
2411,1871
2412,1889
2413,1918
2414,1872
2415,1825
2416,1821
2417,1824
2418,1815
2419,1813
2420,1835
2421,1846
2422,1853
2423,1886
2424,1891
2425,1328
2426,2120
2427,1776
2428,1575
2429,1582
2430,1727
2431,1808
2432,1885
2433,1984
2434,1922
2435,1873
2436,1911
2437,1917
2438,1994
2439,2103
2440,2176
2441,2189
2442,2147
2443,2131
2444,2083
2445,1986
2446,1885
2447,1741
2448,1648
2449,1612
2450,1647
2451,1616
2452,1667
2453,1693
2454,1747
2455,1760
2456,1392
2457,2098
2458,1765
2459,1571
2460,1612
2461,1710
2462,1749
2463,1776
2464,1853
2465,1840
2466,2043
2467,2096
2468,2067
2469,2046
2470,2102
2471,2166
2472,2160
2473,2113
2474,2054
2475,1969
2476,1841
2477,1731
2478,1655
2479,1647
2480,1699
2481,1728
2482,1773
2483,1775
2484,1773
2485,1766
2486,1776
2487,1744
2488,2130
2489,1799
2490,1629
2491,1659
2492,1702
2493,1650
2494,1639
2495,1711
2496,1973
2497,2210
2498,2170
2499,2065
2500,2125
2501,2167
2502,2219
2503,2155
2504,2078
2505,1947
2506,1841
2507,1694
2508,1619
2509,1609
2510,1658
2511,1711
2512,1765
2513,1827
2514,1822
2515,1788
2516,1791
2517,1824
2518,1801
2519,2147
2520,1820
2521,1651
2522,1664
2523,1683
2524,1582
2525,1520
2526,1603
2527,2064
2528,2279
2529,2176
2530,2111
2531,2220
2532,2314
2533,2298
2534,2177
2535,2044
2536,1894
2537,1725
2538,1638
2539,1575
2540,1611
2541,1673
2542,1754
2543,1789
2544,1818
2545,1828
2546,1870
2547,1870
2548,1877
2549,1839
2550,2175
2551,1839
2552,1677
2553,1701
2554,1646
2555,1535
2556,1517
2557,1675
2558,2269
2559,2160
2560,1993
2561,2067
2562,2221
2563,2319
2564,2255
2565,2157
2566,2033
2567,1850
2568,1690
2569,1568
2570,1573
2571,1616
2572,1674
2573,1738
2574,1771
2575,1821
2576,1862
2577,1863
2578,1872
2579,1879
2580,1935
2581,2190
2582,1973
2583,1748
2584,1820
2585,1741
2586,1557
2587,1533
2588,1872
2589,2139
2590,1851
2591,1808
2592,2023
2593,2223
2594,2318
2595,2263
2596,2191
2597,2043
2598,1861
2599,1744
2600,1648
2601,1691
2602,1695
2603,1666
2604,1563
2605,1679
2606,1790
2607,1830
2608,1839
2609,1863
2610,1919
2611,1889
2612,2019
2613,2062
2614,1807
2615,1930
2616,1871
2617,1630
2618,1503
2619,1863
2620,1953
2621,1616
2622,1701
2623,1989
2624,2221
2625,2302
2626,2308
2627,2176
2628,2031
2629,1854
2630,1750
2631,1671
2632,1645
2633,1680
2634,1723
2635,1729
2636,1766
2637,1769
2638,1825
2639,1851
2640,1873
2641,1861
2642,1873
2643,1837
2644,2069
2645,1841
2646,2071
2647,1970
2648,1729
2649,1651
2650,1986
2651,1677
2652,1453
2653,1627
2654,1968
2655,2195
2656,2259
2657,2237
2658,2112
2659,2013
2660,1857
2661,1695
2662,1646
2663,1691
2664,1769
2665,1779
2666,1791
2667,1821
2668,1799
2669,1801
2670,1803
2671,1844
2672,1841
2673,1891
2674,1492
2675,2102
2676,1872
2677,2033
2678,1965
2679,1695
2680,1669
2681,2003
2682,1645
2683,1391
2684,1684
2685,1998
2686,2187
2687,2230
2688,2175
2689,2106
2690,1969
2691,1867
2692,1746
2693,1663
2694,1695
2695,1735
2696,1827
2697,1846
2698,1840
2699,1818
2700,1826
2701,1815
2702,1811
2703,1808
2704,1809
2705,1258
2706,2079
2707,1847
2708,2058
2709,2003
2710,1779
2711,1790
2712,2033
2713,1615
2714,1470
2715,1743
2716,2007
2717,2176
2718,2194
2719,2117
2720,2032
2721,1923
2722,1813
2723,1719
2724,1679
2725,1682
2726,1767
2727,1807
2728,1823
2729,1861
2730,1863
2731,1875
2732,1841
2733,1839
2734,1821
2735,1815
2736,1043
2737,2106
2738,1819
2739,2000
2740,2039
2741,1904
2742,1937
2743,2135
2744,1507
2745,1376
2746,1697
2747,2026
2748,2167
2749,2169
2750,2138
2751,2021
2752,1897
2753,1765
2754,1664
2755,1631
2756,1675
2757,1735
2758,1801
2759,1837
2760,1847
2761,1853
2762,1862
2763,1904
2764,1886
2765,1872
2766,1845
2767,1271
2768,2129
2769,1808
2770,1952
2771,1998
2772,1858
2773,1946
2774,2032
2775,1449
2776,1360
2777,1724
2778,2030
2779,2173
2780,2224
2781,2177
2782,2091
2783,1927
2784,1802
2785,1681
2786,1616
2787,1629
2788,1699
2789,1744
2790,1791
2791,1840
2792,1846
2793,1885
2794,1876
2795,1886
2796,1903
2797,1903
2798,1885
2799,2179
2800,1855
2801,1894
2802,2006
2803,1831
2804,1850
2805,2003
2806,1414
2807,1371
2808,1706
2809,2031
2810,2204
2811,2239
2812,2203
2813,2176
2814,1995
2815,1854
2816,1729
2817,1632
2818,1623
2819,1639
2820,1675
2821,1759
2822,1795
2823,1835
2824,1845
2825,1845
2826,1908
2827,1910
2828,1883
2829,1879
2830,2239
2831,1926
2832,1920
2833,2057
2834,1858
2835,1840
2836,1984
2837,1390
2838,1317
2839,1667
2840,1980
2841,2167
2842,2239
2843,2230
2844,2143
2845,1997
2846,1882
2847,1761
2848,1671
2849,1648
2850,1707
2851,1765
2852,1761
2853,1783
2854,1785
2855,1811
2856,1843
2857,1858
2858,1863
2859,1878
2860,1891
2861,2222
2862,1955
2863,1955
2864,2095
2865,1908
2866,1847
2867,2108
2868,1503
2869,1275
2870,1569
2871,1919
2872,2123
2873,2193
2874,2224
2875,2144
2876,2016
2877,1872
2878,1754
2879,1658
2880,1674
2881,1713
2882,1743
2883,1798
2884,1817
2885,1805
2886,1785
2887,1807
2888,1842
2889,1853
2890,1884
2891,1897
2892,2192
2893,2002
2894,1913
2895,2134
2896,2006
2897,1946
2898,2064
2899,1474
2900,1314
2901,1584
2902,1908
2903,2096
2904,2172
2905,2110
2906,2117
2907,1991
2908,1869
2909,1751
2910,1705
2911,1729
2912,1774
2913,1833
2914,1795
2915,1791
2916,1802
2917,1835
2918,1799
2919,1798
2920,1819
2921,1835
2922,1867
2923,2085
2924,2018
2925,1897
2926,2156
2927,1987
2928,1872
2929,2032
2930,1646
2931,1344
2932,1598
2933,1937
2934,2118
2935,2147
2936,2139
2937,2055
2938,1971
2939,1845
2940,1733
2941,1698
2942,1758
2943,1823
2944,1821
2945,1742
2946,1788
2947,1840
2948,1843
2949,1838
2950,1856
2951,1806
2952,1817
2953,1811
2954,1845
2955,1991
2956,1841
2957,2082
2958,1970
2959,1888
2960,2188
2961,1728
2962,1353
2963,1570
2964,1902
2965,2075
2966,2128
2967,2153
2968,2094
2969,1967
2970,1819
2971,1722
2972,1673
2973,1664
2974,1714
2975,1756
2976,1808
2977,1851
2978,1867
2979,1879
2980,1904
2981,1892
2982,1866
2983,1850
2984,1843
2985,1745
2986,2010
2987,1800
2988,2012
2989,1936
2990,1808
2991,1984
2992,1789
2993,1402
2994,1586
2995,1927
2996,2131
2997,2195
2998,2192
2999,2109
3000,1995
3001,1882
3002,1723
3003,1639
3004,1650
3005,1744
3006,1799
3007,1789
3008,1810
3009,1855
3010,1851
3011,1857
3012,1885
3013,1906
3014,1889
3015,1855
3016,1318
3017,2055
3018,1792
3019,1948
3020,1873
3021,1777
3022,2058
3023,1903
3024,1451
3025,1487
3026,1872
3027,2085
3028,2163
3029,2214
3030,2169
3031,2081
3032,1891
3033,1742
3034,1641
3035,1607
3036,1629
3037,1718
3038,1770
3039,1815
3040,1821
3041,1857
3042,1855
3043,1875
3044,1887
3045,1897
3046,1902
3047,1890
3048,1884
3049,1850
3050,1831
3051,1866
3052,1827
3053,1824
3054,1811
3055,1845
3056,1879
3057,1883
3058,1879
3059,1909
3060,1909
3061,1902
3062,1875
3063,1905
3064,1877
3065,1867
3066,1827
3067,1809
3068,1805
3069,1812
3070,1807
3071,1845
3072,1865
3073,1871
3074,1881
3075,1881
3076,1904
3077,1894
3078,1895
3079,1895
3080,1909
3081,1872
3082,1856
3083,1835
3084,1819
3085,1823
3086,1827
3087,1838
3088,1849
3089,1866
3090,1874
3091,1839
3092,1873
3093,1879
3094,1877
3095,1872
3096,1895
3097,1907
3098,1857
3099,1862
3100,1867
3101,1840
3102,1819
3103,1815
3104,1835
3105,1849
3106,1872
3107,1867
3108,1899
3109,1887
3110,1898
3111,1889
3112,1879
3113,1903
3114,1869
3115,1855
3116,1842
3117,1829
3118,1824
3119,1809
3120,1799
3121,1833
3122,1837
3123,1861
3124,1873
3125,1883
3126,1925
3127,1917
3128,1884
3129,1885
3130,1901
3131,1873
3132,1856
3133,1851
3134,1872
3135,1833
3136,1811
3137,1817
3138,1789
3139,1799
3140,1788
3141,1849
3142,1883
3143,1919
3144,1904
3145,1895
3146,1920
3147,1897
3148,1856
3149,1789
3150,1827
3151,1843
3152,1827
3153,1834
3154,1839
3155,1842
3156,1872
3157,1893
3158,1882
3159,1893
3160,1904
3161,1877
3162,1904
3163,1905
3164,1888
3165,1860
3166,1834
3167,1845
3168,1831
3169,1808
3170,1830
3171,1851
3172,1856
3173,1872
3174,1887
3175,1855
3176,1855
3177,1883
3178,1883
3179,1903
3180,1897
3181,1879
3182,1856
3183,1845
3184,1827
3185,1822
3186,1808
3187,1835
3188,1840
3189,1868
3190,1870
3191,1898
3192,1875
3193,1914
3194,1899
3195,1883
3196,1899
3197,1901
3198,1871
3199,1849
3200,1819
3201,1822
3202,1815
3203,1813
3204,1819
3205,1845
3206,1854
3207,1871
3208,1865
3209,1888
3210,1904
3211,1879
3212,1893
3213,1904
3214,1903
3215,1862
3216,1839
3217,1819
3218,1811
3219,1803
3220,1798
3221,1826
3222,1861
3223,1865
3224,1877
3225,1873
3226,1879
3227,1898
3228,1894
3229,1883
3230,1917
3231,1872
3232,1843
3233,1827
3234,1820
3235,1824
3236,1825
3237,1822
3238,1841
3239,1829
3240,1857
3241,1872
3242,1883
3243,1893
3244,1887
3245,1904
3246,1901
3247,1906
3248,1869
3249,1856
3250,1853
3251,1823
3252,1809
3253,1815
3254,1815
3255,1862
3256,1873
3257,1866
3258,1885
3259,1888
3260,1901
3261,1887
3262,1897
3263,1906
3264,1886
3265,1845
3266,1856
3267,1815
3268,1804
3269,1797
3270,1799
3271,1837
3272,1845
3273,1870
3274,1853
3275,1876
3276,1886
3277,1891
3278,1889
3279,1887
3280,1904
3281,1891
3282,1869
3283,1858
3284,1838
3285,1814
3286,1814
3287,1835
3288,1840
3289,1854
3290,1867
3291,1884
3292,1888
3293,1898
3294,1895
3295,1887
3296,1890
3297,1885
3298,1864
3299,1827
3300,1825
3301,1828
3302,1813
3303,1814
3304,1822
3305,1863
3306,1873
3307,1872
3308,1891
3309,1875
3310,1903
3311,1872
3312,1869
3313,1904
3314,1875
3315,1854
3316,1840
3317,1844
3318,1825
3319,1815
3320,1818
3321,1840
3322,1855
3323,1866
3324,1873
3325,1873
3326,1871
3327,1894
3328,1889
3329,1867
3330,1879
3331,1870
3332,1856
3333,1835
3334,1824
3335,1814
3336,1818
3337,1817
3338,1838
3339,1856
3340,1870
3341,1879
3342,1870
3343,1910
3344,1904
3345,1891
3346,1895
3347,1898
3348,1868
3349,1846
3350,1829
3351,1841
3352,1823
3353,1809
3354,1815
3355,1837
3356,1845
3357,1855
3358,1863
3359,1873
3360,1885
3361,1874
3362,1881
3363,1901
3364,1890
3365,1862
3366,1828
3367,1837
3368,1831
3369,1828
3370,1833
3371,1845
3372,1849
3373,1863
3374,1874
3375,1877
3376,1891
3377,1891
3378,1872
3379,1901
3380,1890
3381,1877
3382,1859
3383,1854
3384,1815
3385,1823
3386,1818
3387,1820
3388,1845
3389,1841
3390,1887
3391,1871
3392,1882
3393,1914
3394,1887
3395,1894
3396,1890
3397,1877
3398,1869
3399,1854
3400,1852
3401,1821
3402,1811
3403,1826
3404,1827
3405,1846
3406,1868
3407,1883
3408,1891
3409,1889
3410,1886
3411,1881
3412,1867
3413,1893
3414,1887
3415,1856
3416,1824
3417,1844
3418,1808
3419,1819
3420,1806
3421,1842
3422,1813
3423,1872
3424,1888
3425,1876
3426,1879
3427,1893
3428,1888
3429,1904
3430,1903
3431,1880
3432,1856
3433,1847
3434,1838
3435,1817
3436,1812
3437,1813
3438,1840
3439,1869
3440,1873
3441,1871
3442,1870
3443,1889
3444,1887
3445,1881
3446,1900
3447,1887
3448,1870
3449,1854
3450,1839
3451,1851
3452,1815
3453,1822
3454,1834
3455,1839
3456,1868
3457,1882
3458,1877
3459,1887
3460,1874
3461,1887
3462,1886
3463,1906
3464,1872
3465,1866
3466,1857
3467,1840
3468,1825
3469,1811
3470,1808
3471,1835
3472,1843
3473,1879
3474,1879
3475,1873
3476,1882
3477,1886
3478,1879
3479,1904
3480,1895
3481,1894
3482,1856
3483,1847
3484,1826
3485,1825
3486,1818
3487,1821
3488,1835
3489,1857
3490,1856
3491,1880
3492,1872
3493,1895
3494,1902
3495,1877
3496,1915
3497,1889
3498,1866
3499,1859
3500,1850
3501,1799
3502,1815
3503,1821
3504,1820
3505,1831
3506,1856
3507,1881
3508,1862
3509,1859
3510,1879
3511,1872
3512,1902
3513,1907
3514,1902
3515,1860
3516,1851
3517,1834
3518,1821
3519,1829
3520,1809
3521,1834
3522,1847
3523,1875
3524,1877
3525,1872
3526,1890
3527,1885
3528,1886
3529,1899
3530,1902
3531,1888
3532,1872
3533,1841
3534,1825
3535,1803
3536,1802
3537,1823
3538,1826
3539,1853
3540,1850
3541,1877
3542,1904
3543,1899
3544,1900
3545,1889
3546,1903
3547,1911
3548,1874
3549,1862
3550,1850
3551,1847
3552,1815
3553,1821
3554,1841
3555,1826
3556,1869
3557,1869
3558,1879
3559,1919
3560,1898
3561,1889
3562,1888
3563,1898
3564,1894
3565,1850
3566,1850
3567,1830
3568,1818
3569,1812
3570,1821
3571,1845
3572,1825
3573,1863
3574,1878
3575,1872
3576,1916
3577,1886
3578,1888
3579,1879
3580,1899
3581,1895
3582,1862
3583,1852
3584,1831
3585,1815
3586,1830
3587,1820
3588,1843
3589,1856
3590,1871
3591,1872
3592,1872
3593,1877
3594,1882
3595,1872
3596,1890
3597,1902
3598,1865
3599,1859
3600,1844
3601,1821
3602,1819
3603,1823
3604,1811
3605,1852
3606,1870
3607,1873
3608,1870
3609,1866
3610,1888
3611,1895
3612,1877
3613,1909
3614,1885
3615,1856
3616,1827
3617,1845
3618,1820
3619,1825
3620,1831
3621,1837
3622,1858
3623,1872
3624,1888
3625,1873
3626,1859
3627,1883
3628,1883
3629,1901
3630,1910
3631,1873
3632,1857
3633,1854
3634,1840
3635,1826
3636,1818
3637,1838
3638,1861
3639,1861
3640,1863
3641,1850
3642,1862
3643,1890
3644,1901
3645,1904
3646,1904
3647,1885
3648,1863
3649,1846
3650,1831
3651,1791
3652,1813
3653,1815
3654,1825
3655,1818
3656,1856
3657,1860
3658,1870
3659,1878
3660,1888
3661,1876
3662,1890
3663,1901
3664,1889
3665,1863
3666,1857
3667,1841
3668,1838
3669,1808
3670,1821
3671,1834
3672,1840
3673,1851
3674,1890
3675,1878
3676,1879
3677,1893
3678,1888
3679,1904
3680,1911
3681,1889
3682,1859
3683,1841
3684,1821
3685,1811
3686,1805
3687,1822
3688,1833
3689,1856
3690,1873
3691,1886
3692,1879
3693,1891
3694,1888
3695,1903
3696,1898
3697,1877
3698,1865
3699,1862
3700,1821
3701,1805
3702,1810
3703,1815
3704,1840
3705,1846
3706,1879
3707,1872
3708,1882
3709,1888
3710,1904
3711,1899
3712,1904
3713,1908
3714,1899
3715,1855
3716,1842
3717,1842
3718,1798
3719,1806
3720,1825
3721,1842
3722,1874
3723,1873
3724,1870
3725,1883
3726,1882
3727,1888
3728,1889
3729,1908
3730,1904
3731,1873
3732,1850
3733,1825
3734,1838
3735,1826
3736,1819
3737,1818
3738,1849
3739,1866
3740,1881
3741,1888
3742,1881
3743,1903
3744,1888
3745,1876
3746,1899
3747,1882
3748,1870
3749,1840
3750,1825
3751,1831
3752,1808
3753,1815
3754,1815
3755,1863
3756,1871
3757,1890
3758,1872
3759,1884
3760,1886
3761,1902
3762,1879
3763,1911
3764,1875
3765,1851
3766,1860
3767,1849
3768,1815
3769,1819
3770,1831
3771,1832
3772,1869
3773,1863
3774,1855
3775,1853
3776,1864
3777,1874
3778,1881
3779,1885
3780,1891
3781,1872
3782,1851
3783,1862
3784,1854
3785,1811
3786,1825
3787,1835
3788,1842
3789,1874
3790,1863
3791,1862
3792,1886
3793,1879
3794,1899
3795,1883
3796,1913
3797,1863
3798,1875
3799,1854
3800,1843
3801,1814
3802,1823
3803,1818
3804,1825
3805,1840
3806,1860
3807,1843
3808,1890
3809,1907
3810,1904
3811,1888
3812,1885
3813,1905
3814,1904
3815,1858
3816,1834
3817,1828
3818,1825
3819,1813
3820,1823
3821,1831
3822,1856
3823,1863
3824,1865
3825,1884
3826,1909
3827,1888
3828,1891
3829,1884
3830,1887
3831,1889
3832,1872
3833,1845
3834,1849
3835,1808
3836,1808
3837,1820
3838,1841
3839,1865
3840,1867
3841,1871
3842,1889
3843,1888
3844,1886
3845,1876
3846,1896
3847,1899
3848,1871
3849,1858
3850,1872
3851,1845
3852,1827
3853,1823
3854,1834
3855,1852
3856,1871
3857,1869
3858,1863
3859,1891
3860,1906
3861,1890
3862,1872
3863,1883
3864,1872
3865,1870
3866,1837
3867,1839
3868,1809
3869,1786
3870,1798
3871,1840
3872,1869
3873,1871
3874,1889
3875,1870
3876,1920
3877,1905
3878,1911
3879,1932
3880,1907
3881,1895
3882,1886
3883,1872
3884,1843
3885,1826
3886,1755
3887,1758
3888,1785
3889,1814
3890,1851
3891,1869
3892,1899
3893,1894
3894,1872
3895,1879
3896,1891
3897,1902
3898,1859
3899,1851
3900,1854
3901,1809
3902,1819
3903,1815
3904,1841
3905,1856
3906,1873
3907,1882
3908,1875
3909,1904
3910,1903
3911,1899
3912,1891
3913,1894
3914,1893
3915,1854
3916,1841
3917,1870
3918,1808
3919,1824
3920,1824
3921,1840
3922,1840
3923,1869
3924,1867
3925,1855
3926,1894
3927,1891
3928,1884
3929,1871
3930,1904
3931,1879
3932,1845
3933,1809
3934,1824
3935,1822
3936,1833
3937,1814
3938,1861
3939,1870
3940,1909
3941,1891
3942,1901
3943,1920
3944,1883
3945,1876
3946,1872
3947,1871
3948,1855
3949,1842
3950,1840
3951,1814
3952,1808
3953,1808
3954,1841
3955,1829
3956,1853
3957,1861
3958,1884
3959,1879
3960,1898
3961,1894
3962,1907
3963,1915
3964,1881
3965,1862
3966,1840
3967,1843
3968,1834
3969,1811
3970,1836
3971,1830
3972,1837
3973,1859
3974,1865
3975,1879
3976,1873
3977,1889
3978,1890
3979,1915
3980,1911
3981,1889
3982,1863
3983,1822
3984,1833
3985,1808
3986,1815
3987,1823
3988,1827
3989,1840
3990,1865
3991,1853
3992,1893
3993,1904
3994,1876
3995,1899
3996,1898
3997,1880
3998,1870
3999,1831
4000,1844
4001,1843
4002,1814
4003,1822
4004,1843
4005,1840
4006,1872
4007,1870
4008,1907
4009,1868
4010,1885
4011,1900
4012,1904
4013,1904
4014,1893
4015,1846
4016,1822
4017,1823
4018,1830
4019,1807
4020,1830
4021,1855
4022,1843
4023,1872
4024,1881
4025,1904
4026,1899
4027,1893
4028,1899
4029,1923
4030,1929
4031,1876
4032,1842
4033,1835
4034,1823
4035,1791
4036,1808
4037,1829
4038,1830
4039,1861
4040,1879
4041,1891
4042,1228
4043,2126
4044,1787
4045,1732
4046,1776
4047,1827
4048,1929
4049,1921
4050,1813
4051,1840
4052,1936
4053,1865
4054,1865
4055,1931
4056,2036
4057,2116
4058,2107
4059,2135
4060,2132
4061,2084
4062,1973
4063,1909
4064,1791
4065,1713
4066,1637
4067,1501
4068,1523
4069,1637
4070,1741
4071,1778
4072,1796
4073,973
4074,2099
4075,1722
4076,1658
4077,1699
4078,1787
4079,1917
4080,1909
4081,1850
4082,1982
4083,2004
4084,1904
4085,1915
4086,1971
4087,2035
4088,2100
4089,2109
4090,2059
4091,1997
4092,1884
4093,1811
4094,1702
4095,1673
4096,1716
4097,1748
4098,1769
4099,1786
4100,1778
4101,1798
4102,1798
4103,1792
4104,1355
4105,2157
4106,1787
4107,1701
4108,1778
4109,1833
4110,1825
4111,1733
4112,1747
4113,1983
4114,2076
4115,2018
4116,2046
4117,2096
4118,2128
4119,2115
4120,2045
4121,1974
4122,1888
4123,1774
4124,1663
4125,1653
4126,1674
4127,1723
4128,1777
4129,1840
4130,1872
4131,1827
4132,1815
4133,1839
4134,1808
4135,1511
4136,2141
4137,1771
4138,1680
4139,1751
4140,1749
4141,1589
4142,1535
4143,1767
4144,2075
4145,2150
4146,2132
4147,2139
4148,2205
4149,2251
4150,2197
4151,2068
4152,1921
4153,1779
4154,1691
4155,1610
4156,1623
4157,1689
4158,1774
4159,1794
4160,1838
4161,1852
4162,1871
4163,1889
4164,1873
4165,1850
4166,1862
4167,2220
4168,1855
4169,1712
4170,1723
4171,1648
4172,1502
4173,1529
4174,1820
4175,2141
4176,2105
4177,2039
4178,2135
4179,2290
4180,2288
4181,2208
4182,2037
4183,1885
4184,1725
4185,1607
4186,1571
4187,1600
4188,1691
4189,1770
4190,1808
4191,1823
4192,1849
4193,1858
4194,1872
4195,1866
4196,1904
4197,1899
4198,2202
4199,1902
4200,1729
4201,1802
4202,1654
4203,1434
4204,1470
4205,1866
4206,2199
4207,1975
4208,1933
4209,2166
4210,2297
4211,2299
4212,2222
4213,2077
4214,1863
4215,1689
4216,1616
4217,1600
4218,1617
4219,1711
4220,1743
4221,1762
4222,1792
4223,1819
4224,1851
4225,1873
4226,1919
4227,1893
4228,1894
4229,2224
4230,2021
4231,1801
4232,1881
4233,1697
4234,1391
4235,1487
4236,2054
4237,2039
4238,1722
4239,1892
4240,2190
4241,2331
4242,2320
4243,2135
4244,1984
4245,1823
4246,1724
4247,1662
4248,1637
4249,1690
4250,1750
4251,1767
4252,1765
4253,1769
4254,1808
4255,1815
4256,1854
4257,1866
4258,1899
4259,1885
4260,2131
4261,2032
4262,1815
4263,1911
4264,1712
4265,1429
4266,1717
4267,2256
4268,1906
4269,1620
4270,1867
4271,2157
4272,2322
4273,2256
4274,2127
4275,1963
4276,1793
4277,1698
4278,1662
4279,1739
4280,1783
4281,1842
4282,1831
4283,1738
4284,1736
4285,1776
4286,1785
4287,1800
4288,1843
4289,1854
4290,1872
4291,1955
4292,2074
4293,1831
4294,1919
4295,1744
4296,1513
4297,1845
4298,2202
4299,1765
4300,1661
4301,1911
4302,2160
4303,2269
4304,2223
4305,2094
4306,1920
4307,1753
4308,1669
4309,1621
4310,1703
4311,1786
4312,1841
4313,1873
4314,1840
4315,1807
4316,1809
4317,1811
4318,1790
4319,1791
4320,1795
4321,1813
4322,1803
4323,2043
4324,1799
4325,1882
4326,1710
4327,1499
4328,1916
4329,2286
4330,1786
4331,1713
4332,1987
4333,2192
4334,2245
4335,2172
4336,2023
4337,1855
4338,1726
4339,1648
4340,1634
4341,1697
4342,1775
4343,1828
4344,1853
4345,1818
4346,1834
4347,1859
4348,1840
4349,1832
4350,1839
4351,1820
4352,1819
4353,1273
4354,2065
4355,1808
4356,1889
4357,1753
4358,1602
4359,2128
4360,2354
4361,1638
4362,1601
4363,1970
4364,2199
4365,2241
4366,2183
4367,2059
4368,1871
4369,1697
4370,1607
4371,1574
4372,1651
4373,1730
4374,1773
4375,1825
4376,1860
4377,1859
4378,1872
4379,1908
4380,1903
4381,1878
4382,1858
4383,1859
4384,1134
4385,2087
4386,1762
4387,1844
4388,1808
4389,1669
4390,2158
4391,2333
4392,1485
4393,1563
4394,1903
4395,2153
4396,2256
4397,2242
4398,2082
4399,1898
4400,1759
4401,1613
4402,1535
4403,1589
4404,1690
4405,1789
4406,1837
4407,1803
4408,1847
4409,1893
4410,1887
4411,1891
4412,1897
4413,1911
4414,1891
4415,1178
4416,2123
4417,1822
4418,1858
4419,1763
4420,1574
4421,2083
4422,2257
4423,1518
4424,1504
4425,1936
4426,2197
4427,2255
4428,2218
4429,2111
4430,1946
4431,1790
4432,1689
4433,1623
4434,1635
4435,1695
4436,1742
4437,1713
4438,1767
4439,1845
4440,1858
4441,1895
4442,1885
4443,1889
4444,1901
4445,1904
4446,1850
4447,2199
4448,1871
4449,1855
4450,1857
4451,1653
4452,2091
4453,2252
4454,1473
4455,1459
4456,1846
4457,2125
4458,2223
4459,2224
4460,2114
4461,1953
4462,1793
4463,1695
4464,1622
4465,1622
4466,1665
4467,1761
4468,1761
4469,1766
4470,1743
4471,1798
4472,1840
4473,1872
4474,1885
4475,1882
4476,1929
4477,1962
4478,2193
4479,1899
4480,1899
4481,1830
4482,1584
4483,1978
4484,2352
4485,1558
4486,1459
4487,1840
4488,2128
4489,2214
4490,2203
4491,2122
4492,2015
4493,1831
4494,1719
4495,1632
4496,1665
4497,1715
4498,1766
4499,1780
4500,1766
4501,1808
4502,1806
4503,1801
4504,1782
4505,1853
4506,1879
4507,1904
4508,1904
4509,2209
4510,1929
4511,1859
4512,1923
4513,1677
4514,1963
4515,2359
4516,1573
4517,1430
4518,1807
4519,2079
4520,2195
4521,2224
4522,2137
4523,1996
4524,1856
4525,1704
4526,1598
4527,1627
4528,1699
4529,1807
4530,1833
4531,1831
4532,1831
4533,1811
4534,1815
4535,1813
4536,1826
4537,1822
4538,1868
4539,1872
4540,2181
4541,1968
4542,1807
4543,1911
4544,1637
4545,1872
4546,2432
4547,1844
4548,1509
4549,1770
4550,2074
4551,2154
4552,2160
4553,2079
4554,1972
4555,1830
4556,1719
4557,1617
4558,1645
4559,1722
4560,1777
4561,1831
4562,1840
4563,1867
4564,1874
4565,1841
4566,1839
4567,1815
4568,1815
4569,1816
4570,1841
4571,2109
4572,2003
4573,1810
4574,2017
4575,1840
4576,2029
4577,2527
4578,1572
4579,1369
4580,1711
4581,2035
4582,2138
4583,2181
4584,2089
4585,1936
4586,1775
4587,1644
4588,1584
4589,1613
4590,1699
4591,1759
4592,1810
4593,1855
4594,1860
4595,1869
4596,1898
4597,1911
4598,1888
4599,1853
4600,1840
4601,1858
4602,2032
4603,1954
4604,1799
4605,1932
4606,1703
4607,1802
4608,2401
4609,1703
4610,1424
4611,1751
4612,2092
4613,2243
4614,2272
4615,2156
4616,2014
4617,1797
4618,1669
4619,1587
4620,1584
4621,1643
4622,1738
4623,1795
4624,1823
4625,1835
4626,1874
4627,1887
4628,1883
4629,1862
4630,1919
4631,1886
4632,1871
4633,1726
4634,2038
4635,1745
4636,1850
4637,1636
4638,1678
4639,2393
4640,1936
4641,1457
4642,1670
4643,2011
4644,2225
4645,2255
4646,2199
4647,2075
4648,1888
4649,1734
4650,1599
4651,1585
4652,1619
4653,1697
4654,1693
4655,1795
4656,1839
4657,1857
4658,1854
4659,1891
4660,1909
4661,1892
4662,1897
4663,1903
4664,1905
4665,1870
4666,1834
4667,1847
4668,1840
4669,1824
4670,1822
4671,1840
4672,1855
4673,1873
4674,1897
4675,1895
4676,1916
4677,1903
4678,1894
4679,1869
4680,1871
4681,1857
4682,1847
4683,1845
4684,1808
4685,1809
4686,1822
4687,1840
4688,1853
4689,1878
4690,1889
4691,1899
4692,1881
4693,1883
4694,1870
4695,1863
4696,1897
4697,1886
4698,1869
4699,1873
4700,1827
4701,1831
4702,1815
4703,1822
4704,1825
4705,1843
4706,1870
4707,1873
4708,1889
4709,1902
4710,1884
4711,1877
4712,1895
4713,1893
4714,1871
4715,1861
4716,1841
4717,1832
4718,1821
4719,1827
4720,1837
4721,1842
4722,1859
4723,1857
4724,1870
4725,1887
4726,1874
4727,1856
4728,1867
4729,1904
4730,1891
4731,1882
4732,1872
4733,1851
4734,1840
4735,1792
4736,1799
4737,1813
4738,1871
4739,1871
4740,1871
4741,1887
4742,1853
4743,1857
4744,1896
4745,1895
4746,1904
4747,1893
4748,1844
4749,1856
4750,1811
4751,1838
4752,1808
4753,1815
4754,1803
4755,1846
4756,1866
4757,1893
4758,1875
4759,1887
4760,1899
4761,1901
4762,1891
4763,1904
4764,1841
4765,1818
4766,1813
4767,1808
4768,1791
4769,1766
4770,1798
4771,1829
4772,1874
4773,1905
4774,1907
4775,1886
4776,1893
4777,1904
4778,1907
4779,1913
4780,1889
4781,1868
4782,1827
4783,1808
4784,1793
4785,1809
4786,1849
4787,1870
4788,1904
4789,1886
4790,1897
4791,1889
4792,1915
4793,1908
4794,1905
4795,1879
4796,1904
4797,1892
4798,1847
4799,1834
4800,1826
4801,1827
4802,1826
4803,1826
4804,1839
4805,1856
4806,1870
4807,1863
4808,1861
4809,1872
4810,1893
4811,1887
4812,1885
4813,1903
4814,1894
4815,1854
4816,1840
4817,1826
4818,1830
4819,1825
4820,1825
4821,1833
4822,1855
4823,1870
4824,1869
4825,1874
4826,1887
4827,1888
4828,1887
4829,1911
4830,1905
4831,1875
4832,1835
4833,1867
4834,1837
4835,1809
4836,1814
4837,1809
4838,1841
4839,1887
4840,1888
4841,1875
4842,1876
4843,1887
4844,1897
4845,1879
4846,1904
4847,1894
4848,1866
4849,1855
4850,1835
4851,1814
4852,1799
4853,1806
4854,1809
4855,1839
4856,1873
4857,1872
4858,1863
4859,1873
4860,1893
4861,1891
4862,1893
4863,1891
4864,1875
4865,1861
4866,1852
4867,1840
4868,1829
4869,1824
4870,1823
4871,1831
4872,1861
4873,1856
4874,1865
4875,1886
4876,1901
4877,1883
4878,1893
4879,1931
4880,1885
4881,1885
4882,1865
4883,1840
4884,1854
4885,1808
4886,1813
4887,1823
4888,1820
4889,1854
4890,1879
4891,1867
4892,1904
4893,1893
4894,1901
4895,1882
4896,1895
4897,1891
4898,1870
4899,1857
4900,1840
4901,1826
4902,1823
4903,1815
4904,1827
4905,1844
4906,1870
4907,1881
4908,1874
4909,1883
4910,1893
4911,1889
4912,1904
4913,1901
4914,1874
4915,1857
4916,1842
4917,1839
4918,1825
4919,1802
4920,1809
4921,1833
4922,1851
4923,1878
4924,1894
4925,1873
4926,1911
4927,1897
4928,1885
4929,1885
4930,1911
4931,1878
4932,1859
4933,1851
4934,1781
4935,1823
4936,1830
4937,1839
4938,1810
4939,1858
4940,1869
4941,1890
4942,1891
4943,1894
4944,1883
4945,1891
4946,1879
4947,1872
4948,1853
4949,1824
4950,1846
4951,1813
4952,1799
4953,1808
4954,1810
4955,1843
4956,1865
4957,1871
4958,1883
4959,1891
4960,1893
4961,1890
4962,1883
4963,1904
4964,1885
4965,1868
4966,1850
4967,1856
4968,1814
4969,1823
4970,1797
4971,1826
4972,1849
4973,1866
4974,1877
4975,1887
4976,1875
4977,1885
4978,1893
4979,1908
4980,1903
4981,1874
4982,1859
4983,1854
4984,1827
4985,1820
4986,1821
4987,1843
4988,1838
4989,1872
4990,1861
4991,1898
4992,1906
4993,1899
4994,1898
4995,1891
4996,1905
4997,1869
4998,1860
4999,1856
5000,1830
5001,1835
5002,1812
5003,1818
5004,1847
5005,1843
5006,1864
5007,1877
5008,1873
5009,1889
5010,1888
5011,1887
5012,1889
5013,1904
5014,1879
5015,1856
5016,1842
5017,1840
5018,1824
5019,1799
5020,1813
5021,1840
5022,1872
5023,1886
5024,1889
5025,1904
5026,1909
5027,1883
5028,1883
5029,1890
5030,1883
5031,1834
5032,1847
5033,1834
5034,1818
5035,1803
5036,1824
5037,1841
5038,1837
5039,1847
5040,1870
5041,1872
5042,1884
5043,1887
5044,1898
5045,1886
5046,1905
5047,1901
5048,1854
5049,1849
5050,1858
5051,1840
5052,1809
5053,1822
5054,1830
5055,1847
5056,1877
5057,1892
5058,1875
5059,1887
5060,1886
5061,1882
5062,1879
5063,1937
5064,1878
5065,1838
5066,1830
5067,1823
5068,1822
5069,1808
5070,1806
5071,1840
5072,1845
5073,1874
5074,1876
5075,1861
5076,1889
5077,1888
5078,1885
5079,1915
5080,1904
5081,1873
5082,1840
5083,1840
5084,1801
5085,1819
5086,1819
5087,1840
5088,1856
5089,1865
5090,1882
5091,1876
5092,1888
5093,1899
5094,1900
5095,1893
5096,1898
5097,1892
5098,1855
5099,1839
5100,1841
5101,1831
5102,1812
5103,1825
5104,1835
5105,1831
5106,1875
5107,1869
5108,1888
5109,1870
5110,1888
5111,1886
5112,1906
5113,1899
5114,1886
5115,1860
5116,1847
5117,1829
5118,1815
5119,1807
5120,1811
5121,1840
5122,1835
5123,1859
5124,1868
5125,1870
5126,1902
5127,1874
5128,1879
5129,1895
5130,1872
5131,1872
5132,1843
5133,1840
5134,1846
5135,1809
5136,1817
5137,1844
5138,1839
5139,1859
5140,1851
5141,1891
5142,1898
5143,1894
5144,1875
5145,1903
5146,1913
5147,1909
5148,1860
5149,1838
5150,1822
5151,1828
5152,1819
5153,1808
5154,1837
5155,1819
5156,1856
5157,1878
5158,1839
5159,1865
5160,1893
5161,1892
5162,1897
5163,1890
5164,1885
5165,1872
5166,1858
5167,1844
5168,1821
5169,1823
5170,1840
5171,1830
5172,1854
5173,1853
5174,1862
5175,1870
5176,1889
5177,1887
5178,1894
5179,1900
5180,1915
5181,1870
5182,1856
5183,1846
5184,1831
5185,1810
5186,1808
5187,1818
5188,1815
5189,1861
5190,1859
5191,1904
5192,1899
5193,1903
5194,1875
5195,1899
5196,1904
5197,1902
5198,1878
5199,1855
5200,1851
5201,1844
5202,1803
5203,1815
5204,1839
5205,1837
5206,1865
5207,1876
5208,1890
5209,1887
5210,1898
5211,1893
5212,1907
5213,1905
5214,1869
5215,1856
5216,1847
5217,1837
5218,1808
5219,1808
5220,1810
5221,1840
5222,1849
5223,1879
5224,1904
5225,1903
5226,1883
5227,1904
5228,1904
5229,1916
5230,1921
5231,1871
5232,1860
5233,1836
5234,1807
5235,1808
5236,1791
5237,1794
5238,1840
5239,1856
5240,1861
5241,1887
5242,1925
5243,1909
5244,1915
5245,1897
5246,1902
5247,1894
5248,1840
5249,1810
5250,1833
5251,1824
5252,1815
5253,1819
5254,1838
5255,1859
5256,1873
5257,1855
5258,1900
5259,1918
5260,1895
5261,1890
5262,1904
5263,1902
5264,1879
5265,1867
5266,1856
5267,1827
5268,1818
5269,1811
5270,1828
5271,1837
5272,1851
5273,1889
5274,1874
5275,1875
5276,1872
5277,1895
5278,1879
5279,1901
5280,1899
5281,1872
5282,1845
5283,1822
5284,1793
5285,1814
5286,1825
5287,1817
5288,1838
5289,1867
5290,1877
5291,1878
5292,1867
5293,1888
5294,1878
5295,1883
5296,1906
5297,1872
5298,1878
5299,1862
5300,1840
5301,1825
5302,1807
5303,1806
5304,1825
5305,1838
5306,1851
5307,1872
5308,1856
5309,1831
5310,1884
5311,1888
5312,1891
5313,1867
5314,1874
5315,1870
5316,1841
5317,1840
5318,1835
5319,1817
5320,1808
5321,1829
5322,1872
5323,1865
5324,1875
5325,1870
5326,1898
5327,1903
5328,1899
5329,1905
5330,1902
5331,1869
5332,1866
5333,1828
5334,1824
5335,1818
5336,1809
5337,1819
5338,1823
5339,1861
5340,1863
5341,1885
5342,1887
5343,1891
5344,1882
5345,1885
5346,1904
5347,1891
5348,1862
5349,1863
5350,1842
5351,1821
5352,1819
5353,1808
5354,1836
5355,1842
5356,1870
5357,1874
5358,1861
5359,1893
5360,1891
5361,1889
5362,1904
5363,1894
5364,1881
5365,1841
5366,1827
5367,1809
5368,1819
5369,1823
5370,1826
5371,1839
5372,1851
5373,1856
5374,1878
5375,1884
5376,1914
5377,1897
5378,1890
5379,1904
5380,1910
5381,1871
5382,1861
5383,1853
5384,1847
5385,1810
5386,1815
5387,1814
5388,1845
5389,1867
5390,1875
5391,1875
5392,1873
5393,1887
5394,1894
5395,1889
5396,1895
5397,1885
5398,1859
5399,1826
5400,1835
5401,1839
5402,1803
5403,1820
5404,1838
5405,1841
5406,1874
5407,1903
5408,1870
5409,1877
5410,1888
5411,1888
5412,1891
5413,1906
5414,1888
5415,1850
5416,1836
5417,1855
5418,1818
5419,1835
5420,1828
5421,1830
5422,1875
5423,1863
5424,1856
5425,1853
5426,1904
5427,1895
5428,1902
5429,1903
5430,1889
5431,1869
5432,1851
5433,1857
5434,1841
5435,1820
5436,1815
5437,1840
5438,1831
5439,1872
5440,1884
5441,1861
5442,1889
5443,1895
5444,1875
5445,1902
5446,1905
5447,1918
5448,1877
5449,1847
5450,1847
5451,1836
5452,1823
5453,1822
5454,1821
5455,1791
5456,1834
5457,1861
5458,1866
5459,1856
5460,1879
5461,1888
5462,1893
5463,1884
5464,1886
5465,1859
5466,1865
5467,1827
5468,1819
5469,1818
5470,1822
5471,1842
5472,1874
5473,1877
5474,1906
5475,1911
5476,1883
5477,1909
5478,1885
5479,1904
5480,1875
5481,1874
5482,1882
5483,1852
5484,1836
5485,1803
5486,1803
5487,1833
5488,1847
5489,1840
5490,1863
5491,1879
5492,1898
5493,1899
5494,1876
5495,1874
5496,1899
5497,1896
5498,1872
5499,1853
5500,1829
5501,1797
5502,1807
5503,1806
5504,1846
5505,1854
5506,1879
5507,1903
5508,1886
5509,1891
5510,1879
5511,1871
5512,1890
5513,1894
5514,1867
5515,1839
5516,1841
5517,1843
5518,1825
5519,1809
5520,1828
5521,1825
5522,1829
5523,1867
5524,1889
5525,1891
5526,1893
5527,1886
5528,1899
5529,1903
5530,1889
5531,1875
5532,1855
5533,1839
5534,1843
5535,1815
5536,1819
5537,1809
5538,1826
5539,1850
5540,1875
5541,1872
5542,1879
5543,1893
5544,1873
5545,1872
5546,1902
5547,1872
5548,1858
5549,1828
5550,1856
5551,1817
5552,1815
5553,1842
5554,1845
5555,1872
5556,1867
5557,1872
5558,1901
5559,1891
5560,1872
5561,1872
5562,1894
5563,1862
5564,1869
5565,1849
5566,1835
5567,1822
5568,1815
5569,1808
5570,1813
5571,1836
5572,1846
5573,1872
5574,1893
5575,1858
5576,1878
5577,1882
5578,1887
5579,1893
5580,1888
5581,1875
5582,1855
5583,1819
5584,1831
5585,1807
5586,1814
5587,1817
5588,1815
5589,1845
5590,1873
5591,1857
5592,1888
5593,1898
5594,1904
5595,1898
5596,1904
5597,1901
5598,1862
5599,1840
5600,1825
5601,1840
5602,1817
5603,1834
5604,1840
5605,1830
5606,1861
5607,1882
5608,1881
5609,1856
5610,1894
5611,1889
5612,1877
5613,1903
5614,1870
5615,1854
5616,1827
5617,1829
5618,1821
5619,1828
5620,1830
5621,1840
5622,1872
5623,1863
5624,1878
5625,1866
5626,1897
5627,1887
5628,1887
5629,1899
5630,1904
5631,1866
5632,1852
5633,1808
5634,1817
5635,1809
5636,1810
5637,1819
5638,1815
5639,1867
5640,1877
5641,1872
5642,1882
5643,1895
5644,1895
5645,1887
5646,1904
5647,1893
5648,1872
5649,1846
5650,1863
5651,1835
5652,1808
5653,1808
5654,1826
5655,1865
5656,1870
5657,1889
5658,1882
5659,1894
5660,2059
5661,1776
5662,1745
5663,1809
5664,1885
5665,1953
5666,1919
5667,1840
5668,1951
5669,1989
5670,1798
5671,1758
5672,1890
5673,2005
5674,2094
5675,2117
5676,2096
5677,2078
5678,2013
5679,1931
5680,1831
5681,1745
5682,1683
5683,1634
5684,1581
5685,1600
5686,1680
5687,1759
5688,1783
5689,1825
5690,1319
5691,2098
5692,1748
5693,1690
5694,1729
5695,1838
5696,1943
5697,1904
5698,1859
5699,2055
5700,1945
5701,1859
5702,1883
5703,1959
5704,2047
5705,2098
5706,2077
5707,2039
5708,1960
5709,1872
5710,1799
5711,1729
5712,1718
5713,1743
5714,1740
5715,1755
5716,1759
5717,1792
5718,1781
5719,1778
5720,1782
5721,977
5722,2127
5723,1727
5724,1701
5725,1743
5726,1809
5727,1789
5728,1727
5729,1851
5730,2039
5731,2071
5732,2065
5733,2081
5734,2112
5735,2134
5736,2122
5737,2066
5738,1973
5739,1881
5740,1769
5741,1698
5742,1655
5743,1664
5744,1727
5745,1776
5746,1826
5747,1853
5748,1827
5749,1826
5750,1823
5751,1814
5752,975
5753,2095
5754,1737
5755,1695
5756,1763
5757,1745
5758,1600
5759,1574
5760,1827
5761,2129
5762,2137
5763,2128
5764,2131
5765,2171
5766,2207
5767,2146
5768,2032
5769,1874
5770,1760
5771,1663
5772,1616
5773,1605
5774,1695
5775,1753
5776,1803
5777,1827
5778,1834
5779,1872
5780,1860
5781,1869
5782,1883
5783,1505
5784,2160
5785,1747
5786,1685
5787,1712
5788,1698
5789,1489
5790,1599
5791,1972
5792,2237
5793,2152
5794,2043
5795,2151
5796,2288
5797,2275
5798,2179
5799,2023
5800,1855
5801,1665
5802,1566
5803,1535
5804,1607
5805,1712
5806,1767
5807,1805
5808,1813
5809,1858
5810,1880
5811,1885
5812,1885
5813,1904
5814,1912
5815,2203
5816,1847
5817,1707
5818,1723
5819,1535
5820,1323
5821,1468
5822,2003
5823,2311
5824,2002
5825,2037
5826,2255
5827,2367
5828,2322
5829,2182
5830,2017
5831,1794
5832,1662
5833,1579
5834,1609
5835,1651
5836,1719
5837,1764
5838,1738
5839,1757
5840,1827
5841,1861
5842,1866
5843,1882
5844,1872
5845,1909
5846,2247
5847,1899
5848,1813
5849,1835
5850,1535
5851,1291
5852,1575
5853,2150
5854,1996
5855,1810
5856,2005
5857,2271
5858,2395
5859,2332
5860,2160
5861,1962
5862,1778
5863,1680
5864,1602
5865,1621
5866,1681
5867,1739
5868,1728
5869,1754
5870,1776
5871,1829
5872,1855
5873,1860
5874,1884
5875,1893
5876,1884
5877,2256
5878,1949
5879,1811
5880,1849
5881,1584
5882,1399
5883,1774
5884,2289
5885,1923
5886,1731
5887,1961
5888,2246
5889,2330
5890,2255
5891,2086
5892,1908
5893,1760
5894,1625
5895,1600
5896,1695
5897,1757
5898,1789
5899,1789
5900,1758
5901,1770
5902,1785
5903,1803
5904,1840
5905,1863
5906,1865
5907,1872
5908,2165
5909,2000
5910,1796
5911,1846
5912,1616
5913,1440
5914,1901
5915,2310
5916,1841
5917,1733
5918,2019
5919,2230
5920,2285
5921,2221
5922,2096
5923,1900
5924,1741
5925,1654
5926,1638
5927,1712
5928,1773
5929,1851
5930,1838
5931,1772
5932,1794
5933,1828
5934,1808
5935,1787
5936,1802
5937,1825
5938,1840
5939,2123
5940,1986
5941,1779
5942,1829
5943,1574
5944,1407
5945,2033
5946,2321
5947,1782
5948,1787
5949,2082
5950,2256
5951,2307
5952,2180
5953,2018
5954,1853
5955,1702
5956,1606
5957,1611
5958,1666
5959,1771
5960,1815
5961,1849
5962,1840
5963,1873
5964,1856
5965,1831
5966,1846
5967,1814
5968,1821
5969,1840
5970,1834
5971,2005
5972,1791
5973,1884
5974,1708
5975,1615
5976,2259
5977,2299
5978,1601
5979,1688
5980,2016
5981,2221
5982,2256
5983,2176
5984,1969
5985,1809
5986,1669
5987,1569
5988,1565
5989,1651
5990,1715
5991,1806
5992,1827
5993,1859
5994,1853
5995,1875
5996,1903
5997,1899
5998,1872
5999,1845
6000,1872
6001,1745
6002,2009
6003,1726
6004,1840
6005,1668
6006,1588
6007,2354
6008,2283
6009,1535
6010,1686
6011,2060
6012,2238
6013,2268
6014,2151
6015,2000
6016,1811
6017,1664
6018,1535
6019,1557
6020,1635
6021,1735
6022,1815
6023,1840
6024,1815
6025,1823
6026,1854
6027,1870
6028,1892
6029,1909
6030,1927
6031,1889
6032,1243
6033,2098
6034,1773
6035,1762
6036,1573
6037,1408
6038,2122
6039,2327
6040,1666
6041,1728
6042,2047
6043,2244
6044,2301
6045,2223
6046,2096
6047,1860
6048,1712
6049,1594
6050,1605
6051,1613
6052,1684
6053,1726
6054,1742
6055,1774
6056,1822
6057,1850
6058,1866
6059,1904
6060,1900
6061,1907
6062,1931
6063,1266
6064,2181
6065,1818
6066,1853
6067,1719
6068,1514
6069,2239
6070,2209
6071,1505
6072,1607
6073,1985
6074,2193
6075,2237
6076,2208
6077,2032
6078,1863
6079,1738
6080,1648
6081,1627
6082,1670
6083,1757
6084,1816
6085,1723
6086,1717
6087,1781
6088,1833
6089,1855
6090,1860
6091,1875
6092,1895
6093,1918
6094,1665
6095,2259
6096,1927
6097,1899
6098,1747
6099,1515
6100,2235
6101,2317
6102,1466
6103,1487
6104,1908
6105,2151
6106,2218
6107,2192
6108,2093
6109,1936
6110,1805
6111,1654
6112,1710
6113,1887
6114,2011
6115,1924
6116,1456
6117,1555
6118,1702
6119,1754
6120,1767
6121,1809
6122,1845
6123,1872
6124,1872
6125,1770
6126,2214
6127,1874
6128,1863
6129,1775
6130,1526
6131,2219
6132,2352
6133,1603
6134,1554
6135,1890
6136,2115
6137,2189
6138,2157
6139,2064
6140,1865
6141,1752
6142,1678
6143,1638
6144,1687
6145,1744
6146,1840
6147,1863
6148,1808
6149,1802
6150,1831
6151,1830
6152,1799
6153,1845
6154,1851
6155,1857
6156,1887
6157,2230
6158,1927
6159,1803
6160,1774
6161,1513
6162,2085
6163,2423
6164,1710
6165,1535
6166,1893
6167,2135
6168,2189
6169,2176
6170,2064
6171,1874
6172,1741
6173,1630
6174,1604
6175,1667
6176,1725
6177,1823
6178,1826
6179,1837
6180,1885
6181,1850
6182,1840
6183,1831
6184,1845
6185,1838
6186,1837
6187,1829
6188,2230
6189,1910
6190,1808
6191,1829
6192,1517
6193,2064
6194,2384
6195,1700
6196,1587
6197,1923
6198,2173
6199,2241
6200,2228
6201,2068
6202,1855
6203,1715
6204,1601
6205,1569
6206,1659
6207,1721
6208,1791
6209,1847
6210,1809
6211,1830
6212,1875
6213,1894
6214,1890
6215,1889
6216,1872
6217,1857
6218,1838
6219,2128
6220,1935
6221,1776
6222,1863
6223,1578
6224,1939
6225,2485
6226,1750
6227,1510
6228,1867
6229,2160
6230,2271
6231,2254
6232,2109
6233,1890
6234,1709
6235,1591
6236,1520
6237,1535
6238,1663
6239,1731
6240,1809
6241,1843
6242,1897
6243,1875
6244,1883
6245,1874
6246,1920
6247,1889
6248,1871
6249,1872
6250,2085
6251,1982
6252,1712
6253,1776
6254,1488
6255,1718
6256,2489
6257,1889
6258,1523
6259,1827
6260,2144
6261,2256
6262,2257
6263,2173
6264,1968
6265,1776
6266,1650
6267,1566
6268,1600
6269,1658
6270,1746
6271,1765
6272,1783
6273,1822
6274,1845
6275,1902
6276,1907
6277,1905
6278,1920
6279,1924
6280,1892
6281,1872
6282,1851
6283,1838
6284,1837
6285,1827
6286,1829
6287,1817
6288,1872
6289,1879
6290,1877
6291,1904
6292,1924
6293,1942
6294,1897
6295,1875
6296,1901
6297,1855
6298,1819
6299,1814
6300,1815
6301,1822
6302,1801
6303,1815
6304,1850
6305,1860
6306,1874
6307,1900
6308,1891
6309,1904
6310,1895
6311,1891
6312,1895
6313,1901
6314,1869
6315,1850
6316,1840
6317,1847
6318,1817
6319,1826
6320,1837
6321,1846
6322,1877
6323,1872
6324,1872
6325,1875
6326,1902
6327,1885
6328,1887
6329,1899
6330,1871
6331,1872
6332,1847
6333,1837
6334,1842
6335,1799
6336,1805
6337,1812
6338,1845
6339,1871
6340,1872
6341,1864
6342,1877
6343,1894
6344,1891
6345,1902
6346,1922
6347,1913
6348,1872
6349,1833
6350,1802
6351,1809
6352,1811
6353,1806
6354,1814
6355,1827
6356,1842
6357,1855
6358,1840
6359,1875
6360,1893
6361,1894
6362,1926
6363,1904
6364,1891
6365,1883
6366,1863
6367,1869
6368,1855
6369,1840
6370,1776
6371,1766
6372,1838
6373,1851
6374,1879
6375,1887
6376,1887
6377,1875
6378,1870
6379,1895
6380,1886
6381,1859
6382,1834
6383,1841
6384,1823
6385,1809
6386,1818
6387,1840
6388,1847
6389,1881
6390,1885
6391,1886
6392,1883
6393,1878
6394,1873
6395,1872
6396,1921
6397,1901
6398,1861
6399,1847
6400,1843
6401,1855
6402,1828
6403,1834
6404,1844
6405,1852
6406,1873
6407,1872
6408,1891
6409,1890
6410,1893
6411,1890
6412,1908
6413,1909
6414,1877
6415,1840
6416,1831
6417,1834
6418,1814
6419,1818
6420,1808
6421,1838
6422,1854
6423,1872
6424,1866
6425,1881
6426,1883
6427,1879
6428,1893
6429,1903
6430,1879
6431,1872
6432,1851
6433,1827
6434,1831
6435,1820
6436,1823
6437,1850
6438,1846
6439,1870
6440,1881
6441,1859
6442,1872
6443,1897
6444,1889
6445,1868
6446,1901
6447,1872
6448,1849
6449,1843
6450,1846
6451,1842
6452,1811
6453,1827
6454,1827
6455,1862
6456,1863
6457,1877
6458,1883
6459,1888
6460,1895
6461,1893
6462,1897
6463,1907
6464,1879
6465,1856
6466,1851
6467,1858
6468,1807
6469,1812
6470,1817
6471,1815
6472,1850
6473,1883
6474,1878
6475,1872
6476,1883
6477,1878
6478,1886
6479,1902
6480,1891
6481,1872
6482,1846
6483,1867
6484,1840
6485,1808
6486,1811
6487,1840
6488,1837
6489,1874
6490,1867
6491,1889
6492,1884
6493,1894
6494,1886
6495,1887
6496,1900
6497,1863
6498,1855
6499,1839
6500,1824
6501,1824
6502,1821
6503,1824
6504,1845
6505,1845
6506,1843
6507,1856
6508,1843
6509,1894
6510,1901
6511,1891
6512,1901
6513,1904
6514,1878
6515,1856
6516,1857
6517,1831
6518,1823
6519,1825
6520,1811
6521,1814
6522,1847
6523,1859
6524,1871
6525,1872
6526,1885
6527,1891
6528,1892
6529,1907
6530,1895
6531,1882
6532,1877
6533,1845
6534,1854
6535,1837
6536,1817
6537,1834
6538,1818
6539,1823
6540,1822
6541,1841
6542,1856
6543,1877
6544,1891
6545,1877
6546,1906
6547,1863
6548,1864
6549,1853
6550,1831
6551,1840
6552,1817
6553,1829
6554,1839
6555,1829
6556,1872
6557,1855
6558,1887
6559,1904
6560,1904
6561,1893
6562,1867
6563,1903
6564,1879
6565,1855
6566,1829
6567,1824
6568,1824
6569,1818
6570,1813
6571,1837
6572,1851
6573,1861
6574,1856
6575,1874
6576,1882
6577,1888
6578,1895
6579,1900
6580,1892
6581,1880
6582,1847
6583,1856
6584,1824
6585,1814
6586,1822
6587,1853
6588,1844
6589,1854
6590,1882
6591,1890
6592,1872
6593,1891
6594,1887
6595,1872
6596,1905
6597,1883
6598,1844
6599,1840
6600,1831
6601,1824
6602,1826
6603,1821
6604,1845
6605,1865
6606,1868
6607,1862
6608,1872
6609,1889
6610,1889
6611,1885
6612,1862
6613,1887
6614,1879
6615,1870
6616,1847
6617,1851
6618,1821
6619,1833
6620,1840
6621,1832
6622,1833
6623,1875
6624,1888
6625,1859
6626,1879
6627,1879
6628,1873
6629,1883
6630,1878
6631,1872
6632,1840
6633,1840
6634,1841
6635,1821
6636,1818
6637,1841
6638,1839
6639,1866
6640,1874
6641,1894
6642,1891
6643,1887
6644,1887
6645,1904
6646,1872
6647,1875
6648,1856
6649,1840
6650,1839
6651,1831
6652,1831
6653,1835
6654,1843
6655,1835
6656,1863
6657,1889
6658,1902
6659,1888
6660,1883
6661,1870
6662,1846
6663,1907
6664,1887
6665,1842
6666,1863
6667,1818
6668,1840
6669,1821
6670,1821
6671,1810
6672,1833
6673,1872
6674,1879
6675,1854
6676,1872
6677,1877
6678,1875
6679,1895
6680,1891
6681,1873
6682,1860
6683,1858
6684,1813
6685,1813
6686,1819
6687,1815
6688,1840
6689,1861
6690,1862
6691,1878
6692,1889
6693,1890
6694,1889
6695,1872
6696,1875
6697,1874
6698,1875
6699,1868
6700,1856
6701,1817
6702,1823
6703,1820
6704,1840
6705,1861
6706,1855
6707,1875
6708,1877
6709,1905
6710,1892
6711,1889
6712,1859
6713,1920
6714,1879
6715,1846
6716,1847
6717,1840
6718,1811
6719,1826
6720,1818
6721,1859
6722,1859
6723,1883
6724,1879
6725,1877
6726,1878
6727,1890
6728,1885
6729,1895
6730,1876
6731,1871
6732,1857
6733,1843
6734,1823
6735,1821
6736,1821
6737,1795
6738,1850
6739,1863
6740,1872
6741,1905
6742,1872
6743,1891
6744,1889
6745,1883
6746,1878
6747,1873
6748,1845
6749,1831
6750,1863
6751,1823
6752,1826
6753,1824
6754,1841
6755,1863
6756,1858
6757,1865
6758,1875
6759,1885
6760,1891
6761,1895
6762,1929
6763,1898
6764,1883
6765,1846
6766,1857
6767,1843
6768,1814
6769,1813
6770,1815
6771,1836
6772,1872
6773,1865
6774,1870
6775,1858
6776,1884
6777,1882
6778,1879
6779,1886
6780,1869
6781,1866
6782,1850
6783,1845
6784,1839
6785,1813
6786,1820
6787,1802
6788,1854
6789,1875
6790,1881
6791,1872
6792,1872
6793,1893
6794,1887
6795,1880
6796,1903
6797,1873
6798,1845
6799,1827
6800,1857
6801,1809
6802,1825
6803,1823
6804,1834
6805,1839
6806,1863
6807,1866
6808,1895
6809,1891
6810,1887
6811,1884
6812,1860
6813,1897
6814,1874
6815,1840
6816,1824
6817,1831
6818,1809
6819,1814
6820,1826
6821,1841
6822,1868
6823,1875
6824,1893
6825,1887
6826,1895
6827,1872
6828,1888
6829,1911
6830,1906
6831,1855
6832,1840
6833,1831
6834,1809
6835,1818
6836,1815
6837,1854
6838,1847
6839,1877
6840,1891
6841,1887
6842,1904
6843,1901
6844,1897
6845,1882
6846,1891
6847,1859
6848,1840
6849,1829
6850,1831
6851,1809
6852,1801
6853,1810
6854,1837
6855,1863
6856,1885
6857,1902
6858,1882
6859,1878
6860,1887
6861,1890
6862,1930
6863,1913
6864,1869
6865,1847
6866,1840
6867,1816
6868,1813
6869,1811
6870,1818
6871,1817
6872,1849
6873,1876
6874,1872
6875,1894
6876,1906
6877,1895
6878,1882
6879,1925
6880,1905
6881,1872
6882,1829
6883,1858
6884,1815
6885,1814
6886,1815
6887,1833
6888,1838
6889,1852
6890,1885
6891,1910
6892,1898
6893,1889
6894,1890
6895,1895
6896,1899
6897,1866
6898,1850
6899,1842
6900,1840
6901,1829
6902,1811
6903,1815
6904,1853
6905,1861
6906,1889
6907,1911
6908,1871
6909,1902
6910,1881
6911,1889
6912,1878
6913,1887
6914,1876
6915,1862
6916,1835
6917,1838
6918,1808
6919,1811
6920,1812
6921,1843
6922,1857
6923,1865
6924,1879
6925,1889
6926,1883
6927,1873
6928,1871
6929,1897
6930,1900
6931,1869
6932,1842
6933,1850
6934,1825
6935,1819
6936,1820
6937,1817
6938,1858
6939,1869
6940,1872
6941,1887
6942,1923
6943,1886
6944,1884
6945,1888
6946,1913
6947,1888
6948,1861
6949,1855
6950,1811
6951,1837
6952,1795
6953,1808
6954,1824
6955,1851
6956,1838
6957,1846
6958,1867
6959,1895
6960,1886
6961,1886
6962,1918
6963,1881
6964,1873
6965,1867
6966,1842
6967,1835
6968,1812
6969,1814
6970,1812
6971,1840
6972,1870
6973,1857
6974,1897
6975,1887
6976,1895
6977,1878
6978,1899
6979,1903
6980,1892
6981,1872
6982,1855
6983,1840
6984,1834
6985,1801
6986,1805
6987,1803
6988,1840
6989,1872
6990,1879
6991,1886
6992,1872
6993,1891
6994,1891
6995,1904
6996,1894
6997,1870
6998,1872
6999,1856
7000,1835
7001,1821
7002,1809
7003,1818
7004,1840
7005,1840
7006,1856
7007,1866
7008,1900
7009,1904
7010,1894
7011,1887
7012,1905
7013,1898
7014,1871
7015,1831
7016,1857
7017,1831
7018,1814
7019,1810
7020,1810
7021,1831
7022,1872
7023,1856
7024,1887
7025,1891
7026,1888
7027,1889
7028,1873
7029,1905
7030,1898
7031,1863
7032,1849
7033,1842
7034,1840
7035,1809
7036,1822
7037,1834
7038,1858
7039,1877
7040,1877
7041,1893
7042,1904
7043,1887
7044,1872
7045,1852
7046,1885
7047,1879
7048,1845
7049,1819
7050,1834
7051,1808
7052,1797
7053,1809
7054,1835
7055,1848
7056,1871
7057,1877
7058,1890
7059,1895
7060,1890
7061,1888
7062,1891
7063,1900
7064,1885
7065,1861
7066,1835
7067,1853
7068,1810
7069,1811
7070,1799
7071,1807
7072,1853
7073,1869
7074,1899
7075,1877
7076,1893
7077,1882
7078,1885
7079,1901
7080,1883
7081,1873
7082,1851
7083,1841
7084,1814
7085,1809
7086,1811
7087,1842
7088,1831
7089,1870
7090,1874
7091,1877
7092,1889
7093,1890
7094,1887
7095,1897
7096,1930
7097,1870
7098,1856
7099,1840
7100,1835
7101,1823
7102,1822
7103,1808
7104,1837
7105,1856
7106,1863
7107,1871
7108,1845
7109,1893
7110,1903
7111,1890
7112,1891
7113,1896
7114,1871
7115,1847
7116,1862
7117,1840
7118,1812
7119,1823
7120,1808
7121,1858
7122,1851
7123,1846
7124,1886
7125,1873
7126,1902
7127,1894
7128,1901
7129,1902
7130,1906
7131,1872
7132,1851
7133,1830
7134,1814
7135,1811
7136,1808
7137,1823
7138,1862
7139,1857
7140,1872
7141,1870
7142,1906
7143,1893
7144,1889
7145,1904
7146,1895
7147,1872
7148,1857
7149,1850
7150,1837
7151,1821
7152,1801
7153,1815
7154,1838
7155,1813
7156,1856
7157,1895
7158,1890
7159,1898
7160,1892
7161,1890
7162,1898
7163,1904
7164,1873
7165,1847
7166,1835
7167,1808
7168,1813
7169,1815
7170,1818
7171,1861
7172,1861
7173,1872
7174,1860
7175,1891
7176,1902
7177,1875
7178,1888
7179,1892
7180,1907
7181,1872
7182,1851
7183,1851
7184,1840
7185,1815
7186,1815
7187,1835
7188,1857
7189,1870
7190,1883
7191,1872
7192,1890
7193,1889
7194,1887
7195,1876
7196,1895
7197,1872
7198,1841
7199,1818
7200,1824
7201,1827
7202,1819
7203,1811
7204,1826
7205,1860
7206,1879
7207,1872
7208,1886
7209,1884
7210,1879
7211,1885
7212,1899
7213,1900
7214,1872
7215,1859
7216,1814
7217,1811
7218,1808
7219,1822
7220,1828
7221,1842
7222,1865
7223,1866
7224,1889
7225,1878
7226,1881
7227,1884
7228,1889
7229,1904
7230,1893
7231,1871
7232,1831
7233,1856
7234,1811
7235,1819
7236,1820
7237,1838
7238,1871
7239,1871
7240,1893
7241,1883
7242,1920
7243,1887
7244,1891
7245,1906
7246,1909
7247,1879
7248,1844
7249,1840
7250,1823
7251,1824
7252,1822
7253,1822
7254,1839
7255,1834
7256,1861
7257,1856
7258,1858
7259,1893
7260,1897
7261,1879
7262,1893
7263,1890
7264,1867
7265,1861
7266,1836
7267,1816
7268,1823
7269,1821
7270,1831
7271,1829
7272,1872
7273,1871
7274,1890
7275,1904
7276,2047
7277,2020
7278,1791
7279,1825
7280,1882
7281,1968
7282,2078
7283,2075
7284,1936
7285,1952
7286,1929
7287,1707
7288,1621
7289,1774
7290,1958
7291,2080
7292,2057
7293,2064
7294,2058
7295,2010
7296,1926
7297,1798
7298,1678
7299,1618
7300,1639
7301,1589
7302,1578
7303,1666
7304,1746
7305,1796
7306,1829
7307,1761
7308,2047
7309,1751
7310,1738
7311,1780
7312,1916
7313,2029
7314,1979
7315,1817
7316,1887
7317,1953
7318,1803
7319,1879
7320,2000
7321,2067
7322,2114
7323,2118
7324,2057
7325,2016
7326,1890
7327,1756
7328,1680
7329,1668
7330,1674
7331,1712
7332,1744
7333,1776
7334,1766
7335,1785
7336,1797
7337,1812
7338,1627
7339,2046
7340,1751
7341,1711
7342,1766
7343,1849
7344,1872
7345,1767
7346,1821
7347,2015
7348,1995
7349,2037
7350,2042
7351,2085
7352,2098
7353,2108
7354,2057
7355,1978
7356,1858
7357,1746
7358,1647
7359,1627
7360,1667
7361,1728
7362,1796
7363,1798
7364,1817
7365,1797
7366,1811
7367,1795
7368,1805
7369,1190
7370,2076
7371,1714
7372,1686
7373,1730
7374,1706
7375,1635
7376,1647
7377,1866
7378,2096
7379,2182
7380,2181
7381,2192
7382,2210
7383,2243
7384,2177
7385,2012
7386,1869
7387,1716
7388,1618
7389,1583
7390,1600
7391,1701
7392,1801
7393,1815
7394,1835
7395,1829
7396,1870
7397,1856
7398,1839
7399,1811
7400,979
7401,2100
7402,1776
7403,1680
7404,1712
7405,1652
7406,1556
7407,1654
7408,1857
7409,2174
7410,2193
7411,2171
7412,2233
7413,2305
7414,2259
7415,2147
7416,1983
7417,1776
7418,1636
7419,1535
7420,1513
7421,1611
7422,1731
7423,1787
7424,1760
7425,1809
7426,1845
7427,1870
7428,1882
7429,1897
7430,1857
7431,1618
7432,2165
7433,1801
7434,1683
7435,1613
7436,1397
7437,1247
7438,1461
7439,2038
7440,2422
7441,2166
7442,2177
7443,2314
7444,2384
7445,2368
7446,2245
7447,2009
7448,1808
7449,1666
7450,1600
7451,1573
7452,1642
7453,1728
7454,1757
7455,1762
7456,1777
7457,1846
7458,1858
7459,1886
7460,1881
7461,1872
7462,1936
7463,2255
7464,1861
7465,1744
7466,1717
7467,1521
7468,1323
7469,1648
7470,2288
7471,2105
7472,1859
7473,2011
7474,2273
7475,2373
7476,2317
7477,2141
7478,1922
7479,1775
7480,1638
7481,1593
7482,1626
7483,1712
7484,1741
7485,1741
7486,1711
7487,1755
7488,1786
7489,1840
7490,1851
7491,1881
7492,1904
7493,1895
7494,2256
7495,1891
7496,1803
7497,1792
7498,1502
7499,1424
7500,1920
7501,2260
7502,1893
7503,1780
7504,2029
7505,2255
7506,2310
7507,2227
7508,2062
7509,1887
7510,1731
7511,1611
7512,1613
7513,1675
7514,1731
7515,1763
7516,1779
7517,1782
7518,1786
7519,1798
7520,1807
7521,1808
7522,1858
7523,1863
7524,1898
7525,2240
7526,1967
7527,1780
7528,1799
7529,1514
7530,1471
7531,2112
7532,2219
7533,1738
7534,1821
7535,2086
7536,2262
7537,2288
7538,2170
7539,2015
7540,1834
7541,1706
7542,1621
7543,1617
7544,1697
7545,1795
7546,1844
7547,1844
7548,1811
7549,1814
7550,1796
7551,1821
7552,1799
7553,1805
7554,1821
7555,1841
7556,2213
7557,1943
7558,1781
7559,1796
7560,1495
7561,1586
7562,2343
7563,2265
7564,1679
7565,1802
7566,2117
7567,2275
7568,2261
7569,2131
7570,1968
7571,1770
7572,1661
7573,1581
7574,1600
7575,1727
7576,1790
7577,1803
7578,1812
7579,1850
7580,1865
7581,1853
7582,1837
7583,1834
7584,1831
7585,1802
7586,1837
7587,2135
7588,1961
7589,1767
7590,1792
7591,1491
7592,1599
7593,2407
7594,2211
7595,1665
7596,1875
7597,2138
7598,2270
7599,2256
7600,2122
7601,1919
7602,1728
7603,1615
7604,1556
7605,1589
7606,1697
7607,1777
7608,1831
7609,1830
7610,1826
7611,1840
7612,1883
7613,1900
7614,1866
7615,1857
7616,1847
7617,1847
7618,1872
7619,1983
7620,1746
7621,1805
7622,1535
7623,1573
7624,2413
7625,2192
7626,1616
7627,1776
7628,2095
7629,2304
7630,2293
7631,2198
7632,1985
7633,1744
7634,1583
7635,1523
7636,1535
7637,1642
7638,1727
7639,1808
7640,1827
7641,1806
7642,1840
7643,1865
7644,1878
7645,1892
7646,1913
7647,1885
7648,1857
7649,1611
7650,2007
7651,1738
7652,1755
7653,1500
7654,1494
7655,2360
7656,2167
7657,1574
7658,1776
7659,2101
7660,2309
7661,2320
7662,2265
7663,2083
7664,1807
7665,1648
7666,1535
7667,1535
7668,1610
7669,1692
7670,1744
7671,1776
7672,1786
7673,1821
7674,1849
7675,1862
7676,1884
7677,1913
7678,1902
7679,1921
7680,1377
7681,2100
7682,1776
7683,1753
7684,1487
7685,1425
7686,2352
7687,2253
7688,1597
7689,1718
7690,2064
7691,2247
7692,2289
7693,2212
7694,2039
7695,1830
7696,1723
7697,1591
7698,1535
7699,1625
7700,1709
7701,1744
7702,1756
7703,1798
7704,1829
7705,1852
7706,1861
7707,1872
7708,1879
7709,1931
7710,1905
7711,1329
7712,2189
7713,1856
7714,1813
7715,1583
7716,1469
7717,2306
7718,2194
7719,1568
7720,1681
7721,2067
7722,2265
7723,2288
7724,2227
7725,2053
7726,1859
7727,1695
7728,1574
7729,1607
7730,1651
7731,1728
7732,1766
7733,1795
7734,1779
7735,1778
7736,1807
7737,1817
7738,1833
7739,1882
7740,1889
7741,1891
7742,1734
7743,2223
7744,1872
7745,1830
7746,1653
7747,1429
7748,2243
7749,2315
7750,1576
7751,1650
7752,1969
7753,2179
7754,2243
7755,2192
7756,2067
7757,1867
7758,1713
7759,1619
7760,1591
7761,1648
7762,1747
7763,1795
7764,1796
7765,1808
7766,1819
7767,1805
7768,1808
7769,1829
7770,1845
7771,1883
7772,1867
7773,1933
7774,2199
7775,1857
7776,1850
7777,1706
7778,1479
7779,2269
7780,2405
7781,1614
7782,1622
7783,1917
7784,2158
7785,2208
7786,2171
7787,2026
7788,1890
7789,1722
7790,1627
7791,1590
7792,1691
7793,1744
7794,1803
7795,1836
7796,1859
7797,1854
7798,1853
7799,1846
7800,1855
7801,1815
7802,1825
7803,1808
7804,1840
7805,2176
7806,1904
7807,1826
7808,1715
7809,1454
7810,2153
7811,2433
7812,1761
7813,1680
7814,1942
7815,2161
7816,2227
7817,2187
7818,2006
7819,1839
7820,1680
7821,1589
7822,1564
7823,1638
7824,1723
7825,1799
7826,1824
7827,1819
7828,1853
7829,1873
7830,1877
7831,1870
7832,1877
7833,1845
7834,1827
7835,1819
7836,2095
7837,1873
7838,1808
7839,1751
7840,1441
7841,2035
7842,2449
7843,1776
7844,1653
7845,1957
7846,2227
7847,2287
7848,2225
7849,2065
7850,1877
7851,1695
7852,1557
7853,1520
7854,1599
7855,1701
7856,1793
7857,1802
7858,1846
7859,1847
7860,1879
7861,1879
7862,1909
7863,1920
7864,1877
7865,1860
7866,1866
7867,2107
7868,1872
7869,1734
7870,1722
7871,1366
7872,1891
7873,2518
7874,1821
7875,1680
7876,1968
7877,2198
7878,2302
7879,2288
7880,2147
7881,1926
7882,1712
7883,1535
7884,1483
7885,1514
7886,1600
7887,1695
7888,1755
7889,1826
7890,1844
7891,1869
7892,1902
7893,1905
7894,1905
7895,1921
7896,1929
7897,1890
7898,1894
7899,1858
7900,1842
7901,1826
7902,1808
7903,1838
7904,1840
7905,1847
7906,1883
7907,1864
7908,1851
7909,1886
7910,1898
7911,1890
7912,1898
7913,1898
7914,1875
7915,1887
7916,1870
7917,1845
7918,1808
7919,1799
7920,1797
7921,1809
7922,1863
7923,1869
7924,1887
7925,1865
7926,1904
7927,1895
7928,1891
7929,1909
7930,1904
7931,1847
7932,1856
7933,1829
7934,1826
7935,1810
7936,1818
7937,1827
7938,1859
7939,1864
7940,1866
7941,1879
7942,1931
7943,1899
7944,1881
7945,1863
7946,1873
7947,1870
7948,1842
7949,1854
7950,1850
7951,1818
7952,1808
7953,1829
7954,1829
7955,1843
7956,1870
7957,1877
7958,1870
7959,1877
7960,1879
7961,1872
7962,1908
7963,1887
7964,1876
7965,1862
7966,1874
7967,1821
7968,1803
7969,1808
7970,1841
7971,1829
7972,1865
7973,1862
7974,1876
7975,1867
7976,1879
7977,1887
7978,1873
7979,1892
7980,1886
7981,1859
7982,1845
7983,1841
7984,1807
7985,1803
7986,1822
7987,1828
7988,1845
7989,1872
7990,1863
7991,1876
7992,1897
7993,1899
7994,1900
7995,1900
7996,1903
7997,1863
7998,1854
7999,1819
8000,1829
8001,1811
8002,1806
8003,1818
8004,1841
8005,1851
8006,1869
8007,1872
8008,1889
8009,1868
8010,1886
8011,1893
8012,1910
8013,1882
8014,1867
8015,1856
8016,1841
8017,1805
8018,1807
8019,1816
8020,1841
8021,1842
8022,1870
8023,1879
8024,1889
8025,1900
8026,1910
8027,1901
8028,1891
8029,1904
8030,1894
8031,1869
8032,1839
8033,1840
8034,1843
8035,1814
8036,1821
8037,1839
8038,1842
8039,1859
8040,1849
8041,1883
8042,1901
8043,1887
8044,1873
8045,1887
8046,1883
8047,1891
8048,1872
8049,1843
8050,1834
8051,1830
8052,1809
8053,1835
8054,1841
8055,1858
8056,1865
8057,1873
8058,1894
8059,1917
8060,1895
8061,1895
8062,1904
8063,1879
8064,1871
8065,1844
8066,1830
8067,1834
8068,1808
8069,1822
8070,1829
8071,1833
8072,1858
8073,1859
8074,1898
8075,1895
8076,1905
8077,1887
8078,1873
8079,1919
8080,1902
8081,1853
8082,1850
8083,1825
8084,1822
8085,1811
8086,1838
8087,1828
8088,1823
8089,1861
8090,1862
8091,1873
8092,1878
8093,1898
8094,1889
8095,1887
8096,1904
8097,1874
8098,1853
8099,1841
8100,1842
8101,1811
8102,1805
8103,1833
8104,1840
8105,1872
8106,1873
8107,1866
8108,1873
8109,1909
8110,1887
8111,1896
8112,1907
8113,1888
8114,1855
8115,1854
8116,1819
8117,1809
8118,1807
8119,1808
8120,1840
8121,1837
8122,1862
8123,1866
8124,1883
8125,1887
8126,1885
8127,1878
8128,1883
8129,1901
8130,1893
8131,1858
8132,1857
8133,1829
8134,1821
8135,1819
8136,1819
8137,1834
8138,1839
8139,1863
8140,1893
8141,1905
8142,1918
8143,1885
8144,1883
8145,1867
8146,1904
8147,1891
8148,1850
8149,1853
8150,1819
8151,1817
8152,1808
8153,1808
8154,1826
8155,1850
8156,1858
8157,1857
8158,1874
8159,1891
8160,1894
8161,1901
8162,1906
8163,1892
8164,1862
8165,1856
8166,1831
8167,1840
8168,1810
8169,1810
8170,1834
8171,1831
8172,1861
8173,1855
8174,1883
8175,1882
8176,1894
8177,1878
8178,1893
8179,1904
8180,1887
8181,1851
8182,1850
8183,1828
8184,1823
8185,1816
8186,1803
8187,1827
8188,1825
8189,1848
8190,1869
8191,1862
8192,1886
8193,1894
8194,1883
8195,1872
8196,1908
8197,1898
8198,1850
8199,1847
8200,1808
8201,1806
8202,1808
8203,1808
8204,1815
8205,1843
8206,1861
8207,1872
8208,1886
8209,1895
8210,1877
8211,1875
8212,1909
8213,1899
8214,1868
8215,1837
8216,1840
8217,1831
8218,1799
8219,1808
8220,1813
8221,1841
8222,1879
8223,1861
8224,1883
8225,1875
8226,1901
8227,1895
8228,1895
8229,1914
8230,1881
8231,1863
8232,1839
8233,1832
8234,1821
8235,1815
8236,1825
8237,1838
8238,1840
8239,1873
8240,1881
8241,1872
8242,1891
8243,1891
8244,1888
8245,1904
8246,1882
8247,1855
8248,1840
8249,1821
8250,1824
8251,1821
8252,1819
8253,1844
8254,1861
8255,1879
8256,1862
8257,1872
8258,1895
8259,1891
8260,1877
8261,1858
8262,1882
8263,1883
8264,1857
8265,1834
8266,1861
8267,1839
8268,1830
8269,1819
8270,1830
8271,1839
8272,1872
8273,1875
8274,1878
8275,1886
8276,1883
8277,1877
8278,1872
8279,1889
8280,1873
8281,1861
8282,1824
8283,1852
8284,1830
8285,1826
8286,1836
8287,1853
8288,1833
8289,1879
8290,1891
8291,1907
8292,1906
8293,1904
8294,1901
8295,1867
8296,1904
8297,1863
8298,1820
8299,1833
8300,1813
8301,1807
8302,1824
8303,1830
8304,1853
8305,1850
8306,1874
8307,1879
8308,1881
8309,1901
8310,1886
8311,1906
8312,1898
8313,1903
8314,1870
8315,1837
8316,1882
8317,1826
8318,1811
8319,1814
8320,1815
8321,1824
8322,1846
8323,1862
8324,1893
8325,1885
8326,1903
8327,1895
8328,1903
8329,1909
8330,1887
8331,1861
8332,1843
8333,1835
8334,1815
8335,1813
8336,1830
8337,1826
8338,1825
8339,1870
8340,1872
8341,1879
8342,1904
8343,1904
8344,1891
8345,1875
8346,1887
8347,1858
8348,1854
8349,1840
8350,1842
8351,1814
8352,1821
8353,1840
8354,1840
8355,1872
8356,1873
8357,1877
8358,1885
8359,1878
8360,1885
8361,1891
8362,1906
8363,1891
8364,1870
8365,1845
8366,1853
8367,1810
8368,1812
8369,1808
8370,1803
8371,1865
8372,1867
8373,1872
8374,1888
8375,1900
8376,1895
8377,1886
8378,1896
8379,1888
8380,1872
8381,1842
8382,1830
8383,1839
8384,1823
8385,1809
8386,1802
8387,1826
8388,1859
8389,1866
8390,1898
8391,1903
8392,1883
8393,1889
8394,1885
8395,1902
8396,1894
8397,1866
8398,1857
8399,1841
8400,1814
8401,1818
8402,1822
8403,1818
8404,1852
8405,1870
8406,1877
8407,1872
8408,1897
8409,1881
8410,1894
8411,1879
8412,1906
8413,1882
8414,1863
8415,1839
8416,1861
8417,1825
8418,1818
8419,1823
8420,1818
8421,1850
8422,1870
8423,1882
8424,1868
8425,1882
8426,1879
8427,1886
8428,1872
8429,1906
8430,1866
8431,1877
8432,1835
8433,1840
8434,1825
8435,1806
8436,1810
8437,1825
8438,1836
8439,1872
8440,1884
8441,1908
8442,1874
8443,1883
8444,1888
8445,1889
8446,1907
8447,1885
8448,1858
8449,1840
8450,1856
8451,1823
8452,1810
8453,1797
8454,1840
8455,1843
8456,1872
8457,1878
8458,1885
8459,1898
8460,1883
8461,1872
8462,1913
8463,1905
8464,1862
8465,1846
8466,1841
8467,1835
8468,1814
8469,1818
8470,1828
8471,1845
8472,1872
8473,1879
8474,1867
8475,1902
8476,1885
8477,1885
8478,1899
8479,1919
8480,1877
8481,1866
8482,1853
8483,1801
8484,1807
8485,1824
8486,1827
8487,1819
8488,1842
8489,1853
8490,1872
8491,1872
8492,1885
8493,1889
8494,1899
8495,1938
8496,1894
8497,1878
8498,1847
8499,1849
8500,1829
8501,1807
8502,1824
8503,1815
8504,1839
8505,1856
8506,1871
8507,1877
8508,1872
8509,1881
8510,1898
8511,1875
8512,1915
8513,1885
8514,1868
8515,1840
8516,1840
8517,1815
8518,1809
8519,1813
8520,1799
8521,1840
8522,1872
8523,1873
8524,1889
8525,1889
8526,1904
8527,1895
8528,1904
8529,1894
8530,1878
8531,1873
8532,1846
8533,1826
8534,1837
8535,1833
8536,1821
8537,1855
8538,1863
8539,1856
8540,1894
8541,1872
8542,1904
8543,1895
8544,1893
8545,1917
8546,1890
8547,1872
8548,1821
8549,1829
8550,1809
8551,1808
8552,1813
8553,1836
8554,1853
8555,1882
8556,1879
8557,1868
8558,1865
8559,1869
8560,1881
8561,1894
8562,1908
8563,1879
8564,1888
8565,1854
8566,1845
8567,1840
8568,1811
8569,1819
8570,1808
8571,1856
8572,1875
8573,1895
8574,1877
8575,1859
8576,1904
8577,1893
8578,1887
8579,1895
8580,1872
8581,1831
8582,1836
8583,1835
8584,1853
8585,1826
8586,1832
8587,1840
8588,1855
8589,1871
8590,1877
8591,1873
8592,1900
8593,1875
8594,1855
8595,1851
8596,1912
8597,1878
8598,1849
8599,1841
8600,1802
8601,1786
8602,1797
8603,1819
8604,1831
8605,1865
8606,1897
8607,1912
8608,1906
8609,1921
8610,1910
8611,1909
8612,1911
8613,1898
8614,1840
8615,1817
8616,1822
8617,1814
8618,1819
8619,1835
8620,1808
8621,1844
8622,1846
8623,1866
8624,1881
8625,1899
8626,1873
8627,1873
8628,1861
8629,1870
8630,1857
8631,1840
8632,1850
8633,1838
8634,1828
8635,1827
8636,1831
8637,1849
8638,1860
8639,1875
8640,1872
8641,1878
8642,1904
8643,1889
8644,1891
8645,1907
8646,1903
8647,1872
8648,1856
8649,1826
8650,1837
8651,1815
8652,1818
8653,1815
8654,1847
8655,1875
8656,1886
8657,1887
8658,1901
8659,1886
8660,1899
8661,1892
8662,1903
8663,1911
8664,1860
8665,1831
8666,1846
8667,1820
8668,1822
8669,1824
8670,1853
8671,1847
8672,1871
8673,1863
8674,1894
8675,1879
8676,1883
8677,1889
8678,1894
8679,1891
8680,1870
8681,1840
8682,1819
8683,1792
8684,1804
8685,1805
8686,1830
8687,1841
8688,1856
8689,1899
8690,1875
8691,1890
8692,1898
8693,1899
8694,1895
8695,1886
8696,1894
8697,1852
8698,1861
8699,1838
8700,1821
8701,1811
8702,1806
8703,1814
8704,1843
8705,1853
8706,1862
8707,1889
8708,1889
8709,1885
8710,1870
8711,1903
8712,1904
8713,1891
8714,1873
8715,1861
8716,1849
8717,1839
8718,1830
8719,1811
8720,1811
8721,1827
8722,1861
8723,1872
8724,1873
8725,1902
8726,1884
8727,1878
8728,1878
8729,1893
8730,1870
8731,1854
8732,1839
8733,1850
8734,1829
8735,1823
8736,1823
8737,1838
8738,1855
8739,1872
8740,1893
8741,1853
8742,1900
8743,1886
8744,1885
8745,1872
8746,1904
8747,1867
8748,1858
8749,1841
8750,1847
8751,1815
8752,1810
8753,1829
8754,1840
8755,1841
8756,1871
8757,1881
8758,1872
8759,1873
8760,1879
8761,1891
8762,1903
8763,1874
8764,1875
8765,1840
8766,1849
8767,1834
8768,1808
8769,1815
8770,1797
8771,1861
8772,1874
8773,1861
8774,1885
8775,1892
8776,1893
8777,1888
8778,1904
8779,1902
8780,1882
8781,1871
8782,1863
8783,1823
8784,1835
8785,1803
8786,1806
8787,1832
8788,1856
8789,1878
8790,1893
8791,1872
8792,1904
8793,1898
8794,1887
8795,1891
8796,1906
8797,1872
8798,1833
8799,1840
8800,1838
8801,1827
8802,1821
8803,1840
8804,1829
8805,1846
8806,1865
8807,1857
8808,1887
8809,1902
8810,1897
8811,1904
8812,1904
8813,1884
8814,1847
8815,1850
8816,1845
8817,1822
8818,1815
8819,1808
8820,1850
8821,1842
8822,1872
8823,1872
8824,1874
8825,1895
8826,1898
8827,1886
8828,1881
8829,1898
8830,1873
8831,1854
8832,1835
8833,1828
8834,1822
8835,1819
8836,1813
8837,1839
8838,1874
8839,1866
8840,1871
8841,1872
8842,1877
8843,1899
8844,1893
8845,1899
8846,1917
8847,1872
8848,1853
8849,1821
8850,1823
8851,1827
8852,1815
8853,1843
8854,1851
8855,1881
8856,1865
8857,1888
8858,1875
8859,1899
8860,1901
8861,1882
8862,1904
8863,1901
8864,1861
8865,1847
8866,1858
8867,1819
8868,1819
8869,1820
8870,1809
8871,1846
8872,1872
8873,1862
8874,1870
8875,1896
8876,1893
8877,1889
8878,1903
8879,1908
8880,1887
8881,1856
8882,1835
8883,1831
8884,1819
8885,1821
8886,1816
8887,1838
8888,1847
8889,1859
8890,1870
8891,1890
8892,1885
8893,2112
8894,1975
8895,1777
8896,1803
8897,1827
8898,1921
8899,2027
8900,2010
8901,1903
8902,1970
8903,1979
8904,1765
8905,1735
8906,1891
8907,1985
8908,2096
8909,2108
8910,2089
8911,2061
8912,1998
8913,1879
8914,1763
8915,1677
8916,1648
8917,1573
8918,1559
8919,1607
8920,1677
8921,1741
8922,1795
8923,1832
8924,2006
8925,1950
8926,1725
8927,1731
8928,1771
8929,1899
8930,1982
8931,1910
8932,1867
8933,2011
8934,1936
8935,1853
8936,1935
8937,2071
8938,2129
8939,2112
8940,2067
8941,2046
8942,1981
8943,1860
8944,1744
8945,1705
8946,1634
8947,1648
8948,1707
8949,1744
8950,1776
8951,1800
8952,1791
8953,1808
8954,1837
8955,1909
8956,1970
8957,1745
8958,1761
8959,1803
8960,1871
8961,1910
8962,1861
8963,1925
8964,2058
8965,1969
8966,1977
8967,2005
8968,2065
8969,2101
8970,2125
8971,2060
8972,1968
8973,1840
8974,1744
8975,1641
8976,1614
8977,1651
8978,1744
8979,1810
8980,1797
8981,1821
8982,1808
8983,1819
8984,1802
8985,1802
8986,1350
8987,2114
8988,1706
8989,1659
8990,1683
8991,1728
8992,1648
8993,1650
8994,1867
8995,2083
8996,2162
8997,2192
8998,2190
8999,2204
9000,2223
9001,2143
9002,2029
9003,1872
9004,1741
9005,1637
9006,1577
9007,1601
9008,1691
9009,1746
9010,1810
9011,1848
9012,1860
9013,1854
9014,1849
9015,1823
9016,1829
9017,1005
9018,2095
9019,1722
9020,1671
9021,1639
9022,1614
9023,1479
9024,1564
9025,1883
9026,2256
9027,2302
9028,2242
9029,2249
9030,2299
9031,2288
9032,2158
9033,1959
9034,1795
9035,1661
9036,1596
9037,1587
9038,1657
9039,1743
9040,1775
9041,1737
9042,1778
9043,1823
9044,1841
9045,1872
9046,1886
9047,1863
9048,1189
9049,2145
9050,1745
9051,1671
9052,1647
9053,1520
9054,1413
9055,1601
9056,1936
9057,2304
9058,2176
9059,2139
9060,2270
9061,2377
9062,2320
9063,2171
9064,1963
9065,1775
9066,1630
9067,1563
9068,1561
9069,1637
9070,1734
9071,1721
9072,1753
9073,1775
9074,1809
9075,1865
9076,1871
9077,1878
9078,1896
9079,1693
9080,2224
9081,1821
9082,1714
9083,1660
9084,1463
9085,1309
9086,1533
9087,2087
9088,2321
9089,2089
9090,2113
9091,2305
9092,2413
9093,2306
9094,2138
9095,1936
9096,1781
9097,1613
9098,1535
9099,1573
9100,1614
9101,1697
9102,1753
9103,1771
9104,1797
9105,1831
9106,1834
9107,1882
9108,1892
9109,1888
9110,1936
9111,2261
9112,1904
9113,1773
9114,1711
9115,1425
9116,1267
9117,1535
9118,2187
9119,2212
9120,1975
9121,2115
9122,2311
9123,2391
9124,2295
9125,2160
9126,1926
9127,1738
9128,1633
9129,1584
9130,1616
9131,1681
9132,1756
9133,1767
9134,1759
9135,1776
9136,1794
9137,1847
9138,1874
9139,1863
9140,1881
9141,1872
9142,2295
9143,1935
9144,1758
9145,1723
9146,1424
9147,1293
9148,1737
9149,2434
9150,2160
9151,1910
9152,2085
9153,2273
9154,2335
9155,2267
9156,2064
9157,1873
9158,1694
9159,1606
9160,1600
9161,1652
9162,1760
9163,1808
9164,1791
9165,1747
9166,1770
9167,1796
9168,1791
9169,1808
9170,1839
9171,1847
9172,1872
9173,2221
9174,1943
9175,1778
9176,1753
9177,1478
9178,1408
9179,2006
9180,2434
9181,1929
9182,1819
9183,2055
9184,2259
9185,2288
9186,2165
9187,1985
9188,1809
9189,1657
9190,1581
9191,1611
9192,1697
9193,1776
9194,1826
9195,1848
9196,1823
9197,1836
9198,1821
9199,1840
9200,1826
9201,1820
9202,1823
9203,1840
9204,2182
9205,1968
9206,1761
9207,1723
9208,1440
9209,1360
9210,2044
9211,2448
9212,1927
9213,1953
9214,2219
9215,2361
9216,2356
9217,2206
9218,1943
9219,1712
9220,1573
9221,1508
9222,1535
9223,1666
9224,1765
9225,1827
9226,1847
9227,1844
9228,1840
9229,1887
9230,1884
9231,1860
9232,1853
9233,1850
9234,1850
9235,2066
9236,1915
9237,1705
9238,1718
9239,1467
9240,1447
9241,2219
9242,2357
9243,1812
9244,1903
9245,2223
9246,2415
9247,2352
9248,2182
9249,1926
9250,1654
9251,1511
9252,1456
9253,1522
9254,1648
9255,1730
9256,1798
9257,1835
9258,1867
9259,1872
9260,1871
9261,1879
9262,1918
9263,1895
9264,1878
9265,1861
9266,1877
9267,1973
9268,1694
9269,1737
9270,1467
9271,1461
9272,2306
9273,2317
9274,1742
9275,1875
9276,2183
9277,2345
9278,2327
9279,2197
9280,1941
9281,1715
9282,1571
9283,1475
9284,1527
9285,1617
9286,1694
9287,1774
9288,1802
9289,1810
9290,1857
9291,1874
9292,1891
9293,1908
9294,1914
9295,1904
9296,1875
9297,1792
9298,2015
9299,1767
9300,1772
9301,1424
9302,1397
9303,2302
9304,2337
9305,1674
9306,1827
9307,2187
9308,2391
9309,2325
9310,2147
9311,1922
9312,1746
9313,1594
9314,1535
9315,1588
9316,1629
9317,1702
9318,1743
9319,1755
9320,1783
9321,1808
9322,1854
9323,1884
9324,1918
9325,1894
9326,1890
9327,1883
9328,1349
9329,2142
9330,1821
9331,1789
9332,1510
9333,1415
9334,2229
9335,2312
9336,1690
9337,1776
9338,2147
9339,2362
9340,2306
9341,2173
9342,1930
9343,1728
9344,1586
9345,1533
9346,1586
9347,1713
9348,1760
9349,1801
9350,1783
9351,1743
9352,1776
9353,1808
9354,1835
9355,1846
9356,1875
9357,1896
9358,1886
9359,1264
9360,2154
9361,1845
9362,1840
9363,1615
9364,1397
9365,2187
9366,2395
9367,1648
9368,1729
9369,2077
9370,2304
9371,2285
9372,2152
9373,1922
9374,1729
9375,1609
9376,1535
9377,1590
9378,1664
9379,1771
9380,1789
9381,1810
9382,1811
9383,1824
9384,1813
9385,1827
9386,1833
9387,1854
9388,1871
9389,1883
9390,1663
9391,2219
9392,1908
9393,1842
9394,1643
9395,1456
9396,2221
9397,2421
9398,1685
9399,1716
9400,2081
9401,2279
9402,2259
9403,2080
9404,1871
9405,1725
9406,1616
9407,1535
9408,1606
9409,1698
9410,1764
9411,1813
9412,1859
9413,1861
9414,1856
9415,1839
9416,1819
9417,1842
9418,1814
9419,1808
9420,1837
9421,1885
9422,2223
9423,1900
9424,1808
9425,1703
9426,1415
9427,2124
9428,2493
9429,1813
9430,1707
9431,2064
9432,2278
9433,2253
9434,2123
9435,1890
9436,1693
9437,1584
9438,1521
9439,1535
9440,1687
9441,1783
9442,1819
9443,1840
9444,1857
9445,1893
9446,1917
9447,1872
9448,1831
9449,1883
9450,1819
9451,1840
9452,1872
9453,2178
9454,1858
9455,1791
9456,1678
9457,1377
9458,2083
9459,2524
9460,1779
9461,1709
9462,2102
9463,2361
9464,2342
9465,2176
9466,1921
9467,1712
9468,1535
9469,1450
9470,1497
9471,1610
9472,1739
9473,1823
9474,1836
9475,1818
9476,1851
9477,1871
9478,1881
9479,1938
9480,1898
9481,1888
9482,1884
9483,1846
9484,2192
9485,1860
9486,1722
9487,1635
9488,1341
9489,1895
9490,2608
9491,1907
9492,1663
9493,2007
9494,2295
9495,2366
9496,2223
9497,2000
9498,1767
9499,1623
9500,1469
9501,1486
9502,1584
9503,1680
9504,1772
9505,1808
9506,1838
9507,1857
9508,1865
9509,1899
9510,1893
9511,1889
9512,1922
9513,1926
9514,1875
9515,1861
9516,1872
9517,1823
9518,1840
9519,1806
9520,1829
9521,1845
9522,1882
9523,1891
9524,1909
9525,1920
9526,1916
9527,1905
9528,1898
9529,1894
9530,1874
9531,1869
9532,1842
9533,1829
9534,1811
9535,1818
9536,1823
9537,1847
9538,1895
9539,1872
9540,1875
9541,1878
9542,1892
9543,1905
9544,1899
9545,1927
9546,1904
9547,1862
9548,1831
9549,1830
9550,1821
9551,1798
9552,1798
9553,1799
9554,1847
9555,1872
9556,1874
9557,1897
9558,1901
9559,1902
9560,1885
9561,1878
9562,1879
9563,1875
9564,1867
9565,1850
9566,1828
9567,1804
9568,1802
9569,1808
9570,1825
9571,1854
9572,1860
9573,1886
9574,1884
9575,1920
9576,1904
9577,1890
9578,1899
9579,1904
9580,1883
9581,1873
9582,1863
9583,1824
9584,1809
9585,1811
9586,1819
9587,1840
9588,1840
9589,1889
9590,1875
9591,1879
9592,1886
9593,1895
9594,1895
9595,1899
9596,1895
9597,1867
9598,1842
9599,1843
9600,1813
9601,1814
9602,1811
9603,1826
9604,1850
9605,1882
9606,1902
9607,1883
9608,1889
9609,1885
9610,1872
9611,1878
9612,1903
9613,1904
9614,1872
9615,1856
9616,1831
9617,1834
9618,1808
9619,1814
9620,1843
9621,1824
9622,1859
9623,1883
9624,1872
9625,1889
9626,1885
9627,1887
9628,1893
9629,1904
9630,1884
9631,1872
9632,1846
9633,1834
9634,1806
9635,1790
9636,1792
9637,1821
9638,1855
9639,1856
9640,1895
9641,1894
9642,1900
9643,1897
9644,1901
9645,1908
9646,1894
9647,1872
9648,1855
9649,1835
9650,1819
9651,1813
9652,1823
9653,1809
9654,1846
9655,1856
9656,1882
9657,1857
9658,1893
9659,1900
9660,1885
9661,1887
9662,1906
9663,1885
9664,1856
9665,1855
9666,1822
9667,1829
9668,1808
9669,1804
9670,1840
9671,1837
9672,1873
9673,1862
9674,1877
9675,1895
9676,1888
9677,1890
9678,1888
9679,1905
9680,1872
9681,1847
9682,1846
9683,1850
9684,1818
9685,1802
9686,1823
9687,1826
9688,1840
9689,1862
9690,1866
9691,1876
9692,1866
9693,1875
9694,1875
9695,1902
9696,1902
9697,1859
9698,1859
9699,1840
9700,1823
9701,1821
9702,1821
9703,1839
9704,1840
9705,1874
9706,1872
9707,1869
9708,1892
9709,1903
9710,1904
9711,1893
9712,1904
9713,1879
9714,1873
9715,1834
9716,1840
9717,1840
9718,1808
9719,1808
9720,1840
9721,1841
9722,1868
9723,1861
9724,1885
9725,1886
9726,1891
9727,1888
9728,1905
9729,1895
9730,1879
9731,1851
9732,1827
9733,1840
9734,1815
9735,1808
9736,1826
9737,1846
9738,1877
9739,1873
9740,1859
9741,1879
9742,1888
9743,1877
9744,1871
9745,1887
9746,1873
9747,1850
9748,1835
9749,1853
9750,1815
9751,1811
9752,1811
9753,1851
9754,1867
9755,1872
9756,1888
9757,1871
9758,1891
9759,1889
9760,1893
9761,1877
9762,1905
9763,1882
9764,1868
9765,1840
9766,1855
9767,1829
9768,1815
9769,1809
9770,1837
9771,1839
9772,1867
9773,1871
9774,1886
9775,1879
9776,1882
9777,1882
9778,1884
9779,1910
9780,1855
9781,1840
9782,1845
9783,1807
9784,1829
9785,1839
9786,1822
9787,1841
9788,1856
9789,1854
9790,1874
9791,1890
9792,1890
9793,1879
9794,1875
9795,1911
9796,1907
9797,1866
9798,1855
9799,1828
9800,1839
9801,1817
9802,1819
9803,1840
9804,1835
9805,1849
9806,1869
9807,1866
9808,1898
9809,1883
9810,1899
9811,1883
9812,1894
9813,1881
9814,1872
9815,1845
9816,1838
9817,1831
9818,1808
9819,1807
9820,1824
9821,1856
9822,1854
9823,1872
9824,1879
9825,1883
9826,1885
9827,1886
9828,1883
9829,1915
9830,1885
9831,1861
9832,1851
9833,1834
9834,1822
9835,1805
9836,1814
9837,1830
9838,1859
9839,1850
9840,1872
9841,1879
9842,1904
9843,1889
9844,1877
9845,1904
9846,1890
9847,1877
9848,1843
9849,1846
9850,1843
9851,1823
9852,1813
9853,1818
9854,1838
9855,1875
9856,1866
9857,1889
9858,1885
9859,1883
9860,1869
9861,1872
9862,1893
9863,1873
9864,1871
9865,1851
9866,1841
9867,1798
9868,1807
9869,1810
9870,1823
9871,1855
9872,1878
9873,1886
9874,1882
9875,1888
9876,1888
9877,1888
9878,1890
9879,1905
9880,1869
9881,1864
9882,1849
9883,1834
9884,1827
9885,1805
9886,1808
9887,1837
9888,1865
9889,1870
9890,1886
9891,1915
9892,1894
9893,1889
9894,1888
9895,1883
9896,1888
9897,1859
9898,1840
9899,1840
9900,1791
9901,1811
9902,1823
9903,1840
9904,1842
9905,1868
9906,1875
9907,1863
9908,1889
9909,1879
9910,1887
9911,1889
9912,1904
9913,1891
9914,1856
9915,1855
9916,1839
9917,1819
9918,1808
9919,1830
9920,1834
9921,1854
9922,1876
9923,1879
9924,1868
9925,1872
9926,1881
9927,1879
9928,1904
9929,1903
9930,1892
9931,1872
9932,1851
9933,1840
9934,1817
9935,1808
9936,1830
9937,1846
9938,1867
9939,1875
9940,1877
9941,1881
9942,1893
9943,1899
9944,1874
9945,1902
9946,1888
9947,1859
9948,1840
9949,1819
9950,1826
9951,1808
9952,1809
9953,1819
9954,1852
9955,1853
9956,1870
9957,1863
9958,1888
9959,1890
9960,1891
9961,1885
9962,1904
9963,1895
9964,1872
9965,1840
9966,1835
9967,1822
9968,1814
9969,1818
9970,1833
9971,1878
9972,1870
9973,1889
9974,1886
9975,1897
9976,1886
9977,1889
9978,1890
9979,1899
9980,1873
9981,1850
9982,1844
9983,1840
9984,1825
9985,1821
9986,1823
9987,1835
9988,1866
9989,1874
9990,1895
9991,1885
9992,1890
9993,1887
9994,1887
9995,1901
9996,1903
9997,1872
9998,1859
9999,1835
10000,1843
10001,1808
10002,1819
10003,1839
10004,1845
10005,1865
10006,1857
10007,1886
10008,1904
10009,1883
10010,1872
10011,1883
10012,1903
10013,1901
10014,1878
10015,1848
10016,1840
10017,1802
10018,1794
10019,1798
10020,1822
10021,1869
10022,1866
10023,1879
10024,1871
10025,1891
10026,1891
10027,1886
10028,1910
10029,1907
10030,1861
10031,1856
10032,1831
10033,1840
10034,1831
10035,1806
10036,1811
10037,1829
10038,1854
10039,1871
10040,1888
10041,1920
10042,1898
10043,1888
10044,1883
10045,1905
10046,1898
10047,1869
10048,1854
10049,1839
10050,1817
10051,1817
10052,1809
10053,1838
10054,1855
10055,1873
10056,1883
10057,1869
10058,1893
10059,1904
10060,1886
10061,1890
10062,1899
10063,1887
10064,1854
10065,1862
10066,1856
10067,1822
10068,1811
10069,1835
10070,1840
10071,1848
10072,1856
10073,1878
10074,1867
10075,1888
10076,1887
10077,1877
10078,1891
10079,1891
10080,1870
10081,1850
10082,1830
10083,1806
10084,1818
10085,1811
10086,1828
10087,1841
10088,1874
10089,1874
10090,1863
10091,1881
10092,1885
10093,1887
10094,1882
10095,1901
10096,1904
10097,1873
10098,1840
10099,1858
10100,1833
10101,1808
10102,1815
10103,1818
10104,1849
10105,1866
10106,1861
10107,1881
10108,1882
10109,1883
10110,1872
10111,1873
10112,1904
10113,1872
10114,1866
10115,1846
10116,1824
10117,1802
10118,1810
10119,1826
10120,1841
10121,1866
10122,1871
10123,1872
10124,1872
10125,1899
10126,1887
10127,1883
10128,1885
10129,1901
10130,1878
10131,1863
10132,1835
10133,1856
10134,1829
10135,1808
10136,1801
10137,1826
10138,1851
10139,1856
10140,1862
10141,1895
10142,1904
10143,1889
10144,1886
10145,1903
10146,1904
10147,1869
10148,1858
10149,1834
10150,1823
10151,1807
10152,1808
10153,1841
10154,1839
10155,1856
10156,1872
10157,1865
10158,1888
10159,1896
10160,1888
10161,1877
10162,1898
10163,1888
10164,1874
10165,1833
10166,1840
10167,1823
10168,1818
10169,1837
10170,1840
10171,1831
10172,1865
10173,1879
10174,1879
10175,1879
10176,1890
10177,1890
10178,1870
10179,1878
10180,1875
10181,1854
10182,1841
10183,1797
10184,1811
10185,1810
10186,1810
10187,1841
10188,1854
10189,1872
10190,1863
10191,1893
10192,1873
10193,1895
10194,1904
10195,1900
10196,1911
10197,1862
10198,1831
10199,1839
10200,1840
10201,1815
10202,1811
10203,1837
10204,1845
10205,1859
10206,1862
10207,1883
10208,1856
10209,1888
10210,1897
10211,1903
10212,1906
10213,1894
10214,1859
10215,1834
10216,1837
10217,1840
10218,1814
10219,1831
10220,1841
10221,1859
10222,1859
10223,1874
10224,1875
10225,1891
10226,1883
10227,1879
10228,1878
10229,1918
10230,1875
10231,1849
10232,1850
10233,1834
10234,1822
10235,1811
10236,1840
10237,1837
10238,1856
10239,1883
10240,1878
10241,1891
10242,1888
10243,1890
10244,1882
10245,1905
10246,1889
10247,1866
10248,1831
10249,1840
10250,1826
10251,1808
10252,1813
10253,1813
10254,1846
10255,1877
10256,1861
10257,1879
10258,1895
10259,1903
10260,1875
10261,1873
10262,1874
10263,1878
10264,1840
10265,1842
10266,1853
10267,1828
10268,1810
10269,1828
10270,1840
10271,1877
10272,1894
10273,1899
10274,1908
10275,1907
10276,1903
10277,1902
10278,1907
10279,1894
10280,1861
10281,1802
10282,1809
10283,1808
10284,1792
10285,1808
10286,1815
10287,1843
10288,1872
10289,1845
10290,1866
10291,1867
10292,1890
10293,1886
10294,1888
10295,1901
10296,1883
10297,1860
10298,1838
10299,1834
10300,1825
10301,1823
10302,1814
10303,1847
10304,1819
10305,1866
10306,1879
10307,1888
10308,1891
10309,1889
10310,1886
10311,1907
10312,1893
10313,1881
10314,1852
10315,1823
10316,1811
10317,1839
10318,1810
10319,1808
10320,1840
10321,1871
10322,1855
10323,1851
10324,1865
10325,1895
10326,1899
10327,1885
10328,1910
10329,1891
10330,1863
10331,1856
10332,1837
10333,1842
10334,1821
10335,1825
10336,1834
10337,1841
10338,1858
10339,1867
10340,1882
10341,1886
10342,1901
10343,1881
10344,1894
10345,1907
10346,1871
10347,1861
10348,1837
10349,1814
10350,1817
10351,1823
10352,1814
10353,1834
10354,1857
10355,1874
10356,1883
10357,1890
10358,1878
10359,1883
10360,1890
10361,1875
10362,1897
10363,1878
10364,1846
10365,1846
10366,1840
10367,1850
10368,1822
10369,1812
10370,1846
10371,1850
10372,1878
10373,1895
10374,1878
10375,1904
10376,1888
10377,1889
10378,1865
10379,1880
10380,1869
10381,1871
10382,1841
10383,1833
10384,1797
10385,1789
10386,1799
10387,1808
10388,1872
10389,1887
10390,1887
10391,1878
10392,1878
10393,1904
10394,1903
10395,1892
10396,1859
10397,1861
10398,1850
10399,1861
10400,1839
10401,1819
10402,1815
10403,1831
10404,1844
10405,1869
10406,1872
10407,1883
10408,1888
10409,1894
10410,1891
10411,1895
10412,1911
10413,1902
10414,1862
10415,1850
10416,1820
10417,1824
10418,1807
10419,1825
10420,1829
10421,1842
10422,1867
10423,1885
10424,1872
10425,1892
10426,1883
10427,1891
10428,1911
10429,1899
10430,1873
10431,1869
10432,1841
10433,1829
10434,1826
10435,1818
10436,1823
10437,1820
10438,1857
10439,1873
10440,1874
10441,1905
10442,1885
10443,1891
10444,1882
10445,1904
10446,1864
10447,1860
10448,1842
10449,1860
10450,1833
10451,1805
10452,1809
10453,1808
10454,1849
10455,1871
10456,1899
10457,1866
10458,1897
10459,1893
10460,1880
10461,1878
10462,1910
10463,1887
10464,1856
10465,1840
10466,1829
10467,1824
10468,1808
10469,1819
10470,1846
10471,1843
10472,1871
10473,1879
10474,1899
10475,1899
10476,1901
10477,1891
10478,1901
10479,1891
10480,1865
10481,1840
10482,1845
10483,1827
10484,1821
10485,1812
10486,1827
10487,1838
10488,1856
10489,1873
10490,1895
10491,1889
10492,1888
10493,1893
10494,1887
10495,1909
10496,1862
10497,1857
10498,1850
10499,1834
10500,1829
10501,1797
10502,1808
10503,1849
10504,1837
10505,1869
10506,1851
10507,1877
10508,1881
10509,1894
10510,2253
10511,1933
10512,1732
10513,1734
10514,1805
10515,1974
10516,2126
10517,2096
10518,1968
10519,1909
10520,1782
10521,1650
10522,1755
10523,1993
10524,2097
10525,2135
10526,2112
10527,2102
10528,2072
10529,2006
10530,1888
10531,1728
10532,1631
10533,1535
10534,1531
10535,1574
10536,1627
10537,1682
10538,1758
10539,1798
10540,1825
10541,2167
10542,1939
10543,1703
10544,1744
10545,1823
10546,1914
10547,1974
10548,1893
10549,1850
10550,1815
10551,1799
10552,1892
10553,2032
10554,2107
10555,2160
10556,2153
10557,2118
10558,2058
10559,1983
10560,1857
10561,1758
10562,1664
10563,1628
10564,1639
10565,1673
10566,1733
10567,1747
10568,1778
10569,1804
10570,1806
10571,1826
10572,2125
10573,2005
10574,1713
10575,1710
10576,1744
10577,1803
10578,1807
10579,1793
10580,1839
10581,1905
10582,2005
10583,2083
10584,2160
10585,2166
10586,2155
10587,2167
10588,2109
10589,2027
10590,1883
10591,1759
10592,1627
10593,1611
10594,1647
10595,1683
10596,1725
10597,1773
10598,1777
10599,1781
10600,1789
10601,1794
10602,1803
10603,2059
10604,1986
10605,1712
10606,1661
10607,1697
10608,1684
10609,1611
10610,1648
10611,1741
10612,2005
10613,2238
10614,2312
10615,2289
10616,2289
10617,2271
10618,2177
10619,2068
10620,1903
10621,1761
10622,1615
10623,1590
10624,1599
10625,1663
10626,1723
10627,1747
10628,1817
10629,1872
10630,1836
10631,1823
10632,1808
10633,1815
10634,1680
10635,2000
10636,1713
10637,1674
10638,1680
10639,1645
10640,1569
10641,1693
10642,1750
10643,2083
10644,2259
10645,2321
10646,2295
10647,2351
10648,2299
10649,2163
10650,2029
10651,1799
10652,1631
10653,1521
10654,1535
10655,1615
10656,1712
10657,1759
10658,1749
10659,1754
10660,1806
10661,1835
10662,1908
10663,1858
10664,1879
10665,1423
10666,2089
10667,1747
10668,1680
10669,1673
10670,1609
10671,1535
10672,1707
10673,1818
10674,2015
10675,2189
10676,2230
10677,2270
10678,2290
10679,2298
10680,2155
10681,1961
10682,1787
10683,1699
10684,1643
10685,1641
10686,1687
10687,1733
10688,1657
10689,1600
10690,1724
10691,1806
10692,1843
10693,1856
10694,1870
10695,1887
10696,1269
10697,2111
10698,1765
10699,1721
10700,1658
10701,1498
10702,1424
10703,1618
10704,1878
10705,2275
10706,2229
10707,2189
10708,2304
10709,2355
10710,2287
10711,2115
10712,1943
10713,1743
10714,1602
10715,1533
10716,1531
10717,1595
10718,1664
10719,1742
10720,1794
10721,1813
10722,1846
10723,1851
10724,1893
10725,1892
10726,1895
10727,1366
10728,2197
10729,1826
10730,1730
10731,1629
10732,1402
10733,1334
10734,1523
10735,1992
10736,2379
10737,2183
10738,2199
10739,2319
10740,2398
10741,2311
10742,2161
10743,1921
10744,1731
10745,1616
10746,1574
10747,1579
10748,1664
10749,1740
10750,1727
10751,1717
10752,1761
10753,1803
10754,1854
10755,1879
10756,1863
10757,1888
10758,1775
10759,2223
10760,1849
10761,1712
10762,1674
10763,1424
10764,1374
10765,1659
10766,2311
10767,2288
10768,2019
10769,2124
10770,2299
10771,2351
10772,2272
10773,2099
10774,1866
10775,1680
10776,1535
10777,1509
10778,1623
10779,1693
10780,1738
10781,1765
10782,1793
10783,1808
10784,1833
10785,1831
10786,1849
10787,1871
10788,1888
10789,1904
10790,2226
10791,1856
10792,1712
10793,1605
10794,1330
10795,1324
10796,1835
10797,2544
10798,2224
10799,2039
10800,2165
10801,2314
10802,2339
10803,2237
10804,2054
10805,1827
10806,1654
10807,1535
10808,1559
10809,1647
10810,1717
10811,1758
10812,1808
10813,1818
10814,1829
10815,1840
10816,1825
10817,1801
10818,1807
10819,1830
10820,1852
10821,2238
10822,1901
10823,1709
10824,1616
10825,1239
10826,1248
10827,1953
10828,2559
10829,2178
10830,2076
10831,2240
10832,2400
10833,2345
10834,2219
10835,1966
10836,1712
10837,1561
10838,1467
10839,1554
10840,1666
10841,1736
10842,1797
10843,1830
10844,1825
10845,1867
10846,1882
10847,1851
10848,1847
10849,1835
10850,1813
10851,1813
10852,2218
10853,1865
10854,1682
10855,1578
10856,1268
10857,1387
10858,2061
10859,2406
10860,2106
10861,2115
10862,2297
10863,2416
10864,2343
10865,2143
10866,1899
10867,1672
10868,1492
10869,1439
10870,1531
10871,1627
10872,1744
10873,1791
10874,1815
10875,1836
10876,1863
10877,1863
10878,1876
10879,1909
10880,1879
10881,1872
10882,1857
10883,2145
10884,1936
10885,1680
10886,1615
10887,1308
10888,1391
10889,2192
10890,2429
10891,1969
10892,2014
10893,2288
10894,2441
10895,2423
10896,2230
10897,1936
10898,1665
10899,1504
10900,1419
10901,1486
10902,1591
10903,1690
10904,1773
10905,1809
10906,1811
10907,1825
10908,1878
10909,1887
10910,1885
10911,1904
10912,1902
10913,1914
10914,2071
10915,1975
10916,1711
10917,1653
10918,1315
10919,1375
10920,2178
10921,2379
10922,1889
10923,1969
10924,2244
10925,2379
10926,2345
10927,2175
10928,1956
10929,1728
10930,1535
10931,1490
10932,1535
10933,1636
10934,1675
10935,1723
10936,1751
10937,1776
10938,1854
10939,1887
10940,1927
10941,1921
10942,1876
10943,1895
10944,1903
10945,1939
10946,2069
10947,1767
10948,1666
10949,1381
10950,1379
10951,2128
10952,2238
10953,1905
10954,1987
10955,2241
10956,2375
10957,2342
10958,2222
10959,1934
10960,1707
10961,1573
10962,1555
10963,1600
10964,1649
10965,1718
10966,1760
10967,1747
10968,1757
10969,1783
10970,1803
10971,1835
10972,1877
10973,1875
10974,1855
10975,1885
10976,1616
10977,2093
10978,1781
10979,1725
10980,1417
10981,1371
10982,2178
10983,2340
10984,1879
10985,1930
10986,2210
10987,2348
10988,2349
10989,2173
10990,1910
10991,1690
10992,1557
10993,1513
10994,1601
10995,1719
10996,1759
10997,1791
10998,1794
10999,1787
11000,1792
11001,1803
11002,1808
11003,1820
11004,1840
11005,1874
11006,1883
11007,1409
11008,2129
11009,1809
11010,1737
11011,1473
11012,1362
11013,2155
11014,2405
11015,1884
11016,1856
11017,2159
11018,2339
11019,2368
11020,2209
11021,1938
11022,1680
11023,1520
11024,1488
11025,1602
11026,1707
11027,1795
11028,1842
11029,1841
11030,1795
11031,1790
11032,1826
11033,1853
11034,1815
11035,1826
11036,1870
11037,1918
11038,1417
11039,2092
11040,1757
11041,1747
11042,1491
11043,1323
11044,2112
11045,2432
11046,1964
11047,1885
11048,2149
11049,2331
11050,2386
11051,2186
11052,1908
11053,1632
11054,1459
11055,1446
11056,1524
11057,1651
11058,1776
11059,1840
11060,1867
11061,1853
11062,1830
11063,1829
11064,1854
11065,1851
11066,1843
11067,1827
11068,1813
11069,1744
11070,2131
11071,1811
11072,1708
11073,1481
11074,1245
11075,2000
11076,2588
11077,2112
11078,1926
11079,2171
11080,2319
11081,2311
11082,2187
11083,1933
11084,1668
11085,1506
11086,1427
11087,1451
11088,1611
11089,1697
11090,1765
11091,1810
11092,1858
11093,1873
11094,1904
11095,1905
11096,1868
11097,1885
11098,1856
11099,1843
11100,1893
11101,2160
11102,1834
11103,1697
11104,1535
11105,1310
11106,1955
11107,2480
11108,2032
11109,1889
11110,2115
11111,2300
11112,2391
11113,2267
11114,2047
11115,1775
11116,1559
11117,1437
11118,1451
11119,1571
11120,1662
11121,1730
11122,1804
11123,1852
11124,1865
11125,1889
11126,1894
11127,1901
11128,1911
11129,1921
11130,1886
11131,1898
11132,1866
11133,1829
11134,1840
11135,1839
11136,1837
11137,1823
11138,1849
11139,1877
11140,1891
11141,1909
11142,1918
11143,1929
11144,1904
11145,1915
11146,1904
11147,1851
11148,1842
11149,1849
11150,1837
11151,1840
11152,1817
11153,1807
11154,1846
11155,1870
11156,1885
11157,1879
11158,1901
11159,1895
11160,1889
11161,1884
11162,1933
11163,1873
11164,1856
11165,1831
11166,1820
11167,1811
11168,1808
11169,1807
11170,1837
11171,1862
11172,1892
11173,1882
11174,1897
11175,1899
11176,1893
11177,1890
11178,1886
11179,1927
11180,1870
11181,1856
11182,1841
11183,1830
11184,1821
11185,1808
11186,1811
11187,1813
11188,1845
11189,1865
11190,1879
11191,1910
11192,1904
11193,1887
11194,1886
11195,1888
11196,1846
11197,1856
11198,1846
11199,1853
11200,1855
11201,1823
11202,1834
11203,1854
11204,1835
11205,1843
11206,1869
11207,1867
11208,1904
11209,1881
11210,1891
11211,1891
11212,1936
11213,1905
11214,1879
11215,1867
11216,1830
11217,1822
11218,1804
11219,1798
11220,1797
11221,1851
11222,1874
11223,1882
11224,1903
11225,1881
11226,1885
11227,1879
11228,1885
11229,1897
11230,1885
11231,1843
11232,1840
11233,1865
11234,1834
11235,1822
11236,1815
11237,1841
11238,1875
11239,1859
11240,1875
11241,1903
11242,1873
11243,1870
11244,1881
11245,1891
11246,1869
11247,1879
11248,1840
11249,1841
11250,1826
11251,1823
11252,1818
11253,1831
11254,1858
11255,1863
11256,1869
11257,1904
11258,1899
11259,1889
11260,1887
11261,1885
11262,1905
11263,1874
11264,1846
11265,1855
11266,1846
11267,1818
11268,1814
11269,1818
11270,1835
11271,1851
11272,1882
11273,1889
11274,1872
11275,1905
11276,1892
11277,1875
11278,1895
11279,1899
11280,1881
11281,1867
11282,1872
11283,1808
11284,1816
11285,1821
11286,1825
11287,1840
11288,1863
11289,1857
11290,1891
11291,1899
11292,1891
11293,1889
11294,1891
11295,1894
11296,1879
11297,1873
11298,1837
11299,1850
11300,1829
11301,1808
11302,1822
11303,1836
11304,1851
11305,1861
11306,1881
11307,1876
11308,1872
11309,1888
11310,1876
11311,1890
11312,1907
11313,1871
11314,1867
11315,1856
11316,1807
11317,1818
11318,1818
11319,1813
11320,1840
11321,1842
11322,1887
11323,1902
11324,1890
11325,1885
11326,1882
11327,1881
11328,1903
11329,1890
11330,1871
11331,1835
11332,1841
11333,1846
11334,1819
11335,1811
11336,1811
11337,1826
11338,1868
11339,1867
11340,1862
11341,1872
11342,1898
11343,1877
11344,1887
11345,1905
11346,1870
11347,1882
11348,1850
11349,1859
11350,1818
11351,1813
11352,1812
11353,1840
11354,1856
11355,1872
11356,1883
11357,1887
11358,1887
11359,1893
11360,1888
11361,1888
11362,1910
11363,1882
11364,1855
11365,1840
11366,1840
11367,1819
11368,1822
11369,1807
11370,1834
11371,1850
11372,1878
11373,1894
11374,1890
11375,1891
11376,1885
11377,1883
11378,1899
11379,1895
11380,1870
11381,1858
11382,1858
11383,1841
11384,1814
11385,1814
11386,1818
11387,1837
11388,1867
11389,1859
11390,1872
11391,1878
11392,1887
11393,1890
11394,1879
11395,1915
11396,1871
11397,1855
11398,1823
11399,1846
11400,1826
11401,1829
11402,1811
11403,1848
11404,1862
11405,1872
11406,1885
11407,1871
11408,1911
11409,1884
11410,1877
11411,1882
11412,1911
11413,1877
11414,1872
11415,1858
11416,1845
11417,1831
11418,1821
11419,1813
11420,1840
11421,1847
11422,1875
11423,1879
11424,1875
11425,1881
11426,1886
11427,1875
11428,1903
11429,1868
11430,1872
11431,1849
11432,1831
11433,1824
11434,1818
11435,1818
11436,1840
11437,1836
11438,1863
11439,1853
11440,1882
11441,1890
11442,1902
11443,1881
11444,1893
11445,1892
11446,1887
11447,1851
11448,1817
11449,1831
11450,1844
11451,1823
11452,1820
11453,1819
11454,1861
11455,1859
11456,1867
11457,1875
11458,1887
11459,1893
11460,1887
11461,1901
11462,1899
11463,1871
11464,1855
11465,1840
11466,1835
11467,1833
11468,1824
11469,1821
11470,1838
11471,1862
11472,1871
11473,1884
11474,1897
11475,1902
11476,1893
11477,1895
11478,1897
11479,1903
11480,1882
11481,1837
11482,1808
11483,1849
11484,1810
11485,1802
11486,1811
11487,1831
11488,1866
11489,1867
11490,1868
11491,1877
11492,1892
11493,1898
11494,1894
11495,1904
11496,1895
11497,1872
11498,1853
11499,1840
11500,1825
11501,1814
11502,1823
11503,1837
11504,1865
11505,1869
11506,1873
11507,1886
11508,1871
11509,1891
11510,1887
11511,1889
11512,1901
11513,1889
11514,1855
11515,1830
11516,1835
11517,1808
11518,1817
11519,1808
11520,1845
11521,1863
11522,1866
11523,1866
11524,1839
11525,1882
11526,1888
11527,1892
11528,1918
11529,1925
11530,1904
11531,1863
11532,1897
11533,1808
11534,1830
11535,1833
11536,1826
11537,1815
11538,1877
11539,1888
11540,1906
11541,1877
11542,1849
11543,1872
11544,1895
11545,1910
11546,1877
11547,1869
11548,1828
11549,1797
11550,1776
11551,1789
11552,1833
11553,1847
11554,1855
11555,1871
11556,1844
11557,1870
11558,1886
11559,1883
11560,1883
11561,1877
11562,1920
11563,1877
11564,1861
11565,1853
11566,1806
11567,1816
11568,1840
11569,1835
11570,1849
11571,1872
11572,1878
11573,1877
11574,1871
11575,1895
11576,1901
11577,1900
11578,1903
11579,1901
11580,1875
11581,1851
11582,1840
11583,1821
11584,1823
11585,1818
11586,1815
11587,1865
11588,1872
11589,1872
11590,1875
11591,1885
11592,1894
11593,1881
11594,1899
11595,1893
11596,1891
11597,1857
11598,1843
11599,1837
11600,1840
11601,1813
11602,1830
11603,1838
11604,1846
11605,1859
11606,1862
11607,1888
11608,1896
11609,1886
11610,1883
11611,1904
11612,1910
11613,1860
11614,1851
11615,1838
11616,1806
11617,1818
11618,1798
11619,1830
11620,1835
11621,1850
11622,1866
11623,1887
11624,1870
11625,1884
11626,1883
11627,1898
11628,1906
11629,1894
11630,1866
11631,1855
11632,1827
11633,1841
11634,1809
11635,1811
11636,1806
11637,1818
11638,1862
11639,1871
11640,1872
11641,1856
11642,1895
11643,1889
11644,1899
11645,1903
11646,1890
11647,1852
11648,1840
11649,1841
11650,1797
11651,1807
11652,1815
11653,1827
11654,1856
11655,1872
11656,1882
11657,1861
11658,1904
11659,1891
11660,1890
11661,1909
11662,1901
11663,1877
11664,1839
11665,1841
11666,1787
11667,1814
11668,1808
11669,1814
11670,1831
11671,1840
11672,1872
11673,1883
11674,1870
11675,1859
11676,1886
11677,1891
11678,1897
11679,1894
11680,1872
11681,1846
11682,1861
11683,1833
11684,1813
11685,1824
11686,1827
11687,1840
11688,1863
11689,1879
11690,1872
11691,1857
11692,1889
11693,1887
11694,1868
11695,1900
11696,1879
11697,1840
11698,1835
11699,1825
11700,1825
11701,1822
11702,1813
11703,1836
11704,1859
11705,1897
11706,1902
11707,1911
11708,1903
11709,1906
11710,1899
11711,1874
11712,1885
11713,1845
11714,1840
11715,1839
11716,1839
11717,1803
11718,1783
11719,1803
11720,1812
11721,1859
11722,1857
11723,1845
11724,1872
11725,1906
11726,1874
11727,1889
11728,1904
11729,1893
11730,1872
11731,1854
11732,1823
11733,1827
11734,1809
11735,1811
11736,1837
11737,1847
11738,1862
11739,1862
11740,1893
11741,1883
11742,1903
11743,1890
11744,1883
11745,1904
11746,1872
11747,1855
11748,1826
11749,1831
11750,1824
11751,1808
11752,1808
11753,1830
11754,1825
11755,1868
11756,1869
11757,1872
11758,1904
11759,1887
11760,1883
11761,1907
11762,1906
11763,1865
11764,1856
11765,1849
11766,1831
11767,1829
11768,1806
11769,1808
11770,1840
11771,1857
11772,1882
11773,1869
11774,1883
11775,1911
11776,1883
11777,1892
11778,1901
11779,1898
11780,1870
11781,1846
11782,1849
11783,1840
11784,1815
11785,1808
11786,1810
11787,1843
11788,1855
11789,1879
11790,1857
11791,1897
11792,1905
11793,1887
11794,1898
11795,1902
11796,1890
11797,1862
11798,1852
11799,1841
11800,1847
11801,1826
11802,1838
11803,1843
11804,1815
11805,1856
11806,1887
11807,1859
11808,1921
11809,1895
11810,1904
11811,1929
11812,1918
11813,1901
11814,1854
11815,1837
11816,1805
11817,1805
11818,1802
11819,1792
11820,1835
11821,1850
11822,1861
11823,1893
11824,1883
11825,1895
11826,1895
11827,1907
11828,1918
11829,1906
11830,1869
11831,1850
11832,1833
11833,1833
11834,1825
11835,1801
11836,1793
11837,1843
11838,1867
11839,1862
11840,1872
11841,1871
11842,1872
11843,1883
11844,1895
11845,1904
11846,1883
11847,1867
11848,1846
11849,1837
11850,1844
11851,1808
11852,1805
11853,1827
11854,1824
11855,1872
11856,1871
11857,1898
11858,1893
11859,1889
11860,1889
11861,1902
11862,1887
11863,1882
11864,1855
11865,1847
11866,1840
11867,1817
11868,1812
11869,1819
11870,1863
11871,1846
11872,1869
11873,1885
11874,1889
11875,1904
11876,1886
11877,1878
11878,1899
11879,1877
11880,1857
11881,1839
11882,1840
11883,1829
11884,1819
11885,1825
11886,1829
11887,1846
11888,1879
11889,1883
11890,1887
11891,1880
11892,1894
11893,1888
11894,1929
11895,1930
11896,1891
11897,1876
11898,1840
11899,1822
11900,1817
11901,1795
11902,1797
11903,1825
11904,1856
11905,1867
11906,1861
11907,1879
11908,1891
11909,1911
11910,1918
11911,1935
11912,1927
11913,1903
11914,1909
11915,1893
11916,1840
