Time(ms),Raw_ADC
0,1408
1,1627
2,1731
3,1795
4,1838
5,1870
6,1885
7,1902
8,1942
9,931
10,1857
11,1909
12,1899
13,1850
14,1819
15,1824
16,1890
17,1778
18,1904
19,2233
20,2641
21,2926
22,3023
23,2868
24,2448
25,1902
26,1467
27,1230
28,1007
29,884
30,1043
31,1357
32,1579
33,1717
34,1794
35,1879
36,1950
37,1984
38,1993
39,1984
40,742
41,1783
42,1854
43,1815
44,1750
45,1719
46,1775
47,1894
48,1813
49,1904
50,2256
51,2652
52,2944
53,3018
54,2874
55,2410
56,1910
57,1530
58,1307
59,1127
60,958
61,1034
62,1311
63,1530
64,1689
65,1779
66,1827
67,1862
68,1906
69,1947
70,1955
71,679
72,1771
73,1958
74,1926
75,1889
76,1791
77,1776
78,1877
79,1787
80,1872
81,2174
82,2513
83,2864
84,3024
85,2911
86,2559
87,2064
88,1602
89,1350
90,1123
91,961
92,975
93,1281
94,1535
95,1662
96,1749
97,1808
98,1866
99,1884
100,1922
101,1925
102,785
103,1680
104,1972
105,1969
106,1904
107,1823
108,1789
109,1877
110,1840
111,1863
112,2162
113,2515
114,2831
115,2977
116,2870
117,2544
118,2066
119,1605
120,1356
121,1168
122,959
123,1022
124,1267
125,1505
126,1663
127,1717
128,1802
129,1904
130,1981
131,2013
132,2025
133,1232
134,1579
135,1877
136,1889
137,1865
138,1802
139,1769
140,1872
141,1809
142,1783
143,2084
144,2429
145,2774
146,2971
147,2882
148,2543
149,2093
150,1675
151,1423
152,1248
153,1053
154,1023
155,1263
156,1520
157,1653
158,1711
159,1752
160,1815
161,1874
162,1903
163,1939
164,2019
165,1472
166,1937
167,1918
168,1865
169,1823
170,1807
171,1949
172,1968
173,1867
174,2041
175,2331
176,2591
177,2755
178,2773
179,2544
180,2198
181,1797
182,1535
183,1328
184,1163
185,1059
186,1230
187,1472
188,1659
189,1755
190,1808
191,1872
192,1846
193,1904
194,1904
195,2586
196,1350
197,1900
198,1919
199,1917
200,1849
201,1833
202,1936
203,1979
204,1899
205,2038
206,2271
207,2522
208,2725
209,2691
210,2524
211,2188
212,1791
213,1493
214,1345
215,1168
216,1124
217,1294
218,1507
219,1655
220,1715
221,1767
222,1827
223,1869
224,1901
225,1917
226,1923
227,1926
228,1918
229,1915
230,1904
231,1914
232,1904
233,1906
234,1871
235,1901
236,1904
237,1931
238,1897
239,1905
240,1872
241,1878
242,1853
243,1855
244,1841
245,1838
246,1853
247,1872
248,1858
249,1863
250,1872
251,1886
252,1882
253,1891
254,1894
255,1892
256,1891
257,1879
258,1878
259,1833
260,1808
261,1815
262,1822
263,1833
264,1863
265,1867
266,1890
267,1903
268,1913
269,1936
270,1922
271,1875
272,1870
273,1823
274,1791
275,1837
276,1831
277,1855
278,1862
279,1873
280,1889
281,1884
282,1870
283,1856
284,1856
285,1862
286,1872
287,1902
288,1904
289,1893
290,1898
291,1855
292,1845
293,1803
294,1815
295,1826
296,1852
297,1859
298,1876
299,1876
300,1882
301,1882
302,1872
303,1883
304,1880
305,1869
306,1862
307,1866
308,1862
309,1856
310,1850
311,1852
312,1847
313,1844
314,1855
315,1867
316,1843
317,1875
318,1875
319,1867
320,1872
321,1888
322,1867
323,1879
324,1850
325,1839
326,1830
327,1846
328,1855
329,1850
330,1852
331,1877
332,1843
333,1853
334,1892
335,1887
336,1885
337,1882
338,1862
339,1871
340,1867
341,1840
342,1850
343,1861
344,1907
345,1869
346,1838
347,1833
348,1876
349,1859
350,1840
351,1875
352,1892
353,1855
354,1827
355,1848
356,1840
357,1834
358,1854
359,1807
360,1801
361,1815
362,1839
363,1851
364,1853
365,1847
366,1865
367,1872
368,1877
369,1870
370,1873
371,1879
372,1898
373,1878
374,1891
375,1887
376,1870
377,1872
378,1840
379,1810
380,1840
381,1850
382,1859
383,1869
384,1873
385,1872
386,1873
387,1877
388,1871
389,1872
390,1855
391,1846
392,1846
393,1840
394,1851
395,1856
396,1840
397,1852
398,1863
399,1857
400,1877
401,1861
402,1882
403,1892
404,1872
405,1891
406,1871
407,1856
408,1870
409,1872
410,1837
411,1844
412,1831
413,1853
414,1869
415,1881
416,1863
417,1863
418,1877
419,1872
420,1870
421,1876
422,1883
423,1851
424,1847
425,1837
426,1823
427,1850
428,1852
429,1858
430,1879
431,1889
432,1881
433,1865
434,1852
435,1867
436,1870
437,1865
438,1849
439,1857
440,1866
441,1840
442,1851
443,1854
444,1860
445,1836
446,1822
447,1839
448,1893
449,1901
450,1878
451,1873
452,1866
453,1867
454,1902
455,1904
456,1899
457,1875
458,1874
459,1895
460,1893
461,1874
462,1927
463,1838
464,1758
465,1776
466,1801
467,1850
468,1865
469,1849
470,1834
471,1839
472,1847
473,1851
474,1853
475,1850
476,1835
477,1837
478,1872
479,1872
480,1846
481,1840
482,1855
483,1841
484,1862
485,1862
486,1874
487,1904
488,1889
489,1859
490,1863
491,1837
492,1862
493,1834
494,1844
495,1845
496,1870
497,1869
498,1891
499,1895
500,1872
501,1897
502,1863
503,1859
504,1850
505,1866
506,1862
507,1866
508,1839
509,1834
510,1840
511,1847
512,1833
513,1862
514,1865
515,1887
516,1871
517,1870
518,1881
519,1876
520,1882
521,1882
522,1890
523,1878
524,1846
525,1846
526,1859
527,1850
528,1846
529,1863
530,1865
531,1883
532,1875
533,1855
534,1859
535,1867
536,1871
537,1878
538,1872
539,1849
540,1857
541,1851
542,1840
543,1841
544,1841
545,1849
546,1871
547,1867
548,1882
549,1876
550,1870
551,1871
552,1872
553,1887
554,1872
555,1875
556,1857
557,1840
558,1855
559,1846
560,1840
561,1845
562,1829
563,1829
564,1867
565,1875
566,1885
567,1869
568,1867
569,1872
570,1873
571,1889
572,1877
573,1855
574,1851
575,1842
576,1844
577,1843
578,1855
579,1841
580,1859
581,1872
582,1872
583,1887
584,1858
585,1878
586,1877
587,1853
588,1862
589,1861
590,1872
591,1849
592,1856
593,1845
594,1844
595,1834
596,1830
597,1865
598,1858
599,1873
600,1840
601,1840
602,1862
603,1872
604,1872
605,1875
606,1873
607,1857
608,1860
609,1816
610,1828
611,1842
612,1872
613,1855
614,1862
615,1870
616,1874
617,1863
618,1872
619,1872
620,1863
621,1883
622,1870
623,1871
624,1856
625,1839
626,1840
627,1843
628,1833
629,1833
630,1869
631,1871
632,1871
633,1855
634,1857
635,1873
636,1878
637,1904
638,1866
639,1865
640,1869
641,1861
642,1832
643,1856
644,1845
645,1845
646,1858
647,1853
648,1867
649,1856
650,1872
651,1872
652,1866
653,1875
654,1877
655,1854
656,1855
657,1846
658,1867
659,1840
660,1835
661,1840
662,1851
663,1865
664,1865
665,1885
666,1881
667,1885
668,1872
669,1873
670,1866
671,1885
672,1880
673,1877
674,1872
675,1845
676,1842
677,1850
678,1851
679,1854
680,1874
681,1871
682,1882
683,1878
684,1899
685,1869
686,1872
687,1850
688,1875
689,1870
690,1863
691,1827
692,1822
693,1831
694,1841
695,1851
696,1851
697,1872
698,1886
699,1859
700,1856
701,1872
702,1865
703,1872
704,1872
705,1859
706,1855
707,1870
708,1840
709,1798
710,1815
711,1834
712,1867
713,1859
714,1874
715,1876
716,1893
717,1911
718,1932
719,1920
720,1878
721,1833
722,1798
723,1806
724,1831
725,1850
726,1833
727,1834
728,1834
729,1840
730,1840
731,1858
732,1857
733,1866
734,1872
735,1878
736,1879
737,1881
738,1866
739,1853
740,1853
741,1856
742,1837
743,1842
744,1844
745,1834
746,1870
747,1856
748,1840
749,1851
750,1872
751,1875
752,1871
753,1885
754,1886
755,1872
756,1868
757,1853
758,1855
759,1841
760,1840
761,1839
762,1862
763,1862
764,1851
765,1871
766,1869
767,1907
768,1876
769,1871
770,1872
771,1867
772,1863
773,1858
774,1860
775,1840
776,1831
777,1852
778,1855
779,1839
780,1858
781,1858
782,1847
783,1866
784,1869
785,1878
786,1869
787,1872
788,1862
789,1854
790,1843
791,1856
792,1856
793,1846
794,1845
795,1844
796,1857
797,1875
798,1867
799,1887
800,1883
801,1879
802,1876
803,1851
804,1853
805,1856
806,1850
807,1857
808,1837
809,1837
810,1838
811,1837
812,1843
813,1856
814,1857
815,1873
816,1868
817,1863
818,1872
819,1877
820,1886
821,1869
822,1859
823,1846
824,1852
825,1843
826,1840
827,1840
828,1847
829,1859
830,1837
831,1856
832,1862
833,1874
834,1883
835,1866
836,1863
837,1872
838,1858
839,1862
840,1867
841,1855
842,1845
843,1840
844,1842
845,1840
846,1840
847,1872
848,1863
849,1877
850,1867
851,1869
852,1873
853,1866
854,1878
855,1871
856,1869
857,1856
858,1839
859,1841
860,1847
861,1829
862,1842
863,1853
864,1862
865,1865
866,1863
867,1840
868,1875
869,1883
870,1881
871,1872
872,1872
873,1857
874,1843
875,1831
876,1841
877,1851
878,1841
879,1860
880,1851
881,1871
882,1872
883,1872
884,1869
885,1861
886,1855
887,1872
888,1898
889,1861
890,1863
891,1840
892,1837
893,1846
894,1838
895,1834
896,1869
897,1872
898,1872
899,1873
900,1874
901,1883
902,1872
903,1872
904,1872
905,1841
906,1850
907,1854
908,1861
909,1833
910,1840
911,1840
912,1853
913,1855
914,1860
915,1871
916,1898
917,1890
918,1872
919,1870
920,1886
921,1856
922,1867
923,1852
924,1855
925,1839
926,1837
927,1834
928,1844
929,1856
930,1840
931,1872
932,1874
933,1871
934,1875
935,1874
936,1872
937,1875
938,1881
939,1871
940,1877
941,1833
942,1823
943,1841
944,1840
945,1839
946,1843
947,1857
948,1862
949,1878
950,1867
951,1872
952,1869
953,1867
954,1877
955,1882
956,1867
957,1855
958,1847
959,1838
960,1839
961,1843
962,1854
963,1860
964,1853
965,1859
966,1870
967,1872
968,1873
969,1874
970,1866
971,1891
972,1869
973,1870
974,1849
975,1840
976,1835
977,1831
978,1840
979,1856
980,1865
981,1868
982,1870
983,1872
984,1874
985,1874
986,1875
987,1875
988,1875
989,1859
990,1867
991,1855
992,1845
993,1840
994,1843
995,1854
996,1869
997,1854
998,1869
999,1867
1000,1871
1001,1873
1002,1878
1003,1870
1004,1875
1005,1871
1006,1856
1007,1849
1008,1852
1009,1820
1010,1831
1011,1834
1012,1851
1013,1842
1014,1860
1015,1861
1016,1875
1017,1856
1018,1872
1019,1875
1020,1898
1021,1886
1022,1859
1023,1857
1024,1853
1025,1840
1026,1840
1027,1837
1028,1854
1029,1852
1030,1865
1031,1871
1032,1855
1033,1865
1034,1875
1035,1872
1036,1885
1037,1884
1038,1865
1039,1865
1040,1851
1041,1833
1042,1859
1043,1841
1044,1838
1045,1849
1046,1846
1047,1847
1048,1882
1049,1844
1050,1887
1051,1872
1052,1862
1053,1885
1054,1885
1055,1867
1056,1867
1057,1840
1058,1851
1059,1828
1060,1838
1061,1840
1062,1837
1063,1872
1064,1868
1065,1872
1066,1869
1067,1885
1068,1879
1069,1874
1070,1866
1071,1855
1072,1867
1073,1869
1074,1853
1075,1835
1076,1835
1077,1840
1078,1851
1079,1843
1080,1858
1081,1868
1082,1881
1083,1871
1084,1867
1085,1867
1086,1879
1087,1877
1088,1856
1089,1859
1090,1852
1091,1858
1092,1849
1093,1838
1094,1842
1095,1853
1096,1841
1097,1870
1098,1865
1099,1885
1100,1887
1101,1863
1102,1882
1103,1889
1104,1873
1105,1849
1106,1866
1107,1851
1108,1851
1109,1851
1110,1839
1111,1831
1112,1841
1113,1870
1114,1870
1115,1872
1116,1870
1117,1873
1118,1874
1119,1875
1120,1874
1121,1875
1122,1867
1123,1867
1124,1840
1125,1856
1126,1839
1127,1852
1128,1843
1129,1846
1130,1869
1131,1853
1132,1862
1133,1841
1134,1889
1135,1872
1136,1886
1137,1877
1138,1857
1139,1856
1140,1847
1141,1825
1142,1841
1143,1840
1144,1840
1145,1838
1146,1843
1147,1861
1148,1874
1149,1863
1150,1872
1151,1882
1152,1885
1153,1871
1154,1884
1155,1868
1156,1856
1157,1871
1158,1847
1159,1833
1160,1846
1161,1838
1162,1853
1163,1858
1164,1857
1165,1870
1166,1869
1167,1846
1168,1870
1169,1873
1170,1875
1171,1887
1172,1871
1173,1861
1174,1839
1175,1846
1176,1831
1177,1857
1178,1863
1179,1849
1180,1854
1181,1856
1182,1865
1183,1856
1184,1872
1185,1868
1186,1877
1187,1875
1188,1874
1189,1868
1190,1867
1191,1878
1192,1840
1193,1837
1194,1836
1195,1843
1196,1841
1197,1856
1198,1872
1199,1872
1200,1870
1201,1871
1202,1872
1203,1867
1204,1871
1205,1861
1206,1855
1207,1849
1208,1861
1209,1846
1210,1842
1211,1839
1212,1845
1213,1857
1214,1872
1215,1863
1216,1853
1217,1842
1218,1862
1219,1872
1220,1872
1221,2544
1222,1427
1223,1898
1224,1887
1225,1842
1226,1803
1227,1814
1228,1814
1229,1819
1230,1818
1231,1828
1232,1853
1233,1908
1234,2030
1235,2182
1236,2337
1237,2416
1238,2432
1239,2386
1240,2263
1241,2082
1242,1906
1243,1755
1244,1651
1245,1520
1246,1403
1247,1299
1248,1290
1249,1384
1250,1535
1251,1701
1252,1993
1253,896
1254,1779
1255,1837
1256,1771
1257,1789
1258,1743
1259,1702
1260,1690
1261,1755
1262,1949
1263,2055
1264,2234
1265,2559
1266,2903
1267,3131
1268,3009
1269,2832
1270,2539
1271,1989
1272,1526
1273,1296
1274,1178
1275,1119
1276,1015
1277,1023
1278,1161
1279,1400
1280,1639
1281,1775
1282,1861
1283,1910
1284,923
1285,1873
1286,1898
1287,1838
1288,1822
1289,1763
1290,1678
1291,1683
1292,1860
1293,2062
1294,2097
1295,2327
1296,2798
1297,3109
1298,3097
1299,2903
1300,2723
1301,2069
1302,1535
1303,1273
1304,1197
1305,1188
1306,1136
1307,1102
1308,1189
1309,1406
1310,1639
1311,1777
1312,1831
1313,1845
1314,1870
1315,742
1316,1798
1317,1891
1318,1834
1319,1837
1320,1792
1321,1718
1322,1725
1323,1926
1324,2086
1325,2096
1326,2374
1327,2815
1328,3155
1329,3111
1330,2851
1331,2704
1332,2021
1333,1499
1334,1293
1335,1186
1336,1102
1337,1009
1338,1010
1339,1178
1340,1450
1341,1681
1342,1811
1343,1833
1344,1859
1345,1883
1346,722
1347,1808
1348,1903
1349,1847
1350,1882
1351,1795
1352,1743
1353,1776
1354,1985
1355,1968
1356,1993
1357,2416
1358,2894
1359,3136
1360,3027
1361,2862
1362,2640
1363,1874
1364,1392
1365,1219
1366,1114
1367,1057
1368,1003
1369,1041
1370,1274
1371,1535
1372,1741
1373,1821
1374,1819
1375,1879
1376,1882
1377,890
1378,1705
1379,1905
1380,1901
1381,1936
1382,1903
1383,1863
1384,1873
1385,1991
1386,1887
1387,1892
1388,2350
1389,2838
1390,3128
1391,3050
1392,2853
1393,2607
1394,1915
1395,1473
1396,1299
1397,1136
1398,991
1399,863
1400,995
1401,1279
1402,1565
1403,1761
1404,1829
1405,1870
1406,1872
1407,1904
1408,1183
1409,1667
1410,1939
1411,1949
1412,1982
1413,1936
1414,1840
1415,1840
1416,1884
1417,1733
1418,1835
1419,2323
1420,2742
1421,3061
1422,3088
1423,2879
1424,2559
1425,1958
1426,1522
1427,1334
1428,1167
1429,998
1430,838
1431,974
1432,1267
1433,1587
1434,1739
1435,1794
1436,1838
1437,1877
1438,1942
1439,1811
1440,1615
1441,1954
1442,1939
1443,1959
1444,1890
1445,1837
1446,1775
1447,1792
1448,1619
1449,1797
1450,2279
1451,2768
1452,3106
1453,3071
1454,2896
1455,2531
1456,1964
1457,1574
1458,1360
1459,1200
1460,1049
1461,931
1462,1023
1463,1313
1464,1579
1465,1685
1466,1772
1467,1835
1468,1891
1469,1915
1470,2491
1471,1472
1472,1933
1473,1878
1474,1893
1475,1883
1476,1815
1477,1840
1478,1895
1479,1713
1480,1808
1481,2278
1482,2749
1483,3030
1484,3097
1485,2927
1486,2549
1487,2025
1488,1625
1489,1367
1490,1202
1491,987
1492,911
1493,1014
1494,1328
1495,1600
1496,1706
1497,1798
1498,1863
1499,1894
1500,1936
1501,2651
1502,1451
1503,1949
1504,1939
1505,1974
1506,1923
1507,1839
1508,1792
1509,1773
1510,1615
1511,1811
1512,2300
1513,2729
1514,3037
1515,3062
1516,2909
1517,2503
1518,1973
1519,1629
1520,1365
1521,1193
1522,1011
1523,927
1524,1079
1525,1364
1526,1591
1527,1714
1528,1787
1529,1840
1530,1887
1531,1909
1532,2493
1533,1273
1534,1920
1535,1922
1536,1899
1537,1863
1538,1839
1539,1856
1540,1881
1541,1808
1542,1885
1543,2190
1544,2559
1545,2869
1546,2999
1547,2946
1548,2594
1549,2115
1550,1689
1551,1405
1552,1210
1553,1045
1554,897
1555,1040
1556,1329
1557,1599
1558,1735
1559,1786
1560,1825
1561,1860
1562,1873
1563,1950
1564,1042
1565,1885
1566,1942
1567,1968
1568,1905
1569,1855
1570,1882
1571,1912
1572,1744
1573,1780
1574,2185
1575,2559
1576,2906
1577,3056
1578,2995
1579,2667
1580,2179
1581,1708
1582,1422
1583,1184
1584,1008
1585,887
1586,969
1587,1291
1588,1581
1589,1729
1590,1828
1591,1906
1592,1943
1593,1959
1594,1967
1595,901
1596,1791
1597,1872
1598,1907
1599,1898
1600,1868
1601,1867
1602,1917
1603,1664
1604,1757
1605,2187
1606,2647
1607,2948
1608,3025
1609,2939
1610,2617
1611,2121
1612,1698
1613,1421
1614,1217
1615,1014
1616,908
1617,983
1618,1299
1619,1584
1620,1712
1621,1781
1622,1838
1623,1858
1624,1905
1625,1925
1626,810
1627,1860
1628,1975
1629,1931
1630,1904
1631,1792
1632,1776
1633,1806
1634,1704
1635,1814
1636,2213
1637,2615
1638,2930
1639,3071
1640,2999
1641,2735
1642,2203
1643,1767
1644,1463
1645,1203
1646,1023
1647,881
1648,944
1649,1181
1650,1507
1651,1702
1652,1788
1653,1851
1654,1900
1655,1936
1656,1959
1657,739
1658,1794
1659,1973
1660,1904
1661,1872
1662,1792
1663,1744
1664,1805
1665,1747
1666,1793
1667,2170
1668,2559
1669,2883
1670,3058
1671,3013
1672,2736
1673,2280
1674,1811
1675,1535
1676,1260
1677,1053
1678,896
1679,885
1680,1134
1681,1477
1682,1712
1683,1779
1684,1851
1685,1875
1686,1931
1687,1947
1688,697
1689,1717
1690,1943
1691,1938
1692,1968
1693,1873
1694,1840
1695,1889
1696,1664
1697,1739
1698,2139
1699,2559
1700,2907
1701,3056
1702,3011
1703,2765
1704,2318
1705,1837
1706,1517
1707,1293
1708,1059
1709,870
1710,896
1711,1127
1712,1447
1713,1665
1714,1755
1715,1826
1716,1879
1717,1919
1718,1943
1719,1212
1720,1600
1721,1969
1722,1914
1723,1863
1724,1836
1725,1843
1726,1899
1727,1808
1728,1808
1729,2083
1730,2482
1731,2817
1732,3009
1733,3001
1734,2812
1735,2438
1736,1970
1737,1631
1738,1387
1739,1109
1740,891
1741,880
1742,1050
1743,1363
1744,1575
1745,1702
1746,1791
1747,1856
1748,1903
1749,1931
1750,2013
1751,1475
1752,1991
1753,1962
1754,1921
1755,1847
1756,1815
1757,1884
1758,1799
1759,1764
1760,2016
1761,2403
1762,2799
1763,3040
1764,2999
1765,2852
1766,2481
1767,1984
1768,1661
1769,1387
1770,1132
1771,901
1772,859
1773,1057
1774,1348
1775,1603
1776,1708
1777,1779
1778,1850
1779,1902
1780,1947
1781,2681
1782,1439
1783,2074
1784,2015
1785,1983
1786,1860
1787,1770
1788,1779
1789,1675
1790,1680
1791,1951
1792,2326
1793,2752
1794,2944
1795,3012
1796,2855
1797,2491
1798,2056
1799,1715
1800,1424
1801,1205
1802,982
1803,872
1804,989
1805,1310
1806,1586
1807,1707
1808,1802
1809,1902
1810,1979
1811,2046
1812,2608
1813,1282
1814,1975
1815,1913
1816,1831
1817,1775
1818,1760
1819,1827
1820,1859
1821,1761
1822,1907
1823,2265
1824,2673
1825,2924
1826,2950
1827,2855
1828,2559
1829,2115
1830,1744
1831,1454
1832,1245
1833,994
1834,903
1835,1023
1836,1286
1837,1535
1838,1672
1839,1774
1840,1824
1841,1865
1842,1897
1843,1907
1844,1935
1845,1948
1846,1955
1847,1963
1848,1949
1849,1959
1850,1959
1851,1951
1852,1939
1853,1952
1854,1920
1855,1898
1856,1905
1857,1895
1858,1886
1859,1872
1860,1904
1861,1904
1862,1921
1863,1889
1864,1857
1865,1813
1866,1808
1867,1839
1868,1854
1869,1866
1870,1869
1871,1872
1872,1859
1873,1849
1874,1869
1875,1857
1876,1849
1877,1845
1878,1871
1879,1879
1880,1878
1881,1893
1882,1869
1883,1872
1884,1872
1885,1887
1886,1898
1887,1875
1888,1863
1889,1836
1890,1835
1891,1826
1892,1828
1893,1841
1894,1851
1895,1855
1896,1871
1897,1886
1898,1863
1899,1867
1900,1856
1901,1862
1902,1859
1903,1872
1904,1872
1905,1865
1906,1871
1907,1847
1908,1846
1909,1847
1910,1856
1911,1851
1912,1853
1913,1859
1914,1857
1915,1875
1916,1873
1917,1877
1918,1881
1919,1891
1920,1865
1921,1850
1922,1845
1923,1831
1924,1830
1925,1837
1926,1849
1927,1840
1928,1845
1929,1866
1930,1865
1931,1872
1932,1882
1933,1885
1934,1872
1935,1855
1936,1863
1937,1871
1938,1859
1939,1866
1940,1858
1941,1856
1942,1842
1943,1836
1944,1826
1945,1831
1946,1820
1947,1859
1948,1879
1949,1873
1950,1870
1951,1886
1952,1874
1953,1886
1954,1872
1955,1875
1956,1872
1957,1853
1958,1851
1959,1839
1960,1855
1961,1863
1962,1915
1963,1917
1964,1832
1965,1819
1966,1850
1967,1852
1968,1829
1969,1846
1970,1869
1971,1857
1972,1863
1973,1858
1974,1851
1975,1845
1976,1876
1977,1872
1978,1855
1979,1861
1980,1875
1981,1887
1982,1890
1983,1915
1984,1901
1985,1907
1986,1889
1987,1904
1988,1906
1989,1850
1990,1812
1991,1833
1992,1803
1993,1805
1994,1822
1995,1827
1996,1829
1997,1840
1998,1843
1999,1871
2000,1874
2001,1856
2002,1854
2003,1856
2004,1859
2005,1855
2006,1834
2007,1823
2008,1833
2009,1849
2010,1843
2011,1840
2012,1855
2013,1867
2014,1859
2015,1871
2016,1883
2017,1872
2018,1883
2019,1890
2020,1898
2021,1879
2022,1869
2023,1873
2024,1863
2025,1804
2026,1819
2027,1835
2028,1840
2029,1834
2030,1843
2031,1855
2032,1865
2033,1866
2034,1871
2035,1881
2036,1872
2037,1872
2038,1871
2039,1862
2040,1840
2041,1850
2042,1829
2043,1841
2044,1856
2045,1855
2046,1877
2047,1872
2048,1871
2049,1872
2050,1867
2051,1879
2052,1871
2053,1865
2054,1861
2055,1846
2056,1876
2057,1872
2058,1843
2059,1859
2060,1855
2061,1850
2062,1857
2063,1873
2064,1872
2065,1883
2066,1861
2067,1882
2068,1886
2069,1898
2070,1873
2071,1856
2072,1879
2073,1883
2074,1822
2075,1809
2076,1819
2077,1843
2078,1847
2079,1871
2080,1883
2081,1885
2082,1856
2083,1846
2084,1858
2085,1871
2086,1847
2087,1862
2088,1858
2089,1858
2090,1850
2091,1835
2092,1834
2093,1837
2094,1825
2095,1841
2096,1855
2097,1861
2098,1866
2099,1852
2100,1872
2101,1872
2102,1878
2103,1894
2104,1903
2105,1872
2106,1857
2107,1866
2108,1859
2109,1857
2110,1840
2111,1841
2112,1858
2113,1862
2114,1864
2115,1854
2116,1863
2117,1882
2118,1870
2119,1867
2120,1879
2121,1873
2122,1860
2123,1871
2124,1853
2125,1840
2126,1840
2127,1845
2128,1858
2129,1851
2130,1847
2131,1874
2132,1879
2133,1865
2134,1868
2135,1872
2136,1886
2137,1872
2138,1871
2139,1867
2140,1849
2141,1842
2142,1840
2143,1842
2144,1858
2145,1863
2146,1866
2147,1866
2148,1870
2149,1890
2150,1870
2151,1872
2152,1880
2153,1880
2154,1856
2155,1855
2156,1845
2157,1842
2158,1835
2159,1827
2160,1845
2161,1857
2162,1882
2163,1845
2164,1858
2165,1856
2166,1856
2167,1858
2168,1868
2169,1875
2170,1873
2171,1875
2172,1850
2173,1858
2174,1830
2175,1822
2176,1847
2177,1858
2178,1833
2179,1853
2180,1871
2181,1877
2182,1873
2183,1859
2184,1875
2185,1875
2186,1861
2187,1871
2188,1890
2189,1862
2190,1858
2191,1851
2192,1850
2193,1837
2194,1839
2195,1852
2196,1871
2197,1871
2198,1848
2199,1839
2200,1843
2201,1856
2202,1865
2203,1842
2204,1872
2205,1858
2206,1826
2207,1837
2208,1852
2209,1844
2210,1843
2211,1843
2212,1856
2213,1868
2214,1872
2215,1875
2216,1894
2217,1873
2218,1883
2219,1895
2220,1883
2221,1862
2222,1862
2223,1855
2224,1838
2225,1853
2226,1849
2227,1869
2228,1867
2229,1871
2230,1899
2231,1889
2232,1863
2233,1869
2234,1869
2235,1850
2236,1862
2237,1853
2238,1853
2239,1854
2240,1849
2241,1856
2242,1840
2243,1829
2244,1831
2245,1836
2246,1854
2247,1859
2248,1853
2249,1842
2250,1856
2251,1863
2252,1875
2253,1867
2254,1898
2255,1863
2256,1850
2257,1842
2258,1808
2259,1840
2260,1851
2261,1854
2262,1840
2263,1866
2264,1841
2265,1862
2266,1856
2267,1865
2268,1872
2269,1895
2270,1871
2271,1887
2272,1870
2273,1863
2274,1824
2275,1833
2276,1835
2277,1834
2278,1840
2279,1847
2280,1865
2281,1879
2282,1866
2283,1882
2284,1885
2285,1879
2286,1872
2287,1898
2288,1870
2289,1859
2290,1855
2291,1838
2292,1852
2293,1840
2294,1840
2295,1861
2296,1873
2297,1855
2298,1871
2299,1872
2300,1894
2301,1893
2302,1858
2303,1872
2304,1867
2305,1856
2306,1839
2307,1828
2308,1833
2309,1840
2310,1840
2311,1856
2312,1854
2313,1872
2314,1886
2315,1875
2316,1870
2317,1869
2318,1873
2319,1884
2320,1855
2321,1850
2322,1839
2323,1855
2324,1855
2325,1862
2326,1853
2327,1856
2328,1847
2329,1852
2330,1861
2331,1863
2332,1857
2333,1874
2334,1863
2335,1872
2336,1867
2337,1878
2338,1875
2339,1853
2340,1840
2341,1836
2342,1829
2343,1841
2344,1824
2345,1840
2346,1852
2347,1859
2348,1863
2349,1861
2350,1875
2351,1886
2352,1883
2353,1891
2354,1887
2355,1872
2356,1849
2357,1866
2358,1847
2359,1829
2360,1837
2361,1840
2362,1847
2363,1872
2364,1871
2365,1861
2366,1889
2367,1867
2368,1877
2369,1884
2370,1873
2371,1878
2372,1868
2373,1871
2374,1842
2375,1829
2376,1842
2377,1852
2378,1839
2379,1826
2380,1863
2381,1869
2382,1870
2383,1872
2384,1872
2385,1873
2386,1871
2387,1872
2388,1871
2389,1855
2390,1842
2391,1859
2392,1842
2393,1849
2394,1846
2395,1837
2396,1851
2397,1858
2398,1872
2399,1872
2400,1871
2401,1871
2402,1885
2403,1869
2404,1881
2405,1851
2406,1863
2407,1855
2408,1841
2409,1840
2410,1844
2411,1866
2412,1830
2413,1877
2414,1858
2415,1860
2416,1856
2417,1862
2418,1886
2419,1894
2420,1857
2421,1846
2422,1856
2423,1860
2424,1855
2425,1858
2426,1842
2427,1855
2428,1850
2429,1839
2430,1860
2431,1872
2432,1883
2433,1889
2434,1866
2435,1876
2436,1873
2437,1889
2438,1869
2439,1875
2440,1872
2441,1877
2442,1858
2443,1836
2444,1831
2445,1856
2446,1862
2447,1870
2448,1871
2449,1869
2450,1858
2451,1883
2452,1891
2453,1893
2454,1876
2455,1855
2456,1840
2457,1853
2458,1855
2459,1831
2460,1840
2461,1833
2462,1844
2463,1860
2464,1854
2465,1877
2466,1861
2467,1875
2468,1883
2469,1881
2470,1877
2471,1889
2472,1863
2473,1866
2474,1858
2475,1834
2476,1850
2477,1850
2478,1845
2479,1834
2480,1862
2481,1857
2482,1862
2483,1875
2484,1870
2485,1867
2486,1870
2487,1871
2488,1844
2489,1865
2490,1854
2491,1845
2492,1835
2493,1845
2494,1838
2495,1866
2496,1856
2497,1869
2498,1872
2499,1876
2500,1876
2501,1868
2502,1879
2503,1870
2504,1876
2505,1862
2506,1862
2507,1840
2508,1840
2509,1844
2510,1842
2511,1859
2512,1855
2513,1856
2514,1872
2515,1857
2516,1867
2517,1856
2518,1870
2519,1871
2520,1877
2521,1867
2522,1863
2523,1843
2524,1837
2525,1821
2526,1840
2527,1838
2528,1856
2529,1853
2530,1854
2531,1879
2532,1886
2533,1875
2534,1873
2535,1872
2536,1867
2537,1875
2538,1858
2539,1872
2540,1851
2541,1860
2542,1838
2543,1851
2544,1844
2545,1848
2546,1851
2547,1867
2548,1867
2549,1861
2550,1883
2551,1865
2552,1857
2553,1874
2554,1869
2555,1870
2556,1858
2557,1850
2558,1840
2559,1840
2560,1850
2561,1856
2562,1847
2563,1862
2564,1855
2565,1872
2566,1857
2567,1878
2568,1879
2569,1867
2570,1883
2571,1883
2572,1863
2573,1855
2574,1840
2575,1839
2576,1826
2577,1840
2578,1854
2579,1861
2580,1872
2581,1873
2582,1890
2583,1871
2584,1872
2585,1872
2586,1869
2587,1897
2588,1866
2589,1872
2590,1857
2591,1846
2592,1848
2593,1840
2594,1849
2595,1857
2596,1873
2597,1851
2598,1886
2599,1873
2600,1878
2601,1888
2602,1885
2603,1871
2604,1850
2605,1859
2606,1857
2607,1829
2608,1838
2609,1835
2610,1838
2611,1839
2612,1845
2613,1856
2614,1863
2615,1882
2616,1862
2617,1879
2618,1874
2619,1871
2620,1872
2621,1869
2622,1857
2623,1858
2624,1842
2625,1835
2626,1839
2627,1841
2628,1843
2629,1855
2630,1867
2631,1873
2632,1849
2633,1873
2634,1874
2635,1872
2636,1872
2637,1867
2638,1856
2639,1863
2640,1844
2641,1837
2642,1833
2643,1856
2644,1835
2645,1841
2646,1856
2647,1878
2648,1867
2649,1856
2650,1873
2651,1881
2652,1886
2653,1889
2654,1895
2655,1858
2656,1842
2657,1865
2658,1851
2659,1840
2660,1844
2661,1842
2662,1866
2663,1874
2664,1869
2665,1871
2666,1873
2667,1867
2668,1890
2669,1890
2670,1879
2671,1879
2672,1877
2673,1855
2674,1843
2675,1841
2676,1849
2677,1859
2678,1863
2679,1871
2680,1865
2681,1856
2682,1849
2683,1840
2684,1872
2685,1882
2686,1872
2687,1881
2688,1872
2689,1873
2690,1840
2691,1831
2692,1835
2693,1839
2694,1839
2695,1840
2696,1866
2697,1856
2698,1862
2699,1891
2700,1865
2701,1877
2702,1872
2703,1891
2704,1882
2705,1863
2706,1865
2707,1831
2708,1863
2709,1842
2710,1830
2711,1829
2712,1845
2713,1858
2714,1851
2715,1872
2716,1875
2717,1886
2718,1887
2719,1890
2720,1894
2721,1858
2722,1851
2723,1840
2724,1826
2725,1830
2726,1835
2727,1840
2728,1853
2729,1851
2730,1861
2731,1887
2732,1870
2733,1870
2734,1872
2735,1871
2736,1856
2737,1867
2738,1867
2739,1869
2740,1831
2741,1842
2742,1824
2743,1843
2744,1840
2745,1854
2746,1854
2747,1878
2748,1873
2749,1874
2750,1867
2751,1883
2752,1876
2753,1893
2754,1879
2755,1872
2756,1860
2757,1855
2758,1823
2759,1833
2760,1839
2761,1827
2762,1854
2763,1869
2764,1866
2765,1873
2766,1877
2767,1872
2768,1881
2769,1893
2770,1891
2771,1885
2772,1877
2773,1860
2774,1861
2775,1845
2776,1843
2777,1842
2778,1823
2779,1829
2780,1840
2781,1863
2782,1877
2783,1875
2784,1870
2785,1872
2786,1872
2787,1877
2788,1861
2789,1843
2790,1854
2791,1870
2792,1852
2793,1840
2794,1847
2795,1839
2796,1841
2797,1855
2798,1883
2799,1885
2800,1872
2801,1874
2802,1874
2803,1879
2804,1860
2805,1847
2806,1847
2807,1842
2808,1840
2809,1843
2810,1846
2811,1860
2812,1856
2813,1872
2814,1861
2815,1863
2816,1846
2817,1861
2818,1870
2819,1879
2820,1872
2821,1869
2822,1853
2823,1871
2824,1840
2825,1859
2826,1851
2827,1839
2828,1847
2829,1842
2830,1869
2831,1856
2832,1891
2833,1869
2834,1872
2835,1872
2836,1858
2837,1867
2838,2287
2839,1216
2840,1830
2841,1876
2842,1879
2843,1870
2844,1825
2845,1775
2846,1785
2847,1835
2848,1893
2849,1755
2850,1737
2851,2111
2852,2535
2853,2813
2854,2979
2855,2927
2856,2779
2857,2524
2858,2132
2859,1755
2860,1520
2861,1365
2862,1173
2863,962
2864,809
2865,841
2866,1085
2867,1408
2868,1667
2869,1824
2870,1004
2871,1837
2872,1854
2873,1856
2874,1852
2875,1819
2876,1752
2877,1711
2878,1805
2879,1936
2880,1853
2881,2045
2882,2619
2883,3027
2884,3201
2885,3088
2886,2931
2887,2482
2888,1904
2889,1470
2890,1307
2891,1197
2892,1082
2893,887
2894,903
2895,1093
2896,1439
2897,1712
2898,1831
2899,1894
2900,1895
2901,928
2902,1871
2903,1930
2904,1891
2905,1855
2906,1802
2907,1718
2908,1678
2909,1772
2910,1893
2911,1951
2912,2315
2913,2801
2914,3203
2915,3229
2916,3019
2917,2832
2918,2425
2919,1730
2920,1403
2921,1237
2922,1073
2923,876
2924,788
2925,903
2926,1261
2927,1593
2928,1762
2929,1838
2930,1858
2931,1897
2932,813
2933,1788
2934,1933
2935,1921
2936,1899
2937,1851
2938,1802
2939,1744
2940,1837
2941,1856
2942,1873
2943,2350
2944,2848
2945,3181
2946,3197
2947,2971
2948,2802
2949,2192
2950,1651
2951,1392
2952,1212
2953,993
2954,793
2955,755
2956,1003
2957,1386
2958,1685
2959,1791
2960,1834
2961,1870
2962,1897
2963,787
2964,1753
2965,1936
2966,1925
2967,1921
2968,1885
2969,1838
2970,1809
2971,1878
2972,1876
2973,1911
2974,2352
2975,2806
2976,3105
2977,3131
2978,3000
2979,2773
2980,2117
2981,1633
2982,1383
2983,1174
2984,955
2985,800
2986,867
2987,1166
2988,1493
2989,1709
2990,1787
2991,1861
2992,1907
2993,1941
2994,1136
2995,1753
2996,1968
2997,1902
2998,1905
2999,1840
3000,1794
3001,1773
3002,1847
3003,1821
3004,1895
3005,2306
3006,2750
3007,3063
3008,3054
3009,2953
3010,2613
3011,2032
3012,1583
3013,1362
3014,1175
3015,979
3016,849
3017,950
3018,1263
3019,1594
3020,1751
3021,1814
3022,1871
3023,1875
3024,1875
3025,1596
3026,1585
3027,1899
3028,1895
3029,1911
3030,1878
3031,1825
3032,1789
3033,1895
3034,1819
3035,1867
3036,2375
3037,2880
3038,3137
3039,3143
3040,2933
3041,2598
3042,1943
3043,1535
3044,1311
3045,1120
3046,882
3047,820
3048,923
3049,1237
3050,1535
3051,1734
3052,1857
3053,1940
3054,1968
3055,1988
3056,2404
3057,1517
3058,1922
3059,1875
3060,1898
3061,1840
3062,1786
3063,1712
3064,1754
3065,1709
3066,1808
3067,2327
3068,2806
3069,3087
3070,3152
3071,2983
3072,2623
3073,2083
3074,1618
3075,1355
3076,1138
3077,959
3078,854
3079,983
3080,1290
3081,1616
3082,1751
3083,1780
3084,1813
3085,1872
3086,1941
3087,2704
3088,1425
3089,1966
3090,1899
3091,1901
3092,1834
3093,1770
3094,1799
3095,1885
3096,1743
3097,1829
3098,2330
3099,2752
3100,3033
3101,3069
3102,2951
3103,2633
3104,2069
3105,1654
3106,1413
3107,1198
3108,938
3109,839
3110,945
3111,1247
3112,1595
3113,1725
3114,1797
3115,1853
3116,1859
3117,1916
3118,2384
3119,1278
3120,1948
3121,1895
3122,1904
3123,1858
3124,1765
3125,1754
3126,1863
3127,1808
3128,1878
3129,2338
3130,2808
3131,3038
3132,3113
3133,2976
3134,2631
3135,2097
3136,1708
3137,1375
3138,1092
3139,903
3140,803
3141,912
3142,1266
3143,1575
3144,1717
3145,1789
3146,1864
3147,1934
3148,1949
3149,2202
3150,1235
3151,1962
3152,1920
3153,1928
3154,1866
3155,1776
3156,1695
3157,1757
3158,1712
3159,1826
3160,2262
3161,2727
3162,3030
3163,3139
3164,3010
3165,2768
3166,2239
3167,1739
3168,1391
3169,1136
3170,900
3171,790
3172,913
3173,1247
3174,1535
3175,1680
3176,1776
3177,1856
3178,1938
3179,1988
3180,2002
3181,1022
3182,1901
3183,1915
3184,1873
3185,1856
3186,1802
3187,1741
3188,1808
3189,1777
3190,1797
3191,2222
3192,2656
3193,2989
3194,3107
3195,2997
3196,2723
3197,2238
3198,1757
3199,1414
3200,1170
3201,943
3202,842
3203,944
3204,1249
3205,1523
3206,1677
3207,1741
3208,1808
3209,1873
3210,1905
3211,1931
3212,854
3213,1840
3214,1937
3215,1902
3216,1891
3217,1855
3218,1795
3219,1829
3220,1766
3221,1871
3222,2270
3223,2722
3224,2992
3225,3091
3226,2988
3227,2687
3228,2192
3229,1743
3230,1387
3231,1177
3232,960
3233,831
3234,906
3235,1233
3236,1535
3237,1737
3238,1801
3239,1840
3240,1878
3241,1875
3242,1904
3243,795
3244,1790
3245,1934
3246,1899
3247,1918
3248,1872
3249,1854
3250,1885
3251,1824
3252,1845
3253,2170
3254,2608
3255,2927
3256,3024
3257,2991
3258,2709
3259,2250
3260,1758
3261,1392
3262,1168
3263,969
3264,832
3265,955
3266,1233
3267,1562
3268,1719
3269,1781
3270,1819
3271,1872
3272,1889
3273,1918
3274,905
3275,1712
3276,1935
3277,1907
3278,1914
3279,1863
3280,1799
3281,1855
3282,1808
3283,1767
3284,2128
3285,2583
3286,2914
3287,3111
3288,3008
3289,2800
3290,2320
3291,1797
3292,1432
3293,1213
3294,993
3295,843
3296,858
3297,1155
3298,1481
3299,1680
3300,1778
3301,1842
3302,1879
3303,1925
3304,1923
3305,1050
3306,1670
3307,1923
3308,1908
3309,1899
3310,1859
3311,1807
3312,1821
3313,1803
3314,1808
3315,2153
3316,2582
3317,2887
3318,3042
3319,2983
3320,2790
3321,2369
3322,1868
3323,1505
3324,1263
3325,1018
3326,854
3327,875
3328,1139
3329,1451
3330,1600
3331,1728
3332,1791
3333,1872
3334,1904
3335,1956
3336,2064
3337,1535
3338,1954
3339,1918
3340,1936
3341,1895
3342,1810
3343,1817
3344,1793
3345,1757
3346,2054
3347,2473
3348,2881
3349,3034
3350,3038
3351,2834
3352,2451
3353,1975
3354,1584
3355,1325
3356,1083
3357,867
3358,770
3359,1003
3360,1387
3361,1600
3362,1718
3363,1818
3364,1883
3365,1889
3366,1959
3367,2653
3368,1430
3369,1963
3370,1919
3371,1939
3372,1905
3373,1870
3374,1831
3375,1809
3376,1723
3377,1961
3378,2370
3379,2752
3380,2986
3381,3054
3382,2897
3383,2533
3384,2023
3385,1609
3386,1357
3387,1141
3388,912
3389,838
3390,1023
3391,1329
3392,1570
3393,1699
3394,1775
3395,1834
3396,1905
3397,1944
3398,2587
3399,1334
3400,1936
3401,1897
3402,1937
3403,1908
3404,1856
3405,1890
3406,1826
3407,1702
3408,1964
3409,2352
3410,2711
3411,2960
3412,2992
3413,2934
3414,2587
3415,2071
3416,1669
3417,1342
3418,1091
3419,867
3420,803
3421,1006
3422,1332
3423,1579
3424,1712
3425,1782
3426,1841
3427,1878
3428,1915
3429,2165
3430,1168
3431,1936
3432,1963
3433,1963
3434,1967
3435,1895
3436,1853
3437,1755
3438,1642
3439,1878
3440,2249
3441,2638
3442,2930
3443,3045
3444,2944
3445,2658
3446,2162
3447,1744
3448,1447
3449,1209
3450,923
3451,798
3452,989
3453,1312
3454,1571
3455,1691
3456,1783
3457,1826
3458,1839
3459,1893
3460,1905
3461,1939
3462,1938
3463,1959
3464,1964
3465,1963
3466,1937
3467,1968
3468,1958
3469,1974
3470,1962
3471,1950
3472,1923
3473,1898
3474,1876
3475,1840
3476,1827
3477,1814
3478,1835
3479,1855
3480,1869
3481,1904
3482,1872
3483,1884
3484,1905
3485,1886
3486,1894
3487,1898
3488,1883
3489,1867
3490,1883
3491,1858
3492,1863
3493,1872
3494,1898
3495,1881
3496,1865
3497,1840
3498,1826
3499,1789
3500,1811
3501,1837
3502,1861
3503,1885
3504,1897
3505,1872
3506,1874
3507,1850
3508,1823
3509,1829
3510,1840
3511,1838
3512,1872
3513,1866
3514,1853
3515,1845
3516,1861
3517,1872
3518,1886
3519,1893
3520,1883
3521,1849
3522,1857
3523,1857
3524,1887
3525,1872
3526,1866
3527,1856
3528,1822
3529,1834
3530,1868
3531,1870
3532,1874
3533,1861
3534,1855
3535,1857
3536,1864
3537,1870
3538,1877
3539,1862
3540,1895
3541,1845
3542,1863
3543,1851
3544,1850
3545,1824
3546,1847
3547,1867
3548,1840
3549,1861
3550,1866
3551,1870
3552,1873
3553,1862
3554,1873
3555,1878
3556,1870
3557,1872
3558,1855
3559,1817
3560,1823
3561,1871
3562,1886
3563,1902
3564,1879
3565,1884
3566,1840
3567,1839
3568,1851
3569,1855
3570,1863
3571,1865
3572,1855
3573,1840
3574,1851
3575,1843
3576,1858
3577,1851
3578,1854
3579,1862
3580,1840
3581,1849
3582,1882
3583,1904
3584,1903
3585,1917
3586,1922
3587,1904
3588,1897
3589,1895
3590,1855
3591,1808
3592,1841
3593,1863
3594,1857
3595,1855
3596,1855
3597,1823
3598,1835
3599,1866
3600,1873
3601,1854
3602,1846
3603,1852
3604,1840
3605,1831
3606,1831
3607,1838
3608,1830
3609,1845
3610,1844
3611,1849
3612,1840
3613,1869
3614,1893
3615,1874
3616,1890
3617,1880
3618,1872
3619,1859
3620,1875
3621,1845
3622,1844
3623,1845
3624,1845
3625,1826
3626,1837
3627,1849
3628,1850
3629,1842
3630,1862
3631,1874
3632,1872
3633,1873
3634,1885
3635,1872
3636,1875
3637,1863
3638,1854
3639,1877
3640,1871
3641,1856
3642,1839
3643,1840
3644,1853
3645,1859
3646,1851
3647,1843
3648,1869
3649,1855
3650,1860
3651,1871
3652,1871
3653,1872
3654,1861
3655,1849
3656,1867
3657,1856
3658,1843
3659,1840
3660,1853
3661,1855
3662,1872
3663,1867
3664,1878
3665,1875
3666,1860
3667,1869
3668,1874
3669,1861
3670,1862
3671,1865
3672,1870
3673,1847
3674,1849
3675,1856
3676,1847
3677,1844
3678,1858
3679,1858
3680,1859
3681,1846
3682,1871
3683,1865
3684,1872
3685,1872
3686,1879
3687,1873
3688,1869
3689,1847
3690,1850
3691,1877
3692,1843
3693,1841
3694,1842
3695,1872
3696,1872
3697,1891
3698,1883
3699,1907
3700,1883
3701,1871
3702,1892
3703,1860
3704,1855
3705,1850
3706,1867
3707,1856
3708,1821
3709,1847
3710,1840
3711,1837
3712,1802
3713,1840
3714,1863
3715,1862
3716,1883
3717,1875
3718,1874
3719,1878
3720,1895
3721,1859
3722,1847
3723,1855
3724,1835
3725,1849
3726,1843
3727,1831
3728,1853
3729,1858
3730,1872
3731,1885
3732,1891
3733,1894
3734,1890
3735,1873
3736,1888
3737,1872
3738,1869
3739,1856
3740,1823
3741,1808
3742,1824
3743,1831
3744,1852
3745,1846
3746,1866
3747,1853
3748,1872
3749,1870
3750,1875
3751,1872
3752,1878
3753,1872
3754,1859
3755,1855
3756,1856
3757,1861
3758,1840
3759,1840
3760,1851
3761,1840
3762,1883
3763,1872
3764,1874
3765,1873
3766,1885
3767,1866
3768,1870
3769,1883
3770,1880
3771,1869
3772,1852
3773,1850
3774,1836
3775,1840
3776,1841
3777,1856
3778,1850
3779,1866
3780,1872
3781,1866
3782,1859
3783,1856
3784,1872
3785,1884
3786,1883
3787,1874
3788,1873
3789,1870
3790,1873
3791,1831
3792,1840
3793,1853
3794,1851
3795,1846
3796,1871
3797,1870
3798,1866
3799,1900
3800,1872
3801,1878
3802,1875
3803,1886
3804,1885
3805,1882
3806,1846
3807,1844
3808,1840
3809,1818
3810,1813
3811,1842
3812,1866
3813,1853
3814,1867
3815,1867
3816,1872
3817,1870
3818,1866
3819,1855
3820,1883
3821,1872
3822,1862
3823,1856
3824,1841
3825,1842
3826,1850
3827,1847
3828,1847
3829,1853
3830,1872
3831,1877
3832,1862
3833,1856
3834,1870
3835,1881
3836,1877
3837,1864
3838,1855
3839,1852
3840,1839
3841,1845
3842,1857
3843,1850
3844,1822
3845,1830
3846,1861
3847,1847
3848,1876
3849,1886
3850,1874
3851,1875
3852,1865
3853,1879
3854,1878
3855,1850
3856,1841
3857,1846
3858,1841
3859,1845
3860,1838
3861,1840
3862,1850
3863,1879
3864,1862
3865,1887
3866,1871
3867,1872
3868,1871
3869,1858
3870,1874
3871,1865
3872,1854
3873,1865
3874,1851
3875,1850
3876,1852
3877,1847
3878,1840
3879,1861
3880,1875
3881,1874
3882,1872
3883,1874
3884,1878
3885,1872
3886,1872
3887,1879
3888,1875
3889,1857
3890,1851
3891,1841
3892,1839
3893,1849
3894,1852
3895,1858
3896,1859
3897,1871
3898,1851
3899,1878
3900,1873
3901,1872
3902,1853
3903,1866
3904,1877
3905,1847
3906,1846
3907,1849
3908,1848
3909,1842
3910,1847
3911,1844
3912,1856
3913,1855
3914,1875
3915,1873
3916,1887
3917,1865
3918,1883
3919,1903
3920,1863
3921,1857
3922,1855
3923,1841
3924,1847
3925,1831
3926,1840
3927,1847
3928,1865
3929,1858
3930,1850
3931,1872
3932,1863
3933,1879
3934,1875
3935,1870
3936,1885
3937,1883
3938,1872
3939,1841
3940,1854
3941,1837
3942,1835
3943,1837
3944,1840
3945,1867
3946,1867
3947,1866
3948,1888
3949,1886
3950,1886
3951,1884
3952,1885
3953,1874
3954,1848
3955,1851
3956,1838
3957,1843
3958,1840
3959,1851
3960,1841
3961,1840
3962,1849
3963,1872
3964,1877
3965,1882
3966,1859
3967,1887
3968,1879
3969,1892
3970,1889
3971,1856
3972,1851
3973,1857
3974,1872
3975,1858
3976,1840
3977,1834
3978,1838
3979,1869
3980,1872
3981,1861
3982,1851
3983,1857
3984,1854
3985,1861
3986,1885
3987,1872
3988,1856
3989,1843
3990,1844
3991,1849
3992,1842
3993,1850
3994,1858
3995,1858
3996,1850
3997,1877
3998,1853
3999,1872
4000,1873
4001,1872
4002,1879
4003,1885
4004,1870
4005,1865
4006,1868
4007,1847
4008,1836
4009,1837
4010,1840
4011,1856
4012,1860
4013,1863
4014,1867
4015,1874
4016,1877
4017,1858
4018,1860
4019,1879
4020,1889
4021,1867
4022,1861
4023,1866
4024,1851
4025,1845
4026,1852
4027,1851
4028,1853
4029,1884
4030,1851
4031,1846
4032,1857
4033,1869
4034,1886
4035,1894
4036,1895
4037,1895
4038,1875
4039,1857
4040,1830
4041,1847
4042,1846
4043,1834
4044,1826
4045,1851
4046,1865
4047,1872
4048,1866
4049,1846
4050,1857
4051,1867
4052,1868
4053,1881
4054,1875
4055,1865
4056,1854
4057,1840
4058,1818
4059,1826
4060,1841
4061,1867
4062,1861
4063,1866
4064,1872
4065,1873
4066,1899
4067,1872
4068,1879
4069,1882
4070,1873
4071,1865
4072,1850
4073,1846
4074,1844
4075,1840
4076,1851
4077,1855
4078,1829
4079,1861
4080,1872
4081,1889
4082,1877
4083,1866
4084,1855
4085,1867
4086,1872
4087,1883
4088,1847
4089,1847
4090,1835
4091,1839
4092,1844
4093,1855
4094,1859
4095,1826
4096,1862
4097,1873
4098,1861
4099,1872
4100,1877
4101,1874
4102,1887
4103,1879
4104,1851
4105,1863
4106,1855
4107,1842
4108,1840
4109,1853
4110,1843
4111,1850
4112,1861
4113,1886
4114,1882
4115,1873
4116,1894
4117,1883
4118,1870
4119,1887
4120,1878
4121,1867
4122,1863
4123,1861
4124,1837
4125,1831
4126,1843
4127,1843
4128,1862
4129,1851
4130,1863
4131,1870
4132,1872
4133,1883
4134,1882
4135,1868
4136,1872
4137,1858
4138,1859
4139,1847
4140,1842
4141,1840
4142,1853
4143,1840
4144,1843
4145,1843
4146,1867
4147,1867
4148,1882
4149,1902
4150,1886
4151,1873
4152,1892
4153,1879
4154,1860
4155,1830
4156,1840
4157,1851
4158,1829
4159,1858
4160,1847
4161,1865
4162,1867
4163,1858
4164,1839
4165,1851
4166,1867
4167,1862
4168,1872
4169,1875
4170,1882
4171,1867
4172,1859
4173,1870
4174,1843
4175,1847
4176,1843
4177,1862
4178,1856
4179,1845
4180,1845
4181,1874
4182,1872
4183,1882
4184,1871
4185,1871
4186,1877
4187,1885
4188,1873
4189,1854
4190,1842
4191,1836
4192,1844
4193,1846
4194,1840
4195,1858
4196,1867
4197,1872
4198,1872
4199,1879
4200,1866
4201,1856
4202,1862
4203,1882
4204,1859
4205,1871
4206,1850
4207,1831
4208,1838
4209,1841
4210,1867
4211,1856
4212,1879
4213,1859
4214,1872
4215,1869
4216,1858
4217,1872
4218,1883
4219,1882
4220,1875
4221,1871
4222,1861
4223,1859
4224,1868
4225,1825
4226,1831
4227,1840
4228,1834
4229,1854
4230,1856
4231,1883
4232,1877
4233,1872
4234,1878
4235,1878
4236,1883
4237,1876
4238,1866
4239,1845
4240,1860
4241,1841
4242,1822
4243,1837
4244,1851
4245,1868
4246,1862
4247,1863
4248,1842
4249,1856
4250,1884
4251,1883
4252,1894
4253,1886
4254,1854
4255,1853
4256,1854
4257,1850
4258,1841
4259,1835
4260,1859
4261,1866
4262,1850
4263,1865
4264,1870
4265,1861
4266,1893
4267,1873
4268,1866
4269,1872
4270,1887
4271,1887
4272,1869
4273,1849
4274,1827
4275,1831
4276,1835
4277,1842
4278,1859
4279,1854
4280,1853
4281,1874
4282,1874
4283,1875
4284,1872
4285,1882
4286,1857
4287,1861
4288,1869
4289,1851
4290,1859
4291,1856
4292,1837
4293,1856
4294,1856
4295,1865
4296,1863
4297,1874
4298,1847
4299,1867
4300,1873
4301,1884
4302,1895
4303,1860
4304,1856
4305,1862
4306,1856
4307,1842
4308,1831
4309,1855
4310,1835
4311,1855
4312,1867
4313,1876
4314,1877
4315,1882
4316,1840
4317,1843
4318,1862
4319,1879
4320,1871
4321,1870
4322,1856
4323,1857
4324,1818
4325,1840
4326,1839
4327,1839
4328,1855
4329,1857
4330,1872
4331,1867
4332,1887
4333,1872
4334,1889
4335,1872
4336,1877
4337,1872
4338,1870
4339,1862
4340,1847
4341,1853
4342,1857
4343,1843
4344,1843
4345,1831
4346,1849
4347,1872
4348,1855
4349,1872
4350,1846
4351,1865
4352,1867
4353,1872
4354,1872
4355,1861
4356,1858
4357,1856
4358,1839
4359,1837
4360,1835
4361,1841
4362,1858
4363,1873
4364,1861
4365,1877
4366,1869
4367,1871
4368,1882
4369,1885
4370,1890
4371,1869
4372,1847
4373,1847
4374,1847
4375,1839
4376,1840
4377,1838
4378,1836
4379,1855
4380,1868
4381,1883
4382,1872
4383,1875
4384,1872
4385,1889
4386,1872
4387,1881
4388,1859
4389,1850
4390,1856
4391,1871
4392,1851
4393,1859
4394,1856
4395,1857
4396,1857
4397,1857
4398,1872
4399,1872
4400,1886
4401,1879
4402,1891
4403,1871
4404,1872
4405,1850
4406,1840
4407,1839
4408,1841
4409,1842
4410,1856
4411,1858
4412,1875
4413,1865
4414,1871
4415,1861
4416,1866
4417,1872
4418,1872
4419,1886
4420,1840
4421,1858
4422,1848
4423,1872
4424,1845
4425,1840
4426,1843
4427,1858
4428,1857
4429,1872
4430,1875
4431,1869
4432,1853
4433,1863
4434,1877
4435,1872
4436,1878
4437,1853
4438,1859
4439,1838
4440,1821
4441,1840
4442,1836
4443,1851
4444,1851
4445,1858
4446,1869
4447,1863
4448,1882
4449,1842
4450,1879
4451,1872
4452,1884
4453,1879
4454,1862
4455,1877
4456,1040
4457,1809
4458,1846
4459,1867
4460,1866
4461,1842
4462,1797
4463,1792
4464,1817
4465,1872
4466,1729
4467,1660
4468,1983
4469,2383
4470,2699
4471,2895
4472,2928
4473,2833
4474,2623
4475,2288
4476,1894
4477,1625
4478,1445
4479,1338
4480,1103
4481,944
4482,901
4483,1019
4484,1302
4485,1578
4486,1765
4487,859
4488,1744
4489,1779
4490,1806
4491,1803
4492,1766
4493,1756
4494,1743
4495,1787
4496,1900
4497,1893
4498,2078
4499,2515
4500,2943
4501,3179
4502,3152
4503,2983
4504,2627
4505,2099
4506,1647
4507,1376
4508,1264
4509,1129
4510,942
4511,858
4512,971
4513,1296
4514,1655
4515,1858
4516,1968
4517,2011
4518,877
4519,1872
4520,1914
4521,1817
4522,1758
4523,1726
4524,1678
4525,1681
4526,1767
4527,1906
4528,1879
4529,2176
4530,2628
4531,3018
4532,3289
4533,3106
4534,2909
4535,2651
4536,1990
4537,1522
4538,1302
4539,1115
4540,942
4541,762
4542,805
4543,1117
4544,1518
4545,1774
4546,1868
4547,1879
4548,1872
4549,741
4550,1695
4551,1887
4552,1871
4553,1909
4554,1881
4555,1815
4556,1765
4557,1840
4558,1856
4559,1772
4560,2141
4561,2697
4562,3114
4563,3275
4564,3091
4565,2926
4566,2491
4567,1813
4568,1449
4569,1251
4570,1066
4571,851
4572,766
4573,931
4574,1286
4575,1616
4576,1777
4577,1845
4578,1841
4579,1904
4580,995
4581,1686
4582,1967
4583,1918
4584,1941
4585,1885
4586,1810
4587,1722
4588,1834
4589,1827
4590,1778
4591,2160
4592,2658
4593,2974
4594,3148
4595,3095
4596,2896
4597,2383
4598,1798
4599,1505
4600,1260
4601,1043
4602,815
4603,832
4604,1037
4605,1360
4606,1631
4607,1763
4608,1825
4609,1866
4610,1898
4611,1533
4612,1648
4613,1953
4614,1872
4615,1845
4616,1797
4617,1744
4618,1691
4619,1819
4620,1867
4621,1872
4622,2216
4623,2635
4624,2976
4625,3127
4626,3069
4627,2887
4628,2293
4629,1774
4630,1472
4631,1237
4632,1022
4633,843
4634,857
4635,1133
4636,1457
4637,1692
4638,1781
4639,1837
4640,1862
4641,1869
4642,2223
4643,1488
4644,1891
4645,1859
4646,1870
4647,1834
4648,1793
4649,1753
4650,1877
4651,1891
4652,1883
4653,2163
4654,2559
4655,2945
4656,3185
4657,3097
4658,2903
4659,2410
4660,1779
4661,1439
4662,1185
4663,1023
4664,842
4665,809
4666,1073
4667,1451
4668,1706
4669,1824
4670,1874
4671,1883
4672,1890
4673,2694
4674,1422
4675,1884
4676,1840
4677,1863
4678,1850
4679,1808
4680,1771
4681,1846
4682,1854
4683,1842
4684,2140
4685,2551
4686,2881
4687,3113
4688,3092
4689,2867
4690,2357
4691,1815
4692,1445
4693,1214
4694,1033
4695,848
4696,867
4697,1149
4698,1478
4699,1712
4700,1796
4701,1840
4702,1902
4703,1916
4704,2616
4705,1383
4706,1921
4707,1872
4708,1875
4709,1845
4710,1780
4711,1744
4712,1854
4713,1865
4714,1825
4715,2100
4716,2519
4717,2889
4718,3066
4719,3090
4720,2882
4721,2381
4722,1840
4723,1488
4724,1219
4725,1002
4726,823
4727,909
4728,1154
4729,1441
4730,1664
4731,1757
4732,1828
4733,1875
4734,1908
4735,2229
4736,1238
4737,1936
4738,1954
4739,1993
4740,1958
4741,1819
4742,1712
4743,1751
4744,1670
4745,1681
4746,2064
4747,2495
4748,2896
4749,3106
4750,3127
4751,2941
4752,2480
4753,1957
4754,1521
4755,1244
4756,975
4757,774
4758,791
4759,1065
4760,1389
4761,1647
4762,1773
4763,1875
4764,1943
4765,1968
4766,1987
4767,1163
4768,1893
4769,1862
4770,1904
4771,1931
4772,1823
4773,1712
4774,1781
4775,1680
4776,1719
4777,2111
4778,2533
4779,2899
4780,3136
4781,3039
4782,2802
4783,2368
4784,1854
4785,1535
4786,1297
4787,1110
4788,908
4789,878
4790,1069
4791,1360
4792,1620
4793,1755
4794,1808
4795,1850
4796,1872
4797,1917
4798,937
4799,1856
4800,1948
4801,1950
4802,1943
4803,1857
4804,1792
4805,1808
4806,1736
4807,1729
4808,2023
4809,2433
4810,2818
4811,3104
4812,3071
4813,2916
4814,2480
4815,1941
4816,1566
4817,1301
4818,1092
4819,915
4820,889
4821,1050
4822,1367
4823,1622
4824,1699
4825,1782
4826,1851
4827,1891
4828,1965
4829,940
4830,1873
4831,1982
4832,1926
4833,1904
4834,1808
4835,1707
4836,1766
4837,1715
4838,1776
4839,2033
4840,2416
4841,2799
4842,3024
4843,3086
4844,2928
4845,2554
4846,2081
4847,1690
4848,1328
4849,1072
4850,835
4851,781
4852,997
4853,1345
4854,1613
4855,1728
4856,1793
4857,1801
4858,1873
4859,1904
4860,927
4861,1743
4862,1941
4863,1904
4864,1969
4865,1887
4866,1835
4867,1877
4868,1801
4869,1737
4870,2019
4871,2389
4872,2794
4873,3024
4874,3038
4875,2864
4876,2511
4877,2002
4878,1648
4879,1364
4880,1095
4881,877
4882,879
4883,1043
4884,1366
4885,1629
4886,1759
4887,1818
4888,1850
4889,1899
4890,1898
4891,1175
4892,1669
4893,1933
4894,1843
4895,1808
4896,1776
4897,1746
4898,1795
4899,1933
4900,1918
4901,2055
4902,2367
4903,2766
4904,2993
4905,3037
4906,2914
4907,2559
4908,2115
4909,1676
4910,1335
4911,1104
4912,891
4913,811
4914,947
4915,1309
4916,1575
4917,1730
4918,1796
4919,1852
4920,1905
4921,1922
4922,1859
4923,1535
4924,1957
4925,1887
4926,1851
4927,1808
4928,1745
4929,1780
4930,1879
4931,1854
4932,1990
4933,2310
4934,2714
4935,2990
4936,3123
4937,2961
4938,2643
4939,2138
4940,1689
4941,1378
4942,1159
4943,912
4944,813
4945,951
4946,1280
4947,1562
4948,1697
4949,1777
4950,1835
4951,1893
4952,1920
4953,2588
4954,1472
4955,1922
4956,1904
4957,1867
4958,1841
4959,1794
4960,1791
4961,1840
4962,1808
4963,1926
4964,2243
4965,2625
4966,2957
4967,3066
4968,2987
4969,2759
4970,2224
4971,1768
4972,1440
4973,1172
4974,919
4975,801
4976,903
4977,1225
4978,1527
4979,1702
4980,1795
4981,1856
4982,1901
4983,1943
4984,2736
4985,1467
4986,2007
4987,1907
4988,1859
4989,1800
4990,1699
4991,1713
4992,1813
4993,1782
4994,1906
4995,2223
4996,2595
4997,2931
4998,3099
4999,3024
5000,2742
5001,2254
5002,1803
5003,1483
5004,1223
5005,977
5006,833
5007,905
5008,1198
5009,1495
5010,1677
5011,1776
5012,1839
5013,1877
5014,1920
5015,2248
5016,1229
5017,1941
5018,1926
5019,1888
5020,1863
5021,1796
5022,1775
5023,1849
5024,1836
5025,1888
5026,2169
5027,2533
5028,2905
5029,3050
5030,2985
5031,2780
5032,2336
5033,1886
5034,1535
5035,1245
5036,991
5037,848
5038,843
5039,1157
5040,1435
5041,1618
5042,1729
5043,1792
5044,1839
5045,1877
5046,1927
5047,1088
5048,1936
5049,1941
5050,1941
5051,1902
5052,1831
5053,1774
5054,1787
5055,1783
5056,1845
5057,2096
5058,2483
5059,2850
5060,3051
5061,3051
5062,2844
5063,2416
5064,1906
5065,1572
5066,1297
5067,1051
5068,809
5069,879
5070,1131
5071,1425
5072,1663
5073,1776
5074,1789
5075,1842
5076,1868
5077,1889
5078,1874
5079,1965
5080,1978
5081,1986
5082,1938
5083,1949
5084,1931
5085,1936
5086,1926
5087,1936
5088,1927
5089,1930
5090,1905
5091,1896
5092,1875
5093,1871
5094,1858
5095,1865
5096,1866
5097,1884
5098,1884
5099,1887
5100,1888
5101,1898
5102,1899
5103,1899
5104,1861
5105,1854
5106,1840
5107,1846
5108,1841
5109,1855
5110,1877
5111,1855
5112,1873
5113,1891
5114,1870
5115,1846
5116,1853
5117,1854
5118,1842
5119,1874
5120,1859
5121,1867
5122,1870
5123,1872
5124,1856
5125,1862
5126,1870
5127,1847
5128,1823
5129,1827
5130,1840
5131,1854
5132,1867
5133,1867
5134,1875
5135,1868
5136,1870
5137,1865
5138,1872
5139,1872
5140,1849
5141,1842
5142,1843
5143,1846
5144,1865
5145,1878
5146,1861
5147,1843
5148,1837
5149,1883
5150,1872
5151,1871
5152,1885
5153,1866
5154,1861
5155,1866
5156,1849
5157,1841
5158,1847
5159,1843
5160,1865
5161,1850
5162,1873
5163,1879
5164,1859
5165,1866
5166,1872
5167,1866
5168,1879
5169,1874
5170,1858
5171,1857
5172,1842
5173,1838
5174,1840
5175,1841
5176,1845
5177,1842
5178,1856
5179,1859
5180,1862
5181,1865
5182,1870
5183,1872
5184,1878
5185,1866
5186,1867
5187,1858
5188,1853
5189,1842
5190,1863
5191,1846
5192,1855
5193,1850
5194,1846
5195,1840
5196,1862
5197,1872
5198,1854
5199,1881
5200,1880
5201,1893
5202,1888
5203,1883
5204,1881
5205,1883
5206,1859
5207,1823
5208,1840
5209,1830
5210,1851
5211,1844
5212,1857
5213,1862
5214,1873
5215,1869
5216,1868
5217,1853
5218,1863
5219,1898
5220,1870
5221,1855
5222,1852
5223,1840
5224,1838
5225,1845
5226,1835
5227,1841
5228,1845
5229,1849
5230,1863
5231,1876
5232,1888
5233,1879
5234,1879
5235,1892
5236,1899
5237,1859
5238,1842
5239,1843
5240,1856
5241,1856
5242,1828
5243,1851
5244,1851
5245,1843
5246,1853
5247,1872
5248,1854
5249,1854
5250,1863
5251,1883
5252,1872
5253,1890
5254,1860
5255,1840
5256,1840
5257,1823
5258,1842
5259,1843
5260,1855
5261,1858
5262,1863
5263,1869
5264,1890
5265,1886
5266,1883
5267,1894
5268,1882
5269,1885
5270,1891
5271,1857
5272,1840
5273,1815
5274,1827
5275,1831
5276,1827
5277,1838
5278,1861
5279,1856
5280,1861
5281,1875
5282,1888
5283,1872
5284,1874
5285,1872
5286,1878
5287,1873
5288,1862
5289,1849
5290,1843
5291,1837
5292,1840
5293,1841
5294,1851
5295,1858
5296,1858
5297,1875
5298,1883
5299,1874
5300,1894
5301,1883
5302,1893
5303,1872
5304,1842
5305,1844
5306,1855
5307,1813
5308,1831
5309,1840
5310,1855
5311,1839
5312,1872
5313,1870
5314,1881
5315,1880
5316,1869
5317,1857
5318,1873
5319,1872
5320,1897
5321,1866
5322,1847
5323,1866
5324,1840
5325,1843
5326,1856
5327,1861
5328,1857
5329,1861
5330,1860
5331,1875
5332,1847
5333,1865
5334,1872
5335,1885
5336,1862
5337,1857
5338,1840
5339,1845
5340,1833
5341,1815
5342,1833
5343,1855
5344,1840
5345,1857
5346,1872
5347,1869
5348,1872
5349,1872
5350,1888
5351,1887
5352,1874
5353,1883
5354,1862
5355,1842
5356,1840
5357,1837
5358,1837
5359,1840
5360,1840
5361,1846
5362,1855
5363,1867
5364,1857
5365,1869
5366,1870
5367,1871
5368,1861
5369,1887
5370,1882
5371,1861
5372,1855
5373,1840
5374,1836
5375,1843
5376,1851
5377,1849
5378,1841
5379,1870
5380,1885
5381,1866
5382,1863
5383,1877
5384,1878
5385,1887
5386,1878
5387,1871
5388,1869
5389,1847
5390,1863
5391,1856
5392,1842
5393,1855
5394,1842
5395,1855
5396,1861
5397,1866
5398,1870
5399,1872
5400,1882
5401,1862
5402,1872
5403,1872
5404,1856
5405,1845
5406,1835
5407,1842
5408,1840
5409,1846
5410,1859
5411,1850
5412,1865
5413,1872
5414,1857
5415,1850
5416,1874
5417,1874
5418,1882
5419,1888
5420,1872
5421,1849
5422,1854
5423,1867
5424,1840
5425,1851
5426,1849
5427,1856
5428,1855
5429,1872
5430,1880
5431,1870
5432,1857
5433,1855
5434,1851
5435,1886
5436,1872
5437,1856
5438,1872
5439,1877
5440,1840
5441,1845
5442,1845
5443,1839
5444,1850
5445,1868
5446,1871
5447,1873
5448,1866
5449,1856
5450,1871
5451,1881
5452,1875
5453,1872
5454,1851
5455,1856
5456,1843
5457,1826
5458,1843
5459,1839
5460,1839
5461,1847
5462,1853
5463,1872
5464,1871
5465,1891
5466,1878
5467,1874
5468,1891
5469,1896
5470,1866
5471,1872
5472,1855
5473,1859
5474,1850
5475,1837
5476,1840
5477,1852
5478,1859
5479,1869
5480,1854
5481,1867
5482,1886
5483,1871
5484,1867
5485,1879
5486,1872
5487,1872
5488,1858
5489,1867
5490,1839
5491,1840
5492,1849
5493,1835
5494,1858
5495,1860
5496,1872
5497,1869
5498,1872
5499,1875
5500,1872
5501,1887
5502,1886
5503,1899
5504,1867
5505,1838
5506,1856
5507,1849
5508,1842
5509,1840
5510,1830
5511,1857
5512,1875
5513,1878
5514,1860
5515,1854
5516,1877
5517,1872
5518,1886
5519,1872
5520,1862
5521,1851
5522,1851
5523,1853
5524,1850
5525,1842
5526,1852
5527,1840
5528,1871
5529,1865
5530,1872
5531,1870
5532,1872
5533,1881
5534,1879
5535,1888
5536,1870
5537,1867
5538,1873
5539,1842
5540,1883
5541,1837
5542,1835
5543,1815
5544,1829
5545,1841
5546,1829
5547,1854
5548,1879
5549,1887
5550,1868
5551,1885
5552,1877
5553,1874
5554,1869
5555,1847
5556,1854
5557,1849
5558,1841
5559,1842
5560,1882
5561,1846
5562,1862
5563,1854
5564,1888
5565,1879
5566,1873
5567,1878
5568,1875
5569,1882
5570,1859
5571,1866
5572,1861
5573,1842
5574,1841
5575,1838
5576,1843
5577,1848
5578,1846
5579,1863
5580,1872
5581,1886
5582,1874
5583,1873
5584,1872
5585,1872
5586,1883
5587,1863
5588,1863
5589,1872
5590,1847
5591,1840
5592,1845
5593,1862
5594,1842
5595,1858
5596,1875
5597,1879
5598,1875
5599,1872
5600,1870
5601,1878
5602,1878
5603,1903
5604,1866
5605,1842
5606,1861
5607,1840
5608,1840
5609,1842
5610,1840
5611,1866
5612,1861
5613,1877
5614,1859
5615,1879
5616,1881
5617,1879
5618,1865
5619,1856
5620,1851
5621,1851
5622,1853
5623,1839
5624,1827
5625,1843
5626,1846
5627,1838
5628,1870
5629,1868
5630,1872
5631,1851
5632,1867
5633,1872
5634,1872
5635,1903
5636,1843
5637,1853
5638,1842
5639,1850
5640,1840
5641,1839
5642,1845
5643,1856
5644,1853
5645,1843
5646,1872
5647,1859
5648,1871
5649,1875
5650,1872
5651,1875
5652,1872
5653,1873
5654,1872
5655,1855
5656,1841
5657,1827
5658,1846
5659,1846
5660,1840
5661,1862
5662,1862
5663,1865
5664,1870
5665,1888
5666,1874
5667,1874
5668,1874
5669,1884
5670,1873
5671,1851
5672,1857
5673,1855
5674,1852
5675,1840
5676,1851
5677,1845
5678,1864
5679,1877
5680,1858
5681,1877
5682,1887
5683,1878
5684,1877
5685,1901
5686,1878
5687,1877
5688,1855
5689,1845
5690,1845
5691,1843
5692,1846
5693,1847
5694,1856
5695,1877
5696,1872
5697,1874
5698,1883
5699,1880
5700,1870
5701,1872
5702,1877
5703,1867
5704,1857
5705,1866
5706,1851
5707,1822
5708,1831
5709,1841
5710,1831
5711,1856
5712,1863
5713,1870
5714,1855
5715,1873
5716,1872
5717,1875
5718,1872
5719,1890
5720,1875
5721,1863
5722,1862
5723,1846
5724,1838
5725,1841
5726,1833
5727,1840
5728,1840
5729,1843
5730,1866
5731,1872
5732,1860
5733,1872
5734,1879
5735,1891
5736,1885
5737,1860
5738,1861
5739,1853
5740,1821
5741,1837
5742,1840
5743,1851
5744,1856
5745,1871
5746,1859
5747,1877
5748,1886
5749,1872
5750,1880
5751,1888
5752,1873
5753,1872
5754,1851
5755,1859
5756,1840
5757,1825
5758,1833
5759,1837
5760,1857
5761,1874
5762,1867
5763,1860
5764,1881
5765,1858
5766,1882
5767,1877
5768,1888
5769,1881
5770,1856
5771,1868
5772,1867
5773,1885
5774,1852
5775,1842
5776,1845
5777,1859
5778,1861
5779,1857
5780,1869
5781,1879
5782,1873
5783,1885
5784,1867
5785,1890
5786,1866
5787,1857
5788,1867
5789,1851
5790,1845
5791,1841
5792,1843
5793,1856
5794,1840
5795,1853
5796,1866
5797,1866
5798,1867
5799,1879
5800,1866
5801,1893
5802,1882
5803,1883
5804,1866
5805,1859
5806,1841
5807,1847
5808,1823
5809,1840
5810,1856
5811,1850
5812,1863
5813,1850
5814,1855
5815,1873
5816,1870
5817,1871
5818,1867
5819,1882
5820,1878
5821,1872
5822,1867
5823,1840
5824,1840
5825,1839
5826,1840
5827,1847
5828,1857
5829,1844
5830,1875
5831,1872
5832,1862
5833,1872
5834,1884
5835,1875
5836,1867
5837,1853
5838,1870
5839,1857
5840,1849
5841,1842
5842,1847
5843,1841
5844,1825
5845,1855
5846,1878
5847,1882
5848,1873
5849,1870
5850,1872
5851,1862
5852,1872
5853,1858
5854,1851
5855,1857
5856,1841
5857,1839
5858,1831
5859,1849
5860,1856
5861,1861
5862,1861
5863,1872
5864,1859
5865,1885
5866,1880
5867,1879
5868,1887
5869,1872
5870,1869
5871,1865
5872,1855
5873,1843
5874,1835
5875,1818
5876,1840
5877,1843
5878,1855
5879,1869
5880,1872
5881,1872
5882,1872
5883,1872
5884,1878
5885,1889
5886,1875
5887,1873
5888,1867
5889,1859
5890,1854
5891,1824
5892,1835
5893,1838
5894,1842
5895,1850
5896,1874
5897,1871
5898,1870
5899,1873
5900,1859
5901,1872
5902,1889
5903,1860
5904,1856
5905,1859
5906,1849
5907,1829
5908,1826
5909,1847
5910,1852
5911,1856
5912,1867
5913,1868
5914,1865
5915,1862
5916,1877
5917,1877
5918,1877
5919,1879
5920,1872
5921,1869
5922,1861
5923,1842
5924,1840
5925,1839
5926,1843
5927,1839
5928,1866
5929,1854
5930,1859
5931,1862
5932,1857
5933,1871
5934,1877
5935,1873
5936,1879
5937,1872
5938,1863
5939,1850
5940,1834
5941,1835
5942,1840
5943,1850
5944,1847
5945,1861
5946,1869
5947,1866
5948,1872
5949,1872
5950,1885
5951,1890
5952,1885
5953,1872
5954,1866
5955,1851
5956,1851
5957,1856
5958,1852
5959,1853
5960,1846
5961,1851
5962,1872
5963,1869
5964,1875
5965,1872
5966,1869
5967,1873
5968,1882
5969,1879
5970,1872
5971,1860
5972,1865
5973,1839
5974,1837
5975,1837
5976,1845
5977,1851
5978,1855
5979,1869
5980,1889
5981,1866
5982,1883
5983,1874
5984,1863
5985,1873
5986,1874
5987,1868
5988,1859
5989,1840
5990,1809
5991,1840
5992,1847
5993,1843
5994,1858
5995,1847
5996,1858
5997,1853
5998,1863
5999,1875
6000,1878
6001,1876
6002,1881
6003,1872
6004,1872
6005,1855
6006,1840
6007,1841
6008,1839
6009,1831
6010,1842
6011,1846
6012,1857
6013,1862
6014,1873
6015,1855
6016,1884
6017,1875
6018,1871
6019,1871
6020,1862
6021,1856
6022,1840
6023,1859
6024,1840
6025,1831
6026,1840
6027,1845
6028,1851
6029,1869
6030,1857
6031,1869
6032,1879
6033,1868
6034,1873
6035,1875
6036,1882
6037,1859
6038,1861
6039,1858
6040,1843
6041,1841
6042,1838
6043,1850
6044,1855
6045,1856
6046,1858
6047,1878
6048,1853
6049,1871
6050,1872
6051,1882
6052,1881
6053,1863
6054,1851
6055,1845
6056,1833
6057,1825
6058,1837
6059,1834
6060,1847
6061,1875
6062,1868
6063,1870
6064,1877
6065,1876
6066,1881
6067,1878
6068,1888
6069,1875
6070,1872
6071,1867
6072,1855
6073,950
6074,1781
6075,1831
6076,1791
6077,1758
6078,1776
6079,1749
6080,1746
6081,1739
6082,1756
6083,1871
6084,1951
6085,2166
6086,2492
6087,2751
6088,2906
6089,2896
6090,2754
6091,2593
6092,2256
6093,1873
6094,1614
6095,1468
6096,1328
6097,1141
6098,926
6099,869
6100,1023
6101,1270
6102,1567
6103,1772
6104,794
6105,1740
6106,1810
6107,1745
6108,1702
6109,1680
6110,1679
6111,1649
6112,1723
6113,1894
6114,2017
6115,2181
6116,2554
6117,2944
6118,3166
6119,3138
6120,2957
6121,2626
6122,2133
6123,1634
6124,1342
6125,1227
6126,1178
6127,1049
6128,917
6129,986
6130,1253
6131,1583
6132,1783
6133,1858
6134,1882
6135,805
6136,1751
6137,1872
6138,1793
6139,1739
6140,1726
6141,1711
6142,1683
6143,1770
6144,1939
6145,2083
6146,2242
6147,2624
6148,2903
6149,3117
6150,3118
6151,2922
6152,2559
6153,2000
6154,1618
6155,1414
6156,1232
6157,1012
6158,842
6159,846
6160,1075
6161,1432
6162,1691
6163,1806
6164,1867
6165,1881
6166,938
6167,1671
6168,1923
6169,1882
6170,1859
6171,1846
6172,1813
6173,1760
6174,1835
6175,1940
6176,1878
6177,2101
6178,2522
6179,2896
6180,3070
6181,3120
6182,2947
6183,2512
6184,1969
6185,1582
6186,1311
6187,1121
6188,909
6189,762
6190,855
6191,1206
6192,1562
6193,1769
6194,1842
6195,1916
6196,1957
6197,1488
6198,1686
6199,1979
6200,1911
6201,1871
6202,1840
6203,1805
6204,1715
6205,1787
6206,1861
6207,1824
6208,2057
6209,2511
6210,2848
6211,3071
6212,3115
6213,2909
6214,2442
6215,1925
6216,1526
6217,1299
6218,1107
6219,895
6220,842
6221,989
6222,1313
6223,1615
6224,1757
6225,1814
6226,1854
6227,1909
6228,1974
6229,1602
6230,1969
6231,1998
6232,2036
6233,2006
6234,1875
6235,1739
6236,1743
6237,1731
6238,1643
6239,2009
6240,2507
6241,2864
6242,3085
6243,3088
6244,2826
6245,2349
6246,1861
6247,1565
6248,1348
6249,1139
6250,937
6251,873
6252,1041
6253,1331
6254,1575
6255,1724
6256,1788
6257,1840
6258,1886
6259,2704
6260,1418
6261,1930
6262,1920
6263,1962
6264,1958
6265,1861
6266,1819
6267,1851
6268,1765
6269,1741
6270,2096
6271,2544
6272,2870
6273,3010
6274,3038
6275,2774
6276,2325
6277,1838
6278,1524
6279,1297
6280,1103
6281,917
6282,869
6283,1109
6284,1454
6285,1680
6286,1781
6287,1828
6288,1862
6289,1902
6290,2447
6291,1269
6292,1904
6293,1905
6294,1881
6295,1896
6296,1830
6297,1749
6298,1808
6299,1805
6300,1805
6301,2128
6302,2559
6303,2904
6304,3030
6305,3030
6306,2805
6307,2330
6308,1813
6309,1503
6310,1293
6311,1119
6312,902
6313,903
6314,1098
6315,1427
6316,1691
6317,1792
6318,1843
6319,1859
6320,1892
6321,2243
6322,1253
6323,1891
6324,1857
6325,1838
6326,1827
6327,1795
6328,1797
6329,1839
6330,1858
6331,1841
6332,2102
6333,2514
6334,2846
6335,3071
6336,3071
6337,2855
6338,2371
6339,1856
6340,1489
6341,1232
6342,1041
6343,898
6344,882
6345,1136
6346,1446
6347,1667
6348,1808
6349,1886
6350,1955
6351,2003
6352,2017
6353,1144
6354,1856
6355,1830
6356,1776
6357,1776
6358,1744
6359,1723
6360,1805
6361,1840
6362,1803
6363,2041
6364,2384
6365,2711
6366,3011
6367,3069
6368,2887
6369,2480
6370,1998
6371,1577
6372,1310
6373,1104
6374,899
6375,862
6376,1074
6377,1401
6378,1663
6379,1777
6380,1827
6381,1881
6382,1917
6383,1959
6384,1055
6385,1930
6386,1984
6387,1951
6388,1934
6389,1829
6390,1709
6391,1685
6392,1641
6393,1646
6394,1969
6395,2428
6396,2832
6397,3082
6398,3147
6399,2934
6400,2502
6401,1971
6402,1579
6403,1312
6404,1088
6405,901
6406,847
6407,1088
6408,1393
6409,1628
6410,1742
6411,1821
6412,1888
6413,1911
6414,1958
6415,948
6416,1823
6417,1917
6418,1894
6419,1883
6420,1838
6421,1761
6422,1791
6423,1794
6424,1681
6425,1954
6426,2384
6427,2791
6428,3085
6429,3097
6430,2936
6431,2475
6432,1985
6433,1591
6434,1311
6435,1134
6436,976
6437,917
6438,1084
6439,1364
6440,1605
6441,1715
6442,1791
6443,1805
6444,1858
6445,1910
6446,983
6447,1789
6448,2000
6449,2027
6450,2105
6451,2000
6452,1830
6453,1755
6454,1584
6455,1518
6456,1885
6457,2374
6458,2761
6459,2993
6460,3008
6461,2838
6462,2479
6463,1968
6464,1667
6465,1366
6466,1186
6467,976
6468,917
6469,1021
6470,1348
6471,1633
6472,1726
6473,1764
6474,1808
6475,1863
6476,1931
6477,1230
6478,1677
6479,1955
6480,1939
6481,1973
6482,1899
6483,1823
6484,1787
6485,1719
6486,1686
6487,1991
6488,2405
6489,2798
6490,3051
6491,3061
6492,2866
6493,2448
6494,1994
6495,1649
6496,1362
6497,1135
6498,915
6499,877
6500,1018
6501,1325
6502,1603
6503,1725
6504,1787
6505,1847
6506,1856
6507,1926
6508,1838
6509,1613
6510,2006
6511,2000
6512,1995
6513,1907
6514,1799
6515,1754
6516,1694
6517,1650
6518,1935
6519,2341
6520,2766
6521,2981
6522,3067
6523,2868
6524,2547
6525,2035
6526,1664
6527,1386
6528,1173
6529,992
6530,890
6531,965
6532,1280
6533,1581
6534,1728
6535,1818
6536,1889
6537,1918
6538,1946
6539,2545
6540,1488
6541,1939
6542,1872
6543,1904
6544,1845
6545,1785
6546,1840
6547,1779
6548,1689
6549,1936
6550,2310
6551,2672
6552,2960
6553,3053
6554,2959
6555,2666
6556,2194
6557,1714
6558,1363
6559,1138
6560,919
6561,869
6562,976
6563,1286
6564,1535
6565,1718
6566,1803
6567,1856
6568,1879
6569,1927
6570,2669
6571,1311
6572,1936
6573,1904
6574,1889
6575,1871
6576,1809
6577,1863
6578,1855
6579,1729
6580,1946
6581,2331
6582,2735
6583,3046
6584,3136
6585,2955
6586,2635
6587,2117
6588,1714
6589,1418
6590,1157
6591,968
6592,848
6593,960
6594,1235
6595,1521
6596,1680
6597,1781
6598,1823
6599,1885
6600,1910
6601,2286
6602,1203
6603,1910
6604,1901
6605,1884
6606,1881
6607,1809
6608,1833
6609,1821
6610,1712
6611,1877
6612,2210
6613,2608
6614,3008
6615,3105
6616,3071
6617,2805
6618,2273
6619,1817
6620,1425
6621,1184
6622,961
6623,826
6624,879
6625,1168
6626,1456
6627,1626
6628,1761
6629,1833
6630,1874
6631,1909
6632,1985
6633,1088
6634,1936
6635,1926
6636,1915
6637,1872
6638,1777
6639,1783
6640,1802
6641,1713
6642,1839
6643,2150
6644,2521
6645,2912
6646,3102
6647,3101
6648,2813
6649,2384
6650,1915
6651,1535
6652,1312
6653,1040
6654,870
6655,861
6656,1105
6657,1395
6658,1584
6659,1712
6660,1796
6661,1906
6662,1968
6663,2000
6664,1012
6665,1923
6666,1951
6667,1872
6668,1806
6669,1744
6670,1730
6671,1799
6672,1773
6673,1844
6674,2122
6675,2512
6676,2855
6677,3063
6678,3026
6679,2764
6680,2366
6681,1927
6682,1535
6683,1311
6684,1088
6685,912
6686,923
6687,1123
6688,1406
6689,1595
6690,1719
6691,1810
6692,1845
6693,1917
6694,1932
6695,1952
6696,1969
6697,1963
6698,1974
6699,1970
6700,1969
6701,1984
6702,1988
6703,1962
6704,1927
6705,1897
6706,1882
6707,1840
6708,1817
6709,1822
6710,1847
6711,1839
6712,1859
6713,1862
6714,1869
6715,1874
6716,1874
6717,1887
6718,1874
6719,1907
6720,1904
6721,1915
6722,1929
6723,1937
6724,1907
6725,1846
6726,1819
6727,1827
6728,1807
6729,1826
6730,1871
6731,1875
6732,1865
6733,1859
6734,1854
6735,1809
6736,1820
6737,1869
6738,1904
6739,1873
6740,1840
6741,1822
6742,1807
6743,1805
6744,1840
6745,1864
6746,1863
6747,1878
6748,1870
6749,1867
6750,1855
6751,1882
6752,1873
6753,1863
6754,1867
6755,1843
6756,1821
6757,1847
6758,1849
6759,1853
6760,1858
6761,1876
6762,1872
6763,1889
6764,1874
6765,1882
6766,1891
6767,1889
6768,1877
6769,1886
6770,1866
6771,1851
6772,1854
6773,1831
6774,1851
6775,1852
6776,1865
6777,1853
6778,1858
6779,1865
6780,1863
6781,1882
6782,1888
6783,1884
6784,1863
6785,1855
6786,1840
6787,1856
6788,1852
6789,1831
6790,1828
6791,1835
6792,1843
6793,1842
6794,1877
6795,1893
6796,1875
6797,1904
6798,1844
6799,1823
6800,1840
6801,1847
6802,1881
6803,1862
6804,1860
6805,1826
6806,1847
6807,1819
6808,1823
6809,1857
6810,1867
6811,1895
6812,1891
6813,1897
6814,1871
6815,1904
6816,1862
6817,1834
6818,1888
6819,1886
6820,1882
6821,1869
6822,1868
6823,1852
6824,1835
6825,1825
6826,1826
6827,1813
6828,1866
6829,1843
6830,1877
6831,1883
6832,1895
6833,1895
6834,1897
6835,1894
6836,1881
6837,1870
6838,1830
6839,1859
6840,1845
6841,1867
6842,1859
6843,1843
6844,1835
6845,1829
6846,1862
6847,1851
6848,1847
6849,1869
6850,1871
6851,1846
6852,1869
6853,1862
6854,1867
6855,1854
6856,1830
6857,1856
6858,1847
6859,1843
6860,1856
6861,1858
6862,1860
6863,1885
6864,1902
6865,1870
6866,1872
6867,1871
6868,1893
6869,1872
6870,1861
6871,1859
6872,1840
6873,1871
6874,1850
6875,1843
6876,1862
6877,1849
6878,1853
6879,1852
6880,1872
6881,1849
6882,1834
6883,1856
6884,1872
6885,1875
6886,1883
6887,1863
6888,1850
6889,1853
6890,1855
6891,1855
6892,1846
6893,1865
6894,1873
6895,1877
6896,1871
6897,1872
6898,1875
6899,1884
6900,1874
6901,1856
6902,1856
6903,1856
6904,1847
6905,1858
6906,1838
6907,1828
6908,1852
6909,1869
6910,1870
6911,1873
6912,1863
6913,1842
6914,1841
6915,1840
6916,1867
6917,1874
6918,1874
6919,1862
6920,1872
6921,1861
6922,1840
6923,1860
6924,1846
6925,1827
6926,1808
6927,1828
6928,1849
6929,1875
6930,1884
6931,1861
6932,1861
6933,1888
6934,1879
6935,1874
6936,1875
6937,1881
6938,1890
6939,1859
6940,1866
6941,1827
6942,1849
6943,1840
6944,1840
6945,1858
6946,1847
6947,1831
6948,1867
6949,1872
6950,1878
6951,1883
6952,1856
6953,1873
6954,1862
6955,1843
6956,1842
6957,1840
6958,1841
6959,1845
6960,1846
6961,1856
6962,1863
6963,1866
6964,1885
6965,1881
6966,1881
6967,1873
6968,1878
6969,1883
6970,1856
6971,1861
6972,1842
6973,1839
6974,1840
6975,1837
6976,1859
6977,1861
6978,1863
6979,1857
6980,1863
6981,1850
6982,1878
6983,1859
6984,1867
6985,1876
6986,1879
6987,1861
6988,1859
6989,1867
6990,1856
6991,1873
6992,1863
6993,1867
6994,1859
6995,1847
6996,1847
6997,1824
6998,1854
6999,1872
7000,1881
7001,1863
7002,1886
7003,1874
7004,1871
7005,1856
7006,1866
7007,1840
7008,1819
7009,1826
7010,1846
7011,1862
7012,1867
7013,1872
7014,1867
7015,1866
7016,1867
7017,1877
7018,1875
7019,1873
7020,1877
7021,1881
7022,1851
7023,1847
7024,1847
7025,1840
7026,1830
7027,1828
7028,1846
7029,1872
7030,1871
7031,1881
7032,1872
7033,1869
7034,1853
7035,1865
7036,1878
7037,1872
7038,1863
7039,1839
7040,1855
7041,1834
7042,1843
7043,1843
7044,1825
7045,1866
7046,1860
7047,1869
7048,1867
7049,1862
7050,1870
7051,1878
7052,1891
7053,1872
7054,1855
7055,1855
7056,1847
7057,1846
7058,1837
7059,1837
7060,1847
7061,1847
7062,1879
7063,1868
7064,1866
7065,1861
7066,1878
7067,1872
7068,1879
7069,1893
7070,1877
7071,1855
7072,1840
7073,1837
7074,1824
7075,1830
7076,1840
7077,1845
7078,1850
7079,1877
7080,1871
7081,1872
7082,1882
7083,1872
7084,1890
7085,1877
7086,1871
7087,1859
7088,1855
7089,1863
7090,1840
7091,1847
7092,1843
7093,1855
7094,1841
7095,1853
7096,1878
7097,1840
7098,1866
7099,1867
7100,1863
7101,1865
7102,1857
7103,1856
7104,1854
7105,1858
7106,1847
7107,1839
7108,1838
7109,1843
7110,1867
7111,1863
7112,1882
7113,1872
7114,1886
7115,1879
7116,1867
7117,1872
7118,1867
7119,1874
7120,1856
7121,1865
7122,1839
7123,1841
7124,1840
7125,1850
7126,1863
7127,1865
7128,1872
7129,1876
7130,1884
7131,1890
7132,1861
7133,1861
7134,1841
7135,1871
7136,1854
7137,1861
7138,1862
7139,1847
7140,1840
7141,1826
7142,1853
7143,1854
7144,1827
7145,1865
7146,1861
7147,1881
7148,1863
7149,1872
7150,1875
7151,1881
7152,1887
7153,1874
7154,1871
7155,1879
7156,1867
7157,1837
7158,1838
7159,1840
7160,1850
7161,1872
7162,1869
7163,1878
7164,1850
7165,1878
7166,1858
7167,1871
7168,1883
7169,1885
7170,1863
7171,1872
7172,1842
7173,1827
7174,1840
7175,1841
7176,1831
7177,1862
7178,1855
7179,1871
7180,1882
7181,1872
7182,1879
7183,1863
7184,1877
7185,1870
7186,1873
7187,1858
7188,1855
7189,1847
7190,1869
7191,1845
7192,1849
7193,1853
7194,1845
7195,1856
7196,1861
7197,1867
7198,1892
7199,1882
7200,1873
7201,1890
7202,1863
7203,1862
7204,1865
7205,1855
7206,1840
7207,1840
7208,1847
7209,1843
7210,1868
7211,1869
7212,1871
7213,1871
7214,1882
7215,1878
7216,1870
7217,1861
7218,1874
7219,1856
7220,1855
7221,1846
7222,1853
7223,1846
7224,1834
7225,1840
7226,1840
7227,1831
7228,1867
7229,1874
7230,1863
7231,1882
7232,1879
7233,1884
7234,1875
7235,1881
7236,1879
7237,1863
7238,1855
7239,1851
7240,1834
7241,1839
7242,1837
7243,1846
7244,1859
7245,1863
7246,1872
7247,1874
7248,1872
7249,1879
7250,1881
7251,1871
7252,1871
7253,1859
7254,1859
7255,1849
7256,1849
7257,1840
7258,1853
7259,1830
7260,1855
7261,1869
7262,1873
7263,1895
7264,1904
7265,1875
7266,1875
7267,1890
7268,1871
7269,1863
7270,1850
7271,1853
7272,1842
7273,1799
7274,1831
7275,1843
7276,1840
7277,1855
7278,1874
7279,1881
7280,1865
7281,1880
7282,1880
7283,1863
7284,1856
7285,1874
7286,1873
7287,1855
7288,1852
7289,1830
7290,1826
7291,1838
7292,1836
7293,1867
7294,1855
7295,1863
7296,1890
7297,1856
7298,1885
7299,1876
7300,1877
7301,1882
7302,1870
7303,1879
7304,1870
7305,1873
7306,1850
7307,1840
7308,1856
7309,1856
7310,1866
7311,1858
7312,1872
7313,1863
7314,1858
7315,1856
7316,1861
7317,1867
7318,1866
7319,1888
7320,1863
7321,1843
7322,1838
7323,1863
7324,1837
7325,1838
7326,1855
7327,1831
7328,1865
7329,1869
7330,1872
7331,1878
7332,1872
7333,1874
7334,1889
7335,1876
7336,1882
7337,1873
7338,1858
7339,1840
7340,1845
7341,1840
7342,1827
7343,1841
7344,1839
7345,1839
7346,1858
7347,1858
7348,1881
7349,1869
7350,1872
7351,1873
7352,1878
7353,1881
7354,1863
7355,1856
7356,1850
7357,1843
7358,1840
7359,1829
7360,1850
7361,1871
7362,1867
7363,1872
7364,1881
7365,1873
7366,1873
7367,1872
7368,1887
7369,1872
7370,1866
7371,1843
7372,1851
7373,1862
7374,1840
7375,1839
7376,1855
7377,1840
7378,1868
7379,1870
7380,1862
7381,1872
7382,1859
7383,1861
7384,1860
7385,1873
7386,1859
7387,1865
7388,1866
7389,1853
7390,1848
7391,1840
7392,1851
7393,1859
7394,1870
7395,1873
7396,1874
7397,1870
7398,1860
7399,1872
7400,1872
7401,1869
7402,1862
7403,1862
7404,1850
7405,1849
7406,1856
7407,1839
7408,1852
7409,1845
7410,1847
7411,1856
7412,1863
7413,1867
7414,1873
7415,1890
7416,1875
7417,1879
7418,1867
7419,1877
7420,1861
7421,1850
7422,1840
7423,1854
7424,1849
7425,1846
7426,1844
7427,1871
7428,1867
7429,1867
7430,1858
7431,1870
7432,1867
7433,1872
7434,1889
7435,1885
7436,1871
7437,1863
7438,1859
7439,1835
7440,1827
7441,1812
7442,1830
7443,1855
7444,1870
7445,1875
7446,1871
7447,1842
7448,1842
7449,1868
7450,1872
7451,1866
7452,1873
7453,1872
7454,1873
7455,1856
7456,1837
7457,1849
7458,1842
7459,1850
7460,1865
7461,1865
7462,1870
7463,1877
7464,1856
7465,1885
7466,1864
7467,1878
7468,1867
7469,1871
7470,1877
7471,1870
7472,1843
7473,1852
7474,1842
7475,1835
7476,1847
7477,1840
7478,1865
7479,1862
7480,1874
7481,1869
7482,1877
7483,1873
7484,1872
7485,1888
7486,1856
7487,1854
7488,1852
7489,1840
7490,1845
7491,1840
7492,1829
7493,1858
7494,1854
7495,1859
7496,1849
7497,1877
7498,1871
7499,1881
7500,1872
7501,1883
7502,1898
7503,1861
7504,1855
7505,1840
7506,1842
7507,1845
7508,1843
7509,1840
7510,1847
7511,1850
7512,1865
7513,1875
7514,1870
7515,1856
7516,1877
7517,1890
7518,1883
7519,1887
7520,1872
7521,1855
7522,1840
7523,1838
7524,1831
7525,1830
7526,1845
7527,1845
7528,1863
7529,1859
7530,1874
7531,1862
7532,1865
7533,1870
7534,1882
7535,1898
7536,1860
7537,1861
7538,1859
7539,1851
7540,1839
7541,1855
7542,1847
7543,1862
7544,1869
7545,1867
7546,1872
7547,1872
7548,1861
7549,1861
7550,1870
7551,1863
7552,1885
7553,1872
7554,1838
7555,1840
7556,1840
7557,1829
7558,1835
7559,1845
7560,1841
7561,1851
7562,1871
7563,1872
7564,1853
7565,1857
7566,1858
7567,1876
7568,1876
7569,1878
7570,1872
7571,1856
7572,1891
7573,1861
7574,1872
7575,1868
7576,1871
7577,1863
7578,1877
7579,1883
7580,1869
7581,1879
7582,1900
7583,1901
7584,1894
7585,1880
7586,1856
7587,1847
7588,1823
7589,1834
7590,1837
7591,1853
7592,1881
7593,1872
7594,1899
7595,1860
7596,1859
7597,1840
7598,1863
7599,1868
7600,1862
7601,1867
7602,1879
7603,1852
7604,1855
7605,1854
7606,1834
7607,1837
7608,1840
7609,1840
7610,1826
7611,1841
7612,1854
7613,1866
7614,1859
7615,1858
7616,1862
7617,1877
7618,1872
7619,1887
7620,1878
7621,1879
7622,1849
7623,1858
7624,1850
7625,1843
7626,1854
7627,1866
7628,1879
7629,1878
7630,1888
7631,1860
7632,1860
7633,1877
7634,1889
7635,1875
7636,1840
7637,1856
7638,1849
7639,1855
7640,1846
7641,1846
7642,1833
7643,1834
7644,1849
7645,1851
7646,1853
7647,1877
7648,1871
7649,1870
7650,1866
7651,1866
7652,1879
7653,1857
7654,1853
7655,1867
7656,1842
7657,1847
7658,1863
7659,1872
7660,1859
7661,1872
7662,1865
7663,1857
7664,1884
7665,1883
7666,1877
7667,1877
7668,1887
7669,1895
7670,1872
7671,1872
7672,1843
7673,1840
7674,1829
7675,1827
7676,1827
7677,1840
7678,1857
7679,1856
7680,1872
7681,1870
7682,1871
7683,1876
7684,1884
7685,1895
7686,1866
7687,1856
7688,1859
7689,1827
7690,832
7691,1757
7692,1853
7693,1822
7694,1802
7695,1808
7696,1754
7697,1725
7698,1761
7699,1815
7700,1851
7701,1764
7702,1917
7703,2204
7704,2551
7705,2851
7706,2951
7707,2902
7708,2733
7709,2480
7710,2112
7711,1773
7712,1597
7713,1428
7714,1265
7715,1038
7716,967
7717,1046
7718,1216
7719,1467
7720,1654
7721,687
7722,1595
7723,1773
7724,1755
7725,1804
7726,1808
7727,1734
7728,1731
7729,1765
7730,1906
7731,1807
7732,1779
7733,2151
7734,2609
7735,2992
7736,3174
7737,3115
7738,2801
7739,2429
7740,1952
7741,1596
7742,1403
7743,1315
7744,1179
7745,1037
7746,954
7747,1059
7748,1335
7749,1643
7750,1814
7751,1915
7752,1023
7753,1686
7754,1884
7755,1835
7756,1850
7757,1827
7758,1775
7759,1722
7760,1789
7761,1903
7762,1767
7763,1809
7764,2238
7765,2672
7766,3013
7767,3173
7768,3039
7769,2743
7770,2239
7771,1744
7772,1468
7773,1351
7774,1232
7775,1058
7776,933
7777,982
7778,1261
7779,1575
7780,1760
7781,1832
7782,1872
7783,1228
7784,1677
7785,1966
7786,1905
7787,1918
7788,1872
7789,1794
7790,1674
7791,1707
7792,1821
7793,1722
7794,1879
7795,2326
7796,2766
7797,3086
7798,3171
7799,3051
7800,2762
7801,2197
7802,1747
7803,1474
7804,1328
7805,1153
7806,916
7807,858
7808,1043
7809,1355
7810,1643
7811,1769
7812,1847
7813,1891
7814,1904
7815,1571
7816,1918
7817,1895
7818,1898
7819,1823
7820,1765
7821,1722
7822,1801
7823,1837
7824,1745
7825,1943
7826,2342
7827,2757
7828,3081
7829,3184
7830,3046
7831,2767
7832,2177
7833,1722
7834,1444
7835,1254
7836,1071
7837,901
7838,900
7839,1123
7840,1456
7841,1680
7842,1761
7843,1820
7844,1878
7845,2704
7846,1407
7847,1927
7848,1902
7849,1925
7850,1862
7851,1780
7852,1744
7853,1791
7854,1830
7855,1717
7856,1904
7857,2261
7858,2692
7859,2979
7860,3071
7861,3023
7862,2683
7863,2145
7864,1733
7865,1447
7866,1293
7867,1071
7868,940
7869,950
7870,1203
7871,1475
7872,1679
7873,1776
7874,1807
7875,1843
7876,2387
7877,1249
7878,1877
7879,1859
7880,1890
7881,1831
7882,1811
7883,1762
7884,1841
7885,1931
7886,1825
7887,1935
7888,2244
7889,2697
7890,2938
7891,3065
7892,2974
7893,2636
7894,2142
7895,1747
7896,1453
7897,1295
7898,1079
7899,933
7900,987
7901,1271
7902,1517
7903,1696
7904,1767
7905,1817
7906,1863
7907,2046
7908,1179
7909,1903
7910,1915
7911,1879
7912,1829
7913,1780
7914,1725
7915,1793
7916,1885
7917,1801
7918,1859
7919,2170
7920,2585
7921,2904
7922,3139
7923,2987
7924,2695
7925,2179
7926,1771
7927,1421
7928,1265
7929,1050
7930,917
7931,1005
7932,1239
7933,1469
7934,1665
7935,1795
7936,1892
7937,1951
7938,1979
7939,1073
7940,1861
7941,1839
7942,1773
7943,1766
7944,1738
7945,1714
7946,1843
7947,1927
7948,1825
7949,1925
7950,2239
7951,2658
7952,2941
7953,3102
7954,2991
7955,2654
7956,2142
7957,1729
7958,1402
7959,1199
7960,1007
7961,899
7962,1030
7963,1275
7964,1535
7965,1706
7966,1809
7967,1887
7968,1957
7969,1984
7970,1003
7971,1877
7972,1883
7973,1808
7974,1743
7975,1715
7976,1725
7977,1821
7978,1894
7979,1855
7980,1919
7981,2192
7982,2559
7983,2907
7984,3039
7985,3011
7986,2731
7987,2193
7988,1742
7989,1429
7990,1223
7991,1043
7992,914
7993,1002
7994,1227
7995,1484
7996,1671
7997,1782
7998,1846
7999,1904
8000,1927
8001,909
8002,1790
8003,1904
8004,1802
8005,1781
8006,1773
8007,1710
8008,1821
8009,1943
8010,1879
8011,1943
8012,2213
8013,2617
8014,2967
8015,3057
8016,2960
8017,2622
8018,2155
8019,1761
8020,1450
8021,1227
8022,1039
8023,909
8024,1006
8025,1285
8026,1523
8027,1709
8028,1797
8029,1845
8030,1877
8031,1911
8032,931
8033,1729
8034,1936
8035,1861
8036,1827
8037,1749
8038,1705
8039,1814
8040,1947
8041,1891
8042,1904
8043,2189
8044,2529
8045,2896
8046,3056
8047,3022
8048,2751
8049,2245
8050,1789
8051,1411
8052,1182
8053,1009
8054,898
8055,998
8056,1290
8057,1507
8058,1664
8059,1746
8060,1818
8061,1936
8062,2010
8063,1318
8064,1722
8065,1965
8066,1840
8067,1763
8068,1733
8069,1687
8070,1806
8071,1926
8072,1870
8073,1871
8074,2095
8075,2485
8076,2864
8077,3056
8078,3034
8079,2792
8080,2347
8081,1865
8082,1457
8083,1215
8084,1052
8085,940
8086,959
8087,1229
8088,1474
8089,1663
8090,1746
8091,1803
8092,1851
8093,1889
8094,1829
8095,1535
8096,1933
8097,1872
8098,1834
8099,1821
8100,1794
8101,1885
8102,1998
8103,1856
8104,1869
8105,2128
8106,2559
8107,2911
8108,3086
8109,3025
8110,2739
8111,2256
8112,1807
8113,1491
8114,1254
8115,1067
8116,917
8117,945
8118,1171
8119,1435
8120,1633
8121,1745
8122,1846
8123,1905
8124,1949
8125,2279
8126,1534
8127,1955
8128,1862
8129,1783
8130,1697
8131,1658
8132,1813
8133,1975
8134,1872
8135,1862
8136,2069
8137,2439
8138,2774
8139,3041
8140,3024
8141,2847
8142,2408
8143,1922
8144,1565
8145,1299
8146,1077
8147,951
8148,935
8149,1163
8150,1427
8151,1629
8152,1751
8153,1808
8154,1853
8155,1865
8156,2610
8157,1267
8158,1885
8159,1843
8160,1799
8161,1787
8162,1761
8163,1862
8164,2021
8165,1933
8166,1895
8167,2063
8168,2444
8169,2819
8170,3071
8171,3014
8172,2818
8173,2427
8174,1951
8175,1533
8176,1264
8177,1071
8178,944
8179,933
8180,1179
8181,1419
8182,1648
8183,1739
8184,1783
8185,1858
8186,1885
8187,2419
8188,1221
8189,1917
8190,1853
8191,1845
8192,1806
8193,1761
8194,1821
8195,1942
8196,1827
8197,1856
8198,2030
8199,2399
8200,2806
8201,3053
8202,3056
8203,2880
8204,2487
8205,1984
8206,1535
8207,1242
8208,1057
8209,943
8210,960
8211,1169
8212,1418
8213,1610
8214,1669
8215,1778
8216,1847
8217,1879
8218,2046
8219,1093
8220,1877
8221,1867
8222,1820
8223,1770
8224,1728
8225,1786
8226,1984
8227,1936
8228,1859
8229,1995
8230,2350
8231,2767
8232,3021
8233,3088
8234,2923
8235,2559
8236,2079
8237,1625
8238,1306
8239,1072
8240,892
8241,907
8242,1089
8243,1357
8244,1584
8245,1704
8246,1778
8247,1868
8248,1882
8249,1936
8250,945
8251,1927
8252,1985
8253,1904
8254,1879
8255,1792
8256,1758
8257,1855
8258,1774
8259,1736
8260,1904
8261,2266
8262,2645
8263,2982
8264,3056
8265,2966
8266,2625
8267,2166
8268,1735
8269,1396
8270,1158
8271,966
8272,880
8273,1043
8274,1278
8275,1561
8276,1693
8277,1773
8278,1839
8279,1889
8280,1931
8281,878
8282,1827
8283,1911
8284,1835
8285,1811
8286,1764
8287,1795
8288,1995
8289,1953
8290,1809
8291,1922
8292,2236
8293,2624
8294,2938
8295,3061
8296,2963
8297,2687
8298,2193
8299,1761
8300,1418
8301,1168
8302,956
8303,881
8304,999
8305,1267
8306,1473
8307,1670
8308,1791
8309,1896
8310,1942
8311,1984
8312,1968
8313,1927
8314,1894
8315,1879
8316,1894
8317,1920
8318,1942
8319,1937
8320,1910
8321,1901
8322,1883
8323,1886
8324,1875
8325,1872
8326,1888
8327,1893
8328,1902
8329,1893
8330,1895
8331,1872
8332,1903
8333,1906
8334,1887
8335,1904
8336,1853
8337,1840
8338,1838
8339,1826
8340,1823
8341,1835
8342,1863
8343,1872
8344,1863
8345,1881
8346,1872
8347,1892
8348,1872
8349,1885
8350,1894
8351,1865
8352,1869
8353,1855
8354,1846
8355,1840
8356,1854
8357,1853
8358,1859
8359,1886
8360,1917
8361,1888
8362,1852
8363,1847
8364,1812
8365,1803
8366,1823
8367,1843
8368,1874
8369,1872
8370,1856
8371,1855
8372,1858
8373,1854
8374,1839
8375,1856
8376,1859
8377,1867
8378,1873
8379,1872
8380,1878
8381,1871
8382,1873
8383,1874
8384,1872
8385,1858
8386,1866
8387,1859
8388,1855
8389,1845
8390,1851
8391,1853
8392,1838
8393,1857
8394,1863
8395,1846
8396,1866
8397,1865
8398,1871
8399,1870
8400,1878
8401,1876
8402,1865
8403,1855
8404,1851
8405,1868
8406,1839
8407,1840
8408,1847
8409,1835
8410,1833
8411,1851
8412,1867
8413,1863
8414,1884
8415,1869
8416,1862
8417,1875
8418,1872
8419,1875
8420,1857
8421,1857
8422,1856
8423,1840
8424,1840
8425,1834
8426,1838
8427,1863
8428,1870
8429,1871
8430,1867
8431,1889
8432,1893
8433,1877
8434,1870
8435,1840
8436,1841
8437,1849
8438,1853
8439,1861
8440,1862
8441,1847
8442,1855
8443,1851
8444,1858
8445,1866
8446,1872
8447,1856
8448,1843
8449,1868
8450,1872
8451,1885
8452,1872
8453,1876
8454,1862
8455,1837
8456,1855
8457,1835
8458,1835
8459,1825
8460,1824
8461,1841
8462,1867
8463,1863
8464,1874
8465,1872
8466,1872
8467,1883
8468,1885
8469,1877
8470,1867
8471,1854
8472,1840
8473,1846
8474,1847
8475,1838
8476,1856
8477,1862
8478,1860
8479,1879
8480,1871
8481,1867
8482,1878
8483,1872
8484,1875
8485,1869
8486,1851
8487,1840
8488,1837
8489,1853
8490,1841
8491,1850
8492,1856
8493,1847
8494,1856
8495,1868
8496,1875
8497,1855
8498,1865
8499,1875
8500,1869
8501,1878
8502,1865
8503,1857
8504,1847
8505,1853
8506,1870
8507,1840
8508,1842
8509,1861
8510,1866
8511,1856
8512,1881
8513,1859
8514,1872
8515,1870
8516,1859
8517,1858
8518,1859
8519,1870
8520,1840
8521,1857
8522,1847
8523,1851
8524,1846
8525,1851
8526,1856
8527,1868
8528,1870
8529,1873
8530,1875
8531,1855
8532,1872
8533,1859
8534,1868
8535,1872
8536,1862
8537,1850
8538,1847
8539,1856
8540,1843
8541,1844
8542,1853
8543,1844
8544,1851
8545,1857
8546,1872
8547,1874
8548,1866
8549,1863
8550,1869
8551,1873
8552,1873
8553,1856
8554,1854
8555,1852
8556,1846
8557,1841
8558,1846
8559,1842
8560,1831
8561,1868
8562,1884
8563,1857
8564,1869
8565,1873
8566,1885
8567,1899
8568,1904
8569,1887
8570,1885
8571,1857
8572,1827
8573,1796
8574,1814
8575,1814
8576,1825
8577,1840
8578,1856
8579,1858
8580,1879
8581,1882
8582,1879
8583,1872
8584,1871
8585,1897
8586,1858
8587,1855
8588,1840
8589,1857
8590,1840
8591,1841
8592,1854
8593,1843
8594,1871
8595,1867
8596,1877
8597,1881
8598,1883
8599,1872
8600,1865
8601,1885
8602,1870
8603,1845
8604,1845
8605,1856
8606,1853
8607,1824
8608,1830
8609,1840
8610,1843
8611,1859
8612,1875
8613,1882
8614,1841
8615,1877
8616,1867
8617,1868
8618,1883
8619,1879
8620,1856
8621,1861
8622,1838
8623,1843
8624,1842
8625,1854
8626,1849
8627,1855
8628,1857
8629,1861
8630,1863
8631,1856
8632,1870
8633,1872
8634,1876
8635,1867
8636,1851
8637,1858
8638,1859
8639,1824
8640,1840
8641,1835
8642,1858
8643,1854
8644,1840
8645,1872
8646,1863
8647,1874
8648,1879
8649,1881
8650,1881
8651,1877
8652,1861
8653,1856
8654,1852
8655,1835
8656,1829
8657,1838
8658,1845
8659,1852
8660,1851
8661,1872
8662,1867
8663,1876
8664,1856
8665,1867
8666,1867
8667,1867
8668,1873
8669,1874
8670,1866
8671,1869
8672,1866
8673,1851
8674,1845
8675,1837
8676,1856
8677,1868
8678,1874
8679,1878
8680,1882
8681,1859
8682,1846
8683,1855
8684,1861
8685,1882
8686,1872
8687,1862
8688,1843
8689,1840
8690,1840
8691,1843
8692,1840
8693,1846
8694,1862
8695,1857
8696,1872
8697,1872
8698,1883
8699,1887
8700,1872
8701,1872
8702,1875
8703,1862
8704,1861
8705,1849
8706,1851
8707,1840
8708,1845
8709,1867
8710,1851
8711,1872
8712,1877
8713,1865
8714,1872
8715,1876
8716,1872
8717,1861
8718,1871
8719,1873
8720,1855
8721,1856
8722,1856
8723,1835
8724,1834
8725,1839
8726,1838
8727,1869
8728,1871
8729,1855
8730,1872
8731,1872
8732,1877
8733,1874
8734,1883
8735,1863
8736,1861
8737,1862
8738,1853
8739,1855
8740,1853
8741,1851
8742,1851
8743,1854
8744,1840
8745,1866
8746,1879
8747,1870
8748,1869
8749,1872
8750,1871
8751,1873
8752,1857
8753,1871
8754,1850
8755,1843
8756,1854
8757,1840
8758,1834
8759,1843
8760,1856
8761,1857
8762,1886
8763,1852
8764,1872
8765,1885
8766,1873
8767,1888
8768,1880
8769,1846
8770,1855
8771,1873
8772,1852
8773,1846
8774,1841
8775,1852
8776,1846
8777,1823
8778,1862
8779,1862
8780,1872
8781,1888
8782,1874
8783,1877
8784,1856
8785,1887
8786,1863
8787,1847
8788,1856
8789,1843
8790,1842
8791,1840
8792,1822
8793,1842
8794,1856
8795,1872
8796,1886
8797,1875
8798,1869
8799,1867
8800,1878
8801,1875
8802,1873
8803,1871
8804,1850
8805,1839
8806,1845
8807,1840
8808,1850
8809,1867
8810,1835
8811,1857
8812,1881
8813,1862
8814,1867
8815,1867
8816,1872
8817,1873
8818,1877
8819,1856
8820,1840
8821,1855
8822,1841
8823,1823
8824,1843
8825,1849
8826,1851
8827,1860
8828,1866
8829,1866
8830,1873
8831,1857
8832,1872
8833,1876
8834,1901
8835,1881
8836,1856
8837,1852
8838,1859
8839,1857
8840,1839
8841,1843
8842,1845
8843,1855
8844,1857
8845,1853
8846,1872
8847,1873
8848,1885
8849,1872
8850,1874
8851,1875
8852,1869
8853,1863
8854,1871
8855,1851
8856,1841
8857,1835
8858,1841
8859,1872
8860,1851
8861,1863
8862,1875
8863,1869
8864,1840
8865,1869
8866,1873
8867,1865
8868,1868
8869,1886
8870,1862
8871,1850
8872,1857
8873,1834
8874,1840
8875,1840
8876,1840
8877,1861
8878,1872
8879,1868
8880,1871
8881,1887
8882,1872
8883,1877
8884,1903
8885,1880
8886,1868
8887,1863
8888,1869
8889,1841
8890,1834
8891,1839
8892,1838
8893,1855
8894,1858
8895,1874
8896,1871
8897,1895
8898,1870
8899,1879
8900,1889
8901,1890
8902,1872
8903,1863
8904,1842
8905,1827
8906,1834
8907,1831
8908,1839
8909,1826
8910,1840
8911,1867
8912,1859
8913,1874
8914,1853
8915,1883
8916,1877
8917,1887
8918,1875
8919,1855
8920,1847
8921,1862
8922,1863
8923,1837
8924,1833
8925,1840
8926,1856
8927,1856
8928,1879
8929,1872
8930,1873
8931,1881
8932,1871
8933,1870
8934,1858
8935,1867
8936,1868
8937,1862
8938,1863
8939,1868
8940,1834
8941,1841
8942,1855
8943,1867
8944,1872
8945,1867
8946,1859
8947,1870
8948,1861
8949,1872
8950,1875
8951,1878
8952,1869
8953,1861
8954,1862
8955,1857
8956,1824
8957,1840
8958,1843
8959,1819
8960,1859
8961,1851
8962,1852
8963,1858
8964,1872
8965,1868
8966,1871
8967,1877
8968,1872
8969,1856
8970,1859
8971,1861
8972,1851
8973,1836
8974,1838
8975,1834
8976,1853
8977,1846
8978,1870
8979,1865
8980,1853
8981,1873
8982,1879
8983,1875
8984,1856
8985,1870
8986,1866
8987,1863
8988,1849
8989,1855
8990,1845
8991,1841
8992,1856
8993,1855
8994,1840
8995,1855
8996,1857
8997,1872
8998,1871
8999,1873
9000,1871
9001,1872
9002,1883
9003,1858
9004,1848
9005,1840
9006,1841
9007,1849
9008,1847
9009,1811
9010,1865
9011,1872
9012,1865
9013,1876
9014,1877
9015,1873
9016,1876
9017,1862
9018,1885
9019,1878
9020,1882
9021,1845
9022,1859
9023,1838
9024,1833
9025,1834
9026,1841
9027,1858
9028,1866
9029,1867
9030,1858
9031,1852
9032,1857
9033,1865
9034,1863
9035,1903
9036,1869
9037,1871
9038,1869
9039,1833
9040,1851
9041,1850
9042,1836
9043,1859
9044,1851
9045,1859
9046,1860
9047,1872
9048,1871
9049,1877
9050,1879
9051,1873
9052,1877
9053,1863
9054,1851
9055,1862
9056,1842
9057,1843
9058,1839
9059,1839
9060,1861
9061,1867
9062,1872
9063,1876
9064,1872
9065,1871
9066,1872
9067,1878
9068,1881
9069,1872
9070,1866
9071,1855
9072,1847
9073,1839
9074,1851
9075,1858
9076,1862
9077,1867
9078,1867
9079,1885
9080,1869
9081,1872
9082,1872
9083,1879
9084,1904
9085,1883
9086,1865
9087,1857
9088,1844
9089,1834
9090,1831
9091,1843
9092,1840
9093,1850
9094,1859
9095,1872
9096,1861
9097,1869
9098,1863
9099,1863
9100,1874
9101,1869
9102,1878
9103,1875
9104,1853
9105,1857
9106,1840
9107,1838
9108,1841
9109,1858
9110,1871
9111,1871
9112,1873
9113,1867
9114,1859
9115,1871
9116,1863
9117,1867
9118,1898
9119,1873
9120,1841
9121,1846
9122,1857
9123,1845
9124,1843
9125,1851
9126,1850
9127,1853
9128,1882
9129,1857
9130,1869
9131,1886
9132,1872
9133,1869
9134,1835
9135,1870
9136,1870
9137,1845
9138,1853
9139,1851
9140,1845
9141,1843
9142,1851
9143,1862
9144,1859
9145,1853
9146,1857
9147,1875
9148,1872
9149,1863
9150,1885
9151,1877
9152,1869
9153,1869
9154,1856
9155,1847
9156,1840
9157,1840
9158,1842
9159,1818
9160,1843
9161,1863
9162,1867
9163,1873
9164,1883
9165,1881
9166,1878
9167,1891
9168,1872
9169,1877
9170,1863
9171,1857
9172,1856
9173,1838
9174,1841
9175,1833
9176,1840
9177,1845
9178,1856
9179,1856
9180,1872
9181,1867
9182,1877
9183,1873
9184,1861
9185,1874
9186,1865
9187,1861
9188,1839
9189,1851
9190,1844
9191,1842
9192,1843
9193,1840
9194,1871
9195,1868
9196,1870
9197,1873
9198,1869
9199,1872
9200,1875
9201,1873
9202,1899
9203,1855
9204,1853
9205,1854
9206,1808
9207,1845
9208,1840
9209,1817
9210,1856
9211,1867
9212,1856
9213,1873
9214,1878
9215,1872
9216,1875
9217,1867
9218,1887
9219,1871
9220,1856
9221,1845
9222,1842
9223,1835
9224,1843
9225,1849
9226,1856
9227,1854
9228,1862
9229,1855
9230,1856
9231,1859
9232,1879
9233,1871
9234,1889
9235,1875
9236,1859
9237,1853
9238,1850
9239,1848
9240,1834
9241,1840
9242,1852
9243,1877
9244,1881
9245,1872
9246,1872
9247,1872
9248,1878
9249,1889
9250,1879
9251,1875
9252,1873
9253,1867
9254,1840
9255,1853
9256,1829
9257,1840
9258,1840
9259,1843
9260,1839
9261,1867
9262,1865
9263,1875
9264,1872
9265,1872
9266,1875
9267,1891
9268,1879
9269,1861
9270,1862
9271,1852
9272,1847
9273,1847
9274,1838
9275,1841
9276,1842
9277,1876
9278,1854
9279,1866
9280,1872
9281,1871
9282,1874
9283,1874
9284,1878
9285,1877
9286,1869
9287,1865
9288,1841
9289,1856
9290,1840
9291,1840
9292,1846
9293,1845
9294,1850
9295,1872
9296,1879
9297,1871
9298,1857
9299,1861
9300,1874
9301,1872
9302,1877
9303,1855
9304,1845
9305,1846
9306,1865
9307,947
9308,1712
9309,1843
9310,1783
9311,1807
9312,1809
9313,1773
9314,1765
9315,1741
9316,1770
9317,1814
9318,1840
9319,1920
9320,2165
9321,2501
9322,2766
9323,2922
9324,2928
9325,2786
9326,2514
9327,2161
9328,1808
9329,1584
9330,1439
9331,1355
9332,1138
9333,983
9334,999
9335,1141
9336,1355
9337,1535
9338,839
9339,1523
9340,1733
9341,1713
9342,1737
9343,1757
9344,1753
9345,1744
9346,1761
9347,1851
9348,1982
9349,1956
9350,2203
9351,2624
9352,2977
9353,3178
9354,3102
9355,2846
9356,2409
9357,1905
9358,1516
9359,1328
9360,1233
9361,1170
9362,1017
9363,961
9364,1136
9365,1380
9366,1638
9367,1808
9368,1875
9369,1399
9370,1728
9371,1994
9372,1923
9373,1913
9374,1886
9375,1766
9376,1663
9377,1664
9378,1775
9379,1789
9380,1867
9381,2272
9382,2737
9383,3122
9384,3242
9385,3009
9386,2843
9387,2365
9388,1727
9389,1419
9390,1200
9391,1063
9392,928
9393,896
9394,994
9395,1296
9396,1600
9397,1750
9398,1834
9399,1865
9400,2005
9401,1533
9402,1902
9403,1872
9404,1908
9405,1895
9406,1840
9407,1774
9408,1779
9409,1875
9410,1749
9411,1797
9412,2287
9413,2771
9414,3088
9415,3205
9416,3018
9417,2858
9418,2320
9419,1728
9420,1391
9421,1190
9422,1053
9423,832
9424,830
9425,1034
9426,1384
9427,1658
9428,1766
9429,1822
9430,1874
9431,2344
9432,1502
9433,1931
9434,1891
9435,1899
9436,1872
9437,1803
9438,1734
9439,1744
9440,1857
9441,1803
9442,1950
9443,2352
9444,2790
9445,3118
9446,3185
9447,3022
9448,2832
9449,2212
9450,1702
9451,1411
9452,1178
9453,944
9454,799
9455,867
9456,1151
9457,1470
9458,1683
9459,1779
9460,1821
9461,1863
9462,2526
9463,1296
9464,1904
9465,1885
9466,1911
9467,1910
9468,1886
9469,1797
9470,1781
9471,1836
9472,1725
9473,1911
9474,2293
9475,2721
9476,3051
9477,3130
9478,3013
9479,2739
9480,2161
9481,1695
9482,1391
9483,1178
9484,976
9485,852
9486,931
9487,1224
9488,1505
9489,1687
9490,1775
9491,1810
9492,1859
9493,2126
9494,1221
9495,1926
9496,1901
9497,1889
9498,1881
9499,1824
9500,1771
9501,1855
9502,1899
9503,1779
9504,1899
9505,2242
9506,2672
9507,2981
9508,3103
9509,2986
9510,2642
9511,2128
9512,1703
9513,1391
9514,1151
9515,987
9516,849
9517,956
9518,1245
9519,1535
9520,1699
9521,1776
9522,1839
9523,1857
9524,1903
9525,1118
9526,1933
9527,1969
9528,1965
9529,1931
9530,1861
9531,1738
9532,1765
9533,1785
9534,1655
9535,1871
9536,2245
9537,2662
9538,2963
9539,3121
9540,2960
9541,2635
9542,2127
9543,1744
9544,1422
9545,1207
9546,990
9547,873
9548,953
9549,1259
9550,1558
9551,1718
9552,1812
9553,1858
9554,1905
9555,1951
9556,1079
9557,1869
9558,1893
9559,1840
9560,1809
9561,1774
9562,1733
9563,1789
9564,1857
9565,1814
9566,1926
9567,2245
9568,2625
9569,2983
9570,3120
9571,3005
9572,2803
9573,2240
9574,1759
9575,1390
9576,1150
9577,944
9578,854
9579,956
9580,1267
9581,1535
9582,1721
9583,1835
9584,1874
9585,1904
9586,1872
9587,942
9588,1786
9589,1874
9590,1840
9591,1851
9592,1773
9593,1701
9594,1767
9595,1875
9596,1842
9597,1943
9598,2239
9599,2671
9600,2975
9601,3065
9602,3004
9603,2703
9604,2193
9605,1745
9606,1436
9607,1199
9608,959
9609,885
9610,960
9611,1231
9612,1489
9613,1680
9614,1779
9615,1845
9616,1895
9617,1947
9618,1010
9619,1795
9620,1924
9621,1855
9622,1827
9623,1759
9624,1731
9625,1789
9626,1853
9627,1802
9628,1938
9629,2235
9630,2659
9631,2982
9632,3154
9633,3061
9634,2768
9635,2247
9636,1750
9637,1362
9638,1123
9639,925
9640,850
9641,945
9642,1209
9643,1518
9644,1698
9645,1791
9646,1857
9647,1901
9648,1920
9649,1066
9650,1740
9651,1898
9652,1815
9653,1834
9654,1808
9655,1747
9656,1790
9657,1872
9658,1799
9659,1899
9660,2190
9661,2608
9662,2928
9663,3160
9664,3066
9665,2816
9666,2304
9667,1821
9668,1429
9669,1143
9670,960
9671,863
9672,947
9673,1222
9674,1499
9675,1681
9676,1759
9677,1825
9678,1874
9679,1892
9680,1662
9681,1621
9682,1945
9683,1872
9684,1858
9685,1840
9686,1738
9687,1798
9688,1879
9689,1842
9690,1916
9691,2167
9692,2559
9693,2886
9694,3117
9695,3054
9696,2848
9697,2320
9698,1834
9699,1460
9700,1197
9701,978
9702,817
9703,875
9704,1150
9705,1466
9706,1629
9707,1735
9708,1817
9709,1895
9710,1954
9711,2416
9712,1557
9713,1987
9714,1881
9715,1851
9716,1808
9717,1731
9718,1775
9719,1846
9720,1809
9721,1906
9722,2133
9723,2512
9724,2832
9725,3033
9726,3045
9727,2834
9728,2378
9729,1901
9730,1534
9731,1209
9732,1002
9733,859
9734,904
9735,1170
9736,1446
9737,1662
9738,1745
9739,1792
9740,1837
9741,1879
9742,2624
9743,1425
9744,1899
9745,1850
9746,1828
9747,1802
9748,1757
9749,1824
9750,1921
9751,1922
9752,1936
9753,2154
9754,2558
9755,2880
9756,3090
9757,3067
9758,2849
9759,2354
9760,1872
9761,1477
9762,1199
9763,973
9764,850
9765,901
9766,1178
9767,1456
9768,1645
9769,1745
9770,1813
9771,1870
9772,1904
9773,2387
9774,1262
9775,1930
9776,1910
9777,1909
9778,1872
9779,1794
9780,1744
9781,1798
9782,1746
9783,1866
9784,2113
9785,2484
9786,2848
9787,3047
9788,3105
9789,2875
9790,2427
9791,1956
9792,1535
9793,1278
9794,1055
9795,857
9796,863
9797,1051
9798,1367
9799,1625
9800,1744
9801,1827
9802,1859
9803,1878
9804,2197
9805,1166
9806,1876
9807,1857
9808,1823
9809,1776
9810,1726
9811,1779
9812,1936
9813,1932
9814,1926
9815,2133
9816,2503
9817,2855
9818,3098
9819,3066
9820,2882
9821,2463
9822,1975
9823,1581
9824,1283
9825,1055
9826,861
9827,871
9828,1080
9829,1360
9830,1605
9831,1728
9832,1804
9833,1847
9834,1889
9835,1899
9836,986
9837,1872
9838,1890
9839,1841
9840,1836
9841,1776
9842,1758
9843,1901
9844,1847
9845,1856
9846,2074
9847,2423
9848,2832
9849,3052
9850,3010
9851,2850
9852,2522
9853,2042
9854,1611
9855,1296
9856,1059
9857,848
9858,824
9859,1039
9860,1341
9861,1590
9862,1733
9863,1840
9864,1888
9865,1923
9866,1938
9867,934
9868,1840
9869,1915
9870,1872
9871,1868
9872,1776
9873,1712
9874,1813
9875,1789
9876,1803
9877,1991
9878,2330
9879,2735
9880,2989
9881,3063
9882,2955
9883,2615
9884,2131
9885,1722
9886,1394
9887,1130
9888,939
9889,812
9890,938
9891,1264
9892,1531
9893,1698
9894,1797
9895,1842
9896,1882
9897,1910
9898,884
9899,1781
9900,1937
9901,1861
9902,1842
9903,1789
9904,1799
9905,1937
9906,1901
9907,1846
9908,1993
9909,2304
9910,2672
9911,3000
9912,3106
9913,2947
9914,2617
9915,2150
9916,1697
9917,1360
9918,1109
9919,880
9920,815
9921,963
9922,1270
9923,1479
9924,1657
9925,1750
9926,1844
9927,1933
9928,1994
9929,2011
9930,2011
9931,1987
9932,1983
9933,1934
9934,1936
9935,1888
9936,1865
9937,1872
9938,1885
9939,1905
9940,1920
9941,1898
9942,1902
9943,1881
9944,1851
9945,1824
9946,1835
9947,1883
9948,1899
9949,1897
9950,1882
9951,1894
9952,1903
9953,1898
9954,1890
9955,1877
9956,1872
9957,1897
9958,1874
9959,1842
9960,1841
9961,1828
9962,1830
9963,1865
9964,1860
9965,1872
9966,1886
9967,1894
9968,1873
9969,1885
9970,1865
9971,1862
9972,1867
9973,1854
9974,1859
9975,1872
9976,1866
9977,1845
9978,1851
9979,1845
9980,1854
9981,1841
9982,1822
9983,1817
9984,1860
9985,1859
9986,1872
9987,1875
9988,1867
9989,1863
9990,1856
9991,1859
9992,1863
9993,1862
9994,1874
9995,1877
9996,1867
9997,1887
9998,1879
9999,1876
10000,1897
10001,1905
10002,1895
10003,1863
10004,1862
10005,1812
10006,1796
10007,1801
10008,1819
10009,1831
10010,1846
10011,1877
10012,1875
10013,1885
10014,1895
10015,1885
10016,1874
10017,1882
10018,1870
10019,1840
10020,1851
10021,1842
10022,1838
10023,1843
10024,1841
10025,1860
10026,1854
10027,1882
10028,1872
10029,1857
10030,1868
10031,1858
10032,1887
10033,1872
10034,1883
10035,1902
10036,1853
10037,1845
10038,1846
10039,1823
10040,1840
10041,1840
10042,1846
10043,1841
10044,1865
10045,1859
10046,1895
10047,1880
10048,1907
10049,1875
10050,1878
10051,1885
10052,1859
10053,1837
10054,1821
10055,1845
10056,1840
10057,1850
10058,1843
10059,1866
10060,1855
10061,1842
10062,1869
10063,1870
10064,1881
10065,1886
10066,1902
10067,1894
10068,1884
10069,1883
10070,1850
10071,1834
10072,1835
10073,1840
10074,1840
10075,1831
10076,1820
10077,1856
10078,1871
10079,1890
10080,1879
10081,1908
10082,1885
10083,1856
10084,1851
10085,1861
10086,1850
10087,1872
10088,1895
10089,1855
10090,1846
10091,1841
10092,1841
10093,1835
10094,1856
10095,1856
10096,1865
10097,1872
10098,1881
10099,1885
10100,1898
10101,1895
10102,1867
10103,1877
10104,1854
10105,1840
10106,1827
10107,1839
10108,1847
10109,1849
10110,1851
10111,1872
10112,1877
10113,1872
10114,1883
10115,1884
10116,1882
10117,1887
10118,1872
10119,1846
10120,1843
10121,1865
10122,1859
10123,1842
10124,1862
10125,1842
10126,1855
10127,1846
10128,1850
10129,1853
10130,1856
10131,1865
10132,1871
10133,1867
10134,1874
10135,1854
10136,1852
10137,1851
10138,1869
10139,1856
10140,1835
10141,1840
10142,1856
10143,1838
10144,1869
10145,1871
10146,1873
10147,1872
10148,1890
10149,1889
10150,1870
10151,1879
10152,1881
10153,1872
10154,1874
10155,1859
10156,1825
10157,1829
10158,1840
10159,1828
10160,1856
10161,1859
10162,1874
10163,1858
10164,1853
10165,1857
10166,1868
10167,1889
10168,1882
10169,1863
10170,1843
10171,1863
10172,1819
10173,1841
10174,1842
10175,1835
10176,1842
10177,1866
10178,1872
10179,1861
10180,1872
10181,1863
10182,1872
10183,1888
10184,1877
10185,1887
10186,1859
10187,1855
10188,1827
10189,1840
10190,1840
10191,1844
10192,1822
10193,1859
10194,1871
10195,1878
10196,1859
10197,1858
10198,1859
10199,1857
10200,1866
10201,1867
10202,1865
10203,1850
10204,1864
10205,1840
10206,1843
10207,1843
10208,1853
10209,1844
10210,1851
10211,1873
10212,1866
10213,1884
10214,1869
10215,1877
10216,1875
10217,1865
10218,1894
10219,1868
10220,1851
10221,1842
10222,1840
10223,1827
10224,1828
10225,1831
10226,1850
10227,1871
10228,1861
10229,1858
10230,1867
10231,1867
10232,1885
10233,1876
10234,1889
10235,1879
10236,1863
10237,1856
10238,1845
10239,1851
10240,1855
10241,1840
10242,1863
10243,1860
10244,1857
10245,1872
10246,1849
10247,1851
10248,1872
10249,1872
10250,1883
10251,1865
10252,1860
10253,1872
10254,1855
10255,1853
10256,1829
10257,1834
10258,1842
10259,1851
10260,1842
10261,1851
10262,1855
10263,1872
10264,1859
10265,1871
10266,1873
10267,1899
10268,1883
10269,1869
10270,1856
10271,1843
10272,1857
10273,1844
10274,1841
10275,1853
10276,1859
10277,1866
10278,1869
10279,1882
10280,1867
10281,1869
10282,1875
10283,1887
10284,1885
10285,1861
10286,1862
10287,1840
10288,1843
10289,1851
10290,1836
10291,1842
10292,1838
10293,1840
10294,1859
10295,1869
10296,1883
10297,1879
10298,1871
10299,1872
10300,1859
10301,1873
10302,1865
10303,1847
10304,1853
10305,1850
10306,1855
10307,1851
10308,1845
10309,1846
10310,1840
10311,1855
10312,1869
10313,1894
10314,1868
10315,1872
10316,1877
10317,1907
10318,1875
10319,1869
10320,1867
10321,1849
10322,1867
10323,1841
10324,1845
10325,1840
10326,1855
10327,1863
10328,1869
10329,1877
10330,1871
10331,1855
10332,1856
10333,1855
10334,1877
10335,1853
10336,1869
10337,1871
10338,1853
10339,1853
10340,1850
10341,1850
10342,1834
10343,1842
10344,1843
10345,1856
10346,1857
10347,1888
10348,1872
10349,1863
10350,1882
10351,1901
10352,1874
10353,1872
10354,1873
10355,1847
10356,1850
10357,1846
10358,1846
10359,1840
10360,1858
10361,1872
10362,1871
10363,1872
10364,1872
10365,1877
10366,1885
10367,1871
10368,1891
10369,1857
10370,1855
10371,1842
10372,1841
10373,1842
10374,1840
10375,1842
10376,1839
10377,1858
10378,1861
10379,1867
10380,1873
10381,1885
10382,1880
10383,1872
10384,1882
10385,1868
10386,1856
10387,1854
10388,1856
10389,1849
10390,1843
10391,1851
10392,1873
10393,1854
10394,1869
10395,1867
10396,1885
10397,1859
10398,1872
10399,1883
10400,1888
10401,1859
10402,1861
10403,1849
10404,1867
10405,1847
10406,1825
10407,1843
10408,1840
10409,1835
10410,1840
10411,1857
10412,1872
10413,1890
10414,1867
10415,1875
10416,1871
10417,1874
10418,1877
10419,1861
10420,1861
10421,1870
10422,1850
10423,1845
10424,1849
10425,1841
10426,1863
10427,1862
10428,1877
10429,1846
10430,1857
10431,1863
10432,1885
10433,1874
10434,1879
10435,1899
10436,1861
10437,1862
10438,1843
10439,1810
10440,1824
10441,1827
10442,1855
10443,1849
10444,1869
10445,1879
10446,1872
10447,1897
10448,1888
10449,1873
10450,1879
10451,1873
10452,1865
10453,1853
10454,1843
10455,1840
10456,1846
10457,1840
10458,1856
10459,1853
10460,1872
10461,1884
10462,1857
10463,1840
10464,1885
10465,1871
10466,1877
10467,1872
10468,1879
10469,1864
10470,1861
10471,1843
10472,1851
10473,1845
10474,1847
10475,1845
10476,1855
10477,1858
10478,1887
10479,1886
10480,1863
10481,1867
10482,1886
10483,1885
10484,1866
10485,1899
10486,1857
10487,1840
10488,1827
10489,1836
10490,1840
10491,1846
10492,1829
10493,1868
10494,1861
10495,1856
10496,1872
10497,1867
10498,1872
10499,1873
10500,1872
10501,1870
10502,1866
10503,1858
10504,1860
10505,1850
10506,1840
10507,1853
10508,1855
10509,1855
10510,1855
10511,1852
10512,1857
10513,1866
10514,1856
10515,1873
10516,1859
10517,1881
10518,1872
10519,1869
10520,1870
10521,1856
10522,1856
10523,1843
10524,1840
10525,1837
10526,1862
10527,1841
10528,1856
10529,1842
10530,1870
10531,1863
10532,1872
10533,1882
10534,1879
10535,1869
10536,1871
10537,1853
10538,1869
10539,1834
10540,1840
10541,1844
10542,1858
10543,1852
10544,1866
10545,1885
10546,1856
10547,1898
10548,1874
10549,1874
10550,1870
10551,1902
10552,1866
10553,1856
10554,1834
10555,1841
10556,1829
10557,1832
10558,1831
10559,1845
10560,1853
10561,1869
10562,1861
10563,1863
10564,1871
10565,1886
10566,1877
10567,1855
10568,1872
10569,1863
10570,1856
10571,1840
10572,1847
10573,1842
10574,1842
10575,1840
10576,1842
10577,1858
10578,1862
10579,1859
10580,1872
10581,1874
10582,1866
10583,1888
10584,1884
10585,1888
10586,1871
10587,1835
10588,1830
10589,1839
10590,1823
10591,1839
10592,1856
10593,1877
10594,1862
10595,1852
10596,1871
10597,1840
10598,1874
10599,1873
10600,1879
10601,1875
10602,1874
10603,1865
10604,1867
10605,1854
10606,1839
10607,1855
10608,1843
10609,1839
10610,1877
10611,1857
10612,1857
10613,1870
10614,1862
10615,1872
10616,1874
10617,1863
10618,1854
10619,1858
10620,1846
10621,1866
10622,1808
10623,1838
10624,1849
10625,1861
10626,1841
10627,1865
10628,1873
10629,1883
10630,1872
10631,1875
10632,1871
10633,1875
10634,1875
10635,1872
10636,1862
10637,1859
10638,1847
10639,1840
10640,1837
10641,1842
10642,1840
10643,1848
10644,1851
10645,1847
10646,1875
10647,1869
10648,1873
10649,1876
10650,1883
10651,1878
10652,1862
10653,1853
10654,1840
10655,1835
10656,1838
10657,1840
10658,1839
10659,1849
10660,1857
10661,1866
10662,1863
10663,1876
10664,1872
10665,1879
10666,1876
10667,1859
10668,1869
10669,1868
10670,1858
10671,1840
10672,1853
10673,1841
10674,1840
10675,1850
10676,1840
10677,1857
10678,1863
10679,1876
10680,1876
10681,1872
10682,1863
10683,1877
10684,1885
10685,1870
10686,1876
10687,1841
10688,1873
10689,1839
10690,1840
10691,1853
10692,1859
10693,1867
10694,1871
10695,1866
10696,1874
10697,1879
10698,1873
10699,1872
10700,1886
10701,1868
10702,1873
10703,1843
10704,1831
10705,1828
10706,1835
10707,1827
10708,1842
10709,1856
10710,1863
10711,1872
10712,1879
10713,1862
10714,1877
10715,1882
10716,1877
10717,1883
10718,1891
10719,1870
10720,1861
10721,1846
10722,1808
10723,1840
10724,1840
10725,1841
10726,1858
10727,1856
10728,1872
10729,1876
10730,1884
10731,1879
10732,1864
10733,1869
10734,1870
10735,1879
10736,1840
10737,1839
10738,1849
10739,1849
10740,1845
10741,1840
10742,1838
10743,1815
10744,1856
10745,1871
10746,1867
10747,1862
10748,1879
10749,1873
10750,1873
10751,1875
10752,1859
10753,1879
10754,1867
10755,1847
10756,1841
10757,1854
10758,1856
10759,1845
10760,1839
10761,1872
10762,1871
10763,1857
10764,1873
10765,1878
10766,1882
10767,1888
10768,1875
10769,1877
10770,1851
10771,1854
10772,1818
10773,1821
10774,1830
10775,1838
10776,1829
10777,1858
10778,1857
10779,1883
10780,1856
10781,1873
10782,1890
10783,1894
10784,1883
10785,1872
10786,1872
10787,1853
10788,1829
10789,1834
10790,1842
10791,1846
10792,1857
10793,1863
10794,1857
10795,1856
10796,1876
10797,1872
10798,1865
10799,1878
10800,1885
10801,1886
10802,1886
10803,1872
10804,1869
10805,1842
10806,1828
10807,1835
10808,1838
10809,1839
10810,1862
10811,1868
10812,1873
10813,1872
10814,1876
10815,1873
10816,1872
10817,1883
10818,1879
10819,1850
10820,1847
10821,1840
10822,1838
10823,1844
10824,1844
10825,1840
10826,1863
10827,1857
10828,1881
10829,1862
10830,1872
10831,1872
10832,1856
10833,1857
10834,1866
10835,1874
10836,1871
10837,1856
10838,1840
10839,1840
10840,1840
10841,1852
10842,1857
10843,1869
10844,1876
10845,1857
10846,1859
10847,1873
10848,1875
10849,1873
10850,1889
10851,1882
10852,1870
10853,1858
10854,1849
10855,1861
10856,1837
10857,1843
10858,1837
10859,1842
10860,1869
10861,1878
10862,1862
10863,1853
10864,1872
10865,1877
10866,1872
10867,1886
10868,1891
10869,1871
10870,1866
10871,1849
10872,1853
10873,1845
10874,1850
10875,1838
10876,1846
10877,1869
10878,1871
10879,1872
10880,1843
10881,1856
10882,1872
10883,1903
10884,1890
10885,1856
10886,1864
10887,1852
10888,1863
10889,1839
10890,1825
10891,1845
10892,1853
10893,1835
10894,1858
10895,1872
10896,1841
10897,1869
10898,1870
10899,1874
10900,1869
10901,1872
10902,1878
10903,1853
10904,1845
10905,1840
10906,1841
10907,1835
10908,1851
10909,1845
10910,1852
10911,1852
10912,1874
10913,1864
10914,1850
10915,1862
10916,1872
10917,1872
10918,1861
10919,1867
10920,1856
10921,1840
10922,1863
10923,1840
10924,1018
10925,1716
10926,1849
10927,1808
10928,1820
10929,1794
10930,1750
10931,1738
10932,1731
10933,1761
10934,1809
10935,1830
10936,1916
10937,2166
10938,2519
10939,2801
10940,2969
10941,2901
10942,2768
10943,2534
10944,2155
10945,1793
10946,1564
10947,1425
10948,1309
10949,1136
10950,1015
10951,977
10952,1088
10953,1311
10954,1515
10955,928
10956,1555
10957,1811
10958,1821
10959,1889
10960,1895
10961,1842
10962,1776
10963,1728
10964,1762
10965,1831
10966,1785
10967,2112
10968,2623
10969,3019
10970,3141
10971,3121
10972,2813
10973,2429
10974,1919
10975,1513
10976,1342
10977,1216
10978,1119
10979,1008
10980,990
10981,1136
10982,1442
10983,1695
10984,1819
10985,1884
10986,1902
10987,1520
10988,1856
10989,1762
10990,1779
10991,1786
10992,1760
10993,1771
10994,1787
10995,1952
10996,2000
10997,2015
10998,2316
10999,2727
11000,3017
11001,3132
11002,3053
11003,2825
11004,2327
11005,1823
11006,1488
11007,1271
11008,1136
11009,970
11010,810
11011,923
11012,1253
11013,1583
11014,1763
11015,1815
11016,1875
11017,2225
11018,1463
11019,1872
11020,1835
11021,1813
11022,1818
11023,1777
11024,1741
11025,1776
11026,1929
11027,1925
11028,2039
11029,2416
11030,2755
11031,3037
11032,3167
11033,3028
11034,2785
11035,2242
11036,1776
11037,1478
11038,1216
11039,981
11040,796
11041,793
11042,1007
11043,1397
11044,1664
11045,1797
11046,1850
11047,1872
11048,2691
11049,1398
11050,1933
11051,1895
11052,1901
11053,1898
11054,1840
11055,1772
11056,1806
11057,1891
11058,1797
11059,1939
11060,2346
11061,2741
11062,3046
11063,3153
11064,2967
11065,2688
11066,2170
11067,1724
11068,1457
11069,1235
11070,1003
11071,855
11072,852
11073,1143
11074,1457
11075,1683
11076,1775
11077,1829
11078,1885
11079,2241
11080,1217
11081,1875
11082,1869
11083,1885
11084,1893
11085,1839
11086,1787
11087,1829
11088,1918
11089,1829
11090,1974
11091,2316
11092,2692
11093,2981
11094,3082
11095,2969
11096,2654
11097,2128
11098,1712
11099,1440
11100,1200
11101,959
11102,837
11103,909
11104,1168
11105,1458
11106,1673
11107,1796
11108,1879
11109,1968
11110,2007
11111,1136
11112,1930
11113,1870
11114,1759
11115,1733
11116,1730
11117,1713
11118,1775
11119,1936
11120,1921
11121,2000
11122,2318
11123,2704
11124,2967
11125,3083
11126,2970
11127,2652
11128,2096
11129,1665
11130,1399
11131,1185
11132,999
11133,897
11134,983
11135,1257
11136,1524
11137,1699
11138,1776
11139,1872
11140,1954
11141,1986
11142,1104
11143,1933
11144,1974
11145,1886
11146,1839
11147,1744
11148,1689
11149,1771
11150,1873
11151,1762
11152,1881
11153,2243
11154,2666
11155,2995
11156,3125
11157,2989
11158,2691
11159,2133
11160,1691
11161,1351
11162,1150
11163,934
11164,883
11165,1002
11166,1287
11167,1535
11168,1710
11169,1779
11170,1843
11171,1865
11172,1886
11173,923
11174,1795
11175,1877
11176,1843
11177,1841
11178,1811
11179,1741
11180,1789
11181,1907
11182,1870
11183,1984
11184,2322
11185,2747
11186,3022
11187,3130
11188,2994
11189,2637
11190,2106
11191,1665
11192,1375
11193,1137
11194,948
11195,831
11196,954
11197,1177
11198,1493
11199,1705
11200,1853
11201,1967
11202,2029
11203,2096
11204,1169
11205,1893
11206,1949
11207,1803
11208,1712
11209,1629
11210,1589
11211,1621
11212,1809
11213,1867
11214,1952
11215,2231
11216,2663
11217,3001
11218,3151
11219,2995
11220,2672
11221,2192
11222,1750
11223,1402
11224,1171
11225,973
11226,879
11227,958
11228,1234
11229,1487
11230,1659
11231,1776
11232,1846
11233,1899
11234,1941
11235,1199
11236,1755
11237,1968
11238,1882
11239,1867
11240,1802
11241,1744
11242,1771
11243,1888
11244,1811
11245,1898
11246,2205
11247,2624
11248,2989
11249,3122
11250,3038
11251,2706
11252,2184
11253,1733
11254,1414
11255,1191
11256,974
11257,849
11258,927
11259,1197
11260,1438
11261,1669
11262,1769
11263,1883
11264,1904
11265,1968
11266,1646
11267,1709
11268,2030
11269,1921
11270,1862
11271,1770
11272,1694
11273,1729
11274,1847
11275,1823
11276,1841
11277,2147
11278,2599
11279,2966
11280,3111
11281,2990
11282,2702
11283,2226
11284,1785
11285,1459
11286,1263
11287,1014
11288,905
11289,976
11290,1230
11291,1472
11292,1631
11293,1739
11294,1833
11295,1883
11296,1895
11297,1919
11298,1580
11299,1957
11300,1892
11301,1904
11302,1835
11303,1746
11304,1791
11305,1895
11306,1811
11307,1894
11308,2210
11309,2623
11310,3009
11311,3120
11312,3022
11313,2717
11314,2206
11315,1775
11316,1453
11317,1200
11318,1011
11319,877
11320,951
11321,1186
11322,1442
11323,1638
11324,1744
11325,1830
11326,1856
11327,1902
11328,2606
11329,1378
11330,1925
11331,1874
11332,1855
11333,1839
11334,1771
11335,1808
11336,1921
11337,1855
11338,1874
11339,2141
11340,2555
11341,2896
11342,3059
11343,2987
11344,2753
11345,2301
11346,1877
11347,1532
11348,1263
11349,1055
11350,911
11351,941
11352,1166
11353,1429
11354,1616
11355,1728
11356,1799
11357,1841
11358,1872
11359,2599
11360,1296
11361,1899
11362,1860
11363,1841
11364,1810
11365,1776
11366,1830
11367,1967
11368,1887
11369,1937
11370,2199
11371,2554
11372,2901
11373,3070
11374,3003
11375,2742
11376,2285
11377,1866
11378,1520
11379,1264
11380,1053
11381,899
11382,929
11383,1179
11384,1434
11385,1627
11386,1735
11387,1808
11388,1847
11389,1872
11390,2005
11391,1078
11392,1856
11393,1872
11394,1858
11395,1887
11396,1819
11397,1856
11398,1953
11399,1822
11400,1818
11401,2069
11402,2448
11403,2842
11404,3070
11405,3088
11406,2869
11407,2449
11408,1952
11409,1555
11410,1261
11411,1070
11412,879
11413,892
11414,1106
11415,1392
11416,1623
11417,1728
11418,1808
11419,1856
11420,1888
11421,1904
11422,971
11423,1840
11424,1843
11425,1818
11426,1826
11427,1791
11428,1839
11429,1966
11430,1872
11431,1863
11432,2087
11433,2453
11434,2832
11435,3039
11436,3109
11437,2897
11438,2469
11439,1968
11440,1535
11441,1230
11442,1021
11443,899
11444,880
11445,1065
11446,1313
11447,1559
11448,1744
11449,1930
11450,2032
11451,2053
11452,2063
11453,986
11454,1902
11455,1867
11456,1739
11457,1734
11458,1701
11459,1671
11460,1786
11461,1693
11462,1737
11463,1991
11464,2431
11465,2819
11466,3107
11467,3153
11468,2949
11469,2559
11470,2108
11471,1639
11472,1287
11473,1071
11474,907
11475,823
11476,994
11477,1298
11478,1569
11479,1744
11480,1834
11481,1865
11482,1895
11483,1935
11484,871
11485,1826
11486,1893
11487,1840
11488,1822
11489,1751
11490,1791
11491,1908
11492,1855
11493,1855
11494,2062
11495,2410
11496,2805
11497,3056
11498,3093
11499,2951
11500,2583
11501,2119
11502,1678
11503,1295
11504,1040
11505,802
11506,767
11507,1002
11508,1311
11509,1571
11510,1722
11511,1808
11512,1870
11513,1898
11514,1907
11515,895
11516,1727
11517,1927
11518,1855
11519,1823
11520,1776
11521,1806
11522,1969
11523,1911
11524,1819
11525,1978
11526,2353
11527,2754
11528,3056
11529,3147
11530,2993
11531,2640
11532,2115
11533,1679
11534,1338
11535,1050
11536,848
11537,816
11538,958
11539,1205
11540,1478
11541,1698
11542,1837
11543,1974
11544,2064
11545,2084
11546,2065
11547,1997
11548,1938
11549,1861
11550,1829
11551,1875
11552,1877
11553,1872
11554,1859
11555,1874
11556,1871
11557,1854
11558,1890
11559,1899
11560,1907
11561,1907
11562,1906
11563,1894
11564,1927
11565,1921
11566,1908
11567,1904
11568,1891
11569,1867
11570,1871
11571,1847
11572,1830
11573,1846
11574,1840
11575,1837
11576,1847
11577,1872
11578,1885
11579,1895
11580,1887
11581,1872
11582,1867
11583,1871
11584,1883
11585,1865
11586,1847
11587,1872
11588,1857
11589,1822
11590,1828
11591,1835
11592,1826
11593,1840
11594,1873
11595,1885
11596,1881
11597,1886
11598,1879
11599,1881
11600,1897
11601,1894
11602,1854
11603,1866
11604,1840
11605,1853
11606,1856
11607,1849
11608,1830
11609,1843
11610,1861
11611,1854
11612,1863
11613,1872
11614,1889
11615,1871
11616,1874
11617,1877
11618,1861
11619,1845
11620,1857
11621,1849
11622,1840
11623,1846
11624,1843
11625,1843
11626,1863
11627,1871
11628,1878
11629,1882
11630,1872
11631,1886
11632,1867
11633,1861
11634,1873
11635,1863
11636,1845
11637,1849
11638,1839
11639,1808
11640,1833
11641,1827
11642,1838
11643,1850
11644,1861
11645,1868
11646,1872
11647,1882
11648,1870
11649,1878
11650,1890
11651,1882
11652,1853
11653,1856
11654,1840
11655,1849
11656,1851
11657,1859
11658,1888
11659,1889
11660,1886
11661,1872
11662,1884
11663,1911
11664,1871
11665,1882
11666,1864
11667,1805
11668,1845
11669,1863
11670,1868
11671,1858
11672,1834
11673,1815
11674,1823
11675,1854
11676,1850
11677,1863
11678,1859
11679,1886
11680,1853
11681,1871
11682,1872
11683,1871
11684,1887
11685,1884
11686,1867
11687,1871
11688,1843
11689,1827
11690,1824
11691,1839
11692,1855
11693,1850
11694,1857
11695,1858
11696,1857
11697,1859
11698,1862
11699,1872
11700,1885
11701,1867
11702,1863
11703,1850
11704,1853
11705,1854
11706,1831
11707,1846
11708,1861
11709,1851
11710,1862
11711,1856
11712,1869
11713,1892
11714,1873
11715,1872
11716,1861
11717,1882
11718,1873
11719,1871
11720,1850
11721,1842
11722,1830
11723,1840
11724,1840
11725,1849
11726,1840
11727,1862
11728,1845
11729,1855
11730,1867
11731,1883
11732,1876
11733,1875
11734,1873
11735,1878
11736,1870
11737,1858
11738,1842
11739,1838
11740,1838
11741,1840
11742,1841
11743,1857
11744,1859
11745,1872
11746,1875
11747,1858
11748,1889
11749,1900
11750,1886
11751,1874
11752,1872
11753,1854
11754,1849
11755,1831
11756,1836
11757,1840
11758,1830
11759,1857
11760,1870
11761,1872
11762,1867
11763,1874
11764,1881
11765,1886
11766,1863
11767,1879
11768,1877
11769,1872
11770,1857
11771,1853
11772,1840
11773,1845
11774,1843
11775,1871
11776,1840
11777,1871
11778,1863
11779,1887
11780,1872
11781,1872
11782,1873
11783,1878
11784,1869
11785,1866
11786,1844
11787,1853
11788,1839
11789,1843
11790,1849
11791,1846
11792,1854
11793,1847
11794,1874
11795,1885
11796,1882
11797,1872
11798,1889
11799,1877
11800,1871
11801,1881
11802,1863
11803,1856
11804,1851
11805,1835
11806,1840
11807,1846
11808,1863
11809,1855
11810,1864
11811,1859
11812,1861
11813,1859
11814,1859
11815,1855
11816,1866
11817,1872
11818,1866
11819,1856
11820,1844
11821,1856
11822,1840
11823,1850
11824,1844
11825,1851
11826,1856
11827,1858
11828,1869
11829,1877
11830,1885
11831,1875
11832,1885
11833,1876
11834,1889
11835,1881
11836,1872
11837,1878
11838,1831
11839,1811
11840,1839
11841,1839
11842,1856
11843,1860
11844,1877
11845,1861
11846,1865
11847,1872
11848,1872
11849,1864
11850,1857
11851,1879
11852,1867
11853,1856
11854,1859
11855,1851
11856,1842
11857,1843
11858,1854
11859,1865
11860,1857
11861,1875
11862,1874
11863,1886
11864,1863
11865,1877
11866,1891
11867,1877
11868,1855
11869,1853
11870,1847
11871,1838
11872,1851
11873,1845
11874,1841
11875,1853
11876,1849
11877,1861
11878,1861
11879,1872
11880,1869
11881,1874
11882,1873
11883,1887
11884,1874
11885,1878
11886,1860
11887,1871
11888,1855
11889,1861
11890,1850
11891,1840
11892,1847
11893,1862
11894,1861
11895,1849
11896,1854
11897,1859
11898,1875
11899,1877
11900,1884
11901,1872
11902,1874
11903,1858
11904,1853
11905,1837
11906,1831
11907,1836
11908,1824
11909,1855
11910,1865
11911,1869
11912,1865
11913,1867
11914,1866
11915,1871
11916,1886
11917,1878
11918,1873
11919,1861
11920,1847
11921,1853
11922,1846
11923,1846
11924,1840
11925,1831
11926,1851
11927,1870
11928,1858
11929,1872
11930,1871
11931,1872
11932,1879
11933,1870
11934,1882
11935,1866
11936,1850
11937,1857
11938,1847
11939,1837
11940,1807
11941,1799
11942,1830
11943,1853
11944,1866
11945,1886
11946,1886
11947,1892
11948,1877
11949,1872
11950,1863
