Time(ms),Raw_ADC
0,1834
1,1830
2,1818
3,1840
4,1851
5,1873
6,1862
7,1866
8,1833
9,1653
10,1838
11,1785
12,1840
13,1853
14,1902
15,1897
16,1853
17,1915
18,1786
19,1785
20,1846
21,1904
22,2025
23,2183
24,2319
25,2418
26,2400
27,2255
28,2096
29,1965
30,1837
31,1758
32,1669
33,1597
34,1526
35,1533
36,1600
37,1642
38,1731
39,2037
40,1511
41,1741
42,1729
43,1771
44,1823
45,1815
46,1723
47,1600
48,1632
49,1781
50,2177
51,2175
52,2090
53,2127
54,2266
55,2357
56,2290
57,2149
58,2023
59,1890
60,1814
61,1729
62,1680
63,1655
64,1659
65,1692
66,1701
67,1712
68,1750
69,1770
70,2533
71,1392
72,1760
73,1739
74,1765
75,1824
76,1789
77,1579
78,1481
79,1662
80,2171
81,2371
82,2144
83,2042
84,2141
85,2286
86,2351
87,2223
88,2087
89,1965
90,1840
91,1791
92,1703
93,1675
94,1696
95,1719
96,1733
97,1746
98,1761
99,1765
100,1776
101,2079
102,1329
103,1758
104,1759
105,1846
106,1877
107,1755
108,1439
109,1505
110,1916
111,2332
112,2191
113,1981
114,2026
115,2167
116,2305
117,2263
118,2139
119,1979
120,1842
121,1786
122,1727
123,1680
124,1657
125,1702
126,1761
127,1783
128,1820
129,1819
130,1821
131,1835
132,1838
133,1274
134,1751
135,1814
136,1954
137,1936
138,1764
139,1523
140,1791
141,2145
142,2066
143,1808
144,1821
145,1991
146,2192
147,2309
148,2247
149,2118
150,1936
151,1808
152,1745
153,1680
154,1658
155,1673
156,1738
157,1769
158,1797
159,1835
160,1869
161,1867
162,1863
163,1851
164,1317
165,1776
166,1846
167,2032
168,2064
169,1770
170,1630
171,2046
172,2010
173,1669
174,1535
175,1749
176,2023
177,2239
178,2314
179,2246
180,2114
181,1937
182,1814
183,1689
184,1629
185,1622
186,1665
187,1712
188,1774
189,1794
190,1840
191,1891
192,1872
193,1883
194,1876
195,1285
196,1828
197,1863
198,2098
199,2077
200,1710
201,1711
202,2093
203,1855
204,1488
205,1498
206,1767
207,2064
208,2266
209,2315
210,2244
211,2098
212,1955
213,1840
214,1744
215,1669
216,1622
217,1666
218,1728
219,1747
220,1779
221,1817
222,1875
223,1892
224,1873
225,1894
226,1323
227,1840
228,1872
229,2197
230,2203
231,1817
232,2032
233,2263
234,1525
235,1125
236,1373
237,1755
238,2044
239,2217
240,2259
241,2195
242,2064
243,1946
244,1852
245,1776
246,1697
247,1712
248,1729
249,1745
250,1737
251,1775
252,1799
253,1821
254,1840
255,1872
256,1866
257,1397
258,1859
259,1779
260,2023
261,2149
262,1839
263,2177
264,2501
265,1671
266,1150
267,1306
268,1665
269,1946
270,2121
271,2192
272,2165
273,2030
274,1904
275,1869
276,1803
277,1776
278,1808
279,1815
280,1790
281,1744
282,1770
283,1754
284,1787
285,1810
286,1810
287,1861
288,1437
289,1862
290,1701
291,1867
292,1929
293,1665
294,2256
295,2628
296,1594
297,1226
298,1493
299,1808
300,1993
301,2106
302,2157
303,2128
304,2000
305,1930
306,1840
307,1776
308,1766
309,1767
310,1836
311,1877
312,1866
313,1840
314,1831
315,1850
316,1809
317,1797
318,1808
319,1600
320,1767
321,1751
322,1872
323,2042
324,1871
325,2512
326,2734
327,1357
328,1161
329,1488
330,1770
331,1953
332,2069
333,2086
334,2064
335,1974
336,1881
337,1814
338,1758
339,1747
340,1771
341,1802
342,1819
343,1847
344,1877
345,1881
346,1877
347,1845
348,1838
349,1839
350,1954
351,1699
352,1748
353,1809
354,2016
355,1889
356,2546
357,2510
358,1459
359,1245
360,1488
361,1765
362,1947
363,2063
364,2115
365,2109
366,1963
367,1845
368,1809
369,1723
370,1694
371,1722
372,1815
373,1847
374,1851
375,1862
376,1874
377,1890
378,1883
379,1879
380,1882
381,2259
382,1680
383,1747
384,1777
385,1919
386,1758
387,2405
388,2491
389,1381
390,1243
391,1554
392,1831
393,1984
394,2139
395,2224
396,2180
397,2078
398,1943
399,1863
400,1745
401,1671
402,1675
403,1728
404,1763
405,1797
406,1836
407,1842
408,1897
409,1894
410,1899
411,1914
412,2119
413,1638
414,1809
415,1823
416,2001
417,1840
418,2474
419,2377
420,1280
421,1172
422,1509
423,1808
424,1984
425,2131
426,2224
427,2218
428,2095
429,1973
430,1853
431,1747
432,1686
433,1690
434,1708
435,1686
436,1729
437,1786
438,1828
439,1867
440,1902
441,1922
442,1915
443,2033
444,1671
445,1876
446,1894
447,1997
448,1767
449,2375
450,2339
451,1391
452,1235
453,1476
454,1779
455,1936
456,2096
457,2166
458,2163
459,2067
460,1967
461,1872
462,1839
463,1795
464,1791
465,1743
466,1668
467,1703
468,1776
469,1786
470,1820
471,1857
472,1903
473,1898
474,1872
475,1533
476,1857
477,1840
478,1961
479,1788
480,2384
481,2519
482,1557
483,1287
484,1418
485,1673
486,1888
487,2017
488,2149
489,2190
490,2093
491,1997
492,1907
493,1910
494,1881
495,1872
496,1781
497,1685
498,1701
499,1759
500,1798
501,1807
502,1766
503,1790
504,1846
505,1856
506,1430
507,1888
508,1810
509,1981
510,1795
511,2262
512,2631
513,1671
514,1346
515,1495
516,1679
517,1806
518,1988
519,2117
520,2158
521,2064
522,1983
523,1923
524,1904
525,1885
526,1863
527,1792
528,1695
529,1730
530,1774
531,1817
532,1807
533,1790
534,1782
535,1807
536,1811
537,1339
538,1819
539,1814
540,1990
541,1816
542,2246
543,2526
544,1673
545,1391
546,1504
547,1730
548,1861
549,2027
550,2117
551,2154
552,2085
553,1953
554,1872
555,1780
556,1725
557,1705
558,1774
559,1814
560,1839
561,1845
562,1852
563,1842
564,1850
565,1823
566,1806
567,1794
568,1275
569,1789
570,1757
571,1961
572,1806
573,2127
574,2586
575,1740
576,1406
577,1504
578,1758
579,1933
580,2001
581,2108
582,2133
583,2081
584,1959
585,1883
586,1779
587,1696
588,1714
589,1818
590,1834
591,1821
592,1849
593,1845
594,1862
595,1859
596,1831
597,1838
598,1837
599,1391
600,1703
601,1745
602,1888
603,1761
604,1904
605,2583
606,1925
607,1429
608,1468
609,1699
610,1895
611,2045
612,2193
613,2211
614,2159
615,2022
616,1904
617,1766
618,1697
619,1638
620,1680
621,1749
622,1809
623,1828
624,1858
625,1855
626,1861
627,1863
628,1885
629,1889
630,1861
631,1855
632,1851
633,1824
634,1821
635,1831
636,1837
637,1833
638,1867
639,1875
640,1893
641,1910
642,1906
643,1902
644,1899
645,1904
646,1872
647,1856
648,1835
649,1808
650,1771
651,1790
652,1824
653,1819
654,1855
655,1862
656,1872
657,1856
658,1871
659,1883
660,1891
661,1886
662,1889
663,1863
664,1842
665,1837
666,1819
667,1810
668,1817
669,1822
670,1821
671,1847
672,1863
673,1867
674,1859
675,1897
676,1887
677,1894
678,1888
679,1910
680,1861
681,1846
682,1840
683,1815
684,1800
685,1801
686,1819
687,1829
688,1898
689,1902
690,1904
691,1882
692,1878
693,1867
694,1856
695,1840
696,1823
697,1835
698,1842
699,1863
700,1818
701,1809
702,1791
703,1803
704,1839
705,1867
706,1902
707,1920
708,1927
709,1883
710,1863
711,1887
712,1871
713,1847
714,1821
715,1822
716,1819
717,1808
718,1806
719,1823
720,1835
721,1841
722,1860
723,1867
724,1869
725,1878
726,1878
727,1887
728,1890
729,1863
730,1867
731,1855
732,1837
733,1825
734,1814
735,1829
736,1837
737,1843
738,1872
739,1893
740,1894
741,1862
742,1862
743,1870
744,1863
745,1897
746,1902
747,1845
748,1829
749,1834
750,1821
751,1831
752,1839
753,1840
754,1841
755,1859
756,1868
757,1876
758,1877
759,1879
760,1898
761,1920
762,1907
763,1866
764,1859
765,1830
766,1806
767,1792
768,1819
769,1815
770,1831
771,1853
772,1871
773,1872
774,1897
775,1872
776,1887
777,1883
778,1882
779,1877
780,1851
781,1840
782,1832
783,1790
784,1819
785,1827
786,1838
787,1841
788,1870
789,1873
790,1881
791,1893
792,1886
793,1889
794,1885
795,1900
796,1871
797,1867
798,1856
799,1810
800,1802
801,1808
802,1808
803,1811
804,1827
805,1858
806,1857
807,1850
808,1857
809,1886
810,1898
811,1885
812,1895
813,1872
814,1856
815,1855
816,1838
817,1828
818,1835
819,1827
820,1841
821,1856
822,1859
823,1869
824,1878
825,1861
826,1891
827,1891
828,1898
829,1889
830,1856
831,1845
832,1829
833,1817
834,1819
835,1824
836,1819
837,1856
838,1872
839,1885
840,1883
841,1875
842,1895
843,1886
844,1869
845,1872
846,1894
847,1899
848,1890
849,1872
850,1849
851,1865
852,1845
853,1792
854,1828
855,1845
856,1840
857,1847
858,1925
859,1853
860,1822
861,1864
862,1872
863,1871
864,1869
865,1838
866,1819
867,1807
868,1818
869,1839
870,1851
871,1862
872,1891
873,1893
874,1892
875,1901
876,1889
877,1891
878,1897
879,1872
880,1872
881,1861
882,1853
883,1805
884,1811
885,1833
886,1829
887,1847
888,1869
889,1876
890,1875
891,1882
892,1871
893,1901
894,1883
895,1882
896,1869
897,1844
898,1839
899,1829
900,1842
901,1834
902,1851
903,1853
904,1838
905,1852
906,1847
907,1857
908,1870
909,1887
910,1902
911,1894
912,1901
913,1865
914,1859
915,1843
916,1840
917,1814
918,1817
919,1847
920,1835
921,1856
922,1858
923,1867
924,1883
925,1904
926,1898
927,1904
928,1901
929,1887
930,1867
931,1840
932,1831
933,1812
934,1827
935,1833
936,1847
937,1840
938,1858
939,1872
940,1885
941,1903
942,1891
943,1900
944,1902
945,1904
946,1882
947,1859
948,1830
949,1859
950,1815
951,1833
952,1855
953,1850
954,1856
955,1859
956,1882
957,1887
958,1873
959,1882
960,1885
961,1869
962,1873
963,1860
964,1856
965,1843
966,1840
967,1825
968,1855
969,1854
970,1840
971,1844
972,1869
973,1879
974,1886
975,1882
976,1903
977,1915
978,1881
979,1869
980,1859
981,1854
982,1859
983,1835
984,1825
985,1826
986,1837
987,1813
988,1856
989,1879
990,1878
991,1889
992,1879
993,1904
994,1904
995,1887
996,1861
997,1866
998,1859
999,1828
1000,1822
1001,1819
1002,1840
1003,1845
1004,1852
1005,1868
1006,1871
1007,1872
1008,1874
1009,1886
1010,1892
1011,1901
1012,1890
1013,1879
1014,1865
1015,1838
1016,1830
1017,1815
1018,1823
1019,1847
1020,1838
1021,1856
1022,1862
1023,1886
1024,1887
1025,1911
1026,1934
1027,1963
1028,1955
1029,1969
1030,1915
1031,1838
1032,1793
1033,1763
1034,1754
1035,1750
1036,1809
1037,1846
1038,1877
1039,1898
1040,1903
1041,1862
1042,1863
1043,1882
1044,1874
1045,1874
1046,1867
1047,1854
1048,1843
1049,1821
1050,1806
1051,1826
1052,1838
1053,1853
1054,1861
1055,1872
1056,1879
1057,1869
1058,1879
1059,1891
1060,1901
1061,1892
1062,1904
1063,1871
1064,1853
1065,1840
1066,1840
1067,1818
1068,1842
1069,1835
1070,1847
1071,1858
1072,1867
1073,1863
1074,1872
1075,1862
1076,1878
1077,1894
1078,1888
1079,1873
1080,1854
1081,1841
1082,1840
1083,1813
1084,1823
1085,1835
1086,1845
1087,1862
1088,1873
1089,1889
1090,1880
1091,1877
1092,1887
1093,1885
1094,1885
1095,1886
1096,1872
1097,1870
1098,1857
1099,1828
1100,1829
1101,1827
1102,1844
1103,1846
1104,1856
1105,1873
1106,1872
1107,1863
1108,1847
1109,1897
1110,1906
1111,1917
1112,1886
1113,1863
1114,1860
1115,1851
1116,1826
1117,1818
1118,1822
1119,1845
1120,1835
1121,1860
1122,1875
1123,1883
1124,1888
1125,1875
1126,1891
1127,1904
1128,1877
1129,1886
1130,1869
1131,1857
1132,1849
1133,1837
1134,1819
1135,1821
1136,1834
1137,1840
1138,1853
1139,1883
1140,1873
1141,1872
1142,1871
1143,1883
1144,1883
1145,1901
1146,1872
1147,1872
1148,1839
1149,1843
1150,1808
1151,1824
1152,1831
1153,1826
1154,1855
1155,1872
1156,1907
1157,1898
1158,1921
1159,1895
1160,1903
1161,1883
1162,1883
1163,1849
1164,1845
1165,1822
1166,1825
1167,1807
1168,1820
1169,1837
1170,1846
1171,1869
1172,1847
1173,1872
1174,1894
1175,1901
1176,1919
1177,1903
1178,1904
1179,1878
1180,1856
1181,1845
1182,1830
1183,1850
1184,1808
1185,1831
1186,1847
1187,1842
1188,1869
1189,1880
1190,1879
1191,1895
1192,1904
1193,1904
1194,1900
1195,1872
1196,1861
1197,1854
1198,1851
1199,1824
1200,1824
1201,1830
1202,1840
1203,1847
1204,1867
1205,1859
1206,1873
1207,1874
1208,1908
1209,1899
1210,1902
1211,1876
1212,1885
1213,1871
1214,1872
1215,1839
1216,1834
1217,1813
1218,1856
1219,1845
1220,1836
1221,1866
1222,1875
1223,1871
1224,1876
1225,1887
1226,1890
1227,1890
1228,1886
1229,1866
1230,1858
1231,1843
1232,1817
1233,1824
1234,1821
1235,1838
1236,1835
1237,1849
1238,1870
1239,1871
1240,1874
1241,1899
1242,1894
1243,1904
1244,1894
1245,1882
1246,1860
1247,1855
1248,1851
1249,1829
1250,1808
1251,1837
1252,1849
1253,1839
1254,1862
1255,1872
1256,1879
1257,1883
1258,1885
1259,1890
1260,1886
1261,1869
1262,1875
1263,1852
1264,1847
1265,1842
1266,1840
1267,1811
1268,1845
1269,1836
1270,1850
1271,1866
1272,1872
1273,1887
1274,1868
1275,1882
1276,1893
1277,1888
1278,1893
1279,1888
1280,1871
1281,1848
1282,1846
1283,1846
1284,1827
1285,1828
1286,1824
1287,1841
1288,1866
1289,1867
1290,1872
1291,1893
1292,1874
1293,1883
1294,1903
1295,1893
1296,1867
1297,1866
1298,1850
1299,1837
1300,1812
1301,1831
1302,1827
1303,1839
1304,1867
1305,1861
1306,1869
1307,1887
1308,1903
1309,1891
1310,1893
1311,1901
1312,1887
1313,1872
1314,1858
1315,1831
1316,1814
1317,1809
1318,1819
1319,1840
1320,1855
1321,1868
1322,1879
1323,1891
1324,1879
1325,1904
1326,1901
1327,1884
1328,1886
1329,1869
1330,1871
1331,1865
1332,1841
1333,1831
1334,1831
1335,1839
1336,1838
1337,1840
1338,1862
1339,1872
1340,1877
1341,1883
1342,1887
1343,1897
1344,1889
1345,1886
1346,1872
1347,1858
1348,1849
1349,1825
1350,1819
1351,1823
1352,1823
1353,1830
1354,1847
1355,1872
1356,1881
1357,1875
1358,1910
1359,1893
1360,1894
1361,1874
1362,1887
1363,1868
1364,1862
1365,1854
1366,1829
1367,1811
1368,1835
1369,1851
1370,1843
1371,1843
1372,1877
1373,1888
1374,1877
1375,1879
1376,1894
1377,1901
1378,1877
1379,1878
1380,1870
1381,1866
1382,1845
1383,1829
1384,1825
1385,1838
1386,1828
1387,1840
1388,1875
1389,1870
1390,1872
1391,1876
1392,1879
1393,1895
1394,1898
1395,1887
1396,1888
1397,1859
1398,1866
1399,1840
1400,1820
1401,1834
1402,1855
1403,1852
1404,1867
1405,1870
1406,1876
1407,1885
1408,1878
1409,1893
1410,1898
1411,1897
1412,1907
1413,1863
1414,1858
1415,1851
1416,1836
1417,1811
1418,1817
1419,1829
1420,1846
1421,1841
1422,1877
1423,1882
1424,1895
1425,1891
1426,1893
1427,1909
1428,1894
1429,1900
1430,1866
1431,1859
1432,1851
1433,1809
1434,1817
1435,1824
1436,1823
1437,1837
1438,1863
1439,1882
1440,1867
1441,1863
1442,1874
1443,1910
1444,1904
1445,1899
1446,1890
1447,1856
1448,1853
1449,1831
1450,1817
1451,1835
1452,1837
1453,1841
1454,1840
1455,1871
1456,1871
1457,1883
1458,1890
1459,1889
1460,1897
1461,1878
1462,1897
1463,1860
1464,1870
1465,1841
1466,1821
1467,1813
1468,1823
1469,1830
1470,1842
1471,1865
1472,1894
1473,1872
1474,1892
1475,1887
1476,1893
1477,1907
1478,1893
1479,1897
1480,1869
1481,1855
1482,1839
1483,1838
1484,1827
1485,1840
1486,1856
1487,1845
1488,1869
1489,1879
1490,1878
1491,1872
1492,1880
1493,1900
1494,1889
1495,1885
1496,1869
1497,1865
1498,1840
1499,1840
1500,1821
1501,1829
1502,1840
1503,1843
1504,1847
1505,1863
1506,1874
1507,1891
1508,1898
1509,1891
1510,1895
1511,1883
1512,1908
1513,1863
1514,1872
1515,1841
1516,1838
1517,1814
1518,1842
1519,1845
1520,1840
1521,1861
1522,1863
1523,1870
1524,1877
1525,1862
1526,1891
1527,1904
1528,1886
1529,1890
1530,1861
1531,1846
1532,1830
1533,1809
1534,1821
1535,1839
1536,1849
1537,1848
1538,1865
1539,1891
1540,1890
1541,1894
1542,1872
1543,1904
1544,1892
1545,1889
1546,1878
1547,1856
1548,1855
1549,1814
1550,1810
1551,1828
1552,1827
1553,1841
1554,1856
1555,1861
1556,1874
1557,1889
1558,1855
1559,1879
1560,1895
1561,1888
1562,1895
1563,1858
1564,1872
1565,1853
1566,1809
1567,1813
1568,1832
1569,1843
1570,1830
1571,1856
1572,1873
1573,1892
1574,1879
1575,1879
1576,1885
1577,1905
1578,1887
1579,1873
1580,1874
1581,1851
1582,1845
1583,1824
1584,1831
1585,1825
1586,1827
1587,1841
1588,1856
1589,1863
1590,1871
1591,1879
1592,1887
1593,1885
1594,1901
1595,1878
1596,1871
1597,1869
1598,1843
1599,1841
1600,1822
1601,1824
1602,1840
1603,1835
1604,1858
1605,1867
1606,1894
1607,1879
1608,1877
1609,1889
1610,1898
1611,1891
1612,1904
1613,1884
1614,1871
1615,1841
1616,1820
1617,1808
1618,1820
1619,1841
1620,1836
1621,1857
1622,1888
1623,1904
1624,1883
1625,1259
1626,1701
1627,1783
1628,1734
1629,1776
1630,1815
1631,1837
1632,1830
1633,1932
1634,1862
1635,1659
1636,1953
1637,1983
1638,2003
1639,2076
1640,2189
1641,2350
1642,2416
1643,2383
1644,2255
1645,2096
1646,1961
1647,1834
1648,1758
1649,1666
1650,1569
1651,1474
1652,1486
1653,1594
1654,1675
1655,1731
1656,1734
1657,1535
1658,1726
1659,1710
1660,1761
1661,1833
1662,1787
1663,1713
1664,1700
1665,1507
1666,1745
1667,2177
1668,2160
1669,2096
1670,2145
1671,2293
1672,2383
1673,2353
1674,2192
1675,2064
1676,1935
1677,1829
1678,1737
1679,1674
1680,1646
1681,1648
1682,1643
1683,1648
1684,1686
1685,1739
1686,1759
1687,2087
1688,1573
1689,1761
1690,1761
1691,1824
1692,1883
1693,1792
1694,1655
1695,1535
1696,1586
1697,2144
1698,2277
1699,2079
1700,2032
1701,2146
1702,2314
1703,2349
1704,2247
1705,2129
1706,1973
1707,1853
1708,1765
1709,1683
1710,1661
1711,1666
1712,1710
1713,1729
1714,1761
1715,1775
1716,1759
1717,1776
1718,2488
1719,1429
1720,1750
1721,1811
1722,1924
1723,1942
1724,1839
1725,1662
1726,1615
1727,1890
1728,2147
1729,1991
1730,1873
1731,1958
1732,2128
1733,2256
1734,2276
1735,2183
1736,2063
1737,1922
1738,1808
1739,1717
1740,1680
1741,1680
1742,1685
1743,1735
1744,1764
1745,1787
1746,1802
1747,1837
1748,1845
1749,2054
1750,1472
1751,1768
1752,1889
1753,1998
1754,1954
1755,1776
1756,1674
1757,1871
1758,1994
1759,1841
1760,1701
1761,1810
1762,2042
1763,2181
1764,2285
1765,2278
1766,2159
1767,1999
1768,1855
1769,1751
1770,1663
1771,1644
1772,1703
1773,1710
1774,1764
1775,1794
1776,1823
1777,1844
1778,1872
1779,1873
1780,1933
1781,1606
1782,1794
1783,1814
1784,2019
1785,1942
1786,1667
1787,1807
1788,2029
1789,1856
1790,1581
1791,1594
1792,1835
1793,2096
1794,2241
1795,2303
1796,2256
1797,2114
1798,1926
1799,1807
1800,1705
1801,1627
1802,1619
1803,1674
1804,1727
1805,1802
1806,1808
1807,1855
1808,1882
1809,1890
1810,1898
1811,1895
1812,1874
1813,1842
1814,1695
1815,1854
1816,1710
1817,1403
1818,1967
1819,2484
1820,1827
1821,1374
1822,1523
1823,1885
1824,2111
1825,2191
1826,2215
1827,2183
1828,2114
1829,1970
1830,1841
1831,1762
1832,1726
1833,1681
1834,1701
1835,1748
1836,1770
1837,1803
1838,1822
1839,1872
1840,1886
1841,1921
1842,1899
1843,1943
1844,1925
1845,1709
1846,1910
1847,1819
1848,1600
1849,2559
1850,2496
1851,1410
1852,1073
1853,1331
1854,1799
1855,2032
1856,2169
1857,2199
1858,2147
1859,2020
1860,1903
1861,1818
1862,1755
1863,1713
1864,1718
1865,1770
1866,1771
1867,1757
1868,1773
1869,1808
1870,1815
1871,1859
1872,1867
1873,1881
1874,1841
1875,1938
1876,1711
1877,1893
1878,1875
1879,1843
1880,2935
1881,2274
1882,1242
1883,1052
1884,1385
1885,1819
1886,2020
1887,2111
1888,2129
1889,2055
1890,1943
1891,1844
1892,1776
1893,1727
1894,1712
1895,1764
1896,1872
1897,1859
1898,1814
1899,1820
1900,1799
1901,1808
1902,1834
1903,1844
1904,1873
1905,1629
1906,1916
1907,1731
1908,1891
1909,1874
1910,1931
1911,3235
1912,2251
1913,1168
1914,1044
1915,1403
1916,1826
1917,2032
1918,2094
1919,2096
1920,1988
1921,1899
1922,1828
1923,1746
1924,1746
1925,1757
1926,1799
1927,1867
1928,1872
1929,1882
1930,1840
1931,1843
1932,1831
1933,1827
1934,1814
1935,1833
1936,1573
1937,1885
1938,1698
1939,1855
1940,1796
1941,1968
1942,3357
1943,2099
1944,1139
1945,1088
1946,1525
1947,1922
1948,2075
1949,2105
1950,2037
1951,1904
1952,1795
1953,1718
1954,1692
1955,1723
1956,1775
1957,1840
1958,1882
1959,1872
1960,1845
1961,1883
1962,1874
1963,1857
1964,1866
1965,1840
1966,1825
1967,1520
1968,1871
1969,1691
1970,1809
1971,1805
1972,2039
1973,3566
1974,2003
1975,1061
1976,1047
1977,1520
1978,1957
1979,2128
1980,2141
1981,2032
1982,1874
1983,1777
1984,1681
1985,1677
1986,1689
1987,1755
1988,1814
1989,1856
1990,1866
1991,1872
1992,1882
1993,1883
1994,1894
1995,1904
1996,1878
1997,1863
1998,1746
1999,1872
2000,1686
2001,1715
2002,1725
2003,1847
2004,3451
2005,2092
2006,1105
2007,1071
2008,1499
2009,1930
2010,2148
2011,2173
2012,2090
2013,1930
2014,1823
2015,1715
2016,1702
2017,1690
2018,1723
2019,1731
2020,1775
2021,1851
2022,1856
2023,1890
2024,1898
2025,1888
2026,1903
2027,1910
2028,1905
2029,1974
2030,1939
2031,1749
2032,1734
2033,1760
2034,1775
2035,3435
2036,2106
2037,1056
2038,1106
2039,1478
2040,1921
2041,2133
2042,2167
2043,2063
2044,1926
2045,1818
2046,1723
2047,1711
2048,1722
2049,1750
2050,1765
2051,1771
2052,1787
2053,1822
2054,1851
2055,1889
2056,1895
2057,1903
2058,1898
2059,1902
2060,1995
2061,1994
2062,1830
2063,1751
2064,1808
2065,1785
2066,3369
2067,2131
2068,1112
2069,1097
2070,1472
2071,1888
2072,2112
2073,2151
2074,1996
2075,1853
2076,1776
2077,1719
2078,1734
2079,1761
2080,1742
2081,1750
2082,1854
2083,1831
2084,1822
2085,1827
2086,1834
2087,1856
2088,1871
2089,1884
2090,1905
2091,1908
2092,1930
2093,1879
2094,1786
2095,1890
2096,1818
2097,3318
2098,2384
2099,1088
2100,1049
2101,1339
2102,1782
2103,2029
2104,2112
2105,2017
2106,1906
2107,1795
2108,1701
2109,1744
2110,1781
2111,1817
2112,1807
2113,1817
2114,1805
2115,1825
2116,1829
2117,1818
2118,1840
2119,1849
2120,1851
2121,1859
2122,1890
2123,1917
2124,1870
2125,1731
2126,1953
2127,1883
2128,3279
2129,2549
2130,1040
2131,989
2132,1271
2133,1730
2134,2043
2135,2145
2136,2046
2137,1926
2138,1804
2139,1743
2140,1694
2141,1729
2142,1765
2143,1805
2144,1861
2145,1873
2146,1861
2147,1851
2148,1850
2149,1817
2150,1853
2151,1872
2152,1874
2153,1889
2154,1882
2155,1896
2156,1742
2157,1897
2158,1808
2159,3152
2160,2559
2161,1095
2162,1040
2163,1267
2164,1722
2165,2017
2166,2096
2167,1990
2168,1891
2169,1815
2170,1735
2171,1758
2172,1806
2173,1854
2174,1879
2175,1863
2176,1887
2177,1872
2178,1854
2179,1857
2180,1828
2181,1830
2182,1827
2183,1840
2184,1818
2185,1691
2186,1850
2187,1680
2188,1882
2189,1806
2190,2883
2191,2961
2192,1307
2193,1119
2194,1359
2195,1744
2196,2035
2197,2129
2198,2067
2199,1881
2200,1737
2201,1674
2202,1664
2203,1693
2204,1739
2205,1773
2206,1790
2207,1886
2208,1868
2209,1877
2210,1887
2211,1894
2212,1889
2213,1879
2214,1878
2215,1858
2216,1572
2217,1847
2218,1712
2219,1882
2220,1844
2221,2655
2222,3223
2223,1341
2224,995
2225,1194
2226,1647
2227,1988
2228,2129
2229,2090
2230,1968
2231,1852
2232,1744
2233,1693
2234,1702
2235,1746
2236,1792
2237,1812
2238,1835
2239,1857
2240,1873
2241,1881
2242,1887
2243,1907
2244,1902
2245,1886
2246,1879
2247,1853
2248,1857
2249,1826
2250,1826
2251,1831
2252,1840
2253,1841
2254,1843
2255,1871
2256,1869
2257,1877
2258,1875
2259,1869
2260,1863
2261,1852
2262,1863
2263,1856
2264,1856
2265,1840
2266,1801
2267,1799
2268,1805
2269,1808
2270,1825
2271,1870
2272,1872
2273,1873
2274,1889
2275,1877
2276,1887
2277,1872
2278,1861
2279,1849
2280,1831
2281,1838
2282,1809
2283,1806
2284,1808
2285,1828
2286,1830
2287,1837
2288,1872
2289,1882
2290,1875
2291,1873
2292,1870
2293,1874
2294,1870
2295,1865
2296,1840
2297,1845
2298,1818
2299,1815
2300,1798
2301,1807
2302,1815
2303,1825
2304,1858
2305,1847
2306,1872
2307,1856
2308,1871
2309,1882
2310,1887
2311,1872
2312,1888
2313,1845
2314,1841
2315,1824
2316,1790
2317,1776
2318,1793
2319,1799
2320,1839
2321,1870
2322,1873
2323,1872
2324,1872
2325,1863
2326,1882
2327,1871
2328,1874
2329,1897
2330,1862
2331,1841
2332,1817
2333,1812
2334,1808
2335,1827
2336,1823
2337,1828
2338,1854
2339,1855
2340,1858
2341,1873
2342,1871
2343,1877
2344,1872
2345,1889
2346,1867
2347,1851
2348,1823
2349,1812
2350,1803
2351,1811
2352,1824
2353,1837
2354,1854
2355,1872
2356,1870
2357,1868
2358,1871
2359,1887
2360,1894
2361,1882
2362,1885
2363,1854
2364,1843
2365,1814
2366,1816
2367,1797
2368,1808
2369,1830
2370,1815
2371,1845
2372,1867
2373,1872
2374,1871
2375,1869
2376,1906
2377,1904
2378,1908
2379,1871
2380,1850
2381,1839
2382,1856
2383,1807
2384,1841
2385,1867
2386,1849
2387,1776
2388,1796
2389,1854
2390,1881
2391,1870
2392,1869
2393,1872
2394,1870
2395,1857
2396,1843
2397,1840
2398,1834
2399,1808
2400,1807
2401,1830
2402,1835
2403,1836
2404,1846
2405,1861
2406,1872
2407,1872
2408,1889
2409,1872
2410,1883
2411,1877
2412,1879
2413,1867
2414,1855
2415,1847
2416,1808
2417,1808
2418,1843
2419,1838
2420,1833
2421,1846
2422,1859
2423,1874
2424,1870
2425,1893
2426,1889
2427,1881
2428,1868
2429,1849
2430,1845
2431,1855
2432,1839
2433,1825
2434,1822
2435,1838
2436,1858
2437,1850
2438,1855
2439,1872
2440,1878
2441,1872
2442,1869
2443,1883
2444,1904
2445,1890
2446,1861
2447,1856
2448,1867
2449,1821
2450,1831
2451,1820
2452,1840
2453,1834
2454,1851
2455,1865
2456,1901
2457,1882
2458,1887
2459,1871
2460,1887
2461,1893
2462,1899
2463,1855
2464,1847
2465,1851
2466,1819
2467,1831
2468,1839
2469,1836
2470,1839
2471,1861
2472,1881
2473,1875
2474,1862
2475,1871
2476,1888
2477,1893
2478,1907
2479,1894
2480,1865
2481,1860
2482,1840
2483,1815
2484,1813
2485,1823
2486,1840
2487,1846
2488,1870
2489,1879
2490,1897
2491,1889
2492,1882
2493,1903
2494,1884
2495,1887
2496,1867
2497,1858
2498,1854
2499,1818
2500,1812
2501,1822
2502,1840
2503,1840
2504,1858
2505,1867
2506,1872
2507,1873
2508,1898
2509,1885
2510,1887
2511,1872
2512,1883
2513,1865
2514,1859
2515,1849
2516,1814
2517,1817
2518,1827
2519,1828
2520,1834
2521,1843
2522,1855
2523,1863
2524,1888
2525,1891
2526,1891
2527,1900
2528,1889
2529,1878
2530,1859
2531,1840
2532,1838
2533,1815
2534,1821
2535,1835
2536,1850
2537,1856
2538,1858
2539,1885
2540,1882
2541,1882
2542,1881
2543,1882
2544,1904
2545,1872
2546,1870
2547,1851
2548,1843
2549,1808
2550,1803
2551,1825
2552,1825
2553,1840
2554,1849
2555,1857
2556,1874
2557,1894
2558,1849
2559,1870
2560,1880
2561,1879
2562,1871
2563,1846
2564,1849
2565,1836
2566,1815
2567,1806
2568,1813
2569,1843
2570,1837
2571,1855
2572,1869
2573,1869
2574,1875
2575,1859
2576,1897
2577,1889
2578,1878
2579,1871
2580,1881
2581,1886
2582,1877
2583,1873
2584,1915
2585,1920
2586,1915
2587,1853
2588,1831
2589,1781
2590,1755
2591,1791
2592,1851
2593,1887
2594,1875
2595,1869
2596,1859
2597,1856
2598,1857
2599,1815
2600,1823
2601,1831
2602,1847
2603,1841
2604,1867
2605,1857
2606,1873
2607,1875
2608,1880
2609,1888
2610,1902
2611,1905
2612,1920
2613,1878
2614,1856
2615,1835
2616,1810
2617,1817
2618,1835
2619,1847
2620,1841
2621,1845
2622,1882
2623,1874
2624,1886
2625,1886
2626,1901
2627,1905
2628,1918
2629,1905
2630,1858
2631,1856
2632,1830
2633,1808
2634,1814
2635,1829
2636,1856
2637,1815
2638,1863
2639,1899
2640,1891
2641,1895
2642,1877
2643,1918
2644,1907
2645,1906
2646,1881
2647,1877
2648,1842
2649,1831
2650,1795
2651,1819
2652,1835
2653,1834
2654,1845
2655,1882
2656,1886
2657,1889
2658,1899
2659,1902
2660,1904
2661,1879
2662,1901
2663,1871
2664,1850
2665,1843
2666,1826
2667,1794
2668,1808
2669,1817
2670,1826
2671,1869
2672,1874
2673,1899
2674,1898
2675,1881
2676,1904
2677,1905
2678,1893
2679,1914
2680,1873
2681,1872
2682,1843
2683,1829
2684,1826
2685,1841
2686,1856
2687,1862
2688,1869
2689,1887
2690,1905
2691,1891
2692,1895
2693,1901
2694,1899
2695,1886
2696,1874
2697,1866
2698,1851
2699,1850
2700,1827
2701,1823
2702,1840
2703,1823
2704,1839
2705,1872
2706,1896
2707,1886
2708,1867
2709,1891
2710,1904
2711,1900
2712,1875
2713,1872
2714,1855
2715,1846
2716,1827
2717,1824
2718,1838
2719,1841
2720,1840
2721,1856
2722,1873
2723,1863
2724,1881
2725,1866
2726,1899
2727,1905
2728,1920
2729,1870
2730,1861
2731,1856
2732,1839
2733,1825
2734,1819
2735,1841
2736,1866
2737,1840
2738,1881
2739,1871
2740,1888
2741,1875
2742,1861
2743,1888
2744,1898
2745,1890
2746,1888
2747,1866
2748,1853
2749,1831
2750,1835
2751,1839
2752,1847
2753,1881
2754,1876
2755,1873
2756,1882
2757,1882
2758,1882
2759,1887
2760,1904
2761,1887
2762,1899
2763,1869
2764,1854
2765,1839
2766,1819
2767,1835
2768,1835
2769,1840
2770,1856
2771,1846
2772,1883
2773,1894
2774,1889
2775,1892
2776,1906
2777,1905
2778,1919
2779,1885
2780,1874
2781,1871
2782,1851
2783,1840
2784,1819
2785,1824
2786,1842
2787,1842
2788,1851
2789,1881
2790,1872
2791,1880
2792,1888
2793,1907
2794,1903
2795,1897
2796,1881
2797,1872
2798,1843
2799,1860
2800,1814
2801,1829
2802,1845
2803,1855
2804,1866
2805,1888
2806,1889
2807,1891
2808,1900
2809,1891
2810,1902
2811,1895
2812,1882
2813,1871
2814,1873
2815,1853
2816,1813
2817,1809
2818,1835
2819,1835
2820,1831
2821,1855
2822,1889
2823,1883
2824,1891
2825,1872
2826,1892
2827,1899
2828,1875
2829,1872
2830,1867
2831,1850
2832,1843
2833,1821
2834,1822
2835,1840
2836,1852
2837,1847
2838,1857
2839,1881
2840,1877
2841,1878
2842,1891
2843,1898
2844,1903
2845,1895
2846,1872
2847,1872
2848,1856
2849,1845
2850,1829
2851,1823
2852,1838
2853,1840
2854,1870
2855,1875
2856,1879
2857,1882
2858,1866
2859,1897
2860,1905
2861,1917
2862,1904
2863,1883
2864,1853
2865,1839
2866,1835
2867,1823
2868,1830
2869,1851
2870,1843
2871,1869
2872,1885
2873,1904
2874,1895
2875,1875
2876,1900
2877,1898
2878,1872
2879,1880
2880,1863
2881,1863
2882,1831
2883,1840
2884,1834
2885,1843
2886,1841
2887,1862
2888,1860
2889,1874
2890,1887
2891,1906
2892,1884
2893,1893
2894,1910
2895,1890
2896,1893
2897,1867
2898,1838
2899,1838
2900,1827
2901,1829
2902,1843
2903,1877
2904,1872
2905,1878
2906,1868
2907,1870
2908,1907
2909,1887
2910,1902
2911,1903
2912,1886
2913,1872
2914,1851
2915,1840
2916,1850
2917,1826
2918,1838
2919,1840
2920,1847
2921,1846
2922,1872
2923,1895
2924,1874
2925,1886
2926,1888
2927,1901
2928,1873
2929,1891
2930,1872
2931,1867
2932,1843
2933,1836
2934,1827
2935,1835
2936,1840
2937,1851
2938,1863
2939,1887
2940,1878
2941,1889
2942,1888
2943,1902
2944,1904
2945,1896
2946,1863
2947,1863
2948,1855
2949,1823
2950,1828
2951,1827
2952,1843
2953,1869
2954,1862
2955,1871
2956,1877
2957,1893
2958,1902
2959,1887
2960,1904
2961,1919
2962,1905
2963,1879
2964,1857
2965,1843
2966,1815
2967,1809
2968,1830
2969,1840
2970,1830
2971,1862
2972,1879
2973,1893
2974,1905
2975,1895
2976,1891
2977,1902
2978,1905
2979,1875
2980,1874
2981,1847
2982,1858
2983,1813
2984,1814
2985,1840
2986,1842
2987,1842
2988,1871
2989,1885
2990,1881
2991,1877
2992,1879
2993,1892
2994,1904
2995,1905
2996,1863
2997,1870
2998,1863
2999,1846
3000,1808
3001,1840
3002,1838
3003,1840
3004,1847
3005,1867
3006,1891
3007,1893
3008,1891
3009,1892
3010,1908
3011,1897
3012,1899
3013,1871
3014,1870
3015,1845
3016,1823
3017,1808
3018,1844
3019,1840
3020,1840
3021,1863
3022,1874
3023,1868
3024,1872
3025,1895
3026,1904
3027,1905
3028,1919
3029,1867
3030,1856
3031,1840
3032,1836
3033,1831
3034,1831
3035,1840
3036,1857
3037,1824
3038,1860
3039,1869
3040,1891
3041,1904
3042,1897
3043,1904
3044,1909
3045,1898
3046,1889
3047,1866
3048,1853
3049,1846
3050,1810
3051,1820
3052,1839
3053,1843
3054,1875
3055,1861
3056,1878
3057,1872
3058,1888
3059,1893
3060,1904
3061,1891
3062,1893
3063,1870
3064,1867
3065,1838
3066,1837
3067,1823
3068,1835
3069,1861
3070,1843
3071,1846
3072,1863
3073,1879
3074,1875
3075,1876
3076,1899
3077,1905
3078,1918
3079,1907
3080,1864
3081,1872
3082,1862
3083,1840
3084,1813
3085,1827
3086,1839
3087,1846
3088,1855
3089,1872
3090,1889
3091,1894
3092,1890
3093,1903
3094,1910
3095,1905
3096,1884
3097,1869
3098,1852
3099,1840
3100,1795
3101,1819
3102,1837
3103,1879
3104,1853
3105,1872
3106,1888
3107,1898
3108,1893
3109,1903
3110,1910
3111,1909
3112,1888
3113,1871
3114,1854
3115,1826
3116,1814
3117,1805
3118,1819
3119,1837
3120,1831
3121,1877
3122,1879
3123,1875
3124,1905
3125,1905
3126,1917
3127,1909
3128,1883
3129,1899
3130,1861
3131,1854
3132,1830
3133,1826
3134,1808
3135,1826
3136,1822
3137,1843
3138,1869
3139,1903
3140,1899
3141,1888
3142,1904
3143,1913
3144,1909
3145,1900
3146,1894
3147,1862
3148,1850
3149,1830
3150,1791
3151,1807
3152,1818
3153,1858
3154,1851
3155,1877
3156,1899
3157,1881
3158,1900
3159,1898
3160,1909
3161,1915
3162,1901
3163,1868
3164,1854
3165,1834
3166,1826
3167,1793
3168,1811
3169,1821
3170,1840
3171,1865
3172,1882
3173,1899
3174,1898
3175,1885
3176,1903
3177,1904
3178,1877
3179,1878
3180,1861
3181,1864
3182,1831
3183,1826
3184,1801
3185,1824
3186,1836
3187,1856
3188,1872
3189,1890
3190,1878
3191,1898
3192,1899
3193,1903
3194,1899
3195,1903
3196,1901
3197,1872
3198,1847
3199,1824
3200,1815
3201,1823
3202,1834
3203,1863
3204,1840
3205,1872
3206,1888
3207,1894
3208,1871
3209,1899
3210,1907
3211,1901
3212,1899
3213,1852
3214,1845
3215,1826
3216,1796
3217,1793
3218,1813
3219,1828
3220,1837
3221,1859
3222,1888
3223,1888
3224,1889
3225,1904
3226,1897
3227,1914
3228,1931
3229,1887
3230,1866
3231,1845
3232,1847
3233,1813
3234,1799
3235,1819
3236,1825
3237,1826
3238,1856
3239,1903
3240,1899
3241,1893
3242,1084
3243,1792
3244,1999
3245,2256
3246,2244
3247,2198
3248,2182
3249,1970
3250,1655
3251,1616
3252,1506
3253,1415
3254,1535
3255,1681
3256,1838
3257,1982
3258,2127
3259,2179
3260,2221
3261,2177
3262,2096
3263,1961
3264,1874
3265,1806
3266,1748
3267,1680
3268,1595
3269,1535
3270,1638
3271,1759
3272,1813
3273,1738
3274,1648
3275,1903
3276,2254
3277,2333
3278,2283
3279,2221
3280,1927
3281,1535
3282,1445
3283,1299
3284,1415
3285,1584
3286,1745
3287,1931
3288,2106
3289,2189
3290,2176
3291,2133
3292,2085
3293,2002
3294,1957
3295,1913
3296,1868
3297,1807
3298,1659
3299,1559
3300,1616
3301,1711
3302,1755
3303,1799
3304,2032
3305,1615
3306,1883
3307,2229
3308,2351
3309,2317
3310,2191
3311,1846
3312,1607
3313,1518
3314,1532
3315,1589
3316,1644
3317,1808
3318,2013
3319,2109
3320,2112
3321,2047
3322,2023
3323,1954
3324,1885
3325,1809
3326,1805
3327,1782
3328,1793
3329,1792
3330,1778
3331,1782
3332,1805
3333,1773
3334,1792
3335,2604
3336,1349
3337,1755
3338,2032
3339,2215
3340,2163
3341,1924
3342,1535
3343,1718
3344,2032
3345,1986
3346,1728
3347,1722
3348,1941
3349,2090
3350,2128
3351,2102
3352,2068
3353,2014
3354,1901
3355,1808
3356,1798
3357,1757
3358,1732
3359,1745
3360,1775
3361,1799
3362,1831
3363,1811
3364,1835
3365,1836
3366,2100
3367,1398
3368,1744
3369,1970
3370,2193
3371,2188
3372,1886
3373,1632
3374,1946
3375,2010
3376,1629
3377,1472
3378,1709
3379,1968
3380,2079
3381,2113
3382,2114
3383,2055
3384,1970
3385,1866
3386,1783
3387,1740
3388,1741
3389,1758
3390,1775
3391,1803
3392,1836
3393,1867
3394,1863
3395,1871
3396,1896
3397,1984
3398,1535
3399,1793
3400,1994
3401,2258
3402,2247
3403,1873
3404,1829
3405,2362
3406,1773
3407,1216
3408,1232
3409,1622
3410,1971
3411,2099
3412,2125
3413,2128
3414,2079
3415,1971
3416,1840
3417,1754
3418,1711
3419,1706
3420,1727
3421,1779
3422,1833
3423,1865
3424,1872
3425,1890
3426,1904
3427,1911
3428,1919
3429,1535
3430,1859
3431,2064
3432,2432
3433,2406
3434,1918
3435,2043
3436,2266
3437,1398
3438,940
3439,1146
3440,1636
3441,1933
3442,2064
3443,2097
3444,2107
3445,2039
3446,1945
3447,1847
3448,1771
3449,1722
3450,1690
3451,1744
3452,1787
3453,1830
3454,1851
3455,1873
3456,1906
3457,1921
3458,1922
3459,1919
3460,1358
3461,1882
3462,2055
3463,2432
3464,2461
3465,1991
3466,2233
3467,2255
3468,1323
3469,896
3470,1110
3471,1587
3472,1940
3473,2059
3474,2074
3475,2094
3476,2047
3477,1969
3478,1893
3479,1831
3480,1777
3481,1762
3482,1778
3483,1763
3484,1766
3485,1799
3486,1806
3487,1852
3488,1879
3489,1904
3490,1910
3491,1264
3492,1883
3493,2023
3494,2382
3495,2416
3496,2033
3497,2450
3498,2366
3499,1266
3500,877
3501,1131
3502,1641
3503,1904
3504,1986
3505,2047
3506,2090
3507,2022
3508,1926
3509,1868
3510,1829
3511,1787
3512,1808
3513,1787
3514,1834
3515,1794
3516,1794
3517,1782
3518,1808
3519,1857
3520,1853
3521,1871
3522,1265
3523,1821
3524,1870
3525,2251
3526,2288
3527,1975
3528,2725
3529,2546
3530,1285
3531,880
3532,1195
3533,1667
3534,1899
3535,1973
3536,2013
3537,2013
3538,2021
3539,1913
3540,1837
3541,1791
3542,1774
3543,1821
3544,1861
3545,1876
3546,1821
3547,1808
3548,1805
3549,1775
3550,1781
3551,1822
3552,1846
3553,1319
3554,1746
3555,1835
3556,2192
3557,2258
3558,2027
3559,2910
3560,2503
3561,1258
3562,953
3563,1211
3564,1685
3565,1919
3566,1984
3567,2015
3568,2030
3569,1984
3570,1902
3571,1822
3572,1771
3573,1700
3574,1690
3575,1823
3576,1911
3577,1903
3578,1909
3579,1899
3580,1872
3581,1870
3582,1854
3583,1850
3584,1866
3585,1668
3586,1770
3587,2074
3588,2208
3589,1985
3590,2857
3591,2611
3592,1358
3593,981
3594,1247
3595,1727
3596,1965
3597,1999
3598,2017
3599,2017
3600,1935
3601,1840
3602,1793
3603,1759
3604,1751
3605,1782
3606,1791
3607,1811
3608,1834
3609,1855
3610,1878
3611,1884
3612,1922
3613,1908
3614,1918
3615,2410
3616,1638
3617,1739
3618,2031
3619,2153
3620,1956
3621,2913
3622,2650
3623,1278
3624,896
3625,1149
3626,1680
3627,1968
3628,2044
3629,2043
3630,2032
3631,1987
3632,1895
3633,1795
3634,1727
3635,1711
3636,1712
3637,1751
3638,1809
3639,1839
3640,1859
3641,1894
3642,1890
3643,1926
3644,1914
3645,1924
3646,2466
3647,1600
3648,1744
3649,1983
3650,2148
3651,2003
3652,2930
3653,2717
3654,1219
3655,854
3656,1131
3657,1664
3658,1941
3659,2005
3660,2081
3661,2109
3662,2087
3663,1945
3664,1825
3665,1762
3666,1693
3667,1675
3668,1719
3669,1760
3670,1777
3671,1837
3672,1879
3673,1891
3674,1930
3675,1927
3676,1968
3677,2298
3678,1599
3679,1808
3680,1947
3681,2113
3682,1954
3683,2894
3684,2729
3685,1265
3686,842
3687,1040
3688,1614
3689,1937
3690,2019
3691,2096
3692,2126
3693,2086
3694,2016
3695,1919
3696,1842
3697,1783
3698,1728
3699,1723
3700,1737
3701,1744
3702,1759
3703,1799
3704,1818
3705,1879
3706,1917
3707,1901
3708,1965
3709,1534
3710,1840
3711,1991
3712,2195
3713,2041
3714,2906
3715,2887
3716,1279
3717,814
3718,1018
3719,1523
3720,1871
3721,1981
3722,2047
3723,2101
3724,2074
3725,1983
3726,1919
3727,1858
3728,1794
3729,1777
3730,1742
3731,1761
3732,1789
3733,1807
3734,1790
3735,1829
3736,1831
3737,1853
3738,1894
3739,1923
3740,1419
3741,1866
3742,1914
3743,2192
3744,2082
3745,2703
3746,3189
3747,1507
3748,864
3749,946
3750,1434
3751,1813
3752,1952
3753,2033
3754,2032
3755,2061
3756,2005
3757,1904
3758,1847
3759,1808
3760,1799
3761,1797
3762,1808
3763,1807
3764,1809
3765,1808
3766,1811
3767,1794
3768,1829
3769,1862
3770,1883
3771,1358
3772,1867
3773,1859
3774,2170
3775,2041
3776,2640
3777,3373
3778,1575
3779,911
3780,946
3781,1424
3782,1827
3783,1922
3784,1978
3785,2053
3786,2033
3787,1937
3788,1874
3789,1814
3790,1791
3791,1765
3792,1799
3793,1830
3794,1862
3795,1870
3796,1841
3797,1858
3798,1840
3799,1839
3800,1777
3801,1815
3802,1263
3803,1798
3804,1773
3805,2062
3806,1971
3807,2495
3808,3328
3809,1805
3810,1072
3811,1041
3812,1498
3813,1893
3814,2001
3815,2023
3816,2069
3817,2019
3818,1904
3819,1798
3820,1741
3821,1744
3822,1758
3823,1794
3824,1815
3825,1844
3826,1872
3827,1882
3828,1902
3829,1893
3830,1872
3831,1875
3832,1840
3833,1303
3834,1734
3835,1717
3836,1966
3837,1951
3838,2276
3839,3505
3840,1998
3841,1091
3842,998
3843,1402
3844,1830
3845,1985
3846,2021
3847,2064
3848,2055
3849,1968
3850,1856
3851,1778
3852,1751
3853,1747
3854,1771
3855,1816
3856,1858
3857,1839
3858,1865
3859,1878
3860,1899
3861,1894
3862,1910
3863,1895
3864,1876
3865,1860
3866,1819
3867,1793
3868,1808
3869,1823
3870,1815
3871,1842
3872,1873
3873,1883
3874,1903
3875,1886
3876,1915
3877,1927
3878,1920
3879,1914
3880,1873
3881,1851
3882,1840
3883,1808
3884,1760
3885,1792
3886,1819
3887,1822
3888,1856
3889,1899
3890,1903
3891,1904
3892,1884
3893,1927
3894,1943
3895,1935
3896,1893
3897,1872
3898,1853
3899,1808
3900,1777
3901,1750
3902,1786
3903,1819
3904,1853
3905,1875
3906,1893
3907,1911
3908,1907
3909,1936
3910,1936
3911,1934
3912,1903
3913,1860
3914,1830
3915,1804
3916,1776
3917,1763
3918,1821
3919,1823
3920,1836
3921,1869
3922,1875
3923,1894
3924,1895
3925,1875
3926,1885
3927,1881
3928,1883
3929,1886
3930,1850
3931,1840
3932,1826
3933,1791
3934,1802
3935,1807
3936,1833
3937,1840
3938,1863
3939,1898
3940,1909
3941,1921
3942,1893
3943,1905
3944,1916
3945,1893
3946,1883
3947,1863
3948,1850
3949,1826
3950,1822
3951,1808
3952,1819
3953,1818
3954,1835
3955,1856
3956,1872
3957,1891
3958,1889
3959,1898
3960,1907
3961,1904
3962,1914
3963,1861
3964,1861
3965,1831
3966,1808
3967,1806
3968,1811
3969,1825
3970,1829
3971,1841
3972,1869
3973,1906
3974,1877
3975,1901
3976,1907
3977,1920
3978,1913
3979,1927
3980,1899
3981,1888
3982,1845
3983,1777
3984,1745
3985,1760
3986,1790
3987,1810
3988,1859
3989,1905
3990,1894
3991,1905
3992,1891
3993,1919
3994,1906
3995,1901
3996,1878
3997,1871
3998,1843
3999,1849
4000,1807
4001,1809
4002,1827
4003,1831
4004,1847
4005,1885
4006,1872
4007,1887
4008,1877
4009,1887
4010,1903
4011,1893
4012,1875
4013,1866
4014,1859
4015,1819
4016,1809
4017,1785
4018,1808
4019,1818
4020,1830
4021,1851
4022,1871
4023,1891
4024,1879
4025,1885
4026,1888
4027,1894
4028,1878
4029,1893
4030,1857
4031,1834
4032,1834
4033,1822
4034,1808
4035,1821
4036,1828
4037,1842
4038,1863
4039,1885
4040,1894
4041,1871
4042,1874
4043,1902
4044,1903
4045,1883
4046,1894
4047,1858
4048,1824
4049,1837
4050,1802
4051,1810
4052,1829
4053,1827
4054,1845
4055,1871
4056,1879
4057,1886
4058,1879
4059,1894
4060,1920
4061,1893
4062,1904
4063,1872
4064,1857
4065,1845
4066,1823
4067,1795
4068,1821
4069,1829
4070,1841
4071,1856
4072,1886
4073,1891
4074,1906
4075,1889
4076,1889
4077,1895
4078,1904
4079,1927
4080,1872
4081,1868
4082,1836
4083,1817
4084,1801
4085,1825
4086,1840
4087,1834
4088,1855
4089,1899
4090,1905
4091,1889
4092,1903
4093,1917
4094,1920
4095,1894
4096,1899
4097,1877
4098,1840
4099,1835
4100,1819
4101,1809
4102,1830
4103,1840
4104,1851
4105,1867
4106,1871
4107,1900
4108,1887
4109,1901
4110,1920
4111,1907
4112,1920
4113,1874
4114,1858
4115,1859
4116,1827
4117,1808
4118,1821
4119,1840
4120,1835
4121,1841
4122,1879
4123,1898
4124,1891
4125,1910
4126,1905
4127,1907
4128,1919
4129,1911
4130,1861
4131,1863
4132,1830
4133,1833
4134,1808
4135,1809
4136,1823
4137,1840
4138,1853
4139,1882
4140,1890
4141,1907
4142,1893
4143,1911
4144,1915
4145,1906
4146,1898
4147,1869
4148,1839
4149,1835
4150,1787
4151,1805
4152,1829
4153,1831
4154,1855
4155,1874
4156,1904
4157,1904
4158,1903
4159,1907
4160,1910
4161,1892
4162,1904
4163,1872
4164,1847
4165,1840
4166,1823
4167,1805
4168,1814
4169,1817
4170,1834
4171,1852
4172,1886
4173,1901
4174,1885
4175,1875
4176,1901
4177,1904
4178,1899
4179,1895
4180,1866
4181,1855
4182,1846
4183,1781
4184,1804
4185,1811
4186,1838
4187,1850
4188,1863
4189,1904
4190,1901
4191,1891
4192,1890
4193,1911
4194,1905
4195,1897
4196,1885
4197,1861
4198,1855
4199,1830
4200,1819
4201,1811
4202,1826
4203,1823
4204,1849
4205,1875
4206,1883
4207,1895
4208,1898
4209,1887
4210,1901
4211,1907
4212,1909
4213,1876
4214,1865
4215,1840
4216,1826
4217,1801
4218,1818
4219,1819
4220,1827
4221,1857
4222,1873
4223,1893
4224,1871
4225,1889
4226,1899
4227,1903
4228,1897
4229,1889
4230,1867
4231,1844
4232,1840
4233,1795
4234,1806
4235,1826
4236,1824
4237,1846
4238,1871
4239,1900
4240,1872
4241,1883
4242,1889
4243,1902
4244,1914
4245,1899
4246,1906
4247,1869
4248,1844
4249,1821
4250,1808
4251,1805
4252,1827
4253,1840
4254,1852
4255,1863
4256,1888
4257,1881
4258,1882
4259,1891
4260,1903
4261,1904
4262,1912
4263,1889
4264,1855
4265,1841
4266,1803
4267,1805
4268,1824
4269,1839
4270,1830
4271,1870
4272,1872
4273,1898
4274,1894
4275,1909
4276,1904
4277,1910
4278,1909
4279,1890
4280,1871
4281,1863
4282,1827
4283,1803
4284,1801
4285,1813
4286,1825
4287,1837
4288,1859
4289,1901
4290,1899
4291,1889
4292,1904
4293,1904
4294,1920
4295,1909
4296,1895
4297,1859
4298,1851
4299,1843
4300,1810
4301,1808
4302,1827
4303,1851
4304,1845
4305,1874
4306,1872
4307,1891
4308,1909
4309,1900
4310,1902
4311,1915
4312,1907
4313,1871
4314,1853
4315,1834
4316,1818
4317,1808
4318,1817
4319,1824
4320,1823
4321,1845
4322,1873
4323,1894
4324,1893
4325,1899
4326,1904
4327,1907
4328,1913
4329,1914
4330,1872
4331,1861
4332,1831
4333,1807
4334,1798
4335,1814
4336,1837
4337,1830
4338,1851
4339,1893
4340,1891
4341,1898
4342,1893
4343,1915
4344,1923
4345,1904
4346,1885
4347,1866
4348,1841
4349,1809
4350,1792
4351,1803
4352,1819
4353,1814
4354,1845
4355,1867
4356,1895
4357,1886
4358,1882
4359,1897
4360,1903
4361,1909
4362,1914
4363,1881
4364,1869
4365,1840
4366,1808
4367,1804
4368,1813
4369,1834
4370,1838
4371,1869
4372,1883
4373,1904
4374,1904
4375,1893
4376,1901
4377,1903
4378,1894
4379,1905
4380,1875
4381,1870
4382,1825
4383,1808
4384,1803
4385,1822
4386,1835
4387,1831
4388,1843
4389,1888
4390,1889
4391,1897
4392,1888
4393,1894
4394,1895
4395,1902
4396,1895
4397,1872
4398,1854
4399,1840
4400,1774
4401,1804
4402,1823
4403,1821
4404,1840
4405,1861
4406,1893
4407,1872
4408,1878
4409,1895
4410,1898
4411,1898
4412,1899
4413,1878
4414,1854
4415,1833
4416,1811
4417,1793
4418,1813
4419,1818
4420,1840
4421,1840
4422,1894
4423,1877
4424,1882
4425,1872
4426,1902
4427,1908
4428,1899
4429,1919
4430,1851
4431,1854
4432,1825
4433,1795
4434,1789
4435,1814
4436,1828
4437,1838
4438,1857
4439,1870
4440,1895
4441,1895
4442,1889
4443,1904
4444,1907
4445,1904
4446,1900
4447,1863
4448,1846
4449,1825
4450,1843
4451,1802
4452,1823
4453,1820
4454,1839
4455,1873
4456,1900
4457,1886
4458,1904
4459,1896
4460,1920
4461,1899
4462,1899
4463,1859
4464,1868
4465,1825
4466,1809
4467,1815
4468,1813
4469,1838
4470,1825
4471,1872
4472,1879
4473,1885
4474,1901
4475,1895
4476,1903
4477,1905
4478,1892
4479,1909
4480,1867
4481,1851
4482,1841
4483,1811
4484,1801
4485,1814
4486,1836
4487,1840
4488,1849
4489,1876
4490,1899
4491,1889
4492,1877
4493,1906
4494,1922
4495,1902
4496,1897
4497,1869
4498,1840
4499,1827
4500,1821
4501,1806
4502,1827
4503,1851
4504,1850
4505,1867
4506,1891
4507,1879
4508,1875
4509,1890
4510,1895
4511,1906
4512,1906
4513,1871
4514,1847
4515,1854
4516,1806
4517,1808
4518,1812
4519,1822
4520,1823
4521,1831
4522,1870
4523,1887
4524,1895
4525,1867
4526,1903
4527,1905
4528,1915
4529,1907
4530,1856
4531,1852
4532,1838
4533,1819
4534,1791
4535,1811
4536,1817
4537,1842
4538,1890
4539,1885
4540,1904
4541,1898
4542,1890
4543,1906
4544,1919
4545,1898
4546,1883
4547,1865
4548,1856
4549,1840
4550,1809
4551,1807
4552,1826
4553,1814
4554,1859
4555,1875
4556,1886
4557,1889
4558,1893
4559,1887
4560,1897
4561,1903
4562,1907
4563,1872
4564,1858
4565,1851
4566,1833
4567,1793
4568,1813
4569,1823
4570,1834
4571,1855
4572,1873
4573,1891
4574,1890
4575,1910
4576,1904
4577,1908
4578,1908
4579,1907
4580,1872
4581,1847
4582,1847
4583,1811
4584,1790
4585,1826
4586,1810
4587,1844
4588,1867
4589,1886
4590,1905
4591,1882
4592,1871
4593,1909
4594,1903
4595,1905
4596,1888
4597,1859
4598,1840
4599,1832
4600,1811
4601,1807
4602,1822
4603,1840
4604,1830
4605,1872
4606,1891
4607,1892
4608,1911
4609,1899
4610,1903
4611,1904
4612,1907
4613,1889
4614,1866
4615,1830
4616,1820
4617,1787
4618,1806
4619,1813
4620,1825
4621,1841
4622,1874
4623,1895
4624,1904
4625,1873
4626,1904
4627,1907
4628,1922
4629,1887
4630,1875
4631,1846
4632,1855
4633,1821
4634,1798
4635,1825
4636,1833
4637,1838
4638,1859
4639,1871
4640,1895
4641,1901
4642,1898
4643,1911
4644,1897
4645,1902
4646,1885
4647,1865
4648,1834
4649,1833
4650,1797
4651,1803
4652,1824
4653,1820
4654,1841
4655,1884
4656,1884
4657,1887
4658,1891
4659,1908
4660,1915
4661,1914
4662,1909
4663,1893
4664,1850
4665,1833
4666,1819
4667,1800
4668,1808
4669,1831
4670,1830
4671,1860
4672,1872
4673,1879
4674,1888
4675,1898
4676,1898
4677,1904
4678,1884
4679,1905
4680,1859
4681,1854
4682,1835
4683,1834
4684,1799
4685,1835
4686,1821
4687,1838
4688,1875
4689,1883
4690,1894
4691,1889
4692,1898
4693,1911
4694,1899
4695,1907
4696,1891
4697,1872
4698,1841
4699,1818
4700,1808
4701,1808
4702,1823
4703,1830
4704,1852
4705,1857
4706,1879
4707,1887
4708,1905
4709,1904
4710,1897
4711,1913
4712,1911
4713,1901
4714,1870
4715,1835
4716,1808
4717,1777
4718,1808
4719,1840
4720,1839
4721,1846
4722,1882
4723,1904
4724,1898
4725,1912
4726,1905
4727,1904
4728,1903
4729,1904
4730,1862
4731,1856
4732,1838
4733,1807
4734,1802
4735,1809
4736,1815
4737,1823
4738,1853
4739,1878
4740,1899
4741,1873
4742,1885
4743,1915
4744,1915
4745,1911
4746,1899
4747,1870
4748,1840
4749,1814
4750,1801
4751,1806
4752,1823
4753,1847
4754,1840
4755,1865
4756,1889
4757,1883
4758,1885
4759,1901
4760,1920
4761,1902
4762,1904
4763,1869
4764,1869
4765,1840
4766,1813
4767,1787
4768,1808
4769,1813
4770,1824
4771,1852
4772,1874
4773,1882
4774,1891
4775,1876
4776,1901
4777,1905
4778,1894
4779,1910
4780,1857
4781,1846
4782,1839
4783,1809
4784,1799
4785,1808
4786,1815
4787,1837
4788,1856
4789,1888
4790,1878
4791,1904
4792,1891
4793,1904
4794,1917
4795,1891
4796,1905
4797,1869
4798,1840
4799,1838
4800,1837
4801,1808
4802,1822
4803,1850
4804,1826
4805,1860
4806,1891
4807,1883
4808,1893
4809,1889
4810,1901
4811,1906
4812,1903
4813,1893
4814,1850
4815,1841
4816,1810
4817,1797
4818,1811
4819,1831
4820,1827
4821,1841
4822,1868
4823,1876
4824,1879
4825,1903
4826,1893
4827,1896
4828,1910
4829,1899
4830,1856
4831,1843
4832,1850
4833,1845
4834,1808
4835,1815
4836,1841
4837,1825
4838,1858
4839,1875
4840,1877
4841,1879
4842,1871
4843,1902
4844,1899
4845,1898
4846,1910
4847,1856
4848,1840
4849,1843
4850,1840
4851,1815
4852,1825
4853,1821
4854,1845
4855,1869
4856,1867
4857,1877
4858,1882
4859,1085
4860,1808
4861,2014
4862,2306
4863,2304
4864,2215
4865,2155
4866,1906
4867,1505
4868,1535
4869,1601
4870,1520
4871,1565
4872,1651
4873,1823
4874,1971
4875,2108
4876,2174
4877,2158
4878,2112
4879,2025
4880,1919
4881,1840
4882,1765
4883,1712
4884,1697
4885,1698
4886,1730
4887,1773
4888,1807
4889,1846
4890,1666
4891,1669
4892,1936
4893,2336
4894,2380
4895,2293
4896,2221
4897,1811
4898,1357
4899,1418
4900,1413
4901,1494
4902,1602
4903,1744
4904,1943
4905,2140
4906,2192
4907,2160
4908,2097
4909,2015
4910,1936
4911,1875
4912,1819
4913,1785
4914,1744
4915,1726
4916,1743
4917,1749
4918,1778
4919,1798
4920,1818
4921,2221
4922,1622
4923,1901
4924,2302
4925,2417
4926,2366
4927,2213
4928,1773
4929,1445
4930,1451
4931,1506
4932,1557
4933,1619
4934,1782
4935,1995
4936,2103
4937,2083
4938,2047
4939,2037
4940,1961
4941,1873
4942,1837
4943,1811
4944,1802
4945,1793
4946,1804
4947,1778
4948,1810
4949,1803
4950,1790
4951,1811
4952,2537
4953,1529
4954,1810
4955,2203
4956,2416
4957,2352
4958,2068
4959,1600
4960,1609
4961,1648
4962,1595
4963,1494
4964,1619
4965,1882
4966,2081
4967,2096
4968,2098
4969,2053
4970,1989
4971,1909
4972,1847
4973,1813
4974,1803
4975,1765
4976,1803
4977,1826
4978,1840
4979,1887
4980,1863
4981,1861
4982,1837
4983,2327
4984,1485
4985,1755
4986,2133
4987,2417
4988,2367
4989,2006
4990,1765
4991,1938
4992,1792
4993,1324
4994,1238
4995,1583
4996,1926
4997,2037
4998,2067
4999,2042
5000,1984
5001,1911
5002,1841
5003,1771
5004,1775
5005,1759
5006,1776
5007,1778
5008,1865
5009,1872
5010,1904
5011,1894
5012,1917
5013,1895
5014,1904
5015,1463
5016,1769
5017,2091
5018,2548
5019,2499
5020,2026
5021,1917
5022,2101
5023,1474
5024,961
5025,1040
5026,1526
5027,1933
5028,2083
5029,2128
5030,2085
5031,2023
5032,1961
5033,1840
5034,1764
5035,1732
5036,1726
5037,1737
5038,1788
5039,1847
5040,1873
5041,1894
5042,1901
5043,1919
5044,1930
5045,1917
5046,1484
5047,1844
5048,2092
5049,2485
5050,2432
5051,1936
5052,2158
5053,2271
5054,1364
5055,919
5056,1087
5057,1648
5058,1986
5059,2063
5060,2090
5061,2089
5062,2064
5063,1968
5064,1871
5065,1776
5066,1701
5067,1703
5068,1730
5069,1755
5070,1789
5071,1821
5072,1856
5073,1887
5074,1895
5075,1927
5076,1919
5077,1410
5078,1856
5079,1991
5080,2334
5081,2320
5082,1968
5083,2527
5084,2252
5085,1222
5086,827
5087,1115
5088,1648
5089,1945
5090,2032
5091,2089
5092,2113
5093,2085
5094,1983
5095,1904
5096,1802
5097,1727
5098,1726
5099,1761
5100,1750
5101,1764
5102,1792
5103,1811
5104,1841
5105,1872
5106,1905
5107,1905
5108,1374
5109,1850
5110,1877
5111,2219
5112,2251
5113,1946
5114,2843
5115,2401
5116,1199
5117,816
5118,1172
5119,1666
5120,1888
5121,2011
5122,2063
5123,2071
5124,1995
5125,1904
5126,1851
5127,1821
5128,1793
5129,1798
5130,1754
5131,1773
5132,1763
5133,1767
5134,1783
5135,1810
5136,1818
5137,1839
5138,1873
5139,1371
5140,1873
5141,1823
5142,2137
5143,2197
5144,2063
5145,3150
5146,2411
5147,1078
5148,803
5149,1179
5150,1696
5151,1886
5152,1969
5153,2009
5154,2068
5155,2015
5156,1936
5157,1831
5158,1789
5159,1777
5160,1779
5161,1817
5162,1838
5163,1842
5164,1856
5165,1831
5166,1827
5167,1791
5168,1808
5169,1831
5170,1379
5171,1789
5172,1767
5173,2043
5174,2127
5175,2061
5176,3440
5177,2400
5178,1086
5179,883
5180,1285
5181,1749
5182,1947
5183,1984
5184,1993
5185,2003
5186,1967
5187,1867
5188,1808
5189,1742
5190,1712
5191,1701
5192,1854
5193,1894
5194,1887
5195,1869
5196,1867
5197,1846
5198,1840
5199,1840
5200,1841
5201,1488
5202,1745
5203,1707
5204,1947
5205,2101
5206,2079
5207,3664
5208,2465
5209,1043
5210,848
5211,1280
5212,1786
5213,1951
5214,2010
5215,2039
5216,2035
5217,1906
5218,1795
5219,1762
5220,1770
5221,1758
5222,1776
5223,1794
5224,1814
5225,1840
5226,1859
5227,1883
5228,1904
5229,1902
5230,1861
5231,1872
5232,2097
5233,1683
5234,1669
5235,1810
5236,1952
5237,1917
5238,3611
5239,2669
5240,1147
5241,897
5242,1237
5243,1779
5244,1995
5245,2091
5246,2111
5247,2076
5248,1982
5249,1871
5250,1776
5251,1691
5252,1665
5253,1680
5254,1744
5255,1804
5256,1862
5257,1886
5258,1904
5259,1873
5260,1903
5261,1904
5262,1901
5263,2286
5264,1678
5265,1744
5266,1808
5267,1935
5268,1878
5269,3513
5270,2704
5271,1136
5272,886
5273,1197
5274,1719
5275,1960
5276,2032
5277,2096
5278,2114
5279,2064
5280,1933
5281,1839
5282,1747
5283,1669
5284,1663
5285,1744
5286,1766
5287,1776
5288,1840
5289,1861
5290,1889
5291,1899
5292,1902
5293,1929
5294,2096
5295,1648
5296,1805
5297,1828
5298,2016
5299,1937
5300,3539
5301,2718
5302,1040
5303,775
5304,1086
5305,1635
5306,1927
5307,2004
5308,2077
5309,2118
5310,2086
5311,1984
5312,1897
5313,1840
5314,1774
5315,1715
5316,1718
5317,1719
5318,1745
5319,1776
5320,1774
5321,1813
5322,1873
5323,1895
5324,1915
5325,1904
5326,1610
5327,1840
5328,1835
5329,2035
5330,1920
5331,3386
5332,2917
5333,1189
5334,803
5335,1065
5336,1577
5337,1855
5338,2000
5339,2064
5340,2114
5341,2081
5342,1968
5343,1902
5344,1840
5345,1758
5346,1746
5347,1734
5348,1755
5349,1776
5350,1756
5351,1791
5352,1826
5353,1851
5354,1872
5355,1873
5356,1910
5357,1557
5358,1833
5359,1792
5360,2016
5361,1907
5362,3191
5363,3091
5364,1334
5365,891
5366,1039
5367,1495
5368,1827
5369,1958
5370,2064
5371,2078
5372,2041
5373,1962
5374,1886
5375,1817
5376,1777
5377,1792
5378,1808
5379,1842
5380,1831
5381,1809
5382,1805
5383,1818
5384,1802
5385,1823
5386,1848
5387,1847
5388,1425
5389,1842
5390,1755
5391,1963
5392,1913
5393,3026
5394,3380
5395,1430
5396,944
5397,1015
5398,1495
5399,1856
5400,1930
5401,1970
5402,2034
5403,2032
5404,1957
5405,1892
5406,1824
5407,1781
5408,1756
5409,1758
5410,1803
5411,1826
5412,1858
5413,1871
5414,1855
5415,1840
5416,1826
5417,1824
5418,1820
5419,1377
5420,1765
5421,1685
5422,1968
5423,1914
5424,2800
5425,3661
5426,1554
5427,970
5428,1047
5429,1491
5430,1821
5431,1954
5432,1993
5433,2034
5434,2023
5435,1981
5436,1905
5437,1818
5438,1772
5439,1760
5440,1767
5441,1767
5442,1781
5443,1813
5444,1845
5445,1872
5446,1899
5447,1860
5448,1855
5449,1851
5450,1430
5451,1791
5452,1694
5453,1871
5454,1795
5455,2433
5456,3671
5457,1797
5458,1013
5459,1037
5460,1455
5461,1863
5462,2013
5463,2047
5464,2070
5465,2059
5466,1936
5467,1806
5468,1760
5469,1722
5470,1712
5471,1755
5472,1809
5473,1855
5474,1886
5475,1867
5476,1887
5477,1905
5478,1905
5479,1920
5480,1869
5481,1847
5482,1830
5483,1798
5484,1820
5485,1822
5486,1821
5487,1833
5488,1865
5489,1906
5490,1904
5491,1917
5492,1919
5493,1917
5494,1918
5495,1936
5496,1894
5497,1862
5498,1867
5499,1838
5500,1789
5501,1776
5502,1804
5503,1810
5504,1836
5505,1867
5506,1875
5507,1903
5508,1878
5509,1871
5510,1891
5511,1882
5512,1902
5513,1870
5514,1872
5515,1842
5516,1816
5517,1787
5518,1781
5519,1795
5520,1814
5521,1843
5522,1867
5523,1894
5524,1897
5525,1908
5526,1919
5527,1920
5528,1894
5529,1901
5530,1854
5531,1829
5532,1821
5533,1812
5534,1813
5535,1829
5536,1838
5537,1826
5538,1809
5539,1837
5540,1866
5541,1872
5542,1884
5543,1891
5544,1894
5545,1904
5546,1874
5547,1862
5548,1847
5549,1837
5550,1808
5551,1795
5552,1821
5553,1832
5554,1829
5555,1864
5556,1885
5557,1878
5558,1878
5559,1890
5560,1907
5561,1911
5562,1909
5563,1878
5564,1847
5565,1827
5566,1810
5567,1775
5568,1791
5569,1814
5570,1867
5571,1849
5572,1879
5573,1883
5574,1887
5575,1887
5576,1886
5577,1895
5578,1893
5579,1900
5580,1853
5581,1861
5582,1835
5583,1808
5584,1790
5585,1805
5586,1808
5587,1835
5588,1863
5589,1883
5590,1886
5591,1894
5592,1904
5593,1904
5594,1903
5595,1915
5596,1907
5597,1855
5598,1837
5599,1819
5600,1815
5601,1793
5602,1817
5603,1815
5604,1861
5605,1863
5606,1892
5607,1887
5608,1890
5609,1882
5610,1898
5611,1909
5612,1902
5613,1872
5614,1855
5615,1824
5616,1807
5617,1808
5618,1797
5619,1818
5620,1809
5621,1840
5622,1851
5623,1874
5624,1876
5625,1893
5626,1889
5627,1893
5628,1895
5629,1867
5630,1793
5631,1778
5632,1783
5633,1793
5634,1762
5635,1797
5636,1812
5637,1818
5638,1831
5639,1866
5640,1873
5641,1901
5642,1859
5643,1856
5644,1872
5645,1865
5646,1885
5647,1842
5648,1853
5649,1840
5650,1807
5651,1785
5652,1821
5653,1822
5654,1834
5655,1855
5656,1874
5657,1886
5658,1899
5659,1895
5660,1904
5661,1911
5662,1893
5663,1888
5664,1857
5665,1834
5666,1824
5667,1793
5668,1799
5669,1819
5670,1835
5671,1861
5672,1882
5673,1891
5674,1894
5675,1882
5676,1905
5677,1914
5678,1924
5679,1904
5680,1882
5681,1861
5682,1834
5683,1810
5684,1788
5685,1811
5686,1838
5687,1840
5688,1846
5689,1888
5690,1890
5691,1875
5692,1904
5693,1919
5694,1918
5695,1920
5696,1904
5697,1869
5698,1847
5699,1851
5700,1799
5701,1810
5702,1822
5703,1837
5704,1847
5705,1866
5706,1886
5707,1883
5708,1904
5709,1915
5710,1906
5711,1919
5712,1904
5713,1889
5714,1867
5715,1849
5716,1855
5717,1797
5718,1809
5719,1825
5720,1840
5721,1830
5722,1862
5723,1893
5724,1890
5725,1901
5726,1887
5727,1903
5728,1911
5729,1885
5730,1868
5731,1849
5732,1841
5733,1811
5734,1779
5735,1825
5736,1840
5737,1831
5738,1872
5739,1885
5740,1904
5741,1895
5742,1901
5743,1914
5744,1914
5745,1918
5746,1907
5747,1872
5748,1849
5749,1822
5750,1806
5751,1797
5752,1826
5753,1850
5754,1846
5755,1860
5756,1878
5757,1886
5758,1895
5759,1904
5760,1918
5761,1926
5762,1907
5763,1877
5764,1858
5765,1856
5766,1831
5767,1798
5768,1814
5769,1827
5770,1840
5771,1866
5772,1887
5773,1885
5774,1884
5775,1885
5776,1892
5777,1910
5778,1911
5779,1906
5780,1882
5781,1849
5782,1834
5783,1808
5784,1794
5785,1807
5786,1831
5787,1834
5788,1858
5789,1882
5790,1906
5791,1870
5792,1896
5793,1911
5794,1911
5795,1914
5796,1902
5797,1860
5798,1845
5799,1822
5800,1807
5801,1803
5802,1823
5803,1833
5804,1843
5805,1866
5806,1886
5807,1889
5808,1890
5809,1901
5810,1910
5811,1920
5812,1906
5813,1875
5814,1862
5815,1836
5816,1836
5817,1808
5818,1807
5819,1817
5820,1826
5821,1836
5822,1877
5823,1893
5824,1901
5825,1892
5826,1903
5827,1914
5828,1920
5829,1906
5830,1891
5831,1860
5832,1847
5833,1807
5834,1794
5835,1813
5836,1825
5837,1833
5838,1850
5839,1875
5840,1902
5841,1914
5842,1904
5843,1904
5844,1909
5845,1907
5846,1906
5847,1855
5848,1841
5849,1830
5850,1782
5851,1795
5852,1831
5853,1840
5854,1848
5855,1878
5856,1907
5857,1909
5858,1905
5859,1904
5860,1909
5861,1904
5862,1909
5863,1885
5864,1866
5865,1840
5866,1835
5867,1781
5868,1811
5869,1825
5870,1845
5871,1840
5872,1878
5873,1894
5874,1903
5875,1902
5876,1911
5877,1904
5878,1905
5879,1908
5880,1870
5881,1848
5882,1840
5883,1808
5884,1770
5885,1815
5886,1826
5887,1842
5888,1872
5889,1895
5890,1889
5891,1889
5892,1891
5893,1907
5894,1909
5895,1904
5896,1891
5897,1861
5898,1840
5899,1831
5900,1803
5901,1805
5902,1815
5903,1835
5904,1845
5905,1846
5906,1877
5907,1875
5908,1899
5909,1884
5910,1917
5911,1909
5912,1904
5913,1910
5914,1857
5915,1845
5916,1809
5917,1807
5918,1808
5919,1827
5920,1835
5921,1856
5922,1872
5923,1894
5924,1899
5925,1885
5926,1909
5927,1904
5928,1919
5929,1901
5930,1872
5931,1856
5932,1839
5933,1811
5934,1808
5935,1807
5936,1838
5937,1839
5938,1856
5939,1888
5940,1887
5941,1879
5942,1907
5943,1903
5944,1913
5945,1897
5946,1915
5947,1867
5948,1840
5949,1843
5950,1805
5951,1803
5952,1840
5953,1840
5954,1861
5955,1883
5956,1900
5957,1899
5958,1874
5959,1899
5960,1921
5961,1911
5962,1907
5963,1893
5964,1857
5965,1840
5966,1834
5967,1804
5968,1806
5969,1834
5970,1839
5971,1854
5972,1870
5973,1905
5974,1904
5975,1895
5976,1905
5977,1917
5978,1901
5979,1900
5980,1859
5981,1847
5982,1846
5983,1809
5984,1809
5985,1813
5986,1834
5987,1833
5988,1860
5989,1882
5990,1885
5991,1891
5992,1888
5993,1905
5994,1910
5995,1919
5996,1909
5997,1859
5998,1843
5999,1834
6000,1793
6001,1807
6002,1826
6003,1831
6004,1840
6005,1863
6006,1891
6007,1883
6008,1902
6009,1916
6010,1907
6011,1909
6012,1905
6013,1879
6014,1851
6015,1844
6016,1825
6017,1808
6018,1813
6019,1829
6020,1834
6021,1830
6022,1869
6023,1873
6024,1885
6025,1904
6026,1893
6027,1909
6028,1893
6029,1891
6030,1869
6031,1850
6032,1846
6033,1823
6034,1803
6035,1818
6036,1826
6037,1839
6038,1851
6039,1872
6040,1891
6041,1888
6042,1867
6043,1904
6044,1909
6045,1901
6046,1898
6047,1856
6048,1838
6049,1839
6050,1791
6051,1803
6052,1809
6053,1831
6054,1844
6055,1867
6056,1881
6057,1893
6058,1885
6059,1887
6060,1917
6061,1915
6062,1904
6063,1885
6064,1861
6065,1840
6066,1818
6067,1780
6068,1818
6069,1840
6070,1837
6071,1840
6072,1878
6073,1888
6074,1886
6075,1923
6076,1888
6077,1901
6078,1883
6079,1901
6080,1879
6081,1881
6082,1851
6083,1852
6084,1831
6085,1846
6086,1842
6087,1833
6088,1839
6089,1851
6090,1843
6091,1862
6092,1889
6093,1927
6094,1941
6095,1946
6096,1930
6097,1851
6098,1818
6099,1782
6100,1775
6101,1774
6102,1808
6103,1834
6104,1843
6105,1872
6106,1904
6107,1867
6108,1873
6109,1898
6110,1923
6111,1903
6112,1888
6113,1867
6114,1861
6115,1841
6116,1821
6117,1811
6118,1798
6119,1830
6120,1851
6121,1843
6122,1861
6123,1893
6124,1886
6125,1899
6126,1907
6127,1930
6128,1898
6129,1901
6130,1856
6131,1867
6132,1835
6133,1841
6134,1808
6135,1817
6136,1834
6137,1833
6138,1855
6139,1875
6140,1888
6141,1891
6142,1870
6143,1910
6144,1911
6145,1919
6146,1894
6147,1861
6148,1846
6149,1826
6150,1803
6151,1786
6152,1818
6153,1826
6154,1840
6155,1852
6156,1878
6157,1890
6158,1898
6159,1904
6160,1904
6161,1909
6162,1905
6163,1904
6164,1872
6165,1837
6166,1839
6167,1805
6168,1807
6169,1830
6170,1840
6171,1849
6172,1872
6173,1885
6174,1883
6175,1871
6176,1893
6177,1908
6178,1909
6179,1907
6180,1870
6181,1871
6182,1829
6183,1817
6184,1791
6185,1818
6186,1829
6187,1831
6188,1856
6189,1887
6190,1889
6191,1884
6192,1902
6193,1893
6194,1903
6195,1915
6196,1913
6197,1877
6198,1846
6199,1826
6200,1797
6201,1796
6202,1831
6203,1823
6204,1838
6205,1851
6206,1894
6207,1889
6208,1897
6209,1904
6210,1905
6211,1899
6212,1900
6213,1904
6214,1856
6215,1856
6216,1833
6217,1777
6218,1808
6219,1824
6220,1838
6221,1851
6222,1872
6223,1906
6224,1885
6225,1898
6226,1897
6227,1909
6228,1905
6229,1905
6230,1888
6231,1861
6232,1840
6233,1808
6234,1805
6235,1807
6236,1811
6237,1839
6238,1869
6239,1872
6240,1895
6241,1897
6242,1883
6243,1904
6244,1909
6245,1923
6246,1916
6247,1868
6248,1849
6249,1837
6250,1803
6251,1795
6252,1815
6253,1828
6254,1835
6255,1861
6256,1880
6257,1907
6258,1904
6259,1884
6260,1905
6261,1918
6262,1897
6263,1899
6264,1862
6265,1841
6266,1840
6267,1808
6268,1808
6269,1835
6270,1851
6271,1841
6272,1847
6273,1878
6274,1877
6275,1873
6276,1904
6277,1915
6278,1920
6279,1909
6280,1886
6281,1866
6282,1829
6283,1817
6284,1795
6285,1813
6286,1838
6287,1834
6288,1843
6289,1886
6290,1899
6291,1897
6292,1911
6293,1907
6294,1913
6295,1903
6296,1895
6297,1861
6298,1843
6299,1851
6300,1823
6301,1807
6302,1835
6303,1840
6304,1842
6305,1841
6306,1883
6307,1894
6308,1904
6309,1916
6310,1927
6311,1927
6312,1936
6313,1910
6314,1872
6315,1841
6316,1806
6317,1775
6318,1765
6319,1808
6320,1822
6321,1837
6322,1871
6323,1883
6324,1872
6325,1886
6326,1893
6327,1901
6328,1910
6329,1901
6330,1873
6331,1854
6332,1854
6333,1824
6334,1804
6335,1813
6336,1823
6337,1838
6338,1834
6339,1879
6340,1904
6341,1896
6342,1913
6343,1904
6344,1910
6345,1904
6346,1917
6347,1872
6348,1867
6349,1839
6350,1839
6351,1795
6352,1809
6353,1837
6354,1839
6355,1842
6356,1877
6357,1895
6358,1877
6359,1890
6360,1915
6361,1924
6362,1905
6363,1895
6364,1869
6365,1835
6366,1827
6367,1814
6368,1809
6369,1823
6370,1834
6371,1846
6372,1883
6373,1901
6374,1881
6375,1896
6376,1890
6377,1905
6378,1911
6379,1907
6380,1873
6381,1860
6382,1837
6383,1819
6384,1805
6385,1807
6386,1810
6387,1830
6388,1844
6389,1874
6390,1893
6391,1904
6392,1895
6393,1907
6394,1911
6395,1918
6396,1910
6397,1873
6398,1849
6399,1846
6400,1808
6401,1802
6402,1808
6403,1846
6404,1847
6405,1859
6406,1885
6407,1902
6408,1899
6409,1883
6410,1909
6411,1909
6412,1904
6413,1902
6414,1861
6415,1838
6416,1835
6417,1777
6418,1790
6419,1818
6420,1839
6421,1858
6422,1877
6423,1901
6424,1901
6425,1904
6426,1900
6427,1907
6428,1904
6429,1911
6430,1898
6431,1857
6432,1827
6433,1827
6434,1770
6435,1797
6436,1828
6437,1840
6438,1841
6439,1879
6440,1903
6441,1905
6442,1907
6443,1897
6444,1905
6445,1911
6446,1907
6447,1862
6448,1840
6449,1834
6450,1808
6451,1790
6452,1811
6453,1839
6454,1841
6455,1871
6456,1875
6457,1899
6458,1904
6459,1898
6460,1910
6461,1907
6462,1919
6463,1893
6464,1859
6465,1855
6466,1843
6467,1825
6468,1798
6469,1808
6470,1823
6471,1851
6472,1865
6473,1883
6474,1901
6475,1887
6476,1209
6477,1840
6478,2002
6479,2361
6480,2372
6481,2246
6482,2128
6483,1872
6484,1426
6485,1398
6486,1466
6487,1439
6488,1535
6489,1646
6490,1803
6491,2006
6492,2147
6493,2222
6494,2207
6495,2137
6496,2101
6497,1951
6498,1872
6499,1773
6500,1728
6501,1723
6502,1712
6503,1710
6504,1731
6505,1793
6506,1840
6507,1486
6508,1745
6509,1985
6510,2421
6511,2450
6512,2381
6513,2223
6514,1840
6515,1296
6516,1315
6517,1245
6518,1334
6519,1520
6520,1721
6521,1959
6522,2119
6523,2154
6524,2143
6525,2103
6526,2027
6527,1949
6528,1882
6529,1841
6530,1822
6531,1767
6532,1769
6533,1767
6534,1756
6535,1791
6536,1808
6537,1840
6538,1942
6539,1690
6540,1926
6541,2432
6542,2559
6543,2433
6544,2238
6545,1694
6546,1348
6547,1337
6548,1317
6549,1405
6550,1585
6551,1798
6552,2017
6553,2122
6554,2110
6555,2074
6556,2062
6557,1992
6558,1904
6559,1840
6560,1840
6561,1811
6562,1788
6563,1830
6564,1813
6565,1810
6566,1815
6567,1817
6568,1808
6569,2309
6570,1621
6571,1813
6572,2240
6573,2511
6574,2385
6575,2096
6576,1519
6577,1635
6578,1679
6579,1535
6580,1435
6581,1598
6582,1853
6583,2032
6584,2030
6585,2027
6586,2013
6587,1990
6588,1927
6589,1870
6590,1840
6591,1810
6592,1794
6593,1808
6594,1841
6595,1856
6596,1885
6597,1859
6598,1856
6599,1846
6600,2015
6601,1535
6602,1776
6603,2073
6604,2415
6605,2429
6606,2006
6607,1648
6608,2000
6609,1901
6610,1371
6611,1212
6612,1475
6613,1904
6614,2043
6615,2066
6616,2057
6617,2000
6618,1934
6619,1873
6620,1802
6621,1776
6622,1759
6623,1786
6624,1831
6625,1851
6626,1862
6627,1895
6628,1925
6629,1922
6630,1904
6631,1871
6632,1488
6633,1792
6634,1984
6635,2393
6636,2414
6637,1861
6638,1856
6639,2295
6640,1680
6641,1083
6642,1088
6643,1595
6644,1958
6645,2047
6646,2091
6647,2064
6648,2022
6649,1936
6650,1829
6651,1759
6652,1738
6653,1712
6654,1743
6655,1769
6656,1840
6657,1872
6658,1872
6659,1881
6660,1905
6661,1919
6662,1895
6663,1535
6664,1843
6665,1936
6666,2269
6667,2288
6668,1806
6669,2205
6670,2401
6671,1475
6672,972
6673,1203
6674,1674
6675,1959
6676,2038
6677,2096
6678,2105
6679,2077
6680,1982
6681,1864
6682,1776
6683,1729
6684,1674
6685,1697
6686,1728
6687,1744
6688,1807
6689,1850
6690,1885
6691,1902
6692,1904
6693,1908
6694,1484
6695,1890
6696,1899
6697,2192
6698,2262
6699,1871
6700,2551
6701,2455
6702,1258
6703,830
6704,1148
6705,1678
6706,1950
6707,2038
6708,2126
6709,2083
6710,2064
6711,1963
6712,1870
6713,1803
6714,1728
6715,1713
6716,1714
6717,1728
6718,1734
6719,1769
6720,1795
6721,1829
6722,1875
6723,1904
6724,1900
6725,1466
6726,1878
6727,1825
6728,2112
6729,2213
6730,1931
6731,2928
6732,2475
6733,1136
6734,773
6735,1185
6736,1699
6737,1894
6738,2011
6739,2105
6740,2124
6741,2060
6742,1930
6743,1840
6744,1787
6745,1757
6746,1779
6747,1745
6748,1794
6749,1782
6750,1777
6751,1776
6752,1810
6753,1813
6754,1837
6755,1860
6756,1441
6757,1877
6758,1770
6759,2057
6760,2135
6761,2022
6762,3314
6763,2455
6764,1087
6765,814
6766,1257
6767,1715
6768,1897
6769,1982
6770,2032
6771,2061
6772,2003
6773,1919
6774,1840
6775,1783
6776,1771
6777,1811
6778,1872
6779,1872
6780,1843
6781,1803
6782,1792
6783,1783
6784,1747
6785,1785
6786,1823
6787,1487
6788,1808
6789,1744
6790,1959
6791,2015
6792,1932
6793,3305
6794,2543
6795,1255
6796,958
6797,1331
6798,1782
6799,1943
6800,1968
6801,2000
6802,2032
6803,1963
6804,1853
6805,1803
6806,1790
6807,1759
6808,1781
6809,1813
6810,1849
6811,1872
6812,1862
6813,1884
6814,1845
6815,1861
6816,1823
6817,1795
6818,1638
6819,1742
6820,1696
6821,1845
6822,1936
6823,1882
6824,3526
6825,2650
6826,1265
6827,959
6828,1324
6829,1804
6830,2001
6831,2031
6832,2068
6833,2045
6834,1930
6835,1799
6836,1744
6837,1739
6838,1712
6839,1742
6840,1792
6841,1823
6842,1856
6843,1867
6844,1891
6845,1904
6846,1893
6847,1872
6848,1856
6849,2139
6850,1667
6851,1626
6852,1770
6853,1852
6854,1814
6855,3521
6856,2704
6857,1258
6858,926
6859,1299
6860,1805
6861,2019
6862,2075
6863,2128
6864,2075
6865,1984
6866,1869
6867,1745
6868,1682
6869,1677
6870,1695
6871,1733
6872,1793
6873,1858
6874,1882
6875,1909
6876,1898
6877,1908
6878,1914
6879,1895
6880,2227
6881,1680
6882,1704
6883,1749
6884,1815
6885,1767
6886,3499
6887,2731
6888,1200
6889,934
6890,1271
6891,1761
6892,2023
6893,2091
6894,2127
6895,2123
6896,2003
6897,1878
6898,1792
6899,1716
6900,1678
6901,1645
6902,1727
6903,1783
6904,1794
6905,1831
6906,1873
6907,1886
6908,1897
6909,1901
6910,1905
6911,2007
6912,1674
6913,1808
6914,1772
6915,1833
6916,1722
6917,3241
6918,2757
6919,1308
6920,919
6921,1151
6922,1675
6923,1951
6924,2045
6925,2134
6926,2128
6927,2069
6928,1940
6929,1853
6930,1719
6931,1643
6932,1631
6933,1761
6934,1797
6935,1781
6936,1802
6937,1821
6938,1841
6939,1885
6940,1911
6941,1910
6942,1932
6943,1572
6944,1837
6945,1793
6946,1915
6947,1751
6948,3175
6949,2994
6950,1360
6951,893
6952,1095
6953,1599
6954,1904
6955,2016
6956,2103
6957,2135
6958,2029
6959,1940
6960,1890
6961,1815
6962,1762
6963,1758
6964,1744
6965,1734
6966,1743
6967,1739
6968,1781
6969,1847
6970,1860
6971,1873
6972,1897
6973,1936
6974,1579
6975,1854
6976,1763
6977,1940
6978,1818
6979,3277
6980,3173
6981,1317
6982,865
6983,1063
6984,1503
6985,1847
6986,1957
6987,2013
6988,2064
6989,2053
6990,1951
6991,1875
6992,1808
6993,1799
6994,1824
6995,1811
6996,1852
6997,1819
6998,1817
6999,1802
7000,1798
7001,1791
7002,1835
7003,1833
7004,1845
7005,1434
7006,1831
7007,1747
7008,1904
7009,1744
7010,3003
7011,3353
7012,1581
7013,1002
7014,1070
7015,1535
7016,1863
7017,1935
7018,1999
7019,2038
7020,2013
7021,1913
7022,1862
7023,1837
7024,1783
7025,1765
7026,1773
7027,1821
7028,1858
7029,1856
7030,1867
7031,1856
7032,1836
7033,1829
7034,1811
7035,1813
7036,1341
7037,1787
7038,1689
7039,1888
7040,1808
7041,2651
7042,3747
7043,1773
7044,1066
7045,1102
7046,1531
7047,1866
7048,1990
7049,2007
7050,2027
7051,1975
7052,1882
7053,1796
7054,1714
7055,1710
7056,1747
7057,1808
7058,1843
7059,1869
7060,1873
7061,1874
7062,1862
7063,1893
7064,1843
7065,1840
7066,1842
7067,1424
7068,1727
7069,1665
7070,1841
7071,1808
7072,2447
7073,3863
7074,1818
7075,1043
7076,1034
7077,1488
7078,1891
7079,1990
7080,2029
7081,2065
7082,2022
7083,1886
7084,1794
7085,1763
7086,1735
7087,1737
7088,1761
7089,1792
7090,1825
7091,1846
7092,1870
7093,1874
7094,1901
7095,1909
7096,1891
7097,1857
7098,1862
7099,1829
7100,1807
7101,1805
7102,1811
7103,1829
7104,1840
7105,1840
7106,1885
7107,1893
7108,1894
7109,1903
7110,1917
7111,1905
7112,1894
7113,1900
7114,1877
7115,1862
7116,1852
7117,1802
7118,1799
7119,1786
7120,1783
7121,1767
7122,1805
7123,1866
7124,1882
7125,1901
7126,1898
7127,1905
7128,1906
7129,1897
7130,1868
7131,1849
7132,1839
7133,1829
7134,1778
7135,1799
7136,1814
7137,1833
7138,1850
7139,1863
7140,1878
7141,1883
7142,1886
7143,1897
7144,1903
7145,1893
7146,1885
7147,1850
7148,1842
7149,1833
7150,1815
7151,1791
7152,1810
7153,1833
7154,1827
7155,1877
7156,1886
7157,1876
7158,1883
7159,1866
7160,1903
7161,1902
7162,1888
7163,1873
7164,1846
7165,1834
7166,1824
7167,1796
7168,1779
7169,1803
7170,1819
7171,1831
7172,1869
7173,1904
7174,1914
7175,1883
7176,1872
7177,1885
7178,1882
7179,1887
7180,1876
7181,1842
7182,1827
7183,1813
7184,1806
7185,1799
7186,1824
7187,1840
7188,1813
7189,1862
7190,1876
7191,1897
7192,1888
7193,1893
7194,1920
7195,1904
7196,1904
7197,1845
7198,1819
7199,1846
7200,1820
7201,1803
7202,1815
7203,1799
7204,1776
7205,1831
7206,1869
7207,1898
7208,1879
7209,1869
7210,1895
7211,1903
7212,1889
7213,1878
7214,1846
7215,1831
7216,1811
7217,1796
7218,1794
7219,1823
7220,1834
7221,1822
7222,1842
7223,1863
7224,1870
7225,1871
7226,1863
7227,1901
7228,1901
7229,1890
7230,1863
7231,1840
7232,1830
7233,1814
7234,1776
7235,1805
7236,1824
7237,1841
7238,1857
7239,1893
7240,1881
7241,1872
7242,1873
7243,1874
7244,1882
7245,1893
7246,1883
7247,1857
7248,1833
7249,1805
7250,1792
7251,1777
7252,1776
7253,1785
7254,1805
7255,1840
7256,1857
7257,1858
7258,1865
7259,1866
7260,1874
7261,1879
7262,1862
7263,1886
7264,1822
7265,1823
7266,1787
7267,1775
7268,1763
7269,1792
7270,1806
7271,1821
7272,1862
7273,1872
7274,1882
7275,1859
7276,1893
7277,1902
7278,1894
7279,1881
7280,1879
7281,1843
7282,1830
7283,1825
7284,1808
7285,1795
7286,1821
7287,1829
7288,1840
7289,1872
7290,1904
7291,1909
7292,1902
7293,1904
7294,1902
7295,1903
7296,1900
7297,1855
7298,1866
7299,1831
7300,1811
7301,1779
7302,1813
7303,1819
7304,1847
7305,1868
7306,1904
7307,1907
7308,1919
7309,1936
7310,1906
7311,1909
7312,1886
7313,1893
7314,1849
7315,1847
7316,1833
7317,1801
7318,1785
7319,1813
7320,1821
7321,1853
7322,1874
7323,1886
7324,1899
7325,1908
7326,1890
7327,1903
7328,1920
7329,1900
7330,1879
7331,1856
7332,1835
7333,1824
7334,1806
7335,1801
7336,1830
7337,1837
7338,1852
7339,1877
7340,1910
7341,1909
7342,1904
7343,1905
7344,1917
7345,1919
7346,1899
7347,1855
7348,1856
7349,1830
7350,1814
7351,1795
7352,1827
7353,1853
7354,1851
7355,1872
7356,1896
7357,1907
7358,1910
7359,1894
7360,1908
7361,1918
7362,1907
7363,1904
7364,1853
7365,1840
7366,1808
7367,1803
7368,1794
7369,1828
7370,1841
7371,1843
7372,1856
7373,1894
7374,1882
7375,1904
7376,1888
7377,1902
7378,1909
7379,1897
7380,1872
7381,1840
7382,1838
7383,1830
7384,1794
7385,1801
7386,1825
7387,1823
7388,1846
7389,1874
7390,1901
7391,1904
7392,1873
7393,1898
7394,1891
7395,1891
7396,1889
7397,1859
7398,1863
7399,1827
7400,1817
7401,1806
7402,1831
7403,1856
7404,1860
7405,1859
7406,1893
7407,1911
7408,1905
7409,1914
7410,1886
7411,1867
7412,1874
7413,1885
7414,1846
7415,1840
7416,1819
7417,1809
7418,1803
7419,1840
7420,1830
7421,1850
7422,1871
7423,1897
7424,1914
7425,1903
7426,1889
7427,1905
7428,1923
7429,1894
7430,1877
7431,1856
7432,1847
7433,1834
7434,1805
7435,1808
7436,1838
7437,1837
7438,1843
7439,1865
7440,1890
7441,1894
7442,1904
7443,1900
7444,1904
7445,1904
7446,1894
7447,1867
7448,1867
7449,1843
7450,1808
7451,1815
7452,1831
7453,1830
7454,1840
7455,1851
7456,1885
7457,1906
7458,1898
7459,1879
7460,1914
7461,1916
7462,1906
7463,1913
7464,1868
7465,1837
7466,1835
7467,1806
7468,1787
7469,1834
7470,1850
7471,1855
7472,1874
7473,1884
7474,1910
7475,1905
7476,1915
7477,1910
7478,1920
7479,1905
7480,1889
7481,1861
7482,1840
7483,1821
7484,1834
7485,1809
7486,1830
7487,1838
7488,1847
7489,1879
7490,1897
7491,1897
7492,1920
7493,1893
7494,1906
7495,1913
7496,1904
7497,1869
7498,1856
7499,1840
7500,1817
7501,1807
7502,1823
7503,1820
7504,1835
7505,1854
7506,1876
7507,1898
7508,1910
7509,1936
7510,1903
7511,1909
7512,1898
7513,1895
7514,1857
7515,1836
7516,1834
7517,1808
7518,1798
7519,1821
7520,1835
7521,1840
7522,1872
7523,1892
7524,1903
7525,1921
7526,1904
7527,1905
7528,1897
7529,1897
7530,1875
7531,1847
7532,1840
7533,1830
7534,1803
7535,1799
7536,1820
7537,1847
7538,1843
7539,1877
7540,1890
7541,1915
7542,1904
7543,1903
7544,1903
7545,1921
7546,1901
7547,1869
7548,1855
7549,1838
7550,1840
7551,1819
7552,1813
7553,1834
7554,1846
7555,1866
7556,1872
7557,1872
7558,1895
7559,1882
7560,1904
7561,1907
7562,1904
7563,1895
7564,1859
7565,1855
7566,1835
7567,1810
7568,1802
7569,1822
7570,1830
7571,1843
7572,1872
7573,1891
7574,1897
7575,1910
7576,1911
7577,1909
7578,1921
7579,1904
7580,1885
7581,1859
7582,1855
7583,1841
7584,1802
7585,1791
7586,1821
7587,1813
7588,1859
7589,1870
7590,1899
7591,1895
7592,1895
7593,1899
7594,1913
7595,1904
7596,1899
7597,1866
7598,1861
7599,1840
7600,1819
7601,1792
7602,1825
7603,1842
7604,1838
7605,1850
7606,1882
7607,1905
7608,1922
7609,1894
7610,1900
7611,1906
7612,1899
7613,1893
7614,1882
7615,1840
7616,1845
7617,1804
7618,1790
7619,1827
7620,1845
7621,1838
7622,1883
7623,1910
7624,1902
7625,1893
7626,1899
7627,1918
7628,1936
7629,1914
7630,1881
7631,1839
7632,1811
7633,1818
7634,1789
7635,1803
7636,1831
7637,1846
7638,1864
7639,1879
7640,1894
7641,1908
7642,1889
7643,1885
7644,1899
7645,1905
7646,1895
7647,1853
7648,1844
7649,1826
7650,1831
7651,1774
7652,1819
7653,1827
7654,1835
7655,1859
7656,1885
7657,1900
7658,1897
7659,1904
7660,1906
7661,1910
7662,1909
7663,1912
7664,1865
7665,1846
7666,1843
7667,1797
7668,1797
7669,1825
7670,1837
7671,1840
7672,1863
7673,1890
7674,1903
7675,1905
7676,1893
7677,1910
7678,1917
7679,1903
7680,1904
7681,1850
7682,1849
7683,1837
7684,1809
7685,1801
7686,1824
7687,1834
7688,1854
7689,1871
7690,1903
7691,1904
7692,1908
7693,1883
7694,1920
7695,1903
7696,1904
7697,1862
7698,1865
7699,1840
7700,1813
7701,1789
7702,1810
7703,1831
7704,1841
7705,1827
7706,1874
7707,1889
7708,1891
7709,1931
7710,1907
7711,1907
7712,1891
7713,1901
7714,1856
7715,1843
7716,1842
7717,1794
7718,1790
7719,1821
7720,1834
7721,1833
7722,1851
7723,1892
7724,1893
7725,1895
7726,1911
7727,1910
7728,1910
7729,1920
7730,1897
7731,1850
7732,1851
7733,1834
7734,1812
7735,1797
7736,1823
7737,1830
7738,1852
7739,1865
7740,1888
7741,1887
7742,1897
7743,1902
7744,1920
7745,1920
7746,1903
7747,1860
7748,1852
7749,1843
7750,1823
7751,1783
7752,1813
7753,1829
7754,1822
7755,1856
7756,1879
7757,1909
7758,1895
7759,1905
7760,1906
7761,1909
7762,1914
7763,1890
7764,1861
7765,1840
7766,1812
7767,1805
7768,1793
7769,1829
7770,1827
7771,1840
7772,1865
7773,1883
7774,1886
7775,1904
7776,1909
7777,1910
7778,1914
7779,1873
7780,1904
7781,1852
7782,1839
7783,1819
7784,1776
7785,1808
7786,1835
7787,1837
7788,1861
7789,1895
7790,1915
7791,1899
7792,1904
7793,1887
7794,1893
7795,1887
7796,1869
7797,1857
7798,1830
7799,1823
7800,1815
7801,1792
7802,1808
7803,1834
7804,1838
7805,1872
7806,1899
7807,1921
7808,1923
7809,1930
7810,1908
7811,1905
7812,1904
7813,1888
7814,1846
7815,1831
7816,1821
7817,1791
7818,1790
7819,1815
7820,1842
7821,1823
7822,1857
7823,1894
7824,1901
7825,1900
7826,1897
7827,1902
7828,1907
7829,1901
7830,1897
7831,1851
7832,1837
7833,1830
7834,1805
7835,1799
7836,1829
7837,1836
7838,1853
7839,1869
7840,1901
7841,1899
7842,1902
7843,1905
7844,1919
7845,1921
7846,1904
7847,1887
7848,1871
7849,1840
7850,1837
7851,1803
7852,1801
7853,1827
7854,1811
7855,1856
7856,1881
7857,1893
7858,1885
7859,1881
7860,1897
7861,1908
7862,1899
7863,1904
7864,1877
7865,1858
7866,1840
7867,1790
7868,1789
7869,1833
7870,1841
7871,1838
7872,1856
7873,1889
7874,1908
7875,1904
7876,1903
7877,1915
7878,1914
7879,1869
7880,1904
7881,1847
7882,1838
7883,1840
7884,1806
7885,1783
7886,1813
7887,1847
7888,1836
7889,1858
7890,1904
7891,1905
7892,1898
7893,1886
7894,1919
7895,1916
7896,1899
7897,1889
7898,1840
7899,1825
7900,1818
7901,1776
7902,1803
7903,1817
7904,1850
7905,1852
7906,1883
7907,1893
7908,1888
7909,1895
7910,1907
7911,1911
7912,1902
7913,1907
7914,1870
7915,1837
7916,1826
7917,1806
7918,1789
7919,1799
7920,1822
7921,1838
7922,1859
7923,1889
7924,1910
7925,1890
7926,1906
7927,1904
7928,1914
7929,1881
7930,1904
7931,1858
7932,1855
7933,1845
7934,1812
7935,1806
7936,1831
7937,1832
7938,1859
7939,1859
7940,1878
7941,1889
7942,1899
7943,1888
7944,1910
7945,1904
7946,1903
7947,1889
7948,1863
7949,1833
7950,1824
7951,1793
7952,1809
7953,1824
7954,1854
7955,1831
7956,1877
7957,1894
7958,1894
7959,1916
7960,1919
7961,1936
7962,1909
7963,1911
7964,1859
7965,1857
7966,1833
7967,1801
7968,1789
7969,1814
7970,1811
7971,1819
7972,1887
7973,1904
7974,1925
7975,1927
7976,1904
7977,1901
7978,1891
7979,1843
7980,1876
7981,1846
7982,1850
7983,1823
7984,1791
7985,1774
7986,1801
7987,1805
7988,1825
7989,1867
7990,1892
7991,1918
7992,1906
7993,1904
7994,1907
7995,1916
7996,1898
7997,1899
7998,1852
7999,1825
8000,1833
8001,1808
8002,1811
8003,1829
8004,1841
8005,1827
8006,1871
8007,1895
8008,1904
8009,1897
8010,1909
8011,1912
8012,1904
8013,1895
8014,1856
8015,1855
8016,1828
8017,1810
8018,1781
8019,1811
8020,1833
8021,1842
8022,1855
8023,1895
8024,1887
8025,1903
8026,1882
8027,1912
8028,1904
8029,1879
8030,1904
8031,1859
8032,1867
8033,1839
8034,1824
8035,1782
8036,1808
8037,1810
8038,1837
8039,1854
8040,1909
8041,1924
8042,1918
8043,1914
8044,1910
8045,1880
8046,1872
8047,1874
8048,1847
8049,1835
8050,1831
8051,1803
8052,1812
8053,1840
8054,1821
8055,1834
8056,1862
8057,1885
8058,1903
8059,1919
8060,1922
8061,1933
8062,1936
8063,1936
8064,1891
8065,1835
8066,1775
8067,1767
8068,1771
8069,1809
8070,1809
8071,1810
8072,1861
8073,1882
8074,1895
8075,1895
8076,1904
8077,1913
8078,1906
8079,1887
8080,1895
8081,1844
8082,1855
8083,1836
8084,1797
8085,1806
8086,1831
8087,1836
8088,1850
8089,1867
8090,1879
8091,1878
8092,1895
8093,1173
8094,1838
8095,2021
8096,2321
8097,2339
8098,2223
8099,2139
8100,1865
8101,1455
8102,1495
8103,1574
8104,1508
8105,1515
8106,1616
8107,1805
8108,1997
8109,2167
8110,2170
8111,2189
8112,2133
8113,2095
8114,1951
8115,1868
8116,1793
8117,1747
8118,1681
8119,1645
8120,1670
8121,1728
8122,1783
8123,1829
8124,1441
8125,1737
8126,1946
8127,2343
8128,2388
8129,2286
8130,2198
8131,1807
8132,1365
8133,1386
8134,1331
8135,1414
8136,1535
8137,1731
8138,1938
8139,2125
8140,2160
8141,2135
8142,2089
8143,2035
8144,1974
8145,1899
8146,1838
8147,1803
8148,1754
8149,1738
8150,1776
8151,1758
8152,1777
8153,1810
8154,1835
8155,2103
8156,1689
8157,1905
8158,2382
8159,2557
8160,2459
8161,2257
8162,1728
8163,1403
8164,1358
8165,1328
8166,1364
8167,1470
8168,1741
8169,1998
8170,2105
8171,2122
8172,2112
8173,2064
8174,2001
8175,1926
8176,1855
8177,1829
8178,1811
8179,1831
8180,1830
8181,1809
8182,1813
8183,1826
8184,1815
8185,1812
8186,2187
8187,1664
8188,1831
8189,2284
8190,2536
8191,2468
8192,2128
8193,1632
8194,1712
8195,1601
8196,1366
8197,1257
8198,1463
8199,1843
8200,2030
8201,2061
8202,2042
8203,2029
8204,2015
8205,1937
8206,1869
8207,1834
8208,1803
8209,1794
8210,1815
8211,1858
8212,1872
8213,1879
8214,1855
8215,1857
8216,1867
8217,2159
8218,1649
8219,1783
8220,2118
8221,2451
8222,2447
8223,1970
8224,1856
8225,2126
8226,1744
8227,1162
8228,1121
8229,1535
8230,1942
8231,2042
8232,2059
8233,2038
8234,1987
8235,1923
8236,1865
8237,1808
8238,1761
8239,1766
8240,1792
8241,1823
8242,1860
8243,1857
8244,1899
8245,1899
8246,1905
8247,1887
8248,1974
8249,1594
8250,1776
8251,2032
8252,2432
8253,2416
8254,1885
8255,2070
8256,2292
8257,1461
8258,941
8259,1104
8260,1626
8261,1983
8262,2082
8263,2086
8264,2085
8265,2037
8266,1939
8267,1856
8268,1786
8269,1756
8270,1719
8271,1734
8272,1762
8273,1787
8274,1850
8275,1868
8276,1877
8277,1904
8278,1911
8279,1916
8280,1637
8281,1835
8282,1971
8283,2323
8284,2311
8285,1900
8286,2462
8287,2273
8288,1201
8289,819
8290,1167
8291,1674
8292,1939
8293,2015
8294,2102
8295,2109
8296,2074
8297,1954
8298,1839
8299,1794
8300,1680
8301,1670
8302,1706
8303,1749
8304,1794
8305,1826
8306,1873
8307,1903
8308,1903
8309,1895
8310,1899
8311,1535
8312,1891
8313,1911
8314,2192
8315,2294
8316,1981
8317,2772
8318,2182
8319,1088
8320,810
8321,1136
8322,1669
8323,1953
8324,2063
8325,2113
8326,2102
8327,2043
8328,1937
8329,1858
8330,1808
8331,1727
8332,1735
8333,1714
8334,1718
8335,1727
8336,1777
8337,1792
8338,1829
8339,1872
8340,1901
8341,1903
8342,1455
8343,1838
8344,1844
8345,2138
8346,2193
8347,2026
8348,3006
8349,2256
8350,1116
8351,822
8352,1203
8353,1712
8354,1936
8355,2042
8356,2118
8357,2128
8358,2038
8359,1881
8360,1837
8361,1778
8362,1773
8363,1764
8364,1769
8365,1777
8366,1766
8367,1776
8368,1785
8369,1807
8370,1840
8371,1843
8372,1845
8373,1424
8374,1851
8375,1801
8376,2066
8377,2124
8378,2062
8379,3175
8380,2362
8381,1120
8382,883
8383,1267
8384,1723
8385,1901
8386,2020
8387,2092
8388,2047
8389,1984
8390,1899
8391,1827
8392,1776
8393,1730
8394,1787
8395,1865
8396,1858
8397,1858
8398,1827
8399,1829
8400,1831
8401,1803
8402,1808
8403,1840
8404,1428
8405,1789
8406,1779
8407,2001
8408,2032
8409,2012
8410,3482
8411,2334
8412,1155
8413,945
8414,1326
8415,1776
8416,1953
8417,2000
8418,2027
8419,1985
8420,1887
8421,1808
8422,1762
8423,1749
8424,1776
8425,1824
8426,1837
8427,1858
8428,1861
8429,1871
8430,1887
8431,1839
8432,1825
8433,1829
8434,1814
8435,1750
8436,1724
8437,1745
8438,1934
8439,2013
8440,2033
8441,3670
8442,2366
8443,1107
8444,957
8445,1333
8446,1792
8447,1987
8448,2042
8449,2091
8450,1975
8451,1854
8452,1762
8453,1719
8454,1717
8455,1725
8456,1776
8457,1846
8458,1856
8459,1847
8460,1890
8461,1907
8462,1907
8463,1904
8464,1877
8465,1876
8466,2216
8467,1647
8468,1649
8469,1835
8470,1941
8471,1968
8472,3654
8473,2466
8474,1107
8475,944
8476,1307
8477,1792
8478,2034
8479,2139
8480,2139
8481,2019
8482,1885
8483,1775
8484,1680
8485,1642
8486,1679
8487,1727
8488,1774
8489,1844
8490,1887
8491,1894
8492,1906
8493,1901
8494,1910
8495,1918
8496,1908
8497,2384
8498,1655
8499,1745
8500,1872
8501,1920
8502,1927
8503,3729
8504,2352
8505,1055
8506,960
8507,1325
8508,1803
8509,2046
8510,2121
8511,2133
8512,2033
8513,1904
8514,1799
8515,1694
8516,1671
8517,1675
8518,1698
8519,1759
8520,1805
8521,1808
8522,1838
8523,1892
8524,1918
8525,1915
8526,1895
8527,1915
8528,2077
8529,1618
8530,1819
8531,1851
8532,1971
8533,1883
8534,3459
8535,2529
8536,1071
8537,911
8538,1222
8539,1716
8540,2013
8541,2133
8542,2133
8543,2027
8544,1919
8545,1850
8546,1764
8547,1717
8548,1690
8549,1690
8550,1713
8551,1835
8552,1806
8553,1821
8554,1841
8555,1868
8556,1886
8557,1919
8558,1950
8559,1943
8560,1618
8561,1840
8562,1899
8563,2005
8564,1927
8565,3579
8566,2623
8567,1059
8568,839
8569,1148
8570,1639
8571,1940
8572,2062
8573,2113
8574,2047
8575,1913
8576,1836
8577,1772
8578,1761
8579,1799
8580,1835
8581,1804
8582,1806
8583,1807
8584,1797
8585,1818
8586,1849
8587,1870
8588,1893
8589,1909
8590,1950
8591,1507
8592,1840
8593,1840
8594,2000
8595,1899
8596,3430
8597,2864
8598,1152
8599,903
8600,1122
8601,1584
8602,1877
8603,2013
8604,2058
8605,1951
8606,1895
8607,1840
8608,1773
8609,1746
8610,1763
8611,1808
8612,1869
8613,1895
8614,1850
8615,1852
8616,1842
8617,1797
8618,1799
8619,1824
8620,1830
8621,1855
8622,1379
8623,1837
8624,1830
8625,2041
8626,1927
8627,3083
8628,3204
8629,1390
8630,991
8631,1104
8632,1563
8633,1883
8634,1968
8635,2002
8636,1965
8637,1857
8638,1792
8639,1766
8640,1754
8641,1773
8642,1802
8643,1823
8644,1862
8645,1883
8646,1889
8647,1904
8648,1862
8649,1840
8650,1818
8651,1827
8652,1814
8653,1341
8654,1776
8655,1759
8656,1989
8657,1933
8658,2896
8659,3410
8660,1430
8661,987
8662,1147
8663,1535
8664,1889
8665,2018
8666,2032
8667,1986
8668,1833
8669,1782
8670,1734
8671,1709
8672,1731
8673,1802
8674,1887
8675,1927
8676,1921
8677,1887
8678,1877
8679,1866
8680,1870
8681,1825
8682,1828
8683,1834
8684,1418
8685,1734
8686,1694
8687,1920
8688,1871
8689,2637
8690,3667
8691,1575
8692,1004
8693,1088
8694,1554
8695,1911
8696,2043
8697,2089
8698,2000
8699,1873
8700,1783
8701,1710
8702,1666
8703,1699
8704,1769
8705,1821
8706,1839
8707,1855
8708,1890
8709,1888
8710,1894
8711,1899
8712,1920
8713,1895
8714,1872
8715,1855
8716,1835
8717,1814
8718,1777
8719,1821
8720,1835
8721,1847
8722,1847
8723,1885
8724,1903
8725,1911
8726,1900
8727,1902
8728,1904
8729,1909
8730,1893
8731,1858
8732,1834
8733,1819
8734,1796
8735,1776
8736,1813
8737,1821
8738,1839
8739,1858
8740,1904
8741,1917
8742,1902
8743,1893
8744,1895
8745,1898
8746,1879
8747,1872
8748,1851
8749,1827
8750,1785
8751,1776
8752,1785
8753,1814
8754,1846
8755,1827
8756,1886
8757,1906
8758,1892
8759,1884
8760,1882
8761,1893
8762,1909
8763,1891
8764,1854
8765,1845
8766,1835
8767,1806
8768,1791
8769,1789
8770,1817
8771,1831
8772,1872
8773,1897
8774,1910
8775,1911
8776,1878
8777,1875
8778,1879
8779,1873
8780,1882
8781,1836
8782,1815
8783,1809
8784,1771
8785,1773
8786,1808
8787,1808
8788,1831
8789,1890
8790,1922
8791,1927
8792,1923
8793,1874
8794,1874
8795,1915
8796,1901
8797,1872
8798,1834
8799,1844
8800,1786
8801,1787
8802,1811
8803,1776
8804,1767
8805,1808
8806,1835
8807,1904
8808,1937
8809,1904
8810,1878
8811,1926
8812,1889
8813,1870
8814,1853
8815,1872
8816,1905
8817,1809
8818,1744
8819,1785
8820,1814
8821,1838
8822,1870
8823,1883
8824,1884
8825,1860
8826,1872
8827,1880
8828,1890
8829,1903
8830,1871
8831,1826
8832,1834
8833,1821
8834,1808
8835,1776
8836,1838
8837,1835
8838,1840
8839,1844
8840,1872
8841,1893
8842,1879
8843,1878
8844,1889
8845,1887
8846,1887
8847,1883
8848,1837
8849,1823
8850,1795
8851,1759
8852,1788
8853,1817
8854,1820
8855,1847
8856,1875
8857,1910
8858,1904
8859,1907
8860,1899
8861,1916
8862,1906
8863,1874
8864,1871
8865,1833
8866,1828
8867,1804
8868,1792
8869,1789
8870,1824
8871,1818
8872,1842
8873,1887
8874,1908
8875,1895
8876,1871
8877,1894
8878,1904
8879,1892
8880,1889
8881,1840
8882,1833
8883,1823
8884,1807
8885,1772
8886,1815
8887,1825
8888,1838
8889,1859
8890,1889
8891,1907
8892,1903
8893,1904
8894,1913
8895,1906
8896,1925
8897,1871
8898,1839
8899,1829
8900,1802
8901,1779
8902,1789
8903,1823
8904,1819
8905,1839
8906,1856
8907,1894
8908,1897
8909,1911
8910,1901
8911,1904
8912,1907
8913,1882
8914,1841
8915,1837
8916,1801
8917,1761
8918,1783
8919,1807
8920,1835
8921,1818
8922,1869
8923,1898
8924,1905
8925,1898
8926,1904
8927,1893
8928,1893
8929,1886
8930,1878
8931,1840
8932,1830
8933,1809
8934,1788
8935,1774
8936,1825
8937,1831
8938,1850
8939,1872
8940,1885
8941,1894
8942,1903
8943,1890
8944,1905
8945,1909
8946,1914
8947,1892
8948,1832
8949,1823
8950,1808
8951,1779
8952,1786
8953,1829
8954,1844
8955,1856
8956,1888
8957,1910
8958,1904
8959,1891
8960,1875
8961,1915
8962,1907
8963,1897
8964,1860
8965,1830
8966,1827
8967,1813
8968,1770
8969,1783
8970,1824
8971,1818
8972,1837
8973,1858
8974,1887
8975,1913
8976,1918
8977,1886
8978,1898
8979,1883
8980,1886
8981,1851
8982,1839
8983,1817
8984,1788
8985,1771
8986,1829
8987,1842
8988,1852
8989,1877
8990,1904
8991,1902
8992,1911
8993,1883
8994,1910
8995,1905
8996,1915
8997,1899
8998,1840
8999,1841
9000,1810
9001,1793
9002,1798
9003,1826
9004,1823
9005,1860
9006,1869
9007,1899
9008,1905
9009,1910
9010,1889
9011,1907
9012,1913
9013,1889
9014,1855
9015,1840
9016,1830
9017,1781
9018,1779
9019,1799
9020,1821
9021,1840
9022,1835
9023,1873
9024,1885
9025,1882
9026,1902
9027,1887
9028,1904
9029,1881
9030,1889
9031,1843
9032,1831
9033,1840
9034,1791
9035,1789
9036,1815
9037,1842
9038,1827
9039,1863
9040,1889
9041,1902
9042,1905
9043,1874
9044,1910
9045,1908
9046,1872
9047,1901
9048,1842
9049,1837
9050,1829
9051,1814
9052,1823
9053,1863
9054,1859
9055,1875
9056,1875
9057,1922
9058,1909
9059,1887
9060,1863
9061,1854
9062,1850
9063,1872
9064,1891
9065,1874
9066,1872
9067,1851
9068,1763
9069,1760
9070,1793
9071,1804
9072,1853
9073,1869
9074,1902
9075,1904
9076,1910
9077,1899
9078,1912
9079,1909
9080,1899
9081,1872
9082,1859
9083,1836
9084,1807
9085,1781
9086,1821
9087,1840
9088,1852
9089,1863
9090,1890
9091,1920
9092,1904
9093,1908
9094,1911
9095,1919
9096,1895
9097,1905
9098,1856
9099,1854
9100,1826
9101,1821
9102,1810
9103,1826
9104,1829
9105,1860
9106,1886
9107,1895
9108,1917
9109,1904
9110,1878
9111,1907
9112,1915
9113,1902
9114,1872
9115,1856
9116,1839
9117,1798
9118,1792
9119,1808
9120,1837
9121,1835
9122,1855
9123,1892
9124,1898
9125,1897
9126,1915
9127,1902
9128,1920
9129,1918
9130,1902
9131,1861
9132,1854
9133,1838
9134,1793
9135,1794
9136,1831
9137,1846
9138,1847
9139,1845
9140,1899
9141,1915
9142,1901
9143,1910
9144,1904
9145,1906
9146,1892
9147,1891
9148,1850
9149,1840
9150,1829
9151,1809
9152,1795
9153,1825
9154,1841
9155,1854
9156,1891
9157,1904
9158,1904
9159,1895
9160,1874
9161,1909
9162,1915
9163,1887
9164,1873
9165,1849
9166,1840
9167,1811
9168,1791
9169,1806
9170,1831
9171,1831
9172,1870
9173,1879
9174,1891
9175,1893
9176,1900
9177,1894
9178,1904
9179,1895
9180,1898
9181,1871
9182,1855
9183,1822
9184,1806
9185,1789
9186,1821
9187,1841
9188,1839
9189,1861
9190,1888
9191,1903
9192,1904
9193,1893
9194,1904
9195,1905
9196,1890
9197,1907
9198,1861
9199,1847
9200,1835
9201,1788
9202,1797
9203,1831
9204,1840
9205,1840
9206,1872
9207,1894
9208,1893
9209,1898
9210,1891
9211,1906
9212,1899
9213,1890
9214,1874
9215,1843
9216,1847
9217,1807
9218,1775
9219,1805
9220,1830
9221,1845
9222,1847
9223,1878
9224,1906
9225,1907
9226,1914
9227,1895
9228,1904
9229,1893
9230,1904
9231,1869
9232,1853
9233,1840
9234,1806
9235,1782
9236,1820
9237,1823
9238,1841
9239,1844
9240,1885
9241,1879
9242,1899
9243,1893
9244,1907
9245,1915
9246,1920
9247,1894
9248,1853
9249,1847
9250,1836
9251,1809
9252,1795
9253,1821
9254,1856
9255,1850
9256,1873
9257,1898
9258,1901
9259,1904
9260,1873
9261,1913
9262,1906
9263,1897
9264,1882
9265,1849
9266,1841
9267,1807
9268,1768
9269,1809
9270,1830
9271,1843
9272,1840
9273,1887
9274,1913
9275,1905
9276,1918
9277,1899
9278,1920
9279,1904
9280,1903
9281,1856
9282,1846
9283,1822
9284,1809
9285,1799
9286,1827
9287,1843
9288,1845
9289,1890
9290,1893
9291,1910
9292,1913
9293,1903
9294,1906
9295,1904
9296,1903
9297,1901
9298,1856
9299,1857
9300,1822
9301,1778
9302,1802
9303,1820
9304,1826
9305,1851
9306,1873
9307,1883
9308,1890
9309,1901
9310,1885
9311,1906
9312,1915
9313,1900
9314,1893
9315,1853
9316,1829
9317,1823
9318,1807
9319,1808
9320,1831
9321,1845
9322,1863
9323,1894
9324,1905
9325,1917
9326,1933
9327,1919
9328,1931
9329,1914
9330,1904
9331,1859
9332,1840
9333,1792
9334,1763
9335,1765
9336,1808
9337,1831
9338,1856
9339,1862
9340,1873
9341,1872
9342,1874
9343,1898
9344,1904
9345,1919
9346,1925
9347,1923
9348,1853
9349,1840
9350,1838
9351,1840
9352,1788
9353,1819
9354,1840
9355,1851
9356,1872
9357,1890
9358,1895
9359,1911
9360,1904
9361,1914
9362,1915
9363,1895
9364,1873
9365,1861
9366,1849
9367,1831
9368,1779
9369,1808
9370,1831
9371,1853
9372,1866
9373,1866
9374,1899
9375,1910
9376,1877
9377,1897
9378,1920
9379,1905
9380,1900
9381,1872
9382,1853
9383,1845
9384,1826
9385,1793
9386,1808
9387,1830
9388,1835
9389,1865
9390,1901
9391,1902
9392,1909
9393,1894
9394,1902
9395,1909
9396,1904
9397,1895
9398,1853
9399,1853
9400,1839
9401,1791
9402,1791
9403,1838
9404,1850
9405,1858
9406,1865
9407,1893
9408,1888
9409,1906
9410,1898
9411,1914
9412,1902
9413,1888
9414,1869
9415,1840
9416,1827
9417,1812
9418,1794
9419,1802
9420,1827
9421,1855
9422,1849
9423,1883
9424,1910
9425,1901
9426,1892
9427,1894
9428,1904
9429,1902
9430,1898
9431,1857
9432,1840
9433,1835
9434,1804
9435,1783
9436,1817
9437,1824
9438,1847
9439,1875
9440,1889
9441,1891
9442,1904
9443,1878
9444,1902
9445,1904
9446,1901
9447,1870
9448,1852
9449,1834
9450,1812
9451,1819
9452,1805
9453,1833
9454,1830
9455,1849
9456,1865
9457,1899
9458,1910
9459,1897
9460,1903
9461,1916
9462,1906
9463,1904
9464,1888
9465,1856
9466,1827
9467,1839
9468,1796
9469,1807
9470,1829
9471,1851
9472,1854
9473,1867
9474,1906
9475,1920
9476,1910
9477,1886
9478,1889
9479,1910
9480,1909
9481,1877
9482,1842
9483,1844
9484,1792
9485,1792
9486,1823
9487,1838
9488,1845
9489,1872
9490,1879
9491,1895
9492,1904
9493,1910
9494,1905
9495,1906
9496,1919
9497,1901
9498,1861
9499,1863
9500,1813
9501,1814
9502,1789
9503,1815
9504,1843
9505,1837
9506,1860
9507,1891
9508,1894
9509,1914
9510,1908
9511,1904
9512,1911
9513,1897
9514,1877
9515,1855
9516,1827
9517,1833
9518,1777
9519,1806
9520,1828
9521,1851
9522,1862
9523,1874
9524,1904
9525,1900
9526,1892
9527,1898
9528,1920
9529,1902
9530,1902
9531,1863
9532,1847
9533,1840
9534,1808
9535,1795
9536,1808
9537,1826
9538,1837
9539,1834
9540,1885
9541,1899
9542,1897
9543,1861
9544,1904
9545,1917
9546,1902
9547,1905
9548,1857
9549,1854
9550,1824
9551,1793
9552,1793
9553,1819
9554,1834
9555,1845
9556,1874
9557,1903
9558,1901
9559,1907
9560,1887
9561,1914
9562,1907
9563,1904
9564,1894
9565,1845
9566,1841
9567,1829
9568,1806
9569,1805
9570,1830
9571,1856
9572,1843
9573,1882
9574,1903
9575,1906
9576,1889
9577,1903
9578,1902
9579,1904
9580,1901
9581,1870
9582,1855
9583,1827
9584,1833
9585,1804
9586,1808
9587,1833
9588,1840
9589,1863
9590,1890
9591,1904
9592,1903
9593,1886
9594,1897
9595,1902
9596,1887
9597,1887
9598,1853
9599,1841
9600,1839
9601,1798
9602,1786
9603,1827
9604,1846
9605,1840
9606,1869
9607,1892
9608,1905
9609,1915
9610,1893
9611,1907
9612,1913
9613,1905
9614,1894
9615,1847
9616,1843
9617,1834
9618,1776
9619,1802
9620,1823
9621,1831
9622,1845
9623,1873
9624,1903
9625,1889
9626,1882
9627,1877
9628,1901
9629,1897
9630,1895
9631,1867
9632,1846
9633,1853
9634,1819
9635,1776
9636,1818
9637,1834
9638,1844
9639,1872
9640,1879
9641,1895
9642,1902
9643,1887
9644,1903
9645,1913
9646,1911
9647,1899
9648,1870
9649,1845
9650,1838
9651,1796
9652,1792
9653,1813
9654,1835
9655,1837
9656,1857
9657,1889
9658,1888
9659,1898
9660,1901
9661,1915
9662,1907
9663,1899
9664,1893
9665,1853
9666,1846
9667,1835
9668,1815
9669,1806
9670,1827
9671,1833
9672,1851
9673,1875
9674,1910
9675,1892
9676,1902
9677,1899
9678,1904
9679,1904
9680,1900
9681,1887
9682,1855
9683,1840
9684,1815
9685,1804
9686,1804
9687,1818
9688,1841
9689,1874
9690,1886
9691,1907
9692,1905
9693,1889
9694,1906
9695,1909
9696,1898
9697,1906
9698,1863
9699,1847
9700,1831
9701,1807
9702,1795
9703,1817
9704,1841
9705,1834
9706,1861
9707,1888
9708,1885
9709,1894
9710,1219
9711,1853
9712,2043
9713,2352
9714,2373
9715,2224
9716,2160
9717,1988
9718,1603
9719,1476
9720,1559
9721,1405
9722,1407
9723,1535
9724,1774
9725,1941
9726,2083
9727,2161
9728,2205
9729,2197
9730,2133
9731,2005
9732,1896
9733,1823
9734,1760
9735,1713
9736,1616
9737,1556
9738,1623
9739,1724
9740,1834
9741,1598
9742,1718
9743,1969
9744,2338
9745,2386
9746,2291
9747,2263
9748,1950
9749,1478
9750,1360
9751,1325
9752,1216
9753,1460
9754,1707
9755,1939
9756,2109
9757,2182
9758,2176
9759,2121
9760,2058
9761,1999
9762,1920
9763,1861
9764,1845
9765,1763
9766,1762
9767,1769
9768,1761
9769,1770
9770,1808
9771,1827
9772,2115
9773,1693
9774,1914
9775,2352
9776,2453
9777,2332
9778,2167
9779,1755
9780,1341
9781,1365
9782,1299
9783,1510
9784,1705
9785,1806
9786,2021
9787,2142
9788,2153
9789,2114
9790,2106
9791,2015
9792,1919
9793,1885
9794,1821
9795,1802
9796,1793
9797,1805
9798,1784
9799,1802
9800,1792
9801,1793
9802,1788
9803,2011
9804,1715
9805,1793
9806,2163
9807,2352
9808,2301
9809,2027
9810,1565
9811,1619
9812,1616
9813,1637
9814,1645
9815,1669
9816,1886
9817,2032
9818,2069
9819,2045
9820,2032
9821,1999
9822,1930
9823,1869
9824,1825
9825,1814
9826,1788
9827,1780
9828,1807
9829,1827
9830,1838
9831,1830
9832,1830
9833,1814
9834,2035
9835,1669
9836,1724
9837,1937
9838,2176
9839,2199
9840,1873
9841,1695
9842,1916
9843,1954
9844,1525
9845,1370
9846,1648
9847,1968
9848,2059
9849,2047
9850,2064
9851,2023
9852,1933
9853,1855
9854,1814
9855,1761
9856,1753
9857,1778
9858,1771
9859,1777
9860,1795
9861,1863
9862,1881
9863,1920
9864,1887
9865,1984
9866,1623
9867,1749
9868,1899
9869,2225
9870,2234
9871,1777
9872,2009
9873,2352
9874,1654
9875,1168
9876,1252
9877,1710
9878,1984
9879,2086
9880,2110
9881,2119
9882,2075
9883,1942
9884,1813
9885,1728
9886,1711
9887,1704
9888,1752
9889,1767
9890,1767
9891,1822
9892,1850
9893,1870
9894,1872
9895,1890
9896,1877
9897,1677
9898,1815
9899,1886
9900,2159
9901,2119
9902,1794
9903,2559
9904,2275
9905,1241
9906,980
9907,1333
9908,1797
9909,2000
9910,2064
9911,2124
9912,2128
9913,2105
9914,1987
9915,1853
9916,1777
9917,1722
9918,1734
9919,1723
9920,1693
9921,1679
9922,1744
9923,1862
9924,1886
9925,1894
9926,1904
9927,1889
9928,1501
9929,1869
9930,1837
9931,2087
9932,2103
9933,1950
9934,2990
9935,2160
9936,1103
9937,914
9938,1264
9939,1759
9940,1997
9941,2090
9942,2132
9943,2158
9944,2082
9945,1958
9946,1840
9947,1797
9948,1707
9949,1695
9950,1703
9951,1677
9952,1722
9953,1801
9954,1809
9955,1827
9956,1872
9957,1902
9958,1905
9959,1470
9960,1867
9961,1818
9962,2054
9963,2081
9964,2059
9965,3216
9966,2173
9967,1082
9968,910
9969,1305
9970,1739
9971,1935
9972,2057
9973,2141
9974,2147
9975,2061
9976,1936
9977,1829
9978,1773
9979,1758
9980,1767
9981,1774
9982,1779
9983,1775
9984,1779
9985,1770
9986,1797
9987,1826
9988,1818
9989,1871
9990,1408
9991,1841
9992,1769
9993,1959
9994,1955
9995,2061
9996,3631
9997,2267
9998,1054
9999,935
10000,1356
10001,1748
10002,1924
10003,2015
10004,2078
10005,2069
10006,1985
10007,1884
10008,1829
10009,1750
10010,1729
10011,1765
10012,1840
10013,1885
10014,1840
10015,1823
10016,1823
10017,1822
10018,1787
10019,1782
10020,1821
10021,1440
10022,1775
10023,1733
10024,1968
10025,1986
10026,2118
10027,3810
10028,2254
10029,1072
10030,960
10031,1343
10032,1763
10033,1950
10034,2015
10035,2026
10036,2007
10037,1930
10038,1843
10039,1793
10040,1761
10041,1787
10042,1808
10043,1808
10044,1829
10045,1849
10046,1854
10047,1856
10048,1837
10049,1841
10050,1825
10051,1817
10052,1706
10053,1732
10054,1701
10055,1856
10056,1914
10057,2025
10058,3997
10059,2315
10060,1088
10061,993
10062,1375
10063,1802
10064,2009
10065,2054
10066,2076
10067,2004
10068,1840
10069,1765
10070,1734
10071,1681
10072,1712
10073,1773
10074,1863
10075,1873
10076,1855
10077,1852
10078,1895
10079,1901
10080,1903
10081,1869
10082,1852
10083,2093
10084,1661
10085,1676
10086,1828
10087,1895
10088,1988
10089,3968
10090,2326
10091,1127
10092,1006
10093,1357
10094,1776
10095,2018
10096,2103
10097,2154
10098,2035
10099,1910
10100,1778
10101,1665
10102,1598
10103,1649
10104,1700
10105,1793
10106,1857
10107,1891
10108,1906
10109,1898
10110,1893
10111,1922
10112,1930
10113,1915
10114,2353
10115,1665
10116,1737
10117,1822
10118,1857
10119,1878
10120,3858
10121,2389
10122,1037
10123,956
10124,1314
10125,1773
10126,2000
10127,2073
10128,2128
10129,2082
10130,1928
10131,1811
10132,1714
10133,1693
10134,1695
10135,1703
10136,1749
10137,1776
10138,1801
10139,1839
10140,1881
10141,1920
10142,1904
10143,1904
10144,1910
10145,2134
10146,1639
10147,1815
10148,1807
10149,1924
10150,1867
10151,3663
10152,2481
10153,1072
10154,922
10155,1200
10156,1693
10157,1985
10158,2101
10159,2125
10160,2101
10161,1969
10162,1882
10163,1808
10164,1743
10165,1707
10166,1727
10167,1733
10168,1742
10169,1777
10170,1806
10171,1845
10172,1855
10173,1890
10174,1920
10175,1910
10176,1904
10177,1591
10178,1854
10179,1839
10180,1972
10181,1853
10182,3536
10183,2723
10184,1091
10185,906
10186,1139
10187,1625
10188,1910
10189,2051
10190,2117
10191,2119
10192,1975
10193,1879
10194,1795
10195,1770
10196,1743
10197,1771
10198,1781
10199,1792
10200,1792
10201,1805
10202,1762
10203,1806
10204,1835
10205,1854
10206,1887
10207,1930
10208,1535
10209,1864
10210,1857
10211,2058
10212,1950
10213,3397
10214,2925
10215,1153
10216,890
10217,1095
10218,1555
10219,1808
10220,1957
10221,2053
10222,2039
10223,1945
10224,1887
10225,1810
10226,1760
10227,1753
10228,1802
10229,1830
10230,1854
10231,1840
10232,1815
10233,1830
10234,1806
10235,1808
10236,1808
10237,1840
10238,1858
10239,1390
10240,1835
10241,1827
10242,2039
10243,1920
10244,3205
10245,3152
10246,1299
10247,961
10248,1107
10249,1535
10250,1847
10251,1974
10252,1984
10253,2019
10254,1968
10255,1879
10256,1842
10257,1789
10258,1789
10259,1804
10260,1803
10261,1818
10262,1840
10263,1845
10264,1872
10265,1840
10266,1835
10267,1822
10268,1807
10269,1818
10270,1371
10271,1813
10272,1776
10273,2018
10274,1950
10275,3051
10276,3413
10277,1366
10278,937
10279,1065
10280,1495
10281,1839
10282,1986
10283,2052
10284,2025
10285,1897
10286,1767
10287,1728
10288,1693
10289,1731
10290,1776
10291,1826
10292,1889
10293,1891
10294,1875
10295,1920
10296,1933
10297,1898
10298,1822
10299,1842
10300,1858
10301,1424
10302,1737
10303,1696
10304,1895
10305,1795
10306,2666
10307,3534
10308,1456
10309,1023
10310,1136
10311,1600
10312,1959
10313,2077
10314,2121
10315,2051
10316,1926
10317,1814
10318,1723
10319,1648
10320,1650
10321,1677
10322,1744
10323,1808
10324,1873
10325,1895
10326,1879
10327,1870
10328,1909
10329,1915
10330,1904
10331,1888
10332,1854
10333,1840
10334,1815
10335,1809
10336,1810
10337,1839
10338,1859
10339,1867
10340,1872
10341,1920
10342,1925
10343,1920
10344,1900
10345,1891
10346,1904
10347,1886
10348,1845
10349,1831
10350,1793
10351,1778
10352,1770
10353,1811
10354,1845
10355,1834
10356,1854
10357,1904
10358,1919
10359,1911
10360,1887
10361,1889
10362,1902
10363,1904
10364,1891
10365,1830
10366,1825
10367,1813
10368,1769
10369,1776
10370,1808
10371,1828
10372,1844
10373,1872
10374,1888
10375,1910
10376,1883
10377,1872
10378,1886
10379,1891
10380,1862
10381,1855
10382,1834
10383,1838
10384,1813
10385,1759
10386,1792
10387,1831
10388,1858
10389,1846
10390,1877
10391,1897
10392,1904
10393,1886
10394,1881
10395,1904
10396,1881
10397,1872
10398,1845
10399,1827
10400,1808
10401,1830
10402,1791
10403,1818
10404,1815
10405,1811
10406,1833
10407,1853
10408,1872
10409,1872
10410,1889
10411,1893
10412,1901
10413,1885
10414,1877
10415,1829
10416,1827
10417,1810
10418,1786
10419,1787
10420,1822
10421,1838
10422,1826
10423,1856
10424,1889
10425,1902
10426,1906
10427,1897
10428,1903
10429,1905
10430,1885
10431,1856
10432,1830
10433,1809
10434,1794
10435,1731
10436,1776
10437,1806
10438,1821
10439,1840
10440,1872
10441,1897
10442,1899
10443,1907
10444,1893
10445,1924
10446,1911
10447,1915
10448,1872
10449,1826
10450,1793
10451,1794
10452,1779
10453,1805
10454,1802
10455,1823
10456,1853
10457,1883
10458,1908
10459,1872
10460,1869
10461,1898
10462,1902
10463,1901
10464,1877
10465,1840
10466,1840
10467,1819
10468,1744
10469,1758
10470,1792
10471,1838
10472,1843
10473,1872
10474,1891
10475,1875
10476,1890
10477,1882
10478,1901
10479,1904
10480,1882
10481,1855
10482,1837
10483,1810
10484,1811
10485,1776
10486,1801
10487,1824
10488,1840
10489,1835
10490,1874
10491,1899
10492,1908
10493,1904
10494,1875
10495,1875
10496,1881
10497,1874
10498,1840
10499,1821
10500,1814
10501,1798
10502,1771
10503,1799
10504,1822
10505,1831
10506,1835
10507,1884
10508,1895
10509,1904
10510,1904
10511,1889
10512,1891
10513,1882
10514,1863
10515,1855
10516,1829
10517,1798
10518,1770
10519,1776
10520,1811
10521,1824
10522,1839
10523,1857
10524,1889
10525,1886
10526,1904
10527,1885
10528,1892
10529,1910
10530,1877
10531,1858
10532,1829
10533,1808
10534,1814
10535,1815
10536,1794
10537,1823
10538,1846
10539,1865
10540,1899
10541,1907
10542,1909
10543,1907
10544,1892
10545,1903
10546,1907
10547,1883
10548,1856
10549,1834
10550,1812
10551,1815
10552,1789
10553,1809
10554,1847
10555,1825
10556,1842
10557,1873
10558,1891
10559,1903
10560,1905
10561,1901
10562,1902
10563,1904
10564,1894
10565,1851
10566,1833
10567,1822
10568,1790
10569,1790
10570,1831
10571,1841
10572,1837
10573,1877
10574,1915
10575,1906
10576,1886
10577,1873
10578,1904
10579,1895
10580,1889
10581,1872
10582,1831
10583,1831
10584,1799
10585,1782
10586,1793
10587,1823
10588,1846
10589,1858
10590,1873
10591,1886
10592,1893
10593,1895
10594,1887
10595,1895
10596,1890
10597,1877
10598,1835
10599,1826
10600,1825
10601,1782
10602,1773
10603,1807
10604,1818
10605,1828
10606,1839
10607,1875
10608,1888
10609,1897
10610,1878
10611,1889
10612,1890
10613,1893
10614,1870
10615,1808
10616,1814
10617,1797
10618,1777
10619,1762
10620,1799
10621,1823
10622,1830
10623,1846
10624,1904
10625,1883
10626,1883
10627,1869
10628,1895
10629,1903
10630,1884
10631,1881
10632,1839
10633,1826
10634,1815
10635,1789
10636,1791
10637,1833
10638,1845
10639,1851
10640,1883
10641,1904
10642,1899
10643,1905
10644,1895
10645,1899
10646,1899
10647,1890
10648,1862
10649,1841
10650,1810
10651,1808
10652,1793
10653,1827
10654,1835
10655,1845
10656,1867
10657,1897
10658,1918
10659,1909
10660,1917
10661,1915
10662,1920
10663,1907
10664,1907
10665,1863
10666,1841
10667,1847
10668,1803
10669,1804
10670,1841
10671,1849
10672,1845
10673,1891
10674,1905
10675,1904
10676,1898
10677,1910
10678,1921
10679,1926
10680,1911
10681,1893
10682,1853
10683,1843
10684,1831
10685,1829
10686,1817
10687,1831
10688,1843
10689,1851
10690,1888
10691,1904
10692,1906
10693,1916
10694,1909
10695,1935
10696,1918
10697,1903
10698,1889
10699,1862
10700,1831
10701,1818
10702,1801
10703,1819
10704,1840
10705,1840
10706,1859
10707,1887
10708,1904
10709,1903
10710,1899
10711,1915
10712,1919
10713,1925
10714,1909
10715,1863
10716,1840
10717,1820
10718,1811
10719,1792
10720,1830
10721,1841
10722,1845
10723,1872
10724,1893
10725,1910
10726,1895
10727,1890
10728,1909
10729,1921
10730,1904
10731,1900
10732,1856
10733,1843
10734,1834
10735,1809
10736,1802
10737,1825
10738,1834
10739,1854
10740,1877
10741,1890
10742,1904
10743,1904
10744,1899
10745,1931
10746,1897
10747,1895
10748,1886
10749,1841
10750,1823
10751,1839
10752,1811
10753,1824
10754,1834
10755,1836
10756,1870
10757,1889
10758,1893
10759,1902
10760,1903
10761,1906
10762,1909
10763,1904
10764,1898
10765,1843
10766,1837
10767,1834
10768,1794
10769,1788
10770,1837
10771,1832
10772,1851
10773,1857
10774,1892
10775,1892
10776,1911
10777,1889
10778,1903
10779,1919
10780,1895
10781,1858
10782,1846
10783,1847
10784,1839
10785,1798
10786,1804
10787,1829
10788,1840
10789,1840
10790,1891
10791,1904
10792,1899
10793,1910
10794,1894
10795,1904
10796,1894
10797,1893
10798,1859
10799,1855
10800,1840
10801,1818
10802,1794
10803,1808
10804,1834
10805,1846
10806,1856
10807,1891
10808,1893
10809,1909
10810,1913
10811,1911
10812,1917
10813,1920
10814,1906
10815,1859
10816,1839
10817,1823
10818,1798
10819,1781
10820,1827
10821,1840
10822,1836
10823,1853
10824,1893
10825,1902
10826,1881
10827,1907
10828,1904
10829,1914
10830,1883
10831,1905
10832,1859
10833,1838
10834,1817
10835,1792
10836,1807
10837,1830
10838,1854
10839,1840
10840,1875
10841,1900
10842,1915
10843,1894
10844,1898
10845,1907
10846,1903
10847,1905
10848,1859
10849,1861
10850,1838
10851,1807
10852,1802
10853,1811
10854,1824
10855,1819
10856,1862
10857,1877
10858,1890
10859,1902
10860,1911
10861,1910
10862,1919
10863,1918
10864,1906
10865,1858
10866,1852
10867,1820
10868,1808
10869,1793
10870,1822
10871,1841
10872,1840
10873,1872
10874,1900
10875,1914
10876,1898
10877,1881
10878,1906
10879,1919
10880,1902
10881,1898
10882,1846
10883,1843
10884,1810
10885,1807
10886,1793
10887,1815
10888,1822
10889,1859
10890,1854
10891,1894
10892,1895
10893,1897
10894,1892
10895,1921
10896,1904
10897,1903
10898,1871
10899,1847
10900,1835
10901,1803
10902,1796
10903,1812
10904,1830
10905,1857
10906,1855
10907,1874
10908,1893
10909,1909
10910,1903
10911,1910
10912,1914
10913,1920
10914,1893
10915,1859
10916,1856
10917,1820
10918,1787
10919,1789
10920,1808
10921,1838
10922,1840
10923,1856
10924,1904
10925,1914
10926,1889
10927,1887
10928,1924
10929,1921
10930,1921
10931,1909
10932,1853
10933,1840
10934,1840
10935,1814
10936,1806
10937,1831
10938,1840
10939,1847
10940,1861
10941,1897
10942,1911
10943,1901
10944,1898
10945,1917
10946,1919
10947,1899
10948,1893
10949,1855
10950,1815
10951,1808
10952,1786
10953,1804
10954,1835
10955,1809
10956,1856
10957,1894
10958,1918
10959,1914
10960,1882
10961,1906
10962,1920
10963,1923
10964,1891
10965,1866
10966,1842
10967,1819
10968,1792
10969,1803
10970,1829
10971,1829
10972,1839
10973,1869
10974,1878
10975,1894
10976,1913
10977,1887
10978,1910
10979,1913
10980,1888
10981,1905
10982,1856
10983,1847
10984,1837
10985,1787
10986,1803
10987,1823
10988,1826
10989,1847
10990,1876
10991,1893
10992,1904
10993,1893
10994,1895
10995,1907
10996,1918
10997,1897
10998,1885
10999,1855
11000,1824
11001,1840
11002,1798
11003,1812
11004,1825
11005,1845
11006,1862
11007,1894
11008,1888
11009,1895
11010,1932
11011,1904
11012,1920
11013,1907
11014,1904
11015,1858
11016,1861
11017,1837
11018,1811
11019,1770
11020,1808
11021,1830
11022,1840
11023,1883
11024,1872
11025,1877
11026,1881
11027,1894
11028,1903
11029,1904
11030,1917
11031,1902
11032,1853
11033,1844
11034,1830
11035,1783
11036,1793
11037,1829
11038,1834
11039,1842
11040,1871
11041,1904
11042,1901
11043,1904
11044,1904
11045,1917
11046,1918
11047,1903
11048,1865
11049,1858
11050,1830
11051,1833
11052,1805
11053,1808
11054,1824
11055,1829
11056,1857
11057,1891
11058,1898
11059,1903
11060,1893
11061,1904
11062,1915
11063,1914
11064,1906
11065,1847
11066,1851
11067,1820
11068,1787
11069,1780
11070,1817
11071,1826
11072,1837
11073,1843
11074,1894
11075,1895
11076,1898
11077,1899
11078,1918
11079,1918
11080,1904
11081,1874
11082,1861
11083,1855
11084,1834
11085,1783
11086,1799
11087,1824
11088,1842
11089,1840
11090,1872
11091,1899
11092,1907
11093,1904
11094,1883
11095,1904
11096,1899
11097,1894
11098,1892
11099,1849
11100,1843
11101,1817
11102,1780
11103,1815
11104,1827
11105,1863
11106,1851
11107,1891
11108,1914
11109,1905
11110,1897
11111,1904
11112,1909
11113,1916
11114,1903
11115,1862
11116,1845
11117,1818
11118,1822
11119,1790
11120,1823
11121,1831
11122,1824
11123,1866
11124,1886
11125,1895
11126,1913
11127,1904
11128,1904
11129,1905
11130,1873
11131,1899
11132,1851
11133,1842
11134,1814
11135,1803
11136,1789
11137,1827
11138,1825
11139,1847
11140,1872
11141,1887
11142,1918
11143,1902
11144,1909
11145,1918
11146,1902
11147,1902
11148,1891
11149,1854
11150,1835
11151,1827
11152,1798
11153,1808
11154,1819
11155,1854
11156,1846
11157,1872
11158,1900
11159,1893
11160,1920
11161,1905
11162,1911
11163,1895
11164,1904
11165,1862
11166,1859
11167,1840
11168,1804
11169,1779
11170,1808
11171,1830
11172,1839
11173,1855
11174,1905
11175,1904
11176,1902
11177,1915
11178,1911
11179,1917
11180,1915
11181,1901
11182,1857
11183,1843
11184,1826
11185,1790
11186,1781
11187,1821
11188,1847
11189,1869
11190,1878
11191,1894
11192,1900
11193,1871
11194,1903
11195,1922
11196,1903
11197,1904
11198,1885
11199,1867
11200,1845
11201,1829
11202,1779
11203,1814
11204,1828
11205,1855
11206,1873
11207,1878
11208,1888
11209,1898
11210,1904
11211,1904
11212,1914
11213,1919
11214,1899
11215,1861
11216,1849
11217,1840
11218,1804
11219,1788
11220,1809
11221,1825
11222,1836
11223,1845
11224,1883
11225,1905
11226,1906
11227,1903
11228,1925
11229,1923
11230,1904
11231,1909
11232,1855
11233,1846
11234,1819
11235,1788
11236,1780
11237,1824
11238,1823
11239,1838
11240,1861
11241,1898
11242,1906
11243,1900
11244,1872
11245,1903
11246,1904
11247,1893
11248,1884
11249,1874
11250,1852
11251,1811
11252,1792
11253,1813
11254,1814
11255,1843
11256,1869
11257,1877
11258,1904
11259,1887
11260,1890
11261,1900
11262,1901
11263,1890
11264,1917
11265,1854
11266,1856
11267,1838
11268,1791
11269,1792
11270,1814
11271,1831
11272,1848
11273,1864
11274,1886
11275,1887
11276,1891
11277,1905
11278,1909
11279,1918
11280,1904
11281,1899
11282,1852
11283,1840
11284,1817
11285,1802
11286,1792
11287,1834
11288,1850
11289,1841
11290,1866
11291,1906
11292,1910
11293,1903
11294,1897
11295,1906
11296,1915
11297,1901
11298,1881
11299,1859
11300,1839
11301,1820
11302,1792
11303,1808
11304,1825
11305,1822
11306,1859
11307,1873
11308,1906
11309,1904
11310,1898
11311,1898
11312,1904
11313,1919
11314,1910
11315,1857
11316,1850
11317,1839
11318,1791
11319,1773
11320,1801
11321,1843
11322,1831
11323,1845
11324,1892
11325,1920
11326,1922
11327,1250
11328,1841
11329,2032
11330,2313
11331,2352
11332,2241
11333,2174
11334,1955
11335,1579
11336,1462
11337,1476
11338,1309
11339,1397
11340,1651
11341,1840
11342,2000
11343,2107
11344,2178
11345,2236
11346,2243
11347,2181
11348,2091
11349,1953
11350,1856
11351,1722
11352,1630
11353,1498
11354,1505
11355,1615
11356,1742
11357,1812
11358,1360
11359,1739
11360,1975
11361,2328
11362,2381
11363,2295
11364,2198
11365,1858
11366,1425
11367,1359
11368,1215
11369,1297
11370,1583
11371,1797
11372,1969
11373,2109
11374,2190
11375,2165
11376,2122
11377,2090
11378,1990
11379,1910
11380,1849
11381,1829
11382,1771
11383,1749
11384,1751
11385,1764
11386,1766
11387,1808
11388,1827
11389,1734
11390,1733
11391,1933
11392,2352
11393,2446
11394,2325
11395,2117
11396,1622
11397,1351
11398,1366
11399,1394
11400,1616
11401,1697
11402,1841
11403,2002
11404,2116
11405,2122
11406,2097
11407,2064
11408,2014
11409,1931
11410,1894
11411,1842
11412,1810
11413,1801
11414,1809
11415,1786
11416,1798
11417,1787
11418,1772
11419,1761
11420,1918
11421,1714
11422,1779
11423,2138
11424,2329
11425,2287
11426,1933
11427,1514
11428,1692
11429,1780
11430,1687
11431,1585
11432,1649
11433,1901
11434,2067
11435,2065
11436,2033
11437,2044
11438,1994
11439,1907
11440,1872
11441,1839
11442,1806
11443,1793
11444,1789
11445,1819
11446,1823
11447,1844
11448,1840
11449,1831
11450,1832
11451,2157
11452,1676
11453,1733
11454,1983
11455,2238
11456,2195
11457,1779
11458,1790
11459,2101
11460,1907
11461,1406
11462,1359
11463,1673
11464,1975
11465,2063
11466,2059
11467,2037
11468,2013
11469,1922
11470,1856
11471,1809
11472,1750
11473,1719
11474,1767
11475,1778
11476,1791
11477,1834
11478,1851
11479,1883
11480,1875
11481,1897
11482,2106
11483,1710
11484,1754
11485,1959
11486,2223
11487,2150
11488,1712
11489,2167
11490,2307
11491,1466
11492,1092
11493,1287
11494,1747
11495,2014
11496,2073
11497,2095
11498,2097
11499,2046
11500,1968
11501,1840
11502,1729
11503,1691
11504,1710
11505,1719
11506,1730
11507,1785
11508,1822
11509,1840
11510,1869
11511,1876
11512,1907
11513,1902
11514,1611
11515,1797
11516,1882
11517,2166
11518,2071
11519,1719
11520,2657
11521,2254
11522,1231
11523,985
11524,1343
11525,1798
11526,1997
11527,2073
11528,2086
11529,2118
11530,2095
11531,1983
11532,1871
11533,1775
11534,1727
11535,1685
11536,1674
11537,1680
11538,1682
11539,1764
11540,1846
11541,1881
11542,1899
11543,1917
11544,1895
11545,1641
11546,1868
11547,1836
11548,2110
11549,2019
11550,1968
11551,3147
11552,2035
11553,982
11554,919
11555,1381
11556,1808
11557,2000
11558,2091
11559,2127
11560,2123
11561,2081
11562,1982
11563,1873
11564,1788
11565,1712
11566,1711
11567,1722
11568,1716
11569,1718
11570,1765
11571,1808
11572,1812
11573,1856
11574,1903
11575,1907
11576,1495
11577,1857
11578,1806
11579,2083
11580,2009
11581,2198
11582,3408
11583,1988
11584,971
11585,903
11586,1367
11587,1803
11588,1979
11589,2037
11590,2119
11591,2131
11592,2090
11593,1951
11594,1847
11595,1802
11596,1761
11597,1749
11598,1745
11599,1750
11600,1775
11601,1791
11602,1799
11603,1781
11604,1823
11605,1845
11606,1871
11607,1392
11608,1875
11609,1766
11610,1959
11611,1889
11612,2186
11613,3693
11614,2060
11615,1031
11616,1001
11617,1425
11618,1809
11619,1919
11620,1999
11621,2079
11622,2087
11623,2062
11624,1939
11625,1869
11626,1808
11627,1790
11628,1786
11629,1807
11630,1814
11631,1862
11632,1791
11633,1791
11634,1792
11635,1794
11636,1767
11637,1827
11638,1345
11639,1787
11640,1703
11641,1895
11642,1810
11643,2231
11644,3878
11645,2043
11646,1125
11647,1073
11648,1460
11649,1803
11650,1940
11651,1984
11652,2043
11653,2032
11654,1982
11655,1856
11656,1829
11657,1770
11658,1759
11659,1805
11660,1808
11661,1822
11662,1841
11663,1869
11664,1863
11665,1853
11666,1834
11667,1831
11668,1813
11669,1460
11670,1712
11671,1638
11672,1794
11673,1799
11674,2078
11675,4095
11676,2215
11677,1174
11678,1073
11679,1425
11680,1843
11681,2005
11682,2028
11683,2081
11684,2045
11685,1917
11686,1808
11687,1775
11688,1715
11689,1697
11690,1738
11691,1830
11692,1841
11693,1850
11694,1849
11695,1903
11696,1904
11697,1891
11698,1879
11699,1846
11700,1872
11701,1683
11702,1648
11703,1713
11704,1712
11705,1911
11706,4095
11707,2251
11708,1211
11709,1088
11710,1399
11711,1814
11712,2021
11713,2096
11714,2126
11715,2091
11716,1972
11717,1814
11718,1715
11719,1664
11720,1660
11721,1693
11722,1728
11723,1808
11724,1832
11725,1872
11726,1872
11727,1860
11728,1904
11729,1915
11730,1904
11731,2311
11732,1667
11733,1679
11734,1724
11735,1724
11736,1797
11737,4095
11738,2342
11739,1119
11740,1008
11741,1361
11742,1781
11743,1990
11744,2096
11745,2137
11746,2157
11747,2033
11748,1898
11749,1785
11750,1711
11751,1666
11752,1673
11753,1712
11754,1764
11755,1795
11756,1817
11757,1859
11758,1886
11759,1903
11760,1913
11761,1904
11762,2333
11763,1681
11764,1758
11765,1728
11766,1725
11767,1722
11768,3888
11769,2439
11770,1177
11771,997
11772,1244
11773,1717
11774,1980
11775,2097
11776,2150
11777,2135
11778,2073
11779,1955
11780,1872
11781,1806
11782,1743
11783,1728
11784,1725
11785,1698
11786,1677
11787,1760
11788,1808
11789,1844
11790,1856
11791,1905
11792,1920
11793,2058
11794,1589
11795,1812
11796,1773
11797,1840
11798,1761
11799,3952
11800,2641
11801,1135
11802,897
11803,1146
11804,1650
11805,1936
11806,2060
11807,2120
11808,2160
11809,2073
11810,1936
11811,1858
11812,1829
11813,1783
11814,1751
11815,1751
11816,1766
11817,1754
11818,1763
11819,1755
11820,1784
11821,1825
11822,1841
11823,1858
11824,1905
11825,1554
11826,1840
11827,1741
11828,1875
11829,1775
11830,3905
11831,2832
11832,1185
11833,976
11834,1126
11835,1535
11836,1830
11837,1974
11838,2068
11839,2092
11840,2043
11841,1971
11842,1903
11843,1829
11844,1757
11845,1771
11846,1819
11847,1819
11848,1806
11849,1792
11850,1775
11851,1770
11852,1797
11853,1782
11854,1831
11855,1847
11856,1354
11857,1831
11858,1758
11859,1904
11860,1744
11861,3600
11862,3166
11863,1439
11864,1061
11865,1141
11866,1570
11867,1813
11868,1919
11869,1972
11870,2023
11871,2000
11872,1899
11873,1841
11874,1834
11875,1769
11876,1770
11877,1769
11878,1808
11879,1856
11880,1863
11881,1871
11882,1830
11883,1829
11884,1808
11885,1769
11886,1776
11887,1297
11888,1791
11889,1671
11890,1867
11891,1741
11892,3312
11893,3395
11894,1477
11895,1061
11896,1152
11897,1558
11898,1853
11899,1947
11900,2001
11901,2046
11902,1969
11903,1866
11904,1811
11905,1770
11906,1735
11907,1723
11908,1775
11909,1807
11910,1841
11911,1865
11912,1882
11913,1902
11914,1893
11915,1854
11916,1827
11917,1809
11918,1233
11919,1690
11920,1625
11921,1825
11922,1648
11923,2911
